Wavelength	Intensities	
nm	a.u.	
179.22	1682.1	
179.44	1685.5	
179.65	1678.7	
179.86	1692.3	
180.08	1660.2	
180.29	3801	
180.51	2973.7	
180.72	4928.1	
180.94	5445.5	
181.15	2660.3	
181.37	2730.6	
181.58	4726	
181.79	4951.3	
182.01	2802.3	
182.22	2949.1	
182.44	4943.8	
182.65	4353.3	
182.87	3523.2	
183.08	3232.4	
183.29	5206.6	
183.51	4362.9	
183.72	2941.6	
183.94	4092.5	
184.15	4729.4	
184.37	4655.7	
184.58	2689	
184.79	3446.7	
185.01	4463.9	
185.22	5001.1	
185.44	3614	
185.65	3101.3	
185.86	4685.8	
186.08	4325.3	
186.29	2626.2	
186.51	2832.3	
186.72	4440	
186.94	5078.3	
187.15	3155.2	
187.36	3306.1	
187.58	6309.8	
187.79	4762.9	
188.01	3293.8	
188.22	4937.7	
188.43	5532.2	
188.65	4937	
188.86	2771.6	
189.08	3273.3	
189.29	4541.7	
189.5	4534.2	
189.72	2984.6	
189.93	3086.3	
190.15	5076.9	
190.36	5835.3	
190.57	3288.4	
190.79	3127.2	
191	5137	
191.22	5073.5	
191.43	3315.7	
191.64	2824.8	
191.86	5229.8	
192.07	5124	
192.29	2908.8	
192.5	2990	
192.71	5102.2	
192.93	4567.7	
193.14	3003.7	
193.35	3056.9	
193.57	4524.6	
193.78	5156.1	
194	2538.8	
194.21	2960	
194.42	4425.7	
194.64	4747.9	
194.85	3209.2	
195.07	3721.2	
195.28	4674.1	
195.49	4201.7	
195.71	3857	
195.92	2793.4	
196.13	4857.1	
196.35	4874.2	
196.56	4029	
196.78	3237.8	
196.99	5802.6	
197.2	5460.6	
197.42	3610.6	
197.63	3251.5	
197.84	4302.8	
198.06	4891.2	
198.27	2992.1	
198.48	3847.5	
198.7	4504.8	
198.91	4709	
199.13	3252.9	
199.34	3232.4	
199.55	5051.7	
199.77	4110.3	
199.98	2922.5	
200.19	3293.1	
200.41	4659.8	
200.62	4401.8	
200.83	3334.8	
201.05	3592.1	
201.26	4668.7	
201.47	4468.7	
201.69	2904	
201.9	2844.6	
202.11	4702.1	
202.33	5398.4	
202.54	3048.1	
202.76	3433.8	
202.97	4735.6	
203.18	4827.7	
203.4	3374.4	
203.61	3359.4	
203.82	4708.3	
204.04	4479.6	
204.25	3295.2	
204.46	3188	
204.68	4676.9	
204.89	4924.7	
205.1	3153.9	
205.32	2820.1	
205.53	4904.2	
205.74	5102.2	
205.96	2466.4	
206.17	3265.8	
206.38	4945.2	
206.6	5072.1	
206.81	3621.5	
207.02	3015.3	
207.24	4882.4	
207.45	5154.1	
207.66	3149.8	
207.88	2753.8	
208.09	4868	
208.3	4734.9	
208.52	2938.8	
208.73	3192.1	
208.94	4711.7	
209.15	5243.5	
209.37	3117	
209.58	3213.3	
209.79	5095.3	
210.01	4590.9	
210.22	2635.1	
210.43	2716.3	
210.65	4666.6	
210.86	4967	
211.07	3106.8	
211.29	2830.3	
211.5	4891.2	
211.71	4670.7	
211.93	2919	
212.14	2891	
212.35	4664.6	
212.56	4772.4	
212.78	3244.7	
212.99	2727.9	
213.2	5318.6	
213.42	4538.3	
213.63	2962.7	
213.84	3128.6	
214.06	4312.3	
214.27	4344.4	
214.48	3110.2	
214.69	3263.1	
214.91	5173.2	
215.12	5201.2	
215.33	3261	
215.55	3573	
215.76	5570.5	
215.97	4922.6	
216.18	3158.7	
216.4	3183.2	
216.61	4436.6	
216.82	5015.5	
217.04	2906.8	
217.25	3005.1	
217.46	5115.1	
217.67	4982	
217.89	2665.1	
218.1	2765.4	
218.31	4739.7	
218.53	4840.7	
218.74	3072.6	
218.95	2936.1	
219.16	4675.5	
219.38	5333.6	
219.59	2902.7	
219.8	3453.6	
220.01	5793	
220.23	4757.4	
220.44	3667.9	
220.65	2850.1	
220.87	4775.9	
221.08	5210	
221.29	2775.7	
221.5	3493.8	
221.72	6049.7	
221.93	4524	
222.14	3267.2	
222.35	3830.4	
222.57	4692.6	
222.78	5033.9	
222.99	3129.3	
223.2	3336.8	
223.42	4874.2	
223.63	5038.7	
223.84	2495.8	
224.05	2489.6	
224.27	5651	
224.48	5292.6	
224.69	3964.9	
224.9	3248.8	
225.12	4811.4	
225.33	4660.5	
225.54	2671.9	
225.75	2970.9	
225.97	4455	
226.18	4622.3	
226.39	3084.2	
226.6	2946.3	
226.82	4540.3	
227.03	4420.9	
227.24	3218.7	
227.45	2762	
227.67	5018.9	
227.88	5324	
228.09	3579.8	
228.3	3507.5	
228.52	4940.4	
228.73	4633.2	
228.94	3025.5	
229.15	2783.2	
229.36	4662.5	
229.58	4620.2	
229.79	3093.1	
230	3485	
230.21	5426.4	
230.43	4730.8	
230.64	3234.4	
230.85	3306.8	
231.06	5040.1	
231.28	4992.9	
231.49	2791.4	
231.7	3228.3	
231.91	4969.1	
232.12	4685.8	
232.34	2861.7	
232.55	3124.5	
232.76	5186.1	
232.97	4762.9	
233.18	2921.8	
233.4	3230.3	
233.61	4876.2	
233.82	4619.5	
234.03	3039.2	
234.25	2994.8	
234.46	6117.3	
234.67	4719.2	
234.88	3343	
235.09	2948.4	
235.31	4825	
235.52	4612.7	
235.73	3204.4	
235.94	2770.9	
236.15	4485.7	
236.37	5520	
236.58	2889.7	
236.79	3095.8	
237	4894	
237.21	4334.9	
237.43	3380.5	
237.64	2726.5	
237.85	7584.3	
238.06	4327.4	
238.27	3303.4	
238.48	2765.4	
238.7	4960.2	
238.91	4533.5	
239.12	3063.1	
239.33	3178.4	
239.54	4456.4	
239.76	4647.5	
239.97	3114.3	
240.18	3145.7	
240.39	5588.9	
240.6	4871.4	
240.82	3296.5	
241.03	2750.4	
241.24	4655	
241.45	5312.4	
241.66	2890.4	
241.87	3384.6	
242.09	5235.3	
242.3	5460.6	
242.51	3358.7	
242.72	3080.1	
242.93	4996.4	
243.14	4702.1	
243.36	3614	
243.57	3835.2	
243.78	5296	
243.99	4900.8	
244.2	3151.8	
244.41	2877.4	
244.63	4399.7	
244.84	4838	
245.05	3295.9	
245.26	3153.2	
245.47	4906.9	
245.68	5035.3	
245.9	3974.4	
246.11	3279.5	
246.32	4545.8	
246.53	4913.8	
246.74	4801.8	
246.95	2682.8	
247.16	4414.7	
247.38	4702.8	
247.59	2721.8	
247.8	3157.3	
248.01	4380.6	
248.22	4692.6	
248.43	2889	
248.64	3047.4	
248.86	4343.7	
249.07	4571.7	
249.28	2872.6	
249.49	3244	
249.7	5075.5	
249.91	5058.5	
250.12	2678.1	
250.34	2750.4	
250.55	4807.3	
250.76	4688.5	
250.97	3186	
251.18	3252.9	
251.39	5115.8	
251.6	4827.1	
251.81	3265.1	
252.03	3247.4	
252.24	4569	
252.45	5021.6	
252.66	2760	
252.87	3408.5	
253.08	4700.8	
253.29	5832.6	
253.5	2824.8	
253.72	3697.9	
253.93	4609.3	
254.14	5345.2	
254.35	3001	
254.56	3041.2	
254.77	4835.3	
254.98	4435.9	
255.19	2958.6	
255.41	3674.1	
255.62	4828.4	
255.83	5152.7	
256.04	3339.6	
256.25	3216.7	
256.46	5500.2	
256.67	4526.7	
256.88	3242.6	
257.09	3502	
257.31	4398.4	
257.52	4407.2	
257.73	3908.9	
257.94	2979.1	
258.15	4595.6	
258.36	4714.4	
258.57	3639.2	
258.78	2486.2	
258.99	5072.1	
259.2	4568.3	
259.41	2982.5	
259.63	3068.5	
259.84	5268.1	
260.05	5516.5	
260.26	3835.8	
260.47	2935.4	
260.68	5137.7	
260.89	4601.8	
261.1	3502.7	
261.31	2863.1	
261.52	5169.8	
261.73	5328.1	
261.95	3764.2	
262.16	3323.2	
262.37	5165	
262.58	5270.8	
262.79	3762.1	
263	3056.3	
263.21	4736.3	
263.42	4264.6	
263.63	3302.7	
263.84	3020.1	
264.05	5114.5	
264.26	5320.6	
264.47	3590.1	
264.69	3224.9	
264.9	5219.6	
265.11	4783.4	
265.32	2889	
265.53	2956.6	
265.74	4750.6	
265.95	4263.2	
266.16	3192.8	
266.37	3433.1	
266.58	4781.3	
266.79	4524.6	
267	3022.1	
267.21	2848	
267.42	4358.8	
267.63	4668.7	
267.84	3123.8	
268.06	2761.3	
268.27	5031.9	
268.48	5166.3	
268.69	3081.5	
268.9	3535.5	
269.11	5197.7	
269.32	4257	
269.53	3091.8	
269.74	2946.3	
269.95	4868.7	
270.16	4285.7	
270.37	3124.5	
270.58	3605.1	
270.79	4618.9	
271	5057.1	
271.21	3263.1	
271.42	3189.4	
271.63	4888.5	
271.84	4402.5	
272.05	2633	
272.26	2871.9	
272.47	4712.4	
272.68	4840	
272.89	3059.7	
273.11	3387.3	
273.32	4493.2	
273.53	5339.7	
273.74	3330.7	
273.95	3236.5	
274.16	5065.3	
274.37	4734.9	
274.58	3435.8	
274.79	2826.9	
275	4863.9	
275.21	5130.8	
275.42	3999.7	
275.63	3416	
275.84	4954.7	
276.05	5860.6	
276.26	3254.9	
276.47	3145	
276.68	4655	
276.89	5375.2	
277.1	3472	
277.31	2792.7	
277.52	4851	
277.73	5100.1	
277.94	2785.2	
278.15	3014.6	
278.36	4833.9	
278.57	4443.4	
278.78	3025.5	
278.99	3398.3	
279.2	4468	
279.41	4447.5	
279.62	3849.5	
279.83	2808.4	
280.04	5554.8	
280.25	4407.2	
280.46	3812.6	
280.67	3124.5	
280.88	4431.1	
281.09	5158.8	
281.3	3296.5	
281.51	3974.4	
281.72	4481.6	
281.93	5046.9	
282.14	2990	
282.35	3216.7	
282.56	5105.6	
282.77	5023	
282.98	3048.7	
283.19	3620.8	
283.4	5976	
283.61	4643.4	
283.82	2894.5	
284.03	3760.8	
284.24	4838	
284.45	5148.6	
284.66	3848.8	
284.87	3588	
285.08	5102.9	
285.29	5251.7	
285.5	2700.6	
285.71	3055.6	
285.92	5074.2	
286.12	5536.3	
286.33	3767.6	
286.54	3056.9	
286.75	4988.2	
286.96	4616.8	
287.17	2883.5	
287.38	3682.9	
287.59	4570.4	
287.8	4478.2	
288.01	3151.1	
288.22	3454.9	
288.43	4924.7	
288.64	4315.1	
288.85	3637.2	
289.06	3433.8	
289.27	5039.4	
289.48	5294.7	
289.69	3816	
289.9	3477.5	
290.11	5196.4	
290.32	4574.5	
290.53	3615.3	
290.74	3351.2	
290.94	4973.2	
291.15	5038.7	
291.36	2983.2	
291.57	3453.6	
291.78	4593.6	
291.99	4300.1	
292.2	2897.2	
292.41	3332.7	
292.62	5059.8	
292.83	4943.8	
293.04	4030.4	
293.25	2918.4	
293.46	4640	
293.67	5065.3	
293.88	2923.8	
294.09	2908.1	
294.29	4433.9	
294.5	4793.6	
294.71	3201	
294.92	3011.2	
295.13	4613.4	
295.34	5522.7	
295.55	2721.1	
295.76	2671.9	
295.97	5044.8	
296.18	5482.4	
296.39	2821.4	
296.6	2967.5	
296.81	4701.5	
297.01	5001.8	
297.22	3126.6	
297.43	3017.3	
297.64	4552.6	
297.85	4437.9	
298.06	2568.2	
298.27	2732.7	
298.48	4659.1	
298.69	4490.5	
298.9	3202.3	
299.11	2902	
299.31	4404.5	
299.52	4426.3	
299.73	3392.1	
299.94	3358	
300.15	4691.9	
300.36	4473.4	
300.57	3300	
300.78	3297.2	
300.99	4625.7	
301.2	4790.2	
301.4	3005.7	
301.61	3137.5	
301.82	4943.8	
302.03	5029.8	
302.24	3537.5	
302.45	2837.1	
302.66	4893.3	
302.87	5165.7	
303.08	2971.6	
303.29	3906.2	
303.49	4579.9	
303.7	4666	
303.91	2687.6	
304.12	3700.7	
304.33	4316.4	
304.54	4868.7	
304.75	2976.4	
304.96	2862.4	
305.16	4967	
305.37	5373.9	
305.58	2700.6	
305.79	2710.8	
306	4973.2	
306.21	4242	
306.42	3019.4	
306.63	4289.1	
306.83	4615.4	
307.04	5025	
307.25	3261	
307.46	3194.1	
307.67	4197.7	
307.88	4965	
308.09	2955.9	
308.29	3043.3	
308.5	4750.6	
308.71	5141.8	
308.92	3158	
309.13	2905.4	
309.34	4702.1	
309.55	4702.1	
309.75	3666.5	
309.96	3295.2	
310.17	5016.8	
310.38	4484.4	
310.59	3435.1	
310.8	2818	
311.01	4915.1	
311.21	4622.9	
311.42	2875.3	
311.63	2949.1	
311.84	4532.8	
312.05	4704.9	
312.26	3253.5	
312.46	3543.7	
312.67	4559.5	
312.88	4355.3	
313.09	2919.7	
313.3	2839.2	
313.51	5251.7	
313.71	5546.6	
313.92	2917	
314.13	3057.6	
314.34	4850.3	
314.55	4665.3	
314.76	3581.9	
314.96	3160.7	
315.17	4863.2	
315.38	4937	
315.59	2932	
315.8	2786.6	
316.01	5254.4	
316.21	5392.3	
316.42	2894.5	
316.63	3162.1	
316.84	4603.2	
317.05	5131.5	
317.26	3347.7	
317.46	3053.5	
317.67	4648.2	
317.88	4992.3	
318.09	3560.7	
318.3	2722.4	
318.5	4562.9	
318.71	4910.3	
318.92	4395.6	
319.13	3343	
319.34	5085.8	
319.54	5157.5	
319.75	2680.1	
319.96	2636.4	
320.17	4941.1	
320.38	5113.1	
320.58	2684.9	
320.79	3160.7	
321	5117.9	
321.21	5203.2	
321.42	3142.9	
321.62	2740.9	
321.83	4469.4	
322.04	4726	
322.25	3097.2	
322.46	2899.2	
322.66	4743.1	
322.87	4947.2	
323.08	3478.1	
323.29	2801.6	
323.5	5452.4	
323.7	4430.4	
323.91	3812	
324.12	3429.7	
324.33	4871.4	
324.53	4996.4	
324.74	3323.2	
324.95	3435.8	
325.16	4364.2	
325.37	4588.8	
325.57	2899.9	
325.78	2934.1	
325.99	4847.5	
326.2	4365.6	
326.4	3885	
326.61	2719.7	
326.82	4605.9	
327.03	4793.6	
327.24	3958	
327.44	3740.3	
327.65	4943.1	
327.86	4111	
328.07	3360	
328.27	2812.5	
328.48	5195	
328.69	4383.3	
328.9	4029.7	
329.1	3024.8	
329.31	4650.3	
329.52	5294	
329.73	2931.3	
329.93	3181.9	
330.14	4738.3	
330.35	4879.6	
330.56	4519.2	
330.76	3489.7	
330.97	4604.5	
331.18	4838.7	
331.39	3269.2	
331.59	2701.3	
331.8	5128.1	
332.01	5157.5	
332.22	2973.7	
332.42	3316.3	
332.63	4846.9	
332.84	4433.2	
333.05	3169.6	
333.25	2981.2	
333.46	4506.2	
333.67	4725.3	
333.88	3046.7	
334.08	3265.1	
334.29	5909.8	
334.5	5085.1	
334.7	2903.3	
334.91	3898	
335.12	4358.1	
335.33	4895.3	
335.53	3152.5	
335.74	4468	
335.95	4601.8	
336.16	4417.5	
336.36	3179.1	
336.57	3595.6	
336.78	4325.3	
336.98	5124.7	
337.19	3784	
337.4	3142.9	
337.61	5539.8	
337.81	4368.3	
338.02	2956.6	
338.23	3691.8	
338.43	5269.4	
338.64	4510.3	
338.85	2970.9	
339.05	3747.8	
339.26	5356.8	
339.47	4313.7	
339.68	2897.9	
339.88	4019.5	
340.09	5014.8	
340.3	5058.5	
340.5	3304.7	
340.71	2642.6	
340.92	4382	
341.13	5167.7	
341.33	2805	
341.54	3371	
341.75	4878.9	
341.95	4574.5	
342.16	3207.8	
342.37	3502.7	
342.57	4405.2	
342.78	4691.2	
342.99	3493.8	
343.19	2697.9	
343.4	5031.9	
343.61	4904.9	
343.81	3102	
344.02	2824.1	
344.23	5012.7	
344.43	5227.8	
344.64	3512.3	
344.85	3466.5	
345.06	4906.3	
345.26	5156.1	
345.47	3302	
345.68	3783.3	
345.88	4370.4	
346.09	5113.1	
346.3	3375.1	
346.5	2635.1	
346.71	4646.2	
346.92	4524.6	
347.12	2744.3	
347.33	3314.3	
347.54	5044.8	
347.74	5429.2	
347.95	3254.9	
348.16	2622.1	
348.36	4620.9	
348.57	4456.4	
348.78	3340.9	
348.98	3467.9	
349.19	4733.5	
349.39	4306.9	
349.6	2808.4	
349.81	2957.9	
350.01	4952.7	
350.22	4511.7	
350.43	3242.6	
350.63	3740.3	
350.84	4777.9	
351.05	4616.1	
351.25	2979.8	
351.46	2793.4	
351.67	5124.7	
351.87	4472.8	
352.08	3134.8	
352.29	3528	
352.49	5010	
352.7	5102.2	
352.9	2843.9	
353.11	3525.2	
353.32	5518.6	
353.52	4674.1	
353.73	2970.2	
353.94	3585.3	
354.14	5010.7	
354.35	4796.3	
354.55	3032.4	
354.76	3244.7	
354.97	4945.8	
355.17	4775.2	
355.38	2942.2	
355.59	3695.9	
355.79	4550.6	
356	4789.5	
356.2	3293.8	
356.41	2865.8	
356.62	4368.3	
356.82	4726.7	
357.03	3494.5	
357.24	3157.3	
357.44	4592.2	
357.65	4618.9	
357.85	4001.7	
358.06	3360	
358.27	4425.7	
358.47	4572.4	
358.68	2919.7	
358.88	3512.3	
359.09	4954	
359.3	5188.2	
359.5	3958	
359.71	3642.7	
359.91	5532.9	
360.12	4999.1	
360.33	3521.1	
360.53	3852.9	
360.74	4657.8	
360.94	4689.8	
361.15	3689.8	
361.36	3162.1	
361.56	5218.9	
361.77	4878.9	
361.97	4040	
362.18	3287.7	
362.38	5265.3	
362.59	4594.3	
362.8	3163.4	
363	3078.1	
363.21	4461.8	
363.41	4995	
363.62	3515.7	
363.83	4147.1	
364.03	5090.6	
364.24	5672.2	
364.44	4311	
364.65	4259.8	
364.85	4924.7	
365.06	4668.7	
365.27	3267.9	
365.47	3364.1	
365.68	5565.7	
365.88	4888.5	
366.09	3616	
366.29	3351.8	
366.5	5031.9	
366.71	5360.2	
366.91	4277.5	
367.12	3751.2	
367.32	5787.6	
367.53	5265.3	
367.73	3807.9	
367.94	4485.1	
368.14	5320.6	
368.35	5772.5	
368.56	3738.9	
368.76	3564.8	
368.97	5387.5	
369.17	6390.3	
369.38	3426.9	
369.58	3605.8	
369.79	4657.8	
369.99	5625.1	
370.2	4276.2	
370.4	3643.3	
370.61	5190.2	
370.82	6044.9	
371.02	3581.2	
371.23	3167.5	
371.43	4719.2	
371.64	5587.5	
371.84	3628.3	
372.05	4454.3	
372.25	6411.5	
372.46	5342.5	
372.66	3642	
372.87	3648.1	
373.07	5493.3	
373.28	6625.9	
373.48	4383.3	
373.69	4212.7	
373.9	5232.6	
374.1	5182	
374.31	4433.9	
374.51	4044.1	
374.72	5717.2	
374.92	4977.9	
375.13	4582	
375.33	4001.7	
375.54	5481	
375.74	5165.7	
375.95	4119.8	
376.15	4889.9	
376.36	5611.4	
376.56	5444.2	
376.77	4108.2	
376.97	4386.7	
377.18	6395.8	
377.38	5739.1	
377.59	4739	
377.79	3988.1	
378	5545.9	
378.2	5816.9	
378.41	3979.9	
378.61	3868.6	
378.82	5994.4	
379.02	5451	
379.23	4089.8	
379.43	4829.8	
379.64	6110.5	
379.84	5806.7	
380.05	4026.3	
380.25	3900	
380.46	5810.1	
380.66	5515.2	
380.87	4928.1	
381.07	5130.2	
381.28	6352.8	
381.48	5773.2	
381.69	4008.6	
381.89	4010.6	
382.1	5113.1	
382.3	5865.4	
382.51	4806.6	
382.71	5372.5	
382.91	5724.8	
383.12	6220.4	
383.32	4205.8	
383.53	4293.2	
383.73	5664.7	
383.94	5621.7	
384.14	4338.3	
384.35	3750.5	
384.55	5468.8	
384.76	5788.2	
384.96	4186	
385.17	4426.3	
385.37	5764.3	
385.58	5223	
385.78	4377.9	
385.98	3660.4	
386.19	5378	
386.39	5671.5	
386.6	4047.5	
386.8	4201.7	
387.01	5741.8	
387.21	5795.1	
387.42	4478.9	
387.62	4894	
387.83	5400.5	
388.03	5633.3	
388.23	4331.5	
388.44	4829.8	
388.64	5244.2	
388.85	5293.3	
389.05	4580.6	
389.26	5033.2	
389.46	6737.1	
389.67	6239.5	
389.87	4774.5	
390.07	4674.1	
390.28	5685.2	
390.48	5392.3	
390.69	4158.1	
390.89	4405.2	
391.1	5586.9	
391.3	6214.2	
391.5	5167	
391.71	5600.5	
391.91	6123.4	
392.12	6662.7	
392.32	5237.3	
392.53	4691.9	
392.73	5702.2	
392.93	5792.3	
393.14	4470.7	
393.34	5054.4	
393.55	6199.2	
393.75	5728.2	
393.95	4502.1	
394.16	4386.1	
394.36	5642.8	
394.57	6064.7	
394.77	4151.9	
394.98	4337.6	
395.18	5616.9	
395.38	5739.8	
395.59	5098.1	
395.79	4368.3	
396	5802.6	
396.2	6139.8	
396.4	4984.8	
396.61	5018.2	
396.81	6326.9	
397.02	5827.2	
397.22	5324.7	
397.42	5259.9	
397.63	6419.7	
397.83	5901.6	
398.04	4500.1	
398.24	4948.6	
398.44	6252.4	
398.65	5612.1	
398.85	4501.4	
399.05	4571.1	
399.26	6004	
399.46	7159.7	
399.67	4851	
399.87	4658.4	
400.07	6159.6	
400.28	6418.3	
400.48	4767.7	
400.69	5590.3	
400.89	6616.3	
401.09	7064.1	
401.3	4752.7	
401.5	5603.2	
401.7	7262.1	
401.91	7453.2	
402.11	5087.2	
402.32	5195.7	
402.52	6846.4	
402.72	6679.1	
402.93	5337	
403.13	4565.6	
403.33	7284.6	
403.54	6152.1	
403.74	5044.8	
403.94	5600.5	
404.15	6321.4	
404.35	6993.8	
404.56	4750.6	
404.76	6000.5	
404.96	6552.8	
405.17	6408.8	
405.37	5705	
405.57	5283.8	
405.78	6794.5	
405.98	6310.5	
406.18	5074.9	
406.39	5584.1	
406.59	6750.8	
406.79	6481.1	
407	4943.1	
407.2	4918.5	
407.4	6968.6	
407.61	6899.6	
407.81	4950.6	
408.01	6412.9	
408.22	6013.5	
408.42	7506.5	
408.62	5913.2	
408.83	5664.7	
409.03	6827.9	
409.23	6859.3	
409.44	5780.1	
409.64	6123.4	
409.84	7802.8	
410.05	7745.4	
410.25	6217	
410.45	6051.1	
410.66	7671	
410.86	9267.1	
411.06	6626.5	
411.27	6417	
411.47	9387.9	
411.67	7938.6	
411.88	6609.5	
412.08	6931	
412.28	8354.3	
412.49	8759.2	
412.69	6762.4	
412.89	6839.5	
413.09	8785.8	
413.3	8746.2	
413.5	6948.1	
413.7	6748.1	
413.91	8202.8	
414.11	8695.7	
414.31	6956.9	
414.52	7318.1	
414.72	8665	
414.92	8678.6	
415.12	6883.2	
415.33	7326.9	
415.53	8957.1	
415.73	9050.7	
415.94	7542.7	
416.14	7248.4	
416.34	8434.2	
416.55	8071.7	
416.75	8084	
416.95	7760.4	
417.15	9176.9	
417.36	9377	
417.56	8329.8	
417.76	7707.9	
417.97	9412.5	
418.17	9136	
418.37	7395.2	
418.57	7477.1	
418.78	9257.5	
418.98	8811.7	
419.18	8249.9	
419.38	8091.5	
419.59	8871.8	
419.79	8586.5	
419.99	7363.8	
420.2	7630	
420.4	9268.4	
420.6	9178.3	
420.8	7325.6	
421.01	7222.5	
421.21	9147.6	
421.41	9269.8	
421.61	7550.9	
421.82	7385	
422.02	8955.1	
422.22	9468.4	
422.42	8153.6	
422.63	7592.5	
422.83	8967.4	
423.03	9838.4	
423.23	7619.8	
423.44	7014.3	
423.64	8974.2	
423.84	8549.6	
424.04	7277.1	
424.25	7107.1	
424.45	9437.7	
424.65	9348.3	
424.85	6876.4	
425.06	7272.3	
425.26	9577.7	
425.46	8658.8	
425.66	7624.6	
425.87	7391.8	
426.07	9138.7	
426.27	9018.6	
426.47	7466.9	
426.67	7037.5	
426.88	9485.5	
427.08	9078	
427.28	7806.9	
427.48	6927.6	
427.69	8218.5	
427.89	8777.6	
428.09	7573.4	
428.29	7051.8	
428.5	9159.2	
428.7	8918.2	
428.9	7000	
429.1	7204.1	
429.3	8842.4	
429.51	9126.4	
429.71	7111.2	
429.91	7821.2	
430.11	9260.2	
430.31	9482.1	
430.52	7506.5	
430.72	7806.9	
430.92	9736	
431.12	9325.1	
431.32	7401.4	
431.53	7646.4	
431.73	8604.2	
431.93	9700.5	
432.13	7253.2	
432.33	7222.5	
432.54	8860.2	
432.74	9092.3	
432.94	7275.1	
433.14	7944.8	
433.34	9344.9	
433.55	9166	
433.75	8012.3	
433.95	9444.5	
434.15	9352.4	
434.35	9131.2	
434.56	7516	
434.76	7341.3	
434.96	9308.7	
435.16	9628.2	
435.36	7569.3	
435.56	8500.4	
435.77	9383.8	
435.97	9526.5	
436.17	9058.8	
436.37	8514.8	
436.57	9379.7	
436.78	9435	
436.98	9607.7	
437.18	8804.2	
437.38	10079	
437.58	9494.4	
437.78	9014.5	
437.99	8000.7	
438.19	9840.5	
438.39	10431	
438.59	8046.5	
438.79	7506.5	
438.99	10237	
439.2	9348.3	
439.4	7451.9	
439.6	7403.4	
439.8	9480	
440	10372	
440.2	8329.8	
440.4	8428.1	
440.61	9996.8	
440.81	10622	
441.01	8070.4	
441.21	8862.9	
441.41	10825	
441.61	10263	
441.81	9153.1	
442.02	9954.5	
442.22	10941	
442.42	10609	
442.62	8413.7	
442.82	8300.4	
443.02	10870	
443.22	10203	
443.43	8761.2	
443.63	8355.7	
443.83	10075	
444.03	10120	
444.23	9559.9	
444.43	9115.5	
444.63	10518	
444.83	11407	
445.04	8885.5	
445.24	9678	
445.44	10746	
445.64	10824	
445.84	9123	
446.04	9303.2	
446.24	10193	
446.44	10871	
446.65	8407.6	
446.85	8908.7	
447.05	9952.4	
447.25	10717	
447.45	8759.2	
447.65	8367.3	
447.85	10299	
448.05	9714.2	
448.25	9123.7	
448.46	8952.4	
448.66	10345	
448.86	9978.4	
449.06	8411	
449.26	9051.3	
449.46	10596	
449.66	9960	
449.86	8973.5	
450.06	8867	
450.26	10157	
450.47	10650	
450.67	8946.2	
450.87	9329.9	
451.07	10776	
451.27	10651	
451.47	8595.3	
451.67	9463	
451.87	10512	
452.07	11001	
452.27	8989.9	
452.47	8861.6	
452.67	10602	
452.88	10963	
453.08	8374.1	
453.28	9941.5	
453.48	11656	
453.68	10393	
453.88	9060.9	
454.08	8974.2	
454.28	11020	
454.48	10548	
454.68	9458.2	
454.88	9752.4	
455.08	10985	
455.28	11187	
455.48	8779.6	
455.68	9540.8	
455.89	11668	
456.09	11445	
456.29	9270.5	
456.49	9557.2	
456.69	11740	
456.89	10870	
457.09	9896.5	
457.29	10289	
457.49	11508	
457.69	11686	
457.89	10094	
458.09	9602.2	
458.29	11645	
458.49	12086	
458.69	10500	
458.89	10096	
459.09	12578	
459.29	12498	
459.49	10128	
459.69	10877	
459.9	12054	
460.1	12081	
460.3	9960.6	
460.5	9857.6	
460.7	12185	
460.9	11761	
461.1	9658.2	
461.3	10677	
461.5	12803	
461.7	12381	
461.9	10430	
462.1	10576	
462.3	12279	
462.5	12680	
462.7	10477	
462.9	10663	
463.1	13518	
463.3	13470	
463.5	10884	
463.7	11875	
463.9	12800	
464.1	13158	
464.3	11512	
464.5	11489	
464.7	13402	
464.9	13433	
465.1	12598	
465.3	11944	
465.5	13753	
465.7	13986	
465.9	12400	
466.1	11800	
466.3	13902	
466.5	13334	
466.7	12944	
466.9	12032	
467.1	13994	
467.3	14365	
467.5	13056	
467.7	12316	
467.9	14678	
468.1	15259	
468.3	12766	
468.5	13170	
468.7	13984	
468.9	13875	
469.1	12641	
469.3	13225	
469.5	15558	
469.7	13958	
469.9	12787	
470.1	12635	
470.3	14246	
470.5	14377	
470.7	13476	
470.9	12537	
471.1	14229	
471.3	14104	
471.5	12542	
471.69	13822	
471.89	13900	
472.09	13438	
472.29	13130	
472.49	13005	
472.69	13855	
472.89	14133	
473.09	12473	
473.29	12119	
473.49	13808	
473.69	13721	
473.89	12981	
474.09	12321	
474.29	14631	
474.49	14296	
474.69	13044	
474.89	12406	
475.09	13823	
475.29	13848	
475.49	12078	
475.69	12366	
475.88	14718	
476.08	14134	
476.28	12056	
476.48	12057	
476.68	14246	
476.88	13912	
477.08	11998	
477.28	12381	
477.48	13521	
477.68	14004	
477.88	11848	
478.08	12008	
478.28	14384	
478.48	13540	
478.67	12258	
478.87	11523	
479.07	14392	
479.27	13842	
479.47	12362	
479.67	12325	
479.87	14156	
480.07	14630	
480.27	11831	
480.47	12887	
480.67	13866	
480.87	14419	
481.06	12080	
481.26	12753	
481.46	13949	
481.66	13760	
481.86	12519	
482.06	13190	
482.26	13966	
482.46	14172	
482.66	12393	
482.86	12116	
483.05	14204	
483.25	13518	
483.45	14171	
483.65	12507	
483.85	13766	
484.05	13985	
484.25	12800	
484.45	13265	
484.65	14647	
484.84	14971	
485.04	12615	
485.24	12664	
485.44	15098	
485.64	13839	
485.84	12218	
486.04	13306	
486.24	14233	
486.44	14443	
486.63	12336	
486.83	13024	
487.03	14349	
487.23	14481	
487.43	12450	
487.63	14249	
487.83	14772	
488.02	15296	
488.22	13497	
488.42	14059	
488.62	15421	
488.82	14648	
489.02	12992	
489.22	13398	
489.41	15166	
489.61	15233	
489.81	13105	
490.01	13160	
490.21	15357	
490.41	15946	
490.61	13260	
490.8	13324	
491	15265	
491.2	14519	
491.4	13706	
491.6	13086	
491.8	15048	
491.99	14956	
492.19	12731	
492.39	12920	
492.59	15087	
492.79	15283	
492.99	13479	
493.18	12903	
493.38	15408	
493.58	16220	
493.78	13895	
493.98	13637	
494.18	15502	
494.37	15442	
494.57	14509	
494.77	14208	
494.97	16175	
495.17	16395	
495.37	14368	
495.56	14592	
495.76	16780	
495.96	16647	
496.16	15628	
496.36	14958	
496.55	17137	
496.75	16838	
496.95	15176	
497.15	15162	
497.35	16929	
497.54	17109	
497.74	14989	
497.94	16334	
498.14	17536	
498.34	17221	
498.53	14913	
498.73	15356	
498.93	16744	
499.13	17218	
499.33	15512	
499.52	15730	
499.72	17486	
499.92	17378	
500.12	15340	
500.32	15610	
500.51	17457	
500.71	17453	
500.91	16268	
501.11	16010	
501.31	17767	
501.5	17884	
501.7	16376	
501.9	15690	
502.1	17229	
502.29	17676	
502.49	16214	
502.69	16227	
502.89	17376	
503.09	17593	
503.28	15278	
503.48	15354	
503.68	16976	
503.88	16948	
504.07	15913	
504.27	15451	
504.47	17081	
504.67	16959	
504.86	15771	
505.06	15387	
505.26	16848	
505.46	18020	
505.65	15329	
505.85	15540	
506.05	16621	
506.25	16836	
506.44	14704	
506.64	15121	
506.84	16378	
507.04	16754	
507.23	14679	
507.43	14911	
507.63	17569	
507.83	16396	
508.02	14969	
508.22	14715	
508.42	17809	
508.62	16287	
508.81	14852	
509.01	15313	
509.21	16002	
509.4	16294	
509.6	14913	
509.8	14516	
510	16143	
510.19	17169	
510.39	14433	
510.59	14632	
510.79	16109	
510.98	17243	
511.18	14887	
511.38	14827	
511.57	16913	
511.77	16714	
511.97	15287	
512.17	14520	
512.36	16828	
512.56	16503	
512.76	14502	
512.95	14259	
513.15	16780	
513.35	15726	
513.55	14924	
513.74	14470	
513.94	16664	
514.14	16243	
514.33	15137	
514.53	15019	
514.73	16339	
514.92	16434	
515.12	14642	
515.32	14602	
515.51	16572	
515.71	16712	
515.91	15883	
516.11	14724	
516.3	17862	
516.5	16296	
516.7	15064	
516.89	15765	
517.09	16488	
517.29	16539	
517.48	15429	
517.68	14918	
517.88	16341	
518.07	16776	
518.27	15452	
518.47	14584	
518.66	17185	
518.86	16173	
519.06	14400	
519.25	14737	
519.45	16315	
519.65	17515	
519.84	15380	
520.04	15881	
520.24	17893	
520.43	16832	
520.63	15203	
520.83	14971	
521.02	16361	
521.22	16790	
521.42	15130	
521.61	15671	
521.81	16405	
522.01	16320	
522.2	14941	
522.4	14756	
522.6	16799	
522.79	15950	
522.99	14885	
523.18	14688	
523.38	16800	
523.58	16866	
523.77	16319	
523.97	14934	
524.17	18418	
524.36	17978	
524.56	16105	
524.76	15817	
524.95	17472	
525.15	17159	
525.34	16021	
525.54	16206	
525.74	18137	
525.93	17338	
526.13	17290	
526.33	16496	
526.52	18566	
526.72	18221	
526.91	17346	
527.11	16853	
527.31	18564	
527.5	18942	
527.7	16933	
527.89	16281	
528.09	17997	
528.29	18479	
528.48	17027	
528.68	16809	
528.87	18772	
529.07	18641	
529.27	17126	
529.46	16819	
529.66	18732	
529.85	19125	
530.05	16911	
530.25	17305	
530.44	19905	
530.64	18626	
530.83	16959	
531.03	17176	
531.23	18996	
531.42	18635	
531.62	17693	
531.81	16872	
532.01	19011	
532.21	19235	
532.4	17312	
532.6	17589	
532.79	20071	
532.99	19755	
533.18	17759	
533.38	18634	
533.58	19647	
533.77	20181	
533.97	18274	
534.16	18810	
534.36	20411	
534.55	19689	
534.75	18916	
534.95	18328	
535.14	20627	
535.34	19871	
535.53	18056	
535.73	19385	
535.92	20936	
536.12	19781	
536.31	18062	
536.51	18888	
536.71	20050	
536.9	19601	
537.1	17933	
537.29	18161	
537.49	20121	
537.68	19546	
537.88	18454	
538.07	17895	
538.27	19826	
538.46	20510	
538.66	17809	
538.86	18137	
539.05	19852	
539.25	19946	
539.44	18591	
539.64	18001	
539.83	19813	
540.03	20605	
540.22	18060	
540.42	17925	
540.61	19691	
540.81	19838	
541	18177	
541.2	18774	
541.39	19243	
541.59	19448	
541.78	18647	
541.98	17669	
542.18	19035	
542.37	19161	
542.57	18062	
542.76	18497	
542.96	19080	
543.15	19473	
543.35	17785	
543.54	17264	
543.74	19278	
543.93	19131	
544.13	17434	
544.32	18094	
544.52	19101	
544.71	18477	
544.91	16603	
545.1	17402	
545.3	18618	
545.49	19006	
545.69	16680	
545.88	17012	
546.08	19761	
546.27	19232	
546.47	17374	
546.66	16786	
546.86	19005	
547.05	19339	
547.24	16750	
547.44	16924	
547.63	18305	
547.83	19117	
548.02	17301	
548.22	17279	
548.41	18055	
548.61	18972	
548.8	16781	
549	16688	
549.19	18515	
549.39	18778	
549.58	16393	
549.78	16834	
549.97	18651	
550.17	18203	
550.36	17202	
550.55	17978	
550.75	18126	
550.94	18748	
551.14	16401	
551.33	16384	
551.53	17718	
551.72	18204	
551.92	16507	
552.11	16322	
552.31	18335	
552.5	18248	
552.69	17514	
552.89	15895	
553.08	18334	
553.28	17905	
553.47	16365	
553.67	17146	
553.86	18467	
554.06	17342	
554.25	15731	
554.44	16150	
554.64	18942	
554.83	18709	
555.03	16043	
555.22	16291	
555.42	18150	
555.61	17901	
555.8	16040	
556	16120	
556.19	17320	
556.39	18042	
556.58	15919	
556.78	15945	
556.97	17707	
557.16	17626	
557.36	16827	
557.55	15768	
557.75	16775	
557.94	18310	
558.13	15758	
558.33	15636	
558.52	18257	
558.72	17284	
558.91	15638	
559.1	15825	
559.3	17151	
559.49	16707	
559.69	15192	
559.88	16005	
560.07	17401	
560.27	17907	
560.46	16193	
560.66	16165	
560.85	17352	
561.04	16614	
561.24	15467	
561.43	15467	
561.63	16840	
561.82	17024	
562.01	16369	
562.21	15707	
562.4	17243	
562.59	17950	
562.79	15629	
562.98	15429	
563.18	17253	
563.37	18429	
563.56	15976	
563.76	15562	
563.95	17205	
564.14	17095	
564.34	15917	
564.53	15581	
564.73	17503	
564.92	17818	
565.11	16011	
565.31	15560	
565.5	18051	
565.69	17188	
565.89	15732	
566.08	16112	
566.27	17879	
566.47	18398	
566.66	16575	
566.85	15599	
567.05	17791	
567.24	17453	
567.44	15789	
567.63	16918	
567.82	17948	
568.02	17686	
568.21	15846	
568.4	16139	
568.6	17638	
568.79	17642	
568.98	15864	
569.18	16004	
569.37	17875	
569.56	19160	
569.76	16232	
569.95	17135	
570.14	17957	
570.34	18243	
570.53	15977	
570.72	16038	
570.91	18473	
571.11	17832	
571.3	16343	
571.49	16965	
571.69	18063	
571.88	17458	
572.07	16879	
572.27	16744	
572.46	17580	
572.65	18400	
572.85	16300	
573.04	16595	
573.23	18529	
573.43	17978	
573.62	16346	
573.81	16667	
574	18257	
574.2	17977	
574.39	16612	
574.58	16614	
574.78	19025	
574.97	18458	
575.16	17167	
575.36	17405	
575.55	18935	
575.74	19015	
575.93	16584	
576.13	17546	
576.32	18563	
576.51	18929	
576.71	17055	
576.9	17996	
577.09	19262	
577.28	18976	
577.48	17462	
577.67	16605	
577.86	18828	
578.05	18890	
578.25	17193	
578.44	17242	
578.63	18656	
578.83	19704	
579.02	16774	
579.21	18066	
579.4	18828	
579.6	18912	
579.79	17230	
579.98	18856	
580.17	19242	
580.37	19456	
580.56	16812	
580.75	17686	
580.94	19374	
581.14	19357	
581.33	17900	
581.52	17120	
581.71	19208	
581.91	19673	
582.1	17042	
582.29	17263	
582.48	19009	
582.68	19027	
582.87	17768	
583.06	17463	
583.25	19281	
583.45	18861	
583.64	18229	
583.83	18575	
584.02	18998	
584.21	19373	
584.41	17929	
584.6	17589	
584.79	19175	
584.98	19607	
585.18	17124	
585.37	17164	
585.56	18781	
585.75	19392	
585.94	17246	
586.14	17873	
586.33	19609	
586.52	19042	
586.71	17416	
586.91	17343	
587.1	18329	
587.29	19179	
587.48	16841	
587.67	17107	
587.87	18815	
588.06	18707	
588.25	17817	
588.44	17397	
588.63	18493	
588.83	18854	
589.02	16863	
589.21	16610	
589.4	18034	
589.59	18052	
589.78	15776	
589.98	15879	
590.17	17255	
590.36	17482	
590.55	15007	
590.74	15274	
590.94	17935	
591.13	16852	
591.32	14892	
591.51	14476	
591.7	16909	
591.89	16662	
592.09	14599	
592.28	15176	
592.47	16080	
592.66	17713	
592.85	14943	
593.05	15153	
593.24	16851	
593.43	17574	
593.62	15397	
593.81	15578	
594	16940	
594.19	17070	
594.39	15073	
594.58	15048	
594.77	17095	
594.96	17639	
595.15	14933	
595.34	15455	
595.54	16890	
595.73	16236	
595.92	14376	
596.11	15015	
596.3	17068	
596.49	16300	
596.68	14966	
596.88	15081	
597.07	16803	
597.26	16063	
597.45	14524	
597.64	15369	
597.83	16389	
598.02	16864	
598.22	14668	
598.41	15029	
598.6	16551	
598.79	16135	
598.98	14506	
599.17	15329	
599.36	16673	
599.55	17344	
599.74	16046	
599.94	15965	
600.13	17019	
600.32	15991	
600.51	14248	
600.7	14414	
600.89	17285	
601.08	17353	
601.27	14310	
601.47	14950	
601.66	16650	
601.85	17161	
602.04	14792	
602.23	14784	
602.42	15953	
602.61	16455	
602.8	14530	
602.99	14327	
603.18	16244	
603.37	16347	
603.57	14670	
603.76	15218	
603.95	16868	
604.14	16427	
604.33	14499	
604.52	14661	
604.71	16401	
604.9	16127	
605.09	15055	
605.28	14894	
605.47	16956	
605.66	16406	
605.86	14853	
606.05	14485	
606.24	16677	
606.43	15658	
606.62	14690	
606.81	15128	
607	16552	
607.19	16121	
607.38	14113	
607.57	14253	
607.76	15795	
607.95	15427	
608.14	14715	
608.33	15024	
608.52	15830	
608.72	16552	
608.91	14141	
609.1	13933	
609.29	15814	
609.48	15350	
609.67	14664	
609.86	13868	
610.05	15520	
610.24	15655	
610.43	13863	
610.62	13599	
610.81	16441	
611	16300	
611.19	13924	
611.38	14412	
611.57	15971	
611.76	16824	
611.95	13678	
612.14	13562	
612.33	15777	
612.52	15379	
612.71	14040	
612.9	13485	
613.09	15009	
613.28	16822	
613.47	13865	
613.66	14648	
613.85	15729	
614.04	15363	
614.24	13820	
614.43	13233	
614.62	15842	
614.81	15806	
615	14227	
615.19	14178	
615.38	15259	
615.57	15690	
615.76	14162	
615.95	14840	
616.14	16083	
616.33	15750	
616.52	14469	
616.71	14558	
616.9	16045	
617.09	15819	
617.28	13944	
617.47	14715	
617.66	15274	
617.85	15345	
618.04	14728	
618.22	14277	
618.41	15641	
618.6	16318	
618.79	14444	
618.98	14358	
619.17	16737	
619.36	15614	
619.55	14658	
619.74	14594	
619.93	16434	
620.12	16052	
620.31	15048	
620.5	15242	
620.69	17121	
620.88	17284	
621.07	15637	
621.26	15088	
621.45	16919	
621.64	16650	
621.83	15264	
622.02	14764	
622.21	16780	
622.4	16707	
622.59	15671	
622.78	15641	
622.97	16418	
623.16	17178	
623.35	15332	
623.54	14828	
623.72	16679	
623.91	16621	
624.1	15598	
624.29	14651	
624.48	17563	
624.67	16953	
624.86	15548	
625.05	14812	
625.24	17664	
625.43	16619	
625.62	16762	
625.81	15092	
626	17111	
626.19	16789	
626.38	15632	
626.56	15169	
626.75	16617	
626.94	17247	
627.13	15640	
627.32	14704	
627.51	17128	
627.7	17821	
627.89	14807	
628.08	15550	
628.27	16385	
628.46	16603	
628.65	14780	
628.83	14567	
629.02	16907	
629.21	16354	
629.4	15075	
629.59	15374	
629.78	16533	
629.97	16993	
630.16	15440	
630.35	14943	
630.54	17547	
630.72	17064	
630.91	15005	
631.1	15314	
631.29	16735	
631.48	16845	
631.67	15427	
631.86	14922	
632.05	16662	
632.24	16569	
632.42	14743	
632.61	15118	
632.8	16423	
632.99	16240	
633.18	15154	
633.37	15479	
633.56	16766	
633.75	16625	
633.93	15145	
634.12	15047	
634.31	17266	
634.5	17110	
634.69	15005	
634.88	15288	
635.07	16610	
635.25	16946	
635.44	15608	
635.63	15780	
635.82	16442	
636.01	15960	
636.2	15495	
636.39	15151	
636.57	17230	
636.76	16789	
636.95	14805	
637.14	15514	
637.33	16775	
637.52	17331	
637.7	14553	
637.89	15212	
638.08	16462	
638.27	17252	
638.46	15343	
638.65	15452	
638.83	17251	
639.02	16191	
639.21	15035	
639.4	15353	
639.59	16406	
639.78	16109	
639.96	14393	
640.15	14419	
640.34	16231	
640.53	16345	
640.72	14177	
640.91	14377	
641.09	15723	
641.28	16528	
641.47	14274	
641.66	14861	
641.85	16141	
642.03	16213	
642.22	14541	
642.41	14244	
642.6	15786	
642.79	15122	
642.97	14058	
643.16	14532	
643.35	15681	
643.54	15270	
643.73	13819	
643.91	14403	
644.1	15115	
644.29	15806	
644.48	13705	
644.67	13806	
644.85	15184	
645.04	15376	
645.23	13327	
645.42	13663	
645.6	14924	
645.79	15574	
645.98	13114	
646.17	12586	
646.36	14385	
646.54	14657	
646.73	13614	
646.92	12803	
647.11	14356	
647.29	15119	
647.48	12846	
647.67	12458	
647.86	15101	
648.05	15158	
648.23	12831	
648.42	13793	
648.61	14708	
648.8	14423	
648.98	12581	
649.17	12843	
649.36	13915	
649.55	13772	
649.73	12452	
649.92	13107	
650.11	14044	
650.3	14356	
650.48	12588	
650.67	12594	
650.86	14553	
651.05	13560	
651.23	12590	
651.42	12443	
651.61	13913	
651.79	13697	
651.98	12633	
652.17	12207	
652.36	14084	
652.54	13347	
652.73	12317	
652.92	12153	
653.11	14093	
653.29	14211	
653.48	11798	
653.67	12344	
653.85	13841	
654.04	14619	
654.23	12498	
654.42	12183	
654.6	13441	
654.79	13797	
654.98	11549	
655.16	11861	
655.35	12718	
655.54	12438	
655.73	11207	
655.91	11054	
656.1	13040	
656.29	12207	
656.47	10621	
656.66	11957	
656.85	12631	
657.03	12635	
657.22	11359	
657.41	11519	
657.59	12918	
657.78	13049	
657.97	11281	
658.16	11918	
658.34	13504	
658.53	13930	
658.72	12558	
658.9	12791	
659.09	13313	
659.28	13319	
659.46	11770	
659.65	11767	
659.84	13054	
660.02	13644	
660.21	11807	
660.4	11625	
660.58	13753	
660.77	13336	
660.96	12096	
661.14	11280	
661.33	14349	
661.52	14055	
661.7	11382	
661.89	13884	
662.08	13003	
662.26	12700	
662.45	11514	
662.64	11610	
662.82	13539	
663.01	12951	
663.2	11512	
663.38	12025	
663.57	13201	
663.75	13233	
663.94	11752	
664.13	12538	
664.31	12915	
664.5	13448	
664.69	12020	
664.87	12252	
665.06	12725	
665.25	13205	
665.43	12458	
665.62	12314	
665.8	13436	
665.99	12932	
666.18	11702	
666.36	11686	
666.55	13358	
666.74	13334	
666.92	11375	
667.11	12421	
667.29	12817	
667.48	13355	
667.67	12148	
667.85	11522	
668.04	12902	
668.22	12822	
668.41	11572	
668.6	11699	
668.78	12744	
668.97	12882	
669.15	11888	
669.34	11092	
669.53	12734	
669.71	12988	
669.9	11064	
670.08	11632	
670.27	12564	
670.46	13007	
670.64	11662	
670.83	11987	
671.01	12402	
671.2	12892	
671.38	11290	
671.57	11112	
671.76	13491	
671.94	13867	
672.13	10963	
672.31	11784	
672.5	13262	
672.69	12757	
672.87	11303	
673.06	11469	
673.24	12998	
673.43	12707	
673.61	11586	
673.8	11318	
673.98	12991	
674.17	13269	
674.36	11877	
674.54	11690	
674.73	12768	
674.91	13054	
675.1	11465	
675.28	11104	
675.47	12805	
675.65	13149	
675.84	11411	
676.03	11693	
676.21	12628	
676.4	12245	
676.58	11882	
676.77	11811	
676.95	13547	
677.14	12462	
677.32	11125	
677.51	11130	
677.69	13020	
677.88	12439	
678.06	11006	
678.25	11095	
678.44	12724	
678.62	12579	
678.81	10895	
678.99	11512	
679.18	13295	
679.36	12902	
679.55	11245	
679.73	11761	
679.92	12913	
680.1	12591	
680.29	12233	
680.47	11228	
680.66	12553	
680.84	13137	
681.03	10771	
681.21	11530	
681.4	12351	
681.58	12477	
681.77	11062	
681.95	11079	
682.14	13028	
682.32	13263	
682.51	11692	
682.69	10748	
682.88	12373	
683.06	12622	
683.25	11400	
683.43	11666	
683.62	12520	
683.8	12837	
683.99	11742	
684.17	11178	
684.36	13318	
684.54	12342	
684.73	10395	
684.91	10488	
685.1	12303	
685.28	11747	
685.46	10648	
685.65	10445	
685.83	11755	
686.02	11290	
686.2	9650.7	
686.39	9789.3	
686.57	10955	
686.76	12215	
686.94	9906	
687.13	10082	
687.31	11765	
687.5	11628	
687.68	9727.2	
687.86	10520	
688.05	12738	
688.23	11171	
688.42	10760	
688.6	10255	
688.79	11525	
688.97	11593	
689.16	10500	
689.34	9807.7	
689.52	12269	
689.71	12335	
689.89	10822	
690.08	10324	
690.26	11966	
690.45	11957	
690.63	10932	
690.81	10542	
691	11788	
691.18	11726	
691.37	10652	
691.55	12140	
691.74	11662	
691.92	13035	
692.1	10507	
692.29	10093	
692.47	11694	
692.66	11100	
692.84	10137	
693.02	10457	
693.21	11377	
693.39	11589	
693.58	10731	
693.76	10187	
693.94	12549	
694.13	12506	
694.31	10363	
694.5	11281	
694.68	11697	
694.86	12171	
695.05	10705	
695.23	10888	
695.42	12512	
695.6	13979	
695.78	11275	
695.97	10731	
696.15	12441	
696.34	12014	
696.52	10477	
696.7	11034	
696.89	12223	
697.07	11735	
697.25	10738	
697.44	11944	
697.62	12136	
697.81	12132	
697.99	10602	
698.17	10982	
698.36	11536	
698.54	12018	
698.72	10735	
698.91	9934.7	
699.09	11610	
699.28	11355	
699.46	10462	
699.64	10250	
699.83	11459	
700.01	12159	
700.19	10824	
700.38	9719	
700.56	12044	
700.74	11517	
700.93	9981.1	
701.11	10616	
701.29	11817	
701.48	12654	
701.66	10158	
701.84	10307	
702.03	11605	
702.21	12294	
702.39	10073	
702.58	10529	
702.76	11964	
702.94	12087	
703.13	9944.9	
703.31	11764	
703.49	11535	
703.68	12594	
703.86	9934	
704.04	10717	
704.23	11835	
704.41	11928	
704.59	10163	
704.78	10851	
704.96	12815	
705.14	11907	
705.33	9922.4	
705.51	10520	
705.69	11504	
705.87	12165	
706.06	10679	
706.24	9845.3	
706.42	11688	
706.61	12064	
706.79	10564	
706.97	9808.4	
707.16	11286	
707.34	11633	
707.52	10360	
707.7	9932	
707.89	11313	
708.07	11136	
708.25	10466	
708.44	10585	
708.62	11068	
708.8	11929	
708.98	10675	
709.17	9971.6	
709.35	11424	
709.53	11338	
709.72	9571.5	
709.9	9621.4	
710.08	11519	
710.26	11583	
710.45	10642	
710.63	9716.9	
710.81	11140	
710.99	11254	
711.18	10096	
711.36	9583.1	
711.54	10961	
711.72	11387	
711.91	9596.1	
712.09	9176.9	
712.27	11015	
712.45	11252	
712.64	9575.6	
712.82	8880.7	
713	10233	
713.18	10261	
713.37	8772.1	
713.55	9509.4	
713.73	10809	
713.91	9710.1	
714.1	8716.8	
714.28	8153	
714.46	10017	
714.64	9306	
714.83	7464.2	
715.01	7693.5	
715.19	9019.9	
715.37	8399.4	
715.55	7216.4	
715.74	7322.2	
715.92	9320.3	
716.1	7876.5	
716.28	8180.3	
716.47	7399.3	
716.65	8247.9	
716.83	8263.6	
717.01	7068.9	
717.19	7047.1	
717.38	9790.7	
717.56	8051.9	
717.74	7311.9	
717.92	6695.5	
718.1	8897.1	
718.29	8330.5	
718.47	6440.9	
718.65	7020.4	
718.83	8995.4	
719.01	9069.8	
719.2	6796.5	
719.38	7638.2	
719.56	9030.2	
719.74	10181	
719.92	7441.6	
720.11	8107.2	
720.29	9182.4	
720.47	8409	
720.65	6890.7	
720.83	7396.6	
721.02	8407.6	
721.2	8128.4	
721.38	7159	
721.56	6616.3	
721.74	7588.4	
721.92	7697.6	
722.11	7349.5	
722.29	7163.1	
722.47	8447.9	
722.65	7919.5	
722.83	6507.1	
723.01	7025.9	
723.2	8007.6	
723.38	8194.6	
723.56	6001.2	
723.74	6794.5	
723.92	7618.4	
724.1	8314.1	
724.29	6358.9	
724.47	7228	
724.65	7665.5	
724.83	7535.2	
725.01	6238.1	
725.19	6859.3	
725.37	7372.7	
725.56	7441.6	
725.74	6092.7	
725.92	6229.2	
726.1	7486	
726.28	7721.5	
726.46	6547.4	
726.64	6193.1	
726.83	7619.8	
727.01	7749.5	
727.19	5953.4	
727.37	6639.5	
727.55	7722.9	
727.73	8118.1	
727.91	5900.9	
728.09	5854.5	
728.28	7991.9	
728.46	8161.2	
728.64	6592.4	
728.82	6521.4	
729	8652.7	
729.18	8291.5	
729.36	6012.2	
729.54	7581.6	
729.72	9074.5	
729.91	7835.5	
730.09	7492.8	
730.27	6599.2	
730.45	7768.6	
730.63	8240.3	
730.81	7036.1	
730.99	6462	
731.17	8742.1	
731.35	7660.1	
731.53	6715.3	
731.71	6505	
731.9	8405.5	
732.08	8411.7	
732.26	6567.8	
732.44	6285.9	
732.62	8404.2	
732.8	8091.5	
732.98	6836.8	
733.16	6092.7	
733.34	8004.1	
733.52	7051.8	
733.7	6363.7	
733.88	6515.3	
734.07	7830.1	
734.25	7684	
734.43	5978.7	
734.61	7051.2	
734.79	8722.3	
734.97	7617.8	
735.15	6042.2	
735.33	6302.3	
735.51	7795.9	
735.69	7494.9	
735.87	6983.6	
736.05	6363.7	
736.23	7634.8	
736.41	7246.4	
736.59	6178.7	
736.77	6326.2	
736.95	7947.5	
737.13	7380.2	
737.32	5905.7	
737.5	6118.6	
737.68	8244.4	
737.86	7307.8	
738.04	5776.6	
738.22	7002	
738.4	7208.2	
738.58	7367.9	
738.76	6064	
738.94	5382.1	
739.12	7184.3	
739.3	7150.1	
739.48	6427.2	
739.66	6298.2	
739.84	7355.6	
740.02	7301.7	
740.2	5431.2	
740.38	5578	
740.56	7571.3	
740.74	6683.9	
740.92	6067.4	
741.1	5913.2	
741.28	7134.4	
741.46	6914.6	
741.64	5669.5	
741.82	6006	
742	7091.4	
742.18	7030	
742.36	5751.4	
742.54	5467.4	
742.72	7415.7	
742.9	6455.9	
743.08	5965.1	
743.26	5029.8	
743.44	7428	
743.62	7339.9	
743.8	6019	
743.98	5348.6	
744.16	7036.1	
744.34	6791.7	
744.52	5892	
744.7	5844.9	
744.88	7136.5	
745.06	6821.1	
745.24	5757.5	
745.42	5853.1	
745.6	7226.6	
745.78	6875.7	
745.96	4932.2	
746.14	5164.3	
746.32	7671	
746.5	6975.4	
746.68	5485.8	
746.86	5169.8	
747.03	7266.2	
747.21	6124.1	
747.39	5414.1	
747.57	5085.1	
747.75	6640.9	
747.93	6870.9	
748.11	4988.9	
748.29	4939	
748.47	7767.9	
748.65	6425.2	
748.83	5521.3	
749.01	5233.2	
749.19	6702.3	
749.37	6134.3	
749.55	5178.6	
749.73	5265.3	
749.91	6560.3	
750.09	6311.8	
750.26	5237.3	
750.44	4775.9	
750.62	6511.2	
750.8	6437.4	
750.98	4663.9	
751.16	4966.3	
751.34	6600.6	
751.52	6072.9	
751.7	5450.3	
751.88	4661.9	
752.06	6793.1	
752.24	6498.2	
752.42	4597.7	
752.59	4890.5	
752.77	6370.5	
752.95	7276.4	
753.13	5335.6	
753.31	4893.3	
753.49	6121.4	
753.67	6313.2	
753.85	5057.1	
754.03	4774.5	
754.21	6529.6	
754.38	6750.1	
754.56	4674.8	
754.74	4108.2	
754.92	5858.6	
755.1	6227.9	
755.28	3912.3	
755.46	3913.7	
755.64	6693.4	
755.82	6712.6	
755.99	3930.1	
756.17	3962.1	
756.35	4777.2	
756.53	5827.2	
756.71	3101.3	
756.89	3756	
757.07	5525.4	
757.25	4920.6	
757.42	4149.2	
757.6	4723.3	
757.78	5646.2	
757.96	4956.1	
758.14	3973.1	
758.32	3698.6	
758.5	4639.3	
758.67	5248.3	
758.85	3848.8	
759.03	3892.5	
759.21	5354.8	
759.39	4920.6	
759.57	3596.9	
759.75	4379.2	
759.92	5877.7	
760.1	5422.3	
760.28	4580.6	
760.46	4848.2	
760.64	5226.4	
760.82	5105.6	
760.99	4605.9	
761.17	3953.9	
761.35	5883.8	
761.53	5113.8	
761.71	4153.3	
761.89	4633.9	
762.06	5771.2	
762.24	5389.6	
762.42	4231.1	
762.6	4059.1	
762.78	5473.5	
762.96	5902.9	
763.13	4443.4	
763.31	4286.4	
763.49	5887.9	
763.67	5457.8	
763.85	4836.6	
764.02	5230.5	
764.2	6264.7	
764.38	5516.5	
764.56	4119.8	
764.74	4816.8	
764.91	6199.9	
765.09	5488.6	
765.27	3976.5	
765.45	3765.5	
765.63	6309.8	
765.8	6047.7	
765.98	3663.1	
766.16	3820.1	
766.34	5161.6	
766.52	4947.9	
766.69	4514.4	
766.87	3686.3	
767.05	5412.1	
767.23	5872.9	
767.41	3866.6	
767.58	4045.4	
767.76	5801.9	
767.94	5816.9	
768.12	3922.5	
768.29	4425	
768.47	5354.1	
768.65	5866.7	
768.83	3674.1	
769	4511	
769.18	5128.1	
769.36	5534.3	
769.54	4399.7	
769.72	3654.9	
769.89	5828.5	
770.07	5842.9	
770.25	3948.5	
770.43	4777.9	
770.6	6283.2	
770.78	6489.3	
770.96	4010.6	
771.14	4430.4	
771.31	5686.5	
771.49	5204.6	
771.67	3461.1	
771.85	3616.7	
772.02	4700.8	
772.2	5185.5	
772.38	4148.5	
772.55	3657.7	
772.73	5450.3	
772.91	5223	
773.09	3923.2	
773.26	4049.5	
773.44	5380.7	
773.62	5151.3	
773.8	3594.9	
773.97	3547.8	
774.15	5387.5	
774.33	5142.4	
774.5	3527.3	
774.68	3769.6	
774.86	5395	
775.04	5102.9	
775.21	3562.8	
775.39	3502.7	
775.57	5315.2	
775.74	5507.7	
775.92	3451.5	
776.1	3368.2	
776.27	5256.5	
776.45	6103.6	
776.63	3574.4	
776.81	3256.3	
776.98	5050.3	
777.16	5771.9	
777.34	3699.3	
777.51	3871.3	
777.69	5074.2	
777.87	4797	
778.04	3654.9	
778.22	4143	
778.4	4843.4	
778.57	5296	
778.75	3162.1	
778.93	3402.4	
779.1	4741.7	
779.28	4557.4	
779.46	3177.8	
779.64	3478.1	
779.81	5422.3	
779.99	6001.9	
780.17	4094.6	
780.34	4098	
780.52	5044.1	
780.69	5104.9	
780.87	3611.3	
781.05	3367.5	
781.22	5039.4	
781.4	5032.5	
781.58	3445.4	
781.75	2947	
781.93	5089.9	
782.11	4562.9	
782.28	4088.4	
782.46	3465.8	
782.64	4536.3	
782.81	5160.2	
782.99	3546.4	
783.17	3478.1	
783.34	5082.4	
783.52	4667.3	
783.69	3616	
783.87	4206.5	
784.05	4674.1	
784.22	4592.2	
784.4	4149.2	
784.58	3711.6	
784.75	5350.7	
784.93	4721.3	
785.1	3396.9	
785.28	3855	
785.46	5063.3	
785.63	4560.8	
785.81	3394.8	
785.99	3270.6	
786.16	4756.7	
786.34	4974.5	
786.51	3336.1	
786.69	3613.3	
786.87	4339	
787.04	4780	
787.22	3231	
787.39	3926	
787.57	4573.8	
787.75	5391.6	
787.92	4020.8	
788.1	3951.2	
788.27	4554.7	
788.45	4354	
788.63	3747.1	
788.8	2858.3	
788.98	4907.6	
789.15	4268.6	
789.33	3074	
789.5	3349.1	
789.68	5195	
789.86	5270.1	
790.03	3715	
790.21	3287	
790.38	5306.3	
790.56	4689.8	
790.73	3144.3	
790.91	3212.6	
791.09	4590.2	
791.26	5061.2	
791.44	3444	
791.61	3018	
791.79	4592.2	
791.96	4564.2	
792.14	3054.2	
792.32	2777	
792.49	4534.9	
792.67	4666.6	
792.84	3122.5	
793.02	3014.6	
793.19	4965	
793.37	5365	
793.54	2801.6	
793.72	3094.5	
793.89	5425.8	
794.07	4558.8	
794.25	3334.8	
794.42	2845.3	
794.6	5271.5	
794.77	4973.2	
794.95	3631	
795.12	3207.1	
795.3	4600.4	
795.47	4897.4	
795.65	3528	
795.82	3405.1	
796	4451.6	
796.17	5692.7	
796.35	3326.6	
796.52	3843.4	
796.7	4939.7	
796.87	4975.9	
797.05	3256.3	
797.22	3871.3	
797.4	4956.8	
797.57	5618.3	
797.75	3387.3	
797.92	3207.8	
798.1	5221	
798.27	4465.9	
798.45	2906.1	
798.62	2986.6	
798.8	4820.2	
798.97	5067.4	
799.15	3530.7	
799.32	3378.5	
799.5	4232.5	
799.67	4748.6	
799.85	3619.4	
800.02	2822.8	
800.2	4484.4	
800.37	4693.3	
800.55	3751.9	
800.72	3231	
800.9	5086.5	
801.07	5315.2	
801.25	4106.2	
801.42	3458.3	
801.6	5025	
801.77	4696	
801.95	3245.3	
802.12	3125.2	
802.29	4853.7	
802.47	4790.2	
802.64	3500	
802.82	2771.6	
802.99	4486.4	
803.17	5055.1	
803.34	3462.4	
803.52	3080.8	
803.69	5558.9	
803.87	4290.5	
804.04	3321.8	
804.21	3412.6	
804.39	5319.3	
804.56	4569	
804.74	2919.7	
804.91	3466.5	
805.09	4496.7	
805.26	4519.2	
805.44	2959.3	
805.61	3188.7	
805.78	5016.8	
805.96	4917.9	
806.13	3442	
806.31	3657.7	
806.48	4132.1	
806.66	4493.2	
806.83	3469.9	
807	3336.1	
807.18	4492.6	
807.35	4726.7	
807.53	3347.1	
807.7	2816	
807.87	5292	
808.05	4451.6	
808.22	3675.4	
808.4	2775.7	
808.57	4437.3	
808.74	4189.5	
808.92	3119.1	
809.09	3804.4	
809.27	4451.6	
809.44	4784.7	
809.61	2795.5	
809.79	3061.7	
809.96	5395	
810.14	4903.5	
810.31	2721.1	
810.48	3231	
810.66	4521.9	
810.83	4990.9	
811.01	3124.5	
811.18	3368.2	
811.35	4995.7	
811.53	3992.2	
811.7	3686.3	
811.87	3435.1	
812.05	4508.9	
812.22	4370.4	
812.39	3030.3	
812.57	2896.5	
812.74	4538.3	
812.92	5653.1	
813.09	3280.8	
813.26	3420.8	
813.44	5421.7	
813.61	4374.5	
813.78	2795.5	
813.96	3547.8	
814.13	4470.7	
814.3	4254.3	
814.48	3810.6	
814.65	3186.6	
814.82	5210	
815	4246.8	
815.17	3269.9	
815.34	3861.8	
815.52	4360.1	
815.69	4394.3	
815.87	3276.8	
816.04	3175	
816.21	4429.8	
816.38	4108.9	
816.56	3179.8	
816.73	3002.3	
816.9	5517.2	
817.08	5017.5	
817.25	3013.9	
817.42	3634.5	
817.6	4078.2	
817.77	4386.1	
817.94	3368.9	
818.12	2996.2	
818.29	4286.4	
818.46	6098.9	
818.64	3152.5	
818.81	2878.8	
818.98	4221.5	
819.16	5735.7	
819.33	3521.1	
819.5	3325.9	
819.67	4713.7	
819.85	5181.4	
820.02	3293.1	
820.19	3402.4	
820.37	4600.4	
820.54	4387.4	
820.71	3278.1	
820.88	4050.2	
821.06	4605.9	
821.23	4288.4	
821.4	3330.7	
821.58	3363.4	
821.75	4949.9	
821.92	4552	
822.09	2753.8	
822.27	2832.3	
822.44	4451.6	
822.61	4352.6	
822.79	2752.5	
822.96	4940.4	
823.13	4646.2	
823.3	4190.8	
823.48	3127.9	
823.65	2861.7	
823.82	4973.8	
823.99	4175.8	
824.17	3874.8	
824.34	2921.8	
824.51	5580	
824.68	4498.7	
824.86	3063.1	
825.03	3293.1	
825.2	4452.3	
825.37	5188.2	
825.55	2983.2	
825.72	3282.2	
825.89	5578	
826.06	5239.4	
826.24	3182.5	
826.41	3213.3	
826.58	5246.2	
826.75	4612.7	
826.92	2688.3	
827.1	2828.2	
827.27	6788.3	
827.44	5543.9	
827.61	3072	
827.79	3612.6	
827.96	4319.2	
828.13	4443.4	
828.3	3222.1	
828.47	2755.2	
828.65	4694.6	
828.82	4662.5	
828.99	3976.5	
829.16	3476.8	
829.34	4975.2	
829.51	4809.3	
829.68	3247.4	
829.85	3369.6	
830.02	5194.3	
830.2	4904.9	
830.37	2631	
830.54	3788.7	
830.71	5498.8	
830.88	4476.2	
831.05	2626.2	
831.23	2970.2	
831.4	5379.3	
831.57	5821	
831.74	3100.6	
831.91	2730.6	
832.09	4756.7	
832.26	4915.8	
832.43	3101.3	
832.6	3468.6	
832.77	4728.1	
832.94	5245.5	
833.12	2581.1	
833.29	3032.4	
833.46	4405.9	
833.63	5905.7	
833.8	3314.3	
833.97	3170.9	
834.15	4984.8	
834.32	4819.6	
834.49	3270.6	
834.66	3289.7	
834.83	5111.7	
835	4345.1	
835.17	3033	
835.35	3064.4	
835.52	4881.7	
835.69	4749.9	
835.86	3180.5	
836.03	2637.1	
836.2	4891.2	
836.37	4647.5	
836.55	3101.3	
836.72	2912.9	
836.89	4663.2	
837.06	5015.5	
837.23	3170.9	
837.4	3421.5	
837.57	5581.4	
837.75	5953.4	
837.92	2902.7	
838.09	3008.5	
838.26	4612	
838.43	5072.8	
838.6	3276.8	
838.77	2949.1	
838.94	5634	
839.11	5526.1	
839.29	3145	
839.46	2527.2	
839.63	4961.5	
839.8	4683.7	
839.97	3037.1	
840.14	2990.7	
840.31	4788.2	
840.48	4896	
840.65	2583.2	
840.82	3030.3	
841	4897.4	
841.17	4815.5	
841.34	2818	
841.51	2843.9	
841.68	4861.2	
841.85	4741	
842.02	2897.2	
842.19	2514.2	
842.36	4744.5	
842.53	4713.7	
842.7	2869.2	
842.87	3346.4	
843.05	5986.2	
843.22	4745.8	
843.39	2718.3	
843.56	2898.6	
843.73	4572.4	
843.9	4974.5	
844.07	4323.3	
844.24	3638.6	
844.41	6647.7	
844.58	4377.2	
844.75	2781.1	
844.92	2938.2	
845.09	4908.3	
845.26	4885.8	
845.43	2800.3	
845.6	2981.2	
845.77	4918.5	
845.94	4721.9	
846.12	3070.6	
846.29	3261.7	
846.46	5129.5	
846.63	4885.1	
846.8	2826.2	
846.97	3295.9	
847.14	5244.2	
847.31	4832.5	
847.48	3105.4	
847.65	3422.8	
847.82	5068.7	
847.99	5067.4	
848.16	3590.8	
848.33	3348.4	
848.5	4551.3	
848.67	5247.6	
848.84	2792.1	
849.01	2912.9	
849.18	4459.8	
849.35	4246.1	
849.52	3455.6	
849.69	2794.1	
849.86	5098.1	
850.03	5130.2	
850.2	2807.1	
850.37	3266.5	
850.54	5130.8	
850.71	4599.1	
850.88	3308.2	
851.05	2793.4	
851.22	4771.8	
851.39	5273.5	
851.56	2601.6	
851.73	3189.4	
851.9	4364.2	
852.07	5062.6	
852.24	3053.5	
852.41	2793.4	
852.58	4807.9	
852.75	4463.2	
852.92	3072	
853.09	2770.9	
853.26	4508.3	
853.43	5150	
853.6	2813.2	
853.77	2428.9	
853.94	5282.4	
854.11	4317.1	
854.28	4022.9	
854.44	3003.7	
854.61	5593	
854.78	5044.8	
854.95	2778.4	
855.12	3420.8	
855.29	4057	
855.46	5342.5	
855.63	2817.3	
855.8	3750.5	
855.97	4528.1	
856.14	5145.9	
856.31	3861.8	
856.48	2991.4	
856.65	4629.8	
856.82	4338.3	
856.99	2686.3	
857.16	2990	
857.33	5816.9	
857.49	4654.4	
857.66	3011.2	
857.83	3174.4	
858	4674.8	
858.17	4831.8	
858.34	2682.8	
858.51	2788	
858.68	5334.3	
858.85	5367.7	
859.02	3162.7	
859.19	3335.5	
859.36	4403.1	
859.52	4405.9	
859.69	2796.8	
859.86	3243.3	
860.03	4364.2	
860.2	5253.7	
860.37	2592	
860.54	2818	
860.71	5044.1	
860.88	5324.7	
861.05	3050.1	
861.21	3396.9	
861.38	5331.5	
861.55	4274.8	
861.72	2590.7	
861.89	3100.6	
862.06	5076.9	
862.23	5423	
862.4	2695.8	
862.56	2863.1	
862.73	4917.2	
862.9	4675.5	
863.07	3183.9	
863.24	2580.4	
863.41	4336.9	
863.58	4357.4	
863.75	2825.5	
863.91	3183.2	
864.08	5224.4	
864.25	5028.4	
864.42	3376.4	
864.59	3732.8	
864.76	5488.6	
864.93	4330.1	
865.09	2700.6	
865.26	2979.8	
865.43	5210.7	
865.6	5585.5	
865.77	2453.5	
865.94	2759.3	
866.1	5205.9	
866.27	4964.3	
866.44	4032.5	
866.61	2716.3	
866.78	4605.9	
866.95	4979.3	
867.11	2708.1	
867.28	2547.7	
867.45	5203.2	
867.62	4386.7	
867.79	3104.7	
867.96	2775	
868.12	4330.1	
868.29	5032.5	
868.46	2785.9	
868.63	3584.6	
868.8	5177.9	
868.97	4963.6	
869.13	2889	
869.3	2903.3	
869.47	4889.2	
869.64	5151.3	
869.81	2796.2	
869.97	2798.9	
870.14	4819.6	
870.31	5292	
870.48	2703.3	
870.65	3411.9	
870.81	4602.5	
870.98	4599.7	
871.15	3155.9	
871.32	2854.9	
871.48	4854.4	
871.65	5362.9	
871.82	2747.7	
871.99	2970.9	
872.16	5687.9	
872.32	5234.6	
872.49	2841.9	
872.66	2786.6	
872.83	5096	
872.99	4510.3	
873.16	3192.8	
873.33	2742.2	
873.5	4743.8	
873.67	4801.8	
873.83	2935.4	
874	3589.4	
874.17	4896	
874.34	5505.6	
874.5	3453.6	
874.67	3387.3	
874.84	5242.1	
875.01	4251.6	
875.17	3751.9	
875.34	2775.7	
875.51	4832.5	
875.68	5638.7	
875.84	3284.9	
876.01	3869.3	
876.18	5008	
876.34	4940.4	
876.51	2770.9	
876.68	2712.9	
876.85	4596.3	
877.01	5186.8	
877.18	3891.1	
877.35	2751.1	
877.52	4783.4	
877.68	4302.8	
877.85	2755.9	
878.02	2714.2	
878.18	4633.2	
878.35	4569.7	
878.52	2293	
878.69	3013.9	
878.85	5091.9	
879.02	4964.3	
879.19	3861.8	
879.35	2995.5	
879.52	4978.6	
879.69	5089.2	
879.86	2423.4	
880.02	3052.2	
880.19	4700.1	
880.36	5586.2	
880.52	3153.2	
880.69	3271.3	
880.86	5054.4	
881.02	5044.8	
881.19	3014.6	
881.36	3041.9	
881.52	4969.1	
881.69	4468.7	
881.86	2963.4	
882.02	2921.8	
882.19	5133.6	
882.36	5876.3	
882.52	2876.7	
882.69	3777.1	
882.86	4810.7	
883.02	4787.5	
883.19	3357.3	
883.36	3125.9	
883.52	5031.9	
883.69	5627.1	
883.86	2822.1	
884.02	2540.2	
884.19	5010.7	
884.36	4757.4	
884.52	3088.3	
884.69	3010.5	
884.86	4543.1	
885.02	5378.6	
885.19	3074	
885.36	3129.3	
885.52	4675.5	
885.69	4837.3	
885.86	3895.9	
886.02	3465.2	
886.19	5040.7	
886.35	4573.1	
886.52	3071.3	
886.69	3794.2	
886.85	4410	
887.02	5245.5	
887.19	5245.5	
887.35	5245.5	
887.52	5245.5	
887.68	5245.5	
887.85	5245.5	
888.02	5245.5	
888.18	5245.5	
888.35	5245.5	
888.51	5245.5	
888.68	5245.5	
888.85	5245.5	
889.01	5245.5	
889.18	5245.5	
889.35	5245.5	
889.51	5245.5	
889.68	5245.5	
889.84	5245.5	
890.01	5245.5	
890.17	5245.5	
890.34	5245.5	
890.51	5245.5	
890.67	5245.5	
890.84	5245.5	
891	5245.5	
891.17	5245.5	
891.34	5245.5	
891.5	5245.5	
891.67	5245.5	
891.83	5245.5	
892	5245.5	
892.16	5245.5	
892.33	5245.5	
892.5	5245.5	
892.66	5245.5	
892.83	5245.5	
892.99	5245.5	
893.16	5245.5	
893.32	5245.5	
893.49	5245.5	
893.65	5245.5	
893.82	5245.5	
893.99	5245.5	
894.15	5245.5	
894.32	5245.5	
894.48	5245.5	
894.65	5245.5	
894.81	5245.5	
894.98	5245.5	
895.14	5245.5	
895.31	5245.5	
895.47	5245.5	
895.64	5245.5	
895.81	5245.5	
895.97	5245.5	
896.14	5245.5	
896.3	5245.5	
896.47	5245.5	
896.63	5245.5	
896.8	5245.5	
896.96	5245.5	
897.13	5245.5	
897.29	5245.5	
897.46	5245.5	
897.62	5245.5	
897.79	5245.5	
897.95	5245.5	
898.12	5245.5	
898.28	5245.5	
898.45	5245.5	
898.61	5245.5	
898.78	5245.5	
898.94	5245.5	
899.11	5245.5	
899.27	5245.5	
899.44	5245.5	
899.6	5245.5	
899.77	5245.5	
899.93	5245.5	
900.1	5245.5	
900.26	5245.5	
900.43	5245.5	
900.59	5245.5	
900.76	5245.5	
900.92	5245.5	
901.09	5245.5	
901.25	5245.5	
901.42	5245.5	
901.58	5245.5	
901.75	5245.5	
901.91	5245.5	
902.07	5245.5	
902.24	5245.5	
902.4	5245.5	
902.57	5245.5	
902.73	5245.5	
902.9	5245.5	
903.06	5245.5	
903.23	5245.5	
903.39	5245.5	
903.56	5245.5	
903.72	5245.5	
903.88	5245.5	
904.05	5245.5	
904.21	5245.5	
904.38	5245.5	
904.54	5245.5	
904.71	5245.5	
904.87	5245.5	
905.03	5245.5	
905.2	5245.5	
905.36	5245.5	
905.53	5245.5	
905.69	5245.5	
905.86	5245.5	
906.02	5245.5	
906.18	5245.5	
906.35	5245.5	
906.51	5245.5	
906.68	5245.5	
906.84	5245.5	
907.01	5245.5	
907.17	5245.5	
907.33	5245.5	
907.5	5245.5	
907.66	5245.5	
907.83	5245.5	
907.99	5245.5	
908.15	5245.5	
908.32	5245.5	
908.48	5245.5	
908.65	5245.5	
908.81	5245.5	
908.97	5245.5	
909.14	5245.5	
909.3	5245.5	
909.47	5245.5	
909.63	5245.5	
909.79	5245.5	
909.96	5245.5	
910.12	5245.5	
910.28	5245.5	
910.45	5245.5	
910.61	5245.5	
910.78	5245.5	
910.94	5245.5	
911.1	5245.5	
911.27	5245.5	
911.43	5245.5	
911.59	5245.5	
911.76	5245.5	
911.92	5245.5	
912.08	5245.5	
912.25	5245.5	
912.41	5245.5	
912.57	5245.5	
912.74	5245.5	
912.9	5245.5	
913.07	5245.5	
913.23	5245.5	
913.39	5245.5	
913.56	5245.5	
913.72	5245.5	
913.88	5245.5	
914.05	5245.5	
914.21	5245.5	
914.37	5245.5	
914.54	5245.5	
914.7	5245.5	
914.86	5245.5	
915.03	5245.5	
915.19	5245.5	
