Wavelength	Intensities	
nm	a.u.	
179.22	1931.2	
179.44	1936	
179.65	1926.5	
179.86	1945.6	
180.08	1918.9	
180.29	5076.2	
180.51	3583.3	
180.72	5720.7	
180.94	6810.9	
181.15	3307.5	
181.37	3192.8	
181.58	5601.9	
181.79	5841.5	
182.01	3457	
182.22	3710.2	
182.44	5921.4	
182.65	4866.7	
182.87	4656.4	
183.08	4140.3	
183.29	6195.8	
183.51	5079	
183.72	3725.9	
183.94	5483.1	
184.15	5430.5	
184.37	5574.6	
184.58	3292.5	
184.79	4527.4	
185.01	5061.2	
185.22	5842.9	
185.44	4835.3	
185.65	4046.8	
185.86	5368.4	
186.08	4977.9	
186.29	3173	
186.51	3465.2	
186.72	5126.7	
186.94	6090	
187.15	4048.2	
187.36	4093.2	
187.58	7875.1	
187.79	5600.5	
188.01	4300.1	
188.22	6673.6	
188.43	6711.9	
188.65	5840.8	
188.86	3394.2	
189.08	4119.8	
189.29	5328.8	
189.5	5272.2	
189.72	3796.9	
189.93	3904.8	
190.15	6113.9	
190.36	7346.7	
190.57	4235.9	
190.79	4117.8	
191	6175.3	
191.22	6150.1	
191.43	4190.1	
191.64	3416.7	
191.86	6429.9	
192.07	6152.1	
192.29	3624.9	
192.5	3839.9	
192.71	6094.1	
192.93	5212.8	
193.14	3794.9	
193.35	3867.2	
193.57	5289.2	
193.78	6068.1	
194	3033	
194.21	3718.4	
194.42	4997	
194.64	5504.9	
194.85	4077.5	
195.07	4867.3	
195.28	5610.8	
195.49	4778.6	
195.71	5102.9	
195.92	3564.1	
196.13	5711.8	
196.35	5878.4	
196.56	5509.7	
196.78	4127.3	
196.99	7191.8	
197.2	6779.5	
197.42	4740.4	
197.63	4173.1	
197.84	4920.6	
198.06	5745.9	
198.27	3824.9	
198.48	5091.3	
198.7	5288.5	
198.91	5410.7	
199.13	4194.2	
199.34	4214	
199.55	5887.2	
199.77	4745.8	
199.98	3630.4	
200.19	4251.6	
200.41	5359.5	
200.62	5107	
200.83	4369.7	
201.05	4719.2	
201.26	5380.7	
201.47	5124.7	
201.69	3703.4	
201.9	3515	
202.11	5478.3	
202.33	6528.9	
202.54	3958	
202.76	4363.5	
202.97	5597.1	
203.18	5584.8	
203.4	4341.7	
203.61	4287.8	
203.82	5541.8	
204.04	5164.3	
204.25	4214	
204.46	4135.5	
204.68	5531.6	
204.89	5825.1	
205.1	4109.6	
205.32	3547.1	
205.53	5958.9	
205.74	6081.1	
205.96	3018.7	
206.17	4278.2	
206.38	5898.8	
206.6	6056.5	
206.81	4805.2	
207.02	3928	
207.24	5785.5	
207.45	6180.1	
207.66	4020.2	
207.88	3365.5	
208.09	5710.4	
208.3	5546.6	
208.52	3581.9	
208.73	3922.5	
208.94	5554.8	
209.15	6300.9	
209.37	3974.4	
209.58	4227.7	
209.79	6094.8	
210.01	5290.6	
210.22	3140.9	
210.43	3355.3	
210.65	5486.5	
210.86	5930.9	
211.07	3960.1	
211.29	3674.1	
211.5	5889.3	
211.71	5472.2	
211.93	3674.7	
212.14	3594.2	
212.35	5369.1	
212.56	5666.7	
212.78	4194.2	
212.99	3442.6	
213.2	6519.4	
213.42	5248.9	
213.63	3773.7	
213.84	4034.5	
214.06	4887.8	
214.27	5014.1	
214.48	3885	
214.69	4248.2	
214.91	6210.8	
215.12	6362.4	
215.33	4270.7	
215.55	4698.7	
215.76	6790.4	
215.97	5930.2	
216.18	4112.3	
216.4	3997.6	
216.61	5168.4	
216.82	6065.4	
217.04	3668.6	
217.25	3862.5	
217.46	6215.6	
217.67	5936.4	
217.89	3310.2	
218.1	3394.2	
218.31	5623	
218.53	5697.4	
218.74	3871.3	
218.95	3708.2	
219.16	5438.7	
219.38	6421.7	
219.59	3753.2	
219.8	4473.4	
220.01	7158.3	
220.23	5510.4	
220.44	4931.5	
220.65	3620.1	
220.87	5572.5	
221.08	6164.4	
221.29	3383.2	
221.5	4568.3	
221.72	7712.7	
221.93	5204.6	
222.14	4242	
222.35	4955.4	
222.57	5552	
222.78	5896.1	
222.99	3943.7	
223.2	4311	
223.42	5874.9	
223.63	5978.7	
223.84	3045.3	
224.05	3037.8	
224.27	7129	
224.48	6550.8	
224.69	4969.7	
224.9	4192.2	
225.12	5691.3	
225.33	5474.9	
225.54	3349.1	
225.75	3740.3	
225.97	5026.4	
226.18	5356.1	
226.39	3997	
226.6	3786.7	
226.82	5269.4	
227.03	5124.7	
227.24	4189.5	
227.45	3452.9	
227.67	5946.6	
227.88	6495.5	
228.09	4645.5	
228.3	4659.8	
228.52	5917.9	
228.73	5442.1	
228.94	3856.3	
229.15	3414.6	
229.36	5440.1	
229.58	5330.9	
229.79	3923.9	
230	4518.5	
230.21	6563.1	
230.43	5573.2	
230.64	4127.3	
230.85	4381.3	
231.06	5876.3	
231.28	5927.5	
231.49	3375.7	
231.7	4039.3	
231.91	5853.1	
232.12	5552	
232.34	3519.8	
232.55	4049.5	
232.76	6131.6	
232.97	5714.5	
233.18	3655.6	
233.4	4161.5	
233.61	5763.7	
233.82	5257.1	
234.03	3874.1	
234.25	3786	
234.46	7703.1	
234.67	5547.9	
234.88	4259.1	
235.09	3712.3	
235.31	5864	
235.52	5397.8	
235.73	4180.6	
235.94	3519.1	
236.15	5177.9	
236.37	6709.8	
236.58	3699.3	
236.79	4039.3	
237	5826.5	
237.21	5051.7	
237.43	4322.6	
237.64	3385.3	
237.85	10106	
238.06	5111	
238.27	4468.7	
238.48	3451.5	
238.7	5885.9	
238.91	5334.3	
239.12	3995.6	
239.33	4076.1	
239.54	5094	
239.76	5427.8	
239.97	3924.6	
240.18	3993.5	
240.39	6892.8	
240.6	5838.1	
240.82	4128	
241.03	3410.6	
241.24	5507	
241.45	6410.8	
241.66	3693.2	
241.87	4305.5	
242.09	6310.5	
242.3	6703	
242.51	4323.9	
242.72	4035.2	
242.93	6027.9	
243.14	5471.5	
243.36	4659.1	
243.57	5079.6	
243.78	6436.8	
243.99	5820.3	
244.2	4003.8	
244.41	3616	
244.63	5083.7	
244.84	5781.4	
245.05	4265.2	
245.26	4035.2	
245.47	5795.1	
245.68	6055.2	
245.9	5384.1	
246.11	4199.7	
246.32	5358.9	
246.53	5780.1	
246.74	6477	
246.95	3304.1	
247.16	4989.5	
247.38	5489.2	
247.59	3347.1	
247.8	4020.2	
248.01	5240.1	
248.22	5451.7	
248.43	3645.4	
248.64	3932.8	
248.86	4847.5	
249.07	5249.6	
249.28	3497.9	
249.49	4085.7	
249.7	6094.1	
249.91	6227.9	
250.12	3353.2	
250.34	3405.8	
250.55	5630.5	
250.76	5552	
250.97	4158.1	
251.18	4201.7	
251.39	6199.9	
251.6	5687.2	
251.81	4190.8	
252.03	4263.2	
252.24	5349.3	
252.45	6035.4	
252.66	3483.6	
252.87	4414.7	
253.08	5534.3	
253.29	7348.1	
253.5	3480.9	
253.72	4864.6	
253.93	5393	
254.14	6601.3	
254.35	3800.3	
254.56	3889.1	
254.77	5767.8	
254.98	5060.5	
255.19	3809.9	
255.41	4853	
255.62	5639.4	
255.83	6211.5	
256.04	4289.8	
256.25	4193.6	
256.46	6647.7	
256.67	5191.6	
256.88	4122.6	
257.09	4721.9	
257.31	5251	
257.52	5244.2	
257.73	5193	
257.94	3788.7	
258.15	5390.3	
258.36	5564.3	
258.57	4788.2	
258.78	3041.9	
258.99	5977.3	
259.2	5319.3	
259.41	3839.9	
259.63	3960.8	
259.84	6399.9	
260.05	6892.8	
260.26	5029.1	
260.47	3700	
260.68	6190.3	
260.89	5421	
261.1	4633.2	
261.31	3658.4	
261.52	6165.8	
261.73	6513.9	
261.95	4979.3	
262.16	4296	
262.37	6223.1	
262.58	6337.1	
262.79	4940.4	
263	3897.3	
263.21	5563	
263.42	5020.3	
263.63	3914.4	
263.84	3891.8	
264.05	6113.9	
264.26	6516.6	
264.47	4788.2	
264.69	4360.8	
264.9	6254.5	
265.11	5705.6	
265.32	3701.4	
265.53	3765.5	
265.74	5683.8	
265.95	4890.5	
266.16	4100.7	
266.37	4554	
266.58	5655.8	
266.79	5359.5	
267	3745.1	
267.21	3536.8	
267.42	5107	
267.63	5560.9	
267.84	3953.9	
268.06	3368.2	
268.27	6011.5	
268.48	6267.5	
268.69	3926	
268.9	4638	
269.11	6238.1	
269.32	5024.3	
269.53	3979.2	
269.74	3721.8	
269.95	5930.2	
270.16	4835.3	
270.37	3966.2	
270.58	4647.5	
270.79	5346.6	
271	6087.2	
271.21	4339	
271.42	4058.4	
271.63	5652.4	
271.84	5200.5	
272.05	3202.3	
272.26	3581.2	
272.47	5556.8	
272.68	5751.4	
272.89	3883.6	
273.11	4469.4	
273.32	5289.9	
273.53	6511.9	
273.74	4321.2	
273.95	4232.5	
274.16	6204.7	
274.37	5628.5	
274.58	4388.8	
274.79	3500	
275	5672.9	
275.21	6238.1	
275.42	5294.7	
275.63	4514.4	
275.84	5777.3	
276.05	7348.8	
276.26	4265.2	
276.47	3948.5	
276.68	5344.5	
276.89	6567.2	
277.1	4547.9	
277.31	3526.6	
277.52	5730.9	
277.73	5931.6	
277.94	3459.7	
278.15	3845.4	
278.36	5709.7	
278.57	5167	
278.78	3828.3	
278.99	4361.5	
279.2	5124.7	
279.41	5140.4	
279.62	5063.3	
279.83	3582.6	
280.04	6751.5	
280.25	5042.8	
280.46	5066	
280.67	3988.8	
280.88	5179.3	
281.09	6217.6	
281.3	4250.2	
281.51	5387.5	
281.72	5191.6	
281.93	6094.8	
282.14	3728.7	
282.35	4029.7	
282.56	6068.8	
282.77	6032.6	
282.98	3866.6	
283.19	4842.8	
283.4	7391.1	
283.61	5509	
283.82	3450.8	
284.03	4974.5	
284.24	5632.6	
284.45	6224.5	
284.66	5020.3	
284.87	4773.8	
285.08	6108.4	
285.29	6255.2	
285.5	3438.5	
285.71	3919.1	
285.92	6219	
286.12	6847.7	
286.33	4944.5	
286.54	3898	
286.75	6102.9	
286.96	5437.4	
287.17	3572.3	
287.38	4863.9	
287.59	5156.1	
287.8	5059.2	
288.01	3906.8	
288.22	4534.9	
288.43	6081.1	
288.64	5050.3	
288.85	4668.7	
289.06	4528.1	
289.27	5951.4	
289.48	6490	
289.69	5012.1	
289.9	4500.1	
290.11	6190.3	
290.32	5220.3	
290.53	4718.5	
290.74	4357.4	
290.94	5980.1	
291.15	6108.4	
291.36	3749.1	
291.57	4454.3	
291.78	5343.8	
291.99	4939.7	
292.2	3611.3	
292.41	4362.2	
292.62	6126.8	
292.83	5928.2	
293.04	5458.5	
293.25	3601.7	
293.46	5327.4	
293.67	6208.8	
293.88	3803.1	
294.09	3663.8	
294.29	5064.6	
294.5	5638.1	
294.71	3999	
294.92	3891.1	
295.13	5274.2	
295.34	6671.6	
295.55	3383.2	
295.76	3429.7	
295.97	5986.2	
296.18	6806.8	
296.39	3559.4	
296.6	3780.6	
296.81	5635.3	
297.01	6009.4	
297.22	3900	
297.43	3738.2	
297.64	5155.4	
297.85	5169.1	
298.06	3095.2	
298.27	3366.9	
298.48	5585.5	
298.69	5197.7	
298.9	4111.6	
299.11	3689.1	
299.31	5055.8	
299.52	5098.1	
299.73	4354.7	
299.94	4276.2	
300.15	5503.6	
300.36	5091.9	
300.57	4248.9	
300.78	4303.5	
300.99	5373.9	
301.2	5651.7	
301.4	3688.4	
301.61	4051.6	
301.82	5941.2	
302.03	5939.1	
302.24	4528.1	
302.45	3582.6	
302.66	5879.7	
302.87	6342.6	
303.08	3756.7	
303.29	5191.6	
303.49	5282.4	
303.7	5564.3	
303.91	3330	
304.12	4871.4	
304.33	5015.5	
304.54	5685.8	
304.75	3760.1	
304.96	3581.9	
305.16	5901.6	
305.37	6668.2	
305.58	3291.1	
305.79	3443.3	
306	5891.3	
306.21	4985.4	
306.42	3698.6	
306.63	5804.6	
306.83	5368.4	
307.04	6158.9	
307.25	4123.2	
307.46	4192.2	
307.67	4700.8	
307.88	6042.9	
308.09	3719.1	
308.29	3807.2	
308.5	5595.7	
308.71	6158.2	
308.92	3988.8	
309.13	3627.6	
309.34	5466.7	
309.55	5475.6	
309.75	4706.9	
309.96	4322.6	
310.17	5984.2	
310.38	5211.4	
310.59	4571.7	
310.8	4235.9	
311.01	5390.3	
311.21	5332.2	
311.42	3538.9	
311.63	3704.1	
311.84	5258.5	
312.05	5717.2	
312.26	4184.7	
312.46	4545.1	
312.67	5310.4	
312.88	5020.9	
313.09	3670.6	
313.3	3493.8	
313.51	6432	
313.71	6730.3	
313.92	3631.7	
314.13	3848.8	
314.34	5719.3	
314.55	5472.2	
314.76	4672.8	
314.96	4119.8	
315.17	5627.1	
315.38	6091.3	
315.59	3625.6	
315.8	3452.2	
316.01	6442.2	
316.21	6500.3	
316.42	3492.5	
316.63	4005.1	
316.84	5425.8	
317.05	6251.8	
317.26	4378.6	
317.46	3880.9	
317.67	5450.3	
317.88	5910.4	
318.09	4643.4	
318.3	3358.7	
318.5	5252.4	
318.71	5849.7	
318.92	5885.9	
319.13	4261.1	
319.34	6036.7	
319.54	6184.9	
319.75	3407.1	
319.96	3188.7	
320.17	5929.6	
320.38	6148.7	
320.58	3309.5	
320.79	3975.1	
321	6126.2	
321.21	6353.5	
321.42	4039.3	
321.62	3313.6	
321.83	5139.7	
322.04	5568.4	
322.25	3814	
322.46	3718.4	
322.66	5637.4	
322.87	5823.7	
323.08	4534.9	
323.29	3593.5	
323.5	6673.6	
323.7	5095.3	
323.91	4964.3	
324.12	4449.6	
324.33	5649	
324.53	5887.2	
324.74	4335.5	
324.95	4483.7	
325.16	4887.8	
325.37	5368.4	
325.57	3655.6	
325.78	3712.3	
325.99	5568.4	
326.2	5033.2	
326.4	5333.6	
326.61	3345	
326.82	5507.7	
327.03	5621.7	
327.24	5225.7	
327.44	4928.8	
327.65	5776	
327.86	4674.8	
328.07	4218.8	
328.27	3494.5	
328.48	6195.8	
328.69	5114.5	
328.9	5312.4	
329.1	3987.4	
329.31	5428.5	
329.52	6384.2	
329.73	3678.8	
329.93	4140.3	
330.14	5541.1	
330.35	5822.4	
330.56	6040.8	
330.76	4510.3	
330.97	5344.5	
331.18	5771.2	
331.39	4038.6	
331.59	3291.8	
331.8	6170.5	
332.01	6266.1	
332.22	3772.4	
332.42	4334.9	
332.63	5687.9	
332.84	5205.9	
333.05	4101.4	
333.25	3708.9	
333.46	5287.2	
333.67	5568.4	
333.88	3832.4	
334.08	4238.6	
334.29	7986.4	
334.5	6267.5	
334.7	3494.5	
334.91	5210	
335.12	5101.5	
335.33	5961.6	
335.53	4053.6	
335.74	5970.5	
335.95	5268.7	
336.16	5147.2	
336.36	4020.8	
336.57	4698.7	
336.78	5074.9	
336.98	6238.1	
337.19	5014.8	
337.4	4001	
337.61	6697.5	
337.81	5050.3	
338.02	3725.9	
338.23	4810.7	
338.43	6354.8	
338.64	5193	
338.85	3633.8	
339.05	4802.5	
339.26	6394.4	
339.47	5006.6	
339.68	3626.3	
339.88	5438.7	
340.09	5834	
340.3	6054.5	
340.5	4303.5	
340.71	3254.2	
340.92	5018.9	
341.13	6308.4	
341.33	3547.1	
341.54	4313.7	
341.75	5818.3	
341.95	5442.8	
342.16	4098	
342.37	4431.8	
342.57	5098.1	
342.78	5481.7	
342.99	4597.7	
343.19	3263.8	
343.4	5977.3	
343.61	5772.5	
343.81	3899.3	
344.02	3609.9	
344.23	5968.5	
344.43	6475.7	
344.64	4597	
344.85	4388.8	
345.06	5844.9	
345.26	6193.7	
345.47	4313.7	
345.68	4980.7	
345.88	4885.8	
346.09	6035.4	
346.3	4343.1	
346.5	3250.8	
346.71	5487.9	
346.92	5237.3	
347.12	3304.1	
347.33	4262.5	
347.54	6181.5	
347.74	6601.3	
347.95	4250.2	
348.16	3143.6	
348.36	5315.8	
348.57	5027.8	
348.78	4186	
348.98	4457.7	
349.19	5529.5	
349.39	5006.6	
349.6	3381.9	
349.81	3741.6	
350.01	5803.3	
350.22	5218.2	
350.43	4052.2	
350.63	4866.7	
350.84	5636	
351.05	5359.5	
351.25	3653.6	
351.46	3355.9	
351.67	6159.6	
351.87	5203.9	
352.08	3960.8	
352.29	4513.7	
352.49	5985.5	
352.7	5642.2	
352.9	3542.3	
353.11	4433.2	
353.32	6728.3	
353.52	5317.9	
353.73	3501.3	
353.94	4482.3	
354.14	5839.4	
354.35	5707.7	
354.55	3622.2	
354.76	4102.8	
354.97	5814.2	
355.17	5586.9	
355.38	3448.1	
355.59	4846.9	
355.79	5208.7	
356	5653.8	
356.2	4005.1	
356.41	3469.3	
356.62	4913.1	
356.82	5426.4	
357.03	4351.9	
357.24	3864.5	
357.44	5220.3	
357.65	5383.4	
357.85	5262.6	
358.06	4091.2	
358.27	4954	
358.47	5245.5	
358.68	3357.3	
358.88	4303.5	
359.09	5813.5	
359.3	6188.3	
359.5	5008.6	
359.71	4420.2	
359.91	6687.3	
360.12	6063.4	
360.33	4208.6	
360.53	4792.2	
360.74	5231.2	
360.94	5255.1	
361.15	4524	
361.36	3734.8	
361.56	6108.4	
361.77	5504.9	
361.97	5038	
362.18	3873.4	
362.38	6089.3	
362.59	5091.3	
362.8	3622.2	
363	3456.3	
363.21	4898.7	
363.41	5742.5	
363.62	4187.4	
363.83	5319.9	
364.03	5642.2	
364.24	6709.1	
364.44	5316.5	
364.65	5328.1	
364.85	5414.1	
365.06	5285.1	
365.27	3750.5	
365.47	3889.8	
365.68	6487.3	
365.88	5367.7	
366.09	4246.1	
366.29	3874.8	
366.5	5642.8	
366.71	6072.2	
366.91	5262.6	
367.12	4401.1	
367.32	6782.2	
367.53	5988.9	
367.73	4323.3	
367.94	5304.2	
368.14	5916.6	
368.35	6901.7	
368.56	4375.8	
368.76	3662.5	
368.97	6029.9	
369.17	7887.4	
369.38	3850.2	
369.58	4062.5	
369.79	5073.5	
369.99	6426.5	
370.2	5130.8	
370.4	4233.2	
370.61	5735	
370.82	7036.1	
371.02	4121.9	
371.23	3404.4	
371.43	4911.7	
371.64	6341.2	
371.84	4111.6	
372.05	5417.6	
372.25	7722.9	
372.46	6101.6	
372.66	4099.4	
372.87	4055.7	
373.07	6135.7	
373.28	7834.2	
373.48	5161.6	
373.69	4889.9	
373.9	5521.3	
374.1	5540.4	
374.31	5089.2	
374.51	4669.4	
374.72	6473.6	
374.92	5268.7	
375.13	5335	
375.33	4399	
375.54	5996.5	
375.74	5466	
375.95	4569	
376.15	5814.9	
376.36	5999.2	
376.56	5872.2	
376.77	4575.2	
376.97	5127.4	
377.18	7129	
377.38	6155.5	
377.59	5442.8	
377.79	4042.7	
378	5897.5	
378.2	6353.5	
378.41	4094.6	
378.61	4053.6	
378.82	6435.4	
379.02	5485.8	
379.23	4330.8	
379.43	5485.8	
379.64	6429.9	
379.84	6073.6	
380.05	4094.6	
380.25	4065.9	
380.46	6213.5	
380.66	5733.6	
380.87	5547.3	
381.07	5906.3	
381.28	6780.8	
381.48	6242.2	
381.69	4138.9	
381.89	4244.1	
382.1	5143.1	
382.3	6399.2	
382.51	5423.7	
382.71	6301.6	
382.91	6248.4	
383.12	6842.9	
383.32	4591.5	
383.53	4842.8	
383.73	6083.8	
383.94	5889.3	
384.14	4719.9	
384.35	3792.2	
384.55	5763	
384.76	6266.1	
384.96	4530.8	
385.17	4912.4	
385.37	6165.1	
385.58	5466.7	
385.78	4934.9	
385.98	3734.1	
386.19	5738.4	
386.39	6096.8	
386.6	4379.2	
386.8	4611.3	
387.01	6221.7	
387.21	6253.8	
387.42	5056.4	
387.62	5582.8	
387.83	5542.5	
388.03	6326.2	
388.23	4689.8	
388.44	5512.4	
388.64	5205.9	
388.85	5391.6	
389.05	5048.9	
389.26	5728.2	
389.46	7322.9	
389.67	6743.3	
389.87	5033.9	
390.07	5148.6	
390.28	5894.7	
390.48	5479.7	
390.69	4280.3	
390.89	4569	
391.1	5710.4	
391.3	6688	
391.5	5847.6	
391.71	6475.7	
391.91	6382.8	
392.12	7431.4	
392.32	5885.2	
392.53	5113.8	
392.73	5719.3	
392.93	5945.9	
393.14	4700.8	
393.34	5564.3	
393.55	6519.4	
393.75	5877.7	
393.95	4690.5	
394.16	4689.2	
394.36	5666	
394.57	6413.6	
394.77	4183.3	
394.98	4653	
395.18	5756.2	
395.38	5909.1	
395.59	5634.6	
395.79	4538.3	
396	5905.7	
396.2	6361	
396.4	5577.3	
396.61	5348.6	
396.81	6657.3	
397.02	5840.1	
397.22	5704.3	
397.42	5818.3	
397.63	6679.1	
397.83	5745.2	
398.04	4526	
398.24	5072.8	
398.44	6369.2	
398.65	5459.9	
398.85	4441.4	
399.05	4499.4	
399.26	5750	
399.46	7617.1	
399.67	4980.7	
399.87	4663.9	
400.07	6232	
400.28	6588.3	
400.48	4796.3	
400.69	5960.3	
400.89	6847.7	
401.09	7289.4	
401.3	4629.1	
401.5	5868.1	
401.7	7547.4	
401.91	7770.7	
402.11	5001.8	
402.32	5205.3	
402.52	6788.3	
402.72	6743.3	
402.93	5400.5	
403.13	4225.6	
403.33	7488.1	
403.54	6180.1	
403.74	5092.6	
403.94	6032.6	
404.15	6373.3	
404.35	7572.7	
404.56	4902.8	
404.76	6994.5	
404.96	6887.3	
405.17	6600.6	
405.37	6335	
405.57	5401.9	
405.78	6860.7	
405.98	6270.9	
406.18	4910.3	
406.39	5938.4	
406.59	6877.8	
406.79	6444.3	
407	4761.5	
407.2	5064.6	
407.4	6931.7	
407.61	7243.7	
407.81	4980.7	
408.01	7503.1	
408.22	6079.1	
408.42	8221.2	
408.62	6230.6	
408.83	5756.2	
409.03	6750.8	
409.23	6564.4	
409.44	5838.8	
409.64	6165.1	
409.84	7875.8	
410.05	7683.3	
410.25	6050.4	
410.45	5750	
410.66	7161.7	
410.86	9804.3	
411.06	6294.8	
411.27	6158.2	
411.47	9620	
411.67	7431.4	
411.88	6465.4	
412.08	6844.3	
412.28	8139.3	
412.49	8669.1	
412.69	6266.8	
412.89	6323.4	
413.09	8478.6	
413.3	8362.5	
413.5	6399.9	
413.7	5988.3	
413.91	7579.5	
414.11	8497	
414.31	6292	
414.52	6776	
414.72	8110.6	
414.92	8088.1	
415.12	6295.5	
415.33	6811.5	
415.53	8571.4	
415.73	8714.1	
415.94	7275.8	
416.14	6672.3	
416.34	7509.2	
416.55	7262.1	
416.75	8013.7	
416.95	7347.4	
417.15	8662.9	
417.36	9358.5	
417.56	8230.1	
417.76	7290.8	
417.97	9093	
418.17	8738.7	
418.37	6672.3	
418.57	6884.6	
418.78	8393.3	
418.98	8098.4	
419.18	7735.9	
419.38	7606.2	
419.59	8253.3	
419.79	7695.6	
419.99	6748.1	
420.2	7247.8	
420.4	8710.7	
420.6	8965.3	
420.8	6696.2	
421.01	6582.2	
421.21	8522.3	
421.41	8775.5	
421.61	7083.2	
421.82	6775.4	
422.02	8036.9	
422.22	9067.7	
422.42	7660.8	
422.63	7261.4	
422.83	8147.5	
423.03	9396.8	
423.23	7252.5	
423.44	6167.1	
423.64	8267	
423.84	7977.5	
424.04	6621.1	
424.25	6356.2	
424.45	9284.1	
424.65	9166	
424.85	6126.2	
425.06	6784.9	
425.26	9159.9	
425.46	7993.2	
425.66	7128.3	
425.87	6864.1	
426.07	8845.2	
426.27	8733.2	
426.47	7035.5	
426.67	6389	
426.88	9260.9	
427.08	8705.2	
427.28	7407.5	
427.48	6277.7	
427.69	7543.4	
427.89	8281.3	
428.09	7311.2	
428.29	6404.7	
428.5	8993.3	
428.7	8492.9	
428.9	6331	
429.1	6939.9	
429.3	8447.9	
429.51	8873.2	
429.71	6595.1	
429.91	7544.7	
430.11	8791.9	
430.31	9058.8	
430.52	7034.1	
430.72	7468.3	
430.92	9450	
431.12	8865	
431.32	6691.4	
431.53	7211.6	
431.73	7735.2	
431.93	9551.7	
432.13	6677.1	
432.33	6626.5	
432.54	8263.6	
432.74	8720.9	
432.94	6563.7	
433.14	7645.8	
433.34	8899.1	
433.55	8482.7	
433.75	7642.3	
433.95	9608.4	
434.15	8714.8	
434.35	8456.7	
434.56	6764.4	
434.76	6402	
434.96	8770.1	
435.16	9082.7	
435.36	6651.1	
435.56	7925	
435.77	8559.8	
435.97	8691.6	
436.17	8757.8	
436.37	7922.9	
436.57	8550.3	
436.78	8511.4	
436.98	9819.3	
437.18	8565.3	
437.38	9238.4	
437.58	8636.3	
437.78	8672.5	
437.99	7191.1	
438.19	9094.3	
438.39	9943.6	
438.59	7148.8	
438.79	6650.4	
438.99	9914.2	
439.2	8789.2	
439.4	6986.3	
439.6	6951.5	
439.8	9222.7	
440	10347	
440.2	8072.4	
440.4	8174.8	
440.61	9759.9	
440.81	10410	
441.01	7326.9	
441.21	8413.7	
441.41	10251	
441.61	9736.7	
441.81	8661.5	
442.02	9770.9	
442.22	10729	
442.42	9814.5	
442.62	7563.8	
442.82	7452.6	
443.02	10208	
443.22	9394.7	
443.43	8059.4	
443.63	7546.8	
443.83	9153.7	
444.03	9265.7	
444.23	8969.4	
444.43	8535.9	
444.63	9610.4	
444.83	10821	
445.04	7744.7	
445.24	9028.1	
445.44	9883.5	
445.64	10039	
445.84	8371.4	
446.04	8490.2	
446.24	9200.2	
446.44	10269	
446.65	7529	
446.85	8170	
447.05	9567.4	
447.25	10238	
447.45	8071	
447.65	7505.1	
447.85	9595.4	
448.05	9170.1	
448.25	8619.2	
448.46	8437.6	
448.66	9734	
448.86	9338.7	
449.06	7385	
449.26	8697	
449.46	10103	
449.66	9041.8	
449.86	8256	
450.06	8182.3	
450.26	9204.9	
450.47	9942.9	
450.67	8501.8	
450.87	8893	
451.07	9969.5	
451.27	9840.5	
451.47	7731.8	
451.67	8507.9	
451.87	9532.6	
452.07	10598	
452.27	8095.6	
452.47	7979.6	
452.67	9762	
452.88	10478	
453.08	7266.9	
453.28	9534.7	
453.48	11073	
453.68	9750.4	
453.88	8128.4	
454.08	8377.6	
454.28	10335	
454.48	9962	
454.68	8987.2	
454.88	9520.3	
455.08	10370	
455.28	10355	
455.48	7970	
455.68	8751.7	
455.89	11034	
456.09	10783	
456.29	8467.7	
456.49	8640.4	
456.69	11047	
456.89	10155	
457.09	9243.2	
457.29	9745.6	
457.49	10710	
457.69	10920	
457.89	9329.9	
458.09	8510	
458.29	10523	
458.49	11316	
458.69	9681.4	
458.89	9024	
459.09	11667	
459.29	11711	
459.49	9194.7	
459.69	10054	
459.9	11188	
460.1	10627	
460.3	8998.1	
460.5	8938.7	
460.7	11213	
460.9	10862	
461.1	8695	
461.3	10106	
461.5	12086	
461.7	11716	
461.9	9321	
462.1	9696.4	
462.3	11236	
462.5	12019	
462.7	9536.7	
462.9	9607.7	
463.1	13083	
463.3	12824	
463.5	9876.7	
463.7	11020	
463.9	11598	
464.1	12182	
464.3	10260	
464.5	10347	
464.7	12498	
464.9	12327	
465.1	11936	
465.3	10927	
465.5	12787	
465.7	12831	
465.9	11283	
466.1	10826	
466.3	12848	
466.5	12539	
466.7	12143	
466.9	10852	
467.1	12568	
467.3	13657	
467.5	12156	
467.7	10946	
467.9	13998	
468.1	14855	
468.3	11731	
468.5	12353	
468.7	12743	
468.9	12757	
469.1	11440	
469.3	12149	
469.5	14884	
469.7	12471	
469.9	11828	
470.1	11308	
470.3	12884	
470.5	12922	
470.7	12461	
470.9	11152	
471.1	12623	
471.3	12956	
471.5	11125	
471.69	13067	
471.89	12409	
472.09	11863	
472.29	11983	
472.49	12114	
472.69	12291	
472.89	13160	
473.09	10998	
473.29	10991	
473.49	12340	
473.69	12456	
473.89	12091	
474.09	11076	
474.29	13852	
474.49	13401	
474.69	12112	
474.89	11331	
475.09	12513	
475.29	12472	
475.49	10560	
475.69	11040	
475.88	14104	
476.08	12790	
476.28	10705	
476.48	11203	
476.68	13182	
476.88	12896	
477.08	10974	
477.28	11296	
477.48	12463	
477.68	13224	
477.88	10828	
478.08	11200	
478.28	13738	
478.48	12691	
478.67	11291	
478.87	10448	
479.07	13491	
479.27	12906	
479.47	11343	
479.67	11493	
479.87	13312	
480.07	13972	
480.27	10621	
480.47	12372	
480.67	12912	
480.87	13632	
481.06	11025	
481.26	11891	
481.46	12949	
481.66	12860	
481.86	11482	
482.06	12597	
482.26	12605	
482.46	13544	
482.66	11525	
482.86	11121	
483.05	13052	
483.25	12454	
483.45	14089	
483.65	11615	
483.85	12787	
484.05	13043	
484.25	11895	
484.45	12625	
484.65	14002	
484.84	14158	
485.04	11519	
485.24	11542	
485.44	14357	
485.64	12691	
485.84	10978	
486.04	12512	
486.24	13097	
486.44	13529	
486.63	10965	
486.83	11902	
487.03	13205	
487.23	13513	
487.43	11261	
487.63	13766	
487.83	13506	
488.02	14663	
488.22	12485	
488.42	13269	
488.62	14468	
488.82	13318	
489.02	12112	
489.22	12294	
489.41	14325	
489.61	14093	
489.81	11787	
490.01	11859	
490.21	14263	
490.41	14965	
490.61	11845	
490.8	11882	
491	13786	
491.2	12921	
491.4	12414	
491.6	11592	
491.8	13614	
491.99	13901	
492.19	11443	
492.39	11816	
492.59	14455	
492.79	14567	
492.99	12954	
493.18	12129	
493.38	14670	
493.58	15767	
493.78	13119	
493.98	12652	
494.18	14728	
494.37	14287	
494.57	13682	
494.77	13526	
494.97	15210	
495.17	15597	
495.37	13265	
495.56	13646	
495.76	15945	
495.96	15386	
496.16	14696	
496.36	13570	
496.55	15842	
496.75	15186	
496.95	13924	
497.15	13765	
497.35	15763	
497.54	15897	
497.74	13680	
497.94	15664	
498.14	16667	
498.34	16399	
498.53	13638	
498.73	14428	
498.93	15466	
499.13	16059	
499.33	14453	
499.52	14721	
499.72	16135	
499.92	16250	
500.12	14134	
500.32	14244	
500.51	16350	
500.71	16354	
500.91	15236	
501.11	14718	
501.31	16426	
501.5	16802	
501.7	15478	
501.9	14471	
502.1	16072	
502.29	16514	
502.49	14932	
502.69	15236	
502.89	16164	
503.09	16237	
503.28	13622	
503.48	13836	
503.68	15308	
503.88	15408	
504.07	14807	
504.27	14201	
504.47	15620	
504.67	15867	
504.86	14702	
505.06	14317	
505.26	15218	
505.46	17134	
505.65	14145	
505.85	14240	
506.05	15021	
506.25	15580	
506.44	13151	
506.64	14166	
506.84	14957	
507.04	15778	
507.23	13482	
507.43	14024	
507.63	16976	
507.83	15107	
508.02	14001	
508.22	13295	
508.42	17301	
508.62	14855	
508.81	13785	
509.01	14519	
509.21	14760	
509.4	15178	
509.6	14166	
509.8	13503	
510	15091	
510.19	16738	
510.39	13486	
510.59	13594	
510.79	14933	
510.98	16519	
511.18	13666	
511.38	13687	
511.57	15778	
511.77	15617	
511.97	14472	
512.17	13231	
512.36	15727	
512.56	15642	
512.76	13450	
512.95	13168	
513.15	15918	
513.35	14578	
513.55	14510	
513.74	13575	
513.94	16013	
514.14	15273	
514.33	14648	
514.53	14302	
514.73	15324	
514.92	15653	
515.12	13891	
515.32	13732	
515.51	15664	
515.71	16326	
515.91	15482	
516.11	13756	
516.3	17703	
516.5	15388	
516.7	14440	
516.89	15132	
517.09	15487	
517.29	15300	
517.48	14552	
517.68	14180	
517.88	15111	
518.07	15811	
518.27	14673	
518.47	13664	
518.66	16456	
518.86	15042	
519.06	13446	
519.25	14018	
519.45	15450	
519.65	17133	
519.84	14625	
520.04	15312	
520.24	17365	
520.43	16010	
520.63	14278	
520.83	13957	
521.02	15131	
521.22	15740	
521.42	14505	
521.61	15137	
521.81	15388	
522.01	15521	
522.2	14488	
522.4	14274	
522.6	16275	
522.79	15173	
522.99	14596	
523.18	13885	
523.38	16275	
523.58	16468	
523.77	16225	
523.97	14224	
524.17	18443	
524.36	17490	
524.56	15980	
524.76	15324	
524.95	16831	
525.15	16382	
525.34	15266	
525.54	15246	
525.74	17121	
525.93	16108	
526.13	16589	
526.33	15398	
526.52	17733	
526.72	17169	
526.91	17040	
527.11	16130	
527.31	17963	
527.5	18353	
527.7	16224	
527.89	15311	
528.09	16811	
528.29	17790	
528.48	16700	
528.68	16260	
528.87	18017	
529.07	17895	
529.27	15994	
529.46	15362	
529.66	17408	
529.85	17823	
530.05	15233	
530.25	16070	
530.44	18953	
530.64	17335	
530.83	15866	
531.03	16259	
531.23	18049	
531.42	17941	
531.62	17260	
531.81	16393	
532.01	18478	
532.21	19084	
532.4	16410	
532.6	16794	
532.79	19613	
532.99	18796	
533.18	17144	
533.38	17960	
533.58	18553	
533.77	19139	
533.97	17047	
534.16	17968	
534.36	19495	
534.55	18602	
534.75	18178	
534.95	17193	
535.14	19442	
535.34	18438	
535.53	16540	
535.73	18826	
535.92	19865	
536.12	18637	
536.31	16747	
536.51	18082	
536.71	18698	
536.9	18482	
537.1	16908	
537.29	17140	
537.49	19318	
537.68	18337	
537.88	17744	
538.07	16821	
538.27	18746	
538.46	19941	
538.66	16731	
538.86	17414	
539.05	18718	
539.25	19341	
539.44	17609	
539.64	17074	
539.83	18666	
540.03	19510	
540.22	16866	
540.42	16873	
540.61	18579	
540.81	18908	
541	17287	
541.2	18183	
541.39	18023	
541.59	18617	
541.78	17791	
541.98	16546	
542.18	17737	
542.37	17662	
542.57	16851	
542.76	17684	
542.96	17684	
543.15	18346	
543.35	16807	
543.54	15947	
543.74	18441	
543.93	18088	
544.13	16637	
544.32	17764	
544.52	18204	
544.71	17462	
544.91	15508	
545.1	16931	
545.3	17473	
545.49	18312	
545.69	15536	
545.88	16156	
546.08	19294	
546.27	18783	
546.47	16725	
546.66	15936	
546.86	18307	
547.05	18998	
547.24	16066	
547.44	16047	
547.63	17139	
547.83	18541	
548.02	16383	
548.22	16650	
548.41	16874	
548.61	18424	
548.8	15906	
549	15824	
549.19	17570	
549.39	18002	
549.58	15401	
549.78	15955	
549.97	17948	
550.17	17363	
550.36	16808	
550.55	18012	
550.75	17232	
550.94	18276	
551.14	15524	
551.33	15803	
551.53	16753	
551.72	17640	
551.92	15931	
552.11	15681	
552.31	17693	
552.5	17723	
552.69	17312	
552.89	15183	
553.08	17582	
553.28	17292	
553.47	15685	
553.67	16960	
553.86	18243	
554.06	16421	
554.25	14750	
554.44	15532	
554.64	18961	
554.83	18490	
555.03	15348	
555.22	15776	
555.42	17670	
555.61	17433	
555.8	15541	
556	15744	
556.19	16605	
556.39	17789	
556.58	15510	
556.78	15528	
556.97	17199	
557.16	16961	
557.36	16793	
557.55	15122	
557.75	16036	
557.94	18068	
558.13	15163	
558.33	15005	
558.52	17899	
558.72	16675	
558.91	14923	
559.1	15216	
559.3	16195	
559.49	15965	
559.69	14502	
559.88	15532	
560.07	17019	
560.27	17528	
560.46	15649	
560.66	15913	
560.85	16788	
561.04	15838	
561.24	14969	
561.43	14797	
561.63	16249	
561.82	16401	
562.01	16456	
562.21	15426	
562.4	16855	
562.59	18152	
562.79	15341	
562.98	14956	
563.18	16820	
563.37	18556	
563.56	15840	
563.76	14911	
563.95	16515	
564.14	16323	
564.34	15408	
564.53	15141	
564.73	16941	
564.92	17514	
565.11	15655	
565.31	14915	
565.5	17692	
565.69	16596	
565.89	15195	
566.08	15546	
566.27	17616	
566.47	18044	
566.66	16197	
566.85	14761	
567.05	17060	
567.24	16627	
567.44	15167	
567.63	16635	
567.82	17376	
568.02	17131	
568.21	15184	
568.4	15765	
568.6	17230	
568.79	17166	
568.98	15074	
569.18	15392	
569.37	17245	
569.56	19250	
569.76	15730	
569.95	16670	
570.14	17464	
570.34	17485	
570.53	15060	
570.72	15113	
570.91	17903	
571.11	17038	
571.3	15679	
571.49	16599	
571.69	17169	
571.88	16538	
572.07	16141	
572.27	16081	
572.46	16590	
572.65	17911	
572.85	15458	
573.04	15900	
573.23	18176	
573.43	17405	
573.62	15404	
573.81	16078	
574	17489	
574.2	17316	
574.39	15941	
574.58	16174	
574.78	18568	
574.97	17865	
575.16	16494	
575.36	16765	
575.55	18120	
575.74	18311	
575.93	15481	
576.13	16766	
576.32	17432	
576.51	18236	
576.71	15964	
576.9	17507	
577.09	18569	
577.28	18005	
577.48	16690	
577.67	15532	
577.86	17722	
578.05	18205	
578.25	16328	
578.44	16440	
578.63	17959	
578.83	19150	
579.02	15720	
579.21	17253	
579.4	18015	
579.6	17903	
579.79	16553	
579.98	18882	
580.17	18550	
580.37	18619	
580.56	16073	
580.75	16943	
580.94	19193	
581.14	19053	
581.33	17508	
581.52	16128	
581.71	18595	
581.91	19291	
582.1	16142	
582.29	16783	
582.48	18215	
582.68	18193	
582.87	17258	
583.06	16871	
583.25	18572	
583.45	17855	
583.64	17697	
583.83	18413	
584.02	18036	
584.21	18688	
584.41	17585	
584.6	16931	
584.79	18415	
584.98	19257	
585.18	16268	
585.37	16255	
585.56	17858	
585.75	18754	
585.94	16432	
586.14	17283	
586.33	19068	
586.52	18187	
586.71	16696	
586.91	16565	
587.1	17307	
587.29	18267	
587.48	16121	
587.67	16170	
587.87	18090	
588.06	18146	
588.25	17301	
588.44	16425	
588.63	17486	
588.83	18019	
589.02	15468	
589.21	15411	
589.4	16651	
589.59	16423	
589.78	14007	
589.98	14070	
590.17	15619	
590.36	16059	
590.55	13250	
590.74	13942	
590.94	17382	
591.13	15754	
591.32	13889	
591.51	13429	
591.7	16391	
591.89	15960	
592.09	13697	
592.28	14322	
592.47	15006	
592.66	17267	
592.85	13553	
593.05	14005	
593.24	15696	
593.43	16617	
593.62	14165	
593.81	14736	
594	15890	
594.19	16219	
594.39	13987	
594.58	13943	
594.77	16198	
594.96	16827	
595.15	13625	
595.34	14419	
595.54	15979	
595.73	15092	
595.92	13105	
596.11	14423	
596.3	16720	
596.49	15193	
596.68	13932	
596.88	14548	
597.07	16392	
597.26	15282	
597.45	13570	
597.64	15063	
597.83	15359	
598.02	16029	
598.22	13658	
598.41	14435	
598.6	15795	
598.79	15347	
598.98	13798	
599.17	14778	
599.36	15864	
599.55	17134	
599.74	15834	
599.94	15889	
600.13	16592	
600.32	15173	
600.51	13648	
600.7	13650	
600.89	17155	
601.08	17182	
601.27	13452	
601.47	14666	
601.66	16434	
601.85	17255	
602.04	14298	
602.23	14585	
602.42	15478	
602.61	16111	
602.8	14089	
602.99	13918	
603.18	15785	
603.37	16100	
603.57	14515	
603.76	15159	
603.95	16980	
604.14	16318	
604.33	14097	
604.52	14540	
604.71	16179	
604.9	15743	
605.09	15001	
605.28	14924	
605.47	16696	
605.66	16323	
605.86	14545	
606.05	14130	
606.24	16633	
606.43	15141	
606.62	14334	
606.81	15165	
607	16483	
607.19	15780	
607.38	13689	
607.57	14099	
607.76	15505	
607.95	14933	
608.14	14330	
608.33	15068	
608.52	15512	
608.72	16490	
608.91	13590	
609.1	13464	
609.29	15511	
609.48	14985	
609.67	14390	
609.86	13416	
610.05	15101	
610.24	15494	
610.43	13342	
610.62	12931	
610.81	16575	
611	16415	
611.19	13543	
611.38	14199	
611.57	15674	
611.76	17290	
611.95	13164	
612.14	13034	
612.33	15520	
612.52	15122	
612.71	13844	
612.9	13000	
613.09	14588	
613.28	17021	
613.47	13458	
613.66	14467	
613.85	15542	
614.04	15137	
614.24	13713	
614.43	12728	
614.62	15780	
614.81	15616	
615	14213	
615.19	14358	
615.38	14954	
615.57	15576	
615.76	14175	
615.95	15150	
616.14	15798	
616.33	15461	
616.52	14547	
616.71	14719	
616.9	15836	
617.09	15756	
617.28	13894	
617.47	15252	
617.66	15068	
617.85	15150	
618.04	15063	
618.22	14280	
618.41	15532	
618.6	16574	
618.79	14374	
618.98	14190	
619.17	17113	
619.36	15166	
619.55	14485	
619.74	14405	
619.93	16189	
620.12	15751	
620.31	14902	
620.5	15253	
620.69	17080	
620.88	17491	
621.07	16081	
621.26	15122	
621.45	16593	
621.64	16670	
621.83	15157	
622.02	14316	
622.21	16623	
622.4	16460	
622.59	15862	
622.78	15581	
622.97	15933	
623.16	17131	
623.35	15144	
623.54	14240	
623.72	16229	
623.91	16456	
624.1	15546	
624.29	14098	
624.48	17704	
624.67	16773	
624.86	15418	
625.05	14454	
625.24	17785	
625.43	16036	
625.62	17328	
625.81	14610	
626	17065	
626.19	16470	
626.38	15464	
626.56	14745	
626.75	16124	
626.94	16920	
627.13	15213	
627.32	13746	
627.51	16726	
627.7	18217	
627.89	13918	
628.08	15259	
628.27	15788	
628.46	15901	
628.65	14209	
628.83	13943	
629.02	16647	
629.21	15866	
629.4	14766	
629.59	15034	
629.78	15748	
629.97	16929	
630.16	15223	
630.35	14479	
630.54	17361	
630.72	16930	
630.91	14560	
631.1	15063	
631.29	16681	
631.48	16727	
631.67	15359	
631.86	14597	
632.05	16193	
632.24	16154	
632.42	14328	
632.61	15003	
632.8	16281	
632.99	15802	
633.18	15107	
633.37	15368	
633.56	16595	
633.75	16324	
633.93	14882	
634.12	14876	
634.31	17372	
634.5	17062	
634.69	14748	
634.88	15107	
635.07	16320	
635.25	16997	
635.44	15606	
635.63	15991	
635.82	16034	
636.01	15599	
636.2	15609	
636.39	15229	
636.57	17354	
636.76	17011	
636.95	14607	
637.14	15992	
637.33	16660	
637.52	17648	
637.7	14172	
637.89	15309	
638.08	16191	
638.27	17661	
638.46	15344	
638.65	15715	
638.83	17573	
639.02	15844	
639.21	14992	
639.4	15653	
639.59	16414	
639.78	15842	
639.96	14229	
640.15	14228	
640.34	16091	
640.53	16270	
640.72	13894	
640.91	14194	
641.09	15364	
641.28	16825	
641.47	14212	
641.66	15137	
641.85	16128	
642.03	16263	
642.22	14872	
642.41	14310	
642.6	15440	
642.79	14669	
642.97	13772	
643.16	14756	
643.35	15420	
643.54	15033	
643.73	13601	
643.91	14514	
644.1	14646	
644.29	15456	
644.48	13465	
644.67	13506	
644.85	14725	
645.04	15044	
645.23	12706	
645.42	13198	
645.6	14205	
645.79	15498	
645.98	12839	
646.17	11916	
646.36	13674	
646.54	14257	
646.73	13257	
646.92	12177	
647.11	13691	
647.29	14741	
647.48	12225	
647.67	11886	
647.86	14911	
648.05	15242	
648.23	12514	
648.42	13973	
648.61	14450	
648.8	14264	
648.98	12121	
649.17	12640	
649.36	13880	
649.55	13356	
649.73	12265	
649.92	13078	
650.11	13727	
650.3	14051	
650.48	12347	
650.67	12129	
650.86	14268	
651.05	13120	
651.23	12309	
651.42	12179	
651.61	13710	
651.79	13776	
651.98	12551	
652.17	12112	
652.36	13963	
652.54	13192	
652.73	12003	
652.92	11853	
653.11	14027	
653.29	14023	
653.48	11077	
653.67	12174	
653.85	13633	
654.04	14768	
654.23	12212	
654.42	11547	
654.6	12745	
654.79	13429	
654.98	10905	
655.16	11408	
655.35	12123	
655.54	12154	
655.73	10955	
655.91	10921	
656.1	13523	
656.29	12477	
656.47	10580	
656.66	12539	
656.85	12669	
657.03	12983	
657.22	11411	
657.41	11536	
657.59	13065	
657.78	12929	
657.97	11125	
658.16	11908	
658.34	13762	
658.53	14119	
658.72	12985	
658.9	13364	
659.09	13148	
659.28	13323	
659.46	11669	
659.65	11752	
659.84	13033	
660.02	13463	
660.21	11609	
660.4	11509	
660.58	13978	
660.77	13439	
660.96	12153	
661.14	11062	
661.33	14582	
661.52	14343	
661.7	10962	
661.89	14988	
662.08	12882	
662.26	12451	
662.45	11394	
662.64	11382	
662.82	13667	
663.01	12778	
663.2	11442	
663.38	12263	
663.57	13411	
663.75	13308	
663.94	11762	
664.13	13093	
664.31	12732	
664.5	13474	
664.69	11882	
664.87	12610	
665.06	12527	
665.25	13337	
665.43	12854	
665.62	12850	
665.8	13552	
665.99	12782	
666.18	11779	
666.36	11835	
666.55	13434	
666.74	13497	
666.92	11202	
667.11	13030	
667.29	12887	
667.48	13523	
667.67	12611	
667.85	11690	
668.04	12845	
668.22	12851	
668.41	11725	
668.6	11825	
668.78	12652	
668.97	12881	
669.15	12017	
669.34	10897	
669.53	12545	
669.71	12933	
669.9	11157	
670.08	11848	
670.27	12665	
670.46	13140	
670.64	12075	
670.83	12410	
671.01	12409	
671.2	13031	
671.38	11305	
671.57	11039	
671.76	13813	
671.94	14367	
672.13	11012	
672.31	12144	
672.5	13282	
672.69	12648	
672.87	11234	
673.06	11534	
673.24	13173	
673.43	12566	
673.61	12048	
673.8	11474	
673.98	13244	
674.17	13502	
674.36	12193	
674.54	11950	
674.73	12992	
674.91	13320	
675.1	11702	
675.28	11258	
675.47	12826	
675.65	13495	
675.84	11470	
676.03	11895	
676.21	12613	
676.4	12097	
676.58	12319	
676.77	12147	
676.95	14131	
677.14	12507	
677.32	11060	
677.51	10978	
677.69	13347	
677.88	12172	
678.06	11015	
678.25	11099	
678.44	12884	
678.62	12422	
678.81	10660	
678.99	11950	
679.18	13663	
679.36	13188	
679.55	11385	
679.73	12020	
679.92	13192	
680.1	12469	
680.29	12671	
680.47	11396	
680.66	12474	
680.84	13473	
681.03	10593	
681.21	11787	
681.4	12430	
681.58	12311	
681.77	11009	
681.95	10989	
682.14	13319	
682.32	13778	
682.51	12066	
682.69	10774	
682.88	12349	
683.06	12927	
683.25	11569	
683.43	12000	
683.62	12516	
683.8	13024	
683.99	12022	
684.17	11154	
684.36	13377	
684.54	11888	
684.73	9729.2	
684.91	9838.4	
685.1	11797	
685.28	11016	
685.46	10206	
685.65	10171	
685.83	11814	
686.02	11294	
686.2	9628.2	
686.39	9836.4	
686.57	11172	
686.76	12814	
686.94	9855.5	
687.13	10118	
687.31	11845	
687.5	11542	
687.68	9486.2	
687.86	11015	
688.05	13255	
688.23	10963	
688.42	10994	
688.6	10316	
688.79	11617	
688.97	11680	
689.16	10690	
689.34	9613.2	
689.52	12566	
689.71	12522	
689.89	11096	
690.08	10253	
690.26	11896	
690.45	11800	
690.63	11003	
690.81	10254	
691	11400	
691.18	11340	
691.37	10297	
691.55	12639	
691.74	11241	
691.92	13481	
692.1	10306	
692.29	9774.3	
692.47	11568	
692.66	10774	
692.84	9952.4	
693.02	10675	
693.21	11071	
693.39	11581	
693.58	10897	
693.76	10335	
693.94	13104	
694.13	13005	
694.31	10350	
694.5	11708	
694.68	11742	
694.86	12170	
695.05	11142	
695.23	11054	
695.42	12614	
695.6	15076	
695.78	11604	
695.97	10597	
696.15	12521	
696.34	11839	
696.52	10304	
696.7	11107	
696.89	12114	
697.07	11366	
697.25	10817	
697.44	12600	
697.62	12019	
697.81	12235	
697.99	10412	
698.17	10998	
698.36	11120	
698.54	11882	
698.72	10830	
698.91	9753.8	
699.09	11366	
699.28	11320	
699.46	10389	
699.64	10202	
699.83	11254	
700.01	12506	
700.19	11140	
700.38	9551.7	
700.56	12678	
700.74	11537	
700.93	10037	
701.11	10944	
701.29	12106	
701.48	13377	
701.66	10349	
701.84	10470	
702.03	11658	
702.21	12399	
702.39	9889	
702.58	10639	
702.76	12230	
702.94	12272	
703.13	9882.1	
703.31	12432	
703.49	11383	
703.68	12568	
703.86	10032	
704.04	11195	
704.23	11983	
704.41	12418	
704.59	10230	
704.78	11629	
704.96	13185	
705.14	12406	
705.33	10092	
705.51	10819	
705.69	11707	
705.87	12597	
706.06	11294	
706.24	9994.1	
706.42	12151	
706.61	12416	
706.79	11170	
706.97	10065	
707.16	11391	
707.34	12103	
707.52	11199	
707.7	10275	
707.89	11671	
708.07	11338	
708.25	11131	
708.44	11342	
708.62	11495	
708.8	12618	
708.98	11341	
709.17	10288	
709.35	11899	
709.53	11912	
709.72	9921.7	
709.9	10062	
710.08	12017	
710.26	12265	
710.45	11578	
710.63	10177	
710.81	11697	
710.99	11607	
711.18	10783	
711.36	10208	
711.54	11403	
711.72	12042	
711.91	10217	
712.09	9312.8	
712.27	11311	
712.45	12075	
712.64	10125	
712.82	8991.9	
713	10393	
713.18	10522	
713.37	8808.3	
713.55	9910.8	
713.73	11127	
713.91	9424.8	
714.1	8628.1	
714.28	7953.6	
714.46	10051	
714.64	9138.7	
714.83	6954.9	
715.01	7737.2	
715.19	8931.9	
715.37	8255.4	
715.55	7333.8	
715.74	7569.3	
715.92	9854.8	
716.1	7631.4	
716.28	8691.6	
716.47	7660.1	
716.65	8234.9	
716.83	8434.2	
717.01	7478.5	
717.19	7637.6	
717.38	10748	
717.56	8164.6	
717.74	7987.8	
717.92	7066.9	
718.1	9727.9	
718.29	8943.5	
718.47	6997.2	
718.65	7841	
718.83	9964.7	
719.01	9897.8	
719.2	7051.2	
719.38	8303.8	
719.56	9581.8	
719.74	11199	
719.92	7692.9	
720.11	8687.5	
720.29	9377	
720.47	8417.2	
720.65	6892.1	
720.83	7864.9	
721.02	8512	
721.2	8215.1	
721.38	7633.5	
721.56	6840.2	
721.74	7663.5	
721.92	7884	
722.11	8231.5	
722.29	7839.6	
722.47	9254.8	
722.65	8287.4	
722.83	6840.9	
723.01	7916.1	
723.2	8335.9	
723.38	8683.4	
723.56	6208.8	
723.74	7517.4	
723.92	7871.7	
724.1	9115.5	
724.29	6798.6	
724.47	8006.9	
724.65	7884.7	
724.83	7821.2	
725.01	6682.5	
725.19	7655.3	
725.37	7902.4	
725.56	7989.8	
725.74	6485.9	
725.92	6748.1	
726.1	7851.9	
726.28	8163.9	
726.46	7103	
726.64	6853.9	
726.83	8089.5	
727.01	8462.9	
727.19	6463.4	
727.37	7384.3	
727.55	8214.4	
727.73	8782.4	
727.91	6421.7	
728.09	6317.3	
728.28	8914.8	
728.46	9572.9	
728.64	7633.5	
728.82	7533.1	
729	10262	
729.18	9493.7	
729.36	6850.5	
729.54	9334	
729.72	10722	
729.91	8996	
730.09	9280	
730.27	7787.7	
730.45	8866.3	
730.63	9623.4	
730.81	8507.9	
730.99	7444.4	
731.17	10182	
731.35	8571.4	
731.53	8049.2	
731.71	7656.7	
731.9	9768.1	
732.08	10032	
732.26	7899.7	
732.44	7406.1	
732.62	9999.5	
732.8	9520.3	
732.98	8307.2	
733.16	7214.3	
733.34	9469.8	
733.52	8096.3	
733.7	7755	
733.88	8131.8	
734.07	9276.6	
734.25	9071.1	
734.43	7250.5	
734.61	8974.9	
734.79	10772	
734.97	8908	
735.15	7468.3	
735.33	7780.9	
735.51	9293.7	
735.69	8871.8	
735.87	9316.2	
736.05	8039.6	
736.23	9142.8	
736.41	8954.4	
736.59	7882.6	
736.77	7955.7	
736.95	9683.5	
737.13	9099.8	
737.32	7503.1	
737.5	7804.8	
737.68	10216	
737.86	8910.7	
738.04	7307.8	
738.22	9304.6	
738.4	8652.7	
738.58	9043.8	
738.76	7794.6	
738.94	6810.2	
739.12	8822.6	
739.3	8691.6	
739.48	8663.6	
739.66	8313.4	
739.84	9175.6	
740.02	9201.5	
740.2	6926.9	
740.38	7364.5	
740.56	9533.3	
740.74	8312.7	
740.92	8088.1	
741.1	7975.5	
741.28	8938.7	
741.46	8740.7	
741.64	7480.5	
741.82	8181.6	
742	8876.6	
742.18	8877.9	
742.36	7720.8	
742.54	7302.4	
742.72	9408.4	
742.9	8092.2	
743.08	8077.9	
743.26	6864.8	
743.44	9698.5	
743.62	9529.9	
743.8	8221.9	
743.98	7192.5	
744.16	9160.6	
744.34	8773.5	
744.52	8126.3	
744.7	8015.7	
744.88	9161.9	
745.06	8647.9	
745.24	8039.6	
745.42	8144.8	
745.6	9173.5	
745.78	8925.7	
745.96	6716	
746.14	7076.4	
746.32	10021	
746.5	9201.5	
746.68	7667.6	
746.86	7027.9	
747.03	9667.1	
747.21	7774.8	
747.39	7596.6	
747.57	7131	
747.75	8778.3	
747.93	9202.9	
748.11	7018.4	
748.29	7009.5	
748.47	10492	
748.65	8462.2	
748.83	7795.9	
749.01	7565.2	
749.19	8987.2	
749.37	8087.4	
749.55	7333.8	
749.73	7476.5	
749.91	8668.4	
750.09	8285.4	
750.26	7519.5	
750.44	6830.7	
750.62	8643.1	
750.8	8578.3	
750.98	6689.3	
751.16	7040.2	
751.34	8664.3	
751.52	7943.4	
751.7	7872.4	
751.88	6608.8	
752.06	9171.5	
752.24	8916.2	
752.42	6574.7	
752.59	6919.4	
752.77	8451.3	
752.95	9835.7	
753.13	7744.1	
753.31	7117.4	
753.49	8165.3	
753.67	8628.8	
753.85	7394.5	
754.03	6929	
754.21	8834.9	
754.38	9169.4	
754.56	6846.4	
754.74	5862.7	
754.92	7840.3	
755.1	8512	
755.28	5500.8	
755.46	5253.7	
755.64	8479.3	
755.82	8480.6	
755.99	5107	
756.17	5043.5	
756.35	5436.7	
756.53	7047.7	
756.71	3676.1	
756.89	4681.7	
757.07	6704.4	
757.25	5789.6	
757.42	5459.2	
757.6	6562.4	
757.78	7102.4	
757.96	6029.2	
758.14	5365	
758.32	4846.2	
758.5	5480.4	
758.67	6702.3	
758.85	5002.5	
759.03	5122.7	
759.21	6501.6	
759.39	5933.6	
759.57	4624.3	
759.75	5943.2	
759.92	7309.9	
760.1	6537.1	
760.28	6387.6	
760.46	6701	
760.64	6475	
760.82	6204.7	
760.99	6420.4	
761.17	5491.3	
761.35	7520.8	
761.53	6460.7	
761.71	5783.5	
761.89	6591.7	
762.06	7510.6	
762.24	7105.8	
762.42	6090	
762.6	5859.9	
762.78	7228.6	
762.96	7978.2	
763.13	6578.8	
763.31	6328.2	
763.49	8209.6	
763.67	7261.4	
763.85	7234.1	
764.02	7806.2	
764.2	8540.7	
764.38	7663.5	
764.56	6198.5	
764.74	7137.2	
764.91	8555.7	
765.09	7520.1	
765.27	5935	
765.45	5593.7	
765.63	8567.3	
765.8	8487.5	
765.98	5329.5	
766.16	5707	
766.34	6847.7	
766.52	6702.3	
766.69	6695.5	
766.87	5468.8	
767.05	7341.3	
767.23	8268.3	
767.41	5781.4	
767.58	6059.9	
767.76	7890.8	
767.94	7955.7	
768.12	5822.4	
768.29	6716	
768.47	7281.9	
768.65	8073.1	
768.83	5440.8	
769	6608.1	
769.18	6776.7	
769.36	7512.6	
769.54	6370.5	
769.72	5378.6	
769.89	7708.6	
770.07	7942	
770.25	5679	
770.43	7086	
770.6	8602.2	
770.78	9065	
770.96	5819	
771.14	6508.4	
771.31	7658.7	
771.49	6880.5	
771.67	4919.9	
771.85	5168.4	
772.02	6099.5	
772.2	6862.7	
772.38	5933	
772.55	5408	
772.73	7115.3	
772.91	6793.1	
773.09	5673.6	
773.26	5927.5	
773.44	6987.7	
773.62	6796.5	
773.8	5211.4	
773.97	4836.6	
774.15	7061.4	
774.33	6635.4	
774.5	5061.9	
774.68	5399.8	
774.86	7165.8	
775.04	6571.2	
775.21	5043.5	
775.39	5073.5	
775.57	6888	
775.74	7349.5	
775.92	4853	
776.1	4762.2	
776.27	6802	
776.45	8044.4	
776.63	5054.4	
776.81	4432.5	
776.98	6346	
777.16	7562.5	
777.34	5068.7	
777.51	5389.6	
777.69	6319.3	
777.87	6115.9	
778.04	5019.6	
778.22	5820.3	
778.4	6074.3	
778.57	6782.9	
778.75	4255.7	
778.93	4609.3	
779.1	5868.8	
779.28	5720.7	
779.46	4287.8	
779.64	4805.2	
779.81	6949.4	
779.99	7866.2	
780.17	5698.8	
780.34	5739.1	
780.52	6219.7	
780.69	6479.8	
780.87	5099.4	
781.05	4639.3	
781.22	6287.9	
781.4	6379.4	
781.58	4744.5	
781.75	3878.2	
781.93	6279.8	
782.11	5681.1	
782.28	5641.5	
782.46	4682.3	
782.64	5511.1	
782.81	6463.4	
782.99	4749.9	
783.17	4690.5	
783.34	6338.5	
783.52	5484.5	
783.69	4985.4	
783.87	5812.8	
784.05	5515.2	
784.22	5597.1	
784.4	5786.9	
784.58	4949.3	
784.75	6522.8	
784.93	5532.2	
785.1	4611.3	
785.28	5324.7	
785.46	6203.3	
785.63	5483.1	
785.81	4547.9	
785.99	4347.8	
786.16	5582.8	
786.34	5990.3	
786.51	4407.2	
786.69	4888.5	
786.87	5273.5	
787.04	5809.4	
787.22	3803.1	
787.39	5222.3	
787.57	5477.6	
787.75	6623.1	
787.92	5403.2	
788.1	5317.9	
788.27	5533.6	
788.45	5182.7	
788.63	5059.2	
788.8	3680.2	
788.98	5844.2	
789.15	5153.4	
789.33	3862.5	
789.5	4535.6	
789.68	6442.2	
789.86	6555.5	
790.03	4992.3	
790.21	4296.6	
790.38	6352.1	
790.56	5577.3	
790.73	4085	
790.91	4209.9	
791.09	5396.4	
791.26	6184.9	
791.44	4389.5	
791.61	3814	
791.79	5362.3	
791.96	5476.3	
792.14	3964.9	
792.32	3473.4	
792.49	5379.3	
792.67	5517.9	
792.84	3993.5	
793.02	3825.6	
793.19	5831.9	
793.37	6731	
793.54	3532.1	
793.72	3913	
793.89	6706.4	
794.07	5368.4	
794.25	4558.8	
794.42	3540.3	
794.6	6457.9	
794.77	6059.3	
794.95	4780.6	
795.12	4176.5	
795.3	5293.3	
795.47	5994.4	
795.65	4610.7	
795.82	4424.3	
796	5107.6	
796.17	7247.1	
796.35	4283.7	
796.52	5045.5	
796.7	5899.5	
796.87	6041.5	
797.05	5285.8	
797.22	5213.4	
797.4	5933.6	
797.57	7066.9	
797.75	4350.6	
797.92	4091.2	
798.1	6289.3	
798.27	5325.4	
798.45	3528.7	
798.62	3818.1	
798.8	5659.9	
798.97	6150.1	
799.15	4605.2	
799.32	4431.8	
799.5	4833.9	
799.67	5694.7	
799.85	4771.1	
800.02	3434.4	
800.2	5257.1	
800.37	5652.4	
800.55	4952	
800.72	4119.8	
800.9	6152.1	
801.07	6568.5	
801.25	5500.8	
801.42	4515.1	
801.6	6106.4	
801.77	5853.8	
801.95	4076.1	
802.12	4008.6	
802.29	5851.7	
802.47	5763	
802.64	4470.7	
802.82	3405.1	
802.99	5233.9	
803.17	6363.7	
803.34	4311.7	
803.52	3923.2	
803.69	7005.4	
803.87	4986.1	
804.04	4341.7	
804.21	4433.9	
804.39	6410.8	
804.56	5444.9	
804.74	3663.1	
804.91	4519.2	
805.09	5279	
805.26	5362.3	
805.44	3725.3	
805.61	4089.1	
805.78	5939.8	
805.96	6027.2	
806.13	4534.2	
806.31	4838	
806.48	4768.4	
806.66	5296	
806.83	4385.4	
807	4315.1	
807.18	5216.9	
807.35	5630.5	
807.53	4275.5	
807.7	3407.8	
807.87	6461.3	
808.05	5272.8	
808.22	4797	
808.4	3424.2	
808.57	5300.1	
808.74	4844.8	
808.92	3926	
809.09	4938.3	
809.27	5061.9	
809.44	5791	
809.61	3443.3	
809.79	3867.9	
809.96	6462	
810.14	6068.1	
810.31	3357.3	
810.48	4156	
810.66	5292	
810.83	6136.4	
811.01	3999.7	
811.18	4713.7	
811.35	6004	
811.53	4678.9	
811.7	4799.8	
811.87	4457.1	
812.05	5262.6	
812.22	5123.3	
812.39	3806.5	
812.57	3663.8	
812.74	5174.5	
812.92	7035.5	
813.09	4189.5	
813.26	4543.1	
813.44	6774	
813.61	5100.1	
813.78	3431.7	
813.96	4620.2	
814.13	5214.8	
814.3	4853.7	
814.48	5068	
814.65	4099.4	
814.82	6508.4	
815	5044.1	
815.17	4333.5	
815.34	5232.6	
815.52	5156.8	
815.69	5173.9	
815.87	4298	
816.04	3705.5	
816.21	5250.3	
816.38	4556.7	
816.56	4138.3	
816.73	3792.8	
816.9	6662.7	
817.08	6061.3	
817.25	3832.4	
817.42	4832.5	
817.6	4790.2	
817.77	5273.5	
817.94	4349.9	
818.12	3792.2	
818.29	4940.4	
818.46	7890.8	
818.64	3933.5	
818.81	3731.4	
818.98	4853.7	
819.16	7188.4	
819.33	4642.7	
819.5	4248.9	
819.67	5645.6	
819.85	6284.5	
820.02	4193.6	
820.19	4476.9	
820.37	5481	
820.54	4990.9	
820.71	4306.2	
820.88	5414.8	
821.06	5450.3	
821.23	5005.2	
821.4	4323.9	
821.58	4286.4	
821.75	6007.4	
821.92	5393.7	
822.09	3431.7	
822.27	3597.6	
822.44	5242.1	
822.61	5151.3	
822.79	3497.9	
822.96	6777.4	
823.13	5756.2	
823.3	4967	
823.48	4056.3	
823.65	3614.7	
823.82	5917.9	
823.99	4762.2	
824.17	5111.7	
824.34	3675.4	
824.51	6937.2	
824.68	5357.5	
824.86	3859.1	
825.03	4388.8	
825.2	5168.4	
825.37	6356.2	
825.55	3820.1	
825.72	4266.6	
825.89	7053.2	
826.06	6431.3	
826.24	4165.6	
826.41	4197	
826.58	6386.9	
826.75	5556.8	
826.92	3219.4	
827.1	3618.1	
827.27	8855.4	
827.44	6948.1	
827.61	3976.5	
827.79	4711.7	
827.96	4962.9	
828.13	5320.6	
828.3	4140.3	
828.47	3446	
828.65	5474.9	
828.82	5452.4	
828.99	5388.9	
829.16	4724.7	
829.34	5899.5	
829.51	5630.5	
829.68	4298	
829.85	4418.2	
830.02	6157.6	
830.2	5885.9	
830.37	3298.6	
830.54	5219.6	
830.71	6764.4	
830.88	5208.7	
831.05	3313.6	
831.23	3837.2	
831.4	6365.8	
831.57	7286.7	
831.74	3995.6	
831.91	3432.4	
832.09	5451	
832.26	5854.5	
832.43	4072.7	
832.6	4635.9	
832.77	5517.2	
832.94	6326.2	
833.12	3231.7	
833.29	4029	
833.46	5683.8	
833.63	7527	
833.8	4421.6	
833.97	4120.5	
834.15	5892	
834.32	5635.3	
834.49	4293.9	
834.66	4373.1	
834.83	6155.5	
835	4912.4	
835.17	3962.1	
835.35	3960.8	
835.52	5826.5	
835.69	5638.1	
835.86	4251.6	
836.03	3436.5	
836.2	5837.4	
836.37	5371.8	
836.55	4105.5	
836.72	3869.3	
836.89	5382.7	
837.06	5861.3	
837.23	4150.6	
837.4	4572.4	
837.57	6748.7	
837.75	7509.9	
837.92	3720.5	
838.09	3950.5	
838.26	5395	
838.43	6179.4	
838.6	4364.9	
838.77	3814.7	
838.94	7100.3	
839.11	6772.6	
839.29	4126.7	
839.46	3287	
839.63	5803.9	
839.8	5577.3	
839.97	3974.4	
840.14	4001.7	
840.31	5582.8	
840.48	5827.8	
840.65	3254.9	
840.82	3887.7	
841	5813.5	
841.17	5817.6	
841.34	3721.2	
841.51	3678.2	
841.68	5756.8	
841.85	5554.1	
842.02	3786.7	
842.19	3125.9	
842.36	5628.5	
842.53	5520.6	
842.7	3672	
842.87	4541.7	
843.05	7389.8	
843.22	5489.2	
843.39	3491.8	
843.56	3788.1	
843.73	5238	
843.9	5930.9	
844.07	6075	
844.24	5001.8	
844.41	8733.9	
844.58	5033.9	
844.75	3493.2	
844.92	3816.7	
845.09	5832.6	
845.26	5829.2	
845.43	3633.8	
845.6	3827.7	
845.77	5842.2	
845.94	5555.5	
846.12	4056.3	
846.29	4285.7	
846.46	6049.7	
846.63	5816.9	
846.8	3639.9	
846.97	4352.6	
847.14	6361.7	
847.31	5805.3	
847.48	4119.1	
847.65	4521.2	
847.82	6147.3	
847.99	6130.9	
848.16	4941.1	
848.33	4531.5	
848.5	5381.4	
848.67	6322.8	
848.84	3629.7	
849.01	3795.6	
849.18	5184.1	
849.35	4829.8	
849.52	4605.2	
849.69	3568.2	
849.86	6070.9	
850.03	6264.1	
850.2	3651.5	
850.37	4449.6	
850.54	6285.2	
850.71	5430.5	
850.88	4388.8	
851.05	3577.1	
851.22	5732.9	
851.39	6439.5	
851.56	3422.8	
851.73	4204.5	
851.9	5130.2	
852.07	6053.1	
852.24	4021.5	
852.41	3636.5	
852.58	5667.4	
852.75	5159.5	
852.92	4038.6	
853.09	3548.4	
853.26	5388.2	
853.43	6316.6	
853.6	3575.1	
853.77	3065.1	
853.94	6417.7	
854.11	5085.1	
854.28	5356.1	
854.44	3923.9	
854.61	6855.9	
854.78	5951.4	
854.95	3624.9	
855.12	4556	
855.29	4656.4	
855.46	6575.3	
855.63	3629	
855.8	5040.1	
855.97	5347.2	
856.14	6150.7	
856.31	5164.3	
856.48	3898.6	
856.65	5388.2	
856.82	5068.7	
856.99	3445.4	
857.16	3913	
857.33	7157.7	
857.49	5455.1	
857.66	3935.5	
857.83	4215.4	
858	5399.1	
858.17	5618.9	
858.34	3411.9	
858.51	3633.8	
858.68	6567.2	
858.85	6626.5	
859.02	4207.2	
859.19	4492.6	
859.36	5025	
859.52	5099.4	
859.69	3644	
859.86	4278.2	
860.03	5173.9	
860.2	6456.6	
860.37	3298.6	
860.54	3609.2	
860.71	5995.8	
860.88	6556.2	
861.05	4141	
861.21	4539.7	
861.38	6524.1	
861.55	4978.6	
861.72	3295.9	
861.89	4098.7	
862.06	6214.2	
862.23	6621.8	
862.4	3506.1	
862.56	3758.7	
862.73	5892.7	
862.9	5615.5	
863.07	4292.5	
863.24	3259.7	
863.41	4969.1	
863.58	5108.3	
863.75	3700	
863.91	4219.5	
864.08	6466.8	
864.25	6010.8	
864.42	4555.4	
864.59	5064.6	
864.76	6847.7	
864.93	5127.4	
865.09	3515	
865.26	3921.9	
865.43	6342.6	
865.6	6774.7	
865.77	3117.7	
865.94	3569.6	
866.1	6404.7	
866.27	6149.4	
866.44	5426.4	
866.61	3414.6	
866.78	5520	
866.95	5963	
867.11	3521.1	
867.28	3196.2	
867.45	6202.6	
867.62	5184.1	
867.79	4215.4	
867.96	3586	
868.12	5078.3	
868.29	6058.6	
868.46	3291.1	
868.63	4820.2	
868.8	6264.1	
868.97	6035.4	
869.13	3710.2	
869.3	3808.5	
869.47	5942.5	
869.64	6172.6	
869.81	3599.6	
869.97	3642.7	
870.14	5832.6	
870.31	6521.4	
870.48	3508.2	
870.65	4531.5	
870.81	5433.9	
870.98	5400.5	
871.15	4087.1	
871.32	3716.4	
871.48	5907	
871.65	6623.8	
871.82	3593.5	
871.99	4006.5	
872.16	7002.7	
872.32	6391.7	
872.49	3623.5	
872.66	3700.7	
872.83	6112.5	
872.99	5301.5	
873.16	4184	
873.33	3607.8	
873.5	5621.7	
873.67	5679	
873.83	3793.5	
874	4853	
874.17	5811.5	
874.34	6984.3	
874.5	4787.5	
874.67	4569	
874.84	6511.2	
875.01	5058.5	
875.17	5182.7	
875.34	3573	
875.51	5709.7	
875.68	6970.6	
875.84	4343.7	
876.01	5328.8	
876.18	6057.9	
876.34	5938.4	
876.51	3639.2	
876.68	3480.9	
876.85	5484.5	
877.01	6283.9	
877.18	5254.4	
877.35	3581.9	
877.52	5560.2	
877.68	4991.6	
877.85	3523.2	
878.02	3534.8	
878.18	5606.7	
878.35	5260.5	
878.52	2876.7	
878.69	4065.2	
878.85	6025.1	
879.02	6028.5	
879.19	5126.7	
879.35	3949.2	
879.52	5998.5	
879.69	6222.4	
879.86	3089.7	
880.02	4080.9	
880.19	5556.1	
880.36	6733.7	
880.52	4141	
880.69	4314.4	
880.86	6153.5	
881.02	6176.7	
881.19	4005.8	
881.36	3937.6	
881.52	5960.3	
881.69	5264.6	
881.86	3835.2	
882.02	3846.8	
882.19	6314.6	
882.36	7405.5	
882.52	3728	
882.69	5170.4	
882.86	5795.1	
883.02	5704.3	
883.19	4428.4	
883.36	4200.4	
883.52	6118	
883.69	6993.1	
883.86	3627	
884.02	3234.4	
884.19	6072.9	
884.36	5573.9	
884.52	4134.2	
884.69	3814.7	
884.86	5269.4	
885.02	6711.2	
885.19	4027.7	
885.36	4181.3	
885.52	5559.6	
885.69	5781.4	
885.86	5270.1	
886.02	4651.6	
886.19	6034.7	
886.35	5368.4	
886.52	4065.9	
886.69	5070.8	
886.85	5145.9	
887.02	6526.2	
887.19	6526.2	
887.35	6526.2	
887.52	6526.2	
887.68	6526.2	
887.85	6526.2	
888.02	6526.2	
888.18	6526.2	
888.35	6526.2	
888.51	6526.2	
888.68	6526.2	
888.85	6526.2	
889.01	6526.2	
889.18	6526.2	
889.35	6526.2	
889.51	6526.2	
889.68	6526.2	
889.84	6526.2	
890.01	6526.2	
890.17	6526.2	
890.34	6526.2	
890.51	6526.2	
890.67	6526.2	
890.84	6526.2	
891	6526.2	
891.17	6526.2	
891.34	6526.2	
891.5	6526.2	
891.67	6526.2	
891.83	6526.2	
892	6526.2	
892.16	6526.2	
892.33	6526.2	
892.5	6526.2	
892.66	6526.2	
892.83	6526.2	
892.99	6526.2	
893.16	6526.2	
893.32	6526.2	
893.49	6526.2	
893.65	6526.2	
893.82	6526.2	
893.99	6526.2	
894.15	6526.2	
894.32	6526.2	
894.48	6526.2	
894.65	6526.2	
894.81	6526.2	
894.98	6526.2	
895.14	6526.2	
895.31	6526.2	
895.47	6526.2	
895.64	6526.2	
895.81	6526.2	
895.97	6526.2	
896.14	6526.2	
896.3	6526.2	
896.47	6526.2	
896.63	6526.2	
896.8	6526.2	
896.96	6526.2	
897.13	6526.2	
897.29	6526.2	
897.46	6526.2	
897.62	6526.2	
897.79	6526.2	
897.95	6526.2	
898.12	6526.2	
898.28	6526.2	
898.45	6526.2	
898.61	6526.2	
898.78	6526.2	
898.94	6526.2	
899.11	6526.2	
899.27	6526.2	
899.44	6526.2	
899.6	6526.2	
899.77	6526.2	
899.93	6526.2	
900.1	6526.2	
900.26	6526.2	
900.43	6526.2	
900.59	6526.2	
900.76	6526.2	
900.92	6526.2	
901.09	6526.2	
901.25	6526.2	
901.42	6526.2	
901.58	6526.2	
901.75	6526.2	
901.91	6526.2	
902.07	6526.2	
902.24	6526.2	
902.4	6526.2	
902.57	6526.2	
902.73	6526.2	
902.9	6526.2	
903.06	6526.2	
903.23	6526.2	
903.39	6526.2	
903.56	6526.2	
903.72	6526.2	
903.88	6526.2	
904.05	6526.2	
904.21	6526.2	
904.38	6526.2	
904.54	6526.2	
904.71	6526.2	
904.87	6526.2	
905.03	6526.2	
905.2	6526.2	
905.36	6526.2	
905.53	6526.2	
905.69	6526.2	
905.86	6526.2	
906.02	6526.2	
906.18	6526.2	
906.35	6526.2	
906.51	6526.2	
906.68	6526.2	
906.84	6526.2	
907.01	6526.2	
907.17	6526.2	
907.33	6526.2	
907.5	6526.2	
907.66	6526.2	
907.83	6526.2	
907.99	6526.2	
908.15	6526.2	
908.32	6526.2	
908.48	6526.2	
908.65	6526.2	
908.81	6526.2	
908.97	6526.2	
909.14	6526.2	
909.3	6526.2	
909.47	6526.2	
909.63	6526.2	
909.79	6526.2	
909.96	6526.2	
910.12	6526.2	
910.28	6526.2	
910.45	6526.2	
910.61	6526.2	
910.78	6526.2	
910.94	6526.2	
911.1	6526.2	
911.27	6526.2	
911.43	6526.2	
911.59	6526.2	
911.76	6526.2	
911.92	6526.2	
912.08	6526.2	
912.25	6526.2	
912.41	6526.2	
912.57	6526.2	
912.74	6526.2	
912.9	6526.2	
913.07	6526.2	
913.23	6526.2	
913.39	6526.2	
913.56	6526.2	
913.72	6526.2	
913.88	6526.2	
914.05	6526.2	
914.21	6526.2	
914.37	6526.2	
914.54	6526.2	
914.7	6526.2	
914.86	6526.2	
915.03	6526.2	
915.19	6526.2	
