Wavelength	Intensities	
nm	a.u.	
179.22	1933.8	
179.44	1936.4	
179.65	1931.2	
179.86	1941.5	
180.08	1936.7	
180.29	5092.6	
180.51	3620.1	
180.72	5777.3	
180.94	6801.3	
181.15	3393.5	
181.37	3266.5	
181.58	5689.3	
181.79	5940.5	
182.01	3446.7	
182.22	3757.3	
182.44	5950	
182.65	4936.3	
182.87	4704.9	
183.08	4104.1	
183.29	6213.5	
183.51	5134.3	
183.72	3779.9	
183.94	5557.5	
184.15	5571.2	
184.37	5588.2	
184.58	3292.5	
184.79	4470	
185.01	5096	
185.22	5917.3	
185.44	4834.6	
185.65	4117.8	
185.86	5467.4	
186.08	4992.9	
186.29	3201	
186.51	3430.3	
186.72	5184.1	
186.94	6055.2	
187.15	4069.3	
187.36	4123.2	
187.58	8017.8	
187.79	5634.6	
188.01	4403.8	
188.22	6855.9	
188.43	6817.7	
188.65	5883.1	
188.86	3410.6	
189.08	4186.7	
189.29	5285.8	
189.5	5354.1	
189.72	3866.6	
189.93	3972.4	
190.15	6040.8	
190.36	7367.2	
190.57	4296	
190.79	4179.2	
191	6209.4	
191.22	6190.3	
191.43	4250.9	
191.64	3393.5	
191.86	6416.3	
192.07	6124.8	
192.29	3636.5	
192.5	3843.4	
192.71	6093.4	
192.93	5252.4	
193.14	3800.3	
193.35	3915.7	
193.57	5312.4	
193.78	6092.7	
194	3062.4	
194.21	3718.4	
194.42	4986.1	
194.64	5555.5	
194.85	4194.2	
195.07	4879.6	
195.28	5625.8	
195.49	4761.5	
195.71	5156.1	
195.92	3607.8	
196.13	5785.5	
196.35	5875.6	
196.56	5454.4	
196.78	4138.3	
196.99	7223.9	
197.2	6787.7	
197.42	4803.9	
197.63	4218.8	
197.84	4939.7	
198.06	5728.9	
198.27	3833.8	
198.48	5199.8	
198.7	5244.8	
198.91	5445.5	
199.13	4201.7	
199.34	4213.4	
199.55	5965.1	
199.77	4775.2	
199.98	3646.7	
200.19	4240.7	
200.41	5332.2	
200.62	5103.5	
200.83	4454.3	
201.05	4745.1	
201.26	5412.8	
201.47	5132.2	
201.69	3709.6	
201.9	3583.3	
202.11	5498.8	
202.33	6578.8	
202.54	3958.7	
202.76	4404.5	
202.97	5653.1	
203.18	5659.2	
203.4	4418.8	
203.61	4173.1	
203.82	5595.1	
204.04	5217.5	
204.25	4260.5	
204.46	4174.4	
204.68	5539.1	
204.89	5780.1	
205.1	4122.6	
205.32	3552.5	
205.53	5970.5	
205.74	6044.2	
205.96	3008.5	
206.17	4373.8	
206.38	5966.4	
206.6	6079.7	
206.81	4831.8	
207.02	3941.7	
207.24	5767.8	
207.45	6206.7	
207.66	4013.3	
207.88	3378.5	
208.09	5752.1	
208.3	5538.4	
208.52	3641.3	
208.73	4070	
208.94	5481.7	
209.15	6311.2	
209.37	3988.1	
209.58	4194.9	
209.79	6139.8	
210.01	5303.6	
210.22	3151.1	
210.43	3312.2	
210.65	5563	
210.86	5983.5	
211.07	4047.5	
211.29	3645.4	
211.5	5938.4	
211.71	5474.9	
211.93	3678.8	
212.14	3637.9	
212.35	5507	
212.56	5735	
212.78	4261.8	
212.99	3483.6	
213.2	6611.5	
213.42	5295.4	
213.63	3766.2	
213.84	4113	
214.06	4880.3	
214.27	4991.6	
214.48	4038.6	
214.69	4328	
214.91	6249	
215.12	6285.9	
215.33	4364.9	
215.55	4782.7	
215.76	6823.8	
215.97	5924.8	
216.18	4157.4	
216.4	4056.3	
216.61	5199.1	
216.82	6063.4	
217.04	3670.6	
217.25	3858.4	
217.46	6248.4	
217.67	5931.6	
217.89	3260.4	
218.1	3394.2	
218.31	5622.4	
218.53	5672.2	
218.74	3867.2	
218.95	3736.9	
219.16	5462.6	
219.38	6490.7	
219.59	3743.7	
219.8	4487.1	
220.01	7253.9	
220.23	5576.6	
220.44	4937.7	
220.65	3709.6	
220.87	5652.4	
221.08	6190.3	
221.29	3336.8	
221.5	4554.7	
221.72	7602.7	
221.93	5273.5	
222.14	4307.6	
222.35	5035.3	
222.57	5675.6	
222.78	5907.7	
222.99	4028.4	
223.2	4375.1	
223.42	5870.8	
223.63	5966.4	
223.84	3080.1	
224.05	3070.6	
224.27	7169.9	
224.48	6496.2	
224.69	5033.9	
224.9	4232.5	
225.12	5823.7	
225.33	5535.7	
225.54	3371	
225.75	3717.1	
225.97	5107	
226.18	5370.5	
226.39	4061.8	
226.6	3798.3	
226.82	5287.9	
227.03	5153.4	
227.24	4243.4	
227.45	3523.9	
227.67	5950.7	
227.88	6583.5	
228.09	4666	
228.3	4755.4	
228.52	6047.7	
228.73	5565	
228.94	3943	
229.15	3424.2	
229.36	5471.5	
229.58	5323.4	
229.79	3936.9	
230	4616.8	
230.21	6629.3	
230.43	5684.5	
230.64	4139.6	
230.85	4374.5	
231.06	5982.8	
231.28	6006.7	
231.49	3464.5	
231.7	4104.1	
231.91	5858.6	
232.12	5606.7	
232.34	3494.5	
232.55	4071.4	
232.76	6265.4	
232.97	5736.4	
233.18	3690.4	
233.4	4177.2	
233.61	5823.1	
233.82	5280.3	
234.03	3850.2	
234.25	3781.9	
234.46	7856.7	
234.67	5579.3	
234.88	4336.9	
235.09	3756.7	
235.31	5973.9	
235.52	5453.1	
235.73	4203.1	
235.94	3492.5	
236.15	5206.6	
236.37	6779.5	
236.58	3691.1	
236.79	4037.2	
237	5892.7	
237.21	5025	
237.43	4328.7	
237.64	3404.4	
237.85	10237	
238.06	5132.2	
238.27	4405.2	
238.48	3466.5	
238.7	5864	
238.91	5406.6	
239.12	3988.1	
239.33	4067.3	
239.54	5101.5	
239.76	5504.9	
239.97	3952.6	
240.18	4007.2	
240.39	7090.1	
240.6	5795.8	
240.82	4118.5	
241.03	3439.2	
241.24	5558.2	
241.45	6451.1	
241.66	3663.8	
241.87	4345.8	
242.09	6261.3	
242.3	6731	
242.51	4443.4	
242.72	4044.1	
242.93	6034	
243.14	5459.9	
243.36	4704.2	
243.57	5051.7	
243.78	6496.8	
243.99	5967.1	
244.2	4071.4	
244.41	3674.7	
244.63	5041.4	
244.84	5801.2	
245.05	4330.8	
245.26	3992.2	
245.47	5825.1	
245.68	6182.1	
245.9	5442.8	
246.11	4286.4	
246.32	5341.8	
246.53	5811.5	
246.74	6623.8	
246.95	3361.4	
247.16	5052.3	
247.38	5529.5	
247.59	3363.4	
247.8	4111	
248.01	5206.6	
248.22	5466	
248.43	3716.4	
248.64	3950.5	
248.86	4875.5	
249.07	5276.3	
249.28	3549.1	
249.49	4116.4	
249.7	6119.3	
249.91	6325.5	
250.12	3353.2	
250.34	3453.6	
250.55	5687.2	
250.76	5539.8	
250.97	4166.9	
251.18	4141.7	
251.39	6300.9	
251.6	5712.5	
251.81	4360.1	
252.03	4285.7	
252.24	5377.3	
252.45	6126.2	
252.66	3431.7	
252.87	4495.3	
253.08	5571.8	
253.29	7428.7	
253.5	3476.1	
253.72	4921.3	
253.93	5382.7	
254.14	6609.5	
254.35	3791.5	
254.56	3966.2	
254.77	5812.8	
254.98	5111.7	
255.19	3759.4	
255.41	4916.5	
255.62	5699.5	
255.83	6301.6	
256.04	4351.9	
256.25	4249.5	
256.46	6877.1	
256.67	5299.5	
256.88	4143.7	
257.09	4749.2	
257.31	5206.6	
257.52	5288.5	
257.73	5289.9	
257.94	3779.2	
258.15	5384.1	
258.36	5642.2	
258.57	4878.3	
258.78	3034.4	
258.99	6102.3	
259.2	5412.1	
259.41	3870	
259.63	3911.6	
259.84	6478.4	
260.05	6947.4	
260.26	5056.4	
260.47	3745.7	
260.68	6207.4	
260.89	5431.2	
261.1	4692.6	
261.31	3675.4	
261.52	6100.9	
261.73	6562.4	
261.95	4997	
262.16	4390.8	
262.37	6296.8	
262.58	6395.8	
262.79	4950.6	
263	3949.8	
263.21	5500.2	
263.42	5034.6	
263.63	3984.7	
263.84	3842.7	
264.05	6102.9	
264.26	6560.3	
264.47	4829.8	
264.69	4346.5	
264.9	6276.3	
265.11	5741.1	
265.32	3738.2	
265.53	3809.9	
265.74	5682.4	
265.95	4963.6	
266.16	4189.5	
266.37	4540.3	
266.58	5657.2	
266.79	5354.8	
267	3827	
267.21	3494.5	
267.42	5048.2	
267.63	5526.8	
267.84	3999.7	
268.06	3475.4	
268.27	6012.8	
268.48	6356.2	
268.69	3926	
268.9	4664.6	
269.11	6282.5	
269.32	5060.5	
269.53	4037.9	
269.74	3786.7	
269.95	5889.3	
270.16	4859.8	
270.37	4082.3	
270.58	4724	
270.79	5374.6	
271	6112.5	
271.21	4334.9	
271.42	4102.8	
271.63	5709.1	
271.84	5204.6	
272.05	3216	
272.26	3589.4	
272.47	5543.9	
272.68	5748	
272.89	3845.4	
273.11	4499.4	
273.32	5344.5	
273.53	6626.5	
273.74	4369.7	
273.95	4296.6	
274.16	6255.2	
274.37	5628.5	
274.58	4442	
274.79	3536.2	
275	5629.9	
275.21	6279.1	
275.42	5315.2	
275.63	4541.7	
275.84	5833.3	
276.05	7364.5	
276.26	4249.5	
276.47	4008.6	
276.68	5403.2	
276.89	6640.9	
277.1	4626.4	
277.31	3516.4	
277.52	5872.2	
277.73	5941.8	
277.94	3472.7	
278.15	3879.5	
278.36	5808	
278.57	5235.3	
278.78	3864.5	
278.99	4371	
279.2	5158.8	
279.41	5123.3	
279.62	5204.6	
279.83	3591.5	
280.04	6862.7	
280.25	5034.6	
280.46	5024.3	
280.67	4040	
280.88	5163.6	
281.09	6317.3	
281.3	4266.6	
281.51	5395.7	
281.72	5285.1	
281.93	6162.3	
282.14	3780.6	
282.35	4048.2	
282.56	6109.8	
282.77	5995.8	
282.98	3870.7	
283.19	4775.9	
283.4	7511.9	
283.61	5469.4	
283.82	3565.5	
284.03	5085.8	
284.24	5662	
284.45	6244.3	
284.66	5036	
284.87	4849.6	
285.08	6197.8	
285.29	6302.3	
285.5	3412.6	
285.71	3975.1	
285.92	6242.9	
286.12	6926.2	
286.33	4973.2	
286.54	3870	
286.75	6067.4	
286.96	5407.3	
287.17	3583.3	
287.38	4920.6	
287.59	5155.4	
287.8	5104.9	
288.01	3997	
288.22	4534.9	
288.43	6115.9	
288.64	5066	
288.85	4687.8	
289.06	4450.2	
289.27	6035.4	
289.48	6591.7	
289.69	5086.5	
289.9	4549.2	
290.11	6272.2	
290.32	5262.6	
290.53	4823	
290.74	4417.5	
290.94	5996.5	
291.15	6111.8	
291.36	3878.2	
291.57	4549.9	
291.78	5288.5	
291.99	4976.6	
292.2	3626.3	
292.41	4414.1	
292.62	6186.2	
292.83	5920	
293.04	5418.9	
293.25	3663.8	
293.46	5378.6	
293.67	6160.3	
293.88	3812	
294.09	3624.2	
294.29	5070.8	
294.5	5735	
294.71	4067.9	
294.92	3804.4	
295.13	5352	
295.34	6726.2	
295.55	3374.4	
295.76	3502	
295.97	6009.4	
296.18	6796.5	
296.39	3633.1	
296.6	3839.9	
296.81	5655.8	
297.01	6024.4	
297.22	4027.7	
297.43	3781.9	
297.64	5163.6	
297.85	5166.3	
298.06	3052.2	
298.27	3364.1	
298.48	5643.5	
298.69	5205.3	
298.9	4140.3	
299.11	3658.4	
299.31	5040.1	
299.52	5060.5	
299.73	4433.2	
299.94	4286.4	
300.15	5569.8	
300.36	5132.2	
300.57	4315.8	
300.78	4311.7	
300.99	5457.8	
301.2	6064.7	
301.4	3724.6	
301.61	4122.6	
301.82	5943.9	
302.03	6052.4	
302.24	4625.7	
302.45	3602.4	
302.66	5806.7	
302.87	6363.7	
303.08	3747.1	
303.29	5227.1	
303.49	5335.6	
303.7	5634.6	
303.91	3334.8	
304.12	4913.8	
304.33	5091.3	
304.54	5674.2	
304.75	3796.9	
304.96	3598.3	
305.16	5938.4	
305.37	6774	
305.58	3298.6	
305.79	3407.8	
306	5899.5	
306.21	4958.1	
306.42	3819.5	
306.63	5813.5	
306.83	5408	
307.04	6212.2	
307.25	4148.5	
307.46	4160.1	
307.67	4737.6	
307.88	6062.7	
308.09	3639.9	
308.29	3921.9	
308.5	5615.5	
308.71	6226.5	
308.92	4068.6	
309.13	3663.1	
309.34	5433.3	
309.55	5472.9	
309.75	4728.8	
309.96	4328	
310.17	6044.9	
310.38	5298.1	
310.59	4613.4	
310.8	4228.4	
311.01	6709.1	
311.21	5414.1	
311.42	3640.6	
311.63	3739.6	
311.84	5245.5	
312.05	5737.7	
312.26	4212	
312.46	4680.3	
312.67	5379.3	
312.88	5083.7	
313.09	3679.5	
313.3	3575.1	
313.51	6425.2	
313.71	6877.1	
313.92	3661.1	
314.13	3896.6	
314.34	5797.8	
314.55	5423.7	
314.76	4690.5	
314.96	4048.2	
315.17	5685.2	
315.38	5958.9	
315.59	3676.8	
315.8	3438.5	
316.01	6498.9	
316.21	6543.3	
316.42	3507.5	
316.63	4014	
316.84	5456.5	
317.05	6325.5	
317.26	4355.3	
317.46	3864.5	
317.67	5520	
317.88	6046.3	
318.09	4638.6	
318.3	3399.6	
318.5	5256.5	
318.71	5889.3	
318.92	6046.3	
319.13	4270	
319.34	6019	
319.54	6221.7	
319.75	3410.6	
319.96	3229.6	
320.17	5976	
320.38	6160.3	
320.58	3336.8	
320.79	3989.4	
321	6120.7	
321.21	6253.1	
321.42	4048.8	
321.62	3334.1	
321.83	5120.6	
322.04	5603.2	
322.25	3852.9	
322.46	3708.2	
322.66	5743.9	
322.87	5856.5	
323.08	4575.8	
323.29	3592.8	
323.5	6711.2	
323.7	5055.8	
323.91	5006.6	
324.12	4500.1	
324.33	5578.7	
324.53	5860.6	
324.74	4394.9	
324.95	4573.8	
325.16	4952	
325.37	5411.4	
325.57	3683.6	
325.78	3762.8	
325.99	5638.1	
326.2	5057.1	
326.4	5361.6	
326.61	3397.6	
326.82	5539.1	
327.03	5685.2	
327.24	5192.3	
327.44	5040.1	
327.65	5814.9	
327.86	4702.1	
328.07	4351.3	
328.27	3466.5	
328.48	6328.9	
328.69	5096	
328.9	5252.4	
329.1	3958.7	
329.31	5470.8	
329.52	6393.1	
329.73	3643.3	
329.93	4117.1	
330.14	5572.5	
330.35	5861.3	
330.56	6135	
330.76	4492.6	
330.97	5386.2	
331.18	5785.5	
331.39	4098.7	
331.59	3275.4	
331.8	6178.7	
332.01	6333.7	
332.22	3778.5	
332.42	4380.6	
332.63	5664.7	
332.84	5247.6	
333.05	4154	
333.25	3684.3	
333.46	5346.6	
333.67	5543.2	
333.88	3794.2	
334.08	4341	
334.29	7496.2	
334.5	6287.9	
334.7	3557.3	
334.91	5301.5	
335.12	5098.8	
335.33	6006.7	
335.53	4077.5	
335.74	6168.5	
335.95	5331.5	
336.16	5138.4	
336.36	4132.8	
336.57	4691.2	
336.78	5046.9	
336.98	6183.5	
337.19	5027.1	
337.4	4024.3	
337.61	6787.7	
337.81	5085.8	
338.02	3754.6	
338.23	4876.2	
338.43	6418.3	
338.64	5205.3	
338.85	3659.7	
339.05	4830.5	
339.26	6496.8	
339.47	4919.9	
339.68	3678.8	
339.88	5505.6	
340.09	5826.5	
340.3	6071.5	
340.5	4384	
340.71	3327.3	
340.92	5020.9	
341.13	6374.6	
341.33	3581.2	
341.54	4325.3	
341.75	5881.1	
341.95	5394.3	
342.16	4113	
342.37	4475.5	
342.57	5132.2	
342.78	5506.3	
342.99	4646.8	
343.19	3279.5	
343.4	6038.8	
343.61	5849.7	
343.81	3910.3	
344.02	3599.6	
344.23	6013.5	
344.43	6389	
344.64	4528.7	
344.85	4476.9	
345.06	5877	
345.26	6227.2	
345.47	4254.3	
345.68	5046.9	
345.88	4884.4	
346.09	6096.1	
346.3	4370.4	
346.5	3214.6	
346.71	5556.8	
346.92	5276.3	
347.12	3326.6	
347.33	4321.2	
347.54	6119.3	
347.74	6587	
347.95	4244.8	
348.16	3121.8	
348.36	5349.3	
348.57	5180.7	
348.78	4184.7	
348.98	4583.4	
349.19	5487.2	
349.39	4954.7	
349.6	3328.6	
349.81	3738.2	
350.01	5751.4	
350.22	5273.5	
350.43	4044.1	
350.63	4949.3	
350.84	5611.4	
351.05	5382.7	
351.25	3692.5	
351.46	3318.4	
351.67	6170.5	
351.87	5226.4	
352.08	3974.4	
352.29	4532.2	
352.49	5991	
352.7	5746.6	
352.9	3565.5	
353.11	4455	
353.32	6789.7	
353.52	5287.2	
353.73	3536.2	
353.94	4512.4	
354.14	5858.6	
354.35	5692.7	
354.55	3682.9	
354.76	4145.1	
354.97	5802.6	
355.17	5595.7	
355.38	3432.4	
355.59	4816.1	
355.79	5183.4	
356	5666	
356.2	4058.4	
356.41	3502.7	
356.62	4934.2	
356.82	5468.1	
357.03	4318.5	
357.24	3863.8	
357.44	5251	
357.65	5406	
357.85	5231.2	
358.06	4052.2	
358.27	4935.6	
358.47	5233.2	
358.68	3336.1	
358.88	4341	
359.09	5811.5	
359.3	6198.5	
359.5	5051.7	
359.71	4444.1	
359.91	6670.9	
360.12	6024.4	
360.33	4247.5	
360.53	4795.7	
360.74	5206.6	
360.94	5294	
361.15	4496	
361.36	3677.5	
361.56	6135	
361.77	5404.6	
361.97	5051.7	
362.18	3893.2	
362.38	6052.4	
362.59	5080.3	
362.8	3573	
363	3400.3	
363.21	4856.4	
363.41	5626.5	
363.62	4116.4	
363.83	5228.5	
364.03	5657.2	
364.24	6716.7	
364.44	5345.2	
364.65	5256.5	
364.85	5380	
365.06	5021.6	
365.27	3793.5	
365.47	3794.2	
365.68	6445	
365.88	5339.7	
366.09	4200.4	
366.29	3855.6	
366.5	5625.8	
366.71	6118	
366.91	5276.9	
367.12	4409.3	
367.32	6671.6	
367.53	5958.9	
367.73	4332.1	
367.94	5333.6	
368.14	5956.9	
368.35	6946	
368.56	4338.3	
368.76	3625.6	
368.97	5971.9	
369.17	7855.3	
369.38	3780.6	
369.58	3990.8	
369.79	5001.1	
369.99	6371.2	
370.2	5190.2	
370.4	4199.7	
370.61	5720	
370.82	6939.9	
371.02	4041.3	
371.23	3395.5	
371.43	4856.4	
371.64	6331	
371.84	4090.5	
372.05	5414.1	
372.25	7656.7	
372.46	6030.6	
372.66	4046.8	
372.87	4019.5	
373.07	6066.1	
373.28	7783	
373.48	5140.4	
373.69	4827.7	
373.9	5501.5	
374.1	5552.7	
374.31	5041.4	
374.51	4565.6	
374.72	6405.4	
374.92	5153.4	
375.13	5247.6	
375.33	4412.7	
375.54	5948	
375.74	5299.5	
375.95	4391.5	
376.15	5730.9	
376.36	5924.1	
376.56	5772.5	
376.77	4517.8	
376.97	5014.8	
377.18	7038.9	
377.38	6053.1	
377.59	5372.5	
377.79	3873.4	
378	5749.3	
378.2	6275.7	
378.41	3998.3	
378.61	3940.3	
378.82	6307.7	
379.02	5283.8	
379.23	4134.8	
379.43	5367	
379.64	6345.3	
379.84	5972.6	
380.05	3969	
380.25	3895.2	
380.46	6083.1	
380.66	5588.9	
380.87	5375.2	
381.07	5811.5	
381.28	6814.3	
381.48	6055.8	
381.69	4047.5	
381.89	4113.7	
382.1	4905.6	
382.3	6272.2	
382.51	5172.5	
382.71	6180.8	
382.91	6105.7	
383.12	6612.2	
383.32	4375.8	
383.53	4627.7	
383.73	5841.5	
383.94	5618.9	
384.14	4529.4	
384.35	3594.9	
384.55	5597.1	
384.76	6128.9	
384.96	4373.1	
385.17	4713.1	
385.37	6027.2	
385.58	5319.9	
385.78	4760.8	
385.98	3559.4	
386.19	5487.2	
386.39	5937.1	
386.6	4111	
386.8	4426.3	
387.01	6004.6	
387.21	6015.6	
387.42	4870.8	
387.62	5466	
387.83	5265.3	
388.03	6032.6	
388.23	4448.9	
388.44	5302.2	
388.64	5057.8	
388.85	5093.3	
389.05	4807.9	
389.26	5450.3	
389.46	6804.7	
389.67	6490.7	
389.87	4729.4	
390.07	4916.5	
390.28	5658.5	
390.48	5260.5	
390.69	3967.6	
390.89	4225.6	
391.1	5365.7	
391.3	6389.7	
391.5	5574.6	
391.71	6230.6	
391.91	6098.9	
392.12	7204.1	
392.32	5659.9	
392.53	4794.3	
392.73	5358.9	
392.93	5670.1	
393.14	4435.2	
393.34	5247.6	
393.55	6217	
393.75	5644.2	
393.95	4513	
394.16	4398.4	
394.36	5360.2	
394.57	6120.7	
394.77	3907.5	
394.98	4401.1	
395.18	5324	
395.38	5572.5	
395.59	5259.9	
395.79	4156.7	
396	5421.7	
396.2	5931.6	
396.4	5018.2	
396.61	4980.7	
396.81	6208.1	
397.02	5414.1	
397.22	5227.1	
397.42	5280.3	
397.63	6170.5	
397.83	5304.2	
398.04	4104.8	
398.24	4638.6	
398.44	5840.1	
398.65	4861.2	
398.85	3915	
399.05	4014.7	
399.26	5279.7	
399.46	7189.7	
399.67	4427	
399.87	4132.8	
400.07	5681.7	
400.28	6086.6	
400.48	4247.5	
400.69	5312.4	
400.89	6337.8	
401.09	6747.4	
401.3	4111.6	
401.5	5348.6	
401.7	6903	
401.91	7307.8	
402.11	4445.5	
402.32	4739	
402.52	6333	
402.72	6109.8	
402.93	4870.8	
403.13	3592.8	
403.33	7042.3	
403.54	5715.9	
403.74	4517.8	
403.94	5537.7	
404.15	5827.8	
404.35	6922.8	
404.56	4437.3	
404.76	6451.1	
404.96	6338.5	
405.17	6066.8	
405.37	5797.8	
405.57	4870.8	
405.78	6310.5	
405.98	5707.7	
406.18	5177.3	
406.39	5351.3	
406.59	6223.1	
406.79	5896.8	
407	4162.8	
407.2	4324.6	
407.4	6287.9	
407.61	6541.9	
407.81	4243.4	
408.01	6461.3	
408.22	5183.4	
408.42	7360.4	
408.62	5358.9	
408.83	4809.3	
409.03	5909.8	
409.23	5606	
409.44	4885.1	
409.64	5199.8	
409.84	6719.4	
410.05	6584.2	
410.25	5006.6	
410.45	4761.5	
410.66	5930.2	
410.86	8703.2	
411.06	5096	
411.27	4985.4	
411.47	8409.6	
411.67	6191.7	
411.88	5260.5	
412.08	5433.9	
412.28	6852.5	
412.49	7395.2	
412.69	4934.2	
412.89	4928.8	
413.09	7223.2	
413.3	6980.2	
413.5	4982.7	
413.7	4601.1	
413.91	6163	
414.11	7171.3	
414.31	4809.3	
414.52	5274.9	
414.72	6746	
414.92	6630.6	
415.12	4825	
415.33	5458.5	
415.53	7020.4	
415.73	7258.7	
415.94	5751.4	
416.14	5099.4	
416.34	5946.6	
416.55	5638.7	
416.75	6442.9	
416.95	5720	
417.15	6972	
417.36	7846.5	
417.56	6584.2	
417.76	5664	
417.97	7416.4	
418.17	7010.2	
418.37	5044.8	
418.57	5218.2	
418.78	6760.3	
418.98	6466.1	
419.18	6066.8	
419.38	6024.4	
419.59	6546.7	
419.79	6098.9	
419.99	5045.5	
420.2	5560.2	
420.4	7100.3	
420.6	7283.9	
420.8	4968.4	
421.01	4801.1	
421.21	6824.5	
421.41	7128.3	
421.61	5382.1	
421.82	5074.9	
422.02	6306.4	
422.22	7333.1	
422.42	5926.1	
422.63	5537	
422.83	6432	
423.03	7667.6	
423.23	5538.4	
423.44	4451.6	
423.64	6565.1	
423.84	6307.7	
424.04	4969.7	
424.25	4558.1	
424.45	7593.2	
424.65	7458	
424.85	4366.3	
425.06	4998.4	
425.26	7323.5	
425.46	6008.1	
425.66	5567.1	
425.87	5214.8	
426.07	7203.4	
426.27	7071	
426.47	5348.6	
426.67	4759.5	
426.88	7602.1	
427.08	6991.8	
427.28	5604.6	
427.48	4615.4	
427.69	5838.1	
427.89	6530.3	
428.09	5610.8	
428.29	4638	
428.5	7269.6	
428.7	6809.5	
428.9	4487.1	
429.1	5209.3	
429.3	6630.6	
429.51	7076.4	
429.71	4883	
429.91	5716.6	
430.11	6888.7	
430.31	7142.6	
430.52	5161.6	
430.72	5492.7	
430.92	7550.2	
431.12	6969.9	
431.32	4775.9	
431.53	5264	
431.73	5748.6	
431.93	7693.5	
432.13	4753.3	
432.33	4549.9	
432.54	6277	
432.74	6698.2	
432.94	4397	
433.14	5659.9	
433.34	6888	
433.55	6236.1	
433.75	5537	
433.95	7387	
434.15	6532.3	
434.35	6244.9	
434.56	4674.8	
434.76	4109.6	
434.96	6599.9	
435.16	6757.6	
435.36	4532.2	
435.56	5718.6	
435.77	6210.8	
435.97	6328.9	
436.17	6510.5	
436.37	5641.5	
436.57	6105.7	
436.78	6003.3	
436.98	6303	
437.18	6216.3	
437.38	6826.6	
437.58	6301.6	
437.78	6450.4	
437.99	4928.8	
438.19	6920.1	
438.39	7692.9	
438.59	4921.3	
438.79	4354.7	
438.99	7603.4	
439.2	6341.2	
439.4	4623.6	
439.6	4506.9	
439.8	6746	
440	7871.7	
440.2	5584.1	
440.4	5732.3	
440.61	7102.4	
440.81	7590.5	
441.01	4593.6	
441.21	5593.7	
441.41	7445	
441.61	7078.5	
441.81	5883.1	
442.02	7012.9	
442.22	7967.3	
442.42	7111.2	
442.62	4694.6	
442.82	4736.3	
443.02	7399.3	
443.22	6424.5	
443.43	5141.8	
443.63	4717.2	
443.83	6229.9	
444.03	6257.2	
444.23	5933	
444.43	5543.9	
444.63	6543.3	
444.83	7970.7	
445.04	4703.5	
445.24	6169.8	
445.44	6995.2	
445.64	7145.4	
445.84	5694.7	
446.04	5724.1	
446.24	6315.9	
446.44	7391.8	
446.65	4792.2	
446.85	5205.9	
447.05	6528.9	
447.25	7404.1	
447.45	5307.7	
447.65	4607.2	
447.85	6651.1	
448.05	6337.1	
448.25	5757.5	
448.46	5620.3	
448.66	6623.8	
448.86	6400.6	
449.06	4416.1	
449.26	5778	
449.46	7052.5	
449.66	5908.4	
449.86	5128.8	
450.06	5098.8	
450.26	6268.8	
450.47	6851.8	
450.67	5429.2	
450.87	5782.1	
451.07	6888.7	
451.27	6670.9	
451.47	4658.4	
451.67	5223	
451.87	6318.7	
452.07	7551.5	
452.27	4898.1	
452.47	4860.5	
452.67	6665.5	
452.88	7230.7	
453.08	4221.5	
453.28	6424.5	
453.48	7876.5	
453.68	6557.6	
453.88	4740.4	
454.08	5060.5	
454.28	6939.2	
454.48	6616.3	
454.68	5632.6	
454.88	6165.1	
455.08	7058	
455.28	6788.3	
455.48	4614.1	
455.68	5216.2	
455.89	7525.6	
456.09	7146.7	
456.29	4998.4	
456.49	4984.8	
456.69	7361.1	
456.89	6554.9	
457.09	5515.2	
457.29	5863.3	
457.49	6886.6	
457.69	7059.3	
457.89	5249.6	
458.09	4723.3	
458.29	6587	
458.49	7370.6	
458.69	5748.6	
458.89	5055.8	
459.09	7574.8	
459.29	7767.9	
459.49	5156.8	
459.69	6043.6	
459.9	7149.5	
460.1	6539.8	
460.3	5105.6	
460.5	4885.1	
460.7	7114	
460.9	6777.4	
461.1	4442.7	
461.3	5834	
461.5	7720.8	
461.7	7337.9	
461.9	4853.7	
462.1	5460.6	
462.3	6708.5	
462.5	7369.3	
462.7	4875.5	
462.9	5025	
463.1	8501.1	
463.3	7993.2	
463.5	5163.6	
463.7	6085.2	
463.9	6853.2	
464.1	7171.3	
464.3	5238	
464.5	5545.9	
464.7	7563.8	
464.9	7058	
465.1	6983.6	
465.3	5846.3	
465.5	7923.6	
465.7	7798.7	
465.9	6087.9	
466.1	5999.2	
466.3	7601.4	
466.5	7394.5	
466.7	6797.2	
466.9	5627.8	
467.1	7277.1	
467.3	8267	
467.5	6688	
467.7	5514.5	
467.9	8523.6	
468.1	9467.1	
468.3	6456.6	
468.5	6825.2	
468.7	7154.2	
468.9	7237.5	
469.1	5803.9	
469.3	6546	
469.5	9317.6	
469.7	6719.4	
469.9	6359.6	
470.1	5516.5	
470.3	7183.6	
470.5	7185.6	
470.7	6782.9	
470.9	5580	
471.1	6942.6	
471.3	7518.1	
471.5	5425.8	
471.69	7580.9	
471.89	6817	
472.09	6377.4	
472.29	6287.3	
472.49	6810.2	
472.69	6530.3	
472.89	7486	
473.09	5257.1	
473.29	5554.8	
473.49	6708.5	
473.69	6980.8	
473.89	6534.4	
474.09	5685.2	
474.29	8288.8	
474.49	8057.4	
474.69	6497.5	
474.89	5806	
475.09	6989.7	
475.29	6937.2	
475.49	5177.9	
475.69	5477.6	
475.88	8708.6	
476.08	7256	
476.28	4980	
476.48	5601.9	
476.68	7789.8	
476.88	7628.7	
477.08	5477	
477.28	5747.3	
477.48	7159	
477.68	7843.7	
477.88	5246.9	
478.08	5621.7	
478.28	8153.6	
478.48	7260.7	
478.67	5647.6	
478.87	5098.8	
479.07	7894.2	
479.27	7251.2	
479.47	5937.7	
479.67	5799.8	
479.87	7666.9	
480.07	8210.3	
480.27	5105.6	
480.47	6825.2	
480.67	7319.4	
480.87	8011	
481.06	5435.3	
481.26	6272.9	
481.46	7179.5	
481.66	7154.9	
481.86	5799.2	
482.06	7000.6	
482.26	7020.4	
482.46	7892.2	
482.66	5869.5	
482.86	5294.7	
483.05	7322.9	
483.25	6728.3	
483.45	8430.1	
483.65	5775.3	
483.85	6845.7	
484.05	7209.5	
484.25	6236.1	
484.45	6730.3	
484.65	8076.5	
484.84	8062.9	
485.04	5710.4	
485.24	5663.3	
485.44	8355	
485.64	6516	
485.84	4839.4	
486.04	6358.9	
486.24	6921.5	
486.44	7396.6	
486.63	4788.8	
486.83	5708.4	
487.03	6776.7	
487.23	7049.8	
487.43	4938.3	
487.63	7416.4	
487.83	7058	
488.02	8122.9	
488.22	5855.1	
488.42	6619	
488.62	7933.1	
488.82	6810.2	
489.02	5580.7	
489.22	5622.4	
489.41	7779.6	
489.61	7402	
489.81	5255.8	
490.01	5300.1	
490.21	7686.7	
490.41	8363.2	
490.61	5063.3	
490.8	5403.2	
491	7135.1	
491.2	6462	
491.4	6092	
491.6	5107.6	
491.8	7164.5	
491.99	7393.2	
492.19	4969.7	
492.39	5386.2	
492.59	7843	
492.79	7885.4	
492.99	6228.6	
493.18	5201.2	
493.38	7785	
493.58	8524.3	
493.78	5959.6	
493.98	5506.3	
494.18	7434.1	
494.37	6816.3	
494.57	6164.4	
494.77	6048.3	
494.97	7558.4	
495.17	7845.8	
495.37	5467.4	
495.56	5870.8	
495.76	7983.7	
495.96	7583.6	
496.16	6754.2	
496.36	5607.3	
496.55	7738.6	
496.75	7322.2	
496.95	6040.8	
497.15	5847	
497.35	7728.4	
497.54	7735.9	
497.74	5659.2	
497.94	7522.2	
498.14	8505.2	
498.34	8300.4	
498.53	5298.1	
498.73	6189	
498.93	7132.4	
499.13	7711.3	
499.33	5894.7	
499.52	6354.2	
499.72	7537.9	
499.92	7988.4	
500.12	5487.9	
500.32	5795.1	
500.51	7936.6	
500.71	7582.9	
500.91	6703.7	
501.11	6188.3	
501.31	7778.2	
501.5	8277.2	
501.7	6921.5	
501.9	5819.6	
502.1	7606.2	
502.29	7904.5	
502.49	6378.7	
502.69	6832.7	
502.89	7807.5	
503.09	7757.7	
503.28	5285.1	
503.48	5556.8	
503.68	6944.7	
503.88	7021.1	
504.07	6524.1	
504.27	6063.4	
504.47	7489.4	
504.67	7692.9	
504.86	6427.2	
505.06	6122.7	
505.26	7144.7	
505.46	9082.7	
505.65	5999.9	
505.85	6246.3	
506.05	7058	
506.25	7667.6	
506.44	5337	
506.64	6443.6	
506.84	6961.7	
507.04	8144.8	
507.23	5579.3	
507.43	6201.9	
507.63	9228.8	
507.83	7200.7	
508.02	6195.1	
508.22	5793.7	
508.42	9365.4	
508.62	7053.9	
508.81	6114.6	
509.01	6785.6	
509.21	6993.8	
509.4	7240.3	
509.6	6302.3	
509.8	5599.1	
510	7205.4	
510.19	8772.8	
510.39	5602.6	
510.59	5706.3	
510.79	6919.4	
510.98	8471.1	
511.18	5669.5	
511.38	5763	
511.57	7841	
511.77	7700.4	
511.97	6480.5	
512.17	5438	
512.36	7839.6	
512.56	7817.8	
512.76	5546.6	
512.95	5229.1	
513.15	8015.7	
513.35	6508.4	
513.55	6481.1	
513.74	5557.5	
513.94	7979.6	
514.14	7230.7	
514.33	6528.2	
514.53	6314.6	
514.73	7144	
514.92	7437.5	
515.12	5709.7	
515.32	5416.2	
515.51	7492.2	
515.71	8165.9	
515.91	7314.7	
516.11	5533.6	
516.3	9210.4	
516.5	6987	
516.7	6161	
516.89	6746.7	
517.09	7161.7	
517.29	7074.4	
517.48	6414.9	
517.68	5820.3	
517.88	6813.6	
518.07	7509.9	
518.27	6427.2	
518.47	5370.5	
518.66	8105.9	
518.86	6677.7	
519.06	5180.7	
519.25	5664.7	
519.45	7035.5	
519.65	8633.6	
519.84	6319.3	
520.04	7096.9	
520.24	9055.4	
520.43	7733.8	
520.63	6008.1	
520.83	5760.9	
521.02	6934.4	
521.22	7655.3	
521.42	6382.8	
521.61	6968.6	
521.81	7228.6	
522.01	7334.5	
522.2	6143.9	
522.4	5855.1	
522.6	7854	
522.79	6542.6	
522.99	6023.1	
523.18	5244.2	
523.38	7425.9	
523.58	7499	
523.77	7247.1	
523.97	5134.9	
524.17	9467.1	
524.36	8551	
524.56	6477.7	
524.76	6132.3	
524.95	7420.5	
525.15	6995.2	
525.34	5940.5	
525.54	5885.9	
525.74	7646.4	
525.93	6636.8	
526.13	7076.4	
526.33	5879.7	
526.52	8163.2	
526.72	7511.3	
526.91	7118.7	
527.11	6348.7	
527.31	8108.6	
527.5	8505.2	
527.7	6221.7	
527.89	5172.5	
528.09	6877.1	
528.29	7503.1	
528.48	6606.1	
528.68	6229.9	
528.87	7886.7	
529.07	7965.9	
529.27	6159.6	
529.46	5623.7	
529.66	7395.9	
529.85	7873.1	
530.05	5365.7	
530.25	6253.8	
530.44	8954.4	
530.64	7417.7	
530.83	5898.2	
531.03	6199.9	
531.23	7894.2	
531.42	7721.5	
531.62	6978.8	
531.81	6064.7	
532.01	7903.8	
532.21	8409.6	
532.4	5682.4	
532.6	6176	
532.79	8699.1	
532.99	7912.7	
533.18	6079.7	
533.38	7148.8	
533.58	7378.1	
533.77	8296.3	
533.97	6012.2	
534.16	6832.7	
534.36	8426	
534.55	7385	
534.75	7040.9	
534.95	6030.6	
535.14	8284	
535.34	7430	
535.53	5770.5	
535.73	7812.3	
535.92	8833.6	
536.12	7591.1	
536.31	5866.1	
536.51	7206.8	
536.71	7952.9	
536.9	7579.5	
537.1	6107	
537.29	6133	
537.49	8340	
537.68	7343.3	
537.88	6533	
538.07	5751.4	
538.27	7619.8	
538.46	8729.1	
538.66	5569.8	
538.86	6119.3	
539.05	7690.8	
539.25	8157.7	
539.44	6286.6	
539.64	5971.2	
539.83	7509.9	
540.03	8591.2	
540.22	5834	
540.42	6016.2	
540.61	7850.5	
540.81	7912	
541	6567.8	
541.2	7151.5	
541.39	7367.9	
541.59	7804.1	
541.78	6749.4	
541.98	5940.5	
542.18	6983.6	
542.37	7025.2	
542.57	6287.9	
542.76	6773.3	
542.96	7130.3	
543.15	7912	
543.35	6356.9	
543.54	5766.4	
543.74	8248.5	
543.93	7797.3	
544.13	6299.6	
544.32	7578.8	
544.52	8100.4	
544.71	7272.3	
544.91	5504.3	
545.1	6828.6	
545.3	7353.6	
545.49	8111.3	
545.69	5379.3	
545.88	6080.4	
546.08	8991.9	
546.27	8575.5	
546.47	6703	
546.66	6010.8	
546.86	8335.9	
547.05	9006.3	
547.24	6109.8	
547.44	5991	
547.63	7139.9	
547.83	8346.2	
548.02	6350.8	
548.22	6606.1	
548.41	7003.4	
548.61	8475.2	
548.8	5905.7	
549	5838.1	
549.19	7712.7	
549.39	7989.8	
549.58	5553.4	
549.78	6182.8	
549.97	8050.6	
550.17	7634.8	
550.36	7179.5	
550.55	8226.7	
550.75	7621.9	
550.94	8574.8	
551.14	5820.3	
551.33	6366.5	
551.53	6972.7	
551.72	7974.8	
551.92	6374.6	
552.11	6013.5	
552.31	8011	
552.5	8078.6	
552.69	7890.8	
552.89	5758.2	
553.08	7972.7	
553.28	7729.7	
553.47	6070.2	
553.67	7356.3	
553.86	8729.1	
554.06	6962.4	
554.25	5172.5	
554.44	5820.3	
554.64	9577.7	
554.83	8946.9	
555.03	5842.9	
555.22	6301.6	
555.42	8222.6	
555.61	7927	
555.8	6037.4	
556	6353.5	
556.19	6976.1	
556.39	8373.5	
556.58	6089.3	
556.78	6098.2	
556.97	7757.7	
557.16	7478.5	
557.36	7403.4	
557.55	5687.2	
557.75	6780.1	
557.94	8601.5	
558.13	5800.5	
558.33	5575.9	
558.52	8342.1	
558.72	7174	
558.91	5736.4	
559.1	6029.2	
559.3	6883.2	
559.49	6696.9	
559.69	5289.2	
559.88	6385.6	
560.07	7772	
560.27	8266.3	
560.46	6538.5	
560.66	6702.3	
560.85	7680.6	
561.04	6791.1	
561.24	5728.2	
561.43	5959.6	
561.63	7038.2	
561.82	7352.9	
562.01	7280.5	
562.21	6327.5	
562.4	7837.6	
562.59	8815.1	
562.79	6042.2	
562.98	5741.1	
563.18	7652.6	
563.37	9230.9	
563.56	6563.1	
563.76	5615.5	
563.95	7040.2	
564.14	6995.2	
564.34	6019.7	
564.53	5785.5	
564.73	7665.5	
564.92	8011	
565.11	6151.4	
565.31	5522	
565.5	8236.9	
565.69	7182.9	
565.89	5710.4	
566.08	6029.9	
566.27	8173.4	
566.47	8529.1	
566.66	6686.6	
566.85	5264	
567.05	7659.4	
567.24	7000.6	
567.44	5641.5	
567.63	7159	
567.82	7889.5	
568.02	7657.4	
568.21	5614.2	
568.4	6086.6	
568.6	7514.7	
568.79	7557.7	
568.98	5423	
569.18	5668.8	
569.37	7376.8	
569.56	9635	
569.76	5941.2	
569.95	7055.3	
570.14	7895.6	
570.34	7733.1	
570.53	5481.7	
570.72	5482.4	
570.91	8323.6	
571.11	7391.1	
571.3	6047	
571.49	6978.1	
571.69	7424.6	
571.88	6997.9	
572.07	6561.7	
572.27	6620.4	
572.46	6989.7	
572.65	8102.4	
572.85	5816.2	
573.04	6111.1	
573.23	8284	
573.43	7474.4	
573.62	5438.7	
573.81	6191	
574	7461.4	
574.2	7283.3	
574.39	5773.2	
574.58	5969.1	
574.78	8367.3	
574.97	7599.3	
575.16	6426.5	
575.36	6494.1	
575.55	7907.2	
575.74	8176.2	
575.93	5395.7	
576.13	6567.8	
576.32	7346.7	
576.51	7873.8	
576.71	5840.8	
576.9	7224.6	
577.09	8243.8	
577.28	7806.2	
577.48	6278.4	
577.67	5283.1	
577.86	7367.9	
578.05	7700.4	
578.25	6001.9	
578.44	6086.6	
578.63	7502.4	
578.83	8763.9	
579.02	5357.5	
579.21	7015	
579.4	7686.7	
579.6	7375.4	
579.79	6200.6	
579.98	8533.9	
580.17	8171.4	
580.37	8133.8	
580.56	5567.1	
580.75	6354.8	
580.94	8637	
581.14	8391.2	
581.33	6847.7	
581.52	5631.2	
581.71	7856.7	
581.91	8619.9	
582.1	5401.2	
582.29	6017.6	
582.48	7513.3	
582.68	7402	
582.87	6600.6	
583.06	6109.1	
583.25	7732.4	
583.45	7209.5	
583.64	6701.6	
583.83	7548.8	
584.02	7306.5	
584.21	7765.2	
584.41	6843.6	
584.6	6027.2	
584.79	7457.3	
584.98	8325	
585.18	5443.5	
585.37	5413.5	
585.56	7049.1	
585.75	7895.6	
585.94	5710.4	
586.14	6442.9	
586.33	8617.2	
586.52	7475.1	
586.71	6217	
586.91	6021	
587.1	6921.5	
587.29	7955	
587.48	6055.8	
587.67	5791	
587.87	7839.6	
588.06	7958.4	
588.25	7293.5	
588.44	6537.8	
588.63	7586.4	
588.83	8231.5	
589.02	5991.7	
589.21	5858.6	
589.4	7387	
589.59	7251.9	
589.78	5182.7	
589.98	5511.8	
590.17	7003.4	
590.36	7655.3	
590.55	5000.5	
590.74	5944.6	
590.94	9113.5	
591.13	7569.3	
591.32	5681.7	
591.51	5111.7	
591.7	7989.8	
591.89	7352.9	
592.09	5255.1	
592.28	5722	
592.47	6660.7	
592.66	8574.8	
592.85	5199.1	
593.05	5477.6	
593.24	7316.7	
593.43	8023.9	
593.62	5482.4	
593.81	6049	
594	7256	
594.19	7502.4	
594.39	5403.2	
594.58	5313.1	
594.77	7638.2	
594.96	8346.8	
595.15	5355.4	
595.34	6070.9	
595.54	7772.7	
595.73	6733.7	
595.92	4729.4	
596.11	5966.4	
596.3	8290.9	
596.49	6894.8	
596.68	5754.1	
596.88	6237.4	
597.07	7913.4	
597.26	6624.5	
597.45	5195.7	
597.64	6534.4	
597.83	6941.9	
598.02	7682.6	
598.22	5270.8	
598.41	6003.3	
598.6	7420.5	
598.79	6836.8	
598.98	5332.2	
599.17	6318	
599.36	7368.6	
599.55	8761.9	
599.74	7553.6	
599.94	7169.9	
600.13	7993.2	
600.32	6699.6	
600.51	5079.6	
600.7	5169.1	
600.89	8704.5	
601.08	8777.6	
601.27	4956.8	
601.47	6099.5	
601.66	7929.1	
601.85	8642.4	
602.04	5642.8	
602.23	6226.5	
602.42	6855.2	
602.61	7555	
602.8	5627.8	
602.99	5436	
603.18	7280.5	
603.37	7508.5	
603.57	6160.3	
603.76	6656.6	
603.95	8258.1	
604.14	7869.7	
604.33	5397.1	
604.52	5797.8	
604.71	7454.6	
604.9	7138.5	
605.09	6413.6	
605.28	6351.4	
605.47	8094.3	
605.66	7791.2	
605.86	6104.3	
606.05	5455.8	
606.24	8074.5	
606.43	6578.1	
606.62	5763.7	
606.81	6650.4	
607	7945.4	
607.19	7213.6	
607.38	5245.5	
607.57	5491.3	
607.76	6989	
607.95	6440.9	
608.14	5889.3	
608.33	6579.4	
608.52	6931.7	
608.72	7974.8	
608.91	5152.7	
609.1	5119.9	
609.29	7108.5	
609.48	6664.8	
609.67	6220.4	
609.86	5164.3	
610.05	6708.5	
610.24	7103	
610.43	4946.5	
610.62	4596.3	
610.81	8333.2	
611	8019.8	
611.19	5122	
611.38	5905	
611.57	7382.9	
611.76	8855.4	
611.95	4881.7	
612.14	4777.9	
612.33	7177.4	
612.52	6602.7	
612.71	5514.5	
612.9	4597.7	
613.09	6267.5	
613.28	8781	
613.47	5188.9	
613.66	6255.9	
613.85	7281.9	
614.04	6807.4	
614.24	5294.7	
614.43	4484.4	
614.62	7350.2	
614.81	7405.5	
615	5976.7	
615.19	5920	
615.38	6696.9	
615.57	7055.9	
615.76	5711.1	
615.95	6709.8	
616.14	7529	
616.33	7081.2	
616.52	6096.1	
616.71	6351.4	
616.9	7390.4	
617.09	7276.4	
617.28	5332.9	
617.47	6967.9	
617.66	6448.4	
617.85	6420.4	
618.04	6294.1	
618.22	5743.2	
618.41	6796.5	
618.6	7724.3	
618.79	5638.1	
618.98	5225.1	
619.17	7993.9	
619.36	6293.4	
619.55	5432.6	
619.74	5455.1	
619.93	7264.8	
620.12	6671.6	
620.31	5894.7	
620.5	6188.3	
620.69	7862.2	
620.88	8287.4	
621.07	7049.1	
621.26	5877.7	
621.45	7430.7	
621.64	7453.9	
621.83	6015.6	
622.02	5068	
622.21	7410.2	
622.4	7155.6	
622.59	6576.7	
622.78	6260	
622.97	6675.7	
623.16	7796.6	
623.35	6006.7	
623.54	4986.1	
623.72	7021.1	
623.91	7145.4	
624.1	6191	
624.29	4753.3	
624.48	8236.2	
624.67	7403.4	
624.86	6066.1	
625.05	5061.2	
625.24	8306.6	
625.43	6604.7	
625.62	7900.4	
625.81	5150.6	
626	7812.3	
626.19	6929.6	
626.38	6120.7	
626.56	5541.8	
626.75	6766.5	
626.94	7326.3	
627.13	6119.3	
627.32	4724	
627.51	7488.1	
627.7	8970.8	
627.89	4936.3	
628.08	6163.7	
628.27	6693.4	
628.46	6883.9	
628.65	5216.2	
628.83	4912.4	
629.02	7488.7	
629.21	6728.3	
629.4	5757.5	
629.59	5879	
629.78	6619.7	
629.97	7719.5	
630.16	5891.3	
630.35	5406.6	
630.54	8120.9	
630.72	7793.9	
630.91	5285.8	
631.1	5993.7	
631.29	7229.3	
631.48	7438.2	
631.67	6094.8	
631.86	5575.9	
632.05	6810.9	
632.24	6974.7	
632.42	5128.1	
632.61	5853.8	
632.8	7120.8	
632.99	6594.5	
633.18	5722.7	
633.37	6156.9	
633.56	7220.5	
633.75	7142.6	
633.93	5822.4	
634.12	5313.1	
634.31	8188.5	
634.5	7690.8	
634.69	5410.7	
634.88	6072.2	
635.07	7036.8	
635.25	7608.2	
635.44	6446.3	
635.63	6673.6	
635.82	6869.6	
636.01	6359.6	
636.2	6401.3	
636.39	5867.4	
636.57	8064.2	
636.76	7788.4	
636.95	5322	
637.14	6816.3	
637.33	7359.7	
637.52	8363.2	
637.7	5058.5	
637.89	6116.6	
638.08	6909.2	
638.27	8506.6	
638.46	6151.4	
638.65	6699.6	
638.83	8518.9	
639.02	6718	
639.21	6148	
639.4	6589.7	
639.59	7331.7	
639.78	6908.5	
639.96	5363.6	
640.15	5348.6	
640.34	7169.3	
640.53	7337.2	
640.72	5008.6	
640.91	5453.7	
641.09	6587.6	
641.28	7969.3	
641.47	5455.8	
641.66	6350.1	
641.85	7283.9	
642.03	7677.2	
642.22	6152.1	
642.41	5515.2	
642.6	6756.9	
642.79	6109.1	
642.97	5427.1	
643.16	6081.8	
643.35	6714.6	
643.54	6576.7	
643.73	5263.3	
643.91	6154.8	
644.1	6403.3	
644.29	7063.4	
644.48	5411.4	
644.67	5450.3	
644.85	6649.1	
645.04	6969.9	
645.23	5002.5	
645.42	5314.5	
645.6	6581.5	
645.79	7888.1	
645.98	5415.5	
646.17	4361.5	
646.36	6303	
646.54	7025.2	
646.73	6361.7	
646.92	4999.1	
647.11	6566.5	
647.29	7806.2	
647.48	5161.6	
647.67	4884.4	
647.86	8064.9	
648.05	8021.9	
648.23	5556.1	
648.42	6834.1	
648.61	7357	
648.8	7021.8	
648.98	5100.8	
649.17	5355.4	
649.36	6595.1	
649.55	5995.1	
649.73	5187.5	
649.92	5894.7	
650.11	6510.5	
650.3	6832	
650.48	5247.6	
650.67	5042.8	
650.86	7205.4	
651.05	6044.9	
651.23	5255.8	
651.42	5204.6	
651.61	6528.9	
651.79	6803.4	
651.98	5441.5	
652.17	5063.9	
652.36	7169.9	
652.54	6088.6	
652.73	5059.2	
652.92	4910.3	
653.11	7136.5	
653.29	7193.1	
653.48	4407.9	
653.67	5510.4	
653.85	6922.8	
654.04	8121.6	
654.23	5705.6	
654.42	5216.2	
654.6	6526.2	
654.79	7223.2	
654.98	4703.5	
655.16	5373.2	
655.35	6126.2	
655.54	6071.5	
655.73	4758.1	
655.91	4689.8	
656.1	7236.8	
656.29	5981.4	
656.47	4263.9	
656.66	6100.9	
656.85	6237.4	
657.03	6311.8	
657.22	4760.2	
657.41	4898.7	
657.59	6362.4	
657.78	6121.4	
657.97	4425	
658.16	5307.7	
658.34	7038.9	
658.53	7473.7	
658.72	6139.1	
658.9	6773.3	
659.09	6376	
659.28	6500.3	
659.46	4977.2	
659.65	4932.2	
659.84	6214.9	
660.02	6762.4	
660.21	4762.2	
660.4	4804.5	
660.58	7307.8	
660.77	6566.5	
660.96	5399.1	
661.14	4430.4	
661.33	7810.3	
661.52	7669	
661.7	4328.7	
661.89	8411.7	
662.08	6177.4	
662.26	5758.2	
662.45	4608.6	
662.64	4739	
662.82	6911.9	
663.01	6071.5	
663.2	4874.8	
663.38	5620.3	
663.57	6866.2	
663.75	6716.7	
663.94	5214.1	
664.13	6606.7	
664.31	6170.5	
664.5	6862.1	
664.69	5341.8	
664.87	5992.4	
665.06	5875.6	
665.25	6707.8	
665.43	6260	
665.62	6398.5	
665.8	7034.8	
665.99	6298.9	
666.18	5104.2	
666.36	5286.5	
666.55	6963.1	
666.74	6875.7	
666.92	4759.5	
667.11	6573.3	
667.29	6314.6	
667.48	6963.1	
667.67	6172.6	
667.85	5225.1	
668.04	6383.5	
668.22	6348.7	
668.41	5261.2	
668.6	5380.7	
668.78	6164.4	
668.97	6350.1	
669.15	5621.7	
669.34	4509.6	
669.53	6129.6	
669.71	6537.1	
669.9	4678.9	
670.08	5449	
670.27	6186.2	
670.46	6805.4	
670.64	5626.5	
670.83	5888.6	
671.01	6058.6	
671.2	6703.7	
671.38	4769.7	
671.57	4703.5	
671.76	7359.7	
671.94	8051.2	
672.13	4659.1	
672.31	5855.1	
672.5	6920.1	
672.69	6224.5	
672.87	4814.8	
673.06	5171.8	
673.24	6748.1	
673.43	6236.1	
673.61	5578.7	
673.8	5123.3	
673.98	6991.1	
674.17	7151.5	
674.36	5767.8	
674.54	5629.9	
674.73	6677.7	
674.91	6913.3	
675.1	5328.8	
675.28	4844.8	
675.47	6402.6	
675.65	7083.9	
675.84	5156.1	
676.03	5509	
676.21	6226.5	
676.4	5726.1	
676.58	5976	
676.77	5726.8	
676.95	7763.8	
677.14	6159.6	
677.32	4861.2	
677.51	4548.5	
677.69	7010.9	
677.88	5750	
678.06	4625	
678.25	4733.5	
678.44	6469.5	
678.62	6162.3	
678.81	4448.2	
678.99	5515.2	
679.18	7363.8	
679.36	6825.2	
679.55	5104.2	
679.73	5679.7	
679.92	6823.1	
680.1	6222.4	
680.29	6449.1	
680.47	5111.7	
680.66	6136.4	
680.84	7027.3	
681.03	4356.7	
681.21	5537	
681.4	6148.7	
681.58	6038.1	
681.77	4876.9	
681.95	4745.8	
682.14	7144.7	
682.32	7457.3	
682.51	5810.1	
682.69	4577.2	
682.88	6086.6	
683.06	6881.2	
683.25	5463.3	
683.43	6020.3	
683.62	6363	
683.8	6868.9	
683.99	6064.7	
684.17	5331.5	
684.36	7845.8	
684.54	6383.5	
684.73	4498.7	
684.91	4851.6	
685.1	6860.7	
685.28	6272.2	
685.46	5491.3	
685.65	5522	
685.83	7176.8	
686.02	6392.4	
686.2	4903.5	
686.39	5031.9	
686.57	5989.6	
686.76	7724.9	
686.94	4863.2	
687.13	5077.6	
687.31	6899.6	
687.5	6387.6	
687.68	4469.4	
687.86	5847	
688.05	8075.8	
688.23	5788.2	
688.42	5930.9	
688.6	4932.2	
688.79	6214.2	
688.97	6309.1	
689.16	5422.3	
689.34	4215.4	
689.52	7111.2	
689.71	7299	
689.89	5690.6	
690.08	4898.1	
690.26	6581.5	
690.45	6374	
690.63	5841.5	
690.81	5090.6	
691	6278.4	
691.18	6258.6	
691.37	5304.2	
691.55	7690.8	
691.74	6204	
691.92	8407.6	
692.1	5348.6	
692.29	4632.5	
692.47	6498.2	
692.66	5675.6	
692.84	4865.3	
693.02	5548.6	
693.21	5855.8	
693.39	6373.3	
693.58	5592.3	
693.76	5046.2	
693.94	7649.8	
694.13	7385	
694.31	4943.8	
694.5	6051.1	
694.68	6176.7	
694.86	6469.5	
695.05	5293.3	
695.23	5711.8	
695.42	6904.4	
695.6	9478.7	
695.78	5942.5	
695.97	5033.9	
696.15	6950.1	
696.34	6284.5	
696.52	4754.7	
696.7	5651	
696.89	6713.2	
697.07	6197.2	
697.25	5627.1	
697.44	7288	
697.62	6683.9	
697.81	7144.7	
697.99	5250.3	
698.17	5827.8	
698.36	6002.6	
698.54	6728.3	
698.72	5637.4	
698.91	4564.2	
699.09	6297.5	
699.28	6213.5	
699.46	5342.5	
699.64	5169.8	
699.83	6105.7	
700.01	7503.1	
700.19	6040.8	
700.38	4341	
700.56	7439.6	
700.74	6259.3	
700.93	4756.7	
701.11	5662	
701.29	6759.7	
701.48	7933.8	
701.66	4980	
701.84	4970.4	
702.03	6328.2	
702.21	7064.8	
702.39	4575.8	
702.58	5184.1	
702.76	6694.8	
702.94	6867.5	
703.13	4658.4	
703.31	7233.4	
703.49	6036.7	
703.68	7021.8	
703.86	4755.4	
704.04	5906.3	
704.23	6541.9	
704.41	7029.3	
704.59	4851	
704.78	6297.5	
704.96	7759.8	
705.14	7079.8	
705.33	4709	
705.51	5596.4	
705.69	6397.2	
705.87	7324.9	
706.06	5896.8	
706.24	4647.5	
706.42	6782.9	
706.61	7047.7	
706.79	5950	
706.97	4703.5	
707.16	6185.5	
707.34	6805.4	
707.52	5989.6	
707.7	4965.6	
707.89	6343.2	
708.07	6001.9	
708.25	5901.6	
708.44	6074.3	
708.62	6362.4	
708.8	7587.7	
708.98	6210.8	
709.17	5089.9	
709.35	6706.4	
709.53	6733	
709.72	4758.8	
709.9	4984.8	
710.08	7036.8	
710.26	7066.9	
710.45	6530.3	
710.63	5148.6	
710.81	6694.1	
710.99	6707.8	
711.18	5859.2	
711.36	5324.7	
711.54	6517.3	
711.72	7366.5	
711.91	5449.6	
712.09	4764.3	
712.27	6812.2	
712.45	7913.4	
712.64	5705	
712.82	4628.4	
713	6189	
713.18	6368.5	
713.37	4791.6	
713.55	6182.1	
713.73	7396.6	
713.91	5939.8	
714.1	5365.7	
714.28	4807.9	
714.46	7161.1	
714.64	6310.5	
714.83	4278.2	
715.01	5216.2	
715.19	6413.6	
715.37	5806.7	
715.55	4892.6	
715.74	5266	
715.92	7484.6	
716.1	5310.4	
716.28	6457.2	
716.47	5381.4	
716.65	6016.9	
716.83	6132.3	
717.01	5228.5	
717.19	5375.9	
717.38	8335.9	
717.56	5773.2	
717.74	5526.8	
717.92	4531.5	
718.1	7032	
718.29	6098.2	
718.47	4134.2	
718.65	4750.6	
718.83	6826.6	
719.01	6761	
719.2	3908.9	
719.38	5157.5	
719.56	6440.2	
719.74	8152.3	
719.92	4743.8	
720.11	5808	
720.29	6597.2	
720.47	5606.7	
720.65	4228.4	
720.83	5223	
721.02	6083.8	
721.2	5815.5	
721.38	5313.1	
721.56	4435.9	
721.74	5279.7	
721.92	5557.5	
722.11	5843.5	
722.29	5534.3	
722.47	6859.3	
722.65	5937.1	
722.83	4515.8	
723.01	5491.3	
723.2	5986.9	
723.38	6352.1	
723.56	3876.8	
723.74	5150.6	
723.92	5538.4	
724.1	6827.9	
724.29	4450.2	
724.47	5729.5	
724.65	5600.5	
724.83	5553.4	
725.01	4269.3	
725.19	5297.4	
725.37	5577.3	
725.56	5693.4	
725.74	4165.6	
725.92	4405.9	
726.1	5521.3	
726.28	5817.6	
726.46	4915.1	
726.64	4606.6	
726.83	5801.2	
727.01	6133.7	
727.19	4135.5	
727.37	5066	
727.55	6057.2	
727.73	6466.1	
727.91	4100	
728.09	3968.3	
728.28	6532.3	
728.46	7260.7	
728.64	5206.6	
728.82	5020.3	
729	7731.8	
729.18	6840.2	
729.36	4173.1	
729.54	6746	
729.72	7945.4	
729.91	5976.7	
730.09	6302.3	
730.27	4954.7	
730.45	5923.4	
730.63	6606.1	
730.81	5584.8	
730.99	4537.6	
731.17	7167.2	
731.35	5618.9	
731.53	5150.6	
731.71	4635.9	
731.9	6836.1	
732.08	7165.8	
732.26	4934.9	
732.44	4663.9	
732.62	7135.8	
732.8	6575.3	
732.98	5390.3	
733.16	4301.4	
733.34	6535.1	
733.52	5242.1	
733.7	4901.5	
733.88	5221	
734.07	6429.3	
734.25	6124.8	
734.43	4268.6	
734.61	6044.9	
734.79	7626	
734.97	5970.5	
735.15	4558.1	
735.33	4948.6	
735.51	6379.4	
735.69	5926.8	
735.87	6197.2	
736.05	5125.4	
736.23	6186.9	
736.41	5919.3	
736.59	4885.8	
736.77	5024.3	
736.95	6698.2	
737.13	6036.7	
737.32	4519.9	
737.5	4754	
737.68	7250.5	
737.86	5945.9	
738.04	4297.3	
738.22	6274.3	
738.4	5730.2	
738.58	6027.9	
738.76	4996.4	
738.94	3791.5	
739.12	5816.9	
739.3	5681.1	
739.48	5698.1	
739.66	5347.9	
739.84	6154.8	
740.02	6078.4	
740.2	3921.9	
740.38	4351.9	
740.56	6556.2	
740.74	5300.1	
740.92	5059.8	
741.1	4987.5	
741.28	5896.8	
741.46	5816.2	
741.64	4550.6	
741.82	5161.6	
742	5934.3	
742.18	5933.6	
742.36	4822.3	
742.54	4411.3	
742.72	6541.9	
742.9	5242.1	
743.08	5252.4	
743.26	3930.7	
743.44	6858.6	
743.62	6571.2	
743.8	5420.3	
743.98	4378.6	
744.16	6370.5	
744.34	6037.4	
744.52	5367.7	
744.7	5272.8	
744.88	6432	
745.06	5948.7	
745.24	5403.9	
745.42	5493.3	
745.6	6588.3	
745.78	6358.9	
745.96	4102.1	
746.14	4473.4	
746.32	7407.5	
746.5	6630.6	
746.68	5053.7	
746.86	4511	
747.03	7120.1	
747.21	5240.8	
747.39	5107.6	
747.57	4499.4	
747.75	6202.6	
747.93	6632	
748.11	4533.5	
748.29	4402.5	
748.47	7933.8	
748.65	5864	
748.83	5256.5	
749.01	4948.6	
749.19	6448.4	
749.37	5516.5	
749.55	4837.3	
749.73	4902.2	
749.91	6074.3	
750.09	5774.6	
750.26	5008.6	
750.44	4324.6	
750.62	6119.3	
750.8	6079.1	
750.98	4095.9	
751.16	4604.5	
751.34	6134.3	
751.52	5435.3	
751.7	5458.5	
751.88	4065.2	
752.06	6608.1	
752.24	6480.5	
752.42	4060.4	
752.59	4489.8	
752.77	5989.6	
752.95	7378.8	
753.13	5331.5	
753.31	4633.9	
753.49	5717.2	
753.67	6253.1	
753.85	4929.5	
754.03	4519.9	
754.21	6484.6	
754.38	6949.4	
754.56	4714.4	
754.74	3723.2	
754.92	5739.8	
755.1	6516	
755.28	3843.4	
755.46	3878.2	
755.64	7459.4	
755.82	7614.3	
755.99	4306.2	
756.17	4427.7	
756.35	4970.4	
756.53	6680.5	
756.71	3291.8	
756.89	4324.6	
757.07	6259.3	
757.25	5280.3	
757.42	4820.2	
757.6	5810.1	
757.78	6253.8	
757.96	5124.7	
758.14	4445.5	
758.32	3923.9	
758.5	4704.2	
758.67	5629.9	
758.85	4296.6	
759.03	4420.2	
759.21	5840.1	
759.39	5175.9	
759.57	3828.3	
759.75	5119.9	
759.92	6433.4	
760.1	5647.6	
760.28	5497.4	
760.46	5763	
760.64	5382.7	
760.82	5119.9	
760.99	4977.9	
761.17	4321.2	
761.35	6266.1	
761.53	5173.2	
761.71	4468	
761.89	5233.2	
762.06	6143.2	
762.24	5507	
762.42	4541.7	
762.6	4326.7	
762.78	5558.9	
762.96	6226.5	
763.13	4907.6	
763.31	4590.2	
763.49	6425.2	
763.67	5504.9	
763.85	5453.7	
764.02	6098.9	
764.2	6679.8	
764.38	5801.2	
764.56	4435.9	
764.74	5383.4	
764.91	6859.3	
765.09	5620.3	
765.27	4035.9	
765.45	3825.6	
765.63	6869.6	
765.8	6784.9	
765.98	3554.6	
766.16	3954.6	
766.34	5205.9	
766.52	5027.1	
766.69	5035.3	
766.87	3835.2	
767.05	5658.5	
767.23	6462.7	
767.41	4085.7	
767.58	4401.8	
767.76	6325.5	
767.94	6436.1	
768.12	4241.3	
768.29	5098.8	
768.47	5784.8	
768.65	6486.6	
768.83	3860.4	
769	5156.1	
769.18	5279	
769.36	6096.8	
769.54	5109	
769.72	3931.4	
769.89	6420.4	
770.07	6523.5	
770.25	4248.2	
770.43	5718.6	
770.6	7185.6	
770.78	7684	
770.96	4524	
771.14	5237.3	
771.31	6272.9	
771.49	5608	
771.67	3638.6	
771.85	3858.4	
772.02	4770.4	
772.2	5636.7	
772.38	4737.6	
772.55	4162.8	
772.73	5936.4	
772.91	5663.3	
773.09	4575.2	
773.26	4683	
773.44	5866.7	
773.62	5567.7	
773.8	4035.2	
773.97	3763.5	
774.15	5971.2	
774.33	5575.9	
774.5	3904.1	
774.68	4345.1	
774.86	6156.2	
775.04	5624.4	
775.21	4037.9	
775.39	4087.7	
775.57	5884.5	
775.74	6412.9	
775.92	3863.2	
776.1	3835.8	
776.27	5943.2	
776.45	7246.4	
776.63	4061.1	
776.81	3579.8	
776.98	5459.9	
777.16	6693.4	
777.34	4265.2	
777.51	4584.7	
777.69	5439.4	
777.87	5248.9	
778.04	4265.2	
778.22	4985.4	
778.4	5283.1	
778.57	5997.8	
778.75	3485	
778.93	3820.8	
779.1	5043.5	
779.28	4942.4	
779.46	3546.4	
779.64	4049.5	
779.81	6198.5	
779.99	7180.2	
780.17	5010	
780.34	5141.8	
780.52	5609.4	
780.69	5806	
780.87	4481	
781.05	4005.8	
781.22	5683.8	
781.4	5795.1	
781.58	4070.7	
781.75	3186	
781.93	5707.7	
782.11	5042.8	
782.28	5117.2	
782.46	4134.2	
782.64	4893.3	
782.81	5976.7	
782.99	4232.5	
783.17	4184	
783.34	5859.2	
783.52	4983.4	
783.69	4458.4	
783.87	5271.5	
784.05	5036	
784.22	5157.5	
784.4	5362.3	
784.58	4520.5	
784.75	6134.3	
784.93	5160.9	
785.1	4197.7	
785.28	4922.6	
785.46	5844.2	
785.63	5113.1	
785.81	4093.9	
785.99	3941.7	
786.16	5266	
786.34	5724.1	
786.51	4046.1	
786.69	4474.8	
786.87	4881	
787.04	5409.4	
787.22	3817.4	
787.39	4919.9	
787.57	5093.3	
787.75	6397.9	
787.92	5199.1	
788.1	5123.3	
788.27	5253	
788.45	4861.9	
788.63	4776.5	
788.8	3347.1	
788.98	5541.8	
789.15	4836.6	
789.33	3444.7	
789.5	4235.9	
789.68	6100.2	
789.86	6283.2	
790.03	4671.4	
790.21	4071.4	
790.38	6128.2	
790.56	5268.1	
790.73	3875.4	
790.91	4001	
791.09	5108.3	
791.26	5989.6	
791.44	4176.5	
791.61	3571.7	
791.79	5148.6	
791.96	5233.2	
792.14	3710.9	
792.32	3257	
792.49	5104.9	
792.67	5306.3	
792.84	3792.8	
793.02	3560.7	
793.19	5593	
793.37	6429.3	
793.54	3285.6	
793.72	3646.1	
793.89	6526.2	
794.07	5208	
794.25	4414.7	
794.42	3338.2	
794.6	6266.8	
794.77	5893.4	
794.95	4625	
795.12	4030.4	
795.3	5139.7	
795.47	5854.5	
795.65	4442	
795.82	4276.8	
796	5007.3	
796.17	7116	
796.35	4141.7	
796.52	4932.9	
796.7	5724.8	
796.87	5879	
797.05	5175.9	
797.22	5117.9	
797.4	5840.8	
797.57	6980.8	
797.75	4261.1	
797.92	3992.9	
798.1	6192.4	
798.27	5198.4	
798.45	3348.4	
798.62	3663.1	
798.8	5487.2	
798.97	6051.7	
799.15	4540.3	
799.32	4269.3	
799.5	4691.9	
799.67	5573.2	
799.85	4625.7	
800.02	3353.2	
800.2	5108.3	
800.37	5530.2	
800.55	4874.8	
800.72	3997.6	
800.9	5977.3	
801.07	6455.9	
801.25	5500.8	
801.42	4386.1	
801.6	6033.3	
801.77	5740.5	
801.95	4063.2	
802.12	3902.1	
802.29	5591	
802.47	5679	
802.64	4323.3	
802.82	3319.8	
802.99	5108.3	
803.17	6238.1	
803.34	4306.9	
803.52	3796.9	
803.69	7002.7	
803.87	4951.3	
804.04	4246.8	
804.21	4403.1	
804.39	6305	
804.56	5391.6	
804.74	3631.7	
804.91	4481	
805.09	5201.8	
805.26	5366.4	
805.44	3627	
805.61	4076.8	
805.78	5861.3	
805.96	5879.7	
806.13	4474.8	
806.31	4797	
806.48	4685.1	
806.66	5283.8	
806.83	4375.1	
807	4331.5	
807.18	5168.4	
807.35	5586.2	
807.53	4293.2	
807.7	3405.1	
807.87	6437.4	
808.05	5244.8	
808.22	4735.6	
808.4	3375.1	
808.57	5194.3	
808.74	4859.8	
808.92	3877.5	
809.09	5064.6	
809.27	5022.3	
809.44	5743.2	
809.61	3422.8	
809.79	3858.4	
809.96	6416.3	
810.14	6038.8	
810.31	3361.4	
810.48	4112.3	
810.66	5328.8	
810.83	6182.8	
811.01	3905.5	
811.18	4426.3	
811.35	6051.1	
811.53	4595	
811.7	4833.2	
811.87	4443.4	
812.05	5248.3	
812.22	5134.9	
812.39	3792.8	
812.57	3710.2	
812.74	5240.1	
812.92	7053.9	
813.09	4150.6	
813.26	4521.9	
813.44	6711.9	
813.61	5165.7	
813.78	3414	
813.96	4639.3	
814.13	5231.2	
814.3	4880.3	
814.48	5040.7	
814.65	4085	
814.82	6559.6	
815	4940.4	
815.17	4208.6	
815.34	5253	
815.52	5164.3	
815.69	5119.2	
815.87	4208.6	
816.04	4188.1	
816.21	5278.3	
816.38	4615.4	
816.56	4119.1	
816.73	3810.6	
816.9	6674.3	
817.08	6066.8	
817.25	3829.7	
817.42	4928.1	
817.6	4811.4	
817.77	5274.9	
817.94	4375.1	
818.12	3792.8	
818.29	4910.3	
818.46	7956.4	
818.64	3956	
818.81	3702	
818.98	4851	
819.16	7164.5	
819.33	4579.3	
819.5	4313.7	
819.67	5628.5	
819.85	6386.9	
820.02	4116.4	
820.19	4515.1	
820.37	5441.5	
820.54	4982	
820.71	4397.7	
820.88	5407.3	
821.06	5485.8	
821.23	4988.9	
821.4	4376.5	
821.58	4272.7	
821.75	6024.4	
821.92	5337	
822.09	3469.3	
822.27	3759.4	
822.44	5261.2	
822.61	5133.6	
822.79	3507.5	
822.96	6782.9	
823.13	5750	
823.3	4979.3	
823.48	4020.8	
823.65	3575.1	
823.82	5983.5	
823.99	4726	
824.17	5180	
824.34	3715	
824.51	6985.6	
824.68	5325.4	
824.86	3867.9	
825.03	4379.9	
825.2	5230.5	
825.37	6448.4	
825.55	3873.4	
825.72	4209.9	
825.89	7041.6	
826.06	6556.9	
826.24	4197	
826.41	4104.8	
826.58	6414.2	
826.75	5610.1	
826.92	3253.5	
827.1	3595.6	
827.27	8828.1	
827.44	7060	
827.61	3916.4	
827.79	4775.9	
827.96	4964.3	
828.13	5357.5	
828.3	4085	
828.47	3515.7	
828.65	5493.3	
828.82	5369.8	
828.99	5439.4	
829.16	4718.5	
829.34	5881.1	
829.51	5582.1	
829.68	4276.8	
829.85	4478.2	
830.02	6201.2	
830.2	5976	
830.37	3253.5	
830.54	5191.6	
830.71	6765.1	
830.88	5211.4	
831.05	3347.7	
831.23	3966.2	
831.4	6443.6	
831.57	7245.7	
831.74	3943.7	
831.91	3480.2	
832.09	5474.2	
832.26	5881.8	
832.43	4115.7	
832.6	4628.4	
832.77	5487.2	
832.94	6312.5	
833.12	3260.4	
833.29	4045.4	
833.46	5067.4	
833.63	7518.8	
833.8	4569.7	
833.97	4126	
834.15	5890	
834.32	5672.9	
834.49	4249.5	
834.66	4419.5	
834.83	6173.3	
835	4922.6	
835.17	3941.7	
835.35	4008.6	
835.52	5743.9	
835.69	5645.6	
835.86	4224.3	
836.03	3422.2	
836.2	5844.9	
836.37	5452.4	
836.55	4138.3	
836.72	3843.4	
836.89	5409.4	
837.06	5894.7	
837.23	4227	
837.4	4583.4	
837.57	6732.4	
837.75	7688.8	
837.92	3766.2	
838.09	4008.6	
838.26	5412.1	
838.43	6219.7	
838.6	4386.7	
838.77	3837.9	
838.94	7079.8	
839.11	6788.3	
839.29	4110.3	
839.46	3190.1	
839.63	5838.1	
839.8	5634.6	
839.97	4004.5	
840.14	4014	
840.31	5607.3	
840.48	5943.9	
840.65	3264.5	
840.82	3891.8	
841	5791	
841.17	5826.5	
841.34	3654.9	
841.51	3699.3	
841.68	5793.7	
841.85	5554.1	
842.02	3827.7	
842.19	3123.8	
842.36	5522	
842.53	5620.3	
842.7	3394.2	
842.87	4566.3	
843.05	7450.5	
843.22	5497.4	
843.39	3452.2	
843.56	3723.9	
843.73	5302.9	
843.9	5915.9	
844.07	6013.5	
844.24	5031.9	
844.41	8800.1	
844.58	5068.7	
844.75	3518.4	
844.92	3828.3	
845.09	5866.7	
845.26	5808.7	
845.43	3644.7	
845.6	3910.3	
845.77	5877	
845.94	5577.3	
846.12	4041.3	
846.29	4285.7	
846.46	6062.7	
846.63	5855.8	
846.8	3652.9	
846.97	4343.7	
847.14	6402.6	
847.31	5797.8	
847.48	4106.2	
847.65	4517.8	
847.82	6165.8	
847.99	6183.5	
848.16	4948.6	
848.33	4532.2	
848.5	5368.4	
848.67	6367.1	
848.84	3648.8	
849.01	3850.9	
849.18	5254.4	
849.35	4836.6	
849.52	4635.2	
849.69	3599.6	
849.86	6077	
850.03	6328.9	
850.2	3707.5	
850.37	4529.4	
850.54	6258.6	
850.71	5454.4	
850.88	4380.6	
851.05	3585.3	
851.22	5717.9	
851.39	6488.6	
851.56	3452.9	
851.73	4147.8	
851.9	5048.9	
852.07	6135.7	
852.24	4099.4	
852.41	3593.5	
852.58	5682.4	
852.75	5194.3	
852.92	4117.8	
853.09	3577.1	
853.26	5426.4	
853.43	6326.9	
853.6	3609.2	
853.77	3106.1	
853.94	6455.9	
854.11	5816.2	
854.28	5483.8	
854.44	3953.3	
854.61	6951.5	
854.78	6210.8	
854.95	3638.6	
855.12	4669.4	
855.29	4641.4	
855.46	6559.6	
855.63	3656.3	
855.8	5115.8	
855.97	5416.9	
856.14	6165.8	
856.31	5218.9	
856.48	3977.8	
856.65	5379.3	
856.82	5016.8	
856.99	3508.2	
857.16	3918.4	
857.33	7206.1	
857.49	5536.3	
857.66	3919.1	
857.83	4242.7	
858	5431.2	
858.17	5684.5	
858.34	3394.8	
858.51	3646.1	
858.68	6650.4	
858.85	6696.9	
859.02	4249.5	
859.19	4558.8	
859.36	5102.9	
859.52	5096.7	
859.69	3665.9	
859.86	4334.9	
860.03	5216.9	
860.2	6472.3	
860.37	3280.2	
860.54	3648.1	
860.71	6078.4	
860.88	6531	
861.05	4099.4	
861.21	4582.7	
861.38	6595.1	
861.55	5011.4	
861.72	3268.6	
861.89	4151.2	
862.06	6171.2	
862.23	6727.6	
862.4	3577.8	
862.56	3828.3	
862.73	5994.4	
862.9	5613.5	
863.07	4300.1	
863.24	3248.1	
863.41	4987.5	
863.58	5074.2	
863.75	3701.4	
863.91	4245.4	
864.08	6571.2	
864.25	6015.6	
864.42	4657.1	
864.59	5188.9	
864.76	6827.2	
864.93	5144.5	
865.09	3543.7	
865.26	3852.9	
865.43	6403.3	
865.6	6777.4	
865.77	3102.7	
865.94	3638.6	
866.1	6449.7	
866.27	6225.8	
866.44	5566.4	
866.61	3416	
866.78	5478.3	
866.95	5994.4	
867.11	3538.9	
867.28	3218	
867.45	6272.9	
867.62	5225.1	
867.79	4292.5	
867.96	3625.6	
868.12	5102.9	
868.29	6218.3	
868.46	3660.4	
868.63	4878.9	
868.8	6303	
868.97	6047	
869.13	3867.2	
869.3	3789.4	
869.47	5955.5	
869.64	6215.6	
869.81	3611.3	
869.97	3675.4	
870.14	5861.3	
870.31	6602.7	
870.48	3531.4	
870.65	4681	
870.81	5447.6	
870.98	5403.2	
871.15	4160.8	
871.32	3852.9	
871.48	5993	
871.65	6648.4	
871.82	3661.1	
871.99	4022.2	
872.16	7182.2	
872.32	6499.6	
872.49	3702	
872.66	3717.1	
872.83	6084.5	
872.99	5361.6	
873.16	4175.8	
873.33	3611.9	
873.5	5754.8	
873.67	5688.6	
873.83	3789.4	
874	4943.8	
874.17	5890.6	
874.34	7042.3	
874.5	4777.9	
874.67	4564.9	
874.84	6516	
875.01	5145.9	
875.17	5241.4	
875.34	3602.4	
875.51	5773.2	
875.68	7049.8	
875.84	4449.6	
876.01	5420.3	
876.18	6086.6	
876.34	6000.5	
876.51	3653.6	
876.68	3635.1	
876.85	5495.4	
877.01	6360.3	
877.18	5288.5	
877.35	3553.9	
877.52	5588.2	
877.68	4997.7	
877.85	3564.1	
878.02	3590.1	
878.18	5637.4	
878.35	5315.2	
878.52	2963.4	
878.69	4151.2	
878.85	6097.5	
879.02	6033.3	
879.19	5197.1	
879.35	3940.3	
879.52	6039.5	
879.69	6368.5	
879.86	3117.7	
880.02	4101.4	
880.19	5598.5	
880.36	6917.4	
880.52	4188.1	
880.69	4302.1	
880.86	6172.6	
881.02	6197.2	
881.19	4031.8	
881.36	3947.8	
881.52	6044.9	
881.69	5331.5	
881.86	3863.8	
882.02	3820.8	
882.19	6330.3	
882.36	7491.5	
882.52	3742.3	
882.69	5187.5	
882.86	5861.3	
883.02	5713.2	
883.19	4433.2	
883.36	4186.7	
883.52	6165.1	
883.69	7072.3	
883.86	3674.1	
884.02	3273.3	
884.19	6166.4	
884.36	5618.9	
884.52	4154.6	
884.69	3844	
884.86	5366.4	
885.02	6830	
885.19	4113	
885.36	4257	
885.52	5632.6	
885.69	5819	
885.86	5330.2	
886.02	4717.8	
886.19	6101.6	
886.35	5517.2	
886.52	3982.6	
886.69	5146.5	
886.85	5136.3	
887.02	6560.3	
887.19	6560.3	
887.35	6560.3	
887.52	6560.3	
887.68	6560.3	
887.85	6560.3	
888.02	6560.3	
888.18	6560.3	
888.35	6560.3	
888.51	6560.3	
888.68	6560.3	
888.85	6560.3	
889.01	6560.3	
889.18	6560.3	
889.35	6560.3	
889.51	6560.3	
889.68	6560.3	
889.84	6560.3	
890.01	6560.3	
890.17	6560.3	
890.34	6560.3	
890.51	6560.3	
890.67	6560.3	
890.84	6560.3	
891	6560.3	
891.17	6560.3	
891.34	6560.3	
891.5	6560.3	
891.67	6560.3	
891.83	6560.3	
892	6560.3	
892.16	6560.3	
892.33	6560.3	
892.5	6560.3	
892.66	6560.3	
892.83	6560.3	
892.99	6560.3	
893.16	6560.3	
893.32	6560.3	
893.49	6560.3	
893.65	6560.3	
893.82	6560.3	
893.99	6560.3	
894.15	6560.3	
894.32	6560.3	
894.48	6560.3	
894.65	6560.3	
894.81	6560.3	
894.98	6560.3	
895.14	6560.3	
895.31	6560.3	
895.47	6560.3	
895.64	6560.3	
895.81	6560.3	
895.97	6560.3	
896.14	6560.3	
896.3	6560.3	
896.47	6560.3	
896.63	6560.3	
896.8	6560.3	
896.96	6560.3	
897.13	6560.3	
897.29	6560.3	
897.46	6560.3	
897.62	6560.3	
897.79	6560.3	
897.95	6560.3	
898.12	6560.3	
898.28	6560.3	
898.45	6560.3	
898.61	6560.3	
898.78	6560.3	
898.94	6560.3	
899.11	6560.3	
899.27	6560.3	
899.44	6560.3	
899.6	6560.3	
899.77	6560.3	
899.93	6560.3	
900.1	6560.3	
900.26	6560.3	
900.43	6560.3	
900.59	6560.3	
900.76	6560.3	
900.92	6560.3	
901.09	6560.3	
901.25	6560.3	
901.42	6560.3	
901.58	6560.3	
901.75	6560.3	
901.91	6560.3	
902.07	6560.3	
902.24	6560.3	
902.4	6560.3	
902.57	6560.3	
902.73	6560.3	
902.9	6560.3	
903.06	6560.3	
903.23	6560.3	
903.39	6560.3	
903.56	6560.3	
903.72	6560.3	
903.88	6560.3	
904.05	6560.3	
904.21	6560.3	
904.38	6560.3	
904.54	6560.3	
904.71	6560.3	
904.87	6560.3	
905.03	6560.3	
905.2	6560.3	
905.36	6560.3	
905.53	6560.3	
905.69	6560.3	
905.86	6560.3	
906.02	6560.3	
906.18	6560.3	
906.35	6560.3	
906.51	6560.3	
906.68	6560.3	
906.84	6560.3	
907.01	6560.3	
907.17	6560.3	
907.33	6560.3	
907.5	6560.3	
907.66	6560.3	
907.83	6560.3	
907.99	6560.3	
908.15	6560.3	
908.32	6560.3	
908.48	6560.3	
908.65	6560.3	
908.81	6560.3	
908.97	6560.3	
909.14	6560.3	
909.3	6560.3	
909.47	6560.3	
909.63	6560.3	
909.79	6560.3	
909.96	6560.3	
910.12	6560.3	
910.28	6560.3	
910.45	6560.3	
910.61	6560.3	
910.78	6560.3	
910.94	6560.3	
911.1	6560.3	
911.27	6560.3	
911.43	6560.3	
911.59	6560.3	
911.76	6560.3	
911.92	6560.3	
912.08	6560.3	
912.25	6560.3	
912.41	6560.3	
912.57	6560.3	
912.74	6560.3	
912.9	6560.3	
913.07	6560.3	
913.23	6560.3	
913.39	6560.3	
913.56	6560.3	
913.72	6560.3	
913.88	6560.3	
914.05	6560.3	
914.21	6560.3	
914.37	6560.3	
914.54	6560.3	
914.7	6560.3	
914.86	6560.3	
915.03	6560.3	
915.19	6560.3	
