Wavelength	Intensities	
nm	a.u.	
179.22	1512.9	
179.44	1511.7	
179.65	1514.1	
179.86	1509.4	
180.08	1518.2	
180.29	3218.7	
180.51	2607.1	
180.72	4510.3	
180.94	4892.6	
181.15	2396.1	
181.37	2372.2	
181.58	4343.7	
181.79	4413.4	
182.01	2490.3	
182.22	2610.5	
182.44	4539.7	
182.65	3992.9	
182.87	3038.5	
183.08	2742.9	
183.29	4732.2	
183.51	4030.4	
183.72	2508.1	
183.94	3351.8	
184.15	4269.3	
184.37	4197	
184.58	2377.7	
184.79	2848.7	
185.01	4062.5	
185.22	4552	
185.44	2982.5	
185.65	2697.9	
185.86	4339	
186.08	3977.8	
186.29	2314.2	
186.51	2413.9	
186.72	4091.2	
186.94	4609.3	
187.15	2746.3	
187.36	2753.8	
187.58	5533.6	
187.79	4356	
188.01	2794.1	
188.22	4001	
188.43	4942.4	
188.65	4478.9	
188.86	2482.8	
189.08	2798.9	
189.29	4111.6	
189.5	4093.9	
189.72	2580.4	
189.93	2616.6	
190.15	4623.6	
190.36	5158.8	
190.57	2775.7	
190.79	2665.8	
191	4571.1	
191.22	4558.1	
191.43	2799.6	
191.64	2459.6	
191.86	4727.4	
192.07	4569.7	
192.29	2527.2	
192.5	2542.9	
192.71	4574.5	
192.93	4223.6	
193.14	2522.4	
193.35	2615.3	
193.57	4171	
193.78	4629.1	
194	2200.9	
194.21	2490.3	
194.42	3960.1	
194.64	4279.6	
194.85	2720.4	
195.07	3101.3	
195.28	4255	
195.49	3904.8	
195.71	3226.2	
195.92	2435	
196.13	4443.4	
196.35	4362.9	
196.56	3353.2	
196.78	2798.2	
196.99	5199.8	
197.2	4891.9	
197.42	3021.4	
197.63	2742.9	
197.84	3986.7	
198.06	4401.8	
198.27	2551.8	
198.48	3177.1	
198.7	4164.9	
198.91	4346.5	
199.13	2803	
199.34	2738.8	
199.55	4630.5	
199.77	3799.7	
199.98	2506	
200.19	2791.4	
200.41	4259.1	
200.62	4055.7	
200.83	2775.7	
201.05	3031.7	
201.26	4273.4	
201.47	4096.6	
201.69	2508.1	
201.9	2460.3	
202.11	4263.9	
202.33	4800.4	
202.54	2611.8	
202.76	2800.9	
202.97	4294.6	
203.18	4439.3	
203.4	2813.9	
203.61	2942.9	
203.82	4343.1	
204.04	4078.9	
204.25	2796.8	
204.46	2691.7	
204.68	4266.6	
204.89	4340.3	
205.1	2733.4	
205.32	2441.9	
205.53	4530.1	
205.74	4558.8	
205.96	2223.4	
206.17	2770.9	
206.38	4425.7	
206.6	4559.5	
206.81	3017.3	
207.02	2613.9	
207.24	4457.1	
207.45	4640	
207.66	2656.9	
207.88	2417.3	
208.09	4371	
208.3	4282.3	
208.52	2525.1	
208.73	2708.1	
208.94	4269.3	
209.15	4607.9	
209.37	2663	
209.58	2746.3	
209.79	4570.4	
210.01	4186	
210.22	2331.3	
210.43	2358.6	
210.65	4238.6	
210.86	4434.5	
211.07	2615.3	
211.29	2478.7	
211.5	4371.7	
211.71	4245.4	
211.93	2514.9	
212.14	2480.1	
212.35	4238.6	
212.56	4257.7	
212.78	2730.6	
212.99	2336.7	
213.2	4711	
213.42	4175.1	
213.63	2540.8	
213.84	2667.8	
214.06	3950.5	
214.27	3984.7	
214.48	2627.5	
214.69	2765.4	
214.91	4612	
215.12	4632.5	
215.33	2777	
215.55	2948.4	
215.76	5010.7	
215.97	4437.9	
216.18	2693.8	
216.4	2706	
216.61	4072.7	
216.82	4511.7	
217.04	2531.3	
217.25	2548.4	
217.46	4573.8	
217.67	4446.8	
217.89	2314.9	
218.1	2367.5	
218.31	4319.2	
218.53	4401.8	
218.74	2689	
218.95	2544.9	
219.16	4259.1	
219.38	4762.2	
219.59	2539.5	
219.8	2910.2	
220.01	5059.8	
220.23	4248.9	
220.44	3056.3	
220.65	2430.9	
220.87	4341	
221.08	4675.5	
221.29	2471.9	
221.5	2921.1	
221.72	5225.7	
221.93	4055	
222.14	2761.3	
222.35	3123.8	
222.57	4258.4	
222.78	4547.2	
222.99	2770.2	
223.2	2716.3	
223.42	4446.1	
223.63	4466.6	
223.84	2164	
224.05	2200.9	
224.27	4948.6	
224.48	4780	
224.69	3170.9	
224.9	2754.5	
225.12	4387.4	
225.33	4212.7	
225.54	2354.5	
225.75	2517	
225.97	4037.9	
226.18	4220.9	
226.39	2646	
226.6	2530.6	
226.82	4132.8	
227.03	4013.3	
227.24	2763.4	
227.45	2411.1	
227.67	4589.5	
227.88	4668.7	
228.09	3017.3	
228.3	2980.5	
228.52	4431.8	
228.73	4192.2	
228.94	2591.4	
229.15	2421.4	
229.36	4288.4	
229.58	4273.4	
229.79	2635.7	
230	2953.9	
230.21	4878.9	
230.43	4296	
230.64	2782.5	
230.85	2807.8	
231.06	4538.3	
231.28	4491.2	
231.49	2393.4	
231.7	2726.5	
231.91	4511.7	
232.12	4254.3	
232.34	2505.3	
232.55	2621.4	
232.76	4612	
232.97	4307.6	
233.18	2547.7	
233.4	2720.4	
233.61	4307.6	
233.82	4118.5	
234.03	2649.4	
234.25	2598.2	
234.46	5369.8	
234.67	4302.8	
234.88	2833	
235.09	2542.2	
235.31	4330.8	
235.52	4233.2	
235.73	2695.1	
235.94	2382.5	
236.15	4113	
236.37	4919.9	
236.58	2449.4	
236.79	2677.4	
237	4422.9	
237.21	3912.3	
237.43	2846	
237.64	2358.6	
237.85	6406	
238.06	4033.8	
238.27	2777	
238.48	2415.2	
238.7	4536.9	
238.91	4201.7	
239.12	2621.4	
239.33	2742.2	
239.54	4112.3	
239.76	4204.5	
239.97	2686.9	
240.18	2682.8	
240.39	4870.8	
240.6	4364.2	
240.82	2829.6	
241.03	2428.2	
241.24	4216.1	
241.45	4662.5	
241.66	2511.5	
241.87	2856.2	
242.09	4747.2	
242.3	4871.4	
242.51	2912.9	
242.72	2627.5	
242.93	4498	
243.14	4219.5	
243.36	3001.6	
243.57	3224.2	
243.78	4702.1	
243.99	4390.8	
244.2	2615.9	
244.41	2461.7	
244.63	3938.2	
244.84	4342.4	
245.05	2758.6	
245.26	2589.3	
245.47	4483	
245.68	4514.4	
245.9	3280.2	
246.11	2769.5	
246.32	4056.3	
246.53	4373.8	
246.74	3948.5	
246.95	2389.3	
247.16	4093.9	
247.38	4233.2	
247.59	2398.2	
247.8	2714.9	
248.01	3924.6	
248.22	4270.7	
248.43	2462.3	
248.64	2676.7	
248.86	4013.3	
249.07	4092.5	
249.28	2486.9	
249.49	2733.4	
249.7	4561.5	
249.91	4562.9	
250.12	2393.4	
250.34	2405	
250.55	4354.7	
250.76	4270	
250.97	2785.2	
251.18	2774.3	
251.39	4511	
251.6	4394.3	
251.81	2772.9	
252.03	2690.3	
252.24	4104.8	
252.45	4455.7	
252.66	2426.8	
252.87	2827.6	
253.08	4230.4	
253.29	5147.9	
253.5	2458.2	
253.72	3144.3	
253.93	4247.5	
254.14	4803.2	
254.35	2609.8	
254.56	2605	
254.77	4384.7	
254.98	4059.1	
255.19	2565.4	
255.41	3089.7	
255.62	4405.9	
255.83	4585.4	
256.04	2882.9	
256.25	2689	
256.46	4912.4	
256.67	4107.5	
256.88	2732	
257.09	2959.3	
257.31	3992.2	
257.52	4049.5	
257.73	3353.2	
257.94	2606.4	
258.15	4298.7	
258.36	4271.4	
258.57	3050.8	
258.78	2172.2	
258.99	4571.1	
259.2	4126	
259.41	2596.1	
259.63	2650.1	
259.84	4697.4	
260.05	4819.6	
260.26	3124.5	
260.47	2543.6	
260.68	4543.8	
260.89	4201.7	
261.1	3024.2	
261.31	2502.6	
261.52	4657.1	
261.73	4775.9	
261.95	3168.9	
262.16	2818	
262.37	4638.6	
262.58	4713.1	
262.79	3179.1	
263	2575.7	
263.21	4357.4	
263.42	4108.2	
263.63	2796.8	
263.84	2622.8	
264.05	4562.2	
264.26	4742.4	
264.47	3044.6	
264.69	2747	
264.9	4714.4	
265.11	4283.7	
265.32	2478	
265.53	2531.3	
265.74	4352.6	
265.95	3867.9	
266.16	2693.8	
266.37	2934.1	
266.58	4294.6	
266.79	4073.4	
267	2562.7	
267.21	2410.5	
267.42	3995.6	
267.63	4231.8	
267.84	2626.9	
268.06	2357.9	
268.27	4567	
268.48	4603.8	
268.69	2608.4	
268.9	2961.4	
269.11	4536.3	
269.32	3944.4	
269.53	2655.5	
269.74	2512.2	
269.95	4326.7	
270.16	3909.6	
270.37	2723.8	
270.58	2991.4	
270.79	4209.3	
271	4567	
271.21	2766.8	
271.42	2754.5	
271.63	4475.5	
271.84	3925.3	
272.05	2243.9	
272.26	2467.8	
272.47	4214.7	
272.68	4326.7	
272.89	2649.4	
273.11	2861.7	
273.32	4072.7	
273.53	4734.2	
273.74	2782.5	
273.95	2830.3	
274.16	4467.3	
274.37	4247.5	
274.58	2894.5	
274.79	2420.7	
275	4385.4	
275.21	4538.3	
275.42	3302	
275.63	2888.3	
275.84	4448.2	
276.05	5186.1	
276.26	2755.9	
276.47	2610.5	
276.68	4244.1	
276.89	4885.8	
277.1	2936.1	
277.31	2394.1	
277.52	4341	
277.73	4719.9	
277.94	2381.8	
278.15	2594.8	
278.36	4406.5	
278.57	4099.4	
278.78	2599.6	
278.99	2813.9	
279.2	4187.4	
279.41	4045.4	
279.62	3255.6	
279.83	2441.9	
280.04	4972.5	
280.25	4056.3	
280.46	3262.4	
280.67	2687.6	
280.88	4075.5	
281.09	4619.5	
281.3	2809.1	
281.51	3303.4	
281.72	4115.1	
281.93	4440.7	
282.14	2557.2	
282.35	2759.3	
282.56	4616.1	
282.77	4443.4	
282.98	2688.3	
283.19	3014.6	
283.4	5238	
283.61	4229.1	
283.82	2460.3	
284.03	3164.8	
284.24	4415.4	
284.45	4566.3	
284.66	3215.3	
284.87	3022.1	
285.08	4620.2	
285.29	4644.1	
285.5	2416.6	
285.71	2628.9	
285.92	4546.5	
286.12	4951.3	
286.33	3147.7	
286.54	2630.3	
286.75	4459.8	
286.96	4182.6	
287.17	2562.7	
287.38	3031.7	
287.59	4130.8	
287.8	4197.7	
288.01	2635.7	
288.22	2876.7	
288.43	4355.3	
288.64	3906.8	
288.85	3061	
289.06	2887	
289.27	4553.3	
289.48	4748.6	
289.69	3215.3	
289.9	2957.3	
290.11	4725.3	
290.32	4149.2	
290.53	2970.2	
290.74	2803	
290.94	4521.2	
291.15	4534.9	
291.36	2592.7	
291.57	2912.2	
291.78	4229.7	
291.99	3923.2	
292.2	2519.7	
292.41	2775	
292.62	4522.6	
292.83	4420.2	
293.04	3381.9	
293.25	2522.4	
293.46	4218.8	
293.67	4530.8	
293.88	2520.4	
294.09	2507.4	
294.29	4088.4	
294.5	4358.1	
294.71	2704.7	
294.92	2587.9	
295.13	4209.3	
295.34	4912.4	
295.55	2344.9	
295.76	2327.9	
295.97	4390.2	
296.18	4859.8	
296.39	2439.1	
296.6	2540.2	
296.81	4255	
297.01	4497.3	
297.22	2647.3	
297.43	2566.1	
297.64	4203.8	
297.85	3976.5	
298.06	2266.4	
298.27	2328.5	
298.48	4197	
298.69	4119.8	
298.9	2765.4	
299.11	2534.7	
299.31	4036.5	
299.52	4046.1	
299.73	2867.2	
299.94	2809.8	
300.15	4293.9	
300.36	4088.4	
300.57	2840.5	
300.78	2766.8	
300.99	4179.9	
301.2	4223.6	
301.4	2581.1	
301.61	2694.4	
301.82	4428.4	
302.03	4463.9	
302.24	2966.8	
302.45	2451.4	
302.66	4417.5	
302.87	4544.4	
303.08	2550.4	
303.29	3271.3	
303.49	4203.8	
303.7	4154	
303.91	2352.4	
304.12	3143.6	
304.33	3921.2	
304.54	4416.1	
304.75	2532.7	
304.96	2528.6	
305.16	4427.7	
305.37	4749.9	
305.58	2357.2	
305.79	2332	
306	4466.6	
306.21	3945.8	
306.42	2551.1	
306.63	3545	
306.83	4203.1	
307.04	4410.6	
307.25	2785.2	
307.46	2726.5	
307.67	3919.8	
307.88	4414.7	
308.09	2611.2	
308.29	2529.2	
308.5	4336.2	
308.71	4506.9	
308.92	2676.7	
309.13	2479.4	
309.34	4365.6	
309.55	4222.9	
309.75	3035.8	
309.96	2847.4	
310.17	4526	
310.38	4101.4	
310.59	2833.7	
310.8	2795.5	
311.01	4351.9	
311.21	4254.3	
311.42	2510.1	
311.63	2563.4	
311.84	4197.7	
312.05	4262.5	
312.26	2806.4	
312.46	2957.9	
312.67	4156.7	
312.88	3909.6	
313.09	2436.4	
313.3	2470.5	
313.51	4677.6	
313.71	4867.3	
313.92	2521	
314.13	2612.5	
314.34	4401.8	
314.55	4215.4	
314.76	3018	
314.96	2682.8	
315.17	4461.8	
315.38	4386.1	
315.59	2542.9	
315.8	2407.7	
316.01	4600.4	
316.21	4776.5	
316.42	2467.8	
316.63	2751.8	
316.84	4159.4	
317.05	4532.8	
317.26	2858.3	
317.46	2632.3	
317.67	4235.9	
317.88	4467.3	
318.09	3048.1	
318.3	2379.1	
318.5	4216.8	
318.71	4371	
318.92	3635.1	
319.13	2893.8	
319.34	4484.4	
319.54	4655	
319.75	2378.4	
319.96	2347	
320.17	4365.6	
320.38	4567.7	
320.58	2362.7	
320.79	2674	
321	4584	
321.21	4678.9	
321.42	2714.2	
321.62	2319.7	
321.83	4095.3	
322.04	4346.5	
322.25	2647.3	
322.46	2488.3	
322.66	4332.8	
322.87	4485.1	
323.08	2861.7	
323.29	2428.9	
323.5	4887.8	
323.7	3988.8	
323.91	3140.2	
324.12	2851.5	
324.33	4349.2	
324.53	4413.4	
324.74	2781.8	
324.95	2912.2	
325.16	4040	
325.37	4184	
325.57	2500.6	
325.78	2525.1	
325.99	4393.6	
326.2	3986.7	
326.4	3253.5	
326.61	2347.7	
326.82	4235.2	
327.03	4305.5	
327.24	3286.3	
327.44	3083.6	
327.65	4464.6	
327.86	3799.7	
328.07	2822.8	
328.27	2419.3	
328.48	4773.1	
328.69	3986.7	
328.9	3294.5	
329.1	2577	
329.31	4255	
329.52	4649.6	
329.73	2523.8	
329.93	2732.7	
330.14	4346.5	
330.35	4319.8	
330.56	3687.7	
330.76	2904.7	
330.97	4198.3	
331.18	4244.8	
331.39	2723.8	
331.59	2319	
331.8	4571.1	
332.01	4657.8	
332.22	2606.4	
332.42	2775.7	
332.63	4367	
332.84	4012	
333.05	2739.5	
333.25	2514.2	
333.46	4062.5	
333.67	4205.2	
333.88	2613.2	
334.08	2818.7	
334.29	5215.5	
334.5	4527.4	
334.7	2445.3	
334.91	3248.1	
335.12	3940.3	
335.33	4395.6	
335.53	2702	
335.74	3619.4	
335.95	4250.9	
336.16	3999	
336.36	2677.4	
336.57	3022.1	
336.78	3921.2	
336.98	4556.7	
337.19	3206.4	
337.4	2637.1	
337.61	4919.2	
337.81	3957.4	
338.02	2583.2	
338.23	3031	
338.43	4722.6	
338.64	4084.3	
338.85	2531.3	
339.05	3140.9	
339.26	4833.2	
339.47	4016.7	
339.68	2473.9	
339.88	3395.5	
340.09	4472.1	
340.3	4563.6	
340.5	2776.4	
340.71	2321	
340.92	4044.7	
341.13	4622.3	
341.33	2407.7	
341.54	2840.5	
341.75	4422.9	
341.95	4105.5	
342.16	2725.2	
342.37	2887	
342.57	4012.7	
342.78	4162.8	
342.99	2934.7	
343.19	2393.4	
343.4	4501.4	
343.61	4421.6	
343.81	2727.9	
344.02	2384.5	
344.23	4459.1	
344.43	4614.8	
344.64	2982.5	
344.85	2953.2	
345.06	4417.5	
345.26	4581.3	
345.47	2807.8	
345.68	3154.6	
345.88	3988.8	
346.09	4497.3	
346.3	2887.6	
346.5	2253.4	
346.71	4162.2	
346.92	4054.3	
347.12	2426.2	
347.33	2756.6	
347.54	4537.6	
347.74	4756.1	
347.95	2742.9	
348.16	2254.8	
348.36	4143.7	
348.57	3971.7	
348.78	2876	
348.98	2903.3	
349.19	4258.4	
349.39	3910.3	
349.6	2438.4	
349.81	2530.6	
350.01	4434.5	
350.22	4042	
350.43	2776.4	
350.63	3120.4	
350.84	4233.8	
351.05	4080.2	
351.25	2485.6	
351.46	2394.1	
351.67	4496	
351.87	4016.7	
352.08	2656.2	
352.29	2869.2	
352.49	4474.8	
352.7	4319.2	
352.9	2468.5	
353.11	2905.4	
353.32	4855.7	
353.52	4130.1	
353.73	2474.6	
353.94	2998.9	
354.14	4409.3	
354.35	4219.5	
354.55	2567.5	
354.76	2708.8	
354.97	4405.9	
355.17	4135.5	
355.38	2456.2	
355.59	3016.7	
355.79	4041.3	
356	4188.1	
356.2	2715.6	
356.41	2460.3	
356.62	3979.2	
356.82	4134.8	
357.03	2876	
357.24	2626.2	
357.44	4037.9	
357.65	4118.5	
357.85	3235.8	
358.06	2730.6	
358.27	3876.1	
358.47	3948.5	
358.68	2398.2	
358.88	2853.5	
359.09	4337.6	
359.3	4420.2	
359.5	3138.2	
359.71	2889	
359.91	4683	
360.12	4301.4	
360.33	2874	
360.53	3070.6	
360.74	4061.1	
360.94	4151.2	
361.15	2961.4	
361.36	2562	
361.56	4516.5	
361.77	4231.8	
361.97	3240.6	
362.18	2623.4	
362.38	4455.7	
362.59	4004.5	
362.8	2508.1	
363	2462.3	
363.21	3854.3	
363.41	4212.7	
363.62	2770.9	
363.83	3209.8	
364.03	4398.4	
364.24	4716.5	
364.44	3393.5	
364.65	3274.7	
364.85	4123.2	
365.06	4024.3	
365.27	2608.4	
365.47	2660.3	
365.68	4696.7	
365.88	4182.6	
366.09	2802.3	
366.29	2611.2	
366.5	4219.5	
366.71	4406.5	
366.91	3332.7	
367.12	2882.9	
367.32	4885.8	
367.53	4372.4	
367.73	2973.7	
367.94	3418.1	
368.14	4491.2	
368.35	4722.6	
368.56	2856.2	
368.76	2588.6	
368.97	4497.3	
369.17	5274.9	
369.38	2562.7	
369.58	2770.2	
369.79	3884.3	
369.99	4707.6	
370.2	3355.3	
370.4	2760.7	
370.61	4296	
370.82	5042.8	
371.02	2824.1	
371.23	2392.7	
371.43	3958.7	
371.64	4688.5	
371.84	2775	
372.05	3319.1	
372.25	5227.8	
372.46	4290.5	
372.66	2757.2	
372.87	2752.5	
373.07	4356.7	
373.28	5397.8	
373.48	3277.4	
373.69	3101.3	
373.9	4203.1	
374.1	4154.6	
374.31	3297.9	
374.51	3001	
374.72	4552.6	
374.92	4066.6	
375.13	3351.2	
375.33	2964.8	
375.54	4354.7	
375.74	4190.1	
375.95	3015.3	
376.15	3595.6	
376.36	4502.8	
376.56	4346.5	
376.77	2968.9	
376.97	3197.6	
377.18	5051.7	
377.38	4483.7	
377.59	3332	
377.79	2781.8	
378	4310.3	
378.2	4459.8	
378.41	2763.4	
378.61	2691.7	
378.82	4665.3	
379.02	4229.1	
379.23	2862.4	
379.43	3385.3	
379.64	4762.2	
379.84	4442	
380.05	2759.3	
380.25	2721.8	
380.46	4531.5	
380.66	4289.1	
380.87	3511.6	
381.07	3663.8	
381.28	4852.3	
381.48	4482.3	
381.69	2800.9	
381.89	2828.9	
382.1	3997	
382.3	4512.4	
382.51	3446.7	
382.71	3817.4	
382.91	4367.6	
383.12	4728.1	
383.32	2957.9	
383.53	3041.2	
383.73	4425	
383.94	4402.5	
384.14	3016	
384.35	2638.5	
384.55	4194.2	
384.76	4476.9	
384.96	3035.8	
385.17	3134.1	
385.37	4524	
385.58	4037.2	
385.78	3075.4	
385.98	2592	
386.19	4240	
386.39	4452.3	
386.6	2826.2	
386.8	2971.6	
387.01	4463.9	
387.21	4579.9	
387.42	3191.4	
387.62	3467.2	
387.83	4186	
388.03	4259.8	
388.23	3024.8	
388.44	3405.8	
388.64	4020.8	
388.85	3973.1	
389.05	3080.8	
389.26	3468.6	
389.46	5227.1	
389.67	4787.5	
389.87	3220.1	
390.07	3190.7	
390.28	4270.7	
390.48	4073.4	
390.69	2764.1	
390.89	2982.5	
391.1	4240.7	
391.3	4611.3	
391.5	3551.9	
391.71	3871.3	
391.91	4565.6	
392.12	4917.2	
392.32	3622.2	
392.53	3224.9	
392.73	4293.2	
392.93	4336.2	
393.14	3097.9	
393.34	3383.9	
393.55	4648.9	
393.75	4286.4	
393.95	3042.6	
394.16	2990.7	
394.36	4293.2	
394.57	4577.9	
394.77	2794.1	
394.98	2940.2	
395.18	4239.3	
395.38	4240	
395.59	3493.8	
395.79	2859	
396	4312.3	
396.2	4615.4	
396.4	3373.7	
396.61	3282.9	
396.81	4540.3	
397.02	4243.4	
397.22	3524.6	
397.42	3517.7	
397.63	4736.3	
397.83	4185.4	
398.04	2854.2	
398.24	3110.9	
398.44	4534.2	
398.65	3934.1	
398.85	2770.9	
399.05	2751.8	
399.26	4283.7	
399.46	5092.6	
399.67	3083.6	
399.87	2945.7	
400.07	4405.9	
400.28	4614.1	
400.48	2943.6	
400.69	3474	
400.89	4674.8	
401.09	4954.7	
401.3	2932.7	
401.5	3464.5	
401.7	4986.8	
401.91	5212.8	
402.11	3166.2	
402.32	3257	
402.52	4769	
402.72	4694.6	
402.93	3379.1	
403.13	2723.1	
403.33	5195	
403.54	4467.3	
403.74	3177.8	
403.94	3636.5	
404.15	4448.9	
404.35	5113.8	
404.56	3055.6	
404.76	3954.6	
404.96	4786.1	
405.17	4594.3	
405.37	3508.9	
405.57	3373	
405.78	4748.6	
405.98	4429.8	
406.18	3089.7	
406.39	3506.1	
406.59	4744.5	
406.79	4398.4	
407	2955.9	
407.2	2962	
407.4	5028.4	
407.61	4859.1	
407.81	3040.6	
408.01	4285	
408.22	4104.8	
408.42	5182.7	
408.62	3652.2	
408.83	3338.2	
409.03	4522.6	
409.23	4518.5	
409.44	3350.5	
409.64	3507.5	
409.84	5094.7	
410.05	5110.4	
410.25	3499.3	
410.45	3347.7	
410.66	4762.2	
410.86	6171.9	
411.06	3644.7	
411.27	3482.2	
411.47	6036	
411.67	4876.9	
411.88	3682.9	
412.08	3771.7	
412.28	5224.4	
412.49	5466.7	
412.69	3532.7	
412.89	3560.1	
413.09	5423	
413.3	5297.4	
413.5	3659	
413.7	3445.4	
413.91	4913.8	
414.11	5381.4	
414.31	3510.9	
414.52	3734.8	
414.72	5269.4	
414.92	5134.9	
415.12	3517	
415.33	3865.9	
415.53	5300.8	
415.73	5464.7	
415.94	3973.7	
416.14	3686.3	
416.34	4945.2	
416.55	4724.7	
416.75	4309.6	
416.95	4040	
417.15	5528.8	
417.36	5728.9	
417.56	4491.9	
417.76	3922.5	
417.97	5553.4	
418.17	5430.5	
418.37	3820.1	
418.57	3725.3	
418.78	5432.6	
418.98	5256.5	
419.18	4273.4	
419.38	4206.5	
419.59	5054.4	
419.79	4982.7	
419.99	3657	
420.2	3831.1	
420.4	5472.9	
420.6	5446.9	
420.8	3646.1	
421.01	3547.8	
421.21	5395.7	
421.41	5288.5	
421.61	3887.7	
421.82	3706.8	
422.02	5148.6	
422.22	5580	
422.42	4106.2	
422.63	3924.6	
422.83	5143.1	
423.03	5797.8	
423.23	3904.8	
423.44	3388	
423.64	5083.1	
423.84	4980	
424.04	3685	
424.25	3446.7	
424.45	5664.7	
424.65	5629.9	
424.85	3355.9	
425.06	3704.1	
425.26	5877	
425.46	5126.1	
425.66	4018.8	
425.87	3739.6	
426.07	5514.5	
426.27	5406	
426.47	3818.1	
426.67	3476.8	
426.88	5810.8	
427.08	5414.8	
427.28	4020.2	
427.48	3431	
427.69	4833.9	
427.89	5168.4	
428.09	3884.3	
428.29	3400.3	
428.5	5466	
428.7	5324.7	
428.9	3410.6	
429.1	3693.2	
429.3	5359.5	
429.51	5409.4	
429.71	3685	
429.91	4063.9	
430.11	5469.4	
430.31	5767.1	
430.52	3745.7	
430.72	3904.8	
430.92	5780.1	
431.12	5423	
431.32	3633.8	
431.53	3863.8	
431.73	4901.5	
431.93	5752.7	
432.13	3555.3	
432.33	3509.5	
432.54	5244.8	
432.74	5193	
432.94	3459.7	
433.14	4076.1	
433.34	5596.4	
433.55	5250.3	
433.75	4009.2	
433.95	4934.9	
434.15	5401.2	
434.35	5081.7	
434.56	3620.1	
434.76	3374.4	
434.96	5402.5	
435.16	5463.3	
435.36	3560.1	
435.56	4192.2	
435.77	5202.5	
435.97	5269.4	
436.17	4584.7	
436.37	4080.9	
436.57	5134.3	
436.78	5107.6	
436.98	4078.9	
437.18	4467.3	
437.38	5412.1	
437.58	5137	
437.78	4493.9	
437.99	3766.2	
438.19	5584.1	
438.39	5998.5	
438.59	3777.1	
438.79	3477.5	
438.99	5883.1	
439.2	5140.4	
439.4	3474.7	
439.6	3519.8	
439.8	5270.1	
440	5960.3	
440.2	4166.3	
440.4	4119.1	
440.61	5689.3	
440.81	5831.2	
441.01	3667.9	
441.21	4186	
441.41	5948	
441.61	5620.3	
441.81	4313	
442.02	4825	
442.22	6200.6	
442.42	5698.8	
442.62	3706.8	
442.82	3840.6	
443.02	5988.9	
443.22	5448.3	
443.43	3967.6	
443.63	3616	
443.83	5315.2	
444.03	5265.3	
444.23	4370.4	
444.43	4208.6	
444.63	5610.8	
444.83	6145.3	
445.04	3948.5	
445.24	4475.5	
445.44	5782.8	
445.64	5699.5	
445.84	4313	
446.04	4252.9	
446.24	5326.1	
446.44	5956.9	
446.65	3753.9	
446.85	4022.2	
447.05	5563	
447.25	5940.5	
447.45	4102.8	
447.65	3673.4	
447.85	5603.2	
448.05	5311.1	
448.25	4248.9	
448.46	4106.9	
448.66	5584.1	
448.86	5376.6	
449.06	3679.5	
449.26	4315.1	
449.46	5741.8	
449.66	5248.9	
449.86	4109.6	
450.06	4012	
450.26	5302.2	
450.47	5700.9	
450.67	4125.3	
450.87	4366.3	
451.07	5893.4	
451.27	5547.9	
451.47	3803.1	
451.67	4276.8	
451.87	5446.2	
452.07	6115.9	
452.27	3960.8	
452.47	3911.6	
452.67	5716.6	
452.88	5737	
453.08	3602.4	
453.28	4615.4	
453.48	6283.2	
453.68	5531.6	
453.88	3899.3	
454.08	3990.8	
454.28	5877	
454.48	5598.5	
454.68	4336.2	
454.88	4529.4	
455.08	6021.7	
455.28	5690.6	
455.48	3873.4	
455.68	4318.5	
455.89	6212.9	
456.09	5855.8	
456.29	4054.3	
456.49	4198.3	
456.69	6118	
456.89	5725.4	
457.09	4394.3	
457.29	4569.7	
457.49	5883.1	
457.69	5937.1	
457.89	4382	
458.09	3936.9	
458.29	5830.6	
458.49	6199.2	
458.69	4532.8	
458.89	4186.7	
459.09	6299.6	
459.29	6297.5	
459.49	4200.4	
459.69	4673.5	
459.9	6076.3	
460.1	5826.5	
460.3	4252.3	
460.5	4112.3	
460.7	6066.8	
460.9	5725.4	
461.1	4010.6	
461.3	4646.2	
461.5	6516.6	
461.7	6161	
461.9	4257	
462.1	4391.5	
462.3	5988.3	
462.5	6269.5	
462.7	4272.7	
462.9	4327.4	
463.1	6892.1	
463.3	6636.1	
463.5	4469.4	
463.7	4958.8	
463.9	6095.4	
464.1	6321.4	
464.3	4492.6	
464.5	4653	
464.7	6533.7	
464.9	6339.1	
465.1	5411.4	
465.3	4840.7	
465.5	6614.3	
465.7	6690.7	
465.9	5054.4	
466.1	4812.7	
466.3	6509.8	
466.5	6513.2	
466.7	5337	
466.9	4789.5	
467.1	6625.9	
467.3	6915.3	
467.5	5423.7	
467.7	4814.8	
467.9	7157	
468.1	7552.9	
468.3	5178.6	
468.5	5437.4	
468.7	6491.4	
468.9	6385.6	
469.1	4924.7	
469.3	5291.3	
469.5	7527	
469.7	6233.3	
469.9	5218.2	
470.1	4849.6	
470.3	6577.4	
470.5	6536.4	
470.7	5522	
470.9	4916.5	
471.1	6374.6	
471.3	6640.9	
471.5	4828.4	
471.69	5735	
471.89	6395.8	
472.09	5974.6	
472.29	5230.5	
472.49	5360.9	
472.69	6172.6	
472.89	6516	
473.09	4739.7	
473.29	4786.1	
473.49	6313.9	
473.69	6238.1	
473.89	5292.6	
474.09	4889.9	
474.29	7064.1	
474.49	6749.4	
474.69	5289.9	
474.89	4943.1	
475.09	6272.2	
475.29	6358.3	
475.49	4686.4	
475.69	4703.5	
475.88	7197.2	
476.08	6539.2	
476.28	4590.9	
476.48	4658.4	
476.68	6881.9	
476.88	6636.8	
477.08	4798.4	
477.28	4928.8	
477.48	6461.3	
477.68	6623.1	
477.88	4633.2	
478.08	4749.9	
478.28	6896.9	
478.48	6393.1	
478.67	4919.9	
478.87	4487.1	
479.07	6792.4	
479.27	6475	
479.47	5002.5	
479.67	4974.5	
479.87	6709.1	
480.07	7005.4	
480.27	4646.8	
480.47	5362.3	
480.67	6480.5	
480.87	6874.3	
481.06	4787.5	
481.26	5268.1	
481.46	6598.6	
481.66	6415.6	
481.86	5094.7	
482.06	5464.7	
482.26	6337.1	
482.46	6911.2	
482.66	4937	
482.86	4706.2	
483.05	6745.3	
483.25	6234.7	
483.45	6279.1	
483.65	4926	
483.85	6227.9	
484.05	6404.7	
484.25	5166.3	
484.45	5467.4	
484.65	6810.2	
484.84	6930.3	
485.04	4955.4	
485.24	4990.2	
485.44	7182.2	
485.64	6246.3	
485.84	4617.5	
486.04	5369.8	
486.24	6481.1	
486.44	6595.8	
486.63	4542.4	
486.83	5087.8	
487.03	6555.5	
487.23	6477	
487.43	4674.8	
487.63	5885.2	
487.83	6647	
488.02	6768.5	
488.22	5186.1	
488.42	5500.2	
488.62	7116	
488.82	6402	
489.02	5048.9	
489.22	4986.1	
489.41	6902.3	
489.61	6845	
489.81	4855.7	
490.01	4933.6	
490.21	6909.8	
490.41	7376.1	
490.61	4910.3	
490.8	4851.6	
491	6720.8	
491.2	6374	
491.4	5210.7	
491.6	4808.6	
491.8	6727.6	
491.99	6603.3	
492.19	4704.2	
492.39	4824.3	
492.59	6888	
492.79	7012.2	
492.99	5371.8	
493.18	4842.1	
493.38	7134.4	
493.58	7487.4	
493.78	5258.5	
493.98	5038.7	
494.18	6860	
494.37	6479.8	
494.57	5421	
494.77	5367	
494.97	7008.1	
495.17	7188.4	
495.37	5210.7	
495.56	5388.2	
495.76	7149.5	
495.96	7161.1	
496.16	5891.3	
496.36	5341.8	
496.55	7271.7	
496.75	6929.6	
496.95	5526.1	
497.15	5447.6	
497.35	7412.3	
497.54	7144.7	
497.74	5388.2	
497.94	6304.3	
498.14	7643.7	
498.34	7526.3	
498.53	5164.3	
498.73	5629.9	
498.93	6921.5	
499.13	7266.2	
499.33	5595.1	
499.52	5744.6	
499.72	7415	
499.92	7333.8	
500.12	5436.7	
500.32	5593	
500.51	7364.5	
500.71	7221.1	
500.91	5963	
501.11	5812.1	
501.31	7350.8	
501.5	7619.8	
501.7	6164.4	
501.9	5548.6	
502.1	7185.6	
502.29	7489.4	
502.49	5889.3	
502.69	6060.6	
502.89	7482.6	
503.09	7359	
503.28	5331.5	
503.48	5347.2	
503.68	7088.7	
503.88	6909.2	
504.07	5803.9	
504.27	5603.2	
504.47	7166.5	
504.67	7279.2	
504.86	5752.7	
505.06	5638.7	
505.26	7137.9	
505.46	7918.8	
505.65	5588.2	
505.85	5776	
506.05	7038.9	
506.25	7326.3	
506.44	5179.3	
506.64	5711.8	
506.84	6940.6	
507.04	7253.2	
507.23	5352	
507.43	5533.6	
507.63	7956.4	
507.83	6789.7	
508.02	5540.4	
508.22	5319.3	
508.42	8019.8	
508.62	6755.6	
508.81	5427.1	
509.01	5655.8	
509.21	6782.2	
509.4	7036.1	
509.6	5543.9	
509.8	5216.2	
510	6958.3	
510.19	7533.1	
510.39	5171.1	
510.59	5302.9	
510.79	6928.3	
510.98	7641	
511.18	5410.1	
511.38	5419.6	
511.57	7475.8	
511.77	7010.9	
511.97	5756.2	
512.17	5271.5	
512.36	7346.1	
512.56	7105.1	
512.76	5228.5	
512.95	5146.5	
513.15	7547.4	
513.35	6500.3	
513.55	5717.2	
513.74	5252.4	
513.94	7266.2	
514.14	6941.2	
514.33	5877.7	
514.53	5576.6	
514.73	7015.7	
514.92	7072.3	
515.12	5294.7	
515.32	5270.8	
515.51	7170.6	
515.71	7281.9	
515.91	6247	
516.11	5293.3	
516.3	8131.1	
516.5	6952.9	
516.7	5647.6	
516.89	5908.4	
517.09	6965.1	
517.29	7082.6	
517.48	5923.4	
517.68	5511.1	
517.88	6731	
518.07	7242.3	
518.27	5803.3	
518.47	5226.4	
518.66	7521.5	
518.86	6836.1	
519.06	5173.2	
519.25	5403.2	
519.45	6963.8	
519.65	7742.7	
519.84	5821	
520.04	6157.6	
520.24	8045.8	
520.43	7376.8	
520.63	5694	
520.83	5432.6	
521.02	7025.2	
521.22	7236.2	
521.42	5735	
521.61	6020.3	
521.81	7096.2	
522.01	7186.3	
522.2	5679	
522.4	5519.3	
522.6	7524.2	
522.79	6681.2	
522.99	5608	
523.18	5309.7	
523.38	7320.1	
523.58	7301	
523.77	6305.7	
523.97	5284.4	
524.17	8301.1	
524.36	7854.6	
524.56	6100.2	
524.76	5937.7	
524.95	7352.9	
525.15	7280.5	
525.34	5880.4	
525.54	5893.4	
525.74	7702.4	
525.93	7022.5	
526.13	6569.2	
526.33	5952.1	
526.52	7908.6	
526.72	7528.3	
526.91	6509.8	
527.11	6158.9	
527.31	7781.6	
527.5	7983.7	
527.7	6222.4	
527.89	5638.7	
528.09	7347.4	
528.29	7635.5	
528.48	6329.6	
528.68	6071.5	
528.87	7858.7	
529.07	7864.2	
529.27	6217	
529.46	5857.9	
529.66	7684.7	
529.85	7869	
530.05	5820.3	
530.25	6227.2	
530.44	8404.2	
530.64	7560.4	
530.83	6077	
531.03	6165.8	
531.23	7974.1	
531.42	7755.7	
531.62	6569.2	
531.81	6138.4	
532.01	7950.2	
532.21	8113.4	
532.4	6006.7	
532.6	6254.5	
532.79	8400.8	
532.99	8026	
533.18	6343.9	
533.38	6888	
533.58	7851.9	
533.77	8125	
533.97	6350.1	
534.16	6703.7	
534.36	8393.9	
534.55	7804.1	
534.75	6837.5	
534.95	6328.2	
535.14	8418.5	
535.34	7854.6	
535.53	6247	
535.73	7161.1	
535.92	8617.9	
536.12	7803.4	
536.31	6250.4	
536.51	6883.9	
536.71	8145.5	
536.9	7879.2	
537.1	6225.1	
537.29	6330.3	
537.49	8327	
537.68	7843.7	
537.88	6588.3	
538.07	6082.5	
538.27	8024.6	
538.46	8553	
538.66	6114.6	
538.86	6379.4	
539.05	8028	
539.25	8207.6	
539.44	6567.8	
539.64	6267.5	
539.83	7905.2	
540.03	8389.2	
540.22	6173.9	
540.42	6190.3	
540.61	8079.2	
540.81	8115.4	
541	6406.7	
541.2	6791.7	
541.39	7784.3	
541.59	7864.2	
541.78	6734.4	
541.98	6233.3	
542.18	7586.4	
542.37	7473.7	
542.57	6419.7	
542.76	6657.3	
542.96	7671.7	
543.15	7970	
543.35	6363.7	
543.54	5982.1	
543.74	7705.1	
543.93	7804.8	
544.13	6281.1	
544.32	6815	
544.52	8051.9	
544.71	7512.6	
544.91	5796.4	
545.1	6410.8	
545.3	7560.4	
545.49	7815.7	
545.69	5713.2	
545.88	6102.9	
546.08	8512	
546.27	8133.8	
546.47	6310.5	
546.66	5870.8	
546.86	8027.4	
547.05	8196.7	
547.24	6120	
547.44	5931.6	
547.63	7519.5	
547.83	7948.2	
548.02	6225.1	
548.22	6268.8	
548.41	7398.6	
548.61	8020.5	
548.8	5915.9	
549	5913.2	
549.19	7759.8	
549.39	7868.3	
549.58	5769.8	
549.78	6082.5	
549.97	7909.9	
550.17	7539.9	
550.36	6511.9	
550.55	7039.6	
550.75	7604.1	
550.94	8092.9	
551.14	5858.6	
551.33	6108.4	
551.53	7167.2	
551.72	7680.6	
551.92	6008.1	
552.11	5997.1	
552.31	7869.7	
552.5	7732.4	
552.69	6836.1	
552.89	5698.1	
553.08	7750.2	
553.28	7557	
553.47	5867.4	
553.67	6496.2	
553.86	8107.2	
554.06	7097.6	
554.25	5520.6	
554.44	5881.8	
554.64	8495.7	
554.83	8178.9	
555.03	5752.7	
555.22	5980.1	
555.42	7948.8	
555.61	7722.2	
555.8	5795.1	
556	6049	
556.19	7253.2	
556.39	7760.4	
556.58	5901.6	
556.78	5991	
556.97	7704.5	
557.16	7459.4	
557.36	6617.7	
557.55	5724.1	
557.75	7041.6	
557.94	8158.4	
558.13	5727.5	
558.33	5653.8	
558.52	7985.7	
558.72	7110.5	
558.91	5655.1	
559.1	5746.6	
559.3	7092.8	
559.49	6955.6	
559.69	5567.7	
559.88	5997.8	
560.07	7584.3	
560.27	7819.8	
560.46	6102.3	
560.66	6103.6	
560.85	7468.3	
561.04	6984.3	
561.24	5678.3	
561.43	5749.3	
561.63	7068.9	
561.82	7253.2	
562.01	6346	
562.21	5855.8	
562.4	7476.5	
562.59	7957	
562.79	5839.4	
562.98	5603.9	
563.18	7465.5	
563.37	8150.2	
563.56	6016.2	
563.76	5595.7	
563.95	7164.5	
564.14	7193.1	
564.34	5821	
564.53	5670.1	
564.73	7516	
564.92	7456	
565.11	5974.6	
565.31	5541.1	
565.5	7778.9	
565.69	7071.6	
565.89	5812.8	
566.08	5778	
566.27	7705.1	
566.47	7871	
566.66	6293.4	
566.85	5477.6	
567.05	7538.6	
567.24	7218.4	
567.44	5627.8	
567.63	6388.3	
567.82	7620.5	
568.02	7385	
568.21	5641.5	
568.4	5754.8	
568.6	7406.1	
568.79	7291.5	
568.98	5707.7	
569.18	5612.8	
569.37	7366.5	
569.56	8480	
569.76	5808	
569.95	6354.2	
570.14	7578.2	
570.34	7447.1	
570.53	5578	
570.72	5544.5	
570.91	7918.1	
571.11	7331	
571.3	5874.3	
571.49	6341.9	
571.69	7518.1	
571.88	7101.7	
572.07	6098.9	
572.27	6042.2	
572.46	7051.8	
572.65	7569.3	
572.85	5738.4	
573.04	5896.1	
573.23	7810.3	
573.43	7404.1	
573.62	5610.8	
573.81	5840.1	
574	7547.4	
574.2	7319.4	
574.39	5728.9	
574.58	5800.5	
574.78	7973.4	
574.97	7497.6	
575.16	6062.7	
575.36	6140.5	
575.55	7764.5	
575.74	7826	
575.93	5575.9	
576.13	6134.3	
576.32	7409.6	
576.51	7699.7	
576.71	5882.4	
576.9	6584.2	
577.09	7854.6	
577.28	7593.2	
577.48	6017.6	
577.67	5553.4	
577.86	7449.1	
578.05	7535.8	
578.25	5881.1	
578.44	5887.2	
578.63	7510.6	
578.83	8125	
579.02	5643.5	
579.21	6439.5	
579.4	7553.6	
579.6	7500.3	
579.79	5946.6	
579.98	7165.2	
580.17	7753.6	
580.37	7828	
580.56	5711.8	
580.75	6122.1	
580.94	7863.5	
581.14	8100.4	
581.33	6372.6	
581.52	5789.6	
581.71	7696.3	
581.91	8093.6	
582.1	5651	
582.29	5900.9	
582.48	7532.4	
582.68	7450.5	
582.87	6288.6	
583.06	6023.8	
583.25	7799.3	
583.45	7341.3	
583.64	6359.6	
583.83	6681.8	
584.02	7613.7	
584.21	7797.3	
584.41	6397.2	
584.6	6052.4	
584.79	7636.9	
584.98	7780.2	
585.18	5710.4	
585.37	5761.6	
585.56	7493.5	
585.75	7796.6	
585.94	5831.9	
586.14	6206.7	
586.33	8009.6	
586.52	7549.5	
586.71	6125.5	
586.91	5884.5	
587.1	7177.4	
587.29	7763.2	
587.48	5841.5	
587.67	5722	
587.87	7692.9	
588.06	7473	
588.25	6428.6	
588.44	6082.5	
588.63	7376.1	
588.83	7677.8	
589.02	5735.7	
589.21	5657.2	
589.4	7288	
589.59	7176.1	
589.78	5257.1	
589.98	5326.8	
590.17	6857.3	
590.36	7010.2	
590.55	4928.1	
590.74	5326.1	
590.94	7586.4	
591.13	6897.6	
591.32	5253	
591.51	4986.1	
591.7	7096.2	
591.89	6896.2	
592.09	5001.1	
592.28	5278.3	
592.47	6453.1	
592.66	7628.7	
592.85	4986.8	
593.05	5158.8	
593.24	6819.7	
593.43	7333.1	
593.62	5270.1	
593.81	5403.2	
594	7012.2	
594.19	6978.1	
594.39	5174.5	
594.58	5089.2	
594.77	7071.6	
594.96	7373.4	
595.15	5147.2	
595.34	5433.3	
595.54	6910.5	
595.73	6508.4	
595.92	4776.5	
596.11	5276.3	
596.3	7262.1	
596.49	6617	
596.68	5222.3	
596.88	5412.1	
597.07	7102.4	
597.26	6545.3	
597.45	5036.6	
597.64	5615.5	
597.83	6717.3	
598.02	7032.7	
598.22	5059.8	
598.41	5414.1	
598.6	6909.8	
598.79	6532.3	
598.98	5040.1	
599.17	5583.4	
599.36	6972.7	
599.55	7451.9	
599.74	6105.7	
599.94	6046.3	
600.13	7256.6	
600.32	6588.3	
600.51	4887.1	
600.7	5036	
600.89	7563.1	
601.08	7607.5	
601.27	4906.9	
601.47	5296.7	
601.66	7212.3	
601.85	7442.3	
602.04	5309	
602.23	5267.4	
602.42	6685.9	
602.61	6983.6	
602.8	5162.2	
602.99	5139.7	
603.18	6821.8	
603.37	6914.6	
603.57	5459.2	
603.76	5778.7	
603.95	7322.9	
604.14	7055.9	
604.33	5208	
604.52	5370.5	
604.71	6970.6	
604.9	6677.1	
605.09	5655.8	
605.28	5410.1	
605.47	7371.3	
605.66	6961	
605.86	5487.2	
606.05	5107	
606.24	7350.2	
606.43	6408.1	
606.62	5314.5	
606.81	5748.6	
607	7203.4	
607.19	6760.3	
607.38	5030.5	
607.57	5088.5	
607.76	6668.9	
607.95	6260	
608.14	5408	
608.33	5688.6	
608.52	6610.8	
608.72	7115.3	
608.91	4874.8	
609.1	4893.3	
609.29	6689.3	
609.48	6381.5	
609.67	5413.5	
609.86	4993.6	
610.05	6464.8	
610.24	6591	
610.43	4902.8	
610.62	4682.3	
610.81	7339.2	
611	7085.3	
611.19	4947.2	
611.38	5251	
611.57	6854.6	
611.76	7403.4	
611.95	4773.8	
612.14	4735.6	
612.33	6718	
612.52	6412.9	
612.71	5079	
612.9	4645.5	
613.09	6275	
613.28	7544	
613.47	5047.6	
613.66	5426.4	
613.85	6852.5	
614.04	6327.5	
614.24	5086.5	
614.43	4533.5	
614.62	6916.7	
614.81	6799.9	
615	5229.8	
615.19	5259.2	
615.38	6457.9	
615.57	6691.4	
615.76	5178.6	
615.95	5758.2	
616.14	6935.8	
616.33	6666.8	
616.52	5330.9	
616.71	5390.9	
616.9	6826.6	
617.09	6701.6	
617.28	5086.5	
617.47	5638.7	
617.66	6354.8	
617.85	6391.7	
618.04	5488.6	
618.22	5201.2	
618.41	6451.8	
618.6	7123.5	
618.79	5203.2	
618.98	5070.1	
619.17	7180.9	
619.36	6261.3	
619.55	5169.8	
619.74	5165.7	
619.93	6864.8	
620.12	6535.1	
620.31	5514.5	
620.5	5451	
620.69	7038.9	
620.88	7432.8	
621.07	5886.5	
621.26	5328.8	
621.45	7011.6	
621.64	6894.8	
621.83	5450.3	
622.02	4991.6	
622.21	6977.4	
622.4	6946	
622.59	5755.5	
622.78	5624.4	
622.97	6711.9	
623.16	7097.6	
623.35	5555.5	
623.54	4962.9	
623.72	6791.1	
623.91	6748.7	
624.1	5578	
624.29	4926	
624.48	7412.3	
624.67	7056.6	
624.86	5501.5	
625.05	5063.3	
625.24	7473	
625.43	6729.6	
625.62	6427.9	
625.81	5110.4	
626	7060.7	
626.19	6728.9	
626.38	5532.2	
626.56	5288.5	
626.75	6587	
626.94	7019.1	
627.13	5576.6	
627.32	4830.5	
627.51	7094.2	
627.7	7484	
627.89	4905.6	
628.08	5556.8	
628.27	6507.8	
628.46	6639.5	
628.65	5091.9	
628.83	4890.5	
629.02	6967.2	
629.21	6505	
629.4	5272.8	
629.59	5349.3	
629.78	6513.2	
629.97	6978.8	
630.16	5334.3	
630.35	5171.1	
630.54	7425.3	
630.72	7189.7	
630.91	5192.3	
631.1	5353.4	
631.29	6860.7	
631.48	6842.9	
631.67	5508.4	
631.86	5194.3	
632.05	6694.8	
632.24	6720.8	
632.42	5091.9	
632.61	5341.8	
632.8	6686.6	
632.99	6383.5	
633.18	5339.1	
633.37	5542.5	
633.56	6980.2	
633.75	6728.9	
633.93	5287.9	
634.12	5228.5	
634.31	7427.3	
634.5	7094.8	
634.69	5132.2	
634.88	5527.5	
635.07	6784.9	
635.25	7085.3	
635.44	5659.9	
635.63	5786.9	
635.82	6712.6	
636.01	5943.2	
636.2	5563	
636.39	5341.8	
636.57	7311.9	
636.76	6878.4	
636.95	5098.1	
637.14	5811.5	
637.33	6892.8	
637.52	7274.4	
637.7	4904.2	
637.89	5571.2	
638.08	6731.7	
638.27	7466.9	
638.46	5483.8	
638.65	5692.7	
638.83	7445	
639.02	6580.1	
639.21	5451	
639.4	5639.4	
639.59	6782.9	
639.78	6614.3	
639.96	4963.6	
640.15	5029.1	
640.34	6782.9	
640.53	6688.7	
640.72	4967	
640.91	5059.2	
641.09	6330.3	
641.28	7012.2	
641.47	5132.2	
641.66	5538.4	
641.85	6717.3	
642.03	6854.6	
642.22	5257.8	
642.41	5092.6	
642.6	6347.3	
642.79	6099.5	
642.97	5020.3	
643.16	5276.3	
643.35	6310.5	
643.54	6290.7	
643.73	4889.9	
643.91	5240.1	
644.1	6308.4	
644.29	6557.6	
644.48	4887.8	
644.67	4874.8	
644.85	6062	
645.04	6543.3	
645.23	4624.3	
645.42	4883.7	
645.6	6177.4	
645.79	6768.5	
645.98	4711	
646.17	4275.5	
646.36	5984.2	
646.54	6185.5	
646.73	5149.3	
646.92	4519.2	
647.11	6072.2	
647.29	6533.7	
647.48	4478.9	
647.67	4444.8	
647.86	6704.4	
648.05	6584.2	
648.23	4676.2	
648.42	5328.1	
648.61	6406	
648.8	6259.3	
648.98	4508.3	
649.17	4693.3	
649.36	6014.2	
649.55	5713.2	
649.73	4576.5	
649.92	4932.2	
650.11	5943.9	
650.3	6147.3	
650.48	4658.4	
650.67	4551.3	
650.86	6297.5	
651.05	5655.1	
651.23	4591.5	
651.42	4579.3	
651.61	5961.6	
651.79	5875.6	
651.98	4703.5	
652.17	4433.2	
652.36	6234.7	
652.54	5684.5	
652.73	4530.8	
652.92	4419.5	
653.11	6199.9	
653.29	6318	
653.48	4123.2	
653.67	4622.3	
653.85	6046.3	
654.04	6561.7	
654.23	4658.4	
654.42	4469.4	
654.6	5790.3	
654.79	6122.7	
654.98	4156	
655.16	4467.3	
655.35	5610.8	
655.54	5344.5	
655.73	4177.2	
655.91	4124.6	
656.1	6087.9	
656.29	5416.2	
656.47	3913.7	
656.66	4842.8	
656.85	5713.8	
657.03	5739.8	
657.22	4199	
657.41	4217.5	
657.59	5704.3	
657.78	5532.9	
657.97	4063.9	
658.16	4444.8	
658.34	6075.6	
658.53	6347.3	
658.72	5017.5	
658.9	5175.9	
659.09	5894.7	
659.28	5866.7	
659.46	4314.4	
659.65	4240.7	
659.84	5720.7	
660.02	6126.8	
660.21	4368.3	
660.4	4171	
660.58	6210.1	
660.77	5794.4	
660.96	4628.4	
661.14	4046.8	
661.33	6516	
661.52	6449.1	
661.7	4009.2	
661.89	5722.7	
662.08	5682.4	
662.26	5291.3	
662.45	4240.7	
662.64	4300.7	
662.82	6178.7	
663.01	5563.6	
663.2	4278.2	
663.38	4640	
663.57	5970.5	
663.75	5936.4	
663.94	4414.1	
664.13	5059.8	
664.31	5737	
664.5	5962.3	
664.69	4528.1	
664.87	4824.3	
665.06	5576.6	
665.25	5937.7	
665.43	5021.6	
665.62	4946.5	
665.8	5998.5	
665.99	5599.1	
666.18	4468	
666.36	4411.3	
666.55	6100.2	
666.74	5950	
666.92	4289.1	
667.11	5102.9	
667.29	5788.2	
667.48	6001.2	
667.67	4792.9	
667.85	4358.1	
668.04	5707	
668.22	5601.9	
668.41	4433.2	
668.6	4647.5	
668.78	5578	
668.97	5692.7	
669.15	4594.3	
669.34	4061.1	
669.53	5568.4	
669.71	5741.1	
669.9	4159.4	
670.08	4493.2	
670.27	5439.4	
670.46	5916.6	
670.64	4673.5	
670.83	4703.5	
671.01	5371.8	
671.2	5788.2	
671.38	4239.3	
671.57	4201.7	
671.76	6290	
671.94	6408.8	
672.13	4120.5	
672.31	4681	
672.5	6011.5	
672.69	5500.8	
672.87	4154	
673.06	4410.6	
673.24	5901.6	
673.43	5629.2	
673.61	4547.2	
673.8	4307.6	
673.98	5947.3	
674.17	5913.2	
674.36	4706.2	
674.54	4521.2	
674.73	5618.3	
674.91	6001.2	
675.1	4405.9	
675.28	4144.4	
675.47	5687.2	
675.65	5971.9	
675.84	4375.1	
676.03	4470	
676.21	5603.9	
676.4	5229.8	
676.58	4699.4	
676.77	4566.3	
676.95	6436.1	
677.14	5552.7	
677.32	4127.3	
677.51	4158.1	
677.69	6010.8	
677.88	5491.3	
678.06	4063.2	
678.25	4181.3	
678.44	5696.1	
678.62	5521.3	
678.81	4011.3	
678.99	4542.4	
679.18	6078.4	
679.36	5853.8	
679.55	4266.6	
679.73	4595	
679.92	5877	
680.1	5558.2	
680.29	4945.2	
680.47	4303.5	
680.66	5653.1	
680.84	5976	
681.03	4003.1	
681.21	4507.6	
681.4	5501.5	
681.58	5510.4	
681.77	4175.1	
681.95	4153.3	
682.14	6003.3	
682.32	6145.3	
682.51	4639.3	
682.69	4016.7	
682.88	5477.6	
683.06	5754.1	
683.25	4427.7	
683.43	4634.6	
683.62	5737.7	
683.8	5886.5	
683.99	4836.6	
684.17	4422.9	
684.36	6367.8	
684.54	5580	
684.73	3910.3	
684.91	4000.4	
685.1	5784.1	
685.28	5361.6	
685.46	4302.1	
685.65	4296.6	
685.83	5791	
686.02	5406.6	
686.2	4005.1	
686.39	3985.3	
686.57	5154.7	
686.76	5985.5	
686.94	3944.4	
687.13	4136.2	
687.31	5652.4	
687.5	5537.7	
687.68	3721.8	
687.86	4405.2	
688.05	6445.6	
688.23	5137	
688.42	4457.1	
688.6	3979.9	
688.79	5355.4	
688.97	5387.5	
689.16	4243.4	
689.34	3708.9	
689.52	5731.6	
689.71	5932.3	
689.89	4459.1	
690.08	4024.3	
690.26	5584.1	
690.45	5436	
690.63	4549.9	
690.81	4143.7	
691	5584.1	
691.18	5371.8	
691.37	4243.4	
691.55	5324.7	
691.74	5354.1	
691.92	6361	
692.1	4186.7	
692.29	3941.7	
692.47	5591.6	
692.66	5119.2	
692.84	3980.6	
693.02	4253.6	
693.21	5095.3	
693.39	5515.2	
693.58	4356	
693.76	3992.2	
693.94	6104.3	
694.13	5935	
694.31	4093.2	
694.5	4723.3	
694.68	5389.6	
694.86	5597.8	
695.05	4302.8	
695.23	4523.3	
695.42	5788.9	
695.6	6958.3	
695.78	4646.8	
695.97	4192.9	
696.15	5913.2	
696.34	5509	
696.52	4046.8	
696.7	4555.4	
696.89	5621	
697.07	5366.4	
697.25	4439.3	
697.44	5123.3	
697.62	5685.2	
697.81	5724.1	
697.99	4241.3	
698.17	4481.6	
698.36	5461.9	
698.54	5681.7	
698.72	4500.8	
698.91	3900	
699.09	5463.3	
699.28	5280.3	
699.46	4216.8	
699.64	4154	
699.83	5474.9	
700.01	5926.1	
700.19	4658.4	
700.38	3733.4	
700.56	5947.3	
700.74	5422.3	
700.93	3989.4	
701.11	4480.3	
701.29	5731.6	
701.48	6369.9	
701.66	4141.7	
701.84	4202.4	
702.03	5511.1	
702.21	5952.1	
702.39	3960.8	
702.58	4314.4	
702.76	5902.2	
702.94	5847.6	
703.13	3921.2	
703.31	5292	
703.49	5530.2	
703.68	6040.1	
703.86	4102.1	
704.04	4631.1	
704.23	5803.9	
704.41	5915.2	
704.59	4194.9	
704.78	4793.6	
704.96	6661.4	
705.14	5933.6	
705.33	4093.9	
705.51	4479.6	
705.69	5571.8	
705.87	6098.9	
706.06	4644.1	
706.24	4027	
706.42	5817.6	
706.61	5895.4	
706.79	4732.9	
706.97	3981.3	
707.16	5522	
707.34	5844.2	
707.52	4595	
707.7	4177.9	
707.89	5524.7	
708.07	5377.3	
708.25	4607.2	
708.44	4721.3	
708.62	5538.4	
708.8	6283.2	
708.98	4819.6	
709.17	4248.2	
709.35	5741.1	
709.53	5788.9	
709.72	4114.4	
709.9	4128	
710.08	6075.6	
710.26	6039.5	
710.45	5055.8	
710.63	4261.1	
710.81	5671.5	
710.99	5803.9	
711.18	4705.5	
711.36	4330.8	
711.54	5690.6	
711.72	6042.9	
711.91	4407.2	
712.09	4027.7	
712.27	5754.8	
712.45	6056.5	
712.64	4485.7	
712.82	3919.1	
713	5450.3	
713.18	5545.2	
713.37	4031.8	
713.55	4675.5	
713.73	5999.2	
713.91	5225.1	
714.1	4116.4	
714.28	3872	
714.46	5653.1	
714.64	5264.6	
714.83	3525.2	
715.01	3837.2	
715.19	5330.2	
715.37	4816.8	
715.55	3656.3	
715.74	3879.5	
715.92	5644.9	
716.1	4517.8	
716.28	4434.5	
716.47	3905.5	
716.65	5020.3	
716.83	4989.5	
717.01	3761.4	
717.19	3792.2	
717.38	6098.9	
717.56	4814.8	
717.74	3926	
717.92	3480.2	
718.1	5562.3	
718.29	5066.7	
718.47	3282.9	
718.65	3644	
718.83	5535.7	
719.01	5516.5	
719.2	3383.2	
719.38	3882.3	
719.56	5304.2	
719.74	6129.6	
719.92	3775.8	
720.11	4295.3	
720.29	5539.8	
720.47	4999.8	
720.65	3474	
720.83	3939.6	
721.02	5160.9	
721.2	4992.3	
721.38	3952.6	
721.56	3554.6	
721.74	4588.8	
721.92	4674.1	
722.11	4167.6	
722.29	4015.4	
722.47	5446.9	
722.65	4990.2	
722.83	3529.3	
723.01	3974.4	
723.2	4911.7	
723.38	5186.1	
723.56	3203.7	
723.74	3932.1	
723.92	4694.6	
724.1	5289.9	
724.29	3444	
724.47	4048.8	
724.65	4943.8	
724.83	4711	
725.01	3521.1	
725.19	3860.4	
725.37	4745.8	
725.56	4704.9	
725.74	3400.3	
725.92	3478.1	
726.1	4760.8	
726.28	4975.2	
726.46	3724.6	
726.64	3573.7	
726.83	5081.7	
727.01	5043.5	
727.19	3379.1	
727.37	3867.2	
727.55	5139.7	
727.73	5319.9	
727.91	3323.2	
728.09	3251.5	
728.28	5274.2	
728.46	5352.7	
728.64	3824.9	
728.82	3807.2	
729	5845.6	
729.18	5575.3	
729.36	3400.3	
729.54	4666.6	
729.72	6057.9	
729.91	5141.8	
730.09	4565.6	
730.27	3782.6	
730.45	5074.9	
730.63	5417.6	
730.81	4117.1	
730.99	3642	
731.17	5763	
731.35	4969.7	
731.53	3887.7	
731.71	3772.4	
731.9	5588.9	
732.08	5647.6	
732.26	3920.5	
732.44	3706.1	
732.62	5682.4	
732.8	5397.8	
732.98	4166.3	
733.16	3570.3	
733.34	5434.6	
733.52	4696.7	
733.7	3851.5	
733.88	3942.3	
734.07	5319.3	
734.25	5185.5	
734.43	3592.1	
734.61	4381.3	
734.79	6025.8	
734.97	5126.7	
735.15	3687.7	
735.33	3805.8	
735.51	5308.3	
735.69	5125.4	
735.87	4362.9	
736.05	3943	
736.23	5327.4	
736.41	5033.2	
736.59	3972.4	
736.77	3898.6	
736.95	5515.2	
737.13	5144.5	
737.32	3646.1	
737.5	3742.3	
737.68	5842.2	
737.86	5070.1	
738.04	3603.7	
738.22	4553.3	
738.4	5061.2	
738.58	5225.1	
738.76	3830.4	
738.94	3393.5	
739.12	5086.5	
739.3	5021.6	
739.48	4176.5	
739.66	3999	
739.84	5237.3	
740.02	5148.6	
740.2	3415.3	
740.38	3493.8	
740.56	5355.4	
740.74	4655	
740.92	3944.4	
741.1	3779.9	
741.28	5133.6	
741.46	4894.6	
741.64	3750.5	
741.82	4008.6	
742	5150.6	
742.18	4997.7	
742.36	3741	
742.54	3588.7	
742.72	5377.3	
742.9	4712.4	
743.08	3912.3	
743.26	3267.9	
743.44	5420.3	
743.62	5368.4	
743.8	3995.6	
743.98	3518.4	
744.16	5272.2	
744.34	5043.5	
744.52	3895.9	
744.7	3922.5	
744.88	5334.3	
745.06	4992.9	
745.24	3956.7	
745.42	3994.9	
745.6	5457.8	
745.78	5311.1	
745.96	3324.5	
746.14	3424.9	
746.32	5770.5	
746.5	5221.6	
746.68	3712.3	
746.86	3394.8	
747.03	5399.8	
747.21	4634.6	
747.39	3747.8	
747.57	3407.1	
747.75	5080.3	
747.93	5253.7	
748.11	3434.4	
748.29	3453.6	
748.47	6020.3	
748.65	4909	
748.83	3850.9	
749.01	3702	
749.19	5154.7	
749.37	4631.1	
749.55	3704.1	
749.73	3631	
749.91	5040.7	
750.09	4898.7	
750.26	3691.8	
750.44	3302	
750.62	4935.6	
750.8	4883	
750.98	3249.4	
751.16	3484.3	
751.34	5112.4	
751.52	4692.6	
751.7	3917.1	
751.88	3282.9	
752.06	5355.4	
752.24	5163.6	
752.42	3205.1	
752.59	3492.5	
752.77	4991.6	
752.95	5634.6	
753.13	3833.1	
753.31	3490.4	
753.49	4798.4	
753.67	5031.9	
753.85	3690.4	
754.03	3429.7	
754.21	5269.4	
754.38	5288.5	
754.56	3443.3	
754.74	2925.2	
754.92	4652.3	
755.1	4984.8	
755.28	2881.5	
755.46	2953.2	
755.64	5496.1	
755.82	5427.1	
755.99	3050.1	
756.17	3035.8	
756.35	4032.5	
756.53	4801.1	
756.71	2435	
756.89	3170.9	
757.07	4583.4	
757.25	4111	
757.42	3203.7	
757.6	3712.3	
757.78	4760.2	
757.96	4176.5	
758.14	3089	
758.32	2809.8	
758.5	3902.7	
758.67	4369.7	
758.85	2935.4	
759.03	3003	
759.21	4512.4	
759.39	4162.8	
759.57	2695.8	
759.75	3327.3	
759.92	4895.3	
760.1	4501.4	
760.28	3568.9	
760.46	3658.4	
760.64	4371.7	
760.82	4290.5	
760.99	3480.9	
761.17	3046	
761.35	4878.3	
761.53	4189.5	
761.71	3207.8	
761.89	3527.3	
762.06	4762.9	
762.24	4491.9	
762.42	3206.4	
762.6	3018	
762.78	4515.8	
762.96	4792.9	
763.13	3379.8	
763.31	3163.4	
763.49	4876.9	
763.67	4476.9	
763.85	3709.6	
764.02	3958.7	
764.2	5141.8	
764.38	4545.1	
764.56	3135.4	
764.74	3659	
764.91	5073.5	
765.09	4453.6	
765.27	3086.3	
765.45	2886.3	
765.63	5233.9	
765.8	4982.7	
765.98	2811.2	
766.16	2948.4	
766.34	4148.5	
766.52	4089.1	
766.69	3434.4	
766.87	2848.7	
767.05	4508.3	
767.23	4858.5	
767.41	3005.1	
767.58	3125.9	
767.76	4778.6	
767.94	4864.6	
768.12	3028.9	
768.29	3397.6	
768.47	4403.8	
768.65	4895.3	
768.83	2849.4	
769	3386.7	
769.18	4268.6	
769.36	4638.6	
769.54	3443.3	
769.72	2818.7	
769.89	4873.5	
770.07	4797	
770.25	3099.9	
770.43	3718.4	
770.6	5300.8	
770.78	5404.6	
770.96	3130	
771.14	3438.5	
771.31	4784.7	
771.49	4399	
771.67	2695.8	
771.85	2749.1	
772.02	4008.6	
772.2	4403.8	
772.38	3213.3	
772.55	2890.4	
772.73	4601.8	
772.91	4399.7	
773.09	3102.7	
773.26	3159.3	
773.44	4536.3	
773.62	4427.7	
773.8	2840.5	
773.97	2781.8	
774.15	4603.2	
774.33	4395.6	
774.5	2864.4	
774.68	2996.9	
774.86	4638.6	
775.04	4350.6	
775.21	2869.9	
775.39	2793.4	
775.57	4515.1	
775.74	4663.9	
775.92	2658.9	
776.1	2611.2	
776.27	4492.6	
776.45	5108.3	
776.63	2831	
776.81	2624.8	
776.98	4349.2	
777.16	4791.6	
777.34	2887.6	
777.51	3016.7	
777.69	4311	
777.87	4170.3	
778.04	3013.2	
778.22	3265.1	
778.4	4188.8	
778.57	4538.3	
778.75	2562.7	
778.93	2689	
779.1	4133.5	
779.28	3921.2	
779.46	2523.8	
779.64	2740.2	
779.81	4612	
779.99	5038.7	
780.17	3151.1	
780.34	3216	
780.52	4332.8	
780.69	4416.8	
780.87	2953.2	
781.05	2711.5	
781.22	4390.8	
781.4	4385.4	
781.58	2820.7	
781.75	2323.1	
781.93	4417.5	
782.11	3933.5	
782.28	3343	
782.46	2757.9	
782.64	3946.4	
782.81	4481.6	
782.99	2884.2	
783.17	2812.5	
783.34	4352.6	
783.52	4083	
783.69	2833	
783.87	3424.2	
784.05	4104.1	
784.22	4098	
784.4	3364.1	
784.58	3001	
784.75	4677.6	
784.93	4147.1	
785.1	2802.3	
785.28	3091.8	
785.46	4517.8	
785.63	4011.3	
785.81	2779.1	
785.99	2678.1	
786.16	4246.1	
786.34	4294.6	
786.51	2665.1	
786.69	2994.8	
786.87	3904.8	
787.04	4152.6	
787.22	2615.3	
787.39	3112.2	
787.57	4083	
787.75	4602.5	
787.92	3336.8	
788.1	3184.6	
788.27	3966.2	
788.45	3722.5	
788.63	3017.3	
788.8	2381.8	
788.98	4303.5	
789.15	3745.1	
789.33	2489	
789.5	2775	
789.68	4510.3	
789.86	4605.2	
790.03	2973	
790.21	2714.2	
790.38	4684.4	
790.56	4134.2	
790.73	2619.4	
790.91	2598.9	
791.09	4055	
791.26	4393.6	
791.44	2856.9	
791.61	2432.3	
791.79	4041.3	
791.96	3992.2	
792.14	2560.6	
792.32	2327.2	
792.49	4001.7	
792.67	4099.4	
792.84	2614.6	
793.02	2478	
793.19	4319.2	
793.37	4636.6	
793.54	2314.9	
793.72	2492.4	
793.89	4693.9	
794.07	3958.7	
794.25	2808.4	
794.42	2355.2	
794.6	4569.7	
794.77	4367.6	
794.95	2935.4	
795.12	2646.7	
795.3	4065.9	
795.47	4292.5	
795.65	2892.4	
795.82	2785.9	
796	3932.8	
796.17	4896.7	
796.35	2732.7	
796.52	3088.3	
796.7	4304.8	
796.87	4379.9	
797.05	2721.8	
797.22	3159.3	
797.4	4405.2	
797.57	4883	
797.75	2832.3	
797.92	2663.7	
798.1	4583.4	
798.27	3845.4	
798.45	2405.7	
798.62	2496.5	
798.8	4235.2	
798.97	4477.5	
799.15	2903.3	
799.32	2799.6	
799.5	3771.7	
799.67	4141	
799.85	2940.9	
800.02	2383.2	
800.2	3992.2	
800.37	4043.4	
800.55	3060.3	
800.72	2666.5	
800.9	4428.4	
801.07	4569	
801.25	3389.4	
801.42	2878.8	
801.6	4414.1	
801.77	4099.4	
801.95	2656.2	
802.12	2623.4	
802.29	4276.8	
802.47	4161.5	
802.64	2938.2	
802.82	2336	
802.99	4012	
803.17	4428.4	
803.34	2840.5	
803.52	2549.7	
803.69	4831.8	
803.87	3831.1	
804.04	2835.1	
804.21	2808.4	
804.39	4687.8	
804.56	4008.6	
804.74	2449.4	
804.91	2812.5	
805.09	3976.5	
805.26	3984	
805.44	2483.5	
805.61	2645.3	
805.78	4415.4	
805.96	4322.6	
806.13	2825.5	
806.31	2994.1	
806.48	3723.9	
806.66	3968.3	
806.83	2867.2	
807	2783.9	
807.18	3999.7	
807.35	4137.6	
807.53	2778.4	
807.7	2357.9	
807.87	4618.2	
808.05	3986	
808.22	2988	
808.4	2357.9	
808.57	3956.7	
808.74	3759.4	
808.92	2631.6	
809.09	3165.5	
809.27	4062.5	
809.44	4223.6	
809.61	2362.7	
809.79	2547	
809.96	4818.9	
810.14	4379.2	
810.31	2296.5	
810.48	2919	
810.66	4023.6	
810.83	4393.6	
811.01	2632.3	
811.18	2797.5	
811.35	4416.1	
811.53	3661.1	
811.7	3029.6	
811.87	2864.4	
812.05	4167.6	
812.22	3987.4	
812.39	2597.5	
812.57	2471.9	
812.74	4084.3	
812.92	4883	
813.09	2822.1	
813.26	2826.2	
813.44	4748.6	
813.61	3867.9	
813.78	2398.2	
813.96	2956.6	
814.13	4022.2	
814.3	3892.5	
814.48	3149.8	
814.65	2668.5	
814.82	4642.7	
815	3755.3	
815.17	2759.3	
815.34	3199.6	
815.52	3878.2	
815.69	3926.6	
815.87	2691.7	
816.04	2673.3	
816.21	3911.6	
816.38	3756.7	
816.56	2707.4	
816.73	2540.2	
816.9	4830.5	
817.08	4395.6	
817.25	2532	
817.42	3033.7	
817.6	3772.4	
817.77	3929.4	
817.94	2783.2	
818.12	2505.3	
818.29	3886.4	
818.46	5201.2	
818.64	2699.9	
818.81	2488.3	
818.98	3869.3	
819.16	4980	
819.33	2943.6	
819.5	2748.4	
819.67	4204.5	
819.85	4560.1	
820.02	2743.6	
820.19	2824.1	
820.37	4114.4	
820.54	3947.1	
820.71	2816	
820.88	3339.6	
821.06	4168.3	
821.23	3835.8	
821.4	2826.2	
821.58	2761.3	
821.75	4319.2	
821.92	4119.8	
822.09	2334.7	
822.27	2402.3	
822.44	3990.1	
822.61	3894.6	
822.79	2407	
822.96	4098	
823.13	4173.8	
823.3	3765.5	
823.48	2651.4	
823.65	2487.6	
823.82	4468.7	
823.99	3758	
824.17	3198.9	
824.34	2493.1	
824.51	4950.6	
824.68	4029.7	
824.86	2524.5	
825.03	2736.8	
825.2	4050.9	
825.37	4504.8	
825.55	2523.1	
825.72	2761.3	
825.89	4849.6	
826.06	4533.5	
826.24	2707.4	
826.41	2745.6	
826.58	4673.5	
826.75	4098.7	
826.92	2326.5	
827.1	2422.1	
827.27	5823.1	
827.44	4812.7	
827.61	2600.2	
827.79	2983.2	
827.96	3939.6	
828.13	3928	
828.3	2737.5	
828.47	2310.1	
828.65	4294.6	
828.82	4195.6	
828.99	3249.4	
829.16	2890.4	
829.34	4428.4	
829.51	4347.8	
829.68	2771.6	
829.85	2766.8	
830.02	4751.3	
830.2	4452.3	
830.37	2237.7	
830.54	3092.4	
830.71	4868	
830.88	4060.4	
831.05	2250.7	
831.23	2496.5	
831.4	4802.5	
831.57	5016.2	
831.74	2626.2	
831.91	2317.6	
832.09	4356.7	
832.26	4482.3	
832.43	2560.6	
832.6	2831	
832.77	4304.8	
832.94	4691.9	
833.12	2239.8	
833.29	2572.9	
833.46	3974.4	
833.63	5179.3	
833.8	2764.1	
833.97	2607.1	
834.15	4487.8	
834.32	4360.1	
834.49	2723.8	
834.66	2757.2	
834.83	4456.4	
835	3968.3	
835.17	2544.9	
835.35	2532	
835.52	4411.3	
835.69	4298.7	
835.86	2652.8	
836.03	2268.5	
836.2	4514.4	
836.37	4184	
836.55	2521.7	
836.72	2506	
836.89	4246.8	
837.06	4530.1	
837.23	2642.6	
837.4	2826.2	
837.57	4929.5	
837.75	5158.2	
837.92	2359.3	
838.09	2551.1	
838.26	4216.8	
838.43	4556.7	
838.6	2758.6	
838.77	2503.3	
838.94	4977.2	
839.11	4889.2	
839.29	2637.8	
839.46	2149.7	
839.63	4508.9	
839.8	4240.7	
839.97	2545.6	
840.14	2509.4	
840.31	4397	
840.48	4481	
840.65	2196.8	
840.82	2587.3	
841	4409.3	
841.17	4296	
841.34	2372.2	
841.51	2495.1	
841.68	4412.7	
841.85	4180.6	
842.02	2461	
842.19	2112.8	
842.36	4322.6	
842.53	4343.7	
842.7	2409.8	
842.87	2738.1	
843.05	5261.2	
843.22	4250.9	
843.39	2310.8	
843.56	2464.4	
843.73	4220.2	
843.9	4518.5	
844.07	3474.7	
844.24	2947	
844.41	5651	
844.58	3983.3	
844.75	2332.6	
844.92	2460.3	
845.09	4344.4	
845.26	4367	
845.43	2360.6	
845.6	2512.2	
845.77	4458.4	
845.94	4291.9	
846.12	2654.2	
846.29	2607.1	
846.46	4648.2	
846.63	4397.7	
846.8	2407	
846.97	2725.2	
847.14	4645.5	
847.31	4371.7	
847.48	2613.2	
847.65	2860.3	
847.82	4420.2	
847.99	4515.1	
848.16	2981.2	
848.33	2771.6	
848.5	4141.7	
848.67	4662.5	
848.84	2342.2	
849.01	2424.8	
849.18	4159.4	
849.35	3919.8	
849.52	2869.2	
849.69	2353.1	
849.86	4571.1	
850.03	4545.1	
850.2	2444.6	
850.37	2781.8	
850.54	4530.8	
850.71	4166.9	
850.88	2781.8	
851.05	2316.3	
851.22	4285.7	
851.39	4615.4	
851.56	2250.7	
851.73	2644.6	
851.9	3993.5	
852.07	4533.5	
852.24	2609.1	
852.41	2336.7	
852.58	4430.4	
852.75	4074.1	
852.92	2599.6	
853.09	2352.4	
853.26	3986	
853.43	4631.8	
853.6	2342.9	
853.77	2093	
853.94	4716.5	
854.11	3982.6	
854.28	3230.3	
854.44	2519.7	
854.61	4899.4	
854.78	4535.6	
854.95	2345.6	
855.12	2761.3	
855.29	3776.5	
855.46	4779.3	
855.63	2358.6	
855.8	3040.6	
855.97	4113.7	
856.14	4617.5	
856.31	3125.9	
856.48	2548.4	
856.65	4160.8	
856.82	3976.5	
856.99	2316.3	
857.16	2563.4	
857.33	5057.1	
857.49	4204.5	
857.66	2510.1	
857.83	2646	
858	4328	
858.17	4343.7	
858.34	2258.9	
858.51	2411.8	
858.68	4724.7	
858.85	4727.4	
859.02	2685.6	
859.19	2747	
859.36	4019.5	
859.52	3925.3	
859.69	2461	
859.86	2646	
860.03	3986	
860.2	4683	
860.37	2229.6	
860.54	2410.5	
860.71	4516.5	
860.88	4701.5	
861.05	2621.4	
861.21	2942.2	
861.38	4704.9	
861.55	3878.2	
861.72	2237.7	
861.89	2598.2	
862.06	4498.7	
862.23	4689.2	
862.4	2289.6	
862.56	2394.8	
862.73	4490.5	
862.9	4222.9	
863.07	2669.2	
863.24	2218	
863.41	3987.4	
863.58	4016.7	
863.75	2422.1	
863.91	2696.5	
864.08	4587.4	
864.25	4468	
864.42	2815.3	
864.59	3134.8	
864.76	4840	
864.93	3965.6	
865.09	2321.7	
865.26	2529.9	
865.43	4632.5	
865.6	4854.4	
865.77	2194.7	
865.94	2362	
866.1	4631.1	
866.27	4380.6	
866.44	3315	
866.61	2236.4	
866.78	4250.9	
866.95	4427	
867.11	2344.2	
867.28	2245.9	
867.45	4666	
867.62	4004.5	
867.79	2611.2	
867.96	2349.7	
868.12	3950.5	
868.29	4470	
868.46	2342.9	
868.63	2962.7	
868.8	4534.9	
868.97	4481	
869.13	2471.9	
869.3	2459.6	
869.47	4353.3	
869.64	4526	
869.81	2400.9	
869.97	2388.6	
870.14	4296	
870.31	4675.5	
870.48	2339.5	
870.65	2842.6	
870.81	4227.7	
870.98	4199.7	
871.15	2631.6	
871.32	2454.1	
871.48	4456.4	
871.65	4782.7	
871.82	2319	
871.99	2534	
872.16	5001.1	
872.32	4660.5	
872.49	2443.9	
872.66	2345.6	
872.83	4558.1	
872.99	4077.5	
873.16	2647.3	
873.33	2364	
873.5	4287.1	
873.67	4313.7	
873.83	2426.8	
874	2951.8	
874.17	4419.5	
874.34	4865.3	
874.5	2928.6	
874.67	2764.8	
874.84	4653.7	
875.01	3888.4	
875.17	3106.8	
875.34	2355.8	
875.51	4348.5	
875.68	5101.5	
875.84	2731.3	
876.01	3196.2	
876.18	4489.1	
876.34	4428.4	
876.51	2374.3	
876.68	2359.9	
876.85	4171.7	
877.01	4715.8	
877.18	3154.6	
877.35	2334.7	
877.52	4455	
877.68	3997.6	
877.85	2417.3	
878.02	2375.6	
878.18	4093.2	
878.35	4142.4	
878.52	1981.1	
878.69	2700.6	
878.85	4591.5	
879.02	4376.5	
879.19	3148.4	
879.35	2497.2	
879.52	4462.5	
879.69	4536.9	
879.86	2140.8	
880.02	2611.2	
880.19	4275.5	
880.36	4912.4	
880.52	2641.9	
880.69	2695.8	
880.86	4499.4	
881.02	4540.3	
881.19	2514.2	
881.36	2497.2	
881.52	4506.2	
881.69	4095.9	
881.86	2594.1	
882.02	2499.2	
882.19	4616.1	
882.36	5189.6	
882.52	2473.9	
882.69	3143.6	
882.86	4334.2	
883.02	4427.7	
883.19	2742.2	
883.36	2601.6	
883.52	4534.9	
883.69	4938.3	
883.86	2394.1	
884.02	2248	
884.19	4474.1	
884.36	4329.4	
884.52	2611.2	
884.69	2514.9	
884.86	4171	
885.02	4777.2	
885.19	2578.4	
885.36	2632.3	
885.52	4202.4	
885.69	4408.6	
885.86	3183.9	
886.02	2925.2	
886.19	4510.3	
886.35	4121.2	
886.52	2583.2	
886.69	3133.4	
886.85	4003.8	
887.02	4650.3	
887.19	4650.3	
887.35	4650.3	
887.52	4650.3	
887.68	4650.3	
887.85	4650.3	
888.02	4650.3	
888.18	4650.3	
888.35	4650.3	
888.51	4650.3	
888.68	4650.3	
888.85	4650.3	
889.01	4650.3	
889.18	4650.3	
889.35	4650.3	
889.51	4650.3	
889.68	4650.3	
889.84	4650.3	
890.01	4650.3	
890.17	4650.3	
890.34	4650.3	
890.51	4650.3	
890.67	4650.3	
890.84	4650.3	
891	4650.3	
891.17	4650.3	
891.34	4650.3	
891.5	4650.3	
891.67	4650.3	
891.83	4650.3	
892	4650.3	
892.16	4650.3	
892.33	4650.3	
892.5	4650.3	
892.66	4650.3	
892.83	4650.3	
892.99	4650.3	
893.16	4650.3	
893.32	4650.3	
893.49	4650.3	
893.65	4650.3	
893.82	4650.3	
893.99	4650.3	
894.15	4650.3	
894.32	4650.3	
894.48	4650.3	
894.65	4650.3	
894.81	4650.3	
894.98	4650.3	
895.14	4650.3	
895.31	4650.3	
895.47	4650.3	
895.64	4650.3	
895.81	4650.3	
895.97	4650.3	
896.14	4650.3	
896.3	4650.3	
896.47	4650.3	
896.63	4650.3	
896.8	4650.3	
896.96	4650.3	
897.13	4650.3	
897.29	4650.3	
897.46	4650.3	
897.62	4650.3	
897.79	4650.3	
897.95	4650.3	
898.12	4650.3	
898.28	4650.3	
898.45	4650.3	
898.61	4650.3	
898.78	4650.3	
898.94	4650.3	
899.11	4650.3	
899.27	4650.3	
899.44	4650.3	
899.6	4650.3	
899.77	4650.3	
899.93	4650.3	
900.1	4650.3	
900.26	4650.3	
900.43	4650.3	
900.59	4650.3	
900.76	4650.3	
900.92	4650.3	
901.09	4650.3	
901.25	4650.3	
901.42	4650.3	
901.58	4650.3	
901.75	4650.3	
901.91	4650.3	
902.07	4650.3	
902.24	4650.3	
902.4	4650.3	
902.57	4650.3	
902.73	4650.3	
902.9	4650.3	
903.06	4650.3	
903.23	4650.3	
903.39	4650.3	
903.56	4650.3	
903.72	4650.3	
903.88	4650.3	
904.05	4650.3	
904.21	4650.3	
904.38	4650.3	
904.54	4650.3	
904.71	4650.3	
904.87	4650.3	
905.03	4650.3	
905.2	4650.3	
905.36	4650.3	
905.53	4650.3	
905.69	4650.3	
905.86	4650.3	
906.02	4650.3	
906.18	4650.3	
906.35	4650.3	
906.51	4650.3	
906.68	4650.3	
906.84	4650.3	
907.01	4650.3	
907.17	4650.3	
907.33	4650.3	
907.5	4650.3	
907.66	4650.3	
907.83	4650.3	
907.99	4650.3	
908.15	4650.3	
908.32	4650.3	
908.48	4650.3	
908.65	4650.3	
908.81	4650.3	
908.97	4650.3	
909.14	4650.3	
909.3	4650.3	
909.47	4650.3	
909.63	4650.3	
909.79	4650.3	
909.96	4650.3	
910.12	4650.3	
910.28	4650.3	
910.45	4650.3	
910.61	4650.3	
910.78	4650.3	
910.94	4650.3	
911.1	4650.3	
911.27	4650.3	
911.43	4650.3	
911.59	4650.3	
911.76	4650.3	
911.92	4650.3	
912.08	4650.3	
912.25	4650.3	
912.41	4650.3	
912.57	4650.3	
912.74	4650.3	
912.9	4650.3	
913.07	4650.3	
913.23	4650.3	
913.39	4650.3	
913.56	4650.3	
913.72	4650.3	
913.88	4650.3	
914.05	4650.3	
914.21	4650.3	
914.37	4650.3	
914.54	4650.3	
914.7	4650.3	
914.86	4650.3	
915.03	4650.3	
915.19	4650.3	
