Wavelength	Intensities	
nm	a.u.	
179.22	1938.7	
179.44	1942.2	
179.65	1935.3	
179.86	1949	
180.08	1934.6	
180.29	5124.7	
180.51	3607.8	
180.72	5702.9	
180.94	6786.3	
181.15	3330.7	
181.37	3274	
181.58	5652.4	
181.79	5976.7	
182.01	3457.7	
182.22	3790.1	
182.44	5951.4	
182.65	4958.8	
182.87	4735.6	
183.08	4091.8	
183.29	6182.8	
183.51	5107	
183.72	3839.9	
183.94	5586.9	
184.15	5539.8	
184.37	5589.6	
184.58	3295.2	
184.79	4628.4	
185.01	5096.7	
185.22	5939.8	
185.44	4878.9	
185.65	4042.7	
185.86	5436	
186.08	5084.4	
186.29	3236.5	
186.51	3460.4	
186.72	5172.5	
186.94	6077	
187.15	4064.5	
187.36	4228.4	
187.58	8013.7	
187.79	5627.1	
188.01	4358.1	
188.22	6860.7	
188.43	6814.3	
188.65	5917.9	
188.86	3411.9	
189.08	4165.6	
189.29	5353.4	
189.5	5343.2	
189.72	3893.9	
189.93	3933.5	
190.15	6208.1	
190.36	7434.8	
190.57	4314.4	
190.79	4110.3	
191	6263.4	
191.22	6146	
191.43	4279.6	
191.64	3454.9	
191.86	6425.2	
192.07	6186.9	
192.29	3667.2	
192.5	3896.6	
192.71	6137.8	
192.93	5216.2	
193.14	3852.2	
193.35	3981.3	
193.57	5317.9	
193.78	6122.1	
194	3137.5	
194.21	3821.5	
194.42	5010	
194.64	5595.7	
194.85	4160.1	
195.07	4893.3	
195.28	5601.2	
195.49	4827.7	
195.71	5161.6	
195.92	3543	
196.13	5743.9	
196.35	5856.5	
196.56	5591	
196.78	4190.8	
196.99	7255.3	
197.2	6764.4	
197.42	4761.5	
197.63	4271.4	
197.84	4928.8	
198.06	5787.6	
198.27	3880.2	
198.48	5179.3	
198.7	5307.7	
198.91	5400.5	
199.13	4191.5	
199.34	4263.9	
199.55	5978	
199.77	4820.2	
199.98	3710.2	
200.19	4238.6	
200.41	5337.7	
200.62	5171.1	
200.83	4419.5	
201.05	4743.8	
201.26	5472.9	
201.47	5160.9	
201.69	3731.4	
201.9	3603.1	
202.11	5479.7	
202.33	6558.3	
202.54	3974.4	
202.76	4491.2	
202.97	5643.5	
203.18	5679	
203.4	4416.8	
203.61	4260.5	
203.82	5593.7	
204.04	5223	
204.25	4259.8	
204.46	4181.3	
204.68	5506.3	
204.89	5822.4	
205.1	4100	
205.32	3550.5	
205.53	5999.2	
205.74	6124.1	
205.96	3033	
206.17	4358.1	
206.38	5988.9	
206.6	6144.6	
206.81	4897.4	
207.02	3909.6	
207.24	5795.8	
207.45	6242.2	
207.66	4004.5	
207.88	3446.7	
208.09	5765.7	
208.3	5533.6	
208.52	3695.9	
208.73	4059.1	
208.94	5538.4	
209.15	6305	
209.37	4043.4	
209.58	4258.4	
209.79	6128.9	
210.01	5386.8	
210.22	3168.9	
210.43	3294.5	
210.65	5578.7	
210.86	6030.6	
211.07	4029.7	
211.29	3713	
211.5	5960.3	
211.71	5459.9	
211.93	3693.2	
212.14	3618.1	
212.35	5424.4	
212.56	5715.2	
212.78	4271.4	
212.99	3489.7	
213.2	6582.9	
213.42	5309.7	
213.63	3812	
213.84	4141.7	
214.06	4911	
214.27	4954	
214.48	3989.4	
214.69	4299.4	
214.91	6281.8	
215.12	6331.6	
215.33	4373.8	
215.55	4840.7	
215.76	6888	
215.97	5932.3	
216.18	4145.1	
216.4	4021.5	
216.61	5229.8	
216.82	6080.4	
217.04	3676.1	
217.25	3867.2	
217.46	6251.8	
217.67	6010.1	
217.89	3304.1	
218.1	3463.8	
218.31	5634.6	
218.53	5722.7	
218.74	3839.3	
218.95	3726.6	
219.16	5517.2	
219.38	6546	
219.59	3803.8	
219.8	4502.8	
220.01	7245.7	
220.23	5597.8	
220.44	4996.4	
220.65	3672.7	
220.87	5612.1	
221.08	6244.3	
221.29	3371.6	
221.5	4579.3	
221.72	7681.2	
221.93	5236	
222.14	4305.5	
222.35	4977.2	
222.57	5638.7	
222.78	5958.2	
222.99	4024.9	
223.2	4334.9	
223.42	5890.6	
223.63	6038.8	
223.84	3059	
224.05	3042.6	
224.27	7160.4	
224.48	6500.3	
224.69	5005.2	
224.9	4201.1	
225.12	5755.5	
225.33	5563.6	
225.54	3347.7	
225.75	3752.6	
225.97	5119.9	
226.18	5382.1	
226.39	4088.4	
226.6	3756.7	
226.82	5330.9	
227.03	5155.4	
227.24	4250.9	
227.45	3459.7	
227.67	5956.2	
227.88	6500.3	
228.09	4720.6	
228.3	4795.7	
228.52	6112.5	
228.73	5524.1	
228.94	3979.9	
229.15	3449.5	
229.36	5429.2	
229.58	5338.4	
229.79	3984	
230	4644.8	
230.21	6565.1	
230.43	5713.8	
230.64	4163.5	
230.85	4358.8	
231.06	5996.5	
231.28	6019	
231.49	3442.6	
231.7	4137.6	
231.91	5890.6	
232.12	5604.6	
232.34	3553.2	
232.55	4098.7	
232.76	6243.6	
232.97	5773.2	
233.18	3699.3	
233.4	4189.5	
233.61	5823.7	
233.82	5246.9	
234.03	3865.9	
234.25	3856.3	
234.46	7777.5	
234.67	5538.4	
234.88	4351.9	
235.09	3690.4	
235.31	5863.3	
235.52	5463.3	
235.73	4215.4	
235.94	3568.9	
236.15	5232.6	
236.37	6755.6	
236.58	3713.7	
236.79	4063.2	
237	5902.9	
237.21	5012.1	
237.43	4371.7	
237.64	3414	
237.85	10297	
238.06	5072.1	
238.27	4460.5	
238.48	3486.3	
238.7	5950.7	
238.91	5346.6	
239.12	4062.5	
239.33	4043.4	
239.54	5085.1	
239.76	5436.7	
239.97	3987.4	
240.18	4016.1	
240.39	7050.5	
240.6	5849	
240.82	4137.6	
241.03	3385.3	
241.24	5563	
241.45	6473.6	
241.66	3713	
241.87	4393.6	
242.09	6298.9	
242.3	6769.9	
242.51	4362.2	
242.72	4048.2	
242.93	6135	
243.14	5505.6	
243.36	4669.4	
243.57	5066	
243.78	6453.8	
243.99	5834.7	
244.2	4106.9	
244.41	3649.5	
244.63	5040.7	
244.84	5857.9	
245.05	4302.1	
245.26	4086.4	
245.47	5814.2	
245.68	6216.3	
245.9	5402.5	
246.11	4280.9	
246.32	5427.1	
246.53	5801.9	
246.74	6610.8	
246.95	3403	
247.16	4988.9	
247.38	5546.6	
247.59	3358.7	
247.8	4071.4	
248.01	5240.8	
248.22	5496.1	
248.43	3740.3	
248.64	3963.5	
248.86	4856.4	
249.07	5303.6	
249.28	3522.5	
249.49	4216.1	
249.7	6128.9	
249.91	6328.2	
250.12	3314.3	
250.34	3442	
250.55	5683.8	
250.76	5562.3	
250.97	4187.4	
251.18	4207.9	
251.39	6281.1	
251.6	5771.9	
251.81	4342.4	
252.03	4268	
252.24	5314.5	
252.45	6100.9	
252.66	3491.8	
252.87	4552	
253.08	5522	
253.29	7505.8	
253.5	3573.7	
253.72	4944.5	
253.93	5371.1	
254.14	6640.2	
254.35	3837.2	
254.56	3963.5	
254.77	5804.6	
254.98	5132.9	
255.19	3781.2	
255.41	4843.4	
255.62	5634.6	
255.83	6238.8	
256.04	4353.3	
256.25	4246.8	
256.46	6885.3	
256.67	5209.3	
256.88	4149.2	
257.09	4681.7	
257.31	5260.5	
257.52	5233.2	
257.73	5264	
257.94	3812.6	
258.15	5405.3	
258.36	5560.2	
258.57	4933.6	
258.78	3047.4	
258.99	6098.2	
259.2	5455.1	
259.41	3859.1	
259.63	3954.6	
259.84	6464.8	
260.05	6925.5	
260.26	5127.4	
260.47	3762.1	
260.68	6137.1	
260.89	5441.5	
261.1	4709.6	
261.31	3656.3	
261.52	6120	
261.73	6536.4	
261.95	4987.5	
262.16	4415.4	
262.37	6325.5	
262.58	6434.7	
262.79	5018.9	
263	3947.1	
263.21	5629.2	
263.42	5068	
263.63	4010.6	
263.84	3928	
264.05	6191.7	
264.26	6570.6	
264.47	4886.5	
264.69	4411.3	
264.9	6319.3	
265.11	5752.1	
265.32	3766.2	
265.53	3920.5	
265.74	5674.2	
265.95	4986.8	
266.16	4147.1	
266.37	4559.5	
266.58	5677.7	
266.79	5374.6	
267	3842.7	
267.21	3556.6	
267.42	5139.7	
267.63	5599.8	
267.84	4014	
268.06	3428.3	
268.27	5984.2	
268.48	6382.2	
268.69	3962.8	
268.9	4711	
269.11	6302.3	
269.32	4990.2	
269.53	4074.8	
269.74	3749.8	
269.95	5928.2	
270.16	4917.2	
270.37	4104.1	
270.58	4682.3	
270.79	5443.5	
271	6120	
271.21	4381.3	
271.42	4108.9	
271.63	5718.6	
271.84	5223	
272.05	3166.2	
272.26	3635.1	
272.47	5576.6	
272.68	5748.6	
272.89	3893.2	
273.11	4550.6	
273.32	5390.9	
273.53	6589	
273.74	4319.2	
273.95	4276.2	
274.16	6268.1	
274.37	5636	
274.58	4445.5	
274.79	3520.5	
275	5679.7	
275.21	6271.6	
275.42	5373.9	
275.63	4604.5	
275.84	5805.3	
276.05	7447.1	
276.26	4265.9	
276.47	3934.1	
276.68	5410.1	
276.89	6689.3	
277.1	4595	
277.31	3513.6	
277.52	5818.3	
277.73	5922	
277.94	3534.1	
278.15	3950.5	
278.36	5778.7	
278.57	5246.2	
278.78	3861.1	
278.99	4471.4	
279.2	5220.3	
279.41	5062.6	
279.62	5166.3	
279.83	3601	
280.04	6860	
280.25	5062.6	
280.46	5131.5	
280.67	4063.2	
280.88	5117.2	
281.09	6305.7	
281.3	4303.5	
281.51	5414.8	
281.72	6130.3	
281.93	6091.3	
282.14	3798.3	
282.35	4072.7	
282.56	6059.3	
282.77	6059.9	
282.98	3929.4	
283.19	4863.2	
283.4	7500.3	
283.61	5494.7	
283.82	3580.5	
284.03	5007.3	
284.24	5636.7	
284.45	6218.3	
284.66	5114.5	
284.87	4883.7	
285.08	6171.9	
285.29	6339.1	
285.5	3418.7	
285.71	4035.9	
285.92	6277.7	
286.12	6934.4	
286.33	4957.4	
286.54	3924.6	
286.75	6075.6	
286.96	5446.2	
287.17	3618.8	
287.38	4958.1	
287.59	5184.8	
287.8	5062.6	
288.01	3991.5	
288.22	4650.3	
288.43	6168.5	
288.64	5100.8	
288.85	4757.4	
289.06	4459.8	
289.27	6022.4	
289.48	6557.6	
289.69	5046.2	
289.9	4586.8	
290.11	6276.3	
290.32	5266.7	
290.53	4859.8	
290.74	4427.7	
290.94	6067.4	
291.15	6088.6	
291.36	3809.9	
291.57	4534.2	
291.78	5260.5	
291.99	4932.2	
292.2	3614	
292.41	4414.7	
292.62	6158.9	
292.83	5930.9	
293.04	5418.2	
293.25	3651.5	
293.46	5337	
293.67	6267.5	
293.88	3820.1	
294.09	3653.6	
294.29	5094	
294.5	5761.6	
294.71	4076.1	
294.92	3873.4	
295.13	5352.7	
295.34	6741.2	
295.55	3408.5	
295.76	3514.3	
295.97	6052.4	
296.18	6849.1	
296.39	3574.4	
296.6	3823.6	
296.81	5675.6	
297.01	5982.1	
297.22	3910.9	
297.43	3803.1	
297.64	5193.6	
297.85	5203.2	
298.06	3142.3	
298.27	3360	
298.48	5639.4	
298.69	5267.4	
298.9	4119.1	
299.11	3711.6	
299.31	5051	
299.52	5094.7	
299.73	4468.7	
299.94	4301.4	
300.15	5560.9	
300.36	5156.8	
300.57	4373.8	
300.78	4337.6	
300.99	5406.6	
301.2	5740.5	
301.4	3736.9	
301.61	4160.1	
301.82	5930.2	
302.03	6073.6	
302.24	4719.2	
302.45	3592.1	
302.66	5896.8	
302.87	6442.9	
303.08	3857	
303.29	5251	
303.49	5307	
303.7	5614.8	
303.91	3341.6	
304.12	4927.4	
304.33	5066	
304.54	5719.3	
304.75	3859.7	
304.96	3596.9	
305.16	5959.6	
305.37	6747.4	
305.58	3310.9	
305.79	3483.6	
306	5939.1	
306.21	5036.6	
306.42	3747.1	
306.63	5902.2	
306.83	5441.5	
307.04	6155.5	
307.25	4176.5	
307.46	4177.2	
307.67	4715.8	
307.88	6109.1	
308.09	3766.2	
308.29	3866.6	
308.5	5759.6	
308.71	6253.1	
308.92	4122.6	
309.13	3670	
309.34	5434.6	
309.55	5501.5	
309.75	4706.9	
309.96	4357.4	
310.17	6044.2	
310.38	5286.5	
310.59	4612	
310.8	3543	
311.01	6755.6	
311.21	5477.6	
311.42	3592.1	
311.63	3683.6	
311.84	5255.8	
312.05	5780.7	
312.26	4194.2	
312.46	4650.3	
312.67	5395.7	
312.88	5139	
313.09	3696.6	
313.3	3592.1	
313.51	6465.4	
313.71	6789	
313.92	3605.1	
314.13	3898	
314.34	5810.8	
314.55	5485.1	
314.76	4827.1	
314.96	4132.1	
315.17	5634	
315.38	6015.6	
315.59	3651.5	
315.8	3510.9	
316.01	6528.9	
316.21	6571.2	
316.42	3566.9	
316.63	4059.1	
316.84	5440.1	
317.05	6370.5	
317.26	4319.8	
317.46	3855.6	
317.67	5543.9	
317.88	5941.8	
318.09	4728.1	
318.3	3421.5	
318.5	5302.2	
318.71	5899.5	
318.92	6098.9	
319.13	4360.8	
319.34	6098.9	
319.54	6240.2	
319.75	3457.7	
319.96	3301.3	
320.17	6006.7	
320.38	6227.2	
320.58	3378.5	
320.79	4036.5	
321	6247.7	
321.21	6246.3	
321.42	4043.4	
321.62	3308.2	
321.83	5163.6	
322.04	5595.7	
322.25	3917.8	
322.46	3700.7	
322.66	5726.1	
322.87	5825.1	
323.08	4582	
323.29	3521.8	
323.5	6707.8	
323.7	5116.5	
323.91	5096	
324.12	4544.4	
324.33	5655.1	
324.53	5892	
324.74	4397.7	
324.95	4569.7	
325.16	4949.9	
325.37	5422.3	
325.57	3691.8	
325.78	3801.7	
325.99	5639.4	
326.2	5039.4	
326.4	5393.7	
326.61	3371	
326.82	5489.9	
327.03	5702.9	
327.24	5266	
327.44	5066	
327.65	5838.1	
327.86	4711.7	
328.07	4369	
328.27	3512.3	
328.48	6320	
328.69	5125.4	
328.9	5372.5	
329.1	3997.6	
329.31	5524.1	
329.52	6438.8	
329.73	3623.5	
329.93	4190.8	
330.14	5526.8	
330.35	5948	
330.56	6170.5	
330.76	4548.5	
330.97	5400.5	
331.18	5883.1	
331.39	4104.8	
331.59	3306.8	
331.8	6194.4	
332.01	6357.6	
332.22	3799	
332.42	4409.3	
332.63	5744.6	
332.84	5287.9	
333.05	4190.1	
333.25	3754.6	
333.46	5327.4	
333.67	5624.4	
333.88	3846.8	
334.08	4321.2	
334.29	7500.3	
334.5	6303.6	
334.7	3570.3	
334.91	5304.9	
335.12	5112.4	
335.33	6081.1	
335.53	4143.7	
335.74	6162.3	
335.95	5359.5	
336.16	5193.6	
336.36	4068.6	
336.57	4745.8	
336.78	5079	
336.98	6304.3	
337.19	5083.1	
337.4	4081.6	
337.61	6805.4	
337.81	5122	
338.02	3792.8	
338.23	4926.7	
338.43	6443.6	
338.64	5203.9	
338.85	3700.7	
339.05	4897.4	
339.26	6455.2	
339.47	4999.8	
339.68	3714.3	
339.88	5568.4	
340.09	5809.4	
340.3	6084.5	
340.5	4358.1	
340.71	3323.9	
340.92	5037.3	
341.13	6403.3	
341.33	3646.1	
341.54	4361.5	
341.75	5885.9	
341.95	5459.2	
342.16	4119.8	
342.37	4545.1	
342.57	5155.4	
342.78	5654.4	
342.99	4657.8	
343.19	3301.3	
343.4	6071.5	
343.61	5831.2	
343.81	3944.4	
344.02	3661.1	
344.23	6087.2	
344.43	6494.1	
344.64	4613.4	
344.85	4554.7	
345.06	5937.7	
345.26	6287.9	
345.47	4268	
345.68	4997	
345.88	4934.9	
346.09	6165.1	
346.3	4382.7	
346.5	3272	
346.71	5617.6	
346.92	5279.7	
347.12	3335.5	
347.33	4268.6	
347.54	6189.6	
347.74	6602.7	
347.95	4271.4	
348.16	3107.5	
348.36	5427.1	
348.57	5166.3	
348.78	4248.2	
348.98	4592.9	
349.19	5591.6	
349.39	5089.2	
349.6	3394.8	
349.81	3753.9	
350.01	5859.2	
350.22	5289.9	
350.43	4066.6	
350.63	4982.7	
350.84	5698.1	
351.05	5408.7	
351.25	3769.6	
351.46	3397.6	
351.67	6292	
351.87	5283.8	
352.08	4038.6	
352.29	4603.2	
352.49	6120	
352.7	5748.6	
352.9	3617.4	
353.11	4590.2	
353.32	6911.9	
353.52	5460.6	
353.73	3606.5	
353.94	4622.9	
354.14	5982.1	
354.35	5775.3	
354.55	3725.9	
354.76	4091.8	
354.97	6001.2	
355.17	5691.3	
355.38	3538.9	
355.59	4967.7	
355.79	5324.7	
356	5859.2	
356.2	4183.3	
356.41	3576.4	
356.62	5080.3	
356.82	5593.7	
357.03	4485.1	
357.24	4044.7	
357.44	5394.3	
357.65	5549.3	
357.85	5431.2	
358.06	4291.2	
358.27	5087.2	
358.47	5474.9	
358.68	3540.9	
358.88	4546.5	
359.09	6010.8	
359.3	6458.6	
359.5	5292	
359.71	4626.4	
359.91	6972	
360.12	6251.8	
360.33	4509.6	
360.53	5064.6	
360.74	5454.4	
360.94	5555.5	
361.15	4825	
361.36	3970.3	
361.56	6347.3	
361.77	5783.5	
361.97	5347.2	
362.18	4246.1	
362.38	6389.7	
362.59	5403.2	
362.8	3916.4	
363	3676.8	
363.21	5186.1	
363.41	5966.4	
363.62	4517.8	
363.83	5634.6	
364.03	6029.2	
364.24	7155.6	
364.44	5773.2	
364.65	5788.9	
364.85	5779.4	
365.06	5414.1	
365.27	4225	
365.47	4198.3	
365.68	6853.9	
365.88	5779.4	
366.09	4777.2	
366.29	4379.2	
366.5	6150.7	
366.71	6622.4	
366.91	5778.7	
367.12	4864.6	
367.32	7275.8	
367.53	6548	
367.73	4881.7	
367.94	5869.5	
368.14	6420.4	
368.35	7444.4	
368.56	4929.5	
368.76	4115.1	
368.97	6530.3	
369.17	8382.3	
369.38	4336.2	
369.58	4593.6	
369.79	5576.6	
369.99	6942.6	
370.2	5683.1	
370.4	4743.1	
370.61	6265.4	
370.82	7542.7	
371.02	4669.4	
371.23	3880.2	
371.43	5503.6	
371.64	6954.9	
371.84	4738.3	
372.05	6040.1	
372.25	8425.3	
372.46	6729.6	
372.66	4850.3	
372.87	4777.9	
373.07	6803.4	
373.28	8664.3	
373.48	5961	
373.69	5701.5	
373.9	6328.9	
374.1	6333.7	
374.31	5983.5	
374.51	5504.9	
374.72	7396.6	
374.92	6016.2	
375.13	6213.5	
375.33	5366.4	
375.54	6920.8	
375.74	6300.2	
375.95	5399.8	
376.15	6830.7	
376.36	6956.9	
376.56	6828.6	
376.77	5633.3	
376.97	6128.2	
377.18	8209.6	
377.38	7199.3	
377.59	6540.5	
377.79	5172.5	
378	7071	
378.2	7573.4	
378.41	5298.8	
378.61	5175.2	
378.82	7592.5	
379.02	6614.9	
379.23	5485.1	
379.43	6798.6	
379.64	7610.9	
379.84	7316.7	
380.05	5388.2	
380.25	5227.8	
380.46	7404.8	
380.66	6969.9	
380.87	6691.4	
381.07	7090.1	
381.28	8122.9	
381.48	7323.5	
381.69	5322.7	
381.89	5291.3	
382.1	6143.2	
382.3	7533.1	
382.51	6565.8	
382.71	7548.1	
382.91	7331	
383.12	7902.4	
383.32	5633.3	
383.53	5909.1	
383.73	7133.1	
383.94	6926.9	
384.14	5763.7	
384.35	4797.7	
384.55	6779.5	
384.76	7313.3	
384.96	5539.8	
385.17	5879.7	
385.37	7141.3	
385.58	6449.1	
385.78	5965.1	
385.98	4636.6	
386.19	6627.9	
386.39	7074.4	
386.6	5401.9	
386.8	5591.6	
387.01	7293.5	
387.21	7255.3	
387.42	6070.9	
387.62	6688.7	
387.83	6529.6	
388.03	7316.7	
388.23	5833.3	
388.44	6694.8	
388.64	6182.8	
388.85	6447.7	
389.05	6178.7	
389.26	6944	
389.46	8570.1	
389.67	8064.2	
389.87	6317.3	
390.07	6310.5	
390.28	7132.4	
390.48	6644.3	
390.69	5412.8	
390.89	5832.6	
391.1	6864.8	
391.3	7903.8	
391.5	7109.2	
391.71	7694.2	
391.91	7557.7	
392.12	8727.1	
392.32	7172	
392.53	6367.8	
392.73	6869.6	
392.93	7146.7	
393.14	5970.5	
393.34	6774.7	
393.55	7645.1	
393.75	6976.7	
393.95	5919.3	
394.16	5810.8	
394.36	6845	
394.57	7519.5	
394.77	5341.1	
394.98	5802.6	
395.18	6838.9	
395.38	7132.4	
395.59	6855.2	
395.79	5840.1	
396	7111.9	
396.2	7705.1	
396.4	6731.7	
396.61	6838.9	
396.81	8047.8	
397.02	7232.1	
397.22	7161.7	
397.42	7267.6	
397.63	8019.8	
397.83	7307.8	
398.04	5941.8	
398.24	6724.8	
398.44	7829.4	
398.65	6972.7	
398.85	5875.6	
399.05	5999.9	
399.26	7325.6	
399.46	9224.7	
399.67	6518	
399.87	6130.3	
400.07	7851.2	
400.28	8267	
400.48	6455.2	
400.69	7598	
400.89	8679.3	
401.09	9020.6	
401.3	6388.3	
401.5	7636.9	
401.7	9453.4	
401.91	9621.4	
402.11	6798.6	
402.32	7075	
402.52	8677.9	
402.72	8566	
402.93	7180.9	
403.13	5807.4	
403.33	9258.2	
403.54	7730.4	
403.74	6632	
403.94	7485.3	
404.15	7729.7	
404.35	8966	
404.56	6314.6	
404.76	8288.1	
404.96	8214.4	
405.17	8026.7	
405.37	7452.6	
405.57	7048.4	
405.78	8531.8	
405.98	7886	
406.18	6625.9	
406.39	7650.5	
406.59	8496.3	
406.79	8081.3	
407	6295.5	
407.2	6438.8	
407.4	8563.2	
407.61	8771.5	
407.81	6574	
408.01	8590.5	
408.22	7619.8	
408.42	9865.7	
408.62	8103.8	
408.83	7608.2	
409.03	8768.7	
409.23	8545.5	
409.44	7990.5	
409.64	8318.2	
409.84	10127	
410.05	10040	
410.25	8417.2	
410.45	8136.6	
410.66	9695.1	
410.86	12308	
411.06	8931.9	
411.27	8769.4	
411.47	12379	
411.67	10134	
411.88	9071.8	
412.08	9666.4	
412.28	10888	
412.49	11514	
412.69	9073.2	
412.89	9171.5	
413.09	11322	
413.3	11264	
413.5	9288.2	
413.7	8860.2	
413.91	10454	
414.11	11480	
414.31	9232.9	
414.52	9830.9	
414.72	11073	
414.92	11174	
415.12	9172.2	
415.33	9779.1	
415.53	11589	
415.73	11809	
415.94	10242	
416.14	9722.4	
416.34	10549	
416.55	10082	
416.75	10903	
416.95	10349	
417.15	11785	
417.36	12319	
417.56	11428	
417.76	10295	
417.97	12151	
418.17	11872	
418.37	9787.9	
418.57	9992	
418.78	11503	
418.98	11078	
419.18	10914	
419.38	10719	
419.59	11292	
419.79	10654	
419.99	9789.3	
420.2	10137	
420.4	11725	
420.6	11832	
420.8	9602.2	
421.01	9396.1	
421.21	11676	
421.41	11777	
421.61	10107	
421.82	9719.7	
422.02	11144	
422.22	11996	
422.42	10658	
422.63	10039	
422.83	11064	
423.03	12518	
423.23	10025	
423.44	8968.7	
423.64	11109	
423.84	10694	
424.04	9497.8	
424.25	9053.4	
424.45	11874	
424.65	11784	
424.85	8717.5	
425.06	9427.5	
425.26	11897	
425.46	10309	
425.66	9884.2	
425.87	9515.5	
426.07	11595	
426.27	11413	
426.47	9651.4	
426.67	8877.3	
426.88	11804	
427.08	11233	
427.28	9958.6	
427.48	8806.9	
427.69	9944.3	
427.89	10778	
428.09	9824.8	
428.29	8942.8	
428.5	11578	
428.7	11090	
428.9	8845.9	
429.1	9275.3	
429.3	10887	
429.51	11354	
429.71	8921.6	
429.91	10029	
430.11	11324	
430.31	12078	
430.52	9584.5	
430.72	10068	
430.92	12101	
431.12	11510	
431.32	9311.4	
431.53	9635	
431.73	10208	
431.93	12080	
432.13	9078.6	
432.33	9096.4	
432.54	10738	
432.74	11292	
432.94	9112.8	
433.14	10122	
433.34	11392	
433.55	11071	
433.75	10211	
433.95	12324	
434.15	11303	
434.35	11097	
434.56	9293	
434.76	9004.9	
434.96	11351	
435.16	11828	
435.36	9364.7	
435.56	10699	
435.77	11194	
435.97	11308	
436.17	11452	
436.37	10774	
436.57	11198	
436.78	11199	
436.98	11535	
437.18	11202	
437.38	12207	
437.58	11352	
437.78	11471	
437.99	9820	
438.19	11794	
438.39	13423	
438.59	9711.5	
438.79	9059.5	
438.99	12452	
439.2	11178	
439.4	9101.2	
439.6	9234.3	
439.8	11523	
440	12712	
440.2	10460	
440.4	10703	
440.61	12103	
440.81	12768	
441.01	9891	
441.21	11017	
441.41	13060	
441.61	12426	
441.81	11456	
442.02	12484	
442.22	13472	
442.42	12557	
442.62	10170	
442.82	10095	
443.02	12942	
443.22	12035	
443.43	10680	
443.63	10041	
443.83	11625	
444.03	11875	
444.23	11803	
444.43	11145	
444.63	12280	
444.83	13693	
445.04	10464	
445.24	11968	
445.44	12568	
445.64	12626	
445.84	11053	
446.04	11161	
446.24	11733	
446.44	12889	
446.65	9986.6	
446.85	10639	
447.05	11515	
447.25	12732	
447.45	10542	
447.65	9941.5	
447.85	11983	
448.05	11450	
448.25	11100	
448.46	10841	
448.66	11926	
448.86	11615	
449.06	9699.9	
449.26	11114	
449.46	12527	
449.66	11376	
449.86	10700	
450.06	10444	
450.26	11736	
450.47	12351	
450.67	10793	
450.87	11305	
451.07	12280	
451.27	12230	
451.47	10101	
451.67	10868	
451.87	11856	
452.07	12923	
452.27	10523	
452.47	10297	
452.67	11979	
452.88	12751	
453.08	9547.6	
453.28	11928	
453.48	13553	
453.68	11916	
453.88	10425	
454.08	10568	
454.28	12581	
454.48	12174	
454.68	11137	
454.88	11770	
455.08	12686	
455.28	12688	
455.48	10058	
455.68	11063	
455.89	13409	
456.09	13091	
456.29	10730	
456.49	11080	
456.69	13407	
456.89	12448	
457.09	11447	
457.29	12112	
457.49	12991	
457.69	13317	
457.89	11611	
458.09	10816	
458.29	12955	
458.49	13749	
458.69	12137	
458.89	11615	
459.09	14234	
459.29	14272	
459.49	11632	
459.69	12501	
459.9	13682	
460.1	13293	
460.3	11368	
460.5	11159	
460.7	13661	
460.9	13330	
461.1	10941	
461.3	12474	
461.5	14560	
461.7	14067	
461.9	11725	
462.1	11963	
462.3	13662	
462.5	14392	
462.7	11850	
462.9	12039	
463.1	15493	
463.3	15242	
463.5	12119	
463.7	13567	
463.9	14064	
464.1	14599	
464.3	12892	
464.5	12900	
464.7	14986	
464.9	15018	
465.1	14413	
465.3	13493	
465.5	15410	
465.7	15418	
465.9	13908	
466.1	13405	
466.3	15417	
466.5	14986	
466.7	14795	
466.9	13408	
467.1	15131	
467.3	16108	
467.5	14980	
467.7	13436	
467.9	16497	
468.1	17535	
468.3	14250	
468.5	14913	
468.7	15326	
468.9	15297	
469.1	13928	
469.3	14767	
469.5	17483	
469.7	14868	
469.9	14234	
470.1	13718	
470.3	15308	
470.5	15328	
470.7	15099	
470.9	13700	
471.1	15217	
471.3	15177	
471.5	13533	
471.69	15560	
471.89	14603	
472.09	14308	
472.29	14300	
472.49	14506	
472.69	14598	
472.89	15256	
473.09	13328	
473.29	13197	
473.49	14661	
473.69	14652	
473.89	14283	
474.09	13307	
474.29	16006	
474.49	15715	
474.69	14261	
474.89	13408	
475.09	14609	
475.29	14685	
475.49	12666	
475.69	13220	
475.88	16141	
476.08	14720	
476.28	12658	
476.48	13008	
476.68	15061	
476.88	14994	
477.08	12734	
477.28	13196	
477.48	14320	
477.68	14997	
477.88	12639	
478.08	12774	
478.28	15489	
478.48	14437	
478.67	13066	
478.87	12239	
479.07	15288	
479.27	14469	
479.47	13145	
479.67	13140	
479.87	14950	
480.07	15553	
480.27	12411	
480.47	14135	
480.67	14503	
480.87	15324	
481.06	12632	
481.26	13709	
481.46	14459	
481.66	14517	
481.86	13127	
482.06	14279	
482.26	14217	
482.46	15119	
482.66	12905	
482.86	12529	
483.05	14560	
483.25	13959	
483.45	15599	
483.65	12974	
483.85	14154	
484.05	14563	
484.25	13564	
484.45	14130	
484.65	15382	
484.84	15720	
485.04	12934	
485.24	13064	
485.44	15844	
485.64	14052	
485.84	12467	
486.04	14039	
486.24	14515	
486.44	14985	
486.63	12450	
486.83	13402	
487.03	14564	
487.23	14876	
487.43	12589	
487.63	15359	
487.83	14872	
488.02	15896	
488.22	13934	
488.42	14510	
488.62	15732	
488.82	14720	
489.02	13237	
489.22	13671	
489.41	15668	
489.61	15338	
489.81	13124	
490.01	13201	
490.21	15677	
490.41	16324	
490.61	13169	
490.8	13394	
491	15174	
491.2	14256	
491.4	13861	
491.6	12920	
491.8	14951	
491.99	15223	
492.19	12683	
492.39	13121	
492.59	15567	
492.79	15654	
492.99	14013	
493.18	13201	
493.38	15819	
493.58	16820	
493.78	14070	
493.98	13626	
494.18	15664	
494.37	15305	
494.57	14713	
494.77	14617	
494.97	16254	
495.17	16649	
495.37	14204	
495.56	14537	
495.76	16925	
495.96	16557	
496.16	15770	
496.36	14567	
496.55	16889	
496.75	16435	
496.95	15051	
497.15	14934	
497.35	16806	
497.54	16929	
497.74	14607	
497.94	16646	
498.14	17622	
498.34	17454	
498.53	14345	
498.73	15370	
498.93	16229	
499.13	16961	
499.33	15133	
499.52	15690	
499.72	17102	
499.92	17178	
500.12	14937	
500.32	15316	
500.51	17249	
500.71	17145	
500.91	16141	
501.11	15592	
501.31	17227	
501.5	17649	
501.7	16296	
501.9	15197	
502.1	16822	
502.29	17259	
502.49	15785	
502.69	16008	
502.89	17041	
503.09	17109	
503.28	14446	
503.48	14541	
503.68	15929	
503.88	16044	
504.07	15395	
504.27	14752	
504.47	16494	
504.67	16384	
504.86	15278	
505.06	14942	
505.26	15889	
505.46	17774	
505.65	14593	
505.85	14838	
506.05	15548	
506.25	16094	
506.44	13729	
506.64	14633	
506.84	15435	
507.04	16281	
507.23	13673	
507.43	14367	
507.63	17441	
507.83	15341	
508.02	14231	
508.22	13889	
508.42	17518	
508.62	15038	
508.81	14235	
509.01	14687	
509.21	14685	
509.4	15191	
509.6	14172	
509.8	13577	
510	14999	
510.19	16746	
510.39	13456	
510.59	13597	
510.79	14943	
510.98	16642	
511.18	13808	
511.38	13725	
511.57	15816	
511.77	15716	
511.97	14369	
512.17	13266	
512.36	15771	
512.56	15741	
512.76	13352	
512.95	13063	
513.15	15806	
513.35	14356	
513.55	14343	
513.74	13433	
513.94	15687	
514.14	15097	
514.33	14439	
514.53	14291	
514.73	15005	
514.92	15313	
515.12	13575	
515.32	13530	
515.51	15423	
515.71	16005	
515.91	15358	
516.11	13486	
516.3	17378	
516.5	14917	
516.7	14120	
516.89	14965	
517.09	15177	
517.29	15079	
517.48	14400	
517.68	13803	
517.88	14803	
518.07	15576	
518.27	14280	
518.47	13263	
518.66	16009	
518.86	14599	
519.06	13065	
519.25	13515	
519.45	14817	
519.65	16687	
519.84	14257	
520.04	14976	
520.24	16950	
520.43	15675	
520.63	13895	
520.83	13689	
521.02	14687	
521.22	15328	
521.42	14055	
521.61	14622	
521.81	14804	
522.01	15090	
522.2	13837	
522.4	13488	
522.6	15593	
522.79	14398	
522.99	13732	
523.18	13114	
523.38	15414	
523.58	15461	
523.77	15376	
523.97	13285	
524.17	17520	
524.36	16695	
524.56	14886	
524.76	14503	
524.95	15824	
525.15	15515	
525.34	14412	
525.54	14512	
525.74	16260	
525.93	15216	
526.13	15773	
526.33	14541	
526.52	16815	
526.72	16255	
526.91	15842	
527.11	15184	
527.31	16877	
527.5	17280	
527.7	15063	
527.89	13994	
528.09	15842	
528.29	16497	
528.48	15438	
528.68	15079	
528.87	16707	
529.07	16792	
529.27	14976	
529.46	14534	
529.66	16323	
529.85	16851	
530.05	14260	
530.25	15085	
530.44	17931	
530.64	16131	
530.83	14698	
531.03	15158	
531.23	16703	
531.42	16636	
531.62	15811	
531.81	14926	
532.01	16948	
532.21	17619	
532.4	15012	
532.6	15332	
532.79	18177	
532.99	17420	
533.18	15464	
533.38	16719	
533.58	16986	
533.77	17841	
533.97	15518	
534.16	16367	
534.36	17951	
534.55	17063	
534.75	16573	
534.95	15716	
535.14	18007	
535.34	16992	
535.53	15150	
535.73	17291	
535.92	18448	
536.12	17171	
536.31	15274	
536.51	16476	
536.71	17307	
536.9	16765	
537.1	15313	
537.29	15499	
537.49	17692	
537.68	16649	
537.88	15926	
538.07	15122	
538.27	17032	
538.46	18013	
538.66	15064	
538.86	15473	
539.05	16959	
539.25	17679	
539.44	15794	
539.64	15307	
539.83	16776	
540.03	17902	
540.22	15156	
540.42	15186	
540.61	16806	
540.81	17163	
541	15596	
541.2	16391	
541.39	16347	
541.59	16789	
541.78	15867	
541.98	14771	
542.18	15888	
542.37	15995	
542.57	15093	
542.76	15821	
542.96	15842	
543.15	16656	
543.35	15010	
543.54	14339	
543.74	16547	
543.93	16094	
544.13	14689	
544.32	15899	
544.52	16410	
544.71	15573	
544.91	13714	
545.1	15016	
545.3	15525	
545.49	16372	
545.69	13557	
545.88	14175	
546.08	17243	
546.27	16789	
546.47	14691	
546.66	13970	
546.86	16316	
547.05	17090	
547.24	14134	
547.44	14076	
547.63	15059	
547.83	16565	
548.02	14356	
548.22	14618	
548.41	15001	
548.61	16353	
548.8	13874	
549	13605	
549.19	15476	
549.39	15891	
549.58	13216	
549.78	14044	
549.97	15937	
550.17	15359	
550.36	14729	
550.55	15904	
550.75	15504	
550.94	16212	
551.14	13454	
551.33	13680	
551.53	14620	
551.72	15663	
551.92	13910	
552.11	13568	
552.31	15543	
552.5	15581	
552.69	15369	
552.89	13044	
553.08	15578	
553.28	15096	
553.47	13493	
553.67	14633	
553.86	16115	
554.06	14197	
554.25	12611	
554.44	13281	
554.64	16883	
554.83	16332	
555.03	13061	
555.22	13573	
555.42	15539	
555.61	15257	
555.8	13285	
556	13556	
556.19	14299	
556.39	15673	
556.58	13272	
556.78	13251	
556.97	14832	
557.16	14666	
557.36	14397	
557.55	12859	
557.75	13802	
557.94	15960	
558.13	12867	
558.33	12633	
558.52	15541	
558.72	14293	
558.91	12770	
559.1	12979	
559.3	13992	
559.49	13480	
559.69	12243	
559.88	13305	
560.07	14650	
560.27	15155	
560.46	13491	
560.66	13578	
560.85	14418	
561.04	13530	
561.24	12590	
561.43	12682	
561.63	13888	
561.82	14056	
562.01	14098	
562.21	13002	
562.4	14524	
562.59	15752	
562.79	12780	
562.98	12437	
563.18	14410	
563.37	16085	
563.56	13554	
563.76	12471	
563.95	13814	
564.14	13830	
564.34	12727	
564.53	12566	
564.73	14435	
564.92	14914	
565.11	13094	
565.31	12338	
565.5	15039	
565.69	13932	
565.89	12605	
566.08	12806	
566.27	14949	
566.47	15390	
566.66	13558	
566.85	12017	
567.05	14429	
567.24	13771	
567.44	12383	
567.63	13971	
567.82	14614	
568.02	14408	
568.21	12465	
568.4	12874	
568.6	14241	
568.79	14260	
568.98	12168	
569.18	12471	
569.37	14286	
569.56	16396	
569.76	12803	
569.95	13925	
570.14	14586	
570.34	14465	
570.53	12104	
570.72	12096	
570.91	14971	
571.11	13985	
571.3	12594	
571.49	13489	
571.69	13989	
571.88	13529	
572.07	13191	
572.27	12962	
572.46	13561	
572.65	14595	
572.85	12320	
573.04	12736	
573.23	14954	
573.43	14117	
573.62	12088	
573.81	12809	
574	14150	
574.2	14008	
574.39	12490	
574.58	12666	
574.78	15113	
574.97	14314	
575.16	13046	
575.36	13370	
575.55	14799	
575.74	14870	
575.93	12024	
576.13	13407	
576.32	13966	
576.51	14777	
576.71	12551	
576.9	14031	
577.09	14988	
577.28	14414	
577.48	13103	
577.67	11957	
577.86	14218	
578.05	14420	
578.25	12720	
578.44	12856	
578.63	14269	
578.83	15586	
579.02	12103	
579.21	13835	
579.4	14420	
579.6	14055	
579.79	12863	
579.98	15195	
580.17	14887	
580.37	14944	
580.56	12353	
580.75	13220	
580.94	15487	
581.14	15075	
581.33	13742	
581.52	12411	
581.71	14832	
581.91	15472	
582.1	12141	
582.29	12775	
582.48	14485	
582.68	14294	
582.87	13416	
583.06	12982	
583.25	14744	
583.45	14121	
583.64	13656	
583.83	14562	
584.02	14108	
584.21	14783	
584.41	13605	
584.6	12881	
584.79	14450	
584.98	15307	
585.18	12316	
585.37	12317	
585.56	13753	
585.75	14783	
585.94	12466	
586.14	13218	
586.33	15156	
586.52	14343	
586.71	12892	
586.91	12635	
587.1	13407	
587.29	14567	
587.48	12263	
587.67	12265	
587.87	14198	
588.06	14300	
588.25	13620	
588.44	12648	
588.63	13657	
588.83	14308	
589.02	11880	
589.21	11662	
589.4	13070	
589.59	12827	
589.78	10606	
589.98	10732	
590.17	12098	
590.36	12694	
590.55	9814.5	
590.74	10524	
590.94	13865	
591.13	12280	
591.32	10309	
591.51	9691.7	
591.7	12752	
591.89	12138	
592.09	9848	
592.28	10466	
592.47	11336	
592.66	13413	
592.85	9999.5	
593.05	10243	
593.24	11909	
593.43	12842	
593.62	10337	
593.81	10887	
594	12172	
594.19	12527	
594.39	10288	
594.58	10204	
594.77	12523	
594.96	13160	
595.15	10072	
595.34	10856	
595.54	12279	
595.73	11503	
595.92	9316.9	
596.11	10630	
596.3	12876	
596.49	11495	
596.68	10413	
596.88	10886	
597.07	12711	
597.26	11417	
597.45	9833	
597.64	11243	
597.83	11666	
598.02	12484	
598.22	9996.8	
598.41	10739	
598.6	12143	
598.79	11536	
598.98	9991.4	
599.17	11229	
599.36	12171	
599.55	13530	
599.74	12321	
599.94	12051	
600.13	12946	
600.32	11517	
600.51	10006	
600.7	10014	
600.89	13579	
601.08	13546	
601.27	9914.2	
601.47	10936	
601.66	12772	
601.85	13506	
602.04	10660	
602.23	11019	
602.42	11788	
602.61	12614	
602.8	10458	
602.99	10264	
603.18	12159	
603.37	12534	
603.57	11060	
603.76	11626	
603.95	13267	
604.14	12783	
604.33	10352	
604.52	10801	
604.71	12472	
604.9	11989	
605.09	11313	
605.28	11308	
605.47	13114	
605.66	12683	
605.86	11064	
606.05	10408	
606.24	12951	
606.43	11529	
606.62	10706	
606.81	11525	
607	12889	
607.19	12103	
607.38	10052	
607.57	10269	
607.76	11868	
607.95	11249	
608.14	10731	
608.33	11440	
608.52	11729	
608.72	12827	
608.91	9964.7	
609.1	9771.5	
609.29	11777	
609.48	11212	
609.67	10803	
609.86	9769.5	
610.05	11404	
610.24	11794	
610.43	9637.7	
610.62	9140.8	
610.81	12895	
611	12714	
611.19	9789.3	
611.38	10448	
611.57	12022	
611.76	13506	
611.95	9539.4	
612.14	9295	
612.33	11733	
612.52	11225	
612.71	10183	
612.9	9188.6	
613.09	10825	
613.28	13329	
613.47	9682.8	
613.66	10742	
613.85	11802	
614.04	11404	
614.24	9766.1	
614.43	9000.1	
614.62	11967	
614.81	11843	
615	10415	
615.19	10453	
615.38	11021	
615.57	11552	
615.76	10236	
615.95	11177	
616.14	11987	
616.33	11469	
616.52	10577	
616.71	10879	
616.9	11897	
617.09	11761	
617.28	9842.5	
617.47	11426	
617.66	10916	
617.85	10931	
618.04	10779	
618.22	10180	
618.41	11411	
618.6	12315	
618.79	10187	
618.98	9861.7	
619.17	12740	
619.36	10974	
619.55	10052	
619.74	10076	
619.93	11886	
620.12	11278	
620.31	10600	
620.5	10861	
620.69	12462	
620.88	12927	
621.07	11585	
621.26	10513	
621.45	12099	
621.64	12059	
621.83	10634	
622.02	9795.4	
622.21	12029	
622.4	11779	
622.59	11316	
622.78	11101	
622.97	11366	
623.16	12539	
623.35	10558	
623.54	9695.1	
623.72	11600	
623.91	11873	
624.1	10873	
624.29	9258.9	
624.48	13041	
624.67	12097	
624.86	10619	
625.05	9694.4	
625.24	12962	
625.43	11193	
625.62	12540	
625.81	9842.5	
626	12364	
626.19	11504	
626.38	10752	
626.56	9995.5	
626.75	11285	
626.94	11906	
627.13	10631	
627.32	9170.1	
627.51	11916	
627.7	13350	
627.89	9338.1	
628.08	10408	
628.27	10995	
628.46	11241	
628.65	9420.7	
628.83	9138.7	
629.02	11747	
629.21	10994	
629.4	9979.1	
629.59	10168	
629.78	10972	
629.97	11989	
630.16	10238	
630.35	9689.6	
630.54	12493	
630.72	12213	
630.91	9712.2	
631.1	10239	
631.29	11510	
631.48	11903	
631.67	10383	
631.86	9706	
632.05	11101	
632.24	11213	
632.42	9316.9	
632.61	10134	
632.8	11372	
632.99	10950	
633.18	10081	
633.37	10499	
633.56	11582	
633.75	11390	
633.93	10002	
634.12	9749	
634.31	12377	
634.5	11984	
634.69	9764.7	
634.88	10196	
635.07	11303	
635.25	11952	
635.44	10713	
635.63	10964	
635.82	11059	
636.01	10572	
636.2	10671	
636.39	10160	
636.57	12301	
636.76	11994	
636.95	9581.8	
637.14	11075	
637.33	11560	
637.52	12623	
637.7	9258.9	
637.89	10360	
638.08	11157	
638.27	12643	
638.46	10396	
638.65	10903	
638.83	12679	
639.02	10974	
639.21	10204	
639.4	10791	
639.59	11454	
639.78	11006	
639.96	9437	
640.15	9441.1	
640.34	11140	
640.53	11365	
640.72	8938	
640.91	9428.8	
641.09	10466	
641.28	12022	
641.47	9348.3	
641.66	10332	
641.85	11304	
642.03	11415	
642.22	9912.9	
642.41	9437	
642.6	10651	
642.79	9938.1	
642.97	9164.7	
643.16	9854.8	
643.35	10536	
643.54	10297	
643.73	8959.2	
643.91	9846.6	
644.1	10103	
644.29	10718	
644.48	9026.8	
644.67	8951	
644.85	10197	
645.04	10538	
645.23	8382.3	
645.42	8684.1	
645.6	9886.9	
645.79	11071	
645.98	8469.7	
646.17	7537.9	
646.36	9441.8	
646.54	10062	
646.73	9247.9	
646.92	7942	
647.11	9439.8	
647.29	10730	
647.48	7955.7	
647.67	7701.7	
647.86	10925	
648.05	11028	
648.23	8376.9	
648.42	9807	
648.61	10288	
648.8	9967.5	
648.98	7952.3	
649.17	8359.8	
649.36	9579.7	
649.55	9012.4	
649.73	8000	
649.92	8924.4	
650.11	9450	
650.3	9775	
650.48	8123.6	
650.67	7910.6	
650.86	10011	
651.05	8947.6	
651.23	8103.8	
651.42	8032.1	
651.61	9364	
651.79	9590	
651.98	8233.5	
652.17	7815.7	
652.36	9961.3	
652.54	8972.8	
652.73	7992.5	
652.92	7770.7	
653.11	9993.4	
653.29	10000	
653.48	7041.6	
653.67	8230.8	
653.85	9710.8	
654.04	10844	
654.23	8350.3	
654.42	7795.3	
654.6	9092.3	
654.79	9681.4	
654.98	7181.5	
655.16	7724.3	
655.35	8486.1	
655.54	8502.5	
655.73	7193.1	
655.91	7135.1	
656.1	9781.1	
656.29	8396.7	
656.47	6737.1	
656.66	8605.6	
656.85	8744.1	
657.03	8948.3	
657.22	7285.3	
657.41	7580.9	
657.59	9013.8	
657.78	8759.8	
657.97	7109.9	
658.16	7887.4	
658.34	9691	
658.53	10134	
658.72	8834.9	
658.9	9470.5	
659.09	9047.2	
659.28	9220.6	
659.46	7677.8	
659.65	7606.8	
659.84	8966	
660.02	9448.6	
660.21	7460.8	
660.4	7500.3	
660.58	9977.7	
660.77	9232.2	
660.96	8064.9	
661.14	7110.5	
661.33	10460	
661.52	10423	
661.7	6890.7	
661.89	11128	
662.08	8808.3	
662.26	8358.4	
662.45	7197.9	
662.64	7408.2	
662.82	9615.9	
663.01	8767.4	
663.2	7482.6	
663.38	8284	
663.57	9379	
663.75	9260.2	
663.94	7798	
664.13	9224.1	
664.31	8751.7	
664.5	9559.2	
664.69	7962.5	
664.87	8722.3	
665.06	8499.1	
665.25	9283.4	
665.43	8859.5	
665.62	8924.4	
665.8	9611.1	
665.99	8899.8	
666.18	7677.8	
666.36	7895.6	
666.55	9592.7	
666.74	9516.2	
666.92	7282.6	
667.11	9115.5	
667.29	8895.7	
667.48	9612.5	
667.67	8677.9	
667.85	7712.7	
668.04	8848.6	
668.22	8959.9	
668.41	7718.1	
668.6	7931.8	
668.78	8702.5	
668.97	8895.7	
669.15	8163.9	
669.34	6976.7	
669.53	8615.8	
669.71	8989.2	
669.9	7160.4	
670.08	7913.4	
670.27	8750.3	
670.46	9157.8	
670.64	8073.1	
670.83	8396	
671.01	8501.8	
671.2	9159.9	
671.38	7261.4	
671.57	7149.5	
671.76	9858.9	
671.94	10501	
672.13	7079.1	
672.31	8266.3	
672.5	9455.5	
672.69	8539.3	
672.87	7272.3	
673.06	7549.5	
673.24	9163.3	
673.43	8779.6	
673.61	7996.6	
673.8	7516	
673.98	9374.9	
674.17	9510.1	
674.36	8088.1	
674.54	7936.6	
674.73	9039.7	
674.91	9297.1	
675.1	7693.5	
675.28	7314.7	
675.47	8834.3	
675.65	9413.8	
675.84	7467.6	
676.03	7864.2	
676.21	8493.6	
676.4	8103.8	
676.58	8317.5	
676.77	8013.7	
676.95	10188	
677.14	8531.8	
677.32	7059.3	
677.51	6849.8	
677.69	9329.9	
677.88	8089.5	
678.06	6911.2	
678.25	7068.2	
678.44	8804.9	
678.62	8469	
678.81	6752.2	
678.99	7837.6	
679.18	9631.6	
679.36	9216.5	
679.55	7297.6	
679.73	8021.2	
679.92	9085.5	
680.1	8465.6	
680.29	8707.3	
680.47	7417.1	
680.66	8353.7	
680.84	9322.4	
681.03	6539.8	
681.21	7810.3	
681.4	8451.3	
681.58	8374.8	
681.77	7098.9	
681.95	6939.2	
682.14	9382.4	
682.32	9699.9	
682.51	8046.5	
682.69	6668.2	
682.88	8256.7	
683.06	9084.8	
683.25	7653.9	
683.43	8127	
683.62	8531.8	
683.8	9037	
683.99	8259.5	
684.17	7452.6	
684.36	9796.1	
684.54	8352.3	
684.73	6430.6	
684.91	6649.1	
685.1	8589.9	
685.28	7897	
685.46	7017	
685.65	7086.7	
685.83	8656.1	
686.02	7967.3	
686.2	6421.1	
686.39	6621.8	
686.57	7545.4	
686.76	9495.7	
686.94	6474.3	
687.13	6725.5	
687.31	8513.4	
687.5	8023.9	
687.68	6096.8	
687.86	7494.9	
688.05	9934	
688.23	7539.3	
688.42	7391.1	
688.6	6675.7	
688.79	7972.7	
688.97	7907.9	
689.16	7130.3	
689.34	5923.4	
689.52	8878.6	
689.71	9128.5	
689.89	7358.4	
690.08	6522.8	
690.26	8279.9	
690.45	8044.4	
690.63	7525.6	
690.81	6680.5	
691	7817.1	
691.18	7810.3	
691.37	6773.3	
691.55	9224.1	
691.74	7656	
691.92	9923.1	
692.1	6797.9	
692.29	6102.3	
692.47	7909.9	
692.66	7132.4	
692.84	6454.5	
693.02	7002	
693.21	7298.3	
693.39	7865.6	
693.58	7071	
693.76	6543.3	
693.94	9213.8	
694.13	9051.3	
694.31	6544.6	
694.5	7725.6	
694.68	7837.6	
694.86	8218.5	
695.05	7016.3	
695.23	7495.6	
695.42	8670.4	
695.6	11159	
695.78	7692.9	
695.97	6677.1	
696.15	8749.6	
696.34	8023.9	
696.52	6351.4	
696.7	7288.7	
696.89	8333.9	
697.07	7663.5	
697.25	7162.4	
697.44	8828.1	
697.62	8199.4	
697.81	8632.2	
697.99	6770.6	
698.17	7315.3	
698.36	7468.3	
698.54	8245.1	
698.72	7136.5	
698.91	6027.2	
699.09	7795.3	
699.28	7658	
699.46	6740.5	
699.64	6623.8	
699.83	7469.6	
700.01	8909.3	
700.19	7392.5	
700.38	5730.9	
700.56	8907.3	
700.74	7770.7	
700.93	6281.8	
701.11	7170.6	
701.29	8353.7	
701.48	9483.5	
701.66	6496.8	
701.84	6559	
702.03	7932.5	
702.21	8602.8	
702.39	6092	
702.58	6830	
702.76	8331.8	
702.94	8459.5	
703.13	6102.9	
703.31	8642.4	
703.49	7496.2	
703.68	8686.8	
703.86	6273.6	
704.04	7425.9	
704.23	8024.6	
704.41	8579.6	
704.59	6496.2	
704.78	7774.8	
704.96	9269.1	
705.14	8655.4	
705.33	6227.9	
705.51	7196.6	
705.69	7950.2	
705.87	8889.5	
706.06	7453.9	
706.24	6169.8	
706.42	8348.2	
706.61	8636.3	
706.79	7508.5	
706.97	6275.7	
707.16	7691.5	
707.34	8365.3	
707.52	7511.3	
707.7	6560.3	
707.89	7961.8	
708.07	7531.7	
708.25	7438.2	
708.44	7584.3	
708.62	7749.5	
708.8	9099.8	
708.98	7766.6	
709.17	6597.9	
709.35	8307.2	
709.53	8331.1	
709.72	6338.5	
709.9	6472.9	
710.08	8536.6	
710.26	8514.8	
710.45	7998.7	
710.63	6571.9	
710.81	8186.4	
710.99	8142	
711.18	7251.9	
711.36	6694.8	
711.54	7923.6	
711.72	8776.9	
711.91	6766.5	
712.09	6130.3	
712.27	7951.6	
712.45	8962.6	
712.64	7006.8	
712.82	5760.9	
713	7391.8	
713.18	7525.6	
713.37	5939.8	
713.55	7239.6	
713.73	8424.7	
713.91	6775.4	
714.1	6286.6	
714.28	5562.3	
714.46	7817.1	
714.64	6924.9	
714.83	4891.9	
715.01	5831.9	
715.19	6933.1	
715.37	6252.4	
715.55	5344.5	
715.74	5776	
715.92	7976.8	
716.1	5760.3	
716.28	7007.5	
716.47	5875.6	
716.65	6526.9	
716.83	6681.2	
717.01	5766.4	
717.19	5819.6	
717.38	8877.3	
717.56	6300.2	
717.74	5993.7	
717.92	5079	
718.1	7622.5	
718.29	6808.1	
718.47	4745.1	
718.65	5518.6	
718.83	7661.5	
719.01	7580.2	
719.2	4737	
719.38	5926.1	
719.56	7288.7	
719.74	9026.1	
719.92	5465.3	
720.11	6606.1	
720.29	7398.6	
720.47	6319.3	
720.65	4985.4	
720.83	5844.9	
721.02	6675.7	
721.2	6386.9	
721.38	5893.4	
721.56	5074.2	
721.74	5851.7	
721.92	6143.2	
722.11	6418.3	
722.29	6055.2	
722.47	7505.8	
722.65	6571.2	
722.83	5139.7	
723.01	6087.9	
723.2	6565.1	
723.38	6955.6	
723.56	4524.6	
723.74	5722.7	
723.92	6093.4	
724.1	7415	
724.29	5019.6	
724.47	6352.8	
724.65	6182.1	
724.83	6139.1	
725.01	4855.1	
725.19	5891.3	
725.37	6139.8	
725.56	6292	
725.74	4836.6	
725.92	5061.9	
726.1	6083.1	
726.28	6445	
726.46	5525.4	
726.64	5219.6	
726.83	6394.4	
727.01	6613.6	
727.19	4730.1	
727.37	5616.9	
727.55	6531	
727.73	7098.3	
727.91	4663.9	
728.09	4534.9	
728.28	7204.8	
728.46	7833.5	
728.64	5818.3	
728.82	5731.6	
729	8387.1	
729.18	7575.4	
729.36	5010.7	
729.54	7569.3	
729.72	8746.2	
729.91	6870.3	
730.09	7138.5	
730.27	5801.9	
730.45	6772.6	
730.63	7533.8	
730.81	6426.5	
730.99	5403.2	
731.17	8056.7	
731.35	6520	
731.53	6076.3	
731.71	5573.9	
731.9	7766.6	
732.08	7925.6	
732.26	5797.8	
732.44	5516.5	
732.62	8006.9	
732.8	7431.4	
732.98	6240.2	
733.16	5252.4	
733.34	7352.2	
733.52	6169.2	
733.7	5723.4	
733.88	6163	
734.07	7251.9	
734.25	6982.9	
734.43	5277.6	
734.61	6976.1	
734.79	8678.6	
734.97	6832	
735.15	5357.5	
735.33	5793.7	
735.51	7310.6	
735.69	6910.5	
735.87	7047.1	
736.05	5991.7	
736.23	7046.4	
736.41	6883.2	
736.59	5775.3	
736.77	5910.4	
736.95	7547.4	
737.13	6933.1	
737.32	5537.7	
737.5	5711.1	
737.68	8216.5	
737.86	6804.7	
738.04	5251	
738.22	7344	
738.4	6632	
738.58	6988.4	
738.76	6014.9	
738.94	4792.9	
739.12	6756.2	
739.3	6711.9	
739.48	6582.9	
739.66	6348.7	
739.84	7138.5	
740.02	7116	
740.2	4889.9	
740.38	5414.1	
740.56	7511.3	
740.74	6300.9	
740.92	6077.7	
741.1	5948.7	
741.28	6889.4	
741.46	6780.8	
741.64	5484.5	
741.82	6010.8	
742	7005.4	
742.18	6953.5	
742.36	5782.1	
742.54	5328.1	
742.72	7542.7	
742.9	6184.9	
743.08	6178.7	
743.26	4844.1	
743.44	7720.8	
743.62	7632.1	
743.8	6243.6	
743.98	5278.3	
744.16	7208.2	
744.34	6902.3	
744.52	6248.4	
744.7	6111.8	
744.88	7406.1	
745.06	6848.4	
745.24	6252.4	
745.42	6328.2	
745.6	7420.5	
745.78	7144	
745.96	4939	
746.14	5281.7	
746.32	8239	
746.5	7507.2	
746.68	5897.5	
746.86	5338.4	
747.03	7965.2	
747.21	6094.1	
747.39	5877.7	
747.57	5382.7	
747.75	7010.9	
747.93	7393.8	
748.11	5296	
748.29	5201.8	
748.47	8757.1	
748.65	6733	
748.83	6118	
749.01	5810.1	
749.19	7286	
749.37	6358.9	
749.55	5663.3	
749.73	5732.3	
749.91	6789	
750.09	6569.2	
750.26	5728.9	
750.44	5152.7	
750.62	6862.1	
750.8	6842.3	
750.98	4932.2	
751.16	5325.4	
751.34	6903.7	
751.52	6266.8	
751.7	6234	
751.88	4922	
752.06	7440.3	
752.24	7258	
752.42	4911.7	
752.59	5276.3	
752.77	6810.2	
752.95	8177.5	
753.13	6027.9	
753.31	5347.9	
753.49	6415.6	
753.67	6997.2	
753.85	5712.5	
754.03	5213.4	
754.21	7216.4	
754.38	7586.4	
754.56	5410.1	
754.74	4323.9	
754.92	6358.3	
755.1	7172	
755.28	4401.1	
755.46	4327.4	
755.64	7870.3	
755.82	7994.6	
755.99	4571.7	
756.17	4689.2	
756.35	5135.6	
756.53	6923.5	
756.71	3407.1	
756.89	4445.5	
757.07	6481.8	
757.25	5499.5	
757.42	5036	
757.6	6115.9	
757.78	6541.2	
757.96	5354.1	
758.14	4752	
758.32	4229.1	
758.5	4903.5	
758.67	5846.3	
758.85	4526.7	
759.03	4785.4	
759.21	6081.8	
759.39	5356.8	
759.57	4059.8	
759.75	5354.1	
759.92	6515.3	
760.1	5915.2	
760.28	5760.3	
760.46	6049	
760.64	5730.2	
760.82	5440.1	
760.99	5613.5	
761.17	4657.8	
761.35	6595.8	
761.53	5500.2	
761.71	4882.4	
761.89	5636	
762.06	6520	
762.24	5989.6	
762.42	4915.1	
762.6	4700.1	
762.78	6011.5	
762.96	6748.7	
763.13	5380	
763.31	5048.2	
763.49	6972	
763.67	5957.5	
763.85	5923.4	
764.02	6587.6	
764.2	7214.3	
764.38	6335.7	
764.56	4934.2	
764.74	5854.5	
764.91	7324.9	
765.09	6165.8	
765.27	4506.2	
765.45	4390.8	
765.63	7309.2	
765.8	7220.5	
765.98	4006.5	
766.16	4476.2	
766.34	5663.3	
766.52	5369.1	
766.69	5522	
766.87	4276.2	
767.05	6081.1	
767.23	7132.4	
767.41	4646.8	
767.58	4932.9	
767.76	6732.4	
767.94	6821.1	
768.12	4664.6	
768.29	5576.6	
768.47	6217	
768.65	6907.1	
768.83	4308.2	
769	5573.2	
769.18	5653.8	
769.36	6504.3	
769.54	5535.7	
769.72	4325.3	
769.89	6715.3	
770.07	6913.9	
770.25	4605.9	
770.43	6053.8	
770.6	7538.6	
770.78	8048.5	
770.96	4895.3	
771.14	5603.2	
771.31	6698.9	
771.49	5879	
771.67	3924.6	
771.85	4248.9	
772.02	5151.3	
772.2	5935.7	
772.38	4924	
772.55	4486.4	
772.73	6228.6	
772.91	5999.9	
773.09	4819.6	
773.26	4956.8	
773.44	6163.7	
773.62	5798.5	
773.8	4352.6	
773.97	4001.7	
774.15	6260.6	
774.33	5795.8	
774.5	4229.1	
774.68	4599.7	
774.86	6333	
775.04	5831.9	
775.21	4278.2	
775.39	4324.6	
775.57	6143.9	
775.74	6580.8	
775.92	4115.7	
776.1	4004.5	
776.27	6184.9	
776.45	7468.3	
776.63	4315.8	
776.81	3790.1	
776.98	5626.5	
777.16	6932.4	
777.34	4492.6	
777.51	4791.6	
777.69	5750.7	
777.87	5519.3	
778.04	4505.5	
778.22	5184.8	
778.4	5538.4	
778.57	6257.2	
778.75	3667.2	
778.93	4056.3	
779.1	5236.7	
779.28	5132.9	
779.46	3743.7	
779.64	4271.4	
779.81	6436.1	
779.99	7336.5	
780.17	5115.8	
780.34	5302.9	
780.52	5745.2	
780.69	6012.2	
780.87	4578.6	
781.05	4155.3	
781.22	5778	
781.4	5958.2	
781.58	4267.3	
781.75	3376.4	
781.93	5883.8	
782.11	5253.7	
782.28	5274.9	
782.46	4259.1	
782.64	5072.1	
782.81	6019	
782.99	4315.1	
783.17	4301.4	
783.34	5963.7	
783.52	5086.5	
783.69	4567.7	
783.87	5341.8	
784.05	5246.2	
784.22	5186.8	
784.4	5352.7	
784.58	4698.7	
784.75	6203.3	
784.93	5250.3	
785.1	4244.1	
785.28	4977.9	
785.46	5945.9	
785.63	5274.2	
785.81	4202.4	
785.99	4112.3	
786.16	5376.6	
786.34	5824.4	
786.51	4087.1	
786.69	4478.2	
786.87	4919.2	
787.04	5502.9	
787.22	3988.8	
787.39	4987.5	
787.57	5210	
787.75	6374.6	
787.92	5189.6	
788.1	5068.7	
788.27	5270.1	
788.45	5001.1	
788.63	4756.7	
788.8	3439.2	
788.98	5582.8	
789.15	4903.5	
789.33	3625.6	
789.5	4301.4	
789.68	6277	
789.86	6365.8	
790.03	4775.9	
790.21	4160.1	
790.38	6228.6	
790.56	5315.8	
790.73	3966.2	
790.91	4042.7	
791.09	5239.4	
791.26	6049.7	
791.44	4233.8	
791.61	3662.5	
791.79	5208.7	
791.96	5339.7	
792.14	3794.9	
792.32	3375.7	
792.49	5245.5	
792.67	5344.5	
792.84	3842.7	
793.02	3614	
793.19	5704.3	
793.37	6498.2	
793.54	3371.6	
793.72	3767.6	
793.89	6676.4	
794.07	5215.5	
794.25	4402.5	
794.42	3395.5	
794.6	6338.5	
794.77	5969.1	
794.95	4671.4	
795.12	4085.7	
795.3	5208.7	
795.47	5906.3	
795.65	4515.1	
795.82	4330.1	
796	5014.8	
796.17	7103	
796.35	4227	
796.52	4983.4	
796.7	5812.1	
796.87	5965.1	
797.05	5175.9	
797.22	5109	
797.4	5837.4	
797.57	6943.3	
797.75	4299.4	
797.92	4052.9	
798.1	6242.2	
798.27	5248.3	
798.45	3427.6	
798.62	3708.2	
798.8	5549.3	
798.97	6090	
799.15	4568.3	
799.32	4339.6	
799.5	4775.2	
799.67	5639.4	
799.85	4722.6	
800.02	3396.9	
800.2	5126.7	
800.37	5522	
800.55	4915.8	
800.72	4036.5	
800.9	5984.2	
801.07	6519.4	
801.25	5479.7	
801.42	4464.6	
801.6	6123.4	
801.77	5795.8	
801.95	4123.9	
802.12	3945.8	
802.29	5696.8	
802.47	5752.1	
802.64	4429.1	
802.82	3284.9	
802.99	5121.3	
803.17	6294.8	
803.34	4326	
803.52	3882.9	
803.69	6977.4	
803.87	4976.6	
804.04	4272.1	
804.21	4403.8	
804.39	6391.7	
804.56	5395.7	
804.74	3663.1	
804.91	4494.6	
805.09	5236	
805.26	5339.7	
805.44	3711.6	
805.61	4141.7	
805.78	5963.7	
805.96	5984.2	
806.13	4420.2	
806.31	4771.1	
806.48	4760.2	
806.66	5280.3	
806.83	4460.5	
807	4365.6	
807.18	5162.9	
807.35	5616.2	
807.53	4127.3	
807.7	3437.2	
807.87	6522.1	
808.05	5276.9	
808.22	4833.2	
808.4	3471.3	
808.57	5311.1	
808.74	4891.9	
808.92	3942.3	
809.09	5039.4	
809.27	5092.6	
809.44	5791	
809.61	3485	
809.79	3867.2	
809.96	6463.4	
810.14	6043.6	
810.31	3390.8	
810.48	4150.6	
810.66	5346.6	
810.83	6212.9	
811.01	3940.3	
811.18	4475.5	
811.35	6083.1	
811.53	4644.1	
811.7	4801.1	
811.87	4448.9	
812.05	5167	
812.22	5178.6	
812.39	3818.1	
812.57	3680.9	
812.74	5275.6	
812.92	7058	
813.09	4166.3	
813.26	4506.2	
813.44	6823.8	
813.61	5102.2	
813.78	3413.3	
813.96	4657.1	
814.13	5234.6	
814.3	4880.3	
814.48	5031.9	
814.65	4145.1	
814.82	6596.5	
815	5033.9	
815.17	4297.3	
815.34	5244.8	
815.52	5113.8	
815.69	5201.8	
815.87	4333.5	
816.04	4169	
816.21	5279.7	
816.38	4549.9	
816.56	4072.7	
816.73	3854.3	
816.9	6664.1	
817.08	6107.7	
817.25	3816.7	
817.42	4906.9	
817.6	4764.3	
817.77	5276.3	
817.94	4433.2	
818.12	3848.8	
818.29	4995	
818.46	7916.8	
818.64	3962.8	
818.81	3730	
818.98	4887.1	
819.16	7256.6	
819.33	4640	
819.5	4301.4	
819.67	5678.3	
819.85	6384.9	
820.02	4231.1	
820.19	4440	
820.37	5520.6	
820.54	5013.4	
820.71	4387.4	
820.88	5427.1	
821.06	5532.9	
821.23	5001.8	
821.4	4413.4	
821.58	4323.9	
821.75	6021	
821.92	5347.2	
822.09	3486.3	
822.27	3542.3	
822.44	5236.7	
822.61	5153.4	
822.79	3521.1	
822.96	6831.3	
823.13	5765	
823.3	4941.1	
823.48	4061.1	
823.65	3689.8	
823.82	5960.3	
823.99	4750.6	
824.17	5141.1	
824.34	3744.4	
824.51	7060	
824.68	5290.6	
824.86	3887	
825.03	4332.1	
825.2	5212.1	
825.37	6403.3	
825.55	3792.8	
825.72	4281.6	
825.89	7127.6	
826.06	6498.9	
826.24	4156.7	
826.41	4191.5	
826.58	6447.7	
826.75	5631.9	
826.92	3277.4	
827.1	3642.7	
827.27	8824	
827.44	7037.5	
827.61	3956.7	
827.79	4865.3	
827.96	4982	
828.13	5337.7	
828.3	4192.2	
828.47	3439.2	
828.65	5467.4	
828.82	5412.8	
828.99	5488.6	
829.16	4665.3	
829.34	5879	
829.51	5616.2	
829.68	4361.5	
829.85	4448.9	
830.02	6208.1	
830.2	5958.9	
830.37	3318.4	
830.54	5268.1	
830.71	6722.8	
830.88	5193	
831.05	3329.3	
831.23	3925.3	
831.4	6450.4	
831.57	7339.9	
831.74	3983.3	
831.91	3504.1	
832.09	5513.1	
832.26	5954.1	
832.43	4134.2	
832.6	4691.2	
832.77	5539.1	
832.94	6311.2	
833.12	3292.5	
833.29	4071.4	
833.46	5700.2	
833.63	7550.2	
833.8	4574.5	
833.97	4165.6	
834.15	5899.5	
834.32	5605.3	
834.49	4337.6	
834.66	4389.5	
834.83	6135.7	
835	4950.6	
835.17	3951.2	
835.35	3979.9	
835.52	5780.7	
835.69	5607.3	
835.86	4256.4	
836.03	3429.7	
836.2	5844.9	
836.37	5430.5	
836.55	4150.6	
836.72	3802.4	
836.89	5438.7	
837.06	5965.1	
837.23	4241.3	
837.4	4655	
837.57	6817.7	
837.75	7587	
837.92	3792.8	
838.09	4009.2	
838.26	5400.5	
838.43	6279.1	
838.6	4347.2	
838.77	3874.8	
838.94	7131.7	
839.11	6821.1	
839.29	4132.8	
839.46	3254.9	
839.63	5800.5	
839.8	5566.4	
839.97	4042.7	
840.14	3997.6	
840.31	5617.6	
840.48	5896.8	
840.65	3283.6	
840.82	3865.2	
841	5907	
841.17	5831.9	
841.34	3663.1	
841.51	3714.3	
841.68	5782.1	
841.85	5532.2	
842.02	3837.9	
842.19	3125.9	
842.36	5640.1	
842.53	5616.9	
842.7	3688.4	
842.87	4527.4	
843.05	7397.9	
843.22	5571.2	
843.39	3485.6	
843.56	3747.1	
843.73	5317.2	
843.9	5846.3	
844.07	5998.5	
844.24	5029.1	
844.41	8785.1	
844.58	5081.7	
844.75	3544.4	
844.92	3886.4	
845.09	5862.7	
845.26	5854.5	
845.43	3620.1	
845.6	3920.5	
845.77	5890	
845.94	5614.2	
846.12	4023.6	
846.29	4379.9	
846.46	6113.2	
846.63	5906.3	
846.8	3665.2	
846.97	4337.6	
847.14	6346	
847.31	5788.9	
847.48	4099.4	
847.65	4572.4	
847.82	6232.7	
847.99	6223.1	
848.16	4891.2	
848.33	4599.7	
848.5	5410.7	
848.67	6380.8	
848.84	3697.9	
849.01	3867.9	
849.18	5194.3	
849.35	4872.8	
849.52	4675.5	
849.69	3625.6	
849.86	6092	
850.03	6314.6	
850.2	3702	
850.37	4549.2	
850.54	6187.6	
850.71	5469.4	
850.88	4427.7	
851.05	3635.8	
851.22	5754.8	
851.39	6438.8	
851.56	3464.5	
851.73	4227	
851.9	5120.6	
852.07	6140.5	
852.24	4004.5	
852.41	3584.6	
852.58	5750.7	
852.75	5261.2	
852.92	4130.1	
853.09	3581.2	
853.26	5431.2	
853.43	6368.5	
853.6	3591.5	
853.77	3117.7	
853.94	6472.3	
854.11	5751.4	
854.28	5488.6	
854.44	3990.8	
854.61	6909.2	
854.78	6176	
854.95	3616.7	
855.12	4703.5	
855.29	4691.2	
855.46	6642.9	
855.63	3594.2	
855.8	5035.3	
855.97	5401.9	
856.14	6274.3	
856.31	5180.7	
856.48	3997.6	
856.65	5400.5	
856.82	5105.6	
856.99	3553.9	
857.16	3936.9	
857.33	7175.4	
857.49	5485.8	
857.66	3986	
857.83	4266.6	
858	5475.6	
858.17	5735.7	
858.34	3438.5	
858.51	3614.7	
858.68	6593.8	
858.85	6650.4	
859.02	4234.5	
859.19	4545.8	
859.36	5085.8	
859.52	5189.6	
859.69	3680.9	
859.86	4403.8	
860.03	5153.4	
860.2	6574	
860.37	3297.2	
860.54	3662.5	
860.71	6105.7	
860.88	6556.9	
861.05	4162.8	
861.21	4631.8	
861.38	6619	
861.55	5048.2	
861.72	3281.5	
861.89	4144.4	
862.06	6223.1	
862.23	6719.4	
862.4	3536.2	
862.56	3837.2	
862.73	5993.7	
862.9	5636.7	
863.07	4336.2	
863.24	3321.8	
863.41	4989.5	
863.58	5149.3	
863.75	3695.2	
863.91	4219.5	
864.08	6500.9	
864.25	6006.7	
864.42	4655	
864.59	5161.6	
864.76	6948.1	
864.93	5161.6	
865.09	3528	
865.26	3878.2	
865.43	6326.9	
865.6	6839.5	
865.77	3187.3	
865.94	3600.3	
866.1	6475	
866.27	6222.4	
866.44	5562.3	
866.61	3498.6	
866.78	5580.7	
866.95	5943.9	
867.11	3538.9	
867.28	3218.7	
867.45	6251.1	
867.62	5240.1	
867.79	4283	
867.96	3637.9	
868.12	5101.5	
868.29	6163.7	
868.46	3674.1	
868.63	4916.5	
868.8	6326.2	
868.97	6111.1	
869.13	3818.8	
869.3	3885.7	
869.47	5927.5	
869.64	6266.1	
869.81	3706.8	
869.97	3674.1	
870.14	5829.9	
870.31	6661.4	
870.48	3546.4	
870.65	4590.9	
870.81	5434.6	
870.98	5414.8	
871.15	4182.6	
871.32	3769.6	
871.48	5947.3	
871.65	6664.8	
871.82	3663.8	
871.99	4009.2	
872.16	7129.7	
872.32	6549.4	
872.49	3686.3	
872.66	3674.7	
872.83	6181.5	
872.99	5337	
873.16	4201.1	
873.33	3560.1	
873.5	5707.7	
873.67	5743.2	
873.83	3876.1	
874	4923.3	
874.17	5862.7	
874.34	6982.2	
874.5	4742.4	
874.67	4589.5	
874.84	6483.9	
875.01	5129.5	
875.17	5219.6	
875.34	3606.5	
875.51	5767.1	
875.68	7000.6	
875.84	4525.3	
876.01	5443.5	
876.18	6036.7	
876.34	5972.6	
876.51	3668.6	
876.68	3595.6	
876.85	5582.8	
877.01	6414.9	
877.18	5268.1	
877.35	3619.4	
877.52	5614.2	
877.68	5024.3	
877.85	3568.2	
878.02	3546.4	
878.18	5655.1	
878.35	5337.7	
878.52	2852.8	
878.69	4133.5	
878.85	6100.2	
879.02	6062.7	
879.19	5228.5	
879.35	3898.6	
879.52	5988.9	
879.69	6320	
879.86	3149.1	
880.02	4160.1	
880.19	5600.5	
880.36	6953.5	
880.52	4300.1	
880.69	4345.1	
880.86	6154.1	
881.02	6272.2	
881.19	4007.9	
881.36	3953.3	
881.52	6079.7	
881.69	5337.7	
881.86	3924.6	
882.02	3861.8	
882.19	6324.1	
882.36	7539.3	
882.52	3720.5	
882.69	5229.8	
882.86	5841.5	
883.02	5750	
883.19	4455	
883.36	4173.8	
883.52	6225.8	
883.69	7084.6	
883.86	3687	
884.02	3270.6	
884.19	6122.1	
884.36	5662.6	
884.52	4171	
884.69	3824.2	
884.86	5345.2	
885.02	6811.5	
885.19	4102.1	
885.36	4227.7	
885.52	5636.7	
885.69	5785.5	
885.86	5343.2	
886.02	4676.2	
886.19	6181.5	
886.35	5573.2	
886.52	4115.1	
886.69	5186.8	
886.85	5205.3	
887.02	6468.2	
887.19	6468.2	
887.35	6468.2	
887.52	6468.2	
887.68	6468.2	
887.85	6468.2	
888.02	6468.2	
888.18	6468.2	
888.35	6468.2	
888.51	6468.2	
888.68	6468.2	
888.85	6468.2	
889.01	6468.2	
889.18	6468.2	
889.35	6468.2	
889.51	6468.2	
889.68	6468.2	
889.84	6468.2	
890.01	6468.2	
890.17	6468.2	
890.34	6468.2	
890.51	6468.2	
890.67	6468.2	
890.84	6468.2	
891	6468.2	
891.17	6468.2	
891.34	6468.2	
891.5	6468.2	
891.67	6468.2	
891.83	6468.2	
892	6468.2	
892.16	6468.2	
892.33	6468.2	
892.5	6468.2	
892.66	6468.2	
892.83	6468.2	
892.99	6468.2	
893.16	6468.2	
893.32	6468.2	
893.49	6468.2	
893.65	6468.2	
893.82	6468.2	
893.99	6468.2	
894.15	6468.2	
894.32	6468.2	
894.48	6468.2	
894.65	6468.2	
894.81	6468.2	
894.98	6468.2	
895.14	6468.2	
895.31	6468.2	
895.47	6468.2	
895.64	6468.2	
895.81	6468.2	
895.97	6468.2	
896.14	6468.2	
896.3	6468.2	
896.47	6468.2	
896.63	6468.2	
896.8	6468.2	
896.96	6468.2	
897.13	6468.2	
897.29	6468.2	
897.46	6468.2	
897.62	6468.2	
897.79	6468.2	
897.95	6468.2	
898.12	6468.2	
898.28	6468.2	
898.45	6468.2	
898.61	6468.2	
898.78	6468.2	
898.94	6468.2	
899.11	6468.2	
899.27	6468.2	
899.44	6468.2	
899.6	6468.2	
899.77	6468.2	
899.93	6468.2	
900.1	6468.2	
900.26	6468.2	
900.43	6468.2	
900.59	6468.2	
900.76	6468.2	
900.92	6468.2	
901.09	6468.2	
901.25	6468.2	
901.42	6468.2	
901.58	6468.2	
901.75	6468.2	
901.91	6468.2	
902.07	6468.2	
902.24	6468.2	
902.4	6468.2	
902.57	6468.2	
902.73	6468.2	
902.9	6468.2	
903.06	6468.2	
903.23	6468.2	
903.39	6468.2	
903.56	6468.2	
903.72	6468.2	
903.88	6468.2	
904.05	6468.2	
904.21	6468.2	
904.38	6468.2	
904.54	6468.2	
904.71	6468.2	
904.87	6468.2	
905.03	6468.2	
905.2	6468.2	
905.36	6468.2	
905.53	6468.2	
905.69	6468.2	
905.86	6468.2	
906.02	6468.2	
906.18	6468.2	
906.35	6468.2	
906.51	6468.2	
906.68	6468.2	
906.84	6468.2	
907.01	6468.2	
907.17	6468.2	
907.33	6468.2	
907.5	6468.2	
907.66	6468.2	
907.83	6468.2	
907.99	6468.2	
908.15	6468.2	
908.32	6468.2	
908.48	6468.2	
908.65	6468.2	
908.81	6468.2	
908.97	6468.2	
909.14	6468.2	
909.3	6468.2	
909.47	6468.2	
909.63	6468.2	
909.79	6468.2	
909.96	6468.2	
910.12	6468.2	
910.28	6468.2	
910.45	6468.2	
910.61	6468.2	
910.78	6468.2	
910.94	6468.2	
911.1	6468.2	
911.27	6468.2	
911.43	6468.2	
911.59	6468.2	
911.76	6468.2	
911.92	6468.2	
912.08	6468.2	
912.25	6468.2	
912.41	6468.2	
912.57	6468.2	
912.74	6468.2	
912.9	6468.2	
913.07	6468.2	
913.23	6468.2	
913.39	6468.2	
913.56	6468.2	
913.72	6468.2	
913.88	6468.2	
914.05	6468.2	
914.21	6468.2	
914.37	6468.2	
914.54	6468.2	
914.7	6468.2	
914.86	6468.2	
915.03	6468.2	
915.19	6468.2	
