Wavelength	Intensities	
nm	a.u.	
179.22	1680.7	
179.44	1686.2	
179.65	1675.2	
179.86	1697.1	
180.08	1701.2	
180.29	3943.7	
180.51	3055.6	
180.72	4968.4	
180.94	5535	
181.15	2761.3	
181.37	2730.6	
181.58	4792.2	
181.79	5031.9	
182.01	2831.7	
182.22	2988.7	
182.44	5062.6	
182.65	4369	
182.87	3667.9	
183.08	3306.8	
183.29	5331.5	
183.51	4432.5	
183.72	2994.8	
183.94	4207.9	
184.15	4756.1	
184.37	4750.6	
184.58	2723.8	
184.79	3510.9	
185.01	4527.4	
185.22	5058.5	
185.44	3712.3	
185.65	3231.7	
185.86	4795.7	
186.08	4394.9	
186.29	2619.4	
186.51	2828.2	
186.72	4497.3	
186.94	5147.2	
187.15	3265.8	
187.36	3319.8	
187.58	6506.4	
187.79	4777.2	
188.01	3447.4	
188.22	5094	
188.43	5668.8	
188.65	5017.5	
188.86	2801.6	
189.08	3282.9	
189.29	4599.7	
189.5	4602.5	
189.72	3067.2	
189.93	3087	
190.15	5132.9	
190.36	6042.9	
190.57	3388.7	
190.79	3265.1	
191	5168.4	
191.22	5156.8	
191.43	3373	
191.64	2907.4	
191.86	5382.7	
192.07	5118.6	
192.29	2941.6	
192.5	3084.2	
192.71	5186.1	
192.93	4569.7	
193.14	3044	
193.35	3125.2	
193.57	4616.8	
193.78	5240.1	
194	2534	
194.21	3014.6	
194.42	4455	
194.64	4775.9	
194.85	3334.1	
195.07	3780.6	
195.28	4767.7	
195.49	4269.3	
195.71	4005.1	
195.92	2887.6	
196.13	4955.4	
196.35	4993.6	
196.56	4185.4	
196.78	3335.5	
196.99	5982.1	
197.2	5552.7	
197.42	3673.4	
197.63	3341.6	
197.84	4393.6	
198.06	4919.9	
198.27	3082.2	
198.48	4048.2	
198.7	4603.2	
198.91	4762.2	
199.13	3332.7	
199.34	3311.6	
199.55	5153.4	
199.77	4154.6	
199.98	2973.7	
200.19	3316.3	
200.41	4734.2	
200.62	4478.9	
200.83	3453.6	
201.05	3659.7	
201.26	4731.5	
201.47	4539.7	
201.69	2999.6	
201.9	2953.2	
202.11	4752.7	
202.33	5513.1	
202.54	3142.9	
202.76	3514.3	
202.97	4834.6	
203.18	4906.3	
203.4	3433.8	
203.61	3439.2	
203.82	4822.3	
204.04	4508.3	
204.25	3363.4	
204.46	3302.7	
204.68	4777.2	
204.89	4946.5	
205.1	3274	
205.32	2838.5	
205.53	5051.7	
205.74	5216.2	
205.96	2538.8	
206.17	3375.1	
206.38	5033.9	
206.6	5141.8	
206.81	3811.3	
207.02	3043.3	
207.24	4972.5	
207.45	5301.5	
207.66	3161.4	
207.88	2775.7	
208.09	4965	
208.3	4757.4	
208.52	2974.3	
208.73	3233.1	
208.94	4762.2	
209.15	5304.9	
209.37	3211.9	
209.58	3597.6	
209.79	5179.3	
210.01	4648.2	
210.22	2639.8	
210.43	2757.2	
210.65	4742.4	
210.86	5057.8	
211.07	3153.2	
211.29	2963.4	
211.5	5020.3	
211.71	4712.4	
211.93	2936.8	
212.14	2956.6	
212.35	4733.5	
212.56	4812	
212.78	3372.3	
212.99	2788	
213.2	5474.9	
213.42	4565.6	
213.63	3067.9	
213.84	3216.7	
214.06	4356	
214.27	4377.2	
214.48	3147	
214.69	3344.3	
214.91	5312.4	
215.12	5377.3	
215.33	3422.2	
215.55	3681.6	
215.76	5693.4	
215.97	4966.3	
216.18	3265.1	
216.4	3247.4	
216.61	4524.6	
216.82	5119.2	
217.04	3025.5	
217.25	3072.6	
217.46	5168.4	
217.67	5063.9	
217.89	2736.8	
218.1	2814.6	
218.31	4890.5	
218.53	4899.4	
218.74	3106.8	
218.95	3027.6	
219.16	4732.2	
219.38	5483.8	
219.59	3024.2	
219.8	3533.4	
220.01	5831.9	
220.23	4744.5	
220.44	3801.7	
220.65	2921.8	
220.87	4820.9	
221.08	5221	
221.29	2816.6	
221.5	3607.8	
221.72	6207.4	
221.93	4529.4	
222.14	3312.2	
222.35	3840.6	
222.57	4754.7	
222.78	5096.7	
222.99	3250.1	
223.2	3437.2	
223.42	5007.3	
223.63	5089.9	
223.84	2568.8	
224.05	2542.2	
224.27	5792.3	
224.48	5427.1	
224.69	3880.2	
224.9	3342.3	
225.12	4941.1	
225.33	4732.9	
225.54	2747	
225.75	3033.7	
225.97	4469.4	
226.18	4680.3	
226.39	3188.7	
226.6	3037.8	
226.82	4619.5	
227.03	4485.7	
227.24	3291.8	
227.45	2775	
227.67	5107	
227.88	5438	
228.09	3702.7	
228.3	3700.7	
228.52	5131.5	
228.73	4745.8	
228.94	3056.3	
229.15	2816	
229.36	4710.3	
229.58	4703.5	
229.79	3153.2	
230	3595.6	
230.21	5577.3	
230.43	4801.1	
230.64	3334.8	
230.85	3394.8	
231.06	5183.4	
231.28	5098.1	
231.49	2774.3	
231.7	3208.5	
231.91	5029.8	
232.12	4786.8	
232.34	2885.6	
232.55	3169.6	
232.76	5221.6	
232.97	4833.2	
233.18	2938.8	
233.4	3300.6	
233.61	4919.9	
233.82	4604.5	
234.03	3113.6	
234.25	3097.2	
234.46	6309.8	
234.67	4786.1	
234.88	3373.7	
235.09	3031.7	
235.31	4913.8	
235.52	4697.4	
235.73	3308.2	
235.94	2854.9	
236.15	4567.7	
236.37	5646.9	
236.58	2956.6	
236.79	3223.5	
237	5015.5	
237.21	4377.2	
237.43	3403.7	
237.64	2742.9	
237.85	7816.4	
238.06	4440.7	
238.27	3405.1	
238.48	2854.2	
238.7	5072.8	
238.91	4666.6	
239.12	3135.4	
239.33	3256.3	
239.54	4637.3	
239.76	4711.7	
239.97	3170.9	
240.18	3192.8	
240.39	5735.7	
240.6	4928.8	
240.82	3368.9	
241.03	2790	
241.24	4772.4	
241.45	5371.1	
241.66	2936.1	
241.87	3438.5	
242.09	5345.9	
242.3	5556.1	
242.51	3481.5	
242.72	3231.7	
242.93	5076.2	
243.14	4721.3	
243.36	3603.1	
243.57	3827.7	
243.78	5439.4	
243.99	5053.7	
244.2	3196.2	
244.41	2925.9	
244.63	4446.1	
244.84	4947.9	
245.05	3381.9	
245.26	3205.8	
245.47	5005.9	
245.68	5147.9	
245.9	4123.9	
246.11	3364.8	
246.32	4583.4	
246.53	4928.8	
246.74	4977.9	
246.95	2794.8	
247.16	4460.5	
247.38	4749.9	
247.59	2762	
247.8	3226.2	
248.01	4488.5	
248.22	4778.6	
248.43	2930.6	
248.64	3145	
248.86	4366.3	
249.07	4642.7	
249.28	2936.8	
249.49	3269.9	
249.7	5188.2	
249.91	5240.1	
250.12	2766.8	
250.34	2809.8	
250.55	4887.8	
250.76	4798.4	
250.97	3332	
251.18	3341.6	
251.39	5214.8	
251.6	4873.5	
251.81	3388.7	
252.03	3332.7	
252.24	4627.7	
252.45	5149.3	
252.66	2890.4	
252.87	3477.5	
253.08	4741	
253.29	5941.8	
253.5	2884.2	
253.72	3831.7	
253.93	4695.3	
254.14	5549.3	
254.35	3111.5	
254.56	3143.6	
254.77	4926.7	
254.98	4501.4	
255.19	3106.1	
255.41	3812.6	
255.62	4931.5	
255.83	5232.6	
256.04	3402.4	
256.25	3301.3	
256.46	5676.3	
256.67	4526	
256.88	3326.6	
257.09	3625.6	
257.31	4485.7	
257.52	4532.2	
257.73	4122.6	
257.94	3075.4	
258.15	4650.3	
258.36	4745.8	
258.57	3734.8	
258.78	2495.1	
258.99	5144.5	
259.2	4638	
259.41	3072	
259.63	3149.8	
259.84	5390.9	
260.05	5637.4	
260.26	3902.7	
260.47	3063.1	
260.68	5154.1	
260.89	4688.5	
261.1	3609.2	
261.31	2976.4	
261.52	5308.3	
261.73	5450.3	
261.95	3864.5	
262.16	3377.1	
262.37	5297.4	
262.58	5365	
262.79	3870.7	
263	3134.1	
263.21	4834.6	
263.42	4633.2	
263.63	3391.4	
263.84	3074	
264.05	5165.7	
264.26	5450.3	
264.47	3777.1	
264.69	3317	
264.9	5372.5	
265.11	4911.7	
265.32	2980.5	
265.53	3042.6	
265.74	4835.3	
265.95	4268.6	
266.16	3286.3	
266.37	3592.8	
266.58	4844.1	
266.79	4569	
267	3079.5	
267.21	2837.8	
267.42	4426.3	
267.63	4777.2	
267.84	3168.9	
268.06	2848.7	
268.27	5128.1	
268.48	5236.7	
268.69	3151.8	
268.9	3591.5	
269.11	5272.8	
269.32	4303.5	
269.53	3229	
269.74	2964.8	
269.95	4903.5	
270.16	4281.6	
270.37	3210.5	
270.58	3631.7	
270.79	4678.2	
271	5126.7	
271.21	3366.9	
271.42	3231	
271.63	4886.5	
271.84	4422.9	
272.05	2664.4	
272.26	2951.8	
272.47	4735.6	
272.68	4924	
272.89	3153.9	
273.11	3474	
273.32	4607.2	
273.53	5440.1	
273.74	3414	
273.95	3315	
274.16	5132.2	
274.37	4790.2	
274.58	3497.9	
274.79	2894.5	
275	4905.6	
275.21	5201.2	
275.42	4169.7	
275.63	3524.6	
275.84	4960.9	
276.05	6106.4	
276.26	3356.6	
276.47	3173	
276.68	4705.5	
276.89	5530.9	
277.1	3613.3	
277.31	2866.5	
277.52	5010.7	
277.73	5210.7	
277.94	2834.4	
278.15	3134.1	
278.36	4954.7	
278.57	4465.3	
278.78	3111.5	
278.99	3461.7	
279.2	4569.7	
279.41	4455	
279.62	3984.7	
279.83	2951.1	
280.04	5676.3	
280.25	4483.7	
280.46	4016.7	
280.67	3198.9	
280.88	4509.6	
281.09	5218.9	
281.3	3364.1	
281.51	4156	
281.72	5094	
281.93	5162.2	
282.14	3071.3	
282.35	3246	
282.56	5147.9	
282.77	5122.7	
282.98	3126.6	
283.19	3755.3	
283.4	6150.7	
283.61	4699.4	
283.82	2936.1	
284.03	3851.5	
284.24	4931.5	
284.45	5180.7	
284.66	3904.8	
284.87	3742.3	
285.08	5218.9	
285.29	5317.2	
285.5	2829.6	
285.71	3146.4	
285.92	5217.5	
286.12	5672.2	
286.33	3859.1	
286.54	3155.9	
286.75	5127.4	
286.96	4717.2	
287.17	2949.1	
287.38	3809.9	
287.59	4545.1	
287.8	4513	
288.01	3143.6	
288.22	3540.3	
288.43	5069.4	
288.64	4363.5	
288.85	3670.6	
289.06	3485	
289.27	5114.5	
289.48	5418.9	
289.69	3904.1	
289.9	3583.3	
290.11	5264.6	
290.32	4591.5	
290.53	3742.3	
290.74	3396.9	
290.94	5085.8	
291.15	5148.6	
291.36	3005.7	
291.57	3534.8	
291.78	4608.6	
291.99	4321.9	
292.2	3005.7	
292.41	3454.9	
292.62	5179.3	
292.83	5038.7	
293.04	4192.9	
293.25	2984.6	
293.46	4633.9	
293.67	5195.7	
293.88	3009.1	
294.09	2955.2	
294.29	4482.3	
294.5	4833.9	
294.71	3200.3	
294.92	3059.7	
295.13	4605.9	
295.34	5594.4	
295.55	2794.1	
295.76	2735.4	
295.97	5068.7	
296.18	5601.2	
296.39	2876	
296.6	3054.2	
296.81	4856.4	
297.01	5079	
297.22	3159.3	
297.43	3043.3	
297.64	4578.6	
297.85	4493.9	
298.06	2581.1	
298.27	2741.5	
298.48	4747.9	
298.69	4562.2	
298.9	3305.4	
299.11	2988.7	
299.31	4422.9	
299.52	4453.6	
299.73	3474.7	
299.94	3356.6	
300.15	4802.5	
300.36	4470	
300.57	3411.2	
300.78	3357.3	
300.99	4663.2	
301.2	4783.4	
301.4	3058.3	
301.61	3237.8	
301.82	5000.5	
302.03	5122.7	
302.24	3624.9	
302.45	2919	
302.66	4928.8	
302.87	5238	
303.08	3023.5	
303.29	4003.1	
303.49	4691.2	
303.7	4764.3	
303.91	2748.4	
304.12	3817.4	
304.33	4450.9	
304.54	4898.7	
304.75	3059	
304.96	2910.8	
305.16	5046.9	
305.37	5524.1	
305.58	2757.2	
305.79	2775.7	
306	4978.6	
306.21	4338.3	
306.42	3089.7	
306.63	4453	
306.83	4614.8	
307.04	5127.4	
307.25	3276.8	
307.46	3327.3	
307.67	4242.7	
307.88	5066.7	
308.09	3015.3	
308.29	3020.8	
308.5	4842.8	
308.71	5221	
308.92	3235.1	
309.13	2922.5	
309.34	4746.5	
309.55	4725.3	
309.75	3740.3	
309.96	3446.7	
310.17	5087.8	
310.38	4534.9	
310.59	3593.5	
310.8	2882.2	
311.01	5545.9	
311.21	4769.7	
311.42	3018.7	
311.63	2989.4	
311.84	4626.4	
312.05	4855.7	
312.26	3375.7	
312.46	3734.1	
312.67	4683	
312.88	4472.1	
313.09	2944.3	
313.3	2925.2	
313.51	5342.5	
313.71	5625.8	
313.92	2987.3	
314.13	3112.9	
314.34	4985.4	
314.55	4769.7	
314.76	3723.9	
314.96	3257	
315.17	4924	
315.38	5027.8	
315.59	2992.1	
315.8	2854.2	
316.01	5362.9	
316.21	5455.8	
316.42	2850.1	
316.63	3231	
316.84	4674.1	
317.05	5222.3	
317.26	3402.4	
317.46	3106.1	
317.67	4754.7	
317.88	5121.3	
318.09	3667.9	
318.3	2809.1	
318.5	4638	
318.71	4943.1	
318.92	4515.8	
319.13	3455.6	
319.34	5171.8	
319.54	5246.2	
319.75	2780.5	
319.96	2660.3	
320.17	4994.3	
320.38	5187.5	
320.58	2784.6	
320.79	3180.5	
321	5196.4	
321.21	5303.6	
321.42	3273.3	
321.62	2741.5	
321.83	4526.7	
322.04	4861.2	
322.25	3162.1	
322.46	2949.8	
322.66	4878.3	
322.87	5009.3	
323.08	3551.2	
323.29	2915.6	
323.5	5597.8	
323.7	4410	
323.91	3862.5	
324.12	3529.3	
324.33	4902.2	
324.53	5021.6	
324.74	3396.2	
324.95	3611.3	
325.16	4361.5	
325.37	4670.7	
325.57	2935.4	
325.78	3005.1	
325.99	4881.7	
326.2	4402.5	
326.4	4016.1	
326.61	2790.7	
326.82	4740.4	
327.03	4801.8	
327.24	4102.8	
327.44	3844	
327.65	4948.6	
327.86	4145.1	
328.07	3382.6	
328.27	2854.9	
328.48	5317.2	
328.69	4463.2	
328.9	4123.2	
329.1	3101.3	
329.31	4741.7	
329.52	5352.7	
329.73	2995.5	
329.93	3244.7	
330.14	4838.7	
330.35	4989.5	
330.56	4648.9	
330.76	3539.6	
330.97	4653	
331.18	4910.3	
331.39	3246	
331.59	2725.8	
331.8	5232.6	
332.01	5320.6	
332.22	3037.8	
332.42	3408.5	
332.63	4900.8	
332.84	4499.4	
333.05	3262.4	
333.25	2957.3	
333.46	4539.7	
333.67	4787.5	
333.88	3082.2	
334.08	3312.2	
334.29	6041.5	
334.5	5251	
334.7	2866.5	
334.91	4018.1	
335.12	4430.4	
335.33	5087.8	
335.53	3237.2	
335.74	4569.7	
335.95	4659.1	
336.16	4398.4	
336.36	3201.7	
336.57	3717.7	
336.78	4427.7	
336.98	5212.1	
337.19	3933.5	
337.4	3198.2	
337.61	5715.2	
337.81	4433.9	
338.02	3033.7	
338.23	3779.9	
338.43	5355.4	
338.64	4519.9	
338.85	2965.5	
339.05	3809.2	
339.26	5452.4	
339.47	4381.3	
339.68	3015.3	
339.88	4228.4	
340.09	5030.5	
340.3	5150.6	
340.5	3439.2	
340.71	2752.5	
340.92	4462.5	
341.13	5323.4	
341.33	2849.4	
341.54	3413.3	
341.75	4920.6	
341.95	4687.1	
342.16	3315.7	
342.37	3494.5	
342.57	4465.9	
342.78	4710.3	
342.99	3567.6	
343.19	2731.3	
343.4	5136.3	
343.61	4953.4	
343.81	3151.1	
344.02	2848	
344.23	5117.9	
344.43	5375.2	
344.64	3627	
344.85	3567.6	
345.06	5008.6	
345.26	5220.3	
345.47	3408.5	
345.68	3900.7	
345.88	4368.3	
346.09	5167.7	
346.3	3426.3	
346.5	2661	
346.71	4743.8	
346.92	4612.7	
347.12	2807.1	
347.33	3317	
347.54	5199.8	
347.74	5524.7	
347.95	3399.6	
348.16	2649.4	
348.36	4612	
348.57	4511	
348.78	3379.8	
348.98	3579.2	
349.19	4706.2	
349.39	4360.8	
349.6	2839.8	
349.81	3068.5	
350.01	5003.9	
350.22	4515.8	
350.43	3330.7	
350.63	3805.8	
350.84	4853.7	
351.05	4633.9	
351.25	2986.6	
351.46	2768.2	
351.67	5177.9	
351.87	4542.4	
352.08	3223.5	
352.29	3546.4	
352.49	5148.6	
352.7	5201.8	
352.9	2895.8	
353.11	3571.7	
353.32	5578	
353.52	4687.1	
353.73	2962	
353.94	3622.9	
354.14	5027.1	
354.35	4792.2	
354.55	2968.9	
354.76	3285.6	
354.97	5008	
355.17	4797.7	
355.38	2897.9	
355.59	3797.6	
355.79	4552	
356	4791.6	
356.2	3273.3	
356.41	2919	
356.62	4414.7	
356.82	4754.7	
357.03	3536.2	
357.24	3208.5	
357.44	4526.7	
357.65	4654.4	
357.85	4099.4	
358.06	3317.7	
358.27	4388.1	
358.47	4552	
358.68	2837.8	
358.88	3512.9	
359.09	4982	
359.3	5215.5	
359.5	4002.4	
359.71	3630.4	
359.91	5586.2	
360.12	5109	
360.33	3569.6	
360.53	3827.7	
360.74	4625	
360.94	4667.3	
361.15	3611.9	
361.36	3080.1	
361.56	5257.1	
361.77	4769.7	
361.97	4025.6	
362.18	3224.9	
362.38	5192.3	
362.59	4444.1	
362.8	3099.9	
363	2960	
363.21	4347.2	
363.41	4937	
363.62	3459.7	
363.83	4120.5	
364.03	5068.7	
364.24	5580	
364.44	4231.1	
364.65	4296	
364.85	4781.3	
365.06	4562.9	
365.27	3198.9	
365.47	3227.6	
365.68	5550	
365.88	4797.7	
366.09	3523.2	
366.29	3240.6	
366.5	4955.4	
366.71	5312.4	
366.91	4204.5	
367.12	3703.4	
367.32	5758.9	
367.53	5184.8	
367.73	3652.9	
367.94	4333.5	
368.14	5183.4	
368.35	5735	
368.56	3502	
368.76	3162.7	
368.97	5300.1	
369.17	6384.2	
369.38	3245.3	
369.58	3499.3	
369.79	4540.3	
369.99	5545.9	
370.2	4277.5	
370.4	3553.2	
370.61	5058.5	
370.82	5981.4	
371.02	3530	
371.23	3009.8	
371.43	4553.3	
371.64	5511.8	
371.84	3515.7	
372.05	4292.5	
372.25	6417.7	
372.46	5278.3	
372.66	3504.8	
372.87	3494.5	
373.07	5307	
373.28	6520.7	
373.48	4271.4	
373.69	4076.8	
373.9	5023	
374.1	5012.7	
374.31	4225.6	
374.51	3890.5	
374.72	5602.6	
374.92	4774.5	
375.13	4404.5	
375.33	3775.1	
375.54	5274.9	
375.74	4921.3	
375.95	3904.8	
376.15	4780	
376.36	5355.4	
376.56	5217.5	
376.77	3898.6	
376.97	4235.2	
377.18	6126.8	
377.38	5440.1	
377.59	4475.5	
377.79	3601	
378	5294.7	
378.2	5571.2	
378.41	3660.4	
378.61	3554.6	
378.82	5727.5	
379.02	5034.6	
379.23	3737.5	
379.43	4561.5	
379.64	5712.5	
379.84	5466	
380.05	3684.3	
380.25	3620.8	
380.46	5551.4	
380.66	5244.2	
380.87	4656.4	
381.07	4876.9	
381.28	6032.6	
381.48	5518.6	
381.69	3659	
381.89	3760.8	
382.1	4833.2	
382.3	5552.7	
382.51	4505.5	
382.71	5198.4	
382.91	5545.9	
383.12	5919.3	
383.32	3961.5	
383.53	4120.5	
383.73	5371.1	
383.94	5299.5	
384.14	4077.5	
384.35	3474	
384.55	5195	
384.76	5474.2	
384.96	3965.6	
385.17	4117.1	
385.37	5547.3	
385.58	4947.9	
385.78	4136.2	
385.98	3379.1	
386.19	5115.8	
386.39	5367	
386.6	3792.8	
386.8	3997.6	
387.01	5480.4	
387.21	5607.3	
387.42	4291.9	
387.62	4638	
387.83	5130.8	
388.03	5419.6	
388.23	4083.6	
388.44	4601.1	
388.64	4890.5	
388.85	4959.5	
389.05	4304.1	
389.26	4728.1	
389.46	6423.1	
389.67	6001.9	
389.87	4335.5	
390.07	4326	
390.28	5351.3	
390.48	5059.8	
390.69	3761.4	
390.89	4016.1	
391.1	5207.3	
391.3	5827.2	
391.5	4908.3	
391.71	5294.7	
391.91	5778	
392.12	6357.6	
392.32	4922.6	
392.53	4342.4	
392.73	5339.7	
392.93	5406	
393.14	4183.3	
393.34	4681.7	
393.55	5710.4	
393.75	5397.1	
393.95	4153.3	
394.16	4072	
394.36	5250.3	
394.57	5782.8	
394.77	3766.9	
394.98	3981.9	
395.18	5233.9	
395.38	5323.4	
395.59	4709	
395.79	3955.3	
396	5410.7	
396.2	5735	
396.4	4657.1	
396.61	4620.9	
396.81	5866.7	
397.02	5382.7	
397.22	4913.1	
397.42	4932.2	
397.63	5983.5	
397.83	5461.2	
398.04	4067.9	
398.24	4485.1	
398.44	5767.1	
398.65	5125.4	
398.85	4009.2	
399.05	4030.4	
399.26	5466	
399.46	6677.7	
399.67	4345.1	
399.87	4173.1	
400.07	5730.9	
400.28	5968.5	
400.48	4319.8	
400.69	5086.5	
400.89	6106.4	
401.09	6536.4	
401.3	4244.8	
401.5	4974.5	
401.7	6622.4	
401.91	6870.9	
402.11	4641.4	
402.32	4645.5	
402.52	6264.7	
402.72	6081.8	
402.93	4828.4	
403.13	3958.7	
403.33	6795.2	
403.54	5695.4	
403.74	4553.3	
403.94	5134.3	
404.15	5858.6	
404.35	6673.6	
404.56	4399.7	
404.76	5689.3	
404.96	6194.4	
405.17	5969.8	
405.37	5361.6	
405.57	4849.6	
405.78	6283.9	
405.98	5865.4	
406.18	4578.6	
406.39	5109	
406.59	6270.2	
406.79	5989.6	
407	4383.3	
407.2	4390.8	
407.4	6366.5	
407.61	6485.2	
407.81	4541.7	
408.01	6302.3	
408.22	5603.2	
408.42	7063.4	
408.62	5370.5	
408.83	5155.4	
409.03	6210.1	
409.23	6195.1	
409.44	5197.1	
409.64	5378.6	
409.84	7124.2	
410.05	7002.7	
410.25	5464	
410.45	5281	
410.66	6812.9	
410.86	8538	
411.06	5784.8	
411.27	5632.6	
411.47	8639	
411.67	6947.4	
411.88	5844.9	
412.08	6109.8	
412.28	7466.9	
412.49	7816.4	
412.69	5808.7	
412.89	5852.4	
413.09	7791.8	
413.3	7750.9	
413.5	5973.9	
413.7	5708.4	
413.91	7224.6	
414.11	7838.3	
414.31	5861.3	
414.52	6204	
414.72	7608.9	
414.92	7700.4	
415.12	5885.2	
415.33	6233.3	
415.53	7921.5	
415.73	8051.2	
415.94	6556.9	
416.14	6214.2	
416.34	7289.4	
416.55	7040.2	
416.75	7077.1	
416.95	6695.5	
417.15	8122.2	
417.36	8503.8	
417.56	7328.3	
417.76	6651.1	
417.97	8315.4	
418.17	8107.2	
418.37	6350.8	
418.57	6457.2	
418.78	7996.6	
418.98	7721.5	
419.18	7072.3	
419.38	6901.7	
419.59	7756.3	
419.79	7367.2	
419.99	6305.7	
420.2	6524.1	
420.4	8087.4	
420.6	8101.8	
420.8	6316.6	
421.01	6181.5	
421.21	8069.7	
421.41	8110.6	
421.61	6485.9	
421.82	6303.6	
422.02	7745.4	
422.22	8413.7	
422.42	6904.4	
422.63	6551.5	
422.83	7753.6	
423.03	8675.2	
423.23	6624.5	
423.44	5942.5	
423.64	7775.5	
423.84	7533.8	
424.04	6221	
424.25	5956.2	
424.45	8458.1	
424.65	8322.9	
424.85	5877.7	
425.06	6214.9	
425.26	8580.3	
425.46	7632.1	
425.66	6590.4	
425.87	6372.6	
426.07	8279.9	
426.27	8095.6	
426.47	6431.3	
426.67	5976	
426.88	8572.8	
427.08	8080.6	
427.28	6777.4	
427.48	5890	
427.69	7322.2	
427.89	7783.6	
428.09	6673.6	
428.29	6021	
428.5	8224	
428.7	7880.6	
428.9	5922	
429.1	6326.9	
429.3	7898.3	
429.51	8130.4	
429.71	6227.9	
429.91	6883.2	
430.11	8330.5	
430.31	8469	
430.52	6524.8	
430.72	6811.5	
430.92	8708	
431.12	8223.3	
431.32	6357.6	
431.53	6642.9	
431.73	7576.8	
431.93	8749.6	
432.13	6321.4	
432.33	6204	
432.54	7983	
432.74	8143.4	
432.94	6328.9	
433.14	6959.7	
433.34	8385.7	
433.55	8155.7	
433.75	7006.1	
433.95	8389.2	
434.15	8314.1	
434.35	8028.7	
434.56	6414.2	
434.76	6212.9	
434.96	8284.7	
435.16	8625.4	
435.36	6470.2	
435.56	7318.8	
435.77	8167.3	
435.97	8356.4	
436.17	7912.7	
436.37	7363.8	
436.57	8159.8	
436.78	8256	
436.98	8182.3	
437.18	7731.1	
437.38	8860.2	
437.58	8371.4	
437.78	7872.4	
437.99	6780.1	
438.19	8661.5	
438.39	9330.5	
438.59	6788.3	
438.79	6340.5	
438.99	9245.2	
439.2	8241	
439.4	6401.3	
439.6	6412.2	
439.8	8507.3	
440	9357.2	
440.2	7429.3	
440.4	7496.9	
440.61	9037	
440.81	9364.7	
441.01	6941.2	
441.21	7647.8	
441.41	9514.9	
441.61	9045.9	
441.81	7952.9	
442.02	8715.5	
442.22	9762	
442.42	9301.2	
442.62	7102.4	
442.82	7207.5	
443.02	9613.2	
443.22	8959.9	
443.43	7560.4	
443.63	7223.2	
443.83	8755.1	
444.03	8844.5	
444.23	8224	
444.43	7825.3	
444.63	9309.4	
444.83	9999.5	
445.04	7461.4	
445.24	8350.9	
445.44	9430.2	
445.64	9493	
445.84	7796.6	
446.04	7946.8	
446.24	8873.8	
446.44	9595.4	
446.65	7235.5	
446.85	7655.3	
447.05	8755.7	
447.25	9615.2	
447.45	7658	
447.65	7238.9	
447.85	9094.3	
448.05	8675.9	
448.25	8021.2	
448.46	7807.5	
448.66	9123	
448.86	8853.4	
449.06	7179.5	
449.26	7953.6	
449.46	9529.9	
449.66	8644.5	
449.86	7848.5	
450.06	7758.4	
450.26	8867.7	
450.47	9415.9	
450.67	7835.5	
450.87	8240.3	
451.07	9590.6	
451.27	9372.9	
451.47	7374.1	
451.67	7940	
451.87	9312.8	
452.07	9957.9	
452.27	7778.2	
452.47	7628	
452.67	9488.9	
452.88	9852.1	
453.08	7223.2	
453.28	8705.9	
453.48	10475	
453.68	9279.3	
453.88	7789.1	
454.08	7811	
454.28	9876.7	
454.48	9607.7	
454.68	8247.9	
454.88	8603.5	
455.08	9962	
455.28	9912.9	
455.48	7675.8	
455.68	8366.6	
455.89	10571	
456.09	10109	
456.29	8054.7	
456.49	8370	
456.69	10524	
456.89	9794.1	
457.09	8693.6	
457.29	9065.7	
457.49	10288	
457.69	10385	
457.89	8800.1	
458.09	8377.6	
458.29	10194	
458.49	10769	
458.69	9166	
458.89	8787.8	
459.09	11158	
459.29	11136	
459.49	8726.4	
459.69	9403.6	
459.9	10705	
460.1	10583	
460.3	8589.2	
460.5	8590.5	
460.7	10869	
460.9	10615	
461.1	8486.1	
461.3	9592	
461.5	11491	
461.7	11069	
461.9	9130.5	
462.1	9255.5	
462.3	10985	
462.5	11322	
462.7	9266.4	
462.9	9336.7	
463.1	12258	
463.3	12174	
463.5	9511.4	
463.7	10488	
463.9	11432	
464.1	11692	
464.3	9995.5	
464.5	10052	
464.7	11986	
464.9	11871	
465.1	11199	
465.3	10421	
465.5	12193	
465.7	12371	
465.9	10904	
466.1	10467	
466.3	12431	
466.5	12078	
466.7	11424	
466.9	10478	
467.1	12337	
467.3	12955	
467.5	11620	
467.7	10671	
467.9	13232	
468.1	13930	
468.3	11243	
468.5	11680	
468.7	12529	
468.9	12361	
469.1	11100	
469.3	11574	
469.5	13955	
469.7	12299	
469.9	11262	
470.1	10894	
470.3	12649	
470.5	12618	
470.7	11859	
470.9	10920	
471.1	12577	
471.3	12466	
471.5	10918	
471.69	12192	
471.89	12316	
472.09	11908	
472.29	11614	
472.49	11470	
472.69	12233	
472.89	12748	
473.09	10799	
473.29	10724	
473.49	12223	
473.69	12183	
473.89	11376	
474.09	10836	
474.29	13310	
474.49	12866	
474.69	11548	
474.89	10918	
475.09	12397	
475.29	12455	
475.49	10514	
475.69	10862	
475.88	13401	
476.08	12562	
476.28	10568	
476.48	10670	
476.68	12790	
476.88	12585	
477.08	10672	
477.28	11001	
477.48	12142	
477.68	12517	
477.88	10622	
478.08	10643	
478.28	13150	
478.48	12349	
478.67	10897	
478.87	10206	
479.07	13134	
479.27	12437	
479.47	10851	
479.67	11083	
479.87	12812	
480.07	13349	
480.27	10570	
480.47	11678	
480.67	12504	
480.87	13149	
481.06	10774	
481.26	11569	
481.46	12729	
481.66	12569	
481.86	11256	
482.06	11907	
482.26	12453	
482.46	13117	
482.66	11110	
482.86	10841	
483.05	12865	
483.25	12411	
483.45	13037	
483.65	11324	
483.85	12568	
484.05	12927	
484.25	11574	
484.45	12034	
484.65	13458	
484.84	13700	
485.04	11407	
485.24	11314	
485.44	13943	
485.64	12716	
485.84	11092	
486.04	12008	
486.24	12988	
486.44	13294	
486.63	11037	
486.83	11788	
487.03	13072	
487.23	13475	
487.43	11226	
487.63	13091	
487.83	13363	
488.02	13951	
488.22	12207	
488.42	12820	
488.62	14070	
488.82	13359	
489.02	11860	
489.22	12127	
489.41	13989	
489.61	13844	
489.81	11791	
490.01	11736	
490.21	14170	
490.41	14709	
490.61	12041	
490.8	12069	
491	13869	
491.2	13181	
491.4	12406	
491.6	11636	
491.8	13526	
491.99	13620	
492.19	11503	
492.39	11686	
492.59	14070	
492.79	14155	
492.99	12695	
493.18	12054	
493.38	14326	
493.58	15298	
493.78	12813	
493.98	12599	
494.18	14371	
494.37	14216	
494.57	13345	
494.77	13143	
494.97	14992	
495.17	15389	
495.37	13117	
495.56	13345	
495.76	15639	
495.96	15362	
496.16	14237	
496.36	13676	
496.55	15685	
496.75	15526	
496.95	13846	
497.15	13722	
497.35	15543	
497.54	15636	
497.74	13575	
497.94	14861	
498.14	16281	
498.34	16216	
498.53	13659	
498.73	14182	
498.93	15492	
499.13	15930	
499.33	14126	
499.52	14431	
499.72	16167	
499.92	16119	
500.12	14116	
500.32	14349	
500.51	16197	
500.71	16334	
500.91	14974	
501.11	14560	
501.31	16239	
501.5	16519	
501.7	15100	
501.9	14347	
502.1	16019	
502.29	16434	
502.49	14881	
502.69	15021	
502.89	16272	
503.09	16260	
503.28	13706	
503.48	13960	
503.68	15539	
503.88	15545	
504.07	14601	
504.27	14154	
504.47	15831	
504.67	15827	
504.86	14727	
505.06	14216	
505.26	15530	
505.46	16757	
505.65	14052	
505.85	14196	
506.05	15325	
506.25	15716	
506.44	13461	
506.64	14001	
506.84	15113	
507.04	15739	
507.23	13590	
507.43	13930	
507.63	16445	
507.83	15236	
508.02	13999	
508.22	13678	
508.42	16872	
508.62	15186	
508.81	13767	
509.01	14362	
509.21	15107	
509.4	15303	
509.6	14013	
509.8	13571	
510	15194	
510.19	16363	
510.39	13522	
510.59	13831	
510.79	15312	
510.98	16361	
511.18	13898	
511.38	13919	
511.57	15892	
511.77	15745	
511.97	14290	
512.17	13679	
512.36	15898	
512.56	15636	
512.76	13736	
512.95	13366	
513.15	15933	
513.35	14948	
513.55	14328	
513.74	13658	
513.94	15967	
514.14	15444	
514.33	14545	
514.53	14227	
514.73	15551	
514.92	15580	
515.12	13851	
515.32	13908	
515.51	15816	
515.71	16102	
515.91	15229	
516.11	14028	
516.3	17036	
516.5	15558	
516.7	14280	
516.89	14926	
517.09	15639	
517.29	15747	
517.48	14795	
517.68	14207	
517.88	15484	
518.07	16072	
518.27	14602	
518.47	13839	
518.66	16477	
518.86	15488	
519.06	13785	
519.25	14012	
519.45	15597	
519.65	16975	
519.84	14665	
520.04	15296	
520.24	17159	
520.43	16193	
520.63	14478	
520.83	14288	
521.02	15605	
521.22	15937	
521.42	14446	
521.61	14846	
521.81	15711	
522.01	15872	
522.2	14467	
522.4	14229	
522.6	16254	
522.79	15501	
522.99	14320	
523.18	14216	
523.38	16356	
523.58	16393	
523.77	15864	
523.97	14512	
524.17	18132	
524.36	17577	
524.56	15929	
524.76	15592	
524.95	17122	
525.15	16675	
525.34	15616	
525.54	15719	
525.74	17680	
525.93	16903	
526.13	16793	
526.33	16008	
526.52	18079	
526.72	17645	
526.91	16955	
527.11	16386	
527.31	17986	
527.5	18554	
527.7	16481	
527.89	15830	
528.09	17531	
528.29	18234	
528.48	16861	
528.68	16531	
528.87	18410	
529.07	18088	
529.27	16415	
529.46	16252	
529.66	18137	
529.85	18376	
530.05	16192	
530.25	16726	
530.44	19325	
530.64	18056	
530.83	16451	
531.03	16729	
531.23	18592	
531.42	18264	
531.62	17314	
531.81	16769	
532.01	19013	
532.21	19314	
532.4	17093	
532.6	17571	
532.79	19778	
532.99	19454	
533.18	17602	
533.38	18299	
533.58	19213	
533.77	19781	
533.97	18005	
534.16	18491	
534.36	20249	
534.55	19334	
534.75	18621	
534.95	17976	
535.14	20290	
535.34	19439	
535.53	17696	
535.73	19181	
535.92	20537	
536.12	19439	
536.31	17616	
536.51	18598	
536.71	19587	
536.9	19420	
537.1	17749	
537.29	17942	
537.49	20011	
537.68	19351	
537.88	18212	
538.07	17645	
538.27	19580	
538.46	20309	
538.66	17623	
538.86	18077	
539.05	19699	
539.25	19980	
539.44	18521	
539.64	17744	
539.83	19361	
540.03	20227	
540.22	17760	
540.42	17627	
540.61	19492	
540.81	19711	
541	17741	
541.2	18559	
541.39	19065	
541.59	19350	
541.78	18413	
541.98	17476	
542.18	18776	
542.37	18787	
542.57	17619	
542.76	18278	
542.96	18632	
543.15	19080	
543.35	17533	
543.54	17179	
543.74	19008	
543.93	18973	
544.13	17232	
544.32	18033	
544.52	19057	
544.71	18472	
544.91	16638	
545.1	17533	
545.3	18501	
545.49	18932	
545.69	16464	
545.88	16941	
546.08	19697	
546.27	19222	
546.47	17325	
546.66	16629	
546.86	19015	
547.05	19361	
547.24	16918	
547.44	16914	
547.63	18064	
547.83	19000	
548.02	17036	
548.22	17299	
548.41	17989	
548.61	18817	
548.8	16565	
549	16544	
549.19	18320	
549.39	18737	
549.58	16370	
549.78	16767	
549.97	18646	
550.17	18116	
550.36	17212	
550.55	18002	
550.75	17996	
550.94	18838	
551.14	16262	
551.33	16494	
551.53	17645	
551.72	18511	
551.92	16531	
552.11	16412	
552.31	18377	
552.5	18234	
552.69	17603	
552.89	16037	
553.08	18223	
553.28	17905	
553.47	16316	
553.67	17248	
553.86	18558	
554.06	17307	
554.25	15581	
554.44	16152	
554.64	19153	
554.83	18770	
555.03	16178	
555.22	16495	
555.42	18235	
555.61	18026	
555.8	16236	
556	16251	
556.19	17461	
556.39	18178	
556.58	16207	
556.78	16081	
556.97	17823	
557.16	17825	
557.36	17115	
557.55	15988	
557.75	16974	
557.94	18592	
558.13	16004	
558.33	15827	
558.52	18284	
558.72	17443	
558.91	15933	
559.1	16093	
559.3	17154	
559.49	16819	
559.69	15439	
559.88	16182	
560.07	17732	
560.27	18069	
560.46	16293	
560.66	16381	
560.85	17612	
561.04	16899	
561.24	15610	
561.43	15630	
561.63	16993	
561.82	17340	
562.01	16677	
562.21	15958	
562.4	17477	
562.59	18416	
562.79	16028	
562.98	15879	
563.18	17759	
563.37	18840	
563.56	16304	
563.76	15939	
563.95	17419	
564.14	17325	
564.34	16200	
564.53	16027	
564.73	17967	
564.92	18180	
565.11	16449	
565.31	15945	
565.5	18376	
565.69	17570	
565.89	16141	
566.08	16414	
566.27	18286	
566.47	18802	
566.66	16843	
566.85	15943	
567.05	18152	
567.24	17813	
567.44	16329	
567.63	17178	
567.82	18410	
568.02	18065	
568.21	16401	
568.4	16529	
568.6	18165	
568.79	18145	
568.98	16235	
569.18	16466	
569.37	18339	
569.56	19860	
569.76	16893	
569.95	17643	
570.14	18699	
570.34	18529	
570.53	16506	
570.72	16538	
570.91	19130	
571.11	18430	
571.3	16959	
571.49	17492	
571.69	18634	
571.88	18020	
572.07	17421	
572.27	17384	
572.46	18216	
572.65	18836	
572.85	16818	
573.04	17241	
573.23	19278	
573.43	18654	
573.62	16783	
573.81	17307	
574	18955	
574.2	18844	
574.39	17330	
574.58	17401	
574.78	19783	
574.97	19178	
575.16	17996	
575.36	18064	
575.55	19729	
575.74	19800	
575.93	17125	
576.13	18333	
576.32	19177	
576.51	19863	
576.71	17738	
576.9	18846	
577.09	19952	
577.28	19627	
577.48	18064	
577.67	17359	
577.86	19449	
578.05	19625	
578.25	17976	
578.44	17940	
578.63	19566	
578.83	20502	
579.02	17478	
579.21	18733	
579.4	19755	
579.6	19639	
579.79	18005	
579.98	19734	
580.17	19962	
580.37	20147	
580.56	17692	
580.75	18333	
580.94	20179	
581.14	20413	
581.33	18748	
581.52	17824	
581.71	19983	
581.91	20422	
582.1	17867	
582.29	18177	
582.48	19772	
582.68	19812	
582.87	18597	
583.06	18329	
583.25	20134	
583.45	19602	
583.64	18944	
583.83	19566	
584.02	19790	
584.21	20321	
584.41	18729	
584.6	18470	
584.79	19952	
584.98	20462	
585.18	17879	
585.37	18121	
585.56	19673	
585.75	20242	
585.94	18008	
586.14	18594	
586.33	20220	
586.52	19755	
586.71	18268	
586.91	17937	
587.1	18955	
587.29	19771	
587.48	17623	
587.67	17684	
587.87	19627	
588.06	19375	
588.25	18657	
588.44	18116	
588.63	19157	
588.83	19644	
589.02	17500	
589.21	17319	
589.4	18781	
589.59	18932	
589.78	16350	
589.98	16413	
590.17	17645	
590.36	17944	
590.55	15349	
590.74	15752	
590.94	18592	
591.13	17603	
591.32	15549	
591.51	15345	
591.7	17849	
591.89	17651	
592.09	15599	
592.28	15966	
592.47	17071	
592.66	18697	
592.85	15819	
593.05	15945	
593.24	17529	
593.43	18389	
593.62	16130	
593.81	16307	
594	17686	
594.19	17870	
594.39	15946	
594.58	15896	
594.77	17837	
594.96	18134	
595.15	15804	
595.34	16204	
595.54	17544	
595.73	17003	
595.92	15160	
596.11	15912	
596.3	17999	
596.49	17075	
596.68	15732	
596.88	15997	
597.07	17841	
597.26	16847	
597.45	15319	
597.64	16437	
597.83	17018	
598.02	17620	
598.22	15297	
598.41	15887	
598.6	17420	
598.79	16952	
598.98	15489	
599.17	16115	
599.36	17198	
599.55	17960	
599.74	16957	
599.94	16678	
600.13	17715	
600.32	16735	
600.51	15197	
600.7	15221	
600.89	17929	
601.08	18143	
601.27	15098	
601.47	15834	
601.66	17572	
601.85	18058	
602.04	15584	
602.23	15625	
602.42	16767	
602.61	17269	
602.8	15287	
602.99	15137	
603.18	16976	
603.37	17168	
603.57	15512	
603.76	16028	
603.95	17696	
604.14	17356	
604.33	15338	
604.52	15471	
604.71	17393	
604.9	17022	
605.09	15903	
605.28	15829	
605.47	17643	
605.66	17343	
605.86	15743	
606.05	15347	
606.24	17553	
606.43	16522	
606.62	15503	
606.81	16042	
607	17324	
607.19	16920	
607.38	14851	
607.57	15156	
607.76	16708	
607.95	16186	
608.14	15436	
608.33	15859	
608.52	16575	
608.72	17361	
608.91	14863	
609.1	14777	
609.29	16707	
609.48	16218	
609.67	15357	
609.86	14797	
610.05	16164	
610.24	16453	
610.43	14803	
610.62	14336	
610.81	17253	
611	17152	
611.19	14625	
611.38	15213	
611.57	16623	
611.76	17725	
611.95	14509	
612.14	14358	
612.33	16638	
612.52	16148	
612.71	14903	
612.9	14356	
613.09	16010	
613.28	17758	
613.47	14803	
613.66	15393	
613.85	16554	
614.04	16118	
614.24	14733	
614.43	14072	
614.62	16754	
614.81	16648	
615	15137	
615.19	15113	
615.38	16209	
615.57	16673	
615.76	15219	
615.95	15930	
616.14	16862	
616.33	16485	
616.52	15320	
616.71	15565	
616.9	16784	
617.09	16719	
617.28	14769	
617.47	15690	
617.66	16410	
617.85	16338	
618.04	15692	
618.22	15331	
618.41	16702	
618.6	17559	
618.79	15432	
618.98	15455	
619.17	17851	
619.36	16554	
619.55	15444	
619.74	15515	
619.93	17499	
620.12	17017	
620.31	16069	
620.5	16281	
620.69	18268	
620.88	18404	
621.07	16812	
621.26	16371	
621.45	17918	
621.64	17859	
621.83	16261	
622.02	15773	
622.21	17857	
622.4	17937	
622.59	16840	
622.78	16646	
622.97	17507	
623.16	18277	
623.35	16488	
623.54	15851	
623.72	17699	
623.91	17885	
624.1	16716	
624.29	15723	
624.48	18652	
624.67	18127	
624.86	16724	
625.05	15930	
625.24	18862	
625.43	17589	
625.62	17869	
625.81	16162	
626	18236	
626.19	17877	
626.38	16819	
626.56	16455	
626.75	17793	
626.94	18515	
627.13	16775	
627.32	15834	
627.51	18213	
627.7	19248	
627.89	15660	
628.08	16729	
628.27	17512	
628.46	17668	
628.65	15915	
628.83	15954	
629.02	18041	
629.21	17555	
629.4	16425	
629.59	16543	
629.78	17552	
629.97	18101	
630.16	16509	
630.35	16034	
630.54	18602	
630.72	18413	
630.91	16167	
631.1	16518	
631.29	18005	
631.48	17986	
631.67	16650	
631.86	16039	
632.05	17736	
632.24	17854	
632.42	15821	
632.61	16356	
632.8	17632	
632.99	17449	
633.18	16514	
633.37	16460	
633.56	17855	
633.75	17877	
633.93	16494	
634.12	16171	
634.31	18532	
634.5	18212	
634.69	16219	
634.88	16401	
635.07	17665	
635.25	18017	
635.44	16821	
635.63	16877	
635.82	17591	
636.01	17112	
636.2	16630	
636.39	16346	
636.57	18346	
636.76	18006	
636.95	15878	
637.14	16791	
637.33	18070	
637.52	18500	
637.7	15574	
637.89	16365	
638.08	17520	
638.27	18452	
638.46	16393	
638.65	16684	
638.83	18408	
639.02	17333	
639.21	16032	
639.4	16359	
639.59	17647	
639.78	17111	
639.96	15354	
640.15	15464	
640.34	17274	
640.53	17184	
640.72	15178	
640.91	15356	
641.09	16646	
641.28	17624	
641.47	15165	
641.66	15923	
641.85	17169	
642.03	17166	
642.22	15765	
642.41	15424	
642.6	16634	
642.79	16120	
642.97	14977	
643.16	15464	
643.35	16593	
643.54	16029	
643.73	14835	
643.91	15489	
644.1	15996	
644.29	16563	
644.48	14706	
644.67	14835	
644.85	15904	
645.04	16295	
645.23	14156	
645.42	14570	
645.6	15683	
645.79	16477	
645.98	14092	
646.17	13355	
646.36	15072	
646.54	15262	
646.73	14269	
646.92	13490	
647.11	14944	
647.29	15773	
647.48	13423	
647.67	13338	
647.86	15946	
648.05	16062	
648.23	13561	
648.42	14605	
648.61	15341	
648.8	15210	
648.98	13209	
649.17	13546	
649.36	14741	
649.55	14697	
649.73	13302	
649.92	13940	
650.11	14844	
650.3	14970	
650.48	13373	
650.67	13204	
650.86	15182	
651.05	14385	
651.23	13267	
651.42	13205	
651.61	14711	
651.79	14531	
651.98	13338	
652.17	13001	
652.36	14695	
652.54	14255	
652.73	12944	
652.92	12889	
653.11	14782	
653.29	14957	
653.48	12311	
653.67	13120	
653.85	14444	
654.04	15264	
654.23	13061	
654.42	12678	
654.6	13739	
654.79	14279	
654.98	11972	
655.16	12277	
655.35	13091	
655.54	12876	
655.73	11592	
655.91	11490	
656.1	13764	
656.29	12930	
656.47	11511	
656.66	12788	
656.85	13478	
657.03	13571	
657.22	12159	
657.41	12153	
657.59	13828	
657.78	13489	
657.97	11906	
658.16	12475	
658.34	14197	
658.53	14544	
658.72	13282	
658.9	13669	
659.09	14005	
659.28	14016	
659.46	12446	
659.65	12329	
659.84	13804	
660.02	14151	
660.21	12388	
660.4	12267	
660.58	14459	
660.77	13945	
660.96	12647	
661.14	12059	
661.33	14856	
661.52	14814	
661.7	11982	
661.89	14477	
662.08	13544	
662.26	13315	
662.45	12170	
662.64	12072	
662.82	14172	
663.01	13575	
663.2	12022	
663.38	12736	
663.57	13953	
663.75	13914	
663.94	12329	
664.13	13256	
664.31	13508	
664.5	13969	
664.69	12446	
664.87	12945	
665.06	13446	
665.25	13880	
665.43	13166	
665.62	13110	
665.8	14046	
665.99	13531	
666.18	12292	
666.36	12347	
666.55	14059	
666.74	13855	
666.92	12117	
667.11	13130	
667.29	13538	
667.48	13942	
667.67	12797	
667.85	12153	
668.04	13438	
668.22	13478	
668.41	12217	
668.6	12468	
668.78	13280	
668.97	13581	
669.15	12536	
669.34	11733	
669.53	13306	
669.71	13703	
669.9	11729	
670.08	12329	
670.27	13244	
670.46	13695	
670.64	12451	
670.83	12704	
671.01	13087	
671.2	13532	
671.38	12041	
671.57	11702	
671.76	14046	
671.94	14556	
672.13	11804	
672.31	12506	
672.5	13885	
672.69	13222	
672.87	11963	
673.06	12211	
673.24	13764	
673.43	13467	
673.61	12410	
673.8	12002	
673.98	13739	
674.17	13893	
674.36	12491	
674.54	12297	
674.73	13520	
674.91	13845	
675.1	12138	
675.28	11812	
675.47	13503	
675.65	13727	
675.84	12116	
676.03	12271	
676.21	13245	
676.4	12841	
676.58	12671	
676.77	12580	
676.95	14396	
677.14	13189	
677.32	11727	
677.51	11638	
677.69	13835	
677.88	12951	
678.06	11752	
678.25	11857	
678.44	13494	
678.62	13113	
678.81	11502	
678.99	12377	
679.18	13898	
679.36	13713	
679.55	11988	
679.73	12519	
679.92	13499	
680.1	13344	
680.29	12925	
680.47	11931	
680.66	13188	
680.84	13790	
681.03	11547	
681.21	12188	
681.4	13220	
681.58	13101	
681.77	11803	
681.95	11779	
682.14	13740	
682.32	14078	
682.51	12403	
682.69	11401	
682.88	12983	
683.06	13229	
683.25	12144	
683.43	12349	
683.62	13323	
683.8	13533	
683.99	12536	
684.17	11959	
684.36	14100	
684.54	12943	
684.73	11128	
684.91	10907	
685.1	12785	
685.28	12176	
685.46	10950	
685.65	10969	
685.83	12298	
686.02	11956	
686.2	10451	
686.39	10587	
686.57	12014	
686.76	13093	
686.94	10813	
687.13	10920	
687.31	12469	
687.5	12370	
687.68	10443	
687.86	11354	
688.05	13610	
688.23	12019	
688.42	11502	
688.6	11000	
688.79	12404	
688.97	12294	
689.16	11234	
689.34	10539	
689.52	12991	
689.71	13250	
689.89	11673	
690.08	11131	
690.26	12825	
690.45	12704	
690.63	11751	
690.81	11351	
691	12544	
691.18	12549	
691.37	11377	
691.55	12921	
691.74	12337	
691.92	13938	
692.1	11308	
692.29	10804	
692.47	12382	
692.66	11989	
692.84	11013	
693.02	11381	
693.21	12144	
693.39	12480	
693.58	11466	
693.76	11020	
693.94	13389	
694.13	13437	
694.31	11230	
694.5	12096	
694.68	12536	
694.86	13095	
695.05	11776	
695.23	11799	
695.42	13411	
695.6	14975	
695.78	12149	
695.97	11474	
696.15	13442	
696.34	12818	
696.52	11342	
696.7	11910	
696.89	13041	
697.07	12473	
697.25	11697	
697.44	12710	
697.62	12899	
697.81	13024	
697.99	11432	
698.17	11724	
698.36	12409	
698.54	12802	
698.72	11553	
698.91	10869	
699.09	12418	
699.28	12288	
699.46	11345	
699.64	11088	
699.83	12384	
700.01	12981	
700.19	11716	
700.38	10716	
700.56	13123	
700.74	12387	
700.93	10798	
701.11	11497	
701.29	12790	
701.48	13700	
701.66	11041	
701.84	11260	
702.03	12547	
702.21	13084	
702.39	10771	
702.58	11385	
702.76	12880	
702.94	13020	
703.13	10802	
703.31	12618	
703.49	12417	
703.68	13491	
703.86	10970	
704.04	11653	
704.23	12627	
704.41	12857	
704.59	10996	
704.78	11742	
704.96	13879	
705.14	12871	
705.33	10910	
705.51	11359	
705.69	12454	
705.87	13147	
706.06	11593	
706.24	10812	
706.42	12721	
706.61	12906	
706.79	11551	
706.97	10727	
707.16	12146	
707.34	12536	
707.52	11380	
707.7	10930	
707.89	12271	
708.07	12003	
708.25	11320	
708.44	11556	
708.62	12019	
708.8	12904	
708.98	11562	
709.17	10746	
709.35	12396	
709.53	12312	
709.72	10449	
709.9	10740	
710.08	12495	
710.26	12622	
710.45	11533	
710.63	10684	
710.81	12054	
710.99	12138	
711.18	11026	
711.36	10540	
711.54	11925	
711.72	12430	
711.91	10532	
712.09	10057	
712.27	11841	
712.45	12190	
712.64	10420	
712.82	9727.2	
713	11174	
713.18	11257	
713.37	9738.8	
713.55	10467	
713.73	11695	
713.91	10529	
714.1	9533.3	
714.28	8909.3	
714.46	10745	
714.64	9997.5	
714.83	8090.8	
715.01	8466.3	
715.19	9749	
715.37	9019.3	
715.55	7961.1	
715.74	8196.7	
715.92	10136	
716.1	8555.7	
716.28	8907.3	
716.47	8026	
716.65	9041.1	
716.83	9012.4	
717.01	7944.1	
717.19	7888.8	
717.38	10559	
717.56	8773.5	
717.74	8086.7	
717.92	7491.5	
718.1	9706	
718.29	9215.9	
718.47	7499.7	
718.65	8006.2	
718.83	10156	
719.01	10165	
719.2	7663.5	
719.38	8652	
719.56	9949	
719.74	11134	
719.92	8315.4	
720.11	8897.7	
720.29	9886.2	
720.47	9209.7	
720.65	7615.7	
720.83	8230.8	
721.02	9111.4	
721.2	8845.9	
721.38	8006.9	
721.56	7296.9	
721.74	8436.3	
721.92	8467.7	
722.11	8143.4	
722.29	8015.7	
722.47	9401.5	
722.65	8661.5	
722.83	7331	
723.01	7838.3	
723.2	8740	
723.38	8995.4	
723.56	6811.5	
723.74	7741.3	
723.92	8387.8	
724.1	9270.5	
724.29	7202.7	
724.47	8064.9	
724.65	8467.7	
724.83	8350.9	
725.01	7020.4	
725.19	7565.2	
725.37	8320.2	
725.56	8313.4	
725.74	6870.9	
725.92	7135.8	
726.1	8301.1	
726.28	8477.2	
726.46	7275.8	
726.64	7116.7	
726.83	8488.8	
727.01	8555	
727.19	6808.8	
727.37	7377.5	
727.55	8561.2	
727.73	8886.8	
727.91	6780.8	
728.09	6680.5	
728.28	9009	
728.46	9108	
728.64	7516.7	
728.82	7415	
729	9706	
729.18	9167.4	
729.36	7016.3	
729.54	8579.6	
729.72	10013	
729.91	8676.6	
730.09	8516.1	
730.27	7624.6	
730.45	8782.4	
730.63	9194.7	
730.81	8016.4	
730.99	7361.1	
731.17	9772.9	
731.35	8593.3	
731.53	7759.1	
731.71	7551.5	
731.9	9416.6	
732.08	9416.6	
732.26	7595.9	
732.44	7236.8	
732.62	9384.5	
732.8	9116.9	
732.98	7827.3	
733.16	7082.6	
733.34	9132.6	
733.52	7962.5	
733.7	7407.5	
733.88	7502.4	
734.07	8730.5	
734.25	8624.7	
734.43	6956.3	
734.61	8044.4	
734.79	9863	
734.97	8561.2	
735.15	7030.7	
735.33	7299.6	
735.51	8792.6	
735.69	8540.7	
735.87	8299.1	
736.05	7240.9	
736.23	8551.6	
736.41	8384.4	
736.59	7238.2	
736.77	7305.8	
736.95	8869.1	
737.13	8444.5	
737.32	6931.7	
737.5	7047.7	
737.68	9257.5	
737.86	8272.4	
738.04	6748.1	
738.22	8066.9	
738.4	8082	
738.58	8340.7	
738.76	7033.4	
738.94	6344.6	
739.12	8152.3	
739.3	8070.4	
739.48	7540.6	
739.66	7327.6	
739.84	8342.7	
740.02	8308.6	
740.2	6384.2	
740.38	6539.8	
740.56	8482.7	
740.74	7679.2	
740.92	7085.3	
741.1	6800.6	
741.28	7978.2	
741.46	7726.3	
741.64	6573.3	
741.82	6961	
742	7991.9	
742.18	7995.3	
742.36	6656.6	
742.54	6431.3	
742.72	8364.6	
742.9	7406.8	
743.08	6941.9	
743.26	5942.5	
743.44	8472.4	
743.62	8188.5	
743.8	6907.8	
743.98	6253.1	
744.16	7987.1	
744.34	7783	
744.52	6722.8	
744.7	6707.1	
744.88	8034.2	
745.06	7637.6	
745.24	6663.4	
745.42	6838.9	
745.6	8019.8	
745.78	7927.7	
745.96	5782.1	
746.14	5956.9	
746.32	8484.7	
746.5	7854.6	
746.68	6380.1	
746.86	5920	
747.03	8164.6	
747.21	6950.1	
747.39	6260	
747.57	5905	
747.75	7527.7	
747.93	7846.5	
748.11	5800.5	
748.29	5823.1	
748.47	8705.9	
748.65	7288.7	
748.83	6403.3	
749.01	6192.4	
749.19	7675.1	
749.37	6917.4	
749.55	6047.7	
749.73	6069.5	
749.91	7326.3	
750.09	7140.6	
750.26	6047.7	
750.44	5666.7	
750.62	7321.5	
750.8	7256	
750.98	5588.9	
751.16	5769.8	
751.34	7355.6	
751.52	6883.2	
751.7	6219.7	
751.88	5433.3	
752.06	7677.2	
752.24	7394.5	
752.42	5332.2	
752.59	5573.9	
752.77	7153.6	
752.95	8120.9	
753.13	6224.5	
753.31	5695.4	
753.49	6890	
753.67	7174.7	
753.85	5819	
754.03	5495.4	
754.21	7336.5	
754.38	7490.8	
754.56	5476.3	
754.74	4733.5	
754.92	6587	
755.1	7036.1	
755.28	4602.5	
755.46	4549.2	
755.64	7378.8	
755.82	7268.9	
755.99	4364.2	
756.17	4436.6	
756.35	5051.7	
756.53	6187.6	
756.71	3314.3	
756.89	4052.2	
757.07	5777.3	
757.25	5127.4	
757.42	4442	
757.6	5165	
757.78	6083.1	
757.96	5303.6	
758.14	4421.6	
758.32	4108.9	
758.5	5018.2	
758.67	5624.4	
758.85	4284.4	
759.03	4321.9	
759.21	5779.4	
759.39	5333.6	
759.57	3940.3	
759.75	4788.8	
759.92	6281.1	
760.1	5837.4	
760.28	5107.6	
760.46	5277.6	
760.64	5643.5	
760.82	5476.3	
760.99	5042.1	
761.17	4485.1	
761.35	6339.8	
761.53	5503.6	
761.71	4622.9	
761.89	5088.5	
762.06	6339.1	
762.24	5939.1	
762.42	4715.8	
762.6	4562.2	
762.78	5944.6	
762.96	6412.9	
763.13	5122	
763.31	4791.6	
763.49	6467.5	
763.67	5889.3	
763.85	5345.2	
764.02	5884.5	
764.2	6825.9	
764.38	6107.7	
764.56	4653.7	
764.74	5398.4	
764.91	6821.8	
765.09	5953.4	
765.27	4429.1	
765.45	4234.5	
765.63	6837.5	
765.8	6623.1	
765.98	4113	
766.16	4326	
766.34	5573.9	
766.52	5404.6	
766.69	5005.9	
766.87	4177.2	
767.05	5894.1	
767.23	6503	
767.41	4352.6	
767.58	4538.3	
767.76	6223.1	
767.94	6323.4	
768.12	4437.9	
768.29	4898.1	
768.47	5757.5	
768.65	6383.5	
768.83	4078.9	
769	4859.8	
769.18	5522.7	
769.36	5930.2	
769.54	4894	
769.72	4040.6	
769.89	6299.6	
770.07	6197.2	
770.25	4313.7	
770.43	5205.9	
770.6	6746	
770.78	7015.7	
770.96	4347.2	
771.14	4805.2	
771.31	6037.4	
771.49	5523.4	
771.67	3716.4	
771.85	3863.2	
772.02	4934.2	
772.2	5485.8	
772.38	4408.6	
772.55	4018.1	
772.73	5737.7	
772.91	5493.3	
773.09	4240.7	
773.26	4348.5	
773.44	5703.6	
773.62	5424.4	
773.8	3937.6	
773.97	3723.2	
774.15	5636	
774.33	5389.6	
774.5	3798.3	
774.68	4046.1	
774.86	5732.3	
775.04	5381.4	
775.21	3860.4	
775.39	3822.2	
775.57	5560.9	
775.74	5714.5	
775.92	3634.5	
776.1	3588.7	
776.27	5460.6	
776.45	6383.5	
776.63	3738.2	
776.81	3439.2	
776.98	5221.6	
777.16	5963.7	
777.34	3848.8	
777.51	4102.8	
777.69	5210	
777.87	4995	
778.04	3918.4	
778.22	4320.5	
778.4	5046.9	
778.57	5532.9	
778.75	3267.9	
778.93	3529.3	
779.1	4836.6	
779.28	4659.1	
779.46	3246.7	
779.64	3620.8	
779.81	5616.9	
779.99	6237.4	
780.17	4209.9	
780.34	4289.8	
780.52	5215.5	
780.69	5270.8	
780.87	3924.6	
781.05	3562.1	
781.22	5175.9	
781.4	5251	
781.58	3589.4	
781.75	2973.7	
781.93	5216.2	
782.11	4636.6	
782.28	4319.8	
782.46	3623.5	
782.64	4584	
782.81	5259.2	
782.99	3689.8	
783.17	3611.9	
783.34	5209.3	
783.52	4653.7	
783.69	3749.1	
783.87	4313.7	
784.05	4702.8	
784.22	4714.4	
784.4	4370.4	
784.58	3875.4	
784.75	5408	
784.93	4777.2	
785.1	3509.5	
785.28	4054.3	
785.46	5239.4	
785.63	4635.2	
785.81	3510.9	
785.99	3428.3	
786.16	4848.9	
786.34	5168.4	
786.51	3454.2	
786.69	3775.8	
786.87	4495.3	
787.04	4831.8	
787.22	3401.7	
787.39	3979.9	
787.57	4617.5	
787.75	5403.2	
787.92	4186	
788.1	4144.4	
788.27	4657.8	
788.45	4412	
788.63	3958	
788.8	2893.1	
788.98	5076.2	
789.15	4353.3	
789.33	2991.4	
789.5	3503.4	
789.68	5372.5	
789.86	5410.7	
790.03	3827	
790.21	3374.4	
790.38	5413.5	
790.56	4758.8	
790.73	3313.6	
790.91	3306.8	
791.09	4618.9	
791.26	5184.1	
791.44	3602.4	
791.61	3072	
791.79	4675.5	
791.96	4655	
792.14	3145	
792.32	2882.2	
792.49	4567.7	
792.67	4688.5	
792.84	3190.7	
793.02	3036.5	
793.19	4964.3	
793.37	5507.7	
793.54	2823.5	
793.72	3117.7	
793.89	5489.2	
794.07	4584	
794.25	3529.3	
794.42	2878.1	
794.6	5401.9	
794.77	5093.3	
794.95	3769.6	
795.12	3300.6	
795.3	4586.1	
795.47	5023.7	
795.65	3614	
795.82	3508.2	
796	4486.4	
796.17	5834	
796.35	3376.4	
796.52	3954.6	
796.7	4989.5	
796.87	5062.6	
797.05	3377.8	
797.22	3999	
797.4	5085.8	
797.57	5800.5	
797.75	3482.9	
797.92	3292.5	
798.1	5296.7	
798.27	4468	
798.45	2916.3	
798.62	3076.7	
798.8	4853.7	
798.97	5158.8	
799.15	3645.4	
799.32	3467.9	
799.5	4268.6	
799.67	4801.1	
799.85	3739.6	
800.02	2811.9	
800.2	4550.6	
800.37	4704.2	
800.55	3819.5	
800.72	3304.7	
800.9	5122.7	
801.07	5443.5	
801.25	4246.8	
801.42	3596.2	
801.6	5231.9	
801.77	4855.7	
801.95	3347.1	
802.12	3177.8	
802.29	4948.6	
802.47	4888.5	
802.64	3571.7	
802.82	2793.4	
802.99	4545.1	
803.17	5256.5	
803.34	3476.1	
803.52	3162.1	
803.69	5739.1	
803.87	4296	
804.04	3433.8	
804.21	3450.8	
804.39	5440.8	
804.56	4671.4	
804.74	3040.6	
804.91	3560.7	
805.09	4524	
805.26	4564.2	
805.44	3058.3	
805.61	3332.7	
805.78	5061.9	
805.96	5034.6	
806.13	3514.3	
806.31	3798.3	
806.48	4222.2	
806.66	4567	
806.83	3533.4	
807	3465.8	
807.18	4558.8	
807.35	4781.3	
807.53	3411.2	
807.7	2854.9	
807.87	5397.1	
808.05	4502.8	
808.22	3707.5	
808.4	2803	
808.57	4445.5	
808.74	4263.9	
808.92	3178.4	
809.09	3956	
809.27	4512.4	
809.44	4893.3	
809.61	2859	
809.79	3070.6	
809.96	5470.1	
810.14	5049.6	
810.31	2755.2	
810.48	3372.3	
810.66	4560.8	
810.83	5130.8	
811.01	3132.7	
811.18	3453.6	
811.35	5032.5	
811.53	4083	
811.7	3735.5	
811.87	3495.2	
812.05	4555.4	
812.22	4476.9	
812.39	3121.8	
812.57	3008.5	
812.74	4549.2	
812.92	5756.8	
813.09	3341.6	
813.26	3504.1	
813.44	5543.9	
813.61	4381.3	
813.78	2808.4	
813.96	3650.2	
814.13	4571.1	
814.3	4273.4	
814.48	3979.9	
814.65	3330.7	
814.82	5353.4	
815	4313	
815.17	3387.3	
815.34	4054.3	
815.52	4455.7	
815.69	4465.3	
815.87	3319.8	
816.04	3264.5	
816.21	4485.7	
816.38	4096.6	
816.56	3198.2	
816.73	3102.7	
816.9	5569.1	
817.08	5049.6	
817.25	3083.6	
817.42	3777.1	
817.6	4167.6	
817.77	4491.9	
817.94	3455.6	
818.12	3004.4	
818.29	4332.8	
818.46	6310.5	
818.64	3183.2	
818.81	3013.9	
818.98	4283.7	
819.16	5817.6	
819.33	3591.5	
819.5	3422.2	
819.67	4803.9	
819.85	5325.4	
820.02	3306.8	
820.19	3435.8	
820.37	4689.2	
820.54	4399.7	
820.71	3444.7	
820.88	4141	
821.06	4696.7	
821.23	4358.8	
821.4	3480.2	
821.58	3405.8	
821.75	5020.9	
821.92	4616.1	
822.09	2831.7	
822.27	2878.1	
822.44	4541.7	
822.61	4400.4	
822.79	2877.4	
822.96	5153.4	
823.13	4827.7	
823.3	4230.4	
823.48	3235.1	
823.65	2906.8	
823.82	5085.8	
823.99	4215.4	
824.17	4038.6	
824.34	2946.3	
824.51	5711.1	
824.68	4564.2	
824.86	3089.7	
825.03	3440.6	
825.2	4463.9	
825.37	5270.1	
825.55	3038.5	
825.72	3304.7	
825.89	5723.4	
826.06	5329.5	
826.24	3308.2	
826.41	3295.2	
826.58	5338.4	
826.75	4717.8	
826.92	2745.6	
827.1	2915.6	
827.27	7022.5	
827.44	5681.7	
827.61	3162.1	
827.79	3737.5	
827.96	4342.4	
828.13	4458.4	
828.3	3288.4	
828.47	2790.7	
828.65	4765.6	
828.82	4680.3	
828.99	4084.3	
829.16	3616.7	
829.34	5040.7	
829.51	4819.6	
829.68	3367.5	
829.85	3455.6	
830.02	5341.8	
830.2	5021.6	
830.37	2706.7	
830.54	3956.7	
830.71	5584.1	
830.88	4517.8	
831.05	2693.1	
831.23	3058.3	
831.4	5438.7	
831.57	5950	
831.74	3151.1	
831.91	2831	
832.09	4820.2	
832.26	5010.7	
832.43	3226.9	
832.6	3553.9	
832.77	4751.3	
832.94	5328.1	
833.12	2621.4	
833.29	3125.2	
833.46	4838.7	
833.63	6147.3	
833.8	3454.9	
833.97	3181.9	
834.15	5040.7	
834.32	4864.6	
834.49	3355.3	
834.66	3388.7	
834.83	5134.3	
835	4304.8	
835.17	3146.4	
835.35	3147	
835.52	4973.2	
835.69	4900.1	
835.86	3325.2	
836.03	2694.4	
836.2	5054.4	
836.37	4678.2	
836.55	3190.1	
836.72	3020.1	
836.89	4711.7	
837.06	5038	
837.23	3300	
837.4	3497.2	
837.57	5630.5	
837.75	6068.1	
837.92	2979.8	
838.09	3121.1	
838.26	4667.3	
838.43	5261.2	
838.6	3316.3	
838.77	3044	
838.94	5808.7	
839.11	5632.6	
839.29	3217.4	
839.46	2588.6	
839.63	5076.9	
839.8	4781.3	
839.97	3115.6	
840.14	3096.5	
840.31	4868	
840.48	5041.4	
840.65	2654.9	
840.82	3103.4	
841	4963.6	
841.17	4926	
841.34	2891.7	
841.51	2970.9	
841.68	4911	
841.85	4770.4	
842.02	3052.8	
842.19	2572.2	
842.36	4874.2	
842.53	4882.4	
842.7	2745	
842.87	3454.9	
843.05	6083.8	
843.22	4688.5	
843.39	2727.9	
843.56	3017.3	
843.73	4672.1	
843.9	5102.9	
844.07	4433.9	
844.24	3807.9	
844.41	6848.4	
844.58	4394.3	
844.75	2802.3	
844.92	3046	
845.09	4966.3	
845.26	4952.7	
845.43	2865.1	
845.6	3061	
845.77	5010	
845.94	4764.9	
846.12	3158.7	
846.29	3297.2	
846.46	5155.4	
846.63	4966.3	
846.8	2900.6	
846.97	3406.5	
847.14	5343.2	
847.31	4937.7	
847.48	3216	
847.65	3487.7	
847.82	5152	
847.99	5102.2	
848.16	3753.2	
848.33	3467.2	
848.5	4632.5	
848.67	5305.6	
848.84	2816.6	
849.01	2988	
849.18	4597.7	
849.35	4356	
849.52	3510.9	
849.69	2794.8	
849.86	5146.5	
850.03	5237.3	
850.2	2890.4	
850.37	3405.8	
850.54	5230.5	
850.71	4712.4	
850.88	3444.7	
851.05	2826.9	
851.22	4883	
851.39	5354.8	
851.56	2656.9	
851.73	3260.4	
851.9	4429.8	
852.07	5081.7	
852.24	3163.4	
852.41	2902.7	
852.58	4920.6	
852.75	4500.8	
852.92	3201	
853.09	2852.8	
853.26	4624.3	
853.43	5313.8	
853.6	2846	
853.77	2506	
853.94	5389.6	
854.11	4389.5	
854.28	4052.9	
854.44	3072.6	
854.61	5734.3	
854.78	5259.2	
854.95	2843.3	
855.12	3528.7	
855.29	4139.6	
855.46	5598.5	
855.63	2866.5	
855.8	3793.5	
855.97	4603.8	
856.14	5271.5	
856.31	3973.1	
856.48	3089	
856.65	4636.6	
856.82	4429.8	
856.99	2757.9	
857.16	3091.1	
857.33	5863.3	
857.49	4771.8	
857.66	3061	
857.83	3213.3	
858	4716.5	
858.17	4840.7	
858.34	2769.5	
858.51	2875.3	
858.68	5484.5	
858.85	5514.5	
859.02	3292.5	
859.19	3459.7	
859.36	4425	
859.52	4454.3	
859.69	2882.9	
859.86	3310.9	
860.03	4496	
860.2	5405.3	
860.37	2643.9	
860.54	2897.9	
860.71	5106.3	
860.88	5456.5	
861.05	3134.1	
861.21	3640.6	
861.38	5361.6	
861.55	4248.9	
861.72	2619.4	
861.89	3181.9	
862.06	5170.4	
862.23	5483.8	
862.4	2778.4	
862.56	2920.4	
862.73	5039.4	
862.9	4812.7	
863.07	3297.2	
863.24	2667.8	
863.41	4425	
863.58	4502.8	
863.75	2914.9	
863.91	3308.2	
864.08	5335	
864.25	5099.4	
864.42	3538.2	
864.59	3921.9	
864.76	5649	
864.93	4460.5	
865.09	2799.6	
865.26	3041.9	
865.43	5288.5	
865.6	5632.6	
865.77	2566.8	
865.94	2855.6	
866.1	5311.7	
866.27	5094	
866.44	4149.9	
866.61	2768.2	
866.78	4688.5	
866.95	5053	
867.11	2767.5	
867.28	2626.9	
867.45	5244.8	
867.62	4436.6	
867.79	3239.2	
867.96	2824.8	
868.12	4390.8	
868.29	5104.2	
868.46	2881.5	
868.63	3705.5	
868.8	5214.8	
868.97	5068	
869.13	2978.4	
869.3	2960.7	
869.47	5029.8	
869.64	5215.5	
869.81	2871.3	
869.97	2885.6	
870.14	4960.2	
870.31	5425.8	
870.48	2775.7	
870.65	3560.7	
870.81	4664.6	
870.98	4686.4	
871.15	3209.8	
871.32	2952.5	
871.48	4997.7	
871.65	5452.4	
871.82	2804.4	
871.99	3090.4	
872.16	5866.1	
872.32	5306.3	
872.49	2938.8	
872.66	2861	
872.83	5131.5	
872.99	4587.4	
873.16	3267.9	
873.33	2833	
873.5	4860.5	
873.67	4844.1	
873.83	3031.7	
874	3742.3	
874.17	4972.5	
874.34	5674.9	
874.5	3585.3	
874.67	3439.2	
874.84	5364.3	
875.01	4332.1	
875.17	3876.1	
875.34	2874.7	
875.51	4868.7	
875.68	5800.5	
875.84	3406.5	
876.01	4078.2	
876.18	5107	
876.34	4982	
876.51	2860.3	
876.68	2826.2	
876.85	4648.9	
877.01	5327.4	
877.18	3921.9	
877.35	2790	
877.52	4924.7	
877.68	4364.2	
877.85	2830.3	
878.02	2852.1	
878.18	4737	
878.35	4596.3	
878.52	2328.5	
878.69	3134.8	
878.85	5235.3	
879.02	5062.6	
879.19	3956.7	
879.35	3048.1	
879.52	5069.4	
879.69	5156.8	
879.86	2547	
880.02	3170.9	
880.19	4754.7	
880.36	5648.3	
880.52	3224.2	
880.69	3378.5	
880.86	5165	
881.02	5179.3	
881.19	3121.8	
881.36	3074	
881.52	5033.9	
881.69	4584	
881.86	3065.8	
882.02	2968.2	
882.19	5328.8	
882.36	6070.9	
882.52	2935.4	
882.69	3895.9	
882.86	4866.7	
883.02	4928.8	
883.19	3426.9	
883.36	3166.8	
883.52	5211.4	
883.69	5734.3	
883.86	2876.7	
884.02	2594.1	
884.19	5107.6	
884.36	4807.9	
884.52	3186	
884.69	3051.5	
884.86	4629.1	
885.02	5525.4	
885.19	3140.2	
885.36	3269.9	
885.52	4743.8	
885.69	4951.3	
885.86	4029	
886.02	3554.6	
886.19	5129.5	
886.35	4686.4	
886.52	3196.2	
886.69	3865.9	
886.85	4459.1	
887.02	5387.5	
887.19	5387.5	
887.35	5387.5	
887.52	5387.5	
887.68	5387.5	
887.85	5387.5	
888.02	5387.5	
888.18	5387.5	
888.35	5387.5	
888.51	5387.5	
888.68	5387.5	
888.85	5387.5	
889.01	5387.5	
889.18	5387.5	
889.35	5387.5	
889.51	5387.5	
889.68	5387.5	
889.84	5387.5	
890.01	5387.5	
890.17	5387.5	
890.34	5387.5	
890.51	5387.5	
890.67	5387.5	
890.84	5387.5	
891	5387.5	
891.17	5387.5	
891.34	5387.5	
891.5	5387.5	
891.67	5387.5	
891.83	5387.5	
892	5387.5	
892.16	5387.5	
892.33	5387.5	
892.5	5387.5	
892.66	5387.5	
892.83	5387.5	
892.99	5387.5	
893.16	5387.5	
893.32	5387.5	
893.49	5387.5	
893.65	5387.5	
893.82	5387.5	
893.99	5387.5	
894.15	5387.5	
894.32	5387.5	
894.48	5387.5	
894.65	5387.5	
894.81	5387.5	
894.98	5387.5	
895.14	5387.5	
895.31	5387.5	
895.47	5387.5	
895.64	5387.5	
895.81	5387.5	
895.97	5387.5	
896.14	5387.5	
896.3	5387.5	
896.47	5387.5	
896.63	5387.5	
896.8	5387.5	
896.96	5387.5	
897.13	5387.5	
897.29	5387.5	
897.46	5387.5	
897.62	5387.5	
897.79	5387.5	
897.95	5387.5	
898.12	5387.5	
898.28	5387.5	
898.45	5387.5	
898.61	5387.5	
898.78	5387.5	
898.94	5387.5	
899.11	5387.5	
899.27	5387.5	
899.44	5387.5	
899.6	5387.5	
899.77	5387.5	
899.93	5387.5	
900.1	5387.5	
900.26	5387.5	
900.43	5387.5	
900.59	5387.5	
900.76	5387.5	
900.92	5387.5	
901.09	5387.5	
901.25	5387.5	
901.42	5387.5	
901.58	5387.5	
901.75	5387.5	
901.91	5387.5	
902.07	5387.5	
902.24	5387.5	
902.4	5387.5	
902.57	5387.5	
902.73	5387.5	
902.9	5387.5	
903.06	5387.5	
903.23	5387.5	
903.39	5387.5	
903.56	5387.5	
903.72	5387.5	
903.88	5387.5	
904.05	5387.5	
904.21	5387.5	
904.38	5387.5	
904.54	5387.5	
904.71	5387.5	
904.87	5387.5	
905.03	5387.5	
905.2	5387.5	
905.36	5387.5	
905.53	5387.5	
905.69	5387.5	
905.86	5387.5	
906.02	5387.5	
906.18	5387.5	
906.35	5387.5	
906.51	5387.5	
906.68	5387.5	
906.84	5387.5	
907.01	5387.5	
907.17	5387.5	
907.33	5387.5	
907.5	5387.5	
907.66	5387.5	
907.83	5387.5	
907.99	5387.5	
908.15	5387.5	
908.32	5387.5	
908.48	5387.5	
908.65	5387.5	
908.81	5387.5	
908.97	5387.5	
909.14	5387.5	
909.3	5387.5	
909.47	5387.5	
909.63	5387.5	
909.79	5387.5	
909.96	5387.5	
910.12	5387.5	
910.28	5387.5	
910.45	5387.5	
910.61	5387.5	
910.78	5387.5	
910.94	5387.5	
911.1	5387.5	
911.27	5387.5	
911.43	5387.5	
911.59	5387.5	
911.76	5387.5	
911.92	5387.5	
912.08	5387.5	
912.25	5387.5	
912.41	5387.5	
912.57	5387.5	
912.74	5387.5	
912.9	5387.5	
913.07	5387.5	
913.23	5387.5	
913.39	5387.5	
913.56	5387.5	
913.72	5387.5	
913.88	5387.5	
914.05	5387.5	
914.21	5387.5	
914.37	5387.5	
914.54	5387.5	
914.7	5387.5	
914.86	5387.5	
915.03	5387.5	
915.19	5387.5	
