Wavelength	Intensities	
nm	a.u.	
179.22	1641.4	
179.44	1643.2	
179.65	1639.7	
179.86	1646.6	
180.08	1677.3	
180.29	3775.1	
180.51	2942.9	
180.72	4851.6	
180.94	5378.6	
181.15	2650.8	
181.37	2598.9	
181.58	4706.9	
181.79	4825	
182.01	2719	
182.22	2907.4	
182.44	4907.6	
182.65	4259.8	
182.87	3506.8	
183.08	3123.8	
183.29	5133.6	
183.51	4303.5	
183.72	2876.7	
183.94	3983.3	
184.15	4599.7	
184.37	4541.7	
184.58	2572.2	
184.79	3312.2	
185.01	4399	
185.22	4928.1	
185.44	3491.1	
185.65	3037.1	
185.86	4652.3	
186.08	4255.7	
186.29	2519.7	
186.51	2650.8	
186.72	4346.5	
186.94	4970.4	
187.15	3099.9	
187.36	3115.6	
187.58	6077.7	
187.79	4731.5	
188.01	3192.1	
188.22	4752	
188.43	5412.8	
188.65	4912.4	
188.86	2755.9	
189.08	3130	
189.29	4491.2	
189.5	4466.6	
189.72	2912.2	
189.93	2976.4	
190.15	4989.5	
190.36	5770.5	
190.57	3137.5	
190.79	3066.5	
191	5006.6	
191.22	5064.6	
191.43	3233.7	
191.64	2732.7	
191.86	5171.8	
192.07	4985.4	
192.29	2869.2	
192.5	2897.9	
192.71	5035.3	
192.93	4429.1	
193.14	2928.6	
193.35	2999.6	
193.57	4448.2	
193.78	5007.3	
194	2419.3	
194.21	2887.6	
194.42	4268.6	
194.64	4636.6	
194.85	3134.8	
195.07	3554.6	
195.28	4562.9	
195.49	4136.2	
195.71	3721.8	
195.92	2725.8	
196.13	4801.8	
196.35	4807.9	
196.56	3921.9	
196.78	3108.8	
196.99	5709.7	
197.2	5314.5	
197.42	3439.9	
197.63	3109.5	
197.84	4192.2	
198.06	4741.7	
198.27	2880.1	
198.48	3668.6	
198.7	4448.9	
198.91	4605.9	
199.13	3142.9	
199.34	3121.8	
199.55	5011.4	
199.77	4063.2	
199.98	2809.8	
200.19	3198.2	
200.41	4513	
200.62	4358.1	
200.83	3218.7	
201.05	3416	
201.26	4609.3	
201.47	4432.5	
201.69	2832.3	
201.9	2820.1	
202.11	4597.7	
202.33	5264	
202.54	2981.2	
202.76	3303.4	
202.97	4661.9	
203.18	4717.8	
203.4	3225.6	
203.61	3295.9	
203.82	4671.4	
204.04	4347.2	
204.25	3147.7	
204.46	3123.8	
204.68	4589.5	
204.89	4776.5	
205.1	3087	
205.32	2708.8	
205.53	4820.2	
205.74	4971.1	
205.96	2366.1	
206.17	3208.5	
206.38	4880.3	
206.6	4964.3	
206.81	3536.2	
207.02	2978.4	
207.24	4769.7	
207.45	5098.1	
207.66	3024.8	
207.88	2654.2	
208.09	4719.9	
208.3	4603.8	
208.52	2843.3	
208.73	3036.5	
208.94	4635.2	
209.15	5110.4	
209.37	3029.6	
209.58	3156.6	
209.79	4940.4	
210.01	4508.3	
210.22	2512.2	
210.43	2596.8	
210.65	4615.4	
210.86	4868	
211.07	3023.5	
211.29	2803.7	
211.5	4766.3	
211.71	4558.8	
211.93	2835.1	
212.14	2799.6	
212.35	4586.1	
212.56	4631.8	
212.78	3089	
212.99	2630.3	
213.2	5197.7	
213.42	4455	
213.63	2901.3	
213.84	3026.2	
214.06	4198.3	
214.27	4260.5	
214.48	3048.7	
214.69	3210.5	
214.91	5089.2	
215.12	5085.1	
215.33	3220.1	
215.55	3407.8	
215.76	5461.9	
215.97	4823	
216.18	3023.5	
216.4	3088.3	
216.61	4372.4	
216.82	4960.9	
217.04	2871.9	
217.25	2962.7	
217.46	5052.3	
217.67	4891.9	
217.89	2603.7	
218.1	2686.9	
218.31	4657.8	
218.53	4774.5	
218.74	2957.9	
218.95	2856.9	
219.16	4602.5	
219.38	5255.1	
219.59	2841.9	
219.8	3295.9	
220.01	5606.7	
220.23	4639.3	
220.44	3558	
220.65	2781.1	
220.87	4674.8	
221.08	5067.4	
221.29	2719.7	
221.5	3348.4	
221.72	5896.1	
221.93	4386.1	
222.14	3185.3	
222.35	3667.9	
222.57	4647.5	
222.78	4935.6	
222.99	3082.2	
223.2	3201	
223.42	4827.1	
223.63	4885.1	
223.84	2411.1	
224.05	2446	
224.27	5583.4	
224.48	5171.1	
224.69	3602.4	
224.9	3132	
225.12	4743.1	
225.33	4564.2	
225.54	2635.1	
225.75	2840.5	
225.97	4326.7	
226.18	4572.4	
226.39	3016.7	
226.6	2854.2	
226.82	4456.4	
227.03	4302.8	
227.24	3059.7	
227.45	2714.9	
227.67	4942.4	
227.88	5152.7	
228.09	3580.5	
228.3	3435.8	
228.52	4887.8	
228.73	4614.8	
228.94	2987.3	
229.15	2677.4	
229.36	4582.7	
229.58	4585.4	
229.79	3004.4	
230	3381.9	
230.21	5405.3	
230.43	4652.3	
230.64	3115.6	
230.85	3239.2	
231.06	4890.5	
231.28	4923.3	
231.49	2708.8	
231.7	3106.1	
231.91	4827.1	
232.12	4574.5	
232.34	2794.1	
232.55	3051.5	
232.76	4967	
232.97	4691.9	
233.18	2823.5	
233.4	3112.9	
233.61	4764.3	
233.82	4461.8	
234.03	2899.2	
234.25	2912.2	
234.46	6003.3	
234.67	4663.2	
234.88	3245.3	
235.09	2865.1	
235.31	4782.7	
235.52	4537.6	
235.73	3087	
235.94	2702	
236.15	4441.4	
236.37	5407.3	
236.58	2766.1	
236.79	3057.6	
237	4823.6	
237.21	4250.2	
237.43	3208.5	
237.64	2627.5	
237.85	7356.3	
238.06	4317.1	
238.27	3207.1	
238.48	2704.7	
238.7	4859.1	
238.91	4532.8	
239.12	2993.4	
239.33	3135.4	
239.54	4338.3	
239.76	4508.9	
239.97	3061.7	
240.18	3031.7	
240.39	5443.5	
240.6	4763.6	
240.82	3203.7	
241.03	2695.8	
241.24	4577.2	
241.45	5181.4	
241.66	2834.4	
241.87	3260.4	
242.09	5132.2	
242.3	5322	
242.51	3248.1	
242.72	2993.4	
242.93	4869.4	
243.14	4578.6	
243.36	3420.1	
243.57	3676.8	
243.78	5218.9	
243.99	4805.9	
244.2	3035.1	
244.41	2781.8	
244.63	4270	
244.84	4769	
245.05	3196.2	
245.26	3027.6	
245.47	4838	
245.68	4891.9	
245.9	3830.4	
246.11	3173.7	
246.32	4424.3	
246.53	4734.9	
246.74	4655	
246.95	2642.6	
247.16	4349.2	
247.38	4655.7	
247.59	2644.6	
247.8	3037.1	
248.01	4331.5	
248.22	4610	
248.43	2807.8	
248.64	2973	
248.86	4276.2	
249.07	4450.2	
249.28	2757.9	
249.49	3141.6	
249.7	4949.3	
249.91	5012.7	
250.12	2645.3	
250.34	2721.8	
250.55	4664.6	
250.76	4668.7	
250.97	3097.9	
251.18	3134.1	
251.39	4983.4	
251.6	4725.3	
251.81	3155.9	
252.03	3141.6	
252.24	4367.6	
252.45	4875.5	
252.66	2687.6	
252.87	3297.2	
253.08	4601.8	
253.29	5679.7	
253.5	2709.5	
253.72	3568.2	
253.93	4571.7	
254.14	5211.4	
254.35	2885.6	
254.56	2957.9	
254.77	4702.1	
254.98	4319.8	
255.19	2899.2	
255.41	3544.4	
255.62	4726	
255.83	5032.5	
256.04	3214.6	
256.25	3103.4	
256.46	5432.6	
256.67	4430.4	
256.88	3108.8	
257.09	3421.5	
257.31	4291.9	
257.52	4343.1	
257.73	3820.8	
257.94	2899.2	
258.15	4532.8	
258.36	4590.9	
258.57	3556	
258.78	2405	
258.99	4973.8	
259.2	4455.7	
259.41	2909.5	
259.63	3021.4	
259.84	5151.3	
260.05	5449.6	
260.26	3603.1	
260.47	2856.9	
260.68	5012.7	
260.89	4520.5	
261.1	3399.6	
261.31	2820.1	
261.52	5054.4	
261.73	5268.7	
261.95	3657.7	
262.16	3240.6	
262.37	5063.3	
262.58	5162.9	
262.79	3633.8	
263	2975.7	
263.21	4714.4	
263.42	4212	
263.63	3244	
263.84	2953.2	
264.05	4998.4	
264.26	5182.7	
264.47	3535.5	
264.69	3141.6	
264.9	5168.4	
265.11	4698	
265.32	2868.5	
265.53	2871.3	
265.74	4691.2	
265.95	4187.4	
266.16	3093.8	
266.37	3358	
266.58	4691.2	
266.79	4442.7	
267	2940.9	
267.21	2729.3	
267.42	4295.3	
267.63	4593.6	
267.84	3053.5	
268.06	2680.8	
268.27	4978.6	
268.48	5096.7	
268.69	2932.7	
268.9	3404.4	
269.11	5070.1	
269.32	4193.6	
269.53	3039.9	
269.74	2781.1	
269.95	4736.3	
270.16	4177.2	
270.37	3053.5	
270.58	3446	
270.79	4543.1	
271	4939	
271.21	3180.5	
271.42	3082.2	
271.63	4797.7	
271.84	4318.5	
272.05	2540.8	
272.26	2809.8	
272.47	4603.2	
272.68	4719.9	
272.89	3009.8	
273.11	3336.8	
273.32	4438.6	
273.53	5168.4	
273.74	3201.7	
273.95	3136.1	
274.16	4902.8	
274.37	4605.9	
274.58	3346.4	
274.79	2724.5	
275	4770.4	
275.21	4952	
275.42	3885.7	
275.63	3365.5	
275.84	4792.9	
276.05	5805.3	
276.26	3186.6	
276.47	2976.4	
276.68	4524.6	
276.89	5279.7	
277.1	3437.2	
277.31	2734.7	
277.52	4745.8	
277.73	4956.8	
277.94	2693.1	
278.15	2957.3	
278.36	4771.1	
278.57	4394.9	
278.78	2975.7	
278.99	3258.3	
279.2	4407.2	
279.41	4330.1	
279.62	3712.3	
279.83	2768.9	
280.04	5454.4	
280.25	4349.9	
280.46	3652.9	
280.67	3044.6	
280.88	4406.5	
281.09	5008.6	
281.3	3118.4	
281.51	3862.5	
281.72	4372.4	
281.93	4907.6	
282.14	2848	
282.35	3048.7	
282.56	4997	
282.77	4944.5	
282.98	3009.8	
283.19	3497.9	
283.4	5811.5	
283.61	4548.5	
283.82	2749.7	
284.03	3622.2	
284.24	4773.1	
284.45	5029.1	
284.66	3749.8	
284.87	3467.9	
285.08	5014.1	
285.29	5111	
285.5	2677.4	
285.71	2997.5	
285.92	4986.8	
286.12	5464	
286.33	3652.2	
286.54	3018.7	
286.75	4951.3	
286.96	4497.3	
287.17	2827.6	
287.38	3552.5	
287.59	4418.8	
287.8	4371.7	
288.01	2930.6	
288.22	3302	
288.43	4849.6	
288.64	4177.9	
288.85	3447.4	
289.06	3341.6	
289.27	4984.1	
289.48	5164.3	
289.69	3672.7	
289.9	3329.3	
290.11	5085.8	
290.32	4432.5	
290.53	3454.9	
290.74	3243.3	
290.94	4956.1	
291.15	4937	
291.36	2941.6	
291.57	3325.9	
291.78	4494.6	
291.99	4158.1	
292.2	2821.4	
292.41	3271.3	
292.62	5047.6	
292.83	4854.4	
293.04	3833.1	
293.25	2845.3	
293.46	4516.5	
293.67	4961.5	
293.88	2829.6	
294.09	2823.5	
294.29	4356	
294.5	4743.8	
294.71	3046.7	
294.92	2945	
295.13	4502.1	
295.34	5395.7	
295.55	2671.9	
295.76	2625.5	
295.97	4915.1	
296.18	5395.7	
296.39	2695.1	
296.6	2887	
296.81	4653.7	
297.01	4912.4	
297.22	2980.5	
297.43	2901.3	
297.64	4481.6	
297.85	4307.6	
298.06	2449.4	
298.27	2608.4	
298.48	4547.9	
298.69	4382.7	
298.9	3071.3	
299.11	2842.6	
299.31	4319.8	
299.52	4342.4	
299.73	3262.4	
299.94	3243.3	
300.15	4620.9	
300.36	4408.6	
300.57	3236.5	
300.78	3182.5	
300.99	4499.4	
301.2	4659.1	
301.4	2940.9	
301.61	3076.7	
301.82	4889.9	
302.03	4888.5	
302.24	3424.9	
302.45	2735.4	
302.66	4831.2	
302.87	4990.2	
303.08	2921.8	
303.29	3740.3	
303.49	4470.7	
303.7	4589.5	
303.91	2650.8	
304.12	3602.4	
304.33	4244.1	
304.54	4734.2	
304.75	2914.3	
304.96	2794.1	
305.16	4784.7	
305.37	5289.2	
305.58	2606.4	
305.79	2624.1	
306	4825	
306.21	4170.3	
306.42	2910.2	
306.63	4158.1	
306.83	4472.8	
307.04	4876.9	
307.25	3136.8	
307.46	3072.6	
307.67	4144.4	
307.88	4851.6	
308.09	2883.5	
308.29	2960.7	
308.5	4668.7	
308.71	5030.5	
308.92	3061	
309.13	2784.6	
309.34	4647.5	
309.55	4547.2	
309.75	3476.8	
309.96	3217.4	
310.17	4898.1	
310.38	4431.8	
310.59	3371.6	
310.8	2734	
311.01	5331.5	
311.21	4511	
311.42	2799.6	
311.63	2884.2	
311.84	4496	
312.05	4667.3	
312.26	3215.3	
312.46	3477.5	
312.67	4474.8	
312.88	4227	
313.09	2824.8	
313.3	2732.7	
313.51	5137.7	
313.71	5389.6	
313.92	2818	
314.13	2892.4	
314.34	4763.6	
314.55	4583.4	
314.76	3472	
314.96	3110.9	
315.17	4785.4	
315.38	4795.7	
315.59	2831	
315.8	2677.4	
316.01	5108.3	
316.21	5269.4	
316.42	2787.3	
316.63	3100.6	
316.84	4502.8	
317.05	5080.3	
317.26	3230.3	
317.46	2934.7	
317.67	4587.4	
317.88	4857.8	
318.09	3409.9	
318.3	2669.9	
318.5	4459.8	
318.71	4790.2	
318.92	4233.2	
319.13	3166.2	
319.34	4898.1	
319.54	5020.9	
319.75	2626.2	
319.96	2547.7	
320.17	4829.1	
320.38	5044.8	
320.58	2571.6	
320.79	2991.4	
321	5076.9	
321.21	5057.8	
321.42	3047.4	
321.62	2626.9	
321.83	4375.1	
322.04	4629.8	
322.25	2944.3	
322.46	2823.5	
322.66	4679.6	
322.87	4901.5	
323.08	3357.3	
323.29	2746.3	
323.5	5403.2	
323.7	4252.9	
323.91	3622.2	
324.12	3335.5	
324.33	4733.5	
324.53	4861.9	
324.74	3238.5	
324.95	3338.9	
325.16	4245.4	
325.37	4472.8	
325.57	2837.8	
325.78	2827.6	
325.99	4719.9	
326.2	4274.1	
326.4	3854.3	
326.61	2677.4	
326.82	4603.8	
327.03	4690.5	
327.24	3792.2	
327.44	3582.6	
327.65	4858.5	
327.86	4037.2	
328.07	3239.2	
328.27	2742.9	
328.48	5106.3	
328.69	4347.2	
328.9	3817.4	
329.1	2986.6	
329.31	4567.7	
329.52	5112.4	
329.73	2863.7	
329.93	3087.7	
330.14	4674.1	
330.35	4755.4	
330.56	4285	
330.76	3375.1	
330.97	4463.2	
331.18	4687.1	
331.39	3070.6	
331.59	2561.3	
331.8	5000.5	
332.01	5149.3	
332.22	2930	
332.42	3199.6	
332.63	4678.9	
332.84	4369	
333.05	3100.6	
333.25	2887.6	
333.46	4396.3	
333.67	4618.2	
333.88	2958.6	
334.08	3123.8	
334.29	5847.6	
334.5	5014.8	
334.7	2778.4	
334.91	3862.5	
335.12	4298.7	
335.33	4868	
335.53	3125.9	
335.74	4248.9	
335.95	4524	
336.16	4287.8	
336.36	3051.5	
336.57	3424.9	
336.78	4292.5	
336.98	4991.6	
337.19	3675.4	
337.4	3014.6	
337.61	5425.8	
337.81	4293.2	
338.02	2897.9	
338.23	3548.4	
338.43	5145.2	
338.64	4445.5	
338.85	2848.7	
339.05	3579.2	
339.26	5251	
339.47	4216.1	
339.68	2816	
339.88	3969	
340.09	4807.3	
340.3	4941.1	
340.5	3223.5	
340.71	2531.3	
340.92	4346.5	
341.13	5096.7	
341.33	2781.8	
341.54	3249.4	
341.75	4734.2	
341.95	4456.4	
342.16	3168.9	
342.37	3343.7	
342.57	4326	
342.78	4556.7	
342.99	3407.8	
343.19	2592	
343.4	4889.9	
343.61	4758.8	
343.81	2983.9	
344.02	2748.4	
344.23	4863.9	
344.43	5035.3	
344.64	3422.8	
344.85	3300	
345.06	4782	
345.26	5002.5	
345.47	3194.8	
345.68	3678.8	
345.88	4225.6	
346.09	4911.7	
346.3	3263.8	
346.5	2557.9	
346.71	4573.8	
346.92	4375.1	
347.12	2667.8	
347.33	3163.4	
347.54	4959.5	
347.74	5180.7	
347.95	3163.4	
348.16	2493.1	
348.36	4426.3	
348.57	4308.9	
348.78	3231.7	
348.98	3331.4	
349.19	4629.1	
349.39	4180.6	
349.6	2673.3	
349.81	2879.4	
350.01	4808.6	
350.22	4446.1	
350.43	3119.1	
350.63	3620.1	
350.84	4599.7	
351.05	4430.4	
351.25	2824.1	
351.46	2687.6	
351.67	4954	
351.87	4323.9	
352.08	2996.2	
352.29	3392.1	
352.49	4987.5	
352.7	4734.9	
352.9	2790.7	
353.11	3297.9	
353.32	5289.2	
353.52	4527.4	
353.73	2801.6	
353.94	3304.1	
354.14	4777.2	
354.35	4658.4	
354.55	2838.5	
354.76	3065.1	
354.97	4786.1	
355.17	4548.5	
355.38	2705.4	
355.59	3564.8	
355.79	4351.9	
356	4580.6	
356.2	3033	
356.41	2732.7	
356.62	4281.6	
356.82	4536.9	
357.03	3278.8	
357.24	2953.9	
357.44	4377.9	
357.65	4470.7	
357.85	3781.2	
358.06	3085.6	
358.27	4194.2	
358.47	4326.7	
358.68	2746.3	
358.88	3269.9	
359.09	4786.8	
359.3	4907.6	
359.5	3695.2	
359.71	3318.4	
359.91	5231.9	
360.12	4730.1	
360.33	3274.7	
360.53	3558.7	
360.74	4372.4	
360.94	4446.8	
361.15	3398.9	
361.36	2881.5	
361.56	4992.3	
361.77	4612	
361.97	3732.1	
362.18	3061	
362.38	4960.9	
362.59	4322.6	
362.8	2847.4	
363	2740.2	
363.21	4095.3	
363.41	4595	
363.62	3210.5	
363.83	3833.1	
364.03	4712.4	
364.24	5245.5	
364.44	3971	
364.65	3932.1	
364.85	4567.7	
365.06	4349.9	
365.27	2983.9	
365.47	2985.3	
365.68	5205.9	
365.88	4460.5	
366.09	3201.7	
366.29	2987.3	
366.5	4685.8	
366.71	4881.7	
366.91	3889.1	
367.12	3329.3	
367.32	5399.1	
367.53	4812.7	
367.73	3375.7	
367.94	3994.2	
368.14	4865.3	
368.35	5388.9	
368.56	3281.5	
368.76	2876.7	
368.97	4941.7	
369.17	6012.2	
369.38	2936.1	
369.58	3108.1	
369.79	4282.3	
369.99	5233.9	
370.2	3856.3	
370.4	3155.2	
370.61	4671.4	
370.82	5579.3	
371.02	3159.3	
371.23	2757.9	
371.43	4274.1	
371.64	5177.3	
371.84	3206.4	
372.05	3904.8	
372.25	5867.4	
372.46	4876.2	
372.66	3211.2	
372.87	3085.6	
373.07	4950.6	
373.28	6090.7	
373.48	3812.6	
373.69	3598.3	
373.9	4619.5	
374.1	4569.7	
374.31	3808.5	
374.51	3465.2	
374.72	5127.4	
374.92	4418.8	
375.13	3874.8	
375.33	3401.7	
375.54	4841.4	
375.74	4521.9	
375.95	3474	
376.15	4201.7	
376.36	4909.7	
376.56	4751.3	
376.77	3460.4	
376.97	3762.8	
377.18	5646.2	
377.38	4980	
377.59	3912.3	
377.79	3111.5	
378	4794.3	
378.2	5009.3	
378.41	3218.7	
378.61	3081.5	
378.82	5150.6	
379.02	4539.7	
379.23	3325.9	
379.43	3979.9	
379.64	5297.4	
379.84	4971.1	
380.05	3213.3	
380.25	3093.1	
380.46	4956.1	
380.66	4681	
380.87	4074.8	
381.07	4290.5	
381.28	5416.9	
381.48	4979.3	
381.69	3234.4	
381.89	3207.8	
382.1	4273.4	
382.3	5029.1	
382.51	3978.5	
382.71	4545.1	
382.91	4983.4	
383.12	5326.8	
383.32	3439.9	
383.53	3552.5	
383.73	4870.8	
383.94	4746.5	
384.14	3604.4	
384.35	2992.8	
384.55	4691.9	
384.76	4981.3	
384.96	3492.5	
385.17	3691.1	
385.37	5051.7	
385.58	4511.7	
385.78	3627	
385.98	2916.3	
386.19	4653.7	
386.39	4892.6	
386.6	3288.4	
386.8	3442.6	
387.01	5009.3	
387.21	5038	
387.42	3704.8	
387.62	4024.9	
387.83	4637.3	
388.03	4833.2	
388.23	3515	
388.44	3949.8	
388.64	4373.8	
388.85	4373.8	
389.05	3669.3	
389.26	4108.2	
389.46	5683.1	
389.67	5302.9	
389.87	3697.3	
390.07	3758	
390.28	4739.7	
390.48	4441.4	
390.69	3209.2	
390.89	3434.4	
391.1	4656.4	
391.3	5285.8	
391.5	4209.9	
391.71	4588.1	
391.91	5160.9	
392.12	5625.1	
392.32	4284.4	
392.53	3680.9	
392.73	4710.3	
392.93	4804.5	
393.14	3577.1	
393.34	4089.1	
393.55	5085.8	
393.75	4781.3	
393.95	3500	
394.16	3459.7	
394.36	4714.4	
394.57	5128.8	
394.77	3202.3	
394.98	3392.8	
395.18	4639.3	
395.38	4683.7	
395.59	4067.9	
395.79	3298.6	
396	4731.5	
396.2	5068	
396.4	4011.3	
396.61	3894.6	
396.81	5126.1	
397.02	4644.8	
397.22	4074.8	
397.42	4120.5	
397.63	5194.3	
397.83	4708.3	
398.04	3321.8	
398.24	3696.6	
398.44	4989.5	
398.65	4439.3	
398.85	3260.4	
399.05	3322.5	
399.26	4659.1	
399.46	5760.9	
399.67	3568.9	
399.87	3400.3	
400.07	4941.1	
400.28	5128.1	
400.48	3450.1	
400.69	4154.6	
400.89	5230.5	
401.09	5662.6	
401.3	3368.2	
401.5	4169	
401.7	5765.7	
401.91	5866.1	
402.11	3676.8	
402.32	3805.1	
402.52	5350	
402.72	5229.1	
402.93	3990.1	
403.13	3200.3	
403.33	5877.7	
403.54	4954	
403.74	3757.3	
403.94	4341	
404.15	5026.4	
404.35	5808	
404.56	3569.6	
404.76	4769	
404.96	5324	
405.17	5131.5	
405.37	4339.6	
405.57	3880.2	
405.78	5340.4	
405.98	4888.5	
406.18	3562.8	
406.39	4230.4	
406.59	5369.1	
406.79	4943.1	
407	3497.2	
407.2	3492.5	
407.4	5552.7	
407.61	5384.1	
407.81	3491.8	
408.01	4779.3	
408.22	4558.1	
408.42	5980.8	
408.62	4235.9	
408.83	3900	
409.03	5091.3	
409.23	4999.1	
409.44	3966.2	
409.64	4171.7	
409.84	5742.5	
410.05	5633.3	
410.25	4156.7	
410.45	3960.8	
410.66	5329.5	
410.86	7023.9	
411.06	4297.3	
411.27	4176.5	
411.47	6838.2	
411.67	5517.2	
411.88	4339.6	
412.08	4545.1	
412.28	5883.8	
412.49	6229.9	
412.69	4209.9	
412.89	4229.1	
413.09	6193.1	
413.3	6109.8	
413.5	4330.8	
413.7	4055.7	
413.91	5638.1	
414.11	6170.5	
414.31	4234.5	
414.52	4544.4	
414.72	5986.2	
414.92	5866.7	
415.12	4158.7	
415.33	4627	
415.53	6242.2	
415.73	6304.3	
415.94	4853.7	
416.14	4463.2	
416.34	5567.1	
416.55	5360.9	
416.75	5193	
416.95	4762.9	
417.15	6290.7	
417.36	6688	
417.56	5496.7	
417.76	4775.2	
417.97	6543.9	
418.17	6301.6	
418.37	4524	
418.57	4522.6	
418.78	6200.6	
418.98	5936.4	
419.18	5134.3	
419.38	5126.7	
419.59	5926.8	
419.79	5692.7	
419.99	4502.8	
420.2	4719.9	
420.4	6290	
420.6	6326.9	
420.8	4374.5	
421.01	4312.3	
421.21	6191.7	
421.41	6182.1	
421.61	4661.2	
421.82	4546.5	
422.02	5879	
422.22	6496.8	
422.42	5053.7	
422.63	4793.6	
422.83	5913.2	
423.03	6828.6	
423.23	4797.7	
423.44	4144.4	
423.64	5976	
423.84	5720	
424.04	4420.9	
424.25	4256.4	
424.45	6585.6	
424.65	6526.9	
424.85	4108.9	
425.06	4531.5	
425.26	6726.9	
425.46	5885.9	
425.66	4853.7	
425.87	4623.6	
426.07	6411.5	
426.27	6262.7	
426.47	4624.3	
426.67	4276.2	
426.88	6691.4	
427.08	6238.8	
427.28	4882.4	
427.48	4188.8	
427.69	5606	
427.89	5966.4	
428.09	4807.9	
428.29	4242.7	
428.5	6342.6	
428.7	6145.3	
428.9	4200.4	
429.1	4549.9	
429.3	6102.3	
429.51	6320	
429.71	4471.4	
429.91	4958.1	
430.11	6383.5	
430.31	6460.7	
430.52	4613.4	
430.72	4797	
430.92	6677.1	
431.12	6316.6	
431.32	4440.7	
431.53	4714.4	
431.73	5578	
431.93	6727.6	
432.13	4353.3	
432.33	4240.7	
432.54	5961	
432.74	6104.3	
432.94	4281.6	
433.14	4903.5	
433.34	6425.2	
433.55	6026.5	
433.75	4951.3	
433.95	6120	
434.15	6223.8	
434.35	6071.5	
434.56	4444.8	
434.76	4086.4	
434.96	6191	
435.16	6354.8	
435.36	4345.1	
435.56	5167	
435.77	6017.6	
435.97	6152.8	
436.17	5631.2	
436.37	5126.7	
436.57	6032.6	
436.78	5971.2	
436.98	5900.9	
437.18	5512.4	
437.38	6389.7	
437.58	6119.3	
437.78	5658.5	
437.99	4668	
438.19	6554.9	
438.39	7084.6	
438.59	4739.7	
438.79	4360.8	
438.99	6904.4	
439.2	6083.8	
439.4	4346.5	
439.6	4379.2	
439.8	6221	
440	6962.4	
440.2	5074.2	
440.4	5066	
440.61	6599.2	
440.81	6952.9	
441.01	4530.1	
441.21	5179.3	
441.41	6978.8	
441.61	6576.7	
441.81	5423	
442.02	6034	
442.22	7277.8	
442.42	6735.1	
442.62	4709.6	
442.82	4711.7	
443.02	7031.4	
443.22	6447	
443.43	5039.4	
443.63	4664.6	
443.83	6219	
444.03	6228.6	
444.23	5492.7	
444.43	5283.8	
444.63	6513.2	
444.83	7334.5	
445.04	4848.9	
445.24	5666.7	
445.44	6811.5	
445.64	6853.9	
445.84	5396.4	
446.04	5392.3	
446.24	6436.8	
446.44	7077.8	
446.65	4747.9	
446.85	5107	
447.05	6569.2	
447.25	6999.3	
447.45	5101.5	
447.65	4670.1	
447.85	6659.3	
448.05	6307.7	
448.25	5365	
448.46	5207.3	
448.66	6613.6	
448.86	6331	
449.06	4702.8	
449.26	5342.5	
449.46	6818.4	
449.66	6200.6	
449.86	5109.7	
450.06	5033.2	
450.26	6273.6	
450.47	6797.9	
450.67	5223.7	
450.87	5579.3	
451.07	6981.5	
451.27	6647.7	
451.47	4788.8	
451.67	5432.6	
451.87	6468.9	
452.07	7159.7	
452.27	5005.2	
452.47	4937	
452.67	6635.4	
452.88	6934.4	
453.08	4502.8	
453.28	5901.6	
453.48	7548.8	
453.68	6572.6	
453.88	4960.9	
454.08	5037.3	
454.28	6867.5	
454.48	6619	
454.68	5429.8	
454.88	5755.5	
455.08	7029.3	
455.28	6922.1	
455.48	4902.2	
455.68	5407.3	
455.89	7415	
456.09	7092.8	
456.29	5189.6	
456.49	5260.5	
456.69	7333.8	
456.89	6697.5	
457.09	5510.4	
457.29	5840.8	
457.49	6958.3	
457.69	7139.2	
457.89	5539.1	
458.09	5059.2	
458.29	6963.8	
458.49	7378.1	
458.69	5811.5	
458.89	5319.9	
459.09	7603.4	
459.29	7640.3	
459.49	5511.8	
459.69	6062	
459.9	7331	
460.1	7020.4	
460.3	5358.9	
460.5	5345.9	
460.7	7430	
460.9	7030.7	
461.1	5110.4	
461.3	5971.2	
461.5	7804.1	
461.7	7530.4	
461.9	5432.6	
462.1	5754.8	
462.3	7213.6	
462.5	7623.9	
462.7	5489.2	
462.9	5550.7	
463.1	8254.7	
463.3	8187.1	
463.5	5727.5	
463.7	6427.2	
463.9	7447.1	
464.1	7645.1	
464.3	6001.2	
464.5	6046.3	
464.7	7931.1	
464.9	7733.1	
465.1	6946	
465.3	6371.9	
465.5	8079.2	
465.7	8211.7	
465.9	6556.2	
466.1	6284.5	
466.3	8092.9	
466.5	7944.1	
466.7	7032	
466.9	6290	
467.1	8060.8	
467.3	8639	
467.5	7020.4	
467.7	6245.6	
467.9	8817.9	
468.1	9297.8	
468.3	6729.6	
468.5	7152.2	
468.7	7959.8	
468.9	7892.9	
469.1	6483.2	
469.3	7004.1	
469.5	9303.2	
469.7	7774.1	
469.9	6837.5	
470.1	6467.5	
470.3	8187.1	
470.5	8231.5	
470.7	7276.4	
470.9	6469.5	
471.1	7967.3	
471.3	8271.7	
471.5	6310.5	
471.69	7621.2	
471.89	7910.6	
472.09	7524.2	
472.29	6884.6	
472.49	7073.7	
472.69	7653.3	
472.89	8147.5	
473.09	6326.9	
473.29	6318.7	
473.49	7858.7	
473.69	7806.9	
473.89	6946	
474.09	6438.1	
474.29	8727.8	
474.49	8404.2	
474.69	7030.7	
474.89	6548	
475.09	7890.1	
475.29	7884	
475.49	6167.1	
475.69	6342.6	
475.88	9028.8	
476.08	8330.5	
476.28	6114.6	
476.48	6370.5	
476.68	8548.2	
476.88	8307.2	
477.08	6361.7	
477.28	6544.6	
477.48	8025.3	
477.68	8360.5	
477.88	6178.7	
478.08	6425.2	
478.28	8550.3	
478.48	8013.7	
478.67	6434	
478.87	5977.3	
479.07	8498.4	
479.27	8133.8	
479.47	6544.6	
479.67	6606.1	
479.87	8364.6	
480.07	8746.2	
480.27	6115.2	
480.47	7210.2	
480.67	8094.3	
480.87	8621.9	
481.06	6270.2	
481.26	6892.1	
481.46	8133.2	
481.66	8071.7	
481.86	6690	
482.06	7257.3	
482.26	7990.5	
482.46	8607.6	
482.66	6631.3	
482.86	6328.9	
483.05	8341.4	
483.25	7717.4	
483.45	8288.1	
483.65	6631.3	
483.85	7826	
484.05	8079.9	
484.25	6947.4	
484.45	7262.8	
484.65	8590.5	
484.84	8817.9	
485.04	6630	
485.24	6655.2	
485.44	9069.1	
485.64	7783.6	
485.84	6212.9	
486.04	7165.2	
486.24	8147.5	
486.44	8328.4	
486.63	6238.8	
486.83	6746.7	
487.03	8064.9	
487.23	8270.4	
487.43	6234	
487.63	7844.4	
487.83	8399.4	
488.02	8853.4	
488.22	7038.9	
488.42	7415	
488.62	8932.6	
488.82	8183	
489.02	6769.2	
489.22	6828.6	
489.41	8758.5	
489.61	8733.9	
489.81	6644.3	
490.01	6653.2	
490.21	8946.2	
490.41	9389.9	
490.61	6658.6	
490.8	6759.7	
491	8522.3	
491.2	8181.6	
491.4	7235.5	
491.6	6676.4	
491.8	8660.2	
491.99	8611.7	
492.19	6505	
492.39	6642.9	
492.59	8884.1	
492.79	8905.9	
492.99	7187	
493.18	6548.7	
493.38	8979.7	
493.58	9506	
493.78	7175.4	
493.98	6819.7	
494.18	8795.3	
494.37	8490.9	
494.57	7556.3	
494.77	7341.3	
494.97	9082.7	
495.17	9312.8	
495.37	7131.7	
495.56	7388.4	
495.76	9407	
495.96	9274.6	
496.16	8127.7	
496.36	7491.5	
496.55	9533.3	
496.75	9191.3	
496.95	7691.5	
497.15	7738.6	
497.35	9491	
497.54	9507.4	
497.74	7702.4	
497.94	8849.3	
498.14	9937.4	
498.34	9801.6	
498.53	7260	
498.73	7972.7	
498.93	9119.6	
499.13	9532.6	
499.33	7766.6	
499.52	8062.9	
499.72	9690.3	
499.92	9660.3	
500.12	7520.8	
500.32	7874.4	
500.51	9751.1	
500.71	9583.1	
500.91	8473.1	
501.11	8134.5	
501.31	9796.1	
501.5	10089	
501.7	8534.6	
501.9	8038.3	
502.1	9585.2	
502.29	9818	
502.49	8204.8	
502.69	8503.8	
502.89	9766.1	
503.09	9763.3	
503.28	7520.8	
503.48	7651.9	
503.68	9383.1	
503.88	9267.7	
504.07	8264.2	
504.27	7907.9	
504.47	9564	
504.67	9578.3	
504.86	8181.6	
505.06	7961.8	
505.26	9364	
505.46	10433	
505.65	7949.5	
505.85	8026.7	
506.05	9276.6	
506.25	9631.6	
506.44	7404.1	
506.64	7918.1	
506.84	9068.4	
507.04	9559.2	
507.23	7520.1	
507.43	7802.8	
507.63	10305	
507.83	9180.4	
508.02	7883.3	
508.22	7642.3	
508.42	10523	
508.62	9127.1	
508.81	7836.9	
509.01	8146.1	
509.21	8910	
509.4	9224.7	
509.6	7885.4	
509.8	7492.2	
510	9104.6	
510.19	10021	
510.39	7465.5	
510.59	7497.6	
510.79	9073.9	
510.98	10078	
511.18	7712.7	
511.38	7713.3	
511.57	9736.7	
511.77	9478.7	
511.97	8140.7	
512.17	7471.7	
512.36	9656.2	
512.56	9458.2	
512.76	7511.3	
512.95	7226.6	
513.15	9719.7	
513.35	8649.9	
513.55	8041.7	
513.74	7416.4	
513.94	9684.8	
514.14	9225.4	
514.33	8180.3	
514.53	8000.7	
514.73	9348.3	
514.92	9368.1	
515.12	7697.6	
515.32	7656.7	
515.51	9469.1	
515.71	9600.2	
515.91	8676.6	
516.11	7535.8	
516.3	10600	
516.5	9146.2	
516.7	7939.3	
516.89	8391.2	
517.09	9342.8	
517.29	9426.8	
517.48	8147.5	
517.68	7800.7	
517.88	9109.4	
518.07	9512.8	
518.27	8245.1	
518.47	7499	
518.66	9980.4	
518.86	9037	
519.06	7483.3	
519.25	7704.5	
519.45	9303.2	
519.65	10228	
519.84	8127	
520.04	8629.5	
520.24	10490	
520.43	9821.4	
520.63	8118.8	
520.83	7814.4	
521.02	9228.1	
521.22	9728.5	
521.42	8152.3	
521.61	8437.6	
521.81	9226.1	
522.01	9381.7	
522.2	7988.4	
522.4	7746.1	
522.6	9691	
522.79	8933.2	
522.99	7901.7	
523.18	7498.3	
523.38	9654.8	
523.58	9679.4	
523.77	8782.4	
523.97	7537.2	
524.17	10903	
524.36	10357	
524.56	8566	
524.76	8309.3	
524.95	9779.7	
525.15	9605.7	
525.34	8217.1	
525.54	8411.7	
525.74	10210	
525.93	9559.2	
526.13	9255.5	
526.33	8443.1	
526.52	10596	
526.72	10197	
526.91	9318.3	
527.11	8836.3	
527.31	10441	
527.5	10737	
527.7	8800.1	
527.89	8094.3	
528.09	9835.7	
528.29	10221	
528.48	9010.4	
528.68	8660.2	
528.87	10559	
529.07	10534	
529.27	8895.7	
529.46	8656.8	
529.66	10549	
529.85	10905	
530.05	8625.4	
530.25	8996	
530.44	11471	
530.64	10368	
530.83	8845.9	
531.03	8935.3	
531.23	10749	
531.42	10487	
531.62	9276.6	
531.81	8772.8	
532.01	10860	
532.21	10937	
532.4	8786.5	
532.6	9041.1	
532.79	11545	
532.99	10980	
533.18	9291	
533.38	9942.9	
533.58	10766	
533.77	11267	
533.97	9279.3	
534.16	9912.2	
534.36	11443	
534.55	10815	
534.75	9938.1	
534.95	9357.9	
535.14	11548	
535.34	10938	
535.53	9181	
535.73	10629	
535.92	11962	
536.12	10989	
536.31	9409.7	
536.51	10139	
536.71	11213	
536.9	10925	
537.1	9275.3	
537.29	9347.6	
537.49	11500	
537.68	10833	
537.88	9749	
538.07	9078.6	
538.27	10985	
538.46	11718	
538.66	9068.4	
538.86	9405.6	
539.05	11150	
539.25	11323	
539.44	9807	
539.64	9356.5	
539.83	11090	
540.03	11811	
540.22	9405	
540.42	9439.8	
540.61	11243	
540.81	11331	
541	9567.4	
541.2	10097	
541.39	10827	
541.59	11092	
541.78	9840.5	
541.98	9335.3	
542.18	10630	
542.37	10629	
542.57	9501.9	
542.76	9906.7	
542.96	10684	
543.15	11140	
543.35	9523.7	
543.54	9094.3	
543.74	11091	
543.93	10885	
544.13	9422.7	
544.32	10061	
544.52	11155	
544.71	10605	
544.91	8784.4	
545.1	9490.3	
545.3	10563	
545.49	11012	
545.69	8799.4	
545.88	9117.6	
546.08	11737	
546.27	11370	
546.47	9503.3	
546.66	9017.2	
546.86	11068	
547.05	11543	
547.24	9079.3	
547.44	9108	
547.63	10447	
547.83	11209	
548.02	9364.7	
548.22	9522.4	
548.41	10347	
548.61	11327	
548.8	8970.8	
549	8955.1	
549.19	10841	
549.39	11075	
549.58	8787.2	
549.78	9177.6	
549.97	11077	
550.17	10656	
550.36	9712.8	
550.55	10322	
550.75	10548	
550.94	11295	
551.14	8781.7	
551.33	9044.5	
551.53	10192	
551.72	10842	
551.92	9111.4	
552.11	8947.6	
552.31	10891	
552.5	10914	
552.69	10146	
552.89	8662.9	
553.08	10845	
553.28	10477	
553.47	8904.6	
553.67	9717.6	
553.86	11120	
554.06	10093	
554.25	8315.4	
554.44	8792.6	
554.64	11625	
554.83	11392	
555.03	8718.9	
555.22	8914.8	
555.42	10957	
555.61	10783	
555.8	8830.2	
556	9087.5	
556.19	10051	
556.39	10856	
556.58	8914.8	
556.78	8921.6	
556.97	10611	
557.16	10365	
557.36	9711.5	
557.55	8617.9	
557.75	9940.8	
557.94	11273	
558.13	8686.8	
558.33	8546.9	
558.52	11028	
558.72	10209	
558.91	8549.6	
559.1	8782.4	
559.3	10135	
559.49	9728.5	
559.69	8314.8	
559.88	8828.8	
560.07	10507	
560.27	10931	
560.46	9178.3	
560.66	9185.1	
560.85	10384	
561.04	9864.4	
561.24	8561.2	
561.43	8690.2	
561.63	9981.1	
561.82	10227	
562.01	9454.8	
562.21	8887.5	
562.4	10428	
562.59	11148	
562.79	8690.9	
562.98	8555	
563.18	10547	
563.37	11404	
563.56	9085.5	
563.76	8647.9	
563.95	10126	
564.14	10129	
564.34	8897.1	
564.53	8684.1	
564.73	10562	
564.92	10710	
565.11	8978.3	
565.31	8626	
565.5	10989	
565.69	10155	
565.89	8821.3	
566.08	8919.6	
566.27	10893	
566.47	11111	
566.66	9454.8	
566.85	8513.4	
567.05	10660	
567.24	10269	
567.44	8799.4	
567.63	9705.3	
567.82	10941	
568.02	10500	
568.21	8708.6	
568.4	9042.5	
568.6	10628	
568.79	10494	
568.98	8736	
569.18	8753	
569.37	10636	
569.56	11999	
569.76	9032.9	
569.95	9660.3	
570.14	10875	
570.34	10787	
570.53	8882	
570.72	8681.3	
570.91	11284	
571.11	10637	
571.3	9073.9	
571.49	9751.7	
571.69	10673	
571.88	10251	
572.07	9509.4	
572.27	9421.3	
572.46	10333	
572.65	11074	
572.85	8962.6	
573.04	9229.5	
573.23	11265	
573.43	10670	
573.62	8761.9	
573.81	9309.4	
574	10873	
574.2	10644	
574.39	9204.3	
574.58	9171.5	
574.78	11465	
574.97	10995	
575.16	9590	
575.36	9723.1	
575.55	11420	
575.74	11362	
575.93	8913.4	
576.13	9772.2	
576.32	10873	
576.51	11262	
576.71	9325.8	
576.9	10316	
577.09	11527	
577.28	11153	
577.48	9648	
577.67	9042.5	
577.86	10997	
578.05	11189	
578.25	9483.5	
578.44	9523.7	
578.63	10975	
578.83	11850	
579.02	9181.7	
579.21	10136	
579.4	11159	
579.6	11060	
579.79	9682.8	
579.98	11157	
580.17	11543	
580.37	11621	
580.56	9241.8	
580.75	9789.3	
580.94	11718	
581.14	11688	
581.33	10024	
581.52	9341.5	
581.71	11268	
581.91	11901	
582.1	9284.1	
582.29	9516.2	
582.48	11150	
582.68	11141	
582.87	9948.3	
583.06	9718.3	
583.25	11509	
583.45	10980	
583.64	10245	
583.83	10715	
584.02	11189	
584.21	11522	
584.41	10193	
584.6	9657.5	
584.79	11270	
584.98	11751	
585.18	9462.3	
585.37	9338.7	
585.56	11187	
585.75	11537	
585.94	9540.8	
586.14	10032	
586.33	11938	
586.52	11308	
586.71	9828.2	
586.91	9659.6	
587.1	10690	
587.29	11490	
587.48	9494.4	
587.67	9491	
587.87	11311	
588.06	11228	
588.25	10389	
588.44	9802.9	
588.63	11094	
588.83	11417	
589.02	9527.2	
589.21	9318.9	
589.4	10952	
589.59	10916	
589.78	8810.4	
589.98	8891.6	
590.17	10385	
590.36	10750	
590.55	8346.2	
590.74	8826.1	
590.94	11297	
591.13	10325	
591.32	8471.8	
591.51	8197.3	
591.7	10477	
591.89	10130	
592.09	8143.4	
592.28	8665.6	
592.47	9680.7	
592.66	11209	
592.85	8355.7	
593.05	8587.1	
593.24	10295	
593.43	10886	
593.62	8678.6	
593.81	8886.1	
594	10400	
594.19	10464	
594.39	8502.5	
594.58	8449.2	
594.77	10563	
594.96	10828	
595.15	8517.5	
595.34	8922.3	
595.54	10457	
595.73	9897.2	
595.92	8050.6	
596.11	8720.9	
596.3	10576	
596.49	9950.4	
596.68	8512	
596.88	8855.4	
597.07	10505	
597.26	9780.4	
597.45	8194.6	
597.64	8996.7	
597.83	9960	
598.02	10345	
598.22	8288.1	
598.41	8711.4	
598.6	10226	
598.79	9770.9	
598.98	8373.5	
599.17	9016.5	
599.36	10247	
599.55	10908	
599.74	9641.8	
599.94	9540.8	
600.13	10593	
600.32	9785.9	
600.51	8279.9	
600.7	8284.7	
600.89	10983	
601.08	11003	
601.27	8118.8	
601.47	8735.3	
601.66	10532	
601.85	10912	
602.04	8562.6	
602.23	8611	
602.42	9828.9	
602.61	10406	
602.8	8405.5	
602.99	8214.4	
603.18	10093	
603.37	10146	
603.57	8703.9	
603.76	9129.2	
603.95	10767	
604.14	10356	
604.33	8359.8	
604.52	8597.4	
604.71	10303	
604.9	9947	
605.09	8970.8	
605.28	8850.6	
605.47	10691	
605.66	10444	
605.86	8788.5	
606.05	8322.9	
606.24	10652	
606.43	9677.3	
606.62	8626.7	
606.81	9039.7	
607	10498	
607.19	10180	
607.38	8086.1	
607.57	8285.4	
607.76	9835.7	
607.95	9357.9	
608.14	8698.4	
608.33	9065.7	
608.52	9818.6	
608.72	10530	
608.91	8090.8	
609.1	8102.4	
609.29	10057	
609.48	9607	
609.67	8682.7	
609.86	8011	
610.05	9628.9	
610.24	9875.3	
610.43	7950.2	
610.62	7701	
610.81	10668	
611	10557	
611.19	8103.1	
611.38	8532.5	
611.57	10138	
611.76	10886	
611.95	7847.8	
612.14	7798.7	
612.33	9988.6	
612.52	9654.1	
612.71	8251.3	
612.9	7720.8	
613.09	9376.3	
613.28	10985	
613.47	8227.4	
613.66	8758.5	
613.85	10038	
614.04	9649.3	
614.24	8191.9	
614.43	7629.4	
614.62	10099	
614.81	10093	
615	8436.9	
615.19	8575.5	
615.38	9570.2	
615.57	9958.6	
615.76	8496.3	
615.95	9121	
616.14	10232	
616.33	10006	
616.52	8899.8	
616.71	8727.1	
616.9	10095	
617.09	10023	
617.28	8165.9	
617.47	9026.8	
617.66	9566.1	
617.85	9456.2	
618.04	8817.2	
618.22	8458.1	
618.41	9841.9	
618.6	10508	
618.79	8532.5	
618.98	8321.6	
619.17	10721	
619.36	9522.4	
619.55	8513.4	
619.74	8523.6	
619.93	10257	
620.12	9899.2	
620.31	8885.5	
620.5	9056.1	
620.69	10640	
620.88	11074	
621.07	9624.1	
621.26	8905.9	
621.45	10540	
621.64	10701	
621.83	9067.7	
622.02	8375.5	
622.21	10535	
622.4	10365	
622.59	9442.5	
622.78	9283.4	
622.97	10205	
623.16	10921	
623.35	9051.3	
623.54	8437.6	
623.72	10154	
623.91	10381	
624.1	9183.1	
624.29	8332.5	
624.48	11205	
624.67	10643	
624.86	9137.4	
625.05	8534.6	
625.24	11183	
625.43	10172	
625.62	10223	
625.81	8718.2	
626	10859	
626.19	10332	
626.38	9164.7	
626.56	8815.8	
626.75	10183	
626.94	10842	
627.13	9169.4	
627.32	8334.6	
627.51	10832	
627.7	11550	
627.89	8436.9	
628.08	9344.2	
628.27	10103	
628.46	10339	
628.65	8563.2	
628.83	8383	
629.02	10557	
629.21	10006	
629.4	8876.6	
629.59	9054.1	
629.78	10140	
629.97	10826	
630.16	9126.4	
630.35	8746.9	
630.54	11093	
630.72	10862	
630.91	8776.9	
631.1	9062.3	
631.29	10572	
631.48	10534	
631.67	9118.9	
631.86	8685.4	
632.05	10239	
632.24	10322	
632.42	8398	
632.61	8951.7	
632.8	10325	
632.99	9958.6	
633.18	9039.7	
633.37	9267.1	
633.56	10499	
633.75	10385	
633.93	8985.8	
634.12	8719.6	
634.31	11081	
634.5	10751	
634.69	8830.8	
634.88	9166	
635.07	10327	
635.25	10807	
635.44	9338.7	
635.63	9641.8	
635.82	10232	
636.01	9782.5	
636.2	9244.5	
636.39	9069.8	
636.57	10983	
636.76	10653	
636.95	8658.8	
637.14	9570.2	
637.33	10526	
637.52	11066	
637.7	8428.8	
637.89	9272.5	
638.08	10313	
638.27	11194	
638.46	9260.2	
638.65	9462.3	
638.83	11204	
639.02	10195	
639.21	9027.4	
639.4	9355.8	
639.59	10410	
639.78	10219	
639.96	8521.6	
640.15	8557.1	
640.34	10328	
640.53	10338	
640.72	8378.9	
640.91	8570.7	
641.09	9912.2	
641.28	10759	
641.47	8531.2	
641.66	9159.2	
641.85	10286	
642.03	10424	
642.22	8948.3	
642.41	8540	
642.6	9912.2	
642.79	9484.8	
642.97	8436.9	
643.16	8866.3	
643.35	9886.2	
643.54	9625.5	
643.73	8326.4	
643.91	8800.8	
644.1	9519.6	
644.29	10041	
644.48	8309.3	
644.67	8363.2	
644.85	9657.5	
645.04	9931.3	
645.23	8028	
645.42	8319.5	
645.6	9503.3	
645.79	10273	
645.98	7961.8	
646.17	7374.7	
646.36	9298.5	
646.54	9569.5	
646.73	8552.3	
646.92	7696.3	
647.11	9340.1	
647.29	10059	
647.48	7763.2	
647.67	7594.6	
647.86	10090	
648.05	10016	
648.23	7858.1	
648.42	8708.6	
648.61	9562.6	
648.8	9460.9	
648.98	7650.5	
649.17	7873.1	
649.36	9125.1	
649.55	8869.8	
649.73	7525.6	
649.92	8166.6	
650.11	9121.7	
650.3	9398.8	
650.48	7759.8	
650.67	7704.5	
650.86	9611.1	
651.05	8778.3	
651.23	7667.6	
651.42	7601.4	
651.61	9169.4	
651.79	8910	
651.98	7740.6	
652.17	7524.9	
652.36	9374.9	
652.54	8756.4	
652.73	7649.2	
652.92	7460.1	
653.11	9327.8	
653.29	9521	
653.48	7104.4	
653.67	7730.4	
653.85	9235.7	
654.04	9962	
654.23	7826.7	
654.42	7615	
654.6	8766	
654.79	9232.2	
654.98	7083.2	
655.16	7499	
655.35	8544.8	
655.54	8247.9	
655.73	6956.9	
655.91	6920.8	
656.1	8850.6	
656.29	8170.7	
656.47	6536.4	
656.66	7733.1	
656.85	8475.2	
657.03	8464.3	
657.22	7076.4	
657.41	7165.8	
657.59	8563.9	
657.78	8485.4	
657.97	6960.4	
658.16	7421.2	
658.34	9192.6	
658.53	9423.4	
658.72	8133.2	
658.9	8380.3	
659.09	8893	
659.28	8856.1	
659.46	7299.6	
659.65	7268.9	
659.84	8611	
660.02	9108.7	
660.21	7367.2	
660.4	7075	
660.58	9321	
660.77	8898.4	
660.96	7688.1	
661.14	7001.3	
661.33	9699.2	
661.52	9672.6	
661.7	7026.6	
661.89	9254.1	
662.08	8630.1	
662.26	8264.2	
662.45	7137.9	
662.64	7147.4	
662.82	9157.8	
663.01	8490.2	
663.2	7174.7	
663.38	7699.7	
663.57	8981	
663.75	8878.6	
663.94	7393.2	
664.13	8245.1	
664.31	8649.9	
664.5	8974.2	
664.69	7509.9	
664.87	7881.3	
665.06	8511.4	
665.25	8954.4	
665.43	8064.9	
665.62	8057.4	
665.8	9057.5	
665.99	8594.6	
666.18	7258.7	
666.36	7375.4	
666.55	9036.3	
666.74	8982.4	
666.92	7141.9	
667.11	8207.6	
667.29	8699.1	
667.48	9015.2	
667.67	7832.8	
667.85	7251.2	
668.04	8508.6	
668.22	8506.6	
668.41	7342	
668.6	7603.4	
668.78	8436.9	
668.97	8715.5	
669.15	7577.5	
669.34	6781.5	
669.53	8436.9	
669.71	8737.3	
669.9	6926.9	
670.08	7375.4	
670.27	8355	
670.46	8891.6	
670.64	7619.1	
670.83	7755.7	
671.01	8292.2	
671.2	8740.7	
671.38	7097.6	
671.57	6995.2	
671.76	9133.9	
671.94	9574.3	
672.13	6952.2	
672.31	7602.1	
672.5	8990.6	
672.69	8442.4	
672.87	7149.5	
673.06	7317.4	
673.24	8862.9	
673.43	8595.3	
673.61	7562.5	
673.8	7237.5	
673.98	8832.9	
674.17	8974.2	
674.36	7648.5	
674.54	7458	
674.73	8650.6	
674.91	8905.9	
675.1	7236.8	
675.28	7037.5	
675.47	8615.1	
675.65	8918.9	
675.84	7254.6	
676.03	7486.7	
676.21	8463.6	
676.4	8173.4	
676.58	7710.6	
676.77	7662.8	
676.95	9593.4	
677.14	8419.2	
677.32	6935.1	
677.51	6903.7	
677.69	8955.8	
677.88	8263.6	
678.06	6947.4	
678.25	7018.4	
678.44	8702.5	
678.62	8396	
678.81	6840.2	
678.99	7550.2	
679.18	9104.6	
679.36	8793.3	
679.55	7197.2	
679.73	7612.3	
679.92	8815.8	
680.1	8461.5	
680.29	7947.5	
680.47	7228.6	
680.66	8415.1	
680.84	8996.7	
681.03	6710.5	
681.21	7403.4	
681.4	8410.3	
681.58	8398.7	
681.77	7030	
681.95	7021.1	
682.14	9064.3	
682.32	9267.7	
682.51	7722.9	
682.69	6873.7	
682.88	8285.4	
683.06	8664.3	
683.25	7421.8	
683.43	7728.4	
683.62	8561.9	
683.8	8849.3	
683.99	7802.8	
684.17	7365.9	
684.36	9437.7	
684.54	8560.5	
684.73	6754.9	
684.91	6838.9	
685.1	8609.7	
685.28	8240.3	
685.46	7066.2	
685.65	6995.9	
685.83	8392.6	
686.02	7874.4	
686.2	6432.7	
686.39	6477	
686.57	7662.8	
686.76	8686.1	
686.94	6546.7	
687.13	6632.7	
687.31	8236.9	
687.5	8079.2	
687.68	6356.2	
687.86	7110.5	
688.05	9334.6	
688.23	7729	
688.42	7101	
688.6	6673.6	
688.79	7955.7	
688.97	8022.6	
689.16	6967.2	
689.34	6238.1	
689.52	8536.6	
689.71	8858.8	
689.89	7233.4	
690.08	6803.4	
690.26	8515.5	
690.45	8273.8	
690.63	7398.6	
690.81	7032.7	
691	8307.9	
691.18	8207.6	
691.37	7071	
691.55	8407.6	
691.74	7978.9	
691.92	9430.2	
692.1	6956.9	
692.29	6600.6	
692.47	8116.1	
692.66	7680.6	
692.84	6679.8	
693.02	6984.9	
693.21	7808.9	
693.39	8175.5	
693.58	7244.3	
693.76	6750.1	
693.94	8927.8	
694.13	8857.5	
694.31	6859.3	
694.5	7454.6	
694.68	8114.7	
694.86	8441	
695.05	7170.6	
695.23	7256	
695.42	8710.7	
695.6	10235	
695.78	7690.8	
695.97	6999.3	
696.15	8902.5	
696.34	8420.6	
696.52	6883.9	
696.7	7539.3	
696.89	8723.7	
697.07	8181	
697.25	7333.1	
697.44	8320.2	
697.62	8624.7	
697.81	8626	
697.99	7073	
698.17	7411.6	
698.36	8150.9	
698.54	8504.5	
698.72	7335.1	
698.91	6604	
699.09	8284	
699.28	8110.6	
699.46	7123.5	
699.64	6919.4	
699.83	8122.2	
700.01	8804.9	
700.19	7469.6	
700.38	6510.5	
700.56	8794.7	
700.74	8141.4	
700.93	6610.2	
701.11	7271	
701.29	8488.1	
701.48	9355.1	
701.66	6871.6	
701.84	6987	
702.03	8363.2	
702.21	8864.3	
702.39	6711.2	
702.58	7096.2	
702.76	8637	
702.94	8719.6	
703.13	6631.3	
703.31	8302.5	
703.49	8264.2	
703.68	8880.7	
703.86	6735.8	
704.04	7421.2	
704.23	8488.1	
704.41	8677.2	
704.59	6917.4	
704.78	7569.3	
704.96	9633.6	
705.14	8638.3	
705.33	6760.3	
705.51	7331	
705.69	8348.9	
705.87	8953	
706.06	7389.1	
706.24	6680.5	
706.42	8546.9	
706.61	8724.3	
706.79	7428	
706.97	6686.6	
707.16	8278.6	
707.34	8473.1	
707.52	7416.4	
707.7	6767.2	
707.89	8218.5	
708.07	8041	
708.25	7457.3	
708.44	7578.2	
708.62	8103.1	
708.8	8946.9	
708.98	7578.2	
709.17	6875	
709.35	8413.7	
709.53	8445.8	
709.72	6608.1	
709.9	6784.9	
710.08	8694.3	
710.26	8658.1	
710.45	7751.6	
710.63	6857.3	
710.81	8315.4	
710.99	8406.2	
711.18	7193.8	
711.36	6893.5	
711.54	8060.8	
711.72	8628.8	
711.91	6929.6	
712.09	6566.5	
712.27	8189.8	
712.45	8640.4	
712.64	6863.4	
712.82	6298.9	
713	7638.9	
713.18	7847.8	
713.37	6319.3	
713.55	6984.9	
713.73	8407.6	
713.91	7372	
714.1	6438.8	
714.28	6075	
714.46	7939.3	
714.64	7274.4	
714.83	5485.8	
715.01	5858.6	
715.19	7133.8	
715.37	6548.7	
715.55	5439.4	
715.74	5610.8	
715.92	7503.1	
716.1	6142.5	
716.28	6380.8	
716.47	5598.5	
716.65	6709.8	
716.83	6567.8	
717.01	5418.9	
717.19	5463.3	
717.38	8014.4	
717.56	6341.9	
717.74	5696.1	
717.92	5010	
718.1	7176.8	
718.29	6640.9	
718.47	4702.1	
718.65	5268.7	
718.83	7182.9	
719.01	7213.6	
719.2	4948.6	
719.38	5779.4	
719.56	7136.5	
719.74	8198	
719.92	5512.4	
720.11	6236.7	
720.29	7263.5	
720.47	6629.3	
720.65	5167.7	
720.83	5739.8	
721.02	6661.4	
721.2	6470.2	
721.38	5573.9	
721.56	5112.4	
721.74	6074.3	
721.92	6137.1	
722.11	5827.8	
722.29	5563.6	
722.47	6959	
722.65	6405.4	
722.83	5006.6	
723.01	5527.5	
723.2	6477	
723.38	6659.3	
723.56	4597.7	
723.74	5421.7	
723.92	6098.2	
724.1	6829.3	
724.29	4888.5	
724.47	5627.1	
724.65	6215.6	
724.83	6027.9	
725.01	4889.2	
725.19	5301.5	
725.37	6087.9	
725.56	5999.9	
725.74	4707.6	
725.92	4870.8	
726.1	6127.5	
726.28	6261.3	
726.46	5109	
726.64	4841.4	
726.83	6254.5	
727.01	6367.1	
727.19	4659.1	
727.37	5332.9	
727.55	6361.7	
727.73	6646.3	
727.91	4668	
728.09	4504.2	
728.28	6679.8	
728.46	6790.4	
728.64	5241.4	
728.82	5201.2	
729	7299	
729.18	6853.9	
729.36	4579.9	
729.54	6176	
729.72	7522.2	
729.91	6422.4	
730.09	6004.6	
730.27	5152	
730.45	6285.9	
730.63	6823.8	
730.81	5583.4	
730.99	4908.3	
731.17	7230	
731.35	6209.4	
731.53	5259.2	
731.71	5017.5	
731.9	6950.1	
732.08	6935.1	
732.26	5165.7	
732.44	4934.9	
732.62	7060	
732.8	6705	
732.98	5437.4	
733.16	4814.8	
733.34	6668.9	
733.52	5827.8	
733.7	5005.9	
733.88	5177.9	
734.07	6492.7	
734.25	6358.3	
734.43	4663.2	
734.61	5599.8	
734.79	7279.8	
734.97	6283.2	
735.15	4657.8	
735.33	5017.5	
735.51	6523.5	
735.69	6249.7	
735.87	5604.6	
736.05	5083.1	
736.23	6358.9	
736.41	6027.2	
736.59	4887.1	
736.77	5015.5	
736.95	6561.7	
737.13	6179.4	
737.32	4642.7	
737.5	4823.6	
737.68	7045	
737.86	6032.6	
738.04	4582	
738.22	5711.8	
738.4	5948.7	
738.58	6272.9	
738.76	4873.5	
738.94	4248.9	
739.12	5998.5	
739.3	5948	
739.48	5211.4	
739.66	5091.3	
739.84	6113.9	
740.02	6111.1	
740.2	4287.1	
740.38	4457.7	
740.56	6317.3	
740.74	5502.2	
740.92	4915.1	
741.1	4771.1	
741.28	5954.1	
741.46	5741.8	
741.64	4499.4	
741.82	4843.4	
742	6014.9	
742.18	5856.5	
742.36	4643.4	
742.54	4349.9	
742.72	6373.3	
742.9	5382.7	
743.08	4816.8	
743.26	3962.1	
743.44	6307.1	
743.62	6228.6	
743.8	4940.4	
743.98	4302.8	
744.16	6061.3	
744.34	5871.5	
744.52	4790.2	
744.7	4764.3	
744.88	6088.6	
745.06	5738.4	
745.24	4777.2	
745.42	4797.7	
745.6	6173.3	
745.78	6031.3	
745.96	4010.6	
746.14	4283.7	
746.32	6621.1	
746.5	6022.4	
746.68	4545.1	
746.86	4161.5	
747.03	6309.8	
747.21	5243.5	
747.39	4494.6	
747.57	4132.1	
747.75	5793.7	
747.93	5932.3	
748.11	4066.6	
748.29	4014	
748.47	6844.3	
748.65	5543.2	
748.83	4579.3	
749.01	4417.5	
749.19	5881.1	
749.37	5270.8	
749.55	4306.2	
749.73	4370.4	
749.91	5698.8	
750.09	5461.9	
750.26	4386.1	
750.44	3966.9	
750.62	5610.8	
750.8	5578.7	
750.98	3909.6	
751.16	4134.8	
751.34	5732.3	
751.52	5222.3	
751.7	4573.8	
751.88	3857	
752.06	5968.5	
752.24	5735.7	
752.42	3809.2	
752.59	3975.8	
752.77	5568.4	
752.95	6402.6	
753.13	4454.3	
753.31	4095.3	
753.49	5272.2	
753.67	5547.9	
753.85	4265.2	
754.03	3921.9	
754.21	5748.6	
754.38	5979.4	
754.56	4049.5	
754.74	3418.7	
754.92	5186.8	
755.1	5590.3	
755.28	3366.2	
755.46	3337.5	
755.64	6126.8	
755.82	6248.4	
755.99	3584.6	
756.17	3541.6	
756.35	4449.6	
756.53	5474.2	
756.71	2766.8	
756.89	3372.3	
757.07	5179.3	
757.25	4573.1	
757.42	3751.9	
757.6	4311.7	
757.78	5265.3	
757.96	4497.3	
758.14	3520.5	
758.32	3265.1	
758.5	4246.1	
758.67	4842.1	
758.85	3440.6	
759.03	3496.6	
759.21	4949.3	
759.39	4603.8	
759.57	3140.9	
759.75	3923.9	
759.92	5485.8	
760.1	5015.5	
760.28	4246.8	
760.46	4336.2	
760.64	4848.9	
760.82	4678.9	
760.99	3988.1	
761.17	3500	
761.35	5303.6	
761.53	4568.3	
761.71	3736.2	
761.89	4051.6	
762.06	5229.8	
762.24	4911	
762.42	3723.2	
762.6	3496.6	
762.78	4943.1	
762.96	5324	
763.13	3902.7	
763.31	3651.5	
763.49	5374.6	
763.67	4847.5	
763.85	4280.9	
764.02	4611.3	
764.2	5703.6	
764.38	5002.5	
764.56	3665.9	
764.74	4177.2	
764.91	5683.8	
765.09	4916.5	
765.27	3507.5	
765.45	3262.4	
765.63	5797.1	
765.8	5565.7	
765.98	3170.9	
766.16	3324.5	
766.34	4615.4	
766.52	4444.1	
766.69	3951.2	
766.87	3257.6	
767.05	4991.6	
767.23	5417.6	
767.41	3413.3	
767.58	3626.3	
767.76	5250.3	
767.94	5360.2	
768.12	3472	
768.29	3973.1	
768.47	4900.1	
768.65	5455.8	
768.83	3164.1	
769	3919.1	
769.18	4675.5	
769.36	5087.8	
769.54	3996.3	
769.72	3197.6	
769.89	5412.1	
770.07	5328.8	
770.25	3464.5	
770.43	4349.2	
770.6	5849.7	
770.78	6070.2	
770.96	3685	
771.14	3957.4	
771.31	5302.2	
771.49	4822.3	
771.67	2973	
771.85	3213.3	
772.02	4294.6	
772.2	4774.5	
772.38	3774.4	
772.55	3314.3	
772.73	5025.7	
772.91	4893.3	
773.09	3609.9	
773.26	3646.7	
773.44	4987.5	
773.62	4793.6	
773.8	3238.5	
773.97	3121.1	
774.15	4990.2	
774.33	4782.7	
774.5	3231	
774.68	3406.5	
774.86	5111.7	
775.04	4747.9	
775.21	3245.3	
775.39	3244.7	
775.57	4941.1	
775.74	5130.8	
775.92	3122.5	
776.1	3003.7	
776.27	4871.4	
776.45	5735.7	
776.63	3192.1	
776.81	2957.9	
776.98	4726	
777.16	5434.6	
777.34	3327.9	
777.51	3563.5	
777.69	4700.8	
777.87	4520.5	
778.04	3437.9	
778.22	3719.1	
778.4	4592.9	
778.57	4970.4	
778.75	2867.2	
778.93	3008.5	
779.1	4509.6	
779.28	4288.4	
779.46	2854.9	
779.64	3138.9	
779.81	5076.9	
779.99	5625.8	
780.17	3715	
780.34	3750.5	
780.52	4725.3	
780.69	4797.7	
780.87	3392.8	
781.05	3132	
781.22	4784.7	
781.4	4807.9	
781.58	3260.4	
781.75	2652.8	
781.93	4848.9	
782.11	4339.6	
782.28	3836.5	
782.46	3216.7	
782.64	4265.9	
782.81	4919.2	
782.99	3262.4	
783.17	3249.4	
783.34	4807.9	
783.52	4388.8	
783.69	3323.9	
783.87	3880.2	
784.05	4472.8	
784.22	4379.9	
784.4	3921.9	
784.58	3461.1	
784.75	5090.6	
784.93	4499.4	
785.1	3151.1	
785.28	3600.3	
785.46	4894.6	
785.63	4303.5	
785.81	3209.2	
785.99	3048.7	
786.16	4543.8	
786.34	4753.3	
786.51	3149.8	
786.69	3468.6	
786.87	4185.4	
787.04	4547.2	
787.22	3037.1	
787.39	3607.8	
787.57	4375.8	
787.75	5092.6	
787.92	3822.2	
788.1	3747.1	
788.27	4331.5	
788.45	4132.1	
788.63	3590.1	
788.8	2696.5	
788.98	4842.8	
789.15	4076.8	
789.33	2788	
789.5	3142.3	
789.68	4980	
789.86	5119.2	
790.03	3431	
790.21	3071.3	
790.38	5075.5	
790.56	4448.2	
790.73	3029.6	
790.91	3000.3	
791.09	4423.6	
791.26	4856.4	
791.44	3201	
791.61	2809.8	
791.79	4401.8	
791.96	4341	
792.14	2892.4	
792.32	2598.2	
792.49	4364.9	
792.67	4456.4	
792.84	3016.7	
793.02	2824.8	
793.19	4986.8	
793.37	5196.4	
793.54	2630.3	
793.72	2912.9	
793.89	5150.6	
794.07	4319.8	
794.25	3279.5	
794.42	2656.9	
794.6	5078.3	
794.77	4789.5	
794.95	3426.3	
795.12	3095.8	
795.3	4401.1	
795.47	4724.7	
795.65	3330.7	
795.82	3192.8	
796	4221.5	
796.17	5466	
796.35	3181.2	
796.52	3652.2	
796.7	4741.7	
796.87	4810	
797.05	3097.2	
797.22	3691.1	
797.4	4823.6	
797.57	5463.3	
797.75	3194.1	
797.92	3042.6	
798.1	5087.8	
798.27	4224.3	
798.45	2684.9	
798.62	2861.7	
798.8	4628.4	
798.97	4934.2	
799.15	3334.8	
799.32	3289.7	
799.5	4083.6	
799.67	4521.9	
799.85	3444	
800.02	2644.6	
800.2	4327.4	
800.37	4468.7	
800.55	3508.2	
800.72	3050.8	
800.9	4920.6	
801.07	5098.8	
801.25	3958	
801.42	3315	
801.6	4924.7	
801.77	4606.6	
801.95	3101.3	
802.12	3020.8	
802.29	4695.3	
802.47	4590.2	
802.64	3317.7	
802.82	2605.7	
802.99	4316.4	
803.17	4958.8	
803.34	3211.9	
803.52	2917	
803.69	5328.8	
803.87	4136.2	
804.04	3197.6	
804.21	3235.8	
804.39	5156.8	
804.56	4485.7	
804.74	2805	
804.91	3285.6	
805.09	4351.9	
805.26	4397	
805.44	2855.6	
805.61	3039.2	
805.78	4848.9	
805.96	4760.2	
806.13	3282.9	
806.31	3527.3	
806.48	3994.9	
806.66	4362.2	
806.83	3319.8	
807	3181.2	
807.18	4336.2	
807.35	4577.9	
807.53	3017.3	
807.7	2646	
807.87	5124	
808.05	4356.7	
808.22	3463.8	
808.4	2630.3	
808.57	4272.1	
808.74	4063.9	
808.92	2985.3	
809.09	3614	
809.27	4339	
809.44	4678.2	
809.61	2688.3	
809.79	2886.3	
809.96	5210	
810.14	4760.2	
810.31	2633.7	
810.48	3153.2	
810.66	4335.5	
810.83	4866.7	
811.01	3002.3	
811.18	3285.6	
811.35	4848.2	
811.53	3927.3	
811.7	3561.4	
811.87	3306.8	
812.05	4420.9	
812.22	4316.4	
812.39	2921.1	
812.57	2810.5	
812.74	4398.4	
812.92	5504.3	
813.09	3170.9	
813.26	3239.2	
813.44	5244.8	
813.61	4240.7	
813.78	2659.6	
813.96	3376.4	
814.13	4356	
814.3	4167.6	
814.48	3658.4	
814.65	3059	
814.82	5129.5	
815	4148.5	
815.17	3140.9	
815.34	3745.1	
815.52	4275.5	
815.69	4240.7	
815.87	3117.7	
816.04	3142.9	
816.21	4306.9	
816.38	3955.3	
816.56	3077.4	
816.73	2898.6	
816.9	5316.5	
817.08	4840	
817.25	2964.1	
817.42	3562.8	
817.6	3994.9	
817.77	4326.7	
817.94	3214.6	
818.12	2859.6	
818.29	4177.9	
818.46	5823.7	
818.64	2981.8	
818.81	2779.8	
818.98	4156	
819.16	5539.8	
819.33	3385.3	
819.5	3157.3	
819.67	4580.6	
819.85	5047.6	
820.02	3177.8	
820.19	3241.3	
820.37	4499.4	
820.54	4261.1	
820.71	3222.8	
820.88	3896.6	
821.06	4474.8	
821.23	4134.8	
821.4	3211.9	
821.58	3158.7	
821.75	4777.9	
821.92	4468	
822.09	2678.1	
822.27	2699.2	
822.44	4399.7	
822.61	4302.8	
822.79	2745.6	
822.96	4819.6	
823.13	4579.3	
823.3	4058.4	
823.48	3005.7	
823.65	2749.1	
823.82	4810.7	
823.99	4072	
824.17	3757.3	
824.34	2819.4	
824.51	5483.1	
824.68	4374.5	
824.86	2947	
825.03	3214.6	
825.2	4358.8	
825.37	5025	
825.55	2961.4	
825.72	3137.5	
825.89	5408.7	
826.06	5127.4	
826.24	3065.8	
826.41	3084.9	
826.58	5165.7	
826.75	4482.3	
826.92	2593.4	
827.1	2813.9	
827.27	6611.5	
827.44	5345.2	
827.61	2940.9	
827.79	3489.1	
827.96	4200.4	
828.13	4327.4	
828.3	3081.5	
828.47	2665.8	
828.65	4617.5	
828.82	4509.6	
828.99	3773.7	
829.16	3399.6	
829.34	4874.2	
829.51	4721.9	
829.68	3153.9	
829.85	3177.1	
830.02	5148.6	
830.2	4837.3	
830.37	2604.3	
830.54	3733.4	
830.71	5401.9	
830.88	4406.5	
831.05	2525.8	
831.23	2851.5	
831.4	5236.7	
831.57	5589.6	
831.74	2979.1	
831.91	2622.8	
832.09	4629.1	
832.26	4827.7	
832.43	3030.3	
832.6	3331.4	
832.77	4535.6	
832.94	5189.6	
833.12	2527.9	
833.29	2964.8	
833.46	4315.1	
833.63	5822.4	
833.8	3262.4	
833.97	2977.1	
834.15	4835.9	
834.32	4708.3	
834.49	3069.2	
834.66	3180.5	
834.83	4929.5	
835	4236.6	
835.17	2903.3	
835.35	2913.6	
835.52	4789.5	
835.69	4659.1	
835.86	3080.8	
836.03	2589.3	
836.2	4842.1	
836.37	4582.7	
836.55	2951.1	
836.72	2820.7	
836.89	4525.3	
837.06	4878.3	
837.23	3037.8	
837.4	3263.8	
837.57	5389.6	
837.75	5775.3	
837.92	2795.5	
838.09	2951.1	
838.26	4506.9	
838.43	4931.5	
838.6	3145	
838.77	2912.2	
838.94	5512.4	
839.11	5381.4	
839.29	3047.4	
839.46	2434.4	
839.63	4883	
839.8	4592.2	
839.97	2954.5	
840.14	2914.9	
840.31	4698	
840.48	4832.5	
840.65	2508.1	
840.82	2902	
841	4857.1	
841.17	4675.5	
841.34	2709.5	
841.51	2796.2	
841.68	4770.4	
841.85	4629.1	
842.02	2791.4	
842.19	2383.2	
842.36	4676.9	
842.53	4646.2	
842.7	2756.6	
842.87	3222.1	
843.05	5854.5	
843.22	4539	
843.39	2566.1	
843.56	2817.3	
843.73	4508.9	
843.9	4941.1	
844.07	4160.1	
844.24	3502.7	
844.41	6429.3	
844.58	4289.1	
844.75	2661	
844.92	2852.1	
845.09	4807.9	
845.26	4788.8	
845.43	2757.9	
845.6	2871.9	
845.77	4820.9	
845.94	4639.3	
846.12	2947.7	
846.29	3084.9	
846.46	4972.5	
846.63	4754	
846.8	2750.4	
846.97	3132	
847.14	5081.7	
847.31	4763.6	
847.48	2990.7	
847.65	3267.2	
847.82	4950.6	
847.99	4853.7	
848.16	3523.2	
848.33	3278.1	
848.5	4444.1	
848.67	5075.5	
848.84	2719	
849.01	2863.1	
849.18	4418.8	
849.35	4207.9	
849.52	3229	
849.69	2654.9	
849.86	5003.9	
850.03	5069.4	
850.2	2721.8	
850.37	3222.8	
850.54	4994.3	
850.71	4562.9	
850.88	3159.3	
851.05	2692.4	
851.22	4680.3	
851.39	5104.9	
851.56	2542.9	
851.73	3106.8	
851.9	4310.3	
852.07	4986.1	
852.24	2979.1	
852.41	2696.5	
852.58	4708.3	
852.75	4377.9	
852.92	3019.4	
853.09	2670.6	
853.26	4467.3	
853.43	5085.1	
853.6	2734.7	
853.77	2373.6	
853.94	5111	
854.11	4308.2	
854.28	3867.2	
854.44	2887	
854.61	5412.8	
854.78	4970.4	
854.95	2697.2	
855.12	3283.6	
855.29	4040.6	
855.46	5258.5	
855.63	2732	
855.8	3576.4	
855.97	4483	
856.14	5033.2	
856.31	3675.4	
856.48	2975	
856.65	4569	
856.82	4246.1	
856.99	2606.4	
857.16	2843.9	
857.33	5606	
857.49	4520.5	
857.66	2915.6	
857.83	3024.8	
858	4609.3	
858.17	4711	
858.34	2587.9	
858.51	2701.3	
858.68	5229.8	
858.85	5210.7	
859.02	3077.4	
859.19	3252.9	
859.36	4298.7	
859.52	4296	
859.69	2721.8	
859.86	3098.6	
860.03	4293.9	
860.2	5155.4	
860.37	2497.2	
860.54	2736.1	
860.71	4919.9	
860.88	5281.7	
861.05	2940.2	
861.21	3334.1	
861.38	5220.3	
861.55	4144.4	
861.72	2517.6	
861.89	2988.7	
862.06	4995	
862.23	5237.3	
862.4	2648.7	
862.56	2785.2	
862.73	4849.6	
862.9	4609.3	
863.07	3069.2	
863.24	2536.8	
863.41	4285.7	
863.58	4319.8	
863.75	2732.7	
863.91	3077.4	
864.08	5054.4	
864.25	4931.5	
864.42	3304.7	
864.59	3614	
864.76	5409.4	
864.93	4334.2	
865.09	2598.9	
865.26	2878.8	
865.43	5159.5	
865.6	5378	
865.77	2403	
865.94	2642.6	
866.1	5056.4	
866.27	4861.2	
866.44	3904.8	
866.61	2633.7	
866.78	4562.2	
866.95	4853.7	
867.11	2633.7	
867.28	2444.6	
867.45	5057.1	
867.62	4340.3	
867.79	3115	
867.96	2674.6	
868.12	4216.1	
868.29	4876.9	
868.46	2741.5	
868.63	3508.9	
868.8	5046.2	
868.97	4878.3	
869.13	2792.1	
869.3	2790	
869.47	4844.8	
869.64	4975.9	
869.81	2686.9	
869.97	2728.6	
870.14	4742.4	
870.31	5176.6	
870.48	2635.1	
870.65	3278.8	
870.81	4562.2	
870.98	4553.3	
871.15	3010.5	
871.32	2792.1	
871.48	4825.7	
871.65	5197.7	
871.82	2669.9	
871.99	2912.2	
872.16	5565.7	
872.32	5095.3	
872.49	2747	
872.66	2717.7	
872.83	4926	
872.99	4412	
873.16	3042.6	
873.33	2693.1	
873.5	4627	
873.67	4713.7	
873.83	2809.1	
874	3537.5	
874.17	4731.5	
874.34	5393	
874.5	3368.9	
874.67	3231.7	
874.84	5096	
875.01	4169	
875.17	3686.3	
875.34	2725.2	
875.51	4704.2	
875.68	5580	
875.84	3200.3	
876.01	3848.1	
876.18	4891.9	
876.34	4830.5	
876.51	2716.3	
876.68	2684.9	
876.85	4470	
877.01	5137	
877.18	3644.7	
877.35	2703.3	
877.52	4732.2	
877.68	4231.8	
877.85	2691	
878.02	2636.4	
878.18	4535.6	
878.35	4418.8	
878.52	2240.5	
878.69	3123.2	
878.85	5027.8	
879.02	4866.7	
879.19	3712.3	
879.35	2895.1	
879.52	4952	
879.69	4893.3	
879.86	2389.3	
880.02	2954.5	
880.19	4612.7	
880.36	5430.5	
880.52	3011.9	
880.69	3136.1	
880.86	4954	
881.02	4945.8	
881.19	2968.2	
881.36	2898.6	
881.52	4864.6	
881.69	4367.6	
881.86	2918.4	
882.02	2830.3	
882.19	5096	
882.36	5756.2	
882.52	2767.5	
882.69	3631.7	
882.86	4739.7	
883.02	4669.4	
883.19	3168.2	
883.36	3033.7	
883.52	4950.6	
883.69	5531.6	
883.86	2707.4	
884.02	2478.7	
884.19	4903.5	
884.36	4698	
884.52	3005.1	
884.69	2889.7	
884.86	4424.3	
885.02	5300.8	
885.19	2948.4	
885.36	2998.9	
885.52	4552	
885.69	4806.6	
885.86	3773.7	
886.02	3372.3	
886.19	4969.7	
886.35	4486.4	
886.52	2940.2	
886.69	3670.6	
886.85	4313	
887.02	5148.6	
887.19	5148.6	
887.35	5148.6	
887.52	5148.6	
887.68	5148.6	
887.85	5148.6	
888.02	5148.6	
888.18	5148.6	
888.35	5148.6	
888.51	5148.6	
888.68	5148.6	
888.85	5148.6	
889.01	5148.6	
889.18	5148.6	
889.35	5148.6	
889.51	5148.6	
889.68	5148.6	
889.84	5148.6	
890.01	5148.6	
890.17	5148.6	
890.34	5148.6	
890.51	5148.6	
890.67	5148.6	
890.84	5148.6	
891	5148.6	
891.17	5148.6	
891.34	5148.6	
891.5	5148.6	
891.67	5148.6	
891.83	5148.6	
892	5148.6	
892.16	5148.6	
892.33	5148.6	
892.5	5148.6	
892.66	5148.6	
892.83	5148.6	
892.99	5148.6	
893.16	5148.6	
893.32	5148.6	
893.49	5148.6	
893.65	5148.6	
893.82	5148.6	
893.99	5148.6	
894.15	5148.6	
894.32	5148.6	
894.48	5148.6	
894.65	5148.6	
894.81	5148.6	
894.98	5148.6	
895.14	5148.6	
895.31	5148.6	
895.47	5148.6	
895.64	5148.6	
895.81	5148.6	
895.97	5148.6	
896.14	5148.6	
896.3	5148.6	
896.47	5148.6	
896.63	5148.6	
896.8	5148.6	
896.96	5148.6	
897.13	5148.6	
897.29	5148.6	
897.46	5148.6	
897.62	5148.6	
897.79	5148.6	
897.95	5148.6	
898.12	5148.6	
898.28	5148.6	
898.45	5148.6	
898.61	5148.6	
898.78	5148.6	
898.94	5148.6	
899.11	5148.6	
899.27	5148.6	
899.44	5148.6	
899.6	5148.6	
899.77	5148.6	
899.93	5148.6	
900.1	5148.6	
900.26	5148.6	
900.43	5148.6	
900.59	5148.6	
900.76	5148.6	
900.92	5148.6	
901.09	5148.6	
901.25	5148.6	
901.42	5148.6	
901.58	5148.6	
901.75	5148.6	
901.91	5148.6	
902.07	5148.6	
902.24	5148.6	
902.4	5148.6	
902.57	5148.6	
902.73	5148.6	
902.9	5148.6	
903.06	5148.6	
903.23	5148.6	
903.39	5148.6	
903.56	5148.6	
903.72	5148.6	
903.88	5148.6	
904.05	5148.6	
904.21	5148.6	
904.38	5148.6	
904.54	5148.6	
904.71	5148.6	
904.87	5148.6	
905.03	5148.6	
905.2	5148.6	
905.36	5148.6	
905.53	5148.6	
905.69	5148.6	
905.86	5148.6	
906.02	5148.6	
906.18	5148.6	
906.35	5148.6	
906.51	5148.6	
906.68	5148.6	
906.84	5148.6	
907.01	5148.6	
907.17	5148.6	
907.33	5148.6	
907.5	5148.6	
907.66	5148.6	
907.83	5148.6	
907.99	5148.6	
908.15	5148.6	
908.32	5148.6	
908.48	5148.6	
908.65	5148.6	
908.81	5148.6	
908.97	5148.6	
909.14	5148.6	
909.3	5148.6	
909.47	5148.6	
909.63	5148.6	
909.79	5148.6	
909.96	5148.6	
910.12	5148.6	
910.28	5148.6	
910.45	5148.6	
910.61	5148.6	
910.78	5148.6	
910.94	5148.6	
911.1	5148.6	
911.27	5148.6	
911.43	5148.6	
911.59	5148.6	
911.76	5148.6	
911.92	5148.6	
912.08	5148.6	
912.25	5148.6	
912.41	5148.6	
912.57	5148.6	
912.74	5148.6	
912.9	5148.6	
913.07	5148.6	
913.23	5148.6	
913.39	5148.6	
913.56	5148.6	
913.72	5148.6	
913.88	5148.6	
914.05	5148.6	
914.21	5148.6	
914.37	5148.6	
914.54	5148.6	
914.7	5148.6	
914.86	5148.6	
915.03	5148.6	
915.19	5148.6	
