Wavelength	Intensities	
nm	a.u.	
179.22	1433.9	
179.44	1436.3	
179.65	1431.5	
179.86	1441.1	
180.08	1413.8	
180.29	3032.4	
180.51	2493.1	
180.72	4310.3	
180.94	4593.6	
181.15	2258.2	
181.37	2215.9	
181.58	4065.9	
181.79	4178.5	
182.01	2313.5	
182.22	2352.4	
182.44	4299.4	
182.65	3861.1	
182.87	2779.1	
183.08	2535.4	
183.29	4433.9	
183.51	3809.2	
183.72	2341.5	
183.94	3026.9	
184.15	3998.3	
184.37	3953.9	
184.58	2155.1	
184.79	2644.6	
185.01	3885	
185.22	4398.4	
185.44	2712.2	
185.65	2488.3	
185.86	4178.5	
186.08	3848.8	
186.29	2148.3	
186.51	2278.7	
186.72	3937.6	
186.94	4349.2	
187.15	2527.9	
187.36	2511.5	
187.58	5108.3	
187.79	4121.2	
188.01	2517.6	
188.22	3633.8	
188.43	4650.3	
188.65	4286.4	
188.86	2320.3	
189.08	2592	
189.29	3936.9	
189.5	3863.8	
189.72	2321	
189.93	2411.1	
190.15	4338.3	
190.36	4834.6	
190.57	2587.3	
190.79	2398.9	
191	4267.3	
191.22	4338.3	
191.43	2609.8	
191.64	2288.9	
191.86	4478.9	
192.07	4278.9	
192.29	2355.8	
192.5	2373.6	
192.71	4384	
192.93	4011.3	
193.14	2373.6	
193.35	2395.4	
193.57	3934.8	
193.78	4412.7	
194	2050	
194.21	2307.4	
194.42	3719.1	
194.64	4048.2	
194.85	2556.5	
195.07	2809.1	
195.28	4022.9	
195.49	3758.7	
195.71	2951.8	
195.92	2267.1	
196.13	4249.5	
196.35	4156	
196.56	3016	
196.78	2557.9	
196.99	4872.1	
197.2	4572.4	
197.42	2734.7	
197.63	2526.5	
197.84	3806.5	
198.06	4139.6	
198.27	2351.8	
198.48	2889.7	
198.7	3962.8	
198.91	4169	
199.13	2564.1	
199.34	2549	
199.55	4440	
199.77	3590.1	
199.98	2313.5	
200.19	2532	
200.41	4093.2	
200.62	3837.2	
200.83	2544.3	
201.05	2779.8	
201.26	4108.2	
201.47	3954.6	
201.69	2351.1	
201.9	2352.4	
202.11	4161.5	
202.33	4545.8	
202.54	2391.3	
202.76	2617.3	
202.97	4033.8	
203.18	4201.7	
203.4	2576.3	
203.61	2718.3	
203.82	4139.6	
204.04	3872	
204.25	2539.5	
204.46	2497.2	
204.68	4089.8	
204.89	4162.8	
205.1	2440.5	
205.32	2263.7	
205.53	4228.4	
205.74	4364.9	
205.96	2082.1	
206.17	2563.4	
206.38	4231.1	
206.6	4370.4	
206.81	2724.5	
207.02	2401.6	
207.24	4152.6	
207.45	4435.9	
207.66	2418	
207.88	2242.5	
208.09	4109.6	
208.3	4029	
208.52	2313.5	
208.73	2482.1	
208.94	4093.9	
209.15	4334.2	
209.37	2501.3	
209.58	2484.9	
209.79	4260.5	
210.01	4047.5	
210.22	2153.8	
210.43	2199.5	
210.65	3964.9	
210.86	4176.5	
211.07	2429.6	
211.29	2304	
211.5	4171	
211.71	4046.1	
211.93	2350.4	
212.14	2279.4	
212.35	4079.6	
212.56	3993.5	
212.78	2544.9	
212.99	2182.5	
213.2	4511	
213.42	4008.6	
213.63	2368.1	
213.84	2444.6	
214.06	3847.5	
214.27	3742.3	
214.48	2420.7	
214.69	2538.8	
214.91	4436.6	
215.12	4399.7	
215.33	2504	
215.55	2658.3	
215.76	4702.8	
215.97	4199.7	
216.18	2395.4	
216.4	2500.6	
216.61	3850.9	
216.82	4296	
217.04	2362	
217.25	2359.9	
217.46	4320.5	
217.67	4259.8	
217.89	2153.8	
218.1	2191.3	
218.31	4020.8	
218.53	4171.7	
218.74	2421.4	
218.95	2314.2	
219.16	4100.7	
219.38	4538.3	
219.59	2317.6	
219.8	2684.9	
220.01	4705.5	
220.23	4086.4	
220.44	2755.9	
220.65	2240.5	
220.87	4164.2	
221.08	4425.7	
221.29	2266.4	
221.5	2665.1	
221.72	4894.6	
221.93	3769.6	
222.14	2485.6	
222.35	2923.8	
222.57	4063.2	
222.78	4369	
222.99	2510.1	
223.2	2566.1	
223.42	4117.8	
223.63	4192.2	
223.84	2065	
224.05	2082.1	
224.27	4558.1	
224.48	4478.2	
224.69	2895.1	
224.9	2531.3	
225.12	4128	
225.33	4040.6	
225.54	2179	
225.75	2352.4	
225.97	3927.3	
226.18	4074.1	
226.39	2395.4	
226.6	2369.5	
226.82	3951.9	
227.03	3790.8	
227.24	2544.9	
227.45	2241.2	
227.67	4298.7	
227.88	4407.2	
228.09	2779.8	
228.3	2753.8	
228.52	4173.8	
228.73	4041.3	
228.94	2366.8	
229.15	2226.8	
229.36	4106.9	
229.58	4115.1	
229.79	2491	
230	2648.7	
230.21	4596.3	
230.43	4055.7	
230.64	2509.4	
230.85	2549	
231.06	4351.3	
231.28	4323.3	
231.49	2262.3	
231.7	2554.5	
231.91	4285	
232.12	4037.2	
232.34	2342.9	
232.55	2424.1	
232.76	4339	
232.97	4067.3	
233.18	2295.8	
233.4	2529.2	
233.61	4073.4	
233.82	3926.6	
234.03	2430.3	
234.25	2409.8	
234.46	5029.8	
234.67	4114.4	
234.88	2551.8	
235.09	2372.2	
235.31	4058.4	
235.52	4028.4	
235.73	2495.1	
235.94	2245.3	
236.15	3897.3	
236.37	4636.6	
236.58	2284.9	
236.79	2439.8	
237	4280.3	
237.21	3781.9	
237.43	2594.8	
237.64	2194.1	
237.85	5848.3	
238.06	3876.1	
238.27	2506	
238.48	2282.1	
238.7	4245.4	
238.91	4029	
239.12	2432.3	
239.33	2575.7	
239.54	3903.4	
239.76	3955.3	
239.97	2459.6	
240.18	2501.9	
240.39	4519.9	
240.6	4095.9	
240.82	2611.2	
241.03	2230.9	
241.24	3994.9	
241.45	4351.9	
241.66	2282.1	
241.87	2678.1	
242.09	4469.4	
242.3	4501.4	
242.51	2638.5	
242.72	2427.5	
242.93	4235.2	
243.14	3920.5	
243.36	2734	
243.57	2889	
243.78	4450.9	
243.99	4174.4	
244.2	2452.8	
244.41	2252.1	
244.63	3775.8	
244.84	4087.1	
245.05	2562.7	
245.26	2406.4	
245.47	4289.8	
245.68	4166.3	
245.9	2965.5	
246.11	2564.1	
246.32	3874.1	
246.53	4203.8	
246.74	3642	
246.95	2151.7	
247.16	3935.5	
247.38	4053.6	
247.59	2239.8	
247.8	2490.3	
248.01	3652.2	
248.22	4048.8	
248.43	2254.1	
248.64	2447.3	
248.86	3843.4	
249.07	3998.3	
249.28	2336.7	
249.49	2527.2	
249.7	4238.6	
249.91	4299.4	
250.12	2235	
250.34	2259.6	
250.55	4141.7	
250.76	4028.4	
250.97	2529.2	
251.18	2538.8	
251.39	4250.2	
251.6	4116.4	
251.81	2537.4	
252.03	2527.2	
252.24	3831.7	
252.45	4240.7	
252.66	2208.4	
252.87	2603	
253.08	4030.4	
253.29	4780	
253.5	2249.4	
253.72	2902.7	
253.93	3944.4	
254.14	4518.5	
254.35	2402.3	
254.56	2435	
254.77	4145.1	
254.98	3867.9	
255.19	2441.2	
255.41	2768.9	
255.62	4238.6	
255.83	4362.2	
256.04	2565.4	
256.25	2493.1	
256.46	4644.1	
256.67	3889.1	
256.88	2549	
257.09	2703.3	
257.31	3747.8	
257.52	3817.4	
257.73	3059.7	
257.94	2368.1	
258.15	4124.6	
258.36	4097.3	
258.57	2756.6	
258.78	2052.7	
258.99	4325.3	
259.2	3929.4	
259.41	2359.3	
259.63	2469.2	
259.84	4392.2	
260.05	4487.1	
260.26	2854.2	
260.47	2360.6	
260.68	4347.2	
260.89	3975.8	
261.1	2711.5	
261.31	2345.6	
261.52	4476.2	
261.73	4493.9	
261.95	2944.3	
262.16	2564.7	
262.37	4297.3	
262.58	4418.2	
262.79	2889.7	
263	2405	
263.21	4011.3	
263.42	3857.7	
263.63	2600.9	
263.84	2381.8	
264.05	4240.7	
264.26	4407.2	
264.47	2824.1	
264.69	2600.9	
264.9	4485.1	
265.11	3917.8	
265.32	2302.6	
265.53	2329.9	
265.74	4107.5	
265.95	3748.5	
266.16	2461.7	
266.37	2621.4	
266.58	4154.6	
266.79	3889.1	
267	2407	
267.21	2258.9	
267.42	3836.5	
267.63	4048.2	
267.84	2444.6	
268.06	2229.6	
268.27	4266.6	
268.48	4304.8	
268.69	2443.9	
268.9	2714.9	
269.11	4070.7	
269.32	3734.1	
269.53	2438.4	
269.74	2344.9	
269.95	4033.8	
270.16	3788.1	
270.37	2544.3	
270.58	2738.1	
270.79	4018.8	
271	4307.6	
271.21	2565.4	
271.42	2497.2	
271.63	4216.8	
271.84	3758.7	
272.05	2140.1	
272.26	2285.5	
272.47	4080.2	
272.68	4127.3	
272.89	2480.8	
273.11	2577	
273.32	3845.4	
273.53	4429.8	
273.74	2534.7	
273.95	2558.6	
274.16	4169.7	
274.37	3981.3	
274.58	2712.2	
274.79	2310.1	
275	4172.4	
275.21	4260.5	
275.42	3013.2	
275.63	2632.3	
275.84	4281.6	
276.05	4846.2	
276.26	2534.7	
276.47	2435	
276.68	4105.5	
276.89	4567	
277.1	2633.7	
277.31	2235	
277.52	4182	
277.73	4501.4	
277.94	2236.4	
278.15	2354.5	
278.36	4215.4	
278.57	3900.7	
278.78	2415.9	
278.99	2504	
279.2	3893.2	
279.41	3877.5	
279.62	2934.7	
279.83	2239.8	
280.04	4686.4	
280.25	3855.6	
280.46	2899.2	
280.67	2482.8	
280.88	3941	
281.09	4388.8	
281.3	2566.8	
281.51	3024.8	
281.72	3924.6	
281.93	4087.7	
282.14	2388.6	
282.35	2473.3	
282.56	4389.5	
282.77	4179.9	
282.98	2460.3	
283.19	2743.6	
283.4	4871.4	
283.61	4012.7	
283.82	2329.2	
284.03	2891.7	
284.24	4285	
284.45	4252.9	
284.66	2993.4	
284.87	2723.1	
285.08	4375.1	
285.29	4465.9	
285.5	2240.5	
285.71	2424.1	
285.92	4246.8	
286.12	4626.4	
286.33	2843.3	
286.54	2452.8	
286.75	4297.3	
286.96	4004.5	
287.17	2373.6	
287.38	2798.9	
287.59	4054.3	
287.8	4001.7	
288.01	2409.8	
288.22	2568.2	
288.43	4033.8	
288.64	3738.2	
288.85	2731.3	
289.06	2631.6	
289.27	4339.6	
289.48	4386.1	
289.69	2912.2	
289.9	2730.6	
290.11	4434.5	
290.32	3964.9	
290.53	2741.5	
290.74	2566.8	
290.94	4292.5	
291.15	4257.7	
291.36	2320.3	
291.57	2633	
291.78	3992.9	
291.99	3717.7	
292.2	2329.2	
292.41	2602.3	
292.62	4325.3	
292.83	4247.5	
293.04	3011.2	
293.25	2383.8	
293.46	4022.2	
293.67	4315.1	
293.88	2357.2	
294.09	2304.6	
294.29	3940.3	
294.5	4159.4	
294.71	2497.8	
294.92	2336	
295.13	3983.3	
295.34	4663.2	
295.55	2215.9	
295.76	2139.4	
295.97	4278.2	
296.18	4470.7	
296.39	2287.6	
296.6	2335.4	
296.81	3981.3	
297.01	4275.5	
297.22	2443.2	
297.43	2405	
297.64	4003.8	
297.85	3835.8	
298.06	2077.3	
298.27	2243.2	
298.48	4001.7	
298.69	3902.1	
298.9	2543.6	
299.11	2332.6	
299.31	3881.6	
299.52	3881.6	
299.73	2608.4	
299.94	2584.5	
300.15	4119.1	
300.36	3960.1	
300.57	2647.3	
300.78	2534	
300.99	3917.8	
301.2	4077.5	
301.4	2385.9	
301.61	2496.5	
301.82	4153.3	
302.03	4246.8	
302.24	2685.6	
302.45	2288.9	
302.66	4195.6	
302.87	4219.5	
303.08	2388.6	
303.29	2905.4	
303.49	4032.5	
303.7	3880.9	
303.91	2200.2	
304.12	2829.6	
304.33	3680.2	
304.54	4205.8	
304.75	2352.4	
304.96	2346.3	
305.16	4260.5	
305.37	4526.7	
305.58	2201.6	
305.79	2174.9	
306	4246.8	
306.21	3725.9	
306.42	2372.9	
306.63	3213.9	
306.83	3982.6	
307.04	4121.9	
307.25	2548.4	
307.46	2477.4	
307.67	3762.1	
307.88	4175.1	
308.09	2373.6	
308.29	2334.7	
308.5	4103.4	
308.71	4288.4	
308.92	2508.8	
309.13	2241.8	
309.34	4122.6	
309.55	4001.7	
309.75	2848	
309.96	2551.8	
310.17	4240.7	
310.38	3849.5	
310.59	2606.4	
310.8	2572.9	
311.01	3982.6	
311.21	4104.1	
311.42	2342.9	
311.63	2396.8	
311.84	4001	
312.05	4045.4	
312.26	2558.6	
312.46	2706	
312.67	3977.8	
312.88	3682.2	
313.09	2292.4	
313.3	2323.1	
313.51	4389.5	
313.71	4599.1	
313.92	2293	
314.13	2361.3	
314.34	4171.7	
314.55	4049.5	
314.76	2798.2	
314.96	2483.5	
315.17	4300.1	
315.38	3960.8	
315.59	2375.6	
315.8	2222.7	
316.01	4355.3	
316.21	4473.4	
316.42	2309.4	
316.63	2528.6	
316.84	3983.3	
317.05	4298	
317.26	2651.4	
317.46	2445.3	
317.67	4049.5	
317.88	4261.1	
318.09	2736.1	
318.3	2209.8	
318.5	4016.7	
318.71	4143.7	
318.92	3248.1	
319.13	2616.6	
319.34	4282.3	
319.54	4351.9	
319.75	2213.2	
319.96	2105.3	
320.17	4128.7	
320.38	4293.9	
320.58	2174.9	
320.79	2456.2	
321	4373.8	
321.21	4422.9	
321.42	2491	
321.62	2166.8	
321.83	3921.2	
322.04	4045.4	
322.25	2527.2	
322.46	2314.9	
322.66	4036.5	
322.87	4259.8	
323.08	2657.6	
323.29	2255.5	
323.5	4564.2	
323.7	3852.2	
323.91	2852.1	
324.12	2633.7	
324.33	4194.2	
324.53	4197	
324.74	2529.9	
324.95	2644.6	
325.16	3857.7	
325.37	3973.7	
325.57	2323.1	
325.78	2338.8	
325.99	4169	
326.2	3802.4	
326.4	2954.5	
326.61	2181.1	
326.82	3984.7	
327.03	4075.5	
327.24	3024.8	
327.44	2841.2	
327.65	4240	
327.86	3628.3	
328.07	2566.8	
328.27	2218.6	
328.48	4437.3	
328.69	3801	
328.9	2953.2	
329.1	2328.5	
329.31	4065.2	
329.52	4361.5	
329.73	2393.4	
329.93	2445.3	
330.14	4192.2	
330.35	4121.2	
330.56	3317.7	
330.76	2661	
330.97	3950.5	
331.18	4006.5	
331.39	2532.7	
331.59	2180.4	
331.8	4352.6	
332.01	4395.6	
332.22	2364	
332.42	2510.8	
332.63	4118.5	
332.84	3861.1	
333.05	2505.3	
333.25	2392	
333.46	3863.2	
333.67	3984.7	
333.88	2416.6	
334.08	2556.5	
334.29	4874.8	
334.5	4289.8	
334.7	2258.9	
334.91	2964.1	
335.12	3715.7	
335.33	4177.2	
335.53	2517.6	
335.74	3265.8	
335.95	4074.1	
336.16	3691.1	
336.36	2486.9	
336.57	2745.6	
336.78	3579.2	
336.98	4311.7	
337.19	2934.7	
337.4	2446.6	
337.61	4685.8	
337.81	3825.6	
338.02	2407.7	
338.23	2751.1	
338.43	4427	
338.64	3914.4	
338.85	2335.4	
339.05	2837.1	
339.26	4573.1	
339.47	3739.6	
339.68	2344.9	
339.88	3026.2	
340.09	4266.6	
340.3	4290.5	
340.5	2579.8	
340.71	2165.4	
340.92	3891.8	
341.13	4347.8	
341.33	2218.6	
341.54	2548.4	
341.75	4165.6	
341.95	3934.1	
342.16	2533.3	
342.37	2603.7	
342.57	3820.8	
342.78	3969.6	
342.99	2663.7	
343.19	2195.4	
343.4	4188.1	
343.61	4199	
343.81	2452.8	
344.02	2200.2	
344.23	4236.6	
344.43	4397.7	
344.64	2737.5	
344.85	2663	
345.06	4226.3	
345.26	4311	
345.47	2626.2	
345.68	2889	
345.88	3762.1	
346.09	4279.6	
346.3	2618.7	
346.5	2116.2	
346.71	3943.7	
346.92	3957.4	
347.12	2269.8	
347.33	2529.9	
347.54	4310.3	
347.74	4448.9	
347.95	2540.2	
348.16	2121.7	
348.36	3942.3	
348.57	3836.5	
348.78	2677.4	
348.98	2691.7	
349.19	3991.5	
349.39	3691.8	
349.6	2261.6	
349.81	2349.7	
350.01	4286.4	
350.22	3867.2	
350.43	2613.2	
350.63	2865.1	
350.84	4007.9	
351.05	3860.4	
351.25	2344.9	
351.46	2258.2	
351.67	4122.6	
351.87	3881.6	
352.08	2484.9	
352.29	2690.3	
352.49	4263.9	
352.7	4287.1	
352.9	2268.5	
353.11	2688.3	
353.32	4557.4	
353.52	3953.9	
353.73	2338.1	
353.94	2729.9	
354.14	4249.5	
354.35	3886.4	
354.55	2424.8	
354.76	2551.1	
354.97	4231.1	
355.17	4015.4	
355.38	2369.5	
355.59	2863.1	
355.79	3914.4	
356	4125.3	
356.2	2603	
356.41	2353.8	
356.62	3809.9	
356.82	3985.3	
357.03	2715.6	
357.24	2477.4	
357.44	3899.3	
357.65	4022.2	
357.85	2998.9	
358.06	2622.1	
358.27	3812	
358.47	3835.2	
358.68	2333.3	
358.88	2707.4	
359.09	4236.6	
359.3	4346.5	
359.5	3084.9	
359.71	2798.9	
359.91	4491.9	
360.12	4146.5	
360.33	2820.1	
360.53	2996.9	
360.74	3990.8	
360.94	3953.9	
361.15	2832.3	
361.36	2503.3	
361.56	4416.1	
361.77	4171	
361.97	3084.9	
362.18	2618.7	
362.38	4455	
362.59	3926.6	
362.8	2449.4	
363	2453.5	
363.21	3833.8	
363.41	4154.6	
363.62	2766.1	
363.83	3160	
364.03	4401.8	
364.24	4551.3	
364.44	3279.5	
364.65	3244.7	
364.85	4141	
365.06	3979.2	
365.27	2602.3	
365.47	2694.4	
365.68	4592.9	
365.88	4145.8	
366.09	2816.6	
366.29	2622.1	
366.5	4134.2	
366.71	4429.1	
366.91	3235.8	
367.12	2943.6	
367.32	4869.4	
367.53	4332.1	
367.73	2938.8	
367.94	3358	
368.14	4459.8	
368.35	4536.3	
368.56	2879.4	
368.76	2562	
368.97	4351.3	
369.17	5125.4	
369.38	2577	
369.58	2731.3	
369.79	3849.5	
369.99	4620.9	
370.2	3303.4	
370.4	2794.1	
370.61	4289.8	
370.82	4896	
371.02	2820.1	
371.23	2435	
371.43	4059.8	
371.64	4700.1	
371.84	2832.3	
372.05	3320.4	
372.25	5180	
372.46	4343.1	
372.66	2867.8	
372.87	2847.4	
373.07	4403.8	
373.28	5373.9	
373.48	3345	
373.69	3169.6	
373.9	4315.8	
374.1	4259.1	
374.31	3298.6	
374.51	3084.2	
374.72	4696	
374.92	4154	
375.13	3495.2	
375.33	3041.2	
375.54	4514.4	
375.74	4239.3	
375.95	3177.1	
376.15	3743	
376.36	4645.5	
376.56	4534.9	
376.77	3185.3	
376.97	3358	
377.18	5231.2	
377.38	4686.4	
377.59	3429.7	
377.79	2950.4	
378	4592.2	
378.2	4735.6	
378.41	2981.2	
378.61	2970.2	
378.82	4871.4	
379.02	4458.4	
379.23	3134.1	
379.43	3576.4	
379.64	5043.5	
379.84	4670.1	
380.05	3069.2	
380.25	2962.7	
380.46	4781.3	
380.66	4508.9	
380.87	3695.2	
381.07	3812	
381.28	5040.1	
381.48	4696	
381.69	3017.3	
381.89	3017.3	
382.1	4188.1	
382.3	4628.4	
382.51	3536.2	
382.71	3945.1	
382.91	4533.5	
383.12	4883.7	
383.32	3156.6	
383.53	3243.3	
383.73	4657.1	
383.94	4559.5	
384.14	3220.8	
384.35	2764.1	
384.55	4194.9	
384.76	4608.6	
384.96	3174.4	
385.17	3255.6	
385.37	4640.7	
385.58	4196.3	
385.78	3187.3	
385.98	2734	
386.19	4396.3	
386.39	4633.9	
386.6	3035.1	
386.8	3102	
387.01	4645.5	
387.21	4699.4	
387.42	3309.5	
387.62	3579.8	
387.83	4442.7	
388.03	4407.2	
388.23	3316.3	
388.44	3592.1	
388.64	4229.1	
388.85	4181.3	
389.05	3411.9	
389.26	3670.6	
389.46	5556.8	
389.67	5101.5	
389.87	3495.9	
390.07	3417.4	
390.28	4536.3	
390.48	4307.6	
390.69	2988.7	
390.89	3173.7	
391.1	4493.9	
391.3	4904.9	
391.5	3859.1	
391.71	3987.4	
391.91	4929.5	
392.12	5176.6	
392.32	3829	
392.53	3425.6	
392.73	4444.1	
392.93	4539	
393.14	3266.5	
393.34	3581.9	
393.55	4855.7	
393.75	4419.5	
393.95	3192.8	
394.16	3167.5	
394.36	4470	
394.57	4811.4	
394.77	2997.5	
394.98	3119.7	
395.18	4508.9	
395.38	4595	
395.59	3749.8	
395.79	3242.6	
396	4657.1	
396.2	4948.6	
396.4	3753.2	
396.61	3611.9	
396.81	4913.8	
397.02	4518.5	
397.22	3853.6	
397.42	3807.2	
397.63	5078.3	
397.83	4629.1	
398.04	3211.2	
398.24	3511.6	
398.44	4902.8	
398.65	4355.3	
398.85	3203.7	
399.05	3254.9	
399.26	4723.3	
399.46	5504.9	
399.67	3532.1	
399.87	3312.2	
400.07	4857.8	
400.28	4990.2	
400.48	3476.1	
400.69	3999	
400.89	5095.3	
401.09	5431.9	
401.3	3431.7	
401.5	4015.4	
401.7	5410.1	
401.91	5597.1	
402.11	3734.8	
402.32	3661.8	
402.52	5186.1	
402.72	5008	
402.93	3829.7	
403.13	3018	
403.33	5462.6	
403.54	4663.2	
403.74	3463.1	
403.94	3802.4	
404.15	4657.8	
404.35	5358.2	
404.56	3390.1	
404.76	4233.8	
404.96	5141.1	
405.17	4992.9	
405.37	4104.8	
405.57	3751.2	
405.78	5197.1	
405.98	4799.1	
406.18	3542.3	
406.39	3901.4	
406.59	5075.5	
406.79	4745.1	
407	3181.2	
407.2	3276.8	
407.4	5342.5	
407.61	5199.8	
407.81	3411.9	
408.01	4190.1	
408.22	4543.1	
408.42	5716.6	
408.62	4212.7	
408.83	3984.7	
409.03	5126.1	
409.23	5154.7	
409.44	4058.4	
409.64	4178.5	
409.84	5767.8	
410.05	5761.6	
410.25	4250.9	
410.45	4065.2	
410.66	5552.7	
410.86	6749.4	
411.06	4398.4	
411.27	4289.1	
411.47	6687.3	
411.67	5700.9	
411.88	4407.9	
412.08	4625.7	
412.28	5965.7	
412.49	6245.6	
412.69	4443.4	
412.89	4415.4	
413.09	6194.4	
413.3	6155.5	
413.5	4547.9	
413.7	4388.1	
413.91	5616.9	
414.11	6241.5	
414.31	4586.8	
414.52	4674.8	
414.72	6096.8	
414.92	6034	
415.12	4461.2	
415.33	4769	
415.53	6083.1	
415.73	6384.9	
415.94	4952	
416.14	4534.2	
416.34	5866.7	
416.55	5643.5	
416.75	5179.3	
416.95	4958.1	
417.15	6446.3	
417.36	6645	
417.56	5431.9	
417.76	4846.9	
417.97	6461.3	
418.17	6401.3	
418.37	4781.3	
418.57	4787.5	
418.78	6415.6	
418.98	6137.8	
419.18	5156.1	
419.38	5009.3	
419.59	6064	
419.79	5848.3	
419.99	4606.6	
420.2	4666	
420.4	6363.7	
420.6	6320.7	
420.8	4577.9	
421.01	4517.8	
421.21	6366.5	
421.41	6281.1	
421.61	4718.5	
421.82	4643.4	
422.02	6140.5	
422.22	6504.3	
422.42	4926.7	
422.63	4728.8	
422.83	5965.1	
423.03	6649.1	
423.23	4774.5	
423.44	4272.7	
423.64	6021	
423.84	5803.3	
424.04	4479.6	
424.25	4345.8	
424.45	6404.7	
424.65	6294.1	
424.85	4185.4	
425.06	4470	
425.26	6584.9	
425.46	5924.8	
425.66	4673.5	
425.87	4600.4	
426.07	6284.5	
426.27	6016.9	
426.47	4626.4	
426.67	4122.6	
426.88	6396.5	
427.08	6116.6	
427.28	4784.7	
427.48	4132.1	
427.69	5618.9	
427.89	5876.3	
428.09	4607.2	
428.29	4185.4	
428.5	6120	
428.7	6032	
428.9	4194.2	
429.1	4379.9	
429.3	6084.5	
429.51	6083.8	
429.71	4392.2	
429.91	4751.3	
430.11	6297.5	
430.31	6336.4	
430.52	4586.8	
430.72	4637.3	
430.92	6477.7	
431.12	6136.4	
431.32	4374.5	
431.53	4511.7	
431.73	5601.2	
431.93	6388.3	
432.13	4291.9	
432.33	4290.5	
432.54	5989.6	
432.74	6033.3	
432.94	4272.1	
433.14	4842.1	
433.34	6410.1	
433.55	6151.4	
433.75	4734.9	
433.95	5612.1	
434.15	6186.9	
434.35	5939.8	
434.56	4416.1	
434.76	4176.5	
434.96	6100.2	
435.16	6253.8	
435.36	4405.2	
435.56	4952	
435.77	6049.7	
435.97	6128.2	
436.17	5255.8	
436.37	4917.2	
436.57	5902.9	
436.78	6023.8	
436.98	5751.4	
437.18	5221	
437.38	6178.7	
437.58	5845.6	
437.78	5178.6	
437.99	4548.5	
438.19	6279.8	
438.39	6909.2	
438.59	4556	
438.79	4180.6	
438.99	6575.3	
439.2	5898.1	
439.4	4194.9	
439.6	4247.5	
439.8	6032	
440	6698.2	
440.2	4955.4	
440.4	4990.9	
440.61	6599.2	
440.81	6719.4	
441.01	4646.2	
441.21	5102.2	
441.41	6868.2	
441.61	6475.7	
441.81	5241.4	
442.02	5591	
442.22	6921.5	
442.42	6555.5	
442.62	4619.5	
442.82	4533.5	
443.02	6864.8	
443.22	6352.8	
443.43	4931.5	
443.63	4672.8	
443.83	6294.8	
444.03	6222.4	
444.23	5327.4	
444.43	5030.5	
444.63	6567.2	
444.83	6960.4	
445.04	4829.8	
445.24	5307.7	
445.44	6567.2	
445.64	6574.7	
445.84	4978.6	
446.04	5018.9	
446.24	6108.4	
446.44	6612.2	
446.65	4564.2	
446.85	4734.2	
447.05	6233.3	
447.25	6476.4	
447.45	4948.6	
447.65	4463.9	
447.85	6365.8	
448.05	6066.8	
448.25	4973.8	
448.46	4876.2	
448.66	6333	
448.86	6063.4	
449.06	4581.3	
449.26	4986.8	
449.46	6585.6	
449.66	6140.5	
449.86	4941.1	
450.06	4783.4	
450.26	6153.5	
450.47	6467.5	
450.67	4897.4	
450.87	5044.1	
451.07	6709.1	
451.27	6331.6	
451.47	4549.9	
451.67	5025	
451.87	6216.3	
452.07	6782.2	
452.27	4786.8	
452.47	4719.9	
452.67	6389	
452.88	6424.5	
453.08	4379.2	
453.28	5220.3	
453.48	7029.3	
453.68	6148	
453.88	4671.4	
454.08	4688.5	
454.28	6558.3	
454.48	6397.2	
454.68	5010.7	
454.88	5210	
455.08	6694.1	
455.28	6516.6	
455.48	4610.7	
455.68	5100.1	
455.89	6858	
456.09	6668.2	
456.29	4881	
456.49	4971.1	
456.69	6858	
456.89	6367.8	
457.09	5176.6	
457.29	5360.2	
457.49	6637.5	
457.69	6709.1	
457.89	5225.7	
458.09	4807.3	
458.29	6578.8	
458.49	7010.2	
458.69	5341.8	
458.89	5035.3	
459.09	7167.2	
459.29	7070.3	
459.49	5010	
459.69	5423.7	
459.9	6822.5	
460.1	6691.4	
460.3	5036.6	
460.5	4858.5	
460.7	6857.3	
460.9	6536.4	
461.1	4815.5	
461.3	5365.7	
461.5	7373.4	
461.7	7055.3	
461.9	5132.9	
462.1	5296.7	
462.3	6895.5	
462.5	7060	
462.7	5143.8	
462.9	5252.4	
463.1	7593.2	
463.3	7480.5	
463.5	5363.6	
463.7	5836	
463.9	7071	
464.1	7177.4	
464.3	5538.4	
464.5	5520.6	
464.7	7339.9	
464.9	7133.8	
465.1	6126.8	
465.3	5725.4	
465.5	7410.9	
465.7	7522.2	
465.9	5956.9	
466.1	5618.9	
466.3	7343.3	
466.5	7223.9	
466.7	6174.6	
466.9	5642.2	
467.1	7608.9	
467.3	7746.1	
467.5	6262.7	
467.7	5694.7	
467.9	8028.7	
468.1	8310	
468.3	5955.5	
468.5	6207.4	
468.7	7292.8	
468.9	7254.6	
469.1	5920	
469.3	6171.9	
469.5	8383.7	
469.7	7225.9	
469.9	6077.7	
470.1	5739.1	
470.3	7544	
470.5	7400	
470.7	6340.5	
470.9	5786.9	
471.1	7200.7	
471.3	7431.4	
471.5	5592.3	
471.69	6446.3	
471.89	7283.9	
472.09	6836.8	
472.29	6006.7	
472.49	6126.2	
472.69	7080.5	
472.89	7359.7	
473.09	5591	
473.29	5529.5	
473.49	7135.1	
473.69	6905.1	
473.89	5965.1	
474.09	5583.4	
474.29	7692.2	
474.49	7346.7	
474.69	6011.5	
474.89	5588.9	
475.09	7078.5	
475.29	6998.6	
475.49	5398.4	
475.69	5589.6	
475.88	7720.8	
476.08	7303.7	
476.28	5279.7	
476.48	5406.6	
476.68	7495.6	
476.88	7076.4	
477.08	5405.3	
477.28	5477.6	
477.48	7094.2	
477.68	7240.3	
477.88	5298.8	
478.08	5338.4	
478.28	7501	
478.48	7043.6	
478.67	5502.9	
478.87	5119.2	
479.07	7400.7	
479.27	7103.7	
479.47	5455.8	
479.67	5515.9	
479.87	7290.8	
480.07	7380.9	
480.27	5263.3	
480.47	5921.4	
480.67	7045	
480.87	7391.1	
481.06	5373.2	
481.26	5728.2	
481.46	7192.5	
481.66	6952.9	
481.86	5542.5	
482.06	5843.5	
482.26	6924.2	
482.46	7406.8	
482.66	5487.9	
482.86	5240.8	
483.05	7298.3	
483.25	6778.8	
483.45	6637.5	
483.65	5535	
483.85	6748.1	
484.05	6982.9	
484.25	5713.8	
484.45	5864.7	
484.65	7277.1	
484.84	7452.6	
485.04	5477.6	
485.24	5460.6	
485.44	7777.5	
485.64	6787	
485.84	5233.9	
486.04	5806.7	
486.24	7098.3	
486.44	7105.1	
486.63	5205.9	
486.83	5596.4	
487.03	7094.2	
487.23	7053.9	
487.43	5199.8	
487.63	6274.3	
487.83	7194.5	
488.02	7082.6	
488.22	5687.9	
488.42	5952.8	
488.62	7576.1	
488.82	6935.1	
489.02	5500.8	
489.22	5509	
489.41	7143.3	
489.61	7364.5	
489.81	5382.7	
490.01	5404.6	
490.21	7502.4	
490.41	7836.2	
490.61	5413.5	
490.8	5459.2	
491	7138.5	
491.2	6902.3	
491.4	5651	
491.6	5261.9	
491.8	7111.9	
491.99	7012.9	
492.19	5227.1	
492.39	5261.9	
492.59	7290.1	
492.79	7459.4	
492.99	5842.2	
493.18	5469.4	
493.38	7604.8	
493.58	8033.5	
493.78	5793.7	
493.98	5616.9	
494.18	7347.4	
494.37	6954.9	
494.57	5991.7	
494.77	5839.4	
494.97	7593.2	
495.17	7801.4	
495.37	5780.7	
495.56	5960.3	
495.76	7591.8	
495.96	7709.2	
496.16	6360.3	
496.36	5874.3	
496.55	7863.5	
496.75	7537.9	
496.95	6044.2	
497.15	5976	
497.35	7777.5	
497.54	7642.3	
497.74	5937.7	
497.94	6735.1	
498.14	8174.1	
498.34	7882.6	
498.53	5779.4	
498.73	6219.7	
498.93	7403.4	
499.13	7773.4	
499.33	6151.4	
499.52	6224.5	
499.72	7967.3	
499.92	7767.9	
500.12	5999.2	
500.32	6053.8	
500.51	7798	
500.71	7707.9	
500.91	6373.3	
501.11	6197.2	
501.31	7756.3	
501.5	8060.8	
501.7	6540.5	
501.9	6087.2	
502.1	7780.9	
502.29	7996.6	
502.49	6276.3	
502.69	6369.9	
502.89	7808.9	
503.09	7789.8	
503.28	5732.9	
503.48	5781.4	
503.68	7496.9	
503.88	7238.9	
504.07	6212.2	
504.27	5882.4	
504.47	7625.3	
504.67	7591.8	
504.86	6210.1	
505.06	5902.2	
505.26	7492.2	
505.46	8077.9	
505.65	5819	
505.85	5900.2	
506.05	7318.8	
506.25	7578.8	
506.44	5599.1	
506.64	5935	
506.84	7316.7	
507.04	7550.2	
507.23	5579.3	
507.43	5789.6	
507.63	7969.3	
507.83	7094.2	
508.02	5859.9	
508.22	5599.1	
508.42	8180.3	
508.62	7008.1	
508.81	5626.5	
509.01	5941.8	
509.21	6974.7	
509.4	7244.3	
509.6	5840.1	
509.8	5526.1	
510	7250.5	
510.19	7554.3	
510.39	5488.6	
510.59	5487.9	
510.79	7094.2	
510.98	7769.3	
511.18	5674.9	
511.38	5533.6	
511.57	7636.9	
511.77	7169.9	
511.97	5877.7	
512.17	5517.9	
512.36	7460.1	
512.56	7273.7	
512.76	5424.4	
512.95	5326.8	
513.15	7662.1	
513.35	6825.9	
513.55	5924.8	
513.74	5390.3	
513.94	7503.8	
514.14	7147.4	
514.33	5973.9	
514.53	5745.2	
514.73	7282.6	
514.92	7168.6	
515.12	5556.8	
515.32	5410.7	
515.51	7294.2	
515.71	7280.5	
515.91	6297.5	
516.11	5448.3	
516.3	8028	
516.5	7188.4	
516.7	5718.6	
516.89	5948	
517.09	7100.3	
517.29	7233.4	
517.48	5917.9	
517.68	5550.7	
517.88	6619.7	
518.07	7392.5	
518.27	5843.5	
518.47	5339.1	
518.66	7520.1	
518.86	6918.7	
519.06	5271.5	
519.25	5459.2	
519.45	7039.6	
519.65	7762.5	
519.84	5774.6	
520.04	6090.7	
520.24	7939.3	
520.43	7311.9	
520.63	5664.7	
520.83	5502.9	
521.02	7038.9	
521.22	7175.4	
521.42	5700.2	
521.61	5900.2	
521.81	6952.9	
522.01	7277.1	
522.2	5739.1	
522.4	5631.2	
522.6	7507.9	
522.79	6780.8	
522.99	5628.5	
523.18	5302.2	
523.38	7361.8	
523.58	7323.5	
523.77	6298.2	
523.97	5388.9	
524.17	8150.9	
524.36	7898.3	
524.56	6045.6	
524.76	5930.9	
524.95	7303.1	
525.15	7288	
525.34	5741.1	
525.54	5801.2	
525.74	7600.7	
525.93	7099.6	
526.13	6390.3	
526.33	5776	
526.52	7826.7	
526.72	7447.8	
526.91	6425.8	
527.11	6001.9	
527.31	7623.2	
527.5	7759.1	
527.7	6055.8	
527.89	5614.2	
528.09	7316.7	
528.29	7592.5	
528.48	6200.6	
528.68	6009.4	
528.87	7847.8	
529.07	7724.3	
529.27	6073.6	
529.46	5670.8	
529.66	7562.5	
529.85	7630.7	
530.05	5714.5	
530.25	5997.1	
530.44	8189.8	
530.64	7461.4	
530.83	5878.4	
531.03	5961.6	
531.23	7975.5	
531.42	7562.5	
531.62	6391.7	
531.81	5994.4	
532.01	7681.2	
532.21	7888.1	
532.4	6068.8	
532.6	6198.5	
532.79	8353	
532.99	7952.3	
533.18	6247	
533.38	6638.8	
533.58	7718.8	
533.77	7931.1	
533.97	6198.5	
534.16	6461.3	
534.36	8226.7	
534.55	7718.8	
534.75	6649.1	
534.95	6231.3	
535.14	8182.3	
535.34	7668.3	
535.53	5969.8	
535.73	6777.4	
535.92	8361.9	
536.12	7576.8	
536.31	5967.8	
536.51	6521.4	
536.71	7944.1	
536.9	7620.5	
537.1	6076.3	
537.29	6183.5	
537.49	8129.1	
537.68	7600.7	
537.88	6356.2	
538.07	5907.7	
538.27	7735.2	
538.46	8245.1	
538.66	5949.3	
538.86	6107.7	
539.05	7896.3	
539.25	7985.7	
539.44	6339.1	
539.64	5984.8	
539.83	7746.8	
540.03	8032.8	
540.22	5983.5	
540.42	5968.5	
540.61	7827.3	
540.81	7866.9	
541	6132.3	
541.2	6463.4	
541.39	7484.6	
541.59	7625.3	
541.78	6371.2	
541.98	5927.5	
542.18	7280.5	
542.37	7309.9	
542.57	6105.7	
542.76	6292	
542.96	7316.7	
543.15	7441.6	
543.35	6014.2	
543.54	5662	
543.74	7058	
543.93	7479.9	
544.13	5836	
544.32	6402	
544.52	7732.4	
544.71	7329	
544.91	5565.7	
545.1	6070.9	
545.3	7410.9	
545.49	7520.1	
545.69	5489.9	
545.88	5799.8	
546.08	8105.9	
546.27	7735.9	
546.47	5891.3	
546.66	5593.7	
546.86	7696.9	
547.05	7738.6	
547.24	5840.8	
547.44	5646.2	
547.63	7220.5	
547.83	7599.3	
548.02	5782.1	
548.22	5843.5	
548.41	7051.8	
548.61	7540.6	
548.8	5605.3	
549	5562.3	
549.19	7407.5	
549.39	7505.1	
549.58	5380	
549.78	5665.4	
549.97	7535.8	
550.17	7178.1	
550.36	6101.6	
550.55	6587.6	
550.75	7217.7	
550.94	7681.2	
551.14	5538.4	
551.33	5649.7	
551.53	6870.9	
551.72	7280.5	
551.92	5659.2	
552.11	5642.8	
552.31	7507.9	
552.5	7290.8	
552.69	6318.7	
552.89	5411.4	
553.08	7400	
553.28	7239.6	
553.47	5593.7	
553.67	5996.5	
553.86	7544.7	
554.06	6769.9	
554.25	5241.4	
554.44	5442.8	
554.64	7944.1	
554.83	7707.2	
555.03	5409.4	
555.22	5539.8	
555.42	7488.1	
555.61	7217.7	
555.8	5448.3	
556	5586.9	
556.19	6832	
556.39	7202	
556.58	5502.9	
556.78	5472.9	
556.97	7229.3	
557.16	7107.1	
557.36	6030.6	
557.55	5318.6	
557.75	6703	
557.94	7557.7	
558.13	5306.3	
558.33	5271.5	
558.52	7492.2	
558.72	6609.5	
558.91	5268.7	
559.1	5236.7	
559.3	6657.9	
559.49	6618.4	
559.69	5272.8	
559.88	5425.8	
560.07	7103.7	
560.27	7409.6	
560.46	5627.8	
560.66	5647.6	
560.85	6997.9	
561.04	6518.7	
561.24	5225.7	
561.43	5304.9	
561.63	6737.8	
561.82	6927.6	
562.01	5819	
562.21	5371.1	
562.4	7131.7	
562.59	7520.1	
562.79	5446.2	
562.98	5204.6	
563.18	6972.7	
563.37	7639.6	
563.56	5602.6	
563.76	5254.4	
563.95	6766.5	
564.14	6847.7	
564.34	5493.3	
564.53	5248.9	
564.73	7088.7	
564.92	7027.9	
565.11	5466.7	
565.31	5139.7	
565.5	7299.6	
565.69	6675	
565.89	5350.7	
566.08	5396.4	
566.27	7088.7	
566.47	7371.3	
566.66	5770.5	
566.85	5081	
567.05	7065.5	
567.24	6836.1	
567.44	5266	
567.63	5836	
567.82	7148.8	
568.02	6849.8	
568.21	5162.2	
568.4	5335	
568.6	6982.9	
568.79	6778.8	
568.98	5279.7	
569.18	5174.5	
569.37	6993.1	
569.56	7680.6	
569.76	5349.3	
569.95	5768.4	
570.14	7171.3	
570.34	6819.7	
570.53	5222.3	
570.72	5094	
570.91	7288.7	
571.11	6907.8	
571.3	5412.8	
571.49	5790.3	
571.69	6989.7	
571.88	6624.5	
572.07	5597.1	
572.27	5558.9	
572.46	6684.6	
572.65	7065.5	
572.85	5307	
573.04	5378.6	
573.23	7328.3	
573.43	6942.6	
573.62	5221	
573.81	5468.8	
574	7083.2	
574.2	6888.7	
574.39	5362.9	
574.58	5294.7	
574.78	7347.4	
574.97	7091.4	
575.16	5538.4	
575.36	5551.4	
575.55	7253.9	
575.74	7229.3	
575.93	5160.9	
576.13	5530.2	
576.32	6892.1	
576.51	7186.3	
576.71	5440.8	
576.9	6030.6	
577.09	7344.7	
577.28	7064.8	
577.48	5638.1	
577.67	5122.7	
577.86	7046.4	
578.05	7295.5	
578.25	5496.7	
578.44	5452.4	
578.63	6990.4	
578.83	7548.8	
579.02	5194.3	
579.21	5930.2	
579.4	7070.3	
579.6	7008.1	
579.79	5461.9	
579.98	6444.3	
580.17	7191.1	
580.37	7385.7	
580.56	5282.4	
580.75	5664	
580.94	7275.8	
581.14	7510.6	
581.33	5816.9	
581.52	5421.7	
581.71	7179.5	
581.91	7638.9	
582.1	5256.5	
582.29	5439.4	
582.48	7030	
582.68	7077.1	
582.87	5692.7	
583.06	5540.4	
583.25	7340.6	
583.45	6866.8	
583.64	5905	
583.83	6092	
584.02	7060.7	
584.21	7310.6	
584.41	5840.1	
584.6	5538.4	
584.79	7169.9	
584.98	7251.2	
585.18	5274.9	
585.37	5261.2	
585.56	7027.9	
585.75	7165.8	
585.94	5356.8	
586.14	5632.6	
586.33	7464.8	
586.52	6964.5	
586.71	5563	
586.91	5378.6	
587.1	6696.9	
587.29	7221.1	
587.48	5314.5	
587.67	5251	
587.87	7195.9	
588.06	6943.3	
588.25	5890	
588.44	5462.6	
588.63	6818.4	
588.83	7071.6	
589.02	5317.9	
589.21	5134.9	
589.4	6812.9	
589.59	6683.9	
589.78	4694.6	
589.98	4772.4	
590.17	6319.3	
590.36	6405.4	
590.55	4471.4	
590.74	4758.1	
590.94	6979.5	
591.13	6439.5	
591.32	4867.3	
591.51	4542.4	
591.7	6582.9	
591.89	6462.7	
592.09	4617.5	
592.28	4807.3	
592.47	6029.9	
592.66	7129.7	
592.85	4599.1	
593.05	4722.6	
593.24	6363.7	
593.43	6906.4	
593.62	4848.9	
593.81	4989.5	
594	6484.6	
594.19	6546	
594.39	4749.2	
594.58	4698	
594.77	6661.4	
594.96	6781.5	
595.15	4700.1	
595.34	4917.2	
595.54	6385.6	
595.73	6123.4	
595.92	4411.3	
596.11	4835.3	
596.3	6774.7	
596.49	6203.3	
596.68	4810	
596.88	5026.4	
597.07	6601.3	
597.26	6062.7	
597.45	4615.4	
597.64	5144.5	
597.83	6319.3	
598.02	6520	
598.22	4587.4	
598.41	4952.7	
598.6	6419.7	
598.79	6127.5	
598.98	4648.2	
599.17	5074.2	
599.36	6569.2	
599.55	6911.9	
599.74	5537.7	
599.94	5455.8	
600.13	6751.5	
600.32	6116.6	
600.51	4566.3	
600.7	4652.3	
600.89	7027.3	
601.08	7055.3	
601.27	4561.5	
601.47	5005.2	
601.66	6587	
601.85	6858.6	
602.04	4979.3	
602.23	4902.2	
602.42	6191	
602.61	6570.6	
602.8	4780	
602.99	4762.2	
603.18	6442.2	
603.37	6514.6	
603.57	5085.8	
603.76	5242.1	
603.95	6854.6	
604.14	6609.5	
604.33	4891.2	
604.52	4859.1	
604.71	6571.9	
604.9	6233.3	
605.09	5226.4	
605.28	5008	
605.47	6815.6	
605.66	6383.5	
605.86	4991.6	
606.05	4687.8	
606.24	6817.7	
606.43	5973.2	
606.62	4963.6	
606.81	5173.2	
607	6729.6	
607.19	6283.9	
607.38	4577.9	
607.57	4658.4	
607.76	6238.1	
607.95	5827.2	
608.14	4944.5	
608.33	5178.6	
608.52	6240.2	
608.72	6634.7	
608.91	4496.7	
609.1	4534.2	
609.29	6254.5	
609.48	5940.5	
609.67	4953.4	
609.86	4536.3	
610.05	6019.7	
610.24	6115.9	
610.43	4539	
610.62	4287.8	
610.81	6785.6	
611	6634.7	
611.19	4558.8	
611.38	4864.6	
611.57	6373.3	
611.76	6892.8	
611.95	4422.9	
612.14	4414.7	
612.33	6212.9	
612.52	5983.5	
612.71	4655.7	
612.9	4329.4	
613.09	5898.8	
613.28	7017	
613.47	4601.1	
613.66	4962.2	
613.85	6354.8	
614.04	5937.1	
614.24	4613.4	
614.43	4242	
614.62	6384.9	
614.81	6391.7	
615	4708.3	
615.19	4853.7	
615.38	6041.5	
615.57	6242.2	
615.76	4777.2	
615.95	5215.5	
616.14	6469.5	
616.33	6202.6	
616.52	4937.7	
616.71	4973.8	
616.9	6369.2	
617.09	6256.5	
617.28	4709	
617.47	5075.5	
617.66	5995.1	
617.85	5940.5	
618.04	5031.2	
618.22	4712.4	
618.41	5969.1	
618.6	6641.6	
618.79	4798.4	
618.98	4702.1	
619.17	6713.9	
619.36	5825.8	
619.55	4801.1	
619.74	4717.2	
619.93	6401.3	
620.12	6083.1	
620.31	5063.3	
620.5	5019.6	
620.69	6626.5	
620.88	6866.8	
621.07	5423	
621.26	4973.2	
621.45	6498.2	
621.64	6453.8	
621.83	5042.1	
622.02	4674.1	
622.21	6485.9	
622.4	6421.1	
622.59	5240.1	
622.78	5307.7	
622.97	6300.2	
623.16	6643.6	
623.35	5086.5	
623.54	4521.9	
623.72	6256.5	
623.91	6345.3	
624.1	5126.1	
624.29	4540.3	
624.48	6901.7	
624.67	6624.5	
624.86	5055.1	
625.05	4655	
625.24	7008.8	
625.43	6325.5	
625.62	5757.5	
625.81	4780.6	
626	6660.7	
626.19	6335.7	
626.38	5001.1	
626.56	4808.6	
626.75	6101.6	
626.94	6556.9	
627.13	5096	
627.32	4481	
627.51	6654.5	
627.7	6923.5	
627.89	4528.1	
628.08	5022.3	
628.27	6049.7	
628.46	6301.6	
628.65	4663.2	
628.83	4444.8	
629.02	6481.1	
629.21	6054.5	
629.4	4887.8	
629.59	4942.4	
629.78	6083.8	
629.97	6595.1	
630.16	4941.7	
630.35	4701.5	
630.54	6950.8	
630.72	6703	
630.91	4719.2	
631.1	4945.2	
631.29	6329.6	
631.48	6238.1	
631.67	5090.6	
631.86	4711.7	
632.05	6321.4	
632.24	6326.2	
632.42	4666	
632.61	4960.2	
632.8	6267.5	
632.99	6027.2	
633.18	4932.2	
633.37	5032.5	
633.56	6460.7	
633.75	6404	
633.93	4903.5	
634.12	4807.3	
634.31	6864.1	
634.5	6568.5	
634.69	4839.4	
634.88	5059.2	
635.07	6425.2	
635.25	6642.2	
635.44	5262.6	
635.63	5236	
635.82	6337.8	
636.01	5431.2	
636.2	5214.1	
636.39	4960.2	
636.57	6908.5	
636.76	6408.8	
636.95	4731.5	
637.14	5310.4	
637.33	6524.1	
637.52	6719.4	
637.7	4577.2	
637.89	5127.4	
638.08	6309.8	
638.27	6956.3	
638.46	5092.6	
638.65	5167.7	
638.83	6886.6	
639.02	6223.8	
639.21	5025	
639.4	5204.6	
639.59	6371.9	
639.78	6234	
639.96	4669.4	
640.15	4655	
640.34	6379.4	
640.53	6177.4	
640.72	4541.7	
640.91	4660.5	
641.09	6055.8	
641.28	6608.8	
641.47	4821.6	
641.66	5033.9	
641.85	6282.5	
642.03	6372.6	
642.22	4851.6	
642.41	4709	
642.6	6068.8	
642.79	5756.2	
642.97	4650.9	
643.16	4902.2	
643.35	5988.9	
643.54	5853.1	
643.73	4501.4	
643.91	4854.4	
644.1	5893.4	
644.29	6173.3	
644.48	4500.8	
644.67	4541	
644.85	5589.6	
645.04	6210.8	
645.23	4312.3	
645.42	4491.2	
645.6	5862.7	
645.79	6346.7	
645.98	4431.8	
646.17	3947.1	
646.36	5493.3	
646.54	5819	
646.73	4721.9	
646.92	4229.1	
647.11	5748.6	
647.29	6146	
647.48	4108.2	
647.67	4111	
647.86	6294.8	
648.05	6205.3	
648.23	4269.3	
648.42	4915.1	
648.61	6029.9	
648.8	5847	
648.98	4229.1	
649.17	4375.8	
649.36	5710.4	
649.55	5526.1	
649.73	4255	
649.92	4621.6	
650.11	5691.3	
650.3	5797.1	
650.48	4182.6	
650.67	4166.9	
650.86	5930.9	
651.05	5343.8	
651.23	4222.9	
651.42	4173.1	
651.61	5749.3	
651.79	5563	
651.98	4348.5	
652.17	4065.2	
652.36	5842.9	
652.54	5333.6	
652.73	4203.8	
652.92	4101.4	
653.11	5882.4	
653.29	5930.2	
653.48	3831.7	
653.67	4239.3	
653.85	5643.5	
654.04	6173.9	
654.23	4276.8	
654.42	4170.3	
654.6	5446.9	
654.79	5709.1	
654.98	3905.5	
655.16	4137.6	
655.35	5317.2	
655.54	5044.8	
655.73	3863.8	
655.91	3842	
656.1	5646.9	
656.29	5166.3	
656.47	3725.9	
656.66	4490.5	
656.85	5459.9	
657.03	5314.5	
657.22	3945.8	
657.41	3944.4	
657.59	5437.4	
657.78	5368.4	
657.97	3814.7	
658.16	4087.7	
658.34	5811.5	
658.53	5891.3	
658.72	4613.4	
658.9	4696	
659.09	5632.6	
659.28	5626.5	
659.46	4057.7	
659.65	3938.9	
659.84	5349.3	
660.02	5729.5	
660.21	4046.8	
660.4	3880.2	
660.58	5945.9	
660.77	5396.4	
660.96	4289.8	
661.14	3711.6	
661.33	6048.3	
661.52	6092.7	
661.7	3762.8	
661.89	5225.7	
662.08	5352.7	
662.26	5070.8	
662.45	3933.5	
662.64	3967.6	
662.82	5802.6	
663.01	5304.2	
663.2	3992.9	
663.38	4327.4	
663.57	5709.1	
663.75	5477	
663.94	4053.6	
664.13	4642.1	
664.31	5449.6	
664.5	5666.7	
664.69	4362.2	
664.87	4410	
665.06	5265.3	
665.25	5504.3	
665.43	4519.9	
665.62	4515.8	
665.8	5612.1	
665.99	5363.6	
666.18	4092.5	
666.36	4106.9	
666.55	5730.9	
666.74	5568.4	
666.92	3988.1	
667.11	4663.2	
667.29	5598.5	
667.48	5640.1	
667.67	4426.3	
667.85	4027.7	
668.04	5335.6	
668.22	5298.8	
668.41	4133.5	
668.6	4289.8	
668.78	5261.2	
668.97	5391.6	
669.15	4298	
669.34	3734.8	
669.53	5302.2	
669.71	5453.7	
669.9	3836.5	
670.08	4102.1	
670.27	5210.7	
670.46	5591.6	
670.64	4291.2	
670.83	4444.1	
671.01	5058.5	
671.2	5480.4	
671.38	3947.1	
671.57	3853.6	
671.76	5838.8	
671.94	5937.7	
672.13	3844.7	
672.31	4296	
672.5	5607.3	
672.69	5244.2	
672.87	3932.1	
673.06	4027.7	
673.24	5573.9	
673.43	5322.7	
673.61	4226.3	
673.8	4049.5	
673.98	5510.4	
674.17	5635.3	
674.36	4331.5	
674.54	4331.5	
674.73	5140.4	
674.91	5627.8	
675.1	4048.8	
675.28	3843.4	
675.47	5335	
675.65	5650.3	
675.84	4120.5	
676.03	4141	
676.21	5414.8	
676.4	4948.6	
676.58	4418.2	
676.77	4318.5	
676.95	6105	
677.14	5272.8	
677.32	3803.8	
677.51	3876.1	
677.69	5680.4	
677.88	5234.6	
678.06	3833.1	
678.25	3987.4	
678.44	5406.6	
678.62	5258.5	
678.81	3796.3	
678.99	4141	
679.18	5709.1	
679.36	5502.2	
679.55	4011.3	
679.73	4209.9	
679.92	5547.3	
680.1	5260.5	
680.29	4515.8	
680.47	3978.5	
680.66	5327.4	
680.84	5610.1	
681.03	3743.7	
681.21	4227.7	
681.4	5261.2	
681.58	5171.8	
681.77	3939.6	
681.95	3847.5	
682.14	5737	
682.32	5786.2	
682.51	4278.2	
682.69	3665.2	
682.88	5207.3	
683.06	5339.1	
683.25	4158.7	
683.43	4285.7	
683.62	5445.5	
683.8	5649	
683.99	4425	
684.17	3992.9	
684.36	5882.4	
684.54	5143.8	
684.73	3603.7	
684.91	3705.5	
685.1	5403.9	
685.28	5007.3	
685.46	3930.7	
685.65	3898.6	
685.83	5401.2	
686.02	5062.6	
686.2	3687.7	
686.39	3788.7	
686.57	4999.1	
686.76	5640.1	
686.94	3746.4	
687.13	3792.8	
687.31	5313.8	
687.5	5246.2	
687.68	3550.5	
687.86	4025.6	
688.05	6040.1	
688.23	4896	
688.42	4091.8	
688.6	3780.6	
688.79	5081	
688.97	5147.2	
689.16	3999	
689.34	3461.1	
689.52	5288.5	
689.71	5642.8	
689.89	4128.7	
690.08	3745.7	
690.26	5300.8	
690.45	5105.6	
690.63	4160.1	
690.81	3842	
691	5313.1	
691.18	5081	
691.37	3906.2	
691.55	4787.5	
691.74	5061.2	
691.92	5894.1	
692.1	3873.4	
692.29	3638.6	
692.47	5264	
692.66	4906.3	
692.84	3794.2	
693.02	3975.8	
693.21	4860.5	
693.39	5319.9	
693.58	4038.6	
693.76	3720.5	
693.94	5712.5	
694.13	5649	
694.31	3803.8	
694.5	4259.1	
694.68	5149.3	
694.86	5413.5	
695.05	3975.8	
695.23	4191.5	
695.42	5442.1	
695.6	6432	
695.78	4230.4	
695.97	3827	
696.15	5614.2	
696.34	5175.9	
696.52	3723.2	
696.7	4118.5	
696.89	5323.4	
697.07	5035.3	
697.25	4056.3	
697.44	4588.8	
697.62	5329.5	
697.81	5366.4	
697.99	3946.4	
698.17	4100	
698.36	5132.2	
698.54	5298.8	
698.72	4092.5	
698.91	3556	
699.09	5162.9	
699.28	4909	
699.46	3891.1	
699.64	3829	
699.83	5097.4	
700.01	5487.9	
700.19	4258.4	
700.38	3450.1	
700.56	5346.6	
700.74	5177.3	
700.93	3643.3	
701.11	4056.3	
701.29	5439.4	
701.48	5981.4	
701.66	3711.6	
701.84	3865.2	
702.03	5261.2	
702.21	5544.5	
702.39	3670	
702.58	3894.6	
702.76	5504.9	
702.94	5428.5	
703.13	3559.4	
703.31	4657.1	
703.49	5194.3	
703.68	5591.6	
703.86	3687	
704.04	4156	
704.23	5398.4	
704.41	5548.6	
704.59	3869.3	
704.78	4302.1	
704.96	6204	
705.14	5479.7	
705.33	3722.5	
705.51	4061.8	
705.69	5147.9	
705.87	5655.8	
706.06	4173.1	
706.24	3702	
706.42	5346.6	
706.61	5482.4	
706.79	4229.1	
706.97	3642.7	
707.16	5112.4	
707.34	5347.9	
707.52	4130.8	
707.7	3769.6	
707.89	4954	
708.07	4987.5	
708.25	4210.6	
708.44	4338.3	
708.62	5071.5	
708.8	5683.8	
708.98	4271.4	
709.17	3866.6	
709.35	5329.5	
709.53	5332.2	
709.72	3703.4	
709.9	3766.2	
710.08	5624.4	
710.26	5543.9	
710.45	4447.5	
710.63	3874.1	
710.81	5184.1	
710.99	5316.5	
711.18	4104.8	
711.36	3865.2	
711.54	5238	
711.72	5550.7	
711.91	3904.1	
712.09	3680.2	
712.27	5347.9	
712.45	5599.1	
712.64	3983.3	
712.82	3525.9	
713	5066	
713.18	5025	
713.37	3493.8	
713.55	4070.7	
713.73	5411.4	
713.91	4791.6	
714.1	3630.4	
714.28	3353.2	
714.46	5133.6	
714.64	4754.7	
714.83	3111.5	
715.01	3472	
715.19	4848.9	
715.37	4369.7	
715.55	3300	
715.74	3410.6	
715.92	5113.1	
716.1	4083.6	
716.28	3984.7	
716.47	3398.9	
716.65	4668	
716.83	4534.9	
717.01	3358	
717.19	3330.7	
717.38	5494.7	
717.56	4417.5	
717.74	3476.8	
717.92	3136.8	
718.1	5101.5	
718.29	4642.1	
718.47	3054.9	
718.65	3246.7	
718.83	5141.1	
719.01	5023	
719.2	2963.4	
719.38	3481.5	
719.56	4895.3	
719.74	5504.9	
719.92	3411.9	
720.11	3738.2	
720.29	4984.1	
720.47	4508.9	
720.65	3133.4	
720.83	3398.9	
721.02	4691.2	
721.2	4588.8	
721.38	3454.2	
721.56	3121.8	
721.74	4257.7	
721.92	4262.5	
722.11	3676.1	
722.29	3488.4	
722.47	4970.4	
722.65	4534.9	
722.83	3158.7	
723.01	3479.5	
723.2	4405.2	
723.38	4724	
723.56	2917	
723.74	3379.1	
723.92	4231.8	
724.1	4853.7	
724.29	3041.9	
724.47	3552.5	
724.65	4455.7	
724.83	4323.3	
725.01	3098.6	
725.19	3355.9	
725.37	4384.7	
725.56	4297.3	
725.74	3003	
725.92	3095.8	
726.1	4317.1	
726.28	4574.5	
726.46	3255.6	
726.64	3087	
726.83	4664.6	
727.01	4640.7	
727.19	2977.1	
727.37	3317.7	
727.55	4689.2	
727.73	4870.8	
727.91	2951.1	
728.09	2919.7	
728.28	4643.4	
728.46	4902.2	
728.64	3370.3	
728.82	3366.2	
729	5264.6	
729.18	5055.1	
729.36	2992.8	
729.54	4083	
729.72	5403.9	
729.91	4679.6	
730.09	3960.1	
730.27	3322.5	
730.45	4729.4	
730.63	4877.6	
730.81	3643.3	
730.99	3207.1	
731.17	5251.7	
731.35	4515.8	
731.53	3396.9	
731.71	3252.9	
731.9	5088.5	
732.08	5012.1	
732.26	3432.4	
732.44	3201	
732.62	5150.6	
732.8	4887.8	
732.98	3627	
733.16	3181.9	
733.34	4943.8	
733.52	4159.4	
733.7	3421.5	
733.88	3483.6	
734.07	4900.8	
734.25	4731.5	
734.43	3162.7	
734.61	3829	
734.79	5485.1	
734.97	4697.4	
735.15	3171.6	
735.33	3386.7	
735.51	4881.7	
735.69	4716.5	
735.87	3811.3	
736.05	3446.7	
736.23	4835.9	
736.41	4559.5	
736.59	3414	
736.77	3438.5	
736.95	4995.7	
737.13	4643.4	
737.32	3264.5	
737.5	3314.3	
737.68	5345.9	
737.86	4672.8	
738.04	3144.3	
738.22	3997.6	
738.4	4670.7	
738.58	4805.2	
738.76	3381.9	
738.94	2917	
739.12	4713.7	
739.3	4604.5	
739.48	3720.5	
739.66	3502.7	
739.84	4806.6	
740.02	4715.8	
740.2	3108.8	
740.38	3162.7	
740.56	5000.5	
740.74	4216.8	
740.92	3501.3	
741.1	3371.6	
741.28	4749.2	
741.46	4482.3	
741.64	3263.8	
741.82	3585.3	
742	4728.8	
742.18	4567	
742.36	3327.9	
742.54	3186	
742.72	4986.8	
742.9	4222.9	
743.08	3459.7	
743.26	2925.2	
743.44	4965.6	
743.62	4910.3	
743.8	3575.8	
743.98	3117	
744.16	4805.2	
744.34	4581.3	
744.52	3528	
744.7	3502.7	
744.88	4918.5	
745.06	4691.9	
745.24	3474	
745.42	3528	
745.6	5001.1	
745.78	4928.8	
745.96	2960	
746.14	3129.3	
746.32	5283.8	
746.5	4736.3	
746.68	3353.9	
746.86	3100.6	
747.03	4991.6	
747.21	4347.2	
747.39	3385.3	
747.57	3115	
747.75	4620.2	
747.93	4761.5	
748.11	3060.3	
748.29	3022.8	
748.47	5532.2	
748.65	4672.1	
748.83	3422.8	
749.01	3334.1	
749.19	4818.9	
749.37	4330.1	
749.55	3353.2	
749.73	3310.2	
749.91	4749.2	
750.09	4569.7	
750.26	3345.7	
750.44	2969.6	
750.62	4691.2	
750.8	4609.3	
750.98	3020.1	
751.16	3147.7	
751.34	4782	
751.52	4366.3	
751.7	3450.1	
751.88	2925.2	
752.06	4959.5	
752.24	4791.6	
752.42	2933.4	
752.59	3146.4	
752.77	4691.2	
752.95	5248.3	
753.13	3422.8	
753.31	3170.9	
753.49	4501.4	
753.67	4674.8	
753.85	3304.1	
754.03	3088.3	
754.21	4842.8	
754.38	4974.5	
754.56	3103.4	
754.74	2750.4	
754.92	4456.4	
755.1	4633.9	
755.28	2682.8	
755.46	2700.6	
755.64	5134.3	
755.82	5077.6	
755.99	2757.9	
756.17	2755.9	
756.35	3812.6	
756.53	4477.5	
756.71	2211.8	
756.89	2826.2	
757.07	4261.1	
757.25	3891.8	
757.42	2870.6	
757.6	3270.6	
757.78	4412	
757.96	3957.4	
758.14	2770.9	
758.32	2554.5	
758.5	3746.4	
758.67	4033.8	
758.85	2682.8	
759.03	2709.5	
759.21	4171.7	
759.39	3834.5	
759.57	2499.2	
759.75	2956.6	
759.92	4572.4	
760.1	4317.8	
760.28	3145	
760.46	3312.9	
760.64	4150.5	
760.82	4050.2	
760.99	3102	
761.17	2734	
761.35	4575.8	
761.53	3949.2	
761.71	2883.5	
761.89	3117	
762.06	4362.9	
762.24	4227.7	
762.42	2927.2	
762.6	2779.1	
762.78	4199	
762.96	4506.9	
763.13	3112.9	
763.31	2881.5	
763.49	4543.1	
763.67	4239.3	
763.85	3329.3	
764.02	3583.3	
764.2	4741	
764.38	4121.2	
764.56	2854.9	
764.74	3236.5	
764.91	4726	
765.09	4197	
765.27	2741.5	
765.45	2624.8	
765.63	4930.1	
765.8	4610.7	
765.98	2594.8	
766.16	2680.1	
766.34	3857.7	
766.52	3881.6	
766.69	3130.7	
766.87	2557.2	
767.05	4280.3	
767.23	4619.5	
767.41	2764.1	
767.58	2874	
767.76	4524.6	
767.94	4465.9	
768.12	2764.8	
768.29	3072.6	
768.47	4065.2	
768.65	4562.9	
768.83	2620.7	
769	3076.7	
769.18	4080.9	
769.36	4371.7	
769.54	3086.3	
769.72	2593.4	
769.89	4652.3	
770.07	4512.4	
770.25	2831	
770.43	3401.7	
770.6	4829.1	
770.78	4889.2	
770.96	2869.2	
771.14	3132.7	
771.31	4544.4	
771.49	4174.4	
771.67	2506.7	
771.85	2534.7	
772.02	3828.3	
772.2	4098.7	
772.38	2950.4	
772.55	2627.5	
772.73	4289.1	
772.91	4179.9	
773.09	2857.6	
773.26	2940.2	
773.44	4296.6	
773.62	4220.2	
773.8	2675.3	
773.97	2514.9	
774.15	4299.4	
774.33	4167.6	
774.5	2591.4	
774.68	2721.1	
774.86	4324.6	
775.04	4159.4	
775.21	2638.5	
775.39	2514.2	
775.57	4268	
775.74	4315.8	
775.92	2454.1	
776.1	2430.3	
776.27	4190.8	
776.45	4815.5	
776.63	2633	
776.81	2471.2	
776.98	4145.1	
777.16	4511	
777.34	2603	
777.51	2793.4	
777.69	4134.2	
777.87	3921.9	
778.04	2731.3	
778.22	2887	
778.4	3980.6	
778.57	4323.3	
778.75	2347	
778.93	2486.2	
779.1	3975.1	
779.28	3689.1	
779.46	2282.1	
779.64	2544.9	
779.81	4367	
779.99	4699.4	
780.17	2892.4	
780.34	2912.2	
780.52	4198.3	
780.69	4147.8	
780.87	2695.1	
781.05	2469.2	
781.22	4204.5	
781.4	4058.4	
781.58	2588.6	
781.75	2201.6	
781.93	4140.3	
782.11	3743.7	
782.28	2996.9	
782.46	2579.1	
782.64	3777.1	
782.81	4195.6	
782.99	2639.1	
783.17	2549.7	
783.34	4002.4	
783.52	3863.2	
783.69	2552.5	
783.87	3016	
784.05	3897.3	
784.22	3851.5	
784.4	3050.1	
784.58	2740.2	
784.75	4381.3	
784.93	3968.3	
785.1	2542.9	
785.28	2751.1	
785.46	4278.2	
785.63	3779.9	
785.81	2564.1	
785.99	2444.6	
786.16	4009.2	
786.34	4079.6	
786.51	2478.7	
786.69	2735.4	
786.87	3680.2	
787.04	3943	
787.22	2424.8	
787.39	2844.6	
787.57	3852.9	
787.75	4311	
787.92	2996.9	
788.1	2903.3	
788.27	3799.7	
788.45	3455.6	
788.63	2775.7	
788.8	2187.9	
788.98	4070.7	
789.15	3480.9	
789.33	2282.1	
789.5	2525.1	
789.68	4281.6	
789.86	4289.1	
790.03	2674.6	
790.21	2462.3	
790.38	4372.4	
790.56	3894.6	
790.73	2413.2	
790.91	2358.6	
791.09	3841.3	
791.26	4102.1	
791.44	2562	
791.61	2282.8	
791.79	3868.6	
791.96	3781.2	
792.14	2344.9	
792.32	2135.3	
792.49	3822.9	
792.67	3863.8	
792.84	2395.4	
793.02	2269.8	
793.19	4253.6	
793.37	4352.6	
793.54	2171.5	
793.72	2306	
793.89	4352.6	
794.07	3798.3	
794.25	2567.5	
794.42	2153.1	
794.6	4296.6	
794.77	4045.4	
794.95	2669.2	
795.12	2393.4	
795.3	3790.1	
795.47	4018.1	
795.65	2696.5	
795.82	2587.9	
796	3734.8	
796.17	4553.3	
796.35	2508.8	
796.52	2854.2	
796.7	4046.8	
796.87	4105.5	
797.05	2491	
797.22	2852.8	
797.4	4180.6	
797.57	4556.7	
797.75	2622.1	
797.92	2506.7	
798.1	4298.7	
798.27	3568.9	
798.45	2232.3	
798.62	2299.9	
798.8	3985.3	
798.97	4211.3	
799.15	2640.5	
799.32	2562	
799.5	3581.2	
799.67	3908.2	
799.85	2702.6	
800.02	2151.7	
800.2	3754.6	
800.37	3828.3	
800.55	2756.6	
800.72	2441.9	
800.9	4227.7	
801.07	4303.5	
801.25	3012.6	
801.42	2603	
801.6	4192.2	
801.77	3823.6	
801.95	2521.7	
802.12	2372.2	
802.29	4058.4	
802.47	3932.1	
802.64	2609.8	
802.82	2111.5	
802.99	3848.1	
803.17	4168.3	
803.34	2564.7	
803.52	2312.8	
803.69	4448.9	
803.87	3597.6	
804.04	2529.9	
804.21	2536.8	
804.39	4386.1	
804.56	3837.9	
804.74	2254.8	
804.91	2564.7	
805.09	3756.7	
805.26	3827	
805.44	2334	
805.61	2437.1	
805.78	4170.3	
805.96	3990.8	
806.13	2568.2	
806.31	2741.5	
806.48	3520.5	
806.66	3773.7	
806.83	2646.7	
807	2519.7	
807.18	3827.7	
807.35	3928.7	
807.53	2527.9	
807.7	2186.5	
807.87	4286.4	
808.05	3814	
808.22	2689.7	
808.4	2197.5	
808.57	3659	
808.74	3583.3	
808.92	2393.4	
809.09	2882.2	
809.27	3863.8	
809.44	4001	
809.61	2212.5	
809.79	2341.5	
809.96	4556	
810.14	4047.5	
810.31	2226.8	
810.48	2739.5	
810.66	3823.6	
810.83	4090.5	
811.01	2449.4	
811.18	2540.8	
811.35	4181.3	
811.53	3463.1	
811.7	2768.9	
811.87	2589.3	
812.05	3971.7	
812.22	3750.5	
812.39	2385.9	
812.57	2294.4	
812.74	3910.9	
812.92	4547.2	
813.09	2556.5	
813.26	2583.2	
813.44	4433.9	
813.61	3709.6	
813.78	2175.6	
813.96	2705.4	
814.13	3780.6	
814.3	3767.6	
814.48	2841.2	
814.65	2443.2	
814.82	4224.3	
815	3576.4	
815.17	2492.4	
815.34	2907.4	
815.52	3674.1	
815.69	3768.3	
815.87	2450.7	
816.04	2490.3	
816.21	3596.9	
816.38	3561.4	
816.56	2458.2	
816.73	2357.2	
816.9	4622.3	
817.08	4056.3	
817.25	2402.3	
817.42	2706	
817.6	3572.3	
817.77	3730	
817.94	2501.9	
818.12	2286.2	
818.29	3692.5	
818.46	4850.3	
818.64	2518.3	
818.81	2229.6	
818.98	3692.5	
819.16	4558.8	
819.33	2645.3	
819.5	2532	
819.67	3978.5	
819.85	4276.2	
820.02	2508.1	
820.19	2553.8	
820.37	3891.8	
820.54	3685	
820.71	2529.9	
820.88	2992.8	
821.06	3963.5	
821.23	3678.2	
821.4	2566.1	
821.58	2525.1	
821.75	4073.4	
821.92	3890.5	
822.09	2236.4	
822.27	2350.4	
822.44	3827	
822.61	3790.1	
822.79	2183.1	
822.96	3635.1	
823.13	3829.7	
823.3	3581.2	
823.48	2450.7	
823.65	2248.7	
823.82	4147.1	
823.99	3571.7	
824.17	2933.4	
824.34	2293.7	
824.51	4568.3	
824.68	3802.4	
824.86	2373.6	
825.03	2531.3	
825.2	3801	
825.37	4265.9	
825.55	2350.4	
825.72	2450.7	
825.89	4482.3	
826.06	4255	
826.24	2478	
826.41	2445.3	
826.58	4429.8	
826.75	3821.5	
826.92	2194.7	
827.1	2263.7	
827.27	5367.7	
827.44	4417.5	
827.61	2439.1	
827.79	2709.5	
827.96	3803.8	
828.13	3746.4	
828.3	2478	
828.47	2170.2	
828.65	4139.6	
828.82	4028.4	
828.99	2898.6	
829.16	2552.5	
829.34	4147.1	
829.51	4151.9	
829.68	2499.9	
829.85	2482.8	
830.02	4536.9	
830.2	4178.5	
830.37	2095.1	
830.54	2860.3	
830.71	4549.2	
830.88	3908.2	
831.05	2009.7	
831.23	2257.5	
831.4	4614.8	
831.57	4700.1	
831.74	2349	
831.91	2140.8	
832.09	4194.2	
832.26	4194.9	
832.43	2358.6	
832.6	2590.7	
832.77	4078.9	
832.94	4406.5	
833.12	1996.1	
833.29	2327.2	
833.46	3768.3	
833.63	4812.7	
833.8	2551.8	
833.97	2396.1	
834.15	4308.2	
834.32	4184.7	
834.49	2455.5	
834.66	2499.9	
834.83	4119.8	
835	3757.3	
835.17	2350.4	
835.35	2321.7	
835.52	4211.3	
835.69	4127.3	
835.86	2424.8	
836.03	2106.7	
836.2	4275.5	
836.37	3966.2	
836.55	2310.8	
836.72	2189.3	
836.89	4007.9	
837.06	4308.2	
837.23	2409.1	
837.4	2491.7	
837.57	4597	
837.75	4825	
837.92	2204.3	
838.09	2288.9	
838.26	4057.7	
838.43	4248.2	
838.6	2480.1	
838.77	2246.6	
838.94	4572.4	
839.11	4591.5	
839.29	2432.3	
839.46	1977	
839.63	4263.2	
839.8	4022.2	
839.97	2321	
840.14	2297.8	
840.31	4192.9	
840.48	4306.2	
840.65	2069.1	
840.82	2284.9	
841	4228.4	
841.17	4067.9	
841.34	2149.7	
841.51	2257.5	
841.68	4228.4	
841.85	4044.7	
842.02	2282.8	
842.19	2004.3	
842.36	4126	
842.53	4141	
842.7	2224.1	
842.87	2466.4	
843.05	4827.1	
843.22	3999.7	
843.39	2136.7	
843.56	2344.9	
843.73	4045.4	
843.9	4280.3	
844.07	3160	
844.24	2643.9	
844.41	5221	
844.58	3829.7	
844.75	2181.8	
844.92	2250	
845.09	4026.3	
845.26	4202.4	
845.43	2172.9	
845.6	2301.2	
845.77	4212.7	
845.94	4094.6	
846.12	2398.9	
846.29	2472.6	
846.46	4388.8	
846.63	4121.2	
846.8	2165.4	
846.97	2456.2	
847.14	4378.6	
847.31	4154.6	
847.48	2341.5	
847.65	2525.8	
847.82	3968.3	
847.99	4259.8	
848.16	2684.2	
848.33	2551.8	
848.5	3919.8	
848.67	4366.3	
848.84	2093.7	
849.01	2230.2	
849.18	3953.3	
849.35	3700.7	
849.52	2539.5	
849.69	2126.5	
849.86	4341.7	
850.03	4278.9	
850.2	2195.4	
850.37	2485.6	
850.54	4364.2	
850.71	3866.6	
850.88	2546.3	
851.05	2149.7	
851.22	4088.4	
851.39	4339.6	
851.56	2045.9	
851.73	2419.3	
851.9	3809.9	
852.07	4331.5	
852.24	2349.7	
852.41	2111.5	
852.58	4174.4	
852.75	3837.9	
852.92	2351.8	
853.09	2109.4	
853.26	3680.9	
853.43	4316.4	
853.6	2168.1	
853.77	1905.3	
853.94	4483	
854.11	3755.3	
854.28	2914.9	
854.44	2338.1	
854.61	4588.1	
854.78	4298	
854.95	2172.9	
855.12	2537.4	
855.29	3617.4	
855.46	4463.9	
855.63	2183.8	
855.8	2751.8	
855.97	3928	
856.14	4412.7	
856.31	2827.6	
856.48	2320.3	
856.65	4052.9	
856.82	3771.7	
856.99	2158.6	
857.16	2271.9	
857.33	4715.8	
857.49	3964.2	
857.66	2273.9	
857.83	2379.1	
858	4109.6	
858.17	4155.3	
858.34	2083.5	
858.51	2192.7	
858.68	4446.8	
858.85	4439.3	
859.02	2467.1	
859.19	2565.4	
859.36	3851.5	
859.52	3624.9	
859.69	2237.7	
859.86	2443.9	
860.03	3674.7	
860.2	4449.6	
860.37	2077.3	
860.54	2213.2	
860.71	4239.3	
860.88	4454.3	
861.05	2347.7	
861.21	2635.1	
861.38	4394.9	
861.55	3642.7	
861.72	2035	
861.89	2355.2	
862.06	4254.3	
862.23	4478.2	
862.4	2091	
862.56	2211.8	
862.73	4193.6	
862.9	4057	
863.07	2414.6	
863.24	2053.4	
863.41	3757.3	
863.58	3867.2	
863.75	2159.9	
863.91	2448	
864.08	4265.2	
864.25	4130.1	
864.42	2565.4	
864.59	2804.4	
864.76	4497.3	
864.93	3805.1	
865.09	2133.3	
865.26	2359.9	
865.43	4458.4	
865.6	4553.3	
865.77	2009.1	
865.94	2136	
866.1	4344.4	
866.27	4102.1	
866.44	2973	
866.61	2092.3	
866.78	4040.6	
866.95	4226.3	
867.11	2155.1	
867.28	2017.9	
867.45	4422.2	
867.62	3768.3	
867.79	2389.3	
867.96	2150.4	
868.12	3794.9	
868.29	4222.2	
868.46	2218	
868.63	2706.7	
868.8	4309.6	
868.97	4257.7	
869.13	2242.5	
869.3	2264.4	
869.47	4084.3	
869.64	4297.3	
869.81	2149	
869.97	2157.9	
870.14	4016.1	
870.31	4396.3	
870.48	2101.9	
870.65	2611.8	
870.81	4027	
870.98	3997	
871.15	2363.4	
871.32	2245.9	
871.48	4207.9	
871.65	4530.8	
871.82	2156.5	
871.99	2344.2	
872.16	4671.4	
872.32	4385.4	
872.49	2205.7	
872.66	2218	
872.83	4331.5	
872.99	3893.9	
873.16	2435	
873.33	2168.1	
873.5	4049.5	
873.67	4092.5	
873.83	2281.4	
874	2671.2	
874.17	4171.7	
874.34	4390.2	
874.5	2695.8	
874.67	2504.7	
874.84	4401.8	
875.01	3608.5	
875.17	2787.3	
875.34	2147.6	
875.51	4132.1	
875.68	4798.4	
875.84	2468.5	
876.01	2839.8	
876.18	4245.4	
876.34	4156.7	
876.51	2149.7	
876.68	2151.7	
876.85	3941.7	
877.01	4425.7	
877.18	2817.3	
877.35	2151.7	
877.52	4276.8	
877.68	3835.8	
877.85	2161.3	
878.02	2159.9	
878.18	3648.8	
878.35	3963.5	
878.52	1868.4	
878.69	2428.2	
878.85	4393.6	
879.02	4207.2	
879.19	2885.6	
879.35	2283.5	
879.52	4261.1	
879.69	4230.4	
879.86	1969.5	
880.02	2360.6	
880.19	4078.9	
880.36	4657.8	
880.52	2394.8	
880.69	2467.8	
880.86	4319.8	
881.02	4240	
881.19	2322.4	
881.36	2284.2	
881.52	4173.1	
881.69	3858.4	
881.86	2341.5	
882.02	2300.6	
882.19	4330.1	
882.36	4803.2	
882.52	2230.9	
882.69	2848	
882.86	4087.7	
883.02	4180.6	
883.19	2468.5	
883.36	2382.5	
883.52	4313.7	
883.69	4622.3	
883.86	2245.3	
884.02	2084.8	
884.19	4214	
884.36	4087.7	
884.52	2353.8	
884.69	2371.5	
884.86	3956	
885.02	4465.9	
885.19	2331.3	
885.36	2396.8	
885.52	3880.9	
885.69	4179.2	
885.86	2904.7	
886.02	2604.3	
886.19	4222.2	
886.35	3914.4	
886.52	2366.8	
886.69	2768.9	
886.85	3746.4	
887.02	4394.9	
887.19	4394.9	
887.35	4394.9	
887.52	4394.9	
887.68	4394.9	
887.85	4394.9	
888.02	4394.9	
888.18	4394.9	
888.35	4394.9	
888.51	4394.9	
888.68	4394.9	
888.85	4394.9	
889.01	4394.9	
889.18	4394.9	
889.35	4394.9	
889.51	4394.9	
889.68	4394.9	
889.84	4394.9	
890.01	4394.9	
890.17	4394.9	
890.34	4394.9	
890.51	4394.9	
890.67	4394.9	
890.84	4394.9	
891	4394.9	
891.17	4394.9	
891.34	4394.9	
891.5	4394.9	
891.67	4394.9	
891.83	4394.9	
892	4394.9	
892.16	4394.9	
892.33	4394.9	
892.5	4394.9	
892.66	4394.9	
892.83	4394.9	
892.99	4394.9	
893.16	4394.9	
893.32	4394.9	
893.49	4394.9	
893.65	4394.9	
893.82	4394.9	
893.99	4394.9	
894.15	4394.9	
894.32	4394.9	
894.48	4394.9	
894.65	4394.9	
894.81	4394.9	
894.98	4394.9	
895.14	4394.9	
895.31	4394.9	
895.47	4394.9	
895.64	4394.9	
895.81	4394.9	
895.97	4394.9	
896.14	4394.9	
896.3	4394.9	
896.47	4394.9	
896.63	4394.9	
896.8	4394.9	
896.96	4394.9	
897.13	4394.9	
897.29	4394.9	
897.46	4394.9	
897.62	4394.9	
897.79	4394.9	
897.95	4394.9	
898.12	4394.9	
898.28	4394.9	
898.45	4394.9	
898.61	4394.9	
898.78	4394.9	
898.94	4394.9	
899.11	4394.9	
899.27	4394.9	
899.44	4394.9	
899.6	4394.9	
899.77	4394.9	
899.93	4394.9	
900.1	4394.9	
900.26	4394.9	
900.43	4394.9	
900.59	4394.9	
900.76	4394.9	
900.92	4394.9	
901.09	4394.9	
901.25	4394.9	
901.42	4394.9	
901.58	4394.9	
901.75	4394.9	
901.91	4394.9	
902.07	4394.9	
902.24	4394.9	
902.4	4394.9	
902.57	4394.9	
902.73	4394.9	
902.9	4394.9	
903.06	4394.9	
903.23	4394.9	
903.39	4394.9	
903.56	4394.9	
903.72	4394.9	
903.88	4394.9	
904.05	4394.9	
904.21	4394.9	
904.38	4394.9	
904.54	4394.9	
904.71	4394.9	
904.87	4394.9	
905.03	4394.9	
905.2	4394.9	
905.36	4394.9	
905.53	4394.9	
905.69	4394.9	
905.86	4394.9	
906.02	4394.9	
906.18	4394.9	
906.35	4394.9	
906.51	4394.9	
906.68	4394.9	
906.84	4394.9	
907.01	4394.9	
907.17	4394.9	
907.33	4394.9	
907.5	4394.9	
907.66	4394.9	
907.83	4394.9	
907.99	4394.9	
908.15	4394.9	
908.32	4394.9	
908.48	4394.9	
908.65	4394.9	
908.81	4394.9	
908.97	4394.9	
909.14	4394.9	
909.3	4394.9	
909.47	4394.9	
909.63	4394.9	
909.79	4394.9	
909.96	4394.9	
910.12	4394.9	
910.28	4394.9	
910.45	4394.9	
910.61	4394.9	
910.78	4394.9	
910.94	4394.9	
911.1	4394.9	
911.27	4394.9	
911.43	4394.9	
911.59	4394.9	
911.76	4394.9	
911.92	4394.9	
912.08	4394.9	
912.25	4394.9	
912.41	4394.9	
912.57	4394.9	
912.74	4394.9	
912.9	4394.9	
913.07	4394.9	
913.23	4394.9	
913.39	4394.9	
913.56	4394.9	
913.72	4394.9	
913.88	4394.9	
914.05	4394.9	
914.21	4394.9	
914.37	4394.9	
914.54	4394.9	
914.7	4394.9	
914.86	4394.9	
915.03	4394.9	
915.19	4394.9	
