Wavelength	Intensities	
nm	a.u.	
179.22	1887.2	
179.44	1870.5	
179.65	1903.9	
179.86	1837	
180.08	1882.8	
180.29	4808.6	
180.51	3452.9	
180.72	5605.3	
180.94	6462.7	
181.15	3186.6	
181.37	3079.5	
181.58	5438.7	
181.79	5699.5	
182.01	3315.7	
182.22	3549.1	
182.44	5715.2	
182.65	4808.6	
182.87	4445.5	
183.08	3880.2	
183.29	5971.9	
183.51	4941.1	
183.72	3600.3	
183.94	5253.7	
184.15	5336.3	
184.37	5313.8	
184.58	3227.6	
184.79	4248.2	
185.01	4932.9	
185.22	5742.5	
185.44	4583.4	
185.65	3893.2	
185.86	5277.6	
186.08	4827.1	
186.29	3009.8	
186.51	3264.5	
186.72	5003.9	
186.94	5874.9	
187.15	3866.6	
187.36	3968.3	
187.58	7690.8	
187.79	5479	
188.01	4130.1	
188.22	6395.1	
188.43	6589	
188.65	5685.2	
188.86	3292.5	
189.08	3988.1	
189.29	5177.9	
189.5	5141.8	
189.72	3719.1	
189.93	3778.5	
190.15	5923.4	
190.36	7040.9	
190.57	4001	
190.79	3904.8	
191	6011.5	
191.22	5930.9	
191.43	4037.9	
191.64	3292.5	
191.86	6202.6	
192.07	5954.1	
192.29	3500	
192.5	3610.6	
192.71	5937.1	
192.93	5111.7	
193.14	3655.6	
193.35	3722.5	
193.57	5126.1	
193.78	5885.2	
194	2987.3	
194.21	3580.5	
194.42	4938.3	
194.64	5386.8	
194.85	3971.7	
195.07	4699.4	
195.28	5395	
195.49	4645.5	
195.71	4892.6	
195.92	3476.1	
196.13	5550	
196.35	5626.5	
196.56	5192.3	
196.78	3962.8	
196.99	6998.6	
197.2	6559.6	
197.42	4494.6	
197.63	4049.5	
197.84	4784.1	
198.06	5513.1	
198.27	3670	
198.48	4920.6	
198.7	5197.1	
198.91	5231.9	
199.13	3998.3	
199.34	3984	
199.55	5752.7	
199.77	4683	
199.98	3545	
200.19	4002.4	
200.41	5164.3	
200.62	4972.5	
200.83	4192.2	
201.05	4504.2	
201.26	5243.5	
201.47	5020.9	
201.69	3581.9	
201.9	3392.8	
202.11	5391.6	
202.33	6309.8	
202.54	3798.3	
202.76	4217.5	
202.97	5436	
203.18	5427.8	
203.4	4158.1	
203.61	4080.2	
203.82	5413.5	
204.04	5057.1	
204.25	4052.9	
204.46	3980.6	
204.68	5380	
204.89	5587.5	
205.1	3903.4	
205.32	3379.8	
205.53	5799.8	
205.74	5896.1	
205.96	2890.4	
206.17	4129.4	
206.38	5718.6	
206.6	5864	
206.81	4585.4	
207.02	3698.6	
207.24	5614.2	
207.45	6059.3	
207.66	3780.6	
207.88	3272.7	
208.09	5580	
208.3	5327.4	
208.52	3449.5	
208.73	3780.6	
208.94	5358.2	
209.15	6068.8	
209.37	3847.5	
209.58	3961.5	
209.79	5843.5	
210.01	5139	
210.22	3043.3	
210.43	3201.7	
210.65	5359.5	
210.86	5774.6	
211.07	3837.2	
211.29	3462.4	
211.5	5664	
211.71	5287.9	
211.93	3454.2	
212.14	3471.3	
212.35	5298.1	
212.56	5504.3	
212.78	4026.3	
212.99	3348.4	
213.2	6324.8	
213.42	5055.1	
213.63	3620.8	
213.84	3910.9	
214.06	4767	
214.27	4865.3	
214.48	3776.5	
214.69	4106.9	
214.91	6004	
215.12	6089.3	
215.33	4104.1	
215.55	4511	
215.76	6608.1	
215.97	5713.8	
216.18	3971.7	
216.4	3843.4	
216.61	5064.6	
216.82	5880.4	
217.04	3534.1	
217.25	3692.5	
217.46	5956.2	
217.67	5782.1	
217.89	3111.5	
218.1	3316.3	
218.31	5450.3	
218.53	5477	
218.74	3675.4	
218.95	3572.3	
219.16	5278.3	
219.38	6236.7	
219.59	3652.9	
219.8	4215.4	
220.01	6847.7	
220.23	5404.6	
220.44	4657.1	
220.65	3519.1	
220.87	5435.3	
221.08	5978	
221.29	3270.6	
221.5	4332.8	
221.72	7340.6	
221.93	5057.8	
222.14	4095.9	
222.35	4666	
222.57	5424.4	
222.78	5763	
222.99	3841.3	
223.2	4147.1	
223.42	5646.9	
223.63	5791	
223.84	2942.2	
224.05	2932	
224.27	6853.2	
224.48	6206	
224.69	4747.9	
224.9	4027	
225.12	5552.7	
225.33	5327.4	
225.54	3201	
225.75	3551.2	
225.97	4980	
226.18	5289.9	
226.39	3805.8	
226.6	3595.6	
226.82	5150.6	
227.03	4963.6	
227.24	4030.4	
227.45	3349.1	
227.67	5710.4	
227.88	6246.3	
228.09	4490.5	
228.3	4562.2	
228.52	5745.2	
228.73	5305.6	
228.94	3735.5	
229.15	3347.7	
229.36	5270.1	
229.58	5236.7	
229.79	3763.5	
230	4373.1	
230.21	6348	
230.43	5449.6	
230.64	3987.4	
230.85	4128	
231.06	5745.9	
231.28	5795.1	
231.49	3303.4	
231.7	3928.7	
231.91	5677.7	
232.12	5311.7	
232.34	3387.3	
232.55	3877.5	
232.76	5963	
232.97	5528.2	
233.18	3552.5	
233.4	4007.2	
233.61	5606	
233.82	5102.2	
234.03	3702.7	
234.25	3583.3	
234.46	7320.8	
234.67	5377.3	
234.88	4117.8	
235.09	3597.6	
235.31	5700.9	
235.52	5240.1	
235.73	3984	
235.94	3406.5	
236.15	5126.1	
236.37	6484.6	
236.58	3530	
236.79	3838.6	
237	5668.1	
237.21	4864.6	
237.43	4129.4	
237.64	3237.8	
237.85	9740.8	
238.06	4975.2	
238.27	4182	
238.48	3343.7	
238.7	5677	
238.91	5197.1	
239.12	3804.4	
239.33	3880.9	
239.54	5127.4	
239.76	5266	
239.97	3749.1	
240.18	3838.6	
240.39	6749.4	
240.6	5661.3	
240.82	3970.3	
241.03	3239.2	
241.24	5378.6	
241.45	6162.3	
241.66	3463.8	
241.87	4111	
242.09	6124.1	
242.3	6479.8	
242.51	4184	
242.72	3895.9	
242.93	5773.9	
243.14	5350.7	
243.36	4411.3	
243.57	4861.2	
243.78	6256.5	
243.99	5572.5	
244.2	3827	
244.41	3482.9	
244.63	4914.4	
244.84	5629.2	
245.05	4091.8	
245.26	3860.4	
245.47	5677	
245.68	5879	
245.9	5059.2	
246.11	4100.7	
246.32	5244.2	
246.53	5639.4	
246.74	6210.8	
246.95	3223.5	
247.16	4843.4	
247.38	5298.8	
247.59	3235.8	
247.8	3882.3	
248.01	5057.1	
248.22	5334.3	
248.43	3515.7	
248.64	3782.6	
248.86	4732.9	
249.07	5135.6	
249.28	3394.2	
249.49	3914.4	
249.7	5883.1	
249.91	6138.4	
250.12	3238.5	
250.34	3237.8	
250.55	5464	
250.76	5375.2	
250.97	3938.2	
251.18	4038.6	
251.39	5983.5	
251.6	5557.5	
251.81	4089.8	
252.03	4007.9	
252.24	5188.9	
252.45	5898.1	
252.66	3349.8	
252.87	4204.5	
253.08	5439.4	
253.29	7081.9	
253.5	3363.4	
253.72	4717.2	
253.93	5199.8	
254.14	6353.5	
254.35	3662.5	
254.56	3751.2	
254.77	5687.9	
254.98	4971.8	
255.19	3616	
255.41	4696.7	
255.62	5455.1	
255.83	6040.1	
256.04	4097.3	
256.25	4020.8	
256.46	6696.2	
256.67	5067.4	
256.88	3990.8	
257.09	4414.1	
257.31	5061.2	
257.52	5040.7	
257.73	4972.5	
257.94	3678.8	
258.15	5261.9	
258.36	5390.3	
258.57	4620.9	
258.78	2936.1	
258.99	5856.5	
259.2	5214.8	
259.41	3691.1	
259.63	3806.5	
259.84	6223.8	
260.05	6644.3	
260.26	4820.2	
260.47	3551.2	
260.68	5913.2	
260.89	5291.3	
261.1	4446.8	
261.31	3529.3	
261.52	5966.4	
261.73	6298.2	
261.95	4706.2	
262.16	4150.5	
262.37	6066.8	
262.58	6223.8	
262.79	4734.9	
263	3729.4	
263.21	5395	
263.42	4858.5	
263.63	3807.9	
263.84	3715.7	
264.05	5958.9	
264.26	6291.4	
264.47	4544.4	
264.69	4095.3	
264.9	6068.8	
265.11	5576.6	
265.32	3584.6	
265.53	3659	
265.74	5508.4	
265.95	4818.9	
266.16	3927.3	
266.37	4318.5	
266.58	5467.4	
266.79	5193.6	
267	3612.6	
267.21	3414.6	
267.42	4893.3	
267.63	5389.6	
267.84	3880.2	
268.06	3272	
268.27	5787.6	
268.48	6053.1	
268.69	3777.1	
268.9	4425	
269.11	6116.6	
269.32	4900.1	
269.53	3831.1	
269.74	3573	
269.95	5750	
270.16	4785.4	
270.37	3908.2	
270.58	4450.2	
270.79	5210.7	
271	5887.2	
271.21	4154	
271.42	3880.9	
271.63	5484.5	
271.84	5005.9	
272.05	3092.4	
272.26	3433.8	
272.47	5414.1	
272.68	5602.6	
272.89	3688.4	
273.11	4258.4	
273.32	5225.1	
273.53	6290	
273.74	4149.9	
273.95	4104.8	
274.16	5962.3	
274.37	5403.2	
274.58	4240	
274.79	3360	
275	5462.6	
275.21	6059.9	
275.42	5109	
275.63	4330.1	
275.84	5631.2	
276.05	7120.1	
276.26	4018.8	
276.47	3800.3	
276.68	5241.4	
276.89	6335.1	
277.1	4323.3	
277.31	3381.2	
277.52	5623.7	
277.73	5768.4	
277.94	3354.6	
278.15	3716.4	
278.36	5592.3	
278.57	5042.8	
278.78	3690.4	
278.99	4232.5	
279.2	4989.5	
279.41	4962.9	
279.62	4810	
279.83	3419.4	
280.04	6599.9	
280.25	4887.8	
280.46	4805.2	
280.67	3886.4	
280.88	4967	
281.09	6075.6	
281.3	4008.6	
281.51	5123.3	
281.72	5117.2	
281.93	5848.3	
282.14	3624.9	
282.35	3939.6	
282.56	5861.3	
282.77	5772.5	
282.98	3735.5	
283.19	4504.2	
283.4	7208.2	
283.61	5334.3	
283.82	3386.7	
284.03	4794.3	
284.24	5519.3	
284.45	6036.7	
284.66	4810	
284.87	4623.6	
285.08	5933.6	
285.29	6133	
285.5	3307.5	
285.71	3764.8	
285.92	5976	
286.12	6651.8	
286.33	4752.7	
286.54	3736.9	
286.75	5887.9	
286.96	5255.1	
287.17	3391.4	
287.38	4622.9	
287.59	5068.7	
287.8	4952	
288.01	3823.6	
288.22	4346.5	
288.43	5883.1	
288.64	4948.6	
288.85	4425.7	
289.06	4269.3	
289.27	5837.4	
289.48	6319.3	
289.69	4738.3	
289.9	4359.4	
290.11	6133	
290.32	5070.8	
290.53	4555.4	
290.74	4205.8	
290.94	5853.1	
291.15	5870.8	
291.36	3723.2	
291.57	4296	
291.78	5134.9	
291.99	4827.7	
292.2	3422.2	
292.41	4171.7	
292.62	5929.6	
292.83	5704.3	
293.04	5138.4	
293.25	3461.1	
293.46	5181.4	
293.67	5958.9	
293.88	3577.1	
294.09	3471.3	
294.29	4904.9	
294.5	5489.2	
294.71	3852.2	
294.92	3672	
295.13	5185.5	
295.34	6460	
295.55	3267.9	
295.76	3334.8	
295.97	5787.6	
296.18	6573.3	
296.39	3375.7	
296.6	3651.5	
296.81	5515.9	
297.01	5816.2	
297.22	3760.8	
297.43	3569.6	
297.64	4980.7	
297.85	5025	
298.06	2997.5	
298.27	3243.3	
298.48	5425.1	
298.69	5141.1	
298.9	3900.7	
299.11	3549.8	
299.31	4899.4	
299.52	4930.1	
299.73	4199.7	
299.94	4052.2	
300.15	5426.4	
300.36	5008.6	
300.57	4121.2	
300.78	4065.2	
300.99	5277.6	
301.2	5526.8	
301.4	3576.4	
301.61	3889.8	
301.82	5705.6	
302.03	5767.1	
302.24	4418.8	
302.45	3454.2	
302.66	5696.8	
302.87	6142.5	
303.08	3579.8	
303.29	4899.4	
303.49	5178.6	
303.7	5439.4	
303.91	3204.4	
304.12	4675.5	
304.33	4881.7	
304.54	5490.6	
304.75	3625.6	
304.96	3410.6	
305.16	5675.6	
305.37	6384.9	
305.58	3168.2	
305.79	3290.4	
306	5720	
306.21	4801.1	
306.42	3526.6	
306.63	5558.9	
306.83	5229.1	
307.04	5931.6	
307.25	4012	
307.46	3999	
307.67	4638	
307.88	5819	
308.09	3552.5	
308.29	3704.1	
308.5	5498.1	
308.71	5950.7	
308.92	3868.6	
309.13	3551.9	
309.34	5354.8	
309.55	5335	
309.75	4485.7	
309.96	4141.7	
310.17	5812.8	
310.38	5067.4	
310.59	4356	
310.8	4090.5	
311.01	5202.5	
311.21	5259.9	
311.42	3414	
311.63	3571	
311.84	5148.6	
312.05	5504.9	
312.26	4018.1	
312.46	4391.5	
312.67	5212.8	
312.88	4987.5	
313.09	3504.8	
313.3	3450.1	
313.51	6161	
313.71	6524.8	
313.92	3503.4	
314.13	3695.2	
314.34	5565	
314.55	5274.2	
314.76	4511	
314.96	3941.7	
315.17	5487.2	
315.38	5854.5	
315.59	3555.3	
315.8	3384.6	
316.01	6210.8	
316.21	6363	
316.42	3433.1	
316.63	3837.9	
316.84	5261.9	
317.05	6015.6	
317.26	4143.7	
317.46	3689.8	
317.67	5346.6	
317.88	5769.8	
318.09	4435.9	
318.3	3237.2	
318.5	5106.3	
318.71	5748	
318.92	5685.8	
319.13	4148.5	
319.34	5840.1	
319.54	6038.1	
319.75	3282.2	
319.96	3116.3	
320.17	5721.3	
320.38	5946.6	
320.58	3263.1	
320.79	3860.4	
321	5938.4	
321.21	6115.2	
321.42	3860.4	
321.62	3215.3	
321.83	4989.5	
322.04	5389.6	
322.25	3648.8	
322.46	3530	
322.66	5519.3	
322.87	5655.1	
323.08	4322.6	
323.29	3418.7	
323.5	6438.1	
323.7	4992.3	
323.91	4781.3	
324.12	4240.7	
324.33	5483.8	
324.53	5742.5	
324.74	4158.1	
324.95	4359.4	
325.16	4788.2	
325.37	5244.8	
325.57	3539.6	
325.78	3530	
325.99	5500.8	
326.2	4853	
326.4	4947.9	
326.61	3224.2	
326.82	5325.4	
327.03	5511.1	
327.24	4976.6	
327.44	4734.2	
327.65	5651	
327.86	4602.5	
328.07	4115.7	
328.27	3418.1	
328.48	6075.6	
328.69	4991.6	
328.9	5032.5	
329.1	3757.3	
329.31	5298.8	
329.52	6242.9	
329.73	3464.5	
329.93	3925.3	
330.14	5401.9	
330.35	5645.6	
330.56	5812.8	
330.76	4349.2	
330.97	5177.3	
331.18	5575.9	
331.39	3880.9	
331.59	3156.6	
331.8	5965.1	
332.01	6154.1	
332.22	3647.4	
332.42	4142.4	
332.63	5528.2	
332.84	5143.8	
333.05	3960.8	
333.25	3558.7	
333.46	5181.4	
333.67	5418.9	
333.88	3689.1	
334.08	4077.5	
334.29	7245.7	
334.5	6031.3	
334.7	3444.7	
334.91	4963.6	
335.12	4996.4	
335.33	5809.4	
335.53	3891.8	
335.74	5730.9	
335.95	5214.1	
336.16	5030.5	
336.36	3898.6	
336.57	4499.4	
336.78	4869.4	
336.98	6009.4	
337.19	4811.4	
337.4	3832.4	
337.61	6519.4	
337.81	4922.6	
338.02	3536.8	
338.23	4638	
338.43	6156.2	
338.64	5044.8	
338.85	3545.7	
339.05	4665.3	
339.26	6214.2	
339.47	4829.1	
339.68	3517	
339.88	5130.8	
340.09	5666.7	
340.3	5867.4	
340.5	4172.4	
340.71	3151.8	
340.92	4906.9	
341.13	6106.4	
341.33	3416.7	
341.54	4063.2	
341.75	5681.7	
341.95	5257.1	
342.16	3931.4	
342.37	4311.7	
342.57	4997.7	
342.78	5341.1	
342.99	4369.7	
343.19	3134.1	
343.4	5825.1	
343.61	5629.2	
343.81	3719.8	
344.02	3495.2	
344.23	5771.2	
344.43	6201.9	
344.64	4334.2	
344.85	4244.1	
345.06	5655.1	
345.26	5948.7	
345.47	4076.1	
345.68	4771.8	
345.88	4756.1	
346.09	5836.7	
346.3	4202.4	
346.5	3114.3	
346.71	5347.2	
346.92	5123.3	
347.12	3235.8	
347.33	4033.1	
347.54	5969.1	
347.74	6339.8	
347.95	4036.5	
348.16	3031	
348.36	5212.8	
348.57	4974.5	
348.78	3992.9	
348.98	4335.5	
349.19	5328.8	
349.39	4866	
349.6	3300	
349.81	3536.2	
350.01	5655.1	
350.22	5130.2	
350.43	3910.9	
350.63	4697.4	
350.84	5464	
351.05	5186.8	
351.25	3543	
351.46	3207.8	
351.67	5996.5	
351.87	5023	
352.08	3815.4	
352.29	4231.8	
352.49	5810.8	
352.7	5969.1	
352.9	3446.7	
353.11	4330.8	
353.32	6470.9	
353.52	5160.9	
353.73	3407.8	
353.94	4382	
354.14	5658.5	
354.35	5523.4	
354.55	3437.9	
354.76	3901.4	
354.97	5619.6	
355.17	5440.8	
355.38	3272.7	
355.59	4584.7	
355.79	5141.8	
356	5487.2	
356.2	3887.7	
356.41	3353.9	
356.62	4851	
356.82	5234.6	
357.03	4093.9	
357.24	3673.4	
357.44	5115.1	
357.65	5203.2	
357.85	4926.7	
358.06	3938.9	
358.27	4827.1	
358.47	5013.4	
358.68	3265.8	
358.88	4107.5	
359.09	5632.6	
359.3	6020.3	
359.5	4756.1	
359.71	4237.9	
359.91	6369.2	
360.12	5780.1	
360.33	4104.8	
360.53	4575.8	
360.74	5082.4	
360.94	5085.8	
361.15	4360.1	
361.36	3575.8	
361.56	5838.1	
361.77	5339.1	
361.97	4779.3	
362.18	3732.8	
362.38	5886.5	
362.59	4920.6	
362.8	3474	
363	3330	
363.21	4807.9	
363.41	5421.7	
363.62	3997.6	
363.83	4977.9	
364.03	5451.7	
364.24	6456.6	
364.44	5119.2	
364.65	4930.1	
364.85	5212.8	
365.06	5201.8	
365.27	3655.6	
365.47	3675.4	
365.68	6234.7	
365.88	5214.1	
366.09	4061.1	
366.29	3754.6	
366.5	5441.5	
366.71	5945.9	
366.91	4978.6	
367.12	4228.4	
367.32	6450.4	
367.53	5738.4	
367.73	4102.1	
367.94	5083.7	
368.14	5745.9	
368.35	6605.4	
368.56	4136.2	
368.76	3488.4	
368.97	5864.7	
369.17	7511.3	
369.38	3631	
369.58	3934.1	
369.79	4886.5	
369.99	6191	
370.2	4928.8	
370.4	4000.4	
370.61	5585.5	
370.82	6731.7	
371.02	3867.9	
371.23	3237.2	
371.43	4833.2	
371.64	6161.7	
371.84	3917.1	
372.05	5142.4	
372.25	7365.9	
372.46	5886.5	
372.66	3951.2	
372.87	3895.9	
373.07	5873.6	
373.28	7398.6	
373.48	4933.6	
373.69	4620.9	
373.9	5307.7	
374.1	5420.3	
374.31	4906.9	
374.51	4379.9	
374.72	6218.3	
374.92	5085.8	
375.13	4999.8	
375.33	4265.2	
375.54	5664.7	
375.74	5173.9	
375.95	4281.6	
376.15	5496.7	
376.36	5769.8	
376.56	5575.9	
376.77	4304.1	
376.97	4817.5	
377.18	6787.7	
377.38	5862.7	
377.59	5117.2	
377.79	3836.5	
378	5654.4	
378.2	6110.5	
378.41	3953.9	
378.61	3801	
378.82	6196.5	
379.02	5238.7	
379.23	3999.7	
379.43	5152.7	
379.64	6171.9	
379.84	5786.2	
380.05	3889.8	
380.25	3892.5	
380.46	5918.6	
380.66	5565	
380.87	5241.4	
381.07	5497.4	
381.28	6539.2	
381.48	5950.7	
381.69	3962.8	
381.89	4020.8	
382.1	4911	
382.3	6124.8	
382.51	5005.9	
382.71	5878.4	
382.91	6021.7	
383.12	6452.5	
383.32	4349.2	
383.53	4485.1	
383.73	5811.5	
383.94	5563	
384.14	4440.7	
384.35	3503.4	
384.55	5504.9	
384.76	6005.3	
384.96	4329.4	
385.17	4642.7	
385.37	5979.4	
385.58	5217.5	
385.78	4655.7	
385.98	3546.4	
386.19	5468.1	
386.39	5794.4	
386.6	4054.3	
386.8	4287.1	
387.01	5904.3	
387.21	5959.6	
387.42	4775.2	
387.62	5345.9	
387.83	5296.7	
388.03	5948.7	
388.23	4410.6	
388.44	5176.6	
388.64	4936.3	
388.85	5094.7	
389.05	4756.1	
389.26	5341.8	
389.46	6967.2	
389.67	6366.5	
389.87	4683.7	
390.07	4852.3	
390.28	5638.7	
390.48	5208	
390.69	3971.7	
390.89	4269.3	
391.1	5373.2	
391.3	6358.3	
391.5	5443.5	
391.71	6029.9	
391.91	6064.7	
392.12	7148.1	
392.32	5502.9	
392.53	4784.1	
392.73	5473.5	
392.93	5709.7	
393.14	4423.6	
393.34	5185.5	
393.55	6115.9	
393.75	5629.9	
393.95	4412.7	
394.16	4388.8	
394.36	5470.8	
394.57	6071.5	
394.77	4003.1	
394.98	4410	
395.18	5464.7	
395.38	5507.7	
395.59	5292.6	
395.79	4207.2	
396	5556.1	
396.2	6012.2	
396.4	5099.4	
396.61	4979.3	
396.81	6254.5	
397.02	5511.8	
397.22	5309.7	
397.42	5385.5	
397.63	6251.8	
397.83	5463.3	
398.04	4216.8	
398.24	4729.4	
398.44	6001.9	
398.65	5063.9	
398.85	4057.7	
399.05	4233.8	
399.26	5451.7	
399.46	7235.5	
399.67	4638.6	
399.87	4261.1	
400.07	5887.2	
400.28	6202.6	
400.48	4498	
400.69	5408	
400.89	6873	
401.09	6770.6	
401.3	4313	
401.5	5392.3	
401.7	7094.8	
401.91	7294.9	
402.11	4633.2	
402.32	4796.3	
402.52	6496.2	
402.72	6333.7	
402.93	4946.5	
403.13	3842.7	
403.33	7132.4	
403.54	5828.5	
403.74	4742.4	
403.94	5612.1	
404.15	6030.6	
404.35	7129.7	
404.56	4595.6	
404.76	6430.6	
404.96	6466.1	
405.17	6193.1	
405.37	5840.1	
405.57	5053.7	
405.78	6543.9	
405.98	5882.4	
406.18	4511.7	
406.39	5416.2	
406.59	6395.8	
406.79	6085.9	
407	4384.7	
407.2	4567	
407.4	6515.3	
407.61	6784.9	
407.81	4588.1	
408.01	6655.2	
408.22	5627.1	
408.42	7636.9	
408.62	5700.9	
408.83	5194.3	
409.03	6341.2	
409.23	6054.5	
409.44	5378	
409.64	5599.1	
409.84	7183.6	
410.05	7048.4	
410.25	5507.7	
410.45	5254.4	
410.66	6639.5	
410.86	9080	
411.06	5744.6	
411.27	5558.9	
411.47	8824.7	
411.67	6840.9	
411.88	5812.1	
412.08	6095.4	
412.28	7500.3	
412.49	7933.8	
412.69	5569.8	
412.89	5705	
413.09	7836.2	
413.3	7666.9	
413.5	5785.5	
413.7	5375.9	
413.91	6941.9	
414.11	7808.2	
414.31	5578	
414.52	6045.6	
414.72	7479.2	
414.92	7451.9	
415.12	5754.1	
415.33	6195.8	
415.53	7874.4	
415.73	8045.8	
415.94	6552.1	
416.14	5930.9	
416.34	6906.4	
416.55	6630	
416.75	7188.4	
416.95	6690.7	
417.15	7928.4	
417.36	8583.7	
417.56	7440.3	
417.76	6498.9	
417.97	8365.3	
418.17	7923.6	
418.37	6041.5	
418.57	6111.1	
418.78	7675.8	
418.98	7416.4	
419.18	6962.4	
419.38	6904.4	
419.59	7499.7	
419.79	7108.5	
419.99	6017.6	
420.2	6435.4	
420.4	8123.6	
420.6	8247.9	
420.8	6027.2	
421.01	5793	
421.21	7839.6	
421.41	8068.3	
421.61	6443.6	
421.82	6002.6	
422.02	7353.6	
422.22	8315.4	
422.42	6884.6	
422.63	6438.8	
422.83	7462.8	
423.03	8701.8	
423.23	6563.1	
423.44	5544.5	
423.64	7540.6	
423.84	7300.3	
424.04	5945.3	
424.25	5704.3	
424.45	8467	
424.65	8445.1	
424.85	5494.7	
425.06	6009.4	
425.26	8421.2	
425.46	7466.9	
425.66	6517.3	
425.87	6228.6	
426.07	8142	
426.27	8021.9	
426.47	6296.8	
426.67	5687.2	
426.88	8504.5	
427.08	7922.9	
427.28	6662	
427.48	5693.4	
427.69	6957.6	
427.89	7534.5	
428.09	6672.3	
428.29	5776.6	
428.5	8331.1	
428.7	7793.2	
428.9	5751.4	
429.1	6222.4	
429.3	7756.3	
429.51	8194.6	
429.71	6043.6	
429.91	6770.6	
430.11	8129.1	
430.31	8312.7	
430.52	6324.1	
430.72	6694.1	
430.92	8667.7	
431.12	8236.9	
431.32	6092	
431.53	6401.3	
431.73	7120.1	
431.93	8819.2	
432.13	6010.1	
432.33	5933.6	
432.54	7613	
432.74	7976.2	
432.94	5903.6	
433.14	6896.9	
433.34	8157.7	
433.55	7729.7	
433.75	6918.7	
433.95	8670.4	
434.15	8036.2	
434.35	7763.8	
434.56	6130.9	
434.76	5687.2	
434.96	8019.2	
435.16	8231.5	
435.36	6042.2	
435.56	7209.5	
435.77	7740	
435.97	7937.9	
436.17	7977.5	
436.37	7115.3	
436.57	7786.4	
436.78	7641	
436.98	8217.1	
437.18	7744.7	
437.38	8385.7	
437.58	7877.9	
437.78	7773.4	
437.99	6402	
438.19	8385.7	
438.39	9155.1	
438.59	6421.1	
438.79	5884.5	
438.99	9084.1	
439.2	7919.5	
439.4	6222.4	
439.6	6197.2	
439.8	8478.6	
440	9514.9	
440.2	7362.4	
440.4	7370.6	
440.61	8789.2	
440.81	9443.2	
441.01	6534.4	
441.21	7419.1	
441.41	9240.4	
441.61	8753.7	
441.81	7735.9	
442.02	8697.7	
442.22	9793.4	
442.42	8968.7	
442.62	6692.1	
442.82	6733	
443.02	9402.9	
443.22	8575.5	
443.43	7144	
443.63	6795.8	
443.83	8340	
444.03	8372.1	
444.23	7962.5	
444.43	7497.6	
444.63	8706.6	
444.83	9774.3	
445.04	6821.1	
445.24	8044.4	
445.44	8930.5	
445.64	9051.3	
445.84	7579.5	
446.04	7542	
446.24	8374.8	
446.44	9437.7	
446.65	6836.8	
446.85	7243.7	
447.05	8438.3	
447.25	9316.2	
447.45	7215.7	
447.65	6677.7	
447.85	8708.6	
448.05	8226	
448.25	7841	
448.46	7620.5	
448.66	8805.6	
448.86	8484.7	
449.06	6636.8	
449.26	7798.7	
449.46	9224.1	
449.66	8112	
449.86	7431.4	
450.06	7359	
450.26	8458.1	
450.47	8987.2	
450.67	7588.4	
450.87	7989.8	
451.07	9134.6	
451.27	9012.4	
451.47	6925.5	
451.67	7574.8	
451.87	8600.1	
452.07	9762.7	
452.27	7304.4	
452.47	7187.7	
452.67	8900.5	
452.88	9510.1	
453.08	6469.5	
453.28	8560.5	
453.48	10107	
453.68	8851.3	
453.88	7215	
454.08	7434.8	
454.28	9398.8	
454.48	9035.6	
454.68	8000.7	
454.88	8548.2	
455.08	9484.1	
455.28	9346.2	
455.48	7116.7	
455.68	7873.8	
455.89	10032	
456.09	9765.4	
456.29	7593.9	
456.49	7776.8	
456.69	10053	
456.89	9303.2	
457.09	8336.6	
457.29	8728.4	
457.49	9811.8	
457.69	9947	
457.89	8231.5	
458.09	7548.1	
458.29	9648	
458.49	10324	
458.69	8619.9	
458.89	8114.1	
459.09	10540	
459.29	10654	
459.49	8082	
459.69	9028.8	
459.9	10068	
460.1	9736.7	
460.3	7970	
460.5	7896.3	
460.7	10137	
460.9	9932	
461.1	7661.5	
461.3	8956.4	
461.5	11046	
461.7	10653	
461.9	8273.8	
462.1	8600.1	
462.3	10206	
462.5	10798	
462.7	8462.2	
462.9	8583	
463.1	11909	
463.3	11621	
463.5	8770.1	
463.7	9830.9	
463.9	10653	
464.1	10952	
464.3	9164	
464.5	9295	
464.7	11226	
464.9	10973	
465.1	10664	
465.3	9607.7	
465.5	11585	
465.7	11703	
465.9	9990.7	
466.1	9725.1	
466.3	11626	
466.5	11329	
466.7	10810	
466.9	9684.8	
467.1	11418	
467.3	12361	
467.5	11015	
467.7	9704.6	
467.9	12560	
468.1	13495	
468.3	10411	
468.5	10938	
468.7	11478	
468.9	11515	
469.1	10030	
469.3	10828	
469.5	13639	
469.7	11122	
469.9	10381	
470.1	9937.4	
470.3	11663	
470.5	11482	
470.7	11097	
470.9	9914.2	
471.1	11376	
471.3	11748	
471.5	9768.8	
471.69	11717	
471.89	11191	
472.09	10656	
472.29	10686	
472.49	10744	
472.69	11082	
472.89	11716	
473.09	9672.6	
473.29	9748.3	
473.49	11070	
473.69	11168	
473.89	10789	
474.09	9964.7	
474.29	12513	
474.49	12245	
474.69	10833	
474.89	10030	
475.09	11269	
475.29	11319	
475.49	9482.1	
475.69	9787.9	
475.88	12738	
476.08	11523	
476.28	9439.1	
476.48	9813.2	
476.68	11887	
476.88	11761	
477.08	9688.9	
477.28	10096	
477.48	11344	
477.68	12035	
477.88	9540.1	
478.08	9924.5	
478.28	12309	
478.48	11447	
478.67	10063	
478.87	9228.8	
479.07	12205	
479.27	11619	
479.47	10215	
479.67	10101	
479.87	12088	
480.07	12651	
480.27	9501.2	
480.47	11070	
480.67	11720	
480.87	12379	
481.06	9845.3	
481.26	10662	
481.46	11681	
481.66	11683	
481.86	10284	
482.06	11283	
482.26	11453	
482.46	12480	
482.66	10273	
482.86	9987.3	
483.05	11908	
483.25	11452	
483.45	12755	
483.65	10492	
483.85	11512	
484.05	11840	
484.25	10781	
484.45	11596	
484.65	12864	
484.84	12911	
485.04	10393	
485.24	10411	
485.44	13130	
485.64	11471	
485.84	9886.9	
486.04	11280	
486.24	11854	
486.44	12322	
486.63	9967.5	
486.83	10723	
487.03	11940	
487.23	12127	
487.43	10061	
487.63	12356	
487.83	12263	
488.02	13214	
488.22	11214	
488.42	11869	
488.62	13048	
488.82	12093	
489.02	10780	
489.22	10920	
489.41	13020	
489.61	12783	
489.81	10693	
490.01	10635	
490.21	12896	
490.41	13676	
490.61	10432	
490.8	10632	
491	12481	
491.2	11611	
491.4	11151	
491.6	10279	
491.8	12466	
491.99	12615	
492.19	10240	
492.39	10677	
492.59	13254	
492.79	13386	
492.99	11811	
493.18	10877	
493.38	13473	
493.58	14439	
493.78	11842	
493.98	11359	
494.18	13312	
494.37	12918	
494.57	12190	
494.77	12110	
494.97	13917	
495.17	14184	
495.37	11802	
495.56	12256	
495.76	14411	
495.96	14105	
496.16	13189	
496.36	12007	
496.55	14199	
496.75	13801	
496.95	12533	
497.15	12323	
497.35	14235	
497.54	14317	
497.74	12267	
497.94	13961	
498.14	15173	
498.34	14829	
498.53	12194	
498.73	12874	
498.93	14074	
499.13	14695	
499.33	12775	
499.52	13230	
499.72	14555	
499.92	14805	
500.12	12467	
500.32	12712	
500.51	14848	
500.71	14725	
500.91	13676	
501.11	13205	
501.31	14844	
501.5	15209	
501.7	13900	
501.9	12804	
502.1	14506	
502.29	14767	
502.49	13202	
502.69	13700	
502.89	14597	
503.09	14744	
503.28	12160	
503.48	12282	
503.68	13862	
503.88	13956	
504.07	13307	
504.27	12731	
504.47	14259	
504.67	14398	
504.86	13132	
505.06	12807	
505.26	13756	
505.46	15545	
505.65	12675	
505.85	12700	
506.05	13592	
506.25	14242	
506.44	11908	
506.64	12800	
506.84	13605	
507.04	14469	
507.23	12108	
507.43	12712	
507.63	15535	
507.83	13790	
508.02	12639	
508.22	12148	
508.42	15915	
508.62	13661	
508.81	12419	
509.01	13151	
509.21	13489	
509.4	13977	
509.6	12848	
509.8	12160	
510	13827	
510.19	15318	
510.39	12134	
510.59	12351	
510.79	13730	
510.98	15206	
511.18	12308	
511.38	12481	
511.57	14365	
511.77	14307	
511.97	12962	
512.17	11996	
512.36	14477	
512.56	14408	
512.76	12279	
512.95	11863	
513.15	14773	
513.35	13278	
513.55	13106	
513.74	12262	
513.94	14675	
514.14	13984	
514.33	13321	
514.53	12983	
514.73	13893	
514.92	14378	
515.12	12535	
515.32	12458	
515.51	14341	
515.71	14845	
515.91	14158	
516.11	12570	
516.3	16120	
516.5	13898	
516.7	13025	
516.89	13597	
517.09	14108	
517.29	14044	
517.48	13294	
517.68	12680	
517.88	13777	
518.07	14513	
518.27	13314	
518.47	12400	
518.66	15050	
518.86	13793	
519.06	12275	
519.25	12528	
519.45	14160	
519.65	15603	
519.84	13138	
520.04	14015	
520.24	15818	
520.43	14450	
520.63	12780	
520.83	12626	
521.02	13763	
521.22	14487	
521.42	13125	
521.61	13706	
521.81	14130	
522.01	14408	
522.2	13164	
522.4	12936	
522.6	14992	
522.79	13910	
522.99	13186	
523.18	12713	
523.38	15147	
523.58	15118	
523.77	14885	
523.97	12955	
524.17	17011	
524.36	16322	
524.56	14452	
524.76	14052	
524.95	15455	
525.15	15057	
525.34	13966	
525.54	13979	
525.74	15712	
525.93	14877	
526.13	15193	
526.33	14037	
526.52	16189	
526.72	15901	
526.91	15494	
527.11	14830	
527.31	16504	
527.5	16974	
527.7	14803	
527.89	13758	
528.09	15598	
528.29	16291	
528.48	15125	
528.68	14753	
528.87	16636	
529.07	16507	
529.27	14547	
529.46	13962	
529.66	15717	
529.85	16312	
530.05	13724	
530.25	14569	
530.44	17342	
530.64	16079	
530.83	14532	
531.03	14878	
531.23	16583	
531.42	16589	
531.62	15881	
531.81	15041	
532.01	17135	
532.21	17657	
532.4	14964	
532.6	15396	
532.79	18067	
532.99	17354	
533.18	15524	
533.38	16413	
533.58	17019	
533.77	17630	
533.97	15774	
534.16	16490	
534.36	18094	
534.55	17258	
534.75	16607	
534.95	15819	
535.14	17878	
535.34	17149	
535.53	15254	
535.73	17202	
535.92	18350	
536.12	17058	
536.31	15331	
536.51	16500	
536.71	17402	
536.9	17155	
537.1	15526	
537.29	15745	
537.49	17916	
537.68	17011	
537.88	16208	
538.07	15400	
538.27	17436	
538.46	18427	
538.66	15398	
538.86	15781	
539.05	17413	
539.25	17823	
539.44	16059	
539.64	15562	
539.83	17075	
540.03	18172	
540.22	15438	
540.42	15362	
540.61	17242	
540.81	17431	
541	15961	
541.2	16582	
541.39	16775	
541.59	17171	
541.78	16387	
541.98	15240	
542.18	16294	
542.37	16307	
542.57	15461	
542.76	16091	
542.96	16110	
543.15	16990	
543.35	15263	
543.54	14685	
543.74	17147	
543.93	16731	
544.13	15280	
544.32	16466	
544.52	17087	
544.71	16324	
544.91	14541	
545.1	15616	
545.3	16455	
545.49	17073	
545.69	14275	
545.88	14820	
546.08	17733	
546.27	17595	
546.47	15512	
546.66	14709	
546.86	17148	
547.05	17858	
547.24	14912	
547.44	14962	
547.63	16008	
547.83	17199	
548.02	15150	
548.22	15213	
548.41	15866	
548.61	17151	
548.8	14658	
549	14567	
549.19	16341	
549.39	16727	
549.58	14259	
549.78	14888	
549.97	16808	
550.17	16130	
550.36	15606	
550.55	16609	
550.75	16099	
550.94	17139	
551.14	14359	
551.33	14646	
551.53	15651	
551.72	16483	
551.92	14754	
552.11	14497	
552.31	16503	
552.5	16535	
552.69	16179	
552.89	14094	
553.08	16406	
553.28	16247	
553.47	14580	
553.67	15658	
553.86	17094	
554.06	15357	
554.25	13604	
554.44	14298	
554.64	17733	
554.83	17257	
555.03	14197	
555.22	14529	
555.42	16551	
555.61	16173	
555.8	14474	
556	14618	
556.19	15455	
556.39	16510	
556.58	14419	
556.78	14382	
556.97	16228	
557.16	15945	
557.36	15575	
557.55	14067	
557.75	15058	
557.94	16888	
558.13	14117	
558.33	13839	
558.52	16713	
558.72	15579	
558.91	13930	
559.1	14184	
559.3	15222	
559.49	14866	
559.69	13491	
559.88	14508	
560.07	16044	
560.27	16320	
560.46	14672	
560.66	14847	
560.85	15711	
561.04	14891	
561.24	13779	
561.43	13935	
561.63	15130	
561.82	15411	
562.01	15446	
562.21	14465	
562.4	15978	
562.59	17154	
562.79	14392	
562.98	13943	
563.18	15915	
563.37	17471	
563.56	14784	
563.76	13845	
563.95	15564	
564.14	15446	
564.34	14384	
564.53	14169	
564.73	16124	
564.92	16574	
565.11	14616	
565.31	14012	
565.5	16758	
565.69	15586	
565.89	14223	
566.08	14689	
566.27	16537	
566.47	17069	
566.66	15214	
566.85	13964	
567.05	16179	
567.24	15599	
567.44	14197	
567.63	15462	
567.82	16507	
568.02	16312	
568.21	14388	
568.4	14703	
568.6	16277	
568.79	16287	
568.98	14227	
569.18	14502	
569.37	16325	
569.56	18151	
569.76	14773	
569.95	15786	
570.14	16438	
570.34	16579	
570.53	14317	
570.72	14200	
570.91	17080	
571.11	16278	
571.3	14787	
571.49	15659	
571.69	16362	
571.88	15816	
572.07	15437	
572.27	15386	
572.46	15826	
572.65	16869	
572.85	14679	
573.04	15126	
573.23	17267	
573.43	16570	
573.62	14622	
573.81	15397	
574	16838	
574.2	16571	
574.39	15207	
574.58	15298	
574.78	17785	
574.97	17030	
575.16	15704	
575.36	15839	
575.55	17382	
575.74	17406	
575.93	14794	
576.13	15874	
576.32	16716	
576.51	17419	
576.71	15240	
576.9	16778	
577.09	17726	
577.28	17225	
577.48	15775	
577.67	14834	
577.86	16961	
578.05	17230	
578.25	15550	
578.44	15657	
578.63	17010	
578.83	18342	
579.02	15061	
579.21	16529	
579.4	17296	
579.6	17000	
579.79	15629	
579.98	17779	
580.17	17641	
580.37	17756	
580.56	15208	
580.75	16139	
580.94	18310	
581.14	18099	
581.33	16541	
581.52	15485	
581.71	17640	
581.91	18366	
582.1	15163	
582.29	15703	
582.48	17314	
582.68	17383	
582.87	16388	
583.06	16006	
583.25	17756	
583.45	17471	
583.64	16612	
583.83	17380	
584.02	17041	
584.21	17734	
584.41	16539	
584.6	15892	
584.79	17420	
584.98	18249	
585.18	15338	
585.37	15386	
585.56	16921	
585.75	17557	
585.94	15397	
586.14	16085	
586.33	17948	
586.52	16984	
586.71	15791	
586.91	15500	
587.1	16324	
587.29	17325	
587.48	15222	
587.67	15298	
587.87	17099	
588.06	17210	
588.25	16429	
588.44	15741	
588.63	16582	
588.83	17045	
589.02	14634	
589.21	14367	
589.4	15706	
589.59	15594	
589.78	13297	
589.98	13413	
590.17	14898	
590.36	15584	
590.55	12816	
590.74	13553	
590.94	16865	
591.13	15497	
591.32	13512	
591.51	13115	
591.7	15924	
591.89	15629	
592.09	13289	
592.28	13802	
592.47	14838	
592.66	16690	
592.85	13315	
593.05	13579	
593.24	15378	
593.43	16210	
593.62	13756	
593.81	14161	
594	15377	
594.19	15627	
594.39	13576	
594.58	13330	
594.77	15685	
594.96	16230	
595.15	13314	
595.34	13933	
595.54	15623	
595.73	14612	
595.92	12665	
596.11	13933	
596.3	16223	
596.49	14898	
596.68	13553	
596.88	14164	
597.07	15892	
597.26	14698	
597.45	13126	
597.64	14310	
597.83	14966	
598.02	15598	
598.22	13269	
598.41	13820	
598.6	15236	
598.79	14804	
598.98	13199	
599.17	14275	
599.36	15250	
599.55	16458	
599.74	15393	
599.94	15033	
600.13	15769	
600.32	14721	
600.51	13102	
600.7	13176	
600.89	16406	
601.08	16507	
601.27	12901	
601.47	13885	
601.66	15643	
601.85	16462	
602.04	13482	
602.23	13703	
602.42	14868	
602.61	15414	
602.8	13351	
602.99	13314	
603.18	15103	
603.37	15333	
603.57	13859	
603.76	14575	
603.95	16145	
604.14	15794	
604.33	13377	
604.52	13803	
604.71	15395	
604.9	15120	
605.09	14258	
605.28	14134	
605.47	15954	
605.66	15645	
605.86	13938	
606.05	13383	
606.24	15793	
606.43	14427	
606.62	13652	
606.81	14418	
607	15634	
607.19	15066	
607.38	12955	
607.57	13326	
607.76	14754	
607.95	14328	
608.14	13553	
608.33	14238	
608.52	14637	
608.72	15681	
608.91	12915	
609.1	12801	
609.29	14799	
609.48	14257	
609.67	13745	
609.86	12804	
610.05	14447	
610.24	14655	
610.43	12644	
610.62	12312	
610.81	15808	
611	15581	
611.19	12846	
611.38	13656	
611.57	15046	
611.76	16210	
611.95	12571	
612.14	12336	
612.33	14675	
612.52	14349	
612.71	13084	
612.9	12200	
613.09	13921	
613.28	16298	
613.47	12887	
613.66	13723	
613.85	14932	
614.04	14384	
614.24	12978	
614.43	12123	
614.62	15091	
614.81	15036	
615	13504	
615.19	13588	
615.38	14373	
615.57	14762	
615.76	13224	
615.95	14182	
616.14	15152	
616.33	14693	
616.52	13761	
616.71	14149	
616.9	15022	
617.09	15070	
617.28	13051	
617.47	14521	
617.66	14370	
617.85	14504	
618.04	14266	
618.22	13718	
618.41	14814	
618.6	15821	
618.79	13628	
618.98	13488	
619.17	16230	
619.36	14530	
619.55	13687	
619.74	13694	
619.93	15483	
620.12	15100	
620.31	14384	
620.5	14671	
620.69	16174	
620.88	16767	
621.07	15300	
621.26	14384	
621.45	15943	
621.64	15976	
621.83	14475	
622.02	13678	
622.21	15890	
622.4	15684	
622.59	14939	
622.78	14840	
622.97	15459	
623.16	16363	
623.35	14302	
623.54	13540	
623.72	15717	
623.91	15815	
624.1	14693	
624.29	13307	
624.48	16870	
624.67	16032	
624.86	14612	
625.05	13695	
625.24	16982	
625.43	15442	
625.62	16414	
625.81	13933	
626	16435	
626.19	15820	
626.38	14905	
626.56	14209	
626.75	15408	
626.94	16264	
627.13	14519	
627.32	13402	
627.51	16067	
627.7	17428	
627.89	13377	
628.08	14770	
628.27	15244	
628.46	15492	
628.65	13728	
628.83	13454	
629.02	15969	
629.21	15315	
629.4	14315	
629.59	14525	
629.78	15272	
629.97	16290	
630.16	14579	
630.35	14035	
630.54	16727	
630.72	16397	
630.91	14016	
631.1	14588	
631.29	15797	
631.48	16204	
631.67	14791	
631.86	14285	
632.05	15770	
632.24	15763	
632.42	13716	
632.61	14525	
632.8	15752	
632.99	15292	
633.18	14516	
633.37	14749	
633.56	15929	
633.75	15889	
633.93	14338	
634.12	14220	
634.31	16811	
634.5	16395	
634.69	14218	
634.88	14640	
635.07	15773	
635.25	16363	
635.44	14911	
635.63	15317	
635.82	15451	
636.01	15044	
636.2	14838	
636.39	14560	
636.57	16659	
636.76	16360	
636.95	14019	
637.14	15182	
637.33	15964	
637.52	16897	
637.7	13710	
637.89	14570	
638.08	15498	
638.27	16962	
638.46	14662	
638.65	14949	
638.83	16687	
639.02	15266	
639.21	14353	
639.4	14877	
639.59	15573	
639.78	15091	
639.96	13572	
640.15	13583	
640.34	15444	
640.53	15511	
640.72	13269	
640.91	13589	
641.09	14839	
641.28	16116	
641.47	13836	
641.66	14440	
641.85	15491	
642.03	15625	
642.22	14089	
642.41	13587	
642.6	14843	
642.79	14136	
642.97	13175	
643.16	14092	
643.35	14679	
643.54	14474	
643.73	13060	
643.91	13908	
644.1	14147	
644.29	14791	
644.48	12856	
644.67	12985	
644.85	14199	
645.04	14472	
645.23	12402	
645.42	12675	
645.6	13809	
645.79	14915	
645.98	12413	
646.17	11516	
646.36	13388	
646.54	13898	
646.73	12957	
646.92	11686	
647.11	13161	
647.29	14427	
647.48	11826	
647.67	11515	
647.86	14530	
648.05	14718	
648.23	12224	
648.42	13512	
648.61	14129	
648.8	13857	
648.98	11914	
649.17	12271	
649.36	13461	
649.55	13106	
649.73	11888	
649.92	12704	
650.11	13259	
650.3	13597	
650.48	11916	
650.67	11665	
650.86	13853	
651.05	12785	
651.23	11869	
651.42	11953	
651.61	13316	
651.79	13285	
651.98	12196	
652.17	11589	
652.36	13578	
652.54	12669	
652.73	11572	
652.92	11348	
653.11	13515	
653.29	13642	
653.48	10568	
653.67	11648	
653.85	13103	
654.04	13998	
654.23	11632	
654.42	11015	
654.6	12129	
654.79	12884	
654.98	10237	
655.16	10973	
655.35	11789	
655.54	11848	
655.73	10650	
655.91	10666	
656.1	13204	
656.29	12023	
656.47	10397	
656.66	12174	
656.85	12398	
657.03	12481	
657.22	10964	
657.41	11099	
657.59	12499	
657.78	12281	
657.97	10676	
658.16	11379	
658.34	13120	
658.53	13586	
658.72	12372	
658.9	12894	
659.09	12683	
659.28	12821	
659.46	11163	
659.65	11052	
659.84	12439	
660.02	13018	
660.21	10983	
660.4	11138	
660.58	13404	
660.77	12750	
660.96	11521	
661.14	10585	
661.33	13788	
661.52	13648	
661.7	10389	
661.89	14166	
662.08	12347	
662.26	11900	
662.45	10774	
662.64	10904	
662.82	13073	
663.01	12205	
663.2	10875	
663.38	11700	
663.57	12873	
663.75	12764	
663.94	11156	
664.13	12418	
664.31	12194	
664.5	12878	
664.69	11514	
664.87	12026	
665.06	11960	
665.25	12717	
665.43	12236	
665.62	12276	
665.8	12923	
665.99	12316	
666.18	11010	
666.36	11148	
666.55	12919	
666.74	12831	
666.92	10648	
667.11	12312	
667.29	12173	
667.48	12785	
667.67	11931	
667.85	11147	
668.04	12257	
668.22	12256	
668.41	11098	
668.6	11280	
668.78	12113	
668.97	12257	
669.15	11446	
669.34	10350	
669.53	12054	
669.71	12553	
669.9	10538	
670.08	11242	
670.27	12054	
670.46	12538	
670.64	11377	
670.83	11708	
671.01	11927	
671.2	12480	
671.38	10624	
671.57	10548	
671.76	13159	
671.94	13751	
672.13	10535	
672.31	11500	
672.5	12691	
672.69	12050	
672.87	10684	
673.06	11050	
673.24	12618	
673.43	12011	
673.61	11245	
673.8	10902	
673.98	12708	
674.17	12871	
674.36	11520	
674.54	11252	
674.73	12411	
674.91	12678	
675.1	11110	
675.28	10693	
675.47	12245	
675.65	12842	
675.84	10918	
676.03	11219	
676.21	12020	
676.4	11570	
676.58	11667	
676.77	11492	
676.95	13442	
677.14	11882	
677.32	10545	
677.51	10311	
677.69	12759	
677.88	11655	
678.06	10456	
678.25	10598	
678.44	12245	
678.62	12048	
678.81	10101	
678.99	11327	
679.18	13051	
679.36	12719	
679.55	10891	
679.73	11600	
679.92	12495	
680.1	12057	
680.29	12104	
680.47	10854	
680.66	11936	
680.84	12770	
681.03	10041	
681.21	11245	
681.4	11975	
681.58	11785	
681.77	10460	
681.95	10491	
682.14	12670	
682.32	13113	
682.51	11458	
682.69	10238	
682.88	11824	
683.06	12232	
683.25	11110	
683.43	11445	
683.62	12035	
683.8	12252	
683.99	11422	
684.17	10562	
684.36	12798	
684.54	11269	
684.73	9256.1	
684.91	9442.5	
685.1	11412	
685.28	10801	
685.46	9881.4	
685.65	10230	
685.83	11710	
686.02	11292	
686.2	9681.4	
686.39	9880.8	
686.57	11229	
686.76	12691	
686.94	9839.8	
687.13	9998.9	
687.31	11820	
687.5	11511	
687.68	9411.8	
687.86	10806	
688.05	13210	
688.23	11067	
688.42	10975	
688.6	10150	
688.79	11480	
688.97	11398	
689.16	10667	
689.34	9484.8	
689.52	12211	
689.71	12395	
689.89	10821	
690.08	10020	
690.26	11695	
690.45	11635	
690.63	10827	
690.81	10078	
691	11320	
691.18	11325	
691.37	10266	
691.55	12326	
691.74	11186	
691.92	13246	
692.1	10376	
692.29	9729.2	
692.47	11561	
692.66	10832	
692.84	9950.4	
693.02	10724	
693.21	11111	
693.39	11574	
693.58	10838	
693.76	10259	
693.94	12900	
694.13	12838	
694.31	10529	
694.5	11615	
694.68	11710	
694.86	12123	
695.05	10963	
695.23	10916	
695.42	12507	
695.6	14758	
695.78	11419	
695.97	10415	
696.15	12381	
696.34	11795	
696.52	10144	
696.7	10879	
696.89	12060	
697.07	11340	
697.25	10796	
697.44	12378	
697.62	11946	
697.81	12208	
697.99	10412	
698.17	10884	
698.36	11205	
698.54	12002	
698.72	10813	
698.91	9783.1	
699.09	11453	
699.28	11400	
699.46	10483	
699.64	10294	
699.83	11267	
700.01	12436	
700.19	11212	
700.38	9688.9	
700.56	12813	
700.74	11695	
700.93	10045	
701.11	10901	
701.29	12138	
701.48	13417	
701.66	10485	
701.84	10495	
702.03	11823	
702.21	12469	
702.39	9987.3	
702.58	10669	
702.76	12168	
702.94	12357	
703.13	9949.7	
703.31	12542	
703.49	11505	
703.68	12482	
703.86	10207	
704.04	11267	
704.23	12045	
704.41	12454	
704.59	10374	
704.78	11544	
704.96	13323	
705.14	12521	
705.33	10241	
705.51	10995	
705.69	11929	
705.87	12635	
706.06	11366	
706.24	10152	
706.42	12156	
706.61	12451	
706.79	11342	
706.97	10274	
707.16	11617	
707.34	12287	
707.52	11182	
707.7	10430	
707.89	11747	
708.07	11459	
708.25	11204	
708.44	11432	
708.62	11682	
708.8	12622	
708.98	11540	
709.17	10486	
709.35	12194	
709.53	11992	
709.72	10029	
709.9	10253	
710.08	12319	
710.26	12329	
710.45	11692	
710.63	10472	
710.81	11922	
710.99	11704	
711.18	10907	
711.36	10341	
711.54	11601	
711.72	12215	
711.91	10312	
712.09	9713.5	
712.27	11577	
712.45	12618	
712.64	10432	
712.82	9361.9	
713	10722	
713.18	10839	
713.37	9041.8	
713.55	10071	
713.73	11122	
713.91	9657.5	
714.1	8882.7	
714.28	8202.1	
714.46	10357	
714.64	9493	
714.83	7418.4	
715.01	8200.7	
715.19	9308.7	
715.37	8646.5	
715.55	7763.8	
715.74	8083.3	
715.92	10172	
716.1	8148.9	
716.28	9096.4	
716.47	8127.7	
716.65	8791.9	
716.83	8871.8	
717.01	7909.9	
717.19	8027.4	
717.38	11166	
717.56	8895	
717.74	8566.7	
717.92	7802.8	
718.1	10334	
718.29	9721.7	
718.47	7672.4	
718.65	8421.2	
718.83	10473	
719.01	10496	
719.2	7819.8	
719.38	8824.7	
719.56	10061	
719.74	11585	
719.92	8187.8	
720.11	9081.4	
720.29	9869.2	
720.47	8845.2	
720.65	7408.9	
720.83	8235.6	
721.02	9080.7	
721.2	8901.2	
721.38	8258.1	
721.56	7458	
721.74	8267.6	
721.92	8441.7	
722.11	8688.2	
722.29	8373.5	
722.47	9821.4	
722.65	8916.2	
722.83	7528.3	
723.01	8415.8	
723.2	9113.5	
723.38	9355.8	
723.56	6934.4	
723.74	8089.5	
723.92	8493.6	
724.1	9628.9	
724.29	7309.9	
724.47	8458.1	
724.65	8615.8	
724.83	8472.4	
725.01	7327.6	
725.19	8189.8	
725.37	8542.8	
725.56	8634.2	
725.74	7095.5	
725.92	7336.5	
726.1	8472.4	
726.28	8846.5	
726.46	7860.1	
726.64	7615	
726.83	8739.4	
727.01	9055.4	
727.19	7075	
727.37	7936.6	
727.55	8916.2	
727.73	9429.5	
727.91	7082.6	
728.09	7002	
728.28	9480	
728.46	10271	
728.64	8245.8	
728.82	8264.2	
729	10828	
729.18	10165	
729.36	7669	
729.54	9911.5	
729.72	11267	
729.91	9534.7	
730.09	9646.6	
730.27	8483.4	
730.45	9548.3	
730.63	10275	
730.81	9093	
730.99	8209.6	
731.17	10660	
731.35	9271.2	
731.53	8620.6	
731.71	8214.4	
731.9	10368	
732.08	10520	
732.26	8419.2	
732.44	8093.6	
732.62	10556	
732.8	10000	
732.98	8902.5	
733.16	7882.6	
733.34	10075	
733.52	8777.6	
733.7	8378.9	
733.88	8740.7	
734.07	9781.1	
734.25	9717.6	
734.43	7897	
734.61	9449.3	
734.79	11114	
734.97	9551.7	
735.15	8015.1	
735.33	8420.6	
735.51	9833.7	
735.69	9563.3	
735.87	9514.9	
736.05	8540	
736.23	9752.4	
736.41	9544.9	
736.59	8415.1	
736.77	8605.6	
736.95	10247	
737.13	9726.5	
737.32	8192.6	
737.5	8358.4	
737.68	10817	
737.86	9546.3	
738.04	7865.6	
738.22	9785.9	
738.4	9254.1	
738.58	9604.3	
738.76	8445.1	
738.94	7532.4	
739.12	9426.8	
739.3	9406.3	
739.48	9166	
739.66	9025.4	
739.84	9815.9	
740.02	9704.6	
740.2	7724.9	
740.38	7901.1	
740.56	10184	
740.74	8955.8	
740.92	8543.4	
741.1	8533.9	
741.28	9516.9	
741.46	9407	
741.64	8140	
741.82	8572.8	
742	9499.8	
742.18	9551.7	
742.36	8365.3	
742.54	7896.3	
742.72	10127	
742.9	8769.4	
743.08	8697	
743.26	7488.7	
743.44	10276	
743.62	10068	
743.8	8785.8	
743.98	7818.5	
744.16	9789.3	
744.34	9438.4	
744.52	8644.5	
744.7	8561.2	
744.88	9859.6	
745.06	9368.8	
745.24	8667.7	
745.42	8563.2	
745.6	9892.4	
745.78	9665.7	
745.96	7284.6	
746.14	7695.6	
746.32	10554	
746.5	9746.3	
746.68	8269.7	
746.86	7708.6	
747.03	10272	
747.21	8488.8	
747.39	8191.2	
747.57	7696.3	
747.75	9349.7	
747.93	9828.2	
748.11	7646.4	
748.29	7610.3	
748.47	10966	
748.65	9032.9	
748.83	8425.3	
749.01	8097.7	
749.19	9605	
749.37	8794	
749.55	7978.2	
749.73	8012.3	
749.91	9240.4	
750.09	8964	
750.26	8127.7	
750.44	7439.6	
750.62	9249.3	
750.8	9170.1	
750.98	7352.2	
751.16	7719.5	
751.34	9364	
751.52	8658.8	
751.7	8474.5	
751.88	7302.4	
752.06	9807.7	
752.24	9630.2	
752.42	7278.5	
752.59	7606.2	
752.77	9178.3	
752.95	10550	
753.13	8420.6	
753.31	7831.4	
753.49	8852	
753.67	9301.9	
753.85	8019.8	
754.03	7527.7	
754.21	9402.2	
754.38	9794.8	
754.56	7675.8	
754.74	6502.3	
754.92	8459.5	
755.1	9062.9	
755.28	6111.1	
755.46	5794.4	
755.64	8908	
755.82	8688.2	
755.99	5254.4	
756.17	5255.1	
756.35	5760.3	
756.53	7286.7	
756.71	3968.3	
756.89	4955.4	
757.07	6877.1	
757.25	6114.6	
757.42	5871.5	
757.6	6922.8	
757.78	7624.6	
757.96	6630	
758.14	5883.8	
758.32	5354.8	
758.5	6033.3	
758.67	6792.4	
758.85	5432.6	
759.03	5526.1	
759.21	6960.4	
759.39	6345.3	
759.57	5172.5	
759.75	6275.7	
759.92	7780.9	
760.1	7000	
760.28	6798.6	
760.46	7135.1	
760.64	7079.8	
760.82	6851.1	
760.99	6909.2	
761.17	6138.4	
761.35	8107.2	
761.53	7102.4	
761.71	6361	
761.89	7103.7	
762.06	8114.1	
762.24	7637.6	
762.42	6697.5	
762.6	6483.9	
762.78	7807.5	
762.96	8458.1	
763.13	7279.2	
763.31	6907.8	
763.49	8743.5	
763.67	7862.8	
763.85	7821.2	
764.02	8319.5	
764.2	9033.6	
764.38	8198	
764.56	6793.8	
764.74	7590.5	
764.91	9232.2	
765.09	7934.5	
765.27	6340.5	
765.45	6208.1	
765.63	9095.7	
765.8	9014.5	
765.98	5921.4	
766.16	6287.9	
766.34	7492.2	
766.52	7256.6	
766.69	7135.1	
766.87	5996.5	
767.05	7876.5	
767.23	8559.1	
767.41	6270.2	
767.58	6521.4	
767.76	8297	
767.94	8428.8	
768.12	6340.5	
768.29	7062.8	
768.47	7705.8	
768.65	8539.3	
768.83	5827.2	
769	7085.3	
769.18	7283.9	
769.36	8010.3	
769.54	7002.7	
769.72	5836.7	
769.89	8197.3	
770.07	8291.5	
770.25	6172.6	
770.43	7389.1	
770.6	8898.4	
770.78	9255.5	
770.96	6200.6	
771.14	6842.9	
771.31	7950.9	
771.49	7273.7	
771.67	5326.1	
771.85	5581.4	
772.02	6552.1	
772.2	7287.4	
772.38	6276.3	
772.55	5786.9	
772.73	7436.2	
772.91	7191.1	
773.09	6070.9	
773.26	6165.1	
773.44	7281.9	
773.62	6989	
773.8	5539.8	
773.97	5264	
774.15	7378.1	
774.33	7050.5	
774.5	5368.4	
774.68	5701.5	
774.86	7467.6	
775.04	6920.1	
775.21	5368.4	
775.39	5258.5	
775.57	7129.7	
775.74	7550.9	
775.92	5143.1	
776.1	5054.4	
776.27	7045	
776.45	8247.2	
776.63	5231.9	
776.81	4687.8	
776.98	6679.8	
777.16	7733.8	
777.34	5383.4	
777.51	5307.7	
777.69	6522.1	
777.87	6377.4	
778.04	5345.9	
778.22	5916.6	
778.4	6320.7	
778.57	7020.4	
778.75	4540.3	
778.93	4778.6	
779.1	6075	
779.28	5917.9	
779.46	4489.8	
779.64	4973.2	
779.81	7002.7	
779.99	7914	
780.17	5732.3	
780.34	5952.1	
780.52	6471.6	
780.69	6605.4	
780.87	5194.3	
781.05	4728.8	
781.22	6438.8	
781.4	6444.3	
781.58	4851	
781.75	4037.2	
781.93	6464.8	
782.11	5832.6	
782.28	5633.3	
782.46	4793.6	
782.64	5683.8	
782.81	6550.8	
782.99	4839.4	
783.17	4771.8	
783.34	6385.6	
783.52	5644.2	
783.69	4984.8	
783.87	5806	
784.05	5653.8	
784.22	5713.8	
784.4	5687.9	
784.58	5027.1	
784.75	6618.4	
784.93	5668.1	
785.1	4656.4	
785.28	5350	
785.46	6285.9	
785.63	5645.6	
785.81	4572.4	
785.99	4442.7	
786.16	5778.7	
786.34	6177.4	
786.51	4522.6	
786.69	4849.6	
786.87	5340.4	
787.04	5804.6	
787.22	4300.7	
787.39	5207.3	
787.57	5493.3	
787.75	6640.9	
787.92	5414.1	
788.1	5317.2	
788.27	5599.1	
788.45	5290.6	
788.63	5076.2	
788.8	3740.3	
788.98	5897.5	
789.15	5229.8	
789.33	3943.7	
789.5	4474.8	
789.68	6354.2	
789.86	6540.5	
790.03	4945.2	
790.21	4348.5	
790.38	6335.7	
790.56	5594.4	
790.73	4151.9	
790.91	4233.2	
791.09	5462.6	
791.26	6174.6	
791.44	4466.6	
791.61	3860.4	
791.79	5398.4	
791.96	5447.6	
792.14	3947.1	
792.32	3558	
792.49	5444.2	
792.67	5478.3	
792.84	4024.9	
793.02	3810.6	
793.19	5831.2	
793.37	6532.3	
793.54	3514.3	
793.72	3915.7	
793.89	6743.3	
794.07	5387.5	
794.25	4505.5	
794.42	3600.3	
794.6	6500.3	
794.77	6009.4	
794.95	4724.7	
795.12	4102.1	
795.3	5340.4	
795.47	6027.2	
795.65	4586.1	
795.82	4310.3	
796	5122.7	
796.17	7075	
796.35	4214.7	
796.52	4924	
796.7	5864	
796.87	5982.1	
797.05	5138.4	
797.22	5020.9	
797.4	5930.2	
797.57	6965.8	
797.75	4320.5	
797.92	4091.2	
798.1	6249	
798.27	5233.9	
798.45	3535.5	
798.62	3836.5	
798.8	5548.6	
798.97	6056.5	
799.15	4559.5	
799.32	4332.1	
799.5	4863.2	
799.67	5696.8	
799.85	4674.8	
800.02	3448.1	
800.2	5169.1	
800.37	5535	
800.55	4896	
800.72	4029	
800.9	5989.6	
801.07	6489.3	
801.25	5390.3	
801.42	4426.3	
801.6	6022.4	
801.77	5764.3	
801.95	4142.4	
802.12	3966.9	
802.29	5798.5	
802.47	5732.3	
802.64	4351.3	
802.82	3348.4	
802.99	5165.7	
803.17	6199.2	
803.34	4255.7	
803.52	3845.4	
803.69	6767.9	
803.87	4961.5	
804.04	4259.8	
804.21	4403.1	
804.39	6315.9	
804.56	5373.9	
804.74	3652.9	
804.91	4436.6	
805.09	5265.3	
805.26	5334.3	
805.44	3631.7	
805.61	4014	
805.78	5866.7	
805.96	5866.7	
806.13	4429.1	
806.31	4636.6	
806.48	4723.3	
806.66	5256.5	
806.83	4351.3	
807	4252.3	
807.18	5112.4	
807.35	5559.6	
807.53	4223.6	
807.7	3396.2	
807.87	6341.9	
808.05	5225.7	
808.22	4651.6	
808.4	3369.6	
808.57	5185.5	
808.74	4795.7	
808.92	3865.2	
809.09	4953.4	
809.27	5073.5	
809.44	5693.4	
809.61	3388.7	
809.79	3789.4	
809.96	6239.5	
810.14	5870.8	
810.31	3338.2	
810.48	4063.2	
810.66	5208	
810.83	6040.1	
811.01	3829	
811.18	4287.1	
811.35	5879	
811.53	4646.8	
811.7	4678.2	
811.87	4377.2	
812.05	5171.8	
812.22	5116.5	
812.39	3729.4	
812.57	3626.3	
812.74	5186.1	
812.92	6829.3	
813.09	4069.3	
813.26	4459.1	
813.44	6589.7	
813.61	5110.4	
813.78	3392.1	
813.96	4497.3	
814.13	5176.6	
814.3	4812.7	
814.48	4837.3	
814.65	4050.9	
814.82	6391	
815	4927.4	
815.17	4158.1	
815.34	5020.3	
815.52	5091.3	
815.69	5134.3	
815.87	4118.5	
816.04	3524.6	
816.21	5120.6	
816.38	4575.2	
816.56	3996.3	
816.73	3747.1	
816.9	6477	
817.08	5941.8	
817.25	3764.2	
817.42	4722.6	
817.6	4760.2	
817.77	5166.3	
817.94	4231.8	
818.12	3708.2	
818.29	4878.9	
818.46	7611.6	
818.64	3914.4	
818.81	3699.3	
818.98	4840	
819.16	7030.7	
819.33	4438.6	
819.5	4115.1	
819.67	5508.4	
819.85	6236.7	
820.02	4108.2	
820.19	4358.8	
820.37	5392.3	
820.54	4949.3	
820.71	4227.7	
820.88	5224.4	
821.06	5409.4	
821.23	4937	
821.4	4213.4	
821.58	4177.9	
821.75	5859.2	
821.92	5281	
822.09	3387.3	
822.27	3522.5	
822.44	5141.8	
822.61	5078.3	
822.79	3401	
822.96	6505.7	
823.13	5586.9	
823.3	4853.7	
823.48	3915.7	
823.65	3555.3	
823.82	5787.6	
823.99	4724	
824.17	4974.5	
824.34	3630.4	
824.51	6782.9	
824.68	5209.3	
824.86	3743.7	
825.03	4215.4	
825.2	5158.8	
825.37	6261.3	
825.55	3781.2	
825.72	4141	
825.89	6789	
826.06	6290.7	
826.24	4101.4	
826.41	4110.3	
826.58	6219.7	
826.75	5474.2	
826.92	3224.9	
827.1	3570.3	
827.27	8475.2	
827.44	6785.6	
827.61	3861.1	
827.79	4685.1	
827.96	4919.9	
828.13	5218.2	
828.3	4017.4	
828.47	3358.7	
828.65	5386.8	
828.82	5346.6	
828.99	5105.6	
829.16	4517.8	
829.34	5732.9	
829.51	5621.7	
829.68	4149.2	
829.85	4354.7	
830.02	6016.9	
830.2	5766.4	
830.37	3216	
830.54	5025.7	
830.71	6531.7	
830.88	5132.2	
831.05	3266.5	
831.23	3718.4	
831.4	6352.1	
831.57	7010.2	
831.74	3856.3	
831.91	3461.1	
832.09	5401.9	
832.26	5816.9	
832.43	3969.6	
832.6	4469.4	
832.77	5380.7	
832.94	6154.1	
833.12	3200.3	
833.29	3934.1	
833.46	5022.3	
833.63	7261.4	
833.8	4367.6	
833.97	4062.5	
834.15	5799.8	
834.32	5494.7	
834.49	4178.5	
834.66	4248.2	
834.83	5987.6	
835	4858.5	
835.17	3850.9	
835.35	3880.2	
835.52	5679	
835.69	5556.1	
835.86	3949.2	
836.03	3396.2	
836.2	5728.2	
836.37	5385.5	
836.55	4015.4	
836.72	3805.8	
836.89	5320.6	
837.06	5782.1	
837.23	4072	
837.4	4455.7	
837.57	6612.9	
837.75	7189.7	
837.92	3693.9	
838.09	3842.7	
838.26	5281	
838.43	6141.2	
838.6	4203.8	
838.77	3734.8	
838.94	6781.5	
839.11	6602.7	
839.29	4015.4	
839.46	3166.8	
839.63	5724.8	
839.8	5464.7	
839.97	3831.7	
840.14	3878.2	
840.31	5540.4	
840.48	5756.8	
840.65	3242.6	
840.82	3786.7	
841	5645.6	
841.17	5650.3	
841.34	3579.8	
841.51	3655.6	
841.68	5674.9	
841.85	5418.9	
842.02	3758	
842.19	3071.3	
842.36	5529.5	
842.53	5502.9	
842.7	3568.2	
842.87	4346.5	
843.05	7175.4	
843.22	5406.6	
843.39	3410.6	
843.56	3741.6	
843.73	5154.7	
843.9	5810.8	
844.07	5752.7	
844.24	4797.7	
844.41	8369.4	
844.58	4977.2	
844.75	3482.9	
844.92	3733.4	
845.09	5791.7	
845.26	5742.5	
845.43	3499.3	
845.6	3751.9	
845.77	5707	
845.94	5429.2	
846.12	3909.6	
846.29	4162.2	
846.46	5980.8	
846.63	5685.2	
846.8	3564.1	
846.97	4201.7	
847.14	6186.9	
847.31	5705	
847.48	3995.6	
847.65	4388.1	
847.82	5969.1	
847.99	5971.9	
848.16	4707.6	
848.33	4442	
848.5	5285.8	
848.67	6191.7	
848.84	3527.3	
849.01	3671.3	
849.18	5144.5	
849.35	4775.9	
849.52	4370.4	
849.69	3443.3	
849.86	5886.5	
850.03	6143.2	
850.2	3534.8	
850.37	4321.9	
850.54	6092.7	
850.71	5370.5	
850.88	4296	
851.05	3449.5	
851.22	5688.6	
851.39	6226.5	
851.56	3301.3	
851.73	4044.1	
851.9	5015.5	
852.07	5960.3	
852.24	3940.3	
852.41	3547.8	
852.58	5568.4	
852.75	5053.7	
852.92	3984	
853.09	3466.5	
853.26	5373.2	
853.43	6192.4	
853.6	3521.1	
853.77	3015.3	
853.94	6268.8	
854.11	5684.5	
854.28	5212.1	
854.44	3777.8	
854.61	6752.8	
854.78	5803.3	
854.95	3480.2	
855.12	4402.5	
855.29	4567	
855.46	6389.7	
855.63	3494.5	
855.8	4883.7	
855.97	5257.8	
856.14	6009.4	
856.31	4892.6	
856.48	3848.8	
856.65	5287.2	
856.82	4956.8	
856.99	3390.8	
857.16	3861.8	
857.33	6997.9	
857.49	5378	
857.66	3817.4	
857.83	4098	
858	5337.7	
858.17	5479	
858.34	3398.9	
858.51	3524.6	
858.68	6427.2	
858.85	6387.6	
859.02	4055	
859.19	4307.6	
859.36	5044.8	
859.52	5033.2	
859.69	3556.6	
859.86	4133.5	
860.03	5077.6	
860.2	6283.9	
860.37	3187.3	
860.54	3567.6	
860.71	5929.6	
860.88	6379.4	
861.05	3919.8	
861.21	4442	
861.38	6339.1	
861.55	4895.3	
861.72	3229	
861.89	3917.1	
862.06	5965.1	
862.23	6466.1	
862.4	3446	
862.56	3663.8	
862.73	5857.9	
862.9	5489.9	
863.07	4121.9	
863.24	3234.4	
863.41	4873.5	
863.58	5071.5	
863.75	3596.2	
863.91	4082.3	
864.08	6298.2	
864.25	5817.6	
864.42	4390.8	
864.59	4898.1	
864.76	6602.7	
864.93	4979.3	
865.09	3451.5	
865.26	3713.7	
865.43	6206.7	
865.6	6645	
865.77	3085.6	
865.94	3463.8	
866.1	6238.8	
866.27	6019	
866.44	5337	
866.61	3364.1	
866.78	5477.6	
866.95	5816.9	
867.11	3417.4	
867.28	3093.8	
867.45	5999.2	
867.62	5070.8	
867.79	4065.9	
867.96	3502	
868.12	5036.6	
868.29	5928.9	
868.46	3510.9	
868.63	4673.5	
868.8	6197.8	
868.97	5928.9	
869.13	3690.4	
869.3	3710.2	
869.47	5751.4	
869.64	6035.4	
869.81	3606.5	
869.97	3572.3	
870.14	5682.4	
870.31	6392.4	
870.48	3403	
870.65	4468	
870.81	5333.6	
870.98	5352	
871.15	4029.7	
871.32	3652.9	
871.48	5786.2	
871.65	6408.1	
871.82	3468.6	
871.99	3850.9	
872.16	6819.7	
872.32	6223.1	
872.49	3594.9	
872.66	3568.2	
872.83	5934.3	
872.99	5171.8	
873.16	4012	
873.33	3485.6	
873.5	5582.8	
873.67	5619.6	
873.83	3669.3	
874	4640.7	
874.17	5673.6	
874.34	6741.2	
874.5	4533.5	
874.67	4355.3	
874.84	6288.6	
875.01	4992.9	
875.17	4913.1	
875.34	3506.1	
875.51	5586.9	
875.68	6802	
875.84	4235.9	
876.01	5135.6	
876.18	5885.9	
876.34	5830.6	
876.51	3544.4	
876.68	3483.6	
876.85	5358.2	
877.01	6236.7	
877.18	4983.4	
877.35	3536.8	
877.52	5520.6	
877.68	4946.5	
877.85	3482.2	
878.02	3481.5	
878.18	5466	
878.35	5182	
878.52	2852.8	
878.69	3927.3	
878.85	5904.3	
879.02	5883.8	
879.19	4982	
879.35	3756.7	
879.52	5933.6	
879.69	6062.7	
879.86	3008.5	
880.02	3962.8	
880.19	5462.6	
880.36	6755.6	
880.52	4062.5	
880.69	4154	
880.86	6002.6	
881.02	6098.9	
881.19	3870.7	
881.36	3778.5	
881.52	5847	
881.69	5191.6	
881.86	3781.9	
882.02	3724.6	
882.19	6201.9	
882.36	7241.6	
882.52	3599.6	
882.69	4975.2	
882.86	5670.8	
883.02	5557.5	
883.19	4253.6	
883.36	4035.2	
883.52	5968.5	
883.69	6823.1	
883.86	3486.3	
884.02	3175	
884.19	5969.8	
884.36	5488.6	
884.52	3979.2	
884.69	3750.5	
884.86	5247.6	
885.02	6551.5	
885.19	3919.8	
885.36	4079.6	
885.52	5416.2	
885.69	5682.4	
885.86	5063.9	
886.02	4470.7	
886.19	5913.9	
886.35	5409.4	
886.52	3861.1	
886.69	4979.3	
886.85	5024.3	
887.02	6338.5	
887.19	6338.5	
887.35	6338.5	
887.52	6338.5	
887.68	6338.5	
887.85	6338.5	
888.02	6338.5	
888.18	6338.5	
888.35	6338.5	
888.51	6338.5	
888.68	6338.5	
888.85	6338.5	
889.01	6338.5	
889.18	6338.5	
889.35	6338.5	
889.51	6338.5	
889.68	6338.5	
889.84	6338.5	
890.01	6338.5	
890.17	6338.5	
890.34	6338.5	
890.51	6338.5	
890.67	6338.5	
890.84	6338.5	
891	6338.5	
891.17	6338.5	
891.34	6338.5	
891.5	6338.5	
891.67	6338.5	
891.83	6338.5	
892	6338.5	
892.16	6338.5	
892.33	6338.5	
892.5	6338.5	
892.66	6338.5	
892.83	6338.5	
892.99	6338.5	
893.16	6338.5	
893.32	6338.5	
893.49	6338.5	
893.65	6338.5	
893.82	6338.5	
893.99	6338.5	
894.15	6338.5	
894.32	6338.5	
894.48	6338.5	
894.65	6338.5	
894.81	6338.5	
894.98	6338.5	
895.14	6338.5	
895.31	6338.5	
895.47	6338.5	
895.64	6338.5	
895.81	6338.5	
895.97	6338.5	
896.14	6338.5	
896.3	6338.5	
896.47	6338.5	
896.63	6338.5	
896.8	6338.5	
896.96	6338.5	
897.13	6338.5	
897.29	6338.5	
897.46	6338.5	
897.62	6338.5	
897.79	6338.5	
897.95	6338.5	
898.12	6338.5	
898.28	6338.5	
898.45	6338.5	
898.61	6338.5	
898.78	6338.5	
898.94	6338.5	
899.11	6338.5	
899.27	6338.5	
899.44	6338.5	
899.6	6338.5	
899.77	6338.5	
899.93	6338.5	
900.1	6338.5	
900.26	6338.5	
900.43	6338.5	
900.59	6338.5	
900.76	6338.5	
900.92	6338.5	
901.09	6338.5	
901.25	6338.5	
901.42	6338.5	
901.58	6338.5	
901.75	6338.5	
901.91	6338.5	
902.07	6338.5	
902.24	6338.5	
902.4	6338.5	
902.57	6338.5	
902.73	6338.5	
902.9	6338.5	
903.06	6338.5	
903.23	6338.5	
903.39	6338.5	
903.56	6338.5	
903.72	6338.5	
903.88	6338.5	
904.05	6338.5	
904.21	6338.5	
904.38	6338.5	
904.54	6338.5	
904.71	6338.5	
904.87	6338.5	
905.03	6338.5	
905.2	6338.5	
905.36	6338.5	
905.53	6338.5	
905.69	6338.5	
905.86	6338.5	
906.02	6338.5	
906.18	6338.5	
906.35	6338.5	
906.51	6338.5	
906.68	6338.5	
906.84	6338.5	
907.01	6338.5	
907.17	6338.5	
907.33	6338.5	
907.5	6338.5	
907.66	6338.5	
907.83	6338.5	
907.99	6338.5	
908.15	6338.5	
908.32	6338.5	
908.48	6338.5	
908.65	6338.5	
908.81	6338.5	
908.97	6338.5	
909.14	6338.5	
909.3	6338.5	
909.47	6338.5	
909.63	6338.5	
909.79	6338.5	
909.96	6338.5	
910.12	6338.5	
910.28	6338.5	
910.45	6338.5	
910.61	6338.5	
910.78	6338.5	
910.94	6338.5	
911.1	6338.5	
911.27	6338.5	
911.43	6338.5	
911.59	6338.5	
911.76	6338.5	
911.92	6338.5	
912.08	6338.5	
912.25	6338.5	
912.41	6338.5	
912.57	6338.5	
912.74	6338.5	
912.9	6338.5	
913.07	6338.5	
913.23	6338.5	
913.39	6338.5	
913.56	6338.5	
913.72	6338.5	
913.88	6338.5	
914.05	6338.5	
914.21	6338.5	
914.37	6338.5	
914.54	6338.5	
914.7	6338.5	
914.86	6338.5	
915.03	6338.5	
915.19	6338.5	
