Wavelength	Intensities	
nm	a.u.	
179.22	1941.3	
179.44	1928.8	
179.65	1953.8	
179.86	1903.9	
180.08	1960.6	
180.29	5147.9	
180.51	3577.8	
180.72	5784.8	
180.94	6821.1	
181.15	3340.9	
181.37	3276.8	
181.58	5641.5	
181.79	5974.6	
182.01	3514.3	
182.22	3747.1	
182.44	5922	
182.65	4922	
182.87	4752.7	
183.08	4155.3	
183.29	6184.2	
183.51	5087.8	
183.72	3857.7	
183.94	5520.6	
184.15	5479.7	
184.37	5511.8	
184.58	3308.8	
184.79	4613.4	
185.01	5101.5	
185.22	5919.3	
185.44	4848.9	
185.65	4104.1	
185.86	5406	
186.08	4970.4	
186.29	3204.4	
186.51	3493.2	
186.72	5080.3	
186.94	6107.7	
187.15	3977.2	
187.36	4262.5	
187.58	7971.4	
187.79	5621	
188.01	4397	
188.22	6886	
188.43	6827.2	
188.65	5925.5	
188.86	3443.3	
189.08	4199.7	
189.29	5347.2	
189.5	5349.3	
189.72	3885	
189.93	3993.5	
190.15	6161	
190.36	7402	
190.57	4235.9	
190.79	4160.8	
191	6204	
191.22	6148	
191.43	4280.3	
191.64	3448.8	
191.86	6480.5	
192.07	6210.1	
192.29	3637.2	
192.5	3891.8	
192.71	6135	
192.93	5313.8	
193.14	3794.9	
193.35	3929.4	
193.57	5316.5	
193.78	6180.8	
194	3067.9	
194.21	3843.4	
194.42	5044.8	
194.64	5634.6	
194.85	4196.3	
195.07	4967	
195.28	5680.4	
195.49	4835.3	
195.71	5158.2	
195.92	3636.5	
196.13	5681.1	
196.35	5910.4	
196.56	5470.1	
196.78	4193.6	
196.99	7319.4	
197.2	6791.1	
197.42	4774.5	
197.63	4246.8	
197.84	4972.5	
198.06	5755.5	
198.27	3839.3	
198.48	5210	
198.7	5314.5	
198.91	5371.1	
199.13	4191.5	
199.34	4211.3	
199.55	5911.1	
199.77	4827.7	
199.98	3688.4	
200.19	4263.2	
200.41	5389.6	
200.62	5134.9	
200.83	4428.4	
201.05	4735.6	
201.26	5455.1	
201.47	5169.8	
201.69	3666.5	
201.9	3572.3	
202.11	5485.8	
202.33	6602	
202.54	4014.7	
202.76	4462.5	
202.97	5685.2	
203.18	5651	
203.4	4362.2	
203.61	4284.4	
203.82	5565	
204.04	5160.9	
204.25	4221.5	
204.46	4097.3	
204.68	5550.7	
204.89	5795.8	
205.1	4191.5	
205.32	3516.4	
205.53	6009.4	
205.74	6120	
205.96	3009.8	
206.17	4312.3	
206.38	5993	
206.6	6098.2	
206.81	4832.5	
207.02	3945.8	
207.24	5816.9	
207.45	6270.9	
207.66	3989.4	
207.88	3364.1	
208.09	5765	
208.3	5507	
208.52	3697.9	
208.73	4086.4	
208.94	5535.7	
209.15	6257.2	
209.37	4044.1	
209.58	4209.3	
209.79	6072.2	
210.01	5316.5	
210.22	3192.8	
210.43	3308.8	
210.65	5584.8	
210.86	6074.3	
211.07	4084.3	
211.29	3665.2	
211.5	5920	
211.71	5484.5	
211.93	3634.5	
212.14	3664.5	
212.35	5457.2	
212.56	5732.3	
212.78	4232.5	
212.99	3480.9	
213.2	6597.9	
213.42	5292	
213.63	3848.1	
213.84	4048.2	
214.06	4891.9	
214.27	5024.3	
214.48	4024.9	
214.69	4253.6	
214.91	6268.1	
215.12	6366.5	
215.33	4351.9	
215.55	4818.2	
215.76	6937.8	
215.97	5999.9	
216.18	4170.3	
216.4	4093.2	
216.61	5252.4	
216.82	6066.8	
217.04	3676.1	
217.25	3856.3	
217.46	6283.2	
217.67	5956.9	
217.89	3295.2	
218.1	3418.7	
218.31	5573.2	
218.53	5743.9	
218.74	3846.8	
218.95	3710.2	
219.16	5520	
219.38	6522.8	
219.59	3808.5	
219.8	4531.5	
220.01	7226.6	
220.23	5612.1	
220.44	5014.8	
220.65	3707.5	
220.87	5623.7	
221.08	6151.4	
221.29	3426.3	
221.5	4652.3	
221.72	7633.5	
221.93	5276.9	
222.14	4265.2	
222.35	5001.1	
222.57	5530.2	
222.78	5927.5	
222.99	4034.5	
223.2	4390.2	
223.42	5911.8	
223.63	6033.3	
223.84	3048.1	
224.05	3044	
224.27	7122.8	
224.48	6524.8	
224.69	4993.6	
224.9	4220.2	
225.12	5816.9	
225.33	5501.5	
225.54	3362.1	
225.75	3753.2	
225.97	5104.2	
226.18	5390.3	
226.39	4132.1	
226.6	3740.3	
226.82	5277.6	
227.03	5148.6	
227.24	4236.6	
227.45	3500	
227.67	5939.1	
227.88	6621.1	
228.09	4779.3	
228.3	4745.1	
228.52	6009.4	
228.73	5488.6	
228.94	3936.2	
229.15	3473.4	
229.36	5457.8	
229.58	5418.9	
229.79	3910.3	
230	4599.1	
230.21	6625.9	
230.43	5681.1	
230.64	4191.5	
230.85	4446.8	
231.06	5960.3	
231.28	6049.7	
231.49	3452.2	
231.7	4067.3	
231.91	5848.3	
232.12	5633.3	
232.34	3548.4	
232.55	4084.3	
232.76	6212.9	
232.97	5715.9	
233.18	3714.3	
233.4	4169	
233.61	5812.8	
233.82	5262.6	
234.03	3830.4	
234.25	3798.3	
234.46	7807.5	
234.67	5589.6	
234.88	4304.1	
235.09	3735.5	
235.31	5927.5	
235.52	5422.3	
235.73	4177.2	
235.94	3534.1	
236.15	5313.1	
236.37	6812.9	
236.58	3709.6	
236.79	4090.5	
237	5907.7	
237.21	5042.8	
237.43	4302.8	
237.64	3420.1	
237.85	10254	
238.06	5137.7	
238.27	4434.5	
238.48	3506.1	
238.7	5872.2	
238.91	5372.5	
239.12	4017.4	
239.33	4055.7	
239.54	5173.2	
239.76	5483.1	
239.97	4031.1	
240.18	4014.7	
240.39	7055.3	
240.6	5867.4	
240.82	4145.8	
241.03	3381.2	
241.24	5588.2	
241.45	6482.5	
241.66	3651.5	
241.87	4348.5	
242.09	6367.8	
242.3	6740.5	
242.51	4387.4	
242.72	4100	
242.93	6094.1	
243.14	5472.9	
243.36	4717.2	
243.57	5087.8	
243.78	6508.4	
243.99	5997.8	
244.2	4112.3	
244.41	3682.9	
244.63	5083.7	
244.84	5935	
245.05	4352.6	
245.26	4116.4	
245.47	5814.9	
245.68	6126.8	
245.9	5436.7	
246.11	4242.7	
246.32	5346.6	
246.53	5756.8	
246.74	6634.1	
246.95	3379.1	
247.16	4914.4	
247.38	5566.4	
247.59	3325.2	
247.8	3988.1	
248.01	5215.5	
248.22	5464	
248.43	3682.9	
248.64	3917.8	
248.86	4921.3	
249.07	5322.7	
249.28	3545	
249.49	4145.1	
249.7	6092.7	
249.91	6318	
250.12	3333.4	
250.34	3411.9	
250.55	5682.4	
250.76	5549.3	
250.97	4192.2	
251.18	4279.6	
251.39	6356.9	
251.6	5711.8	
251.81	4343.1	
252.03	4265.2	
252.24	5306.3	
252.45	6111.1	
252.66	3572.3	
252.87	4556.7	
253.08	5587.5	
253.29	7422.5	
253.5	3498.6	
253.72	4957.4	
253.93	5383.4	
254.14	6638.1	
254.35	3848.8	
254.56	3987.4	
254.77	5873.6	
254.98	5149.3	
255.19	3815.4	
255.41	4984.1	
255.62	5663.3	
255.83	6236.7	
256.04	4340.3	
256.25	4298.7	
256.46	6886.6	
256.67	5141.1	
256.88	4154	
257.09	4663.9	
257.31	5231.2	
257.52	5214.1	
257.73	5231.2	
257.94	3789.4	
258.15	5451.7	
258.36	5576.6	
258.57	4851	
258.78	3085.6	
258.99	6100.9	
259.2	5424.4	
259.41	3863.2	
259.63	3978.5	
259.84	6396.5	
260.05	6901	
260.26	5145.2	
260.47	3764.2	
260.68	6175.3	
260.89	5451	
261.1	4717.2	
261.31	3586.7	
261.52	6156.9	
261.73	6570.6	
261.95	5016.8	
262.16	4332.1	
262.37	6328.9	
262.58	6413.6	
262.79	4983.4	
263	3904.1	
263.21	5586.2	
263.42	5197.7	
263.63	3984.7	
263.84	3893.2	
264.05	6120	
264.26	6553.5	
264.47	4859.8	
264.69	4323.3	
264.9	6284.5	
265.11	5785.5	
265.32	3781.2	
265.53	3818.8	
265.74	5682.4	
265.95	4952	
266.16	4138.3	
266.37	4590.2	
266.58	5636.7	
266.79	5289.2	
267	3832.4	
267.21	3534.8	
267.42	5099.4	
267.63	5593	
267.84	4020.2	
268.06	3459	
268.27	6006.7	
268.48	6340.5	
268.69	3949.8	
268.9	4692.6	
269.11	6286.6	
269.32	5016.2	
269.53	4024.9	
269.74	3760.1	
269.95	5937.1	
270.16	4924	
270.37	4078.9	
270.58	4640	
270.79	5404.6	
271	6172.6	
271.21	4385.4	
271.42	4079.6	
271.63	5705	
271.84	5195	
272.05	3216	
272.26	3633.1	
272.47	5586.9	
272.68	5776	
272.89	3827	
273.11	4499.4	
273.32	5378	
273.53	6582.9	
273.74	4369.7	
273.95	4290.5	
274.16	6311.8	
274.37	5616.9	
274.58	4438.6	
274.79	3504.8	
275	5739.1	
275.21	6292	
275.42	5348.6	
275.63	4579.3	
275.84	5829.9	
276.05	7375.4	
276.26	4266.6	
276.47	3985.3	
276.68	5361.6	
276.89	6638.1	
277.1	4627	
277.31	3568.2	
277.52	5844.2	
277.73	5965.7	
277.94	3504.8	
278.15	3934.1	
278.36	5687.9	
278.57	5188.9	
278.78	3859.1	
278.99	4345.1	
279.2	5155.4	
279.41	5122.7	
279.62	5128.8	
279.83	3592.8	
280.04	6798.6	
280.25	5072.1	
280.46	5082.4	
280.67	4017.4	
280.88	5118.6	
281.09	6297.5	
281.3	4293.2	
281.51	5444.2	
281.72	6134.3	
281.93	6163	
282.14	3822.2	
282.35	4128.7	
282.56	6109.1	
282.77	6098.2	
282.98	3930.1	
283.19	4818.9	
283.4	7567.2	
283.61	5513.8	
283.82	3545	
284.03	5044.1	
284.24	5706.3	
284.45	6336.4	
284.66	5103.5	
284.87	4842.1	
285.08	6166.4	
285.29	6357.6	
285.5	3394.8	
285.71	4044.7	
285.92	6206.7	
286.12	6908.5	
286.33	5026.4	
286.54	3959.4	
286.75	6098.9	
286.96	5428.5	
287.17	3614	
287.38	4928.1	
287.59	5170.4	
287.8	5109.7	
288.01	3947.1	
288.22	4589.5	
288.43	6143.9	
288.64	5079	
288.85	4708.3	
289.06	4459.8	
289.27	6010.1	
289.48	6595.8	
289.69	5055.8	
289.9	4591.5	
290.11	6262.7	
290.32	5214.1	
290.53	4789.5	
290.74	4393.6	
290.94	6052.4	
291.15	6217.6	
291.36	3809.2	
291.57	4563.6	
291.78	5328.8	
291.99	4961.5	
292.2	3605.1	
292.41	4422.2	
292.62	6221.7	
292.83	5986.9	
293.04	5464	
293.25	3700	
293.46	5347.9	
293.67	6223.1	
293.88	3798.3	
294.09	3661.8	
294.29	5118.6	
294.5	5702.2	
294.71	4079.6	
294.92	3867.2	
295.13	5375.2	
295.34	6739.9	
295.55	3405.1	
295.76	3512.9	
295.97	6008.7	
296.18	6860.7	
296.39	3557.3	
296.6	3770.3	
296.81	5695.4	
297.01	5998.5	
297.22	4003.8	
297.43	3791.5	
297.64	5174.5	
297.85	5156.1	
298.06	3154.6	
298.27	3461.7	
298.48	5586.9	
298.69	5302.2	
298.9	4115.7	
299.11	3713	
299.31	5016.8	
299.52	5072.1	
299.73	4442	
299.94	4340.3	
300.15	5567.7	
300.36	5150	
300.57	4379.9	
300.78	4313	
300.99	5460.6	
301.2	5729.5	
301.4	3757.3	
301.61	4037.2	
301.82	5866.1	
302.03	6023.8	
302.24	4657.8	
302.45	3591.5	
302.66	5891.3	
302.87	6411.5	
303.08	3824.9	
303.29	5279	
303.49	5282.4	
303.7	5646.2	
303.91	3394.8	
304.12	5026.4	
304.33	5014.8	
304.54	5744.6	
304.75	3871.3	
304.96	3612.6	
305.16	5980.8	
305.37	6792.4	
305.58	3275.4	
305.79	3448.8	
306	5952.8	
306.21	4901.5	
306.42	3813.3	
306.63	5868.1	
306.83	5444.9	
307.04	6277.7	
307.25	4209.9	
307.46	4144.4	
307.67	4743.1	
307.88	6091.3	
308.09	3727.3	
308.29	3900	
308.5	5679	
308.71	6266.1	
308.92	4052.2	
309.13	3603.7	
309.34	5397.8	
309.55	5484.5	
309.75	4698.7	
309.96	4335.5	
310.17	6010.1	
310.38	5296.7	
310.59	4638.6	
310.8	3560.7	
311.01	5436.7	
311.21	5461.2	
311.42	3598.3	
311.63	3707.5	
311.84	5287.9	
312.05	5739.1	
312.26	4237.2	
312.46	4674.1	
312.67	5362.9	
312.88	5119.2	
313.09	3635.1	
313.3	3534.8	
313.51	6478.4	
313.71	6821.1	
313.92	3644.7	
314.13	3874.8	
314.34	5782.1	
314.55	5530.9	
314.76	4729.4	
314.96	4108.2	
315.17	5610.8	
315.38	6055.2	
315.59	3673.4	
315.8	3519.8	
316.01	6545.3	
316.21	6571.9	
316.42	3530.7	
316.63	4121.9	
316.84	5399.8	
317.05	6332.3	
317.26	4349.9	
317.46	3882.3	
317.67	5474.9	
317.88	5968.5	
318.09	4691.2	
318.3	3427.6	
318.5	5298.1	
318.71	5924.8	
318.92	5961.6	
319.13	4335.5	
319.34	6122.1	
319.54	6224.5	
319.75	3424.2	
319.96	3244	
320.17	6040.8	
320.38	6221	
320.58	3343	
320.79	4048.2	
321	6229.2	
321.21	6279.1	
321.42	4035.9	
321.62	3316.3	
321.83	5152.7	
322.04	5623	
322.25	3842.7	
322.46	3687.7	
322.66	5683.1	
322.87	5862	
323.08	4578.6	
323.29	3594.9	
323.5	6723.5	
323.7	5113.8	
323.91	5046.9	
324.12	4529.4	
324.33	5570.5	
324.53	5935.7	
324.74	4341	
324.95	4589.5	
325.16	4930.8	
325.37	5407.3	
325.57	3692.5	
325.78	3747.8	
325.99	5657.2	
326.2	5033.9	
326.4	5265.3	
326.61	3372.3	
326.82	5526.8	
327.03	5684.5	
327.24	5282.4	
327.44	5016.2	
327.65	5870.8	
327.86	4724	
328.07	4392.9	
328.27	3547.8	
328.48	6309.8	
328.69	5117.9	
328.9	5406.6	
329.1	4001.7	
329.31	5456.5	
329.52	6450.4	
329.73	3624.2	
329.93	4174.4	
330.14	5551.4	
330.35	5877.7	
330.56	6148	
330.76	4547.9	
330.97	5389.6	
331.18	5839.4	
331.39	4091.8	
331.59	3283.6	
331.8	6255.2	
332.01	6342.6	
332.22	3780.6	
332.42	4433.2	
332.63	5709.1	
332.84	5259.2	
333.05	4137.6	
333.25	3780.6	
333.46	5330.9	
333.67	5595.1	
333.88	3869.3	
334.08	4331.5	
334.29	7527.7	
334.5	6296.1	
334.7	3576.4	
334.91	5298.8	
335.12	5084.4	
335.33	6070.2	
335.53	4074.1	
335.74	6109.8	
335.95	5338.4	
336.16	5227.1	
336.36	4096.6	
336.57	4726	
336.78	5068	
336.98	6267.5	
337.19	5085.8	
337.4	3970.3	
337.61	6743.3	
337.81	5124.7	
338.02	3680.9	
338.23	4894.6	
338.43	6414.9	
338.64	5246.2	
338.85	3730	
339.05	4863.2	
339.26	6489.3	
339.47	5010.7	
339.68	3683.6	
339.88	5565	
340.09	5856.5	
340.3	6062	
340.5	4390.8	
340.71	3304.7	
340.92	5040.1	
341.13	6354.8	
341.33	3579.8	
341.54	4423.6	
341.75	5806.7	
341.95	5384.8	
342.16	4172.4	
342.37	4537.6	
342.57	5121.3	
342.78	5552	
342.99	4627	
343.19	3287.7	
343.4	5982.8	
343.61	5844.9	
343.81	3949.2	
344.02	3607.8	
344.23	6040.8	
344.43	6500.3	
344.64	4588.1	
344.85	4497.3	
345.06	5884.5	
345.26	6297.5	
345.47	4293.2	
345.68	5037.3	
345.88	4881	
346.09	6097.5	
346.3	4401.1	
346.5	3281.5	
346.71	5674.2	
346.92	5263.3	
347.12	3378.5	
347.33	4326.7	
347.54	6213.5	
347.74	6637.5	
347.95	4327.4	
348.16	3179.1	
348.36	5413.5	
348.57	5207.3	
348.78	4233.8	
348.98	4581.3	
349.19	5603.9	
349.39	5038.7	
349.6	3424.9	
349.81	3780.6	
350.01	5881.1	
350.22	5308.3	
350.43	4115.7	
350.63	4990.2	
350.84	5655.1	
351.05	5414.1	
351.25	3760.8	
351.46	3393.5	
351.67	6296.1	
351.87	5301.5	
352.08	4018.1	
352.29	4557.4	
352.49	6119.3	
352.7	5802.6	
352.9	3637.2	
353.11	4526.7	
353.32	6808.8	
353.52	5414.8	
353.73	3605.8	
353.94	4670.7	
354.14	5952.8	
354.35	5763	
354.55	3700	
354.76	4132.8	
354.97	5909.8	
355.17	5698.8	
355.38	3533.4	
355.59	4902.8	
355.79	5300.1	
356	5780.7	
356.2	4138.3	
356.41	3605.8	
356.62	5051	
356.82	5595.7	
357.03	4450.9	
357.24	3963.5	
357.44	5343.8	
357.65	5488.6	
357.85	5397.8	
358.06	4172.4	
358.27	5156.8	
358.47	5271.5	
358.68	3514.3	
358.88	4451.6	
359.09	5958.2	
359.3	6399.9	
359.5	5227.8	
359.71	4618.9	
359.91	6892.1	
360.12	6173.3	
360.33	4364.9	
360.53	4959.5	
360.74	5391.6	
360.94	5438.7	
361.15	4623.6	
361.36	3848.1	
361.56	6206.7	
361.77	5618.3	
361.97	5162.9	
362.18	4100.7	
362.38	6294.8	
362.59	5269.4	
362.8	3790.8	
363	3652.2	
363.21	5059.2	
363.41	5780.7	
363.62	4383.3	
363.83	5488.6	
364.03	5832.6	
364.24	6978.8	
364.44	5500.8	
364.65	5492	
364.85	5614.8	
365.06	5287.9	
365.27	4005.8	
365.47	4058.4	
365.68	6655.9	
365.88	5588.9	
366.09	4481	
366.29	4104.8	
366.5	5946.6	
366.71	6356.9	
366.91	5506.3	
367.12	4647.5	
367.32	6978.8	
367.53	6219	
367.73	4569.7	
367.94	5588.2	
368.14	6091.3	
368.35	7125.6	
368.56	4560.1	
368.76	3869.3	
368.97	6242.9	
369.17	8088.8	
369.38	3978.5	
369.58	4275.5	
369.79	5256.5	
369.99	6625.9	
370.2	5369.8	
370.4	4405.9	
370.61	5943.9	
370.82	7165.2	
371.02	4249.5	
371.23	3622.9	
371.43	5126.1	
371.64	6564.4	
371.84	4339	
372.05	5637.4	
372.25	8036.2	
372.46	6295.5	
372.66	4352.6	
372.87	4271.4	
373.07	6329.6	
373.28	8019.2	
373.48	5440.8	
373.69	5124	
373.9	5812.1	
374.1	5855.1	
374.31	5363.6	
374.51	4919.9	
374.72	6763.1	
374.92	5499.5	
375.13	5575.9	
375.33	4699.4	
375.54	6312.5	
375.74	5658.5	
375.95	4817.5	
376.15	6186.9	
376.36	6262	
376.56	6119.3	
376.77	4894	
376.97	5373.9	
377.18	7377.5	
377.38	6432	
377.59	5763	
377.79	4408.6	
378	6183.5	
378.2	6761.7	
378.41	4508.3	
378.61	4390.2	
378.82	6750.1	
379.02	5820.3	
379.23	4656.4	
379.43	5799.2	
379.64	6790.4	
379.84	6425.2	
380.05	4458.4	
380.25	4339	
380.46	6541.9	
380.66	6013.5	
380.87	5860.6	
381.07	6225.8	
381.28	7150.1	
381.48	6581.5	
381.69	4473.4	
381.89	4461.2	
382.1	5421.7	
382.3	6709.8	
382.51	5629.9	
382.71	6623.8	
382.91	6498.9	
383.12	7038.9	
383.32	4764.9	
383.53	5086.5	
383.73	6285.2	
383.94	6097.5	
384.14	4902.2	
384.35	4062.5	
384.55	5976.7	
384.76	6511.2	
384.96	4761.5	
385.17	5150	
385.37	6419.7	
385.58	5720.7	
385.78	5119.9	
385.98	4001	
386.19	5942.5	
386.39	6305.7	
386.6	4513.7	
386.8	4786.1	
387.01	6524.8	
387.21	6520.7	
387.42	5313.8	
387.62	5946.6	
387.83	5722.7	
388.03	6442.2	
388.23	4854.4	
388.44	5756.2	
388.64	5448.3	
388.85	5650.3	
389.05	5332.9	
389.26	6012.2	
389.46	7545.4	
389.67	7014.3	
389.87	5244.2	
390.07	5310.4	
390.28	6135.7	
390.48	5694.7	
390.69	4491.2	
390.89	4757.4	
391.1	5898.1	
391.3	6893.5	
391.5	6115.2	
391.71	6756.2	
391.91	6597.2	
392.12	7776.8	
392.32	6235.4	
392.53	5271.5	
392.73	5964.4	
392.93	6199.2	
393.14	4922.6	
393.34	6056.5	
393.55	6637.5	
393.75	6073.6	
393.95	4901.5	
394.16	4829.1	
394.36	5871.5	
394.57	6606.1	
394.77	4426.3	
394.98	4814.1	
395.18	5844.2	
395.38	6090.7	
395.59	5804.6	
395.79	4712.4	
396	6026.5	
396.2	6564.4	
396.4	5817.6	
396.61	5501.5	
396.81	6753.5	
397.02	6010.8	
397.22	5859.2	
397.42	5918.6	
397.63	6750.1	
397.83	5995.1	
398.04	4641.4	
398.24	5244.2	
398.44	6513.2	
398.65	5570.5	
398.85	4559.5	
399.05	4702.8	
399.26	5937.7	
399.46	7776.1	
399.67	5096.7	
399.87	4764.3	
400.07	6287.9	
400.28	6731.7	
400.48	4898.7	
400.69	6008.7	
400.89	6980.2	
401.09	7434.8	
401.3	4792.2	
401.5	6018.3	
401.7	7742	
401.91	8009.6	
402.11	5107.6	
402.32	5373.2	
402.52	6943.3	
402.72	6873	
402.93	5605.3	
403.13	4377.2	
403.33	7718.8	
403.54	6249.7	
403.74	5226.4	
403.94	6116.6	
404.15	6384.2	
404.35	7651.9	
404.56	4982	
404.76	6924.2	
404.96	6881.9	
405.17	6694.1	
405.37	6501.6	
405.57	5511.8	
405.78	6889.4	
405.98	6401.3	
406.18	5107.6	
406.39	5990.3	
406.59	6879.1	
406.79	6563.1	
407	4801.1	
407.2	4861.9	
407.4	6907.1	
407.61	7185	
407.81	4922	
408.01	7107.1	
408.22	5988.3	
408.42	8163.9	
408.62	6214.9	
408.83	5651	
409.03	6744.6	
409.23	6449.1	
409.44	5709.7	
409.64	6062.7	
409.84	7676.5	
410.05	7550.9	
410.25	5985.5	
410.45	5644.2	
410.66	7094.8	
410.86	9704	
411.06	6197.2	
411.27	6015.6	
411.47	9513.5	
411.67	7315.3	
411.88	6263.4	
412.08	6646.3	
412.28	7982.3	
412.49	8524.3	
412.69	6051.7	
412.89	6098.9	
413.09	8295.6	
413.3	8232.8	
413.5	6178.7	
413.7	5746.6	
413.91	7421.2	
414.11	8218.5	
414.31	6077.7	
414.52	6485.2	
414.72	7957.7	
414.92	7860.1	
415.12	6040.1	
415.33	6599.9	
415.53	8355.7	
415.73	8454.7	
415.94	6989	
416.14	6389.7	
416.34	7236.8	
416.55	6898.2	
416.75	7689.4	
416.95	6957.6	
417.15	8289.5	
417.36	9143.5	
417.56	7963.9	
417.76	6917.4	
417.97	8714.8	
418.17	8358.4	
418.37	6407.4	
418.57	6574	
418.78	8144.1	
418.98	7740	
419.18	7501.7	
419.38	7295.5	
419.59	7842.4	
419.79	7404.8	
419.99	6395.1	
420.2	6667.5	
420.4	8388.5	
420.6	8548.2	
420.8	6213.5	
421.01	6152.1	
421.21	8125.7	
421.41	8284.7	
421.61	6752.8	
421.82	6326.2	
422.02	7594.6	
422.22	8637.6	
422.42	7230	
422.63	6809.5	
422.83	7772.7	
423.03	9025.4	
423.23	6803.4	
423.44	5717.9	
423.64	7821.9	
423.84	7602.1	
424.04	6212.9	
424.25	5851.7	
424.45	8742.8	
424.65	8657.4	
424.85	5643.5	
425.06	6246.3	
425.26	8647.9	
425.46	7229.3	
425.66	6713.9	
425.87	6355.5	
426.07	8411	
426.27	8226.7	
426.47	6587	
426.67	5828.5	
426.88	8736	
427.08	8158.4	
427.28	6746.7	
427.48	5822.4	
427.69	7003.4	
427.89	7729	
428.09	6833.4	
428.29	5865.4	
428.5	8418.5	
428.7	8000.7	
428.9	5719.3	
429.1	6465.4	
429.3	7766.6	
429.51	8315.4	
429.71	6126.2	
429.91	6928.3	
430.11	8176.2	
430.31	8514.8	
430.52	6392.4	
430.72	6735.1	
430.92	8768	
431.12	8205.5	
431.32	6141.2	
431.53	6512.5	
431.73	7036.1	
431.93	8871.8	
432.13	5967.8	
432.33	5830.6	
432.54	7561.8	
432.74	7980.9	
432.94	5791	
433.14	6890.7	
433.34	8137.3	
433.55	7680.6	
433.75	6840.2	
433.95	8749.6	
434.15	7945.4	
434.35	7638.9	
434.56	6010.8	
434.76	5454.4	
434.96	7866.2	
435.16	8273.1	
435.36	5767.8	
435.56	7120.8	
435.77	7586.4	
435.97	7792.5	
436.17	7826.7	
436.37	7114	
436.57	7612.3	
436.78	7543.4	
436.98	7019.1	
437.18	7690.1	
437.38	8363.2	
437.58	7767.3	
437.78	7791.8	
437.99	6312.5	
438.19	8271.1	
438.39	9066.4	
438.59	6248.4	
438.79	5668.8	
438.99	9026.1	
439.2	7704.5	
439.4	5917.9	
439.6	5884.5	
439.8	8166.6	
440	9340.1	
440.2	7036.1	
440.4	7150.1	
440.61	8588.5	
440.81	9241.1	
441.01	6060.6	
441.21	7283.9	
441.41	9045.9	
441.61	8527.7	
441.81	7394.5	
442.02	8544.8	
442.22	9532.6	
442.42	8680.7	
442.62	6184.2	
442.82	6322.8	
443.02	8918.9	
443.22	8070.4	
443.43	6721.4	
443.63	6234.7	
443.83	7836.2	
444.03	7738.6	
444.23	7636.9	
444.43	7174	
444.63	8311.3	
444.83	9530.6	
445.04	6402.6	
445.24	7772.7	
445.44	8609.7	
445.64	8731.2	
445.84	7163.1	
446.04	7171.3	
446.24	7851.9	
446.44	9032.2	
446.65	6245.6	
446.85	6729.6	
447.05	8192.6	
447.25	8854.7	
447.45	6767.2	
447.65	6152.1	
447.85	8189.8	
448.05	7823.2	
448.25	7286.7	
448.46	7053.2	
448.66	8170	
448.86	7864.9	
449.06	5950	
449.26	7279.8	
449.46	8635.6	
449.66	7531.7	
449.86	6795.2	
450.06	6784.2	
450.26	7817.8	
450.47	8355	
450.67	6989.7	
450.87	7458.7	
451.07	8482	
451.27	8349.6	
451.47	6135	
451.67	6853.2	
451.87	7850.5	
452.07	9112.8	
452.27	6523.5	
452.47	6472.3	
452.67	8205.5	
452.88	8754.4	
453.08	5707	
453.28	7886.7	
453.48	9468.4	
453.68	8135.2	
453.88	6426.5	
454.08	6733	
454.28	8565.3	
454.48	8251.9	
454.68	7206.8	
454.88	7791.2	
455.08	8707.3	
455.28	8475.2	
455.48	6229.9	
455.68	6953.5	
455.89	9227.5	
456.09	8917.5	
456.29	6623.1	
456.49	6733.7	
456.69	9123	
456.89	8463.6	
457.09	7276.4	
457.29	7800	
457.49	8715.5	
457.69	8875.2	
457.89	7167.2	
458.09	6484.6	
458.29	8467	
458.49	9209.7	
458.69	7615	
458.89	6937.8	
459.09	9553.1	
459.29	9618.6	
459.49	7028.6	
459.69	7878.5	
459.9	9052.7	
460.1	8512	
460.3	6885.3	
460.5	6687.3	
460.7	9023.4	
460.9	8736	
461.1	6346	
461.3	7781.6	
461.5	9695.8	
461.7	9280	
461.9	6867.5	
462.1	7342.7	
462.3	8786.5	
462.5	9406.3	
462.7	6911.9	
462.9	7079.8	
463.1	10543	
463.3	10182	
463.5	7322.9	
463.7	8385.7	
463.9	9030.2	
464.1	9430.2	
464.3	7475.8	
464.5	7592.5	
464.7	9684.2	
464.9	9286.2	
465.1	9166	
465.3	8049.2	
465.5	10094	
465.7	10010	
465.9	8284	
466.1	8078.6	
466.3	9932	
466.5	9646.6	
466.7	9070.5	
466.9	7890.8	
467.1	9646.6	
467.3	10644	
467.5	9091.6	
467.7	7849.9	
467.9	10802	
468.1	11918	
468.3	8723.7	
468.5	9275.3	
468.7	9645.9	
468.9	9547.6	
469.1	8191.9	
469.3	8850.6	
469.5	11749	
469.7	9090.9	
469.9	8667.7	
470.1	7961.1	
470.3	9507.4	
470.5	9577.7	
470.7	9202.2	
470.9	8007.6	
471.1	9362.6	
471.3	9799.5	
471.5	7798.7	
471.69	9781.8	
471.89	9153.1	
472.09	8658.1	
472.29	8622.6	
472.49	8905.9	
472.69	8938.7	
472.89	9784.5	
473.09	7587	
473.29	7741.3	
473.49	9039.1	
473.69	9299.1	
473.89	8770.1	
474.09	7990.5	
474.29	10476	
474.49	10223	
474.69	8793.3	
474.89	8066.3	
475.09	9297.1	
475.29	9267.7	
475.49	7475.1	
475.69	7660.8	
475.88	10916	
476.08	9512.1	
476.28	7313.3	
476.48	7886.7	
476.68	9964.7	
476.88	9831.6	
477.08	7610.3	
477.28	7942.7	
477.48	9226.1	
477.68	10045	
477.88	7477.1	
478.08	7767.9	
478.28	10327	
478.48	9264.3	
478.67	7873.8	
478.87	7198.6	
479.07	10142	
479.27	9529.2	
479.47	8079.2	
479.67	8045.1	
479.87	9867.1	
480.07	10460	
480.27	7306.5	
480.47	9044.5	
480.67	9454.8	
480.87	10163	
481.06	7524.9	
481.26	8436.9	
481.46	9404.3	
481.66	9391.3	
481.86	8069	
482.06	9125.7	
482.26	9071.1	
482.46	10038	
482.66	8032.8	
482.86	7534.5	
483.05	9493	
483.25	8936	
483.45	10625	
483.65	7907.9	
483.85	9119.6	
484.05	9418.6	
484.25	8421.2	
484.45	8989.9	
484.65	10350	
484.84	10391	
485.04	7897.7	
485.24	7919.5	
485.44	10677	
485.64	8934.6	
485.84	7112.6	
486.04	8729.1	
486.24	9332.6	
486.44	9704	
486.63	7120.8	
486.83	8024.6	
487.03	9179.7	
487.23	9409.7	
487.43	7225.2	
487.63	9827.5	
487.83	9488.9	
488.02	10585	
488.22	8348.2	
488.42	9071.8	
488.62	10383	
488.82	9245.9	
489.02	7872.4	
489.22	7943.4	
489.41	10221	
489.61	9822.1	
489.81	7669	
490.01	7703.1	
490.21	10195	
490.41	10806	
490.61	7719.5	
490.8	7750.2	
491	9516.9	
491.2	8873.2	
491.4	8389.2	
491.6	7454.6	
491.8	9460.3	
491.99	9706	
492.19	7330.4	
492.39	7751.6	
492.59	10221	
492.79	10275	
492.99	8714.8	
493.18	7660.8	
493.38	10364	
493.58	11144	
493.78	8589.2	
493.98	8070.4	
494.18	10106	
494.37	9400.2	
494.57	8802.2	
494.77	8684.8	
494.97	10307	
495.17	10673	
495.37	8219.2	
495.56	8557.8	
495.76	10784	
495.96	10330	
496.16	9556.5	
496.36	8396	
496.55	10623	
496.75	10069	
496.95	8795.3	
497.15	8687.5	
497.35	10527	
497.54	10537	
497.74	8424	
497.94	10169	
498.14	11402	
498.34	11126	
498.53	8185.7	
498.73	8961.2	
498.93	9904	
499.13	10477	
499.33	8787.2	
499.52	9478	
499.72	10464	
499.92	10814	
500.12	8497	
500.32	8748.9	
500.51	10826	
500.71	10639	
500.91	9622	
501.11	9112.1	
501.31	10701	
501.5	11178	
501.7	9899.2	
501.9	8766.7	
502.1	10511	
502.29	10813	
502.49	9185.1	
502.69	9652.1	
502.89	10665	
503.09	10617	
503.28	8102.4	
503.48	8279.9	
503.68	9843.2	
503.88	9914.9	
504.07	9308	
504.27	8770.1	
504.47	10326	
504.67	10383	
504.86	9204.9	
505.06	8846.5	
505.26	9846	
505.46	11745	
505.65	8662.9	
505.85	8921	
506.05	9644.6	
506.25	10276	
506.44	8019.2	
506.64	8981	
506.84	9624.8	
507.04	10739	
507.23	8111.3	
507.43	8743.5	
507.63	11764	
507.83	9867.8	
508.02	8735.3	
508.22	8370	
508.42	12089	
508.62	9527.2	
508.81	8548.2	
509.01	9123.7	
509.21	9478	
509.4	9755.8	
509.6	8729.8	
509.8	8107.2	
510	9757.2	
510.19	11308	
510.39	8077.2	
510.59	8214.4	
510.79	9525.1	
510.98	10996	
511.18	8120.9	
511.38	8314.1	
511.57	10399	
511.77	10330	
511.97	8962.6	
512.17	7940	
512.36	10259	
512.56	10336	
512.76	8124.3	
512.95	7850.5	
513.15	10520	
513.35	8994.7	
513.55	8953	
513.74	8041	
513.94	10423	
514.14	9826.2	
514.33	9128.5	
514.53	8802.2	
514.73	9667.8	
514.92	10038	
515.12	8246.5	
515.32	8105.2	
515.51	10013	
515.71	10825	
515.91	9975.7	
516.11	8142.7	
516.3	11900	
516.5	9559.2	
516.7	8783.7	
516.89	9398.1	
517.09	9828.2	
517.29	9654.1	
517.48	9277.3	
517.68	8468.4	
517.88	9487.6	
518.07	10137	
518.27	8976.2	
518.47	7951.6	
518.66	10670	
518.86	9298.5	
519.06	7779.6	
519.25	8271.7	
519.45	9658.2	
519.65	11262	
519.84	8944.2	
520.04	9825.5	
520.24	11576	
520.43	10269	
520.63	8606.2	
520.83	8218.5	
521.02	9421.3	
521.22	10136	
521.42	8800.8	
521.61	9512.1	
521.81	9704.6	
522.01	9912.9	
522.2	8759.8	
522.4	8488.8	
522.6	10482	
522.79	9121.7	
522.99	8555.7	
523.18	7912	
523.38	10227	
523.58	10245	
523.77	10056	
523.97	7875.8	
524.17	12287	
524.36	11341	
524.56	9328.5	
524.76	8943.5	
524.95	10271	
525.15	9831.6	
525.34	8655.4	
525.54	8795.3	
525.74	10593	
525.93	9597.5	
526.13	10045	
526.33	8737.3	
526.52	11031	
526.72	10440	
526.91	10083	
527.11	9202.2	
527.31	11066	
527.5	11587	
527.7	9288.9	
527.89	8230.1	
528.09	9877.4	
528.29	10601	
528.48	9665	
528.68	9240.4	
528.87	10947	
529.07	10996	
529.27	9121.7	
529.46	8533.9	
529.66	10441	
529.85	10899	
530.05	8366.6	
530.25	9216.5	
530.44	11899	
530.64	10429	
530.83	8865.7	
531.03	9085.5	
531.23	10828	
531.42	10765	
531.62	10020	
531.81	9151.7	
532.01	11141	
532.21	11660	
532.4	8905.3	
532.6	9267.1	
532.79	11986	
532.99	11130	
533.18	9260.9	
533.38	10355	
533.58	10669	
533.77	11507	
533.97	9344.2	
534.16	10200	
534.36	11657	
534.55	10733	
534.75	10305	
534.95	9467.1	
535.14	11510	
535.34	10598	
535.53	8897.1	
535.73	10970	
535.92	12069	
536.12	10836	
536.31	9070.5	
536.51	10399	
536.71	11258	
536.9	10763	
537.1	9217.2	
537.29	9370.8	
537.49	11594	
537.68	10558	
537.88	9768.1	
538.07	8961.9	
538.27	10866	
538.46	11949	
538.66	8914.1	
538.86	9224.7	
539.05	10916	
539.25	11348	
539.44	9564.7	
539.64	9100.5	
539.83	10703	
540.03	11768	
540.22	8964.6	
540.42	9157.2	
540.61	10915	
540.81	11175	
541	9658.2	
541.2	10381	
541.39	10471	
541.59	10871	
541.78	9859.6	
541.98	8916.2	
542.18	10105	
542.37	10050	
542.57	9276.6	
542.76	9887.6	
542.96	10099	
543.15	10867	
543.35	9262.3	
543.54	8584.4	
543.74	11026	
543.93	10538	
544.13	9287.5	
544.32	10475	
544.52	11052	
544.71	10155	
544.91	8357.8	
545.1	9663.7	
545.3	10229	
545.49	10897	
545.69	8168	
545.88	8893	
546.08	11878	
546.27	11499	
546.47	9470.5	
546.66	8645.8	
546.86	11268	
547.05	11815	
547.24	8910.7	
547.44	8742.8	
547.63	9981.1	
547.83	11183	
548.02	9095.7	
548.22	9364.7	
548.41	9666.4	
548.61	11337	
548.8	8578.9	
549	8488.8	
549.19	10471	
549.39	10790	
549.58	8197.3	
549.78	8862.9	
549.97	10918	
550.17	10283	
550.36	9785.9	
550.55	11009	
550.75	10302	
550.94	11385	
551.14	8476.5	
551.33	8998.8	
551.53	9693.7	
551.72	10694	
551.92	8975.6	
552.11	8720.3	
552.31	10657	
552.5	10724	
552.69	10500	
552.89	8331.8	
553.08	10604	
553.28	10350	
553.47	8740	
553.67	9888.3	
553.86	11284	
554.06	9552.4	
554.25	7798.7	
554.44	8506.6	
554.64	12205	
554.83	11645	
555.03	8473.8	
555.22	8804.9	
555.42	10851	
555.61	10578	
555.8	8673.1	
556	8941.4	
556.19	9499.8	
556.39	11022	
556.58	8671.1	
556.78	8680.7	
556.97	10377	
557.16	10075	
557.36	10054	
557.55	8209.6	
557.75	9258.2	
557.94	11215	
558.13	8442.4	
558.33	8150.2	
558.52	11031	
558.72	9723.8	
558.91	8142.7	
559.1	8570.7	
559.3	9448	
559.49	9169.4	
559.69	7740	
559.88	8842.4	
560.07	10264	
560.27	10827	
560.46	9007	
560.66	9125.7	
560.85	10085	
561.04	9174.2	
561.24	8157.1	
561.43	8321.6	
561.63	9474.6	
561.82	9774.3	
562.01	9751.7	
562.21	8681.3	
562.4	10191	
562.59	11318	
562.79	8526.4	
562.98	8230.8	
563.18	10170	
563.37	11662	
563.56	9119.6	
563.76	8048.5	
563.95	9570.8	
564.14	9615.2	
564.34	8563.2	
564.53	8250.6	
564.73	10133	
564.92	10531	
565.11	8716.2	
565.31	7965.2	
565.5	10796	
565.69	9755.2	
565.89	8278.6	
566.08	8563.9	
566.27	10710	
566.47	11139	
566.66	9252.7	
566.85	7759.1	
567.05	10165	
567.24	9568.1	
567.44	8065.6	
567.63	9626.1	
567.82	10394	
568.02	10144	
568.21	8098.4	
568.4	8512.7	
568.6	10028	
568.79	9991.4	
568.98	7946.1	
569.18	8184.4	
569.37	9924.5	
569.56	12140	
569.76	8387.8	
569.95	9500.5	
570.14	10332	
570.34	10261	
570.53	7873.8	
570.72	7936.6	
570.91	10809	
571.11	9853.5	
571.3	8439.7	
571.49	9402.9	
571.69	9870.5	
571.88	9480	
572.07	9056.8	
572.27	8944.2	
572.46	9430.9	
572.65	10656	
572.85	8215.8	
573.04	8675.9	
573.23	10828	
573.43	10051	
573.62	8028	
573.81	8751	
574	10066	
574.2	9953.8	
574.39	8372.8	
574.58	8583	
574.78	10948	
574.97	10151	
575.16	8894.3	
575.36	9121.7	
575.55	10627	
575.74	10771	
575.93	7851.9	
576.13	9124.4	
576.32	9894.4	
576.51	10545	
576.71	8434.2	
576.9	9921	
577.09	10801	
577.28	10265	
577.48	8872.5	
577.67	7821.2	
577.86	9903.3	
578.05	10391	
578.25	8572.8	
578.44	8644.5	
578.63	10107	
578.83	11412	
579.02	8004.8	
579.21	9519	
579.4	10279	
579.6	9880.8	
579.79	8900.5	
579.98	11025	
580.17	10796	
580.37	10844	
580.56	8262.2	
580.75	9085.5	
580.94	11387	
581.14	11139	
581.33	9473.9	
581.52	8409.6	
581.71	10492	
581.91	11287	
582.1	7951.6	
582.29	8787.8	
582.48	10168	
582.68	10091	
582.87	9141.4	
583.06	8808.3	
583.25	10520	
583.45	9874.6	
583.64	9500.5	
583.83	10390	
584.02	10054	
584.21	10520	
584.41	9404.3	
584.6	8720.9	
584.79	10196	
584.98	11047	
585.18	8200.1	
585.37	8191.2	
585.56	9684.8	
585.75	10512	
585.94	8352.3	
586.14	9052.7	
586.33	11233	
586.52	10155	
586.71	8735.3	
586.91	8538.7	
587.1	9456.2	
587.29	10562	
587.48	8438.3	
587.67	8232.8	
587.87	10239	
588.06	10468	
588.25	9658.2	
588.44	8897.1	
588.63	9877.4	
588.83	10515	
589.02	8175.5	
589.21	8092.9	
589.4	9517.6	
589.59	9263	
589.78	7076.4	
589.98	7374.7	
590.17	8844.5	
590.36	9382.4	
590.55	6775.4	
590.74	7603.4	
590.94	10974	
591.13	9340.1	
591.32	7448.5	
591.51	7019.8	
591.7	9893.7	
591.89	9282.8	
592.09	7107.1	
592.28	7643.7	
592.47	8477.2	
592.66	10516	
592.85	7040.9	
593.05	7339.2	
593.24	9310.7	
593.43	9998.2	
593.62	7436.9	
593.81	7978.9	
594	9258.9	
594.19	9566.1	
594.39	7423.9	
594.58	7296.2	
594.77	9579	
594.96	10205	
595.15	7187.7	
595.34	8020.5	
595.54	9607.7	
595.73	8561.9	
595.92	6565.8	
596.11	7908.6	
596.3	10215	
596.49	8694.3	
596.68	7627.3	
596.88	8071.7	
597.07	9909.4	
597.26	8582.4	
597.45	7079.1	
597.64	8460.8	
597.83	8843.1	
598.02	9567.4	
598.22	7219.8	
598.41	7916.8	
598.6	9416.6	
598.79	8767.4	
598.98	7248.4	
599.17	8267	
599.36	9299.1	
599.55	10667	
599.74	9554.5	
599.94	9278	
600.13	10064	
600.32	8817.2	
600.51	7120.8	
600.7	7189.1	
600.89	10768	
601.08	10793	
601.27	7021.8	
601.47	8069	
601.66	9915.6	
601.85	10749	
602.04	7720.2	
602.23	8331.1	
602.42	8814.5	
602.61	9664.4	
602.8	7727	
602.99	7430.7	
603.18	9357.9	
603.37	9574.3	
603.57	8150.2	
603.76	8710	
603.95	10435	
604.14	9903.3	
604.33	7529.7	
604.52	7909.9	
604.71	9466.4	
604.9	9246.6	
605.09	8459.5	
605.28	8331.1	
605.47	10183	
605.66	9831.6	
605.86	8146.8	
606.05	7535.8	
606.24	10132	
606.43	8627.4	
606.62	7851.2	
606.81	8714.1	
607	9996.8	
607.19	9325.1	
607.38	7284.6	
607.57	7565.9	
607.76	9050.7	
607.95	8551.6	
608.14	7928.4	
608.33	8531.8	
608.52	9002.9	
608.72	9911.5	
608.91	7154.9	
609.1	6979.5	
609.29	9180.4	
609.48	8632.2	
609.67	8121.6	
609.86	7096.2	
610.05	8604.9	
610.24	9024.7	
610.43	6986.3	
610.62	6517.3	
610.81	10312	
611	10015	
611.19	7081.2	
611.38	7829.4	
611.57	9306.7	
611.76	10815	
611.95	6926.2	
612.14	6765.1	
612.33	9168.1	
612.52	8599.4	
612.71	7459.4	
612.9	6609.5	
613.09	8246.5	
613.28	10770	
613.47	7091.4	
613.66	8153.6	
613.85	9226.1	
614.04	8726.4	
614.24	7222.5	
614.43	6494.1	
614.62	9401.5	
614.81	9365.4	
615	7795.3	
615.19	7926.3	
615.38	8579.6	
615.57	9070.5	
615.76	7753.6	
615.95	8742.8	
616.14	9485.5	
616.33	9027.4	
616.52	8057.4	
616.71	8270.4	
616.9	9466.4	
617.09	9262.3	
617.28	7240.3	
617.47	8916.9	
617.66	8442.4	
617.85	8494.3	
618.04	8341.4	
618.22	7683.3	
618.41	8865.7	
618.6	9787.9	
618.79	7714	
618.98	7320.8	
619.17	10058	
619.36	8338	
619.55	7505.8	
619.74	7543.4	
619.93	9320.3	
620.12	8703.2	
620.31	8135.9	
620.5	8318.2	
620.69	9872.6	
620.88	10357	
621.07	9052	
621.26	8040.3	
621.45	9561.3	
621.64	9516.2	
621.83	8123.6	
622.02	7259.4	
622.21	9596.1	
622.4	9368.8	
622.59	8686.1	
622.78	8380.3	
622.97	8908.7	
623.16	9975	
623.35	8066.9	
623.54	7110.5	
623.72	9152.4	
623.91	9327.8	
624.1	8278.6	
624.29	6848.4	
624.48	10419	
624.67	9555.1	
624.86	8122.2	
625.05	7181.5	
625.24	10456	
625.43	8751.7	
625.62	10055	
625.81	7374.1	
626	9912.9	
626.19	9080.7	
626.38	8230.8	
626.56	7539.9	
626.75	8953	
626.94	9394.7	
627.13	8208.9	
627.32	6710.5	
627.51	9484.8	
627.7	10893	
627.89	6931	
628.08	8113.4	
628.27	8577.6	
628.46	8897.1	
628.65	7295.5	
628.83	6891.4	
629.02	9612.5	
629.21	8764.6	
629.4	7691.5	
629.59	7833.5	
629.78	8636.3	
629.97	9794.1	
630.16	8002.1	
630.35	7431.4	
630.54	10229	
630.72	9897.8	
630.91	7357	
631.1	8026	
631.29	9342.2	
631.48	9502.6	
631.67	8112	
631.86	7453.9	
632.05	8905.9	
632.24	8948.9	
632.42	7176.1	
632.61	7785	
632.8	9116.2	
632.99	8667	
633.18	7768.6	
633.37	8230.1	
633.56	9189.9	
633.75	9165.3	
633.93	7836.2	
634.12	7473	
634.31	10233	
634.5	9912.2	
634.69	7537.9	
634.88	8028	
635.07	9060.2	
635.25	9720.3	
635.44	8453.3	
635.63	8649.9	
635.82	8897.7	
636.01	8436.9	
636.2	8452	
636.39	7928.4	
636.57	10105	
636.76	9926.5	
636.95	7314.7	
637.14	8890.9	
637.33	9435	
637.52	10430	
637.7	7050.5	
637.89	8110.6	
638.08	8971.5	
638.27	10587	
638.46	8168.7	
638.65	8692.3	
638.83	10522	
639.02	8723	
639.21	8085.4	
639.4	8584.4	
639.59	9216.5	
639.78	8873.2	
639.96	7320.8	
640.15	7272.3	
640.34	9155.1	
640.53	9342.2	
640.72	6984.3	
640.91	7392.5	
641.09	8522.3	
641.28	9999.5	
641.47	7361.8	
641.66	8236.9	
641.85	9173.5	
642.03	9545.6	
642.22	8082.6	
642.41	7378.1	
642.6	8546.2	
642.79	7972.1	
642.97	7093.5	
643.16	7878.5	
643.35	8466.3	
643.54	8367.3	
643.73	7062.1	
643.91	7897.7	
644.1	8125.7	
644.29	8842.4	
644.48	7027.9	
644.67	7103.7	
644.85	8263.6	
645.04	8579.6	
645.23	6630.6	
645.42	6832	
645.6	8051.2	
645.79	9320.3	
645.98	6806.8	
646.17	5859.9	
646.36	7750.9	
646.54	8496.3	
646.73	7610.3	
646.92	6382.2	
647.11	7966.6	
647.29	9217.9	
647.48	6509.1	
647.67	6222.4	
647.86	9411.8	
648.05	9514.9	
648.23	6838.9	
648.42	8161.8	
648.61	8694.3	
648.8	8565.3	
648.98	6474.3	
649.17	6883.9	
649.36	8132.5	
649.55	7559.1	
649.73	6576.7	
649.92	7357.7	
650.11	7847.1	
650.3	8242.4	
650.48	6643.6	
650.67	6343.2	
650.86	8521.6	
651.05	7344.7	
651.23	6582.2	
651.42	6604	
651.61	7964.6	
651.79	8250.6	
651.98	6890	
652.17	6365.8	
652.36	8469.7	
652.54	7478.5	
652.73	6486.6	
652.92	6261.3	
653.11	8486.1	
653.29	8676.6	
653.48	5651	
653.67	6722.1	
653.85	8260.1	
654.04	9292.3	
654.23	6924.2	
654.42	6434.7	
654.6	7656	
654.79	8452.6	
654.98	5857.2	
655.16	6477	
655.35	7238.2	
655.54	7195.2	
655.73	5978	
655.91	5950	
656.1	8483.4	
656.29	7256.6	
656.47	5554.8	
656.66	7324.2	
656.85	7574.8	
657.03	7649.8	
657.22	6118.6	
657.41	6152.8	
657.59	7696.3	
657.78	7402.7	
657.97	5808.7	
658.16	6623.1	
658.34	8421.9	
658.53	8784.4	
658.72	7501	
658.9	8133.8	
659.09	7730.4	
659.28	7813	
659.46	6295.5	
659.65	6228.6	
659.84	7585.7	
660.02	8084.7	
660.21	6146.6	
660.4	6171.9	
660.58	8495	
660.77	7885.4	
660.96	6752.8	
661.14	5688.6	
661.33	9131.9	
661.52	9026.1	
661.7	5636.7	
661.89	9666.4	
662.08	7519.5	
662.26	7040.2	
662.45	6011.5	
662.64	6179.4	
662.82	8228.7	
663.01	7393.8	
663.2	6073.6	
663.38	6892.8	
663.57	8178.9	
663.75	7972.7	
663.94	6504.3	
664.13	7760.4	
664.31	7388.4	
664.5	8228.7	
664.69	6615.6	
664.87	7372	
665.06	7167.9	
665.25	8033.5	
665.43	7593.2	
665.62	7652.6	
665.8	8330.5	
665.99	7589.8	
666.18	6364.4	
666.36	6561.7	
666.55	8283.4	
666.74	8262.9	
666.92	6061.3	
667.11	7862.2	
667.29	7610.3	
667.48	8318.8	
667.67	7423.2	
667.85	6446.3	
668.04	7643.7	
668.22	7626	
668.41	6422.4	
668.6	6539.2	
668.78	7410.9	
668.97	7570	
669.15	6930.3	
669.34	5811.5	
669.53	7377.5	
669.71	7840.3	
669.9	6010.1	
670.08	6631.3	
670.27	7347.4	
670.46	8055.3	
670.64	7022.5	
670.83	7187	
671.01	7361.1	
671.2	8005.5	
671.38	6021	
671.57	5945.9	
671.76	8642.4	
671.94	9289.6	
672.13	5780.7	
672.31	7074.4	
672.5	8189.1	
672.69	7372	
672.87	5982.8	
673.06	6371.9	
673.24	7939.3	
673.43	7471	
673.61	6851.8	
673.8	6453.8	
673.98	8158.4	
674.17	8440.4	
674.36	6967.9	
674.54	6825.9	
674.73	7917.4	
674.91	8161.8	
675.1	6507.8	
675.28	6208.1	
675.47	7660.1	
675.65	8196	
675.84	6317.3	
676.03	6637.5	
676.21	7444.4	
676.4	6913.9	
676.58	7270.3	
676.77	7003.4	
676.95	8991.3	
677.14	7301	
677.32	5968.5	
677.51	5783.5	
677.69	8236.9	
677.88	7024.5	
678.06	5905.7	
678.25	5922.7	
678.44	7685.3	
678.62	7320.1	
678.81	5627.1	
678.99	6719.4	
679.18	8485.4	
679.36	8130.4	
679.55	6251.8	
679.73	7006.1	
679.92	8032.1	
680.1	7434.8	
680.29	7675.1	
680.47	6333	
680.66	7309.2	
680.84	8347.5	
681.03	5501.5	
681.21	6673	
681.4	7465.5	
681.58	7319.4	
681.77	6042.9	
681.95	5950.7	
682.14	8301.8	
682.32	8645.2	
682.51	6912.6	
682.69	5692.7	
682.88	7268.9	
683.06	7971.4	
683.25	6606.7	
683.43	7152.9	
683.62	7559.7	
683.8	7986.4	
683.99	7206.8	
684.17	6403.3	
684.36	8850.6	
684.54	7338.6	
684.73	5442.8	
684.91	5692	
685.1	7677.2	
685.28	7041.6	
685.46	6294.8	
685.65	6406	
685.83	8007.6	
686.02	7325.6	
686.2	5777.3	
686.39	6008.7	
686.57	7200.7	
686.76	8696.4	
686.94	5823.7	
687.13	5972.6	
687.31	7846.5	
687.5	7264.8	
687.68	5402.5	
687.86	6732.4	
688.05	9214.5	
688.23	6849.1	
688.42	6823.8	
688.6	5958.9	
688.79	7182.9	
688.97	7250.5	
689.16	6384.9	
689.34	5214.8	
689.52	8104.5	
689.71	8227.4	
689.89	6627.9	
690.08	5844.2	
690.26	7412.3	
690.45	7302.4	
690.63	6782.2	
690.81	6026.5	
691	7122.8	
691.18	7109.9	
691.37	6125.5	
691.55	8513.4	
691.74	7049.8	
691.92	9259.5	
692.1	6180.8	
692.29	5552	
692.47	7399.3	
692.66	6546.7	
692.84	5812.8	
693.02	6413.6	
693.21	6698.9	
693.39	7313.3	
693.58	6549.4	
693.76	5909.1	
693.94	8584.4	
694.13	8371.4	
694.31	5905	
694.5	7063.4	
694.68	7164.5	
694.86	7530.4	
695.05	6261.3	
695.23	6821.1	
695.42	7972.1	
695.6	10467	
695.78	6955.6	
695.97	5910.4	
696.15	7907.9	
696.34	7236.2	
696.52	5689.3	
696.7	6577.4	
696.89	7689.4	
697.07	7004.1	
697.25	6536.4	
697.44	8254.7	
697.62	7574.8	
697.81	8043.7	
697.99	6157.6	
698.17	6671.6	
698.36	6846.4	
698.54	7576.8	
698.72	6494.8	
698.91	5526.1	
699.09	7217.7	
699.28	7142.6	
699.46	6150.7	
699.64	5987.6	
699.83	6974	
700.01	8398	
700.19	6890.7	
700.38	5298.1	
700.56	8353.7	
700.74	7103	
700.93	5673.6	
701.11	6628.6	
701.29	7832.1	
701.48	8931.2	
701.66	5977.3	
701.84	5987.6	
702.03	7273	
702.21	7982.3	
702.39	5516.5	
702.58	6115.9	
702.76	7694.2	
702.94	7798	
703.13	5517.2	
703.31	8191.9	
703.49	6976.7	
703.68	8076.5	
703.86	5760.9	
704.04	6825.2	
704.23	7574.8	
704.41	7985.7	
704.59	5907.7	
704.78	7348.1	
704.96	8710.7	
705.14	8095.6	
705.33	5672.2	
705.51	6597.9	
705.69	7374.7	
705.87	8325	
706.06	6901	
706.24	5604.6	
706.42	7797.3	
706.61	8079.2	
706.79	6941.9	
706.97	5764.3	
707.16	7166.5	
707.34	7873.8	
707.52	6860	
707.7	5983.5	
707.89	7473.7	
708.07	6967.2	
708.25	6905.8	
708.44	7103	
708.62	7325.6	
708.8	8533.9	
708.98	7249.1	
709.17	6102.9	
709.35	7675.1	
709.53	7755	
709.72	5788.9	
709.9	6010.1	
710.08	8033.5	
710.26	8089.5	
710.45	7548.8	
710.63	6069.5	
710.81	7631.4	
710.99	7641	
711.18	6795.8	
711.36	6208.8	
711.54	7444.4	
711.72	8172.8	
711.91	6274.3	
712.09	5670.1	
712.27	7535.8	
712.45	8277.2	
712.64	6539.2	
712.82	5409.4	
713	6939.9	
713.18	7098.3	
713.37	5531.6	
713.55	6842.9	
713.73	7981.6	
713.91	6406.7	
714.1	5801.9	
714.28	5211.4	
714.46	7453.2	
714.64	6639.5	
714.83	4635.2	
715.01	5559.6	
715.19	6767.9	
715.37	6148.7	
715.55	5199.1	
715.74	5532.2	
715.92	7787.1	
716.1	5677	
716.28	6703.7	
716.47	5716.6	
716.65	6374.6	
716.83	6490.7	
717.01	5558.9	
717.19	5722.7	
717.38	8727.1	
717.56	6139.8	
717.74	5961.6	
717.92	4976.6	
718.1	7552.2	
718.29	6642.2	
718.47	4710.3	
718.65	5414.1	
718.83	7406.8	
719.01	7438.2	
719.2	4511.7	
719.38	5730.2	
719.56	7060.7	
719.74	8742.8	
719.92	5211.4	
720.11	6368.5	
720.29	7115.3	
720.47	6118	
720.65	4678.9	
720.83	5612.8	
721.02	6436.1	
721.2	6230.6	
721.38	5637.4	
721.56	4937	
721.74	5713.8	
721.92	5976.7	
722.11	6279.8	
722.29	5946.6	
722.47	7335.8	
722.65	6436.8	
722.83	4926	
723.01	5920.7	
723.2	6457.9	
723.38	6737.8	
723.56	4375.8	
723.74	5625.1	
723.92	5961	
724.1	7300.3	
724.29	4866	
724.47	6199.2	
724.65	6000.5	
724.83	5861.3	
725.01	4711.7	
725.19	5698.8	
725.37	6021	
725.56	6169.2	
725.74	4582	
725.92	4935.6	
726.1	5953.4	
726.28	6303.6	
726.46	5380	
726.64	5018.2	
726.83	6241.5	
727.01	6565.8	
727.19	4638	
727.37	5588.9	
727.55	6353.5	
727.73	6945.3	
727.91	4605.2	
728.09	4416.8	
728.28	6997.9	
728.46	7771.4	
728.64	5721.3	
728.82	5689.9	
729	8216.5	
729.18	7430	
729.36	4850.3	
729.54	7399.3	
729.72	8645.8	
729.91	6728.9	
730.09	6962.4	
730.27	5601.2	
730.45	6597.2	
730.63	7265.5	
730.81	6332.3	
730.99	5243.5	
731.17	7911.3	
731.35	6385.6	
731.53	5833.3	
731.71	5372.5	
731.9	7596.6	
732.08	7782.3	
732.26	5730.2	
732.44	5258.5	
732.62	7790.5	
732.8	7290.1	
732.98	6144.6	
733.16	4988.2	
733.34	7243.7	
733.52	5982.1	
733.7	5627.8	
733.88	5980.8	
734.07	7139.9	
734.25	6868.2	
734.43	5056.4	
734.61	6882.5	
734.79	8498.4	
734.97	6761.7	
735.15	5269.4	
735.33	5619.6	
735.51	7141.9	
735.69	6745.3	
735.87	6864.1	
736.05	5831.9	
736.23	6905.8	
736.41	6750.8	
736.59	5659.2	
736.77	5776	
736.95	7447.1	
737.13	6780.1	
737.32	5359.5	
737.5	5551.4	
737.68	7952.9	
737.86	6728.3	
738.04	5123.3	
738.22	7223.2	
738.4	6462	
738.58	6904.4	
738.76	5816.9	
738.94	4687.1	
739.12	6667.5	
739.3	6556.9	
739.48	6502.3	
739.66	6208.8	
739.84	7074.4	
740.02	6904.4	
740.2	4831.8	
740.38	5139.7	
740.56	7459.4	
740.74	6147.3	
740.92	5927.5	
741.1	5812.8	
741.28	6799.3	
741.46	6619	
741.64	5466	
741.82	5999.2	
742	6834.8	
742.18	6726.2	
742.36	5671.5	
742.54	5273.5	
742.72	7363.1	
742.9	6042.2	
743.08	6079.7	
743.26	4760.8	
743.44	7693.5	
743.62	7411.6	
743.8	6231.3	
743.98	5201.2	
744.16	7171.3	
744.34	6870.3	
744.52	6210.1	
744.7	6045.6	
744.88	7255.3	
745.06	6816.3	
745.24	6220.4	
745.42	6242.2	
745.6	7397.9	
745.78	7083.9	
745.96	4825	
746.14	5231.2	
746.32	8180.3	
746.5	7392.5	
746.68	5887.2	
746.86	5283.1	
747.03	7891.5	
747.21	6017.6	
747.39	5794.4	
747.57	5291.3	
747.75	6937.2	
747.93	7377.5	
748.11	5300.1	
748.29	5176.6	
748.47	8706.6	
748.65	6614.9	
748.83	6078.4	
749.01	5737.7	
749.19	7191.8	
749.37	6335	
749.55	5662	
749.73	5620.3	
749.91	6808.8	
750.09	6563.1	
750.26	5748.6	
750.44	5098.1	
750.62	6808.1	
750.8	6819.1	
750.98	4960.2	
751.16	5301.5	
751.34	6825.2	
751.52	6205.3	
751.7	6092	
751.88	4952	
752.06	7456.7	
752.24	7233.4	
752.42	4860.5	
752.59	5283.1	
752.77	6730.3	
752.95	8187.8	
753.13	6041.5	
753.31	5307	
753.49	6414.2	
753.67	6909.8	
753.85	5709.1	
754.03	5210	
754.21	7197.9	
754.38	7516	
754.56	5403.2	
754.74	4317.8	
754.92	6339.8	
755.1	7135.1	
755.28	4347.2	
755.46	4382.7	
755.64	7772.7	
755.82	7924.3	
755.99	4605.9	
756.17	4643.4	
756.35	5154.1	
756.53	6868.9	
756.71	3452.2	
756.89	4473.4	
757.07	6380.1	
757.25	5449.6	
757.42	5037.3	
757.6	6109.8	
757.78	6561.7	
757.96	5418.9	
758.14	4752	
758.32	4214	
758.5	4971.8	
758.67	5859.9	
758.85	4508.3	
759.03	4701.5	
759.21	6009.4	
759.39	5371.1	
759.57	4059.1	
759.75	5309	
759.92	6748.7	
760.1	5894.1	
760.28	5745.9	
760.46	6094.1	
760.64	5698.1	
760.82	5356.1	
760.99	5618.9	
761.17	4706.9	
761.35	6675.7	
761.53	5521.3	
761.71	4785.4	
761.89	5656.5	
762.06	6628.6	
762.24	6016.2	
762.42	5008	
762.6	4749.2	
762.78	6077.7	
762.96	6748.7	
763.13	5414.1	
763.31	5051	
763.49	6965.8	
763.67	6037.4	
763.85	5999.2	
764.02	6700.3	
764.2	7270.3	
764.38	6398.5	
764.56	4939	
764.74	5904.3	
764.91	7407.5	
765.09	6225.8	
765.27	4634.6	
765.45	4397.7	
765.63	7429.3	
765.8	7253.9	
765.98	4096.6	
766.16	4513.7	
766.34	5677.7	
766.52	5477	
766.69	5520.6	
766.87	4283.7	
767.05	6139.8	
767.23	6881.9	
767.41	4646.2	
767.58	4997	
767.76	6804.7	
767.94	6861.4	
768.12	4756.1	
768.29	5581.4	
768.47	6223.1	
768.65	7031.4	
768.83	4334.2	
769	5668.8	
769.18	5748.6	
769.36	6516.6	
769.54	5504.3	
769.72	4336.9	
769.89	6778.8	
770.07	6923.5	
770.25	4655.7	
770.43	6041.5	
770.6	7621.9	
770.78	8078.6	
770.96	4906.9	
771.14	5595.1	
771.31	6733	
771.49	5986.9	
771.67	4002.4	
771.85	4283.7	
772.02	5150	
772.2	5995.1	
772.38	5046.2	
772.55	4562.9	
772.73	6244.3	
772.91	5993.7	
773.09	4919.9	
773.26	4970.4	
773.44	6213.5	
773.62	5907	
773.8	4308.9	
773.97	4047.5	
774.15	6275	
774.33	5816.2	
774.5	4225	
774.68	4619.5	
774.86	6497.5	
775.04	5885.2	
775.21	4377.9	
775.39	4373.8	
775.57	6177.4	
775.74	6676.4	
775.92	4197	
776.1	4076.8	
776.27	6166.4	
776.45	7569.3	
776.63	4323.3	
776.81	3786.7	
776.98	5732.9	
777.16	6973.3	
777.34	4535.6	
777.51	4842.1	
777.69	5749.3	
777.87	5463.3	
778.04	4515.1	
778.22	5240.1	
778.4	5517.9	
778.57	6272.9	
778.75	3689.8	
778.93	4005.1	
779.1	5268.7	
779.28	5187.5	
779.46	3760.8	
779.64	4296	
779.81	6421.1	
779.99	7277.1	
780.17	5165	
780.34	5322	
780.52	5739.1	
780.69	6068.8	
780.87	4637.3	
781.05	4195.6	
781.22	5872.9	
781.4	5971.2	
781.58	4315.1	
781.75	3416.7	
781.93	5917.3	
782.11	5277.6	
782.28	5273.5	
782.46	4319.2	
782.64	5124	
782.81	6044.9	
782.99	4384.7	
783.17	4354.7	
783.34	5976	
783.52	5125.4	
783.69	4601.1	
783.87	5471.5	
784.05	5212.8	
784.22	5239.4	
784.4	5473.5	
784.58	4682.3	
784.75	6197.8	
784.93	5218.2	
785.1	4305.5	
785.28	4986.1	
785.46	5905.7	
785.63	5241.4	
785.81	4279.6	
785.99	4055	
786.16	5356.1	
786.34	5825.8	
786.51	4125.3	
786.69	4604.5	
786.87	4897.4	
787.04	5537	
787.22	4001.7	
787.39	5072.8	
787.57	5231.2	
787.75	6476.4	
787.92	5128.8	
788.1	5180.7	
788.27	5231.2	
788.45	5012.7	
788.63	4824.3	
788.8	3470.6	
788.98	5624.4	
789.15	4922.6	
789.33	3616	
789.5	4368.3	
789.68	6261.3	
789.86	6427.2	
790.03	4780.6	
790.21	4136.9	
790.38	6214.2	
790.56	5395.7	
790.73	3989.4	
790.91	4018.1	
791.09	5227.1	
791.26	6047.7	
791.44	4265.9	
791.61	3683.6	
791.79	5224.4	
791.96	5228.5	
792.14	3762.8	
792.32	3385.3	
792.49	5262.6	
792.67	5345.2	
792.84	3873.4	
793.02	3665.9	
793.19	5685.8	
793.37	6490	
793.54	3293.1	
793.72	3734.1	
793.89	6613.6	
794.07	5255.8	
794.25	4461.2	
794.42	3442.6	
794.6	6350.8	
794.77	6019	
794.95	4679.6	
795.12	4106.9	
795.3	5185.5	
795.47	5916.6	
795.65	4461.2	
795.82	4339	
796	4996.4	
796.17	7101.7	
796.35	4113	
796.52	4908.3	
796.7	5753.4	
796.87	5919.3	
797.05	5125.4	
797.22	5115.1	
797.4	5812.1	
797.57	6973.3	
797.75	4281.6	
797.92	4025.6	
798.1	6193.7	
798.27	5217.5	
798.45	3459	
798.62	3721.8	
798.8	5500.2	
798.97	6126.8	
799.15	4567.7	
799.32	4332.1	
799.5	4782	
799.67	5601.2	
799.85	4688.5	
800.02	3330	
800.2	5138.4	
800.37	5651	
800.55	4896	
800.72	4049.5	
800.9	6036	
801.07	6584.9	
801.25	5479	
801.42	4435.2	
801.6	6072.2	
801.77	5878.4	
801.95	4137.6	
802.12	3908.2	
802.29	5792.3	
802.47	5766.4	
802.64	4467.3	
802.82	3275.4	
802.99	5161.6	
803.17	6255.9	
803.34	4277.5	
803.52	3865.2	
803.69	7013.6	
803.87	4889.2	
804.04	4225.6	
804.21	4324.6	
804.39	6425.8	
804.56	5415.5	
804.74	3575.8	
804.91	4513.7	
805.09	5227.1	
805.26	5282.4	
805.44	3707.5	
805.61	4103.4	
805.78	5968.5	
805.96	5947.3	
806.13	4470	
806.31	4780	
806.48	4743.8	
806.66	5259.9	
806.83	4427	
807	4349.9	
807.18	5125.4	
807.35	5656.5	
807.53	4318.5	
807.7	3374.4	
807.87	6479.8	
808.05	5233.2	
808.22	4746.5	
808.4	3459	
808.57	5296.7	
808.74	4799.8	
808.92	3947.1	
809.09	5075.5	
809.27	5052.3	
809.44	5846.3	
809.61	3499.3	
809.79	3920.5	
809.96	6485.2	
810.14	6049	
810.31	3358	
810.48	4118.5	
810.66	5313.8	
810.83	6163	
811.01	3906.2	
811.18	4448.2	
811.35	6017.6	
811.53	4616.1	
811.7	4825	
811.87	4456.4	
812.05	5242.1	
812.22	5175.9	
812.39	3851.5	
812.57	3685	
812.74	5238	
812.92	7135.8	
813.09	4120.5	
813.26	4603.8	
813.44	6746	
813.61	5167	
813.78	3441.3	
813.96	4721.9	
814.13	5235.3	
814.3	4903.5	
814.48	5129.5	
814.65	4152.6	
814.82	6576	
815	5024.3	
815.17	4265.2	
815.34	5294.7	
815.52	5150.6	
815.69	5120.6	
815.87	4231.1	
816.04	4194.9	
816.21	5323.4	
816.38	4597.7	
816.56	4106.2	
816.73	3805.1	
816.9	6656.6	
817.08	6035.4	
817.25	3835.2	
817.42	4867.3	
817.6	4805.9	
817.77	5276.3	
817.94	4385.4	
818.12	3812	
818.29	4970.4	
818.46	7991.9	
818.64	3928.7	
818.81	3732.8	
818.98	4831.8	
819.16	7280.5	
819.33	4582.7	
819.5	4243.4	
819.67	5653.8	
819.85	6348.7	
820.02	4213.4	
820.19	4407.9	
820.37	5479.7	
820.54	5113.8	
820.71	4420.2	
820.88	5462.6	
821.06	5540.4	
821.23	5047.6	
821.4	4376.5	
821.58	4289.8	
821.75	6118.6	
821.92	5453.1	
822.09	3467.2	
822.27	3606.5	
822.44	5238.7	
822.61	5139	
822.79	3468.6	
822.96	6816.3	
823.13	5825.1	
823.3	4970.4	
823.48	4083.6	
823.65	3656.3	
823.82	6006	
823.99	4767	
824.17	5218.2	
824.34	3740.3	
824.51	6968.6	
824.68	5300.1	
824.86	3848.8	
825.03	4350.6	
825.2	5250.3	
825.37	6427.2	
825.55	3834.5	
825.72	4235.2	
825.89	7109.9	
826.06	6493.4	
826.24	4182.6	
826.41	4189.5	
826.58	6410.8	
826.75	5601.2	
826.92	3216.7	
827.1	3652.9	
827.27	8923.7	
827.44	7140.6	
827.61	3927.3	
827.79	4816.1	
827.96	4922.6	
828.13	5337.7	
828.3	4099.4	
828.47	3383.9	
828.65	5444.2	
828.82	5475.6	
828.99	5445.5	
829.16	4766.3	
829.34	5932.3	
829.51	5677	
829.68	4341.7	
829.85	4523.3	
830.02	6196.5	
830.2	5907.7	
830.37	3284.9	
830.54	5270.1	
830.71	6768.5	
830.88	5207.3	
831.05	3351.2	
831.23	3949.2	
831.4	6488.6	
831.57	7362.4	
831.74	3895.2	
831.91	3523.9	
832.09	5471.5	
832.26	5892.7	
832.43	4159.4	
832.6	4653.7	
832.77	5503.6	
832.94	6294.1	
833.12	3226.2	
833.29	4057	
833.46	5129.5	
833.63	7557	
833.8	4569	
833.97	4143.7	
834.15	5861.3	
834.32	5628.5	
834.49	4311	
834.66	4347.2	
834.83	6139.1	
835	4919.2	
835.17	3941	
835.35	4070	
835.52	5799.8	
835.69	5669.5	
835.86	4265.2	
836.03	3426.3	
836.2	5853.8	
836.37	5413.5	
836.55	4062.5	
836.72	3838.6	
836.89	5464.7	
837.06	5979.4	
837.23	4207.9	
837.4	4620.9	
837.57	6764.4	
837.75	7610.3	
837.92	3769.6	
838.09	4023.6	
838.26	5382.7	
838.43	6166.4	
838.6	4361.5	
838.77	3840.6	
838.94	7172.7	
839.11	6860	
839.29	4129.4	
839.46	3233.1	
839.63	5861.3	
839.8	5545.2	
839.97	3989.4	
840.14	4083.6	
840.31	5610.8	
840.48	5915.9	
840.65	3312.2	
840.82	3928.7	
841	5870.2	
841.17	5852.4	
841.34	3665.9	
841.51	3725.9	
841.68	5827.2	
841.85	5494	
842.02	3903.4	
842.19	3200.3	
842.36	5627.1	
842.53	5584.1	
842.7	3479.5	
842.87	4559.5	
843.05	7401.4	
843.22	5539.1	
843.39	3448.8	
843.56	3832.4	
843.73	5294	
843.9	5951.4	
844.07	6097.5	
844.24	5039.4	
844.41	8801.5	
844.58	5068	
844.75	3531.4	
844.92	3895.2	
845.09	5890.6	
845.26	5885.2	
845.43	3618.1	
845.6	3846.8	
845.77	5896.1	
845.94	5510.4	
846.12	4083	
846.29	4334.2	
846.46	6073.6	
846.63	5914.5	
846.8	3655.6	
846.97	4376.5	
847.14	6419.7	
847.31	5773.9	
847.48	4145.8	
847.65	4616.1	
847.82	6138.4	
847.99	6174.6	
848.16	4919.2	
848.33	4552.6	
848.5	5387.5	
848.67	6421.1	
848.84	3635.1	
849.01	3855	
849.18	5259.9	
849.35	4878.9	
849.52	4614.1	
849.69	3581.9	
849.86	6042.9	
850.03	6364.4	
850.2	3665.2	
850.37	4519.9	
850.54	6323.4	
850.71	5517.9	
850.88	4457.1	
851.05	3599.6	
851.22	5773.2	
851.39	6531.7	
851.56	3457	
851.73	4259.1	
851.9	5109	
852.07	6177.4	
852.24	4116.4	
852.41	3614	
852.58	5649	
852.75	5260.5	
852.92	4130.8	
853.09	3592.1	
853.26	5367	
853.43	6423.8	
853.6	3592.8	
853.77	3105.4	
853.94	6421.7	
854.11	5840.8	
854.28	5455.1	
854.44	3977.2	
854.61	6961	
854.78	6231.3	
854.95	3654.9	
855.12	4618.9	
855.29	4688.5	
855.46	6625.9	
855.63	3632.4	
855.8	5117.2	
855.97	5363.6	
856.14	6236.1	
856.31	5236.7	
856.48	4018.1	
856.65	5406	
856.82	5117.2	
856.99	3542.3	
857.16	3961.5	
857.33	7165.8	
857.49	5492	
857.66	3943	
857.83	4273.4	
858	5444.9	
858.17	5710.4	
858.34	3441.3	
858.51	3691.8	
858.68	6593.8	
858.85	6661.4	
859.02	4236.6	
859.19	4600.4	
859.36	5070.1	
859.52	5145.2	
859.69	3650.8	
859.86	4313.7	
860.03	5221.6	
860.2	6490.7	
860.37	3226.2	
860.54	3673.4	
860.71	6062	
860.88	6593.8	
861.05	4128	
861.21	4672.8	
861.38	6624.5	
861.55	5014.1	
861.72	3291.8	
861.89	4111.6	
862.06	6196.5	
862.23	6718	
862.4	3577.1	
862.56	3855.6	
862.73	6006	
862.9	5599.8	
863.07	4302.8	
863.24	3325.9	
863.41	4964.3	
863.58	5072.1	
863.75	3743	
863.91	4261.1	
864.08	6518	
864.25	6023.1	
864.42	4613.4	
864.59	5187.5	
864.76	6921.5	
864.93	5161.6	
865.09	3568.9	
865.26	3878.9	
865.43	6403.3	
865.6	6839.5	
865.77	3163.4	
865.94	3605.1	
866.1	6439.5	
866.27	6219.7	
866.44	5529.5	
866.61	3461.1	
866.78	5517.2	
866.95	5993	
867.11	3493.2	
867.28	3190.1	
867.45	6204	
867.62	5227.8	
867.79	4279.6	
867.96	3640.6	
868.12	5116.5	
868.29	6162.3	
868.46	3667.9	
868.63	4862.6	
868.8	6389.7	
868.97	6032.6	
869.13	3833.8	
869.3	3851.5	
869.47	5935	
869.64	6236.1	
869.81	3672	
869.97	3660.4	
870.14	5890.6	
870.31	6602	
870.48	3588.7	
870.65	4631.8	
870.81	5496.1	
870.98	5433.3	
871.15	4201.7	
871.32	3781.2	
871.48	5959.6	
871.65	6636.8	
871.82	3532.1	
871.99	4040	
872.16	7141.3	
872.32	6559.6	
872.49	3661.1	
872.66	3687.7	
872.83	6159.6	
872.99	5360.9	
873.16	4235.2	
873.33	3575.8	
873.5	5685.8	
873.67	5770.5	
873.83	3840.6	
874	4900.8	
874.17	5821.7	
874.34	7019.1	
874.5	4785.4	
874.67	4609.3	
874.84	6555.5	
875.01	5124.7	
875.17	5190.9	
875.34	3669.3	
875.51	5720.7	
875.68	7022.5	
875.84	4429.1	
876.01	5383.4	
876.18	6050.4	
876.34	6010.1	
876.51	3644.7	
876.68	3599	
876.85	5635.3	
877.01	6418.3	
877.18	5289.9	
877.35	3648.8	
877.52	5636.7	
877.68	4962.9	
877.85	3528	
878.02	3560.1	
878.18	5602.6	
878.35	5311.1	
878.52	2949.8	
878.69	4108.9	
878.85	6066.1	
879.02	6034	
879.19	5302.9	
879.35	3961.5	
879.52	5988.9	
879.69	6315.9	
879.86	3170.9	
880.02	4141	
880.19	5571.8	
880.36	6961.7	
880.52	4173.8	
880.69	4347.8	
880.86	6159.6	
881.02	6227.9	
881.19	4022.9	
881.36	3948.5	
881.52	6050.4	
881.69	5345.9	
881.86	3897.3	
882.02	3883.6	
882.19	6419.7	
882.36	7510.6	
882.52	3793.5	
882.69	5171.8	
882.86	5827.2	
883.02	5720.7	
883.19	4443.4	
883.36	4241.3	
883.52	6208.1	
883.69	7143.3	
883.86	3686.3	
884.02	3246	
884.19	6098.2	
884.36	5652.4	
884.52	4136.2	
884.69	3877.5	
884.86	5329.5	
885.02	6712.6	
885.19	4059.8	
885.36	4307.6	
885.52	5600.5	
885.69	5766.4	
885.86	5423	
886.02	4697.4	
886.19	6160.3	
886.35	5577.3	
886.52	4032.5	
886.69	5145.9	
886.85	5122.7	
887.02	6531	
887.19	6531	
887.35	6531	
887.52	6531	
887.68	6531	
887.85	6531	
888.02	6531	
888.18	6531	
888.35	6531	
888.51	6531	
888.68	6531	
888.85	6531	
889.01	6531	
889.18	6531	
889.35	6531	
889.51	6531	
889.68	6531	
889.84	6531	
890.01	6531	
890.17	6531	
890.34	6531	
890.51	6531	
890.67	6531	
890.84	6531	
891	6531	
891.17	6531	
891.34	6531	
891.5	6531	
891.67	6531	
891.83	6531	
892	6531	
892.16	6531	
892.33	6531	
892.5	6531	
892.66	6531	
892.83	6531	
892.99	6531	
893.16	6531	
893.32	6531	
893.49	6531	
893.65	6531	
893.82	6531	
893.99	6531	
894.15	6531	
894.32	6531	
894.48	6531	
894.65	6531	
894.81	6531	
894.98	6531	
895.14	6531	
895.31	6531	
895.47	6531	
895.64	6531	
895.81	6531	
895.97	6531	
896.14	6531	
896.3	6531	
896.47	6531	
896.63	6531	
896.8	6531	
896.96	6531	
897.13	6531	
897.29	6531	
897.46	6531	
897.62	6531	
897.79	6531	
897.95	6531	
898.12	6531	
898.28	6531	
898.45	6531	
898.61	6531	
898.78	6531	
898.94	6531	
899.11	6531	
899.27	6531	
899.44	6531	
899.6	6531	
899.77	6531	
899.93	6531	
900.1	6531	
900.26	6531	
900.43	6531	
900.59	6531	
900.76	6531	
900.92	6531	
901.09	6531	
901.25	6531	
901.42	6531	
901.58	6531	
901.75	6531	
901.91	6531	
902.07	6531	
902.24	6531	
902.4	6531	
902.57	6531	
902.73	6531	
902.9	6531	
903.06	6531	
903.23	6531	
903.39	6531	
903.56	6531	
903.72	6531	
903.88	6531	
904.05	6531	
904.21	6531	
904.38	6531	
904.54	6531	
904.71	6531	
904.87	6531	
905.03	6531	
905.2	6531	
905.36	6531	
905.53	6531	
905.69	6531	
905.86	6531	
906.02	6531	
906.18	6531	
906.35	6531	
906.51	6531	
906.68	6531	
906.84	6531	
907.01	6531	
907.17	6531	
907.33	6531	
907.5	6531	
907.66	6531	
907.83	6531	
907.99	6531	
908.15	6531	
908.32	6531	
908.48	6531	
908.65	6531	
908.81	6531	
908.97	6531	
909.14	6531	
909.3	6531	
909.47	6531	
909.63	6531	
909.79	6531	
909.96	6531	
910.12	6531	
910.28	6531	
910.45	6531	
910.61	6531	
910.78	6531	
910.94	6531	
911.1	6531	
911.27	6531	
911.43	6531	
911.59	6531	
911.76	6531	
911.92	6531	
912.08	6531	
912.25	6531	
912.41	6531	
912.57	6531	
912.74	6531	
912.9	6531	
913.07	6531	
913.23	6531	
913.39	6531	
913.56	6531	
913.72	6531	
913.88	6531	
914.05	6531	
914.21	6531	
914.37	6531	
914.54	6531	
914.7	6531	
914.86	6531	
915.03	6531	
915.19	6531	
