Wavelength	Intensities	
nm	a.u.	
179.22	1897.4	
179.44	1891.6	
179.65	1903.2	
179.86	1880	
180.08	1895.1	
180.29	4877.6	
180.51	3480.2	
180.72	5627.8	
180.94	6584.9	
181.15	3239.2	
181.37	3127.9	
181.58	5483.8	
181.79	5864	
182.01	3418.7	
182.22	3631.7	
182.44	5782.1	
182.65	4797.7	
182.87	4585.4	
183.08	4019.5	
183.29	6044.2	
183.51	5057.8	
183.72	3661.1	
183.94	5380.7	
184.15	5462.6	
184.37	5477	
184.58	3224.2	
184.79	4472.1	
185.01	5001.1	
185.22	5739.1	
185.44	4713.7	
185.65	4018.8	
185.86	5333.6	
186.08	4906.3	
186.29	3091.1	
186.51	3381.2	
186.72	5078.3	
186.94	5940.5	
187.15	3870	
187.36	4070	
187.58	7789.1	
187.79	5556.1	
188.01	4205.2	
188.22	6597.2	
188.43	6595.8	
188.65	5775.3	
188.86	3354.6	
189.08	4040.6	
189.29	5272.2	
189.5	5234.6	
189.72	3747.8	
189.93	3868.6	
190.15	5943.9	
190.36	7129	
190.57	4120.5	
190.79	4010.6	
191	6070.9	
191.22	6031.3	
191.43	4171.7	
191.64	3431.7	
191.86	6259.3	
192.07	6049	
192.29	3485	
192.5	3725.3	
192.71	6026.5	
192.93	5135.6	
193.14	3760.1	
193.35	3826.3	
193.57	5118.6	
193.78	5977.3	
194	3009.1	
194.21	3633.8	
194.42	4945.2	
194.64	5410.1	
194.85	4095.9	
195.07	4755.4	
195.28	5527.5	
195.49	4695.3	
195.71	5014.8	
195.92	3464.5	
196.13	5592.3	
196.35	5803.3	
196.56	5378	
196.78	4008.6	
196.99	7100.3	
197.2	6640.2	
197.42	4614.8	
197.63	4117.1	
197.84	4876.2	
198.06	5641.5	
198.27	3764.8	
198.48	5018.2	
198.7	5197.1	
198.91	5335	
199.13	4106.9	
199.34	4069.3	
199.55	5810.8	
199.77	4728.8	
199.98	3595.6	
200.19	4214.7	
200.41	5270.8	
200.62	5058.5	
200.83	4257	
201.05	4587.4	
201.26	5281	
201.47	5100.1	
201.69	3608.5	
201.9	3535.5	
202.11	5408.7	
202.33	6480.5	
202.54	3912.3	
202.76	4295.3	
202.97	5519.3	
203.18	5558.9	
203.4	4249.5	
203.61	4149.9	
203.82	5535.7	
204.04	5121.3	
204.25	4136.2	
204.46	4009.2	
204.68	5431.9	
204.89	5695.4	
205.1	3972.4	
205.32	3471.3	
205.53	5874.3	
205.74	5991	
205.96	2955.9	
206.17	4186.7	
206.38	5834.7	
206.6	5988.3	
206.81	4674.8	
207.02	3818.1	
207.24	5689.9	
207.45	6119.3	
207.66	3857.7	
207.88	3315.7	
208.09	5599.1	
208.3	5451	
208.52	3513.6	
208.73	3859.7	
208.94	5432.6	
209.15	6171.9	
209.37	3814.7	
209.58	4106.9	
209.79	6003.3	
210.01	5216.2	
210.22	3149.8	
210.43	3288.4	
210.65	5427.1	
210.86	5805.3	
211.07	3929.4	
211.29	3558	
211.5	5784.1	
211.71	5394.3	
211.93	3567.6	
212.14	3580.5	
212.35	5307	
212.56	5569.8	
212.78	4133.5	
212.99	3352.5	
213.2	6371.9	
213.42	5204.6	
213.63	3663.8	
213.84	3978.5	
214.06	4835.3	
214.27	4903.5	
214.48	3885	
214.69	4108.9	
214.91	6138.4	
215.12	6253.1	
215.33	4149.9	
215.55	4634.6	
215.76	6704.4	
215.97	5886.5	
216.18	4024.9	
216.4	3891.1	
216.61	5131.5	
216.82	5936.4	
217.04	3610.6	
217.25	3760.8	
217.46	6115.2	
217.67	5853.1	
217.89	3190.7	
218.1	3341.6	
218.31	5494	
218.53	5614.8	
218.74	3781.2	
218.95	3676.1	
219.16	5373.2	
219.38	6367.1	
219.59	3657.7	
219.8	4417.5	
220.01	7055.9	
220.23	5445.5	
220.44	4746.5	
220.65	3539.6	
220.87	5468.1	
221.08	6022.4	
221.29	3269.2	
221.5	4485.7	
221.72	7414.3	
221.93	5210.7	
222.14	4121.2	
222.35	4893.3	
222.57	5500.2	
222.78	5825.1	
222.99	3930.1	
223.2	4263.2	
223.42	5741.1	
223.63	5866.7	
223.84	3028.3	
224.05	2996.9	
224.27	6956.9	
224.48	6316.6	
224.69	4831.8	
224.9	4078.2	
225.12	5660.6	
225.33	5418.2	
225.54	3251.5	
225.75	3588	
225.97	4993.6	
226.18	5311.7	
226.39	3964.2	
226.6	3649.5	
226.82	5177.3	
227.03	5005.2	
227.24	4093.2	
227.45	3368.2	
227.67	5908.4	
227.88	6354.2	
228.09	4536.9	
228.3	4579.9	
228.52	5851.7	
228.73	5375.2	
228.94	3758.7	
229.15	3350.5	
229.36	5371.8	
229.58	5239.4	
229.79	3812	
230	4501.4	
230.21	6513.9	
230.43	5545.2	
230.64	4017.4	
230.85	4263.2	
231.06	5864.7	
231.28	5852.4	
231.49	3412.6	
231.7	4006.5	
231.91	5791	
232.12	5436	
232.34	3486.3	
232.55	3958.7	
232.76	6092.7	
232.97	5633.3	
233.18	3558.7	
233.4	3959.4	
233.61	5687.9	
233.82	5171.8	
234.03	3766.2	
234.25	3699.3	
234.46	7574.8	
234.67	5466.7	
234.88	4225.6	
235.09	3669.3	
235.31	5793.7	
235.52	5302.2	
235.73	4057	
235.94	3449.5	
236.15	5085.1	
236.37	6583.5	
236.58	3589.4	
236.79	3911.6	
237	5718.6	
237.21	4934.9	
237.43	4199	
237.64	3259	
237.85	9917.6	
238.06	5017.5	
238.27	4276.8	
238.48	3409.9	
238.7	5692	
238.91	5276.3	
239.12	3861.1	
239.33	3881.6	
239.54	5018.2	
239.76	5330.2	
239.97	3884.3	
240.18	3880.9	
240.39	6813.6	
240.6	5740.5	
240.82	4089.8	
241.03	3316.3	
241.24	5436	
241.45	6323.4	
241.66	3588.7	
241.87	4251.6	
242.09	6221.7	
242.3	6533.7	
242.51	4277.5	
242.72	3925.3	
242.93	5904.3	
243.14	5412.1	
243.36	4548.5	
243.57	4868.7	
243.78	6277	
243.99	5711.1	
244.2	3940.3	
244.41	3559.4	
244.63	4947.2	
244.84	5743.9	
245.05	4140.3	
245.26	3986	
245.47	5674.2	
245.68	6016.9	
245.9	5263.3	
246.11	4139.6	
246.32	5287.2	
246.53	5689.9	
246.74	6341.9	
246.95	3307.5	
247.16	4918.5	
247.38	5477	
247.59	3239.2	
247.8	3973.1	
248.01	5124.7	
248.22	5335.6	
248.43	3552.5	
248.64	3839.3	
248.86	4835.3	
249.07	5238	
249.28	3394.2	
249.49	3979.2	
249.7	5997.1	
249.91	6114.6	
250.12	3293.1	
250.34	3341.6	
250.55	5578	
250.76	5386.8	
250.97	4101.4	
251.18	4140.3	
251.39	6142.5	
251.6	5623	
251.81	4175.1	
252.03	4130.1	
252.24	5209.3	
252.45	5978.7	
252.66	3361.4	
252.87	4339	
253.08	5464	
253.29	7184.3	
253.5	3411.2	
253.72	4784.7	
253.93	5251.7	
254.14	6476.4	
254.35	3708.2	
254.56	3818.1	
254.77	5683.8	
254.98	5059.2	
255.19	3664.5	
255.41	4707.6	
255.62	5547.9	
255.83	6096.1	
256.04	4261.1	
256.25	4121.9	
256.46	6530.3	
256.67	5133.6	
256.88	4067.9	
257.09	4584	
257.31	5134.3	
257.52	5105.6	
257.73	5049.6	
257.94	3692.5	
258.15	5298.8	
258.36	5476.3	
258.57	4699.4	
258.78	2962.7	
258.99	5828.5	
259.2	5281	
259.41	3744.4	
259.63	3835.2	
259.84	6302.3	
260.05	6736.5	
260.26	4876.9	
260.47	3705.5	
260.68	6077	
260.89	5367	
261.1	4533.5	
261.31	3577.8	
261.52	6023.8	
261.73	6411.5	
261.95	4796.3	
262.16	4194.9	
262.37	6206.7	
262.58	6269.5	
262.79	4835.9	
263	3793.5	
263.21	5490.6	
263.42	5024.3	
263.63	3862.5	
263.84	3724.6	
264.05	6047.7	
264.26	6367.1	
264.47	4676.9	
264.69	4262.5	
264.9	6124.8	
265.11	5647.6	
265.32	3645.4	
265.53	3707.5	
265.74	5598.5	
265.95	4875.5	
266.16	3997.6	
266.37	4430.4	
266.58	5553.4	
266.79	5252.4	
267	3737.5	
267.21	3431	
267.42	5021.6	
267.63	5426.4	
267.84	3921.9	
268.06	3301.3	
268.27	5883.1	
268.48	6163	
268.69	3768.9	
268.9	4502.8	
269.11	6175.3	
269.32	4838	
269.53	3896.6	
269.74	3605.1	
269.95	5790.3	
270.16	4818.9	
270.37	3918.4	
270.58	4541.7	
270.79	5320.6	
271	5964.4	
271.21	4145.1	
271.42	3981.9	
271.63	5555.5	
271.84	5053	
272.05	3157.3	
272.26	3514.3	
272.47	5511.1	
272.68	5652.4	
272.89	3694.5	
273.11	4394.9	
273.32	5253.7	
273.53	6427.2	
273.74	4280.9	
273.95	4117.1	
274.16	6028.5	
274.37	5504.9	
274.58	4326.7	
274.79	3394.2	
275	5543.2	
275.21	6141.9	
275.42	5182.7	
275.63	4490.5	
275.84	5687.9	
276.05	7182.2	
276.26	4158.1	
276.47	3882.3	
276.68	5329.5	
276.89	6482.5	
277.1	4455.7	
277.31	3465.8	
277.52	5717.2	
277.73	5880.4	
277.94	3376.4	
278.15	3830.4	
278.36	5676.3	
278.57	5065.3	
278.78	3739.6	
278.99	4237.2	
279.2	5097.4	
279.41	5018.2	
279.62	4986.1	
279.83	3433.8	
280.04	6675	
280.25	4939.7	
280.46	4950.6	
280.67	3949.8	
280.88	5046.9	
281.09	6083.8	
281.3	4143	
281.51	5218.9	
281.72	5126.7	
281.93	5901.6	
282.14	3639.9	
282.35	4017.4	
282.56	5981.4	
282.77	6019	
282.98	3805.8	
283.19	4651.6	
283.4	7346.1	
283.61	5395.7	
283.82	3401	
284.03	4845.5	
284.24	5606	
284.45	6106.4	
284.66	4928.1	
284.87	4737.6	
285.08	5991.7	
285.29	6137.8	
285.5	3274	
285.71	3906.2	
285.92	6095.4	
286.12	6806.8	
286.33	4824.3	
286.54	3786	
286.75	5900.9	
286.96	5270.1	
287.17	3490.4	
287.38	4783.4	
287.59	5111	
287.8	4999.8	
288.01	3885.7	
288.22	4504.8	
288.43	5966.4	
288.64	4980	
288.85	4579.9	
289.06	4342.4	
289.27	5896.8	
289.48	6349.4	
289.69	4831.8	
289.9	4371.7	
290.11	6090.7	
290.32	5134.9	
290.53	4705.5	
290.74	4290.5	
290.94	5917.3	
291.15	5984.2	
291.36	3632.4	
291.57	4401.8	
291.78	5220.3	
291.99	4908.3	
292.2	3512.3	
292.41	4318.5	
292.62	6004.6	
292.83	5807.4	
293.04	5290.6	
293.25	3579.2	
293.46	5241.4	
293.67	5982.1	
293.88	3727.3	
294.09	3534.1	
294.29	4958.1	
294.5	5590.3	
294.71	3941.7	
294.92	3755.3	
295.13	5221	
295.34	6532.3	
295.55	3336.1	
295.76	3394.2	
295.97	5948	
296.18	6600.6	
296.39	3487.7	
296.6	3700	
296.81	5578	
297.01	5883.1	
297.22	3831.7	
297.43	3626.3	
297.64	5050.3	
297.85	5057.1	
298.06	3080.1	
298.27	3333.4	
298.48	5526.8	
298.69	5187.5	
298.9	3979.2	
299.11	3629.7	
299.31	4934.9	
299.52	4961.5	
299.73	4327.4	
299.94	4136.2	
300.15	5430.5	
300.36	5068	
300.57	4255.7	
300.78	4183.3	
300.99	5310.4	
301.2	5672.9	
301.4	3633.8	
301.61	3966.9	
301.82	5778.7	
302.03	5862	
302.24	4498	
302.45	3469.9	
302.66	5758.2	
302.87	6199.2	
303.08	3711.6	
303.29	5042.1	
303.49	5196.4	
303.7	5514.5	
303.91	3302	
304.12	4786.8	
304.33	4995.7	
304.54	5528.8	
304.75	3734.8	
304.96	3554.6	
305.16	5781.4	
305.37	6549.4	
305.58	3211.2	
305.79	3312.2	
306	5744.6	
306.21	4902.8	
306.42	3716.4	
306.63	5725.4	
306.83	5285.1	
307.04	6062	
307.25	4048.8	
307.46	4024.3	
307.67	4683	
307.88	5926.8	
308.09	3594.9	
308.29	3774.4	
308.5	5483.1	
308.71	6102.9	
308.92	3923.9	
309.13	3525.9	
309.34	5446.2	
309.55	5415.5	
309.75	4567.7	
309.96	4197	
310.17	5908.4	
310.38	5120.6	
310.59	4420.9	
310.8	4199.7	
311.01	6602	
311.21	5338.4	
311.42	3467.9	
311.63	3610.6	
311.84	5170.4	
312.05	5568.4	
312.26	4121.9	
312.46	4514.4	
312.67	5274.2	
312.88	4965.6	
313.09	3553.9	
313.3	3507.5	
313.51	6284.5	
313.71	6599.2	
313.92	3581.2	
314.13	3760.8	
314.34	5569.1	
314.55	5375.2	
314.76	4641.4	
314.96	3951.2	
315.17	5544.5	
315.38	5862	
315.59	3619.4	
315.8	3419.4	
316.01	6315.9	
316.21	6394.4	
316.42	3499.3	
316.63	3955.3	
316.84	5315.2	
317.05	6191.7	
317.26	4232.5	
317.46	3820.8	
317.67	5377.3	
317.88	5865.4	
318.09	4517.1	
318.3	3283.6	
318.5	5175.9	
318.71	5758.9	
318.92	5765.7	
319.13	4224.3	
319.34	5956.9	
319.54	6064.7	
319.75	3282.2	
319.96	3192.8	
320.17	5799.2	
320.38	6023.8	
320.58	3251.5	
320.79	3929.4	
321	6079.7	
321.21	6195.1	
321.42	3969.6	
321.62	3251.5	
321.83	5018.2	
322.04	5502.2	
322.25	3738.2	
322.46	3587.4	
322.66	5554.8	
322.87	5784.8	
323.08	4400.4	
323.29	3506.1	
323.5	6559.6	
323.7	4995.7	
323.91	4894.6	
324.12	4350.6	
324.33	5509	
324.53	5731.6	
324.74	4156.7	
324.95	4451.6	
325.16	4809.3	
325.37	5279.7	
325.57	3566.2	
325.78	3637.9	
325.99	5532.2	
326.2	4965.6	
326.4	5096	
326.61	3262.4	
326.82	5395.7	
327.03	5593.7	
327.24	5095.3	
327.44	4861.9	
327.65	5733.6	
327.86	4659.1	
328.07	4185.4	
328.27	3386.7	
328.48	6178.7	
328.69	5025	
328.9	5165	
329.1	3805.8	
329.31	5271.5	
329.52	6307.7	
329.73	3545.7	
329.93	4025.6	
330.14	5444.9	
330.35	5741.1	
330.56	5851.7	
330.76	4410.6	
330.97	5341.8	
331.18	5657.9	
331.39	3980.6	
331.59	3136.8	
331.8	6071.5	
332.01	6206	
332.22	3671.3	
332.42	4199.7	
332.63	5599.1	
332.84	5161.6	
333.05	4042.7	
333.25	3640.6	
333.46	5185.5	
333.67	5487.2	
333.88	3747.1	
334.08	4169	
334.29	7352.2	
334.5	6092.7	
334.7	3495.2	
334.91	5136.3	
335.12	5015.5	
335.33	5862.7	
335.53	3964.2	
335.74	5877	
335.95	5256.5	
336.16	5083.1	
336.36	4087.1	
336.57	4630.5	
336.78	4958.8	
336.98	6114.6	
337.19	4916.5	
337.4	3914.4	
337.61	6592.4	
337.81	4986.8	
338.02	3630.4	
338.23	4710.3	
338.43	6257.9	
338.64	5102.2	
338.85	3619.4	
339.05	4685.8	
339.26	6305	
339.47	4928.1	
339.68	3564.1	
339.88	5300.1	
340.09	5692	
340.3	5976.7	
340.5	4207.2	
340.71	3187.3	
340.92	4930.8	
341.13	6186.9	
341.33	3475.4	
341.54	4225	
341.75	5680.4	
341.95	5378	
342.16	3965.6	
342.37	4355.3	
342.57	4963.6	
342.78	5409.4	
342.99	4433.2	
343.19	3178.4	
343.4	5832.6	
343.61	5760.3	
343.81	3773	
344.02	3490.4	
344.23	5882.4	
344.43	6291.4	
344.64	4450.2	
344.85	4282.3	
345.06	5745.2	
345.26	6087.2	
345.47	4143.7	
345.68	4871.4	
345.88	4803.9	
346.09	5988.9	
346.3	4201.1	
346.5	3150.5	
346.71	5485.1	
346.92	5208	
347.12	3207.8	
347.33	4186	
347.54	6047	
347.74	6486.6	
347.95	4032.5	
348.16	3001.6	
348.36	5283.8	
348.57	4980.7	
348.78	4078.9	
348.98	4425.7	
349.19	5425.1	
349.39	4910.3	
349.6	3255.6	
349.81	3623.5	
350.01	5738.4	
350.22	5183.4	
350.43	3924.6	
350.63	4763.6	
350.84	5489.9	
351.05	5264.6	
351.25	3647.4	
351.46	3264.5	
351.67	6046.3	
351.87	5117.9	
352.08	3863.8	
352.29	4390.8	
352.49	5952.1	
352.7	5606.7	
352.9	3470.6	
353.11	4298.7	
353.32	6596.5	
353.52	5259.9	
353.73	3439.2	
353.94	4433.2	
354.14	5744.6	
354.35	5554.1	
354.55	3531.4	
354.76	3975.1	
354.97	5713.2	
355.17	5459.2	
355.38	3317.7	
355.59	4648.2	
355.79	5104.9	
356	5569.8	
356.2	3953.3	
356.41	3403.7	
356.62	4840	
356.82	5356.1	
357.03	4176.5	
357.24	3779.2	
357.44	5111	
357.65	5244.8	
357.85	5025.7	
358.06	3934.1	
358.27	4817.5	
358.47	5034.6	
358.68	3239.2	
358.88	4169	
359.09	5659.2	
359.3	6032	
359.5	4950.6	
359.71	4267.3	
359.91	6506.4	
360.12	5764.3	
360.33	4106.9	
360.53	4618.2	
360.74	5091.3	
360.94	5150.6	
361.15	4369.7	
361.36	3559.4	
361.56	5844.2	
361.77	5359.5	
361.97	4866.7	
362.18	3865.2	
362.38	5938.4	
362.59	4964.3	
362.8	3438.5	
363	3338.2	
363.21	4780	
363.41	5443.5	
363.62	3977.8	
363.83	5023.7	
364.03	5479.7	
364.24	6526.9	
364.44	5122.7	
364.65	5141.8	
364.85	5288.5	
365.06	5160.2	
365.27	3689.8	
365.47	3670	
365.68	6263.4	
365.88	5204.6	
366.09	4020.2	
366.29	3777.1	
366.5	5519.3	
366.71	5986.9	
366.91	5089.2	
367.12	4181.3	
367.32	6546	
367.53	5759.6	
367.73	4130.1	
367.94	5126.1	
368.14	5732.9	
368.35	6731	
368.56	4204.5	
368.76	3800.3	
368.97	5803.3	
369.17	7520.8	
369.38	3665.2	
369.58	3898	
369.79	4906.3	
369.99	6236.7	
370.2	4956.8	
370.4	3977.8	
370.61	5527.5	
370.82	6734.4	
371.02	3948.5	
371.23	3232.4	
371.43	4770.4	
371.64	6109.1	
371.84	3876.8	
372.05	5160.2	
372.25	7450.5	
372.46	5865.4	
372.66	3929.4	
372.87	3857	
373.07	5851.7	
373.28	7451.9	
373.48	4949.3	
373.69	4611.3	
373.9	5298.8	
374.1	5325.4	
374.31	4798.4	
374.51	4381.3	
374.72	6143.2	
374.92	4997	
375.13	4979.3	
375.33	4175.1	
375.54	5769.1	
375.74	5127.4	
375.95	4227	
376.15	5490.6	
376.36	5696.1	
376.56	5512.4	
376.77	4298	
376.97	4798.4	
377.18	6820.4	
377.38	5779.4	
377.59	5083.1	
377.79	3756	
378	5548.6	
378.2	5971.9	
378.41	3824.9	
378.61	3744.4	
378.82	5995.8	
379.02	5104.9	
379.23	3969	
379.43	5125.4	
379.64	6152.8	
379.84	5802.6	
380.05	3814.7	
380.25	3715.7	
380.46	5834.7	
380.66	5401.9	
380.87	5137.7	
381.07	5593	
381.28	6474.3	
381.48	5791	
381.69	3847.5	
381.89	3869.3	
382.1	4817.5	
382.3	6055.2	
382.51	5025	
382.71	5857.2	
382.91	5859.9	
383.12	6389	
383.32	4199	
383.53	4453.6	
383.73	5722.7	
383.94	5498.1	
384.14	4315.1	
384.35	3488.4	
384.55	5414.1	
384.76	5870.2	
384.96	4208.6	
385.17	4563.6	
385.37	5869.5	
385.58	5126.7	
385.78	4543.8	
385.98	3451.5	
386.19	5394.3	
386.39	5781.4	
386.6	3931.4	
386.8	4221.5	
387.01	5871.5	
387.21	5874.9	
387.42	4679.6	
387.62	5240.8	
387.83	5202.5	
388.03	5838.1	
388.23	4173.8	
388.44	5137	
388.64	4952.7	
388.85	4981.3	
389.05	4584.7	
389.26	5227.8	
389.46	6937.8	
389.67	6251.1	
389.87	4564.2	
390.07	4758.1	
390.28	5489.2	
390.48	5076.2	
390.69	3877.5	
390.89	4150.6	
391.1	5180	
391.3	6181.5	
391.5	5309	
391.71	5917.9	
391.91	5923.4	
392.12	6969.9	
392.32	5466.7	
392.53	4597	
392.73	5324	
392.93	5471.5	
393.14	4294.6	
393.34	5005.2	
393.55	6052.4	
393.75	5524.1	
393.95	4283	
394.16	4186	
394.36	5232.6	
394.57	5993	
394.77	3805.1	
394.98	4231.8	
395.18	5168.4	
395.38	5345.9	
395.59	5093.3	
395.79	4022.9	
396	5313.8	
396.2	5808	
396.4	4847.5	
396.61	4691.2	
396.81	6025.8	
397.02	5231.2	
397.22	5009.3	
397.42	5109.7	
397.63	5959.6	
397.83	5176.6	
398.04	3908.2	
398.24	4464.6	
398.44	5751.4	
398.65	4805.2	
398.85	3814	
399.05	3898	
399.26	5104.2	
399.46	6877.8	
399.67	4286.4	
399.87	3969.6	
400.07	5550.7	
400.28	5907	
400.48	4124.6	
400.69	5156.8	
400.89	6119.3	
401.09	6562.4	
401.3	3986.7	
401.5	5119.9	
401.7	6763.1	
401.91	7099.6	
402.11	4357.4	
402.32	4603.2	
402.52	6105.7	
402.72	6060.6	
402.93	4738.3	
403.13	3658.4	
403.33	6887.3	
403.54	5614.8	
403.74	4481	
403.94	5414.1	
404.15	5657.9	
404.35	6797.2	
404.56	4229.1	
404.76	6171.9	
404.96	6118.6	
405.17	5919.3	
405.37	5547.9	
405.57	4724.7	
405.78	6128.9	
405.98	5653.8	
406.18	4252.3	
406.39	5227.8	
406.59	6210.1	
406.79	5744.6	
407	4048.2	
407.2	4203.1	
407.4	6141.9	
407.61	6356.2	
407.81	4129.4	
408.01	6176.7	
408.22	5079	
408.42	7239.6	
408.62	5196.4	
408.83	4650.3	
409.03	5713.2	
409.23	5481.7	
409.44	4734.2	
409.64	5008.6	
409.84	6589	
410.05	6499.6	
410.25	4839.4	
410.45	4630.5	
410.66	5918.6	
410.86	8486.8	
411.06	5006.6	
411.27	4896.7	
411.47	8144.1	
411.67	6176	
411.88	5168.4	
412.08	5364.3	
412.28	6724.8	
412.49	7242.3	
412.69	4823	
412.89	4932.9	
413.09	7027.3	
413.3	6817.7	
413.5	4948.6	
413.7	4555.4	
413.91	6184.2	
414.11	6984.3	
414.31	4776.5	
414.52	5180.7	
414.72	6684.6	
414.92	6584.9	
415.12	4756.1	
415.33	5335	
415.53	6979.5	
415.73	7173.4	
415.94	5763.7	
416.14	5089.2	
416.34	5896.1	
416.55	5735.7	
416.75	6270.9	
416.95	5767.8	
417.15	6936.5	
417.36	7728.4	
417.56	6481.1	
417.76	5459.2	
417.97	7288	
418.17	6959	
418.37	5158.2	
418.57	5138.4	
418.78	6715.3	
418.98	6407.4	
419.18	5991.7	
419.38	5994.4	
419.59	6507.8	
419.79	6178	
419.99	5040.7	
420.2	5455.8	
420.4	7030	
420.6	7232.7	
420.8	4984.8	
421.01	4795.7	
421.21	6815	
421.41	7023.2	
421.61	5390.9	
421.82	5020.9	
422.02	6307.7	
422.22	7229.3	
422.42	5916.6	
422.63	5573.9	
422.83	6430.6	
423.03	7719.5	
423.23	5552	
423.44	4551.3	
423.64	6567.8	
423.84	6285.9	
424.04	4948.6	
424.25	4590.9	
424.45	7492.2	
424.65	7391.1	
424.85	4451.6	
425.06	5089.2	
425.26	7437.5	
425.46	6485.9	
425.66	5572.5	
425.87	5225.7	
426.07	7329.7	
426.27	7041.6	
426.47	5352.7	
426.67	4734.2	
426.88	7640.3	
427.08	7062.8	
427.28	5645.6	
427.48	4615.4	
427.69	5852.4	
427.89	6579.4	
428.09	5612.1	
428.29	4773.1	
428.5	7310.6	
428.7	6819.7	
428.9	4622.3	
429.1	5179.3	
429.3	6649.8	
429.51	7208.8	
429.71	4947.2	
429.91	5692	
430.11	6998.6	
430.31	7117.4	
430.52	5126.7	
430.72	5522	
430.92	7562.5	
431.12	7063.4	
431.32	4926	
431.53	5366.4	
431.73	5909.1	
431.93	7660.8	
432.13	4880.3	
432.33	4777.2	
432.54	6397.2	
432.74	6761.7	
432.94	4631.1	
433.14	5775.3	
433.34	6922.1	
433.55	6418.3	
433.75	5645.6	
433.95	7337.9	
434.15	6733.7	
434.35	6377.4	
434.56	4828.4	
434.76	4311.7	
434.96	6680.5	
435.16	7027.3	
435.36	4684.4	
435.56	5827.2	
435.77	6369.2	
435.97	6565.8	
436.17	6576	
436.37	5788.2	
436.57	6268.1	
436.78	6229.2	
436.98	5804.6	
437.18	6443.6	
437.38	7002.7	
437.58	6567.2	
437.78	6454.5	
437.99	5141.8	
438.19	7043.6	
438.39	7834.2	
438.59	5022.3	
438.79	4575.8	
438.99	7735.9	
439.2	6576.7	
439.4	4713.7	
439.6	4570.4	
439.8	6849.1	
440	7946.1	
440.2	5740.5	
440.4	5885.9	
440.61	7228	
440.81	7811	
441.01	4896	
441.21	5801.9	
441.41	7595.9	
441.61	7275.8	
441.81	6158.9	
442.02	7176.1	
442.22	8164.6	
442.42	7370.6	
442.62	4866	
442.82	5055.8	
443.02	7650.5	
443.22	6732.4	
443.43	5466.7	
443.63	4992.9	
443.83	6564.4	
444.03	6683.9	
444.23	6200.6	
444.43	5832.6	
444.63	6901	
444.83	8202.1	
445.04	5020.3	
445.24	6329.6	
445.44	7346.7	
445.64	7346.1	
445.84	5944.6	
446.04	5957.5	
446.24	6667.5	
446.44	7670.3	
446.65	5061.2	
446.85	5535.7	
447.05	7060	
447.25	7615	
447.45	5554.1	
447.65	4966.3	
447.85	7012.2	
448.05	6680.5	
448.25	6032	
448.46	5808	
448.66	6969.9	
448.86	6698.2	
449.06	4755.4	
449.26	6013.5	
449.46	7365.9	
449.66	6363	
449.86	5524.7	
450.06	5489.9	
450.26	6619	
450.47	7201.3	
450.67	5750.7	
450.87	6094.8	
451.07	7303.7	
451.27	7008.8	
451.47	5046.9	
451.67	5632.6	
451.87	6661.4	
452.07	7875.1	
452.27	5284.4	
452.47	5303.6	
452.67	6971.3	
452.88	7602.7	
453.08	4611.3	
453.28	6690.7	
453.48	8200.1	
453.68	6970.6	
453.88	5122	
454.08	5509.7	
454.28	7335.1	
454.48	7020.4	
454.68	6044.2	
454.88	6489.3	
455.08	7498.3	
455.28	7215	
455.48	5100.1	
455.68	5702.2	
455.89	8018.5	
456.09	7640.3	
456.29	5365.7	
456.49	5431.9	
456.69	7815.7	
456.89	7030.7	
457.09	5975.3	
457.29	6283.2	
457.49	7371.3	
457.69	7516	
457.89	5815.5	
458.09	5229.8	
458.29	7197.2	
458.49	7890.1	
458.69	6217.6	
458.89	5629.2	
459.09	8095.6	
459.29	8299.1	
459.49	5694.7	
459.69	6632	
459.9	7665.5	
460.1	7118.1	
460.3	5640.1	
460.5	5421.7	
460.7	7631.4	
460.9	7361.8	
461.1	5113.8	
461.3	6463.4	
461.5	8315.4	
461.7	7950.2	
461.9	5497.4	
462.1	6011.5	
462.3	7350.2	
462.5	7949.5	
462.7	5569.1	
462.9	5697.4	
463.1	8997.4	
463.3	8731.9	
463.5	5864.7	
463.7	6835.4	
463.9	7559.1	
464.1	7907.2	
464.3	5936.4	
464.5	6285.9	
464.7	8178.2	
464.9	7828	
465.1	7596.6	
465.3	6527.6	
465.5	8612.4	
465.7	8502.5	
465.9	6879.1	
466.1	6701.6	
466.3	8271.1	
466.5	8130.4	
466.7	7559.1	
466.9	6410.1	
467.1	8104.5	
467.3	9070.5	
467.5	7516.7	
467.7	6394.4	
467.9	9255.5	
468.1	10194	
468.3	7206.1	
468.5	7605.5	
468.7	8066.9	
468.9	8007.6	
469.1	6662	
469.3	7367.9	
469.5	10064	
469.7	7626.6	
469.9	7130.3	
470.1	6352.1	
470.3	8073.8	
470.5	8150.9	
470.7	7705.8	
470.9	6484.6	
471.1	7909.3	
471.3	8348.9	
471.5	6340.5	
471.69	8233.5	
471.89	7760.4	
472.09	7268.9	
472.29	7180.9	
472.49	7553.6	
472.69	7448.5	
472.89	8360.5	
473.09	6281.1	
473.29	6393.8	
473.49	7659.4	
473.69	7879.9	
473.89	7307.2	
474.09	6513.2	
474.29	9112.1	
474.49	8782.4	
474.69	7318.1	
474.89	6659.3	
475.09	7922.9	
475.29	7834.2	
475.49	6133	
475.69	6339.1	
475.88	9566.1	
476.08	8148.2	
476.28	6014.9	
476.48	6516	
476.68	8624.7	
476.88	8525.7	
477.08	6346	
477.28	6626.5	
477.48	7978.2	
477.68	8675.9	
477.88	6155.5	
478.08	6471.6	
478.28	8919.6	
478.48	8062.2	
478.67	6541.2	
478.87	6042.2	
479.07	8756.4	
479.27	8325	
479.47	6771.9	
479.67	6731.7	
479.87	8589.2	
480.07	9112.8	
480.27	5971.2	
480.47	7690.8	
480.67	8273.1	
480.87	8940.1	
481.06	6337.1	
481.26	7033.4	
481.46	8144.8	
481.66	8168.7	
481.86	6770.6	
482.06	7890.1	
482.26	7871.7	
482.46	8877.9	
482.66	6763.1	
482.86	6249	
483.05	8218.5	
483.25	7609.6	
483.45	9202.9	
483.65	6661.4	
483.85	7806.9	
484.05	8112	
484.25	7208.8	
484.45	7658	
484.65	9045.9	
484.84	8974.2	
485.04	6587.6	
485.24	6677.7	
485.44	9257.5	
485.64	7600	
485.84	5840.8	
486.04	7324.2	
486.24	7971.4	
486.44	8375.5	
486.63	5890.6	
486.83	6696.2	
487.03	7861.5	
487.23	8227.4	
487.43	6037.4	
487.63	8331.8	
487.83	8166.6	
488.02	9278.7	
488.22	6950.1	
488.42	7701	
488.62	9060.9	
488.82	7897.7	
489.02	6645	
489.22	6716.7	
489.41	8923.7	
489.61	8490.2	
489.81	6406.7	
490.01	6444.3	
490.21	8819.9	
490.41	9557.9	
490.61	6358.3	
490.8	6518	
491	8295	
491.2	7665.5	
491.4	7168.6	
491.6	6285.9	
491.8	8331.8	
491.99	8589.9	
492.19	6081.1	
492.39	6472.9	
492.59	8831.5	
492.79	8940.7	
492.99	7381.6	
493.18	6406	
493.38	8953.7	
493.58	9744.2	
493.78	7208.2	
493.98	6692.8	
494.18	8734.6	
494.37	8193.2	
494.57	7456	
494.77	7338.6	
494.97	8963.3	
495.17	9260.2	
495.37	6842.9	
495.56	7194.5	
495.76	9401.5	
495.96	8942.8	
496.16	8148.9	
496.36	7065.5	
496.55	9270.5	
496.75	8758.5	
496.95	7399.3	
497.15	7289.4	
497.35	9248.6	
497.54	9120.3	
497.74	7087.3	
497.94	8822.6	
498.14	9938.1	
498.34	9753.1	
498.53	6849.8	
498.73	7604.8	
498.93	8531.2	
499.13	9093.7	
499.33	7466.2	
499.52	8101.1	
499.72	9179	
499.92	9493.7	
500.12	7101	
500.32	7380.9	
500.51	9427.5	
500.71	9256.8	
500.91	8230.8	
501.11	7851.9	
501.31	9402.9	
501.5	9803.6	
501.7	8453.3	
501.9	7447.1	
502.1	9108	
502.29	9482.8	
502.49	7850.5	
502.69	8386.4	
502.89	9359.9	
503.09	9369.5	
503.28	6879.8	
503.48	7084.6	
503.68	8577.6	
503.88	8547.5	
504.07	8058.8	
504.27	7451.2	
504.47	8968.7	
504.67	9127.8	
504.86	7948.8	
505.06	7582.3	
505.26	8662.9	
505.46	10611	
505.65	7425.9	
505.85	7718.8	
506.05	8619.2	
506.25	9118.2	
506.44	6779.5	
506.64	7735.2	
506.84	8519.5	
507.04	9475.3	
507.23	7022.5	
507.43	7582.3	
507.63	10540	
507.83	8831.5	
508.02	7584.3	
508.22	7257.3	
508.42	10804	
508.62	8565.3	
508.81	7468.3	
509.01	8091.5	
509.21	8319.5	
509.4	8715.5	
509.6	7714	
509.8	7051.8	
510	8672.5	
510.19	10190	
510.39	7011.6	
510.59	7074.4	
510.79	8487.5	
510.98	9929.2	
511.18	7120.1	
511.38	7342.7	
511.57	9399.5	
511.77	9309.4	
511.97	7950.9	
512.17	6948.1	
512.36	9346.2	
512.56	9424.1	
512.76	7101	
512.95	6818.4	
513.15	9448.6	
513.35	8048.5	
513.55	7920.9	
513.74	7083.2	
513.94	9423.4	
514.14	8757.8	
514.33	8051.2	
514.53	7854.6	
514.73	8756.4	
514.92	8940.7	
515.12	7376.8	
515.32	7118.1	
515.51	9081.4	
515.71	9672.6	
515.91	8903.9	
516.11	7200.7	
516.3	10950	
516.5	8639.7	
516.7	7733.1	
516.89	8484.7	
517.09	8871.8	
517.29	8642.4	
517.48	8129.8	
517.68	7456	
517.88	8533.9	
518.07	9209.7	
518.27	8037.6	
518.47	6956.3	
518.66	9737.4	
518.86	8358.4	
519.06	6966.5	
519.25	7355.6	
519.45	8755.7	
519.65	10223	
519.84	8033.5	
520.04	8720.9	
520.24	10734	
520.43	9409.1	
520.63	7699.7	
520.83	7443	
521.02	8665	
521.22	9210.4	
521.42	7937.2	
521.61	8609.7	
521.81	8843.1	
522.01	9065	
522.2	7859.4	
522.4	7605.5	
522.6	9570.2	
522.79	8386.4	
522.99	7781.6	
523.18	7004.7	
523.38	9336.7	
523.58	9284.8	
523.77	9121	
523.97	7114	
524.17	11226	
524.36	10502	
524.56	8491.6	
524.76	8200.7	
524.95	9262.3	
525.15	8990.6	
525.34	7872.4	
525.54	7832.1	
525.74	9731.9	
525.93	8637	
526.13	9102.5	
526.33	7869.7	
526.52	10157	
526.72	9663	
526.91	9235	
527.11	8468.4	
527.31	10186	
527.5	10547	
527.7	8344.1	
527.89	7378.8	
528.09	9000.1	
528.29	9748.3	
528.48	8809.7	
528.68	8378.9	
528.87	10111	
529.07	10086	
529.27	8349.6	
529.46	7769.3	
529.66	9712.2	
529.85	10084	
530.05	7601.4	
530.25	8404.9	
530.44	11230	
530.64	9757.9	
530.83	8050.6	
531.03	8426.7	
531.23	9999.5	
531.42	9984.5	
531.62	9276.6	
531.81	8295.6	
532.01	10243	
532.21	10907	
532.4	8181	
532.6	8472.4	
532.79	11299	
532.99	10393	
533.18	8523	
533.38	9639.8	
533.58	9877.4	
533.77	10753	
533.97	8518.2	
534.16	9357.9	
534.36	11048	
534.55	9973.6	
534.75	9572.9	
534.95	8662.2	
535.14	10798	
535.34	10078	
535.53	8241	
535.73	10279	
535.92	11442	
536.12	10158	
536.31	8408.3	
536.51	9603.6	
536.71	10490	
536.9	9971.6	
537.1	8495.7	
537.29	8649.3	
537.49	10918	
537.68	9840.5	
537.88	9131.9	
538.07	8396	
538.27	10198	
538.46	11318	
538.66	8140	
538.86	8698.4	
539.05	10298	
539.25	10788	
539.44	8923	
539.64	8568.7	
539.83	10084	
540.03	11187	
540.22	8407.6	
540.42	8578.3	
540.61	10311	
540.81	10454	
541	8994.7	
541.2	9676.7	
541.39	9845.3	
541.59	10260	
541.78	9348.3	
541.98	8406.9	
542.18	9566.1	
542.37	9574.3	
542.57	8794.7	
542.76	9431.6	
542.96	9547.6	
543.15	10333	
543.35	8829.5	
543.54	8106.5	
543.74	10693	
543.93	10103	
544.13	8721.6	
544.32	9863	
544.52	10419	
544.71	9675.3	
544.91	7798	
545.1	9101.9	
545.3	9752.4	
545.49	10495	
545.69	7762.5	
545.88	8463.6	
546.08	11331	
546.27	10993	
546.47	8943.5	
546.66	8202.8	
546.86	10700	
547.05	11300	
547.24	8443.8	
547.44	8355.7	
547.63	9596.1	
547.83	10826	
548.02	8747.6	
548.22	8921.6	
548.41	9326.4	
548.61	10782	
548.8	8278.6	
549	8182.3	
549.19	10060	
549.39	10334	
549.58	7866.9	
549.78	8557.8	
549.97	10444	
550.17	9838.4	
550.36	9407.7	
550.55	10494	
550.75	9940.2	
550.94	10755	
551.14	8142.7	
551.33	8521.6	
551.53	9192	
551.72	10233	
551.92	8553.7	
552.11	8224.6	
552.31	10238	
552.5	10273	
552.69	9972.2	
552.89	7849.2	
553.08	10248	
553.28	9839.8	
553.47	8393.9	
553.67	9483.5	
553.86	10929	
554.06	9113.5	
554.25	7494.2	
554.44	8060.1	
554.64	11756	
554.83	11086	
555.03	7988.4	
555.22	8417.2	
555.42	10469	
555.61	10107	
555.8	8268.3	
556	8555.7	
556.19	9246.6	
556.39	10570	
556.58	8376.9	
556.78	8238.3	
556.97	10029	
557.16	9729.9	
557.36	9637.7	
557.55	7993.9	
557.75	8967.4	
557.94	10779	
558.13	8034.9	
558.33	7710.6	
558.52	10531	
558.72	9480.7	
558.91	7875.1	
559.1	8155.7	
559.3	9109.4	
559.49	8834.3	
559.69	7482.6	
559.88	8492.9	
560.07	9985.2	
560.27	10421	
560.46	8677.2	
560.66	8894.3	
560.85	9679.4	
561.04	9013.8	
561.24	7955.7	
561.43	8008.9	
561.63	9224.1	
561.82	9471.9	
562.01	9349.7	
562.21	8361.9	
562.4	9958.6	
562.59	10934	
562.79	8167.3	
562.98	7920.2	
563.18	9886.2	
563.37	11416	
563.56	8751.7	
563.76	7780.2	
563.95	9297.1	
564.14	9172.9	
564.34	8206.2	
564.53	7927.7	
564.73	9859.6	
564.92	10258	
565.11	8441.7	
565.31	7634.1	
565.5	10420	
565.69	9361.9	
565.89	7956.4	
566.08	8171.4	
566.27	10257	
566.47	10762	
566.66	8853.4	
566.85	7499.7	
567.05	9802.3	
567.24	9184.5	
567.44	7866.2	
567.63	9346.2	
567.82	10091	
568.02	9841.9	
568.21	7843.7	
568.4	8278.6	
568.6	9727.2	
568.79	9680.7	
568.98	7650.5	
569.18	7887.4	
569.37	9753.8	
569.56	11840	
569.76	8176.2	
569.95	9256.8	
570.14	10070	
570.34	9961.3	
570.53	7628.7	
570.72	7634.8	
570.91	10475	
571.11	9628.9	
571.3	8141.4	
571.49	9159.9	
571.69	9695.1	
571.88	9176.3	
572.07	8657.4	
572.27	8766	
572.46	9145.5	
572.65	10258	
572.85	7933.1	
573.04	8301.1	
573.23	10449	
573.43	9740.1	
573.62	7609.6	
573.81	8382.3	
574	9805	
574.2	9499.8	
574.39	8046.5	
574.58	8261.5	
574.78	10671	
574.97	9927.2	
575.16	8600.1	
575.36	8826.7	
575.55	10164	
575.74	10352	
575.93	7685.3	
576.13	8832.2	
576.32	9527.2	
576.51	10283	
576.71	8112.7	
576.9	9489.6	
577.09	10570	
577.28	10052	
577.48	8628.1	
577.67	7678.5	
577.86	9731.3	
578.05	9945.6	
578.25	8195.3	
578.44	8381.7	
578.63	9793.4	
578.83	11032	
579.02	7641	
579.21	9209	
579.4	10030	
579.6	9618.6	
579.79	8553.7	
579.98	10705	
580.17	10400	
580.37	10494	
580.56	7869	
580.75	8721.6	
580.94	10863	
581.14	10819	
581.33	9179.7	
581.52	8003.5	
581.71	10287	
581.91	11049	
582.1	7729	
582.29	8369.4	
582.48	9896.5	
582.68	9804.3	
582.87	8880	
583.06	8489.5	
583.25	10120	
583.45	9518.3	
583.64	9150.3	
583.83	9912.2	
584.02	9729.2	
584.21	10178	
584.41	9065.7	
584.6	8372.8	
584.79	9865.1	
584.98	10602	
585.18	7896.3	
585.37	7861.5	
585.56	9405.6	
585.75	10276	
585.94	8085.4	
586.14	8794	
586.33	10765	
586.52	9824.8	
586.71	8578.3	
586.91	8349.6	
587.1	9234.3	
587.29	10294	
587.48	8169.3	
587.67	8092.2	
587.87	10055	
588.06	10161	
588.25	9415.9	
588.44	8725.7	
588.63	9688.3	
588.83	10254	
589.02	8054	
589.21	7927.7	
589.4	9323	
589.59	9157.8	
589.78	6995.9	
589.98	7277.1	
590.17	8770.1	
590.36	9373.6	
590.55	6699.6	
590.74	7535.2	
590.94	10689	
591.13	9224.7	
591.32	7350.8	
591.51	6774.7	
591.7	9692.4	
591.89	9175.6	
592.09	7011.6	
592.28	7524.9	
592.47	8333.2	
592.66	10215	
592.85	6959.7	
593.05	7193.1	
593.24	8992.6	
593.43	9843.9	
593.62	7212.9	
593.81	7820.5	
594	9129.2	
594.19	9313.5	
594.39	7255.3	
594.58	7152.9	
594.77	9353.1	
594.96	10041	
595.15	7046.4	
595.34	7791.8	
595.54	9439.8	
595.73	8497.7	
595.92	6431.3	
596.11	7608.2	
596.3	9992	
596.49	8574.2	
596.68	7385.7	
596.88	7832.8	
597.07	9613.8	
597.26	8406.9	
597.45	6915.3	
597.64	8099.7	
597.83	8767.4	
598.02	9352.4	
598.22	7088	
598.41	7746.1	
598.6	9105.3	
598.79	8551.6	
598.98	7066.9	
599.17	8127	
599.36	9126.4	
599.55	10444	
599.74	9209	
599.94	8920.3	
600.13	9762	
600.32	8543.4	
600.51	6793.1	
600.7	6982.2	
600.89	10364	
601.08	10406	
601.27	6754.9	
601.47	7860.1	
601.66	9663	
601.85	10245	
602.04	7460.1	
602.23	7832.1	
602.42	8632.2	
602.61	9323	
602.8	7473.7	
602.99	7187.7	
603.18	9129.8	
603.37	9239.8	
603.57	7966.6	
603.76	8466.3	
603.95	10124	
604.14	9611.8	
604.33	7292.1	
604.52	7538.6	
604.71	9338.1	
604.9	8867.7	
605.09	8133.8	
605.28	8004.1	
605.47	9850.7	
605.66	9580.4	
605.86	7907.2	
606.05	7174	
606.24	9895.1	
606.43	8450.6	
606.62	7542	
606.81	8516.8	
607	9595.4	
607.19	9037	
607.38	7055.9	
607.57	7293.5	
607.76	8764.6	
607.95	8245.8	
608.14	7764.5	
608.33	8230.8	
608.52	8810.4	
608.72	9742.2	
608.91	6901.7	
609.1	6837.5	
609.29	8841.1	
609.48	8373.5	
609.67	7783.6	
609.86	6791.1	
610.05	8458.8	
610.24	8754.4	
610.43	6767.2	
610.62	6430.6	
610.81	9965.4	
611	9677.3	
611.19	6903	
611.38	7561.8	
611.57	9173.5	
611.76	10504	
611.95	6668.2	
612.14	6546.7	
612.33	8895.7	
612.52	8346.2	
612.71	7265.5	
612.9	6427.2	
613.09	8071.7	
613.28	10573	
613.47	6959	
613.66	7931.1	
613.85	9025.4	
614.04	8535.9	
614.24	7078.5	
614.43	6262.7	
614.62	9087.5	
614.81	8970.1	
615	7623.9	
615.19	7669	
615.38	8466.3	
615.57	8731.2	
615.76	7549.5	
615.95	8431.5	
616.14	9160.6	
616.33	8710.7	
616.52	7758.4	
616.71	8129.8	
616.9	9161.9	
617.09	8938.7	
617.28	7021.8	
617.47	8411	
617.66	8217.1	
617.85	8245.1	
618.04	8054	
618.22	7501	
618.41	8630.1	
618.6	9468.4	
618.79	7370	
618.98	7088.7	
619.17	9886.9	
619.36	8127.7	
619.55	7208.8	
619.74	7334.5	
619.93	9073.2	
620.12	8442.4	
620.31	7823.2	
620.5	8095.6	
620.69	9684.2	
620.88	10109	
621.07	8789.9	
621.26	7772	
621.45	9314.2	
621.64	9207.7	
621.83	7877.2	
622.02	7032	
622.21	9258.2	
622.4	9097.8	
622.59	8313.4	
622.78	8104.5	
622.97	8740.7	
623.16	9662.3	
623.35	7825.3	
623.54	6937.2	
623.72	8861.6	
623.91	9007	
624.1	8102.4	
624.29	6713.9	
624.48	10148	
624.67	9315.5	
624.86	7963.9	
625.05	6974.7	
625.24	10232	
625.43	8526.4	
625.62	9723.8	
625.81	7172	
626	9587.9	
626.19	8933.9	
626.38	7993.9	
626.56	7367.9	
626.75	8700.5	
626.94	9502.6	
627.13	7866.9	
627.32	6577.4	
627.51	9337.4	
627.7	10807	
627.89	6779.5	
628.08	7984.3	
628.27	8457.4	
628.46	8768.7	
628.65	7116.7	
628.83	6657.9	
629.02	9329.9	
629.21	8512	
629.4	7544.7	
629.59	7784.3	
629.78	8514.8	
629.97	9532.6	
630.16	7817.8	
630.35	7209.5	
630.54	9979.8	
630.72	9690.3	
630.91	7220.5	
631.1	7808.9	
631.29	9175.6	
631.48	9319.6	
631.67	7952.3	
631.86	7339.9	
632.05	8755.7	
632.24	8749.6	
632.42	6998.6	
632.61	7635.5	
632.8	8880	
632.99	8550.3	
633.18	7656.7	
633.37	8055.3	
633.56	9164.7	
633.75	8953	
633.93	7617.8	
634.12	7206.1	
634.31	9947.7	
634.5	9538.1	
634.69	7362.4	
634.88	7828	
635.07	8882.7	
635.25	9523.7	
635.44	8350.3	
635.63	8538.7	
635.82	8715.5	
636.01	8217.1	
636.2	8189.1	
636.39	7674.4	
636.57	9878.7	
636.76	9588.6	
636.95	7103.7	
637.14	8644.5	
637.33	9200.2	
637.52	10230	
637.7	6882.5	
637.89	7879.2	
638.08	8729.1	
638.27	10277	
638.46	7944.8	
638.65	8365.3	
638.83	10228	
639.02	8567.3	
639.21	7870.3	
639.4	8326.4	
639.59	9050.7	
639.78	8690.9	
639.96	7101	
640.15	7114.6	
640.34	8938.7	
640.53	9108.7	
640.72	6797.9	
640.91	7123.5	
641.09	8333.9	
641.28	9721.7	
641.47	7129	
641.66	8015.7	
641.85	8968.1	
642.03	9366	
642.22	7727	
642.41	7211.6	
642.6	8452	
642.79	7817.1	
642.97	7038.2	
643.16	7676.5	
643.35	8287.4	
643.54	8176.2	
643.73	6901	
643.91	7677.2	
644.1	8013	
644.29	8693.6	
644.48	7014.3	
644.67	6944	
644.85	8236.2	
645.04	8504.5	
645.23	6509.8	
645.42	6806.1	
645.6	8044.4	
645.79	9216.5	
645.98	6745.3	
646.17	5789.6	
646.36	7742.7	
646.54	8271.1	
646.73	7591.8	
646.92	6318	
647.11	7901.7	
647.29	9041.1	
647.48	6388.3	
647.67	6195.1	
647.86	9229.5	
648.05	9291	
648.23	6711.2	
648.42	8092.9	
648.61	8649.3	
648.8	8363.9	
648.98	6324.8	
649.17	6733	
649.36	7936.6	
649.55	7404.8	
649.73	6492.1	
649.92	7178.8	
650.11	7792.5	
650.3	8178.9	
650.48	6573.3	
650.67	6360.3	
650.86	8427.4	
651.05	7311.9	
651.23	6475	
651.42	6390.3	
651.61	7902.4	
651.79	8032.1	
651.98	6732.4	
652.17	6277.7	
652.36	8352.3	
652.54	7395.2	
652.73	6330.3	
652.92	6172.6	
653.11	8445.8	
653.29	8460.8	
653.48	5606	
653.67	6649.8	
653.85	8170	
654.04	9138	
654.23	6862.7	
654.42	6329.6	
654.6	7662.8	
654.79	8277.2	
654.98	5828.5	
655.16	6384.9	
655.35	7194.5	
655.54	7148.1	
655.73	5963.7	
655.91	5870.2	
656.1	8322.9	
656.29	7164.5	
656.47	5421.7	
656.66	7220.5	
656.85	7439.6	
657.03	7507.9	
657.22	6032.6	
657.41	6046.3	
657.59	7555.6	
657.78	7379.5	
657.97	5713.8	
658.16	6513.2	
658.34	8238.3	
658.53	8591.2	
658.72	7374.1	
658.9	7871	
659.09	7628.7	
659.28	7744.1	
659.46	6128.2	
659.65	6141.2	
659.84	7428.7	
660.02	7929.7	
660.21	5964.4	
660.4	6040.8	
660.58	8389.8	
660.77	7769.3	
660.96	6603.3	
661.14	5631.2	
661.33	8975.6	
661.52	8815.8	
661.7	5532.2	
661.89	9441.8	
662.08	7348.1	
662.26	6927.6	
662.45	5797.8	
662.64	6027.9	
662.82	8034.2	
663.01	7228	
663.2	5999.9	
663.38	6796.5	
663.57	8002.1	
663.75	7815	
663.94	6337.8	
664.13	7490.1	
664.31	7280.5	
664.5	8110	
664.69	6700.3	
664.87	7171.3	
665.06	7102.4	
665.25	7822.6	
665.43	7388.4	
665.62	7447.1	
665.8	8159.8	
665.99	7505.1	
666.18	6255.9	
666.36	6429.3	
666.55	8086.7	
666.74	8069.7	
666.92	5880.4	
667.11	7573.4	
667.29	7419.8	
667.48	8036.9	
667.67	7147.4	
667.85	6267.5	
668.04	7524.2	
668.22	7473.7	
668.41	6374	
668.6	6578.8	
668.78	7252.5	
668.97	7535.2	
669.15	6677.7	
669.34	5722.7	
669.53	7307.8	
669.71	7625.3	
669.9	5921.4	
670.08	6477.7	
670.27	7262.8	
670.46	7865.6	
670.64	6753.5	
670.83	6913.9	
671.01	7187.7	
671.2	7825.3	
671.38	5899.5	
671.57	5758.2	
671.76	8509.3	
671.94	9060.9	
672.13	5711.1	
672.31	6890	
672.5	8032.8	
672.69	7314.7	
672.87	5953.4	
673.06	6251.1	
673.24	7796.6	
673.43	7303.7	
673.61	6669.6	
673.8	6148	
673.98	8060.1	
674.17	8192.6	
674.36	6824.5	
674.54	6606.1	
674.73	7780.9	
674.91	8094.9	
675.1	6358.3	
675.28	5976.7	
675.47	7545.4	
675.65	8115.4	
675.84	6240.2	
676.03	6539.2	
676.21	7331.7	
676.4	6818.4	
676.58	7133.1	
676.77	6781.5	
676.95	8788.5	
677.14	7232.7	
677.32	5868.1	
677.51	5693.4	
677.69	8108.6	
677.88	6907.1	
678.06	5733.6	
678.25	5864	
678.44	7576.1	
678.62	7240.3	
678.81	5541.8	
678.99	6627.9	
679.18	8342.7	
679.36	7958.4	
679.55	6184.2	
679.73	6840.2	
679.92	7898.3	
680.1	7288.7	
680.29	7449.8	
680.47	6167.8	
680.66	7202.7	
680.84	8064.9	
681.03	5388.9	
681.21	6711.2	
681.4	7257.3	
681.58	7197.9	
681.77	5903.6	
681.95	5797.1	
682.14	8146.1	
682.32	8494.3	
682.51	6892.1	
682.69	5597.8	
682.88	7222.5	
683.06	7834.8	
683.25	6530.3	
683.43	6983.6	
683.62	7427.3	
683.8	7911.3	
683.99	7068.9	
684.17	6356.9	
684.36	8727.8	
684.54	7286.7	
684.73	5449.6	
684.91	5667.4	
685.1	7598.6	
685.28	7000	
685.46	6249.7	
685.65	6279.8	
685.83	7845.8	
686.02	7260	
686.2	5689.9	
686.39	5791	
686.57	6802.7	
686.76	8544.8	
686.94	5739.1	
687.13	5905	
687.31	7774.1	
687.5	7271.7	
687.68	5335	
687.86	6710.5	
688.05	9079.3	
688.23	6769.2	
688.42	6766.5	
688.6	5828.5	
688.79	7175.4	
688.97	7156.3	
689.16	6301.6	
689.34	5145.2	
689.52	7990.5	
689.71	8177.5	
689.89	6516.6	
690.08	5873.6	
690.26	7530.4	
690.45	7359.7	
690.63	6754.2	
690.81	5952.8	
691	7202	
691.18	7126.2	
691.37	6141.9	
691.55	8385.1	
691.74	7010.9	
691.92	9140.8	
692.1	6213.5	
692.29	5546.6	
692.47	7318.1	
692.66	6612.2	
692.84	5819.6	
693.02	6491.4	
693.21	6784.2	
693.39	7328.3	
693.58	6519.4	
693.76	5997.8	
693.94	8670.4	
694.13	8399.4	
694.31	6044.9	
694.5	7080.5	
694.68	7227.3	
694.86	7580.2	
695.05	6357.6	
695.23	6840.2	
695.42	8006.2	
695.6	10294	
695.78	7003.4	
695.97	6134.3	
696.15	8095.6	
696.34	7337.2	
696.52	5846.3	
696.7	6749.4	
696.89	7747.5	
697.07	7160.4	
697.25	6614.9	
697.44	8200.7	
697.62	7679.9	
697.81	8106.5	
697.99	6318	
698.17	6795.2	
698.36	7066.9	
698.54	7799.3	
698.72	6603.3	
698.91	5595.7	
699.09	7282.6	
699.28	7201.3	
699.46	6285.9	
699.64	6197.8	
699.83	7141.9	
700.01	8477.2	
700.19	7026.6	
700.38	5421	
700.56	8478.6	
700.74	7363.8	
700.93	5877	
701.11	6773.3	
701.29	7932.5	
701.48	9074.5	
701.66	6114.6	
701.84	6189.6	
702.03	7497.6	
702.21	8206.9	
702.39	5681.7	
702.58	6401.3	
702.76	7871	
702.94	8052.6	
703.13	5737.7	
703.31	8301.1	
703.49	7161.1	
703.68	8458.8	
703.86	5937.7	
704.04	7012.9	
704.23	7823.9	
704.41	8185	
704.59	6071.5	
704.78	7436.9	
704.96	8882.7	
705.14	8270.4	
705.33	5933.6	
705.51	6799.3	
705.69	7707.9	
705.87	8540	
706.06	7171.3	
706.24	5946.6	
706.42	8007.6	
706.61	8270.4	
706.79	7221.8	
706.97	6040.1	
707.16	7528.3	
707.34	8100.4	
707.52	7106.5	
707.7	6310.5	
707.89	7531.1	
708.07	7311.9	
708.25	7210.2	
708.44	7226.6	
708.62	7615.7	
708.8	8736.6	
708.98	7407.5	
709.17	6291.4	
709.35	8037.6	
709.53	7970	
709.72	6073.6	
709.9	6195.8	
710.08	8232.8	
710.26	8284	
710.45	7711.3	
710.63	6442.9	
710.81	7883.3	
710.99	7995.3	
711.18	6972	
711.36	6548	
711.54	7742	
711.72	8543.4	
711.91	6625.9	
712.09	5956.2	
712.27	7906.5	
712.45	8772.1	
712.64	6842.3	
712.82	5778.7	
713	7230.7	
713.18	7415.7	
713.37	5766.4	
713.55	7030	
713.73	8210.3	
713.91	6733.7	
714.1	6129.6	
714.28	5532.9	
714.46	7694.9	
714.64	6931	
714.83	4910.3	
715.01	5747.3	
715.19	6942.6	
715.37	6245.6	
715.55	5367.7	
715.74	5704.3	
715.92	7933.1	
716.1	5873.6	
716.28	6813.6	
716.47	5829.2	
716.65	6541.2	
716.83	6703	
717.01	5750	
717.19	5769.8	
717.38	8822.6	
717.56	6350.1	
717.74	6014.9	
717.92	5184.1	
718.1	7703.8	
718.29	6918	
718.47	4930.1	
718.65	5675.6	
718.83	7668.3	
719.01	7586.4	
719.2	4791.6	
719.38	5974.6	
719.56	7318.8	
719.74	8907.3	
719.92	5457.8	
720.11	6569.9	
720.29	7368.6	
720.47	6391.7	
720.65	4982	
720.83	5854.5	
721.02	6698.9	
721.2	6425.2	
721.38	5909.1	
721.56	5112.4	
721.74	5903.6	
721.92	6206	
722.11	6426.5	
722.29	6077.7	
722.47	7464.2	
722.65	6639.5	
722.83	5129.5	
723.01	6094.1	
723.2	6604.7	
723.38	7012.9	
723.56	4616.1	
723.74	5771.9	
723.92	6146	
724.1	7376.1	
724.29	5087.8	
724.47	6335.7	
724.65	6285.2	
724.83	6149.4	
725.01	4965.6	
725.19	5935	
725.37	6206.7	
725.56	6328.9	
725.74	4866	
725.92	5104.9	
726.1	6137.1	
726.28	6523.5	
726.46	5552.7	
726.64	5252.4	
726.83	6468.2	
727.01	6704.4	
727.19	4823.6	
727.37	5667.4	
727.55	6602	
727.73	7201.3	
727.91	4820.9	
728.09	4645.5	
728.28	7199.3	
728.46	7845.8	
728.64	5941.2	
728.82	5842.2	
729	8382.3	
729.18	7649.2	
729.36	5081	
729.54	7482.6	
729.72	8757.8	
729.91	6920.1	
730.09	7091.4	
730.27	5856.5	
730.45	6873	
730.63	7518.8	
730.81	6462.7	
730.99	5498.1	
731.17	8084.7	
731.35	6664.1	
731.53	6032	
731.71	5653.8	
731.9	7815	
732.08	7997.3	
732.26	5890	
732.44	5560.2	
732.62	7987.8	
732.8	7588.4	
732.98	6309.8	
733.16	5354.8	
733.34	7596.6	
733.52	6252.4	
733.7	5894.1	
733.88	6219	
734.07	7294.9	
734.25	7068.2	
734.43	5348.6	
734.61	7030.7	
734.79	8692.3	
734.97	7021.8	
735.15	5522	
735.33	5825.1	
735.51	7396.6	
735.69	7071	
735.87	7075.7	
736.05	6072.2	
736.23	7170.6	
736.41	6977.4	
736.59	5862.7	
736.77	6047	
736.95	7671.7	
737.13	7169.3	
737.32	5649	
737.5	5801.9	
737.68	8196.7	
737.86	7018.4	
738.04	5364.3	
738.22	7359	
738.4	6832.7	
738.58	7074.4	
738.76	6057.2	
738.94	4969.1	
739.12	6942.6	
739.3	6801.3	
739.48	6745.3	
739.66	6459.3	
739.84	7255.3	
740.02	7204.8	
740.2	5122	
740.38	5441.5	
740.56	7633.5	
740.74	6421.1	
740.92	6123.4	
741.1	6047.7	
741.28	7025.9	
741.46	6875.7	
741.64	5698.1	
741.82	6232.7	
742	7045	
742.18	6999.3	
742.36	5836	
742.54	5464.7	
742.72	7626.6	
742.9	6307.1	
743.08	6349.4	
743.26	5020.9	
743.44	7838.3	
743.62	7716.7	
743.8	6526.9	
743.98	5492	
744.16	7376.1	
744.34	7049.8	
744.52	6318.7	
744.7	6306.4	
744.88	7392.5	
745.06	7025.9	
745.24	6271.6	
745.42	6421.7	
745.6	7539.9	
745.78	7264.1	
745.96	5081	
746.14	5427.8	
746.32	8401.5	
746.5	7511.3	
746.68	6075	
746.86	5496.1	
747.03	7993.9	
747.21	6267.5	
747.39	6023.1	
747.57	5436	
747.75	7129.7	
747.93	7531.7	
748.11	5498.8	
748.29	5328.1	
748.47	8727.1	
748.65	6802	
748.83	6139.1	
749.01	5894.1	
749.19	7423.9	
749.37	6477	
749.55	5711.1	
749.73	5883.1	
749.91	6993.1	
750.09	6703.7	
750.26	5856.5	
750.44	5309	
750.62	7090.1	
750.8	6972	
750.98	5094	
751.16	5463.3	
751.34	7072.3	
751.52	6393.8	
751.7	6294.8	
751.88	5133.6	
752.06	7614.3	
752.24	7340.6	
752.42	5066	
752.59	5446.9	
752.77	7019.1	
752.95	8252.6	
753.13	6247.7	
753.31	5530.9	
753.49	6673	
753.67	7159.7	
753.85	5835.3	
754.03	5384.1	
754.21	7335.8	
754.38	7768.6	
754.56	5595.1	
754.74	4530.8	
754.92	6466.1	
755.1	7180.2	
755.28	4407.9	
755.46	4410	
755.64	7832.1	
755.82	7812.3	
755.99	4449.6	
756.17	4558.8	
756.35	5121.3	
756.53	6745.3	
756.71	3326.6	
756.89	4370.4	
757.07	6290	
757.25	5362.3	
757.42	4953.4	
757.6	5961.6	
757.78	6499.6	
757.96	5466.7	
758.14	4658.4	
758.32	4218.8	
758.5	5008.6	
758.67	5808.7	
758.85	4491.2	
759.03	4578.6	
759.21	6002.6	
759.39	5451.7	
759.57	4041.3	
759.75	5320.6	
759.92	6658.6	
760.1	5952.8	
760.28	5679.7	
760.46	6021.7	
760.64	5707.7	
760.82	5526.1	
760.99	5617.6	
761.17	4698.7	
761.35	6621.1	
761.53	5624.4	
761.71	4978.6	
761.89	5659.2	
762.06	6624.5	
762.24	6090	
762.42	5090.6	
762.6	4792.2	
762.78	6139.1	
762.96	6855.2	
763.13	5539.1	
763.31	5180.7	
763.49	7051.2	
763.67	6139.1	
763.85	6070.9	
764.02	6683.9	
764.2	7281.2	
764.38	6453.8	
764.56	5068	
764.74	5958.2	
764.91	7469.6	
765.09	6324.8	
765.27	4752.7	
765.45	4534.9	
765.63	7417.7	
765.8	7370.6	
765.98	4249.5	
766.16	4605.2	
766.34	5831.2	
766.52	5694	
766.69	5606.7	
766.87	4446.8	
767.05	6227.2	
767.23	7033.4	
767.41	4754.7	
767.58	4992.9	
767.76	6778.8	
767.94	6859.3	
768.12	4829.1	
768.29	5659.9	
768.47	6281.8	
768.65	7053.9	
768.83	4407.2	
769	5687.9	
769.18	5823.7	
769.36	6585.6	
769.54	5435.3	
769.72	4500.8	
769.89	6812.9	
770.07	7011.6	
770.25	4773.8	
770.43	6151.4	
770.6	7622.5	
770.78	7950.2	
770.96	4943.1	
771.14	5600.5	
771.31	6692.8	
771.49	6018.3	
771.67	4042	
771.85	4321.9	
772.02	5288.5	
772.2	6074.3	
772.38	5017.5	
772.55	4700.1	
772.73	6285.2	
772.91	6081.8	
773.09	4902.2	
773.26	5033.2	
773.44	6165.8	
773.62	5935.7	
773.8	4448.9	
773.97	4193.6	
774.15	6307.1	
774.33	5933	
774.5	4291.9	
774.68	4681.7	
774.86	6503	
775.04	5962.3	
775.21	4351.9	
775.39	4349.9	
775.57	6270.2	
775.74	6632.7	
775.92	4252.9	
776.1	4079.6	
776.27	6193.7	
776.45	7451.2	
776.63	4356.7	
776.81	3910.3	
776.98	5818.3	
777.16	6927.6	
777.34	4511.7	
777.51	4847.5	
777.69	5804.6	
777.87	5581.4	
778.04	4534.2	
778.22	5167	
778.4	5543.2	
778.57	6249	
778.75	3762.1	
778.93	4063.9	
779.1	5378	
779.28	5265.3	
779.46	3758.7	
779.64	4347.2	
779.81	6391	
779.99	7331	
780.17	5094.7	
780.34	5251.7	
780.52	5805.3	
780.69	6034	
780.87	4591.5	
781.05	4141.7	
781.22	5877.7	
781.4	5965.7	
781.58	4261.1	
781.75	3457.7	
781.93	5899.5	
782.11	5221.6	
782.28	5228.5	
782.46	4220.9	
782.64	5070.1	
782.81	6158.9	
782.99	4402.5	
783.17	4307.6	
783.34	5902.9	
783.52	5141.8	
783.69	4506.2	
783.87	5393.7	
784.05	5274.2	
784.22	5225.1	
784.4	5285.1	
784.58	4624.3	
784.75	6237.4	
784.93	5166.3	
785.1	4233.8	
785.28	4910.3	
785.46	5833.3	
785.63	5218.9	
785.81	4152.6	
785.99	4036.5	
786.16	5349.3	
786.34	5773.2	
786.51	4076.1	
786.69	4508.9	
786.87	4949.3	
787.04	5487.2	
787.22	3886.4	
787.39	4941.1	
787.57	5187.5	
787.75	6368.5	
787.92	5066	
788.1	5057.8	
788.27	5285.8	
788.45	4959.5	
788.63	4833.2	
788.8	3442	
788.98	5786.9	
789.15	4899.4	
789.33	3573.7	
789.5	4255.7	
789.68	6176.7	
789.86	6322.8	
790.03	4713.1	
790.21	4159.4	
790.38	6126.2	
790.56	5317.2	
790.73	3946.4	
790.91	3985.3	
791.09	5197.1	
791.26	5988.9	
791.44	4202.4	
791.61	3644	
791.79	5134.9	
791.96	5297.4	
792.14	3796.9	
792.32	3330.7	
792.49	5199.1	
792.67	5316.5	
792.84	3831.1	
793.02	3633.1	
793.19	5656.5	
793.37	6417	
793.54	3321.1	
793.72	3683.6	
793.89	6530.3	
794.07	5218.9	
794.25	4359.4	
794.42	3386.7	
794.6	6295.5	
794.77	5943.2	
794.95	4600.4	
795.12	3977.2	
795.3	5156.1	
795.47	5839.4	
795.65	4388.1	
795.82	4270.7	
796	4981.3	
796.17	6987	
796.35	4127.3	
796.52	4810	
796.7	5743.9	
796.87	5771.9	
797.05	5016.2	
797.22	5012.7	
797.4	5751.4	
797.57	6875.7	
797.75	4193.6	
797.92	3947.8	
798.1	6100.2	
798.27	5134.3	
798.45	3377.1	
798.62	3633.8	
798.8	5470.8	
798.97	6032.6	
799.15	4485.7	
799.32	4272.1	
799.5	4712.4	
799.67	5540.4	
799.85	4604.5	
800.02	3343	
800.2	5115.8	
800.37	5455.1	
800.55	4760.2	
800.72	3936.9	
800.9	5948	
801.07	6395.8	
801.25	5294	
801.42	4340.3	
801.6	5998.5	
801.77	5657.2	
801.95	3888.4	
802.12	3872.7	
802.29	5668.8	
802.47	5687.2	
802.64	4313.7	
802.82	3269.9	
802.99	5115.8	
803.17	6204.7	
803.34	4176.5	
803.52	3760.1	
803.69	6792.4	
803.87	4840.7	
804.04	4169	
804.21	4271.4	
804.39	6285.2	
804.56	5314.5	
804.74	3565.5	
804.91	4368.3	
805.09	5124	
805.26	5223.7	
805.44	3615.3	
805.61	3994.2	
805.78	5788.2	
805.96	5872.9	
806.13	4330.8	
806.31	4760.8	
806.48	4690.5	
806.66	5227.8	
806.83	4341	
807	4215.4	
807.18	5129.5	
807.35	5489.9	
807.53	4231.8	
807.7	3334.1	
807.87	6338.5	
808.05	5162.2	
808.22	4661.9	
808.4	3407.1	
808.57	5218.2	
808.74	4762.2	
808.92	3855	
809.09	4928.8	
809.27	4992.3	
809.44	5707	
809.61	3366.2	
809.79	3775.1	
809.96	6325.5	
810.14	5947.3	
810.31	3320.4	
810.48	4025.6	
810.66	5229.8	
810.83	5973.9	
811.01	3887	
811.18	4631.8	
811.35	5926.8	
811.53	4576.5	
811.7	4678.2	
811.87	4337.6	
812.05	5169.8	
812.22	5055.8	
812.39	3696.6	
812.57	3609.2	
812.74	5143.8	
812.92	6905.1	
813.09	4030.4	
813.26	4519.2	
813.44	6597.9	
813.61	5025	
813.78	3367.5	
813.96	4585.4	
814.13	5168.4	
814.3	4838	
814.48	4878.9	
814.65	4032.5	
814.82	6470.2	
815	4902.8	
815.17	4121.9	
815.34	5106.3	
815.52	5064.6	
815.69	5131.5	
815.87	4137.6	
816.04	3589.4	
816.21	5194.3	
816.38	4553.3	
816.56	3981.9	
816.73	3784	
816.9	6509.1	
817.08	5908.4	
817.25	3682.2	
817.42	4699.4	
817.6	4730.1	
817.77	5195	
817.94	4305.5	
818.12	3646.7	
818.29	4932.2	
818.46	7787.7	
818.64	3878.2	
818.81	3588	
818.98	4812.7	
819.16	7000.6	
819.33	4478.9	
819.5	4139.6	
819.67	5554.8	
819.85	6164.4	
820.02	4081.6	
820.19	4382.7	
820.37	5314.5	
820.54	4911.7	
820.71	4248.9	
820.88	5250.3	
821.06	5362.3	
821.23	4904.2	
821.4	4287.8	
821.58	4173.8	
821.75	5912.5	
821.92	5302.9	
822.09	3452.9	
822.27	3716.4	
822.44	5204.6	
822.61	5083.1	
822.79	3423.5	
822.96	6614.9	
823.13	5677	
823.3	4888.5	
823.48	3995.6	
823.65	3560.1	
823.82	5928.9	
823.99	4685.8	
824.17	5011.4	
824.34	3614	
824.51	6847	
824.68	5224.4	
824.86	3803.8	
825.03	4224.3	
825.2	5141.1	
825.37	6368.5	
825.55	3728.7	
825.72	4155.3	
825.89	6901.7	
826.06	6376.7	
826.24	4095.9	
826.41	4114.4	
826.58	6323.4	
826.75	5469.4	
826.92	3272.7	
827.1	3551.9	
827.27	8645.2	
827.44	6832	
827.61	3890.5	
827.79	4657.8	
827.96	4845.5	
828.13	5283.1	
828.3	4037.9	
828.47	3385.3	
828.65	5409.4	
828.82	5294.7	
828.99	5282.4	
829.16	4625	
829.34	5833.3	
829.51	5496.1	
829.68	4178.5	
829.85	4364.2	
830.02	6027.2	
830.2	5782.1	
830.37	3226.2	
830.54	5089.9	
830.71	6611.5	
830.88	5152.7	
831.05	3297.2	
831.23	3762.1	
831.4	6334.4	
831.57	7092.8	
831.74	3876.1	
831.91	3377.1	
832.09	5387.5	
832.26	5763.7	
832.43	4014	
832.6	4542.4	
832.77	5377.3	
832.94	6229.2	
833.12	3204.4	
833.29	3957.4	
833.46	5085.8	
833.63	7395.2	
833.8	4356.7	
833.97	4046.1	
834.15	5833.3	
834.32	5552.7	
834.49	4166.3	
834.66	4250.9	
834.83	5946.6	
835	4853	
835.17	3859.7	
835.35	3877.5	
835.52	5671.5	
835.69	5525.4	
835.86	4093.2	
836.03	3389.4	
836.2	5721.3	
836.37	5324.7	
836.55	4009.2	
836.72	3718.4	
836.89	5319.9	
837.06	5800.5	
837.23	4111	
837.4	4558.1	
837.57	6667.5	
837.75	7381.6	
837.92	3654.9	
838.09	3880.2	
838.26	5326.8	
838.43	6123.4	
838.6	4227	
838.77	3786.7	
838.94	6991.8	
839.11	6664.1	
839.29	4047.5	
839.46	3119.1	
839.63	5688.6	
839.8	5499.5	
839.97	3911.6	
840.14	3870	
840.31	5572.5	
840.48	5797.1	
840.65	3240.6	
840.82	3840.6	
841	5720.7	
841.17	5754.8	
841.34	3616.7	
841.51	3651.5	
841.68	5694.7	
841.85	5447.6	
842.02	3737.5	
842.19	3096.5	
842.36	5517.9	
842.53	5504.3	
842.7	3620.8	
842.87	4358.1	
843.05	7263.5	
843.22	5493.3	
843.39	3391.4	
843.56	3635.1	
843.73	5225.7	
843.9	5856.5	
844.07	5825.1	
844.24	4852.3	
844.41	8513.4	
844.58	4960.2	
844.75	3463.8	
844.92	3815.4	
845.09	5765	
845.26	5746.6	
845.43	3575.1	
845.6	3728	
845.77	5758.9	
845.94	5478.3	
846.12	3977.8	
846.29	4181.3	
846.46	5952.1	
846.63	5773.9	
846.8	3570.3	
846.97	4222.9	
847.14	6221.7	
847.31	5685.2	
847.48	4053.6	
847.65	4403.1	
847.82	6053.8	
847.99	6017.6	
848.16	4784.1	
848.33	4423.6	
848.5	5309	
848.67	6253.1	
848.84	3548.4	
849.01	3663.1	
849.18	5156.1	
849.35	4875.5	
849.52	4456.4	
849.69	3543.7	
849.86	5956.2	
850.03	6201.9	
850.2	3547.1	
850.37	4351.9	
850.54	6090	
850.71	5375.9	
850.88	4261.1	
851.05	3526.6	
851.22	5653.8	
851.39	6368.5	
851.56	3360.7	
851.73	4098.7	
851.9	4990.9	
852.07	6042.2	
852.24	3960.8	
852.41	3573.7	
852.58	5594.4	
852.75	5172.5	
852.92	4000.4	
853.09	3486.3	
853.26	5394.3	
853.43	6202.6	
853.6	3568.9	
853.77	3047.4	
853.94	6291.4	
854.11	5036.6	
854.28	5316.5	
854.44	3822.2	
854.61	6763.1	
854.78	5874.3	
854.95	3557.3	
855.12	4458.4	
855.29	4659.1	
855.46	6357.6	
855.63	3520.5	
855.8	4953.4	
855.97	5326.8	
856.14	6043.6	
856.31	5117.2	
856.48	3855	
856.65	5279	
856.82	4979.3	
856.99	3403	
857.16	3856.3	
857.33	6988.4	
857.49	5423.7	
857.66	3856.3	
857.83	4117.8	
858	5346.6	
858.17	5520	
858.34	3359.4	
858.51	3570.3	
858.68	6482.5	
858.85	6524.8	
859.02	4188.1	
859.19	4405.9	
859.36	5039.4	
859.52	5074.2	
859.69	3589.4	
859.86	4210.6	
860.03	5049.6	
860.2	6301.6	
860.37	3246.7	
860.54	3601.7	
860.71	5959.6	
860.88	6431.3	
861.05	3992.2	
861.21	4465.9	
861.38	6443.6	
861.55	4939	
861.72	3222.1	
861.89	4025.6	
862.06	6072.9	
862.23	6536.4	
862.4	3429	
862.56	3738.9	
862.73	5872.2	
862.9	5539.8	
863.07	4165.6	
863.24	3194.8	
863.41	4890.5	
863.58	5085.1	
863.75	3665.2	
863.91	4144.4	
864.08	6392.4	
864.25	5886.5	
864.42	4457.1	
864.59	5067.4	
864.76	6733.7	
864.93	5067.4	
865.09	3439.9	
865.26	3833.8	
865.43	6281.8	
865.6	6617.7	
865.77	3089	
865.94	3568.9	
866.1	6357.6	
866.27	6057.9	
866.44	5383.4	
866.61	3349.8	
866.78	5529.5	
866.95	5900.9	
867.11	3446	
867.28	3142.9	
867.45	6058.6	
867.62	5188.2	
867.79	4209.3	
867.96	3548.4	
868.12	5043.5	
868.29	6028.5	
868.46	3046.7	
868.63	4782	
868.8	6238.1	
868.97	5907	
869.13	3742.3	
869.3	3719.1	
869.47	5883.8	
869.64	6108.4	
869.81	3593.5	
869.97	3541.6	
870.14	5794.4	
870.31	6481.1	
870.48	3472	
870.65	4493.9	
870.81	5364.3	
870.98	5297.4	
871.15	4079.6	
871.32	3734.8	
871.48	5840.1	
871.65	6418.3	
871.82	3521.1	
871.99	3908.2	
872.16	6917.4	
872.32	6272.2	
872.49	3639.9	
872.66	3592.1	
872.83	5978.7	
872.99	5201.2	
873.16	4120.5	
873.33	3519.8	
873.5	5601.9	
873.67	5659.9	
873.83	3749.8	
874	4712.4	
874.17	5765	
874.34	6909.8	
874.5	4554.7	
874.67	4501.4	
874.84	6394.4	
875.01	5003.9	
875.17	5002.5	
875.34	3586	
875.51	5700.9	
875.68	6848.4	
875.84	4311.7	
876.01	5210.7	
876.18	5991.7	
876.34	5874.9	
876.51	3556.6	
876.68	3474	
876.85	5454.4	
877.01	6219.7	
877.18	5120.6	
877.35	3572.3	
877.52	5520	
877.68	4948.6	
877.85	3459.7	
878.02	3506.1	
878.18	5509	
878.35	5216.9	
878.52	2856.9	
878.69	3934.1	
878.85	6006	
879.02	5899.5	
879.19	5147.2	
879.35	3870	
879.52	5986.9	
879.69	6137.1	
879.86	3130.7	
880.02	3955.3	
880.19	5495.4	
880.36	6683.9	
880.52	4073.4	
880.69	4272.7	
880.86	6139.1	
881.02	6128.2	
881.19	3951.9	
881.36	3846.8	
881.52	5943.9	
881.69	5236.7	
881.86	3847.5	
882.02	3758	
882.19	6247.7	
882.36	7266.9	
882.52	3676.1	
882.69	5032.5	
882.86	5763	
883.02	5584.1	
883.19	4328.7	
883.36	4106.9	
883.52	6051.7	
883.69	6998.6	
883.86	3613.3	
884.02	3248.1	
884.19	6020.3	
884.36	5552	
884.52	4036.5	
884.69	3748.5	
884.86	5254.4	
885.02	6622.4	
885.19	3969	
885.36	4105.5	
885.52	5556.8	
885.69	5707.7	
885.86	5196.4	
886.02	4515.8	
886.19	5986.2	
886.35	5421.7	
886.52	3921.9	
886.69	4953.4	
886.85	5040.7	
887.02	6414.2	
887.19	6414.2	
887.35	6414.2	
887.52	6414.2	
887.68	6414.2	
887.85	6414.2	
888.02	6414.2	
888.18	6414.2	
888.35	6414.2	
888.51	6414.2	
888.68	6414.2	
888.85	6414.2	
889.01	6414.2	
889.18	6414.2	
889.35	6414.2	
889.51	6414.2	
889.68	6414.2	
889.84	6414.2	
890.01	6414.2	
890.17	6414.2	
890.34	6414.2	
890.51	6414.2	
890.67	6414.2	
890.84	6414.2	
891	6414.2	
891.17	6414.2	
891.34	6414.2	
891.5	6414.2	
891.67	6414.2	
891.83	6414.2	
892	6414.2	
892.16	6414.2	
892.33	6414.2	
892.5	6414.2	
892.66	6414.2	
892.83	6414.2	
892.99	6414.2	
893.16	6414.2	
893.32	6414.2	
893.49	6414.2	
893.65	6414.2	
893.82	6414.2	
893.99	6414.2	
894.15	6414.2	
894.32	6414.2	
894.48	6414.2	
894.65	6414.2	
894.81	6414.2	
894.98	6414.2	
895.14	6414.2	
895.31	6414.2	
895.47	6414.2	
895.64	6414.2	
895.81	6414.2	
895.97	6414.2	
896.14	6414.2	
896.3	6414.2	
896.47	6414.2	
896.63	6414.2	
896.8	6414.2	
896.96	6414.2	
897.13	6414.2	
897.29	6414.2	
897.46	6414.2	
897.62	6414.2	
897.79	6414.2	
897.95	6414.2	
898.12	6414.2	
898.28	6414.2	
898.45	6414.2	
898.61	6414.2	
898.78	6414.2	
898.94	6414.2	
899.11	6414.2	
899.27	6414.2	
899.44	6414.2	
899.6	6414.2	
899.77	6414.2	
899.93	6414.2	
900.1	6414.2	
900.26	6414.2	
900.43	6414.2	
900.59	6414.2	
900.76	6414.2	
900.92	6414.2	
901.09	6414.2	
901.25	6414.2	
901.42	6414.2	
901.58	6414.2	
901.75	6414.2	
901.91	6414.2	
902.07	6414.2	
902.24	6414.2	
902.4	6414.2	
902.57	6414.2	
902.73	6414.2	
902.9	6414.2	
903.06	6414.2	
903.23	6414.2	
903.39	6414.2	
903.56	6414.2	
903.72	6414.2	
903.88	6414.2	
904.05	6414.2	
904.21	6414.2	
904.38	6414.2	
904.54	6414.2	
904.71	6414.2	
904.87	6414.2	
905.03	6414.2	
905.2	6414.2	
905.36	6414.2	
905.53	6414.2	
905.69	6414.2	
905.86	6414.2	
906.02	6414.2	
906.18	6414.2	
906.35	6414.2	
906.51	6414.2	
906.68	6414.2	
906.84	6414.2	
907.01	6414.2	
907.17	6414.2	
907.33	6414.2	
907.5	6414.2	
907.66	6414.2	
907.83	6414.2	
907.99	6414.2	
908.15	6414.2	
908.32	6414.2	
908.48	6414.2	
908.65	6414.2	
908.81	6414.2	
908.97	6414.2	
909.14	6414.2	
909.3	6414.2	
909.47	6414.2	
909.63	6414.2	
909.79	6414.2	
909.96	6414.2	
910.12	6414.2	
910.28	6414.2	
910.45	6414.2	
910.61	6414.2	
910.78	6414.2	
910.94	6414.2	
911.1	6414.2	
911.27	6414.2	
911.43	6414.2	
911.59	6414.2	
911.76	6414.2	
911.92	6414.2	
912.08	6414.2	
912.25	6414.2	
912.41	6414.2	
912.57	6414.2	
912.74	6414.2	
912.9	6414.2	
913.07	6414.2	
913.23	6414.2	
913.39	6414.2	
913.56	6414.2	
913.72	6414.2	
913.88	6414.2	
914.05	6414.2	
914.21	6414.2	
914.37	6414.2	
914.54	6414.2	
914.7	6414.2	
914.86	6414.2	
915.03	6414.2	
915.19	6414.2	
