Wavelength	Intensities	
nm	a.u.	
179.22	1671.7	
179.44	1663.3	
179.65	1680	
179.86	1646.6	
180.08	1647.9	
180.29	3775.1	
180.51	2923.1	
180.72	4799.1	
180.94	5440.8	
181.15	2667.8	
181.37	2602.3	
181.58	4693.3	
181.79	4851	
182.01	2752.5	
182.22	2865.1	
182.44	4873.5	
182.65	4244.8	
182.87	3460.4	
183.08	3092.4	
183.29	5116.5	
183.51	4293.9	
183.72	2867.2	
183.94	3972.4	
184.15	4597	
184.37	4579.9	
184.58	2583.9	
184.79	3284.3	
185.01	4384.7	
185.22	4973.2	
185.44	3478.1	
185.65	3041.9	
185.86	4683.7	
186.08	4256.4	
186.29	2512.2	
186.51	2708.1	
186.72	4359.4	
186.94	4971.1	
187.15	3082.2	
187.36	3132	
187.58	6122.1	
187.79	4700.8	
188.01	3190.1	
188.22	4732.2	
188.43	5461.2	
188.65	4856.4	
188.86	2721.1	
189.08	3109.5	
189.29	4472.1	
189.5	4412.7	
189.72	2935.4	
189.93	2939.5	
190.15	5013.4	
190.36	5744.6	
190.57	3087.7	
190.79	3046.7	
191	4988.2	
191.22	4968.4	
191.43	3221.5	
191.64	2713.6	
191.86	5186.1	
192.07	4959.5	
192.29	2761.3	
192.5	2887.6	
192.71	4973.8	
192.93	4429.8	
193.14	2849.4	
193.35	2990	
193.57	4418.2	
193.78	4953.4	
194	2398.2	
194.21	2818	
194.42	4262.5	
194.64	4640	
194.85	3100.6	
195.07	3560.1	
195.28	4553.3	
195.49	4119.8	
195.71	3693.9	
195.92	2729.9	
196.13	4773.8	
196.35	4747.9	
196.56	3928.7	
196.78	3101.3	
196.99	5770.5	
197.2	5317.9	
197.42	3465.8	
197.63	3158	
197.84	4230.4	
198.06	4764.3	
198.27	2882.9	
198.48	3675.4	
198.7	4456.4	
198.91	4620.2	
199.13	3133.4	
199.34	3161.4	
199.55	4956.8	
199.77	4055.7	
199.98	2781.1	
200.19	3190.7	
200.41	4532.8	
200.62	4345.8	
200.83	3226.9	
201.05	3463.1	
201.26	4625.7	
201.47	4380.6	
201.69	2835.1	
201.9	2710.1	
202.11	4601.8	
202.33	5207.3	
202.54	2981.8	
202.76	3275.4	
202.97	4674.1	
203.18	4731.5	
203.4	3197.6	
203.61	3211.2	
203.82	4676.2	
204.04	4407.2	
204.25	3196.9	
204.46	3025.5	
204.68	4629.8	
204.89	4747.2	
205.1	3104	
205.32	2746.3	
205.53	4818.9	
205.74	4975.9	
205.96	2452.8	
206.17	3186	
206.38	4810.7	
206.6	4966.3	
206.81	3489.7	
207.02	2939.5	
207.24	4764.3	
207.45	5029.8	
207.66	3050.8	
207.88	2671.9	
208.09	4766.3	
208.3	4614.8	
208.52	2772.9	
208.73	3060.3	
208.94	4579.3	
209.15	5068.7	
209.37	2985.9	
209.58	3154.6	
209.79	5016.8	
210.01	4491.2	
210.22	2560	
210.43	2624.1	
210.65	4560.1	
210.86	4821.6	
211.07	2990.7	
211.29	2747	
211.5	4786.1	
211.71	4554.7	
211.93	2775.7	
212.14	2781.8	
212.35	4541.7	
212.56	4625.7	
212.78	3145	
212.99	2645.3	
213.2	5219.6	
213.42	4424.3	
213.63	2883.5	
213.84	3014.6	
214.06	4226.3	
214.27	4267.3	
214.48	2983.9	
214.69	3165.5	
214.91	5113.8	
215.12	5096.7	
215.33	3207.8	
215.55	3410.6	
215.76	5473.5	
215.97	4833.9	
216.18	3091.8	
216.4	3031	
216.61	4366.3	
216.82	4928.8	
217.04	2853.5	
217.25	2917.7	
217.46	5029.8	
217.67	4866	
217.89	2576.3	
218.1	2663	
218.31	4648.9	
218.53	4786.8	
218.74	2966.8	
218.95	2809.8	
219.16	4576.5	
219.38	5246.9	
219.59	2811.2	
219.8	3266.5	
220.01	5602.6	
220.23	4606.6	
220.44	3512.3	
220.65	2778.4	
220.87	4637.3	
221.08	5070.8	
221.29	2647.3	
221.5	3321.1	
221.72	5840.8	
221.93	4382.7	
222.14	3134.8	
222.35	3614	
222.57	4593.6	
222.78	4923.3	
222.99	3055.6	
223.2	3139.5	
223.42	4810.7	
223.63	4853.7	
223.84	2441.2	
224.05	2430.3	
224.27	5464	
224.48	5097.4	
224.69	3656.3	
224.9	3122.5	
225.12	4726	
225.33	4557.4	
225.54	2630.3	
225.75	2831	
225.97	4307.6	
226.18	4519.2	
226.39	3037.1	
226.6	2831.7	
226.82	4464.6	
227.03	4310.3	
227.24	3144.3	
227.45	2693.1	
227.67	4964.3	
227.88	5158.8	
228.09	3450.8	
228.3	3410.6	
228.52	4863.9	
228.73	4571.1	
228.94	2937.5	
229.15	2657.6	
229.36	4568.3	
229.58	4539.7	
229.79	2975	
230	3397.6	
230.21	5326.1	
230.43	4648.9	
230.64	3108.1	
230.85	3191.4	
231.06	4945.2	
231.28	4894.6	
231.49	2704.7	
231.7	3091.1	
231.91	4838.7	
232.12	4628.4	
232.34	2749.1	
232.55	2994.8	
232.76	5037.3	
232.97	4663.2	
233.18	2865.1	
233.4	3138.9	
233.61	4745.8	
233.82	4449.6	
234.03	2958.6	
234.25	2961.4	
234.46	6036	
234.67	4617.5	
234.88	3218.7	
235.09	2871.9	
235.31	4728.8	
235.52	4516.5	
235.73	3132.7	
235.94	2712.9	
236.15	4424.3	
236.37	5399.8	
236.58	2811.9	
236.79	3013.9	
237	4794.3	
237.21	4265.2	
237.43	3162.1	
237.64	2639.1	
237.85	7316	
238.06	4316.4	
238.27	3169.6	
238.48	2714.2	
238.7	4871.4	
238.91	4512.4	
239.12	2985.3	
239.33	3083.6	
239.54	4345.8	
239.76	4513	
239.97	3002.3	
240.18	3005.1	
240.39	5397.1	
240.6	4725.3	
240.82	3186	
241.03	2623.4	
241.24	4560.1	
241.45	5126.1	
241.66	2777	
241.87	3248.8	
242.09	5135.6	
242.3	5352	
242.51	3263.1	
242.72	2996.9	
242.93	4915.1	
243.14	4606.6	
243.36	3402.4	
243.57	3609.9	
243.78	5173.2	
243.99	4841.4	
244.2	2982.5	
244.41	2717.7	
244.63	4276.2	
244.84	4751.3	
245.05	3207.1	
245.26	2975.7	
245.47	4803.9	
245.68	4874.2	
245.9	3872.7	
246.11	3169.6	
246.32	4460.5	
246.53	4784.1	
246.74	4614.8	
246.95	2583.9	
247.16	4340.3	
247.38	4582	
247.59	2594.8	
247.8	3048.7	
248.01	4287.8	
248.22	4573.8	
248.43	2820.1	
248.64	3007.1	
248.86	4255	
249.07	4446.8	
249.28	2751.8	
249.49	3130.7	
249.7	4935.6	
249.91	4989.5	
250.12	2594.8	
250.34	2728.6	
250.55	4657.8	
250.76	4638	
250.97	3192.8	
251.18	3140.9	
251.39	4976.6	
251.6	4673.5	
251.81	3183.2	
252.03	3123.2	
252.24	4458.4	
252.45	4922	
252.66	2704.7	
252.87	3218	
253.08	4622.9	
253.29	5700.9	
253.5	2723.1	
253.72	3577.1	
253.93	4530.8	
254.14	5314.5	
254.35	2908.1	
254.56	2964.8	
254.77	4683	
254.98	4333.5	
255.19	2892.4	
255.41	3532.7	
255.62	4751.3	
255.83	4997	
256.04	3252.2	
256.25	3072.6	
256.46	5395	
256.67	4386.1	
256.88	3146.4	
257.09	3379.1	
257.31	4295.3	
257.52	4321.9	
257.73	3783.3	
257.94	2906.1	
258.15	4574.5	
258.36	4527.4	
258.57	3567.6	
258.78	2379.7	
258.99	4909.7	
259.2	4429.8	
259.41	2917	
259.63	3018.7	
259.84	5095.3	
260.05	5345.2	
260.26	3650.8	
260.47	2862.4	
260.68	5004.6	
260.89	4519.2	
261.1	3373.7	
261.31	2837.8	
261.52	5115.1	
261.73	5184.8	
261.95	3643.3	
262.16	3182.5	
262.37	5115.1	
262.58	5156.8	
262.79	3596.2	
263	2932.7	
263.21	4698.7	
263.42	4191.5	
263.63	3130.7	
263.84	2904	
264.05	4960.9	
264.26	5254.4	
264.47	3541.6	
264.69	3095.8	
264.9	5139	
265.11	4749.9	
265.32	2799.6	
265.53	2846	
265.74	4668	
265.95	4136.9	
266.16	3080.1	
266.37	3307.5	
266.58	4702.8	
266.79	4406.5	
267	2897.9	
267.21	2722.4	
267.42	4259.1	
267.63	4613.4	
267.84	2994.1	
268.06	2695.1	
268.27	4909	
268.48	5019.6	
268.69	3012.6	
268.9	3398.3	
269.11	5113.1	
269.32	4199.7	
269.53	3006.4	
269.74	2812.5	
269.95	4737.6	
270.16	4173.1	
270.37	3031.7	
270.58	3431.7	
270.79	4495.3	
271	4958.1	
271.21	3172.3	
271.42	3059	
271.63	4797.7	
271.84	4222.2	
272.05	2545.6	
272.26	2785.2	
272.47	4601.1	
272.68	4700.1	
272.89	2953.9	
273.11	3270.6	
273.32	4412.7	
273.53	5212.1	
273.74	3243.3	
273.95	3140.9	
274.16	4879.6	
274.37	4579.9	
274.58	3350.5	
274.79	2736.1	
275	4729.4	
275.21	4913.8	
275.42	3866.6	
275.63	3322.5	
275.84	4801.1	
276.05	5726.1	
276.26	3123.8	
276.47	2961.4	
276.68	4547.2	
276.89	5303.6	
277.1	3417.4	
277.31	2690.3	
277.52	4758.8	
277.73	4970.4	
277.94	2643.9	
278.15	2978.4	
278.36	4756.1	
278.57	4377.2	
278.78	2934.1	
278.99	3234.4	
279.2	4444.8	
279.41	4350.6	
279.62	3659.7	
279.83	2795.5	
280.04	5420.3	
280.25	4383.3	
280.46	3665.2	
280.67	3074	
280.88	4332.1	
281.09	5030.5	
281.3	3203.7	
281.51	3862.5	
281.72	4384.7	
281.93	4897.4	
282.14	2838.5	
282.35	3111.5	
282.56	5015.5	
282.77	4907.6	
282.98	2903.3	
283.19	3485	
283.4	5840.8	
283.61	4578.6	
283.82	2749.7	
284.03	3680.2	
284.24	4738.3	
284.45	5005.2	
284.66	3642	
284.87	3507.5	
285.08	5007.3	
285.29	5085.1	
285.5	2742.9	
285.71	2961.4	
285.92	4939	
286.12	5470.1	
286.33	3621.5	
286.54	3013.9	
286.75	4959.5	
286.96	4528.1	
287.17	2775	
287.38	3460.4	
287.59	4407.2	
287.8	4420.9	
288.01	2960.7	
288.22	3342.3	
288.43	4863.2	
288.64	4235.9	
288.85	3451.5	
289.06	3349.8	
289.27	4911.7	
289.48	5194.3	
289.69	3663.1	
289.9	3291.8	
290.11	5111.7	
290.32	4418.2	
290.53	3454.2	
290.74	3234.4	
290.94	4885.1	
291.15	5005.9	
291.36	2875.3	
291.57	3325.9	
291.78	4481.6	
291.99	4168.3	
292.2	2770.9	
292.41	3235.8	
292.62	5003.9	
292.83	4806.6	
293.04	3902.1	
293.25	2882.9	
293.46	4517.8	
293.67	4993.6	
293.88	2845.3	
294.09	2761.3	
294.29	4327.4	
294.5	4679.6	
294.71	3100.6	
294.92	2868.5	
295.13	4464.6	
295.34	5358.2	
295.55	2620.7	
295.76	2714.9	
295.97	4911	
296.18	5332.9	
296.39	2730.6	
296.6	2919	
296.81	4678.2	
297.01	4942.4	
297.22	2926.5	
297.43	2902	
297.64	4437.9	
297.85	4326	
298.06	2517	
298.27	2616.6	
298.48	4534.9	
298.69	4420.2	
298.9	3045.3	
299.11	2784.6	
299.31	4291.9	
299.52	4300.7	
299.73	3235.1	
299.94	3196.9	
300.15	4663.2	
300.36	4356.7	
300.57	3224.9	
300.78	3164.8	
300.99	4512.4	
301.2	4669.4	
301.4	2871.3	
301.61	3093.1	
301.82	4869.4	
302.03	4872.1	
302.24	3356.6	
302.45	2745	
302.66	4819.6	
302.87	4965.6	
303.08	2898.6	
303.29	3764.8	
303.49	4479.6	
303.7	4568.3	
303.91	2587.9	
304.12	3618.1	
304.33	4262.5	
304.54	4683	
304.75	2914.9	
304.96	2790	
305.16	4823.6	
305.37	5298.1	
305.58	2577.7	
305.79	2663.7	
306	4863.2	
306.21	4179.9	
306.42	2909.5	
306.63	4178.5	
306.83	4472.8	
307.04	4945.2	
307.25	3089.7	
307.46	3052.8	
307.67	4117.1	
307.88	4820.2	
308.09	2868.5	
308.29	2860.3	
308.5	4650.9	
308.71	4984.1	
308.92	3021.4	
309.13	2786.6	
309.34	4630.5	
309.55	4520.5	
309.75	3510.2	
309.96	3145	
310.17	4887.8	
310.38	4369	
310.59	3377.1	
310.8	2751.1	
311.01	4474.1	
311.21	4482.3	
311.42	2813.2	
311.63	2854.9	
311.84	4459.8	
312.05	4646.2	
312.26	3166.8	
312.46	3397.6	
312.67	4505.5	
312.88	4201.1	
313.09	2777	
313.3	2755.9	
313.51	5172.5	
313.71	5378	
313.92	2817.3	
314.13	2930.6	
314.34	4752.7	
314.55	4528.1	
314.76	3407.1	
314.96	3099.9	
315.17	4721.3	
315.38	4764.9	
315.59	2809.1	
315.8	2676	
316.01	5109.7	
316.21	5219.6	
316.42	2735.4	
316.63	3090.4	
316.84	4561.5	
317.05	4985.4	
317.26	3242.6	
317.46	2919	
317.67	4579.3	
317.88	4863.9	
318.09	3398.3	
318.3	2664.4	
318.5	4466.6	
318.71	4771.1	
318.92	4235.2	
319.13	3187.3	
319.34	4927.4	
319.54	5042.8	
319.75	2618.7	
319.96	2567.5	
320.17	4790.2	
320.38	5013.4	
320.58	2583.9	
320.79	2992.8	
321	5041.4	
321.21	5052.3	
321.42	3024.2	
321.62	2619.4	
321.83	4418.8	
322.04	4655.7	
322.25	2994.8	
322.46	2822.8	
322.66	4713.7	
322.87	4889.2	
323.08	3325.9	
323.29	2717	
323.5	5325.4	
323.7	4315.1	
323.91	3716.4	
324.12	3274.7	
324.33	4721.3	
324.53	4834.6	
324.74	3223.5	
324.95	3383.9	
325.16	4255	
325.37	4498	
325.57	2803.7	
325.78	2872.6	
325.99	4721.9	
326.2	4238.6	
326.4	3887.7	
326.61	2619.4	
326.82	4533.5	
327.03	4730.8	
327.24	3788.7	
327.44	3558	
327.65	4835.3	
327.86	4053.6	
328.07	3215.3	
328.27	2733.4	
328.48	5104.2	
328.69	4327.4	
328.9	3753.9	
329.1	2944.3	
329.31	4580.6	
329.52	5087.2	
329.73	2827.6	
329.93	3011.9	
330.14	4653	
330.35	4741.7	
330.56	4275.5	
330.76	3346.4	
330.97	4504.8	
331.18	4693.3	
331.39	3080.1	
331.59	2554.5	
331.8	5027.1	
332.01	5067.4	
332.22	2907.4	
332.42	3173	
332.63	4706.9	
332.84	4375.8	
333.05	3084.2	
333.25	2805.7	
333.46	4483	
333.67	4604.5	
333.88	2939.5	
334.08	3131.3	
334.29	5807.4	
334.5	5013.4	
334.7	2803	
334.91	3709.6	
335.12	4242.7	
335.33	4833.2	
335.53	3078.8	
335.74	4278.9	
335.95	4554.7	
336.16	4263.9	
336.36	3061	
336.57	3479.5	
336.78	4234.5	
336.98	4980.7	
337.19	3680.9	
337.4	2990	
337.61	5415.5	
337.81	4278.9	
338.02	2837.1	
338.23	3527.3	
338.43	5148.6	
338.64	4374.5	
338.85	2843.9	
339.05	3555.3	
339.26	5240.8	
339.47	4223.6	
339.68	2841.9	
339.88	3897.3	
340.09	4810.7	
340.3	5014.1	
340.5	3222.1	
340.71	2603	
340.92	4296.6	
341.13	5042.1	
341.33	2709.5	
341.54	3246.7	
341.75	4750.6	
341.95	4474.1	
342.16	3136.1	
342.37	3317	
342.57	4283.7	
342.78	4545.1	
342.99	3419.4	
343.19	2597.5	
343.4	4911	
343.61	4709	
343.81	3007.1	
344.02	2740.2	
344.23	4853.7	
344.43	5078.3	
344.64	3371.6	
344.85	3320.4	
345.06	4740.4	
345.26	5018.9	
345.47	3191.4	
345.68	3587.4	
345.88	4201.1	
346.09	4930.1	
346.3	3246	
346.5	2498.5	
346.71	4532.2	
346.92	4451.6	
347.12	2622.8	
347.33	3168.2	
347.54	4922	
347.74	5233.9	
347.95	3169.6	
348.16	2495.1	
348.36	4399.7	
348.57	4346.5	
348.78	3207.1	
348.98	3315.7	
349.19	4560.1	
349.39	4167.6	
349.6	2646	
349.81	2851.5	
350.01	4849.6	
350.22	4367	
350.43	3109.5	
350.63	3540.9	
350.84	4618.9	
351.05	4399	
351.25	2821.4	
351.46	2652.8	
351.67	4919.2	
351.87	4335.5	
352.08	2971.6	
352.29	3355.3	
352.49	4926.7	
352.7	4683.7	
352.9	2708.8	
353.11	3336.8	
353.32	5344.5	
353.52	4471.4	
353.73	2730.6	
353.94	3349.1	
354.14	4865.3	
354.35	4554.7	
354.55	2817.3	
354.76	3088.3	
354.97	4815.5	
355.17	4569	
355.38	2762.7	
355.59	3462.4	
355.79	4366.3	
356	4570.4	
356.2	3050.1	
356.41	2791.4	
356.62	4211.3	
356.82	4524	
357.03	3235.1	
357.24	2951.1	
357.44	4355.3	
357.65	4420.9	
357.85	3792.2	
358.06	3156.6	
358.27	4182.6	
358.47	4298	
358.68	2722.4	
358.88	3203	
359.09	4745.8	
359.3	4985.4	
359.5	3721.2	
359.71	3336.1	
359.91	5269.4	
360.12	4779.3	
360.33	3287	
360.53	3579.2	
360.74	4369	
360.94	4425.7	
361.15	3396.2	
361.36	2890.4	
361.56	4922	
361.77	4549.9	
361.97	3702.7	
362.18	3023.5	
362.38	4949.9	
362.59	4283.7	
362.8	2813.9	
363	2745.6	
363.21	4122.6	
363.41	4628.4	
363.62	3171.6	
363.83	3827.7	
364.03	4742.4	
364.24	5218.2	
364.44	3940.3	
364.65	3899.3	
364.85	4573.8	
365.06	4354.7	
365.27	2930	
365.47	2951.8	
365.68	5165.7	
365.88	4456.4	
366.09	3202.3	
366.29	2962.7	
366.5	4628.4	
366.71	4962.2	
366.91	3874.8	
367.12	3349.1	
367.32	5365.7	
367.53	4863.2	
367.73	3314.3	
367.94	3997	
368.14	4898.7	
368.35	5340.4	
368.56	3300	
368.76	3119.1	
368.97	4956.1	
369.17	6010.8	
369.38	2951.1	
369.58	3142.9	
369.79	4211.3	
369.99	5205.3	
370.2	3835.8	
370.4	3188.7	
370.61	4636.6	
370.82	5638.7	
371.02	3141.6	
371.23	2629.6	
371.43	4189.5	
371.64	5150.6	
371.84	3123.2	
372.05	3891.8	
372.25	5937.1	
372.46	4781.3	
372.66	3166.2	
372.87	3117	
373.07	4922.6	
373.28	6044.9	
373.48	3799.7	
373.69	3585.3	
373.9	4572.4	
374.1	4584.7	
374.31	3772.4	
374.51	3509.5	
374.72	5117.9	
374.92	4346.5	
375.13	3855	
375.33	3322.5	
375.54	4807.3	
375.74	4455	
375.95	3411.9	
376.15	4280.3	
376.36	4872.1	
376.56	4762.9	
376.77	3452.2	
376.97	3670.6	
377.18	5646.2	
377.38	4956.1	
377.59	3906.2	
377.79	3140.2	
378	4803.9	
378.2	5020.9	
378.41	3156.6	
378.61	3099.9	
378.82	5148.6	
379.02	4535.6	
379.23	3237.2	
379.43	3973.1	
379.64	5246.2	
379.84	4934.9	
380.05	3142.3	
380.25	3037.8	
380.46	5001.8	
380.66	4716.5	
380.87	4042.7	
381.07	4270	
381.28	5399.1	
381.48	4957.4	
381.69	3146.4	
381.89	3231.7	
382.1	4240	
382.3	5010.7	
382.51	3859.7	
382.71	4490.5	
382.91	4840	
383.12	5279	
383.32	3359.4	
383.53	3543.7	
383.73	4830.5	
383.94	4723.3	
384.14	3584.6	
384.35	2877.4	
384.55	4666	
384.76	4934.9	
384.96	3426.3	
385.17	3592.1	
385.37	4991.6	
385.58	4369.7	
385.78	3556	
385.98	2843.3	
386.19	4578.6	
386.39	4873.5	
386.6	3197.6	
386.8	3399.6	
387.01	4904.9	
387.21	5016.2	
387.42	3668.6	
387.62	4083.6	
387.83	4584.7	
388.03	4868.7	
388.23	3450.8	
388.44	3984.7	
388.64	4276.8	
388.85	4373.1	
389.05	3657	
389.26	4060.4	
389.46	5621	
389.67	5294.7	
389.87	3696.6	
390.07	3775.8	
390.28	4705.5	
390.48	4453.6	
390.69	3173.7	
390.89	3387.3	
391.1	4586.8	
391.3	5114.5	
391.5	4244.1	
391.71	4532.2	
391.91	5119.9	
392.12	5663.3	
392.32	4174.4	
392.53	3681.6	
392.73	4734.2	
392.93	4743.1	
393.14	3460.4	
393.34	4045.4	
393.55	5024.3	
393.75	4734.2	
393.95	3474.7	
394.16	3370.3	
394.36	4637.3	
394.57	5062.6	
394.77	3203.7	
394.98	3350.5	
395.18	4569	
395.38	4632.5	
395.59	4045.4	
395.79	3306.1	
396	4700.1	
396.2	5038	
396.4	3997.6	
396.61	3811.3	
396.81	5113.1	
397.02	4564.9	
397.22	4078.9	
397.42	4069.3	
397.63	5119.2	
397.83	4628.4	
398.04	3297.9	
398.24	3624.9	
398.44	4958.1	
398.65	4253.6	
398.85	3150.5	
399.05	3271.3	
399.26	4584	
399.46	5744.6	
399.67	3493.8	
399.87	3368.9	
400.07	4914.4	
400.28	5143.1	
400.48	3376.4	
400.69	4111.6	
400.89	5233.9	
401.09	5570.5	
401.3	3362.1	
401.5	4113	
401.7	5690.6	
401.91	5876.3	
402.11	3612.6	
402.32	3742.3	
402.52	5302.9	
402.72	5203.2	
402.93	3895.2	
403.13	3099.9	
403.33	5815.5	
403.54	4879.6	
403.74	3692.5	
403.94	4262.5	
404.15	4991.6	
404.35	5767.8	
404.56	3549.8	
404.76	4729.4	
404.96	5247.6	
405.17	5074.2	
405.37	4326	
405.57	3889.1	
405.78	5313.1	
405.98	4859.8	
406.18	3515	
406.39	4083	
406.59	5281	
406.79	4938.3	
407	3403.7	
407.2	3424.9	
407.4	5449	
407.61	5431.2	
407.81	3498.6	
408.01	4983.4	
408.22	4465.9	
408.42	5843.5	
408.62	4227.7	
408.83	3855.6	
409.03	5031.9	
409.23	4893.3	
409.44	3938.9	
409.64	4047.5	
409.84	5746.6	
410.05	5618.9	
410.25	4106.2	
410.45	3924.6	
410.66	5339.7	
410.86	7002	
411.06	4252.3	
411.27	4162.2	
411.47	6879.8	
411.67	5496.7	
411.88	4294.6	
412.08	4410	
412.28	5827.8	
412.49	6169.2	
412.69	4113.7	
412.89	4207.2	
413.09	6139.1	
413.3	6004.6	
413.5	4240.7	
413.7	4008.6	
413.91	5609.4	
414.11	6156.9	
414.31	4134.2	
414.52	4427.7	
414.72	5957.5	
414.92	5778.7	
415.12	4140.3	
415.33	4524	
415.53	6103.6	
415.73	6260	
415.94	4719.9	
416.14	4283	
416.34	5508.4	
416.55	5315.8	
416.75	5184.1	
416.95	4794.3	
417.15	6260	
417.36	6607.4	
417.56	5384.8	
417.76	4621.6	
417.97	6380.1	
418.17	6148.7	
418.37	4485.7	
418.57	4421.6	
418.78	6057.9	
418.98	5803.3	
419.18	5010	
419.38	5017.5	
419.59	5832.6	
419.79	5580.7	
419.99	4336.9	
420.2	4594.3	
420.4	6150.7	
420.6	6158.9	
420.8	4298.7	
421.01	4213.4	
421.21	6118.6	
421.41	6147.3	
421.61	4603.2	
421.82	4362.9	
422.02	5761.6	
422.22	6383.5	
422.42	4916.5	
422.63	4731.5	
422.83	5765.7	
423.03	6670.2	
423.23	4690.5	
423.44	4044.7	
423.64	5846.3	
423.84	5545.9	
424.04	4321.2	
424.25	4072	
424.45	6441.5	
424.65	6391.7	
424.85	3901.4	
425.06	4394.9	
425.26	6576	
425.46	5740.5	
425.66	4642.1	
425.87	4453.6	
426.07	6247	
426.27	6113.2	
426.47	4540.3	
426.67	4092.5	
426.88	6548.7	
427.08	6126.2	
427.28	4771.1	
427.48	4065.2	
427.69	5431.2	
427.89	5796.4	
428.09	4652.3	
428.29	4123.2	
428.5	6248.4	
428.7	6028.5	
428.9	4034.5	
429.1	4363.5	
429.3	5925.5	
429.51	6116.6	
429.71	4290.5	
429.91	4833.2	
430.11	6219.7	
430.31	6338.5	
430.52	4494.6	
430.72	4657.8	
430.92	6580.8	
431.12	6221.7	
431.32	4237.9	
431.53	4618.2	
431.73	5477	
431.93	6659.3	
432.13	4171.7	
432.33	4169	
432.54	5800.5	
432.74	6031.3	
432.94	4067.9	
433.14	4832.5	
433.34	6335	
433.55	5932.3	
433.75	4803.2	
433.95	6004.6	
434.15	6146.6	
434.35	5752.1	
434.56	4258.4	
434.76	3957.4	
434.96	6041.5	
435.16	6265.4	
435.36	4229.1	
435.56	5002.5	
435.77	5867.4	
435.97	6027.2	
436.17	5476.3	
436.37	4899.4	
436.57	5829.2	
436.78	5835.3	
436.98	4994.3	
437.18	5371.1	
437.38	6356.9	
437.58	5922.7	
437.78	5443.5	
437.99	4500.1	
438.19	6318.7	
438.39	6886	
438.59	4549.2	
438.79	4135.5	
438.99	6777.4	
439.2	5908.4	
439.4	4172.4	
439.6	4235.9	
439.8	6077	
440	6958.3	
440.2	4878.3	
440.4	4930.8	
440.61	6470.2	
440.81	6775.4	
441.01	4398.4	
441.21	5012.1	
441.41	6919.4	
441.61	6470.9	
441.81	5260.5	
442.02	5925.5	
442.22	7150.1	
442.42	6664.1	
442.62	4468.7	
442.82	4587.4	
443.02	6933.1	
443.22	6221.7	
443.43	4868.7	
443.63	4425.7	
443.83	6014.9	
444.03	6167.8	
444.23	5311.7	
444.43	5066	
444.63	6373.3	
444.83	7183.6	
445.04	4557.4	
445.24	5444.2	
445.44	6659.3	
445.64	6668.9	
445.84	5233.2	
446.04	5158.2	
446.24	6162.3	
446.44	6851.8	
446.65	4537.6	
446.85	4857.1	
447.05	6405.4	
447.25	6786.3	
447.45	4926	
447.65	4530.1	
447.85	6457.2	
448.05	6082.5	
448.25	5134.9	
448.46	5018.9	
448.66	6402	
448.86	6108.4	
449.06	4460.5	
449.26	5139	
449.46	6614.9	
449.66	5911.8	
449.86	4924	
450.06	4885.1	
450.26	6167.1	
450.47	6592.4	
450.67	5042.1	
450.87	5253.7	
451.07	6701	
451.27	6438.8	
451.47	4600.4	
451.67	5264.6	
451.87	6238.8	
452.07	7058.7	
452.27	4847.5	
452.47	4762.9	
452.67	6494.8	
452.88	6693.4	
453.08	4352.6	
453.28	5641.5	
453.48	7293.5	
453.68	6350.8	
453.88	4746.5	
454.08	4815.5	
454.28	6722.8	
454.48	6406	
454.68	5248.3	
454.88	5629.2	
455.08	6807.4	
455.28	6588.3	
455.48	4665.3	
455.68	5114.5	
455.89	7226.6	
456.09	6789	
456.29	4967	
456.49	5005.9	
456.69	7064.8	
456.89	6702.3	
457.09	5315.2	
457.29	5608	
457.49	6758.3	
457.69	6903.7	
457.89	5292.6	
458.09	4867.3	
458.29	6736.5	
458.49	7200.7	
458.69	5440.1	
458.89	5134.9	
459.09	7333.8	
459.29	7345.4	
459.49	5229.1	
459.69	5737	
459.9	7056.6	
460.1	6723.5	
460.3	5077.6	
460.5	5002.5	
460.7	7047.1	
460.9	6803.4	
461.1	4773.8	
461.3	5539.1	
461.5	7475.8	
461.7	7172.7	
461.9	5161.6	
462.1	5440.8	
462.3	6925.5	
462.5	7274.4	
462.7	5214.8	
462.9	5301.5	
463.1	8066.9	
463.3	7775.5	
463.5	5399.1	
463.7	6088.6	
463.9	7169.9	
464.1	7413	
464.3	5578.7	
464.5	5700.2	
464.7	7538.6	
464.9	7345.4	
465.1	6632	
465.3	6006.7	
465.5	7875.8	
465.7	7847.8	
465.9	6205.3	
466.1	5965.1	
466.3	7709.2	
466.5	7597.3	
466.7	6679.8	
466.9	5859.2	
467.1	7681.2	
467.3	8284	
467.5	6658.6	
467.7	5873.6	
467.9	8393.3	
468.1	8870.4	
468.3	6378.1	
468.5	6735.1	
468.7	7625.3	
468.9	7530.4	
469.1	6168.5	
469.3	6651.1	
469.5	9003.6	
469.7	7350.2	
469.9	6432	
470.1	5976	
470.3	7763.2	
470.5	7705.1	
470.7	6894.1	
470.9	6042.9	
471.1	7484	
471.3	7805.5	
471.5	6010.8	
471.69	7102.4	
471.89	7454.6	
472.09	7160.4	
472.29	6498.2	
472.49	6631.3	
472.69	7343.3	
472.89	7725.6	
473.09	5874.3	
473.29	5963.7	
473.49	7452.6	
473.69	7313.3	
473.89	6534.4	
474.09	5965.7	
474.29	8400.1	
474.49	7985	
474.69	6535.8	
474.89	6161.7	
475.09	7455.3	
475.29	7486.7	
475.49	5736.4	
475.69	5939.1	
475.88	8568	
476.08	7804.8	
476.28	5715.2	
476.48	5917.9	
476.68	8092.9	
476.88	7754.3	
477.08	5998.5	
477.28	6056.5	
477.48	7564.5	
477.68	7897.7	
477.88	5731.6	
478.08	5958.2	
478.28	8117.5	
478.48	7548.8	
478.67	6073.6	
478.87	5553.4	
479.07	8097.7	
479.27	7703.8	
479.47	6210.8	
479.67	6181.5	
479.87	7929.7	
480.07	8307.2	
480.27	5655.1	
480.47	6767.2	
480.67	7593.9	
480.87	8128.4	
481.06	5879.7	
481.26	6509.8	
481.46	7706.5	
481.66	7630.7	
481.86	6195.1	
482.06	6812.2	
482.26	7522.9	
482.46	8157.1	
482.66	6109.8	
482.86	5852.4	
483.05	7845.1	
483.25	7329	
483.45	7847.1	
483.65	6185.5	
483.85	7361.1	
484.05	7658.7	
484.25	6477.7	
484.45	6784.2	
484.65	8187.8	
484.84	8315.4	
485.04	6171.9	
485.24	6191.7	
485.44	8518.2	
485.64	7348.8	
485.84	5788.9	
486.04	6602	
486.24	7629.4	
486.44	7801.4	
486.63	5709.1	
486.83	6254.5	
487.03	7622.5	
487.23	7772.7	
487.43	5860.6	
487.63	7331	
487.83	7795.9	
488.02	8316.1	
488.22	6520.7	
488.42	6929	
488.62	8462.2	
488.82	7686.7	
489.02	6233.3	
489.22	6366.5	
489.41	8372.1	
489.61	8134.5	
489.81	6056.5	
490.01	6107.7	
490.21	8333.2	
490.41	8731.9	
490.61	6177.4	
490.8	6266.1	
491	8045.8	
491.2	7554.3	
491.4	6635.4	
491.6	6043.6	
491.8	8014.4	
491.99	7993.2	
492.19	5870.8	
492.39	6096.1	
492.59	8282	
492.79	8307.2	
492.99	6703.7	
493.18	6023.1	
493.38	8499.1	
493.58	8945.5	
493.78	6668.9	
493.98	6296.8	
494.18	8310.7	
494.37	7867.6	
494.57	6873	
494.77	6763.1	
494.97	8520.9	
495.17	8654.7	
495.37	6631.3	
495.56	6902.3	
495.76	8869.1	
495.96	8613.1	
496.16	7488.7	
496.36	6838.2	
496.55	8749.6	
496.75	8472.4	
496.95	6984.9	
497.15	6968.6	
497.35	8748.2	
497.54	8765.3	
497.74	6911.2	
497.94	8090.2	
498.14	9291.6	
498.34	9065.7	
498.53	6666.1	
498.73	7073	
498.93	8413.7	
499.13	8753.7	
499.33	7123.5	
499.52	7413.6	
499.72	8976.2	
499.92	8982.4	
500.12	6920.8	
500.32	7058.7	
500.51	9044.5	
500.71	8858.8	
500.91	7575.4	
501.11	7391.1	
501.31	8988.5	
501.5	9337.4	
501.7	7812.3	
501.9	7261.4	
502.1	8860.9	
502.29	9112.1	
502.49	7490.8	
502.69	7730.4	
502.89	8947.6	
503.09	9060.2	
503.28	6735.1	
503.48	6902.3	
503.68	8578.9	
503.88	8392.6	
504.07	7382.9	
504.27	7059.3	
504.47	8671.1	
504.67	8868.4	
504.86	7524.2	
505.06	7127.6	
505.26	8557.8	
505.46	9643.2	
505.65	7120.1	
505.85	7159	
506.05	8490.9	
506.25	8789.2	
506.44	6619	
506.64	7202	
506.84	8331.1	
507.04	8908	
507.23	6815	
507.43	7102.4	
507.63	9635	
507.83	8355	
508.02	7116	
508.22	6853.2	
508.42	9790.7	
508.62	8185	
508.81	6864.8	
509.01	7392.5	
509.21	8206.9	
509.4	8491.6	
509.6	7060.7	
509.8	6739.2	
510	8409.6	
510.19	9224.7	
510.39	6701.6	
510.59	6731	
510.79	8273.1	
510.98	9222.7	
511.18	6925.5	
511.38	6901	
511.57	8964	
511.77	8614.4	
511.97	7318.1	
512.17	6618.4	
512.36	8867.7	
512.56	8714.8	
512.76	6714.6	
512.95	6430.6	
513.15	9007	
513.35	7968	
513.55	7270.3	
513.74	6676.4	
513.94	8887.5	
514.14	8444.5	
514.33	7395.2	
514.53	7216.4	
514.73	8495	
514.92	8633.6	
515.12	6864.8	
515.32	6731	
515.51	8693.6	
515.71	8926.4	
515.91	7972.7	
516.11	6810.9	
516.3	9914.2	
516.5	8345.5	
516.7	7217	
516.89	7598.6	
517.09	8507.9	
517.29	8445.8	
517.48	7476.5	
517.68	7015	
517.88	8277.2	
518.07	8807.6	
518.27	7357	
518.47	6727.6	
518.66	9136.7	
518.86	8207.6	
519.06	6563.1	
519.25	6995.2	
519.45	8469.7	
519.65	9456.2	
519.84	7365.9	
520.04	7862.2	
520.24	9732.6	
520.43	8873.2	
520.63	7217.7	
520.83	7142.6	
521.02	8434.9	
521.22	8784.4	
521.42	7332.4	
521.61	7651.9	
521.81	8549.6	
522.01	8633.6	
522.2	7225.2	
522.4	7124.2	
522.6	8976.2	
522.79	8107.2	
522.99	7129	
523.18	6672.3	
523.38	8839	
523.58	8763.3	
523.77	7922.9	
523.97	6752.8	
524.17	10150	
524.36	9645.9	
524.56	7809.6	
524.76	7502.4	
524.95	8973.5	
525.15	8821.3	
525.34	7316	
525.54	7403.4	
525.74	9221.3	
525.93	8603.5	
526.13	8307.9	
526.33	7476.5	
526.52	9560.6	
526.72	9153.1	
526.91	8297	
527.11	7731.1	
527.31	9533.3	
527.5	9898.5	
527.7	7817.1	
527.89	7148.1	
528.09	8953.7	
528.29	9244.5	
528.48	8131.8	
528.68	7783	
528.87	9633.6	
529.07	9550.4	
529.27	7823.2	
529.46	7473	
529.66	9386.5	
529.85	9698.5	
530.05	7513.3	
530.25	8012.3	
530.44	10364	
530.64	9281.4	
530.83	7817.1	
531.03	7855.3	
531.23	9577	
531.42	9388.6	
531.62	8327.7	
531.81	7681.9	
532.01	9669.1	
532.21	9899.9	
532.4	7687.4	
532.6	8058.1	
532.79	10474	
532.99	9814.5	
533.18	8148.2	
533.38	8753	
533.58	9671.9	
533.77	10110	
533.97	8131.8	
534.16	8683.4	
534.36	10278	
534.55	9610.4	
534.75	8772.1	
534.95	8198	
535.14	10404	
535.34	9606.3	
535.53	7863.5	
535.73	9268.4	
535.92	10701	
536.12	9669.8	
536.31	8006.9	
536.51	8843.8	
536.71	9983.2	
536.9	9570.2	
537.1	8026	
537.29	8185	
537.49	10204	
537.68	9637.7	
537.88	8484.1	
538.07	7859.4	
538.27	9735.4	
538.46	10436	
538.66	7876.5	
538.86	8226.7	
539.05	9878	
539.25	10118	
539.44	8375.5	
539.64	8165.3	
539.83	9704	
540.03	10342	
540.22	7971.4	
540.42	8034.9	
540.61	9862.3	
540.81	9863	
541	8326.4	
541.2	8748.2	
541.39	9441.1	
541.59	9787.9	
541.78	8584.4	
541.98	7987.1	
542.18	9309.4	
542.37	9283.4	
542.57	8148.2	
542.76	8533.2	
542.96	9291	
543.15	9696.4	
543.35	8163.2	
543.54	7735.9	
543.74	9727.2	
543.93	9568.8	
544.13	8141.4	
544.32	8777.6	
544.52	9796.8	
544.71	9153.7	
544.91	7431.4	
545.1	8174.1	
545.3	9314.8	
545.49	9754.5	
545.69	7435.5	
545.88	7828	
546.08	10430	
546.27	10078	
546.47	8190.5	
546.66	7676.5	
546.86	9854.8	
547.05	10122	
547.24	7808.2	
547.44	7701.7	
547.63	9073.2	
547.83	9897.2	
548.02	8073.1	
548.22	8130.4	
548.41	8990.6	
548.61	9951.1	
548.8	7618.4	
549	7645.1	
549.19	9480.7	
549.39	9735.4	
549.58	7423.2	
549.78	7907.2	
549.97	9725.8	
550.17	9279.3	
550.36	8359.1	
550.55	9054.1	
550.75	9286.9	
550.94	9917.6	
551.14	7522.2	
551.33	7692.2	
551.53	8811.7	
551.72	9508.7	
551.92	7852.6	
552.11	7657.4	
552.31	9579.7	
552.5	9443.9	
552.69	8893	
552.89	7509.9	
553.08	9481.4	
553.28	9364	
553.47	7621.9	
553.67	8378.9	
553.86	9923.8	
554.06	8704.5	
554.25	7141.3	
554.44	7487.4	
554.64	10391	
554.83	10056	
555.03	7428.7	
555.22	7627.3	
555.42	9659.6	
555.61	9484.8	
555.8	7588.4	
556	7724.3	
556.19	8788.5	
556.39	9583.8	
556.58	7531.7	
556.78	7553.6	
556.97	9249.3	
557.16	9080.7	
557.36	8343.4	
557.55	7408.9	
557.75	8647.9	
557.94	9869.2	
558.13	7393.2	
558.33	7096.2	
558.52	9671.2	
558.72	8880	
558.91	7283.9	
559.1	7440.3	
559.3	8648.6	
559.49	8527.1	
559.69	7027.3	
559.88	7667.6	
560.07	9220.6	
560.27	9527.8	
560.46	7802.8	
560.66	7841.7	
560.85	9109.4	
561.04	8480	
561.24	7207.5	
561.43	7309.2	
561.63	8688.2	
561.82	8936.7	
562.01	8159.1	
562.21	7482.6	
562.4	9082.7	
562.59	9832.3	
562.79	7553.6	
562.98	7249.8	
563.18	9111.4	
563.37	10159	
563.56	7836.2	
563.76	7318.1	
563.95	8832.9	
564.14	8830.8	
564.34	7514.7	
564.53	7297.6	
564.73	9254.1	
564.92	9384.5	
565.11	7746.8	
565.31	7204.8	
565.5	9538.8	
565.69	8701.1	
565.89	7417.7	
566.08	7586.4	
566.27	9512.1	
566.47	9783.1	
566.66	8071.7	
566.85	7156.3	
567.05	9407	
567.24	8953.7	
567.44	7402.7	
567.63	8262.9	
567.82	9453.4	
568.02	9133.3	
568.21	7329	
568.4	7476.5	
568.6	9115.5	
568.79	9146.2	
568.98	7274.4	
569.18	7273.7	
569.37	9138	
569.56	10494	
569.76	7679.9	
569.95	8286.8	
570.14	9486.2	
570.34	9387.9	
570.53	7363.8	
570.72	7333.8	
570.91	9745.6	
571.11	9136.7	
571.3	7612.3	
571.49	8284	
571.69	9258.2	
571.88	8813.1	
572.07	8006.9	
572.27	7892.2	
572.46	8858.1	
572.65	9607	
572.85	7590.5	
573.04	7723.6	
573.23	9782.5	
573.43	9305.3	
573.62	7418.4	
573.81	7746.1	
574	9262.3	
574.2	9192.6	
574.39	7615.7	
574.58	7731.1	
574.78	10013	
574.97	9437.7	
575.16	8013.7	
575.36	8063.5	
575.55	9749.7	
575.74	9777	
575.93	7482.6	
576.13	8275.2	
576.32	9279.3	
576.51	9688.9	
576.71	7727.7	
576.9	8742.1	
577.09	9929.9	
577.28	9594.7	
577.48	8088.8	
577.67	7395.2	
577.86	9437.7	
578.05	9602.2	
578.25	7922.9	
578.44	7969.3	
578.63	9443.9	
578.83	10256	
579.02	7489.4	
579.21	8556.4	
579.4	9669.8	
579.6	9303.9	
579.79	8039.6	
579.98	9494.4	
580.17	9893.1	
580.37	9910.1	
580.56	7671	
580.75	8277.2	
580.94	10114	
581.14	10082	
581.33	8441.7	
581.52	7690.1	
581.71	9802.9	
581.91	10228	
582.1	7570	
582.29	7906.5	
582.48	9487.6	
582.68	9516.2	
582.87	8297.7	
583.06	8038.3	
583.25	9799.5	
583.45	9235.7	
583.64	8486.1	
583.83	8938	
584.02	9511.4	
584.21	9843.9	
584.41	8459.5	
584.6	8033.5	
584.79	9665	
584.98	10012	
585.18	7647.8	
585.37	7686.7	
585.56	9365.4	
585.75	9858.2	
585.94	7829.4	
586.14	8260.8	
586.33	10249	
586.52	9607	
586.71	8136.6	
586.91	7905.8	
587.1	9121.7	
587.29	9810.5	
587.48	7795.9	
587.67	7852.6	
587.87	9609.8	
588.06	9654.8	
588.25	8726.4	
588.44	8090.8	
588.63	9458.9	
588.83	9798.8	
589.02	7840.3	
589.21	7612.3	
589.4	9263.6	
589.59	9144.2	
589.78	7076.4	
589.98	7284.6	
590.17	8767.4	
590.36	9115.5	
590.55	6799.3	
590.74	7232.7	
590.94	9770.9	
591.13	8798.8	
591.32	7027.3	
591.51	6685.9	
591.7	9052.7	
591.89	8701.1	
592.09	6825.2	
592.28	7148.1	
592.47	8275.8	
592.66	9700.5	
592.85	6808.8	
593.05	7116.7	
593.24	8763.3	
593.43	9456.2	
593.62	7062.1	
593.81	7283.3	
594	8791.9	
594.19	8890.9	
594.39	7000.6	
594.58	6933.7	
594.77	9078.6	
594.96	9402.2	
595.15	6978.1	
595.34	7397.3	
595.54	8923.7	
595.73	8333.2	
595.92	6504.3	
596.11	7305.1	
596.3	9300.5	
596.49	8402.8	
596.68	7155.6	
596.88	7353.6	
597.07	9013.8	
597.26	8228.7	
597.45	6796.5	
597.64	7560.4	
597.83	8484.1	
598.02	8955.1	
598.22	6803.4	
598.41	7241.6	
598.6	8798.1	
598.79	8335.9	
598.98	6824.5	
599.17	7517.4	
599.36	8807.6	
599.55	9427.5	
599.74	8176.2	
599.94	7983	
600.13	9110	
600.32	8312	
600.51	6687.3	
600.7	6778.1	
600.89	9627.5	
601.08	9553.1	
601.27	6649.8	
601.47	7187.7	
601.66	9054.8	
601.85	9446.6	
602.04	7143.3	
602.23	7206.8	
602.42	8456.1	
602.61	8893	
602.8	6866.2	
602.99	6820.4	
603.18	8603.5	
603.37	8666.3	
603.57	7178.8	
603.76	7552.2	
603.95	9320.3	
604.14	8977.6	
604.33	6943.3	
604.52	7083.2	
604.71	8845.9	
604.9	8454.7	
605.09	7489.4	
605.28	7419.1	
605.47	9237	
605.66	8890.9	
605.86	7260	
606.05	6913.3	
606.24	9146.9	
606.43	8139.3	
606.62	7111.2	
606.81	7552.9	
607	9014.5	
607.19	8560.5	
607.38	6741.9	
607.57	6829.3	
607.76	8348.2	
607.95	8062.2	
608.14	7179.5	
608.33	7468.3	
608.52	8391.9	
608.72	8966	
608.91	6642.9	
609.1	6538.5	
609.29	8453.3	
609.48	8096.3	
609.67	7187.7	
609.86	6550.1	
610.05	8200.1	
610.24	8392.6	
610.43	6503	
610.62	6197.2	
610.81	9254.1	
611	8940.1	
611.19	6518	
611.38	7104.4	
611.57	8615.8	
611.76	9424.1	
611.95	6488	
612.14	6300.2	
612.33	8368	
612.52	8140.7	
612.71	6810.9	
612.9	6292	
613.09	7958.4	
613.28	9548.3	
613.47	6684.6	
613.66	7245	
613.85	8529.8	
614.04	8114.1	
614.24	6669.6	
614.43	6121.4	
614.62	8596	
614.81	8567.3	
615	6993.1	
615.19	6974	
615.38	8063.5	
615.57	8333.2	
615.76	6935.1	
615.95	7614.3	
616.14	8713.4	
616.33	8399.4	
616.52	7106.5	
616.71	7233.4	
616.9	8558.5	
617.09	8497.7	
617.28	6686.6	
617.47	7482.6	
617.66	8024.6	
617.85	8023.9	
618.04	7390.4	
618.22	6946.7	
618.41	8272.4	
618.6	8910.7	
618.79	6922.1	
618.98	6818.4	
619.17	9187.2	
619.36	7961.8	
619.55	6931	
619.74	7013.6	
619.93	8622.6	
620.12	8211.7	
620.31	7330.4	
620.5	7439.6	
620.69	9086.2	
620.88	9258.9	
621.07	7911.3	
621.26	7238.2	
621.45	8809	
621.64	8855.4	
621.83	7370.6	
622.02	6889.4	
622.21	8951.7	
622.4	8831.5	
622.59	7699	
622.78	7595.9	
622.97	8488.1	
623.16	9149.6	
623.35	7393.2	
623.54	6795.2	
623.72	8603.5	
623.91	8637	
624.1	7558.4	
624.29	6663.4	
624.48	9402.2	
624.67	9013.8	
624.86	7445.7	
625.05	6897.6	
625.24	9544.9	
625.43	8512.7	
625.62	8512	
625.81	6895.5	
626	9083.4	
626.19	8712.7	
626.38	7462.1	
626.56	7137.9	
626.75	8574.2	
626.94	8995.4	
627.13	7572	
627.32	6627.2	
627.51	9043.8	
627.7	9624.8	
627.89	6713.2	
628.08	7510.6	
628.27	8363.9	
628.46	8544.8	
628.65	6877.8	
628.83	6617.7	
629.02	8923.7	
629.21	8340.7	
629.4	7151.5	
629.59	7352.2	
629.78	8435.6	
629.97	8996.7	
630.16	7372	
630.35	7008.1	
630.54	9441.8	
630.72	9271.2	
630.91	7004.1	
631.1	7322.9	
631.29	8760.5	
631.48	8800.1	
631.67	7487.4	
631.86	7082.6	
632.05	8617.2	
632.24	8602.8	
632.42	6762.4	
632.61	7258	
632.8	8525.7	
632.99	8189.1	
633.18	7224.6	
633.37	7492.2	
633.56	8873.8	
633.75	8698.4	
633.93	7254.6	
634.12	7068.2	
634.31	9398.1	
634.5	8940.1	
634.69	7051.8	
634.88	7418.4	
635.07	8668.4	
635.25	9039.1	
635.44	7723.6	
635.63	7850.5	
635.82	8554.4	
636.01	7961.1	
636.2	7637.6	
636.39	7225.9	
636.57	9288.9	
636.76	8970.1	
636.95	6849.1	
637.14	7865.6	
637.33	8845.2	
637.52	9488.2	
637.7	6757.6	
637.89	7484	
638.08	8560.5	
638.27	9595.4	
638.46	7479.2	
638.65	7623.9	
638.83	9380.4	
639.02	8290.9	
639.21	7399.3	
639.4	7645.1	
639.59	8726.4	
639.78	8406.2	
639.96	6821.1	
640.15	6816.3	
640.34	8527.7	
640.53	8696.4	
640.72	6681.2	
640.91	6784.9	
641.09	8097	
641.28	9037.7	
641.47	6823.8	
641.66	7409.6	
641.85	8657.4	
642.03	8682.7	
642.22	7187	
642.41	6927.6	
642.6	8236.2	
642.79	7819.1	
642.97	6774.7	
643.16	7172.7	
643.35	8183.7	
643.54	8033.5	
643.73	6640.9	
643.91	7133.1	
644.1	7940.7	
644.29	8344.8	
644.48	6642.2	
644.67	6663.4	
644.85	7864.2	
645.04	8213	
645.23	6304.3	
645.42	6590.4	
645.6	7869.7	
645.79	8667.7	
645.98	6488.6	
646.17	5829.9	
646.36	7647.1	
646.54	7923.6	
646.73	7024.5	
646.92	6179.4	
647.11	7685.3	
647.29	8361.9	
647.48	6178	
647.67	5993.7	
647.86	8587.8	
648.05	8487.5	
648.23	6368.5	
648.42	7176.8	
648.61	8174.1	
648.8	7901.1	
648.98	6092.7	
649.17	6369.2	
649.36	7604.1	
649.55	7374.7	
649.73	6165.8	
649.92	6646.3	
650.11	7504.4	
650.3	7823.9	
650.48	6245.6	
650.67	6064.7	
650.86	8079.9	
651.05	7226.6	
651.23	6221	
651.42	6076.3	
651.61	7610.3	
651.79	7631.4	
651.98	6278.4	
652.17	6029.2	
652.36	7865.6	
652.54	7195.9	
652.73	6081.1	
652.92	5923.4	
653.11	7898.3	
653.29	7946.1	
653.48	5640.8	
653.67	6244.9	
653.85	7729	
654.04	8458.1	
654.23	6358.9	
654.42	6032.6	
654.6	7410.9	
654.79	7832.1	
654.98	5694	
655.16	6043.6	
655.35	6983.6	
655.54	6857.3	
655.73	5602.6	
655.91	5508.4	
656.1	7593.2	
656.29	6815.6	
656.47	5197.7	
656.66	6464.8	
656.85	7081.2	
657.03	7088	
657.22	5735	
657.41	5782.8	
657.59	7245	
657.78	7094.8	
657.97	5541.1	
658.16	6013.5	
658.34	7731.1	
658.53	7993.9	
658.72	6622.4	
658.9	6967.9	
659.09	7426.6	
659.28	7432.8	
659.46	5801.9	
659.65	5824.4	
659.84	7160.4	
660.02	7677.2	
660.21	5879	
660.4	5713.8	
660.58	7880.6	
660.77	7374.1	
660.96	6210.1	
661.14	5509	
661.33	8159.1	
661.52	8058.1	
661.7	5566.4	
661.89	7793.9	
662.08	7193.8	
662.26	6805.4	
662.45	5647.6	
662.64	5776	
662.82	7703.1	
663.01	7034.8	
663.2	5754.8	
663.38	6214.2	
663.57	7621.9	
663.75	7425.3	
663.94	5950.7	
664.13	6797.2	
664.31	7114.6	
664.5	7549.5	
664.69	6134.3	
664.87	6423.1	
665.06	6888	
665.25	7383.6	
665.43	6694.8	
665.62	6645.7	
665.8	7588.4	
665.99	7124.2	
666.18	5943.9	
666.36	5848.3	
666.55	7564.5	
666.74	7488.7	
666.92	5681.7	
667.11	6686.6	
667.29	7220.5	
667.48	7577.5	
667.67	6475	
667.85	5760.9	
668.04	7140.6	
668.22	7105.8	
668.41	5904.3	
668.6	6114.6	
668.78	6978.1	
668.97	7106.5	
669.15	6072.9	
669.34	5468.8	
669.53	6976.7	
669.71	7219.8	
669.9	5628.5	
670.08	5983.5	
670.27	6950.1	
670.46	7406.8	
670.64	6179.4	
670.83	6277	
671.01	6804	
671.2	7254.6	
671.38	5687.9	
671.57	5601.9	
671.76	7800.7	
671.94	8087.4	
672.13	5505.6	
672.31	6245.6	
672.5	7595.2	
672.69	6956.3	
672.87	5652.4	
673.06	5788.2	
673.24	7372.7	
673.43	7034.8	
673.61	6045.6	
673.8	5744.6	
673.98	7460.8	
674.17	7531.1	
674.36	6320.7	
674.54	6088.6	
674.73	7245.7	
674.91	7531.7	
675.1	5862.7	
675.28	5589.6	
675.47	7183.6	
675.65	7500.3	
675.84	5861.3	
676.03	6011.5	
676.21	7101	
676.4	6667.5	
676.58	6236.1	
676.77	6264.1	
676.95	8046.5	
677.14	7030.7	
677.32	5531.6	
677.51	5490.6	
677.69	7546.8	
677.88	6829.3	
678.06	5548.6	
678.25	5666.7	
678.44	7157	
678.62	6982.9	
678.81	5392.3	
678.99	6072.9	
679.18	7674.4	
679.36	7400.7	
679.55	5716.6	
679.73	6171.9	
679.92	7361.8	
680.1	6950.8	
680.29	6570.6	
680.47	5743.9	
680.66	6948.1	
680.84	7587.7	
681.03	5313.1	
681.21	5945.3	
681.4	6851.1	
681.58	6834.8	
681.77	5596.4	
681.95	5532.9	
682.14	7555.6	
682.32	7737.2	
682.51	6167.1	
682.69	5414.1	
682.88	6933.1	
683.06	7281.2	
683.25	5952.1	
683.43	6212.9	
683.62	7230.7	
683.8	7397.3	
683.99	6304.3	
684.17	5904.3	
684.36	8008.2	
684.54	6972.7	
684.73	5302.9	
684.91	5383.4	
685.1	7167.2	
685.28	6709.8	
685.46	5721.3	
685.65	5625.8	
685.83	7166.5	
686.02	6649.1	
686.2	5184.8	
686.39	5339.7	
686.57	6512.5	
686.76	7453.2	
686.94	5307.7	
687.13	5410.1	
687.31	6984.9	
687.5	6766.5	
687.68	5053	
687.86	5778.7	
688.05	7914	
688.23	6434.7	
688.42	5883.1	
688.6	5377.3	
688.79	6676.4	
688.97	6785.6	
689.16	5699.5	
689.34	5030.5	
689.52	7303.1	
689.71	7541.3	
689.89	5890	
690.08	5487.9	
690.26	7031.4	
690.45	6871.6	
690.63	5991.7	
690.81	5543.9	
691	6889.4	
691.18	6741.2	
691.37	5659.2	
691.55	7111.9	
691.74	6741.2	
691.92	8131.8	
692.1	5606	
692.29	5251	
692.47	6905.8	
692.66	6380.1	
692.84	5364.3	
693.02	5735.7	
693.21	6466.8	
693.39	6854.6	
693.58	5797.1	
693.76	5337.7	
693.94	7534.5	
694.13	7458	
694.31	5498.8	
694.5	6137.8	
694.68	6738.5	
694.86	7092.8	
695.05	5713.2	
695.23	5816.2	
695.42	7266.2	
695.6	8760.5	
695.78	6183.5	
695.97	5552	
696.15	7318.8	
696.34	6885.3	
696.52	5462.6	
696.7	5965.7	
696.89	7139.2	
697.07	6679.8	
697.25	5872.9	
697.44	6845	
697.62	7095.5	
697.81	7294.9	
697.99	5672.2	
698.17	5939.8	
698.36	6670.9	
698.54	7038.9	
698.72	5830.6	
698.91	5216.9	
699.09	6805.4	
699.28	6651.8	
699.46	5642.8	
699.64	5522	
699.83	6718.7	
700.01	7421.2	
700.19	6105.7	
700.38	5028.4	
700.56	7397.9	
700.74	6746.7	
700.93	5171.8	
701.11	5882.4	
701.29	7166.5	
701.48	7848.5	
701.66	5446.9	
701.84	5518.6	
702.03	6835.4	
702.21	7343.3	
702.39	5227.8	
702.58	5685.2	
702.76	7234.8	
702.94	7285.3	
703.13	5149.3	
703.31	6820.4	
703.49	6812.9	
703.68	7686.7	
703.86	5339.7	
704.04	5978.7	
704.23	7034.8	
704.41	7318.1	
704.59	5500.2	
704.78	6206.7	
704.96	8161.8	
705.14	7240.3	
705.33	5358.2	
705.51	5913.2	
705.69	6898.9	
705.87	7397.9	
706.06	6021	
706.24	5275.6	
706.42	7133.8	
706.61	7322.9	
706.79	6010.8	
706.97	5276.9	
707.16	6808.1	
707.34	7133.1	
707.52	5956.9	
707.7	5365.7	
707.89	6770.6	
708.07	6626.5	
708.25	5981.4	
708.44	6107.7	
708.62	6709.1	
708.8	7520.1	
708.98	6266.8	
709.17	5522.7	
709.35	7048.4	
709.53	7067.5	
709.72	5203.9	
709.9	5326.8	
710.08	7257.3	
710.26	7211.6	
710.45	6323.4	
710.63	5469.4	
710.81	6880.5	
710.99	6845	
711.18	5874.3	
711.36	5410.7	
711.54	6842.3	
711.72	7255.3	
711.91	5649.7	
712.09	5217.5	
712.27	6905.1	
712.45	7307.8	
712.64	5720	
712.82	4973.8	
713	6535.1	
713.18	6604	
713.37	5005.9	
713.55	5885.9	
713.73	7171.3	
713.91	6210.1	
714.1	5235.3	
714.28	4831.8	
714.46	6795.2	
714.64	6227.9	
714.83	4410.6	
715.01	4922.6	
715.19	6195.1	
715.37	5613.5	
715.55	4610.7	
715.74	4813.4	
715.92	6681.2	
716.1	5341.8	
716.28	5552.7	
716.47	4839.4	
716.65	5897.5	
716.83	5892.7	
717.01	4769.7	
717.19	4726.7	
717.38	7172	
717.56	5596.4	
717.74	4945.2	
717.92	4255.7	
718.1	6384.2	
718.29	5935	
718.47	4118.5	
718.65	4538.3	
718.83	6490.7	
719.01	6440.9	
719.2	4083.6	
719.38	4884.4	
719.56	6242.2	
719.74	7284.6	
719.92	4650.3	
720.11	5288.5	
720.29	6371.2	
720.47	5661.3	
720.65	4297.3	
720.83	4846.2	
721.02	5917.9	
721.2	5730.9	
721.38	4810.7	
721.56	4319.2	
721.74	5326.1	
721.92	5446.9	
722.11	5063.3	
722.29	4861.9	
722.47	6279.1	
722.65	5733.6	
722.83	4314.4	
723.01	4820.2	
723.2	5743.2	
723.38	5945.9	
723.56	3880.9	
723.74	4676.2	
723.92	5423	
724.1	6223.1	
724.29	4248.2	
724.47	4982	
724.65	5588.2	
724.83	5400.5	
725.01	4177.2	
725.19	4668	
725.37	5412.8	
725.56	5405.3	
725.74	4084.3	
725.92	4192.2	
726.1	5430.5	
726.28	5683.8	
726.46	4410.6	
726.64	4242	
726.83	5710.4	
727.01	5729.5	
727.19	4049.5	
727.37	4649.6	
727.55	5736.4	
727.73	6070.2	
727.91	4007.9	
728.09	3904.1	
728.28	6060.6	
728.46	6181.5	
728.64	4661.9	
728.82	4597	
729	6735.8	
729.18	6322.1	
729.36	4041.3	
729.54	5579.3	
729.72	7006.8	
729.91	5829.9	
730.09	5402.5	
730.27	4646.2	
730.45	5738.4	
730.63	6213.5	
730.81	4935.6	
730.99	4356.7	
731.17	6555.5	
731.35	5620.3	
731.53	4711	
731.71	4413.4	
731.9	6426.5	
732.08	6356.9	
732.26	4672.1	
732.44	4383.3	
732.62	6504.3	
732.8	6194.4	
732.98	4866	
733.16	4153.3	
733.34	6150.7	
733.52	5240.1	
733.7	4591.5	
733.88	4765.6	
734.07	5961	
734.25	5908.4	
734.43	4190.1	
734.61	5285.8	
734.79	6902.3	
734.97	5715.2	
735.15	4281.6	
735.33	4477.5	
735.51	6009.4	
735.69	5757.5	
735.87	5221	
736.05	4601.1	
736.23	5949.3	
736.41	5664.7	
736.59	4484.4	
736.77	4521.9	
736.95	6197.8	
737.13	5735	
737.32	4308.2	
737.5	4332.8	
737.68	6550.1	
737.86	5705	
738.04	4145.8	
738.22	5302.2	
738.4	5620.3	
738.58	5776	
738.76	4510.3	
738.94	3819.5	
739.12	5683.8	
739.3	5568.4	
739.48	4910.3	
739.66	4703.5	
739.84	5840.1	
740.02	5765	
740.2	3872.7	
740.38	4059.8	
740.56	6044.2	
740.74	5193.6	
740.92	4563.6	
741.1	4427.7	
741.28	5668.8	
741.46	5388.9	
741.64	4253.6	
741.82	4607.9	
742	5722	
742.18	5536.3	
742.36	4362.2	
742.54	4134.8	
742.72	5994.4	
742.9	5058.5	
743.08	4576.5	
743.26	3818.1	
743.44	6102.9	
743.62	5963	
743.8	4721.3	
743.98	4046.8	
744.16	5778.7	
744.34	5550	
744.52	4591.5	
744.7	4506.9	
744.88	5883.8	
745.06	5553.4	
745.24	4610.7	
745.42	4698	
745.6	5953.4	
745.78	5845.6	
745.96	3831.1	
746.14	3960.8	
746.32	6443.6	
746.5	5937.7	
746.68	4316.4	
746.86	4004.5	
747.03	6095.4	
747.21	5086.5	
747.39	4343.7	
747.57	3969	
747.75	5566.4	
747.93	5848.3	
748.11	3958.7	
748.29	3904.1	
748.47	6797.2	
748.65	5364.3	
748.83	4474.8	
749.01	4304.1	
749.19	5750.7	
749.37	5098.8	
749.55	4199.7	
749.73	4246.1	
749.91	5627.8	
750.09	5389.6	
750.26	4215.4	
750.44	3798.3	
750.62	5496.7	
750.8	5410.1	
750.98	3762.1	
751.16	4029.7	
751.34	5634	
751.52	5122	
751.7	4511	
751.88	3715.7	
752.06	5914.5	
752.24	5651.7	
752.42	3703.4	
752.59	3907.5	
752.77	5483.8	
752.95	6210.1	
753.13	4424.3	
753.31	3960.8	
753.49	5241.4	
753.67	5481.7	
753.85	4201.7	
754.03	3884.3	
754.21	5716.6	
754.38	5952.8	
754.56	3954.6	
754.74	3293.1	
754.92	5119.2	
755.1	5557.5	
755.28	3315.7	
755.46	3326.6	
755.64	6063.4	
755.82	6154.8	
755.99	3444.7	
756.17	3517	
756.35	4348.5	
756.53	5365.7	
756.71	2699.2	
756.89	3320.4	
757.07	5081	
757.25	4476.9	
757.42	3679.5	
757.6	4274.8	
757.78	5197.7	
757.96	4402.5	
758.14	3522.5	
758.32	3101.3	
758.5	4177.2	
758.67	4855.1	
758.85	3405.1	
759.03	3427.6	
759.21	4952.7	
759.39	4445.5	
759.57	3104.7	
759.75	3851.5	
759.92	5399.1	
760.1	4951.3	
760.28	4158.1	
760.46	4297.3	
760.64	4731.5	
760.82	4623.6	
760.99	4059.8	
761.17	3546.4	
761.35	5375.9	
761.53	4571.1	
761.71	3735.5	
761.89	4035.2	
762.06	5216.9	
762.24	4863.9	
762.42	3628.3	
762.6	3469.9	
762.78	4906.9	
762.96	5310.4	
763.13	3964.9	
763.31	3688.4	
763.49	5368.4	
763.67	4797.7	
763.85	4227.7	
764.02	4681	
764.2	5664	
764.38	5003.2	
764.56	3534.8	
764.74	4184.7	
764.91	5630.5	
765.09	4836.6	
765.27	3377.8	
765.45	3263.8	
765.63	5740.5	
765.8	5521.3	
765.98	3033	
766.16	3273.3	
766.34	4640.7	
766.52	4398.4	
766.69	3973.7	
766.87	3182.5	
767.05	4919.2	
767.23	5410.1	
767.41	3375.1	
767.58	3596.2	
767.76	5263.3	
767.94	5300.1	
768.12	3493.2	
768.29	3942.3	
768.47	4883	
768.65	5436.7	
768.83	3191.4	
769	3932.1	
769.18	4607.9	
769.36	5041.4	
769.54	3963.5	
769.72	3197.6	
769.89	5375.2	
770.07	5271.5	
770.25	3456.3	
770.43	4377.2	
770.6	5860.6	
770.78	6179.4	
770.96	3550.5	
771.14	3930.7	
771.31	5261.2	
771.49	4803.9	
771.67	2992.8	
771.85	3129.3	
772.02	4268	
772.2	4788.2	
772.38	3649.5	
772.55	3312.9	
772.73	4961.5	
772.91	4767.7	
773.09	3563.5	
773.26	3661.8	
773.44	4946.5	
773.62	4728.1	
773.8	3273.3	
773.97	3088.3	
774.15	4997.7	
774.33	4759.5	
774.5	3115	
774.68	3349.1	
774.86	5059.8	
775.04	4745.8	
775.21	3219.4	
775.39	3184.6	
775.57	4919.9	
775.74	5115.1	
775.92	3082.9	
776.1	2928.6	
776.27	4924	
776.45	5692.7	
776.63	3177.8	
776.81	2904.7	
776.98	4608.6	
777.16	5313.8	
777.34	3250.8	
777.51	3500.7	
777.69	4600.4	
777.87	4481.6	
778.04	3327.3	
778.22	3665.9	
778.4	4485.1	
778.57	4939.7	
778.75	2829.6	
778.93	2987.3	
779.1	4413.4	
779.28	4200.4	
779.46	2790.7	
779.64	3165.5	
779.81	5119.9	
779.99	5610.8	
780.17	3659.7	
780.34	3737.5	
780.52	4737.6	
780.69	4778.6	
780.87	3360.7	
781.05	3039.9	
781.22	4758.1	
781.4	4792.9	
781.58	3153.2	
781.75	2584.5	
781.93	4767.7	
782.11	4276.8	
782.28	3798.3	
782.46	3125.2	
782.64	4196.3	
782.81	4821.6	
782.99	3263.8	
783.17	3135.4	
783.34	4734.2	
783.52	4329.4	
783.69	3318.4	
783.87	3947.1	
784.05	4465.3	
784.22	4321.9	
784.4	3846.1	
784.58	3372.3	
784.75	5006.6	
784.93	4451.6	
785.1	3147.7	
785.28	3547.8	
785.46	4810.7	
785.63	4305.5	
785.81	3208.5	
785.99	3043.3	
786.16	4519.2	
786.34	4725.3	
786.51	3039.9	
786.69	3386.7	
786.87	4109.6	
787.04	4470.7	
787.22	2942.2	
787.39	3613.3	
787.57	4317.8	
787.75	5080.3	
787.92	3790.1	
788.1	3728	
788.27	4279.6	
788.45	4147.1	
788.63	3547.1	
788.8	2676	
788.98	4749.9	
789.15	3994.9	
789.33	2745	
789.5	3106.8	
789.68	4979.3	
789.86	5054.4	
790.03	3393.5	
790.21	3037.1	
790.38	4967.7	
790.56	4405.9	
790.73	2990.7	
790.91	2948.4	
791.09	4351.9	
791.26	4785.4	
791.44	3168.2	
791.61	2803.7	
791.79	4386.7	
791.96	4352.6	
792.14	2849.4	
792.32	2577	
792.49	4301.4	
792.67	4448.9	
792.84	2932.7	
793.02	2710.1	
793.19	4715.1	
793.37	5089.9	
793.54	2557.9	
793.72	2842.6	
793.89	5177.9	
794.07	4218.8	
794.25	3275.4	
794.42	2618.7	
794.6	4994.3	
794.77	4678.9	
794.95	3401	
795.12	3022.1	
795.3	4358.1	
795.47	4702.8	
795.65	3310.9	
795.82	3180.5	
796	4186	
796.17	5419.6	
796.35	3059	
796.52	3609.9	
796.7	4769.7	
796.87	4774.5	
797.05	3034.4	
797.22	3658.4	
797.4	4773.8	
797.57	5399.1	
797.75	3198.9	
797.92	3005.7	
798.1	5034.6	
798.27	4215.4	
798.45	2667.8	
798.62	2816	
798.8	4510.3	
798.97	4879.6	
799.15	3346.4	
799.32	3212.6	
799.5	4046.8	
799.67	4522.6	
799.85	3435.8	
800.02	2605	
800.2	4296.6	
800.37	4397	
800.55	3512.9	
800.72	2956.6	
800.9	4881	
801.07	5061.9	
801.25	3899.3	
801.42	3319.1	
801.6	4903.5	
801.77	4556	
801.95	3108.1	
802.12	2992.8	
802.29	4706.9	
802.47	4587.4	
802.64	3308.2	
802.82	2581.8	
802.99	4289.1	
803.17	4965	
803.34	3157.3	
803.52	2872.6	
803.69	5391.6	
803.87	4037.2	
804.04	3145	
804.21	3186	
804.39	5101.5	
804.56	4395.6	
804.74	2749.1	
804.91	3264.5	
805.09	4300.1	
805.26	4343.7	
805.44	2773.6	
805.61	3054.9	
805.78	4877.6	
805.96	4734.2	
806.13	3257.6	
806.31	3454.2	
806.48	3977.2	
806.66	4306.2	
806.83	3295.2	
807	3162.1	
807.18	4324.6	
807.35	4556.7	
807.53	2986.6	
807.7	2674	
807.87	5078.3	
808.05	4309.6	
808.22	3482.9	
808.4	2668.5	
808.57	4286.4	
808.74	4052.9	
808.92	2956.6	
809.09	3609.2	
809.27	4318.5	
809.44	4638	
809.61	2597.5	
809.79	2918.4	
809.96	5197.7	
810.14	4767	
810.31	2640.5	
810.48	3134.8	
810.66	4360.8	
810.83	4861.9	
811.01	2938.2	
811.18	3276.1	
811.35	4855.1	
811.53	3838.6	
811.7	3502	
811.87	3280.2	
812.05	4433.2	
812.22	4340.3	
812.39	2905.4	
812.57	2764.8	
812.74	4386.1	
812.92	5464	
813.09	3108.1	
813.26	3267.2	
813.44	5280.3	
813.61	4217.5	
813.78	2663	
813.96	3345.7	
814.13	4361.5	
814.3	4145.1	
814.48	3663.8	
814.65	3067.2	
814.82	5044.1	
815	4059.1	
815.17	3149.1	
815.34	3709.6	
815.52	4278.9	
815.69	4213.4	
815.87	3122.5	
816.04	3080.8	
816.21	4310.3	
816.38	3969.6	
816.56	3019.4	
816.73	2886.3	
816.9	5296	
817.08	4825.7	
817.25	2960.7	
817.42	3512.3	
817.6	4022.9	
817.77	4306.2	
817.94	3239.2	
818.12	2810.5	
818.29	4171	
818.46	5894.1	
818.64	3024.8	
818.81	2843.9	
818.98	4186.7	
819.16	5595.7	
819.33	3332	
819.5	3186	
819.67	4570.4	
819.85	5003.2	
820.02	3138.2	
820.19	3280.8	
820.37	4465.3	
820.54	4171.7	
820.71	3192.1	
820.88	3843.4	
821.06	4482.3	
821.23	4117.1	
821.4	3272.7	
821.58	3222.8	
821.75	4777.9	
821.92	4474.1	
822.09	2702.6	
822.27	2743.6	
822.44	4300.1	
822.61	4267.3	
822.79	2714.2	
822.96	4702.8	
823.13	4567.7	
823.3	4052.9	
823.48	3057.6	
823.65	2725.2	
823.82	4868	
823.99	4050.2	
824.17	3763.5	
824.34	2752.5	
824.51	5468.1	
824.68	4367	
824.86	2911.5	
825.03	3205.1	
825.2	4320.5	
825.37	4973.2	
825.55	2968.9	
825.72	3077.4	
825.89	5418.2	
826.06	5043.5	
826.24	3056.3	
826.41	3056.9	
826.58	5119.2	
826.75	4491.9	
826.92	2548.4	
827.1	2794.8	
827.27	6596.5	
827.44	5390.9	
827.61	2951.8	
827.79	3460.4	
827.96	4164.9	
828.13	4354	
828.3	3037.8	
828.47	2585.2	
828.65	4627	
828.82	4516.5	
828.99	3773.7	
829.16	3309.5	
829.34	4812.7	
829.51	4734.2	
829.68	3182.5	
829.85	3173.7	
830.02	5079	
830.2	4840	
830.37	2526.5	
830.54	3657	
830.71	5349.3	
830.88	4334.2	
831.05	2540.8	
831.23	2875.3	
831.4	5230.5	
831.57	5593	
831.74	2975.7	
831.91	2613.9	
832.09	4623.6	
832.26	4764.9	
832.43	2966.1	
832.6	3334.1	
832.77	4563.6	
832.94	5117.2	
833.12	2517.6	
833.29	2927.2	
833.46	4661.2	
833.63	5778.7	
833.8	3253.5	
833.97	2988	
834.15	4889.2	
834.32	4649.6	
834.49	3130	
834.66	3174.4	
834.83	4827.1	
835	4174.4	
835.17	2901.3	
835.35	2894.5	
835.52	4805.2	
835.69	4649.6	
835.86	3101.3	
836.03	2511.5	
836.2	4814.8	
836.37	4552.6	
836.55	2949.8	
836.72	2822.8	
836.89	4481	
837.06	4937	
837.23	3099.9	
837.4	3266.5	
837.57	5365	
837.75	5737	
837.92	2783.9	
838.09	2949.8	
838.26	4496.7	
838.43	4949.9	
838.6	3100.6	
838.77	2798.2	
838.94	5501.5	
839.11	5421	
839.29	3059.7	
839.46	2441.2	
839.63	4816.8	
839.8	4575.2	
839.97	2912.9	
840.14	2904	
840.31	4692.6	
840.48	4759.5	
840.65	2490.3	
840.82	2868.5	
841	4776.5	
841.17	4698.7	
841.34	2733.4	
841.51	2773.6	
841.68	4773.1	
841.85	4601.1	
842.02	2785.2	
842.19	2435	
842.36	4666	
842.53	4661.2	
842.7	2738.8	
842.87	3219.4	
843.05	5788.2	
843.22	4529.4	
843.39	2643.2	
843.56	2836.4	
843.73	4478.9	
843.9	4865.3	
844.07	4144.4	
844.24	3500.7	
844.41	6418.3	
844.58	4219.5	
844.75	2615.3	
844.92	2846.7	
845.09	4750.6	
845.26	4807.9	
845.43	2729.9	
845.6	2816	
845.77	4815.5	
845.94	4608.6	
846.12	2986.6	
846.29	3112.9	
846.46	4981.3	
846.63	4786.1	
846.8	2703.3	
846.97	3190.1	
847.14	5103.5	
847.31	4810.7	
847.48	3021.4	
847.65	3317	
847.82	4939.7	
847.99	4878.3	
848.16	3506.8	
848.33	3219.4	
848.5	4438.6	
848.67	5098.1	
848.84	2660.3	
849.01	2769.5	
849.18	4426.3	
849.35	4151.9	
849.52	3300	
849.69	2651.4	
849.86	4962.9	
850.03	5040.7	
850.2	2710.1	
850.37	3229	
850.54	4984.8	
850.71	4558.1	
850.88	3220.8	
851.05	2689	
851.22	4688.5	
851.39	5102.9	
851.56	2518.3	
851.73	3026.9	
851.9	4280.9	
852.07	4952.7	
852.24	2975	
852.41	2693.8	
852.58	4725.3	
852.75	4377.2	
852.92	2967.5	
853.09	2674.6	
853.26	4391.5	
853.43	5083.7	
853.6	2689	
853.77	2347.7	
853.94	5175.9	
854.11	4237.9	
854.28	3825.6	
854.44	2880.1	
854.61	5427.1	
854.78	5001.8	
854.95	2634.4	
855.12	3269.9	
855.29	3956	
855.46	5293.3	
855.63	2719	
855.8	3637.2	
855.97	4427	
856.14	5012.7	
856.31	3658.4	
856.48	2878.1	
856.65	4544.4	
856.82	4229.7	
856.99	2627.5	
857.16	2872.6	
857.33	5610.8	
857.49	4534.9	
857.66	2824.8	
857.83	3038.5	
858	4554.7	
858.17	4642.7	
858.34	2606.4	
858.51	2717.7	
858.68	5173.9	
858.85	5174.5	
859.02	3134.1	
859.19	3193.5	
859.36	4303.5	
859.52	4300.1	
859.69	2698.5	
859.86	3133.4	
860.03	4326.7	
860.2	5162.2	
860.37	2463	
860.54	2729.3	
860.71	4924	
860.88	5119.2	
861.05	2955.2	
861.21	3263.1	
861.38	5172.5	
861.55	4130.1	
861.72	2515.6	
861.89	3025.5	
862.06	4945.8	
862.23	5225.1	
862.4	2647.3	
862.56	2750.4	
862.73	4809.3	
862.9	4571.1	
863.07	3117	
863.24	2531.3	
863.41	4247.5	
863.58	4328	
863.75	2736.1	
863.91	3078.1	
864.08	5076.9	
864.25	4858.5	
864.42	3297.9	
864.59	3651.5	
864.76	5395.7	
864.93	4259.8	
865.09	2634.4	
865.26	2852.1	
865.43	5108.3	
865.6	5309.7	
865.77	2400.9	
865.94	2672.6	
866.1	5030.5	
866.27	4866	
866.44	3875.4	
866.61	2575	
866.78	4546.5	
866.95	4853	
867.11	2650.8	
867.28	2430.3	
867.45	5055.8	
867.62	4287.8	
867.79	3020.1	
867.96	2712.9	
868.12	4259.8	
868.29	4879.6	
868.46	2717.7	
868.63	3462.4	
868.8	5002.5	
868.97	4874.2	
869.13	2788	
869.3	2783.9	
869.47	4846.9	
869.64	5030.5	
869.81	2709.5	
869.97	2709.5	
870.14	4727.4	
870.31	5231.9	
870.48	2596.1	
870.65	3261.7	
870.81	4541	
870.98	4549.2	
871.15	3012.6	
871.32	2745	
871.48	4833.9	
871.65	5203.2	
871.82	2661.7	
871.99	2977.1	
872.16	5524.7	
872.32	5133.6	
872.49	2768.2	
872.66	2721.8	
872.83	4915.1	
872.99	4455	
873.16	3030.3	
873.33	2661	
873.5	4639.3	
873.67	4652.3	
873.83	2818.7	
874	3470.6	
874.17	4770.4	
874.34	5385.5	
874.5	3386	
874.67	3241.9	
874.84	5225.7	
875.01	4166.9	
875.17	3624.9	
875.34	2695.8	
875.51	4700.1	
875.68	5552	
875.84	3185.3	
876.01	3709.6	
876.18	4883.7	
876.34	4853	
876.51	2725.8	
876.68	2690.3	
876.85	4501.4	
877.01	5083.1	
877.18	3698.6	
877.35	2667.1	
877.52	4713.1	
877.68	4207.2	
877.85	2656.2	
878.02	2673.3	
878.18	4552	
878.35	4412.7	
878.52	2211.8	
878.69	3129.3	
878.85	5029.8	
879.02	4878.9	
879.19	3676.1	
879.35	2878.1	
879.52	4957.4	
879.69	4937.7	
879.86	2415.9	
880.02	2962.7	
880.19	4558.8	
880.36	5397.8	
880.52	3050.1	
880.69	3188.7	
880.86	4947.9	
881.02	4978.6	
881.19	2932.7	
881.36	2865.8	
881.52	4906.3	
881.69	4398.4	
881.86	2880.1	
882.02	2824.1	
882.19	5025	
882.36	5745.2	
882.52	2777	
882.69	3678.8	
882.86	4683	
883.02	4747.2	
883.19	3216	
883.36	3004.4	
883.52	4973.2	
883.69	5548.6	
883.86	2729.3	
884.02	2522.4	
884.19	4869.4	
884.36	4624.3	
884.52	3005.7	
884.69	2816	
884.86	4450.2	
885.02	5248.3	
885.19	2949.1	
885.36	3032.4	
885.52	4576.5	
885.69	4779.3	
885.86	3775.1	
886.02	3340.2	
886.19	4975.2	
886.35	4432.5	
886.52	2967.5	
886.69	3682.9	
886.85	4336.9	
887.02	5124	
887.19	5124	
887.35	5124	
887.52	5124	
887.68	5124	
887.85	5124	
888.02	5124	
888.18	5124	
888.35	5124	
888.51	5124	
888.68	5124	
888.85	5124	
889.01	5124	
889.18	5124	
889.35	5124	
889.51	5124	
889.68	5124	
889.84	5124	
890.01	5124	
890.17	5124	
890.34	5124	
890.51	5124	
890.67	5124	
890.84	5124	
891	5124	
891.17	5124	
891.34	5124	
891.5	5124	
891.67	5124	
891.83	5124	
892	5124	
892.16	5124	
892.33	5124	
892.5	5124	
892.66	5124	
892.83	5124	
892.99	5124	
893.16	5124	
893.32	5124	
893.49	5124	
893.65	5124	
893.82	5124	
893.99	5124	
894.15	5124	
894.32	5124	
894.48	5124	
894.65	5124	
894.81	5124	
894.98	5124	
895.14	5124	
895.31	5124	
895.47	5124	
895.64	5124	
895.81	5124	
895.97	5124	
896.14	5124	
896.3	5124	
896.47	5124	
896.63	5124	
896.8	5124	
896.96	5124	
897.13	5124	
897.29	5124	
897.46	5124	
897.62	5124	
897.79	5124	
897.95	5124	
898.12	5124	
898.28	5124	
898.45	5124	
898.61	5124	
898.78	5124	
898.94	5124	
899.11	5124	
899.27	5124	
899.44	5124	
899.6	5124	
899.77	5124	
899.93	5124	
900.1	5124	
900.26	5124	
900.43	5124	
900.59	5124	
900.76	5124	
900.92	5124	
901.09	5124	
901.25	5124	
901.42	5124	
901.58	5124	
901.75	5124	
901.91	5124	
902.07	5124	
902.24	5124	
902.4	5124	
902.57	5124	
902.73	5124	
902.9	5124	
903.06	5124	
903.23	5124	
903.39	5124	
903.56	5124	
903.72	5124	
903.88	5124	
904.05	5124	
904.21	5124	
904.38	5124	
904.54	5124	
904.71	5124	
904.87	5124	
905.03	5124	
905.2	5124	
905.36	5124	
905.53	5124	
905.69	5124	
905.86	5124	
906.02	5124	
906.18	5124	
906.35	5124	
906.51	5124	
906.68	5124	
906.84	5124	
907.01	5124	
907.17	5124	
907.33	5124	
907.5	5124	
907.66	5124	
907.83	5124	
907.99	5124	
908.15	5124	
908.32	5124	
908.48	5124	
908.65	5124	
908.81	5124	
908.97	5124	
909.14	5124	
909.3	5124	
909.47	5124	
909.63	5124	
909.79	5124	
909.96	5124	
910.12	5124	
910.28	5124	
910.45	5124	
910.61	5124	
910.78	5124	
910.94	5124	
911.1	5124	
911.27	5124	
911.43	5124	
911.59	5124	
911.76	5124	
911.92	5124	
912.08	5124	
912.25	5124	
912.41	5124	
912.57	5124	
912.74	5124	
912.9	5124	
913.07	5124	
913.23	5124	
913.39	5124	
913.56	5124	
913.72	5124	
913.88	5124	
914.05	5124	
914.21	5124	
914.37	5124	
914.54	5124	
914.7	5124	
914.86	5124	
915.03	5124	
915.19	5124	
