Wavelength	Intensities	
nm	a.u.	
179.22	1720.5	
179.44	1709.7	
179.65	1731.2	
179.86	1688.2	
180.08	1721	
180.29	3781.9	
180.51	2985.9	
180.72	4907.6	
180.94	5488.6	
181.15	2643.2	
181.37	2704	
181.58	4764.3	
181.79	4982	
182.01	2802.3	
182.22	2931.3	
182.44	4986.1	
182.65	4317.1	
182.87	3573	
183.08	3213.9	
183.29	5193.6	
183.51	4361.5	
183.72	2856.9	
183.94	4050.2	
184.15	4646.2	
184.37	4620.9	
184.58	2611.8	
184.79	3401	
185.01	4439.3	
185.22	5020.3	
185.44	3545.7	
185.65	3166.2	
185.86	4701.5	
186.08	4303.5	
186.29	2583.9	
186.51	2757.9	
186.72	4450.2	
186.94	5030.5	
187.15	3075.4	
187.36	3200.3	
187.58	6229.9	
187.79	4777.2	
188.01	3268.6	
188.22	4928.1	
188.43	5541.8	
188.65	4941.1	
188.86	2813.9	
189.08	3251.5	
189.29	4530.1	
189.5	4529.4	
189.72	2983.9	
189.93	3050.8	
190.15	5078.3	
190.36	5883.1	
190.57	3282.9	
190.79	3087	
191	5078.3	
191.22	5103.5	
191.43	3205.1	
191.64	2792.1	
191.86	5267.4	
192.07	5079	
192.29	2861	
192.5	3012.6	
192.71	5067.4	
192.93	4508.3	
193.14	2978.4	
193.35	3037.1	
193.57	4479.6	
193.78	5084.4	
194	2451.4	
194.21	2867.8	
194.42	4362.9	
194.64	4691.9	
194.85	3152.5	
195.07	3665.9	
195.28	4697.4	
195.49	4199	
195.71	3794.9	
195.92	2828.2	
196.13	4878.9	
196.35	4885.8	
196.56	4014	
196.78	3182.5	
196.99	5848.3	
197.2	5499.5	
197.42	3554.6	
197.63	3192.1	
197.84	4289.1	
198.06	4805.2	
198.27	3007.8	
198.48	3844.7	
198.7	4528.1	
198.91	4713.7	
199.13	3218.7	
199.34	3195.5	
199.55	5077.6	
199.77	4161.5	
199.98	2878.8	
200.19	3281.5	
200.41	4690.5	
200.62	4366.3	
200.83	3308.2	
201.05	3543	
201.26	4681	
201.47	4448.9	
201.69	2897.2	
201.9	2836.4	
202.11	4687.1	
202.33	5348.6	
202.54	3054.2	
202.76	3405.1	
202.97	4745.1	
203.18	4833.9	
203.4	3353.9	
203.61	3375.1	
203.82	4728.8	
204.04	4461.2	
204.25	3225.6	
204.46	3158	
204.68	4724.7	
204.89	4853	
205.1	3112.9	
205.32	2766.1	
205.53	4944.5	
205.74	5067.4	
205.96	2437.1	
206.17	3287.7	
206.38	4894	
206.6	4967	
206.81	3644	
207.02	3018.7	
207.24	4887.8	
207.45	5102.9	
207.66	3122.5	
207.88	2754.5	
208.09	4805.9	
208.3	4687.8	
208.52	2925.9	
208.73	3158.7	
208.94	4683	
209.15	5174.5	
209.37	3086.3	
209.58	3142.9	
209.79	5036	
210.01	4541	
210.22	2610.5	
210.43	2684.2	
210.65	4644.1	
210.86	4949.3	
211.07	3105.4	
211.29	2826.9	
211.5	4853.7	
211.71	4632.5	
211.93	2902.7	
212.14	2847.4	
212.35	4685.1	
212.56	4735.6	
212.78	3202.3	
212.99	2696.5	
213.2	5404.6	
213.42	4536.9	
213.63	2960	
213.84	3120.4	
214.06	4242	
214.27	4302.1	
214.48	3042.6	
214.69	3309.5	
214.91	5161.6	
215.12	5150.6	
215.33	3267.2	
215.55	3480.9	
215.76	5588.9	
215.97	4927.4	
216.18	3149.8	
216.4	3118.4	
216.61	4401.1	
216.82	5074.2	
217.04	2884.9	
217.25	2960	
217.46	5167.7	
217.67	4971.8	
217.89	2605	
218.1	2697.9	
218.31	4742.4	
218.53	4835.9	
218.74	3005.1	
218.95	2923.8	
219.16	4635.2	
219.38	5350	
219.59	2927.9	
219.8	3433.8	
220.01	5776	
220.23	4705.5	
220.44	3653.6	
220.65	2867.2	
220.87	4728.8	
221.08	5178.6	
221.29	2732	
221.5	3474	
221.72	6058.6	
221.93	4392.9	
222.14	3268.6	
222.35	3751.9	
222.57	4714.4	
222.78	4996.4	
222.99	3071.3	
223.2	3285.6	
223.42	4877.6	
223.63	4932.2	
223.84	2466.4	
224.05	2455.5	
224.27	5738.4	
224.48	5266.7	
224.69	3764.8	
224.9	3252.9	
225.12	4842.8	
225.33	4641.4	
225.54	2648.7	
225.75	2929.3	
225.97	4412.7	
226.18	4601.8	
226.39	3122.5	
226.6	2918.4	
226.82	4558.1	
227.03	4356	
227.24	3275.4	
227.45	2770.9	
227.67	4953.4	
227.88	5320.6	
228.09	3549.8	
228.3	3586.7	
228.52	4965.6	
228.73	4602.5	
228.94	3023.5	
229.15	2727.9	
229.36	4687.8	
229.58	4638	
229.79	3103.4	
230	3482.2	
230.21	5499.5	
230.43	4666.6	
230.64	3175.7	
230.85	3269.2	
231.06	4994.3	
231.28	4999.8	
231.49	2705.4	
231.7	3226.9	
231.91	4941.7	
232.12	4762.9	
232.34	2862.4	
232.55	3099.9	
232.76	5141.1	
232.97	4803.9	
233.18	2903.3	
233.4	3198.2	
233.61	4826.4	
233.82	4580.6	
234.03	3064.4	
234.25	3003.7	
234.46	6146	
234.67	4678.9	
234.88	3243.3	
235.09	2932	
235.31	4812.7	
235.52	4566.3	
235.73	3160	
235.94	2766.8	
236.15	4471.4	
236.37	5485.8	
236.58	2871.3	
236.79	3134.8	
237	4863.2	
237.21	4278.9	
237.43	3302	
237.64	2711.5	
237.85	7565.9	
238.06	4401.1	
238.27	3247.4	
238.48	2809.1	
238.7	4965.6	
238.91	4541	
239.12	3096.5	
239.33	3179.8	
239.54	4416.1	
239.76	4616.1	
239.97	3094.5	
240.18	3075.4	
240.39	5563	
240.6	4782	
240.82	3231.7	
241.03	2765.4	
241.24	4685.8	
241.45	5290.6	
241.66	2860.3	
241.87	3336.1	
242.09	5227.1	
242.3	5461.2	
242.51	3326.6	
242.72	3099.3	
242.93	4949.9	
243.14	4606.6	
243.36	3539.6	
243.57	3821.5	
243.78	5253.7	
243.99	4930.8	
244.2	3131.3	
244.41	2861	
244.63	4331.5	
244.84	4859.1	
245.05	3280.2	
245.26	3048.1	
245.47	4902.8	
245.68	5057.8	
245.9	3992.9	
246.11	3227.6	
246.32	4522.6	
246.53	4857.8	
246.74	4822.3	
246.95	2669.2	
247.16	4380.6	
247.38	4687.1	
247.59	2708.8	
247.8	3104.7	
248.01	4356	
248.22	4601.8	
248.43	2850.1	
248.64	3076.7	
248.86	4280.3	
249.07	4509.6	
249.28	2776.4	
249.49	3177.8	
249.7	5104.2	
249.91	5044.8	
250.12	2673.3	
250.34	2740.9	
250.55	4838	
250.76	4634.6	
250.97	3212.6	
251.18	3220.1	
251.39	5138.4	
251.6	4853	
251.81	3219.4	
252.03	3222.8	
252.24	4507.6	
252.45	5033.9	
252.66	2717.7	
252.87	3431	
253.08	4721.3	
253.29	5760.9	
253.5	2811.2	
253.72	3724.6	
253.93	4597.7	
254.14	5430.5	
254.35	2951.8	
254.56	3069.2	
254.77	4831.8	
254.98	4379.9	
255.19	2989.4	
255.41	3715	
255.62	4795.7	
255.83	5122.7	
256.04	3375.7	
256.25	3190.1	
256.46	5555.5	
256.67	4466.6	
256.88	3205.1	
257.09	3498.6	
257.31	4394.9	
257.52	4424.3	
257.73	3921.2	
257.94	3005.1	
258.15	4617.5	
258.36	4603.2	
258.57	3678.8	
258.78	2462.3	
258.99	5049.6	
259.2	4577.2	
259.41	3009.1	
259.63	3061.7	
259.84	5269.4	
260.05	5478.3	
260.26	3780.6	
260.47	2868.5	
260.68	5073.5	
260.89	4564.9	
261.1	3489.7	
261.31	2867.2	
261.52	5154.1	
261.73	5375.2	
261.95	3773.7	
262.16	3314.3	
262.37	5141.8	
262.58	5252.4	
262.79	3726.6	
263	2998.9	
263.21	4693.3	
263.42	4240	
263.63	3233.1	
263.84	3044.6	
264.05	5041.4	
264.26	5271.5	
264.47	3646.1	
264.69	3202.3	
264.9	5287.9	
265.11	4826.4	
265.32	2884.9	
265.53	2932	
265.74	4758.1	
265.95	4225.6	
266.16	3122.5	
266.37	3446	
266.58	4806.6	
266.79	4493.9	
267	3012.6	
267.21	2834.4	
267.42	4317.8	
267.63	4711.7	
267.84	3084.2	
268.06	2737.5	
268.27	5036.6	
268.48	5117.2	
268.69	3074	
268.9	3497.2	
269.11	5184.1	
269.32	4259.1	
269.53	3092.4	
269.74	2891	
269.95	4813.4	
270.16	4249.5	
270.37	3104	
270.58	3540.9	
270.79	4562.2	
271	4999.8	
271.21	3301.3	
271.42	3117.7	
271.63	4810	
271.84	4315.1	
272.05	2583.2	
272.26	2839.8	
272.47	4704.2	
272.68	4812.7	
272.89	3066.5	
273.11	3355.9	
273.32	4484.4	
273.53	5302.9	
273.74	3291.1	
273.95	3204.4	
274.16	5016.2	
274.37	4667.3	
274.58	3422.2	
274.79	2750.4	
275	4814.8	
275.21	5107	
275.42	4031.1	
275.63	3469.3	
275.84	4893.3	
276.05	5916.6	
276.26	3272.7	
276.47	3087.7	
276.68	4610	
276.89	5416.9	
277.1	3468.6	
277.31	2738.1	
277.52	4828.4	
277.73	5111.7	
277.94	2745	
278.15	3020.1	
278.36	4845.5	
278.57	4442.7	
278.78	2983.2	
278.99	3324.5	
279.2	4503.5	
279.41	4398.4	
279.62	3909.6	
279.83	2803.7	
280.04	5501.5	
280.25	4348.5	
280.46	3850.9	
280.67	3121.8	
280.88	4436.6	
281.09	5127.4	
281.3	3229	
281.51	3950.5	
281.72	4483	
281.93	5031.2	
282.14	2949.1	
282.35	3168.9	
282.56	5101.5	
282.77	4984.1	
282.98	2998.9	
283.19	3625.6	
283.4	5943.2	
283.61	4640	
283.82	2820.1	
284.03	3764.2	
284.24	4864.6	
284.45	5111	
284.66	3794.9	
284.87	3559.4	
285.08	5095.3	
285.29	5222.3	
285.5	2742.9	
285.71	3035.8	
285.92	5054.4	
286.12	5582.8	
286.33	3748.5	
286.54	3152.5	
286.75	5003.2	
286.96	4638.6	
287.17	2824.1	
287.38	3654.3	
287.59	4463.9	
287.8	4485.7	
288.01	3068.5	
288.22	3396.2	
288.43	4929.5	
288.64	4225.6	
288.85	3536.8	
289.06	3393.5	
289.27	5016.2	
289.48	5313.8	
289.69	3857	
289.9	3456.3	
290.11	5184.8	
290.32	4518.5	
290.53	3540.9	
290.74	3352.5	
290.94	5005.9	
291.15	5054.4	
291.36	2960.7	
291.57	3474	
291.78	4550.6	
291.99	4241.3	
292.2	2860.3	
292.41	3328.6	
292.62	5056.4	
292.83	4900.1	
293.04	4056.3	
293.25	2911.5	
293.46	4603.8	
293.67	5071.5	
293.88	2962.7	
294.09	2837.8	
294.29	4391.5	
294.5	4779.3	
294.71	3119.7	
294.92	2934.7	
295.13	4556	
295.34	5477	
295.55	2762.7	
295.76	2624.8	
295.97	4962.9	
296.18	5480.4	
296.39	2800.9	
296.6	2977.7	
296.81	4700.1	
297.01	4975.2	
297.22	3082.9	
297.43	2968.9	
297.64	4569.7	
297.85	4433.9	
298.06	2523.8	
298.27	2688.3	
298.48	4627	
298.69	4513.7	
298.9	3200.3	
299.11	2852.1	
299.31	4357.4	
299.52	4350.6	
299.73	3354.6	
299.94	3276.8	
300.15	4717.8	
300.36	4431.1	
300.57	3325.9	
300.78	3304.7	
300.99	4586.8	
301.2	4756.1	
301.4	2951.8	
301.61	3157.3	
301.82	4942.4	
302.03	5038.7	
302.24	3535.5	
302.45	2809.1	
302.66	4874.8	
302.87	5182.7	
303.08	2990	
303.29	3911.6	
303.49	4543.8	
303.7	4656.4	
303.91	2651.4	
304.12	3706.1	
304.33	4244.1	
304.54	4754	
304.75	2956.6	
304.96	2871.9	
305.16	4912.4	
305.37	5409.4	
305.58	2706.7	
305.79	2669.2	
306	4925.4	
306.21	4257	
306.42	2995.5	
306.63	4315.1	
306.83	4568.3	
307.04	4986.8	
307.25	3241.9	
307.46	3203.7	
307.67	4148.5	
307.88	4975.9	
308.09	2957.9	
308.29	2960.7	
308.5	4748.6	
308.71	5074.9	
308.92	3122.5	
309.13	2882.9	
309.34	4655	
309.55	4622.9	
309.75	3603.1	
309.96	3260.4	
310.17	5014.1	
310.38	4485.1	
310.59	3453.6	
310.8	2770.2	
311.01	5411.4	
311.21	4616.1	
311.42	2834.4	
311.63	2915.6	
311.84	4545.1	
312.05	4751.3	
312.26	3257	
312.46	3421.5	
312.67	4616.8	
312.88	4349.2	
313.09	2863.1	
313.3	2830.3	
313.51	5276.3	
313.71	5429.8	
313.92	2882.9	
314.13	2994.1	
314.34	4848.9	
314.55	4718.5	
314.76	3544.4	
314.96	3179.1	
315.17	4808.6	
315.38	4838	
315.59	2893.1	
315.8	2730.6	
316.01	5214.1	
316.21	5362.9	
316.42	2852.1	
316.63	3152.5	
316.84	4592.2	
317.05	5103.5	
317.26	3274.7	
317.46	3026.9	
317.67	4681	
317.88	4934.2	
318.09	3590.8	
318.3	2750.4	
318.5	4518.5	
318.71	4852.3	
318.92	4431.1	
319.13	3338.2	
319.34	5014.1	
319.54	5107	
319.75	2710.8	
319.96	2630.3	
320.17	4906.3	
320.38	5092.6	
320.58	2646.7	
320.79	3107.5	
321	5162.9	
321.21	5213.4	
321.42	3140.9	
321.62	2657.6	
321.83	4457.7	
322.04	4720.6	
322.25	3034.4	
322.46	2889.7	
322.66	4730.8	
322.87	4888.5	
323.08	3419.4	
323.29	2819.4	
323.5	5464.7	
323.7	4347.2	
323.91	3796.3	
324.12	3349.1	
324.33	4823	
324.53	4914.4	
324.74	3297.2	
324.95	3373.7	
325.16	4306.9	
325.37	4529.4	
325.57	2837.1	
325.78	2887.6	
325.99	4819.6	
326.2	4289.1	
326.4	3885.7	
326.61	2684.9	
326.82	4676.2	
327.03	4739.7	
327.24	3898	
327.44	3646.1	
327.65	4931.5	
327.86	4097.3	
328.07	3321.8	
328.27	2782.5	
328.48	5194.3	
328.69	4368.3	
328.9	3884.3	
329.1	3029.6	
329.31	4670.1	
329.52	5153.4	
329.73	2882.9	
329.93	3112.2	
330.14	4729.4	
330.35	4845.5	
330.56	4497.3	
330.76	3435.1	
330.97	4547.9	
331.18	4832.5	
331.39	3168.2	
331.59	2599.6	
331.8	5109	
332.01	5156.8	
332.22	2946.3	
332.42	3269.9	
332.63	4782	
332.84	4429.1	
333.05	3200.3	
333.25	2888.3	
333.46	4508.3	
333.67	4664.6	
333.88	3011.9	
334.08	3252.2	
334.29	5941.8	
334.5	5129.5	
334.7	2839.2	
334.91	3912.3	
335.12	4289.1	
335.33	4964.3	
335.53	3170.3	
335.74	4415.4	
335.95	4527.4	
336.16	4363.5	
336.36	3058.3	
336.57	3581.9	
336.78	4280.9	
336.98	5089.2	
337.19	3753.2	
337.4	3124.5	
337.61	5522	
337.81	4349.9	
338.02	2967.5	
338.23	3609.2	
338.43	5266	
338.64	4463.2	
338.85	2922.5	
339.05	3665.9	
339.26	5343.2	
339.47	4257	
339.68	2883.5	
339.88	4040	
340.09	4904.9	
340.3	4963.6	
340.5	3303.4	
340.71	2622.1	
340.92	4356.7	
341.13	5193	
341.33	2773.6	
341.54	3338.9	
341.75	4856.4	
341.95	4537.6	
342.16	3212.6	
342.37	3405.1	
342.57	4397	
342.78	4629.8	
342.99	3504.8	
343.19	2624.8	
343.4	5013.4	
343.61	4873.5	
343.81	3011.2	
344.02	2788	
344.23	4986.8	
344.43	5234.6	
344.64	3519.8	
344.85	3424.2	
345.06	4954	
345.26	5068.7	
345.47	3291.8	
345.68	3814	
345.88	4218.8	
346.09	4981.3	
346.3	3379.1	
346.5	2575	
346.71	4586.8	
346.92	4470.7	
347.12	2723.8	
347.33	3197.6	
347.54	5067.4	
347.74	5330.2	
347.95	3243.3	
348.16	2547	
348.36	4543.8	
348.57	4402.5	
348.78	3295.9	
348.98	3439.9	
349.19	4678.2	
349.39	4245.4	
349.6	2740.2	
349.81	2967.5	
350.01	4909	
350.22	4448.2	
350.43	3192.8	
350.63	3711.6	
350.84	4670.1	
351.05	4521.2	
351.25	2893.1	
351.46	2674.6	
351.67	5017.5	
351.87	4425	
352.08	3059.7	
352.29	3422.8	
352.49	5038.7	
352.7	5021.6	
352.9	2805.7	
353.11	3424.9	
353.32	5395	
353.52	4556.7	
353.73	2842.6	
353.94	3465.8	
354.14	4891.2	
354.35	4674.8	
354.55	2882.2	
354.76	3148.4	
354.97	4871.4	
355.17	4650.9	
355.38	2785.9	
355.59	3629.7	
355.79	4438.6	
356	4656.4	
356.2	3061	
356.41	2796.8	
356.62	4275.5	
356.82	4640	
357.03	3379.8	
357.24	3056.9	
357.44	4451.6	
357.65	4552	
357.85	3935.5	
358.06	3178.4	
358.27	4252.3	
358.47	4353.3	
358.68	2727.2	
358.88	3343.7	
359.09	4816.1	
359.3	5040.1	
359.5	3827	
359.71	3499.3	
359.91	5390.9	
360.12	4915.8	
360.33	3355.3	
360.53	3641.3	
360.74	4501.4	
360.94	4474.8	
361.15	3500	
361.36	2916.3	
361.56	5057.8	
361.77	4657.8	
361.97	3782.6	
362.18	3113.6	
362.38	5071.5	
362.59	4351.9	
362.8	2930	
363	2816.6	
363.21	4186	
363.41	4680.3	
363.62	3276.8	
363.83	3931.4	
364.03	4825.7	
364.24	5391.6	
364.44	4073.4	
364.65	4061.1	
364.85	4628.4	
365.06	4391.5	
365.27	3006.4	
365.47	3047.4	
365.68	5320.6	
365.88	4662.5	
366.09	3366.9	
366.29	3115.6	
366.5	4756.7	
366.71	5033.9	
366.91	3968.3	
367.12	3423.5	
367.32	5520.6	
367.53	4955.4	
367.73	3463.1	
367.94	4131.4	
368.14	4993.6	
368.35	5536.3	
368.56	3408.5	
368.76	2961.4	
368.97	5093.3	
369.17	6153.5	
369.38	3038.5	
369.58	3290.4	
369.79	4296	
369.99	5270.1	
370.2	4044.7	
370.4	3368.9	
370.61	4797	
370.82	5771.9	
371.02	3259.7	
371.23	2767.5	
371.43	4349.2	
371.64	5332.9	
371.84	3280.8	
372.05	4027	
372.25	6115.2	
372.46	4933.6	
372.66	3240.6	
372.87	3237.8	
373.07	5032.5	
373.28	6163	
373.48	3997.6	
373.69	3738.9	
373.9	4694.6	
374.1	4747.9	
374.31	3947.1	
374.51	3583.3	
374.72	5239.4	
374.92	4498	
375.13	4010.6	
375.33	3509.5	
375.54	4962.2	
375.74	4584	
375.95	3605.1	
376.15	4401.8	
376.36	5035.3	
376.56	4915.8	
376.77	3623.5	
376.97	3874.1	
377.18	5818.3	
377.38	5121.3	
377.59	4116.4	
377.79	3257	
378	4898.7	
378.2	5184.8	
378.41	3263.1	
378.61	3212.6	
378.82	5321.3	
379.02	4696.7	
379.23	3426.9	
379.43	4153.3	
379.64	5432.6	
379.84	5109.7	
380.05	3347.7	
380.25	3282.9	
380.46	5143.8	
380.66	4801.1	
380.87	4229.1	
381.07	4417.5	
381.28	5616.2	
381.48	5132.9	
381.69	3311.6	
381.89	3329.3	
382.1	4400.4	
382.3	5176.6	
382.51	4131.4	
382.71	4769	
382.91	5073.5	
383.12	5483.8	
383.32	3554.6	
383.53	3717.7	
383.73	5051	
383.94	4913.1	
384.14	3665.2	
384.35	3094.5	
384.55	4792.2	
384.76	5160.9	
384.96	3607.2	
385.17	3781.9	
385.37	5165.7	
385.58	4603.8	
385.78	3808.5	
385.98	2962	
386.19	4775.2	
386.39	5029.1	
386.6	3365.5	
386.8	3579.2	
387.01	5117.2	
387.21	5145.9	
387.42	3800.3	
387.62	4281.6	
387.83	4693.3	
388.03	4993.6	
388.23	3613.3	
388.44	4091.2	
388.64	4420.2	
388.85	4539	
389.05	3822.2	
389.26	4231.8	
389.46	5940.5	
389.67	5512.4	
389.87	3851.5	
390.07	3865.2	
390.28	4840	
390.48	4584	
390.69	3287	
390.89	3550.5	
391.1	4772.4	
391.3	5399.1	
391.5	4407.2	
391.71	4743.8	
391.91	5293.3	
392.12	5810.1	
392.32	4500.8	
392.53	3869.3	
392.73	4825.7	
392.93	4928.8	
393.14	3674.1	
393.34	4209.9	
393.55	5366.4	
393.75	4946.5	
393.95	3662.5	
394.16	3553.2	
394.36	4801.8	
394.57	5242.1	
394.77	3274	
394.98	3528.7	
395.18	4764.3	
395.38	4777.9	
395.59	4182.6	
395.79	3457.7	
396	4859.8	
396.2	5201.2	
396.4	4080.2	
396.61	3965.6	
396.81	5326.8	
397.02	4741	
397.22	4209.9	
397.42	4329.4	
397.63	5354.8	
397.83	4741	
398.04	3493.2	
398.24	3784	
398.44	5209.3	
398.65	4457.1	
398.85	3340.9	
399.05	3444.7	
399.26	4795	
399.46	5972.6	
399.67	3765.5	
399.87	3571	
400.07	5049.6	
400.28	5258.5	
400.48	3599.6	
400.69	4320.5	
400.89	5393.7	
401.09	5780.1	
401.3	3506.8	
401.5	4313.7	
401.7	5952.1	
401.91	6138.4	
402.11	3865.2	
402.32	3997.6	
402.52	5584.8	
402.72	5447.6	
402.93	4152.6	
403.13	3348.4	
403.33	6040.8	
403.54	5141.1	
403.74	3931.4	
403.94	4507.6	
404.15	5128.8	
404.35	5995.8	
404.56	3661.1	
404.76	4978.6	
404.96	5412.1	
405.17	5257.8	
405.37	4597.7	
405.57	4067.3	
405.78	5506.3	
405.98	5066	
406.18	3746.4	
406.39	4323.3	
406.59	5448.3	
406.79	5121.3	
407	3588.7	
407.2	3642.7	
407.4	5706.3	
407.61	5640.1	
407.81	3642	
408.01	5153.4	
408.22	4698	
408.42	6057.2	
408.62	4426.3	
408.83	4087.1	
409.03	5270.8	
409.23	5160.9	
409.44	4158.7	
409.64	4410.6	
409.84	5917.9	
410.05	5948	
410.25	4281.6	
410.45	4152.6	
410.66	5593	
410.86	7331	
411.06	4517.8	
411.27	4367	
411.47	7141.9	
411.67	5685.2	
411.88	4616.1	
412.08	4719.9	
412.28	6154.8	
412.49	6518.7	
412.69	4463.2	
412.89	4524	
413.09	6483.9	
413.3	6323.4	
413.5	4544.4	
413.7	4300.1	
413.91	5791	
414.11	6418.3	
414.31	4489.1	
414.52	4795.7	
414.72	6290	
414.92	6163	
415.12	4469.4	
415.33	4911.7	
415.53	6476.4	
415.73	6586.3	
415.94	5064.6	
416.14	4629.8	
416.34	5786.9	
416.55	5531.6	
416.75	5565.7	
416.95	5149.3	
417.15	6573.3	
417.36	6943.3	
417.56	5709.1	
417.76	5057.1	
417.97	6746.7	
418.17	6472.9	
418.37	4825	
418.57	4816.8	
418.78	6415.6	
418.98	6171.9	
419.18	5451	
419.38	5288.5	
419.59	6186.2	
419.79	5890.6	
419.99	4718.5	
420.2	4967	
420.4	6578.8	
420.6	6668.2	
420.8	4646.2	
421.01	4550.6	
421.21	6459.3	
421.41	6522.8	
421.61	4901.5	
421.82	4760.2	
422.02	6182.8	
422.22	6726.2	
422.42	5311.7	
422.63	5096	
422.83	6155.5	
423.03	7015	
423.23	5093.3	
423.44	4405.9	
423.64	6212.2	
423.84	5938.4	
424.04	4664.6	
424.25	4413.4	
424.45	6812.9	
424.65	6751.5	
424.85	4289.8	
425.06	4711.7	
425.26	6886	
425.46	6076.3	
425.66	5037.3	
425.87	4812	
426.07	6653.2	
426.27	6546	
426.47	4914.4	
426.67	4457.1	
426.88	6954.2	
427.08	6464.8	
427.28	5071.5	
427.48	4444.1	
427.69	5760.3	
427.89	6166.4	
428.09	5025.7	
428.29	4448.2	
428.5	6640.2	
428.7	6370.5	
428.9	4406.5	
429.1	4739	
429.3	6386.9	
429.51	6477.7	
429.71	4616.1	
429.91	5195	
430.11	6597.9	
430.31	6715.3	
430.52	4833.9	
430.72	5018.2	
430.92	6954.9	
431.12	6474.3	
431.32	4592.2	
431.53	5018.2	
431.73	5858.6	
431.93	7077.8	
432.13	4589.5	
432.33	4514.4	
432.54	6224.5	
432.74	6398.5	
432.94	4423.6	
433.14	5259.2	
433.34	6662	
433.55	6315.9	
433.75	5162.9	
433.95	6428.6	
434.15	6523.5	
434.35	6219.7	
434.56	4672.8	
434.76	4397	
434.96	6399.9	
435.16	6653.9	
435.36	4589.5	
435.56	5401.9	
435.77	6272.9	
435.97	6324.1	
436.17	5877.7	
436.37	5364.3	
436.57	6236.1	
436.78	6174.6	
436.98	5690.6	
437.18	5820.3	
437.38	6689.3	
437.58	6309.1	
437.78	5877.7	
437.99	4955.4	
438.19	6771.3	
438.39	7273	
438.59	4898.7	
438.79	4543.8	
438.99	7246.4	
439.2	6347.3	
439.4	4539.7	
439.6	4558.1	
439.8	6516	
440	7311.9	
440.2	5272.8	
440.4	5367.7	
440.61	6909.2	
440.81	7268.9	
441.01	4816.1	
441.21	5477.6	
441.41	7310.6	
441.61	6912.6	
441.81	5754.1	
442.02	6399.9	
442.22	7616.4	
442.42	7095.5	
442.62	4886.5	
442.82	5025	
443.02	7314	
443.22	6715.3	
443.43	5251.7	
443.63	4900.1	
443.83	6498.9	
444.03	6494.8	
444.23	5856.5	
444.43	5615.5	
444.63	6862.7	
444.83	7673.1	
445.04	5111	
445.24	6012.2	
445.44	7117.4	
445.64	7184.3	
445.84	5638.1	
446.04	5640.1	
446.24	6609.5	
446.44	7372	
446.65	5018.9	
446.85	5323.4	
447.05	6666.1	
447.25	7326.3	
447.45	5405.3	
447.65	4898.7	
447.85	6838.9	
448.05	6507.8	
448.25	5701.5	
448.46	5474.2	
448.66	6797.9	
448.86	6636.1	
449.06	4846.2	
449.26	5655.1	
449.46	7063.4	
449.66	6432	
449.86	5341.8	
450.06	5309.7	
450.26	6616.3	
450.47	6987.7	
450.67	5481	
450.87	5791.7	
451.07	7187	
451.27	6918	
451.47	5065.3	
451.67	5693.4	
451.87	6696.9	
452.07	7509.2	
452.27	5288.5	
452.47	5253	
452.67	6975.4	
452.88	7230	
453.08	4782.7	
453.28	6236.1	
453.48	7846.5	
453.68	6825.2	
453.88	5265.3	
454.08	5362.3	
454.28	7190.4	
454.48	6963.1	
454.68	5729.5	
454.88	6049	
455.08	7334.5	
455.28	7081.2	
455.48	5088.5	
455.68	5567.7	
455.89	7719.5	
456.09	7412.3	
456.29	5441.5	
456.49	5522	
456.69	7651.9	
456.89	7042.3	
457.09	5821	
457.29	6215.6	
457.49	7367.2	
457.69	7413.6	
457.89	5836.7	
458.09	5268.7	
458.29	7171.3	
458.49	7724.9	
458.69	6191	
458.89	5771.2	
459.09	8007.6	
459.29	8064.9	
459.49	5814.9	
459.69	6313.2	
459.9	7596.6	
460.1	7280.5	
460.3	5640.1	
460.5	5478.3	
460.7	7631.4	
460.9	7367.2	
461.1	5285.8	
461.3	6237.4	
461.5	8154.3	
461.7	7767.3	
461.9	5696.1	
462.1	5968.5	
462.3	7568.6	
462.5	7940.7	
462.7	5731.6	
462.9	5837.4	
463.1	8667	
463.3	8453.3	
463.5	6028.5	
463.7	6751.5	
463.9	7776.1	
464.1	8004.1	
464.3	6272.9	
464.5	6386.2	
464.7	8271.7	
464.9	8113.4	
465.1	7336.5	
465.3	6618.4	
465.5	8462.2	
465.7	8549.6	
465.9	6845	
466.1	6670.2	
466.3	8421.9	
466.5	8238.3	
466.7	7372.7	
466.9	6549.4	
467.1	8412.4	
467.3	8958.5	
467.5	7428.7	
467.7	6539.2	
467.9	9239.1	
468.1	9734	
468.3	7092.8	
468.5	7508.5	
468.7	8273.1	
468.9	8274.5	
469.1	6827.2	
469.3	7383.6	
469.5	9763.3	
469.7	8081.3	
469.9	7146	
470.1	6739.9	
470.3	8547.5	
470.5	8497	
470.7	7662.8	
470.9	6865.5	
471.1	8279.9	
471.3	8459.5	
471.5	6695.5	
471.69	8024.6	
471.89	8182.3	
472.09	7796.6	
472.29	7180.2	
472.49	7281.9	
472.69	8069.7	
472.89	8498.4	
473.09	6630	
473.29	6680.5	
473.49	8225.3	
473.69	8217.1	
473.89	7442.3	
474.09	6750.1	
474.29	9048.6	
474.49	8753	
474.69	7242.3	
474.89	6834.8	
475.09	8249.2	
475.29	8228.7	
475.49	6442.2	
475.69	6632	
475.88	9327.1	
476.08	8533.9	
476.28	6369.9	
476.48	6649.1	
476.68	8806.9	
476.88	8555	
477.08	6626.5	
477.28	6783.6	
477.48	8201.4	
477.68	8581	
477.88	6394.4	
478.08	6686.6	
478.28	8843.1	
478.48	8230.8	
478.67	6766.5	
478.87	6304.3	
479.07	8917.5	
479.27	8353	
479.47	6827.9	
479.67	6892.8	
479.87	8657.4	
480.07	9107.3	
480.27	6415.6	
480.47	7483.3	
480.67	8316.8	
480.87	8895	
481.06	6583.5	
481.26	7262.8	
481.46	8402.1	
481.66	8353.7	
481.86	6974.7	
482.06	7571.3	
482.26	8239.7	
482.46	8967.4	
482.66	6866.8	
482.86	6587.6	
483.05	8578.9	
483.25	8048.5	
483.45	8611	
483.65	6941.2	
483.85	8134.5	
484.05	8398	
484.25	7206.1	
484.45	7660.8	
484.65	8903.9	
484.84	9062.3	
485.04	6939.2	
485.24	6935.1	
485.44	9381.7	
485.64	8107.9	
485.84	6477.7	
486.04	7404.8	
486.24	8381	
486.44	8641.7	
486.63	6457.2	
486.83	7118.1	
487.03	8436.9	
487.23	8578.3	
487.43	6483.2	
487.63	8143.4	
487.83	8580.3	
488.02	9125.1	
488.22	7247.1	
488.42	7770.7	
488.62	9316.9	
488.82	8541.4	
489.02	7044.3	
489.22	7121.5	
489.41	9112.8	
489.61	8947.6	
489.81	6888	
490.01	6948.1	
490.21	9211.1	
490.41	9654.1	
490.61	6976.7	
490.8	7032	
491	8926.4	
491.2	8399.4	
491.4	7539.9	
491.6	6918	
491.8	8867	
491.99	8888.2	
492.19	6683.9	
492.39	6906.4	
492.59	9138	
492.79	9096.4	
492.99	7441	
493.18	6893.5	
493.38	9229.5	
493.58	9730.6	
493.78	7419.1	
493.98	7168.6	
494.18	9078.6	
494.37	8845.2	
494.57	7770.7	
494.77	7691.5	
494.97	9401.5	
495.17	9487.6	
495.37	7431.4	
495.56	7631.4	
495.76	9791.3	
495.96	9580.4	
496.16	8452.6	
496.36	7663.5	
496.55	9816.6	
496.75	9357.9	
496.95	8082	
497.15	7921.5	
497.35	9777.7	
497.54	9835.7	
497.74	7787.7	
497.94	8952.4	
498.14	10326	
498.34	10052	
498.53	7609.6	
498.73	8106.5	
498.93	9339.4	
499.13	9794.8	
499.33	8045.1	
499.52	8460.2	
499.72	9871.9	
499.92	9946.3	
500.12	7901.7	
500.32	8047.2	
500.51	10013	
500.71	9833.7	
500.91	8712.1	
501.11	8421.9	
501.31	10054	
501.5	10374	
501.7	8942.8	
501.9	8183	
502.1	9876.7	
502.29	10054	
502.49	8500.4	
502.69	8660.2	
502.89	10044	
503.09	10103	
503.28	7865.6	
503.48	7833.5	
503.68	9559.2	
503.88	9442.5	
504.07	8573.5	
504.27	8095.6	
504.47	9754.5	
504.67	9802.3	
504.86	8401.5	
505.06	8244.4	
505.26	9594.7	
505.46	10666	
505.65	8170	
505.85	8239	
506.05	9432.3	
506.25	9785.2	
506.44	7649.8	
506.64	8194.6	
506.84	9344.2	
507.04	9882.1	
507.23	7796.6	
507.43	8060.1	
507.63	10645	
507.83	9274.6	
508.02	8113.4	
508.22	7755	
508.42	10893	
508.62	9289.6	
508.81	7962.5	
509.01	8441	
509.21	9149.6	
509.4	9392.7	
509.6	8076.5	
509.8	7669.6	
510	9327.1	
510.19	10219	
510.39	7705.1	
510.59	7647.1	
510.79	9301.9	
510.98	10232	
511.18	7789.1	
511.38	7849.2	
511.57	9938.1	
511.77	9810.5	
511.97	8428.8	
512.17	7687.4	
512.36	9932	
512.56	9750.4	
512.76	7665.5	
512.95	7404.8	
513.15	9919	
513.35	8787.8	
513.55	8336.6	
513.74	7655.3	
513.94	9842.5	
514.14	9355.1	
514.33	8446.5	
514.53	8223.3	
514.73	9480.7	
514.92	9495.1	
515.12	7772.7	
515.32	7667.6	
515.51	9736.7	
515.71	9925.1	
515.91	8911.4	
516.11	7740.6	
516.3	10835	
516.5	9424.8	
516.7	8181.6	
516.89	8677.9	
517.09	9423.4	
517.29	9469.1	
517.48	8558.5	
517.68	7909.3	
517.88	9212.4	
518.07	9693	
518.27	8313.4	
518.47	7627.3	
518.66	10113	
518.86	9167.4	
519.06	7531.7	
519.25	7883.3	
519.45	9405.6	
519.65	10437	
519.84	8278.6	
520.04	8712.1	
520.24	10707	
520.43	9798.8	
520.63	8208.9	
520.83	8103.1	
521.02	9436.4	
521.22	9826.2	
521.42	8344.8	
521.61	8680.7	
521.81	9497.8	
522.01	9571.5	
522.2	8148.2	
522.4	7990.5	
522.6	9934.7	
522.79	9054.8	
522.99	8051.9	
523.18	7604.1	
523.38	9719.7	
523.58	9640.5	
523.77	8952.4	
523.97	7592.5	
524.17	11129	
524.36	10577	
524.56	8806.9	
524.76	8490.2	
524.95	9996.8	
525.15	9706.7	
525.34	8426.7	
525.54	8477.9	
525.74	10262	
525.93	9527.8	
526.13	9371.5	
526.33	8516.8	
526.52	10655	
526.72	10246	
526.91	9516.9	
527.11	8961.9	
527.31	10608	
527.5	10853	
527.7	8860.2	
527.89	8321.6	
528.09	9937.4	
528.29	10273	
528.48	9103.9	
528.68	8936	
528.87	10697	
529.07	10661	
529.27	9023.4	
529.46	8701.8	
529.66	10604	
529.85	10909	
530.05	8700.5	
530.25	9283.4	
530.44	11630	
530.64	10445	
530.83	8859.5	
531.03	9060.2	
531.23	10922	
531.42	10646	
531.62	9490.3	
531.81	8859.5	
532.01	10882	
532.21	11086	
532.4	8878.6	
532.6	9226.8	
532.79	11568	
532.99	11135	
533.18	9336.7	
533.38	9980.4	
533.58	10877	
533.77	11304	
533.97	9494.4	
534.16	9889.6	
534.36	11541	
534.55	10841	
534.75	10084	
534.95	9460.3	
535.14	11634	
535.34	10974	
535.53	9260.9	
535.73	10546	
535.92	12088	
536.12	11014	
536.31	9310.7	
536.51	10217	
536.71	11333	
536.9	10974	
537.1	9410.4	
537.29	9528.5	
537.49	11615	
537.68	10845	
537.88	9824.8	
538.07	9136	
538.27	11086	
538.46	11848	
538.66	9155.1	
538.86	9423.4	
539.05	11148	
539.25	11471	
539.44	9828.2	
539.64	9472.5	
539.83	11069	
540.03	11792	
540.22	9506	
540.42	9465	
540.61	11322	
540.81	11312	
541	9715.6	
541.2	10219	
541.39	10791	
541.59	11094	
541.78	9932.6	
541.98	9291.6	
542.18	10684	
542.37	10607	
542.57	9605	
542.76	10001	
542.96	10683	
543.15	11062	
543.35	9538.1	
543.54	9062.3	
543.74	11269	
543.93	10971	
544.13	9381.7	
544.32	10231	
544.52	11055	
544.71	10580	
544.91	8715.5	
545.1	9630.9	
545.3	10551	
545.49	11011	
545.69	8696.4	
545.88	9212.4	
546.08	11792	
546.27	11411	
546.47	9496.4	
546.66	8976.2	
546.86	11129	
547.05	11458	
547.24	9083.4	
547.44	9121.7	
547.63	10423	
547.83	11178	
548.02	9334.6	
548.22	9389.9	
548.41	10284	
548.61	11192	
548.8	8949.6	
549	8935.3	
549.19	10845	
549.39	11082	
549.58	8665	
549.78	9206.3	
549.97	11000	
550.17	10608	
550.36	9728.5	
550.55	10327	
550.75	10586	
550.94	11155	
551.14	8850	
551.33	9004.2	
551.53	10101	
551.72	10841	
551.92	9050	
552.11	8841.8	
552.31	10778	
552.5	10781	
552.69	10036	
552.89	8688.8	
553.08	10793	
553.28	10606	
553.47	8944.2	
553.67	9722.4	
553.86	11172	
554.06	9932.6	
554.25	8346.2	
554.44	8723.7	
554.64	11776	
554.83	11387	
555.03	8659.5	
555.22	8977.6	
555.42	10928	
555.61	10733	
555.8	8833.6	
556	9045.9	
556.19	10037	
556.39	10824	
556.58	8765.3	
556.78	8841.8	
556.97	10564	
557.16	10307	
557.36	9680.1	
557.55	8544.1	
557.75	9765.4	
557.94	11225	
558.13	8671.8	
558.33	8524.3	
558.52	11041	
558.72	10159	
558.91	8563.9	
559.1	8681.3	
559.3	9811.8	
559.49	9676.7	
559.69	8293.6	
559.88	9010.4	
560.07	10472	
560.27	10778	
560.46	9071.1	
560.66	9184.5	
560.85	10284	
561.04	9637.1	
561.24	8520.2	
561.43	8630.1	
561.63	9928.6	
561.82	10099	
562.01	9417.9	
562.21	8796.7	
562.4	10302	
562.59	11044	
562.79	8677.2	
562.98	8454	
563.18	10386	
563.37	11381	
563.56	8942.8	
563.76	8428.1	
563.95	10014	
564.14	10025	
564.34	8808.3	
564.53	8557.1	
564.73	10454	
564.92	10692	
565.11	8941.4	
565.31	8457.4	
565.5	10806	
565.69	10004	
565.89	8559.1	
566.08	8856.8	
566.27	10824	
566.47	11097	
566.66	9321.7	
566.85	8386.4	
567.05	10495	
567.24	10140	
567.44	8634.9	
567.63	9568.8	
567.82	10725	
568.02	10505	
568.21	8590.5	
568.4	8935.3	
568.6	10574	
568.79	10365	
568.98	8641.1	
569.18	8654.7	
569.37	10458	
569.56	11888	
569.76	8937.3	
569.95	9549	
570.14	10891	
570.34	10706	
570.53	8671.8	
570.72	8604.9	
570.91	11096	
571.11	10524	
571.3	9002.9	
571.49	9596.1	
571.69	10577	
571.88	10157	
572.07	9332.6	
572.27	9283.4	
572.46	10172	
572.65	10893	
572.85	8804.2	
573.04	9101.9	
573.23	11081	
573.43	10553	
573.62	8676.6	
573.81	9012.4	
574	10710	
574.2	10442	
574.39	9075.2	
574.58	8993.3	
574.78	11325	
574.97	10735	
575.16	9344.2	
575.36	9598.1	
575.55	11068	
575.74	11288	
575.93	8810.4	
576.13	9617.9	
576.32	10740	
576.51	11116	
576.71	9176.3	
576.9	10124	
577.09	11412	
577.28	10959	
577.48	9502.6	
577.67	8772.1	
577.86	10736	
578.05	10942	
578.25	9303.2	
578.44	9286.9	
578.63	10808	
578.83	11772	
579.02	8845.2	
579.21	10049	
579.4	10997	
579.6	10903	
579.79	9493	
579.98	10941	
580.17	11293	
580.37	11327	
580.56	8973.5	
580.75	9498.5	
580.94	11490	
581.14	11584	
581.33	9830.2	
581.52	9200.2	
581.71	11151	
581.91	11730	
582.1	8940.7	
582.29	9334	
582.48	10983	
582.68	10862	
582.87	9658.9	
583.06	9467.1	
583.25	11228	
583.45	10701	
583.64	9886.9	
583.83	10370	
584.02	10962	
584.21	11229	
584.41	9893.1	
584.6	9360.6	
584.79	11131	
584.98	11447	
585.18	9134.6	
585.37	9067.7	
585.56	10730	
585.75	11333	
585.94	9338.7	
586.14	9768.1	
586.33	11728	
586.52	10929	
586.71	9615.2	
586.91	9446.6	
587.1	10531	
587.29	11295	
587.48	9140.8	
587.67	9256.8	
587.87	11158	
588.06	11126	
588.25	10043	
588.44	9581.8	
588.63	10721	
588.83	11182	
589.02	9073.9	
589.21	9060.2	
589.4	10631	
589.59	10732	
589.78	8466.3	
589.98	8632.2	
590.17	10210	
590.36	10497	
590.55	8116.8	
590.74	8615.1	
590.94	11217	
591.13	10096	
591.32	8357.8	
591.51	7931.8	
591.7	10322	
591.89	9925.8	
592.09	7965.9	
592.28	8354.3	
592.47	9512.1	
592.66	11000	
592.85	8127.7	
593.05	8264.2	
593.24	9992.7	
593.43	10637	
593.62	8393.9	
593.81	8641.1	
594	10060	
594.19	10191	
594.39	8269	
594.58	8181.6	
594.77	10225	
594.96	10638	
595.15	8293.6	
595.34	8685.4	
595.54	10219	
595.73	9648	
595.92	7754.3	
596.11	8528.4	
596.3	10534	
596.49	9720.3	
596.68	8341.4	
596.88	8698.4	
597.07	10282	
597.26	9441.8	
597.45	8027.4	
597.64	8781.7	
597.83	9691.7	
598.02	10140	
598.22	8063.5	
598.41	8492.2	
598.6	10013	
598.79	9646.6	
598.98	8058.8	
599.17	8714.8	
599.36	10019	
599.55	10733	
599.74	9394	
599.94	9369.5	
600.13	10380	
600.32	9487.6	
600.51	7905.2	
600.7	8016.4	
600.89	10782	
601.08	10835	
601.27	7828.7	
601.47	8581.7	
601.66	10337	
601.85	10735	
602.04	8385.1	
602.23	8390.5	
602.42	9706	
602.61	10047	
602.8	8179.6	
602.99	8045.8	
603.18	9783.1	
603.37	10015	
603.57	8376.9	
603.76	8789.2	
603.95	10409	
604.14	10135	
604.33	8076.5	
604.52	8234.9	
604.71	9932	
604.9	9643.2	
605.09	8741.4	
605.28	8511.4	
605.47	10508	
605.66	10124	
605.86	8416.5	
606.05	8189.8	
606.24	10444	
606.43	9340.8	
606.62	8387.8	
606.81	8800.8	
607	10264	
607.19	9830.9	
607.38	7879.2	
607.57	8112.7	
607.76	9474.6	
607.95	9133.9	
608.14	8418.5	
608.33	8815.1	
608.52	9611.8	
608.72	10200	
608.91	7854.6	
609.1	7709.9	
609.29	9604.3	
609.48	9257.5	
609.67	8424	
609.86	7720.2	
610.05	9384.5	
610.24	9590	
610.43	7712	
610.62	7428	
610.81	10403	
611	10329	
611.19	7728.4	
611.38	8333.9	
611.57	9794.8	
611.76	10708	
611.95	7626	
612.14	7423.2	
612.33	9666.4	
612.52	9265.7	
612.71	8074.5	
612.9	7405.5	
613.09	9030.2	
613.28	10731	
613.47	7884.7	
613.66	8469.7	
613.85	9724.4	
614.04	9323	
614.24	7772.7	
614.43	7233.4	
614.62	9780.4	
614.81	9732.6	
615	8236.2	
615.19	8226.7	
615.38	9295	
615.57	9590.6	
615.76	8184.4	
615.95	8783.1	
616.14	9882.8	
616.33	9583.1	
616.52	8374.1	
616.71	8420.6	
616.9	9872.6	
617.09	9649.3	
617.28	7950.2	
617.47	8727.1	
617.66	9223.4	
617.85	9185.1	
618.04	8520.2	
618.22	8118.8	
618.41	9519	
618.6	10204	
618.79	8241.7	
618.98	7965.9	
619.17	10392	
619.36	9179	
619.55	8116.1	
619.74	8180.3	
619.93	9942.2	
620.12	9478	
620.31	8570.1	
620.5	8694.3	
620.69	10272	
620.88	10644	
621.07	9227.5	
621.26	8552.3	
621.45	10161	
621.64	10087	
621.83	8609	
622.02	8092.9	
622.21	10132	
622.4	10064	
622.59	9021.3	
622.78	8789.9	
622.97	9753.1	
623.16	10432	
623.35	8531.8	
623.54	7978.2	
623.72	9856.2	
623.91	9887.6	
624.1	8829.5	
624.29	7854.6	
624.48	10856	
624.67	10227	
624.86	8779.6	
625.05	8120.9	
625.24	10870	
625.43	9710.1	
625.62	10014	
625.81	8264.2	
626	10403	
626.19	9949.7	
626.38	8751	
626.56	8332.5	
626.75	9722.4	
626.94	10339	
627.13	8825.4	
627.32	7903.8	
627.51	10363	
627.7	11183	
627.89	8017.1	
628.08	8932.6	
628.27	9615.9	
628.46	9814.5	
628.65	8135.2	
628.83	7886.7	
629.02	10236	
629.21	9662.3	
629.4	8514.8	
629.59	8637	
629.78	9736.7	
629.97	10334	
630.16	8567.3	
630.35	8267.6	
630.54	10686	
630.72	10388	
630.91	8271.7	
631.1	8558.5	
631.29	9973.6	
631.48	10225	
631.67	8723	
631.86	8264.2	
632.05	9865.7	
632.24	9846.6	
632.42	7996.6	
632.61	8603.5	
632.8	9925.1	
632.99	9626.8	
633.18	8497	
633.37	8749.6	
633.56	10073	
633.75	10014	
633.93	8574.8	
634.12	8321.6	
634.31	10701	
634.5	10389	
634.69	8397.4	
634.88	8637.6	
635.07	9909.4	
635.25	10387	
635.44	8973.5	
635.63	9138	
635.82	9832.3	
636.01	9406.3	
636.2	8928.5	
636.39	8500.4	
636.57	10600	
636.76	10180	
636.95	8220.5	
637.14	9081.4	
637.33	10163	
637.52	10759	
637.7	8019.2	
637.89	8708.6	
638.08	9820	
638.27	10869	
638.46	8758.5	
638.65	9176.3	
638.83	10840	
639.02	9694.4	
639.21	8690.2	
639.4	9009.7	
639.59	9964.1	
639.78	9718.3	
639.96	8063.5	
640.15	8133.2	
640.34	9955.9	
640.53	9886.2	
640.72	7914	
640.91	8153.6	
641.09	9335.3	
641.28	10386	
641.47	8086.1	
641.66	8710.7	
641.85	9861	
642.03	10112	
642.22	8426.7	
642.41	8161.2	
642.6	9410.4	
642.79	9081.4	
642.97	8023.3	
643.16	8464.9	
643.35	9392.7	
643.54	9331.2	
643.73	7920.9	
643.91	8442.4	
644.1	9196.7	
644.29	9737.4	
644.48	7958.4	
644.67	7968.6	
644.85	9261.6	
645.04	9540.8	
645.23	7628	
645.42	7948.8	
645.6	9153.7	
645.79	9850.7	
645.98	7640.3	
646.17	6978.8	
646.36	8804.2	
646.54	9230.9	
646.73	8145.5	
646.92	7374.1	
647.11	8983.8	
647.29	9661.6	
647.48	7421.2	
647.67	7240.3	
647.86	9697.8	
648.05	9785.2	
648.23	7545.4	
648.42	8436.3	
648.61	9337.4	
648.8	9088.9	
648.98	7240.3	
649.17	7387	
649.36	8787.8	
649.55	8464.3	
649.73	7223.2	
649.92	7811	
650.11	8652	
650.3	8961.9	
650.48	7320.8	
650.67	7302.4	
650.86	9166.7	
651.05	8460.2	
651.23	7309.2	
651.42	7202	
651.61	8726.4	
651.79	8567.3	
651.98	7402	
652.17	7133.8	
652.36	8945.5	
652.54	8333.2	
652.73	7135.1	
652.92	7082.6	
653.11	9034.3	
653.29	9082.1	
653.48	6755.6	
653.67	7338.6	
653.85	8796	
654.04	9626.8	
654.23	7538.6	
654.42	7186.3	
654.6	8443.1	
654.79	8910.7	
654.98	6777.4	
655.16	7096.2	
655.35	8172.8	
655.54	7901.7	
655.73	6636.1	
655.91	6466.8	
656.1	8669.7	
656.29	7715.4	
656.47	6126.2	
656.66	7407.5	
656.85	8099.7	
657.03	8096.3	
657.22	6640.9	
657.41	6741.2	
657.59	8307.9	
657.78	8116.1	
657.97	6582.2	
658.16	7115.3	
658.34	8789.9	
658.53	9028.8	
658.72	7712.7	
658.9	8000.7	
659.09	8486.8	
659.28	8490.2	
659.46	6920.1	
659.65	6857.3	
659.84	8228.7	
660.02	8692.3	
660.21	6951.5	
660.4	6804.7	
660.58	9060.9	
660.77	8497.7	
660.96	7226.6	
661.14	6543.3	
661.33	9319.6	
661.52	9186.5	
661.7	6469.5	
661.89	9071.1	
662.08	8284.7	
662.26	7855.3	
662.45	6783.6	
662.64	6796.5	
662.82	8751.7	
663.01	8124.3	
663.2	6814.3	
663.38	7354.3	
663.57	8624	
663.75	8555.7	
663.94	6875	
664.13	7885.4	
664.31	8163.2	
664.5	8644.5	
664.69	7258.7	
664.87	7570.7	
665.06	7963.9	
665.25	8441	
665.43	7732.4	
665.62	7789.8	
665.8	8685.4	
665.99	8233.5	
666.18	6991.1	
666.36	6991.1	
666.55	8654	
666.74	8686.1	
666.92	6673	
667.11	7890.1	
667.29	8241	
667.48	8627.4	
667.67	7557.7	
667.85	6826.6	
668.04	8214.4	
668.22	8226.7	
668.41	7021.8	
668.6	7221.1	
668.78	8075.8	
668.97	8228.1	
669.15	7216.4	
669.34	6420.4	
669.53	8156.4	
669.71	8317.5	
669.9	6576.7	
670.08	7079.1	
670.27	8008.9	
670.46	8517.5	
670.64	7215	
670.83	7286.7	
671.01	7886.7	
671.2	8383	
671.38	6675	
671.57	6551.5	
671.76	8852	
671.94	9206.3	
672.13	6500.9	
672.31	7243.7	
672.5	8534.6	
672.69	7989.8	
672.87	6748.7	
673.06	6911.2	
673.24	8452.6	
673.43	8141.4	
673.61	7153.6	
673.8	6787	
673.98	8550.3	
674.17	8666.3	
674.36	7262.1	
674.54	7135.8	
674.73	8312	
674.91	8554.4	
675.1	6961	
675.28	6641.6	
675.47	8251.9	
675.65	8609	
675.84	6776.7	
676.03	7043.6	
676.21	8036.2	
676.4	7574.8	
676.58	7459.4	
676.77	7267.6	
676.95	9118.9	
677.14	7989.8	
677.32	6632.7	
677.51	6494.8	
677.69	8615.8	
677.88	7855.3	
678.06	6561.7	
678.25	6666.8	
678.44	8271.1	
678.62	8049.2	
678.81	6392.4	
678.99	7066.2	
679.18	8779.6	
679.36	8346.8	
679.55	6772.6	
679.73	7077.8	
679.92	8397.4	
680.1	8014.4	
680.29	7746.1	
680.47	6811.5	
680.66	7940	
680.84	8572.1	
681.03	6290.7	
681.21	7031.4	
681.4	8004.1	
681.58	7944.1	
681.77	6637.5	
681.95	6565.8	
682.14	8640.4	
682.32	8793.3	
682.51	7159.7	
682.69	6404	
682.88	7924.3	
683.06	8289.5	
683.25	7002.7	
683.43	7303.1	
683.62	8248.5	
683.8	8331.8	
683.99	7398.6	
684.17	6849.8	
684.36	9008.3	
684.54	8053.3	
684.73	6298.9	
684.91	6493.4	
685.1	8277.2	
685.28	7743.4	
685.46	6608.1	
685.65	6728.3	
685.83	8068.3	
686.02	7624.6	
686.2	6111.8	
686.39	6182.1	
686.57	7215	
686.76	8470.4	
686.94	6117.3	
687.13	6309.1	
687.31	8002.1	
687.5	7641	
687.68	5937.7	
687.86	6700.3	
688.05	8924.4	
688.23	7249.8	
688.42	6768.5	
688.6	6296.8	
688.79	7608.2	
688.97	7666.2	
689.16	6500.9	
689.34	5816.9	
689.52	8247.2	
689.71	8445.8	
689.89	6868.9	
690.08	6404.7	
690.26	7964.6	
690.45	7802.8	
690.63	7006.8	
690.81	6592.4	
691	7927.7	
691.18	7661.5	
691.37	6691.4	
691.55	8168.7	
691.74	7768.6	
691.92	9082.1	
692.1	6574	
692.29	6234.7	
692.47	7819.1	
692.66	7312.6	
692.84	6283.9	
693.02	6651.1	
693.21	7342	
693.39	7763.2	
693.58	6787	
693.76	6350.8	
693.94	8525.7	
694.13	8472.4	
694.31	6300.9	
694.5	7120.1	
694.68	7593.2	
694.86	7944.1	
695.05	6626.5	
695.23	6692.1	
695.42	8340	
695.6	9865.1	
695.78	7177.4	
695.97	6535.8	
696.15	8476.5	
696.34	7867.6	
696.52	6520	
696.7	7008.1	
696.89	8119.5	
697.07	7704.5	
697.25	6905.8	
697.44	7934.5	
697.62	8088.8	
697.81	8208.9	
697.99	6645	
698.17	6995.9	
698.36	7664.9	
698.54	8066.3	
698.72	6920.8	
698.91	6139.8	
699.09	7763.8	
699.28	7641	
699.46	6612.9	
699.64	6466.8	
699.83	7630	
700.01	8395.3	
700.19	7002	
700.38	5861.3	
700.56	8342.1	
700.74	7618.4	
700.93	6164.4	
701.11	6782.2	
701.29	8081.3	
701.48	8828.8	
701.66	6330.3	
701.84	6434	
702.03	7827.3	
702.21	8383	
702.39	6140.5	
702.58	6619.7	
702.76	8191.9	
702.94	8155	
703.13	6243.6	
703.31	7823.2	
703.49	7710.6	
703.68	8399.4	
703.86	6275.7	
704.04	6983.6	
704.23	7956.4	
704.41	8269	
704.59	6442.9	
704.78	7163.1	
704.96	9109.4	
705.14	8241	
705.33	6255.2	
705.51	6787.7	
705.69	7820.5	
705.87	8529.8	
706.06	6963.8	
706.24	6175.3	
706.42	8020.5	
706.61	8226	
706.79	6955.6	
706.97	6184.9	
707.16	7687.4	
707.34	8082	
707.52	6909.2	
707.7	6342.6	
707.89	7705.1	
708.07	7561.1	
708.25	6924.2	
708.44	7071.6	
708.62	7660.8	
708.8	8404.9	
708.98	7101.7	
709.17	6410.8	
709.35	7854.6	
709.53	7929.7	
709.72	6162.3	
709.9	6315.3	
710.08	8103.8	
710.26	8104.5	
710.45	7293.5	
710.63	6278.4	
710.81	7778.9	
710.99	7811	
711.18	6770.6	
711.36	6374.6	
711.54	7670.3	
711.72	8143.4	
711.91	6419	
712.09	6137.1	
712.27	7733.1	
712.45	8086.7	
712.64	6499.6	
712.82	5825.8	
713	7250.5	
713.18	7387	
713.37	5827.8	
713.55	6634.1	
713.73	8046.5	
713.91	6944	
714.1	6102.3	
714.28	5610.8	
714.46	7595.9	
714.64	6971.3	
714.83	5167	
715.01	5565	
715.19	6878.4	
715.37	6249	
715.55	5210	
715.74	5371.1	
715.92	7318.1	
716.1	5843.5	
716.28	6125.5	
716.47	5358.9	
716.65	6379.4	
716.83	6343.2	
717.01	5236	
717.19	5269.4	
717.38	7790.5	
717.56	6085.2	
717.74	5386.2	
717.92	4782.7	
718.1	6911.2	
718.29	6373.3	
718.47	4452.3	
718.65	5089.2	
718.83	7030.7	
719.01	6910.5	
719.2	4612.7	
719.38	5451	
719.56	6821.8	
719.74	7945.4	
719.92	5213.4	
720.11	5920.7	
720.29	6937.2	
720.47	6296.8	
720.65	4874.8	
720.83	5358.2	
721.02	6447.7	
721.2	6190.3	
721.38	5338.4	
721.56	4754.7	
721.74	5769.8	
721.92	5874.3	
722.11	5554.1	
722.29	5432.6	
722.47	6744	
722.65	6152.8	
722.83	4722.6	
723.01	5302.2	
723.2	6180.8	
723.38	6427.9	
723.56	4308.9	
723.74	5096	
723.92	5836	
724.1	6642.9	
724.29	4640	
724.47	5495.4	
724.65	5917.3	
724.83	5763	
725.01	4594.3	
725.19	5162.2	
725.37	5753.4	
725.56	5824.4	
725.74	4426.3	
725.92	4670.1	
726.1	5773.2	
726.28	6058.6	
726.46	4827.7	
726.64	4653	
726.83	6053.8	
727.01	6160.3	
727.19	4378.6	
727.37	4934.9	
727.55	6135.7	
727.73	6448.4	
727.91	4372.4	
728.09	4209.9	
728.28	6395.8	
728.46	6581.5	
728.64	4919.9	
728.82	4840.7	
729	7112.6	
729.18	6634.7	
729.36	4299.4	
729.54	5979.4	
729.72	7381.6	
729.91	6156.9	
730.09	5827.8	
730.27	4901.5	
730.45	6072.2	
730.63	6475	
730.81	5298.1	
730.99	4653.7	
731.17	6929	
731.35	5882.4	
731.53	5017.5	
731.71	4859.8	
731.9	6726.2	
732.08	6772.6	
732.26	4990.2	
732.44	4655.7	
732.62	6778.8	
732.8	6511.9	
732.98	5169.1	
733.16	4451.6	
733.34	6476.4	
733.52	5472.2	
733.7	4823	
733.88	5021.6	
734.07	6264.1	
734.25	6089.3	
734.43	4407.2	
734.61	5580	
734.79	7107.1	
734.97	6048.3	
735.15	4524	
735.33	4737.6	
735.51	6210.1	
735.69	5915.2	
735.87	5472.2	
736.05	4892.6	
736.23	6138.4	
736.41	5873.6	
736.59	4685.1	
736.77	4724	
736.95	6354.2	
737.13	5967.1	
737.32	4498.7	
737.5	4585.4	
737.68	6812.9	
737.86	5870.8	
738.04	4272.7	
738.22	5592.3	
738.4	5713.2	
738.58	5929.6	
738.76	4656.4	
738.94	3906.2	
739.12	5825.8	
739.3	5679.7	
739.48	5031.9	
739.66	4935.6	
739.84	5900.2	
740.02	5928.9	
740.2	4017.4	
740.38	4274.8	
740.56	6148	
740.74	5265.3	
740.92	4696	
741.1	4566.3	
741.28	5723.4	
741.46	5586.2	
741.64	4336.9	
741.82	4739	
742	5772.5	
742.18	5621.7	
742.36	4437.9	
742.54	4218.8	
742.72	6188.3	
742.9	5186.1	
743.08	4700.8	
743.26	3833.8	
743.44	6182.1	
743.62	6092	
743.8	4862.6	
743.98	4136.9	
744.16	5860.6	
744.34	5659.9	
744.52	4681.7	
744.7	4601.8	
744.88	6054.5	
745.06	5643.5	
745.24	4716.5	
745.42	4746.5	
745.6	6046.3	
745.78	5901.6	
745.96	3881.6	
746.14	4046.8	
746.32	6557.6	
746.5	5954.1	
746.68	4399.7	
746.86	4052.2	
747.03	6124.1	
747.21	5089.2	
747.39	4443.4	
747.57	3995.6	
747.75	5650.3	
747.93	5868.1	
748.11	3947.8	
748.29	4021.5	
748.47	6779.5	
748.65	5418.9	
748.83	4491.2	
749.01	4345.1	
749.19	5752.1	
749.37	5133.6	
749.55	4274.1	
749.73	4263.9	
749.91	5554.8	
750.09	5334.3	
750.26	4326.7	
750.44	3836.5	
750.62	5533.6	
750.8	5449.6	
750.98	3763.5	
751.16	3975.8	
751.34	5564.3	
751.52	5096.7	
751.7	4505.5	
751.88	3725.9	
752.06	5917.9	
752.24	5642.8	
752.42	3666.5	
752.59	3945.8	
752.77	5437.4	
752.95	6257.2	
753.13	4489.1	
753.31	3985.3	
753.49	5197.7	
753.67	5563.6	
753.85	4214	
754.03	3921.2	
754.21	5692.7	
754.38	5999.9	
754.56	3921.2	
754.74	3334.8	
754.92	5083.7	
755.1	5537.7	
755.28	3312.9	
755.46	3331.4	
755.64	6153.5	
755.82	6246.3	
755.99	3552.5	
756.17	3575.1	
756.35	4388.8	
756.53	5559.6	
756.71	2819.4	
756.89	3407.1	
757.07	5135.6	
757.25	4526.7	
757.42	3804.4	
757.6	4360.1	
757.78	5231.9	
757.96	4508.9	
758.14	3509.5	
758.32	3269.2	
758.5	4201.7	
758.67	4887.8	
758.85	3418.1	
759.03	3571	
759.21	4983.4	
759.39	4515.1	
759.57	3107.5	
759.75	3966.9	
759.92	5466.7	
760.1	4995	
760.28	4218.1	
760.46	4332.8	
760.64	4769.7	
760.82	4591.5	
760.99	4136.9	
761.17	3572.3	
761.35	5386.2	
761.53	4550.6	
761.71	3573.7	
761.89	4123.9	
762.06	5246.9	
762.24	4908.3	
762.42	3670	
762.6	3534.8	
762.78	4855.1	
762.96	5317.2	
763.13	3917.8	
763.31	3651.5	
763.49	5388.2	
763.67	4777.2	
763.85	4321.2	
764.02	4641.4	
764.2	5677.7	
764.38	4905.6	
764.56	3607.2	
764.74	4245.4	
764.91	5662	
765.09	4829.1	
765.27	3401.7	
765.45	3218	
765.63	5767.1	
765.8	5583.4	
765.98	3157.3	
766.16	3237.8	
766.34	4607.9	
766.52	4394.3	
766.69	3871.3	
766.87	3137.5	
767.05	4883	
767.23	5368.4	
767.41	3426.9	
767.58	3577.8	
767.76	5305.6	
767.94	5394.3	
768.12	3454.2	
768.29	3995.6	
768.47	4829.8	
768.65	5430.5	
768.83	3186.6	
769	3975.8	
769.18	4610	
769.36	5150.6	
769.54	3941	
769.72	3277.4	
769.89	5391.6	
770.07	5369.8	
770.25	3490.4	
770.43	4364.2	
770.6	5929.6	
770.78	6113.9	
770.96	3622.9	
771.14	4078.2	
771.31	5264.6	
771.49	4780.6	
771.67	3012.6	
771.85	3140.9	
772.02	4259.8	
772.2	4778.6	
772.38	3739.6	
772.55	3331.4	
772.73	5016.2	
772.91	4868	
773.09	3609.9	
773.26	3678.2	
773.44	5019.6	
773.62	4786.1	
773.8	3284.3	
773.97	3121.1	
774.15	4992.9	
774.33	4790.2	
774.5	3227.6	
774.68	3469.9	
774.86	5068.7	
775.04	4759.5	
775.21	3262.4	
775.39	3181.9	
775.57	4991.6	
775.74	5175.2	
775.92	3076	
776.1	3021.4	
776.27	4915.1	
776.45	5839.4	
776.63	3254.2	
776.81	2970.2	
776.98	4728.1	
777.16	5470.8	
777.34	3381.9	
777.51	3566.2	
777.69	4713.7	
777.87	4508.9	
778.04	3371.6	
778.22	3790.8	
778.4	4531.5	
778.57	5045.5	
778.75	2888.3	
778.93	3035.1	
779.1	4459.8	
779.28	4302.1	
779.46	2903.3	
779.64	3226.9	
779.81	5137.7	
779.99	5789.6	
780.17	3784	
780.34	3834.5	
780.52	4757.4	
780.69	4857.1	
780.87	3439.9	
781.05	3154.6	
781.22	4863.2	
781.4	4861.2	
781.58	3260.4	
781.75	2673.3	
781.93	4889.9	
782.11	4364.9	
782.28	3889.8	
782.46	3236.5	
782.64	4224.3	
782.81	4985.4	
782.99	3375.7	
783.17	3194.1	
783.34	4818.9	
783.52	4441.4	
783.69	3354.6	
783.87	3972.4	
784.05	4478.9	
784.22	4412	
784.4	3964.2	
784.58	3488.4	
784.75	5130.8	
784.93	4454.3	
785.1	3202.3	
785.28	3669.3	
785.46	4886.5	
785.63	4394.3	
785.81	3277.4	
785.99	3126.6	
786.16	4558.1	
786.34	4777.2	
786.51	3188.7	
786.69	3448.1	
786.87	4190.8	
787.04	4553.3	
787.22	3047.4	
787.39	3770.3	
787.57	4410	
787.75	5167.7	
787.92	3957.4	
788.1	3837.9	
788.27	4427	
788.45	4177.9	
788.63	3638.6	
788.8	2687.6	
788.98	4740.4	
789.15	4173.8	
789.33	2803	
789.5	3241.3	
789.68	5041.4	
789.86	5107.6	
790.03	3534.8	
790.21	3139.5	
790.38	5109	
790.56	4525.3	
790.73	3048.7	
790.91	3069.9	
791.09	4431.1	
791.26	4929.5	
791.44	3277.4	
791.61	2882.2	
791.79	4399.7	
791.96	4441.4	
792.14	2987.3	
792.32	2622.8	
792.49	4408.6	
792.67	4541	
792.84	3040.6	
793.02	2852.1	
793.19	4802.5	
793.37	5227.8	
793.54	2614.6	
793.72	2925.9	
793.89	5219.6	
794.07	4373.1	
794.25	3262.4	
794.42	2682.2	
794.6	5195.7	
794.77	4831.2	
794.95	3510.2	
795.12	3149.1	
795.3	4437.3	
795.47	4784.7	
795.65	3386	
795.82	3269.9	
796	4202.4	
796.17	5573.9	
796.35	3178.4	
796.52	3709.6	
796.7	4832.5	
796.87	4887.8	
797.05	3177.1	
797.22	3773	
797.4	4820.9	
797.57	5504.9	
797.75	3251.5	
797.92	3078.1	
798.1	5071.5	
798.27	4287.1	
798.45	2749.7	
798.62	2838.5	
798.8	4617.5	
798.97	4979.3	
799.15	3424.2	
799.32	3293.8	
799.5	4083	
799.67	4638.6	
799.85	3590.1	
800.02	2647.3	
800.2	4355.3	
800.37	4550.6	
800.55	3619.4	
800.72	3110.9	
800.9	4952	
801.07	5213.4	
801.25	4020.2	
801.42	3364.8	
801.6	5016.8	
801.77	4641.4	
801.95	3198.2	
802.12	3024.8	
802.29	4752.7	
802.47	4650.9	
802.64	3366.9	
802.82	2612.5	
802.99	4385.4	
803.17	5009.3	
803.34	3280.8	
803.52	2988	
803.69	5471.5	
803.87	4135.5	
804.04	3233.1	
804.21	3330	
804.39	5197.7	
804.56	4524	
804.74	2872.6	
804.91	3384.6	
805.09	4364.9	
805.26	4446.8	
805.44	2900.6	
805.61	3136.1	
805.78	4889.2	
805.96	4883	
806.13	3304.7	
806.31	3564.8	
806.48	4040.6	
806.66	4415.4	
806.83	3378.5	
807	3284.3	
807.18	4376.5	
807.35	4623.6	
807.53	3269.2	
807.7	2715.6	
807.87	5242.8	
808.05	4373.8	
808.22	3538.9	
808.4	2710.1	
808.57	4301.4	
808.74	4175.8	
808.92	3058.3	
809.09	3757.3	
809.27	4405.9	
809.44	4756.7	
809.61	2753.8	
809.79	2953.9	
809.96	5339.1	
810.14	4871.4	
810.31	2676.7	
810.48	3211.9	
810.66	4440.7	
810.83	4942.4	
811.01	3046	
811.18	3341.6	
811.35	4909.7	
811.53	3949.2	
811.7	3592.8	
811.87	3392.1	
812.05	4446.8	
812.22	4341	
812.39	2949.8	
812.57	2897.9	
812.74	4427	
812.92	5595.7	
813.09	3176.4	
813.26	3405.1	
813.44	5393.7	
813.61	4281.6	
813.78	2699.2	
813.96	3517.7	
814.13	4427	
814.3	4233.2	
814.48	3740.3	
814.65	3158.7	
814.82	5191.6	
815	4173.1	
815.17	3196.2	
815.34	3839.9	
815.52	4298.7	
815.69	4349.2	
815.87	3155.2	
816.04	3155.2	
816.21	4407.2	
816.38	4042.7	
816.56	3188	
816.73	2969.6	
816.9	5439.4	
817.08	4901.5	
817.25	2953.9	
817.42	3593.5	
817.6	4102.8	
817.77	4384.7	
817.94	3343	
818.12	2945	
818.29	4249.5	
818.46	6006	
818.64	3067.2	
818.81	2839.2	
818.98	4173.8	
819.16	5691.3	
819.33	3472.7	
819.5	3233.7	
819.67	4658.4	
819.85	5151.3	
820.02	3220.1	
820.19	3355.9	
820.37	4542.4	
820.54	4318.5	
820.71	3274	
820.88	3977.8	
821.06	4543.1	
821.23	4233.2	
821.4	3352.5	
821.58	3282.2	
821.75	4912.4	
821.92	4486.4	
822.09	2737.5	
822.27	2792.1	
822.44	4401.8	
822.61	4369	
822.79	2755.2	
822.96	4997.7	
823.13	4617.5	
823.3	4132.8	
823.48	3097.9	
823.65	2777.7	
823.82	4942.4	
823.99	4110.3	
824.17	3890.5	
824.34	2859	
824.51	5632.6	
824.68	4442	
824.86	3005.7	
825.03	3237.2	
825.2	4419.5	
825.37	5155.4	
825.55	2956.6	
825.72	3231.7	
825.89	5530.9	
826.06	5147.9	
826.24	3165.5	
826.41	3201	
826.58	5233.2	
826.75	4583.4	
826.92	2623.4	
827.1	2824.1	
827.27	6666.8	
827.44	5447.6	
827.61	2972.3	
827.79	3617.4	
827.96	4263.9	
828.13	4367	
828.3	3194.1	
828.47	2676.7	
828.65	4646.2	
828.82	4573.1	
828.99	3900	
829.16	3444	
829.34	4956.8	
829.51	4717.8	
829.68	3192.1	
829.85	3252.9	
830.02	5170.4	
830.2	4946.5	
830.37	2615.9	
830.54	3787.4	
830.71	5438	
830.88	4430.4	
831.05	2570.9	
831.23	2943.6	
831.4	5315.2	
831.57	5618.9	
831.74	2992.8	
831.91	2712.2	
832.09	4701.5	
832.26	4931.5	
832.43	3069.9	
832.6	3429	
832.77	4657.8	
832.94	5203.2	
833.12	2534	
833.29	3036.5	
833.46	4596.3	
833.63	5901.6	
833.8	3308.2	
833.97	3087	
834.15	4979.3	
834.32	4759.5	
834.49	3181.2	
834.66	3300.6	
834.83	4996.4	
835	4262.5	
835.17	3007.8	
835.35	2964.1	
835.52	4937.7	
835.69	4680.3	
835.86	3114.3	
836.03	2611.2	
836.2	4888.5	
836.37	4577.2	
836.55	3095.2	
836.72	2895.1	
836.89	4575.8	
837.06	4947.2	
837.23	3121.8	
837.4	3390.1	
837.57	5507	
837.75	5891.3	
837.92	2798.2	
838.09	3011.2	
838.26	4573.1	
838.43	5085.8	
838.6	3222.8	
838.77	2927.2	
838.94	5637.4	
839.11	5533.6	
839.29	3149.1	
839.46	2511.5	
839.63	4966.3	
839.8	4673.5	
839.97	2981.2	
840.14	3018	
840.31	4772.4	
840.48	4896	
840.65	2538.1	
840.82	2981.2	
841	4863.2	
841.17	4776.5	
841.34	2787.3	
841.51	2844.6	
841.68	4868.7	
841.85	4642.7	
842.02	2856.2	
842.19	2467.8	
842.36	4744.5	
842.53	4738.3	
842.7	2797.5	
842.87	3241.9	
843.05	5896.1	
843.22	4662.5	
843.39	2697.9	
843.56	2861.7	
843.73	4541.7	
843.9	4938.3	
844.07	4268.6	
844.24	3626.3	
844.41	6565.1	
844.58	4291.2	
844.75	2702.6	
844.92	2880.8	
845.09	4859.8	
845.26	4865.3	
845.43	2752.5	
845.6	2957.9	
845.77	4882.4	
845.94	4704.9	
846.12	3056.9	
846.29	3229.6	
846.46	5048.9	
846.63	4881	
846.8	2829.6	
846.97	3266.5	
847.14	5210.7	
847.31	4807.3	
847.48	3087	
847.65	3472.7	
847.82	5064.6	
847.99	5016.2	
848.16	3590.1	
848.33	3365.5	
848.5	4523.3	
848.67	5272.2	
848.84	2702.6	
849.01	2884.9	
849.18	4516.5	
849.35	4188.1	
849.52	3409.2	
849.69	2721.1	
849.86	5107.6	
850.03	5133.6	
850.2	2793.4	
850.37	3349.1	
850.54	5081	
850.71	4614.8	
850.88	3297.9	
851.05	2747	
851.22	4754.7	
851.39	5270.1	
851.56	2624.8	
851.73	3143.6	
851.9	4336.2	
852.07	5003.2	
852.24	3065.8	
852.41	2742.9	
852.58	4840	
852.75	4360.8	
852.92	3078.8	
853.09	2697.9	
853.26	4535.6	
853.43	5181.4	
853.6	2808.4	
853.77	2383.2	
853.94	5271.5	
854.11	4379.9	
854.28	3953.3	
854.44	2983.9	
854.61	5546.6	
854.78	5068.7	
854.95	2814.6	
855.12	3345.7	
855.29	4076.8	
855.46	5382.1	
855.63	2796.8	
855.8	3722.5	
855.97	4504.8	
856.14	5124.7	
856.31	3812.6	
856.48	2975	
856.65	4586.8	
856.82	4300.1	
856.99	2672.6	
857.16	2994.1	
857.33	5696.8	
857.49	4556	
857.66	2953.9	
857.83	3121.8	
858	4642.7	
858.17	4773.8	
858.34	2611.8	
858.51	2816	
858.68	5346.6	
858.85	5302.9	
859.02	3207.8	
859.19	3371	
859.36	4366.3	
859.52	4311	
859.69	2755.2	
859.86	3234.4	
860.03	4387.4	
860.2	5230.5	
860.37	2538.8	
860.54	2836.4	
860.71	4962.9	
860.88	5295.4	
861.05	3127.2	
861.21	3395.5	
861.38	5268.7	
861.55	4220.2	
861.72	2534	
861.89	3063.8	
862.06	5079	
862.23	5395.7	
862.4	2691	
862.56	2859.6	
862.73	4911.7	
862.9	4684.4	
863.07	3161.4	
863.24	2560	
863.41	4294.6	
863.58	4380.6	
863.75	2845.3	
863.91	3153.9	
864.08	5202.5	
864.25	4962.2	
864.42	3446.7	
864.59	3756	
864.76	5473.5	
864.93	4357.4	
865.09	2691.7	
865.26	2948.4	
865.43	5204.6	
865.6	5502.9	
865.77	2490.3	
865.94	2742.2	
866.1	5200.5	
866.27	4898.1	
866.44	4048.8	
866.61	2654.2	
866.78	4610.7	
866.95	4925.4	
867.11	2740.9	
867.28	2508.1	
867.45	5159.5	
867.62	4357.4	
867.79	3144.3	
867.96	2717.7	
868.12	4307.6	
868.29	4961.5	
868.46	2772.3	
868.63	3584.6	
868.8	5170.4	
868.97	4956.1	
869.13	2858.3	
869.3	2865.8	
869.47	4838	
869.64	5076.2	
869.81	2770.2	
869.97	2774.3	
870.14	4794.3	
870.31	5323.4	
870.48	2727.2	
870.65	3399.6	
870.81	4643.4	
870.98	4622.3	
871.15	3083.6	
871.32	2833.7	
871.48	4896	
871.65	5356.1	
871.82	2750.4	
871.99	3013.9	
872.16	5623.7	
872.32	5152	
872.49	2799.6	
872.66	2800.9	
872.83	4994.3	
872.99	4440	
873.16	3144.3	
873.33	2735.4	
873.5	4731.5	
873.67	4757.4	
873.83	2904	
874	3558	
874.17	4844.1	
874.34	5525.4	
874.5	3478.1	
874.67	3343.7	
874.84	5287.2	
875.01	4240.7	
875.17	3784	
875.34	2816	
875.51	4762.2	
875.68	5724.8	
875.84	3269.2	
876.01	3872.7	
876.18	4963.6	
876.34	4901.5	
876.51	2793.4	
876.68	2701.3	
876.85	4597.7	
877.01	5219.6	
877.18	3834.5	
877.35	2704.7	
877.52	4801.1	
877.68	4276.2	
877.85	2706	
878.02	2726.5	
878.18	4579.3	
878.35	4499.4	
878.52	2295.1	
878.69	3034.4	
878.85	5082.4	
879.02	4943.8	
879.19	3796.3	
879.35	2955.2	
879.52	4953.4	
879.69	5063.3	
879.86	2432.3	
880.02	3097.2	
880.19	4698.7	
880.36	5524.7	
880.52	3074	
880.69	3244	
880.86	5029.1	
881.02	5053.7	
881.19	3037.1	
881.36	2968.9	
881.52	4911	
881.69	4442.7	
881.86	2908.8	
882.02	2940.9	
882.19	5146.5	
882.36	5881.8	
882.52	2903.3	
882.69	3744.4	
882.86	4834.6	
883.02	4767	
883.19	3350.5	
883.36	3092.4	
883.52	5035.3	
883.69	5625.8	
883.86	2764.1	
884.02	2536.1	
884.19	4999.8	
884.36	4729.4	
884.52	3131.3	
884.69	2963.4	
884.86	4553.3	
885.02	5414.8	
885.19	3106.8	
885.36	3128.6	
885.52	4650.3	
885.69	4809.3	
885.86	3930.7	
886.02	3457	
886.19	5014.1	
886.35	4567.7	
886.52	3046.7	
886.69	3766.2	
886.85	4306.2	
887.02	5244.8	
887.19	5244.8	
887.35	5244.8	
887.52	5244.8	
887.68	5244.8	
887.85	5244.8	
888.02	5244.8	
888.18	5244.8	
888.35	5244.8	
888.51	5244.8	
888.68	5244.8	
888.85	5244.8	
889.01	5244.8	
889.18	5244.8	
889.35	5244.8	
889.51	5244.8	
889.68	5244.8	
889.84	5244.8	
890.01	5244.8	
890.17	5244.8	
890.34	5244.8	
890.51	5244.8	
890.67	5244.8	
890.84	5244.8	
891	5244.8	
891.17	5244.8	
891.34	5244.8	
891.5	5244.8	
891.67	5244.8	
891.83	5244.8	
892	5244.8	
892.16	5244.8	
892.33	5244.8	
892.5	5244.8	
892.66	5244.8	
892.83	5244.8	
892.99	5244.8	
893.16	5244.8	
893.32	5244.8	
893.49	5244.8	
893.65	5244.8	
893.82	5244.8	
893.99	5244.8	
894.15	5244.8	
894.32	5244.8	
894.48	5244.8	
894.65	5244.8	
894.81	5244.8	
894.98	5244.8	
895.14	5244.8	
895.31	5244.8	
895.47	5244.8	
895.64	5244.8	
895.81	5244.8	
895.97	5244.8	
896.14	5244.8	
896.3	5244.8	
896.47	5244.8	
896.63	5244.8	
896.8	5244.8	
896.96	5244.8	
897.13	5244.8	
897.29	5244.8	
897.46	5244.8	
897.62	5244.8	
897.79	5244.8	
897.95	5244.8	
898.12	5244.8	
898.28	5244.8	
898.45	5244.8	
898.61	5244.8	
898.78	5244.8	
898.94	5244.8	
899.11	5244.8	
899.27	5244.8	
899.44	5244.8	
899.6	5244.8	
899.77	5244.8	
899.93	5244.8	
900.1	5244.8	
900.26	5244.8	
900.43	5244.8	
900.59	5244.8	
900.76	5244.8	
900.92	5244.8	
901.09	5244.8	
901.25	5244.8	
901.42	5244.8	
901.58	5244.8	
901.75	5244.8	
901.91	5244.8	
902.07	5244.8	
902.24	5244.8	
902.4	5244.8	
902.57	5244.8	
902.73	5244.8	
902.9	5244.8	
903.06	5244.8	
903.23	5244.8	
903.39	5244.8	
903.56	5244.8	
903.72	5244.8	
903.88	5244.8	
904.05	5244.8	
904.21	5244.8	
904.38	5244.8	
904.54	5244.8	
904.71	5244.8	
904.87	5244.8	
905.03	5244.8	
905.2	5244.8	
905.36	5244.8	
905.53	5244.8	
905.69	5244.8	
905.86	5244.8	
906.02	5244.8	
906.18	5244.8	
906.35	5244.8	
906.51	5244.8	
906.68	5244.8	
906.84	5244.8	
907.01	5244.8	
907.17	5244.8	
907.33	5244.8	
907.5	5244.8	
907.66	5244.8	
907.83	5244.8	
907.99	5244.8	
908.15	5244.8	
908.32	5244.8	
908.48	5244.8	
908.65	5244.8	
908.81	5244.8	
908.97	5244.8	
909.14	5244.8	
909.3	5244.8	
909.47	5244.8	
909.63	5244.8	
909.79	5244.8	
909.96	5244.8	
910.12	5244.8	
910.28	5244.8	
910.45	5244.8	
910.61	5244.8	
910.78	5244.8	
910.94	5244.8	
911.1	5244.8	
911.27	5244.8	
911.43	5244.8	
911.59	5244.8	
911.76	5244.8	
911.92	5244.8	
912.08	5244.8	
912.25	5244.8	
912.41	5244.8	
912.57	5244.8	
912.74	5244.8	
912.9	5244.8	
913.07	5244.8	
913.23	5244.8	
913.39	5244.8	
913.56	5244.8	
913.72	5244.8	
913.88	5244.8	
914.05	5244.8	
914.21	5244.8	
914.37	5244.8	
914.54	5244.8	
914.7	5244.8	
914.86	5244.8	
915.03	5244.8	
915.19	5244.8	
