Wavelength	Intensities	
nm	a.u.	
179.22	1948.1	
179.44	1944.5	
179.65	1951.7	
179.86	1937.4	
180.08	1923	
180.29	5038	
180.51	3571	
180.72	5726.1	
180.94	6744.6	
181.15	3269.2	
181.37	3229.6	
181.58	5635.3	
181.79	5887.9	
182.01	3436.5	
182.22	3701.4	
182.44	5881.8	
182.65	4911	
182.87	4625.7	
183.08	4062.5	
183.29	6196.5	
183.51	5038.7	
183.72	3753.9	
183.94	5446.9	
184.15	5415.5	
184.37	5513.1	
184.58	3288.4	
184.79	4530.1	
185.01	5068	
185.22	5877.7	
185.44	4791.6	
185.65	4005.8	
185.86	5348.6	
186.08	4944.5	
186.29	3145.7	
186.51	3411.2	
186.72	5122	
186.94	6023.1	
187.15	3961.5	
187.36	4133.5	
187.58	7869.7	
187.79	5651.7	
188.01	4329.4	
188.22	6681.8	
188.43	6763.8	
188.65	5833.3	
188.86	3405.1	
189.08	4056.3	
189.29	5285.8	
189.5	5201.2	
189.72	3814	
189.93	3905.5	
190.15	6019	
190.36	7279.2	
190.57	4217.5	
190.79	4091.2	
191	6195.1	
191.22	6062.7	
191.43	4197.7	
191.64	3394.2	
191.86	6360.3	
192.07	6107.7	
192.29	3590.8	
192.5	3790.1	
192.71	6102.3	
192.93	5169.1	
193.14	3743	
193.35	3842	
193.57	5276.9	
193.78	6109.8	
194	3060.3	
194.21	3759.4	
194.42	5009.3	
194.64	5520.6	
194.85	4087.7	
195.07	4853.7	
195.28	5597.1	
195.49	4763.6	
195.71	5057.8	
195.92	3571.7	
196.13	5675.6	
196.35	5808.7	
196.56	5482.4	
196.78	4142.4	
196.99	7131	
197.2	6681.2	
197.42	4678.9	
197.63	4209.3	
197.84	4901.5	
198.06	5665.4	
198.27	3799.7	
198.48	5089.9	
198.7	5251	
198.91	5401.9	
199.13	4132.1	
199.34	4171	
199.55	5884.5	
199.77	4821.6	
199.98	3674.7	
200.19	4217.5	
200.41	5421	
200.62	5100.8	
200.83	4362.2	
201.05	4651.6	
201.26	5369.8	
201.47	5125.4	
201.69	3706.8	
201.9	3479.5	
202.11	5513.1	
202.33	6566.5	
202.54	3943	
202.76	4352.6	
202.97	5653.1	
203.18	5618.3	
203.4	4344.4	
203.61	4225	
203.82	5559.6	
204.04	5126.7	
204.25	4210.6	
204.46	4072.7	
204.68	5494	
204.89	5744.6	
205.1	4108.9	
205.32	3465.8	
205.53	5914.5	
205.74	6024.4	
205.96	2954.5	
206.17	4255.7	
206.38	5862.7	
206.6	5997.8	
206.81	4746.5	
207.02	3900.7	
207.24	5726.8	
207.45	6297.5	
207.66	4044.7	
207.88	3345.7	
208.09	5699.5	
208.3	5498.8	
208.52	3583.9	
208.73	3990.8	
208.94	5495.4	
209.15	6219.7	
209.37	3913	
209.58	4149.2	
209.79	6071.5	
210.01	5244.2	
210.22	3158.7	
210.43	3335.5	
210.65	5506.3	
210.86	5868.1	
211.07	3992.9	
211.29	3617.4	
211.5	5851	
211.71	5440.1	
211.93	3561.4	
212.14	3569.6	
212.35	5384.8	
212.56	5653.8	
212.78	4140.3	
212.99	3416.7	
213.2	6543.3	
213.42	5307.7	
213.63	3757.3	
213.84	4052.2	
214.06	4857.1	
214.27	4980	
214.48	3945.8	
214.69	4244.8	
214.91	6194.4	
215.12	6255.2	
215.33	4253.6	
215.55	4683.7	
215.76	6774.7	
215.97	5902.9	
216.18	4070.7	
216.4	3941.7	
216.61	5156.8	
216.82	6012.8	
217.04	3611.9	
217.25	3779.2	
217.46	6148.7	
217.67	5878.4	
217.89	3252.2	
218.1	3386.7	
218.31	5590.3	
218.53	5732.3	
218.74	3872.7	
218.95	3710.2	
219.16	5421	
219.38	6501.6	
219.59	3705.5	
219.8	4465.3	
220.01	7146	
220.23	5494	
220.44	4884.4	
220.65	3599	
220.87	5500.2	
221.08	6172.6	
221.29	3360	
221.5	4522.6	
221.72	7618.4	
221.93	5199.8	
222.14	4186.7	
222.35	4959.5	
222.57	5489.2	
222.78	5903.6	
222.99	3966.2	
223.2	4323.9	
223.42	5788.9	
223.63	6043.6	
223.84	3016	
224.05	3025.5	
224.27	7085.3	
224.48	6358.9	
224.69	4920.6	
224.9	4147.1	
225.12	5700.2	
225.33	5472.2	
225.54	3336.8	
225.75	3719.1	
225.97	5027.1	
226.18	5350	
226.39	3989.4	
226.6	3696.6	
226.82	5236.7	
227.03	5084.4	
227.24	4144.4	
227.45	3439.9	
227.67	5852.4	
227.88	6496.8	
228.09	4673.5	
228.3	4673.5	
228.52	5933	
228.73	5444.9	
228.94	3823.6	
229.15	3454.2	
229.36	5411.4	
229.58	5350.7	
229.79	3897.3	
230	4530.8	
230.21	6533	
230.43	5649	
230.64	4096.6	
230.85	4288.4	
231.06	5894.7	
231.28	5973.9	
231.49	3440.6	
231.7	4063.9	
231.91	5857.2	
232.12	5502.2	
232.34	3520.5	
232.55	3999	
232.76	6152.8	
232.97	5692.7	
233.18	3653.6	
233.4	4121.9	
233.61	5712.5	
233.82	5180.7	
234.03	3808.5	
234.25	3713.6	
234.46	7723.6	
234.67	5508.4	
234.88	4270	
235.09	3692.5	
235.31	5831.2	
235.52	5393	
235.73	4133.5	
235.94	3493.8	
236.15	5248.3	
236.37	6682.5	
236.58	3639.2	
236.79	3988.1	
237	5768.4	
237.21	4990.9	
237.43	4365.6	
237.64	3385.3	
237.85	10138	
238.06	5012.1	
238.27	4345.1	
238.48	3431	
238.7	5848.3	
238.91	5352	
239.12	3937.6	
239.33	4019.5	
239.54	5113.1	
239.76	5479.7	
239.97	3955.3	
240.18	3989.4	
240.39	6954.9	
240.6	5821.7	
240.82	4197	
241.03	3405.1	
241.24	5464	
241.45	6410.8	
241.66	3611.3	
241.87	4286.4	
242.09	6315.9	
242.3	6659.3	
242.51	4386.7	
242.72	3939.6	
242.93	6004.6	
243.14	5481	
243.36	4637.3	
243.57	4999.1	
243.78	6346	
243.99	5901.6	
244.2	4073.4	
244.41	3663.8	
244.63	5000.5	
244.84	5802.6	
245.05	4209.9	
245.26	4052.2	
245.47	5702.9	
245.68	6066.1	
245.9	5347.2	
246.11	4226.3	
246.32	5329.5	
246.53	5737.7	
246.74	6518	
246.95	3390.8	
247.16	4941.1	
247.38	5508.4	
247.59	3304.7	
247.8	4007.9	
248.01	5160.9	
248.22	5411.4	
248.43	3614.7	
248.64	3891.1	
248.86	4830.5	
249.07	5258.5	
249.28	3437.2	
249.49	4067.9	
249.7	6071.5	
249.91	6194.4	
250.12	3293.8	
250.34	3369.6	
250.55	5624.4	
250.76	5532.2	
250.97	4093.9	
251.18	4166.3	
251.39	6202.6	
251.6	5704.3	
251.81	4226.3	
252.03	4158.1	
252.24	5237.3	
252.45	6091.3	
252.66	3469.9	
252.87	4425.7	
253.08	5511.8	
253.29	7299.6	
253.5	3457	
253.72	4863.9	
253.93	5347.2	
254.14	6604.7	
254.35	3790.1	
254.56	3878.9	
254.77	5688.6	
254.98	5145.2	
255.19	3738.2	
255.41	4788.2	
255.62	5595.1	
255.83	6175.3	
256.04	4256.4	
256.25	4162.2	
256.46	6796.5	
256.67	5093.3	
256.88	4147.8	
257.09	4584.7	
257.31	5192.3	
257.52	5179.3	
257.73	5175.2	
257.94	3772.4	
258.15	5345.2	
258.36	5526.1	
258.57	4768.4	
258.78	3016.7	
258.99	6029.9	
259.2	5347.2	
259.41	3843.4	
259.63	3881.6	
259.84	6340.5	
260.05	6886.6	
260.26	4977.2	
260.47	3626.3	
260.68	6120.7	
260.89	5468.8	
261.1	4580.6	
261.31	3646.7	
261.52	6072.2	
261.73	6511.9	
261.95	4891.9	
262.16	4330.8	
262.37	6310.5	
262.58	6303.6	
262.79	4960.2	
263	3897.3	
263.21	5511.8	
263.42	4987.5	
263.63	3924.6	
263.84	3830.4	
264.05	6172.6	
264.26	6466.1	
264.47	4782.7	
264.69	4315.1	
264.9	6209.4	
265.11	5710.4	
265.32	3657.7	
265.53	3770.3	
265.74	5601.2	
265.95	4915.8	
266.16	4044.7	
266.37	4474.1	
266.58	5628.5	
266.79	5329.5	
267	3781.9	
267.21	3444.7	
267.42	5079	
267.63	5502.2	
267.84	3948.5	
268.06	3373	
268.27	6014.2	
268.48	6252.4	
268.69	3850.2	
268.9	4618.2	
269.11	6262	
269.32	4990.9	
269.53	3974.4	
269.74	3669.3	
269.95	5926.1	
270.16	4814.1	
270.37	4041.3	
270.58	4625.7	
270.79	5332.2	
271	6120.7	
271.21	4280.3	
271.42	4030.4	
271.63	5664.7	
271.84	5185.5	
272.05	3131.3	
272.26	3578.5	
272.47	5564.3	
272.68	5722.7	
272.89	3786.7	
273.11	4438.6	
273.32	5273.5	
273.53	6457.2	
273.74	4350.6	
273.95	4212.7	
274.16	6201.9	
274.37	5554.8	
274.58	4401.8	
274.79	3439.9	
275	5664	
275.21	6203.3	
275.42	5283.8	
275.63	4599.7	
275.84	5739.1	
276.05	7275.8	
276.26	4184	
276.47	4018.8	
276.68	5354.1	
276.89	6600.6	
277.1	4493.9	
277.31	3556	
277.52	5700.2	
277.73	5870.2	
277.94	3487	
278.15	3846.8	
278.36	5694.7	
278.57	5182.7	
278.78	3825.6	
278.99	4326.7	
279.2	5128.8	
279.41	5060.5	
279.62	5020.9	
279.83	3546.4	
280.04	6785.6	
280.25	5023.7	
280.46	5038	
280.67	4021.5	
280.88	5066.7	
281.09	6126.8	
281.3	4216.1	
281.51	5263.3	
281.72	5213.4	
281.93	6114.6	
282.14	3740.3	
282.35	4008.6	
282.56	6027.9	
282.77	5994.4	
282.98	3845.4	
283.19	4754.7	
283.4	7466.2	
283.61	5393.7	
283.82	3459.7	
284.03	4983.4	
284.24	5580.7	
284.45	6185.5	
284.66	5036.6	
284.87	4732.9	
285.08	6091.3	
285.29	6269.5	
285.5	3396.2	
285.71	3941.7	
285.92	6130.3	
286.12	6812.2	
286.33	4925.4	
286.54	3851.5	
286.75	6076.3	
286.96	5390.3	
287.17	3543.7	
287.38	4889.9	
287.59	5103.5	
287.8	5033.2	
288.01	3947.1	
288.22	4558.8	
288.43	6038.1	
288.64	5089.9	
288.85	4614.1	
289.06	4399.7	
289.27	5955.5	
289.48	6525.5	
289.69	4967.7	
289.9	4500.8	
290.11	6154.1	
290.32	5221.6	
290.53	4718.5	
290.74	4342.4	
290.94	5921.4	
291.15	5992.4	
291.36	3739.6	
291.57	4410.6	
291.78	5257.1	
291.99	4940.4	
292.2	3644.7	
292.41	4369.7	
292.62	6029.9	
292.83	5913.9	
293.04	5443.5	
293.25	3567.6	
293.46	5270.1	
293.67	6126.8	
293.88	3730	
294.09	3589.4	
294.29	5019.6	
294.5	5638.7	
294.71	4034.5	
294.92	3820.1	
295.13	5298.1	
295.34	6621.8	
295.55	3340.2	
295.76	3443.3	
295.97	5889.3	
296.18	6785.6	
296.39	3533.4	
296.6	3733.4	
296.81	5661.3	
297.01	5932.3	
297.22	3898	
297.43	3684.3	
297.64	5104.2	
297.85	5199.8	
298.06	3097.2	
298.27	3347.1	
298.48	5658.5	
298.69	5208.7	
298.9	4048.8	
299.11	3704.1	
299.31	5042.8	
299.52	5039.4	
299.73	4298	
299.94	4232.5	
300.15	5524.1	
300.36	5104.2	
300.57	4304.1	
300.78	4245.4	
300.99	5409.4	
301.2	5655.1	
301.4	3703.4	
301.61	4076.8	
301.82	5816.9	
302.03	6027.2	
302.24	4527.4	
302.45	3546.4	
302.66	5856.5	
302.87	6325.5	
303.08	3768.3	
303.29	5183.4	
303.49	5281.7	
303.7	5547.3	
303.91	3307.5	
304.12	4909	
304.33	4967	
304.54	5617.6	
304.75	3741.6	
304.96	3574.4	
305.16	5877.7	
305.37	6599.2	
305.58	3261.7	
305.79	3418.1	
306	5868.1	
306.21	4936.3	
306.42	3760.8	
306.63	5887.2	
306.83	5340.4	
307.04	6127.5	
307.25	4099.4	
307.46	4119.1	
307.67	4715.1	
307.88	5969.1	
308.09	3626.3	
308.29	3833.8	
308.5	5605.3	
308.71	6167.1	
308.92	4029	
309.13	3601.7	
309.34	5335.6	
309.55	5448.3	
309.75	4702.1	
309.96	4269.3	
310.17	5961	
310.38	5157.5	
310.59	4511.7	
310.8	4268.6	
311.01	5353.4	
311.21	5365.7	
311.42	3532.1	
311.63	3634.5	
311.84	5251	
312.05	5628.5	
312.26	4186.7	
312.46	4511.7	
312.67	5382.7	
312.88	5058.5	
313.09	3656.3	
313.3	3523.9	
313.51	6302.3	
313.71	6756.9	
313.92	3541.6	
314.13	3837.9	
314.34	5675.6	
314.55	5416.9	
314.76	4663.9	
314.96	4120.5	
315.17	5585.5	
315.38	5971.9	
315.59	3624.9	
315.8	3500	
316.01	6425.2	
316.21	6481.8	
316.42	3456.3	
316.63	4000.4	
316.84	5433.9	
317.05	6253.8	
317.26	4308.9	
317.46	3809.2	
317.67	5445.5	
317.88	5951.4	
318.09	4616.1	
318.3	3419.4	
318.5	5223.7	
318.71	5825.1	
318.92	5862.7	
319.13	4270	
319.34	6068.8	
319.54	6081.8	
319.75	3345.7	
319.96	3204.4	
320.17	5943.9	
320.38	6195.1	
320.58	3286.3	
320.79	3987.4	
321	6077.7	
321.21	6208.1	
321.42	4023.6	
321.62	3310.2	
321.83	5100.8	
322.04	5473.5	
322.25	3822.9	
322.46	3670	
322.66	5646.9	
322.87	5805.3	
323.08	4485.7	
323.29	3579.8	
323.5	6645	
323.7	5025	
323.91	5012.1	
324.12	4461.8	
324.33	5527.5	
324.53	5917.9	
324.74	4250.9	
324.95	4567	
325.16	4887.8	
325.37	5289.2	
325.57	3668.6	
325.78	3676.1	
325.99	5548.6	
326.2	4969.7	
326.4	5179.3	
326.61	3349.8	
326.82	5456.5	
327.03	5621	
327.24	5156.8	
327.44	4962.2	
327.65	5847	
327.86	4666	
328.07	4279.6	
328.27	3511.6	
328.48	6281.1	
328.69	5074.2	
328.9	5302.9	
329.1	3876.1	
329.31	5364.3	
329.52	6392.4	
329.73	3671.3	
329.93	4100	
330.14	5496.1	
330.35	5768.4	
330.56	6085.9	
330.76	4486.4	
330.97	5345.2	
331.18	5723.4	
331.39	4048.8	
331.59	3273.3	
331.8	6126.2	
332.01	6314.6	
332.22	3774.4	
332.42	4289.1	
332.63	5670.8	
332.84	5228.5	
333.05	4069.3	
333.25	3697.3	
333.46	5239.4	
333.67	5559.6	
333.88	3765.5	
334.08	4242.7	
334.29	7373.4	
334.5	6245.6	
334.7	3564.8	
334.91	5229.8	
335.12	5070.8	
335.33	5993	
335.53	4001.7	
335.74	6072.9	
335.95	5282.4	
336.16	5145.9	
336.36	4144.4	
336.57	4640.7	
336.78	5048.9	
336.98	6165.8	
337.19	4986.8	
337.4	3953.3	
337.61	6677.1	
337.81	5038	
338.02	3724.6	
338.23	4871.4	
338.43	6367.1	
338.64	5145.2	
338.85	3680.2	
339.05	4810	
339.26	6455.9	
339.47	4964.3	
339.68	3653.6	
339.88	5387.5	
340.09	5784.1	
340.3	6004	
340.5	4345.1	
340.71	3231	
340.92	4993.6	
341.13	6322.1	
341.33	3618.1	
341.54	4307.6	
341.75	5789.6	
341.95	5436	
342.16	4125.3	
342.37	4436.6	
342.57	5025	
342.78	5476.3	
342.99	4539.7	
343.19	3299.3	
343.4	6001.2	
343.61	5786.9	
343.81	3880.9	
344.02	3632.4	
344.23	5937.1	
344.43	6444.3	
344.64	4561.5	
344.85	4448.9	
345.06	5789.6	
345.26	6171.2	
345.47	4247.5	
345.68	4977.9	
345.88	4868	
346.09	6064.7	
346.3	4367	
346.5	3239.9	
346.71	5614.8	
346.92	5182	
347.12	3323.9	
347.33	4234.5	
347.54	6184.2	
347.74	6547.4	
347.95	4218.8	
348.16	3143.6	
348.36	5363.6	
348.57	5198.4	
348.78	4176.5	
348.98	4511.7	
349.19	5530.2	
349.39	5033.9	
349.6	3353.9	
349.81	3717.1	
350.01	5835.3	
350.22	5264.6	
350.43	4090.5	
350.63	4907.6	
350.84	5578	
351.05	5388.2	
351.25	3742.3	
351.46	3396.2	
351.67	6169.8	
351.87	5284.4	
352.08	3933.5	
352.29	4526.7	
352.49	6116.6	
352.7	5819.6	
352.9	3618.1	
353.11	4519.2	
353.32	6795.2	
353.52	5379.3	
353.73	3576.4	
353.94	4611.3	
354.14	5941.8	
354.35	5821	
354.55	3670.6	
354.76	4148.5	
354.97	5892.7	
355.17	5653.1	
355.38	3457.7	
355.59	4933.6	
355.79	5330.9	
356	5812.8	
356.2	4126	
356.41	3609.9	
356.62	5051.7	
356.82	5618.3	
357.03	4478.2	
357.24	3978.5	
357.44	5371.1	
357.65	5513.8	
357.85	5369.8	
358.06	4230.4	
358.27	5173.9	
358.47	5407.3	
358.68	3516.4	
358.88	4495.3	
359.09	5979.4	
359.3	6488	
359.5	5283.1	
359.71	4629.8	
359.91	6927.6	
360.12	6232	
360.33	4468.7	
360.53	4995	
360.74	5444.9	
360.94	5479.7	
361.15	4702.1	
361.36	3952.6	
361.56	6311.2	
361.77	5743.9	
361.97	5296.7	
362.18	4189.5	
362.38	6265.4	
362.59	5369.8	
362.8	3893.2	
363	3659.7	
363.21	5165	
363.41	5844.9	
363.62	4470	
363.83	5560.9	
364.03	5941.8	
364.24	7053.9	
364.44	5703.6	
364.65	5588.9	
364.85	5749.3	
365.06	5367.7	
365.27	4131.4	
365.47	4154	
365.68	6798.6	
365.88	5699.5	
366.09	4549.2	
366.29	4261.8	
366.5	5993.7	
366.71	6513.2	
366.91	5610.1	
367.12	4741	
367.32	7096.2	
367.53	6335.7	
367.73	4687.1	
367.94	5752.1	
368.14	6198.5	
368.35	7240.9	
368.56	4700.8	
368.76	4005.1	
368.97	6389	
369.17	8151.6	
369.38	4142.4	
369.58	4485.1	
369.79	5362.9	
369.99	6742.6	
370.2	5541.1	
370.4	4489.8	
370.61	6048.3	
370.82	7275.8	
371.02	4420.9	
371.23	3665.2	
371.43	5261.9	
371.64	6738.5	
371.84	4517.8	
372.05	5834.7	
372.25	8103.8	
372.46	6539.8	
372.66	4582.7	
372.87	4539	
373.07	6526.9	
373.28	8272.4	
373.48	5641.5	
373.69	5331.5	
373.9	6023.1	
374.1	6086.6	
374.31	5681.7	
374.51	5162.9	
374.72	7038.9	
374.92	5724.1	
375.13	5916.6	
375.33	5033.9	
375.54	6608.1	
375.74	5999.2	
375.95	5132.9	
376.15	6462	
376.36	6597.2	
376.56	6421.7	
376.77	5240.8	
376.97	5755.5	
377.18	7819.8	
377.38	6790.4	
377.59	6176	
377.79	4819.6	
378	6597.2	
378.2	7176.1	
378.41	4885.8	
378.61	4775.9	
378.82	7127.6	
379.02	6167.1	
379.23	5101.5	
379.43	6249.7	
379.64	7141.9	
379.84	6795.2	
380.05	4775.9	
380.25	4754.7	
380.46	6958.3	
380.66	6485.9	
380.87	6248.4	
381.07	6655.9	
381.28	7591.8	
381.48	6925.5	
381.69	4894.6	
381.89	4866	
382.1	5696.8	
382.3	7015	
382.51	5972.6	
382.71	6918.7	
382.91	6849.8	
383.12	7408.9	
383.32	5194.3	
383.53	5452.4	
383.73	6674.3	
383.94	6469.5	
384.14	5259.2	
384.35	4347.8	
384.55	6352.1	
384.76	6822.5	
384.96	5139.7	
385.17	5431.2	
385.37	6784.9	
385.58	6010.1	
385.78	5409.4	
385.98	4237.9	
386.19	6279.8	
386.39	6641.6	
386.6	4925.4	
386.8	5145.9	
387.01	6800.6	
387.21	6937.8	
387.42	5640.8	
387.62	6331.6	
387.83	6160.3	
388.03	6946	
388.23	5339.7	
388.44	6164.4	
388.64	5887.2	
388.85	6109.8	
389.05	5778.7	
389.26	6451.1	
389.46	7942	
389.67	7491.5	
389.87	5771.2	
390.07	5840.1	
390.28	6666.8	
390.48	6173.9	
390.69	4999.8	
390.89	5187.5	
391.1	6316.6	
391.3	7444.4	
391.5	6514.6	
391.71	7207.5	
391.91	7066.9	
392.12	8267	
392.32	6647.7	
392.53	5819.6	
392.73	6432.7	
392.93	6680.5	
393.14	5362.9	
393.34	6211.5	
393.55	7093.5	
393.75	6541.2	
393.95	5340.4	
394.16	5214.1	
394.36	6287.9	
394.57	7021.1	
394.77	4827.7	
394.98	5319.9	
395.18	6326.2	
395.38	6511.9	
395.59	6305	
395.79	5231.9	
396	6593.8	
396.2	7121.5	
396.4	6190.3	
396.61	6139.1	
396.81	7379.5	
397.02	6570.6	
397.22	6533	
397.42	6557.6	
397.63	7427.3	
397.83	6592.4	
398.04	5251.7	
398.24	5964.4	
398.44	7175.4	
398.65	6195.1	
398.85	5210.7	
399.05	5337	
399.26	6636.1	
399.46	8453.3	
399.67	5781.4	
399.87	5493.3	
400.07	7133.8	
400.28	7482.6	
400.48	5698.8	
400.69	6807.4	
400.89	7783	
401.09	8204.8	
401.3	5602.6	
401.5	6781.5	
401.7	8488.8	
401.91	8790.6	
402.11	5911.8	
402.32	6076.3	
402.52	7699.7	
402.72	7504.4	
402.93	6201.2	
403.13	4885.1	
403.33	8166.6	
403.54	6766.5	
403.74	5638.1	
403.94	6569.2	
404.15	6812.9	
404.35	8109.3	
404.56	5573.2	
404.76	7591.8	
404.96	7600.7	
405.17	7300.3	
405.37	7148.1	
405.57	6368.5	
405.78	7831.4	
405.98	7081.2	
406.18	5730.9	
406.39	6656.6	
406.59	7464.8	
406.79	7128.3	
407	5426.4	
407.2	5468.8	
407.4	7443.7	
407.61	7847.1	
407.81	5682.4	
408.01	7982.3	
408.22	6724.2	
408.42	8999.5	
408.62	7180.9	
408.83	6690.7	
409.03	7643	
409.23	7524.9	
409.44	6892.8	
409.64	7235.5	
409.84	8824	
410.05	8754.4	
410.25	7065.5	
410.45	6820.4	
410.66	8374.1	
410.86	10942	
411.06	7463.5	
411.27	7299.6	
411.47	10806	
411.67	8701.1	
411.88	7555.6	
412.08	7980.9	
412.28	9351	
412.49	9882.1	
412.69	7453.9	
412.89	7528.3	
413.09	9722.4	
413.3	9598.8	
413.5	7612.3	
413.7	7176.8	
413.91	8671.8	
414.11	9737.4	
414.31	7533.8	
414.52	8024.6	
414.72	9345.6	
414.92	9323	
415.12	7477.1	
415.33	8063.5	
415.53	9738.8	
415.73	10017	
415.94	8469	
416.14	7839.6	
416.34	8714.8	
416.55	8510	
416.75	9178.3	
416.95	8548.2	
417.15	9942.2	
417.36	10447	
417.56	9386.5	
417.76	8386.4	
417.97	10389	
418.17	10101	
418.37	8081.3	
418.57	8163.2	
418.78	9632.3	
418.98	9322.4	
419.18	8946.9	
419.38	8822.6	
419.59	9293.7	
419.79	8711.4	
419.99	7783.6	
420.2	8171.4	
420.4	9876	
420.6	10043	
420.8	7844.4	
421.01	7666.2	
421.21	9702.6	
421.41	9996.8	
421.61	8216.5	
421.82	7877.2	
422.02	9204.3	
422.22	10054	
422.42	8722.3	
422.63	8120.2	
422.83	9215.9	
423.03	10358	
423.23	8219.2	
423.44	7140.6	
423.64	9216.5	
423.84	8888.2	
424.04	7640.3	
424.25	7302.4	
424.45	10164	
424.65	9998.9	
424.85	7044.3	
425.06	7691.5	
425.26	10061	
425.46	8525.7	
425.66	8106.5	
425.87	7739.3	
426.07	9783.1	
426.27	9592.7	
426.47	7891.5	
426.67	7193.1	
426.88	10010	
427.08	9516.9	
427.28	8121.6	
427.48	7083.2	
427.69	8364.6	
427.89	9092.3	
428.09	8066.9	
428.29	7127.6	
428.5	9740.8	
428.7	9321.7	
428.9	7073.7	
429.1	7651.9	
429.3	9197.4	
429.51	9708.7	
429.71	7425.9	
429.91	8366	
430.11	9613.8	
430.31	9878.7	
430.52	7827.3	
430.72	8230.8	
430.92	10131	
431.12	9643.2	
431.32	7508.5	
431.53	7779.6	
431.73	8519.5	
431.93	10279	
432.13	7372.7	
432.33	7261.4	
432.54	9043.1	
432.74	9554.5	
432.94	7302.4	
433.14	8374.1	
433.34	9572.9	
433.55	9275.3	
433.75	8320.2	
433.95	10238	
434.15	9454.1	
434.35	9163.3	
434.56	7503.1	
434.76	7068.2	
434.96	9432.9	
435.16	9839.8	
435.36	7401.4	
435.56	8695.7	
435.77	9213.8	
435.97	9345.6	
436.17	9415.2	
436.37	8656.8	
436.57	9150.3	
436.78	9217.2	
436.98	10368	
437.18	9312.1	
437.38	9963.4	
437.58	9379	
437.78	9350.3	
437.99	7836.2	
438.19	9746.3	
438.39	10503	
438.59	7688.1	
438.79	7118.7	
438.99	10423	
439.2	9156.5	
439.4	7249.8	
439.6	7284.6	
439.8	9835.7	
440	10944	
440.2	8654.7	
440.4	8796.7	
440.61	10278	
440.81	10910	
441.01	7914	
441.21	9025.4	
441.41	10806	
441.61	10329	
441.81	9185.1	
442.02	10237	
442.22	11269	
442.42	10340	
442.62	7980.9	
442.82	7824.6	
443.02	10757	
443.22	9849.4	
443.43	8527.1	
443.63	8044.4	
443.83	9534	
444.03	9725.1	
444.23	9495.7	
444.43	8910.7	
444.63	10101	
444.83	11292	
445.04	8222.6	
445.24	9480	
445.44	10284	
445.64	10396	
445.84	8794.7	
446.04	8820.6	
446.24	9478	
446.44	10540	
446.65	7877.2	
446.85	8448.6	
447.05	9519	
447.25	10559	
447.45	8449.2	
447.65	7853.3	
447.85	9811.8	
448.05	9330.5	
448.25	8858.1	
448.46	8812.4	
448.66	9865.7	
448.86	9527.2	
449.06	7577.5	
449.26	8849.3	
449.46	10404	
449.66	9121	
449.86	8544.1	
450.06	8421.9	
450.26	9491	
450.47	10062	
450.67	8661.5	
450.87	9069.8	
451.07	10124	
451.27	10029	
451.47	7836.9	
451.67	8624.7	
451.87	9693	
452.07	10686	
452.27	8279.9	
452.47	8161.2	
452.67	9895.1	
452.88	10547	
453.08	7442.3	
453.28	9582.4	
453.48	11181	
453.68	9716.2	
453.88	7961.1	
454.08	8344.1	
454.28	10284	
454.48	10003	
454.68	9030.9	
454.88	9488.2	
455.08	10382	
455.28	10281	
455.48	7953.6	
455.68	8809	
455.89	11032	
456.09	10668	
456.29	8366.6	
456.49	8603.5	
456.69	10932	
456.89	10085	
457.09	9180.4	
457.29	9564.7	
457.49	10465	
457.69	10834	
457.89	9102.5	
458.09	8429.4	
458.29	10437	
458.49	11153	
458.69	9515.5	
458.89	8993.3	
459.09	11417	
459.29	11552	
459.49	8920.3	
459.69	9845.3	
459.9	10933	
460.1	10449	
460.3	8744.8	
460.5	8632.2	
460.7	10873	
460.9	10625	
461.1	8348.9	
461.3	9796.1	
461.5	11723	
461.7	11199	
461.9	8976.9	
462.1	9320.3	
462.3	10771	
462.5	11417	
462.7	9111.4	
462.9	9202.9	
463.1	12569	
463.3	12503	
463.5	9424.8	
463.7	10649	
463.9	11213	
464.1	11579	
464.3	9699.2	
464.5	9906.7	
464.7	11854	
464.9	11690	
465.1	11430	
465.3	10261	
465.5	12223	
465.7	12205	
465.9	10594	
466.1	10299	
466.3	12292	
466.5	11779	
466.7	11541	
466.9	10241	
467.1	11876	
467.3	12807	
467.5	11458	
467.7	10183	
467.9	13087	
468.1	14218	
468.3	11142	
468.5	11602	
468.7	12054	
468.9	11965	
469.1	10604	
469.3	11391	
469.5	14095	
469.7	11505	
469.9	10993	
470.1	10372	
470.3	11994	
470.5	11968	
470.7	11485	
470.9	10309	
471.1	11793	
471.3	11923	
471.5	10077	
471.69	12150	
471.89	11482	
472.09	10959	
472.29	10871	
472.49	11095	
472.69	11249	
472.89	11962	
473.09	9910.8	
473.29	9951.8	
473.49	11326	
473.69	11437	
473.89	10962	
474.09	10118	
474.29	12744	
474.49	12357	
474.69	10893	
474.89	10167	
475.09	11361	
475.29	11355	
475.49	9555.8	
475.69	9902.6	
475.88	13031	
476.08	11635	
476.28	9503.3	
476.48	9892.4	
476.68	12041	
476.88	11787	
477.08	9700.5	
477.28	10066	
477.48	11165	
477.68	11942	
477.88	9486.2	
478.08	9891	
478.28	12504	
478.48	11431	
478.67	9920.4	
478.87	9258.2	
479.07	12110	
479.27	11553	
479.47	10035	
479.67	9947.7	
479.87	11957	
480.07	12516	
480.27	9358.5	
480.47	11021	
480.67	11481	
480.87	12277	
481.06	9512.1	
481.26	10558	
481.46	11488	
481.66	11313	
481.86	10037	
482.06	11145	
482.26	11073	
482.46	12297	
482.66	9909.4	
482.86	9572.2	
483.05	11515	
483.25	10897	
483.45	12635	
483.65	10049	
483.85	11116	
484.05	11465	
484.25	10385	
484.45	11071	
484.65	12385	
484.84	12496	
485.04	9899.2	
485.24	10028	
485.44	12626	
485.64	10896	
485.84	9370.1	
486.04	10761	
486.24	11325	
486.44	11755	
486.63	9220	
486.83	10180	
487.03	11255	
487.23	11458	
487.43	9342.2	
487.63	12005	
487.83	11607	
488.02	12726	
488.22	10606	
488.42	11210	
488.62	12497	
488.82	11415	
489.02	10103	
489.22	10177	
489.41	12325	
489.61	12138	
489.81	9794.1	
490.01	9829.6	
490.21	12243	
490.41	12953	
490.61	9881.4	
490.8	9912.2	
491	11673	
491.2	10959	
491.4	10458	
491.6	9435.7	
491.8	11423	
491.99	11665	
492.19	9255.5	
492.39	9684.2	
492.59	12217	
492.79	12323	
492.99	10874	
493.18	9919.7	
493.38	12420	
493.58	13333	
493.78	10700	
493.98	10355	
494.18	12293	
494.37	11724	
494.57	10990	
494.77	10916	
494.97	12714	
495.17	12997	
495.37	10484	
495.56	11001	
495.76	13265	
495.96	12818	
496.16	11909	
496.36	10780	
496.55	13016	
496.75	12486	
496.95	11215	
497.15	11029	
497.35	12951	
497.54	12934	
497.74	10829	
497.94	12672	
498.14	13691	
498.34	13594	
498.53	10595	
498.73	11475	
498.93	12398	
499.13	13020	
499.33	11314	
499.52	11770	
499.72	12973	
499.92	13291	
500.12	10992	
500.32	11248	
500.51	13263	
500.71	13086	
500.91	12151	
501.11	11487	
501.31	13095	
501.5	13672	
501.7	12314	
501.9	11245	
502.1	12991	
502.29	13347	
502.49	11682	
502.69	12088	
502.89	12998	
503.09	12980	
503.28	10436	
503.48	10604	
503.68	12129	
503.88	12265	
504.07	11588	
504.27	10986	
504.47	12559	
504.67	12598	
504.86	11510	
505.06	11141	
505.26	12114	
505.46	13958	
505.65	10863	
505.85	10996	
506.05	11803	
506.25	12411	
506.44	9987.3	
506.64	11055	
506.84	11753	
507.04	12781	
507.23	10273	
507.43	10889	
507.63	13881	
507.83	11950	
508.02	10776	
508.22	10372	
508.42	13938	
508.62	11592	
508.81	10750	
509.01	11070	
509.21	11417	
509.4	11673	
509.6	10761	
509.8	10136	
510	11798	
510.19	13407	
510.39	10216	
510.59	10206	
510.79	11613	
510.98	13104	
511.18	10318	
511.38	10364	
511.57	12318	
511.77	12245	
511.97	10928	
512.17	9869.2	
512.36	12411	
512.56	12261	
512.76	10012	
512.95	9693	
513.15	12458	
513.35	11013	
513.55	10998	
513.74	10129	
513.94	12432	
514.14	11800	
514.33	11040	
514.53	10881	
514.73	11681	
514.92	11963	
515.12	10202	
515.32	10059	
515.51	12071	
515.71	12629	
515.91	11998	
516.11	10325	
516.3	13870	
516.5	11605	
516.7	10633	
516.89	11437	
517.09	11754	
517.29	11557	
517.48	10892	
517.68	10284	
517.88	11428	
518.07	12013	
518.27	10835	
518.47	9858.9	
518.66	12661	
518.86	11123	
519.06	9732.6	
519.25	10099	
519.45	11548	
519.65	13209	
519.84	10811	
520.04	11602	
520.24	13495	
520.43	12146	
520.63	10306	
520.83	10118	
521.02	11225	
521.22	11854	
521.42	10557	
521.61	11188	
521.81	11465	
522.01	11585	
522.2	10568	
522.4	10275	
522.6	12340	
522.79	11041	
522.99	10393	
523.18	9737.4	
523.38	12097	
523.58	12199	
523.77	11985	
523.97	9975.7	
524.17	14141	
524.36	13342	
524.56	11430	
524.76	10910	
524.95	12332	
525.15	11883	
525.34	10756	
525.54	10659	
525.74	12600	
525.93	11651	
526.13	11989	
526.33	10763	
526.52	13025	
526.72	12480	
526.91	12045	
527.11	11265	
527.31	13159	
527.5	13617	
527.7	11312	
527.89	10310	
528.09	11872	
528.29	12657	
528.48	11736	
528.68	11287	
528.87	12919	
529.07	12991	
529.27	11009	
529.46	10541	
529.66	12458	
529.85	12913	
530.05	10227	
530.25	11174	
530.44	13864	
530.64	12349	
530.83	10790	
531.03	11107	
531.23	12801	
531.42	12746	
531.62	12014	
531.81	11043	
532.01	13166	
532.21	13759	
532.4	10949	
532.6	11407	
532.79	13968	
532.99	13421	
533.18	11344	
533.38	12483	
533.58	12790	
533.77	13664	
533.97	11371	
534.16	12207	
534.36	13874	
534.55	12859	
534.75	12463	
534.95	11521	
535.14	13743	
535.34	12861	
535.53	11006	
535.73	13050	
535.92	14216	
536.12	12852	
536.31	11000	
536.51	12330	
536.71	13058	
536.9	12650	
537.1	11148	
537.29	11362	
537.49	13621	
537.68	12578	
537.88	11709	
538.07	10925	
538.27	12874	
538.46	14007	
538.66	10956	
538.86	11323	
539.05	12934	
539.25	13416	
539.44	11712	
539.64	11135	
539.83	12639	
540.03	13720	
540.22	10985	
540.42	11057	
540.61	12712	
540.81	13091	
541	11392	
541.2	12268	
541.39	12312	
541.59	12706	
541.78	11873	
541.98	10798	
542.18	11956	
542.37	11983	
542.57	11107	
542.76	11774	
542.96	11867	
543.15	12598	
543.35	11059	
543.54	10368	
543.74	12872	
543.93	12394	
544.13	11044	
544.32	12155	
544.52	12646	
544.71	11890	
544.91	10051	
545.1	11156	
545.3	11902	
545.49	12673	
545.69	9948.3	
545.88	10575	
546.08	13576	
546.27	13119	
546.47	11159	
546.66	10360	
546.86	12864	
547.05	13476	
547.24	10606	
547.44	10467	
547.63	11579	
547.83	12832	
548.02	10804	
548.22	10979	
548.41	11370	
548.61	12760	
548.8	10296	
549	10105	
549.19	12048	
549.39	12313	
549.58	9853.5	
549.78	10443	
549.97	12480	
550.17	11867	
550.36	11419	
550.55	12314	
550.75	11850	
550.94	12802	
551.14	10036	
551.33	10436	
551.53	11060	
551.72	12119	
551.92	10548	
552.11	10166	
552.31	12095	
552.5	12270	
552.69	11966	
552.89	9787.2	
553.08	12039	
553.28	11865	
553.47	10139	
553.67	11340	
553.86	12774	
554.06	11031	
554.25	9291	
554.44	9915.6	
554.64	13466	
554.83	13147	
555.03	9841.2	
555.22	10202	
555.42	12207	
555.61	11935	
555.8	10066	
556	10307	
556.19	10977	
556.39	12309	
556.58	10049	
556.78	10033	
556.97	11880	
557.16	11533	
557.36	11273	
557.55	9701.9	
557.75	10677	
557.94	12581	
558.13	9729.9	
558.33	9471.2	
558.52	12297	
558.72	11077	
558.91	9573.6	
559.1	9876	
559.3	10812	
559.49	10444	
559.69	8956.4	
559.88	10172	
560.07	11643	
560.27	12043	
560.46	10340	
560.66	10364	
560.85	11456	
561.04	10528	
561.24	9521.7	
561.43	9651.4	
561.63	10803	
561.82	11054	
562.01	11035	
562.21	9877.4	
562.4	11416	
562.59	12523	
562.79	9768.1	
562.98	9422	
563.18	11436	
563.37	13046	
563.56	10423	
563.76	9433.6	
563.95	10940	
564.14	10730	
564.34	9741.5	
564.53	9553.1	
564.73	11389	
564.92	11830	
565.11	9947	
565.31	9322.4	
565.5	11977	
565.69	10928	
565.89	9585.2	
566.08	9819.3	
566.27	11878	
566.47	12291	
566.66	10479	
566.85	8970.8	
567.05	11441	
567.24	10748	
567.44	9291	
567.63	10828	
567.82	11692	
568.02	11396	
568.21	9389.9	
568.4	9728.5	
568.6	11250	
568.79	11333	
568.98	9280	
569.18	9407	
569.37	11217	
569.56	13364	
569.76	9807	
569.95	10746	
570.14	11566	
570.34	11512	
570.53	9090.9	
570.72	9121	
570.91	11996	
571.11	11003	
571.3	9687.6	
571.49	10694	
571.69	11184	
571.88	10695	
572.07	10247	
572.27	10204	
572.46	10741	
572.65	11817	
572.85	9416.6	
573.04	9820	
573.23	12040	
573.43	11219	
573.62	9211.1	
573.81	9790.7	
574	11294	
574.2	11053	
574.39	9607.7	
574.58	9891.7	
574.78	12297	
574.97	11460	
575.16	10226	
575.36	10363	
575.55	11782	
575.74	11999	
575.93	9228.1	
576.13	10391	
576.32	11241	
576.51	11721	
576.71	9735.4	
576.9	11666	
577.09	12076	
577.28	11541	
577.48	10174	
577.67	9109.4	
577.86	11228	
578.05	11645	
578.25	9751.7	
578.44	9940.2	
578.63	11345	
578.83	12560	
579.02	9172.9	
579.21	10778	
579.4	11583	
579.6	11181	
579.79	9981.8	
579.98	12304	
580.17	11873	
580.37	11989	
580.56	9461.6	
580.75	10224	
580.94	12485	
581.14	12351	
581.33	10828	
581.52	9617.3	
581.71	11819	
581.91	12476	
582.1	9318.9	
582.29	9908.8	
582.48	11426	
582.68	11344	
582.87	10423	
583.06	10005	
583.25	11736	
583.45	11643	
583.64	10686	
583.83	11476	
584.02	11157	
584.21	11746	
584.41	10725	
584.6	10039	
584.79	11477	
584.98	12280	
585.18	9401.5	
585.37	9413.1	
585.56	10877	
585.75	11699	
585.94	9494.4	
586.14	10335	
586.33	12299	
586.52	11302	
586.71	10014	
586.91	9835.7	
587.1	10618	
587.29	11686	
587.48	9622	
587.67	9460.3	
587.87	11441	
588.06	11490	
588.25	10807	
588.44	10038	
588.63	11088	
588.83	11585	
589.02	9284.1	
589.21	9106	
589.4	10639	
589.59	10352	
589.78	8069.7	
589.98	8370.7	
590.17	9729.2	
590.36	10346	
590.55	7611.6	
590.74	8539.3	
590.94	11766	
591.13	10266	
591.32	8314.1	
591.51	7867.6	
591.7	10774	
591.89	10316	
592.09	8065.6	
592.28	8587.8	
592.47	9397.4	
592.66	11341	
592.85	8079.2	
593.05	8363.2	
593.24	10116	
593.43	10791	
593.62	8362.5	
593.81	8885.5	
594	10135	
594.19	10368	
594.39	8262.2	
594.58	8222.6	
594.77	10449	
594.96	11023	
595.15	8165.9	
595.34	8777.6	
595.54	10385	
595.73	9358.5	
595.92	7377.5	
596.11	8576.2	
596.3	11002	
596.49	9633	
596.68	8449.9	
596.88	8903.9	
597.07	10761	
597.26	9485.5	
597.45	7951.6	
597.64	9308	
597.83	9744.9	
598.02	10410	
598.22	8001.4	
598.41	8794.7	
598.6	10084	
598.79	9534.7	
598.98	8132.5	
599.17	9182.4	
599.36	10230	
599.55	11480	
599.74	10309	
599.94	9956.5	
600.13	10809	
600.32	9519.6	
600.51	7847.8	
600.7	8063.5	
600.89	11475	
601.08	11523	
601.27	7875.8	
601.47	8788.5	
601.66	10845	
601.85	11340	
602.04	8449.2	
602.23	8819.2	
602.42	9753.1	
602.61	10397	
602.8	8491.6	
602.99	8211.7	
603.18	10008	
603.37	10327	
603.57	8876.6	
603.76	9433.6	
603.95	11152	
604.14	10761	
604.33	8312	
604.52	8729.8	
604.71	10366	
604.9	9881.4	
605.09	9293.7	
605.28	9069.8	
605.47	10890	
605.66	10627	
605.86	8826.1	
606.05	8235.6	
606.24	10816	
606.43	9372.9	
606.62	8585.1	
606.81	9409.1	
607	10802	
607.19	10042	
607.38	7982.3	
607.57	8254.7	
607.76	9773.6	
607.95	9181.7	
608.14	8516.8	
608.33	9284.8	
608.52	9826.2	
608.72	10714	
608.91	7884	
609.1	7731.1	
609.29	9851.4	
609.48	9357.9	
609.67	8839	
609.86	7823.2	
610.05	9441.8	
610.24	9749	
610.43	7600.7	
610.62	7277.8	
610.81	10910	
611	10649	
611.19	7831.4	
611.38	8611	
611.57	10094	
611.76	11436	
611.95	7521.5	
612.14	7484	
612.33	9925.8	
612.52	9258.2	
612.71	8071.7	
612.9	7354.3	
613.09	8879.3	
613.28	11311	
613.47	7860.1	
613.66	8910	
613.85	9877.4	
614.04	9460.3	
614.24	7892.9	
614.43	7090.8	
614.62	10142	
614.81	9964.7	
615	8548.9	
615.19	8499.1	
615.38	9350.3	
615.57	9643.9	
615.76	8376.2	
615.95	9379.7	
616.14	10155	
616.33	9695.8	
616.52	8673.1	
616.71	8897.7	
616.9	10023	
617.09	9895.1	
617.28	7912.7	
617.47	9316.9	
617.66	9142.8	
617.85	9184.5	
618.04	9041.1	
618.22	8374.1	
618.41	9562	
618.6	10484	
618.79	8334.6	
618.98	8103.8	
619.17	10867	
619.36	9016.5	
619.55	8151.6	
619.74	8182.3	
619.93	10067	
620.12	9482.1	
620.31	8799.4	
620.5	8970.8	
620.69	10621	
620.88	11064	
621.07	9755.8	
621.26	8554.4	
621.45	10267	
621.64	10298	
621.83	8811.7	
622.02	7912.7	
622.21	10243	
622.4	10022	
622.59	9379.7	
622.78	9129.8	
622.97	9553.1	
623.16	10634	
623.35	8794.7	
623.54	7831.4	
623.72	9829.6	
623.91	9937.4	
624.1	8872.5	
624.29	7538.6	
624.48	11129	
624.67	10280	
624.86	8871.8	
625.05	7748.8	
625.24	11237	
625.43	9402.2	
625.62	10636	
625.81	8085.4	
626	10544	
626.19	9810.5	
626.38	8902.5	
626.56	8258.1	
626.75	9605	
626.94	10389	
627.13	8832.9	
627.32	7524.9	
627.51	10178	
627.7	11454	
627.89	7641	
628.08	8748.9	
628.27	9271.8	
628.46	9456.8	
628.65	7894.2	
628.83	7542.7	
629.02	10115	
629.21	9426.1	
629.4	8336.6	
629.59	8529.8	
629.78	9318.3	
629.97	10392	
630.16	8666.3	
630.35	8032.1	
630.54	10909	
630.72	10503	
630.91	8034.9	
631.1	8634.9	
631.29	9951.1	
631.48	10195	
631.67	8712.1	
631.86	8087.4	
632.05	9527.2	
632.24	9583.8	
632.42	7796.6	
632.61	8480.6	
632.8	9744.2	
632.99	9296.4	
633.18	8427.4	
633.37	8906.6	
633.56	9925.1	
633.75	9846.6	
633.93	8416.5	
634.12	8108.6	
634.31	10777	
634.5	10327	
634.69	8191.2	
634.88	8675.9	
635.07	9701.2	
635.25	10321	
635.44	9080.7	
635.63	9355.1	
635.82	9463.7	
636.01	8958.5	
636.2	8967.4	
636.39	8495.7	
636.57	10808	
636.76	10398	
636.95	7805.5	
637.14	9347.6	
637.33	10003	
637.52	10944	
637.7	7712	
637.89	8706.6	
638.08	9592.7	
638.27	11079	
638.46	8820.6	
638.65	9177.6	
638.83	11093	
639.02	9341.5	
639.21	8669.7	
639.4	9149.6	
639.59	9863.7	
639.78	9392.7	
639.96	7842.4	
640.15	7898.3	
640.34	9688.9	
640.53	9881.4	
640.72	7503.1	
640.91	7976.2	
641.09	9064.3	
641.28	10533	
641.47	7864.2	
641.66	8691.6	
641.85	9787.2	
642.03	9973.6	
642.22	8468.4	
642.41	7875.8	
642.6	9165.3	
642.79	8486.8	
642.97	7569.3	
643.16	8497	
643.35	9118.2	
643.54	8872.5	
643.73	7516.7	
643.91	8387.8	
644.1	8713.4	
644.29	9341.5	
644.48	7509.9	
644.67	7674.4	
644.85	8903.9	
645.04	9084.1	
645.23	7094.8	
645.42	7396.6	
645.6	8534.6	
645.79	9896.5	
645.98	7294.9	
646.17	6303	
646.36	8204.2	
646.54	8878.6	
646.73	8066.9	
646.92	6814.3	
647.11	8393.9	
647.29	9553.1	
647.48	6944	
647.67	6724.8	
647.86	9903.3	
648.05	9878.7	
648.23	7213.6	
648.42	8631.5	
648.61	9174.9	
648.8	8877.3	
648.98	6949.4	
649.17	7279.8	
649.36	8449.2	
649.55	7971.4	
649.73	6979.5	
649.92	7725.6	
650.11	8421.9	
650.3	8810.4	
650.48	7086.7	
650.67	6645.7	
650.86	8957.1	
651.05	7876.5	
651.23	7090.1	
651.42	7064.1	
651.61	8361.2	
651.79	8559.1	
651.98	7224.6	
652.17	6760.3	
652.36	8887.5	
652.54	8005.5	
652.73	6851.1	
652.92	6703	
653.11	8973.5	
653.29	8930.5	
653.48	6047	
653.67	7174.7	
653.85	8662.2	
654.04	9682.1	
654.23	7331.7	
654.42	6771.9	
654.6	8006.9	
654.79	8798.1	
654.98	6257.9	
655.16	6767.2	
655.35	7557	
655.54	7535.8	
655.73	6389	
655.91	6249.7	
656.1	8787.2	
656.29	7638.9	
656.47	5842.9	
656.66	7693.5	
656.85	7869.7	
657.03	7885.4	
657.22	6518.7	
657.41	6591.7	
657.59	8140	
657.78	7835.5	
657.97	6143.9	
658.16	7016.3	
658.34	8684.1	
658.53	9153.1	
658.72	7795.9	
658.9	8579.6	
659.09	8128.4	
659.28	8242.4	
659.46	6660	
659.65	6607.4	
659.84	7894.9	
660.02	8496.3	
660.21	6442.9	
660.4	6429.3	
660.58	8860.2	
660.77	8292.2	
660.96	7136.5	
661.14	6113.9	
661.33	9516.9	
661.52	9349.7	
661.7	6006.7	
661.89	9895.8	
662.08	7848.5	
662.26	7518.8	
662.45	6339.8	
662.64	6544.6	
662.82	8581	
663.01	7681.2	
663.2	6451.8	
663.38	7301.7	
663.57	8489.5	
663.75	8317.5	
663.94	6787	
664.13	8213.7	
664.31	7844.4	
664.5	8591.2	
664.69	7172	
664.87	7615.7	
665.06	7510.6	
665.25	8322.9	
665.43	7958.4	
665.62	7926.3	
665.8	8694.3	
665.99	7881.3	
666.18	6750.1	
666.36	6948.8	
666.55	8626	
666.74	8535.9	
666.92	6347.3	
667.11	8101.1	
667.29	7899	
667.48	8548.2	
667.67	7619.8	
667.85	6780.1	
668.04	8044.4	
668.22	7970.7	
668.41	6839.5	
668.6	6984.9	
668.78	7737.9	
668.97	7918.8	
669.15	7227.3	
669.34	6122.7	
669.53	7770.7	
669.71	8101.1	
669.9	6274.3	
670.08	7016.3	
670.27	7725.6	
670.46	8321.6	
670.64	7228	
670.83	7557.7	
671.01	7589.1	
671.2	8284.7	
671.38	6382.2	
671.57	6215.6	
671.76	8915.5	
671.94	9486.9	
672.13	6207.4	
672.31	7340.6	
672.5	8463.6	
672.69	7746.8	
672.87	6346.7	
673.06	6720.8	
673.24	8328.4	
673.43	7709.9	
673.61	7139.9	
673.8	6651.8	
673.98	8439	
674.17	8701.8	
674.36	7340.6	
674.54	7209.5	
674.73	8234.2	
674.91	8460.8	
675.1	6758.3	
675.28	6475	
675.47	7969.3	
675.65	8594	
675.84	6607.4	
676.03	6991.1	
676.21	7779.6	
676.4	7180.9	
676.58	7451.9	
676.77	7307.2	
676.95	9234.3	
677.14	7676.5	
677.32	6348.7	
677.51	6074.3	
677.69	8422.6	
677.88	7346.7	
678.06	6178.7	
678.25	6323.4	
678.44	7965.9	
678.62	7707.2	
678.81	5978	
678.99	6892.1	
679.18	8841.1	
679.36	8301.8	
679.55	6527.6	
679.73	7233.4	
679.92	8351.6	
680.1	7679.2	
680.29	7924.3	
680.47	6604	
680.66	7608.9	
680.84	8510	
681.03	5757.5	
681.21	6838.9	
681.4	7590.5	
681.58	7513.3	
681.77	6316.6	
681.95	6242.2	
682.14	8605.6	
682.32	8949.6	
682.51	7232.1	
682.69	6034	
682.88	7572	
683.06	8267	
683.25	6935.8	
683.43	7393.2	
683.62	7851.2	
683.8	8322.3	
683.99	7514	
684.17	6706.4	
684.36	9105.3	
684.54	7690.1	
684.73	5702.9	
684.91	5958.9	
685.1	7857.4	
685.28	7174	
685.46	6456.6	
685.65	6515.3	
685.83	8122.2	
686.02	7481.9	
686.2	5997.1	
686.39	6137.1	
686.57	7195.9	
686.76	8927.1	
686.94	6053.8	
687.13	6174.6	
687.31	8051.2	
687.5	7550.2	
687.68	5584.1	
687.86	7015	
688.05	9171.5	
688.23	6936.5	
688.42	6993.8	
688.6	6168.5	
688.79	7427.3	
688.97	7526.3	
689.16	6610.8	
689.34	5439.4	
689.52	8350.3	
689.71	8490.9	
689.89	6842.3	
690.08	6126.8	
690.26	7664.2	
690.45	7550.2	
690.63	6991.8	
690.81	6212.2	
691	7348.1	
691.18	7196.6	
691.37	6274.3	
691.55	8616.5	
691.74	7237.5	
691.92	9403.6	
692.1	6292.7	
692.29	5725.4	
692.47	7525.6	
692.66	6773.3	
692.84	5907	
693.02	6554.2	
693.21	6928.3	
693.39	7389.8	
693.58	6621.8	
693.76	6069.5	
693.94	8768	
694.13	8586.5	
694.31	5999.2	
694.5	7297.6	
694.68	7342.7	
694.86	7687.4	
695.05	6530.3	
695.23	6621.8	
695.42	8116.8	
695.6	10565	
695.78	7083.9	
695.97	6187.6	
696.15	8071	
696.34	7444.4	
696.52	5896.1	
696.7	6722.1	
696.89	7845.8	
697.07	7187	
697.25	6686.6	
697.44	8247.9	
697.62	7735.2	
697.81	8131.1	
697.99	6242.9	
698.17	6782.2	
698.36	6967.2	
698.54	7741.3	
698.72	6666.1	
698.91	5564.3	
699.09	7382.9	
699.28	7165.8	
699.46	6272.9	
699.64	6129.6	
699.83	7053.9	
700.01	8476.5	
700.19	6995.9	
700.38	5368.4	
700.56	8506.6	
700.74	7178.8	
700.93	5795.8	
701.11	6706.4	
701.29	7860.8	
701.48	8912.1	
701.66	6083.1	
701.84	6124.8	
702.03	7381.6	
702.21	8036.9	
702.39	5598.5	
702.58	6285.9	
702.76	7791.8	
702.94	7901.1	
703.13	5569.8	
703.31	8134.5	
703.49	7043.6	
703.68	8462.9	
703.86	5786.9	
704.04	6862.7	
704.23	7638.9	
704.41	8015.7	
704.59	5870.8	
704.78	7310.6	
704.96	8779	
705.14	8101.1	
705.33	5730.9	
705.51	6546.7	
705.69	7488.7	
705.87	8276.5	
706.06	6915.3	
706.24	5665.4	
706.42	7763.8	
706.61	8029.4	
706.79	6974	
706.97	5748.6	
707.16	7133.8	
707.34	7877.2	
707.52	6956.9	
707.7	5941.2	
707.89	7381.6	
708.07	7009.5	
708.25	6961.7	
708.44	7015.7	
708.62	7314.7	
708.8	8480	
708.98	7122.8	
709.17	6019	
709.35	7677.2	
709.53	7699.7	
709.72	5735.7	
709.9	5902.2	
710.08	7941.3	
710.26	8032.8	
710.45	7440.3	
710.63	6014.9	
710.81	7603.4	
710.99	7658.7	
711.18	6617.7	
711.36	6213.5	
711.54	7424.6	
711.72	8192.6	
711.91	6199.2	
712.09	5631.2	
712.27	7545.4	
712.45	8187.1	
712.64	6466.1	
712.82	5350.7	
713	6926.2	
713.18	7051.8	
713.37	5500.2	
713.55	6993.8	
713.73	7931.1	
713.91	6393.8	
714.1	5796.4	
714.28	5190.2	
714.46	7432.1	
714.64	6670.9	
714.83	4614.8	
715.01	5520	
715.19	6635.4	
715.37	6107	
715.55	5135.6	
715.74	5433.9	
715.92	7764.5	
716.1	5552.7	
716.28	6749.4	
716.47	5625.8	
716.65	6223.8	
716.83	6378.1	
717.01	5484.5	
717.19	5563	
717.38	8647.9	
717.56	6029.9	
717.74	5877.7	
717.92	4897.4	
718.1	7430.7	
718.29	6608.1	
718.47	4564.9	
718.65	5293.3	
718.83	7460.1	
719.01	7311.9	
719.2	4487.1	
719.38	5658.5	
719.56	7016.3	
719.74	8589.9	
719.92	5089.2	
720.11	6273.6	
720.29	6954.9	
720.47	6061.3	
720.65	4596.3	
720.83	5557.5	
721.02	6352.1	
721.2	6122.7	
721.38	5571.8	
721.56	4845.5	
721.74	5644.2	
721.92	5839.4	
722.11	6174.6	
722.29	5786.2	
722.47	7128.3	
722.65	6376	
722.83	4811.4	
723.01	5831.9	
723.2	6398.5	
723.38	6670.9	
723.56	4197	
723.74	5550	
723.92	5886.5	
724.1	7149.5	
724.29	4807.3	
724.47	5991.7	
724.65	5919.3	
724.83	5816.2	
725.01	4621.6	
725.19	5677	
725.37	5954.8	
725.56	6048.3	
725.74	4571.7	
725.92	4782	
726.1	5848.3	
726.28	6223.8	
726.46	5300.1	
726.64	4939	
726.83	6188.3	
727.01	6483.9	
727.19	4556	
727.37	5355.4	
727.55	6275.7	
727.73	6883.2	
727.91	4449.6	
728.09	4351.9	
728.28	6926.9	
728.46	7573.4	
728.64	5547.9	
728.82	5524.1	
729	8144.8	
729.18	7314.7	
729.36	4736.3	
729.54	7210.2	
729.72	8445.1	
729.91	6581.5	
730.09	6756.2	
730.27	5509.7	
730.45	6503	
730.63	7181.5	
730.81	6120	
730.99	5091.3	
731.17	7802.1	
731.35	6234.7	
731.53	5729.5	
731.71	5262.6	
731.9	7448.5	
732.08	7657.4	
732.26	5491.3	
732.44	5148.6	
732.62	7685.3	
732.8	7157.7	
732.98	5919.3	
733.16	4975.2	
733.34	7053.9	
733.52	5831.9	
733.7	5522	
733.88	5855.1	
734.07	6972.7	
734.25	6685.3	
734.43	4947.2	
734.61	6690.7	
734.79	8321.6	
734.97	6612.9	
735.15	5110.4	
735.33	5502.9	
735.51	6998.6	
735.69	6561.7	
735.87	6684.6	
736.05	5773.9	
736.23	6783.6	
736.41	6563.1	
736.59	5494.7	
736.77	5673.6	
736.95	7361.8	
737.13	6790.4	
737.32	5182	
737.5	5442.1	
737.68	7853.3	
737.86	6598.6	
738.04	4971.1	
738.22	6963.1	
738.4	6328.2	
738.58	6692.8	
738.76	5649	
738.94	4556	
739.12	6575.3	
739.3	6358.9	
739.48	6319.3	
739.66	6054.5	
739.84	6854.6	
740.02	6873	
740.2	4678.2	
740.38	5050.3	
740.56	7254.6	
740.74	6020.3	
740.92	5801.2	
741.1	5611.4	
741.28	6666.1	
741.46	6470.9	
741.64	5238.7	
741.82	5859.2	
742	6615.6	
742.18	6621.1	
742.36	5428.5	
742.54	5170.4	
742.72	7286	
742.9	5862	
743.08	5939.1	
743.26	4711	
743.44	7541.3	
743.62	7330.4	
743.8	6063.4	
743.98	5096	
744.16	6956.9	
744.34	6633.4	
744.52	5961.6	
744.7	5875.6	
744.88	7139.9	
745.06	6606.7	
745.24	6050.4	
745.42	6150.7	
745.6	7210.9	
745.78	6955.6	
745.96	4755.4	
746.14	5115.8	
746.32	8055.3	
746.5	7200.7	
746.68	5707.7	
746.86	5096	
747.03	7682.6	
747.21	5930.9	
747.39	5626.5	
747.57	5139.7	
747.75	6829.3	
747.93	7249.8	
748.11	5113.1	
748.29	5031.2	
748.47	8465.6	
748.65	6494.8	
748.83	5928.9	
749.01	5628.5	
749.19	6990.4	
749.37	6191	
749.55	5429.2	
749.73	5542.5	
749.91	6614.3	
750.09	6337.8	
750.26	5578	
750.44	4920.6	
750.62	6713.9	
750.8	6709.1	
750.98	4747.9	
751.16	5199.1	
751.34	6802	
751.52	5984.8	
751.7	5976	
751.88	4786.1	
752.06	7236.8	
752.24	7063.4	
752.42	4719.2	
752.59	5102.2	
752.77	6594.5	
752.95	7959.8	
753.13	5863.3	
753.31	5223	
753.49	6309.8	
753.67	6825.2	
753.85	5607.3	
754.03	5074.9	
754.21	7114.6	
754.38	7480.5	
754.56	5211.4	
754.74	4166.3	
754.92	6258.6	
755.1	6974	
755.28	4310.3	
755.46	4293.2	
755.64	7750.2	
755.82	7783.6	
755.99	4442.7	
756.17	4574.5	
756.35	5069.4	
756.53	6768.5	
756.71	3385.3	
756.89	4296.6	
757.07	6261.3	
757.25	5296	
757.42	4941.7	
757.6	5898.8	
757.78	6423.1	
757.96	5312.4	
758.14	4659.8	
758.32	4124.6	
758.5	4874.8	
758.67	5795.1	
758.85	4443.4	
759.03	4538.3	
759.21	5972.6	
759.39	5371.8	
759.57	4029	
759.75	5271.5	
759.92	6614.3	
760.1	5811.5	
760.28	5626.5	
760.46	5890.6	
760.64	5580.7	
760.82	5358.9	
760.99	5422.3	
761.17	4642.7	
761.35	6546.7	
761.53	5476.3	
761.71	4806.6	
761.89	5504.9	
762.06	6427.2	
762.24	5892.7	
762.42	4860.5	
762.6	4646.8	
762.78	5902.2	
762.96	6636.8	
763.13	5289.9	
763.31	4966.3	
763.49	6854.6	
763.67	5889.3	
763.85	5864.7	
764.02	6435.4	
764.2	7061.4	
764.38	6256.5	
764.56	4772.4	
764.74	5740.5	
764.91	7218.4	
765.09	6021.7	
765.27	4469.4	
765.45	4246.8	
765.63	7222.5	
765.8	7089.4	
765.98	3963.5	
766.16	4369.7	
766.34	5609.4	
766.52	5386.2	
766.69	5337.7	
766.87	4192.9	
767.05	5956.9	
767.23	6722.8	
767.41	4519.2	
767.58	4748.6	
767.76	6590.4	
767.94	6688.7	
768.12	4530.1	
768.29	5435.3	
768.47	6126.2	
768.65	6769.9	
768.83	4199.7	
769	5451	
769.18	5616.9	
769.36	6365.1	
769.54	5488.6	
769.72	4231.1	
769.89	6622.4	
770.07	6768.5	
770.25	4598.4	
770.43	5907	
770.6	7513.3	
770.78	7981.6	
770.96	4777.2	
771.14	4627	
771.31	6551.5	
771.49	5851.7	
771.67	3909.6	
771.85	4100	
772.02	5072.8	
772.2	5857.9	
772.38	4914.4	
772.55	4372.4	
772.73	6158.9	
772.91	5945.9	
773.09	4810.7	
773.26	4888.5	
773.44	6079.7	
773.62	5810.1	
773.8	4251.6	
773.97	3953.3	
774.15	6150.1	
774.33	5728.9	
774.5	4121.2	
774.68	4543.1	
774.86	6375.3	
775.04	5747.3	
775.21	4246.8	
775.39	4240	
775.57	6034	
775.74	6498.9	
775.92	4067.9	
776.1	3905.5	
776.27	6036.7	
776.45	7287.4	
776.63	4216.8	
776.81	3685	
776.98	5646.9	
777.16	6791.1	
777.34	4352.6	
777.51	4358.8	
777.69	5621	
777.87	5414.8	
778.04	4403.1	
778.22	5109	
778.4	5385.5	
778.57	6132.3	
778.75	3567.6	
778.93	3937.6	
779.1	5193.6	
779.28	5029.1	
779.46	3635.1	
779.64	4158.7	
779.81	6346	
779.99	7199.3	
780.17	5042.8	
780.34	5233.2	
780.52	5742.5	
780.69	5862	
780.87	4533.5	
781.05	4009.2	
781.22	5773.2	
781.4	5789.6	
781.58	4235.2	
781.75	3310.9	
781.93	5852.4	
782.11	5116.5	
782.28	5114.5	
782.46	4183.3	
782.64	4972.5	
782.81	6015.6	
782.99	4251.6	
783.17	4225.6	
783.34	5853.8	
783.52	5037.3	
783.69	4443.4	
783.87	5322	
784.05	5135.6	
784.22	5152.7	
784.4	5311.7	
784.58	4608.6	
784.75	6105.7	
784.93	5204.6	
785.1	4161.5	
785.28	4909.7	
785.46	5861.3	
785.63	5143.1	
785.81	4184.7	
785.99	4023.6	
786.16	5302.2	
786.34	5709.7	
786.51	4042	
786.69	4476.2	
786.87	4861.2	
787.04	5504.9	
787.22	3891.1	
787.39	4838.7	
787.57	5117.9	
787.75	6268.1	
787.92	5121.3	
788.1	5077.6	
788.27	5165.7	
788.45	4980	
788.63	4700.8	
788.8	3349.1	
788.98	5493.3	
789.15	4861.2	
789.33	3429.7	
789.5	4220.2	
789.68	6140.5	
789.86	6256.5	
790.03	4647.5	
790.21	4062.5	
790.38	6090	
790.56	5271.5	
790.73	3893.2	
790.91	3945.1	
791.09	5165.7	
791.26	5944.6	
791.44	4182	
791.61	3554.6	
791.79	5130.8	
791.96	5229.8	
792.14	3678.2	
792.32	3261	
792.49	5167.7	
792.67	5292	
792.84	3805.8	
793.02	3581.2	
793.19	5658.5	
793.37	6410.8	
793.54	3293.1	
793.72	3633.8	
793.89	6597.9	
794.07	5249.6	
794.25	4306.9	
794.42	3305.4	
794.6	6252.4	
794.77	5868.8	
794.95	4548.5	
795.12	4039.3	
795.3	5158.8	
795.47	5842.9	
795.65	4433.9	
795.82	4184	
796	4915.1	
796.17	7063.4	
796.35	4052.9	
796.52	4871.4	
796.7	5739.8	
796.87	5795.1	
797.05	5038.7	
797.22	4947.9	
797.4	5777.3	
797.57	6857.3	
797.75	4271.4	
797.92	3989.4	
798.1	6166.4	
798.27	5124.7	
798.45	3372.3	
798.62	3688.4	
798.8	5479	
798.97	6055.2	
799.15	4487.1	
799.32	4252.3	
799.5	4683.7	
799.67	5597.8	
799.85	4625.7	
800.02	3297.9	
800.2	5083.7	
800.37	5410.7	
800.55	4805.9	
800.72	3965.6	
800.9	5954.8	
801.07	6423.1	
801.25	5401.9	
801.42	4381.3	
801.6	6020.3	
801.77	5724.1	
801.95	4101.4	
802.12	3919.1	
802.29	5591	
802.47	5705.6	
802.64	4387.4	
802.82	3217.4	
802.99	5042.8	
803.17	6159.6	
803.34	4141.7	
803.52	3811.3	
803.69	6845	
803.87	4911	
804.04	4204.5	
804.21	4313	
804.39	6266.8	
804.56	5358.9	
804.74	3523.9	
804.91	4410.6	
805.09	5107.6	
805.26	5244.8	
805.44	3596.2	
805.61	4006.5	
805.78	5839.4	
805.96	5928.9	
806.13	4318.5	
806.31	4672.8	
806.48	4635.2	
806.66	5279.7	
806.83	4283	
807	4297.3	
807.18	5064.6	
807.35	5576.6	
807.53	4187.4	
807.7	3329.3	
807.87	6386.9	
808.05	5186.1	
808.22	4741.7	
808.4	3312.2	
808.57	5248.3	
808.74	4791.6	
808.92	3844.7	
809.09	4992.9	
809.27	5049.6	
809.44	5687.9	
809.61	3421.5	
809.79	3754.6	
809.96	6399.2	
810.14	5984.2	
810.31	3283.6	
810.48	4064.5	
810.66	5260.5	
810.83	6113.9	
811.01	3904.8	
811.18	4351.3	
811.35	5967.8	
811.53	4596.3	
811.7	4783.4	
811.87	4396.3	
812.05	5169.8	
812.22	5085.8	
812.39	3679.5	
812.57	3608.5	
812.74	5192.3	
812.92	6983.6	
813.09	4079.6	
813.26	4521.2	
813.44	6702.3	
813.61	5103.5	
813.78	3345.7	
813.96	4582	
814.13	5180	
814.3	4770.4	
814.48	4953.4	
814.65	4078.2	
814.82	6480.5	
815	4923.3	
815.17	4195.6	
815.34	5201.8	
815.52	5131.5	
815.69	5094	
815.87	4199	
816.04	3619.4	
816.21	5227.1	
816.38	4536.3	
816.56	4047.5	
816.73	3797.6	
816.9	6528.9	
817.08	5952.1	
817.25	3801	
817.42	4804.5	
817.6	4740.4	
817.77	5225.7	
817.94	4339.6	
818.12	3708.2	
818.29	4931.5	
818.46	7817.1	
818.64	3917.1	
818.81	3676.1	
818.98	4812.7	
819.16	7117.4	
819.33	4590.2	
819.5	4137.6	
819.67	5582.8	
819.85	6246.3	
820.02	4143.7	
820.19	4342.4	
820.37	5452.4	
820.54	4977.2	
820.71	4269.3	
820.88	5365	
821.06	5412.1	
821.23	4922	
821.4	4312.3	
821.58	4249.5	
821.75	5933	
821.92	5388.9	
822.09	3417.4	
822.27	3541.6	
822.44	5229.8	
822.61	5044.8	
822.79	3443.3	
822.96	6677.1	
823.13	5707	
823.3	4947.2	
823.48	3981.3	
823.65	3577.8	
823.82	5927.5	
823.99	4696	
824.17	5088.5	
824.34	3690.4	
824.51	6806.1	
824.68	5210.7	
824.86	3814.7	
825.03	4327.4	
825.2	5225.1	
825.37	6365.8	
825.55	3730.7	
825.72	4197.7	
825.89	6944	
826.06	6436.8	
826.24	4086.4	
826.41	4132.1	
826.58	6292.7	
826.75	5461.2	
826.92	3224.9	
827.1	3558	
827.27	8772.8	
827.44	6949.4	
827.61	3934.8	
827.79	4782	
827.96	4903.5	
828.13	5314.5	
828.3	4039.3	
828.47	3494.5	
828.65	5401.2	
828.82	5287.9	
828.99	5331.5	
829.16	4705.5	
829.34	5791	
829.51	5591	
829.68	4275.5	
829.85	4488.5	
830.02	6098.9	
830.2	5827.2	
830.37	3241.3	
830.54	5175.2	
830.71	6680.5	
830.88	5161.6	
831.05	3329.3	
831.23	3859.1	
831.4	6327.5	
831.57	7223.2	
831.74	3904.8	
831.91	3451.5	
832.09	5448.3	
832.26	5819.6	
832.43	4031.1	
832.6	4512.4	
832.77	5420.3	
832.94	6221	
833.12	3267.2	
833.29	3939.6	
833.46	5509	
833.63	7460.1	
833.8	4461.2	
833.97	4074.8	
834.15	5901.6	
834.32	5599.8	
834.49	4246.8	
834.66	4274.8	
834.83	6094.1	
835	4913.1	
835.17	3880.9	
835.35	3903.4	
835.52	5686.5	
835.69	5631.9	
835.86	4074.8	
836.03	3377.8	
836.2	5776.6	
836.37	5360.2	
836.55	4072	
836.72	3807.2	
836.89	5364.3	
837.06	5911.1	
837.23	4187.4	
837.4	4517.8	
837.57	6813.6	
837.75	7428.7	
837.92	3723.9	
838.09	3938.2	
838.26	5380	
838.43	6158.9	
838.6	4259.1	
838.77	3816.7	
838.94	7090.8	
839.11	6741.2	
839.29	4035.2	
839.46	3201	
839.63	5777.3	
839.8	5460.6	
839.97	3928	
840.14	3941.7	
840.31	5550.7	
840.48	5823.1	
840.65	3229.6	
840.82	3818.8	
841	5804.6	
841.17	5776.6	
841.34	3590.8	
841.51	3647.4	
841.68	5724.8	
841.85	5405.3	
842.02	3799	
842.19	3041.9	
842.36	5567.1	
842.53	5498.8	
842.7	3611.9	
842.87	4461.8	
843.05	7439.6	
843.22	5457.8	
843.39	3443.3	
843.56	3695.2	
843.73	5259.9	
843.9	5870.8	
844.07	5999.9	
844.24	4939.7	
844.41	8639.7	
844.58	5027.8	
844.75	3510.2	
844.92	3818.8	
845.09	5810.1	
845.26	5790.3	
845.43	3583.9	
845.6	3831.7	
845.77	5842.2	
845.94	5525.4	
846.12	4068.6	
846.29	4200.4	
846.46	5998.5	
846.63	5849.7	
846.8	3635.8	
846.97	4343.1	
847.14	6346.7	
847.31	5763	
847.48	4102.1	
847.65	4464.6	
847.82	6114.6	
847.99	6049	
848.16	4887.1	
848.33	4498	
848.5	5287.9	
848.67	6312.5	
848.84	3586.7	
849.01	3753.9	
849.18	5186.1	
849.35	4844.8	
849.52	4514.4	
849.69	3530	
849.86	5976	
850.03	6229.2	
850.2	3629	
850.37	4409.3	
850.54	6236.1	
850.71	5439.4	
850.88	4311	
851.05	3525.9	
851.22	5684.5	
851.39	6375.3	
851.56	3389.4	
851.73	4208.6	
851.9	5042.8	
852.07	6027.2	
852.24	3999.7	
852.41	3573.7	
852.58	5659.9	
852.75	5149.3	
852.92	4051.6	
853.09	3545	
853.26	5375.2	
853.43	6337.8	
853.6	3539.6	
853.77	3087.7	
853.94	6379.4	
854.11	5795.1	
854.28	5412.1	
854.44	3955.3	
854.61	6851.1	
854.78	6177.4	
854.95	3588.7	
855.12	4555.4	
855.29	4632.5	
855.46	6636.1	
855.63	3542.3	
855.8	5031.9	
855.97	5328.8	
856.14	6140.5	
856.31	5130.2	
856.48	3869.3	
856.65	5271.5	
856.82	5036	
856.99	3460.4	
857.16	3895.2	
857.33	7010.9	
857.49	5445.5	
857.66	3890.5	
857.83	4229.7	
858	5416.2	
858.17	5610.8	
858.34	3401.7	
858.51	3634.5	
858.68	6517.3	
858.85	6617.7	
859.02	4162.2	
859.19	4442.7	
859.36	5066.7	
859.52	5166.3	
859.69	3646.7	
859.86	4283.7	
860.03	5155.4	
860.2	6402	
860.37	3253.5	
860.54	3644.7	
860.71	5999.2	
860.88	6476.4	
861.05	4087.7	
861.21	4581.3	
861.38	6490.7	
861.55	4916.5	
861.72	3262.4	
861.89	4050.2	
862.06	6107	
862.23	6591.7	
862.4	3465.8	
862.56	3791.5	
862.73	5911.1	
862.9	5563.6	
863.07	4234.5	
863.24	3212.6	
863.41	4949.3	
863.58	5115.1	
863.75	3635.1	
863.91	4143	
864.08	6453.8	
864.25	5938.4	
864.42	4513	
864.59	5059.2	
864.76	6799.9	
864.93	5138.4	
865.09	3549.8	
865.26	3849.5	
865.43	6256.5	
865.6	6763.8	
865.77	3158	
865.94	3605.1	
866.1	6341.9	
866.27	6090.7	
866.44	5482.4	
866.61	3411.2	
866.78	5507.7	
866.95	5906.3	
867.11	3449.5	
867.28	3201	
867.45	6197.2	
867.62	5092.6	
867.79	4164.2	
867.96	3530	
868.12	5069.4	
868.29	6111.8	
868.46	3571	
868.63	4856.4	
868.8	6272.2	
868.97	5999.9	
869.13	3743	
869.3	3764.2	
869.47	5944.6	
869.64	6204.7	
869.81	3622.9	
869.97	3633.1	
870.14	5806	
870.31	6554.2	
870.48	3535.5	
870.65	4594.3	
870.81	5390.3	
870.98	5377.3	
871.15	4100.7	
871.32	3754.6	
871.48	5866.1	
871.65	6555.5	
871.82	3542.3	
871.99	3960.8	
872.16	7055.9	
872.32	6441.5	
872.49	3635.1	
872.66	3665.2	
872.83	6043.6	
872.99	5337.7	
873.16	4092.5	
873.33	3562.1	
873.5	5646.9	
873.67	5675.6	
873.83	3768.3	
874	4810.7	
874.17	5743.9	
874.34	6937.8	
874.5	4697.4	
874.67	4487.8	
874.84	6469.5	
875.01	5069.4	
875.17	5055.1	
875.34	3576.4	
875.51	5754.1	
875.68	6898.2	
875.84	4312.3	
876.01	5333.6	
876.18	6027.9	
876.34	5962.3	
876.51	3596.9	
876.68	3512.9	
876.85	5438	
877.01	6375.3	
877.18	5268.7	
877.35	3610.6	
877.52	5558.2	
877.68	4983.4	
877.85	3459	
878.02	3575.8	
878.18	5595.1	
878.35	5285.1	
878.52	2869.2	
878.69	3999	
878.85	6028.5	
879.02	6007.4	
879.19	5119.9	
879.35	3865.2	
879.52	5973.2	
879.69	6198.5	
879.86	3116.3	
880.02	4005.8	
880.19	5533.6	
880.36	6910.5	
880.52	4154.6	
880.69	4288.4	
880.86	6137.8	
881.02	6167.8	
881.19	3935.5	
881.36	3962.8	
881.52	5929.6	
881.69	5304.9	
881.86	3865.9	
882.02	3773.7	
882.19	6303.6	
882.36	7387	
882.52	3657	
882.69	5084.4	
882.86	5757.5	
883.02	5646.2	
883.19	4383.3	
883.36	4177.2	
883.52	6102.3	
883.69	6976.1	
883.86	3630.4	
884.02	3257	
884.19	6061.3	
884.36	5621.7	
884.52	4110.3	
884.69	3862.5	
884.86	5337.7	
885.02	6732.4	
885.19	4046.8	
885.36	4173.1	
885.52	5582.1	
885.69	5720	
885.86	5223.7	
886.02	4603.8	
886.19	6020.3	
886.35	5543.2	
886.52	3966.9	
886.69	5077.6	
886.85	5151.3	
887.02	6425.8	
887.19	6425.8	
887.35	6425.8	
887.52	6425.8	
887.68	6425.8	
887.85	6425.8	
888.02	6425.8	
888.18	6425.8	
888.35	6425.8	
888.51	6425.8	
888.68	6425.8	
888.85	6425.8	
889.01	6425.8	
889.18	6425.8	
889.35	6425.8	
889.51	6425.8	
889.68	6425.8	
889.84	6425.8	
890.01	6425.8	
890.17	6425.8	
890.34	6425.8	
890.51	6425.8	
890.67	6425.8	
890.84	6425.8	
891	6425.8	
891.17	6425.8	
891.34	6425.8	
891.5	6425.8	
891.67	6425.8	
891.83	6425.8	
892	6425.8	
892.16	6425.8	
892.33	6425.8	
892.5	6425.8	
892.66	6425.8	
892.83	6425.8	
892.99	6425.8	
893.16	6425.8	
893.32	6425.8	
893.49	6425.8	
893.65	6425.8	
893.82	6425.8	
893.99	6425.8	
894.15	6425.8	
894.32	6425.8	
894.48	6425.8	
894.65	6425.8	
894.81	6425.8	
894.98	6425.8	
895.14	6425.8	
895.31	6425.8	
895.47	6425.8	
895.64	6425.8	
895.81	6425.8	
895.97	6425.8	
896.14	6425.8	
896.3	6425.8	
896.47	6425.8	
896.63	6425.8	
896.8	6425.8	
896.96	6425.8	
897.13	6425.8	
897.29	6425.8	
897.46	6425.8	
897.62	6425.8	
897.79	6425.8	
897.95	6425.8	
898.12	6425.8	
898.28	6425.8	
898.45	6425.8	
898.61	6425.8	
898.78	6425.8	
898.94	6425.8	
899.11	6425.8	
899.27	6425.8	
899.44	6425.8	
899.6	6425.8	
899.77	6425.8	
899.93	6425.8	
900.1	6425.8	
900.26	6425.8	
900.43	6425.8	
900.59	6425.8	
900.76	6425.8	
900.92	6425.8	
901.09	6425.8	
901.25	6425.8	
901.42	6425.8	
901.58	6425.8	
901.75	6425.8	
901.91	6425.8	
902.07	6425.8	
902.24	6425.8	
902.4	6425.8	
902.57	6425.8	
902.73	6425.8	
902.9	6425.8	
903.06	6425.8	
903.23	6425.8	
903.39	6425.8	
903.56	6425.8	
903.72	6425.8	
903.88	6425.8	
904.05	6425.8	
904.21	6425.8	
904.38	6425.8	
904.54	6425.8	
904.71	6425.8	
904.87	6425.8	
905.03	6425.8	
905.2	6425.8	
905.36	6425.8	
905.53	6425.8	
905.69	6425.8	
905.86	6425.8	
906.02	6425.8	
906.18	6425.8	
906.35	6425.8	
906.51	6425.8	
906.68	6425.8	
906.84	6425.8	
907.01	6425.8	
907.17	6425.8	
907.33	6425.8	
907.5	6425.8	
907.66	6425.8	
907.83	6425.8	
907.99	6425.8	
908.15	6425.8	
908.32	6425.8	
908.48	6425.8	
908.65	6425.8	
908.81	6425.8	
908.97	6425.8	
909.14	6425.8	
909.3	6425.8	
909.47	6425.8	
909.63	6425.8	
909.79	6425.8	
909.96	6425.8	
910.12	6425.8	
910.28	6425.8	
910.45	6425.8	
910.61	6425.8	
910.78	6425.8	
910.94	6425.8	
911.1	6425.8	
911.27	6425.8	
911.43	6425.8	
911.59	6425.8	
911.76	6425.8	
911.92	6425.8	
912.08	6425.8	
912.25	6425.8	
912.41	6425.8	
912.57	6425.8	
912.74	6425.8	
912.9	6425.8	
913.07	6425.8	
913.23	6425.8	
913.39	6425.8	
913.56	6425.8	
913.72	6425.8	
913.88	6425.8	
914.05	6425.8	
914.21	6425.8	
914.37	6425.8	
914.54	6425.8	
914.7	6425.8	
914.86	6425.8	
915.03	6425.8	
915.19	6425.8	
