Wavelength	Intensities	
nm	a.u.	
179.22	1625.7	
179.44	1635.6	
179.65	1615.8	
179.86	1655.4	
180.08	1660.2	
180.29	3657.7	
180.51	2914.3	
180.72	4826.4	
180.94	5425.1	
181.15	2672.6	
181.37	2652.8	
181.58	4700.1	
181.79	4862.6	
182.01	2755.2	
182.22	2859	
182.44	4939	
182.65	4202.4	
182.87	3507.5	
183.08	3159.3	
183.29	5103.5	
183.51	4292.5	
183.72	2828.2	
183.94	3909.6	
184.15	4594.3	
184.37	4556	
184.58	2614.6	
184.79	3349.1	
185.01	4385.4	
185.22	4881.7	
185.44	3516.4	
185.65	3054.2	
185.86	4616.1	
186.08	4265.9	
186.29	2538.8	
186.51	2734.7	
186.72	4403.1	
186.94	4997.7	
187.15	3104.7	
187.36	3145.7	
187.58	6147.3	
187.79	4676.9	
188.01	3205.1	
188.22	4815.5	
188.43	5418.2	
188.65	4846.2	
188.86	2718.3	
189.08	3133.4	
189.29	4489.8	
189.5	4466.6	
189.72	2947.7	
189.93	2952.5	
190.15	5017.5	
190.36	5712.5	
190.57	3214.6	
190.79	3048.7	
191	5004.6	
191.22	5014.8	
191.43	3263.8	
191.64	2730.6	
191.86	5174.5	
192.07	5031.2	
192.29	2808.4	
192.5	2895.8	
192.71	5031.9	
192.93	4493.9	
193.14	2879.4	
193.35	2936.8	
193.57	4412	
193.78	4969.1	
194	2491.7	
194.21	2852.8	
194.42	4360.1	
194.64	4610.7	
194.85	3130	
195.07	3517	
195.28	4566.3	
195.49	4120.5	
195.71	3756	
195.92	2735.4	
196.13	4831.8	
196.35	4788.8	
196.56	3956	
196.78	3090.4	
196.99	5684.5	
197.2	5403.2	
197.42	3463.1	
197.63	3151.8	
197.84	4268	
198.06	4739.7	
198.27	2889.7	
198.48	3695.9	
198.7	4459.1	
198.91	4633.2	
199.13	3174.4	
199.34	3175.7	
199.55	5005.2	
199.77	4053.6	
199.98	2822.8	
200.19	3196.9	
200.41	4612.7	
200.62	4349.9	
200.83	3237.2	
201.05	3482.9	
201.26	4585.4	
201.47	4379.9	
201.69	2861	
201.9	2780.5	
202.11	4614.8	
202.33	5309.7	
202.54	2944.3	
202.76	3305.4	
202.97	4656.4	
203.18	4773.8	
203.4	3231.7	
203.61	3328.6	
203.82	4691.2	
204.04	4376.5	
204.25	3162.1	
204.46	3121.8	
204.68	4631.8	
204.89	4767	
205.1	3086.3	
205.32	2705.4	
205.53	4919.2	
205.74	4988.2	
205.96	2484.9	
206.17	3202.3	
206.38	4861.2	
206.6	4947.9	
206.81	3581.9	
207.02	2930.6	
207.24	4842.1	
207.45	5070.8	
207.66	3050.1	
207.88	2656.9	
208.09	4738.3	
208.3	4614.1	
208.52	2832.3	
208.73	3069.9	
208.94	4601.1	
209.15	5097.4	
209.37	2995.5	
209.58	3125.2	
209.79	4981.3	
210.01	4513.7	
210.22	2541.5	
210.43	2642.6	
210.65	4573.1	
210.86	4868.7	
211.07	3069.2	
211.29	2794.8	
211.5	4756.7	
211.71	4590.9	
211.93	2797.5	
212.14	2865.8	
212.35	4599.7	
212.56	4647.5	
212.78	3162.1	
212.99	2681.5	
213.2	5246.2	
213.42	4474.8	
213.63	2914.9	
213.84	2984.6	
214.06	4274.8	
214.27	4311.7	
214.48	3040.6	
214.69	3179.8	
214.91	5097.4	
215.12	5132.9	
215.33	3172.3	
215.55	3404.4	
215.76	5412.1	
215.97	4863.2	
216.18	3016	
216.4	3061.7	
216.61	4383.3	
216.82	4955.4	
217.04	2832.3	
217.25	2908.1	
217.46	5020.3	
217.67	4873.5	
217.89	2610.5	
218.1	2648.7	
218.31	4714.4	
218.53	4740.4	
218.74	3016.7	
218.95	2832.3	
219.16	4632.5	
219.38	5234.6	
219.59	2867.2	
219.8	3347.1	
220.01	5644.9	
220.23	4657.1	
220.44	3558	
220.65	2822.1	
220.87	4691.9	
221.08	5080.3	
221.29	2680.8	
221.5	3457	
221.72	5929.6	
221.93	4405.9	
222.14	3173	
222.35	3641.3	
222.57	4606.6	
222.78	4906.3	
222.99	3052.8	
223.2	3189.4	
223.42	4829.8	
223.63	4895.3	
223.84	2391.3	
224.05	2461.7	
224.27	5595.1	
224.48	5187.5	
224.69	3846.8	
224.9	3117	
225.12	4743.8	
225.33	4559.5	
225.54	2618	
225.75	2870.6	
225.97	4326.7	
226.18	4551.3	
226.39	2979.8	
226.6	2872.6	
226.82	4440.7	
227.03	4347.8	
227.24	3160.7	
227.45	2720.4	
227.67	4947.2	
227.88	5184.8	
228.09	3484.3	
228.3	3446.7	
228.52	4878.9	
228.73	4558.8	
228.94	2963.4	
229.15	2721.1	
229.36	4607.9	
229.58	4558.1	
229.79	3040.6	
230	3450.8	
230.21	5405.3	
230.43	4644.1	
230.64	3130.7	
230.85	3203.7	
231.06	4941.1	
231.28	4930.1	
231.49	2678.1	
231.7	3088.3	
231.91	4874.8	
232.12	4685.8	
232.34	2801.6	
232.55	3058.3	
232.76	5040.7	
232.97	4675.5	
233.18	2852.8	
233.4	3145	
233.61	4718.5	
233.82	4433.2	
234.03	2971.6	
234.25	2911.5	
234.46	6027.2	
234.67	4641.4	
234.88	3207.8	
235.09	2882.9	
235.31	4758.1	
235.52	4511.7	
235.73	3094.5	
235.94	2709.5	
236.15	4450.2	
236.37	5410.7	
236.58	2835.1	
236.79	3019.4	
237	4857.8	
237.21	4245.4	
237.43	3258.3	
237.64	2636.4	
237.85	7422.5	
238.06	4301.4	
238.27	3228.3	
238.48	2725.2	
238.7	4830.5	
238.91	4561.5	
239.12	2984.6	
239.33	3091.1	
239.54	4488.5	
239.76	4560.1	
239.97	3065.1	
240.18	2971.6	
240.39	5425.8	
240.6	4726	
240.82	3199.6	
241.03	2656.9	
241.24	4590.2	
241.45	5142.4	
241.66	2817.3	
241.87	3257.6	
242.09	5184.1	
242.3	5311.1	
242.51	3257	
242.72	3025.5	
242.93	4893.3	
243.14	4596.3	
243.36	3412.6	
243.57	3661.1	
243.78	5188.2	
243.99	4859.1	
244.2	3037.1	
244.41	2779.8	
244.63	4291.9	
244.84	4788.8	
245.05	3201.7	
245.26	3037.8	
245.47	4883.7	
245.68	4899.4	
245.9	3829	
246.11	3165.5	
246.32	4475.5	
246.53	4802.5	
246.74	4702.1	
246.95	2593.4	
247.16	4369	
247.38	4609.3	
247.59	2647.3	
247.8	3107.5	
248.01	4351.9	
248.22	4603.2	
248.43	2841.9	
248.64	2980.5	
248.86	4255.7	
249.07	4467.3	
249.28	2822.8	
249.49	3135.4	
249.7	4976.6	
249.91	5043.5	
250.12	2649.4	
250.34	2663	
250.55	4708.3	
250.76	4614.8	
250.97	3138.2	
251.18	3184.6	
251.39	5022.3	
251.6	4695.3	
251.81	3141.6	
252.03	3182.5	
252.24	4457.7	
252.45	4896	
252.66	2730.6	
252.87	3345.7	
253.08	4653.7	
253.29	5690.6	
253.5	2751.8	
253.72	3607.2	
253.93	4572.4	
254.14	5337.7	
254.35	2917.7	
254.56	3007.1	
254.77	4737	
254.98	4397.7	
255.19	2948.4	
255.41	3596.2	
255.62	4731.5	
255.83	5070.1	
256.04	3220.8	
256.25	3142.3	
256.46	5466	
256.67	4363.5	
256.88	3169.6	
257.09	3403	
257.31	4287.8	
257.52	4424.3	
257.73	3870.7	
257.94	2921.1	
258.15	4531.5	
258.36	4681	
258.57	3586.7	
258.78	2404.3	
258.99	4945.8	
259.2	4459.8	
259.41	2910.2	
259.63	2985.3	
259.84	5167.7	
260.05	5435.3	
260.26	3689.1	
260.47	2838.5	
260.68	5005.2	
260.89	4521.2	
261.1	3457.7	
261.31	2845.3	
261.52	5110.4	
261.73	5275.6	
261.95	3642	
262.16	3249.4	
262.37	5124	
262.58	5203.9	
262.79	3649.5	
263	2942.9	
263.21	4732.2	
263.42	4221.5	
263.63	3190.7	
263.84	2955.9	
264.05	4943.8	
264.26	5210.7	
264.47	3506.8	
264.69	3134.8	
264.9	5124.7	
265.11	4705.5	
265.32	2861.7	
265.53	2884.2	
265.74	4769	
265.95	4172.4	
266.16	3113.6	
266.37	3347.7	
266.58	4740.4	
266.79	4462.5	
267	2932.7	
267.21	2779.1	
267.42	4316.4	
267.63	4597	
267.84	2989.4	
268.06	2710.1	
268.27	4943.8	
268.48	5055.1	
268.69	2977.7	
268.9	3405.1	
269.11	5129.5	
269.32	4190.8	
269.53	3050.8	
269.74	2859.6	
269.95	4731.5	
270.16	4176.5	
270.37	3084.2	
270.58	3446.7	
270.79	4540.3	
271	4943.1	
271.21	3206.4	
271.42	3071.3	
271.63	4790.9	
271.84	4306.2	
272.05	2554.5	
272.26	2776.4	
272.47	4615.4	
272.68	4761.5	
272.89	2981.2	
273.11	3285.6	
273.32	4465.9	
273.53	5214.1	
273.74	3226.9	
273.95	3177.1	
274.16	4918.5	
274.37	4592.2	
274.58	3366.2	
274.79	2684.9	
275	4778.6	
275.21	5010	
275.42	3880.2	
275.63	3325.9	
275.84	4822.3	
276.05	5820.3	
276.26	3159.3	
276.47	3022.8	
276.68	4540.3	
276.89	5340.4	
277.1	3390.1	
277.31	2724.5	
277.52	4773.1	
277.73	5035.3	
277.94	2700.6	
278.15	2947	
278.36	4805.9	
278.57	4403.8	
278.78	3008.5	
278.99	3237.2	
279.2	4487.1	
279.41	4365.6	
279.62	3738.2	
279.83	2740.9	
280.04	5429.8	
280.25	4348.5	
280.46	3737.5	
280.67	3040.6	
280.88	4433.9	
281.09	5096.7	
281.3	3176.4	
281.51	3855	
281.72	4436.6	
281.93	4907.6	
282.14	2903.3	
282.35	3092.4	
282.56	4953.4	
282.77	4977.2	
282.98	2998.9	
283.19	3493.2	
283.4	5871.5	
283.61	4571.7	
283.82	2779.8	
284.03	3622.2	
284.24	4767.7	
284.45	5054.4	
284.66	3684.3	
284.87	3464.5	
285.08	5070.8	
285.29	5111	
285.5	2706.7	
285.71	2973.7	
285.92	5018.9	
286.12	5474.9	
286.33	3652.2	
286.54	3040.6	
286.75	4899.4	
286.96	4481.6	
287.17	2766.1	
287.38	3553.9	
287.59	4431.1	
287.8	4427	
288.01	2974.3	
288.22	3339.6	
288.43	4913.8	
288.64	4174.4	
288.85	3523.9	
289.06	3320.4	
289.27	4966.3	
289.48	5172.5	
289.69	3767.6	
289.9	3405.8	
290.11	5072.8	
290.32	4388.1	
290.53	3523.9	
290.74	3257.6	
290.94	4915.1	
291.15	4920.6	
291.36	2925.2	
291.57	3308.2	
291.78	4496.7	
291.99	4193.6	
292.2	2800.9	
292.41	3226.2	
292.62	5004.6	
292.83	4883	
293.04	3943.7	
293.25	2854.2	
293.46	4498	
293.67	4971.1	
293.88	2854.9	
294.09	2841.9	
294.29	4367	
294.5	4707.6	
294.71	3030.3	
294.92	2891.7	
295.13	4539.7	
295.34	5421.7	
295.55	2613.9	
295.76	2699.2	
295.97	4911	
296.18	5327.4	
296.39	2724.5	
296.6	2917.7	
296.81	4644.1	
297.01	4943.8	
297.22	3018.7	
297.43	2940.2	
297.64	4484.4	
297.85	4334.9	
298.06	2509.4	
298.27	2650.8	
298.48	4632.5	
298.69	4429.8	
298.9	3142.9	
299.11	2817.3	
299.31	4315.1	
299.52	4368.3	
299.73	3290.4	
299.94	3252.2	
300.15	4657.1	
300.36	4401.1	
300.57	3223.5	
300.78	3210.5	
300.99	4514.4	
301.2	4728.1	
301.4	2947.7	
301.61	3090.4	
301.82	4858.5	
302.03	4883	
302.24	3454.9	
302.45	2810.5	
302.66	4815.5	
302.87	5056.4	
303.08	2916.3	
303.29	3780.6	
303.49	4507.6	
303.7	4556.7	
303.91	2654.2	
304.12	3577.8	
304.33	4254.3	
304.54	4757.4	
304.75	2912.2	
304.96	2803.7	
305.16	4837.3	
305.37	5302.2	
305.58	2583.2	
305.79	2681.5	
306	4848.2	
306.21	4171	
306.42	2854.9	
306.63	4183.3	
306.83	4493.2	
307.04	4923.3	
307.25	3140.2	
307.46	3110.2	
307.67	4135.5	
307.88	4880.3	
308.09	2900.6	
308.29	2895.1	
308.5	4682.3	
308.71	4957.4	
308.92	3065.8	
309.13	2800.3	
309.34	4601.8	
309.55	4566.3	
309.75	3497.9	
309.96	3245.3	
310.17	4912.4	
310.38	4427.7	
310.59	3361.4	
310.8	2779.8	
311.01	4506.2	
311.21	4554.7	
311.42	2851.5	
311.63	2846.7	
311.84	4458.4	
312.05	4667.3	
312.26	3216.7	
312.46	3435.8	
312.67	4521.9	
312.88	4291.2	
313.09	2840.5	
313.3	2760.7	
313.51	5177.3	
313.71	5449.6	
313.92	2796.8	
314.13	2966.1	
314.34	4761.5	
314.55	4606.6	
314.76	3452.2	
314.96	3099.3	
315.17	4791.6	
315.38	4782	
315.59	2824.8	
315.8	2701.3	
316.01	5087.2	
316.21	5262.6	
316.42	2764.1	
316.63	3082.2	
316.84	4480.3	
317.05	5014.8	
317.26	3300.6	
317.46	2919.7	
317.67	4607.2	
317.88	4905.6	
318.09	3442.6	
318.3	2654.9	
318.5	4526	
318.71	4802.5	
318.92	4281.6	
319.13	3265.8	
319.34	4949.9	
319.54	5074.2	
319.75	2661.7	
319.96	2539.5	
320.17	4868	
320.38	4978.6	
320.58	2614.6	
320.79	3002.3	
321	5044.8	
321.21	5117.2	
321.42	3072	
321.62	2636.4	
321.83	4411.3	
322.04	4688.5	
322.25	3005.7	
322.46	2852.1	
322.66	4730.8	
322.87	4829.8	
323.08	3338.9	
323.29	2704	
323.5	5380	
323.7	4310.3	
323.91	3637.2	
324.12	3337.5	
324.33	4702.8	
324.53	4859.1	
324.74	3209.8	
324.95	3327.3	
325.16	4319.8	
325.37	4502.8	
325.57	2799.6	
325.78	2882.2	
325.99	4754.7	
326.2	4248.9	
326.4	3850.9	
326.61	2658.3	
326.82	4575.8	
327.03	4713.1	
327.24	3838.6	
327.44	3575.1	
327.65	4861.2	
327.86	4046.8	
328.07	3190.1	
328.27	2751.8	
328.48	5110.4	
328.69	4316.4	
328.9	3781.9	
329.1	2993.4	
329.31	4544.4	
329.52	5166.3	
329.73	2856.9	
329.93	3106.8	
330.14	4674.1	
330.35	4754	
330.56	4289.8	
330.76	3411.9	
330.97	4521.2	
331.18	4713.7	
331.39	3078.1	
331.59	2592.7	
331.8	5036	
332.01	5109	
332.22	2942.2	
332.42	3210.5	
332.63	4733.5	
332.84	4376.5	
333.05	3136.8	
333.25	2831.7	
333.46	4430.4	
333.67	4602.5	
333.88	3003	
334.08	3130	
334.29	5893.4	
334.5	4986.1	
334.7	2779.1	
334.91	3833.1	
335.12	4306.2	
335.33	4892.6	
335.53	3066.5	
335.74	4286.4	
335.95	4584.7	
336.16	4289.8	
336.36	3051.5	
336.57	3482.2	
336.78	4282.3	
336.98	4965.6	
337.19	3640.6	
337.4	2983.2	
337.61	5457.2	
337.81	4310.3	
338.02	2869.9	
338.23	3624.9	
338.43	5157.5	
338.64	4480.3	
338.85	2818.7	
339.05	3586.7	
339.26	5230.5	
339.47	4224.3	
339.68	2869.9	
339.88	3957.4	
340.09	4883.7	
340.3	4967.7	
340.5	3209.8	
340.71	2601.6	
340.92	4321.2	
341.13	5075.5	
341.33	2716.3	
341.54	3289	
341.75	4799.1	
341.95	4561.5	
342.16	3134.1	
342.37	3319.8	
342.57	4306.9	
342.78	4564.2	
342.99	3373	
343.19	2652.1	
343.4	4917.9	
343.61	4807.9	
343.81	3006.4	
344.02	2730.6	
344.23	4927.4	
344.43	5158.8	
344.64	3416	
344.85	3306.1	
345.06	4841.4	
345.26	4999.1	
345.47	3254.9	
345.68	3655.6	
345.88	4243.4	
346.09	4967.7	
346.3	3237.2	
346.5	2556.5	
346.71	4576.5	
346.92	4442.7	
347.12	2727.9	
347.33	3266.5	
347.54	5010.7	
347.74	5213.4	
347.95	3170.3	
348.16	2532	
348.36	4508.9	
348.57	4349.2	
348.78	3244.7	
348.98	3376.4	
349.19	4577.9	
349.39	4200.4	
349.6	2727.9	
349.81	2915.6	
350.01	4855.7	
350.22	4375.8	
350.43	3140.9	
350.63	3669.3	
350.84	4644.8	
351.05	4392.2	
351.25	2822.8	
351.46	2633.7	
351.67	5040.1	
351.87	4377.2	
352.08	3063.1	
352.29	3383.2	
352.49	4909	
352.7	4642.7	
352.9	2802.3	
353.11	3382.6	
353.32	5348.6	
353.52	4470.7	
353.73	2781.1	
353.94	3442.6	
354.14	4784.1	
354.35	4623.6	
354.55	2867.2	
354.76	3100.6	
354.97	4855.7	
355.17	4530.1	
355.38	2751.8	
355.59	3549.1	
355.79	4377.9	
356	4578.6	
356.2	3131.3	
356.41	2795.5	
356.62	4275.5	
356.82	4533.5	
357.03	3340.9	
357.24	2975.7	
357.44	4423.6	
357.65	4458.4	
357.85	3788.1	
358.06	3147	
358.27	4186.7	
358.47	4354	
358.68	2718.3	
358.88	3229.6	
359.09	4733.5	
359.3	4992.3	
359.5	3728	
359.71	3364.1	
359.91	5312.4	
360.12	4869.4	
360.33	3351.2	
360.53	3594.9	
360.74	4486.4	
360.94	4498.7	
361.15	3376.4	
361.36	2919.7	
361.56	4985.4	
361.77	4601.1	
361.97	3791.5	
362.18	3027.6	
362.38	5010.7	
362.59	4347.8	
362.8	2863.7	
363	2789.3	
363.21	4167.6	
363.41	4643.4	
363.62	3242.6	
363.83	3847.5	
364.03	4814.1	
364.24	5264	
364.44	4022.9	
364.65	3955.3	
364.85	4575.2	
365.06	4372.4	
365.27	2972.3	
365.47	3030.3	
365.68	5221.6	
365.88	4581.3	
366.09	3305.4	
366.29	3075.4	
366.5	4705.5	
366.71	5017.5	
366.91	3949.8	
367.12	3444	
367.32	5477.6	
367.53	4947.9	
367.73	3423.5	
367.94	3999.7	
368.14	4926	
368.35	5421.7	
368.56	3345	
368.76	2945.7	
368.97	5043.5	
369.17	6042.2	
369.38	3069.2	
369.58	3241.3	
369.79	4291.9	
369.99	5240.1	
370.2	3877.5	
370.4	3289	
370.61	4773.8	
370.82	5700.9	
371.02	3190.1	
371.23	2829.6	
371.43	4312.3	
371.64	5214.1	
371.84	3292.5	
372.05	4016.1	
372.25	5978.7	
372.46	4903.5	
372.66	3233.1	
372.87	3280.8	
373.07	5018.9	
373.28	6158.9	
373.48	3921.9	
373.69	3691.8	
373.9	4712.4	
374.1	4772.4	
374.31	3881.6	
374.51	3572.3	
374.72	5278.3	
374.92	4546.5	
375.13	4035.9	
375.33	3547.8	
375.54	4924.7	
375.74	4685.8	
375.95	3564.8	
376.15	4353.3	
376.36	5068	
376.56	4885.1	
376.77	3613.3	
376.97	3846.8	
377.18	5776	
377.38	5119.2	
377.59	4055.7	
377.79	3284.3	
378	4930.8	
378.2	5212.8	
378.41	3317	
378.61	3280.2	
378.82	5322	
379.02	4724.7	
379.23	3452.2	
379.43	4179.2	
379.64	5468.8	
379.84	5109	
380.05	3343	
380.25	3255.6	
380.46	5171.1	
380.66	4817.5	
380.87	4219.5	
381.07	4475.5	
381.28	5571.2	
381.48	5130.2	
381.69	3330.7	
381.89	3378.5	
382.1	4433.2	
382.3	5195	
382.51	4086.4	
382.71	4672.1	
382.91	5115.8	
383.12	5457.2	
383.32	3584.6	
383.53	3762.8	
383.73	5068.7	
383.94	4956.8	
384.14	3709.6	
384.35	3110.2	
384.55	4855.7	
384.76	5108.3	
384.96	3675.4	
385.17	3801.7	
385.37	5145.9	
385.58	4575.2	
385.78	3768.3	
385.98	3074	
386.19	4801.8	
386.39	5065.3	
386.6	3420.8	
386.8	3591.5	
387.01	5138.4	
387.21	5225.7	
387.42	3891.1	
387.62	4211.3	
387.83	4746.5	
388.03	4966.3	
388.23	3702	
388.44	4108.9	
388.64	4513	
388.85	4600.4	
389.05	3921.2	
389.26	4238.6	
389.46	5882.4	
389.67	5495.4	
389.87	3866.6	
390.07	3973.1	
390.28	4963.6	
390.48	4697.4	
390.69	3364.8	
390.89	3594.2	
391.1	4872.8	
391.3	5483.1	
391.5	4437.3	
391.71	4760.8	
391.91	5297.4	
392.12	5870.8	
392.32	4465.9	
392.53	3889.1	
392.73	4997	
392.93	5008	
393.14	3781.2	
393.34	4232.5	
393.55	5368.4	
393.75	5003.2	
393.95	3774.4	
394.16	3688.4	
394.36	4926	
394.57	5361.6	
394.77	3409.9	
394.98	3617.4	
395.18	4950.6	
395.38	4858.5	
395.59	4275.5	
395.79	3603.1	
396	5018.2	
396.2	5282.4	
396.4	4255.7	
396.61	4091.2	
396.81	5405.3	
397.02	4934.9	
397.22	4342.4	
397.42	4390.8	
397.63	5503.6	
397.83	4938.3	
398.04	3589.4	
398.24	3972.4	
398.44	5249.6	
398.65	4637.3	
398.85	3580.5	
399.05	3566.9	
399.26	5025	
399.46	6096.8	
399.67	3872	
399.87	3638.6	
400.07	5212.1	
400.28	5456.5	
400.48	3716.4	
400.69	4469.4	
400.89	5513.1	
401.09	5987.6	
401.3	3749.8	
401.5	4470	
401.7	6087.9	
401.91	6232.7	
402.11	4061.1	
402.32	4094.6	
402.52	5741.8	
402.72	5627.1	
402.93	4334.9	
403.13	3562.1	
403.33	6120	
403.54	5259.9	
403.74	4046.8	
403.94	4601.8	
404.15	5339.7	
404.35	6196.5	
404.56	3917.8	
404.76	5145.2	
404.96	5642.8	
405.17	5430.5	
405.37	4711	
405.57	4280.9	
405.78	5697.4	
405.98	5342.5	
406.18	4021.5	
406.39	4548.5	
406.59	5698.8	
406.79	5292.6	
407	3756.7	
407.2	3891.8	
407.4	6013.5	
407.61	5868.8	
407.81	3956	
408.01	5057.1	
408.22	5030.5	
408.42	6440.9	
408.62	4761.5	
408.83	4419.5	
409.03	5653.1	
409.23	5592.3	
409.44	4543.8	
409.64	4690.5	
409.84	6313.9	
410.05	6232	
410.25	4715.1	
410.45	4579.3	
410.66	6052.4	
410.86	7617.1	
411.06	4997	
411.27	4780.6	
411.47	7564.5	
411.67	6204.7	
411.88	4963.6	
412.08	5111.7	
412.28	6635.4	
412.49	6974	
412.69	4975.2	
412.89	5025	
413.09	6846.4	
413.3	6819.1	
413.5	5046.9	
413.7	4868.7	
413.91	6350.1	
414.11	6883.2	
414.31	5004.6	
414.52	5313.1	
414.72	6736.5	
414.92	6631.3	
415.12	4947.9	
415.33	5420.3	
415.53	6956.3	
415.73	7057.3	
415.94	5601.2	
416.14	5227.1	
416.34	6387.6	
416.55	6082.5	
416.75	6025.1	
416.95	5689.9	
417.15	7120.8	
417.36	7406.8	
417.56	6353.5	
417.76	5640.8	
417.97	7269.6	
418.17	7137.9	
418.37	5382.7	
418.57	5403.2	
418.78	7067.5	
418.98	6703	
419.18	5999.2	
419.38	5865.4	
419.59	6700.3	
419.79	6470.2	
419.99	5297.4	
420.2	5533.6	
420.4	7165.2	
420.6	7120.8	
420.8	5245.5	
421.01	5184.1	
421.21	7122.8	
421.41	7049.8	
421.61	5466	
421.82	5301.5	
422.02	6754.2	
422.22	7433.4	
422.42	5893.4	
422.63	5530.9	
422.83	6761.7	
423.03	7640.3	
423.23	5711.8	
423.44	4975.2	
423.64	6806.8	
423.84	6516	
424.04	5292.6	
424.25	5039.4	
424.45	7403.4	
424.65	7280.5	
424.85	4893.3	
425.06	5278.3	
425.26	7559.1	
425.46	6713.2	
425.66	5638.7	
425.87	5420.3	
426.07	7202	
426.27	7086	
426.47	5513.1	
426.67	5055.8	
426.88	7445	
427.08	7055.9	
427.28	5759.6	
427.48	5029.8	
427.69	6423.8	
427.89	6787	
428.09	5665.4	
428.29	5046.9	
428.5	7258.7	
428.7	6907.1	
428.9	5049.6	
429.1	5369.1	
429.3	6969.9	
429.51	7133.1	
429.71	5251	
429.91	5886.5	
430.11	7240.3	
430.31	7496.2	
430.52	5567.7	
430.72	5720.7	
430.92	7546.1	
431.12	7219.8	
431.32	5326.1	
431.53	5552.7	
431.73	6586.3	
431.93	7646.4	
432.13	5212.8	
432.33	5208.7	
432.54	6971.3	
432.74	7073.7	
432.94	5285.1	
433.14	5908.4	
433.34	7477.8	
433.55	7002	
433.75	5851	
433.95	7148.1	
434.15	7310.6	
434.35	6948.8	
434.56	5421.7	
434.76	5156.1	
434.96	7280.5	
435.16	7459.4	
435.36	5336.3	
435.56	6169.2	
435.77	7084.6	
435.97	7167.9	
436.17	6603.3	
436.37	6098.9	
436.57	7100.3	
436.78	7093.5	
436.98	7286.7	
437.18	6549.4	
437.38	7513.3	
437.58	7190.4	
437.78	6737.1	
437.99	5784.8	
438.19	7428.7	
438.39	8103.8	
438.59	5718.6	
438.79	5343.2	
438.99	7931.1	
439.2	7145.4	
439.4	5333.6	
439.6	5412.1	
439.8	7370	
440	8148.9	
440.2	6197.8	
440.4	6257.9	
440.61	7783.6	
440.81	8107.9	
441.01	5734.3	
441.21	6360.3	
441.41	8280.6	
441.61	7864.2	
441.81	6631.3	
442.02	7243.7	
442.22	8488.1	
442.42	8030.1	
442.62	5902.2	
442.82	5930.9	
443.02	8291.5	
443.22	7690.8	
443.43	6249	
443.63	5939.1	
443.83	7469.6	
444.03	7546.1	
444.23	6821.1	
444.43	6477	
444.63	7939.3	
444.83	8624	
445.04	6137.1	
445.24	7036.8	
445.44	8101.1	
445.64	8066.3	
445.84	6512.5	
446.04	6564.4	
446.24	7572.7	
446.44	8343.4	
446.65	5951.4	
446.85	6296.1	
447.05	7703.8	
447.25	8206.2	
447.45	6414.2	
447.65	5952.1	
447.85	7876.5	
448.05	7423.9	
448.25	6704.4	
448.46	6541.9	
448.66	7868.3	
448.86	7625.3	
449.06	5929.6	
449.26	6664.1	
449.46	8215.8	
449.66	7436.9	
449.86	6502.3	
450.06	6359.6	
450.26	7660.1	
450.47	8123.6	
450.67	6587	
450.87	6848.4	
451.07	8204.8	
451.27	8049.2	
451.47	6151.4	
451.67	6872.3	
451.87	7940	
452.07	8574.8	
452.27	6408.1	
452.47	6293.4	
452.67	8114.1	
452.88	8447.2	
453.08	5919.3	
453.28	7281.2	
453.48	8953.7	
453.68	8008.9	
453.88	6423.1	
454.08	6489.3	
454.28	8428.8	
454.48	8165.9	
454.68	6885.3	
454.88	7270.3	
455.08	8598.1	
455.28	8385.1	
455.48	6318.7	
455.68	6870.3	
455.89	9002.2	
456.09	8698.4	
456.29	6728.9	
456.49	6848.4	
456.69	8959.2	
456.89	8305.9	
457.09	7141.3	
457.29	7460.8	
457.49	8720.3	
457.69	8826.7	
457.89	7317.4	
458.09	6734.4	
458.29	8782.4	
458.49	9265.7	
458.69	7612.3	
458.89	7124.9	
459.09	9449.3	
459.29	9479.4	
459.49	7171.3	
459.69	7729.7	
459.9	9093.7	
460.1	8876.6	
460.3	7072.3	
460.5	7010.9	
460.7	9213.8	
460.9	8872.5	
461.1	6890	
461.3	7774.8	
461.5	9775.6	
461.7	9574.3	
461.9	7451.9	
462.1	7551.5	
462.3	9233.6	
462.5	9600.2	
462.7	7400	
462.9	7605.5	
463.1	10305	
463.3	10189	
463.5	7830.7	
463.7	8466.3	
463.9	9632.3	
464.1	9805	
464.3	8184.4	
464.5	8146.1	
464.7	10091	
464.9	9996.1	
465.1	9082.1	
465.3	8556.4	
465.5	10253	
465.7	10520	
465.9	8748.2	
466.1	8413.1	
466.3	10339	
466.5	10110	
466.7	9372.9	
466.9	8508.6	
467.1	10374	
467.3	10916	
467.5	9398.8	
467.7	8668.4	
467.9	11056	
468.1	11701	
468.3	9175.6	
468.5	9480	
468.7	10370	
468.9	10301	
469.1	8957.1	
469.3	9452.1	
469.5	11858	
469.7	10159	
469.9	9157.2	
470.1	8787.8	
470.3	10639	
470.5	10561	
470.7	9651.4	
470.9	8761.2	
471.1	10448	
471.3	10572	
471.5	8808.3	
471.69	9989.3	
471.89	10238	
472.09	9836.4	
472.29	9336	
472.49	9355.1	
472.69	10134	
472.89	10572	
473.09	8739.4	
473.29	8652	
473.49	10204	
473.69	10142	
473.89	9388.6	
474.09	8800.8	
474.29	10982	
474.49	10750	
474.69	9371.5	
474.89	8973.5	
475.09	10276	
475.29	10277	
475.49	8533.2	
475.69	8714.1	
475.88	11215	
476.08	10596	
476.28	8411	
476.48	8611.7	
476.68	10740	
476.88	10583	
477.08	8678.6	
477.28	8835.6	
477.48	10193	
477.68	10607	
477.88	8609	
478.08	8733.2	
478.28	11078	
478.48	10348	
478.67	8905.3	
478.87	8261.5	
479.07	10971	
479.27	10432	
479.47	9001.5	
479.67	8998.8	
479.87	10778	
480.07	11233	
480.27	8540	
480.47	9510.8	
480.67	10606	
480.87	11032	
481.06	8748.2	
481.26	9307.3	
481.46	10694	
481.66	10471	
481.86	9181	
482.06	9774.3	
482.26	10363	
482.46	10978	
482.66	9011.7	
482.86	8765.3	
483.05	10824	
483.25	10291	
483.45	10842	
483.65	9179	
483.85	10454	
484.05	10744	
484.25	9518.3	
484.45	9797.5	
484.65	11198	
484.84	11358	
485.04	9266.4	
485.24	9291.6	
485.44	11667	
485.64	10496	
485.84	8897.1	
486.04	9801.6	
486.24	10806	
486.44	10959	
486.63	8910	
486.83	9652.1	
487.03	10912	
487.23	11088	
487.43	9004.9	
487.63	10724	
487.83	11149	
488.02	11562	
488.22	9840.5	
488.42	10281	
488.62	11690	
488.82	10948	
489.02	9555.8	
489.22	9721.7	
489.41	11688	
489.61	11606	
489.81	9499.2	
490.01	9481.4	
490.21	11707	
490.41	12254	
490.61	9577.7	
490.8	9688.9	
491	11471	
491.2	10923	
491.4	10028	
491.6	9397.4	
491.8	11329	
491.99	11301	
492.19	9224.1	
492.39	9412.5	
492.59	11715	
492.79	11860	
492.99	10245	
493.18	9673.2	
493.38	12055	
493.58	12628	
493.78	10310	
493.98	10038	
494.18	12000	
494.37	11690	
494.57	10770	
494.77	10608	
494.97	12411	
495.17	12728	
495.37	10542	
495.56	10722	
495.76	12963	
495.96	12671	
496.16	11589	
496.36	10851	
496.55	12947	
496.75	12514	
496.95	11043	
497.15	10960	
497.35	12789	
497.54	12835	
497.74	10891	
497.94	12283	
498.14	13651	
498.34	13289	
498.53	10862	
498.73	11380	
498.93	12631	
499.13	13048	
499.33	11480	
499.52	11692	
499.72	13365	
499.92	13284	
500.12	11243	
500.32	11394	
500.51	13257	
500.71	13333	
500.91	11965	
501.11	11688	
501.31	13324	
501.5	13594	
501.7	12233	
501.9	11598	
502.1	13164	
502.29	13500	
502.49	11958	
502.69	12113	
502.89	13398	
503.09	13340	
503.28	10895	
503.48	10933	
503.68	12679	
503.88	12718	
504.07	11811	
504.27	11262	
504.47	13146	
504.67	13027	
504.86	11753	
505.06	11375	
505.26	12804	
505.46	13817	
505.65	11215	
505.85	11364	
506.05	12562	
506.25	12969	
506.44	10687	
506.64	11203	
506.84	12368	
507.04	12890	
507.23	10811	
507.43	11310	
507.63	13757	
507.83	12553	
508.02	11326	
508.22	10955	
508.42	13921	
508.62	12360	
508.81	10905	
509.01	11640	
509.21	12241	
509.4	12553	
509.6	11281	
509.8	10879	
510	12557	
510.19	13588	
510.39	10861	
510.59	10980	
510.79	12573	
510.98	13596	
511.18	11196	
511.38	11132	
511.57	13269	
511.77	12960	
511.97	11616	
512.17	10905	
512.36	13125	
512.56	12749	
512.76	10867	
512.95	10751	
513.15	13355	
513.35	12221	
513.55	11507	
513.74	10935	
513.94	13191	
514.14	12706	
514.33	11764	
514.53	11499	
514.73	12763	
514.92	12902	
515.12	11133	
515.32	11112	
515.51	12979	
515.71	13291	
515.91	12284	
516.11	11184	
516.3	14355	
516.5	12761	
516.7	11542	
516.89	12022	
517.09	12891	
517.29	12955	
517.48	12009	
517.68	11408	
517.88	12734	
518.07	13252	
518.27	11796	
518.47	11161	
518.66	13500	
518.86	12656	
519.06	10955	
519.25	11222	
519.45	12882	
519.65	13919	
519.84	11830	
520.04	12447	
520.24	14349	
520.43	13307	
520.63	11540	
520.83	11533	
521.02	12828	
521.22	13158	
521.42	11690	
521.61	12098	
521.81	12983	
522.01	13078	
522.2	11740	
522.4	11523	
522.6	13536	
522.79	12659	
522.99	11675	
523.18	11359	
523.38	13698	
523.58	13506	
523.77	13013	
523.97	11616	
524.17	15048	
524.36	14494	
524.56	12789	
524.76	12539	
524.95	13945	
525.15	13769	
525.34	12474	
525.54	12525	
525.74	14468	
525.93	13766	
526.13	13536	
526.33	12752	
526.52	14842	
526.72	14387	
526.91	13488	
527.11	13164	
527.31	14887	
527.5	15112	
527.7	13250	
527.89	12617	
528.09	14448	
528.29	14934	
528.48	13617	
528.68	13360	
528.87	15046	
529.07	15001	
529.27	13299	
529.46	12901	
529.66	14764	
529.85	15137	
530.05	12898	
530.25	13328	
530.44	15868	
530.64	14639	
530.83	13112	
531.03	13330	
531.23	15195	
531.42	15126	
531.62	14020	
531.81	13489	
532.01	15627	
532.21	15787	
532.4	13569	
532.6	13976	
532.79	16211	
532.99	15808	
533.18	14111	
533.38	14737	
533.58	15623	
533.77	16008	
533.97	14255	
534.16	14731	
534.36	16518	
534.55	15868	
534.75	14965	
534.95	14390	
535.14	16627	
535.34	15933	
535.53	14007	
535.73	15433	
535.92	16664	
536.12	15823	
536.31	14040	
536.51	14941	
536.71	16050	
536.9	15764	
537.1	14072	
537.29	14265	
537.49	16279	
537.68	15670	
537.88	14693	
538.07	13961	
538.27	16080	
538.46	16683	
538.66	14050	
538.86	14437	
539.05	16169	
539.25	16381	
539.44	14681	
539.64	14276	
539.83	16031	
540.03	16579	
540.22	14173	
540.42	14018	
540.61	15762	
540.81	16070	
541	14315	
541.2	14951	
541.39	15593	
541.59	15839	
541.78	14934	
541.98	13874	
542.18	15394	
542.37	15327	
542.57	14197	
542.76	14676	
542.96	15264	
543.15	15757	
543.35	14046	
543.54	13650	
543.74	15494	
543.93	15524	
544.13	13814	
544.32	14532	
544.52	15743	
544.71	15100	
544.91	13224	
545.1	14115	
545.3	15237	
545.49	15454	
545.69	13196	
545.88	13547	
546.08	16267	
546.27	15813	
546.47	13883	
546.66	13461	
546.86	15652	
547.05	15831	
547.24	13554	
547.44	13500	
547.63	14843	
547.83	15742	
548.02	13773	
548.22	13726	
548.41	14661	
548.61	15594	
548.8	13413	
549	13383	
549.19	15126	
549.39	15419	
549.58	13105	
549.78	13524	
549.97	15433	
550.17	14791	
550.36	13998	
550.55	14717	
550.75	14818	
550.94	15440	
551.14	13046	
551.33	13192	
551.53	14592	
551.72	15244	
551.92	13515	
552.11	13254	
552.31	15249	
552.5	15024	
552.69	14375	
552.89	12864	
553.08	15111	
553.28	14803	
553.47	13183	
553.67	13977	
553.86	15385	
554.06	14225	
554.25	12608	
554.44	13089	
554.64	15850	
554.83	15672	
555.03	12954	
555.22	13149	
555.42	15225	
555.61	14820	
555.8	13031	
556	13102	
556.19	14246	
556.39	14995	
556.58	12986	
556.78	13121	
556.97	14734	
557.16	14663	
557.36	13835	
557.55	12942	
557.75	14065	
557.94	15489	
558.13	12884	
558.33	12827	
558.52	15238	
558.72	14363	
558.91	12693	
559.1	12797	
559.3	14154	
559.49	13985	
559.69	12443	
559.88	13155	
560.07	14588	
560.27	14921	
560.46	13365	
560.66	13354	
560.85	14551	
561.04	13886	
561.24	12712	
561.43	12639	
561.63	14042	
561.82	14204	
562.01	13512	
562.21	13072	
562.4	14553	
562.59	15298	
562.79	12972	
562.98	12665	
563.18	14607	
563.37	15623	
563.56	13289	
563.76	12840	
563.95	14289	
564.14	14397	
564.34	13072	
564.53	12866	
564.73	14838	
564.92	15043	
565.11	13231	
565.31	12825	
565.5	15279	
565.69	14493	
565.89	13130	
566.08	13223	
566.27	15036	
566.47	15467	
566.66	13629	
566.85	12856	
567.05	15003	
567.24	14626	
567.44	13012	
567.63	14063	
567.82	15056	
568.02	14989	
568.21	13166	
568.4	13301	
568.6	14880	
568.79	14887	
568.98	13118	
569.18	13290	
569.37	15067	
569.56	16379	
569.76	13539	
569.95	14229	
570.14	15193	
570.34	15350	
570.53	13216	
570.72	13128	
570.91	15593	
571.11	15153	
571.3	13593	
571.49	14246	
571.69	15175	
571.88	14764	
572.07	14046	
572.27	13880	
572.46	14875	
572.65	15488	
572.85	13526	
573.04	13682	
573.23	15866	
573.43	15232	
573.62	13596	
573.81	13829	
574	15477	
574.2	15199	
574.39	13839	
574.58	13974	
574.78	16118	
574.97	15690	
575.16	14468	
575.36	14517	
575.55	16125	
575.74	16081	
575.93	13661	
576.13	14593	
576.32	15571	
576.51	16043	
576.71	14187	
576.9	15155	
577.09	16446	
577.28	15896	
577.48	14445	
577.67	13715	
577.86	15760	
578.05	16057	
578.25	14272	
578.44	14274	
578.63	15842	
578.83	16832	
579.02	13882	
579.21	15029	
579.4	15882	
579.6	15956	
579.79	14355	
579.98	15940	
580.17	16144	
580.37	16509	
580.56	14076	
580.75	14764	
580.94	16463	
581.14	16570	
581.33	14997	
581.52	14349	
581.71	16232	
581.91	16789	
582.1	14231	
582.29	14285	
582.48	16069	
582.68	16065	
582.87	14839	
583.06	14744	
583.25	16413	
583.45	15846	
583.64	15151	
583.83	15523	
584.02	16165	
584.21	16490	
584.41	14994	
584.6	14608	
584.79	16247	
584.98	16666	
585.18	14353	
585.37	14345	
585.56	15873	
585.75	16551	
585.94	14319	
586.14	14883	
586.33	16708	
586.52	16036	
586.71	14634	
586.91	14362	
587.1	15420	
587.29	16251	
587.48	14075	
587.67	13880	
587.87	16060	
588.06	15797	
588.25	15001	
588.44	14547	
588.63	15736	
588.83	16027	
589.02	13994	
589.21	13749	
589.4	15257	
589.59	15197	
589.78	12809	
589.98	12924	
590.17	14404	
590.36	14658	
590.55	12219	
590.74	12481	
590.94	15259	
591.13	14353	
591.32	12435	
591.51	12228	
591.7	14619	
591.89	14515	
592.09	12337	
592.28	12637	
592.47	13767	
592.66	15368	
592.85	12497	
593.05	12757	
593.24	14365	
593.43	15115	
593.62	12884	
593.81	13205	
594	14580	
594.19	14543	
594.39	12635	
594.58	12633	
594.77	14742	
594.96	15044	
595.15	12584	
595.34	12935	
595.54	14442	
595.73	13941	
595.92	12094	
596.11	12846	
596.3	14811	
596.49	13861	
596.68	12515	
596.88	12839	
597.07	14453	
597.26	13731	
597.45	12166	
597.64	13080	
597.83	13934	
598.02	14479	
598.22	12320	
598.41	12770	
598.6	14237	
598.79	13773	
598.98	12187	
599.17	12989	
599.36	14276	
599.55	14929	
599.74	13588	
599.94	13627	
600.13	14674	
600.32	13741	
600.51	12192	
600.7	12209	
600.89	14930	
601.08	14991	
601.27	11977	
601.47	12684	
601.66	14382	
601.85	14807	
602.04	12579	
602.23	12541	
602.42	13873	
602.61	14171	
602.8	12351	
602.99	12121	
603.18	14004	
603.37	14203	
603.57	12536	
603.76	12880	
603.95	14622	
604.14	14276	
604.33	12301	
604.52	12521	
604.71	14293	
604.9	13797	
605.09	12871	
605.28	12813	
605.47	14670	
605.66	14260	
605.86	12674	
606.05	12327	
606.24	14594	
606.43	13512	
606.62	12559	
606.81	13009	
607	14412	
607.19	14047	
607.38	11998	
607.57	12170	
607.76	13639	
607.95	13241	
608.14	12415	
608.33	12921	
608.52	13722	
608.72	14236	
608.91	11884	
609.1	11837	
609.29	13874	
609.48	13380	
609.67	12337	
609.86	11743	
610.05	13324	
610.24	13518	
610.43	11631	
610.62	11525	
610.81	14305	
611	14170	
611.19	11819	
611.38	12217	
611.57	13756	
611.76	14647	
611.95	11645	
612.14	11413	
612.33	13571	
612.52	13274	
612.71	12045	
612.9	11514	
613.09	13121	
613.28	14649	
613.47	11711	
613.66	12365	
613.85	13817	
614.04	13294	
614.24	11811	
614.43	11268	
614.62	13749	
614.81	13760	
615	12122	
615.19	12327	
615.38	13263	
615.57	13692	
615.76	12162	
615.95	12953	
616.14	13959	
616.33	13653	
616.52	12341	
616.71	12510	
616.9	13840	
617.09	13796	
617.28	11860	
617.47	12753	
617.66	13379	
617.85	13353	
618.04	12754	
618.22	12352	
618.41	13759	
618.6	14478	
618.79	12358	
618.98	12261	
619.17	14641	
619.36	13461	
619.55	12493	
619.74	12523	
619.93	14236	
620.12	13961	
620.31	13026	
620.5	13247	
620.69	14728	
620.88	15052	
621.07	13575	
621.26	12930	
621.45	14629	
621.64	14635	
621.83	13213	
622.02	12584	
622.21	14690	
622.4	14577	
622.59	13584	
622.78	13521	
622.97	14306	
623.16	15036	
623.35	13320	
623.54	12590	
623.72	14504	
623.91	14662	
624.1	13404	
624.29	12544	
624.48	15387	
624.67	14887	
624.86	13368	
625.05	12831	
625.24	15459	
625.43	14452	
625.62	14567	
625.81	12978	
626	15031	
626.19	14701	
626.38	13432	
626.56	13202	
626.75	14459	
626.94	15098	
627.13	13448	
627.32	12521	
627.51	14969	
627.7	15720	
627.89	12549	
628.08	13462	
628.27	14379	
628.46	14474	
628.65	12807	
628.83	12583	
629.02	14802	
629.21	14326	
629.4	13142	
629.59	13120	
629.78	14423	
629.97	14943	
630.16	13284	
630.35	12854	
630.54	15434	
630.72	15160	
630.91	12963	
631.1	13287	
631.29	14755	
631.48	14799	
631.67	13379	
631.86	12889	
632.05	14610	
632.24	14498	
632.42	12633	
632.61	13033	
632.8	14383	
632.99	14225	
633.18	13160	
633.37	13417	
633.56	14767	
633.75	14614	
633.93	13110	
634.12	12967	
634.31	15313	
634.5	15064	
634.69	13027	
634.88	13297	
635.07	14481	
635.25	14977	
635.44	13472	
635.63	13701	
635.82	14354	
636.01	13807	
636.2	13200	
636.39	13117	
636.57	15175	
636.76	14737	
636.95	12815	
637.14	13663	
637.33	14728	
637.52	15271	
637.7	12562	
637.89	13284	
638.08	14501	
638.27	15212	
638.46	13264	
638.65	13426	
638.83	15178	
639.02	14151	
639.21	12960	
639.4	13233	
639.59	14301	
639.78	14147	
639.96	12325	
640.15	12424	
640.34	14188	
640.53	14250	
640.72	12211	
640.91	12394	
641.09	13601	
641.28	14592	
641.47	12428	
641.66	12978	
641.85	14244	
642.03	14228	
642.22	12667	
642.41	12288	
642.6	13719	
642.79	13228	
642.97	12079	
643.16	12529	
643.35	13564	
643.54	13384	
643.73	11962	
643.91	12452	
644.1	13098	
644.29	13728	
644.48	11833	
644.67	11971	
644.85	13192	
645.04	13461	
645.23	11407	
645.42	11743	
645.6	12954	
645.79	13569	
645.98	11311	
646.17	10650	
646.36	12496	
646.54	12693	
646.73	11518	
646.92	10902	
647.11	12442	
647.29	13172	
647.48	10918	
647.67	10660	
647.86	13263	
648.05	13419	
648.23	11029	
648.42	11955	
648.61	12843	
648.8	12662	
648.98	10761	
649.17	11086	
649.36	12268	
649.55	12110	
649.73	10901	
649.92	11317	
650.11	12398	
650.3	12484	
650.48	10808	
650.67	10660	
650.86	12544	
651.05	11957	
651.23	10636	
651.42	10750	
651.61	12239	
651.79	12000	
651.98	10978	
652.17	10571	
652.36	12398	
652.54	11766	
652.73	10503	
652.92	10428	
653.11	12357	
653.29	12367	
653.48	9973.6	
653.67	10626	
653.85	12111	
654.04	12807	
654.23	10630	
654.42	10281	
654.6	11584	
654.79	11888	
654.98	9720.3	
655.16	10051	
655.35	11032	
655.54	10730	
655.73	9527.8	
655.91	9364.7	
656.1	11639	
656.29	10839	
656.47	9275.9	
656.66	10440	
656.85	11227	
657.03	11297	
657.22	9813.9	
657.41	9895.1	
657.59	11390	
657.78	11426	
657.97	9712.8	
658.16	10230	
658.34	11940	
658.53	12194	
658.72	10882	
658.9	11225	
659.09	11659	
659.28	11697	
659.46	10023	
659.65	9983.2	
659.84	11400	
660.02	11880	
660.21	10092	
660.4	10013	
660.58	12124	
660.77	11656	
660.96	10471	
661.14	9817.3	
661.33	12387	
661.52	12385	
661.7	9664.4	
661.89	12063	
662.08	11442	
662.26	10998	
662.45	9741.5	
662.64	9789.3	
662.82	11803	
663.01	11149	
663.2	9770.2	
663.38	10322	
663.57	11587	
663.75	11603	
663.94	10086	
664.13	10862	
664.31	11252	
664.5	11759	
664.69	10307	
664.87	10528	
665.06	11077	
665.25	11538	
665.43	10763	
665.62	10832	
665.8	11671	
665.99	11203	
666.18	10004	
666.36	10102	
666.55	11764	
666.74	11581	
666.92	9768.8	
667.11	10791	
667.29	11499	
667.48	11745	
667.67	10500	
667.85	9951.8	
668.04	11236	
668.22	11256	
668.41	10099	
668.6	10204	
668.78	11114	
668.97	11282	
669.15	10238	
669.34	9388.6	
669.53	11183	
669.71	11319	
669.9	9656.2	
670.08	10049	
670.27	11041	
670.46	11506	
670.64	10184	
670.83	10374	
671.01	10896	
671.2	11366	
671.38	9711.5	
671.57	9495.1	
671.76	11882	
671.94	12212	
672.13	9477.3	
672.31	10266	
672.5	11696	
672.69	11107	
672.87	9724.4	
673.06	9936.1	
673.24	11508	
673.43	11100	
673.61	10099	
673.8	9893.1	
673.98	11452	
674.17	11543	
674.36	10260	
674.54	10266	
674.73	11169	
674.91	11554	
675.1	9996.1	
675.28	9570.8	
675.47	11223	
675.65	11647	
675.84	9886.2	
676.03	10092	
676.21	11118	
676.4	10753	
676.58	10409	
676.77	10325	
676.95	12196	
677.14	11095	
677.32	9539.4	
677.51	9540.8	
677.69	11507	
677.88	10879	
678.06	9656.2	
678.25	9655.5	
678.44	11398	
678.62	10940	
678.81	9422.7	
678.99	10125	
679.18	11751	
679.36	11364	
679.55	9910.8	
679.73	10195	
679.92	11354	
680.1	11072	
680.29	10692	
680.47	9738.8	
680.66	11145	
680.84	11595	
681.03	9437.7	
681.21	10314	
681.4	11131	
681.58	10883	
681.77	9636.4	
681.95	9467.8	
682.14	11568	
682.32	11718	
682.51	10232	
682.69	9326.4	
682.88	10942	
683.06	11163	
683.25	9999.5	
683.43	10183	
683.62	11087	
683.8	11383	
683.99	10239	
684.17	9693.7	
684.36	11867	
684.54	10838	
684.73	9004.9	
684.91	9072.5	
685.1	10802	
685.28	10073	
685.46	9046.6	
685.65	8989.2	
685.83	10396	
686.02	9950.4	
686.2	8569.4	
686.39	8613.8	
686.57	9901.2	
686.76	11058	
686.94	8815.1	
687.13	8915.5	
687.31	10538	
687.5	10354	
687.68	8539.3	
687.86	9316.2	
688.05	11579	
688.23	10014	
688.42	9454.1	
688.6	9134.6	
688.79	10384	
688.97	10312	
689.16	9377	
689.34	8637	
689.52	10947	
689.71	11169	
689.89	9603.6	
690.08	9110.7	
690.26	10811	
690.45	10610	
690.63	9791.3	
690.81	9292.3	
691	10619	
691.18	10441	
691.37	9260.2	
691.55	10775	
691.74	10294	
691.92	11615	
692.1	9209	
692.29	8824.7	
692.47	10510	
692.66	10030	
692.84	9017.9	
693.02	9271.8	
693.21	10178	
693.39	10470	
693.58	9534.7	
693.76	9114.1	
693.94	11264	
694.13	11289	
694.31	9214.5	
694.5	9933.3	
694.68	10499	
694.86	10864	
695.05	9580.4	
695.23	9719.7	
695.42	11223	
695.6	12605	
695.78	10072	
695.97	9455.5	
696.15	11292	
696.34	10841	
696.52	9232.2	
696.7	9773.6	
696.89	10922	
697.07	10450	
697.25	9648	
697.44	10561	
697.62	10901	
697.81	10950	
697.99	9345.6	
698.17	9636.4	
698.36	10382	
698.54	10757	
698.72	9594.1	
698.91	8841.1	
699.09	10467	
699.28	10366	
699.46	9313.5	
699.64	9226.8	
699.83	10305	
700.01	10991	
700.19	9683.5	
700.38	8736	
700.56	11025	
700.74	10445	
700.93	8886.8	
701.11	9663	
701.29	10790	
701.48	11592	
701.66	9174.2	
701.84	9380.4	
702.03	10724	
702.21	11252	
702.39	8883.4	
702.58	9480.7	
702.76	10942	
702.94	11132	
703.13	8894.3	
703.31	10600	
703.49	10379	
703.68	11106	
703.86	9009	
704.04	9759.3	
704.23	10733	
704.41	11123	
704.59	9136.7	
704.78	9831.6	
704.96	11940	
705.14	10884	
705.33	9024	
705.51	9570.2	
705.69	10578	
705.87	11140	
706.06	9656.2	
706.24	8961.2	
706.42	10732	
706.61	11000	
706.79	9615.9	
706.97	8925.7	
707.16	10391	
707.34	10643	
707.52	9521.7	
707.7	9035	
707.89	10286	
708.07	10246	
708.25	9541.5	
708.44	9701.9	
708.62	10350	
708.8	11068	
708.98	9779.7	
709.17	9045.9	
709.35	10593	
709.53	10553	
709.72	8740.7	
709.9	8783.1	
710.08	10754	
710.26	10821	
710.45	9792	
710.63	8968.1	
710.81	10497	
710.99	10380	
711.18	9250	
711.36	8850.6	
711.54	10196	
711.72	10686	
711.91	8837	
712.09	8531.2	
712.27	10238	
712.45	10458	
712.64	8912.8	
712.82	8211	
713	9518.3	
713.18	9631.6	
713.37	8079.2	
713.55	8881.4	
713.73	10036	
713.91	9028.1	
714.1	7918.8	
714.28	7526.3	
714.46	9355.8	
714.64	8718.2	
714.83	6762.4	
715.01	7151.5	
715.19	8436.3	
715.37	7841.7	
715.55	6764.4	
715.74	6931	
715.92	8793.3	
716.1	7332.4	
716.28	7600.7	
716.47	6885.3	
716.65	7871	
716.83	7848.5	
717.01	6720.8	
717.19	6673.6	
717.38	9310.1	
717.56	7634.1	
717.74	6856.6	
717.92	6386.2	
718.1	8496.3	
718.29	7965.2	
718.47	6151.4	
718.65	6756.2	
718.83	8787.2	
719.01	8768	
719.2	6488	
719.38	7257.3	
719.56	8733.9	
719.74	9702.6	
719.92	6961.7	
720.11	7635.5	
720.29	8645.2	
720.47	7901.1	
720.65	6451.8	
720.83	7025.9	
721.02	7983	
721.2	7749.5	
721.38	6818.4	
721.56	6241.5	
721.74	7236.2	
721.92	7335.1	
722.11	7026.6	
722.29	6844.3	
722.47	8316.8	
722.65	7665.5	
722.83	6218.3	
723.01	6725.5	
723.2	7641	
723.38	8009.6	
723.56	5869.5	
723.74	6515.3	
723.92	7339.2	
724.1	8102.4	
724.29	6071.5	
724.47	6847.7	
724.65	7381.6	
724.83	7225.2	
725.01	6010.1	
725.19	6513.2	
725.37	7154.2	
725.56	7261.4	
725.74	5883.1	
725.92	6028.5	
726.1	7278.5	
726.28	7485.3	
726.46	6281.1	
726.64	6039.5	
726.83	7453.2	
727.01	7539.9	
727.19	5895.4	
727.37	6421.1	
727.55	7522.9	
727.73	7837.6	
727.91	5777.3	
728.09	5732.9	
728.28	7944.1	
728.46	7980.3	
728.64	6395.1	
728.82	6423.8	
729	8667.7	
729.18	8120.2	
729.36	5918.6	
729.54	7502.4	
729.72	8925.7	
729.91	7767.3	
730.09	7294.9	
730.27	6522.8	
730.45	7815	
730.63	8066.9	
730.81	6901.7	
730.99	6336.4	
731.17	8631.5	
731.35	7533.8	
731.53	6688	
731.71	6429.3	
731.9	8284.7	
732.08	8360.5	
732.26	6654.5	
732.44	6368.5	
732.62	8429.4	
732.8	8090.2	
732.98	6767.2	
733.16	6076.3	
733.34	7972.7	
733.52	7114	
733.7	6303	
733.88	6546.7	
734.07	7821.2	
734.25	7727.7	
734.43	6034	
734.61	7016.3	
734.79	8757.1	
734.97	7600	
735.15	6040.8	
735.33	6288.6	
735.51	7744.1	
735.69	7589.8	
735.87	6978.1	
736.05	6408.1	
736.23	7718.1	
736.41	7428.7	
736.59	6272.9	
736.77	6297.5	
736.95	7990.5	
737.13	7519.5	
737.32	5976.7	
737.5	6201.2	
737.68	8302.5	
737.86	7370	
738.04	5806	
738.22	6929	
738.4	7267.6	
738.58	7401.4	
738.76	6171.9	
738.94	5500.2	
739.12	7324.2	
739.3	7169.3	
739.48	6555.5	
739.66	6410.1	
739.84	7516	
740.02	7466.9	
740.2	5540.4	
740.38	5736.4	
740.56	7649.8	
740.74	6806.1	
740.92	6206.7	
741.1	6012.8	
741.28	7223.9	
741.46	7051.8	
741.64	5800.5	
741.82	6124.8	
742	7193.1	
742.18	7124.2	
742.36	5892.7	
742.54	5609.4	
742.72	7560.4	
742.9	6546.7	
743.08	6048.3	
743.26	5199.8	
743.44	7376.8	
743.62	7393.8	
743.8	6149.4	
743.98	5549.3	
744.16	7210.9	
744.34	7002	
744.52	6018.3	
744.7	5939.1	
744.88	7283.9	
745.06	6939.9	
745.24	5893.4	
745.42	5924.1	
745.6	7427.3	
745.78	7181.5	
745.96	5070.1	
746.14	5316.5	
746.32	7831.4	
746.5	7083.2	
746.68	5636	
746.86	5231.9	
747.03	7419.1	
747.21	6316.6	
747.39	5591	
747.57	5177.9	
747.75	6724.2	
747.93	7036.1	
748.11	5167.7	
748.29	5175.2	
748.47	7940	
748.65	6601.3	
748.83	5618.3	
749.01	5436.7	
749.19	7012.9	
749.37	6309.1	
749.55	5432.6	
749.73	5394.3	
749.91	6767.2	
750.09	6481.1	
750.26	5431.2	
750.44	4981.3	
750.62	6716.7	
750.8	6584.2	
750.98	4942.4	
751.16	5081.7	
751.34	6775.4	
751.52	6258.6	
751.7	5615.5	
751.88	4825.7	
752.06	7054.6	
752.24	6763.1	
752.42	4820.2	
752.59	5098.1	
752.77	6530.3	
752.95	7358.4	
753.13	5543.2	
753.31	5100.8	
753.49	6309.8	
753.67	6561	
753.85	5227.1	
754.03	4872.8	
754.21	6777.4	
754.38	6978.8	
754.56	4952.7	
754.74	4252.9	
754.92	6078.4	
755.1	6462	
755.28	4079.6	
755.46	4057.7	
755.64	6799.9	
755.82	6763.1	
755.99	4001	
756.17	3978.5	
756.35	4760.8	
756.53	5785.5	
756.71	3006.4	
756.89	3671.3	
757.07	5448.3	
757.25	4816.1	
757.42	4093.2	
757.6	4675.5	
757.78	5669.5	
757.96	4930.8	
758.14	4012	
758.32	3675.4	
758.5	4596.3	
758.67	5285.8	
758.85	3908.9	
759.03	3958.7	
759.21	5375.2	
759.39	4900.8	
759.57	3558.7	
759.75	4349.2	
759.92	5904.3	
760.1	5446.9	
760.28	4608.6	
760.46	4796.3	
760.64	5290.6	
760.82	5113.8	
760.99	4633.2	
761.17	4072.7	
761.35	5898.8	
761.53	5152	
761.71	4255.7	
761.89	4674.1	
762.06	5829.9	
762.24	5496.1	
762.42	4377.2	
762.6	4113	
762.78	5546.6	
762.96	5964.4	
763.13	4577.9	
763.31	4359.4	
763.49	6048.3	
763.67	5535.7	
763.85	4932.9	
764.02	5348.6	
764.2	6281.8	
764.38	5670.8	
764.56	4280.9	
764.74	4859.1	
764.91	6382.8	
765.09	5565	
765.27	4126	
765.45	3906.2	
765.63	6401.3	
765.8	6251.8	
765.98	3792.2	
766.16	3962.8	
766.34	5201.8	
766.52	5001.8	
766.69	4598.4	
766.87	3780.6	
767.05	5558.2	
767.23	5934.3	
767.41	4029.7	
767.58	4169	
767.76	5908.4	
767.94	5931.6	
768.12	3973.1	
768.29	4493.9	
768.47	5452.4	
768.65	5937.7	
768.83	3717.7	
769	4538.3	
769.18	5165.7	
769.36	5617.6	
769.54	4484.4	
769.72	3715.7	
769.89	5877.7	
770.07	5814.9	
770.25	3965.6	
770.43	4840	
770.6	6347.3	
770.78	6540.5	
770.96	4089.8	
771.14	4410	
771.31	5713.2	
771.49	5244.2	
771.67	3481.5	
771.85	3573.7	
772.02	4704.2	
772.2	5168.4	
772.38	4108.9	
772.55	3780.6	
772.73	5373.9	
772.91	5258.5	
773.09	3906.8	
773.26	3974.4	
773.44	5359.5	
773.62	5161.6	
773.8	3647.4	
773.97	3407.1	
774.15	5381.4	
774.33	5117.9	
774.5	3508.2	
774.68	3786	
774.86	5480.4	
775.04	5100.8	
775.21	3529.3	
775.39	3519.1	
775.57	5283.8	
775.74	5497.4	
775.92	3386	
776.1	3327.9	
776.27	5212.8	
776.45	6058.6	
776.63	3510.2	
776.81	3216	
776.98	5034.6	
777.16	5698.1	
777.34	3661.1	
777.51	3833.8	
777.69	4975.2	
777.87	4780.6	
778.04	3618.8	
778.22	4018.8	
778.4	4820.2	
778.57	5193	
778.75	3149.8	
778.93	3238.5	
779.1	4718.5	
779.28	4511	
779.46	3082.2	
779.64	3448.1	
779.81	5352.7	
779.99	5896.1	
780.17	3952.6	
780.34	4011.3	
780.52	4988.9	
780.69	5044.8	
780.87	3628.3	
781.05	3349.1	
781.22	4943.8	
781.4	5010	
781.58	3382.6	
781.75	2811.9	
781.93	5008.6	
782.11	4531.5	
782.28	4001	
782.46	3398.3	
782.64	4361.5	
782.81	5077.6	
782.99	3496.6	
783.17	3320.4	
783.34	4994.3	
783.52	4518.5	
783.69	3502	
783.87	4117.8	
784.05	4568.3	
784.22	4525.3	
784.4	4095.9	
784.58	3621.5	
784.75	5219.6	
784.93	4556	
785.1	3336.1	
785.28	3753.2	
785.46	4990.9	
785.63	4453.6	
785.81	3308.2	
785.99	3197.6	
786.16	4661.9	
786.34	4922	
786.51	3211.2	
786.69	3541.6	
786.87	4259.1	
787.04	4665.3	
787.22	3123.8	
787.39	3768.9	
787.57	4520.5	
787.75	5244.8	
787.92	3941	
788.1	3818.1	
788.27	4426.3	
788.45	4216.1	
788.63	3671.3	
788.8	2807.1	
788.98	4902.8	
789.15	4228.4	
789.33	2941.6	
789.5	3313.6	
789.68	5132.9	
789.86	5141.8	
790.03	3579.2	
790.21	3182.5	
790.38	5160.2	
790.56	4534.9	
790.73	3076.7	
790.91	3117.7	
791.09	4483.7	
791.26	4924.7	
791.44	3287	
791.61	2926.5	
791.79	4458.4	
791.96	4441.4	
792.14	3012.6	
792.32	2702	
792.49	4442.7	
792.67	4544.4	
792.84	3048.7	
793.02	2857.6	
793.19	4860.5	
793.37	5231.2	
793.54	2682.2	
793.72	2875.3	
793.89	5249.6	
794.07	4408.6	
794.25	3388.7	
794.42	2704	
794.6	5119.2	
794.77	4859.8	
794.95	3585.3	
795.12	3140.2	
795.3	4455.7	
795.47	4787.5	
795.65	3380.5	
795.82	3244.7	
796	4311	
796.17	5539.1	
796.35	3238.5	
796.52	3696.6	
796.7	4881	
796.87	4806.6	
797.05	3157.3	
797.22	3760.8	
797.4	4927.4	
797.57	5490.6	
797.75	3293.1	
797.92	3091.8	
798.1	5052.3	
798.27	4341.7	
798.45	2752.5	
798.62	2883.5	
798.8	4659.1	
798.97	4977.2	
799.15	3463.1	
799.32	3267.9	
799.5	4124.6	
799.67	4625	
799.85	3536.2	
800.02	2702	
800.2	4371.7	
800.37	4527.4	
800.55	3582.6	
800.72	3153.2	
800.9	4900.1	
801.07	5242.8	
801.25	3947.8	
801.42	3382.6	
801.6	4967	
801.77	4620.2	
801.95	3123.2	
802.12	2982.5	
802.29	4758.8	
802.47	4713.7	
802.64	3359.4	
802.82	2605.7	
802.99	4360.8	
803.17	5015.5	
803.34	3284.3	
803.52	2974.3	
803.69	5486.5	
803.87	4197.7	
804.04	3234.4	
804.21	3294.5	
804.39	5240.1	
804.56	4468.7	
804.74	2828.2	
804.91	3328.6	
805.09	4377.2	
805.26	4422.9	
805.44	2906.8	
805.61	3085.6	
805.78	4888.5	
805.96	4814.8	
806.13	3348.4	
806.31	3539.6	
806.48	4009.2	
806.66	4452.3	
806.83	3373	
807	3235.1	
807.18	4392.2	
807.35	4585.4	
807.53	3081.5	
807.7	2721.1	
807.87	5143.8	
808.05	4358.8	
808.22	3532.7	
808.4	2670.6	
808.57	4300.1	
808.74	4147.1	
808.92	3015.3	
809.09	3630.4	
809.27	4307.6	
809.44	4684.4	
809.61	2702	
809.79	2961.4	
809.96	5260.5	
810.14	4821.6	
810.31	2656.9	
810.48	3216.7	
810.66	4424.3	
810.83	4930.1	
811.01	3028.9	
811.18	3244.7	
811.35	4874.2	
811.53	3953.3	
811.7	3528.7	
811.87	3293.1	
812.05	4444.8	
812.22	4329.4	
812.39	2912.9	
812.57	2844.6	
812.74	4399.7	
812.92	5483.8	
813.09	3186	
813.26	3323.2	
813.44	5326.8	
813.61	4253.6	
813.78	2700.6	
813.96	3405.1	
814.13	4413.4	
814.3	4161.5	
814.48	3695.2	
814.65	3093.8	
814.82	5135.6	
815	4163.5	
815.17	3202.3	
815.34	3792.8	
815.52	4327.4	
815.69	4328.7	
815.87	3142.9	
816.04	3140.9	
816.21	4362.2	
816.38	3973.1	
816.56	3095.2	
816.73	2955.2	
816.9	5330.9	
817.08	4840.7	
817.25	3025.5	
817.42	3573.7	
817.6	4052.2	
817.77	4300.1	
817.94	3267.2	
818.12	2849.4	
818.29	4164.9	
818.46	5937.7	
818.64	3031.7	
818.81	2813.2	
818.98	4179.9	
819.16	5657.2	
819.33	3417.4	
819.5	3191.4	
819.67	4572.4	
819.85	5077.6	
820.02	3190.1	
820.19	3328.6	
820.37	4536.9	
820.54	4263.2	
820.71	3181.9	
820.88	3867.9	
821.06	4496	
821.23	4192.2	
821.4	3259	
821.58	3245.3	
821.75	4811.4	
821.92	4492.6	
822.09	2706.7	
822.27	2908.1	
822.44	4332.1	
822.61	4319.8	
822.79	2735.4	
822.96	4773.8	
823.13	4670.1	
823.3	4110.3	
823.48	3045.3	
823.65	2788	
823.82	4898.1	
823.99	4068.6	
824.17	3728	
824.34	2808.4	
824.51	5443.5	
824.68	4390.8	
824.86	2874	
825.03	3183.9	
825.2	4406.5	
825.37	5107	
825.55	2933.4	
825.72	3167.5	
825.89	5495.4	
826.06	5119.9	
826.24	3105.4	
826.41	3173	
826.58	5147.9	
826.75	4543.1	
826.92	2564.1	
827.1	2850.1	
827.27	6590.4	
827.44	5371.8	
827.61	3003.7	
827.79	3506.8	
827.96	4210.6	
828.13	4361.5	
828.3	3077.4	
828.47	2675.3	
828.65	4623.6	
828.82	4568.3	
828.99	3798.3	
829.16	3384.6	
829.34	4868.7	
829.51	4775.9	
829.68	3160	
829.85	3228.3	
830.02	5190.2	
830.2	4836.6	
830.37	2493.1	
830.54	3745.1	
830.71	5417.6	
830.88	4397	
831.05	2510.8	
831.23	2824.1	
831.4	5273.5	
831.57	5624.4	
831.74	2978.4	
831.91	2641.2	
832.09	4662.5	
832.26	4827.1	
832.43	3050.1	
832.6	3364.1	
832.77	4578.6	
832.94	5117.9	
833.12	2514.2	
833.29	2940.9	
833.46	4301.4	
833.63	5790.3	
833.8	3205.8	
833.97	3069.2	
834.15	4931.5	
834.32	4711.7	
834.49	3118.4	
834.66	3212.6	
834.83	4961.5	
835	4254.3	
835.17	2945.7	
835.35	2951.1	
835.52	4820.2	
835.69	4743.1	
835.86	3044	
836.03	2635.7	
836.2	4874.2	
836.37	4553.3	
836.55	2981.2	
836.72	2884.9	
836.89	4542.4	
837.06	4888.5	
837.23	3108.1	
837.4	3274	
837.57	5472.9	
837.75	5838.1	
837.92	2780.5	
838.09	2964.8	
838.26	4528.1	
838.43	5016.2	
838.6	3203	
838.77	2862.4	
838.94	5590.3	
839.11	5465.3	
839.29	3037.1	
839.46	2425.5	
839.63	4916.5	
839.8	4578.6	
839.97	2979.8	
840.14	2977.7	
840.31	4763.6	
840.48	4879.6	
840.65	2552.5	
840.82	2921.1	
841	4818.2	
841.17	4684.4	
841.34	2742.9	
841.51	2816.6	
841.68	4847.5	
841.85	4575.8	
842.02	2820.1	
842.19	2409.8	
842.36	4670.1	
842.53	4723.3	
842.7	2732.7	
842.87	3248.8	
843.05	5778	
843.22	4630.5	
843.39	2656.9	
843.56	2800.3	
843.73	4464.6	
843.9	4914.4	
844.07	4205.8	
844.24	3519.1	
844.41	6420.4	
844.58	4285	
844.75	2671.9	
844.92	2818	
845.09	4859.8	
845.26	4749.2	
845.43	2780.5	
845.6	2868.5	
845.77	4810	
845.94	4643.4	
846.12	2971.6	
846.29	3117.7	
846.46	5046.9	
846.63	4775.9	
846.8	2749.7	
846.97	3190.7	
847.14	5188.9	
847.31	4771.1	
847.48	3038.5	
847.65	3305.4	
847.82	4943.1	
847.99	4921.3	
848.16	3569.6	
848.33	3264.5	
848.5	4457.1	
848.67	5128.8	
848.84	2680.8	
849.01	2812.5	
849.18	4444.8	
849.35	4227.7	
849.52	3336.8	
849.69	2663	
849.86	4979.3	
850.03	4996.4	
850.2	2711.5	
850.37	3241.3	
850.54	5083.7	
850.71	4534.2	
850.88	3205.1	
851.05	2605.7	
851.22	4653	
851.39	5176.6	
851.56	2564.7	
851.73	3098.6	
851.9	4315.1	
852.07	4978.6	
852.24	3025.5	
852.41	2717.7	
852.58	4748.6	
852.75	4360.1	
852.92	2967.5	
853.09	2653.5	
853.26	4452.3	
853.43	5089.9	
853.6	2721.8	
853.77	2351.1	
853.94	5156.8	
854.11	4274.8	
854.28	3818.8	
854.44	2921.1	
854.61	5429.8	
854.78	4998.4	
854.95	2653.5	
855.12	3287.7	
855.29	4007.2	
855.46	5287.9	
855.63	2754.5	
855.8	3593.5	
855.97	4416.8	
856.14	5091.3	
856.31	3648.8	
856.48	2954.5	
856.65	4555.4	
856.82	4291.9	
856.99	2592.7	
857.16	2960.7	
857.33	5586.2	
857.49	4534.2	
857.66	2843.9	
857.83	3069.2	
858	4585.4	
858.17	4719.2	
858.34	2616.6	
858.51	2722.4	
858.68	5169.8	
858.85	5201.2	
859.02	3069.9	
859.19	3219.4	
859.36	4272.7	
859.52	4326.7	
859.69	2748.4	
859.86	3134.1	
860.03	4304.1	
860.2	5133.6	
860.37	2528.6	
860.54	2726.5	
860.71	4912.4	
860.88	5169.1	
861.05	3020.1	
861.21	3314.3	
861.38	5113.1	
861.55	4143	
861.72	2498.5	
861.89	3010.5	
862.06	4945.8	
862.23	5257.1	
862.4	2625.5	
862.56	2789.3	
862.73	4874.2	
862.9	4630.5	
863.07	3085.6	
863.24	2539.5	
863.41	4207.2	
863.58	4311	
863.75	2704	
863.91	3102.7	
864.08	5179.3	
864.25	4874.2	
864.42	3336.8	
864.59	3657	
864.76	5360.9	
864.93	4310.3	
865.09	2652.1	
865.26	2906.1	
865.43	5150.6	
865.6	5371.8	
865.77	2435	
865.94	2661	
866.1	5088.5	
866.27	4823.6	
866.44	3923.2	
866.61	2648	
866.78	4526.7	
866.95	4862.6	
867.11	2664.4	
867.28	2467.1	
867.45	5079	
867.62	4303.5	
867.79	3084.9	
867.96	2687.6	
868.12	4255	
868.29	4891.9	
868.46	2683.5	
868.63	3520.5	
868.8	5035.3	
868.97	4857.8	
869.13	2822.1	
869.3	2818	
869.47	4743.1	
869.64	5021.6	
869.81	2697.9	
869.97	2712.9	
870.14	4699.4	
870.31	5184.1	
870.48	2635.7	
870.65	3360	
870.81	4607.2	
870.98	4521.9	
871.15	3023.5	
871.32	2841.9	
871.48	4878.9	
871.65	5255.8	
871.82	2712.9	
871.99	2996.2	
872.16	5637.4	
872.32	5132.9	
872.49	2791.4	
872.66	2695.8	
872.83	4961.5	
872.99	4389.5	
873.16	3098.6	
873.33	2674.6	
873.5	4663.9	
873.67	4648.2	
873.83	2822.8	
874	3522.5	
874.17	4799.8	
874.34	5398.4	
874.5	3371.6	
874.67	3272	
874.84	5170.4	
875.01	4164.2	
875.17	3692.5	
875.34	2686.9	
875.51	4753.3	
875.68	5567.7	
875.84	3229.6	
876.01	3793.5	
876.18	4829.8	
876.34	4848.9	
876.51	2683.5	
876.68	2695.8	
876.85	4558.8	
877.01	5131.5	
877.18	3745.1	
877.35	2635.1	
877.52	4726	
877.68	4233.8	
877.85	2673.3	
878.02	2648.7	
878.18	4560.1	
878.35	4480.3	
878.52	2235	
878.69	3149.1	
878.85	5008.6	
879.02	4911.7	
879.19	3676.8	
879.35	2894.5	
879.52	4874.2	
879.69	5026.4	
879.86	2412.5	
880.02	2976.4	
880.19	4580.6	
880.36	5474.9	
880.52	3089	
880.69	3120.4	
880.86	4952.7	
881.02	4974.5	
881.19	2934.1	
881.36	2876	
881.52	4856.4	
881.69	4405.9	
881.86	2863.7	
882.02	2835.1	
882.19	5069.4	
882.36	5776.6	
882.52	2776.4	
882.69	3683.6	
882.86	4775.2	
883.02	4704.9	
883.19	3218.7	
883.36	2997.5	
883.52	4970.4	
883.69	5491.3	
883.86	2753.8	
884.02	2535.4	
884.19	4921.3	
884.36	4697.4	
884.52	3030.3	
884.69	2890.4	
884.86	4476.9	
885.02	5309	
885.19	2997.5	
885.36	3037.1	
885.52	4579.3	
885.69	4748.6	
885.86	3769.6	
886.02	3345	
886.19	4948.6	
886.35	4496	
886.52	2962.7	
886.69	3756	
886.85	4320.5	
887.02	5197.7	
887.19	5197.7	
887.35	5197.7	
887.52	5197.7	
887.68	5197.7	
887.85	5197.7	
888.02	5197.7	
888.18	5197.7	
888.35	5197.7	
888.51	5197.7	
888.68	5197.7	
888.85	5197.7	
889.01	5197.7	
889.18	5197.7	
889.35	5197.7	
889.51	5197.7	
889.68	5197.7	
889.84	5197.7	
890.01	5197.7	
890.17	5197.7	
890.34	5197.7	
890.51	5197.7	
890.67	5197.7	
890.84	5197.7	
891	5197.7	
891.17	5197.7	
891.34	5197.7	
891.5	5197.7	
891.67	5197.7	
891.83	5197.7	
892	5197.7	
892.16	5197.7	
892.33	5197.7	
892.5	5197.7	
892.66	5197.7	
892.83	5197.7	
892.99	5197.7	
893.16	5197.7	
893.32	5197.7	
893.49	5197.7	
893.65	5197.7	
893.82	5197.7	
893.99	5197.7	
894.15	5197.7	
894.32	5197.7	
894.48	5197.7	
894.65	5197.7	
894.81	5197.7	
894.98	5197.7	
895.14	5197.7	
895.31	5197.7	
895.47	5197.7	
895.64	5197.7	
895.81	5197.7	
895.97	5197.7	
896.14	5197.7	
896.3	5197.7	
896.47	5197.7	
896.63	5197.7	
896.8	5197.7	
896.96	5197.7	
897.13	5197.7	
897.29	5197.7	
897.46	5197.7	
897.62	5197.7	
897.79	5197.7	
897.95	5197.7	
898.12	5197.7	
898.28	5197.7	
898.45	5197.7	
898.61	5197.7	
898.78	5197.7	
898.94	5197.7	
899.11	5197.7	
899.27	5197.7	
899.44	5197.7	
899.6	5197.7	
899.77	5197.7	
899.93	5197.7	
900.1	5197.7	
900.26	5197.7	
900.43	5197.7	
900.59	5197.7	
900.76	5197.7	
900.92	5197.7	
901.09	5197.7	
901.25	5197.7	
901.42	5197.7	
901.58	5197.7	
901.75	5197.7	
901.91	5197.7	
902.07	5197.7	
902.24	5197.7	
902.4	5197.7	
902.57	5197.7	
902.73	5197.7	
902.9	5197.7	
903.06	5197.7	
903.23	5197.7	
903.39	5197.7	
903.56	5197.7	
903.72	5197.7	
903.88	5197.7	
904.05	5197.7	
904.21	5197.7	
904.38	5197.7	
904.54	5197.7	
904.71	5197.7	
904.87	5197.7	
905.03	5197.7	
905.2	5197.7	
905.36	5197.7	
905.53	5197.7	
905.69	5197.7	
905.86	5197.7	
906.02	5197.7	
906.18	5197.7	
906.35	5197.7	
906.51	5197.7	
906.68	5197.7	
906.84	5197.7	
907.01	5197.7	
907.17	5197.7	
907.33	5197.7	
907.5	5197.7	
907.66	5197.7	
907.83	5197.7	
907.99	5197.7	
908.15	5197.7	
908.32	5197.7	
908.48	5197.7	
908.65	5197.7	
908.81	5197.7	
908.97	5197.7	
909.14	5197.7	
909.3	5197.7	
909.47	5197.7	
909.63	5197.7	
909.79	5197.7	
909.96	5197.7	
910.12	5197.7	
910.28	5197.7	
910.45	5197.7	
910.61	5197.7	
910.78	5197.7	
910.94	5197.7	
911.1	5197.7	
911.27	5197.7	
911.43	5197.7	
911.59	5197.7	
911.76	5197.7	
911.92	5197.7	
912.08	5197.7	
912.25	5197.7	
912.41	5197.7	
912.57	5197.7	
912.74	5197.7	
912.9	5197.7	
913.07	5197.7	
913.23	5197.7	
913.39	5197.7	
913.56	5197.7	
913.72	5197.7	
913.88	5197.7	
914.05	5197.7	
914.21	5197.7	
914.37	5197.7	
914.54	5197.7	
914.7	5197.7	
914.86	5197.7	
915.03	5197.7	
915.19	5197.7	
