Wavelength	Intensities	
nm	a.u.	
179.22	1534.8	
179.44	1513.8	
179.65	1555.8	
179.86	1471.8	
180.08	1518.9	
180.29	3259.7	
180.51	2566.8	
180.72	4450.2	
180.94	4792.9	
181.15	2346.3	
181.37	2316.9	
181.58	4231.8	
181.79	4367.6	
182.01	2446	
182.22	2523.1	
182.44	4468.7	
182.65	3927.3	
182.87	2938.2	
183.08	2697.9	
183.29	4662.5	
183.51	3925.3	
183.72	2438.4	
183.94	3277.4	
184.15	4249.5	
184.37	4105.5	
184.58	2296.5	
184.79	2725.2	
185.01	4029.7	
185.22	4502.1	
185.44	2952.5	
185.65	2570.9	
185.86	4300.7	
186.08	3934.8	
186.29	2265.1	
186.51	2361.3	
186.72	4059.1	
186.94	4521.2	
187.15	2679.4	
187.36	2689.7	
187.58	5397.1	
187.79	4292.5	
188.01	2712.2	
188.22	3984	
188.43	4853	
188.65	4410	
188.86	2422.7	
189.08	2718.3	
189.29	4113	
189.5	4061.8	
189.72	2477.4	
189.93	2598.9	
190.15	4491.2	
190.36	5028.4	
190.57	2721.1	
190.79	2639.1	
191	4433.2	
191.22	4504.8	
191.43	2712.2	
191.64	2421.4	
191.86	4657.8	
192.07	4505.5	
192.29	2439.1	
192.5	2507.4	
192.71	4545.1	
192.93	4113	
193.14	2461.7	
193.35	2577	
193.57	4060.4	
193.78	4546.5	
194	2134	
194.21	2432.3	
194.42	3908.9	
194.64	4186.7	
194.85	2650.1	
195.07	3023.5	
195.28	4203.8	
195.49	3856.3	
195.71	3138.9	
195.92	2380.4	
196.13	4344.4	
196.35	4328.7	
196.56	3249.4	
196.78	2690.3	
196.99	5089.9	
197.2	4767.7	
197.42	2872.6	
197.63	2656.2	
197.84	3903.4	
198.06	4343.7	
198.27	2527.9	
198.48	3122.5	
198.7	4087.7	
198.91	4278.2	
199.13	2736.8	
199.34	2684.2	
199.55	4588.1	
199.77	3706.1	
199.98	2487.6	
200.19	2687.6	
200.41	4278.2	
200.62	3997.6	
200.83	2749.1	
201.05	2970.9	
201.26	4216.8	
201.47	4042.7	
201.69	2452.8	
201.9	2375.6	
202.11	4287.8	
202.33	4745.1	
202.54	2523.8	
202.76	2828.2	
202.97	4166.3	
203.18	4330.1	
203.4	2764.1	
203.61	2854.9	
203.82	4227.7	
204.04	3994.9	
204.25	2736.8	
204.46	2656.9	
204.68	4227	
204.89	4306.2	
205.1	2623.4	
205.32	2360.6	
205.53	4371.7	
205.74	4541.7	
205.96	2157.2	
206.17	2725.8	
206.38	4369.7	
206.6	4511	
206.81	2940.9	
207.02	2532.7	
207.24	4368.3	
207.45	4541	
207.66	2614.6	
207.88	2339.5	
208.09	4292.5	
208.3	4200.4	
208.52	2437.8	
208.73	2641.2	
208.94	4213.4	
209.15	4557.4	
209.37	2605.7	
209.58	2649.4	
209.79	4554	
210.01	4117.1	
210.22	2203.6	
210.43	2344.9	
210.65	4172.4	
210.86	4399.7	
211.07	2587.3	
211.29	2398.2	
211.5	4309.6	
211.71	4192.9	
211.93	2499.2	
212.14	2442.5	
212.35	4244.8	
212.56	4176.5	
212.78	2698.5	
212.99	2265.7	
213.2	4684.4	
213.42	4184.7	
213.63	2534.7	
213.84	2542.2	
214.06	3898	
214.27	3901.4	
214.48	2575	
214.69	2735.4	
214.91	4559.5	
215.12	4573.1	
215.33	2706.7	
215.55	2859	
215.76	4853.7	
215.97	4371	
216.18	2663.7	
216.4	2681.5	
216.61	4024.3	
216.82	4468.7	
217.04	2465.8	
217.25	2546.3	
217.46	4552.6	
217.67	4413.4	
217.89	2305.3	
218.1	2291.7	
218.31	4205.8	
218.53	4369.7	
218.74	2601.6	
218.95	2467.8	
219.16	4173.1	
219.38	4693.9	
219.59	2541.5	
219.8	2813.9	
220.01	4953.4	
220.23	4205.8	
220.44	2957.9	
220.65	2439.8	
220.87	4296.6	
221.08	4554.7	
221.29	2430.9	
221.5	2832.3	
221.72	5171.8	
221.93	3969.6	
222.14	2657.6	
222.35	3061	
222.57	4227.7	
222.78	4495.3	
222.99	2626.2	
223.2	2742.2	
223.42	4358.1	
223.63	4415.4	
223.84	2116.9	
224.05	2169.5	
224.27	4844.8	
224.48	4672.1	
224.69	3080.8	
224.9	2671.9	
225.12	4300.1	
225.33	4156	
225.54	2234.3	
225.75	2492.4	
225.97	4014.7	
226.18	4213.4	
226.39	2572.2	
226.6	2490.3	
226.82	4120.5	
227.03	3935.5	
227.24	2682.2	
227.45	2332.6	
227.67	4526	
227.88	4565.6	
228.09	2978.4	
228.3	2930.6	
228.52	4404.5	
228.73	4192.9	
228.94	2534	
229.15	2359.3	
229.36	4204.5	
229.58	4259.1	
229.79	2677.4	
230	2888.3	
230.21	4832.5	
230.43	4227.7	
230.64	2633	
230.85	2715.6	
231.06	4450.2	
231.28	4491.2	
231.49	2314.9	
231.7	2672.6	
231.91	4400.4	
232.12	4164.2	
232.34	2418	
232.55	2563.4	
232.76	4536.9	
232.97	4173.8	
233.18	2439.1	
233.4	2725.8	
233.61	4218.1	
233.82	4052.9	
234.03	2560.6	
234.25	2563.4	
234.46	5349.3	
234.67	4210.6	
234.88	2747	
235.09	2446.6	
235.31	4203.1	
235.52	4096.6	
235.73	2653.5	
235.94	2357.9	
236.15	4062.5	
236.37	4782.7	
236.58	2451.4	
236.79	2566.8	
237	4343.1	
237.21	3912.3	
237.43	2741.5	
237.64	2304	
237.85	6256.5	
238.06	4011.3	
238.27	2767.5	
238.48	2350.4	
238.7	4388.8	
238.91	4110.3	
239.12	2542.9	
239.33	2716.3	
239.54	3975.1	
239.76	4127.3	
239.97	2596.8	
240.18	2626.2	
240.39	4795.7	
240.6	4243.4	
240.82	2705.4	
241.03	2363.4	
241.24	4171	
241.45	4627.7	
241.66	2396.8	
241.87	2760.7	
242.09	4668.7	
242.3	4702.8	
242.51	2794.1	
242.72	2577.7	
242.93	4392.2	
243.14	4151.2	
243.36	2941.6	
243.57	3049.4	
243.78	4678.9	
243.99	4388.8	
244.2	2581.1	
244.41	2369.5	
244.63	3934.8	
244.84	4296	
245.05	2722.4	
245.26	2546.3	
245.47	4336.2	
245.68	4414.7	
245.9	3190.7	
246.11	2729.3	
246.32	3988.8	
246.53	4375.1	
246.74	3794.9	
246.95	2309.4	
247.16	4077.5	
247.38	4218.8	
247.59	2394.8	
247.8	2669.2	
248.01	3863.2	
248.22	4234.5	
248.43	2450.7	
248.64	2590	
248.86	3948.5	
249.07	4093.9	
249.28	2420	
249.49	2686.9	
249.7	4375.1	
249.91	4433.9	
250.12	2304	
250.34	2338.8	
250.55	4300.7	
250.76	4218.1	
250.97	2649.4	
251.18	2697.9	
251.39	4459.8	
251.6	4296.6	
251.81	2701.3	
252.03	2712.9	
252.24	4090.5	
252.45	4366.3	
252.66	2370.2	
252.87	2740.2	
253.08	4194.2	
253.29	5043.5	
253.5	2395.4	
253.72	3044	
253.93	4171	
254.14	4694.6	
254.35	2507.4	
254.56	2525.8	
254.77	4271.4	
254.98	4009.9	
255.19	2513.5	
255.41	3062.4	
255.62	4330.8	
255.83	4460.5	
256.04	2749.1	
256.25	2639.1	
256.46	4831.8	
256.67	4011.3	
256.88	2687.6	
257.09	2852.1	
257.31	3921.9	
257.52	4050.9	
257.73	3227.6	
257.94	2525.8	
258.15	4209.9	
258.36	4188.1	
258.57	2980.5	
258.78	2112.1	
258.99	4500.8	
259.2	4093.9	
259.41	2480.1	
259.63	2644.6	
259.84	4668.7	
260.05	4778.6	
260.26	3082.9	
260.47	2461.7	
260.68	4548.5	
260.89	4130.1	
261.1	2852.8	
261.31	2495.8	
261.52	4622.3	
261.73	4681.7	
261.95	3095.8	
262.16	2726.5	
262.37	4513	
262.58	4614.8	
262.79	3049.4	
263	2507.4	
263.21	4203.1	
263.42	3998.3	
263.63	2740.9	
263.84	2520.4	
264.05	4483	
264.26	4647.5	
264.47	2964.8	
264.69	2694.4	
264.9	4644.8	
265.11	4236.6	
265.32	2436.4	
265.53	2458.9	
265.74	4227.7	
265.95	3842	
266.16	2610.5	
266.37	2805	
266.58	4276.8	
266.79	4076.1	
267	2521	
267.21	2359.9	
267.42	3923.2	
267.63	4199	
267.84	2560	
268.06	2358.6	
268.27	4440.7	
268.48	4534.2	
268.69	2572.2	
268.9	2865.1	
269.11	4428.4	
269.32	3840.6	
269.53	2620.7	
269.74	2447.3	
269.95	4276.2	
270.16	3867.9	
270.37	2643.9	
270.58	2916.3	
270.79	4137.6	
271	4474.8	
271.21	2712.9	
271.42	2678.7	
271.63	4397	
271.84	3864.5	
272.05	2207.7	
272.26	2411.1	
272.47	4231.1	
272.68	4240.7	
272.89	2549.7	
273.11	2770.2	
273.32	4021.5	
273.53	4698	
273.74	2763.4	
273.95	2705.4	
274.16	4336.2	
274.37	4179.2	
274.58	2798.2	
274.79	2355.2	
275	4334.2	
275.21	4446.8	
275.42	3191.4	
275.63	2839.2	
275.84	4409.3	
276.05	5056.4	
276.26	2731.3	
276.47	2562	
276.68	4213.4	
276.89	4786.8	
277.1	2796.8	
277.31	2316.3	
277.52	4300.1	
277.73	4657.8	
277.94	2328.5	
278.15	2512.9	
278.36	4315.1	
278.57	3991.5	
278.78	2482.1	
278.99	2784.6	
279.2	4080.2	
279.41	3972.4	
279.62	3115	
279.83	2378.4	
280.04	4896.7	
280.25	3944.4	
280.46	3086.3	
280.67	2615.3	
280.88	4065.9	
281.09	4486.4	
281.3	2734.7	
281.51	3207.8	
281.72	4409.3	
281.93	4416.8	
282.14	2506	
282.35	2701.3	
282.56	4521.2	
282.77	4388.8	
282.98	2611.8	
283.19	2908.1	
283.4	5157.5	
283.61	4145.1	
283.82	2429.6	
284.03	3051.5	
284.24	4377.2	
284.45	4413.4	
284.66	3134.1	
284.87	2946.3	
285.08	4553.3	
285.29	4606.6	
285.5	2351.8	
285.71	2567.5	
285.92	4474.1	
286.12	4881.7	
286.33	3106.8	
286.54	2609.8	
286.75	4451.6	
286.96	4117.8	
287.17	2455.5	
287.38	3027.6	
287.59	4112.3	
287.8	4138.3	
288.01	2564.7	
288.22	2829.6	
288.43	4281.6	
288.64	3821.5	
288.85	2954.5	
289.06	2818.7	
289.27	4471.4	
289.48	4556	
289.69	3123.8	
289.9	2902	
290.11	4585.4	
290.32	4123.9	
290.53	2953.9	
290.74	2796.2	
290.94	4421.6	
291.15	4462.5	
291.36	2493.1	
291.57	2761.3	
291.78	4154	
291.99	3827.7	
292.2	2491.7	
292.41	2745.6	
292.62	4527.4	
292.83	4363.5	
293.04	3248.8	
293.25	2549	
293.46	4167.6	
293.67	4461.2	
293.88	2430.3	
294.09	2440.5	
294.29	3995.6	
294.5	4272.7	
294.71	2599.6	
294.92	2497.8	
295.13	4112.3	
295.34	4842.8	
295.55	2332	
295.76	2297.1	
295.97	4457.7	
296.18	4780	
296.39	2372.2	
296.6	2491	
296.81	4212.7	
297.01	4446.1	
297.22	2621.4	
297.43	2519	
297.64	4141	
297.85	3992.2	
298.06	2205	
298.27	2301.9	
298.48	4158.1	
298.69	3997	
298.9	2734.7	
299.11	2469.9	
299.31	4030.4	
299.52	3991.5	
299.73	2819.4	
299.94	2742.2	
300.15	4220.2	
300.36	4068.6	
300.57	2727.9	
300.78	2727.2	
300.99	4117.1	
301.2	4247.5	
301.4	2563.4	
301.61	2557.2	
301.82	4351.3	
302.03	4387.4	
302.24	2812.5	
302.45	2396.8	
302.66	4386.7	
302.87	4470	
303.08	2512.2	
303.29	3152.5	
303.49	4143	
303.7	4075.5	
303.91	2357.9	
304.12	3062.4	
304.33	3869.3	
304.54	4291.9	
304.75	2550.4	
304.96	2496.5	
305.16	4371.7	
305.37	4668	
305.58	2291.7	
305.79	2278	
306	4388.1	
306.21	3845.4	
306.42	2520.4	
306.63	3415.3	
306.83	4075.5	
307.04	4319.8	
307.25	2715.6	
307.46	2579.1	
307.67	3847.5	
307.88	4361.5	
308.09	2554.5	
308.29	2481.5	
308.5	4268	
308.71	4420.9	
308.92	2553.1	
309.13	2441.9	
309.34	4277.5	
309.55	4117.1	
309.75	2948.4	
309.96	2717	
310.17	4425	
310.38	3987.4	
310.59	2787.3	
310.8	2711.5	
311.01	4224.3	
311.21	4166.9	
311.42	2493.7	
311.63	2456.2	
311.84	4095.3	
312.05	4235.9	
312.26	2766.8	
312.46	2870.6	
312.67	4128	
312.88	3915.7	
313.09	2430.9	
313.3	2460.3	
313.51	4588.1	
313.71	4797	
313.92	2427.5	
314.13	2532	
314.34	4359.4	
314.55	4180.6	
314.76	2935.4	
314.96	2661.7	
315.17	4391.5	
315.38	4245.4	
315.59	2476	
315.8	2345.6	
316.01	4547.9	
316.21	4684.4	
316.42	2440.5	
316.63	2650.8	
316.84	4106.9	
317.05	4533.5	
317.26	2794.1	
317.46	2580.4	
317.67	4148.5	
317.88	4421.6	
318.09	2949.1	
318.3	2364	
318.5	4171	
318.71	4274.1	
318.92	3519.8	
319.13	2819.4	
319.34	4493.9	
319.54	4491.2	
319.75	2339.5	
319.96	2266.4	
320.17	4336.9	
320.38	4443.4	
320.58	2293	
320.79	2575.7	
321	4539	
321.21	4537.6	
321.42	2652.8	
321.62	2308.1	
321.83	4052.2	
322.04	4174.4	
322.25	2614.6	
322.46	2459.6	
322.66	4274.8	
322.87	4442	
323.08	2822.8	
323.29	2392	
323.5	4772.4	
323.7	3923.9	
323.91	3089	
324.12	2813.9	
324.33	4334.9	
324.53	4365.6	
324.74	2734.7	
324.95	2777	
325.16	3988.8	
325.37	4106.9	
325.57	2437.1	
325.78	2445.3	
325.99	4334.9	
326.2	3897.3	
326.4	3178.4	
326.61	2333.3	
326.82	4186.7	
327.03	4241.3	
327.24	3194.1	
327.44	3024.8	
327.65	4365.6	
327.86	3796.3	
328.07	2764.8	
328.27	2402.9	
328.48	4627.7	
328.69	3970.3	
328.9	3236.5	
329.1	2505.3	
329.31	4206.5	
329.52	4555.4	
329.73	2481.5	
329.93	2665.1	
330.14	4368.3	
330.35	4263.9	
330.56	3576.4	
330.76	2891	
330.97	4138.3	
331.18	4148.5	
331.39	2667.8	
331.59	2271.2	
331.8	4549.2	
332.01	4610	
332.22	2492.4	
332.42	2716.3	
332.63	4273.4	
332.84	3920.5	
333.05	2654.9	
333.25	2450.7	
333.46	4002.4	
333.67	4202.4	
333.88	2593.4	
334.08	2691.7	
334.29	5176.6	
334.5	4478.2	
334.7	2437.1	
334.91	3160.7	
335.12	3920.5	
335.33	4328	
335.53	2688.3	
335.74	3527.3	
335.95	4163.5	
336.16	3860.4	
336.36	2686.3	
336.57	2917	
336.78	3793.5	
336.98	4463.9	
337.19	3110.9	
337.4	2604.3	
337.61	4842.8	
337.81	3882.3	
338.02	2525.1	
338.23	2979.8	
338.43	4702.8	
338.64	4011.3	
338.85	2475.3	
339.05	3059.7	
339.26	4740.4	
339.47	3906.8	
339.68	2468.5	
339.88	3291.1	
340.09	4443.4	
340.3	4518.5	
340.5	2692.4	
340.71	2251.4	
340.92	3972.4	
341.13	4521.2	
341.33	2336.7	
341.54	2779.1	
341.75	4399.7	
341.95	4048.8	
342.16	2676.7	
342.37	2847.4	
342.57	3934.1	
342.78	4101.4	
342.99	2858.3	
343.19	2344.2	
343.4	4422.2	
343.61	4435.2	
343.81	2605	
344.02	2354.5	
344.23	4468.7	
344.43	4589.5	
344.64	2906.8	
344.85	2836.4	
345.06	4375.1	
345.26	4592.2	
345.47	2812.5	
345.68	3123.8	
345.88	3924.6	
346.09	4504.8	
346.3	2815.3	
346.5	2224.8	
346.71	4142.4	
346.92	4113.7	
347.12	2396.8	
347.33	2742.2	
347.54	4457.1	
347.74	4647.5	
347.95	2705.4	
348.16	2213.2	
348.36	4095.3	
348.57	3995.6	
348.78	2848.7	
348.98	2880.8	
349.19	4186	
349.39	3842.7	
349.6	2400.2	
349.81	2513.5	
350.01	4450.2	
350.22	4036.5	
350.43	2786.6	
350.63	3138.2	
350.84	4169	
351.05	4089.8	
351.25	2487.6	
351.46	2342.9	
351.67	4460.5	
351.87	4024.9	
352.08	2632.3	
352.29	2917.7	
352.49	4468.7	
352.7	4472.8	
352.9	2451.4	
353.11	2919.7	
353.32	4795.7	
353.52	4173.1	
353.73	2448.7	
353.94	2998.9	
354.14	4446.8	
354.35	4141	
354.55	2570.9	
354.76	2781.8	
354.97	4431.8	
355.17	4206.5	
355.38	2507.4	
355.59	3083.6	
355.79	4085.7	
356	4197	
356.2	2753.8	
356.41	2525.1	
356.62	4019.5	
356.82	4254.3	
357.03	2972.3	
357.24	2662.4	
357.44	4072.7	
357.65	4230.4	
357.85	3368.9	
358.06	2824.1	
358.27	4022.2	
358.47	4132.1	
358.68	2521.7	
358.88	2955.9	
359.09	4555.4	
359.3	4614.1	
359.5	3327.3	
359.71	3022.1	
359.91	4856.4	
360.12	4436.6	
360.33	3054.2	
360.53	3282.2	
360.74	4267.3	
360.94	4237.9	
361.15	3172.3	
361.36	2736.1	
361.56	4747.9	
361.77	4416.1	
361.97	3420.8	
362.18	2925.2	
362.38	4758.1	
362.59	4173.1	
362.8	2738.8	
363	2613.2	
363.21	4155.3	
363.41	4430.4	
363.62	3050.1	
363.83	3439.9	
364.03	4635.2	
364.24	4994.3	
364.44	3715.7	
364.65	3534.8	
364.85	4394.9	
365.06	4262.5	
365.27	2863.1	
365.47	2927.9	
365.68	4943.1	
365.88	4443.4	
366.09	3097.9	
366.29	2895.1	
366.5	4571.7	
366.71	4790.9	
366.91	3635.1	
367.12	3261	
367.32	5216.2	
367.53	4771.1	
367.73	3320.4	
367.94	3773.7	
368.14	4807.3	
368.35	4982.7	
368.56	3217.4	
368.76	2850.8	
368.97	4782.7	
369.17	5579.3	
369.38	2902.7	
369.58	3095.8	
369.79	4154.6	
369.99	4947.9	
370.2	3763.5	
370.4	3136.8	
370.61	4607.2	
370.82	5358.9	
371.02	3138.2	
371.23	2745	
371.43	4289.8	
371.64	5030.5	
371.84	3240.6	
372.05	3789.4	
372.25	5706.3	
372.46	4776.5	
372.66	3326.6	
372.87	3294.5	
373.07	4850.3	
373.28	5868.1	
373.48	3745.1	
373.69	3574.4	
373.9	4762.9	
374.1	4710.3	
374.31	3823.6	
374.51	3523.2	
374.72	5236	
374.92	4590.9	
375.13	3968.3	
375.33	3545.7	
375.54	5021.6	
375.74	4742.4	
375.95	3696.6	
376.15	4248.9	
376.36	5150	
376.56	5041.4	
376.77	3749.1	
376.97	3874.1	
377.18	5868.8	
377.38	5255.1	
377.59	4080.9	
377.79	3564.1	
378	5156.8	
378.2	5379.3	
378.41	3624.2	
378.61	3508.2	
378.82	5487.2	
379.02	5061.2	
379.23	3738.9	
379.43	4268.6	
379.64	5630.5	
379.84	5251	
380.05	3556	
380.25	3506.8	
380.46	5355.4	
380.66	5021.6	
380.87	4272.7	
381.07	4474.1	
381.28	5687.9	
381.48	5261.9	
381.69	3519.8	
381.89	3571	
382.1	4694.6	
382.3	5270.1	
382.51	4190.8	
382.71	4556	
382.91	5093.3	
383.12	5489.2	
383.32	3763.5	
383.53	3801.7	
383.73	5139.7	
383.94	5074.2	
384.14	3757.3	
384.35	3261.7	
384.55	4836.6	
384.76	5158.2	
384.96	3708.9	
385.17	3817.4	
385.37	5199.8	
385.58	4689.2	
385.78	3774.4	
385.98	3187.3	
386.19	4845.5	
386.39	5128.8	
386.6	3507.5	
386.8	3666.5	
387.01	5205.9	
387.21	5273.5	
387.42	3938.2	
387.62	4231.1	
387.83	4937	
388.03	5023.7	
388.23	3911.6	
388.44	4288.4	
388.64	4773.1	
388.85	4879.6	
389.05	4048.8	
389.26	4366.3	
389.46	6132.3	
389.67	5739.1	
389.87	4146.5	
390.07	4059.1	
390.28	5213.4	
390.48	4936.3	
390.69	3659.7	
390.89	3907.5	
391.1	5119.2	
391.3	5554.1	
391.5	4528.1	
391.71	4801.1	
391.91	5531.6	
392.12	5915.2	
392.32	4543.1	
392.53	4102.8	
392.73	5223.7	
392.93	5235.3	
393.14	3981.9	
393.34	4319.2	
393.55	5459.2	
393.75	5113.1	
393.95	3830.4	
394.16	3761.4	
394.36	5109	
394.57	5379.3	
394.77	3651.5	
394.98	3791.5	
395.18	5044.1	
395.38	5087.8	
395.59	4410.6	
395.79	3900	
396	5400.5	
396.2	5609.4	
396.4	4507.6	
396.61	4411.3	
396.81	5649	
397.02	5367.7	
397.22	4573.8	
397.42	4674.1	
397.63	5939.1	
397.83	5418.9	
398.04	3988.8	
398.24	4455.7	
398.44	5681.1	
398.65	5109	
398.85	3971	
399.05	4067.9	
399.26	5540.4	
399.46	6341.2	
399.67	4308.2	
399.87	4173.1	
400.07	5681.7	
400.28	5863.3	
400.48	4286.4	
400.69	4900.8	
400.89	6352.1	
401.09	6336.4	
401.3	4377.2	
401.5	4878.3	
401.7	6479.8	
401.91	6622.4	
402.11	4594.3	
402.32	4603.8	
402.52	6124.1	
402.72	6019	
402.93	4777.2	
403.13	3962.8	
403.33	6410.8	
403.54	5414.1	
403.74	4273.4	
403.94	4627	
404.15	5457.2	
404.35	6192.4	
404.56	4142.4	
404.76	5041.4	
404.96	5896.8	
405.17	5780.7	
405.37	4709	
405.57	4655.7	
405.78	6118.6	
405.98	5685.8	
406.18	4412.7	
406.39	4840	
406.59	5958.2	
406.79	5659.9	
407	4141	
407.2	4112.3	
407.4	6137.8	
407.61	6004.6	
407.81	4225	
408.01	5446.9	
408.22	5443.5	
408.42	6640.9	
408.62	5234.6	
408.83	5029.1	
409.03	6252.4	
409.23	6311.8	
409.44	5213.4	
409.64	5345.2	
409.84	7040.9	
410.05	7116.7	
410.25	5470.1	
410.45	5322.7	
410.66	6966.5	
410.86	8185.7	
411.06	5874.3	
411.27	5638.7	
411.47	8212.4	
411.67	7116.7	
411.88	5754.8	
412.08	6114.6	
412.28	7453.2	
412.49	7750.2	
412.69	6000.5	
412.89	5960.3	
413.09	7740	
413.3	7686.7	
413.5	6076.3	
413.7	5879.7	
413.91	7218.4	
414.11	7764.5	
414.31	6032.6	
414.52	6330.3	
414.72	7664.9	
414.92	7649.2	
415.12	5983.5	
415.33	6326.2	
415.53	7911.3	
415.73	8015.1	
415.94	6453.8	
416.14	6139.8	
416.34	7557.7	
416.55	7167.9	
416.75	6785.6	
416.95	6560.3	
417.15	8159.8	
417.36	8215.1	
417.56	7199.3	
417.76	6543.9	
417.97	8198	
418.17	8093.6	
418.37	6448.4	
418.57	6451.8	
418.78	8140	
418.98	7769.3	
419.18	6948.8	
419.38	6748.1	
419.59	7788.4	
419.79	7490.8	
419.99	6212.9	
420.2	6372.6	
420.4	7996.6	
420.6	7996.6	
420.8	6195.1	
421.01	6126.8	
421.21	8050.6	
421.41	7958.4	
421.61	6411.5	
421.82	6306.4	
422.02	7793.2	
422.22	8241.7	
422.42	6710.5	
422.63	6355.5	
422.83	7732.4	
423.03	8393.3	
423.23	6360.3	
423.44	5896.8	
423.64	7557	
423.84	7349.5	
424.04	6133.7	
424.25	5913.2	
424.45	8021.2	
424.65	7971.4	
424.85	5752.1	
425.06	6032	
425.26	8162.5	
425.46	7531.1	
425.66	6279.1	
425.87	6107.7	
426.07	7803.4	
426.27	7670.3	
426.47	6187.6	
426.67	5842.9	
426.88	8009.6	
427.08	7638.9	
427.28	6389	
427.48	5723.4	
427.69	7131.7	
427.89	7335.1	
428.09	6182.8	
428.29	5697.4	
428.5	7677.2	
428.7	7474.4	
428.9	5763	
429.1	5866.7	
429.3	7522.9	
429.51	7661.5	
429.71	5892	
429.91	6418.3	
430.11	7893.6	
430.31	8138.6	
430.52	6122.1	
430.72	6310.5	
430.92	8211	
431.12	7773.4	
431.32	5984.8	
431.53	6175.3	
431.73	7340.6	
431.93	8000.7	
432.13	5882.4	
432.33	5887.9	
432.54	7559.7	
432.74	7628	
432.94	5949.3	
433.14	6419.7	
433.34	7995.3	
433.55	7841	
433.75	6467.5	
433.95	7487.4	
434.15	8039.6	
434.35	7729	
434.56	6036	
434.76	5923.4	
434.96	7759.1	
435.16	8148.2	
435.36	6021	
435.56	6895.5	
435.77	7818.5	
435.97	7888.8	
436.17	7096.9	
436.37	6679.8	
436.57	7637.6	
436.78	7815.7	
436.98	6640.2	
437.18	7032	
437.38	8129.1	
437.58	7785	
437.78	7116	
437.99	6297.5	
438.19	8076.5	
438.39	8794.7	
438.59	6311.2	
438.79	5829.2	
438.99	8288.1	
439.2	7612.3	
439.4	5816.9	
439.6	5920	
439.8	7776.1	
440	8444.5	
440.2	6763.1	
440.4	6822.5	
440.61	8530.5	
440.81	8597.4	
441.01	6508.4	
441.21	6990.4	
441.41	8826.1	
441.61	8468.4	
441.81	7148.1	
442.02	7624.6	
442.22	8931.2	
442.42	8520.9	
442.62	6482.5	
442.82	6551.5	
443.02	8826.1	
443.22	8340	
443.43	6863.4	
443.63	6580.8	
443.83	8238.3	
444.03	8086.1	
444.23	7358.4	
444.43	7083.9	
444.63	8634.9	
444.83	9067.7	
445.04	6868.9	
445.24	7380.2	
445.44	8606.2	
445.64	8621.3	
445.84	6905.1	
446.04	7007.5	
446.24	8112	
446.44	8647.2	
446.65	6423.8	
446.85	6651.8	
447.05	8083.3	
447.25	8441.7	
447.45	6760.3	
447.65	6384.2	
447.85	8303.8	
448.05	7782.3	
448.25	6909.2	
448.46	6796.5	
448.66	8217.1	
448.86	8018.5	
449.06	6399.9	
449.26	6879.8	
449.46	8419.2	
449.66	7874.4	
449.86	6791.7	
450.06	6692.1	
450.26	8086.7	
450.47	8473.1	
450.67	6771.3	
450.87	6977.4	
451.07	8564.6	
451.27	8321.6	
451.47	6464.8	
451.67	6999.3	
451.87	8166.6	
452.07	8698.4	
452.27	6670.9	
452.47	6591	
452.67	8346.2	
452.88	8391.9	
453.08	6203.3	
453.28	7355.6	
453.48	9020.6	
453.68	8078.6	
453.88	6601.3	
454.08	6645	
454.28	8581	
454.48	8314.1	
454.68	7004.1	
454.88	7197.9	
455.08	8721.6	
455.28	8557.1	
455.48	6475	
455.68	7121.5	
455.89	8944.2	
456.09	8860.9	
456.29	6823.8	
456.49	7081.9	
456.69	9116.2	
456.89	8410.3	
457.09	7243.7	
457.29	7494.9	
457.49	8786.5	
457.69	8946.2	
457.89	7361.8	
458.09	6925.5	
458.29	8815.8	
458.49	9280.7	
458.69	7590.5	
458.89	7307.2	
459.09	9457.5	
459.29	9319.6	
459.49	7210.9	
459.69	7705.1	
459.9	9013.1	
460.1	9026.8	
460.3	7131	
460.5	7028.6	
460.7	9067.7	
460.9	8783.7	
461.1	6960.4	
461.3	7706.5	
461.5	9517.6	
461.7	9319.6	
461.9	7487.4	
462.1	7570	
462.3	9245.2	
462.5	9445.9	
462.7	7529.7	
462.9	7621.9	
463.1	10116	
463.3	9962.7	
463.5	7718.8	
463.7	8391.9	
463.9	9535.3	
464.1	9720.3	
464.3	8085.4	
464.5	7938.6	
464.7	9837.8	
464.9	9869.2	
465.1	8773.5	
465.3	8328.4	
465.5	10008	
465.7	10084	
465.9	8488.1	
466.1	8131.1	
466.3	10081	
466.5	9826.8	
466.7	8935.3	
466.9	8151.6	
467.1	10194	
467.3	10443	
467.5	9067	
467.7	8405.5	
467.9	10693	
468.1	11069	
468.3	8628.1	
468.5	9038.4	
468.7	10060	
468.9	10009	
469.1	8583	
469.3	9015.8	
469.5	11169	
469.7	10004	
469.9	8717.5	
470.1	8492.9	
470.3	10277	
470.5	10231	
470.7	9123.7	
470.9	8428.1	
471.1	9947.7	
471.3	9979.1	
471.5	8361.2	
471.69	9314.2	
471.89	9863	
472.09	9527.8	
472.29	8705.9	
472.49	8641.1	
472.69	9684.8	
472.89	9991.4	
473.09	8344.8	
473.29	8158.4	
473.49	9695.8	
473.69	9583.8	
473.89	8515.5	
474.09	8141.4	
474.29	10324	
474.49	10012	
474.69	8600.1	
474.89	8209.6	
475.09	9704	
475.29	9508.7	
475.49	7853.3	
475.69	8036.9	
475.88	10281	
476.08	9745.6	
476.28	7746.1	
476.48	7862.8	
476.68	9999.5	
476.88	9683.5	
477.08	7867.6	
477.28	7978.9	
477.48	9411.1	
477.68	9585.2	
477.88	7737.2	
478.08	7825.3	
478.28	10038	
478.48	9417.9	
478.67	7924.3	
478.87	7492.2	
479.07	9820.7	
479.27	9515.5	
479.47	7884.7	
479.67	7983.7	
479.87	9740.8	
480.07	9969.5	
480.27	7606.2	
480.47	8259.5	
480.67	9370.8	
480.87	9943.6	
481.06	7718.1	
481.26	8171.4	
481.46	9559.2	
481.66	9421.3	
481.86	7977.5	
482.06	8354.3	
482.26	9271.8	
482.46	9625.5	
482.66	7872.4	
482.86	7716.1	
483.05	9626.8	
483.25	9147.6	
483.45	9206.3	
483.65	7907.2	
483.85	9094.3	
484.05	9396.8	
484.25	8262.9	
484.45	8342.1	
484.65	9651.4	
484.84	10032	
485.04	7872.4	
485.24	7856.7	
485.44	10205	
485.64	9223.4	
485.84	7766.6	
486.04	8244.4	
486.24	9452.7	
486.44	9562.6	
486.63	7581.6	
486.83	8102.4	
487.03	9583.1	
487.23	9690.3	
487.43	7776.1	
487.63	8875.2	
487.83	9674.6	
488.02	9906.7	
488.22	8280.6	
488.42	8591.2	
488.62	10211	
488.82	9427.5	
489.02	8053.3	
489.22	8174.1	
489.41	9834.3	
489.61	10008	
489.81	7970	
490.01	7931.1	
490.21	10118	
490.41	10542	
490.61	8090.2	
490.8	8034.9	
491	9854.1	
491.2	9477.3	
491.4	8211.7	
491.6	7803.4	
491.8	9787.2	
491.99	9470.5	
492.19	7654.6	
492.39	7778.9	
492.59	9848	
492.79	9932	
492.99	8324.3	
493.18	7922.2	
493.38	10222	
493.58	10623	
493.78	8452.6	
493.98	8230.8	
494.18	9998.2	
494.37	9861.7	
494.57	8755.1	
494.77	8661.5	
494.97	10464	
495.17	10561	
495.37	8645.8	
495.56	8748.2	
495.76	10670	
495.96	10667	
496.16	9253.4	
496.36	8833.6	
496.55	10746	
496.75	10456	
496.95	8845.2	
497.15	8903.2	
497.35	10708	
497.54	10577	
497.74	8839	
497.94	9677.3	
498.14	11078	
498.34	10917	
498.53	8791.9	
498.73	8992.6	
498.93	10376	
499.13	10705	
499.33	9181.7	
499.52	9192.6	
499.72	10971	
499.92	10733	
500.12	8893	
500.32	9052	
500.51	10853	
500.71	10750	
500.91	9430.9	
501.11	9209	
501.31	10938	
501.5	11048	
501.7	9674.6	
501.9	9066.4	
502.1	10664	
502.29	10916	
502.49	9325.8	
502.69	9368.8	
502.89	10811	
503.09	10733	
503.28	8574.2	
503.48	8611.7	
503.68	10445	
503.88	10226	
504.07	8998.8	
504.27	8670.4	
504.47	10488	
504.67	10378	
504.86	8944.2	
505.06	8753	
505.26	10340	
505.46	10920	
505.65	8659.5	
505.85	8680	
506.05	10134	
506.25	10359	
506.44	8178.2	
506.64	8421.9	
506.84	9790.7	
507.04	10144	
507.23	8213	
507.43	8495	
507.63	10763	
507.83	9743.6	
508.02	8395.3	
508.22	8155	
508.42	10896	
508.62	9648.7	
508.81	8211.7	
509.01	8606.9	
509.21	9536.7	
509.4	9744.2	
509.6	8311.3	
509.8	7972.7	
510	9682.8	
510.19	10308	
510.39	7974.8	
510.59	8045.8	
510.79	9654.8	
510.98	10368	
511.18	8200.7	
511.38	8133.2	
511.57	10158	
511.77	9840.5	
511.97	8388.5	
512.17	7903.1	
512.36	10102	
512.56	9755.2	
512.76	7920.2	
512.95	7782.3	
513.15	10088	
513.35	9228.8	
513.55	8325.7	
513.74	7915.4	
513.94	10021	
514.14	9689.6	
514.33	8533.9	
514.53	8229.4	
514.73	9751.1	
514.92	9665.7	
515.12	7943.4	
515.32	7925	
515.51	9708.1	
515.71	9841.2	
515.91	8826.1	
516.11	7977.5	
516.3	10633	
516.5	9639.8	
516.7	8359.1	
516.89	8560.5	
517.09	9672.6	
517.29	9773.6	
517.48	8589.2	
517.68	8094.9	
517.88	9263	
518.07	9845.3	
518.27	8310.7	
518.47	7789.8	
518.66	10061	
518.86	9417.9	
519.06	7788.4	
519.25	7918.1	
519.45	9495.1	
519.65	10305	
519.84	8294.3	
520.04	8621.3	
520.24	10566	
520.43	9881.4	
520.63	8087.4	
520.83	7979.6	
521.02	9462.3	
521.22	9713.5	
521.42	8078.6	
521.61	8193.2	
521.81	9318.3	
522.01	9497.1	
522.2	8079.9	
522.4	7854	
522.6	9917.6	
522.79	9181	
522.99	7896.3	
523.18	7731.8	
523.38	9804.3	
523.58	9748.3	
523.77	8825.4	
523.97	7966.6	
524.17	10815	
524.36	10334	
524.56	8596	
524.76	8446.5	
524.95	9880.8	
525.15	9743.6	
525.34	8353	
525.54	8445.8	
525.74	10292	
525.93	9716.2	
526.13	9039.1	
526.33	8473.8	
526.52	10459	
526.72	10145	
526.91	9102.5	
527.11	8715.5	
527.31	10348	
527.5	10495	
527.7	8604.9	
527.89	8372.1	
528.09	10048	
528.29	10363	
528.48	8926.4	
528.68	8671.1	
528.87	10533	
529.07	10468	
529.27	8711.4	
529.46	8412.4	
529.66	10277	
529.85	10445	
530.05	8346.2	
530.25	8731.9	
530.44	11013	
530.64	10083	
530.83	8498.4	
531.03	8590.5	
531.23	10600	
531.42	10241	
531.62	9030.9	
531.81	8663.6	
532.01	10570	
532.21	10671	
532.4	8720.9	
532.6	8912.8	
532.79	11131	
532.99	10749	
533.18	8972.2	
533.38	9543.5	
533.58	10540	
533.77	10761	
533.97	9030.9	
534.16	9392	
534.36	11151	
534.55	10559	
534.75	9508.7	
534.95	9031.5	
535.14	11180	
535.34	10452	
535.53	8757.1	
535.73	9790	
535.92	11319	
536.12	10478	
536.31	8796	
536.51	9435.7	
536.71	10772	
536.9	10507	
537.1	8768.7	
537.29	8931.9	
537.49	10884	
537.68	10364	
537.88	9214.5	
538.07	8624.7	
538.27	10551	
538.46	11028	
538.66	8677.9	
538.86	8886.8	
539.05	10628	
539.25	10708	
539.44	9185.8	
539.64	8736.6	
539.83	10433	
540.03	10870	
540.22	8734.6	
540.42	8649.9	
540.61	10488	
540.81	10547	
541	8888.9	
541.2	9157.8	
541.39	10122	
541.59	10369	
541.78	9181.7	
541.98	8656.1	
542.18	10006	
542.37	9955.9	
542.57	8690.9	
542.76	8979	
542.96	9962	
543.15	10143	
543.35	8649.9	
543.54	8294.3	
543.74	9846.6	
543.93	9942.9	
544.13	8429.4	
544.32	8989.9	
544.52	10258	
544.71	9744.2	
544.91	7992.5	
545.1	8476.5	
545.3	9756.5	
545.49	9857.6	
545.69	7808.2	
545.88	8213.7	
546.08	10606	
546.27	10278	
546.47	8419.9	
546.66	7936.6	
546.86	10091	
547.05	10230	
547.24	8201.4	
547.44	8089.5	
547.63	9579.7	
547.83	9956.5	
548.02	8276.5	
548.22	8245.8	
548.41	9316.9	
548.61	10114	
548.8	7915.4	
549	7944.1	
549.19	9744.9	
549.39	9902.6	
549.58	7664.9	
549.78	7989.8	
549.97	9781.1	
550.17	9437	
550.36	8368.7	
550.55	8913.4	
550.75	9534.7	
550.94	9959.3	
551.14	7688.1	
551.33	7949.5	
551.53	8938.7	
551.72	9633	
551.92	7861.5	
552.11	7788.4	
552.31	9760.6	
552.5	9609.1	
552.69	8656.1	
552.89	7548.8	
553.08	9649.3	
553.28	9358.5	
553.47	7744.1	
553.67	8291.5	
553.86	9789.3	
554.06	8986.5	
554.25	7307.2	
554.44	7630	
554.64	10236	
554.83	10002	
555.03	7519.5	
555.22	7813	
555.42	9695.1	
555.61	9432.9	
555.8	7705.1	
556	7723.6	
556.19	8983.8	
556.39	9415.2	
556.58	7580.2	
556.78	7685.3	
556.97	9381.1	
557.16	9163.3	
557.36	8258.1	
557.55	7345.4	
557.75	8783.1	
557.94	9820	
558.13	7413	
558.33	7295.5	
558.52	9563.3	
558.72	8731.9	
558.91	7378.8	
559.1	7417.1	
559.3	8652.7	
559.49	8497.7	
559.69	7226.6	
559.88	7559.1	
560.07	9132.6	
560.27	9449.3	
560.46	7755.7	
560.66	7710.6	
560.85	9194	
561.04	8564.6	
561.24	7247.8	
561.43	7365.2	
561.63	8667	
561.82	8850.6	
562.01	7914	
562.21	7385.7	
562.4	9073.9	
562.59	9568.8	
562.79	7402.7	
562.98	7173.4	
563.18	9103.9	
563.37	9745.6	
563.56	7653.3	
563.76	7215	
563.95	8817.9	
564.14	8798.8	
564.34	7481.2	
564.53	7243	
564.73	9147.6	
564.92	9152.4	
565.11	7505.1	
565.31	7124.2	
565.5	9427.5	
565.69	8599.4	
565.89	7269.6	
566.08	7451.2	
566.27	9200.8	
566.47	9446.6	
566.66	7838.3	
566.85	7064.1	
567.05	9065	
567.24	8718.2	
567.44	7151.5	
567.63	7876.5	
567.82	9126.4	
568.02	8896.4	
568.21	7191.1	
568.4	7360.4	
568.6	8927.8	
568.79	8813.1	
568.98	7109.2	
569.18	7195.2	
569.37	8940.7	
569.56	9928.6	
569.76	7463.5	
569.95	7957	
570.14	9074.5	
570.34	8890.2	
570.53	7120.8	
570.72	7038.9	
570.91	9291.6	
571.11	8940.7	
571.3	7323.5	
571.49	7811.6	
571.69	8927.8	
571.88	8581	
572.07	7473.7	
572.27	7462.8	
572.46	8534.6	
572.65	9107.3	
572.85	7173.4	
573.04	7269.6	
573.23	9355.8	
573.43	8931.9	
573.62	7110.5	
573.81	7332.4	
574	8997.4	
574.2	8751.7	
574.39	7342.7	
574.58	7288	
574.78	9407	
574.97	9004.9	
575.16	7572	
575.36	7588.4	
575.55	9333.3	
575.74	9284.1	
575.93	7066.9	
576.13	7718.1	
576.32	8882.7	
576.51	9179.7	
576.71	7375.4	
576.9	7998	
577.09	9330.5	
577.28	9064.3	
577.48	7575.4	
577.67	7051.2	
577.86	9053.4	
578.05	9033.6	
578.25	7417.7	
578.44	7365.2	
578.63	8950.3	
578.83	9667.8	
579.02	7148.1	
579.21	7907.9	
579.4	9044.5	
579.6	8974.9	
579.79	7503.1	
579.98	8570.1	
580.17	9239.8	
580.37	9294.4	
580.56	7238.9	
580.75	7604.8	
580.94	9364	
581.14	9487.6	
581.33	7807.5	
581.52	7333.8	
581.71	9135.3	
581.91	9618.6	
582.1	7240.9	
582.29	7387.7	
582.48	8992.6	
582.68	9024.7	
582.87	7686.7	
583.06	7530.4	
583.25	9370.1	
583.45	9081.4	
583.64	7867.6	
583.83	8297	
584.02	9164	
584.21	9290.3	
584.41	7818.5	
584.6	7492.2	
584.79	9078.6	
584.98	9288.9	
585.18	7274.4	
585.37	7222.5	
585.56	8938.7	
585.75	9181	
585.94	7262.1	
586.14	7597.3	
586.33	9512.1	
586.52	8989.2	
586.71	7482.6	
586.91	7377.5	
587.1	8445.1	
587.29	9054.1	
587.48	7277.8	
587.67	7202	
587.87	9067.7	
588.06	8911.4	
588.25	7759.8	
588.44	7340.6	
588.63	8704.5	
588.83	8964	
589.02	7030.7	
589.21	6863.4	
589.4	8547.5	
589.59	8424.7	
589.78	6425.8	
589.98	6490	
590.17	7930.4	
590.36	8073.8	
590.55	5988.3	
590.74	6328.2	
590.94	8597.4	
591.13	7922.2	
591.32	6264.7	
591.51	5919.3	
591.7	8086.1	
591.89	7978.2	
592.09	6044.2	
592.28	6320.7	
592.47	7378.8	
592.66	8671.8	
592.85	6091.3	
593.05	6191	
593.24	7963.9	
593.43	8421.2	
593.62	6345.3	
593.81	6453.8	
594	8017.1	
594.19	8085.4	
594.39	6195.1	
594.58	6242.2	
594.77	8155.7	
594.96	8343.4	
595.15	6238.8	
595.34	6398.5	
595.54	7888.1	
595.73	7538.6	
595.92	5842.2	
596.11	6276.3	
596.3	8221.9	
596.49	7683.3	
596.68	6295.5	
596.88	6437.4	
597.07	8073.1	
597.26	7592.5	
597.45	6083.1	
597.64	6597.9	
597.83	7638.2	
598.02	8019.8	
598.22	6010.8	
598.41	6376.7	
598.6	7875.1	
598.79	7662.1	
598.98	6124.8	
599.17	6558.3	
599.36	7996.6	
599.55	8475.9	
599.74	7122.8	
599.94	7035.5	
600.13	8357.1	
600.32	7600.7	
600.51	5965.1	
600.7	6019.7	
600.89	8496.3	
601.08	8574.2	
601.27	5898.8	
601.47	6448.4	
601.66	8130.4	
601.85	8406.9	
602.04	6378.7	
602.23	6441.5	
602.42	7716.7	
602.61	7962.5	
602.8	6260	
602.99	6114.6	
603.18	7910.6	
603.37	7931.1	
603.57	6412.2	
603.76	6749.4	
603.95	8346.2	
604.14	8000.7	
604.33	6199.2	
604.52	6323.4	
604.71	7993.9	
604.9	7693.5	
605.09	6654.5	
605.28	6471.6	
605.47	8339.3	
605.66	7881.9	
605.86	6414.2	
606.05	6221.7	
606.24	8342.7	
606.43	7385	
606.62	6371.2	
606.81	6714.6	
607	8120.9	
607.19	7616.4	
607.38	5961	
607.57	6030.6	
607.76	7558.4	
607.95	7306.5	
608.14	6436.8	
608.33	6590.4	
608.52	7591.1	
608.72	8113.4	
608.91	5910.4	
609.1	5848.3	
609.29	7656	
609.48	7331	
609.67	6365.8	
609.86	5919.3	
610.05	7407.5	
610.24	7484	
610.43	5834	
610.62	5582.8	
610.81	8258.1	
611	7991.2	
611.19	5838.1	
611.38	6237.4	
611.57	7880.6	
611.76	8297.7	
611.95	5789.6	
612.14	5726.1	
612.33	7480.5	
612.52	7297.6	
612.71	5976.7	
612.9	5616.9	
613.09	7222.5	
613.28	8435.6	
613.47	5889.3	
613.66	6275.7	
613.85	7733.8	
614.04	7394.5	
614.24	5935	
614.43	5457.8	
614.62	7725.6	
614.81	7743.4	
615	6125.5	
615.19	6155.5	
615.38	7424.6	
615.57	7623.2	
615.76	6040.1	
615.95	6566.5	
616.14	7841	
616.33	7518.8	
616.52	6338.5	
616.71	6309.8	
616.9	7759.1	
617.09	7531.1	
617.28	5964.4	
617.47	6475.7	
617.66	7311.9	
617.85	7295.5	
618.04	6305	
618.22	6034	
618.41	7346.7	
618.6	8020.5	
618.79	6117.3	
618.98	6008.7	
619.17	8101.1	
619.36	7172	
619.55	6193.1	
619.74	6072.9	
619.93	7802.1	
620.12	7390.4	
620.31	6337.8	
620.5	6464.8	
620.69	7981.6	
620.88	8347.5	
621.07	6780.1	
621.26	6297.5	
621.45	7888.8	
621.64	7798.7	
621.83	6448.4	
622.02	5964.4	
622.21	7995.3	
622.4	7851.2	
622.59	6643.6	
622.78	6622.4	
622.97	7646.4	
623.16	8184.4	
623.35	6397.9	
623.54	5773.2	
623.72	7688.8	
623.91	7740.6	
624.1	6541.9	
624.29	5889.3	
624.48	8290.2	
624.67	7964.6	
624.86	6431.3	
625.05	5979.4	
625.24	8360.5	
625.43	7598.6	
625.62	7175.4	
625.81	6076.3	
626	7974.1	
626.19	7672.4	
626.38	6310.5	
626.56	6122.1	
626.75	7462.8	
626.94	7945.4	
627.13	6452.5	
627.32	5777.3	
627.51	7875.8	
627.7	8414.4	
627.89	5793.7	
628.08	6307.1	
628.27	7303.7	
628.46	7557	
628.65	5936.4	
628.83	5634.6	
629.02	7775.5	
629.21	7346.7	
629.4	6109.1	
629.59	6229.2	
629.78	7384.3	
629.97	7823.2	
630.16	6206.7	
630.35	5947.3	
630.54	8298.4	
630.72	8075.1	
630.91	6020.3	
631.1	6234.7	
631.29	7626.6	
631.48	7652.6	
631.67	6337.1	
631.86	6037.4	
632.05	7654.6	
632.24	7520.1	
632.42	5864	
632.61	6181.5	
632.8	7572	
632.99	7219.1	
633.18	6210.8	
633.37	6322.8	
633.56	7746.8	
633.75	7690.8	
633.93	6243.6	
634.12	6096.8	
634.31	8293.6	
634.5	7876.5	
634.69	6082.5	
634.88	6263.4	
635.07	7728.4	
635.25	7937.2	
635.44	6506.4	
635.63	6644.3	
635.82	7574.1	
636.01	6780.1	
636.2	6450.4	
636.39	6281.8	
636.57	8193.2	
636.76	7807.5	
636.95	5942.5	
637.14	6633.4	
637.33	7799.3	
637.52	8111.3	
637.7	5752.7	
637.89	6476.4	
638.08	7572.7	
638.27	8239.7	
638.46	6314.6	
638.65	6483.9	
638.83	8237.6	
639.02	7421.2	
639.21	6283.2	
639.4	6429.9	
639.59	7548.1	
639.78	7428.7	
639.96	5786.9	
640.15	5894.7	
640.34	7554.3	
640.53	7512.6	
640.72	5689.3	
640.91	5833.3	
641.09	7197.9	
641.28	7803.4	
641.47	6014.2	
641.66	6347.3	
641.85	7473	
642.03	7649.2	
642.22	6079.1	
642.41	5941.8	
642.6	7191.8	
642.79	6862.1	
642.97	5808.7	
643.16	6007.4	
643.35	7114.6	
643.54	7028.6	
643.73	5571.8	
643.91	6023.8	
644.1	6941.2	
644.29	7297.6	
644.48	5591	
644.67	5601.2	
644.85	6759	
645.04	7210.9	
645.23	5358.9	
645.42	5634	
645.6	6863.4	
645.79	7442.3	
645.98	5397.8	
646.17	4947.9	
646.36	6584.2	
646.54	6842.9	
646.73	5812.1	
646.92	5145.9	
647.11	6637.5	
647.29	7110.5	
647.48	5139.7	
647.67	4898.7	
647.86	7262.8	
648.05	7141.3	
648.23	5272.2	
648.42	5927.5	
648.61	6975.4	
648.8	6834.8	
648.98	5058.5	
649.17	5287.9	
649.36	6609.5	
649.55	6337.1	
649.73	5157.5	
649.92	5553.4	
650.11	6600.6	
650.3	6795.8	
650.48	5188.2	
650.67	5069.4	
650.86	6944.7	
651.05	6264.1	
651.23	5143.1	
651.42	5068.7	
651.61	6621.8	
651.79	6445.6	
651.98	5269.4	
652.17	5084.4	
652.36	6868.2	
652.54	6263.4	
652.73	5131.5	
652.92	5071.5	
653.11	6825.9	
653.29	6885.3	
653.48	4743.1	
653.67	5109.7	
653.85	6621.1	
654.04	7105.1	
654.23	5209.3	
654.42	4976.6	
654.6	6341.9	
654.79	6730.3	
654.98	4726.7	
655.16	4969.7	
655.35	6111.1	
655.54	5809.4	
655.73	4683	
655.91	4567	
656.1	6498.2	
656.29	5928.2	
656.47	4492.6	
656.66	5392.3	
656.85	6219.7	
657.03	6193.1	
657.22	4819.6	
657.41	4917.2	
657.59	6229.2	
657.78	6204	
657.97	4650.3	
658.16	5025.7	
658.34	6754.2	
658.53	6901	
658.72	5503.6	
658.9	5716.6	
659.09	6440.9	
659.28	6412.2	
659.46	4889.9	
659.65	4839.4	
659.84	6342.6	
660.02	6598.6	
660.21	4838	
660.4	4741	
660.58	6817	
660.77	6363	
660.96	5146.5	
661.14	4602.5	
661.33	7024.5	
661.52	6937.2	
661.7	4581.3	
661.89	6318.7	
662.08	6285.2	
662.26	5807.4	
662.45	4767	
662.64	4881	
662.82	6625.9	
663.01	6081.8	
663.2	4810.7	
663.38	5154.7	
663.57	6526.9	
663.75	6476.4	
663.94	4971.8	
664.13	5558.2	
664.31	6145.3	
664.5	6554.2	
664.69	5076.2	
664.87	5286.5	
665.06	6028.5	
665.25	6345.3	
665.43	5451	
665.62	5451.7	
665.8	6451.8	
665.99	6202.6	
666.18	4956.8	
666.36	4950.6	
666.55	6578.1	
666.74	6476.4	
666.92	4790.2	
667.11	5604.6	
667.29	6322.1	
667.48	6582.9	
667.67	5307.7	
667.85	4871.4	
668.04	6163	
668.22	6142.5	
668.41	4992.3	
668.6	5100.1	
668.78	6080.4	
668.97	6166.4	
669.15	5173.2	
669.34	4526	
669.53	6096.8	
669.71	6228.6	
669.9	4620.9	
670.08	4930.1	
670.27	6012.2	
670.46	6468.9	
670.64	5169.1	
670.83	5227.1	
671.01	5981.4	
671.2	6178.7	
671.38	4739.7	
671.57	4674.1	
671.76	6703	
671.94	6858	
672.13	4572.4	
672.31	5118.6	
672.5	6540.5	
672.69	6051.1	
672.87	4698.7	
673.06	4884.4	
673.24	6402.6	
673.43	6106.4	
673.61	5115.8	
673.8	4784.7	
673.98	6369.9	
674.17	6423.8	
674.36	5126.7	
674.54	5057.1	
674.73	6106.4	
674.91	6470.9	
675.1	4831.2	
675.28	4616.1	
675.47	6185.5	
675.65	6418.3	
675.84	4870.8	
676.03	4935.6	
676.21	6128.9	
676.4	5731.6	
676.58	5235.3	
676.77	5042.1	
676.95	6894.8	
677.14	6056.5	
677.32	4587.4	
677.51	4655	
677.69	6519.4	
677.88	5974.6	
678.06	4618.2	
678.25	4701.5	
678.44	6160.3	
678.62	5972.6	
678.81	4519.9	
678.99	4967.7	
679.18	6589	
679.36	6335.7	
679.55	4769	
679.73	5171.1	
679.92	6300.9	
680.1	6100.9	
680.29	5357.5	
680.47	4684.4	
680.66	6045.6	
680.84	6419.7	
681.03	4443.4	
681.21	5042.1	
681.4	5929.6	
681.58	5913.2	
681.77	4730.1	
681.95	4635.2	
682.14	6414.9	
682.32	6602	
682.51	5089.2	
682.69	4384	
682.88	6019.7	
683.06	6139.1	
683.25	4825	
683.43	5141.8	
683.62	6156.9	
683.8	6326.9	
683.99	5197.7	
684.17	4839.4	
684.36	6665.5	
684.54	5995.1	
684.73	4390.8	
684.91	4368.3	
685.1	6055.2	
685.28	5666.7	
685.46	4631.1	
685.65	4573.1	
685.83	5980.8	
686.02	5664.7	
686.2	4230.4	
686.39	4343.1	
686.57	5642.2	
686.76	6283.9	
686.94	4316.4	
687.13	4433.9	
687.31	5939.8	
687.5	5825.8	
687.68	4136.9	
687.86	4644.1	
688.05	6721.4	
688.23	5433.3	
688.42	4784.7	
688.6	4380.6	
688.79	5752.7	
688.97	5850.4	
689.16	4648.2	
689.34	4089.1	
689.52	6145.3	
689.71	6262	
689.89	4754	
690.08	4442.7	
690.26	6023.1	
690.45	5691.3	
690.63	4767.7	
690.81	4509.6	
691	5926.8	
691.18	5752.7	
691.37	4583.4	
691.55	5632.6	
691.74	5666.7	
691.92	6673.6	
692.1	4485.1	
692.29	4242	
692.47	5908.4	
692.66	5442.1	
692.84	4295.3	
693.02	4507.6	
693.21	5502.2	
693.39	5813.5	
693.58	4715.1	
693.76	4284.4	
693.94	6393.1	
694.13	6304.3	
694.31	4444.8	
694.5	4930.8	
694.68	5809.4	
694.86	6035.4	
695.05	4681.7	
695.23	4947.9	
695.42	6191.7	
695.6	7299.6	
695.78	5014.8	
695.97	4549.9	
696.15	6256.5	
696.34	5785.5	
696.52	4338.3	
696.7	4792.2	
696.89	6068.8	
697.07	5639.4	
697.25	4667.3	
697.44	5420.3	
697.62	6021.7	
697.81	6068.1	
697.99	4596.3	
698.17	4686.4	
698.36	5762.3	
698.54	6008.7	
698.72	4691.2	
698.91	4206.5	
699.09	5808.7	
699.28	5655.8	
699.46	4594.3	
699.64	4456.4	
699.83	5717.2	
700.01	6143.2	
700.19	4894	
700.38	4052.9	
700.56	6070.9	
700.74	5739.1	
700.93	4250.2	
701.11	4803.9	
701.29	6038.8	
701.48	6580.1	
701.66	4420.9	
701.84	4508.3	
702.03	5877.7	
702.21	6257.9	
702.39	4315.8	
702.58	4526	
702.76	6133.7	
702.94	6113.2	
703.13	4193.6	
703.31	5515.9	
703.49	5891.3	
703.68	6415.6	
703.86	4457.1	
704.04	4874.8	
704.23	6081.8	
704.41	6210.1	
704.59	4421.6	
704.78	4949.3	
704.96	6967.2	
705.14	6136.4	
705.33	4383.3	
705.51	4731.5	
705.69	5892.7	
705.87	6331	
706.06	4891.2	
706.24	4318.5	
706.42	6055.2	
706.61	6074.3	
706.79	4909	
706.97	4282.3	
707.16	5781.4	
707.34	6029.2	
707.52	4831.2	
707.7	4393.6	
707.89	5732.3	
708.07	5698.8	
708.25	4915.8	
708.44	4887.8	
708.62	5754.8	
708.8	6324.8	
708.98	4990.9	
709.17	4484.4	
709.35	5892.7	
709.53	6001.9	
709.72	4356	
709.9	4447.5	
710.08	6274.3	
710.26	6228.6	
710.45	5139	
710.63	4510.3	
710.81	5923.4	
710.99	5991	
711.18	4743.8	
711.36	4450.9	
711.54	5842.2	
711.72	6199.2	
711.91	4599.1	
712.09	4287.8	
712.27	5938.4	
712.45	6332.3	
712.64	4677.6	
712.82	4034.5	
713	5577.3	
713.18	5623	
713.37	4111	
713.55	4739	
713.73	5988.3	
713.91	5330.9	
714.1	4144.4	
714.28	3915	
714.46	5634	
714.64	5258.5	
714.83	3636.5	
715.01	3898.6	
715.19	5307.7	
715.37	4784.1	
715.55	3700	
715.74	3832.4	
715.92	5537	
716.1	4447.5	
716.28	4460.5	
716.47	3849.5	
716.65	5064.6	
716.83	4890.5	
717.01	3794.2	
717.19	3722.5	
717.38	6105	
717.56	4781.3	
717.74	3936.2	
717.92	3512.3	
718.1	5490.6	
718.29	5033.2	
718.47	3339.6	
718.65	3717.7	
718.83	5484.5	
719.01	5517.2	
719.2	3413.3	
719.38	3993.5	
719.56	5285.1	
719.74	6097.5	
719.92	3822.2	
720.11	4278.2	
720.29	5501.5	
720.47	4941.1	
720.65	3526.6	
720.83	3925.3	
721.02	5094	
721.2	4942.4	
721.38	3908.2	
721.56	3488.4	
721.74	4676.9	
721.92	4658.4	
722.11	4072.7	
722.29	3918.4	
722.47	5446.9	
722.65	4928.1	
722.83	3497.2	
723.01	3922.5	
723.2	4913.1	
723.38	5172.5	
723.56	3237.2	
723.74	3781.9	
723.92	4621.6	
724.1	5237.3	
724.29	3442.6	
724.47	4065.2	
724.65	4870.1	
724.83	4762.9	
725.01	3416.7	
725.19	3735.5	
725.37	4678.9	
725.56	4625.7	
725.74	3393.5	
725.92	3472	
726.1	4739	
726.28	4919.2	
726.46	3672.7	
726.64	3497.2	
726.83	5012.7	
727.01	4967	
727.19	3366.2	
727.37	3785.3	
727.55	4999.8	
727.73	5272.8	
727.91	3364.8	
728.09	3259	
728.28	5202.5	
728.46	5347.2	
728.64	3820.8	
728.82	3786	
729	5739.1	
729.18	5494	
729.36	3362.8	
729.54	4551.3	
729.72	5957.5	
729.91	5152	
730.09	4454.3	
730.27	3784.6	
730.45	5112.4	
730.63	5412.8	
730.81	4108.2	
730.99	3611.9	
731.17	5817.6	
731.35	4944.5	
731.53	3918.4	
731.71	3701.4	
731.9	5582.1	
732.08	5520	
732.26	3876.1	
732.44	3670	
732.62	5595.7	
732.8	5380.7	
732.98	4057.7	
733.16	3542.3	
733.34	5438.7	
733.52	4641.4	
733.7	3846.1	
733.88	3885.7	
734.07	5339.1	
734.25	5177.9	
734.43	3586	
734.61	4276.8	
734.79	5984.8	
734.97	5143.1	
735.15	3638.6	
735.33	3799	
735.51	5347.9	
735.69	5128.1	
735.87	4348.5	
736.05	3854.3	
736.23	5203.9	
736.41	4958.1	
736.59	3948.5	
736.77	3863.8	
736.95	5510.4	
737.13	5046.9	
737.32	3652.2	
737.5	3723.9	
737.68	5802.6	
737.86	4994.3	
738.04	3604.4	
738.22	4457.1	
738.4	5004.6	
738.58	5155.4	
738.76	3824.2	
738.94	3340.2	
739.12	5089.9	
739.3	5016.8	
739.48	4119.8	
739.66	4017.4	
739.84	5173.9	
740.02	5109	
740.2	3418.7	
740.38	3514.3	
740.56	5380	
740.74	4629.1	
740.92	3906.8	
741.1	3779.9	
741.28	5085.8	
741.46	4900.8	
741.64	3665.2	
741.82	3924.6	
742	5172.5	
742.18	4983.4	
742.36	3701.4	
742.54	3532.1	
742.72	5410.1	
742.9	4676.9	
743.08	3889.1	
743.26	3276.1	
743.44	5321.3	
743.62	5316.5	
743.8	4001	
743.98	3502.7	
744.16	5172.5	
744.34	4965	
744.52	3846.8	
744.7	3940.3	
744.88	5272.2	
745.06	4988.2	
745.24	3866.6	
745.42	3945.8	
745.6	5345.9	
745.78	5270.8	
745.96	3302.7	
746.14	3484.3	
746.32	5737.7	
746.5	5158.8	
746.68	3743	
746.86	3419.4	
747.03	5346.6	
747.21	4615.4	
747.39	3747.1	
747.57	3457.7	
747.75	4979.3	
747.93	5173.2	
748.11	3415.3	
748.29	3422.2	
748.47	5918.6	
748.65	4807.3	
748.83	3801.7	
749.01	3650.8	
749.19	5161.6	
749.37	4557.4	
749.55	3642	
749.73	3589.4	
749.91	5021.6	
750.09	4944.5	
750.26	3690.4	
750.44	3345	
750.62	4956.1	
750.8	4902.8	
750.98	3337.5	
751.16	3407.8	
751.34	5096	
751.52	4663.9	
751.7	3827.7	
751.88	3227.6	
752.06	5277.6	
752.24	5115.8	
752.42	3221.5	
752.59	3420.1	
752.77	4943.8	
752.95	5551.4	
753.13	3785.3	
753.31	3448.8	
753.49	4799.1	
753.67	4952.7	
753.85	3575.1	
754.03	3342.3	
754.21	5160.2	
754.38	5294	
754.56	3350.5	
754.74	2970.9	
754.92	4702.8	
755.1	4922.6	
755.28	2940.9	
755.46	2946.3	
755.64	5382.7	
755.82	5432.6	
755.99	2996.2	
756.17	3022.8	
756.35	3984	
756.53	4775.9	
756.71	2325.8	
756.89	3072	
757.07	4477.5	
757.25	4047.5	
757.42	3099.3	
757.6	3512.9	
757.78	4631.8	
757.96	4117.8	
758.14	2980.5	
758.32	2702	
758.5	3844	
758.67	4284.4	
758.85	2928.6	
759.03	2929.3	
759.21	4496.7	
759.39	4043.4	
759.57	2579.8	
759.75	3195.5	
759.92	4834.6	
760.1	4470	
760.28	3353.9	
760.46	3561.4	
760.64	4304.1	
760.82	4272.7	
760.99	3344.3	
761.17	2972.3	
761.35	4696.7	
761.53	4099.4	
761.71	3172.3	
761.89	3351.8	
762.06	4627.7	
762.24	4422.9	
762.42	3151.8	
762.6	3001.6	
762.78	4391.5	
762.96	4717.2	
763.13	3380.5	
763.31	3147.7	
763.49	4799.1	
763.67	4378.6	
763.85	3607.8	
764.02	3855	
764.2	5017.5	
764.38	4399	
764.56	3142.9	
764.74	3579.2	
764.91	4949.3	
765.09	4355.3	
765.27	2975.7	
765.45	2807.1	
765.63	5165	
765.8	4882.4	
765.98	2776.4	
766.16	2887.6	
766.34	4156.7	
766.52	4109.6	
766.69	3353.9	
766.87	2794.1	
767.05	4471.4	
767.23	4846.9	
767.41	2917.7	
767.58	3089.7	
767.76	4721.9	
767.94	4743.1	
768.12	3022.8	
768.29	3297.2	
768.47	4330.1	
768.65	4806.6	
768.83	2788	
769	3367.5	
769.18	4258.4	
769.36	4504.2	
769.54	3289	
769.72	2820.7	
769.89	4835.3	
770.07	4709.6	
770.25	3046	
770.43	3593.5	
770.6	5126.7	
770.78	5196.4	
770.96	3078.1	
771.14	3334.1	
771.31	4698.7	
771.49	4319.8	
771.67	2618.7	
771.85	2700.6	
772.02	3941.7	
772.2	4298	
772.38	3205.8	
772.55	2792.7	
772.73	4573.1	
772.91	4317.1	
773.09	3053.5	
773.26	3093.8	
773.44	4508.3	
773.62	4379.9	
773.8	2801.6	
773.97	2738.1	
774.15	4485.1	
774.33	4356	
774.5	2758.6	
774.68	2864.4	
774.86	4557.4	
775.04	4291.9	
775.21	2757.2	
775.39	2697.2	
775.57	4444.1	
775.74	4558.1	
775.92	2635.1	
776.1	2564.7	
776.27	4363.5	
776.45	5094	
776.63	2807.1	
776.81	2575.7	
776.98	4268.6	
777.16	4767.7	
777.34	2818	
777.51	2952.5	
777.69	4297.3	
777.87	4096.6	
778.04	2953.9	
778.22	3099.9	
778.4	4073.4	
778.57	4507.6	
778.75	2489	
778.93	2596.8	
779.1	4048.8	
779.28	3830.4	
779.46	2438.4	
779.64	2685.6	
779.81	4523.3	
779.99	4978.6	
780.17	3068.5	
780.34	3164.8	
780.52	4291.2	
780.69	4332.1	
780.87	2937.5	
781.05	2717.7	
781.22	4358.1	
781.4	4265.2	
781.58	2714.2	
781.75	2266.4	
781.93	4386.1	
782.11	3857	
782.28	3185.3	
782.46	2768.9	
782.64	3885.7	
782.81	4405.9	
782.99	2807.8	
783.17	2685.6	
783.34	4239.3	
783.52	4006.5	
783.69	2760	
783.87	3233.7	
784.05	4050.2	
784.22	3966.9	
784.4	3278.8	
784.58	2919	
784.75	4539.7	
784.93	4098.7	
785.1	2719	
785.28	2992.8	
785.46	4435.2	
785.63	3889.8	
785.81	2732	
785.99	2568.8	
786.16	4103.4	
786.34	4285	
786.51	2614.6	
786.69	2857.6	
786.87	3803.8	
787.04	4071.4	
787.22	2612.5	
787.39	3025.5	
787.57	3972.4	
787.75	4541	
787.92	3222.8	
788.1	3075.4	
788.27	3893.9	
788.45	3681.6	
788.63	3047.4	
788.8	2296.5	
788.98	4313.7	
789.15	3631.7	
789.33	2480.8	
789.5	2674.6	
789.68	4461.2	
789.86	4515.8	
790.03	2920.4	
790.21	2609.1	
790.38	4465.9	
790.56	4061.1	
790.73	2583.2	
790.91	2513.5	
791.09	3992.9	
791.26	4302.1	
791.44	2794.8	
791.61	2458.2	
791.79	3981.9	
791.96	3932.8	
792.14	2482.1	
792.32	2226.8	
792.49	3945.1	
792.67	4040	
792.84	2534	
793.02	2413.2	
793.19	4266.6	
793.37	4494.6	
793.54	2209.8	
793.72	2430.9	
793.89	4585.4	
794.07	3907.5	
794.25	2747.7	
794.42	2303.3	
794.6	4425.7	
794.77	4214	
794.95	2885.6	
795.12	2568.2	
795.3	3977.2	
795.47	4207.9	
795.65	2843.3	
795.82	2711.5	
796	3861.8	
796.17	4704.9	
796.35	2613.9	
796.52	3055.6	
796.7	4285.7	
796.87	4275.5	
797.05	2677.4	
797.22	3077.4	
797.4	4327.4	
797.57	4770.4	
797.75	2743.6	
797.92	2582.5	
798.1	4524.6	
798.27	3766.2	
798.45	2342.9	
798.62	2437.1	
798.8	4131.4	
798.97	4386.1	
799.15	2848	
799.32	2730.6	
799.5	3725.3	
799.67	4057.7	
799.85	2871.9	
800.02	2293.7	
800.2	3915	
800.37	3956.7	
800.55	2921.8	
800.72	2591.4	
800.9	4422.9	
801.07	4534.9	
801.25	3254.2	
801.42	2762	
801.6	4406.5	
801.77	4014	
801.95	2637.8	
802.12	2551.8	
802.29	4224.3	
802.47	4056.3	
802.64	2778.4	
802.82	2248	
802.99	3954.6	
803.17	4345.1	
803.34	2755.9	
803.52	2495.1	
803.69	4724	
803.87	3769.6	
804.04	2689.7	
804.21	2754.5	
804.39	4572.4	
804.56	3995.6	
804.74	2371.5	
804.91	2755.9	
805.09	3940.3	
805.26	3908.9	
805.44	2462.3	
805.61	2596.8	
805.78	4305.5	
805.96	4220.9	
806.13	2756.6	
806.31	2893.8	
806.48	3626.3	
806.66	3876.1	
806.83	2779.1	
807	2671.2	
807.18	3938.9	
807.35	4095.9	
807.53	2758.6	
807.7	2325.8	
807.87	4522.6	
808.05	3936.2	
808.22	2865.8	
808.4	2276.7	
808.57	3876.1	
808.74	3717.1	
808.92	2560	
809.09	3084.2	
809.27	3983.3	
809.44	4166.3	
809.61	2313.5	
809.79	2432.3	
809.96	4668.7	
810.14	4240.7	
810.31	2285.5	
810.48	2902.7	
810.66	3893.2	
810.83	4289.8	
811.01	2562.7	
811.18	2780.5	
811.35	4291.2	
811.53	3592.8	
811.7	2925.9	
811.87	2745	
812.05	4038.6	
812.22	3893.9	
812.39	2484.9	
812.57	2380.4	
812.74	3992.9	
812.92	4758.8	
813.09	2703.3	
813.26	2774.3	
813.44	4626.4	
813.61	3849.5	
813.78	2293.7	
813.96	2862.4	
814.13	4029.7	
814.3	3863.2	
814.48	3079.5	
814.65	2623.4	
814.82	4508.9	
815	3683.6	
815.17	2654.9	
815.34	3158.7	
815.52	3865.2	
815.69	3876.1	
815.87	2579.8	
816.04	2604.3	
816.21	3818.8	
816.38	3625.6	
816.56	2604.3	
816.73	2511.5	
816.9	4749.9	
817.08	4248.2	
817.25	2501.9	
817.42	2882.9	
817.6	3686.3	
817.77	3900	
817.94	2701.3	
818.12	2456.9	
818.29	3829	
818.46	5100.8	
818.64	2667.1	
818.81	2437.8	
818.98	3839.3	
819.16	4864.6	
819.33	2843.9	
819.5	2700.6	
819.67	4150.6	
819.85	4493.9	
820.02	2699.2	
820.19	2787.3	
820.37	4088.4	
820.54	3878.2	
820.71	2717	
820.88	3211.2	
821.06	3962.8	
821.23	3799	
821.4	2702	
821.58	2691.7	
821.75	4300.1	
821.92	4022.2	
822.09	2312.2	
822.27	2359.3	
822.44	3921.2	
822.61	3904.1	
822.79	2345.6	
822.96	3938.2	
823.13	4014	
823.3	3685.7	
823.48	2525.8	
823.65	2369.5	
823.82	4399.7	
823.99	3719.8	
824.17	3153.9	
824.34	2381.1	
824.51	4796.3	
824.68	3984	
824.86	2503.3	
825.03	2702	
825.2	3993.5	
825.37	4511.7	
825.55	2478.7	
825.72	2641.9	
825.89	4792.9	
826.06	4465.3	
826.24	2621.4	
826.41	2620	
826.58	4560.1	
826.75	3954.6	
826.92	2279.4	
827.1	2452.8	
827.27	5685.2	
827.44	4674.1	
827.61	2559.3	
827.79	2895.8	
827.96	3865.9	
828.13	3898.6	
828.3	2643.9	
828.47	2304	
828.65	4225	
828.82	4156	
828.99	3117	
829.16	2803	
829.34	4338.3	
829.51	4337.6	
829.68	2643.2	
829.85	2653.5	
830.02	4711.7	
830.2	4321.2	
830.37	2193.4	
830.54	3025.5	
830.71	4814.1	
830.88	4033.1	
831.05	2200.2	
831.23	2371.5	
831.4	4726.7	
831.57	4913.8	
831.74	2528.6	
831.91	2267.8	
832.09	4311	
832.26	4383.3	
832.43	2484.9	
832.6	2764.8	
832.77	4202.4	
832.94	4627	
833.12	2142.2	
833.29	2462.3	
833.46	4214	
833.63	4975.2	
833.8	2689.7	
833.97	2564.1	
834.15	4442	
834.32	4354	
834.49	2652.8	
834.66	2704	
834.83	4343.7	
835	3902.1	
835.17	2468.5	
835.35	2476	
835.52	4362.2	
835.69	4179.2	
835.86	2568.8	
836.03	2190	
836.2	4402.5	
836.37	4104.8	
836.55	2529.2	
836.72	2391.3	
836.89	4191.5	
837.06	4457.1	
837.23	2591.4	
837.4	2697.2	
837.57	4828.4	
837.75	5090.6	
837.92	2351.8	
838.09	2456.9	
838.26	4141.7	
838.43	4483	
838.6	2656.2	
838.77	2423.4	
838.94	4853.7	
839.11	4866.7	
839.29	2584.5	
839.46	2097.1	
839.63	4456.4	
839.8	4170.3	
839.97	2497.2	
840.14	2441.9	
840.31	4296	
840.48	4368.3	
840.65	2159.2	
840.82	2442.5	
841	4381.3	
841.17	4194.9	
841.34	2269.8	
841.51	2382.5	
841.68	4393.6	
841.85	4218.1	
842.02	2407.7	
842.19	2080.7	
842.36	4268	
842.53	4255.7	
842.7	2326.5	
842.87	2693.8	
843.05	5072.8	
843.22	4162.2	
843.39	2243.2	
843.56	2442.5	
843.73	4144.4	
843.9	4442	
844.07	3337.5	
844.24	2861	
844.41	5471.5	
844.58	3947.1	
844.75	2257.5	
844.92	2441.2	
845.09	4256.4	
845.26	4284.4	
845.43	2321	
845.6	2412.5	
845.77	4388.1	
845.94	4218.1	
846.12	2529.2	
846.29	2613.9	
846.46	4594.3	
846.63	4300.7	
846.8	2294.4	
846.97	2671.2	
847.14	4547.2	
847.31	4308.2	
847.48	2566.1	
847.65	2734	
847.82	4224.3	
847.99	4369.7	
848.16	2850.1	
848.33	2704.7	
848.5	4057.7	
848.67	4607.2	
848.84	2254.1	
849.01	2400.2	
849.18	4083.6	
849.35	3824.2	
849.52	2699.2	
849.69	2226.8	
849.86	4512.4	
850.03	4486.4	
850.2	2329.2	
850.37	2672.6	
850.54	4496.7	
850.71	4011.3	
850.88	2660.3	
851.05	2235.7	
851.22	4218.8	
851.39	4592.2	
851.56	2203.6	
851.73	2587.9	
851.9	3931.4	
852.07	4540.3	
852.24	2534.7	
852.41	2278.7	
852.58	4370.4	
852.75	3947.8	
852.92	2495.8	
853.09	2273.2	
853.26	3907.5	
853.43	4471.4	
853.6	2332.6	
853.77	2050	
853.94	4678.9	
854.11	3873.4	
854.28	3090.4	
854.44	2499.2	
854.61	4852.3	
854.78	4455.7	
854.95	2267.8	
855.12	2740.2	
855.29	3696.6	
855.46	4626.4	
855.63	2308.1	
855.8	3003.7	
855.97	4055	
856.14	4493.9	
856.31	3024.2	
856.48	2512.2	
856.65	4150.6	
856.82	3904.1	
856.99	2261	
857.16	2430.3	
857.33	4928.1	
857.49	4141.7	
857.66	2426.2	
857.83	2553.1	
858	4221.5	
858.17	4317.1	
858.34	2203.6	
858.51	2310.8	
858.68	4644.1	
858.85	4552.6	
859.02	2603	
859.19	2639.8	
859.36	3945.8	
859.52	3784	
859.69	2326.5	
859.86	2624.1	
860.03	3897.3	
860.2	4635.2	
860.37	2207.7	
860.54	2364	
860.71	4377.2	
860.88	4589.5	
861.05	2504.7	
861.21	2815.3	
861.38	4565.6	
861.55	3845.4	
861.72	2144.9	
861.89	2540.2	
862.06	4422.9	
862.23	4653.7	
862.4	2235.7	
862.56	2358.6	
862.73	4397	
862.9	4210.6	
863.07	2600.9	
863.24	2153.1	
863.41	3886.4	
863.58	3932.8	
863.75	2317.6	
863.91	2658.3	
864.08	4483.7	
864.25	4372.4	
864.42	2745	
864.59	3037.1	
864.76	4722.6	
864.93	3896.6	
865.09	2226.1	
865.26	2426.8	
865.43	4575.2	
865.6	4761.5	
865.77	2079.4	
865.94	2273.9	
866.1	4523.3	
866.27	4296	
866.44	3218	
866.61	2207	
866.78	4187.4	
866.95	4370.4	
867.11	2250	
867.28	2173.6	
867.45	4530.8	
867.62	3912.3	
867.79	2582.5	
867.96	2308.1	
868.12	3896.6	
868.29	4381.3	
868.46	2320.3	
868.63	2934.1	
868.8	4453	
868.97	4360.1	
869.13	2363.4	
869.3	2351.1	
869.47	4272.7	
869.64	4474.8	
869.81	2316.9	
869.97	2332.6	
870.14	4230.4	
870.31	4597.7	
870.48	2299.9	
870.65	2762	
870.81	4174.4	
870.98	4100	
871.15	2557.2	
871.32	2373.6	
871.48	4363.5	
871.65	4683	
871.82	2259.6	
871.99	2456.2	
872.16	4889.9	
872.32	4590.9	
872.49	2422.7	
872.66	2344.2	
872.83	4438.6	
872.99	4030.4	
873.16	2549.7	
873.33	2278	
873.5	4188.1	
873.67	4299.4	
873.83	2467.1	
874	2895.8	
874.17	4302.1	
874.34	4667.3	
874.5	2760.7	
874.67	2702.6	
874.84	4567	
875.01	3775.8	
875.17	3040.6	
875.34	2296.5	
875.51	4273.4	
875.68	4976.6	
875.84	2637.1	
876.01	3127.9	
876.18	4362.9	
876.34	4334.2	
876.51	2315.6	
876.68	2263	
876.85	4113	
877.01	4640.7	
877.18	3046.7	
877.35	2291	
877.52	4372.4	
877.68	3953.9	
877.85	2301.9	
878.02	2242.5	
878.18	3941	
878.35	4099.4	
878.52	1962.6	
878.69	2586.6	
878.85	4569.7	
879.02	4336.2	
879.19	3063.1	
879.35	2456.2	
879.52	4412.7	
879.69	4414.7	
879.86	2149	
880.02	2511.5	
880.19	4252.9	
880.36	4840.7	
880.52	2563.4	
880.69	2611.8	
880.86	4446.1	
881.02	4403.1	
881.19	2495.1	
881.36	2454.1	
881.52	4350.6	
881.69	3953.9	
881.86	2521	
882.02	2424.8	
882.19	4515.8	
882.36	4975.9	
882.52	2394.8	
882.69	3009.8	
882.86	4282.3	
883.02	4318.5	
883.19	2671.2	
883.36	2560.6	
883.52	4483	
883.69	4909.7	
883.86	2310.1	
884.02	2172.9	
884.19	4384	
884.36	4275.5	
884.52	2537.4	
884.69	2452.8	
884.86	4117.8	
885.02	4675.5	
885.19	2448.7	
885.36	2557.2	
885.52	4083	
885.69	4358.8	
885.86	3081.5	
886.02	2751.8	
886.19	4403.8	
886.35	4057.7	
886.52	2536.1	
886.69	3011.2	
886.85	3917.8	
887.02	4555.4	
887.19	4555.4	
887.35	4555.4	
887.52	4555.4	
887.68	4555.4	
887.85	4555.4	
888.02	4555.4	
888.18	4555.4	
888.35	4555.4	
888.51	4555.4	
888.68	4555.4	
888.85	4555.4	
889.01	4555.4	
889.18	4555.4	
889.35	4555.4	
889.51	4555.4	
889.68	4555.4	
889.84	4555.4	
890.01	4555.4	
890.17	4555.4	
890.34	4555.4	
890.51	4555.4	
890.67	4555.4	
890.84	4555.4	
891	4555.4	
891.17	4555.4	
891.34	4555.4	
891.5	4555.4	
891.67	4555.4	
891.83	4555.4	
892	4555.4	
892.16	4555.4	
892.33	4555.4	
892.5	4555.4	
892.66	4555.4	
892.83	4555.4	
892.99	4555.4	
893.16	4555.4	
893.32	4555.4	
893.49	4555.4	
893.65	4555.4	
893.82	4555.4	
893.99	4555.4	
894.15	4555.4	
894.32	4555.4	
894.48	4555.4	
894.65	4555.4	
894.81	4555.4	
894.98	4555.4	
895.14	4555.4	
895.31	4555.4	
895.47	4555.4	
895.64	4555.4	
895.81	4555.4	
895.97	4555.4	
896.14	4555.4	
896.3	4555.4	
896.47	4555.4	
896.63	4555.4	
896.8	4555.4	
896.96	4555.4	
897.13	4555.4	
897.29	4555.4	
897.46	4555.4	
897.62	4555.4	
897.79	4555.4	
897.95	4555.4	
898.12	4555.4	
898.28	4555.4	
898.45	4555.4	
898.61	4555.4	
898.78	4555.4	
898.94	4555.4	
899.11	4555.4	
899.27	4555.4	
899.44	4555.4	
899.6	4555.4	
899.77	4555.4	
899.93	4555.4	
900.1	4555.4	
900.26	4555.4	
900.43	4555.4	
900.59	4555.4	
900.76	4555.4	
900.92	4555.4	
901.09	4555.4	
901.25	4555.4	
901.42	4555.4	
901.58	4555.4	
901.75	4555.4	
901.91	4555.4	
902.07	4555.4	
902.24	4555.4	
902.4	4555.4	
902.57	4555.4	
902.73	4555.4	
902.9	4555.4	
903.06	4555.4	
903.23	4555.4	
903.39	4555.4	
903.56	4555.4	
903.72	4555.4	
903.88	4555.4	
904.05	4555.4	
904.21	4555.4	
904.38	4555.4	
904.54	4555.4	
904.71	4555.4	
904.87	4555.4	
905.03	4555.4	
905.2	4555.4	
905.36	4555.4	
905.53	4555.4	
905.69	4555.4	
905.86	4555.4	
906.02	4555.4	
906.18	4555.4	
906.35	4555.4	
906.51	4555.4	
906.68	4555.4	
906.84	4555.4	
907.01	4555.4	
907.17	4555.4	
907.33	4555.4	
907.5	4555.4	
907.66	4555.4	
907.83	4555.4	
907.99	4555.4	
908.15	4555.4	
908.32	4555.4	
908.48	4555.4	
908.65	4555.4	
908.81	4555.4	
908.97	4555.4	
909.14	4555.4	
909.3	4555.4	
909.47	4555.4	
909.63	4555.4	
909.79	4555.4	
909.96	4555.4	
910.12	4555.4	
910.28	4555.4	
910.45	4555.4	
910.61	4555.4	
910.78	4555.4	
910.94	4555.4	
911.1	4555.4	
911.27	4555.4	
911.43	4555.4	
911.59	4555.4	
911.76	4555.4	
911.92	4555.4	
912.08	4555.4	
912.25	4555.4	
912.41	4555.4	
912.57	4555.4	
912.74	4555.4	
912.9	4555.4	
913.07	4555.4	
913.23	4555.4	
913.39	4555.4	
913.56	4555.4	
913.72	4555.4	
913.88	4555.4	
914.05	4555.4	
914.21	4555.4	
914.37	4555.4	
914.54	4555.4	
914.7	4555.4	
914.86	4555.4	
915.03	4555.4	
915.19	4555.4	
