Wavelength	Intensities	
nm	a.u.	
179.22	1688	
179.44	1674.9	
179.65	1701.2	
179.86	1648.6	
180.08	1643.2	
180.29	3755.3	
180.51	2919.7	
180.72	4850.3	
180.94	5415.5	
181.15	2648.7	
181.37	2561.3	
181.58	4668.7	
181.79	4874.8	
182.01	2683.5	
182.22	2866.5	
182.44	4887.1	
182.65	4198.3	
182.87	3508.9	
183.08	3145	
183.29	5107.6	
183.51	4295.3	
183.72	2872.6	
183.94	3968.3	
184.15	4632.5	
184.37	4554	
184.58	2587.9	
184.79	3343.7	
185.01	4390.8	
185.22	4936.3	
185.44	3544.4	
185.65	3077.4	
185.86	4609.3	
186.08	4257.7	
186.29	2570.2	
186.51	2699.2	
186.72	4397	
186.94	5016.2	
187.15	3056.3	
187.36	3173.7	
187.58	6137.8	
187.79	4734.9	
188.01	3169.6	
188.22	4764.3	
188.43	5455.1	
188.65	4882.4	
188.86	2721.1	
189.08	3128.6	
189.29	4470	
189.5	4442.7	
189.72	2923.8	
189.93	2981.8	
190.15	5025	
190.36	5696.8	
190.57	3149.8	
190.79	3073.3	
191	5014.8	
191.22	4985.4	
191.43	3192.1	
191.64	2744.3	
191.86	5156.8	
192.07	4922.6	
192.29	2770.9	
192.5	2932.7	
192.71	4952.7	
192.93	4435.9	
193.14	2887	
193.35	2990.7	
193.57	4463.2	
193.78	4993.6	
194	2453.5	
194.21	2859	
194.42	4314.4	
194.64	4620.2	
194.85	3120.4	
195.07	3532.1	
195.28	4589.5	
195.49	4131.4	
195.71	3719.8	
195.92	2739.5	
196.13	4825.7	
196.35	4784.1	
196.56	3898.6	
196.78	3145	
196.99	5700.2	
197.2	5356.8	
197.42	3464.5	
197.63	3165.5	
197.84	4280.9	
198.06	4811.4	
198.27	2954.5	
198.48	3723.2	
198.7	4472.8	
198.91	4657.8	
199.13	3136.8	
199.34	3222.8	
199.55	5016.8	
199.77	4089.8	
199.98	2826.9	
200.19	3170.9	
200.41	4595	
200.62	4351.3	
200.83	3228.3	
201.05	3469.9	
201.26	4630.5	
201.47	4389.5	
201.69	2863.1	
201.9	2818	
202.11	4664.6	
202.33	5245.5	
202.54	2997.5	
202.76	3316.3	
202.97	4670.7	
203.18	4709.6	
203.4	3229.6	
203.61	3317	
203.82	4724	
204.04	4375.8	
204.25	3208.5	
204.46	3153.9	
204.68	4599.7	
204.89	4802.5	
205.1	3112.9	
205.32	2746.3	
205.53	4876.9	
205.74	4941.1	
205.96	2439.1	
206.17	3194.8	
206.38	4845.5	
206.6	4945.8	
206.81	3608.5	
207.02	2960.7	
207.24	4814.8	
207.45	5056.4	
207.66	3084.2	
207.88	2678.1	
208.09	4787.5	
208.3	4574.5	
208.52	2821.4	
208.73	3119.1	
208.94	4597	
209.15	5083.7	
209.37	3038.5	
209.58	3117.7	
209.79	5009.3	
210.01	4478.9	
210.22	2533.3	
210.43	2630.3	
210.65	4571.7	
210.86	4826.4	
211.07	3034.4	
211.29	2847.4	
211.5	4793.6	
211.71	4567.7	
211.93	2876.7	
212.14	2850.8	
212.35	4610.7	
212.56	4597.7	
212.78	3154.6	
212.99	2640.5	
213.2	5268.1	
213.42	4463.2	
213.63	2913.6	
213.84	3048.1	
214.06	4188.8	
214.27	4229.7	
214.48	2969.6	
214.69	3257.6	
214.91	5117.2	
215.12	5115.1	
215.33	3185.3	
215.55	3442.6	
215.76	5440.1	
215.97	4859.1	
216.18	3115	
216.4	3084.9	
216.61	4358.1	
216.82	4934.2	
217.04	2801.6	
217.25	2961.4	
217.46	5052.3	
217.67	4895.3	
217.89	2544.3	
218.1	2703.3	
218.31	4686.4	
218.53	4748.6	
218.74	2959.3	
218.95	2843.3	
219.16	4597.7	
219.38	5253	
219.59	2871.9	
219.8	3315.7	
220.01	5644.2	
220.23	4622.9	
220.44	3581.9	
220.65	2775	
220.87	4732.2	
221.08	5042.1	
221.29	2694.4	
221.5	3401.7	
221.72	5896.8	
221.93	4434.5	
222.14	3177.1	
222.35	3629.7	
222.57	4640.7	
222.78	4881.7	
222.99	3030.3	
223.2	3190.1	
223.42	4818.2	
223.63	4876.2	
223.84	2403	
224.05	2428.9	
224.27	5621	
224.48	5191.6	
224.69	3732.1	
224.9	3167.5	
225.12	4730.1	
225.33	4549.9	
225.54	2627.5	
225.75	2914.3	
225.97	4351.3	
226.18	4529.4	
226.39	3013.2	
226.6	2804.4	
226.82	4447.5	
227.03	4308.2	
227.24	3168.9	
227.45	2736.8	
227.67	4938.3	
227.88	5115.1	
228.09	3523.2	
228.3	3469.9	
228.52	4851.6	
228.73	4592.9	
228.94	2906.1	
229.15	2684.9	
229.36	4586.1	
229.58	4590.9	
229.79	3016	
230	3407.8	
230.21	5372.5	
230.43	4668.7	
230.64	3134.1	
230.85	3241.9	
231.06	4906.9	
231.28	4922.6	
231.49	2693.8	
231.7	3114.3	
231.91	4898.1	
232.12	4646.2	
232.34	2787.3	
232.55	3048.1	
232.76	5015.5	
232.97	4719.2	
233.18	2813.2	
233.4	3160	
233.61	4743.1	
233.82	4408.6	
234.03	2973	
234.25	2986.6	
234.46	6040.1	
234.67	4657.1	
234.88	3195.5	
235.09	2848	
235.31	4767.7	
235.52	4502.1	
235.73	3158	
235.94	2704.7	
236.15	4442.7	
236.37	5405.3	
236.58	2824.8	
236.79	3012.6	
237	4850.3	
237.21	4250.9	
237.43	3206.4	
237.64	2613.9	
237.85	7424.6	
238.06	4326	
238.27	3231	
238.48	2718.3	
238.7	4859.8	
238.91	4540.3	
239.12	2951.1	
239.33	3136.8	
239.54	4387.4	
239.76	4493.9	
239.97	3026.9	
240.18	3054.2	
240.39	5440.1	
240.6	4727.4	
240.82	3188	
241.03	2667.1	
241.24	4587.4	
241.45	5208.7	
241.66	2769.5	
241.87	3300.6	
242.09	5168.4	
242.3	5371.1	
242.51	3241.9	
242.72	3013.9	
242.93	4894.6	
243.14	4591.5	
243.36	3457.7	
243.57	3705.5	
243.78	5231.2	
243.99	4840	
244.2	3018.7	
244.41	2810.5	
244.63	4298.7	
244.84	4857.8	
245.05	3231	
245.26	3095.8	
245.47	4827.7	
245.68	4960.2	
245.9	3805.1	
246.11	3186	
246.32	4497.3	
246.53	4794.3	
246.74	4727.4	
246.95	2614.6	
247.16	4348.5	
247.38	4661.2	
247.59	2670.6	
247.8	3067.2	
248.01	4259.8	
248.22	4560.1	
248.43	2824.8	
248.64	2994.8	
248.86	4231.1	
249.07	4449.6	
249.28	2762	
249.49	3119.7	
249.7	4977.9	
249.91	4945.8	
250.12	2590	
250.34	2666.5	
250.55	4712.4	
250.76	4676.9	
250.97	3136.8	
251.18	3157.3	
251.39	5012.1	
251.6	4747.2	
251.81	3185.3	
252.03	3127.9	
252.24	4422.9	
252.45	4900.8	
252.66	2710.8	
252.87	3278.8	
253.08	4664.6	
253.29	5698.8	
253.5	2760.7	
253.72	3626.3	
253.93	4501.4	
254.14	5255.1	
254.35	2898.6	
254.56	3010.5	
254.77	4750.6	
254.98	4334.9	
255.19	2903.3	
255.41	3553.9	
255.62	4730.8	
255.83	5029.1	
256.04	3229	
256.25	3210.5	
256.46	5408	
256.67	4427	
256.88	3142.9	
257.09	3448.1	
257.31	4322.6	
257.52	4366.3	
257.73	3820.1	
257.94	2923.1	
258.15	4547.2	
258.36	4568.3	
258.57	3577.8	
258.78	2424.8	
258.99	4952.7	
259.2	4474.8	
259.41	2887	
259.63	3052.8	
259.84	5198.4	
260.05	5464.7	
260.26	3635.1	
260.47	2934.1	
260.68	5050.3	
260.89	4510.3	
261.1	3461.7	
261.31	2813.9	
261.52	5110.4	
261.73	5270.1	
261.95	3654.3	
262.16	3232.4	
262.37	5076.2	
262.58	5170.4	
262.79	3624.2	
263	2980.5	
263.21	4685.1	
263.42	4177.2	
263.63	3192.8	
263.84	2963.4	
264.05	5021.6	
264.26	5194.3	
264.47	3512.9	
264.69	3180.5	
264.9	5164.3	
265.11	4718.5	
265.32	2849.4	
265.53	2835.1	
265.74	4660.5	
265.95	4126.7	
266.16	3055.6	
266.37	3302.7	
266.58	4683.7	
266.79	4448.2	
267	2930	
267.21	2741.5	
267.42	4300.7	
267.63	4556	
267.84	3037.1	
268.06	2661	
268.27	4975.2	
268.48	5083.7	
268.69	3009.1	
268.9	3393.5	
269.11	5120.6	
269.32	4196.3	
269.53	3065.1	
269.74	2794.1	
269.95	4709.6	
270.16	4192.9	
270.37	3042.6	
270.58	3426.3	
270.79	4538.3	
271	4930.1	
271.21	3211.9	
271.42	3040.6	
271.63	4747.9	
271.84	4342.4	
272.05	2509.4	
272.26	2777	
272.47	4658.4	
272.68	4720.6	
272.89	3008.5	
273.11	3299.3	
273.32	4466.6	
273.53	5253	
273.74	3265.8	
273.95	3211.9	
274.16	4927.4	
274.37	4610.7	
274.58	3400.3	
274.79	2724.5	
275	4782.7	
275.21	4990.2	
275.42	3894.6	
275.63	3306.1	
275.84	4799.8	
276.05	5750.7	
276.26	3216.7	
276.47	2996.9	
276.68	4631.1	
276.89	5298.8	
277.1	3373	
277.31	2703.3	
277.52	4767.7	
277.73	5040.1	
277.94	2680.1	
278.15	2974.3	
278.36	4802.5	
278.57	4401.1	
278.78	2912.9	
278.99	3257.6	
279.2	4427.7	
279.41	4373.8	
279.62	3718.4	
279.83	2757.9	
280.04	5407.3	
280.25	4358.8	
280.46	3717.7	
280.67	3067.2	
280.88	4393.6	
281.09	5054.4	
281.3	3136.1	
281.51	3903.4	
281.72	4422.9	
281.93	4885.1	
282.14	2868.5	
282.35	3057.6	
282.56	5018.2	
282.77	4968.4	
282.98	2964.1	
283.19	3506.8	
283.4	5891.3	
283.61	4526.7	
283.82	2832.3	
284.03	3650.2	
284.24	4754.7	
284.45	4983.4	
284.66	3738.9	
284.87	3486.3	
285.08	5035.3	
285.29	5167	
285.5	2702.6	
285.71	3009.1	
285.92	5045.5	
286.12	5434.6	
286.33	3646.7	
286.54	3024.8	
286.75	4923.3	
286.96	4549.9	
287.17	2777	
287.38	3553.9	
287.59	4452.3	
287.8	4415.4	
288.01	3013.9	
288.22	3333.4	
288.43	4844.8	
288.64	4173.8	
288.85	3499.3	
289.06	3323.9	
289.27	4954.7	
289.48	5138.4	
289.69	3669.3	
289.9	3353.2	
290.11	5072.1	
290.32	4478.2	
290.53	3492.5	
290.74	3216.7	
290.94	4936.3	
291.15	4896.7	
291.36	2876	
291.57	3301.3	
291.78	4502.1	
291.99	4220.2	
292.2	2824.1	
292.41	3291.8	
292.62	4987.5	
292.83	4820.2	
293.04	3906.8	
293.25	2834.4	
293.46	4491.9	
293.67	5002.5	
293.88	2853.5	
294.09	2807.8	
294.29	4361.5	
294.5	4743.1	
294.71	3093.1	
294.92	2955.2	
295.13	4517.8	
295.34	5427.1	
295.55	2632.3	
295.76	2641.9	
295.97	4833.9	
296.18	5406	
296.39	2723.8	
296.6	2863.7	
296.81	4672.1	
297.01	4863.9	
297.22	2980.5	
297.43	2914.3	
297.64	4455.7	
297.85	4393.6	
298.06	2467.8	
298.27	2641.2	
298.48	4598.4	
298.69	4426.3	
298.9	3079.5	
299.11	2833	
299.31	4307.6	
299.52	4326	
299.73	3300	
299.94	3168.9	
300.15	4633.9	
300.36	4429.1	
300.57	3226.2	
300.78	3209.2	
300.99	4472.8	
301.2	4713.7	
301.4	2938.8	
301.61	3050.1	
301.82	4806.6	
302.03	4915.8	
302.24	3416	
302.45	2739.5	
302.66	4803.9	
302.87	5042.8	
303.08	2919.7	
303.29	3784	
303.49	4468	
303.7	4601.8	
303.91	2628.9	
304.12	3625.6	
304.33	4278.2	
304.54	4757.4	
304.75	2899.9	
304.96	2777	
305.16	4896	
305.37	5281.7	
305.58	2583.2	
305.79	2646	
306	4862.6	
306.21	4241.3	
306.42	2915.6	
306.63	4177.2	
306.83	4449.6	
307.04	4897.4	
307.25	3164.1	
307.46	3145	
307.67	4127.3	
307.88	4852.3	
308.09	2908.8	
308.29	2887.6	
308.5	4639.3	
308.71	4983.4	
308.92	3020.1	
309.13	2842.6	
309.34	4601.8	
309.55	4557.4	
309.75	3517.7	
309.96	3198.2	
310.17	4939.7	
310.38	4402.5	
310.59	3352.5	
310.8	2753.2	
311.01	4494.6	
311.21	4539	
311.42	2813.9	
311.63	2866.5	
311.84	4519.2	
312.05	4685.1	
312.26	3257	
312.46	3437.2	
312.67	4512.4	
312.88	4303.5	
313.09	2748.4	
313.3	2710.8	
313.51	5158.8	
313.71	5416.9	
313.92	2842.6	
314.13	2911.5	
314.34	4763.6	
314.55	4625.7	
314.76	3433.1	
314.96	3094.5	
315.17	4795	
315.38	4886.5	
315.59	2837.8	
315.8	2662.4	
316.01	5145.2	
316.21	5205.3	
316.42	2792.7	
316.63	3056.9	
316.84	4545.1	
317.05	5035.3	
317.26	3259	
317.46	2925.2	
317.67	4624.3	
317.88	4921.3	
318.09	3446	
318.3	2672.6	
318.5	4425.7	
318.71	4829.8	
318.92	4249.5	
319.13	3252.9	
319.34	4966.3	
319.54	5053.7	
319.75	2675.3	
319.96	2549	
320.17	4884.4	
320.38	4959.5	
320.58	2577.7	
320.79	3024.2	
321	5041.4	
321.21	5079.6	
321.42	3073.3	
321.62	2622.1	
321.83	4323.3	
322.04	4644.1	
322.25	2975	
322.46	2826.2	
322.66	4694.6	
322.87	4879.6	
323.08	3340.9	
323.29	2721.8	
323.5	5356.8	
323.7	4293.9	
323.91	3648.8	
324.12	3323.2	
324.33	4732.2	
324.53	4851.6	
324.74	3200.3	
324.95	3383.2	
325.16	4264.6	
325.37	4500.8	
325.57	2775.7	
325.78	2815.3	
325.99	4752.7	
326.2	4229.7	
326.4	3874.1	
326.61	2628.9	
326.82	4575.8	
327.03	4716.5	
327.24	3852.2	
327.44	3560.7	
327.65	4807.3	
327.86	4081.6	
328.07	3246.7	
328.27	2768.2	
328.48	5126.7	
328.69	4248.9	
328.9	3810.6	
329.1	2919	
329.31	4592.2	
329.52	5174.5	
329.73	2855.6	
329.93	3057.6	
330.14	4675.5	
330.35	4782.7	
330.56	4345.1	
330.76	3364.8	
330.97	4524.6	
331.18	4702.1	
331.39	3083.6	
331.59	2536.1	
331.8	5003.2	
332.01	5111.7	
332.22	2902	
332.42	3234.4	
332.63	4689.2	
332.84	4355.3	
333.05	3091.8	
333.25	2792.7	
333.46	4388.8	
333.67	4620.2	
333.88	2965.5	
334.08	3146.4	
334.29	8116.1	
334.5	4999.1	
334.7	2756.6	
334.91	3847.5	
335.12	4274.8	
335.33	4848.2	
335.53	3056.9	
335.74	4272.7	
335.95	4484.4	
336.16	4313.7	
336.36	3018.7	
336.57	3448.1	
336.78	4299.4	
336.98	5005.9	
337.19	3674.1	
337.4	3009.1	
337.61	5438.7	
337.81	4279.6	
338.02	2937.5	
338.23	3576.4	
338.43	5186.8	
338.64	4390.2	
338.85	2826.2	
339.05	3581.2	
339.26	5251.7	
339.47	4214	
339.68	2836.4	
339.88	3952.6	
340.09	4810.7	
340.3	4971.1	
340.5	3170.3	
340.71	2579.1	
340.92	4300.1	
341.13	5046.9	
341.33	2716.3	
341.54	3231	
341.75	4796.3	
341.95	4448.9	
342.16	3112.2	
342.37	3362.8	
342.57	4330.8	
342.78	4541	
342.99	3383.2	
343.19	2602.3	
343.4	4932.2	
343.61	4811.4	
343.81	3009.1	
344.02	2706	
344.23	4931.5	
344.43	5090.6	
344.64	3463.8	
344.85	3334.1	
345.06	4825.7	
345.26	4992.9	
345.47	3235.1	
345.68	3722.5	
345.88	4242.7	
346.09	4900.8	
346.3	3282.2	
346.5	2541.5	
346.71	4578.6	
346.92	4430.4	
347.12	2720.4	
347.33	3209.8	
347.54	4895.3	
347.74	5229.8	
347.95	3124.5	
348.16	2497.8	
348.36	4422.9	
348.57	4319.2	
348.78	3200.3	
348.98	3327.3	
349.19	4567	
349.39	4216.1	
349.6	2697.9	
349.81	2856.2	
350.01	4844.1	
350.22	4373.1	
350.43	3085.6	
350.63	3590.8	
350.84	4612.7	
351.05	4377.2	
351.25	2828.2	
351.46	2626.9	
351.67	4957.4	
351.87	4353.3	
352.08	2996.9	
352.29	3340.9	
352.49	4919.9	
352.7	4670.1	
352.9	2711.5	
353.11	3317	
353.32	5300.1	
353.52	4476.9	
353.73	2775.7	
353.94	3327.3	
354.14	4823.6	
354.35	4563.6	
354.55	2826.9	
354.76	3086.3	
354.97	4781.3	
355.17	4526.7	
355.38	2772.3	
355.59	3531.4	
355.79	4364.2	
356	4534.9	
356.2	3027.6	
356.41	2774.3	
356.62	4232.5	
356.82	4495.3	
357.03	3298.6	
357.24	2968.9	
357.44	4367.6	
357.65	4492.6	
357.85	3728	
358.06	3084.9	
358.27	4140.3	
358.47	4231.8	
358.68	2695.1	
358.88	3194.8	
359.09	4741	
359.3	4984.8	
359.5	3670.6	
359.71	3289	
359.91	5203.2	
360.12	4762.2	
360.33	3299.3	
360.53	3549.8	
360.74	4377.9	
360.94	4438.6	
361.15	3360.7	
361.36	2835.8	
361.56	4941.7	
361.77	4553.3	
361.97	3692.5	
362.18	2963.4	
362.38	4937.7	
362.59	4268	
362.8	2760.7	
363	2706.7	
363.21	4110.3	
363.41	4552	
363.62	3151.1	
363.83	3772.4	
364.03	4698	
364.24	5260.5	
364.44	3941	
364.65	3856.3	
364.85	4447.5	
365.06	4277.5	
365.27	2939.5	
365.47	3002.3	
365.68	5169.1	
365.88	4517.8	
366.09	3186	
366.29	2966.1	
366.5	4592.9	
366.71	4855.7	
366.91	3805.1	
367.12	3301.3	
367.32	5360.2	
367.53	4838	
367.73	3314.3	
367.94	3906.2	
368.14	4844.8	
368.35	5319.3	
368.56	3242.6	
368.76	2795.5	
368.97	4926.7	
369.17	5910.4	
369.38	2903.3	
369.58	3123.8	
369.79	4160.8	
369.99	5158.2	
370.2	3790.1	
370.4	3162.7	
370.61	4657.1	
370.82	5519.3	
371.02	3094.5	
371.23	2639.8	
371.43	4220.2	
371.64	5107.6	
371.84	3138.2	
372.05	3892.5	
372.25	5868.8	
372.46	4801.8	
372.66	3121.1	
372.87	3080.1	
373.07	4825	
373.28	6014.2	
373.48	3736.2	
373.69	3568.2	
373.9	4513	
374.1	4512.4	
374.31	3754.6	
374.51	3355.9	
374.72	5058.5	
374.92	4311.7	
375.13	3817.4	
375.33	3297.9	
375.54	4752	
375.74	4444.8	
375.95	3293.1	
376.15	4139.6	
376.36	4896	
376.56	4685.1	
376.77	3388	
376.97	3631.7	
377.18	5483.8	
377.38	4863.9	
377.59	3781.2	
377.79	3044	
378	4713.7	
378.2	4898.7	
378.41	3053.5	
378.61	2975	
378.82	4997.7	
379.02	4447.5	
379.23	3136.8	
379.43	3818.8	
379.64	5119.9	
379.84	4807.9	
380.05	2998.2	
380.25	3027.6	
380.46	4913.8	
380.66	4608.6	
380.87	3926.6	
381.07	4204.5	
381.28	5307.7	
381.48	4828.4	
381.69	3052.2	
381.89	3071.3	
382.1	4216.1	
382.3	4928.8	
382.51	3802.4	
382.71	4394.9	
382.91	4821.6	
383.12	5175.9	
383.32	3345	
383.53	3417.4	
383.73	4737	
383.94	4677.6	
384.14	3419.4	
384.35	2873.3	
384.55	4569	
384.76	4861.9	
384.96	3347.1	
385.17	3535.5	
385.37	4901.5	
385.58	4384	
385.78	3534.1	
385.98	2824.1	
386.19	4560.1	
386.39	4850.3	
386.6	3110.2	
386.8	3285.6	
387.01	4859.8	
387.21	4896.7	
387.42	3587.4	
387.62	3930.7	
387.83	4449.6	
388.03	4648.2	
388.23	3352.5	
388.44	3785.3	
388.64	4238.6	
388.85	4246.1	
389.05	3554.6	
389.26	3907.5	
389.46	5650.3	
389.67	5213.4	
389.87	3504.1	
390.07	3561.4	
390.28	4550.6	
390.48	4283	
390.69	2993.4	
390.89	3222.8	
391.1	4529.4	
391.3	5087.8	
391.5	4062.5	
391.71	4425	
391.91	4913.1	
392.12	5468.1	
392.32	4104.1	
392.53	3530	
392.73	4536.9	
392.93	4681.7	
393.14	3345.7	
393.34	3806.5	
393.55	4923.3	
393.75	4577.2	
393.95	3348.4	
394.16	3321.1	
394.36	4506.2	
394.57	4960.2	
394.77	2998.2	
394.98	3193.5	
395.18	4445.5	
395.38	4575.2	
395.59	3809.2	
395.79	3158.7	
396	4488.5	
396.2	4850.3	
396.4	3654.9	
396.61	3622.2	
396.81	4945.8	
397.02	4461.8	
397.22	3777.8	
397.42	3832.4	
397.63	4956.8	
397.83	4403.1	
398.04	3103.4	
398.24	3419.4	
398.44	4773.8	
398.65	4106.2	
398.85	3039.2	
399.05	3044	
399.26	4420.2	
399.46	5470.1	
399.67	3377.8	
399.87	3136.1	
400.07	4680.3	
400.28	4833.2	
400.48	3069.9	
400.69	3862.5	
400.89	4910.3	
401.09	5256.5	
401.3	3127.9	
401.5	3787.4	
401.7	5311.1	
401.91	5580.7	
402.11	3377.1	
402.32	3540.3	
402.52	5008	
402.72	4951.3	
402.93	3629.7	
403.13	2908.1	
403.33	5552.7	
403.54	4643.4	
403.74	3448.1	
403.94	4011.3	
404.15	4753.3	
404.35	5504.9	
404.56	3293.1	
404.76	4416.1	
404.96	5047.6	
405.17	4834.6	
405.37	4025.6	
405.57	3618.8	
405.78	4958.8	
405.98	4610.7	
406.18	3255.6	
406.39	3895.2	
406.59	5056.4	
406.79	4657.8	
407	3138.2	
407.2	3172.3	
407.4	5269.4	
407.61	5145.2	
407.81	3198.9	
408.01	4193.6	
408.22	4176.5	
408.42	5576.6	
408.62	3897.3	
408.83	3519.8	
409.03	4592.2	
409.23	4631.1	
409.44	3488.4	
409.64	3633.8	
409.84	5282.4	
410.05	5147.9	
410.25	3661.1	
410.45	3436.5	
410.66	4829.8	
410.86	6472.3	
411.06	3729.4	
411.27	3621.5	
411.47	6247	
411.67	4967	
411.88	3768.3	
412.08	3917.1	
412.28	5339.7	
412.49	5621.7	
412.69	3614.7	
412.89	3603.1	
413.09	5504.3	
413.3	5378.6	
413.5	3691.8	
413.7	3403.7	
413.91	5020.3	
414.11	5513.8	
414.31	3510.2	
414.52	3820.1	
414.72	5315.2	
414.92	5155.4	
415.12	3460.4	
415.33	3895.9	
415.53	5430.5	
415.73	5556.1	
415.94	4083	
416.14	3732.1	
416.34	4820.9	
416.55	4646.2	
416.75	4503.5	
416.95	4106.9	
417.15	5540.4	
417.36	5954.1	
417.56	4640.7	
417.76	3942.3	
417.97	5631.9	
418.17	5447.6	
418.37	3786.7	
418.57	3772.4	
418.78	5417.6	
418.98	5148.6	
419.18	4375.1	
419.38	4188.8	
419.59	5081	
419.79	4944.5	
419.99	3673.4	
420.2	3902.7	
420.4	5541.1	
420.6	5513.1	
420.8	3627	
421.01	3477.5	
421.21	5376.6	
421.41	5410.7	
421.61	3857.7	
421.82	3679.5	
422.02	5051.7	
422.22	5714.5	
422.42	4114.4	
422.63	4062.5	
422.83	5109.7	
423.03	5964.4	
423.23	4007.2	
423.44	3352.5	
423.64	5145.2	
423.84	4900.8	
424.04	3652.2	
424.25	3379.8	
424.45	5802.6	
424.65	5668.1	
424.85	3237.8	
425.06	3680.9	
425.26	5890.6	
425.46	5048.9	
425.66	3998.3	
425.87	3743.7	
426.07	5552.7	
426.27	5421.7	
426.47	3865.9	
426.67	3407.8	
426.88	5859.2	
427.08	5449.6	
427.28	4044.1	
427.48	3375.1	
427.69	4784.1	
427.89	5141.8	
428.09	3943	
428.29	3420.8	
428.5	5573.2	
428.7	5358.9	
428.9	3339.6	
429.1	3680.2	
429.3	5326.8	
429.51	5492	
429.71	3543	
429.91	4055.7	
430.11	5476.3	
430.31	5563.6	
430.52	3774.4	
430.72	3941	
430.92	5743.9	
431.12	5388.9	
431.32	3488.4	
431.53	3845.4	
431.73	4804.5	
431.93	5786.2	
432.13	3454.9	
432.33	3339.6	
432.54	5083.7	
432.74	5177.3	
432.94	3291.1	
433.14	4067.3	
433.34	5514.5	
433.55	5102.2	
433.75	3925.3	
433.95	5134.3	
434.15	5300.1	
434.35	4915.8	
434.56	3468.6	
434.76	3111.5	
434.96	5201.8	
435.16	5354.8	
435.36	3374.4	
435.56	4135.5	
435.77	4979.3	
435.97	5122.7	
436.17	4552	
436.37	3999	
436.57	4936.3	
436.78	4831.2	
436.98	3997	
437.18	4476.9	
437.38	5300.1	
437.58	4961.5	
437.78	4539.7	
437.99	3661.8	
438.19	5443.5	
438.39	6022.4	
438.59	3637.2	
438.79	3250.8	
438.99	5864	
439.2	5056.4	
439.4	3355.9	
439.6	3375.7	
439.8	5230.5	
440	5917.9	
440.2	3921.2	
440.4	4035.2	
440.61	5483.8	
440.81	5755.5	
441.01	3416	
441.21	3960.8	
441.41	5715.2	
441.61	5450.3	
441.81	4192.2	
442.02	4826.4	
442.22	6070.2	
442.42	5528.2	
442.62	3450.1	
442.82	3547.8	
443.02	5819	
443.22	5159.5	
443.43	3765.5	
443.63	3369.6	
443.83	5035.3	
444.03	4930.1	
444.23	4240.7	
444.43	3948.5	
444.63	5298.1	
444.83	6025.8	
445.04	3543	
445.24	4359.4	
445.44	5505.6	
445.64	5483.1	
445.84	4091.8	
446.04	4043.4	
446.24	5073.5	
446.44	5740.5	
446.65	3539.6	
446.85	3795.6	
447.05	5330.2	
447.25	5782.1	
447.45	3905.5	
447.65	3447.4	
447.85	5360.9	
448.05	5064.6	
448.25	4024.3	
448.46	3973.1	
448.66	5280.3	
448.86	5077.6	
449.06	3344.3	
449.26	4060.4	
449.46	5420.3	
449.66	4960.2	
449.86	3697.3	
450.06	3712.3	
450.26	5053.7	
450.47	5382.1	
450.67	3918.4	
450.87	4184.7	
451.07	5592.3	
451.27	5238	
451.47	3465.8	
451.67	4014	
451.87	5038	
452.07	5963.7	
452.27	3601	
452.47	3587.4	
452.67	5399.1	
452.88	5527.5	
453.08	3218	
453.28	4495.3	
453.48	6130.3	
453.68	5261.9	
453.88	3487.7	
454.08	3689.8	
454.28	5528.2	
454.48	5304.2	
454.68	3986	
454.88	4439.3	
455.08	5653.8	
455.28	5343.2	
455.48	3455.6	
455.68	3852.9	
455.89	5900.2	
456.09	5657.9	
456.29	3698.6	
456.49	3693.9	
456.69	5776	
456.89	5263.3	
457.09	4074.1	
457.29	4270	
457.49	5474.2	
457.69	5526.8	
457.89	3857.7	
458.09	3489.1	
458.29	5283.1	
458.49	5791.7	
458.69	4078.9	
458.89	3733.4	
459.09	5870.2	
459.29	5967.1	
459.49	3832.4	
459.69	4330.1	
459.9	5669.5	
460.1	5257.1	
460.3	3791.5	
460.5	3625.6	
460.7	5717.2	
460.9	5266.7	
461.1	3427.6	
461.3	4084.3	
461.5	6010.1	
461.7	5703.6	
461.9	3588.7	
462.1	3895.2	
462.3	5380.7	
462.5	5803.3	
462.7	3610.6	
462.9	3736.2	
463.1	6460	
463.3	6183.5	
463.5	3855	
463.7	4412.7	
463.9	5582.8	
464.1	5683.8	
464.3	3784.6	
464.5	4073.4	
464.7	5920.7	
464.9	5593.7	
465.1	4876.2	
465.3	4209.3	
465.5	6036	
465.7	6079.7	
465.9	4356	
466.1	4305.5	
466.3	5890	
466.5	5840.8	
466.7	4792.2	
466.9	4083	
467.1	5870.2	
467.3	6389	
467.5	4702.8	
467.7	4005.1	
467.9	6567.8	
468.1	7097.6	
468.3	4545.1	
468.5	4838	
468.7	5686.5	
468.9	5663.3	
469.1	4228.4	
469.3	4659.8	
469.5	7009.5	
469.7	5429.8	
469.9	4539	
470.1	4041.3	
470.3	5833.3	
470.5	5756.8	
470.7	4894.6	
470.9	4123.9	
471.1	5621	
471.3	5948.7	
471.5	3982.6	
471.69	5229.8	
471.89	5619.6	
472.09	5193	
472.29	4526.7	
472.49	4819.6	
472.69	5350.7	
472.89	5849.7	
473.09	3943	
473.29	4103.4	
473.49	5563	
473.69	5504.9	
473.89	4715.8	
474.09	4134.2	
474.29	6433.4	
474.49	6206	
474.69	4643.4	
474.89	4255	
475.09	5641.5	
475.29	5535	
475.49	3905.5	
475.69	4007.9	
475.88	6703.7	
476.08	5887.9	
476.28	3781.9	
476.48	4162.2	
476.68	6205.3	
476.88	5984.8	
477.08	4083	
477.28	4326.7	
477.48	5816.9	
477.68	6154.1	
477.88	3926.6	
478.08	4149.2	
478.28	6343.2	
478.48	5795.1	
478.67	4250.2	
478.87	3779.9	
479.07	6201.2	
479.27	5909.1	
479.47	4304.8	
479.67	4386.7	
479.87	6091.3	
480.07	6386.2	
480.27	3908.9	
480.47	4902.8	
480.67	5892.7	
480.87	6284.5	
481.06	4057.7	
481.26	4597	
481.46	5888.6	
481.66	5780.7	
481.86	4385.4	
482.06	4979.3	
482.26	5651.7	
482.46	6358.9	
482.66	4274.8	
482.86	4040	
483.05	5976	
483.25	5521.3	
483.45	5971.9	
483.65	4280.9	
483.85	5559.6	
484.05	5787.6	
484.25	4557.4	
484.45	4851	
484.65	6232	
484.84	6316.6	
485.04	4239.3	
485.24	4194.2	
485.44	6603.3	
485.64	5393.7	
485.84	3715.7	
486.04	4646.2	
486.24	5689.9	
486.44	5810.1	
486.63	3715.7	
486.83	4265.9	
487.03	5596.4	
487.23	5690.6	
487.43	3819.5	
487.63	5317.2	
487.83	5752.7	
488.02	6229.2	
488.22	4400.4	
488.42	4800.4	
488.62	6296.8	
488.82	5464	
489.02	4203.1	
489.22	4143.7	
489.41	6215.6	
489.61	5979.4	
489.81	3961.5	
490.01	3957.4	
490.21	6206.7	
490.41	6620.4	
490.61	3956.7	
490.8	4089.1	
491	5813.5	
491.2	5436	
491.4	4507.6	
491.6	3944.4	
491.8	5915.2	
491.99	5900.9	
492.19	3840.6	
492.39	4074.1	
492.59	6199.9	
492.79	6283.2	
492.99	4535.6	
493.18	3976.5	
493.38	6277.7	
493.58	6699.6	
493.78	4397.7	
493.98	4156	
494.18	5995.8	
494.37	5621	
494.57	4547.9	
494.77	4471.4	
494.97	6098.2	
495.17	6294.1	
495.37	4149.2	
495.56	4442.7	
495.76	6337.8	
495.96	6158.9	
496.16	5113.1	
496.36	4268	
496.55	6318.7	
496.75	5933	
496.95	4541.7	
497.15	4494.6	
497.35	6307.1	
497.54	6172.6	
497.74	4332.8	
497.94	5569.1	
498.14	6764.4	
498.34	6509.8	
498.53	4108.9	
498.73	4580.6	
498.93	5710.4	
499.13	6149.4	
499.33	4463.9	
499.52	4826.4	
499.72	6199.2	
499.92	6306.4	
500.12	4251.6	
500.32	4420.9	
500.51	6303	
500.71	6112.5	
500.91	4934.9	
501.11	4697.4	
501.31	6264.1	
501.5	6660.7	
501.7	5154.7	
501.9	4509.6	
502.1	6150.1	
502.29	6489.3	
502.49	4812	
502.69	5110.4	
502.89	6406.7	
503.09	6310.5	
503.28	4132.1	
503.48	4273.4	
503.68	5907	
503.88	5847	
504.07	4873.5	
504.27	4521.2	
504.47	6191	
504.67	6247.7	
504.86	4844.1	
505.06	4622.9	
505.26	6003.3	
505.46	7042.3	
505.65	4586.1	
505.85	4758.8	
506.05	6052.4	
506.25	6294.8	
506.44	4260.5	
506.64	4783.4	
506.84	5904.3	
507.04	6484.6	
507.23	4414.7	
507.43	4717.2	
507.63	7167.9	
507.83	5981.4	
508.02	4786.8	
508.22	4459.8	
508.42	7336.5	
508.62	5867.4	
508.81	4633.9	
509.01	4987.5	
509.21	5809.4	
509.4	6047	
509.6	4838.7	
509.8	4349.9	
510	6081.1	
510.19	6811.5	
510.39	4272.7	
510.59	4349.9	
510.79	5913.9	
510.98	6778.1	
511.18	4465.3	
511.38	4472.1	
511.57	6559	
511.77	6192.4	
511.97	4999.8	
512.17	4335.5	
512.36	6378.7	
512.56	6294.8	
512.76	4243.4	
512.95	4177.9	
513.15	6617.7	
513.35	5481	
513.55	4950.6	
513.74	4323.3	
513.94	6489.3	
514.14	5978	
514.33	5016.2	
514.53	4839.4	
514.73	6107	
514.92	6107	
515.12	4360.1	
515.32	4341.7	
515.51	6219	
515.71	6441.5	
515.91	5554.8	
516.11	4304.1	
516.3	7254.6	
516.5	5937.1	
516.7	4772.4	
516.89	5076.9	
517.09	6072.2	
517.29	6008.1	
517.48	5095.3	
517.68	4530.8	
517.88	5818.3	
518.07	6277.7	
518.27	4902.8	
518.47	4251.6	
518.66	6688.7	
518.86	5748.6	
519.06	4163.5	
519.25	4471.4	
519.45	5950	
519.65	6929.6	
519.84	4885.8	
520.04	5303.6	
520.24	7167.2	
520.43	6408.1	
520.63	4676.9	
520.83	4562.9	
521.02	5909.8	
521.22	6363	
521.42	4875.5	
521.61	5245.5	
521.81	6094.8	
522.01	6268.1	
522.2	4822.3	
522.4	4573.1	
522.6	6539.8	
522.79	5627.1	
522.99	4710.3	
523.18	4241.3	
523.38	6369.2	
523.58	6221	
523.77	5451	
523.97	4194.2	
524.17	7471	
524.36	6960.4	
524.56	5072.8	
524.76	4814.8	
524.95	6214.9	
525.15	6004	
525.34	4798.4	
525.54	4739.7	
525.74	6487.3	
525.93	5806.7	
526.13	5515.2	
526.33	4657.1	
526.52	6796.5	
526.72	6307.7	
526.91	5501.5	
527.11	5018.2	
527.31	6632	
527.5	6944	
527.7	4948.6	
527.89	4288.4	
528.09	5982.1	
528.29	6321.4	
528.48	5177.9	
528.68	4994.3	
528.87	6646.3	
529.07	6703.7	
529.27	4952	
529.46	4683	
529.66	6440.2	
529.85	6728.3	
530.05	4540.3	
530.25	5042.1	
530.44	7328.3	
530.64	6396.5	
530.83	4832.5	
531.03	4945.2	
531.23	6769.9	
531.42	6597.2	
531.62	5412.1	
531.81	4899.4	
532.01	6916	
532.21	6920.8	
532.4	4726	
532.6	4890.5	
532.79	7224.6	
532.99	6742.6	
533.18	4980.7	
533.38	5670.1	
533.58	6473.6	
533.77	6909.8	
533.97	4925.4	
534.16	5556.8	
534.36	7043	
534.55	6423.8	
534.75	5593	
534.95	4967.7	
535.14	7049.8	
535.34	6477	
535.53	4724.7	
535.73	6121.4	
535.92	7421.8	
536.12	6642.9	
536.31	4934.2	
536.51	5685.8	
536.71	6782.2	
536.9	6459.3	
537.1	4986.1	
537.29	5104.2	
537.49	7191.1	
537.68	6436.8	
537.88	5296.7	
538.07	4755.4	
538.27	6619	
538.46	7275.1	
538.66	4667.3	
538.86	5001.8	
539.05	6674.3	
539.25	6913.9	
539.44	5255.8	
539.64	4922	
539.83	6555.5	
540.03	7253.9	
540.22	4840.7	
540.42	5008	
540.61	6836.1	
540.81	6803.4	
541	5270.1	
541.2	5634.6	
541.39	6432.7	
541.59	6624.5	
541.78	5498.1	
541.98	4910.3	
542.18	6217	
542.37	6118.6	
542.57	5236	
542.76	5489.9	
542.96	6331	
543.15	6804	
543.35	5202.5	
543.54	4786.8	
543.74	6872.3	
543.93	6702.3	
544.13	5206.6	
544.32	5945.9	
544.52	6983.6	
544.71	6365.1	
544.91	4633.2	
545.1	5473.5	
545.3	6445.6	
545.49	6744	
545.69	4641.4	
545.88	4967.7	
546.08	7498.3	
546.27	7141.3	
546.47	5360.2	
546.66	4798.4	
546.86	6984.3	
547.05	7322.9	
547.24	4948.6	
547.44	4872.8	
547.63	6326.2	
547.83	6990.4	
548.02	5117.9	
548.22	5285.8	
548.41	6176	
548.61	7122.8	
548.8	4934.9	
549	4891.2	
549.19	6721.4	
549.39	6853.9	
549.58	4688.5	
549.78	5119.9	
549.97	6880.5	
550.17	6614.3	
550.36	5670.1	
550.55	6270.2	
550.75	6622.4	
550.94	7139.2	
551.14	4801.1	
551.33	5248.9	
551.53	6178.7	
551.72	6763.8	
551.92	5079.6	
552.11	5001.8	
552.31	6842.9	
552.5	6857.3	
552.69	6154.8	
552.89	4668.7	
553.08	6874.3	
553.28	6660	
553.47	4980	
553.67	5757.5	
553.86	7307.2	
554.06	6091.3	
554.25	4519.9	
554.44	4825	
554.64	7822.6	
554.83	7486	
555.03	4868	
555.22	5085.1	
555.42	7019.8	
555.61	6737.1	
555.8	4984.8	
556	5110.4	
556.19	6266.8	
556.39	7054.6	
556.58	4996.4	
556.78	5040.1	
556.97	6781.5	
557.16	6451.8	
557.36	5895.4	
557.55	4819.6	
557.75	6057.2	
557.94	7270.3	
558.13	4868	
558.33	4710.3	
558.52	7069.6	
558.72	6249.7	
558.91	4742.4	
559.1	4931.5	
559.3	6217.6	
559.49	6045.6	
559.69	4518.5	
559.88	5099.4	
560.07	6692.1	
560.27	6994.5	
560.46	5307	
560.66	5430.5	
560.85	6623.1	
561.04	6065.4	
561.24	4775.9	
561.43	4877.6	
561.63	6195.8	
561.82	6376	
562.01	5705	
562.21	5197.1	
562.4	6684.6	
562.59	7328.3	
562.79	5022.3	
562.98	4761.5	
563.18	6640.9	
563.37	7537.2	
563.56	5294.7	
563.76	4758.1	
563.95	6311.8	
564.14	6245.6	
564.34	5030.5	
564.53	4798.4	
564.73	6710.5	
564.92	6755.6	
565.11	5126.7	
565.31	4696.7	
565.5	7092.8	
565.69	6214.9	
565.89	4866.7	
566.08	4945.2	
566.27	6869.6	
566.47	7191.8	
566.66	5450.3	
566.85	4631.1	
567.05	6744	
567.24	6337.1	
567.44	4785.4	
567.63	5701.5	
567.82	6873.7	
568.02	6623.8	
568.21	4818.2	
568.4	5046.2	
568.6	6614.3	
568.79	6511.2	
568.98	4683	
569.18	4734.2	
569.37	6563.1	
569.56	7835.5	
569.76	5115.8	
569.95	5692.7	
570.14	6856.6	
570.34	6720.8	
570.53	4729.4	
570.72	4676.2	
570.91	7187	
571.11	6590.4	
571.3	5141.1	
571.49	5659.2	
571.69	6576.7	
571.88	6245.6	
572.07	5351.3	
572.27	5358.2	
572.46	6236.1	
572.65	6904.4	
572.85	4899.4	
573.04	5055.8	
573.23	7137.2	
573.43	6634.7	
573.62	4762.2	
573.81	5115.1	
574	6750.8	
574.2	6487.3	
574.39	5001.1	
574.58	5081	
574.78	7181.5	
574.97	6662.7	
575.16	5340.4	
575.36	5352.7	
575.55	6969.2	
575.74	7078.5	
575.93	4702.1	
576.13	5403.2	
576.32	6561	
576.51	6919.4	
576.71	5056.4	
576.9	5943.9	
577.09	7207.5	
577.28	6848.4	
577.48	5335	
577.67	4673.5	
577.86	6627.2	
578.05	6822.5	
578.25	5077.6	
578.44	5087.8	
578.63	6679.8	
578.83	7395.2	
579.02	4780	
579.21	5756.2	
579.4	6810.2	
579.6	6622.4	
579.79	5200.5	
579.98	6668.2	
580.17	6997.9	
580.37	7150.1	
580.56	4815.5	
580.75	5410.7	
580.94	7213.6	
581.14	7308.5	
581.33	5684.5	
581.52	4965	
581.71	6897.6	
581.91	7470.3	
582.1	4762.9	
582.29	5145.2	
582.48	6746.7	
582.68	6639.5	
582.87	5509	
583.06	5268.7	
583.25	6989	
583.45	6792.4	
583.64	5662.6	
583.83	6088.6	
584.02	6737.8	
584.21	6939.9	
584.41	5669.5	
584.6	5175.9	
584.79	6804.7	
584.98	7133.1	
585.18	4841.4	
585.37	4863.2	
585.56	6523.5	
585.75	6976.7	
585.94	4952	
586.14	5410.1	
586.33	7364.5	
586.52	6685.3	
586.71	5410.1	
586.91	5177.3	
587.1	6333.7	
587.29	7101.7	
587.48	5096	
587.67	5063.3	
587.87	6841.6	
588.06	6945.3	
588.25	5937.7	
588.44	5504.3	
588.63	6724.8	
588.83	7086.7	
589.02	5180	
589.21	5048.9	
589.4	6633.4	
589.59	6550.8	
589.78	4540.3	
589.98	4798.4	
590.17	6238.8	
590.36	6627.9	
590.55	4362.9	
590.74	5005.9	
590.94	7468.9	
591.13	6518	
591.32	4838.7	
591.51	4466.6	
591.7	6912.6	
591.89	6527.6	
592.09	4530.8	
592.28	4881	
592.47	5980.1	
592.66	7339.2	
592.85	4583.4	
593.05	4730.1	
593.24	6369.2	
593.43	6995.9	
593.62	4829.8	
593.81	5083.1	
594	6483.9	
594.19	6645.7	
594.39	4730.8	
594.58	4691.2	
594.77	6711.2	
594.96	7075.7	
595.15	4683.7	
595.34	5157.5	
595.54	6615.6	
595.73	6131.6	
595.92	4279.6	
596.11	5032.5	
596.3	6993.8	
596.49	6217	
596.68	4959.5	
596.88	5116.5	
597.07	6809.5	
597.26	6038.1	
597.45	4584	
597.64	5407.3	
597.83	6294.8	
598.02	6692.8	
598.22	4613.4	
598.41	5035.3	
598.6	6518.7	
598.79	6145.3	
598.98	4712.4	
599.17	5301.5	
599.36	6580.8	
599.55	7273.7	
599.74	6012.8	
599.94	5834.7	
600.13	6980.8	
600.32	6146	
600.51	4433.9	
600.7	4577.2	
600.89	7335.8	
601.08	7471.7	
601.27	4454.3	
601.47	5055.1	
601.66	6827.2	
601.85	7220.5	
602.04	4956.8	
602.23	4975.2	
602.42	6273.6	
602.61	6692.1	
602.8	4857.8	
602.99	4702.1	
603.18	6505.7	
603.37	6666.8	
603.57	5170.4	
603.76	5489.2	
603.95	7152.2	
604.14	6715.3	
604.33	4827.7	
604.52	4990.2	
604.71	6648.4	
604.9	6303	
605.09	5421.7	
605.28	5251	
605.47	7049.1	
605.66	6707.1	
605.86	5128.8	
606.05	4779.3	
606.24	7119.4	
606.43	6010.1	
606.62	4982.7	
606.81	5459.9	
607	6953.5	
607.19	6422.4	
607.38	4571.7	
607.57	4763.6	
607.76	6268.1	
607.95	5943.9	
608.14	5058.5	
608.33	5370.5	
608.52	6282.5	
608.72	6891.4	
608.91	4587.4	
609.1	4492.6	
609.29	6419	
609.48	6038.8	
609.67	5171.8	
609.86	4561.5	
610.05	6087.2	
610.24	6287.9	
610.43	4441.4	
610.62	4298.7	
610.81	7086	
611	6965.1	
611.19	4608.6	
611.38	5039.4	
611.57	6590.4	
611.76	7348.8	
611.95	4422.9	
612.14	4349.2	
612.33	6402.6	
612.52	6154.1	
612.71	4820.2	
612.9	4252.9	
613.09	5884.5	
613.28	7463.5	
613.47	4695.3	
613.66	5175.2	
613.85	6565.8	
614.04	6104.3	
614.24	4703.5	
614.43	4108.2	
614.62	6647.7	
614.81	6548.7	
615	4982.7	
615.19	5030.5	
615.38	6096.8	
615.57	6393.8	
615.76	4991.6	
615.95	5540.4	
616.14	6658.6	
616.33	6483.9	
616.52	5236.7	
616.71	5266.7	
616.9	6617	
617.09	6465.4	
617.28	4738.3	
617.47	5499.5	
617.66	6129.6	
617.85	5978.7	
618.04	5311.1	
618.22	5010	
618.41	6241.5	
618.6	6877.1	
618.79	4951.3	
618.98	4717.8	
619.17	7000.6	
619.36	5854.5	
619.55	4842.8	
619.74	4821.6	
619.93	6563.1	
620.12	6135.7	
620.31	5220.3	
620.5	5335	
620.69	6949.4	
620.88	7238.2	
621.07	5785.5	
621.26	5137	
621.45	6696.2	
621.64	6638.8	
621.83	5231.2	
622.02	4622.9	
622.21	6812.9	
622.4	6574	
622.59	5550.7	
622.78	5403.2	
622.97	6315.3	
623.16	6939.2	
623.35	5223	
623.54	4554	
623.72	6410.1	
623.91	6492.1	
624.1	5403.2	
624.29	4502.1	
624.48	7210.9	
624.67	6780.1	
624.86	5255.1	
625.05	4659.8	
625.24	7339.9	
625.43	6332.3	
625.62	6468.2	
625.81	4784.1	
626	6937.2	
626.19	6414.9	
626.38	5267.4	
626.56	4982	
626.75	6309.8	
626.94	6842.3	
627.13	5307.7	
627.32	4458.4	
627.51	6821.1	
627.7	7584.3	
627.89	4608.6	
628.08	5362.3	
628.27	6210.1	
628.46	6459.3	
628.65	4851.6	
628.83	4551.3	
629.02	6822.5	
629.21	6239.5	
629.4	5104.2	
629.59	5215.5	
629.78	6244.3	
629.97	6885.3	
630.16	5216.9	
630.35	4887.8	
630.54	7188.4	
630.72	6978.8	
630.91	4896.7	
631.1	5229.8	
631.29	6594.5	
631.48	6705	
631.67	5322.7	
631.86	4945.2	
632.05	6452.5	
632.24	6441.5	
632.42	4716.5	
632.61	5123.3	
632.8	6524.1	
632.99	6079.1	
633.18	5167	
633.37	5372.5	
633.56	6673	
633.75	6556.2	
633.93	5115.8	
634.12	5018.2	
634.31	7262.1	
634.5	6977.4	
634.69	5014.8	
634.88	5386.2	
635.07	6516.6	
635.25	6903.7	
635.44	5642.8	
635.63	5714.5	
635.82	6442.2	
636.01	5987.6	
636.2	5575.9	
636.39	5282.4	
636.57	7266.9	
636.76	6878.4	
636.95	4868	
637.14	5749.3	
637.33	6806.8	
637.52	7339.2	
637.7	4700.8	
637.89	5438.7	
638.08	6505	
638.27	7477.8	
638.46	5373.2	
638.65	5681.7	
638.83	7406.1	
639.02	6367.8	
639.21	5358.9	
639.4	5696.8	
639.59	6688	
639.78	6515.3	
639.96	4791.6	
640.15	4900.8	
640.34	6671.6	
640.53	6676.4	
640.72	4726	
640.91	4974.5	
641.09	6247.7	
641.28	7077.8	
641.47	4932.9	
641.66	5446.9	
641.85	6666.1	
642.03	6784.2	
642.22	5319.9	
642.41	4991.6	
642.6	6308.4	
642.79	5900.9	
642.97	4823.6	
643.16	5338.4	
643.35	6183.5	
643.54	6126.2	
643.73	4808.6	
643.91	5315.2	
644.1	6115.2	
644.29	6439.5	
644.48	4875.5	
644.67	4914.4	
644.85	6077	
645.04	6469.5	
645.23	4583.4	
645.42	4853	
645.6	6091.3	
645.79	6838.9	
645.98	4787.5	
646.17	4138.9	
646.36	5943.2	
646.54	6339.1	
646.73	5330.2	
646.92	4540.3	
647.11	6071.5	
647.29	6709.1	
647.48	4527.4	
647.67	4398.4	
647.86	7019.1	
648.05	6941.9	
648.23	4769	
648.42	5591	
648.61	6562.4	
648.8	6352.8	
648.98	4514.4	
649.17	4834.6	
649.36	6075	
649.55	5710.4	
649.73	4571.7	
649.92	5054.4	
650.11	5960.3	
650.3	6167.1	
650.48	4675.5	
650.67	4584.7	
650.86	6424.5	
651.05	5653.8	
651.23	4661.9	
651.42	4605.9	
651.61	6093.4	
651.79	6049	
651.98	4777.9	
652.17	4543.8	
652.36	6365.1	
652.54	5711.1	
652.73	4582.7	
652.92	4505.5	
653.11	6340.5	
653.29	6453.1	
653.48	4126.7	
653.67	4742.4	
653.85	6178.7	
654.04	6921.5	
654.23	4900.8	
654.42	4608.6	
654.6	5904.3	
654.79	6351.4	
654.98	4314.4	
655.16	4645.5	
655.35	5732.9	
655.54	5551.4	
655.73	4287.1	
655.91	4192.9	
656.1	6294.8	
656.29	5487.2	
656.47	3958.7	
656.66	5079	
656.85	5850.4	
657.03	5814.2	
657.22	4323.3	
657.41	4420.9	
657.59	5868.1	
657.78	5702.2	
657.97	4091.8	
658.16	4564.2	
658.34	6303	
658.53	6537.8	
658.72	5285.8	
658.9	5528.2	
659.09	6105	
659.28	5963	
659.46	4392.9	
659.65	4395.6	
659.84	5755.5	
660.02	6168.5	
660.21	4411.3	
660.4	4296.6	
660.58	6416.3	
660.77	5968.5	
660.96	4741	
661.14	4086.4	
661.33	6805.4	
661.52	6759.7	
661.7	4057	
661.89	6412.9	
662.08	5732.3	
662.26	5390.9	
662.45	4218.1	
662.64	4415.4	
662.82	6240.2	
663.01	5644.2	
663.2	4379.9	
663.38	4808.6	
663.57	6157.6	
663.75	6029.2	
663.94	4571.7	
664.13	5375.9	
664.31	5799.8	
664.5	6184.9	
664.69	4858.5	
664.87	5110.4	
665.06	5625.8	
665.25	6008.1	
665.43	5236	
665.62	5203.9	
665.8	6264.1	
665.99	5791	
666.18	4614.8	
666.36	4620.9	
666.55	6279.1	
666.74	6119.3	
666.92	4321.9	
667.11	5488.6	
667.29	5849	
667.48	6231.3	
667.67	5108.3	
667.85	4498.7	
668.04	5815.5	
668.22	5768.4	
668.41	4661.9	
668.6	4793.6	
668.78	5674.2	
668.97	5788.2	
669.15	4873.5	
669.34	4163.5	
669.53	5763.7	
669.71	5934.3	
669.9	4261.8	
670.08	4728.8	
670.27	5668.8	
670.46	6149.4	
670.64	4893.3	
670.83	5047.6	
671.01	5558.2	
671.2	6023.8	
671.38	4463.9	
671.57	4265.2	
671.76	6491.4	
671.94	6785.6	
672.13	4227.7	
672.31	4968.4	
672.5	6277.7	
672.69	5804.6	
672.87	4362.2	
673.06	4516.5	
673.24	6098.9	
673.43	5737	
673.61	4790.2	
673.8	4511.7	
673.98	6237.4	
674.17	6240.2	
674.36	4928.8	
674.54	4846.2	
674.73	5898.2	
674.91	6217.6	
675.1	4567	
675.28	4339.6	
675.47	5926.8	
675.65	6296.8	
675.84	4575.2	
676.03	4720.6	
676.21	5840.1	
676.4	5369.1	
676.58	5017.5	
676.77	4870.8	
676.95	6818.4	
677.14	5764.3	
677.32	4289.1	
677.51	4188.8	
677.69	6262.7	
677.88	5528.8	
678.06	4343.7	
678.25	4345.1	
678.44	5840.8	
678.62	5710.4	
678.81	4211.3	
678.99	4775.2	
679.18	6506.4	
679.36	6151.4	
679.55	4556.7	
679.73	4904.9	
679.92	6138.4	
680.1	5711.8	
680.29	5436.7	
680.47	4507.6	
680.66	5741.8	
680.84	6240.8	
681.03	4088.4	
681.21	4906.9	
681.4	5857.9	
681.58	5694	
681.77	4389.5	
681.95	4367	
682.14	6356.2	
682.32	6522.8	
682.51	4999.8	
682.69	4212.7	
682.88	5696.1	
683.06	6128.9	
683.25	4767.7	
683.43	5079.6	
683.62	5915.2	
683.8	6235.4	
683.99	5184.1	
684.17	4678.2	
684.36	6802	
684.54	5902.2	
684.73	4227	
684.91	4280.9	
685.1	6095.4	
685.28	5705	
685.46	4687.1	
685.65	4727.4	
685.83	6174.6	
686.02	5765.7	
686.2	4326.7	
686.39	4432.5	
686.57	5608.7	
686.76	6587.6	
686.94	4317.1	
687.13	4449.6	
687.31	6053.1	
687.5	5768.4	
687.68	4052.9	
687.86	4842.8	
688.05	6978.8	
688.23	5436	
688.42	4823	
688.6	4374.5	
688.79	5681.1	
688.97	5743.9	
689.16	4627.7	
689.34	3910.3	
689.52	6225.1	
689.71	6423.8	
689.89	4793.6	
690.08	4328.7	
690.26	6018.3	
690.45	5722	
690.63	4959.5	
690.81	4541	
691	5814.2	
691.18	5721.3	
691.37	4662.5	
691.55	6057.9	
691.74	5629.2	
691.92	7073	
692.1	4562.9	
692.29	4223.6	
692.47	5860.6	
692.66	5436.7	
692.84	4375.1	
693.02	4730.8	
693.21	5400.5	
693.39	5920	
693.58	4789.5	
693.76	4388.8	
693.94	6574	
694.13	6406	
694.31	4439.3	
694.5	5107	
694.68	5713.2	
694.86	6010.8	
695.05	4691.9	
695.23	4955.4	
695.42	6271.6	
695.6	7686	
695.78	5097.4	
695.97	4560.8	
696.15	6266.1	
696.34	5801.2	
696.52	4321.2	
696.7	4944.5	
696.89	6128.9	
697.07	5610.8	
697.25	4869.4	
697.44	5844.2	
697.62	6135	
697.81	6243.6	
697.99	4665.3	
698.17	4949.9	
698.36	5764.3	
698.54	6102.9	
698.72	4924.7	
698.91	4199.7	
699.09	5867.4	
699.28	5717.2	
699.46	4685.8	
699.64	4564.2	
699.83	5737	
700.01	6447.7	
700.19	5169.1	
700.38	4059.1	
700.56	6450.4	
700.74	5801.9	
700.93	4263.9	
701.11	4896	
701.29	6116.6	
701.48	6894.1	
701.66	4457.7	
701.84	4554.7	
702.03	5920.7	
702.21	6373.3	
702.39	4178.5	
702.58	4587.4	
702.76	6212.2	
702.94	6209.4	
703.13	4197	
703.31	5898.8	
703.49	5772.5	
703.68	6435.4	
703.86	4377.9	
704.04	5019.6	
704.23	6064.7	
704.41	6309.8	
704.59	4488.5	
704.78	5297.4	
704.96	7175.4	
705.14	6282.5	
705.33	4335.5	
705.51	4840	
705.69	5849.7	
705.87	6505	
706.06	4990.9	
706.24	4316.4	
706.42	6224.5	
706.61	6264.7	
706.79	5063.9	
706.97	4328	
707.16	5831.2	
707.34	6156.9	
707.52	4994.3	
707.7	4465.9	
707.89	5791.7	
708.07	5650.3	
708.25	5027.8	
708.44	5128.8	
708.62	5784.8	
708.8	6578.8	
708.98	5238	
709.17	4564.2	
709.35	6028.5	
709.53	6093.4	
709.72	4346.5	
709.9	4459.8	
710.08	6414.2	
710.26	6390.3	
710.45	5435.3	
710.63	4619.5	
710.81	6014.9	
710.99	6072.2	
711.18	5010.7	
711.36	4645.5	
711.54	5888.6	
711.72	6500.9	
711.91	4732.9	
712.09	4347.2	
712.27	6041.5	
712.45	6395.1	
712.64	4909	
712.82	4176.5	
713	5655.8	
713.18	5810.8	
713.37	4171.7	
713.55	5061.9	
713.73	6358.3	
713.91	5424.4	
714.1	4431.1	
714.28	4201.7	
714.46	6083.1	
714.64	5600.5	
714.83	3843.4	
715.01	4258.4	
715.19	5642.8	
715.37	5172.5	
715.55	4025.6	
715.74	4218.1	
715.92	6181.5	
716.1	4800.4	
716.28	5063.9	
716.47	4396.3	
716.65	5364.3	
716.83	5330.2	
717.01	4248.2	
717.19	4220.9	
717.38	6744	
717.56	5164.3	
717.74	4380.6	
717.92	3812.6	
718.1	5945.9	
718.29	5358.9	
718.47	3556.6	
718.65	3994.2	
718.83	5896.8	
719.01	5815.5	
719.2	3509.5	
719.38	4267.3	
719.56	5696.8	
719.74	6653.9	
719.92	4015.4	
720.11	4674.8	
720.29	5740.5	
720.47	5115.1	
720.65	3708.9	
720.83	4317.8	
721.02	5442.8	
721.2	5223	
721.38	4400.4	
721.56	3811.3	
721.74	4833.9	
721.92	5005.9	
722.11	4591.5	
722.29	4420.2	
722.47	5791	
722.65	5281.7	
722.83	3820.1	
723.01	4384	
723.2	5266	
723.38	5497.4	
723.56	3453.6	
723.74	4213.4	
723.92	5010.7	
724.1	5702.2	
724.29	3764.8	
724.47	4437.3	
724.65	5076.2	
724.83	4941.1	
725.01	3710.9	
725.19	4193.6	
725.37	4982.7	
725.56	4937	
725.74	3628.3	
725.92	3738.2	
726.1	5008.6	
726.28	5250.3	
726.46	4009.9	
726.64	3846.1	
726.83	5273.5	
727.01	5244.8	
727.19	3653.6	
727.37	4163.5	
727.55	5369.1	
727.73	5592.3	
727.91	3602.4	
728.09	3440.6	
728.28	5587.5	
728.46	5699.5	
728.64	4095.9	
728.82	4114.4	
729	6288.6	
729.18	5863.3	
729.36	3571.7	
729.54	5128.1	
729.72	6397.9	
729.91	5332.2	
730.09	4913.8	
730.27	4072	
730.45	5272.2	
730.63	5660.6	
730.81	4428.4	
730.99	3795.6	
731.17	6064	
731.35	5116.5	
731.53	4106.9	
731.71	3890.5	
731.9	5876.3	
732.08	5868.1	
732.26	4081.6	
732.44	3877.5	
732.62	5962.3	
732.8	5627.1	
732.98	4372.4	
733.16	3728	
733.34	5573.2	
733.52	4817.5	
733.7	4088.4	
733.88	4228.4	
734.07	5477.6	
734.25	5325.4	
734.43	3635.8	
734.61	4663.2	
734.79	6345.3	
734.97	5298.1	
735.15	3746.4	
735.33	3967.6	
735.51	5547.9	
735.69	5236	
735.87	4733.5	
736.05	4156.7	
736.23	5399.8	
736.41	5147.2	
736.59	4059.1	
736.77	4083.6	
736.95	5638.7	
737.13	5231.2	
737.32	3725.3	
737.5	3862.5	
737.68	6030.6	
737.86	5173.2	
738.04	3600.3	
738.22	4855.7	
738.4	5082.4	
738.58	5331.5	
738.76	4053.6	
738.94	3346.4	
739.12	5158.2	
739.3	5072.8	
739.48	4472.8	
739.66	4273.4	
739.84	5358.9	
740.02	5284.4	
740.2	3444.7	
740.38	3578.5	
740.56	5539.1	
740.74	4740.4	
740.92	4132.8	
741.1	3986	
741.28	5241.4	
741.46	5025.7	
741.64	3818.8	
741.82	4147.8	
742	5225.7	
742.18	5145.9	
742.36	3919.8	
742.54	3665.2	
742.72	5594.4	
742.9	4655.7	
743.08	4220.9	
743.26	3298.6	
743.44	5649.7	
743.62	5562.3	
743.8	4291.9	
743.98	3620.8	
744.16	5355.4	
744.34	5127.4	
744.52	4119.1	
744.7	4208.6	
744.88	5474.9	
745.06	5180	
745.24	4229.7	
745.42	4294.6	
745.6	5581.4	
745.78	5414.1	
745.96	3435.8	
746.14	3606.5	
746.32	6075.6	
746.5	5422.3	
746.68	3925.3	
746.86	3601.7	
747.03	5796.4	
747.21	4679.6	
747.39	4057	
747.57	3627.6	
747.75	5184.8	
747.93	5465.3	
748.11	3541.6	
748.29	3471.3	
748.47	6343.2	
748.65	5031.2	
748.83	4124.6	
749.01	3839.3	
749.19	5406	
749.37	4724	
749.55	3835.2	
749.73	3858.4	
749.91	5207.3	
750.09	4990.2	
750.26	3857	
750.44	3486.3	
750.62	5182	
750.8	5105.6	
750.98	3423.5	
751.16	3602.4	
751.34	5241.4	
751.52	4722.6	
751.7	4164.9	
751.88	3394.2	
752.06	5537	
752.24	5333.6	
752.42	3352.5	
752.59	3660.4	
752.77	5175.9	
752.95	5961	
753.13	4076.8	
753.31	3637.2	
753.49	4892.6	
753.67	5190.2	
753.85	3885	
754.03	3596.2	
754.21	5513.1	
754.38	5577.3	
754.56	3725.9	
754.74	3044.6	
754.92	4919.9	
755.1	5364.3	
755.28	3020.8	
755.46	3101.3	
755.64	5928.9	
755.82	6027.9	
755.99	3305.4	
756.17	3359.4	
756.35	4282.3	
756.53	5296	
756.71	2664.4	
756.89	3267.9	
757.07	5021.6	
757.25	4405.9	
757.42	3618.8	
757.6	4200.4	
757.78	5120.6	
757.96	4397	
758.14	3380.5	
758.32	3085.6	
758.5	4090.5	
758.67	4643.4	
758.85	3257.6	
759.03	3355.3	
759.21	4808.6	
759.39	4434.5	
759.57	3022.1	
759.75	3746.4	
759.92	5237.3	
760.1	4782.7	
760.28	3992.9	
760.46	4197.7	
760.64	4591.5	
760.82	4463.9	
760.99	3936.2	
761.17	3345	
761.35	5196.4	
761.53	4418.2	
761.71	3436.5	
761.89	3900.7	
762.06	5057.8	
762.24	4747.2	
762.42	3523.9	
762.6	3269.9	
762.78	4752.7	
762.96	5138.4	
763.13	3728	
763.31	3514.3	
763.49	5237.3	
763.67	4610	
763.85	4080.2	
764.02	4466.6	
764.2	5513.8	
764.38	4799.8	
764.56	3437.2	
764.74	4115.7	
764.91	5487.9	
765.09	4695.3	
765.27	3255.6	
765.45	3051.5	
765.63	5599.1	
765.8	5438	
765.98	2943.6	
766.16	3131.3	
766.34	4513	
766.52	4220.9	
766.69	3753.2	
766.87	3007.1	
767.05	4763.6	
767.23	5416.9	
767.41	3258.3	
767.58	3444	
767.76	5169.1	
767.94	5236.7	
768.12	3336.8	
768.29	3778.5	
768.47	4749.9	
768.65	5238.7	
768.83	3062.4	
769	3818.1	
769.18	4463.2	
769.36	4924.7	
769.54	3887	
769.72	3041.2	
769.89	5201.8	
770.07	5259.2	
770.25	3349.1	
770.43	4278.9	
770.6	5758.9	
770.78	5988.9	
770.96	3506.1	
771.14	3882.9	
771.31	5171.1	
771.49	4694.6	
771.67	2877.4	
771.85	3031	
772.02	4149.2	
772.2	4726	
772.38	3577.8	
772.55	3133.4	
772.73	4924	
772.91	4717.8	
773.09	3475.4	
773.26	3570.3	
773.44	4923.3	
773.62	4633.9	
773.8	3207.1	
773.97	2998.9	
774.15	4885.1	
774.33	4735.6	
774.5	3091.8	
774.68	3318.4	
774.86	4943.1	
775.04	4693.3	
775.21	3164.1	
775.39	3142.9	
775.57	4899.4	
775.74	5054.4	
775.92	3003.7	
776.1	2889	
776.27	4815.5	
776.45	5638.1	
776.63	3213.9	
776.81	2807.1	
776.98	4643.4	
777.16	5347.9	
777.34	3175	
777.51	3420.8	
777.69	4599.1	
777.87	4407.2	
778.04	3336.1	
778.22	3690.4	
778.4	4447.5	
778.57	4933.6	
778.75	2790	
778.93	2952.5	
779.1	4347.2	
779.28	4167.6	
779.46	2742.2	
779.64	3079.5	
779.81	5077.6	
779.99	5611.4	
780.17	3567.6	
780.34	3709.6	
780.52	4706.9	
780.69	4732.9	
780.87	3302.7	
781.05	3055.6	
781.22	4726.7	
781.4	4735.6	
781.58	3127.9	
781.75	2531.3	
781.93	4744.5	
782.11	4221.5	
782.28	3795.6	
782.46	3112.2	
782.64	4214	
782.81	4849.6	
782.99	3240.6	
783.17	3170.9	
783.34	4713.7	
783.52	4322.6	
783.69	3252.2	
783.87	3863.8	
784.05	4405.2	
784.22	4317.1	
784.4	3812	
784.58	3402.4	
784.75	5051.7	
784.93	4424.3	
785.1	3119.7	
785.28	3543	
785.46	4808.6	
785.63	4272.7	
785.81	3177.1	
785.99	3007.1	
786.16	4507.6	
786.34	4727.4	
786.51	3078.1	
786.69	3386	
786.87	4126	
787.04	4478.9	
787.22	2917.7	
787.39	3543	
787.57	4362.2	
787.75	5080.3	
787.92	3771	
788.1	3631.7	
788.27	4252.9	
788.45	4052.2	
788.63	3532.7	
788.8	2641.9	
788.98	4680.3	
789.15	4063.9	
789.33	2748.4	
789.5	3136.8	
789.68	4949.9	
789.86	5064.6	
790.03	3469.9	
790.21	3042.6	
790.38	5051	
790.56	4406.5	
790.73	2948.4	
790.91	3026.9	
791.09	4350.6	
791.26	4874.8	
791.44	3207.8	
791.61	2743.6	
791.79	4390.2	
791.96	4344.4	
792.14	2867.2	
792.32	2566.1	
792.49	4358.1	
792.67	4395.6	
792.84	2932.7	
793.02	2761.3	
793.19	4663.2	
793.37	5122.7	
793.54	2558.6	
793.72	2837.1	
793.89	5208.7	
794.07	4326.7	
794.25	3239.9	
794.42	2622.1	
794.6	5063.3	
794.77	4758.8	
794.95	3396.9	
795.12	2967.5	
795.3	4387.4	
795.47	4723.3	
795.65	3338.9	
795.82	3178.4	
796	4157.4	
796.17	5403.2	
796.35	3097.9	
796.52	3612.6	
796.7	4743.1	
796.87	4794.3	
797.05	3123.8	
797.22	3602.4	
797.4	4795	
797.57	5455.1	
797.75	3218	
797.92	2988	
798.1	4999.1	
798.27	4196.3	
798.45	2660.3	
798.62	2800.3	
798.8	4528.7	
798.97	4869.4	
799.15	3330	
799.32	3213.9	
799.5	4058.4	
799.67	4530.8	
799.85	3491.8	
800.02	2639.1	
800.2	4280.9	
800.37	4474.8	
800.55	3517	
800.72	3014.6	
800.9	4887.1	
801.07	5127.4	
801.25	3904.1	
801.42	3308.8	
801.6	4921.3	
801.77	4562.2	
801.95	3124.5	
802.12	2967.5	
802.29	4691.9	
802.47	4586.8	
802.64	3315	
802.82	2557.2	
802.99	4284.4	
803.17	4945.8	
803.34	3200.3	
803.52	2888.3	
803.69	5445.5	
803.87	4117.8	
804.04	3208.5	
804.21	3218.7	
804.39	5112.4	
804.56	4400.4	
804.74	2762	
804.91	3275.4	
805.09	4312.3	
805.26	4336.2	
805.44	2805	
805.61	3084.2	
805.78	4771.8	
805.96	4766.3	
806.13	3282.9	
806.31	3496.6	
806.48	4010.6	
806.66	4388.8	
806.83	3244.7	
807	3218	
807.18	4339.6	
807.35	4562.2	
807.53	3046	
807.7	2651.4	
807.87	5117.2	
808.05	4362.2	
808.22	3416.7	
808.4	2656.2	
808.57	4278.2	
808.74	4078.9	
808.92	2974.3	
809.09	3673.4	
809.27	4306.9	
809.44	4627	
809.61	2686.3	
809.79	2905.4	
809.96	5217.5	
810.14	4836.6	
810.31	2663	
810.48	3108.8	
810.66	4382	
810.83	4876.9	
811.01	2979.8	
811.18	3206.4	
811.35	4891.9	
811.53	3876.1	
811.7	3514.3	
811.87	3330.7	
812.05	4398.4	
812.22	4293.9	
812.39	2914.3	
812.57	2811.2	
812.74	4362.9	
812.92	5493.3	
813.09	3117.7	
813.26	3362.8	
813.44	5261.2	
813.61	4257	
813.78	2641.2	
813.96	3398.3	
814.13	4369.7	
814.3	4105.5	
814.48	3692.5	
814.65	3008.5	
814.82	5151.3	
815	4106.9	
815.17	3160.7	
815.34	3751.2	
815.52	4266.6	
815.69	4244.8	
815.87	3123.8	
816.04	3080.8	
816.21	4327.4	
816.38	3932.8	
816.56	3086.3	
816.73	2892.4	
816.9	5304.9	
817.08	4806.6	
817.25	2962.7	
817.42	3493.2	
817.6	4060.4	
817.77	4272.1	
817.94	3186	
818.12	2830.3	
818.29	4166.9	
818.46	5922.7	
818.64	3041.2	
818.81	2798.9	
818.98	4165.6	
819.16	5552.7	
819.33	3409.9	
819.5	3168.9	
819.67	4638.6	
819.85	5037.3	
820.02	3131.3	
820.19	3285.6	
820.37	4447.5	
820.54	4247.5	
820.71	3211.9	
820.88	3917.8	
821.06	4491.2	
821.23	4180.6	
821.4	3244.7	
821.58	3204.4	
821.75	4780.6	
821.92	4486.4	
822.09	2656.2	
822.27	2753.8	
822.44	4323.9	
822.61	4261.8	
822.79	2689.7	
822.96	4789.5	
823.13	4544.4	
823.3	4065.2	
823.48	3016	
823.65	2736.1	
823.82	4831.2	
823.99	4037.2	
824.17	3790.8	
824.34	2818	
824.51	5507	
824.68	4364.9	
824.86	2941.6	
825.03	3166.2	
825.2	4361.5	
825.37	5050.3	
825.55	2880.1	
825.72	3132	
825.89	5404.6	
826.06	5159.5	
826.24	3100.6	
826.41	3112.2	
826.58	5134.9	
826.75	4496	
826.92	2568.8	
827.1	2823.5	
827.27	6617	
827.44	5367	
827.61	2888.3	
827.79	3454.2	
827.96	4179.2	
828.13	4304.8	
828.3	3126.6	
828.47	2614.6	
828.65	4616.1	
828.82	4572.4	
828.99	3781.2	
829.16	3379.1	
829.34	4758.1	
829.51	4720.6	
829.68	3156.6	
829.85	3233.7	
830.02	5111.7	
830.2	4846.9	
830.37	2537.4	
830.54	3656.3	
830.71	5351.3	
830.88	4358.8	
831.05	2504.7	
831.23	2867.2	
831.4	5274.9	
831.57	5628.5	
831.74	2945	
831.91	2668.5	
832.09	4653.7	
832.26	4848.9	
832.43	3013.9	
832.6	3376.4	
832.77	4588.8	
832.94	5097.4	
833.12	2462.3	
833.29	2983.2	
833.46	4670.1	
833.63	5781.4	
833.8	3287	
833.97	3057.6	
834.15	4874.8	
834.32	4640	
834.49	3156.6	
834.66	3171.6	
834.83	4958.1	
835	4243.4	
835.17	2978.4	
835.35	2971.6	
835.52	4756.1	
835.69	4697.4	
835.86	3017.3	
836.03	2590.7	
836.2	4835.3	
836.37	4515.1	
836.55	2951.8	
836.72	2877.4	
836.89	4521.9	
837.06	4924.7	
837.23	3097.2	
837.4	3257	
837.57	5471.5	
837.75	5770.5	
837.92	2760	
838.09	2898.6	
838.26	4528.1	
838.43	4978.6	
838.6	3158	
838.77	2857.6	
838.94	5550	
839.11	5430.5	
839.29	3015.3	
839.46	2477.4	
839.63	4855.1	
839.8	4651.6	
839.97	2925.9	
840.14	2882.9	
840.31	4708.3	
840.48	4809.3	
840.65	2484.9	
840.82	2883.5	
841	4784.1	
841.17	4650.3	
841.34	2737.5	
841.51	2775.7	
841.68	4744.5	
841.85	4568.3	
842.02	2847.4	
842.19	2415.2	
842.36	4636.6	
842.53	4713.7	
842.7	2749.1	
842.87	3226.2	
843.05	5801.2	
843.22	4627.7	
843.39	2621.4	
843.56	2814.6	
843.73	4521.2	
843.9	4896.7	
844.07	4190.8	
844.24	3452.9	
844.41	6442.2	
844.58	4301.4	
844.75	2649.4	
844.92	2815.3	
845.09	4831.2	
845.26	4794.3	
845.43	2794.1	
845.6	2831.7	
845.77	4795.7	
845.94	4629.8	
846.12	3027.6	
846.29	3123.2	
846.46	5014.8	
846.63	4789.5	
846.8	2716.3	
846.97	3160.7	
847.14	5127.4	
847.31	4752	
847.48	3035.1	
847.65	3292.5	
847.82	4943.8	
847.99	4962.9	
848.16	3528.7	
848.33	3297.9	
848.5	4443.4	
848.67	5187.5	
848.84	2680.8	
849.01	2775.7	
849.18	4446.1	
849.35	4206.5	
849.52	3309.5	
849.69	2767.5	
849.86	4983.4	
850.03	5054.4	
850.2	2719	
850.37	3193.5	
850.54	5009.3	
850.71	4573.1	
850.88	3226.2	
851.05	2695.1	
851.22	4708.3	
851.39	5181.4	
851.56	2597.5	
851.73	3025.5	
851.9	4280.9	
852.07	4943.8	
852.24	2967.5	
852.41	2710.1	
852.58	4694.6	
852.75	4329.4	
852.92	3010.5	
853.09	2678.7	
853.26	4461.8	
853.43	5106.3	
853.6	2729.3	
853.77	2344.2	
853.94	5143.8	
854.11	4234.5	
854.28	3865.2	
854.44	2945	
854.61	5436.7	
854.78	5012.7	
854.95	2691	
855.12	3323.9	
855.29	4018.8	
855.46	5227.8	
855.63	2738.1	
855.8	3565.5	
855.97	4481	
856.14	5008.6	
856.31	3708.9	
856.48	2954.5	
856.65	4566.3	
856.82	4308.2	
856.99	2615.9	
857.16	2905.4	
857.33	5617.6	
857.49	4554.7	
857.66	2904	
857.83	3061	
858	4541	
858.17	4681.7	
858.34	2529.9	
858.51	2721.1	
858.68	5229.8	
858.85	5213.4	
859.02	3082.2	
859.19	3258.3	
859.36	4320.5	
859.52	4278.2	
859.69	2752.5	
859.86	3155.9	
860.03	4338.3	
860.2	5160.9	
860.37	2529.2	
860.54	2724.5	
860.71	4945.8	
860.88	5255.8	
861.05	2966.1	
861.21	3379.1	
861.38	5214.8	
861.55	4175.8	
861.72	2546.3	
861.89	3046	
862.06	5014.8	
862.23	5292	
862.4	2637.1	
862.56	2757.9	
862.73	4854.4	
862.9	4592.2	
863.07	3048.7	
863.24	2548.4	
863.41	4264.6	
863.58	4326.7	
863.75	2729.3	
863.91	3117.7	
864.08	5095.3	
864.25	4891.9	
864.42	3307.5	
864.59	3661.1	
864.76	5348.6	
864.93	4302.8	
865.09	2647.3	
865.26	2876	
865.43	5152	
865.6	5324.7	
865.77	2429.6	
865.94	2704	
866.1	5063.3	
866.27	4906.9	
866.44	3912.3	
866.61	2569.5	
866.78	4534.2	
866.95	4841.4	
867.11	2690.3	
867.28	2434.4	
867.45	5023	
867.62	4303.5	
867.79	3073.3	
867.96	2633.7	
868.12	4287.8	
868.29	4922	
868.46	2725.8	
868.63	3560.7	
868.8	5065.3	
868.97	4918.5	
869.13	2809.1	
869.3	2772.3	
869.47	4788.2	
869.64	4960.2	
869.81	2715.6	
869.97	2812.5	
870.14	4745.8	
870.31	5271.5	
870.48	2665.8	
870.65	3293.8	
870.81	4562.9	
870.98	4552.6	
871.15	2994.8	
871.32	2836.4	
871.48	4849.6	
871.65	5295.4	
871.82	2693.8	
871.99	2951.1	
872.16	5513.1	
872.32	5124	
872.49	2753.2	
872.66	2717	
872.83	4944.5	
872.99	4430.4	
873.16	3099.9	
873.33	2684.9	
873.5	4636.6	
873.67	4702.8	
873.83	2824.8	
874	3467.9	
874.17	4763.6	
874.34	5327.4	
874.5	3377.8	
874.67	3269.2	
874.84	5176.6	
875.01	4201.7	
875.17	3676.1	
875.34	2697.9	
875.51	4695.3	
875.68	5591	
875.84	3206.4	
876.01	3722.5	
876.18	4849.6	
876.34	4856.4	
876.51	2717	
876.68	2654.9	
876.85	4506.2	
877.01	5145.9	
877.18	3731.4	
877.35	2625.5	
877.52	4773.1	
877.68	4244.8	
877.85	2685.6	
878.02	2690.3	
878.18	4521.2	
878.35	4425	
878.52	2254.1	
878.69	3157.3	
878.85	5019.6	
879.02	4847.5	
879.19	3706.8	
879.35	2899.2	
879.52	4899.4	
879.69	4973.2	
879.86	2400.2	
880.02	2987.3	
880.19	4610	
880.36	5497.4	
880.52	3030.3	
880.69	3151.1	
880.86	4965.6	
881.02	5005.2	
881.19	2948.4	
881.36	2879.4	
881.52	4863.9	
881.69	4374.5	
881.86	2959.3	
882.02	2840.5	
882.19	5156.1	
882.36	5754.1	
882.52	2757.2	
882.69	3665.9	
882.86	4767.7	
883.02	4721.9	
883.19	3211.9	
883.36	3056.9	
883.52	4999.8	
883.69	5518.6	
883.86	2753.8	
884.02	2516.3	
884.19	4917.2	
884.36	4666	
884.52	3063.8	
884.69	2889.7	
884.86	4477.5	
885.02	5328.8	
885.19	2953.9	
885.36	3061	
885.52	4622.9	
885.69	4767	
885.86	3799.7	
886.02	3343.7	
886.19	4937	
886.35	4512.4	
886.52	2985.3	
886.69	3672	
886.85	4281.6	
887.02	5121.3	
887.19	5121.3	
887.35	5121.3	
887.52	5121.3	
887.68	5121.3	
887.85	5121.3	
888.02	5121.3	
888.18	5121.3	
888.35	5121.3	
888.51	5121.3	
888.68	5121.3	
888.85	5121.3	
889.01	5121.3	
889.18	5121.3	
889.35	5121.3	
889.51	5121.3	
889.68	5121.3	
889.84	5121.3	
890.01	5121.3	
890.17	5121.3	
890.34	5121.3	
890.51	5121.3	
890.67	5121.3	
890.84	5121.3	
891	5121.3	
891.17	5121.3	
891.34	5121.3	
891.5	5121.3	
891.67	5121.3	
891.83	5121.3	
892	5121.3	
892.16	5121.3	
892.33	5121.3	
892.5	5121.3	
892.66	5121.3	
892.83	5121.3	
892.99	5121.3	
893.16	5121.3	
893.32	5121.3	
893.49	5121.3	
893.65	5121.3	
893.82	5121.3	
893.99	5121.3	
894.15	5121.3	
894.32	5121.3	
894.48	5121.3	
894.65	5121.3	
894.81	5121.3	
894.98	5121.3	
895.14	5121.3	
895.31	5121.3	
895.47	5121.3	
895.64	5121.3	
895.81	5121.3	
895.97	5121.3	
896.14	5121.3	
896.3	5121.3	
896.47	5121.3	
896.63	5121.3	
896.8	5121.3	
896.96	5121.3	
897.13	5121.3	
897.29	5121.3	
897.46	5121.3	
897.62	5121.3	
897.79	5121.3	
897.95	5121.3	
898.12	5121.3	
898.28	5121.3	
898.45	5121.3	
898.61	5121.3	
898.78	5121.3	
898.94	5121.3	
899.11	5121.3	
899.27	5121.3	
899.44	5121.3	
899.6	5121.3	
899.77	5121.3	
899.93	5121.3	
900.1	5121.3	
900.26	5121.3	
900.43	5121.3	
900.59	5121.3	
900.76	5121.3	
900.92	5121.3	
901.09	5121.3	
901.25	5121.3	
901.42	5121.3	
901.58	5121.3	
901.75	5121.3	
901.91	5121.3	
902.07	5121.3	
902.24	5121.3	
902.4	5121.3	
902.57	5121.3	
902.73	5121.3	
902.9	5121.3	
903.06	5121.3	
903.23	5121.3	
903.39	5121.3	
903.56	5121.3	
903.72	5121.3	
903.88	5121.3	
904.05	5121.3	
904.21	5121.3	
904.38	5121.3	
904.54	5121.3	
904.71	5121.3	
904.87	5121.3	
905.03	5121.3	
905.2	5121.3	
905.36	5121.3	
905.53	5121.3	
905.69	5121.3	
905.86	5121.3	
906.02	5121.3	
906.18	5121.3	
906.35	5121.3	
906.51	5121.3	
906.68	5121.3	
906.84	5121.3	
907.01	5121.3	
907.17	5121.3	
907.33	5121.3	
907.5	5121.3	
907.66	5121.3	
907.83	5121.3	
907.99	5121.3	
908.15	5121.3	
908.32	5121.3	
908.48	5121.3	
908.65	5121.3	
908.81	5121.3	
908.97	5121.3	
909.14	5121.3	
909.3	5121.3	
909.47	5121.3	
909.63	5121.3	
909.79	5121.3	
909.96	5121.3	
910.12	5121.3	
910.28	5121.3	
910.45	5121.3	
910.61	5121.3	
910.78	5121.3	
910.94	5121.3	
911.1	5121.3	
911.27	5121.3	
911.43	5121.3	
911.59	5121.3	
911.76	5121.3	
911.92	5121.3	
912.08	5121.3	
912.25	5121.3	
912.41	5121.3	
912.57	5121.3	
912.74	5121.3	
912.9	5121.3	
913.07	5121.3	
913.23	5121.3	
913.39	5121.3	
913.56	5121.3	
913.72	5121.3	
913.88	5121.3	
914.05	5121.3	
914.21	5121.3	
914.37	5121.3	
914.54	5121.3	
914.7	5121.3	
914.86	5121.3	
915.03	5121.3	
915.19	5121.3	
