Wavelength	Intensities	
nm	a.u.	
179.22	1929	
179.44	1937	
179.65	1921	
179.86	1953.1	
180.08	1914.9	
180.29	5043.5	
180.51	3534.1	
180.72	5671.5	
180.94	6762.4	
181.15	3304.7	
181.37	3225.6	
181.58	5587.5	
181.79	5912.5	
182.01	3424.2	
182.22	3738.9	
182.44	5872.9	
182.65	4870.8	
182.87	4657.1	
183.08	4084.3	
183.29	6167.8	
183.51	5068.7	
183.72	3746.4	
183.94	5517.2	
184.15	5495.4	
184.37	5523.4	
184.58	3276.8	
184.79	4564.9	
185.01	5068	
185.22	5868.1	
185.44	4784.1	
185.65	3997.6	
185.86	5365.7	
186.08	4969.1	
186.29	3164.8	
186.51	3433.8	
186.72	5111.7	
186.94	6049.7	
187.15	4025.6	
187.36	4119.8	
187.58	7902.4	
187.79	5588.2	
188.01	4323.9	
188.22	6765.8	
188.43	6750.1	
188.65	5867.4	
188.86	3394.8	
189.08	4064.5	
189.29	5283.1	
189.5	5288.5	
189.72	3796.9	
189.93	3886.4	
190.15	6094.8	
190.36	7340.6	
190.57	4225.6	
190.79	4108.2	
191	6185.5	
191.22	6151.4	
191.43	4205.2	
191.64	3519.1	
191.86	6393.1	
192.07	6139.1	
192.29	3597.6	
192.5	3831.7	
192.71	6122.1	
192.93	5174.5	
193.14	3761.4	
193.35	3839.3	
193.57	5281	
193.78	6057.9	
194	3076	
194.21	3770.3	
194.42	5040.1	
194.64	5487.2	
194.85	4159.4	
195.07	4845.5	
195.28	5532.2	
195.49	4801.1	
195.71	5132.2	
195.92	3552.5	
196.13	5651	
196.35	5836	
196.56	5479	
196.78	4128.7	
196.99	7172	
197.2	6733.7	
197.42	4717.8	
197.63	4227	
197.84	4949.3	
198.06	5724.1	
198.27	3865.9	
198.48	5108.3	
198.7	5248.3	
198.91	5331.5	
199.13	4154.6	
199.34	4129.4	
199.55	5875.6	
199.77	4784.1	
199.98	3626.3	
200.19	4247.5	
200.41	5358.9	
200.62	5087.8	
200.83	4422.2	
201.05	4658.4	
201.26	5391.6	
201.47	5129.5	
201.69	3708.2	
201.9	3515	
202.11	5471.5	
202.33	6575.3	
202.54	3915.7	
202.76	4363.5	
202.97	5646.2	
203.18	5589.6	
203.4	4340.3	
203.61	4194.2	
203.82	5527.5	
204.04	5180.7	
204.25	4251.6	
204.46	4118.5	
204.68	5498.8	
204.89	5748.6	
205.1	4100	
205.32	3528.7	
205.53	5949.3	
205.74	6105	
205.96	3000.3	
206.17	4248.9	
206.38	5898.2	
206.6	6089.3	
206.81	4806.6	
207.02	3894.6	
207.24	5697.4	
207.45	6172.6	
207.66	3922.5	
207.88	3377.8	
208.09	5713.8	
208.3	5457.2	
208.52	3636.5	
208.73	4060.4	
208.94	5444.9	
209.15	6257.9	
209.37	3966.9	
209.58	4208.6	
209.79	6071.5	
210.01	5262.6	
210.22	3149.8	
210.43	3304.1	
210.65	5518.6	
210.86	5913.9	
211.07	3984	
211.29	3597.6	
211.5	5857.9	
211.71	5400.5	
211.93	3635.8	
212.14	3664.5	
212.35	5350	
212.56	5684.5	
212.78	4176.5	
212.99	3485	
213.2	6490	
213.42	5230.5	
213.63	3773.7	
213.84	4043.4	
214.06	4902.2	
214.27	4942.4	
214.48	3977.2	
214.69	4214.7	
214.91	6191	
215.12	6320	
215.33	4265.9	
215.55	4717.2	
215.76	6832	
215.97	5986.9	
216.18	4058.4	
216.4	4005.8	
216.61	5182.7	
216.82	6027.2	
217.04	3628.3	
217.25	3823.6	
217.46	6247.7	
217.67	5865.4	
217.89	3239.9	
218.1	3370.3	
218.31	5601.9	
218.53	5723.4	
218.74	3813.3	
218.95	3712.3	
219.16	5449.6	
219.38	6489.3	
219.59	3713	
219.8	4474.8	
220.01	7197.2	
220.23	5494.7	
220.44	4892.6	
220.65	3574.4	
220.87	5591.6	
221.08	6152.1	
221.29	3310.9	
221.5	4530.8	
221.72	7675.1	
221.93	5216.2	
222.14	4235.2	
222.35	4971.1	
222.57	5554.8	
222.78	5871.5	
222.99	3999	
223.2	4323.9	
223.42	5837.4	
223.63	5964.4	
223.84	3018	
224.05	2988.7	
224.27	7090.1	
224.48	6470.9	
224.69	4911	
224.9	4199	
225.12	5718.6	
225.33	5455.1	
225.54	3349.1	
225.75	3723.2	
225.97	5046.2	
226.18	5387.5	
226.39	4078.2	
226.6	3745.7	
226.82	5268.1	
227.03	5123.3	
227.24	4190.8	
227.45	3420.1	
227.67	5832.6	
227.88	6478.4	
228.09	4674.1	
228.3	4729.4	
228.52	5895.4	
228.73	5461.9	
228.94	3821.5	
229.15	3476.1	
229.36	5425.1	
229.58	5295.4	
229.79	3928	
230	4520.5	
230.21	6595.1	
230.43	5651	
230.64	4197	
230.85	4351.9	
231.06	5926.1	
231.28	5984.2	
231.49	3405.8	
231.7	4070.7	
231.91	5860.6	
232.12	5571.2	
232.34	3463.1	
232.55	3976.5	
232.76	6166.4	
232.97	5656.5	
233.18	3667.2	
233.4	4160.1	
233.61	5719.3	
233.82	5267.4	
234.03	3802.4	
234.25	3785.3	
234.46	7707.9	
234.67	5552	
234.88	4251.6	
235.09	3723.2	
235.31	5836.7	
235.52	5394.3	
235.73	4118.5	
235.94	3477.5	
236.15	5204.6	
236.37	6724.8	
236.58	3683.6	
236.79	3988.8	
237	5877.7	
237.21	5042.1	
237.43	4326	
237.64	3330.7	
237.85	10066	
238.06	5012.7	
238.27	4387.4	
238.48	3507.5	
238.7	5877.7	
238.91	5347.2	
239.12	4002.4	
239.33	4108.9	
239.54	5070.8	
239.76	5424.4	
239.97	3911.6	
240.18	3908.9	
240.39	6965.8	
240.6	5812.8	
240.82	4070	
241.03	3401	
241.24	5489.2	
241.45	6398.5	
241.66	3663.1	
241.87	4342.4	
242.09	6252.4	
242.3	6610.2	
242.51	4338.3	
242.72	4031.1	
242.93	6006.7	
243.14	5496.1	
243.36	4650.3	
243.57	5010.7	
243.78	6401.3	
243.99	5916.6	
244.2	4006.5	
244.41	3649.5	
244.63	5012.7	
244.84	5892	
245.05	4291.9	
245.26	3971	
245.47	5838.1	
245.68	6041.5	
245.9	5352	
246.11	4225.6	
246.32	5343.2	
246.53	5728.2	
246.74	6596.5	
246.95	3343	
247.16	4988.2	
247.38	5507.7	
247.59	3287	
247.8	4016.7	
248.01	5188.2	
248.22	5427.8	
248.43	3639.9	
248.64	3851.5	
248.86	4866.7	
249.07	5304.2	
249.28	3474.7	
249.49	4095.9	
249.7	6066.1	
249.91	6232	
250.12	3310.2	
250.34	3388	
250.55	5559.6	
250.76	5521.3	
250.97	4126.7	
251.18	4169	
251.39	6270.2	
251.6	5735.7	
251.81	4247.5	
252.03	4199	
252.24	5300.1	
252.45	6047.7	
252.66	3470.6	
252.87	4469.4	
253.08	5554.1	
253.29	7341.3	
253.5	3487.7	
253.72	4861.9	
253.93	5315.2	
254.14	6526.9	
254.35	3822.2	
254.56	3852.2	
254.77	5786.2	
254.98	5078.3	
255.19	3766.9	
255.41	4866.7	
255.62	5631.9	
255.83	6186.2	
256.04	4273.4	
256.25	4166.9	
256.46	6866.2	
256.67	5245.5	
256.88	4158.1	
257.09	4658.4	
257.31	5200.5	
257.52	5190.9	
257.73	5175.2	
257.94	3772.4	
258.15	5419.6	
258.36	5551.4	
258.57	4795	
258.78	2999.6	
258.99	6033.3	
259.2	5355.4	
259.41	3837.9	
259.63	3941	
259.84	6331	
260.05	6832.7	
260.26	5063.3	
260.47	3700	
260.68	6096.1	
260.89	5392.3	
261.1	4629.8	
261.31	3618.1	
261.52	6150.7	
261.73	6458.6	
261.95	4909.7	
262.16	4324.6	
262.37	6238.1	
262.58	6347.3	
262.79	4937	
263	3916.4	
263.21	5492.7	
263.42	5035.3	
263.63	3904.1	
263.84	3874.1	
264.05	6049.7	
264.26	6467.5	
264.47	4782.7	
264.69	4379.2	
264.9	6220.4	
265.11	5807.4	
265.32	3713.6	
265.53	3755.3	
265.74	5600.5	
265.95	4854.4	
266.16	4089.8	
266.37	4460.5	
266.58	5640.1	
266.79	5332.9	
267	3762.1	
267.21	3461.7	
267.42	5053.7	
267.63	5458.5	
267.84	3979.2	
268.06	3405.8	
268.27	5959.6	
268.48	6302.3	
268.69	3874.1	
268.9	4593.6	
269.11	6273.6	
269.32	5034.6	
269.53	4007.2	
269.74	3721.2	
269.95	5850.4	
270.16	4894.6	
270.37	4006.5	
270.58	4640.7	
270.79	5289.2	
271	6119.3	
271.21	4285.7	
271.42	4050.2	
271.63	5649	
271.84	5139.7	
272.05	3172.3	
272.26	3589.4	
272.47	5517.9	
272.68	5751.4	
272.89	3823.6	
273.11	4463.2	
273.32	5308.3	
273.53	6533.7	
273.74	4326.7	
273.95	4182.6	
274.16	6189	
274.37	5569.1	
274.58	4360.8	
274.79	3512.3	
275	5580.7	
275.21	6222.4	
275.42	5298.1	
275.63	4505.5	
275.84	5782.1	
276.05	7382.9	
276.26	4248.2	
276.47	3946.4	
276.68	5382.1	
276.89	6537.1	
277.1	4517.8	
277.31	3505.4	
277.52	5751.4	
277.73	5924.8	
277.94	3489.1	
278.15	3880.9	
278.36	5739.1	
278.57	5179.3	
278.78	3839.9	
278.99	4349.9	
279.2	5158.2	
279.41	5079.6	
279.62	5064.6	
279.83	3536.8	
280.04	6774.7	
280.25	5043.5	
280.46	4983.4	
280.67	4007.2	
280.88	5126.7	
281.09	6213.5	
281.3	4218.1	
281.51	5298.8	
281.72	6038.8	
281.93	6061.3	
282.14	3709.6	
282.35	4091.8	
282.56	6016.9	
282.77	5950	
282.98	3811.3	
283.19	4772.4	
283.4	7441	
283.61	5458.5	
283.82	3593.5	
284.03	5029.1	
284.24	5608.7	
284.45	6138.4	
284.66	5014.8	
284.87	4845.5	
285.08	6107	
285.29	6244.9	
285.5	3394.2	
285.71	3898	
285.92	6162.3	
286.12	6881.9	
286.33	4936.3	
286.54	3818.1	
286.75	5999.2	
286.96	5361.6	
287.17	3548.4	
287.38	4928.1	
287.59	5069.4	
287.8	5038.7	
288.01	3945.1	
288.22	4530.1	
288.43	6065.4	
288.64	5028.4	
288.85	4612.7	
289.06	4414.1	
289.27	5963.7	
289.48	6500.9	
289.69	4972.5	
289.9	4461.8	
290.11	6184.9	
290.32	5211.4	
290.53	4672.1	
290.74	4345.8	
290.94	5984.2	
291.15	5982.8	
291.36	3805.8	
291.57	4473.4	
291.78	5220.3	
291.99	4945.8	
292.2	3622.9	
292.41	4310.3	
292.62	6085.2	
292.83	5872.2	
293.04	5362.9	
293.25	3609.2	
293.46	5263.3	
293.67	6229.9	
293.88	3781.9	
294.09	3609.9	
294.29	5030.5	
294.5	5653.1	
294.71	4068.6	
294.92	3874.8	
295.13	5270.8	
295.34	6590.4	
295.55	3317	
295.76	3435.8	
295.97	5954.8	
296.18	6798.6	
296.39	3540.3	
296.6	3773.7	
296.81	5597.8	
297.01	5954.8	
297.22	3910.9	
297.43	3745.7	
297.64	5145.2	
297.85	5156.1	
298.06	3105.4	
298.27	3341.6	
298.48	5560.2	
298.69	5229.1	
298.9	4022.9	
299.11	3674.7	
299.31	5014.1	
299.52	5055.1	
299.73	4341	
299.94	4293.2	
300.15	5536.3	
300.36	5152.7	
300.57	4304.8	
300.78	4272.1	
300.99	5380.7	
301.2	5669.5	
301.4	3752.6	
301.61	4083.6	
301.82	5898.1	
302.03	6036.7	
302.24	4524.6	
302.45	3582.6	
302.66	5817.6	
302.87	6423.1	
303.08	3801.7	
303.29	5109.7	
303.49	5270.8	
303.7	5616.2	
303.91	3294.5	
304.12	4941.1	
304.33	5010	
304.54	5586.9	
304.75	3819.5	
304.96	3648.1	
305.16	5826.5	
305.37	6696.2	
305.58	3211.2	
305.79	3416	
306	5891.3	
306.21	4950.6	
306.42	3641.3	
306.63	5771.2	
306.83	5380	
307.04	6199.2	
307.25	4179.9	
307.46	4108.2	
307.67	4724	
307.88	6023.1	
308.09	3627.6	
308.29	3788.1	
308.5	5653.1	
308.71	6182.8	
308.92	4014.7	
309.13	3577.1	
309.34	5418.2	
309.55	5453.1	
309.75	4645.5	
309.96	4325.3	
310.17	5932.3	
310.38	5186.8	
310.59	4539.7	
310.8	4267.3	
311.01	5358.2	
311.21	5417.6	
311.42	3500	
311.63	3712.3	
311.84	5252.4	
312.05	5681.7	
312.26	4125.3	
312.46	4609.3	
312.67	5388.2	
312.88	5055.8	
313.09	3588	
313.3	3574.4	
313.51	6408.8	
313.71	6772.6	
313.92	3569.6	
314.13	3830.4	
314.34	5774.6	
314.55	5508.4	
314.76	4707.6	
314.96	4079.6	
315.17	5541.1	
315.38	5970.5	
315.59	3591.5	
315.8	3523.2	
316.01	6438.1	
316.21	6482.5	
316.42	3474	
316.63	3965.6	
316.84	5408.7	
317.05	6230.6	
317.26	4303.5	
317.46	3833.8	
317.67	5468.1	
317.88	5885.9	
318.09	4597.7	
318.3	3379.8	
318.5	5221	
318.71	5863.3	
318.92	5882.4	
319.13	4222.9	
319.34	6075.6	
319.54	6168.5	
319.75	3360.7	
319.96	3250.1	
320.17	5948.7	
320.38	6208.8	
320.58	3299.3	
320.79	3989.4	
321	6141.9	
321.21	6171.9	
321.42	4028.4	
321.62	3317	
321.83	5117.9	
322.04	5512.4	
322.25	3802.4	
322.46	3659	
322.66	5634	
322.87	5812.8	
323.08	4515.8	
323.29	3629	
323.5	6592.4	
323.7	5083.7	
323.91	5009.3	
324.12	4523.3	
324.33	5614.2	
324.53	5855.1	
324.74	4270.7	
324.95	4494.6	
325.16	4863.2	
325.37	5367	
325.57	3607.8	
325.78	3652.2	
325.99	5624.4	
326.2	4997	
326.4	5177.3	
326.61	3353.2	
326.82	5496.1	
327.03	5617.6	
327.24	5216.9	
327.44	4876.9	
327.65	5776	
327.86	4695.3	
328.07	4266.6	
328.27	3453.6	
328.48	6247	
328.69	5124	
328.9	5286.5	
329.1	3932.8	
329.31	5451	
329.52	6347.3	
329.73	3671.3	
329.93	4136.9	
330.14	5533.6	
330.35	5786.9	
330.56	6098.9	
330.76	4543.1	
330.97	5365	
331.18	5793.7	
331.39	4102.1	
331.59	3237.2	
331.8	6153.5	
332.01	6236.7	
332.22	3705.5	
332.42	4256.4	
332.63	5618.9	
332.84	5254.4	
333.05	4020.8	
333.25	3694.5	
333.46	5307.7	
333.67	5509	
333.88	3749.1	
334.08	4225	
334.29	7434.8	
334.5	6263.4	
334.7	3534.8	
334.91	5233.9	
335.12	5038.7	
335.33	5956.9	
335.53	4052.9	
335.74	6025.8	
335.95	5286.5	
336.16	5156.8	
336.36	4087.1	
336.57	4642.7	
336.78	5031.9	
336.98	6146.6	
337.19	4974.5	
337.4	3945.8	
337.61	6707.8	
337.81	4997	
338.02	3693.9	
338.23	4831.8	
338.43	6306.4	
338.64	5167.7	
338.85	3659	
339.05	4834.6	
339.26	6395.1	
339.47	4938.3	
339.68	3624.9	
339.88	5461.9	
340.09	5777.3	
340.3	6059.9	
340.5	4308.9	
340.71	3244.7	
340.92	4952.7	
341.13	6264.1	
341.33	3515	
341.54	4302.1	
341.75	5811.5	
341.95	5400.5	
342.16	4140.3	
342.37	4459.8	
342.57	5117.2	
342.78	5534.3	
342.99	4573.8	
343.19	3225.6	
343.4	5967.8	
343.61	5813.5	
343.81	3883.6	
344.02	3536.8	
344.23	5969.1	
344.43	6361	
344.64	4515.8	
344.85	4434.5	
345.06	5816.2	
345.26	6170.5	
345.47	4209.3	
345.68	4993.6	
345.88	4870.1	
346.09	6075.6	
346.3	4298.7	
346.5	3230.3	
346.71	5581.4	
346.92	5169.1	
347.12	3328.6	
347.33	4222.2	
347.54	6100.9	
347.74	6573.3	
347.95	4194.9	
348.16	3070.6	
348.36	5323.4	
348.57	5177.3	
348.78	4158.1	
348.98	4500.1	
349.19	5505.6	
349.39	4953.4	
349.6	3312.9	
349.81	3667.2	
350.01	5786.2	
350.22	5234.6	
350.43	4019.5	
350.63	4897.4	
350.84	5582.1	
351.05	5367.7	
351.25	3670	
351.46	3314.3	
351.67	6102.9	
351.87	5238.7	
352.08	3953.3	
352.29	4467.3	
352.49	5980.8	
352.7	5721.3	
352.9	3571.7	
353.11	4483	
353.32	6738.5	
353.52	5303.6	
353.73	3454.9	
353.94	4486.4	
354.14	5886.5	
354.35	5689.3	
354.55	3556.6	
354.76	4012	
354.97	5819	
355.17	5627.1	
355.38	3357.3	
355.59	4745.1	
355.79	5212.8	
356	5679	
356.2	3975.8	
356.41	3470.6	
356.62	4875.5	
356.82	5448.3	
357.03	4270.7	
357.24	3891.8	
357.44	5221.6	
357.65	5334.3	
357.85	5195.7	
358.06	4067.3	
358.27	4934.9	
358.47	5169.1	
358.68	3330	
358.88	4225	
359.09	5725.4	
359.3	6203.3	
359.5	4990.9	
359.71	4372.4	
359.91	6559.6	
360.12	5969.8	
360.33	4229.7	
360.53	4724	
360.74	5163.6	
360.94	5254.4	
361.15	4493.9	
361.36	3661.8	
361.56	6051.1	
361.77	5427.8	
361.97	4995	
362.18	3861.8	
362.38	6038.8	
362.59	5067.4	
362.8	3595.6	
363	3401.7	
363.21	4827.7	
363.41	5625.8	
363.62	4172.4	
363.83	5224.4	
364.03	5610.1	
364.24	6650.4	
364.44	5240.8	
364.65	5285.8	
364.85	5423	
365.06	4999.1	
365.27	3738.2	
365.47	3813.3	
365.68	6366.5	
365.88	5320.6	
366.09	4135.5	
366.29	3883.6	
366.5	5591	
366.71	6162.3	
366.91	5184.8	
367.12	4405.2	
367.32	6671.6	
367.53	5876.3	
367.73	4319.8	
367.94	5275.6	
368.14	5877	
368.35	6849.8	
368.56	4240.7	
368.76	3584.6	
368.97	5920.7	
369.17	7810.3	
369.38	3708.9	
369.58	4037.2	
369.79	4997.7	
369.99	6379.4	
370.2	5179.3	
370.4	4122.6	
370.61	5670.1	
370.82	6855.2	
371.02	4033.1	
371.23	3325.2	
371.43	4868	
371.64	6277.7	
371.84	4080.2	
372.05	5306.3	
372.25	7688.8	
372.46	5984.2	
372.66	4081.6	
372.87	3950.5	
373.07	6034.7	
373.28	7712.7	
373.48	5089.2	
373.69	4804.5	
373.9	5481.7	
374.1	5513.8	
374.31	4973.8	
374.51	4514.4	
374.72	6272.9	
374.92	5119.9	
375.13	5125.4	
375.33	4323.3	
375.54	5878.4	
375.74	5288.5	
375.95	4411.3	
376.15	5667.4	
376.36	5844.2	
376.56	5662	
376.77	4476.9	
376.97	4925.4	
377.18	6866.8	
377.38	5896.8	
377.59	5259.2	
377.79	3892.5	
378	5756.8	
378.2	6216.3	
378.41	3958.7	
378.61	3833.1	
378.82	6185.5	
379.02	5271.5	
379.23	4109.6	
379.43	5242.8	
379.64	6331	
379.84	5922.7	
380.05	3973.1	
380.25	3861.1	
380.46	5971.9	
380.66	5578	
380.87	5417.6	
381.07	5778	
381.28	6681.8	
381.48	6017.6	
381.69	3981.9	
381.89	4035.2	
382.1	4934.9	
382.3	6223.8	
382.51	5155.4	
382.71	6072.9	
382.91	5963	
383.12	6544.6	
383.32	4347.2	
383.53	4625.7	
383.73	5845.6	
383.94	5667.4	
384.14	4465.3	
384.35	3644	
384.55	5567.7	
384.76	6041.5	
384.96	4367.6	
385.17	4756.7	
385.37	5967.8	
385.58	5305.6	
385.78	4679.6	
385.98	3534.1	
386.19	5504.9	
386.39	5896.1	
386.6	4081.6	
386.8	4302.8	
387.01	5950.7	
387.21	6026.5	
387.42	4826.4	
387.62	5345.9	
387.83	5285.1	
388.03	5978.7	
388.23	4391.5	
388.44	5287.9	
388.64	4996.4	
388.85	5091.9	
389.05	4738.3	
389.26	5406.6	
389.46	6944	
389.67	6380.8	
389.87	4671.4	
390.07	4764.3	
390.28	5627.8	
390.48	5156.1	
390.69	3951.9	
390.89	4232.5	
391.1	5433.3	
391.3	6381.5	
391.5	5542.5	
391.71	6077	
391.91	5999.2	
392.12	7098.9	
392.32	5655.1	
392.53	4773.1	
392.73	5386.8	
392.93	5644.9	
393.14	4379.2	
393.34	5243.5	
393.55	6195.1	
393.75	5617.6	
393.95	4373.8	
394.16	4366.3	
394.36	5335	
394.57	6079.1	
394.77	3830.4	
394.98	4289.1	
395.18	5260.5	
395.38	5526.8	
395.59	5214.1	
395.79	4070	
396	5376.6	
396.2	5870.8	
396.4	5059.2	
396.61	4893.3	
396.81	6159.6	
397.02	5340.4	
397.22	5225.1	
397.42	5239.4	
397.63	6057.2	
397.83	5231.2	
398.04	4029.7	
398.24	4529.4	
398.44	5942.5	
398.65	4894.6	
398.85	3857	
399.05	4003.8	
399.26	5165	
399.46	7008.8	
399.67	4311.7	
399.87	4067.3	
400.07	5583.4	
400.28	5909.8	
400.48	4137.6	
400.69	5205.3	
400.89	6200.6	
401.09	6696.2	
401.3	4068.6	
401.5	5181.4	
401.7	6980.8	
401.91	7195.9	
402.11	4357.4	
402.32	4691.9	
402.52	6218.3	
402.72	6129.6	
402.93	4794.3	
403.13	3648.1	
403.33	6957.6	
403.54	5691.3	
403.74	4509.6	
403.94	5488.6	
404.15	5727.5	
404.35	6905.1	
404.56	4345.8	
404.76	6220.4	
404.96	6191.7	
405.17	5969.1	
405.37	5956.9	
405.57	4799.8	
405.78	6226.5	
405.98	5726.8	
406.18	4298	
406.39	5252.4	
406.59	6187.6	
406.79	5834.7	
407	4155.3	
407.2	4238.6	
407.4	6240.2	
407.61	6402	
407.81	4256.4	
408.01	6123.4	
408.22	5133.6	
408.42	7182.2	
408.62	5241.4	
408.83	4676.2	
409.03	5701.5	
409.23	5532.9	
409.44	4738.3	
409.64	5057.1	
409.84	6616.3	
410.05	6476.4	
410.25	4804.5	
410.45	4612.7	
410.66	5871.5	
410.86	8523	
411.06	4997.7	
411.27	4932.9	
411.47	8237.6	
411.67	6105.7	
411.88	5210.7	
412.08	5336.3	
412.28	6763.1	
412.49	7203.4	
412.69	4741	
412.89	4806.6	
413.09	7034.8	
413.3	6896.2	
413.5	4965	
413.7	4534.2	
413.91	6136.4	
414.11	6997.2	
414.31	4702.1	
414.52	5159.5	
414.72	6612.2	
414.92	6515.3	
415.12	4774.5	
415.33	5276.9	
415.53	6873.7	
415.73	7116	
415.94	5543.2	
416.14	5038.7	
416.34	5847	
416.55	5658.5	
416.75	6352.8	
416.95	5656.5	
417.15	6865.5	
417.36	7664.9	
417.56	6467.5	
417.76	5480.4	
417.97	7305.8	
418.17	6989	
418.37	5051.7	
418.57	5095.3	
418.78	6698.9	
418.98	6315.9	
419.18	6014.9	
419.38	5993.7	
419.59	6438.8	
419.79	6055.8	
419.99	4970.4	
420.2	5455.8	
420.4	7009.5	
420.6	7154.9	
420.8	4900.1	
421.01	4704.2	
421.21	6691.4	
421.41	6874.3	
421.61	5255.1	
421.82	4916.5	
422.02	6215.6	
422.22	7271.7	
422.42	5703.6	
422.63	5508.4	
422.83	6420.4	
423.03	7637.6	
423.23	5455.1	
423.44	4384	
423.64	6455.2	
423.84	6254.5	
424.04	4899.4	
424.25	4590.2	
424.45	7402.7	
424.65	7403.4	
424.85	4315.1	
425.06	4929.5	
425.26	7312.6	
425.46	5819	
425.66	5451.7	
425.87	5112.4	
426.07	7124.9	
426.27	7025.9	
426.47	5296	
426.67	4650.9	
426.88	7526.3	
427.08	6908.5	
427.28	5533.6	
427.48	4535.6	
427.69	5769.1	
427.89	6504.3	
428.09	5450.3	
428.29	4595.6	
428.5	7212.9	
428.7	6704.4	
428.9	4414.1	
429.1	4977.2	
429.3	6566.5	
429.51	7081.2	
429.71	4838	
429.91	5627.1	
430.11	6872.3	
430.31	7121.5	
430.52	5100.8	
430.72	5356.8	
430.92	7486.7	
431.12	6835.4	
431.32	4800.4	
431.53	5159.5	
431.73	5728.9	
431.93	7501.7	
432.13	4659.1	
432.33	4496.7	
432.54	6234.7	
432.74	6626.5	
432.94	4417.5	
433.14	5563.6	
433.34	6743.3	
433.55	6268.8	
433.75	5463.3	
433.95	7335.1	
434.15	6557.6	
434.35	6266.1	
434.56	4687.1	
434.76	4181.3	
434.96	6483.2	
435.16	6771.3	
435.36	4519.2	
435.56	5644.9	
435.77	6129.6	
435.97	6335.7	
436.17	6391	
436.37	5615.5	
436.57	6138.4	
436.78	6027.2	
436.98	7501	
437.18	6224.5	
437.38	6817.7	
437.58	6306.4	
437.78	6439.5	
437.99	4941.7	
438.19	6900.3	
438.39	7721.5	
438.59	4891.2	
438.79	4399	
438.99	7578.2	
439.2	6378.1	
439.4	4604.5	
439.6	4478.2	
439.8	6606.7	
440	7763.2	
440.2	5433.9	
440.4	5618.3	
440.61	6998.6	
440.81	7565.2	
441.01	4634.6	
441.21	5525.4	
441.41	7358.4	
441.61	7038.9	
441.81	5799.2	
442.02	6928.3	
442.22	7899.7	
442.42	7106.5	
442.62	4779.3	
442.82	4763.6	
443.02	7306.5	
443.22	6461.3	
443.43	5085.8	
443.63	4721.9	
443.83	6227.2	
444.03	6300.2	
444.23	5894.7	
444.43	5544.5	
444.63	6610.2	
444.83	7813	
445.04	4677.6	
445.24	6080.4	
445.44	7009.5	
445.64	7129.7	
445.84	5741.1	
446.04	5646.9	
446.24	6348.7	
446.44	7484.6	
446.65	4864.6	
446.85	5248.3	
447.05	6520	
447.25	7446.4	
447.45	5354.1	
447.65	4629.8	
447.85	6681.2	
448.05	6352.8	
448.25	5775.3	
448.46	5531.6	
448.66	6735.8	
448.86	6399.9	
449.06	4514.4	
449.26	5776.6	
449.46	7118.1	
449.66	6027.2	
449.86	5158.2	
450.06	5204.6	
450.26	6312.5	
450.47	6839.5	
450.67	5494.7	
450.87	5866.7	
451.07	6958.3	
451.27	6670.9	
451.47	4765.6	
451.67	5306.3	
451.87	6277.7	
452.07	7589.8	
452.27	4949.3	
452.47	5001.1	
452.67	6675	
452.88	7223.9	
453.08	4355.3	
453.28	6449.1	
453.48	7972.7	
453.68	6565.8	
453.88	4769	
454.08	5115.8	
454.28	7013.6	
454.48	6676.4	
454.68	5692.7	
454.88	6249.7	
455.08	7095.5	
455.28	6810.2	
455.48	4703.5	
455.68	5371.8	
455.89	7572.7	
456.09	7269.6	
456.29	5055.1	
456.49	5095.3	
456.69	7434.8	
456.89	6685.9	
457.09	5524.1	
457.29	5967.1	
457.49	6990.4	
457.69	7131	
457.89	5230.5	
458.09	4723.3	
458.29	6696.9	
458.49	7415.7	
458.69	5726.8	
458.89	5133.6	
459.09	7662.1	
459.29	7796.6	
459.49	5305.6	
459.69	6080.4	
459.9	7240.9	
460.1	6612.2	
460.3	5240.8	
460.5	4992.9	
460.7	7178.8	
460.9	6871.6	
461.1	4676.9	
461.3	5935.7	
461.5	7829.4	
461.7	7348.8	
461.9	4992.9	
462.1	5500.2	
462.3	6833.4	
462.5	7522.9	
462.7	5085.8	
462.9	5154.7	
463.1	8560.5	
463.3	8003.5	
463.5	5339.1	
463.7	6224.5	
463.9	7004.1	
464.1	7387	
464.3	5380.7	
464.5	5664.7	
464.7	7677.2	
464.9	7169.9	
465.1	7047.1	
465.3	6013.5	
465.5	8017.8	
465.7	7939.3	
465.9	6291.4	
466.1	6195.8	
466.3	7759.8	
466.5	7576.1	
466.7	7014.3	
466.9	5796.4	
467.1	7501.7	
467.3	8441	
467.5	6845	
467.7	5685.2	
467.9	8665.6	
468.1	9635	
468.3	6546.7	
468.5	6931	
468.7	7446.4	
468.9	7449.1	
469.1	5959.6	
469.3	6774	
469.5	9476.6	
469.7	6908.5	
469.9	6479.8	
470.1	5651.7	
470.3	7330.4	
470.5	7434.1	
470.7	7008.8	
470.9	5821	
471.1	7178.8	
471.3	7678.5	
471.5	5638.7	
471.69	7617.8	
471.89	7042.3	
472.09	6565.8	
472.29	6438.1	
472.49	6970.6	
472.69	6786.3	
472.89	7714.7	
473.09	5495.4	
473.29	5735	
473.49	6943.3	
473.69	7207.5	
473.89	6781.5	
474.09	5885.2	
474.29	8489.5	
474.49	8183.7	
474.69	6663.4	
474.89	6000.5	
475.09	7146	
475.29	7183.6	
475.49	5460.6	
475.69	5651	
475.88	8929.8	
476.08	7513.3	
476.28	5401.9	
476.48	5883.1	
476.68	8044.4	
476.88	7906.5	
477.08	5694.7	
477.28	6001.9	
477.48	7308.5	
477.68	8047.2	
477.88	5492	
478.08	5920	
478.28	8385.7	
478.48	7448.5	
478.67	5853.1	
478.87	5380	
479.07	8165.9	
479.27	7599.3	
479.47	6167.1	
479.67	6104.3	
479.87	7945.4	
480.07	8516.8	
480.27	5342.5	
480.47	7050.5	
480.67	7643.7	
480.87	8194.6	
481.06	5559.6	
481.26	6487.3	
481.46	7507.9	
481.66	7453.9	
481.86	6080.4	
482.06	7248.4	
482.26	7162.4	
482.46	8379.6	
482.66	6122.7	
482.86	5677	
483.05	7605.5	
483.25	6992.4	
483.45	8628.8	
483.65	6092	
483.85	7172	
484.05	7452.6	
484.25	6561	
484.45	7103	
484.65	8458.8	
484.84	8411	
485.04	5969.8	
485.24	5897.5	
485.44	8667.7	
485.64	6892.8	
485.84	5229.8	
486.04	6707.8	
486.24	7260.7	
486.44	7662.1	
486.63	5166.3	
486.83	6051.7	
487.03	7083.9	
487.23	7425.3	
487.43	5291.3	
487.63	7774.8	
487.83	7342.7	
488.02	8488.8	
488.22	6339.8	
488.42	6912.6	
488.62	8383	
488.82	7196.6	
489.02	5917.3	
489.22	5962.3	
489.41	8221.2	
489.61	7740.6	
489.81	5655.1	
490.01	5684.5	
490.21	8098.4	
490.41	8859.5	
490.61	5619.6	
490.8	5753.4	
491	7568.6	
491.2	6870.3	
491.4	6487.3	
491.6	5481.7	
491.8	7576.1	
491.99	7854	
492.19	5298.8	
492.39	5772.5	
492.59	8148.2	
492.79	8176.2	
492.99	6602	
493.18	5637.4	
493.38	8267	
493.58	8974.2	
493.78	6418.3	
493.98	5880.4	
494.18	7861.5	
494.37	7287.4	
494.57	6558.3	
494.77	6438.8	
494.97	7993.9	
495.17	8305.2	
495.37	5944.6	
495.56	6306.4	
495.76	8514.1	
495.96	8083.3	
496.16	7189.7	
496.36	6092	
496.55	8282.7	
496.75	7785	
496.95	6491.4	
497.15	6333	
497.35	8262.9	
497.54	8232.2	
497.74	6110.5	
497.94	7870.3	
498.14	8893.6	
498.34	8882.7	
498.53	5725.4	
498.73	6625.9	
498.93	7527.7	
499.13	8183	
499.33	6374	
499.52	7077.8	
499.72	8139.3	
499.92	8561.2	
500.12	6059.9	
500.32	6376	
500.51	8516.8	
500.71	8174.1	
500.91	7240.3	
501.11	6867.5	
501.31	8395.3	
501.5	8896.4	
501.7	7445	
501.9	6429.9	
502.1	8174.1	
502.29	8512.7	
502.49	6907.8	
502.69	7423.2	
502.89	8413.1	
503.09	8387.1	
503.28	5860.6	
503.48	6044.2	
503.68	7640.3	
503.88	7656	
504.07	7104.4	
504.27	6597.9	
504.47	8018.5	
504.67	8122.2	
504.86	6999.3	
505.06	6765.1	
505.26	7755	
505.46	9673.9	
505.65	6565.1	
505.85	6902.3	
506.05	7666.9	
506.25	8217.8	
506.44	5884.5	
506.64	6989	
506.84	7560.4	
507.04	8635.6	
507.23	6118	
507.43	6766.5	
507.63	9691.7	
507.83	7939.3	
508.02	6744.6	
508.22	6276.3	
508.42	9924.5	
508.62	7644.4	
508.81	6649.1	
509.01	7208.8	
509.21	7527	
509.4	7793.9	
509.6	6836.8	
509.8	6187.6	
510	7902.4	
510.19	9398.8	
510.39	6168.5	
510.59	6283.9	
510.79	7554.3	
510.98	9009.7	
511.18	6257.9	
511.38	6465.4	
511.57	8415.1	
511.77	8372.1	
511.97	7124.2	
512.17	6028.5	
512.36	8449.9	
512.56	8405.5	
512.76	6140.5	
512.95	5939.8	
513.15	8604.2	
513.35	7144	
513.55	7047.1	
513.74	6245.6	
513.94	8557.1	
514.14	7906.5	
514.33	7185	
514.53	6865.5	
514.73	7782.3	
514.92	8068.3	
515.12	6374	
515.32	6146.6	
515.51	8112.7	
515.71	8669.7	
515.91	7965.9	
516.11	6270.2	
516.3	9940.8	
516.5	7678.5	
516.7	6784.2	
516.89	7468.9	
517.09	7867.6	
517.29	7755	
517.48	7115.3	
517.68	6477	
517.88	7507.2	
518.07	8191.2	
518.27	6978.1	
518.47	6001.2	
518.66	8856.8	
518.86	7389.8	
519.06	5864.7	
519.25	6378.7	
519.45	7714.7	
519.65	9313.5	
519.84	6989.7	
520.04	7693.5	
520.24	9736	
520.43	8428.8	
520.63	6836.8	
520.83	6424.5	
521.02	7667.6	
521.22	8376.9	
521.42	7159	
521.61	7654.6	
521.81	7828	
522.01	8071	
522.2	6922.1	
522.4	6637.5	
522.6	8581	
522.79	7349.5	
522.99	6768.5	
523.18	6021.7	
523.38	8282	
523.58	8198	
523.77	7974.1	
523.97	5956.2	
524.17	10213	
524.36	9320.3	
524.56	7412.3	
524.76	7023.2	
524.95	8200.7	
525.15	7827.3	
525.34	6810.9	
525.54	6770.6	
525.74	8579.6	
525.93	7553.6	
526.13	8056.7	
526.33	6715.3	
526.52	8968.7	
526.72	8368	
526.91	8004.8	
527.11	7257.3	
527.31	9012.4	
527.5	9417.9	
527.7	7124.9	
527.89	6133.7	
528.09	7872.4	
528.29	8422.6	
528.48	7453.2	
528.68	7206.1	
528.87	8858.8	
529.07	8796.7	
529.27	7098.3	
529.46	6567.8	
529.66	8448.6	
529.85	8916.9	
530.05	6394.4	
530.25	7218.4	
530.44	9964.1	
530.64	8395.3	
530.83	6925.5	
531.03	7067.5	
531.23	8759.2	
531.42	8732.5	
531.62	7884.7	
531.81	6961.7	
532.01	8882.7	
532.21	9453.4	
532.4	6645	
532.6	7098.3	
532.79	9983.8	
532.99	9002.2	
533.18	7145.4	
533.38	8163.9	
533.58	8515.5	
533.77	9424.1	
533.97	7075.7	
534.16	7930.4	
534.36	9601.6	
534.55	8571.4	
534.75	8462.2	
534.95	7184.3	
535.14	9372.9	
535.34	8538.7	
535.53	6882.5	
535.73	8921.6	
535.92	9952.4	
536.12	8813.8	
536.31	7007.5	
536.51	8247.9	
536.71	9088.2	
536.9	8650.6	
537.1	7172	
537.29	7381.6	
537.49	9525.1	
537.68	8485.4	
537.88	7619.1	
538.07	6886.6	
538.27	8646.5	
538.46	9846.6	
538.66	6707.1	
538.86	7167.9	
539.05	8845.2	
539.25	9239.1	
539.44	7522.2	
539.64	7126.9	
539.83	8609.7	
540.03	9766.8	
540.22	6982.9	
540.42	7175.4	
540.61	8989.2	
540.81	9060.9	
541	7737.2	
541.2	8286.1	
541.39	8468.4	
541.59	8947.6	
541.78	7969.3	
541.98	7066.2	
542.18	8099	
542.37	8121.6	
542.57	7444.4	
542.76	8039	
542.96	8258.1	
543.15	9026.8	
543.35	7504.4	
543.54	6816.3	
543.74	9363.3	
543.93	8916.2	
544.13	7487.4	
544.32	8569.4	
544.52	9290.3	
544.71	8436.3	
544.91	6526.2	
545.1	7887.4	
545.3	8360.5	
545.49	9127.1	
545.69	6490.7	
545.88	7152.9	
546.08	9785.9	
546.27	9668.5	
546.47	7752.2	
546.66	6959.7	
546.86	9442.5	
547.05	10065	
547.24	7180.2	
547.44	7084.6	
547.63	8249.2	
547.83	9486.2	
548.02	7511.9	
548.22	7729	
548.41	8044.4	
548.61	9540.1	
548.8	6944	
549	6947.4	
549.19	8807.6	
549.39	9142.8	
549.58	6677.1	
549.78	7349.5	
549.97	9234.3	
550.17	8760.5	
550.36	8282.7	
550.55	9250.7	
550.75	8816.5	
550.94	9648.7	
551.14	6894.8	
551.33	7413.6	
551.53	8039.6	
551.72	9102.5	
551.92	7378.8	
552.11	7197.2	
552.31	9133.3	
552.5	9198.1	
552.69	9019.3	
552.89	6709.1	
553.08	9123.7	
553.28	8803.5	
553.47	7222.5	
553.67	8397.4	
553.86	9864.4	
554.06	8036.9	
554.25	6384.2	
554.44	6989	
554.64	10592	
554.83	10064	
555.03	6985.6	
555.22	7356.3	
555.42	9295	
555.61	8990.6	
555.8	7182.2	
556	7433.4	
556.19	8116.1	
556.39	9618.6	
556.58	7221.1	
556.78	7241.6	
556.97	8907.3	
557.16	8748.9	
557.36	8456.7	
557.55	6891.4	
557.75	7888.1	
557.94	9755.2	
558.13	6993.8	
558.33	6731.7	
558.52	9536.7	
558.72	8314.8	
558.91	6859.3	
559.1	7118.1	
559.3	8057.4	
559.49	7713.3	
559.69	6418.3	
559.88	7483.3	
560.07	8883.4	
560.27	9389.9	
560.46	7567.9	
560.66	7823.9	
560.85	8716.8	
561.04	7876.5	
561.24	6799.9	
561.43	7094.2	
561.63	8102.4	
561.82	8495	
562.01	8350.9	
562.21	7420.5	
562.4	8862.9	
562.59	9942.9	
562.79	7187.7	
562.98	6823.1	
563.18	8862.2	
563.37	10352	
563.56	7719.5	
563.76	6739.9	
563.95	8225.3	
564.14	8180.3	
564.34	7138.5	
564.53	6951.5	
564.73	8783.1	
564.92	9196.7	
565.11	7258	
565.31	6696.9	
565.5	9418.6	
565.69	8363.2	
565.89	6870.3	
566.08	7225.9	
566.27	9304.6	
566.47	9695.1	
566.66	7849.9	
566.85	6388.3	
567.05	8930.5	
567.24	8200.1	
567.44	6821.8	
567.63	8310.7	
567.82	9135.3	
568.02	8862.2	
568.21	6791.1	
568.4	7271.7	
568.6	8725.7	
568.79	8720.9	
568.98	6642.9	
569.18	6911.9	
569.37	8746.2	
569.56	10791	
569.76	7220.5	
569.95	8305.2	
570.14	9093	
570.34	9071.8	
570.53	6750.1	
570.72	6739.9	
570.91	9528.5	
571.11	8708	
571.3	7275.8	
571.49	8241.7	
571.69	8743.5	
571.88	8295	
572.07	7800	
572.27	7838.9	
572.46	8276.5	
572.65	9402.9	
572.85	6984.3	
573.04	7405.5	
573.23	9574.9	
573.43	8839	
573.62	6777.4	
573.81	7429.3	
574	8855.4	
574.2	8654	
574.39	7115.3	
574.58	7301	
574.78	9757.9	
574.97	8969.4	
575.16	7604.8	
575.36	7819.1	
575.55	9277.3	
575.74	9551	
575.93	6772.6	
576.13	7905.2	
576.32	8690.2	
576.51	9372.9	
576.71	7208.8	
576.9	8529.8	
577.09	9712.8	
577.28	9185.8	
577.48	7606.2	
577.67	6709.8	
577.86	8787.2	
578.05	9094.3	
578.25	7420.5	
578.44	7466.2	
578.63	8913.4	
578.83	10169	
579.02	6733	
579.21	8368.7	
579.4	9146.2	
579.6	8798.1	
579.79	7546.1	
579.98	9901.9	
580.17	9506	
580.37	9558.6	
580.56	6995.9	
580.75	7807.5	
580.94	10067	
581.14	9853.5	
581.33	8173.4	
581.52	7078.5	
581.71	9311.4	
581.91	10103	
582.1	6804	
582.29	7462.1	
582.48	8944.2	
582.68	8889.5	
582.87	7927	
583.06	7571.3	
583.25	9308	
583.45	8720.9	
583.64	8271.7	
583.83	9041.1	
584.02	8829.5	
584.21	9338.1	
584.41	8208.9	
584.6	7421.8	
584.79	8985.8	
584.98	9758.6	
585.18	6959	
585.37	6947.4	
585.56	8573.5	
585.75	9389.9	
585.94	7166.5	
586.14	7967.3	
586.33	9989.3	
586.52	8925.7	
586.71	7712	
586.91	7437.5	
587.1	8414.4	
587.29	9403.6	
587.48	7441	
587.67	7327.6	
587.87	9215.9	
588.06	9415.9	
588.25	8689.5	
588.44	7957.7	
588.63	8968.7	
588.83	9613.2	
589.02	7320.8	
589.21	7231.4	
589.4	8709.3	
589.59	8581	
589.78	6530.3	
589.98	6769.9	
590.17	8238.3	
590.36	8860.2	
590.55	6116.6	
590.74	7117.4	
590.94	10308	
591.13	8720.3	
591.32	6790.4	
591.51	6348	
591.7	9248.6	
591.89	8654	
592.09	6339.1	
592.28	7030	
592.47	7843	
592.66	9872.6	
592.85	6467.5	
593.05	6730.3	
593.24	8529.8	
593.43	9303.9	
593.62	6748.7	
593.81	7357.7	
594	8512	
594.19	8848.6	
594.39	6734.4	
594.58	6619.7	
594.77	8924.4	
594.96	9513.5	
595.15	6559.6	
595.34	7323.5	
595.54	8910.7	
595.73	7918.8	
595.92	6053.1	
596.11	7196.6	
596.3	9443.2	
596.49	8033.5	
596.68	6939.9	
596.88	7364.5	
597.07	9256.1	
597.26	7907.9	
597.45	6410.8	
597.64	7686	
597.83	8185.7	
598.02	8931.9	
598.22	6547.4	
598.41	7293.5	
598.6	8617.9	
598.79	8131.8	
598.98	6619.7	
599.17	7536.5	
599.36	8667.7	
599.55	9915.6	
599.74	8747.6	
599.94	8485.4	
600.13	9198.1	
600.32	7996.6	
600.51	6304.3	
600.7	6460.7	
600.89	9998.2	
601.08	10015	
601.27	6239.5	
601.47	7318.1	
601.66	9199.5	
601.85	9909.4	
602.04	6972	
602.23	7241.6	
602.42	8227.4	
602.61	8862.9	
602.8	6937.2	
602.99	6718	
603.18	8527.7	
603.37	8813.8	
603.57	7378.8	
603.76	7965.9	
603.95	9607	
604.14	9097.1	
604.33	6739.2	
604.52	7076.4	
604.71	8738	
604.9	8329.8	
605.09	7724.9	
605.28	7572	
605.47	9396.1	
605.66	9069.8	
605.86	7371.3	
606.05	6767.2	
606.24	9385.8	
606.43	7916.1	
606.62	7200	
606.81	7989.1	
607	9250	
607.19	8518.2	
607.38	6534.4	
607.57	6804.7	
607.76	8379.6	
607.95	7771.4	
608.14	7267.6	
608.33	7891.5	
608.52	8261.5	
608.72	9344.9	
608.91	6414.2	
609.1	6377.4	
609.29	8440.4	
609.48	7959.1	
609.67	7496.9	
609.86	6460	
610.05	8007.6	
610.24	8343.4	
610.43	6301.6	
610.62	5948.7	
610.81	9605	
611	9336.7	
611.19	6483.2	
611.38	7309.2	
611.57	8737.3	
611.76	10106	
611.95	6149.4	
612.14	6092.7	
612.33	8510.7	
612.52	7986.4	
612.71	6817	
612.9	5935	
613.09	7605.5	
613.28	10039	
613.47	6533.7	
613.66	7520.8	
613.85	8586.5	
614.04	8095.6	
614.24	6635.4	
614.43	5758.9	
614.62	8794	
614.81	8660.9	
615	7185	
615.19	7183.6	
615.38	7972.7	
615.57	8386.4	
615.76	6999.3	
615.95	8084.7	
616.14	8741.4	
616.33	8437.6	
616.52	7466.2	
616.71	7588.4	
616.9	8698.4	
617.09	8606.2	
617.28	6725.5	
617.47	8286.8	
617.66	7816.4	
617.85	7821.2	
618.04	7770.7	
618.22	7099.6	
618.41	8103.8	
618.6	9075.2	
618.79	6982.2	
618.98	6653.9	
619.17	9476	
619.36	7658	
619.55	6866.2	
619.74	6876.4	
619.93	8731.2	
620.12	8102.4	
620.31	7428	
620.5	7643.7	
620.69	9366.7	
620.88	9729.2	
621.07	8424	
621.26	7421.2	
621.45	8947.6	
621.64	8901.2	
621.83	7501	
622.02	6569.9	
622.21	8914.1	
622.4	8683.4	
622.59	8046.5	
622.78	7757.7	
622.97	8230.1	
623.16	9356.5	
623.35	7412.3	
623.54	6574	
623.72	8540	
623.91	8634.9	
624.1	7710.6	
624.29	6261.3	
624.48	9768.1	
624.67	8978.3	
624.86	7589.1	
625.05	6574.7	
625.24	9938.1	
625.43	8206.9	
625.62	9349.7	
625.81	6840.2	
626	9243.2	
626.19	8615.1	
626.38	7598.6	
626.56	7088	
626.75	8340	
626.94	9150.3	
627.13	7615	
627.32	6321.4	
627.51	9078.6	
627.7	10494	
627.89	6417	
628.08	7757	
628.27	8227.4	
628.46	8398.7	
628.65	6693.4	
628.83	6414.2	
629.02	8981.7	
629.21	8297	
629.4	7318.8	
629.59	7463.5	
629.78	8179.6	
629.97	9296.4	
630.16	7518.8	
630.35	6980.2	
630.54	9693	
630.72	9393.4	
630.91	6903.7	
631.1	7500.3	
631.29	8850.6	
631.48	9094.3	
631.67	7615	
631.86	7141.9	
632.05	8420.6	
632.24	8559.8	
632.42	6645.7	
632.61	7296.9	
632.8	8604.2	
632.99	8199.4	
633.18	7329	
633.37	7762.5	
633.56	8860.9	
633.75	8635.6	
633.93	7326.9	
634.12	6944.7	
634.31	9626.8	
634.5	9291	
634.69	7046.4	
634.88	7550.9	
635.07	8629.5	
635.25	9189.2	
635.44	7999.4	
635.63	8204.2	
635.82	8378.9	
636.01	7909.3	
636.2	7909.9	
636.39	7436.9	
636.57	9661	
636.76	9341.5	
636.95	6865.5	
637.14	8355.7	
637.33	8919.6	
637.52	10131	
637.7	6635.4	
637.89	7658.7	
638.08	8498.4	
638.27	10081	
638.46	7759.1	
638.65	8188.5	
638.83	9996.8	
639.02	8299.7	
639.21	7669	
639.4	8128.4	
639.59	8836.3	
639.78	8338	
639.96	6896.9	
640.15	6913.3	
640.34	8682	
640.53	8859.5	
640.72	6590.4	
640.91	6915.3	
641.09	8107.2	
641.28	9531.2	
641.47	6846.4	
641.66	7839.6	
641.85	8796.7	
642.03	9136	
642.22	7666.9	
642.41	7019.8	
642.6	8150.9	
642.79	7583.6	
642.97	6824.5	
643.16	7655.3	
643.35	8189.1	
643.54	7952.3	
643.73	6695.5	
643.91	7594.6	
644.1	7875.1	
644.29	8503.2	
644.48	6771.9	
644.67	6794.5	
644.85	8003.5	
645.04	8399.4	
645.23	6453.1	
645.42	6697.5	
645.6	7927.7	
645.79	9117.6	
645.98	6691.4	
646.17	5668.8	
646.36	7632.8	
646.54	8279.9	
646.73	7651.2	
646.92	6239.5	
647.11	7870.3	
647.29	8987.9	
647.48	6351.4	
647.67	6135.7	
647.86	9327.1	
648.05	9262.3	
648.23	6724.2	
648.42	8107.9	
648.61	8546.9	
648.8	8284.7	
648.98	6322.1	
649.17	6670.2	
649.36	7864.2	
649.55	7344.7	
649.73	6477.7	
649.92	7141.3	
650.11	7698.3	
650.3	8133.2	
650.48	6503	
650.67	6238.1	
650.86	8465.6	
651.05	7268.9	
651.23	6434.7	
651.42	6439.5	
651.61	7851.2	
651.79	7945.4	
651.98	6590.4	
652.17	6305	
652.36	8297.7	
652.54	7327.6	
652.73	6285.2	
652.92	6115.2	
653.11	8348.9	
653.29	8391.9	
653.48	5559.6	
653.67	6622.4	
653.85	8125.7	
654.04	9273.2	
654.23	6944	
654.42	6398.5	
654.6	7578.8	
654.79	8294.3	
654.98	5834	
655.16	6358.9	
655.35	7167.9	
655.54	7112.6	
655.73	5859.9	
655.91	5829.2	
656.1	8267.6	
656.29	7057.3	
656.47	5357.5	
656.66	7154.2	
656.85	7361.8	
657.03	7452.6	
657.22	5959.6	
657.41	6110.5	
657.59	7572.7	
657.78	7331.7	
657.97	5634.6	
658.16	6453.8	
658.34	8235.6	
658.53	8609.7	
658.72	7318.8	
658.9	7962.5	
659.09	7554.3	
659.28	7718.8	
659.46	6120	
659.65	6127.5	
659.84	7425.9	
660.02	8002.8	
660.21	5992.4	
660.4	5960.3	
660.58	8363.9	
660.77	7803.4	
660.96	6591	
661.14	5610.1	
661.33	9010.4	
661.52	8849.3	
661.7	5591	
661.89	9480.7	
662.08	7377.5	
662.26	6943.3	
662.45	5788.9	
662.64	5965.1	
662.82	8144.8	
663.01	7240.3	
663.2	5996.5	
663.38	6845	
663.57	8053.3	
663.75	7819.8	
663.94	6345.3	
664.13	7729	
664.31	7276.4	
664.5	8087.4	
664.69	6591.7	
664.87	7204.1	
665.06	7083.2	
665.25	7779.6	
665.43	7368.6	
665.62	7494.2	
665.8	8264.9	
665.99	7486.7	
666.18	6293.4	
666.36	6408.8	
666.55	8216.5	
666.74	8152.3	
666.92	5984.8	
667.11	7672.4	
667.29	7518.1	
667.48	8139.3	
667.67	7256.6	
667.85	6196.5	
668.04	7503.8	
668.22	7604.8	
668.41	6449.1	
668.6	6590.4	
668.78	7382.9	
668.97	7596.6	
669.15	6772.6	
669.34	5666.7	
669.53	7365.9	
669.71	7690.1	
669.9	5922.7	
670.08	6670.9	
670.27	7303.7	
670.46	7973.4	
670.64	6776	
670.83	7122.2	
671.01	7213.6	
671.2	7915.4	
671.38	5892.7	
671.57	5829.2	
671.76	8527.7	
671.94	9192	
672.13	5815.5	
672.31	6982.2	
672.5	8118.1	
672.69	7290.8	
672.87	5889.3	
673.06	6318	
673.24	7976.8	
673.43	7474.4	
673.61	6830.7	
673.8	6303.6	
673.98	8051.2	
674.17	8348.9	
674.36	6879.1	
674.54	6744	
674.73	7842.4	
674.91	8140	
675.1	6444.3	
675.28	6107.7	
675.47	7613.7	
675.65	8221.2	
675.84	6350.1	
676.03	6642.9	
676.21	7348.1	
676.4	6955.6	
676.58	7189.7	
676.77	6877.1	
676.95	8938	
677.14	7318.8	
677.32	6003.3	
677.51	5754.8	
677.69	8168	
677.88	6990.4	
678.06	5830.6	
678.25	6038.8	
678.44	7619.1	
678.62	7350.8	
678.81	5695.4	
678.99	6706.4	
679.18	8474.5	
679.36	8060.8	
679.55	6312.5	
679.73	7078.5	
679.92	7973.4	
680.1	7465.5	
680.29	7627.3	
680.47	6359.6	
680.66	7313.3	
680.84	8261.5	
681.03	5524.7	
681.21	6675.7	
681.4	7364.5	
681.58	7266.2	
681.77	6023.8	
681.95	5956.2	
682.14	8342.7	
682.32	8667	
682.51	6975.4	
682.69	5771.9	
682.88	7310.6	
683.06	8000.7	
683.25	6690.7	
683.43	7124.2	
683.62	7569.3	
683.8	8038.3	
683.99	7271	
684.17	6434.7	
684.36	8961.9	
684.54	7553.6	
684.73	5674.9	
684.91	5827.8	
685.1	7845.1	
685.28	7328.3	
685.46	6472.3	
685.65	6604.7	
685.83	8125.7	
686.02	7504.4	
686.2	5924.8	
686.39	6128.9	
686.57	7246.4	
686.76	8899.1	
686.94	5870.8	
687.13	6077	
687.31	7924.3	
687.5	7434.8	
687.68	5547.9	
687.86	6901.7	
688.05	9244.5	
688.23	6953.5	
688.42	6834.1	
688.6	5976.7	
688.79	7292.8	
688.97	7389.1	
689.16	6481.8	
689.34	5367.7	
689.52	8282	
689.71	8445.1	
689.89	6733	
690.08	6027.9	
690.26	7774.8	
690.45	7567.2	
690.63	6980.2	
690.81	6143.2	
691	7391.1	
691.18	7366.5	
691.37	6331	
691.55	8731.2	
691.74	7299.6	
691.92	9372.2	
692.1	6384.2	
692.29	5809.4	
692.47	7501	
692.66	6810.9	
692.84	5987.6	
693.02	6569.9	
693.21	6977.4	
693.39	7454.6	
693.58	6738.5	
693.76	6099.5	
693.94	8731.2	
694.13	8609.7	
694.31	6079.1	
694.5	7240.9	
694.68	7337.9	
694.86	7651.9	
695.05	6583.5	
695.23	6885.3	
695.42	8202.1	
695.6	10553	
695.78	7193.8	
695.97	6223.8	
696.15	8179.6	
696.34	7539.9	
696.52	6006.7	
696.7	6842.9	
696.89	7905.2	
697.07	7387	
697.25	6810.9	
697.44	8361.2	
697.62	7802.1	
697.81	8295	
697.99	6503.7	
698.17	7055.9	
698.36	7177.4	
698.54	7945.4	
698.72	6872.3	
698.91	5722	
699.09	7521.5	
699.28	7350.8	
699.46	6449.7	
699.64	6428.6	
699.83	7286	
700.01	8628.8	
700.19	7156.3	
700.38	5563.6	
700.56	8568	
700.74	7357	
700.93	5913.2	
701.11	6784.2	
701.29	7987.1	
701.48	9154.4	
701.66	6171.2	
701.84	6292.7	
702.03	7598.6	
702.21	8276.5	
702.39	5815.5	
702.58	6384.2	
702.76	7935.9	
702.94	8174.8	
703.13	5780.1	
703.31	8374.8	
703.49	7278.5	
703.68	8318.2	
703.86	5973.9	
704.04	7027.3	
704.23	7838.3	
704.41	8243.8	
704.59	6161.7	
704.78	7527	
704.96	9070.5	
705.14	8360.5	
705.33	5969.8	
705.51	6931	
705.69	7671	
705.87	8551	
706.06	7194.5	
706.24	5953.4	
706.42	8051.2	
706.61	8240.3	
706.79	7160.4	
706.97	5982.1	
707.16	7421.8	
707.34	8093.6	
707.52	7177.4	
707.7	6278.4	
707.89	7562.5	
708.07	7298.3	
708.25	7149.5	
708.44	7292.1	
708.62	7520.8	
708.8	8771.5	
708.98	7441	
709.17	6373.3	
709.35	7992.5	
709.53	8064.2	
709.72	5983.5	
709.9	6502.3	
710.08	8168	
710.26	8259.5	
710.45	7744.1	
710.63	6365.8	
710.81	7901.7	
710.99	7879.9	
711.18	6935.1	
711.36	6513.9	
711.54	7659.4	
711.72	8510.7	
711.91	6544.6	
712.09	5950.7	
712.27	7849.9	
712.45	9058.2	
712.64	6858.6	
712.82	5698.1	
713	7207.5	
713.18	7462.8	
713.37	5829.2	
713.55	7187.7	
713.73	8407.6	
713.91	6866.2	
714.1	6293.4	
714.28	5692	
714.46	7968	
714.64	7057.3	
714.83	5003.2	
715.01	5945.3	
715.19	7135.1	
715.37	6539.2	
715.55	5524.7	
715.74	5935	
715.92	8045.1	
716.1	5967.8	
716.28	7077.1	
716.47	6090	
716.65	6664.8	
716.83	6877.8	
717.01	5937.1	
717.19	5956.9	
717.38	8914.1	
717.56	6430.6	
717.74	6225.8	
717.92	5315.8	
718.1	7779.6	
718.29	6910.5	
718.47	4807.9	
718.65	5483.8	
718.83	7618.4	
719.01	7570	
719.2	4707.6	
719.38	5979.4	
719.56	7346.7	
719.74	8970.1	
719.92	5483.1	
720.11	6627.9	
720.29	7406.8	
720.47	6349.4	
720.65	5047.6	
720.83	5962.3	
721.02	6805.4	
721.2	6563.7	
721.38	5934.3	
721.56	5233.9	
721.74	5940.5	
721.92	6223.1	
722.11	6510.5	
722.29	6174.6	
722.47	7522.2	
722.65	6708.5	
722.83	5175.2	
723.01	6177.4	
723.2	6697.5	
723.38	7025.9	
723.56	4552.6	
723.74	5791.7	
723.92	6180.1	
724.1	7415.7	
724.29	5186.8	
724.47	6332.3	
724.65	6298.9	
724.83	6165.8	
725.01	4949.9	
725.19	5976	
725.37	6216.3	
725.56	6316.6	
725.74	4786.1	
725.92	5080.3	
726.1	6134.3	
726.28	6493.4	
726.46	5546.6	
726.64	5272.2	
726.83	6486.6	
727.01	6773.3	
727.19	4805.9	
727.37	5707.7	
727.55	6538.5	
727.73	7102.4	
727.91	4730.8	
728.09	4567.7	
728.28	7174	
728.46	7860.8	
728.64	5806	
728.82	5696.8	
729	8327	
729.18	7544	
729.36	4911.7	
729.54	7391.8	
729.72	8613.1	
729.91	6846.4	
730.09	7009.5	
730.27	5692	
730.45	6619	
730.63	7342	
730.81	6357.6	
730.99	5291.3	
731.17	7950.9	
731.35	6310.5	
731.53	5845.6	
731.71	5457.2	
731.9	7589.1	
732.08	7852.6	
732.26	5706.3	
732.44	5276.9	
732.62	7834.8	
732.8	7274.4	
732.98	6145.3	
733.16	5083.1	
733.34	7363.1	
733.52	5989.6	
733.7	5620.3	
733.88	5880.4	
734.07	7106.5	
734.25	6872.3	
734.43	5068.7	
734.61	6879.8	
734.79	8393.9	
734.97	6741.9	
735.15	5195	
735.33	5595.1	
735.51	7115.3	
735.69	6749.4	
735.87	6789	
736.05	5806.7	
736.23	6893.5	
736.41	6666.8	
736.59	5561.6	
736.77	5698.8	
736.95	7314	
737.13	6797.2	
737.32	5263.3	
737.5	5485.1	
737.68	7977.5	
737.86	6688.7	
738.04	5018.9	
738.22	7002.7	
738.4	6399.2	
738.58	6787.7	
738.76	5809.4	
738.94	4587.4	
739.12	6582.2	
739.3	6426.5	
739.48	6437.4	
739.66	6102.3	
739.84	6874.3	
740.02	6836.1	
740.2	4698	
740.38	5114.5	
740.56	7300.3	
740.74	6046.3	
740.92	5827.2	
741.1	5735	
741.28	6670.9	
741.46	6522.1	
741.64	5207.3	
741.82	5819.6	
742	6614.3	
742.18	6626.5	
742.36	5479.7	
742.54	5100.8	
742.72	7268.9	
742.9	5918.6	
743.08	5994.4	
743.26	4663.9	
743.44	7512.6	
743.62	7326.3	
743.8	6124.1	
743.98	5065.3	
744.16	6974.7	
744.34	6606.7	
744.52	5972.6	
744.7	5877	
744.88	7156.3	
745.06	6625.2	
745.24	5978	
745.42	6184.9	
745.6	7202	
745.78	6982.2	
745.96	4742.4	
746.14	5065.3	
746.32	8028.7	
746.5	7163.8	
746.68	5688.6	
746.86	5093.3	
747.03	7670.3	
747.21	5827.2	
747.39	5706.3	
747.57	5101.5	
747.75	6795.8	
747.93	7283.3	
748.11	5126.1	
748.29	5005.2	
748.47	8376.2	
748.65	6473.6	
748.83	5868.8	
749.01	5489.9	
749.19	6954.9	
749.37	6091.3	
749.55	5452.4	
749.73	5511.8	
749.91	6609.5	
750.09	6287.9	
750.26	5567.7	
750.44	4846.2	
750.62	6627.2	
750.8	6702.3	
750.98	4818.9	
751.16	5068.7	
751.34	6752.8	
751.52	6014.9	
751.7	5997.1	
751.88	4698	
752.06	7133.1	
752.24	6911.2	
752.42	4629.8	
752.59	5031.9	
752.77	6518.7	
752.95	7877.2	
753.13	5808	
753.31	5198.4	
753.49	6206	
753.67	6720.1	
753.85	5474.2	
754.03	5034.6	
754.21	7047.7	
754.38	7309.2	
754.56	5253	
754.74	4217.5	
754.92	6248.4	
755.1	6963.1	
755.28	4195.6	
755.46	4240.7	
755.64	7748.8	
755.82	7820.5	
755.99	4509.6	
756.17	4650.3	
756.35	5208	
756.53	6804.7	
756.71	3473.4	
756.89	4406.5	
757.07	6344.6	
757.25	5457.2	
757.42	5034.6	
757.6	5922.7	
757.78	6453.1	
757.96	5309.7	
758.14	4696	
758.32	4202.4	
758.5	4931.5	
758.67	5811.5	
758.85	4488.5	
759.03	4692.6	
759.21	6039.5	
759.39	5371.8	
759.57	4097.3	
759.75	5306.3	
759.92	6628.6	
760.1	5868.1	
760.28	5617.6	
760.46	5923.4	
760.64	5683.8	
760.82	5375.9	
760.99	5507	
761.17	4605.9	
761.35	6510.5	
761.53	5470.8	
761.71	4780	
761.89	5470.1	
762.06	6354.2	
762.24	5820.3	
762.42	4787.5	
762.6	4581.3	
762.78	5890	
762.96	6556.2	
763.13	5173.2	
763.31	4900.8	
763.49	6853.2	
763.67	5853.1	
763.85	5779.4	
764.02	6425.8	
764.2	7039.6	
764.38	6185.5	
764.56	4701.5	
764.74	5674.9	
764.91	7152.2	
765.09	5988.3	
765.27	4405.9	
765.45	4184.7	
765.63	7182.9	
765.8	7061.4	
765.98	3822.9	
766.16	4222.9	
766.34	5466	
766.52	5203.9	
766.69	5335	
766.87	4104.8	
767.05	5884.5	
767.23	6912.6	
767.41	4450.9	
767.58	4758.1	
767.76	6570.6	
767.94	6591	
768.12	4487.8	
768.29	5371.1	
768.47	6013.5	
768.65	6835.4	
768.83	4138.3	
769	5380.7	
769.18	5459.2	
769.36	6332.3	
769.54	5412.1	
769.72	4158.7	
769.89	6553.5	
770.07	6777.4	
770.25	4477.5	
770.43	5878.4	
770.6	7461.4	
770.78	7862.2	
770.96	4737	
771.14	5452.4	
771.31	6522.1	
771.49	5844.2	
771.67	3818.8	
771.85	4083	
772.02	5009.3	
772.2	5882.4	
772.38	4932.2	
772.55	4345.1	
772.73	6137.8	
772.91	5898.8	
773.09	4742.4	
773.26	4863.9	
773.44	5992.4	
773.62	5778.7	
773.8	4207.2	
773.97	3928.7	
774.15	6103.6	
774.33	5702.2	
774.5	4109.6	
774.68	4521.9	
774.86	6363	
775.04	5705.6	
775.21	4220.9	
775.39	4178.5	
775.57	6019.7	
775.74	6525.5	
775.92	4046.1	
776.1	3914.4	
776.27	6008.1	
776.45	7384.3	
776.63	4222.2	
776.81	3679.5	
776.98	5625.8	
777.16	6733.7	
777.34	4414.1	
777.51	4685.8	
777.69	5593.7	
777.87	5422.3	
778.04	4373.8	
778.22	5044.8	
778.4	5397.8	
778.57	6144.6	
778.75	3596.9	
778.93	3934.8	
779.1	5201.8	
779.28	5081	
779.46	3633.1	
779.64	4156	
779.81	6262.7	
779.99	7217.7	
780.17	5038	
780.34	5199.1	
780.52	5665.4	
780.69	5920	
780.87	4504.2	
781.05	4065.2	
781.22	5776	
781.4	5849.7	
781.58	4231.8	
781.75	3290.4	
781.93	5743.9	
782.11	5213.4	
782.28	5144.5	
782.46	4208.6	
782.64	4977.9	
782.81	5971.2	
782.99	4319.2	
783.17	4248.2	
783.34	5925.5	
783.52	5094.7	
783.69	4456.4	
783.87	5387.5	
784.05	5101.5	
784.22	5233.2	
784.4	5352.7	
784.58	4541.7	
784.75	6158.2	
784.93	5206.6	
785.1	4220.2	
785.28	4864.6	
785.46	5882.4	
785.63	5146.5	
785.81	4184.7	
785.99	3993.5	
786.16	5310.4	
786.34	5783.5	
786.51	4064.5	
786.69	4483.7	
786.87	4877.6	
787.04	5527.5	
787.22	3880.9	
787.39	4973.2	
787.57	5131.5	
787.75	6303.6	
787.92	5158.2	
788.1	5161.6	
788.27	5145.2	
788.45	4942.4	
788.63	4739	
788.8	3345.7	
788.98	5554.1	
789.15	4872.8	
789.33	3535.5	
789.5	4302.1	
789.68	6120.7	
789.86	6311.8	
790.03	4676.2	
790.21	4114.4	
790.38	6151.4	
790.56	5295.4	
790.73	3959.4	
790.91	3943	
791.09	5120.6	
791.26	5979.4	
791.44	4173.8	
791.61	3634.5	
791.79	5149.3	
791.96	5234.6	
792.14	3786.7	
792.32	3300	
792.49	5222.3	
792.67	5311.7	
792.84	3783.3	
793.02	3623.5	
793.19	5582.1	
793.37	6478.4	
793.54	3305.4	
793.72	3680.9	
793.89	6619.7	
794.07	5221.6	
794.25	4176.5	
794.42	3383.9	
794.6	6287.3	
794.77	5864.7	
794.95	4678.9	
795.12	4046.1	
795.3	5141.8	
795.47	5913.2	
795.65	4419.5	
795.82	4237.2	
796	4974.5	
796.17	7077.8	
796.35	4097.3	
796.52	4863.9	
796.7	5770.5	
796.87	5834	
797.05	5184.8	
797.22	5036.6	
797.4	5867.4	
797.57	6932.4	
797.75	4222.2	
797.92	4201.7	
798.1	6156.9	
798.27	5161.6	
798.45	3431.7	
798.62	3682.2	
798.8	5530.9	
798.97	6025.8	
799.15	4527.4	
799.32	4295.3	
799.5	4701.5	
799.67	5623	
799.85	4615.4	
800.02	3306.8	
800.2	5080.3	
800.37	5497.4	
800.55	4773.8	
800.72	4015.4	
800.9	5995.8	
801.07	6470.9	
801.25	5440.8	
801.42	4394.3	
801.6	6053.1	
801.77	5692.7	
801.95	4074.1	
802.12	3861.1	
802.29	5705.6	
802.47	5709.7	
802.64	4399.7	
802.82	3302.7	
802.99	5182	
803.17	6244.9	
803.34	4261.8	
803.52	3846.8	
803.69	6926.2	
803.87	4924	
804.04	4191.5	
804.21	4389.5	
804.39	6331	
804.56	5366.4	
804.74	3586	
804.91	4454.3	
805.09	5154.1	
805.26	5292	
805.44	3665.9	
805.61	4058.4	
805.78	5846.3	
805.96	5935.7	
806.13	4383.3	
806.31	4726	
806.48	4664.6	
806.66	5259.9	
806.83	4346.5	
807	4322.6	
807.18	5095.3	
807.35	5619.6	
807.53	4261.8	
807.7	3417.4	
807.87	6373.3	
808.05	5266	
808.22	4771.1	
808.4	3371	
808.57	5272.2	
808.74	4767.7	
808.92	3939.6	
809.09	5002.5	
809.27	5043.5	
809.44	5644.9	
809.61	3437.2	
809.79	3843.4	
809.96	6424.5	
810.14	5986.2	
810.31	3362.8	
810.48	4100.7	
810.66	5269.4	
810.83	6123.4	
811.01	3928.7	
811.18	4378.6	
811.35	5961	
811.53	4597.7	
811.7	4753.3	
811.87	4468.7	
812.05	5194.3	
812.22	5137	
812.39	3827	
812.57	3660.4	
812.74	5171.1	
812.92	6994.5	
813.09	4128	
813.26	4577.9	
813.44	6734.4	
813.61	5182.7	
813.78	3414.6	
813.96	4636.6	
814.13	5208.7	
814.3	4838	
814.48	5005.9	
814.65	4054.3	
814.82	6528.2	
815	4984.1	
815.17	4250.9	
815.34	5134.3	
815.52	5132.9	
815.69	5184.8	
815.87	4216.8	
816.04	3627	
816.21	5217.5	
816.38	4561.5	
816.56	4048.2	
816.73	3778.5	
816.9	6592.4	
817.08	6045.6	
817.25	3769.6	
817.42	4870.8	
817.6	4732.9	
817.77	5238.7	
817.94	4369	
818.12	3761.4	
818.29	4928.8	
818.46	7906.5	
818.64	3926	
818.81	3729.4	
818.98	4782.7	
819.16	7141.3	
819.33	4623.6	
819.5	4199	
819.67	5606.7	
819.85	6309.1	
820.02	4144.4	
820.19	4455.7	
820.37	5501.5	
820.54	5049.6	
820.71	4315.8	
820.88	5428.5	
821.06	5451.7	
821.23	4980.7	
821.4	4341.7	
821.58	4244.8	
821.75	5949.3	
821.92	5359.5	
822.09	3465.2	
822.27	3607.8	
822.44	5210	
822.61	5068	
822.79	3498.6	
822.96	6707.1	
823.13	5801.2	
823.3	4954.7	
823.48	3982.6	
823.65	3622.9	
823.82	5978	
823.99	4706.2	
824.17	5090.6	
824.34	3630.4	
824.51	6854.6	
824.68	5283.1	
824.86	3818.8	
825.03	4255	
825.2	5220.3	
825.37	6298.2	
825.55	3788.1	
825.72	4263.9	
825.89	7004.1	
826.06	6428.6	
826.24	4173.8	
826.41	4170.3	
826.58	6292.7	
826.75	5564.3	
826.92	3236.5	
827.1	3614	
827.27	8736	
827.44	6954.2	
827.61	3964.9	
827.79	4805.9	
827.96	4948.6	
828.13	5330.9	
828.3	4082.3	
828.47	3434.4	
828.65	5379.3	
828.82	5375.9	
828.99	5255.1	
829.16	4617.5	
829.34	5822.4	
829.51	5709.7	
829.68	4259.8	
829.85	4418.2	
830.02	6187.6	
830.2	5902.9	
830.37	3231	
830.54	5182	
830.71	6726.2	
830.88	5167	
831.05	3328.6	
831.23	3887.7	
831.4	6398.5	
831.57	7174	
831.74	3962.8	
831.91	3496.6	
832.09	5446.2	
832.26	5848.3	
832.43	4046.8	
832.6	4640.7	
832.77	5475.6	
832.94	6223.1	
833.12	3216.7	
833.29	4012	
833.46	5020.9	
833.63	7477.1	
833.8	4453.6	
833.97	4102.1	
834.15	5824.4	
834.32	5615.5	
834.49	4201.1	
834.66	4328	
834.83	6064.7	
835	4895.3	
835.17	3930.1	
835.35	3988.8	
835.52	5719.3	
835.69	5597.1	
835.86	4177.9	
836.03	3408.5	
836.2	5765	
836.37	5375.2	
836.55	4159.4	
836.72	3816.7	
836.89	5328.8	
837.06	5986.9	
837.23	4154	
837.4	4541.7	
837.57	6734.4	
837.75	7471.7	
837.92	3710.2	
838.09	3980.6	
838.26	5358.9	
838.43	6182.8	
838.6	4280.3	
838.77	3854.3	
838.94	7059.3	
839.11	6702.3	
839.29	4097.3	
839.46	3170.3	
839.63	5810.1	
839.8	5561.6	
839.97	3947.8	
840.14	3975.1	
840.31	5640.8	
840.48	5808.7	
840.65	3237.2	
840.82	4030.4	
841	5780.1	
841.17	5803.3	
841.34	3637.9	
841.51	3684.3	
841.68	5775.3	
841.85	5506.3	
842.02	3784	
842.19	3104.7	
842.36	5487.9	
842.53	5554.1	
842.7	3632.4	
842.87	4481.6	
843.05	7414.3	
843.22	5473.5	
843.39	3457.7	
843.56	3712.3	
843.73	5266.7	
843.9	5874.9	
844.07	6005.3	
844.24	4928.8	
844.41	8785.8	
844.58	5037.3	
844.75	3521.8	
844.92	3746.4	
845.09	5811.5	
845.26	5839.4	
845.43	3583.3	
845.6	3796.3	
845.77	5832.6	
845.94	5521.3	
846.12	4009.9	
846.29	4279.6	
846.46	6058.6	
846.63	5876.3	
846.8	3669.3	
846.97	4268.6	
847.14	6300.2	
847.31	5803.9	
847.48	4085	
847.65	4551.3	
847.82	6105.7	
847.99	6080.4	
848.16	4838	
848.33	4481.6	
848.5	5385.5	
848.67	6304.3	
848.84	3561.4	
849.01	3816	
849.18	5179.3	
849.35	4913.8	
849.52	4569.7	
849.69	3560.1	
849.86	6058.6	
850.03	6315.9	
850.2	3610.6	
850.37	4498	
850.54	6252.4	
850.71	5455.1	
850.88	4394.3	
851.05	3534.1	
851.22	5748	
851.39	6427.9	
851.56	3457.7	
851.73	4188.8	
851.9	5086.5	
852.07	6036.7	
852.24	4040.6	
852.41	3590.1	
852.58	5713.8	
852.75	5181.4	
852.92	4065.2	
853.09	3532.1	
853.26	5332.9	
853.43	6319.3	
853.6	3569.6	
853.77	3050.8	
853.94	6370.5	
854.11	5780.1	
854.28	5423	
854.44	3938.9	
854.61	6748.1	
854.78	6097.5	
854.95	3602.4	
855.12	4523.3	
855.29	4659.1	
855.46	6610.8	
855.63	3588.7	
855.8	5094.7	
855.97	5360.9	
856.14	6107.7	
856.31	5162.2	
856.48	3975.8	
856.65	5296	
856.82	5023	
856.99	3482.2	
857.16	3874.1	
857.33	7196.6	
857.49	5477	
857.66	3908.9	
857.83	4279.6	
858	5382.7	
858.17	5644.9	
858.34	3404.4	
858.51	3669.3	
858.68	6543.3	
858.85	6611.5	
859.02	4175.8	
859.19	4522.6	
859.36	5041.4	
859.52	5157.5	
859.69	3694.5	
859.86	4276.2	
860.03	5140.4	
860.2	6402.6	
860.37	3269.2	
860.54	3694.5	
860.71	6065.4	
860.88	6497.5	
861.05	4062.5	
861.21	4547.9	
861.38	6584.2	
861.55	4965	
861.72	3263.1	
861.89	4039.3	
862.06	6212.2	
862.23	6688	
862.4	3512.9	
862.56	3807.2	
862.73	5965.7	
862.9	5588.9	
863.07	4231.8	
863.24	3262.4	
863.41	4930.8	
863.58	5091.3	
863.75	3710.2	
863.91	4132.1	
864.08	6550.8	
864.25	6019.7	
864.42	4592.9	
864.59	5091.3	
864.76	6823.8	
864.93	5130.2	
865.09	3521.8	
865.26	3883.6	
865.43	6309.1	
865.6	6744.6	
865.77	3153.9	
865.94	3603.1	
866.1	6332.3	
866.27	6051.7	
866.44	5461.9	
866.61	3396.9	
866.78	5507.7	
866.95	5913.2	
867.11	3547.8	
867.28	3134.1	
867.45	6152.8	
867.62	5109	
867.79	4222.2	
867.96	3605.8	
868.12	5071.5	
868.29	6105	
868.46	3165.5	
868.63	4878.9	
868.8	6286.6	
868.97	6044.2	
869.13	3753.2	
869.3	3777.8	
869.47	5977.3	
869.64	6182.1	
869.81	3687	
869.97	3648.1	
870.14	5806	
870.31	6565.1	
870.48	3612.6	
870.65	4543.8	
870.81	5424.4	
870.98	5349.3	
871.15	4119.8	
871.32	3809.9	
871.48	5862.7	
871.65	6554.2	
871.82	3614.7	
871.99	4047.5	
872.16	7083.9	
872.32	6343.9	
872.49	3646.7	
872.66	3666.5	
872.83	6046.3	
872.99	5296	
873.16	4102.1	
873.33	3627	
873.5	5664	
873.67	5702.2	
873.83	3744.4	
874	4874.8	
874.17	5805.3	
874.34	6925.5	
874.5	4647.5	
874.67	4551.3	
874.84	6492.7	
875.01	5060.5	
875.17	5152.7	
875.34	3571.7	
875.51	5763	
875.68	6954.2	
875.84	4380.6	
876.01	5358.2	
876.18	5985.5	
876.34	5897.5	
876.51	3612.6	
876.68	3542.3	
876.85	5469.4	
877.01	6361.7	
877.18	5197.7	
877.35	3588.7	
877.52	5573.9	
877.68	5031.9	
877.85	3458.3	
878.02	3538.9	
878.18	5591	
878.35	5265.3	
878.52	2916.3	
878.69	4018.8	
878.85	6053.1	
879.02	5938.4	
879.19	5142.4	
879.35	3902.1	
879.52	6003.3	
879.69	6231.3	
879.86	3056.9	
880.02	4074.1	
880.19	5554.8	
880.36	6856.6	
880.52	4194.2	
880.69	4337.6	
880.86	6085.9	
881.02	6219.7	
881.19	4013.3	
881.36	4001.7	
881.52	5987.6	
881.69	5284.4	
881.86	3864.5	
882.02	3819.5	
882.19	6257.2	
882.36	7420.5	
882.52	3722.5	
882.69	5075.5	
882.86	5811.5	
883.02	5677	
883.19	4358.1	
883.36	4141	
883.52	6120.7	
883.69	7037.5	
883.86	3679.5	
884.02	3263.1	
884.19	6076.3	
884.36	5592.3	
884.52	4116.4	
884.69	3775.8	
884.86	5244.8	
885.02	6810.9	
885.19	4046.8	
885.36	4179.2	
885.52	5569.8	
885.69	5722	
885.86	5227.1	
886.02	4629.1	
886.19	6067.4	
886.35	5459.9	
886.52	4038.6	
886.69	5136.3	
886.85	5095.3	
887.02	6453.8	
887.19	6453.8	
887.35	6453.8	
887.52	6453.8	
887.68	6453.8	
887.85	6453.8	
888.02	6453.8	
888.18	6453.8	
888.35	6453.8	
888.51	6453.8	
888.68	6453.8	
888.85	6453.8	
889.01	6453.8	
889.18	6453.8	
889.35	6453.8	
889.51	6453.8	
889.68	6453.8	
889.84	6453.8	
890.01	6453.8	
890.17	6453.8	
890.34	6453.8	
890.51	6453.8	
890.67	6453.8	
890.84	6453.8	
891	6453.8	
891.17	6453.8	
891.34	6453.8	
891.5	6453.8	
891.67	6453.8	
891.83	6453.8	
892	6453.8	
892.16	6453.8	
892.33	6453.8	
892.5	6453.8	
892.66	6453.8	
892.83	6453.8	
892.99	6453.8	
893.16	6453.8	
893.32	6453.8	
893.49	6453.8	
893.65	6453.8	
893.82	6453.8	
893.99	6453.8	
894.15	6453.8	
894.32	6453.8	
894.48	6453.8	
894.65	6453.8	
894.81	6453.8	
894.98	6453.8	
895.14	6453.8	
895.31	6453.8	
895.47	6453.8	
895.64	6453.8	
895.81	6453.8	
895.97	6453.8	
896.14	6453.8	
896.3	6453.8	
896.47	6453.8	
896.63	6453.8	
896.8	6453.8	
896.96	6453.8	
897.13	6453.8	
897.29	6453.8	
897.46	6453.8	
897.62	6453.8	
897.79	6453.8	
897.95	6453.8	
898.12	6453.8	
898.28	6453.8	
898.45	6453.8	
898.61	6453.8	
898.78	6453.8	
898.94	6453.8	
899.11	6453.8	
899.27	6453.8	
899.44	6453.8	
899.6	6453.8	
899.77	6453.8	
899.93	6453.8	
900.1	6453.8	
900.26	6453.8	
900.43	6453.8	
900.59	6453.8	
900.76	6453.8	
900.92	6453.8	
901.09	6453.8	
901.25	6453.8	
901.42	6453.8	
901.58	6453.8	
901.75	6453.8	
901.91	6453.8	
902.07	6453.8	
902.24	6453.8	
902.4	6453.8	
902.57	6453.8	
902.73	6453.8	
902.9	6453.8	
903.06	6453.8	
903.23	6453.8	
903.39	6453.8	
903.56	6453.8	
903.72	6453.8	
903.88	6453.8	
904.05	6453.8	
904.21	6453.8	
904.38	6453.8	
904.54	6453.8	
904.71	6453.8	
904.87	6453.8	
905.03	6453.8	
905.2	6453.8	
905.36	6453.8	
905.53	6453.8	
905.69	6453.8	
905.86	6453.8	
906.02	6453.8	
906.18	6453.8	
906.35	6453.8	
906.51	6453.8	
906.68	6453.8	
906.84	6453.8	
907.01	6453.8	
907.17	6453.8	
907.33	6453.8	
907.5	6453.8	
907.66	6453.8	
907.83	6453.8	
907.99	6453.8	
908.15	6453.8	
908.32	6453.8	
908.48	6453.8	
908.65	6453.8	
908.81	6453.8	
908.97	6453.8	
909.14	6453.8	
909.3	6453.8	
909.47	6453.8	
909.63	6453.8	
909.79	6453.8	
909.96	6453.8	
910.12	6453.8	
910.28	6453.8	
910.45	6453.8	
910.61	6453.8	
910.78	6453.8	
910.94	6453.8	
911.1	6453.8	
911.27	6453.8	
911.43	6453.8	
911.59	6453.8	
911.76	6453.8	
911.92	6453.8	
912.08	6453.8	
912.25	6453.8	
912.41	6453.8	
912.57	6453.8	
912.74	6453.8	
912.9	6453.8	
913.07	6453.8	
913.23	6453.8	
913.39	6453.8	
913.56	6453.8	
913.72	6453.8	
913.88	6453.8	
914.05	6453.8	
914.21	6453.8	
914.37	6453.8	
914.54	6453.8	
914.7	6453.8	
914.86	6453.8	
915.03	6453.8	
915.19	6453.8	
