Wavelength	Intensities	
nm	a.u.	
179.22	1912.5	
179.44	1908.7	
179.65	1916.2	
179.86	1901.2	
180.08	1905.3	
180.29	4997	
180.51	3527.3	
180.72	5636.7	
180.94	6649.8	
181.15	3266.5	
181.37	3224.2	
181.58	5524.1	
181.79	5754.8	
182.01	3372.3	
182.22	3687	
182.44	5859.9	
182.65	4831.2	
182.87	4581.3	
183.08	4009.2	
183.29	6138.4	
183.51	4976.6	
183.72	3704.8	
183.94	5378	
184.15	5426.4	
184.37	5472.9	
184.58	3224.2	
184.79	4442.7	
185.01	5086.5	
185.22	5829.2	
185.44	4707.6	
185.65	3930.1	
185.86	5311.7	
186.08	4903.5	
186.29	3198.2	
186.51	3403	
186.72	5108.3	
186.94	5944.6	
187.15	3964.2	
187.36	4062.5	
187.58	7761.8	
187.79	5563.6	
188.01	4275.5	
188.22	6592.4	
188.43	6636.8	
188.65	5783.5	
188.86	3357.3	
189.08	4008.6	
189.29	5250.3	
189.5	5253.7	
189.72	3781.2	
189.93	3838.6	
190.15	5997.8	
190.36	7212.3	
190.57	4169.7	
190.79	4037.2	
191	6128.9	
191.22	6032.6	
191.43	4114.4	
191.64	3433.8	
191.86	6309.1	
192.07	6001.2	
192.29	3593.5	
192.5	3750.5	
192.71	6081.1	
192.93	5157.5	
193.14	3708.2	
193.35	3839.9	
193.57	5169.1	
193.78	6096.1	
194	3041.9	
194.21	3671.3	
194.42	4949.9	
194.64	5472.2	
194.85	4082.3	
195.07	4774.5	
195.28	5522	
195.49	4730.8	
195.71	4992.3	
195.92	3511.6	
196.13	5637.4	
196.35	5722	
196.56	5368.4	
196.78	4063.9	
196.99	7090.8	
197.2	6640.9	
197.42	4599.1	
197.63	4114.4	
197.84	4912.4	
198.06	5650.3	
198.27	3781.2	
198.48	5014.8	
198.7	5246.9	
198.91	5324	
199.13	4121.9	
199.34	4059.1	
199.55	5857.2	
199.77	4726	
199.98	3631	
200.19	4188.1	
200.41	5351.3	
200.62	5096	
200.83	4291.2	
201.05	4538.3	
201.26	5326.1	
201.47	5100.1	
201.69	3655.6	
201.9	3493.8	
202.11	5410.1	
202.33	6452.5	
202.54	3882.3	
202.76	4316.4	
202.97	5494.7	
203.18	5597.8	
203.4	4262.5	
203.61	4158.1	
203.82	5515.9	
204.04	5072.8	
204.25	4122.6	
204.46	4059.8	
204.68	5466.7	
204.89	5746.6	
205.1	3994.9	
205.32	3445.4	
205.53	5842.2	
205.74	6003.3	
205.96	2962	
206.17	4231.8	
206.38	5803.3	
206.6	5955.5	
206.81	4725.3	
207.02	3810.6	
207.24	5720.7	
207.45	6107	
207.66	3899.3	
207.88	3317.7	
208.09	5647.6	
208.3	5474.9	
208.52	3559.4	
208.73	3869.3	
208.94	5438	
209.15	6201.2	
209.37	3882.9	
209.58	4115.7	
209.79	6094.8	
210.01	5236	
210.22	3117	
210.43	3299.3	
210.65	5408.7	
210.86	5907	
211.07	3909.6	
211.29	3556.6	
211.5	5817.6	
211.71	5389.6	
211.93	3582.6	
212.14	3573.7	
212.35	5371.1	
212.56	5677.7	
212.78	4117.8	
212.99	3395.5	
213.2	6412.9	
213.42	5193	
213.63	3696.6	
213.84	3941	
214.06	4845.5	
214.27	4922.6	
214.48	3897.3	
214.69	4150.5	
214.91	6144.6	
215.12	6201.9	
215.33	4242	
215.55	4666.6	
215.76	6714.6	
215.97	5825.1	
216.18	4018.8	
216.4	3919.8	
216.61	5107	
216.82	5925.5	
217.04	3596.9	
217.25	3745.1	
217.46	6103.6	
217.67	5913.9	
217.89	3215.3	
218.1	3316.3	
218.31	5498.8	
218.53	5662.6	
218.74	3754.6	
218.95	3671.3	
219.16	5382.1	
219.38	6455.2	
219.59	3687	
219.8	4377.9	
220.01	7019.8	
220.23	5488.6	
220.44	4884.4	
220.65	3581.2	
220.87	5481.7	
221.08	6146.6	
221.29	3317	
221.5	4404.5	
221.72	7499.7	
221.93	5203.2	
222.14	4078.2	
222.35	4883.7	
222.57	5447.6	
222.78	5849	
222.99	3864.5	
223.2	4258.4	
223.42	5807.4	
223.63	5922	
223.84	3053.5	
224.05	3019.4	
224.27	7032.7	
224.48	6286.6	
224.69	4838	
224.9	4114.4	
225.12	5651.7	
225.33	5392.3	
225.54	3288.4	
225.75	3650.2	
225.97	5031.9	
226.18	5324	
226.39	4025.6	
226.6	3721.2	
226.82	5219.6	
227.03	5022.3	
227.24	4059.8	
227.45	3429	
227.67	5844.2	
227.88	6427.9	
228.09	4555.4	
228.3	4592.2	
228.52	5950	
228.73	5470.8	
228.94	3753.2	
229.15	3427.6	
229.36	5345.9	
229.58	5237.3	
229.79	3858.4	
230	4459.8	
230.21	6511.9	
230.43	5574.6	
230.64	4104.8	
230.85	4247.5	
231.06	5869.5	
231.28	5875.6	
231.49	3347.7	
231.7	3996.3	
231.91	5741.8	
232.12	5545.2	
232.34	3440.6	
232.55	3994.9	
232.76	6081.8	
232.97	5672.9	
233.18	3604.4	
233.4	3995.6	
233.61	5698.1	
233.82	5211.4	
234.03	3802.4	
234.25	3700.7	
234.46	7585	
234.67	5512.4	
234.88	4184	
235.09	3656.3	
235.31	5752.1	
235.52	5349.3	
235.73	4024.3	
235.94	3480.9	
236.15	5167.7	
236.37	6639.5	
236.58	3601	
236.79	3949.8	
237	5776	
237.21	4984.1	
237.43	4217.5	
237.64	3317	
237.85	9896.5	
238.06	5042.1	
238.27	4278.9	
238.48	3396.2	
238.7	5774.6	
238.91	5316.5	
239.12	3917.1	
239.33	4012	
239.54	5297.4	
239.76	5357.5	
239.97	3863.2	
240.18	3865.2	
240.39	6894.1	
240.6	5713.2	
240.82	4066.6	
241.03	3334.8	
241.24	5429.8	
241.45	6359.6	
241.66	3597.6	
241.87	4270.7	
242.09	6223.8	
242.3	6513.9	
242.51	4268.6	
242.72	3962.1	
242.93	5976.7	
243.14	5404.6	
243.36	4508.3	
243.57	4947.9	
243.78	6287.3	
243.99	5844.9	
244.2	3993.5	
244.41	3615.3	
244.63	4996.4	
244.84	5790.3	
245.05	4183.3	
245.26	3894.6	
245.47	5711.8	
245.68	6012.2	
245.9	5207.3	
246.11	4135.5	
246.32	5310.4	
246.53	5680.4	
246.74	6408.8	
246.95	3289.7	
247.16	4948.6	
247.38	5479	
247.59	3257	
247.8	3993.5	
248.01	5101.5	
248.22	5444.2	
248.43	3538.9	
248.64	3844.7	
248.86	4822.3	
249.07	5184.1	
249.28	3422.8	
249.49	4018.1	
249.7	6040.1	
249.91	6126.2	
250.12	3224.2	
250.34	3353.9	
250.55	5494	
250.76	5466	
250.97	4022.9	
251.18	4161.5	
251.39	6154.8	
251.6	5637.4	
251.81	4140.3	
252.03	4150.5	
252.24	5227.8	
252.45	6008.1	
252.66	3433.8	
252.87	4427	
253.08	5478.3	
253.29	7214.3	
253.5	3478.1	
253.72	4824.3	
253.93	5320.6	
254.14	6491.4	
254.35	3758	
254.56	3893.2	
254.77	5743.2	
254.98	5055.8	
255.19	3704.1	
255.41	4797	
255.62	5601.2	
255.83	6100.2	
256.04	4209.3	
256.25	4113.7	
256.46	6447.7	
256.67	5139	
256.88	4091.2	
257.09	4526.7	
257.31	5146.5	
257.52	5172.5	
257.73	5081	
257.94	3717.7	
258.15	5299.5	
258.36	5458.5	
258.57	4699.4	
258.78	2966.8	
258.99	5976	
259.2	5304.2	
259.41	3817.4	
259.63	3831.7	
259.84	6337.1	
260.05	6774.7	
260.26	4990.9	
260.47	3637.9	
260.68	6054.5	
260.89	5345.9	
261.1	4524	
261.31	3607.8	
261.52	6067.4	
261.73	6419	
261.95	4900.1	
262.16	4264.6	
262.37	6183.5	
262.58	6283.9	
262.79	4792.9	
263	3835.8	
263.21	5608.7	
263.42	5039.4	
263.63	3869.3	
263.84	3820.1	
264.05	6069.5	
264.26	6423.1	
264.47	4720.6	
264.69	4262.5	
264.9	6132.3	
265.11	5674.2	
265.32	3706.8	
265.53	3753.9	
265.74	5582.8	
265.95	4853	
266.16	4080.9	
266.37	4450.2	
266.58	5570.5	
266.79	5312.4	
267	3767.6	
267.21	3493.2	
267.42	5047.6	
267.63	5398.4	
267.84	3880.2	
268.06	3394.8	
268.27	5853.8	
268.48	6257.9	
268.69	3845.4	
268.9	4559.5	
269.11	6142.5	
269.32	4902.2	
269.53	3952.6	
269.74	3676.8	
269.95	5862.7	
270.16	4886.5	
270.37	3946.4	
270.58	4578.6	
270.79	5317.9	
271	6023.8	
271.21	4233.8	
271.42	4040	
271.63	5636.7	
271.84	5102.9	
272.05	3150.5	
272.26	3572.3	
272.47	5485.8	
272.68	5702.9	
272.89	3773	
273.11	4445.5	
273.32	5281	
273.53	6485.9	
273.74	4219.5	
273.95	4174.4	
274.16	6208.8	
274.37	5528.2	
274.58	4269.3	
274.79	3446	
275	5595.7	
275.21	6190.3	
275.42	5244.8	
275.63	4413.4	
275.84	5707	
276.05	7223.9	
276.26	4171	
276.47	3903.4	
276.68	5285.1	
276.89	6490	
277.1	4418.2	
277.31	3460.4	
277.52	5756.8	
277.73	5890	
277.94	3424.2	
278.15	3832.4	
278.36	5669.5	
278.57	5070.8	
278.78	3781.9	
278.99	4285	
279.2	5064.6	
279.41	4977.9	
279.62	5027.1	
279.83	3495.2	
280.04	6695.5	
280.25	5012.7	
280.46	4947.9	
280.67	3949.2	
280.88	5095.3	
281.09	6163.7	
281.3	4159.4	
281.51	5279	
281.72	5160.9	
281.93	6002.6	
282.14	3649.5	
282.35	3937.6	
282.56	5936.4	
282.77	5961	
282.98	3813.3	
283.19	4691.2	
283.4	7384.3	
283.61	5419.6	
283.82	3411.2	
284.03	4878.9	
284.24	5559.6	
284.45	6093.4	
284.66	4833.9	
284.87	4735.6	
285.08	6029.2	
285.29	6209.4	
285.5	3390.1	
285.71	3880.9	
285.92	6116.6	
286.12	6760.3	
286.33	4840.7	
286.54	3812	
286.75	5989.6	
286.96	5337	
287.17	3508.9	
287.38	4762.2	
287.59	5034.6	
287.8	5019.6	
288.01	3886.4	
288.22	4493.2	
288.43	6017.6	
288.64	5048.2	
288.85	4618.9	
289.06	4402.5	
289.27	5879.7	
289.48	6475.7	
289.69	4888.5	
289.9	4439.3	
290.11	6171.9	
290.32	5175.2	
290.53	4632.5	
290.74	4283.7	
290.94	5972.6	
291.15	5935	
291.36	3646.7	
291.57	4386.7	
291.78	5270.8	
291.99	4895.3	
292.2	3599	
292.41	4290.5	
292.62	6028.5	
292.83	5821	
293.04	5337.7	
293.25	3631	
293.46	5250.3	
293.67	6157.6	
293.88	3743.7	
294.09	3545.7	
294.29	5038	
294.5	5620.3	
294.71	4003.1	
294.92	3813.3	
295.13	5267.4	
295.34	6636.8	
295.55	3321.8	
295.76	3351.8	
295.97	5847.6	
296.18	6642.2	
296.39	3514.3	
296.6	3691.1	
296.81	5576.6	
297.01	5893.4	
297.22	3887.7	
297.43	3684.3	
297.64	5115.8	
297.85	5086.5	
298.06	3051.5	
298.27	3319.8	
298.48	5572.5	
298.69	5220.3	
298.9	4018.1	
299.11	3655.6	
299.31	5005.2	
299.52	5036	
299.73	4313	
299.94	4244.8	
300.15	5489.2	
300.36	5070.8	
300.57	4221.5	
300.78	4197.7	
300.99	5403.2	
301.2	5588.2	
301.4	3668.6	
301.61	4000.4	
301.82	5784.1	
302.03	5896.8	
302.24	4439.3	
302.45	3518.4	
302.66	5769.1	
302.87	6227.2	
303.08	3714.3	
303.29	5079	
303.49	5253.7	
303.7	5587.5	
303.91	3276.7	
304.12	4846.2	
304.33	5020.9	
304.54	5644.2	
304.75	3790.1	
304.96	3536.2	
305.16	5764.3	
305.37	6587.6	
305.58	3199.6	
305.79	3386.7	
306	5808.7	
306.21	4889.2	
306.42	3751.9	
306.63	5676.3	
306.83	5358.2	
307.04	6122.7	
307.25	4066.6	
307.46	4033.8	
307.67	4718.5	
307.88	5922	
308.09	3653.6	
308.29	3773	
308.5	5578.7	
308.71	6140.5	
308.92	3969	
309.13	3562.1	
309.34	5385.5	
309.55	5434.6	
309.75	4577.9	
309.96	4256.4	
310.17	5929.6	
310.38	5181.4	
310.59	4442.7	
310.8	3559.4	
311.01	5686.5	
311.21	5305.6	
311.42	3559.4	
311.63	3635.1	
311.84	5188.2	
312.05	5616.2	
312.26	4171	
312.46	4522.6	
312.67	5341.1	
312.88	5054.4	
313.09	3535.5	
313.3	3491.8	
313.51	6296.1	
313.71	6662	
313.92	3614.7	
314.13	3773	
314.34	5629.2	
314.55	5332.9	
314.76	4611.3	
314.96	3977.8	
315.17	5569.8	
315.38	6033.3	
315.59	3667.2	
315.8	3467.9	
316.01	6355.5	
316.21	6449.1	
316.42	3472.7	
316.63	3930.1	
316.84	5344.5	
317.05	6164.4	
317.26	4287.1	
317.46	3794.2	
317.67	5391.6	
317.88	5884.5	
318.09	4577.2	
318.3	3321.8	
318.5	5167.7	
318.71	5799.2	
318.92	5818.3	
319.13	4203.8	
319.34	6044.2	
319.54	6144.6	
319.75	3358	
319.96	3251.5	
320.17	5834	
320.38	6011.5	
320.58	3280.8	
320.79	3969	
321	6070.9	
321.21	6283.2	
321.42	3981.9	
321.62	3265.1	
321.83	5093.3	
322.04	5477.6	
322.25	3837.2	
322.46	3577.1	
322.66	5657.2	
322.87	5793.7	
323.08	4469.4	
323.29	3550.5	
323.5	6550.8	
323.7	5070.1	
323.91	4923.3	
324.12	4364.2	
324.33	5535.7	
324.53	5850.4	
324.74	4266.6	
324.95	4459.8	
325.16	4800.4	
325.37	5295.4	
325.57	3658.4	
325.78	3693.9	
325.99	5553.4	
326.2	4956.1	
326.4	5140.4	
326.61	3345	
326.82	5459.2	
327.03	5613.5	
327.24	5085.8	
327.44	4839.4	
327.65	5735.7	
327.86	4639.3	
328.07	4214	
328.27	3487.7	
328.48	6249	
328.69	5059.2	
328.9	5197.1	
329.1	3880.2	
329.31	5410.1	
329.52	6312.5	
329.73	3600.3	
329.93	4106.9	
330.14	5468.8	
330.35	5744.6	
330.56	5870.8	
330.76	4459.1	
330.97	5304.2	
331.18	5720.7	
331.39	4029	
331.59	3290.4	
331.8	6102.9	
332.01	6234	
332.22	3681.6	
332.42	4240	
332.63	5634.6	
332.84	5233.9	
333.05	4054.3	
333.25	3672.7	
333.46	5258.5	
333.67	5512.4	
333.88	3747.8	
334.08	4214.7	
334.29	7362.4	
334.5	6189.6	
334.7	3532.7	
334.91	5119.2	
335.12	5066	
335.33	5941.2	
335.53	4032.5	
335.74	5954.1	
335.95	5322	
336.16	5108.3	
336.36	4005.8	
336.57	4620.9	
336.78	4990.2	
336.98	6085.2	
337.19	4879.6	
337.4	3889.1	
337.61	6591	
337.81	5045.5	
338.02	3682.2	
338.23	4735.6	
338.43	6294.8	
338.64	5141.8	
338.85	3611.3	
339.05	4768.4	
339.26	6350.8	
339.47	4894.6	
339.68	3641.3	
339.88	5344.5	
340.09	5757.5	
340.3	6045.6	
340.5	4203.1	
340.71	3261	
340.92	5032.5	
341.13	6246.3	
341.33	3495.2	
341.54	4248.2	
341.75	5722	
341.95	5374.6	
342.16	4057	
342.37	4383.3	
342.57	5010	
342.78	5497.4	
342.99	4546.5	
343.19	3261	
343.4	5879	
343.61	5761.6	
343.81	3865.2	
344.02	3590.8	
344.23	5910.4	
344.43	6363	
344.64	4482.3	
344.85	4339	
345.06	5778	
345.26	6143.2	
345.47	4171	
345.68	4855.7	
345.88	4815.5	
346.09	5973.2	
346.3	4252.9	
346.5	3222.8	
346.71	5515.2	
346.92	5136.3	
347.12	3329.3	
347.33	4135.5	
347.54	6078.4	
347.74	6479.1	
347.95	4123.9	
348.16	3064.4	
348.36	5334.3	
348.57	5037.3	
348.78	4126	
348.98	4416.1	
349.19	5449.6	
349.39	4922	
349.6	3300	
349.81	3692.5	
350.01	5721.3	
350.22	5207.3	
350.43	4005.8	
350.63	4870.8	
350.84	5565	
351.05	5326.1	
351.25	3620.8	
351.46	3299.3	
351.67	6126.8	
351.87	5153.4	
352.08	3964.2	
352.29	4442.7	
352.49	5982.1	
352.7	6113.2	
352.9	3624.2	
353.11	4432.5	
353.32	6680.5	
353.52	5373.9	
353.73	3573.7	
353.94	4513.7	
354.14	5833.3	
354.35	5659.2	
354.55	3646.7	
354.76	4007.2	
354.97	5794.4	
355.17	5517.9	
355.38	3410.6	
355.59	4735.6	
355.79	5208.7	
356	5709.7	
356.2	4031.1	
356.41	3530.7	
356.62	4973.2	
356.82	5487.9	
357.03	4344.4	
357.24	3900	
357.44	5272.2	
357.65	5418.9	
357.85	5195	
358.06	4078.9	
358.27	5037.3	
358.47	5274.2	
358.68	3472	
358.88	4334.2	
359.09	5837.4	
359.3	6249.7	
359.5	5134.3	
359.71	4541	
359.91	6696.2	
360.12	6034	
360.33	4357.4	
360.53	4846.9	
360.74	5350	
360.94	5392.3	
361.15	4575.2	
361.36	3816.7	
361.56	6154.8	
361.77	5598.5	
361.97	5107.6	
362.18	4054.3	
362.38	6150.1	
362.59	5239.4	
362.8	3740.3	
363	3661.8	
363.21	4989.5	
363.41	5730.9	
363.62	4326	
363.83	5401.2	
364.03	5812.8	
364.24	6843.6	
364.44	5446.2	
364.65	5451.7	
364.85	5622.4	
365.06	5446.9	
365.27	4017.4	
365.47	4044.7	
365.68	6650.4	
365.88	5608	
366.09	4491.2	
366.29	4072.7	
366.5	5952.1	
366.71	6329.6	
366.91	5477.6	
367.12	4663.9	
367.32	6967.9	
367.53	6260.6	
367.73	4533.5	
367.94	5599.8	
368.14	6094.1	
368.35	7021.1	
368.56	4626.4	
368.76	3940.3	
368.97	6246.3	
369.17	7959.8	
369.38	4040.6	
369.58	4342.4	
369.79	5339.7	
369.99	6603.3	
370.2	5392.3	
370.4	4488.5	
370.61	6029.2	
370.82	7192.5	
371.02	4351.9	
371.23	3754.6	
371.43	5309	
371.64	6556.9	
371.84	4475.5	
372.05	5657.2	
372.25	8047.2	
372.46	6456.6	
372.66	4526.7	
372.87	4472.8	
373.07	6447.7	
373.28	8077.9	
373.48	5447.6	
373.69	5199.8	
373.9	5989.6	
374.1	6020.3	
374.31	5490.6	
374.51	5051.7	
374.72	6858.6	
374.92	5725.4	
375.13	5740.5	
375.33	4922.6	
375.54	6481.8	
375.74	6008.1	
375.95	5087.2	
376.15	6336.4	
376.36	6498.2	
376.56	6352.8	
376.77	5235.3	
376.97	5664	
377.18	7692.2	
377.38	6747.4	
377.59	5935.7	
377.79	4750.6	
378	6526.2	
378.2	7038.2	
378.41	4848.2	
378.61	4749.2	
378.82	7047.7	
379.02	6218.3	
379.23	5054.4	
379.43	6139.8	
379.64	7187.7	
379.84	6803.4	
380.05	4872.1	
380.25	4699.4	
380.46	6870.9	
380.66	6383.5	
380.87	6162.3	
381.07	6526.9	
381.28	7517.4	
381.48	6855.2	
381.69	4840.7	
381.89	4935.6	
382.1	5791	
382.3	7030	
382.51	5948	
382.71	6943.3	
382.91	6853.2	
383.12	7357	
383.32	5150	
383.53	5425.8	
383.73	6649.1	
383.94	6493.4	
384.14	5309	
384.35	4469.4	
384.55	6299.6	
384.76	6816.3	
384.96	5162.2	
385.17	5440.1	
385.37	6744	
385.58	6027.2	
385.78	5476.3	
385.98	4379.9	
386.19	6275.7	
386.39	6674.3	
386.6	4931.5	
386.8	5188.9	
387.01	6795.2	
387.21	6832.7	
387.42	5608	
387.62	6259.3	
387.83	6208.8	
388.03	6890.7	
388.23	5387.5	
388.44	6197.2	
388.64	5934.3	
388.85	6126.8	
389.05	5794.4	
389.26	6389	
389.46	8066.3	
389.67	7440.3	
389.87	5833.3	
390.07	5868.8	
390.28	6662	
390.48	6212.2	
390.69	5098.8	
390.89	5366.4	
391.1	6419.7	
391.3	7425.3	
391.5	6568.5	
391.71	7161.7	
391.91	7138.5	
392.12	8243.1	
392.32	6642.2	
392.53	5754.1	
392.73	6472.3	
392.93	6678.4	
393.14	5449.6	
393.34	6211.5	
393.55	7157.7	
393.75	6664.1	
393.95	5489.2	
394.16	5425.8	
394.36	6629.3	
394.57	7170.6	
394.77	5085.1	
394.98	5412.8	
395.18	6543.3	
395.38	6617.7	
395.59	6464.8	
395.79	5427.8	
396	6816.3	
396.2	7270.3	
396.4	6292	
396.61	6320.7	
396.81	7514.7	
397.02	6843.6	
397.22	6701.6	
397.42	6773.3	
397.63	7598.6	
397.83	6889.4	
398.04	5507.7	
398.24	6199.9	
398.44	7361.8	
398.65	6519.4	
398.85	5416.9	
399.05	5642.2	
399.26	6997.2	
399.46	8805.6	
399.67	6104.3	
399.87	5795.1	
400.07	7407.5	
400.28	7752.9	
400.48	5988.3	
400.69	7137.9	
400.89	8605.6	
401.09	8473.1	
401.3	5949.3	
401.5	7053.2	
401.7	8791.9	
401.91	8923	
402.11	6171.9	
402.32	6390.3	
402.52	7999.4	
402.72	7796.6	
402.93	6479.8	
403.13	5289.2	
403.33	8550.3	
403.54	7204.8	
403.74	6148	
403.94	7040.9	
404.15	7338.6	
404.35	8619.2	
404.56	5984.8	
404.76	7889.5	
404.96	7902.4	
405.17	7666.2	
405.37	7380.9	
405.57	6591	
405.78	8041	
405.98	7409.6	
406.18	6107.7	
406.39	6996.5	
406.59	7972.1	
406.79	7618.4	
407	6023.8	
407.2	6144.6	
407.4	8190.5	
407.61	8482.7	
407.81	6300.2	
408.01	8549.6	
408.22	7274.4	
408.42	9601.6	
408.62	7806.9	
408.83	7408.9	
409.03	8401.5	
409.23	8329.1	
409.44	7524.9	
409.64	7894.9	
409.84	9623.4	
410.05	9550.4	
410.25	7884	
410.45	7722.9	
410.66	9190.6	
410.86	11652	
411.06	8385.7	
411.27	8169.3	
411.47	11710	
411.67	9631.6	
411.88	8454	
412.08	8959.9	
412.28	10133	
412.49	10924	
412.69	8566	
412.89	8607.6	
413.09	10574	
413.3	10602	
413.5	8733.2	
413.7	8357.1	
413.91	9800.2	
414.11	10860	
414.31	8609.7	
414.52	9171.5	
414.72	10512	
414.92	10415	
415.12	8601.5	
415.33	9223.4	
415.53	11014	
415.73	11086	
415.94	9535.3	
416.14	8994.7	
416.34	10046	
416.55	9607	
416.75	10380	
416.95	9781.1	
417.15	11084	
417.36	11735	
417.56	10879	
417.76	9818.6	
417.97	11564	
418.17	11404	
418.37	9262.3	
418.57	9395.4	
418.78	11058	
418.98	10649	
419.18	10221	
419.38	10208	
419.59	10765	
419.79	10280	
419.99	9256.8	
420.2	9652.8	
420.4	11211	
420.6	11441	
420.8	9198.1	
421.01	9019.3	
421.21	11155	
421.41	11324	
421.61	9540.1	
421.82	9234.3	
422.02	10572	
422.22	11385	
422.42	10062	
422.63	9549.7	
422.83	10666	
423.03	12011	
423.23	9530.6	
423.44	8603.5	
423.64	10695	
423.84	10258	
424.04	9043.1	
424.25	8738	
424.45	11521	
424.65	11348	
424.85	8440.4	
425.06	9058.2	
425.26	11487	
425.46	10503	
425.66	9544.2	
425.87	9091.6	
426.07	11194	
426.27	10944	
426.47	9273.2	
426.67	8669.7	
426.88	11477	
427.08	10933	
427.28	9681.4	
427.48	8548.2	
427.69	9804.3	
427.89	10481	
428.09	9615.2	
428.29	8602.2	
428.5	11229	
428.7	10832	
428.9	8817.2	
429.1	9301.2	
429.3	10712	
429.51	11251	
429.71	8856.1	
429.91	9902.6	
430.11	11088	
430.31	11440	
430.52	9366.7	
430.72	9767.4	
430.92	11760	
431.12	11295	
431.32	9164	
431.53	9503.3	
431.73	10281	
431.93	11918	
432.13	9043.1	
432.33	9010.4	
432.54	10719	
432.74	11016	
432.94	9044.5	
433.14	10079	
433.34	11246	
433.55	11030	
433.75	10061	
433.95	12102	
434.15	11186	
434.35	11136	
434.56	9312.8	
434.76	9073.2	
434.96	11267	
435.16	11765	
435.36	9282.8	
435.56	10686	
435.77	11193	
435.97	11469	
436.17	11470	
436.37	10730	
436.57	11227	
436.78	11189	
436.98	11799	
437.18	11004	
437.38	11966	
437.58	11206	
437.78	11163	
437.99	9753.1	
438.19	11682	
438.39	13203	
438.59	9699.2	
438.79	9227.5	
438.99	12606	
439.2	11396	
439.4	9430.2	
439.6	9572.2	
439.8	11897	
440	13018	
440.2	10800	
440.4	10985	
440.61	12496	
440.81	13091	
441.01	10230	
441.21	11277	
441.41	13050	
441.61	12598	
441.81	11531	
442.02	12566	
442.22	13606	
442.42	12894	
442.62	10394	
442.82	10415	
443.02	13193	
443.22	12497	
443.43	11101	
443.63	10565	
443.83	12073	
444.03	12289	
444.23	12066	
444.43	11523	
444.63	12598	
444.83	13715	
445.04	10778	
445.24	12100	
445.44	12829	
445.64	12885	
445.84	11224	
446.04	11456	
446.24	12097	
446.44	13088	
446.65	10329	
446.85	10988	
447.05	11908	
447.25	13047	
447.45	11019	
447.65	10269	
447.85	12344	
448.05	11826	
448.25	11459	
448.46	11333	
448.66	12507	
448.86	12192	
449.06	10271	
449.26	11499	
449.46	13007	
449.66	11832	
449.86	11153	
450.06	11142	
450.26	12167	
450.47	12859	
450.67	11153	
450.87	11644	
451.07	12889	
451.27	12813	
451.47	10583	
451.67	11555	
451.87	12565	
452.07	13434	
452.27	11069	
452.47	10899	
452.67	12590	
452.88	13342	
453.08	10067	
453.28	12568	
453.48	14171	
453.68	12569	
453.88	11269	
454.08	11374	
454.28	13373	
454.48	12928	
454.68	12043	
454.88	12441	
455.08	13426	
455.28	13576	
455.48	10983	
455.68	11963	
455.89	14202	
456.09	13870	
456.29	11703	
456.49	11832	
456.69	14427	
456.89	13437	
457.09	12604	
457.29	13071	
457.49	14077	
457.69	14308	
457.89	12748	
458.09	11933	
458.29	14017	
458.49	14891	
458.69	13163	
458.89	12608	
459.09	15169	
459.29	15212	
459.49	12702	
459.69	13545	
459.9	14586	
460.1	14547	
460.3	12415	
460.5	12376	
460.7	14849	
460.9	14560	
461.1	12086	
461.3	13715	
461.5	15754	
461.7	15261	
461.9	13231	
462.1	13469	
462.3	15202	
462.5	15715	
462.7	13314	
462.9	13644	
463.1	16851	
463.3	16923	
463.5	13807	
463.7	15236	
463.9	15697	
464.1	16066	
464.3	14528	
464.5	14377	
464.7	16418	
464.9	16547	
465.1	16002	
465.3	15128	
465.5	16800	
465.7	17088	
465.9	15535	
466.1	14873	
466.3	17106	
466.5	16554	
466.7	16596	
466.9	15104	
467.1	16923	
467.3	17916	
467.5	16759	
467.7	15494	
467.9	18069	
468.1	19277	
468.3	15980	
468.5	16759	
468.7	17165	
468.9	17111	
469.1	15857	
469.3	16612	
469.5	19227	
469.7	16980	
469.9	16025	
470.1	15630	
470.3	17180	
470.5	17380	
470.7	16862	
470.9	15555	
471.1	17077	
471.3	17078	
471.5	15479	
471.69	17378	
471.89	16765	
472.09	16341	
472.29	16359	
472.49	16217	
472.69	16475	
472.89	17372	
473.09	15427	
473.29	15106	
473.49	16761	
473.69	16654	
473.89	16267	
474.09	15279	
474.29	17950	
474.49	17538	
474.69	16368	
474.89	15472	
475.09	16778	
475.29	16690	
475.49	14743	
475.69	15313	
475.88	18072	
476.08	16840	
476.28	14681	
476.48	14952	
476.68	17161	
476.88	17061	
477.08	14898	
477.28	15410	
477.48	16429	
477.68	16936	
477.88	14872	
478.08	15001	
478.28	17647	
478.48	16618	
478.67	15130	
478.87	14227	
479.07	17664	
479.27	16806	
479.47	15339	
479.67	15314	
479.87	17194	
480.07	17846	
480.27	14643	
480.47	16290	
480.67	16716	
480.87	17503	
481.06	14846	
481.26	15829	
481.46	16662	
481.66	16628	
481.86	15438	
482.06	16423	
482.26	16522	
482.46	17474	
482.66	15373	
482.86	15023	
483.05	16889	
483.25	16469	
483.45	17984	
483.65	15535	
483.85	16698	
484.05	16937	
484.25	15926	
484.45	16771	
484.65	17823	
484.84	18175	
485.04	15721	
485.24	15677	
485.44	18383	
485.64	16763	
485.84	15307	
486.04	16771	
486.24	17259	
486.44	17709	
486.63	15337	
486.83	16068	
487.03	17448	
487.23	17917	
487.43	15438	
487.63	18262	
487.83	17917	
488.02	18991	
488.22	17029	
488.42	17598	
488.62	18759	
488.82	17764	
489.02	16324	
489.22	16819	
489.41	18627	
489.61	18557	
489.81	16274	
490.01	16332	
490.21	18529	
490.41	19331	
490.61	16146	
490.8	16206	
491	18066	
491.2	17173	
491.4	16722	
491.6	15912	
491.8	17925	
491.99	18157	
492.19	15867	
492.39	16179	
492.59	18710	
492.79	18839	
492.99	17249	
493.18	16570	
493.38	19112	
493.58	20263	
493.78	17712	
493.98	17174	
494.18	19230	
494.37	18940	
494.57	18421	
494.77	18178	
494.97	19925	
495.17	20476	
495.37	18080	
495.56	18372	
495.76	20727	
495.96	20395	
496.16	19555	
496.36	18354	
496.55	20659	
496.75	20274	
496.95	18919	
497.15	18820	
497.35	20675	
497.54	20829	
497.74	18649	
497.94	20551	
498.14	21674	
498.34	21312	
498.53	18740	
498.73	19571	
498.93	20717	
499.13	21181	
499.33	19357	
499.52	19790	
499.72	21480	
499.92	21495	
500.12	19239	
500.32	19439	
500.51	21485	
500.71	21461	
500.91	20362	
501.11	19864	
501.31	21325	
501.5	21692	
501.7	20465	
501.9	19448	
502.1	21011	
502.29	21409	
502.49	19915	
502.69	20184	
502.89	21001	
503.09	21258	
503.28	18540	
503.48	18658	
503.68	20082	
503.88	20394	
504.07	19595	
504.27	18978	
504.47	20577	
504.67	20482	
504.86	19165	
505.06	19045	
505.26	19979	
505.46	21743	
505.65	18698	
505.85	18630	
506.05	19512	
506.25	19987	
506.44	17693	
506.64	18475	
506.84	19220	
507.04	20116	
507.23	17735	
507.43	18270	
507.63	21093	
507.83	19148	
508.02	17901	
508.22	17580	
508.42	21291	
508.62	18869	
508.81	17789	
509.01	18514	
509.21	18602	
509.4	19066	
509.6	18116	
509.8	17526	
510	19040	
510.19	20693	
510.39	17316	
510.59	17634	
510.79	18971	
510.98	20419	
511.18	17804	
511.38	17712	
511.57	19693	
511.77	19798	
511.97	18430	
512.17	17277	
512.36	19965	
512.56	19724	
512.76	17520	
512.95	17081	
513.15	20058	
513.35	18640	
513.55	18508	
513.74	17669	
513.94	19929	
514.14	19387	
514.33	18813	
514.53	18363	
514.73	19493	
514.92	19762	
515.12	18097	
515.32	17884	
515.51	19922	
515.71	20474	
515.91	19826	
516.11	18157	
516.3	21926	
516.5	19583	
516.7	18633	
516.89	19420	
517.09	19888	
517.29	19701	
517.48	19082	
517.68	18216	
517.88	19579	
518.07	20222	
518.27	19144	
518.47	18014	
518.66	20796	
518.86	19409	
519.06	17888	
519.25	18483	
519.45	19838	
519.65	21427	
519.84	18911	
520.04	19695	
520.24	21520	
520.43	20084	
520.63	18334	
520.83	18147	
521.02	19250	
521.22	20029	
521.42	18635	
521.61	19343	
521.81	19501	
522.01	19649	
522.2	18822	
522.4	18546	
522.6	20568	
522.79	19587	
522.99	18778	
523.18	18443	
523.38	20651	
523.58	20850	
523.77	20753	
523.97	18550	
524.17	23111	
524.36	22182	
524.56	20480	
524.76	20200	
524.95	21472	
525.15	21047	
525.34	19880	
525.54	19988	
525.74	21855	
525.93	20793	
526.13	21260	
526.33	20444	
526.52	22432	
526.72	22061	
526.91	21817	
527.11	20996	
527.31	22625	
527.5	23185	
527.7	21037	
527.89	20119	
528.09	21734	
528.29	22468	
528.48	21349	
528.68	20886	
528.87	22705	
529.07	22653	
529.27	20763	
529.46	20125	
529.66	22046	
529.85	22399	
530.05	19810	
530.25	20738	
530.44	23654	
530.64	21964	
530.83	20809	
531.03	21117	
531.23	22827	
531.42	22746	
531.62	22010	
531.81	21175	
532.01	23441	
532.21	23999	
532.4	21402	
532.6	21807	
532.79	24354	
532.99	23862	
533.18	22053	
533.38	22941	
533.58	23502	
533.77	24283	
533.97	22292	
534.16	23067	
534.36	24524	
534.55	23490	
534.75	23066	
534.95	22092	
535.14	24591	
535.34	23477	
535.53	21664	
535.73	23621	
535.92	24832	
536.12	23601	
536.31	21868	
536.51	23126	
536.71	23854	
536.9	23406	
537.1	21896	
537.29	22089	
537.49	24359	
537.68	23257	
537.88	22592	
538.07	21888	
538.27	23850	
538.46	24754	
538.66	21841	
538.86	22442	
539.05	23812	
539.25	24050	
539.44	22582	
539.64	21727	
539.83	23414	
540.03	24356	
540.22	21793	
540.42	21760	
540.61	23459	
540.81	23748	
541	21969	
541.2	22822	
541.39	22745	
541.59	23322	
541.78	22353	
541.98	21202	
542.18	22286	
542.37	22255	
542.57	21354	
542.76	22242	
542.96	21915	
543.15	22775	
543.35	21042	
543.54	20336	
543.74	22782	
543.93	22331	
544.13	20830	
544.32	22089	
544.52	22338	
544.71	21617	
544.91	19781	
545.1	20912	
545.3	21592	
545.49	22528	
545.69	19680	
545.88	20132	
546.08	23358	
546.27	22645	
546.47	20667	
546.66	19940	
546.86	22400	
547.05	22898	
547.24	20135	
547.44	20198	
547.63	21206	
547.83	22562	
548.02	20435	
548.22	20454	
548.41	20888	
548.61	22253	
548.8	19765	
549	19757	
549.19	21334	
549.39	21820	
549.58	19291	
549.78	19946	
549.97	21783	
550.17	21171	
550.36	20545	
550.55	21766	
550.75	21220	
550.94	22119	
551.14	19553	
551.33	19578	
551.53	20533	
551.72	21731	
551.92	19910	
552.11	19664	
552.31	21574	
552.5	21679	
552.69	21307	
552.89	19033	
553.08	21539	
553.28	21142	
553.47	19515	
553.67	20797	
553.86	22151	
554.06	20327	
554.25	18629	
554.44	19222	
554.64	22655	
554.83	22288	
555.03	19071	
555.22	19563	
555.42	21475	
555.61	21070	
555.8	19213	
556	19545	
556.19	20442	
556.39	21475	
556.58	19286	
556.78	19127	
556.97	21031	
557.16	20919	
557.36	20525	
557.55	18924	
557.75	19670	
557.94	21874	
558.13	18840	
558.33	18543	
558.52	21354	
558.72	20203	
558.91	18747	
559.1	18806	
559.3	19891	
559.49	19462	
559.69	18185	
559.88	19069	
560.07	20704	
560.27	21002	
560.46	19252	
560.66	19405	
560.85	20373	
561.04	19344	
561.24	18516	
561.43	18387	
561.63	19706	
561.82	20112	
562.01	19992	
562.21	18736	
562.4	20442	
562.59	21620	
562.79	18804	
562.98	18559	
563.18	20431	
563.37	22005	
563.56	19339	
563.76	18511	
563.95	19960	
564.14	19975	
564.34	18988	
564.53	18632	
564.73	20548	
564.92	20952	
565.11	19124	
565.31	18611	
565.5	21153	
565.69	20059	
565.89	18646	
566.08	19025	
566.27	20968	
566.47	21628	
566.66	19508	
566.85	18383	
567.05	20622	
567.24	20102	
567.44	18532	
567.63	19875	
567.82	20768	
568.02	20579	
568.21	18702	
568.4	18830	
568.6	20547	
568.79	20433	
568.98	18441	
569.18	18646	
569.37	20301	
569.56	22528	
569.76	18714	
569.95	19748	
570.14	20404	
570.34	20358	
570.53	18107	
570.72	18097	
570.91	20924	
571.11	19822	
571.3	18511	
571.49	19424	
571.69	20070	
571.88	19403	
572.07	19055	
572.27	18825	
572.46	19467	
572.65	20327	
572.85	18455	
573.04	18854	
573.23	21003	
573.43	20153	
573.62	18269	
573.81	19088	
574	20345	
574.2	20016	
574.39	18717	
574.58	18834	
574.78	21375	
574.97	20733	
575.16	19216	
575.36	19538	
575.55	20955	
575.74	21112	
575.93	18340	
576.13	19782	
576.32	20191	
576.51	20992	
576.71	18812	
576.9	20185	
577.09	21274	
577.28	20801	
577.48	19439	
577.67	18406	
577.86	20471	
578.05	20870	
578.25	19122	
578.44	19297	
578.63	20721	
578.83	21745	
579.02	18436	
579.21	20220	
579.4	20968	
579.6	20658	
579.79	19298	
579.98	21807	
580.17	21599	
580.37	21659	
580.56	19093	
580.75	20048	
580.94	22109	
581.14	21931	
581.33	20520	
581.52	19443	
581.71	21590	
581.91	22278	
582.1	19256	
582.29	19939	
582.48	21319	
582.68	21395	
582.87	20409	
583.06	20014	
583.25	21800	
583.45	21033	
583.64	20807	
583.83	21617	
584.02	21207	
584.21	21778	
584.41	20618	
584.6	20026	
584.79	21584	
584.98	22319	
585.18	19322	
585.37	19452	
585.56	20992	
585.75	21928	
585.94	19381	
586.14	20197	
586.33	21978	
586.52	20985	
586.71	19570	
586.91	19343	
587.1	20094	
587.29	21239	
587.48	18912	
587.67	19002	
587.87	20437	
588.06	20530	
588.25	19658	
588.44	18624	
588.63	19430	
588.83	19869	
589.02	17182	
589.21	16859	
589.4	17912	
589.59	17840	
589.78	15187	
589.98	15162	
590.17	16590	
590.36	17120	
590.55	14175	
590.74	14814	
590.94	18079	
591.13	16625	
591.32	14760	
591.51	14120	
591.7	17135	
591.89	16576	
592.09	14447	
592.28	14947	
592.47	15928	
592.66	18024	
592.85	14554	
593.05	15053	
593.24	16847	
593.43	17664	
593.62	15322	
593.81	15806	
594	17007	
594.19	17292	
594.39	15096	
594.58	14952	
594.77	17301	
594.96	17841	
595.15	14765	
595.34	15421	
595.54	17101	
595.73	16161	
595.92	14291	
596.11	15443	
596.3	17610	
596.49	16378	
596.68	15298	
596.88	15715	
597.07	17637	
597.26	16339	
597.45	14870	
597.64	16295	
597.83	16771	
598.02	17430	
598.22	15093	
598.41	15766	
598.6	17372	
598.79	16826	
598.98	15403	
599.17	16408	
599.36	17486	
599.55	18661	
599.74	17580	
599.94	17516	
600.13	18229	
600.32	16929	
600.51	15330	
600.7	15478	
600.89	18983	
601.08	19139	
601.27	15416	
601.47	16591	
601.66	18434	
601.85	19075	
602.04	16341	
602.23	16675	
602.42	17572	
602.61	18333	
602.8	16311	
602.99	16022	
603.18	18041	
603.37	18422	
603.57	16742	
603.76	17378	
603.95	19071	
604.14	18681	
604.33	16351	
604.52	16694	
604.71	18586	
604.9	17995	
605.09	17314	
605.28	17133	
605.47	18998	
605.66	18718	
605.86	16888	
606.05	16303	
606.24	19043	
606.43	17470	
606.62	16875	
606.81	17430	
607	18667	
607.19	18113	
607.38	16064	
607.57	16328	
607.76	17854	
607.95	17286	
608.14	16657	
608.33	17296	
608.52	17751	
608.72	18692	
608.91	15739	
609.1	15787	
609.29	17795	
609.48	17190	
609.67	16586	
609.86	15691	
610.05	17234	
610.24	17486	
610.43	15569	
610.62	15222	
610.81	18682	
611	18584	
611.19	15630	
611.38	16526	
611.57	17933	
611.76	19151	
611.95	15353	
612.14	15203	
612.33	17604	
612.52	17107	
612.71	16035	
612.9	15158	
613.09	16767	
613.28	19241	
613.47	15651	
613.66	16726	
613.85	17802	
614.04	17177	
614.24	15756	
614.43	15003	
614.62	17944	
614.81	17833	
615	16341	
615.19	16510	
615.38	17112	
615.57	17521	
615.76	16070	
615.95	17144	
616.14	17877	
616.33	17473	
616.52	16568	
616.71	16855	
616.9	17981	
617.09	17911	
617.28	15918	
617.47	17257	
617.66	17151	
617.85	17196	
618.04	17098	
618.22	16554	
618.41	17705	
618.6	18784	
618.79	16553	
618.98	16277	
619.17	19125	
619.36	17253	
619.55	16497	
619.74	16617	
619.93	18270	
620.12	17955	
620.31	17166	
620.5	17460	
620.69	19518	
620.88	19531	
621.07	18198	
621.26	17011	
621.45	18731	
621.64	18903	
621.83	17298	
622.02	16529	
622.21	18652	
622.4	18591	
622.59	17904	
622.78	17552	
622.97	18208	
623.16	19114	
623.35	17373	
623.54	16425	
623.72	18306	
623.91	18464	
624.1	17486	
624.29	16014	
624.48	19585	
624.67	18720	
624.86	17417	
625.05	16427	
625.24	19445	
625.43	17943	
625.62	18984	
625.81	16494	
626	18791	
626.19	18102	
626.38	17212	
626.56	16396	
626.75	17725	
626.94	18457	
627.13	16761	
627.32	15380	
627.51	18041	
627.7	19351	
627.89	15365	
628.08	16684	
628.27	17049	
628.46	17281	
628.65	15566	
628.83	15283	
629.02	17772	
629.21	17176	
629.4	16227	
629.59	16464	
629.78	17157	
629.97	18300	
630.16	16602	
630.35	15997	
630.54	18796	
630.72	18374	
630.91	15928	
631.1	16539	
631.29	17884	
631.48	18140	
631.67	16567	
631.86	16089	
632.05	17592	
632.24	17542	
632.42	15750	
632.61	16410	
632.8	17634	
632.99	17361	
633.18	16473	
633.37	16776	
633.56	17988	
633.75	17907	
633.93	16564	
634.12	16165	
634.31	18753	
634.5	18731	
634.69	16417	
634.88	16654	
635.07	17979	
635.25	18499	
635.44	17263	
635.63	17492	
635.82	17712	
636.01	17162	
636.2	17070	
636.39	16662	
636.57	18712	
636.76	18459	
636.95	16167	
637.14	17446	
637.33	18228	
637.52	19138	
637.7	15754	
637.89	16748	
638.08	17681	
638.27	19157	
638.46	16925	
638.65	17246	
638.83	18852	
639.02	17374	
639.21	16513	
639.4	17139	
639.59	17801	
639.78	17316	
639.96	15528	
640.15	15726	
640.34	17592	
640.53	17588	
640.72	15366	
640.91	15815	
641.09	16929	
641.28	18214	
641.47	15581	
641.66	16556	
641.85	17598	
642.03	17480	
642.22	16141	
642.41	15527	
642.6	16761	
642.79	16025	
642.97	15073	
643.16	16036	
643.35	16565	
643.54	16158	
643.73	14759	
643.91	15405	
644.1	15689	
644.29	16401	
644.48	14279	
644.67	14351	
644.85	15498	
645.04	15651	
645.23	13389	
645.42	13709	
645.6	14677	
645.79	15799	
645.98	13228	
646.17	12102	
646.36	13932	
646.54	14434	
646.73	13420	
646.92	12287	
647.11	13906	
647.29	14820	
647.48	12337	
647.67	12063	
647.86	15155	
648.05	15287	
648.23	12782	
648.42	14121	
648.61	14855	
648.8	14676	
648.98	12592	
649.17	12985	
649.36	14220	
649.55	13798	
649.73	12635	
649.92	13453	
650.11	14066	
650.3	14476	
650.48	12710	
650.67	12306	
650.86	14660	
651.05	13536	
651.23	12622	
651.42	12669	
651.61	14079	
651.79	14196	
651.98	12951	
652.17	12451	
652.36	14412	
652.54	13599	
652.73	12525	
652.92	12231	
653.11	14408	
653.29	14478	
653.48	11526	
653.67	12585	
653.85	14008	
654.04	14949	
654.23	12472	
654.42	11847	
654.6	13032	
654.79	13559	
654.98	11153	
655.16	11744	
655.35	12529	
655.54	12495	
655.73	11359	
655.91	11381	
656.1	14003	
656.29	12805	
656.47	11127	
656.66	12928	
656.85	13257	
657.03	13365	
657.22	11922	
657.41	12070	
657.59	13652	
657.78	13483	
657.97	11862	
658.16	12578	
658.34	14304	
658.53	14761	
658.72	13606	
658.9	14047	
659.09	13941	
659.28	14037	
659.46	12429	
659.65	12430	
659.84	13642	
660.02	14259	
660.21	12366	
660.4	12364	
660.58	14644	
660.77	14068	
660.96	13007	
661.14	11941	
661.33	15285	
661.52	15053	
661.7	11792	
661.89	15760	
662.08	13565	
662.26	13355	
662.45	12046	
662.64	12202	
662.82	14360	
663.01	13560	
663.2	12184	
663.38	13122	
663.57	14164	
663.75	14121	
663.94	12540	
664.13	13829	
664.31	13533	
664.5	14332	
664.69	12793	
664.87	13401	
665.06	13328	
665.25	14156	
665.43	13751	
665.62	13616	
665.8	14397	
665.99	13669	
666.18	12354	
666.36	12653	
666.55	14265	
666.74	14136	
666.92	11956	
667.11	13601	
667.29	13661	
667.48	14130	
667.67	13289	
667.85	12334	
668.04	13631	
668.22	13588	
668.41	12393	
668.6	12643	
668.78	13333	
668.97	13474	
669.15	12622	
669.34	11578	
669.53	13278	
669.71	13644	
669.9	11781	
670.08	12440	
670.27	13261	
670.46	13818	
670.64	12589	
670.83	12942	
671.01	13089	
671.2	13747	
671.38	12035	
671.57	11755	
671.76	14410	
671.94	15036	
672.13	11658	
672.31	12794	
672.5	14040	
672.69	13372	
672.87	11987	
673.06	12179	
673.24	13803	
673.43	13129	
673.61	12469	
673.8	12156	
673.98	13949	
674.17	14029	
674.36	12725	
674.54	12575	
674.73	13572	
674.91	13857	
675.1	12188	
675.28	11875	
675.47	13429	
675.65	14115	
675.84	12066	
676.03	12469	
676.21	13124	
676.4	12704	
676.58	12835	
676.77	12540	
676.95	14633	
677.14	13106	
677.32	11652	
677.51	11475	
677.69	13842	
677.88	12719	
678.06	11568	
678.25	11745	
678.44	13436	
678.62	13084	
678.81	11282	
678.99	12481	
679.18	14108	
679.36	13794	
679.55	11886	
679.73	12566	
679.92	13562	
680.1	13033	
680.29	13126	
680.47	11854	
680.66	12876	
680.84	13776	
681.03	11144	
681.21	12193	
681.4	13052	
681.58	12694	
681.77	11456	
681.95	11488	
682.14	13633	
682.32	13995	
682.51	12337	
682.69	11028	
682.88	12563	
683.06	13198	
683.25	11772	
683.43	12382	
683.62	12768	
683.8	13076	
683.99	12091	
684.17	11125	
684.36	13460	
684.54	11792	
684.73	9703.3	
684.91	9752.4	
685.1	11579	
685.28	10879	
685.46	9984.5	
685.65	10021	
685.83	11600	
686.02	11055	
686.2	9451.4	
686.39	9656.9	
686.57	10958	
686.76	12521	
686.94	9652.1	
687.13	9813.2	
687.31	11684	
687.5	11239	
687.68	9264.3	
687.86	10661	
688.05	12875	
688.23	10698	
688.42	10786	
688.6	10137	
688.79	11252	
688.97	11210	
689.16	10376	
689.34	9219.3	
689.52	12097	
689.71	12166	
689.89	10516	
690.08	9705.3	
690.26	11295	
690.45	11142	
690.63	10373	
690.81	9606.3	
691	10663	
691.18	10677	
691.37	9632.3	
691.55	11778	
691.74	10551	
691.92	12652	
692.1	9549	
692.29	9068.4	
692.47	10727	
692.66	10115	
692.84	9310.7	
693.02	9982.5	
693.21	10477	
693.39	10876	
693.58	10301	
693.76	9696.4	
693.94	12482	
694.13	12428	
694.31	10057	
694.5	11327	
694.68	11426	
694.86	11778	
695.05	10656	
695.23	11126	
695.42	12284	
695.6	14590	
695.78	11237	
695.97	10103	
696.15	12134	
696.34	11367	
696.52	9785.9	
696.7	10461	
696.89	11507	
697.07	10800	
697.25	10124	
697.44	11649	
697.62	11171	
697.81	11427	
697.99	9596.8	
698.17	10073	
698.36	10426	
698.54	11196	
698.72	10032	
698.91	8979.7	
699.09	10688	
699.28	10550	
699.46	9710.1	
699.64	9507.4	
699.83	10491	
700.01	11802	
700.19	10482	
700.38	8931.9	
700.56	11942	
700.74	11037	
700.93	9520.3	
701.11	10617	
701.29	11647	
701.48	12841	
701.66	9871.2	
701.84	9985.2	
702.03	11252	
702.21	11923	
702.39	9413.8	
702.58	10090	
702.76	11699	
702.94	11675	
703.13	9372.9	
703.31	11888	
703.49	10896	
703.68	12027	
703.86	9561.3	
704.04	10699	
704.23	11368	
704.41	11857	
704.59	9826.8	
704.78	11037	
704.96	12658	
705.14	11992	
705.33	9601.6	
705.51	10486	
705.69	11384	
705.87	12134	
706.06	10753	
706.24	9660.3	
706.42	11740	
706.61	12038	
706.79	10780	
706.97	9627.5	
707.16	11140	
707.34	11783	
707.52	10765	
707.7	9871.2	
707.89	11404	
708.07	10945	
708.25	10881	
708.44	10945	
708.62	11166	
708.8	12319	
708.98	11083	
709.17	10124	
709.35	11689	
709.53	11607	
709.72	9668.5	
709.9	9858.2	
710.08	11884	
710.26	11903	
710.45	11288	
710.63	9976.3	
710.81	11413	
710.99	11389	
711.18	10529	
711.36	9831.6	
711.54	11005	
711.72	11575	
711.91	9674.6	
712.09	9011.7	
712.27	10892	
712.45	11363	
712.64	9521	
712.82	8391.2	
713	9769.5	
713.18	9791.3	
713.37	8069.7	
713.55	9091.6	
713.73	10039	
713.91	8459.5	
714.1	7658.7	
714.28	6971.3	
714.46	9109.4	
714.64	8061.5	
714.83	6004.6	
715.01	6683.2	
715.19	7860.8	
715.37	7202	
715.55	6229.9	
715.74	6543.9	
715.92	8761.9	
716.1	6663.4	
716.28	7609.6	
716.47	6581.5	
716.65	7333.8	
716.83	7479.9	
717.01	6503	
717.19	6597.2	
717.38	9677.3	
717.56	7304.4	
717.74	7023.2	
717.92	6184.9	
718.1	8774.2	
718.29	8121.6	
718.47	6256.5	
718.65	7036.8	
718.83	9183.1	
719.01	9210.4	
719.2	6432.7	
719.38	7543.4	
719.56	8902.5	
719.74	10462	
719.92	6830.7	
720.11	7892.2	
720.29	8523	
720.47	7635.5	
720.65	6121.4	
720.83	6978.1	
721.02	7735.2	
721.2	7423.9	
721.38	6770.6	
721.56	5986.9	
721.74	6825.9	
721.92	7056.6	
722.11	7284.6	
722.29	6913.3	
722.47	8270.4	
722.65	7473.7	
722.83	6071.5	
723.01	6966.5	
723.2	7548.8	
723.38	7911.3	
723.56	5457.8	
723.74	6630	
723.92	7069.6	
724.1	8297.7	
724.29	5939.1	
724.47	7159.7	
724.65	7194.5	
724.83	7110.5	
725.01	5789.6	
725.19	6783.6	
725.37	7071.6	
725.56	7281.2	
725.74	5752.7	
725.92	6143.2	
726.1	7096.2	
726.28	7445	
726.46	6419.7	
726.64	6119.3	
726.83	7326.9	
727.01	7642.3	
727.19	5740.5	
727.37	6539.2	
727.55	7567.9	
727.73	8012.3	
727.91	5754.8	
728.09	5666.7	
728.28	8204.2	
728.46	8923.7	
728.64	7002	
728.82	6980.2	
729	9710.8	
729.18	8861.6	
729.36	6498.9	
729.54	8875.2	
729.72	10226	
729.91	8469	
730.09	8748.9	
730.27	7451.9	
730.45	8468.4	
730.63	9147.6	
730.81	8138.6	
730.99	7212.3	
731.17	9791.3	
731.35	8253.3	
731.53	7724.3	
731.71	7279.8	
731.9	9407.7	
732.08	9564	
732.26	7508.5	
732.44	7219.1	
732.62	9573.6	
732.8	9142.8	
732.98	7968	
733.16	6911.2	
733.34	8970.1	
733.52	7767.3	
733.7	7451.2	
733.88	7784.3	
734.07	8916.9	
734.25	8783.7	
734.43	6985.6	
734.61	8723.7	
734.79	10401	
734.97	8638.3	
735.15	7183.6	
735.33	7525.6	
735.51	9059.5	
735.69	8734.6	
735.87	9033.6	
736.05	7852.6	
736.23	9023.4	
736.41	8834.3	
736.59	7660.1	
736.77	7828	
736.95	9616.6	
737.13	9019.3	
737.32	7486	
737.5	7680.6	
737.68	10183	
737.86	8944.8	
738.04	7271.7	
738.22	9166	
738.4	8652.7	
738.58	8985.1	
738.76	8031.5	
738.94	6970.6	
739.12	8912.8	
739.3	8755.1	
739.48	8729.8	
739.66	8401.5	
739.84	9265	
740.02	9325.8	
740.2	7051.8	
740.38	7314	
740.56	9657.5	
740.74	8458.8	
740.92	8105.9	
741.1	8010.3	
741.28	8994	
741.46	8900.5	
741.64	7566.6	
741.82	8225.3	
742	8929.1	
742.18	8931.9	
742.36	7808.9	
742.54	7340.6	
742.72	9570.8	
742.9	8251.9	
743.08	8230.8	
743.26	6855.9	
743.44	9798.2	
743.62	9574.9	
743.8	8331.1	
743.98	7384.3	
744.16	9308.7	
744.34	8897.1	
744.52	8144.8	
744.7	8148.9	
744.88	9377	
745.06	8796.7	
745.24	8151.6	
745.42	8275.2	
745.6	9405.6	
745.78	9200.8	
745.96	6971.3	
746.14	7211.6	
746.32	10198	
746.5	9339.4	
746.68	7755	
746.86	7191.8	
747.03	9843.9	
747.21	8023.3	
747.39	7796.6	
747.57	7202	
747.75	8882.7	
747.93	9259.5	
748.11	7150.8	
748.29	7069.6	
748.47	10540	
748.65	8544.8	
748.83	7940.7	
749.01	7704.5	
749.19	9196.7	
749.37	8239	
749.55	7501.7	
749.73	7549.5	
749.91	8703.2	
750.09	8381	
750.26	7605.5	
750.44	6983.6	
750.62	8781.7	
750.8	8701.8	
750.98	6778.8	
751.16	7212.3	
751.34	8789.2	
751.52	8108.6	
751.7	8040.3	
751.88	6817.7	
752.06	9365.4	
752.24	9005.6	
752.42	6720.1	
752.59	7141.3	
752.77	8713.4	
752.95	10023	
753.13	7891.5	
753.31	7250.5	
753.49	8286.8	
753.67	8823.3	
753.85	7441.6	
754.03	6997.9	
754.21	8990.6	
754.38	9266.4	
754.56	6997.2	
754.74	5963.7	
754.92	7803.4	
755.1	8448.6	
755.28	5575.9	
755.46	5227.8	
755.64	8461.5	
755.82	8315.4	
755.99	4891.2	
756.17	5137.7	
756.35	5362.3	
756.53	6931	
756.71	3618.8	
756.89	4614.8	
757.07	6555.5	
757.25	5724.1	
757.42	5311.1	
757.6	6304.3	
757.78	6963.1	
757.96	5963.7	
758.14	5210	
758.32	4641.4	
758.5	5379.3	
758.67	6156.2	
758.85	4800.4	
759.03	4947.2	
759.21	6291.4	
759.39	5754.1	
759.57	4446.8	
759.75	5612.8	
759.92	7061.4	
760.1	6346	
760.28	6098.2	
760.46	6406.7	
760.64	6224.5	
760.82	6069.5	
760.99	5943.2	
761.17	5356.1	
761.35	7299.6	
761.53	6403.3	
761.71	5724.8	
761.89	6417	
762.06	7501	
762.24	7068.2	
762.42	5970.5	
762.6	5802.6	
762.78	7105.1	
762.96	7852.6	
763.13	6542.6	
763.31	6340.5	
763.49	8122.2	
763.67	7347.4	
763.85	7156.3	
764.02	7842.4	
764.2	8589.9	
764.38	7653.9	
764.56	6287.3	
764.74	7191.1	
764.91	8641.7	
765.09	7466.9	
765.27	5991	
765.45	5839.4	
765.63	8720.3	
765.8	8525	
765.98	5457.2	
766.16	5822.4	
766.34	6983.6	
766.52	6956.3	
766.69	6840.2	
766.87	5621	
767.05	7469.6	
767.23	8109.3	
767.41	5913.9	
767.58	6234.7	
767.76	7927	
767.94	7994.6	
768.12	5967.8	
768.29	6718	
768.47	7433.4	
768.65	8162.5	
768.83	5485.1	
769	6722.1	
769.18	6922.8	
769.36	7618.4	
769.54	6393.1	
769.72	5553.4	
769.89	7890.1	
770.07	7992.5	
770.25	5816.2	
770.43	7161.1	
770.6	8617.2	
770.78	9095.7	
770.96	5883.8	
771.14	6626.5	
771.31	7651.2	
771.49	7013.6	
771.67	5051	
771.85	5317.9	
772.02	6236.1	
772.2	6977.4	
772.38	6013.5	
772.55	5478.3	
772.73	7184.3	
772.91	6900.3	
773.09	5771.9	
773.26	5920	
773.44	7086	
773.62	6792.4	
773.8	5294	
773.97	5022.3	
774.15	7165.8	
774.33	6742.6	
774.5	5015.5	
774.68	5543.9	
774.86	7184.3	
775.04	6696.9	
775.21	5156.8	
775.39	5149.3	
775.57	6937.8	
775.74	7365.9	
775.92	4941.1	
776.1	4819.6	
776.27	6866.8	
776.45	8185	
776.63	5036	
776.81	4553.3	
776.98	6464.8	
777.16	7578.2	
777.34	5173.2	
777.51	5566.4	
777.69	6453.1	
777.87	6191.7	
778.04	5142.4	
778.22	5791	
778.4	6173.3	
778.57	6901.7	
778.75	4415.4	
778.93	4662.5	
779.1	5903.6	
779.28	5814.2	
779.46	4324.6	
779.64	4885.8	
779.81	6880.5	
779.99	7797.3	
780.17	5613.5	
780.34	5720.7	
780.52	6331	
780.69	6523.5	
780.87	5082.4	
781.05	4653	
781.22	6225.1	
781.4	6390.3	
781.58	4717.2	
781.75	3861.8	
781.93	6245.6	
782.11	5652.4	
782.28	5700.2	
782.46	4677.6	
782.64	5498.1	
782.81	6477	
782.99	4738.3	
783.17	4672.8	
783.34	6305.7	
783.52	5500.8	
783.69	4866.7	
783.87	5718.6	
784.05	5551.4	
784.22	5550	
784.4	5686.5	
784.58	4856.4	
784.75	6528.2	
784.93	5603.9	
785.1	4507.6	
785.28	5195.7	
785.46	6167.1	
785.63	5552.7	
785.81	4514.4	
785.99	4356	
786.16	5655.1	
786.34	6049	
786.51	4394.9	
786.69	4803.9	
786.87	5259.2	
787.04	5717.9	
787.22	4186	
787.39	5111	
787.57	5464	
787.75	6566.5	
787.92	5382.1	
788.1	5345.9	
788.27	5522.7	
788.45	5242.1	
788.63	5042.8	
788.8	3738.2	
788.98	5990.3	
789.15	5180.7	
789.33	3783.3	
789.5	4509.6	
789.68	6424.5	
789.86	6502.3	
790.03	4874.8	
790.21	4325.3	
790.38	6305	
790.56	5526.1	
790.73	4185.4	
790.91	4141	
791.09	5388.9	
791.26	6121.4	
791.44	4333.5	
791.61	3784.6	
791.79	5361.6	
791.96	5532.2	
792.14	3908.2	
792.32	3483.6	
792.49	5340.4	
792.67	5475.6	
792.84	3990.8	
793.02	3792.2	
793.19	5833.3	
793.37	6578.8	
793.54	3481.5	
793.72	3857	
793.89	6661.4	
794.07	5339.1	
794.25	4511	
794.42	3560.7	
794.6	6426.5	
794.77	6000.5	
794.95	4758.1	
795.12	4111	
795.3	5280.3	
795.47	5944.6	
795.65	4521.2	
795.82	4335.5	
796	5129.5	
796.17	7096.9	
796.35	4236.6	
796.52	4947.9	
796.7	5834.7	
796.87	5941.2	
797.05	5193.6	
797.22	5100.8	
797.4	5900.9	
797.57	6913.9	
797.75	4317.8	
797.92	4098.7	
798.1	6214.9	
798.27	5234.6	
798.45	3462.4	
798.62	3763.5	
798.8	5599.1	
798.97	6109.1	
799.15	4587.4	
799.32	4337.6	
799.5	4861.2	
799.67	5628.5	
799.85	4653	
800.02	3342.3	
800.2	5185.5	
800.37	5520.6	
800.55	4835.3	
800.72	4097.3	
800.9	6025.8	
801.07	6541.9	
801.25	5412.8	
801.42	4427.7	
801.6	6069.5	
801.77	5784.1	
801.95	4024.3	
802.12	3968.3	
802.29	5805.3	
802.47	5723.4	
802.64	4468	
802.82	3326.6	
802.99	5167.7	
803.17	6253.1	
803.34	4197.7	
803.52	3835.8	
803.69	6945.3	
803.87	4964.3	
804.04	4285.7	
804.21	4308.9	
804.39	6316.6	
804.56	5337.7	
804.74	3562.1	
804.91	4382	
805.09	5116.5	
805.26	5292	
805.44	3671.3	
805.61	4032.5	
805.78	5887.9	
805.96	5933	
806.13	4402.5	
806.31	4754	
806.48	4763.6	
806.66	5236.7	
806.83	4396.3	
807	4366.3	
807.18	5124	
807.35	5527.5	
807.53	4169.7	
807.7	3425.6	
807.87	6351.4	
808.05	5188.9	
808.22	4704.2	
808.4	3372.3	
808.57	5197.1	
808.74	4802.5	
808.92	3877.5	
809.09	4997.7	
809.27	5064.6	
809.44	5672.9	
809.61	3428.3	
809.79	3783.3	
809.96	6344.6	
810.14	5911.1	
810.31	3338.2	
810.48	4068.6	
810.66	5271.5	
810.83	6070.2	
811.01	3862.5	
811.18	4648.9	
811.35	5935.7	
811.53	4620.2	
811.7	4731.5	
811.87	4448.2	
812.05	5145.9	
812.22	5145.9	
812.39	3693.2	
812.57	3634.5	
812.74	5171.8	
812.92	6909.8	
813.09	4048.8	
813.26	4406.5	
813.44	6694.8	
813.61	5102.2	
813.78	3428.3	
813.96	4544.4	
814.13	5123.3	
814.3	4769	
814.48	4929.5	
814.65	4085	
814.82	6472.3	
815	4979.3	
815.17	4160.1	
815.34	5168.4	
815.52	5094.7	
815.69	5107.6	
815.87	4160.1	
816.04	3581.9	
816.21	5265.3	
816.38	4560.1	
816.56	4003.1	
816.73	3715.7	
816.9	6520.7	
817.08	6010.8	
817.25	3768.3	
817.42	4777.2	
817.6	4706.9	
817.77	5177.9	
817.94	4244.1	
818.12	3706.8	
818.29	4894.6	
818.46	7684	
818.64	3912.3	
818.81	3711.6	
818.98	4845.5	
819.16	7080.5	
819.33	4490.5	
819.5	4185.4	
819.67	5488.6	
819.85	6228.6	
820.02	4101.4	
820.19	4388.1	
820.37	5383.4	
820.54	4982.7	
820.71	4281.6	
820.88	5313.1	
821.06	5466.7	
821.23	4924	
821.4	4313.7	
821.58	4216.1	
821.75	5966.4	
821.92	5296	
822.09	3375.7	
822.27	3543.7	
822.44	5181.4	
822.61	5023	
822.79	3445.4	
822.96	6581.5	
823.13	5618.3	
823.3	4892.6	
823.48	3995.6	
823.65	3583.9	
823.82	5876.3	
823.99	4744.5	
824.17	5081.7	
824.34	3656.3	
824.51	6812.2	
824.68	5225.1	
824.86	3838.6	
825.03	4248.9	
825.2	5141.8	
825.37	6331	
825.55	3794.9	
825.72	4134.2	
825.89	6845.7	
826.06	6369.2	
826.24	4049.5	
826.41	4129.4	
826.58	6318	
826.75	5558.9	
826.92	3211.2	
827.1	3577.1	
827.27	8617.2	
827.44	6939.9	
827.61	3879.5	
827.79	4747.9	
827.96	4898.7	
828.13	5269.4	
828.3	4049.5	
828.47	3447.4	
828.65	5459.2	
828.82	5401.2	
828.99	5309	
829.16	4581.3	
829.34	5773.9	
829.51	5587.5	
829.68	4259.8	
829.85	4404.5	
830.02	6134.3	
830.2	5834	
830.37	3295.2	
830.54	5074.9	
830.71	6608.8	
830.88	5160.9	
831.05	3323.9	
831.23	3802.4	
831.4	6320.7	
831.57	7141.3	
831.74	3898.6	
831.91	3455.6	
832.09	5427.1	
832.26	5774.6	
832.43	4078.2	
832.6	4590.2	
832.77	5432.6	
832.94	6207.4	
833.12	3246	
833.29	4012.7	
833.46	5085.1	
833.63	7358.4	
833.8	4394.9	
833.97	4044.1	
834.15	5800.5	
834.32	5591	
834.49	4205.2	
834.66	4347.2	
834.83	6081.8	
835	4878.9	
835.17	3904.1	
835.35	3933.5	
835.52	5754.1	
835.69	5594.4	
835.86	4118.5	
836.03	3362.1	
836.2	5816.9	
836.37	5392.3	
836.55	4031.1	
836.72	3747.1	
836.89	5326.8	
837.06	5801.2	
837.23	4126	
837.4	4545.8	
837.57	6640.2	
837.75	7333.1	
837.92	3695.2	
838.09	3973.7	
838.26	5355.4	
838.43	6105	
838.6	4257	
838.77	3744.4	
838.94	6966.5	
839.11	6684.6	
839.29	4029.7	
839.46	3192.8	
839.63	5784.8	
839.8	5484.5	
839.97	3911.6	
840.14	3889.8	
840.31	5523.4	
840.48	5714.5	
840.65	3240.6	
840.82	3854.3	
841	5733.6	
841.17	5754.1	
841.34	3637.9	
841.51	3640.6	
841.68	5697.4	
841.85	5506.3	
842.02	3809.9	
842.19	3108.1	
842.36	5528.8	
842.53	5489.9	
842.7	3599	
842.87	4504.8	
843.05	7273	
843.22	5471.5	
843.39	3468.6	
843.56	3733.4	
843.73	5228.5	
843.9	5891.3	
844.07	5872.2	
844.24	4886.5	
844.41	8525.7	
844.58	5027.8	
844.75	3502.7	
844.92	3748.5	
845.09	5836	
845.26	5700.9	
845.43	3588.7	
845.6	3780.6	
845.77	5783.5	
845.94	5512.4	
846.12	3981.3	
846.29	4226.3	
846.46	6031.3	
846.63	5797.8	
846.8	3583.3	
846.97	4290.5	
847.14	6251.1	
847.31	5746.6	
847.48	4007.2	
847.65	4472.1	
847.82	6024.4	
847.99	5962.3	
848.16	4816.8	
848.33	4465.9	
848.5	5298.1	
848.67	6273.6	
848.84	3551.2	
849.01	3799.7	
849.18	5157.5	
849.35	4845.5	
849.52	4493.2	
849.69	3568.2	
849.86	5972.6	
850.03	6246.3	
850.2	3558	
850.37	4401.8	
850.54	6126.8	
850.71	5419.6	
850.88	4323.9	
851.05	3554.6	
851.22	5633.3	
851.39	6343.2	
851.56	3364.1	
851.73	4127.3	
851.9	5038	
852.07	6075.6	
852.24	3984.7	
852.41	3569.6	
852.58	5661.3	
852.75	5102.2	
852.92	4018.1	
853.09	3489.7	
853.26	5412.1	
853.43	6298.2	
853.6	3579.8	
853.77	3076.7	
853.94	6333.7	
854.11	5038.7	
854.28	5356.1	
854.44	3863.2	
854.61	6826.6	
854.78	5829.9	
854.95	3551.9	
855.12	4475.5	
855.29	4610	
855.46	6320.7	
855.63	3558.7	
855.8	4926	
855.97	5330.2	
856.14	6143.2	
856.31	4988.9	
856.48	3848.8	
856.65	5340.4	
856.82	5025	
856.99	3419.4	
857.16	3773	
857.33	7003.4	
857.49	5354.1	
857.66	3790.8	
857.83	4124.6	
858	5321.3	
858.17	5547.9	
858.34	3402.4	
858.51	3585.3	
858.68	6504.3	
858.85	6516.6	
859.02	4137.6	
859.19	4403.8	
859.36	5011.4	
859.52	5073.5	
859.69	3579.2	
859.86	4181.3	
860.03	5129.5	
860.2	6417	
860.37	3252.2	
860.54	3585.3	
860.71	6001.2	
860.88	6386.9	
861.05	4037.9	
861.21	4497.3	
861.38	6518	
861.55	4942.4	
861.72	3252.2	
861.89	4042	
862.06	6068.1	
862.23	6574.7	
862.4	3462.4	
862.56	3758.7	
862.73	5899.5	
862.9	5486.5	
863.07	4169	
863.24	3214.6	
863.41	4934.2	
863.58	5100.1	
863.75	3629.7	
863.91	4157.4	
864.08	6371.9	
864.25	5945.9	
864.42	4494.6	
864.59	4974.5	
864.76	6679.8	
864.93	5016.8	
865.09	3438.5	
865.26	3786	
865.43	6271.6	
865.6	6648.4	
865.77	3127.9	
865.94	3533.4	
866.1	6285.2	
866.27	6107.7	
866.44	5423.7	
866.61	3390.8	
866.78	5415.5	
866.95	5866.1	
867.11	3414.6	
867.28	3179.8	
867.45	6094.1	
867.62	5205.3	
867.79	4221.5	
867.96	3545	
868.12	5019.6	
868.29	6062.7	
868.46	3084.2	
868.63	4754.7	
868.8	6240.2	
868.97	5980.8	
869.13	3732.1	
869.3	3780.6	
869.47	5861.3	
869.64	6113.9	
869.81	3558.7	
869.97	3570.3	
870.14	5776.6	
870.31	6498.9	
870.48	3442.6	
870.65	4508.9	
870.81	5374.6	
870.98	5388.2	
871.15	4100.7	
871.32	3680.2	
871.48	5836.7	
871.65	6536.4	
871.82	3605.1	
871.99	3893.2	
872.16	6955.6	
872.32	6317.3	
872.49	3573	
872.66	3709.6	
872.83	5954.1	
872.99	5261.2	
873.16	4071.4	
873.33	3564.8	
873.5	5603.2	
873.67	5632.6	
873.83	3706.1	
874	4779.3	
874.17	5751.4	
874.34	6870.3	
874.5	4599.1	
874.67	4438.6	
874.84	6436.8	
875.01	5054.4	
875.17	5025.7	
875.34	3565.5	
875.51	5666.7	
875.68	6911.9	
875.84	4324.6	
876.01	5210	
876.18	5946.6	
876.34	5894.1	
876.51	3587.4	
876.68	3478.1	
876.85	5433.3	
877.01	6266.8	
877.18	5158.2	
877.35	3521.8	
877.52	5643.5	
877.68	4936.3	
877.85	3463.1	
878.02	3534.8	
878.18	5491.3	
878.35	5242.8	
878.52	2861	
878.69	4031.8	
878.85	5976.7	
879.02	6002.6	
879.19	5082.4	
879.35	3878.9	
879.52	5899.5	
879.69	6141.2	
879.86	3047.4	
880.02	4005.8	
880.19	5511.8	
880.36	6690	
880.52	4099.4	
880.69	4210.6	
880.86	6029.9	
881.02	6139.1	
881.19	3904.1	
881.36	3910.9	
881.52	5949.3	
881.69	5278.3	
881.86	3855	
882.02	3765.5	
882.19	6282.5	
882.36	7351.5	
882.52	3624.9	
882.69	5014.8	
882.86	5751.4	
883.02	5605.3	
883.19	4354.7	
883.36	4093.2	
883.52	6153.5	
883.69	6942.6	
883.86	3618.1	
884.02	3279.5	
884.19	6005.3	
884.36	5575.9	
884.52	4080.9	
884.69	3760.1	
884.86	5294.7	
885.02	6632.7	
885.19	4018.8	
885.36	4140.3	
885.52	5515.2	
885.69	5698.8	
885.86	5165	
886.02	4533.5	
886.19	6010.8	
886.35	5509.7	
886.52	3962.1	
886.69	5016.2	
886.85	5059.2	
887.02	6449.7	
887.19	6449.7	
887.35	6449.7	
887.52	6449.7	
887.68	6449.7	
887.85	6449.7	
888.02	6449.7	
888.18	6449.7	
888.35	6449.7	
888.51	6449.7	
888.68	6449.7	
888.85	6449.7	
889.01	6449.7	
889.18	6449.7	
889.35	6449.7	
889.51	6449.7	
889.68	6449.7	
889.84	6449.7	
890.01	6449.7	
890.17	6449.7	
890.34	6449.7	
890.51	6449.7	
890.67	6449.7	
890.84	6449.7	
891	6449.7	
891.17	6449.7	
891.34	6449.7	
891.5	6449.7	
891.67	6449.7	
891.83	6449.7	
892	6449.7	
892.16	6449.7	
892.33	6449.7	
892.5	6449.7	
892.66	6449.7	
892.83	6449.7	
892.99	6449.7	
893.16	6449.7	
893.32	6449.7	
893.49	6449.7	
893.65	6449.7	
893.82	6449.7	
893.99	6449.7	
894.15	6449.7	
894.32	6449.7	
894.48	6449.7	
894.65	6449.7	
894.81	6449.7	
894.98	6449.7	
895.14	6449.7	
895.31	6449.7	
895.47	6449.7	
895.64	6449.7	
895.81	6449.7	
895.97	6449.7	
896.14	6449.7	
896.3	6449.7	
896.47	6449.7	
896.63	6449.7	
896.8	6449.7	
896.96	6449.7	
897.13	6449.7	
897.29	6449.7	
897.46	6449.7	
897.62	6449.7	
897.79	6449.7	
897.95	6449.7	
898.12	6449.7	
898.28	6449.7	
898.45	6449.7	
898.61	6449.7	
898.78	6449.7	
898.94	6449.7	
899.11	6449.7	
899.27	6449.7	
899.44	6449.7	
899.6	6449.7	
899.77	6449.7	
899.93	6449.7	
900.1	6449.7	
900.26	6449.7	
900.43	6449.7	
900.59	6449.7	
900.76	6449.7	
900.92	6449.7	
901.09	6449.7	
901.25	6449.7	
901.42	6449.7	
901.58	6449.7	
901.75	6449.7	
901.91	6449.7	
902.07	6449.7	
902.24	6449.7	
902.4	6449.7	
902.57	6449.7	
902.73	6449.7	
902.9	6449.7	
903.06	6449.7	
903.23	6449.7	
903.39	6449.7	
903.56	6449.7	
903.72	6449.7	
903.88	6449.7	
904.05	6449.7	
904.21	6449.7	
904.38	6449.7	
904.54	6449.7	
904.71	6449.7	
904.87	6449.7	
905.03	6449.7	
905.2	6449.7	
905.36	6449.7	
905.53	6449.7	
905.69	6449.7	
905.86	6449.7	
906.02	6449.7	
906.18	6449.7	
906.35	6449.7	
906.51	6449.7	
906.68	6449.7	
906.84	6449.7	
907.01	6449.7	
907.17	6449.7	
907.33	6449.7	
907.5	6449.7	
907.66	6449.7	
907.83	6449.7	
907.99	6449.7	
908.15	6449.7	
908.32	6449.7	
908.48	6449.7	
908.65	6449.7	
908.81	6449.7	
908.97	6449.7	
909.14	6449.7	
909.3	6449.7	
909.47	6449.7	
909.63	6449.7	
909.79	6449.7	
909.96	6449.7	
910.12	6449.7	
910.28	6449.7	
910.45	6449.7	
910.61	6449.7	
910.78	6449.7	
910.94	6449.7	
911.1	6449.7	
911.27	6449.7	
911.43	6449.7	
911.59	6449.7	
911.76	6449.7	
911.92	6449.7	
912.08	6449.7	
912.25	6449.7	
912.41	6449.7	
912.57	6449.7	
912.74	6449.7	
912.9	6449.7	
913.07	6449.7	
913.23	6449.7	
913.39	6449.7	
913.56	6449.7	
913.72	6449.7	
913.88	6449.7	
914.05	6449.7	
914.21	6449.7	
914.37	6449.7	
914.54	6449.7	
914.7	6449.7	
914.86	6449.7	
915.03	6449.7	
915.19	6449.7	
