Wavelength	Intensities	
nm	a.u.	
179.22	1736.3	
179.44	1740.8	
179.65	1731.9	
179.86	1749.6	
180.08	1744.2	
180.29	4083	
180.51	3066.5	
180.72	5083.1	
180.94	5621.7	
181.15	2790	
181.37	2747	
181.58	4934.9	
181.79	5063.3	
182.01	2926.5	
182.22	3005.1	
182.44	5071.5	
182.65	4364.2	
182.87	3753.9	
183.08	3407.8	
183.29	5360.2	
183.51	4520.5	
183.72	3114.3	
183.94	4351.9	
184.15	4805.9	
184.37	4785.4	
184.58	2736.1	
184.79	3642.7	
185.01	4552	
185.22	5189.6	
185.44	3835.8	
185.65	3347.1	
185.86	4810.7	
186.08	4509.6	
186.29	2722.4	
186.51	2895.1	
186.72	4558.8	
186.94	5283.8	
187.15	3297.9	
187.36	3387.3	
187.58	6621.8	
187.79	4958.8	
188.01	3521.8	
188.22	5280.3	
188.43	5785.5	
188.65	5089.9	
188.86	2863.1	
189.08	3425.6	
189.29	4699.4	
189.5	4690.5	
189.72	3180.5	
189.93	3245.3	
190.15	5252.4	
190.36	6135	
190.57	3443.3	
190.79	3291.1	
191	5304.9	
191.22	5287.2	
191.43	3440.6	
191.64	2966.8	
191.86	5498.1	
192.07	5328.1	
192.29	3031	
192.5	3144.3	
192.71	5273.5	
192.93	4681.7	
193.14	3143.6	
193.35	3274	
193.57	4708.3	
193.78	5243.5	
194	2608.4	
194.21	3106.8	
194.42	4531.5	
194.64	4887.1	
194.85	3367.5	
195.07	3888.4	
195.28	4869.4	
195.49	4313	
195.71	4106.2	
195.92	2973.7	
196.13	5016.2	
196.35	5043.5	
196.56	4340.3	
196.78	3380.5	
196.99	6102.3	
197.2	5689.9	
197.42	3745.1	
197.63	3424.9	
197.84	4392.2	
198.06	4972.5	
198.27	3145.7	
198.48	4054.3	
198.7	4629.8	
198.91	4872.8	
199.13	3412.6	
199.34	3411.9	
199.55	5252.4	
199.77	4257	
199.98	3080.1	
200.19	3460.4	
200.41	4814.1	
200.62	4556.7	
200.83	3498.6	
201.05	3771	
201.26	4796.3	
201.47	4640.7	
201.69	3070.6	
201.9	2990.7	
202.11	4841.4	
202.33	5584.1	
202.54	3173	
202.76	3580.5	
202.97	4904.9	
203.18	4980.7	
203.4	3539.6	
203.61	3511.6	
203.82	4953.4	
204.04	4625.7	
204.25	3438.5	
204.46	3364.1	
204.68	4813.4	
204.89	5046.2	
205.1	3315	
205.32	2968.2	
205.53	5118.6	
205.74	5266	
205.96	2620	
206.17	3463.8	
206.38	5075.5	
206.6	5218.2	
206.81	3897.3	
207.02	3212.6	
207.24	5061.2	
207.45	5339.1	
207.66	3211.9	
207.88	2890.4	
208.09	5020.3	
208.3	4861.9	
208.52	3002.3	
208.73	3322.5	
208.94	4866.7	
209.15	5356.8	
209.37	3313.6	
209.58	3676.8	
209.79	5253.7	
210.01	4743.1	
210.22	2690.3	
210.43	2800.3	
210.65	4854.4	
210.86	5123.3	
211.07	3279.5	
211.29	3022.8	
211.5	5076.2	
211.71	4770.4	
211.93	3093.1	
212.14	3046.7	
212.35	4833.9	
212.56	4877.6	
212.78	3454.9	
212.99	2909.5	
213.2	5571.2	
213.42	4718.5	
213.63	3119.7	
213.84	3261.7	
214.06	4379.2	
214.27	4431.1	
214.48	3239.9	
214.69	3462.4	
214.91	5362.3	
215.12	5370.5	
215.33	3508.9	
215.55	3739.6	
215.76	5818.3	
215.97	5096.7	
216.18	3380.5	
216.4	3318.4	
216.61	4548.5	
216.82	5273.5	
217.04	3126.6	
217.25	3145.7	
217.46	5315.8	
217.67	5098.1	
217.89	2782.5	
218.1	2848.7	
218.31	4923.3	
218.53	5003.9	
218.74	3234.4	
218.95	3091.1	
219.16	4823.6	
219.38	5551.4	
219.59	3076.7	
219.8	3616	
220.01	6004.6	
220.23	4881.7	
220.44	3901.4	
220.65	2991.4	
220.87	4937.7	
221.08	5347.2	
221.29	2862.4	
221.5	3724.6	
221.72	6371.9	
221.93	4630.5	
222.14	3448.8	
222.35	3994.2	
222.57	4868.7	
222.78	5243.5	
222.99	3284.3	
223.2	3511.6	
223.42	5055.8	
223.63	5202.5	
223.84	2654.9	
224.05	2628.9	
224.27	5959.6	
224.48	5537.7	
224.69	4065.2	
224.9	3467.2	
225.12	4968.4	
225.33	4780.6	
225.54	2788	
225.75	3111.5	
225.97	4528.1	
226.18	4791.6	
226.39	3326.6	
226.6	3077.4	
226.82	4678.2	
227.03	4491.9	
227.24	3404.4	
227.45	2913.6	
227.67	5212.1	
227.88	5541.1	
228.09	3756	
228.3	3749.1	
228.52	5102.2	
228.73	4788.8	
228.94	3263.8	
229.15	2882.9	
229.36	4822.3	
229.58	4775.9	
229.79	3239.2	
230	3686.3	
230.21	5681.1	
230.43	4880.3	
230.64	3389.4	
230.85	3476.8	
231.06	5214.8	
231.28	5169.1	
231.49	2872.6	
231.7	3364.8	
231.91	5169.8	
232.12	4872.8	
232.34	3000.3	
232.55	3307.5	
232.76	5311.1	
232.97	4922	
233.18	3048.1	
233.4	3432.4	
233.61	5010	
233.82	4626.4	
234.03	3170.9	
234.25	3146.4	
234.46	6421.1	
234.67	4898.7	
234.88	3475.4	
235.09	3132.7	
235.31	5029.8	
235.52	4735.6	
235.73	3358	
235.94	2858.3	
236.15	4642.7	
236.37	5680.4	
236.58	3069.9	
236.79	3245.3	
237	5080.3	
237.21	4482.3	
237.43	3491.8	
237.64	2818.7	
237.85	8000.7	
238.06	4518.5	
238.27	3497.2	
238.48	2944.3	
238.7	5151.3	
238.91	4757.4	
239.12	3276.8	
239.33	3411.2	
239.54	4712.4	
239.76	4781.3	
239.97	3236.5	
240.18	3272	
240.39	5781.4	
240.6	4992.3	
240.82	3398.9	
241.03	2919	
241.24	4801.8	
241.45	5482.4	
241.66	3057.6	
241.87	3540.9	
242.09	5462.6	
242.3	5649.7	
242.51	3545.7	
242.72	3345.7	
242.93	5181.4	
243.14	4806.6	
243.36	3762.8	
243.57	3962.1	
243.78	5523.4	
243.99	5162.9	
244.2	3289	
244.41	3015.3	
244.63	4466.6	
244.84	5092.6	
245.05	3469.3	
245.26	3278.1	
245.47	5081.7	
245.68	5190.9	
245.9	4222.9	
246.11	3437.9	
246.32	4714.4	
246.53	5092.6	
246.74	5173.2	
246.95	2843.3	
247.16	4521.9	
247.38	4825.7	
247.59	2876.7	
247.8	3309.5	
248.01	4533.5	
248.22	4771.8	
248.43	3001.6	
248.64	3271.3	
248.86	4370.4	
249.07	4642.7	
249.28	2945	
249.49	3365.5	
249.7	5280.3	
249.91	5302.2	
250.12	2844.6	
250.34	2879.4	
250.55	4943.1	
250.76	4813.4	
250.97	3397.6	
251.18	3429.7	
251.39	5349.3	
251.6	4957.4	
251.81	3480.9	
252.03	3387.3	
252.24	4689.2	
252.45	5179.3	
252.66	2940.9	
252.87	3580.5	
253.08	4825.7	
253.29	6026.5	
253.5	2959.3	
253.72	3992.9	
253.93	4751.3	
254.14	5594.4	
254.35	3173.7	
254.56	3227.6	
254.77	5044.1	
254.98	4545.8	
255.19	3162.1	
255.41	3846.8	
255.62	4928.1	
255.83	5322	
256.04	3519.1	
256.25	3404.4	
256.46	5805.3	
256.67	4633.9	
256.88	3398.3	
257.09	3724.6	
257.31	4535.6	
257.52	4606.6	
257.73	4193.6	
257.94	3181.2	
258.15	4797	
258.36	4846.9	
258.57	3842.7	
258.78	2550.4	
258.99	5226.4	
259.2	4709.6	
259.41	3144.3	
259.63	3242.6	
259.84	5481	
260.05	5775.3	
260.26	4014.7	
260.47	3104	
260.68	5246.2	
260.89	4732.9	
261.1	3773	
261.31	3028.3	
261.52	5343.2	
261.73	5550.7	
261.95	3994.2	
262.16	3512.3	
262.37	5433.3	
262.58	5502.2	
262.79	3955.3	
263	3222.1	
263.21	4876.9	
263.42	4731.5	
263.63	3431.7	
263.84	3222.1	
264.05	5248.3	
264.26	5520.6	
264.47	3836.5	
264.69	3396.2	
264.9	5470.8	
265.11	4995.7	
265.32	3062.4	
265.53	3142.3	
265.74	4900.1	
265.95	4424.3	
266.16	3327.9	
266.37	3609.2	
266.58	4971.1	
266.79	4685.8	
267	3120.4	
267.21	2930.6	
267.42	4535.6	
267.63	4851.6	
267.84	3246.7	
268.06	2900.6	
268.27	5186.8	
268.48	5324.7	
268.69	3226.9	
268.9	3720.5	
269.11	5404.6	
269.32	4444.1	
269.53	3299.3	
269.74	3067.2	
269.95	5098.1	
270.16	4386.7	
270.37	3327.3	
270.58	3785.3	
270.79	4752.7	
271	5254.4	
271.21	3471.3	
271.42	3367.5	
271.63	5020.3	
271.84	4487.8	
272.05	2718.3	
272.26	3030.3	
272.47	4858.5	
272.68	4967	
272.89	3201	
273.11	3595.6	
273.32	4659.8	
273.53	5530.9	
273.74	3503.4	
273.95	3433.1	
274.16	5272.2	
274.37	4898.7	
274.58	3580.5	
274.79	2950.4	
275	5050.3	
275.21	5323.4	
275.42	4242.7	
275.63	3700.7	
275.84	5065.3	
276.05	6118	
276.26	3384.6	
276.47	3262.4	
276.68	4747.9	
276.89	5615.5	
277.1	3677.5	
277.31	2893.1	
277.52	5026.4	
277.73	5314.5	
277.94	2911.5	
278.15	3158	
278.36	5042.8	
278.57	4614.1	
278.78	3175.7	
278.99	3525.2	
279.2	4615.4	
279.41	4586.8	
279.62	4114.4	
279.83	2986.6	
280.04	5811.5	
280.25	4519.2	
280.46	3998.3	
280.67	3304.1	
280.88	4612.7	
281.09	5380	
281.3	3450.8	
281.51	4268	
281.72	4669.4	
281.93	5231.2	
282.14	3108.1	
282.35	3319.8	
282.56	5244.8	
282.77	5212.1	
282.98	3257	
283.19	3837.9	
283.4	6195.8	
283.61	4803.9	
283.82	2973	
284.03	4003.1	
284.24	5016.8	
284.45	5314.5	
284.66	4008.6	
284.87	3859.7	
285.08	5335.6	
285.29	5405.3	
285.5	2880.8	
285.71	3256.3	
285.92	5269.4	
286.12	5864.7	
286.33	4013.3	
286.54	3265.1	
286.75	5236	
286.96	4773.8	
287.17	3016.7	
287.38	3930.7	
287.59	4659.1	
287.8	4612	
288.01	3259	
288.22	3669.3	
288.43	5149.3	
288.64	4441.4	
288.85	3816	
289.06	3603.7	
289.27	5236	
289.48	5591	
289.69	4048.2	
289.9	3674.1	
290.11	5352	
290.32	4712.4	
290.53	3764.8	
290.74	3557.3	
290.94	5162.9	
291.15	5224.4	
291.36	3115	
291.57	3660.4	
291.78	4670.1	
291.99	4415.4	
292.2	3034.4	
292.41	3519.8	
292.62	5311.1	
292.83	5124	
293.04	4286.4	
293.25	3046.7	
293.46	4719.9	
293.67	5262.6	
293.88	3110.9	
294.09	3075.4	
294.29	4537.6	
294.5	4975.9	
294.71	3294.5	
294.92	3133.4	
295.13	4786.8	
295.34	5733.6	
295.55	2818.7	
295.76	2871.9	
295.97	5212.1	
296.18	5650.3	
296.39	2989.4	
296.6	3159.3	
296.81	4957.4	
297.01	5169.8	
297.22	3262.4	
297.43	3132.7	
297.64	4674.1	
297.85	4551.3	
298.06	2702	
298.27	2874.7	
298.48	4910.3	
298.69	4651.6	
298.9	3342.3	
299.11	3045.3	
299.31	4524	
299.52	4504.2	
299.73	3572.3	
299.94	3466.5	
300.15	4872.1	
300.36	4622.3	
300.57	3491.8	
300.78	3494.5	
300.99	4768.4	
301.2	4956.1	
301.4	3164.8	
301.61	3329.3	
301.82	5141.1	
302.03	5170.4	
302.24	3715.7	
302.45	3001	
302.66	5060.5	
302.87	5369.1	
303.08	3119.1	
303.29	4117.1	
303.49	4746.5	
303.7	4880.3	
303.91	2807.8	
304.12	3919.8	
304.33	4505.5	
304.54	5022.3	
304.75	3168.9	
304.96	2998.9	
305.16	5083.1	
305.37	5638.1	
305.58	2831.7	
305.79	2917.7	
306	5126.1	
306.21	4393.6	
306.42	3107.5	
306.63	4534.9	
306.83	4760.2	
307.04	5243.5	
307.25	3401.7	
307.46	3348.4	
307.67	4317.1	
307.88	5150.6	
308.09	3112.2	
308.29	3168.9	
308.5	4970.4	
308.71	5315.2	
308.92	3269.9	
309.13	3013.2	
309.34	4803.2	
309.55	4797.7	
309.75	3874.8	
309.96	3528.7	
310.17	5221.6	
310.38	4633.9	
310.59	3669.3	
310.8	2973.7	
311.01	4762.2	
311.21	4834.6	
311.42	3034.4	
311.63	3144.3	
311.84	4710.3	
312.05	4962.2	
312.26	3459.7	
312.46	3708.2	
312.67	4766.3	
312.88	4470.7	
313.09	3056.9	
313.3	2967.5	
313.51	5461.2	
313.71	5688.6	
313.92	3022.8	
314.13	3216	
314.34	5052.3	
314.55	4828.4	
314.76	3803.8	
314.96	3330	
315.17	4923.3	
315.38	5184.8	
315.59	3065.8	
315.8	2921.1	
316.01	5468.8	
316.21	5563.6	
316.42	2973.7	
316.63	3346.4	
316.84	4785.4	
317.05	5332.9	
317.26	3567.6	
317.46	3213.9	
317.67	4816.8	
317.88	5153.4	
318.09	3741	
318.3	2876	
318.5	4658.4	
318.71	5033.9	
318.92	4661.2	
319.13	3522.5	
319.34	5284.4	
319.54	5371.1	
319.75	2891	
319.96	2761.3	
320.17	5114.5	
320.38	5264	
320.58	2805.7	
320.79	3296.5	
321	5335.6	
321.21	5384.8	
321.42	3379.1	
321.62	2805	
321.83	4621.6	
322.04	4882.4	
322.25	3217.4	
322.46	3044.6	
322.66	4957.4	
322.87	5115.1	
323.08	3678.2	
323.29	3011.2	
323.5	5738.4	
323.7	4567	
323.91	4069.3	
324.12	3663.8	
324.33	4967.7	
324.53	5098.1	
324.74	3528	
324.95	3624.9	
325.16	4486.4	
325.37	4730.1	
325.57	3016.7	
325.78	3081.5	
325.99	5011.4	
326.2	4495.3	
326.4	4201.7	
326.61	2856.9	
326.82	4846.9	
327.03	4944.5	
327.24	4192.2	
327.44	3924.6	
327.65	5085.1	
327.86	4257	
328.07	3506.8	
328.27	2965.5	
328.48	5398.4	
328.69	4552.6	
328.9	4248.2	
329.1	3220.1	
329.31	4787.5	
329.52	5457.2	
329.73	3087	
329.93	3362.1	
330.14	4929.5	
330.35	5012.1	
330.56	4768.4	
330.76	3672	
330.97	4733.5	
331.18	4987.5	
331.39	3349.8	
331.59	2785.2	
331.8	5313.8	
332.01	5456.5	
332.22	3086.3	
332.42	3490.4	
332.63	4967.7	
332.84	4603.8	
333.05	3384.6	
333.25	3138.2	
333.46	4674.1	
333.67	4906.9	
333.88	3207.8	
334.08	3493.8	
334.29	6191.7	
334.5	5345.9	
334.7	3005.7	
334.91	4188.8	
335.12	4525.3	
335.33	5237.3	
335.53	3384.6	
335.74	4678.2	
335.95	4792.9	
336.16	4546.5	
336.36	3349.1	
336.57	3853.6	
336.78	4547.2	
336.98	5325.4	
337.19	4049.5	
337.4	3265.1	
337.61	5784.8	
337.81	4498	
338.02	3105.4	
338.23	3876.1	
338.43	5489.2	
338.64	4609.3	
338.85	3123.2	
339.05	3879.5	
339.26	5600.5	
339.47	4463.9	
339.68	3123.2	
339.88	4335.5	
340.09	5115.8	
340.3	5227.1	
340.5	3524.6	
340.71	2809.8	
340.92	4503.5	
341.13	5401.9	
341.33	2975.7	
341.54	3544.4	
341.75	5023.7	
341.95	4740.4	
342.16	3416.7	
342.37	3622.2	
342.57	4586.8	
342.78	4810.7	
342.99	3792.2	
343.19	2837.8	
343.4	5207.3	
343.61	5122.7	
343.81	3269.9	
344.02	2971.6	
344.23	5246.2	
344.43	5466.7	
344.64	3732.1	
344.85	3687.7	
345.06	5138.4	
345.26	5365.7	
345.47	3513.6	
345.68	4043.4	
345.88	4420.9	
346.09	5253.7	
346.3	3566.9	
346.5	2757.9	
346.71	4862.6	
346.92	4714.4	
347.12	2994.8	
347.33	3501.3	
347.54	5297.4	
347.74	5650.3	
347.95	3519.1	
348.16	2684.9	
348.36	4783.4	
348.57	4552.6	
348.78	3584.6	
348.98	3781.9	
349.19	4845.5	
349.39	4500.1	
349.6	2970.2	
349.81	3140.9	
350.01	5167	
350.22	4674.1	
350.43	3414.6	
350.63	4041.3	
350.84	4977.2	
351.05	4749.9	
351.25	3138.9	
351.46	2908.8	
351.67	5327.4	
351.87	4674.8	
352.08	3330.7	
352.29	3749.8	
352.49	5331.5	
352.7	5379.3	
352.9	3072.6	
353.11	3765.5	
353.32	5825.8	
353.52	4841.4	
353.73	3107.5	
353.94	3751.9	
354.14	5238	
354.35	5067.4	
354.55	3209.8	
354.76	3472	
354.97	5215.5	
355.17	5010.7	
355.38	3037.8	
355.59	4061.8	
355.79	4761.5	
356	5063.3	
356.2	3497.2	
356.41	3160.7	
356.62	4597.7	
356.82	4977.2	
357.03	3768.9	
357.24	3442	
357.44	4817.5	
357.65	4885.8	
357.85	4413.4	
358.06	3607.8	
358.27	4612.7	
358.47	4790.9	
358.68	3069.2	
358.88	3790.8	
359.09	5259.2	
359.3	5588.9	
359.5	4278.9	
359.71	3956.7	
359.91	5935	
360.12	5336.3	
360.33	3855	
360.53	4236.6	
360.74	4977.2	
360.94	5063.9	
361.15	4011.3	
361.36	3477.5	
361.56	5647.6	
361.77	5231.9	
361.97	4539.7	
362.18	3667.2	
362.38	5707	
362.59	4909	
362.8	3473.4	
363	3385.3	
363.21	4800.4	
363.41	5364.3	
363.62	3930.1	
363.83	4672.1	
364.03	5560.2	
364.24	6105	
364.44	4874.8	
364.65	4791.6	
364.85	5301.5	
365.06	5102.9	
365.27	3729.4	
365.47	3805.8	
365.68	6020.3	
365.88	5300.1	
366.09	4044.7	
366.29	3788.1	
366.5	5496.1	
366.71	5831.2	
366.91	4854.4	
367.12	4215.4	
367.32	6366.5	
367.53	5765.7	
367.73	4232.5	
367.94	4985.4	
368.14	5789.6	
368.35	6442.9	
368.56	4192.9	
368.76	4100	
368.97	5890.6	
369.17	7036.1	
369.38	3844.7	
369.58	4161.5	
369.79	5158.8	
369.99	6132.3	
370.2	4836.6	
370.4	4194.9	
370.61	5701.5	
370.82	6632.7	
371.02	4139.6	
371.23	3595.6	
371.43	5193	
371.64	6178	
371.84	4242	
372.05	5045.5	
372.25	7152.2	
372.46	6023.1	
372.66	4293.2	
372.87	4288.4	
373.07	6120	
373.28	7397.3	
373.48	5065.3	
373.69	4828.4	
373.9	5879	
374.1	5831.9	
374.31	5128.8	
374.51	4788.2	
374.72	6610.8	
374.92	5727.5	
375.13	5355.4	
375.33	4773.1	
375.54	6301.6	
375.74	5880.4	
375.95	4919.9	
376.15	5868.1	
376.36	6437.4	
376.56	6335.7	
376.77	5062.6	
376.97	5375.2	
377.18	7411.6	
377.38	6636.8	
377.59	5671.5	
377.79	4813.4	
378	6518.7	
378.2	6852.5	
378.41	4973.2	
378.61	4822.3	
378.82	7053.9	
379.02	6391.7	
379.23	5173.9	
379.43	6018.3	
379.64	7137.9	
379.84	6863.4	
380.05	4962.9	
380.25	4940.4	
380.46	6844.3	
380.66	6582.2	
380.87	6037.4	
381.07	6244.9	
381.28	7288.7	
381.48	6839.5	
381.69	4960.9	
381.89	5054.4	
382.1	6030.6	
382.3	6900.3	
382.51	5913.9	
382.71	6481.1	
382.91	6811.5	
383.12	7255.3	
383.32	5264.6	
383.53	5342.5	
383.73	6571.9	
383.94	6610.2	
384.14	5420.3	
384.35	4705.5	
384.55	6404	
384.76	6821.8	
384.96	5287.9	
385.17	5390.3	
385.37	6815.6	
385.58	6204	
385.78	5342.5	
385.98	4583.4	
386.19	6320.7	
386.39	6644.3	
386.6	5073.5	
386.8	5160.9	
387.01	6756.2	
387.21	6832	
387.42	5437.4	
387.62	6060.6	
387.83	6378.7	
388.03	6746	
388.23	5447.6	
388.44	6014.9	
388.64	6318.7	
388.85	6416.3	
389.05	5724.1	
389.26	6210.1	
389.46	8036.9	
389.67	7585	
389.87	6009.4	
390.07	5907.7	
390.28	6942.6	
390.48	6584.9	
390.69	5520	
390.89	5765	
391.1	6831.3	
391.3	7570	
391.5	6590.4	
391.71	7024.5	
391.91	7408.2	
392.12	8055.3	
392.32	6688	
392.53	6084.5	
392.73	7080.5	
392.93	7139.9	
393.14	5937.7	
393.34	6673.6	
393.55	7344	
393.75	7092.8	
393.95	5722.7	
394.16	5584.1	
394.36	6881.2	
394.57	7266.9	
394.77	5414.8	
394.98	5616.9	
395.18	6890.7	
395.38	6984.3	
395.59	6452.5	
395.79	5756.8	
396	7218.4	
396.2	7604.1	
396.4	6556.2	
396.61	6625.9	
396.81	7848.5	
397.02	7450.5	
397.22	7032	
397.42	7038.9	
397.63	8094.9	
397.83	7660.1	
398.04	6201.9	
398.24	6702.3	
398.44	7832.8	
398.65	7327.6	
398.85	6229.2	
399.05	6272.2	
399.26	7733.8	
399.46	8959.2	
399.67	6761.7	
399.87	6369.2	
400.07	7966.6	
400.28	8307.2	
400.48	6675	
400.69	7585.7	
400.89	8680	
401.09	8992.6	
401.3	6718.7	
401.5	7638.9	
401.7	9500.5	
401.91	9580.4	
402.11	7208.2	
402.32	7290.1	
402.52	8966	
402.72	8801.5	
402.93	7537.2	
403.13	6468.9	
403.33	9369.5	
403.54	8111.3	
403.74	6969.2	
403.94	7384.3	
404.15	8030.8	
404.35	8925	
404.56	6557.6	
404.76	7851.2	
404.96	8278.6	
405.17	8139.3	
405.37	7800.7	
405.57	7140.6	
405.78	8715.5	
405.98	8190.5	
406.18	7141.3	
406.39	7742	
406.59	8870.4	
406.79	8550.3	
407	6886.6	
407.2	6918.7	
407.4	8920.3	
407.61	8926.4	
407.81	6980.2	
408.01	8701.8	
408.22	8150.2	
408.42	9785.2	
408.62	8324.3	
408.83	8062.9	
409.03	9373.6	
409.23	9316.9	
409.44	8515.5	
409.64	8934.6	
409.84	10696	
410.05	10830	
410.25	9326.4	
410.45	9054.8	
410.66	11083	
410.86	12644	
411.06	10108	
411.27	9780.4	
411.47	13017	
411.67	11370	
411.88	10132	
412.08	10626	
412.28	12052	
412.49	12413	
412.69	10517	
412.89	10591	
413.09	12446	
413.3	12516	
413.5	10817	
413.7	10561	
413.91	11979	
414.11	12805	
414.31	10952	
414.52	11619	
414.72	12538	
414.92	12859	
415.12	10980	
415.33	11589	
415.53	13201	
415.73	13401	
415.94	11788	
416.14	11378	
416.34	12671	
416.55	12261	
416.75	12357	
416.95	12086	
417.15	13654	
417.36	13789	
417.56	12914	
417.76	12235	
417.97	13870	
418.17	13919	
418.37	11905	
418.57	12200	
418.78	13804	
418.98	13393	
419.18	12927	
419.38	12610	
419.59	13616	
419.79	13067	
419.99	11953	
420.2	12165	
420.4	13839	
420.6	13718	
420.8	11974	
421.01	11781	
421.21	14012	
421.41	13975	
421.61	12291	
421.82	12132	
422.02	13803	
422.22	14233	
422.42	12856	
422.63	11978	
422.83	13715	
423.03	14767	
423.23	12375	
423.44	11611	
423.64	13711	
423.84	13052	
424.04	11987	
424.25	11603	
424.45	14076	
424.65	13928	
424.85	11474	
425.06	11923	
425.26	14237	
425.46	13302	
425.66	12196	
425.87	11861	
426.07	13842	
426.27	13713	
426.47	12108	
426.67	11482	
426.88	14028	
427.08	13700	
427.28	12458	
427.48	11399	
427.69	12693	
427.89	13211	
428.09	12183	
428.29	11508	
428.5	13890	
428.7	13508	
428.9	11613	
429.1	11937	
429.3	13583	
429.51	14027	
429.71	11711	
429.91	12515	
430.11	13998	
430.31	14342	
430.52	12259	
430.72	12808	
430.92	14581	
431.12	14274	
431.32	12437	
431.53	12385	
431.73	13689	
431.93	14689	
432.13	12261	
432.33	12286	
432.54	13878	
432.74	14278	
432.94	12542	
433.14	12969	
433.34	14418	
433.55	14504	
433.75	13240	
433.95	15108	
434.15	14726	
434.35	14552	
434.56	12737	
434.76	12853	
434.96	14925	
435.16	15391	
435.36	12964	
435.56	14122	
435.77	15193	
435.97	15152	
436.17	14840	
436.37	14171	
436.57	15219	
436.78	15483	
436.98	15264	
437.18	14686	
437.38	16284	
437.58	15335	
437.78	14928	
437.99	13857	
438.19	15699	
438.39	16403	
438.59	13808	
438.79	13246	
438.99	16041	
439.2	15166	
439.4	12876	
439.6	12995	
439.8	15111	
440	16023	
440.2	13938	
440.4	14311	
440.61	16053	
440.81	16541	
441.01	14235	
441.21	15406	
441.41	17509	
441.61	16719	
441.81	16073	
442.02	16673	
442.22	17740	
442.42	17320	
442.62	15134	
442.82	14782	
443.02	17637	
443.22	17134	
443.43	15621	
443.63	15086	
443.83	16535	
444.03	16797	
444.23	16700	
444.43	16067	
444.63	17621	
444.83	18310	
445.04	16002	
445.24	16855	
445.44	17617	
445.64	17989	
445.84	15994	
446.04	16451	
446.24	17088	
446.44	17774	
446.65	15167	
446.85	15786	
447.05	16495	
447.25	17557	
447.45	15485	
447.65	15031	
447.85	16949	
448.05	16216	
448.25	16109	
448.46	15741	
448.66	17115	
448.86	16586	
449.06	15253	
449.26	15871	
449.46	17599	
449.66	16567	
449.86	16150	
450.06	15838	
450.26	17115	
450.47	17754	
450.67	15868	
450.87	16444	
451.07	17872	
451.27	17891	
451.47	15621	
451.67	16694	
451.87	17836	
452.07	18099	
452.27	16472	
452.47	16068	
452.67	17750	
452.88	18512	
453.08	15389	
453.28	17476	
453.48	19246	
453.68	17722	
453.88	16670	
454.08	16324	
454.28	18568	
454.48	18074	
454.68	16804	
454.88	17103	
455.08	18411	
455.28	18937	
455.48	16066	
455.68	17262	
455.89	19496	
456.09	19385	
456.29	17063	
456.49	17737	
456.69	19985	
456.89	18908	
457.09	18131	
457.29	18584	
457.49	19585	
457.69	20185	
457.89	18602	
458.09	17793	
458.29	20113	
458.49	20843	
458.69	19335	
458.89	18983	
459.09	21695	
459.29	21406	
459.49	18921	
459.69	19943	
459.9	21100	
460.1	21405	
460.3	18764	
460.5	18888	
460.7	21248	
460.9	20865	
461.1	18723	
461.3	20019	
461.5	22091	
461.7	21848	
461.9	20114	
462.1	19792	
462.3	21992	
462.5	22478	
462.7	20155	
462.9	20743	
463.1	23425	
463.3	23694	
463.5	20784	
463.7	22482	
463.9	23034	
464.1	23586	
464.3	22164	
464.5	21868	
464.7	24087	
464.9	24598	
465.1	23594	
465.3	22954	
465.5	24470	
465.7	25134	
465.9	23659	
466.1	22461	
466.3	25354	
466.5	24537	
466.7	24677	
466.9	23238	
467.1	25369	
467.3	25843	
467.5	24735	
467.7	23752	
467.9	26092	
468.1	26963	
468.3	24097	
468.5	25162	
468.7	25801	
468.9	25486	
469.1	24745	
469.3	25590	
469.5	27740	
469.7	26260	
469.9	24576	
470.1	25030	
470.3	26464	
470.5	26310	
470.7	25910	
470.9	24695	
471.1	26430	
471.3	26004	
471.5	24871	
471.69	25952	
471.89	26009	
472.09	25327	
472.29	25414	
472.49	24726	
472.69	25935	
472.89	26068	
473.09	24785	
473.29	23860	
473.49	25782	
473.69	25417	
473.89	24926	
474.09	24219	
474.29	26358	
474.49	25983	
474.69	24861	
474.89	24206	
475.09	25611	
475.29	25801	
475.49	23619	
475.69	24480	
475.88	26290	
476.08	25894	
476.28	24002	
476.48	23711	
476.68	25634	
476.88	25492	
477.08	23583	
477.28	24219	
477.48	24785	
477.68	25142	
477.88	23519	
478.08	23468	
478.28	26063	
478.48	24979	
478.67	23764	
478.87	22735	
479.07	26294	
479.27	25309	
479.47	23793	
479.67	24116	
479.87	26027	
480.07	26353	
480.27	23799	
480.47	24638	
480.67	25446	
480.87	26262	
481.06	23824	
481.26	24682	
481.46	25721	
481.66	25768	
481.86	24435	
482.06	25194	
482.26	25599	
482.46	26184	
482.66	24303	
482.86	24108	
483.05	26220	
483.25	25523	
483.45	26417	
483.65	24532	
483.85	25759	
484.05	26004	
484.25	24733	
484.45	25879	
484.65	26782	
484.84	27421	
485.04	24896	
485.24	25114	
485.44	27710	
485.64	26353	
485.84	24943	
486.04	25953	
486.24	26884	
486.44	27043	
486.63	24954	
486.83	25931	
487.03	27355	
487.23	27518	
487.43	25197	
487.63	27508	
487.83	27795	
488.02	28428	
488.22	26892	
488.42	27597	
488.62	28674	
488.82	27945	
489.02	26394	
489.22	27283	
489.41	28651	
489.61	28856	
489.81	26626	
490.01	26817	
490.21	29091	
490.41	29721	
490.61	27132	
490.8	27307	
491	29230	
491.2	28301	
491.4	27585	
491.6	26934	
491.8	28680	
491.99	28337	
492.19	26224	
492.39	26417	
492.59	28291	
492.79	28698	
492.99	26947	
493.18	26499	
493.38	28833	
493.58	30343	
493.78	27644	
493.98	27492	
494.18	29643	
494.37	29922	
494.57	29342	
494.77	29082	
494.97	31217	
495.17	31616	
495.37	29588	
495.56	29686	
495.76	32432	
495.96	32307	
496.16	31262	
496.36	30997	
496.55	33148	
496.75	33021	
496.95	31429	
497.15	31526	
497.35	33006	
497.54	33525	
497.74	31304	
497.94	32699	
498.14	33903	
498.34	33666	
498.53	31324	
498.73	31824	
498.93	33047	
499.13	33600	
499.33	32161	
499.52	32224	
499.72	34424	
499.92	34005	
500.12	32392	
500.32	32415	
500.51	34254	
500.71	35010	
500.91	33584	
501.11	32980	
501.31	34992	
501.5	34633	
501.7	33748	
501.9	32976	
502.1	34331	
502.29	34832	
502.49	33656	
502.69	33489	
502.89	34766	
503.09	34932	
503.28	31926	
503.48	32129	
503.68	33791	
503.88	33802	
504.07	32782	
504.27	32056	
504.47	33914	
504.67	33596	
504.86	32556	
505.06	32029	
505.26	33269	
505.46	34510	
505.65	32128	
505.85	31999	
506.05	32951	
506.25	33190	
506.44	30659	
506.64	31174	
506.84	32090	
507.04	32696	
507.23	30438	
507.43	30773	
507.63	33307	
507.83	31976	
508.02	30870	
508.22	30583	
508.42	33669	
508.62	32124	
508.81	30485	
509.01	31547	
509.21	31632	
509.4	32159	
509.6	30564	
509.8	30492	
510	31692	
510.19	33326	
510.39	30111	
510.59	30369	
510.79	32114	
510.98	33353	
511.18	30769	
511.38	31147	
511.57	32842	
511.77	32993	
511.97	31371	
512.17	30598	
512.36	32943	
512.56	32378	
512.76	30334	
512.95	30050	
513.15	32451	
513.35	31592	
513.55	30741	
513.74	30341	
513.94	32644	
514.14	32062	
514.33	31181	
514.53	31033	
514.73	32198	
514.92	32420	
515.12	30848	
515.32	30681	
515.51	32412	
515.71	32812	
515.91	32152	
516.11	30788	
516.3	34136	
516.5	32494	
516.7	31333	
516.89	31875	
517.09	32802	
517.29	32838	
517.48	31946	
517.68	31100	
517.88	32585	
518.07	32991	
518.27	31686	
518.47	30713	
518.66	33138	
518.86	32263	
519.06	30459	
519.25	30928	
519.45	32165	
519.65	33799	
519.84	31433	
520.04	32247	
520.24	34245	
520.43	33246	
520.63	31352	
520.83	31244	
521.02	32718	
521.22	32815	
521.42	31267	
521.61	31764	
521.81	32225	
522.01	32109	
522.2	30813	
522.4	30445	
522.6	32514	
522.79	31670	
522.99	30608	
523.18	30561	
523.38	33046	
523.58	33198	
523.77	32759	
523.97	31468	
524.17	35252	
524.36	34953	
524.56	33243	
524.76	33254	
524.95	35100	
525.15	34584	
525.34	33622	
525.54	34115	
525.74	36143	
525.93	35589	
526.13	35648	
526.33	34882	
526.52	36783	
526.72	36556	
526.91	36118	
527.11	35581	
527.31	37268	
527.5	37448	
527.7	35831	
527.89	34836	
528.09	36472	
528.29	37216	
528.48	35474	
528.68	35129	
528.87	37513	
529.07	37498	
529.27	36162	
529.46	36059	
529.66	38491	
529.85	38638	
530.05	36313	
530.25	37010	
530.44	39694	
530.64	37909	
530.83	36513	
531.03	36641	
531.23	38193	
531.42	37510	
531.62	36748	
531.81	36125	
532.01	38367	
532.21	38793	
532.4	36950	
532.6	37539	
532.79	39808	
532.99	39877	
533.18	38287	
533.38	39020	
533.58	40389	
533.77	40733	
533.97	39168	
534.16	39763	
534.36	41359	
534.55	40816	
534.75	39666	
534.95	39573	
535.14	42083	
535.34	41112	
535.53	39292	
535.73	40976	
535.92	42527	
536.12	40970	
536.31	39233	
536.51	40216	
536.71	40754	
536.9	40372	
537.1	38758	
537.29	39091	
537.49	40572	
537.68	40141	
537.88	39467	
538.07	38496	
538.27	40714	
538.46	41373	
538.66	38918	
538.86	39352	
539.05	40921	
539.25	41404	
539.44	40196	
539.64	39156	
539.83	40968	
540.03	41690	
540.22	39584	
540.42	38991	
540.61	40592	
540.81	41008	
541	38680	
541.2	39853	
541.39	39901	
541.59	40258	
541.78	39612	
541.98	38387	
542.18	39687	
542.37	39709	
542.57	38256	
542.76	39738	
542.96	39408	
543.15	39813	
543.35	38155	
543.54	37889	
543.74	39309	
543.93	39265	
544.13	37139	
544.32	38029	
544.52	38850	
544.71	37960	
544.91	36280	
545.1	36928	
545.3	38191	
545.49	38666	
545.69	36184	
545.88	36654	
546.08	39831	
546.27	38861	
546.47	37078	
546.66	36278	
546.86	38331	
547.05	38988	
547.24	36229	
547.44	36545	
547.63	37456	
547.83	38695	
548.02	36805	
548.22	36483	
548.41	37245	
548.61	38367	
548.8	35732	
549	36113	
549.19	37344	
549.39	38210	
549.58	35287	
549.78	36043	
549.97	37755	
550.17	37162	
550.36	35963	
550.55	37124	
550.75	36714	
550.94	37592	
551.14	35270	
551.33	34852	
551.53	36199	
551.72	36786	
551.92	34898	
552.11	34881	
552.31	36792	
552.5	36725	
552.69	35946	
552.89	34343	
553.08	36829	
553.28	36444	
553.47	34714	
553.67	35589	
553.86	36721	
554.06	35451	
554.25	33683	
554.44	34326	
554.64	37103	
554.83	36960	
555.03	34217	
555.22	34426	
555.42	36097	
555.61	35999	
555.8	34022	
556	34245	
556.19	35304	
556.39	35776	
556.58	33803	
556.78	33875	
556.97	35566	
557.16	35543	
557.36	34919	
557.55	33794	
557.75	34600	
557.94	36444	
558.13	33743	
558.33	33529	
558.52	36229	
558.72	35306	
558.91	33492	
559.1	33614	
559.3	35106	
559.49	34409	
559.69	32942	
559.88	33763	
560.07	35099	
560.27	35507	
560.46	33629	
560.66	33732	
560.85	34962	
561.04	34106	
561.24	33197	
561.43	32806	
561.63	34401	
561.82	34384	
562.01	33877	
562.21	33241	
562.4	34272	
562.59	35633	
562.79	32839	
562.98	32874	
563.18	34617	
563.37	35859	
563.56	33538	
563.76	33295	
563.95	34742	
564.14	34819	
564.34	33798	
564.53	33555	
564.73	35205	
564.92	35770	
565.11	34084	
565.31	33464	
565.5	35797	
565.69	35186	
565.89	33828	
566.08	34297	
566.27	35813	
566.47	36612	
566.66	34762	
566.85	34123	
567.05	36089	
567.24	35358	
567.44	33967	
567.63	35368	
567.82	36326	
568.02	35963	
568.21	34336	
568.4	34438	
568.6	36104	
568.79	36082	
568.98	34232	
569.18	34507	
569.37	36382	
569.56	37508	
569.76	34992	
569.95	35835	
570.14	36485	
570.34	37058	
570.53	34862	
570.72	34802	
570.91	37436	
571.11	36546	
571.3	35155	
571.49	35682	
571.69	36856	
571.88	36171	
572.07	35636	
572.27	35616	
572.46	36531	
572.65	37087	
572.85	35349	
573.04	35614	
573.23	37672	
573.43	37010	
573.62	35282	
573.81	35636	
574	37504	
574.2	37070	
574.39	36183	
574.58	36087	
574.78	38609	
574.97	38206	
575.16	37022	
575.36	37115	
575.55	39012	
575.74	38931	
575.93	36453	
576.13	37805	
576.32	38527	
576.51	39190	
576.71	37124	
576.9	38311	
577.09	39374	
577.28	39044	
577.48	37552	
577.67	36805	
577.86	38743	
578.05	39254	
578.25	37273	
578.44	37378	
578.63	38833	
578.83	39955	
579.02	37111	
579.21	38460	
579.4	39239	
579.6	39141	
579.79	37417	
579.98	39597	
580.17	39642	
580.37	39874	
580.56	37114	
580.75	38010	
580.94	39822	
581.14	39821	
581.33	38384	
581.52	37360	
581.71	39671	
581.91	39947	
582.1	37651	
582.29	37603	
582.48	39418	
582.68	39807	
582.87	38305	
583.06	38177	
583.25	39781	
583.45	39668	
583.64	39202	
583.83	39400	
584.02	39563	
584.21	40263	
584.41	38616	
584.6	38600	
584.79	39993	
584.98	40701	
585.18	38057	
585.37	37972	
585.56	39572	
585.75	40271	
585.94	37808	
586.14	38626	
586.33	40292	
586.52	39737	
586.71	38188	
586.91	37881	
587.1	38427	
587.29	39695	
587.48	36958	
587.67	37259	
587.87	38799	
588.06	38616	
588.25	37909	
588.44	37164	
588.63	38009	
588.83	38635	
589.02	36351	
589.21	36067	
589.4	37094	
589.59	37552	
589.78	34593	
589.98	34848	
590.17	35676	
590.36	36359	
590.55	33260	
590.74	32952	
590.94	35851	
591.13	34198	
591.32	32184	
591.51	31583	
591.7	34090	
591.89	33910	
592.09	31645	
592.28	32384	
592.47	33587	
592.66	35426	
592.85	32395	
593.05	32773	
593.24	34282	
593.43	35306	
593.62	33122	
593.81	33426	
594	34722	
594.19	34761	
594.39	32629	
594.58	32675	
594.77	34889	
594.96	35092	
595.15	32514	
595.34	33172	
595.54	34266	
595.73	33727	
595.92	31898	
596.11	32436	
596.3	34402	
596.49	33527	
596.68	31909	
596.88	32275	
597.07	33945	
597.26	33154	
597.45	31382	
597.64	32511	
597.83	33700	
598.02	34026	
598.22	31573	
598.41	32172	
598.6	33753	
598.79	33112	
598.98	31625	
599.17	32436	
599.36	33661	
599.55	34075	
599.74	33241	
599.94	32972	
600.13	33882	
600.32	32688	
600.51	31204	
600.7	31331	
600.89	33966	
601.08	34237	
601.27	31047	
601.47	31965	
601.66	33403	
601.85	33882	
602.04	31762	
602.23	31451	
602.42	32849	
602.61	33236	
602.8	31079	
602.99	30888	
603.18	32708	
603.37	32940	
603.57	31099	
603.76	31625	
603.95	33262	
604.14	32815	
604.33	30879	
604.52	31060	
604.71	32946	
604.9	32456	
605.09	31709	
605.28	31458	
605.47	33521	
605.66	33071	
605.86	31479	
606.05	31017	
606.24	33247	
606.43	32012	
606.62	31136	
606.81	31674	
607	32950	
607.19	32694	
607.38	30348	
607.57	30621	
607.76	31945	
607.95	31677	
608.14	30788	
608.33	31314	
608.52	31977	
608.72	33032	
608.91	30102	
609.1	30240	
609.29	32188	
609.48	31346	
609.67	30555	
609.86	29620	
610.05	31481	
610.24	31493	
610.43	29828	
610.62	29513	
610.81	32254	
611	32180	
611.19	29728	
611.38	30359	
611.57	31539	
611.76	32611	
611.95	29523	
612.14	29015	
612.33	31419	
612.52	31115	
612.71	29611	
612.9	29366	
613.09	30802	
613.28	32536	
613.47	29455	
613.66	30281	
613.85	31581	
614.04	31164	
614.24	29724	
614.43	28837	
614.62	31510	
614.81	31336	
615	29809	
615.19	29987	
615.38	30907	
615.57	31460	
615.76	29969	
615.95	30815	
616.14	31752	
616.33	31470	
616.52	30191	
616.71	30663	
616.9	31561	
617.09	31750	
617.28	29784	
617.47	30649	
617.66	31148	
617.85	31202	
618.04	30744	
618.22	30146	
618.41	31712	
618.6	32776	
618.79	30511	
618.98	30679	
619.17	33288	
619.36	31967	
619.55	30984	
619.74	30939	
619.93	32815	
620.12	32503	
620.31	31707	
620.5	32039	
620.69	33851	
620.88	34310	
621.07	32535	
621.26	32145	
621.45	33873	
621.64	34024	
621.83	32386	
622.02	31924	
622.21	33782	
622.4	33923	
622.59	32991	
622.78	32871	
622.97	33613	
623.16	34751	
623.35	32582	
623.54	31914	
623.72	33766	
623.91	33996	
624.1	32881	
624.29	31931	
624.48	34925	
624.67	34202	
624.86	33079	
625.05	32354	
625.24	34957	
625.43	33893	
625.62	34267	
625.81	32641	
626	34540	
626.19	34166	
626.38	33237	
626.56	32488	
626.75	34052	
626.94	34966	
627.13	33060	
627.32	32131	
627.51	34727	
627.7	35648	
627.89	32037	
628.08	33227	
628.27	33913	
628.46	33962	
628.65	32092	
628.83	31952	
629.02	34099	
629.21	33466	
629.4	32694	
629.59	32584	
629.78	33826	
629.97	34337	
630.16	32836	
630.35	32212	
630.54	34879	
630.72	34327	
630.91	32352	
631.1	32617	
631.29	33989	
631.48	34266	
631.67	32751	
631.86	32121	
632.05	33953	
632.24	33876	
632.42	31725	
632.61	32361	
632.8	33488	
632.99	33464	
633.18	32591	
633.37	32580	
633.56	33982	
633.75	34013	
633.93	32292	
634.12	32349	
634.31	34325	
634.5	34269	
634.69	32215	
634.88	32236	
635.07	33647	
635.25	34112	
635.44	32858	
635.63	33294	
635.82	33668	
636.01	32963	
636.2	32406	
636.39	32266	
636.57	34284	
636.76	33686	
636.95	31728	
637.14	32540	
637.33	33672	
637.52	34351	
637.7	31277	
637.89	32494	
638.08	33706	
638.27	34237	
638.46	32313	
638.65	32304	
638.83	33954	
639.02	33140	
639.21	32073	
639.4	32329	
639.59	33248	
639.78	32962	
639.96	31103	
640.15	30842	
640.34	32856	
640.53	32617	
640.72	30524	
640.91	30591	
641.09	32059	
641.28	33056	
641.47	30724	
641.66	31282	
641.85	32616	
642.03	32039	
642.22	30760	
642.41	30447	
642.6	31888	
642.79	31221	
642.97	29653	
643.16	30578	
643.35	31750	
643.54	31107	
643.73	29838	
643.91	30160	
644.1	30558	
644.29	31595	
644.48	29198	
644.67	29395	
644.85	30668	
645.04	30952	
645.23	28644	
645.42	29135	
645.6	29771	
645.79	30582	
645.98	27949	
646.17	27235	
646.36	28949	
646.54	29169	
646.73	27990	
646.92	27266	
647.11	28688	
647.29	29359	
647.48	27244	
647.67	26721	
647.86	29309	
648.05	29635	
648.23	27118	
648.42	28045	
648.61	28774	
648.8	28620	
648.98	26512	
649.17	26760	
649.36	27898	
649.55	27590	
649.73	26308	
649.92	26914	
650.11	28017	
650.3	28173	
650.48	26503	
650.67	26371	
650.86	28573	
651.05	27541	
651.23	26318	
651.42	26297	
651.61	27838	
651.79	27270	
651.98	26230	
652.17	25777	
652.36	27579	
652.54	26963	
652.73	25880	
652.92	25729	
653.11	27535	
653.29	27654	
653.48	25101	
653.67	25775	
653.85	27379	
654.04	28072	
654.23	25771	
654.42	25430	
654.6	26236	
654.79	26682	
654.98	24253	
655.16	24324	
655.35	25047	
655.54	24708	
655.73	23229	
655.91	22732	
656.1	24739	
656.29	24018	
656.47	22229	
656.66	23656	
656.85	24399	
657.03	24713	
657.22	23393	
657.41	23666	
657.59	25322	
657.78	25408	
657.97	23898	
658.16	24587	
658.34	26187	
658.53	26617	
658.72	25107	
658.9	25734	
659.09	25881	
659.28	26023	
659.46	24330	
659.65	24375	
659.84	25825	
660.02	26183	
660.21	24499	
660.4	24402	
660.58	26523	
660.77	26129	
660.96	24747	
661.14	24136	
661.33	26871	
661.52	26741	
661.7	23978	
661.89	26610	
662.08	25563	
662.26	25463	
662.45	24053	
662.64	24144	
662.82	25878	
663.01	25582	
663.2	23980	
663.38	24679	
663.57	25529	
663.75	25631	
663.94	24253	
664.13	25011	
664.31	25208	
664.5	25744	
664.69	24167	
664.87	24737	
665.06	25082	
665.25	25730	
665.43	24933	
665.62	24801	
665.8	25712	
665.99	25139	
666.18	23941	
666.36	24024	
666.55	25526	
666.74	25602	
666.92	23468	
667.11	24510	
667.29	24998	
667.48	25417	
667.67	24305	
667.85	23444	
668.04	24838	
668.22	25176	
668.41	23666	
668.6	23720	
668.78	24852	
668.97	25060	
669.15	23739	
669.34	23046	
669.53	24539	
669.71	24989	
669.9	23123	
670.08	23513	
670.27	24694	
670.46	24946	
670.64	23556	
670.83	23974	
671.01	24358	
671.2	24653	
671.38	23059	
671.57	22741	
671.76	25249	
671.94	25689	
672.13	22913	
672.31	23659	
672.5	25335	
672.69	24602	
672.87	23113	
673.06	23483	
673.24	25025	
673.43	24647	
673.61	23428	
673.8	23185	
673.98	24802	
674.17	25092	
674.36	23608	
674.54	23470	
674.73	24628	
674.91	24843	
675.1	23472	
675.28	22689	
675.47	24671	
675.65	25020	
675.84	22973	
676.03	23440	
676.21	24299	
676.4	23825	
676.58	23486	
676.77	23677	
676.95	25456	
677.14	24156	
677.32	22683	
677.51	22694	
677.69	24739	
677.88	23941	
678.06	22624	
678.25	22712	
678.44	24633	
678.62	24052	
678.81	22332	
678.99	23309	
679.18	24906	
679.36	24871	
679.55	23111	
679.73	23425	
679.92	24410	
680.1	24073	
680.29	24015	
680.47	22812	
680.66	23913	
680.84	24680	
681.03	22298	
681.21	23088	
681.4	24189	
681.58	23849	
681.77	22478	
681.95	22524	
682.14	24645	
682.32	24720	
682.51	23042	
682.69	21934	
682.88	23738	
683.06	23892	
683.25	22775	
683.43	22806	
683.62	23933	
683.8	24266	
683.99	23102	
684.17	22619	
684.36	24718	
684.54	23550	
684.73	21463	
684.91	21578	
685.1	23206	
685.28	22431	
685.46	20994	
685.65	20652	
685.83	21732	
686.02	21000	
686.2	19396	
686.39	19398	
686.57	20545	
686.76	21860	
686.94	19570	
687.13	19838	
687.31	21429	
687.5	21486	
687.68	19663	
687.86	20620	
688.05	23055	
688.23	21252	
688.42	20885	
688.6	20468	
688.79	21803	
688.97	21843	
689.16	20872	
689.34	20050	
689.52	22674	
689.71	22774	
689.89	21412	
690.08	20788	
690.26	22464	
690.45	22470	
690.63	21467	
690.81	21178	
691	22181	
691.18	22341	
691.37	21128	
691.55	22457	
691.74	22078	
691.92	23471	
692.1	20776	
692.29	20299	
692.47	21857	
692.66	21280	
692.84	20469	
693.02	20644	
693.21	21562	
693.39	21677	
693.58	21100	
693.76	20557	
693.94	22885	
694.13	22956	
694.31	20722	
694.5	21614	
694.68	22053	
694.86	22650	
695.05	21419	
695.23	21558	
695.42	23213	
695.6	25013	
695.78	22291	
695.97	21420	
696.15	23563	
696.34	22779	
696.52	21436	
696.7	21772	
696.89	22955	
697.07	22425	
697.25	21410	
697.44	22582	
697.62	22554	
697.81	22470	
697.99	20840	
698.17	21125	
698.36	21684	
698.54	22129	
698.72	21057	
698.91	19990	
699.09	21803	
699.28	21548	
699.46	20564	
699.64	20312	
699.83	21377	
700.01	21973	
700.19	20695	
700.38	19861	
700.56	22173	
700.74	21368	
700.93	19768	
701.11	20629	
701.29	21957	
701.48	22743	
701.66	20211	
701.84	20517	
702.03	21930	
702.21	22552	
702.39	19873	
702.58	20686	
702.76	22083	
702.94	22167	
703.13	19933	
703.31	21865	
703.49	21698	
703.68	22246	
703.86	19949	
704.04	20679	
704.23	21699	
704.41	21865	
704.59	20005	
704.78	20544	
704.96	22868	
705.14	21812	
705.33	19979	
705.51	20117	
705.69	21316	
705.87	21814	
706.06	20518	
706.24	19532	
706.42	21302	
706.61	21782	
706.79	20083	
706.97	19402	
707.16	20791	
707.34	20996	
707.52	19889	
707.7	19330	
707.89	20900	
708.07	20492	
708.25	19810	
708.44	20226	
708.62	20419	
708.8	21268	
708.98	19962	
709.17	19297	
709.35	20584	
709.53	20534	
709.72	18862	
709.9	18897	
710.08	20687	
710.26	20467	
710.45	19728	
710.63	18609	
710.81	20136	
710.99	20026	
711.18	18860	
711.36	18397	
711.54	19728	
711.72	19987	
711.91	18172	
712.09	17722	
712.27	19420	
712.45	19603	
712.64	17571	
712.82	17025	
713	18292	
713.18	18158	
713.37	16660	
713.55	17236	
713.73	18497	
713.91	17212	
714.1	16096	
714.28	15520	
714.46	17191	
714.64	16054	
714.83	13963	
715.01	13947	
715.19	14929	
715.37	14114	
715.55	12727	
715.74	13028	
715.92	14849	
716.1	13202	
716.28	13588	
716.47	12510	
716.65	13492	
716.83	13335	
717.01	12118	
717.19	12076	
717.38	14887	
717.56	13020	
717.74	12349	
717.92	11735	
718.1	13823	
718.29	13319	
718.47	11462	
718.65	12213	
718.83	14302	
719.01	14742	
719.2	12415	
719.38	13347	
719.56	14805	
719.74	16109	
719.92	13307	
720.11	13819	
720.29	14728	
720.47	13943	
720.65	12392	
720.83	12686	
721.02	13527	
721.2	13007	
721.38	12098	
721.56	11466	
721.74	12277	
721.92	12267	
722.11	12085	
722.29	11807	
722.47	13231	
722.65	12555	
722.83	11058	
723.01	11600	
723.2	12457	
723.38	12730	
723.56	10517	
723.74	11304	
723.92	11940	
724.1	12839	
724.29	10763	
724.47	11606	
724.65	12048	
724.83	11895	
725.01	10454	
725.19	10977	
725.37	11713	
725.56	11732	
725.74	10219	
725.92	10476	
726.1	11759	
726.28	11917	
726.46	10699	
726.64	10311	
726.83	11612	
727.01	11763	
727.19	9978.4	
727.37	10687	
727.55	11893	
727.73	12076	
727.91	9977.7	
728.09	9706	
728.28	11979	
728.46	12235	
728.64	10648	
728.82	10503	
729	12785	
729.18	12372	
729.36	9966.8	
729.54	11679	
729.72	13345	
729.91	12027	
730.09	11780	
730.27	10885	
730.45	12047	
730.63	12517	
730.81	11182	
730.99	10509	
731.17	12894	
731.35	11714	
731.53	10806	
731.71	10560	
731.9	12499	
732.08	12594	
732.26	10600	
732.44	10330	
732.62	12480	
732.8	12020	
732.98	10756	
733.16	9923.1	
733.34	11945	
733.52	10811	
733.7	10101	
733.88	10194	
734.07	11480	
734.25	11366	
734.43	9665	
734.61	10838	
734.79	12613	
734.97	11224	
735.15	9656.9	
735.33	9937.4	
735.51	11382	
735.69	11095	
735.87	10542	
736.05	9859.6	
736.23	11127	
736.41	10772	
736.59	9607	
736.77	9660.3	
736.95	11243	
737.13	10872	
737.32	9239.8	
737.5	9486.9	
737.68	11665	
737.86	10561	
738.04	8959.2	
738.22	10226	
738.4	10305	
738.58	10552	
738.76	9182.4	
738.94	8444.5	
739.12	10398	
739.3	10204	
739.48	9602.2	
739.66	9513.5	
739.84	10383	
740.02	10428	
740.2	8436.3	
740.38	8647.9	
740.56	10655	
740.74	9629.5	
740.92	9033.6	
741.1	8846.5	
741.28	9980.4	
741.46	9751.7	
741.64	8454.7	
741.82	8811	
742	9940.8	
742.18	9755.8	
742.36	8374.1	
742.54	8174.1	
742.72	10188	
742.9	9140.1	
743.08	8647.9	
743.26	7718.1	
743.44	10146	
743.62	9933.3	
743.8	8604.9	
743.98	7941.3	
744.16	9639.8	
744.34	9317.6	
744.52	8353	
744.7	8324.3	
744.88	9610.4	
745.06	9241.8	
745.24	8227.4	
745.42	8279.9	
745.6	9527.8	
745.78	9351	
745.96	7236.2	
746.14	7385.7	
746.32	9953.8	
746.5	9342.2	
746.68	7778.9	
746.86	7333.1	
747.03	9531.9	
747.21	8188.5	
747.39	7640.3	
747.57	7159	
747.75	8781.7	
747.93	9142.1	
748.11	7128.3	
748.29	7072.3	
748.47	10052	
748.65	8486.8	
748.83	7604.1	
749.01	7382.2	
749.19	8836.3	
749.37	8124.3	
749.55	7234.8	
749.73	7323.5	
749.91	8556.4	
750.09	8257.4	
750.26	7206.1	
750.44	6698.9	
750.62	8442.4	
750.8	8400.8	
750.98	6694.1	
751.16	6811.5	
751.34	8492.9	
751.52	7955	
751.7	7423.9	
751.88	6481.1	
752.06	8696.4	
752.24	8506.6	
752.42	6348.7	
752.59	6681.8	
752.77	8127.7	
752.95	9136	
753.13	7201.3	
753.31	6667.5	
753.49	7901.7	
753.67	8234.9	
753.85	6818.4	
754.03	6408.8	
754.21	8206.2	
754.38	8387.1	
754.56	6371.9	
754.74	5536.3	
754.92	7263.5	
755.1	7677.8	
755.28	5176.6	
755.46	5123.3	
755.64	7931.1	
755.82	7880.6	
755.99	4917.9	
756.17	4858.5	
756.35	5677	
756.53	6675.7	
756.71	3855.6	
756.89	4530.8	
757.07	6256.5	
757.25	5635.3	
757.42	5007.3	
757.6	5631.9	
757.78	6509.8	
757.96	5861.3	
758.14	4941.7	
758.32	4574.5	
758.5	5526.8	
758.67	6108.4	
758.85	4758.1	
759.03	4831.2	
759.21	6236.7	
759.39	5778	
759.57	4455.7	
759.75	5356.8	
759.92	6799.9	
760.1	6264.1	
760.28	5612.1	
760.46	5885.9	
760.64	6207.4	
760.82	6088.6	
760.99	5492.7	
761.17	5059.2	
761.35	6914.6	
761.53	6128.9	
761.71	5273.5	
761.89	5778	
762.06	6928.3	
762.24	6561	
762.42	5360.9	
762.6	5129.5	
762.78	6537.1	
762.96	7071	
763.13	5684.5	
763.31	5415.5	
763.49	7067.5	
763.67	6567.8	
763.85	6003.3	
764.02	6531.7	
764.2	7398.6	
764.38	6680.5	
764.56	5271.5	
764.74	5982.1	
764.91	7425.9	
765.09	6606.1	
765.27	5054.4	
765.45	4885.1	
765.63	7511.9	
765.8	7275.1	
765.98	4708.3	
766.16	4908.3	
766.34	6184.9	
766.52	5973.9	
766.69	5647.6	
766.87	4732.9	
767.05	6456.6	
767.23	6963.8	
767.41	5016.2	
767.58	5119.9	
767.76	6808.8	
767.94	6859.3	
768.12	4958.1	
768.29	5427.1	
768.47	6322.8	
768.65	6907.1	
768.83	4536.9	
769	5523.4	
769.18	6004.6	
769.36	6457.9	
769.54	5437.4	
769.72	4541	
769.89	6799.9	
770.07	6763.8	
770.25	4820.2	
770.43	5725.4	
770.6	7270.3	
770.78	7576.1	
770.96	4917.2	
771.14	5274.2	
771.31	6664.8	
771.49	6034	
771.67	4183.3	
771.85	4385.4	
772.02	5477.6	
772.2	5977.3	
772.38	4923.3	
772.55	4559.5	
772.73	6212.9	
772.91	6012.2	
773.09	4756.1	
773.26	4804.5	
773.44	6107.7	
773.62	5874.9	
773.8	4332.8	
773.97	4184	
774.15	6123.4	
774.33	5862	
774.5	4265.2	
774.68	4474.8	
774.86	6189.6	
775.04	5778.7	
775.21	4289.1	
775.39	4225.6	
775.57	6002.6	
775.74	6229.2	
775.92	4114.4	
776.1	4033.1	
776.27	5897.5	
776.45	6894.1	
776.63	4192.9	
776.81	3851.5	
776.98	5694	
777.16	6438.8	
777.34	4322.6	
777.51	4504.2	
777.69	5628.5	
777.87	5433.3	
778.04	4365.6	
778.22	4731.5	
778.4	5425.8	
778.57	5918.6	
778.75	3712.3	
778.93	3967.6	
779.1	5312.4	
779.28	5202.5	
779.46	3768.3	
779.64	4089.8	
779.81	6015.6	
779.99	6614.9	
780.17	4633.2	
780.34	4683	
780.52	5603.2	
780.69	5693.4	
780.87	4327.4	
781.05	3963.5	
781.22	5570.5	
781.4	5621.7	
781.58	3992.9	
781.75	3336.8	
781.93	5542.5	
782.11	5047.6	
782.28	4639.3	
782.46	3984.7	
782.64	4978.6	
782.81	5699.5	
782.99	4085.7	
783.17	3908.2	
783.34	5590.3	
783.52	5052.3	
783.69	4106.9	
783.87	4696	
784.05	5056.4	
784.22	4977.2	
784.4	4692.6	
784.58	4168.3	
784.75	5754.1	
784.93	5096.7	
785.1	3938.9	
785.28	4342.4	
785.46	5515.2	
785.63	4958.8	
785.81	3855.6	
785.99	3753.2	
786.16	5186.1	
786.34	5405.3	
786.51	3738.2	
786.69	4040.6	
786.87	4726	
787.04	5186.8	
787.22	3616	
787.39	4385.4	
787.57	4952.7	
787.75	5783.5	
787.92	4491.9	
788.1	4394.3	
788.27	4902.8	
788.45	4745.1	
788.63	4236.6	
788.8	3214.6	
788.98	5399.8	
789.15	4637.3	
789.33	3405.8	
789.5	3768.9	
789.68	5652.4	
789.86	5775.3	
790.03	4115.7	
790.21	3614	
790.38	5654.4	
790.56	4955.4	
790.73	3595.6	
790.91	3603.7	
791.09	4865.3	
791.26	5442.8	
791.44	3808.5	
791.61	3288.4	
791.79	4875.5	
791.96	4866.7	
792.14	3472.7	
792.32	3104.7	
792.49	4881.7	
792.67	4959.5	
792.84	3533.4	
793.02	3325.2	
793.19	5242.8	
793.37	5733.6	
793.54	3106.1	
793.72	3312.2	
793.89	5793	
794.07	4866	
794.25	3767.6	
794.42	3130.7	
794.6	5645.6	
794.77	5401.2	
794.95	4042	
795.12	3585.3	
795.3	4838	
795.47	5281.7	
795.65	3900	
795.82	3685	
796	4668	
796.17	6147.3	
796.35	3631	
796.52	4205.8	
796.7	5226.4	
796.87	5306.3	
797.05	3590.8	
797.22	4302.8	
797.4	5267.4	
797.57	6024.4	
797.75	3720.5	
797.92	3534.1	
798.1	5549.3	
798.27	4763.6	
798.45	3132	
798.62	3251.5	
798.8	5009.3	
798.97	5411.4	
799.15	3833.1	
799.32	3711.6	
799.5	4449.6	
799.67	5014.8	
799.85	3977.2	
800.02	3020.8	
800.2	4774.5	
800.37	4986.1	
800.55	4059.1	
800.72	3435.1	
800.9	5325.4	
801.07	5672.9	
801.25	4481.6	
801.42	3775.1	
801.6	5425.1	
801.77	5059.2	
801.95	3564.1	
802.12	3421.5	
802.29	5175.9	
802.47	5090.6	
802.64	3774.4	
802.82	2977.1	
802.99	4727.4	
803.17	5487.9	
803.34	3649.5	
803.52	3361.4	
803.69	5958.9	
803.87	4478.2	
804.04	3642.7	
804.21	3691.1	
804.39	5623	
804.56	4821.6	
804.74	3192.1	
804.91	3719.1	
805.09	4713.7	
805.26	4776.5	
805.44	3196.2	
805.61	3467.2	
805.78	5269.4	
805.96	5272.8	
806.13	3726.6	
806.31	3910.3	
806.48	4351.9	
806.66	4777.9	
806.83	3678.2	
807	3665.9	
807.18	4701.5	
807.35	4944.5	
807.53	3599.6	
807.7	3030.3	
807.87	5560.2	
808.05	4657.8	
808.22	3906.8	
808.4	2927.9	
808.57	4675.5	
808.74	4390.2	
808.92	3297.9	
809.09	4128	
809.27	4649.6	
809.44	5030.5	
809.61	3005.7	
809.79	3207.1	
809.96	5603.2	
810.14	5159.5	
810.31	2891	
810.48	3439.9	
810.66	4762.2	
810.83	5311.7	
811.01	3284.9	
811.18	3661.8	
811.35	5205.9	
811.53	4177.9	
811.7	3908.9	
811.87	3617.4	
812.05	4690.5	
812.22	4626.4	
812.39	3197.6	
812.57	3181.2	
812.74	4723.3	
812.92	5916.6	
813.09	3530	
813.26	3674.1	
813.44	5763	
813.61	4585.4	
813.78	2933.4	
813.96	3805.8	
814.13	4711	
814.3	4412	
814.48	4040.6	
814.65	3467.9	
814.82	5565.7	
815	4399.7	
815.17	3516.4	
815.34	4229.7	
815.52	4549.2	
815.69	4573.1	
815.87	3532.7	
816.04	3496.6	
816.21	4663.9	
816.38	4211.3	
816.56	3383.2	
816.73	3213.9	
816.9	5681.7	
817.08	5162.2	
817.25	3218	
817.42	3895.2	
817.6	4304.1	
817.77	4605.2	
817.94	3543	
818.12	3123.8	
818.29	4437.9	
818.46	6435.4	
818.64	3327.9	
818.81	3117	
818.98	4458.4	
819.16	6073.6	
819.33	3718.4	
819.5	3495.9	
819.67	4926	
819.85	5440.1	
820.02	3515	
820.19	3604.4	
820.37	4833.2	
820.54	4532.2	
820.71	3582.6	
820.88	4354	
821.06	4786.1	
821.23	4433.2	
821.4	3587.4	
821.58	3545.7	
821.75	5205.3	
821.92	4788.2	
822.09	2975.7	
822.27	3201	
822.44	4644.1	
822.61	4531.5	
822.79	2959.3	
822.96	5248.3	
823.13	4950.6	
823.3	4405.2	
823.48	3345	
823.65	3078.1	
823.82	5172.5	
823.99	4302.1	
824.17	4114.4	
824.34	3102.7	
824.51	5840.1	
824.68	4642.1	
824.86	3201	
825.03	3509.5	
825.2	4630.5	
825.37	5442.8	
825.55	3186	
825.72	3528	
825.89	5868.1	
826.06	5509	
826.24	3386	
826.41	3395.5	
826.58	5430.5	
826.75	4854.4	
826.92	2755.9	
827.1	3074.7	
827.27	7181.5	
827.44	5819.6	
827.61	3207.8	
827.79	3865.9	
827.96	4476.9	
828.13	4619.5	
828.3	3383.9	
828.47	2930.6	
828.65	4894	
828.82	4800.4	
828.99	4210.6	
829.16	3720.5	
829.34	5142.4	
829.51	4984.8	
829.68	3517	
829.85	3588	
830.02	5428.5	
830.2	5152	
830.37	2765.4	
830.54	4110.3	
830.71	5761.6	
830.88	4649.6	
831.05	2837.1	
831.23	3164.8	
831.4	5597.1	
831.57	6085.2	
831.74	3278.8	
831.91	2908.8	
832.09	4969.7	
832.26	5079	
832.43	3327.9	
832.6	3678.2	
832.77	4815.5	
832.94	5419.6	
833.12	2725.8	
833.29	3228.3	
833.46	4569	
833.63	6208.1	
833.8	3577.1	
833.97	3345.7	
834.15	5141.1	
834.32	5005.9	
834.49	3490.4	
834.66	3530	
834.83	5270.1	
835	4458.4	
835.17	3209.8	
835.35	3297.2	
835.52	5124	
835.69	4982	
835.86	3410.6	
836.03	2811.2	
836.2	5143.8	
836.37	4813.4	
836.55	3287	
836.72	3143.6	
836.89	4822.3	
837.06	5125.4	
837.23	3377.8	
837.4	3682.9	
837.57	5747.3	
837.75	6254.5	
837.92	3055.6	
838.09	3287.7	
838.26	4762.2	
838.43	5300.1	
838.6	3432.4	
838.77	3157.3	
838.94	5921.4	
839.11	5778.7	
839.29	3340.2	
839.46	2688.3	
839.63	5169.1	
839.8	4854.4	
839.97	3243.3	
840.14	3170.3	
840.31	4975.9	
840.48	5175.2	
840.65	2740.2	
840.82	3196.9	
841	5040.1	
841.17	4979.3	
841.34	3004.4	
841.51	3069.2	
841.68	5096.7	
841.85	4876.9	
842.02	3107.5	
842.19	2634.4	
842.36	4934.2	
842.53	4941.7	
842.7	2938.8	
842.87	3631.7	
843.05	6261.3	
843.22	4823.6	
843.39	2899.9	
843.56	3121.1	
843.73	4685.1	
843.9	5155.4	
844.07	4639.3	
844.24	3871.3	
844.41	6972.7	
844.58	4478.2	
844.75	2931.3	
844.92	3109.5	
845.09	5054.4	
845.26	5110.4	
845.43	2963.4	
845.6	3123.8	
845.77	5090.6	
845.94	4874.8	
846.12	3265.1	
846.29	3433.1	
846.46	5237.3	
846.63	5057.1	
846.8	2968.9	
846.97	3457.7	
847.14	5459.2	
847.31	5019.6	
847.48	3278.1	
847.65	3648.8	
847.82	5248.9	
847.99	5213.4	
848.16	3880.9	
848.33	3599.6	
848.5	4700.1	
848.67	5463.3	
848.84	2957.3	
849.01	3061	
849.18	4634.6	
849.35	4366.3	
849.52	3640.6	
849.69	2880.1	
849.86	5287.2	
850.03	5369.8	
850.2	2985.3	
850.37	3573	
850.54	5296	
850.71	4758.8	
850.88	3512.3	
851.05	2973.7	
851.22	4954.7	
851.39	5482.4	
851.56	2822.1	
851.73	3353.2	
851.9	4534.9	
852.07	5302.9	
852.24	3297.9	
852.41	2979.8	
852.58	4962.9	
852.75	4582	
852.92	3344.3	
853.09	2894.5	
853.26	4758.8	
853.43	5352	
853.6	2976.4	
853.77	2585.9	
853.94	5535	
854.11	4483	
854.28	4192.2	
854.44	3181.9	
854.61	5808	
854.78	5280.3	
854.95	2949.1	
855.12	3663.8	
855.29	4197.7	
855.46	5524.1	
855.63	2947.7	
855.8	3973.7	
855.97	4691.9	
856.14	5341.8	
856.31	4064.5	
856.48	3211.9	
856.65	4736.3	
856.82	4446.1	
856.99	2838.5	
857.16	3149.8	
857.33	5978.7	
857.49	4797	
857.66	3149.1	
857.83	3368.2	
858	4831.2	
858.17	5004.6	
858.34	2787.3	
858.51	2938.2	
858.68	5517.9	
858.85	5510.4	
859.02	3383.9	
859.19	3589.4	
859.36	4493.9	
859.52	4554	
859.69	2953.2	
859.86	3392.1	
860.03	4597.7	
860.2	5494	
860.37	2721.1	
860.54	3001.6	
860.71	5216.2	
860.88	5493.3	
861.05	3255.6	
861.21	3675.4	
861.38	5533.6	
861.55	4340.3	
861.72	2727.2	
861.89	3270.6	
862.06	5279	
862.23	5626.5	
862.4	2888.3	
862.56	3036.5	
862.73	5152	
862.9	4877.6	
863.07	3353.2	
863.24	2693.8	
863.41	4455.7	
863.58	4567.7	
863.75	2987.3	
863.91	3376.4	
864.08	5439.4	
864.25	5138.4	
864.42	3642.7	
864.59	3968.3	
864.76	5716.6	
864.93	4468.7	
865.09	2875.3	
865.26	3102	
865.43	5415.5	
865.6	5673.6	
865.77	2639.1	
865.94	2896.5	
866.1	5416.9	
866.27	5113.1	
866.44	4257.7	
866.61	2902.7	
866.78	4760.8	
866.95	5152.7	
867.11	2871.3	
867.28	2623.4	
867.45	5352.7	
867.62	4565.6	
867.79	3308.8	
867.96	2947	
868.12	4493.9	
868.29	5216.9	
868.46	2952.5	
868.63	3789.4	
868.8	5328.1	
868.97	5176.6	
869.13	3033	
869.3	2983.2	
869.47	5100.8	
869.64	5216.2	
869.81	2927.9	
869.97	2990	
870.14	4996.4	
870.31	5457.8	
870.48	2841.2	
870.65	3649.5	
870.81	4732.2	
870.98	4782	
871.15	3289.7	
871.32	3009.8	
871.48	5089.2	
871.65	5586.9	
871.82	2893.8	
871.99	3168.2	
872.16	5905	
872.32	5396.4	
872.49	2905.4	
872.66	2992.8	
872.83	5178.6	
872.99	4608.6	
873.16	3274	
873.33	2889	
873.5	4881	
873.67	4915.1	
873.83	3041.2	
874	3804.4	
874.17	5044.1	
874.34	5827.2	
874.5	3721.8	
874.67	3601	
874.84	5489.2	
875.01	4416.1	
875.17	4005.1	
875.34	2934.7	
875.51	4974.5	
875.68	5877	
875.84	3471.3	
876.01	4162.8	
876.18	5212.1	
876.34	5094.7	
876.51	2951.1	
876.68	2824.8	
876.85	4765.6	
877.01	5389.6	
877.18	4080.9	
877.35	2927.9	
877.52	4969.1	
877.68	4448.9	
877.85	2887.6	
878.02	2887.6	
878.18	4789.5	
878.35	4650.3	
878.52	2342.9	
878.69	3200.3	
878.85	5298.8	
879.02	5135.6	
879.19	4080.2	
879.35	3132.7	
879.52	5195	
879.69	5248.9	
879.86	2579.8	
880.02	3254.2	
880.19	4850.3	
880.36	5805.3	
880.52	3276.1	
880.69	3418.1	
880.86	5208	
881.02	5292	
881.19	3248.8	
881.36	3166.2	
881.52	5134.9	
881.69	4652.3	
881.86	3149.8	
882.02	3075.4	
882.19	5323.4	
882.36	6198.5	
882.52	2990.7	
882.69	3992.2	
882.86	4939.7	
883.02	4930.1	
883.19	3483.6	
883.36	3294.5	
883.52	5194.3	
883.69	5892.7	
883.86	2964.1	
884.02	2684.2	
884.19	5175.2	
884.36	4865.3	
884.52	3254.9	
884.69	3104.7	
884.86	4686.4	
885.02	5607.3	
885.19	3197.6	
885.36	3303.4	
885.52	4877.6	
885.69	4999.1	
885.86	4116.4	
886.02	3648.1	
886.19	5227.8	
886.35	4735.6	
886.52	3198.2	
886.69	3932.8	
886.85	4497.3	
887.02	5422.3	
887.19	5422.3	
887.35	5422.3	
887.52	5422.3	
887.68	5422.3	
887.85	5422.3	
888.02	5422.3	
888.18	5422.3	
888.35	5422.3	
888.51	5422.3	
888.68	5422.3	
888.85	5422.3	
889.01	5422.3	
889.18	5422.3	
889.35	5422.3	
889.51	5422.3	
889.68	5422.3	
889.84	5422.3	
890.01	5422.3	
890.17	5422.3	
890.34	5422.3	
890.51	5422.3	
890.67	5422.3	
890.84	5422.3	
891	5422.3	
891.17	5422.3	
891.34	5422.3	
891.5	5422.3	
891.67	5422.3	
891.83	5422.3	
892	5422.3	
892.16	5422.3	
892.33	5422.3	
892.5	5422.3	
892.66	5422.3	
892.83	5422.3	
892.99	5422.3	
893.16	5422.3	
893.32	5422.3	
893.49	5422.3	
893.65	5422.3	
893.82	5422.3	
893.99	5422.3	
894.15	5422.3	
894.32	5422.3	
894.48	5422.3	
894.65	5422.3	
894.81	5422.3	
894.98	5422.3	
895.14	5422.3	
895.31	5422.3	
895.47	5422.3	
895.64	5422.3	
895.81	5422.3	
895.97	5422.3	
896.14	5422.3	
896.3	5422.3	
896.47	5422.3	
896.63	5422.3	
896.8	5422.3	
896.96	5422.3	
897.13	5422.3	
897.29	5422.3	
897.46	5422.3	
897.62	5422.3	
897.79	5422.3	
897.95	5422.3	
898.12	5422.3	
898.28	5422.3	
898.45	5422.3	
898.61	5422.3	
898.78	5422.3	
898.94	5422.3	
899.11	5422.3	
899.27	5422.3	
899.44	5422.3	
899.6	5422.3	
899.77	5422.3	
899.93	5422.3	
900.1	5422.3	
900.26	5422.3	
900.43	5422.3	
900.59	5422.3	
900.76	5422.3	
900.92	5422.3	
901.09	5422.3	
901.25	5422.3	
901.42	5422.3	
901.58	5422.3	
901.75	5422.3	
901.91	5422.3	
902.07	5422.3	
902.24	5422.3	
902.4	5422.3	
902.57	5422.3	
902.73	5422.3	
902.9	5422.3	
903.06	5422.3	
903.23	5422.3	
903.39	5422.3	
903.56	5422.3	
903.72	5422.3	
903.88	5422.3	
904.05	5422.3	
904.21	5422.3	
904.38	5422.3	
904.54	5422.3	
904.71	5422.3	
904.87	5422.3	
905.03	5422.3	
905.2	5422.3	
905.36	5422.3	
905.53	5422.3	
905.69	5422.3	
905.86	5422.3	
906.02	5422.3	
906.18	5422.3	
906.35	5422.3	
906.51	5422.3	
906.68	5422.3	
906.84	5422.3	
907.01	5422.3	
907.17	5422.3	
907.33	5422.3	
907.5	5422.3	
907.66	5422.3	
907.83	5422.3	
907.99	5422.3	
908.15	5422.3	
908.32	5422.3	
908.48	5422.3	
908.65	5422.3	
908.81	5422.3	
908.97	5422.3	
909.14	5422.3	
909.3	5422.3	
909.47	5422.3	
909.63	5422.3	
909.79	5422.3	
909.96	5422.3	
910.12	5422.3	
910.28	5422.3	
910.45	5422.3	
910.61	5422.3	
910.78	5422.3	
910.94	5422.3	
911.1	5422.3	
911.27	5422.3	
911.43	5422.3	
911.59	5422.3	
911.76	5422.3	
911.92	5422.3	
912.08	5422.3	
912.25	5422.3	
912.41	5422.3	
912.57	5422.3	
912.74	5422.3	
912.9	5422.3	
913.07	5422.3	
913.23	5422.3	
913.39	5422.3	
913.56	5422.3	
913.72	5422.3	
913.88	5422.3	
914.05	5422.3	
914.21	5422.3	
914.37	5422.3	
914.54	5422.3	
914.7	5422.3	
914.86	5422.3	
915.03	5422.3	
915.19	5422.3	
