Wavelength	Intensities	
nm	a.u.	
179.22	1713.8	
179.44	1721.7	
179.65	1706	
179.86	1737.4	
180.08	1737.4	
180.29	4067.9	
180.51	3081.5	
180.72	5063.3	
180.94	5728.9	
181.15	2807.1	
181.37	2753.8	
181.58	4859.8	
181.79	5100.1	
182.01	2853.5	
182.22	3080.8	
182.44	5117.2	
182.65	4426.3	
182.87	3793.5	
183.08	3355.3	
183.29	5343.8	
183.51	4463.9	
183.72	3056.9	
183.94	4295.3	
184.15	4838.7	
184.37	4710.3	
184.58	2781.1	
184.79	3573.7	
185.01	4560.1	
185.22	5193.6	
185.44	3801	
185.65	3257.6	
185.86	4801.8	
186.08	4418.8	
186.29	2693.8	
186.51	2878.8	
186.72	4496	
186.94	5244.8	
187.15	3280.2	
187.36	3401	
187.58	6602.7	
187.79	4928.1	
188.01	3433.8	
188.22	5223	
188.43	5806	
188.65	5087.8	
188.86	2900.6	
189.08	3400.3	
189.29	4621.6	
189.5	4617.5	
189.72	3134.1	
189.93	3188	
190.15	5246.2	
190.36	6151.4	
190.57	3411.9	
190.79	3322.5	
191	5283.1	
191.22	5249.6	
191.43	3489.7	
191.64	2919.7	
191.86	5467.4	
192.07	5242.8	
192.29	2966.8	
192.5	3090.4	
192.71	5264.6	
192.93	4683.7	
193.14	3147.7	
193.35	3147	
193.57	4601.8	
193.78	5270.8	
194	2556.5	
194.21	3073.3	
194.42	4464.6	
194.64	4809.3	
194.85	3332.7	
195.07	3899.3	
195.28	4773.1	
195.49	4270.7	
195.71	4121.2	
195.92	2927.9	
196.13	5005.2	
196.35	4992.3	
196.56	4305.5	
196.78	3322.5	
196.99	5980.8	
197.2	5680.4	
197.42	3769.6	
197.63	3366.9	
197.84	4394.3	
198.06	5041.4	
198.27	3143.6	
198.48	4070.7	
198.7	4642.7	
198.91	4840	
199.13	3435.1	
199.34	3373.7	
199.55	5188.2	
199.77	4219.5	
199.98	2968.2	
200.19	3455.6	
200.41	4807.3	
200.62	4537.6	
200.83	3486.3	
201.05	3782.6	
201.26	4783.4	
201.47	4526.7	
201.69	3066.5	
201.9	2949.1	
202.11	4814.8	
202.33	5569.8	
202.54	3213.3	
202.76	3496.6	
202.97	4893.3	
203.18	4977.9	
203.4	3472	
203.61	3487.7	
203.82	4896.7	
204.04	4580.6	
204.25	3405.1	
204.46	3339.6	
204.68	4848.9	
204.89	5031.9	
205.1	3239.9	
205.32	2895.8	
205.53	5116.5	
205.74	5221.6	
205.96	2534.7	
206.17	3440.6	
206.38	5101.5	
206.6	5211.4	
206.81	3870.7	
207.02	3170.9	
207.24	5030.5	
207.45	5346.6	
207.66	3231	
207.88	2836.4	
208.09	5026.4	
208.3	4830.5	
208.52	3016.7	
208.73	3300	
208.94	4851	
209.15	5341.8	
209.37	3229	
209.58	3611.9	
209.79	5226.4	
210.01	4670.7	
210.22	2679.4	
210.43	2771.6	
210.65	4820.2	
210.86	5150.6	
211.07	3207.1	
211.29	2936.1	
211.5	5051.7	
211.71	4801.8	
211.93	3033.7	
212.14	3044	
212.35	4778.6	
212.56	4896.7	
212.78	3366.9	
212.99	2867.2	
213.2	5520	
213.42	4631.1	
213.63	3130	
213.84	3235.1	
214.06	4401.1	
214.27	4373.1	
214.48	3222.8	
214.69	3420.1	
214.91	5281.7	
215.12	5362.9	
215.33	3463.8	
215.55	3648.8	
215.76	5804.6	
215.97	5081	
216.18	3315	
216.4	3293.8	
216.61	4543.8	
216.82	5232.6	
217.04	3054.2	
217.25	3099.3	
217.46	5261.2	
217.67	5142.4	
217.89	2777	
218.1	2833	
218.31	4898.1	
218.53	5017.5	
218.74	3175	
218.95	3048.7	
219.16	4802.5	
219.38	5579.3	
219.59	3060.3	
219.8	3613.3	
220.01	5942.5	
220.23	4866	
220.44	3878.9	
220.65	2993.4	
220.87	4865.3	
221.08	5342.5	
221.29	2874	
221.5	3659	
221.72	6284.5	
221.93	4579.3	
222.14	3408.5	
222.35	3926	
222.57	4790.2	
222.78	5091.3	
222.99	3257.6	
223.2	3478.1	
223.42	5081.7	
223.63	5158.2	
223.84	2543.6	
224.05	2560.6	
224.27	5888.6	
224.48	5484.5	
224.69	3958	
224.9	3418.1	
225.12	4972.5	
225.33	4743.1	
225.54	2783.9	
225.75	3051.5	
225.97	4516.5	
226.18	4736.3	
226.39	3245.3	
226.6	3071.3	
226.82	4628.4	
227.03	4507.6	
227.24	3413.3	
227.45	2912.9	
227.67	5133.6	
227.88	5508.4	
228.09	3782.6	
228.3	3710.9	
228.52	5192.3	
228.73	4751.3	
228.94	3146.4	
229.15	2843.3	
229.36	4779.3	
229.58	4750.6	
229.79	3181.2	
230	3616	
230.21	5692	
230.43	4871.4	
230.64	3335.5	
230.85	3538.2	
231.06	5128.8	
231.28	5149.3	
231.49	2852.1	
231.7	3350.5	
231.91	5090.6	
232.12	4817.5	
232.34	2899.9	
232.55	3233.1	
232.76	5309.7	
232.97	4932.2	
233.18	3007.1	
233.4	3350.5	
233.61	4976.6	
233.82	4674.1	
234.03	3179.8	
234.25	3118.4	
234.46	6409.5	
234.67	4819.6	
234.88	3438.5	
235.09	3066.5	
235.31	5029.1	
235.52	4709	
235.73	3350.5	
235.94	2843.9	
236.15	4625	
236.37	5706.3	
236.58	3010.5	
236.79	3229	
237	5079	
237.21	4386.1	
237.43	3458.3	
237.64	2768.2	
237.85	8021.9	
238.06	4457.7	
238.27	3501.3	
238.48	2884.9	
238.7	5128.1	
238.91	4726.7	
239.12	3220.8	
239.33	3334.8	
239.54	4536.9	
239.76	4745.8	
239.97	3224.2	
240.18	3224.2	
240.39	5752.7	
240.6	5023	
240.82	3386.7	
241.03	2785.9	
241.24	4808.6	
241.45	5439.4	
241.66	3039.9	
241.87	3502	
242.09	5382.1	
242.3	5625.8	
242.51	3519.8	
242.72	3258.3	
242.93	5132.2	
243.14	4763.6	
243.36	3702	
243.57	3957.4	
243.78	5478.3	
243.99	5061.9	
244.2	3226.9	
244.41	2971.6	
244.63	4410	
244.84	5007.3	
245.05	3491.8	
245.26	3257.6	
245.47	5073.5	
245.68	5203.9	
245.9	4248.9	
246.11	3411.2	
246.32	4629.8	
246.53	5027.1	
246.74	5115.1	
246.95	2819.4	
247.16	4456.4	
247.38	4825.7	
247.59	2775	
247.8	3250.1	
248.01	4470.7	
248.22	4820.9	
248.43	3012.6	
248.64	3190.1	
248.86	4374.5	
249.07	4603.8	
249.28	2912.2	
249.49	3372.3	
249.7	5270.8	
249.91	5319.3	
250.12	2806.4	
250.34	2807.1	
250.55	4934.2	
250.76	4870.1	
250.97	3384.6	
251.18	3416.7	
251.39	5295.4	
251.6	4920.6	
251.81	3387.3	
252.03	3389.4	
252.24	4672.1	
252.45	5158.2	
252.66	2887.6	
252.87	3590.8	
253.08	4808.6	
253.29	6097.5	
253.5	2952.5	
253.72	3862.5	
253.93	4685.8	
254.14	5554.1	
254.35	3108.1	
254.56	3160	
254.77	4985.4	
254.98	4494.6	
255.19	3125.2	
255.41	3880.9	
255.62	4922.6	
255.83	5285.1	
256.04	3458.3	
256.25	3369.6	
256.46	5782.1	
256.67	4582.7	
256.88	3378.5	
257.09	3727.3	
257.31	4503.5	
257.52	4549.9	
257.73	4161.5	
257.94	3129.3	
258.15	4761.5	
258.36	4840	
258.57	3820.1	
258.78	2525.8	
258.99	5204.6	
259.2	4699.4	
259.41	3153.2	
259.63	3186.6	
259.84	5438.7	
260.05	5798.5	
260.26	3982.6	
260.47	3103.4	
260.68	5230.5	
260.89	4726	
261.1	3723.9	
261.31	2996.9	
261.52	5371.1	
261.73	5580.7	
261.95	4024.3	
262.16	3502	
262.37	5302.2	
262.58	5412.8	
262.79	3927.3	
263	3144.3	
263.21	4844.1	
263.42	4659.8	
263.63	3379.8	
263.84	3190.1	
264.05	5234.6	
264.26	5502.9	
264.47	3833.1	
264.69	3462.4	
264.9	5426.4	
265.11	5001.1	
265.32	3059.7	
265.53	3097.9	
265.74	4884.4	
265.95	4351.3	
266.16	3345.7	
266.37	3617.4	
266.58	4959.5	
266.79	4595.6	
267	3137.5	
267.21	2925.2	
267.42	4500.1	
267.63	4804.5	
267.84	3218	
268.06	2802.3	
268.27	5248.3	
268.48	5324	
268.69	3192.1	
268.9	3675.4	
269.11	5346.6	
269.32	4367	
269.53	3210.5	
269.74	3017.3	
269.95	5001.1	
270.16	4382.7	
270.37	3278.1	
270.58	3764.8	
270.79	4725.3	
271	5195	
271.21	3393.5	
271.42	3302.7	
271.63	5029.8	
271.84	4469.4	
272.05	2639.1	
272.26	2970.9	
272.47	4853.7	
272.68	4975.9	
272.89	3142.9	
273.11	3579.2	
273.32	4646.8	
273.53	5526.1	
273.74	3493.2	
273.95	3420.1	
274.16	5279.7	
274.37	4803.2	
274.58	3588.7	
274.79	2918.4	
275	4958.1	
275.21	5285.1	
275.42	4164.9	
275.63	3648.1	
275.84	5082.4	
276.05	6196.5	
276.26	3482.2	
276.47	3244	
276.68	4758.1	
276.89	5618.9	
277.1	3635.1	
277.31	2872.6	
277.52	4995.7	
277.73	5197.7	
277.94	2887	
278.15	3147	
278.36	4982.7	
278.57	4553.3	
278.78	3200.3	
278.99	3444	
279.2	4595.6	
279.41	4539	
279.62	4049.5	
279.83	2980.5	
280.04	5752.7	
280.25	4489.1	
280.46	4090.5	
280.67	3257	
280.88	4521.2	
281.09	5356.8	
281.3	3409.9	
281.51	4220.9	
281.72	4560.8	
281.93	5179.3	
282.14	3121.1	
282.35	3314.3	
282.56	5233.9	
282.77	5246.9	
282.98	3170.9	
283.19	3788.1	
283.4	6221.7	
283.61	4806.6	
283.82	2967.5	
284.03	4047.5	
284.24	4939	
284.45	5292.6	
284.66	4009.9	
284.87	3801	
285.08	5304.9	
285.29	5378	
285.5	2812.5	
285.71	3149.1	
285.92	5268.7	
286.12	5767.8	
286.33	3999.7	
286.54	3218	
286.75	5184.8	
286.96	4747.2	
287.17	2942.9	
287.38	3865.2	
287.59	4625	
287.8	4537.6	
288.01	3256.3	
288.22	3557.3	
288.43	5166.3	
288.64	4397	
288.85	3695.9	
289.06	3622.9	
289.27	5151.3	
289.48	5513.8	
289.69	4018.1	
289.9	3636.5	
290.11	5356.8	
290.32	4622.9	
290.53	3746.4	
290.74	3512.9	
290.94	5132.2	
291.15	5167.7	
291.36	3051.5	
291.57	3591.5	
291.78	4678.9	
291.99	4330.8	
292.2	2985.3	
292.41	3485.6	
292.62	5259.2	
292.83	5108.3	
293.04	4269.3	
293.25	3027.6	
293.46	4730.1	
293.67	5227.1	
293.88	3052.8	
294.09	2973	
294.29	4511.7	
294.5	4993.6	
294.71	3307.5	
294.92	3101.3	
295.13	4710.3	
295.34	5672.9	
295.55	2824.1	
295.76	2749.1	
295.97	5135.6	
296.18	5666.7	
296.39	2927.2	
296.6	3091.1	
296.81	4870.1	
297.01	5151.3	
297.22	3218.7	
297.43	3111.5	
297.64	4587.4	
297.85	4533.5	
298.06	2581.1	
298.27	2843.3	
298.48	4812.7	
298.69	4584	
298.9	3327.3	
299.11	3048.7	
299.31	4493.2	
299.52	4488.5	
299.73	3530.7	
299.94	3459.7	
300.15	4813.4	
300.36	4580.6	
300.57	3431.7	
300.78	3392.8	
300.99	4700.1	
301.2	4853.7	
301.4	3119.7	
301.61	3298.6	
301.82	5087.2	
302.03	5178.6	
302.24	3647.4	
302.45	2968.9	
302.66	5023.7	
302.87	5363.6	
303.08	3066.5	
303.29	4143	
303.49	4705.5	
303.7	4870.8	
303.91	2735.4	
304.12	3848.1	
304.33	4405.9	
304.54	4883	
304.75	3092.4	
304.96	3009.8	
305.16	5097.4	
305.37	5623.7	
305.58	2712.9	
305.79	2815.3	
306	5038.7	
306.21	4381.3	
306.42	3111.5	
306.63	4493.9	
306.83	4691.2	
307.04	5225.1	
307.25	3375.7	
307.46	3287.7	
307.67	4231.1	
307.88	5119.2	
308.09	3078.8	
308.29	3140.2	
308.5	4942.4	
308.71	5253.7	
308.92	3269.9	
309.13	2959.3	
309.34	4802.5	
309.55	4748.6	
309.75	3751.9	
309.96	3494.5	
310.17	5141.8	
310.38	4560.1	
310.59	3644.7	
310.8	2900.6	
311.01	4679.6	
311.21	4745.8	
311.42	2970.9	
311.63	3044.6	
311.84	4643.4	
312.05	4870.8	
312.26	3398.3	
312.46	3774.4	
312.67	4724	
312.88	4457.1	
313.09	2959.3	
313.3	2930.6	
313.51	5398.4	
313.71	5672.9	
313.92	3006.4	
314.13	3110.2	
314.34	4990.2	
314.55	4772.4	
314.76	3713	
314.96	3268.6	
315.17	4915.8	
315.38	5141.8	
315.59	3021.4	
315.8	2899.2	
316.01	5494.7	
316.21	5585.5	
316.42	2880.8	
316.63	3287	
316.84	4736.3	
317.05	5323.4	
317.26	3489.7	
317.46	3184.6	
317.67	4786.1	
317.88	5122.7	
318.09	3715.7	
318.3	2790.7	
318.5	4627.7	
318.71	5028.4	
318.92	4659.8	
319.13	3500	
319.34	5283.1	
319.54	5278.3	
319.75	2809.1	
319.96	2693.1	
320.17	5100.8	
320.38	5195.7	
320.58	2749.7	
320.79	3242.6	
321	5291.3	
321.21	5360.9	
321.42	3312.9	
321.62	2749.7	
321.83	4577.2	
322.04	4871.4	
322.25	3131.3	
322.46	3001	
322.66	4944.5	
322.87	5098.1	
323.08	3620.8	
323.29	2966.8	
323.5	5684.5	
323.7	4470	
323.91	3949.8	
324.12	3575.1	
324.33	4928.8	
324.53	5096	
324.74	3437.9	
324.95	3600.3	
325.16	4390.2	
325.37	4691.9	
325.57	3024.8	
325.78	3082.2	
325.99	4938.3	
326.2	4431.8	
326.4	4086.4	
326.61	2775	
326.82	4794.3	
327.03	4902.2	
327.24	4121.9	
327.44	3859.7	
327.65	5047.6	
327.86	4196.3	
328.07	3512.3	
328.27	2925.9	
328.48	5407.3	
328.69	4459.8	
328.9	4218.8	
329.1	3150.5	
329.31	4752.7	
329.52	5455.1	
329.73	3024.2	
329.93	3295.9	
330.14	4878.9	
330.35	4956.8	
330.56	4740.4	
330.76	3605.1	
330.97	4694.6	
331.18	4898.1	
331.39	3290.4	
331.59	2748.4	
331.8	5203.9	
332.01	5368.4	
332.22	3045.3	
332.42	3467.2	
332.63	4917.9	
332.84	4573.8	
333.05	3345.7	
333.25	3026.2	
333.46	4624.3	
333.67	4763.6	
333.88	3144.3	
334.08	3413.3	
334.29	6319.3	
334.5	5327.4	
334.7	2942.2	
334.91	4136.2	
335.12	4460.5	
335.33	5098.1	
335.53	3316.3	
335.74	4679.6	
335.95	4736.3	
336.16	4518.5	
336.36	3276.1	
336.57	3702.7	
336.78	4429.1	
336.98	5276.9	
337.19	3989.4	
337.4	3225.6	
337.61	5683.8	
337.81	4484.4	
338.02	3083.6	
338.23	3842.7	
338.43	5404.6	
338.64	4561.5	
338.85	3057.6	
339.05	3861.1	
339.26	5499.5	
339.47	4401.8	
339.68	2999.6	
339.88	4296.6	
340.09	5055.1	
340.3	5151.3	
340.5	3457.7	
340.71	2755.2	
340.92	4479.6	
341.13	5347.9	
341.33	2852.1	
341.54	3447.4	
341.75	5061.2	
341.95	4699.4	
342.16	3332	
342.37	3584.6	
342.57	4497.3	
342.78	4762.9	
342.99	3702	
343.19	2796.2	
343.4	5133.6	
343.61	5044.1	
343.81	3166.8	
344.02	2943.6	
344.23	5107	
344.43	5429.8	
344.64	3648.8	
344.85	3571.7	
345.06	5038	
345.26	5240.1	
345.47	3461.1	
345.68	3970.3	
345.88	4339	
346.09	5147.2	
346.3	3527.3	
346.5	2672.6	
346.71	4758.1	
346.92	4642.7	
347.12	2878.8	
347.33	3318.4	
347.54	5201.8	
347.74	5515.9	
347.95	3422.2	
348.16	2635.1	
348.36	4675.5	
348.57	4518.5	
348.78	3463.8	
348.98	3639.2	
349.19	4777.2	
349.39	4384	
349.6	2809.8	
349.81	3048.7	
350.01	5046.9	
350.22	4558.8	
350.43	3357.3	
350.63	3913	
350.84	4858.5	
351.05	4624.3	
351.25	3009.1	
351.46	2806.4	
351.67	5263.3	
351.87	4617.5	
352.08	3219.4	
352.29	3607.2	
352.49	5208	
352.7	5160.2	
352.9	2912.9	
353.11	3599.6	
353.32	5629.2	
353.52	4652.3	
353.73	2882.2	
353.94	3620.8	
354.14	5010.7	
354.35	4833.2	
354.55	3000.3	
354.76	3266.5	
354.97	4995.7	
355.17	4831.8	
355.38	2866.5	
355.59	3836.5	
355.79	4554	
356	4822.3	
356.2	3252.2	
356.41	2931.3	
356.62	4444.8	
356.82	4750.6	
357.03	3501.3	
357.24	3197.6	
357.44	4562.2	
357.65	4664.6	
357.85	4149.9	
358.06	3349.8	
358.27	4348.5	
358.47	4494.6	
358.68	2839.8	
358.88	3470.6	
359.09	5003.9	
359.3	5281.7	
359.5	3984	
359.71	3627	
359.91	5555.5	
360.12	5092.6	
360.33	3575.8	
360.53	3867.2	
360.74	4586.8	
360.94	4573.1	
361.15	3644	
361.36	3069.9	
361.56	5175.9	
361.77	4785.4	
361.97	4031.8	
362.18	3218	
362.38	5201.8	
362.59	4448.2	
362.8	3013.9	
363	2911.5	
363.21	4349.2	
363.41	4802.5	
363.62	3414	
363.83	4171.7	
364.03	4951.3	
364.24	5638.7	
364.44	4362.9	
364.65	4221.5	
364.85	4740.4	
365.06	4478.9	
365.27	3102.7	
365.47	3179.1	
365.68	5497.4	
365.88	4697.4	
366.09	3485.6	
366.29	3261.7	
366.5	4903.5	
366.71	5230.5	
366.91	4227.7	
367.12	3625.6	
367.32	5737	
367.53	5132.9	
367.73	3647.4	
367.94	4287.8	
368.14	5122.7	
368.35	5766.4	
368.56	3538.9	
368.76	3074	
368.97	5229.8	
369.17	6388.3	
369.38	3127.2	
369.58	3326.6	
369.79	4380.6	
369.99	5509.7	
370.2	4163.5	
370.4	3416	
370.61	4974.5	
370.82	5950.7	
371.02	3383.9	
371.23	2880.1	
371.43	4371.7	
371.64	5506.3	
371.84	3424.2	
372.05	4299.4	
372.25	6348	
372.46	5182	
372.66	3390.1	
372.87	3406.5	
373.07	5248.3	
373.28	6509.1	
373.48	4194.9	
373.69	3885.7	
373.9	4825.7	
374.1	4836.6	
374.31	4130.1	
374.51	3768.9	
374.72	5446.2	
374.92	4591.5	
375.13	4298	
375.33	3643.3	
375.54	5117.9	
375.74	4781.3	
375.95	3720.5	
376.15	4633.2	
376.36	5195.7	
376.56	5061.2	
376.77	3797.6	
376.97	4056.3	
377.18	6021.7	
377.38	5220.3	
377.59	4294.6	
377.79	3405.8	
378	5130.8	
378.2	5367	
378.41	3465.8	
378.61	3347.1	
378.82	5522	
379.02	4862.6	
379.23	3583.3	
379.43	4388.1	
379.64	5612.8	
379.84	5231.9	
380.05	3426.9	
380.25	3405.8	
380.46	5352	
380.66	4948.6	
380.87	4455.7	
381.07	4681.7	
381.28	5828.5	
381.48	5269.4	
381.69	3461.7	
381.89	3487.7	
382.1	4500.8	
382.3	5416.2	
382.51	4247.5	
382.71	4951.3	
382.91	5240.1	
383.12	5717.9	
383.32	3722.5	
383.53	3842.7	
383.73	5154.7	
383.94	5052.3	
384.14	3872.7	
384.35	3116.3	
384.55	4909.7	
384.76	5243.5	
384.96	3719.8	
385.17	3927.3	
385.37	5302.9	
385.58	4721.9	
385.78	3906.2	
385.98	3066.5	
386.19	4851	
386.39	5202.5	
386.6	3507.5	
386.8	3624.9	
387.01	5202.5	
387.21	5236	
387.42	3957.4	
387.62	4431.1	
387.83	4770.4	
388.03	5104.9	
388.23	3754.6	
388.44	4276.2	
388.64	4473.4	
388.85	4526	
389.05	3948.5	
389.26	4419.5	
389.46	6126.2	
389.67	5638.1	
389.87	4007.2	
390.07	4003.8	
390.28	4944.5	
390.48	4659.1	
390.69	3323.2	
390.89	3599.6	
391.1	4871.4	
391.3	5517.9	
391.5	4474.1	
391.71	4988.2	
391.91	5354.1	
392.12	6032	
392.32	4634.6	
392.53	3945.1	
392.73	4922	
392.93	5017.5	
393.14	3719.8	
393.34	4562.2	
393.55	5339.7	
393.75	4988.9	
393.95	3754.6	
394.16	3669.3	
394.36	4840	
394.57	5321.3	
394.77	3325.2	
394.98	3597.6	
395.18	4796.3	
395.38	4949.3	
395.59	4325.3	
395.79	3499.3	
396	4901.5	
396.2	5255.8	
396.4	4172.4	
396.61	4091.8	
396.81	5417.6	
397.02	4870.1	
397.22	4392.9	
397.42	4456.4	
397.63	5469.4	
397.83	4812	
398.04	3517	
398.24	3934.8	
398.44	5273.5	
398.65	4464.6	
398.85	3411.9	
399.05	3499.3	
399.26	4820.2	
399.46	6125.5	
399.67	3773	
399.87	3559.4	
400.07	5154.7	
400.28	5360.9	
400.48	3661.8	
400.69	4412.7	
400.89	5926.1	
401.09	5880.4	
401.3	3588.7	
401.5	4455.7	
401.7	6041.5	
401.91	6221	
402.11	3844.7	
402.32	4047.5	
402.52	5593.7	
402.72	5528.8	
402.93	4258.4	
403.13	3303.4	
403.33	6151.4	
403.54	5096	
403.74	3910.3	
403.94	4547.9	
404.15	5142.4	
404.35	6024.4	
404.56	3721.8	
404.76	5141.8	
404.96	5524.1	
405.17	5272.8	
405.37	4369.7	
405.57	4095.9	
405.78	5544.5	
405.98	5088.5	
406.18	3756.7	
406.39	4450.2	
406.59	5543.9	
406.79	5114.5	
407	3570.3	
407.2	3607.2	
407.4	5522.7	
407.61	5655.1	
407.81	3664.5	
408.01	5106.3	
408.22	4727.4	
408.42	6245.6	
408.62	4571.7	
408.83	4059.1	
409.03	5193.6	
409.23	5071.5	
409.44	4155.3	
409.64	4299.4	
409.84	5937.1	
410.05	5871.5	
410.25	4206.5	
410.45	4047.5	
410.66	5492.7	
410.86	7430	
411.06	4492.6	
411.27	4316.4	
411.47	7183.6	
411.67	5552.7	
411.88	4565.6	
412.08	4672.1	
412.28	6105	
412.49	6447	
412.69	4319.2	
412.89	4300.7	
413.09	6338.5	
413.3	6264.1	
413.5	4386.7	
413.7	4148.5	
413.91	5699.5	
414.11	6322.1	
414.31	4274.1	
414.52	4588.8	
414.72	6133.7	
414.92	6004.6	
415.12	4203.1	
415.33	4719.2	
415.53	6292	
415.73	6434	
415.94	4949.9	
416.14	4494.6	
416.34	5502.2	
416.55	5315.8	
416.75	5431.2	
416.95	4971.8	
417.15	6291.4	
417.36	6817.7	
417.56	5623.7	
417.76	4848.2	
417.97	6614.3	
418.17	6319.3	
418.37	4579.9	
418.57	4564.9	
418.78	6236.7	
418.98	5884.5	
419.18	5298.1	
419.38	5202.5	
419.59	5897.5	
419.79	5607.3	
419.99	4419.5	
420.2	4747.2	
420.4	6344.6	
420.6	6395.1	
420.8	4367	
421.01	4221.5	
421.21	6138.4	
421.41	6312.5	
421.61	4666.6	
421.82	4420.2	
422.02	5830.6	
422.22	6544.6	
422.42	5056.4	
422.63	4782.7	
422.83	5855.1	
423.03	6823.1	
423.23	4825	
423.44	3991.5	
423.64	5923.4	
423.84	5665.4	
424.04	4379.9	
424.25	4058.4	
424.45	6610.2	
424.65	6527.6	
424.85	3981.3	
425.06	4364.2	
425.26	6643.6	
425.46	5709.1	
425.66	4718.5	
425.87	4473.4	
426.07	6384.2	
426.27	6163.7	
426.47	4603.2	
426.67	4104.1	
426.88	6636.1	
427.08	6169.2	
427.28	4823.6	
427.48	4035.2	
427.69	5432.6	
427.89	5791.7	
428.09	4777.2	
428.29	4039.3	
428.5	6363.7	
428.7	5970.5	
428.9	4015.4	
429.1	4351.3	
429.3	5988.9	
429.51	6209.4	
429.71	4190.1	
429.91	4879.6	
430.11	6238.8	
430.31	6374	
430.52	4507.6	
430.72	4643.4	
430.92	6591.7	
431.12	6185.5	
431.32	4214.7	
431.53	4532.2	
431.73	5339.1	
431.93	6670.9	
432.13	4203.1	
432.33	4042.7	
432.54	5678.3	
432.74	5965.1	
432.94	3934.8	
433.14	4850.3	
433.34	6194.4	
433.55	5829.2	
433.75	4724	
433.95	6081.8	
434.15	5978	
434.35	5717.2	
434.56	4164.2	
434.76	3694.5	
434.96	5918.6	
435.16	6122.7	
435.36	4033.1	
435.56	4975.2	
435.77	5627.1	
435.97	5731.6	
436.17	5433.9	
436.37	4807.3	
436.57	5603.2	
436.78	5588.9	
436.98	4810	
437.18	5281.7	
437.38	6109.1	
437.58	5754.8	
437.78	5435.3	
437.99	4403.8	
438.19	6199.9	
438.39	6762.4	
438.59	4306.2	
438.79	3865.9	
438.99	6712.6	
439.2	5737.7	
439.4	3964.9	
439.6	3941.7	
439.8	5946.6	
440	6728.9	
440.2	4858.5	
440.4	4848.2	
440.61	6236.7	
440.81	6738.5	
441.01	4191.5	
441.21	4844.1	
441.41	6581.5	
441.61	6280.4	
441.81	5034.6	
442.02	5842.9	
442.22	6997.9	
442.42	6355.5	
442.62	4195.6	
442.82	4245.4	
443.02	6701	
443.22	5863.3	
443.43	4510.3	
443.63	4104.1	
443.83	5763	
444.03	5768.4	
444.23	5131.5	
444.43	4760.2	
444.63	6001.2	
444.83	6948.1	
445.04	4293.9	
445.24	5283.1	
445.44	6324.1	
445.64	6353.5	
445.84	4894	
446.04	4817.5	
446.24	5775.3	
446.44	6621.8	
446.65	4208.6	
446.85	4494.6	
447.05	6120	
447.25	6558.3	
447.45	4644.8	
447.65	4093.9	
447.85	6096.1	
448.05	5745.9	
448.25	4889.9	
448.46	4733.5	
448.66	5997.8	
448.86	5808.7	
449.06	4020.8	
449.26	4889.9	
449.46	6307.1	
449.66	5492.7	
449.86	4462.5	
450.06	4401.8	
450.26	5721.3	
450.47	6079.7	
450.67	4680.3	
450.87	4999.8	
451.07	6305.7	
451.27	6008.7	
451.47	4233.2	
451.67	4544.4	
451.87	5757.5	
452.07	6721.4	
452.27	4240	
452.47	4358.8	
452.67	6052.4	
452.88	6349.4	
453.08	3837.9	
453.28	5353.4	
453.48	6922.8	
453.68	5894.1	
453.88	4248.2	
454.08	4459.8	
454.28	6227.9	
454.48	5982.1	
454.68	4780	
454.88	5230.5	
455.08	6367.8	
455.28	6109.1	
455.48	4156	
455.68	4584.7	
455.89	6806.8	
456.09	6410.8	
456.29	4364.2	
456.49	4451.6	
456.69	6582.2	
456.89	5917.3	
457.09	4697.4	
457.29	5064.6	
457.49	6254.5	
457.69	6331.6	
457.89	4624.3	
458.09	4131.4	
458.29	6056.5	
458.49	6618.4	
458.69	4902.8	
458.89	4415.4	
459.09	6787.7	
459.29	6795.2	
459.49	4610	
459.69	5154.7	
459.9	6425.8	
460.1	5963	
460.3	4498	
460.5	4229.1	
460.7	6337.8	
460.9	6094.8	
461.1	4063.2	
461.3	5005.2	
461.5	6895.5	
461.7	6501.6	
461.9	4377.9	
462.1	4724.7	
462.3	6117.3	
462.5	6585.6	
462.7	4422.9	
462.9	4481.6	
463.1	7419.1	
463.3	7052.5	
463.5	4622.3	
463.7	5272.8	
463.9	6290	
464.1	6567.8	
464.3	4663.9	
464.5	4873.5	
464.7	6782.9	
464.9	6477	
465.1	5865.4	
465.3	5082.4	
465.5	7108.5	
465.7	7002.7	
465.9	5276.9	
466.1	5193.6	
466.3	6827.2	
466.5	6787	
466.7	5840.1	
466.9	5044.1	
467.1	6709.1	
467.3	7326.9	
467.5	5737	
467.7	4841.4	
467.9	7565.2	
468.1	8232.2	
468.3	5511.1	
468.5	5830.6	
468.7	6597.2	
468.9	6599.2	
469.1	5175.2	
469.3	5657.2	
469.5	8115.4	
469.7	6315.3	
469.9	5453.1	
470.1	4900.8	
470.3	6695.5	
470.5	6681.2	
470.7	5908.4	
470.9	4992.9	
471.1	6453.1	
471.3	6832	
471.5	4866	
471.69	6343.9	
471.89	6424.5	
472.09	6029.2	
472.29	5451.7	
472.49	5668.1	
472.69	6157.6	
472.89	6812.9	
473.09	4789.5	
473.29	4987.5	
473.49	6305.7	
473.69	6288.6	
473.89	5563	
474.09	5018.9	
474.29	7409.6	
474.49	7174.7	
474.69	5593.7	
474.89	5071.5	
475.09	6451.1	
475.29	6410.1	
475.49	4700.1	
475.69	4860.5	
475.88	7726.3	
476.08	6722.8	
476.28	4584	
476.48	4930.8	
476.68	7040.2	
476.88	6864.1	
477.08	4934.2	
477.28	5165	
477.48	6530.3	
477.68	7018.4	
477.88	4701.5	
478.08	4965	
478.28	7246.4	
478.48	6583.5	
478.67	5043.5	
478.87	4584.7	
479.07	7062.1	
479.27	6709.1	
479.47	5117.9	
479.67	5141.8	
479.87	6931.7	
480.07	7270.3	
480.27	4586.8	
480.47	5793.7	
480.67	6616.3	
480.87	7080.5	
481.06	4857.8	
481.26	5418.9	
481.46	6576	
481.66	6543.3	
481.86	5234.6	
482.06	5891.3	
482.26	6465.4	
482.46	6953.5	
482.66	5062.6	
482.86	4713.7	
483.05	6748.7	
483.25	6193.1	
483.45	6937.8	
483.65	5094	
483.85	6150.7	
484.05	6438.1	
484.25	5456.5	
484.45	5659.2	
484.65	7144	
484.84	7206.1	
485.04	4956.1	
485.24	4986.8	
485.44	7392.5	
485.64	6102.9	
485.84	4478.9	
486.04	5415.5	
486.24	6381.5	
486.44	6621.8	
486.63	4401.8	
486.83	5071.5	
487.03	6259.3	
487.23	6455.9	
487.43	4400.4	
487.63	6158.9	
487.83	6455.2	
488.02	7115.3	
488.22	5233.2	
488.42	5603.2	
488.62	7169.9	
488.82	6251.1	
489.02	4926.7	
489.22	4904.9	
489.41	7018.4	
489.61	6748.1	
489.81	4713.1	
490.01	4750.6	
490.21	6946.7	
490.41	7544	
490.61	4602.5	
490.8	4778.6	
491	6548.7	
491.2	6102.9	
491.4	5218.9	
491.6	4616.8	
491.8	6580.8	
491.99	6619	
492.19	4416.8	
492.39	4674.8	
492.59	6922.1	
492.79	6990.4	
492.99	5338.4	
493.18	4647.5	
493.38	7115.3	
493.58	7554.3	
493.78	5196.4	
493.98	4816.1	
494.18	6779.5	
494.37	6363.7	
494.57	5387.5	
494.77	5237.3	
494.97	6927.6	
495.17	7114	
495.37	4992.3	
495.56	5172.5	
495.76	7239.6	
495.96	6935.8	
496.16	5866.7	
496.36	5011.4	
496.55	7148.8	
496.75	6634.7	
496.95	5349.3	
497.15	5165.7	
497.35	7082.6	
497.54	7018.4	
497.74	5103.5	
497.94	6566.5	
498.14	7618.4	
498.34	7388.4	
498.53	4876.2	
498.73	5427.1	
498.93	6468.2	
499.13	6840.2	
499.33	5267.4	
499.52	5770.5	
499.72	6970.6	
499.92	7164.5	
500.12	5025	
500.32	5251	
500.51	7179.5	
500.71	6943.3	
500.91	5804.6	
501.11	5508.4	
501.31	7086.7	
501.5	7499.7	
501.7	6012.2	
501.9	5225.1	
502.1	6963.8	
502.29	7175.4	
502.49	5586.2	
502.69	5913.2	
502.89	7128.3	
503.09	7119.4	
503.28	4909	
503.48	4982	
503.68	6535.1	
503.88	6498.2	
504.07	5702.2	
504.27	5326.8	
504.47	6865.5	
504.67	6980.8	
504.86	5670.8	
505.06	5326.8	
505.26	6785.6	
505.46	8043.7	
505.65	5308.3	
505.85	5515.2	
506.05	6627.2	
506.25	7043	
506.44	4883.7	
506.64	5504.3	
506.84	6496.8	
507.04	7219.1	
507.23	5025	
507.43	5480.4	
507.63	8024.6	
507.83	6659.3	
508.02	5451.7	
508.22	5100.1	
508.42	8266.3	
508.62	6454.5	
508.81	5292.6	
509.01	5732.3	
509.21	6484.6	
509.4	6600.6	
509.6	5471.5	
509.8	4943.8	
510	6619.7	
510.19	7685.3	
510.39	4921.3	
510.59	5063.3	
510.79	6513.9	
510.98	7509.9	
511.18	5084.4	
511.38	5122.7	
511.57	7193.8	
511.77	6877.1	
511.97	5640.8	
512.17	5022.3	
512.36	7053.9	
512.56	6995.2	
512.76	4920.6	
512.95	4726	
513.15	7245	
513.35	6037.4	
513.55	5611.4	
513.74	4941.1	
513.94	7115.3	
514.14	6698.2	
514.33	5735	
514.53	5475.6	
514.73	6612.2	
514.92	6802.7	
515.12	4968.4	
515.32	4917.9	
515.51	6814.3	
515.71	7139.2	
515.91	6244.9	
516.11	4837.3	
516.3	8051.9	
516.5	6452.5	
516.7	5343.2	
516.89	5769.1	
517.09	6595.1	
517.29	6494.8	
517.48	5546.6	
517.68	5119.9	
517.88	6331	
518.07	6827.9	
518.27	5488.6	
518.47	4702.1	
518.66	7291.5	
518.86	6242.2	
519.06	4613.4	
519.25	5033.9	
519.45	6485.9	
519.65	7601.4	
519.84	5638.1	
520.04	6001.2	
520.24	7918.8	
520.43	6946.7	
520.63	5353.4	
520.83	5048.9	
521.02	6367.1	
521.22	6924.9	
521.42	5483.1	
521.61	5842.2	
521.81	6552.1	
522.01	6724.2	
522.2	5371.8	
522.4	5139.7	
522.6	7064.8	
522.79	6031.3	
522.99	5208	
523.18	4627.7	
523.38	6852.5	
523.58	6696.2	
523.77	6152.1	
523.97	4647.5	
524.17	8192.6	
524.36	7515.4	
524.56	5631.2	
524.76	5475.6	
524.95	6698.9	
525.15	6519.4	
525.34	5199.8	
525.54	5216.9	
525.74	6959	
525.93	6253.8	
526.13	6070.2	
526.33	5162.2	
526.52	7220.5	
526.72	6841.6	
526.91	6148.7	
527.11	5489.2	
527.31	7189.1	
527.5	7498.3	
527.7	5472.9	
527.89	4713.1	
528.09	6445.6	
528.29	6769.9	
528.48	5768.4	
528.68	5444.2	
528.87	7178.8	
529.07	7174.7	
529.27	5412.1	
529.46	4995.7	
529.66	6898.2	
529.85	7124.2	
530.05	4988.9	
530.25	5479	
530.44	7884	
530.64	6724.2	
530.83	5244.8	
531.03	5388.2	
531.23	7228.6	
531.42	7055.3	
531.62	5979.4	
531.81	5350	
532.01	7279.2	
532.21	7475.1	
532.4	5140.4	
532.6	5337	
532.79	7873.8	
532.99	7157.7	
533.18	5403.2	
533.38	6180.1	
533.58	6843.6	
533.77	7380.9	
533.97	5374.6	
534.16	5994.4	
534.36	7568.6	
534.55	6791.7	
534.75	6092.7	
534.95	5489.9	
535.14	7554.3	
535.34	6830	
535.53	5158.2	
535.73	6622.4	
535.92	7980.9	
536.12	6863.4	
536.31	5319.9	
536.51	6126.8	
536.71	7264.8	
536.9	6924.9	
537.1	5339.1	
537.29	5487.2	
537.49	7625.3	
537.68	6780.1	
537.88	5743.2	
538.07	5132.2	
538.27	7073.7	
538.46	7802.1	
538.66	5010.7	
538.86	5410.1	
539.05	7035.5	
539.25	7445	
539.44	5681.1	
539.64	5328.8	
539.83	6888.7	
540.03	7653.3	
540.22	5282.4	
540.42	5354.8	
540.61	7181.5	
540.81	7137.9	
541	5754.1	
541.2	6185.5	
541.39	6745.3	
541.59	7082.6	
541.78	5913.2	
541.98	5258.5	
542.18	6542.6	
542.37	6494.1	
542.57	5586.9	
542.76	5850.4	
542.96	6699.6	
543.15	7127.6	
543.35	5627.1	
543.54	5115.8	
543.74	7253.9	
543.93	7064.8	
544.13	5610.8	
544.32	6395.8	
544.52	7258	
544.71	6678.4	
544.91	4863.9	
545.1	5771.9	
545.3	6689.3	
545.49	7094.8	
545.69	4859.1	
545.88	5356.8	
546.08	7920.2	
546.27	7538.6	
546.47	5651.7	
546.66	5203.9	
546.86	7364.5	
547.05	7774.8	
547.24	5310.4	
547.44	5254.4	
547.63	6614.3	
547.83	7430	
548.02	5539.8	
548.22	5670.1	
548.41	6468.2	
548.61	7473.7	
548.8	5124	
549	5120.6	
549.19	6993.8	
549.39	7227.3	
549.58	4965.6	
549.78	5362.9	
549.97	7221.1	
550.17	6898.2	
550.36	6027.2	
550.55	6782.2	
550.75	6920.1	
550.94	7554.3	
551.14	5109	
551.33	5489.9	
551.53	6376	
551.72	7114	
551.92	5394.3	
552.11	5290.6	
552.31	7195.9	
552.5	7027.3	
552.69	6560.3	
552.89	4980.7	
553.08	7095.5	
553.28	6884.6	
553.47	5268.7	
553.67	6164.4	
553.86	7674.4	
554.06	6298.2	
554.25	4621.6	
554.44	5046.9	
554.64	8269	
554.83	7838.3	
555.03	4997	
555.22	5431.2	
555.42	7306.5	
555.61	7030	
555.8	5266	
556	5423	
556.19	6386.2	
556.39	7375.4	
556.58	5288.5	
556.78	5271.5	
556.97	7041.6	
557.16	6670.2	
557.36	6222.4	
557.55	4990.2	
557.75	6169.2	
557.94	7579.5	
558.13	5072.1	
558.33	4865.3	
558.52	7390.4	
558.72	6449.7	
558.91	5011.4	
559.1	5142.4	
559.3	6268.8	
559.49	6076.3	
559.69	4612.7	
559.88	5355.4	
560.07	6963.8	
560.27	7309.2	
560.46	5608	
560.66	5686.5	
560.85	6794.5	
561.04	6179.4	
561.24	4881.7	
561.43	5099.4	
561.63	6412.2	
561.82	6563.7	
562.01	6040.1	
562.21	5266.7	
562.4	6947.4	
562.59	7561.8	
562.79	5272.2	
562.98	4886.5	
563.18	6802	
563.37	7965.9	
563.56	5517.9	
563.76	4885.1	
563.95	6409.5	
564.14	6440.9	
564.34	5193.6	
564.53	4990.2	
564.73	6837.5	
564.92	6997.9	
565.11	5357.5	
565.31	4732.2	
565.5	7269.6	
565.69	6344.6	
565.89	4979.3	
566.08	5191.6	
566.27	7149.5	
566.47	7408.2	
566.66	5723.4	
566.85	4619.5	
567.05	6901	
567.24	6355.5	
567.44	4935.6	
567.63	5939.1	
567.82	7063.4	
568.02	6746.7	
568.21	4967.7	
568.4	5201.2	
568.6	6720.1	
568.79	6584.2	
568.98	4840	
569.18	4852.3	
569.37	6638.1	
569.56	8177.5	
569.76	5253	
569.95	5939.8	
570.14	6975.4	
570.34	6832	
570.53	4786.8	
570.72	4779.3	
570.91	7314.7	
571.11	6640.9	
571.3	5233.2	
571.49	5875.6	
571.69	6722.1	
571.88	6393.1	
572.07	5592.3	
572.27	5628.5	
572.46	6318.7	
572.65	7135.1	
572.85	5040.7	
573.04	5213.4	
573.23	7290.8	
573.43	6756.9	
573.62	4861.9	
573.81	5257.8	
574	6750.1	
574.2	6552.1	
574.39	5124.7	
574.58	5164.3	
574.78	7394.5	
574.97	6808.1	
575.16	5427.8	
575.36	5526.1	
575.55	7170.6	
575.74	7247.8	
575.93	4762.2	
576.13	5603.2	
576.32	6640.2	
576.51	7067.5	
576.71	5100.1	
576.9	6156.9	
577.09	7384.3	
577.28	6941.2	
577.48	5389.6	
577.67	4672.8	
577.86	6681.2	
578.05	6920.8	
578.25	5204.6	
578.44	5258.5	
578.63	6791.7	
578.83	7658.7	
579.02	4839.4	
579.21	5909.1	
579.4	6939.2	
579.6	6673.6	
579.79	5342.5	
579.98	6947.4	
580.17	7148.1	
580.37	7238.9	
580.56	4949.3	
580.75	5416.9	
580.94	7478.5	
581.14	7492.2	
581.33	5797.8	
581.52	5018.2	
581.71	6970.6	
581.91	7596.6	
582.1	4828.4	
582.29	5176.6	
582.48	6759.7	
582.68	6668.2	
582.87	5658.5	
583.06	5362.9	
583.25	7077.8	
583.45	6497.5	
583.64	5720.7	
583.83	6240.2	
584.02	6683.9	
584.21	6976.7	
584.41	5760.9	
584.6	5257.8	
584.79	6785.6	
584.98	7172	
585.18	4869.4	
585.37	4819.6	
585.56	6447	
585.75	7002.7	
585.94	5049.6	
586.14	5582.8	
586.33	7509.9	
586.52	6770.6	
586.71	5394.3	
586.91	5249.6	
587.1	6413.6	
587.29	7165.8	
587.48	5184.8	
587.67	5081.7	
587.87	6969.9	
588.06	7014.3	
588.25	6149.4	
588.44	5597.1	
588.63	6737.1	
588.83	7234.1	
589.02	5253.7	
589.21	5104.2	
589.4	6720.8	
589.59	6628.6	
589.78	4601.8	
589.98	4845.5	
590.17	6287.3	
590.36	6694.1	
590.55	4403.8	
590.74	5077.6	
590.94	7736.5	
591.13	6683.2	
591.32	4898.7	
591.51	4555.4	
591.7	7049.8	
591.89	6602.7	
592.09	4649.6	
592.28	4974.5	
592.47	5986.2	
592.66	7497.6	
592.85	4612.7	
593.05	4832.5	
593.24	6508.4	
593.43	7180.2	
593.62	4813.4	
593.81	5182.7	
594	6621.1	
594.19	6649.1	
594.39	4756.1	
594.58	4693.3	
594.77	6810.2	
594.96	7222.5	
595.15	4724.7	
595.34	5153.4	
595.54	6750.1	
595.73	6113.2	
595.92	4274.8	
596.11	5133.6	
596.3	7220.5	
596.49	6232	
596.68	4975.9	
596.88	5271.5	
597.07	6967.2	
597.26	6045.6	
597.45	4545.8	
597.64	5459.2	
597.83	6196.5	
598.02	6692.1	
598.22	4588.8	
598.41	5154.1	
598.6	6587.6	
598.79	6155.5	
598.98	4711	
599.17	5367	
599.36	6565.8	
599.55	7394.5	
599.74	6225.8	
599.94	6025.8	
600.13	6960.4	
600.32	6068.1	
600.51	4422.2	
600.7	4531.5	
600.89	7509.2	
601.08	7522.2	
601.27	4409.3	
601.47	5112.4	
601.66	6912.6	
601.85	7314	
602.04	4959.5	
602.23	4897.4	
602.42	6164.4	
602.61	6690.7	
602.8	4859.8	
602.99	4635.2	
603.18	6433.4	
603.37	6595.8	
603.57	5160.2	
603.76	5549.3	
603.95	7205.4	
604.14	6808.1	
604.33	4791.6	
604.52	4900.8	
604.71	6708.5	
604.9	6265.4	
605.09	5339.7	
605.28	5229.1	
605.47	7075	
605.66	6744	
605.86	5192.3	
606.05	4709.6	
606.24	7122.8	
606.43	5862	
606.62	4930.1	
606.81	5575.9	
607	6974	
607.19	6404	
607.38	4534.2	
607.57	4728.8	
607.76	6238.1	
607.95	5775.3	
608.14	5027.1	
608.33	5534.3	
608.52	6272.2	
608.72	6890.7	
608.91	4463.2	
609.1	4382	
609.29	6309.8	
609.48	5956.2	
609.67	5128.8	
609.86	4526	
610.05	6013.5	
610.24	6233.3	
610.43	4386.1	
610.62	4063.9	
610.81	7211.6	
611	6978.1	
611.19	4566.3	
611.38	5059.2	
611.57	6537.1	
611.76	7448.5	
611.95	4346.5	
612.14	4231.1	
612.33	6354.8	
612.52	6033.3	
612.71	4764.9	
612.9	4091.8	
613.09	5743.2	
613.28	7505.1	
613.47	4640	
613.66	5183.4	
613.85	6449.7	
614.04	6086.6	
614.24	4558.1	
614.43	3967.6	
614.62	6580.8	
614.81	6448.4	
615	4995	
615.19	5008.6	
615.38	5956.2	
615.57	6332.3	
615.76	4851	
615.95	5647.6	
616.14	6706.4	
616.33	6331	
616.52	5145.9	
616.71	5205.3	
616.9	6443.6	
617.09	6440.2	
617.28	4681	
617.47	5517.9	
617.66	5937.7	
617.85	5836	
618.04	5296.7	
618.22	4835.9	
618.41	6184.2	
618.6	6768.5	
618.79	4796.3	
618.98	4582	
619.17	7034.8	
619.36	5741.1	
619.55	4671.4	
619.74	4726	
619.93	6447.7	
620.12	5938.4	
620.31	5111.7	
620.5	5236	
620.69	6838.2	
620.88	7158.3	
621.07	5763.7	
621.26	5082.4	
621.45	6531.7	
621.64	6561.7	
621.83	5138.4	
622.02	4462.5	
622.21	6660.7	
622.4	6433.4	
622.59	5434.6	
622.78	5384.1	
622.97	6097.5	
623.16	6855.9	
623.35	5125.4	
623.54	4358.1	
623.72	6275	
623.91	6371.9	
624.1	5212.1	
624.29	4279.6	
624.48	7205.4	
624.67	6712.6	
624.86	5225.1	
625.05	4449.6	
625.24	7291.5	
625.43	6068.1	
625.62	6402.6	
625.81	4638.6	
626	6848.4	
626.19	6229.9	
626.38	5196.4	
626.56	4854.4	
626.75	6106.4	
626.94	6713.9	
627.13	5302.2	
627.32	4248.9	
627.51	6664.8	
627.7	7521.5	
627.89	4364.2	
628.08	5307	
628.27	6030.6	
628.46	6268.8	
628.65	4599.7	
628.83	4304.8	
629.02	6711.9	
629.21	6100.2	
629.4	4862.6	
629.59	5117.2	
629.78	6027.2	
629.97	6771.9	
630.16	5051.7	
630.35	4686.4	
630.54	7180.9	
630.72	6997.9	
630.91	4688.5	
631.1	5174.5	
631.29	6438.1	
631.48	6548	
631.67	5191.6	
631.86	4772.4	
632.05	6245.6	
632.24	6319.3	
632.42	4607.2	
632.61	5022.3	
632.8	6335.1	
632.99	6008.1	
633.18	5010	
633.37	5357.5	
633.56	6492.7	
633.75	6361	
633.93	5090.6	
634.12	4799.1	
634.31	7123.5	
634.5	6772.6	
634.69	4767.7	
634.88	5188.9	
635.07	6374	
635.25	6827.2	
635.44	5473.5	
635.63	5595.7	
635.82	6224.5	
636.01	5735	
636.2	5455.1	
636.39	5089.2	
636.57	7082.6	
636.76	6748.7	
636.95	4639.3	
637.14	5745.9	
637.33	6598.6	
637.52	7296.9	
637.7	4512.4	
637.89	5275.6	
638.08	6274.3	
638.27	7342	
638.46	5270.8	
638.65	5613.5	
638.83	7402	
639.02	6197.2	
639.21	5270.1	
639.4	5527.5	
639.59	6498.2	
639.78	6221.7	
639.96	4655	
640.15	4693.3	
640.34	6405.4	
640.53	6456.6	
640.72	4534.9	
640.91	4718.5	
641.09	5993	
641.28	6963.1	
641.47	4814.8	
641.66	5355.4	
641.85	6541.2	
642.03	6724.2	
642.22	5205.3	
642.41	4888.5	
642.6	6090.7	
642.79	5656.5	
642.97	4698.7	
643.16	5192.3	
643.35	6066.8	
643.54	5957.5	
643.73	4672.8	
643.91	5205.9	
644.1	5854.5	
644.29	6298.9	
644.48	4683	
644.67	4780.6	
644.85	5962.3	
645.04	6269.5	
645.23	4444.8	
645.42	4640.7	
645.6	6050.4	
645.79	6827.9	
645.98	4665.3	
646.17	3980.6	
646.36	5786.9	
646.54	6244.3	
646.73	5284.4	
646.92	4374.5	
647.11	5928.9	
647.29	6721.4	
647.48	4413.4	
647.67	4286.4	
647.86	6967.2	
648.05	6828.6	
648.23	4672.8	
648.42	5677	
648.61	6483.9	
648.8	6275	
648.98	4452.3	
649.17	4680.3	
649.36	5959.6	
649.55	5483.1	
649.73	4403.1	
649.92	4960.9	
650.11	5796.4	
650.3	6141.2	
650.48	4555.4	
650.67	4421.6	
650.86	6344.6	
651.05	5541.8	
651.23	4486.4	
651.42	4511.7	
651.61	5988.3	
651.79	5929.6	
651.98	4645.5	
652.17	4360.8	
652.36	6247.7	
652.54	5473.5	
652.73	4378.6	
652.92	4283	
653.11	6324.8	
653.29	6298.9	
653.48	3949.8	
653.67	4667.3	
653.85	6077	
654.04	6890.7	
654.23	4805.2	
654.42	4451.6	
654.6	5776	
654.79	6282.5	
654.98	4133.5	
655.16	4567	
655.35	5593.7	
655.54	5369.1	
655.73	4162.8	
655.91	4073.4	
656.1	6301.6	
656.29	5365.7	
656.47	3768.3	
656.66	5138.4	
656.85	5684.5	
657.03	5622.4	
657.22	4180.6	
657.41	4252.3	
657.59	5700.2	
657.78	5476.3	
657.97	3922.5	
658.16	4526	
658.34	6247.7	
658.53	6492.1	
658.72	5215.5	
658.9	5509	
659.09	5844.2	
659.28	5859.9	
659.46	4351.3	
659.65	4225	
659.84	5579.3	
660.02	6042.9	
660.21	4297.3	
660.4	4084.3	
660.58	6296.8	
660.77	5860.6	
660.96	4678.2	
661.14	3881.6	
661.33	6759	
661.52	6679.8	
661.7	3829.7	
661.89	6517.3	
662.08	5555.5	
662.26	5186.8	
662.45	4089.1	
662.64	4192.2	
662.82	6113.9	
663.01	5422.3	
663.2	4220.2	
663.38	4802.5	
663.57	6078.4	
663.75	5887.2	
663.94	4379.9	
664.13	5404.6	
664.31	5522	
664.5	6109.8	
664.69	4612	
664.87	4918.5	
665.06	5356.1	
665.25	5849	
665.43	5261.9	
665.62	5270.1	
665.8	6165.1	
665.99	5715.2	
666.18	4444.1	
666.36	4506.9	
666.55	6114.6	
666.74	6047	
666.92	4163.5	
667.11	5407.3	
667.29	5684.5	
667.48	6085.2	
667.67	5113.8	
667.85	4364.2	
668.04	5637.4	
668.22	5646.2	
668.41	4543.1	
668.6	4681	
668.78	5503.6	
668.97	5717.9	
669.15	4799.8	
669.34	4041.3	
669.53	5554.1	
669.71	5777.3	
669.9	4075.5	
670.08	4631.1	
670.27	5511.8	
670.46	6012.8	
670.64	4784.1	
670.83	4958.1	
671.01	5403.9	
671.2	5886.5	
671.38	4197.7	
671.57	4138.9	
671.76	6350.8	
671.94	6792.4	
672.13	4012.7	
672.31	4848.9	
672.5	6113.9	
672.69	5579.3	
672.87	4174.4	
673.06	4407.2	
673.24	5890	
673.43	5556.8	
673.61	4732.2	
673.8	4425.7	
673.98	6001.2	
674.17	6238.1	
674.36	4868.7	
674.54	4729.4	
674.73	5830.6	
674.91	6104.3	
675.1	4508.9	
675.28	4237.9	
675.47	5717.9	
675.65	6075	
675.84	4380.6	
676.03	4626.4	
676.21	5631.2	
676.4	5119.9	
676.58	5046.2	
676.77	4796.3	
676.95	6774	
677.14	5509	
677.32	4074.8	
677.51	3977.8	
677.69	6136.4	
677.88	5302.2	
678.06	4042	
678.25	4204.5	
678.44	5776.6	
678.62	5509.7	
678.81	3943.7	
678.99	4600.4	
679.18	6375.3	
679.36	5972.6	
679.55	4380.6	
679.73	4767.7	
679.92	5967.1	
680.1	5522	
680.29	5219.6	
680.47	4319.8	
680.66	5559.6	
680.84	6167.8	
681.03	3835.8	
681.21	4698.7	
681.4	5513.1	
681.58	5446.9	
681.77	4251.6	
681.95	4138.3	
682.14	6264.1	
682.32	6466.1	
682.51	4959.5	
682.69	3944.4	
682.88	5538.4	
683.06	5997.1	
683.25	4616.1	
683.43	4962.9	
683.62	5791.7	
683.8	6085.2	
683.99	5052.3	
684.17	4503.5	
684.36	6704.4	
684.54	5653.1	
684.73	3984.7	
684.91	4104.1	
685.1	5950	
685.28	5574.6	
685.46	4597.7	
685.65	4693.3	
685.83	6152.8	
686.02	5649.7	
686.2	4163.5	
686.39	4270.7	
686.57	5351.3	
686.76	6523.5	
686.94	4153.3	
687.13	4347.2	
687.31	5947.3	
687.5	5689.3	
687.68	3878.9	
687.86	4807.3	
688.05	6920.8	
688.23	5190.9	
688.42	4841.4	
688.6	4217.5	
688.79	5487.9	
688.97	5567.7	
689.16	4524	
689.34	3675.4	
689.52	6143.9	
689.71	6343.9	
689.89	4724.7	
690.08	4212.7	
690.26	5773.9	
690.45	5675.6	
690.63	4870.1	
690.81	4305.5	
691	5680.4	
691.18	5519.3	
691.37	4450.9	
691.55	6140.5	
691.74	5467.4	
691.92	7073.7	
692.1	4439.3	
692.29	3994.2	
692.47	5694	
692.66	5160.9	
692.84	4218.8	
693.02	4607.2	
693.21	5219.6	
693.39	5692	
693.58	4676.2	
693.76	4177.9	
693.94	6544.6	
694.13	6244.3	
694.31	4229.1	
694.5	4967.7	
694.68	5414.8	
694.86	5734.3	
695.05	4321.9	
695.23	4506.9	
695.42	5980.8	
695.6	7732.4	
695.78	4887.1	
695.97	4202.4	
696.15	6047.7	
696.34	5545.9	
696.52	4019.5	
696.7	4661.2	
696.89	5854.5	
697.07	5363.6	
697.25	4601.8	
697.44	5799.8	
697.62	5815.5	
697.81	6029.9	
697.99	4416.8	
698.17	4726.7	
698.36	5360.9	
698.54	5850.4	
698.72	4721.3	
698.91	3885	
699.09	5528.8	
699.28	5382.7	
699.46	4423.6	
699.64	4322.6	
699.83	5427.8	
700.01	6244.9	
700.19	4878.9	
700.38	3646.1	
700.56	6277.7	
700.74	5436.7	
700.93	3928	
701.11	4656.4	
701.29	5877.7	
701.48	6567.8	
701.66	4125.3	
701.84	4138.3	
702.03	5550.7	
702.21	6040.1	
702.39	3803.1	
702.58	4227	
702.76	5867.4	
702.94	5892.7	
703.13	3821.5	
703.31	5718.6	
703.49	5371.8	
703.68	6393.8	
703.86	3943.7	
704.04	4698.7	
704.23	5748.6	
704.41	5966.4	
704.59	4102.8	
704.78	5065.3	
704.96	6565.8	
705.14	5997.1	
705.33	3928.7	
705.51	4567	
705.69	5518.6	
705.87	6193.7	
706.06	4761.5	
706.24	3885	
706.42	5844.9	
706.61	5998.5	
706.79	4799.1	
706.97	3843.4	
707.16	5403.2	
707.34	5779.4	
707.52	4700.8	
707.7	4074.1	
707.89	5416.9	
708.07	5218.2	
708.25	4750.6	
708.44	4777.2	
708.62	5366.4	
708.8	6204	
708.98	4950.6	
709.17	4134.8	
709.35	5672.2	
709.53	5739.8	
709.72	3878.9	
709.9	4284.4	
710.08	5961	
710.26	5979.4	
710.45	5212.1	
710.63	4196.3	
710.81	5615.5	
710.99	5627.8	
711.18	4670.1	
711.36	4250.9	
711.54	5481	
711.72	6138.4	
711.91	4283.7	
712.09	3935.5	
712.27	5739.1	
712.45	6490	
712.64	4498.7	
712.82	3814	
713	5332.9	
713.18	5450.3	
713.37	3901.4	
713.55	4795.7	
713.73	6132.3	
713.91	5091.3	
714.1	4257.7	
714.28	3898.6	
714.46	5934.3	
714.64	5321.3	
714.83	3524.6	
715.01	4133.5	
715.19	5471.5	
715.37	4896	
715.55	3892.5	
715.74	4143	
715.92	6112.5	
716.1	4549.2	
716.28	5027.8	
716.47	4280.3	
716.65	5236	
716.83	5199.1	
717.01	4157.4	
717.19	4197	
717.38	6748.7	
717.56	4915.8	
717.74	4354	
717.92	3600.3	
718.1	5874.9	
718.29	5204.6	
718.47	3322.5	
718.65	3769.6	
718.83	5752.7	
719.01	5646.2	
719.2	3202.3	
719.38	4022.9	
719.56	5372.5	
719.74	6586.3	
719.92	3741.6	
720.11	4538.3	
720.29	5530.2	
720.47	4801.8	
720.65	3441.3	
720.83	4108.9	
721.02	5183.4	
721.2	4953.4	
721.38	4198.3	
721.56	3627.6	
721.74	4590.2	
721.92	4789.5	
722.11	4582.7	
722.29	4309.6	
722.47	5724.1	
722.65	5077.6	
722.83	3586.7	
723.01	4270.7	
723.2	5149.3	
723.38	5379.3	
723.56	3184.6	
723.74	4085.7	
723.92	4732.9	
724.1	5592.3	
724.29	3568.9	
724.47	4452.3	
724.65	4812	
724.83	4727.4	
725.01	3478.1	
725.19	4115.7	
725.37	4787.5	
725.56	4783.4	
725.74	3385.3	
725.92	3520.5	
726.1	4706.2	
726.28	4993.6	
726.46	3892.5	
726.64	3655.6	
726.83	5081.7	
727.01	5161.6	
727.19	3370.3	
727.37	3988.1	
727.55	5079	
727.73	5515.9	
727.91	3348.4	
728.09	3194.8	
728.28	5474.9	
728.46	5681.7	
728.64	4007.9	
728.82	4004.5	
729	6260.6	
729.18	5702.9	
729.36	3313.6	
729.54	5124.7	
729.72	6421.1	
729.91	5023.7	
730.09	4882.4	
730.27	3830.4	
730.45	5046.9	
730.63	5464.7	
730.81	4301.4	
730.99	3506.1	
731.17	5919.3	
731.35	4774.5	
731.53	3953.9	
731.71	3687.7	
731.9	5696.8	
732.08	5798.5	
732.26	3934.8	
732.44	3563.5	
732.62	5806.7	
732.8	5446.2	
732.98	4201.7	
733.16	3510.9	
733.34	5480.4	
733.52	4525.3	
733.7	3900	
733.88	4078.2	
734.07	5354.1	
734.25	5120.6	
734.43	3447.4	
734.61	4670.1	
734.79	6259.3	
734.97	5031.9	
735.15	3574.4	
735.33	3889.8	
735.51	5310.4	
735.69	5096	
735.87	4705.5	
736.05	3960.8	
736.23	5178.6	
736.41	4949.3	
736.59	3865.9	
736.77	3907.5	
736.95	5504.9	
737.13	5062.6	
737.32	3599.6	
737.5	3725.3	
737.68	6014.2	
737.86	4981.3	
738.04	3428.3	
738.22	4911	
738.4	4913.8	
738.58	5167.7	
738.76	3969	
738.94	3142.3	
739.12	4980.7	
739.3	4952.7	
739.48	4350.6	
739.66	4195.6	
739.84	5145.9	
740.02	5197.7	
740.2	3199.6	
740.38	3470.6	
740.56	5443.5	
740.74	4526	
740.92	4024.3	
741.1	3869.3	
741.28	5098.8	
741.46	4884.4	
741.64	3611.9	
741.82	4058.4	
742	5095.3	
742.18	5024.3	
742.36	3790.1	
742.54	3482.9	
742.72	5507	
742.9	4523.3	
743.08	4132.1	
743.26	3151.8	
743.44	5571.8	
743.62	5511.8	
743.8	4257.7	
743.98	3469.9	
744.16	5322	
744.34	5067.4	
744.52	4124.6	
744.7	4108.9	
744.88	5486.5	
745.06	5068	
745.24	4151.2	
745.42	4270	
745.6	5509	
745.78	5406	
745.96	3315	
746.14	3529.3	
746.32	6075.6	
746.5	5533.6	
746.68	3980.6	
746.86	3562.1	
747.03	5758.9	
747.21	4548.5	
747.39	3983.3	
747.57	3538.2	
747.75	5154.1	
747.93	5455.8	
748.11	3535.5	
748.29	3496.6	
748.47	6453.8	
748.65	4972.5	
748.83	4130.1	
749.01	3974.4	
749.19	5343.2	
749.37	4670.7	
749.55	3814	
749.73	3899.3	
749.91	5203.9	
750.09	4952	
750.26	3947.8	
750.44	3400.3	
750.62	5127.4	
750.8	5087.8	
750.98	3330.7	
751.16	3597.6	
751.34	5244.2	
751.52	4685.1	
751.7	4258.4	
751.88	3310.9	
752.06	5542.5	
752.24	5338.4	
752.42	3274.7	
752.59	3558	
752.77	5136.3	
752.95	6141.9	
753.13	4130.1	
753.31	3676.8	
753.49	4848.2	
753.67	5223	
753.85	3921.9	
754.03	3607.2	
754.21	5465.3	
754.38	5728.9	
754.56	3756.7	
754.74	3016.7	
754.92	4904.2	
755.1	5430.5	
755.28	3065.1	
755.46	3168.9	
755.64	6161	
755.82	6299.6	
755.99	3509.5	
756.17	3558.7	
756.35	4341	
756.53	5543.9	
756.71	2718.3	
756.89	3463.1	
757.07	5245.5	
757.25	4573.1	
757.42	3816.7	
757.6	4519.9	
757.78	5265.3	
757.96	4442	
758.14	3567.6	
758.32	3162.7	
758.5	4111.6	
758.67	4775.2	
758.85	3440.6	
759.03	3543	
759.21	4949.3	
759.39	4437.9	
759.57	3100.6	
759.75	3995.6	
759.92	5507.7	
760.1	4942.4	
760.28	4272.1	
760.46	4386.7	
760.64	4666.6	
760.82	4492.6	
760.99	3936.9	
761.17	3470.6	
761.35	5322	
761.53	4506.2	
761.71	3587.4	
761.89	4079.6	
762.06	5139	
762.24	4804.5	
762.42	3649.5	
762.6	3420.1	
762.78	4712.4	
762.96	5236.7	
763.13	3794.2	
763.31	3627	
763.49	5366.4	
763.67	4670.1	
763.85	4230.4	
764.02	4696.7	
764.2	5582.8	
764.38	4877.6	
764.56	3500	
764.74	4205.2	
764.91	5698.1	
765.09	4803.9	
765.27	3323.9	
765.45	3156.6	
765.63	5760.3	
765.8	5530.9	
765.98	2972.3	
766.16	3216	
766.34	4478.9	
766.52	4261.8	
766.69	3853.6	
766.87	3013.2	
767.05	4795	
767.23	5431.2	
767.41	3347.1	
767.58	3497.9	
767.76	5244.2	
767.94	5295.4	
768.12	3426.3	
768.29	3914.4	
768.47	4864.6	
768.65	5448.3	
768.83	3097.9	
769	4005.8	
769.18	4603.2	
769.36	5140.4	
769.54	4039.3	
769.72	3191.4	
769.89	5380.7	
770.07	5367	
770.25	3455.6	
770.43	4474.8	
770.6	5926.8	
770.78	6197.8	
770.96	3641.3	
771.14	4067.3	
771.31	5307.7	
771.49	4795.7	
771.67	2969.6	
771.85	3072.6	
772.02	4215.4	
772.2	4775.9	
772.38	3796.3	
772.55	3358.7	
772.73	5047.6	
772.91	4826.4	
773.09	3579.2	
773.26	3738.2	
773.44	5037.3	
773.62	4719.9	
773.8	3238.5	
773.97	3048.7	
774.15	5066.7	
774.33	4740.4	
774.5	3185.3	
774.68	3478.8	
774.86	5225.1	
775.04	4794.3	
775.21	3253.5	
775.39	3263.1	
775.57	5048.2	
775.74	5269.4	
775.92	3091.1	
776.1	3030.3	
776.27	4972.5	
776.45	5937.7	
776.63	3265.1	
776.81	2912.9	
776.98	4729.4	
777.16	5556.1	
777.34	3378.5	
777.51	3654.9	
777.69	4747.2	
777.87	4508.3	
778.04	3468.6	
778.22	3907.5	
778.4	4616.1	
778.57	5142.4	
778.75	2850.1	
778.93	3053.5	
779.1	4475.5	
779.28	4274.8	
779.46	2848.7	
779.64	3244	
779.81	5208.7	
779.99	5868.1	
780.17	3844	
780.34	3977.2	
780.52	4788.2	
780.69	4965.6	
780.87	3532.7	
781.05	3165.5	
781.22	4911.7	
781.4	4926	
781.58	3314.3	
781.75	2636.4	
781.93	4966.3	
782.11	4414.1	
782.28	3991.5	
782.46	3277.4	
782.64	4305.5	
782.81	5039.4	
782.99	3393.5	
783.17	3330	
783.34	4909	
783.52	4371	
783.69	3454.2	
783.87	4151.2	
784.05	4472.8	
784.22	4450.2	
784.4	4162.8	
784.58	3601	
784.75	5255.8	
784.93	4496.7	
785.1	3252.2	
785.28	3786.7	
785.46	5010	
785.63	4405.2	
785.81	3327.3	
785.99	3239.2	
786.16	4600.4	
786.34	4863.9	
786.51	3230.3	
786.69	3528.7	
786.87	4239.3	
787.04	4661.9	
787.22	3159.3	
787.39	3846.1	
787.57	4431.8	
787.75	5330.9	
787.92	4052.9	
788.1	3898.6	
788.27	4396.3	
788.45	4273.4	
788.63	3758	
788.8	2789.3	
788.98	4865.3	
789.15	4154.6	
789.33	2884.2	
789.5	3325.9	
789.68	5161.6	
789.86	5294	
790.03	3706.1	
790.21	3251.5	
790.38	5235.3	
790.56	4616.1	
790.73	3178.4	
790.91	3139.5	
791.09	4461.2	
791.26	5037.3	
791.44	3346.4	
791.61	2912.9	
791.79	4508.9	
791.96	4556	
792.14	3023.5	
792.32	2639.8	
792.49	4476.9	
792.67	4515.1	
792.84	3127.2	
793.02	2867.8	
793.19	4874.8	
793.37	5342.5	
793.54	2674	
793.72	2977.1	
793.89	5458.5	
794.07	4462.5	
794.25	3424.9	
794.42	2771.6	
794.6	5310.4	
794.77	4893.3	
794.95	3659.7	
795.12	3175	
795.3	4501.4	
795.47	4913.8	
795.65	3562.1	
795.82	3386	
796	4362.2	
796.17	5816.9	
796.35	3272.7	
796.52	3871.3	
796.7	4944.5	
796.87	4999.8	
797.05	3297.9	
797.22	3934.1	
797.4	5033.2	
797.57	5705	
797.75	3418.1	
797.92	3205.8	
798.1	5238	
798.27	4374.5	
798.45	2806.4	
798.62	2955.9	
798.8	4749.9	
798.97	5108.3	
799.15	3601.7	
799.32	3420.1	
799.5	4098	
799.67	4780.6	
799.85	3733.4	
800.02	2702	
800.2	4498	
800.37	4636.6	
800.55	3829	
800.72	3241.9	
800.9	5079.6	
801.07	5408.7	
801.25	4222.9	
801.42	3508.2	
801.6	5094.7	
801.77	4762.2	
801.95	3322.5	
802.12	3058.3	
802.29	4847.5	
802.47	4819.6	
802.64	3501.3	
802.82	2704	
802.99	4446.1	
803.17	5237.3	
803.34	3462.4	
803.52	3115.6	
803.69	5738.4	
803.87	4275.5	
804.04	3371.6	
804.21	3417.4	
804.39	5312.4	
804.56	4560.1	
804.74	2947.7	
804.91	3499.3	
805.09	4471.4	
805.26	4524.6	
805.44	2962	
805.61	3262.4	
805.78	5076.9	
805.96	4968.4	
806.13	3488.4	
806.31	3691.8	
806.48	4132.1	
806.66	4564.9	
806.83	3556.6	
807	3429.7	
807.18	4498	
807.35	4819.6	
807.53	3420.1	
807.7	2784.6	
807.87	5376.6	
808.05	4490.5	
808.22	3705.5	
808.4	2783.9	
808.57	4463.2	
808.74	4244.1	
808.92	3182.5	
809.09	4010.6	
809.27	4487.8	
809.44	4868.7	
809.61	2796.8	
809.79	3142.3	
809.96	5489.2	
810.14	5029.1	
810.31	2733.4	
810.48	3318.4	
810.66	4539.7	
810.83	5156.1	
811.01	3215.3	
811.18	3446.7	
811.35	5112.4	
811.53	4087.7	
811.7	3805.8	
811.87	3544.4	
812.05	4551.3	
812.22	4478.9	
812.39	3071.3	
812.57	2979.1	
812.74	4520.5	
812.92	5876.3	
813.09	3360.7	
813.26	3590.1	
813.44	5577.3	
813.61	4419.5	
813.78	2820.7	
813.96	3672.7	
814.13	4560.1	
814.3	4257	
814.48	3904.8	
814.65	3287	
814.82	5435.3	
815	4349.9	
815.17	3347.7	
815.34	4078.2	
815.52	4452.3	
815.69	4424.3	
815.87	3318.4	
816.04	3260.4	
816.21	4465.9	
816.38	4085	
816.56	3270.6	
816.73	3113.6	
816.9	5619.6	
817.08	5079.6	
817.25	3134.8	
817.42	3833.8	
817.6	4167.6	
817.77	4499.4	
817.94	3450.8	
818.12	3084.2	
818.29	4379.2	
818.46	6354.2	
818.64	3223.5	
818.81	3031	
818.98	4266.6	
819.16	5905	
819.33	3611.9	
819.5	3387.3	
819.67	4825.7	
819.85	5322	
820.02	3360.7	
820.19	3498.6	
820.37	4761.5	
820.54	4416.1	
820.71	3467.9	
820.88	4238.6	
821.06	4656.4	
821.23	4321.9	
821.4	3461.7	
821.58	3370.3	
821.75	5015.5	
821.92	4654.4	
822.09	2794.8	
822.27	3042.6	
822.44	4528.1	
822.61	4470	
822.79	2832.3	
822.96	5173.9	
823.13	4846.9	
823.3	4318.5	
823.48	3243.3	
823.65	2977.1	
823.82	5124.7	
823.99	4216.8	
824.17	4044.7	
824.34	2989.4	
824.51	5791.7	
824.68	4568.3	
824.86	3115.6	
825.03	3438.5	
825.2	4559.5	
825.37	5288.5	
825.55	3098.6	
825.72	3424.9	
825.89	5788.2	
826.06	5412.1	
826.24	3323.9	
826.41	3294.5	
826.58	5364.3	
826.75	4723.3	
826.92	2691	
827.1	3001.6	
827.27	7144	
827.44	5734.3	
827.61	3192.8	
827.79	3702	
827.96	4367	
828.13	4508.9	
828.3	3289.7	
828.47	2813.9	
828.65	4772.4	
828.82	4734.9	
828.99	4086.4	
829.16	3649.5	
829.34	5023	
829.51	4835.9	
829.68	3392.1	
829.85	3472.7	
830.02	5343.8	
830.2	5034.6	
830.37	2650.1	
830.54	4055	
830.71	5703.6	
830.88	4586.8	
831.05	2660.3	
831.23	3118.4	
831.4	5496.7	
831.57	5981.4	
831.74	3186.6	
831.91	2827.6	
832.09	4818.2	
832.26	5047.6	
832.43	3213.9	
832.6	3618.8	
832.77	4806.6	
832.94	5384.8	
833.12	2687.6	
833.29	3220.1	
833.46	4855.1	
833.63	6188.3	
833.8	3515	
833.97	3233.1	
834.15	5085.8	
834.32	4886.5	
834.49	3417.4	
834.66	3456.3	
834.83	5209.3	
835	4347.8	
835.17	3218.7	
835.35	3139.5	
835.52	5039.4	
835.69	4878.3	
835.86	3334.8	
836.03	2753.8	
836.2	5056.4	
836.37	4674.1	
836.55	3214.6	
836.72	2982.5	
836.89	4713.7	
837.06	5131.5	
837.23	3308.8	
837.4	3595.6	
837.57	5763.7	
837.75	6176	
837.92	2996.9	
838.09	3196.2	
838.26	4702.8	
838.43	5259.9	
838.6	3415.3	
838.77	3108.1	
838.94	5881.1	
839.11	5741.8	
839.29	3265.8	
839.46	2594.8	
839.63	5104.2	
839.8	4795.7	
839.97	3181.9	
840.14	3179.1	
840.31	4937.7	
840.48	5098.1	
840.65	2658.9	
840.82	3117	
841	5005.9	
841.17	4963.6	
841.34	2910.2	
841.51	2977.1	
841.68	4994.3	
841.85	4739.7	
842.02	3066.5	
842.19	2628.2	
842.36	4846.2	
842.53	4863.2	
842.7	2952.5	
842.87	3558.7	
843.05	6192.4	
843.22	4838.7	
843.39	2769.5	
843.56	3027.6	
843.73	4649.6	
843.9	5079.6	
844.07	4594.3	
844.24	3867.2	
844.41	6905.8	
844.58	4416.8	
844.75	2839.8	
844.92	3110.9	
845.09	4995.7	
845.26	5055.8	
845.43	2914.9	
845.6	3055.6	
845.77	4984.8	
845.94	4831.8	
846.12	3221.5	
846.29	3368.2	
846.46	5219.6	
846.63	5000.5	
846.8	2911.5	
846.97	3436.5	
847.14	5366.4	
847.31	4948.6	
847.48	3299.3	
847.65	3616.7	
847.82	5239.4	
847.99	5151.3	
848.16	3835.2	
848.33	3560.7	
848.5	4704.9	
848.67	5381.4	
848.84	2863.1	
849.01	3002.3	
849.18	4585.4	
849.35	4330.1	
849.52	3510.2	
849.69	2833	
849.86	5208.7	
850.03	5295.4	
850.2	2958.6	
850.37	3473.4	
850.54	5285.1	
850.71	4775.2	
850.88	3432.4	
851.05	2859.6	
851.22	4866	
851.39	5356.8	
851.56	2719	
851.73	3326.6	
851.9	4435.2	
852.07	5189.6	
852.24	3182.5	
852.41	2890.4	
852.58	4953.4	
852.75	4533.5	
852.92	3241.9	
853.09	2871.3	
853.26	4668.7	
853.43	5349.3	
853.6	2929.3	
853.77	2519	
853.94	5462.6	
854.11	4437.3	
854.28	4225.6	
854.44	3115	
854.61	5778	
854.78	5283.1	
854.95	2892.4	
855.12	3549.1	
855.29	4149.9	
855.46	5518.6	
855.63	2908.8	
855.8	3892.5	
855.97	4703.5	
856.14	5318.6	
856.31	4076.1	
856.48	3171.6	
856.65	4679.6	
856.82	4432.5	
856.99	2803.7	
857.16	3162.7	
857.33	5967.1	
857.49	4784.1	
857.66	3105.4	
857.83	3294.5	
858	4731.5	
858.17	4896.7	
858.34	2790	
858.51	2906.8	
858.68	5483.8	
858.85	5586.9	
859.02	3347.1	
859.19	3543.7	
859.36	4483.7	
859.52	4489.8	
859.69	2955.2	
859.86	3409.9	
860.03	4524.6	
860.2	5461.9	
860.37	2668.5	
860.54	2955.9	
860.71	5115.8	
860.88	5535	
861.05	3196.9	
861.21	3615.3	
861.38	5503.6	
861.55	4353.3	
861.72	2682.2	
861.89	3233.1	
862.06	5291.3	
862.23	5595.7	
862.4	2807.1	
862.56	2994.8	
862.73	5069.4	
862.9	4856.4	
863.07	3356.6	
863.24	2721.8	
863.41	4458.4	
863.58	4545.1	
863.75	2963.4	
863.91	3334.8	
864.08	5397.1	
864.25	5073.5	
864.42	3583.9	
864.59	4010.6	
864.76	5711.8	
864.93	4488.5	
865.09	2835.1	
865.26	3044	
865.43	5365.7	
865.6	5635.3	
865.77	2553.8	
865.94	2890.4	
866.1	5384.1	
866.27	5158.8	
866.44	4255	
866.61	2792.1	
866.78	4788.8	
866.95	5084.4	
867.11	2861.7	
867.28	2641.9	
867.45	5306.3	
867.62	4513	
867.79	3334.8	
867.96	2830.3	
868.12	4446.8	
868.29	5197.7	
868.46	2913.6	
868.63	3775.1	
868.8	5300.8	
868.97	5137.7	
869.13	3037.8	
869.3	3035.1	
869.47	5048.2	
869.64	5251	
869.81	2966.8	
869.97	2924.5	
870.14	5013.4	
870.31	5507	
870.48	2842.6	
870.65	3629.7	
870.81	4746.5	
870.98	4779.3	
871.15	3246.7	
871.32	3055.6	
871.48	5062.6	
871.65	5543.9	
871.82	2902	
871.99	3164.1	
872.16	5887.2	
872.32	5425.8	
872.49	2932	
872.66	2955.2	
872.83	5177.9	
872.99	4612.7	
873.16	3278.1	
873.33	2878.8	
873.5	4854.4	
873.67	4914.4	
873.83	3037.1	
874	3771	
874.17	5021.6	
874.34	5806	
874.5	3693.9	
874.67	3517.7	
874.84	5457.8	
875.01	4374.5	
875.17	3977.8	
875.34	2920.4	
875.51	4874.2	
875.68	5890.6	
875.84	3476.8	
876.01	4168.3	
876.18	5216.2	
876.34	5140.4	
876.51	2935.4	
876.68	2864.4	
876.85	4730.8	
877.01	5446.2	
877.18	4024.3	
877.35	2878.8	
877.52	4922	
877.68	4458.4	
877.85	2891.7	
878.02	2886.3	
878.18	4823.6	
878.35	4604.5	
878.52	2357.9	
878.69	3216.7	
878.85	5272.8	
879.02	5126.7	
879.19	4047.5	
879.35	3124.5	
879.52	5214.8	
879.69	5321.3	
879.86	2559.3	
880.02	3235.1	
880.19	4813.4	
880.36	5782.8	
880.52	3273.3	
880.69	3459	
880.86	5267.4	
881.02	5297.4	
881.19	3168.2	
881.36	3091.8	
881.52	5093.3	
881.69	4620.2	
881.86	3074.7	
882.02	3041.2	
882.19	5366.4	
882.36	6181.5	
882.52	2956.6	
882.69	3976.5	
882.86	5023	
883.02	4923.3	
883.19	3468.6	
883.36	3308.8	
883.52	5279	
883.69	5835.3	
883.86	2941.6	
884.02	2667.8	
884.19	5205.9	
884.36	4863.9	
884.52	3246.7	
884.69	3080.8	
884.86	4605.2	
885.02	5621	
885.19	3233.7	
885.36	3316.3	
885.52	4770.4	
885.69	4986.8	
885.86	4113.7	
886.02	3656.3	
886.19	5186.8	
886.35	4531.5	
886.52	3190.7	
886.69	3953.3	
886.85	4476.9	
887.02	5394.3	
887.19	5394.3	
887.35	5394.3	
887.52	5394.3	
887.68	5394.3	
887.85	5394.3	
888.02	5394.3	
888.18	5394.3	
888.35	5394.3	
888.51	5394.3	
888.68	5394.3	
888.85	5394.3	
889.01	5394.3	
889.18	5394.3	
889.35	5394.3	
889.51	5394.3	
889.68	5394.3	
889.84	5394.3	
890.01	5394.3	
890.17	5394.3	
890.34	5394.3	
890.51	5394.3	
890.67	5394.3	
890.84	5394.3	
891	5394.3	
891.17	5394.3	
891.34	5394.3	
891.5	5394.3	
891.67	5394.3	
891.83	5394.3	
892	5394.3	
892.16	5394.3	
892.33	5394.3	
892.5	5394.3	
892.66	5394.3	
892.83	5394.3	
892.99	5394.3	
893.16	5394.3	
893.32	5394.3	
893.49	5394.3	
893.65	5394.3	
893.82	5394.3	
893.99	5394.3	
894.15	5394.3	
894.32	5394.3	
894.48	5394.3	
894.65	5394.3	
894.81	5394.3	
894.98	5394.3	
895.14	5394.3	
895.31	5394.3	
895.47	5394.3	
895.64	5394.3	
895.81	5394.3	
895.97	5394.3	
896.14	5394.3	
896.3	5394.3	
896.47	5394.3	
896.63	5394.3	
896.8	5394.3	
896.96	5394.3	
897.13	5394.3	
897.29	5394.3	
897.46	5394.3	
897.62	5394.3	
897.79	5394.3	
897.95	5394.3	
898.12	5394.3	
898.28	5394.3	
898.45	5394.3	
898.61	5394.3	
898.78	5394.3	
898.94	5394.3	
899.11	5394.3	
899.27	5394.3	
899.44	5394.3	
899.6	5394.3	
899.77	5394.3	
899.93	5394.3	
900.1	5394.3	
900.26	5394.3	
900.43	5394.3	
900.59	5394.3	
900.76	5394.3	
900.92	5394.3	
901.09	5394.3	
901.25	5394.3	
901.42	5394.3	
901.58	5394.3	
901.75	5394.3	
901.91	5394.3	
902.07	5394.3	
902.24	5394.3	
902.4	5394.3	
902.57	5394.3	
902.73	5394.3	
902.9	5394.3	
903.06	5394.3	
903.23	5394.3	
903.39	5394.3	
903.56	5394.3	
903.72	5394.3	
903.88	5394.3	
904.05	5394.3	
904.21	5394.3	
904.38	5394.3	
904.54	5394.3	
904.71	5394.3	
904.87	5394.3	
905.03	5394.3	
905.2	5394.3	
905.36	5394.3	
905.53	5394.3	
905.69	5394.3	
905.86	5394.3	
906.02	5394.3	
906.18	5394.3	
906.35	5394.3	
906.51	5394.3	
906.68	5394.3	
906.84	5394.3	
907.01	5394.3	
907.17	5394.3	
907.33	5394.3	
907.5	5394.3	
907.66	5394.3	
907.83	5394.3	
907.99	5394.3	
908.15	5394.3	
908.32	5394.3	
908.48	5394.3	
908.65	5394.3	
908.81	5394.3	
908.97	5394.3	
909.14	5394.3	
909.3	5394.3	
909.47	5394.3	
909.63	5394.3	
909.79	5394.3	
909.96	5394.3	
910.12	5394.3	
910.28	5394.3	
910.45	5394.3	
910.61	5394.3	
910.78	5394.3	
910.94	5394.3	
911.1	5394.3	
911.27	5394.3	
911.43	5394.3	
911.59	5394.3	
911.76	5394.3	
911.92	5394.3	
912.08	5394.3	
912.25	5394.3	
912.41	5394.3	
912.57	5394.3	
912.74	5394.3	
912.9	5394.3	
913.07	5394.3	
913.23	5394.3	
913.39	5394.3	
913.56	5394.3	
913.72	5394.3	
913.88	5394.3	
914.05	5394.3	
914.21	5394.3	
914.37	5394.3	
914.54	5394.3	
914.7	5394.3	
914.86	5394.3	
915.03	5394.3	
915.19	5394.3	
