Wavelength	Intensities	
nm	a.u.	
179.22	1623.2	
179.44	1628.5	
179.65	1617.9	
179.86	1639.1	
180.08	1630.9	
180.29	3670.6	
180.51	2943.6	
180.72	4835.9	
180.94	5326.8	
181.15	2627.5	
181.37	2595.5	
181.58	4612.7	
181.79	4820.2	
182.01	2678.1	
182.22	2781.8	
182.44	4910.3	
182.65	4203.8	
182.87	3434.4	
183.08	3087.7	
183.29	5081	
183.51	4246.8	
183.72	2826.9	
183.94	3885	
184.15	4584	
184.37	4513	
184.58	2583.9	
184.79	3302	
185.01	4321.2	
185.22	4922	
185.44	3424.2	
185.65	3022.1	
185.86	4616.1	
186.08	4242	
186.29	2548.4	
186.51	2663.7	
186.72	4411.3	
186.94	4969.1	
187.15	3025.5	
187.36	3060.3	
187.58	6146.6	
187.79	4643.4	
188.01	3181.2	
188.22	4691.2	
188.43	5396.4	
188.65	4854.4	
188.86	2706	
189.08	3134.1	
189.29	4444.1	
189.5	4408.6	
189.72	2899.2	
189.93	2874	
190.15	4933.6	
190.36	5689.9	
190.57	3120.4	
190.79	2998.2	
191	4943.8	
191.22	4969.7	
191.43	3172.3	
191.64	2717.7	
191.86	5094	
192.07	4947.9	
192.29	2769.5	
192.5	2842.6	
192.71	4931.5	
192.93	4470.7	
193.14	2850.1	
193.35	2948.4	
193.57	4425.7	
193.78	4973.2	
194	2396.8	
194.21	2812.5	
194.42	4285.7	
194.64	4630.5	
194.85	3110.2	
195.07	3538.2	
195.28	4571.7	
195.49	4098	
195.71	3704.1	
195.92	2745.6	
196.13	4766.3	
196.35	4738.3	
196.56	3885	
196.78	3084.9	
196.99	5646.9	
197.2	5327.4	
197.42	3427.6	
197.63	3127.9	
197.84	4175.1	
198.06	4700.1	
198.27	2876.7	
198.48	3607.8	
198.7	4424.3	
198.91	4646.8	
199.13	3132	
199.34	3111.5	
199.55	4937	
199.77	4024.9	
199.98	2865.8	
200.19	3099.3	
200.41	4562.2	
200.62	4273.4	
200.83	3190.1	
201.05	3390.1	
201.26	4565.6	
201.47	4382.7	
201.69	2832.3	
201.9	2746.3	
202.11	4596.3	
202.33	5255.8	
202.54	2952.5	
202.76	3293.8	
202.97	4607.2	
203.18	4712.4	
203.4	3190.1	
203.61	3244.7	
203.82	4636.6	
204.04	4343.1	
204.25	3153.2	
204.46	3041.2	
204.68	4584	
204.89	4723.3	
205.1	3037.8	
205.32	2719	
205.53	4830.5	
205.74	4922	
205.96	2389.3	
206.17	3167.5	
206.38	4818.9	
206.6	4924	
206.81	3558	
207.02	3001.6	
207.24	4719.9	
207.45	5046.9	
207.66	2976.4	
207.88	2645.3	
208.09	4739	
208.3	4595.6	
208.52	2816.6	
208.73	3020.8	
208.94	4575.2	
209.15	5066.7	
209.37	3050.1	
209.58	3003	
209.79	4979.3	
210.01	4447.5	
210.22	2548.4	
210.43	2569.5	
210.65	4489.8	
210.86	4809.3	
211.07	2926.5	
211.29	2732	
211.5	4787.5	
211.71	4528.7	
211.93	2846	
212.14	2766.8	
212.35	4571.1	
212.56	4639.3	
212.78	3149.1	
212.99	2638.5	
213.2	5188.9	
213.42	4457.1	
213.63	2882.2	
213.84	2993.4	
214.06	4190.1	
214.27	4274.1	
214.48	2979.8	
214.69	3162.7	
214.91	5030.5	
215.12	5055.1	
215.33	3124.5	
215.55	3379.1	
215.76	5410.7	
215.97	4771.1	
216.18	2996.2	
216.4	3019.4	
216.61	4300.7	
216.82	4902.2	
217.04	2792.1	
217.25	2871.9	
217.46	5027.1	
217.67	4805.9	
217.89	2569.5	
218.1	2594.1	
218.31	4614.1	
218.53	4714.4	
218.74	2975	
218.95	2837.8	
219.16	4579.9	
219.38	5184.1	
219.59	2863.1	
219.8	3293.8	
220.01	5532.9	
220.23	4588.8	
220.44	3414.6	
220.65	2749.7	
220.87	4662.5	
221.08	4989.5	
221.29	2642.6	
221.5	3323.2	
221.72	5876.3	
221.93	4332.8	
222.14	3063.1	
222.35	3602.4	
222.57	4526.7	
222.78	4833.9	
222.99	3022.1	
223.2	3216	
223.42	4753.3	
223.63	4876.9	
223.84	2366.1	
224.05	2379.1	
224.27	5509	
224.48	5160.2	
224.69	3603.1	
224.9	3091.8	
225.12	4727.4	
225.33	4556	
225.54	2569.5	
225.75	2865.1	
225.97	4326	
226.18	4530.1	
226.39	2982.5	
226.6	2833	
226.82	4437.3	
227.03	4268	
227.24	3083.6	
227.45	2710.1	
227.67	4877.6	
227.88	5120.6	
228.09	3424.9	
228.3	3403	
228.52	4804.5	
228.73	4570.4	
228.94	2895.8	
229.15	2606.4	
229.36	4522.6	
229.58	4567	
229.79	2965.5	
230	3323.9	
230.21	5324.7	
230.43	4554	
230.64	3091.8	
230.85	3198.2	
231.06	4943.8	
231.28	4842.1	
231.49	2700.6	
231.7	3059.7	
231.91	4872.1	
232.12	4580.6	
232.34	2764.8	
232.55	2966.8	
232.76	4959.5	
232.97	4651.6	
233.18	2779.1	
233.4	3082.2	
233.61	4707.6	
233.82	4400.4	
234.03	2983.9	
234.25	2877.4	
234.46	6021	
234.67	4595.6	
234.88	3144.3	
235.09	2848	
235.31	4752	
235.52	4427.7	
235.73	3067.9	
235.94	2674	
236.15	4416.8	
236.37	5285.8	
236.58	2725.2	
236.79	3015.3	
237	4807.9	
237.21	4223.6	
237.43	3222.1	
237.64	2597.5	
237.85	7316	
238.06	4319.2	
238.27	3145.7	
238.48	2658.3	
238.7	4855.1	
238.91	4481.6	
239.12	2932	
239.33	3097.2	
239.54	4308.9	
239.76	4503.5	
239.97	3016.7	
240.18	2968.9	
240.39	5399.1	
240.6	4696	
240.82	3081.5	
241.03	2626.9	
241.24	4532.8	
241.45	5127.4	
241.66	2790.7	
241.87	3242.6	
242.09	5110.4	
242.3	5246.9	
242.51	3244	
242.72	3008.5	
242.93	4872.1	
243.14	4603.2	
243.36	3386.7	
243.57	3623.5	
243.78	5145.9	
243.99	4823.6	
244.2	2994.1	
244.41	2761.3	
244.63	4243.4	
244.84	4734.9	
245.05	3191.4	
245.26	2995.5	
245.47	4806.6	
245.68	4885.1	
245.9	3835.8	
246.11	3173.7	
246.32	4425.7	
246.53	4694.6	
246.74	4582.7	
246.95	2603	
247.16	4319.8	
247.38	4590.9	
247.59	2594.8	
247.8	3059.7	
248.01	4229.7	
248.22	4560.8	
248.43	2762.7	
248.64	2981.2	
248.86	4216.1	
249.07	4466.6	
249.28	2703.3	
249.49	3082.2	
249.7	4948.6	
249.91	4977.2	
250.12	2594.1	
250.34	2659.6	
250.55	4672.8	
250.76	4569.7	
250.97	3112.9	
251.18	3116.3	
251.39	5005.2	
251.6	4672.1	
251.81	3115	
252.03	3164.8	
252.24	4396.3	
252.45	4849.6	
252.66	2696.5	
252.87	3254.2	
253.08	4557.4	
253.29	5767.8	
253.5	2710.1	
253.72	3562.8	
253.93	4550.6	
254.14	5152.7	
254.35	2872.6	
254.56	2969.6	
254.77	4738.3	
254.98	4305.5	
255.19	2914.9	
255.41	3504.1	
255.62	4690.5	
255.83	4993.6	
256.04	3150.5	
256.25	3058.3	
256.46	5382.1	
256.67	4385.4	
256.88	3055.6	
257.09	3366.2	
257.31	4271.4	
257.52	4320.5	
257.73	3807.9	
257.94	2869.9	
258.15	4522.6	
258.36	4548.5	
258.57	3465.8	
258.78	2372.2	
258.99	4928.8	
259.2	4487.8	
259.41	2878.8	
259.63	3000.3	
259.84	5145.9	
260.05	5307	
260.26	3632.4	
260.47	2853.5	
260.68	4989.5	
260.89	4461.8	
261.1	3458.3	
261.31	2798.2	
261.52	5033.9	
261.73	5208.7	
261.95	3620.8	
262.16	3095.8	
262.37	5020.9	
262.58	5051.7	
262.79	3622.9	
263	2954.5	
263.21	4622.9	
263.42	4214.7	
263.63	3123.8	
263.84	2951.8	
264.05	4898.7	
264.26	5073.5	
264.47	3443.3	
264.69	3174.4	
264.9	5167	
265.11	4704.9	
265.32	2745.6	
265.53	2828.2	
265.74	4654.4	
265.95	4151.2	
266.16	3037.1	
266.37	3275.4	
266.58	4663.9	
266.79	4430.4	
267	2865.1	
267.21	2717.7	
267.42	4282.3	
267.63	4549.9	
267.84	3004.4	
268.06	2650.1	
268.27	4883	
268.48	4987.5	
268.69	2976.4	
268.9	3353.2	
269.11	5071.5	
269.32	4163.5	
269.53	3000.3	
269.74	2779.1	
269.95	4696	
270.16	4184	
270.37	3011.2	
270.58	3394.2	
270.79	4530.8	
271	4935.6	
271.21	3074.7	
271.42	3052.2	
271.63	4765.6	
271.84	4239.3	
272.05	2505.3	
272.26	2760	
272.47	4560.8	
272.68	4730.8	
272.89	2970.2	
273.11	3209.2	
273.32	4397.7	
273.53	5146.5	
273.74	3183.9	
273.95	3087.7	
274.16	4850.3	
274.37	4526.7	
274.58	3286.3	
274.79	2803	
275	4717.8	
275.21	4954.7	
275.42	3796.3	
275.63	3315	
275.84	4788.8	
276.05	5726.8	
276.26	3132	
276.47	2979.1	
276.68	4481	
276.89	5292	
277.1	3334.8	
277.31	2675.3	
277.52	4687.8	
277.73	4963.6	
277.94	2670.6	
278.15	2933.4	
278.36	4711.7	
278.57	4345.8	
278.78	2903.3	
278.99	3116.3	
279.2	4387.4	
279.41	4293.2	
279.62	3679.5	
279.83	2702.6	
280.04	5386.2	
280.25	4330.1	
280.46	3678.8	
280.67	3039.2	
280.88	4365.6	
281.09	5039.4	
281.3	3116.3	
281.51	3814	
281.72	4398.4	
281.93	4865.3	
282.14	2902.7	
282.35	3056.3	
282.56	4979.3	
282.77	4921.3	
282.98	2951.8	
283.19	3396.2	
283.4	5788.9	
283.61	4548.5	
283.82	2770.2	
284.03	3610.6	
284.24	4693.3	
284.45	4984.1	
284.66	3696.6	
284.87	3467.9	
285.08	5005.9	
285.29	5046.2	
285.5	2640.5	
285.71	2918.4	
285.92	4975.2	
286.12	5429.8	
286.33	3639.9	
286.54	2975	
286.75	4917.9	
286.96	4539	
287.17	2783.2	
287.38	3489.1	
287.59	4388.1	
287.8	4388.1	
288.01	2946.3	
288.22	3293.1	
288.43	4769	
288.64	4221.5	
288.85	3474	
289.06	3310.2	
289.27	4886.5	
289.48	5176.6	
289.69	3650.8	
289.9	3349.1	
290.11	5100.1	
290.32	4435.2	
290.53	3430.3	
290.74	3186.6	
290.94	4881	
291.15	4882.4	
291.36	2854.9	
291.57	3283.6	
291.78	4444.8	
291.99	4147.8	
292.2	2764.1	
292.41	3280.8	
292.62	4939.7	
292.83	4782	
293.04	3839.9	
293.25	2800.9	
293.46	4448.2	
293.67	4900.1	
293.88	2818	
294.09	2772.9	
294.29	4296.6	
294.5	4693.9	
294.71	3030.3	
294.92	2878.8	
295.13	4455.7	
295.34	5299.5	
295.55	2676.7	
295.76	2586.6	
295.97	4844.1	
296.18	5310.4	
296.39	2671.2	
296.6	2837.8	
296.81	4630.5	
297.01	4900.1	
297.22	2932	
297.43	2839.2	
297.64	4386.7	
297.85	4321.9	
298.06	2431.6	
298.27	2632.3	
298.48	4505.5	
298.69	4345.8	
298.9	3055.6	
299.11	2802.3	
299.31	4302.8	
299.52	4267.3	
299.73	3292.5	
299.94	3119.7	
300.15	4649.6	
300.36	4332.8	
300.57	3164.8	
300.78	3159.3	
300.99	4456.4	
301.2	4614.1	
301.4	2882.9	
301.61	3028.9	
301.82	4788.2	
302.03	4842.1	
302.24	3302	
302.45	2700.6	
302.66	4803.9	
302.87	5017.5	
303.08	2803	
303.29	3675.4	
303.49	4444.8	
303.7	4522.6	
303.91	2611.8	
304.12	3627.6	
304.33	4185.4	
304.54	4691.9	
304.75	2908.8	
304.96	2749.7	
305.16	4823.6	
305.37	5248.3	
305.58	2524.5	
305.79	2595.5	
306	4810.7	
306.21	4179.9	
306.42	2862.4	
306.63	4080.9	
306.83	4432.5	
307.04	4823	
307.25	3110.9	
307.46	3099.3	
307.67	4108.9	
307.88	4798.4	
308.09	2917.7	
308.29	2850.1	
308.5	4671.4	
308.71	4938.3	
308.92	3047.4	
309.13	2764.1	
309.34	4601.1	
309.55	4529.4	
309.75	3459	
309.96	3167.5	
310.17	4877.6	
310.38	4394.9	
310.59	3267.2	
310.8	2741.5	
311.01	4504.2	
311.21	4542.4	
311.42	2809.1	
311.63	2833	
311.84	4386.7	
312.05	4565.6	
312.26	3168.9	
312.46	3386	
312.67	4478.9	
312.88	4205.2	
313.09	2724.5	
313.3	2743.6	
313.51	5111.7	
313.71	5335	
313.92	2801.6	
314.13	2930	
314.34	4734.2	
314.55	4508.3	
314.76	3364.1	
314.96	3080.8	
315.17	4712.4	
315.38	4717.8	
315.59	2772.9	
315.8	2639.1	
316.01	5111	
316.21	5184.8	
316.42	2718.3	
316.63	3049.4	
316.84	4504.8	
317.05	5012.1	
317.26	3209.8	
317.46	2941.6	
317.67	4545.8	
317.88	4791.6	
318.09	3366.9	
318.3	2639.1	
318.5	4412.7	
318.71	4766.3	
318.92	4219.5	
319.13	3235.8	
319.34	4896.7	
319.54	5012.1	
319.75	2624.1	
319.96	2510.8	
320.17	4765.6	
320.38	4933.6	
320.58	2575.7	
320.79	2993.4	
321	4988.2	
321.21	5050.3	
321.42	3040.6	
321.62	2602.3	
321.83	4367	
322.04	4559.5	
322.25	2964.8	
322.46	2800.9	
322.66	4655.7	
322.87	4829.1	
323.08	3323.2	
323.29	2715.6	
323.5	5305.6	
323.7	4265.2	
323.91	3586.7	
324.12	3253.5	
324.33	4652.3	
324.53	4824.3	
324.74	3163.4	
324.95	3285.6	
325.16	4240.7	
325.37	4489.1	
325.57	2792.7	
325.78	2808.4	
325.99	4718.5	
326.2	4187.4	
326.4	3817.4	
326.61	2608.4	
326.82	4511	
327.03	4640.7	
327.24	3739.6	
327.44	3577.1	
327.65	4803.2	
327.86	3962.8	
328.07	3199.6	
328.27	2717	
328.48	5071.5	
328.69	4250.2	
328.9	3762.1	
329.1	2863.1	
329.31	4498.7	
329.52	5046.2	
329.73	2803.7	
329.93	3014.6	
330.14	4646.2	
330.35	4702.8	
330.56	4235.9	
330.76	3323.2	
330.97	4456.4	
331.18	4635.9	
331.39	3023.5	
331.59	2528.6	
331.8	4963.6	
332.01	5072.8	
332.22	2866.5	
332.42	3125.9	
332.63	4721.9	
332.84	4359.4	
333.05	3036.5	
333.25	2828.9	
333.46	4343.1	
333.67	4554	
333.88	2882.9	
334.08	3149.8	
334.29	6879.8	
334.5	4943.1	
334.7	2753.8	
334.91	3710.2	
335.12	4309.6	
335.33	4773.8	
335.53	3044	
335.74	4230.4	
335.95	4478.9	
336.16	4224.3	
336.36	3069.9	
336.57	3418.7	
336.78	4218.1	
336.98	4898.1	
337.19	3653.6	
337.4	2946.3	
337.61	5338.4	
337.81	4247.5	
338.02	2833	
338.23	3439.9	
338.43	5097.4	
338.64	4401.8	
338.85	2812.5	
339.05	3556	
339.26	5186.1	
339.47	4207.9	
339.68	2775.7	
339.88	3878.2	
340.09	4786.1	
340.3	4859.8	
340.5	3150.5	
340.71	2575.7	
340.92	4259.1	
341.13	5117.9	
341.33	2653.5	
341.54	3163.4	
341.75	4732.9	
341.95	4448.2	
342.16	3101.3	
342.37	3296.5	
342.57	4300.1	
342.78	4508.9	
342.99	3358	
343.19	2569.5	
343.4	4856.4	
343.61	4784.1	
343.81	2887	
344.02	2697.2	
344.23	4890.5	
344.43	5051.7	
344.64	3381.9	
344.85	3246	
345.06	4790.2	
345.26	4973.2	
345.47	3167.5	
345.68	3547.1	
345.88	4201.1	
346.09	4875.5	
346.3	3198.2	
346.5	2508.1	
346.71	4540.3	
346.92	4354.7	
347.12	2655.5	
347.33	3134.1	
347.54	4918.5	
347.74	5179.3	
347.95	3121.8	
348.16	2461	
348.36	4470	
348.57	4307.6	
348.78	3202.3	
348.98	3355.3	
349.19	4526.7	
349.39	4123.2	
349.6	2632.3	
349.81	2848.7	
350.01	4816.1	
350.22	4390.8	
350.43	3078.8	
350.63	3571	
350.84	4557.4	
351.05	4363.5	
351.25	2814.6	
351.46	2570.2	
351.67	4958.1	
351.87	4313.7	
352.08	2966.1	
352.29	3321.1	
352.49	4865.3	
352.7	4588.1	
352.9	2719.7	
353.11	3311.6	
353.32	5317.2	
353.52	4356	
353.73	2717.7	
353.94	3345.7	
354.14	4755.4	
354.35	4528.1	
354.55	2796.8	
354.76	3017.3	
354.97	4779.3	
355.17	4553.3	
355.38	2679.4	
355.59	3531.4	
355.79	4328.7	
356	4554	
356.2	3059	
356.41	2730.6	
356.62	4172.4	
356.82	4429.8	
357.03	3306.1	
357.24	2930.6	
357.44	4353.3	
357.65	4439.3	
357.85	3751.9	
358.06	3063.8	
358.27	4158.7	
358.47	4274.1	
358.68	2641.2	
358.88	3229	
359.09	4724.7	
359.3	4913.1	
359.5	3648.8	
359.71	3327.3	
359.91	5184.1	
360.12	4734.2	
360.33	3272.7	
360.53	3503.4	
360.74	4373.8	
360.94	4385.4	
361.15	3373	
361.36	2866.5	
361.56	4906.9	
361.77	4515.1	
361.97	3672	
362.18	3031.7	
362.38	4945.8	
362.59	4252.9	
362.8	2818	
363	2710.8	
363.21	4094.6	
363.41	4657.8	
363.62	3178.4	
363.83	3768.3	
364.03	4729.4	
364.24	5221	
364.44	3943	
364.65	3906.2	
364.85	4480.3	
365.06	4296.6	
365.27	2930	
365.47	3003.7	
365.68	5166.3	
365.88	4463.2	
366.09	3248.1	
366.29	2952.5	
366.5	4599.1	
366.71	4927.4	
366.91	3798.3	
367.12	3310.2	
367.32	5362.3	
367.53	4796.3	
367.73	3337.5	
367.94	3963.5	
368.14	4857.1	
368.35	5340.4	
368.56	3250.1	
368.76	2852.1	
368.97	4940.4	
369.17	5896.8	
369.38	2949.8	
369.58	3099.9	
369.79	4258.4	
369.99	5158.8	
370.2	3822.2	
370.4	3155.9	
370.61	4616.1	
370.82	5471.5	
371.02	3172.3	
371.23	2702.6	
371.43	4260.5	
371.64	5136.3	
371.84	3160	
372.05	3876.8	
372.25	5867.4	
372.46	4863.9	
372.66	3181.2	
372.87	3158.7	
373.07	4933.6	
373.28	6027.2	
373.48	3839.3	
373.69	3571	
373.9	4599.1	
374.1	4573.8	
374.31	3811.3	
374.51	3420.1	
374.72	5155.4	
374.92	4384.7	
375.13	3869.3	
375.33	3332	
375.54	4823	
375.74	4546.5	
375.95	3433.8	
376.15	4242	
376.36	4866	
376.56	4765.6	
376.77	3390.8	
376.97	3740.3	
377.18	5649.7	
377.38	4997.7	
377.59	3842.7	
377.79	3156.6	
378	4793.6	
378.2	5048.2	
378.41	3200.3	
378.61	3134.1	
378.82	5173.2	
379.02	4582	
379.23	3298.6	
379.43	3966.9	
379.64	5305.6	
379.84	4905.6	
380.05	3206.4	
380.25	3110.9	
380.46	4975.2	
380.66	4670.1	
380.87	4070	
381.07	4242.7	
381.28	5375.9	
381.48	4958.8	
381.69	3138.2	
381.89	3229.6	
382.1	4303.5	
382.3	4991.6	
382.51	3887	
382.71	4470.7	
382.91	4926	
383.12	5264	
383.32	3442.6	
383.53	3536.8	
383.73	4872.1	
383.94	4783.4	
384.14	3573.7	
384.35	2916.3	
384.55	4614.8	
384.76	4951.3	
384.96	3437.2	
385.17	3627.6	
385.37	4956.8	
385.58	4380.6	
385.78	3557.3	
385.98	2933.4	
386.19	4676.9	
386.39	4945.8	
386.6	3214.6	
386.8	3405.1	
387.01	4935.6	
387.21	5021.6	
387.42	3662.5	
387.62	4064.5	
387.83	4594.3	
388.03	4866.7	
388.23	3448.1	
388.44	3998.3	
388.64	4362.2	
388.85	4412	
389.05	3697.3	
389.26	3973.7	
389.46	5794.4	
389.67	5351.3	
389.87	3705.5	
390.07	3674.1	
390.28	4669.4	
390.48	4463.9	
390.69	3183.9	
390.89	3452.2	
391.1	4638.6	
391.3	5198.4	
391.5	4190.8	
391.71	4521.2	
391.91	5091.9	
392.12	5651	
392.32	4205.8	
392.53	3674.7	
392.73	4709	
392.93	4805.2	
393.14	3506.8	
393.34	4000.4	
393.55	5076.2	
393.75	4717.8	
393.95	3552.5	
394.16	3399.6	
394.36	4584	
394.57	5141.8	
394.77	3117	
394.98	3409.9	
395.18	4590.9	
395.38	4682.3	
395.59	3997	
395.79	3326.6	
396	4769	
396.2	5053.7	
396.4	3936.2	
396.61	3818.8	
396.81	5107.6	
397.02	4671.4	
397.22	4078.2	
397.42	4055.7	
397.63	5195	
397.83	4678.9	
398.04	3292.5	
398.24	3695.2	
398.44	5006.6	
398.65	4356.7	
398.85	3246.7	
399.05	3284.3	
399.26	4691.2	
399.46	5803.3	
399.67	3585.3	
399.87	3417.4	
400.07	4930.8	
400.28	5148.6	
400.48	3474.7	
400.69	4197.7	
400.89	5595.7	
401.09	5603.9	
401.3	3401	
401.5	4076.8	
401.7	5737	
401.91	5854.5	
402.11	3693.2	
402.32	3750.5	
402.52	5336.3	
402.72	5188.9	
402.93	3952.6	
403.13	3146.4	
403.33	5838.8	
403.54	4829.1	
403.74	3642	
403.94	4199.7	
404.15	4981.3	
404.35	5782.1	
404.56	3537.5	
404.76	4731.5	
404.96	5252.4	
405.17	5059.2	
405.37	4148.5	
405.57	3928.7	
405.78	5337	
405.98	4973.8	
406.18	3564.1	
406.39	4090.5	
406.59	5362.3	
406.79	4923.3	
407	3356.6	
407.2	3478.8	
407.4	5593	
407.61	5423.7	
407.81	3547.1	
408.01	5025.7	
408.22	4608.6	
408.42	5940.5	
408.62	4319.2	
408.83	3945.8	
409.03	5140.4	
409.23	5018.2	
409.44	4040.6	
409.64	4151.2	
409.84	5743.9	
410.05	5665.4	
410.25	4091.2	
410.45	3976.5	
410.66	5335.6	
410.86	7065.5	
411.06	4285.7	
411.27	4145.1	
411.47	6881.9	
411.67	5565.7	
411.88	4356	
412.08	4536.3	
412.28	5960.3	
412.49	6251.8	
412.69	4235.2	
412.89	4233.8	
413.09	6206.7	
413.3	6058.6	
413.5	4332.1	
413.7	4100.7	
413.91	5591	
414.11	6210.1	
414.31	4211.3	
414.52	4515.1	
414.72	6003.3	
414.92	5853.1	
415.12	4197.7	
415.33	4572.4	
415.53	6121.4	
415.73	6290	
415.94	4828.4	
416.14	4382.7	
416.34	5555.5	
416.55	5334.3	
416.75	5259.9	
416.95	4816.1	
417.15	6285.9	
417.36	6648.4	
417.56	5455.1	
417.76	4777.9	
417.97	6449.7	
418.17	6219.7	
418.37	4513	
418.57	4500.1	
418.78	6168.5	
418.98	5842.2	
419.18	5096.7	
419.38	5006.6	
419.59	5873.6	
419.79	5595.1	
419.99	4354	
420.2	4599.7	
420.4	6255.2	
420.6	6294.8	
420.8	4397.7	
421.01	4306.2	
421.21	6243.6	
421.41	6166.4	
421.61	4583.4	
421.82	4459.1	
422.02	5879.7	
422.22	6417	
422.42	4999.8	
422.63	4691.9	
422.83	5892	
423.03	6708.5	
423.23	4781.3	
423.44	4058.4	
423.64	5944.6	
423.84	5662.6	
424.04	4381.3	
424.25	4148.5	
424.45	6532.3	
424.65	6444.3	
424.85	4063.9	
425.06	4437.9	
425.26	6710.5	
425.46	5839.4	
425.66	4760.8	
425.87	4479.6	
426.07	6335.7	
426.27	6196.5	
426.47	4592.2	
426.67	4068.6	
426.88	6635.4	
427.08	6137.8	
427.28	4786.1	
427.48	4143.7	
427.69	5483.8	
427.89	5910.4	
428.09	4734.2	
428.29	4128.7	
428.5	6262	
428.7	6090.7	
428.9	4143	
429.1	4429.8	
429.3	6084.5	
429.51	6227.2	
429.71	4369	
429.91	4872.8	
430.11	6341.2	
430.31	6318.7	
430.52	4532.2	
430.72	4653.7	
430.92	6553.5	
431.12	6238.1	
431.32	4285.7	
431.53	4636.6	
431.73	5506.3	
431.93	6609.5	
432.13	4252.3	
432.33	4216.8	
432.54	5892	
432.74	5969.1	
432.94	4203.8	
433.14	4874.8	
433.34	6337.1	
433.55	5950.7	
433.75	4838.7	
433.95	6010.1	
434.15	6150.1	
434.35	5968.5	
434.56	4342.4	
434.76	4027	
434.96	6105.7	
435.16	6305.7	
435.36	4285	
435.56	5124.7	
435.77	5849.7	
435.97	6005.3	
436.17	5535.7	
436.37	4971.8	
436.57	5933	
436.78	5850.4	
436.98	6164.4	
437.18	5370.5	
437.38	6302.3	
437.58	5976	
437.78	5481.7	
437.99	4536.3	
438.19	6405.4	
438.39	6905.1	
438.59	4515.1	
438.79	4163.5	
438.99	6849.8	
439.2	5969.1	
439.4	4261.1	
439.6	4208.6	
439.8	6142.5	
440	6935.1	
440.2	4987.5	
440.4	4967	
440.61	6573.3	
440.81	6831.3	
441.01	4382.7	
441.21	4993.6	
441.41	6869.6	
441.61	6518	
441.81	5263.3	
442.02	5887.2	
442.22	7159	
442.42	6662.7	
442.62	4590.2	
442.82	4635.9	
443.02	6965.8	
443.22	6286.6	
443.43	4871.4	
443.63	4508.9	
443.83	6138.4	
444.03	6120	
444.23	5362.3	
444.43	5084.4	
444.63	6494.1	
444.83	7180.2	
445.04	4745.8	
445.24	5532.9	
445.44	6614.9	
445.64	6651.8	
445.84	5182	
446.04	5160.9	
446.24	6201.9	
446.44	6812.9	
446.65	4600.4	
446.85	4825	
447.05	6418.3	
447.25	6821.1	
447.45	4995.7	
447.65	4539	
447.85	6441.5	
448.05	6122.1	
448.25	5106.3	
448.46	5068	
448.66	6408.1	
448.86	6174.6	
449.06	4477.5	
449.26	5176.6	
449.46	6614.3	
449.66	6045.6	
449.86	4928.1	
450.06	4858.5	
450.26	6163.7	
450.47	6540.5	
450.67	5109.7	
450.87	5249.6	
451.07	6654.5	
451.27	6436.1	
451.47	4625	
451.67	5273.5	
451.87	6249	
452.07	7047.1	
452.27	4829.1	
452.47	4818.2	
452.67	6521.4	
452.88	6755.6	
453.08	4408.6	
453.28	5658.5	
453.48	7349.5	
453.68	6414.9	
453.88	4765.6	
454.08	4824.3	
454.28	6765.1	
454.48	6511.9	
454.68	5229.1	
454.88	5604.6	
455.08	6889.4	
455.28	6593.8	
455.48	4676.9	
455.68	5203.2	
455.89	7179.5	
456.09	6934.4	
456.29	4944.5	
456.49	5025.7	
456.69	7086	
456.89	6754.9	
457.09	5345.2	
457.29	5577.3	
457.49	6849.8	
457.69	6952.9	
457.89	5278.3	
458.09	4844.8	
458.29	6685.9	
458.49	7236.8	
458.69	5529.5	
458.89	5147.2	
459.09	7437.5	
459.29	7420.5	
459.49	5268.1	
459.69	5710.4	
459.9	7064.8	
460.1	6793.1	
460.3	5167.7	
460.5	4995	
460.7	7037.5	
460.9	6759	
461.1	4934.9	
461.3	5625.8	
461.5	7629.4	
461.7	7332.4	
461.9	5191.6	
462.1	5457.8	
462.3	6995.9	
462.5	7389.8	
462.7	5285.8	
462.9	5270.1	
463.1	8113.4	
463.3	7903.8	
463.5	5530.2	
463.7	6130.9	
463.9	7225.2	
464.1	7393.8	
464.3	5659.2	
464.5	5792.3	
464.7	7690.1	
464.9	7404.1	
465.1	6595.1	
465.3	6006	
465.5	7849.9	
465.7	7941.3	
465.9	6273.6	
466.1	5901.6	
466.3	7804.1	
466.5	7686	
466.7	6737.1	
466.9	5908.4	
467.1	7757.7	
467.3	8240.3	
467.5	6642.2	
467.7	5940.5	
467.9	8471.8	
468.1	9000.1	
468.3	6448.4	
468.5	6751.5	
468.7	7626.6	
468.9	7630	
469.1	6178	
469.3	6713.9	
469.5	9014.5	
469.7	7442.3	
469.9	6550.1	
470.1	6027.2	
470.3	7853.3	
470.5	7764.5	
470.7	6896.9	
470.9	6141.2	
471.1	7594.6	
471.3	7856	
471.5	6038.8	
471.69	7228	
471.89	7545.4	
472.09	7143.3	
472.29	6488	
472.49	6681.8	
472.69	7331	
472.89	7726.3	
473.09	5958.2	
473.29	5976.7	
473.49	7440.3	
473.69	7432.1	
473.89	6587.6	
474.09	6097.5	
474.29	8375.5	
474.49	8032.1	
474.69	6595.1	
474.89	6210.1	
475.09	7606.8	
475.29	7444.4	
475.49	5806.7	
475.69	6004	
475.88	8592.6	
476.08	7838.9	
476.28	5704.3	
476.48	5950	
476.68	8094.9	
476.88	7788.4	
477.08	5950.7	
477.28	6107	
477.48	7602.1	
477.68	7875.1	
477.88	5783.5	
478.08	6021	
478.28	8156.4	
478.48	7593.2	
478.67	6052.4	
478.87	5594.4	
479.07	8022.6	
479.27	7721.5	
479.47	6167.8	
479.67	6167.8	
479.87	7977.5	
480.07	8243.8	
480.27	5701.5	
480.47	6718	
480.67	7676.5	
480.87	8220.5	
481.06	5910.4	
481.26	6492.1	
481.46	7686	
481.66	7645.8	
481.86	6271.6	
482.06	6799.3	
482.26	7578.2	
482.46	8010.3	
482.66	6104.3	
482.86	5864.7	
483.05	7927	
483.25	7353.6	
483.45	7813.7	
483.65	6264.1	
483.85	7428.7	
484.05	7681.2	
484.25	6443.6	
484.45	6799.3	
484.65	8195.3	
484.84	8345.5	
485.04	6157.6	
485.24	6170.5	
485.44	8567.3	
485.64	7402.7	
485.84	5681.7	
486.04	6576.7	
486.24	7710.6	
486.44	7859.4	
486.63	5676.3	
486.83	6314.6	
487.03	7635.5	
487.23	7757	
487.43	5781.4	
487.63	7325.6	
487.83	7826	
488.02	8214.4	
488.22	6539.2	
488.42	6906.4	
488.62	8499.1	
488.82	7695.6	
489.02	6222.4	
489.22	6291.4	
489.41	8311.3	
489.61	8129.8	
489.81	6100.2	
490.01	6075.6	
490.21	8299.7	
490.41	8793.3	
490.61	6152.1	
490.8	6112.5	
491	7960.5	
491.2	7556.3	
491.4	6670.2	
491.6	6033.3	
491.8	8055.3	
491.99	7987.1	
492.19	5996.5	
492.39	6144.6	
492.59	8361.2	
492.79	8377.6	
492.99	6756.2	
493.18	6156.2	
493.38	8563.9	
493.58	8873.2	
493.78	6687.3	
493.98	6331	
494.18	8323.6	
494.37	7866.2	
494.57	6929	
494.77	6799.9	
494.97	8503.2	
495.17	8676.6	
495.37	6619	
495.56	6851.1	
495.76	8874.5	
495.96	8714.8	
496.16	7511.3	
496.36	6837.5	
496.55	8767.4	
496.75	8436.9	
496.95	7078.5	
497.15	6902.3	
497.35	8829.5	
497.54	8783.1	
497.74	6838.9	
497.94	8047.8	
498.14	9365.4	
498.34	9028.8	
498.53	6683.9	
498.73	7203.4	
498.93	8338.6	
499.13	8736.6	
499.33	7055.3	
499.52	7460.8	
499.72	8924.4	
499.92	8945.5	
500.12	6960.4	
500.32	7177.4	
500.51	9109.4	
500.71	8759.8	
500.91	7651.2	
501.11	7492.2	
501.31	8960.5	
501.5	9308	
501.7	7817.8	
501.9	7207.5	
502.1	8888.2	
502.29	9080	
502.49	7492.2	
502.69	7681.2	
502.89	9004.9	
503.09	9080	
503.28	6748.1	
503.48	6828.6	
503.68	8553.7	
503.88	8578.3	
504.07	7476.5	
504.27	7150.1	
504.47	8727.1	
504.67	8806.3	
504.86	7406.1	
505.06	7208.8	
505.26	8589.2	
505.46	9600.9	
505.65	7060	
505.85	7227.3	
506.05	8514.8	
506.25	8847.9	
506.44	6638.1	
506.64	7148.1	
506.84	8346.2	
507.04	8860.2	
507.23	6753.5	
507.43	7096.2	
507.63	9622.7	
507.83	8384.4	
508.02	7140.6	
508.22	6817.7	
508.42	9795.4	
508.62	8249.2	
508.81	6894.1	
509.01	7372	
509.21	8292.2	
509.4	8496.3	
509.6	7187.7	
509.8	6795.2	
510	8361.2	
510.19	9184.5	
510.39	6721.4	
510.59	6819.1	
510.79	8303.1	
510.98	9213.1	
511.18	6864.1	
511.38	6911.2	
511.57	9028.1	
511.77	8602.2	
511.97	7391.1	
512.17	6665.5	
512.36	8837	
512.56	8779.6	
512.76	6649.1	
512.95	6534.4	
513.15	9041.8	
513.35	7826	
513.55	7226.6	
513.74	6736.5	
513.94	8837.7	
514.14	8431.5	
514.33	7363.1	
514.53	7090.1	
514.73	8440.4	
514.92	8580.3	
515.12	6808.1	
515.32	6606.1	
515.51	8666.3	
515.71	8782.4	
515.91	7973.4	
516.11	6738.5	
516.3	9682.8	
516.5	8268.3	
516.7	7114	
516.89	7395.2	
517.09	8348.2	
517.29	8450.6	
517.48	7245	
517.68	6860.7	
517.88	8172.8	
518.07	8600.1	
518.27	7305.1	
518.47	6573.3	
518.66	9059.5	
518.86	8095.6	
519.06	6490.7	
519.25	6839.5	
519.45	8472.4	
519.65	9424.8	
519.84	7244.3	
520.04	7697.6	
520.24	9594.7	
520.43	8748.9	
520.63	7038.9	
520.83	6883.9	
521.02	8215.8	
521.22	8636.3	
521.42	7309.9	
521.61	7521.5	
521.81	8357.1	
522.01	8566.7	
522.2	7161.1	
522.4	6948.8	
522.6	8946.2	
522.79	7995.3	
522.99	7023.2	
523.18	6604.7	
523.38	8712.1	
523.58	8712.1	
523.77	7841.7	
523.97	6601.3	
524.17	9988.6	
524.36	9459.6	
524.56	7676.5	
524.76	7417.1	
524.95	8882	
525.15	8624	
525.34	7286.7	
525.54	7236.8	
525.74	9156.5	
525.93	8501.1	
526.13	8065.6	
526.33	7331.7	
526.52	9325.1	
526.72	8947.6	
526.91	8152.3	
527.11	7763.8	
527.31	9335.3	
527.5	9641.2	
527.7	7632.1	
527.89	6967.2	
528.09	8721.6	
528.29	9057.5	
528.48	7808.9	
528.68	7604.1	
528.87	9441.1	
529.07	9290.3	
529.27	7686	
529.46	7385.7	
529.66	9211.1	
529.85	9486.9	
530.05	7264.1	
530.25	7793.2	
530.44	10096	
530.64	9187.2	
530.83	7584.3	
531.03	7712.7	
531.23	9550.4	
531.42	9467.8	
531.62	8170.7	
531.81	7693.5	
532.01	9650	
532.21	9912.9	
532.4	7657.4	
532.6	7850.5	
532.79	10271	
532.99	9725.8	
533.18	7962.5	
533.38	8625.4	
533.58	9480	
533.77	9928.6	
533.97	7980.3	
534.16	8526.4	
534.36	10167	
534.55	9550.4	
534.75	8647.9	
534.95	8105.2	
535.14	10236	
535.34	9607.7	
535.53	7915.4	
535.73	9196.1	
535.92	10380	
536.12	9571.5	
536.31	7995.3	
536.51	8752.3	
536.71	9949.7	
536.9	9612.5	
537.1	7907.9	
537.29	8187.8	
537.49	10135	
537.68	9412.5	
537.88	8409.6	
538.07	7838.9	
538.27	9700.5	
538.46	10401	
538.66	7731.1	
538.86	8019.8	
539.05	9753.8	
539.25	10038	
539.44	8344.8	
539.64	7843	
539.83	9619.3	
540.03	10269	
540.22	7885.4	
540.42	7945.4	
540.61	9813.2	
540.81	9819.3	
541	8232.2	
541.2	8584.4	
541.39	9399.5	
541.59	9550.4	
541.78	8481.3	
541.98	7748.8	
542.18	9245.9	
542.37	9118.9	
542.57	8099	
542.76	8418.5	
542.96	9218.6	
543.15	9635.7	
543.35	8008.9	
543.54	7585	
543.74	9550.4	
543.93	9480	
544.13	7988.4	
544.32	8804.9	
544.52	9698.5	
544.71	9065	
544.91	7377.5	
545.1	8122.2	
545.3	9270.5	
545.49	9534.7	
545.69	7197.9	
545.88	7742	
546.08	10199	
546.27	9921	
546.47	7978.2	
546.66	7447.1	
546.86	9759.3	
547.05	10001	
547.24	7607.5	
547.44	7580.2	
547.63	8983.8	
547.83	9630.9	
548.02	7837.6	
548.22	7897	
548.41	8870.4	
548.61	9663	
548.8	7475.1	
549	7413.6	
549.19	9252	
549.39	9475.3	
549.58	7249.1	
549.78	7638.9	
549.97	9514.2	
550.17	9054.1	
550.36	8163.2	
550.55	8892.3	
550.75	9126.4	
550.94	9661	
551.14	7408.2	
551.33	7566.6	
551.53	8725.7	
551.72	9301.9	
551.92	7614.3	
552.11	7518.8	
552.31	9406.3	
552.5	9270.5	
552.69	8585.1	
552.89	7191.8	
553.08	9383.1	
553.28	9108	
553.47	7441.6	
553.67	8205.5	
553.86	9740.8	
554.06	8498.4	
554.25	6914.6	
554.44	7311.2	
554.64	10206	
554.83	9913.5	
555.03	7281.2	
555.22	7490.8	
555.42	9462.3	
555.61	9223.4	
555.8	7387	
556	7520.1	
556.19	8673.8	
556.39	9368.1	
556.58	7409.6	
556.78	7383.6	
556.97	9207.7	
557.16	8878.6	
557.36	8236.2	
557.55	7217.7	
557.75	8460.2	
557.94	9600.2	
558.13	7097.6	
558.33	7061.4	
558.52	9622	
558.72	8647.2	
558.91	7176.1	
559.1	7301.7	
559.3	8516.1	
559.49	8373.5	
559.69	7058.7	
559.88	7468.9	
560.07	9087.5	
560.27	9282.1	
560.46	7652.6	
560.66	7694.2	
560.85	8927.8	
561.04	8337.3	
561.24	7023.9	
561.43	7218.4	
561.63	8529.1	
561.82	8796	
562.01	8111.3	
562.21	7387.7	
562.4	9045.9	
562.59	9703.3	
562.79	7368.6	
562.98	7043.6	
563.18	8979.7	
563.37	9931.3	
563.56	7552.9	
563.76	7123.5	
563.95	8729.8	
564.14	8629.5	
564.34	7439.6	
564.53	7228	
564.73	9118.2	
564.92	9224.1	
565.11	7499.7	
565.31	7066.2	
565.5	9446.6	
565.69	8684.8	
565.89	7333.1	
566.08	7389.1	
566.27	9364	
566.47	9614.5	
566.66	7809.6	
566.85	7028.6	
567.05	9065	
567.24	8761.2	
567.44	7174.7	
567.63	8122.2	
567.82	9305.3	
568.02	8966	
568.21	7150.1	
568.4	7515.4	
568.6	9000.1	
568.79	9026.1	
568.98	7142.6	
569.18	7285.3	
569.37	9030.2	
569.56	10352	
569.76	7522.9	
569.95	8101.8	
570.14	9260.2	
570.34	9060.2	
570.53	7221.8	
570.72	7137.2	
570.91	9658.9	
571.11	9032.9	
571.3	7533.8	
571.49	8189.8	
571.69	9210.4	
571.88	8824.7	
572.07	7862.2	
572.27	7838.3	
572.46	8709.3	
572.65	9414.5	
572.85	7365.9	
573.04	7614.3	
573.23	9617.9	
573.43	9155.8	
573.62	7271.7	
573.81	7600	
574	9293.7	
574.2	8977.6	
574.39	7527.7	
574.58	7579.5	
574.78	9764.7	
574.97	9279.3	
575.16	7801.4	
575.36	8045.1	
575.55	9605.7	
575.74	9539.4	
575.93	7319.4	
576.13	8074.5	
576.32	9224.1	
576.51	9635.7	
576.71	7774.8	
576.9	8510	
577.09	9773.6	
577.28	9449.3	
577.48	7976.2	
577.67	7395.9	
577.86	9256.1	
578.05	9463.7	
578.25	7763.8	
578.44	7851.9	
578.63	9311.4	
578.83	10288	
579.02	7371.3	
579.21	8378.2	
579.4	9425.4	
579.6	9340.1	
579.79	7876.5	
579.98	9297.1	
580.17	9646.6	
580.37	9850	
580.56	7453.2	
580.75	8087.4	
580.94	9864.4	
581.14	10077	
581.33	8342.7	
581.52	7686.7	
581.71	9596.1	
581.91	10135	
582.1	7581.6	
582.29	7836.9	
582.48	9498.5	
582.68	9509.4	
582.87	8136.6	
583.06	8047.8	
583.25	9721.7	
583.45	9234.3	
583.64	8464.3	
583.83	8882	
584.02	9506.7	
584.21	9717.6	
584.41	8417.2	
584.6	7964.6	
584.79	9568.1	
584.98	9977	
585.18	7637.6	
585.37	7521.5	
585.56	9301.9	
585.75	9706.7	
585.94	7653.9	
586.14	8153.6	
586.33	9988.6	
586.52	9437.7	
586.71	8163.2	
586.91	7828	
587.1	9073.9	
587.29	9711.5	
587.48	7681.9	
587.67	7655.3	
587.87	9639.8	
588.06	9605.7	
588.25	8551.6	
588.44	8092.2	
588.63	9294.4	
588.83	9688.3	
589.02	7844.4	
589.21	7659.4	
589.4	9230.9	
589.59	9167.4	
589.78	7090.1	
589.98	7240.3	
590.17	8740	
590.36	9118.9	
590.55	6692.8	
590.74	7251.9	
590.94	9888.3	
591.13	8947.6	
591.32	7089.4	
591.51	6762.4	
591.7	9082.1	
591.89	8811	
592.09	6821.1	
592.28	7131.7	
592.47	8151.6	
592.66	9564	
592.85	6776.7	
593.05	7027.3	
593.24	8757.1	
593.43	9241.1	
593.62	7061.4	
593.81	7317.4	
594	8808.3	
594.19	8775.5	
594.39	6876.4	
594.58	6813.6	
594.77	8857.5	
594.96	9235	
595.15	6903	
595.34	7333.1	
595.54	8813.1	
595.73	8286.8	
595.92	6447	
596.11	7142.6	
596.3	9174.2	
596.49	8413.1	
596.68	7049.8	
596.88	7331	
597.07	8964.6	
597.26	8223.3	
597.45	6765.1	
597.64	7533.1	
597.83	8514.8	
598.02	8901.2	
598.22	6834.1	
598.41	7199.3	
598.6	8762.6	
598.79	8267	
598.98	6848.4	
599.17	7456	
599.36	8775.5	
599.55	9424.8	
599.74	8112	
599.94	8030.8	
600.13	9017.9	
600.32	8210.3	
600.51	6584.2	
600.7	6612.9	
600.89	9422.7	
601.08	9463.7	
601.27	6539.2	
601.47	7122.8	
601.66	8971.5	
601.85	9325.8	
602.04	7021.1	
602.23	7171.3	
602.42	8314.1	
602.61	8893	
602.8	6844.3	
602.99	6813.6	
603.18	8600.1	
603.37	8665	
603.57	7166.5	
603.76	7545.4	
603.95	9114.1	
604.14	8801.5	
604.33	6823.8	
604.52	6995.2	
604.71	8743.5	
604.9	8323.6	
605.09	7421.2	
605.28	7306.5	
605.47	9122.3	
605.66	8750.3	
605.86	7154.2	
606.05	6898.2	
606.24	9202.2	
606.43	8046.5	
606.62	7093.5	
606.81	7493.5	
607	9022.7	
607.19	8518.2	
607.38	6599.9	
607.57	6797.2	
607.76	8258.1	
607.95	7864.2	
608.14	7094.2	
608.33	7394.5	
608.52	8380.3	
608.72	8917.5	
608.91	6596.5	
609.1	6526.9	
609.29	8456.7	
609.48	8051.9	
609.67	7151.5	
609.86	6556.2	
610.05	8160.5	
610.24	8356.4	
610.43	6509.8	
610.62	6162.3	
610.81	9131.2	
611	8990.6	
611.19	6620.4	
611.38	7040.9	
611.57	8586.5	
611.76	9377.6	
611.95	6436.1	
612.14	6311.2	
612.33	8483.4	
612.52	8125.7	
612.71	6778.8	
612.9	6155.5	
613.09	7830.7	
613.28	9408.4	
613.47	6661.4	
613.66	7232.7	
613.85	8438.3	
614.04	8027.4	
614.24	6602.7	
614.43	6039.5	
614.62	8609	
614.81	8534.6	
615	6940.6	
615.19	6986.3	
615.38	8026	
615.57	8309.3	
615.76	6925.5	
615.95	7544	
616.14	8619.9	
616.33	8303.1	
616.52	7140.6	
616.71	7181.5	
616.9	8553.7	
617.09	8388.5	
617.28	6701	
617.47	7394.5	
617.66	8002.1	
617.85	8059.4	
618.04	7254.6	
618.22	6839.5	
618.41	8223.3	
618.6	8935.3	
618.79	6950.8	
618.98	6602.7	
619.17	9047.9	
619.36	7777.5	
619.55	6884.6	
619.74	6872.3	
619.93	8546.9	
620.12	8148.9	
620.31	7212.3	
620.5	7339.2	
620.69	8923	
620.88	9351.7	
621.07	7846.5	
621.26	7174	
621.45	8681.3	
621.64	8729.1	
621.83	7155.6	
622.02	6705.7	
622.21	8776.2	
622.4	8677.2	
622.59	7643	
622.78	7526.3	
622.97	8340.7	
623.16	9010.4	
623.35	7271.7	
623.54	6745.3	
623.72	8510.7	
623.91	8575.5	
624.1	7431.4	
624.29	6590.4	
624.48	9403.6	
624.67	8822.6	
624.86	7438.2	
625.05	6767.2	
625.24	9351	
625.43	8421.9	
625.62	8421.2	
625.81	6863.4	
626	9021.3	
626.19	8545.5	
626.38	7351.5	
626.56	6953.5	
626.75	8351.6	
626.94	8862.2	
627.13	7420.5	
627.32	6498.9	
627.51	8981.7	
627.7	9689.6	
627.89	6735.1	
628.08	7401.4	
628.27	8333.9	
628.46	8458.8	
628.65	6775.4	
628.83	6603.3	
629.02	8865.7	
629.21	8271.1	
629.4	7246.4	
629.59	7243.7	
629.78	8396	
629.97	9016.5	
630.16	7301	
630.35	6890.7	
630.54	9359.9	
630.72	9157.8	
630.91	7033.4	
631.1	7337.9	
631.29	8742.8	
631.48	8822	
631.67	7392.5	
631.86	6993.1	
632.05	8591.2	
632.24	8512	
632.42	6808.1	
632.61	7187.7	
632.8	8578.9	
632.99	8333.9	
633.18	7171.3	
633.37	7430.7	
633.56	8736.6	
633.75	8630.8	
633.93	7256	
634.12	7008.1	
634.31	9214.5	
634.5	8947.6	
634.69	7035.5	
634.88	7327.6	
635.07	8588.5	
635.25	8955.1	
635.44	7675.1	
635.63	7792.5	
635.82	8408.3	
636.01	7997.3	
636.2	7551.5	
636.39	7196.6	
636.57	9275.3	
636.76	8903.9	
636.95	6924.2	
637.14	7777.5	
637.33	8778.3	
637.52	9330.5	
637.7	6699.6	
637.89	7458	
638.08	8533.2	
638.27	9407	
638.46	7415	
638.65	7675.1	
638.83	9439.1	
639.02	8294.3	
639.21	7325.6	
639.4	7623.9	
639.59	8658.1	
639.78	8441	
639.96	6883.2	
640.15	6860	
640.34	8632.2	
640.53	8630.1	
640.72	6706.4	
640.91	6827.9	
641.09	8177.5	
641.28	9032.9	
641.47	6871.6	
641.66	7297.6	
641.85	8568	
642.03	8753.7	
642.22	7193.8	
642.41	6862.1	
642.6	8245.8	
642.79	7745.4	
642.97	6713.9	
643.16	7146.7	
643.35	8163.2	
643.54	8024.6	
643.73	6649.8	
643.91	7115.3	
644.1	7914.7	
644.29	8348.9	
644.48	6692.1	
644.67	6730.3	
644.85	7940.7	
645.04	8277.2	
645.23	6348.7	
645.42	6559	
645.6	7903.8	
645.79	8671.1	
645.98	6370.5	
646.17	5836	
646.36	7712.7	
646.54	8057.4	
646.73	7022.5	
646.92	6263.4	
647.11	7729.7	
647.29	8357.8	
647.48	6242.2	
647.67	6038.8	
647.86	8619.9	
648.05	8540.7	
648.23	6379.4	
648.42	7268.2	
648.61	8199.4	
648.8	8026.7	
648.98	6109.8	
649.17	6365.8	
649.36	7707.2	
649.55	7365.2	
649.73	6164.4	
649.92	6732.4	
650.11	7681.9	
650.3	7888.8	
650.48	6296.8	
650.67	6071.5	
650.86	8079.2	
651.05	7258.7	
651.23	6223.1	
651.42	6164.4	
651.61	7656	
651.79	7563.8	
651.98	6376	
652.17	6007.4	
652.36	7916.8	
652.54	7228.6	
652.73	6156.2	
652.92	6045.6	
653.11	7886	
653.29	7976.8	
653.48	5642.8	
653.67	6267.5	
653.85	7728.4	
654.04	8393.3	
654.23	6361	
654.42	6070.2	
654.6	7335.1	
654.79	7819.1	
654.98	5750	
655.16	6083.1	
655.35	7046.4	
655.54	6835.4	
655.73	5662.6	
655.91	5539.1	
656.1	7586.4	
656.29	6893.5	
656.47	5293.3	
656.66	6506.4	
656.85	7118.1	
657.03	7009.5	
657.22	5637.4	
657.41	5746.6	
657.59	7305.1	
657.78	7052.5	
657.97	5570.5	
658.16	5905	
658.34	7697.6	
658.53	8015.7	
658.72	6622.4	
658.9	6929.6	
659.09	7481.2	
659.28	7421.2	
659.46	5877	
659.65	5800.5	
659.84	7179.5	
660.02	7613	
660.21	5880.4	
660.4	5637.4	
660.58	7766.6	
660.77	7384.3	
660.96	6092.7	
661.14	5502.9	
661.33	8239.7	
661.52	8088.8	
661.7	5433.3	
661.89	7828.7	
662.08	7213.6	
662.26	6753.5	
662.45	5705	
662.64	5821	
662.82	7722.2	
663.01	7103	
663.2	5864.7	
663.38	6299.6	
663.57	7621.2	
663.75	7494.9	
663.94	5971.9	
664.13	6808.8	
664.31	7312.6	
664.5	7613	
664.69	6207.4	
664.87	6489.3	
665.06	7025.9	
665.25	7546.8	
665.43	6736.5	
665.62	6676.4	
665.8	7658	
665.99	7194.5	
666.18	6022.4	
666.36	5986.2	
666.55	7679.9	
666.74	7531.1	
666.92	5821.7	
667.11	6808.1	
667.29	7318.8	
667.48	7668.3	
667.67	6472.3	
667.85	5855.8	
668.04	7139.2	
668.22	7108.5	
668.41	6006	
668.6	6234	
668.78	7105.1	
668.97	7292.1	
669.15	6076.3	
669.34	5496.1	
669.53	7129.7	
669.71	7290.8	
669.9	5639.4	
670.08	6070.9	
670.27	7038.2	
670.46	7447.8	
670.64	6210.1	
670.83	6412.9	
671.01	6855.2	
671.2	7326.9	
671.38	5707.7	
671.57	5683.1	
671.76	7841.7	
671.94	8086.7	
672.13	5531.6	
672.31	6257.2	
672.5	7593.9	
672.69	7036.1	
672.87	5698.1	
673.06	5864.7	
673.24	7428	
673.43	7089.4	
673.61	6085.9	
673.8	5852.4	
673.98	7456.7	
674.17	7603.4	
674.36	6281.1	
674.54	6240.2	
674.73	7232.7	
674.91	7653.9	
675.1	5909.8	
675.28	5673.6	
675.47	7211.6	
675.65	7587	
675.84	5823.7	
676.03	6119.3	
676.21	7047.7	
676.4	6713.2	
676.58	6324.8	
676.77	6167.1	
676.95	8088.8	
677.14	7001.3	
677.32	5599.1	
677.51	5474.9	
677.69	7543.4	
677.88	6891.4	
678.06	5577.3	
678.25	5672.9	
678.44	7208.8	
678.62	6953.5	
678.81	5464.7	
678.99	6043.6	
679.18	7744.1	
679.36	7487.4	
679.55	5812.1	
679.73	6178.7	
679.92	7372	
680.1	7053.9	
680.29	6627.2	
680.47	5758.2	
680.66	7075	
680.84	7542	
681.03	5365	
681.21	6046.3	
681.4	6966.5	
681.58	6961.7	
681.77	5672.2	
681.95	5601.2	
682.14	7645.1	
682.32	7824.6	
682.51	6262.7	
682.69	5481.7	
682.88	6987.7	
683.06	7364.5	
683.25	6028.5	
683.43	6372.6	
683.62	7250.5	
683.8	7426.6	
683.99	6446.3	
684.17	5861.3	
684.36	7999.4	
684.54	7043	
684.73	5447.6	
684.91	5473.5	
685.1	7348.1	
685.28	6833.4	
685.46	5817.6	
685.65	5794.4	
685.83	7258.7	
686.02	6853.2	
686.2	5330.2	
686.39	5379.3	
686.57	6514.6	
686.76	7561.1	
686.94	5294	
687.13	5435.3	
687.31	6977.4	
687.5	6773.3	
687.68	5006.6	
687.86	5770.5	
688.05	7940	
688.23	6446.3	
688.42	5887.2	
688.6	5399.1	
688.79	6769.9	
688.97	6699.6	
689.16	5729.5	
689.34	5001.1	
689.52	7293.5	
689.71	7531.7	
689.89	5987.6	
690.08	5466.7	
690.26	7109.2	
690.45	6907.8	
690.63	6153.5	
690.81	5627.8	
691	7020.4	
691.18	6857.3	
691.37	5749.3	
691.55	7122.8	
691.74	6720.8	
691.92	8018.5	
692.1	5560.2	
692.29	5259.9	
692.47	6897.6	
692.66	6422.4	
692.84	5364.3	
693.02	5685.8	
693.21	6449.7	
693.39	6846.4	
693.58	5785.5	
693.76	5320.6	
693.94	7523.6	
694.13	7468.3	
694.31	5427.8	
694.5	6115.9	
694.68	6701.6	
694.86	7015	
695.05	5685.2	
695.23	5801.9	
695.42	7247.1	
695.6	8708.6	
695.78	6043.6	
695.97	5551.4	
696.15	7401.4	
696.34	6822.5	
696.52	5406.6	
696.7	6052.4	
696.89	7123.5	
697.07	6639.5	
697.25	5849.7	
697.44	6784.9	
697.62	7093.5	
697.81	7223.9	
697.99	5556.1	
698.17	5963	
698.36	6701.6	
698.54	7114.6	
698.72	5767.1	
698.91	5157.5	
699.09	6713.9	
699.28	6514.6	
699.46	5551.4	
699.64	5422.3	
699.83	6645.7	
700.01	7254.6	
700.19	6020.3	
700.38	4935.6	
700.56	7355.6	
700.74	6640.2	
700.93	5177.9	
701.11	5715.9	
701.29	6969.9	
701.48	7749.5	
701.66	5341.1	
701.84	5422.3	
702.03	6721.4	
702.21	7276.4	
702.39	5050.3	
702.58	5463.3	
702.76	7064.8	
702.94	7048.4	
703.13	5023.7	
703.31	6674.3	
703.49	6635.4	
703.68	7402	
703.86	5109.7	
704.04	5804.6	
704.23	6812.2	
704.41	7092.1	
704.59	5276.3	
704.78	5803.3	
704.96	7980.9	
705.14	7089.4	
705.33	5126.1	
705.51	5599.1	
705.69	6570.6	
705.87	7313.3	
706.06	5777.3	
706.24	4958.1	
706.42	6900.3	
706.61	6986.3	
706.79	5771.2	
706.97	4986.1	
707.16	6521.4	
707.34	6830	
707.52	5670.8	
707.7	5100.1	
707.89	6533.7	
708.07	6281.1	
708.25	5729.5	
708.44	5910.4	
708.62	6480.5	
708.8	7208.8	
708.98	5915.9	
709.17	5273.5	
709.35	6775.4	
709.53	6744.6	
709.72	4983.4	
709.9	5044.8	
710.08	6974.7	
710.26	6958.3	
710.45	6070.2	
710.63	5122	
710.81	6665.5	
710.99	6631.3	
711.18	5541.1	
711.36	5178.6	
711.54	6507.8	
711.72	7021.1	
711.91	5317.9	
712.09	4934.2	
712.27	6569.2	
712.45	7002.7	
712.64	5362.3	
712.82	4642.7	
713	6118	
713.18	6229.2	
713.37	4760.2	
713.55	5485.8	
713.73	6820.4	
713.91	5875.6	
714.1	4920.6	
714.28	4576.5	
714.46	6503	
714.64	5948.7	
714.83	4200.4	
715.01	4689.2	
715.19	6013.5	
715.37	5425.8	
715.55	4317.8	
715.74	4438.6	
715.92	6408.8	
716.1	5047.6	
716.28	5273.5	
716.47	4539	
716.65	5549.3	
716.83	5522.7	
717.01	4415.4	
717.19	4455	
717.38	7038.2	
717.56	5270.1	
717.74	4653	
717.92	4032.5	
718.1	6201.9	
718.29	5582.1	
718.47	3728	
718.65	4303.5	
718.83	6169.8	
719.01	6052.4	
719.2	3734.8	
719.38	4492.6	
719.56	5924.1	
719.74	6917.4	
719.92	4226.3	
720.11	4971.8	
720.29	5970.5	
720.47	5294	
720.65	3922.5	
720.83	4483.7	
721.02	5606.7	
721.2	5418.2	
721.38	4503.5	
721.56	3920.5	
721.74	4972.5	
721.92	5133.6	
722.11	4731.5	
722.29	4532.8	
722.47	6006.7	
722.65	5410.7	
722.83	3943	
723.01	4575.8	
723.2	5414.1	
723.38	5667.4	
723.56	3587.4	
723.74	4307.6	
723.92	5093.3	
724.1	5806	
724.29	3873.4	
724.47	4668	
724.65	5189.6	
724.83	5042.8	
725.01	3803.1	
725.19	4332.1	
725.37	5067.4	
725.56	5094	
725.74	3717.7	
725.92	3877.5	
726.1	5044.8	
726.28	5266	
726.46	4120.5	
726.64	3867.9	
726.83	5283.1	
727.01	5347.9	
727.19	3656.3	
727.37	4272.1	
727.55	5347.9	
727.73	5693.4	
727.91	3572.3	
728.09	3493.2	
728.28	5715.9	
728.46	5778	
728.64	4220.2	
728.82	4202.4	
729	6333.7	
729.18	5884.5	
729.36	3697.9	
729.54	5128.8	
729.72	6486.6	
729.91	5401.2	
730.09	5003.9	
730.27	4044.7	
730.45	5316.5	
730.63	5746.6	
730.81	4513.7	
730.99	3842	
731.17	6073.6	
731.35	5113.1	
731.53	4239.3	
731.71	3943.7	
731.9	5887.9	
732.08	5947.3	
732.26	4137.6	
732.44	3909.6	
732.62	6046.3	
732.8	5657.2	
732.98	4370.4	
733.16	3741	
733.34	5771.2	
733.52	4746.5	
733.7	4095.9	
733.88	4267.3	
734.07	5591	
734.25	5410.1	
734.43	3663.8	
734.61	4717.2	
734.79	6390.3	
734.97	5329.5	
735.15	3827.7	
735.33	4038.6	
735.51	5594.4	
735.69	5289.2	
735.87	5041.4	
736.05	4121.2	
736.23	5414.1	
736.41	5164.3	
736.59	3971.7	
736.77	4109.6	
736.95	5672.9	
737.13	5307	
737.32	3715.7	
737.5	3882.3	
737.68	6095.4	
737.86	5217.5	
738.04	3634.5	
738.22	4904.2	
738.4	5132.2	
738.58	5353.4	
738.76	4015.4	
738.94	3390.1	
739.12	5212.8	
739.3	5066	
739.48	4454.3	
739.66	4246.8	
739.84	5300.8	
740.02	5257.1	
740.2	3389.4	
740.38	3581.9	
740.56	5625.1	
740.74	4762.9	
740.92	4095.9	
741.1	3951.2	
741.28	5164.3	
741.46	4966.3	
741.64	3781.2	
741.82	4076.8	
742	5184.8	
742.18	5137	
742.36	3867.9	
742.54	3547.1	
742.72	5542.5	
742.9	4707.6	
743.08	4129.4	
743.26	3267.9	
743.44	5593.7	
743.62	5495.4	
743.8	4223.6	
743.98	3546.4	
744.16	5326.8	
744.34	5126.7	
744.52	4110.3	
744.7	4064.5	
744.88	5496.1	
745.06	5065.3	
745.24	4208.6	
745.42	4202.4	
745.6	5544.5	
745.78	5468.8	
745.96	3388	
746.14	3644.7	
746.32	6024.4	
746.5	5449.6	
746.68	3988.8	
746.86	3594.2	
747.03	5722	
747.21	4674.8	
747.39	3952.6	
747.57	3583.3	
747.75	5244.8	
747.93	5490.6	
748.11	3537.5	
748.29	3508.9	
748.47	6318.7	
748.65	4952	
748.83	4057.7	
749.01	3907.5	
749.19	5291.3	
749.37	4701.5	
749.55	3839.3	
749.73	3865.9	
749.91	5109	
750.09	4989.5	
750.26	3889.1	
750.44	3478.8	
750.62	5158.8	
750.8	5075.5	
750.98	3448.8	
751.16	3559.4	
751.34	5255.8	
751.52	4702.1	
751.7	4122.6	
751.88	3347.7	
752.06	5479.7	
752.24	5252.4	
752.42	3329.3	
752.59	3594.2	
752.77	5102.9	
752.95	5954.1	
753.13	4040	
753.31	3654.3	
753.49	4855.7	
753.67	5137	
753.85	3887.7	
754.03	3510.2	
754.21	5426.4	
754.38	5509.7	
754.56	3615.3	
754.74	3024.8	
754.92	4827.1	
755.1	5261.9	
755.28	3051.5	
755.46	3092.4	
755.64	5864.7	
755.82	5954.1	
755.99	3261.7	
756.17	3347.1	
756.35	4208.6	
756.53	5243.5	
756.71	2614.6	
756.89	3246.7	
757.07	4953.4	
757.25	4316.4	
757.42	3540.9	
757.6	4033.1	
757.78	5032.5	
757.96	4348.5	
758.14	3360	
758.32	3051.5	
758.5	3996.3	
758.67	4659.8	
758.85	3329.3	
759.03	3306.8	
759.21	4760.2	
759.39	4329.4	
759.57	2960.7	
759.75	3716.4	
759.92	5212.8	
760.1	4818.9	
760.28	3985.3	
760.46	4148.5	
760.64	4591.5	
760.82	4428.4	
760.99	3880.2	
761.17	3322.5	
761.35	5166.3	
761.53	4384	
761.71	3483.6	
761.89	3842	
762.06	5036.6	
762.24	4659.1	
762.42	3482.9	
762.6	3241.9	
762.78	4672.8	
762.96	4642.1	
763.13	3721.2	
763.31	3415.3	
763.49	5154.1	
763.67	4631.1	
763.85	4037.2	
764.02	4416.1	
764.2	5459.2	
764.38	4757.4	
764.56	3441.3	
764.74	3971.7	
764.91	5471.5	
765.09	4638.6	
765.27	3208.5	
765.45	3080.1	
765.63	5492.7	
765.8	5382.7	
765.98	2889	
766.16	3059	
766.34	4432.5	
766.52	4198.3	
766.69	3758	
766.87	2999.6	
767.05	4740.4	
767.23	5217.5	
767.41	3205.8	
767.58	3406.5	
767.76	5132.2	
767.94	5174.5	
768.12	3319.8	
768.29	3747.1	
768.47	4771.1	
768.65	5241.4	
768.83	3074	
769	3762.8	
769.18	4465.3	
769.36	4922.6	
769.54	3812.6	
769.72	3057.6	
769.89	5248.3	
770.07	5137.7	
770.25	3294.5	
770.43	4147.1	
770.6	5692	
770.78	5950.7	
770.96	3442	
771.14	3824.2	
771.31	5143.8	
771.49	4704.2	
771.67	2803	
771.85	2962.7	
772.02	4154.6	
772.2	4663.9	
772.38	3529.3	
772.55	3160.7	
772.73	4872.8	
772.91	4676.2	
773.09	3362.8	
773.26	3520.5	
773.44	4847.5	
773.62	4622.3	
773.8	3127.2	
773.97	2973	
774.15	4896	
774.33	4614.8	
774.5	3025.5	
774.68	3241.3	
774.86	4954	
775.04	4599.1	
775.21	3119.1	
775.39	3083.6	
775.57	4833.9	
775.74	4993.6	
775.92	2996.2	
776.1	2868.5	
776.27	4784.1	
776.45	5636	
776.63	3149.8	
776.81	2822.8	
776.98	4559.5	
777.16	5251	
777.34	3188	
777.51	3403.7	
777.69	4534.9	
777.87	4406.5	
778.04	3355.9	
778.22	3585.3	
778.4	4423.6	
778.57	4946.5	
778.75	2764.1	
778.93	2921.1	
779.1	4298	
779.28	4172.4	
779.46	2766.8	
779.64	3039.2	
779.81	4989.5	
779.99	5500.8	
780.17	3609.9	
780.34	3667.2	
780.52	4607.2	
780.69	4751.3	
780.87	3275.4	
781.05	2953.2	
781.22	4664.6	
781.4	4655	
781.58	3098.6	
781.75	2510.1	
781.93	4684.4	
782.11	4205.2	
782.28	3704.1	
782.46	3075.4	
782.64	4143	
782.81	4767	
782.99	3172.3	
783.17	3093.1	
783.34	4692.6	
783.52	4276.8	
783.69	3214.6	
783.87	3829	
784.05	4334.2	
784.22	4240	
784.4	3783.3	
784.58	3336.8	
784.75	5000.5	
784.93	4400.4	
785.1	3089.7	
785.28	3461.7	
785.46	4748.6	
785.63	4194.9	
785.81	3126.6	
785.99	2929.3	
786.16	4419.5	
786.34	4605.9	
786.51	3003.7	
786.69	3293.1	
786.87	4094.6	
787.04	4473.4	
787.22	2957.3	
787.39	3588	
787.57	4315.8	
787.75	5031.2	
787.92	3714.3	
788.1	3648.8	
788.27	4287.8	
788.45	4070	
788.63	3438.5	
788.8	2603.7	
788.98	4615.4	
789.15	3977.8	
789.33	2708.1	
789.5	3078.1	
789.68	4919.2	
789.86	4969.7	
790.03	3352.5	
790.21	3041.2	
790.38	4954	
790.56	4379.2	
790.73	2919.7	
790.91	2901.3	
791.09	4285	
791.26	4761.5	
791.44	3130.7	
791.61	2682.2	
791.79	4296	
791.96	4258.4	
792.14	2834.4	
792.32	2482.8	
792.49	4275.5	
792.67	4393.6	
792.84	2906.8	
793.02	2767.5	
793.19	4672.8	
793.37	5075.5	
793.54	2537.4	
793.72	2757.9	
793.89	5104.2	
794.07	4221.5	
794.25	3229	
794.42	2604.3	
794.6	5007.3	
794.77	4719.9	
794.95	3323.9	
795.12	2957.9	
795.3	4264.6	
795.47	4682.3	
795.65	3213.3	
795.82	3057.6	
796	4182.6	
796.17	5343.2	
796.35	3075.4	
796.52	3532.1	
796.7	4659.1	
796.87	4691.9	
797.05	3033.7	
797.22	3599.6	
797.4	4691.9	
797.57	5324.7	
797.75	3181.2	
797.92	2917.7	
798.1	4941.1	
798.27	4194.2	
798.45	2639.1	
798.62	2792.7	
798.8	4526.7	
798.97	4826.4	
799.15	3220.1	
799.32	3177.8	
799.5	3979.9	
799.67	4461.2	
799.85	3333.4	
800.02	2575.7	
800.2	4265.9	
800.37	4442.7	
800.55	3479.5	
800.72	2946.3	
800.9	4819.6	
801.07	5023	
801.25	3838.6	
801.42	3221.5	
801.6	4830.5	
801.77	4488.5	
801.95	3011.9	
802.12	2886.3	
802.29	4622.9	
802.47	4545.8	
802.64	3266.5	
802.82	2538.8	
802.99	4277.5	
803.17	4885.1	
803.34	3149.1	
803.52	2927.2	
803.69	5388.2	
803.87	4097.3	
804.04	3166.2	
804.21	3204.4	
804.39	5015.5	
804.56	4362.9	
804.74	2754.5	
804.91	3198.9	
805.09	4267.3	
805.26	4304.1	
805.44	2798.9	
805.61	2983.2	
805.78	4778.6	
805.96	4661.9	
806.13	3203.7	
806.31	3461.7	
806.48	3984.7	
806.66	4308.2	
806.83	3176.4	
807	3133.4	
807.18	4280.9	
807.35	4464.6	
807.53	3016	
807.7	2633.7	
807.87	5015.5	
808.05	4255	
808.22	3409.9	
808.4	2628.2	
808.57	4227.7	
808.74	4027	
808.92	2953.2	
809.09	3562.8	
809.27	4297.3	
809.44	4532.2	
809.61	2590	
809.79	2871.3	
809.96	5169.8	
810.14	4754.7	
810.31	2613.2	
810.48	3100.6	
810.66	4355.3	
810.83	4788.2	
811.01	2930.6	
811.18	3136.1	
811.35	4801.1	
811.53	3861.8	
811.7	3446.7	
811.87	3256.3	
812.05	4391.5	
812.22	4261.8	
812.39	2869.2	
812.57	2766.1	
812.74	4327.4	
812.92	5415.5	
813.09	3050.8	
813.26	3245.3	
813.44	5191.6	
813.61	4191.5	
813.78	2620.7	
813.96	3353.9	
814.13	4339.6	
814.3	4095.3	
814.48	3559.4	
814.65	3039.9	
814.82	5028.4	
815	4043.4	
815.17	3092.4	
815.34	3732.1	
815.52	4240.7	
815.69	4200.4	
815.87	3033	
816.04	3019.4	
816.21	4262.5	
816.38	3897.3	
816.56	3033.7	
816.73	2870.6	
816.9	5295.4	
817.08	4755.4	
817.25	2907.4	
817.42	3404.4	
817.6	3997	
817.77	4207.2	
817.94	3116.3	
818.12	2796.8	
818.29	4089.8	
818.46	5893.4	
818.64	2962	
818.81	2785.2	
818.98	4114.4	
819.16	5481.7	
819.33	3349.1	
819.5	3133.4	
819.67	4514.4	
819.85	4975.9	
820.02	3087.7	
820.19	3281.5	
820.37	4431.1	
820.54	4182.6	
820.71	3191.4	
820.88	3851.5	
821.06	4446.1	
821.23	4117.1	
821.4	3189.4	
821.58	3121.8	
821.75	4747.9	
821.92	4417.5	
822.09	2668.5	
822.27	2785.2	
822.44	4328.7	
822.61	4201.1	
822.79	2650.8	
822.96	4650.3	
823.13	4533.5	
823.3	4058.4	
823.48	2966.8	
823.65	2744.3	
823.82	4803.2	
823.99	4000.4	
824.17	3675.4	
824.34	2772.3	
824.51	5393	
824.68	4331.5	
824.86	2940.9	
825.03	3116.3	
825.2	4275.5	
825.37	4987.5	
825.55	2896.5	
825.72	3095.2	
825.89	5337	
826.06	5041.4	
826.24	3047.4	
826.41	3056.3	
826.58	5037.3	
826.75	4433.9	
826.92	2534.7	
827.1	2719	
827.27	6505.7	
827.44	5228.5	
827.61	2889.7	
827.79	3474.7	
827.96	4164.2	
828.13	4280.9	
828.3	3005.7	
828.47	2600.9	
828.65	4518.5	
828.82	4481	
828.99	3719.8	
829.16	3275.4	
829.34	4827.7	
829.51	4683	
829.68	3096.5	
829.85	3164.8	
830.02	5087.8	
830.2	4790.9	
830.37	2478	
830.54	3646.7	
830.71	5310.4	
830.88	4362.2	
831.05	2496.5	
831.23	2820.1	
831.4	5193.6	
831.57	5590.3	
831.74	2902.7	
831.91	2587.9	
832.09	4649.6	
832.26	4752.7	
832.43	2934.1	
832.6	3301.3	
832.77	4541.7	
832.94	5059.8	
833.12	2427.5	
833.29	2951.8	
833.46	4632.5	
833.63	5774.6	
833.8	3203	
833.97	2962.7	
834.15	4823.6	
834.32	4745.1	
834.49	3069.2	
834.66	3163.4	
834.83	4889.9	
835	4160.1	
835.17	2857.6	
835.35	2828.9	
835.52	4757.4	
835.69	4595.6	
835.86	3017.3	
836.03	2536.8	
836.2	4777.2	
836.37	4495.3	
836.55	2955.9	
836.72	2813.9	
836.89	4472.8	
837.06	4893.3	
837.23	3041.2	
837.4	3235.8	
837.57	5332.2	
837.75	5739.1	
837.92	2742.2	
838.09	2934.7	
838.26	4457.7	
838.43	4914.4	
838.6	3038.5	
838.77	2811.9	
838.94	5464.7	
839.11	5325.4	
839.29	2967.5	
839.46	2385.9	
839.63	4829.8	
839.8	4577.9	
839.97	2869.9	
840.14	2854.2	
840.31	4634.6	
840.48	4807.3	
840.65	2500.6	
840.82	2877.4	
841	4758.8	
841.17	4694.6	
841.34	2706.7	
841.51	2768.9	
841.68	4778.6	
841.85	4508.3	
842.02	2780.5	
842.19	2380.4	
842.36	4668	
842.53	4618.9	
842.7	2716.3	
842.87	3158	
843.05	5693.4	
843.22	4498.7	
843.39	2508.1	
843.56	2786.6	
843.73	4474.1	
843.9	4825	
844.07	4155.3	
844.24	3544.4	
844.41	6344.6	
844.58	4257.7	
844.75	2629.6	
844.92	2822.1	
845.09	4761.5	
845.26	4738.3	
845.43	2656.2	
845.6	2783.9	
845.77	4771.1	
845.94	4603.8	
846.12	2976.4	
846.29	3059	
846.46	4949.3	
846.63	4743.1	
846.8	2696.5	
846.97	3117	
847.14	5093.3	
847.31	4749.9	
847.48	2934.7	
847.65	3276.1	
847.82	4936.3	
847.99	4886.5	
848.16	3431.7	
848.33	3235.8	
848.5	4385.4	
848.67	5096	
848.84	2657.6	
849.01	2787.3	
849.18	4376.5	
849.35	4166.3	
849.52	3228.3	
849.69	2641.9	
849.86	4909.7	
850.03	4951.3	
850.2	2713.6	
850.37	3145.7	
850.54	4988.2	
850.71	4479.6	
850.88	3158	
851.05	2575	
851.22	4663.9	
851.39	5084.4	
851.56	2517	
851.73	3028.9	
851.9	4290.5	
852.07	4904.2	
852.24	2957.9	
852.41	2638.5	
852.58	4742.4	
852.75	4323.9	
852.92	2984.6	
853.09	2572.2	
853.26	4366.3	
853.43	5008.6	
853.6	2658.3	
853.77	2342.9	
853.94	5137	
854.11	4214.7	
854.28	3792.2	
854.44	2874	
854.61	5356.8	
854.78	4986.8	
854.95	2677.4	
855.12	3280.8	
855.29	3971.7	
855.46	5277.6	
855.63	2708.8	
855.8	3540.3	
855.97	4428.4	
856.14	5008	
856.31	3620.1	
856.48	2859	
856.65	4544.4	
856.82	4206.5	
856.99	2600.9	
857.16	2839.2	
857.33	5539.8	
857.49	4545.8	
857.66	2915.6	
857.83	2996.2	
858	4539	
858.17	4637.3	
858.34	2512.9	
858.51	2703.3	
858.68	5174.5	
858.85	5183.4	
859.02	3056.3	
859.19	3190.7	
859.36	4272.7	
859.52	4219.5	
859.69	2637.8	
859.86	3091.8	
860.03	4342.4	
860.2	5113.8	
860.37	2479.4	
860.54	2704	
860.71	4889.2	
860.88	5178.6	
861.05	2951.1	
861.21	3277.4	
861.38	5150	
861.55	4095.3	
861.72	2428.2	
861.89	2981.8	
862.06	4948.6	
862.23	5225.7	
862.4	2592	
862.56	2713.6	
862.73	4773.8	
862.9	4564.2	
863.07	3056.3	
863.24	2467.1	
863.41	4235.2	
863.58	4289.8	
863.75	2689.7	
863.91	3059.7	
864.08	5038.7	
864.25	4856.4	
864.42	3243.3	
864.59	3632.4	
864.76	5310.4	
864.93	4260.5	
865.09	2582.5	
865.26	2827.6	
865.43	5093.3	
865.6	5283.1	
865.77	2442.5	
865.94	2641.9	
866.1	5037.3	
866.27	4773.1	
866.44	3842.7	
866.61	2570.9	
866.78	4545.1	
866.95	4773.1	
867.11	2613.2	
867.28	2404.3	
867.45	5020.9	
867.62	4248.2	
867.79	3107.5	
867.96	2652.8	
868.12	4249.5	
868.29	4837.3	
868.46	2695.8	
868.63	3454.2	
868.8	4981.3	
868.97	4884.4	
869.13	2756.6	
869.3	2775.7	
869.47	4725.3	
869.64	4960.9	
869.81	2656.2	
869.97	2677.4	
870.14	4646.8	
870.31	5193.6	
870.48	2652.1	
870.65	3356.6	
870.81	4473.4	
870.98	4513	
871.15	2992.1	
871.32	2747	
871.48	4799.8	
871.65	5203.2	
871.82	2631.6	
871.99	2920.4	
872.16	5502.2	
872.32	5076.2	
872.49	2692.4	
872.66	2690.3	
872.83	4908.3	
872.99	4372.4	
873.16	3030.3	
873.33	2714.9	
873.5	4664.6	
873.67	4671.4	
873.83	2840.5	
874	3454.2	
874.17	4741	
874.34	5376.6	
874.5	3376.4	
874.67	3196.2	
874.84	5081.7	
875.01	4122.6	
875.17	3542.3	
875.34	2643.2	
875.51	4644.8	
875.68	5515.2	
875.84	3159.3	
876.01	3675.4	
876.18	4855.1	
876.34	4809.3	
876.51	2671.2	
876.68	2622.1	
876.85	4488.5	
877.01	5034.6	
877.18	3635.1	
877.35	2641.9	
877.52	4690.5	
877.68	4239.3	
877.85	2614.6	
878.02	2603	
878.18	4534.9	
878.35	4440	
878.52	2195.4	
878.69	3112.2	
878.85	4999.1	
879.02	4865.3	
879.19	3680.9	
879.35	2840.5	
879.52	4891.2	
879.69	4904.2	
879.86	2402.9	
880.02	2956.6	
880.19	4606.6	
880.36	5401.9	
880.52	2942.9	
880.69	3118.4	
880.86	4943.8	
881.02	4941.1	
881.19	2919	
881.36	2887.6	
881.52	4814.8	
881.69	4343.7	
881.86	2903.3	
882.02	2770.2	
882.19	5017.5	
882.36	5773.2	
882.52	2710.8	
882.69	3636.5	
882.86	4678.9	
883.02	4704.2	
883.19	3160.7	
883.36	2954.5	
883.52	4949.9	
883.69	5505.6	
883.86	2680.1	
884.02	2462.3	
884.19	4876.2	
884.36	4686.4	
884.52	2986.6	
884.69	2848	
884.86	4435.2	
885.02	5229.8	
885.19	2927.9	
885.36	3037.1	
885.52	4582	
885.69	4749.9	
885.86	3742.3	
886.02	3297.2	
886.19	4931.5	
886.35	4393.6	
886.52	2934.1	
886.69	3596.9	
886.85	4298.7	
887.02	5057.8	
887.19	5057.8	
887.35	5057.8	
887.52	5057.8	
887.68	5057.8	
887.85	5057.8	
888.02	5057.8	
888.18	5057.8	
888.35	5057.8	
888.51	5057.8	
888.68	5057.8	
888.85	5057.8	
889.01	5057.8	
889.18	5057.8	
889.35	5057.8	
889.51	5057.8	
889.68	5057.8	
889.84	5057.8	
890.01	5057.8	
890.17	5057.8	
890.34	5057.8	
890.51	5057.8	
890.67	5057.8	
890.84	5057.8	
891	5057.8	
891.17	5057.8	
891.34	5057.8	
891.5	5057.8	
891.67	5057.8	
891.83	5057.8	
892	5057.8	
892.16	5057.8	
892.33	5057.8	
892.5	5057.8	
892.66	5057.8	
892.83	5057.8	
892.99	5057.8	
893.16	5057.8	
893.32	5057.8	
893.49	5057.8	
893.65	5057.8	
893.82	5057.8	
893.99	5057.8	
894.15	5057.8	
894.32	5057.8	
894.48	5057.8	
894.65	5057.8	
894.81	5057.8	
894.98	5057.8	
895.14	5057.8	
895.31	5057.8	
895.47	5057.8	
895.64	5057.8	
895.81	5057.8	
895.97	5057.8	
896.14	5057.8	
896.3	5057.8	
896.47	5057.8	
896.63	5057.8	
896.8	5057.8	
896.96	5057.8	
897.13	5057.8	
897.29	5057.8	
897.46	5057.8	
897.62	5057.8	
897.79	5057.8	
897.95	5057.8	
898.12	5057.8	
898.28	5057.8	
898.45	5057.8	
898.61	5057.8	
898.78	5057.8	
898.94	5057.8	
899.11	5057.8	
899.27	5057.8	
899.44	5057.8	
899.6	5057.8	
899.77	5057.8	
899.93	5057.8	
900.1	5057.8	
900.26	5057.8	
900.43	5057.8	
900.59	5057.8	
900.76	5057.8	
900.92	5057.8	
901.09	5057.8	
901.25	5057.8	
901.42	5057.8	
901.58	5057.8	
901.75	5057.8	
901.91	5057.8	
902.07	5057.8	
902.24	5057.8	
902.4	5057.8	
902.57	5057.8	
902.73	5057.8	
902.9	5057.8	
903.06	5057.8	
903.23	5057.8	
903.39	5057.8	
903.56	5057.8	
903.72	5057.8	
903.88	5057.8	
904.05	5057.8	
904.21	5057.8	
904.38	5057.8	
904.54	5057.8	
904.71	5057.8	
904.87	5057.8	
905.03	5057.8	
905.2	5057.8	
905.36	5057.8	
905.53	5057.8	
905.69	5057.8	
905.86	5057.8	
906.02	5057.8	
906.18	5057.8	
906.35	5057.8	
906.51	5057.8	
906.68	5057.8	
906.84	5057.8	
907.01	5057.8	
907.17	5057.8	
907.33	5057.8	
907.5	5057.8	
907.66	5057.8	
907.83	5057.8	
907.99	5057.8	
908.15	5057.8	
908.32	5057.8	
908.48	5057.8	
908.65	5057.8	
908.81	5057.8	
908.97	5057.8	
909.14	5057.8	
909.3	5057.8	
909.47	5057.8	
909.63	5057.8	
909.79	5057.8	
909.96	5057.8	
910.12	5057.8	
910.28	5057.8	
910.45	5057.8	
910.61	5057.8	
910.78	5057.8	
910.94	5057.8	
911.1	5057.8	
911.27	5057.8	
911.43	5057.8	
911.59	5057.8	
911.76	5057.8	
911.92	5057.8	
912.08	5057.8	
912.25	5057.8	
912.41	5057.8	
912.57	5057.8	
912.74	5057.8	
912.9	5057.8	
913.07	5057.8	
913.23	5057.8	
913.39	5057.8	
913.56	5057.8	
913.72	5057.8	
913.88	5057.8	
914.05	5057.8	
914.21	5057.8	
914.37	5057.8	
914.54	5057.8	
914.7	5057.8	
914.86	5057.8	
915.03	5057.8	
915.19	5057.8	
