Wavelength	Intensities	
nm	a.u.	
179.22	1925.6	
179.44	1924.7	
179.65	1926.5	
179.86	1923	
180.08	1972.2	
180.29	5087.2	
180.51	3591.5	
180.72	5753.4	
180.94	6789.7	
181.15	3305.4	
181.37	3213.9	
181.58	5631.9	
181.79	5897.5	
182.01	3424.9	
182.22	3697.3	
182.44	5817.6	
182.65	4866	
182.87	4684.4	
183.08	4141	
183.29	6190.3	
183.51	5059.2	
183.72	3749.1	
183.94	5458.5	
184.15	5469.4	
184.37	5541.1	
184.58	3269.9	
184.79	4504.2	
185.01	5036.6	
185.22	5855.8	
185.44	4814.1	
185.65	4045.4	
185.86	5412.1	
186.08	4992.9	
186.29	3173	
186.51	3433.8	
186.72	5132.9	
186.94	6054.5	
187.15	3953.3	
187.36	4102.8	
187.58	7873.8	
187.79	5578.7	
188.01	4339.6	
188.22	6776	
188.43	6744.6	
188.65	5881.1	
188.86	3423.5	
189.08	4121.2	
189.29	5268.7	
189.5	5228.5	
189.72	3832.4	
189.93	3875.4	
190.15	6064	
190.36	7318.8	
190.57	4270.7	
190.79	4104.1	
191	6154.1	
191.22	6082.5	
191.43	4156	
191.64	3437.9	
191.86	6380.1	
192.07	6142.5	
192.29	3624.9	
192.5	3821.5	
192.71	6053.1	
192.93	5174.5	
193.14	3815.4	
193.35	3886.4	
193.57	5320.6	
193.78	6080.4	
194	3025.5	
194.21	3763.5	
194.42	5025.7	
194.64	5515.2	
194.85	4188.8	
195.07	4798.4	
195.28	5651	
195.49	4784.1	
195.71	5128.1	
195.92	3556.6	
196.13	5687.2	
196.35	5846.3	
196.56	5487.2	
196.78	4204.5	
196.99	7162.4	
197.2	6743.3	
197.42	4768.4	
197.63	4173.1	
197.84	4902.2	
198.06	5702.2	
198.27	3807.2	
198.48	5082.4	
198.7	5292	
198.91	5422.3	
199.13	4137.6	
199.34	4190.1	
199.55	5929.6	
199.77	4749.2	
199.98	3601	
200.19	4229.7	
200.41	5339.1	
200.62	5059.2	
200.83	4341	
201.05	4671.4	
201.26	5412.1	
201.47	5119.9	
201.69	3640.6	
201.9	3553.9	
202.11	5435.3	
202.33	6505.7	
202.54	3902.7	
202.76	4428.4	
202.97	5618.3	
203.18	5615.5	
203.4	4360.1	
203.61	4224.3	
203.82	5578.7	
204.04	5145.2	
204.25	4192.2	
204.46	4102.8	
204.68	5498.8	
204.89	5804.6	
205.1	4081.6	
205.32	3460.4	
205.53	5966.4	
205.74	6058.6	
205.96	2997.5	
206.17	4268.6	
206.38	5871.5	
206.6	5992.4	
206.81	4831.8	
207.02	3920.5	
207.24	5771.2	
207.45	6195.8	
207.66	3956.7	
207.88	3317	
208.09	5719.3	
208.3	5530.9	
208.52	3684.3	
208.73	4085	
208.94	5528.2	
209.15	6285.2	
209.37	3984.7	
209.58	4172.4	
209.79	6024.4	
210.01	5315.2	
210.22	3183.9	
210.43	3286.3	
210.65	5498.8	
210.86	5956.2	
211.07	3934.1	
211.29	3650.8	
211.5	5915.9	
211.71	5423	
211.93	3648.1	
212.14	3616.7	
212.35	5457.8	
212.56	5670.1	
212.78	4216.1	
212.99	3422.8	
213.2	6494.8	
213.42	5219.6	
213.63	3747.1	
213.84	4055	
214.06	4804.5	
214.27	5003.9	
214.48	3956	
214.69	4280.9	
214.91	6227.9	
215.12	6276.3	
215.33	4364.2	
215.55	4803.2	
215.76	6805.4	
215.97	5959.6	
216.18	4149.2	
216.4	4029	
216.61	5161.6	
216.82	6015.6	
217.04	3713.6	
217.25	3819.5	
217.46	6184.9	
217.67	5950.7	
217.89	3257.6	
218.1	3429.7	
218.31	5636	
218.53	5719.3	
218.74	3848.1	
218.95	3779.9	
219.16	5425.8	
219.38	6497.5	
219.59	3693.9	
219.8	4440	
220.01	7199.3	
220.23	5519.3	
220.44	4877.6	
220.65	3621.5	
220.87	5578.7	
221.08	6120.7	
221.29	3352.5	
221.5	4565.6	
221.72	7681.2	
221.93	5205.3	
222.14	4242.7	
222.35	4941.7	
222.57	5482.4	
222.78	5861.3	
222.99	3932.8	
223.2	4336.2	
223.42	5868.8	
223.63	5995.1	
223.84	3061.7	
224.05	3050.8	
224.27	7087.3	
224.48	6474.3	
224.69	5099.4	
224.9	4153.3	
225.12	5812.1	
225.33	5524.7	
225.54	3379.1	
225.75	3683.6	
225.97	5088.5	
226.18	5379.3	
226.39	4012	
226.6	3719.1	
226.82	5225.7	
227.03	5085.8	
227.24	4162.8	
227.45	3383.9	
227.67	5877.7	
227.88	6506.4	
228.09	4616.1	
228.3	4748.6	
228.52	5978	
228.73	5462.6	
228.94	3891.8	
229.15	3472	
229.36	5365.7	
229.58	5365	
229.79	3918.4	
230	4571.7	
230.21	6510.5	
230.43	5608.7	
230.64	4138.3	
230.85	4341.7	
231.06	5853.8	
231.28	5959.6	
231.49	3411.2	
231.7	4103.4	
231.91	5877	
232.12	5543.9	
232.34	3532.1	
232.55	4095.3	
232.76	6124.8	
232.97	5665.4	
233.18	3654.3	
233.4	4156.7	
233.61	5697.4	
233.82	5286.5	
234.03	3843.4	
234.25	3817.4	
234.46	7702.4	
234.67	5627.8	
234.88	4275.5	
235.09	3693.9	
235.31	5841.5	
235.52	5367.7	
235.73	4123.9	
235.94	3503.4	
236.15	5262.6	
236.37	6761.7	
236.58	3708.9	
236.79	4017.4	
237	5802.6	
237.21	5003.9	
237.43	4365.6	
237.64	3356.6	
237.85	10160	
238.06	5016.8	
238.27	4401.8	
238.48	3471.3	
238.7	5925.5	
238.91	5390.3	
239.12	3995.6	
239.33	3921.9	
239.54	5086.5	
239.76	5451.7	
239.97	3917.1	
240.18	4007.9	
240.39	6971.3	
240.6	5856.5	
240.82	4110.3	
241.03	3426.9	
241.24	5530.2	
241.45	6491.4	
241.66	3614.7	
241.87	4329.4	
242.09	6266.8	
242.3	6668.2	
242.51	4371	
242.72	4021.5	
242.93	5975.3	
243.14	5464	
243.36	4666.6	
243.57	5053	
243.78	6374	
243.99	5894.7	
244.2	4080.9	
244.41	3628.3	
244.63	5066	
244.84	5849	
245.05	4311.7	
245.26	4070	
245.47	5747.3	
245.68	6142.5	
245.9	5273.5	
246.11	4224.3	
246.32	5333.6	
246.53	5766.4	
246.74	6525.5	
246.95	3341.6	
247.16	4983.4	
247.38	5539.8	
247.59	3343.7	
247.8	4023.6	
248.01	5145.2	
248.22	5445.5	
248.43	3652.2	
248.64	3898	
248.86	4843.4	
249.07	5250.3	
249.28	3509.5	
249.49	4130.1	
249.7	6102.3	
249.91	6244.3	
250.12	3315.7	
250.34	3388	
250.55	5622.4	
250.76	5532.9	
250.97	4124.6	
251.18	4214	
251.39	6258.6	
251.6	5726.1	
251.81	4254.3	
252.03	4258.4	
252.24	5249.6	
252.45	6087.9	
252.66	3495.2	
252.87	4437.3	
253.08	5545.9	
253.29	7312.6	
253.5	3471.3	
253.72	4888.5	
253.93	5351.3	
254.14	6554.2	
254.35	3842	
254.56	3900	
254.77	5734.3	
254.98	5122.7	
255.19	3794.2	
255.41	4838	
255.62	5573.2	
255.83	6203.3	
256.04	4326.7	
256.25	4210.6	
256.46	6870.9	
256.67	5164.3	
256.88	4098	
257.09	4635.2	
257.31	5180.7	
257.52	5160.9	
257.73	5223.7	
257.94	3736.9	
258.15	5330.2	
258.36	5532.9	
258.57	4829.1	
258.78	2985.3	
258.99	6027.2	
259.2	5358.2	
259.41	3917.1	
259.63	3874.1	
259.84	6361	
260.05	6895.5	
260.26	5038	
260.47	3627.6	
260.68	6152.8	
260.89	5440.8	
261.1	4622.9	
261.31	3644	
261.52	6076.3	
261.73	6449.7	
261.95	4992.9	
262.16	4339	
262.37	6302.3	
262.58	6412.9	
262.79	4966.3	
263	3940.3	
263.21	5461.2	
263.42	5004.6	
263.63	4013.3	
263.84	3890.5	
264.05	6083.8	
264.26	6464.1	
264.47	4776.5	
264.69	4377.2	
264.9	6255.2	
265.11	5717.9	
265.32	3717.7	
265.53	3812.6	
265.74	5674.2	
265.95	4889.9	
266.16	4070.7	
266.37	4511.7	
266.58	5621	
266.79	5315.8	
267	3764.2	
267.21	3476.1	
267.42	5068	
267.63	5488.6	
267.84	4015.4	
268.06	3364.8	
268.27	5968.5	
268.48	6210.1	
268.69	3882.9	
268.9	4691.2	
269.11	6203.3	
269.32	5031.9	
269.53	4070.7	
269.74	3698.6	
269.95	5889.3	
270.16	4855.7	
270.37	3984.7	
270.58	4615.4	
270.79	5374.6	
271	6132.3	
271.21	4302.1	
271.42	4024.9	
271.63	5643.5	
271.84	5153.4	
272.05	3222.1	
272.26	3568.2	
272.47	5505.6	
272.68	5701.5	
272.89	3826.3	
273.11	4485.7	
273.32	5318.6	
273.53	6595.8	
273.74	4368.3	
273.95	4177.9	
274.16	6247.7	
274.37	5598.5	
274.58	4345.8	
274.79	3512.9	
275	5652.4	
275.21	6226.5	
275.42	5309.7	
275.63	4534.9	
275.84	5763.7	
276.05	7297.6	
276.26	4315.1	
276.47	4018.1	
276.68	5343.8	
276.89	6576	
277.1	4599.1	
277.31	3553.9	
277.52	5839.4	
277.73	5939.8	
277.94	3439.9	
278.15	3855.6	
278.36	5746.6	
278.57	5118.6	
278.78	3822.2	
278.99	4360.8	
279.2	5111.7	
279.41	5053	
279.62	5014.1	
279.83	3500.7	
280.04	6766.5	
280.25	5040.1	
280.46	5086.5	
280.67	4026.3	
280.88	5074.9	
281.09	6197.2	
281.3	4215.4	
281.51	5364.3	
281.72	5225.1	
281.93	6043.6	
282.14	3712.3	
282.35	4002.4	
282.56	6001.2	
282.77	6083.1	
282.98	3861.8	
283.19	4785.4	
283.4	7428.7	
283.61	5467.4	
283.82	3556.6	
284.03	4960.9	
284.24	5635.3	
284.45	6225.1	
284.66	4977.2	
284.87	4820.9	
285.08	6122.7	
285.29	6239.5	
285.5	3379.1	
285.71	3971	
285.92	6214.2	
286.12	6888.7	
286.33	4961.5	
286.54	3881.6	
286.75	6006	
286.96	5328.8	
287.17	3525.9	
287.38	4909	
287.59	5152.7	
287.8	5053	
288.01	3908.2	
288.22	4580.6	
288.43	6072.9	
288.64	5003.9	
288.85	4709	
289.06	4505.5	
289.27	5945.3	
289.48	6506.4	
289.69	4992.9	
289.9	4555.4	
290.11	6206	
290.32	5220.3	
290.53	4776.5	
290.74	4369.7	
290.94	6017.6	
291.15	6077.7	
291.36	3806.5	
291.57	4506.9	
291.78	5282.4	
291.99	4916.5	
292.2	3584.6	
292.41	4375.1	
292.62	6137.8	
292.83	5907.7	
293.04	5419.6	
293.25	3616.7	
293.46	5333.6	
293.67	6187.6	
293.88	3722.5	
294.09	3646.1	
294.29	5065.3	
294.5	5682.4	
294.71	4054.3	
294.92	3820.8	
295.13	5306.3	
295.34	6694.1	
295.55	3381.2	
295.76	3491.8	
295.97	5991.7	
296.18	6774.7	
296.39	3596.2	
296.6	3736.9	
296.81	5576.6	
297.01	5955.5	
297.22	3896.6	
297.43	3723.9	
297.64	5113.1	
297.85	5135.6	
298.06	3088.3	
298.27	3394.2	
298.48	5608.7	
298.69	5218.9	
298.9	4121.9	
299.11	3591.5	
299.31	5031.9	
299.52	5064.6	
299.73	4339	
299.94	4300.1	
300.15	5476.3	
300.36	5121.3	
300.57	4310.3	
300.78	4272.7	
300.99	5390.3	
301.2	5672.2	
301.4	3713	
301.61	4098.7	
301.82	5917.3	
302.03	6081.1	
302.24	4575.8	
302.45	3521.8	
302.66	5877	
302.87	6322.1	
303.08	3776.5	
303.29	5156.1	
303.49	5292	
303.7	5611.4	
303.91	3361.4	
304.12	4891.9	
304.33	4953.4	
304.54	5680.4	
304.75	3819.5	
304.96	3596.2	
305.16	5858.6	
305.37	6623.8	
305.58	3268.6	
305.79	3408.5	
306	5862	
306.21	4912.4	
306.42	3788.1	
306.63	5784.8	
306.83	5391.6	
307.04	6189	
307.25	4130.1	
307.46	4166.9	
307.67	4681.7	
307.88	5982.8	
308.09	3670	
308.29	3853.6	
308.5	5642.2	
308.71	6177.4	
308.92	4033.1	
309.13	3626.3	
309.34	5403.2	
309.55	5442.1	
309.75	4639.3	
309.96	4313	
310.17	5982.1	
310.38	5221	
310.59	4490.5	
310.8	3489.1	
311.01	5332.9	
311.21	5416.2	
311.42	3537.5	
311.63	3741.6	
311.84	5289.9	
312.05	5708.4	
312.26	4176.5	
312.46	4625	
312.67	5401.9	
312.88	5055.1	
313.09	3619.4	
313.3	3553.2	
313.51	6388.3	
313.71	6746	
313.92	3588.7	
314.13	3839.3	
314.34	5711.8	
314.55	5433.3	
314.76	4639.3	
314.96	4031.1	
315.17	5589.6	
315.38	5915.2	
315.59	3647.4	
315.8	3428.3	
316.01	6490	
316.21	6529.6	
316.42	3513.6	
316.63	4025.6	
316.84	5395	
317.05	6355.5	
317.26	4255	
317.46	3871.3	
317.67	5468.8	
317.88	5911.8	
318.09	4637.3	
318.3	3407.8	
318.5	5259.2	
318.71	5859.9	
318.92	5962.3	
319.13	4330.1	
319.34	6025.8	
319.54	6236.7	
319.75	3315	
319.96	3179.8	
320.17	5945.3	
320.38	6158.2	
320.58	3297.9	
320.79	4018.8	
321	6116.6	
321.21	6216.3	
321.42	4049.5	
321.62	3281.5	
321.83	5105.6	
322.04	5528.2	
322.25	3855	
322.46	3640.6	
322.66	5565	
322.87	5759.6	
323.08	4592.2	
323.29	3575.1	
323.5	6630.6	
323.7	5083.1	
323.91	4928.8	
324.12	4450.2	
324.33	5621	
324.53	5861.3	
324.74	4297.3	
324.95	4517.8	
325.16	4897.4	
325.37	5367	
325.57	3648.8	
325.78	3704.1	
325.99	5603.9	
326.2	5002.5	
326.4	5152	
326.61	3327.9	
326.82	5437.4	
327.03	5655.8	
327.24	5233.9	
327.44	4992.3	
327.65	5838.8	
327.86	4679.6	
328.07	4358.1	
328.27	3470.6	
328.48	6267.5	
328.69	5130.2	
328.9	5309.7	
329.1	3892.5	
329.31	5412.8	
329.52	6395.1	
329.73	3609.9	
329.93	4137.6	
330.14	5537.7	
330.35	5777.3	
330.56	6107.7	
330.76	4475.5	
330.97	5341.1	
331.18	5731.6	
331.39	4065.9	
331.59	3242.6	
331.8	6208.1	
332.01	6323.4	
332.22	3755.3	
332.42	4306.9	
332.63	5701.5	
332.84	5215.5	
333.05	4136.9	
333.25	3702.7	
333.46	5328.1	
333.67	5522.7	
333.88	3801.7	
334.08	4271.4	
334.29	7451.9	
334.5	6228.6	
334.7	3536.8	
334.91	5214.1	
335.12	5092.6	
335.33	5993.7	
335.53	3998.3	
335.74	6029.9	
335.95	5326.1	
336.16	5123.3	
336.36	3978.5	
336.57	4682.3	
336.78	5029.8	
336.98	6189	
337.19	4947.9	
337.4	3942.3	
337.61	6655.2	
337.81	5042.1	
338.02	3693.9	
338.23	4863.9	
338.43	6350.1	
338.64	5182.7	
338.85	3669.3	
339.05	4803.2	
339.26	6417	
339.47	4945.2	
339.68	3605.8	
339.88	5446.9	
340.09	5747.3	
340.3	6021.7	
340.5	4261.1	
340.71	3263.8	
340.92	4968.4	
341.13	6304.3	
341.33	3482.2	
341.54	4373.8	
341.75	5749.3	
341.95	5418.2	
342.16	4101.4	
342.37	4445.5	
342.57	5098.1	
342.78	5515.2	
342.99	4515.8	
343.19	3304.7	
343.4	5980.1	
343.61	5801.9	
343.81	3898	
344.02	3582.6	
344.23	5969.8	
344.43	6374.6	
344.64	4513.7	
344.85	4460.5	
345.06	5843.5	
345.26	6213.5	
345.47	4237.9	
345.68	5012.1	
345.88	4885.8	
346.09	6046.3	
346.3	4308.2	
346.5	3207.1	
346.71	5599.1	
346.92	5292.6	
347.12	3364.8	
347.33	4196.3	
347.54	6115.9	
347.74	6574.7	
347.95	4149.9	
348.16	3069.2	
348.36	5349.3	
348.57	5160.9	
348.78	4141.7	
348.98	4459.8	
349.19	5525.4	
349.39	5023	
349.6	3336.8	
349.81	3693.9	
350.01	5791	
350.22	5253.7	
350.43	4041.3	
350.63	4911.7	
350.84	5574.6	
351.05	5333.6	
351.25	3595.6	
351.46	3297.9	
351.67	6126.8	
351.87	5210.7	
352.08	3899.3	
352.29	4460.5	
352.49	6007.4	
352.7	5701.5	
352.9	3510.2	
353.11	4487.1	
353.32	6719.4	
353.52	5350.7	
353.73	3496.6	
353.94	4512.4	
354.14	5787.6	
354.35	5728.2	
354.55	3614.7	
354.76	4068.6	
354.97	5821.7	
355.17	5509.7	
355.38	3398.3	
355.59	4766.3	
355.79	5129.5	
356	5659.9	
356.2	4007.9	
356.41	3478.1	
356.62	4952.7	
356.82	5440.8	
357.03	4315.8	
357.24	3926.6	
357.44	5252.4	
357.65	5340.4	
357.85	5203.9	
358.06	4042	
358.27	4955.4	
358.47	5201.8	
358.68	3351.2	
358.88	4340.3	
359.09	5805.3	
359.3	6226.5	
359.5	5001.1	
359.71	4375.1	
359.91	6671.6	
360.12	5971.2	
360.33	4312.3	
360.53	4780.6	
360.74	5242.1	
360.94	5300.8	
361.15	4457.7	
361.36	3665.2	
361.56	6081.8	
361.77	5458.5	
361.97	5040.1	
362.18	3946.4	
362.38	6100.9	
362.59	5061.2	
362.8	3623.5	
363	3487.7	
363.21	4921.3	
363.41	5759.6	
363.62	4235.2	
363.83	5242.1	
364.03	5690.6	
364.24	6756.9	
364.44	5348.6	
364.65	5411.4	
364.85	5470.8	
365.06	5115.1	
365.27	3850.9	
365.47	3824.9	
365.68	6520	
365.88	5431.9	
366.09	4280.9	
366.29	3933.5	
366.5	5748	
366.71	6162.3	
366.91	5265.3	
367.12	4407.9	
367.32	6784.9	
367.53	5990.3	
367.73	4343.1	
367.94	5431.2	
368.14	5943.2	
368.35	6966.5	
368.56	4409.3	
368.76	3634.5	
368.97	6023.8	
369.17	7912	
369.38	3796.3	
369.58	4160.1	
369.79	5107	
369.99	6414.2	
370.2	5139	
370.4	4209.9	
370.61	5823.1	
370.82	7009.5	
371.02	4154	
371.23	3429	
371.43	4994.3	
371.64	6393.1	
371.84	4183.3	
372.05	5418.2	
372.25	7755	
372.46	6113.2	
372.66	4160.8	
372.87	4093.2	
373.07	6082.5	
373.28	7830.1	
373.48	5198.4	
373.69	4943.1	
373.9	5601.9	
374.1	5697.4	
374.31	5231.9	
374.51	4750.6	
374.72	6513.2	
374.92	5382.7	
375.13	5377.3	
375.33	4565.6	
375.54	6102.9	
375.74	5560.2	
375.95	4620.2	
376.15	5891.3	
376.36	6070.9	
376.56	5941.2	
376.77	4719.9	
376.97	5194.3	
377.18	7208.2	
377.38	6247.7	
377.59	5509	
377.79	4154	
378	6059.3	
378.2	6432.7	
378.41	4293.2	
378.61	4141.7	
378.82	6510.5	
379.02	5567.7	
379.23	4347.8	
379.43	5571.8	
379.64	6610.8	
379.84	6118.6	
380.05	4252.9	
380.25	4162.2	
380.46	6235.4	
380.66	5832.6	
380.87	5662.6	
381.07	6072.2	
381.28	6918	
381.48	6312.5	
381.69	4154	
381.89	4307.6	
382.1	5221.6	
382.3	6421.7	
382.51	5431.2	
382.71	6350.8	
382.91	6276.3	
383.12	6830	
383.32	4562.9	
383.53	4863.2	
383.73	6075.6	
383.94	5823.1	
384.14	4726.7	
384.35	3842	
384.55	5821.7	
384.76	6272.9	
384.96	4554.7	
385.17	4949.3	
385.37	6167.1	
385.58	5470.8	
385.78	4956.8	
385.98	3796.9	
386.19	5680.4	
386.39	6122.1	
386.6	4341.7	
386.8	4700.1	
387.01	6281.8	
387.21	6301.6	
387.42	5049.6	
387.62	5758.2	
387.83	5552.7	
388.03	6337.1	
388.23	4715.1	
388.44	5613.5	
388.64	5269.4	
388.85	5421.7	
389.05	5072.1	
389.26	5721.3	
389.46	7336.5	
389.67	6728.3	
389.87	5010	
390.07	5106.3	
390.28	5880.4	
390.48	5468.8	
390.69	4291.9	
390.89	4567.7	
391.1	5638.1	
391.3	6705.7	
391.5	5825.8	
391.71	6465.4	
391.91	6412.2	
392.12	7441	
392.32	5891.3	
392.53	5073.5	
392.73	5695.4	
392.93	5916.6	
393.14	4711.7	
393.34	5442.8	
393.55	6492.7	
393.75	5933	
393.95	4629.1	
394.16	4607.2	
394.36	5675.6	
394.57	6422.4	
394.77	4232.5	
394.98	4674.8	
395.18	5701.5	
395.38	5940.5	
395.59	5705.6	
395.79	4541	
396	5869.5	
396.2	6349.4	
396.4	5383.4	
396.61	5354.1	
396.81	6619.7	
397.02	5795.8	
397.22	5681.1	
397.42	5708.4	
397.63	6576	
397.83	5726.1	
398.04	4442.7	
398.24	5053.7	
398.44	6343.2	
398.65	5407.3	
398.85	4411.3	
399.05	4499.4	
399.26	5786.2	
399.46	7567.9	
399.67	4911	
399.87	4637.3	
400.07	6151.4	
400.28	6503.7	
400.48	4762.9	
400.69	5812.8	
400.89	6870.3	
401.09	7217.7	
401.3	4562.9	
401.5	5849.7	
401.7	7538.6	
401.91	7777.5	
402.11	4864.6	
402.32	5137	
402.52	6649.8	
402.72	6527.6	
402.93	5231.2	
403.13	4000.4	
403.33	7354.9	
403.54	6036	
403.74	4904.2	
403.94	5975.3	
404.15	6292	
404.35	7415	
404.56	4914.4	
404.76	6787.7	
404.96	6784.9	
405.17	6552.8	
405.37	5941.2	
405.57	5418.2	
405.78	6872.3	
405.98	6199.2	
406.18	4838.7	
406.39	5729.5	
406.59	6730.3	
406.79	6273.6	
407	4610.7	
407.2	4768.4	
407.4	6930.3	
407.61	7127.6	
407.81	4937.7	
408.01	7226.6	
408.22	5946.6	
408.42	8049.2	
408.62	6135	
408.83	5603.9	
409.03	6679.1	
409.23	6395.8	
409.44	5741.8	
409.64	6010.8	
409.84	7665.5	
410.05	7497.6	
410.25	5883.1	
410.45	5631.2	
410.66	7086.7	
410.86	9562	
411.06	6171.9	
411.27	5969.1	
411.47	9389.9	
411.67	7156.3	
411.88	6212.9	
412.08	6538.5	
412.28	7853.3	
412.49	8421.9	
412.69	5991.7	
412.89	6017.6	
413.09	8202.8	
413.3	8063.5	
413.5	6072.9	
413.7	5659.2	
413.91	7292.8	
414.11	8215.1	
414.31	5898.1	
414.52	6440.9	
414.72	7893.6	
414.92	7731.1	
415.12	5957.5	
415.33	6463.4	
415.53	8118.1	
415.73	8367.3	
415.94	6821.1	
416.14	6255.2	
416.34	7165.2	
416.55	6908.5	
416.75	7576.1	
416.95	6963.1	
417.15	8140.7	
417.36	8989.2	
417.56	7782.3	
417.76	6868.2	
417.97	8655.4	
418.17	8287.4	
418.37	6276.3	
418.57	6380.8	
418.78	7951.6	
418.98	7612.3	
419.18	7202.7	
419.38	7167.2	
419.59	7651.2	
419.79	7225.2	
419.99	6296.1	
420.2	6640.2	
420.4	8277.9	
420.6	8424	
420.8	6135	
421.01	6025.1	
421.21	7989.8	
421.41	8283.4	
421.61	6499.6	
421.82	6178	
422.02	7442.3	
422.22	8484.1	
422.42	7055.9	
422.63	6632	
422.83	7661.5	
423.03	8829.5	
423.23	6756.9	
423.44	5625.1	
423.64	7570	
423.84	7385.7	
424.04	5981.4	
424.25	5734.3	
424.45	8707.3	
424.65	8527.7	
424.85	5535.7	
425.06	6118.6	
425.26	8557.1	
425.46	7084.6	
425.66	6681.8	
425.87	6231.3	
426.07	8381.7	
426.27	8143.4	
426.47	6418.3	
426.67	5721.3	
426.88	8602.2	
427.08	8077.9	
427.28	6774	
427.48	5717.2	
427.69	6937.2	
427.89	7572	
428.09	6704.4	
428.29	5736.4	
428.5	8282.7	
428.7	7877.2	
428.9	5707.7	
429.1	6292	
429.3	7813	
429.51	8273.8	
429.71	5921.4	
429.91	6819.1	
430.11	8077.2	
430.31	8731.9	
430.52	6314.6	
430.72	6604.7	
430.92	8701.8	
431.12	8112.7	
431.32	6004.6	
431.53	6416.3	
431.73	6955.6	
431.93	8824.7	
432.13	5981.4	
432.33	5813.5	
432.54	7499	
432.74	7956.4	
432.94	5780.1	
433.14	6913.9	
433.34	8068.3	
433.55	7604.8	
433.75	6735.1	
433.95	8756.4	
434.15	7914	
434.35	7669.6	
434.56	5993	
434.76	5506.3	
434.96	7909.9	
435.16	8092.9	
435.36	5764.3	
435.56	7073.7	
435.77	7539.3	
435.97	7710.6	
436.17	7824.6	
436.37	6979.5	
436.57	7623.9	
436.78	7517.4	
436.98	8148.2	
437.18	7608.2	
437.38	8278.6	
437.58	7591.1	
437.78	7665.5	
437.99	6231.3	
438.19	8157.7	
438.39	9664.4	
438.59	6027.2	
438.79	5621.7	
438.99	8940.7	
439.2	7779.6	
439.4	5872.9	
439.6	5935.7	
439.8	8239	
440	9454.8	
440.2	7103	
440.4	7240.3	
440.61	8652.7	
440.81	9259.5	
441.01	6181.5	
441.21	7166.5	
441.41	9054.8	
441.61	8477.2	
441.81	7404.1	
442.02	8503.8	
442.22	9534	
442.42	8615.8	
442.62	6376	
442.82	6298.9	
443.02	8985.1	
443.22	8103.8	
443.43	6797.9	
443.63	6307.7	
443.83	7888.8	
444.03	8028	
444.23	7656	
444.43	7172	
444.63	8314.1	
444.83	9419.3	
445.04	6363	
445.24	7775.5	
445.44	8424.7	
445.64	8592.6	
445.84	7088	
446.04	7079.1	
446.24	7819.8	
446.44	8924.4	
446.65	6268.8	
446.85	6820.4	
447.05	7942	
447.25	8908	
447.45	6885.3	
447.65	6166.4	
447.85	8239.7	
448.05	7888.8	
448.25	7307.8	
448.46	7109.9	
448.66	8324.3	
448.86	7912.7	
449.06	6083.1	
449.26	7227.3	
449.46	8675.9	
449.66	7654.6	
449.86	6787	
450.06	6782.9	
450.26	7841	
450.47	8505.9	
450.67	6998.6	
450.87	7462.1	
451.07	8510	
451.27	8296.3	
451.47	6292	
451.67	6994.5	
451.87	8000.7	
452.07	9065	
452.27	6535.8	
452.47	6531.7	
452.67	8257.4	
452.88	8969.4	
453.08	5818.3	
453.28	8036.9	
453.48	9550.4	
453.68	8094.3	
453.88	6462.7	
454.08	6824.5	
454.28	8737.3	
454.48	8369.4	
454.68	7299	
454.88	7920.9	
455.08	8763.9	
455.28	8591.9	
455.48	6297.5	
455.68	7065.5	
455.89	9369.5	
456.09	9045.9	
456.29	6795.2	
456.49	6892.8	
456.69	9293.7	
456.89	8392.6	
457.09	7470.3	
457.29	7998	
457.49	8914.8	
457.69	9131.9	
457.89	7406.8	
458.09	6634.7	
458.29	8627.4	
458.49	9385.8	
458.69	7664.2	
458.89	7130.3	
459.09	9625.5	
459.29	9704	
459.49	7106.5	
459.69	8060.1	
459.9	9176.9	
460.1	8715.5	
460.3	7104.4	
460.5	6922.8	
460.7	9204.9	
460.9	8942.1	
461.1	6577.4	
461.3	8000.7	
461.5	9883.5	
461.7	9477.3	
461.9	7131	
462.1	7571.3	
462.3	8983.8	
462.5	9611.1	
462.7	7243.7	
462.9	7311.2	
463.1	10824	
463.3	10497	
463.5	7517.4	
463.7	8562.6	
463.9	9274.6	
464.1	9678.7	
464.3	7701	
464.5	7897	
464.7	9910.1	
464.9	9534	
465.1	9289.6	
465.3	8313.4	
465.5	10403	
465.7	10279	
465.9	8604.2	
466.1	8399.4	
466.3	10176	
466.5	9898.5	
466.7	9426.1	
466.9	8195.3	
467.1	9946.3	
467.3	10998	
467.5	9435.7	
467.7	8187.1	
467.9	11133	
468.1	12164	
468.3	9075.9	
468.5	9555.1	
468.7	9952.4	
468.9	9895.8	
469.1	8446.5	
469.3	9316.2	
469.5	12015	
469.7	9526.5	
469.9	8924.4	
470.1	8213	
470.3	9818	
470.5	9825.5	
470.7	9432.3	
470.9	8232.2	
471.1	9608.4	
471.3	10052	
471.5	8063.5	
471.69	10122	
471.89	9495.1	
472.09	9033.6	
472.29	8977.6	
472.49	9224.7	
472.69	9184.5	
472.89	10124	
473.09	7896.3	
473.29	8021.9	
473.49	9360.6	
473.69	9572.9	
473.89	9140.1	
474.09	8192.6	
474.29	10806	
474.49	10632	
474.69	9132.6	
474.89	8457.4	
475.09	9605.7	
475.29	9541.5	
475.49	7729.7	
475.69	7970	
475.88	11127	
476.08	9809.8	
476.28	7636.2	
476.48	8073.1	
476.68	10251	
476.88	10159	
477.08	7946.1	
477.28	8370.7	
477.48	9506.7	
477.68	10361	
477.88	7864.9	
478.08	8197.3	
478.28	10598	
478.48	9763.3	
478.67	8245.8	
478.87	7542.7	
479.07	10500	
479.27	9771.5	
479.47	8404.9	
479.67	8480.6	
479.87	10280	
480.07	10876	
480.27	7656	
480.47	9303.2	
480.67	9950.4	
480.87	10604	
481.06	7968	
481.26	8816.5	
481.46	9768.8	
481.66	9807.7	
481.86	8390.5	
482.06	9531.2	
482.26	9542.9	
482.46	10603	
482.66	8351.6	
482.86	7992.5	
483.05	9965.4	
483.25	9387.9	
483.45	11096	
483.65	8446.5	
483.85	9530.6	
484.05	9866.4	
484.25	8962.6	
484.45	9506	
484.65	10779	
484.84	10836	
485.04	8320.9	
485.24	8383	
485.44	11021	
485.64	9307.3	
485.84	7671	
486.04	9197.4	
486.24	9650.7	
486.44	10217	
486.63	7638.2	
486.83	8538.7	
487.03	9722.4	
487.23	9930.6	
487.43	7770	
487.63	10385	
487.83	9904.7	
488.02	11027	
488.22	8912.8	
488.42	9485.5	
488.62	10849	
488.82	9686.2	
489.02	8399.4	
489.22	8451.3	
489.41	10692	
489.61	10362	
489.81	8178.9	
490.01	8206.2	
490.21	10543	
490.41	11289	
490.61	7740.6	
490.8	8092.9	
491	9914.9	
491.2	9141.4	
491.4	8739.4	
491.6	7830.1	
491.8	10071	
491.99	10243	
492.19	7908.6	
492.39	8321.6	
492.59	10815	
492.79	10888	
492.99	9209	
493.18	8377.6	
493.38	10860	
493.58	11727	
493.78	9032.2	
493.98	8633.6	
494.18	10604	
494.37	10196	
494.57	9532.6	
494.77	9368.8	
494.97	10961	
495.17	11326	
495.37	8906.6	
495.56	9240.4	
495.76	11512	
495.96	11008	
496.16	10172	
496.36	8974.2	
496.55	11182	
496.75	10626	
496.95	9361.9	
497.15	9211.1	
497.35	11134	
497.54	11241	
497.74	9165.3	
497.94	10984	
498.14	12032	
498.34	11847	
498.53	8856.1	
498.73	9711.5	
498.93	10587	
499.13	11329	
499.33	9484.1	
499.52	10126	
499.72	11283	
499.92	11635	
500.12	9071.8	
500.32	9334.6	
500.51	11564	
500.71	11379	
500.91	10236	
501.11	9856.2	
501.31	11443	
501.5	11854	
501.7	10509	
501.9	9435.7	
502.1	11207	
502.29	11449	
502.49	9855.5	
502.69	10395	
502.89	11193	
503.09	11215	
503.28	8776.9	
503.48	8849.3	
503.68	10434	
503.88	10585	
504.07	10000	
504.27	9335.3	
504.47	10908	
504.67	10929	
504.86	9805.7	
505.06	9488.9	
505.26	10477	
505.46	12448	
505.65	9238.4	
505.85	9484.8	
506.05	10443	
506.25	10828	
506.44	8449.9	
506.64	9574.3	
506.84	10415	
507.04	11337	
507.23	8863.6	
507.43	9480.7	
507.63	12325	
507.83	10578	
508.02	9343.5	
508.22	8992.6	
508.42	12699	
508.62	10275	
508.81	9499.8	
509.01	9931.3	
509.21	10102	
509.4	10562	
509.6	9519	
509.8	8914.1	
510	10550	
510.19	12178	
510.39	8729.8	
510.59	8886.1	
510.79	10206	
510.98	11747	
511.18	8933.2	
511.38	9128.5	
511.57	11110	
511.77	10845	
511.97	9667.8	
512.17	8593.3	
512.36	11046	
512.56	10972	
512.76	8761.2	
512.95	8434.9	
513.15	11213	
513.35	9723.8	
513.55	9657.5	
513.74	8811.7	
513.94	11127	
514.14	10528	
514.33	9784.5	
514.53	9437.7	
514.73	10355	
514.92	10531	
515.12	8963.3	
515.32	8771.5	
515.51	10710	
515.71	11379	
515.91	10533	
516.11	8813.8	
516.3	12575	
516.5	10243	
516.7	9445.9	
516.89	10005	
517.09	10359	
517.29	10321	
517.48	9659.6	
517.68	8997.4	
517.88	10053	
518.07	10741	
518.27	9612.5	
518.47	8556.4	
518.66	11411	
518.86	9922.4	
519.06	8439.7	
519.25	8902.5	
519.45	10346	
519.65	11895	
519.84	9503.9	
520.04	10297	
520.24	12148	
520.43	10718	
520.63	9050.7	
520.83	8795.3	
521.02	10001	
521.22	10729	
521.42	9448	
521.61	10034	
521.81	10374	
522.01	10521	
522.2	9340.1	
522.4	9178.3	
522.6	11143	
522.79	9902.6	
522.99	9282.8	
523.18	8592.6	
523.38	10894	
523.58	11043	
523.77	10767	
523.97	8672.5	
524.17	12896	
524.36	12041	
524.56	10090	
524.76	9698.5	
524.95	10990	
525.15	10635	
525.34	9516.2	
525.54	9522.4	
525.74	11305	
525.93	10256	
526.13	10689	
526.33	9420	
526.52	11671	
526.72	11062	
526.91	10827	
527.11	10044	
527.31	11903	
527.5	12304	
527.7	9971.6	
527.89	8873.2	
528.09	10641	
528.29	11369	
528.48	10574	
528.68	10123	
528.87	11826	
529.07	11740	
529.27	9755.2	
529.46	9213.1	
529.66	11001	
529.85	11411	
530.05	8834.3	
530.25	9785.9	
530.44	12620	
530.64	10995	
530.83	9603.6	
531.03	10025	
531.23	11720	
531.42	11630	
531.62	10871	
531.81	9969.5	
532.01	11987	
532.21	12563	
532.4	9856.2	
532.6	10120	
532.79	12757	
532.99	12005	
533.18	10083	
533.38	11290	
533.58	11609	
533.77	12377	
533.97	10147	
534.16	10983	
534.36	12594	
534.55	11618	
534.75	11107	
534.95	10150	
535.14	12302	
535.34	11411	
535.53	9641.8	
535.73	11794	
535.92	12756	
536.12	11592	
536.31	9859.6	
536.51	11155	
536.71	11935	
536.9	11510	
537.1	9967.5	
537.29	10150	
537.49	12464	
537.68	11370	
537.88	10649	
538.07	9656.2	
538.27	11672	
538.46	12779	
538.66	9659.6	
538.86	10209	
539.05	11686	
539.25	12167	
539.44	10340	
539.64	9835.7	
539.83	11473	
540.03	12484	
540.22	9777	
540.42	9869.2	
540.61	11707	
540.81	11870	
541	10424	
541.2	11103	
541.39	11187	
541.59	11592	
541.78	10656	
541.98	9635.7	
542.18	10773	
542.37	10719	
542.57	9999.5	
542.76	10551	
542.96	10711	
543.15	11538	
543.35	9997.5	
543.54	9275.3	
543.74	11801	
543.93	11368	
544.13	9975.7	
544.32	11294	
544.52	11785	
544.71	10892	
544.91	9170.1	
545.1	10394	
545.3	10872	
545.49	11655	
545.69	8974.9	
545.88	9560.6	
546.08	12615	
546.27	12194	
546.47	10221	
546.66	9417.2	
546.86	11858	
547.05	12448	
547.24	9638.4	
547.44	9406.3	
547.63	10684	
547.83	11928	
548.02	9872.6	
548.22	9956.5	
548.41	10510	
548.61	11897	
548.8	9448	
549	9344.2	
549.19	11110	
549.39	11484	
549.58	8930.5	
549.78	9649.3	
549.97	11571	
550.17	10974	
550.36	10444	
550.55	11559	
550.75	10963	
550.94	11949	
551.14	9086.8	
551.33	9653.4	
551.53	10223	
551.72	11301	
551.92	9514.9	
552.11	9291	
552.31	11312	
552.5	11394	
552.69	11052	
552.89	8978.3	
553.08	11318	
553.28	10941	
553.47	9354.4	
553.67	10602	
553.86	11961	
554.06	10151	
554.25	8454.7	
554.44	9140.8	
554.64	12704	
554.83	12171	
555.03	8990.6	
555.22	9438.4	
555.42	11471	
555.61	11118	
555.8	9179	
556	9519	
556.19	10206	
556.39	11587	
556.58	9285.5	
556.78	9224.1	
556.97	10912	
557.16	10762	
557.36	10567	
557.55	8862.9	
557.75	9875.3	
557.94	11804	
558.13	8948.9	
558.33	8645.2	
558.52	11444	
558.72	10265	
558.91	8824	
559.1	9106.6	
559.3	9940.2	
559.49	9789.3	
559.69	8262.2	
559.88	9349	
560.07	10894	
560.27	11301	
560.46	9585.9	
560.66	9680.7	
560.85	10584	
561.04	9639.8	
561.24	8720.9	
561.43	8885.5	
561.63	10014	
561.82	10335	
562.01	10281	
562.21	9252.7	
562.4	10871	
562.59	11896	
562.79	8997.4	
562.98	8814.5	
563.18	10736	
563.37	12366	
563.56	9745.6	
563.76	8676.6	
563.95	10241	
564.14	10198	
564.34	9076.6	
564.53	8839.7	
564.73	10714	
564.92	11118	
565.11	9327.8	
565.31	8626	
565.5	11355	
565.69	10279	
565.89	8846.5	
566.08	9150.3	
566.27	11270	
566.47	11720	
566.66	9847.3	
566.85	8421.2	
567.05	10811	
567.24	10112	
567.44	8748.2	
567.63	10284	
567.82	11046	
568.02	10771	
568.21	8773.5	
568.4	9267.7	
568.6	10713	
568.79	10722	
568.98	8618.5	
569.18	8882.7	
569.37	10674	
569.56	12783	
569.76	9152.4	
569.95	10283	
570.14	11043	
570.34	11015	
570.53	8596	
570.72	8697	
570.91	11517	
571.11	10596	
571.3	9168.8	
571.49	10156	
571.69	10671	
571.88	10178	
572.07	9719.7	
572.27	9687.6	
572.46	10223	
572.65	11227	
572.85	8955.8	
573.04	9288.2	
573.23	11640	
573.43	10861	
573.62	8797.4	
573.81	9460.3	
574	10778	
574.2	10740	
574.39	9047.9	
574.58	9377	
574.78	11789	
574.97	11016	
575.16	9673.9	
575.36	9983.2	
575.55	11352	
575.74	11447	
575.93	8735.3	
576.13	9879.4	
576.32	10726	
576.51	11290	
576.71	9175.6	
576.9	10573	
577.09	11613	
577.28	11138	
577.48	9766.8	
577.67	8643.1	
577.86	10796	
578.05	11198	
578.25	9436.4	
578.44	9498.5	
578.63	10976	
578.83	12163	
579.02	8723	
579.21	10294	
579.4	11034	
579.6	10771	
579.79	9498.5	
579.98	11866	
580.17	11432	
580.37	11589	
580.56	8964.6	
580.75	9788.6	
580.94	12073	
581.14	11893	
581.33	10355	
581.52	8975.6	
581.71	11355	
581.91	12082	
582.1	8819.2	
582.29	9454.8	
582.48	10905	
582.68	10865	
582.87	9952.4	
583.06	9473.2	
583.25	11282	
583.45	11128	
583.64	10228	
583.83	11075	
584.02	10731	
584.21	11229	
584.41	10178	
584.6	9287.5	
584.79	10832	
584.98	11680	
585.18	8871.8	
585.37	8747.6	
585.56	10374	
585.75	11255	
585.94	9095	
586.14	9713.5	
586.33	11768	
586.52	10761	
586.71	9417.2	
586.91	9227.5	
587.1	10073	
587.29	11234	
587.48	9176.3	
587.67	9083.4	
587.87	11057	
588.06	11178	
588.25	10475	
588.44	9679.4	
588.63	10645	
588.83	11237	
589.02	8946.9	
589.21	8833.6	
589.4	10244	
589.59	10030	
589.78	7940	
589.98	8213.7	
590.17	9623.4	
590.36	10289	
590.55	7552.9	
590.74	8610.3	
590.94	11870	
591.13	10357	
591.32	8439	
591.51	7976.8	
591.7	10806	
591.89	10240	
592.09	8077.9	
592.28	8570.1	
592.47	9497.1	
592.66	11428	
592.85	8010.3	
593.05	8271.7	
593.24	9951.8	
593.43	10935	
593.62	8354.3	
593.81	8839.7	
594	10142	
594.19	10330	
594.39	8172.8	
594.58	8122.9	
594.77	10378	
594.96	10983	
595.15	8066.9	
595.34	8685.4	
595.54	10443	
595.73	9411.1	
595.92	7395.2	
596.11	8559.1	
596.3	10958	
596.49	9564.7	
596.68	8333.9	
596.88	8830.2	
597.07	10719	
597.26	9338.7	
597.45	7838.3	
597.64	9094.3	
597.83	9499.2	
598.02	10268	
598.22	7892.2	
598.41	8661.5	
598.6	10034	
598.79	9454.1	
598.98	7980.9	
599.17	8847.2	
599.36	9957.9	
599.55	11238	
599.74	10058	
599.94	9805	
600.13	10621	
600.32	9289.6	
600.51	7598	
600.7	7804.1	
600.89	11176	
601.08	11149	
601.27	7550.2	
601.47	8591.9	
601.66	10340	
601.85	11125	
602.04	8219.9	
602.23	8427.4	
602.42	9417.9	
602.61	10131	
602.8	8114.1	
602.99	7936.6	
603.18	9860.3	
603.37	10059	
603.57	8648.6	
603.76	9050.7	
603.95	10920	
604.14	10320	
604.33	8029.4	
604.52	8378.9	
604.71	10016	
604.9	9529.2	
605.09	8960.5	
605.28	8750.3	
605.47	10667	
605.66	10273	
605.86	8533.2	
606.05	7975.5	
606.24	10605	
606.43	8979	
606.62	8278.6	
606.81	9077.3	
607	10392	
607.19	9745.6	
607.38	7615.7	
607.57	7956.4	
607.76	9366	
607.95	8796	
608.14	8260.8	
608.33	8965.3	
608.52	9378.3	
608.72	10367	
608.91	7550.9	
609.1	7374.1	
609.29	9468.4	
609.48	8943.5	
609.67	8555	
609.86	7541.3	
610.05	9122.3	
610.24	9425.4	
610.43	7363.8	
610.62	6939.9	
610.81	10627	
611	10373	
611.19	7500.3	
611.38	8324.3	
611.57	9723.8	
611.76	11183	
611.95	7215	
612.14	7088.7	
612.33	9468.4	
612.52	8964.6	
612.71	7778.9	
612.9	6879.8	
613.09	8652	
613.28	11067	
613.47	7480.5	
613.66	8510	
613.85	9564	
614.04	9097.1	
614.24	7650.5	
614.43	6791.7	
614.62	9758.6	
614.81	9740.1	
615	8183	
615.19	8229.4	
615.38	8955.8	
615.57	9313.5	
615.76	8082.6	
615.95	9085.5	
616.14	9838.4	
616.33	9386.5	
616.52	8269.7	
616.71	8568	
616.9	9706	
617.09	9663	
617.28	7733.8	
617.47	9151.7	
617.66	8828.1	
617.85	8788.5	
618.04	8781	
618.22	8170	
618.41	9213.1	
618.6	10142	
618.79	7983.7	
618.98	7669.6	
619.17	10502	
619.36	8770.1	
619.55	7797.3	
619.74	7933.8	
619.93	9707.4	
620.12	9200.8	
620.31	8540	
620.5	8732.5	
620.69	10744	
620.88	10681	
621.07	9498.5	
621.26	8286.8	
621.45	9881.4	
621.64	9889	
621.83	8503.2	
622.02	7579.5	
622.21	9939.5	
622.4	9602.9	
622.59	9164	
622.78	8761.9	
622.97	9259.5	
623.16	10298	
623.35	8343.4	
623.54	7490.1	
623.72	9446.6	
623.91	9595.4	
624.1	8770.1	
624.29	7256.6	
624.48	10759	
624.67	9957.9	
624.86	8615.8	
625.05	7582.3	
625.24	10890	
625.43	9086.2	
625.62	10416	
625.81	7817.1	
626	10279	
626.19	9535.3	
626.38	8710	
626.56	8041.7	
626.75	9358.5	
626.94	10144	
627.13	8582.4	
627.32	7193.1	
627.51	9947	
627.7	11391	
627.89	7237.5	
628.08	8579.6	
628.27	9131.9	
628.46	9396.1	
628.65	7694.2	
628.83	7310.6	
629.02	9984.5	
629.21	9232.2	
629.4	8102.4	
629.59	8288.8	
629.78	9144.9	
629.97	10174	
630.16	8437.6	
630.35	7857.4	
630.54	10684	
630.72	10350	
630.91	7772	
631.1	8456.1	
631.29	9831.6	
631.48	9894.4	
631.67	8514.1	
631.86	8030.8	
632.05	9301.2	
632.24	9439.1	
632.42	7612.3	
632.61	8218.5	
632.8	9497.8	
632.99	9027.4	
633.18	8168.7	
633.37	8670.4	
633.56	9766.8	
633.75	9566.1	
633.93	8208.3	
634.12	7863.5	
634.31	10481	
634.5	10184	
634.69	7968.6	
634.88	8421.2	
635.07	9381.1	
635.25	10082	
635.44	8828.1	
635.63	9089.6	
635.82	9351.7	
636.01	8734.6	
636.2	8817.9	
636.39	8386.4	
636.57	10557	
636.76	10140	
636.95	7666.2	
637.14	9114.1	
637.33	9707.4	
637.52	10648	
637.7	7459.4	
637.89	8334.6	
638.08	9249.3	
638.27	10849	
638.46	8529.8	
638.65	8969.4	
638.83	10720	
639.02	8974.2	
639.21	8317.5	
639.4	8831.5	
639.59	9572.9	
639.78	9072.5	
639.96	7647.1	
640.15	7564.5	
640.34	9368.8	
640.53	9604.3	
640.72	7275.1	
640.91	7640.3	
641.09	8748.2	
641.28	10226	
641.47	7705.1	
641.66	8511.4	
641.85	9572.9	
642.03	9690.3	
642.22	8301.1	
642.41	7735.9	
642.6	8925.7	
642.79	8332.5	
642.97	7502.4	
643.16	8321.6	
643.35	8873.8	
643.54	8645.2	
643.73	7309.2	
643.91	8187.8	
644.1	8486.1	
644.29	9174.9	
644.48	7443	
644.67	7439.6	
644.85	8657.4	
645.04	9064.3	
645.23	6952.9	
645.42	7416.4	
645.6	8457.4	
645.79	9779.1	
645.98	7306.5	
646.17	6253.8	
646.36	8261.5	
646.54	8934.6	
646.73	8121.6	
646.92	6771.9	
647.11	8436.9	
647.29	9553.8	
647.48	6955.6	
647.67	6702.3	
647.86	9820.7	
648.05	9836.4	
648.23	7295.5	
648.42	8648.6	
648.61	9125.1	
648.8	8829.5	
648.98	6984.9	
649.17	7257.3	
649.36	8509.3	
649.55	7942.7	
649.73	6920.1	
649.92	7729	
650.11	8221.9	
650.3	8566.7	
650.48	7038.9	
650.67	6709.8	
650.86	8941.4	
651.05	7779.6	
651.23	6975.4	
651.42	6976.1	
651.61	8365.3	
651.79	8414.4	
651.98	7156.3	
652.17	6691.4	
652.36	8752.3	
652.54	7795.3	
652.73	6787.7	
652.92	6535.8	
653.11	8838.4	
653.29	8853.4	
653.48	5911.8	
653.67	7055.3	
653.85	8465.6	
654.04	9578.3	
654.23	7221.1	
654.42	6541.9	
654.6	7825.3	
654.79	8549.6	
654.98	6084.5	
655.16	6693.4	
655.35	7508.5	
655.54	7499	
655.73	6303.6	
655.91	6269.5	
656.1	8809.7	
656.29	7527.7	
656.47	5855.8	
656.66	7638.2	
656.85	7802.8	
657.03	7925	
657.22	6367.1	
657.41	6393.1	
657.59	7911.3	
657.78	7712.7	
657.97	6014.9	
658.16	6771.9	
658.34	8544.8	
658.53	9037	
658.72	7670.3	
658.9	8262.2	
659.09	7869.7	
659.28	8087.4	
659.46	6500.9	
659.65	6333	
659.84	7737.2	
660.02	8215.1	
660.21	6324.1	
660.4	6257.2	
660.58	8740	
660.77	8036.9	
660.96	6978.8	
661.14	5845.6	
661.33	9198.1	
661.52	9029.5	
661.7	5805.3	
661.89	9676	
662.08	7578.2	
662.26	7120.1	
662.45	6073.6	
662.64	6267.5	
662.82	8353	
663.01	7503.8	
663.2	6306.4	
663.38	7002.7	
663.57	8236.2	
663.75	8153	
663.94	6627.2	
664.13	7870.3	
664.31	7535.8	
664.5	8329.1	
664.69	6734.4	
664.87	7408.9	
665.06	7294.9	
665.25	8026	
665.43	7685.3	
665.62	7697.6	
665.8	8494.3	
665.99	7718.8	
666.18	6537.1	
666.36	6718	
666.55	8331.1	
666.74	8355.7	
666.92	6085.9	
667.11	7926.3	
667.29	7680.6	
667.48	8294.3	
667.67	7486	
667.85	6498.2	
668.04	7675.1	
668.22	7713.3	
668.41	6531	
668.6	6772.6	
668.78	7450.5	
668.97	7680.6	
669.15	6913.9	
669.34	5850.4	
669.53	7382.9	
669.71	7837.6	
669.9	5958.2	
670.08	6729.6	
670.27	7395.2	
670.46	8089.5	
670.64	7022.5	
670.83	7185	
671.01	7308.5	
671.2	7964.6	
671.38	6077.7	
671.57	6016.2	
671.76	8619.2	
671.94	9252	
672.13	5894.1	
672.31	7066.9	
672.5	8203.5	
672.69	7404.8	
672.87	6016.9	
673.06	6429.3	
673.24	8026.7	
673.43	7501	
673.61	6741.2	
673.8	6408.8	
673.98	8247.9	
674.17	8396	
674.36	7040.9	
674.54	6827.2	
674.73	7916.1	
674.91	8207.6	
675.1	6498.2	
675.28	6169.2	
675.47	7714	
675.65	8286.1	
675.84	6338.5	
676.03	6765.1	
676.21	7446.4	
676.4	6917.4	
676.58	7221.8	
676.77	6930.3	
676.95	9038.4	
677.14	7365.2	
677.32	6027.9	
677.51	5797.8	
677.69	8222.6	
677.88	7032.7	
678.06	5908.4	
678.25	6058.6	
678.44	7787.1	
678.62	7367.2	
678.81	5730.9	
678.99	6713.9	
679.18	8552.3	
679.36	8057.4	
679.55	6319.3	
679.73	6988.4	
679.92	8028.7	
680.1	7417.7	
680.29	7629.4	
680.47	6367.1	
680.66	7350.2	
680.84	8261.5	
681.03	5545.2	
681.21	6720.1	
681.4	7433.4	
681.58	7309.2	
681.77	6115.2	
681.95	5936.4	
682.14	8279.9	
682.32	8639	
682.51	6982.9	
682.69	5730.2	
682.88	7292.8	
683.06	8016.4	
683.25	6653.2	
683.43	7161.1	
683.62	7603.4	
683.8	7961.1	
683.99	7222.5	
684.17	6512.5	
684.36	8850.6	
684.54	7374.7	
684.73	5472.2	
684.91	5715.2	
685.1	7754.3	
685.28	7110.5	
685.46	6440.2	
685.65	6505	
685.83	8206.9	
686.02	7416.4	
686.2	6051.7	
686.39	6049.7	
686.57	7303.1	
686.76	8796.7	
686.94	5928.2	
687.13	6157.6	
687.31	7939.3	
687.5	7445	
687.68	5537	
687.86	6886	
688.05	9337.4	
688.23	6924.9	
688.42	7030	
688.6	6041.5	
688.79	7367.9	
688.97	7348.8	
689.16	6474.3	
689.34	5322.7	
689.52	8126.3	
689.71	8407.6	
689.89	6705.7	
690.08	5936.4	
690.26	7555.6	
690.45	7436.9	
690.63	6956.9	
690.81	6191.7	
691	7352.2	
691.18	7332.4	
691.37	6347.3	
691.55	8697	
691.74	7193.8	
691.92	9352.4	
692.1	6360.3	
692.29	5760.3	
692.47	7462.8	
692.66	6818.4	
692.84	5938.4	
693.02	6526.2	
693.21	6877.8	
693.39	7425.3	
693.58	6704.4	
693.76	6034.7	
693.94	8789.9	
694.13	8486.1	
694.31	5974.6	
694.5	7201.3	
694.68	7212.3	
694.86	7601.4	
695.05	6343.9	
695.23	6505.7	
695.42	7914.7	
695.6	10421	
695.78	7004.7	
695.97	6040.1	
696.15	7977.5	
696.34	7320.1	
696.52	5855.1	
696.7	6654.5	
696.89	7715.4	
697.07	7038.9	
697.25	6625.2	
697.44	8259.5	
697.62	7741.3	
697.81	8131.1	
697.99	6230.6	
698.17	6764.4	
698.36	6982.9	
698.54	7802.1	
698.72	6645	
698.91	5511.1	
699.09	7299.6	
699.28	7119.4	
699.46	6348	
699.64	6122.7	
699.83	7075.7	
700.01	8415.1	
700.19	6980.2	
700.38	5263.3	
700.56	8447.9	
700.74	7148.1	
700.93	5736.4	
701.11	6649.8	
701.29	7738.6	
701.48	8934.6	
701.66	5924.8	
701.84	5997.8	
702.03	7259.4	
702.21	7989.1	
702.39	5484.5	
702.58	6156.9	
702.76	7733.1	
702.94	7772.7	
703.13	5528.8	
703.31	8116.1	
703.49	6945.3	
703.68	8011	
703.86	5724.8	
704.04	6748.7	
704.23	7518.1	
704.41	7930.4	
704.59	5901.6	
704.78	7193.8	
704.96	8671.1	
705.14	7978.2	
705.33	5609.4	
705.51	6492.7	
705.69	7303.7	
705.87	8187.8	
706.06	6791.7	
706.24	5567.7	
706.42	7664.2	
706.61	7948.2	
706.79	6810.9	
706.97	5624.4	
707.16	7076.4	
707.34	7724.9	
707.52	6786.3	
707.7	5820.3	
707.89	7237.5	
708.07	6870.9	
708.25	6690	
708.44	6883.9	
708.62	7119.4	
708.8	8312	
708.98	7131	
709.17	5860.6	
709.35	7518.8	
709.53	7591.8	
709.72	5578	
709.9	5696.8	
710.08	7692.9	
710.26	7821.2	
710.45	7393.8	
710.63	5856.5	
710.81	7502.4	
710.99	7447.1	
711.18	6612.2	
711.36	6065.4	
711.54	7293.5	
711.72	8028.7	
711.91	6204.7	
712.09	5492	
712.27	7449.8	
712.45	8181.6	
712.64	6488	
712.82	5236	
713	6858	
713.18	7015	
713.37	5367	
713.55	6655.9	
713.73	7913.4	
713.91	6405.4	
714.1	5816.9	
714.28	5223	
714.46	7522.2	
714.64	6703.7	
714.83	4772.4	
715.01	5653.8	
715.19	6894.1	
715.37	6223.1	
715.55	5268.1	
715.74	5657.9	
715.92	7854.6	
716.1	5740.5	
716.28	6830.7	
716.47	5859.2	
716.65	6447	
716.83	6609.5	
717.01	5661.3	
717.19	5762.3	
717.38	8770.1	
717.56	6300.2	
717.74	6004	
717.92	5072.8	
718.1	7620.5	
718.29	6792.4	
718.47	4742.4	
718.65	5431.2	
718.83	7413.6	
719.01	7310.6	
719.2	4480.3	
719.38	5616.2	
719.56	6956.9	
719.74	8673.8	
719.92	5167.7	
720.11	6290	
720.29	6968.6	
720.47	6113.2	
720.65	4647.5	
720.83	5614.2	
721.02	6429.3	
721.2	6174.6	
721.38	5638.1	
721.56	4946.5	
721.74	5698.8	
721.92	5944.6	
722.11	6320.7	
722.29	5927.5	
722.47	7285.3	
722.65	6437.4	
722.83	4917.2	
723.01	5980.1	
723.2	6484.6	
723.38	6840.2	
723.56	4319.8	
723.74	5556.1	
723.92	5945.3	
724.1	7199.3	
724.29	4855.1	
724.47	6104.3	
724.65	6034	
724.83	5925.5	
725.01	4706.9	
725.19	5694	
725.37	5967.1	
725.56	6111.1	
725.74	4567.7	
725.92	4865.3	
726.1	5993.7	
726.28	6282.5	
726.46	5343.2	
726.64	5089.9	
726.83	6153.5	
727.01	6492.1	
727.19	4526.7	
727.37	5520	
727.55	6378.1	
727.73	6911.2	
727.91	4527.4	
728.09	4369	
728.28	6937.2	
728.46	7642.3	
728.64	5582.8	
728.82	5545.2	
729	8150.2	
729.18	7256	
729.36	4711.7	
729.54	7166.5	
729.72	8353	
729.91	6541.9	
730.09	6713.2	
730.27	5397.8	
730.45	6453.1	
730.63	7117.4	
730.81	6044.2	
730.99	5020.3	
731.17	7635.5	
731.35	6070.2	
731.53	5591	
731.71	5140.4	
731.9	7314	
732.08	7558.4	
732.26	5436.7	
732.44	4984.1	
732.62	7591.8	
732.8	7084.6	
732.98	5862.7	
733.16	4870.8	
733.34	7014.3	
733.52	5722	
733.7	5483.1	
733.88	5688.6	
734.07	6894.8	
734.25	6587	
734.43	4782.7	
734.61	6472.9	
734.79	8137.9	
734.97	6399.9	
735.15	4963.6	
735.33	5300.1	
735.51	6903.7	
735.69	6444.3	
735.87	6558.3	
736.05	5601.2	
736.23	6705.7	
736.41	6375.3	
736.59	5402.5	
736.77	5427.1	
736.95	7104.4	
737.13	6495.5	
737.32	4970.4	
737.5	5214.1	
737.68	7693.5	
737.86	6380.1	
738.04	4815.5	
738.22	6829.3	
738.4	6156.2	
738.58	6481.8	
738.76	5440.8	
738.94	4377.9	
739.12	6339.1	
739.3	6212.2	
739.48	6166.4	
739.66	5836.7	
739.84	6665.5	
740.02	6567.2	
740.2	4416.8	
740.38	4859.1	
740.56	7035.5	
740.74	5780.1	
740.92	5547.3	
741.1	5469.4	
741.28	6386.2	
741.46	6296.1	
741.64	5046.9	
741.82	5618.9	
742	6455.2	
742.18	6455.2	
742.36	5346.6	
742.54	4866	
742.72	7058.7	
742.9	5655.8	
743.08	5768.4	
743.26	4497.3	
743.44	7334.5	
743.62	7109.9	
743.8	5864.7	
743.98	4853	
744.16	6841.6	
744.34	6472.3	
744.52	5708.4	
744.7	5662	
744.88	6947.4	
745.06	6510.5	
745.24	5838.8	
745.42	6016.2	
745.6	7041.6	
745.78	6806.1	
745.96	4620.2	
746.14	4927.4	
746.32	7888.1	
746.5	7087.3	
746.68	5561.6	
746.86	4956.1	
747.03	7549.5	
747.21	5785.5	
747.39	5535	
747.57	5059.2	
747.75	6700.3	
747.93	7080.5	
748.11	4995	
748.29	4909	
748.47	8368.7	
748.65	6313.2	
748.83	5795.1	
749.01	5470.1	
749.19	6887.3	
749.37	6077	
749.55	5324.7	
749.73	5392.3	
749.91	6457.2	
750.09	6272.2	
750.26	5487.2	
750.44	4851.6	
750.62	6579.4	
750.8	6550.1	
750.98	4643.4	
751.16	5039.4	
751.34	6597.2	
751.52	5930.9	
751.7	5819.6	
751.88	4583.4	
752.06	7131	
752.24	6916.7	
752.42	4601.8	
752.59	4956.8	
752.77	6538.5	
752.95	7886.7	
753.13	5747.3	
753.31	5095.3	
753.49	6163	
753.67	6717.3	
753.85	5449.6	
754.03	5058.5	
754.21	6955.6	
754.38	7341.3	
754.56	5208	
754.74	4095.9	
754.92	6240.2	
755.1	6954.9	
755.28	4244.1	
755.46	4171	
755.64	7619.1	
755.82	7797.3	
755.99	4438.6	
756.17	4614.8	
756.35	5089.2	
756.53	6864.1	
756.71	3422.2	
756.89	4445.5	
757.07	6404	
757.25	5426.4	
757.42	5059.2	
757.6	6081.8	
757.78	6489.3	
757.96	5387.5	
758.14	4730.8	
758.32	4203.1	
758.5	4954.7	
758.67	5843.5	
758.85	4502.8	
759.03	4650.9	
759.21	6031.3	
759.39	5416.2	
759.57	4022.2	
759.75	5347.9	
759.92	6690	
760.1	5909.1	
760.28	5756.8	
760.46	6002.6	
760.64	5717.2	
760.82	5455.8	
760.99	5317.2	
761.17	4676.2	
761.35	6541.9	
761.53	5531.6	
761.71	4787.5	
761.89	5567.7	
762.06	6529.6	
762.24	5936.4	
762.42	4902.2	
762.6	4694.6	
762.78	5969.8	
762.96	6660.7	
763.13	5354.1	
763.31	4959.5	
763.49	6885.3	
763.67	5944.6	
763.85	5848.3	
764.02	6481.1	
764.2	7112.6	
764.38	6257.2	
764.56	4866	
764.74	5781.4	
764.91	7253.2	
765.09	6107	
765.27	4532.2	
765.45	4239.3	
765.63	7262.1	
765.8	7084.6	
765.98	3999	
766.16	4304.8	
766.34	5572.5	
766.52	5315.2	
766.69	5390.3	
766.87	4174.4	
767.05	5992.4	
767.23	6967.9	
767.41	4530.8	
767.58	4823.6	
767.76	6632	
767.94	6737.8	
768.12	4625.7	
768.29	5442.1	
768.47	6127.5	
768.65	6978.8	
768.83	4223.6	
769	5449	
769.18	5586.9	
769.36	6418.3	
769.54	5536.3	
769.72	4264.6	
769.89	6754.2	
770.07	6793.1	
770.25	4620.2	
770.43	6064	
770.6	7493.5	
770.78	8004.1	
770.96	4828.4	
771.14	4597.7	
771.31	6604.7	
771.49	5842.9	
771.67	3917.1	
771.85	4207.9	
772.02	5064.6	
772.2	5902.2	
772.38	5008.6	
772.55	4465.3	
772.73	6182.1	
772.91	6008.7	
773.09	4838	
773.26	4933.6	
773.44	6114.6	
773.62	5811.5	
773.8	4317.1	
773.97	4022.9	
774.15	6312.5	
774.33	5780.7	
774.5	4229.7	
774.68	4594.3	
774.86	6333.7	
775.04	5838.8	
775.21	4236.6	
775.39	4271.4	
775.57	6162.3	
775.74	6627.9	
775.92	4106.9	
776.1	4020.2	
776.27	6094.8	
776.45	7479.9	
776.63	4223.6	
776.81	3763.5	
776.98	5744.6	
777.16	6871.6	
777.34	4472.8	
777.51	4433.9	
777.69	5681.1	
777.87	5425.1	
778.04	4472.1	
778.22	5196.4	
778.4	5461.2	
778.57	6199.9	
778.75	3682.2	
778.93	3971	
779.1	5223.7	
779.28	5108.3	
779.46	3714.3	
779.64	4246.8	
779.81	6390.3	
779.99	7391.1	
780.17	5096.7	
780.34	5208	
780.52	5758.9	
780.69	5955.5	
780.87	4586.8	
781.05	4119.1	
781.22	5796.4	
781.4	5880.4	
781.58	4295.3	
781.75	3315.7	
781.93	5813.5	
782.11	5208	
782.28	5224.4	
782.46	4285.7	
782.64	5023	
782.81	6102.3	
782.99	4376.5	
783.17	4330.8	
783.34	5956.9	
783.52	5056.4	
783.69	4524	
783.87	5414.8	
784.05	5077.6	
784.22	5197.1	
784.4	5438	
784.58	4676.9	
784.75	6146.6	
784.93	5225.7	
785.1	4298	
785.28	4919.9	
785.46	5876.3	
785.63	5158.8	
785.81	4210.6	
785.99	4029.7	
786.16	5362.3	
786.34	5786.2	
786.51	4127.3	
786.69	4447.5	
786.87	4943.8	
787.04	5453.1	
787.22	3835.8	
787.39	4930.8	
787.57	5178.6	
787.75	6348	
787.92	5170.4	
788.1	5079.6	
788.27	5186.8	
788.45	4967.7	
788.63	4767	
788.8	3390.1	
788.98	5575.9	
789.15	4874.2	
789.33	3568.9	
789.5	4259.1	
789.68	6189	
789.86	6331	
790.03	4702.1	
790.21	4100.7	
790.38	6124.1	
790.56	5352.7	
790.73	3912.3	
790.91	3943.7	
791.09	5218.9	
791.26	6001.9	
791.44	4255.7	
791.61	3631.7	
791.79	5162.9	
791.96	5225.1	
792.14	3735.5	
792.32	3300.6	
792.49	5181.4	
792.67	5350	
792.84	3842.7	
793.02	3579.8	
793.19	5636	
793.37	6464.1	
793.54	3326.6	
793.72	3645.4	
793.89	6634.1	
794.07	5191.6	
794.25	4336.2	
794.42	3360.7	
794.6	6331.6	
794.77	5978.7	
794.95	4650.3	
795.12	4044.1	
795.3	5109.7	
795.47	5849.7	
795.65	4400.4	
795.82	4243.4	
796	4934.9	
796.17	7047.1	
796.35	4141	
796.52	4838.7	
796.7	5758.2	
796.87	5835.3	
797.05	5096.7	
797.22	5012.1	
797.4	5853.8	
797.57	6884.6	
797.75	4237.2	
797.92	4026.3	
798.1	6151.4	
798.27	5133.6	
798.45	3352.5	
798.62	3678.2	
798.8	5539.8	
798.97	6008.1	
799.15	4442	
799.32	4315.8	
799.5	4679.6	
799.67	5594.4	
799.85	4644.1	
800.02	3336.8	
800.2	5073.5	
800.37	5489.2	
800.55	4877.6	
800.72	4001.7	
800.9	5949.3	
801.07	6468.9	
801.25	5414.1	
801.42	4372.4	
801.6	6056.5	
801.77	5747.3	
801.95	4070.7	
802.12	3932.1	
802.29	5647.6	
802.47	5688.6	
802.64	4354.7	
802.82	3259.7	
802.99	5111	
803.17	6236.7	
803.34	4269.3	
803.52	3870.7	
803.69	6897.6	
803.87	4857.1	
804.04	4222.2	
804.21	4318.5	
804.39	6337.1	
804.56	5434.6	
804.74	3564.8	
804.91	4457.1	
805.09	5128.8	
805.26	5217.5	
805.44	3658.4	
805.61	3992.9	
805.78	5864	
805.96	5852.4	
806.13	4450.2	
806.31	4785.4	
806.48	4644.1	
806.66	5273.5	
806.83	4323.9	
807	4261.8	
807.18	5084.4	
807.35	5590.3	
807.53	4010.6	
807.7	3361.4	
807.87	6433.4	
808.05	5233.2	
808.22	4786.8	
808.4	3380.5	
808.57	5216.2	
808.74	4820.9	
808.92	3904.1	
809.09	5012.7	
809.27	5026.4	
809.44	5716.6	
809.61	3439.9	
809.79	3835.2	
809.96	6389.7	
810.14	6025.1	
810.31	3390.8	
810.48	4141.7	
810.66	5281.7	
810.83	6129.6	
811.01	3889.1	
811.18	4361.5	
811.35	6009.4	
811.53	4648.2	
811.7	4822.3	
811.87	4433.9	
812.05	5177.3	
812.22	5085.8	
812.39	3834.5	
812.57	3654.3	
812.74	5197.7	
812.92	7008.8	
813.09	4055	
813.26	4543.8	
813.44	6718.7	
813.61	5169.1	
813.78	3421.5	
813.96	4645.5	
814.13	5258.5	
814.3	4861.9	
814.48	4963.6	
814.65	4170.3	
814.82	6481.1	
815	4987.5	
815.17	4197	
815.34	5236	
815.52	5066.7	
815.69	5141.8	
815.87	4244.8	
816.04	3635.1	
816.21	5207.3	
816.38	4567	
816.56	4098.7	
816.73	3756	
816.9	6622.4	
817.08	6032	
817.25	3857	
817.42	4864.6	
817.6	4791.6	
817.77	5221.6	
817.94	4259.1	
818.12	3733.4	
818.29	4909	
818.46	7882.6	
818.64	3876.1	
818.81	3697.9	
818.98	4823	
819.16	7105.8	
819.33	4450.2	
819.5	4171	
819.67	5575.9	
819.85	6318	
820.02	4155.3	
820.19	4357.4	
820.37	5457.8	
820.54	4969.7	
820.71	4317.1	
820.88	5387.5	
821.06	5433.9	
821.23	4980.7	
821.4	4325.3	
821.58	4291.2	
821.75	6008.7	
821.92	5308.3	
822.09	3448.8	
822.27	3581.2	
822.44	5234.6	
822.61	5158.2	
822.79	3435.8	
822.96	6790.4	
823.13	5735	
823.3	4959.5	
823.48	3947.8	
823.65	3581.2	
823.82	5981.4	
823.99	4699.4	
824.17	5181.4	
824.34	3662.5	
824.51	6984.3	
824.68	5259.2	
824.86	3839.3	
825.03	4284.4	
825.2	5251	
825.37	6363.7	
825.55	3768.3	
825.72	4200.4	
825.89	7008.1	
826.06	6453.1	
826.24	4177.2	
826.41	4135.5	
826.58	6420.4	
826.75	5535	
826.92	3224.2	
827.1	3595.6	
827.27	8755.1	
827.44	6927.6	
827.61	3942.3	
827.79	4762.9	
827.96	4937.7	
828.13	5250.3	
828.3	4096.6	
828.47	3464.5	
828.65	5380.7	
828.82	5360.2	
828.99	5338.4	
829.16	4655	
829.34	5829.2	
829.51	5593.7	
829.68	4252.3	
829.85	4432.5	
830.02	6158.2	
830.2	5892	
830.37	3276.1	
830.54	5188.9	
830.71	6692.1	
830.88	5182.7	
831.05	3359.4	
831.23	3916.4	
831.4	6403.3	
831.57	7236.2	
831.74	3922.5	
831.91	3378.5	
832.09	5436	
832.26	5864.7	
832.43	4058.4	
832.6	4565.6	
832.77	5462.6	
832.94	6264.7	
833.12	3205.1	
833.29	4044.1	
833.46	5392.3	
833.63	7503.8	
833.8	4420.9	
833.97	4114.4	
834.15	5877	
834.32	5670.1	
834.49	4291.9	
834.66	4295.3	
834.83	6098.2	
835	4903.5	
835.17	3941	
835.35	3974.4	
835.52	5760.9	
835.69	5612.1	
835.86	4218.8	
836.03	3411.9	
836.2	5750	
836.37	5400.5	
836.55	4073.4	
836.72	3837.2	
836.89	5379.3	
837.06	6006.7	
837.23	4169.7	
837.4	4526.7	
837.57	6705.7	
837.75	7460.8	
837.92	3733.4	
838.09	3930.7	
838.26	5360.9	
838.43	6150.1	
838.6	4288.4	
838.77	3807.2	
838.94	7041.6	
839.11	6780.8	
839.29	4032.5	
839.46	3249.4	
839.63	5839.4	
839.8	5547.9	
839.97	3931.4	
840.14	3943	
840.31	5585.5	
840.48	5819	
840.65	3231	
840.82	3804.4	
841	5847	
841.17	5813.5	
841.34	3691.8	
841.51	3649.5	
841.68	5717.9	
841.85	5489.9	
842.02	3811.3	
842.19	3092.4	
842.36	5578	
842.53	5556.1	
842.7	3648.8	
842.87	4541	
843.05	7460.8	
843.22	5480.4	
843.39	3482.2	
843.56	3751.2	
843.73	5238	
843.9	5872.9	
844.07	6025.8	
844.24	4988.9	
844.41	8764.6	
844.58	5001.8	
844.75	3525.2	
844.92	3836.5	
845.09	5802.6	
845.26	5821	
845.43	3604.4	
845.6	3807.9	
845.77	5868.8	
845.94	5524.1	
846.12	4048.2	
846.29	4263.2	
846.46	6062.7	
846.63	5854.5	
846.8	3652.2	
846.97	4343.1	
847.14	6356.9	
847.31	5763	
847.48	4110.3	
847.65	4515.1	
847.82	6154.8	
847.99	6120.7	
848.16	4943.8	
848.33	4567	
848.5	5348.6	
848.67	6339.1	
848.84	3630.4	
849.01	3768.9	
849.18	5178.6	
849.35	4859.1	
849.52	4526.7	
849.69	3544.4	
849.86	6034.7	
850.03	6374.6	
850.2	3634.5	
850.37	4475.5	
850.54	6173.9	
850.71	5520.6	
850.88	4369.7	
851.05	3572.3	
851.22	5698.1	
851.39	6497.5	
851.56	3364.8	
851.73	4118.5	
851.9	5066.7	
852.07	6016.2	
852.24	3994.9	
852.41	3560.1	
852.58	5710.4	
852.75	5191.6	
852.92	4115.1	
853.09	3542.3	
853.26	5375.9	
853.43	6277	
853.6	3583.9	
853.77	3072	
853.94	6417.7	
854.11	5788.2	
854.28	5409.4	
854.44	3890.5	
854.61	6849.1	
854.78	6149.4	
854.95	3592.1	
855.12	4608.6	
855.29	4638	
855.46	6545.3	
855.63	3614	
855.8	5029.8	
855.97	5321.3	
856.14	6153.5	
856.31	5107.6	
856.48	3963.5	
856.65	5303.6	
856.82	5080.3	
856.99	3498.6	
857.16	3941.7	
857.33	7176.8	
857.49	5470.8	
857.66	3915.7	
857.83	4196.3	
858	5388.2	
858.17	5653.1	
858.34	3433.1	
858.51	3607.8	
858.68	6606.7	
858.85	6589.7	
859.02	4255.7	
859.19	4511	
859.36	5071.5	
859.52	5203.9	
859.69	3652.9	
859.86	4259.1	
860.03	5173.9	
860.2	6445	
860.37	3250.8	
860.54	3667.2	
860.71	6053.1	
860.88	6546	
861.05	4099.4	
861.21	4620.2	
861.38	6600.6	
861.55	4998.4	
861.72	3280.2	
861.89	4042.7	
862.06	6090	
862.23	6691.4	
862.4	3513.6	
862.56	3799.7	
862.73	5950	
862.9	5609.4	
863.07	4258.4	
863.24	3220.8	
863.41	5003.2	
863.58	5081	
863.75	3648.8	
863.91	4156	
864.08	6457.9	
864.25	5986.9	
864.42	4558.8	
864.59	5126.7	
864.76	6765.1	
864.93	5119.2	
865.09	3560.1	
865.26	3840.6	
865.43	6326.9	
865.6	6728.3	
865.77	3122.5	
865.94	3595.6	
866.1	6430.6	
866.27	6158.2	
866.44	5419.6	
866.61	3433.1	
866.78	5530.2	
866.95	6042.2	
867.11	3487.7	
867.28	3179.8	
867.45	6212.9	
867.62	5138.4	
867.79	4218.1	
867.96	3587.4	
868.12	5113.1	
868.29	6183.5	
868.46	3596.2	
868.63	4863.2	
868.8	6286.6	
868.97	6029.9	
869.13	3782.6	
869.3	3749.1	
869.47	5939.1	
869.64	6193.7	
869.81	3658.4	
869.97	3628.3	
870.14	5786.2	
870.31	6627.9	
870.48	3491.8	
870.65	4587.4	
870.81	5425.1	
870.98	5360.2	
871.15	4093.9	
871.32	3767.6	
871.48	5973.9	
871.65	6645	
871.82	3553.9	
871.99	4006.5	
872.16	7050.5	
872.32	6466.8	
872.49	3654.9	
872.66	3652.9	
872.83	6108.4	
872.99	5306.3	
873.16	4183.3	
873.33	3549.8	
873.5	5631.9	
873.67	5730.9	
873.83	3821.5	
874	4938.3	
874.17	5763.7	
874.34	6973.3	
874.5	4692.6	
874.67	4479.6	
874.84	6515.3	
875.01	5086.5	
875.17	5147.2	
875.34	3580.5	
875.51	5782.8	
875.68	6892.1	
875.84	4427	
876.01	5362.9	
876.18	6040.1	
876.34	5931.6	
876.51	3749.1	
876.68	3576.4	
876.85	5559.6	
877.01	6354.8	
877.18	5216.9	
877.35	3585.3	
877.52	5595.7	
877.68	5039.4	
877.85	3525.2	
878.02	3562.1	
878.18	5623	
878.35	5269.4	
878.52	2852.8	
878.69	4099.4	
878.85	6018.3	
879.02	6055.8	
879.19	5114.5	
879.35	3891.8	
879.52	5955.5	
879.69	6197.8	
879.86	3091.8	
880.02	4048.8	
880.19	5571.2	
880.36	6901.7	
880.52	4211.3	
880.69	4280.3	
880.86	6143.2	
881.02	6210.8	
881.19	3992.9	
881.36	3958.7	
881.52	5960.3	
881.69	5195	
881.86	3936.9	
882.02	3824.2	
882.19	6333	
882.36	7442.3	
882.52	3662.5	
882.69	5159.5	
882.86	5815.5	
883.02	5722.7	
883.19	4513	
883.36	4225	
883.52	6130.9	
883.69	7047.1	
883.86	3685.7	
884.02	3235.8	
884.19	6113.2	
884.36	5608.7	
884.52	4154	
884.69	3841.3	
884.86	5271.5	
885.02	6772.6	
885.19	4007.2	
885.36	4072	
885.52	5613.5	
885.69	5751.4	
885.86	5279.7	
886.02	4698	
886.19	6090	
886.35	5489.2	
886.52	4014.7	
886.69	5089.9	
886.85	5105.6	
887.02	6490	
887.19	6490	
887.35	6490	
887.52	6490	
887.68	6490	
887.85	6490	
888.02	6490	
888.18	6490	
888.35	6490	
888.51	6490	
888.68	6490	
888.85	6490	
889.01	6490	
889.18	6490	
889.35	6490	
889.51	6490	
889.68	6490	
889.84	6490	
890.01	6490	
890.17	6490	
890.34	6490	
890.51	6490	
890.67	6490	
890.84	6490	
891	6490	
891.17	6490	
891.34	6490	
891.5	6490	
891.67	6490	
891.83	6490	
892	6490	
892.16	6490	
892.33	6490	
892.5	6490	
892.66	6490	
892.83	6490	
892.99	6490	
893.16	6490	
893.32	6490	
893.49	6490	
893.65	6490	
893.82	6490	
893.99	6490	
894.15	6490	
894.32	6490	
894.48	6490	
894.65	6490	
894.81	6490	
894.98	6490	
895.14	6490	
895.31	6490	
895.47	6490	
895.64	6490	
895.81	6490	
895.97	6490	
896.14	6490	
896.3	6490	
896.47	6490	
896.63	6490	
896.8	6490	
896.96	6490	
897.13	6490	
897.29	6490	
897.46	6490	
897.62	6490	
897.79	6490	
897.95	6490	
898.12	6490	
898.28	6490	
898.45	6490	
898.61	6490	
898.78	6490	
898.94	6490	
899.11	6490	
899.27	6490	
899.44	6490	
899.6	6490	
899.77	6490	
899.93	6490	
900.1	6490	
900.26	6490	
900.43	6490	
900.59	6490	
900.76	6490	
900.92	6490	
901.09	6490	
901.25	6490	
901.42	6490	
901.58	6490	
901.75	6490	
901.91	6490	
902.07	6490	
902.24	6490	
902.4	6490	
902.57	6490	
902.73	6490	
902.9	6490	
903.06	6490	
903.23	6490	
903.39	6490	
903.56	6490	
903.72	6490	
903.88	6490	
904.05	6490	
904.21	6490	
904.38	6490	
904.54	6490	
904.71	6490	
904.87	6490	
905.03	6490	
905.2	6490	
905.36	6490	
905.53	6490	
905.69	6490	
905.86	6490	
906.02	6490	
906.18	6490	
906.35	6490	
906.51	6490	
906.68	6490	
906.84	6490	
907.01	6490	
907.17	6490	
907.33	6490	
907.5	6490	
907.66	6490	
907.83	6490	
907.99	6490	
908.15	6490	
908.32	6490	
908.48	6490	
908.65	6490	
908.81	6490	
908.97	6490	
909.14	6490	
909.3	6490	
909.47	6490	
909.63	6490	
909.79	6490	
909.96	6490	
910.12	6490	
910.28	6490	
910.45	6490	
910.61	6490	
910.78	6490	
910.94	6490	
911.1	6490	
911.27	6490	
911.43	6490	
911.59	6490	
911.76	6490	
911.92	6490	
912.08	6490	
912.25	6490	
912.41	6490	
912.57	6490	
912.74	6490	
912.9	6490	
913.07	6490	
913.23	6490	
913.39	6490	
913.56	6490	
913.72	6490	
913.88	6490	
914.05	6490	
914.21	6490	
914.37	6490	
914.54	6490	
914.7	6490	
914.86	6490	
915.03	6490	
915.19	6490	
