Wavelength	Intensities	
nm	a.u.	
179.22	1694.9	
179.44	1698.8	
179.65	1690.9	
179.86	1706.6	
180.08	1708.7	
180.29	3927.3	
180.51	3066.5	
180.72	5046.9	
180.94	5605.3	
181.15	2779.8	
181.37	2813.2	
181.58	4876.9	
181.79	5072.8	
182.01	2874.7	
182.22	3039.2	
182.44	5051.7	
182.65	4369.7	
182.87	3721.8	
183.08	3320.4	
183.29	5304.9	
183.51	4416.8	
183.72	3013.2	
183.94	4199	
184.15	4762.2	
184.37	4677.6	
184.58	2734	
184.79	3542.3	
185.01	4521.2	
185.22	5150	
185.44	3727.3	
185.65	3206.4	
185.86	4775.9	
186.08	4357.4	
186.29	2655.5	
186.51	2829.6	
186.72	4547.9	
186.94	5165.7	
187.15	3226.9	
187.36	3312.2	
187.58	6535.8	
187.79	4842.1	
188.01	3390.1	
188.22	5120.6	
188.43	5679.7	
188.65	5013.4	
188.86	2838.5	
189.08	3342.3	
189.29	4572.4	
189.5	4586.8	
189.72	3086.3	
189.93	3135.4	
190.15	5205.3	
190.36	6013.5	
190.57	3365.5	
190.79	3226.9	
191	5212.8	
191.22	5195	
191.43	3429.7	
191.64	2844.6	
191.86	5410.7	
192.07	5130.2	
192.29	2968.9	
192.5	3039.2	
192.71	5221	
192.93	4530.8	
193.14	3054.2	
193.35	3156.6	
193.57	4625	
193.78	5225.1	
194	2551.1	
194.21	2998.2	
194.42	4429.1	
194.64	4760.2	
194.85	3244.7	
195.07	3783.3	
195.28	4829.8	
195.49	4227.7	
195.71	4007.2	
195.92	2907.4	
196.13	4924	
196.35	4960.2	
196.56	4214	
196.78	3310.9	
196.99	5960.3	
197.2	5593	
197.42	3730	
197.63	3368.9	
197.84	4369	
198.06	4899.4	
198.27	3053.5	
198.48	4005.1	
198.7	4586.1	
198.91	4795.7	
199.13	3345.7	
199.34	3327.3	
199.55	5154.1	
199.77	4130.1	
199.98	3005.7	
200.19	3358.7	
200.41	4780	
200.62	4479.6	
200.83	3418.7	
201.05	3691.1	
201.26	4797.7	
201.47	4556	
201.69	3003.7	
201.9	2889.7	
202.11	4758.8	
202.33	5500.2	
202.54	3122.5	
202.76	3506.8	
202.97	4805.2	
203.18	4891.2	
203.4	3420.1	
203.61	3397.6	
203.82	4844.1	
204.04	4486.4	
204.25	3382.6	
204.46	3286.3	
204.68	4792.9	
204.89	4919.2	
205.1	3240.6	
205.32	2890.4	
205.53	5051.7	
205.74	5222.3	
205.96	2548.4	
206.17	3381.9	
206.38	5020.3	
206.6	5165.7	
206.81	3736.2	
207.02	3137.5	
207.24	4929.5	
207.45	5228.5	
207.66	3213.3	
207.88	2787.3	
208.09	4942.4	
208.3	4758.1	
208.52	2976.4	
208.73	3222.8	
208.94	4755.4	
209.15	5268.7	
209.37	3174.4	
209.58	3545.7	
209.79	5165	
210.01	4612.7	
210.22	2634.4	
210.43	2765.4	
210.65	4745.8	
210.86	5050.3	
211.07	3156.6	
211.29	2965.5	
211.5	4995.7	
211.71	4698.7	
211.93	2957.3	
212.14	2955.9	
212.35	4728.1	
212.56	4851	
212.78	3380.5	
212.99	2751.8	
213.2	5448.3	
213.42	4601.1	
213.63	3065.1	
213.84	3175	
214.06	4330.1	
214.27	4373.8	
214.48	3177.8	
214.69	3412.6	
214.91	5327.4	
215.12	5302.9	
215.33	3425.6	
215.55	3686.3	
215.76	5698.1	
215.97	5067.4	
216.18	3233.1	
216.4	3206.4	
216.61	4543.1	
216.82	5132.2	
217.04	3017.3	
217.25	3084.9	
217.46	5210	
217.67	5096	
217.89	2698.5	
218.1	2839.2	
218.31	4806.6	
218.53	4889.9	
218.74	3132	
218.95	3019.4	
219.16	4720.6	
219.38	5461.9	
219.59	2998.2	
219.8	3554.6	
220.01	5911.1	
220.23	4816.8	
220.44	3823.6	
220.65	2934.1	
220.87	4847.5	
221.08	5255.1	
221.29	2789.3	
221.5	3545	
221.72	6242.9	
221.93	4532.8	
222.14	3426.3	
222.35	3878.2	
222.57	4758.8	
222.78	5091.3	
222.99	3188.7	
223.2	3418.1	
223.42	5013.4	
223.63	5068	
223.84	2527.2	
224.05	2532.7	
224.27	5822.4	
224.48	5410.1	
224.69	3934.8	
224.9	3327.9	
225.12	4910.3	
225.33	4733.5	
225.54	2741.5	
225.75	2982.5	
225.97	4455	
226.18	4745.1	
226.39	3194.8	
226.6	3037.8	
226.82	4597	
227.03	4468	
227.24	3304.1	
227.45	2752.5	
227.67	5114.5	
227.88	5391.6	
228.09	3696.6	
228.3	3725.9	
228.52	5050.3	
228.73	4736.3	
228.94	3104	
229.15	2828.2	
229.36	4715.1	
229.58	4634.6	
229.79	3160	
230	3557.3	
230.21	5599.8	
230.43	4806.6	
230.64	3351.2	
230.85	3430.3	
231.06	5138.4	
231.28	5149.3	
231.49	2861.7	
231.7	3259.7	
231.91	5079.6	
232.12	4799.8	
232.34	2875.3	
232.55	3224.2	
232.76	5238.7	
232.97	4851.6	
233.18	2977.1	
233.4	3267.2	
233.61	4941.7	
233.82	4597	
234.03	3107.5	
234.25	3137.5	
234.46	6269.5	
234.67	4783.4	
234.88	3357.3	
235.09	2979.1	
235.31	4941.7	
235.52	4651.6	
235.73	3293.8	
235.94	2825.5	
236.15	4587.4	
236.37	5612.8	
236.58	2935.4	
236.79	3199.6	
237	4962.2	
237.21	4401.1	
237.43	3387.3	
237.64	2714.9	
237.85	7893.6	
238.06	4397.7	
238.27	3381.2	
238.48	2843.3	
238.7	5011.4	
238.91	4696	
239.12	3194.8	
239.33	3339.6	
239.54	4489.8	
239.76	4706.2	
239.97	3214.6	
240.18	3207.1	
240.39	5720	
240.6	4866.7	
240.82	3354.6	
241.03	2775.7	
241.24	4735.6	
241.45	5382.1	
241.66	2977.7	
241.87	3414	
242.09	5322	
242.3	5638.7	
242.51	3454.9	
242.72	3257.6	
242.93	5097.4	
243.14	4733.5	
243.36	3722.5	
243.57	3902.1	
243.78	5418.9	
243.99	5040.7	
244.2	3217.4	
244.41	2934.7	
244.63	4461.8	
244.84	4922.6	
245.05	3360.7	
245.26	3220.8	
245.47	5028.4	
245.68	5147.9	
245.9	4107.5	
246.11	3377.8	
246.32	4606.6	
246.53	4980.7	
246.74	4992.3	
246.95	2745	
247.16	4485.1	
247.38	4790.2	
247.59	2765.4	
247.8	3211.9	
248.01	4433.2	
248.22	4730.1	
248.43	2934.1	
248.64	3167.5	
248.86	4365.6	
249.07	4608.6	
249.28	2913.6	
249.49	3295.2	
249.7	5150	
249.91	5253	
250.12	2734	
250.34	2820.7	
250.55	4840.7	
250.76	4779.3	
250.97	3325.9	
251.18	3336.1	
251.39	5268.1	
251.6	4879.6	
251.81	3331.4	
252.03	3295.2	
252.24	4593.6	
252.45	5195.7	
252.66	2859.6	
252.87	3449.5	
253.08	4773.1	
253.29	5900.9	
253.5	2903.3	
253.72	3859.7	
253.93	4658.4	
254.14	5545.9	
254.35	3060.3	
254.56	3135.4	
254.77	4904.9	
254.98	4465.3	
255.19	3050.8	
255.41	3790.1	
255.62	4872.1	
255.83	5244.2	
256.04	3360.7	
256.25	3379.1	
256.46	5670.8	
256.67	4551.3	
256.88	3194.8	
257.09	3621.5	
257.31	4467.3	
257.52	4476.2	
257.73	4109.6	
257.94	3070.6	
258.15	4658.4	
258.36	4733.5	
258.57	3751.9	
258.78	2499.2	
258.99	5163.6	
259.2	4646.8	
259.41	3103.4	
259.63	3168.9	
259.84	5366.4	
260.05	5644.9	
260.26	3953.3	
260.47	3010.5	
260.68	5212.8	
260.89	4681	
261.1	3614	
261.31	2954.5	
261.52	5284.4	
261.73	5464.7	
261.95	3881.6	
262.16	3391.4	
262.37	5338.4	
262.58	5375.9	
262.79	3867.2	
263	3069.2	
263.21	4780.6	
263.42	4601.8	
263.63	3317	
263.84	3138.2	
264.05	5199.8	
264.26	5429.8	
264.47	3780.6	
264.69	3317	
264.9	5396.4	
265.11	4921.3	
265.32	2999.6	
265.53	3044	
265.74	4883.7	
265.95	4308.9	
266.16	3210.5	
266.37	3510.9	
266.58	4857.1	
266.79	4555.4	
267	3066.5	
267.21	2889.7	
267.42	4442.7	
267.63	4717.8	
267.84	3214.6	
268.06	2734.7	
268.27	5136.3	
268.48	5259.2	
268.69	3183.2	
268.9	3587.4	
269.11	5309.7	
269.32	4328	
269.53	3212.6	
269.74	2979.8	
269.95	4975.9	
270.16	4286.4	
270.37	3196.9	
270.58	3630.4	
270.79	4634.6	
271	5162.2	
271.21	3388	
271.42	3257.6	
271.63	4890.5	
271.84	4410	
272.05	2676.7	
272.26	2918.4	
272.47	4786.1	
272.68	4918.5	
272.89	3083.6	
273.11	3498.6	
273.32	4633.2	
273.53	5478.3	
273.74	3437.9	
273.95	3336.8	
274.16	5189.6	
274.37	4766.3	
274.58	3519.8	
274.79	2854.2	
275	4842.1	
275.21	5197.1	
275.42	4199.7	
275.63	3543	
275.84	4970.4	
276.05	6109.1	
276.26	3355.3	
276.47	3146.4	
276.68	4694.6	
276.89	5480.4	
277.1	3556.6	
277.31	2789.3	
277.52	4945.2	
277.73	5145.2	
277.94	2809.1	
278.15	3063.8	
278.36	4930.8	
278.57	4493.2	
278.78	3139.5	
278.99	3414	
279.2	4526	
279.41	4468.7	
279.62	3997	
279.83	2897.2	
280.04	5653.1	
280.25	4464.6	
280.46	4012	
280.67	3239.2	
280.88	4508.3	
281.09	5245.5	
281.3	3362.1	
281.51	4178.5	
281.72	4614.1	
281.93	5107.6	
282.14	3057.6	
282.35	3265.1	
282.56	5177.9	
282.77	5152	
282.98	3158	
283.19	3756	
283.4	6074.3	
283.61	4765.6	
283.82	2932	
284.03	3861.1	
284.24	4920.6	
284.45	5259.9	
284.66	3893.9	
284.87	3745.7	
285.08	5255.1	
285.29	5318.6	
285.5	2811.2	
285.71	3165.5	
285.92	5219.6	
286.12	5691.3	
286.33	3895.2	
286.54	3164.8	
286.75	5109.7	
286.96	4650.9	
287.17	2934.1	
287.38	3767.6	
287.59	4591.5	
287.8	4495.3	
288.01	3145.7	
288.22	3523.9	
288.43	5074.9	
288.64	4339.6	
288.85	3677.5	
289.06	3494.5	
289.27	5325.4	
289.48	5390.9	
289.69	3918.4	
289.9	3550.5	
290.11	5255.8	
290.32	4567.7	
290.53	3732.1	
290.74	3481.5	
290.94	5100.1	
291.15	5167	
291.36	3067.2	
291.57	3506.8	
291.78	4646.2	
291.99	4355.3	
292.2	2940.9	
292.41	3440.6	
292.62	5208	
292.83	5045.5	
293.04	4192.2	
293.25	2997.5	
293.46	4649.6	
293.67	5196.4	
293.88	3023.5	
294.09	2931.3	
294.29	4485.1	
294.5	4938.3	
294.71	3244	
294.92	3063.8	
295.13	4598.4	
295.34	5605.3	
295.55	2779.8	
295.76	2707.4	
295.97	5102.9	
296.18	5629.9	
296.39	2885.6	
296.6	3039.2	
296.81	4832.5	
297.01	5023	
297.22	3122.5	
297.43	3115	
297.64	4610	
297.85	4500.8	
298.06	2624.1	
298.27	2798.9	
298.48	4768.4	
298.69	4534.2	
298.9	3277.4	
299.11	3002.3	
299.31	4440	
299.52	4456.4	
299.73	3506.1	
299.94	3361.4	
300.15	4782.7	
300.36	4500.1	
300.57	3410.6	
300.78	3381.2	
300.99	4693.9	
301.2	4788.8	
301.4	3011.9	
301.61	3257.6	
301.82	5061.2	
302.03	5144.5	
302.24	3581.2	
302.45	2864.4	
302.66	5018.9	
302.87	5330.9	
303.08	3050.8	
303.29	3990.8	
303.49	4625	
303.7	4731.5	
303.91	2722.4	
304.12	3772.4	
304.33	4440	
304.54	4854.4	
304.75	3037.8	
304.96	2979.8	
305.16	5043.5	
305.37	5551.4	
305.58	2704.7	
305.79	2764.8	
306	5003.9	
306.21	4268.6	
306.42	3062.4	
306.63	4429.8	
306.83	4621.6	
307.04	5107	
307.25	3311.6	
307.46	3300	
307.67	4227	
307.88	5053	
308.09	3054.9	
308.29	3063.1	
308.5	4855.1	
308.71	5211.4	
308.92	3188	
309.13	2974.3	
309.34	4706.9	
309.55	4673.5	
309.75	3689.1	
309.96	3373.7	
310.17	5110.4	
310.38	4588.8	
310.59	3538.2	
310.8	3402.4	
311.01	4689.2	
311.21	4683	
311.42	2896.5	
311.63	3015.3	
311.84	4578.6	
312.05	4877.6	
312.26	3352.5	
312.46	3609.9	
312.67	4643.4	
312.88	4361.5	
313.09	2923.1	
313.3	2884.9	
313.51	5327.4	
313.71	5578	
313.92	2951.8	
314.13	3113.6	
314.34	4969.7	
314.55	4711	
314.76	3689.8	
314.96	3272.7	
315.17	4932.2	
315.38	5111.7	
315.59	3056.9	
315.8	2872.6	
316.01	5397.1	
316.21	5453.1	
316.42	2921.8	
316.63	3238.5	
316.84	4641.4	
317.05	5214.8	
317.26	3437.2	
317.46	3089	
317.67	4749.9	
317.88	5102.2	
318.09	3657.7	
318.3	2752.5	
318.5	4627	
318.71	5064.6	
318.92	4566.3	
319.13	3439.9	
319.34	5057.8	
319.54	5266.7	
319.75	2771.6	
319.96	2650.1	
320.17	5031.9	
320.38	5251	
320.58	2738.8	
320.79	3207.1	
321	5263.3	
321.21	5292.6	
321.42	3252.2	
321.62	2740.9	
321.83	4501.4	
322.04	4810.7	
322.25	3125.2	
322.46	2899.2	
322.66	4845.5	
322.87	5053	
323.08	3519.1	
323.29	2897.2	
323.5	5592.3	
323.7	4432.5	
323.91	3820.8	
324.12	3531.4	
324.33	4898.7	
324.53	5034.6	
324.74	3442.6	
324.95	3514.3	
325.16	4328	
325.37	4669.4	
325.57	2973.7	
325.78	3026.9	
325.99	4854.4	
326.2	4378.6	
326.4	4003.8	
326.61	2768.9	
326.82	4699.4	
327.03	4842.1	
327.24	4052.2	
327.44	3800.3	
327.65	5000.5	
327.86	4161.5	
328.07	3403	
328.27	2884.2	
328.48	5294	
328.69	4418.2	
328.9	4130.1	
329.1	3095.2	
329.31	4670.7	
329.52	5398.4	
329.73	3009.8	
329.93	3256.3	
330.14	4795.7	
330.35	4894.6	
330.56	4646.8	
330.76	3525.9	
330.97	4679.6	
331.18	4858.5	
331.39	3290.4	
331.59	2693.8	
331.8	5231.2	
332.01	5296	
332.22	3080.1	
332.42	3370.3	
332.63	4833.2	
332.84	4492.6	
333.05	3312.9	
333.25	3010.5	
333.46	4579.3	
333.67	4766.3	
333.88	3097.2	
334.08	3333.4	
334.29	6236.7	
334.5	5210.7	
334.7	2874	
334.91	3995.6	
335.12	4407.2	
335.33	5048.2	
335.53	3211.2	
335.74	4586.1	
335.95	4653	
336.16	4481	
336.36	3235.1	
336.57	3737.5	
336.78	4436.6	
336.98	5205.3	
337.19	3923.2	
337.4	3161.4	
337.61	5655.1	
337.81	4388.8	
338.02	3038.5	
338.23	3805.1	
338.43	5333.6	
338.64	4543.1	
338.85	3048.7	
339.05	3863.2	
339.26	5418.9	
339.47	4341.7	
339.68	2919.7	
339.88	4222.2	
340.09	4978.6	
340.3	5152	
340.5	3392.1	
340.71	2682.8	
340.92	4453	
341.13	5296.7	
341.33	2838.5	
341.54	3415.3	
341.75	4920.6	
341.95	4646.8	
342.16	3304.7	
342.37	3562.1	
342.57	4388.8	
342.78	4659.1	
342.99	3628.3	
343.19	2709.5	
343.4	5100.8	
343.61	4946.5	
343.81	3160.7	
344.02	2899.9	
344.23	5080.3	
344.43	5322	
344.64	3627.6	
344.85	3548.4	
345.06	5007.3	
345.26	5167	
345.47	3389.4	
345.68	3918.4	
345.88	4296	
346.09	5074.9	
346.3	3409.9	
346.5	2696.5	
346.71	4699.4	
346.92	4569.7	
347.12	2777.7	
347.33	3350.5	
347.54	5213.4	
347.74	5406	
347.95	3364.1	
348.16	2581.1	
348.36	4592.9	
348.57	4459.1	
348.78	3393.5	
348.98	3523.9	
349.19	4717.8	
349.39	4285.7	
349.6	2787.3	
349.81	3020.1	
350.01	4962.2	
350.22	4556.7	
350.43	3289.7	
350.63	3859.1	
350.84	4717.2	
351.05	4562.9	
351.25	2962.7	
351.46	2740.9	
351.67	5124	
351.87	4557.4	
352.08	3190.7	
352.29	3605.8	
352.49	5062.6	
352.7	5143.8	
352.9	2894.5	
353.11	3497.9	
353.32	5540.4	
353.52	4613.4	
353.73	2868.5	
353.94	3581.9	
354.14	4986.8	
354.35	4757.4	
354.55	2962.7	
354.76	3265.1	
354.97	4948.6	
355.17	4722.6	
355.38	2777	
355.59	3744.4	
355.79	4528.7	
356	4730.1	
356.2	3261	
356.41	2882.2	
356.62	4322.6	
356.82	4655.7	
357.03	3435.8	
357.24	3104	
357.44	4481	
357.65	4631.8	
357.85	3989.4	
358.06	3302.7	
358.27	4273.4	
358.47	4451.6	
358.68	2769.5	
358.88	3374.4	
359.09	4834.6	
359.3	5160.2	
359.5	3964.9	
359.71	3448.1	
359.91	5501.5	
360.12	4889.9	
360.33	3424.2	
360.53	3764.2	
360.74	4467.3	
360.94	4540.3	
361.15	3523.2	
361.36	2973	
361.56	5107.6	
361.77	4679.6	
361.97	3862.5	
362.18	3149.8	
362.38	5110.4	
362.59	4343.7	
362.8	2937.5	
363	2793.4	
363.21	4221.5	
363.41	4683	
363.62	3342.3	
363.83	3994.2	
364.03	4913.8	
364.24	5442.1	
364.44	4124.6	
364.65	4136.9	
364.85	4613.4	
365.06	4367.6	
365.27	3052.2	
365.47	3084.2	
365.68	5399.1	
365.88	4590.9	
366.09	3340.9	
366.29	3061.7	
366.5	4795.7	
366.71	5039.4	
366.91	4040	
367.12	3461.7	
367.32	5519.3	
367.53	5023.7	
367.73	3467.2	
367.94	4134.2	
368.14	4981.3	
368.35	5560.2	
368.56	3351.8	
368.76	3218	
368.97	5075.5	
369.17	6187.6	
369.38	3072.6	
369.58	3219.4	
369.79	4300.7	
369.99	5346.6	
370.2	3996.3	
370.4	3263.8	
370.61	4799.1	
370.82	5730.2	
371.02	3285.6	
371.23	2755.9	
371.43	4358.8	
371.64	5278.3	
371.84	3267.9	
372.05	4052.2	
372.25	6146.6	
372.46	4973.2	
372.66	3232.4	
372.87	3173	
373.07	5029.1	
373.28	6218.3	
373.48	3972.4	
373.69	3731.4	
373.9	4700.8	
374.1	4650.9	
374.31	3901.4	
374.51	3585.3	
374.72	5286.5	
374.92	4433.9	
375.13	4020.8	
375.33	3416	
375.54	4891.2	
375.74	4554.7	
375.95	3522.5	
376.15	4371.7	
376.36	5020.9	
376.56	4807.9	
376.77	3449.5	
376.97	3794.9	
377.18	5717.2	
377.38	4992.3	
377.59	4007.9	
377.79	3153.2	
378	4851.6	
378.2	5089.9	
378.41	3161.4	
378.61	3110.2	
378.82	5241.4	
379.02	4560.1	
379.23	3273.3	
379.43	4113.7	
379.64	5349.3	
379.84	4919.9	
380.05	3230.3	
380.25	3119.7	
380.46	5036.6	
380.66	4721.9	
380.87	4085	
381.07	4438.6	
381.28	5406.6	
381.48	4990.9	
381.69	3169.6	
381.89	3277.4	
382.1	4285.7	
382.3	5104.9	
382.51	4003.8	
382.71	4691.2	
382.91	5025	
383.12	5373.2	
383.32	3439.9	
383.53	3638.6	
383.73	4949.9	
383.94	4821.6	
384.14	3633.8	
384.35	3004.4	
384.55	4691.9	
384.76	5077.6	
384.96	3535.5	
385.17	3743	
385.37	5123.3	
385.58	4491.2	
385.78	3665.9	
385.98	2927.2	
386.19	4694.6	
386.39	4931.5	
386.6	3280.2	
386.8	3431	
387.01	5004.6	
387.21	5097.4	
387.42	3830.4	
387.62	4167.6	
387.83	4603.8	
388.03	4858.5	
388.23	3520.5	
388.44	4041.3	
388.64	4346.5	
388.85	4453.6	
389.05	3717.1	
389.26	4175.1	
389.46	5969.8	
389.67	5386.8	
389.87	3764.8	
390.07	3747.1	
390.28	4723.3	
390.48	4412	
390.69	3180.5	
390.89	3373.7	
391.1	4595	
391.3	5272.8	
391.5	4246.1	
391.71	4696	
391.91	5137	
392.12	5739.8	
392.32	4322.6	
392.53	3730	
392.73	4684.4	
392.93	4769	
393.14	3534.8	
393.34	4144.4	
393.55	5104.2	
393.75	4729.4	
393.95	3552.5	
394.16	3485.6	
394.36	4644.1	
394.57	5154.7	
394.77	3119.7	
394.98	3431	
395.18	4568.3	
395.38	4604.5	
395.59	4057	
395.79	3332	
396	4734.9	
396.2	5018.2	
396.4	3939.6	
396.61	3847.5	
396.81	5135.6	
397.02	4584	
397.22	4102.1	
397.42	4108.2	
397.63	5220.3	
397.83	4575.2	
398.04	3241.3	
398.24	3577.8	
398.44	4973.8	
398.65	4221.5	
398.85	3173.7	
399.05	3174.4	
399.26	4573.8	
399.46	5801.2	
399.67	3505.4	
399.87	3278.8	
400.07	4823	
400.28	5044.1	
400.48	3349.8	
400.69	4085.7	
400.89	5137.7	
401.09	5561.6	
401.3	3261	
401.5	4060.4	
401.7	5616.9	
401.91	5862	
402.11	3547.8	
402.32	3753.2	
402.52	5292	
402.72	5192.3	
402.93	3908.2	
403.13	3063.8	
403.33	5909.8	
403.54	4883.7	
403.74	3698.6	
403.94	4292.5	
404.15	4921.3	
404.35	5853.8	
404.56	3464.5	
404.76	4763.6	
404.96	5208.7	
405.17	5010	
405.37	4088.4	
405.57	3791.5	
405.78	5226.4	
405.98	4909.7	
406.18	3499.3	
406.39	4173.1	
406.59	5218.9	
406.79	4889.9	
407	3310.2	
407.2	3355.9	
407.4	5339.1	
407.61	5362.3	
407.81	3422.8	
408.01	4912.4	
408.22	4489.1	
408.42	5756.2	
408.62	4166.9	
408.83	3704.8	
409.03	4894.6	
409.23	4764.3	
409.44	3809.9	
409.64	3917.1	
409.84	5554.1	
410.05	5483.8	
410.25	3906.2	
410.45	3760.1	
410.66	5083.1	
410.86	6926.2	
411.06	4018.8	
411.27	3945.1	
411.47	6708.5	
411.67	5237.3	
411.88	4027.7	
412.08	4244.1	
412.28	5557.5	
412.49	6033.3	
412.69	3932.8	
412.89	3898.6	
413.09	5943.2	
413.3	5847	
413.5	3950.5	
413.7	3750.5	
413.91	5292.6	
414.11	5908.4	
414.31	3751.2	
414.52	4115.1	
414.72	5704.3	
414.92	5582.8	
415.12	3822.2	
415.33	4304.1	
415.53	5815.5	
415.73	5990.3	
415.94	4603.8	
416.14	4001.7	
416.34	5126.1	
416.55	4943.8	
416.75	4938.3	
416.95	4543.1	
417.15	5900.2	
417.36	6366.5	
417.56	5122.7	
417.76	4394.3	
417.97	6105	
418.17	5854.5	
418.37	4128	
418.57	4074.1	
418.78	5737	
418.98	5518.6	
419.18	4735.6	
419.38	4746.5	
419.59	5477.6	
419.79	5267.4	
419.99	4085.7	
420.2	4323.3	
420.4	5944.6	
420.6	6047	
420.8	3964.9	
421.01	3908.2	
421.21	5800.5	
421.41	5791	
421.61	4257	
421.82	4105.5	
422.02	5433.9	
422.22	6173.3	
422.42	4621.6	
422.63	4482.3	
422.83	5483.1	
423.03	6356.2	
423.23	4426.3	
423.44	3701.4	
423.64	5522	
423.84	5299.5	
424.04	4016.1	
424.25	3733.4	
424.45	6201.2	
424.65	6199.2	
424.85	3713	
425.06	4036.5	
425.26	6352.8	
425.46	5486.5	
425.66	4519.9	
425.87	4184.7	
426.07	5990.3	
426.27	5920.7	
426.47	4269.3	
426.67	3859.7	
426.88	6358.9	
427.08	5927.5	
427.28	4534.9	
427.48	3809.2	
427.69	5094	
427.89	5584.8	
428.09	4401.8	
428.29	3862.5	
428.5	5954.1	
428.7	5799.2	
428.9	3751.9	
429.1	4091.8	
429.3	5758.2	
429.51	5907.7	
429.71	4007.2	
429.91	4613.4	
430.11	5924.8	
430.31	6111.8	
430.52	4203.8	
430.72	4435.2	
430.92	6344.6	
431.12	5936.4	
431.32	3993.5	
431.53	4313.7	
431.73	5097.4	
431.93	6380.1	
432.13	3925.3	
432.33	3861.1	
432.54	5496.1	
432.74	5689.3	
432.94	3827	
433.14	4569	
433.34	5941.2	
433.55	5580	
433.75	4533.5	
433.95	5821	
434.15	5781.4	
434.35	5490.6	
434.56	3940.3	
434.76	3587.4	
434.96	5664	
435.16	5933	
435.36	3900.7	
435.56	4641.4	
435.77	5502.9	
435.97	5626.5	
436.17	5152	
436.37	4640.7	
436.57	5399.8	
436.78	5356.8	
436.98	5933	
437.18	5079.6	
437.38	5910.4	
437.58	5614.8	
437.78	5180.7	
437.99	4133.5	
438.19	6019.7	
438.39	6555.5	
438.59	4179.2	
438.79	3756	
438.99	6494.8	
439.2	5564.3	
439.4	3805.8	
439.6	3807.2	
439.8	5765.7	
440	6527.6	
440.2	4573.1	
440.4	4632.5	
440.61	6076.3	
440.81	6496.8	
441.01	3968.3	
441.21	4672.1	
441.41	6452.5	
441.61	6118.6	
441.81	4911.7	
442.02	5565	
442.22	6794.5	
442.42	6229.9	
442.62	4047.5	
442.82	4042.7	
443.02	6547.4	
443.22	5746.6	
443.43	4429.8	
443.63	4015.4	
443.83	5655.8	
444.03	5652.4	
444.23	4865.3	
444.43	4632.5	
444.63	5957.5	
444.83	6746	
445.04	4091.2	
445.24	5119.2	
445.44	6253.1	
445.64	6224.5	
445.84	4773.1	
446.04	4730.8	
446.24	5706.3	
446.44	6509.8	
446.65	4177.2	
446.85	4461.8	
447.05	5923.4	
447.25	6387.6	
447.45	4478.9	
447.65	4007.2	
447.85	5939.1	
448.05	5672.2	
448.25	4835.9	
448.46	4637.3	
448.66	6018.3	
448.86	5741.1	
449.06	4051.6	
449.26	4838	
449.46	6236.7	
449.66	5550	
449.86	4437.3	
450.06	4498.7	
450.26	5670.8	
450.47	6087.2	
450.67	4604.5	
450.87	4920.6	
451.07	6274.3	
451.27	5983.5	
451.47	4156.7	
451.67	4558.1	
451.87	5862.7	
452.07	6682.5	
452.27	4348.5	
452.47	4269.3	
452.67	5900.2	
452.88	6333	
453.08	3875.4	
453.28	5313.1	
453.48	6954.9	
453.68	5918.6	
453.88	4192.2	
454.08	4429.8	
454.28	6303	
454.48	6012.8	
454.68	4848.2	
454.88	5154.7	
455.08	6443.6	
455.28	6051.7	
455.48	4143	
455.68	4730.1	
455.89	6771.9	
456.09	6413.6	
456.29	4429.1	
456.49	4517.1	
456.69	6596.5	
456.89	6019	
457.09	4866.7	
457.29	5104.2	
457.49	6244.9	
457.69	6334.4	
457.89	4749.2	
458.09	4259.1	
458.29	6179.4	
458.49	6680.5	
458.69	5079	
458.89	4576.5	
459.09	6821.1	
459.29	6907.1	
459.49	4659.8	
459.69	5256.5	
459.9	6565.1	
460.1	6130.3	
460.3	4664.6	
460.5	4395.6	
460.7	6528.2	
460.9	6211.5	
461.1	4194.2	
461.3	5057.1	
461.5	6963.8	
461.7	6663.4	
461.9	4562.2	
462.1	4870.8	
462.3	6245.6	
462.5	6744.6	
462.7	4597.7	
462.9	4616.8	
463.1	7504.4	
463.3	7296.9	
463.5	4725.3	
463.7	5529.5	
463.9	6445	
464.1	6806.1	
464.3	4848.9	
464.5	5076.2	
464.7	7032.7	
464.9	6635.4	
465.1	6087.9	
465.3	5309.7	
465.5	7189.7	
465.7	7192.5	
465.9	5481	
466.1	5401.9	
466.3	7006.8	
466.5	7004.1	
466.7	6047	
466.9	5189.6	
467.1	6969.2	
467.3	7628	
467.5	5945.3	
467.7	5185.5	
467.9	7790.5	
468.1	8358.4	
468.3	5685.2	
468.5	6112.5	
468.7	6933.7	
468.9	6765.8	
469.1	5429.2	
469.3	6016.9	
469.5	8370.7	
469.7	6578.8	
469.9	5771.2	
470.1	5251	
470.3	7017	
470.5	6962.4	
470.7	6188.3	
470.9	5328.8	
471.1	6779.5	
471.3	7116	
471.5	5235.3	
471.69	6638.8	
471.89	6722.1	
472.09	6274.3	
472.29	5788.9	
472.49	6034	
472.69	6550.8	
472.89	7097.6	
473.09	5162.9	
473.29	5238.7	
473.49	6686.6	
473.69	6707.1	
473.89	5913.9	
474.09	5305.6	
474.29	7778.2	
474.49	7448.5	
474.69	5890	
474.89	5462.6	
475.09	6738.5	
475.29	6727.6	
475.49	5033.9	
475.69	5233.2	
475.88	8027.4	
476.08	7176.8	
476.28	5014.1	
476.48	5276.9	
476.68	7531.7	
476.88	7276.4	
477.08	5328.8	
477.28	5479.7	
477.48	6933.1	
477.68	7338.6	
477.88	5135.6	
478.08	5342.5	
478.28	7585.7	
478.48	7005.4	
478.67	5383.4	
478.87	4952	
479.07	7421.8	
479.27	7147.4	
479.47	5565	
479.67	5566.4	
479.87	7350.8	
480.07	7659.4	
480.27	5069.4	
480.47	6126.8	
480.67	7003.4	
480.87	7550.2	
481.06	5310.4	
481.26	5956.2	
481.46	7096.9	
481.66	6949.4	
481.86	5704.3	
482.06	6275	
482.26	6871.6	
482.46	7584.3	
482.66	5551.4	
482.86	5186.8	
483.05	7258	
483.25	6688	
483.45	7442.3	
483.65	5533.6	
483.85	6718	
484.05	7046.4	
484.25	5956.2	
484.45	6281.8	
484.65	7618.4	
484.84	7670.3	
485.04	5538.4	
485.24	5544.5	
485.44	7998	
485.64	6683.2	
485.84	5088.5	
486.04	5993.7	
486.24	6907.8	
486.44	7256	
486.63	4954	
486.83	5638.7	
487.03	6845.7	
487.23	7077.8	
487.43	5124	
487.63	6740.5	
487.83	7158.3	
488.02	7776.1	
488.22	5831.2	
488.42	6345.3	
488.62	7761.8	
488.82	6864.8	
489.02	5545.2	
489.22	5651	
489.41	7713.3	
489.61	7505.8	
489.81	5378	
490.01	5439.4	
490.21	7659.4	
490.41	8265.6	
490.61	5406.6	
490.8	5532.2	
491	7337.9	
491.2	6834.1	
491.4	5995.8	
491.6	5320.6	
491.8	7329.7	
491.99	7308.5	
492.19	5210.7	
492.39	5436.7	
492.59	7581.6	
492.79	7699	
492.99	5996.5	
493.18	5326.1	
493.38	7804.1	
493.58	8292.2	
493.78	5933.6	
493.98	5656.5	
494.18	7422.5	
494.37	7064.1	
494.57	6186.2	
494.77	6005.3	
494.97	7736.5	
495.17	7890.8	
495.37	5795.1	
495.56	6017.6	
495.76	8102.4	
495.96	7828.7	
496.16	6775.4	
496.36	5912.5	
496.55	8035.5	
496.75	7632.8	
496.95	6289.3	
497.15	6108.4	
497.35	8034.9	
497.54	7837.6	
497.74	6022.4	
497.94	7469.6	
498.14	8512.7	
498.34	8316.8	
498.53	5723.4	
498.73	6408.8	
498.93	7431.4	
499.13	7976.8	
499.33	6230.6	
499.52	6633.4	
499.72	8073.8	
499.92	8173.4	
500.12	6021.7	
500.32	6179.4	
500.51	8176.9	
500.71	8037.6	
500.91	6793.8	
501.11	6507.1	
501.31	8134.5	
501.5	8424	
501.7	7053.2	
501.9	6317.3	
502.1	8054.7	
502.29	8159.8	
502.49	6581.5	
502.69	6911.9	
502.89	8112	
503.09	8195.3	
503.28	5868.8	
503.48	5977.3	
503.68	7699.7	
503.88	7606.8	
504.07	6675	
504.27	6332.3	
504.47	7874.4	
504.67	7999.4	
504.86	6644.3	
505.06	6414.2	
505.26	7780.9	
505.46	8927.1	
505.65	6343.9	
505.85	6545.3	
506.05	7584.3	
506.25	8049.9	
506.44	5864.7	
506.64	6520	
506.84	7535.8	
507.04	8266.3	
507.23	6028.5	
507.43	6432.7	
507.63	9010.4	
507.83	7682.6	
508.02	6470.9	
508.22	6160.3	
508.42	9248.6	
508.62	7535.2	
508.81	6296.1	
509.01	6812.2	
509.21	7504.4	
509.4	7686	
509.6	6500.3	
509.8	6053.8	
510	7728.4	
510.19	8674.5	
510.39	5950	
510.59	6051.1	
510.79	7567.2	
510.98	8614.4	
511.18	6085.2	
511.38	6163	
511.57	8245.1	
511.77	7994.6	
511.97	6840.2	
512.17	6059.3	
512.36	8255.4	
512.56	8095.6	
512.76	6043.6	
512.95	5767.1	
513.15	8308.6	
513.35	7114	
513.55	6645	
513.74	6011.5	
513.94	8264.2	
514.14	7750.2	
514.33	6719.4	
514.53	6488	
514.73	7791.2	
514.92	7837.6	
515.12	6128.9	
515.32	6078.4	
515.51	7998	
515.71	8230.8	
515.91	7402	
516.11	6094.8	
516.3	9196.7	
516.5	7624.6	
516.7	6533.7	
516.89	6860	
517.09	7793.2	
517.29	7682.6	
517.48	6740.5	
517.68	6280.4	
517.88	7573.4	
518.07	8039	
518.27	6650.4	
518.47	5926.8	
518.66	8433.5	
518.86	7449.8	
519.06	5911.1	
519.25	6207.4	
519.45	7662.8	
519.65	8726.4	
519.84	6726.9	
520.04	7208.8	
520.24	9023.4	
520.43	8221.2	
520.63	6514.6	
520.83	6408.1	
521.02	7619.8	
521.22	8159.1	
521.42	6697.5	
521.61	7044.3	
521.81	7825.3	
522.01	7923.6	
522.2	6542.6	
522.4	6330.3	
522.6	8273.1	
522.79	7292.1	
522.99	6377.4	
523.18	5953.4	
523.38	8082.7	
523.58	8016.4	
523.77	7312.6	
523.97	5966.4	
524.17	9440.5	
524.36	8939.4	
524.56	7022.5	
524.76	6820.4	
524.95	8180.3	
525.15	7935.2	
525.34	6630	
525.54	6638.8	
525.74	8459.5	
525.93	7630	
526.13	7509.9	
526.33	6623.1	
526.52	8774.2	
526.72	8305.2	
526.91	7595.2	
527.11	7062.8	
527.31	8740	
527.5	9050.7	
527.7	7032.7	
527.89	6286.6	
528.09	7914.7	
528.29	8363.2	
528.48	7243.7	
528.68	6944	
528.87	8630.8	
529.07	8726.4	
529.27	7003.4	
529.46	6705.7	
529.66	8528.4	
529.85	8774.2	
530.05	6492.7	
530.25	7070.3	
530.44	9538.1	
530.64	8427.4	
530.83	6798.6	
531.03	6980.2	
531.23	8886.8	
531.42	8582.4	
531.62	7514	
531.81	6945.3	
532.01	8870.4	
532.21	9055.4	
532.4	6823.8	
532.6	7004.7	
532.79	9562	
532.99	8978.3	
533.18	7204.1	
533.38	7900.4	
533.58	8600.8	
533.77	9170.1	
533.97	7122.2	
534.16	7684	
534.36	9428.2	
534.55	8667	
534.75	7845.1	
534.95	7330.4	
535.14	9322.4	
535.34	8630.8	
535.53	7014.3	
535.73	8564.6	
535.92	9762.7	
536.12	8839.7	
536.31	7082.6	
536.51	7894.9	
536.71	9015.2	
536.9	8655.4	
537.1	7200.7	
537.29	7328.3	
537.49	9341.5	
537.68	8624.7	
537.88	7567.9	
538.07	6900.3	
538.27	8871.8	
538.46	9451.4	
538.66	6932.4	
538.86	7303.7	
539.05	8966	
539.25	9246.6	
539.44	7465.5	
539.64	7170.6	
539.83	8800.1	
540.03	9587.2	
540.22	7210.2	
540.42	7196.6	
540.61	9031.5	
540.81	9053.4	
541	7451.9	
541.2	7998.7	
541.39	8675.2	
541.59	8946.9	
541.78	7812.3	
541.98	7118.1	
542.18	8426	
542.37	8362.5	
542.57	7431.4	
542.76	7818.5	
542.96	8454	
543.15	8918.9	
543.35	7359.7	
543.54	6946	
543.74	9079.3	
543.93	8791.2	
544.13	7294.9	
544.32	8094.3	
544.52	9071.8	
544.71	8460.8	
544.91	6597.9	
545.1	7541.3	
545.3	8503.2	
545.49	8937.3	
545.69	6557.6	
545.88	7137.2	
546.08	9751.1	
546.27	9391.3	
546.47	7498.3	
546.66	6909.8	
546.86	9170.8	
547.05	9585.9	
547.24	7034.8	
547.44	6966.5	
547.63	8366	
547.83	9199.5	
548.02	7305.8	
548.22	7431.4	
548.41	8193.2	
548.61	9262.3	
548.8	6917.4	
549	6831.3	
549.19	8714.8	
549.39	9007.6	
549.58	6701.6	
549.78	7148.8	
549.97	8927.1	
550.17	8634.2	
550.36	7827.3	
550.55	8480	
550.75	8669.1	
550.94	9221.3	
551.14	6832.7	
551.33	7165.2	
551.53	8047.2	
551.72	8855.4	
551.92	7133.1	
552.11	7012.9	
552.31	8869.8	
552.5	8864.3	
552.69	8295.6	
552.89	6714.6	
553.08	8927.1	
553.28	8578.3	
553.47	6969.2	
553.67	7777.5	
553.86	9227.5	
554.06	7962.5	
554.25	6349.4	
554.44	6806.8	
554.64	9843.9	
554.83	9454.8	
555.03	6764.4	
555.22	7083.9	
555.42	8994.7	
555.61	8648.6	
555.8	6958.3	
556	7090.8	
556.19	8083.3	
556.39	8972.8	
556.58	6938.5	
556.78	7022.5	
556.97	8729.8	
557.16	8458.8	
557.36	7833.5	
557.55	6732.4	
557.75	7895.6	
557.94	9262.3	
558.13	6791.7	
558.33	6582.9	
558.52	9060.2	
558.72	8146.8	
558.91	6659.3	
559.1	6817.7	
559.3	8067.6	
559.49	7804.8	
559.69	6402.6	
559.88	7108.5	
560.07	8638.3	
560.27	9045.9	
560.46	7318.8	
560.66	7410.2	
560.85	8471.8	
561.04	7860.1	
561.24	6627.2	
561.43	6713.2	
561.63	8063.5	
561.82	8332.5	
562.01	7682.6	
562.21	7011.6	
562.4	8621.3	
562.59	9338.1	
562.79	6946.7	
562.98	6722.1	
563.18	8602.2	
563.37	9562	
563.56	7187.7	
563.76	6600.6	
563.95	8094.3	
564.14	8075.1	
564.34	6963.8	
564.53	6716	
564.73	8632.9	
564.92	8806.9	
565.11	7017	
565.31	6524.1	
565.5	9046.6	
565.69	8155.7	
565.89	6772.6	
566.08	6919.4	
566.27	8925	
566.47	9200.2	
566.66	7495.6	
566.85	6548.7	
567.05	8729.8	
567.24	8248.5	
567.44	6767.9	
567.63	7733.1	
567.82	8854.1	
568.02	8555.7	
568.21	6724.2	
568.4	6948.1	
568.6	8527.1	
568.79	8559.1	
568.98	6494.1	
569.18	6683.9	
569.37	8535.9	
569.56	9955.2	
569.76	7038.2	
569.95	7695.6	
570.14	8843.8	
570.34	8750.3	
570.53	6744	
570.72	6636.8	
570.91	9276.6	
571.11	8547.5	
571.3	7077.8	
571.49	7845.1	
571.69	8649.3	
571.88	8247.2	
572.07	7477.8	
572.27	7515.4	
572.46	8215.1	
572.65	9013.1	
572.85	7019.1	
573.04	7172.7	
573.23	9310.7	
573.43	8651.3	
573.62	6820.4	
573.81	7280.5	
574	8731.9	
574.2	8538	
574.39	7003.4	
574.58	7251.2	
574.78	9395.4	
574.97	8818.6	
575.16	7468.3	
575.36	7469.6	
575.55	9123	
575.74	9310.7	
575.93	6772.6	
576.13	7698.3	
576.32	8716.2	
576.51	9153.7	
576.71	7169.9	
576.9	8129.8	
577.09	9441.1	
577.28	8980.3	
577.48	7498.3	
577.67	6765.8	
577.86	8723.7	
578.05	9041.1	
578.25	7316.7	
578.44	7291.5	
578.63	8786.5	
578.83	9804.3	
579.02	6780.1	
579.21	8076.5	
579.4	8948.9	
579.6	8768.7	
579.79	7388.4	
579.98	9109.4	
580.17	9213.8	
580.37	9359.9	
580.56	6956.3	
580.75	7528.3	
580.94	9570.8	
581.14	9536	
581.33	7940.7	
581.52	7107.1	
581.71	9075.9	
581.91	9723.8	
582.1	6941.2	
582.29	7264.1	
582.48	8856.1	
582.68	8942.1	
582.87	7731.8	
583.06	7499	
583.25	9163.3	
583.45	8708	
583.64	7943.4	
583.83	8477.9	
584.02	8923.7	
584.21	9171.5	
584.41	7872.4	
584.6	7465.5	
584.79	8942.8	
584.98	9491.7	
585.18	7045	
585.37	7071.6	
585.56	8718.2	
585.75	9270.5	
585.94	7138.5	
586.14	7742	
586.33	9681.4	
586.52	8942.1	
586.71	7562.5	
586.91	7402.7	
587.1	8499.1	
587.29	9210.4	
587.48	7277.1	
587.67	7152.2	
587.87	9144.9	
588.06	9171.5	
588.25	8247.9	
588.44	7646.4	
588.63	8834.9	
588.83	9297.8	
589.02	7340.6	
589.21	7228	
589.4	8727.8	
589.59	8668.4	
589.78	6590.4	
589.98	6774	
590.17	8248.5	
590.36	8673.8	
590.55	6356.2	
590.74	6842.9	
590.94	9579	
591.13	8421.2	
591.32	6680.5	
591.51	6277	
591.7	8781.7	
591.89	8391.9	
592.09	6322.8	
592.28	6815	
592.47	7758.4	
592.66	9312.1	
592.85	6449.1	
593.05	6576.7	
593.24	8357.1	
593.43	8925.7	
593.62	6679.8	
593.81	7021.1	
594	8494.3	
594.19	8543.4	
594.39	6533.7	
594.58	6509.1	
594.77	8684.8	
594.96	9133.3	
595.15	6636.1	
595.34	6984.3	
595.54	8570.1	
595.73	7960.5	
595.92	6060.6	
596.11	6893.5	
596.3	8992.6	
596.49	8023.3	
596.68	6733	
596.88	7010.9	
597.07	8720.9	
597.26	7877.9	
597.45	6412.2	
597.64	7149.5	
597.83	8118.8	
598.02	8603.5	
598.22	6393.8	
598.41	6908.5	
598.6	8404.9	
598.79	7899	
598.98	6394.4	
599.17	7124.9	
599.36	8421.9	
599.55	9279.3	
599.74	7950.9	
599.94	7741.3	
600.13	8783.7	
600.32	7836.2	
600.51	6203.3	
600.7	6340.5	
600.89	9295	
601.08	9309.4	
601.27	6146.6	
601.47	6895.5	
601.66	8544.1	
601.85	9132.6	
602.04	6728.3	
602.23	6856.6	
602.42	7932.5	
602.61	8478.6	
602.8	6525.5	
602.99	6415.6	
603.18	8156.4	
603.37	8385.7	
603.57	6874.3	
603.76	7206.1	
603.95	8907.3	
604.14	8598.7	
604.33	6440.9	
604.52	6615.6	
604.71	8439	
604.9	8030.1	
605.09	7101.7	
605.28	6984.3	
605.47	8813.8	
605.66	8406.2	
605.86	6819.1	
606.05	6496.2	
606.24	8851.3	
606.43	7630	
606.62	6718	
606.81	7216.4	
607	8686.1	
607.19	8126.3	
607.38	6256.5	
607.57	6451.8	
607.76	7967.3	
607.95	7535.8	
608.14	6853.2	
608.33	7195.2	
608.52	7967.3	
608.72	8671.1	
608.91	6246.3	
609.1	6130.3	
609.29	8056.7	
609.48	7656.7	
609.67	6833.4	
609.86	6206.7	
610.05	7776.1	
610.24	7991.2	
610.43	6075	
610.62	5808.7	
610.81	8912.1	
611	8746.2	
611.19	6108.4	
611.38	6713.9	
611.57	8265.6	
611.76	9192	
611.95	6056.5	
612.14	5890	
612.33	8066.9	
612.52	7720.8	
612.71	6412.9	
612.9	5774.6	
613.09	7425.3	
613.28	9193.3	
613.47	6406	
613.66	6850.5	
613.85	8172.1	
614.04	7781.6	
614.24	6290.7	
614.43	5680.4	
614.62	8275.8	
614.81	8196	
615	6632.7	
615.19	6663.4	
615.38	7716.7	
615.57	7988.4	
615.76	6581.5	
615.95	7243.7	
616.14	8378.2	
616.33	8028	
616.52	6851.8	
616.71	6856.6	
616.9	8292.9	
617.09	8159.1	
617.28	6376	
617.47	7242.3	
617.66	7664.9	
617.85	7660.8	
618.04	7020.4	
618.22	6602.7	
618.41	7888.8	
618.6	8494.3	
618.79	6600.6	
618.98	6324.1	
619.17	8672.5	
619.36	7522.2	
619.55	6503.7	
619.74	6587.6	
619.93	8264.9	
620.12	7815	
620.31	6958.3	
620.5	7070.3	
620.69	8669.7	
620.88	8976.9	
621.07	7577.5	
621.26	6934.4	
621.45	8456.7	
621.64	8446.5	
621.83	7049.8	
622.02	6419	
622.21	8515.5	
622.4	8368.7	
622.59	7342	
622.78	7304.4	
622.97	8011.7	
623.16	8788.5	
623.35	6959	
623.54	6281.1	
623.72	8082	
623.91	8270.4	
624.1	7234.1	
624.29	6226.5	
624.48	9157.8	
624.67	8602.2	
624.86	7034.8	
625.05	6403.3	
625.24	9279.3	
625.43	8034.9	
625.62	8323.6	
625.81	6587.6	
626	8790.6	
626.19	8197.3	
626.38	7098.9	
626.56	6724.8	
626.75	8187.8	
626.94	8718.9	
627.13	7080.5	
627.32	6209.4	
627.51	8638.3	
627.7	9417.2	
627.89	6223.8	
628.08	7263.5	
628.27	8064.9	
628.46	8254.7	
628.65	6578.8	
628.83	6266.1	
629.02	8602.2	
629.21	7979.6	
629.4	6844.3	
629.59	6997.2	
629.78	8004.8	
629.97	8656.8	
630.16	7007.5	
630.35	6658.6	
630.54	9069.1	
630.72	8761.9	
630.91	6597.2	
631.1	7114.6	
631.29	8400.1	
631.48	8455.4	
631.67	7141.9	
631.86	6654.5	
632.05	8162.5	
632.24	8130.4	
632.42	6395.1	
632.61	6848.4	
632.8	8211	
632.99	7948.2	
633.18	6888	
633.37	7172	
633.56	8501.8	
633.75	8327.7	
633.93	6916.7	
634.12	6698.9	
634.31	9124.4	
634.5	8637.6	
634.69	6731.7	
634.88	7090.8	
635.07	8248.5	
635.25	8723	
635.44	7371.3	
635.63	7518.1	
635.82	8087.4	
636.01	7705.8	
636.2	7376.8	
636.39	6901	
636.57	8981	
636.76	8640.4	
636.95	6577.4	
637.14	7580.9	
637.33	8501.1	
637.52	8988.5	
637.7	6370.5	
637.89	7092.8	
638.08	8170.7	
638.27	9159.9	
638.46	7124.2	
638.65	7417.1	
638.83	9215.2	
639.02	7953.6	
639.21	7101.7	
639.4	7400	
639.59	8348.2	
639.78	8036.2	
639.96	6435.4	
640.15	6480.5	
640.34	8174.1	
640.53	8331.1	
640.72	6306.4	
640.91	6532.3	
641.09	7866.9	
641.28	8770.1	
641.47	6561	
641.66	7187	
641.85	8277.9	
642.03	8472.4	
642.22	6929	
642.41	6589	
642.6	7794.6	
642.79	7463.5	
642.97	6434	
643.16	6910.5	
643.35	7761.1	
643.54	7675.1	
643.73	6319.3	
643.91	6858.6	
644.1	7519.5	
644.29	7983.7	
644.48	6328.2	
644.67	6291.4	
644.85	7655.3	
645.04	7950.9	
645.23	6085.2	
645.42	6293.4	
645.6	7591.8	
645.79	8389.8	
645.98	6223.8	
646.17	5537	
646.36	7385.7	
646.54	7725.6	
646.73	6801.3	
646.92	5915.2	
647.11	7403.4	
647.29	8252.6	
647.48	5936.4	
647.67	5743.2	
647.86	8427.4	
648.05	8366.6	
648.23	6118	
648.42	7124.9	
648.61	7953.6	
648.8	7671	
648.98	5964.4	
649.17	6111.1	
649.36	7370.6	
649.55	7090.1	
649.73	5925.5	
649.92	6442.9	
650.11	7361.8	
650.3	7606.8	
650.48	5982.1	
650.67	5897.5	
650.86	7862.2	
651.05	6948.8	
651.23	5911.1	
651.42	5894.7	
651.61	7372	
651.79	7379.5	
651.98	6027.9	
652.17	5743.2	
652.36	7674.4	
652.54	6997.2	
652.73	5767.8	
652.92	5698.1	
653.11	7738.6	
653.29	7735.2	
653.48	5354.8	
653.67	6027.2	
653.85	7464.2	
654.04	8324.3	
654.23	6127.5	
654.42	5795.1	
654.6	7071	
654.79	7659.4	
654.98	5409.4	
655.16	5858.6	
655.35	6752.8	
655.54	6621.8	
655.73	5414.8	
655.91	5236	
656.1	7410.2	
656.29	6564.4	
656.47	5024.3	
656.66	6206	
656.85	6939.9	
657.03	6884.6	
657.22	5429.8	
657.41	5506.3	
657.59	6973.3	
657.78	6837.5	
657.97	5280.3	
658.16	5745.2	
658.34	7549.5	
658.53	7767.9	
658.72	6493.4	
658.9	6883.9	
659.09	7203.4	
659.28	7129	
659.46	5625.8	
659.65	5554.8	
659.84	6819.7	
660.02	7413.6	
660.21	5569.1	
660.4	5380.7	
660.58	7701	
660.77	7217	
660.96	5969.1	
661.14	5251	
661.33	8077.9	
661.52	7915.4	
661.7	5225.1	
661.89	7808.2	
662.08	6837.5	
662.26	6554.9	
662.45	5359.5	
662.64	5470.8	
662.82	7451.9	
663.01	6761.7	
663.2	5412.1	
663.38	5982.8	
663.57	7280.5	
663.75	7176.8	
663.94	5698.8	
664.13	6599.9	
664.31	6838.9	
664.5	7383.6	
664.69	5839.4	
664.87	6253.1	
665.06	6687.3	
665.25	7176.1	
665.43	6503	
665.62	6561	
665.8	7401.4	
665.99	6856.6	
666.18	5701.5	
666.36	5722	
666.55	7420.5	
666.74	7340.6	
666.92	5453.1	
667.11	6621.1	
667.29	6979.5	
667.48	7268.2	
667.67	6326.2	
667.85	5578.7	
668.04	6991.1	
668.22	6897.6	
668.41	5704.3	
668.6	5948.7	
668.78	6692.8	
668.97	6991.8	
669.15	6012.8	
669.34	5195	
669.53	6797.9	
669.71	7036.8	
669.9	5315.2	
670.08	5717.9	
670.27	6711.9	
670.46	7245	
670.64	5974.6	
670.83	6162.3	
671.01	6694.1	
671.2	7020.4	
671.38	5426.4	
671.57	5261.9	
671.76	7573.4	
671.94	7967.3	
672.13	5222.3	
672.31	6063.4	
672.5	7370	
672.69	6795.2	
672.87	5398.4	
673.06	5584.8	
673.24	7225.2	
673.43	6823.1	
673.61	5927.5	
673.8	5531.6	
673.98	7236.8	
674.17	7406.8	
674.36	6112.5	
674.54	5969.8	
674.73	7068.9	
674.91	7320.8	
675.1	5669.5	
675.28	5376.6	
675.47	6944.7	
675.65	7349.5	
675.84	5653.1	
676.03	5910.4	
676.21	6759.7	
676.4	6380.1	
676.58	6158.9	
676.77	6032	
676.95	7927	
677.14	6857.3	
677.32	5266	
677.51	5180.7	
677.69	7398.6	
677.88	6519.4	
678.06	5209.3	
678.25	5339.7	
678.44	6890.7	
678.62	6763.8	
678.81	5114.5	
678.99	5868.8	
679.18	7511.3	
679.36	7135.1	
679.55	5592.3	
679.73	6070.9	
679.92	7206.8	
680.1	6819.7	
680.29	6420.4	
680.47	5507.7	
680.66	6723.5	
680.84	7284.6	
681.03	5073.5	
681.21	5933	
681.4	6709.8	
681.58	6623.8	
681.77	5460.6	
681.95	5378.6	
682.14	7366.5	
682.32	7589.1	
682.51	6037.4	
682.69	5155.4	
682.88	6681.2	
683.06	7049.1	
683.25	5758.9	
683.43	6075.6	
683.62	6920.1	
683.8	7230.7	
683.99	6290.7	
684.17	5639.4	
684.36	7873.8	
684.54	6804.7	
684.73	5072.1	
684.91	5203.2	
685.1	7136.5	
685.28	6580.1	
685.46	5575.9	
685.65	5571.8	
685.83	7120.1	
686.02	6563.1	
686.2	5126.1	
686.39	5257.1	
686.57	6449.7	
686.76	7501	
686.94	5159.5	
687.13	5233.2	
687.31	6987.7	
687.5	6694.1	
687.68	4955.4	
687.86	5760.9	
688.05	7999.4	
688.23	6285.9	
688.42	5857.9	
688.6	5147.2	
688.79	6574	
688.97	6587	
689.16	5572.5	
689.34	4732.2	
689.52	7184.3	
689.71	7314.7	
689.89	5774.6	
690.08	5290.6	
690.26	6883.2	
690.45	6627.2	
690.63	5955.5	
690.81	5448.3	
691	6711.2	
691.18	6578.1	
691.37	5530.9	
691.55	7112.6	
691.74	6495.5	
691.92	7980.9	
692.1	5518.6	
692.29	5088.5	
692.47	6685.9	
692.66	6178.7	
692.84	5223	
693.02	5575.3	
693.21	6180.8	
693.39	6683.9	
693.58	5674.2	
693.76	5214.8	
693.94	7539.3	
694.13	7346.7	
694.31	5141.8	
694.5	6016.9	
694.68	6544.6	
694.86	6764.4	
695.05	5483.8	
695.23	5621	
695.42	7141.9	
695.6	8757.8	
695.78	6052.4	
695.97	5275.6	
696.15	7159	
696.34	6639.5	
696.52	5165.7	
696.7	5836	
696.89	6930.3	
697.07	6409.5	
697.25	5717.9	
697.44	6775.4	
697.62	6931.7	
697.81	7023.9	
697.99	5423	
698.17	5760.3	
698.36	6399.9	
698.54	6853.2	
698.72	5679.7	
698.91	4951.3	
699.09	6607.4	
699.28	6457.2	
699.46	5347.9	
699.64	5328.1	
699.83	6389.7	
700.01	7236.8	
700.19	5930.9	
700.38	4819.6	
700.56	7348.1	
700.74	6388.3	
700.93	4994.3	
701.11	5616.2	
701.29	6881.2	
701.48	7781.6	
701.66	5145.9	
701.84	5199.8	
702.03	6597.9	
702.21	7062.1	
702.39	4898.7	
702.58	5343.8	
702.76	6884.6	
702.94	6944	
703.13	4846.2	
703.31	6649.8	
703.49	6353.5	
703.68	7118.1	
703.86	4954	
704.04	5737	
704.23	6771.3	
704.41	6994.5	
704.59	5223	
704.78	6014.2	
704.96	8002.8	
705.14	7002.7	
705.33	5008.6	
705.51	5616.2	
705.69	6541.9	
705.87	7234.1	
706.06	5768.4	
706.24	4952.7	
706.42	6771.9	
706.61	7030	
706.79	5827.8	
706.97	4941.1	
707.16	6378.7	
707.34	6911.2	
707.52	5736.4	
707.7	5076.9	
707.89	6307.7	
708.07	6296.8	
708.25	5730.2	
708.44	5827.2	
708.62	6360.3	
708.8	7232.1	
708.98	5824.4	
709.17	5100.8	
709.35	6658.6	
709.53	6671.6	
709.72	4861.2	
709.9	5248.9	
710.08	6925.5	
710.26	6956.3	
710.45	6098.2	
710.63	5144.5	
710.81	6599.2	
710.99	6666.1	
711.18	5487.9	
711.36	5152.7	
711.54	6504.3	
711.72	7000.6	
711.91	5238	
712.09	4855.1	
712.27	6546.7	
712.45	7041.6	
712.64	5491.3	
712.82	4592.9	
713	6225.1	
713.18	6274.3	
713.37	4668	
713.55	5683.1	
713.73	6913.9	
713.91	5902.2	
714.1	5004.6	
714.28	4676.9	
714.46	6594.5	
714.64	5958.2	
714.83	4145.8	
715.01	4747.2	
715.19	6070.9	
715.37	5451	
715.55	4496	
715.74	4683	
715.92	6630.6	
716.1	5087.8	
716.28	5552	
716.47	4761.5	
716.65	5739.1	
716.83	5666.7	
717.01	4653.7	
717.19	4704.2	
717.38	7267.6	
717.56	5436.7	
717.74	4737	
717.92	4175.8	
718.1	6374.6	
718.29	5780.7	
718.47	3919.1	
718.65	4405.9	
718.83	6325.5	
719.01	6204.7	
719.2	3855.6	
719.38	4638.6	
719.56	6012.2	
719.74	7193.1	
719.92	4409.3	
720.11	5119.9	
720.29	6130.3	
720.47	5423	
720.65	4016.1	
720.83	4697.4	
721.02	5666	
721.2	5520	
721.38	4681	
721.56	4141	
721.74	5117.2	
721.92	5224.4	
722.11	5002.5	
722.29	4778.6	
722.47	6225.1	
722.65	5597.8	
722.83	4103.4	
723.01	4728.1	
723.2	5599.1	
723.38	5865.4	
723.56	3670.6	
723.74	4556.7	
723.92	5256.5	
724.1	6047.7	
724.29	4078.2	
724.47	4793.6	
724.65	5385.5	
724.83	5165	
725.01	3989.4	
725.19	4568.3	
725.37	5246.2	
725.56	5272.8	
725.74	3801	
725.92	4053.6	
726.1	5186.1	
726.28	5491.3	
726.46	4263.9	
726.64	4075.5	
726.83	5493.3	
727.01	5562.3	
727.19	3829.7	
727.37	4432.5	
727.55	5782.1	
727.73	5862	
727.91	3761.4	
728.09	3667.2	
728.28	5928.9	
728.46	6131.6	
728.64	4502.1	
728.82	4461.2	
729	6675	
729.18	6160.3	
729.36	3800.3	
729.54	5642.2	
729.72	6851.8	
729.91	5611.4	
730.09	5304.2	
730.27	4328.7	
730.45	5501.5	
730.63	5919.3	
730.81	4720.6	
730.99	4080.9	
731.17	6361	
731.35	5251	
731.53	4455.7	
731.71	4132.8	
731.9	6167.1	
732.08	6275	
732.26	4364.2	
732.44	4156.7	
732.62	6338.5	
732.8	5931.6	
732.98	4626.4	
733.16	3960.1	
733.34	5923.4	
733.52	4934.9	
733.7	4375.1	
733.88	4588.1	
734.07	5791	
734.25	5578	
734.43	3878.9	
734.61	5061.2	
734.79	6625.2	
734.97	5472.9	
735.15	4021.5	
735.33	4283	
735.51	5812.1	
735.69	5481	
735.87	5019.6	
736.05	4431.8	
736.23	5659.2	
736.41	5384.1	
736.59	4236.6	
736.77	4340.3	
736.95	5959.6	
737.13	5453.1	
737.32	3972.4	
737.5	4128.7	
737.68	6402.6	
737.86	5406	
738.04	3828.3	
738.22	5119.2	
738.4	5345.9	
738.58	5542.5	
738.76	4273.4	
738.94	3542.3	
739.12	5387.5	
739.3	5302.2	
739.48	4780	
739.66	4526.7	
739.84	5573.2	
740.02	5530.2	
740.2	3620.8	
740.38	3844.7	
740.56	5875.6	
740.74	4888.5	
740.92	4315.1	
741.1	4238.6	
741.28	5411.4	
741.46	5231.2	
741.64	4017.4	
741.82	4390.8	
742	5494.7	
742.18	5395	
742.36	4128.7	
742.54	3880.9	
742.72	5896.8	
742.9	4928.1	
743.08	4431.1	
743.26	3564.1	
743.44	5908.4	
743.62	5800.5	
743.8	4585.4	
743.98	3850.9	
744.16	5633.3	
744.34	5340.4	
744.52	4422.9	
744.7	4382	
744.88	5744.6	
745.06	5370.5	
745.24	4470.7	
745.42	4565.6	
745.6	5787.6	
745.78	5666.7	
745.96	3599.6	
746.14	3847.5	
746.32	6360.3	
746.5	5728.2	
746.68	4268.6	
746.86	3885.7	
747.03	6049	
747.21	4900.1	
747.39	4274.8	
747.57	3868.6	
747.75	5405.3	
747.93	5793.7	
748.11	3816	
748.29	3771.7	
748.47	6656.6	
748.65	5244.8	
748.83	4347.2	
749.01	4144.4	
749.19	5608.7	
749.37	4965	
749.55	4080.2	
749.73	4200.4	
749.91	5407.3	
750.09	5221	
750.26	4223.6	
750.44	3682.2	
750.62	5424.4	
750.8	5362.9	
750.98	3642	
751.16	3824.9	
751.34	5537	
751.52	4965.6	
751.7	4416.1	
751.88	3579.2	
752.06	5808	
752.24	5610.8	
752.42	3568.2	
752.59	3820.8	
752.77	5344.5	
752.95	6247	
753.13	4435.2	
753.31	3953.3	
753.49	5141.1	
753.67	5437.4	
753.85	4128	
754.03	3825.6	
754.21	5613.5	
754.38	5928.9	
754.56	3999	
754.74	3252.2	
754.92	5059.8	
755.1	5582.8	
755.28	3250.8	
755.46	3336.8	
755.64	6296.1	
755.82	6341.2	
755.99	3584.6	
756.17	3596.9	
756.35	4416.8	
756.53	5586.2	
756.71	2775.7	
756.89	3474.7	
757.07	5255.8	
757.25	4597.7	
757.42	3907.5	
757.6	4496	
757.78	5356.8	
757.96	4577.9	
758.14	3591.5	
758.32	3253.5	
758.5	4238.6	
758.67	4823	
758.85	3530	
759.03	3637.2	
759.21	5063.9	
759.39	4568.3	
759.57	3210.5	
759.75	4064.5	
759.92	5532.9	
760.1	5008.6	
760.28	4302.8	
760.46	4558.8	
760.64	4817.5	
760.82	4693.3	
760.99	4197	
761.17	3586	
761.35	5391.6	
761.53	4590.2	
761.71	3689.1	
761.89	4221.5	
762.06	5360.2	
762.24	4898.7	
762.42	3782.6	
762.6	3496.6	
762.78	4892.6	
762.96	5381.4	
763.13	4030.4	
763.31	3702	
763.49	5496.7	
763.67	4861.9	
763.85	4350.6	
764.02	4775.9	
764.2	5783.5	
764.38	5018.9	
764.56	3655.6	
764.74	4278.2	
764.91	5743.9	
765.09	4904.9	
765.27	3459	
765.45	3317.7	
765.63	5897.5	
765.8	5636.7	
765.98	3078.8	
766.16	3317.7	
766.34	4642.1	
766.52	4462.5	
766.69	4065.9	
766.87	3187.3	
767.05	4970.4	
767.23	5539.8	
767.41	3457	
767.58	3637.2	
767.76	5340.4	
767.94	5483.1	
768.12	3511.6	
768.29	4030.4	
768.47	4982.7	
768.65	5556.8	
768.83	3198.2	
769	4106.2	
769.18	4661.9	
769.36	5207.3	
769.54	4076.1	
769.72	3192.8	
769.89	5427.8	
770.07	5483.8	
770.25	3569.6	
770.43	4487.1	
770.6	6053.1	
770.78	6240.8	
770.96	3657.7	
771.14	4105.5	
771.31	5350	
771.49	4874.2	
771.67	3050.8	
771.85	3198.2	
772.02	4302.8	
772.2	4873.5	
772.38	3781.2	
772.55	3377.1	
772.73	5110.4	
772.91	4876.9	
773.09	3687	
773.26	3741	
773.44	5066	
773.62	4859.1	
773.8	3358	
773.97	3110.2	
774.15	5053.7	
774.33	4820.2	
774.5	3218.7	
774.68	3482.9	
774.86	5089.2	
775.04	4828.4	
775.21	3340.2	
775.39	3347.7	
775.57	5047.6	
775.74	5255.1	
775.92	3179.8	
776.1	3080.1	
776.27	4988.2	
776.45	5830.6	
776.63	3306.8	
776.81	2977.1	
776.98	4785.4	
777.16	5528.2	
777.34	3386	
777.51	3673.4	
777.69	4789.5	
777.87	4574.5	
778.04	3507.5	
778.22	3863.8	
778.4	4617.5	
778.57	5134.3	
778.75	2942.2	
778.93	3106.8	
779.1	4495.3	
779.28	4340.3	
779.46	2880.8	
779.64	3244.7	
779.81	5285.8	
779.99	5883.8	
780.17	3800.3	
780.34	3903.4	
780.52	4819.6	
780.69	4932.2	
780.87	3556.6	
781.05	3235.8	
781.22	4883	
781.4	4922	
781.58	3380.5	
781.75	2653.5	
781.93	4907.6	
782.11	4386.1	
782.28	3948.5	
782.46	3301.3	
782.64	4315.8	
782.81	5049.6	
782.99	3398.9	
783.17	3362.1	
783.34	4975.9	
783.52	4407.9	
783.69	3448.8	
783.87	4141.7	
784.05	4461.8	
784.22	4460.5	
784.4	4096.6	
784.58	3558	
784.75	5171.8	
784.93	4446.8	
785.1	3328.6	
785.28	3777.1	
785.46	4927.4	
785.63	4359.4	
785.81	3300.6	
785.99	3210.5	
786.16	4629.8	
786.34	4801.1	
786.51	3222.8	
786.69	3560.1	
786.87	4247.5	
787.04	4629.8	
787.22	3119.1	
787.39	3824.9	
787.57	4452.3	
787.75	5279.7	
787.92	3972.4	
788.1	3901.4	
788.27	4442.7	
788.45	4230.4	
788.63	3717.7	
788.8	2722.4	
788.98	4819.6	
789.15	4184.7	
789.33	2854.9	
789.5	3287.7	
789.68	5145.9	
789.86	5268.1	
790.03	3664.5	
790.21	3237.8	
790.38	5171.8	
790.56	4546.5	
790.73	3170.9	
790.91	3101.3	
791.09	4483	
791.26	5041.4	
791.44	3400.3	
791.61	2876.7	
791.79	4467.3	
791.96	4473.4	
792.14	3044	
792.32	2698.5	
792.49	4397	
792.67	4521.2	
792.84	3068.5	
793.02	2863.7	
793.19	4831.2	
793.37	5333.6	
793.54	2693.1	
793.72	2889.7	
793.89	5356.1	
794.07	4435.2	
794.25	3326.6	
794.42	2783.2	
794.6	5243.5	
794.77	4965	
794.95	3639.2	
795.12	3194.1	
795.3	4450.2	
795.47	4886.5	
795.65	3487.7	
795.82	3351.2	
796	4259.8	
796.17	5753.4	
796.35	3211.2	
796.52	3857	
796.7	4854.4	
796.87	4962.2	
797.05	3223.5	
797.22	3901.4	
797.4	4900.1	
797.57	5612.1	
797.75	3375.7	
797.92	3161.4	
798.1	5158.8	
798.27	4370.4	
798.45	2799.6	
798.62	2922.5	
798.8	4702.1	
798.97	5103.5	
799.15	3516.4	
799.32	3346.4	
799.5	4107.5	
799.67	4733.5	
799.85	3646.1	
800.02	2741.5	
800.2	4378.6	
800.37	4668	
800.55	3708.2	
800.72	3218	
800.9	5007.3	
801.07	5320.6	
801.25	4184	
801.42	3485	
801.6	5063.3	
801.77	4758.1	
801.95	3235.1	
802.12	3112.9	
802.29	4810	
802.47	4791.6	
802.64	3439.2	
802.82	2717	
802.99	4438.6	
803.17	5156.8	
803.34	3360	
803.52	3048.1	
803.69	5668.1	
803.87	4226.3	
804.04	3368.2	
804.21	3389.4	
804.39	5281	
804.56	4586.8	
804.74	2889	
804.91	3487	
805.09	4412	
805.26	4463.2	
805.44	2910.8	
805.61	3175	
805.78	4999.8	
805.96	4951.3	
806.13	3452.9	
806.31	3796.3	
806.48	4078.9	
806.66	4512.4	
806.83	3489.1	
807	3392.1	
807.18	4420.9	
807.35	4698.7	
807.53	3395.5	
807.7	2807.1	
807.87	5345.9	
808.05	4434.5	
808.22	3677.5	
808.4	2820.1	
808.57	4429.8	
808.74	4157.4	
808.92	3143.6	
809.09	3852.2	
809.27	4433.2	
809.44	4812	
809.61	2794.1	
809.79	3084.9	
809.96	5425.8	
810.14	4987.5	
810.31	2759.3	
810.48	3251.5	
810.66	4539	
810.83	5073.5	
811.01	3166.2	
811.18	3461.1	
811.35	5064.6	
811.53	4018.8	
811.7	3730	
811.87	3495.2	
812.05	4525.3	
812.22	4433.9	
812.39	3072	
812.57	2946.3	
812.74	4530.1	
812.92	5748.6	
813.09	3285.6	
813.26	3549.1	
813.44	5572.5	
813.61	4417.5	
813.78	2792.1	
813.96	3609.2	
814.13	4491.2	
814.3	4282.3	
814.48	3930.7	
814.65	3283.6	
814.82	5378	
815	4257.7	
815.17	3343	
815.34	3992.2	
815.52	4437.9	
815.69	4431.8	
815.87	3325.9	
816.04	3300	
816.21	4466.6	
816.38	4070	
816.56	3278.8	
816.73	3052.8	
816.9	5528.8	
817.08	4982.7	
817.25	3050.1	
817.42	3697.9	
817.6	4089.8	
817.77	4446.1	
817.94	3420.1	
818.12	3003.7	
818.29	4277.5	
818.46	6267.5	
818.64	3193.5	
818.81	2927.2	
818.98	4276.8	
819.16	5868.1	
819.33	3599.6	
819.5	3303.4	
819.67	4741.7	
819.85	5233.9	
820.02	3233.7	
820.19	3512.9	
820.37	4687.8	
820.54	4376.5	
820.71	3348.4	
820.88	4130.1	
821.06	4635.2	
821.23	4310.3	
821.4	3432.4	
821.58	3381.9	
821.75	5005.2	
821.92	4601.8	
822.09	2777.7	
822.27	2839.2	
822.44	4427	
822.61	4377.2	
822.79	2823.5	
822.96	5151.3	
823.13	4760.2	
823.3	4222.2	
823.48	3160.7	
823.65	2910.2	
823.82	5072.8	
823.99	4176.5	
824.17	3975.1	
824.34	2925.9	
824.51	5767.1	
824.68	4523.3	
824.86	3078.1	
825.03	3339.6	
825.2	4461.2	
825.37	5257.8	
825.55	3041.2	
825.72	3366.9	
825.89	5721.3	
826.06	5321.3	
826.24	3236.5	
826.41	3257	
826.58	5314.5	
826.75	4668	
826.92	2690.3	
827.1	2958.6	
827.27	6976.1	
827.44	5642.2	
827.61	3147	
827.79	3650.2	
827.96	4330.8	
828.13	4444.8	
828.3	3231	
828.47	2792.1	
828.65	4764.9	
828.82	4702.8	
828.99	4007.2	
829.16	3580.5	
829.34	5026.4	
829.51	4866.7	
829.68	3302.7	
829.85	3433.1	
830.02	5317.2	
830.2	5020.3	
830.37	2631.6	
830.54	3971	
830.71	5654.4	
830.88	4531.5	
831.05	2678.1	
831.23	3039.9	
831.4	5452.4	
831.57	5921.4	
831.74	3074	
831.91	2783.2	
832.09	4831.8	
832.26	5000.5	
832.43	3192.1	
832.6	3556	
832.77	4709.6	
832.94	5278.3	
833.12	2664.4	
833.29	3186	
833.46	4437.3	
833.63	6091.3	
833.8	3453.6	
833.97	3182.5	
834.15	5058.5	
834.32	4849.6	
834.49	3388	
834.66	3362.1	
834.83	5165	
835	4324.6	
835.17	3108.1	
835.35	3089.7	
835.52	4952.7	
835.69	4870.8	
835.86	3239.9	
836.03	2748.4	
836.2	5004.6	
836.37	4692.6	
836.55	3160	
836.72	2938.2	
836.89	4701.5	
837.06	5090.6	
837.23	3266.5	
837.4	3496.6	
837.57	5606	
837.75	6035.4	
837.92	2938.2	
838.09	3117	
838.26	4625	
838.43	5132.2	
838.6	3343.7	
838.77	3018	
838.94	5793	
839.11	5636.7	
839.29	3222.1	
839.46	2499.9	
839.63	4985.4	
839.8	4754	
839.97	3087.7	
840.14	3081.5	
840.31	4922	
840.48	4997	
840.65	2625.5	
840.82	3059	
841	4979.3	
841.17	4902.8	
841.34	2800.3	
841.51	2983.9	
841.68	4963.6	
841.85	4750.6	
842.02	3011.9	
842.19	2566.8	
842.36	4829.8	
842.53	4842.1	
842.7	2724.5	
842.87	3442	
843.05	6034	
843.22	4796.3	
843.39	2767.5	
843.56	2932.7	
843.73	4643.4	
843.9	5064.6	
844.07	4461.8	
844.24	3808.5	
844.41	6864.1	
844.58	4401.8	
844.75	2837.8	
844.92	3032.4	
845.09	5008.6	
845.26	4959.5	
845.43	2865.1	
845.6	3016	
845.77	5001.1	
845.94	4758.8	
846.12	3180.5	
846.29	3315	
846.46	5205.9	
846.63	4925.4	
846.8	2865.8	
846.97	3347.7	
847.14	5352	
847.31	4955.4	
847.48	3223.5	
847.65	3530	
847.82	5184.1	
847.99	5095.3	
848.16	3792.2	
848.33	3471.3	
848.5	4597.7	
848.67	5365.7	
848.84	2840.5	
849.01	3014.6	
849.18	4571.7	
849.35	4321.9	
849.52	3548.4	
849.69	2839.2	
849.86	5180	
850.03	5248.9	
850.2	2873.3	
850.37	3448.8	
850.54	5221.6	
850.71	4713.7	
850.88	3373	
851.05	2835.1	
851.22	4880.3	
851.39	5358.2	
851.56	2657.6	
851.73	3209.2	
851.9	4424.3	
852.07	5188.9	
852.24	3128.6	
852.41	2827.6	
852.58	4924.7	
852.75	4482.3	
852.92	3203	
853.09	2796.8	
853.26	4694.6	
853.43	5260.5	
853.6	2822.1	
853.77	2463	
853.94	5405.3	
854.11	4423.6	
854.28	4158.1	
854.44	3120.4	
854.61	5707.7	
854.78	5186.8	
854.95	2843.3	
855.12	3528	
855.29	4052.9	
855.46	5453.1	
855.63	2876	
855.8	3818.1	
855.97	4638	
856.14	5243.5	
856.31	3964.9	
856.48	3075.4	
856.65	4701.5	
856.82	4350.6	
856.99	2747.7	
857.16	3076	
857.33	5883.8	
857.49	4712.4	
857.66	3070.6	
857.83	3338.9	
858	4743.1	
858.17	4844.8	
858.34	2689.7	
858.51	2824.1	
858.68	5438.7	
858.85	5497.4	
859.02	3297.9	
859.19	3449.5	
859.36	4463.2	
859.52	4474.1	
859.69	2852.1	
859.86	3372.3	
860.03	4457.1	
860.2	5412.1	
860.37	2639.8	
860.54	2888.3	
860.71	5125.4	
860.88	5481.7	
861.05	3175.7	
861.21	3627	
861.38	5428.5	
861.55	4272.1	
861.72	2684.9	
861.89	3196.2	
862.06	5145.9	
862.23	5472.2	
862.4	2791.4	
862.56	2942.2	
862.73	5010	
862.9	4840	
863.07	3304.1	
863.24	2678.7	
863.41	4382.7	
863.58	4445.5	
863.75	2921.1	
863.91	3281.5	
864.08	5335.6	
864.25	5023.7	
864.42	3571.7	
864.59	3946.4	
864.76	5630.5	
864.93	4467.3	
865.09	2788.7	
865.26	3090.4	
865.43	5365	
865.6	5569.1	
865.77	2487.6	
865.94	2855.6	
866.1	5311.1	
866.27	5083.7	
866.44	4150.5	
866.61	2808.4	
866.78	4747.2	
866.95	5029.1	
867.11	2799.6	
867.28	2637.1	
867.45	5283.8	
867.62	4510.3	
867.79	3350.5	
867.96	2835.1	
868.12	4343.1	
868.29	5144.5	
868.46	2838.5	
868.63	3709.6	
868.8	5230.5	
868.97	5105.6	
869.13	2960.7	
869.3	2931.3	
869.47	4960.2	
869.64	5188.9	
869.81	2862.4	
869.97	2856.2	
870.14	4845.5	
870.31	5496.1	
870.48	2800.9	
870.65	3547.1	
870.81	4733.5	
870.98	4700.1	
871.15	3243.3	
871.32	2945.7	
871.48	5028.4	
871.65	5481.7	
871.82	2827.6	
871.99	3110.9	
872.16	5789.6	
872.32	5329.5	
872.49	2942.9	
872.66	2915.6	
872.83	5148.6	
872.99	4579.3	
873.16	3262.4	
873.33	2858.3	
873.5	4843.4	
873.67	4891.2	
873.83	3002.3	
874	3718.4	
874.17	4952	
874.34	5648.3	
874.5	3633.8	
874.67	3492.5	
874.84	5364.3	
875.01	4354	
875.17	3943.7	
875.34	2810.5	
875.51	4915.1	
875.68	5786.2	
875.84	3467.9	
876.01	4062.5	
876.18	5095.3	
876.34	5051	
876.51	2856.9	
876.68	2809.8	
876.85	4665.3	
877.01	5345.2	
877.18	3992.9	
877.35	2831.7	
877.52	4919.9	
877.68	4425.7	
877.85	2803.7	
878.02	2831	
878.18	4709	
878.35	4528.7	
878.52	2334.7	
878.69	3132	
878.85	5171.8	
879.02	5094.7	
879.19	3976.5	
879.35	3132.7	
879.52	5126.1	
879.69	5213.4	
879.86	2523.8	
880.02	3131.3	
880.19	4760.8	
880.36	5724.1	
880.52	3250.1	
880.69	3373.7	
880.86	5142.4	
881.02	5187.5	
881.19	3099.3	
881.36	3018	
881.52	5069.4	
881.69	4506.9	
881.86	3056.3	
882.02	2999.6	
882.19	5250.3	
882.36	6107.7	
882.52	2961.4	
882.69	3965.6	
882.86	4930.8	
883.02	4874.8	
883.19	3424.9	
883.36	3224.9	
883.52	5202.5	
883.69	5794.4	
883.86	2910.8	
884.02	2644.6	
884.19	5146.5	
884.36	4846.2	
884.52	3183.2	
884.69	2991.4	
884.86	4578.6	
885.02	5573.2	
885.19	3186	
885.36	3290.4	
885.52	4730.8	
885.69	4939.7	
885.86	4007.9	
886.02	3665.2	
886.19	5166.3	
886.35	4706.2	
886.52	3135.4	
886.69	3932.1	
886.85	4439.3	
887.02	5395	
887.19	5395	
887.35	5395	
887.52	5395	
887.68	5395	
887.85	5395	
888.02	5395	
888.18	5395	
888.35	5395	
888.51	5395	
888.68	5395	
888.85	5395	
889.01	5395	
889.18	5395	
889.35	5395	
889.51	5395	
889.68	5395	
889.84	5395	
890.01	5395	
890.17	5395	
890.34	5395	
890.51	5395	
890.67	5395	
890.84	5395	
891	5395	
891.17	5395	
891.34	5395	
891.5	5395	
891.67	5395	
891.83	5395	
892	5395	
892.16	5395	
892.33	5395	
892.5	5395	
892.66	5395	
892.83	5395	
892.99	5395	
893.16	5395	
893.32	5395	
893.49	5395	
893.65	5395	
893.82	5395	
893.99	5395	
894.15	5395	
894.32	5395	
894.48	5395	
894.65	5395	
894.81	5395	
894.98	5395	
895.14	5395	
895.31	5395	
895.47	5395	
895.64	5395	
895.81	5395	
895.97	5395	
896.14	5395	
896.3	5395	
896.47	5395	
896.63	5395	
896.8	5395	
896.96	5395	
897.13	5395	
897.29	5395	
897.46	5395	
897.62	5395	
897.79	5395	
897.95	5395	
898.12	5395	
898.28	5395	
898.45	5395	
898.61	5395	
898.78	5395	
898.94	5395	
899.11	5395	
899.27	5395	
899.44	5395	
899.6	5395	
899.77	5395	
899.93	5395	
900.1	5395	
900.26	5395	
900.43	5395	
900.59	5395	
900.76	5395	
900.92	5395	
901.09	5395	
901.25	5395	
901.42	5395	
901.58	5395	
901.75	5395	
901.91	5395	
902.07	5395	
902.24	5395	
902.4	5395	
902.57	5395	
902.73	5395	
902.9	5395	
903.06	5395	
903.23	5395	
903.39	5395	
903.56	5395	
903.72	5395	
903.88	5395	
904.05	5395	
904.21	5395	
904.38	5395	
904.54	5395	
904.71	5395	
904.87	5395	
905.03	5395	
905.2	5395	
905.36	5395	
905.53	5395	
905.69	5395	
905.86	5395	
906.02	5395	
906.18	5395	
906.35	5395	
906.51	5395	
906.68	5395	
906.84	5395	
907.01	5395	
907.17	5395	
907.33	5395	
907.5	5395	
907.66	5395	
907.83	5395	
907.99	5395	
908.15	5395	
908.32	5395	
908.48	5395	
908.65	5395	
908.81	5395	
908.97	5395	
909.14	5395	
909.3	5395	
909.47	5395	
909.63	5395	
909.79	5395	
909.96	5395	
910.12	5395	
910.28	5395	
910.45	5395	
910.61	5395	
910.78	5395	
910.94	5395	
911.1	5395	
911.27	5395	
911.43	5395	
911.59	5395	
911.76	5395	
911.92	5395	
912.08	5395	
912.25	5395	
912.41	5395	
912.57	5395	
912.74	5395	
912.9	5395	
913.07	5395	
913.23	5395	
913.39	5395	
913.56	5395	
913.72	5395	
913.88	5395	
914.05	5395	
914.21	5395	
914.37	5395	
914.54	5395	
914.7	5395	
914.86	5395	
915.03	5395	
915.19	5395	
