Wavelength	Intensities	
nm	a.u.	
179.22	1620.8	
179.44	1605.9	
179.65	1635.6	
179.86	1576.3	
180.08	1586.5	
180.29	3569.6	
180.51	2815.3	
180.72	4716.5	
180.94	5100.8	
181.15	2523.8	
181.37	2530.6	
181.58	4513.7	
181.79	4659.8	
182.01	2611.2	
182.22	2699.2	
182.44	4674.8	
182.65	4136.2	
182.87	3234.4	
183.08	2971.6	
183.29	4855.1	
183.51	4192.9	
183.72	2665.8	
183.94	3620.8	
184.15	4446.8	
184.37	4348.5	
184.58	2418.7	
184.79	3112.2	
185.01	4244.1	
185.22	4674.8	
185.44	3216	
185.65	2893.1	
185.86	4498	
186.08	4145.8	
186.29	2426.2	
186.51	2542.2	
186.72	4234.5	
186.94	4794.3	
187.15	2887.6	
187.36	2972.3	
187.58	5816.2	
187.79	4486.4	
188.01	2950.4	
188.22	4405.2	
188.43	5197.1	
188.65	4644.8	
188.86	2615.9	
189.08	2974.3	
189.29	4269.3	
189.5	4267.3	
189.72	2656.2	
189.93	2776.4	
190.15	4796.3	
190.36	5411.4	
190.57	3009.1	
190.79	2871.3	
191	4747.2	
191.22	4778.6	
191.43	3028.3	
191.64	2575.7	
191.86	4910.3	
192.07	4766.3	
192.29	2627.5	
192.5	2736.1	
192.71	4811.4	
192.93	4312.3	
193.14	2713.6	
193.35	2775.7	
193.57	4249.5	
193.78	4792.9	
194	2295.1	
194.21	2675.3	
194.42	4095.3	
194.64	4440.7	
194.85	2891	
195.07	3310.2	
195.28	4416.8	
195.49	3984.7	
195.71	3432.4	
195.92	2578.4	
196.13	4637.3	
196.35	4582.7	
196.56	3697.9	
196.78	2925.9	
196.99	5378	
197.2	5117.2	
197.42	3259.7	
197.63	2930.6	
197.84	4086.4	
198.06	4578.6	
198.27	2724.5	
198.48	3420.1	
198.7	4274.8	
198.91	4460.5	
199.13	2975.7	
199.34	2905.4	
199.55	4812	
199.77	3898.6	
199.98	2665.8	
200.19	2951.8	
200.41	4379.9	
200.62	4151.2	
200.83	2998.2	
201.05	3272	
201.26	4404.5	
201.47	4222.2	
201.69	2658.3	
201.9	2637.1	
202.11	4461.2	
202.33	4999.1	
202.54	2788.7	
202.76	3085.6	
202.97	4472.8	
203.18	4616.1	
203.4	3009.8	
203.61	3092.4	
203.82	4522.6	
204.04	4235.9	
204.25	2987.3	
204.46	2903.3	
204.68	4424.3	
204.89	4563.6	
205.1	2904	
205.32	2597.5	
205.53	4596.3	
205.74	4769	
205.96	2295.1	
206.17	2985.3	
206.38	4620.9	
206.6	4789.5	
206.81	3361.4	
207.02	2755.9	
207.24	4580.6	
207.45	4880.3	
207.66	2887.6	
207.88	2549.7	
208.09	4569	
208.3	4428.4	
208.52	2646.7	
208.73	2936.1	
208.94	4406.5	
209.15	4880.3	
209.37	2790	
209.58	2895.8	
209.79	4857.1	
210.01	4353.3	
210.22	2385.9	
210.43	2510.1	
210.65	4414.7	
210.86	4611.3	
211.07	2863.1	
211.29	2654.2	
211.5	4614.1	
211.71	4380.6	
211.93	2669.9	
212.14	2679.4	
212.35	4434.5	
212.56	4408.6	
212.78	2966.8	
212.99	2500.6	
213.2	5010	
213.42	4388.1	
213.63	2740.9	
213.84	2824.8	
214.06	4067.3	
214.27	4125.3	
214.48	2787.3	
214.69	2991.4	
214.91	4861.9	
215.12	4908.3	
215.33	2962	
215.55	3179.1	
215.76	5207.3	
215.97	4630.5	
216.18	2882.9	
216.4	2889.7	
216.61	4220.9	
216.82	4695.3	
217.04	2699.9	
217.25	2762.7	
217.46	4762.9	
217.67	4674.1	
217.89	2485.6	
218.1	2484.9	
218.31	4525.3	
218.53	4595.6	
218.74	2826.9	
218.95	2677.4	
219.16	4418.2	
219.38	5015.5	
219.59	2706.7	
219.8	3073.3	
220.01	5316.5	
220.23	4489.1	
220.44	3325.9	
220.65	2676.7	
220.87	4515.8	
221.08	4866	
221.29	2572.9	
221.5	3134.1	
221.72	5588.2	
221.93	4190.8	
222.14	2990	
222.35	3418.1	
222.57	4422.2	
222.78	4749.2	
222.99	2861	
223.2	3024.2	
223.42	4625	
223.63	4628.4	
223.84	2264.4	
224.05	2291.7	
224.27	5273.5	
224.48	5008.6	
224.69	3441.3	
224.9	2974.3	
225.12	4568.3	
225.33	4418.8	
225.54	2459.6	
225.75	2739.5	
225.97	4174.4	
226.18	4381.3	
226.39	2841.9	
226.6	2667.1	
226.82	4276.2	
227.03	4158.1	
227.24	2970.9	
227.45	2553.8	
227.67	4765.6	
227.88	4921.3	
228.09	3248.1	
228.3	3211.2	
228.52	4637.3	
228.73	4395.6	
228.94	2735.4	
229.15	2517	
229.36	4438.6	
229.58	4440	
229.79	2829.6	
230	3207.8	
230.21	5125.4	
230.43	4429.8	
230.64	2905.4	
230.85	3007.8	
231.06	4700.1	
231.28	4696.7	
231.49	2544.3	
231.7	2942.9	
231.91	4732.2	
232.12	4427	
232.34	2633	
232.55	2865.1	
232.76	4817.5	
232.97	4480.3	
233.18	2635.1	
233.4	2949.1	
233.61	4546.5	
233.82	4278.9	
234.03	2779.1	
234.25	2783.2	
234.46	5707.7	
234.67	4466.6	
234.88	2998.9	
235.09	2714.2	
235.31	4519.2	
235.52	4382	
235.73	2882.2	
235.94	2520.4	
236.15	4291.9	
236.37	5102.9	
236.58	2664.4	
236.79	2864.4	
237	4572.4	
237.21	4100.7	
237.43	3031.7	
237.64	2480.8	
237.85	6920.1	
238.06	4193.6	
238.27	3024.2	
238.48	2586.6	
238.7	4694.6	
238.91	4390.8	
239.12	2810.5	
239.33	2940.2	
239.54	4156.7	
239.76	4360.1	
239.97	2823.5	
240.18	2871.9	
240.39	5187.5	
240.6	4539.7	
240.82	3039.9	
241.03	2553.1	
241.24	4391.5	
241.45	4949.9	
241.66	2644.6	
241.87	3061.7	
242.09	4924	
242.3	5104.2	
242.51	3048.7	
242.72	2822.8	
242.93	4708.3	
243.14	4392.2	
243.36	3234.4	
243.57	3384.6	
243.78	4949.9	
243.99	4636.6	
244.2	2809.1	
244.41	2585.2	
244.63	4152.6	
244.84	4515.8	
245.05	2982.5	
245.26	2811.9	
245.47	4655	
245.68	4740.4	
245.9	3530	
246.11	3051.5	
246.32	4249.5	
246.53	4627	
246.74	4349.2	
246.95	2433	
247.16	4266.6	
247.38	4447.5	
247.59	2527.9	
247.8	2880.8	
248.01	4094.6	
248.22	4442.7	
248.43	2635.7	
248.64	2823.5	
248.86	4150.5	
249.07	4297.3	
249.28	2602.3	
249.49	2940.2	
249.7	4782.7	
249.91	4744.5	
250.12	2525.8	
250.34	2521	
250.55	4491.2	
250.76	4451.6	
250.97	2908.1	
251.18	2934.1	
251.39	4767	
251.6	4547.9	
251.81	2957.3	
252.03	2882.2	
252.24	4365.6	
252.45	4634.6	
252.66	2538.1	
252.87	3039.2	
253.08	4415.4	
253.29	5526.1	
253.5	2633	
253.72	3422.8	
253.93	4359.4	
254.14	5045.5	
254.35	2748.4	
254.56	2717.7	
254.77	4557.4	
254.98	4207.9	
255.19	2790	
255.41	3254.9	
255.62	4553.3	
255.83	4754.7	
256.04	3091.1	
256.25	2918.4	
256.46	5171.1	
256.67	4255.7	
256.88	2932	
257.09	3179.8	
257.31	4056.3	
257.52	4188.1	
257.73	3590.8	
257.94	2793.4	
258.15	4442	
258.36	4472.8	
258.57	3261	
258.78	2237.7	
258.99	4698	
259.2	4268	
259.41	2711.5	
259.63	2850.8	
259.84	4947.2	
260.05	5045.5	
260.26	3404.4	
260.47	2734.7	
260.68	4798.4	
260.89	4375.8	
261.1	3233.1	
261.31	2636.4	
261.52	4856.4	
261.73	5015.5	
261.95	3415.3	
262.16	3037.1	
262.37	4818.2	
262.58	4967.7	
262.79	3381.2	
263	2772.3	
263.21	4498.7	
263.42	4289.8	
263.63	2964.1	
263.84	2751.1	
264.05	4788.2	
264.26	4983.4	
264.47	3296.5	
264.69	2968.2	
264.9	4940.4	
265.11	4523.3	
265.32	2650.8	
265.53	2755.2	
265.74	4530.8	
265.95	4031.1	
266.16	2832.3	
266.37	3092.4	
266.58	4477.5	
266.79	4263.2	
267	2736.1	
267.21	2594.1	
267.42	4087.1	
267.63	4407.2	
267.84	2796.8	
268.06	2576.3	
268.27	4708.3	
268.48	4816.1	
268.69	2828.9	
268.9	3145.7	
269.11	4840.7	
269.32	4097.3	
269.53	2826.2	
269.74	2639.1	
269.95	4506.9	
270.16	4031.1	
270.37	2824.1	
270.58	3211.9	
270.79	4336.2	
271	4719.9	
271.21	2951.1	
271.42	2867.2	
271.63	4624.3	
271.84	4132.8	
272.05	2383.2	
272.26	2631	
272.47	4441.4	
272.68	4571.1	
272.89	2794.1	
273.11	3038.5	
273.32	4265.2	
273.53	4895.3	
273.74	3007.8	
273.95	3065.8	
274.16	4703.5	
274.37	4425.7	
274.58	3175	
274.79	2577	
275	4572.4	
275.21	4780.6	
275.42	3540.3	
275.63	3094.5	
275.84	4691.2	
276.05	5482.4	
276.26	2996.9	
276.47	2805	
276.68	4399.7	
276.89	5061.9	
277.1	3121.8	
277.31	2520.4	
277.52	4625	
277.73	4890.5	
277.94	2530.6	
278.15	2783.9	
278.36	4614.1	
278.57	4251.6	
278.78	2778.4	
278.99	3119.1	
279.2	4331.5	
279.41	4128.7	
279.62	3442.6	
279.83	2585.9	
280.04	5134.9	
280.25	4085	
280.46	3459	
280.67	2863.7	
280.88	4233.8	
281.09	4832.5	
281.3	3007.1	
281.51	3587.4	
281.72	4230.4	
281.93	4648.2	
282.14	2710.8	
282.35	2925.9	
282.56	4820.9	
282.77	4655	
282.98	2855.6	
283.19	3322.5	
283.4	5511.1	
283.61	4345.1	
283.82	2598.9	
284.03	3438.5	
284.24	4595.6	
284.45	4767.7	
284.66	3465.8	
284.87	3255.6	
285.08	4827.1	
285.29	4854.4	
285.5	2598.2	
285.71	2807.1	
285.92	4749.2	
286.12	5205.3	
286.33	3371.6	
286.54	2826.2	
286.75	4745.1	
286.96	4414.1	
287.17	2700.6	
287.38	3284.3	
287.59	4274.8	
287.8	4289.8	
288.01	2813.2	
288.22	3166.2	
288.43	4575.2	
288.64	4030.4	
288.85	3233.7	
289.06	3113.6	
289.27	4725.3	
289.48	4944.5	
289.69	3400.3	
289.9	3106.1	
290.11	4898.1	
290.32	4296.6	
290.53	3221.5	
290.74	3029.6	
290.94	4710.3	
291.15	4758.8	
291.36	2713.6	
291.57	3082.9	
291.78	4336.2	
291.99	4071.4	
292.2	2704	
292.41	2978.4	
292.62	4749.2	
292.83	4637.3	
293.04	3625.6	
293.25	2706.7	
293.46	4362.9	
293.67	4748.6	
293.88	2679.4	
294.09	2674.6	
294.29	4197	
294.5	4491.9	
294.71	2868.5	
294.92	2739.5	
295.13	4353.3	
295.34	5150.6	
295.55	2541.5	
295.76	2446.6	
295.97	4751.3	
296.18	5087.2	
296.39	2612.5	
296.6	2733.4	
296.81	4461.2	
297.01	4711	
297.22	2848	
297.43	2751.8	
297.64	4295.3	
297.85	4171	
298.06	2321	
298.27	2437.8	
298.48	4399	
298.69	4248.9	
298.9	2934.7	
299.11	2674	
299.31	4149.9	
299.52	4161.5	
299.73	3100.6	
299.94	3021.4	
300.15	4446.8	
300.36	4231.8	
300.57	3018.7	
300.78	2960.7	
300.99	4293.2	
301.2	4502.8	
301.4	2734	
301.61	2849.4	
301.82	4659.8	
302.03	4702.1	
302.24	3192.8	
302.45	2585.9	
302.66	4626.4	
302.87	4810	
303.08	2708.1	
303.29	3517	
303.49	4330.8	
303.7	4356.7	
303.91	2506.7	
304.12	3329.3	
304.33	4089.1	
304.54	4582	
304.75	2765.4	
304.96	2667.1	
305.16	4662.5	
305.37	5055.1	
305.58	2486.2	
305.79	2501.9	
306	4655	
306.21	4027	
306.42	2665.1	
306.63	3804.4	
306.83	4275.5	
307.04	4623.6	
307.25	2941.6	
307.46	2925.9	
307.67	4000.4	
307.88	4630.5	
308.09	2757.9	
308.29	2712.2	
308.5	4469.4	
308.71	4737.6	
308.92	2893.1	
309.13	2622.1	
309.34	4439.3	
309.55	4398.4	
309.75	3281.5	
309.96	3013.2	
310.17	4662.5	
310.38	4209.3	
310.59	3066.5	
310.8	2528.6	
311.01	4357.4	
311.21	4400.4	
311.42	2631	
311.63	2676	
311.84	4309.6	
312.05	4480.3	
312.26	2962	
312.46	3191.4	
312.67	4360.8	
312.88	4093.2	
313.09	2637.1	
313.3	2585.2	
313.51	4920.6	
313.71	5188.2	
313.92	2622.8	
314.13	2707.4	
314.34	4536.3	
314.55	4422.2	
314.76	3168.9	
314.96	2837.8	
315.17	4631.1	
315.38	4649.6	
315.59	2682.8	
315.8	2584.5	
316.01	4885.8	
316.21	5043.5	
316.42	2579.1	
316.63	2826.9	
316.84	4350.6	
317.05	4794.3	
317.26	3045.3	
317.46	2734.7	
317.67	4416.1	
317.88	4665.3	
318.09	3213.9	
318.3	2538.1	
318.5	4367.6	
318.71	4515.8	
318.92	3895.2	
319.13	3011.2	
319.34	4716.5	
319.54	4807.9	
319.75	2460.3	
319.96	2447.3	
320.17	4601.1	
320.38	4773.8	
320.58	2499.9	
320.79	2848.7	
321	4780.6	
321.21	4841.4	
321.42	2927.2	
321.62	2483.5	
321.83	4270.7	
322.04	4483.7	
322.25	2831.7	
322.46	2663	
322.66	4499.4	
322.87	4650.3	
323.08	3161.4	
323.29	2617.3	
323.5	5059.2	
323.7	4130.8	
323.91	3465.2	
324.12	3100.6	
324.33	4571.7	
324.53	4650.9	
324.74	3032.4	
324.95	3067.9	
325.16	4109.6	
325.37	4323.9	
325.57	2631.6	
325.78	2707.4	
325.99	4572.4	
326.2	4047.5	
326.4	3605.8	
326.61	2475.3	
326.82	4386.1	
327.03	4470.7	
327.24	3500.7	
327.44	3300.6	
327.65	4595	
327.86	3889.8	
328.07	3035.1	
328.27	2600.9	
328.48	4902.2	
328.69	4136.2	
328.9	3538.2	
329.1	2720.4	
329.31	4364.2	
329.52	4869.4	
329.73	2686.9	
329.93	2803.7	
330.14	4519.9	
330.35	4538.3	
330.56	4014.7	
330.76	3181.2	
330.97	4332.1	
331.18	4490.5	
331.39	2867.8	
331.59	2469.9	
331.8	4833.9	
332.01	4894	
332.22	2741.5	
332.42	3002.3	
332.63	4543.1	
332.84	4158.1	
333.05	2964.1	
333.25	2620.7	
333.46	4244.8	
333.67	4446.1	
333.88	2752.5	
334.08	2940.2	
334.29	5640.8	
334.5	4785.4	
334.7	2589.3	
334.91	3520.5	
335.12	4113	
335.33	4611.3	
335.53	2891	
335.74	3921.2	
335.95	4357.4	
336.16	4141	
336.36	2922.5	
336.57	3241.9	
336.78	4119.1	
336.98	4783.4	
337.19	3459	
337.4	2816	
337.61	5154.7	
337.81	4069.3	
338.02	2752.5	
338.23	3274	
338.43	4883	
338.64	4252.3	
338.85	2663	
339.05	3357.3	
339.26	4991.6	
339.47	4113.7	
339.68	2640.5	
339.88	3637.9	
340.09	4667.3	
340.3	4806.6	
340.5	3009.8	
340.71	2441.2	
340.92	4152.6	
341.13	4770.4	
341.33	2580.4	
341.54	3030.3	
341.75	4615.4	
341.95	4297.3	
342.16	2929.3	
342.37	3101.3	
342.57	4127.3	
342.78	4372.4	
342.99	3152.5	
343.19	2443.9	
343.4	4697.4	
343.61	4580.6	
343.81	2807.1	
344.02	2553.8	
344.23	4746.5	
344.43	4846.9	
344.64	3152.5	
344.85	3095.8	
345.06	4660.5	
345.26	4758.1	
345.47	3054.9	
345.68	3454.2	
345.88	4097.3	
346.09	4668	
346.3	3039.2	
346.5	2379.7	
346.71	4422.2	
346.92	4229.7	
347.12	2599.6	
347.33	2957.9	
347.54	4788.2	
347.74	4963.6	
347.95	2969.6	
348.16	2391.3	
348.36	4315.1	
348.57	4138.3	
348.78	3063.8	
348.98	3120.4	
349.19	4360.8	
349.39	4008.6	
349.6	2562	
349.81	2701.3	
350.01	4672.8	
350.22	4235.9	
350.43	2925.2	
350.63	3323.2	
350.84	4436.6	
351.05	4265.9	
351.25	2684.9	
351.46	2484.9	
351.67	4739	
351.87	4221.5	
352.08	2806.4	
352.29	3155.9	
352.49	4658.4	
352.7	4506.9	
352.9	2607.1	
353.11	3110.9	
353.32	5099.4	
353.52	4319.2	
353.73	2611.8	
353.94	3177.8	
354.14	4579.9	
354.35	4435.9	
354.55	2746.3	
354.76	2848.7	
354.97	4601.8	
355.17	4328	
355.38	2599.6	
355.59	3278.1	
355.79	4214.7	
356	4350.6	
356.2	2912.2	
356.41	2636.4	
356.62	4100	
356.82	4345.1	
357.03	3046	
357.24	2796.2	
357.44	4192.9	
357.65	4275.5	
357.85	3511.6	
358.06	2940.9	
358.27	4016.7	
358.47	4143.7	
358.68	2599.6	
358.88	3110.9	
359.09	4553.3	
359.3	4681	
359.5	3512.3	
359.71	3103.4	
359.91	4944.5	
360.12	4521.9	
360.33	3094.5	
360.53	3334.1	
360.74	4261.8	
360.94	4282.3	
361.15	3235.1	
361.36	2733.4	
361.56	4758.1	
361.77	4420.2	
361.97	3448.1	
362.18	2828.2	
362.38	4725.3	
362.59	4141	
362.8	2699.9	
363	2606.4	
363.21	4065.2	
363.41	4418.2	
363.62	2979.8	
363.83	3540.9	
364.03	4622.3	
364.24	4986.1	
364.44	3711.6	
364.65	3638.6	
364.85	4379.9	
365.06	4190.8	
365.27	2785.2	
365.47	2850.1	
365.68	4965	
365.88	4377.9	
366.09	3087	
366.29	2850.1	
366.5	4520.5	
366.71	4718.5	
366.91	3637.2	
367.12	3156.6	
367.32	5173.2	
367.53	4630.5	
367.73	3194.8	
367.94	3709.6	
368.14	4704.9	
368.35	5066	
368.56	3063.8	
368.76	2773.6	
368.97	4734.9	
369.17	5623.7	
369.38	2837.1	
369.58	2979.8	
369.79	4111	
369.99	5007.3	
370.2	3620.8	
370.4	3050.8	
370.61	4520.5	
370.82	5335.6	
371.02	2968.9	
371.23	2615.3	
371.43	4205.8	
371.64	5036	
371.84	3080.1	
372.05	3723.2	
372.25	5593.7	
372.46	4646.2	
372.66	3003	
372.87	2994.8	
373.07	4707.6	
373.28	5746.6	
373.48	3579.8	
373.69	3403.7	
373.9	4445.5	
374.1	4478.9	
374.31	3618.8	
374.51	3279.5	
374.72	4883.7	
374.92	4320.5	
375.13	3667.9	
375.33	3188	
375.54	4662.5	
375.74	4392.2	
375.95	3277.4	
376.15	3968.3	
376.36	4733.5	
376.56	4685.8	
376.77	3308.8	
376.97	3570.3	
377.18	5423	
377.38	4804.5	
377.59	3667.2	
377.79	3033	
378	4674.8	
378.2	4851	
378.41	3062.4	
378.61	2995.5	
378.82	5032.5	
379.02	4448.2	
379.23	3158.7	
379.43	3798.3	
379.64	5104.2	
379.84	4771.8	
380.05	3125.2	
380.25	2991.4	
380.46	4827.7	
380.66	4550.6	
380.87	3894.6	
381.07	4042	
381.28	5208	
381.48	4840.7	
381.69	3025.5	
381.89	3089.7	
382.1	4226.3	
382.3	4802.5	
382.51	3685	
382.71	4251.6	
382.91	4717.8	
383.12	5101.5	
383.32	3272	
383.53	3392.1	
383.73	4724	
383.94	4668	
384.14	3345.7	
384.35	2808.4	
384.55	4460.5	
384.76	4766.3	
384.96	3326.6	
385.17	3429	
385.37	4801.1	
385.58	4390.8	
385.78	3414.6	
385.98	2814.6	
386.19	4511.7	
386.39	4784.7	
386.6	3154.6	
386.8	3295.9	
387.01	4840	
387.21	4820.2	
387.42	3507.5	
387.62	3816.7	
387.83	4441.4	
388.03	4655	
388.23	3367.5	
388.44	3764.2	
388.64	4289.8	
388.85	4338.3	
389.05	3501.3	
389.26	3831.7	
389.46	5636	
389.67	5244.2	
389.87	3606.5	
390.07	3541.6	
390.28	4614.1	
390.48	4371	
390.69	3044.6	
390.89	3289	
391.1	4486.4	
391.3	5065.3	
391.5	3975.1	
391.71	4358.1	
391.91	4924	
392.12	5365.7	
392.32	4017.4	
392.53	3594.9	
392.73	4564.2	
392.93	4596.3	
393.14	3360	
393.34	3837.9	
393.55	4917.9	
393.75	4619.5	
393.95	3351.2	
394.16	3299.3	
394.36	4580.6	
394.57	4981.3	
394.77	3058.3	
394.98	3318.4	
395.18	4586.8	
395.38	4540.3	
395.59	3870	
395.79	3190.7	
396	4652.3	
396.2	4924	
396.4	3781.2	
396.61	3692.5	
396.81	4999.8	
397.02	4602.5	
397.22	3893.2	
397.42	3857.7	
397.63	5044.8	
397.83	4601.8	
398.04	3215.3	
398.24	3542.3	
398.44	4888.5	
398.65	4265.9	
398.85	3089.7	
399.05	3180.5	
399.26	4661.2	
399.46	5654.4	
399.67	3507.5	
399.87	3321.8	
400.07	4816.1	
400.28	5001.1	
400.48	3295.9	
400.69	3994.2	
400.89	5056.4	
401.09	5433.3	
401.3	3262.4	
401.5	3941	
401.7	5560.9	
401.91	5666.7	
402.11	3621.5	
402.32	3621.5	
402.52	5184.1	
402.72	5072.1	
402.93	3785.3	
403.13	3061.7	
403.33	5654.4	
403.54	4777.9	
403.74	3615.3	
403.94	4125.3	
404.15	4851.6	
404.35	5605.3	
404.56	3476.8	
404.76	4529.4	
404.96	5191.6	
405.17	4986.1	
405.37	3926.6	
405.57	3758.7	
405.78	5187.5	
405.98	4819.6	
406.18	3488.4	
406.39	3962.8	
406.59	5210.7	
406.79	4855.7	
407	3293.8	
407.2	3407.8	
407.4	5457.2	
407.61	5347.2	
407.81	3469.9	
408.01	4910.3	
408.22	4524.6	
408.42	5733.6	
408.62	4135.5	
408.83	3898.6	
409.03	5010	
409.23	4967	
409.44	3820.1	
409.64	4078.9	
409.84	5677.7	
410.05	5608	
410.25	3969.6	
410.45	3876.1	
410.66	5362.3	
410.86	6851.8	
411.06	4124.6	
411.27	4151.9	
411.47	6652.5	
411.67	5511.8	
411.88	4274.1	
412.08	4424.3	
412.28	5831.9	
412.49	6085.2	
412.69	4186	
412.89	4148.5	
413.09	6077.7	
413.3	5987.6	
413.5	4236.6	
413.7	4033.1	
413.91	5631.9	
414.11	5997.8	
414.31	4205.2	
414.52	4458.4	
414.72	5858.6	
414.92	5862	
415.12	4130.8	
415.33	4563.6	
415.53	6023.8	
415.73	6175.3	
415.94	4759.5	
416.14	4362.9	
416.34	5572.5	
416.55	5366.4	
416.75	5066	
416.95	4754	
417.15	6177.4	
417.36	6440.2	
417.56	5340.4	
417.76	4636.6	
417.97	6346.7	
418.17	6159.6	
418.37	4460.5	
418.57	4424.3	
418.78	6118	
418.98	5851.7	
419.18	5001.8	
419.38	4947.9	
419.59	5759.6	
419.79	5651.7	
419.99	4443.4	
420.2	4496.7	
420.4	6156.9	
420.6	6190.3	
420.8	4342.4	
421.01	4278.9	
421.21	6192.4	
421.41	6105	
421.61	4496	
421.82	4432.5	
422.02	5869.5	
422.22	6397.2	
422.42	4890.5	
422.63	4607.9	
422.83	5782.8	
423.03	6645	
423.23	4690.5	
423.44	4061.8	
423.64	5877	
423.84	5535	
424.04	4330.8	
424.25	4094.6	
424.45	6394.4	
424.65	6303	
424.85	4038.6	
425.06	4316.4	
425.26	6591	
425.46	5784.1	
425.66	4655	
425.87	4466.6	
426.07	6252.4	
426.27	6051.7	
426.47	4532.8	
426.67	4100.7	
426.88	6421.7	
427.08	6104.3	
427.28	4729.4	
427.48	4126	
427.69	5508.4	
427.89	5792.3	
428.09	4586.8	
428.29	4085.7	
428.5	6175.3	
428.7	6001.9	
428.9	4113	
429.1	4399.7	
429.3	6029.2	
429.51	6051.7	
429.71	4390.8	
429.91	4863.2	
430.11	6202.6	
430.31	6393.1	
430.52	4397	
430.72	4637.3	
430.92	6509.8	
431.12	6148	
431.32	4380.6	
431.53	4552.6	
431.73	5546.6	
431.93	6608.1	
432.13	4235.9	
432.33	4165.6	
432.54	5941.2	
432.74	5961.6	
432.94	4202.4	
433.14	4753.3	
433.34	6337.1	
433.55	5980.8	
433.75	4806.6	
433.95	5827.8	
434.15	6183.5	
434.35	5847.6	
434.56	4298	
434.76	4056.3	
434.96	6074.3	
435.16	6267.5	
435.36	4264.6	
435.56	5001.1	
435.77	5898.2	
435.97	6019.7	
436.17	5390.3	
436.37	4952	
436.57	5880.4	
436.78	5882.4	
436.98	5839.4	
437.18	5317.9	
437.38	6331.6	
437.58	5969.1	
437.78	5339.1	
437.99	4502.1	
438.19	6288.6	
438.39	7234.1	
438.59	4516.5	
438.79	4213.4	
438.99	6797.2	
439.2	5967.8	
439.4	4182.6	
439.6	4249.5	
439.8	6047	
440	6863.4	
440.2	4925.4	
440.4	4984.1	
440.61	6574	
440.81	6709.8	
441.01	4432.5	
441.21	4997	
441.41	6791.7	
441.61	6465.4	
441.81	5219.6	
442.02	5794.4	
442.22	7072.3	
442.42	6640.9	
442.62	4562.2	
442.82	4642.1	
443.02	6946.7	
443.22	6339.8	
443.43	4959.5	
443.63	4571.1	
443.83	6184.9	
444.03	6182.8	
444.23	5395.7	
444.43	5059.8	
444.63	6509.1	
444.83	7110.5	
445.04	4762.9	
445.24	5477.6	
445.44	6718	
445.64	6605.4	
445.84	5091.3	
446.04	5199.8	
446.24	6230.6	
446.44	6832.7	
446.65	4639.3	
446.85	4883.7	
447.05	6425.8	
447.25	6768.5	
447.45	5044.1	
447.65	4545.8	
447.85	6502.3	
448.05	6146.6	
448.25	5134.9	
448.46	5042.8	
448.66	6477.7	
448.86	6182.8	
449.06	4549.9	
449.26	5153.4	
449.46	6635.4	
449.66	6124.8	
449.86	4990.9	
450.06	4897.4	
450.26	6231.3	
450.47	6627.2	
450.67	5076.2	
450.87	5267.4	
451.07	6784.2	
451.27	6383.5	
451.47	4723.3	
451.67	5293.3	
451.87	6382.8	
452.07	6982.2	
452.27	4780.6	
452.47	4776.5	
452.67	6543.3	
452.88	6759.7	
453.08	4511.7	
453.28	5570.5	
453.48	7272.3	
453.68	6432.7	
453.88	4838.7	
454.08	4870.1	
454.28	6771.3	
454.48	6529.6	
454.68	5231.2	
454.88	5543.9	
455.08	6894.8	
455.28	6692.1	
455.48	4734.9	
455.68	5228.5	
455.89	7206.1	
456.09	6894.8	
456.29	5030.5	
456.49	5099.4	
456.69	7140.6	
456.89	6563.7	
457.09	5338.4	
457.29	5621	
457.49	6885.3	
457.69	6946.7	
457.89	5326.8	
458.09	4865.3	
458.29	6777.4	
458.49	7214.3	
458.69	5466	
458.89	5247.6	
459.09	7350.8	
459.29	7428	
459.49	5347.9	
459.69	5781.4	
459.9	7114	
460.1	6890	
460.3	5158.8	
460.5	5134.9	
460.7	7215.7	
460.9	6878.4	
461.1	5017.5	
461.3	5703.6	
461.5	7555	
461.7	7341.3	
461.9	5326.8	
462.1	5478.3	
462.3	7077.1	
462.5	7412.3	
462.7	5335	
462.9	5446.2	
463.1	8056.7	
463.3	7899.7	
463.5	5588.9	
463.7	6153.5	
463.9	7346.1	
464.1	7469.6	
464.3	5809.4	
464.5	5810.1	
464.7	7626.6	
464.9	7489.4	
465.1	6638.8	
465.3	6087.9	
465.5	7926.3	
465.7	7931.8	
465.9	6250.4	
466.1	6032	
466.3	7793.9	
466.5	7660.8	
466.7	6680.5	
466.9	5999.9	
467.1	7850.5	
467.3	8294.3	
467.5	6797.2	
467.7	6100.2	
467.9	8510.7	
468.1	8983.8	
468.3	6449.1	
468.5	6740.5	
468.7	7763.2	
468.9	7716.1	
469.1	6297.5	
469.3	6721.4	
469.5	9040.4	
469.7	7599.3	
469.9	6598.6	
470.1	6214.9	
470.3	7947.5	
470.5	7860.1	
470.7	6929	
470.9	6168.5	
471.1	7735.2	
471.3	7888.8	
471.5	6085.2	
471.69	7188.4	
471.89	7705.8	
472.09	7254.6	
472.29	6543.3	
472.49	6705	
472.69	7471	
472.89	7905.2	
473.09	6069.5	
473.29	6089.3	
473.49	7612.3	
473.69	7489.4	
473.89	6653.9	
474.09	6175.3	
474.29	8326.4	
474.49	8114.1	
474.69	6703	
474.89	6169.8	
475.09	7599.3	
475.29	7582.3	
475.49	5917.9	
475.69	6084.5	
475.88	8611	
476.08	7959.1	
476.28	5922	
476.48	6040.1	
476.68	8251.3	
476.88	7876.5	
477.08	6085.2	
477.28	6264.1	
477.48	7727	
477.68	7932.5	
477.88	5978	
478.08	6066.1	
478.28	8221.2	
478.48	7671.7	
478.67	6162.3	
478.87	5652.4	
479.07	8087.4	
479.27	7819.8	
479.47	6178.7	
479.67	6283.2	
479.87	8055.3	
480.07	8289.5	
480.27	5847	
480.47	6796.5	
480.67	7738.6	
480.87	8217.1	
481.06	6014.2	
481.26	6544.6	
481.46	7878.5	
481.66	7719.5	
481.86	6325.5	
482.06	6874.3	
482.26	7643.7	
482.46	8149.6	
482.66	6230.6	
482.86	5971.9	
483.05	8008.9	
483.25	7465.5	
483.45	7807.5	
483.65	6294.8	
483.85	7575.4	
484.05	7904.5	
484.25	6567.8	
484.45	6780.8	
484.65	8257.4	
484.84	8470.4	
485.04	6234.7	
485.24	6279.1	
485.44	8561.9	
485.64	7602.1	
485.84	5926.1	
486.04	6680.5	
486.24	7733.8	
486.44	7970.7	
486.63	5826.5	
486.83	6395.1	
487.03	7768.6	
487.23	7961.1	
487.43	6044.2	
487.63	7362.4	
487.83	7967.3	
488.02	8366.6	
488.22	6652.5	
488.42	6961	
488.62	8509.3	
488.82	7786.4	
489.02	6436.8	
489.22	6548.7	
489.41	8307.9	
489.61	8301.1	
489.81	6237.4	
490.01	6322.1	
490.21	8421.2	
490.41	8940.7	
490.61	6345.3	
490.8	6274.3	
491	8233.5	
491.2	7733.1	
491.4	6721.4	
491.6	6230.6	
491.8	8120.2	
491.99	8077.2	
492.19	6190.3	
492.39	6314.6	
492.59	8359.8	
492.79	8518.9	
492.99	6845.7	
493.18	6249	
493.38	8690.9	
493.58	8965.3	
493.78	6735.1	
493.98	6414.2	
494.18	8338	
494.37	8032.1	
494.57	7022.5	
494.77	6932.4	
494.97	8664.3	
495.17	8815.8	
495.37	6705	
495.56	6914.6	
495.76	8940.1	
495.96	8767.4	
496.16	7598	
496.36	6991.8	
496.55	9043.1	
496.75	8558.5	
496.95	7250.5	
497.15	7151.5	
497.35	8895.7	
497.54	8882	
497.74	6935.8	
497.94	8129.1	
498.14	9488.9	
498.34	9209	
498.53	6881.2	
498.73	7333.8	
498.93	8570.1	
499.13	8978.3	
499.33	7301.7	
499.52	7347.4	
499.72	9099.8	
499.92	9090.3	
500.12	7086.7	
500.32	7288	
500.51	9177.6	
500.71	8893.6	
500.91	7692.2	
501.11	7423.9	
501.31	9111.4	
501.5	9413.8	
501.7	7914.7	
501.9	7310.6	
502.1	8935.3	
502.29	9154.4	
502.49	7652.6	
502.69	7812.3	
502.89	9146.2	
503.09	9048.6	
503.28	6860	
503.48	6999.3	
503.68	8715.5	
503.88	8706.6	
504.07	7679.9	
504.27	7292.8	
504.47	8921.6	
504.67	8937.3	
504.86	7610.9	
505.06	7374.7	
505.26	8685.4	
505.46	9679.4	
505.65	7291.5	
505.85	7425.9	
506.05	8695	
506.25	8942.8	
506.44	6876.4	
506.64	7251.9	
506.84	8459.5	
507.04	9004.9	
507.23	6898.2	
507.43	7226.6	
507.63	9631.6	
507.83	8476.5	
508.02	7311.2	
508.22	6941.2	
508.42	9795.4	
508.62	8442.4	
508.81	7238.9	
509.01	7613	
509.21	8402.8	
509.4	8709.3	
509.6	7236.8	
509.8	6971.3	
510	8602.2	
510.19	9228.1	
510.39	6861.4	
510.59	6903	
510.79	8478.6	
510.98	9301.2	
511.18	7111.2	
511.38	7007.5	
511.57	9116.9	
511.77	8747.6	
511.97	7387	
512.17	6853.2	
512.36	8942.8	
512.56	8846.5	
512.76	6817.7	
512.95	6644.3	
513.15	9192.6	
513.35	8141.4	
513.55	7430	
513.74	6865.5	
513.94	8959.9	
514.14	8526.4	
514.33	7379.5	
514.53	7223.9	
514.73	8607.6	
514.92	8688.8	
515.12	6926.9	
515.32	6859.3	
515.51	8782.4	
515.71	8850	
515.91	7947.5	
516.11	6802	
516.3	9837.1	
516.5	8567.3	
516.7	7268.2	
516.89	7509.9	
517.09	8628.1	
517.29	8613.1	
517.48	7429.3	
517.68	7129.7	
517.88	8338	
518.07	8837	
518.27	7398.6	
518.47	6808.1	
518.66	9216.5	
518.86	8335.9	
519.06	6713.9	
519.25	6965.1	
519.45	8453.3	
519.65	9503.3	
519.84	7397.9	
520.04	7761.8	
520.24	9695.1	
520.43	8929.8	
520.63	7265.5	
520.83	7071.6	
521.02	8536.6	
521.22	8809	
521.42	7266.9	
521.61	7692.9	
521.81	8587.1	
522.01	8722.3	
522.2	7275.1	
522.4	7105.8	
522.6	8987.9	
522.79	8078.6	
522.99	7120.1	
523.18	6748.1	
523.38	8892.3	
523.58	8869.8	
523.77	7951.6	
523.97	6794.5	
524.17	9882.8	
524.36	9531.2	
524.56	7721.5	
524.76	7473.7	
524.95	8893	
525.15	8762.6	
525.34	7489.4	
525.54	7449.1	
525.74	9269.1	
525.93	8687.5	
526.13	8333.9	
526.33	7559.7	
526.52	9611.8	
526.72	9165.3	
526.91	8238.3	
527.11	7862.8	
527.31	9581.8	
527.5	9764	
527.7	7824.6	
527.89	7258.7	
528.09	8914.8	
528.29	9255.5	
528.48	8009.6	
528.68	7774.8	
528.87	9514.9	
529.07	9566.1	
529.27	7869	
529.46	7419.1	
529.66	9402.9	
529.85	9733.3	
530.05	7484.6	
530.25	7936.6	
530.44	10256	
530.64	9380.4	
530.83	7796.6	
531.03	7877.9	
531.23	9738.1	
531.42	9456.8	
531.62	8295	
531.81	7782.3	
532.01	9838.4	
532.21	9899.2	
532.4	7731.1	
532.6	7931.8	
532.79	10278	
532.99	9801.6	
533.18	8056.7	
533.38	8679.3	
533.58	9593.4	
533.77	9988.6	
533.97	8230.8	
534.16	8676.6	
534.36	10370	
534.55	9653.4	
534.75	8728.4	
534.95	8179.6	
535.14	10277	
535.34	9591.3	
535.53	7925	
535.73	8957.1	
535.92	10551	
536.12	9719.7	
536.31	8073.8	
536.51	8862.2	
536.71	10049	
536.9	9796.8	
537.1	8093.6	
537.29	8275.2	
537.49	10103	
537.68	9590.6	
537.88	8563.2	
538.07	7905.8	
538.27	9867.1	
538.46	10347	
538.66	7892.9	
538.86	8239	
539.05	9891.7	
539.25	10051	
539.44	8462.2	
539.64	8066.3	
539.83	9744.9	
540.03	10331	
540.22	8034.9	
540.42	8003.5	
540.61	9932	
540.81	10012	
541	8283.4	
541.2	8743.5	
541.39	9482.8	
541.59	9710.1	
541.78	8557.1	
541.98	7885.4	
542.18	9313.5	
542.37	9289.6	
542.57	8174.1	
542.76	8533.2	
542.96	9387.9	
543.15	9684.8	
543.35	8257.4	
543.54	7789.8	
543.74	9529.2	
543.93	9549	
544.13	8063.5	
544.32	8687.5	
544.52	9772.2	
544.71	9237.7	
544.91	7480.5	
545.1	8180.3	
545.3	9336.7	
545.49	9583.1	
545.69	7434.1	
545.88	7807.5	
546.08	10317	
546.27	9855.5	
546.47	8114.1	
546.66	7672.4	
546.86	9798.8	
547.05	10064	
547.24	7819.1	
547.44	7708.6	
547.63	9158.5	
547.83	9724.4	
548.02	8019.2	
548.22	8039	
548.41	8994	
548.61	9814.5	
548.8	7689.4	
549	7654.6	
549.19	9476	
549.39	9693	
549.58	7355.6	
549.78	7720.8	
549.97	9678	
550.17	9258.2	
550.36	8290.9	
550.55	8887.5	
550.75	9192.6	
550.94	9829.6	
551.14	7494.2	
551.33	7694.9	
551.53	8781.7	
551.72	9383.8	
551.92	7736.5	
552.11	7539.3	
552.31	9530.6	
552.5	9321	
552.69	8593.3	
552.89	7205.4	
553.08	9450.7	
553.28	9123	
553.47	7522.2	
553.67	8231.5	
553.86	9749.7	
554.06	8698.4	
554.25	7076.4	
554.44	7402.7	
554.64	10132	
554.83	9869.2	
555.03	7459.4	
555.22	7544.7	
555.42	9481.4	
555.61	9255.5	
555.8	7359.7	
556	7683.3	
556.19	8713.4	
556.39	9379.7	
556.58	7489.4	
556.78	7540.6	
556.97	9244.5	
557.16	9017.2	
557.36	8116.8	
557.55	7294.2	
557.75	8587.1	
557.94	9658.2	
558.13	7253.2	
558.33	7135.8	
558.52	9630.2	
558.72	8699.1	
558.91	7259.4	
559.1	7417.7	
559.3	8602.8	
559.49	8428.1	
559.69	7160.4	
559.88	7537.2	
560.07	9060.2	
560.27	9405	
560.46	7718.1	
560.66	7765.2	
560.85	9046.6	
561.04	8460.2	
561.24	7258	
561.43	7256.6	
561.63	8784.4	
561.82	8883.4	
562.01	7972.7	
562.21	7514	
562.4	9088.2	
562.59	9707.4	
562.79	7404.8	
562.98	7161.7	
563.18	9090.3	
563.37	9865.1	
563.56	7638.2	
563.76	7158.3	
563.95	8738.7	
564.14	8714.1	
564.34	7569.3	
564.53	7224.6	
564.73	9175.6	
564.92	9208.4	
565.11	7585.7	
565.31	7206.8	
565.5	9488.2	
565.69	8697.7	
565.89	7417.1	
566.08	7484	
566.27	9293	
566.47	9650	
566.66	7918.8	
566.85	7060	
567.05	9299.1	
567.24	8856.1	
567.44	7232.7	
567.63	8148.2	
567.82	9331.9	
568.02	9157.2	
568.21	7401.4	
568.4	7484	
568.6	9176.9	
568.79	9090.3	
568.98	7363.1	
569.18	7318.1	
569.37	9097.1	
569.56	10330	
569.76	7670.3	
569.95	8206.9	
570.14	9414.5	
570.34	9237.7	
570.53	7395.2	
570.72	7370.6	
570.91	9725.8	
571.11	9196.7	
571.3	7751.6	
571.49	8243.1	
571.69	9241.8	
571.88	8924.4	
572.07	7928.4	
572.27	7952.9	
572.46	8877.9	
572.65	9453.4	
572.85	7555	
573.04	7756.3	
573.23	9704.6	
573.43	9286.9	
573.62	7388.4	
573.81	7826	
574	9330.5	
574.2	9157.8	
574.39	7643	
574.58	7783.6	
574.78	9886.9	
574.97	9370.8	
575.16	7989.8	
575.36	8013	
575.55	9731.9	
575.74	9805.7	
575.93	7502.4	
576.13	8232.8	
576.32	9437.7	
576.51	9719.7	
576.71	7963.2	
576.9	8674.5	
577.09	9976.3	
577.28	9597.5	
577.48	8040.3	
577.67	7501	
577.86	9570.2	
578.05	9655.5	
578.25	7950.2	
578.44	7959.1	
578.63	9551	
578.83	10245	
579.02	7771.4	
579.21	8421.9	
579.4	9718.3	
579.6	9502.6	
579.79	8085.4	
579.98	9401.5	
580.17	9850.7	
580.37	9979.8	
580.56	7784.3	
580.75	8198.7	
580.94	10075	
581.14	10155	
581.33	8520.9	
581.52	7815.7	
581.71	9811.8	
581.91	10228	
582.1	7636.9	
582.29	7858.1	
582.48	9511.4	
582.68	9595.4	
582.87	8253.3	
583.06	8064.2	
583.25	9823.4	
583.45	9399.5	
583.64	8544.8	
583.83	8842.4	
584.02	9507.4	
584.21	9734	
584.41	8436.9	
584.6	8116.1	
584.79	9673.9	
584.98	9951.1	
585.18	7843	
585.37	7677.8	
585.56	9452.1	
585.75	9884.9	
585.94	7781.6	
586.14	8260.1	
586.33	10146	
586.52	9533.3	
586.71	8169.3	
586.91	8047.8	
587.1	9160.6	
587.29	9933.3	
587.48	7863.5	
587.67	7910.6	
587.87	9780.4	
588.06	9649.3	
588.25	8656.1	
588.44	8204.2	
588.63	9435.7	
588.83	9734	
589.02	7781.6	
589.21	7703.8	
589.4	9336	
589.59	9342.8	
589.78	7217	
589.98	7385.7	
590.17	8914.8	
590.36	9110	
590.55	6964.5	
590.74	7200.7	
590.94	9836.4	
591.13	8905.9	
591.32	7205.4	
591.51	6853.9	
591.7	9061.6	
591.89	8885.5	
592.09	6859.3	
592.28	7067.5	
592.47	8313.4	
592.66	9525.8	
592.85	6810.9	
593.05	7004.7	
593.24	8819.2	
593.43	9291	
593.62	7082.6	
593.81	7359.7	
594	8881.4	
594.19	8901.8	
594.39	7010.9	
594.58	6949.4	
594.77	9029.5	
594.96	9201.5	
595.15	6929	
595.34	7322.9	
595.54	8877.3	
595.73	8429.4	
595.92	6576	
596.11	7219.1	
596.3	9269.1	
596.49	8480.6	
596.68	7122.2	
596.88	7358.4	
597.07	8925.7	
597.26	8299.7	
597.45	6796.5	
597.64	7415.7	
597.83	8534.6	
598.02	8871.1	
598.22	6855.2	
598.41	7152.2	
598.6	8649.9	
598.79	8262.2	
598.98	6813.6	
599.17	7369.3	
599.36	8819.9	
599.55	9299.1	
599.74	7998	
599.94	7878.5	
600.13	9071.8	
600.32	8209.6	
600.51	6694.1	
600.7	6701	
600.89	9307.3	
601.08	9406.3	
601.27	6523.5	
601.47	7136.5	
601.66	8905.3	
601.85	9252	
602.04	6925.5	
602.23	7176.1	
602.42	8350.9	
602.61	8684.8	
602.8	6888.7	
602.99	6782.2	
603.18	8604.2	
603.37	8672.5	
603.57	7139.2	
603.76	7455.3	
603.95	9086.8	
604.14	8714.1	
604.33	6740.5	
604.52	6932.4	
604.71	8732.5	
604.9	8434.9	
605.09	7413.6	
605.28	7195.9	
605.47	9123.7	
605.66	8726.4	
605.86	7166.5	
606.05	6841.6	
606.24	9050	
606.43	8069.7	
606.62	7046.4	
606.81	7376.1	
607	8863.6	
607.19	8490.9	
607.38	6548	
607.57	6789.7	
607.76	8329.8	
607.95	7974.8	
608.14	7183.6	
608.33	7370	
608.52	8238.3	
608.72	8910.7	
608.91	6599.2	
609.1	6455.2	
609.29	8356.4	
609.48	8144.1	
609.67	7028.6	
609.86	6601.3	
610.05	8181.6	
610.24	8243.1	
610.43	6445	
610.62	6266.1	
610.81	8980.3	
611	8914.8	
611.19	6565.8	
611.38	6975.4	
611.57	8538	
611.76	9096.4	
611.95	6443.6	
612.14	6256.5	
612.33	8341.4	
612.52	8135.9	
612.71	6723.5	
612.9	6250.4	
613.09	7866.9	
613.28	9265	
613.47	6673	
613.66	7214.3	
613.85	8462.9	
614.04	8064.2	
614.24	6640.9	
614.43	6197.2	
614.62	8566.7	
614.81	8529.8	
615	6922.8	
615.19	6892.8	
615.38	8047.2	
615.57	8342.7	
615.76	6910.5	
615.95	7490.1	
616.14	8620.6	
616.33	8380.3	
616.52	7142.6	
616.71	7202.7	
616.9	8586.5	
617.09	8352.3	
617.28	6722.1	
617.47	7454.6	
617.66	8017.8	
617.85	8043.1	
618.04	7226.6	
618.22	6943.3	
618.41	8224.6	
618.6	8819.2	
618.79	6894.1	
618.98	6820.4	
619.17	9034.3	
619.36	7899	
619.55	6915.3	
619.74	6952.9	
619.93	8568	
620.12	8191.9	
620.31	7182.9	
620.5	7294.2	
620.69	8921.6	
620.88	9267.7	
621.07	7780.9	
621.26	7229.3	
621.45	8690.2	
621.64	8740.7	
621.83	7308.5	
622.02	6737.8	
622.21	8830.8	
622.4	8639	
622.59	7610.3	
622.78	7529	
622.97	8393.9	
623.16	9036.3	
623.35	7305.1	
623.54	6707.8	
623.72	8508.6	
623.91	8686.1	
624.1	7461.4	
624.29	6642.2	
624.48	9329.9	
624.67	8880	
624.86	7366.5	
625.05	6794.5	
625.24	9422	
625.43	8527.1	
625.62	8353.7	
625.81	6994.5	
626	9032.9	
626.19	8661.5	
626.38	7382.2	
626.56	7064.8	
626.75	8406.2	
626.94	8929.1	
627.13	7452.6	
627.32	6595.8	
627.51	8841.1	
627.7	9544.2	
627.89	6758.3	
628.08	7494.9	
628.27	8410.3	
628.46	8576.9	
628.65	6863.4	
628.83	6613.6	
629.02	8757.1	
629.21	8224.6	
629.4	7157	
629.59	7240.9	
629.78	8329.1	
629.97	8968.7	
630.16	7287.4	
630.35	6995.9	
630.54	9336.7	
630.72	9054.8	
630.91	7029.3	
631.1	7261.4	
631.29	8762.6	
631.48	8767.4	
631.67	7441.6	
631.86	6990.4	
632.05	8606.9	
632.24	8558.5	
632.42	6812.9	
632.61	7305.1	
632.8	8544.8	
632.99	8324.3	
633.18	7247.8	
633.37	7391.8	
633.56	8802.2	
633.75	8596.7	
633.93	7263.5	
634.12	7200.7	
634.31	9349.7	
634.5	9077.3	
634.69	7099.6	
634.88	7387	
635.07	8665.6	
635.25	9092.3	
635.44	7602.1	
635.63	7819.1	
635.82	8553.7	
636.01	7940.7	
636.2	7535.2	
636.39	7364.5	
636.57	9316.2	
636.76	8919.6	
636.95	7029.3	
637.14	7755	
637.33	8917.5	
637.52	9243.2	
637.7	6836.1	
637.89	7565.2	
638.08	8587.1	
638.27	9402.2	
638.46	7389.1	
638.65	7683.3	
638.83	9465	
639.02	8497	
639.21	7360.4	
639.4	7706.5	
639.59	8742.8	
639.78	8538	
639.96	6882.5	
640.15	6909.8	
640.34	8709.3	
640.53	8630.8	
640.72	6780.8	
640.91	6918	
641.09	8225.3	
641.28	9004.9	
641.47	6900.3	
641.66	7436.2	
641.85	8733.2	
642.03	8647.9	
642.22	7248.4	
642.41	6883.9	
642.6	8270.4	
642.79	7854	
642.97	6810.9	
643.16	7151.5	
643.35	8356.4	
643.54	8046.5	
643.73	6791.7	
643.91	7131.7	
644.1	8094.9	
644.29	8490.2	
644.48	6774	
644.67	6789.7	
644.85	8051.9	
645.04	8370.7	
645.23	6449.1	
645.42	6806.8	
645.6	8003.5	
645.79	8607.6	
645.98	6565.1	
646.17	5999.9	
646.36	7765.9	
646.54	8082	
646.73	6989	
646.92	6312.5	
647.11	7838.3	
647.29	8417.2	
647.48	6241.5	
647.67	6150.1	
647.86	8514.1	
648.05	8521.6	
648.23	6430.6	
648.42	7119.4	
648.61	8185.7	
648.8	7991.2	
648.98	6207.4	
649.17	6382.2	
649.36	7771.4	
649.55	7414.3	
649.73	6250.4	
649.92	6549.4	
650.11	7605.5	
650.3	7823.9	
650.48	6287.3	
650.67	6158.9	
650.86	8036.2	
651.05	7378.1	
651.23	6294.1	
651.42	6119.3	
651.61	7695.6	
651.79	7551.5	
651.98	6241.5	
652.17	6065.4	
652.36	7844.4	
652.54	7292.1	
652.73	6084.5	
652.92	6025.1	
653.11	7806.2	
653.29	8006.9	
653.48	5771.9	
653.67	6315.9	
653.85	7690.1	
654.04	8327	
654.23	6420.4	
654.42	6091.3	
654.6	7453.2	
654.79	7819.1	
654.98	5767.1	
655.16	6135.7	
655.35	7159.7	
655.54	6963.8	
655.73	5711.8	
655.91	5600.5	
656.1	7527.7	
656.29	6827.2	
656.47	5401.9	
656.66	6353.5	
656.85	7162.4	
657.03	7090.8	
657.22	5690.6	
657.41	5814.2	
657.59	7225.9	
657.78	7122.8	
657.97	5535	
658.16	6081.1	
658.34	7744.7	
658.53	7960.5	
658.72	6599.9	
658.9	6873	
659.09	7518.8	
659.28	7451.2	
659.46	5982.8	
659.65	5764.3	
659.84	7244.3	
660.02	7658	
660.21	5883.8	
660.4	5686.5	
660.58	7875.1	
660.77	7419.1	
660.96	6193.7	
661.14	5606.7	
661.33	8174.8	
661.52	8066.9	
661.7	5625.8	
661.89	7621.9	
662.08	7258	
662.26	6877.1	
662.45	5761.6	
662.64	5810.1	
662.82	7723.6	
663.01	7144	
663.2	5793	
663.38	6285.2	
663.57	7494.9	
663.75	7456	
663.94	6019	
664.13	6703.7	
664.31	7252.5	
664.5	7598.6	
664.69	6225.8	
664.87	6423.1	
665.06	7141.3	
665.25	7442.3	
665.43	6592.4	
665.62	6602	
665.8	7549.5	
665.99	7191.1	
666.18	6020.3	
666.36	5965.1	
666.55	7602.1	
666.74	7538.6	
666.92	5760.3	
667.11	6783.6	
667.29	7316.7	
667.48	7587	
667.67	6445	
667.85	5825.1	
668.04	7158.3	
668.22	7148.1	
668.41	6000.5	
668.6	6111.1	
668.78	7031.4	
668.97	7187	
669.15	6114.6	
669.34	5470.1	
669.53	7032	
669.71	7241.6	
669.9	5612.1	
670.08	5955.5	
670.27	6939.9	
670.46	7377.5	
670.64	6208.8	
670.83	6268.1	
671.01	6931	
671.2	7283.9	
671.38	5726.1	
671.57	5574.6	
671.76	7681.9	
671.94	7985	
672.13	5558.2	
672.31	6130.3	
672.5	7556.3	
672.69	7006.8	
672.87	5657.2	
673.06	5832.6	
673.24	7350.8	
673.43	7030.7	
673.61	6078.4	
673.8	5820.3	
673.98	7316.7	
674.17	7447.8	
674.36	6219	
674.54	6053.1	
674.73	7157.7	
674.91	7520.8	
675.1	5851.7	
675.28	5633.3	
675.47	7202	
675.65	7465.5	
675.84	5834	
676.03	5917.9	
676.21	7030.7	
676.4	6677.7	
676.58	6215.6	
676.77	6120	
676.95	7974.8	
677.14	6959	
677.32	5522	
677.51	5529.5	
677.69	7552.9	
677.88	6870.9	
678.06	5602.6	
678.25	5615.5	
678.44	7101.7	
678.62	6897.6	
678.81	5428.5	
678.99	5951.4	
679.18	7584.3	
679.36	7387	
679.55	5735.7	
679.73	6109.1	
679.92	7265.5	
680.1	6956.3	
680.29	6524.8	
680.47	5821.7	
680.66	6918.7	
680.84	7486	
681.03	5287.2	
681.21	5937.7	
681.4	6950.1	
681.58	6895.5	
681.77	5543.2	
681.95	5556.1	
682.14	7428	
682.32	7572.7	
682.51	6045.6	
682.69	5317.2	
682.88	6877.8	
683.06	7130.3	
683.25	5921.4	
683.43	6140.5	
683.62	7116	
683.8	7240.9	
683.99	6210.1	
684.17	5820.3	
684.36	7688.8	
684.54	6975.4	
684.73	5225.1	
684.91	5423	
685.1	7056.6	
685.28	6683.2	
685.46	5649.7	
685.65	5607.3	
685.83	7075	
686.02	6706.4	
686.2	5128.8	
686.39	5189.6	
686.57	6298.2	
686.76	7264.1	
686.94	5117.2	
687.13	5322	
687.31	6897.6	
687.5	6637.5	
687.68	4931.5	
687.86	5606	
688.05	7714	
688.23	6324.8	
688.42	5639.4	
688.6	5220.3	
688.79	6589.7	
688.97	6630	
689.16	5492	
689.34	4855.7	
689.52	6980.2	
689.71	7293.5	
689.89	5685.8	
690.08	5268.1	
690.26	6870.3	
690.45	6640.2	
690.63	5785.5	
690.81	5445.5	
691	6758.3	
691.18	6692.1	
691.37	5520	
691.55	6767.2	
691.74	6574	
691.92	7805.5	
692.1	5494	
692.29	5212.8	
692.47	6843.6	
692.66	6310.5	
692.84	5234.6	
693.02	5550.7	
693.21	6271.6	
693.39	6674.3	
693.58	5574.6	
693.76	5171.1	
693.94	7382.9	
694.13	7232.1	
694.31	5317.9	
694.5	5939.8	
694.68	6533	
694.86	6855.2	
695.05	5529.5	
695.23	5793.7	
695.42	7027.3	
695.6	8465.6	
695.78	5914.5	
695.97	5415.5	
696.15	7121.5	
696.34	6718.7	
696.52	5213.4	
696.7	5769.1	
696.89	6956.9	
697.07	6546	
697.25	5636	
697.44	6565.8	
697.62	6928.3	
697.81	6977.4	
697.99	5443.5	
698.17	5692	
698.36	6485.9	
698.54	6922.8	
698.72	5563.6	
698.91	4998.4	
699.09	6662.7	
699.28	6444.3	
699.46	5352	
699.64	5222.3	
699.83	6486.6	
700.01	7006.1	
700.19	5867.4	
700.38	4842.1	
700.56	7006.8	
700.74	6494.8	
700.93	5023.7	
701.11	5565.7	
701.29	6839.5	
701.48	7514	
701.66	5115.8	
701.84	5257.8	
702.03	6668.9	
702.21	7096.9	
702.39	4965.6	
702.58	5335.6	
702.76	6896.9	
702.94	6888.7	
703.13	4954.7	
703.31	6420.4	
703.49	6546	
703.68	7079.8	
703.86	5068	
704.04	5608	
704.23	6738.5	
704.41	6959.7	
704.59	5261.9	
704.78	5840.8	
704.96	7791.2	
705.14	6956.3	
705.33	5098.1	
705.51	5512.4	
705.69	6523.5	
705.87	7051.8	
706.06	5637.4	
706.24	5008.6	
706.42	6787.7	
706.61	6978.8	
706.79	5659.9	
706.97	4909	
707.16	6405.4	
707.34	6795.2	
707.52	5579.3	
707.7	5132.9	
707.89	6503.7	
708.07	6246.3	
708.25	5569.8	
708.44	5758.9	
708.62	6408.8	
708.8	7039.6	
708.98	5718.6	
709.17	5195.7	
709.35	6630.6	
709.53	6621.8	
709.72	4979.3	
709.9	4993.6	
710.08	6886	
710.26	6864.8	
710.45	5872.2	
710.63	5119.9	
710.81	6505	
710.99	6554.2	
711.18	5421.7	
711.36	5100.8	
711.54	6391.7	
711.72	6820.4	
711.91	5176.6	
712.09	4846.2	
712.27	6526.2	
712.45	6812.2	
712.64	5158.8	
712.82	4663.9	
713	6163	
713.18	6178	
713.37	4642.1	
713.55	5368.4	
713.73	6656.6	
713.91	5758.2	
714.1	4793.6	
714.28	4483.7	
714.46	6313.2	
714.64	5901.6	
714.83	4065.9	
715.01	4474.8	
715.19	5831.2	
715.37	5309.7	
715.55	4205.8	
715.74	4375.8	
715.92	6178.7	
716.1	4959.5	
716.28	5030.5	
716.47	4431.8	
716.65	5496.7	
716.83	5431.9	
717.01	4293.2	
717.19	4252.3	
717.38	6673	
717.56	5231.9	
717.74	4431.1	
717.92	3949.2	
718.1	6006	
718.29	5477	
718.47	3646.1	
718.65	4068.6	
718.83	5908.4	
719.01	5855.1	
719.2	3693.9	
719.38	4310.3	
719.56	5762.3	
719.74	6638.1	
719.92	4174.4	
720.11	4739	
720.29	5873.6	
720.47	5311.1	
720.65	3805.8	
720.83	4358.8	
721.02	5446.9	
721.2	5338.4	
721.38	4356.7	
721.56	3870.7	
721.74	4965.6	
721.92	4997.7	
722.11	4577.9	
722.29	4397.7	
722.47	5799.8	
722.65	5249.6	
722.83	3815.4	
723.01	4358.1	
723.2	5278.3	
723.38	5444.9	
723.56	3501.3	
723.74	4199	
723.92	5013.4	
724.1	5662.6	
724.29	3787.4	
724.47	4428.4	
724.65	5105.6	
724.83	4933.6	
725.01	3697.9	
725.19	4188.1	
725.37	4944.5	
725.56	4949.3	
725.74	3577.8	
725.92	3671.3	
726.1	4951.3	
726.28	5194.3	
726.46	3988.1	
726.64	3789.4	
726.83	5240.1	
727.01	5199.8	
727.19	3563.5	
727.37	4095.9	
727.55	5237.3	
727.73	5511.8	
727.91	3555.3	
728.09	3379.1	
728.28	5489.9	
728.46	5640.8	
728.64	4001.7	
728.82	4012	
729	6096.8	
729.18	5760.9	
729.36	3549.1	
729.54	4873.5	
729.72	6318	
729.91	5177.9	
730.09	4696.7	
730.27	3956.7	
730.45	5243.5	
730.63	5529.5	
730.81	4367	
730.99	3723.9	
731.17	5901.6	
731.35	4932.9	
731.53	4013.3	
731.71	3801	
731.9	5757.5	
732.08	5675.6	
732.26	4028.4	
732.44	3769.6	
732.62	5824.4	
732.8	5528.2	
732.98	4205.2	
733.16	3629	
733.34	5515.9	
733.52	4648.2	
733.7	3926.6	
733.88	4024.9	
734.07	5360.9	
734.25	5208	
734.43	3605.8	
734.61	4487.1	
734.79	6173.3	
734.97	5173.2	
735.15	3674.7	
735.33	3844	
735.51	5414.8	
735.69	5113.8	
735.87	4496.7	
736.05	3977.2	
736.23	5221.6	
736.41	5005.2	
736.59	3796.9	
736.77	3885.7	
736.95	5496.1	
737.13	5046.2	
737.32	3617.4	
737.5	3746.4	
737.68	5864	
737.86	5057.8	
738.04	3537.5	
738.22	4653.7	
738.4	5020.9	
738.58	5201.2	
738.76	3865.9	
738.94	3222.8	
739.12	5081	
739.3	4996.4	
739.48	4244.8	
739.66	4005.1	
739.84	5159.5	
740.02	5110.4	
740.2	3369.6	
740.38	3499.3	
740.56	5340.4	
740.74	4582.7	
740.92	3870	
741.1	3822.2	
741.28	5046.9	
741.46	4859.1	
741.64	3672.7	
741.82	3931.4	
742	5080.3	
742.18	4999.8	
742.36	3694.5	
742.54	3541.6	
742.72	5448.3	
742.9	4534.9	
743.08	3922.5	
743.26	3176.4	
743.44	5421.7	
743.62	5314.5	
743.8	4040.6	
743.98	3472.7	
744.16	5166.3	
744.34	4992.9	
744.52	3930.7	
744.7	3881.6	
744.88	5341.8	
745.06	4956.1	
745.24	3987.4	
745.42	4057.7	
745.6	5395	
745.78	5298.8	
745.96	3303.4	
746.14	3442	
746.32	5845.6	
746.5	5196.4	
746.68	3704.1	
746.86	3406.5	
747.03	5496.7	
747.21	4535.6	
747.39	3766.2	
747.57	3416.7	
747.75	5023.7	
747.93	5241.4	
748.11	3394.8	
748.29	3392.8	
748.47	6031.3	
748.65	4855.1	
748.83	3921.9	
749.01	3708.9	
749.19	5137.7	
749.37	4573.1	
749.55	3692.5	
749.73	3701.4	
749.91	5066.7	
750.09	4900.1	
750.26	3702.7	
750.44	3278.1	
750.62	4937.7	
750.8	4902.8	
750.98	3282.9	
751.16	3450.8	
751.34	5128.1	
751.52	4601.1	
751.7	3950.5	
751.88	3201	
752.06	5360.9	
752.24	5100.1	
752.42	3175.7	
752.59	3418.1	
752.77	4966.3	
752.95	5712.5	
753.13	3881.6	
753.31	3502.7	
753.49	4771.8	
753.67	4955.4	
753.85	3646.7	
754.03	3390.1	
754.21	5205.9	
754.38	5357.5	
754.56	3458.3	
754.74	2918.4	
754.92	4715.1	
755.1	4991.6	
755.28	2913.6	
755.46	2923.8	
755.64	5713.8	
755.82	5685.2	
755.99	3109.5	
756.17	3155.9	
756.35	4131.4	
756.53	5042.1	
756.71	2493.1	
756.89	3288.4	
757.07	4789.5	
757.25	4240	
757.42	3378.5	
757.6	3965.6	
757.78	4797	
757.96	4246.1	
758.14	3181.9	
758.32	2835.1	
758.5	3931.4	
758.67	4502.8	
758.85	3056.9	
759.03	3163.4	
759.21	4643.4	
759.39	4211.3	
759.57	2855.6	
759.75	3431	
759.92	5059.8	
760.1	4622.9	
760.28	3717.7	
760.46	3882.9	
760.64	4468.7	
760.82	4346.5	
760.99	3599.6	
761.17	3219.4	
761.35	4904.9	
761.53	4274.8	
761.71	3275.4	
761.89	3704.1	
762.06	4835.9	
762.24	4491.2	
762.42	3315	
762.6	3171.6	
762.78	4526.7	
762.96	4893.3	
763.13	3525.9	
763.31	3241.9	
763.49	5048.9	
763.67	4474.1	
763.85	3780.6	
764.02	4125.3	
764.2	5316.5	
764.38	4595	
764.56	3205.8	
764.74	3786.7	
764.91	5186.8	
765.09	4487.1	
765.27	3020.8	
765.45	2868.5	
765.63	5357.5	
765.8	5104.9	
765.98	2799.6	
766.16	2991.4	
766.34	4302.8	
766.52	4137.6	
766.69	3544.4	
766.87	2893.1	
767.05	4650.9	
767.23	5020.9	
767.41	3037.8	
767.58	3304.1	
767.76	4962.2	
767.94	4971.1	
768.12	3149.8	
768.29	3572.3	
768.47	4493.9	
768.65	5040.1	
768.83	2921.8	
769	3564.8	
769.18	4356.7	
769.36	4747.2	
769.54	3590.8	
769.72	2858.3	
769.89	5055.1	
770.07	4972.5	
770.25	3168.2	
770.43	3952.6	
770.6	5487.2	
770.78	5610.8	
770.96	3299.3	
771.14	3576.4	
771.31	4898.7	
771.49	4536.9	
771.67	2747.7	
771.85	2822.8	
772.02	4061.1	
772.2	4534.9	
772.38	3347.7	
772.55	3008.5	
772.73	4781.3	
772.91	4597.7	
773.09	3222.8	
773.26	3358.7	
773.44	4709.6	
773.62	4505.5	
773.8	3042.6	
773.97	2775	
774.15	4711.7	
774.33	4505.5	
774.5	2962	
774.68	3110.2	
774.86	4648.2	
775.04	4459.1	
775.21	3005.1	
775.39	2894.5	
775.57	4663.2	
775.74	4812	
775.92	2837.1	
776.1	2731.3	
776.27	4553.3	
776.45	5369.1	
776.63	2979.8	
776.81	2697.9	
776.98	4459.8	
777.16	5020.3	
777.34	2997.5	
777.51	3215.3	
777.69	4418.8	
777.87	4235.2	
778.04	3130	
778.22	3430.3	
778.4	4284.4	
778.57	4683.7	
778.75	2662.4	
778.93	2777.7	
779.1	4237.9	
779.28	3986.7	
779.46	2607.7	
779.64	2876	
779.81	4790.9	
779.99	5268.7	
780.17	3319.1	
780.34	3533.4	
780.52	4507.6	
780.69	4556	
780.87	3136.1	
781.05	2827.6	
781.22	4537.6	
781.4	4586.8	
781.58	2938.2	
781.75	2438.4	
781.93	4528.7	
782.11	4065.2	
782.28	3528	
782.46	2923.1	
782.64	4009.9	
782.81	4659.1	
782.99	3037.1	
783.17	2964.1	
783.34	4515.1	
783.52	4219.5	
783.69	3039.9	
783.87	3549.1	
784.05	4201.1	
784.22	4132.1	
784.4	3546.4	
784.58	3139.5	
784.75	4858.5	
784.93	4278.2	
785.1	2947	
785.28	3278.8	
785.46	4661.2	
785.63	4136.9	
785.81	2979.1	
785.99	2798.2	
786.16	4306.9	
786.34	4507.6	
786.51	2865.8	
786.69	3145	
786.87	4003.8	
787.04	4319.2	
787.22	2758.6	
787.39	3323.9	
787.57	4194.2	
787.75	4809.3	
787.92	3547.1	
788.1	3460.4	
788.27	4104.8	
788.45	3892.5	
788.63	3269.9	
788.8	2500.6	
788.98	4442.7	
789.15	3833.1	
789.33	2617.3	
789.5	2900.6	
789.68	4773.1	
789.86	4796.3	
790.03	3231	
790.21	2847.4	
790.38	4778.6	
790.56	4265.9	
790.73	2764.8	
790.91	2759.3	
791.09	4142.4	
791.26	4539.7	
791.44	3011.9	
791.61	2598.2	
791.79	4176.5	
791.96	4115.7	
792.14	2665.1	
792.32	2456.2	
792.49	4195.6	
792.67	4242	
792.84	2780.5	
793.02	2612.5	
793.19	4490.5	
793.37	4864.6	
793.54	2418.7	
793.72	2652.1	
793.89	4908.3	
794.07	4128	
794.25	3075.4	
794.42	2489	
794.6	4846.9	
794.77	4505.5	
794.95	3149.1	
795.12	2783.2	
795.3	4192.9	
795.47	4459.8	
795.65	3106.8	
795.82	2959.3	
796	3989.4	
796.17	5128.8	
796.35	2928.6	
796.52	3367.5	
796.7	4500.1	
796.87	4525.3	
797.05	2903.3	
797.22	3408.5	
797.4	4536.3	
797.57	5136.3	
797.75	3002.3	
797.92	2799.6	
798.1	4721.9	
798.27	3984.7	
798.45	2560	
798.62	2591.4	
798.8	4392.9	
798.97	4676.9	
799.15	3124.5	
799.32	2936.1	
799.5	3908.9	
799.67	4299.4	
799.85	3174.4	
800.02	2460.3	
800.2	4158.7	
800.37	4220.2	
800.55	3224.2	
800.72	2810.5	
800.9	4644.1	
801.07	4811.4	
801.25	3686.3	
801.42	3060.3	
801.6	4667.3	
801.77	4293.9	
801.95	2928.6	
802.12	2757.9	
802.29	4430.4	
802.47	4318.5	
802.64	3063.1	
802.82	2444.6	
802.99	4168.3	
803.17	4597	
803.34	2975.7	
803.52	2749.1	
803.69	5094	
803.87	3944.4	
804.04	2966.8	
804.21	2997.5	
804.39	4850.3	
804.56	4218.1	
804.74	2608.4	
804.91	3037.8	
805.09	4128	
805.26	4165.6	
805.44	2685.6	
805.61	2832.3	
805.78	4559.5	
805.96	4534.2	
806.13	3056.3	
806.31	3216	
806.48	3847.5	
806.66	4158.1	
806.83	3118.4	
807	2945	
807.18	4129.4	
807.35	4355.3	
807.53	2964.1	
807.7	2526.5	
807.87	4868	
808.05	4154	
808.22	3195.5	
808.4	2518.3	
808.57	4106.9	
808.74	3899.3	
808.92	2758.6	
809.09	3443.3	
809.27	4152.6	
809.44	4408.6	
809.61	2570.2	
809.79	2725.2	
809.96	5053	
810.14	4530.8	
810.31	2465.8	
810.48	3194.1	
810.66	4242	
810.83	4609.3	
811.01	2792.1	
811.18	3020.1	
811.35	4604.5	
811.53	3750.5	
811.7	3240.6	
811.87	3030.3	
812.05	4285	
812.22	4096.6	
812.39	2733.4	
812.57	2607.7	
812.74	4201.1	
812.92	5186.1	
813.09	2934.1	
813.26	3039.2	
813.44	5002.5	
813.61	4032.5	
813.78	2489.6	
813.96	3150.5	
814.13	4164.2	
814.3	4009.9	
814.48	3369.6	
814.65	2908.1	
814.82	4960.9	
815	3911.6	
815.17	2965.5	
815.34	3480.2	
815.52	4119.1	
815.69	4068.6	
815.87	2920.4	
816.04	2899.9	
816.21	4130.8	
816.38	3805.8	
816.56	2895.8	
816.73	2689	
816.9	5124	
817.08	4620.2	
817.25	2764.8	
817.42	3188	
817.6	3870.7	
817.77	4053.6	
817.94	3014.6	
818.12	2671.9	
818.29	4033.1	
818.46	5504.3	
818.64	2863.7	
818.81	2618	
818.98	3997.6	
819.16	5237.3	
819.33	3155.9	
819.5	2979.8	
819.67	4420.9	
819.85	4758.1	
820.02	2921.8	
820.19	3046.7	
820.37	4313	
820.54	4071.4	
820.71	2964.8	
820.88	3523.9	
821.06	4306.2	
821.23	3988.8	
821.4	3031	
821.58	3018.7	
821.75	4545.8	
821.92	4259.1	
822.09	2555.9	
822.27	2555.9	
822.44	4128.7	
822.61	4066.6	
822.79	2539.5	
822.96	4422.2	
823.13	4319.2	
823.3	3865.2	
823.48	2817.3	
823.65	2557.2	
823.82	4673.5	
823.99	3873.4	
824.17	3496.6	
824.34	2641.9	
824.51	5122	
824.68	4192.9	
824.86	2723.1	
825.03	2979.1	
825.2	4164.2	
825.37	4761.5	
825.55	2710.8	
825.72	2923.8	
825.89	5154.1	
826.06	4853	
826.24	2848	
826.41	2904.7	
826.58	4829.8	
826.75	4311	
826.92	2447.3	
827.1	2643.9	
827.27	6192.4	
827.44	5011.4	
827.61	2711.5	
827.79	3220.8	
827.96	4122.6	
828.13	4119.1	
828.3	2899.9	
828.47	2471.9	
828.65	4427.7	
828.82	4349.2	
828.99	3464.5	
829.16	3088.3	
829.34	4605.2	
829.51	4545.1	
829.68	2926.5	
829.85	2959.3	
830.02	4928.8	
830.2	4639.3	
830.37	2393.4	
830.54	3413.3	
830.71	5051.7	
830.88	4239.3	
831.05	2322.4	
831.23	2683.5	
831.4	5037.3	
831.57	5304.2	
831.74	2766.8	
831.91	2476.7	
832.09	4531.5	
832.26	4623.6	
832.43	2755.2	
832.6	3095.2	
832.77	4395.6	
832.94	4887.1	
833.12	2336	
833.29	2720.4	
833.46	4426.3	
833.63	5477.6	
833.8	3042.6	
833.97	2801.6	
834.15	4642.1	
834.32	4524	
834.49	2890.4	
834.66	2937.5	
834.83	4700.1	
835	4083	
835.17	2661	
835.35	2692.4	
835.52	4608.6	
835.69	4445.5	
835.86	2853.5	
836.03	2393.4	
836.2	4596.3	
836.37	4368.3	
836.55	2780.5	
836.72	2613.9	
836.89	4384.7	
837.06	4653	
837.23	2819.4	
837.4	3046	
837.57	5154.1	
837.75	5471.5	
837.92	2603.7	
838.09	2736.8	
838.26	4371	
838.43	4691.9	
838.6	2905.4	
838.77	2671.9	
838.94	5155.4	
839.11	5184.8	
839.29	2808.4	
839.46	2295.1	
839.63	4644.8	
839.8	4377.2	
839.97	2713.6	
840.14	2708.8	
840.31	4523.3	
840.48	4653	
840.65	2416.6	
840.82	2683.5	
841	4567.7	
841.17	4449.6	
841.34	2533.3	
841.51	2616.6	
841.68	4620.9	
841.85	4418.8	
842.02	2629.6	
842.19	2293	
842.36	4473.4	
842.53	4499.4	
842.7	2562	
842.87	2940.2	
843.05	5472.9	
843.22	4396.3	
843.39	2422.1	
843.56	2613.9	
843.73	4370.4	
843.9	4728.8	
844.07	3784.6	
844.24	3299.3	
844.41	5953.4	
844.58	4126.7	
844.75	2441.9	
844.92	2603	
845.09	4572.4	
845.26	4575.2	
845.43	2532	
845.6	2650.8	
845.77	4612	
845.94	4476.9	
846.12	2799.6	
846.29	2882.9	
846.46	4819.6	
846.63	4542.4	
846.8	2544.9	
846.97	2964.1	
847.14	4919.9	
847.31	4532.2	
847.48	2798.2	
847.65	3036.5	
847.82	4696.7	
847.99	4740.4	
848.16	3192.8	
848.33	3003	
848.5	4292.5	
848.67	4846.9	
848.84	2495.1	
849.01	2579.8	
849.18	4318.5	
849.35	4032.5	
849.52	3047.4	
849.69	2480.1	
849.86	4775.2	
850.03	4724.7	
850.2	2521	
850.37	2953.9	
850.54	4793.6	
850.71	4367.6	
850.88	2932.7	
851.05	2489.6	
851.22	4508.3	
851.39	4889.2	
851.56	2369.5	
851.73	2833.7	
851.9	4154.6	
852.07	4739.7	
852.24	2782.5	
852.41	2473.9	
852.58	4558.8	
852.75	4179.9	
852.92	2807.8	
853.09	2504.7	
853.26	4245.4	
853.43	4878.3	
853.6	2521	
853.77	2206.3	
853.94	4995	
854.11	4108.2	
854.28	3503.4	
854.44	2691	
854.61	5167	
854.78	4794.3	
854.95	2482.1	
855.12	2993.4	
855.29	3867.9	
855.46	5074.2	
855.63	2533.3	
855.8	3308.8	
855.97	4290.5	
856.14	4801.8	
856.31	3356.6	
856.48	2736.1	
856.65	4372.4	
856.82	4136.2	
856.99	2440.5	
857.16	2736.1	
857.33	5337.7	
857.49	4356.7	
857.66	2702.6	
857.83	2782.5	
858	4368.3	
858.17	4502.8	
858.34	2400.9	
858.51	2532.7	
858.68	4976.6	
858.85	4934.2	
859.02	2865.8	
859.19	2986.6	
859.36	4126	
859.52	4128	
859.69	2521	
859.86	2911.5	
860.03	4173.8	
860.2	4949.9	
860.37	2346.3	
860.54	2570.9	
860.71	4739	
860.88	4949.3	
861.05	2706.7	
861.21	3072	
861.38	4928.1	
861.55	3984	
861.72	2354.5	
861.89	2748.4	
862.06	4740.4	
862.23	5030.5	
862.4	2464.4	
862.56	2572.2	
862.73	4659.8	
862.9	4503.5	
863.07	2913.6	
863.24	2394.1	
863.41	4162.2	
863.58	4151.2	
863.75	2518.3	
863.91	2891.7	
864.08	4846.9	
864.25	4662.5	
864.42	3052.8	
864.59	3401.7	
864.76	5109	
864.93	4150.5	
865.09	2411.8	
865.26	2717	
865.43	4881	
865.6	5174.5	
865.77	2267.1	
865.94	2421.4	
866.1	4836.6	
866.27	4631.8	
866.44	3579.2	
866.61	2429.6	
866.78	4405.2	
866.95	4646.8	
867.11	2455.5	
867.28	2341.5	
867.45	4895.3	
867.62	4140.3	
867.79	2868.5	
867.96	2517	
868.12	4096.6	
868.29	4709.6	
868.46	2523.8	
868.63	3270.6	
868.8	4805.9	
868.97	4640.7	
869.13	2678.7	
869.3	2586.6	
869.47	4576.5	
869.64	4783.4	
869.81	2517	
869.97	2466.4	
870.14	4574.5	
870.31	4990.2	
870.48	2467.8	
870.65	3101.3	
870.81	4401.8	
870.98	4362.9	
871.15	2797.5	
871.32	2628.9	
871.48	4684.4	
871.65	5025	
871.82	2503.3	
871.99	2727.9	
872.16	5264	
872.32	4890.5	
872.49	2546.3	
872.66	2560	
872.83	4721.3	
872.99	4262.5	
873.16	2790.7	
873.33	2503.3	
873.5	4455.7	
873.67	4497.3	
873.83	2665.8	
874	3202.3	
874.17	4583.4	
874.34	5106.3	
874.5	3102	
874.67	2990.7	
874.84	4911.7	
875.01	3984	
875.17	3356.6	
875.34	2529.2	
875.51	4504.8	
875.68	5298.8	
875.84	2951.1	
876.01	3453.6	
876.18	4704.9	
876.34	4672.1	
876.51	2544.9	
876.68	2503.3	
876.85	4332.8	
877.01	4948.6	
877.18	3433.1	
877.35	2467.1	
877.52	4610	
877.68	4097.3	
877.85	2482.8	
878.02	2491	
878.18	4302.1	
878.35	4287.1	
878.52	2091	
878.69	2975.7	
878.85	4814.1	
879.02	4675.5	
879.19	3373.7	
879.35	2685.6	
879.52	4671.4	
879.69	4741.7	
879.86	2286.9	
880.02	2729.3	
880.19	4458.4	
880.36	5167.7	
880.52	2814.6	
880.69	2941.6	
880.86	4670.1	
881.02	4719.2	
881.19	2736.8	
881.36	2708.1	
881.52	4698	
881.69	4248.9	
881.86	2664.4	
882.02	2585.9	
882.19	4842.1	
882.36	5517.2	
882.52	2605.7	
882.69	3352.5	
882.86	4498.7	
883.02	4502.1	
883.19	2956.6	
883.36	2854.9	
883.52	4771.8	
883.69	5212.1	
883.86	2556.5	
884.02	2366.1	
884.19	4672.1	
884.36	4540.3	
884.52	2809.1	
884.69	2656.9	
884.86	4328	
885.02	5053	
885.19	2770.9	
885.36	2836.4	
885.52	4354.7	
885.69	4585.4	
885.86	3496.6	
886.02	3084.9	
886.19	4778.6	
886.35	4306.9	
886.52	2745	
886.69	3345.7	
886.85	4117.8	
887.02	4898.7	
887.19	4898.7	
887.35	4898.7	
887.52	4898.7	
887.68	4898.7	
887.85	4898.7	
888.02	4898.7	
888.18	4898.7	
888.35	4898.7	
888.51	4898.7	
888.68	4898.7	
888.85	4898.7	
889.01	4898.7	
889.18	4898.7	
889.35	4898.7	
889.51	4898.7	
889.68	4898.7	
889.84	4898.7	
890.01	4898.7	
890.17	4898.7	
890.34	4898.7	
890.51	4898.7	
890.67	4898.7	
890.84	4898.7	
891	4898.7	
891.17	4898.7	
891.34	4898.7	
891.5	4898.7	
891.67	4898.7	
891.83	4898.7	
892	4898.7	
892.16	4898.7	
892.33	4898.7	
892.5	4898.7	
892.66	4898.7	
892.83	4898.7	
892.99	4898.7	
893.16	4898.7	
893.32	4898.7	
893.49	4898.7	
893.65	4898.7	
893.82	4898.7	
893.99	4898.7	
894.15	4898.7	
894.32	4898.7	
894.48	4898.7	
894.65	4898.7	
894.81	4898.7	
894.98	4898.7	
895.14	4898.7	
895.31	4898.7	
895.47	4898.7	
895.64	4898.7	
895.81	4898.7	
895.97	4898.7	
896.14	4898.7	
896.3	4898.7	
896.47	4898.7	
896.63	4898.7	
896.8	4898.7	
896.96	4898.7	
897.13	4898.7	
897.29	4898.7	
897.46	4898.7	
897.62	4898.7	
897.79	4898.7	
897.95	4898.7	
898.12	4898.7	
898.28	4898.7	
898.45	4898.7	
898.61	4898.7	
898.78	4898.7	
898.94	4898.7	
899.11	4898.7	
899.27	4898.7	
899.44	4898.7	
899.6	4898.7	
899.77	4898.7	
899.93	4898.7	
900.1	4898.7	
900.26	4898.7	
900.43	4898.7	
900.59	4898.7	
900.76	4898.7	
900.92	4898.7	
901.09	4898.7	
901.25	4898.7	
901.42	4898.7	
901.58	4898.7	
901.75	4898.7	
901.91	4898.7	
902.07	4898.7	
902.24	4898.7	
902.4	4898.7	
902.57	4898.7	
902.73	4898.7	
902.9	4898.7	
903.06	4898.7	
903.23	4898.7	
903.39	4898.7	
903.56	4898.7	
903.72	4898.7	
903.88	4898.7	
904.05	4898.7	
904.21	4898.7	
904.38	4898.7	
904.54	4898.7	
904.71	4898.7	
904.87	4898.7	
905.03	4898.7	
905.2	4898.7	
905.36	4898.7	
905.53	4898.7	
905.69	4898.7	
905.86	4898.7	
906.02	4898.7	
906.18	4898.7	
906.35	4898.7	
906.51	4898.7	
906.68	4898.7	
906.84	4898.7	
907.01	4898.7	
907.17	4898.7	
907.33	4898.7	
907.5	4898.7	
907.66	4898.7	
907.83	4898.7	
907.99	4898.7	
908.15	4898.7	
908.32	4898.7	
908.48	4898.7	
908.65	4898.7	
908.81	4898.7	
908.97	4898.7	
909.14	4898.7	
909.3	4898.7	
909.47	4898.7	
909.63	4898.7	
909.79	4898.7	
909.96	4898.7	
910.12	4898.7	
910.28	4898.7	
910.45	4898.7	
910.61	4898.7	
910.78	4898.7	
910.94	4898.7	
911.1	4898.7	
911.27	4898.7	
911.43	4898.7	
911.59	4898.7	
911.76	4898.7	
911.92	4898.7	
912.08	4898.7	
912.25	4898.7	
912.41	4898.7	
912.57	4898.7	
912.74	4898.7	
912.9	4898.7	
913.07	4898.7	
913.23	4898.7	
913.39	4898.7	
913.56	4898.7	
913.72	4898.7	
913.88	4898.7	
914.05	4898.7	
914.21	4898.7	
914.37	4898.7	
914.54	4898.7	
914.7	4898.7	
914.86	4898.7	
915.03	4898.7	
915.19	4898.7	
