Wavelength	Intensities	
nm	a.u.	
179.22	1914.7	
179.44	1910.4	
179.65	1918.9	
179.86	1901.9	
180.08	1913.5	
180.29	4939	
180.51	3516.4	
180.72	5629.2	
180.94	6637.5	
181.15	3288.4	
181.37	3229.6	
181.58	5550.7	
181.79	5825.1	
182.01	3402.4	
182.22	3649.5	
182.44	5784.1	
182.65	4847.5	
182.87	4610	
183.08	4048.2	
183.29	6109.8	
183.51	5003.9	
183.72	3707.5	
183.94	5377.3	
184.15	5471.5	
184.37	5475.6	
184.58	3273.3	
184.79	4541.7	
185.01	5027.8	
185.22	5718.6	
185.44	4760.8	
185.65	3955.3	
185.86	5308.3	
186.08	4938.3	
186.29	3165.5	
186.51	3366.9	
186.72	5081.7	
186.94	5969.1	
187.15	3971	
187.36	4093.9	
187.58	7826	
187.79	5572.5	
188.01	4281.6	
188.22	6645	
188.43	6743.3	
188.65	5812.1	
188.86	3377.1	
189.08	4029	
189.29	5295.4	
189.5	5256.5	
189.72	3783.3	
189.93	3859.1	
190.15	5937.1	
190.36	7187	
190.57	4153.3	
190.79	4014	
191	6150.7	
191.22	6014.2	
191.43	4173.8	
191.64	3402.4	
191.86	6277.7	
192.07	5988.3	
192.29	3579.2	
192.5	3722.5	
192.71	6006	
192.93	5170.4	
193.14	3753.9	
193.35	3810.6	
193.57	5240.1	
193.78	5986.2	
194	3025.5	
194.21	3684.3	
194.42	4971.8	
194.64	5478.3	
194.85	4076.8	
195.07	4750.6	
195.28	5618.9	
195.49	4745.1	
195.71	5042.1	
195.92	3538.9	
196.13	5730.2	
196.35	5763.7	
196.56	5416.2	
196.78	4102.8	
196.99	7108.5	
197.2	6669.6	
197.42	4639.3	
197.63	4102.1	
197.84	4926.7	
198.06	5655.8	
198.27	3784	
198.48	5031.2	
198.7	5227.8	
198.91	5405.3	
199.13	4076.8	
199.34	4092.5	
199.55	5827.8	
199.77	4719.2	
199.98	3617.4	
200.19	4214.7	
200.41	5265.3	
200.62	5070.1	
200.83	4317.8	
201.05	4592.2	
201.26	5381.4	
201.47	5015.5	
201.69	3629.7	
201.9	3507.5	
202.11	5366.4	
202.33	6466.8	
202.54	3925.3	
202.76	4483.7	
202.97	5571.8	
203.18	5549.3	
203.4	4304.1	
203.61	4233.2	
203.82	5546.6	
204.04	5113.1	
204.25	4178.5	
204.46	4096.6	
204.68	5477.6	
204.89	5732.9	
205.1	3977.2	
205.32	3575.1	
205.53	5897.5	
205.74	6021.7	
205.96	2957.9	
206.17	4236.6	
206.38	5872.2	
206.6	6007.4	
206.81	4739	
207.02	3824.2	
207.24	5717.2	
207.45	6139.8	
207.66	3870.7	
207.88	3362.1	
208.09	5669.5	
208.3	5505.6	
208.52	3642.7	
208.73	4038.6	
208.94	5447.6	
209.15	6249	
209.37	3917.1	
209.58	4146.5	
209.79	6044.9	
210.01	5229.8	
210.22	3166.8	
210.43	3276.7	
210.65	5427.1	
210.86	5894.1	
211.07	3921.2	
211.29	3574.4	
211.5	5836.7	
211.71	5384.8	
211.93	3580.5	
212.14	3618.8	
212.35	5401.2	
212.56	5689.3	
212.78	4162.2	
212.99	3423.5	
213.2	6498.2	
213.42	5200.5	
213.63	3692.5	
213.84	4044.7	
214.06	4797	
214.27	4967.7	
214.48	3942.3	
214.69	4197	
214.91	6204	
215.12	6201.2	
215.33	4213.4	
215.55	4633.9	
215.76	6774.7	
215.97	5839.4	
216.18	4038.6	
216.4	4031.8	
216.61	5125.4	
216.82	6000.5	
217.04	3606.5	
217.25	3764.2	
217.46	6087.2	
217.67	5845.6	
217.89	3222.8	
218.1	3364.1	
218.31	5551.4	
218.53	5638.7	
218.74	3747.8	
218.95	3701.4	
219.16	5481	
219.38	6378.7	
219.59	3695.9	
219.8	4390.8	
220.01	7060.7	
220.23	5477.6	
220.44	4828.4	
220.65	3612.6	
220.87	5503.6	
221.08	6083.1	
221.29	3325.2	
221.5	4514.4	
221.72	7559.1	
221.93	5147.9	
222.14	4195.6	
222.35	4884.4	
222.57	5595.1	
222.78	5867.4	
222.99	3930.7	
223.2	4218.8	
223.42	5720.7	
223.63	5943.2	
223.84	2991.4	
224.05	3047.4	
224.27	7041.6	
224.48	6441.5	
224.69	5135.6	
224.9	4143.7	
225.12	5722.7	
225.33	5401.9	
225.54	3301.3	
225.75	3650.8	
225.97	5009.3	
226.18	5270.1	
226.39	3943	
226.6	3680.2	
226.82	5226.4	
227.03	5051.7	
227.24	4104.1	
227.45	3432.4	
227.67	5885.2	
227.88	6394.4	
228.09	4620.2	
228.3	4653	
228.52	5863.3	
228.73	5456.5	
228.94	3796.3	
229.15	3424.2	
229.36	5375.9	
229.58	5350.7	
229.79	3882.3	
230	4531.5	
230.21	6452.5	
230.43	5598.5	
230.64	4156.7	
230.85	4273.4	
231.06	5904.3	
231.28	5879.7	
231.49	3377.8	
231.7	4031.8	
231.91	5758.2	
232.12	5548.6	
232.34	3483.6	
232.55	4042	
232.76	6105	
232.97	5645.6	
233.18	3601	
233.4	4052.2	
233.61	5698.8	
233.82	5199.8	
234.03	3769.6	
234.25	3710.9	
234.46	7666.9	
234.67	5457.8	
234.88	4237.2	
235.09	3665.2	
235.31	5843.5	
235.52	5380	
235.73	4089.1	
235.94	3480.9	
236.15	5178.6	
236.37	6634.1	
236.58	3620.8	
236.79	4003.8	
237	5763.7	
237.21	4979.3	
237.43	4218.1	
237.64	3325.2	
237.85	9949.7	
238.06	5052.3	
238.27	4394.3	
238.48	3417.4	
238.7	5806	
238.91	5342.5	
239.12	3939.6	
239.33	3933.5	
239.54	5096	
239.76	5398.4	
239.97	3855	
240.18	3980.6	
240.39	6883.9	
240.6	5730.9	
240.82	4108.2	
241.03	3366.2	
241.24	5496.7	
241.45	6397.2	
241.66	3605.1	
241.87	4284.4	
242.09	6137.8	
242.3	6582.2	
242.51	4298	
242.72	4012.7	
242.93	5943.9	
243.14	5399.8	
243.36	4618.9	
243.57	4970.4	
243.78	6352.1	
243.99	5791	
244.2	4027.7	
244.41	3581.2	
244.63	4998.4	
244.84	5853.8	
245.05	4192.9	
245.26	4056.3	
245.47	5757.5	
245.68	6005.3	
245.9	5276.9	
246.11	4184	
246.32	5311.1	
246.53	5767.8	
246.74	6466.8	
246.95	3310.2	
247.16	4934.9	
247.38	5492	
247.59	3297.9	
247.8	4006.5	
248.01	5164.3	
248.22	5438	
248.43	3521.1	
248.64	3869.3	
248.86	4886.5	
249.07	5221	
249.28	3437.2	
249.49	4058.4	
249.7	6023.8	
249.91	6199.9	
250.12	3282.9	
250.34	3354.6	
250.55	5558.9	
250.76	5489.2	
250.97	4083.6	
251.18	4138.3	
251.39	6221.7	
251.6	5709.7	
251.81	4238.6	
252.03	4177.9	
252.24	5158.8	
252.45	6033.3	
252.66	3415.3	
252.87	4390.8	
253.08	5476.3	
253.29	7228.6	
253.5	3493.8	
253.72	4864.6	
253.93	5272.2	
254.14	6548.7	
254.35	3805.1	
254.56	3878.9	
254.77	5761.6	
254.98	5067.4	
255.19	3755.3	
255.41	4801.8	
255.62	5547.3	
255.83	6144.6	
256.04	4244.1	
256.25	4216.1	
256.46	6756.9	
256.67	5128.8	
256.88	4117.1	
257.09	4554	
257.31	5108.3	
257.52	5190.2	
257.73	5116.5	
257.94	3741	
258.15	5369.1	
258.36	5511.1	
258.57	4739.7	
258.78	2977.7	
258.99	5984.8	
259.2	5300.8	
259.41	3773	
259.63	3884.3	
259.84	6322.1	
260.05	6756.9	
260.26	4977.2	
260.47	3652.2	
260.68	6037.4	
260.89	5384.8	
261.1	4530.8	
261.31	3624.2	
261.52	6036.7	
261.73	6425.2	
261.95	4941.7	
262.16	4328	
262.37	6251.1	
262.58	6327.5	
262.79	4850.3	
263	3857	
263.21	5617.6	
263.42	5025.7	
263.63	3893.9	
263.84	3800.3	
264.05	6085.9	
264.26	6462	
264.47	4718.5	
264.69	4276.8	
264.9	6229.2	
265.11	5683.1	
265.32	3652.2	
265.53	3768.9	
265.74	5601.2	
265.95	4897.4	
266.16	4027	
266.37	4478.2	
266.58	5612.1	
266.79	5328.1	
267	3686.3	
267.21	3492.5	
267.42	5062.6	
267.63	5499.5	
267.84	3940.3	
268.06	3383.9	
268.27	5917.9	
268.48	6188.3	
268.69	3837.9	
268.9	4588.1	
269.11	6171.2	
269.32	4954	
269.53	3976.5	
269.74	3663.8	
269.95	5862	
270.16	4769	
270.37	3954.6	
270.58	4508.9	
270.79	5268.7	
271	6002.6	
271.21	4268	
271.42	3947.1	
271.63	5630.5	
271.84	5155.4	
272.05	3153.9	
272.26	3546.4	
272.47	5540.4	
272.68	5701.5	
272.89	3792.2	
273.11	4405.9	
273.32	5272.2	
273.53	6490.7	
273.74	4246.1	
273.95	4163.5	
274.16	6167.8	
274.37	5593	
274.58	4356.7	
274.79	3492.5	
275	5604.6	
275.21	6178.7	
275.42	5212.1	
275.63	4485.1	
275.84	5766.4	
276.05	7244.3	
276.26	4164.2	
276.47	3927.3	
276.68	5291.3	
276.89	6559.6	
277.1	4524.6	
277.31	3471.3	
277.52	5760.3	
277.73	5901.6	
277.94	3445.4	
278.15	3818.1	
278.36	5643.5	
278.57	5085.1	
278.78	3812.6	
278.99	4298.7	
279.2	5090.6	
279.41	5059.2	
279.62	4997	
279.83	3476.8	
280.04	6755.6	
280.25	4984.1	
280.46	4975.9	
280.67	3926.6	
280.88	5129.5	
281.09	6137.8	
281.3	4175.1	
281.51	5303.6	
281.72	5189.6	
281.93	6008.1	
282.14	3715.7	
282.35	4001	
282.56	5990.3	
282.77	5945.9	
282.98	3846.1	
283.19	4732.2	
283.4	7404.1	
283.61	5431.9	
283.82	3506.1	
284.03	4970.4	
284.24	5643.5	
284.45	6083.1	
284.66	4949.9	
284.87	4782	
285.08	6099.5	
285.29	6277	
285.5	3357.3	
285.71	3881.6	
285.92	6111.1	
286.12	6766.5	
286.33	4878.3	
286.54	3852.2	
286.75	5955.5	
286.96	5329.5	
287.17	3554.6	
287.38	4777.9	
287.59	5066	
287.8	5038.7	
288.01	3862.5	
288.22	4440.7	
288.43	6058.6	
288.64	5017.5	
288.85	4607.9	
289.06	4352.6	
289.27	5939.1	
289.48	6426.5	
289.69	4921.3	
289.9	4425.7	
290.11	6118	
290.32	5165	
290.53	4704.2	
290.74	4351.3	
290.94	5974.6	
291.15	6000.5	
291.36	3742.3	
291.57	4491.9	
291.78	5197.7	
291.99	4888.5	
292.2	3562.8	
292.41	4356.7	
292.62	6037.4	
292.83	5791.7	
293.04	5257.8	
293.25	3592.8	
293.46	5240.8	
293.67	6113.2	
293.88	3700.7	
294.09	3533.4	
294.29	4973.8	
294.5	5663.3	
294.71	3949.2	
294.92	3712.3	
295.13	5232.6	
295.34	6609.5	
295.55	3366.2	
295.76	3431.7	
295.97	5907	
296.18	6681.8	
296.39	3491.1	
296.6	3685	
296.81	5594.4	
297.01	5910.4	
297.22	3904.8	
297.43	3697.9	
297.64	5100.1	
297.85	5079	
298.06	3087	
298.27	3360.7	
298.48	5557.5	
298.69	5143.8	
298.9	4003.1	
299.11	3642	
299.31	4997	
299.52	4986.1	
299.73	4295.3	
299.94	4220.2	
300.15	5466.7	
300.36	5100.1	
300.57	4255.7	
300.78	4260.5	
300.99	5380.7	
301.2	5588.9	
301.4	3679.5	
301.61	3985.3	
301.82	5820.3	
302.03	5928.2	
302.24	4521.2	
302.45	3562.1	
302.66	5756.8	
302.87	6214.9	
303.08	3702	
303.29	5053	
303.49	5186.1	
303.7	5520	
303.91	3305.4	
304.12	4910.3	
304.33	4942.4	
304.54	5614.8	
304.75	3725.9	
304.96	3595.6	
305.16	5845.6	
305.37	6608.8	
305.58	3267.9	
305.79	3381.9	
306	5851.7	
306.21	4917.2	
306.42	3693.2	
306.63	5618.9	
306.83	5324.7	
307.04	6061.3	
307.25	4115.1	
307.46	4106.2	
307.67	4700.8	
307.88	5952.1	
308.09	3626.3	
308.29	3766.2	
308.5	5575.3	
308.71	6128.2	
308.92	3941	
309.13	3586.7	
309.34	5319.3	
309.55	5391.6	
309.75	4642.7	
309.96	4263.2	
310.17	5854.5	
310.38	5188.2	
310.59	4472.1	
310.8	3498.6	
311.01	5350	
311.21	5393	
311.42	3495.9	
311.63	3663.1	
311.84	5232.6	
312.05	5635.3	
312.26	4176.5	
312.46	4497.3	
312.67	5339.7	
312.88	5023.7	
313.09	3532.1	
313.3	3457	
313.51	6260	
313.71	6740.5	
313.92	3556	
314.13	3785.3	
314.34	5679	
314.55	5414.8	
314.76	4650.9	
314.96	4065.2	
315.17	5556.8	
315.38	6069.5	
315.59	3622.9	
315.8	3421.5	
316.01	6424.5	
316.21	6428.6	
316.42	3487	
316.63	3910.3	
316.84	5354.8	
317.05	6234.7	
317.26	4314.4	
317.46	3749.8	
317.67	5399.8	
317.88	5898.2	
318.09	4579.3	
318.3	3366.2	
318.5	5197.1	
318.71	5768.4	
318.92	5840.1	
319.13	4251.6	
319.34	6047	
319.54	6118.6	
319.75	3353.2	
319.96	3199.6	
320.17	5896.8	
320.38	6029.2	
320.58	3275.4	
320.79	3898	
321	6079.1	
321.21	6150.1	
321.42	3975.1	
321.62	3288.4	
321.83	5063.3	
322.04	5494	
322.25	3829	
322.46	3665.2	
322.66	5639.4	
322.87	5766.4	
323.08	4456.4	
323.29	3573.7	
323.5	6612.2	
323.7	5019.6	
323.91	4969.7	
324.12	4390.2	
324.33	5606.7	
324.53	5825.1	
324.74	4193.6	
324.95	4487.1	
325.16	4859.8	
325.37	5285.1	
325.57	3589.4	
325.78	3696.6	
325.99	5566.4	
326.2	4939	
326.4	5127.4	
326.61	3323.9	
326.82	5456.5	
327.03	5603.9	
327.24	5134.9	
327.44	4835.3	
327.65	5698.1	
327.86	4660.5	
328.07	4270	
328.27	3445.4	
328.48	6156.2	
328.69	5033.9	
328.9	5222.3	
329.1	3863.2	
329.31	5388.2	
329.52	6342.6	
329.73	3605.1	
329.93	4106.2	
330.14	5499.5	
330.35	5730.9	
330.56	5949.3	
330.76	4470	
330.97	5308.3	
331.18	5680.4	
331.39	4061.1	
331.59	3260.4	
331.8	6094.8	
332.01	6261.3	
332.22	3657.7	
332.42	4243.4	
332.63	5563	
332.84	5193.6	
333.05	4024.9	
333.25	3657.7	
333.46	5341.1	
333.67	5512.4	
333.88	3725.9	
334.08	4205.8	
334.29	7349.5	
334.5	6213.5	
334.7	3510.2	
334.91	5173.2	
335.12	5021.6	
335.33	5925.5	
335.53	3902.1	
335.74	5981.4	
335.95	5289.9	
336.16	5096.7	
336.36	4012.7	
336.57	4603.2	
336.78	4993.6	
336.98	6143.2	
337.19	4878.3	
337.4	3956.7	
337.61	6659.3	
337.81	4978.6	
338.02	3696.6	
338.23	4751.3	
338.43	6272.9	
338.64	5147.9	
338.85	3637.9	
339.05	4775.2	
339.26	6333	
339.47	4935.6	
339.68	3642	
339.88	5449	
340.09	5761.6	
340.3	6011.5	
340.5	4247.5	
340.71	3248.8	
340.92	4973.2	
341.13	6248.4	
341.33	3558.7	
341.54	4284.4	
341.75	5685.8	
341.95	5373.2	
342.16	4065.9	
342.37	4434.5	
342.57	5055.1	
342.78	5432.6	
342.99	4530.1	
343.19	3237.2	
343.4	5930.9	
343.61	5730.2	
343.81	3873.4	
344.02	3557.3	
344.23	5971.9	
344.43	6365.8	
344.64	4472.8	
344.85	4387.4	
345.06	5819.6	
345.26	6173.3	
345.47	4166.3	
345.68	4922	
345.88	4840	
346.09	5986.2	
346.3	4227.7	
346.5	3230.3	
346.71	5547.9	
346.92	5177.9	
347.12	3279.5	
347.33	4166.3	
347.54	6111.1	
347.74	6496.8	
347.95	4138.3	
348.16	3076.7	
348.36	5287.9	
348.57	4977.2	
348.78	4127.3	
348.98	4498	
349.19	5453.1	
349.39	4956.1	
349.6	3334.1	
349.81	3676.1	
350.01	5750.7	
350.22	5217.5	
350.43	3990.8	
350.63	4902.2	
350.84	5550.7	
351.05	5294	
351.25	3614.7	
351.46	3266.5	
351.67	6012.8	
351.87	5125.4	
352.08	3916.4	
352.29	4392.9	
352.49	5956.9	
352.7	6050.4	
352.9	3577.8	
353.11	4418.2	
353.32	6674.3	
353.52	5292	
353.73	3500.7	
353.94	4470	
354.14	5823.1	
354.35	5630.5	
354.55	3612.6	
354.76	4027.7	
354.97	5771.9	
355.17	5522	
355.38	3353.9	
355.59	4751.3	
355.79	5151.3	
356	5655.8	
356.2	3962.1	
356.41	3500.7	
356.62	4896	
356.82	5399.8	
357.03	4247.5	
357.24	3861.8	
357.44	5223	
357.65	5284.4	
357.85	5188.2	
358.06	3984.7	
358.27	4889.9	
358.47	5189.6	
358.68	3325.9	
358.88	4233.2	
359.09	5717.9	
359.3	6173.9	
359.5	4967	
359.71	4296	
359.91	6634.1	
360.12	5954.8	
360.33	4218.1	
360.53	4681	
360.74	5186.8	
360.94	5224.4	
361.15	4407.2	
361.36	3670.6	
361.56	6015.6	
361.77	5434.6	
361.97	4887.8	
362.18	3888.4	
362.38	6020.3	
362.59	5047.6	
362.8	3556	
363	3378.5	
363.21	4846.9	
363.41	5536.3	
363.62	4100.7	
363.83	5201.2	
364.03	5569.8	
364.24	6643.6	
364.44	5189.6	
364.65	5209.3	
364.85	5322	
365.06	4973.8	
365.27	3753.2	
365.47	3806.5	
365.68	6323.4	
365.88	5339.7	
366.09	4177.2	
366.29	3827.7	
366.5	5609.4	
366.71	6079.7	
366.91	5164.3	
367.12	4345.8	
367.32	6673.6	
367.53	5883.8	
367.73	4278.9	
367.94	5253.7	
368.14	5889.3	
368.35	6802.7	
368.56	4252.9	
368.76	3627.6	
368.97	5920	
369.17	7711.3	
369.38	3751.2	
369.58	4022.9	
369.79	4995	
369.99	6305	
370.2	5079.6	
370.4	4111	
370.61	5627.1	
370.82	6870.3	
371.02	4009.9	
371.23	3322.5	
371.43	4865.3	
371.64	6226.5	
371.84	4070	
372.05	5357.5	
372.25	7537.9	
372.46	5991	
372.66	4001.7	
372.87	3935.5	
373.07	6052.4	
373.28	7679.2	
373.48	5113.1	
373.69	4772.4	
373.9	5456.5	
374.1	5508.4	
374.31	5005.2	
374.51	4459.1	
374.72	6358.3	
374.92	5125.4	
375.13	5180	
375.33	4383.3	
375.54	5879	
375.74	5263.3	
375.95	4396.3	
376.15	5610.8	
376.36	5874.3	
376.56	5741.1	
376.77	4475.5	
376.97	4947.2	
377.18	6918	
377.38	6013.5	
377.59	5256.5	
377.79	3930.7	
378	5748	
378.2	6248.4	
378.41	4022.2	
378.61	3960.8	
378.82	6282.5	
379.02	5327.4	
379.23	4166.3	
379.43	5320.6	
379.64	6313.9	
379.84	5978	
380.05	3964.9	
380.25	3969.6	
380.46	6070.2	
380.66	5619.6	
380.87	5326.1	
381.07	5769.1	
381.28	6717.3	
381.48	6042.2	
381.69	4113	
381.89	4080.2	
382.1	4977.9	
382.3	6266.1	
382.51	5208.7	
382.71	6113.9	
382.91	6095.4	
383.12	6587.6	
383.32	4429.1	
383.53	4708.3	
383.73	5950	
383.94	5724.1	
384.14	4500.8	
384.35	3706.1	
384.55	5646.9	
384.76	6112.5	
384.96	4463.9	
385.17	4724.7	
385.37	6102.3	
385.58	5380	
385.78	4762.9	
385.98	3638.6	
386.19	5470.1	
386.39	5942.5	
386.6	4199	
386.8	4419.5	
387.01	6078.4	
387.21	6045.6	
387.42	4855.7	
387.62	5373.9	
387.83	5398.4	
388.03	6038.1	
388.23	4508.3	
388.44	5296.7	
388.64	5081	
388.85	5148.6	
389.05	4850.3	
389.26	5480.4	
389.46	7133.8	
389.67	6534.4	
389.87	4762.9	
390.07	4934.9	
390.28	5752.1	
390.48	5303.6	
390.69	4033.1	
390.89	4376.5	
391.1	5466.7	
391.3	6445.6	
391.5	5581.4	
391.71	6198.5	
391.91	6111.1	
392.12	7181.5	
392.32	5675.6	
392.53	4973.8	
392.73	5593	
392.93	5753.4	
393.14	4530.1	
393.34	5410.7	
393.55	6264.7	
393.75	5757.5	
393.95	4499.4	
394.16	4417.5	
394.36	5466.7	
394.57	6221.7	
394.77	3974.4	
394.98	4391.5	
395.18	5496.7	
395.38	5519.3	
395.59	5345.2	
395.79	4237.9	
396	5570.5	
396.2	6102.9	
396.4	5024.3	
396.61	4978.6	
396.81	6214.9	
397.02	5463.3	
397.22	5354.1	
397.42	5466.7	
397.63	6234	
397.83	5472.9	
398.04	4219.5	
398.24	4782.7	
398.44	6048.3	
398.65	5055.8	
398.85	4073.4	
399.05	4209.3	
399.26	5441.5	
399.46	7224.6	
399.67	4601.1	
399.87	4287.1	
400.07	5782.1	
400.28	6165.1	
400.48	4437.3	
400.69	5440.8	
400.89	6440.2	
401.09	6865.5	
401.3	4241.3	
401.5	5390.9	
401.7	7131.7	
401.91	7430.7	
402.11	4615.4	
402.32	4920.6	
402.52	6459.3	
402.72	6380.1	
402.93	5160.9	
403.13	3935.5	
403.33	7171.3	
403.54	5959.6	
403.74	4769.7	
403.94	5681.1	
404.15	5923.4	
404.35	7220.5	
404.56	4591.5	
404.76	6464.1	
404.96	6493.4	
405.17	6197.2	
405.37	5819.6	
405.57	5057.1	
405.78	6417.7	
405.98	5882.4	
406.18	5323.4	
406.39	5575.9	
406.59	6455.9	
406.79	6101.6	
407	4405.9	
407.2	4465.3	
407.4	6477	
407.61	6647.7	
407.81	4428.4	
408.01	6604	
408.22	5472.2	
408.42	7436.9	
408.62	5628.5	
408.83	5014.8	
409.03	6010.8	
409.23	5860.6	
409.44	5122.7	
409.64	5507.7	
409.84	6997.2	
410.05	6873.7	
410.25	5260.5	
410.45	5113.1	
410.66	6379.4	
410.86	8947.6	
411.06	5552	
411.27	5330.9	
411.47	8718.9	
411.67	6588.3	
411.88	5623.7	
412.08	5836	
412.28	7287.4	
412.49	7826.7	
412.69	5427.1	
412.89	5437.4	
413.09	7546.8	
413.3	7445.7	
413.5	5576.6	
413.7	5118.6	
413.91	6698.9	
414.11	7640.3	
414.31	5344.5	
414.52	5844.9	
414.72	7401.4	
414.92	7232.1	
415.12	5416.2	
415.33	5929.6	
415.53	7556.3	
415.73	7757	
415.94	6322.1	
416.14	5659.9	
416.34	6646.3	
416.55	6361.7	
416.75	6954.2	
416.95	6389	
417.15	7634.8	
417.36	8393.9	
417.56	7124.9	
417.76	6242.9	
417.97	8068.3	
418.17	7755	
418.37	5745.2	
418.57	5882.4	
418.78	7430	
418.98	7195.2	
419.18	6830	
419.38	6748.7	
419.59	7236.8	
419.79	6701	
419.99	5781.4	
420.2	6154.1	
420.4	7746.1	
420.6	7847.8	
420.8	5697.4	
421.01	5481	
421.21	7568.6	
421.41	7740.6	
421.61	6154.8	
421.82	5800.5	
422.02	7008.1	
422.22	8090.2	
422.42	6688.7	
422.63	6241.5	
422.83	7210.2	
423.03	8390.5	
423.23	6280.4	
423.44	5186.1	
423.64	7324.2	
423.84	7071	
424.04	5767.8	
424.25	5405.3	
424.45	8295	
424.65	8261.5	
424.85	5200.5	
425.06	5816.9	
425.26	8205.5	
425.46	6709.8	
425.66	6285.2	
425.87	5885.9	
426.07	8054	
426.27	7862.8	
426.47	6037.4	
426.67	5434.6	
426.88	8355.7	
427.08	7735.9	
427.28	6364.4	
427.48	5405.3	
427.69	6622.4	
427.89	7273.7	
428.09	6365.8	
428.29	5451.7	
428.5	8033.5	
428.7	7482.6	
428.9	5432.6	
429.1	5856.5	
429.3	7419.8	
429.51	7855.3	
429.71	5709.1	
429.91	6558.3	
430.11	7746.1	
430.31	8051.9	
430.52	6047.7	
430.72	6396.5	
430.92	8417.2	
431.12	7919.5	
431.32	5745.2	
431.53	6127.5	
431.73	6750.1	
431.93	8516.1	
432.13	5673.6	
432.33	5490.6	
432.54	7182.2	
432.74	7613	
432.94	5461.9	
433.14	6518	
433.34	7753.6	
433.55	7306.5	
433.75	6553.5	
433.95	8380.3	
434.15	7608.9	
434.35	7352.9	
434.56	5675.6	
434.76	5255.1	
434.96	7613	
435.16	7865.6	
435.36	5600.5	
435.56	6819.7	
435.77	7283.3	
435.97	7530.4	
436.17	7586.4	
436.37	6821.1	
436.57	7329	
436.78	7290.8	
436.98	7948.8	
437.18	7334.5	
437.38	8086.1	
437.58	7517.4	
437.78	7572.7	
437.99	6094.8	
438.19	8103.8	
438.39	9655.5	
438.59	6115.9	
438.79	5548.6	
438.99	8742.1	
439.2	7516	
439.4	5575.9	
439.6	5612.1	
439.8	7843	
440	9023.4	
440.2	6656.6	
440.4	6872.3	
440.61	8226.7	
440.81	8895	
441.01	5926.1	
441.21	6941.9	
441.41	8781.7	
441.61	8270.4	
441.81	7184.3	
442.02	8345.5	
442.22	9292.3	
442.42	8500.4	
442.62	6050.4	
442.82	6135.7	
443.02	8770.8	
443.22	7903.1	
443.43	6619	
443.63	6083.1	
443.83	7747.5	
444.03	7690.8	
444.23	7452.6	
444.43	6994.5	
444.63	8067.6	
444.83	9328.5	
445.04	6292	
445.24	7679.9	
445.44	8589.9	
445.64	8604.9	
445.84	7088	
446.04	7154.2	
446.24	7832.1	
446.44	8939.4	
446.65	6281.1	
446.85	6750.1	
447.05	8238.3	
447.25	8828.8	
447.45	6769.9	
447.65	6103.6	
447.85	8226	
448.05	7742	
448.25	7289.4	
448.46	6969.2	
448.66	8228.7	
448.86	7900.4	
449.06	6016.2	
449.26	7180.9	
449.46	8616.5	
449.66	7595.9	
449.86	6731	
450.06	6799.3	
450.26	7871.7	
450.47	8461.5	
450.67	6978.1	
450.87	7329	
451.07	8546.2	
451.27	8433.5	
451.47	6329.6	
451.67	6903.7	
451.87	8019.2	
452.07	9160.6	
452.27	6619.7	
452.47	6636.1	
452.67	8342.1	
452.88	8865	
453.08	5884.5	
453.28	8149.6	
453.48	9597.5	
453.68	8307.9	
453.88	6573.3	
454.08	6883.2	
454.28	8801.5	
454.48	8365.3	
454.68	7324.9	
454.88	7949.5	
455.08	8761.2	
455.28	8662.2	
455.48	6421.1	
455.68	7064.1	
455.89	9529.9	
456.09	9054.8	
456.29	6789	
456.49	7012.2	
456.69	9323.7	
456.89	8535.9	
457.09	7423.9	
457.29	7908.6	
457.49	8841.8	
457.69	9043.1	
457.89	7415.7	
458.09	6768.5	
458.29	8742.8	
458.49	9509.4	
458.69	7871	
458.89	7257.3	
459.09	9796.1	
459.29	9920.4	
459.49	7373.4	
459.69	8283.4	
459.9	9411.1	
460.1	8928.5	
460.3	7303.7	
460.5	7129.7	
460.7	9306.7	
460.9	9041.1	
461.1	6666.1	
461.3	8148.2	
461.5	10105	
461.7	9661	
461.9	7331	
462.1	7709.2	
462.3	9216.5	
462.5	9819.3	
462.7	7372.7	
462.9	7524.9	
463.1	10894	
463.3	10636	
463.5	7713.3	
463.7	8746.2	
463.9	9477.3	
464.1	10058	
464.3	8083.3	
464.5	8203.5	
464.7	10321	
464.9	10015	
465.1	9666.4	
465.3	8713.4	
465.5	10651	
465.7	10573	
465.9	8999.5	
466.1	8809.7	
466.3	10568	
466.5	10243	
466.7	9759.9	
466.9	8494.3	
467.1	10254	
467.3	11243	
467.5	9762.7	
467.7	8622.6	
467.9	11482	
468.1	12439	
468.3	9432.3	
468.5	9883.5	
468.7	10373	
468.9	10380	
469.1	8873.8	
469.3	9701.9	
469.5	12544	
469.7	10036	
469.9	9420	
470.1	8875.9	
470.3	10434	
470.5	10592	
470.7	10182	
470.9	8817.9	
471.1	10370	
471.3	10656	
471.5	8753.7	
471.69	10682	
471.89	10152	
472.09	9723.1	
472.29	9605	
472.49	9928.6	
472.69	9901.9	
472.89	10742	
473.09	8641.7	
473.29	8690.2	
473.49	10039	
473.69	10221	
473.89	9740.8	
474.09	8964.6	
474.29	11458	
474.49	11148	
474.69	9805	
474.89	9020.6	
475.09	10251	
475.29	10302	
475.49	8370	
475.69	8735.3	
475.88	11964	
476.08	10593	
476.28	8392.6	
476.48	8854.1	
476.68	11041	
476.88	10854	
477.08	8671.1	
477.28	9066.4	
477.48	10253	
477.68	11026	
477.88	8559.8	
478.08	8786.5	
478.28	11349	
478.48	10448	
478.67	9045.9	
478.87	8326.4	
479.07	11314	
479.27	10706	
479.47	9220	
479.67	9247.9	
479.87	11083	
480.07	11676	
480.27	8413.1	
480.47	10081	
480.67	10672	
480.87	11396	
481.06	8825.4	
481.26	9627.5	
481.46	10729	
481.66	10656	
481.86	9315.5	
482.06	10386	
482.26	10482	
482.46	11544	
482.66	9282.8	
482.86	8789.9	
483.05	10845	
483.25	10217	
483.45	11734	
483.65	9226.8	
483.85	10581	
484.05	10831	
484.25	9826.2	
484.45	10368	
484.65	11659	
484.84	11901	
485.04	9269.1	
485.24	9389.3	
485.44	11981	
485.64	10315	
485.84	8677.9	
486.04	10167	
486.24	10742	
486.44	11172	
486.63	8744.8	
486.83	9544.2	
487.03	10659	
487.23	11024	
487.43	8918.2	
487.63	11439	
487.83	10970	
488.02	12073	
488.22	10031	
488.42	10807	
488.62	12011	
488.82	10975	
489.02	9625.5	
489.22	9792	
489.41	11858	
489.61	11574	
489.81	9389.3	
490.01	9391.3	
490.21	11878	
490.41	12585	
490.61	9497.1	
490.8	9666.4	
491	11579	
491.2	10720	
491.4	10316	
491.6	9426.1	
491.8	11447	
491.99	11524	
492.19	9181	
492.39	9440.5	
492.59	11939	
492.79	11848	
492.99	10357	
493.18	9450	
493.38	11979	
493.58	12936	
493.78	10339	
493.98	9934	
494.18	11869	
494.37	11466	
494.57	10803	
494.77	10682	
494.97	12365	
495.17	12745	
495.37	10183	
495.56	10598	
495.76	12957	
495.96	12617	
496.16	11818	
496.36	10753	
496.55	12786	
496.75	12473	
496.95	11110	
497.15	10964	
497.35	12921	
497.54	12998	
497.74	10780	
497.94	12505	
498.14	13637	
498.34	13421	
498.53	10505	
498.73	11358	
498.93	12400	
499.13	12960	
499.33	11238	
499.52	11861	
499.72	13070	
499.92	13411	
500.12	10935	
500.32	11259	
500.51	13357	
500.71	13347	
500.91	12207	
501.11	11882	
501.31	13506	
501.5	13855	
501.7	12479	
501.9	11571	
502.1	13149	
502.29	13558	
502.49	12132	
502.69	12435	
502.89	13359	
503.09	13599	
503.28	10964	
503.48	11043	
503.68	12397	
503.88	12737	
504.07	12020	
504.27	11329	
504.47	12976	
504.67	13076	
504.86	12010	
505.06	11664	
505.26	12695	
505.46	14552	
505.65	11613	
505.85	11705	
506.05	12519	
506.25	13087	
506.44	10712	
506.64	11636	
506.84	12480	
507.04	13398	
507.23	10887	
507.43	11430	
507.63	14632	
507.83	12651	
508.02	11551	
508.22	11148	
508.42	14752	
508.62	12478	
508.81	11633	
509.01	12125	
509.21	12316	
509.4	12549	
509.6	11544	
509.8	11067	
510	12584	
510.19	14228	
510.39	10937	
510.59	11087	
510.79	12474	
510.98	13977	
511.18	11364	
511.38	11451	
511.57	13354	
511.77	13300	
511.97	12119	
512.17	10947	
512.36	13385	
512.56	13261	
512.76	11109	
512.95	10846	
513.15	13395	
513.35	12042	
513.55	11940	
513.74	10992	
513.94	13453	
514.14	12740	
514.33	12198	
514.53	11933	
514.73	12649	
514.92	13155	
515.12	11300	
515.32	11172	
515.51	13074	
515.71	13702	
515.91	13104	
516.11	11313	
516.3	14975	
516.5	12830	
516.7	11906	
516.89	12519	
517.09	12960	
517.29	12957	
517.48	12280	
517.68	11621	
517.88	12737	
518.07	13199	
518.27	12269	
518.47	11166	
518.66	13989	
518.86	12560	
519.06	10988	
519.25	11514	
519.45	12856	
519.65	14585	
519.84	12095	
520.04	12936	
520.24	14892	
520.43	13724	
520.63	11984	
520.83	11736	
521.02	12871	
521.22	13596	
521.42	12187	
521.61	12782	
521.81	13013	
522.01	13206	
522.2	11998	
522.4	11729	
522.6	13648	
522.79	12534	
522.99	11871	
523.18	11316	
523.38	13566	
523.58	13545	
523.77	13472	
523.97	11368	
524.17	15692	
524.36	14819	
524.56	13108	
524.76	12644	
524.95	13944	
525.15	13734	
525.34	12582	
525.54	12731	
525.74	14573	
525.93	13583	
526.13	13998	
526.33	12856	
526.52	15048	
526.72	14571	
526.91	14244	
527.11	13620	
527.31	15155	
527.5	15644	
527.7	13467	
527.89	12342	
528.09	14070	
528.29	14851	
528.48	13867	
528.68	13364	
528.87	15104	
529.07	15210	
529.27	13426	
529.46	13129	
529.66	14939	
529.85	15535	
530.05	13037	
530.25	13738	
530.44	16541	
530.64	14967	
530.83	13421	
531.03	13673	
531.23	15222	
531.42	15169	
531.62	14233	
531.81	13438	
532.01	15557	
532.21	16130	
532.4	13457	
532.6	13930	
532.79	16934	
532.99	16155	
533.18	14164	
533.38	15330	
533.58	15634	
533.77	16526	
533.97	14314	
534.16	15104	
534.36	16693	
534.55	15772	
534.75	15264	
534.95	14463	
535.14	16840	
535.34	15920	
535.53	14194	
535.73	16451	
535.92	17399	
536.12	16067	
536.31	14301	
536.51	15497	
536.71	16240	
536.9	15803	
537.1	14306	
537.29	14521	
537.49	16778	
537.68	15775	
537.88	15075	
538.07	14151	
538.27	16169	
538.46	17225	
538.66	14119	
538.86	14530	
539.05	16184	
539.25	16644	
539.44	15182	
539.64	14576	
539.83	16124	
540.03	17195	
540.22	14513	
540.42	14512	
540.61	16296	
540.81	16520	
541	14911	
541.2	15673	
541.39	15741	
541.59	16287	
541.78	15427	
541.98	14388	
542.18	15422	
542.37	15482	
542.57	14629	
542.76	15431	
542.96	15559	
543.15	16389	
543.35	14745	
543.54	14061	
543.74	16441	
543.93	16090	
544.13	14495	
544.32	15596	
544.52	16178	
544.71	15240	
544.91	13504	
545.1	14721	
545.3	15481	
545.49	16242	
545.69	13443	
545.88	14252	
546.08	17157	
546.27	16737	
546.47	14631	
546.66	13861	
546.86	16346	
547.05	16909	
547.24	13976	
547.44	14056	
547.63	15268	
547.83	16500	
548.02	14581	
548.22	14754	
548.41	15093	
548.61	16457	
548.8	13899	
549	14033	
549.19	15715	
549.39	16135	
549.58	13538	
549.78	14100	
549.97	16268	
550.17	15608	
550.36	14979	
550.55	16208	
550.75	15449	
550.94	16477	
551.14	13753	
551.33	14069	
551.53	14790	
551.72	15878	
551.92	14138	
552.11	13864	
552.31	15902	
552.5	15771	
552.69	15742	
552.89	13571	
553.08	15822	
553.28	15618	
553.47	13966	
553.67	15199	
553.86	16578	
554.06	14668	
554.25	13061	
554.44	13703	
554.64	17189	
554.83	16821	
555.03	13625	
555.22	13968	
555.42	15947	
555.61	15720	
555.8	13742	
556	14132	
556.19	14739	
556.39	16154	
556.58	13942	
556.78	13928	
556.97	15600	
557.16	15401	
557.36	15090	
557.55	13470	
557.75	14485	
557.94	16533	
558.13	13610	
558.33	13423	
558.52	16288	
558.72	14999	
558.91	13485	
559.1	13731	
559.3	14716	
559.49	14391	
559.69	13060	
559.88	14090	
560.07	15535	
560.27	15906	
560.46	14277	
560.66	14321	
560.85	15365	
561.04	14478	
561.24	13562	
561.43	13724	
561.63	14824	
561.82	15039	
562.01	14889	
562.21	14035	
562.4	15537	
562.59	16541	
562.79	13841	
562.98	13541	
563.18	15520	
563.37	17114	
563.56	14384	
563.76	13633	
563.95	15126	
564.14	15030	
564.34	13974	
564.53	13729	
564.73	15635	
564.92	16004	
565.11	14149	
565.31	13577	
565.5	16412	
565.69	15346	
565.89	13908	
566.08	14195	
566.27	16321	
566.47	16886	
566.66	14807	
566.85	13558	
567.05	15945	
567.24	15218	
567.44	13945	
567.63	15336	
567.82	16227	
568.02	15859	
568.21	13962	
568.4	14401	
568.6	15797	
568.79	15846	
568.98	13706	
569.18	14060	
569.37	15974	
569.56	18069	
569.76	14530	
569.95	15558	
570.14	16495	
570.34	16492	
570.53	14106	
570.72	14113	
570.91	17047	
571.11	16071	
571.3	14539	
571.49	15543	
571.69	16197	
571.88	15627	
572.07	15359	
572.27	15173	
572.46	15768	
572.65	16903	
572.85	14524	
573.04	15045	
573.23	17057	
573.43	16210	
573.62	14302	
573.81	15053	
574	16455	
574.2	16352	
574.39	14934	
574.58	15079	
574.78	17598	
574.97	16825	
575.16	15582	
575.36	15873	
575.55	17394	
575.74	17475	
575.93	14698	
576.13	16152	
576.32	16764	
576.51	17363	
576.71	15319	
576.9	16559	
577.09	17789	
577.28	17176	
577.48	15829	
577.67	14773	
577.86	16910	
578.05	17135	
578.25	15496	
578.44	15507	
578.63	16990	
578.83	18376	
579.02	14822	
579.21	16656	
579.4	17286	
579.6	16961	
579.79	15681	
579.98	18115	
580.17	17804	
580.37	17904	
580.56	15137	
580.75	16053	
580.94	18226	
581.14	18088	
581.33	16647	
581.52	15305	
581.71	17686	
581.91	18328	
582.1	15068	
582.29	15724	
582.48	17278	
582.68	17271	
582.87	16292	
583.06	15910	
583.25	17562	
583.45	17477	
583.64	16738	
583.83	17391	
584.02	17146	
584.21	17712	
584.41	16592	
584.6	16057	
584.79	17574	
584.98	18296	
585.18	15516	
585.37	15382	
585.56	16978	
585.75	17968	
585.94	15656	
586.14	16500	
586.33	18354	
586.52	17492	
586.71	16202	
586.91	15862	
587.1	16723	
587.29	17808	
587.48	15589	
587.67	15394	
587.87	17457	
588.06	17516	
588.25	16701	
588.44	15969	
588.63	17114	
588.83	17799	
589.02	15436	
589.21	15317	
589.4	16787	
589.59	16688	
589.78	14347	
589.98	14552	
590.17	16061	
590.36	16615	
590.55	13608	
590.74	14252	
590.94	17407	
591.13	15848	
591.32	13846	
591.51	13325	
591.7	16332	
591.89	15762	
592.09	13706	
592.28	14274	
592.47	15246	
592.66	17230	
592.85	13846	
593.05	14254	
593.24	15907	
593.43	16743	
593.62	14216	
593.81	14648	
594	15976	
594.19	16169	
594.39	14009	
594.58	13981	
594.77	16235	
594.96	16963	
595.15	14186	
595.34	14822	
595.54	16305	
595.73	15289	
595.92	13177	
596.11	14409	
596.3	16663	
596.49	15291	
596.68	14027	
596.88	14586	
597.07	16218	
597.26	15125	
597.45	13490	
597.64	15020	
597.83	15412	
598.02	16300	
598.22	13688	
598.41	14496	
598.6	15969	
598.79	15215	
598.98	13764	
599.17	14803	
599.36	15850	
599.55	17017	
599.74	15874	
599.94	15621	
600.13	16296	
600.32	15008	
600.51	13431	
600.7	13637	
600.89	17067	
601.08	17096	
601.27	13328	
601.47	14521	
601.66	16253	
601.85	16945	
602.04	14148	
602.23	14311	
602.42	15345	
602.61	15892	
602.8	13946	
602.99	13633	
603.18	15533	
603.37	15935	
603.57	14393	
603.76	14783	
603.95	16572	
604.14	16006	
604.33	13771	
604.52	14203	
604.71	15879	
604.9	15502	
605.09	14758	
605.28	14681	
605.47	16574	
605.66	16263	
605.86	14500	
606.05	13887	
606.24	16423	
606.43	15114	
606.62	14164	
606.81	14994	
607	16201	
607.19	15706	
607.38	13467	
607.57	13863	
607.76	15487	
607.95	14753	
608.14	14168	
608.33	14779	
608.52	15319	
608.72	16464	
608.91	13482	
609.1	13364	
609.29	15412	
609.48	14786	
609.67	14269	
609.86	13280	
610.05	14982	
610.24	15240	
610.43	13235	
610.62	12893	
610.81	16417	
611	16251	
611.19	13384	
611.38	14113	
611.57	15595	
611.76	17002	
611.95	13105	
612.14	12923	
612.33	15399	
612.52	14983	
612.71	13717	
612.9	12838	
613.09	14534	
613.28	17103	
613.47	13387	
613.66	14303	
613.85	15601	
614.04	14941	
614.24	13508	
614.43	12708	
614.62	15653	
614.81	15436	
615	13977	
615.19	14235	
615.38	14884	
615.57	15398	
615.76	13999	
615.95	14934	
616.14	15828	
616.33	15476	
616.52	14490	
616.71	14709	
616.9	15777	
617.09	15731	
617.28	13584	
617.47	15200	
617.66	14678	
617.85	14846	
618.04	14827	
618.22	14233	
618.41	15423	
618.6	16494	
618.79	14263	
618.98	14029	
619.17	16881	
619.36	14968	
619.55	14240	
619.74	14131	
619.93	16144	
620.12	15573	
620.31	14878	
620.5	15208	
620.69	16915	
620.88	17271	
621.07	15916	
621.26	14965	
621.45	16564	
621.64	16526	
621.83	15249	
622.02	14345	
622.21	16553	
622.4	16376	
622.59	15811	
622.78	15489	
622.97	15958	
623.16	17262	
623.35	15210	
623.54	14397	
623.72	16313	
623.91	16546	
624.1	15507	
624.29	14197	
624.48	17661	
624.67	16806	
624.86	15475	
625.05	14589	
625.24	17832	
625.43	16208	
625.62	17143	
625.81	14804	
626	17103	
626.19	16436	
626.38	15659	
626.56	14905	
626.75	16355	
626.94	17175	
627.13	15640	
627.32	14369	
627.51	17049	
627.7	18574	
627.89	14403	
628.08	15514	
628.27	16141	
628.46	16451	
628.65	14645	
628.83	14309	
629.02	16745	
629.21	16219	
629.4	15318	
629.59	15338	
629.78	16152	
629.97	17172	
630.16	15454	
630.35	14919	
630.54	17598	
630.72	17282	
630.91	14811	
631.1	15418	
631.29	16777	
631.48	16835	
631.67	15442	
631.86	14929	
632.05	16358	
632.24	16316	
632.42	14386	
632.61	15141	
632.8	16399	
632.99	15963	
633.18	15162	
633.37	15615	
633.56	16720	
633.75	16531	
633.93	15214	
634.12	14838	
634.31	17464	
634.5	17312	
634.69	14903	
634.88	15288	
635.07	16506	
635.25	17162	
635.44	15682	
635.63	16031	
635.82	16270	
636.01	15621	
636.2	15571	
636.39	15275	
636.57	17412	
636.76	16942	
636.95	14528	
637.14	16019	
637.33	16789	
637.52	17742	
637.7	14332	
637.89	15296	
638.08	16299	
638.27	17776	
638.46	15574	
638.65	15922	
638.83	17598	
639.02	16071	
639.21	15261	
639.4	15865	
639.59	16472	
639.78	16020	
639.96	14382	
640.15	14399	
640.34	16142	
640.53	16402	
640.72	13953	
640.91	14219	
641.09	15498	
641.28	16834	
641.47	14264	
641.66	15241	
641.85	16280	
642.03	16374	
642.22	14925	
642.41	14304	
642.6	15607	
642.79	15042	
642.97	14098	
643.16	14878	
643.35	15601	
643.54	15384	
643.73	14031	
643.91	14767	
644.1	14985	
644.29	15902	
644.48	13997	
644.67	14042	
644.85	15150	
645.04	15522	
645.23	13374	
645.42	13713	
645.6	14891	
645.79	15907	
645.98	13467	
646.17	12248	
646.36	14166	
646.54	14942	
646.73	13998	
646.92	12910	
647.11	14416	
647.29	15520	
647.48	12939	
647.67	12556	
647.86	15737	
648.05	15851	
648.23	13292	
648.42	14603	
648.61	15044	
648.8	14857	
648.98	12772	
649.17	13036	
649.36	14251	
649.55	13788	
649.73	12779	
649.92	13635	
650.11	14369	
650.3	14664	
650.48	12950	
650.67	12761	
650.86	14938	
651.05	13776	
651.23	12781	
651.42	12818	
651.61	14163	
651.79	14299	
651.98	13013	
652.17	12639	
652.36	14587	
652.54	13718	
652.73	12526	
652.92	12446	
653.11	14724	
653.29	14647	
653.48	11871	
653.67	12921	
653.85	14349	
654.04	15433	
654.23	13076	
654.42	12501	
654.6	13614	
654.79	14283	
654.98	11651	
655.16	12204	
655.35	12826	
655.54	12661	
655.73	11308	
655.91	11080	
656.1	13638	
656.29	12575	
656.47	10766	
656.66	12818	
656.85	12927	
657.03	13250	
657.22	11691	
657.41	11837	
657.59	13461	
657.78	13140	
657.97	11694	
658.16	12474	
658.34	14130	
658.53	14621	
658.72	13224	
658.9	13914	
659.09	13614	
659.28	13781	
659.46	12080	
659.65	12249	
659.84	13403	
660.02	13917	
660.21	12001	
660.4	11959	
660.58	14360	
660.77	13776	
660.96	12669	
661.14	11774	
661.33	14951	
661.52	14877	
661.7	11529	
661.89	15571	
662.08	13416	
662.26	12941	
662.45	11807	
662.64	11937	
662.82	13966	
663.01	13256	
663.2	11902	
663.38	12843	
663.57	13931	
663.75	13869	
663.94	12258	
664.13	13522	
664.31	13261	
664.5	14035	
664.69	12589	
664.87	13178	
665.06	13092	
665.25	13861	
665.43	13281	
665.62	13435	
665.8	14179	
665.99	13411	
666.18	12190	
666.36	12386	
666.55	14019	
666.74	13953	
666.92	11818	
667.11	13494	
667.29	13364	
667.48	13981	
667.67	13111	
667.85	12112	
668.04	13409	
668.22	13511	
668.41	12294	
668.6	12385	
668.78	13233	
668.97	13388	
669.15	12591	
669.34	11514	
669.53	13237	
669.71	13532	
669.9	11563	
670.08	12312	
670.27	13236	
670.46	13740	
670.64	12514	
670.83	12851	
671.01	12982	
671.2	13502	
671.38	11690	
671.57	11615	
671.76	14334	
671.94	14934	
672.13	11585	
672.31	12584	
672.5	13919	
672.69	13155	
672.87	11803	
673.06	12079	
673.24	13791	
673.43	13196	
673.61	12490	
673.8	11951	
673.98	13832	
674.17	14031	
674.36	12785	
674.54	12534	
674.73	13588	
674.91	13913	
675.1	12201	
675.28	11749	
675.47	13338	
675.65	13870	
675.84	11922	
676.03	12403	
676.21	13012	
676.4	12632	
676.58	12898	
676.77	12666	
676.95	14678	
677.14	13024	
677.32	11734	
677.51	11510	
677.69	13915	
677.88	12607	
678.06	11490	
678.25	11685	
678.44	13426	
678.62	13148	
678.81	11379	
678.99	12400	
679.18	14214	
679.36	13903	
679.55	11951	
679.73	12637	
679.92	13564	
680.1	13132	
680.29	13279	
680.47	11954	
680.66	12931	
680.84	13848	
681.03	11308	
681.21	12526	
681.4	13137	
681.58	12999	
681.77	11766	
681.95	11768	
682.14	14019	
682.32	14260	
682.51	12663	
682.69	11349	
682.88	12931	
683.06	13508	
683.25	12138	
683.43	12825	
683.62	13267	
683.8	13711	
683.99	12821	
684.17	12141	
684.36	14676	
684.54	13143	
684.73	11170	
684.91	11370	
685.1	13125	
685.28	12499	
685.46	11402	
685.65	11312	
685.83	12775	
686.02	12077	
686.2	10543	
686.39	10818	
686.57	11924	
686.76	13669	
686.94	10903	
687.13	11019	
687.31	12831	
687.5	12437	
687.68	10555	
687.86	11895	
688.05	14296	
688.23	12022	
688.42	11898	
688.6	11195	
688.79	12510	
688.97	12523	
689.16	11630	
689.34	10510	
689.52	13497	
689.71	13683	
689.89	12050	
690.08	11379	
690.26	13007	
690.45	12914	
690.63	12149	
690.81	11654	
691	12709	
691.18	12672	
691.37	11535	
691.55	13835	
691.74	12568	
691.92	14601	
692.1	11542	
692.29	10879	
692.47	12790	
692.66	11889	
692.84	11088	
693.02	11597	
693.21	12092	
693.39	12525	
693.58	11822	
693.76	11299	
693.94	13888	
694.13	13766	
694.31	11322	
694.5	12518	
694.68	12695	
694.86	13102	
695.05	11820	
695.23	12278	
695.42	13743	
695.6	16023	
695.78	12650	
695.97	11780	
696.15	13777	
696.34	13052	
696.52	11525	
696.7	12224	
696.89	13289	
697.07	12801	
697.25	11921	
697.44	13639	
697.62	13338	
697.81	13576	
697.99	11650	
698.17	12205	
698.36	12475	
698.54	13188	
698.72	12063	
698.91	10811	
699.09	12557	
699.28	12446	
699.46	11610	
699.64	11454	
699.83	12477	
700.01	13627	
700.19	12179	
700.38	10689	
700.56	13558	
700.74	12539	
700.93	11018	
701.11	11940	
701.29	13173	
701.48	14407	
701.66	11368	
701.84	11499	
702.03	12733	
702.21	13568	
702.39	10906	
702.58	11761	
702.76	13237	
702.94	13325	
703.13	10895	
703.31	13523	
703.49	12523	
703.68	13848	
703.86	11155	
704.04	12224	
704.23	13044	
704.41	13454	
704.59	11408	
704.78	12544	
704.96	14209	
705.14	13429	
705.33	11144	
705.51	11896	
705.69	12842	
705.87	13682	
706.06	12266	
706.24	11024	
706.42	13149	
706.61	13385	
706.79	12090	
706.97	10971	
707.16	12462	
707.34	13112	
707.52	11965	
707.7	11191	
707.89	12632	
708.07	12342	
708.25	12089	
708.44	12370	
708.62	12570	
708.8	13589	
708.98	12394	
709.17	11252	
709.35	12988	
709.53	12831	
709.72	10834	
709.9	11330	
710.08	13053	
710.26	13125	
710.45	12466	
710.63	11162	
710.81	12567	
710.99	12473	
711.18	11721	
711.36	11102	
711.54	12475	
711.72	13134	
711.91	11096	
712.09	10487	
712.27	12371	
712.45	13584	
712.64	11201	
712.82	10209	
713	11619	
713.18	11757	
713.37	10260	
713.55	11396	
713.73	12678	
713.91	11008	
714.1	10395	
714.28	9568.8	
714.46	11835	
714.64	10832	
714.83	8599.4	
715.01	9193.3	
715.19	10417	
715.37	9598.8	
715.55	8682	
715.74	8995.4	
715.92	11071	
716.1	8873.2	
716.28	9971.6	
716.47	8840.4	
716.65	9462.3	
716.83	9639.1	
717.01	8680.7	
717.19	8773.5	
717.38	11774	
717.56	9323	
717.74	8934.6	
717.92	7963.2	
718.1	10507	
718.29	9662.3	
718.47	7730.4	
718.65	8440.4	
718.83	10774	
719.01	10739	
719.2	8042.4	
719.38	9175.6	
719.56	10584	
719.74	12360	
719.92	8817.2	
720.11	9921	
720.29	10632	
720.47	9600.2	
720.65	8189.1	
720.83	8886.1	
721.02	9669.8	
721.2	9335.3	
721.38	8740	
721.56	7927	
721.74	8686.1	
721.92	8899.1	
722.11	9075.9	
722.29	8884.8	
722.47	10174	
722.65	9276.6	
722.83	7794.6	
723.01	8687.5	
723.2	9394	
723.38	9633	
723.56	7212.3	
723.74	8423.3	
723.92	8733.9	
724.1	10039	
724.29	7718.8	
724.47	8981.7	
724.65	8928.5	
724.83	8748.9	
725.01	7410.2	
725.19	8322.3	
725.37	8669.7	
725.56	8768.7	
725.74	7330.4	
725.92	7617.1	
726.1	8675.2	
726.28	9017.2	
726.46	8058.1	
726.64	7570	
726.83	8694.3	
727.01	9147.6	
727.19	7139.9	
727.37	8114.7	
727.55	8963.3	
727.73	9548.3	
727.91	7144	
728.09	6963.1	
728.28	9424.8	
728.46	10210	
728.64	8179.6	
728.82	8093.6	
729	10674	
729.18	9836.4	
729.36	7257.3	
729.54	9733.3	
729.72	11084	
729.91	9260.9	
730.09	9447.3	
730.27	8144.1	
730.45	9138	
730.63	9878.7	
730.81	8652	
730.99	7694.9	
731.17	10317	
731.35	8868.4	
731.53	8367.3	
731.71	7915.4	
731.9	9992.7	
732.08	10167	
732.26	7991.2	
732.44	7707.2	
732.62	10160	
732.8	9704	
732.98	8428.8	
733.16	7456	
733.34	9460.9	
733.52	8307.9	
733.7	7815.7	
733.88	8166.6	
734.07	9302.6	
734.25	9021.3	
734.43	7333.8	
734.61	8927.8	
734.79	10632	
734.97	8875.2	
735.15	7362.4	
735.33	7711.3	
735.51	9243.2	
735.69	8793.3	
735.87	9044.5	
736.05	7862.8	
736.23	9003.6	
736.41	8726.4	
736.59	7653.3	
736.77	7753.6	
736.95	9468.4	
737.13	8773.5	
737.32	7245.7	
737.5	7498.3	
737.68	9926.5	
737.86	8611.7	
738.04	6895.5	
738.22	8862.9	
738.4	8226	
738.58	8688.8	
738.76	7619.8	
738.94	6380.1	
739.12	8366.6	
739.3	8316.8	
739.48	8094.9	
739.66	7881.9	
739.84	8681.3	
740.02	8641.7	
740.2	6521.4	
740.38	6736.5	
740.56	9071.1	
740.74	7811.6	
740.92	7595.9	
741.1	7407.5	
741.28	8264.2	
741.46	8103.1	
741.64	6888.7	
741.82	7425.9	
742	8294.3	
742.18	8192.6	
742.36	7071	
742.54	6672.3	
742.72	8863.6	
742.9	7436.2	
743.08	7365.9	
743.26	6120	
743.44	8986.5	
743.62	8826.1	
743.8	7467.6	
743.98	6455.2	
744.16	8412.4	
744.34	8094.9	
744.52	7392.5	
744.7	7266.9	
744.88	8503.8	
745.06	8040.3	
745.24	7338.6	
745.42	7492.2	
745.6	8535.9	
745.78	8289.5	
745.96	5969.1	
746.14	6392.4	
746.32	9334	
746.5	8341.4	
746.68	6783.6	
746.86	6279.1	
747.03	8802.2	
747.21	7081.9	
747.39	6764.4	
747.57	6257.9	
747.75	7884.7	
747.93	8384.4	
748.11	6227.2	
748.29	6124.1	
748.47	9547.6	
748.65	7559.1	
748.83	6926.2	
749.01	6674.3	
749.19	8051.2	
749.37	7211.6	
749.55	6416.3	
749.73	6492.7	
749.91	7603.4	
750.09	7307.8	
750.26	6535.1	
750.44	5838.1	
750.62	7700.4	
750.8	7512.6	
750.98	5748.6	
751.16	6077.7	
751.34	7656	
751.52	6901.7	
751.7	6838.2	
751.88	5585.5	
752.06	8049.2	
752.24	7871.7	
752.42	5537	
752.59	5919.3	
752.77	7467.6	
752.95	8753.7	
753.13	6682.5	
753.31	5987.6	
753.49	7156.3	
753.67	7548.8	
753.85	6268.1	
754.03	5803.9	
754.21	7781.6	
754.38	8080.6	
754.56	5928.2	
754.74	4881.7	
754.92	6845.7	
755.1	7587	
755.28	4832.5	
755.46	4815.5	
755.64	8260.1	
755.82	8276.5	
755.99	4939	
756.17	5060.5	
756.35	5534.3	
756.53	7098.9	
756.71	3756.7	
756.89	4731.5	
757.07	6734.4	
757.25	5738.4	
757.42	5335.6	
757.6	6236.7	
757.78	6775.4	
757.96	5685.8	
758.14	5066.7	
758.32	4611.3	
758.5	5283.8	
758.67	6175.3	
758.85	4912.4	
759.03	5008.6	
759.21	6367.8	
759.39	5741.8	
759.57	4407.9	
759.75	5638.1	
759.92	7053.2	
760.1	6275.7	
760.28	5988.3	
760.46	6346	
760.64	6079.7	
760.82	5786.2	
760.99	5594.4	
761.17	5010.7	
761.35	6952.2	
761.53	5784.1	
761.71	5205.3	
761.89	5926.8	
762.06	6817	
762.24	6322.1	
762.42	5251	
762.6	4969.7	
762.78	6313.9	
762.96	6952.2	
763.13	5657.9	
763.31	5267.4	
763.49	7211.6	
763.67	6210.1	
763.85	6242.2	
764.02	6808.8	
764.2	7437.5	
764.38	6510.5	
764.56	5081	
764.74	6055.2	
764.91	7557	
765.09	6376.7	
765.27	4773.1	
765.45	4592.9	
765.63	7488.7	
765.8	7423.2	
765.98	4263.2	
766.16	4612	
766.34	5892	
766.52	5660.6	
766.69	5623	
766.87	4410	
767.05	6298.2	
767.23	6961.7	
767.41	4743.8	
767.58	4995	
767.76	6856.6	
767.94	6919.4	
768.12	4824.3	
768.29	5563.6	
768.47	6316.6	
768.65	7060	
768.83	4414.7	
769	5583.4	
769.18	5870.8	
769.36	6575.3	
769.54	5572.5	
769.72	4498.7	
769.89	6834.1	
770.07	7000.6	
770.25	4710.3	
770.43	6107.7	
770.6	7602.1	
770.78	8082	
770.96	4928.1	
771.14	5610.1	
771.31	6670.9	
771.49	6040.1	
771.67	3986	
771.85	4275.5	
772.02	5193.6	
772.2	6079.7	
772.38	5086.5	
772.55	4589.5	
772.73	6322.1	
772.91	6041.5	
773.09	4982.7	
773.26	5022.3	
773.44	6262.7	
773.62	5880.4	
773.8	4440	
773.97	4142.4	
774.15	6304.3	
774.33	5930.9	
774.5	4319.8	
774.68	4616.8	
774.86	6510.5	
775.04	5942.5	
775.21	4390.2	
775.39	4330.1	
775.57	6171.9	
775.74	6605.4	
775.92	4175.1	
776.1	4111.6	
776.27	6156.2	
776.45	7464.8	
776.63	4342.4	
776.81	3823.6	
776.98	5776.6	
777.16	6928.3	
777.34	4554	
777.51	4831.2	
777.69	5713.2	
777.87	5489.9	
778.04	4488.5	
778.22	5216.2	
778.4	5563	
778.57	6299.6	
778.75	3766.9	
778.93	4059.8	
779.1	5339.1	
779.28	5175.2	
779.46	3777.8	
779.64	4321.9	
779.81	6412.2	
779.99	7310.6	
780.17	5113.8	
780.34	5234.6	
780.52	5819	
780.69	6070.2	
780.87	4526.7	
781.05	4207.9	
781.22	5872.2	
781.4	5907.7	
781.58	4377.2	
781.75	3469.9	
781.93	5757.5	
782.11	5244.2	
782.28	5222.3	
782.46	4293.2	
782.64	5084.4	
782.81	6083.8	
782.99	4365.6	
783.17	4324.6	
783.34	5913.9	
783.52	5145.2	
783.69	4581.3	
783.87	5408.7	
784.05	5223	
784.22	5272.8	
784.4	5411.4	
784.58	4695.3	
784.75	6238.8	
784.93	5251.7	
785.1	4246.1	
785.28	5007.3	
785.46	5965.7	
785.63	5270.8	
785.81	4209.3	
785.99	4072.7	
786.16	5421	
786.34	5895.4	
786.51	4152.6	
786.69	4547.9	
786.87	4967	
787.04	5559.6	
787.22	3961.5	
787.39	4967	
787.57	5193.6	
787.75	6449.1	
787.92	5177.9	
788.1	5142.4	
788.27	5273.5	
788.45	5015.5	
788.63	4822.3	
788.8	3438.5	
788.98	5765	
789.15	4918.5	
789.33	3573	
789.5	4293.2	
789.68	6243.6	
789.86	6309.8	
790.03	4699.4	
790.21	4160.1	
790.38	6106.4	
790.56	5400.5	
790.73	3973.7	
790.91	4050.2	
791.09	5234.6	
791.26	6079.1	
791.44	4256.4	
791.61	3636.5	
791.79	5231.9	
791.96	5296.7	
792.14	3840.6	
792.32	3338.2	
792.49	5262.6	
792.67	5356.1	
792.84	3882.9	
793.02	3624.9	
793.19	5727.5	
793.37	6456.6	
793.54	3363.4	
793.72	3762.1	
793.89	6645.7	
794.07	5257.8	
794.25	4378.6	
794.42	3446.7	
794.6	6394.4	
794.77	5960.3	
794.95	4696	
795.12	4027	
795.3	5195.7	
795.47	5902.9	
795.65	4510.3	
795.82	4261.1	
796	5008	
796.17	7063.4	
796.35	4143.7	
796.52	4902.8	
796.7	5801.2	
796.87	5868.1	
797.05	5149.3	
797.22	5104.2	
797.4	5863.3	
797.57	6989.7	
797.75	4289.1	
797.92	3970.3	
798.1	6196.5	
798.27	5244.8	
798.45	3428.3	
798.62	3654.3	
798.8	5540.4	
798.97	6084.5	
799.15	4522.6	
799.32	4279.6	
799.5	4754	
799.67	5628.5	
799.85	4627.7	
800.02	3403	
800.2	5218.2	
800.37	5543.9	
800.55	4885.1	
800.72	4018.8	
800.9	5986.9	
801.07	6472.3	
801.25	5407.3	
801.42	4369.7	
801.6	6010.8	
801.77	5750.7	
801.95	4148.5	
802.12	3954.6	
802.29	5725.4	
802.47	5679	
802.64	4371.7	
802.82	3280.2	
802.99	5092.6	
803.17	6243.6	
803.34	4228.4	
803.52	3799	
803.69	6905.8	
803.87	4943.1	
804.04	4241.3	
804.21	4348.5	
804.39	6333	
804.56	5427.8	
804.74	3572.3	
804.91	4441.4	
805.09	5154.7	
805.26	5307.7	
805.44	3740.3	
805.61	4039.3	
805.78	5869.5	
805.96	5885.9	
806.13	4445.5	
806.31	4724	
806.48	4711	
806.66	5222.3	
806.83	4338.3	
807	4268	
807.18	5194.3	
807.35	5612.1	
807.53	4214.7	
807.7	3389.4	
807.87	6415.6	
808.05	5254.4	
808.22	4680.3	
808.4	3439.9	
808.57	5212.1	
808.74	4818.9	
808.92	3888.4	
809.09	4986.8	
809.27	5026.4	
809.44	5751.4	
809.61	3445.4	
809.79	3829	
809.96	6365.8	
810.14	5969.1	
810.31	3330.7	
810.48	4108.2	
810.66	5260.5	
810.83	6049	
811.01	3893.9	
811.18	4317.1	
811.35	5943.9	
811.53	4657.1	
811.7	4732.9	
811.87	4427.7	
812.05	5201.8	
812.22	5111.7	
812.39	3767.6	
812.57	3672.7	
812.74	5223	
812.92	6995.2	
813.09	4113	
813.26	4478.2	
813.44	6697.5	
813.61	5155.4	
813.78	3437.2	
813.96	4625	
814.13	5187.5	
814.3	4865.3	
814.48	4940.4	
814.65	4091.2	
814.82	6477.7	
815	4985.4	
815.17	4231.1	
815.34	5141.8	
815.52	5141.8	
815.69	5141.1	
815.87	4245.4	
816.04	3631	
816.21	5278.3	
816.38	4550.6	
816.56	4052.9	
816.73	3756	
816.9	6548.7	
817.08	6004	
817.25	3837.2	
817.42	4774.5	
817.6	4730.8	
817.77	5218.9	
817.94	4257	
818.12	3741.6	
818.29	4901.5	
818.46	7780.2	
818.64	3919.8	
818.81	3732.8	
818.98	4835.9	
819.16	7055.9	
819.33	4514.4	
819.5	4173.1	
819.67	5595.1	
819.85	6195.8	
820.02	4147.1	
820.19	4390.8	
820.37	5425.1	
820.54	4967.7	
820.71	4266.6	
820.88	5257.1	
821.06	5462.6	
821.23	4966.3	
821.4	4340.3	
821.58	4216.1	
821.75	5928.2	
821.92	5347.9	
822.09	3401	
822.27	3551.9	
822.44	5212.1	
822.61	5041.4	
822.79	3482.9	
822.96	6690.7	
823.13	5732.3	
823.3	4941.7	
823.48	3960.8	
823.65	3556.6	
823.82	5881.1	
823.99	4742.4	
824.17	5141.8	
824.34	3693.2	
824.51	6821.8	
824.68	5225.1	
824.86	3788.1	
825.03	4312.3	
825.2	5207.3	
825.37	6355.5	
825.55	3762.8	
825.72	4224.3	
825.89	6924.2	
826.06	6413.6	
826.24	4080.9	
826.41	4086.4	
826.58	6347.3	
826.75	5449	
826.92	3229.6	
827.1	3575.1	
827.27	8716.2	
827.44	6909.2	
827.61	3941.7	
827.79	4780	
827.96	4926	
828.13	5300.1	
828.3	4014	
828.47	3409.2	
828.65	5427.1	
828.82	5344.5	
828.99	5291.3	
829.16	4655	
829.34	5793.7	
829.51	5556.8	
829.68	4246.8	
829.85	4385.4	
830.02	6108.4	
830.2	5883.1	
830.37	3264.5	
830.54	5109	
830.71	6728.9	
830.88	5126.1	
831.05	3302.7	
831.23	3867.2	
831.4	6387.6	
831.57	7155.6	
831.74	3947.1	
831.91	3379.1	
832.09	5397.8	
832.26	5794.4	
832.43	4028.4	
832.6	4517.1	
832.77	5487.9	
832.94	6242.2	
833.12	3176.4	
833.29	3984	
833.46	5549.3	
833.63	7419.1	
833.8	4383.3	
833.97	4123.9	
834.15	5838.8	
834.32	5587.5	
834.49	4235.9	
834.66	4308.2	
834.83	6089.3	
835	4897.4	
835.17	3904.8	
835.35	3927.3	
835.52	5741.1	
835.69	5583.4	
835.86	4152.6	
836.03	3362.1	
836.2	5750	
836.37	5339.7	
836.55	4013.3	
836.72	3816.7	
836.89	5373.2	
837.06	5883.1	
837.23	4156	
837.4	4519.9	
837.57	6673.6	
837.75	7369.3	
837.92	3639.2	
838.09	3977.2	
838.26	5309	
838.43	6103.6	
838.6	4294.6	
838.77	3772.4	
838.94	7010.9	
839.11	6721.4	
839.29	4022.9	
839.46	3171.6	
839.63	5756.8	
839.8	5494.7	
839.97	3915	
840.14	3925.3	
840.31	5600.5	
840.48	5775.3	
840.65	3252.9	
840.82	4026.3	
841	5763	
841.17	5767.8	
841.34	3567.6	
841.51	3659.7	
841.68	5715.2	
841.85	5455.8	
842.02	3751.9	
842.19	3099.9	
842.36	5497.4	
842.53	5547.9	
842.7	3680.9	
842.87	4469.4	
843.05	7343.3	
843.22	5464.7	
843.39	3482.2	
843.56	3663.8	
843.73	5236.7	
843.9	5866.7	
844.07	5825.8	
844.24	4874.2	
844.41	8546.9	
844.58	5005.2	
844.75	3459.7	
844.92	3792.2	
845.09	5759.6	
845.26	5745.2	
845.43	3573	
845.6	3809.2	
845.77	5724.8	
845.94	5483.1	
846.12	4014.7	
846.29	4231.1	
846.46	5945.3	
846.63	5837.4	
846.8	3584.6	
846.97	4295.3	
847.14	6282.5	
847.31	5745.2	
847.48	4044.1	
847.65	4515.8	
847.82	6103.6	
847.99	6029.9	
848.16	4765.6	
848.33	4455	
848.5	5290.6	
848.67	6300.9	
848.84	3565.5	
849.01	3781.2	
849.18	5212.8	
849.35	4844.1	
849.52	4548.5	
849.69	3472.7	
849.86	5930.9	
850.03	6212.2	
850.2	3585.3	
850.37	4433.9	
850.54	6142.5	
850.71	5428.5	
850.88	4332.1	
851.05	3507.5	
851.22	5654.4	
851.39	6379.4	
851.56	3392.1	
851.73	4083	
851.9	5042.1	
852.07	6042.9	
852.24	4048.8	
852.41	3543	
852.58	5606.7	
852.75	5117.9	
852.92	3986.7	
853.09	3539.6	
853.26	5386.2	
853.43	6201.9	
853.6	3557.3	
853.77	3065.1	
853.94	6324.8	
854.11	5711.8	
854.28	5331.5	
854.44	3859.7	
854.61	6815	
854.78	6080.4	
854.95	3578.5	
855.12	4446.8	
855.29	4631.8	
855.46	6412.2	
855.63	3571	
855.8	4960.2	
855.97	5319.9	
856.14	6124.8	
856.31	5158.8	
856.48	3895.9	
856.65	5270.8	
856.82	5063.9	
856.99	3435.1	
857.16	3833.1	
857.33	7075.7	
857.49	5453.7	
857.66	3838.6	
857.83	4138.3	
858	5372.5	
858.17	5599.1	
858.34	3330.7	
858.51	3610.6	
858.68	6492.7	
858.85	6520.7	
859.02	4128	
859.19	4423.6	
859.36	5010.7	
859.52	5046.2	
859.69	3573.7	
859.86	4278.9	
860.03	5160.2	
860.2	6395.1	
860.37	3235.1	
860.54	3715	
860.71	6038.1	
860.88	6404.7	
861.05	3997.6	
861.21	4516.5	
861.38	6448.4	
861.55	4955.4	
861.72	3247.4	
861.89	4003.1	
862.06	6047	
862.23	6623.8	
862.4	3435.1	
862.56	3682.2	
862.73	5863.3	
862.9	5541.1	
863.07	4215.4	
863.24	3194.1	
863.41	4961.5	
863.58	5059.8	
863.75	3638.6	
863.91	4157.4	
864.08	6446.3	
864.25	5934.3	
864.42	4502.1	
864.59	4991.6	
864.76	6725.5	
864.93	5005.9	
865.09	3482.2	
865.26	3825.6	
865.43	6240.8	
865.6	6688.7	
865.77	3143.6	
865.94	3521.1	
866.1	6351.4	
866.27	6052.4	
866.44	5432.6	
866.61	3359.4	
866.78	5441.5	
866.95	5871.5	
867.11	3437.9	
867.28	3202.3	
867.45	6139.1	
867.62	5089.9	
867.79	4137.6	
867.96	3531.4	
868.12	5104.2	
868.29	6068.1	
868.46	3107.5	
868.63	4801.8	
868.8	6218.3	
868.97	5946.6	
869.13	3750.5	
869.3	3714.3	
869.47	5976.7	
869.64	6108.4	
869.81	3552.5	
869.97	3596.9	
870.14	5758.2	
870.31	6481.1	
870.48	3548.4	
870.65	4510.3	
870.81	5433.3	
870.98	5296.7	
871.15	4096.6	
871.32	3771	
871.48	5884.5	
871.65	6509.1	
871.82	3563.5	
871.99	3941	
872.16	7018.4	
872.32	6311.8	
872.49	3657.7	
872.66	3561.4	
872.83	5935.7	
872.99	5292.6	
873.16	4110.3	
873.33	3517.7	
873.5	5610.8	
873.67	5618.9	
873.83	3743.7	
874	4799.8	
874.17	5763	
874.34	6869.6	
874.5	4700.8	
874.67	4452.3	
874.84	6388.3	
875.01	5055.1	
875.17	5050.3	
875.34	3562.1	
875.51	5618.9	
875.68	6888	
875.84	4351.9	
876.01	5274.9	
876.18	5981.4	
876.34	5842.9	
876.51	3637.9	
876.68	3473.4	
876.85	5467.4	
877.01	6214.2	
877.18	5105.6	
877.35	3527.3	
877.52	5558.2	
877.68	4916.5	
877.85	3476.1	
878.02	3517	
878.18	5566.4	
878.35	5255.8	
878.52	2873.3	
878.69	3993.5	
878.85	6017.6	
879.02	5927.5	
879.19	5160.9	
879.35	3827	
879.52	5922.7	
879.69	6195.1	
879.86	3060.3	
880.02	3998.3	
880.19	5515.2	
880.36	6832.7	
880.52	4151.9	
880.69	4235.2	
880.86	6075.6	
881.02	6164.4	
881.19	3965.6	
881.36	3880.9	
881.52	5898.1	
881.69	5233.2	
881.86	3854.3	
882.02	3782.6	
882.19	6158.9	
882.36	7357.7	
882.52	3597.6	
882.69	5083.1	
882.86	5776	
883.02	5649	
883.19	4282.3	
883.36	4100	
883.52	6098.2	
883.69	6907.1	
883.86	3584.6	
884.02	3244.7	
884.19	5997.1	
884.36	5587.5	
884.52	4007.2	
884.69	3788.1	
884.86	5284.4	
885.02	6688.7	
885.19	3964.9	
885.36	4155.3	
885.52	5562.3	
885.69	5691.3	
885.86	5165	
886.02	4618.9	
886.19	6009.4	
886.35	5471.5	
886.52	3941	
886.69	5047.6	
886.85	5059.8	
887.02	6369.9	
887.19	6369.9	
887.35	6369.9	
887.52	6369.9	
887.68	6369.9	
887.85	6369.9	
888.02	6369.9	
888.18	6369.9	
888.35	6369.9	
888.51	6369.9	
888.68	6369.9	
888.85	6369.9	
889.01	6369.9	
889.18	6369.9	
889.35	6369.9	
889.51	6369.9	
889.68	6369.9	
889.84	6369.9	
890.01	6369.9	
890.17	6369.9	
890.34	6369.9	
890.51	6369.9	
890.67	6369.9	
890.84	6369.9	
891	6369.9	
891.17	6369.9	
891.34	6369.9	
891.5	6369.9	
891.67	6369.9	
891.83	6369.9	
892	6369.9	
892.16	6369.9	
892.33	6369.9	
892.5	6369.9	
892.66	6369.9	
892.83	6369.9	
892.99	6369.9	
893.16	6369.9	
893.32	6369.9	
893.49	6369.9	
893.65	6369.9	
893.82	6369.9	
893.99	6369.9	
894.15	6369.9	
894.32	6369.9	
894.48	6369.9	
894.65	6369.9	
894.81	6369.9	
894.98	6369.9	
895.14	6369.9	
895.31	6369.9	
895.47	6369.9	
895.64	6369.9	
895.81	6369.9	
895.97	6369.9	
896.14	6369.9	
896.3	6369.9	
896.47	6369.9	
896.63	6369.9	
896.8	6369.9	
896.96	6369.9	
897.13	6369.9	
897.29	6369.9	
897.46	6369.9	
897.62	6369.9	
897.79	6369.9	
897.95	6369.9	
898.12	6369.9	
898.28	6369.9	
898.45	6369.9	
898.61	6369.9	
898.78	6369.9	
898.94	6369.9	
899.11	6369.9	
899.27	6369.9	
899.44	6369.9	
899.6	6369.9	
899.77	6369.9	
899.93	6369.9	
900.1	6369.9	
900.26	6369.9	
900.43	6369.9	
900.59	6369.9	
900.76	6369.9	
900.92	6369.9	
901.09	6369.9	
901.25	6369.9	
901.42	6369.9	
901.58	6369.9	
901.75	6369.9	
901.91	6369.9	
902.07	6369.9	
902.24	6369.9	
902.4	6369.9	
902.57	6369.9	
902.73	6369.9	
902.9	6369.9	
903.06	6369.9	
903.23	6369.9	
903.39	6369.9	
903.56	6369.9	
903.72	6369.9	
903.88	6369.9	
904.05	6369.9	
904.21	6369.9	
904.38	6369.9	
904.54	6369.9	
904.71	6369.9	
904.87	6369.9	
905.03	6369.9	
905.2	6369.9	
905.36	6369.9	
905.53	6369.9	
905.69	6369.9	
905.86	6369.9	
906.02	6369.9	
906.18	6369.9	
906.35	6369.9	
906.51	6369.9	
906.68	6369.9	
906.84	6369.9	
907.01	6369.9	
907.17	6369.9	
907.33	6369.9	
907.5	6369.9	
907.66	6369.9	
907.83	6369.9	
907.99	6369.9	
908.15	6369.9	
908.32	6369.9	
908.48	6369.9	
908.65	6369.9	
908.81	6369.9	
908.97	6369.9	
909.14	6369.9	
909.3	6369.9	
909.47	6369.9	
909.63	6369.9	
909.79	6369.9	
909.96	6369.9	
910.12	6369.9	
910.28	6369.9	
910.45	6369.9	
910.61	6369.9	
910.78	6369.9	
910.94	6369.9	
911.1	6369.9	
911.27	6369.9	
911.43	6369.9	
911.59	6369.9	
911.76	6369.9	
911.92	6369.9	
912.08	6369.9	
912.25	6369.9	
912.41	6369.9	
912.57	6369.9	
912.74	6369.9	
912.9	6369.9	
913.07	6369.9	
913.23	6369.9	
913.39	6369.9	
913.56	6369.9	
913.72	6369.9	
913.88	6369.9	
914.05	6369.9	
914.21	6369.9	
914.37	6369.9	
914.54	6369.9	
914.7	6369.9	
914.86	6369.9	
915.03	6369.9	
915.19	6369.9	
