Wavelength	Intensities	
nm	a.u.	
179.22	1862.5	
179.44	1865.4	
179.65	1859.6	
179.86	1871.2	
180.08	1879.4	
180.29	4737	
180.51	3459	
180.72	5522	
180.94	6432.7	
181.15	3149.8	
181.37	3100.6	
181.58	5350	
181.79	5644.2	
182.01	3270.6	
182.22	3515.7	
182.44	5597.8	
182.65	4761.5	
182.87	4362.9	
183.08	3823.6	
183.29	5926.8	
183.51	4820.2	
183.72	3485	
183.94	5094.7	
184.15	5272.8	
184.37	5293.3	
184.58	3093.8	
184.79	4154.6	
185.01	4856.4	
185.22	5627.8	
185.44	4459.1	
185.65	3788.1	
185.86	5165.7	
186.08	4773.8	
186.29	2990	
186.51	3246.7	
186.72	4896	
186.94	5775.3	
187.15	3759.4	
187.36	3883.6	
187.58	7473	
187.79	5387.5	
188.01	4008.6	
188.22	6184.2	
188.43	6451.1	
188.65	5582.8	
188.86	3223.5	
189.08	3836.5	
189.29	5076.9	
189.5	5048.9	
189.72	3588.7	
189.93	3665.2	
190.15	5788.9	
190.36	6920.8	
190.57	3903.4	
190.79	3847.5	
191	5864.7	
191.22	5798.5	
191.43	3956.7	
191.64	3229	
191.86	6079.7	
192.07	5788.2	
192.29	3396.9	
192.5	3582.6	
192.71	5827.2	
192.93	5038	
193.14	3545.7	
193.35	3636.5	
193.57	4994.3	
193.78	5823.7	
194	2873.3	
194.21	3491.8	
194.42	4840	
194.64	5308.3	
194.85	3856.3	
195.07	4520.5	
195.28	5352.7	
195.49	4569.7	
195.71	4738.3	
195.92	3340.9	
196.13	5417.6	
196.35	5608	
196.56	5018.9	
196.78	3846.1	
196.99	6842.9	
197.2	6357.6	
197.42	4345.8	
197.63	3891.1	
197.84	4659.8	
198.06	5497.4	
198.27	3522.5	
198.48	4799.8	
198.7	5049.6	
198.91	5176.6	
199.13	3878.9	
199.34	3899.3	
199.55	5666.7	
199.77	4612	
199.98	3382.6	
200.19	3920.5	
200.41	5117.9	
200.62	4892.6	
200.83	4042	
201.05	4280.3	
201.26	5182.7	
201.47	4885.8	
201.69	3467.2	
201.9	3335.5	
202.11	5223.7	
202.33	6132.3	
202.54	3705.5	
202.76	4164.9	
202.97	5372.5	
203.18	5300.8	
203.4	4101.4	
203.61	3953.9	
203.82	5313.8	
204.04	4932.2	
204.25	3967.6	
204.46	3812.6	
204.68	5315.8	
204.89	5492	
205.1	3761.4	
205.32	3312.2	
205.53	5686.5	
205.74	5740.5	
205.96	2803	
206.17	3910.3	
206.38	5616.2	
206.6	5692	
206.81	4468.7	
207.02	3642	
207.24	5490.6	
207.45	5845.6	
207.66	3682.9	
207.88	3180.5	
208.09	5458.5	
208.3	5307	
208.52	3396.2	
208.73	3776.5	
208.94	5280.3	
209.15	5961.6	
209.37	3685	
209.58	3900	
209.79	5809.4	
210.01	5015.5	
210.22	2964.1	
210.43	3061.7	
210.65	5255.8	
210.86	5605.3	
211.07	3712.3	
211.29	3393.5	
211.5	5575.9	
211.71	5235.3	
211.93	3384.6	
212.14	3364.8	
212.35	5223.7	
212.56	5393.7	
212.78	3914.4	
212.99	3220.8	
213.2	6156.2	
213.42	5015.5	
213.63	3556	
213.84	3777.8	
214.06	4691.9	
214.27	4760.2	
214.48	3668.6	
214.69	3979.2	
214.91	5907.7	
215.12	6008.7	
215.33	4005.8	
215.55	4357.4	
215.76	6439.5	
215.97	5556.8	
216.18	3879.5	
216.4	3819.5	
216.61	4963.6	
216.82	5675.6	
217.04	3452.2	
217.25	3565.5	
217.46	5950	
217.67	5612.1	
217.89	3070.6	
218.1	3190.7	
218.31	5351.3	
218.53	5464	
218.74	3628.3	
218.95	3444	
219.16	5259.2	
219.38	6144.6	
219.59	3519.1	
219.8	4220.2	
220.01	6774.7	
220.23	5233.2	
220.44	4575.8	
220.65	3423.5	
220.87	5322	
221.08	5831.9	
221.29	3172.3	
221.5	4251.6	
221.72	7113.3	
221.93	5051	
222.14	3979.9	
222.35	4661.2	
222.57	5300.1	
222.78	5583.4	
222.99	3738.2	
223.2	4014.7	
223.42	5621	
223.63	5640.1	
223.84	2838.5	
224.05	2840.5	
224.27	6662	
224.48	6079.7	
224.69	4611.3	
224.9	4031.8	
225.12	5450.3	
225.33	5246.2	
225.54	3168.2	
225.75	3540.3	
225.97	4911.7	
226.18	5122.7	
226.39	3745.1	
226.6	3495.2	
226.82	5053.7	
227.03	4845.5	
227.24	3930.7	
227.45	3246.7	
227.67	5653.1	
227.88	6124.8	
228.09	4349.9	
228.3	4360.1	
228.52	5651.7	
228.73	5242.1	
228.94	3619.4	
229.15	3246.7	
229.36	5213.4	
229.58	5112.4	
229.79	3672.7	
230	4235.2	
230.21	6322.1	
230.43	5289.9	
230.64	3871.3	
230.85	4051.6	
231.06	5671.5	
231.28	5667.4	
231.49	3184.6	
231.7	3795.6	
231.91	5550	
232.12	5324.7	
232.34	3334.1	
232.55	3820.1	
232.76	5822.4	
232.97	5448.3	
233.18	3439.2	
233.4	3865.9	
233.61	5522	
233.82	5029.8	
234.03	3609.2	
234.25	3536.8	
234.46	7292.1	
234.67	5304.2	
234.88	4014.7	
235.09	3480.9	
235.31	5575.3	
235.52	5080.3	
235.73	3825.6	
235.94	3200.3	
236.15	5006.6	
236.37	6382.2	
236.58	3383.9	
236.79	3756.7	
237	5518.6	
237.21	4839.4	
237.43	4025.6	
237.64	3111.5	
237.85	9370.1	
238.06	4863.2	
238.27	4130.8	
238.48	3303.4	
238.7	5595.7	
238.91	5098.1	
239.12	3721.2	
239.33	3751.9	
239.54	4992.3	
239.76	5247.6	
239.97	3665.2	
240.18	3658.4	
240.39	6545.3	
240.6	5552	
240.82	3899.3	
241.03	3192.1	
241.24	5235.3	
241.45	6094.8	
241.66	3405.1	
241.87	3997.6	
242.09	5995.8	
242.3	6302.3	
242.51	4108.2	
242.72	3726.6	
242.93	5694	
243.14	5208.7	
243.36	4278.2	
243.57	4698	
243.78	6083.1	
243.99	5616.9	
244.2	3750.5	
244.41	3379.1	
244.63	4803.9	
244.84	5585.5	
245.05	3942.3	
245.26	3732.8	
245.47	5552.7	
245.68	5769.1	
245.9	4977.9	
246.11	3895.2	
246.32	5094	
246.53	5502.2	
246.74	6023.1	
246.95	3142.9	
247.16	4830.5	
247.38	5319.9	
247.59	3164.8	
247.8	3809.2	
248.01	4943.1	
248.22	5204.6	
248.43	3376.4	
248.64	3656.3	
248.86	4688.5	
249.07	5045.5	
249.28	3312.9	
249.49	3861.8	
249.7	5766.4	
249.91	5915.9	
250.12	3138.2	
250.34	3192.8	
250.55	5397.1	
250.76	5219.6	
250.97	3816	
251.18	3910.3	
251.39	5940.5	
251.6	5418.9	
251.81	3935.5	
252.03	3951.9	
252.24	5049.6	
252.45	5801.2	
252.66	3267.2	
252.87	4190.1	
253.08	5283.1	
253.29	6884.6	
253.5	3281.5	
253.72	4561.5	
253.93	5159.5	
254.14	6231.3	
254.35	3536.8	
254.56	3633.1	
254.77	5522.7	
254.98	4930.1	
255.19	3538.2	
255.41	4546.5	
255.62	5371.8	
255.83	5836.7	
256.04	4007.9	
256.25	3913	
256.46	6488	
256.67	4983.4	
256.88	3894.6	
257.09	4299.4	
257.31	4908.3	
257.52	4971.1	
257.73	4789.5	
257.94	3543	
258.15	5111.7	
258.36	5259.9	
258.57	4487.1	
258.78	2878.1	
258.99	5690.6	
259.2	5146.5	
259.41	3579.8	
259.63	3695.9	
259.84	6095.4	
260.05	6513.9	
260.26	4648.2	
260.47	3534.8	
260.68	5831.9	
260.89	5217.5	
261.1	4276.2	
261.31	3405.8	
261.52	5838.8	
261.73	6198.5	
261.95	4601.1	
262.16	4018.1	
262.37	5920	
262.58	5987.6	
262.79	4625.7	
263	3661.1	
263.21	5278.3	
263.42	5130.2	
263.63	3637.9	
263.84	3614.7	
264.05	5864	
264.26	6118.6	
264.47	4471.4	
264.69	4018.1	
264.9	5931.6	
265.11	5457.8	
265.32	3456.3	
265.53	3551.9	
265.74	5388.2	
265.95	4738.3	
266.16	3826.3	
266.37	4136.9	
266.58	5390.9	
266.79	5102.9	
267	3521.1	
267.21	3307.5	
267.42	4889.2	
267.63	5257.8	
267.84	3654.3	
268.06	3209.8	
268.27	5668.8	
268.48	5937.1	
268.69	3645.4	
268.9	4330.1	
269.11	5919.3	
269.32	4790.9	
269.53	3690.4	
269.74	3432.4	
269.95	5573.9	
270.16	4720.6	
270.37	3788.1	
270.58	4339	
270.79	5110.4	
271	5776.6	
271.21	3993.5	
271.42	3789.4	
271.63	5401.2	
271.84	4922	
272.05	3004.4	
272.26	3347.1	
272.47	5343.2	
272.68	5448.3	
272.89	3622.2	
273.11	4207.2	
273.32	5070.8	
273.53	6133	
273.74	4005.8	
273.95	3975.1	
274.16	5856.5	
274.37	5334.3	
274.58	4115.7	
274.79	3292.5	
275	5417.6	
275.21	5937.7	
275.42	4914.4	
275.63	4246.8	
275.84	5537	
276.05	6997.9	
276.26	3969	
276.47	3664.5	
276.68	5174.5	
276.89	6298.2	
277.1	4194.2	
277.31	3284.9	
277.52	5548.6	
277.73	5677.7	
277.94	3257	
278.15	3583.3	
278.36	5491.3	
278.57	4976.6	
278.78	3592.8	
278.99	4115.7	
279.2	4915.1	
279.41	4858.5	
279.62	4713.1	
279.83	3405.1	
280.04	6429.3	
280.25	4900.8	
280.46	4610.7	
280.67	3781.2	
280.88	4898.7	
281.09	5866.1	
281.3	3881.6	
281.51	4995	
281.72	4997.7	
281.93	5803.3	
282.14	3502.7	
282.35	3815.4	
282.56	5730.2	
282.77	5768.4	
282.98	3631	
283.19	4369.7	
283.4	6984.3	
283.61	5242.8	
283.82	3359.4	
284.03	4613.4	
284.24	5341.1	
284.45	5883.1	
284.66	4639.3	
284.87	4446.8	
285.08	5857.2	
285.29	5986.9	
285.5	3189.4	
285.71	3713	
285.92	5817.6	
286.12	6479.1	
286.33	4646.8	
286.54	3601	
286.75	5717.2	
286.96	5152	
287.17	3386	
287.38	4504.8	
287.59	4936.3	
287.8	4909.7	
288.01	3677.5	
288.22	4211.3	
288.43	5784.8	
288.64	4822.3	
288.85	4328.7	
289.06	4148.5	
289.27	5677	
289.48	6148.7	
289.69	4692.6	
289.9	4238.6	
290.11	5934.3	
290.32	4992.3	
290.53	4401.1	
290.74	4059.8	
290.94	5735	
291.15	5792.3	
291.36	3559.4	
291.57	4162.8	
291.78	5091.9	
291.99	4699.4	
292.2	3368.9	
292.41	4064.5	
292.62	5836	
292.83	5638.7	
293.04	4993.6	
293.25	3425.6	
293.46	5113.1	
293.67	5798.5	
293.88	3545.7	
294.09	3402.4	
294.29	4857.1	
294.5	5376.6	
294.71	3765.5	
294.92	3562.1	
295.13	5106.3	
295.34	6348.7	
295.55	3177.8	
295.76	3272	
295.97	5623	
296.18	6428.6	
296.39	3298.6	
296.6	3480.2	
296.81	5321.3	
297.01	5655.1	
297.22	3628.3	
297.43	3525.9	
297.64	4928.8	
297.85	4922.6	
298.06	2904.7	
298.27	3136.1	
298.48	5330.9	
298.69	5000.5	
298.9	3788.1	
299.11	3446	
299.31	4797.7	
299.52	4824.3	
299.73	4113	
299.94	3991.5	
300.15	5276.9	
300.36	4921.3	
300.57	4036.5	
300.78	3973.1	
300.99	5169.8	
301.2	5429.2	
301.4	3449.5	
301.61	3792.8	
301.82	5548.6	
302.03	5757.5	
302.24	4281.6	
302.45	3337.5	
302.66	5555.5	
302.87	5948.7	
303.08	3550.5	
303.29	4767	
303.49	5031.2	
303.7	5285.8	
303.91	3136.1	
304.12	4588.1	
304.33	4825	
304.54	5438.7	
304.75	3564.8	
304.96	3376.4	
305.16	5554.1	
305.37	6249.7	
305.58	3088.3	
305.79	3209.2	
306	5668.8	
306.21	4701.5	
306.42	3557.3	
306.63	5290.6	
306.83	5130.2	
307.04	5823.1	
307.25	3883.6	
307.46	3880.2	
307.67	4547.2	
307.88	5696.1	
308.09	3472	
308.29	3598.3	
308.5	5333.6	
308.71	5798.5	
308.92	3694.5	
309.13	3333.4	
309.34	5158.8	
309.55	5239.4	
309.75	4329.4	
309.96	4079.6	
310.17	5678.3	
310.38	5008.6	
310.59	4215.4	
310.8	3219.4	
311.01	5119.2	
311.21	5148.6	
311.42	3358	
311.63	3505.4	
311.84	5005.2	
312.05	5431.2	
312.26	3935.5	
312.46	4250.2	
312.67	5111	
312.88	4863.2	
313.09	3399.6	
313.3	3315	
313.51	6024.4	
313.71	6432.7	
313.92	3368.9	
314.13	3593.5	
314.34	5493.3	
314.55	5183.4	
314.76	4384	
314.96	3833.1	
315.17	5406	
315.38	5642.2	
315.59	3438.5	
315.8	3280.8	
316.01	6112.5	
316.21	6139.1	
316.42	3319.1	
316.63	3771.7	
316.84	5161.6	
317.05	5900.2	
317.26	4015.4	
317.46	3585.3	
317.67	5223	
317.88	5651.7	
318.09	4341.7	
318.3	3158.7	
318.5	4977.9	
318.71	5597.1	
318.92	5484.5	
319.13	4071.4	
319.34	5769.8	
319.54	5880.4	
319.75	3222.1	
319.96	3061.7	
320.17	5573.9	
320.38	5838.1	
320.58	3113.6	
320.79	3725.3	
321	5877.7	
321.21	5887.9	
321.42	3759.4	
321.62	3115	
321.83	4915.1	
322.04	5335.6	
322.25	3571.7	
322.46	3411.2	
322.66	5376.6	
322.87	5543.9	
323.08	4240	
323.29	3396.9	
323.5	6297.5	
323.7	4810.7	
323.91	4632.5	
324.12	4177.9	
324.33	5350.7	
324.53	5590.3	
324.74	4022.2	
324.95	4246.1	
325.16	4730.1	
325.37	5133.6	
325.57	3394.8	
325.78	3469.9	
325.99	5379.3	
326.2	4828.4	
326.4	4992.3	
326.61	3201.7	
326.82	5215.5	
327.03	5410.7	
327.24	4785.4	
327.44	4499.4	
327.65	5570.5	
327.86	4507.6	
328.07	4030.4	
328.27	3300.6	
328.48	5951.4	
328.69	4869.4	
328.9	4876.9	
329.1	3628.3	
329.31	5149.3	
329.52	6093.4	
329.73	3368.9	
329.93	3836.5	
330.14	5330.9	
330.35	5498.8	
330.56	5614.8	
330.76	4222.9	
330.97	5092.6	
331.18	5457.2	
331.39	3858.4	
331.59	3059.7	
331.8	5810.8	
332.01	5999.9	
332.22	3516.4	
332.42	4012.7	
332.63	5407.3	
332.84	5019.6	
333.05	3824.9	
333.25	3440.6	
333.46	5053.7	
333.67	5317.9	
333.88	3512.3	
334.08	3951.2	
334.29	6989	
334.5	5908.4	
334.7	3326.6	
334.91	4826.4	
335.12	4846.2	
335.33	5681.7	
335.53	3749.1	
335.74	5558.2	
335.95	5044.1	
336.16	4900.1	
336.36	3781.9	
336.57	4357.4	
336.78	4830.5	
336.98	5852.4	
337.19	4666.6	
337.4	3728	
337.61	6311.8	
337.81	4852.3	
338.02	3574.4	
338.23	4480.3	
338.43	6087.2	
338.64	4920.6	
338.85	3444.7	
339.05	4477.5	
339.26	6105.7	
339.47	4730.8	
339.68	3419.4	
339.88	5058.5	
340.09	5508.4	
340.3	5808.7	
340.5	4023.6	
340.71	3095.2	
340.92	4859.8	
341.13	5981.4	
341.33	3301.3	
341.54	4002.4	
341.75	5537.7	
341.95	5156.1	
342.16	3815.4	
342.37	4141.7	
342.57	4849.6	
342.78	5216.2	
342.99	4273.4	
343.19	3056.9	
343.4	5675.6	
343.61	5496.1	
343.81	3667.2	
344.02	3340.9	
344.23	5782.8	
344.43	6087.9	
344.64	4218.1	
344.85	4149.9	
345.06	5541.1	
345.26	5797.1	
345.47	3919.1	
345.68	4563.6	
345.88	4676.2	
346.09	5739.8	
346.3	4050.9	
346.5	3059.7	
346.71	5285.1	
346.92	4982.7	
347.12	3180.5	
347.33	3906.2	
347.54	5848.3	
347.74	6195.1	
347.95	3915	
348.16	2964.1	
348.36	5117.9	
348.57	4885.8	
348.78	3886.4	
348.98	4184	
349.19	5283.1	
349.39	4747.9	
349.6	3183.2	
349.81	3508.9	
350.01	5547.3	
350.22	5012.1	
350.43	3818.1	
350.63	4525.3	
350.84	5333.6	
351.05	5076.9	
351.25	3489.1	
351.46	3138.9	
351.67	5819.6	
351.87	5018.9	
352.08	3736.2	
352.29	4175.8	
352.49	5648.3	
352.7	5466.7	
352.9	3385.3	
353.11	4104.1	
353.32	6339.8	
353.52	5057.8	
353.73	3340.2	
353.94	4255.7	
354.14	5535.7	
354.35	5364.3	
354.55	3428.3	
354.76	3848.8	
354.97	5497.4	
355.17	5338.4	
355.38	3253.5	
355.59	4532.2	
355.79	4995.7	
356	5397.8	
356.2	3773.7	
356.41	3308.8	
356.62	4732.9	
356.82	5253.7	
357.03	4027.7	
357.24	3707.5	
357.44	5037.3	
357.65	5156.1	
357.85	4823	
358.06	3859.1	
358.27	4783.4	
358.47	5034.6	
358.68	3223.5	
358.88	4033.1	
359.09	5570.5	
359.3	5919.3	
359.5	4730.1	
359.71	4175.1	
359.91	6367.8	
360.12	5696.8	
360.33	4018.1	
360.53	4474.1	
360.74	5097.4	
360.94	5115.8	
361.15	4261.1	
361.36	3562.1	
361.56	5807.4	
361.77	5283.1	
361.97	4728.8	
362.18	3754.6	
362.38	5862	
362.59	4939	
362.8	3482.9	
363	3369.6	
363.21	4732.9	
363.41	5392.3	
363.62	3964.2	
363.83	5005.2	
364.03	5498.1	
364.24	6431.3	
364.44	5061.2	
364.65	4997	
364.85	5311.1	
365.06	4917.9	
365.27	3715	
365.47	3704.8	
365.68	6257.9	
365.88	5231.9	
366.09	4065.2	
366.29	3786	
366.5	5442.8	
366.71	5928.2	
366.91	4980.7	
367.12	4267.3	
367.32	6503.7	
367.53	5762.3	
367.73	4189.5	
367.94	5154.7	
368.14	5729.5	
368.35	6587	
368.56	4222.9	
368.76	3876.8	
368.97	5851.7	
369.17	7538.6	
369.38	3731.4	
369.58	3954.6	
369.79	4924.7	
369.99	6224.5	
370.2	4969.1	
370.4	4091.8	
370.61	5571.8	
370.82	6752.2	
371.02	3947.8	
371.23	3340.2	
371.43	4932.2	
371.64	6195.8	
371.84	3972.4	
372.05	5121.3	
372.25	7450.5	
372.46	5831.2	
372.66	4046.8	
372.87	3955.3	
373.07	5997.8	
373.28	7488.7	
373.48	5061.9	
373.69	4755.4	
373.9	5471.5	
374.1	5510.4	
374.31	4972.5	
374.51	4542.4	
374.72	6260.6	
374.92	5216.9	
375.13	5129.5	
375.33	4316.4	
375.54	5909.8	
375.74	5319.3	
375.95	4496.7	
376.15	5664	
376.36	6021	
376.56	5816.9	
376.77	4513	
376.97	4927.4	
377.18	6984.9	
377.38	6049	
377.59	5317.2	
377.79	4113.7	
378	5872.2	
378.2	6247.7	
378.41	4203.1	
378.61	4103.4	
378.82	6394.4	
379.02	5580	
379.23	4367.6	
379.43	5453.7	
379.64	6509.8	
379.84	6123.4	
380.05	4260.5	
380.25	4106.2	
380.46	6179.4	
380.66	5816.9	
380.87	5480.4	
381.07	5855.1	
381.28	6821.1	
381.48	6156.2	
381.69	4239.3	
381.89	4242.7	
382.1	5215.5	
382.3	6339.8	
382.51	5268.7	
382.71	6197.8	
382.91	6218.3	
383.12	6705.7	
383.32	4620.9	
383.53	4791.6	
383.73	6080.4	
383.94	5851.7	
384.14	4670.7	
384.35	3904.1	
384.55	5735	
384.76	6264.1	
384.96	4544.4	
385.17	4837.3	
385.37	6206	
385.58	5456.5	
385.78	4831.2	
385.98	3734.8	
386.19	5612.8	
386.39	6019.7	
386.6	4300.1	
386.8	4502.1	
387.01	6109.8	
387.21	6148.7	
387.42	4915.1	
387.62	5451.7	
387.83	5477.6	
388.03	6025.8	
388.23	4542.4	
388.44	5350.7	
388.64	5199.1	
388.85	5372.5	
389.05	4928.1	
389.26	5558.2	
389.46	7223.9	
389.67	6623.8	
389.87	4954	
390.07	5024.3	
390.28	5807.4	
390.48	5477.6	
390.69	4272.7	
390.89	4555.4	
391.1	5684.5	
391.3	6599.9	
391.5	5615.5	
391.71	6242.9	
391.91	6297.5	
392.12	7283.3	
392.32	5722	
392.53	4987.5	
392.73	5779.4	
392.93	5931.6	
393.14	4719.9	
393.34	5457.8	
393.55	6296.8	
393.75	5928.2	
393.95	4723.3	
394.16	4635.2	
394.36	5648.3	
394.57	6285.2	
394.77	4148.5	
394.98	4527.4	
395.18	5543.2	
395.38	5695.4	
395.59	5430.5	
395.79	4357.4	
396	5733.6	
396.2	6208.1	
396.4	5201.2	
396.61	5159.5	
396.81	6481.1	
397.02	5781.4	
397.22	5558.9	
397.42	5625.1	
397.63	6440.2	
397.83	5783.5	
398.04	4500.1	
398.24	4990.9	
398.44	6281.1	
398.65	5442.8	
398.85	4362.9	
399.05	4460.5	
399.26	5754.1	
399.46	7416.4	
399.67	4898.1	
399.87	4630.5	
400.07	6171.9	
400.28	6477.7	
400.48	4685.1	
400.69	5748	
400.89	6756.9	
401.09	7254.6	
401.3	4703.5	
401.5	5781.4	
401.7	7484	
401.91	7705.8	
402.11	5109.7	
402.32	5259.2	
402.52	6881.2	
402.72	6743.3	
402.93	5572.5	
403.13	4472.1	
403.33	7582.3	
403.54	6359.6	
403.74	5176.6	
403.94	5920.7	
404.15	6275.7	
404.35	7337.9	
404.56	4815.5	
404.76	6557.6	
404.96	6564.4	
405.17	6290	
405.37	6026.5	
405.57	5253.7	
405.78	6598.6	
405.98	6094.1	
406.18	4853	
406.39	5761.6	
406.59	6739.2	
406.79	6442.9	
407	4759.5	
407.2	4834.6	
407.4	6750.1	
407.61	6888.7	
407.81	4758.8	
408.01	6283.9	
408.22	5598.5	
408.42	7610.3	
408.62	5761.6	
408.83	5221	
409.03	6367.8	
409.23	6264.1	
409.44	5530.9	
409.64	5842.2	
409.84	7503.1	
410.05	7472.4	
410.25	5865.4	
410.45	5578	
410.66	7064.8	
410.86	9369.5	
411.06	6165.1	
411.27	6020.3	
411.47	9297.8	
411.67	7339.2	
411.88	6279.1	
412.08	6606.7	
412.28	8041	
412.49	8450.6	
412.69	6171.9	
412.89	6171.2	
413.09	8340.7	
413.3	8146.1	
413.5	6311.2	
413.7	5967.1	
413.91	7455.3	
414.11	8324.3	
414.31	6133	
414.52	6679.8	
414.72	8017.1	
414.92	7998.7	
415.12	6141.9	
415.33	6746	
415.53	8346.8	
415.73	8533.9	
415.94	7089.4	
416.14	6464.8	
416.34	7456.7	
416.55	7124.2	
416.75	7692.2	
416.95	7204.8	
417.15	8348.2	
417.36	9056.8	
417.56	7916.8	
417.76	6982.9	
417.97	8822	
418.17	8525	
418.37	6584.9	
418.57	6739.9	
418.78	8317.5	
418.98	8001.4	
419.18	7592.5	
419.38	7493.5	
419.59	8079.2	
419.79	7726.3	
419.99	6637.5	
420.2	6912.6	
420.4	8545.5	
420.6	8677.2	
420.8	6380.1	
421.01	6296.1	
421.21	8211	
421.41	8496.3	
421.61	6821.1	
421.82	6559.6	
422.02	7901.7	
422.22	8729.8	
422.42	7421.8	
422.63	6860	
422.83	7965.9	
423.03	9155.8	
423.23	6984.9	
423.44	6014.2	
423.64	8079.9	
423.84	7630	
424.04	6438.8	
424.25	6109.1	
424.45	8872.5	
424.65	8781	
424.85	5901.6	
425.06	6334.4	
425.26	8897.7	
425.46	7357.7	
425.66	6854.6	
425.87	6578.8	
426.07	8497.7	
426.27	8366	
426.47	6729.6	
426.67	6037.4	
426.88	8822.6	
427.08	8320.9	
427.28	6953.5	
427.48	5911.8	
427.69	7164.5	
427.89	7761.1	
428.09	6807.4	
428.29	6073.6	
428.5	8511.4	
428.7	8001.4	
428.9	5861.3	
429.1	6408.8	
429.3	7925.6	
429.51	8337.3	
429.71	6148.7	
429.91	6969.2	
430.11	8218.5	
430.31	8804.2	
430.52	6497.5	
430.72	6809.5	
430.92	8847.9	
431.12	8318.8	
431.32	6297.5	
431.53	6638.1	
431.73	7320.8	
431.93	8872.5	
432.13	6195.8	
432.33	6036.7	
432.54	7651.9	
432.74	8039.6	
432.94	5962.3	
433.14	6917.4	
433.34	8202.1	
433.55	7800.7	
433.75	6877.8	
433.95	8587.1	
434.15	8152.3	
434.35	7871	
434.56	6239.5	
434.76	5796.4	
434.96	8054.7	
435.16	8323.6	
435.36	6055.2	
435.56	7180.9	
435.77	7812.3	
435.97	7957	
436.17	7982.3	
436.37	7271.7	
436.57	7882.6	
436.78	7712.7	
436.98	8691.6	
437.18	7761.8	
437.38	8502.5	
437.58	8033.5	
437.78	7882.6	
437.99	6587	
438.19	8544.1	
438.39	9381.1	
438.59	6620.4	
438.79	6105.7	
438.99	9222	
439.2	8047.2	
439.4	6025.1	
439.6	6008.7	
439.8	8114.1	
440	9060.2	
440.2	6852.5	
440.4	7006.8	
440.61	8497.7	
440.81	8991.3	
441.01	6276.3	
441.21	7268.9	
441.41	9215.2	
441.61	8750.3	
441.81	7640.3	
442.02	8693.6	
442.22	9627.5	
442.42	8986.5	
442.62	6622.4	
442.82	6645.7	
443.02	9226.1	
443.22	8397.4	
443.43	6999.3	
443.63	6539.8	
443.83	8128.4	
444.03	8139.3	
444.23	7776.1	
444.43	7320.1	
444.63	8563.2	
444.83	9714.9	
445.04	6780.8	
445.24	7983.7	
445.44	8937.3	
445.64	9149	
445.84	7571.3	
446.04	7601.4	
446.24	8383	
446.44	9332.6	
446.65	6672.3	
446.85	7133.1	
447.05	8217.1	
447.25	9148.3	
447.45	6994.5	
447.65	6366.5	
447.85	8453.3	
448.05	7935.2	
448.25	7426.6	
448.46	7254.6	
448.66	8456.1	
448.86	8110.6	
449.06	6349.4	
449.26	7494.2	
449.46	8868.4	
449.66	7771.4	
449.86	6934.4	
450.06	6870.9	
450.26	8094.9	
450.47	8747.6	
450.67	7217	
450.87	7486	
451.07	8765.3	
451.27	8611.7	
451.47	6632.7	
451.67	7131	
451.87	8223.3	
452.07	9306.7	
452.27	6842.9	
452.47	6740.5	
452.67	8428.1	
452.88	9020.6	
453.08	6173.9	
453.28	8150.2	
453.48	9669.1	
453.68	8383.7	
453.88	6785.6	
454.08	6864.1	
454.28	8813.8	
454.48	8447.2	
454.68	7354.9	
454.88	7927.7	
455.08	8891.6	
455.28	8676.6	
455.48	6417	
455.68	7130.3	
455.89	9393.4	
456.09	9132.6	
456.29	6881.9	
456.49	7014.3	
456.69	9451.4	
456.89	8574.2	
457.09	7554.3	
457.29	7887.4	
457.49	8884.1	
457.69	9071.8	
457.89	7367.2	
458.09	6753.5	
458.29	8641.1	
458.49	9474.6	
458.69	7856	
458.89	7266.9	
459.09	9800.2	
459.29	9833.7	
459.49	7373.4	
459.69	8231.5	
459.9	9363.3	
460.1	8930.5	
460.3	7303.7	
460.5	7124.2	
460.7	9349.7	
460.9	8953.7	
461.1	6738.5	
461.3	7952.9	
461.5	9889.6	
461.7	9531.2	
461.9	7183.6	
462.1	7591.1	
462.3	9029.5	
462.5	9686.9	
462.7	7296.9	
462.9	7424.6	
463.1	10632	
463.3	10350	
463.5	7550.2	
463.7	8576.2	
463.9	9390.6	
464.1	9724.4	
464.3	7827.3	
464.5	8079.2	
464.7	10138	
464.9	9805	
465.1	9431.6	
465.3	8508.6	
465.5	10475	
465.7	10454	
465.9	8807.6	
466.1	8542.1	
466.3	10322	
466.5	10079	
466.7	9531.9	
466.9	8317.5	
467.1	10109	
467.3	10952	
467.5	9488.9	
467.7	8332.5	
467.9	11196	
468.1	12065	
468.3	9012.4	
468.5	9474.6	
468.7	10077	
468.9	10079	
469.1	8699.1	
469.3	9355.1	
469.5	12119	
469.7	9873.9	
469.9	9122.3	
470.1	8475.2	
470.3	10259	
470.5	10246	
470.7	9846	
470.9	8585.1	
471.1	10038	
471.3	10352	
471.5	8406.2	
471.69	10330	
471.89	9843.2	
472.09	9469.1	
472.29	9227.5	
472.49	9447.3	
472.69	9600.2	
472.89	10333	
473.09	8305.9	
473.29	8404.9	
473.49	9894.4	
473.69	9911.5	
473.89	9318.9	
474.09	8510.7	
474.29	11059	
474.49	10731	
474.69	9215.2	
474.89	8637	
475.09	9878.7	
475.29	9837.8	
475.49	7979.6	
475.69	8311.3	
475.88	11391	
476.08	10049	
476.28	7981.6	
476.48	8307.9	
476.68	10514	
476.88	10332	
477.08	8262.2	
477.28	8490.9	
477.48	9767.4	
477.68	10436	
477.88	7909.9	
478.08	8264.2	
478.28	10669	
478.48	9835	
478.67	8282	
478.87	7660.8	
479.07	10574	
479.27	9841.9	
479.47	8548.9	
479.67	8538	
479.87	10296	
480.07	10879	
480.27	7822.6	
480.47	9313.5	
480.67	9980.4	
480.87	10583	
481.06	8055.3	
481.26	8806.9	
481.46	10020	
481.66	9824.8	
481.86	8520.9	
482.06	9480.7	
482.26	9757.9	
482.46	10604	
482.66	8449.9	
482.86	8080.6	
483.05	9994.8	
483.25	9354.4	
483.45	10572	
483.65	8439.7	
483.85	9501.2	
484.05	9877.4	
484.25	8876.6	
484.45	9356.5	
484.65	10689	
484.84	10694	
485.04	8475.2	
485.24	8356.4	
485.44	10877	
485.64	9372.9	
485.84	7724.3	
486.04	9011.7	
486.24	9647.3	
486.44	10049	
486.63	7651.9	
486.83	8570.7	
487.03	9674.6	
487.23	9850	
487.43	7675.1	
487.63	10036	
487.83	9960.6	
488.02	10764	
488.22	8745.5	
488.42	9340.1	
488.62	10735	
488.82	9776.3	
489.02	8323.6	
489.22	8467.7	
489.41	10605	
489.61	10377	
489.81	8170.7	
490.01	8258.1	
490.21	10637	
490.41	11311	
490.61	8215.1	
490.8	8256	
491	10189	
491.2	9457.5	
491.4	9024	
491.6	8144.8	
491.8	10163	
491.99	10216	
492.19	7873.8	
492.39	8261.5	
492.59	10465	
492.79	10394	
492.99	8843.8	
493.18	7992.5	
493.38	10484	
493.58	11196	
493.78	8564.6	
493.98	8254.7	
494.18	10312	
494.37	9829.6	
494.57	9056.1	
494.77	9000.1	
494.97	10596	
495.17	10929	
495.37	8619.9	
495.56	8935.3	
495.76	11129	
495.96	10880	
496.16	9942.9	
496.36	8860.2	
496.55	11089	
496.75	10740	
496.95	9316.2	
497.15	9239.8	
497.35	11094	
497.54	11178	
497.74	9024	
497.94	10614	
498.14	11779	
498.34	11550	
498.53	8723	
498.73	9430.9	
498.93	10488	
499.13	10942	
499.33	9331.9	
499.52	9808.4	
499.72	11185	
499.92	11394	
500.12	9051.3	
500.32	9242.5	
500.51	11370	
500.71	11124	
500.91	10121	
501.11	9781.8	
501.31	11333	
501.5	11774	
501.7	10404	
501.9	9387.2	
502.1	11131	
502.29	11368	
502.49	9812.5	
502.69	10258	
502.89	11320	
503.09	11381	
503.28	8908	
503.48	9064.3	
503.68	10438	
503.88	10585	
504.07	9893.7	
504.27	9402.2	
504.47	10861	
504.67	10946	
504.86	9729.2	
505.06	9418.6	
505.26	10499	
505.46	12317	
505.65	9422.7	
505.85	9475.3	
506.05	10489	
506.25	10928	
506.44	8528.4	
506.64	9435	
506.84	10219	
507.04	11123	
507.23	8756.4	
507.43	9246.6	
507.63	12114	
507.83	10324	
508.02	9228.8	
508.22	8893.6	
508.42	12360	
508.62	10230	
508.81	9131.2	
509.01	9749	
509.21	9931.3	
509.4	10309	
509.6	9243.8	
509.8	8649.3	
510	10249	
510.19	11647	
510.39	8488.8	
510.59	8557.8	
510.79	10099	
510.98	11477	
511.18	8748.9	
511.38	8921	
511.57	10945	
511.77	10742	
511.97	9510.8	
512.17	8497.7	
512.36	10943	
512.56	10796	
512.76	8645.2	
512.95	8269.7	
513.15	10956	
513.35	9556.5	
513.55	9329.2	
513.74	8476.5	
513.94	10797	
514.14	10205	
514.33	9374.9	
514.53	9215.2	
514.73	10210	
514.92	10441	
515.12	8716.2	
515.32	8563.2	
515.51	10428	
515.71	10955	
515.91	10090	
516.11	8535.9	
516.3	11903	
516.5	10047	
516.7	9014.5	
516.89	9626.8	
517.09	10150	
517.29	10160	
517.48	9414.5	
517.68	8799.4	
517.88	9931.3	
518.07	10563	
518.27	9288.2	
518.47	8303.1	
518.66	11064	
518.86	9716.9	
519.06	8110.6	
519.25	8586.5	
519.45	9948.3	
519.65	11469	
519.84	9121	
520.04	9912.2	
520.24	11774	
520.43	10522	
520.63	8972.2	
520.83	8710	
521.02	9918.3	
521.22	10555	
521.42	9262.3	
521.61	9684.8	
521.81	10161	
522.01	10206	
522.2	8817.9	
522.4	8605.6	
522.6	10529	
522.79	9298.5	
522.99	8537.3	
523.18	8019.8	
523.38	10285	
523.58	10287	
523.77	9895.1	
523.97	8020.5	
524.17	12046	
524.36	11209	
524.56	9407	
524.76	9055.4	
524.95	10339	
525.15	10110	
525.34	8969.4	
525.54	9086.2	
525.74	10858	
525.93	9968.8	
526.13	10122	
526.33	8959.2	
526.52	11209	
526.72	10658	
526.91	10228	
527.11	9477.3	
527.31	11256	
527.5	11714	
527.7	9369.5	
527.89	8387.8	
528.09	10170	
528.29	10534	
528.48	9590.6	
528.68	9291.6	
528.87	11052	
529.07	11120	
529.27	9325.8	
529.46	8979.7	
529.66	10931	
529.85	11320	
530.05	8917.5	
530.25	9647.3	
530.44	12278	
530.64	10802	
530.83	9291	
531.03	9469.8	
531.23	11153	
531.42	10970	
531.62	10004	
531.81	9058.8	
532.01	11057	
532.21	11557	
532.4	8968.7	
532.6	9280.7	
532.79	12093	
532.99	11166	
533.18	9508.7	
533.38	10382	
533.58	10992	
533.77	11703	
533.97	9493	
534.16	10335	
534.36	11958	
534.55	10970	
534.75	10516	
534.95	9668.5	
535.14	11896	
535.34	11036	
535.53	9273.9	
535.73	11192	
535.92	12362	
536.12	11217	
536.31	9437.7	
536.51	10649	
536.71	11414	
536.9	10974	
537.1	9475.3	
537.29	9575.6	
537.49	11805	
537.68	10723	
537.88	9945.6	
538.07	9082.7	
538.27	10967	
538.46	12094	
538.66	9041.1	
538.86	9432.3	
539.05	11036	
539.25	11508	
539.44	9831.6	
539.64	9463	
539.83	11010	
540.03	11948	
540.22	9368.1	
540.42	9487.6	
540.61	11270	
540.81	11309	
541	9863.7	
541.2	10468	
541.39	10715	
541.59	11062	
541.78	10079	
541.98	9188.6	
542.18	10443	
542.37	10493	
542.57	9618.6	
542.76	10175	
542.96	10466	
543.15	11229	
543.35	9588.6	
543.54	8976.2	
543.74	11405	
543.93	10981	
544.13	9535.3	
544.32	10532	
544.52	11167	
544.71	10356	
544.91	8489.5	
545.1	9724.4	
545.3	10335	
545.49	10975	
545.69	8398	
545.88	9026.8	
546.08	11929	
546.27	11496	
546.47	9620	
546.66	8834.3	
546.86	11204	
547.05	11793	
547.24	8899.1	
547.44	8864.3	
547.63	10232	
547.83	11261	
548.02	9267.1	
548.22	9447.3	
548.41	10016	
548.61	11236	
548.8	8735.3	
549	8766.7	
549.19	10595	
549.39	11000	
549.58	8392.6	
549.78	8977.6	
549.97	10966	
550.17	10376	
550.36	9968.8	
550.55	10834	
550.75	10434	
550.94	11241	
551.14	8531.2	
551.33	8877.3	
551.53	9755.2	
551.72	10584	
551.92	8912.8	
552.11	8624.7	
552.31	10670	
552.5	10782	
552.69	10335	
552.89	8329.8	
553.08	10670	
553.28	10277	
553.47	8586.5	
553.67	9805.7	
553.86	11243	
554.06	9582.4	
554.25	7875.1	
554.44	8446.5	
554.64	11811	
554.83	11415	
555.03	8408.3	
555.22	8690.9	
555.42	10688	
555.61	10454	
555.8	8548.2	
556	8850	
556.19	9576.3	
556.39	10873	
556.58	8632.2	
556.78	8538.7	
556.97	10325	
557.16	9920.4	
557.36	9670.5	
557.55	8176.9	
557.75	9244.5	
557.94	11126	
558.13	8342.7	
558.33	8122.2	
558.52	10811	
558.72	9755.8	
558.91	8232.2	
559.1	8516.1	
559.3	9448	
559.49	9170.1	
559.69	7724.3	
559.88	8566.7	
560.07	10211	
560.27	10578	
560.46	8776.2	
560.66	8970.8	
560.85	10092	
561.04	9086.2	
561.24	8033.5	
561.43	8251.9	
561.63	9445.2	
561.82	9646.6	
562.01	9413.1	
562.21	8394.6	
562.4	10020	
562.59	11062	
562.79	8329.8	
562.98	7940	
563.18	9805.7	
563.37	11400	
563.56	8755.1	
563.76	7884.7	
563.95	9370.8	
564.14	9460.9	
564.34	8400.8	
564.53	8003.5	
564.73	9930.6	
564.92	10292	
565.11	8434.9	
565.31	7842.4	
565.5	10551	
565.69	9476	
565.89	8049.2	
566.08	8311.3	
566.27	10321	
566.47	10695	
566.66	8882.7	
566.85	7584.3	
567.05	10006	
567.24	9428.2	
567.44	8024.6	
567.63	9266.4	
567.82	10180	
568.02	9914.2	
568.21	7951.6	
568.4	8311.3	
568.6	9761.3	
568.79	9757.9	
568.98	7795.9	
569.18	7871	
569.37	9752.4	
569.56	11625	
569.76	8310	
569.95	9218.6	
570.14	10176	
570.34	10068	
570.53	7785.7	
570.72	7863.5	
570.91	10660	
571.11	9775	
571.3	8302.5	
571.49	9206.3	
571.69	9889.6	
571.88	9411.8	
572.07	8824	
572.27	8794.7	
572.46	9341.5	
572.65	10357	
572.85	8131.8	
573.04	8383	
573.23	10577	
573.43	9757.9	
573.62	7834.8	
573.81	8455.4	
574	9863	
574.2	9605.7	
574.39	8124.3	
574.58	8211	
574.78	10681	
574.97	9912.2	
575.16	8736	
575.36	8877.3	
575.55	10383	
575.74	10540	
575.93	7892.9	
576.13	8952.4	
576.32	9724.4	
576.51	10398	
576.71	8337.3	
576.9	10230	
577.09	10623	
577.28	10210	
577.48	8671.8	
577.67	7750.9	
577.86	9789.3	
578.05	10113	
578.25	8384.4	
578.44	8422.6	
578.63	9910.8	
578.83	11043	
579.02	7869	
579.21	9311.4	
579.4	10054	
579.6	9771.5	
579.79	8618.5	
579.98	10662	
580.17	10446	
580.37	10544	
580.56	7950.2	
580.75	8705.9	
580.94	10927	
581.14	10792	
581.33	9215.2	
581.52	8030.1	
581.71	10277	
581.91	10891	
582.1	7765.9	
582.29	8351.6	
582.48	9957.9	
582.68	9912.9	
582.87	8876.6	
583.06	8475.9	
583.25	10215	
583.45	9678.7	
583.64	9197.4	
583.83	9851.4	
584.02	9790.7	
584.21	10181	
584.41	9056.8	
584.6	8357.1	
584.79	9921	
584.98	10637	
585.18	7874.4	
585.37	7974.1	
585.56	9506	
585.75	10321	
585.94	8082.6	
586.14	8783.1	
586.33	10922	
586.52	9891	
586.71	8583.7	
586.91	8404.9	
587.1	9366.7	
587.29	10340	
587.48	8204.8	
587.67	8161.2	
587.87	10142	
588.06	10218	
588.25	9389.9	
588.44	8687.5	
588.63	9718.3	
588.83	10372	
589.02	8248.5	
589.21	8077.9	
589.4	9604.3	
589.59	9540.1	
589.78	7497.6	
589.98	7668.3	
590.17	9215.2	
590.36	9740.1	
590.55	7074.4	
590.74	7800.7	
590.94	10891	
591.13	9458.9	
591.32	7511.3	
591.51	6977.4	
591.7	9771.5	
591.89	9161.9	
592.09	7047.7	
592.28	7481.2	
592.47	8444.5	
592.66	10382	
592.85	7068.2	
593.05	7361.8	
593.24	9086.2	
593.43	9852.1	
593.62	7401.4	
593.81	7881.9	
594	9140.1	
594.19	9343.5	
594.39	7325.6	
594.58	7262.8	
594.77	9424.8	
594.96	10028	
595.15	7256	
595.34	7888.8	
595.54	9499.2	
595.73	8621.9	
595.92	6660	
596.11	7715.4	
596.3	9912.2	
596.49	8712.1	
596.68	7357.7	
596.88	7907.2	
597.07	9631.6	
597.26	8512.7	
597.45	6946.7	
597.64	8178.9	
597.83	8736.6	
598.02	9334	
598.22	7036.1	
598.41	7665.5	
598.6	9159.9	
598.79	8542.8	
598.98	7112.6	
599.17	7996.6	
599.36	9106	
599.55	10159	
599.74	8997.4	
599.94	8777.6	
600.13	9671.9	
600.32	8460.2	
600.51	6764.4	
600.7	6912.6	
600.89	10189	
601.08	10264	
601.27	6655.2	
601.47	7606.2	
601.66	9428.8	
601.85	10093	
602.04	7395.2	
602.23	7622.5	
602.42	8641.7	
602.61	9194.7	
602.8	7337.2	
602.99	7006.8	
603.18	8791.9	
603.37	9116.9	
603.57	7604.8	
603.76	8107.9	
603.95	9834.3	
604.14	9278.7	
604.33	7047.1	
604.52	7348.1	
604.71	8942.1	
604.9	8665	
605.09	8226.7	
605.28	7805.5	
605.47	9635.7	
605.66	9237.7	
605.86	7604.1	
606.05	6950.1	
606.24	9619.3	
606.43	8119.5	
606.62	7427.3	
606.81	8098.4	
607	9421.3	
607.19	8762.6	
607.38	6769.9	
607.57	6939.9	
607.76	8563.2	
607.95	8164.6	
608.14	7402	
608.33	7918.1	
608.52	8488.8	
608.72	9377	
608.91	6742.6	
609.1	6563.7	
609.29	8668.4	
609.48	8163.9	
609.67	7503.8	
609.86	6642.2	
610.05	8264.2	
610.24	8535.9	
610.43	6474.3	
610.62	6171.2	
610.81	9648	
611	9314.8	
611.19	6571.2	
611.38	7314.7	
611.57	8797.4	
611.76	9985.9	
611.95	6419.7	
612.14	6264.1	
612.33	8602.8	
612.52	8168	
612.71	6932.4	
612.9	6122.1	
613.09	7805.5	
613.28	9993.4	
613.47	6738.5	
613.66	7593.9	
613.85	8743.5	
614.04	8157.1	
614.24	6677.7	
614.43	5940.5	
614.62	8853.4	
614.81	8736	
615	7187	
615.19	7230	
615.38	8069.7	
615.57	8451.3	
615.76	7085.3	
615.95	8032.8	
616.14	8867.7	
616.33	8583	
616.52	7349.5	
616.71	7548.1	
616.9	8874.5	
617.09	8495.7	
617.28	6739.2	
617.47	7915.4	
617.66	7883.3	
617.85	7887.4	
618.04	7587	
618.22	7079.1	
618.41	8198	
618.6	9019.3	
618.79	7040.2	
618.98	6647.7	
619.17	9361.3	
619.36	7785	
619.55	6905.8	
619.74	6956.3	
619.93	8657.4	
620.12	8096.3	
620.31	7423.9	
620.5	7535.2	
620.69	9595.4	
620.88	9607	
621.07	8212.4	
621.26	7316.7	
621.45	8775.5	
621.64	8847.9	
621.83	7404.8	
622.02	6574.7	
622.21	8929.8	
622.4	8676.6	
622.59	7882.6	
622.78	7733.1	
622.97	8286.1	
623.16	9174.9	
623.35	7374.7	
623.54	6522.8	
623.72	8512	
623.91	8558.5	
624.1	7580.2	
624.29	6398.5	
624.48	9683.5	
624.67	8921	
624.86	7526.3	
625.05	6602	
625.24	9817.3	
625.43	8258.1	
625.62	9220	
625.81	6744.6	
626	9226.8	
626.19	8478.6	
626.38	7549.5	
626.56	7010.2	
626.75	8343.4	
626.94	9080	
627.13	7586.4	
627.32	6406	
627.51	9000.1	
627.7	10241	
627.89	6340.5	
628.08	7567.9	
628.27	8202.8	
628.46	8442.4	
628.65	6705	
628.83	6380.8	
629.02	8915.5	
629.21	8183.7	
629.4	7135.1	
629.59	7322.2	
629.78	8235.6	
629.97	9116.2	
630.16	7329.7	
630.35	6839.5	
630.54	9553.1	
630.72	9277.3	
630.91	6932.4	
631.1	7347.4	
631.29	8692.9	
631.48	8863.6	
631.67	7476.5	
631.86	6924.9	
632.05	8272.4	
632.24	8384.4	
632.42	6599.2	
632.61	7244.3	
632.8	8481.3	
632.99	8057.4	
633.18	7216.4	
633.37	7544	
633.56	8699.1	
633.75	8583	
633.93	7166.5	
634.12	6784.2	
634.31	9413.8	
634.5	9019.9	
634.69	6830.7	
634.88	7352.9	
635.07	8480.6	
635.25	8976.2	
635.44	7768.6	
635.63	7891.5	
635.82	8323.6	
636.01	7787.7	
636.2	7574.8	
636.39	7185.6	
636.57	9374.9	
636.76	9116.2	
636.95	6632	
637.14	8051.9	
637.33	8699.8	
637.52	9539.4	
637.7	6520.7	
637.89	7385.7	
638.08	8362.5	
638.27	9697.1	
638.46	7462.8	
638.65	7899	
638.83	9699.2	
639.02	8170.7	
639.21	7439.6	
639.4	7845.1	
639.59	8683.4	
639.78	8274.5	
639.96	6679.1	
640.15	6721.4	
640.34	8489.5	
640.53	8693.6	
640.72	6427.9	
640.91	6756.2	
641.09	7925	
641.28	9135.3	
641.47	6688.7	
641.66	7546.8	
641.85	8507.3	
642.03	8768.7	
642.22	7221.1	
642.41	6726.2	
642.6	7952.9	
642.79	7463.5	
642.97	6609.5	
643.16	7277.1	
643.35	8013.7	
643.54	7883.3	
643.73	6426.5	
643.91	7314.7	
644.1	7755	
644.29	8287.4	
644.48	6643.6	
644.67	6610.2	
644.85	7955	
645.04	8254.7	
645.23	6254.5	
645.42	6470.9	
645.6	7851.2	
645.79	8835.6	
645.98	6457.9	
646.17	5560.2	
646.36	7441.6	
646.54	8098.4	
646.73	7313.3	
646.92	6156.2	
647.11	7742	
647.29	8780.3	
647.48	6197.8	
647.67	5918.6	
647.86	8954.4	
648.05	8910	
648.23	6476.4	
648.42	7709.9	
648.61	8274.5	
648.8	7974.8	
648.98	6034.7	
649.17	6357.6	
649.36	7647.8	
649.55	7073.7	
649.73	6119.3	
649.92	6830.7	
650.11	7440.3	
650.3	7849.9	
650.48	6154.8	
650.67	5877	
650.86	8073.8	
651.05	7015.7	
651.23	6132.3	
651.42	6158.2	
651.61	7552.9	
651.79	7651.2	
651.98	6314.6	
652.17	5950	
652.36	7990.5	
652.54	7082.6	
652.73	6033.3	
652.92	5817.6	
653.11	7969.3	
653.29	8097	
653.48	5321.3	
653.67	6240.2	
653.85	7806.9	
654.04	8860.2	
654.23	6582.2	
654.42	6124.8	
654.6	7344.7	
654.79	7918.8	
654.98	5606.7	
655.16	6122.1	
655.35	6982.2	
655.54	6892.1	
655.73	5651	
655.91	5459.2	
656.1	7982.3	
656.29	6740.5	
656.47	4979.3	
656.66	6644.3	
656.85	7060	
657.03	7088	
657.22	5487.9	
657.41	5633.3	
657.59	7134.4	
657.78	6911.9	
657.97	5310.4	
658.16	5992.4	
658.34	7866.9	
658.53	8097.7	
658.72	6877.8	
658.9	7337.2	
659.09	7167.9	
659.28	7288	
659.46	5745.9	
659.65	5640.1	
659.84	7062.1	
660.02	7575.4	
660.21	5544.5	
660.4	5573.2	
660.58	7911.3	
660.77	7339.9	
660.96	6137.8	
661.14	5272.2	
661.33	8361.9	
661.52	8300.4	
661.7	5194.3	
661.89	8728.4	
662.08	6995.2	
662.26	6580.8	
662.45	5415.5	
662.64	5639.4	
662.82	7606.8	
663.01	6845.7	
663.2	5564.3	
663.38	6319.3	
663.57	7530.4	
663.75	7462.1	
663.94	5849	
664.13	7061.4	
664.31	6894.8	
664.5	7555	
664.69	6010.1	
664.87	6603.3	
665.06	6652.5	
665.25	7363.8	
665.43	6864.8	
665.62	6976.7	
665.8	7669	
665.99	7084.6	
666.18	5840.1	
666.36	5967.8	
666.55	7672.4	
666.74	7552.9	
666.92	5459.9	
667.11	7077.8	
667.29	6972.7	
667.48	7612.3	
667.67	6668.2	
667.85	5703.6	
668.04	7057.3	
668.22	6980.8	
668.41	5943.9	
668.6	6033.3	
668.78	6828.6	
668.97	7090.1	
669.15	6241.5	
669.34	5189.6	
669.53	6884.6	
669.71	7206.1	
669.9	5426.4	
670.08	6021.7	
670.27	6867.5	
670.46	7393.2	
670.64	6212.2	
670.83	6518	
671.01	6687.3	
671.2	7275.8	
671.38	5456.5	
671.57	5316.5	
671.76	7925.6	
671.94	8406.2	
672.13	5231.9	
672.31	6364.4	
672.5	7524.2	
672.69	6820.4	
672.87	5503.6	
673.06	5749.3	
673.24	7375.4	
673.43	6836.8	
673.61	6171.2	
673.8	5801.9	
673.98	7562.5	
674.17	7675.1	
674.36	6331.6	
674.54	6154.1	
674.73	7235.5	
674.91	7504.4	
675.1	5877.7	
675.28	5539.1	
675.47	7047.1	
675.65	7526.3	
675.84	5663.3	
676.03	5950.7	
676.21	6799.3	
676.4	6395.8	
676.58	6553.5	
676.77	6208.8	
676.95	8194.6	
677.14	6760.3	
677.32	5440.1	
677.51	5231.9	
677.69	7565.2	
677.88	6393.8	
678.06	5292	
678.25	5347.9	
678.44	7004.7	
678.62	6782.9	
678.81	5096.7	
678.99	5977.3	
679.18	7821.2	
679.36	7332.4	
679.55	5637.4	
679.73	6252.4	
679.92	7282.6	
680.1	6789.7	
680.29	6840.9	
680.47	5647.6	
680.66	6630.6	
680.84	7421.8	
681.03	5046.9	
681.21	6026.5	
681.4	6797.2	
681.58	6578.8	
681.77	5373.9	
681.95	5313.8	
682.14	7606.2	
682.32	7906.5	
682.51	6145.3	
682.69	5132.9	
682.88	6670.2	
683.06	7256.6	
683.25	5816.9	
683.43	6374	
683.62	6896.2	
683.8	7353.6	
683.99	6482.5	
684.17	5786.2	
684.36	8187.1	
684.54	6916	
684.73	5127.4	
684.91	5350.7	
685.1	7268.9	
685.28	6666.1	
685.46	5827.2	
685.65	5901.6	
685.83	7435.5	
686.02	6785.6	
686.2	5255.8	
686.39	5310.4	
686.57	6436.1	
686.76	7976.8	
686.94	5220.3	
687.13	5381.4	
687.31	7231.4	
687.5	6771.3	
687.68	4835.9	
687.86	6150.7	
688.05	8394.6	
688.23	6281.1	
688.42	6085.9	
688.6	5282.4	
688.79	6602	
688.97	6698.9	
689.16	5638.1	
689.34	4739.7	
689.52	7346.1	
689.71	7541.3	
689.89	5939.8	
690.08	5255.8	
690.26	6928.3	
690.45	6790.4	
690.63	6150.7	
690.81	5489.2	
691	6654.5	
691.18	6582.2	
691.37	5634.6	
691.55	7772.7	
691.74	6610.8	
691.92	8520.2	
692.1	5586.9	
692.29	5074.2	
692.47	6804.7	
692.66	6091.3	
692.84	5217.5	
693.02	5730.2	
693.21	6204.7	
693.39	6670.2	
693.58	5814.2	
693.76	5165.7	
693.94	7806.9	
694.13	7546.1	
694.31	5174.5	
694.5	6164.4	
694.68	6425.2	
694.86	6759.7	
695.05	5520.6	
695.23	5669.5	
695.42	7101	
695.6	9422	
695.78	6152.8	
695.97	5303.6	
696.15	7144.7	
696.34	6588.3	
696.52	5070.8	
696.7	5887.2	
696.89	6931.7	
697.07	6392.4	
697.25	5820.3	
697.44	7262.1	
697.62	6901.7	
697.81	7263.5	
697.99	5556.8	
698.17	5955.5	
698.36	6214.2	
698.54	6909.8	
698.72	5767.1	
698.91	4838	
699.09	6509.1	
699.28	6371.2	
699.46	5498.8	
699.64	5311.1	
699.83	6292.7	
700.01	7465.5	
700.19	6094.1	
700.38	4550.6	
700.56	7458	
700.74	6366.5	
700.93	4898.7	
701.11	5751.4	
701.29	6903	
701.48	7881.9	
701.66	5170.4	
701.84	5131.5	
702.03	6453.8	
702.21	7076.4	
702.39	4721.9	
702.58	5315.2	
702.76	6866.2	
702.94	6924.2	
703.13	4807.9	
703.31	7065.5	
703.49	6217.6	
703.68	7451.9	
703.86	4878.3	
704.04	5863.3	
704.23	6768.5	
704.41	7066.2	
704.59	5039.4	
704.78	6293.4	
704.96	7781.6	
705.14	7166.5	
705.33	4800.4	
705.51	5653.1	
705.69	6455.2	
705.87	7309.9	
706.06	5875.6	
706.24	4757.4	
706.42	6754.9	
706.61	7057.3	
706.79	5859.9	
706.97	4781.3	
707.16	6231.3	
707.34	6815	
707.52	5851.7	
707.7	5050.3	
707.89	6342.6	
708.07	6078.4	
708.25	5825.1	
708.44	6152.8	
708.62	6240.8	
708.8	7335.1	
708.98	6096.8	
709.17	5054.4	
709.35	6681.8	
709.53	6637.5	
709.72	4822.3	
709.9	5254.4	
710.08	6847	
710.26	6955.6	
710.45	6371.2	
710.63	5020.3	
710.81	6587	
710.99	6603.3	
711.18	5662	
711.36	5146.5	
711.54	6382.8	
711.72	7174	
711.91	5281.7	
712.09	4761.5	
712.27	6576	
712.45	7191.1	
712.64	5575.3	
712.82	4581.3	
713	6125.5	
713.18	6273.6	
713.37	4717.8	
713.55	5863.3	
713.73	7132.4	
713.91	5788.2	
714.1	5199.1	
714.28	4758.1	
714.46	6876.4	
714.64	6128.9	
714.83	4156	
715.01	4962.9	
715.19	6210.1	
715.37	5638.1	
715.55	4683	
715.74	4938.3	
715.92	7055.3	
716.1	5159.5	
716.28	5994.4	
716.47	5154.7	
716.65	5827.8	
716.83	5873.6	
717.01	4918.5	
717.19	4994.3	
717.38	7873.8	
717.56	5513.8	
717.74	5142.4	
717.92	4258.4	
718.1	6660.7	
718.29	5894.7	
718.47	3888.4	
718.65	4544.4	
718.83	6485.9	
719.01	6450.4	
719.2	3745.1	
719.38	4777.9	
719.56	6123.4	
719.74	7645.1	
719.92	4386.1	
720.11	5509	
720.29	6298.9	
720.47	5471.5	
720.65	4017.4	
720.83	4909	
721.02	5810.8	
721.2	5600.5	
721.38	4950.6	
721.56	4227.7	
721.74	5090.6	
721.92	5369.8	
722.11	5443.5	
722.29	5115.1	
722.47	6476.4	
722.65	5722.7	
722.83	4237.9	
723.01	5079.6	
723.2	5748	
723.38	6016.9	
723.56	3693.2	
723.74	4817.5	
723.92	5300.8	
724.1	6445.6	
724.29	4164.9	
724.47	5262.6	
724.65	5342.5	
724.83	5274.9	
725.01	4029.7	
725.19	4913.1	
725.37	5308.3	
725.56	5339.7	
725.74	3857	
725.92	4126.7	
726.1	5199.8	
726.28	5545.9	
726.46	4582	
726.64	4260.5	
726.83	5523.4	
727.01	5781.4	
727.19	3822.2	
727.37	4680.3	
727.55	5584.8	
727.73	6153.5	
727.91	3833.1	
728.09	3636.5	
728.28	6169.2	
728.46	6596.5	
728.64	4704.2	
728.82	4751.3	
729	7111.2	
729.18	6370.5	
729.36	3858.4	
729.54	6176.7	
729.72	7366.5	
729.91	5654.4	
730.09	5706.3	
730.27	4532.2	
730.45	5517.9	
730.63	6196.5	
730.81	5061.2	
730.99	4106.9	
731.17	6633.4	
731.35	5255.1	
731.53	4666	
731.71	4255.7	
731.9	6402	
732.08	6594.5	
732.26	4536.3	
732.44	4237.2	
732.62	6587	
732.8	6138.4	
732.98	4966.3	
733.16	3991.5	
733.34	6158.2	
733.52	4949.9	
733.7	4553.3	
733.88	4787.5	
734.07	5956.2	
734.25	5723.4	
734.43	3992.2	
734.61	5507	
734.79	7166.5	
734.97	5572.5	
735.15	4111	
735.33	4437.3	
735.51	5957.5	
735.69	5564.3	
735.87	5552	
736.05	4646.2	
736.23	5830.6	
736.41	5549.3	
736.59	4464.6	
736.77	4571.7	
736.95	6275.7	
737.13	5725.4	
737.32	4074.1	
737.5	4332.1	
737.68	6701	
737.86	5543.2	
738.04	3896.6	
738.22	5806.7	
738.4	5350.7	
738.58	5671.5	
738.76	4554.7	
738.94	3549.8	
739.12	5415.5	
739.3	5318.6	
739.48	5145.9	
739.66	4771.1	
739.84	5726.1	
740.02	5655.1	
740.2	3551.9	
740.38	3920.5	
740.56	6090.7	
740.74	4973.8	
740.92	4603.8	
741.1	4529.4	
741.28	5597.1	
741.46	5358.9	
741.64	4145.8	
741.82	4704.9	
742	5569.8	
742.18	5512.4	
742.36	4388.1	
742.54	3996.3	
742.72	6095.4	
742.9	4867.3	
743.08	4767.7	
743.26	3601.7	
743.44	6336.4	
743.62	6127.5	
743.8	4934.9	
743.98	3996.3	
744.16	5884.5	
744.34	5550.7	
744.52	4915.1	
744.7	4700.1	
744.88	6062.7	
745.06	5593.7	
745.24	4870.8	
745.42	4984.1	
745.6	6115.9	
745.78	5902.9	
745.96	3769.6	
746.14	4070	
746.32	6872.3	
746.5	6139.1	
746.68	4606.6	
746.86	4123.2	
747.03	6530.3	
747.21	4939.7	
747.39	4638.6	
747.57	4095.3	
747.75	5788.2	
747.93	6189.6	
748.11	4100.7	
748.29	3997	
748.47	7290.8	
748.65	5517.2	
748.83	4802.5	
749.01	4457.7	
749.19	5979.4	
749.37	5141.1	
749.55	4364.2	
749.73	4493.2	
749.91	5619.6	
750.09	5418.2	
750.26	4488.5	
750.44	3953.3	
750.62	5687.2	
750.8	5603.2	
750.98	3850.9	
751.16	4102.1	
751.34	5741.1	
751.52	5057.8	
751.7	4919.9	
751.88	3775.8	
752.06	6216.3	
752.24	5961	
752.42	3781.2	
752.59	4087.7	
752.77	5602.6	
752.95	6892.1	
753.13	4844.1	
753.31	4154.6	
753.49	5280.3	
753.67	5807.4	
753.85	4490.5	
754.03	4118.5	
754.21	5969.1	
754.38	6388.3	
754.56	4337.6	
754.74	3398.3	
754.92	5360.9	
755.1	6096.8	
755.28	3524.6	
755.46	3581.9	
755.64	6959.7	
755.82	7021.1	
755.99	3953.3	
756.17	4123.9	
756.35	4729.4	
756.53	6257.9	
756.71	3062.4	
756.89	3901.4	
757.07	5829.2	
757.25	4994.3	
757.42	4392.9	
757.6	5330.9	
757.78	5827.2	
757.96	4883.7	
758.14	4122.6	
758.32	3567.6	
758.5	4490.5	
758.67	5274.2	
758.85	3966.9	
759.03	4067.9	
759.21	5440.1	
759.39	4905.6	
759.57	3539.6	
759.75	4704.9	
759.92	5997.8	
760.1	5375.2	
760.28	4962.9	
760.46	5255.8	
760.64	5096.7	
760.82	4853.7	
760.99	4761.5	
761.17	3910.9	
761.35	5868.1	
761.53	4888.5	
761.71	4040.6	
761.89	4759.5	
762.06	5670.1	
762.24	5217.5	
762.42	4147.1	
762.6	3849.5	
762.78	5193.6	
762.96	5844.9	
763.13	4440.7	
763.31	4124.6	
763.49	6027.2	
763.67	5163.6	
763.85	4982.7	
764.02	5551.4	
764.2	6264.7	
764.38	5408.7	
764.56	4027	
764.74	4887.1	
764.91	6318.7	
765.09	5253	
765.27	3753.2	
765.45	3540.3	
765.63	6399.2	
765.8	6215.6	
765.98	3289	
766.16	3614.7	
766.34	4898.1	
766.52	4616.1	
766.69	4539.7	
766.87	3454.2	
767.05	5225.1	
767.23	5975.3	
767.41	3776.5	
767.58	4067.3	
767.76	5898.1	
767.94	5933.6	
768.12	3885	
768.29	4552.6	
768.47	5382.1	
768.65	6059.9	
768.83	3486.3	
769	4727.4	
769.18	4995.7	
769.36	5620.3	
769.54	4674.8	
769.72	3635.1	
769.89	5872.2	
770.07	6043.6	
770.25	3917.8	
770.43	5186.1	
770.6	6693.4	
770.78	7059.3	
770.96	4149.9	
771.14	4792.2	
771.31	5821.7	
771.49	5238.7	
771.67	3311.6	
771.85	3541.6	
772.02	4513.7	
772.2	5259.2	
772.38	4302.8	
772.55	3768.3	
772.73	5569.8	
772.91	5387.5	
773.09	4148.5	
773.26	4341	
773.44	5558.9	
773.62	5157.5	
773.8	3713.6	
773.97	3468.6	
774.15	5578	
774.33	5202.5	
774.5	3610.6	
774.68	3975.8	
774.86	5756.2	
775.04	5194.3	
775.21	3614.7	
775.39	3728	
775.57	5509.7	
775.74	5954.8	
775.92	3544.4	
776.1	3412.6	
776.27	5489.2	
776.45	6694.1	
776.63	3771	
776.81	3285.6	
776.98	5176.6	
777.16	6239.5	
777.34	3897.3	
777.51	4195.6	
777.69	5169.8	
777.87	4960.9	
778.04	3907.5	
778.22	4502.8	
778.4	5044.8	
778.57	5601.2	
778.75	3218.7	
778.93	3585.3	
779.1	4795.7	
779.28	4622.3	
779.46	3254.2	
779.64	3672.7	
779.81	5802.6	
779.99	6666.1	
780.17	4497.3	
780.34	4657.8	
780.52	5267.4	
780.69	5440.1	
780.87	4016.1	
781.05	3642.7	
781.22	5317.9	
781.4	5421	
781.58	3811.3	
781.75	3003.7	
781.93	5403.2	
782.11	4844.8	
782.28	4612.7	
782.46	3747.8	
782.64	4646.8	
782.81	5543.9	
782.99	3893.2	
783.17	3822.9	
783.34	5522	
783.52	4647.5	
783.69	4009.2	
783.87	4905.6	
784.05	4831.2	
784.22	4852.3	
784.4	4753.3	
784.58	4171.7	
784.75	5708.4	
784.93	4870.8	
785.1	3863.2	
785.28	4443.4	
785.46	5484.5	
785.63	4805.2	
785.81	3778.5	
785.99	3643.3	
786.16	4958.8	
786.34	5347.9	
786.51	3687.7	
786.69	4105.5	
786.87	4584.7	
787.04	5129.5	
787.22	3557.3	
787.39	4471.4	
787.57	4784.1	
787.75	5864.7	
787.92	4708.3	
788.1	4605.2	
788.27	4906.3	
788.45	4646.8	
788.63	4344.4	
788.8	3050.1	
788.98	5251	
789.15	4543.1	
789.33	3218.7	
789.5	3948.5	
789.68	5743.2	
789.86	5913.9	
790.03	4227	
790.21	3702	
790.38	5799.8	
790.56	5008.6	
790.73	3625.6	
790.91	3627	
791.09	4806.6	
791.26	5594.4	
791.44	3839.3	
791.61	3265.1	
791.79	4867.3	
791.96	4881	
792.14	3448.8	
792.32	2985.3	
792.49	4880.3	
792.67	4999.1	
792.84	3472	
793.02	3287.7	
793.19	5577.3	
793.37	6027.2	
793.54	2981.2	
793.72	3381.2	
793.89	6168.5	
794.07	4885.1	
794.25	3961.5	
794.42	3110.2	
794.6	5879	
794.77	5542.5	
794.95	4206.5	
795.12	3727.3	
795.3	4831.8	
795.47	5463.3	
795.65	4016.7	
795.82	3894.6	
796	4728.1	
796.17	6556.9	
796.35	3794.2	
796.52	4472.1	
796.7	5442.8	
796.87	5522	
797.05	4713.1	
797.22	4636.6	
797.4	5474.9	
797.57	6478.4	
797.75	3902.7	
797.92	3682.9	
798.1	5779.4	
798.27	4839.4	
798.45	3173	
798.62	3409.9	
798.8	5242.8	
798.97	5698.1	
799.15	4143	
799.32	3916.4	
799.5	4457.7	
799.67	5241.4	
799.85	4264.6	
800.02	3104	
800.2	4844.1	
800.37	5186.1	
800.55	4476.9	
800.72	3689.8	
800.9	5632.6	
801.07	6011.5	
801.25	4956.1	
801.42	4089.1	
801.6	5657.2	
801.77	5402.5	
801.95	3775.8	
802.12	3664.5	
802.29	5317.2	
802.47	5357.5	
802.64	4037.2	
802.82	3009.8	
802.99	4877.6	
803.17	5857.2	
803.34	3920.5	
803.52	3521.1	
803.69	6374	
803.87	4654.4	
804.04	3886.4	
804.21	3948.5	
804.39	5975.3	
804.56	5058.5	
804.74	3304.7	
804.91	4055	
805.09	4877.6	
805.26	4973.8	
805.44	3374.4	
805.61	3777.8	
805.78	5550.7	
805.96	5638.7	
806.13	4054.3	
806.31	4332.1	
806.48	4438.6	
806.66	4977.9	
806.83	4033.1	
807	4073.4	
807.18	4901.5	
807.35	5298.1	
807.53	3977.8	
807.7	3117.7	
807.87	6030.6	
808.05	4896.7	
808.22	4385.4	
808.4	3241.9	
808.57	4902.2	
808.74	4573.8	
808.92	3615.3	
809.09	4608.6	
809.27	4828.4	
809.44	5401.9	
809.61	3218	
809.79	3589.4	
809.96	6066.8	
810.14	5636.7	
810.31	3091.1	
810.48	3837.9	
810.66	5060.5	
810.83	5778.7	
811.01	3639.2	
811.18	4031.1	
811.35	5719.3	
811.53	4441.4	
811.7	4425.7	
811.87	4092.5	
812.05	4955.4	
812.22	4822.3	
812.39	3547.1	
812.57	3390.8	
812.74	4991.6	
812.92	6591	
813.09	3855	
813.26	4143.7	
813.44	6313.2	
813.61	4895.3	
813.78	3187.3	
813.96	4291.9	
814.13	4968.4	
814.3	4678.9	
814.48	4639.3	
814.65	3829.7	
814.82	6148.7	
815	4743.1	
815.17	3910.9	
815.34	4846.9	
815.52	4863.9	
815.69	4880.3	
815.87	3852.9	
816.04	3351.2	
816.21	5001.1	
816.38	4386.7	
816.56	3784	
816.73	3506.8	
816.9	6274.3	
817.08	5671.5	
817.25	3565.5	
817.42	4464.6	
817.6	4544.4	
817.77	4958.8	
817.94	3974.4	
818.12	3454.2	
818.29	4685.8	
818.46	7352.9	
818.64	3655.6	
818.81	3430.3	
818.98	4621.6	
819.16	6767.9	
819.33	4200.4	
819.5	3931.4	
819.67	5316.5	
819.85	5949.3	
820.02	3866.6	
820.19	4103.4	
820.37	5176.6	
820.54	4745.8	
820.71	4014.7	
820.88	4961.5	
821.06	5176.6	
821.23	4703.5	
821.4	3981.3	
821.58	3970.3	
821.75	5578.7	
821.92	5103.5	
822.09	3164.8	
822.27	3301.3	
822.44	5041.4	
822.61	4835.3	
822.79	3245.3	
822.96	6177.4	
823.13	5446.9	
823.3	4648.9	
823.48	3739.6	
823.65	3354.6	
823.82	5603.2	
823.99	4544.4	
824.17	4778.6	
824.34	3431.7	
824.51	6535.1	
824.68	5063.3	
824.86	3592.1	
825.03	3985.3	
825.2	5007.3	
825.37	6023.8	
825.55	3542.3	
825.72	3948.5	
825.89	6637.5	
826.06	6072.2	
826.24	3844.7	
826.41	3845.4	
826.58	6031.3	
826.75	5227.8	
826.92	3054.9	
827.1	3323.2	
827.27	8179.6	
827.44	6533	
827.61	3643.3	
827.79	4439.3	
827.96	4691.9	
828.13	5029.1	
828.3	3815.4	
828.47	3253.5	
828.65	5195.7	
828.82	5157.5	
828.99	4926	
829.16	4315.1	
829.34	5543.2	
829.51	5313.8	
829.68	3898.6	
829.85	4147.8	
830.02	5802.6	
830.2	5556.8	
830.37	3051.5	
830.54	4726	
830.71	6343.9	
830.88	4949.9	
831.05	3071.3	
831.23	3589.4	
831.4	6099.5	
831.57	6756.9	
831.74	3685	
831.91	3217.4	
832.09	5195	
832.26	5531.6	
832.43	3733.4	
832.6	4250.9	
832.77	5253	
832.94	5928.2	
833.12	3046.7	
833.29	3704.8	
833.46	4860.5	
833.63	7019.1	
833.8	4145.8	
833.97	3819.5	
834.15	5552.7	
834.32	5341.1	
834.49	3949.8	
834.66	4065.2	
834.83	5775.3	
835	4740.4	
835.17	3703.4	
835.35	3678.8	
835.52	5473.5	
835.69	5333.6	
835.86	3799	
836.03	3137.5	
836.2	5472.9	
836.37	5171.8	
836.55	3762.8	
836.72	3530.7	
836.89	5083.1	
837.06	5656.5	
837.23	3881.6	
837.4	4230.4	
837.57	6273.6	
837.75	6969.9	
837.92	3493.8	
838.09	3749.1	
838.26	5160.2	
838.43	5815.5	
838.6	3986.7	
838.77	3518.4	
838.94	6673.6	
839.11	6386.2	
839.29	3794.9	
839.46	2953.2	
839.63	5521.3	
839.8	5274.9	
839.97	3682.9	
840.14	3690.4	
840.31	5335	
840.48	5590.3	
840.65	3039.9	
840.82	3749.8	
841	5534.3	
841.17	5453.1	
841.34	3322.5	
841.51	3442	
841.68	5503.6	
841.85	5261.9	
842.02	3552.5	
842.19	2924.5	
842.36	5304.2	
842.53	5294.7	
842.7	3388.7	
842.87	4134.8	
843.05	6889.4	
843.22	5246.9	
843.39	3172.3	
843.56	3484.3	
843.73	5001.1	
843.9	5587.5	
844.07	5544.5	
844.24	4540.3	
844.41	8043.1	
844.58	4816.8	
844.75	3266.5	
844.92	3524.6	
845.09	5562.3	
845.26	5513.8	
845.43	3300.6	
845.6	3533.4	
845.77	5603.2	
845.94	5287.2	
846.12	3733.4	
846.29	3963.5	
846.46	5758.2	
846.63	5513.8	
846.8	3360	
846.97	3953.3	
847.14	5957.5	
847.31	5540.4	
847.48	3787.4	
847.65	4207.2	
847.82	5843.5	
847.99	5728.2	
848.16	4513.7	
848.33	4136.9	
848.5	5075.5	
848.67	5955.5	
848.84	3347.7	
849.01	3537.5	
849.18	4932.9	
849.35	4660.5	
849.52	4231.8	
849.69	3296.5	
849.86	5748.6	
850.03	5997.1	
850.2	3353.2	
850.37	4083.6	
850.54	5887.2	
850.71	5199.8	
850.88	4048.8	
851.05	3313.6	
851.22	5397.8	
851.39	6098.2	
851.56	3159.3	
851.73	3852.2	
851.9	4874.2	
852.07	5764.3	
852.24	3764.2	
852.41	3334.1	
852.58	5425.8	
852.75	4925.4	
852.92	3751.9	
853.09	3309.5	
853.26	5150.6	
853.43	5951.4	
853.6	3313.6	
853.77	2877.4	
853.94	6059.9	
854.11	4863.2	
854.28	4993.6	
854.44	3568.2	
854.61	6506.4	
854.78	5883.1	
854.95	3366.2	
855.12	4237.9	
855.29	4460.5	
855.46	6093.4	
855.63	3359.4	
855.8	4635.2	
855.97	5102.2	
856.14	5842.2	
856.31	4764.9	
856.48	3664.5	
856.65	5066	
856.82	4815.5	
856.99	3210.5	
857.16	3646.7	
857.33	6752.8	
857.49	5236.7	
857.66	3618.1	
857.83	3875.4	
858	5241.4	
858.17	5360.9	
858.34	3155.9	
858.51	3318.4	
858.68	6207.4	
858.85	6207.4	
859.02	3896.6	
859.19	4160.8	
859.36	4810	
859.52	4900.8	
859.69	3373.7	
859.86	3951.9	
860.03	4923.3	
860.2	6086.6	
860.37	3066.5	
860.54	3469.9	
860.71	5741.8	
860.88	6157.6	
861.05	3787.4	
861.21	4184.7	
861.38	6215.6	
861.55	4704.2	
861.72	3023.5	
861.89	3767.6	
862.06	5832.6	
862.23	6295.5	
862.4	3283.6	
862.56	3478.8	
862.73	5599.8	
862.9	5385.5	
863.07	3942.3	
863.24	3052.8	
863.41	4788.8	
863.58	4928.1	
863.75	3452.9	
863.91	3906.8	
864.08	6128.2	
864.25	5690.6	
864.42	4177.9	
864.59	4667.3	
864.76	6445.6	
864.93	4887.1	
865.09	3278.1	
865.26	3564.1	
865.43	5990.3	
865.6	6370.5	
865.77	2908.1	
865.94	3330	
866.1	6059.9	
866.27	5779.4	
866.44	5056.4	
866.61	3200.3	
866.78	5268.1	
866.95	5612.8	
867.11	3278.1	
867.28	3035.8	
867.45	5847	
867.62	4924	
867.79	3840.6	
867.96	3332	
868.12	4868	
868.29	5796.4	
868.46	2898.6	
868.63	4474.1	
868.8	5905.7	
868.97	5703.6	
869.13	3494.5	
869.3	3504.1	
869.47	5682.4	
869.64	5877	
869.81	3378.5	
869.97	3345	
870.14	5506.3	
870.31	6176	
870.48	3313.6	
870.65	4203.1	
870.81	5182	
870.98	5199.8	
871.15	3822.9	
871.32	3532.7	
871.48	5647.6	
871.65	6200.6	
871.82	3307.5	
871.99	3679.5	
872.16	6639.5	
872.32	5982.8	
872.49	3366.9	
872.66	3355.3	
872.83	5741.8	
872.99	5051.7	
873.16	3844	
873.33	3318.4	
873.5	5416.2	
873.67	5479.7	
873.83	3524.6	
874	4506.9	
874.17	5483.1	
874.34	6530.3	
874.5	4329.4	
874.67	4180.6	
874.84	6172.6	
875.01	4816.1	
875.17	4688.5	
875.34	3375.1	
875.51	5452.4	
875.68	6559.6	
875.84	4035.2	
876.01	4986.8	
876.18	5634.6	
876.34	5666.7	
876.51	3362.1	
876.68	3326.6	
876.85	5175.9	
877.01	6014.9	
877.18	4797.7	
877.35	3274	
877.52	5371.8	
877.68	4775.9	
877.85	3287.7	
878.02	3367.5	
878.18	5322.7	
878.35	5023	
878.52	2719.7	
878.69	3747.1	
878.85	5778	
879.02	5730.9	
879.19	4750.6	
879.35	3680.2	
879.52	5683.8	
879.69	5921.4	
879.86	2902.7	
880.02	3767.6	
880.19	5305.6	
880.36	6472.3	
880.52	3827	
880.69	3953.9	
880.86	5849.7	
881.02	5908.4	
881.19	3671.3	
881.36	3624.2	
881.52	5668.1	
881.69	5026.4	
881.86	3605.8	
882.02	3542.3	
882.19	5984.2	
882.36	6952.9	
882.52	3404.4	
882.69	4792.2	
882.86	5464.7	
883.02	5425.8	
883.19	4045.4	
883.36	3908.9	
883.52	5853.1	
883.69	6663.4	
883.86	3402.4	
884.02	3070.6	
884.19	5807.4	
884.36	5347.2	
884.52	3818.8	
884.69	3561.4	
884.86	5095.3	
885.02	6365.1	
885.19	3753.2	
885.36	3898.6	
885.52	5345.2	
885.69	5520.6	
885.86	4880.3	
886.02	4305.5	
886.19	5746.6	
886.35	5238	
886.52	3777.8	
886.69	4691.2	
886.85	4915.1	
887.02	6152.1	
887.19	6152.1	
887.35	6152.1	
887.52	6152.1	
887.68	6152.1	
887.85	6152.1	
888.02	6152.1	
888.18	6152.1	
888.35	6152.1	
888.51	6152.1	
888.68	6152.1	
888.85	6152.1	
889.01	6152.1	
889.18	6152.1	
889.35	6152.1	
889.51	6152.1	
889.68	6152.1	
889.84	6152.1	
890.01	6152.1	
890.17	6152.1	
890.34	6152.1	
890.51	6152.1	
890.67	6152.1	
890.84	6152.1	
891	6152.1	
891.17	6152.1	
891.34	6152.1	
891.5	6152.1	
891.67	6152.1	
891.83	6152.1	
892	6152.1	
892.16	6152.1	
892.33	6152.1	
892.5	6152.1	
892.66	6152.1	
892.83	6152.1	
892.99	6152.1	
893.16	6152.1	
893.32	6152.1	
893.49	6152.1	
893.65	6152.1	
893.82	6152.1	
893.99	6152.1	
894.15	6152.1	
894.32	6152.1	
894.48	6152.1	
894.65	6152.1	
894.81	6152.1	
894.98	6152.1	
895.14	6152.1	
895.31	6152.1	
895.47	6152.1	
895.64	6152.1	
895.81	6152.1	
895.97	6152.1	
896.14	6152.1	
896.3	6152.1	
896.47	6152.1	
896.63	6152.1	
896.8	6152.1	
896.96	6152.1	
897.13	6152.1	
897.29	6152.1	
897.46	6152.1	
897.62	6152.1	
897.79	6152.1	
897.95	6152.1	
898.12	6152.1	
898.28	6152.1	
898.45	6152.1	
898.61	6152.1	
898.78	6152.1	
898.94	6152.1	
899.11	6152.1	
899.27	6152.1	
899.44	6152.1	
899.6	6152.1	
899.77	6152.1	
899.93	6152.1	
900.1	6152.1	
900.26	6152.1	
900.43	6152.1	
900.59	6152.1	
900.76	6152.1	
900.92	6152.1	
901.09	6152.1	
901.25	6152.1	
901.42	6152.1	
901.58	6152.1	
901.75	6152.1	
901.91	6152.1	
902.07	6152.1	
902.24	6152.1	
902.4	6152.1	
902.57	6152.1	
902.73	6152.1	
902.9	6152.1	
903.06	6152.1	
903.23	6152.1	
903.39	6152.1	
903.56	6152.1	
903.72	6152.1	
903.88	6152.1	
904.05	6152.1	
904.21	6152.1	
904.38	6152.1	
904.54	6152.1	
904.71	6152.1	
904.87	6152.1	
905.03	6152.1	
905.2	6152.1	
905.36	6152.1	
905.53	6152.1	
905.69	6152.1	
905.86	6152.1	
906.02	6152.1	
906.18	6152.1	
906.35	6152.1	
906.51	6152.1	
906.68	6152.1	
906.84	6152.1	
907.01	6152.1	
907.17	6152.1	
907.33	6152.1	
907.5	6152.1	
907.66	6152.1	
907.83	6152.1	
907.99	6152.1	
908.15	6152.1	
908.32	6152.1	
908.48	6152.1	
908.65	6152.1	
908.81	6152.1	
908.97	6152.1	
909.14	6152.1	
909.3	6152.1	
909.47	6152.1	
909.63	6152.1	
909.79	6152.1	
909.96	6152.1	
910.12	6152.1	
910.28	6152.1	
910.45	6152.1	
910.61	6152.1	
910.78	6152.1	
910.94	6152.1	
911.1	6152.1	
911.27	6152.1	
911.43	6152.1	
911.59	6152.1	
911.76	6152.1	
911.92	6152.1	
912.08	6152.1	
912.25	6152.1	
912.41	6152.1	
912.57	6152.1	
912.74	6152.1	
912.9	6152.1	
913.07	6152.1	
913.23	6152.1	
913.39	6152.1	
913.56	6152.1	
913.72	6152.1	
913.88	6152.1	
914.05	6152.1	
914.21	6152.1	
914.37	6152.1	
914.54	6152.1	
914.7	6152.1	
914.86	6152.1	
915.03	6152.1	
915.19	6152.1	
