Wavelength	Intensities	
nm	a.u.	
179.22	1915.4	
179.44	1920	
179.65	1910.8	
179.86	1929.2	
180.08	1940.1	
180.29	5087.8	
180.51	3599	
180.72	5772.5	
180.94	6821.8	
181.15	3303.4	
181.37	3235.8	
181.58	5588.9	
181.79	5945.9	
182.01	3432.4	
182.22	3736.2	
182.44	5883.1	
182.65	4949.9	
182.87	4744.5	
183.08	4081.6	
183.29	6193.1	
183.51	5148.6	
183.72	3780.6	
183.94	5535	
184.15	5491.3	
184.37	5552	
184.58	3267.2	
184.79	4542.4	
185.01	5143.8	
185.22	5890.6	
185.44	4815.5	
185.65	4029	
185.86	5395	
186.08	5006.6	
186.29	3221.5	
186.51	3439.2	
186.72	5192.3	
186.94	6098.2	
187.15	4001	
187.36	4143	
187.58	7978.2	
187.79	5622.4	
188.01	4394.3	
188.22	6775.4	
188.43	6812.9	
188.65	5887.2	
188.86	3435.1	
189.08	4187.4	
189.29	5274.2	
189.5	5309	
189.72	3865.2	
189.93	3949.2	
190.15	6100.2	
190.36	7389.1	
190.57	4212	
190.79	4115.1	
191	6205.3	
191.22	6114.6	
191.43	4276.2	
191.64	3393.5	
191.86	6400.6	
192.07	6182.8	
192.29	3581.9	
192.5	3805.1	
192.71	6096.8	
192.93	5216.9	
193.14	3778.5	
193.35	3833.8	
193.57	5319.3	
193.78	6131.6	
194	3059	
194.21	3753.9	
194.42	5052.3	
194.64	5527.5	
194.85	4115.7	
195.07	4917.9	
195.28	5575.3	
195.49	4786.8	
195.71	5150	
195.92	3571.7	
196.13	5731.6	
196.35	5806	
196.56	5452.4	
196.78	4105.5	
196.99	7236.8	
197.2	6807.4	
197.42	4710.3	
197.63	4252.3	
197.84	4917.9	
198.06	5748.6	
198.27	3882.9	
198.48	5186.8	
198.7	5266	
198.91	5464.7	
199.13	4170.3	
199.34	4221.5	
199.55	5988.3	
199.77	4758.8	
199.98	3679.5	
200.19	4240.7	
200.41	5402.5	
200.62	5125.4	
200.83	4421.6	
201.05	4810	
201.26	5420.3	
201.47	5193	
201.69	3657.7	
201.9	3558	
202.11	5459.2	
202.33	6611.5	
202.54	4029	
202.76	4425.7	
202.97	5657.9	
203.18	5681.1	
203.4	4356	
203.61	4313.7	
203.82	5620.3	
204.04	5201.8	
204.25	4217.5	
204.46	4137.6	
204.68	5600.5	
204.89	5789.6	
205.1	4143.7	
205.32	3538.2	
205.53	6008.7	
205.74	6137.8	
205.96	3005.7	
206.17	4313.7	
206.38	5950	
206.6	6072.2	
206.81	4835.3	
207.02	3898.6	
207.24	5849	
207.45	6249.7	
207.66	3986	
207.88	3442	
208.09	5655.1	
208.3	5569.8	
208.52	3613.3	
208.73	4081.6	
208.94	5507	
209.15	6276.3	
209.37	3995.6	
209.58	4190.8	
209.79	6113.9	
210.01	5332.9	
210.22	3254.9	
210.43	3322.5	
210.65	5573.9	
210.86	5970.5	
211.07	4003.8	
211.29	3634.5	
211.5	5928.2	
211.71	5499.5	
211.93	3684.3	
212.14	3633.1	
212.35	5464	
212.56	5720	
212.78	4240	
212.99	3482.2	
213.2	6582.9	
213.42	5283.1	
213.63	3773.7	
213.84	4052.2	
214.06	4937.7	
214.27	4971.1	
214.48	3954.6	
214.69	4236.6	
214.91	6214.2	
215.12	6332.3	
215.33	4264.6	
215.55	4777.9	
215.76	6880.5	
215.97	5917.9	
216.18	4140.3	
216.4	4082.3	
216.61	5202.5	
216.82	6049.7	
217.04	3678.8	
217.25	3846.8	
217.46	6263.4	
217.67	5947.3	
217.89	3246	
218.1	3444.7	
218.31	5625.8	
218.53	5698.8	
218.74	3856.3	
218.95	3728	
219.16	5479.7	
219.38	6485.2	
219.59	3751.9	
219.8	4453	
220.01	7194.5	
220.23	5522.7	
220.44	4942.4	
220.65	3658.4	
220.87	5603.2	
221.08	6167.8	
221.29	3362.8	
221.5	4555.4	
221.72	7608.2	
221.93	5219.6	
222.14	4270	
222.35	5017.5	
222.57	5578	
222.78	5961	
222.99	4014	
223.2	4298	
223.42	5838.8	
223.63	6016.9	
223.84	3030.3	
224.05	2998.9	
224.27	7138.5	
224.48	6483.2	
224.69	5050.3	
224.9	4255.7	
225.12	5728.2	
225.33	5544.5	
225.54	3383.2	
225.75	3687.7	
225.97	5070.1	
226.18	5411.4	
226.39	4089.1	
226.6	3758	
226.82	5271.5	
227.03	5109.7	
227.24	4188.8	
227.45	3497.9	
227.67	5928.2	
227.88	6546.7	
228.09	4731.5	
228.3	4759.5	
228.52	6052.4	
228.73	5518.6	
228.94	3881.6	
229.15	3457	
229.36	5403.2	
229.58	5347.9	
229.79	3891.8	
230	4582.7	
230.21	6645.7	
230.43	5610.1	
230.64	4145.1	
230.85	4315.1	
231.06	5951.4	
231.28	6013.5	
231.49	3402.4	
231.7	4111	
231.91	5917.3	
232.12	5553.4	
232.34	3573	
232.55	4054.3	
232.76	6176	
232.97	5708.4	
233.18	3703.4	
233.4	4181.3	
233.61	5829.2	
233.82	5316.5	
234.03	3915.7	
234.25	3781.2	
234.46	7824.6	
234.67	5597.1	
234.88	4328.7	
235.09	3734.8	
235.31	5878.4	
235.52	5429.2	
235.73	4197.7	
235.94	3532.7	
236.15	5175.9	
236.37	6820.4	
236.58	3727.3	
236.79	4026.3	
237	5838.8	
237.21	5085.8	
237.43	4339	
237.64	3385.3	
237.85	10305	
238.06	5074.9	
238.27	4421.6	
238.48	3492.5	
238.7	5922	
238.91	5367.7	
239.12	4016.1	
239.33	4046.8	
239.54	5256.5	
239.76	5495.4	
239.97	3961.5	
240.18	4018.8	
240.39	6950.1	
240.6	5865.4	
240.82	4140.3	
241.03	3442	
241.24	5497.4	
241.45	6472.3	
241.66	3641.3	
241.87	4343.7	
242.09	6279.1	
242.3	6645.7	
242.51	4400.4	
242.72	4015.4	
242.93	6012.8	
243.14	5485.1	
243.36	4706.9	
243.57	5048.9	
243.78	6422.4	
243.99	5947.3	
244.2	4100	
244.41	3664.5	
244.63	5066.7	
244.84	5907	
245.05	4289.8	
245.26	4057.7	
245.47	5810.1	
245.68	6146	
245.9	5339.7	
246.11	4214.7	
246.32	5420.3	
246.53	5855.1	
246.74	6562.4	
246.95	3379.1	
247.16	4973.2	
247.38	5587.5	
247.59	3316.3	
247.8	4069.3	
248.01	5272.8	
248.22	5440.1	
248.43	3635.8	
248.64	3969	
248.86	4884.4	
249.07	5304.9	
249.28	3510.9	
249.49	4134.2	
249.7	6085.9	
249.91	6246.3	
250.12	3317.7	
250.34	3358	
250.55	5673.6	
250.76	5543.2	
250.97	4156	
251.18	4268.6	
251.39	6306.4	
251.6	5749.3	
251.81	4274.1	
252.03	4206.5	
252.24	5255.1	
252.45	6099.5	
252.66	3463.8	
252.87	4473.4	
253.08	5530.2	
253.29	7393.8	
253.5	3479.5	
253.72	4947.9	
253.93	5375.9	
254.14	6594.5	
254.35	3865.2	
254.56	3957.4	
254.77	5798.5	
254.98	5102.9	
255.19	3747.8	
255.41	4936.3	
255.62	5635.3	
255.83	6235.4	
256.04	4364.2	
256.25	4326	
256.46	6878.4	
256.67	5208	
256.88	4218.8	
257.09	4695.3	
257.31	5178.6	
257.52	5175.9	
257.73	5315.8	
257.94	3818.1	
258.15	5329.5	
258.36	5603.2	
258.57	4861.2	
258.78	3067.9	
258.99	6129.6	
259.2	5371.8	
259.41	3847.5	
259.63	3926.6	
259.84	6459.3	
260.05	6918.7	
260.26	5072.1	
260.47	3704.1	
260.68	6203.3	
260.89	5461.2	
261.1	4653	
261.31	3665.9	
261.52	6123.4	
261.73	6534.4	
261.95	5028.4	
262.16	4349.9	
262.37	6234.7	
262.58	6365.8	
262.79	4923.3	
263	3926.6	
263.21	5552.7	
263.42	5044.1	
263.63	3934.8	
263.84	3867.9	
264.05	6138.4	
264.26	6566.5	
264.47	4853	
264.69	4367	
264.9	6296.8	
265.11	5760.9	
265.32	3710.9	
265.53	3872	
265.74	5713.2	
265.95	4906.3	
266.16	4132.8	
266.37	4529.4	
266.58	5673.6	
266.79	5384.8	
267	3784	
267.21	3497.9	
267.42	5103.5	
267.63	5528.8	
267.84	3994.2	
268.06	3450.1	
268.27	5976	
268.48	6319.3	
268.69	3964.2	
268.9	4654.4	
269.11	6355.5	
269.32	5046.2	
269.53	4061.8	
269.74	3737.5	
269.95	5893.4	
270.16	4886.5	
270.37	4074.1	
270.58	4730.8	
270.79	5362.3	
271	6086.6	
271.21	4343.7	
271.42	4055.7	
271.63	5676.3	
271.84	5164.3	
272.05	3252.2	
272.26	3577.8	
272.47	5569.8	
272.68	5765	
272.89	3864.5	
273.11	4554.7	
273.32	5380.7	
273.53	6565.8	
273.74	4363.5	
273.95	4289.1	
274.16	6212.9	
274.37	5622.4	
274.58	4413.4	
274.79	3546.4	
275	5743.9	
275.21	6262	
275.42	5347.9	
275.63	4613.4	
275.84	5838.1	
276.05	7361.8	
276.26	4316.4	
276.47	3953.3	
276.68	5330.9	
276.89	6658.6	
277.1	4660.5	
277.31	3509.5	
277.52	5803.9	
277.73	5924.8	
277.94	3452.9	
278.15	3924.6	
278.36	5846.3	
278.57	5201.2	
278.78	3855.6	
278.99	4448.2	
279.2	5117.2	
279.41	5080.3	
279.62	5169.8	
279.83	3581.2	
280.04	6834.8	
280.25	4999.8	
280.46	5117.2	
280.67	4037.9	
280.88	5111	
281.09	6299.6	
281.3	4239.3	
281.51	5448.3	
281.72	6039.5	
281.93	6092.7	
282.14	3752.6	
282.35	4056.3	
282.56	6014.9	
282.77	6057.9	
282.98	3917.8	
283.19	4792.2	
283.4	7488.1	
283.61	5470.1	
283.82	3580.5	
284.03	5050.3	
284.24	5641.5	
284.45	6199.2	
284.66	5063.3	
284.87	4839.4	
285.08	6109.1	
285.29	6324.1	
285.5	3416.7	
285.71	3915	
285.92	6229.9	
286.12	6918	
286.33	4980	
286.54	3919.8	
286.75	6043.6	
286.96	5443.5	
287.17	3586.7	
287.38	4900.1	
287.59	5151.3	
287.8	5089.2	
288.01	4033.8	
288.22	4573.8	
288.43	6138.4	
288.64	5095.3	
288.85	4671.4	
289.06	4394.3	
289.27	6006	
289.48	6507.8	
289.69	5035.3	
289.9	4543.8	
290.11	6277.7	
290.32	5216.9	
290.53	4857.8	
290.74	4356.7	
290.94	6028.5	
291.15	6116.6	
291.36	3812.6	
291.57	4521.2	
291.78	5243.5	
291.99	4928.8	
292.2	3631	
292.41	4434.5	
292.62	6161	
292.83	5891.3	
293.04	5371.8	
293.25	3616	
293.46	5347.9	
293.67	6193.7	
293.88	3728.7	
294.09	3631.7	
294.29	5117.9	
294.5	5670.8	
294.71	4053.6	
294.92	3905.5	
295.13	5324.7	
295.34	6719.4	
295.55	3351.8	
295.76	3480.2	
295.97	6042.9	
296.18	6832.7	
296.39	3566.2	
296.6	3794.2	
296.81	5678.3	
297.01	6023.1	
297.22	3858.4	
297.43	3753.2	
297.64	5151.3	
297.85	5147.2	
298.06	3121.8	
298.27	3403	
298.48	5640.8	
298.69	5257.8	
298.9	4098.7	
299.11	3742.3	
299.31	5052.3	
299.52	5070.1	
299.73	4399	
299.94	4279.6	
300.15	5562.3	
300.36	5204.6	
300.57	4379.2	
300.78	4297.3	
300.99	5406.6	
301.2	5752.7	
301.4	3737.5	
301.61	4129.4	
301.82	5925.5	
302.03	6090	
302.24	4596.3	
302.45	3618.1	
302.66	5881.8	
302.87	6421.7	
303.08	3800.3	
303.29	5183.4	
303.49	5324	
303.7	5614.2	
303.91	3360	
304.12	4950.6	
304.33	5024.3	
304.54	5711.1	
304.75	3833.8	
304.96	3609.9	
305.16	5892	
305.37	6683.9	
305.58	3315	
305.79	3452.2	
306	5914.5	
306.21	4952.7	
306.42	3717.7	
306.63	5881.8	
306.83	5386.2	
307.04	6238.8	
307.25	4174.4	
307.46	4134.2	
307.67	4722.6	
307.88	6032	
308.09	3650.8	
308.29	3866.6	
308.5	5633.3	
308.71	6172.6	
308.92	4069.3	
309.13	3647.4	
309.34	5405.3	
309.55	5511.1	
309.75	4708.3	
309.96	4396.3	
310.17	6007.4	
310.38	5265.3	
310.59	4542.4	
310.8	4265.9	
311.01	5365	
311.21	5403.2	
311.42	3582.6	
311.63	3728	
311.84	5302.9	
312.05	5735.7	
312.26	4177.9	
312.46	4657.8	
312.67	5410.1	
312.88	5071.5	
313.09	3612.6	
313.3	3548.4	
313.51	6389	
313.71	6819.1	
313.92	3657.7	
314.13	3793.5	
314.34	5771.2	
314.55	5461.9	
314.76	4711	
314.96	4124.6	
315.17	5608	
315.38	6012.8	
315.59	3657	
315.8	3520.5	
316.01	6502.3	
316.21	6580.1	
316.42	3495.9	
316.63	4052.9	
316.84	5375.9	
317.05	6380.1	
317.26	4373.8	
317.46	3845.4	
317.67	5487.2	
317.88	5952.8	
318.09	4640.7	
318.3	3383.2	
318.5	5274.2	
318.71	5950.7	
318.92	6011.5	
319.13	4288.4	
319.34	6096.8	
319.54	6252.4	
319.75	3435.1	
319.96	3255.6	
320.17	5930.2	
320.38	6181.5	
320.58	3313.6	
320.79	4073.4	
321	6245.6	
321.21	6254.5	
321.42	4029	
321.62	3321.1	
321.83	5130.8	
322.04	5650.3	
322.25	3856.3	
322.46	3635.8	
322.66	5675.6	
322.87	5788.9	
323.08	4541.7	
323.29	3633.1	
323.5	6655.9	
323.7	5048.2	
323.91	5082.4	
324.12	4476.2	
324.33	5657.9	
324.53	5938.4	
324.74	4400.4	
324.95	4584	
325.16	4920.6	
325.37	5360.9	
325.57	3654.9	
325.78	3704.1	
325.99	5632.6	
326.2	5066	
326.4	5440.1	
326.61	3381.9	
326.82	5532.2	
327.03	5717.9	
327.24	5289.2	
327.44	5048.2	
327.65	5839.4	
327.86	4674.1	
328.07	4326.7	
328.27	3454.2	
328.48	6252.4	
328.69	5107.6	
328.9	5281	
329.1	3955.3	
329.31	5404.6	
329.52	6448.4	
329.73	3650.2	
329.93	4150.6	
330.14	5531.6	
330.35	5842.9	
330.56	6168.5	
330.76	4556.7	
330.97	5339.7	
331.18	5720	
331.39	4087.7	
331.59	3295.2	
331.8	6150.1	
332.01	6390.3	
332.22	3764.8	
332.42	4306.9	
332.63	5732.3	
332.84	5285.1	
333.05	4118.5	
333.25	3769.6	
333.46	5344.5	
333.67	5581.4	
333.88	3858.4	
334.08	4306.2	
334.29	7513.3	
334.5	6241.5	
334.7	3605.1	
334.91	5315.2	
335.12	5084.4	
335.33	6031.3	
335.53	4029.7	
335.74	6127.5	
335.95	5339.1	
336.16	5154.7	
336.36	4100	
336.57	4702.8	
336.78	5073.5	
336.98	6169.2	
337.19	5049.6	
337.4	3979.2	
337.61	6771.3	
337.81	5100.8	
338.02	3766.2	
338.23	4885.1	
338.43	6353.5	
338.64	5191.6	
338.85	3707.5	
339.05	4870.1	
339.26	6449.7	
339.47	4927.4	
339.68	3651.5	
339.88	5441.5	
340.09	5829.2	
340.3	6049	
340.5	4319.8	
340.71	3279.5	
340.92	5038	
341.13	6388.3	
341.33	3576.4	
341.54	4367.6	
341.75	5722.7	
341.95	5431.9	
342.16	4177.2	
342.37	4465.9	
342.57	5150.6	
342.78	5471.5	
342.99	4613.4	
343.19	3321.1	
343.4	5988.9	
343.61	5883.1	
343.81	3939.6	
344.02	3584.6	
344.23	6012.2	
344.43	6460	
344.64	4633.2	
344.85	4477.5	
345.06	5887.9	
345.26	6255.9	
345.47	4224.3	
345.68	5029.8	
345.88	4937	
346.09	6110.5	
346.3	4373.8	
346.5	3226.2	
346.71	5537.7	
346.92	5221	
347.12	3305.4	
347.33	4227	
347.54	6094.8	
347.74	6632	
347.95	4189.5	
348.16	3138.2	
348.36	5382.7	
348.57	5180	
348.78	4249.5	
348.98	4569	
349.19	5497.4	
349.39	5072.8	
349.6	3384.6	
349.81	3704.1	
350.01	5836	
350.22	5267.4	
350.43	4073.4	
350.63	4928.1	
350.84	5637.4	
351.05	5439.4	
351.25	3730.7	
351.46	3354.6	
351.67	6202.6	
351.87	5294.7	
352.08	3992.2	
352.29	4519.9	
352.49	6048.3	
352.7	6229.2	
352.9	3592.8	
353.11	4512.4	
353.32	6841.6	
353.52	5382.1	
353.73	3573.7	
353.94	4569	
354.14	5948	
354.35	5730.9	
354.55	3657	
354.76	4091.8	
354.97	5883.1	
355.17	5706.3	
355.38	3447.4	
355.59	4855.1	
355.79	5276.9	
356	5790.3	
356.2	4134.8	
356.41	3584.6	
356.62	4967.7	
356.82	5568.4	
357.03	4380.6	
357.24	3984.7	
357.44	5337.7	
357.65	5441.5	
357.85	5306.3	
358.06	4177.9	
358.27	4995	
358.47	5309	
358.68	3461.7	
358.88	4348.5	
359.09	5868.1	
359.3	6311.8	
359.5	5141.1	
359.71	4508.9	
359.91	6761.7	
360.12	6066.1	
360.33	4349.9	
360.53	4874.2	
360.74	5288.5	
360.94	5317.2	
361.15	4605.9	
361.36	3738.2	
361.56	6092	
361.77	5565.7	
361.97	5154.7	
362.18	3958	
362.38	6192.4	
362.59	5116.5	
362.8	3649.5	
363	3457.7	
363.21	4937.7	
363.41	5715.2	
363.62	4327.4	
363.83	5451	
364.03	5721.3	
364.24	6886	
364.44	5404.6	
364.65	5452.4	
364.85	5447.6	
365.06	5150	
365.27	3919.1	
365.47	3890.5	
365.68	6578.8	
365.88	5489.9	
366.09	4304.1	
366.29	4001	
366.5	5737.7	
366.71	6300.9	
366.91	5367.7	
367.12	4449.6	
367.32	6884.6	
367.53	6083.8	
367.73	4412	
367.94	5366.4	
368.14	5952.8	
368.35	7008.8	
368.56	4468.7	
368.76	3685	
368.97	6076.3	
369.17	7970	
369.38	3938.2	
369.58	4121.2	
369.79	5115.1	
369.99	6454.5	
370.2	5281	
370.4	4298.7	
370.61	5787.6	
370.82	7071.6	
371.02	4197.7	
371.23	3466.5	
371.43	4999.8	
371.64	6464.8	
371.84	4231.1	
372.05	5498.8	
372.25	7879.2	
372.46	6197.8	
372.66	4218.8	
372.87	4175.8	
373.07	6228.6	
373.28	7974.1	
373.48	5308.3	
373.69	4980.7	
373.9	5647.6	
374.1	5677	
374.31	5235.3	
374.51	4711.7	
374.72	6510.5	
374.92	5332.2	
375.13	5455.8	
375.33	4582	
375.54	6122.7	
375.74	5513.8	
375.95	4609.3	
376.15	5909.8	
376.36	6087.2	
376.56	5960.3	
376.77	4698	
376.97	5225.1	
377.18	7219.8	
377.38	6221	
377.59	5536.3	
377.79	4121.9	
378	6041.5	
378.2	6491.4	
378.41	4222.2	
378.61	4124.6	
378.82	6479.8	
379.02	5472.2	
379.23	4357.4	
379.43	5606	
379.64	6533	
379.84	6197.2	
380.05	4212.7	
380.25	4136.2	
380.46	6244.9	
380.66	5855.8	
380.87	5665.4	
381.07	6099.5	
381.28	6969.2	
381.48	6298.2	
381.69	4259.8	
381.89	4237.9	
382.1	5132.9	
382.3	6490.7	
382.51	5400.5	
382.71	6404	
382.91	6272.2	
383.12	6893.5	
383.32	4584	
383.53	4939.7	
383.73	6107.7	
383.94	5882.4	
384.14	4703.5	
384.35	3799	
384.55	5764.3	
384.76	6284.5	
384.96	4554.7	
385.17	4960.2	
385.37	6253.8	
385.58	5467.4	
385.78	5039.4	
385.98	3703.4	
386.19	5709.1	
386.39	6121.4	
386.6	4380.6	
386.8	4682.3	
387.01	6236.1	
387.21	6323.4	
387.42	5119.2	
387.62	5730.9	
387.83	5535	
388.03	6389	
388.23	4674.8	
388.44	5599.1	
388.64	5304.2	
388.85	5342.5	
389.05	5102.2	
389.26	5753.4	
389.46	7361.8	
389.67	6676.4	
389.87	4965	
390.07	5091.3	
390.28	5943.2	
390.48	5429.8	
390.69	4206.5	
390.89	4575.2	
391.1	5622.4	
391.3	6717.3	
391.5	5868.1	
391.71	6527.6	
391.91	6436.1	
392.12	7519.5	
392.32	5967.1	
392.53	5025.7	
392.73	5695.4	
392.93	5874.3	
393.14	4739.7	
393.34	5522	
393.55	6415.6	
393.75	5886.5	
393.95	4676.9	
394.16	4678.2	
394.36	5652.4	
394.57	6331.6	
394.77	4183.3	
394.98	4701.5	
395.18	5693.4	
395.38	5907.7	
395.59	5653.8	
395.79	4433.9	
396	5739.8	
396.2	6222.4	
396.4	5309.7	
396.61	5278.3	
396.81	6571.9	
397.02	5656.5	
397.22	5552.7	
397.42	5666	
397.63	6479.1	
397.83	5588.9	
398.04	4348.5	
398.24	4928.1	
398.44	6243.6	
398.65	5203.9	
398.85	4180.6	
399.05	4358.1	
399.26	5573.2	
399.46	7508.5	
399.67	4782.7	
399.87	4476.2	
400.07	6074.3	
400.28	6402	
400.48	4581.3	
400.69	5729.5	
400.89	6660.7	
401.09	7092.8	
401.3	4445.5	
401.5	5720	
401.7	7433.4	
401.91	7590.5	
402.11	4830.5	
402.32	4986.1	
402.52	6630.6	
402.72	6496.8	
402.93	5156.8	
403.13	3906.8	
403.33	7304.4	
403.54	5907	
403.74	4842.1	
403.94	5851	
404.15	6127.5	
404.35	7459.4	
404.56	4799.8	
404.76	6781.5	
404.96	6665.5	
405.17	6436.1	
405.37	6298.9	
405.57	5257.8	
405.78	6743.3	
405.98	5997.1	
406.18	4670.7	
406.39	5668.8	
406.59	6609.5	
406.79	6212.2	
407	4468	
407.2	4672.8	
407.4	6745.3	
407.61	6939.2	
407.81	4736.3	
408.01	7180.9	
408.22	5714.5	
408.42	7845.1	
408.62	5943.9	
408.83	5376.6	
409.03	6298.2	
409.23	6091.3	
409.44	5427.8	
409.64	5694.7	
409.84	7299.6	
410.05	7222.5	
410.25	5580.7	
410.45	5236	
410.66	6606.7	
410.86	9293.7	
411.06	5788.9	
411.27	5702.9	
411.47	9117.6	
411.67	6806.1	
411.88	5894.1	
412.08	6167.8	
412.28	7515.4	
412.49	7980.3	
412.69	5529.5	
412.89	5626.5	
413.09	7845.1	
413.3	7615	
413.5	5655.8	
413.7	5318.6	
413.91	6851.8	
414.11	7871.7	
414.31	5529.5	
414.52	6020.3	
414.72	7485.3	
414.92	7382.9	
415.12	5519.3	
415.33	6060.6	
415.53	7717.4	
415.73	7968.6	
415.94	6451.1	
416.14	5809.4	
416.34	6644.3	
416.55	6348	
416.75	7135.1	
416.95	6520	
417.15	7763.8	
417.36	8542.1	
417.56	7318.8	
417.76	6357.6	
417.97	8262.9	
418.17	7813.7	
418.37	5845.6	
418.57	6011.5	
418.78	7478.5	
418.98	7145.4	
419.18	6823.8	
419.38	6744	
419.59	7238.9	
419.79	6775.4	
419.99	5800.5	
420.2	6283.2	
420.4	7909.3	
420.6	8078.6	
420.8	5709.1	
421.01	5521.3	
421.21	7582.9	
421.41	7786.4	
421.61	6148	
421.82	5791	
422.02	7014.3	
422.22	7998.7	
422.42	6695.5	
422.63	6181.5	
422.83	7096.2	
423.03	8438.3	
423.23	6210.8	
423.44	5171.8	
423.64	7215	
423.84	6939.9	
424.04	5651	
424.25	5309.7	
424.45	8211.7	
424.65	8171.4	
424.85	5113.8	
425.06	5757.5	
425.26	8109.3	
425.46	6636.1	
425.66	6238.8	
425.87	5937.1	
426.07	7861.5	
426.27	7779.6	
426.47	5993	
426.67	5321.3	
426.88	8266.3	
427.08	7644.4	
427.28	6281.1	
427.48	5309	
427.69	6483.9	
427.89	7206.1	
428.09	6260	
428.29	5358.2	
428.5	8088.1	
428.7	7389.8	
428.9	5251.7	
429.1	5894.1	
429.3	7293.5	
429.51	7912.7	
429.71	5606.7	
429.91	6467.5	
430.11	7601.4	
430.31	8293.6	
430.52	5908.4	
430.72	6212.9	
430.92	8286.1	
431.12	7643.7	
431.32	5618.9	
431.53	5986.2	
431.73	6455.2	
431.93	8383.7	
432.13	5494.7	
432.33	5351.3	
432.54	7089.4	
432.74	7475.8	
432.94	5244.2	
433.14	6371.9	
433.34	7639.6	
433.55	7063.4	
433.75	6302.3	
433.95	8204.8	
434.15	7367.9	
434.35	7107.1	
434.56	5483.8	
434.76	4902.8	
434.96	7383.6	
435.16	7617.1	
435.36	5372.5	
435.56	6556.9	
435.77	6917.4	
435.97	7180.9	
436.17	7416.4	
436.37	6473.6	
436.57	7027.3	
436.78	6900.3	
436.98	6393.1	
437.18	7118.1	
437.38	7763.8	
437.58	7186.3	
437.78	7291.5	
437.99	5700.2	
438.19	7645.8	
438.39	8514.8	
438.59	5690.6	
438.79	5147.2	
438.99	8413.1	
439.2	7215	
439.4	5450.3	
439.6	5384.8	
439.8	7697.6	
440	8810.4	
440.2	6508.4	
440.4	6620.4	
440.61	8044.4	
440.81	8615.1	
441.01	5597.1	
441.21	6510.5	
441.41	8413.1	
441.61	7926.3	
441.81	6753.5	
442.02	7923.6	
442.22	8862.2	
442.42	7991.9	
442.62	5684.5	
442.82	5666.7	
443.02	8417.2	
443.22	7405.5	
443.43	6192.4	
443.63	5664	
443.83	7149.5	
444.03	7397.3	
444.23	6929	
444.43	6506.4	
444.63	7535.2	
444.83	8925	
445.04	5732.9	
445.24	7086	
445.44	7989.1	
445.64	8026	
445.84	6557.6	
446.04	6524.1	
446.24	7182.9	
446.44	8361.9	
446.65	5659.2	
446.85	6111.1	
447.05	7372	
447.25	8410.3	
447.45	6297.5	
447.65	5578.7	
447.85	7594.6	
448.05	7182.2	
448.25	6728.3	
448.46	6456.6	
448.66	7617.1	
448.86	7286.7	
449.06	5386.8	
449.26	6601.3	
449.46	8073.1	
449.66	6976.7	
449.86	6194.4	
450.06	6062	
450.26	7129.7	
450.47	7814.4	
450.67	6376	
450.87	6707.8	
451.07	7808.9	
451.27	7749.5	
451.47	5657.2	
451.67	6275	
451.87	7276.4	
452.07	8460.2	
452.27	5937.7	
452.47	5827.8	
452.67	7553.6	
452.88	8129.8	
453.08	5194.3	
453.28	7378.1	
453.48	8843.1	
453.68	7540.6	
453.88	5784.8	
454.08	6097.5	
454.28	7942	
454.48	7665.5	
454.68	6663.4	
454.88	7367.2	
455.08	8056	
455.28	7909.3	
455.48	5693.4	
455.68	6295.5	
455.89	8597.4	
456.09	8275.8	
456.29	5997.8	
456.49	6072.2	
456.69	8542.8	
456.89	7648.5	
457.09	6653.9	
457.29	7062.8	
457.49	8127	
457.69	8294.3	
457.89	6472.3	
458.09	5805.3	
458.29	7704.5	
458.49	8547.5	
458.69	6931	
458.89	6243.6	
459.09	8745.5	
459.29	8907.3	
459.49	6309.1	
459.69	7189.7	
459.9	8383.7	
460.1	7767.3	
460.3	6292.7	
460.5	6042.9	
460.7	8292.9	
460.9	8094.3	
461.1	5643.5	
461.3	7195.2	
461.5	8932.6	
461.7	8546.2	
461.9	6028.5	
462.1	6657.9	
462.3	7978.9	
462.5	8658.1	
462.7	6211.5	
462.9	6297.5	
463.1	9779.1	
463.3	9367.4	
463.5	6479.1	
463.7	7548.1	
463.9	8196	
464.1	8665.6	
464.3	6662	
464.5	6901.7	
464.7	8837.7	
464.9	8537.3	
465.1	8338	
465.3	7230.7	
465.5	9239.1	
465.7	9265.7	
465.9	7453.9	
466.1	7391.1	
466.3	9002.2	
466.5	8814.5	
466.7	8279.9	
466.9	7099.6	
467.1	8710	
467.3	9831.6	
467.5	8366.6	
467.7	7031.4	
467.9	10032	
468.1	11006	
468.3	7900.4	
468.5	8382.3	
468.7	8728.4	
468.9	8747.6	
469.1	7362.4	
469.3	7991.9	
469.5	10832	
469.7	8320.9	
469.9	7740	
470.1	6976.7	
470.3	8692.9	
470.5	8676.6	
470.7	8436.3	
470.9	7149.5	
471.1	8428.1	
471.3	8908	
471.5	6875.7	
471.69	9032.2	
471.89	8226.7	
472.09	7860.1	
472.29	7820.5	
472.49	8189.1	
472.69	8056	
472.89	8952.4	
473.09	6705.7	
473.29	7003.4	
473.49	8269.7	
473.69	8404.9	
473.89	7980.3	
474.09	7040.9	
474.29	9786.6	
474.49	9452.1	
474.69	7972.1	
474.89	7245.7	
475.09	8381.7	
475.29	8383.7	
475.49	6619.7	
475.69	6877.1	
475.88	10118	
476.08	8671.1	
476.28	6453.8	
476.48	7017.7	
476.68	9178.3	
476.88	8986.5	
477.08	6876.4	
477.28	7191.8	
477.48	8506.6	
477.68	9285.5	
477.88	6634.7	
478.08	7006.1	
478.28	9531.9	
478.48	8660.2	
478.67	6981.5	
478.87	6513.2	
479.07	9259.5	
479.27	8690.2	
479.47	7262.8	
479.67	7247.1	
479.87	9055.4	
480.07	9575.6	
480.27	6423.1	
480.47	8290.2	
480.67	8759.8	
480.87	9431.6	
481.06	6806.1	
481.26	7724.9	
481.46	8634.9	
481.66	8553	
481.86	7345.4	
482.06	8345.5	
482.26	8381	
482.46	9482.1	
482.66	7207.5	
482.86	6742.6	
483.05	8776.9	
483.25	8122.9	
483.45	9742.2	
483.65	7242.3	
483.85	8352.3	
484.05	8691.6	
484.25	7694.2	
484.45	8161.2	
484.65	9567.4	
484.84	9664.4	
485.04	7094.2	
485.24	7131.7	
485.44	9916.3	
485.64	7999.4	
485.84	6373.3	
486.04	7898.3	
486.24	8404.2	
486.44	8906.6	
486.63	6296.1	
486.83	7262.8	
487.03	8330.5	
487.23	8685.4	
487.43	6485.2	
487.63	9009.7	
487.83	8624.7	
488.02	9689.6	
488.22	7572.7	
488.42	8168	
488.62	9573.6	
488.82	8483.4	
489.02	7170.6	
489.22	7295.5	
489.41	9305.3	
489.61	9072.5	
489.81	6778.8	
490.01	6922.8	
490.21	9365.4	
490.41	9975	
490.61	6618.4	
490.8	6898.2	
491	8657.4	
491.2	7953.6	
491.4	7494.2	
491.6	6590.4	
491.8	8682.7	
491.99	8970.8	
492.19	6539.2	
492.39	7040.2	
492.59	9434.3	
492.79	9475.3	
492.99	7930.4	
493.18	6910.5	
493.38	9581.8	
493.58	10387	
493.78	7754.3	
493.98	7248.4	
494.18	9184.5	
494.37	8581	
494.57	7917.4	
494.77	7761.1	
494.97	9444.5	
495.17	9769.5	
495.37	7354.3	
495.56	7685.3	
495.76	9919.7	
495.96	9499.2	
496.16	8686.8	
496.36	7388.4	
496.55	9605.7	
496.75	9085.5	
496.95	7856.7	
497.15	7737.2	
497.35	9673.2	
497.54	9680.7	
497.74	7546.1	
497.94	9431.6	
498.14	10505	
498.34	10289	
498.53	7264.1	
498.73	8047.8	
498.93	8988.5	
499.13	9529.9	
499.33	7847.8	
499.52	8488.8	
499.72	9544.9	
499.92	9936.1	
500.12	7529	
500.32	7773.4	
500.51	9850.7	
500.71	9676.7	
500.91	8654.7	
501.11	8125.7	
501.31	9739.5	
501.5	10116	
501.7	8854.7	
501.9	7744.1	
502.1	9445.9	
502.29	9833	
502.49	8231.5	
502.69	8729.1	
502.89	9639.1	
503.09	9605.7	
503.28	7079.8	
503.48	7268.9	
503.68	8733.9	
503.88	8915.5	
504.07	8351.6	
504.27	7814.4	
504.47	9273.2	
504.67	9433.6	
504.86	8254	
505.06	7894.2	
505.26	8915.5	
505.46	10867	
505.65	7804.8	
505.85	7945.4	
506.05	8839	
506.25	9324.4	
506.44	7008.8	
506.64	8140	
506.84	8673.8	
507.04	9830.9	
507.23	7299	
507.43	8015.1	
507.63	10983	
507.83	8929.1	
508.02	7877.9	
508.22	7438.2	
508.42	11092	
508.62	8676.6	
508.81	7804.1	
509.01	8405.5	
509.21	8597.4	
509.4	8906.6	
509.6	8028	
509.8	7253.2	
510	8927.1	
510.19	10549	
510.39	7385.7	
510.59	7375.4	
510.79	8684.1	
510.98	10152	
511.18	7377.5	
511.38	7556.3	
511.57	9568.8	
511.77	9391.3	
511.97	8212.4	
512.17	7073	
512.36	9539.4	
512.56	9477.3	
512.76	7289.4	
512.95	6944.7	
513.15	9747	
513.35	8265.6	
513.55	8137.3	
513.74	7302.4	
513.94	9645.3	
514.14	8901.8	
514.33	8159.8	
514.53	7860.8	
514.73	8763.3	
514.92	9048.6	
515.12	7469.6	
515.32	7250.5	
515.51	9220.6	
515.71	9858.2	
515.91	9133.9	
516.11	7322.2	
516.3	10984	
516.5	8695.7	
516.7	7857.4	
516.89	8527.1	
517.09	8800.1	
517.29	8726.4	
517.48	8110.6	
517.68	7586.4	
517.88	8552.3	
518.07	9263	
518.27	8051.2	
518.47	7059.3	
518.66	9884.2	
518.86	8368	
519.06	6884.6	
519.25	7348.1	
519.45	8729.8	
519.65	10436	
519.84	8008.2	
520.04	8772.1	
520.24	10635	
520.43	9318.9	
520.63	7640.3	
520.83	7352.9	
521.02	8491.6	
521.22	9308.7	
521.42	8011.7	
521.61	8626.7	
521.81	8811	
522.01	9086.2	
522.2	7875.1	
522.4	7738.6	
522.6	9534.7	
522.79	8278.6	
522.99	7798	
523.18	7056.6	
523.38	9356.5	
523.58	9340.1	
523.77	9193.3	
523.97	6982.9	
524.17	11268	
524.36	10342	
524.56	8432.9	
524.76	8060.1	
524.95	9318.9	
525.15	8964.6	
525.34	7848.5	
525.54	7819.1	
525.74	9619.3	
525.93	8481.3	
526.13	9059.5	
526.33	7722.2	
526.52	9960	
526.72	9394.7	
526.91	9032.2	
527.11	8273.8	
527.31	10041	
527.5	10518	
527.7	8179.6	
527.89	7204.1	
528.09	8854.7	
528.29	9529.2	
528.48	8634.2	
528.68	8279.3	
528.87	10020	
529.07	9853.5	
529.27	8101.1	
529.46	7531.7	
529.66	9336.7	
529.85	9822.7	
530.05	7230.7	
530.25	8152.3	
530.44	10828	
530.64	9235.7	
530.83	7881.9	
531.03	8169.3	
531.23	9858.2	
531.42	9762	
531.62	8967.4	
531.81	8137.9	
532.01	10000	
532.21	10576	
532.4	7817.8	
532.6	8189.8	
532.79	10802	
532.99	10088	
533.18	8179.6	
533.38	9259.5	
533.58	9524.4	
533.77	10370	
533.97	8155	
534.16	9086.2	
534.36	10655	
534.55	9561.3	
534.75	9287.5	
534.95	8218.5	
535.14	10375	
535.34	9531.9	
535.53	7750.9	
535.73	9899.9	
535.92	10965	
536.12	9598.1	
536.31	7816.4	
536.51	9260.2	
536.71	10038	
536.9	9661	
537.1	8080.6	
537.29	8174.8	
537.49	10484	
537.68	9484.1	
537.88	8684.8	
538.07	7878.5	
538.27	9614.5	
538.46	10970	
538.66	7688.1	
538.86	8167.3	
539.05	9782.5	
539.25	10221	
539.44	8459.5	
539.64	8006.9	
539.83	9503.9	
540.03	10686	
540.22	7862.2	
540.42	8036.2	
540.61	9892.4	
540.81	9913.5	
541	8623.3	
541.2	9241.8	
541.39	9336.7	
541.59	9761.3	
541.78	8791.9	
541.98	7845.1	
542.18	8955.8	
542.37	8952.4	
542.57	8301.1	
542.76	8696.4	
542.96	8953	
543.15	9790.7	
543.35	8224.6	
543.54	7475.1	
543.74	10095	
543.93	9650.7	
544.13	8170.7	
544.32	9383.1	
544.52	10022	
544.71	9190.6	
544.91	7210.2	
545.1	8625.4	
545.3	9125.7	
545.49	9963.4	
545.69	7215.7	
545.88	7955	
546.08	10960	
546.27	10532	
546.47	8388.5	
546.66	7734.5	
546.86	10115	
547.05	10773	
547.24	7910.6	
547.44	7679.9	
547.63	8956.4	
547.83	10307	
548.02	8057.4	
548.22	8325.7	
548.41	8796	
548.61	10238	
548.8	7692.2	
549	7548.8	
549.19	9405.6	
549.39	9734.7	
549.58	7316.7	
549.78	7868.3	
549.97	9882.1	
550.17	9359.2	
550.36	8953	
550.55	9984.5	
550.75	9241.1	
550.94	10238	
551.14	7570.7	
551.33	7907.9	
551.53	8737.3	
551.72	9663	
551.92	7948.2	
552.11	7666.9	
552.31	9740.8	
552.5	9867.1	
552.69	9573.6	
552.89	7290.8	
553.08	9654.8	
553.28	9437.7	
553.47	7798	
553.67	8896.4	
553.86	10484	
554.06	8498.4	
554.25	6813.6	
554.44	7544.7	
554.64	11230	
554.83	10684	
555.03	7459.4	
555.22	7867.6	
555.42	9856.9	
555.61	9601.6	
555.8	7662.8	
556	7978.2	
556.19	8625.4	
556.39	9998.2	
556.58	7749.5	
556.78	7649.2	
556.97	9373.6	
557.16	9030.9	
557.36	9056.1	
557.55	7310.6	
557.75	8254	
557.94	10225	
558.13	7433.4	
558.33	7139.2	
558.52	10018	
558.72	8899.1	
558.91	7206.1	
559.1	7591.1	
559.3	8502.5	
559.49	8204.8	
559.69	6838.2	
559.88	8039	
560.07	9433.6	
560.27	9804.3	
560.46	8102.4	
560.66	8202.8	
560.85	9066.4	
561.04	8303.1	
561.24	7200	
561.43	7533.1	
561.63	8598.7	
561.82	8839	
562.01	8882	
562.21	7810.3	
562.4	9350.3	
562.59	10463	
562.79	7703.1	
562.98	7333.1	
563.18	9213.8	
563.37	10860	
563.56	8242.4	
563.76	7148.8	
563.95	8626	
564.14	8628.8	
564.34	7485.3	
564.53	7314	
564.73	9188.6	
564.92	9682.8	
565.11	7822.6	
565.31	7153.6	
565.5	9785.2	
565.69	8781	
565.89	7387.7	
566.08	7572	
566.27	9694.4	
566.47	10148	
566.66	8276.5	
566.85	6828.6	
567.05	9217.2	
567.24	8607.6	
567.44	7211.6	
567.63	8767.4	
567.82	9482.1	
568.02	9215.9	
568.21	7176.1	
568.4	7660.1	
568.6	9071.8	
568.79	9092.3	
568.98	7058.7	
569.18	7245.7	
569.37	8961.2	
569.56	11138	
569.76	7622.5	
569.95	8567.3	
570.14	9383.1	
570.34	9385.2	
570.53	6968.6	
570.72	7023.2	
570.91	9877.4	
571.11	9039.1	
571.3	7579.5	
571.49	8525.7	
571.69	9060.9	
571.88	8554.4	
572.07	8169.3	
572.27	8125	
572.46	8591.9	
572.65	9699.9	
572.85	7281.2	
573.04	7712	
573.23	9907.4	
573.43	9236.3	
573.62	7037.5	
573.81	7869	
574	9110.7	
574.2	9030.9	
574.39	7496.2	
574.58	7660.1	
574.78	10087	
574.97	9273.9	
575.16	7922.2	
575.36	8242.4	
575.55	9653.4	
575.74	9801.6	
575.93	7035.5	
576.13	8215.8	
576.32	8939.4	
576.51	9657.5	
576.71	7460.1	
576.9	8940.1	
577.09	9914.2	
577.28	9411.8	
577.48	7948.8	
577.67	6967.2	
577.86	9103.2	
578.05	9489.6	
578.25	7673.1	
578.44	7692.9	
578.63	9139.4	
578.83	10441	
579.02	6995.2	
579.21	8634.2	
579.4	9402.2	
579.6	8969.4	
579.79	7817.8	
579.98	10197	
580.17	9712.8	
580.37	9864.4	
580.56	7255.3	
580.75	8165.3	
580.94	10365	
581.14	10093	
581.33	8533.9	
581.52	7346.7	
581.71	9600.2	
581.91	10344	
582.1	7040.2	
582.29	7767.9	
582.48	9288.9	
582.68	9190.6	
582.87	8249.2	
583.06	7733.8	
583.25	9587.9	
583.45	8867	
583.64	8508.6	
583.83	9344.9	
584.02	8983.8	
584.21	9570.8	
584.41	8449.9	
584.6	7758.4	
584.79	9204.3	
584.98	9973.6	
585.18	7163.1	
585.37	7148.8	
585.56	8658.8	
585.75	9655.5	
585.94	7355.6	
586.14	8118.8	
586.33	10212	
586.52	9100.5	
586.71	7881.3	
586.91	7547.4	
587.1	8490.9	
587.29	9615.9	
587.48	7567.2	
587.67	7377.5	
587.87	9486.2	
588.06	9574.9	
588.25	8790.6	
588.44	8129.8	
588.63	8964	
588.83	9660.3	
589.02	7383.6	
589.21	7305.8	
589.4	8626.7	
589.59	8449.9	
589.78	6292	
589.98	6679.8	
590.17	8047.8	
590.36	8750.3	
590.55	6101.6	
590.74	7131	
590.94	10308	
591.13	8761.9	
591.32	6822.5	
591.51	6415.6	
591.7	9323	
591.89	8747.6	
592.09	6523.5	
592.28	6974	
592.47	7884.7	
592.66	9878	
592.85	6451.1	
593.05	6672.3	
593.24	8453.3	
593.43	9277.3	
593.62	6720.1	
593.81	7376.8	
594	8474.5	
594.19	8735.3	
594.39	6656.6	
594.58	6640.2	
594.77	8879.3	
594.96	9583.1	
595.15	6576	
595.34	7161.1	
595.54	8855.4	
595.73	7985	
595.92	5953.4	
596.11	7185.6	
596.3	9554.5	
596.49	8089.5	
596.68	6995.9	
596.88	7478.5	
597.07	9267.7	
597.26	7859.4	
597.45	6340.5	
597.64	7725.6	
597.83	8185.7	
598.02	8852	
598.22	6602	
598.41	7282.6	
598.6	8601.5	
598.79	8051.9	
598.98	6566.5	
599.17	7613	
599.36	8645.8	
599.55	9978.4	
599.74	8751.7	
599.94	8489.5	
600.13	9226.8	
600.32	7948.8	
600.51	6313.2	
600.7	6473.6	
600.89	9938.8	
601.08	9955.9	
601.27	6264.7	
601.47	7338.6	
601.66	9110	
601.85	9913.5	
602.04	6986.3	
602.23	7113.3	
602.42	8149.6	
602.61	8865	
602.8	6905.1	
602.99	6645.7	
603.18	8515.5	
603.37	8824	
603.57	7360.4	
603.76	8045.1	
603.95	9575.6	
604.14	9159.2	
604.33	6732.4	
604.52	7135.8	
604.71	8710.7	
604.9	8325	
605.09	7719.5	
605.28	7557	
605.47	9340.1	
605.66	9099.1	
605.86	7339.2	
606.05	6707.8	
606.24	9374.2	
606.43	7795.3	
606.62	7059.3	
606.81	7879.2	
607	9198.8	
607.19	8395.3	
607.38	6511.2	
607.57	6771.9	
607.76	8281.3	
607.95	7679.9	
608.14	7138.5	
608.33	7823.9	
608.52	8260.8	
608.72	9172.2	
608.91	6410.8	
609.1	6238.1	
609.29	8318.2	
609.48	7772	
609.67	7328.3	
609.86	6315.3	
610.05	7965.9	
610.24	8267	
610.43	6150.7	
610.62	5689.9	
610.81	9413.8	
611	9258.2	
611.19	6370.5	
611.38	7083.2	
611.57	8714.1	
611.76	9990	
611.95	6065.4	
612.14	6008.1	
612.33	8363.9	
612.52	7868.3	
612.71	6668.9	
612.9	5729.5	
613.09	7391.1	
613.28	10047	
613.47	6284.5	
613.66	7441.6	
613.85	8413.1	
614.04	7991.2	
614.24	6457.2	
614.43	5690.6	
614.62	8647.9	
614.81	8563.9	
615	7126.9	
615.19	7152.2	
615.38	7784.3	
615.57	8153	
615.76	6987	
615.95	7896.3	
616.14	8591.2	
616.33	8243.1	
616.52	7275.8	
616.71	7471	
616.9	8692.9	
617.09	8472.4	
617.28	6591.7	
617.47	8249.9	
617.66	7669	
617.85	7722.9	
618.04	7584.3	
618.22	6898.9	
618.41	8046.5	
618.6	8980.3	
618.79	6893.5	
618.98	6545.3	
619.17	9324.4	
619.36	7533.1	
619.55	6681.8	
619.74	6737.8	
619.93	8501.1	
620.12	7965.2	
620.31	7240.3	
620.5	7465.5	
620.69	9151.7	
620.88	9493.7	
621.07	8211.7	
621.26	7141.3	
621.45	8666.3	
621.64	8746.2	
621.83	7274.4	
622.02	6336.4	
622.21	8699.8	
622.4	8466.3	
622.59	7848.5	
622.78	7574.1	
622.97	8053.3	
623.16	9043.8	
623.35	7091.4	
623.54	6287.3	
623.72	8189.8	
623.91	8378.9	
624.1	7526.3	
624.29	5959.6	
624.48	9552.4	
624.67	8769.4	
624.86	7328.3	
625.05	6324.8	
625.24	9670.5	
625.43	7861.5	
625.62	9137.4	
625.81	6604.7	
626	9026.1	
626.19	8287.4	
626.38	7360.4	
626.56	6709.1	
626.75	8023.9	
626.94	8507.9	
627.13	7283.9	
627.32	5954.8	
627.51	8705.9	
627.7	10124	
627.89	5902.9	
628.08	7300.3	
628.27	7906.5	
628.46	8034.9	
628.65	6449.7	
628.83	6031.3	
629.02	8663.6	
629.21	7893.6	
629.4	6875	
629.59	7115.3	
629.78	7756.3	
629.97	9019.9	
630.16	7235.5	
630.35	6617	
630.54	9384.5	
630.72	9073.2	
630.91	6626.5	
631.1	7182.2	
631.29	8568.7	
631.48	8652	
631.67	7328.3	
631.86	6743.3	
632.05	8039	
632.24	8165.9	
632.42	6344.6	
632.61	6944	
632.8	8239	
632.99	7815	
633.18	7043	
633.37	7471.7	
633.56	8480	
633.75	8275.8	
633.93	6967.2	
634.12	6619.7	
634.31	9355.8	
634.5	9049.3	
634.69	6642.9	
634.88	7189.1	
635.07	8258.8	
635.25	8929.8	
635.44	7671.7	
635.63	7924.3	
635.82	8085.4	
636.01	7599.3	
636.2	7555	
636.39	7089.4	
636.57	9265.7	
636.76	9025.4	
636.95	6421.7	
637.14	7991.9	
637.33	8585.1	
637.52	9657.5	
637.7	6224.5	
637.89	7290.8	
638.08	8123.6	
638.27	9700.5	
638.46	7293.5	
638.65	7766.6	
638.83	9688.9	
639.02	7942	
639.21	7186.3	
639.4	7776.8	
639.59	8490.9	
639.78	7906.5	
639.96	6532.3	
640.15	6497.5	
640.34	8260.8	
640.53	8530.5	
640.72	6167.8	
640.91	6548	
641.09	7668.3	
641.28	9166	
641.47	6528.2	
641.66	7437.5	
641.85	8373.5	
642.03	8705.2	
642.22	7197.2	
642.41	6625.9	
642.6	7776.1	
642.79	7231.4	
642.97	6400.6	
643.16	7215.7	
643.35	7720.2	
643.54	7524.2	
643.73	6302.3	
643.91	7200.7	
644.1	7361.1	
644.29	7991.2	
644.48	6341.9	
644.67	6471.6	
644.85	7545.4	
645.04	7979.6	
645.23	5847	
645.42	6233.3	
645.6	7387	
645.79	8729.8	
645.98	6199.9	
646.17	5199.8	
646.36	7201.3	
646.54	7918.8	
646.73	7076.4	
646.92	5810.8	
647.11	7406.1	
647.29	8598.7	
647.48	5967.1	
647.67	5750.7	
647.86	8834.3	
648.05	8903.9	
648.23	6385.6	
648.42	7628	
648.61	8195.3	
648.8	7944.1	
648.98	5978.7	
649.17	6313.2	
649.36	7482.6	
649.55	6920.8	
649.73	5955.5	
649.92	6741.9	
650.11	7268.2	
650.3	7675.8	
650.48	6085.2	
650.67	5729.5	
650.86	7960.5	
651.05	6838.2	
651.23	6059.9	
651.42	6059.3	
651.61	7451.9	
651.79	7610.9	
651.98	6281.8	
652.17	5877.7	
652.36	7946.8	
652.54	6905.1	
652.73	5814.9	
652.92	5670.1	
653.11	7971.4	
653.29	7967.3	
653.48	5064.6	
653.67	6238.1	
653.85	7659.4	
654.04	8725	
654.23	6406	
654.42	5849.7	
654.6	7211.6	
654.79	7864.9	
654.98	5268.1	
655.16	5900.9	
655.35	6730.3	
655.54	6642.2	
655.73	5552	
655.91	5446.2	
656.1	8005.5	
656.29	6701	
656.47	5040.1	
656.66	6886.6	
656.85	6987.7	
657.03	7025.2	
657.22	5515.2	
657.41	5682.4	
657.59	7081.9	
657.78	6851.1	
657.97	5218.2	
658.16	5964.4	
658.34	7795.9	
658.53	8213	
658.72	6913.3	
658.9	7526.3	
659.09	7096.2	
659.28	7214.3	
659.46	5678.3	
659.65	5485.8	
659.84	7000.6	
660.02	7529.7	
660.21	5495.4	
660.4	5486.5	
660.58	7932.5	
660.77	7300.3	
660.96	6113.9	
661.14	5038	
661.33	8569.4	
661.52	8399.4	
661.7	5059.2	
661.89	8974.9	
662.08	6853.2	
662.26	6460	
662.45	5337	
662.64	5472.9	
662.82	7605.5	
663.01	6779.5	
663.2	5484.5	
663.38	6369.2	
663.57	7559.7	
663.75	7379.5	
663.94	5842.2	
664.13	7212.9	
664.31	6743.3	
664.5	7690.8	
664.69	6036	
664.87	6787	
665.06	6539.2	
665.25	7393.8	
665.43	6980.8	
665.62	7031.4	
665.8	7679.9	
665.99	6937.8	
666.18	5811.5	
666.36	5940.5	
666.55	7686	
666.74	7539.3	
666.92	5407.3	
667.11	7187.7	
667.29	6986.3	
667.48	7662.8	
667.67	6834.1	
667.85	5852.4	
668.04	7047.1	
668.22	7036.8	
668.41	5899.5	
668.6	6055.8	
668.78	6789.7	
668.97	7077.1	
669.15	6240.8	
669.34	5139.7	
669.53	6827.9	
669.71	7171.3	
669.9	5409.4	
670.08	6020.3	
670.27	6834.8	
670.46	7476.5	
670.64	6305.7	
670.83	6491.4	
671.01	6752.8	
671.2	7326.3	
671.38	5466.7	
671.57	5264	
671.76	8101.8	
671.94	8621.3	
672.13	5340.4	
672.31	6489.3	
672.5	7511.3	
672.69	6803.4	
672.87	5458.5	
673.06	5835.3	
673.24	7376.8	
673.43	6827.2	
673.61	6170.5	
673.8	5711.8	
673.98	7600	
674.17	7741.3	
674.36	6324.1	
674.54	6196.5	
674.73	7322.9	
674.91	7517.4	
675.1	5934.3	
675.28	5520	
675.47	7039.6	
675.65	7653.9	
675.84	5746.6	
676.03	6138.4	
676.21	6846.4	
676.4	6297.5	
676.58	6648.4	
676.77	6302.3	
676.95	8463.6	
677.14	6784.9	
677.32	5436	
677.51	5184.8	
677.69	7600.7	
677.88	6341.9	
678.06	5270.1	
678.25	5395	
678.44	7142.6	
678.62	6832	
678.81	5076.2	
678.99	6173.3	
679.18	7857.4	
679.36	7568.6	
679.55	5620.3	
679.73	6334.4	
679.92	7420.5	
680.1	6747.4	
680.29	7049.1	
680.47	5752.7	
680.66	6756.2	
680.84	7613	
681.03	4894	
681.21	6090	
681.4	6730.3	
681.58	6650.4	
681.77	5439.4	
681.95	5356.1	
682.14	7686	
682.32	8013.7	
682.51	6402.6	
682.69	5089.2	
682.88	6713.2	
683.06	7393.8	
683.25	6027.9	
683.43	6580.8	
683.62	6992.4	
683.8	7411.6	
683.99	6713.2	
684.17	5827.2	
684.36	8299.7	
684.54	6808.1	
684.73	4925.4	
684.91	5188.9	
685.1	7245.7	
685.28	6607.4	
685.46	5861.3	
685.65	5971.2	
685.83	7559.7	
686.02	6902.3	
686.2	5459.2	
686.39	5564.3	
686.57	6761	
686.76	8286.8	
686.94	5354.8	
687.13	5497.4	
687.31	7391.8	
687.5	6893.5	
687.68	4892.6	
687.86	6381.5	
688.05	8593.3	
688.23	6333	
688.42	6335	
688.6	5451.7	
688.79	6738.5	
688.97	6763.8	
689.16	5857.2	
689.34	4702.8	
689.52	7574.8	
689.71	7695.6	
689.89	6096.8	
690.08	5311.7	
690.26	6952.2	
690.45	6829.3	
690.63	6272.2	
690.81	5467.4	
691	6625.2	
691.18	6612.9	
691.37	5648.3	
691.55	8029.4	
691.74	6518.7	
691.92	8734.6	
692.1	5652.4	
692.29	5057.8	
692.47	6880.5	
692.66	6081.8	
692.84	5298.1	
693.02	5969.1	
693.21	6208.8	
693.39	6798.6	
693.58	6005.3	
693.76	5406.6	
693.94	8073.8	
694.13	7920.9	
694.31	5349.3	
694.5	6498.2	
694.68	6574	
694.86	6989.7	
695.05	5760.3	
695.23	6147.3	
695.42	7318.1	
695.6	9893.7	
695.78	6414.2	
695.97	5386.8	
696.15	7350.8	
696.34	6694.1	
696.52	5126.7	
696.7	6102.9	
696.89	7133.1	
697.07	6471.6	
697.25	5987.6	
697.44	7632.8	
697.62	7028.6	
697.81	7460.1	
697.99	5640.1	
698.17	6112.5	
698.36	6266.1	
698.54	7120.1	
698.72	5992.4	
698.91	4915.1	
699.09	6668.9	
699.28	6518	
699.46	5623	
699.64	5458.5	
699.83	6417	
700.01	7830.1	
700.19	6335.7	
700.38	4685.8	
700.56	7767.3	
700.74	6513.9	
700.93	5102.9	
701.11	5933.6	
701.29	7101.7	
701.48	8295.6	
701.66	5366.4	
701.84	5302.9	
702.03	6635.4	
702.21	7357	
702.39	4902.2	
702.58	5464	
702.76	7080.5	
702.94	7175.4	
703.13	4902.2	
703.31	7586.4	
703.49	6267.5	
703.68	7763.8	
703.86	5059.2	
704.04	6198.5	
704.23	6914.6	
704.41	7348.1	
704.59	5241.4	
704.78	6586.3	
704.96	8062.9	
705.14	7468.3	
705.33	4955.4	
705.51	5920	
705.69	6793.8	
705.87	7590.5	
706.06	6169.2	
706.24	4971.1	
706.42	6966.5	
706.61	7329	
706.79	6253.8	
706.97	4986.1	
707.16	6461.3	
707.34	7040.9	
707.52	6208.1	
707.7	5282.4	
707.89	6555.5	
708.07	6258.6	
708.25	6152.1	
708.44	6328.2	
708.62	6537.1	
708.8	7736.5	
708.98	6505.7	
709.17	5384.1	
709.35	6918.7	
709.53	6980.2	
709.72	4988.2	
709.9	5156.8	
710.08	7197.2	
710.26	7262.1	
710.45	6791.1	
710.63	5346.6	
710.81	6906.4	
710.99	6911.9	
711.18	6053.1	
711.36	5472.2	
711.54	6761.7	
711.72	7552.9	
711.91	5580.7	
712.09	4973.8	
712.27	6863.4	
712.45	7564.5	
712.64	5935.7	
712.82	4715.1	
713	6299.6	
713.18	6432.7	
713.37	4850.3	
713.55	6260	
713.73	7420.5	
713.91	5872.2	
714.1	5298.1	
714.28	4689.8	
714.46	7048.4	
714.64	6224.5	
714.83	4207.2	
715.01	5163.6	
715.19	6376.7	
715.37	5770.5	
715.55	4853.7	
715.74	5226.4	
715.92	7348.8	
716.1	5224.4	
716.28	6434.7	
716.47	5406	
716.65	5958.9	
716.83	6163.7	
717.01	5237.3	
717.19	5356.1	
717.38	8405.5	
717.56	5688.6	
717.74	5585.5	
717.92	4649.6	
718.1	7109.9	
718.29	6305.7	
718.47	4192.9	
718.65	4872.8	
718.83	6916.7	
719.01	6871.6	
719.2	3966.2	
719.38	5253	
719.56	6486.6	
719.74	8154.3	
719.92	4644.8	
720.11	5786.9	
720.29	6515.3	
720.47	5578	
720.65	4214	
720.83	5157.5	
721.02	6014.2	
721.2	5758.2	
721.38	5264.6	
721.56	4416.8	
721.74	5251.7	
721.92	5543.9	
722.11	5851.7	
722.29	5524.1	
722.47	6888	
722.65	5948.7	
722.83	4463.9	
723.01	5585.5	
723.2	6146.6	
723.38	6436.8	
723.56	3911.6	
723.74	5256.5	
723.92	5543.9	
724.1	6763.8	
724.29	4444.1	
724.47	5698.8	
724.65	5554.8	
724.83	5557.5	
725.01	4303.5	
725.19	5281	
725.37	5673.6	
725.56	5689.3	
725.74	4154.6	
725.92	4431.8	
726.1	5443.5	
726.28	5815.5	
726.46	4965.6	
726.64	4642.1	
726.83	5891.3	
727.01	6177.4	
727.19	4165.6	
727.37	5034.6	
727.55	5920.7	
727.73	6510.5	
727.91	4123.2	
728.09	3986.7	
728.28	6526.2	
728.46	7206.1	
728.64	5218.9	
728.82	5205.9	
729	7725.6	
729.18	6921.5	
729.36	4307.6	
729.54	6896.2	
729.72	8031.5	
729.91	6096.8	
730.09	6348.7	
730.27	5044.8	
730.45	5984.2	
730.63	6709.1	
730.81	5729.5	
730.99	4690.5	
731.17	7215.7	
731.35	5721.3	
731.53	5201.2	
731.71	4772.4	
731.9	6990.4	
732.08	7185.6	
732.26	5062.6	
732.44	4747.9	
732.62	7183.6	
732.8	6685.9	
732.98	5528.2	
733.16	4467.3	
733.34	6691.4	
733.52	5380.7	
733.7	5042.1	
733.88	5438.7	
734.07	6566.5	
734.25	6271.6	
734.43	4468	
734.61	6240.8	
734.79	7783	
734.97	6139.8	
735.15	4655.7	
735.33	4993.6	
735.51	6528.9	
735.69	6167.8	
735.87	6388.3	
736.05	5298.1	
736.23	6328.2	
736.41	6116.6	
736.59	5061.2	
736.77	5246.9	
736.95	6844.3	
737.13	6206	
737.32	4731.5	
737.5	4969.7	
737.68	7518.8	
737.86	6123.4	
738.04	4473.4	
738.22	6565.1	
738.4	5946.6	
738.58	6287.3	
738.76	5229.1	
738.94	4039.3	
739.12	6057.2	
739.3	5963	
739.48	5925.5	
739.66	5596.4	
739.84	6340.5	
740.02	6293.4	
740.2	4132.1	
740.38	4622.9	
740.56	6772.6	
740.74	5603.9	
740.92	5351.3	
741.1	5229.8	
741.28	6164.4	
741.46	5967.1	
741.64	4824.3	
741.82	5316.5	
742	6257.9	
742.18	6214.9	
742.36	5065.3	
742.54	4626.4	
742.72	6864.1	
742.9	5515.2	
743.08	5565	
743.26	4157.4	
743.44	7111.2	
743.62	6948.1	
743.8	5692	
743.98	4612	
744.16	6650.4	
744.34	6251.1	
744.52	5582.8	
744.7	5535	
744.88	6741.2	
745.06	6253.1	
745.24	5642.8	
745.42	5871.5	
745.6	6844.3	
745.78	6578.8	
745.96	4369.7	
746.14	4717.8	
746.32	7700.4	
746.5	6925.5	
746.68	5340.4	
746.86	4805.2	
747.03	7447.8	
747.21	5483.1	
747.39	5375.2	
747.57	4792.9	
747.75	6516	
747.93	6902.3	
748.11	4838	
748.29	4715.1	
748.47	8168	
748.65	6184.2	
748.83	5590.3	
749.01	5315.2	
749.19	6729.6	
749.37	5858.6	
749.55	5081.7	
749.73	5216.2	
749.91	6308.4	
750.09	6089.3	
750.26	5285.8	
750.44	4710.3	
750.62	6419	
750.8	6401.3	
750.98	4521.9	
751.16	4774.5	
751.34	6367.8	
751.52	5758.9	
751.7	5771.2	
751.88	4403.1	
752.06	6977.4	
752.24	6764.4	
752.42	4412.7	
752.59	4752	
752.77	6345.3	
752.95	7713.3	
753.13	5624.4	
753.31	4907.6	
753.49	6000.5	
753.67	6533	
753.85	5328.8	
754.03	4823.6	
754.21	6804.7	
754.38	7224.6	
754.56	5126.7	
754.74	4009.9	
754.92	6074.3	
755.1	6862.7	
755.28	4102.8	
755.46	4063.9	
755.64	7589.8	
755.82	7761.1	
755.99	4356.7	
756.17	4586.1	
756.35	5014.8	
756.53	6737.1	
756.71	3246	
756.89	4362.2	
757.07	6350.1	
757.25	5291.3	
757.42	4962.2	
757.6	6006	
757.78	6361.7	
757.96	5289.9	
758.14	4627	
758.32	4089.8	
758.5	4730.8	
758.67	5755.5	
758.85	4431.1	
759.03	4547.2	
759.21	5940.5	
759.39	5298.1	
759.57	3917.1	
759.75	5285.8	
759.92	6595.1	
760.1	5793.7	
760.28	5601.9	
760.46	5861.3	
760.64	5548.6	
760.82	5304.2	
760.99	5459.2	
761.17	4484.4	
761.35	6437.4	
761.53	5315.2	
761.71	4643.4	
761.89	5469.4	
762.06	6382.2	
762.24	5761.6	
762.42	4783.4	
762.6	4524.6	
762.78	5785.5	
762.96	6540.5	
763.13	5220.3	
763.31	4812.7	
763.49	6799.3	
763.67	5752.7	
763.85	5726.8	
764.02	6437.4	
764.2	7021.1	
764.38	6152.1	
764.56	4689.8	
764.74	5693.4	
764.91	7121.5	
765.09	5919.3	
765.27	4419.5	
765.45	4246.8	
765.63	7167.9	
765.8	7062.8	
765.98	3876.1	
766.16	4235.9	
766.34	5485.1	
766.52	5274.2	
766.69	5289.2	
766.87	4061.1	
767.05	5969.1	
767.23	6693.4	
767.41	4481	
767.58	4713.1	
767.76	6608.1	
767.94	6655.2	
768.12	4501.4	
768.29	5361.6	
768.47	6020.3	
768.65	6842.3	
768.83	4136.2	
769	5388.2	
769.18	5550.7	
769.36	6339.1	
769.54	5404.6	
769.72	4207.9	
769.89	6597.9	
770.07	6826.6	
770.25	4530.8	
770.43	5923.4	
770.6	7477.8	
770.78	7954.3	
770.96	4743.1	
771.14	5438	
771.31	6530.3	
771.49	5874.3	
771.67	3829	
771.85	4077.5	
772.02	5030.5	
772.2	5827.2	
772.38	4900.8	
772.55	4367.6	
772.73	6154.8	
772.91	5866.7	
773.09	4717.8	
773.26	4868	
773.44	6063.4	
773.62	5709.1	
773.8	4222.9	
773.97	3923.2	
774.15	6182.8	
774.33	5740.5	
774.5	4155.3	
774.68	4569	
774.86	6439.5	
775.04	5772.5	
775.21	4214.7	
775.39	4248.2	
775.57	6085.9	
775.74	6485.9	
775.92	4087.7	
776.1	3984.7	
776.27	6056.5	
776.45	7417.1	
776.63	4222.2	
776.81	3698.6	
776.98	5639.4	
777.16	6886.6	
777.34	4354.7	
777.51	4700.8	
777.69	5623	
777.87	5401.2	
778.04	4410	
778.22	5154.7	
778.4	5386.8	
778.57	6133	
778.75	3616.7	
778.93	3985.3	
779.1	5215.5	
779.28	5072.1	
779.46	3622.2	
779.64	4201.1	
779.81	6318.7	
779.99	7354.3	
780.17	5074.9	
780.34	5258.5	
780.52	5720	
780.69	6009.4	
780.87	4552.6	
781.05	4023.6	
781.22	5736.4	
781.4	5834	
781.58	4250.2	
781.75	3290.4	
781.93	5855.8	
782.11	5173.9	
782.28	5156.1	
782.46	4261.8	
782.64	5038.7	
782.81	6091.3	
782.99	4280.9	
783.17	4295.3	
783.34	5927.5	
783.52	5031.9	
783.69	4546.5	
783.87	5356.8	
784.05	5162.2	
784.22	5109	
784.4	5390.3	
784.58	4585.4	
784.75	6109.8	
784.93	5195	
785.1	4282.3	
785.28	4938.3	
785.46	5942.5	
785.63	5106.3	
785.81	4137.6	
785.99	4062.5	
786.16	5332.2	
786.34	5765.7	
786.51	4103.4	
786.69	4529.4	
786.87	4902.2	
787.04	5483.8	
787.22	3898.6	
787.39	4911.7	
787.57	5098.1	
787.75	6350.1	
787.92	5153.4	
788.1	5131.5	
788.27	5223	
788.45	4913.1	
788.63	4782.7	
788.8	3380.5	
788.98	5800.5	
789.15	4885.1	
789.33	3555.3	
789.5	4262.5	
789.68	6185.5	
789.86	6294.8	
790.03	4674.1	
790.21	4114.4	
790.38	6088.6	
790.56	5339.1	
790.73	3903.4	
790.91	3986.7	
791.09	5133.6	
791.26	6014.9	
791.44	4225.6	
791.61	3556.6	
791.79	5141.8	
791.96	5285.1	
792.14	3749.8	
792.32	3246	
792.49	5173.9	
792.67	5307.7	
792.84	3829.7	
793.02	3674.7	
793.19	6042.2	
793.37	6463.4	
793.54	3260.4	
793.72	3672.7	
793.89	6661.4	
794.07	5203.2	
794.25	4412.7	
794.42	3394.2	
794.6	6316.6	
794.77	5934.3	
794.95	4627	
795.12	4004.5	
795.3	5107	
795.47	5832.6	
795.65	4462.5	
795.82	4250.9	
796	4996.4	
796.17	7083.9	
796.35	4163.5	
796.52	4937	
796.7	5748.6	
796.87	5864	
797.05	5131.5	
797.22	5055.8	
797.4	5753.4	
797.57	6918	
797.75	4199.7	
797.92	4007.9	
798.1	6169.8	
798.27	5169.1	
798.45	3399.6	
798.62	3716.4	
798.8	5478.3	
798.97	6128.9	
799.15	4472.1	
799.32	4314.4	
799.5	4687.1	
799.67	5567.7	
799.85	4646.2	
800.02	3322.5	
800.2	5094.7	
800.37	5487.2	
800.55	4854.4	
800.72	4000.4	
800.9	6006	
801.07	6464.8	
801.25	5427.8	
801.42	4399.7	
801.6	6060.6	
801.77	5820.3	
801.95	4093.2	
802.12	3920.5	
802.29	5674.2	
802.47	5683.1	
802.64	4398.4	
802.82	3300.6	
802.99	5072.1	
803.17	6281.1	
803.34	4263.9	
803.52	3799	
803.69	6952.2	
803.87	4870.8	
804.04	4191.5	
804.21	4310.3	
804.39	6343.2	
804.56	5367	
804.74	3562.1	
804.91	4430.4	
805.09	5183.4	
805.26	5248.9	
805.44	3743	
805.61	4075.5	
805.78	5901.6	
805.96	5944.6	
806.13	4424.3	
806.31	4780.6	
806.48	4677.6	
806.66	5300.1	
806.83	4377.9	
807	4279.6	
807.18	5136.3	
807.35	5590.3	
807.53	4270.7	
807.7	3416	
807.87	6397.9	
808.05	5210.7	
808.22	4743.8	
808.4	3390.8	
808.57	5234.6	
808.74	4795.7	
808.92	3954.6	
809.09	5059.2	
809.27	5040.1	
809.44	5838.1	
809.61	3452.2	
809.79	3880.2	
809.96	6437.4	
810.14	5982.8	
810.31	3291.1	
810.48	4063.9	
810.66	5328.1	
810.83	6184.2	
811.01	3887	
811.18	4390.2	
811.35	6014.2	
811.53	4660.5	
811.7	4803.9	
811.87	4487.1	
812.05	5198.4	
812.22	5122.7	
812.39	3759.4	
812.57	3690.4	
812.74	5208	
812.92	7105.1	
813.09	4141	
813.26	4539.7	
813.44	6765.8	
813.61	5118.6	
813.78	3420.1	
813.96	4660.5	
814.13	5248.3	
814.3	4832.5	
814.48	5107.6	
814.65	4110.3	
814.82	6540.5	
815	5016.8	
815.17	4237.9	
815.34	5205.3	
815.52	5134.3	
815.69	5167.7	
815.87	4235.9	
816.04	4220.2	
816.21	5204.6	
816.38	4550.6	
816.56	4084.3	
816.73	3818.1	
816.9	6684.6	
817.08	6032	
817.25	3861.1	
817.42	4843.4	
817.6	4755.4	
817.77	5253	
817.94	4391.5	
818.12	3803.8	
818.29	4943.8	
818.46	7983	
818.64	3952.6	
818.81	3685	
818.98	4839.4	
819.16	7137.9	
819.33	4596.3	
819.5	4201.1	
819.67	5634	
819.85	6361	
820.02	4193.6	
820.19	4472.8	
820.37	5444.9	
820.54	5010.7	
820.71	4380.6	
820.88	5441.5	
821.06	5436.7	
821.23	4973.8	
821.4	4380.6	
821.58	4310.3	
821.75	6071.5	
821.92	5387.5	
822.09	3457	
822.27	3566.9	
822.44	5276.9	
822.61	5138.4	
822.79	3497.2	
822.96	6808.1	
823.13	5784.8	
823.3	4960.2	
823.48	4066.6	
823.65	3631.7	
823.82	5981.4	
823.99	4736.3	
824.17	5221	
824.34	3733.4	
824.51	6990.4	
824.68	5303.6	
824.86	3846.8	
825.03	4332.8	
825.2	5252.4	
825.37	6395.8	
825.55	3818.1	
825.72	4239.3	
825.89	7086.7	
826.06	6524.8	
826.24	4198.3	
826.41	4138.3	
826.58	6382.8	
826.75	5589.6	
826.92	3259.7	
827.1	3599.6	
827.27	8836.3	
827.44	7020.4	
827.61	3896.6	
827.79	4866.7	
827.96	4949.9	
828.13	5334.3	
828.3	4143.7	
828.47	3472.7	
828.65	5466	
828.82	5427.8	
828.99	5371.8	
829.16	4694.6	
829.34	5860.6	
829.51	5609.4	
829.68	4267.3	
829.85	4553.3	
830.02	6113.2	
830.2	5866.1	
830.37	3237.8	
830.54	5202.5	
830.71	6692.8	
830.88	5189.6	
831.05	3375.1	
831.23	3844	
831.4	6415.6	
831.57	7279.2	
831.74	3960.1	
831.91	3427.6	
832.09	5404.6	
832.26	5881.1	
832.43	4121.2	
832.6	4683	
832.77	5490.6	
832.94	6344.6	
833.12	3227.6	
833.29	4037.9	
833.46	5061.9	
833.63	7505.1	
833.8	4486.4	
833.97	4171.7	
834.15	5935	
834.32	5577.3	
834.49	4263.2	
834.66	4364.2	
834.83	6138.4	
835	4943.1	
835.17	3962.8	
835.35	3943	
835.52	5809.4	
835.69	5657.2	
835.86	4192.9	
836.03	3411.2	
836.2	5824.4	
836.37	5397.8	
836.55	4162.8	
836.72	3842.7	
836.89	5412.1	
837.06	5879.7	
837.23	4170.3	
837.4	4577.9	
837.57	6734.4	
837.75	7511.9	
837.92	3763.5	
838.09	4021.5	
838.26	5423	
838.43	6195.8	
838.6	4341	
838.77	3816	
838.94	7057.3	
839.11	6787	
839.29	4108.9	
839.46	3256.3	
839.63	5808	
839.8	5553.4	
839.97	4020.2	
840.14	4052.2	
840.31	5587.5	
840.48	5862	
840.65	3244.7	
840.82	3861.8	
841	5849	
841.17	5840.8	
841.34	3646.7	
841.51	3657.7	
841.68	5729.5	
841.85	5498.1	
842.02	3817.4	
842.19	3166.2	
842.36	5599.1	
842.53	5547.3	
842.7	3656.3	
842.87	4578.6	
843.05	7422.5	
843.22	5522.7	
843.39	3439.2	
843.56	3765.5	
843.73	5284.4	
843.9	5917.9	
844.07	6064	
844.24	5068	
844.41	8725.7	
844.58	5034.6	
844.75	3524.6	
844.92	3902.1	
845.09	5872.2	
845.26	5810.8	
845.43	3613.3	
845.6	3845.4	
845.77	5841.5	
845.94	5567.7	
846.12	4074.1	
846.29	4311.7	
846.46	6037.4	
846.63	5881.1	
846.8	3671.3	
846.97	4425.7	
847.14	6334.4	
847.31	5821	
847.48	4042.7	
847.65	4512.4	
847.82	6165.1	
847.99	6118.6	
848.16	4954	
848.33	4571.1	
848.5	5414.8	
848.67	6350.8	
848.84	3596.9	
849.01	3786	
849.18	5209.3	
849.35	4881.7	
849.52	4597.7	
849.69	3607.8	
849.86	6047	
850.03	6303.6	
850.2	3663.8	
850.37	4454.3	
850.54	6279.8	
850.71	5461.2	
850.88	4395.6	
851.05	3566.2	
851.22	5790.3	
851.39	6498.9	
851.56	3405.8	
851.73	4135.5	
851.9	5053	
852.07	6110.5	
852.24	4065.9	
852.41	3573.7	
852.58	5728.9	
852.75	5147.9	
852.92	4121.2	
853.09	3556.6	
853.26	5501.5	
853.43	6401.3	
853.6	3611.9	
853.77	3056.3	
853.94	6397.2	
854.11	5808.7	
854.28	5445.5	
854.44	3954.6	
854.61	6933.7	
854.78	6158.2	
854.95	3621.5	
855.12	4612.7	
855.29	4674.1	
855.46	6681.2	
855.63	3578.5	
855.8	5097.4	
855.97	5428.5	
856.14	6169.8	
856.31	5276.3	
856.48	3979.2	
856.65	5334.3	
856.82	5051.7	
856.99	3438.5	
857.16	3973.1	
857.33	7222.5	
857.49	5419.6	
857.66	3927.3	
857.83	4258.4	
858	5489.9	
858.17	5683.8	
858.34	3416.7	
858.51	3648.8	
858.68	6654.5	
858.85	6571.9	
859.02	4322.6	
859.19	4511.7	
859.36	5069.4	
859.52	5152.7	
859.69	3613.3	
859.86	4399	
860.03	5190.2	
860.2	6435.4	
860.37	3293.8	
860.54	3671.3	
860.71	6102.3	
860.88	6559	
861.05	4134.8	
861.21	4655.7	
861.38	6554.9	
861.55	4994.3	
861.72	3315	
861.89	4083	
862.06	6171.9	
862.23	6719.4	
862.4	3582.6	
862.56	3788.7	
862.73	5951.4	
862.9	5664	
863.07	4289.1	
863.24	3246	
863.41	5001.1	
863.58	5169.1	
863.75	3756	
863.91	4243.4	
864.08	6462	
864.25	5957.5	
864.42	4628.4	
864.59	5186.8	
864.76	6851.8	
864.93	5117.2	
865.09	3572.3	
865.26	3900.7	
865.43	6397.9	
865.6	6769.9	
865.77	3188	
865.94	3627.6	
866.1	6455.9	
866.27	6216.3	
866.44	5570.5	
866.61	3417.4	
866.78	5515.9	
866.95	5995.8	
867.11	3478.1	
867.28	3241.9	
867.45	6153.5	
867.62	5173.2	
867.79	4235.9	
867.96	3594.9	
868.12	5183.4	
868.29	6130.3	
868.46	3658.4	
868.63	4885.8	
868.8	6348.7	
868.97	6075	
869.13	3788.7	
869.3	3826.3	
869.47	5956.9	
869.64	6218.3	
869.81	3717.7	
869.97	3656.3	
870.14	5908.4	
870.31	6506.4	
870.48	3530	
870.65	4644.8	
870.81	5463.3	
870.98	5354.1	
871.15	4188.8	
871.32	3734.1	
871.48	5930.2	
871.65	6656.6	
871.82	3609.9	
871.99	3983.3	
872.16	6919.4	
872.32	6487.3	
872.49	3640.6	
872.66	3656.3	
872.83	6130.3	
872.99	5308.3	
873.16	4238.6	
873.33	3635.8	
873.5	5669.5	
873.67	5665.4	
873.83	3857.7	
874	4975.9	
874.17	5791.7	
874.34	7072.3	
874.5	4685.8	
874.67	4582.7	
874.84	6591.7	
875.01	5149.3	
875.17	5208	
875.34	3619.4	
875.51	5776.6	
875.68	6993.8	
875.84	4382.7	
876.01	5459.9	
876.18	6042.9	
876.34	5960.3	
876.51	3674.7	
876.68	3550.5	
876.85	5565	
877.01	6418.3	
877.18	5263.3	
877.35	3662.5	
877.52	5602.6	
877.68	5025.7	
877.85	3526.6	
878.02	3579.8	
878.18	5640.8	
878.35	5268.1	
878.52	2936.8	
878.69	4089.1	
878.85	6070.2	
879.02	6025.1	
879.19	5196.4	
879.35	3991.5	
879.52	5949.3	
879.69	6317.3	
879.86	3143.6	
880.02	4138.9	
880.19	5610.8	
880.36	6922.8	
880.52	4226.3	
880.69	4309.6	
880.86	6155.5	
881.02	6241.5	
881.19	3992.2	
881.36	3920.5	
881.52	6049	
881.69	5406	
881.86	3987.4	
882.02	3805.1	
882.19	6374.6	
882.36	7490.8	
882.52	3653.6	
882.69	5151.3	
882.86	5800.5	
883.02	5679.7	
883.19	4459.8	
883.36	4243.4	
883.52	6212.2	
883.69	7071.6	
883.86	3693.2	
884.02	3287.7	
884.19	6122.7	
884.36	5627.1	
884.52	4155.3	
884.69	3820.1	
884.86	5307	
885.02	6789.7	
885.19	4109.6	
885.36	4259.1	
885.52	5584.8	
885.69	5815.5	
885.86	5307.7	
886.02	4743.1	
886.19	6087.9	
886.35	5561.6	
886.52	4016.7	
886.69	5195.7	
886.85	5198.4	
887.02	6520	
887.19	6520	
887.35	6520	
887.52	6520	
887.68	6520	
887.85	6520	
888.02	6520	
888.18	6520	
888.35	6520	
888.51	6520	
888.68	6520	
888.85	6520	
889.01	6520	
889.18	6520	
889.35	6520	
889.51	6520	
889.68	6520	
889.84	6520	
890.01	6520	
890.17	6520	
890.34	6520	
890.51	6520	
890.67	6520	
890.84	6520	
891	6520	
891.17	6520	
891.34	6520	
891.5	6520	
891.67	6520	
891.83	6520	
892	6520	
892.16	6520	
892.33	6520	
892.5	6520	
892.66	6520	
892.83	6520	
892.99	6520	
893.16	6520	
893.32	6520	
893.49	6520	
893.65	6520	
893.82	6520	
893.99	6520	
894.15	6520	
894.32	6520	
894.48	6520	
894.65	6520	
894.81	6520	
894.98	6520	
895.14	6520	
895.31	6520	
895.47	6520	
895.64	6520	
895.81	6520	
895.97	6520	
896.14	6520	
896.3	6520	
896.47	6520	
896.63	6520	
896.8	6520	
896.96	6520	
897.13	6520	
897.29	6520	
897.46	6520	
897.62	6520	
897.79	6520	
897.95	6520	
898.12	6520	
898.28	6520	
898.45	6520	
898.61	6520	
898.78	6520	
898.94	6520	
899.11	6520	
899.27	6520	
899.44	6520	
899.6	6520	
899.77	6520	
899.93	6520	
900.1	6520	
900.26	6520	
900.43	6520	
900.59	6520	
900.76	6520	
900.92	6520	
901.09	6520	
901.25	6520	
901.42	6520	
901.58	6520	
901.75	6520	
901.91	6520	
902.07	6520	
902.24	6520	
902.4	6520	
902.57	6520	
902.73	6520	
902.9	6520	
903.06	6520	
903.23	6520	
903.39	6520	
903.56	6520	
903.72	6520	
903.88	6520	
904.05	6520	
904.21	6520	
904.38	6520	
904.54	6520	
904.71	6520	
904.87	6520	
905.03	6520	
905.2	6520	
905.36	6520	
905.53	6520	
905.69	6520	
905.86	6520	
906.02	6520	
906.18	6520	
906.35	6520	
906.51	6520	
906.68	6520	
906.84	6520	
907.01	6520	
907.17	6520	
907.33	6520	
907.5	6520	
907.66	6520	
907.83	6520	
907.99	6520	
908.15	6520	
908.32	6520	
908.48	6520	
908.65	6520	
908.81	6520	
908.97	6520	
909.14	6520	
909.3	6520	
909.47	6520	
909.63	6520	
909.79	6520	
909.96	6520	
910.12	6520	
910.28	6520	
910.45	6520	
910.61	6520	
910.78	6520	
910.94	6520	
911.1	6520	
911.27	6520	
911.43	6520	
911.59	6520	
911.76	6520	
911.92	6520	
912.08	6520	
912.25	6520	
912.41	6520	
912.57	6520	
912.74	6520	
912.9	6520	
913.07	6520	
913.23	6520	
913.39	6520	
913.56	6520	
913.72	6520	
913.88	6520	
914.05	6520	
914.21	6520	
914.37	6520	
914.54	6520	
914.7	6520	
914.86	6520	
915.03	6520	
915.19	6520	
