Wavelength	Intensities	
nm	a.u.	
179.22	1925.4	
179.44	1914.2	
179.65	1936.7	
179.86	1891.6	
180.08	1944.2	
180.29	5092.6	
180.51	3560.7	
180.72	5752.7	
180.94	6761	
181.15	3342.3	
181.37	3256.3	
181.58	5588.9	
181.79	5958.9	
182.01	3492.5	
182.22	3723.9	
182.44	5872.9	
182.65	4878.9	
182.87	4749.2	
183.08	4112.3	
183.29	6167.1	
183.51	5113.8	
183.72	3812.6	
183.94	5532.2	
184.15	5517.9	
184.37	5564.3	
184.58	3295.2	
184.79	4633.2	
185.01	5144.5	
185.22	5956.9	
185.44	4791.6	
185.65	4008.6	
185.86	5414.1	
186.08	4991.6	
186.29	3145	
186.51	3453.6	
186.72	5131.5	
186.94	6103.6	
187.15	4001.7	
187.36	4151.9	
187.58	7913.4	
187.79	5591.6	
188.01	4362.9	
188.22	6847	
188.43	6863.4	
188.65	5823.7	
188.86	3409.2	
189.08	4126.7	
189.29	5345.2	
189.5	5314.5	
189.72	3856.3	
189.93	3972.4	
190.15	6123.4	
190.36	7397.3	
190.57	4247.5	
190.79	4070	
191	6225.8	
191.22	6135.7	
191.43	4286.4	
191.64	3452.9	
191.86	6439.5	
192.07	6197.2	
192.29	3588	
192.5	3891.1	
192.71	6168.5	
192.93	5240.8	
193.14	3764.2	
193.35	3889.8	
193.57	5303.6	
193.78	6040.8	
194	3028.9	
194.21	3775.8	
194.42	5014.1	
194.64	5579.3	
194.85	4162.8	
195.07	4893.3	
195.28	5631.2	
195.49	4774.5	
195.71	5172.5	
195.92	3620.1	
196.13	5770.5	
196.35	5841.5	
196.56	5606	
196.78	4169	
196.99	7245	
197.2	6780.8	
197.42	4698	
197.63	4222.2	
197.84	4958.1	
198.06	5756.2	
198.27	3848.8	
198.48	5128.1	
198.7	5319.9	
198.91	5442.1	
199.13	4197	
199.34	4225.6	
199.55	5927.5	
199.77	4777.9	
199.98	3667.2	
200.19	4231.1	
200.41	5428.5	
200.62	5059.8	
200.83	4382.7	
201.05	4735.6	
201.26	5460.6	
201.47	5190.9	
201.69	3708.2	
201.9	3536.2	
202.11	5472.9	
202.33	6612.2	
202.54	3953.3	
202.76	4434.5	
202.97	5674.9	
203.18	5682.4	
203.4	4430.4	
203.61	4291.9	
203.82	5629.9	
204.04	5177.9	
204.25	4328.7	
204.46	4132.8	
204.68	5550	
204.89	5809.4	
205.1	4098.7	
205.32	3564.1	
205.53	5997.8	
205.74	6096.1	
205.96	2970.9	
206.17	4329.4	
206.38	5961	
206.6	6137.8	
206.81	4886.5	
207.02	3924.6	
207.24	5779.4	
207.45	6260.6	
207.66	3951.9	
207.88	3383.9	
208.09	5748	
208.3	5558.2	
208.52	3696.6	
208.73	3994.2	
208.94	5529.5	
209.15	6296.1	
209.37	3983.3	
209.58	4190.1	
209.79	6086.6	
210.01	5353.4	
210.22	3175	
210.43	3315.7	
210.65	5508.4	
210.86	6039.5	
211.07	3957.4	
211.29	3676.1	
211.5	5899.5	
211.71	5467.4	
211.93	3648.1	
212.14	3689.1	
212.35	5423.7	
212.56	5695.4	
212.78	4270	
212.99	3436.5	
213.2	6584.2	
213.42	5270.8	
213.63	3777.8	
213.84	4080.2	
214.06	4863.9	
214.27	5032.5	
214.48	3968.3	
214.69	4225.6	
214.91	6274.3	
215.12	6296.8	
215.33	4358.8	
215.55	4808.6	
215.76	6886.6	
215.97	5949.3	
216.18	4111	
216.4	3990.8	
216.61	5195	
216.82	6065.4	
217.04	3654.3	
217.25	3866.6	
217.46	6216.3	
217.67	5940.5	
217.89	3258.3	
218.1	3379.1	
218.31	5645.6	
218.53	5689.3	
218.74	3868.6	
218.95	3781.9	
219.16	5476.3	
219.38	6500.3	
219.59	3780.6	
219.8	4479.6	
220.01	7231.4	
220.23	5567.1	
220.44	5007.3	
220.65	3641.3	
220.87	5603.2	
221.08	6137.1	
221.29	3382.6	
221.5	4573.1	
221.72	7602.7	
221.93	5251	
222.14	4252.3	
222.35	4984.8	
222.57	5600.5	
222.78	5966.4	
222.99	3973.7	
223.2	4343.7	
223.42	5863.3	
223.63	6011.5	
223.84	3069.2	
224.05	3035.1	
224.27	7180.9	
224.48	6605.4	
224.69	5324	
224.9	4236.6	
225.12	5764.3	
225.33	5498.1	
225.54	3333.4	
225.75	3732.1	
225.97	5084.4	
226.18	5341.1	
226.39	4047.5	
226.6	3757.3	
226.82	5273.5	
227.03	5130.8	
227.24	4199	
227.45	3497.9	
227.67	5942.5	
227.88	6544.6	
228.09	4759.5	
228.3	4722.6	
228.52	6006	
228.73	5532.2	
228.94	4006.5	
229.15	3475.4	
229.36	5480.4	
229.58	5371.8	
229.79	3926	
230	4593.6	
230.21	6604	
230.43	5659.9	
230.64	4179.2	
230.85	4379.9	
231.06	5990.3	
231.28	5976.7	
231.49	3414	
231.7	4121.2	
231.91	5858.6	
232.12	5529.5	
232.34	3551.2	
232.55	4111.6	
232.76	6237.4	
232.97	5795.8	
233.18	3656.3	
233.4	4114.4	
233.61	5717.9	
233.82	5307.7	
234.03	3848.1	
234.25	3790.1	
234.46	7774.8	
234.67	5542.5	
234.88	4286.4	
235.09	3753.2	
235.31	5933	
235.52	5406.6	
235.73	4185.4	
235.94	3478.1	
236.15	5238.7	
236.37	6708.5	
236.58	3662.5	
236.79	4007.2	
237	5867.4	
237.21	4995.7	
237.43	4298.7	
237.64	3375.1	
237.85	10312	
238.06	5087.8	
238.27	4401.1	
238.48	3499.3	
238.7	5910.4	
238.91	5330.9	
239.12	3982.6	
239.33	4096.6	
239.54	5364.3	
239.76	5455.8	
239.97	3969.6	
240.18	3988.1	
240.39	6941.2	
240.6	5903.6	
240.82	4153.3	
241.03	3372.3	
241.24	5554.8	
241.45	6507.8	
241.66	3721.8	
241.87	4375.1	
242.09	6264.1	
242.3	6692.8	
242.51	4412	
242.72	4048.2	
242.93	6028.5	
243.14	5498.8	
243.36	4718.5	
243.57	5115.8	
243.78	6499.6	
243.99	5946.6	
244.2	4041.3	
244.41	3650.2	
244.63	5073.5	
244.84	5859.2	
245.05	4323.3	
245.26	4041.3	
245.47	5840.8	
245.68	6174.6	
245.9	5345.2	
246.11	4233.2	
246.32	5399.1	
246.53	5830.6	
246.74	6632	
246.95	3359.4	
247.16	4990.9	
247.38	5578	
247.59	3287.7	
247.8	4058.4	
248.01	5176.6	
248.22	5466	
248.43	3639.2	
248.64	3909.6	
248.86	4864.6	
249.07	5257.8	
249.28	3509.5	
249.49	4145.8	
249.7	6079.1	
249.91	6292.7	
250.12	3321.1	
250.34	3387.3	
250.55	5635.3	
250.76	5523.4	
250.97	4194.9	
251.18	4182.6	
251.39	6288.6	
251.6	5769.1	
251.81	4270.7	
252.03	4297.3	
252.24	5308.3	
252.45	6143.2	
252.66	3496.6	
252.87	4435.2	
253.08	5531.6	
253.29	7363.1	
253.5	3515	
253.72	4949.3	
253.93	5376.6	
254.14	6591	
254.35	3779.9	
254.56	3925.3	
254.77	5812.1	
254.98	5152.7	
255.19	3771	
255.41	4915.1	
255.62	5646.9	
255.83	6240.8	
256.04	4373.8	
256.25	4291.2	
256.46	6623.8	
256.67	5170.4	
256.88	4132.8	
257.09	4697.4	
257.31	5210.7	
257.52	5221	
257.73	5215.5	
257.94	3837.9	
258.15	5330.9	
258.36	5612.8	
258.57	4816.8	
258.78	3028.3	
258.99	5989.6	
259.2	5365	
259.41	3923.9	
259.63	3949.2	
259.84	6455.9	
260.05	6969.2	
260.26	5074.2	
260.47	3728.7	
260.68	6168.5	
260.89	5479.7	
261.1	4644.1	
261.31	3686.3	
261.52	6160.3	
261.73	6566.5	
261.95	5025	
262.16	4315.8	
262.37	6302.3	
262.58	6382.8	
262.79	5005.9	
263	3952.6	
263.21	5611.4	
263.42	5033.2	
263.63	3944.4	
263.84	3926	
264.05	6146	
264.26	6553.5	
264.47	4855.7	
264.69	4229.1	
264.9	6270.9	
265.11	5770.5	
265.32	3756.7	
265.53	3823.6	
265.74	5665.4	
265.95	4931.5	
266.16	4078.9	
266.37	4588.1	
266.58	5583.4	
266.79	5379.3	
267	3790.1	
267.21	3539.6	
267.42	5069.4	
267.63	5502.9	
267.84	4052.2	
268.06	3398.3	
268.27	5960.3	
268.48	6272.9	
268.69	3926	
268.9	4709.6	
269.11	6253.8	
269.32	4964.3	
269.53	4030.4	
269.74	3725.9	
269.95	5911.8	
270.16	4865.3	
270.37	4054.3	
270.58	4665.3	
270.79	5430.5	
271	6180.8	
271.21	4330.8	
271.42	4087.1	
271.63	5677	
271.84	5168.4	
272.05	3256.3	
272.26	3653.6	
272.47	5544.5	
272.68	5745.2	
272.89	3814	
273.11	4498	
273.32	5371.8	
273.53	6554.2	
273.74	4354.7	
273.95	4274.8	
274.16	6251.8	
274.37	5611.4	
274.58	4420.2	
274.79	3514.3	
275	5653.8	
275.21	6357.6	
275.42	5364.3	
275.63	4606.6	
275.84	5848.3	
276.05	7332.4	
276.26	4231.8	
276.47	4018.8	
276.68	5350	
276.89	6616.3	
277.1	4579.3	
277.31	3513.6	
277.52	5858.6	
277.73	5911.8	
277.94	3463.8	
278.15	3900	
278.36	5722.7	
278.57	5179.3	
278.78	3861.8	
278.99	4319.8	
279.2	5154.1	
279.41	5080.3	
279.62	5156.8	
279.83	3601	
280.04	6805.4	
280.25	5023.7	
280.46	5149.3	
280.67	3995.6	
280.88	5102.9	
281.09	6281.1	
281.3	4222.2	
281.51	5399.1	
281.72	5236.7	
281.93	6094.8	
282.14	3728	
282.35	4070	
282.56	6052.4	
282.77	6059.9	
282.98	3904.8	
283.19	4823.6	
283.4	7481.2	
283.61	5506.3	
283.82	3487	
284.03	5046.2	
284.24	5639.4	
284.45	6255.2	
284.66	5057.8	
284.87	4817.5	
285.08	6183.5	
285.29	6337.1	
285.5	3433.1	
285.71	3977.8	
285.92	6247.7	
286.12	6927.6	
286.33	4994.3	
286.54	3898.6	
286.75	6055.2	
286.96	5425.1	
287.17	3580.5	
287.38	4900.1	
287.59	5193.6	
287.8	5069.4	
288.01	4004.5	
288.22	4571.1	
288.43	6141.2	
288.64	5072.1	
288.85	4701.5	
289.06	4487.1	
289.27	5951.4	
289.48	6554.9	
289.69	5053.7	
289.9	4558.1	
290.11	6236.1	
290.32	5236	
290.53	4817.5	
290.74	4340.3	
290.94	5986.2	
291.15	6024.4	
291.36	3725.9	
291.57	4502.8	
291.78	5306.3	
291.99	4996.4	
292.2	3598.3	
292.41	4355.3	
292.62	6193.1	
292.83	5953.4	
293.04	5414.1	
293.25	3620.1	
293.46	5285.1	
293.67	6198.5	
293.88	3824.9	
294.09	3603.7	
294.29	5053	
294.5	5709.7	
294.71	4042.7	
294.92	3866.6	
295.13	5388.2	
295.34	6762.4	
295.55	3373.7	
295.76	3484.3	
295.97	5964.4	
296.18	6809.5	
296.39	3516.4	
296.6	3822.2	
296.81	5706.3	
297.01	6049.7	
297.22	3987.4	
297.43	3743.7	
297.64	5179.3	
297.85	5174.5	
298.06	3049.4	
298.27	3381.9	
298.48	5545.2	
298.69	5285.8	
298.9	4039.3	
299.11	3685.7	
299.31	5068.7	
299.52	5036.6	
299.73	4376.5	
299.94	4334.9	
300.15	5526.8	
300.36	5184.8	
300.57	4305.5	
300.78	4282.3	
300.99	5447.6	
301.2	5705	
301.4	3765.5	
301.61	4147.1	
301.82	5888.6	
302.03	5989.6	
302.24	4635.9	
302.45	3575.8	
302.66	5870.8	
302.87	6378.7	
303.08	3759.4	
303.29	5251	
303.49	5287.2	
303.7	5597.8	
303.91	3311.6	
304.12	4969.1	
304.33	5072.1	
304.54	5642.2	
304.75	3788.1	
304.96	3666.5	
305.16	5877	
305.37	6713.2	
305.58	3260.4	
305.79	3386.7	
306	5867.4	
306.21	4980.7	
306.42	3807.9	
306.63	5917.3	
306.83	5403.2	
307.04	6241.5	
307.25	4191.5	
307.46	4187.4	
307.67	4775.9	
307.88	6090.7	
308.09	3712.3	
308.29	3885	
308.5	5632.6	
308.71	6231.3	
308.92	4025.6	
309.13	3614.7	
309.34	5476.3	
309.55	5470.1	
309.75	4756.7	
309.96	4339	
310.17	5994.4	
310.38	5282.4	
310.59	4541	
310.8	4269.3	
311.01	5554.1	
311.21	5425.8	
311.42	3599.6	
311.63	3716.4	
311.84	5293.3	
312.05	5713.8	
312.26	4197	
312.46	4635.2	
312.67	5439.4	
312.88	5072.8	
313.09	3693.2	
313.3	3589.4	
313.51	6376.7	
313.71	6724.8	
313.92	3596.9	
314.13	3874.1	
314.34	5705.6	
314.55	5433.3	
314.76	4704.2	
314.96	4130.8	
315.17	5565	
315.38	5988.9	
315.59	3652.9	
315.8	3515	
316.01	6505	
316.21	6551.5	
316.42	3516.4	
316.63	4074.1	
316.84	5398.4	
317.05	6413.6	
317.26	4317.1	
317.46	3859.1	
317.67	5502.9	
317.88	5977.3	
318.09	4678.2	
318.3	3364.8	
318.5	5221.6	
318.71	5956.9	
318.92	5978.7	
319.13	4287.8	
319.34	6070.9	
319.54	6238.8	
319.75	3386.7	
319.96	3229.6	
320.17	5997.1	
320.38	6205.3	
320.58	3297.2	
320.79	4003.8	
321	6167.8	
321.21	6363.7	
321.42	4075.5	
321.62	3377.1	
321.83	5171.1	
322.04	5636.7	
322.25	3878.2	
322.46	3697.9	
322.66	5685.8	
322.87	5810.8	
323.08	4525.3	
323.29	3616.7	
323.5	6657.9	
323.7	5097.4	
323.91	4971.1	
324.12	4541.7	
324.33	5668.8	
324.53	5948	
324.74	4377.2	
324.95	4534.2	
325.16	4903.5	
325.37	5384.1	
325.57	3706.8	
325.78	3759.4	
325.99	5629.2	
326.2	5059.2	
326.4	5225.7	
326.61	3394.8	
326.82	5524.7	
327.03	5603.9	
327.24	5166.3	
327.44	5018.2	
327.65	5797.8	
327.86	4687.1	
328.07	4323.9	
328.27	3509.5	
328.48	6222.4	
328.69	5111	
328.9	5374.6	
329.1	3967.6	
329.31	5401.9	
329.52	6500.3	
329.73	3682.2	
329.93	4117.1	
330.14	5508.4	
330.35	5801.2	
330.56	6073.6	
330.76	4558.8	
330.97	5354.8	
331.18	5765	
331.39	4078.2	
331.59	3275.4	
331.8	6156.9	
332.01	6398.5	
332.22	3752.6	
332.42	4399	
332.63	5685.2	
332.84	5259.9	
333.05	4097.3	
333.25	3666.5	
333.46	5376.6	
333.67	5575.3	
333.88	3809.9	
334.08	4277.5	
334.29	7657.4	
334.5	6352.8	
334.7	3543.7	
334.91	5307	
335.12	5095.3	
335.33	5946.6	
335.53	4032.5	
335.74	6008.7	
335.95	5315.8	
336.16	5227.1	
336.36	4075.5	
336.57	4683.7	
336.78	5039.4	
336.98	6180.1	
337.19	5070.8	
337.4	3969	
337.61	6733.7	
337.81	5069.4	
338.02	3702.7	
338.23	4875.5	
338.43	6416.3	
338.64	5179.3	
338.85	3695.9	
339.05	4826.4	
339.26	6481.8	
339.47	4960.2	
339.68	3663.8	
339.88	5544.5	
340.09	5802.6	
340.3	6101.6	
340.5	4272.1	
340.71	3295.9	
340.92	5018.9	
341.13	6407.4	
341.33	3531.4	
341.54	4359.4	
341.75	5800.5	
341.95	5454.4	
342.16	4125.3	
342.37	4450.2	
342.57	5136.3	
342.78	5557.5	
342.99	4566.3	
343.19	3265.1	
343.4	6002.6	
343.61	5836.7	
343.81	3921.2	
344.02	3564.8	
344.23	6049	
344.43	6483.9	
344.64	4569.7	
344.85	4460.5	
345.06	5811.5	
345.26	6257.9	
345.47	4257	
345.68	4996.4	
345.88	4892.6	
346.09	6097.5	
346.3	4351.9	
346.5	3270.6	
346.71	5574.6	
346.92	5236	
347.12	3302	
347.33	4272.7	
347.54	6164.4	
347.74	6575.3	
347.95	4225	
348.16	3095.8	
348.36	5340.4	
348.57	5202.5	
348.78	4159.4	
348.98	4553.3	
349.19	5545.2	
349.39	5053	
349.6	3339.6	
349.81	3760.1	
350.01	5726.8	
350.22	5195.7	
350.43	4039.3	
350.63	4917.9	
350.84	5660.6	
351.05	5301.5	
351.25	3716.4	
351.46	3297.9	
351.67	6187.6	
351.87	5158.2	
352.08	3985.3	
352.29	4483.7	
352.49	5979.4	
352.7	5764.3	
352.9	3577.8	
353.11	4444.8	
353.32	6697.5	
353.52	5369.8	
353.73	3510.9	
353.94	4519.2	
354.14	5856.5	
354.35	5677	
354.55	3594.2	
354.76	4094.6	
354.97	5825.1	
355.17	5559.6	
355.38	3397.6	
355.59	4844.8	
355.79	5156.1	
356	5683.8	
356.2	4046.8	
356.41	3470.6	
356.62	4851	
356.82	5371.1	
357.03	4343.1	
357.24	3820.8	
357.44	5218.2	
357.65	5352	
357.85	5225.1	
358.06	3986	
358.27	4909	
358.47	5181.4	
358.68	3349.8	
358.88	4243.4	
359.09	5814.2	
359.3	6166.4	
359.5	4935.6	
359.71	4397	
359.91	6682.5	
360.12	5922.7	
360.33	4241.3	
360.53	4749.2	
360.74	5131.5	
360.94	5248.3	
361.15	4476.2	
361.36	3566.9	
361.56	5978	
361.77	5422.3	
361.97	4944.5	
362.18	3860.4	
362.38	5997.8	
362.59	4988.2	
362.8	3543.7	
363	3379.1	
363.21	4801.1	
363.41	5490.6	
363.62	4104.8	
363.83	5274.2	
364.03	5491.3	
364.24	6621.1	
364.44	5247.6	
364.65	5120.6	
364.85	5337.7	
365.06	5165.7	
365.27	3721.8	
365.47	3675.4	
365.68	6356.9	
365.88	5257.1	
366.09	4116.4	
366.29	3861.1	
366.5	5521.3	
366.71	6026.5	
366.91	5201.8	
367.12	4287.8	
367.32	6596.5	
367.53	5854.5	
367.73	4197	
367.94	5203.9	
368.14	5766.4	
368.35	6752.8	
368.56	4279.6	
368.76	3951.9	
368.97	5932.3	
369.17	7759.8	
369.38	3672	
369.58	3948.5	
369.79	4844.8	
369.99	6271.6	
370.2	5044.1	
370.4	4027	
370.61	5584.8	
370.82	6888.7	
371.02	3927.3	
371.23	3236.5	
371.43	4740.4	
371.64	6210.1	
371.84	3969.6	
372.05	5242.8	
372.25	7547.4	
372.46	5871.5	
372.66	3889.1	
372.87	3846.1	
373.07	5961	
373.28	7619.8	
373.48	5065.3	
373.69	4691.9	
373.9	5368.4	
374.1	5291.3	
374.31	4881	
374.51	4391.5	
374.72	6245.6	
374.92	4993.6	
375.13	5057.1	
375.33	4179.2	
375.54	5735.7	
375.74	5162.9	
375.95	4239.3	
376.15	5545.2	
376.36	5694.7	
376.56	5489.9	
376.77	4278.2	
376.97	4712.4	
377.18	6767.9	
377.38	5812.1	
377.59	5197.7	
377.79	3709.6	
378	5589.6	
378.2	6053.8	
378.41	3807.9	
378.61	3693.9	
378.82	6048.3	
379.02	5075.5	
379.23	3918.4	
379.43	5168.4	
379.64	6081.8	
379.84	5694	
380.05	3771	
380.25	3680.2	
380.46	5772.5	
380.66	5392.3	
380.87	5184.1	
381.07	5634	
381.28	6410.1	
381.48	5877	
381.69	3780.6	
381.89	3875.4	
382.1	4736.3	
382.3	6086.6	
382.51	4972.5	
382.71	5953.4	
382.91	5833.3	
383.12	6456.6	
383.32	4237.9	
383.53	4476.9	
383.73	5720	
383.94	5482.4	
384.14	4283	
384.35	3476.1	
384.55	5375.2	
384.76	5928.2	
384.96	4240	
385.17	4622.9	
385.37	5847	
385.58	5113.1	
385.78	4635.2	
385.98	3396.2	
386.19	5307.7	
386.39	5757.5	
386.6	3938.2	
386.8	4255	
387.01	5810.8	
387.21	5880.4	
387.42	4662.5	
387.62	5251.7	
387.83	5123.3	
388.03	5889.3	
388.23	4240	
388.44	5075.5	
388.64	4756.7	
388.85	4886.5	
389.05	4652.3	
389.26	5291.3	
389.46	6862.1	
389.67	6218.3	
389.87	4508.9	
390.07	4629.8	
390.28	5397.8	
390.48	4969.7	
390.69	3673.4	
390.89	4016.7	
391.1	5162.9	
391.3	6156.9	
391.5	5280.3	
391.71	5937.1	
391.91	5803.9	
392.12	6954.2	
392.32	5424.4	
392.53	4588.8	
392.73	5220.3	
392.93	5427.8	
393.14	4190.8	
393.34	5002.5	
393.55	5877.7	
393.75	5485.8	
393.95	4297.3	
394.16	4184.7	
394.36	5175.9	
394.57	5847	
394.77	3680.2	
394.98	4192.9	
395.18	5115.8	
395.38	5308.3	
395.59	5038	
395.79	3876.1	
396	5239.4	
396.2	5717.9	
396.4	4710.3	
396.61	4646.8	
396.81	5969.1	
397.02	5148.6	
397.22	4990.2	
397.42	5077.6	
397.63	5829.9	
397.83	5001.1	
398.04	3711.6	
398.24	4239.3	
398.44	5606	
398.65	4625.7	
398.85	3552.5	
399.05	3790.8	
399.26	4941.1	
399.46	6810.2	
399.67	4105.5	
399.87	3814	
400.07	5300.8	
400.28	5693.4	
400.48	3919.1	
400.69	4994.3	
400.89	5958.9	
401.09	6395.1	
401.3	3756.7	
401.5	4917.9	
401.7	6657.3	
401.91	6832.7	
402.11	4063.9	
402.32	4379.2	
402.52	5993	
402.72	5913.9	
402.93	4562.2	
403.13	3515	
403.33	6777.4	
403.54	5466.7	
403.74	4329.4	
403.94	5302.2	
404.15	5522	
404.35	6718	
404.56	4085	
404.76	6053.1	
404.96	5915.2	
405.17	5778.7	
405.37	5440.8	
405.57	4549.2	
405.78	5955.5	
405.98	5421	
406.18	4045.4	
406.39	5027.8	
406.59	5962.3	
406.79	5549.3	
407	3805.8	
407.2	4107.5	
407.4	5935	
407.61	6221	
407.81	3904.1	
408.01	6158.9	
408.22	4831.2	
408.42	6960.4	
408.62	5031.9	
408.83	4395.6	
409.03	5370.5	
409.23	5182.7	
409.44	4404.5	
409.64	4705.5	
409.84	6294.1	
410.05	6143.2	
410.25	4470.7	
410.45	4192.9	
410.66	5477.6	
410.86	8061.5	
411.06	4605.2	
411.27	4483.7	
411.47	7800.7	
411.67	5625.8	
411.88	4721.3	
412.08	4885.1	
412.28	6315.9	
412.49	6805.4	
412.69	4359.4	
412.89	4384	
413.09	6636.1	
413.3	6365.8	
413.5	4429.8	
413.7	4092.5	
413.91	5637.4	
414.11	6475.7	
414.31	4281.6	
414.52	4681.7	
414.72	6165.8	
414.92	6076.3	
415.12	4304.8	
415.33	4802.5	
415.53	6450.4	
415.73	6630	
415.94	5188.2	
416.14	4552	
416.34	5341.8	
416.55	5230.5	
416.75	5735.7	
416.95	5190.9	
417.15	6412.9	
417.36	7256	
417.56	5950	
417.76	4967.7	
417.97	6815	
418.17	6400.6	
418.37	4506.2	
418.57	4602.5	
418.78	6182.8	
418.98	5872.2	
419.18	5612.1	
419.38	5458.5	
419.59	5940.5	
419.79	5567.7	
419.99	4493.2	
420.2	4976.6	
420.4	6402	
420.6	6665.5	
420.8	4384.7	
421.01	4217.5	
421.21	6193.1	
421.41	6439.5	
421.61	4758.1	
421.82	4434.5	
422.02	5680.4	
422.22	6700.3	
422.42	5352	
422.63	4999.1	
422.83	5906.3	
423.03	7053.2	
423.23	5052.3	
423.44	3924.6	
423.64	5963.7	
423.84	5739.1	
424.04	4437.9	
424.25	4033.1	
424.45	6997.2	
424.65	6863.4	
424.85	3908.9	
425.06	4493.2	
425.26	6924.9	
425.46	5862	
425.66	5042.8	
425.87	4742.4	
426.07	6710.5	
426.27	6539.8	
426.47	4832.5	
426.67	4179.2	
426.88	7076.4	
427.08	6431.3	
427.28	5084.4	
427.48	4106.2	
427.69	5353.4	
427.89	5986.2	
428.09	5061.9	
428.29	4257	
428.5	6815.6	
428.7	6215.6	
428.9	4029.7	
429.1	4681	
429.3	6094.1	
429.51	6561	
429.71	4414.1	
429.91	5121.3	
430.11	6430.6	
430.31	6642.2	
430.52	4653	
430.72	4898.7	
430.92	7009.5	
431.12	6426.5	
431.32	4326	
431.53	4745.1	
431.73	5296.7	
431.93	7060.7	
432.13	4234.5	
432.33	4043.4	
432.54	5760.9	
432.74	6184.2	
432.94	3913	
433.14	5133.6	
433.34	6318	
433.55	5752.7	
433.75	5062.6	
433.95	6812.2	
434.15	6045.6	
434.35	5699.5	
434.56	4193.6	
434.76	3609.2	
434.96	6053.8	
435.16	6243.6	
435.36	3973.1	
435.56	5089.2	
435.77	5620.3	
435.97	5850.4	
436.17	5915.9	
436.37	5069.4	
436.57	5587.5	
436.78	5455.8	
436.98	5363.6	
437.18	5702.9	
437.38	6266.1	
437.58	5823.7	
437.78	5893.4	
437.99	4463.9	
438.19	6386.9	
438.39	7191.1	
438.59	4391.5	
438.79	3920.5	
438.99	7051.2	
439.2	5841.5	
439.4	4066.6	
439.6	3957.4	
439.8	6143.2	
440	7264.8	
440.2	4972.5	
440.4	5141.8	
440.61	6457.2	
440.81	7049.1	
441.01	4083	
441.21	4949.9	
441.41	6781.5	
441.61	6499.6	
441.81	5248.9	
442.02	6465.4	
442.22	7328.3	
442.42	6576	
442.62	4071.4	
442.82	4198.3	
443.02	6773.3	
443.22	5909.1	
443.43	4516.5	
443.63	4052.9	
443.83	5712.5	
444.03	5799.2	
444.23	5317.2	
444.43	4959.5	
444.63	5962.3	
444.83	7307.2	
445.04	4188.1	
445.24	5520.6	
445.44	6434.7	
445.64	6572.6	
445.84	5115.8	
446.04	5046.2	
446.24	5782.1	
446.44	6852.5	
446.65	4278.2	
446.85	4630.5	
447.05	6280.4	
447.25	6886.6	
447.45	4703.5	
447.65	4097.3	
447.85	6126.2	
448.05	5830.6	
448.25	5152.7	
448.46	4921.3	
448.66	6181.5	
448.86	5864	
449.06	3943	
449.26	5225.7	
449.46	6462	
449.66	5474.2	
449.86	4603.8	
450.06	4545.1	
450.26	5655.8	
450.47	6277.7	
450.67	4892.6	
450.87	5231.2	
451.07	6369.9	
451.27	6105.7	
451.47	4138.3	
451.67	4676.9	
451.87	5672.9	
452.07	7077.1	
452.27	4341.7	
452.47	4332.1	
452.67	6095.4	
452.88	6722.1	
453.08	3744.4	
453.28	5838.1	
453.48	7262.8	
453.68	6087.9	
453.88	4184	
454.08	4495.3	
454.28	6343.9	
454.48	6049.7	
454.68	5066	
454.88	5663.3	
455.08	6508.4	
455.28	6144.6	
455.48	4171.7	
455.68	4654.4	
455.89	6924.2	
456.09	6597.9	
456.29	4390.2	
456.49	4448.2	
456.69	6750.1	
456.89	5947.3	
457.09	4903.5	
457.29	5311.1	
457.49	6316.6	
457.69	6374.6	
457.89	4640.7	
458.09	4097.3	
458.29	5911.8	
458.49	6771.9	
458.69	5074.2	
458.89	4481.6	
459.09	6962.4	
459.29	7079.1	
459.49	4627.7	
459.69	5462.6	
459.9	6484.6	
460.1	5900.2	
460.3	4550.6	
460.5	4275.5	
460.7	6438.8	
460.9	6143.9	
461.1	3860.4	
461.3	5233.2	
461.5	7118.1	
461.7	6634.1	
461.9	4191.5	
462.1	4756.1	
462.3	6044.2	
462.5	6748.1	
462.7	4356	
462.9	4338.3	
463.1	7718.8	
463.3	7299.6	
463.5	4481.6	
463.7	5429.8	
463.9	6197.8	
464.1	6527.6	
464.3	4472.8	
464.5	4825	
464.7	6834.1	
464.9	6343.2	
465.1	6179.4	
465.3	5159.5	
465.5	7127.6	
465.7	7040.2	
465.9	5397.8	
466.1	5326.1	
466.3	6867.5	
466.5	6675.7	
466.7	6024.4	
466.9	4891.9	
467.1	6541.9	
467.3	7488.7	
467.5	5956.2	
467.7	4791.6	
467.9	7705.1	
468.1	8740	
468.3	5640.8	
468.5	6091.3	
468.7	6534.4	
468.9	6497.5	
469.1	5048.9	
469.3	5747.3	
469.5	8528.4	
469.7	6001.9	
469.9	5610.8	
470.1	4705.5	
470.3	6429.3	
470.5	6498.2	
470.7	6108.4	
470.9	4865.3	
471.1	6252.4	
471.3	6804	
471.5	4628.4	
471.69	6761	
471.89	6143.2	
472.09	5658.5	
472.29	5502.2	
472.49	6057.9	
472.69	5879	
472.89	6799.3	
473.09	4552.6	
473.29	4885.1	
473.49	6066.8	
473.69	6238.8	
473.89	5870.2	
474.09	4919.2	
474.29	7609.6	
474.49	7337.9	
474.69	5713.8	
474.89	5152.7	
475.09	6280.4	
475.29	6171.2	
475.49	4536.3	
475.69	4724.7	
475.88	8056	
476.08	6629.3	
476.28	4393.6	
476.48	4958.8	
476.68	7102.4	
476.88	7062.8	
477.08	4844.8	
477.28	5139	
477.48	6498.9	
477.68	7208.2	
477.88	4640.7	
478.08	4982.7	
478.28	7417.7	
478.48	6622.4	
478.67	5027.1	
478.87	4498	
479.07	7197.9	
479.27	6710.5	
479.47	5269.4	
479.67	5190.2	
479.87	7011.6	
480.07	7555.6	
480.27	4457.1	
480.47	6210.8	
480.67	6708.5	
480.87	7309.2	
481.06	4704.2	
481.26	5623	
481.46	6576	
481.66	6540.5	
481.86	5203.2	
482.06	6297.5	
482.26	6277	
482.46	7352.2	
482.66	5164.3	
482.86	4682.3	
483.05	6660.7	
483.25	6066.8	
483.45	7656	
483.65	5127.4	
483.85	6163.7	
484.05	6554.2	
484.25	5623.7	
484.45	5965.7	
484.65	7472.4	
484.84	7390.4	
485.04	4982.7	
485.24	5109.7	
485.44	7714	
485.64	5948.7	
485.84	4182.6	
486.04	5745.2	
486.24	6285.9	
486.44	6658.6	
486.63	4192.2	
486.83	4907.6	
487.03	6098.9	
487.23	6379.4	
487.43	4270.7	
487.63	6725.5	
487.83	6384.2	
488.02	7473	
488.22	5236	
488.42	5928.2	
488.62	7290.1	
488.82	6146	
489.02	4883.7	
489.22	4841.4	
489.41	7232.7	
489.61	6677.7	
489.81	4614.1	
490.01	4610.7	
490.21	6997.2	
490.41	7636.9	
490.61	4479.6	
490.8	4709	
491	6450.4	
491.2	5840.8	
491.4	5367	
491.6	4496	
491.8	6539.8	
491.99	6743.3	
492.19	4280.3	
492.39	4768.4	
492.59	7080.5	
492.79	7136.5	
492.99	5494	
493.18	4613.4	
493.38	7202.7	
493.58	7809.6	
493.78	5302.2	
493.98	4885.8	
494.18	6791.1	
494.37	6153.5	
494.57	5392.3	
494.77	5285.1	
494.97	6871.6	
495.17	7124.2	
495.37	4782.7	
495.56	5051	
495.76	7267.6	
495.96	6890	
496.16	6010.8	
496.36	4824.3	
496.55	6984.3	
496.75	6504.3	
496.95	5309	
497.15	5102.2	
497.35	7016.3	
497.54	6978.1	
497.74	4947.2	
497.94	6711.2	
498.14	7675.8	
498.34	7593.9	
498.53	4482.3	
498.73	5405.3	
498.93	6262.7	
499.13	6799.3	
499.33	5129.5	
499.52	5532.2	
499.72	6724.8	
499.92	7266.9	
500.12	4714.4	
500.32	5057.1	
500.51	7126.9	
500.71	6836.8	
500.91	5894.7	
501.11	5475.6	
501.31	7068.2	
501.5	7438.9	
501.7	6128.2	
501.9	5098.1	
502.1	6851.8	
502.29	7221.1	
502.49	5556.8	
502.69	6081.1	
502.89	7103	
503.09	6991.1	
503.28	4607.9	
503.48	4767.7	
503.68	6269.5	
503.88	6344.6	
504.07	5769.8	
504.27	5315.2	
504.47	6713.9	
504.67	6893.5	
504.86	5669.5	
505.06	5410.7	
505.26	6457.9	
505.46	8432.2	
505.65	5274.9	
505.85	5555.5	
506.05	6397.2	
506.25	6925.5	
506.44	4614.1	
506.64	5659.2	
506.84	6299.6	
507.04	7354.3	
507.23	4820.9	
507.43	5476.3	
507.63	8456.1	
507.83	6625.2	
508.02	5509.7	
508.22	5158.2	
508.42	8702.5	
508.62	6352.8	
508.81	5422.3	
509.01	6009.4	
509.21	6265.4	
509.4	6529.6	
509.6	5550.7	
509.8	4948.6	
510	6465.4	
510.19	8021.9	
510.39	4876.9	
510.59	4990.9	
510.79	6313.2	
510.98	7708.6	
511.18	4986.8	
511.38	5100.1	
511.57	7201.3	
511.77	7004.1	
511.97	5844.9	
512.17	4777.9	
512.36	7169.3	
512.56	7144.7	
512.76	4939	
512.95	4660.5	
513.15	7251.9	
513.35	5857.2	
513.55	5788.9	
513.74	4938.3	
513.94	7220.5	
514.14	6548	
514.33	5850.4	
514.53	5696.1	
514.73	6536.4	
514.92	6697.5	
515.12	5003.9	
515.32	4878.9	
515.51	6759	
515.71	7406.1	
515.91	6609.5	
516.11	4870.8	
516.3	8658.1	
516.5	6333.7	
516.7	5530.2	
516.89	6184.2	
517.09	6518.7	
517.29	6363	
517.48	5857.9	
517.68	5210	
517.88	6238.1	
518.07	6872.3	
518.27	5681.7	
518.47	4713.1	
518.66	7535.2	
518.86	6049.7	
519.06	4590.9	
519.25	5050.3	
519.45	6479.8	
519.65	7892.2	
519.84	5664.7	
520.04	6358.9	
520.24	8243.8	
520.43	7053.2	
520.63	5425.8	
520.83	5127.4	
521.02	6316.6	
521.22	6969.9	
521.42	5748.6	
521.61	6310.5	
521.81	6500.3	
522.01	6744	
522.2	5547.9	
522.4	5256.5	
522.6	7235.5	
522.79	5955.5	
522.99	5337	
523.18	4548.5	
523.38	6817	
523.58	6821.1	
523.77	6535.8	
523.97	4470	
524.17	8708	
524.36	7832.1	
524.56	5855.8	
524.76	5578	
524.95	6672.3	
525.15	6387.6	
525.34	5199.8	
525.54	5226.4	
525.74	6910.5	
525.93	5976	
526.13	6374	
526.33	5102.9	
526.52	7286.7	
526.72	6756.2	
526.91	6434	
527.11	5596.4	
527.31	7314	
527.5	7792.5	
527.7	5468.8	
527.89	4450.9	
528.09	6085.2	
528.29	6681.2	
528.48	5903.6	
528.68	5528.8	
528.87	7150.8	
529.07	7246.4	
529.27	5449.6	
529.46	4840	
529.66	6754.9	
529.85	7188.4	
530.05	4644.1	
530.25	5466.7	
530.44	8162.5	
530.64	6661.4	
530.83	5184.1	
531.03	5390.9	
531.23	7072.3	
531.42	7062.8	
531.62	6147.3	
531.81	5279.7	
532.01	7159.7	
532.21	7670.3	
532.4	4820.2	
532.6	5307.7	
532.79	8144.8	
532.99	7150.1	
533.18	5358.2	
533.38	6413.6	
533.58	6562.4	
533.77	7438.9	
533.97	5157.5	
534.16	6098.9	
534.36	7551.5	
534.55	6588.3	
534.75	6250.4	
534.95	5226.4	
535.14	7397.3	
535.34	6635.4	
535.53	4894	
535.73	7005.4	
535.92	8065.6	
536.12	6847	
536.31	5057.8	
536.51	6370.5	
536.71	7179.5	
536.9	6769.2	
537.1	5210	
537.29	5330.2	
537.49	7635.5	
537.68	6576	
537.88	5730.9	
538.07	4934.2	
538.27	6777.4	
538.46	7875.8	
538.66	4737.6	
538.86	5183.4	
539.05	6789	
539.25	7400.7	
539.44	5457.2	
539.64	5176.6	
539.83	6718	
540.03	7753.6	
540.22	5053	
540.42	5284.4	
540.61	7064.8	
540.81	7112.6	
541	5782.8	
541.2	6399.2	
541.39	6580.1	
541.59	6959.7	
541.78	5917.3	
541.98	5178.6	
542.18	6221	
542.37	6212.2	
542.57	5595.7	
542.76	6007.4	
542.96	6368.5	
543.15	7117.4	
543.35	5592.3	
543.54	4855.7	
543.74	7488.7	
543.93	6897.6	
544.13	5696.1	
544.32	6796.5	
544.52	7390.4	
544.71	6547.4	
544.91	4702.1	
545.1	6051.7	
545.3	6585.6	
545.49	7243	
545.69	4710.3	
545.88	5304.2	
546.08	8265.6	
546.27	7837.6	
546.47	5885.9	
546.66	5083.1	
546.86	7530.4	
547.05	8167.3	
547.24	5324	
547.44	5145.2	
547.63	6445.6	
547.83	7582.3	
548.02	5612.1	
548.22	5882.4	
548.41	6275	
548.61	7788.4	
548.8	5157.5	
549	5053.7	
549.19	6994.5	
549.39	7361.1	
549.58	4885.8	
549.78	5429.8	
549.97	7374.7	
550.17	6974	
550.36	6484.6	
550.55	7538.6	
550.75	6920.1	
550.94	7862.2	
551.14	5139	
551.33	5594.4	
551.53	6249	
551.72	7274.4	
551.92	5648.3	
552.11	5332.2	
552.31	7296.2	
552.5	7460.1	
552.69	7135.1	
552.89	4939	
553.08	7293.5	
553.28	7054.6	
553.47	5384.1	
553.67	6566.5	
553.86	7959.8	
554.06	6272.2	
554.25	4590.2	
554.44	5147.2	
554.64	8841.1	
554.83	8241	
555.03	5092.6	
555.22	5536.3	
555.42	7568.6	
555.61	7190.4	
555.8	5394.3	
556	5731.6	
556.19	6320.7	
556.39	7690.8	
556.58	5387.5	
556.78	5394.3	
556.97	7169.9	
557.16	6875	
557.36	6741.9	
557.55	4988.9	
557.75	6048.3	
557.94	7849.9	
558.13	5126.1	
558.33	4909.7	
558.52	7752.9	
558.72	6567.8	
558.91	5053.7	
559.1	5360.2	
559.3	6292	
559.49	6000.5	
559.69	4649.6	
559.88	5707	
560.07	7238.9	
560.27	7581.6	
560.46	5885.2	
560.66	6066.8	
560.85	6934.4	
561.04	6106.4	
561.24	5026.4	
561.43	5319.3	
561.63	6317.3	
561.82	6705	
562.01	6630.6	
562.21	5573.2	
562.4	7183.6	
562.59	8200.1	
562.79	5418.2	
562.98	5098.8	
563.18	7047.1	
563.37	8535.9	
563.56	5969.8	
563.76	4886.5	
563.95	6386.2	
564.14	6365.1	
564.34	5326.8	
564.53	5122.7	
564.73	7008.1	
564.92	7334.5	
565.11	5512.4	
565.31	4774.5	
565.5	7551.5	
565.69	6481.1	
565.89	5038.7	
566.08	5351.3	
566.27	7442.3	
566.47	7857.4	
566.66	6027.2	
566.85	4610	
567.05	6956.3	
567.24	6361.7	
567.44	4966.3	
567.63	6384.2	
567.82	7267.6	
568.02	6999.3	
568.21	4985.4	
568.4	5307.7	
568.6	6711.9	
568.79	6862.1	
568.98	4743.1	
569.18	4909	
569.37	6676.4	
569.56	8825.4	
569.76	5275.6	
569.95	6275.7	
570.14	7134.4	
570.34	7019.8	
570.53	4748.6	
570.72	4784.7	
570.91	7636.2	
571.11	6645	
571.3	5289.2	
571.49	6306.4	
571.69	6640.2	
571.88	6246.3	
572.07	5790.3	
572.27	5896.1	
572.46	6227.2	
572.65	7329.7	
572.85	4973.8	
573.04	5379.3	
573.23	7544.7	
573.43	6792.4	
573.62	4651.6	
573.81	5390.3	
574	6768.5	
574.2	6518.7	
574.39	5043.5	
574.58	5309	
574.78	7664.2	
574.97	6816.3	
575.16	5552.7	
575.36	5730.9	
575.55	7130.3	
575.74	7360.4	
575.93	4640.7	
576.13	5809.4	
576.32	6507.8	
576.51	7128.3	
576.71	5106.3	
576.9	6472.9	
577.09	7485.3	
577.28	6972.7	
577.48	5640.1	
577.67	4530.8	
577.86	6630	
578.05	6956.9	
578.25	5128.8	
578.44	5278.3	
578.63	6732.4	
578.83	7915.4	
579.02	4546.5	
579.21	6217	
579.4	6967.2	
579.6	6568.5	
579.79	5424.4	
579.98	7772	
580.17	7310.6	
580.37	7359	
580.56	4776.5	
580.75	5634	
580.94	7811	
581.14	7696.9	
581.33	6010.1	
581.52	4918.5	
581.71	7101	
581.91	7850.5	
582.1	4558.1	
582.29	5255.8	
582.48	6760.3	
582.68	6692.8	
582.87	5742.5	
583.06	5319.3	
583.25	7109.2	
583.45	6934.4	
583.64	5989.6	
583.83	6757.6	
584.02	6457.9	
584.21	7066.9	
584.41	6042.2	
584.6	5266.7	
584.79	6799.3	
584.98	7559.7	
585.18	4655.7	
585.37	4739	
585.56	6285.2	
585.75	7137.9	
585.94	4993.6	
586.14	5702.2	
586.33	7847.8	
586.52	6718	
586.71	5530.9	
586.91	5265.3	
587.1	6170.5	
587.29	7291.5	
587.48	5319.9	
587.67	5102.2	
587.87	7185	
588.06	7252.5	
588.25	6540.5	
588.44	5825.8	
588.63	6821.1	
588.83	7434.8	
589.02	5158.8	
589.21	5090.6	
589.4	6591.7	
589.59	6436.8	
589.78	4403.8	
589.98	4778.6	
590.17	6210.1	
590.36	6883.2	
590.55	4257	
590.74	5180.7	
590.94	8372.1	
591.13	6873	
591.32	4910.3	
591.51	4445.5	
591.7	7361.8	
591.89	6726.9	
592.09	4520.5	
592.28	5072.1	
592.47	5920	
592.66	7852.6	
592.85	4523.3	
593.05	4788.2	
593.24	6625.9	
593.43	7332.4	
593.62	4783.4	
593.81	5416.9	
594	6604	
594.19	6861.4	
594.39	4730.1	
594.58	4706.2	
594.77	6937.2	
594.96	7600.7	
595.15	4627.7	
595.34	5396.4	
595.54	7006.1	
595.73	6083.1	
595.92	4030.4	
596.11	5337.7	
596.3	7582.9	
596.49	6210.1	
596.68	5025	
596.88	5580	
597.07	7346.7	
597.26	6003.3	
597.45	4543.8	
597.64	5814.2	
597.83	6318	
598.02	6939.9	
598.22	4632.5	
598.41	5351.3	
598.6	6709.1	
598.79	6193.7	
598.98	4660.5	
599.17	5649.7	
599.36	6708.5	
599.55	8069	
599.74	6929.6	
599.94	6659.3	
600.13	7339.2	
600.32	6187.6	
600.51	4499.4	
600.7	4611.3	
600.89	8053.3	
601.08	8153	
601.27	4427.7	
601.47	5466.7	
601.66	7307.2	
601.85	7982.3	
602.04	5077.6	
602.23	5414.8	
602.42	6335.7	
602.61	6986.3	
602.8	5018.9	
602.99	4848.9	
603.18	6655.9	
603.37	7040.9	
603.57	5524.1	
603.76	6075.6	
603.95	7826	
604.14	7318.8	
604.33	4847.5	
604.52	5238.7	
604.71	7004.1	
604.9	6479.1	
605.09	5925.5	
605.28	5709.1	
605.47	7558.4	
605.66	7250.5	
605.86	5522	
606.05	4904.9	
606.24	7595.2	
606.43	6039.5	
606.62	5264.6	
606.81	6113.2	
607	7404.8	
607.19	6687.3	
607.38	4743.8	
607.57	4872.1	
607.76	6483.9	
607.95	5898.1	
608.14	5398.4	
608.33	6076.3	
608.52	6410.1	
608.72	7331	
608.91	4611.3	
609.1	4459.1	
609.29	6604.7	
609.48	6031.3	
609.67	5634.6	
609.86	4631.8	
610.05	6137.8	
610.24	6582.2	
610.43	4381.3	
610.62	4137.6	
610.81	7759.1	
611	7462.8	
611.19	4629.8	
611.38	5315.2	
611.57	6796.5	
611.76	8269.7	
611.95	4389.5	
612.14	4288.4	
612.33	6662	
612.52	6118	
612.71	4900.8	
612.9	4143	
613.09	5699.5	
613.28	8229.4	
613.47	4696	
613.66	5694	
613.85	6699.6	
614.04	6231.3	
614.24	4749.2	
614.43	3934.1	
614.62	6825.9	
614.81	6823.1	
615	5454.4	
615.19	5416.9	
615.38	6161.7	
615.57	6473.6	
615.76	5202.5	
615.95	6260.6	
616.14	6956.3	
616.33	6553.5	
616.52	5563.6	
616.71	5907	
616.9	6883.2	
617.09	6785.6	
617.28	4824.3	
617.47	6192.4	
617.66	5946.6	
617.85	5993.7	
618.04	5776.6	
618.22	5173.9	
618.41	6134.3	
618.6	7124.9	
618.79	5089.2	
618.98	4724	
619.17	7462.8	
619.36	5749.3	
619.55	4847.5	
619.74	4960.2	
619.93	6738.5	
620.12	6078.4	
620.31	5459.9	
620.5	5629.2	
620.69	7277.1	
620.88	7631.4	
621.07	6419	
621.26	5394.3	
621.45	6861.4	
621.64	6839.5	
621.83	5429.8	
622.02	4542.4	
622.21	6830	
622.4	6533	
622.59	5955.5	
622.78	5722.7	
622.97	6120.7	
623.16	7285.3	
623.35	5248.3	
623.54	4483.7	
623.72	6391.7	
623.91	6576	
624.1	5623	
624.29	4214.7	
624.48	7658	
624.67	6897.6	
624.86	5465.3	
625.05	4480.3	
625.24	7739.3	
625.43	6032	
625.62	7342.7	
625.81	4622.9	
626	7222.5	
626.19	6310.5	
626.38	5507.7	
626.56	4856.4	
626.75	6200.6	
626.94	6933.1	
627.13	5433.9	
627.32	4158.7	
627.51	6881.9	
627.7	8431.5	
627.89	4325.3	
628.08	5472.9	
628.27	6113.9	
628.46	6272.9	
628.65	4586.8	
628.83	4293.9	
629.02	6872.3	
629.21	6097.5	
629.4	5003.9	
629.59	5288.5	
629.78	6004	
629.97	7073.7	
630.16	5300.8	
630.35	4782	
630.54	7522.9	
630.72	7212.9	
630.91	4752.7	
631.1	5365.7	
631.29	6653.2	
631.48	6873.7	
631.67	5455.8	
631.86	4951.3	
632.05	6242.2	
632.24	6341.9	
632.42	4511	
632.61	5201.8	
632.8	6439.5	
632.99	6044.9	
633.18	5163.6	
633.37	5655.1	
633.56	6701.6	
633.75	6477	
633.93	5190.2	
634.12	4781.3	
634.31	7509.2	
634.5	7074.4	
634.69	4856.4	
634.88	5436.7	
635.07	6401.3	
635.25	7107.1	
635.44	5853.1	
635.63	6058.6	
635.82	6350.8	
636.01	5823.1	
636.2	5867.4	
636.39	5341.8	
636.57	7526.3	
636.76	7242.3	
636.95	4654.4	
637.14	6227.9	
637.33	6795.8	
637.52	7723.6	
637.7	4481	
637.89	5533.6	
638.08	6334.4	
638.27	7914	
638.46	5578.7	
638.65	6133.7	
638.83	7971.4	
639.02	6270.2	
639.21	5535	
639.4	6059.3	
639.59	6773.3	
639.78	6275	
639.96	4842.1	
640.15	4807.3	
640.34	6554.2	
640.53	6789	
640.72	4543.8	
640.91	4870.8	
641.09	6028.5	
641.28	7590.5	
641.47	4872.8	
641.66	5767.8	
641.85	6776.7	
642.03	7029.3	
642.22	5469.4	
642.41	5034.6	
642.6	6282.5	
642.79	5616.9	
642.97	4768.4	
643.16	5608	
643.35	6184.9	
643.54	5929.6	
643.73	4642.1	
643.91	5591	
644.1	5887.2	
644.29	6508.4	
644.48	4866	
644.67	4899.4	
644.85	6100.2	
645.04	6455.2	
645.23	4473.4	
645.42	4765.6	
645.6	5998.5	
645.79	7254.6	
645.98	4858.5	
646.17	3883.6	
646.36	5755.5	
646.54	6565.8	
646.73	5792.3	
646.92	4443.4	
647.11	6064.7	
647.29	7341.3	
647.48	4579.3	
647.67	4442.7	
647.86	7617.1	
648.05	7601.4	
648.23	5033.2	
648.42	6424.5	
648.61	6830	
648.8	6578.8	
648.98	4593.6	
649.17	4919.2	
649.36	6157.6	
649.55	5618.3	
649.73	4592.2	
649.92	5434.6	
650.11	5974.6	
650.3	6368.5	
650.48	4867.3	
650.67	4584	
650.86	6703	
651.05	5526.8	
651.23	4734.9	
651.42	4730.1	
651.61	6044.2	
651.79	6283.9	
651.98	4984.8	
652.17	4580.6	
652.36	6662	
652.54	5655.1	
652.73	4655.7	
652.92	4421.6	
653.11	6720.1	
653.29	6735.1	
653.48	3902.7	
653.67	4964.3	
653.85	6523.5	
654.04	7594.6	
654.23	5242.8	
654.42	4756.7	
654.6	6077.7	
654.79	6772.6	
654.98	4274.1	
655.16	4917.2	
655.35	5713.2	
655.54	5664.7	
655.73	4414.1	
655.91	4351.3	
656.1	6997.2	
656.29	5560.2	
656.47	3872.7	
656.66	5730.9	
656.85	5874.3	
657.03	5872.2	
657.22	4426.3	
657.41	4539	
657.59	6009.4	
657.78	5754.1	
657.97	4100.7	
658.16	4848.2	
658.34	6653.9	
658.53	7008.1	
658.72	5784.8	
658.9	6359.6	
659.09	6068.1	
659.28	6120.7	
659.46	4502.1	
659.65	4465.3	
659.84	5796.4	
660.02	6333.7	
660.21	4376.5	
660.4	4346.5	
660.58	6882.5	
660.77	6185.5	
660.96	4938.3	
661.14	3903.4	
661.33	7426.6	
661.52	7219.1	
661.7	3927.3	
661.89	7916.8	
662.08	5755.5	
662.26	5342.5	
662.45	4254.3	
662.64	4410.6	
662.82	6470.9	
663.01	5687.2	
663.2	4390.2	
663.38	5270.8	
663.57	6417	
663.75	6236.1	
663.94	4776.5	
664.13	6173.3	
664.31	5788.9	
664.5	6498.9	
664.69	5233.2	
664.87	5665.4	
665.06	5532.2	
665.25	6328.2	
665.43	5806.7	
665.62	5945.9	
665.8	6649.1	
665.99	5936.4	
666.18	4702.8	
666.36	4858.5	
666.55	6587.6	
666.74	6526.9	
666.92	4368.3	
667.11	6121.4	
667.29	5988.9	
667.48	6544.6	
667.67	5727.5	
667.85	4812.7	
668.04	6018.3	
668.22	6018.3	
668.41	4792.9	
668.6	5014.8	
668.78	5752.1	
668.97	5969.1	
669.15	5274.9	
669.34	4146.5	
669.53	5780.7	
669.71	6148.7	
669.9	4363.5	
670.08	4997.7	
670.27	5817.6	
670.46	6433.4	
670.64	5271.5	
670.83	5528.8	
671.01	5666.7	
671.2	6393.8	
671.38	4401.1	
671.57	4326.7	
671.76	6977.4	
671.94	7577.5	
672.13	4218.8	
672.31	5483.8	
672.5	6425.8	
672.69	5808	
672.87	4395.6	
673.06	4766.3	
673.24	6321.4	
673.43	5827.8	
673.61	5207.3	
673.8	4720.6	
673.98	6538.5	
674.17	6765.8	
674.36	5345.9	
674.54	5240.1	
674.73	6305	
674.91	6567.2	
675.1	4878.9	
675.28	4571.7	
675.47	6047	
675.65	6581.5	
675.84	4723.3	
676.03	5079	
676.21	5780.7	
676.4	5332.2	
676.58	5580	
676.77	5307.7	
676.95	7342.7	
677.14	5770.5	
677.32	4481.6	
677.51	4203.1	
677.69	6542.6	
677.88	5406	
678.06	4283	
678.25	4420.2	
678.44	6076.3	
678.62	5753.4	
678.81	4082.3	
678.99	5123.3	
679.18	6980.8	
679.36	6429.9	
679.55	4759.5	
679.73	5348.6	
679.92	6400.6	
680.1	5816.9	
680.29	5961	
680.47	4645.5	
680.66	5756.8	
680.84	6717.3	
681.03	3972.4	
681.21	5231.9	
681.4	5860.6	
681.58	5626.5	
681.77	4445.5	
681.95	4333.5	
682.14	6729.6	
682.32	7077.1	
682.51	5384.1	
682.69	4141.7	
682.88	5694.7	
683.06	6483.2	
683.25	5100.1	
683.43	5614.8	
683.62	5993.7	
683.8	6481.8	
683.99	5672.9	
684.17	4954.7	
684.36	7320.8	
684.54	6006.7	
684.73	4059.8	
684.91	4354.7	
685.1	6393.8	
685.28	5842.2	
685.46	5076.9	
685.65	5120.6	
685.83	6749.4	
686.02	6055.8	
686.2	4530.8	
686.39	4678.9	
686.57	5816.2	
686.76	7406.8	
686.94	4460.5	
687.13	4619.5	
687.31	6480.5	
687.5	5973.2	
687.68	4040.6	
687.86	5450.3	
688.05	7846.5	
688.23	5459.2	
688.42	5459.9	
688.6	4499.4	
688.79	5878.4	
688.97	5854.5	
689.16	4943.1	
689.34	3766.9	
689.52	6560.3	
689.71	6861.4	
689.89	5238	
690.08	4483.7	
690.26	6063.4	
690.45	5990.3	
690.63	5474.9	
690.81	4590.2	
691	5795.8	
691.18	5778.7	
691.37	4771.1	
691.55	7238.2	
691.74	5722.7	
691.92	7962.5	
692.1	4869.4	
692.29	4253.6	
692.47	5988.3	
692.66	5241.4	
692.84	4429.1	
693.02	5123.3	
693.21	5335	
693.39	5920	
693.58	5102.2	
693.76	4602.5	
693.94	7133.1	
694.13	6894.8	
694.31	4405.2	
694.5	5495.4	
694.68	5620.3	
694.86	5992.4	
695.05	4790.2	
695.23	4876.2	
695.42	6399.9	
695.6	8875.2	
695.78	5466.7	
695.97	4507.6	
696.15	6372.6	
696.34	5763.7	
696.52	4192.2	
696.7	5141.8	
696.89	6185.5	
697.07	5549.3	
697.25	5019.6	
697.44	6812.2	
697.62	6115.2	
697.81	6530.3	
697.99	4743.1	
698.17	5436	
698.36	5458.5	
698.54	6165.8	
698.72	5036	
698.91	4078.9	
699.09	5768.4	
699.28	5667.4	
699.46	4707.6	
699.64	4635.9	
699.83	5544.5	
700.01	7021.1	
700.19	5495.4	
700.38	3790.8	
700.56	6864.1	
700.74	5695.4	
700.93	4242.7	
701.11	5040.7	
701.29	6290.7	
701.48	7314	
701.66	4423.6	
701.84	4430.4	
702.03	5742.5	
702.21	6468.2	
702.39	3900.7	
702.58	4631.1	
702.76	6132.3	
702.94	6303.6	
703.13	3943.7	
703.31	6457.9	
703.49	5421.7	
703.68	7124.9	
703.86	4175.1	
704.04	5236	
704.23	6020.3	
704.41	6467.5	
704.59	4345.8	
704.78	5774.6	
704.96	7051.2	
705.14	6455.9	
705.33	4046.1	
705.51	5120.6	
705.69	5844.2	
705.87	6708.5	
706.06	5261.9	
706.24	4080.2	
706.42	6133.7	
706.61	6398.5	
706.79	5363.6	
706.97	4074.1	
707.16	5547.3	
707.34	6188.3	
707.52	5312.4	
707.7	4344.4	
707.89	5786.9	
708.07	5430.5	
708.25	5322.7	
708.44	5405.3	
708.62	5663.3	
708.8	6861.4	
708.98	5577.3	
709.17	4412	
709.35	6133.7	
709.53	6141.9	
709.72	4099.4	
709.9	4358.8	
710.08	6317.3	
710.26	6376.7	
710.45	5965.7	
710.63	4529.4	
710.81	6062	
710.99	6094.8	
711.18	5097.4	
711.36	4642.7	
711.54	5904.3	
711.72	6692.8	
711.91	4688.5	
712.09	4098.7	
712.27	6096.1	
712.45	6764.4	
712.64	5169.8	
712.82	3992.2	
713	5608	
713.18	5760.3	
713.37	4195.6	
713.55	5695.4	
713.73	6724.8	
713.91	5268.1	
714.1	4688.5	
714.28	4164.2	
714.46	6507.1	
714.64	5728.2	
714.83	3706.8	
715.01	4698	
715.19	5866.1	
715.37	5404.6	
715.55	4375.8	
715.74	4784.7	
715.92	6952.2	
716.1	4838.7	
716.28	5962.3	
716.47	4918.5	
716.65	5558.9	
716.83	5771.9	
717.01	4754	
717.19	4854.4	
717.38	7976.8	
717.56	5354.1	
717.74	4984.1	
717.92	4063.9	
718.1	6653.2	
718.29	5748.6	
718.47	3581.9	
718.65	4365.6	
718.83	6436.1	
719.01	6239.5	
719.2	3424.9	
719.38	4594.3	
719.56	5939.1	
719.74	7627.3	
719.92	4127.3	
720.11	5290.6	
720.29	6049	
720.47	5059.8	
720.65	3662.5	
720.83	4761.5	
721.02	5515.2	
721.2	5270.8	
721.38	4799.8	
721.56	4016.7	
721.74	4756.7	
721.92	5045.5	
722.11	5408	
722.29	5036	
722.47	6368.5	
722.65	5479.7	
722.83	4025.6	
723.01	5093.3	
723.2	5615.5	
723.38	5973.9	
723.56	3429.7	
723.74	4687.8	
723.92	5059.2	
724.1	6367.1	
724.29	3923.9	
724.47	5271.5	
724.65	5058.5	
724.83	5142.4	
725.01	3866.6	
725.19	4860.5	
725.37	5171.8	
725.56	5236	
725.74	3706.1	
725.92	3973.7	
726.1	4995.7	
726.28	5354.8	
726.46	4574.5	
726.64	4173.1	
726.83	5386.2	
727.01	5748.6	
727.19	3690.4	
727.37	4548.5	
727.55	5456.5	
727.73	6052.4	
727.91	3668.6	
728.09	3487.7	
728.28	6137.8	
728.46	6699.6	
728.64	4738.3	
728.82	4676.2	
729	7268.2	
729.18	6404	
729.36	3743	
729.54	6353.5	
729.72	7494.2	
729.91	5574.6	
730.09	5817.6	
730.27	4485.1	
730.45	5425.1	
730.63	6167.8	
730.81	5132.2	
730.99	4010.6	
731.17	6708.5	
731.35	5150.6	
731.53	4678.9	
731.71	4167.6	
731.9	6432	
732.08	6640.9	
732.26	4511	
732.44	4162.2	
732.62	6661.4	
732.8	6163.7	
732.98	4943.1	
733.16	3906.2	
733.34	6171.9	
733.52	4902.8	
733.7	4573.8	
733.88	4856.4	
734.07	5911.1	
734.25	5693.4	
734.43	3921.9	
734.61	5695.4	
734.79	7240.9	
734.97	5539.8	
735.15	4095.3	
735.33	4503.5	
735.51	5952.8	
735.69	5629.9	
735.87	5679	
736.05	4772.4	
736.23	5762.3	
736.41	5545.9	
736.59	4508.9	
736.77	4658.4	
736.95	6256.5	
737.13	5650.3	
737.32	4148.5	
737.5	4407.9	
737.68	6830	
737.86	5552.7	
738.04	3917.1	
738.22	6067.4	
738.4	5294	
738.58	5640.1	
738.76	4652.3	
738.94	3512.3	
739.12	5528.8	
739.3	5363.6	
739.48	5331.5	
739.66	4978.6	
739.84	5773.2	
740.02	5776.6	
740.2	3629.7	
740.38	4055.7	
740.56	6190.3	
740.74	4997.7	
740.92	4746.5	
741.1	4700.8	
741.28	5609.4	
741.46	5442.8	
741.64	4301.4	
741.82	4896	
742	5603.2	
742.18	5641.5	
742.36	4489.8	
742.54	4038.6	
742.72	6274.3	
742.9	4991.6	
743.08	4933.6	
743.26	3697.3	
743.44	6582.2	
743.62	6358.3	
743.8	5141.8	
743.98	4120.5	
744.16	6092	
744.34	5725.4	
744.52	5040.7	
744.7	4919.9	
744.88	6195.1	
745.06	5648.3	
745.24	5122	
745.42	5320.6	
745.6	6309.8	
745.78	6085.9	
745.96	3846.1	
746.14	4234.5	
746.32	7187.7	
746.5	6396.5	
746.68	4840	
746.86	4282.3	
747.03	6873	
747.21	5082.4	
747.39	4838.7	
747.57	4278.2	
747.75	6017.6	
747.93	6492.1	
748.11	4290.5	
748.29	4171.7	
748.47	7561.8	
748.65	5707.7	
748.83	5109	
749.01	4739	
749.19	6177.4	
749.37	5370.5	
749.55	4650.9	
749.73	4708.3	
749.91	5814.9	
750.09	5558.2	
750.26	4831.2	
750.44	4122.6	
750.62	5946.6	
750.8	5881.1	
750.98	3939.6	
751.16	4326.7	
751.34	5949.3	
751.52	5321.3	
751.7	5225.1	
751.88	3947.1	
752.06	6539.2	
752.24	6229.2	
752.42	3927.3	
752.59	4298	
752.77	5848.3	
752.95	7247.1	
753.13	5111.7	
753.31	4423.6	
753.49	5522.7	
753.67	6023.1	
753.85	4862.6	
754.03	4332.1	
754.21	6381.5	
754.38	6700.3	
754.56	4551.3	
754.74	3564.1	
754.92	5596.4	
755.1	6423.1	
755.28	3730.7	
755.46	3741	
755.64	7270.3	
755.82	7419.1	
755.99	4238.6	
756.17	4273.4	
756.35	4873.5	
756.53	6640.2	
756.71	3170.3	
756.89	4204.5	
757.07	6101.6	
757.25	5152	
757.42	4784.7	
757.6	5724.1	
757.78	6172.6	
757.96	5020.3	
758.14	4313	
758.32	3840.6	
758.5	4552.6	
758.67	5498.8	
758.85	4141.7	
759.03	4291.2	
759.21	5718.6	
759.39	5056.4	
759.57	3721.8	
759.75	4989.5	
759.92	6339.8	
760.1	5489.9	
760.28	5451.7	
760.46	5599.8	
760.64	5346.6	
760.82	4963.6	
760.99	5151.3	
761.17	4199.7	
761.35	6131.6	
761.53	5083.7	
761.71	4397.7	
761.89	5163.6	
762.06	6014.2	
762.24	5470.1	
762.42	4408.6	
762.6	4173.8	
762.78	5519.3	
762.96	6183.5	
763.13	4836.6	
763.31	4429.8	
763.49	6380.8	
763.67	5404.6	
763.85	5392.3	
764.02	6008.1	
764.2	6632.7	
764.38	5757.5	
764.56	4345.1	
764.74	5302.9	
764.91	6731	
765.09	5560.2	
765.27	3976.5	
765.45	3815.4	
765.63	6832.7	
765.8	6653.9	
765.98	3499.3	
766.16	3908.9	
766.34	5088.5	
766.52	4967	
766.69	4943.8	
766.87	3721.2	
767.05	5597.8	
767.23	6333.7	
767.41	4100.7	
767.58	4410.6	
767.76	6221	
767.94	6338.5	
768.12	4216.1	
768.29	5100.1	
768.47	5721.3	
768.65	6481.1	
768.83	3772.4	
769	5135.6	
769.18	5242.1	
769.36	6055.8	
769.54	4840	
769.72	3863.8	
769.89	6292.7	
770.07	6455.2	
770.25	4222.2	
770.43	5631.2	
770.6	7160.4	
770.78	7647.1	
770.96	4511.7	
771.14	5150	
771.31	6192.4	
771.49	5579.3	
771.67	3553.2	
771.85	3890.5	
772.02	4730.8	
772.2	5659.2	
772.38	4591.5	
772.55	4138.9	
772.73	5868.1	
772.91	5621	
773.09	4548.5	
773.26	4650.3	
773.44	5808.7	
773.62	5549.3	
773.8	4042.7	
773.97	3740.3	
774.15	5978	
774.33	5478.3	
774.5	3930.7	
774.68	4306.9	
774.86	6163	
775.04	5552.7	
775.21	3967.6	
775.39	4044.1	
775.57	5831.2	
775.74	6318	
775.92	3888.4	
776.1	3737.5	
776.27	5825.1	
776.45	7218.4	
776.63	4022.9	
776.81	3528	
776.98	5481.7	
777.16	6760.3	
777.34	4247.5	
777.51	4470.7	
777.69	5516.5	
777.87	5236.7	
778.04	4271.4	
778.22	4909	
778.4	5264	
778.57	6003.3	
778.75	3535.5	
778.93	3801	
779.1	5024.4	
779.28	4896.7	
779.46	3499.3	
779.64	4010.6	
779.81	6180.1	
779.99	7211.6	
780.17	4989.5	
780.34	5028.4	
780.52	5552	
780.69	5776	
780.87	4341	
781.05	3934.8	
781.22	5694.7	
781.4	5663.3	
781.58	4085	
781.75	3188	
781.93	5730.9	
782.11	5038	
782.28	5046.9	
782.46	4123.2	
782.64	4867.3	
782.81	5853.8	
782.99	4163.5	
783.17	4128	
783.34	5737	
783.52	4940.4	
783.69	4414.1	
783.87	5332.2	
784.05	5018.2	
784.22	5075.5	
784.4	5358.2	
784.58	4466.6	
784.75	6100.9	
784.93	5073.5	
785.1	4156	
785.28	4825.7	
785.46	5730.9	
785.63	5074.2	
785.81	4063.9	
785.99	3900.7	
786.16	5248.3	
786.34	5612.8	
786.51	3991.5	
786.69	4440	
786.87	4796.3	
787.04	5460.6	
787.22	3499.3	
787.39	4844.1	
787.57	5036	
787.75	6320.7	
787.92	5177.3	
788.1	5066	
788.27	5131.5	
788.45	4897.4	
788.63	4660.5	
788.8	3334.8	
788.98	5648.3	
789.15	4819.6	
789.33	3467.9	
789.5	4194.9	
789.68	6125.5	
789.86	6184.2	
790.03	4456.4	
790.21	4065.9	
790.38	6088.6	
790.56	5236.7	
790.73	3883.6	
790.91	3901.4	
791.09	5096	
791.26	5954.8	
791.44	4150.6	
791.61	3563.5	
791.79	5069.4	
791.96	5256.5	
792.14	3653.6	
792.32	3239.2	
792.49	5068	
792.67	5246.9	
792.84	3699.3	
793.02	3590.1	
793.19	5551.4	
793.37	6404	
793.54	3281.5	
793.72	3624.2	
793.89	6574.7	
794.07	5147.2	
794.25	4357.4	
794.42	3324.5	
794.6	6223.8	
794.77	5935	
794.95	4604.5	
795.12	3988.1	
795.3	5075.5	
795.47	5786.2	
795.65	4362.9	
795.82	4210.6	
796	4881	
796.17	7023.2	
796.35	4088.4	
796.52	4830.5	
796.7	5681.1	
796.87	5853.8	
797.05	5157.5	
797.22	4943.1	
797.4	5781.4	
797.57	6929.6	
797.75	4149.9	
797.92	3968.3	
798.1	6029.9	
798.27	5179.3	
798.45	3376.4	
798.62	3659.7	
798.8	5433.3	
798.97	6032.6	
799.15	4530.1	
799.32	4259.8	
799.5	4660.5	
799.67	5581.4	
799.85	4653.7	
800.02	3303.4	
800.2	5128.8	
800.37	5470.1	
800.55	4828.4	
800.72	3945.1	
800.9	5930.9	
801.07	6390.3	
801.25	5383.4	
801.42	4358.8	
801.6	6037.4	
801.77	5795.1	
801.95	3872	
802.12	3871.3	
802.29	5713.8	
802.47	5688.6	
802.64	4355.3	
802.82	3232.4	
802.99	5094.7	
803.17	6211.5	
803.34	4230.4	
803.52	3823.6	
803.69	6902.3	
803.87	4828.4	
804.04	4275.5	
804.21	4343.1	
804.39	6289.3	
804.56	5328.1	
804.74	3559.4	
804.91	4470.7	
805.09	5221	
805.26	5263.3	
805.44	3622.9	
805.61	3985.3	
805.78	5885.2	
805.96	5927.5	
806.13	4408.6	
806.31	4833.9	
806.48	4611.3	
806.66	5259.2	
806.83	4346.5	
807	4323.3	
807.18	5122	
807.35	5575.3	
807.53	4317.1	
807.7	3345.7	
807.87	6396.5	
808.05	5210	
808.22	4781.3	
808.4	3428.3	
808.57	5218.9	
808.74	4818.2	
808.92	3891.8	
809.09	4924	
809.27	5006.6	
809.44	5765.7	
809.61	3423.5	
809.79	3813.3	
809.96	6391.7	
810.14	5999.9	
810.31	3349.8	
810.48	4098	
810.66	5283.8	
810.83	6039.5	
811.01	3893.9	
811.18	4657.8	
811.35	6019.7	
811.53	4691.2	
811.7	4720.6	
811.87	4468	
812.05	5193	
812.22	5112.4	
812.39	3758.7	
812.57	3709.6	
812.74	5222.3	
812.92	7114	
813.09	4128	
813.26	4569.7	
813.44	6759	
813.61	5128.1	
813.78	3416.7	
813.96	4594.3	
814.13	5179.3	
814.3	4815.5	
814.48	5084.4	
814.65	4095.3	
814.82	6543.9	
815	4960.9	
815.17	4192.9	
815.34	5214.8	
815.52	5068	
815.69	5053.7	
815.87	4268.6	
816.04	3596.9	
816.21	5212.1	
816.38	4550.6	
816.56	4086.4	
816.73	3766.9	
816.9	6693.4	
817.08	6067.4	
817.25	3885.7	
817.42	4848.9	
817.6	4763.6	
817.77	5283.1	
817.94	4387.4	
818.12	3764.8	
818.29	4928.1	
818.46	7873.8	
818.64	3968.3	
818.81	3670	
818.98	4796.3	
819.16	7158.3	
819.33	4578.6	
819.5	4202.4	
819.67	5598.5	
819.85	6272.9	
820.02	4118.5	
820.19	4452.3	
820.37	5394.3	
820.54	4947.9	
820.71	4323.3	
820.88	5389.6	
821.06	5492.7	
821.23	4992.3	
821.4	4407.9	
821.58	4286.4	
821.75	6001.9	
821.92	5389.6	
822.09	3424.2	
822.27	3659	
822.44	5257.8	
822.61	5154.1	
822.79	3431	
822.96	6731	
823.13	5747.3	
823.3	4890.5	
823.48	4031.8	
823.65	3590.8	
823.82	5933.6	
823.99	4775.2	
824.17	5224.4	
824.34	3678.8	
824.51	6956.3	
824.68	5304.2	
824.86	3893.2	
825.03	4328	
825.2	5177.9	
825.37	6423.8	
825.55	3760.8	
825.72	4269.3	
825.89	7109.9	
826.06	6496.8	
826.24	4184.7	
826.41	4182	
826.58	6448.4	
826.75	5599.8	
826.92	3201	
827.1	3582.6	
827.27	8830.2	
827.44	7004.1	
827.61	3939.6	
827.79	4857.8	
827.96	4953.4	
828.13	5355.4	
828.3	4061.1	
828.47	3495.2	
828.65	5427.8	
828.82	5393	
828.99	5414.8	
829.16	4680.3	
829.34	5898.2	
829.51	5592.3	
829.68	4248.2	
829.85	4518.5	
830.02	6197.8	
830.2	5859.9	
830.37	3261	
830.54	5246.2	
830.71	6759	
830.88	5195.7	
831.05	3390.1	
831.23	3859.1	
831.4	6428.6	
831.57	7247.8	
831.74	3988.8	
831.91	3421.5	
832.09	5495.4	
832.26	5893.4	
832.43	4095.3	
832.6	4650.9	
832.77	5497.4	
832.94	6264.1	
833.12	3214.6	
833.29	4052.2	
833.46	5357.5	
833.63	7563.8	
833.8	4491.2	
833.97	4067.3	
834.15	5804.6	
834.32	5612.1	
834.49	4311	
834.66	4361.5	
834.83	6170.5	
835	4900.8	
835.17	3956.7	
835.35	4009.2	
835.52	5753.4	
835.69	5647.6	
835.86	4186.7	
836.03	3465.2	
836.2	5860.6	
836.37	5438.7	
836.55	4103.4	
836.72	3788.7	
836.89	5393.7	
837.06	5851	
837.23	4216.1	
837.4	4609.3	
837.57	6735.1	
837.75	7508.5	
837.92	3748.5	
838.09	3989.4	
838.26	5322.7	
838.43	6156.2	
838.6	4341.7	
838.77	3870	
838.94	7056.6	
839.11	6809.5	
839.29	4121.2	
839.46	3231	
839.63	5799.2	
839.8	5541.8	
839.97	3962.8	
840.14	3983.3	
840.31	5567.7	
840.48	5834.7	
840.65	3282.2	
840.82	3891.8	
841	5843.5	
841.17	5788.9	
841.34	3672	
841.51	3735.5	
841.68	5766.4	
841.85	5490.6	
842.02	3801.7	
842.19	3076	
842.36	5596.4	
842.53	5587.5	
842.7	3661.8	
842.87	4530.8	
843.05	7558.4	
843.22	5517.9	
843.39	3408.5	
843.56	3888.4	
843.73	5263.3	
843.9	5914.5	
844.07	6000.5	
844.24	4960.2	
844.41	8815.8	
844.58	5025	
844.75	3525.9	
844.92	3830.4	
845.09	5874.3	
845.26	5859.2	
845.43	3571	
845.6	3815.4	
845.77	5840.8	
845.94	5578.7	
846.12	4060.4	
846.29	4307.6	
846.46	6107	
846.63	5859.9	
846.8	3587.4	
846.97	4352.6	
847.14	6339.8	
847.31	5756.2	
847.48	4108.2	
847.65	4559.5	
847.82	6208.1	
847.99	6110.5	
848.16	4928.8	
848.33	4575.2	
848.5	5388.9	
848.67	6370.5	
848.84	3584.6	
849.01	3779.2	
849.18	5227.8	
849.35	4884.4	
849.52	4644.1	
849.69	3591.5	
849.86	6020.3	
850.03	6300.2	
850.2	3685.7	
850.37	4508.9	
850.54	6231.3	
850.71	5508.4	
850.88	4410.6	
851.05	3567.6	
851.22	5737	
851.39	6412.9	
851.56	3419.4	
851.73	4171	
851.9	5113.8	
852.07	6154.8	
852.24	4036.5	
852.41	3597.6	
852.58	5690.6	
852.75	5193.6	
852.92	4104.1	
853.09	3519.8	
853.26	5377.3	
853.43	6336.4	
853.6	3652.9	
853.77	3062.4	
853.94	6434.7	
854.11	5794.4	
854.28	5464.7	
854.44	3964.2	
854.61	6911.9	
854.78	5919.3	
854.95	3584.6	
855.12	4549.9	
855.29	4674.8	
855.46	6539.2	
855.63	3620.8	
855.8	5080.3	
855.97	5410.1	
856.14	6262	
856.31	5165.7	
856.48	3923.2	
856.65	5410.1	
856.82	5066.7	
856.99	3502	
857.16	3927.3	
857.33	7215.7	
857.49	5476.3	
857.66	3927.3	
857.83	4258.4	
858	5388.9	
858.17	5595.1	
858.34	3445.4	
858.51	3622.9	
858.68	6554.9	
858.85	6653.9	
859.02	4208.6	
859.19	4533.5	
859.36	5032.5	
859.52	5171.8	
859.69	3679.5	
859.86	4306.9	
860.03	5162.2	
860.2	6503.7	
860.37	3233.1	
860.54	3670.6	
860.71	6118	
860.88	6546	
861.05	4126.7	
861.21	4627.7	
861.38	6559.6	
861.55	4966.3	
861.72	3341.6	
861.89	4056.3	
862.06	6173.9	
862.23	6741.2	
862.4	3512.9	
862.56	3780.6	
862.73	5969.1	
862.9	5642.8	
863.07	4309.6	
863.24	3216.7	
863.41	4996.4	
863.58	5108.3	
863.75	3745.1	
863.91	4186	
864.08	6507.1	
864.25	6049	
864.42	4584	
864.59	5158.2	
864.76	6920.1	
864.93	5119.9	
865.09	3548.4	
865.26	3896.6	
865.43	6378.1	
865.6	6832.7	
865.77	3167.5	
865.94	3620.1	
866.1	6490	
866.27	6169.2	
866.44	5558.9	
866.61	3418.1	
866.78	5523.4	
866.95	5973.9	
867.11	3495.9	
867.28	3192.8	
867.45	6176	
867.62	5149.3	
867.79	4265.2	
867.96	3569.6	
868.12	5180.7	
868.29	6140.5	
868.46	3631	
868.63	4851	
868.8	6318	
868.97	6053.8	
869.13	3784	
869.3	3781.9	
869.47	5980.1	
869.64	6216.3	
869.81	3673.4	
869.97	3663.8	
870.14	5813.5	
870.31	6627.2	
870.48	3552.5	
870.65	4618.9	
870.81	5439.4	
870.98	5362.9	
871.15	4154	
871.32	3790.8	
871.48	5990.3	
871.65	6592.4	
871.82	3589.4	
871.99	3993.5	
872.16	7154.2	
872.32	6420.4	
872.49	3618.1	
872.66	3701.4	
872.83	6058.6	
872.99	5399.1	
873.16	4216.8	
873.33	3592.8	
873.5	5662	
873.67	5735	
873.83	3789.4	
874	4881.7	
874.17	5820.3	
874.34	7060.7	
874.5	4754	
874.67	4559.5	
874.84	6576.7	
875.01	5109.7	
875.17	5205.3	
875.34	3573	
875.51	5751.4	
875.68	6979.5	
875.84	4360.8	
876.01	5429.2	
876.18	6008.1	
876.34	5969.8	
876.51	3752.6	
876.68	3566.9	
876.85	5453.1	
877.01	6350.1	
877.18	5240.8	
877.35	3607.8	
877.52	5606	
877.68	5014.1	
877.85	3532.1	
878.02	3554.6	
878.18	5580.7	
878.35	5248.3	
878.52	2852.8	
878.69	4063.9	
878.85	6054.5	
879.02	6047	
879.19	5240.1	
879.35	4012.7	
879.52	6032	
879.69	6280.4	
879.86	3101.3	
880.02	4089.8	
880.19	5596.4	
880.36	6884.6	
880.52	4248.9	
880.69	4315.1	
880.86	6111.1	
881.02	6287.9	
881.19	4000.4	
881.36	3917.1	
881.52	6062.7	
881.69	5307	
881.86	3944.4	
882.02	3893.2	
882.19	6316.6	
882.36	7563.8	
882.52	3733.4	
882.69	5184.1	
882.86	5786.2	
883.02	5698.8	
883.19	4502.1	
883.36	4186.7	
883.52	6188.3	
883.69	7056.6	
883.86	3710.9	
884.02	3268.6	
884.19	6066.8	
884.36	5601.9	
884.52	4106.9	
884.69	3820.8	
884.86	5334.3	
885.02	6741.2	
885.19	4120.5	
885.36	4270.7	
885.52	5631.9	
885.69	5843.5	
885.86	5325.4	
886.02	4654.4	
886.19	6107.7	
886.35	5383.4	
886.52	4001.7	
886.69	5188.2	
886.85	5205.3	
887.02	6602.7	
887.19	6602.7	
887.35	6602.7	
887.52	6602.7	
887.68	6602.7	
887.85	6602.7	
888.02	6602.7	
888.18	6602.7	
888.35	6602.7	
888.51	6602.7	
888.68	6602.7	
888.85	6602.7	
889.01	6602.7	
889.18	6602.7	
889.35	6602.7	
889.51	6602.7	
889.68	6602.7	
889.84	6602.7	
890.01	6602.7	
890.17	6602.7	
890.34	6602.7	
890.51	6602.7	
890.67	6602.7	
890.84	6602.7	
891	6602.7	
891.17	6602.7	
891.34	6602.7	
891.5	6602.7	
891.67	6602.7	
891.83	6602.7	
892	6602.7	
892.16	6602.7	
892.33	6602.7	
892.5	6602.7	
892.66	6602.7	
892.83	6602.7	
892.99	6602.7	
893.16	6602.7	
893.32	6602.7	
893.49	6602.7	
893.65	6602.7	
893.82	6602.7	
893.99	6602.7	
894.15	6602.7	
894.32	6602.7	
894.48	6602.7	
894.65	6602.7	
894.81	6602.7	
894.98	6602.7	
895.14	6602.7	
895.31	6602.7	
895.47	6602.7	
895.64	6602.7	
895.81	6602.7	
895.97	6602.7	
896.14	6602.7	
896.3	6602.7	
896.47	6602.7	
896.63	6602.7	
896.8	6602.7	
896.96	6602.7	
897.13	6602.7	
897.29	6602.7	
897.46	6602.7	
897.62	6602.7	
897.79	6602.7	
897.95	6602.7	
898.12	6602.7	
898.28	6602.7	
898.45	6602.7	
898.61	6602.7	
898.78	6602.7	
898.94	6602.7	
899.11	6602.7	
899.27	6602.7	
899.44	6602.7	
899.6	6602.7	
899.77	6602.7	
899.93	6602.7	
900.1	6602.7	
900.26	6602.7	
900.43	6602.7	
900.59	6602.7	
900.76	6602.7	
900.92	6602.7	
901.09	6602.7	
901.25	6602.7	
901.42	6602.7	
901.58	6602.7	
901.75	6602.7	
901.91	6602.7	
902.07	6602.7	
902.24	6602.7	
902.4	6602.7	
902.57	6602.7	
902.73	6602.7	
902.9	6602.7	
903.06	6602.7	
903.23	6602.7	
903.39	6602.7	
903.56	6602.7	
903.72	6602.7	
903.88	6602.7	
904.05	6602.7	
904.21	6602.7	
904.38	6602.7	
904.54	6602.7	
904.71	6602.7	
904.87	6602.7	
905.03	6602.7	
905.2	6602.7	
905.36	6602.7	
905.53	6602.7	
905.69	6602.7	
905.86	6602.7	
906.02	6602.7	
906.18	6602.7	
906.35	6602.7	
906.51	6602.7	
906.68	6602.7	
906.84	6602.7	
907.01	6602.7	
907.17	6602.7	
907.33	6602.7	
907.5	6602.7	
907.66	6602.7	
907.83	6602.7	
907.99	6602.7	
908.15	6602.7	
908.32	6602.7	
908.48	6602.7	
908.65	6602.7	
908.81	6602.7	
908.97	6602.7	
909.14	6602.7	
909.3	6602.7	
909.47	6602.7	
909.63	6602.7	
909.79	6602.7	
909.96	6602.7	
910.12	6602.7	
910.28	6602.7	
910.45	6602.7	
910.61	6602.7	
910.78	6602.7	
910.94	6602.7	
911.1	6602.7	
911.27	6602.7	
911.43	6602.7	
911.59	6602.7	
911.76	6602.7	
911.92	6602.7	
912.08	6602.7	
912.25	6602.7	
912.41	6602.7	
912.57	6602.7	
912.74	6602.7	
912.9	6602.7	
913.07	6602.7	
913.23	6602.7	
913.39	6602.7	
913.56	6602.7	
913.72	6602.7	
913.88	6602.7	
914.05	6602.7	
914.21	6602.7	
914.37	6602.7	
914.54	6602.7	
914.7	6602.7	
914.86	6602.7	
915.03	6602.7	
915.19	6602.7	
