Wavelength	Intensities	
nm	a.u.	
179.22	1927.3	
179.44	1923.4	
179.65	1931.2	
179.86	1915.5	
180.08	1918.9	
180.29	4977.2	
180.51	3521.1	
180.72	5659.2	
180.94	6661.4	
181.15	3247.4	
181.37	3160	
181.58	5517.9	
181.79	5824.4	
182.01	3379.8	
182.22	3659	
182.44	5833.3	
182.65	4878.9	
182.87	4563.6	
183.08	4044.1	
183.29	6036.7	
183.51	5032.5	
183.72	3639.9	
183.94	5354.1	
184.15	5367.7	
184.37	5445.5	
184.58	3264.5	
184.79	4422.9	
185.01	5061.2	
185.22	5787.6	
185.44	4737.6	
185.65	3976.5	
185.86	5328.8	
186.08	4947.2	
186.29	3153.2	
186.51	3366.2	
186.72	5084.4	
186.94	5944.6	
187.15	3921.9	
187.36	4080.2	
187.58	7779.6	
187.79	5543.2	
188.01	4248.9	
188.22	6657.9	
188.43	6651.8	
188.65	5707	
188.86	3376.4	
189.08	4092.5	
189.29	5236	
189.5	5273.5	
189.72	3713.6	
189.93	3781.2	
190.15	5937.7	
190.36	7193.8	
190.57	4136.9	
190.79	3989.4	
191	6102.3	
191.22	6023.1	
191.43	4094.6	
191.64	3376.4	
191.86	6323.4	
192.07	5955.5	
192.29	3564.8	
192.5	3745.7	
192.71	6055.2	
192.93	5162.9	
193.14	3624.9	
193.35	3820.8	
193.57	5212.1	
193.78	5989.6	
194	3013.9	
194.21	3657.7	
194.42	4936.3	
194.64	5384.1	
194.85	4095.3	
195.07	4770.4	
195.28	5466.7	
195.49	4696.7	
195.71	5026.4	
195.92	3485.6	
196.13	5616.9	
196.35	5752.1	
196.56	5357.5	
196.78	4078.2	
196.99	7131.7	
197.2	6653.2	
197.42	4695.3	
197.63	4097.3	
197.84	4841.4	
198.06	5603.9	
198.27	3807.2	
198.48	5071.5	
198.7	5230.5	
198.91	5358.9	
199.13	4071.4	
199.34	4116.4	
199.55	5871.5	
199.77	4728.8	
199.98	3642	
200.19	4189.5	
200.41	5254.4	
200.62	4995.7	
200.83	4246.8	
201.05	4579.9	
201.26	5326.8	
201.47	5101.5	
201.69	3598.3	
201.9	3460.4	
202.11	5406.6	
202.33	6452.5	
202.54	3857.7	
202.76	4349.9	
202.97	5542.5	
203.18	5533.6	
203.4	4281.6	
203.61	4212	
203.82	5426.4	
204.04	5101.5	
204.25	4156.7	
204.46	4034.5	
204.68	5453.7	
204.89	5709.1	
205.1	4005.1	
205.32	3436.5	
205.53	5857.9	
205.74	6023.1	
205.96	2879.4	
206.17	4218.8	
206.38	5772.5	
206.6	5996.5	
206.81	4741	
207.02	3800.3	
207.24	5684.5	
207.45	6158.9	
207.66	3926.6	
207.88	3336.8	
208.09	5611.4	
208.3	5478.3	
208.52	3575.8	
208.73	3854.3	
208.94	5453.1	
209.15	6168.5	
209.37	3916.4	
209.58	4076.1	
209.79	5967.8	
210.01	5251	
210.22	3119.1	
210.43	3229	
210.65	5375.9	
210.86	5865.4	
211.07	3879.5	
211.29	3605.1	
211.5	5760.9	
211.71	5377.3	
211.93	3537.5	
212.14	3581.9	
212.35	5385.5	
212.56	5609.4	
212.78	4143	
212.99	3334.8	
213.2	6455.9	
213.42	5229.1	
213.63	3676.8	
213.84	3973.7	
214.06	4822.3	
214.27	4933.6	
214.48	3859.1	
214.69	4199	
214.91	6160.3	
215.12	6206	
215.33	4177.9	
215.55	4566.3	
215.76	6697.5	
215.97	5780.7	
216.18	4010.6	
216.4	3919.1	
216.61	5098.8	
216.82	6006	
217.04	3574.4	
217.25	3745.7	
217.46	6073.6	
217.67	5807.4	
217.89	3205.1	
218.1	3318.4	
218.31	5508.4	
218.53	5655.1	
218.74	3788.1	
218.95	3650.8	
219.16	5372.5	
219.38	6373.3	
219.59	3654.3	
219.8	4384.7	
220.01	7056.6	
220.23	5451.7	
220.44	4718.5	
220.65	3625.6	
220.87	5508.4	
221.08	6100.9	
221.29	3371.6	
221.5	4429.8	
221.72	7447.1	
221.93	5165	
222.14	4144.4	
222.35	4817.5	
222.57	5538.4	
222.78	5765	
222.99	3860.4	
223.2	4267.3	
223.42	5780.1	
223.63	5863.3	
223.84	2988	
224.05	2964.8	
224.27	6993.8	
224.48	6380.1	
224.69	4887.1	
224.9	4136.2	
225.12	5630.5	
225.33	5414.8	
225.54	3252.2	
225.75	3645.4	
225.97	4971.8	
226.18	5312.4	
226.39	3938.2	
226.6	3659.7	
226.82	5197.7	
227.03	5052.3	
227.24	4114.4	
227.45	3403.7	
227.67	5809.4	
227.88	6389	
228.09	4582	
228.3	4575.8	
228.52	5865.4	
228.73	5429.8	
228.94	3816	
229.15	3368.2	
229.36	5300.8	
229.58	5233.2	
229.79	3851.5	
230	4472.8	
230.21	6536.4	
230.43	5565.7	
230.64	4018.8	
230.85	4242	
231.06	5841.5	
231.28	5905	
231.49	3420.8	
231.7	3999.7	
231.91	5826.5	
232.12	5471.5	
232.34	3426.3	
232.55	3950.5	
232.76	6062.7	
232.97	5615.5	
233.18	3596.9	
233.4	4096.6	
233.61	5698.1	
233.82	5146.5	
234.03	3769.6	
234.25	3708.9	
234.46	7560.4	
234.67	5463.3	
234.88	4218.1	
235.09	3649.5	
235.31	5759.6	
235.52	5310.4	
235.73	4064.5	
235.94	3413.3	
236.15	5128.1	
236.37	6612.2	
236.58	3560.1	
236.79	3934.8	
237	5756.8	
237.21	4961.5	
237.43	4184.7	
237.64	3313.6	
237.85	10040	
238.06	4981.3	
238.27	4260.5	
238.48	3415.3	
238.7	5794.4	
238.91	5259.2	
239.12	3936.2	
239.33	3893.9	
239.54	5019.6	
239.76	5344.5	
239.97	3867.2	
240.18	3901.4	
240.39	6856.6	
240.6	5655.1	
240.82	4026.3	
241.03	3315	
241.24	5482.4	
241.45	6357.6	
241.66	3592.1	
241.87	4226.3	
242.09	6167.8	
242.3	6516.6	
242.51	4262.5	
242.72	3955.3	
242.93	5913.2	
243.14	5417.6	
243.36	4537.6	
243.57	4930.8	
243.78	6344.6	
243.99	5818.3	
244.2	3930.1	
244.41	3525.2	
244.63	5033.2	
244.84	5773.2	
245.05	4190.8	
245.26	3976.5	
245.47	5788.9	
245.68	6036.7	
245.9	5262.6	
246.11	4153.3	
246.32	5322	
246.53	5672.2	
246.74	6432	
246.95	3302.7	
247.16	4915.8	
247.38	5410.1	
247.59	3224.9	
247.8	3912.3	
248.01	5113.8	
248.22	5375.2	
248.43	3605.8	
248.64	3829	
248.86	4829.8	
249.07	5208	
249.28	3459	
249.49	4033.8	
249.7	5997.1	
249.91	6176	
250.12	3299.3	
250.34	3340.2	
250.55	5500.8	
250.76	5432.6	
250.97	4042.7	
251.18	4127.3	
251.39	6177.4	
251.6	5613.5	
251.81	4163.5	
252.03	4139.6	
252.24	5152	
252.45	6006	
252.66	3374.4	
252.87	4333.5	
253.08	5451.7	
253.29	7154.2	
253.5	3422.8	
253.72	4760.2	
253.93	5243.5	
254.14	6538.5	
254.35	3710.9	
254.56	3859.7	
254.77	5635.3	
254.98	5047.6	
255.19	3653.6	
255.41	4734.2	
255.62	5502.9	
255.83	6107.7	
256.04	4210.6	
256.25	4141.7	
256.46	6468.9	
256.67	5111.7	
256.88	4060.4	
257.09	4555.4	
257.31	5117.9	
257.52	5108.3	
257.73	5091.9	
257.94	3723.2	
258.15	5300.8	
258.36	5513.8	
258.57	4609.3	
258.78	2995.5	
258.99	5906.3	
259.2	5273.5	
259.41	3747.1	
259.63	3855.6	
259.84	6336.4	
260.05	6755.6	
260.26	4987.5	
260.47	3627.6	
260.68	6062.7	
260.89	5337.7	
261.1	4478.2	
261.31	3519.8	
261.52	5970.5	
261.73	6382.8	
261.95	4874.8	
262.16	4203.8	
262.37	6150.7	
262.58	6229.9	
262.79	4823	
263	3886.4	
263.21	5480.4	
263.42	4945.8	
263.63	3817.4	
263.84	3790.1	
264.05	5990.3	
264.26	6463.4	
264.47	4668	
264.69	4199	
264.9	6213.5	
265.11	5672.2	
265.32	3623.5	
265.53	3720.5	
265.74	5609.4	
265.95	4861.2	
266.16	3993.5	
266.37	4409.3	
266.58	5581.4	
266.79	5255.8	
267	3684.3	
267.21	3457	
267.42	5051	
267.63	5481	
267.84	3923.2	
268.06	3336.1	
268.27	5868.1	
268.48	6154.8	
268.69	3836.5	
268.9	4516.5	
269.11	6191	
269.32	4895.3	
269.53	3908.2	
269.74	3668.6	
269.95	5799.2	
270.16	4792.2	
270.37	3949.2	
270.58	4591.5	
270.79	5278.3	
271	5984.2	
271.21	4185.4	
271.42	3947.8	
271.63	5575.9	
271.84	5099.4	
272.05	3142.9	
272.26	3540.9	
272.47	5431.2	
272.68	5673.6	
272.89	3807.9	
273.11	4345.1	
273.32	5242.1	
273.53	6468.9	
273.74	4235.2	
273.95	4147.1	
274.16	6092	
274.37	5461.9	
274.58	4356.7	
274.79	3403.7	
275	5609.4	
275.21	6158.2	
275.42	5153.4	
275.63	4443.4	
275.84	5670.1	
276.05	7223.2	
276.26	4099.4	
276.47	3844	
276.68	5290.6	
276.89	6522.8	
277.1	4390.8	
277.31	3426.9	
277.52	5692	
277.73	5900.2	
277.94	3456.3	
278.15	3820.1	
278.36	5685.8	
278.57	5102.2	
278.78	3800.3	
278.99	4328.7	
279.2	5084.4	
279.41	5078.3	
279.62	4972.5	
279.83	3452.9	
280.04	6675	
280.25	4997	
280.46	4968.4	
280.67	3917.1	
280.88	5094	
281.09	6146	
281.3	4111	
281.51	5229.1	
281.72	6024.4	
281.93	5961	
282.14	3653.6	
282.35	3971.7	
282.56	5950.7	
282.77	6022.4	
282.98	3857	
283.19	4665.3	
283.4	7293.5	
283.61	5411.4	
283.82	3457.7	
284.03	4891.2	
284.24	5544.5	
284.45	6136.4	
284.66	4835.3	
284.87	4685.1	
285.08	6077.7	
285.29	6203.3	
285.5	3325.2	
285.71	3859.7	
285.92	6054.5	
286.12	6812.9	
286.33	4777.2	
286.54	3807.2	
286.75	5905.7	
286.96	5399.8	
287.17	3463.1	
287.38	4846.2	
287.59	5044.8	
287.8	5032.5	
288.01	3863.2	
288.22	4463.2	
288.43	5946.6	
288.64	4998.4	
288.85	4589.5	
289.06	4416.1	
289.27	5924.1	
289.48	6423.8	
289.69	4881.7	
289.9	4475.5	
290.11	6090	
290.32	5214.1	
290.53	4665.3	
290.74	4302.8	
290.94	5899.5	
291.15	5964.4	
291.36	3736.9	
291.57	4392.9	
291.78	5177.9	
291.99	4883	
292.2	3529.3	
292.41	4236.6	
292.62	6006.7	
292.83	5791	
293.04	5332.2	
293.25	3602.4	
293.46	5255.8	
293.67	6038.8	
293.88	3720.5	
294.09	3547.1	
294.29	5012.1	
294.5	5576.6	
294.71	3940.3	
294.92	3779.9	
295.13	5235.3	
295.34	6543.9	
295.55	3337.5	
295.76	3437.2	
295.97	5892	
296.18	6655.9	
296.39	3470.6	
296.6	3738.2	
296.81	5599.8	
297.01	5954.1	
297.22	3833.1	
297.43	3620.8	
297.64	5049.6	
297.85	5117.9	
298.06	3065.8	
298.27	3301.3	
298.48	5476.3	
298.69	5158.2	
298.9	4003.8	
299.11	3613.3	
299.31	4962.2	
299.52	4984.1	
299.73	4305.5	
299.94	4154	
300.15	5456.5	
300.36	5112.4	
300.57	4207.9	
300.78	4152.6	
300.99	5309	
301.2	5621.7	
301.4	3665.9	
301.61	4003.1	
301.82	5790.3	
302.03	5935.7	
302.24	4524.6	
302.45	3497.9	
302.66	5827.2	
302.87	6233.3	
303.08	3693.9	
303.29	5066	
303.49	5213.4	
303.7	5470.1	
303.91	3275.4	
304.12	4831.2	
304.33	4954	
304.54	5604.6	
304.75	3721.2	
304.96	3501.3	
305.16	5795.8	
305.37	6548	
305.58	3197.6	
305.79	3386	
306	5746.6	
306.21	4866	
306.42	3674.7	
306.63	5658.5	
306.83	5354.8	
307.04	6081.1	
307.25	4094.6	
307.46	4066.6	
307.67	4678.9	
307.88	6004.6	
308.09	3611.3	
308.29	3825.6	
308.5	5516.5	
308.71	6105.7	
308.92	3917.8	
309.13	3558	
309.34	5390.9	
309.55	5372.5	
309.75	4523.3	
309.96	4214	
310.17	5910.4	
310.38	5182.7	
310.59	4414.7	
310.8	3536.2	
311.01	5242.1	
311.21	5302.2	
311.42	3519.8	
311.63	3586.7	
311.84	5242.8	
312.05	5591	
312.26	4126.7	
312.46	4540.3	
312.67	5250.3	
312.88	4991.6	
313.09	3501.3	
313.3	3523.2	
313.51	6256.5	
313.71	6675	
313.92	3576.4	
314.13	3754.6	
314.34	5602.6	
314.55	5341.1	
314.76	4630.5	
314.96	4011.3	
315.17	5520.6	
315.38	5854.5	
315.59	3550.5	
315.8	3394.2	
316.01	6425.2	
316.21	6426.5	
316.42	3493.2	
316.63	3898	
316.84	5318.6	
317.05	6228.6	
317.26	4214.7	
317.46	3790.1	
317.67	5412.1	
317.88	5856.5	
318.09	4560.1	
318.3	3334.8	
318.5	5160.2	
318.71	5790.3	
318.92	5825.8	
319.13	4179.2	
319.34	5980.1	
319.54	6116.6	
319.75	3304.7	
319.96	3201	
320.17	5816.2	
320.38	6087.9	
320.58	3189.4	
320.79	3867.2	
321	6048.3	
321.21	6219	
321.42	3940.3	
321.62	3214.6	
321.83	5089.9	
322.04	5484.5	
322.25	3794.2	
322.46	3587.4	
322.66	5545.2	
322.87	5748.6	
323.08	4406.5	
323.29	3498.6	
323.5	6567.2	
323.7	4973.2	
323.91	4879.6	
324.12	4394.3	
324.33	5494	
324.53	5783.5	
324.74	4239.3	
324.95	4443.4	
325.16	4800.4	
325.37	5307	
325.57	3573.7	
325.78	3642	
325.99	5474.9	
326.2	4987.5	
326.4	5207.3	
326.61	3280.8	
326.82	5457.2	
327.03	5593	
327.24	5122.7	
327.44	4885.8	
327.65	5680.4	
327.86	4619.5	
328.07	4187.4	
328.27	3398.3	
328.48	6213.5	
328.69	5057.8	
328.9	5241.4	
329.1	3919.8	
329.31	5347.9	
329.52	6333.7	
329.73	3579.2	
329.93	4009.9	
330.14	5485.1	
330.35	5759.6	
330.56	5918.6	
330.76	4434.5	
330.97	5284.4	
331.18	5702.9	
331.39	3972.4	
331.59	3207.1	
331.8	6020.3	
332.01	6260.6	
332.22	3696.6	
332.42	4224.3	
332.63	5585.5	
332.84	5188.2	
333.05	3994.2	
333.25	3660.4	
333.46	5228.5	
333.67	5491.3	
333.88	3730.7	
334.08	4164.2	
334.29	7333.1	
334.5	6195.1	
334.7	3471.3	
334.91	5083.1	
335.12	4977.2	
335.33	5938.4	
335.53	3978.5	
335.74	5906.3	
335.95	5302.2	
336.16	5085.8	
336.36	3977.2	
336.57	4543.8	
336.78	5001.1	
336.98	6122.7	
337.19	4864.6	
337.4	3893.9	
337.61	6649.1	
337.81	4978.6	
338.02	3618.1	
338.23	4734.9	
338.43	6248.4	
338.64	5173.2	
338.85	3554.6	
339.05	4676.2	
339.26	6307.1	
339.47	4959.5	
339.68	3612.6	
339.88	5309	
340.09	5762.3	
340.3	5985.5	
340.5	4189.5	
340.71	3149.8	
340.92	4902.8	
341.13	6192.4	
341.33	3493.2	
341.54	4198.3	
341.75	5773.2	
341.95	5385.5	
342.16	4039.3	
342.37	4351.9	
342.57	5074.2	
342.78	5399.8	
342.99	4501.4	
343.19	3239.2	
343.4	5876.3	
343.61	5731.6	
343.81	3833.1	
344.02	3491.8	
344.23	5908.4	
344.43	6270.2	
344.64	4379.9	
344.85	4299.4	
345.06	5694	
345.26	6064	
345.47	4106.9	
345.68	4904.9	
345.88	4794.3	
346.09	5931.6	
346.3	4205.8	
346.5	3210.5	
346.71	5477.6	
346.92	5176.6	
347.12	3265.8	
347.33	4198.3	
347.54	6067.4	
347.74	6405.4	
347.95	4149.9	
348.16	2996.9	
348.36	5313.8	
348.57	4967	
348.78	4060.4	
348.98	4461.2	
349.19	5402.5	
349.39	4945.8	
349.6	3300	
349.81	3639.2	
350.01	5666	
350.22	5167.7	
350.43	3960.8	
350.63	4814.8	
350.84	5509	
351.05	5225.1	
351.25	3647.4	
351.46	3256.3	
351.67	6066.8	
351.87	5160.2	
352.08	3846.1	
352.29	4402.5	
352.49	5969.8	
352.7	5667.4	
352.9	3511.6	
353.11	4384	
353.32	6621.8	
353.52	5324	
353.73	3482.2	
353.94	4471.4	
354.14	5744.6	
354.35	5590.3	
354.55	3561.4	
354.76	3956	
354.97	5674.9	
355.17	5522	
355.38	3333.4	
355.59	4773.8	
355.79	5160.2	
356	5611.4	
356.2	4016.1	
356.41	3380.5	
356.62	4828.4	
356.82	5414.8	
357.03	4235.9	
357.24	3839.3	
357.44	5179.3	
357.65	5282.4	
357.85	5030.5	
358.06	4001.7	
358.27	4885.8	
358.47	5139	
358.68	3287	
358.88	4208.6	
359.09	5712.5	
359.3	6135.7	
359.5	4954	
359.71	4352.6	
359.91	6597.2	
360.12	5935	
360.33	4168.3	
360.53	4743.1	
360.74	5152	
360.94	5182	
361.15	4392.9	
361.36	3651.5	
361.56	6040.8	
361.77	5371.8	
361.97	4913.8	
362.18	3895.9	
362.38	5956.9	
362.59	5020.9	
362.8	3508.2	
363	3380.5	
363.21	4784.1	
363.41	5494.7	
363.62	4099.4	
363.83	5162.9	
364.03	5542.5	
364.24	6621.8	
364.44	5216.2	
364.65	5248.9	
364.85	5311.1	
365.06	5214.8	
365.27	3691.1	
365.47	3745.1	
365.68	6340.5	
365.88	5314.5	
366.09	4106.2	
366.29	3779.9	
366.5	5592.3	
366.71	6046.3	
366.91	5141.8	
367.12	4280.9	
367.32	6620.4	
367.53	5948.7	
367.73	4265.9	
367.94	5250.3	
368.14	5806.7	
368.35	6749.4	
368.56	4227.7	
368.76	3565.5	
368.97	5851	
369.17	7654.6	
369.38	3703.4	
369.58	3968.3	
369.79	4955.4	
369.99	6277	
370.2	5050.3	
370.4	4111.6	
370.61	5606	
370.82	6817	
371.02	3957.4	
371.23	3272.7	
371.43	4840.7	
371.64	6182.8	
371.84	3985.3	
372.05	5254.4	
372.25	7580.2	
372.46	5880.4	
372.66	3975.8	
372.87	3965.6	
373.07	5934.3	
373.28	7589.8	
373.48	5068	
373.69	4749.2	
373.9	5413.5	
374.1	5513.1	
374.31	4952.7	
374.51	4487.1	
374.72	6314.6	
374.92	5068.7	
375.13	5118.6	
375.33	4388.1	
375.54	5847	
375.74	5231.9	
375.95	4390.2	
376.15	5659.9	
376.36	5848.3	
376.56	5642.2	
376.77	4388.8	
376.97	4836.6	
377.18	6863.4	
377.38	5922	
377.59	5175.2	
377.79	3824.9	
378	5714.5	
378.2	6144.6	
378.41	3934.1	
378.61	3891.1	
378.82	6221	
379.02	5292.6	
379.23	4106.2	
379.43	5296	
379.64	6260	
379.84	5898.8	
380.05	3998.3	
380.25	3936.2	
380.46	6061.3	
380.66	5525.4	
380.87	5270.8	
381.07	5719.3	
381.28	6629.3	
381.48	5954.8	
381.69	3999	
381.89	4018.8	
382.1	4959.5	
382.3	6177.4	
382.51	5134.3	
382.71	6008.7	
382.91	6006	
383.12	6556.9	
383.32	4364.2	
383.53	4563.6	
383.73	5809.4	
383.94	5621	
384.14	4483	
384.35	3577.1	
384.55	5607.3	
384.76	6015.6	
384.96	4371	
385.17	4629.1	
385.37	5963.7	
385.58	5266	
385.78	4750.6	
385.98	3511.6	
386.19	5412.8	
386.39	5872.2	
386.6	4100.7	
386.8	4382.7	
387.01	5976.7	
387.21	5987.6	
387.42	4786.8	
387.62	5438	
387.83	5279	
388.03	5963	
388.23	4369	
388.44	5234.6	
388.64	5062.6	
388.85	5074.9	
389.05	4793.6	
389.26	5438.7	
389.46	6709.8	
389.67	6402	
389.87	4747.9	
390.07	4792.2	
390.28	5660.6	
390.48	5227.8	
390.69	3945.8	
390.89	4283.7	
391.1	5360.9	
391.3	6305.7	
391.5	5490.6	
391.71	6094.1	
391.91	6043.6	
392.12	7128.3	
392.32	5532.9	
392.53	4718.5	
392.73	5426.4	
392.93	5604.6	
393.14	4438.6	
393.34	5246.9	
393.55	6223.1	
393.75	5677.7	
393.95	4459.1	
394.16	4425.7	
394.36	5375.9	
394.57	6055.2	
394.77	3933.5	
394.98	4390.2	
395.18	5345.9	
395.38	5467.4	
395.59	5259.9	
395.79	4123.2	
396	5504.9	
396.2	5971.2	
396.4	5002.5	
396.61	4909	
396.81	6229.9	
397.02	5446.2	
397.22	5236.7	
397.42	5263.3	
397.63	6196.5	
397.83	5324	
398.04	4070	
398.24	4617.5	
398.44	5970.5	
398.65	4979.3	
398.85	3964.2	
399.05	4059.1	
399.26	5335	
399.46	7107.8	
399.67	4434.5	
399.87	4260.5	
400.07	5653.8	
400.28	6083.1	
400.48	4250.9	
400.69	5355.4	
400.89	6339.1	
401.09	6713.2	
401.3	4077.5	
401.5	5370.5	
401.7	6933.1	
401.91	7283.9	
402.11	4520.5	
402.32	4708.3	
402.52	6247	
402.72	6155.5	
402.93	4863.9	
403.13	3670	
403.33	7036.1	
403.54	5678.3	
403.74	4603.2	
403.94	5472.2	
404.15	5849	
404.35	7051.8	
404.56	4406.5	
404.76	6282.5	
404.96	6318.7	
405.17	6070.9	
405.37	5689.9	
405.57	4926.7	
405.78	6287.9	
405.98	5717.2	
406.18	4384	
406.39	5347.9	
406.59	6251.1	
406.79	5945.3	
407	4218.1	
407.2	4358.1	
407.4	6298.9	
407.61	6594.5	
407.81	4344.4	
408.01	6417.7	
408.22	5292	
408.42	7447.8	
408.62	5410.7	
408.83	4897.4	
409.03	5938.4	
409.23	5777.3	
409.44	5013.4	
409.64	5335.6	
409.84	6881.9	
410.05	6694.8	
410.25	5156.8	
410.45	4861.2	
410.66	6204.7	
410.86	8763.9	
411.06	5309.7	
411.27	5212.8	
411.47	8475.9	
411.67	6350.1	
411.88	5399.8	
412.08	5681.1	
412.28	6974.7	
412.49	7572	
412.69	5094	
412.89	5165.7	
413.09	7401.4	
413.3	7176.8	
413.5	5190.9	
413.7	4732.2	
413.91	6522.8	
414.11	7299	
414.31	5122.7	
414.52	5492.7	
414.72	7023.9	
414.92	6836.8	
415.12	5022.3	
415.33	5629.2	
415.53	7292.1	
415.73	7527	
415.94	6047	
416.14	5429.8	
416.34	6240.8	
416.55	5975.3	
416.75	6614.3	
416.95	6021	
417.15	7291.5	
417.36	8076.5	
417.56	6881.2	
417.76	5827.2	
417.97	7655.3	
418.17	7253.2	
418.37	5430.5	
418.57	5424.4	
418.78	7068.9	
418.98	6754.2	
419.18	6304.3	
419.38	6253.1	
419.59	6782.9	
419.79	6391.7	
419.99	5383.4	
420.2	5717.9	
420.4	7350.8	
420.6	7513.3	
420.8	5235.3	
421.01	5079	
421.21	7073.7	
421.41	7357	
421.61	5687.2	
421.82	5408.7	
422.02	6576	
422.22	7572	
422.42	6131.6	
422.63	5816.2	
422.83	6756.2	
423.03	7974.1	
423.23	5886.5	
423.44	4737	
423.64	6778.1	
423.84	6524.8	
424.04	5252.4	
424.25	4843.4	
424.45	7735.2	
424.65	7780.2	
424.85	4698.7	
425.06	5379.3	
425.26	7688.8	
425.46	6626.5	
425.66	5769.1	
425.87	5507.7	
426.07	7475.8	
426.27	7359	
426.47	5552	
426.67	4922.6	
426.88	7765.2	
427.08	7232.7	
427.28	5885.2	
427.48	4872.1	
427.69	6124.8	
427.89	6840.2	
428.09	5828.5	
428.29	4945.2	
428.5	7577.5	
428.7	7027.3	
428.9	4824.3	
429.1	5425.8	
429.3	6907.8	
429.51	7453.2	
429.71	5137.7	
429.91	6053.1	
430.11	7244.3	
430.31	7505.8	
430.52	5474.9	
430.72	5782.8	
430.92	7833.5	
431.12	7238.2	
431.32	5183.4	
431.53	5595.1	
431.73	6121.4	
431.93	7910.6	
432.13	5076.2	
432.33	4919.2	
432.54	6625.9	
432.74	7028.6	
432.94	4859.8	
433.14	5959.6	
433.34	7204.8	
433.55	6653.9	
433.75	5910.4	
433.95	7697.6	
434.15	6979.5	
434.35	6648.4	
434.56	5100.8	
434.76	4594.3	
434.96	6974.7	
435.16	7200	
435.36	4971.8	
435.56	6113.9	
435.77	6646.3	
435.97	6744.6	
436.17	6776.7	
436.37	6039.5	
436.57	6660	
436.78	6475	
436.98	7384.3	
437.18	6632.7	
437.38	7253.2	
437.58	6776.7	
437.78	6788.3	
437.99	5371.1	
438.19	7261.4	
438.39	8033.5	
438.59	5257.8	
438.79	4739.7	
438.99	7989.8	
439.2	6804.7	
439.4	5040.7	
439.6	4975.9	
439.8	7154.2	
440	8344.1	
440.2	6000.5	
440.4	6187.6	
440.61	7514	
440.81	8163.2	
441.01	5123.3	
441.21	6023.8	
441.41	7932.5	
441.61	7558.4	
441.81	6354.8	
442.02	7445.7	
442.22	8496.3	
442.42	7639.6	
442.62	5231.9	
442.82	5299.5	
443.02	7893.6	
443.22	7038.2	
443.43	5656.5	
443.63	5251	
443.83	6763.8	
444.03	6818.4	
444.23	6499.6	
444.43	6041.5	
444.63	7133.8	
444.83	8403.5	
445.04	5225.7	
445.24	6685.9	
445.44	7474.4	
445.64	7608.9	
445.84	6114.6	
446.04	6115.2	
446.24	6863.4	
446.44	7952.9	
446.65	5317.9	
446.85	5710.4	
447.05	6956.3	
447.25	7896.3	
447.45	5838.8	
447.65	5109.7	
447.85	7232.1	
448.05	6849.1	
448.25	6269.5	
448.46	6024.4	
448.66	7243.7	
448.86	6901.7	
449.06	5031.9	
449.26	6249	
449.46	7550.2	
449.66	6545.3	
449.86	5661.3	
450.06	5668.8	
450.26	6760.3	
450.47	7368.6	
450.67	5937.7	
450.87	6297.5	
451.07	7419.8	
451.27	7271.7	
451.47	5210	
451.67	5879	
451.87	6911.9	
452.07	8045.1	
452.27	5431.2	
452.47	5411.4	
452.67	7159.7	
452.88	7804.8	
453.08	4792.2	
453.28	6886	
453.48	8454	
453.68	7131.7	
453.88	5328.8	
454.08	5645.6	
454.28	7550.2	
454.48	7212.9	
454.68	6223.8	
454.88	6703	
455.08	7687.4	
455.28	7444.4	
455.48	5311.7	
455.68	5970.5	
455.89	8071.7	
456.09	7858.7	
456.29	5571.8	
456.49	5719.3	
456.69	8114.1	
456.89	7234.1	
457.09	6210.1	
457.29	6619	
457.49	7597.3	
457.69	7744.7	
457.89	6075	
458.09	5419.6	
458.29	7355.6	
458.49	7999.4	
458.69	6402.6	
458.89	5845.6	
459.09	8355.7	
459.29	8418.5	
459.49	5965.1	
459.69	6787.7	
459.9	7823.2	
460.1	7323.5	
460.3	5815.5	
460.5	5547.9	
460.7	7888.1	
460.9	7581.6	
461.1	5281.7	
461.3	6548	
461.5	8491.6	
461.7	8074.5	
461.9	5724.8	
462.1	6208.1	
462.3	7591.1	
462.5	8188.5	
462.7	5730.9	
462.9	5863.3	
463.1	9334.6	
463.3	8873.2	
463.5	6038.1	
463.7	7038.2	
463.9	7753.6	
464.1	8205.5	
464.3	6219.7	
464.5	6480.5	
464.7	8357.1	
464.9	7994.6	
465.1	7830.1	
465.3	6806.8	
465.5	8824	
465.7	8710	
465.9	7053.2	
466.1	6865.5	
466.3	8602.2	
466.5	8307.9	
466.7	7767.3	
466.9	6630	
467.1	8341.4	
467.3	9327.8	
467.5	7744.7	
467.7	6492.1	
467.9	9573.6	
468.1	10454	
468.3	7408.9	
468.5	7894.9	
468.7	8246.5	
468.9	8295.6	
469.1	6785.6	
469.3	7511.3	
469.5	10344	
469.7	7792.5	
469.9	7317.4	
470.1	6478.4	
470.3	8235.6	
470.5	8269	
470.7	7846.5	
470.9	6626.5	
471.1	7983	
471.3	8505.2	
471.5	6417.7	
471.69	8421.2	
471.89	7872.4	
472.09	7392.5	
472.29	7345.4	
472.49	7717.4	
472.69	7619.1	
472.89	8462.9	
473.09	6326.2	
473.29	6517.3	
473.49	7799.3	
473.69	7983	
473.89	7475.1	
474.09	6748.1	
474.29	9318.9	
474.49	8936.7	
474.69	7449.8	
474.89	6771.3	
475.09	7997.3	
475.29	7996.6	
475.49	6157.6	
475.69	6434	
475.88	9699.2	
476.08	8297.7	
476.28	6028.5	
476.48	6604	
476.68	8806.3	
476.88	8550.3	
477.08	6436.1	
477.28	6722.8	
477.48	8000	
477.68	8784.4	
477.88	6253.1	
478.08	6582.2	
478.28	9105.3	
478.48	8181	
478.67	6560.3	
478.87	6029.9	
479.07	8815.8	
479.27	8310	
479.47	6865.5	
479.67	6834.8	
479.87	8701.1	
480.07	9194	
480.27	6033.3	
480.47	7724.3	
480.67	8324.3	
480.87	8928.5	
481.06	6307.1	
481.26	7199.3	
481.46	8301.8	
481.66	8159.1	
481.86	6787.7	
482.06	7987.1	
482.26	7889.5	
482.46	9095	
482.66	6747.4	
482.86	6275	
483.05	8315.4	
483.25	7641	
483.45	9279.3	
483.65	6747.4	
483.85	7851.2	
484.05	8206.2	
484.25	7219.8	
484.45	7628.7	
484.65	9129.2	
484.84	9097.8	
485.04	6658.6	
485.24	6615.6	
485.44	9387.2	
485.64	7602.7	
485.84	5942.5	
486.04	7411.6	
486.24	7980.9	
486.44	8411	
486.63	5868.1	
486.83	6747.4	
487.03	7869.7	
487.23	8254.7	
487.43	6087.9	
487.63	8473.1	
487.83	8194.6	
488.02	9304.6	
488.22	7116	
488.42	7728.4	
488.62	9157.8	
488.82	7950.9	
489.02	6657.9	
489.22	6709.8	
489.41	8918.2	
489.61	8542.1	
489.81	6396.5	
490.01	6435.4	
490.21	8822	
490.41	9486.2	
490.61	6331.6	
490.8	6466.8	
491	8251.9	
491.2	7553.6	
491.4	7076.4	
491.6	6187.6	
491.8	8261.5	
491.99	8464.3	
492.19	6081.1	
492.39	6465.4	
492.59	8921	
492.79	8899.1	
492.99	7452.6	
493.18	6445.6	
493.38	9018.6	
493.58	9733.3	
493.78	7157.7	
493.98	6791.7	
494.18	8662.9	
494.37	8138.6	
494.57	7443.7	
494.77	7372	
494.97	8920.3	
495.17	9168.1	
495.37	6830.7	
495.56	7260	
495.76	9359.2	
495.96	8924.4	
496.16	8136.6	
496.36	6996.5	
496.55	9158.5	
496.75	8670.4	
496.95	7354.9	
497.15	7313.3	
497.35	9180.4	
497.54	9086.8	
497.74	7025.2	
497.94	8561.2	
498.14	9843.2	
498.34	9736.7	
498.53	6795.8	
498.73	7570	
498.93	8478.6	
499.13	9315.5	
499.33	7309.9	
499.52	8003.5	
499.72	9060.9	
499.92	9506	
500.12	7039.6	
500.32	7252.5	
500.51	9461.6	
500.71	9202.2	
500.91	8166.6	
501.11	7653.3	
501.31	9334	
501.5	9693.7	
501.7	8318.8	
501.9	7363.8	
502.1	9081.4	
502.29	9317.6	
502.49	7765.9	
502.69	8272.4	
502.89	9315.5	
503.09	9231.6	
503.28	6825.2	
503.48	6937.2	
503.68	8394.6	
503.88	8503.2	
504.07	7944.1	
504.27	7423.9	
504.47	8846.5	
504.67	8960.5	
504.86	7764.5	
505.06	7552.9	
505.26	8563.2	
505.46	10453	
505.65	7347.4	
505.85	7524.2	
506.05	8330.5	
506.25	8927.8	
506.44	6538.5	
506.64	7585	
506.84	8309.3	
507.04	9265	
507.23	6762.4	
507.43	7433.4	
507.63	10350	
507.83	8499.1	
508.02	7389.1	
508.22	6863.4	
508.42	10557	
508.62	8228.7	
508.81	7240.3	
509.01	7828.7	
509.21	8171.4	
509.4	8415.1	
509.6	7425.3	
509.8	6805.4	
510	8413.7	
510.19	9923.8	
510.39	6739.2	
510.59	6787	
510.79	8154.3	
510.98	9671.9	
511.18	6839.5	
511.38	7097.6	
511.57	8955.1	
511.77	8936	
511.97	7744.1	
512.17	6567.2	
512.36	8991.3	
512.56	8953.7	
512.76	6777.4	
512.95	6538.5	
513.15	9220	
513.35	7774.1	
513.55	7725.6	
513.74	6784.9	
513.94	9222	
514.14	8438.3	
514.33	7749.5	
514.53	7547.4	
514.73	8555.7	
514.92	8718.2	
515.12	6969.9	
515.32	6763.8	
515.51	8818.6	
515.71	9313.5	
515.91	8603.5	
516.11	6862.7	
516.3	10655	
516.5	8387.8	
516.7	7446.4	
516.89	8058.1	
517.09	8547.5	
517.29	8361.9	
517.48	7846.5	
517.68	7129	
517.88	8256.7	
518.07	8923.7	
518.27	7773.4	
518.47	6751.5	
518.66	9510.1	
518.86	8049.9	
519.06	6552.8	
519.25	7058.7	
519.45	8418.5	
519.65	9928.6	
519.84	7699.7	
520.04	8357.1	
520.24	10227	
520.43	8970.1	
520.63	7231.4	
520.83	7031.4	
521.02	8224.6	
521.22	8874.5	
521.42	7583.6	
521.61	8243.8	
521.81	8503.2	
522.01	8761.9	
522.2	7533.1	
522.4	7282.6	
522.6	9174.9	
522.79	7983.7	
522.99	7344	
523.18	6717.3	
523.38	9013.1	
523.58	9018.6	
523.77	8695	
523.97	6685.3	
524.17	10863	
524.36	9787.2	
524.56	8119.5	
524.76	7628.7	
524.95	8937.3	
525.15	8514.1	
525.34	7437.5	
525.54	7389.8	
525.74	9267.1	
525.93	8240.3	
526.13	8636.3	
526.33	7371.3	
526.52	9559.2	
526.72	9019.9	
526.91	8649.9	
527.11	7942	
527.31	9633	
527.5	10040	
527.7	7802.8	
527.89	6819.1	
528.09	8554.4	
528.29	9114.8	
528.48	8201.4	
528.68	7847.8	
528.87	9425.4	
529.07	9525.1	
529.27	7592.5	
529.46	7172.7	
529.66	8974.9	
529.85	9476	
530.05	6941.9	
530.25	7738.6	
530.44	10464	
530.64	9036.3	
530.83	7406.8	
531.03	7669	
531.23	9527.8	
531.42	9354.4	
531.62	8572.1	
531.81	7645.1	
532.01	9615.9	
532.21	10081	
532.4	7388.4	
532.6	7759.8	
532.79	10649	
532.99	9617.3	
533.18	7824.6	
533.38	8856.8	
533.58	9222.7	
533.77	9942.9	
533.97	7724.9	
534.16	8617.9	
534.36	10204	
534.55	9234.3	
534.75	8758.5	
534.95	7836.2	
535.14	9971.6	
535.34	9174.9	
535.53	7400	
535.73	9452.7	
535.92	10529	
536.12	9295.7	
536.31	7553.6	
536.51	8802.9	
536.71	9583.8	
536.9	9218.6	
537.1	7751.6	
537.29	7939.3	
537.49	10064	
537.68	9153.7	
537.88	8241	
538.07	7374.7	
538.27	9353.1	
538.46	10497	
538.66	7438.9	
538.86	7871.7	
539.05	9398.1	
539.25	9917.6	
539.44	8049.9	
539.64	7642.3	
539.83	9182.4	
540.03	10199	
540.22	7473	
540.42	7674.4	
540.61	9408.4	
540.81	9606.3	
541	8032.8	
541.2	8772.8	
541.39	8989.9	
541.59	9378.3	
541.78	8378.9	
541.98	7497.6	
542.18	8640.4	
542.37	8570.1	
542.57	7841.7	
542.76	8473.1	
542.96	8607.6	
543.15	9475.3	
543.35	7819.8	
543.54	7235.5	
543.74	9758.6	
543.93	9191.3	
544.13	7834.2	
544.32	9052.7	
544.52	9503.9	
544.71	8681.3	
544.91	6828.6	
545.1	8183.7	
545.3	8780.3	
545.49	9581.8	
545.69	6885.3	
545.88	7445	
546.08	10425	
546.27	10062	
546.47	8028	
546.66	7334.5	
546.86	9722.4	
547.05	10288	
547.24	7597.3	
547.44	7335.1	
547.63	8602.2	
547.83	9932	
548.02	7780.9	
548.22	8038.3	
548.41	8395.3	
548.61	9845.3	
548.8	7269.6	
549	7245	
549.19	9125.1	
549.39	9384.5	
549.58	6947.4	
549.78	7555.6	
549.97	9508.7	
550.17	8982.4	
550.36	8403.5	
550.55	9503.9	
550.75	8991.9	
550.94	9919.7	
551.14	7248.4	
551.33	7649.8	
551.53	8325.7	
551.72	9427.5	
551.92	7742	
552.11	7419.1	
552.31	9378.3	
552.5	9441.8	
552.69	9099.1	
552.89	6967.2	
553.08	9330.5	
553.28	9081.4	
553.47	7488.7	
553.67	8613.1	
553.86	10127	
554.06	8368	
554.25	6617	
554.44	7234.8	
554.64	10822	
554.83	10198	
555.03	7232.1	
555.22	7468.9	
555.42	9510.8	
555.61	9200.8	
555.8	7376.1	
556	7715.4	
556.19	8308.6	
556.39	9620	
556.58	7440.3	
556.78	7415	
556.97	9140.8	
557.16	8860.9	
557.36	8671.1	
557.55	7035.5	
557.75	8115.4	
557.94	9995.5	
558.13	7300.3	
558.33	6916	
558.52	9727.9	
558.72	8572.8	
558.91	6986.3	
559.1	7230	
559.3	8213.7	
559.49	7981.6	
559.69	6485.9	
559.88	7638.9	
560.07	9047.9	
560.27	9540.1	
560.46	7799.3	
560.66	7917.4	
560.85	8850.6	
561.04	7985	
561.24	6930.3	
561.43	7219.8	
561.63	8282.7	
561.82	8655.4	
562.01	8470.4	
562.21	7535.2	
562.4	9046.6	
562.59	10045	
562.79	7383.6	
562.98	6973.3	
563.18	8931.2	
563.37	10418	
563.56	7813	
563.76	6827.2	
563.95	8406.9	
564.14	8320.2	
564.34	7307.8	
564.53	7043.6	
564.73	8912.8	
564.92	9318.9	
565.11	7492.2	
565.31	6803.4	
565.5	9483.5	
565.69	8503.8	
565.89	7023.9	
566.08	7267.6	
566.27	9341.5	
566.47	9764.7	
566.66	7893.6	
566.85	6582.9	
567.05	8868.4	
567.24	8273.1	
567.44	6898.9	
567.63	8299.1	
567.82	9086.2	
568.02	8939.4	
568.21	6914.6	
568.4	7426.6	
568.6	8680.7	
568.79	8772.8	
568.98	6770.6	
569.18	6893.5	
569.37	8646.5	
569.56	10716	
569.76	7208.8	
569.95	8176.2	
570.14	9054.8	
570.34	8906.6	
570.53	6683.9	
570.72	6556.9	
570.91	9478.7	
571.11	8518.9	
571.3	7148.1	
571.49	8062.2	
571.69	8500.4	
571.88	8103.1	
572.07	7682.6	
572.27	7646.4	
572.46	8075.1	
572.65	9160.6	
572.85	6840.2	
573.04	7243.7	
573.23	9398.8	
573.43	8708	
573.62	6625.9	
573.81	7337.2	
574	8653.4	
574.2	8512	
574.39	6965.8	
574.58	7158.3	
574.78	9553.8	
574.97	8710	
575.16	7513.3	
575.36	7759.1	
575.55	9065.7	
575.74	9254.8	
575.93	6633.4	
576.13	7662.1	
576.32	8465.6	
576.51	9024.7	
576.71	6985.6	
576.9	8446.5	
577.09	9407.7	
577.28	8921.6	
577.48	7651.2	
577.67	6457.2	
577.86	8637	
578.05	8817.9	
578.25	7110.5	
578.44	7273	
578.63	8728.4	
578.83	9863	
579.02	6497.5	
579.21	8191.2	
579.4	8934.6	
579.6	8568	
579.79	7374.1	
579.98	9598.1	
580.17	9247.9	
580.37	9346.9	
580.56	6810.9	
580.75	7701	
580.94	9874.6	
581.14	9657.5	
581.33	8066.9	
581.52	7034.8	
581.71	9199.5	
581.91	9876.7	
582.1	6711.2	
582.29	7303.7	
582.48	8753.7	
582.68	8741.4	
582.87	7783	
583.06	7346.1	
583.25	9217.9	
583.45	9053.4	
583.64	8067.6	
583.83	8910.7	
584.02	8658.1	
584.21	9150.3	
584.41	8032.1	
584.6	7375.4	
584.79	8871.8	
584.98	9682.8	
585.18	6843.6	
585.37	6784.2	
585.56	8413.7	
585.75	9205.6	
585.94	7099.6	
586.14	7763.2	
586.33	9820.7	
586.52	8801.5	
586.71	7469.6	
586.91	7246.4	
587.1	8170	
587.29	9292.3	
587.48	7088.7	
587.67	7047.7	
587.87	9035.6	
588.06	9050.7	
588.25	8279.9	
588.44	7421.8	
588.63	8524.3	
588.83	9098.4	
589.02	6851.8	
589.21	6752.2	
589.4	8216.5	
589.59	7952.9	
589.78	5879	
589.98	6115.9	
590.17	7617.8	
590.36	8221.9	
590.55	5513.1	
590.74	6500.9	
590.94	9610.4	
591.13	8147.5	
591.32	6180.1	
591.51	5776	
591.7	8656.8	
591.89	8049.2	
592.09	5892	
592.28	6380.8	
592.47	7344.7	
592.66	9231.6	
592.85	5896.1	
593.05	6139.8	
593.24	7871	
593.43	8727.1	
593.62	6189	
593.81	6775.4	
594	7970.7	
594.19	8197.3	
594.39	6217.6	
594.58	6098.9	
594.77	8322.9	
594.96	8893	
595.15	5998.5	
595.34	6642.9	
595.54	8374.1	
595.73	7450.5	
595.92	5449	
596.11	6702.3	
596.3	8914.8	
596.49	7604.8	
596.68	6436.8	
596.88	6946	
597.07	8698.4	
597.26	7447.8	
597.45	6016.2	
597.64	7113.3	
597.83	7714.7	
598.02	8367.3	
598.22	6059.3	
598.41	6837.5	
598.6	8153	
598.79	7514.7	
598.98	6100.2	
599.17	7114.6	
599.36	8127.7	
599.55	9493	
599.74	8283.4	
599.94	8002.8	
600.13	8821.3	
600.32	7621.2	
600.51	5927.5	
600.7	6077	
600.89	9538.1	
601.08	9579.7	
601.27	5939.1	
601.47	6969.2	
601.66	8792.6	
601.85	9506.7	
602.04	6629.3	
602.23	6952.9	
602.42	7851.2	
602.61	8440.4	
602.8	6587.6	
602.99	6289.3	
603.18	8185	
603.37	8497.7	
603.57	7066.2	
603.76	7688.8	
603.95	9302.6	
604.14	8834.9	
604.33	6477.7	
604.52	6853.2	
604.71	8458.8	
604.9	8090.8	
605.09	7364.5	
605.28	7259.4	
605.47	9055.4	
605.66	8740.7	
605.86	7143.3	
606.05	6482.5	
606.24	9054.1	
606.43	7633.5	
606.62	6759	
606.81	7593.9	
607	8969.4	
607.19	8217.8	
607.38	6213.5	
607.57	6480.5	
607.76	8023.9	
607.95	7444.4	
608.14	6911.2	
608.33	7593.2	
608.52	8047.2	
608.72	8997.4	
608.91	6150.1	
609.1	6040.1	
609.29	8094.3	
609.48	7561.1	
609.67	7127.6	
609.86	6088.6	
610.05	7739.3	
610.24	8088.8	
610.43	5993	
610.62	5654.4	
610.81	9219.3	
611	8991.9	
611.19	6150.1	
611.38	6863.4	
611.57	8415.1	
611.76	9739.5	
611.95	5895.4	
612.14	5844.2	
612.33	8064.9	
612.52	7647.1	
612.71	6473.6	
612.9	5578	
613.09	7258.7	
613.28	9633.6	
613.47	6168.5	
613.66	7166.5	
613.85	8316.8	
614.04	7788.4	
614.24	6228.6	
614.43	5466	
614.62	8432.9	
614.81	8286.8	
615	6929	
615.19	6905.8	
615.38	7612.3	
615.57	8021.9	
615.76	6709.1	
615.95	7677.2	
616.14	8471.1	
616.33	8086.1	
616.52	7034.1	
616.71	7326.9	
616.9	8373.5	
617.09	8245.8	
617.28	6423.1	
617.47	7621.2	
617.66	7479.2	
617.85	7454.6	
618.04	7327.6	
618.22	6750.1	
618.41	7811.6	
618.6	8737.3	
618.79	6576	
618.98	6279.1	
619.17	9106	
619.36	7363.1	
619.55	6471.6	
619.74	6544.6	
619.93	8260.1	
620.12	7696.3	
620.31	7098.3	
620.5	7192.5	
620.69	8945.5	
620.88	9202.9	
621.07	7903.1	
621.26	6886	
621.45	8490.2	
621.64	8442.4	
621.83	7059.3	
622.02	6149.4	
622.21	8458.1	
622.4	8301.8	
622.59	7590.5	
622.78	7414.3	
622.97	7835.5	
623.16	8817.9	
623.35	6948.8	
623.54	6073.6	
623.72	8057.4	
623.91	8137.3	
624.1	7178.8	
624.29	5851	
624.48	9213.1	
624.67	8526.4	
624.86	7051.8	
625.05	6109.1	
625.24	9404.3	
625.43	7646.4	
625.62	8815.1	
625.81	6234	
626	8797.4	
626.19	7990.5	
626.38	7058	
626.56	6424.5	
626.75	7675.1	
626.94	8502.5	
627.13	7018.4	
627.32	5653.1	
627.51	8382.3	
627.7	9806.4	
627.89	5706.3	
628.08	6963.8	
628.27	7432.8	
628.46	7765.9	
628.65	6066.8	
628.83	5792.3	
629.02	8375.5	
629.21	7664.2	
629.4	6576.7	
629.59	6727.6	
629.78	7545.4	
629.97	8652.7	
630.16	6870.3	
630.35	6257.9	
630.54	9031.5	
630.72	8806.9	
630.91	6315.9	
631.1	6797.2	
631.29	8168.7	
631.48	8376.2	
631.67	6959	
631.86	6489.3	
632.05	7802.8	
632.24	7915.4	
632.42	6083.8	
632.61	6677.7	
632.8	8054	
632.99	7585.7	
633.18	6670.9	
633.37	7131.7	
633.56	8251.9	
633.75	8057.4	
633.93	6693.4	
634.12	6408.1	
634.31	9076.6	
634.5	8647.2	
634.69	6407.4	
634.88	6952.9	
635.07	7981.6	
635.25	8681.3	
635.44	7430.7	
635.63	7545.4	
635.82	7888.8	
636.01	7291.5	
636.2	7412.3	
636.39	6893.5	
636.57	9101.9	
636.76	8768	
636.95	6347.3	
637.14	7776.8	
637.33	8303.8	
637.52	9226.1	
637.7	6115.9	
637.89	7052.5	
638.08	7956.4	
638.27	9466.4	
638.46	7161.1	
638.65	7650.5	
638.83	9426.8	
639.02	7728.4	
639.21	7060	
639.4	7518.8	
639.59	8247.9	
639.78	7821.9	
639.96	6356.2	
640.15	6387.6	
640.34	8116.1	
640.53	8278.6	
640.72	5984.2	
640.91	6446.3	
641.09	7557.7	
641.28	8927.1	
641.47	6301.6	
641.66	7286.7	
641.85	8217.8	
642.03	8503.8	
642.22	7019.8	
642.41	6429.3	
642.6	7621.9	
642.79	7005.4	
642.97	6245.6	
643.16	6935.8	
643.35	7607.5	
643.54	7475.1	
643.73	6151.4	
643.91	6919.4	
644.1	7200	
644.29	7826.7	
644.48	6117.3	
644.67	6203.3	
644.85	7417.1	
645.04	7688.1	
645.23	5717.2	
645.42	5973.9	
645.6	7215	
645.79	8386.4	
645.98	5937.7	
646.17	4915.8	
646.36	6918.7	
646.54	7547.4	
646.73	6755.6	
646.92	5545.2	
647.11	7292.1	
647.29	8275.2	
647.48	5610.8	
647.67	5403.2	
647.86	8546.9	
648.05	8510	
648.23	6037.4	
648.42	7338.6	
648.61	7879.9	
648.8	7571.3	
648.98	5646.2	
649.17	6014.2	
649.36	7244.3	
649.55	6664.8	
649.73	5688.6	
649.92	6503	
650.11	7025.9	
650.3	7400	
650.48	5847.6	
650.67	5640.1	
650.86	7686.7	
651.05	6587	
651.23	5800.5	
651.42	5830.6	
651.61	7161.1	
651.79	7382.2	
651.98	6001.9	
652.17	5639.4	
652.36	7733.8	
652.54	6759	
652.73	5643.5	
652.92	5391.6	
653.11	7733.8	
653.29	7774.1	
653.48	4881.7	
653.67	5999.9	
653.85	7404.8	
654.04	8482	
654.23	6153.5	
654.42	5649	
654.6	6991.8	
654.79	7597.3	
654.98	5147.9	
655.16	5783.5	
655.35	6541.9	
655.54	6580.8	
655.73	5325.4	
655.91	5248.9	
656.1	7810.3	
656.29	6559.6	
656.47	4855.1	
656.66	6660	
656.85	6869.6	
657.03	6883.2	
657.22	5403.2	
657.41	5449.6	
657.59	7017	
657.78	6788.3	
657.97	5140.4	
658.16	5866.1	
658.34	7610.3	
658.53	8043.7	
658.72	6772.6	
658.9	7330.4	
659.09	7073.7	
659.28	7165.8	
659.46	5642.2	
659.65	5560.2	
659.84	6925.5	
660.02	7443.7	
660.21	5383.4	
660.4	5442.8	
660.58	7855.3	
660.77	7236.8	
660.96	6008.7	
661.14	5106.3	
661.33	8441	
661.52	8262.9	
661.7	5011.4	
661.89	8919.6	
662.08	6821.1	
662.26	6442.9	
662.45	5355.4	
662.64	5464.7	
662.82	7546.1	
663.01	6683.9	
663.2	5406.6	
663.38	6245.6	
663.57	7455.3	
663.75	7321.5	
663.94	5839.4	
664.13	7037.5	
664.31	6798.6	
664.5	7535.8	
664.69	6217.6	
664.87	6673.6	
665.06	6535.8	
665.25	7300.3	
665.43	6911.9	
665.62	6939.9	
665.8	7726.3	
665.99	6884.6	
666.18	5786.9	
666.36	5952.1	
666.55	7593.9	
666.74	7482.6	
666.92	5374.6	
667.11	7076.4	
667.29	6916.7	
667.48	7550.9	
667.67	6826.6	
667.85	5879	
668.04	7030.7	
668.22	7019.1	
668.41	5912.5	
668.6	6065.4	
668.78	6745.3	
668.97	7009.5	
669.15	6195.1	
669.34	5134.3	
669.53	6804.7	
669.71	7149.5	
669.9	5318.6	
670.08	6004	
670.27	6834.1	
670.46	7361.1	
670.64	6265.4	
670.83	6448.4	
671.01	6686.6	
671.2	7279.8	
671.38	5384.8	
671.57	5403.2	
671.76	7887.4	
671.94	8541.4	
672.13	5228.5	
672.31	6382.2	
672.5	7391.1	
672.69	6739.2	
672.87	5436	
673.06	5722.7	
673.24	7337.2	
673.43	6812.9	
673.61	6259.3	
673.8	5745.9	
673.98	7500.3	
674.17	7694.9	
674.36	6342.6	
674.54	6191	
674.73	7215	
674.91	7544.7	
675.1	5907	
675.28	5507	
675.47	7064.8	
675.65	7660.8	
675.84	5717.9	
676.03	6083.1	
676.21	6857.3	
676.4	6274.3	
676.58	6599.2	
676.77	6363.7	
676.95	8314.8	
677.14	6768.5	
677.32	5429.2	
677.51	5221	
677.69	7580.9	
677.88	6405.4	
678.06	5208	
678.25	5425.1	
678.44	6978.1	
678.62	6727.6	
678.81	5094	
678.99	6046.3	
679.18	7903.8	
679.36	7432.1	
679.55	5620.3	
679.73	6337.8	
679.92	7415.7	
680.1	6753.5	
680.29	6909.8	
680.47	5642.2	
680.66	6733.7	
680.84	7590.5	
681.03	4938.3	
681.21	6141.2	
681.4	6753.5	
681.58	6604.7	
681.77	5399.1	
681.95	5253.7	
682.14	7625.3	
682.32	8046.5	
682.51	6395.8	
682.69	5107.6	
682.88	6638.8	
683.06	7374.7	
683.25	5996.5	
683.43	6439.5	
683.62	6925.5	
683.8	7363.8	
683.99	6519.4	
684.17	5744.6	
684.36	8159.8	
684.54	6752.2	
684.73	4827.1	
684.91	5088.5	
685.1	7061.4	
685.28	6543.9	
685.46	5651.7	
685.65	5745.2	
685.83	7320.8	
686.02	6671.6	
686.2	5223.7	
686.39	5319.3	
686.57	6264.7	
686.76	7986.4	
686.94	5205.3	
687.13	5329.5	
687.31	7227.3	
687.5	6646.3	
687.68	4748.6	
687.86	6103.6	
688.05	8443.8	
688.23	6153.5	
688.42	6079.7	
688.6	5223	
688.79	6580.8	
688.97	6579.4	
689.16	5659.9	
689.34	4486.4	
689.52	7322.2	
689.71	7473.7	
689.89	5930.9	
690.08	5133.6	
690.26	6809.5	
690.45	6660	
690.63	6113.2	
690.81	5261.2	
691	6460.7	
691.18	6395.8	
691.37	5471.5	
691.55	7660.1	
691.74	6363.7	
691.92	8548.2	
692.1	5545.2	
692.29	4817.5	
692.47	6670.9	
692.66	5942.5	
692.84	5060.5	
693.02	5786.9	
693.21	6068.8	
693.39	6619.7	
693.58	5797.8	
693.76	5175.2	
693.94	7879.2	
694.13	7680.6	
694.31	5170.4	
694.5	6307.7	
694.68	6408.1	
694.86	6814.3	
695.05	5572.5	
695.23	6025.8	
695.42	7199.3	
695.6	9531.2	
695.78	6198.5	
695.97	5287.2	
696.15	7217	
696.34	6565.8	
696.52	4981.3	
696.7	5774.6	
696.89	6969.2	
697.07	6356.9	
697.25	5785.5	
697.44	7365.2	
697.62	6816.3	
697.81	7292.8	
697.99	5405.3	
698.17	5869.5	
698.36	6214.2	
698.54	6849.8	
698.72	5759.6	
698.91	4749.9	
699.09	6463.4	
699.28	6354.2	
699.46	5427.1	
699.64	5290.6	
699.83	6218.3	
700.01	7709.2	
700.19	6170.5	
700.38	4502.8	
700.56	7677.8	
700.74	6341.9	
700.93	4980.7	
701.11	5808.7	
701.29	6999.3	
701.48	8092.2	
701.66	5227.8	
701.84	5221	
702.03	6522.8	
702.21	7201.3	
702.39	4722.6	
702.58	5336.3	
702.76	6942.6	
702.94	7010.2	
703.13	4747.2	
703.31	7299	
703.49	6225.8	
703.68	7180.2	
703.86	5001.1	
704.04	5957.5	
704.23	6815	
704.41	7166.5	
704.59	5173.2	
704.78	6359.6	
704.96	7888.1	
705.14	7251.2	
705.33	4878.3	
705.51	5838.1	
705.69	6570.6	
705.87	7492.8	
706.06	6084.5	
706.24	4859.1	
706.42	6917.4	
706.61	7161.1	
706.79	6146	
706.97	4941.1	
707.16	6415.6	
707.34	6944	
707.52	6023.1	
707.7	5121.3	
707.89	6524.1	
708.07	6217.6	
708.25	6063.4	
708.44	6142.5	
708.62	6485.9	
708.8	7688.8	
708.98	6346	
709.17	5266.7	
709.35	6909.2	
709.53	6923.5	
709.72	4948.6	
709.9	5124	
710.08	7159	
710.26	7170.6	
710.45	6625.9	
710.63	5390.9	
710.81	6918	
710.99	6899.6	
711.18	5915.2	
711.36	5419.6	
711.54	6605.4	
711.72	7321.5	
711.91	5485.8	
712.09	4834.6	
712.27	6765.1	
712.45	7869	
712.64	5803.3	
712.82	4650.9	
713	6150.1	
713.18	6328.2	
713.37	4747.2	
713.55	5982.1	
713.73	7225.2	
713.91	5741.1	
714.1	5167	
714.28	4547.9	
714.46	6861.4	
714.64	6085.9	
714.83	4048.8	
715.01	4969.1	
715.19	6278.4	
715.37	5558.9	
715.55	4622.9	
715.74	4915.8	
715.92	7079.1	
716.1	5081	
716.28	6074.3	
716.47	5149.3	
716.65	5763.7	
716.83	5913.2	
717.01	4984.8	
717.19	5055.1	
717.38	8110	
717.56	5552.7	
717.74	5244.8	
717.92	4330.8	
718.1	6907.8	
718.29	6036	
718.47	3936.9	
718.65	4705.5	
718.83	6746	
719.01	6565.1	
719.2	3899.3	
719.38	5033.9	
719.56	6300.9	
719.74	7977.5	
719.92	4500.1	
720.11	5590.3	
720.29	6386.9	
720.47	5465.3	
720.65	4078.9	
720.83	4987.5	
721.02	5824.4	
721.2	5546.6	
721.38	5038.7	
721.56	4301.4	
721.74	5158.2	
721.92	5332.9	
722.11	5591.6	
722.29	5259.9	
722.47	6649.1	
722.65	5825.1	
722.83	4369.7	
723.01	5284.4	
723.2	5864	
723.38	6169.2	
723.56	3693.2	
723.74	4926.7	
723.92	5345.2	
724.1	6551.5	
724.29	4226.3	
724.47	5444.9	
724.65	5362.9	
724.83	5386.2	
725.01	4112.3	
725.19	5055.1	
725.37	5425.1	
725.56	5515.9	
725.74	4018.8	
725.92	4193.6	
726.1	5337	
726.28	5698.8	
726.46	4784.7	
726.64	4397.7	
726.83	5663.3	
727.01	5947.3	
727.19	3992.9	
727.37	4810.7	
727.55	5761.6	
727.73	6320.7	
727.91	3977.2	
728.09	3855.6	
728.28	6367.8	
728.46	7056.6	
728.64	5038.7	
728.82	5048.9	
729	7501	
729.18	6726.9	
729.36	4150.6	
729.54	6655.2	
729.72	7795.3	
729.91	6036	
730.09	6236.7	
730.27	4959.5	
730.45	5890.6	
730.63	6655.2	
730.81	5554.8	
730.99	4495.3	
731.17	7114.6	
731.35	5682.4	
731.53	5044.8	
731.71	4668.7	
731.9	6832	
732.08	7074.4	
732.26	4922.6	
732.44	4590.9	
732.62	7071.6	
732.8	6559.6	
732.98	5367	
733.16	4378.6	
733.34	6491.4	
733.52	5290.6	
733.7	5016.2	
733.88	5256.5	
734.07	6418.3	
734.25	6217.6	
734.43	4378.6	
734.61	6115.2	
734.79	7703.1	
734.97	6092.7	
735.15	4493.2	
735.33	4894.6	
735.51	6464.1	
735.69	6081.1	
735.87	6116.6	
736.05	5143.8	
736.23	6275	
736.41	6110.5	
736.59	5010.7	
736.77	5183.4	
736.95	6746	
737.13	6146	
737.32	4670.7	
737.5	4897.4	
737.68	7357.7	
737.86	6072.9	
738.04	4429.1	
738.22	6463.4	
738.4	5938.4	
738.58	6242.2	
738.76	5190.2	
738.94	4093.2	
739.12	6023.1	
739.3	5912.5	
739.48	5895.4	
739.66	5550	
739.84	6387.6	
740.02	6321.4	
740.2	4246.8	
740.38	4622.3	
740.56	6757.6	
740.74	5547.3	
740.92	5264	
741.1	5188.9	
741.28	6191.7	
741.46	5982.8	
741.64	4764.9	
741.82	5343.8	
742	6221	
742.18	6235.4	
742.36	5059.2	
742.54	4653.7	
742.72	6840.2	
742.9	5505.6	
743.08	5436.7	
743.26	4233.8	
743.44	7102.4	
743.62	6887.3	
743.8	5649	
743.98	4612	
744.16	6668.9	
744.34	6280.4	
744.52	5602.6	
744.7	5526.1	
744.88	6750.1	
745.06	6343.2	
745.24	5628.5	
745.42	5767.1	
745.6	6807.4	
745.78	6615.6	
745.96	4335.5	
746.14	4804.5	
746.32	7606.8	
746.5	6940.6	
746.68	5347.9	
746.86	4785.4	
747.03	7318.1	
747.21	5606.7	
747.39	5361.6	
747.57	4791.6	
747.75	6511.9	
747.93	6936.5	
748.11	4816.1	
748.29	4708.3	
748.47	8145.5	
748.65	6179.4	
748.83	5513.1	
749.01	5223	
749.19	6713.2	
749.37	5862.7	
749.55	5107.6	
749.73	5280.3	
749.91	6327.5	
750.09	6047.7	
750.26	5252.4	
750.44	4653.7	
750.62	6420.4	
750.8	6315.3	
750.98	4483.7	
751.16	4827.7	
751.34	6417	
751.52	5765.7	
751.7	5620.3	
751.88	4386.7	
752.06	6949.4	
752.24	6711.9	
752.42	4406.5	
752.59	4767.7	
752.77	6322.8	
752.95	7587.7	
753.13	5615.5	
753.31	4952	
753.49	6017.6	
753.67	6574	
753.85	5252.4	
754.03	4807.9	
754.21	6767.2	
754.38	7180.9	
754.56	4999.1	
754.74	3975.8	
754.92	6004.6	
755.1	6726.9	
755.28	4052.9	
755.46	4019.5	
755.64	7410.9	
755.82	7531.7	
755.99	4230.4	
756.17	4383.3	
756.35	4879.6	
756.53	6595.8	
756.71	3211.9	
756.89	4233.8	
757.07	6131.6	
757.25	5139	
757.42	4790.9	
757.6	5712.5	
757.78	6229.2	
757.96	5199.1	
758.14	4417.5	
758.32	3910.9	
758.5	4679.6	
758.67	5498.1	
758.85	4293.9	
759.03	4383.3	
759.21	5724.8	
759.39	5118.6	
759.57	3801.7	
759.75	5020.9	
759.92	6384.2	
760.1	5577.3	
760.28	5369.8	
760.46	5616.9	
760.64	5425.1	
760.82	5183.4	
760.99	5221	
761.17	4401.8	
761.35	6322.1	
761.53	5244.2	
761.71	4479.6	
761.89	5349.3	
762.06	6248.4	
762.24	5707	
762.42	4646.8	
762.6	4474.8	
762.78	5705	
762.96	6481.1	
763.13	5100.1	
763.31	4731.5	
763.49	6646.3	
763.67	5723.4	
763.85	5718.6	
764.02	6259.3	
764.2	6860	
764.38	6111.1	
764.56	4657.1	
764.74	5588.9	
764.91	7046.4	
765.09	5869.5	
765.27	4339	
765.45	4087.7	
765.63	7135.8	
765.8	7051.8	
765.98	3890.5	
766.16	4288.4	
766.34	5477.6	
766.52	5201.2	
766.69	5275.6	
766.87	4054.3	
767.05	5926.1	
767.23	6695.5	
767.41	4410	
767.58	4713.7	
767.76	6515.3	
767.94	6591.7	
768.12	4565.6	
768.29	5371.8	
768.47	6025.8	
768.65	6718	
768.83	4164.2	
769	5382.1	
769.18	5563.6	
769.36	6290	
769.54	5130.2	
769.72	4150.5	
769.89	6580.8	
770.07	6812.2	
770.25	4452.3	
770.43	5835.3	
770.6	7344	
770.78	7817.8	
770.96	4703.5	
771.14	5434.6	
771.31	6474.3	
771.49	5812.1	
771.67	3799.7	
771.85	4116.4	
772.02	5018.9	
772.2	5892	
772.38	4840.7	
772.55	4377.9	
772.73	6087.2	
772.91	5885.2	
773.09	4689.2	
773.26	4846.9	
773.44	6066.1	
773.62	5745.9	
773.8	4251.6	
773.97	3926.6	
774.15	6138.4	
774.33	5662	
774.5	4136.9	
774.68	4501.4	
774.86	6310.5	
775.04	5731.6	
775.21	4230.4	
775.39	4179.2	
775.57	6045.6	
775.74	6471.6	
775.92	4027	
776.1	3926.6	
776.27	6008.7	
776.45	7255.3	
776.63	4205.8	
776.81	3717.7	
776.98	5658.5	
777.16	6777.4	
777.34	4382.7	
777.51	4660.5	
777.69	5582.8	
777.87	5377.3	
778.04	4399	
778.22	5032.5	
778.4	5395.7	
778.57	6079.1	
778.75	3592.1	
778.93	3909.6	
779.1	5164.3	
779.28	5056.4	
779.46	3643.3	
779.64	4139.6	
779.81	6246.3	
779.99	7178.8	
780.17	4985.4	
780.34	5146.5	
780.52	5668.1	
780.69	5873.6	
780.87	4554	
781.05	4003.8	
781.22	5632.6	
781.4	5838.1	
781.58	4199	
781.75	3304.1	
781.93	5737	
782.11	5141.1	
782.28	5077.6	
782.46	4171	
782.64	4947.2	
782.81	5981.4	
782.99	4302.8	
783.17	4201.7	
783.34	5887.9	
783.52	5044.1	
783.69	4416.1	
783.87	5248.9	
784.05	5070.1	
784.22	5121.3	
784.4	5261.2	
784.58	4483.7	
784.75	6036.7	
784.93	5078.3	
785.1	4145.1	
785.28	4831.2	
785.46	5786.9	
785.63	5081.7	
785.81	4106.9	
785.99	3936.2	
786.16	5268.7	
786.34	5692.7	
786.51	4006.5	
786.69	4404.5	
786.87	4858.5	
787.04	5461.9	
787.22	3409.9	
787.39	4822.3	
787.57	5130.8	
787.75	6200.6	
787.92	5090.6	
788.1	4928.1	
788.27	5116.5	
788.45	4851.6	
788.63	4651.6	
788.8	3305.4	
788.98	5622.4	
789.15	4827.7	
789.33	3464.5	
789.5	4179.9	
789.68	6118.6	
789.86	6161.7	
790.03	4643.4	
790.21	4007.9	
790.38	6066.8	
790.56	5235.3	
790.73	3909.6	
790.91	3901.4	
791.09	5139	
791.26	5834	
791.44	4146.5	
791.61	3540.9	
791.79	5119.2	
791.96	5165	
792.14	3634.5	
792.32	3221.5	
792.49	5118.6	
792.67	5185.5	
792.84	3721.8	
793.02	3544.4	
793.19	5538.4	
793.37	6366.5	
793.54	3270.6	
793.72	3619.4	
793.89	6477	
794.07	5159.5	
794.25	4239.3	
794.42	3336.8	
794.6	6183.5	
794.77	5799.8	
794.95	4515.8	
795.12	3956.7	
795.3	5048.2	
795.47	5735.7	
795.65	4362.2	
795.82	4151.2	
796	4892.6	
796.17	6945.3	
796.35	4033.8	
796.52	4747.2	
796.7	5645.6	
796.87	5736.4	
797.05	5040.7	
797.22	4932.9	
797.4	5743.2	
797.57	6748.7	
797.75	4219.5	
797.92	3960.8	
798.1	6061.3	
798.27	5122.7	
798.45	3289	
798.62	3579.8	
798.8	5468.1	
798.97	5952.8	
799.15	4374.5	
799.32	4212	
799.5	4661.9	
799.67	5447.6	
799.85	4505.5	
800.02	3269.2	
800.2	5082.4	
800.37	5414.1	
800.55	4711.7	
800.72	3941.7	
800.9	5859.2	
801.07	6394.4	
801.25	5348.6	
801.42	4279.6	
801.6	5969.1	
801.77	5691.3	
801.95	3848.8	
802.12	3829	
802.29	5622.4	
802.47	5572.5	
802.64	4280.3	
802.82	3237.8	
802.99	5002.5	
803.17	6128.2	
803.34	4188.1	
803.52	3695.9	
803.69	6727.6	
803.87	4848.2	
804.04	4145.1	
804.21	4217.5	
804.39	6221.7	
804.56	5350.7	
804.74	3537.5	
804.91	4336.2	
805.09	5060.5	
805.26	5201.2	
805.44	3536.8	
805.61	3886.4	
805.78	5793	
805.96	5849.7	
806.13	4291.2	
806.31	4652.3	
806.48	4551.3	
806.66	5175.2	
806.83	4283.7	
807	4184.7	
807.18	5087.2	
807.35	5473.5	
807.53	4186.7	
807.7	3352.5	
807.87	6356.2	
808.05	5166.3	
808.22	4575.8	
808.4	3358.7	
808.57	5185.5	
808.74	4763.6	
808.92	3834.5	
809.09	4862.6	
809.27	5038.7	
809.44	5677	
809.61	3387.3	
809.79	3771	
809.96	6361.7	
810.14	5942.5	
810.31	3265.1	
810.48	4032.5	
810.66	5229.8	
810.83	6040.1	
811.01	3866.6	
811.18	4565.6	
811.35	5849	
811.53	4569.7	
811.7	4624.3	
811.87	4341	
812.05	5123.3	
812.22	5083.7	
812.39	3676.8	
812.57	3543	
812.74	5143.8	
812.92	6868.9	
813.09	4004.5	
813.26	4392.2	
813.44	6599.2	
813.61	5065.3	
813.78	3330.7	
813.96	4530.1	
814.13	5147.2	
814.3	4793.6	
814.48	4830.5	
814.65	4027.7	
814.82	6445.6	
815	4906.3	
815.17	4123.9	
815.34	5071.5	
815.52	5087.2	
815.69	5040.7	
815.87	4138.3	
816.04	3545.7	
816.21	5141.8	
816.38	4511	
816.56	4018.1	
816.73	3729.4	
816.9	6487.3	
817.08	5936.4	
817.25	3732.1	
817.42	4764.3	
817.6	4713.1	
817.77	5173.2	
817.94	4191.5	
818.12	3683.6	
818.29	4831.2	
818.46	7712	
818.64	3839.9	
818.81	3648.8	
818.98	4778.6	
819.16	7040.9	
819.33	4454.3	
819.5	4147.1	
819.67	5570.5	
819.85	6212.9	
820.02	4098	
820.19	4299.4	
820.37	5397.1	
820.54	4945.8	
820.71	4148.5	
820.88	5284.4	
821.06	5367.7	
821.23	4937	
821.4	4235.9	
821.58	4194.9	
821.75	5911.1	
821.92	5285.8	
822.09	3362.8	
822.27	3709.6	
822.44	5111.7	
822.61	5024.3	
822.79	3379.8	
822.96	6535.1	
823.13	5678.3	
823.3	4873.5	
823.48	3916.4	
823.65	3564.8	
823.82	5803.3	
823.99	4653.7	
824.17	5013.4	
824.34	3606.5	
824.51	6737.1	
824.68	5184.8	
824.86	3777.1	
825.03	4203.1	
825.2	5053	
825.37	6315.9	
825.55	3706.8	
825.72	4169	
825.89	6903	
826.06	6415.6	
826.24	4067.3	
826.41	4047.5	
826.58	6329.6	
826.75	5449.6	
826.92	3168.9	
827.1	3581.9	
827.27	8598.7	
827.44	6827.2	
827.61	3823.6	
827.79	4729.4	
827.96	4895.3	
828.13	5222.3	
828.3	4044.7	
828.47	3405.8	
828.65	5365.7	
828.82	5326.8	
828.99	5278.3	
829.16	4601.1	
829.34	5771.2	
829.51	5560.2	
829.68	4242	
829.85	4293.2	
830.02	6036	
830.2	5834	
830.37	3192.1	
830.54	5063.3	
830.71	6597.2	
830.88	5053.7	
831.05	3266.5	
831.23	3780.6	
831.4	6321.4	
831.57	7065.5	
831.74	3807.9	
831.91	3396.2	
832.09	5341.8	
832.26	5783.5	
832.43	3984	
832.6	4492.6	
832.77	5356.8	
832.94	6196.5	
833.12	3145	
833.29	3997	
833.46	5495.4	
833.63	7328.3	
833.8	4420.2	
833.97	4023.6	
834.15	5792.3	
834.32	5553.4	
834.49	4208.6	
834.66	4293.9	
834.83	5983.5	
835	4852.3	
835.17	3813.3	
835.35	3846.1	
835.52	5668.1	
835.69	5545.9	
835.86	4119.1	
836.03	3289	
836.2	5702.9	
836.37	5308.3	
836.55	4002.4	
836.72	3697.9	
836.89	5331.5	
837.06	5800.5	
837.23	4076.8	
837.4	4432.5	
837.57	6634.7	
837.75	7342.7	
837.92	3671.3	
838.09	3912.3	
838.26	5327.4	
838.43	6079.7	
838.6	4244.8	
838.77	3721.2	
838.94	6971.3	
839.11	6699.6	
839.29	4072	
839.46	3131.3	
839.63	5742.5	
839.8	5406	
839.97	3887	
840.14	3832.4	
840.31	5488.6	
840.48	5726.1	
840.65	3220.8	
840.82	3804.4	
841	5685.8	
841.17	5664.7	
841.34	3563.5	
841.51	3620.1	
841.68	5629.9	
841.85	5447.6	
842.02	3745.1	
842.19	3059	
842.36	5468.8	
842.53	5481.7	
842.7	3578.5	
842.87	4395.6	
843.05	7263.5	
843.22	5426.4	
843.39	3373.7	
843.56	3623.5	
843.73	5182.7	
843.9	5839.4	
844.07	5853.1	
844.24	4910.3	
844.41	8572.8	
844.58	4952	
844.75	3435.1	
844.92	3768.3	
845.09	5801.9	
845.26	5766.4	
845.43	3593.5	
845.6	3713	
845.77	5733.6	
845.94	5521.3	
846.12	3949.8	
846.29	4157.4	
846.46	5935	
846.63	5705	
846.8	3555.3	
846.97	4242	
847.14	6204.7	
847.31	5640.8	
847.48	4007.2	
847.65	4409.3	
847.82	6059.3	
847.99	6050.4	
848.16	4825.7	
848.33	4435.2	
848.5	5288.5	
848.67	6260	
848.84	3568.9	
849.01	3671.3	
849.18	5186.1	
849.35	4792.2	
849.52	4453	
849.69	3506.8	
849.86	5937.7	
850.03	6245.6	
850.2	3600.3	
850.37	4313	
850.54	6087.2	
850.71	5435.3	
850.88	4283	
851.05	3524.6	
851.22	5609.4	
851.39	6316.6	
851.56	3331.4	
851.73	4090.5	
851.9	5018.2	
852.07	5988.9	
852.24	3953.9	
852.41	3534.8	
852.58	5573.9	
852.75	5100.8	
852.92	4009.2	
853.09	3487	
853.26	5326.1	
853.43	6251.1	
853.6	3515	
853.77	2974.3	
853.94	6314.6	
854.11	5026.4	
854.28	5283.1	
854.44	3816	
854.61	6756.9	
854.78	5824.4	
854.95	3546.4	
855.12	4444.8	
855.29	4653	
855.46	6291.4	
855.63	3520.5	
855.8	4976.6	
855.97	5341.8	
856.14	6130.9	
856.31	5160.2	
856.48	3915	
856.65	5253.7	
856.82	5001.1	
856.99	3394.2	
857.16	3900.7	
857.33	6987	
857.49	5445.5	
857.66	3835.2	
857.83	4140.3	
858	5350	
858.17	5511.1	
858.34	3366.2	
858.51	3494.5	
858.68	6455.9	
858.85	6484.6	
859.02	4151.9	
859.19	4429.8	
859.36	4977.9	
859.52	5086.5	
859.69	3531.4	
859.86	4169	
860.03	5127.4	
860.2	6324.8	
860.37	3237.8	
860.54	3563.5	
860.71	6031.3	
860.88	6463.4	
861.05	4009.9	
861.21	4512.4	
861.38	6506.4	
861.55	4917.2	
861.72	3239.9	
861.89	4001	
862.06	5992.4	
862.23	6598.6	
862.4	3433.1	
862.56	3696.6	
862.73	5844.2	
862.9	5532.9	
863.07	4168.3	
863.24	3196.2	
863.41	4873.5	
863.58	5057.1	
863.75	3597.6	
863.91	4095.9	
864.08	6367.1	
864.25	5924.1	
864.42	4498.7	
864.59	5020.3	
864.76	6696.2	
864.93	5046.9	
865.09	3453.6	
865.26	3725.9	
865.43	6207.4	
865.6	6674.3	
865.77	3118.4	
865.94	3545.7	
866.1	6279.1	
866.27	6030.6	
866.44	5347.2	
866.61	3381.2	
866.78	5416.2	
866.95	5902.9	
867.11	3416	
867.28	3169.6	
867.45	6088.6	
867.62	5081.7	
867.79	4136.2	
867.96	3577.8	
868.12	5031.9	
868.29	6051.7	
868.46	3066.5	
868.63	4782	
868.8	6176	
868.97	5971.9	
869.13	3692.5	
869.3	3671.3	
869.47	5872.2	
869.64	6104.3	
869.81	3548.4	
869.97	3570.3	
870.14	5720	
870.31	6439.5	
870.48	3466.5	
870.65	4511.7	
870.81	5304.9	
870.98	5380.7	
871.15	3999.7	
871.32	3655.6	
871.48	5819	
871.65	6523.5	
871.82	3562.8	
871.99	3898	
872.16	6870.9	
872.32	6296.8	
872.49	3624.9	
872.66	3624.9	
872.83	6005.3	
872.99	5237.3	
873.16	4162.8	
873.33	3515.7	
873.5	5621	
873.67	5622.4	
873.83	3723.2	
874	4795	
874.17	5713.8	
874.34	6903.7	
874.5	4615.4	
874.67	4467.3	
874.84	6435.4	
875.01	5029.1	
875.17	5036	
875.34	3501.3	
875.51	5660.6	
875.68	6879.8	
875.84	4285.7	
876.01	5268.7	
876.18	5956.2	
876.34	5901.6	
876.51	3641.3	
876.68	3478.1	
876.85	5457.2	
877.01	6259.3	
877.18	5034.6	
877.35	3538.2	
877.52	5526.1	
877.68	4962.9	
877.85	3442	
878.02	3437.9	
878.18	5505.6	
878.35	5251.7	
878.52	2829.6	
878.69	3979.9	
878.85	5943.9	
879.02	5930.2	
879.19	5025.7	
879.35	3846.1	
879.52	5905	
879.69	6161.7	
879.86	3014.6	
880.02	4004.5	
880.19	5461.2	
880.36	6691.4	
880.52	4156	
880.69	4194.9	
880.86	6074.3	
881.02	6044.9	
881.19	3906.2	
881.36	3809.2	
881.52	5928.9	
881.69	5225.7	
881.86	3774.4	
882.02	3721.8	
882.19	6200.6	
882.36	7326.3	
882.52	3677.5	
882.69	5070.1	
882.86	5739.8	
883.02	5643.5	
883.19	4329.4	
883.36	4083.6	
883.52	6016.9	
883.69	6911.9	
883.86	3533.4	
884.02	3207.8	
884.19	6038.8	
884.36	5564.3	
884.52	4047.5	
884.69	3816	
884.86	5256.5	
885.02	6645	
885.19	3980.6	
885.36	4124.6	
885.52	5504.9	
885.69	5679.7	
885.86	5115.8	
886.02	4624.3	
886.19	6050.4	
886.35	5369.8	
886.52	3911.6	
886.69	4992.9	
886.85	5142.4	
887.02	6400.6	
887.19	6400.6	
887.35	6400.6	
887.52	6400.6	
887.68	6400.6	
887.85	6400.6	
888.02	6400.6	
888.18	6400.6	
888.35	6400.6	
888.51	6400.6	
888.68	6400.6	
888.85	6400.6	
889.01	6400.6	
889.18	6400.6	
889.35	6400.6	
889.51	6400.6	
889.68	6400.6	
889.84	6400.6	
890.01	6400.6	
890.17	6400.6	
890.34	6400.6	
890.51	6400.6	
890.67	6400.6	
890.84	6400.6	
891	6400.6	
891.17	6400.6	
891.34	6400.6	
891.5	6400.6	
891.67	6400.6	
891.83	6400.6	
892	6400.6	
892.16	6400.6	
892.33	6400.6	
892.5	6400.6	
892.66	6400.6	
892.83	6400.6	
892.99	6400.6	
893.16	6400.6	
893.32	6400.6	
893.49	6400.6	
893.65	6400.6	
893.82	6400.6	
893.99	6400.6	
894.15	6400.6	
894.32	6400.6	
894.48	6400.6	
894.65	6400.6	
894.81	6400.6	
894.98	6400.6	
895.14	6400.6	
895.31	6400.6	
895.47	6400.6	
895.64	6400.6	
895.81	6400.6	
895.97	6400.6	
896.14	6400.6	
896.3	6400.6	
896.47	6400.6	
896.63	6400.6	
896.8	6400.6	
896.96	6400.6	
897.13	6400.6	
897.29	6400.6	
897.46	6400.6	
897.62	6400.6	
897.79	6400.6	
897.95	6400.6	
898.12	6400.6	
898.28	6400.6	
898.45	6400.6	
898.61	6400.6	
898.78	6400.6	
898.94	6400.6	
899.11	6400.6	
899.27	6400.6	
899.44	6400.6	
899.6	6400.6	
899.77	6400.6	
899.93	6400.6	
900.1	6400.6	
900.26	6400.6	
900.43	6400.6	
900.59	6400.6	
900.76	6400.6	
900.92	6400.6	
901.09	6400.6	
901.25	6400.6	
901.42	6400.6	
901.58	6400.6	
901.75	6400.6	
901.91	6400.6	
902.07	6400.6	
902.24	6400.6	
902.4	6400.6	
902.57	6400.6	
902.73	6400.6	
902.9	6400.6	
903.06	6400.6	
903.23	6400.6	
903.39	6400.6	
903.56	6400.6	
903.72	6400.6	
903.88	6400.6	
904.05	6400.6	
904.21	6400.6	
904.38	6400.6	
904.54	6400.6	
904.71	6400.6	
904.87	6400.6	
905.03	6400.6	
905.2	6400.6	
905.36	6400.6	
905.53	6400.6	
905.69	6400.6	
905.86	6400.6	
906.02	6400.6	
906.18	6400.6	
906.35	6400.6	
906.51	6400.6	
906.68	6400.6	
906.84	6400.6	
907.01	6400.6	
907.17	6400.6	
907.33	6400.6	
907.5	6400.6	
907.66	6400.6	
907.83	6400.6	
907.99	6400.6	
908.15	6400.6	
908.32	6400.6	
908.48	6400.6	
908.65	6400.6	
908.81	6400.6	
908.97	6400.6	
909.14	6400.6	
909.3	6400.6	
909.47	6400.6	
909.63	6400.6	
909.79	6400.6	
909.96	6400.6	
910.12	6400.6	
910.28	6400.6	
910.45	6400.6	
910.61	6400.6	
910.78	6400.6	
910.94	6400.6	
911.1	6400.6	
911.27	6400.6	
911.43	6400.6	
911.59	6400.6	
911.76	6400.6	
911.92	6400.6	
912.08	6400.6	
912.25	6400.6	
912.41	6400.6	
912.57	6400.6	
912.74	6400.6	
912.9	6400.6	
913.07	6400.6	
913.23	6400.6	
913.39	6400.6	
913.56	6400.6	
913.72	6400.6	
913.88	6400.6	
914.05	6400.6	
914.21	6400.6	
914.37	6400.6	
914.54	6400.6	
914.7	6400.6	
914.86	6400.6	
915.03	6400.6	
915.19	6400.6	
