Wavelength	Intensities	
nm	a.u.	
179.22	1918.8	
179.44	1915.9	
179.65	1921.7	
179.86	1910.1	
180.08	1912.1	
180.29	4922.6	
180.51	3466.5	
180.72	5644.9	
180.94	6608.1	
181.15	3239.9	
181.37	3195.5	
181.58	5491.3	
181.79	5794.4	
182.01	3370.3	
182.22	3611.3	
182.44	5722.7	
182.65	4843.4	
182.87	4552	
183.08	3986.7	
183.29	6141.9	
183.51	5045.5	
183.72	3694.5	
183.94	5368.4	
184.15	5388.9	
184.37	5467.4	
184.58	3252.2	
184.79	4433.9	
185.01	5055.8	
185.22	5950	
185.44	4640.7	
185.65	3973.7	
185.86	5324	
186.08	4972.5	
186.29	3160	
186.51	3416.7	
186.72	5138.4	
186.94	5957.5	
187.15	3885.7	
187.36	4046.1	
187.58	7793.2	
187.79	5557.5	
188.01	4284.4	
188.22	6532.3	
188.43	6709.1	
188.65	5755.5	
188.86	3448.1	
189.08	4076.8	
189.29	5259.2	
189.5	5250.3	
189.72	3794.9	
189.93	3803.1	
190.15	5984.2	
190.36	7159.7	
190.57	4143	
190.79	4017.4	
191	6119.3	
191.22	5999.2	
191.43	4186.7	
191.64	3339.6	
191.86	6234	
192.07	6064	
192.29	3555.3	
192.5	3773	
192.71	6105.7	
192.93	5173.9	
193.14	3753.2	
193.35	3865.9	
193.57	5207.3	
193.78	5963.7	
194	3024.8	
194.21	3751.2	
194.42	4976.6	
194.64	5423	
194.85	4081.6	
195.07	4819.6	
195.28	5534.3	
195.49	4743.1	
195.71	5029.1	
195.92	3426.9	
196.13	5673.6	
196.35	5750	
196.56	5274.9	
196.78	4006.5	
196.99	7072.3	
197.2	6606.7	
197.42	4601.1	
197.63	4106.9	
197.84	4903.5	
198.06	5604.6	
198.27	3806.5	
198.48	5024.3	
198.7	5199.1	
198.91	5340.4	
199.13	4097.3	
199.34	4126.7	
199.55	5841.5	
199.77	4802.5	
199.98	3603.1	
200.19	4179.9	
200.41	5261.2	
200.62	5104.2	
200.83	4256.4	
201.05	4554	
201.26	5354.8	
201.47	5089.9	
201.69	3593.5	
201.9	3489.1	
202.11	5425.8	
202.33	6367.1	
202.54	3909.6	
202.76	4337.6	
202.97	5591.6	
203.18	5588.2	
203.4	4214.7	
203.61	4200.4	
203.82	5516.5	
204.04	5143.8	
204.25	4167.6	
204.46	4070.7	
204.68	5503.6	
204.89	5648.3	
205.1	3981.9	
205.32	3459	
205.53	5939.1	
205.74	5995.8	
205.96	2990.7	
206.17	4214.7	
206.38	5797.8	
206.6	5942.5	
206.81	4706.2	
207.02	3818.1	
207.24	5728.2	
207.45	6122.7	
207.66	3899.3	
207.88	3357.3	
208.09	5672.9	
208.3	5495.4	
208.52	3608.5	
208.73	3992.9	
208.94	5449	
209.15	6099.5	
209.37	3928	
209.58	4104.8	
209.79	6000.5	
210.01	5298.1	
210.22	3141.6	
210.43	3278.8	
210.65	5431.2	
210.86	5843.5	
211.07	3941.7	
211.29	3590.1	
211.5	5814.2	
211.71	5348.6	
211.93	3577.8	
212.14	3538.9	
212.35	5423.7	
212.56	5611.4	
212.78	4181.3	
212.99	3373.7	
213.2	6396.5	
213.42	5216.9	
213.63	3727.3	
213.84	3997	
214.06	4821.6	
214.27	4949.3	
214.48	3919.1	
214.69	4194.2	
214.91	6124.8	
215.12	6215.6	
215.33	4231.1	
215.55	4622.9	
215.76	6714.6	
215.97	5829.9	
216.18	4029.7	
216.4	3922.5	
216.61	5124.7	
216.82	5934.3	
217.04	3563.5	
217.25	3728.7	
217.46	6134.3	
217.67	5864	
217.89	3244.7	
218.1	3364.1	
218.31	5485.1	
218.53	5618.9	
218.74	3760.1	
218.95	3675.4	
219.16	5398.4	
219.38	6354.2	
219.59	3649.5	
219.8	4381.3	
220.01	7077.1	
220.23	5528.2	
220.44	4810	
220.65	3600.3	
220.87	5521.3	
221.08	6063.4	
221.29	3336.1	
221.5	4468	
221.72	7486	
221.93	5113.8	
222.14	4182	
222.35	4887.8	
222.57	5451.7	
222.78	5811.5	
222.99	3851.5	
223.2	4250.2	
223.42	5796.4	
223.63	5932.3	
223.84	2988.7	
224.05	3063.8	
224.27	6952.2	
224.48	6347.3	
224.69	4779.3	
224.9	4118.5	
225.12	5645.6	
225.33	5461.2	
225.54	3331.4	
225.75	3695.9	
225.97	5004.6	
226.18	5283.8	
226.39	3953.9	
226.6	3719.8	
226.82	5209.3	
227.03	5051.7	
227.24	4121.9	
227.45	3401	
227.67	5880.4	
227.88	6382.2	
228.09	4599.7	
228.3	4628.4	
228.52	5898.2	
228.73	5432.6	
228.94	3837.2	
229.15	3416	
229.36	5350	
229.58	5274.2	
229.79	3871.3	
230	4427.7	
230.21	6438.1	
230.43	5610.1	
230.64	4026.3	
230.85	4206.5	
231.06	5846.3	
231.28	5878.4	
231.49	3366.9	
231.7	3992.9	
231.91	5785.5	
232.12	5473.5	
232.34	3476.8	
232.55	3962.1	
232.76	6094.1	
232.97	5638.1	
233.18	3568.2	
233.4	4094.6	
233.61	5648.3	
233.82	5193	
234.03	3743.7	
234.25	3723.2	
234.46	7662.8	
234.67	5522	
234.88	4196.3	
235.09	3646.7	
235.31	5751.4	
235.52	5363.6	
235.73	4085.7	
235.94	3460.4	
236.15	5180.7	
236.37	6593.8	
236.58	3609.9	
236.79	3976.5	
237	5727.5	
237.21	4995	
237.43	4227	
237.64	3335.5	
237.85	9852.8	
238.06	5043.5	
238.27	4281.6	
238.48	3418.7	
238.7	5802.6	
238.91	5304.2	
239.12	3917.1	
239.33	3936.9	
239.54	5079.6	
239.76	5330.2	
239.97	3910.9	
240.18	3927.3	
240.39	6812.2	
240.6	5752.7	
240.82	4076.1	
241.03	3323.9	
241.24	5489.9	
241.45	6311.8	
241.66	3571	
241.87	4277.5	
242.09	6191	
242.3	6537.8	
242.51	4377.2	
242.72	3975.1	
242.93	5915.9	
243.14	5406.6	
243.36	4596.3	
243.57	4863.9	
243.78	6361	
243.99	5711.8	
244.2	4013.3	
244.41	3599.6	
244.63	4998.4	
244.84	5737	
245.05	4207.2	
245.26	3895.2	
245.47	5778.7	
245.68	6008.1	
245.9	5263.3	
246.11	4177.2	
246.32	5233.9	
246.53	5696.8	
246.74	6434.7	
246.95	3326.6	
247.16	4951.3	
247.38	5494	
247.59	3267.9	
247.8	3991.5	
248.01	5196.4	
248.22	5413.5	
248.43	3582.6	
248.64	3840.6	
248.86	4846.9	
249.07	5229.8	
249.28	3467.9	
249.49	4078.2	
249.7	6022.4	
249.91	6181.5	
250.12	3267.2	
250.34	3333.4	
250.55	5525.4	
250.76	5469.4	
250.97	4120.5	
251.18	4141	
251.39	6133.7	
251.6	5655.8	
251.81	4207.9	
252.03	4146.5	
252.24	5272.8	
252.45	5898.8	
252.66	3467.9	
252.87	4368.3	
253.08	5511.8	
253.29	7221.1	
253.5	3467.2	
253.72	4754.7	
253.93	5357.5	
254.14	6412.2	
254.35	3776.5	
254.56	3919.8	
254.77	5674.9	
254.98	5052.3	
255.19	3696.6	
255.41	4713.1	
255.62	5504.3	
255.83	6092	
256.04	4215.4	
256.25	4127.3	
256.46	6693.4	
256.67	5097.4	
256.88	4093.2	
257.09	4516.5	
257.31	5124.7	
257.52	5133.6	
257.73	5131.5	
257.94	3714.3	
258.15	5297.4	
258.36	5472.2	
258.57	4689.2	
258.78	2986.6	
258.99	5945.3	
259.2	5336.3	
259.41	3797.6	
259.63	3882.9	
259.84	6337.1	
260.05	6749.4	
260.26	4930.8	
260.47	3689.1	
260.68	6015.6	
260.89	5408	
261.1	4539.7	
261.31	3624.9	
261.52	6027.2	
261.73	6434.7	
261.95	4795	
262.16	4261.8	
262.37	6173.3	
262.58	6302.3	
262.79	4839.4	
263	3824.9	
263.21	5530.9	
263.42	4962.9	
263.63	3902.7	
263.84	3870.7	
264.05	6042.9	
264.26	6426.5	
264.47	4743.1	
264.69	4246.8	
264.9	6198.5	
265.11	5706.3	
265.32	3680.9	
265.53	3710.9	
265.74	5524.1	
265.95	4883.7	
266.16	4039.3	
266.37	4394.9	
266.58	5627.1	
266.79	5274.2	
267	3725.9	
267.21	3460.4	
267.42	5010	
267.63	5460.6	
267.84	3917.1	
268.06	3379.8	
268.27	5797.1	
268.48	6221	
268.69	3839.9	
268.9	4557.4	
269.11	6188.3	
269.32	4989.5	
269.53	3941	
269.74	3649.5	
269.95	5782.1	
270.16	4836.6	
270.37	3978.5	
270.58	4518.5	
270.79	5324	
271	6017.6	
271.21	4209.9	
271.42	3990.1	
271.63	5601.9	
271.84	5167.7	
272.05	3164.1	
272.26	3555.3	
272.47	5526.8	
272.68	5668.1	
272.89	3831.7	
273.11	4358.1	
273.32	5332.2	
273.53	6480.5	
273.74	4314.4	
273.95	4182.6	
274.16	6158.2	
274.37	5534.3	
274.58	4345.1	
274.79	3503.4	
275	5614.2	
275.21	6244.3	
275.42	5142.4	
275.63	4414.1	
275.84	5715.2	
276.05	7162.4	
276.26	4175.8	
276.47	3891.8	
276.68	5369.1	
276.89	6572.6	
277.1	4459.8	
277.31	3499.3	
277.52	5730.9	
277.73	5913.2	
277.94	3398.9	
278.15	3814.7	
278.36	5662	
278.57	5098.1	
278.78	3725.3	
278.99	4294.6	
279.2	5024.3	
279.41	5096.7	
279.62	4996.4	
279.83	3489.7	
280.04	6656.6	
280.25	5096.7	
280.46	4955.4	
280.67	3956.7	
280.88	5094	
281.09	6146.6	
281.3	4177.9	
281.51	5218.2	
281.72	6010.1	
281.93	5985.5	
282.14	3723.9	
282.35	3979.9	
282.56	5997.1	
282.77	5895.4	
282.98	3779.9	
283.19	4645.5	
283.4	7302.4	
283.61	5388.9	
283.82	3536.2	
284.03	4827.7	
284.24	5541.8	
284.45	6146.6	
284.66	4907.6	
284.87	4689.2	
285.08	6077	
285.29	6208.1	
285.5	3394.2	
285.71	3876.1	
285.92	6040.1	
286.12	6758.3	
286.33	4853	
286.54	3779.9	
286.75	5973.9	
286.96	5362.9	
287.17	3545.7	
287.38	4739	
287.59	5171.8	
287.8	5012.1	
288.01	3872.7	
288.22	4511	
288.43	6000.5	
288.64	5004.6	
288.85	4582	
289.06	4332.8	
289.27	5928.9	
289.48	6431.3	
289.69	4887.8	
289.9	4479.6	
290.11	6146	
290.32	5186.8	
290.53	4687.1	
290.74	4334.9	
290.94	5897.5	
291.15	6016.9	
291.36	3803.1	
291.57	4426.3	
291.78	5201.2	
291.99	4882.4	
292.2	3565.5	
292.41	4341.7	
292.62	6032	
292.83	5825.8	
293.04	5338.4	
293.25	3596.9	
293.46	5311.7	
293.67	6089.3	
293.88	3721.2	
294.09	3543	
294.29	5030.5	
294.5	5600.5	
294.71	4002.4	
294.92	3750.5	
295.13	5248.9	
295.34	6578.8	
295.55	3355.3	
295.76	3480.2	
295.97	5879	
296.18	6634.7	
296.39	3520.5	
296.6	3744.4	
296.81	5611.4	
297.01	5925.5	
297.22	3857.7	
297.43	3692.5	
297.64	5171.1	
297.85	5121.3	
298.06	3086.3	
298.27	3312.9	
298.48	5578	
298.69	5197.1	
298.9	4044.7	
299.11	3635.8	
299.31	5011.4	
299.52	5023	
299.73	4274.8	
299.94	4153.3	
300.15	5467.4	
300.36	5120.6	
300.57	4230.4	
300.78	4205.8	
300.99	5309.7	
301.2	5614.8	
301.4	3695.2	
301.61	4017.4	
301.82	5766.4	
302.03	5945.9	
302.24	4491.2	
302.45	3502	
302.66	5838.8	
302.87	6277.7	
303.08	3728.7	
303.29	5019.6	
303.49	5212.8	
303.7	5513.8	
303.91	3293.8	
304.12	4760.8	
304.33	5055.8	
304.54	5575.3	
304.75	3750.5	
304.96	3588	
305.16	5799.2	
305.37	6574.7	
305.58	3270.6	
305.79	3388	
306	5823.1	
306.21	4993.6	
306.42	3739.6	
306.63	5616.9	
306.83	5317.2	
307.04	6110.5	
307.25	4113.7	
307.46	4071.4	
307.67	4730.1	
307.88	5947.3	
308.09	3649.5	
308.29	3843.4	
308.5	5620.3	
308.71	6051.1	
308.92	4025.6	
309.13	3530.7	
309.34	5337	
309.55	5426.4	
309.75	4631.1	
309.96	4216.1	
310.17	5913.2	
310.38	5177.3	
310.59	4453	
310.8	3484.3	
311.01	6158.2	
311.21	5351.3	
311.42	3551.2	
311.63	3644.7	
311.84	5242.8	
312.05	5669.5	
312.26	4166.3	
312.46	4566.3	
312.67	5304.2	
312.88	5018.2	
313.09	3597.6	
313.3	3535.5	
313.51	6279.8	
313.71	6664.8	
313.92	3589.4	
314.13	3765.5	
314.34	5665.4	
314.55	5418.2	
314.76	4631.8	
314.96	4022.2	
315.17	5564.3	
315.38	5945.3	
315.59	3618.8	
315.8	3431	
316.01	6415.6	
316.21	6444.3	
316.42	3512.9	
316.63	3952.6	
316.84	5367.7	
317.05	6242.2	
317.26	4231.1	
317.46	3790.1	
317.67	5437.4	
317.88	5834.7	
318.09	4589.5	
318.3	3345.7	
318.5	5185.5	
318.71	5825.8	
318.92	5812.1	
319.13	4242.7	
319.34	5984.2	
319.54	6147.3	
319.75	3389.4	
319.96	3263.8	
320.17	5810.1	
320.38	6077	
320.58	3291.1	
320.79	3947.8	
321	6034	
321.21	6193.7	
321.42	3940.3	
321.62	3326.6	
321.83	5085.8	
322.04	5449.6	
322.25	3816	
322.46	3591.5	
322.66	5565	
322.87	5731.6	
323.08	4489.8	
323.29	3580.5	
323.5	6604.7	
323.7	5040.1	
323.91	4887.8	
324.12	4422.2	
324.33	5580	
324.53	5838.8	
324.74	4229.7	
324.95	4476.9	
325.16	4918.5	
325.37	5368.4	
325.57	3589.4	
325.78	3750.5	
325.99	5547.3	
326.2	5003.2	
326.4	5260.5	
326.61	3370.3	
326.82	5452.4	
327.03	5640.1	
327.24	5109	
327.44	4837.3	
327.65	5794.4	
327.86	4703.5	
328.07	4237.2	
328.27	3431.7	
328.48	6130.3	
328.69	5058.5	
328.9	5147.9	
329.1	3884.3	
329.31	5332.2	
329.52	6317.3	
329.73	3584.6	
329.93	4138.9	
330.14	5544.5	
330.35	5805.3	
330.56	5898.8	
330.76	4468.7	
330.97	5297.4	
331.18	5655.8	
331.39	4037.9	
331.59	3278.1	
331.8	6127.5	
332.01	6243.6	
332.22	3712.3	
332.42	4242.7	
332.63	5613.5	
332.84	5193	
333.05	4013.3	
333.25	3650.2	
333.46	5264	
333.67	5554.8	
333.88	3766.2	
334.08	4267.3	
334.29	7351.5	
334.5	6214.9	
334.7	3525.2	
334.91	5103.5	
335.12	5087.8	
335.33	5931.6	
335.53	4003.1	
335.74	5879.7	
335.95	5326.1	
336.16	5125.4	
336.36	3971.7	
336.57	4616.1	
336.78	5036	
336.98	6105	
337.19	4908.3	
337.4	3988.8	
337.61	6666.8	
337.81	5049.6	
338.02	3679.5	
338.23	4782	
338.43	6320.7	
338.64	5156.1	
338.85	3650.2	
339.05	4806.6	
339.26	6386.9	
339.47	4903.5	
339.68	3668.6	
339.88	5349.3	
340.09	5760.3	
340.3	5954.8	
340.5	4209.3	
340.71	3252.9	
340.92	4963.6	
341.13	6240.2	
341.33	3487.7	
341.54	4289.8	
341.75	5732.9	
341.95	5431.2	
342.16	4127.3	
342.37	4478.9	
342.57	5200.5	
342.78	5490.6	
342.99	4534.9	
343.19	3243.3	
343.4	5939.8	
343.61	5782.1	
343.81	3876.8	
344.02	3592.1	
344.23	5886.5	
344.43	6355.5	
344.64	4536.9	
344.85	4360.1	
345.06	5796.4	
345.26	6146.6	
345.47	4229.1	
345.68	4919.2	
345.88	4904.9	
346.09	6017.6	
346.3	4333.5	
346.5	3284.9	
346.71	5564.3	
346.92	5253.7	
347.12	3310.2	
347.33	4218.1	
347.54	6090.7	
347.74	6551.5	
347.95	4192.2	
348.16	3148.4	
348.36	5335	
348.57	5050.3	
348.78	4143.7	
348.98	4508.3	
349.19	5526.1	
349.39	5001.8	
349.6	3396.2	
349.81	3746.4	
350.01	5801.9	
350.22	5274.2	
350.43	4069.3	
350.63	4889.9	
350.84	5606	
351.05	5348.6	
351.25	3756.7	
351.46	3401.7	
351.67	6094.1	
351.87	5272.2	
352.08	3996.3	
352.29	4480.3	
352.49	6067.4	
352.7	6205.3	
352.9	3632.4	
353.11	4508.3	
353.32	6712.6	
353.52	5406	
353.73	3597.6	
353.94	4554.7	
354.14	5920.7	
354.35	5797.1	
354.55	3747.1	
354.76	4120.5	
354.97	5935	
355.17	5696.1	
355.38	3579.2	
355.59	4856.4	
355.79	5337.7	
356	5754.8	
356.2	4159.4	
356.41	3642	
356.62	5098.8	
356.82	5579.3	
357.03	4469.4	
357.24	3997.6	
357.44	5345.9	
357.65	5506.3	
357.85	5304.9	
358.06	4261.1	
358.27	5184.8	
358.47	5406	
358.68	3586	
358.88	4495.3	
359.09	6006.7	
359.3	6421.1	
359.5	5233.2	
359.71	4705.5	
359.91	6956.3	
360.12	6233.3	
360.33	4497.3	
360.53	5072.8	
360.74	5514.5	
360.94	5577.3	
361.15	4856.4	
361.36	3967.6	
361.56	6378.7	
361.77	5767.8	
361.97	5342.5	
362.18	4246.8	
362.38	6430.6	
362.59	5467.4	
362.8	4017.4	
363	3883.6	
363.21	5343.2	
363.41	5994.4	
363.62	4576.5	
363.83	5681.7	
364.03	6090	
364.24	7137.9	
364.44	5739.8	
364.65	5685.8	
364.85	5978	
365.06	5507.7	
365.27	4270.7	
365.47	4321.2	
365.68	6966.5	
365.88	5895.4	
366.09	4744.5	
366.29	4457.1	
366.5	6274.3	
366.71	6599.2	
366.91	5765	
367.12	4960.2	
367.32	7323.5	
367.53	6538.5	
367.73	4944.5	
367.94	5869.5	
368.14	6434.7	
368.35	7414.3	
368.56	4947.9	
368.76	4276.8	
368.97	6597.9	
369.17	8370.7	
369.38	4376.5	
369.58	4663.9	
369.79	5664.7	
369.99	6939.2	
370.2	5737	
370.4	4788.8	
370.61	6340.5	
370.82	7591.8	
371.02	4765.6	
371.23	4033.8	
371.43	5603.2	
371.64	6952.2	
371.84	4856.4	
372.05	6042.9	
372.25	8393.3	
372.46	6800.6	
372.66	4902.8	
372.87	4897.4	
373.07	6826.6	
373.28	8558.5	
373.48	5987.6	
373.69	5751.4	
373.9	6402	
374.1	6518.7	
374.31	6009.4	
374.51	5561.6	
374.72	7378.8	
374.92	6226.5	
375.13	6373.3	
375.33	5406	
375.54	7063.4	
375.74	6524.8	
375.95	5615.5	
376.15	6937.2	
376.36	7219.1	
376.56	7021.1	
376.77	5795.1	
376.97	6225.1	
377.18	8338.6	
377.38	7406.1	
377.59	6634.1	
377.79	5481.7	
378	7305.1	
378.2	7746.1	
378.41	5628.5	
378.61	5541.1	
378.82	7775.5	
379.02	7007.5	
379.23	5795.1	
379.43	6939.9	
379.64	7879.2	
379.84	7583.6	
380.05	5607.3	
380.25	5560.9	
380.46	7681.9	
380.66	7299.6	
380.87	6916.7	
381.07	7359.7	
381.28	8332.5	
381.48	7702.4	
381.69	5634.6	
381.89	5668.1	
382.1	6576.7	
382.3	7798.7	
382.51	6793.1	
382.71	7667.6	
382.91	7660.1	
383.12	8078.6	
383.32	6031.3	
383.53	6125.5	
383.73	7447.1	
383.94	7245	
384.14	6051.1	
384.35	5196.4	
384.55	7197.9	
384.76	7626	
384.96	5895.4	
385.17	6204.7	
385.37	7615.7	
385.58	6818.4	
385.78	6170.5	
385.98	5058.5	
386.19	6940.6	
386.39	7383.6	
386.6	5687.9	
386.8	5914.5	
387.01	7699	
387.21	7667.6	
387.42	6384.2	
387.62	7045	
387.83	7007.5	
388.03	7763.2	
388.23	6271.6	
388.44	7049.1	
388.64	6851.1	
388.85	7131	
389.05	6655.9	
389.26	7465.5	
389.46	9056.1	
389.67	8580.3	
389.87	6864.1	
390.07	6908.5	
390.28	7838.9	
390.48	7344.7	
390.69	6196.5	
390.89	6406	
391.1	7479.2	
391.3	8511.4	
391.5	7637.6	
391.71	8202.8	
391.91	8273.1	
392.12	9401.5	
392.32	7789.8	
392.53	6894.1	
392.73	7707.2	
392.93	7877.2	
393.14	6655.9	
393.34	7361.1	
393.55	8230.8	
393.75	7754.3	
393.95	6527.6	
394.16	6370.5	
394.36	7480.5	
394.57	8159.8	
394.77	6098.9	
394.98	6385.6	
395.18	7583.6	
395.38	7821.9	
395.59	7604.8	
395.79	6664.8	
396	8030.1	
396.2	8582.4	
396.4	7652.6	
396.61	7620.5	
396.81	8959.2	
397.02	8279.9	
397.22	8130.4	
397.42	8053.3	
397.63	9066.4	
397.83	8403.5	
398.04	6974.7	
398.24	7693.5	
398.44	8898.4	
398.65	8051.9	
398.85	6932.4	
399.05	7115.3	
399.26	8497.7	
399.46	10296	
399.67	7680.6	
399.87	7410.2	
400.07	9052.7	
400.28	9406.3	
400.48	7670.3	
400.69	8766.7	
400.89	9827.5	
401.09	10171	
401.3	7673.7	
401.5	8841.8	
401.7	10785	
401.91	10826	
402.11	8110.6	
402.32	8353.7	
402.52	9966.8	
402.72	9785.2	
402.93	8534.6	
403.13	7106.5	
403.33	10518	
403.54	8791.2	
403.74	7792.5	
403.94	8525.7	
404.15	8705.9	
404.35	9962.7	
404.56	7403.4	
404.76	9321.7	
404.96	9364.7	
405.17	9177.6	
405.37	8874.5	
405.57	8273.8	
405.78	9936.1	
405.98	9089.6	
406.18	8013	
406.39	9005.6	
406.59	9923.8	
406.79	9480.7	
407	7604.1	
407.2	7690.8	
407.4	9792.7	
407.61	10062	
407.81	7991.2	
408.01	10142	
408.22	9186.5	
408.42	11398	
408.62	9714.9	
408.83	9542.2	
409.03	10626	
409.23	10671	
409.44	9960	
409.64	10415	
409.84	12216	
410.05	12389	
410.25	10690	
410.45	10467	
410.66	12308	
410.86	14691	
411.06	11721	
411.27	11342	
411.47	14977	
411.67	12889	
411.88	11613	
412.08	12448	
412.28	13794	
412.49	14275	
412.69	11971	
412.89	12290	
413.09	14281	
413.3	14218	
413.5	12547	
413.7	12136	
413.91	13482	
414.11	14622	
414.31	12480	
414.52	13319	
414.72	14321	
414.92	14601	
415.12	12611	
415.33	13392	
415.53	15091	
415.73	15387	
415.94	13587	
416.14	13177	
416.34	14222	
416.55	13777	
416.75	14526	
416.95	14061	
417.15	15588	
417.36	16011	
417.56	15201	
417.76	14346	
417.97	16146	
418.17	15933	
418.37	13839	
418.57	14227	
418.78	15756	
418.98	15277	
419.18	15127	
419.38	14781	
419.59	15363	
419.79	14702	
419.99	13896	
420.2	14222	
420.4	15786	
420.6	15947	
420.8	13892	
421.01	13755	
421.21	16003	
421.41	16165	
421.61	14341	
421.82	14193	
422.02	15539	
422.22	16184	
422.42	15077	
422.63	13990	
422.83	15569	
423.03	16855	
423.23	14332	
423.44	13514	
423.64	15538	
423.84	14962	
424.04	13813	
424.25	13607	
424.45	16166	
424.65	16206	
424.85	13143	
425.06	13842	
425.26	16251	
425.46	14992	
425.66	14115	
425.87	13958	
426.07	15993	
426.27	15866	
426.47	14126	
426.67	13379	
426.88	16180	
427.08	15685	
427.28	14695	
427.48	13225	
427.69	14474	
427.89	15237	
428.09	14439	
428.29	13503	
428.5	16070	
428.7	15543	
428.9	13615	
429.1	13850	
429.3	15571	
429.51	16224	
429.71	13644	
429.91	14942	
430.11	16303	
430.31	16756	
430.52	14470	
430.72	15049	
430.92	17091	
431.12	16632	
431.32	14583	
431.53	14632	
431.73	15575	
431.93	17216	
432.13	14328	
432.33	14467	
432.54	16067	
432.74	16703	
432.94	14646	
433.14	15428	
433.34	16864	
433.55	16987	
433.75	15657	
433.95	18043	
434.15	16999	
434.35	16981	
434.56	15028	
434.76	15180	
434.96	17290	
435.16	17964	
435.36	15350	
435.56	16926	
435.77	17448	
435.97	17651	
436.17	17856	
436.37	17154	
436.57	17656	
436.78	17924	
436.98	18270	
437.18	17565	
437.38	18925	
437.58	17854	
437.78	17680	
437.99	16156	
438.19	18009	
438.39	19010	
438.59	16187	
438.79	15232	
438.99	18467	
439.2	17301	
439.4	15118	
439.6	15464	
439.8	17987	
440	19220	
440.2	17235	
440.4	17302	
440.61	19155	
440.81	19833	
441.01	17258	
441.21	18602	
441.41	20842	
441.61	19935	
441.81	19174	
442.02	20104	
442.22	21026	
442.42	20160	
442.62	17949	
442.82	17636	
443.02	20824	
443.22	20221	
443.43	18717	
443.63	18091	
443.83	19631	
444.03	19836	
444.23	20050	
444.43	19418	
444.63	20890	
444.83	21862	
445.04	18960	
445.24	20371	
445.44	20762	
445.64	21089	
445.84	19080	
446.04	19342	
446.24	19803	
446.44	20825	
446.65	17791	
446.85	18865	
447.05	19252	
447.25	20700	
447.45	18590	
447.65	17952	
447.85	19933	
448.05	19258	
448.25	19237	
448.46	19085	
448.66	20340	
448.86	19639	
449.06	18219	
449.26	19383	
449.46	20975	
449.66	19652	
449.86	19501	
450.06	19199	
450.26	20304	
450.47	21085	
450.67	19254	
450.87	19958	
451.07	21031	
451.27	21071	
451.47	18802	
451.67	20018	
451.87	20989	
452.07	21509	
452.27	19798	
452.47	19254	
452.67	20978	
452.88	21904	
453.08	18443	
453.28	21033	
453.48	22927	
453.68	20790	
453.88	19891	
454.08	19744	
454.28	22077	
454.48	21680	
454.68	20540	
454.88	20993	
455.08	22074	
455.28	22877	
455.48	19569	
455.68	21089	
455.89	23466	
456.09	23340	
456.29	20711	
456.49	21545	
456.69	23903	
456.89	22662	
457.09	22065	
457.29	22872	
457.49	23629	
457.69	24200	
457.89	22827	
458.09	21885	
458.29	24126	
458.49	25122	
458.69	23414	
458.89	23111	
459.09	25914	
459.29	25882	
459.49	23114	
459.69	24118	
459.9	24990	
460.1	25394	
460.3	22540	
460.5	22849	
460.7	25456	
460.9	25152	
461.1	22868	
461.3	24625	
461.5	26807	
461.7	26394	
461.9	24612	
462.1	24385	
462.3	26499	
462.5	27174	
462.7	24753	
462.9	25283	
463.1	28525	
463.3	28741	
463.5	25691	
463.7	27816	
463.9	28015	
464.1	28391	
464.3	27449	
464.5	26881	
464.7	29260	
464.9	29870	
465.1	28975	
465.3	27960	
465.5	29530	
465.7	30249	
465.9	28876	
466.1	27619	
466.3	30888	
466.5	29554	
466.7	30244	
466.9	28392	
467.1	30608	
467.3	31410	
467.5	30726	
467.7	29319	
467.9	31756	
468.1	33144	
468.3	29793	
468.5	30949	
468.7	31546	
468.9	31184	
469.1	30529	
469.3	31410	
469.5	33910	
469.7	31838	
469.9	30248	
470.1	30520	
470.3	31861	
470.5	31810	
470.7	31496	
470.9	30070	
471.1	32131	
471.3	31425	
471.5	30183	
471.69	31991	
471.89	31092	
472.09	30527	
472.29	31054	
472.49	30110	
472.69	31242	
472.89	31868	
473.09	30341	
473.29	29179	
473.49	31077	
473.69	30814	
473.89	30578	
474.09	29702	
474.29	32097	
474.49	31697	
474.69	30825	
474.89	29691	
475.09	31041	
475.29	31165	
475.49	29018	
475.69	30016	
475.88	32094	
476.08	31365	
476.28	29309	
476.48	28958	
476.68	31028	
476.88	30823	
477.08	28968	
477.28	29653	
477.48	29997	
477.68	30597	
477.88	28963	
478.08	28977	
478.28	31889	
478.48	30621	
478.67	29659	
478.87	28245	
479.07	32271	
479.27	30767	
479.47	29522	
479.67	29941	
479.87	31680	
480.07	32223	
480.27	29224	
480.47	30750	
480.67	31209	
480.87	32120	
481.06	29376	
481.26	30562	
481.46	31566	
481.66	31409	
481.86	30247	
482.06	31204	
482.26	30969	
482.46	31911	
482.66	30097	
482.86	30084	
483.05	31836	
483.25	31201	
483.45	32555	
483.65	30582	
483.85	31619	
484.05	32225	
484.25	31012	
484.45	32243	
484.65	33017	
484.84	33752	
485.04	31012	
485.24	31023	
485.44	33814	
485.64	32370	
485.84	30976	
486.04	32436	
486.24	32949	
486.44	33272	
486.63	31155	
486.83	32308	
487.03	33562	
487.23	34222	
487.43	31558	
487.63	34538	
487.83	34191	
488.02	35072	
488.22	33782	
488.42	34474	
488.62	35283	
488.82	34509	
489.02	32720	
489.22	33822	
489.41	35003	
489.61	35353	
489.81	32952	
490.01	33087	
490.21	35624	
490.41	36507	
490.61	33292	
490.8	33544	
491	35338	
491.2	34060	
491.4	33682	
491.6	32701	
491.8	34625	
491.99	34108	
492.19	32202	
492.39	32544	
492.59	35132	
492.79	35338	
492.99	33858	
493.18	33498	
493.38	35841	
493.58	37694	
493.78	35316	
493.98	34920	
494.18	36883	
494.37	37241	
494.57	37147	
494.77	36683	
494.97	38878	
495.17	39658	
495.37	37342	
495.56	37833	
495.76	40411	
495.96	40347	
496.16	39430	
496.36	38806	
496.55	41047	
496.75	40774	
496.95	39021	
497.15	38977	
497.35	40742	
497.54	41142	
497.74	38675	
497.94	40995	
498.14	41868	
498.34	41693	
498.53	39165	
498.73	39965	
498.93	41206	
499.13	41857	
499.33	40269	
499.52	40496	
499.72	42729	
499.92	42257	
500.12	40495	
500.32	40916	
500.51	42790	
500.71	43311	
500.91	42117	
501.11	41311	
501.31	43056	
501.5	43193	
501.7	42348	
501.9	41279	
502.1	42564	
502.29	43209	
502.49	42048	
502.69	41736	
502.89	42935	
503.09	43056	
503.28	39750	
503.48	40010	
503.68	41215	
503.88	41611	
504.07	40811	
504.27	39792	
504.47	41817	
504.67	41506	
504.86	40662	
505.06	40121	
505.26	40945	
505.46	42685	
505.65	39746	
505.85	39473	
506.05	40161	
506.25	40702	
506.44	38036	
506.64	38721	
506.84	39548	
507.04	40320	
507.23	37991	
507.43	38618	
507.63	41386	
507.83	39975	
508.02	38616	
508.22	38337	
508.42	41909	
508.62	39972	
508.81	38216	
509.01	39411	
509.21	39163	
509.4	39671	
509.6	38503	
509.8	38384	
510	39390	
510.19	41710	
510.39	37978	
510.59	38497	
510.79	39996	
510.98	41785	
511.18	38767	
511.38	39169	
511.57	40526	
511.77	40879	
511.97	39304	
512.17	37928	
512.36	40773	
512.56	40008	
512.76	38193	
512.95	37648	
513.15	40306	
513.35	39389	
513.55	38890	
513.74	38054	
513.94	40611	
514.14	40115	
514.33	39376	
514.53	39290	
514.73	39995	
514.92	40641	
515.12	38913	
515.32	38798	
515.51	40704	
515.71	41193	
515.91	40563	
516.11	39105	
516.3	42984	
516.5	40671	
516.7	39636	
516.89	40299	
517.09	40617	
517.29	40867	
517.48	40063	
517.68	39219	
517.88	40446	
518.07	41058	
518.27	39964	
518.47	38821	
518.66	41418	
518.86	40334	
519.06	38537	
519.25	39293	
519.45	40411	
519.65	42341	
519.84	39893	
520.04	41155	
520.24	42834	
520.43	41232	
520.63	39453	
520.83	39024	
521.02	40077	
521.22	40625	
521.42	39055	
521.61	39701	
521.81	39931	
522.01	39841	
522.2	39156	
522.4	38549	
522.6	40912	
522.79	40116	
522.99	39336	
523.18	39574	
523.38	41645	
523.58	42174	
523.77	42529	
523.97	40780	
524.17	45164	
524.36	44442	
524.56	42846	
524.76	42802	
524.95	44354	
525.15	43891	
525.34	43040	
525.54	43443	
525.74	45490	
525.93	44660	
526.13	45274	
526.33	44619	
526.52	46471	
526.72	46059	
526.91	45780	
527.11	45280	
527.31	46957	
527.5	47606	
527.7	45728	
527.89	45038	
528.09	46474	
528.29	47879	
528.48	46036	
528.68	45668	
528.87	47693	
529.07	46969	
529.27	45746	
529.46	45438	
529.66	47529	
529.85	47798	
530.05	45758	
530.25	46169	
530.44	49037	
530.64	46937	
530.83	45692	
531.03	46165	
531.23	47761	
531.42	47445	
531.62	46957	
531.81	46375	
532.01	49047	
532.21	49732	
532.4	47636	
532.6	48424	
532.79	50915	
532.99	51001	
533.18	49161	
533.38	49770	
533.58	51067	
533.77	51388	
533.97	49911	
534.16	50696	
534.36	52349	
534.55	51627	
534.75	50835	
534.95	50387	
535.14	52878	
535.34	51762	
535.53	49641	
535.73	51593	
535.92	52990	
536.12	51052	
536.31	49736	
536.51	50601	
536.71	51171	
536.9	50766	
537.1	49102	
537.29	49742	
537.49	51356	
537.68	50583	
537.88	50348	
538.07	49381	
538.27	51504	
538.46	52366	
538.66	49537	
538.86	50409	
539.05	51571	
539.25	52205	
539.44	51093	
539.64	49788	
539.83	51226	
540.03	52256	
540.22	50007	
540.42	49443	
540.61	50734	
540.81	51276	
541	48964	
541.2	50644	
541.39	49899	
541.59	50956	
541.78	50325	
541.98	48701	
542.18	50073	
542.37	49764	
542.57	48424	
542.76	49779	
542.96	49088	
543.15	49594	
543.35	48208	
543.54	47474	
543.74	48888	
543.93	48916	
544.13	46789	
544.32	48085	
544.52	48576	
544.71	47821	
544.91	46066	
545.1	47263	
545.3	47886	
545.49	48881	
545.69	45896	
545.88	46261	
546.08	49572	
546.27	49188	
546.47	47088	
546.66	46133	
546.86	48223	
547.05	48881	
547.24	46305	
547.44	46514	
547.63	46997	
547.83	48813	
548.02	46567	
548.22	46260	
548.41	46789	
548.61	48134	
548.8	45608	
549	45599	
549.19	46875	
549.39	47668	
549.58	44924	
549.78	45579	
549.97	47327	
550.17	46565	
550.36	45698	
550.55	46993	
550.75	46217	
550.94	46902	
551.14	44552	
551.33	44237	
551.53	45386	
551.72	46665	
551.92	44444	
552.11	44478	
552.31	46361	
552.5	46126	
552.69	45857	
552.89	43699	
553.08	46071	
553.28	45741	
553.47	44166	
553.67	44985	
553.86	46077	
554.06	44663	
554.25	42826	
554.44	43560	
554.64	46677	
554.83	46522	
555.03	43627	
555.22	43805	
555.42	45429	
555.61	45350	
555.8	43204	
556	43378	
556.19	44306	
556.39	45369	
556.58	43197	
556.78	43162	
556.97	44968	
557.16	44758	
557.36	44384	
557.55	43142	
557.75	43859	
557.94	45919	
558.13	42988	
558.33	42826	
558.52	45620	
558.72	44095	
558.91	42679	
559.1	42601	
559.3	43871	
559.49	42960	
559.69	41960	
559.88	42767	
560.07	44143	
560.27	44834	
560.46	42755	
560.66	43175	
560.85	43756	
561.04	43018	
561.24	42135	
561.43	41626	
561.63	43251	
561.82	43243	
562.01	43433	
562.21	42323	
562.4	43535	
562.59	45158	
562.79	42263	
562.98	42163	
563.18	43882	
563.37	45831	
563.56	43108	
563.76	42797	
563.95	44110	
564.14	44107	
564.34	43220	
564.53	42722	
564.73	44528	
564.92	45448	
565.11	43574	
565.31	43164	
565.5	45496	
565.69	44679	
565.89	43241	
566.08	43664	
566.27	45391	
566.47	46592	
566.66	44601	
566.85	43532	
567.05	45462	
567.24	44829	
567.44	43760	
567.63	44873	
567.82	45743	
568.02	45576	
568.21	43808	
568.4	43945	
568.6	45765	
568.79	45829	
568.98	43838	
569.18	44560	
569.37	46427	
569.56	48199	
569.76	44913	
569.95	45954	
570.14	46236	
570.34	47127	
570.53	44455	
570.72	44494	
570.91	47290	
571.11	46328	
571.3	44958	
571.49	45592	
571.69	46705	
571.88	45952	
572.07	46049	
572.27	45566	
572.46	46390	
572.65	47233	
572.85	45159	
573.04	45741	
573.23	47771	
573.43	46862	
573.62	45547	
573.81	46288	
574	47937	
574.2	47632	
574.39	46648	
574.58	46705	
574.78	49789	
574.97	48772	
575.16	47547	
575.36	47790	
575.55	49880	
575.74	49519	
575.93	47084	
576.13	48813	
576.32	48852	
576.51	49606	
576.71	47404	
576.9	49114	
577.09	50142	
577.28	49488	
577.48	48166	
577.67	47079	
577.86	49084	
578.05	49969	
578.25	48302	
578.44	48157	
578.63	49481	
578.83	50888	
579.02	47781	
579.21	49596	
579.4	49832	
579.6	49734	
579.79	48279	
579.98	50603	
580.17	49970	
580.37	50545	
580.56	47689	
580.75	48779	
580.94	50903	
581.14	50419	
581.33	49434	
581.52	48493	
581.71	50480	
581.91	51060	
582.1	48496	
582.29	48510	
582.48	50208	
582.68	50417	
582.87	49407	
583.06	49209	
583.25	50728	
583.45	50605	
583.64	50048	
583.83	50613	
584.02	49910	
584.21	50968	
584.41	49437	
584.6	49239	
584.79	50644	
584.98	51833	
585.18	48697	
585.37	48862	
585.56	49944	
585.75	51225	
585.94	48235	
586.14	49411	
586.33	50473	
586.52	50137	
586.71	48404	
586.91	47942	
587.1	48803	
587.29	49904	
587.48	47182	
587.67	47456	
587.87	49333	
588.06	48926	
588.25	48201	
588.44	47065	
588.63	48040	
588.83	48925	
589.02	46196	
589.21	45685	
589.4	46618	
589.59	46837	
589.78	43547	
589.98	43618	
590.17	44240	
590.36	44976	
590.55	41249	
590.74	41201	
590.94	44721	
591.13	43086	
591.32	41127	
591.51	40673	
591.7	43272	
591.89	43373	
592.09	41092	
592.28	41951	
592.47	42768	
592.66	45304	
592.85	41652	
593.05	42125	
593.24	43571	
593.43	44536	
593.62	42360	
593.81	42693	
594	43828	
594.19	43947	
594.39	41862	
594.58	41927	
594.77	43909	
594.96	44359	
595.15	41641	
595.34	42295	
595.54	43482	
595.73	42284	
595.92	40331	
596.11	41346	
596.3	43387	
596.49	42255	
596.68	40738	
596.88	41436	
597.07	43183	
597.26	41957	
597.45	40233	
597.64	41709	
597.83	42258	
598.02	43304	
598.22	40587	
598.41	41268	
598.6	42560	
598.79	41809	
598.98	40288	
599.17	41325	
599.36	42224	
599.55	43211	
599.74	42141	
599.94	42149	
600.13	42673	
600.32	41339	
600.51	39770	
600.7	40208	
600.89	43003	
601.08	43057	
601.27	39658	
601.47	40723	
601.66	42240	
601.85	43001	
602.04	40378	
602.23	39961	
602.42	41245	
602.61	41712	
602.8	39625	
602.99	39230	
603.18	41317	
603.37	41757	
603.57	39736	
603.76	40447	
603.95	42103	
604.14	41841	
604.33	39696	
604.52	40243	
604.71	41911	
604.9	41168	
605.09	40262	
605.28	40305	
605.47	42444	
605.66	41536	
605.86	40327	
606.05	39454	
606.24	41728	
606.43	40583	
606.62	39782	
606.81	40448	
607	41654	
607.19	41052	
607.38	38811	
607.57	39169	
607.76	40695	
607.95	39782	
608.14	39476	
608.33	39939	
608.52	40526	
608.72	41555	
608.91	38343	
609.1	38413	
609.29	40172	
609.48	39547	
609.67	38778	
609.86	38022	
610.05	39702	
610.24	39672	
610.43	37859	
610.62	37581	
610.81	40656	
611	40778	
611.19	37954	
611.38	38513	
611.57	40176	
611.76	41274	
611.95	37862	
612.14	37111	
612.33	39959	
612.52	39130	
612.71	37965	
612.9	37220	
613.09	38852	
613.28	41323	
613.47	37561	
613.66	38825	
613.85	39803	
614.04	39096	
614.24	37675	
614.43	36980	
614.62	39989	
614.81	39672	
615	38191	
615.19	38660	
615.38	39137	
615.57	39775	
615.76	38173	
615.95	39351	
616.14	40219	
616.33	39557	
616.52	38518	
616.71	39011	
616.9	39925	
617.09	40169	
617.28	38148	
617.47	39291	
617.66	39495	
617.85	39729	
618.04	39781	
618.22	39200	
618.41	40554	
618.6	41906	
618.79	39472	
618.98	39697	
619.17	42328	
619.36	40902	
619.55	40096	
619.74	40032	
619.93	41880	
620.12	41605	
620.31	40998	
620.5	41321	
620.69	43005	
620.88	43703	
621.07	42067	
621.26	41545	
621.45	43067	
621.64	43325	
621.83	41674	
622.02	41071	
622.21	43171	
622.4	43142	
622.59	42550	
622.78	42197	
622.97	42618	
623.16	44045	
623.35	41970	
623.54	41032	
623.72	43080	
623.91	43373	
624.1	42292	
624.29	41093	
624.48	44662	
624.67	43532	
624.86	42662	
625.05	41555	
625.24	44622	
625.43	43000	
625.62	44053	
625.81	41950	
626	43687	
626.19	43690	
626.38	42808	
626.56	41970	
626.75	43521	
626.94	44679	
627.13	42299	
627.32	41409	
627.51	44130	
627.7	45610	
627.89	41077	
628.08	42707	
628.27	42895	
628.46	43055	
628.65	41332	
628.83	41080	
629.02	43345	
629.21	42889	
629.4	41934	
629.59	41992	
629.78	43017	
629.97	43625	
630.16	42336	
630.35	41607	
630.54	44483	
630.72	43769	
630.91	41582	
631.1	42020	
631.29	43517	
631.48	43561	
631.67	42134	
631.86	41349	
632.05	43209	
632.24	43194	
632.42	40925	
632.61	41724	
632.8	42754	
632.99	42822	
633.18	41974	
633.37	41837	
633.56	43002	
633.75	42916	
633.93	41588	
634.12	41512	
634.31	43638	
634.5	43757	
634.69	41450	
634.88	41396	
635.07	42860	
635.25	43287	
635.44	42035	
635.63	42443	
635.82	42448	
636.01	41720	
636.2	41735	
636.39	41341	
636.57	43282	
636.76	42835	
636.95	40555	
637.14	41872	
637.33	42754	
637.52	43796	
637.7	40299	
637.89	41260	
638.08	42384	
638.27	43354	
638.46	41381	
638.65	41211	
638.83	42873	
639.02	41490	
639.21	40610	
639.4	41112	
639.59	41478	
639.78	41240	
639.96	39149	
640.15	39045	
640.34	40981	
640.53	40951	
640.72	38462	
640.91	38868	
641.09	39877	
641.28	41345	
641.47	38809	
641.66	39504	
641.85	40798	
642.03	40372	
642.22	39146	
642.41	38470	
642.6	39878	
642.79	39061	
642.97	37550	
643.16	38725	
643.35	39822	
643.54	38971	
643.73	37633	
643.91	38278	
644.1	38140	
644.29	39431	
644.48	36921	
644.67	37232	
644.85	38134	
645.04	38148	
645.23	35738	
645.42	36207	
645.6	37139	
645.79	37839	
645.98	35141	
646.17	34232	
646.36	35738	
646.54	36073	
646.73	34921	
646.92	33847	
647.11	35182	
647.29	36224	
647.48	33877	
647.67	33348	
647.86	36132	
648.05	36801	
648.23	33768	
648.42	35140	
648.61	35633	
648.8	35456	
648.98	33135	
649.17	33542	
649.36	34744	
649.55	34344	
649.73	33013	
649.92	33941	
650.11	34934	
650.3	34950	
650.48	33187	
650.67	33057	
650.86	35242	
651.05	33725	
651.23	32919	
651.42	32721	
651.61	34157	
651.79	33793	
651.98	33034	
652.17	32197	
652.36	33957	
652.54	33205	
652.73	32295	
652.92	31903	
653.11	33912	
653.29	33964	
653.48	30906	
653.67	31791	
653.85	33158	
654.04	34067	
654.23	31496	
654.42	30797	
654.6	31320	
654.79	31767	
654.98	29030	
655.16	29328	
655.35	29776	
655.54	29623	
655.73	28246	
655.91	27930	
656.1	30606	
656.29	29895	
656.47	28074	
656.66	30111	
656.85	30705	
657.03	30935	
657.22	29532	
657.41	29955	
657.59	31541	
657.78	31604	
657.97	29709	
658.16	30515	
658.34	32099	
658.53	32615	
658.72	31279	
658.9	31821	
659.09	31694	
659.28	31967	
659.46	30244	
659.65	30145	
659.84	31632	
660.02	32148	
660.21	29987	
660.4	30087	
660.58	32509	
660.77	31776	
660.96	30605	
661.14	29588	
661.33	32978	
661.52	32578	
661.7	29519	
661.89	33421	
662.08	31023	
662.26	30950	
662.45	29556	
662.64	29397	
662.82	31601	
663.01	31008	
663.2	29447	
663.38	30359	
663.57	31297	
663.75	31287	
663.94	29696	
664.13	30867	
664.31	30541	
664.5	31404	
664.69	29860	
664.87	30498	
665.06	30479	
665.25	31311	
665.43	30711	
665.62	30522	
665.8	31238	
665.99	30494	
666.18	29307	
666.36	29604	
666.55	30898	
666.74	30926	
666.92	28928	
667.11	30185	
667.29	30461	
667.48	30931	
667.67	29982	
667.85	29125	
668.04	30345	
668.22	30456	
668.41	29023	
668.6	29426	
668.78	30018	
668.97	30283	
669.15	29203	
669.34	28251	
669.53	30173	
669.71	30360	
669.9	28418	
670.08	28903	
670.27	30055	
670.46	30180	
670.64	28950	
670.83	29401	
671.01	29613	
671.2	30105	
671.38	28551	
671.57	28185	
671.76	30823	
671.94	31466	
672.13	28114	
672.31	28998	
672.5	30731	
672.69	29920	
672.87	28620	
673.06	28766	
673.24	30313	
673.43	29896	
673.61	29082	
673.8	28579	
673.98	30172	
674.17	30549	
674.36	29230	
674.54	28990	
674.73	29938	
674.91	30268	
675.1	28762	
675.28	28272	
675.47	29837	
675.65	30550	
675.84	28340	
676.03	28777	
676.21	29529	
676.4	29181	
676.58	28986	
676.77	29218	
676.95	31065	
677.14	29586	
677.32	27997	
677.51	27926	
677.69	30292	
677.88	29208	
678.06	27804	
678.25	27918	
678.44	29770	
678.62	29381	
678.81	27364	
678.99	28710	
679.18	30453	
679.36	30033	
679.55	28247	
679.73	29034	
679.92	29937	
680.1	29422	
680.29	29863	
680.47	28180	
680.66	29055	
680.84	30061	
681.03	27554	
681.21	28499	
681.4	29382	
681.58	29094	
681.77	27735	
681.95	27699	
682.14	30150	
682.32	30276	
682.51	28452	
682.69	27128	
682.88	28673	
683.06	29010	
683.25	27894	
683.43	28555	
683.62	29143	
683.8	29558	
683.99	28415	
684.17	27568	
684.36	29804	
684.54	28176	
684.73	25748	
684.91	25645	
685.1	27246	
685.28	26074	
685.46	24965	
685.65	24935	
685.83	26293	
686.02	25698	
686.2	24301	
686.39	24526	
686.57	25648	
686.76	27657	
686.94	24907	
687.13	25022	
687.31	26751	
687.5	26693	
687.68	24653	
687.86	26189	
688.05	28403	
688.23	26358	
688.42	26163	
688.6	25996	
688.79	27138	
688.97	26974	
689.16	26262	
689.34	25036	
689.52	28196	
689.71	28281	
689.89	26825	
690.08	25961	
690.26	27787	
690.45	27780	
690.63	26570	
690.81	26277	
691	27040	
691.18	27455	
691.37	26010	
691.55	27959	
691.74	26826	
691.92	28728	
692.1	25844	
692.29	25079	
692.47	26889	
692.66	26138	
692.84	25275	
693.02	25687	
693.21	26720	
693.39	26690	
693.58	26431	
693.76	25705	
693.94	28439	
694.13	28470	
694.31	26316	
694.5	27415	
694.68	27712	
694.86	28392	
695.05	26971	
695.23	27187	
695.42	28850	
695.6	31154	
695.78	27833	
695.97	26650	
696.15	28775	
696.34	28074	
696.52	26355	
696.7	26968	
696.89	27979	
697.07	27258	
697.25	26486	
697.44	28148	
697.62	27729	
697.81	27729	
697.99	25822	
698.17	26657	
698.36	26591	
698.54	27241	
698.72	26135	
698.91	24959	
699.09	26706	
699.28	26513	
699.46	25545	
699.64	25461	
699.83	26366	
700.01	27177	
700.19	26029	
700.38	24961	
700.56	27671	
700.74	26749	
700.93	25122	
701.11	25969	
701.29	27216	
701.48	28616	
701.66	25494	
701.84	25888	
702.03	27181	
702.21	27962	
702.39	25157	
702.58	26151	
702.76	27650	
702.94	27499	
703.13	24991	
703.31	27913	
703.49	26703	
703.68	28414	
703.86	25155	
704.04	26411	
704.23	26740	
704.41	27361	
704.59	25396	
704.78	26189	
704.96	28382	
705.14	27356	
705.33	25230	
705.51	25712	
705.69	26701	
705.87	27537	
706.06	25882	
706.24	24805	
706.42	26838	
706.61	27150	
706.79	25671	
706.97	24562	
707.16	26021	
707.34	26478	
707.52	25366	
707.7	24818	
707.89	26171	
708.07	25942	
708.25	25458	
708.44	25701	
708.62	25815	
708.8	26695	
708.98	25494	
709.17	24692	
709.35	26116	
709.53	25815	
709.72	24194	
709.9	24208	
710.08	26142	
710.26	25905	
710.45	25312	
710.63	24206	
710.81	25469	
710.99	25421	
711.18	24266	
711.36	23609	
711.54	25183	
711.72	25515	
711.91	23355	
712.09	22700	
712.27	24522	
712.45	24901	
712.64	22865	
712.82	21949	
713	23187	
713.18	23116	
713.37	21385	
713.55	22299	
713.73	23160	
713.91	21265	
714.1	20258	
714.28	19138	
714.46	21132	
714.64	19707	
714.83	17231	
715.01	17681	
715.19	18405	
715.37	17649	
715.55	16492	
715.74	16642	
715.92	18815	
716.1	16723	
716.28	17630	
716.47	16349	
716.65	16904	
716.83	17102	
717.01	15879	
717.19	15903	
717.38	19246	
717.56	16816	
717.74	16412	
717.92	15731	
718.1	18361	
718.29	17808	
718.47	15944	
718.65	17024	
718.83	19352	
719.01	19604	
719.2	16901	
719.38	18069	
719.56	19403	
719.74	20998	
719.92	17459	
720.11	18290	
720.29	18871	
720.47	17905	
720.65	16180	
720.83	16556	
721.02	17192	
721.2	16676	
721.38	16087	
721.56	15237	
721.74	15864	
721.92	16027	
722.11	16284	
722.29	15911	
722.47	17251	
722.65	16442	
722.83	14874	
723.01	15737	
723.2	16311	
723.38	16690	
723.56	14400	
723.74	15427	
723.92	15806	
724.1	17092	
724.29	14677	
724.47	15814	
724.65	15833	
724.83	15745	
725.01	14226	
725.19	15125	
725.37	15566	
725.56	15720	
725.74	14180	
725.92	14386	
726.1	15591	
726.28	15649	
726.46	14565	
726.64	14289	
726.83	15457	
727.01	15778	
727.19	13894	
727.37	14780	
727.55	15802	
727.73	16080	
727.91	13819	
728.09	13593	
728.28	16122	
728.46	16684	
728.64	14909	
728.82	14865	
729	17432	
729.18	16851	
729.36	14344	
729.54	16582	
729.72	18184	
729.91	16569	
730.09	16583	
730.27	15575	
730.45	16482	
730.63	17227	
730.81	16161	
730.99	15332	
731.17	17759	
731.35	16248	
731.53	15690	
731.71	15185	
731.9	17271	
732.08	17367	
732.26	15106	
732.44	14937	
732.62	17201	
732.8	16931	
732.98	15575	
733.16	14459	
733.34	16498	
733.52	15211	
733.7	14696	
733.88	15115	
734.07	16077	
734.25	15883	
734.43	14198	
734.61	15754	
734.79	17722	
734.97	15898	
735.15	14345	
735.33	14550	
735.51	15885	
735.69	15588	
735.87	15504	
736.05	14708	
736.23	15677	
736.41	15437	
736.59	14420	
736.77	14520	
736.95	16164	
737.13	15578	
737.32	13901	
737.5	14225	
737.68	16664	
737.86	15182	
738.04	13573	
738.22	15301	
738.4	14789	
738.58	14955	
738.76	14001	
738.94	12865	
739.12	14944	
739.3	14929	
739.48	14663	
739.66	14353	
739.84	15208	
740.02	15194	
740.2	13018	
740.38	13274	
740.56	15454	
740.74	14175	
740.92	13856	
741.1	13445	
741.28	14573	
741.46	14439	
741.64	12953	
741.82	13637	
742	14408	
742.18	14364	
742.36	13076	
742.54	12702	
742.72	14943	
742.9	13476	
743.08	13362	
743.26	12080	
743.44	14856	
743.62	14728	
743.8	13360	
743.98	12310	
744.16	14262	
744.34	13848	
744.52	13071	
744.7	13035	
744.88	14107	
745.06	13670	
745.24	12876	
745.42	12878	
745.6	14001	
745.78	13719	
745.96	11397	
746.14	11595	
746.32	14508	
746.5	13738	
746.68	12112	
746.86	11473	
747.03	14180	
747.21	12191	
747.39	11937	
747.57	11329	
747.75	13213	
747.93	13441	
748.11	11346	
748.29	11250	
748.47	14762	
748.65	12668	
748.83	12181	
749.01	11728	
749.19	13205	
749.37	12207	
749.55	11407	
749.73	11538	
749.91	12840	
750.09	12328	
750.26	11568	
750.44	10967	
750.62	12808	
750.8	12579	
750.98	10761	
751.16	10935	
751.34	12556	
751.52	11944	
751.7	11716	
751.88	10561	
752.06	13089	
752.24	12889	
752.42	10375	
752.59	10848	
752.77	12357	
752.95	13674	
753.13	11549	
753.31	10828	
753.49	11899	
753.67	12350	
753.85	11004	
754.03	10471	
754.21	12304	
754.38	12586	
754.56	10350	
754.74	9156.5	
754.92	11142	
755.1	11512	
755.28	8575.5	
755.46	8197.3	
755.64	11192	
755.82	10886	
755.99	7170.6	
756.17	7068.2	
756.35	7277.8	
756.53	8757.1	
756.71	5313.8	
756.89	6343.9	
757.07	8380.3	
757.25	7478.5	
757.42	7324.2	
757.6	8393.3	
757.78	9237.7	
757.96	8248.5	
758.14	7639.6	
758.32	7101	
758.5	7764.5	
758.67	8537.3	
758.85	7186.3	
759.03	7311.2	
759.21	8558.5	
759.39	8032.1	
759.57	6741.9	
759.75	8009.6	
759.92	9445.2	
760.1	8780.3	
760.28	8545.5	
760.46	8891.6	
760.64	8700.5	
760.82	8559.1	
760.99	8706.6	
761.17	7799.3	
761.35	9868.5	
761.53	8834.3	
761.71	8198.7	
761.89	8941.4	
762.06	9912.9	
762.24	9474.6	
762.42	8413.1	
762.6	8303.1	
762.78	9593.4	
762.96	10352	
763.13	9014.5	
763.31	8616.5	
763.49	10491	
763.67	9696.4	
763.85	9639.8	
764.02	10167	
764.2	10855	
764.38	9925.1	
764.56	8448.6	
764.74	9404.3	
764.91	10922	
765.09	9620.7	
765.27	8096.3	
765.45	7863.5	
765.63	10854	
765.8	10604	
765.98	7497.6	
766.16	7783	
766.34	8982.4	
766.52	8787.2	
766.69	8744.8	
766.87	7509.2	
767.05	9237	
767.23	10100	
767.41	7716.1	
767.58	7832.1	
767.76	9633.6	
767.94	9803.6	
768.12	7670.3	
768.29	8293.6	
768.47	9055.4	
768.65	9865.7	
768.83	7073.7	
769	8278.6	
769.18	8537.3	
769.36	9336.7	
769.54	8196	
769.72	7021.1	
769.89	9361.3	
770.07	9552.4	
770.25	7236.8	
770.43	8486.1	
770.6	10001	
770.78	10505	
770.96	7200.7	
771.14	7130.3	
771.31	9052.7	
771.49	8310.7	
771.67	6320.7	
771.85	6568.5	
772.02	7476.5	
772.2	8208.3	
772.38	7123.5	
772.55	6734.4	
772.73	8341.4	
772.91	8154.3	
773.09	6978.8	
773.26	7051.8	
773.44	8226.7	
773.62	7815	
773.8	6327.5	
773.97	6099.5	
774.15	8232.2	
774.33	7815	
774.5	6218.3	
774.68	6479.1	
774.86	8267	
775.04	7625.3	
775.21	6095.4	
775.39	6114.6	
775.57	7870.3	
775.74	8361.2	
775.92	5849.7	
776.1	5847	
776.27	7730.4	
776.45	8997.4	
776.63	5905.7	
776.81	5432.6	
776.98	7342	
777.16	8468.4	
777.34	5942.5	
777.51	6303	
777.69	7224.6	
777.87	7061.4	
778.04	5965.1	
778.22	6620.4	
778.4	6920.1	
778.57	7537.9	
778.75	5117.2	
778.93	5481.7	
779.1	6674.3	
779.28	6443.6	
779.46	5059.8	
779.64	5570.5	
779.81	7632.8	
779.99	8535.9	
780.17	6311.2	
780.34	6395.8	
780.52	7011.6	
780.69	7217.7	
780.87	5750.7	
781.05	5331.5	
781.22	6974	
781.4	7025.2	
781.58	5381.4	
781.75	4436.6	
781.93	6948.8	
782.11	6286.6	
782.28	6146	
782.46	5324.7	
782.64	6072.9	
782.81	7010.9	
782.99	5307	
783.17	5259.2	
783.34	6941.2	
783.52	6074.3	
783.69	5437.4	
783.87	6312.5	
784.05	6073.6	
784.22	6059.3	
784.4	6150.7	
784.58	5466	
784.75	7049.1	
784.93	6126.2	
785.1	5111	
785.28	5648.3	
785.46	6636.1	
785.63	5973.2	
785.81	4999.8	
785.99	4831.2	
786.16	6095.4	
786.34	6501.6	
786.51	4807.9	
786.69	5229.8	
786.87	5681.7	
787.04	6184.9	
787.22	4633.9	
787.39	5570.5	
787.57	5908.4	
787.75	7060.7	
787.92	5744.6	
788.1	5739.1	
788.27	5887.2	
788.45	5598.5	
788.63	5363.6	
788.8	4057	
788.98	6311.8	
789.15	5560.9	
789.33	4245.4	
789.5	4881	
789.68	6689.3	
789.86	6820.4	
790.03	5264	
790.21	4704.9	
790.38	6679.8	
790.56	5840.8	
790.73	4439.3	
790.91	4513.7	
791.09	5698.1	
791.26	6451.1	
791.44	4711	
791.61	4116.4	
791.79	5731.6	
791.96	5791.7	
792.14	4216.8	
792.32	3752.6	
792.49	5674.9	
792.67	5759.6	
792.84	4366.3	
793.02	4078.2	
793.19	6146	
793.37	6937.2	
793.54	3787.4	
793.72	4137.6	
793.89	7012.2	
794.07	5605.3	
794.25	4758.8	
794.42	3827.7	
794.6	6688.7	
794.77	6290.7	
794.95	5028.4	
795.12	4402.5	
795.3	5575.9	
795.47	6277	
795.65	4772.4	
795.82	4577.9	
796	5365.7	
796.17	7300.3	
796.35	4524	
796.52	5153.4	
796.7	6062.7	
796.87	6173.3	
797.05	5442.1	
797.22	5392.3	
797.4	6141.2	
797.57	7169.9	
797.75	4597	
797.92	4265.2	
798.1	6457.9	
798.27	5488.6	
798.45	3695.9	
798.62	4037.9	
798.8	5879	
798.97	6338.5	
799.15	4839.4	
799.32	4571.1	
799.5	5064.6	
799.67	5872.2	
799.85	4902.2	
800.02	3702	
800.2	5425.8	
800.37	5820.3	
800.55	5022.3	
800.72	4207.2	
800.9	6259.3	
801.07	6665.5	
801.25	5646.2	
801.42	4683.7	
801.6	6362.4	
801.77	6070.9	
801.95	4318.5	
802.12	4138.9	
802.29	5930.9	
802.47	5943.9	
802.64	4604.5	
802.82	3566.9	
802.99	5324	
803.17	6421.1	
803.34	4481.6	
803.52	4066.6	
803.69	7090.1	
803.87	5162.9	
804.04	4455.7	
804.21	4557.4	
804.39	6496.8	
804.56	5573.9	
804.74	3791.5	
804.91	4612	
805.09	5369.1	
805.26	5539.1	
805.44	3870	
805.61	4221.5	
805.78	6068.8	
805.96	6075.6	
806.13	4550.6	
806.31	4912.4	
806.48	4896.7	
806.66	5496.1	
806.83	4571.1	
807	4432.5	
807.18	5322	
807.35	5717.2	
807.53	4402.5	
807.7	3547.1	
807.87	6503.7	
808.05	5374.6	
808.22	4799.8	
808.4	3571	
808.57	5327.4	
808.74	4889.9	
808.92	4006.5	
809.09	4982.7	
809.27	5182.7	
809.44	5827.2	
809.61	3541.6	
809.79	3975.8	
809.96	6454.5	
810.14	6068.8	
810.31	3474	
810.48	4163.5	
810.66	5367	
810.83	6179.4	
811.01	4040	
811.18	4416.8	
811.35	6046.3	
811.53	4753.3	
811.7	4859.8	
811.87	4455	
812.05	5240.8	
812.22	5147.9	
812.39	3872	
812.57	3794.2	
812.74	5344.5	
812.92	6995.2	
813.09	4125.3	
813.26	4605.2	
813.44	6739.9	
813.61	5212.1	
813.78	3510.2	
813.96	4661.9	
814.13	5283.1	
814.3	4962.9	
814.48	5014.1	
814.65	4216.1	
814.82	6606.1	
815	5113.8	
815.17	4311	
815.34	5196.4	
815.52	5170.4	
815.69	5197.7	
815.87	4242	
816.04	3716.4	
816.21	5263.3	
816.38	4702.1	
816.56	4147.8	
816.73	3787.4	
816.9	6616.3	
817.08	5997.1	
817.25	3847.5	
817.42	4871.4	
817.6	4792.2	
817.77	5313.8	
817.94	4362.9	
818.12	3751.9	
818.29	4959.5	
818.46	7777.5	
818.64	4055.7	
818.81	3746.4	
818.98	4906.3	
819.16	7136.5	
819.33	4579.9	
819.5	4321.9	
819.67	5664	
819.85	6319.3	
820.02	4215.4	
820.19	4469.4	
820.37	5508.4	
820.54	5053	
820.71	4404.5	
820.88	5349.3	
821.06	5496.1	
821.23	5090.6	
821.4	4348.5	
821.58	4364.9	
821.75	6070.9	
821.92	5408.7	
822.09	3518.4	
822.27	3794.2	
822.44	5309	
822.61	5173.9	
822.79	3540.3	
822.96	6654.5	
823.13	5765.7	
823.3	5005.2	
823.48	4065.2	
823.65	3588.7	
823.82	5932.3	
823.99	4749.2	
824.17	5119.2	
824.34	3728.7	
824.51	6918	
824.68	5331.5	
824.86	3872.7	
825.03	4312.3	
825.2	5244.2	
825.37	6417.7	
825.55	3842	
825.72	4246.1	
825.89	6972.7	
826.06	6447.7	
826.24	4143.7	
826.41	4173.1	
826.58	6367.1	
826.75	5524.7	
826.92	3281.5	
827.1	3632.4	
827.27	8673.8	
827.44	6906.4	
827.61	4001.7	
827.79	4745.1	
827.96	4956.1	
828.13	5406	
828.3	4090.5	
828.47	3488.4	
828.65	5464.7	
828.82	5421	
828.99	5328.1	
829.16	4715.1	
829.34	5865.4	
829.51	5623.7	
829.68	4303.5	
829.85	4405.9	
830.02	6131.6	
830.2	5906.3	
830.37	3348.4	
830.54	5127.4	
830.71	6679.1	
830.88	5197.7	
831.05	3422.8	
831.23	3884.3	
831.4	6378.7	
831.57	7114	
831.74	3962.8	
831.91	3504.8	
832.09	5437.4	
832.26	5889.3	
832.43	4048.8	
832.6	4567	
832.77	5472.2	
832.94	6250.4	
833.12	3280.8	
833.29	4038.6	
833.46	5661.3	
833.63	7428.7	
833.8	4386.7	
833.97	4100	
834.15	5872.2	
834.32	5576.6	
834.49	4212	
834.66	4339	
834.83	6098.2	
835	4912.4	
835.17	3923.9	
835.35	3893.2	
835.52	5746.6	
835.69	5621.7	
835.86	4223.6	
836.03	3443.3	
836.2	5771.9	
836.37	5437.4	
836.55	4082.3	
836.72	3791.5	
836.89	5456.5	
837.06	5988.3	
837.23	4092.5	
837.4	4555.4	
837.57	6670.9	
837.75	7406.1	
837.92	3772.4	
838.09	3966.2	
838.26	5348.6	
838.43	6182.1	
838.6	4284.4	
838.77	3857.7	
838.94	7065.5	
839.11	6778.1	
839.29	4109.6	
839.46	3254.9	
839.63	5820.3	
839.8	5509	
839.97	3917.1	
840.14	3942.3	
840.31	5572.5	
840.48	5845.6	
840.65	3269.9	
840.82	3991.5	
841	5759.6	
841.17	5762.3	
841.34	3650.2	
841.51	3695.2	
841.68	5764.3	
841.85	5483.1	
842.02	3772.4	
842.19	3140.9	
842.36	5575.3	
842.53	5546.6	
842.7	3652.9	
842.87	4476.9	
843.05	7321.5	
843.22	5513.1	
843.39	3470.6	
843.56	3754.6	
843.73	5244.8	
843.9	5914.5	
844.07	5900.2	
844.24	4927.4	
844.41	8467.7	
844.58	5015.5	
844.75	3491.1	
844.92	3816	
845.09	5801.9	
845.26	5750.7	
845.43	3575.8	
845.6	3818.1	
845.77	5814.2	
845.94	5468.8	
846.12	4000.4	
846.29	4255.7	
846.46	5954.8	
846.63	5801.9	
846.8	3620.1	
846.97	4268	
847.14	6282.5	
847.31	5741.1	
847.48	4035.2	
847.65	4414.1	
847.82	6081.8	
847.99	6023.8	
848.16	4801.1	
848.33	4418.2	
848.5	5350	
848.67	6304.3	
848.84	3523.9	
849.01	3715	
849.18	5164.3	
849.35	4863.9	
849.52	4505.5	
849.69	3557.3	
849.86	6015.6	
850.03	6210.8	
850.2	3593.5	
850.37	4469.4	
850.54	6204.7	
850.71	5455.1	
850.88	4355.3	
851.05	3570.3	
851.22	5723.4	
851.39	6406	
851.56	3364.8	
851.73	4141	
851.9	5048.2	
852.07	6056.5	
852.24	4016.7	
852.41	3584.6	
852.58	5588.2	
852.75	5158.8	
852.92	4006.5	
853.09	3568.2	
853.26	5362.3	
853.43	6197.2	
853.6	3613.3	
853.77	3078.1	
853.94	6364.4	
854.11	5754.1	
854.28	5406.6	
854.44	3893.2	
854.61	6714.6	
854.78	6066.8	
854.95	3579.8	
855.12	4506.2	
855.29	4657.1	
855.46	6427.9	
855.63	3582.6	
855.8	4947.2	
855.97	5316.5	
856.14	6061.3	
856.31	5008	
856.48	3898.6	
856.65	5319.3	
856.82	5005.9	
856.99	3461.7	
857.16	3867.2	
857.33	7040.9	
857.49	5398.4	
857.66	3814.7	
857.83	4182.6	
858	5452.4	
858.17	5670.1	
858.34	3399.6	
858.51	3606.5	
858.68	6503	
858.85	6528.2	
859.02	4161.5	
859.19	4362.9	
859.36	5036.6	
859.52	5087.8	
859.69	3620.8	
859.86	4204.5	
860.03	5143.8	
860.2	6393.8	
860.37	3244.7	
860.54	3616	
860.71	5935	
860.88	6405.4	
861.05	3987.4	
861.21	4498	
861.38	6481.1	
861.55	4931.5	
861.72	3219.4	
861.89	4004.5	
862.06	6071.5	
862.23	6573.3	
862.4	3515.7	
862.56	3749.1	
862.73	5872.9	
862.9	5515.9	
863.07	4223.6	
863.24	3182.5	
863.41	4903.5	
863.58	5074.9	
863.75	3614.7	
863.91	4105.5	
864.08	6331.6	
864.25	5917.9	
864.42	4493.9	
864.59	4980.7	
864.76	6728.9	
864.93	5057.8	
865.09	3456.3	
865.26	3855.6	
865.43	6239.5	
865.6	6724.8	
865.77	3075.4	
865.94	3554.6	
866.1	6322.8	
866.27	6049	
866.44	5346.6	
866.61	3367.5	
866.78	5472.2	
866.95	5902.2	
867.11	3454.2	
867.28	3168.2	
867.45	6125.5	
867.62	5190.2	
867.79	4267.3	
867.96	3480.2	
868.12	5087.2	
868.29	6115.9	
868.46	3108.8	
868.63	4745.8	
868.8	6179.4	
868.97	5965.7	
869.13	3707.5	
869.3	3730.7	
869.47	5843.5	
869.64	6108.4	
869.81	3579.8	
869.97	3603.1	
870.14	5743.9	
870.31	6506.4	
870.48	3607.2	
870.65	4514.4	
870.81	5367.7	
870.98	5339.1	
871.15	4086.4	
871.32	3649.5	
871.48	5840.1	
871.65	6530.3	
871.82	3624.9	
871.99	3926	
872.16	6932.4	
872.32	6323.4	
872.49	3624.9	
872.66	3611.9	
872.83	5932.3	
872.99	5221.6	
873.16	4078.2	
873.33	3519.1	
873.5	5574.6	
873.67	5640.1	
873.83	3728	
874	4807.9	
874.17	5782.8	
874.34	6877.1	
874.5	4580.6	
874.67	4432.5	
874.84	6369.2	
875.01	5027.8	
875.17	5014.1	
875.34	3545.7	
875.51	5702.9	
875.68	6818.4	
875.84	4281.6	
876.01	5191.6	
876.18	5928.2	
876.34	5829.2	
876.51	3521.1	
876.68	3486.3	
876.85	5421	
877.01	6258.6	
877.18	5058.5	
877.35	3503.4	
877.52	5556.8	
877.68	4980.7	
877.85	3445.4	
878.02	3499.3	
878.18	5538.4	
878.35	5232.6	
878.52	2850.1	
878.69	3955.3	
878.85	5936.4	
879.02	5951.4	
879.19	5085.1	
879.35	3876.1	
879.52	5840.1	
879.69	6139.1	
879.86	3103.4	
880.02	3932.1	
880.19	5522	
880.36	6799.9	
880.52	4024.3	
880.69	4222.2	
880.86	5996.5	
881.02	6124.1	
881.19	3903.4	
881.36	3931.4	
881.52	5870.8	
881.69	5165	
881.86	3841.3	
882.02	3774.4	
882.19	6177.4	
882.36	7277.8	
882.52	3613.3	
882.69	5001.8	
882.86	5734.3	
883.02	5630.5	
883.19	4324.6	
883.36	4059.8	
883.52	6053.1	
883.69	6949.4	
883.86	3627	
884.02	3219.4	
884.19	5915.9	
884.36	5560.9	
884.52	4054.3	
884.69	3812	
884.86	5276.9	
885.02	6582.9	
885.19	3984.7	
885.36	4108.9	
885.52	5527.5	
885.69	5668.8	
885.86	5108.3	
886.02	4512.4	
886.19	5998.5	
886.35	5427.8	
886.52	3905.5	
886.69	4928.8	
886.85	5106.3	
887.02	6331.6	
887.19	6331.6	
887.35	6331.6	
887.52	6331.6	
887.68	6331.6	
887.85	6331.6	
888.02	6331.6	
888.18	6331.6	
888.35	6331.6	
888.51	6331.6	
888.68	6331.6	
888.85	6331.6	
889.01	6331.6	
889.18	6331.6	
889.35	6331.6	
889.51	6331.6	
889.68	6331.6	
889.84	6331.6	
890.01	6331.6	
890.17	6331.6	
890.34	6331.6	
890.51	6331.6	
890.67	6331.6	
890.84	6331.6	
891	6331.6	
891.17	6331.6	
891.34	6331.6	
891.5	6331.6	
891.67	6331.6	
891.83	6331.6	
892	6331.6	
892.16	6331.6	
892.33	6331.6	
892.5	6331.6	
892.66	6331.6	
892.83	6331.6	
892.99	6331.6	
893.16	6331.6	
893.32	6331.6	
893.49	6331.6	
893.65	6331.6	
893.82	6331.6	
893.99	6331.6	
894.15	6331.6	
894.32	6331.6	
894.48	6331.6	
894.65	6331.6	
894.81	6331.6	
894.98	6331.6	
895.14	6331.6	
895.31	6331.6	
895.47	6331.6	
895.64	6331.6	
895.81	6331.6	
895.97	6331.6	
896.14	6331.6	
896.3	6331.6	
896.47	6331.6	
896.63	6331.6	
896.8	6331.6	
896.96	6331.6	
897.13	6331.6	
897.29	6331.6	
897.46	6331.6	
897.62	6331.6	
897.79	6331.6	
897.95	6331.6	
898.12	6331.6	
898.28	6331.6	
898.45	6331.6	
898.61	6331.6	
898.78	6331.6	
898.94	6331.6	
899.11	6331.6	
899.27	6331.6	
899.44	6331.6	
899.6	6331.6	
899.77	6331.6	
899.93	6331.6	
900.1	6331.6	
900.26	6331.6	
900.43	6331.6	
900.59	6331.6	
900.76	6331.6	
900.92	6331.6	
901.09	6331.6	
901.25	6331.6	
901.42	6331.6	
901.58	6331.6	
901.75	6331.6	
901.91	6331.6	
902.07	6331.6	
902.24	6331.6	
902.4	6331.6	
902.57	6331.6	
902.73	6331.6	
902.9	6331.6	
903.06	6331.6	
903.23	6331.6	
903.39	6331.6	
903.56	6331.6	
903.72	6331.6	
903.88	6331.6	
904.05	6331.6	
904.21	6331.6	
904.38	6331.6	
904.54	6331.6	
904.71	6331.6	
904.87	6331.6	
905.03	6331.6	
905.2	6331.6	
905.36	6331.6	
905.53	6331.6	
905.69	6331.6	
905.86	6331.6	
906.02	6331.6	
906.18	6331.6	
906.35	6331.6	
906.51	6331.6	
906.68	6331.6	
906.84	6331.6	
907.01	6331.6	
907.17	6331.6	
907.33	6331.6	
907.5	6331.6	
907.66	6331.6	
907.83	6331.6	
907.99	6331.6	
908.15	6331.6	
908.32	6331.6	
908.48	6331.6	
908.65	6331.6	
908.81	6331.6	
908.97	6331.6	
909.14	6331.6	
909.3	6331.6	
909.47	6331.6	
909.63	6331.6	
909.79	6331.6	
909.96	6331.6	
910.12	6331.6	
910.28	6331.6	
910.45	6331.6	
910.61	6331.6	
910.78	6331.6	
910.94	6331.6	
911.1	6331.6	
911.27	6331.6	
911.43	6331.6	
911.59	6331.6	
911.76	6331.6	
911.92	6331.6	
912.08	6331.6	
912.25	6331.6	
912.41	6331.6	
912.57	6331.6	
912.74	6331.6	
912.9	6331.6	
913.07	6331.6	
913.23	6331.6	
913.39	6331.6	
913.56	6331.6	
913.72	6331.6	
913.88	6331.6	
914.05	6331.6	
914.21	6331.6	
914.37	6331.6	
914.54	6331.6	
914.7	6331.6	
914.86	6331.6	
915.03	6331.6	
915.19	6331.6	
