Wavelength	Intensities	
nm	a.u.	
179.22	1718.6	
179.44	1709.4	
179.65	1727.8	
179.86	1690.9	
180.08	1739.4	
180.29	3997	
180.51	3050.1	
180.72	5051	
180.94	5698.8	
181.15	2770.9	
181.37	2756.6	
181.58	4853	
181.79	5054.4	
182.01	2873.3	
182.22	3069.2	
182.44	5122	
182.65	4384.7	
182.87	3710.2	
183.08	3321.1	
183.29	5359.5	
183.51	4452.3	
183.72	3046	
183.94	4288.4	
184.15	4786.8	
184.37	4763.6	
184.58	2729.9	
184.79	3561.4	
185.01	4531.5	
185.22	5168.4	
185.44	3773.7	
185.65	3257	
185.86	4784.7	
186.08	4401.1	
186.29	2708.8	
186.51	2865.1	
186.72	4541.7	
186.94	5189.6	
187.15	3302	
187.36	3278.8	
187.58	6561.7	
187.79	4903.5	
188.01	3403	
188.22	5229.1	
188.43	5744.6	
188.65	5079.6	
188.86	2876	
189.08	3339.6	
189.29	4587.4	
189.5	4622.3	
189.72	3133.4	
189.93	3151.1	
190.15	5186.1	
190.36	6077	
190.57	3365.5	
190.79	3252.2	
191	5228.5	
191.22	5214.8	
191.43	3359.4	
191.64	2905.4	
191.86	5461.9	
192.07	5200.5	
192.29	2981.8	
192.5	3112.2	
192.71	5189.6	
192.93	4642.7	
193.14	3042.6	
193.35	3165.5	
193.57	4574.5	
193.78	5276.3	
194	2583.2	
194.21	3029.6	
194.42	4478.2	
194.64	4774.5	
194.85	3321.1	
195.07	3822.2	
195.28	4761.5	
195.49	4229.1	
195.71	4001.7	
195.92	2970.9	
196.13	4982.7	
196.35	5021.6	
196.56	4218.8	
196.78	3343	
196.99	6028.5	
197.2	5658.5	
197.42	3723.2	
197.63	3324.5	
197.84	4371.7	
198.06	4951.3	
198.27	3106.1	
198.48	3998.3	
198.7	4661.9	
198.91	4773.8	
199.13	3371	
199.34	3353.2	
199.55	5207.3	
199.77	4197.7	
199.98	2978.4	
200.19	3405.8	
200.41	4771.8	
200.62	4489.8	
200.83	3511.6	
201.05	3743	
201.26	4723.3	
201.47	4560.8	
201.69	3013.2	
201.9	2996.2	
202.11	4758.1	
202.33	5569.1	
202.54	3194.8	
202.76	3551.2	
202.97	4870.1	
203.18	4961.5	
203.4	3493.8	
203.61	3454.2	
203.82	4839.4	
204.04	4571.7	
204.25	3391.4	
204.46	3287.7	
204.68	4823	
204.89	4967	
205.1	3246	
205.32	2876	
205.53	5055.1	
205.74	5173.9	
205.96	2537.4	
206.17	3401	
206.38	5107	
206.6	5176.6	
206.81	3822.9	
207.02	3129.3	
207.24	5004.6	
207.45	5320.6	
207.66	3206.4	
207.88	2807.8	
208.09	4973.8	
208.3	4743.1	
208.52	3035.1	
208.73	3203.7	
208.94	4810.7	
209.15	5385.5	
209.37	3239.9	
209.58	3597.6	
209.79	5197.1	
210.01	4649.6	
210.22	2682.2	
210.43	2779.8	
210.65	4779.3	
210.86	5063.9	
211.07	3206.4	
211.29	2953.2	
211.5	4981.3	
211.71	4749.2	
211.93	2970.9	
212.14	2992.1	
212.35	4752.7	
212.56	4880.3	
212.78	3370.3	
212.99	2841.9	
213.2	5475.6	
213.42	4633.9	
213.63	3072.6	
213.84	3247.4	
214.06	4349.2	
214.27	4436.6	
214.48	3201.7	
214.69	3439.2	
214.91	5231.9	
215.12	5326.8	
215.33	3430.3	
215.55	3642.7	
215.76	5718.6	
215.97	4997	
216.18	3340.2	
216.4	3265.8	
216.61	4578.6	
216.82	5162.9	
217.04	2983.2	
217.25	3127.2	
217.46	5285.1	
217.67	5085.1	
217.89	2764.8	
218.1	2779.8	
218.31	4863.2	
218.53	4932.2	
218.74	3179.8	
218.95	2973.7	
219.16	4779.3	
219.38	5489.9	
219.59	2996.9	
219.8	3575.8	
220.01	5862	
220.23	4812	
220.44	3867.2	
220.65	2908.1	
220.87	4885.8	
221.08	5253	
221.29	2870.6	
221.5	3586.7	
221.72	6239.5	
221.93	4509.6	
222.14	3393.5	
222.35	3923.9	
222.57	4760.8	
222.78	5119.2	
222.99	3254.9	
223.2	3418.7	
223.42	5023	
223.63	5169.1	
223.84	2540.2	
224.05	2512.9	
224.27	5860.6	
224.48	5429.2	
224.69	3939.6	
224.9	3403.7	
225.12	4941.7	
225.33	4746.5	
225.54	2729.9	
225.75	3009.8	
225.97	4421.6	
226.18	4713.7	
226.39	3246	
226.6	3065.1	
226.82	4629.8	
227.03	4508.9	
227.24	3338.9	
227.45	2858.3	
227.67	5138.4	
227.88	5463.3	
228.09	3763.5	
228.3	3722.5	
228.52	5057.8	
228.73	4757.4	
228.94	3164.8	
229.15	2822.1	
229.36	4778.6	
229.58	4737	
229.79	3179.1	
230	3672.7	
230.21	5595.7	
230.43	4835.3	
230.64	3308.8	
230.85	3421.5	
231.06	5116.5	
231.28	5117.2	
231.49	2859	
231.7	3250.8	
231.91	5034.6	
232.12	4831.2	
232.34	2927.2	
232.55	3239.2	
232.76	5304.9	
232.97	4923.3	
233.18	2977.1	
233.4	3368.2	
233.61	5014.1	
233.82	4593.6	
234.03	3153.9	
234.25	3091.1	
234.46	6369.2	
234.67	4828.4	
234.88	3409.2	
235.09	3055.6	
235.31	4977.2	
235.52	4650.9	
235.73	3371.6	
235.94	2903.3	
236.15	4603.2	
236.37	5597.8	
236.58	3000.3	
236.79	3218.7	
237	5037.3	
237.21	4415.4	
237.43	3478.8	
237.64	2768.2	
237.85	7880.6	
238.06	4465.3	
238.27	3467.2	
238.48	2856.2	
238.7	5057.8	
238.91	4664.6	
239.12	3185.3	
239.33	3300	
239.54	4569.7	
239.76	4728.8	
239.97	3244	
240.18	3235.1	
240.39	5761.6	
240.6	4975.2	
240.82	3378.5	
241.03	2825.5	
241.24	4745.1	
241.45	5429.2	
241.66	3022.8	
241.87	3493.8	
242.09	5326.1	
242.3	5591	
242.51	3475.4	
242.72	3145.7	
242.93	5111.7	
243.14	4758.1	
243.36	3638.6	
243.57	3976.5	
243.78	5433.9	
243.99	5090.6	
244.2	3194.8	
244.41	2982.5	
244.63	4424.3	
244.84	4998.4	
245.05	3459.7	
245.26	3209.2	
245.47	5014.8	
245.68	5160.9	
245.9	4132.8	
246.11	3330	
246.32	4627.7	
246.53	4973.2	
246.74	5057.8	
246.95	2785.9	
247.16	4470.7	
247.38	4820.2	
247.59	2780.5	
247.8	3308.2	
248.01	4483	
248.22	4759.5	
248.43	2990	
248.64	3169.6	
248.86	4408.6	
249.07	4618.2	
249.28	2894.5	
249.49	3338.9	
249.7	5191.6	
249.91	5264	
250.12	2766.1	
250.34	2859.6	
250.55	4905.6	
250.76	4795.7	
250.97	3324.5	
251.18	3361.4	
251.39	5300.8	
251.6	4916.5	
251.81	3383.2	
252.03	3375.7	
252.24	4610	
252.45	5122	
252.66	2878.1	
252.87	3506.8	
253.08	4818.9	
253.29	6034.7	
253.5	2886.3	
253.72	3878.9	
253.93	4708.3	
254.14	5569.1	
254.35	3150.5	
254.56	3196.2	
254.77	4932.2	
254.98	4477.5	
255.19	3103.4	
255.41	3831.1	
255.62	4919.2	
255.83	5261.9	
256.04	3479.5	
256.25	3394.2	
256.46	5720.7	
256.67	4572.4	
256.88	3317	
257.09	3655.6	
257.31	4465.3	
257.52	4528.1	
257.73	4126.7	
257.94	3095.2	
258.15	4743.1	
258.36	4839.4	
258.57	3781.2	
258.78	2514.2	
258.99	5182	
259.2	4616.8	
259.41	3097.9	
259.63	3186.6	
259.84	5374.6	
260.05	5704.3	
260.26	3941	
260.47	3062.4	
260.68	5201.8	
260.89	4721.3	
261.1	3599	
261.31	3007.8	
261.52	5274.2	
261.73	5502.2	
261.95	3941	
262.16	3416	
262.37	5315.2	
262.58	5397.8	
262.79	3952.6	
263	3134.1	
263.21	4837.3	
263.42	4670.1	
263.63	3390.8	
263.84	3132	
264.05	5202.5	
264.26	5489.2	
264.47	3728	
264.69	3323.9	
264.9	5399.8	
265.11	5159.5	
265.32	2983.9	
265.53	3072	
265.74	4902.2	
265.95	4306.9	
266.16	3254.2	
266.37	3627.6	
266.58	4936.3	
266.79	4633.2	
267	3099.3	
267.21	2917.7	
267.42	4484.4	
267.63	4775.2	
267.84	3252.9	
268.06	2849.4	
268.27	5175.2	
268.48	5272.2	
268.69	3222.1	
268.9	3648.8	
269.11	5347.2	
269.32	4335.5	
269.53	3237.8	
269.74	3057.6	
269.95	5014.1	
270.16	4299.4	
270.37	3267.9	
270.58	3723.2	
270.79	4618.2	
271	5181.4	
271.21	3386.7	
271.42	3278.8	
271.63	4949.9	
271.84	4440	
272.05	2622.1	
272.26	2946.3	
272.47	4830.5	
272.68	4925.4	
272.89	3137.5	
273.11	3517.7	
273.32	4585.4	
273.53	5459.2	
273.74	3381.2	
273.95	3418.1	
274.16	5174.5	
274.37	4810.7	
274.58	3538.9	
274.79	2855.6	
275	4956.1	
275.21	5291.3	
275.42	4143.7	
275.63	3550.5	
275.84	4994.3	
276.05	6098.9	
276.26	3414.6	
276.47	3207.1	
276.68	4733.5	
276.89	5577.3	
277.1	3632.4	
277.31	2898.6	
277.52	4947.9	
277.73	5210.7	
277.94	2874.7	
278.15	3189.4	
278.36	4987.5	
278.57	4569	
278.78	3128.6	
278.99	3484.3	
279.2	4594.3	
279.41	4437.9	
279.62	4037.9	
279.83	2921.8	
280.04	5726.8	
280.25	4463.9	
280.46	3953.9	
280.67	3276.8	
280.88	4564.2	
281.09	5304.2	
281.3	3380.5	
281.51	4154	
281.72	4601.8	
281.93	5139.7	
282.14	3057.6	
282.35	3269.9	
282.56	5197.7	
282.77	5134.9	
282.98	3173.7	
283.19	3705.5	
283.4	6228.6	
283.61	4790.9	
283.82	2980.5	
284.03	3932.1	
284.24	4942.4	
284.45	5309	
284.66	3971	
284.87	3707.5	
285.08	5227.1	
285.29	5373.2	
285.5	2831	
285.71	3187.3	
285.92	5219.6	
286.12	5756.8	
286.33	3972.4	
286.54	3211.2	
286.75	5081.7	
286.96	4685.8	
287.17	2982.5	
287.38	3839.3	
287.59	4574.5	
287.8	4541	
288.01	3177.8	
288.22	3603.7	
288.43	5093.3	
288.64	4386.7	
288.85	3766.2	
289.06	3573.7	
289.27	5147.9	
289.48	5469.4	
289.69	3987.4	
289.9	3615.3	
290.11	5335	
290.32	4630.5	
290.53	3697.9	
290.74	3453.6	
290.94	5148.6	
291.15	5175.2	
291.36	2990	
291.57	3538.9	
291.78	4645.5	
291.99	4315.1	
292.2	2935.4	
292.41	3479.5	
292.62	5221.6	
292.83	4999.8	
293.04	4196.3	
293.25	3021.4	
293.46	4684.4	
293.67	5247.6	
293.88	3020.8	
294.09	2976.4	
294.29	4470.7	
294.5	4886.5	
294.71	3272.7	
294.92	3058.3	
295.13	4666.6	
295.34	5693.4	
295.55	2778.4	
295.76	2775.7	
295.97	5131.5	
296.18	5625.1	
296.39	2912.2	
296.6	3082.2	
296.81	4828.4	
297.01	5139	
297.22	3233.7	
297.43	3109.5	
297.64	4644.8	
297.85	4508.9	
298.06	2609.1	
298.27	2784.6	
298.48	4824.3	
298.69	4586.8	
298.9	3314.3	
299.11	2985.3	
299.31	4516.5	
299.52	4433.9	
299.73	3500.7	
299.94	3420.1	
300.15	4840	
300.36	4536.9	
300.57	3474.7	
300.78	3386.7	
300.99	4684.4	
301.2	4845.5	
301.4	3106.8	
301.61	3265.1	
301.82	5031.9	
302.03	5132.9	
302.24	3657.7	
302.45	2918.4	
302.66	5018.2	
302.87	5300.1	
303.08	3069.2	
303.29	4018.1	
303.49	4607.9	
303.7	4747.9	
303.91	2792.1	
304.12	3837.9	
304.33	4457.7	
304.54	4891.2	
304.75	3056.3	
304.96	2970.9	
305.16	5052.3	
305.37	5526.1	
305.58	2770.9	
305.79	2811.2	
306	5069.4	
306.21	4330.8	
306.42	3080.8	
306.63	4479.6	
306.83	4735.6	
307.04	5210	
307.25	3333.4	
307.46	3293.8	
307.67	4276.8	
307.88	5106.3	
308.09	3081.5	
308.29	3107.5	
308.5	4884.4	
308.71	5226.4	
308.92	3245.3	
309.13	2995.5	
309.34	4722.6	
309.55	4786.8	
309.75	3775.1	
309.96	3418.1	
310.17	5133.6	
310.38	4546.5	
310.59	3568.2	
310.8	3407.1	
311.01	4710.3	
311.21	4773.8	
311.42	2968.2	
311.63	3049.4	
311.84	4646.8	
312.05	4862.6	
312.26	3362.8	
312.46	3677.5	
312.67	4714.4	
312.88	4421.6	
313.09	2948.4	
313.3	2930	
313.51	5461.2	
313.71	5681.7	
313.92	2949.1	
314.13	3121.1	
314.34	4990.2	
314.55	4775.2	
314.76	3727.3	
314.96	3317	
315.17	4947.9	
315.38	5196.4	
315.59	3051.5	
315.8	2835.8	
316.01	5387.5	
316.21	5508.4	
316.42	2938.2	
316.63	3249.4	
316.84	4697.4	
317.05	5287.9	
317.26	3488.4	
317.46	3099.9	
317.67	4771.8	
317.88	5061.2	
318.09	3743.7	
318.3	2830.3	
318.5	4652.3	
318.71	5053.7	
318.92	4627.7	
319.13	3444	
319.34	5204.6	
319.54	5274.9	
319.75	2788	
319.96	2699.9	
320.17	5048.9	
320.38	5173.2	
320.58	2740.9	
320.79	3222.8	
321	5225.1	
321.21	5319.3	
321.42	3316.3	
321.62	2770.2	
321.83	4543.1	
322.04	4833.9	
322.25	3177.8	
322.46	3004.4	
322.66	4886.5	
322.87	5033.2	
323.08	3560.7	
323.29	2914.9	
323.5	5699.5	
323.7	4432.5	
323.91	3906.2	
324.12	3577.1	
324.33	4902.2	
324.53	5029.1	
324.74	3395.5	
324.95	3599	
325.16	4440	
325.37	4694.6	
325.57	2945	
325.78	3021.4	
325.99	4970.4	
326.2	4415.4	
326.4	4031.1	
326.61	2833.7	
326.82	4773.1	
327.03	4871.4	
327.24	4110.3	
327.44	3823.6	
327.65	5034.6	
327.86	4162.2	
328.07	3427.6	
328.27	2865.8	
328.48	5367	
328.69	4455	
328.9	4119.1	
329.1	3145	
329.31	4766.3	
329.52	5403.9	
329.73	3026.9	
329.93	3304.1	
330.14	4898.7	
330.35	4945.2	
330.56	4637.3	
330.76	3634.5	
330.97	4689.2	
331.18	4891.9	
331.39	3275.4	
331.59	2719	
331.8	5220.3	
332.01	5384.8	
332.22	3103.4	
332.42	3368.2	
332.63	4882.4	
332.84	4521.9	
333.05	3317.7	
333.25	3039.9	
333.46	4588.1	
333.67	4827.1	
333.88	3078.8	
334.08	3435.1	
334.29	6145.3	
334.5	5298.8	
334.7	2931.3	
334.91	4117.8	
335.12	4428.4	
335.33	5109	
335.53	3295.9	
335.74	4620.9	
335.95	4715.1	
336.16	4493.2	
336.36	3219.4	
336.57	3723.2	
336.78	4457.7	
336.98	5193.6	
337.19	4020.2	
337.4	3188	
337.61	5705.6	
337.81	4399.7	
338.02	3027.6	
338.23	3793.5	
338.43	5391.6	
338.64	4569.7	
338.85	3022.1	
339.05	3820.1	
339.26	5477.6	
339.47	4405.2	
339.68	2996.2	
339.88	4273.4	
340.09	5031.2	
340.3	5196.4	
340.5	3446.7	
340.71	2739.5	
340.92	4485.1	
341.13	5365.7	
341.33	2927.2	
341.54	3406.5	
341.75	5013.4	
341.95	4692.6	
342.16	3337.5	
342.37	3616	
342.57	4517.1	
342.78	4762.9	
342.99	3638.6	
343.19	2769.5	
343.4	5113.1	
343.61	5005.2	
343.81	3211.9	
344.02	2928.6	
344.23	5174.5	
344.43	5388.9	
344.64	3667.9	
344.85	3602.4	
345.06	5033.9	
345.26	5244.2	
345.47	3418.7	
345.68	3959.4	
345.88	4388.1	
346.09	5171.1	
346.3	3525.9	
346.5	2673.3	
346.71	4750.6	
346.92	4600.4	
347.12	2868.5	
347.33	3428.3	
347.54	5201.8	
347.74	5471.5	
347.95	3445.4	
348.16	2628.2	
348.36	4603.2	
348.57	4457.1	
348.78	3394.2	
348.98	3622.2	
349.19	4803.2	
349.39	4383.3	
349.6	2800.3	
349.81	3122.5	
350.01	5064.6	
350.22	4607.9	
350.43	3347.1	
350.63	3926	
350.84	4853	
351.05	4624.3	
351.25	3062.4	
351.46	2833.7	
351.67	5237.3	
351.87	4534.2	
352.08	3224.9	
352.29	3650.2	
352.49	5248.9	
352.7	5256.5	
352.9	2968.9	
353.11	3580.5	
353.32	5742.5	
353.52	4729.4	
353.73	2946.3	
353.94	3652.2	
354.14	5092.6	
354.35	4900.1	
354.55	3050.8	
354.76	3339.6	
354.97	5050.3	
355.17	4855.7	
355.38	2930.6	
355.59	3875.4	
355.79	4622.9	
356	4911.7	
356.2	3392.1	
356.41	3013.2	
356.62	4464.6	
356.82	4808.6	
357.03	3571.7	
357.24	3235.8	
357.44	4683	
357.65	4743.8	
357.85	4233.8	
358.06	3444	
358.27	4509.6	
358.47	4575.8	
358.68	2980.5	
358.88	3615.3	
359.09	5143.8	
359.3	5367	
359.5	4160.1	
359.71	3693.2	
359.91	5718.6	
360.12	5271.5	
360.33	3608.5	
360.53	4003.1	
360.74	4821.6	
360.94	4797.7	
361.15	3843.4	
361.36	3257.6	
361.56	5408.7	
361.77	4988.2	
361.97	4171.7	
362.18	3451.5	
362.38	5435.3	
362.59	4719.9	
362.8	3246.7	
363	3105.4	
363.21	4567	
363.41	5072.1	
363.62	3702.7	
363.83	4429.8	
364.03	5286.5	
364.24	5865.4	
364.44	4573.8	
364.65	4463.9	
364.85	4972.5	
365.06	4749.2	
365.27	3409.2	
365.47	3421.5	
365.68	5788.9	
365.88	4956.8	
366.09	3776.5	
366.29	3510.2	
366.5	5186.1	
366.71	5497.4	
366.91	4553.3	
367.12	3915.7	
367.32	6104.3	
367.53	5549.3	
367.73	3938.2	
367.94	4709.6	
368.14	5502.9	
368.35	6096.1	
368.56	3939.6	
368.76	3480.9	
368.97	5558.9	
369.17	6783.6	
369.38	3485.6	
369.58	3702.7	
369.79	4790.2	
369.99	5782.8	
370.2	4556.7	
370.4	3785.3	
370.61	5319.3	
370.82	6259.3	
371.02	3749.1	
371.23	3155.2	
371.43	4692.6	
371.64	5877.7	
371.84	3848.1	
372.05	4679.6	
372.25	6780.8	
372.46	5636.7	
372.66	3919.1	
372.87	3885.7	
373.07	5709.7	
373.28	6992.4	
373.48	4661.2	
373.69	4441.4	
373.9	5315.8	
374.1	5341.1	
374.31	4670.7	
374.51	4308.2	
374.72	6034.7	
374.92	5140.4	
375.13	4837.3	
375.33	4243.4	
375.54	5821.7	
375.74	5370.5	
375.95	4386.1	
376.15	5325.4	
376.36	5935	
376.56	5795.8	
376.77	4543.8	
376.97	4773.1	
377.18	6862.7	
377.38	6064	
377.59	5083.7	
377.79	4205.2	
378	5929.6	
378.2	6257.2	
378.41	4356	
378.61	4220.9	
378.82	6339.1	
379.02	5725.4	
379.23	4421.6	
379.43	5324.7	
379.64	6484.6	
379.84	6172.6	
380.05	4227	
380.25	4250.9	
380.46	6251.1	
380.66	5853.8	
380.87	5270.8	
381.07	5596.4	
381.28	6680.5	
381.48	6184.9	
381.69	4304.1	
381.89	4396.3	
382.1	5356.8	
382.3	6265.4	
382.51	5172.5	
382.71	5843.5	
382.91	6167.8	
383.12	6496.8	
383.32	4552	
383.53	4706.9	
383.73	5971.2	
383.94	5852.4	
384.14	4656.4	
384.35	3975.1	
384.55	5724.8	
384.76	6126.2	
384.96	4571.7	
385.17	4761.5	
385.37	6011.5	
385.58	5427.8	
385.78	4697.4	
385.98	3832.4	
386.19	5657.2	
386.39	5954.1	
386.6	4318.5	
386.8	4547.9	
387.01	6148.7	
387.21	6149.4	
387.42	4844.1	
387.62	5298.1	
387.83	5627.1	
388.03	6131.6	
388.23	4684.4	
388.44	5254.4	
388.64	5411.4	
388.85	5678.3	
389.05	5078.3	
389.26	5563	
389.46	7068.9	
389.67	6843.6	
389.87	5275.6	
390.07	5211.4	
390.28	6126.8	
390.48	5745.2	
390.69	4520.5	
390.89	4793.6	
391.1	5922.7	
391.3	6597.9	
391.5	5653.8	
391.71	6117.3	
391.91	6548	
392.12	7245	
392.32	5825.8	
392.53	5252.4	
392.73	6115.9	
392.93	6174.6	
393.14	4897.4	
393.34	5464	
393.55	6473.6	
393.75	6025.1	
393.95	4840	
394.16	4687.1	
394.36	5961.6	
394.57	6388.3	
394.77	4413.4	
394.98	4697.4	
395.18	5981.4	
395.38	6135	
395.59	5649	
395.79	4878.3	
396	6274.3	
396.2	6680.5	
396.4	5603.9	
396.61	5544.5	
396.81	6961.7	
397.02	6291.4	
397.22	5905	
397.42	5956.2	
397.63	6984.3	
397.83	6414.9	
398.04	5039.4	
398.24	5556.1	
398.44	6823.1	
398.65	6038.8	
398.85	5029.1	
399.05	5056.4	
399.26	6498.2	
399.46	7806.2	
399.67	5415.5	
399.87	5257.1	
400.07	6892.1	
400.28	7071	
400.48	5422.3	
400.69	6298.9	
400.89	7393.8	
401.09	7736.5	
401.3	5565.7	
401.5	6348.7	
401.7	8075.8	
401.91	8219.2	
402.11	5870.8	
402.32	5926.1	
402.52	7561.8	
402.72	7340.6	
402.93	6113.9	
403.13	4996.4	
403.33	7873.8	
403.54	6602.7	
403.74	5442.8	
403.94	5964.4	
404.15	6579.4	
404.35	7458	
404.56	5195.7	
404.76	6582.2	
404.96	7174	
405.17	6984.3	
405.37	6229.9	
405.57	5952.1	
405.78	7585	
405.98	6976.1	
406.18	5689.9	
406.39	6283.9	
406.59	7250.5	
406.79	6905.1	
407	5302.9	
407.2	5268.7	
407.4	7262.8	
407.61	7390.4	
407.81	5492.7	
408.01	7180.2	
408.22	6700.3	
408.42	8374.1	
408.62	6865.5	
408.83	6529.6	
409.03	7759.1	
409.23	7764.5	
409.44	6816.3	
409.64	7017.7	
409.84	8770.8	
410.05	8822	
410.25	7210.2	
410.45	6920.8	
410.66	8721.6	
410.86	10405	
411.06	7722.2	
411.27	7555	
411.47	10604	
411.67	9015.2	
411.88	7819.8	
412.08	8181	
412.28	9633	
412.49	10071	
412.69	7942.7	
412.89	7978.2	
413.09	9919	
413.3	9897.2	
413.5	8161.2	
413.7	7939.3	
413.91	9351.7	
414.11	10045	
414.31	8108.6	
414.52	8618.5	
414.72	9837.8	
414.92	9923.1	
415.12	8090.8	
415.33	8812.4	
415.53	10322	
415.73	10438	
415.94	8955.8	
416.14	8535.9	
416.34	9652.8	
416.55	9344.9	
416.75	9389.3	
416.95	9042.5	
417.15	10635	
417.36	10865	
417.56	9900.6	
417.76	9114.1	
417.97	10829	
418.17	10821	
418.37	8961.9	
418.57	9097.1	
418.78	10740	
418.98	10287	
419.18	9690.3	
419.38	9524.4	
419.59	10282	
419.79	9852.1	
419.99	8768.7	
420.2	8933.9	
420.4	10626	
420.6	10643	
420.8	8819.2	
421.01	8682	
421.21	10814	
421.41	10770	
421.61	9090.9	
421.82	8855.4	
422.02	10400	
422.22	10832	
422.42	9503.3	
422.63	8965.3	
422.83	10336	
423.03	11280	
423.23	8978.3	
423.44	8307.9	
423.64	10323	
423.84	9877.4	
424.04	8693.6	
424.25	8419.9	
424.45	10797	
424.65	10763	
424.85	8165.3	
425.06	8659.5	
425.26	10957	
425.46	10062	
425.66	8930.5	
425.87	8631.5	
426.07	10520	
426.27	10434	
426.47	8813.1	
426.67	8212.4	
426.88	10788	
427.08	10261	
427.28	9168.1	
427.48	8178.9	
427.69	9512.8	
427.89	10015	
428.09	8978.3	
428.29	8180.3	
428.5	10577	
428.7	10264	
428.9	8224.6	
429.1	8501.8	
429.3	10210	
429.51	10531	
429.71	8427.4	
429.91	9280	
430.11	10647	
430.31	10957	
430.52	8923.7	
430.72	9291.6	
430.92	11166	
431.12	10753	
431.32	8795.3	
431.53	9004.9	
431.73	9830.9	
431.93	11069	
432.13	8624.7	
432.33	8648.6	
432.54	10318	
432.74	10611	
432.94	8674.5	
433.14	9492.3	
433.34	10784	
433.55	10710	
433.75	9551.7	
433.95	11058	
434.15	10712	
434.35	10686	
434.56	8932.6	
434.76	8887.5	
434.96	10856	
435.16	11381	
435.36	9122.3	
435.56	10071	
435.77	10964	
435.97	11065	
436.17	10688	
436.37	10073	
436.57	10902	
436.78	11080	
436.98	10873	
437.18	10504	
437.38	11682	
437.58	11094	
437.78	10632	
437.99	9548.3	
438.19	11324	
438.39	11848	
438.59	9349.7	
438.79	8725	
438.99	11610	
439.2	10690	
439.4	8632.9	
439.6	8873.8	
439.8	11095	
440	12060	
440.2	10204	
440.4	10315	
440.61	11979	
440.81	12415	
441.01	10058	
441.21	10825	
441.41	12827	
441.61	12084	
441.81	11045	
442.02	11837	
442.22	12832	
442.42	12332	
442.62	10139	
442.82	9991.4	
443.02	12739	
443.22	12081	
443.43	10668	
443.63	10288	
443.83	11839	
444.03	11996	
444.23	11623	
444.43	11101	
444.63	12640	
444.83	13277	
445.04	10903	
445.24	11697	
445.44	12568	
445.64	12750	
445.84	10895	
446.04	11064	
446.24	11824	
446.44	12655	
446.65	9943.6	
446.85	10522	
447.05	11693	
447.25	12384	
447.45	10589	
447.65	10078	
447.85	12109	
448.05	11473	
448.25	10930	
448.46	10775	
448.66	12026	
448.86	11760	
449.06	10221	
449.26	10981	
449.46	12586	
449.66	11739	
449.86	11015	
450.06	10689	
450.26	11941	
450.47	12473	
450.67	10860	
450.87	11242	
451.07	12596	
451.27	12572	
451.47	10287	
451.67	11017	
451.87	12314	
452.07	12998	
452.27	10877	
452.47	10624	
452.67	12347	
452.88	12854	
453.08	10142	
453.28	11715	
453.48	13575	
453.68	12110	
453.88	10717	
454.08	10826	
454.28	12719	
454.48	12545	
454.68	11307	
454.88	11735	
455.08	12938	
455.28	13194	
455.48	10696	
455.68	11583	
455.89	13679	
456.09	13305	
456.29	11196	
456.49	11486	
456.69	13693	
456.89	12841	
457.09	11951	
457.29	12495	
457.49	13467	
457.69	13910	
457.89	12321	
458.09	11628	
458.29	13741	
458.49	14347	
458.69	12704	
458.89	12362	
459.09	14699	
459.29	14613	
459.49	12308	
459.69	12878	
459.9	14091	
460.1	14145	
460.3	12000	
460.5	11791	
460.7	14169	
460.9	13936	
461.1	11844	
461.3	13056	
461.5	15079	
461.7	14666	
461.9	12743	
462.1	12762	
462.3	14652	
462.5	14902	
462.7	12804	
462.9	13066	
463.1	15960	
463.3	16033	
463.5	13344	
463.7	14472	
463.9	15320	
464.1	15583	
464.3	14163	
464.5	13772	
464.7	15982	
464.9	16011	
465.1	15154	
465.3	14460	
465.5	16076	
465.7	16319	
465.9	14851	
466.1	14156	
466.3	16562	
466.5	15947	
466.7	15750	
466.9	14478	
467.1	16397	
467.3	16941	
467.5	15828	
467.7	14824	
467.9	17429	
468.1	18254	
468.3	15266	
468.5	15988	
468.7	16827	
468.9	16640	
469.1	15454	
469.3	16194	
469.5	18452	
469.7	16836	
469.9	15494	
470.1	15444	
470.3	17099	
470.5	17015	
470.7	16281	
470.9	15271	
471.1	16948	
471.3	16632	
471.5	15174	
471.69	16384	
471.89	16345	
472.09	16016	
472.29	15704	
472.49	15444	
472.69	16441	
472.89	16738	
473.09	15068	
473.29	14689	
473.49	16358	
473.69	16212	
473.89	15582	
474.09	14865	
474.29	17111	
474.49	16920	
474.69	15586	
474.89	14932	
475.09	16336	
475.29	16260	
475.49	14468	
475.69	14780	
475.88	17148	
476.08	16557	
476.28	14686	
476.48	14435	
476.68	16660	
476.88	16315	
477.08	14320	
477.28	14693	
477.48	15744	
477.68	16247	
477.88	14289	
478.08	14450	
478.28	16862	
478.48	16105	
478.67	14687	
478.87	13983	
479.07	16941	
479.27	16132	
479.47	14760	
479.67	14792	
479.87	16535	
480.07	16886	
480.27	14296	
480.47	15358	
480.67	16183	
480.87	16971	
481.06	14450	
481.26	15171	
481.46	16419	
481.66	16234	
481.86	14805	
482.06	15524	
482.26	15943	
482.46	16658	
482.66	14721	
482.86	14453	
483.05	16380	
483.25	15898	
483.45	16670	
483.65	14922	
483.85	16090	
484.05	16495	
484.25	15214	
484.45	15839	
484.65	16969	
484.84	17346	
485.04	14965	
485.24	15012	
485.44	17641	
485.64	16405	
485.84	14736	
486.04	15838	
486.24	16638	
486.44	16827	
486.63	14725	
486.83	15558	
487.03	16840	
487.23	17129	
487.43	14824	
487.63	16788	
487.83	17313	
488.02	17828	
488.22	16016	
488.42	16622	
488.62	17846	
488.82	17034	
489.02	15585	
489.22	15982	
489.41	17756	
489.61	17680	
489.81	15547	
490.01	15670	
490.21	17867	
490.41	18348	
490.61	15711	
490.8	15711	
491	17524	
491.2	16862	
491.4	15860	
491.6	15319	
491.8	17105	
491.99	16913	
492.19	14989	
492.39	14976	
492.59	17376	
492.79	17647	
492.99	16234	
493.18	15647	
493.38	18116	
493.58	18893	
493.78	16622	
493.98	16290	
494.18	18301	
494.37	18034	
494.57	17324	
494.77	17097	
494.97	18978	
495.17	19302	
495.37	17378	
495.56	17586	
495.76	19859	
495.96	19466	
496.16	18443	
496.36	17831	
496.55	19964	
496.75	19403	
496.95	17986	
497.15	17950	
497.35	19602	
497.54	19858	
497.74	17680	
497.94	19256	
498.14	20420	
498.34	20256	
498.53	17853	
498.73	18332	
498.93	19686	
499.13	20208	
499.33	18520	
499.52	18606	
499.72	20581	
499.92	20453	
500.12	18411	
500.32	18555	
500.51	20508	
500.71	20654	
500.91	19368	
501.11	18875	
501.31	20415	
501.5	20783	
501.7	19439	
501.9	18622	
502.1	20362	
502.29	20620	
502.49	19217	
502.69	19106	
502.89	20332	
503.09	20421	
503.28	17882	
503.48	18090	
503.68	19514	
503.88	19573	
504.07	18502	
504.27	18041	
504.47	19865	
504.67	19699	
504.86	18488	
505.06	18235	
505.26	19391	
505.46	20656	
505.65	17870	
505.85	18024	
506.05	19085	
506.25	19328	
506.44	17205	
506.64	17677	
506.84	18786	
507.04	19232	
507.23	17161	
507.43	17536	
507.63	20033	
507.83	18964	
508.02	17663	
508.22	17294	
508.42	20639	
508.62	18861	
508.81	17242	
509.01	17925	
509.21	18484	
509.4	18713	
509.6	17516	
509.8	17162	
510	18756	
510.19	19783	
510.39	17062	
510.59	17087	
510.79	18809	
510.98	19833	
511.18	17468	
511.38	17430	
511.57	19506	
511.77	19187	
511.97	17754	
512.17	16959	
512.36	19228	
512.56	18918	
512.76	16786	
512.95	16590	
513.15	19263	
513.35	18223	
513.55	17641	
513.74	16936	
513.94	19269	
514.14	18834	
514.33	17843	
514.53	17639	
514.73	18816	
514.92	18905	
515.12	17139	
515.32	17025	
515.51	18983	
515.71	19330	
515.91	18382	
516.11	17268	
516.3	20488	
516.5	18925	
516.7	17681	
516.89	18213	
517.09	18749	
517.29	18897	
517.48	17899	
517.68	17241	
517.88	18709	
518.07	19114	
518.27	17782	
518.47	17079	
518.66	19509	
518.86	18483	
519.06	16705	
519.25	17272	
519.45	18811	
519.65	20131	
519.84	17879	
520.04	18542	
520.24	20308	
520.43	19268	
520.63	17428	
520.83	17338	
521.02	18445	
521.22	18764	
521.42	17036	
521.61	17682	
521.81	18569	
522.01	18582	
522.2	17403	
522.4	17060	
522.6	19199	
522.79	18235	
522.99	17392	
523.18	17094	
523.38	19310	
523.58	19442	
523.77	18905	
523.97	17576	
524.17	21319	
524.36	20732	
524.56	19080	
524.76	18738	
524.95	20151	
525.15	19824	
525.34	18631	
525.54	18776	
525.74	20675	
525.93	20049	
526.13	20026	
526.33	19436	
526.52	21180	
526.72	20928	
526.91	19991	
527.11	19469	
527.31	21378	
527.5	21767	
527.7	19753	
527.89	19046	
528.09	20971	
528.29	21685	
528.48	20183	
528.68	19880	
528.87	21635	
529.07	21426	
529.27	19843	
529.46	19275	
529.66	21385	
529.85	21671	
530.05	19324	
530.25	20064	
530.44	22633	
530.64	21132	
530.83	19540	
531.03	19790	
531.23	21628	
531.42	21372	
531.62	20523	
531.81	19989	
532.01	22285	
532.21	22530	
532.4	20431	
532.6	21025	
532.79	23317	
532.99	22913	
533.18	21186	
533.38	21674	
533.58	22707	
533.77	23109	
533.97	21478	
534.16	21946	
534.36	23705	
534.55	22917	
534.75	22092	
534.95	21556	
535.14	23868	
535.34	23055	
535.53	21053	
535.73	22616	
535.92	23828	
536.12	22722	
536.31	20999	
536.51	21980	
536.71	22866	
536.9	22530	
537.1	21117	
537.29	21232	
537.49	23522	
537.68	22586	
537.88	21628	
538.07	20940	
538.27	22861	
538.46	23727	
538.66	21218	
538.86	21547	
539.05	23098	
539.25	23326	
539.44	21936	
539.64	21255	
539.83	22900	
540.03	23596	
540.22	21120	
540.42	20906	
540.61	22606	
540.81	22833	
541	21117	
541.2	21904	
541.39	22259	
541.59	22625	
541.78	21736	
541.98	20736	
542.18	21927	
542.37	21986	
542.57	20812	
542.76	21401	
542.96	21900	
543.15	22106	
543.35	20477	
543.54	20085	
543.74	21989	
543.93	21743	
544.13	20050	
544.32	21131	
544.52	21721	
544.71	21265	
544.91	19602	
545.1	20342	
545.3	21483	
545.49	21786	
545.69	19364	
545.88	19903	
546.08	22679	
546.27	22095	
546.47	20020	
546.66	19615	
546.86	21784	
547.05	22141	
547.24	19658	
547.44	19698	
547.63	20951	
547.83	21764	
548.02	19838	
548.22	19955	
548.41	20604	
548.61	21651	
548.8	19366	
549	19392	
549.19	21039	
549.39	21376	
549.58	18895	
549.78	19344	
549.97	21207	
550.17	20734	
550.36	19802	
550.55	20598	
550.75	20563	
550.94	21087	
551.14	18877	
551.33	18817	
551.53	20107	
551.72	20796	
551.92	19041	
552.11	18819	
552.31	20813	
552.5	20634	
552.69	19918	
552.89	18390	
553.08	20685	
553.28	20326	
553.47	18722	
553.67	19640	
553.86	20875	
554.06	19641	
554.25	17891	
554.44	18335	
554.64	21353	
554.83	21081	
555.03	18427	
555.22	18546	
555.42	20536	
555.61	20102	
555.8	18361	
556	18575	
556.19	19487	
556.39	20342	
556.58	18223	
556.78	18243	
556.97	20184	
557.16	20011	
557.36	19266	
557.55	18115	
557.75	19153	
557.94	20677	
558.13	18116	
558.33	17887	
558.52	20573	
558.72	19411	
558.91	17869	
559.1	17942	
559.3	19169	
559.49	18837	
559.69	17467	
559.88	18053	
560.07	19787	
560.27	19997	
560.46	18196	
560.66	18320	
560.85	19491	
561.04	18619	
561.24	17535	
561.43	17447	
561.63	18884	
561.82	19047	
562.01	18402	
562.21	17801	
562.4	19382	
562.59	20325	
562.79	17661	
562.98	17670	
563.18	19469	
563.37	20666	
563.56	18209	
563.76	17819	
563.95	19255	
564.14	19077	
564.34	17956	
564.53	17697	
564.73	19655	
564.92	19950	
565.11	18249	
565.31	17789	
565.5	20028	
565.69	19268	
565.89	17974	
566.08	18070	
566.27	20070	
566.47	20463	
566.66	18704	
566.85	17690	
567.05	19956	
567.24	19276	
567.44	17933	
567.63	18904	
567.82	20046	
568.02	19695	
568.21	17890	
568.4	18108	
568.6	19752	
568.79	19778	
568.98	17693	
569.18	18035	
569.37	19891	
569.56	21460	
569.76	18547	
569.95	19226	
570.14	20131	
570.34	20114	
570.53	17966	
570.72	17980	
570.91	20497	
571.11	19789	
571.3	18346	
571.49	19029	
571.69	20068	
571.88	19465	
572.07	18873	
572.27	18645	
572.46	19642	
572.65	20339	
572.85	18218	
573.04	18521	
573.23	20480	
573.43	19977	
573.62	18286	
573.81	18733	
574	20256	
574.2	20023	
574.39	18776	
574.58	18766	
574.78	21277	
574.97	20642	
575.16	19260	
575.36	19450	
575.55	21267	
575.74	21031	
575.93	18436	
576.13	19682	
576.32	20484	
576.51	20948	
576.71	18955	
576.9	20095	
577.09	21208	
577.28	20859	
577.48	19302	
577.67	18493	
577.86	20519	
578.05	20829	
578.25	19022	
578.44	19169	
578.63	20716	
578.83	21521	
579.02	18574	
579.21	20025	
579.4	21031	
579.6	20768	
579.79	19187	
579.98	20857	
580.17	21095	
580.37	21178	
580.56	18772	
580.75	19342	
580.94	21376	
581.14	21495	
581.33	19992	
581.52	18910	
581.71	20985	
581.91	21641	
582.1	18953	
582.29	19174	
582.48	20969	
582.68	20757	
582.87	19540	
583.06	19275	
583.25	21156	
583.45	20497	
583.64	19826	
583.83	20514	
584.02	20874	
584.21	21177	
584.41	19759	
584.6	19283	
584.79	20850	
584.98	21642	
585.18	18890	
585.37	18961	
585.56	20454	
585.75	21199	
585.94	18852	
586.14	19432	
586.33	21313	
586.52	20676	
586.71	19112	
586.91	18876	
587.1	19808	
587.29	20648	
587.48	18411	
587.67	18465	
587.87	20230	
588.06	20332	
588.25	19300	
588.44	18628	
588.63	19895	
588.83	20388	
589.02	18137	
589.21	17968	
589.4	19412	
589.59	19282	
589.78	16929	
589.98	16934	
590.17	18245	
590.36	18432	
590.55	15803	
590.74	16051	
590.94	19064	
591.13	17847	
591.32	16023	
591.51	15795	
591.7	18273	
591.89	18103	
592.09	16085	
592.28	16462	
592.47	17476	
592.66	19243	
592.85	16110	
593.05	16469	
593.24	18063	
593.43	18609	
593.62	16462	
593.81	16769	
594	18060	
594.19	18224	
594.39	16197	
594.58	16164	
594.77	18299	
594.96	18650	
595.15	16029	
595.34	16588	
595.54	18032	
595.73	17234	
595.92	15393	
596.11	16084	
596.3	18222	
596.49	17354	
596.68	16059	
596.88	16266	
597.07	17967	
597.26	17122	
597.45	15534	
597.64	16580	
597.83	17423	
598.02	17903	
598.22	15714	
598.41	16096	
598.6	17662	
598.79	17126	
598.98	15454	
599.17	16412	
599.36	17552	
599.55	18286	
599.74	16886	
599.94	16954	
600.13	17858	
600.32	16875	
600.51	15302	
600.7	15384	
600.89	18204	
601.08	18364	
601.27	15225	
601.47	15803	
601.66	17567	
601.85	18014	
602.04	15699	
602.23	15742	
602.42	16901	
602.61	17395	
602.8	15271	
602.99	15104	
603.18	17062	
603.37	17152	
603.57	15570	
603.76	16032	
603.95	17845	
604.14	17471	
604.33	15466	
604.52	15547	
604.71	17340	
604.9	16791	
605.09	15913	
605.28	15700	
605.47	17830	
605.66	17283	
605.86	15737	
606.05	15281	
606.24	17509	
606.43	16521	
606.62	15430	
606.81	15964	
607	17368	
607.19	16824	
607.38	14896	
607.57	15031	
607.76	16595	
607.95	16057	
608.14	15253	
608.33	15746	
608.52	16546	
608.72	17206	
608.91	14600	
609.1	14586	
609.29	16451	
609.48	16130	
609.67	15156	
609.86	14521	
610.05	16199	
610.24	16258	
610.43	14336	
610.62	14059	
610.81	17071	
611	17014	
611.19	14459	
611.38	15182	
611.57	16404	
611.76	17610	
611.95	14183	
612.14	14103	
612.33	16389	
612.52	16004	
612.71	14603	
612.9	13951	
613.09	15707	
613.28	17550	
613.47	14464	
613.66	15033	
613.85	16380	
614.04	15872	
614.24	14397	
614.43	13679	
614.62	16430	
614.81	16375	
615	14722	
615.19	14855	
615.38	15860	
615.57	16273	
615.76	14776	
615.95	15593	
616.14	16516	
616.33	16035	
616.52	14952	
616.71	15089	
616.9	16419	
617.09	16290	
617.28	14534	
617.47	15322	
617.66	15945	
617.85	15877	
618.04	15395	
618.22	14924	
618.41	16342	
618.6	17116	
618.79	14969	
618.98	14899	
619.17	17412	
619.36	16036	
619.55	15035	
619.74	15112	
619.93	16899	
620.12	16486	
620.31	15623	
620.5	15798	
620.69	17591	
620.88	17913	
621.07	16288	
621.26	15777	
621.45	17334	
621.64	17200	
621.83	15648	
622.02	15137	
622.21	17331	
622.4	17094	
622.59	16305	
622.78	16206	
622.97	16886	
623.16	17692	
623.35	15842	
623.54	15115	
623.72	17089	
623.91	17214	
624.1	16122	
624.29	15044	
624.48	18120	
624.67	17462	
624.86	16137	
625.05	15359	
625.24	18024	
625.43	16975	
625.62	17326	
625.81	15537	
626	17691	
626.19	17212	
626.38	16068	
626.56	15614	
626.75	17103	
626.94	17751	
627.13	16154	
627.32	15122	
627.51	17477	
627.7	18525	
627.89	15086	
628.08	16206	
628.27	16903	
628.46	17091	
628.65	15319	
628.83	14994	
629.02	17249	
629.21	16738	
629.4	15799	
629.59	15847	
629.78	16799	
629.97	17625	
630.16	15907	
630.35	15387	
630.54	18002	
630.72	17696	
630.91	15523	
631.1	15771	
631.29	17288	
631.48	17314	
631.67	15922	
631.86	15212	
632.05	17034	
632.24	17017	
632.42	15124	
632.61	15651	
632.8	16923	
632.99	16836	
633.18	15738	
633.37	15803	
633.56	17204	
633.75	17176	
633.93	15537	
634.12	15481	
634.31	17670	
634.5	17537	
634.69	15463	
634.88	15717	
635.07	17058	
635.25	17512	
635.44	16026	
635.63	16287	
635.82	16774	
636.01	16227	
636.2	15982	
636.39	15599	
636.57	17684	
636.76	17169	
636.95	15119	
637.14	16179	
637.33	17212	
637.52	17680	
637.7	14907	
637.89	15678	
638.08	16673	
638.27	17823	
638.46	15575	
638.65	15738	
638.83	17741	
639.02	16550	
639.21	15349	
639.4	15768	
639.59	16701	
639.78	16275	
639.96	14595	
640.15	14629	
640.34	16631	
640.53	16466	
640.72	14382	
640.91	14523	
641.09	15836	
641.28	16802	
641.47	14526	
641.66	15107	
641.85	16241	
642.03	16363	
642.22	14846	
642.41	14417	
642.6	15829	
642.79	15296	
642.97	14155	
643.16	14826	
643.35	15689	
643.54	15399	
643.73	14104	
643.91	14678	
644.1	15214	
644.29	15694	
644.48	13832	
644.67	13966	
644.85	15117	
645.04	15439	
645.23	13382	
645.42	13693	
645.6	14870	
645.79	15607	
645.98	13336	
646.17	12533	
646.36	14367	
646.54	14639	
646.73	13552	
646.92	12785	
647.11	14155	
647.29	14924	
647.48	12678	
647.67	12433	
647.86	15077	
648.05	15234	
648.23	12708	
648.42	13917	
648.61	14553	
648.8	14465	
648.98	12358	
649.17	12749	
649.36	14039	
649.55	13753	
649.73	12407	
649.92	13080	
650.11	14046	
650.3	14251	
650.48	12544	
650.67	12288	
650.86	14186	
651.05	13278	
651.23	12233	
651.42	12383	
651.61	13762	
651.79	13725	
651.98	12486	
652.17	12157	
652.36	13921	
652.54	13314	
652.73	12141	
652.92	11860	
653.11	13863	
653.29	13930	
653.48	11437	
653.67	12210	
653.85	13459	
654.04	14360	
654.23	12027	
654.42	11768	
654.6	12832	
654.79	13300	
654.98	10984	
655.16	11344	
655.35	12086	
655.54	11895	
655.73	10772	
655.91	10701	
656.1	12936	
656.29	12107	
656.47	10542	
656.66	11949	
656.85	12506	
657.03	12686	
657.22	11275	
657.41	11398	
657.59	12798	
657.78	12695	
657.97	11012	
658.16	11626	
658.34	13286	
658.53	13586	
658.72	12168	
658.9	12589	
659.09	13048	
659.28	12914	
659.46	11433	
659.65	11410	
659.84	12696	
660.02	13144	
660.21	11379	
660.4	11097	
660.58	13510	
660.77	12866	
660.96	11718	
661.14	10995	
661.33	13751	
661.52	13693	
661.7	10860	
661.89	13369	
662.08	12508	
662.26	12144	
662.45	11047	
662.64	11009	
662.82	13121	
663.01	12467	
663.2	10975	
663.38	11559	
663.57	12788	
663.75	12806	
663.94	11271	
664.13	12100	
664.31	12486	
664.5	12920	
664.69	11260	
664.87	11777	
665.06	12265	
665.25	12824	
665.43	11983	
665.62	11934	
665.8	12835	
665.99	12285	
666.18	11054	
666.36	11084	
666.55	12838	
666.74	12712	
666.92	10798	
667.11	11924	
667.29	12458	
667.48	12773	
667.67	11680	
667.85	10988	
668.04	12215	
668.22	12175	
668.41	11021	
668.6	11270	
668.78	12112	
668.97	12325	
669.15	11288	
669.34	10506	
669.53	12007	
669.71	12313	
669.9	10616	
670.08	11105	
670.27	12015	
670.46	12559	
670.64	11160	
670.83	11438	
671.01	11742	
671.2	12401	
671.38	10688	
671.57	10500	
671.76	12852	
671.94	13340	
672.13	10397	
672.31	11243	
672.5	12611	
672.69	12024	
672.87	10663	
673.06	10876	
673.24	12521	
673.43	12108	
673.61	11088	
673.8	10788	
673.98	12461	
674.17	12514	
674.36	11271	
674.54	11037	
674.73	12261	
674.91	12441	
675.1	10904	
675.28	10588	
675.47	12091	
675.65	12492	
675.84	10773	
676.03	11080	
676.21	11994	
676.4	11480	
676.58	11228	
676.77	11219	
676.95	13056	
677.14	11848	
677.32	10432	
677.51	10350	
677.69	12523	
677.88	11772	
678.06	10479	
678.25	10517	
678.44	12299	
678.62	11839	
678.81	10375	
678.99	11105	
679.18	12594	
679.36	12301	
679.55	10722	
679.73	11030	
679.92	12357	
680.1	11898	
680.29	11617	
680.47	10676	
680.66	11865	
680.84	12470	
681.03	10143	
681.21	10897	
681.4	11891	
681.58	11754	
681.77	10445	
681.95	10316	
682.14	12417	
682.32	12592	
682.51	11121	
682.69	10094	
682.88	11772	
683.06	12129	
683.25	10800	
683.43	11182	
683.62	12068	
683.8	12291	
683.99	11206	
684.17	10635	
684.36	12766	
684.54	11644	
684.73	9723.1	
684.91	9729.9	
685.1	11484	
685.28	10812	
685.46	9828.9	
685.65	9785.9	
685.83	11239	
686.02	10924	
686.2	9465	
686.39	9566.7	
686.57	10751	
686.76	12081	
686.94	9653.4	
687.13	9842.5	
687.31	11535	
687.5	11193	
687.68	9383.8	
687.86	10327	
688.05	12514	
688.23	10927	
688.42	10479	
688.6	9976.3	
688.79	11263	
688.97	11265	
689.16	10370	
689.34	9459.6	
689.52	11863	
689.71	12032	
689.89	10596	
690.08	10031	
690.26	11773	
690.45	11567	
690.63	10649	
690.81	10256	
691	11559	
691.18	11330	
691.37	10340	
691.55	11893	
691.74	11306	
691.92	12702	
692.1	10257	
692.29	9685.5	
692.47	11367	
692.66	10853	
692.84	9871.2	
693.02	10302	
693.21	11179	
693.39	11318	
693.58	10589	
693.76	10069	
693.94	12510	
694.13	12477	
694.31	10270	
694.5	11036	
694.68	11618	
694.86	11921	
695.05	10759	
695.23	11009	
695.42	12316	
695.6	14072	
695.78	11213	
695.97	10470	
696.15	12443	
696.34	11875	
696.52	10371	
696.7	10952	
696.89	12017	
697.07	11588	
697.25	10830	
697.44	11938	
697.62	12014	
697.81	12150	
697.99	10452	
698.17	10872	
698.36	11500	
698.54	12024	
698.72	10798	
698.91	9998.2	
699.09	11591	
699.28	11471	
699.46	10574	
699.64	10392	
699.83	11384	
700.01	12242	
700.19	11004	
700.38	9762	
700.56	12367	
700.74	11659	
700.93	10185	
701.11	10845	
701.29	12054	
701.48	12935	
701.66	10505	
701.84	10521	
702.03	11937	
702.21	12469	
702.39	10196	
702.58	10821	
702.76	12332	
702.94	12392	
703.13	10216	
703.31	12155	
703.49	11766	
703.68	12639	
703.86	10392	
704.04	11245	
704.23	12106	
704.41	12419	
704.59	10601	
704.78	11399	
704.96	13368	
705.14	12481	
705.33	10374	
705.51	10885	
705.69	12015	
705.87	12689	
706.06	11081	
706.24	10286	
706.42	12209	
706.61	12384	
706.79	11130	
706.97	10365	
707.16	11854	
707.34	12228	
707.52	11008	
707.7	10575	
707.89	11893	
708.07	11681	
708.25	11071	
708.44	11311	
708.62	11721	
708.8	12554	
708.98	11368	
709.17	10613	
709.35	12058	
709.53	12097	
709.72	10216	
709.9	10574	
710.08	12353	
710.26	12271	
710.45	11322	
710.63	10514	
710.81	12000	
710.99	11894	
711.18	10845	
711.36	10315	
711.54	11801	
711.72	12312	
711.91	10350	
712.09	10086	
712.27	11745	
712.45	12110	
712.64	10374	
712.82	9622	
713	11064	
713.18	11148	
713.37	9606.3	
713.55	10363	
713.73	11576	
713.91	10372	
714.1	9398.8	
714.28	8832.2	
714.46	10666	
714.64	9960.6	
714.83	7970.7	
715.01	8406.2	
715.19	9578.3	
715.37	8902.5	
715.55	7929.7	
715.74	7978.9	
715.92	9966.8	
716.1	8376.2	
716.28	8840.4	
716.47	8028	
716.65	8901.2	
716.83	8955.1	
717.01	7914	
717.19	7838.3	
717.38	10462	
717.56	8710	
717.74	8023.9	
717.92	7372	
718.1	9710.1	
718.29	9258.9	
718.47	7440.3	
718.65	7996	
718.83	9987.3	
719.01	10100	
719.2	7623.2	
719.38	8626	
719.56	9990.7	
719.74	11217	
719.92	8342.1	
720.11	8978.3	
720.29	9968.8	
720.47	9232.2	
720.65	7691.5	
720.83	8215.1	
721.02	9212.4	
721.2	8955.8	
721.38	8006.9	
721.56	7420.5	
721.74	8383.7	
721.92	8453.3	
722.11	8273.8	
722.29	8109.3	
722.47	9390.6	
722.65	8740	
722.83	7345.4	
723.01	7886.7	
723.2	8807.6	
723.38	9037	
723.56	7015	
723.74	7766.6	
723.92	8436.3	
724.1	9353.1	
724.29	7382.9	
724.47	8150.2	
724.65	8525	
724.83	8467	
725.01	7141.3	
725.19	7734.5	
725.37	8345.5	
725.56	8432.9	
725.74	6957.6	
725.92	7219.8	
726.1	8383	
726.28	8583.7	
726.46	7455.3	
726.64	7155.6	
726.83	8617.2	
727.01	8678.6	
727.19	6978.1	
727.37	7507.2	
727.55	8735.3	
727.73	9074.5	
727.91	6855.9	
728.09	6873.7	
728.28	9097.8	
728.46	9291.6	
728.64	7673.1	
728.82	7610.9	
729	9818	
729.18	9467.8	
729.36	7103.7	
729.54	8877.9	
729.72	10323	
729.91	8986.5	
730.09	8801.5	
730.27	7808.9	
730.45	9015.8	
730.63	9460.3	
730.81	8317.5	
730.99	7683.3	
731.17	10006	
731.35	8907.3	
731.53	8052.6	
731.71	7748.8	
731.9	9648	
732.08	9762.7	
732.26	7828.7	
732.44	7505.1	
732.62	9798.8	
732.8	9359.2	
732.98	8081.3	
733.16	7372.7	
733.34	9316.9	
733.52	8255.4	
733.7	7632.1	
733.88	7815.7	
734.07	9121	
734.25	8887.5	
734.43	7209.5	
734.61	8387.8	
734.79	10081	
734.97	8856.1	
735.15	7351.5	
735.33	7577.5	
735.51	9116.2	
735.69	8758.5	
735.87	8295.6	
736.05	7582.3	
736.23	8940.7	
736.41	8602.8	
736.59	7558.4	
736.77	7624.6	
736.95	9272.5	
737.13	8830.8	
737.32	7202	
737.5	7333.1	
737.68	9704.6	
737.86	8579.6	
738.04	7006.1	
738.22	8363.9	
738.4	8430.8	
738.58	8630.1	
738.76	7390.4	
738.94	6763.1	
739.12	8494.3	
739.3	8389.2	
739.48	7884.7	
739.66	7590.5	
739.84	8671.1	
740.02	8640.4	
740.2	6720.1	
740.38	6894.8	
740.56	8959.9	
740.74	7983.7	
740.92	7413.6	
741.1	7228	
741.28	8342.1	
741.46	8243.8	
741.64	6941.9	
741.82	7359.7	
742	8432.9	
742.18	8308.6	
742.36	7072.3	
742.54	6756.2	
742.72	8754.4	
742.9	7674.4	
743.08	7222.5	
743.26	6349.4	
743.44	8842.4	
743.62	8594.6	
743.8	7332.4	
743.98	6633.4	
744.16	8349.6	
744.34	8118.1	
744.52	7180.2	
744.7	7082.6	
744.88	8404.2	
745.06	7976.8	
745.24	7115.3	
745.42	7086	
745.6	8390.5	
745.78	8249.9	
745.96	6113.2	
746.14	6326.9	
746.32	8885.5	
746.5	8282.7	
746.68	6701	
746.86	6353.5	
747.03	8505.2	
747.21	7307.2	
747.39	6717.3	
747.57	6238.1	
747.75	7864.2	
747.93	8084.7	
748.11	6208.8	
748.29	6117.3	
748.47	9102.5	
748.65	7644.4	
748.83	6743.3	
749.01	6502.3	
749.19	7987.1	
749.37	7279.8	
749.55	6419.7	
749.73	6361	
749.91	7739.3	
750.09	7423.9	
750.26	6449.1	
750.44	6013.5	
750.62	7740	
750.8	7623.2	
750.98	5854.5	
751.16	6106.4	
751.34	7807.5	
751.52	7266.2	
751.7	6715.3	
751.88	5808	
752.06	8024.6	
752.24	7745.4	
752.42	5684.5	
752.59	5958.9	
752.77	7497.6	
752.95	8460.8	
753.13	6593.8	
753.31	6004	
753.49	7275.1	
753.67	7545.4	
753.85	6165.1	
754.03	5854.5	
754.21	7774.8	
754.38	7917.4	
754.56	5865.4	
754.74	5092.6	
754.92	6839.5	
755.1	7326.3	
755.28	4832.5	
755.46	4818.9	
755.64	7581.6	
755.82	7528.3	
755.99	4663.9	
756.17	4555.4	
756.35	5228.5	
756.53	6251.8	
756.71	3431	
756.89	4213.4	
757.07	5926.8	
757.25	5268.7	
757.42	4617.5	
757.6	5403.2	
757.78	6235.4	
757.96	5552.7	
758.14	4655.7	
758.32	4265.9	
758.5	5274.2	
758.67	5842.9	
758.85	4448.2	
759.03	4548.5	
759.21	6014.9	
759.39	5466	
759.57	4134.8	
759.75	4971.1	
759.92	6468.2	
760.1	5941.2	
760.28	5334.3	
760.46	5604.6	
760.64	5841.5	
760.82	5737.7	
760.99	5319.3	
761.17	4756.1	
761.35	6621.8	
761.53	5750	
761.71	4823.6	
761.89	5420.3	
762.06	6640.9	
762.24	6185.5	
762.42	5001.8	
762.6	4828.4	
762.78	6237.4	
762.96	6704.4	
763.13	5429.2	
763.31	5134.3	
763.49	6885.3	
763.67	6235.4	
763.85	5819	
764.02	6218.3	
764.2	7122.2	
764.38	6438.8	
764.56	5003.2	
764.74	5706.3	
764.91	7156.3	
765.09	6341.2	
765.27	4731.5	
765.45	4630.5	
765.63	7217.7	
765.8	6950.1	
765.98	4392.9	
766.16	4643.4	
766.34	5924.8	
766.52	5726.1	
766.69	5326.1	
766.87	4429.8	
767.05	6220.4	
767.23	6798.6	
767.41	4672.8	
767.58	4849.6	
767.76	6553.5	
767.94	6595.8	
768.12	4676.9	
768.29	5190.9	
768.47	6038.1	
768.65	6614.3	
768.83	4339.6	
769	5186.1	
769.18	5722.7	
769.36	6247	
769.54	5147.9	
769.72	4315.8	
769.89	6434.7	
770.07	6513.2	
770.25	4519.2	
770.43	5501.5	
770.6	6971.3	
770.78	7305.1	
770.96	4656.4	
771.14	5112.4	
771.31	6369.2	
771.49	5804.6	
771.67	3949.8	
771.85	4091.2	
772.02	5181.4	
772.2	5794.4	
772.38	4607.2	
772.55	4303.5	
772.73	5926.1	
772.91	5787.6	
773.09	4453	
773.26	4647.5	
773.44	5924.1	
773.62	5608.7	
773.8	4115.1	
773.97	3905.5	
774.15	5885.9	
774.33	5588.9	
774.5	4007.2	
774.68	4270	
774.86	6027.2	
775.04	5529.5	
775.21	4074.1	
775.39	4040	
775.57	5797.8	
775.74	6022.4	
775.92	3849.5	
776.1	3719.8	
776.27	5673.6	
776.45	6587	
776.63	3932.1	
776.81	3621.5	
776.98	5414.8	
777.16	6145.3	
777.34	4060.4	
777.51	4207.2	
777.69	5368.4	
777.87	5187.5	
778.04	4135.5	
778.22	4487.1	
778.4	5141.8	
778.57	5644.2	
778.75	3431	
778.93	3678.2	
779.1	5122	
779.28	4835.9	
779.46	3471.3	
779.64	3828.3	
779.81	5771.9	
779.99	6374	
780.17	4438.6	
780.34	4472.1	
780.52	5361.6	
780.69	5485.1	
780.87	4072	
781.05	3720.5	
781.22	5365	
781.4	5402.5	
781.58	3780.6	
781.75	3142.9	
781.93	5385.5	
782.11	4835.9	
782.28	4396.3	
782.46	3785.3	
782.64	4698.7	
782.81	5493.3	
782.99	3775.1	
783.17	3719.8	
783.34	5293.3	
783.52	4766.3	
783.69	3853.6	
783.87	4545.1	
784.05	4816.1	
784.22	4807.9	
784.4	4461.2	
784.58	3975.8	
784.75	5535	
784.93	4907.6	
785.1	3649.5	
785.28	4125.3	
785.46	5326.8	
785.63	4749.2	
785.81	3740.3	
785.99	3530	
786.16	4928.1	
786.34	5223	
786.51	3544.4	
786.69	3894.6	
786.87	4532.2	
787.04	4881	
787.22	3460.4	
787.39	4175.8	
787.57	4726.7	
787.75	5593.7	
787.92	4268.6	
788.1	4214	
788.27	4656.4	
788.45	4511	
788.63	3992.2	
788.8	3013.9	
788.98	5036.6	
789.15	4523.3	
789.33	3148.4	
789.5	3596.9	
789.68	5470.8	
789.86	5500.2	
790.03	3953.9	
790.21	3446.7	
790.38	5538.4	
790.56	4803.2	
790.73	3097.2	
790.91	3390.8	
791.09	4737	
791.26	5238.7	
791.44	3566.2	
791.61	3128.6	
791.79	4695.3	
791.96	4715.1	
792.14	3254.2	
792.32	2905.4	
792.49	4662.5	
792.67	4791.6	
792.84	3295.9	
793.02	3169.6	
793.19	5072.8	
793.37	5593.7	
793.54	2942.2	
793.72	3137.5	
793.89	5592.3	
794.07	4661.2	
794.25	3514.3	
794.42	3013.9	
794.6	5477.6	
794.77	5160.9	
794.95	3799.7	
795.12	3381.2	
795.3	4700.8	
795.47	5116.5	
795.65	3680.2	
795.82	3546.4	
796	4531.5	
796.17	5969.1	
796.35	3463.1	
796.52	3960.8	
796.7	5095.3	
796.87	5159.5	
797.05	3403	
797.22	4085.7	
797.4	5157.5	
797.57	5877.7	
797.75	3573	
797.92	3300	
798.1	5403.2	
798.27	4573.8	
798.45	2911.5	
798.62	3158.7	
798.8	4859.8	
798.97	5291.3	
799.15	3762.1	
799.32	3540.9	
799.5	4318.5	
799.67	4907.6	
799.85	3786.7	
800.02	2836.4	
800.2	4567	
800.37	4861.9	
800.55	3917.1	
800.72	3364.1	
800.9	5201.2	
801.07	5557.5	
801.25	4338.3	
801.42	3652.2	
801.6	5245.5	
801.77	4895.3	
801.95	3366.2	
802.12	3245.3	
802.29	5014.1	
802.47	4893.3	
802.64	3629.7	
802.82	2824.8	
802.99	4588.8	
803.17	5292.6	
803.34	3509.5	
803.52	3200.3	
803.69	5789.6	
803.87	4377.9	
804.04	3483.6	
804.21	3538.2	
804.39	5424.4	
804.56	4716.5	
804.74	3097.9	
804.91	3627	
805.09	4569	
805.26	4644.8	
805.44	3074.7	
805.61	3336.8	
805.78	5134.3	
805.96	5081.7	
806.13	3593.5	
806.31	3829.7	
806.48	4182.6	
806.66	4609.3	
806.83	3581.9	
807	3548.4	
807.18	4574.5	
807.35	4834.6	
807.53	3493.8	
807.7	2867.2	
807.87	5430.5	
808.05	4573.8	
808.22	3812.6	
808.4	2882.2	
808.57	4500.1	
808.74	4314.4	
808.92	3188	
809.09	4022.9	
809.27	4575.2	
809.44	4902.8	
809.61	2853.5	
809.79	3116.3	
809.96	5530.2	
810.14	5091.9	
810.31	2831	
810.48	3371	
810.66	4612.7	
810.83	5141.8	
811.01	3189.4	
811.18	3543.7	
811.35	5180	
811.53	4123.2	
811.7	3827.7	
811.87	3543.7	
812.05	4609.3	
812.22	4464.6	
812.39	3176.4	
812.57	2973	
812.74	4604.5	
812.92	5837.4	
813.09	3377.8	
813.26	3579.2	
813.44	5590.3	
813.61	4463.9	
813.78	2878.8	
813.96	3772.4	
814.13	4583.4	
814.3	4291.2	
814.48	3979.2	
814.65	3360	
814.82	5458.5	
815	4309.6	
815.17	3405.1	
815.34	4074.8	
815.52	4472.1	
815.69	4491.2	
815.87	3403.7	
816.04	3310.2	
816.21	4562.2	
816.38	4129.4	
816.56	3311.6	
816.73	3111.5	
816.9	5642.8	
817.08	5124	
817.25	3149.1	
817.42	3837.2	
817.6	4194.9	
817.77	4510.3	
817.94	3465.8	
818.12	3082.2	
818.29	4369.7	
818.46	6320.7	
818.64	3239.9	
818.81	3059	
818.98	4366.3	
819.16	5867.4	
819.33	3663.1	
819.5	3435.1	
819.67	4838	
819.85	5343.8	
820.02	3359.4	
820.19	3574.4	
820.37	4707.6	
820.54	4478.9	
820.71	3490.4	
820.88	4225.6	
821.06	4698.7	
821.23	4386.7	
821.4	3520.5	
821.58	3437.9	
821.75	5119.9	
821.92	4657.8	
822.09	2884.9	
822.27	2970.9	
822.44	4539	
822.61	4459.8	
822.79	2890.4	
822.96	5249.6	
823.13	4887.1	
823.3	4272.1	
823.48	3286.3	
823.65	2930	
823.82	5098.8	
823.99	4247.5	
824.17	4025.6	
824.34	3004.4	
824.51	5809.4	
824.68	4602.5	
824.86	3158.7	
825.03	3454.2	
825.2	4556	
825.37	5336.3	
825.55	3123.2	
825.72	3401	
825.89	5774.6	
826.06	5423	
826.24	3319.8	
826.41	3394.2	
826.58	5386.2	
826.75	4799.1	
826.92	2753.2	
827.1	2966.1	
827.27	7074.4	
827.44	5696.8	
827.61	3197.6	
827.79	3772.4	
827.96	4353.3	
828.13	4577.9	
828.3	3381.2	
828.47	2817.3	
828.65	4765.6	
828.82	4783.4	
828.99	4138.9	
829.16	3647.4	
829.34	5088.5	
829.51	4891.9	
829.68	3428.3	
829.85	3449.5	
830.02	5398.4	
830.2	5107	
830.37	2688.3	
830.54	4001	
830.71	5653.8	
830.88	4605.2	
831.05	2706	
831.23	3149.1	
831.4	5500.2	
831.57	6030.6	
831.74	3183.9	
831.91	2847.4	
832.09	4850.3	
832.26	5063.3	
832.43	3250.1	
832.6	3621.5	
832.77	4803.9	
832.94	5353.4	
833.12	2684.9	
833.29	3229	
833.46	4513	
833.63	6193.7	
833.8	3539.6	
833.97	3277.4	
834.15	5107.6	
834.32	4918.5	
834.49	3368.2	
834.66	3404.4	
834.83	5163.6	
835	4375.1	
835.17	3179.1	
835.35	3145.7	
835.52	4989.5	
835.69	4918.5	
835.86	3295.2	
836.03	2792.7	
836.2	5026.4	
836.37	4711.7	
836.55	3237.8	
836.72	3015.3	
836.89	4743.8	
837.06	5097.4	
837.23	3265.1	
837.4	3588	
837.57	5715.9	
837.75	6141.9	
837.92	3046	
838.09	3174.4	
838.26	4741.7	
838.43	5238	
838.6	3391.4	
838.77	3087	
838.94	5893.4	
839.11	5778	
839.29	3280.2	
839.46	2641.9	
839.63	5015.5	
839.8	4867.3	
839.97	3177.8	
840.14	3188.7	
840.31	4917.2	
840.48	5144.5	
840.65	2668.5	
840.82	3132.7	
841	4992.3	
841.17	4953.4	
841.34	2887.6	
841.51	3019.4	
841.68	4940.4	
841.85	4784.7	
842.02	3052.8	
842.19	2592	
842.36	4881.7	
842.53	4896.7	
842.7	2925.2	
842.87	3488.4	
843.05	6191.7	
843.22	4786.8	
843.39	2890.4	
843.56	3027.6	
843.73	4673.5	
843.9	5122.7	
844.07	4594.3	
844.24	3806.5	
844.41	6881.9	
844.58	4448.2	
844.75	2863.7	
844.92	3041.9	
845.09	4990.2	
845.26	5028.4	
845.43	2916.3	
845.6	3064.4	
845.77	5055.1	
845.94	4818.2	
846.12	3194.1	
846.29	3393.5	
846.46	5229.8	
846.63	5005.9	
846.8	2877.4	
846.97	3393.5	
847.14	5429.2	
847.31	4971.1	
847.48	3236.5	
847.65	3596.9	
847.82	5318.6	
847.99	5204.6	
848.16	3781.9	
848.33	3515	
848.5	4680.3	
848.67	5367.7	
848.84	2884.9	
849.01	3003.7	
849.18	4644.1	
849.35	4392.9	
849.52	3620.8	
849.69	2839.8	
849.86	5269.4	
850.03	5259.9	
850.2	2942.2	
850.37	3493.8	
850.54	5193	
850.71	4708.3	
850.88	3526.6	
851.05	2891	
851.22	4886.5	
851.39	5459.9	
851.56	2736.8	
851.73	3262.4	
851.9	4506.2	
852.07	5197.1	
852.24	3202.3	
852.41	2887	
852.58	4972.5	
852.75	4533.5	
852.92	3255.6	
853.09	2798.2	
853.26	4685.8	
853.43	5350.7	
853.6	2926.5	
853.77	2493.7	
853.94	5381.4	
854.11	4443.4	
854.28	4167.6	
854.44	3164.8	
854.61	5742.5	
854.78	5241.4	
854.95	2897.9	
855.12	3533.4	
855.29	4148.5	
855.46	5532.2	
855.63	2902	
855.8	3979.2	
855.97	4668	
856.14	5304.9	
856.31	4027	
856.48	3110.9	
856.65	4743.8	
856.82	4453	
856.99	2827.6	
857.16	3076.7	
857.33	5893.4	
857.49	4763.6	
857.66	3125.9	
857.83	3333.4	
858	4711	
858.17	4884.4	
858.34	2805.7	
858.51	2908.1	
858.68	5470.8	
858.85	5495.4	
859.02	3301.3	
859.19	3517.7	
859.36	4452.3	
859.52	4418.8	
859.69	2926.5	
859.86	3369.6	
860.03	4549.9	
860.2	5401.9	
860.37	2692.4	
860.54	2912.9	
860.71	5151.3	
860.88	5452.4	
861.05	3175	
861.21	3593.5	
861.38	5466	
861.55	4360.1	
861.72	2693.8	
861.89	3190.7	
862.06	5233.2	
862.23	5547.3	
862.4	2788	
862.56	3001.6	
862.73	5122	
862.9	4847.5	
863.07	3418.7	
863.24	2668.5	
863.41	4418.2	
863.58	4483	
863.75	2949.8	
863.91	3327.9	
864.08	5354.8	
864.25	5098.8	
864.42	3543.7	
864.59	3927.3	
864.76	5662.6	
864.93	4493.9	
865.09	2838.5	
865.26	3121.1	
865.43	5397.1	
865.6	5700.2	
865.77	2575	
865.94	2837.1	
866.1	5310.4	
866.27	5074.2	
866.44	4171	
866.61	2816	
866.78	4792.2	
866.95	5087.8	
867.11	2865.1	
867.28	2603	
867.45	5238	
867.62	4519.9	
867.79	3299.3	
867.96	2863.1	
868.12	4449.6	
868.29	5176.6	
868.46	2864.4	
868.63	3790.8	
868.8	5281.7	
868.97	5132.9	
869.13	2977.7	
869.3	2996.9	
869.47	5038.7	
869.64	5258.5	
869.81	2879.4	
869.97	2852.1	
870.14	4934.2	
870.31	5483.8	
870.48	2795.5	
870.65	3597.6	
870.81	4763.6	
870.98	4715.1	
871.15	3242.6	
871.32	2981.2	
871.48	5084.4	
871.65	5547.9	
871.82	2869.2	
871.99	3140.9	
872.16	5799.8	
872.32	5322	
872.49	2975.7	
872.66	2970.9	
872.83	5111	
872.99	4572.4	
873.16	3244.7	
873.33	2902.7	
873.5	4866	
873.67	4937.7	
873.83	3034.4	
874	3766.9	
874.17	4964.3	
874.34	5724.8	
874.5	3657.7	
874.67	3498.6	
874.84	5466	
875.01	4362.9	
875.17	3920.5	
875.34	2826.2	
875.51	4906.3	
875.68	5812.1	
875.84	3448.8	
876.01	4106.9	
876.18	5108.3	
876.34	5095.3	
876.51	2880.8	
876.68	2838.5	
876.85	4719.9	
877.01	5416.2	
877.18	4014	
877.35	2859	
877.52	4969.1	
877.68	4451.6	
877.85	2818	
878.02	2910.2	
878.18	4791.6	
878.35	4588.8	
878.52	2340.1	
878.69	3140.9	
878.85	5198.4	
879.02	5080.3	
879.19	3978.5	
879.35	3054.9	
879.52	5102.9	
879.69	5219.6	
879.86	2544.9	
880.02	3260.4	
880.19	4829.1	
880.36	5757.5	
880.52	3244.7	
880.69	3408.5	
880.86	5169.8	
881.02	5253.7	
881.19	3201.7	
881.36	3134.1	
881.52	5114.5	
881.69	4550.6	
881.86	3069.9	
882.02	3056.9	
882.19	5339.1	
882.36	6094.1	
882.52	2954.5	
882.69	3926.6	
882.86	4975.2	
883.02	4917.9	
883.19	3458.3	
883.36	3278.8	
883.52	5182.7	
883.69	5812.8	
883.86	2911.5	
884.02	2682.8	
884.19	5137	
884.36	4858.5	
884.52	3245.3	
884.69	3037.8	
884.86	4681	
885.02	5581.4	
885.19	3159.3	
885.36	3275.4	
885.52	4780.6	
885.69	4941.7	
885.86	4044.7	
886.02	3654.9	
886.19	5184.1	
886.35	4639.3	
886.52	3186.6	
886.69	3923.9	
886.85	4474.1	
887.02	5403.2	
887.19	5403.2	
887.35	5403.2	
887.52	5403.2	
887.68	5403.2	
887.85	5403.2	
888.02	5403.2	
888.18	5403.2	
888.35	5403.2	
888.51	5403.2	
888.68	5403.2	
888.85	5403.2	
889.01	5403.2	
889.18	5403.2	
889.35	5403.2	
889.51	5403.2	
889.68	5403.2	
889.84	5403.2	
890.01	5403.2	
890.17	5403.2	
890.34	5403.2	
890.51	5403.2	
890.67	5403.2	
890.84	5403.2	
891	5403.2	
891.17	5403.2	
891.34	5403.2	
891.5	5403.2	
891.67	5403.2	
891.83	5403.2	
892	5403.2	
892.16	5403.2	
892.33	5403.2	
892.5	5403.2	
892.66	5403.2	
892.83	5403.2	
892.99	5403.2	
893.16	5403.2	
893.32	5403.2	
893.49	5403.2	
893.65	5403.2	
893.82	5403.2	
893.99	5403.2	
894.15	5403.2	
894.32	5403.2	
894.48	5403.2	
894.65	5403.2	
894.81	5403.2	
894.98	5403.2	
895.14	5403.2	
895.31	5403.2	
895.47	5403.2	
895.64	5403.2	
895.81	5403.2	
895.97	5403.2	
896.14	5403.2	
896.3	5403.2	
896.47	5403.2	
896.63	5403.2	
896.8	5403.2	
896.96	5403.2	
897.13	5403.2	
897.29	5403.2	
897.46	5403.2	
897.62	5403.2	
897.79	5403.2	
897.95	5403.2	
898.12	5403.2	
898.28	5403.2	
898.45	5403.2	
898.61	5403.2	
898.78	5403.2	
898.94	5403.2	
899.11	5403.2	
899.27	5403.2	
899.44	5403.2	
899.6	5403.2	
899.77	5403.2	
899.93	5403.2	
900.1	5403.2	
900.26	5403.2	
900.43	5403.2	
900.59	5403.2	
900.76	5403.2	
900.92	5403.2	
901.09	5403.2	
901.25	5403.2	
901.42	5403.2	
901.58	5403.2	
901.75	5403.2	
901.91	5403.2	
902.07	5403.2	
902.24	5403.2	
902.4	5403.2	
902.57	5403.2	
902.73	5403.2	
902.9	5403.2	
903.06	5403.2	
903.23	5403.2	
903.39	5403.2	
903.56	5403.2	
903.72	5403.2	
903.88	5403.2	
904.05	5403.2	
904.21	5403.2	
904.38	5403.2	
904.54	5403.2	
904.71	5403.2	
904.87	5403.2	
905.03	5403.2	
905.2	5403.2	
905.36	5403.2	
905.53	5403.2	
905.69	5403.2	
905.86	5403.2	
906.02	5403.2	
906.18	5403.2	
906.35	5403.2	
906.51	5403.2	
906.68	5403.2	
906.84	5403.2	
907.01	5403.2	
907.17	5403.2	
907.33	5403.2	
907.5	5403.2	
907.66	5403.2	
907.83	5403.2	
907.99	5403.2	
908.15	5403.2	
908.32	5403.2	
908.48	5403.2	
908.65	5403.2	
908.81	5403.2	
908.97	5403.2	
909.14	5403.2	
909.3	5403.2	
909.47	5403.2	
909.63	5403.2	
909.79	5403.2	
909.96	5403.2	
910.12	5403.2	
910.28	5403.2	
910.45	5403.2	
910.61	5403.2	
910.78	5403.2	
910.94	5403.2	
911.1	5403.2	
911.27	5403.2	
911.43	5403.2	
911.59	5403.2	
911.76	5403.2	
911.92	5403.2	
912.08	5403.2	
912.25	5403.2	
912.41	5403.2	
912.57	5403.2	
912.74	5403.2	
912.9	5403.2	
913.07	5403.2	
913.23	5403.2	
913.39	5403.2	
913.56	5403.2	
913.72	5403.2	
913.88	5403.2	
914.05	5403.2	
914.21	5403.2	
914.37	5403.2	
914.54	5403.2	
914.7	5403.2	
914.86	5403.2	
915.03	5403.2	
915.19	5403.2	
