Wavelength	Intensities	
nm	a.u.	
179.22	1742	
179.44	1733.6	
179.65	1750.3	
179.86	1716.9	
180.08	1738.7	
180.29	4142.4	
180.51	3105.4	
180.72	5100.8	
180.94	5760.3	
181.15	2837.1	
181.37	2829.6	
181.58	4940.4	
181.79	5101.5	
182.01	3018	
182.22	3071.3	
182.44	5144.5	
182.65	4452.3	
182.87	3814.7	
183.08	3439.2	
183.29	5464.7	
183.51	4550.6	
183.72	3123.8	
183.94	4347.8	
184.15	4869.4	
184.37	4839.4	
184.58	2800.3	
184.79	3666.5	
185.01	4575.8	
185.22	5112.4	
185.44	3850.9	
185.65	3324.5	
185.86	4835.3	
186.08	4419.5	
186.29	2747	
186.51	2937.5	
186.72	4590.2	
186.94	5311.7	
187.15	3333.4	
187.36	3399.6	
187.58	6627.2	
187.79	4964.3	
188.01	3533.4	
188.22	5386.8	
188.43	5790.3	
188.65	5191.6	
188.86	2977.1	
189.08	3456.3	
189.29	4654.4	
189.5	4674.8	
189.72	3183.9	
189.93	3196.2	
190.15	5298.1	
190.36	6229.9	
190.57	3473.4	
190.79	3335.5	
191	5330.9	
191.22	5348.6	
191.43	3504.8	
191.64	2951.1	
191.86	5565	
192.07	5323.4	
192.29	3035.8	
192.5	3150.5	
192.71	5318.6	
192.93	4683.7	
193.14	3157.3	
193.35	3253.5	
193.57	4715.1	
193.78	5283.8	
194	2646.7	
194.21	3150.5	
194.42	4471.4	
194.64	4886.5	
194.85	3401.7	
195.07	3900	
195.28	4885.8	
195.49	4308.9	
195.71	4098.7	
195.92	2946.3	
196.13	5003.2	
196.35	5089.9	
196.56	4366.3	
196.78	3381.9	
196.99	6135	
197.2	5753.4	
197.42	3844.7	
197.63	3445.4	
197.84	4403.1	
198.06	5089.2	
198.27	3122.5	
198.48	4107.5	
198.7	4704.9	
198.91	4847.5	
199.13	3419.4	
199.34	3413.3	
199.55	5240.8	
199.77	4248.2	
199.98	3049.4	
200.19	3500	
200.41	4774.5	
200.62	4516.5	
200.83	3465.2	
201.05	3788.1	
201.26	4790.9	
201.47	4628.4	
201.69	3025.5	
201.9	2983.9	
202.11	4935.6	
202.33	5614.2	
202.54	3251.5	
202.76	3691.8	
202.97	4912.4	
203.18	4944.5	
203.4	3507.5	
203.61	3543	
203.82	4924.7	
204.04	4612	
204.25	3459	
204.46	3362.1	
204.68	4834.6	
204.89	5104.2	
205.1	3316.3	
205.32	2932.7	
205.53	5151.3	
205.74	5322.7	
205.96	2549.7	
206.17	3452.2	
206.38	5152	
206.6	5259.9	
206.81	3951.2	
207.02	3217.4	
207.24	5063.3	
207.45	5387.5	
207.66	3293.8	
207.88	2900.6	
208.09	5011.4	
208.3	4832.5	
208.52	3052.2	
208.73	3310.9	
208.94	4853.7	
209.15	5391.6	
209.37	3312.2	
209.58	3696.6	
209.79	5290.6	
210.01	4688.5	
210.22	2710.8	
210.43	2781.1	
210.65	4846.2	
210.86	5150.6	
211.07	3268.6	
211.29	3003.7	
211.5	5091.3	
211.71	4860.5	
211.93	2994.8	
212.14	3024.8	
212.35	4797.7	
212.56	4934.2	
212.78	3485	
212.99	2840.5	
213.2	5527.5	
213.42	4722.6	
213.63	3149.8	
213.84	3249.4	
214.06	4390.8	
214.27	4531.5	
214.48	3229.6	
214.69	3491.8	
214.91	5419.6	
215.12	5389.6	
215.33	3502	
215.55	3788.7	
215.76	5795.8	
215.97	5142.4	
216.18	3356.6	
216.4	3347.1	
216.61	4586.8	
216.82	5248.9	
217.04	3065.1	
217.25	3199.6	
217.46	5321.3	
217.67	5160.9	
217.89	2752.5	
218.1	2838.5	
218.31	4897.4	
218.53	5052.3	
218.74	3240.6	
218.95	3119.1	
219.16	4823	
219.38	5552.7	
219.59	3083.6	
219.8	3644	
220.01	6070.9	
220.23	4888.5	
220.44	3923.2	
220.65	2981.8	
220.87	4955.4	
221.08	5404.6	
221.29	2852.8	
221.5	3663.1	
221.72	6356.2	
221.93	4610.7	
222.14	3525.9	
222.35	4000.4	
222.57	4835.9	
222.78	5180	
222.99	3306.1	
223.2	3533.4	
223.42	5127.4	
223.63	5224.4	
223.84	2547.7	
224.05	2591.4	
224.27	5987.6	
224.48	5516.5	
224.69	4020.8	
224.9	3534.8	
225.12	4984.1	
225.33	4819.6	
225.54	2812.5	
225.75	3115.6	
225.97	4498	
226.18	4831.8	
226.39	3274	
226.6	3081.5	
226.82	4708.3	
227.03	4529.4	
227.24	3420.1	
227.45	2863.7	
227.67	5225.7	
227.88	5532.2	
228.09	3839.9	
228.3	3793.5	
228.52	5183.4	
228.73	4785.4	
228.94	3181.2	
229.15	2901.3	
229.36	4818.9	
229.58	4748.6	
229.79	3207.8	
230	3717.1	
230.21	5723.4	
230.43	4942.4	
230.64	3386.7	
230.85	3519.1	
231.06	5255.1	
231.28	5172.5	
231.49	2899.9	
231.7	3395.5	
231.91	5191.6	
232.12	4884.4	
232.34	2980.5	
232.55	3312.9	
232.76	5328.1	
232.97	4988.9	
233.18	2991.4	
233.4	3425.6	
233.61	5027.1	
233.82	4705.5	
234.03	3187.3	
234.25	3096.5	
234.46	6550.1	
234.67	4900.1	
234.88	3481.5	
235.09	3151.8	
235.31	5076.9	
235.52	4773.8	
235.73	3443.3	
235.94	2865.1	
236.15	4627.7	
236.37	5722.7	
236.58	3012.6	
236.79	3319.8	
237	5137.7	
237.21	4439.3	
237.43	3538.2	
237.64	2813.9	
237.85	8140.7	
238.06	4553.3	
238.27	3503.4	
238.48	2945	
238.7	5178.6	
238.91	4726.7	
239.12	3272.7	
239.33	3315.7	
239.54	4664.6	
239.76	4791.6	
239.97	3265.1	
240.18	3288.4	
240.39	5917.9	
240.6	5029.1	
240.82	3420.8	
241.03	2835.1	
241.24	4782	
241.45	5514.5	
241.66	3031.7	
241.87	3493.2	
242.09	5446.2	
242.3	5709.1	
242.51	3547.8	
242.72	3321.8	
242.93	5185.5	
243.14	4801.8	
243.36	3762.8	
243.57	4055	
243.78	5569.1	
243.99	5176.6	
244.2	3289	
244.41	3051.5	
244.63	4515.1	
244.84	5061.9	
245.05	3495.9	
245.26	3299.3	
245.47	5100.1	
245.68	5206.6	
245.9	4226.3	
246.11	3428.3	
246.32	4707.6	
246.53	5042.8	
246.74	5122	
246.95	2835.1	
247.16	4500.8	
247.38	4839.4	
247.59	2878.1	
247.8	3346.4	
248.01	4586.1	
248.22	4773.8	
248.43	3087	
248.64	3300.6	
248.86	4394.3	
249.07	4704.2	
249.28	2979.8	
249.49	3340.9	
249.7	5305.6	
249.91	5361.6	
250.12	2812.5	
250.34	2857.6	
250.55	4991.6	
250.76	4864.6	
250.97	3402.4	
251.18	3405.8	
251.39	5339.7	
251.6	5020.3	
251.81	3466.5	
252.03	3454.2	
252.24	4643.4	
252.45	5190.9	
252.66	2917	
252.87	3603.7	
253.08	4893.3	
253.29	6105.7	
253.5	2967.5	
253.72	3939.6	
253.93	4803.2	
254.14	5638.1	
254.35	3155.2	
254.56	3257	
254.77	5031.2	
254.98	4530.1	
255.19	3130	
255.41	3934.1	
255.62	4977.2	
255.83	5380.7	
256.04	3596.2	
256.25	3433.1	
256.46	5853.8	
256.67	4648.9	
256.88	3367.5	
257.09	3726.6	
257.31	4524	
257.52	4577.9	
257.73	4227	
257.94	3154.6	
258.15	4775.2	
258.36	4868	
258.57	3897.3	
258.78	2542.9	
258.99	5304.9	
259.2	4736.3	
259.41	3176.4	
259.63	3316.3	
259.84	5551.4	
260.05	5836.7	
260.26	4059.8	
260.47	3160.7	
260.68	5350.7	
260.89	4691.9	
261.1	3728	
261.31	3022.1	
261.52	5334.3	
261.73	5632.6	
261.95	4031.8	
262.16	3482.9	
262.37	5390.3	
262.58	5484.5	
262.79	3986.7	
263	3179.8	
263.21	4871.4	
263.42	4771.1	
263.63	3467.2	
263.84	3249.4	
264.05	5324	
264.26	5578.7	
264.47	3937.6	
264.69	3517.7	
264.9	5475.6	
265.11	5044.8	
265.32	3024.8	
265.53	3175	
265.74	4952	
265.95	4405.2	
266.16	3336.8	
266.37	3697.3	
266.58	4974.5	
266.79	4659.1	
267	3160.7	
267.21	2964.1	
267.42	4530.8	
267.63	4807.9	
267.84	3344.3	
268.06	2852.8	
268.27	5248.3	
268.48	5441.5	
268.69	3196.9	
268.9	3787.4	
269.11	5440.1	
269.32	4422.2	
269.53	3304.1	
269.74	3088.3	
269.95	5068.7	
270.16	4346.5	
270.37	3336.1	
270.58	3827.7	
270.79	4771.8	
271	5268.1	
271.21	3510.9	
271.42	3361.4	
271.63	4968.4	
271.84	4526	
272.05	2725.2	
272.26	2961.4	
272.47	4887.1	
272.68	5059.8	
272.89	3156.6	
273.11	3659	
273.32	4691.2	
273.53	5595.7	
273.74	3565.5	
273.95	3477.5	
274.16	5250.3	
274.37	4862.6	
274.58	3586	
274.79	2923.1	
275	5028.4	
275.21	5357.5	
275.42	4348.5	
275.63	3697.9	
275.84	5104.2	
276.05	6244.9	
276.26	3465.2	
276.47	3236.5	
276.68	4792.2	
276.89	5680.4	
277.1	3672	
277.31	2948.4	
277.52	5104.9	
277.73	5294.7	
277.94	2866.5	
278.15	3160.7	
278.36	5047.6	
278.57	4633.9	
278.78	3140.9	
278.99	3577.8	
279.2	4659.1	
279.41	4536.9	
279.62	4126	
279.83	2936.8	
280.04	5753.4	
280.25	4500.8	
280.46	4087.1	
280.67	3347.1	
280.88	4611.3	
281.09	5393.7	
281.3	3446.7	
281.51	4232.5	
281.72	4621.6	
281.93	5233.2	
282.14	3080.8	
282.35	3343.7	
282.56	5272.2	
282.77	5255.1	
282.98	3206.4	
283.19	3865.2	
283.4	6303	
283.61	4771.8	
283.82	3013.2	
284.03	3936.9	
284.24	4995	
284.45	5375.2	
284.66	4085	
284.87	3863.2	
285.08	5350.7	
285.29	5401.2	
285.5	2868.5	
285.71	3262.4	
285.92	5274.9	
286.12	5926.8	
286.33	3964.9	
286.54	3261	
286.75	5304.9	
286.96	4756.1	
287.17	3013.9	
287.38	3876.1	
287.59	4615.4	
287.8	4605.9	
288.01	3237.2	
288.22	3644.7	
288.43	5225.7	
288.64	4475.5	
288.85	3838.6	
289.06	3635.1	
289.27	5173.2	
289.48	5558.9	
289.69	4035.9	
289.9	3677.5	
290.11	5395.7	
290.32	4666	
290.53	3870.7	
290.74	3523.9	
290.94	5238.7	
291.15	5224.4	
291.36	3194.8	
291.57	3648.1	
291.78	4709	
291.99	4351.9	
292.2	3026.9	
292.41	3572.3	
292.62	5311.7	
292.83	5109.7	
293.04	4368.3	
293.25	3080.1	
293.46	4714.4	
293.67	5277.6	
293.88	3078.8	
294.09	3042.6	
294.29	4571.7	
294.5	4977.9	
294.71	3355.3	
294.92	3229.6	
295.13	4704.2	
295.34	5760.9	
295.55	2807.1	
295.76	2794.8	
295.97	5159.5	
296.18	5773.9	
296.39	2961.4	
296.6	3155.9	
296.81	4927.4	
297.01	5152	
297.22	3315.7	
297.43	3115	
297.64	4667.3	
297.85	4592.9	
298.06	2626.9	
298.27	2837.8	
298.48	4912.4	
298.69	4629.8	
298.9	3382.6	
299.11	3094.5	
299.31	4561.5	
299.52	4533.5	
299.73	3579.8	
299.94	3500	
300.15	4871.4	
300.36	4583.4	
300.57	3480.9	
300.78	3496.6	
300.99	4782.7	
301.2	4906.3	
301.4	3158.7	
301.61	3274	
301.82	5104.2	
302.03	5252.4	
302.24	3749.8	
302.45	2968.2	
302.66	5131.5	
302.87	5394.3	
303.08	3104.7	
303.29	4162.2	
303.49	4666.6	
303.7	4828.4	
303.91	2832.3	
304.12	4038.6	
304.33	4464.6	
304.54	4935.6	
304.75	3127.9	
304.96	3022.1	
305.16	5107.6	
305.37	5725.4	
305.58	2824.1	
305.79	2885.6	
306	5111.7	
306.21	4413.4	
306.42	3072.6	
306.63	4575.8	
306.83	4764.9	
307.04	5318.6	
307.25	3344.3	
307.46	3335.5	
307.67	4279.6	
307.88	5197.7	
308.09	3097.9	
308.29	3161.4	
308.5	4931.5	
308.71	5317.9	
308.92	3365.5	
309.13	3100.6	
309.34	4764.9	
309.55	4810	
309.75	3835.8	
309.96	3537.5	
310.17	5219.6	
310.38	4618.9	
310.59	3635.1	
310.8	2925.2	
311.01	4695.3	
311.21	4798.4	
311.42	3031	
311.63	3115	
311.84	4672.1	
312.05	4883	
312.26	3478.1	
312.46	3699.3	
312.67	4730.8	
312.88	4487.8	
313.09	2959.3	
313.3	2982.5	
313.51	5517.2	
313.71	5808	
313.92	3071.3	
314.13	3176.4	
314.34	5083.1	
314.55	4833.2	
314.76	3792.2	
314.96	3360	
315.17	4949.9	
315.38	5105.6	
315.59	3061.7	
315.8	2925.9	
316.01	5456.5	
316.21	5653.8	
316.42	2966.1	
316.63	3337.5	
316.84	4797	
317.05	5372.5	
317.26	3518.4	
317.46	3216	
317.67	4842.1	
317.88	5204.6	
318.09	3751.9	
318.3	2835.8	
318.5	4668.7	
318.71	5046.9	
318.92	4724	
319.13	3551.2	
319.34	5248.3	
319.54	5324	
319.75	2833.7	
319.96	2704	
320.17	5130.8	
320.38	5277.6	
320.58	2774.3	
320.79	3290.4	
321	5306.3	
321.21	5421	
321.42	3309.5	
321.62	2742.2	
321.83	4614.8	
322.04	4866.7	
322.25	3226.2	
322.46	3020.8	
322.66	4956.1	
322.87	5098.1	
323.08	3670.6	
323.29	2955.9	
323.5	5775.3	
323.7	4495.3	
323.91	4001	
324.12	3652.9	
324.33	5010	
324.53	5171.8	
324.74	3509.5	
324.95	3680.2	
325.16	4394.3	
325.37	4726.7	
325.57	3061.7	
325.78	3061.7	
325.99	4983.4	
326.2	4442.7	
326.4	4224.3	
326.61	2887.6	
326.82	4821.6	
327.03	4986.1	
327.24	4197	
327.44	3933.5	
327.65	5083.7	
327.86	4205.2	
328.07	3516.4	
328.27	2930	
328.48	5455.8	
328.69	4493.9	
328.9	4272.7	
329.1	3198.2	
329.31	4768.4	
329.52	5461.2	
329.73	3069.9	
329.93	3340.2	
330.14	4884.4	
330.35	5003.2	
330.56	4773.1	
330.76	3717.7	
330.97	4680.3	
331.18	4974.5	
331.39	3405.8	
331.59	2764.1	
331.8	5363.6	
332.01	5410.7	
332.22	3186.6	
332.42	3516.4	
332.63	5008.6	
332.84	4594.3	
333.05	3370.3	
333.25	3113.6	
333.46	4654.4	
333.67	4860.5	
333.88	3210.5	
334.08	3429.7	
334.29	6802.7	
334.5	5362.3	
334.7	2996.9	
334.91	4140.3	
335.12	4479.6	
335.33	5164.3	
335.53	3337.5	
335.74	4736.3	
335.95	4723.3	
336.16	4545.8	
336.36	3322.5	
336.57	3827	
336.78	4525.3	
336.98	5276.3	
337.19	4028.4	
337.4	3268.6	
337.61	5752.1	
337.81	4504.2	
338.02	3110.2	
338.23	3893.2	
338.43	5470.8	
338.64	4608.6	
338.85	3068.5	
339.05	3928	
339.26	5507.7	
339.47	4425.7	
339.68	3065.1	
339.88	4312.3	
340.09	5094.7	
340.3	5257.1	
340.5	3534.8	
340.71	2753.2	
340.92	4540.3	
341.13	5391.6	
341.33	2934.1	
341.54	3553.9	
341.75	5051.7	
341.95	4703.5	
342.16	3384.6	
342.37	3691.8	
342.57	4526.7	
342.78	4790.9	
342.99	3730.7	
343.19	2768.9	
343.4	5192.3	
343.61	5060.5	
343.81	3241.3	
344.02	2902.7	
344.23	5182.7	
344.43	5438.7	
344.64	3711.6	
344.85	3639.9	
345.06	5101.5	
345.26	5305.6	
345.47	3518.4	
345.68	4051.6	
345.88	4441.4	
346.09	5225.1	
346.3	3599	
346.5	2683.5	
346.71	4847.5	
346.92	4628.4	
347.12	2884.9	
347.33	3476.1	
347.54	5276.3	
347.74	5586.2	
347.95	3448.8	
348.16	2631.6	
348.36	4679.6	
348.57	4545.8	
348.78	3486.3	
348.98	3631	
349.19	4801.8	
349.39	4446.8	
349.6	2849.4	
349.81	3072.6	
350.01	5049.6	
350.22	4603.2	
350.43	3360.7	
350.63	3945.1	
350.84	4866	
351.05	4646.8	
351.25	3048.1	
351.46	2818	
351.67	5283.8	
351.87	4558.8	
352.08	3262.4	
352.29	3675.4	
352.49	5143.8	
352.7	5210.7	
352.9	2970.2	
353.11	3627	
353.32	5642.8	
353.52	4668.7	
353.73	2959.3	
353.94	3680.2	
354.14	5104.2	
354.35	4837.3	
354.55	3020.8	
354.76	3345.7	
354.97	5028.4	
355.17	4864.6	
355.38	2904	
355.59	3877.5	
355.79	4532.8	
356	4931.5	
356.2	3312.9	
356.41	2922.5	
356.62	4410.6	
356.82	4732.9	
357.03	3501.3	
357.24	3177.1	
357.44	4625	
357.65	4627	
357.85	4154	
358.06	3349.8	
358.27	4325.3	
358.47	4528.1	
358.68	2823.5	
358.88	3498.6	
359.09	5010.7	
359.3	5315.2	
359.5	4049.5	
359.71	3590.8	
359.91	5601.2	
360.12	5038.7	
360.33	3480.2	
360.53	3915	
360.74	4600.4	
360.94	4644.8	
361.15	3653.6	
361.36	3059	
361.56	5235.3	
361.77	4719.2	
361.97	4007.9	
362.18	3207.8	
362.38	5197.1	
362.59	4481.6	
362.8	2976.4	
363	2843.3	
363.21	4280.9	
363.41	4852.3	
363.62	3422.8	
363.83	4147.1	
364.03	4911	
364.24	5634	
364.44	4276.8	
364.65	4178.5	
364.85	4739	
365.06	4471.4	
365.27	3119.1	
365.47	3170.3	
365.68	5385.5	
365.88	4711.7	
366.09	3433.8	
366.29	3205.8	
366.5	4874.2	
366.71	5175.9	
366.91	4213.4	
367.12	3599	
367.32	5729.5	
367.53	5084.4	
367.73	3555.3	
367.94	4344.4	
368.14	5128.1	
368.35	5706.3	
368.56	3528	
368.76	3350.5	
368.97	5207.3	
369.17	6431.3	
369.38	3107.5	
369.58	3341.6	
369.79	4381.3	
369.99	5453.7	
370.2	4134.8	
370.4	3431	
370.61	4939	
370.82	5923.4	
371.02	3351.8	
371.23	2832.3	
371.43	4425	
371.64	5424.4	
371.84	3396.2	
372.05	4250.9	
372.25	6361.7	
372.46	5063.3	
372.66	3362.8	
372.87	3346.4	
373.07	5238	
373.28	6434	
373.48	4147.8	
373.69	3909.6	
373.9	4788.8	
374.1	4786.8	
374.31	4065.2	
374.51	3697.9	
374.72	5360.9	
374.92	4528.7	
375.13	4158.1	
375.33	3578.5	
375.54	5046.9	
375.74	4656.4	
375.95	3627.6	
376.15	4612	
376.36	5083.1	
376.56	4919.2	
376.77	3620.1	
376.97	3999	
377.18	5915.9	
377.38	5174.5	
377.59	4214.7	
377.79	3208.5	
378	4949.3	
378.2	5273.5	
378.41	3328.6	
378.61	3228.3	
378.82	5387.5	
379.02	4689.8	
379.23	3454.2	
379.43	4272.7	
379.64	5442.8	
379.84	5105.6	
380.05	3304.1	
380.25	3272	
380.46	5228.5	
380.66	4881.7	
380.87	4356.7	
381.07	4584	
381.28	5621	
381.48	5190.2	
381.69	3369.6	
381.89	3335.5	
382.1	4406.5	
382.3	5347.2	
382.51	4279.6	
382.71	4817.5	
382.91	5201.2	
383.12	5535.7	
383.32	3618.1	
383.53	3835.8	
383.73	5065.3	
383.94	4939	
384.14	3780.6	
384.35	3042.6	
384.55	4850.3	
384.76	5111	
384.96	3618.8	
385.17	3850.9	
385.37	5308.3	
385.58	4651.6	
385.78	3852.9	
385.98	3003.7	
386.19	4755.4	
386.39	5127.4	
386.6	3431.7	
386.8	3579.8	
387.01	5186.1	
387.21	5219.6	
387.42	3971	
387.62	4394.9	
387.83	4700.1	
388.03	5042.8	
388.23	3662.5	
388.44	4166.9	
388.64	4534.9	
388.85	4547.9	
389.05	3885	
389.26	4354	
389.46	6065.4	
389.67	5559.6	
389.87	3928	
390.07	3941	
390.28	4900.1	
390.48	4539.7	
390.69	3274	
390.89	3549.1	
391.1	4740.4	
391.3	5444.9	
391.5	4458.4	
391.71	4931.5	
391.91	5273.5	
392.12	5951.4	
392.32	4508.9	
392.53	3951.9	
392.73	4846.9	
392.93	4904.9	
393.14	3693.9	
393.34	4526.7	
393.55	5294	
393.75	4930.8	
393.95	3697.9	
394.16	3646.1	
394.36	4772.4	
394.57	5246.2	
394.77	3279.5	
394.98	3562.1	
395.18	4688.5	
395.38	4843.4	
395.59	4218.1	
395.79	3447.4	
396	4812.7	
396.2	5212.8	
396.4	4046.1	
396.61	3975.8	
396.81	5270.8	
397.02	4728.1	
397.22	4270	
397.42	4375.1	
397.63	5425.8	
397.83	4692.6	
398.04	3424.9	
398.24	3806.5	
398.44	5158.2	
398.65	4401.8	
398.85	3303.4	
399.05	3351.2	
399.26	4748.6	
399.46	6062.7	
399.67	3681.6	
399.87	3482.9	
400.07	4960.2	
400.28	5233.2	
400.48	3535.5	
400.69	4330.8	
400.89	5403.2	
401.09	5771.2	
401.3	3463.8	
401.5	4290.5	
401.7	5900.2	
401.91	6140.5	
402.11	3804.4	
402.32	3938.2	
402.52	5421	
402.72	5374.6	
402.93	4077.5	
403.13	3248.1	
403.33	6057.9	
403.54	5036	
403.74	3855	
403.94	4461.2	
404.15	5130.2	
404.35	5935.7	
404.56	3693.9	
404.76	5060.5	
404.96	5382.1	
405.17	5292	
405.37	4609.3	
405.57	4052.9	
405.78	5460.6	
405.98	5029.8	
406.18	3715.7	
406.39	4361.5	
406.59	5410.7	
406.79	5072.1	
407	3505.4	
407.2	3635.1	
407.4	5545.9	
407.61	5541.8	
407.81	3588.7	
408.01	5428.5	
408.22	4534.9	
408.42	6112.5	
408.62	4416.8	
408.83	4048.2	
409.03	5162.2	
409.23	4999.1	
409.44	4057.7	
409.64	4227.7	
409.84	5848.3	
410.05	5767.8	
410.25	4130.1	
410.45	4005.1	
410.66	5336.3	
410.86	7263.5	
411.06	4303.5	
411.27	4227	
411.47	7116.7	
411.67	5567.1	
411.88	4396.3	
412.08	4627.7	
412.28	5997.8	
412.49	6419.7	
412.69	4237.2	
412.89	4248.9	
413.09	6264.7	
413.3	6191	
413.5	4330.8	
413.7	4083.6	
413.91	5597.1	
414.11	6244.9	
414.31	4158.7	
414.52	4440	
414.72	6001.2	
414.92	5851.7	
415.12	4247.5	
415.33	4608.6	
415.53	6169.8	
415.73	6300.2	
415.94	4862.6	
416.14	4457.1	
416.34	5450.3	
416.55	5266	
416.75	5395.7	
416.95	4971.8	
417.15	6285.9	
417.36	6752.8	
417.56	5483.8	
417.76	4764.9	
417.97	6438.8	
418.17	6139.1	
418.37	4447.5	
418.57	4556	
418.78	6130.3	
418.98	5880.4	
419.18	5208	
419.38	5130.2	
419.59	5830.6	
419.79	5580	
419.99	4359.4	
420.2	4633.2	
420.4	6305.7	
420.6	6378.1	
420.8	4334.2	
421.01	4261.1	
421.21	6169.8	
421.41	6205.3	
421.61	4641.4	
421.82	4450.2	
422.02	5774.6	
422.22	6544.6	
422.42	5085.8	
422.63	4777.9	
422.83	5825.8	
423.03	6774	
423.23	4826.4	
423.44	3962.8	
423.64	5869.5	
423.84	5717.9	
424.04	4364.2	
424.25	4074.8	
424.45	6621.1	
424.65	6553.5	
424.85	3973.1	
425.06	4391.5	
425.26	6705	
425.46	5778.7	
425.66	4801.8	
425.87	4548.5	
426.07	6418.3	
426.27	6301.6	
426.47	4708.3	
426.67	4135.5	
426.88	6679.1	
427.08	6236.7	
427.28	4889.9	
427.48	4103.4	
427.69	5401.2	
427.89	5917.9	
428.09	4755.4	
428.29	4143	
428.5	6346	
428.7	6085.9	
428.9	3977.2	
429.1	4485.1	
429.3	6104.3	
429.51	6266.8	
429.71	4346.5	
429.91	4917.2	
430.11	6343.9	
430.31	6485.9	
430.52	4564.2	
430.72	4788.2	
430.92	6707.1	
431.12	6255.9	
431.32	4310.3	
431.53	4659.1	
431.73	5479.7	
431.93	6796.5	
432.13	4199.7	
432.33	4109.6	
432.54	5823.7	
432.74	6119.3	
432.94	4074.1	
433.14	4923.3	
433.34	6313.2	
433.55	5942.5	
433.75	4843.4	
433.95	6239.5	
434.15	6106.4	
434.35	5849.7	
434.56	4316.4	
434.76	3839.9	
434.96	6098.9	
435.16	6327.5	
435.36	4179.2	
435.56	4997.7	
435.77	5836.7	
435.97	5944.6	
436.17	5591.6	
436.37	5070.8	
436.57	5815.5	
436.78	5724.1	
436.98	6455.2	
437.18	5485.8	
437.38	6347.3	
437.58	5930.2	
437.78	5578	
437.99	4588.1	
438.19	6425.8	
438.39	7496.9	
438.59	4541.7	
438.79	4082.3	
438.99	6881.2	
439.2	5961.6	
439.4	4162.8	
439.6	4150.5	
439.8	6172.6	
440	6986.3	
440.2	5004.6	
440.4	5023.7	
440.61	6461.3	
440.81	6901.7	
441.01	4405.2	
441.21	5205.3	
441.41	6822.5	
441.61	6526.9	
441.81	5311.1	
442.02	6087.9	
442.22	7275.1	
442.42	6688	
442.62	4458.4	
442.82	4547.9	
443.02	6906.4	
443.22	6243.6	
443.43	4825	
443.63	4405.2	
443.83	6001.9	
444.03	6042.2	
444.23	5410.7	
444.43	5153.4	
444.63	6363.7	
444.83	7257.3	
445.04	4654.4	
445.24	5545.9	
445.44	6640.9	
445.64	6692.8	
445.84	5246.2	
446.04	5143.1	
446.24	6131.6	
446.44	6855.2	
446.65	4542.4	
446.85	4832.5	
447.05	6402.6	
447.25	6877.1	
447.45	4969.7	
447.65	4463.9	
447.85	6427.9	
448.05	6078.4	
448.25	5276.9	
448.46	5029.8	
448.66	6361	
448.86	6055.8	
449.06	4347.8	
449.26	5256.5	
449.46	6707.8	
449.66	5946.6	
449.86	4880.3	
450.06	4889.9	
450.26	6089.3	
450.47	6550.8	
450.67	5075.5	
450.87	5320.6	
451.07	6719.4	
451.27	6430.6	
451.47	4586.8	
451.67	4932.9	
451.87	6094.8	
452.07	7132.4	
452.27	4790.2	
452.47	4734.2	
452.67	6500.9	
452.88	6729.6	
453.08	4263.9	
453.28	5837.4	
453.48	7348.8	
453.68	6298.2	
453.88	4645.5	
454.08	4782.7	
454.28	6661.4	
454.48	6471.6	
454.68	5310.4	
454.88	5716.6	
455.08	6898.9	
455.28	6613.6	
455.48	4594.3	
455.68	5094	
455.89	7216.4	
456.09	6888	
456.29	4846.2	
456.49	4859.8	
456.69	7101.7	
456.89	6492.1	
457.09	5343.8	
457.29	5657.2	
457.49	6719.4	
457.69	6849.1	
457.89	5253.7	
458.09	4678.2	
458.29	6623.8	
458.49	7194.5	
458.69	5522	
458.89	5098.1	
459.09	7346.1	
459.29	7540.6	
459.49	5175.2	
459.69	5739.8	
459.9	7016.3	
460.1	6675	
460.3	5072.8	
460.5	4896	
460.7	6976.7	
460.9	6677.7	
461.1	4611.3	
461.3	5688.6	
461.5	7573.4	
461.7	7165.8	
461.9	5074.9	
462.1	5333.6	
462.3	6851.8	
462.5	7217.7	
462.7	5109	
462.9	5160.9	
463.1	8075.8	
463.3	7857.4	
463.5	5344.5	
463.7	6007.4	
463.9	7050.5	
464.1	7298.3	
464.3	5492	
464.5	5616.9	
464.7	7617.1	
464.9	7271.7	
465.1	6606.7	
465.3	5945.9	
465.5	7774.1	
465.7	7835.5	
465.9	6068.8	
466.1	6006	
466.3	7649.2	
466.5	7539.9	
466.7	6655.9	
466.9	5845.6	
467.1	7523.6	
467.3	8291.5	
467.5	6728.3	
467.7	5800.5	
467.9	8460.8	
468.1	9106	
468.3	6346	
468.5	6756.9	
468.7	7535.2	
468.9	7444.4	
469.1	6074.3	
469.3	6591.7	
469.5	9157.8	
469.7	7262.8	
469.9	6436.8	
470.1	5881.8	
470.3	7610.9	
470.5	7593.9	
470.7	6882.5	
470.9	5885.9	
471.1	7314.7	
471.3	7739.3	
471.5	5824.4	
471.69	7202	
471.89	7361.8	
472.09	6960.4	
472.29	6466.8	
472.49	6675	
472.69	7142.6	
472.89	7677.2	
473.09	5776.6	
473.29	5898.1	
473.49	7231.4	
473.69	7320.8	
473.89	6604.7	
474.09	5950.7	
474.29	8354.3	
474.49	8103.8	
474.69	6594.5	
474.89	6032	
475.09	7363.1	
475.29	7325.6	
475.49	5634	
475.69	5819.6	
475.88	8690.2	
476.08	7742.7	
476.28	5599.8	
476.48	5924.1	
476.68	8007.6	
476.88	7877.9	
477.08	5839.4	
477.28	6080.4	
477.48	7551.5	
477.68	7976.2	
477.88	5655.8	
478.08	5911.8	
478.28	8230.1	
478.48	7524.9	
478.67	5954.8	
478.87	5484.5	
479.07	7983	
479.27	7640.3	
479.47	6083.1	
479.67	6151.4	
479.87	8003.5	
480.07	8379.6	
480.27	5551.4	
480.47	6840.9	
480.67	7685.3	
480.87	8182.3	
481.06	5899.5	
481.26	6503.7	
481.46	7717.4	
481.66	7651.2	
481.86	6182.8	
482.06	6882.5	
482.26	7451.9	
482.46	8157.7	
482.66	6092.7	
482.86	5838.8	
483.05	7743.4	
483.25	7264.8	
483.45	8063.5	
483.65	6132.3	
483.85	7402	
484.05	7660.8	
484.25	6530.3	
484.45	6899.6	
484.65	8251.3	
484.84	8327	
485.04	6085.9	
485.24	6113.2	
485.44	8692.3	
485.64	7213.6	
485.84	5605.3	
486.04	6723.5	
486.24	7559.1	
486.44	7903.1	
486.63	5569.8	
486.83	6326.9	
487.03	7487.4	
487.23	7650.5	
487.43	5653.8	
487.63	7531.1	
487.83	7761.8	
488.02	8469.7	
488.22	6488	
488.42	6904.4	
488.62	8370	
488.82	7537.9	
489.02	6183.5	
489.22	6208.1	
489.41	8349.6	
489.61	8055.3	
489.81	6008.7	
490.01	5924.1	
490.21	8226.7	
490.41	8809.7	
490.61	6061.3	
490.8	6145.3	
491	7886	
491.2	7445	
491.4	6567.2	
491.6	5915.9	
491.8	7908.6	
491.99	7929.1	
492.19	5793.7	
492.39	6025.1	
492.59	8195.3	
492.79	8330.5	
492.99	6725.5	
493.18	5995.1	
493.38	8469.7	
493.58	9019.9	
493.78	6606.7	
493.98	6277.7	
494.18	8199.4	
494.37	7863.5	
494.57	6798.6	
494.77	6647	
494.97	8475.2	
495.17	8663.6	
495.37	6479.1	
495.56	6666.1	
495.76	8883.4	
495.96	8529.1	
496.16	7507.9	
496.36	6685.9	
496.55	8803.5	
496.75	8338.6	
496.95	6976.7	
497.15	6923.5	
497.35	8811	
497.54	8702.5	
497.74	6716.7	
497.94	8234.2	
498.14	9359.2	
498.34	9095.7	
498.53	6453.8	
498.73	7195.2	
498.93	8228.1	
499.13	8609	
499.33	6974	
499.52	7315.3	
499.72	8806.3	
499.92	8951.7	
500.12	6748.7	
500.32	6983.6	
500.51	9106.6	
500.71	8817.2	
500.91	7663.5	
501.11	7339.2	
501.31	8890.2	
501.5	9341.5	
501.7	7829.4	
501.9	6991.8	
502.1	8759.2	
502.29	9117.6	
502.49	7423.9	
502.69	7790.5	
502.89	8948.3	
503.09	9035.6	
503.28	6606.1	
503.48	6738.5	
503.68	8371.4	
503.88	8312.7	
504.07	7565.9	
504.27	7100.3	
504.47	8742.8	
504.67	8779	
504.86	7499.7	
505.06	7202.7	
505.26	8486.1	
505.46	9809.8	
505.65	7141.9	
505.85	7243.7	
506.05	8347.5	
506.25	8795.3	
506.44	6612.9	
506.64	7346.1	
506.84	8260.1	
507.04	9026.8	
507.23	6791.1	
507.43	7211.6	
507.63	9828.9	
507.83	8417.8	
508.02	7229.3	
508.22	6844.3	
508.42	10157	
508.62	8256	
508.81	7301.7	
509.01	7574.8	
509.21	8189.1	
509.4	8402.1	
509.6	7359	
509.8	6774	
510	8475.9	
510.19	9437	
510.39	6737.1	
510.59	6853.2	
510.79	8378.2	
510.98	9453.4	
511.18	6870.3	
511.38	7034.8	
511.57	9049.3	
511.77	8772.1	
511.97	7513.3	
512.17	6810.9	
512.36	9042.5	
512.56	8856.8	
512.76	6840.2	
512.95	6594.5	
513.15	9039.1	
513.35	7849.2	
513.55	7477.1	
513.74	6779.5	
513.94	9013.1	
514.14	8529.1	
514.33	7641	
514.53	7423.2	
514.73	8499.8	
514.92	8604.2	
515.12	6958.3	
515.32	6831.3	
515.51	8752.3	
515.71	9023.4	
515.91	8271.1	
516.11	6862.1	
516.3	9999.5	
516.5	8482.7	
516.7	7417.7	
516.89	7811.6	
517.09	8515.5	
517.29	8477.9	
517.48	7805.5	
517.68	7183.6	
517.88	8381	
518.07	8873.8	
518.27	7615	
518.47	6737.8	
518.66	9256.1	
518.86	8247.9	
519.06	6735.8	
519.25	7017	
519.45	8521.6	
519.65	9658.9	
519.84	7580.2	
520.04	8097	
520.24	10082	
520.43	9023.4	
520.63	7350.2	
520.83	7169.9	
521.02	8489.5	
521.22	8964.6	
521.42	7555.6	
521.61	7960.5	
521.81	8631.5	
522.01	8733.9	
522.2	7430	
522.4	7211.6	
522.6	9191.3	
522.79	8174.1	
522.99	7357.7	
523.18	6816.3	
523.38	9004.9	
523.58	9045.9	
523.77	8474.5	
523.97	6860	
524.17	10495	
524.36	9830.2	
524.56	7993.2	
524.76	7724.3	
524.95	9137.4	
525.15	8834.9	
525.34	7528.3	
525.54	7658	
525.74	9499.2	
525.93	8685.4	
526.13	8634.2	
526.33	7684.7	
526.52	9725.1	
526.72	9340.1	
526.91	8632.2	
527.11	8073.8	
527.31	9828.9	
527.5	10174	
527.7	8112.7	
527.89	7296.2	
528.09	9067	
528.29	9571.5	
528.48	8415.8	
528.68	8150.2	
528.87	9751.1	
529.07	9824.8	
529.27	8110	
529.46	7805.5	
529.66	9699.9	
529.85	9980.4	
530.05	7674.4	
530.25	8256.7	
530.44	10723	
530.64	9523.1	
530.83	7944.1	
531.03	8192.6	
531.23	9973.6	
531.42	9833	
531.62	8724.3	
531.81	8142.7	
532.01	10211	
532.21	10381	
532.4	8050.6	
532.6	8394.6	
532.79	10831	
532.99	10290	
533.18	8415.1	
533.38	9161.9	
533.58	9910.1	
533.77	10532	
533.97	8559.8	
534.16	9118.9	
534.36	10812	
534.55	10032	
534.75	9221.3	
534.95	8583	
535.14	10712	
535.34	9994.8	
535.53	8322.9	
535.73	9921.7	
535.92	11178	
536.12	10102	
536.31	8403.5	
536.51	9364	
536.71	10425	
536.9	10015	
537.1	8466.3	
537.29	8626	
537.49	10722	
537.68	9957.9	
537.88	8899.8	
538.07	8205.5	
538.27	10245	
538.46	11124	
538.66	8276.5	
538.86	8733.2	
539.05	10283	
539.25	10585	
539.44	8941.4	
539.64	8548.2	
539.83	10244	
540.03	10920	
540.22	8477.9	
540.42	8504.5	
540.61	10378	
540.81	10494	
541	8874.5	
541.2	9449.3	
541.39	10051	
541.59	10277	
541.78	9210.4	
541.98	8357.1	
542.18	9753.1	
542.37	9785.9	
542.57	8760.5	
542.76	9155.1	
542.96	9778.4	
543.15	10268	
543.35	8785.1	
543.54	8211.7	
543.74	10407	
543.93	10186	
544.13	8752.3	
544.32	9523.1	
544.52	10325	
544.71	9714.9	
544.91	8021.2	
545.1	8936.7	
545.3	9807.7	
545.49	10336	
545.69	7897.7	
545.88	8383.7	
546.08	11113	
546.27	10590	
546.47	8759.8	
546.66	8185.7	
546.86	10486	
547.05	10911	
547.24	8417.2	
547.44	8364.6	
547.63	9643.2	
547.83	10469	
548.02	8551.6	
548.22	8787.8	
548.41	9552.4	
548.61	10544	
548.8	8260.1	
549	8133.8	
549.19	10132	
549.39	10264	
549.58	8008.2	
549.78	8439	
549.97	10254	
550.17	9829.6	
550.36	9034.3	
550.55	9898.5	
550.75	9931.3	
550.94	10642	
551.14	8160.5	
551.33	8325.7	
551.53	9355.8	
551.72	10042	
551.92	8449.2	
552.11	8277.2	
552.31	10166	
552.5	10148	
552.69	9573.6	
552.89	8019.2	
553.08	10130	
553.28	9863	
553.47	8197.3	
553.67	9153.7	
553.86	10701	
554.06	9217.2	
554.25	7657.4	
554.44	8112	
554.64	11189	
554.83	10825	
555.03	8021.9	
555.22	8386.4	
555.42	10231	
555.61	10088	
555.8	8221.2	
556	8337.3	
556.19	9273.9	
556.39	10358	
556.58	8284	
556.78	8211.7	
556.97	9955.2	
557.16	9647.3	
557.36	9147.6	
557.55	8012.3	
557.75	9161.2	
557.94	10598	
558.13	7999.4	
558.33	7931.8	
558.52	10434	
558.72	9429.5	
558.91	7894.9	
559.1	8032.1	
559.3	9265.7	
559.49	9022.7	
559.69	7512.6	
559.88	8242.4	
560.07	9956.5	
560.27	10217	
560.46	8490.9	
560.66	8524.3	
560.85	9668.5	
561.04	9044.5	
561.24	7789.1	
561.43	7959.1	
561.63	9282.8	
561.82	9488.9	
562.01	8959.2	
562.21	8121.6	
562.4	9810.5	
562.59	10528	
562.79	8148.2	
562.98	7887.4	
563.18	9725.8	
563.37	10828	
563.56	8454.7	
563.76	7835.5	
563.95	9411.8	
564.14	9366.7	
564.34	8249.9	
564.53	7937.2	
564.73	9839.1	
564.92	10041	
565.11	8330.5	
565.31	7836.2	
565.5	10302	
565.69	9286.9	
565.89	8038.3	
566.08	8149.6	
566.27	10190	
566.47	10519	
566.66	8746.2	
566.85	7678.5	
567.05	9891	
567.24	9465.7	
567.44	7820.5	
567.63	8912.1	
567.82	10030	
568.02	9737.4	
568.21	7905.8	
568.4	8251.9	
568.6	9764.7	
568.79	9729.2	
568.98	7840.3	
569.18	7858.1	
569.37	9740.8	
569.56	11265	
569.76	8267	
569.95	9046.6	
570.14	10034	
570.34	9949.7	
570.53	7828	
570.72	7863.5	
570.91	10446	
571.11	9688.9	
571.3	8200.7	
571.49	8871.1	
571.69	9793.4	
571.88	9414.5	
572.07	8605.6	
572.27	8591.2	
572.46	9381.1	
572.65	10221	
572.85	8001.4	
573.04	8372.8	
573.23	10411	
573.43	9824.8	
573.62	7931.8	
573.81	8323.6	
574	9911.5	
574.2	9791.3	
574.39	8189.8	
574.58	8320.9	
574.78	10489	
574.97	10087	
575.16	8675.2	
575.36	8742.1	
575.55	10301	
575.74	10481	
575.93	7956.4	
576.13	8759.8	
576.32	9839.1	
576.51	10374	
576.71	8334.6	
576.9	9435	
577.09	10675	
577.28	10081	
577.48	8676.6	
577.67	7971.4	
577.86	9906	
578.05	10073	
578.25	8383.7	
578.44	8456.1	
578.63	9922.4	
578.83	10850	
579.02	7898.3	
579.21	9129.8	
579.4	10161	
579.6	9895.8	
579.79	8552.3	
579.98	10328	
580.17	10469	
580.37	10440	
580.56	8100.4	
580.75	8700.5	
580.94	10647	
581.14	10759	
581.33	8994.7	
581.52	8172.8	
581.71	10273	
581.91	10854	
582.1	8004.8	
582.29	8488.1	
582.48	10047	
582.68	9965.4	
582.87	8766.7	
583.06	8584.4	
583.25	10340	
583.45	10133	
583.64	9105.3	
583.83	9613.8	
584.02	9895.8	
584.21	10248	
584.41	8998.1	
584.6	8477.9	
584.79	10125	
584.98	10595	
585.18	8064.2	
585.37	8043.7	
585.56	9751.1	
585.75	10367	
585.94	8258.8	
586.14	8839	
586.33	10750	
586.52	9906	
586.71	8628.8	
586.91	8357.1	
587.1	9508.7	
587.29	10361	
587.48	8266.3	
587.67	8202.8	
587.87	10239	
588.06	10161	
588.25	9212.4	
588.44	8582.4	
588.63	9828.9	
588.83	10243	
589.02	8190.5	
589.21	8116.8	
589.4	9705.3	
589.59	9639.8	
589.78	7417.7	
589.98	7625.3	
590.17	9100.5	
590.36	9530.6	
590.55	7111.9	
590.74	7660.1	
590.94	10495	
591.13	9362.6	
591.32	7505.1	
591.51	7152.9	
591.7	9664.4	
591.89	9249.3	
592.09	7182.9	
592.28	7660.1	
592.47	8633.6	
592.66	10322	
592.85	7309.2	
593.05	7479.9	
593.24	9233.6	
593.43	9821.4	
593.62	7464.8	
593.81	7889.5	
594	9307.3	
594.19	9359.9	
594.39	7426.6	
594.58	7305.1	
594.77	9474.6	
594.96	9997.5	
595.15	7386.3	
595.34	7877.9	
595.54	9499.2	
595.73	8751	
595.92	6793.1	
596.11	7650.5	
596.3	9733.3	
596.49	8763.9	
596.68	7601.4	
596.88	7925	
597.07	9549.7	
597.26	8702.5	
597.45	7149.5	
597.64	8037.6	
597.83	8948.3	
598.02	9415.2	
598.22	7196.6	
598.41	7766.6	
598.6	9157.8	
598.79	8708.6	
598.98	7193.8	
599.17	7936.6	
599.36	9203.6	
599.55	10120	
599.74	8830.2	
599.94	8598.7	
600.13	9559.9	
600.32	8658.1	
600.51	7021.8	
600.7	7098.9	
600.89	10095	
601.08	10148	
601.27	6906.4	
601.47	7710.6	
601.66	9372.9	
601.85	9995.5	
602.04	7516	
602.23	7625.3	
602.42	8701.8	
602.61	9221.3	
602.8	7376.8	
602.99	7165.8	
603.18	8984.4	
603.37	9176.3	
603.57	7639.6	
603.76	8097	
603.95	9775.6	
604.14	9395.4	
604.33	7305.8	
604.52	7478.5	
604.71	9250	
604.9	8811.7	
605.09	7998	
605.28	7875.8	
605.47	9697.8	
605.66	9303.2	
605.86	7749.5	
606.05	7247.8	
606.24	9670.5	
606.43	8445.8	
606.62	7572	
606.81	8144.8	
607	9484.8	
607.19	8960.5	
607.38	6980.8	
607.57	7196.6	
607.76	8723	
607.95	8325	
608.14	7534.5	
608.33	7983.7	
608.52	8651.3	
608.72	9460.3	
608.91	6984.3	
609.1	6904.4	
609.29	8839.7	
609.48	8437.6	
609.67	7567.2	
609.86	6863.4	
610.05	8480	
610.24	8720.3	
610.43	6799.9	
610.62	6582.9	
610.81	9624.8	
611	9431.6	
611.19	6864.1	
611.38	7401.4	
611.57	9089.6	
611.76	10009	
611.95	6759.7	
612.14	6633.4	
612.33	8699.8	
612.52	8454	
612.71	7093.5	
612.9	6514.6	
613.09	8075.8	
613.28	9977	
613.47	7051.2	
613.66	7654.6	
613.85	8881.4	
614.04	8561.2	
614.24	7002.7	
614.43	6361	
614.62	8939.4	
614.81	8933.9	
615	7339.2	
615.19	7337.2	
615.38	8329.1	
615.57	8720.3	
615.76	7288	
615.95	8079.9	
616.14	9021.3	
616.33	8700.5	
616.52	7581.6	
616.71	7615	
616.9	8940.7	
617.09	8785.8	
617.28	7068.9	
617.47	7983.7	
617.66	8314.1	
617.85	8251.9	
618.04	7763.2	
618.22	7344	
618.41	8587.8	
618.6	9289.6	
618.79	7279.8	
618.98	7009.5	
619.17	9473.9	
619.36	8135.9	
619.55	7238.2	
619.74	7176.8	
619.93	9056.1	
620.12	8534.6	
620.31	7646.4	
620.5	7758.4	
620.69	9426.1	
620.88	9832.3	
621.07	8333.2	
621.26	7666.2	
621.45	9137.4	
621.64	9138	
621.83	7826	
622.02	7040.2	
622.21	9241.8	
622.4	9037.7	
622.59	8129.1	
622.78	8001.4	
622.97	8751	
623.16	9479.4	
623.35	7706.5	
623.54	6974	
623.72	8891.6	
623.91	8987.2	
624.1	7937.2	
624.29	6933.7	
624.48	9868.5	
624.67	9243.2	
624.86	7783	
625.05	7021.8	
625.24	10006	
625.43	8652.7	
625.62	9105.3	
625.81	7299	
626	9555.1	
626.19	8954.4	
626.38	7841.7	
626.56	7415	
626.75	8756.4	
626.94	9471.9	
627.13	7925	
627.32	6915.3	
627.51	9334.6	
627.7	10305	
627.89	7000	
628.08	7901.7	
628.27	8711.4	
628.46	8945.5	
628.65	7329	
628.83	7068.2	
629.02	9244.5	
629.21	8695.7	
629.4	7546.8	
629.59	7758.4	
629.78	8660.2	
629.97	9435.7	
630.16	7712.7	
630.35	7352.9	
630.54	9885.5	
630.72	9509.4	
630.91	7365.9	
631.1	7661.5	
631.29	9177.6	
631.48	9160.6	
631.67	7858.1	
631.86	7384.3	
632.05	8905.9	
632.24	8873.8	
632.42	7136.5	
632.61	7575.4	
632.8	8858.1	
632.99	8600.8	
633.18	7660.8	
633.37	7892.9	
633.56	9157.8	
633.75	8947.6	
633.93	7557	
634.12	7368.6	
634.31	9885.5	
634.5	9359.9	
634.69	7445	
634.88	7755	
635.07	8978.3	
635.25	9396.8	
635.44	8088.1	
635.63	8269	
635.82	8776.9	
636.01	8289.5	
636.2	7997.3	
636.39	7662.1	
636.57	9729.2	
636.76	9338.1	
636.95	7204.1	
637.14	8260.8	
637.33	9228.8	
637.52	9876.7	
637.7	7033.4	
637.89	7798.7	
638.08	8852	
638.27	9945.6	
638.46	7933.8	
638.65	8174.8	
638.83	9864.4	
639.02	8703.2	
639.21	7778.9	
639.4	8159.8	
639.59	8934.6	
639.78	8789.2	
639.96	7109.9	
640.15	7214.3	
640.34	8897.7	
640.53	8955.8	
640.72	6927.6	
640.91	7092.1	
641.09	8480	
641.28	9424.8	
641.47	7147.4	
641.66	7806.2	
641.85	8952.4	
642.03	9015.8	
642.22	7546.8	
642.41	7155.6	
642.6	8495	
642.79	8008.9	
642.97	7055.9	
643.16	7504.4	
643.35	8381.7	
643.54	8284	
643.73	6871.6	
643.91	7578.2	
644.1	8157.1	
644.29	8626.7	
644.48	6942.6	
644.67	6951.5	
644.85	8208.9	
645.04	8572.8	
645.23	6623.8	
645.42	6885.3	
645.6	8099.7	
645.79	9013.8	
645.98	6774	
646.17	5923.4	
646.36	7881.3	
646.54	8208.9	
646.73	7388.4	
646.92	6413.6	
647.11	7996	
647.29	8749.6	
647.48	6537.8	
647.67	6296.8	
647.86	9019.9	
648.05	9011.7	
648.23	6726.9	
648.42	7674.4	
648.61	8461.5	
648.8	8237.6	
648.98	6290	
649.17	6672.3	
649.36	7864.2	
649.55	7557.7	
649.73	6402.6	
649.92	6999.3	
650.11	7806.2	
650.3	8009.6	
650.48	6507.8	
650.67	6343.9	
650.86	8325.7	
651.05	7415.7	
651.23	6400.6	
651.42	6349.4	
651.61	7877.9	
651.79	7811	
651.98	6604	
652.17	6216.3	
652.36	8109.3	
652.54	7428.7	
652.73	6299.6	
652.92	6173.3	
653.11	8150.9	
653.29	8282.7	
653.48	5769.8	
653.67	6494.1	
653.85	7925	
654.04	8736.6	
654.23	6579.4	
654.42	6235.4	
654.6	7488.7	
654.79	7992.5	
654.98	5751.4	
655.16	6237.4	
655.35	7154.2	
655.54	7180.2	
655.73	5825.8	
655.91	5655.1	
656.1	7932.5	
656.29	6987	
656.47	5439.4	
656.66	6707.1	
656.85	7335.1	
657.03	7331	
657.22	5866.1	
657.41	5965.1	
657.59	7390.4	
657.78	7219.8	
657.97	5647.6	
658.16	6251.1	
658.34	7848.5	
658.53	8226.7	
658.72	6866.2	
658.9	7237.5	
659.09	7603.4	
659.28	7539.3	
659.46	6077	
659.65	5948.7	
659.84	7284.6	
660.02	7858.1	
660.21	6086.6	
660.4	5809.4	
660.58	8093.6	
660.77	7585.7	
660.96	6324.1	
661.14	5601.2	
661.33	8528.4	
661.52	8374.8	
661.7	5562.3	
661.89	8363.2	
662.08	7287.4	
662.26	6816.3	
662.45	5739.1	
662.64	5918.6	
662.82	7778.2	
663.01	7127.6	
663.2	5889.3	
663.38	6376	
663.57	7750.2	
663.75	7580.2	
663.94	6097.5	
664.13	7081.2	
664.31	7238.9	
664.5	7656.7	
664.69	6443.6	
664.87	6628.6	
665.06	7049.8	
665.25	7604.1	
665.43	6913.3	
665.62	6894.8	
665.8	7776.1	
665.99	7312.6	
666.18	5988.9	
666.36	6096.8	
666.55	7836.9	
666.74	7606.8	
666.92	5785.5	
667.11	7024.5	
667.29	7338.6	
667.48	7732.4	
667.67	6705	
667.85	5903.6	
668.04	7330.4	
668.22	7206.8	
668.41	6102.9	
668.6	6273.6	
668.78	7138.5	
668.97	7336.5	
669.15	6343.9	
669.34	5498.8	
669.53	7217.7	
669.71	7413.6	
669.9	5642.8	
670.08	6193.1	
670.27	7083.9	
670.46	7636.9	
670.64	6358.3	
670.83	6591	
671.01	6960.4	
671.2	7414.3	
671.38	5791	
671.57	5732.3	
671.76	8016.4	
671.94	8338.6	
672.13	5553.4	
672.31	6376	
672.5	7742.7	
672.69	7112.6	
672.87	5796.4	
673.06	5988.9	
673.24	7552.9	
673.43	7109.9	
673.61	6300.9	
673.8	5967.1	
673.98	7620.5	
674.17	7754.3	
674.36	6450.4	
674.54	6293.4	
674.73	7432.1	
674.91	7608.2	
675.1	5983.5	
675.28	5759.6	
675.47	7351.5	
675.65	7699.7	
675.84	6008.1	
676.03	6172.6	
676.21	7163.1	
676.4	6700.3	
676.58	6592.4	
676.77	6320.7	
676.95	8287.4	
677.14	7096.2	
677.32	5677	
677.51	5580.7	
677.69	7743.4	
677.88	6891.4	
678.06	5601.2	
678.25	5655.8	
678.44	7337.9	
678.62	7043.6	
678.81	5458.5	
678.99	6260.6	
679.18	7892.2	
679.36	7634.8	
679.55	5870.8	
679.73	6399.9	
679.92	7566.6	
680.1	7182.9	
680.29	6856.6	
680.47	5870.8	
680.66	7170.6	
680.84	7701	
681.03	5344.5	
681.21	6356.2	
681.4	7086	
681.58	7023.2	
681.77	5779.4	
681.95	5678.3	
682.14	7755.7	
682.32	8038.3	
682.51	6454.5	
682.69	5499.5	
682.88	7067.5	
683.06	7486	
683.25	6191	
683.43	6539.2	
683.62	7326.9	
683.8	7589.8	
683.99	6635.4	
684.17	6137.1	
684.36	8294.3	
684.54	7228.6	
684.73	5412.8	
684.91	5595.1	
685.1	7409.6	
685.28	6978.1	
685.46	5974.6	
685.65	6010.1	
685.83	7505.8	
686.02	7083.2	
686.2	5607.3	
686.39	5634.6	
686.57	6783.6	
686.76	8022.6	
686.94	5608	
687.13	5729.5	
687.31	7522.9	
687.5	7068.9	
687.68	5233.2	
687.86	6222.4	
688.05	8510	
688.23	6791.7	
688.42	6307.1	
688.6	5750	
688.79	7141.3	
688.97	7146	
689.16	6061.3	
689.34	5208	
689.52	7744.7	
689.71	7876.5	
689.89	6308.4	
690.08	5741.1	
690.26	7360.4	
690.45	7259.4	
690.63	6507.1	
690.81	5895.4	
691	7265.5	
691.18	7116	
691.37	6083.1	
691.55	7763.2	
691.74	7143.3	
691.92	8743.5	
692.1	6025.1	
692.29	5659.2	
692.47	7325.6	
692.66	6756.9	
692.84	5836	
693.02	6227.2	
693.21	6841.6	
693.39	7270.3	
693.58	6331.6	
693.76	5847.6	
693.94	8196.7	
694.13	8121.6	
694.31	5982.1	
694.5	6776	
694.68	7264.8	
694.86	7539.9	
695.05	6260.6	
695.23	6661.4	
695.42	7758.4	
695.6	9635.7	
695.78	6728.9	
695.97	6099.5	
696.15	7927.7	
696.34	7405.5	
696.52	5914.5	
696.7	6556.2	
696.89	7730.4	
697.07	7325.6	
697.25	6459.3	
697.44	7671	
697.62	7763.2	
697.81	7952.3	
697.99	6341.9	
698.17	6638.1	
698.36	7303.1	
698.54	7811.6	
698.72	6554.2	
698.91	5762.3	
699.09	7433.4	
699.28	7278.5	
699.46	6315.3	
699.64	6246.3	
699.83	7294.9	
700.01	8219.9	
700.19	6903.7	
700.38	5683.8	
700.56	8269.7	
700.74	7477.1	
700.93	5928.2	
701.11	6621.8	
701.29	7885.4	
701.48	8809	
701.66	6197.2	
701.84	6367.1	
702.03	7568.6	
702.21	8199.4	
702.39	5905	
702.58	6480.5	
702.76	7995.3	
702.94	8130.4	
703.13	5934.3	
703.31	7854	
703.49	7455.3	
703.68	8498.4	
703.86	6118	
704.04	6915.3	
704.23	7873.8	
704.41	8107.2	
704.59	6313.2	
704.78	7248.4	
704.96	8800.8	
705.14	8215.8	
705.33	6184.2	
705.51	6803.4	
705.69	7694.2	
705.87	8329.1	
706.06	6912.6	
706.24	6020.3	
706.42	8003.5	
706.61	8240.3	
706.79	6995.9	
706.97	6082.5	
707.16	7640.3	
707.34	8074.5	
707.52	6963.1	
707.7	6398.5	
707.89	7661.5	
708.07	7431.4	
708.25	7007.5	
708.44	7247.8	
708.62	7645.1	
708.8	8527.1	
708.98	7251.2	
709.17	6398.5	
709.35	8038.3	
709.53	8032.8	
709.72	6180.1	
709.9	6487.3	
710.08	8295	
710.26	8285.4	
710.45	7507.9	
710.63	6405.4	
710.81	8005.5	
710.99	7936.6	
711.18	6962.4	
711.36	6496.8	
711.54	7836.2	
711.72	8387.1	
711.91	6607.4	
712.09	6169.2	
712.27	7952.3	
712.45	8353	
712.64	6766.5	
712.82	6062.7	
713	7449.1	
713.18	7608.9	
713.37	6008.7	
713.55	6939.9	
713.73	8266.3	
713.91	7132.4	
714.1	6223.8	
714.28	5776	
714.46	7814.4	
714.64	7109.2	
714.83	5279.7	
715.01	5784.1	
715.19	7123.5	
715.37	6582.9	
715.55	5492	
715.74	5753.4	
715.92	7671	
716.1	6021.7	
716.28	6582.2	
716.47	5783.5	
716.65	6688.7	
716.83	6740.5	
717.01	5680.4	
717.19	5660.6	
717.38	8329.1	
717.56	6462	
717.74	5885.9	
717.92	5235.3	
718.1	7456.7	
718.29	6808.1	
718.47	5010	
718.65	5528.8	
718.83	7492.2	
719.01	7436.2	
719.2	5055.8	
719.38	5987.6	
719.56	7287.4	
719.74	8544.8	
719.92	5637.4	
720.11	6300.9	
720.29	7329.7	
720.47	6648.4	
720.65	5219.6	
720.83	5831.9	
721.02	6861.4	
721.2	6554.9	
721.38	5800.5	
721.56	5227.8	
721.74	6175.3	
721.92	6328.9	
722.11	6207.4	
722.29	6010.1	
722.47	7331.7	
722.65	6623.1	
722.83	5187.5	
723.01	5885.2	
723.2	6812.9	
723.38	7020.4	
723.56	4827.1	
723.74	5679	
723.92	6315.3	
724.1	7241.6	
724.29	5184.8	
724.47	6125.5	
724.65	6445	
724.83	6356.9	
725.01	5061.9	
725.19	5716.6	
725.37	6376.7	
725.56	6378.1	
725.74	4937	
725.92	5224.4	
726.1	6386.9	
726.28	6541.9	
726.46	5465.3	
726.64	5213.4	
726.83	6618.4	
727.01	6731.7	
727.19	4954	
727.37	5598.5	
727.55	6718	
727.73	7073.7	
727.91	4959.5	
728.09	4784.7	
728.28	7094.8	
728.46	7369.3	
728.64	5683.1	
728.82	5653.8	
729	7899	
729.18	7326.9	
729.36	5025	
729.54	6873.7	
729.72	8180.3	
729.91	6900.3	
730.09	6621.8	
730.27	5638.1	
730.45	6857.3	
730.63	7326.9	
730.81	6141.2	
730.99	5427.1	
731.17	7729	
731.35	6645.7	
731.53	5820.3	
731.71	5545.2	
731.9	7482.6	
732.08	7574.1	
732.26	5748.6	
732.44	5417.6	
732.62	7567.9	
732.8	7267.6	
732.98	6002.6	
733.16	5185.5	
733.34	7196.6	
733.52	6216.3	
733.7	5554.8	
733.88	5786.9	
734.07	7073.7	
734.25	6853.2	
734.43	5238	
734.61	6499.6	
734.79	8102.4	
734.97	6782.2	
735.15	5363.6	
735.33	5497.4	
735.51	7096.9	
735.69	6756.2	
735.87	6382.2	
736.05	5694	
736.23	6920.1	
736.41	6739.2	
736.59	5552	
736.77	5614.8	
736.95	7266.9	
737.13	6812.9	
737.32	5184.1	
737.5	5433.3	
737.68	7651.2	
737.86	6672.3	
738.04	5050.3	
738.22	6518	
738.4	6513.9	
738.58	6823.1	
738.76	5449.6	
738.94	4752.7	
739.12	6571.9	
739.3	6555.5	
739.48	6047	
739.66	5829.9	
739.84	6792.4	
740.02	6795.2	
740.2	4814.1	
740.38	5089.2	
740.56	7072.3	
740.74	6167.1	
740.92	5586.9	
741.1	5436.7	
741.28	6609.5	
741.46	6441.5	
741.64	5259.2	
741.82	5595.1	
742	6636.1	
742.18	6506.4	
742.36	5337	
742.54	4991.6	
742.72	7034.8	
742.9	6006	
743.08	5642.2	
743.26	4719.2	
743.44	7135.8	
743.62	7038.2	
743.8	5717.2	
743.98	4997	
744.16	6703	
744.34	6479.1	
744.52	5507	
744.7	5526.8	
744.88	6855.2	
745.06	6422.4	
745.24	5606.7	
745.42	5628.5	
745.6	6925.5	
745.78	6694.8	
745.96	4713.7	
746.14	4844.1	
746.32	7539.9	
746.5	6804.7	
746.68	5294.7	
746.86	4891.9	
747.03	7109.2	
747.21	5852.4	
747.39	5315.2	
747.57	4762.2	
747.75	6461.3	
747.93	6770.6	
748.11	4824.3	
748.29	4745.1	
748.47	7858.1	
748.65	6248.4	
748.83	5365	
749.01	5243.5	
749.19	6621.1	
749.37	6006.7	
749.55	5075.5	
749.73	5114.5	
749.91	6328.2	
750.09	6197.2	
750.26	5194.3	
750.44	4684.4	
750.62	6333	
750.8	6346.7	
750.98	4504.2	
751.16	4860.5	
751.34	6417	
751.52	5905.7	
751.7	5396.4	
751.88	4504.2	
752.06	6754.9	
752.24	6576.7	
752.42	4421.6	
752.59	4711	
752.77	6328.2	
752.95	7207.5	
753.13	5364.3	
753.31	4834.6	
753.49	6081.1	
753.67	6271.6	
753.85	5025	
754.03	4667.3	
754.21	6524.8	
754.38	6821.8	
754.56	4826.4	
754.74	4034.5	
754.92	5898.8	
755.1	6328.9	
755.28	3987.4	
755.46	3971	
755.64	6957.6	
755.82	6931.7	
755.99	4039.3	
756.17	4117.8	
756.35	4769.7	
756.53	5969.8	
756.71	3112.2	
756.89	3768.9	
757.07	5614.8	
757.25	4979.3	
757.42	4359.4	
757.6	5063.3	
757.78	5819	
757.96	5020.3	
758.14	4143	
758.32	3738.9	
758.5	4627.7	
758.67	5349.3	
758.85	4000.4	
759.03	4078.9	
759.21	5506.3	
759.39	5020.3	
759.57	3620.8	
759.75	4572.4	
759.92	5998.5	
760.1	5520	
760.28	4957.4	
760.46	5056.4	
760.64	5276.9	
760.82	5146.5	
760.99	4614.1	
761.17	4117.1	
761.35	5988.3	
761.53	5137.7	
761.71	4272.1	
761.89	4837.3	
762.06	5927.5	
762.24	5441.5	
762.42	4338.3	
762.6	4150.5	
762.78	5477	
762.96	5997.1	
763.13	4663.9	
763.31	4323.3	
763.49	6090	
763.67	5494.7	
763.85	4998.4	
764.02	5506.3	
764.2	6419	
764.38	5651	
764.56	4289.8	
764.74	4975.9	
764.91	6449.1	
765.09	5492	
765.27	4070.7	
765.45	3844	
765.63	6508.4	
765.8	6287.9	
765.98	3648.8	
766.16	3863.2	
766.34	5237.3	
766.52	4957.4	
766.69	4616.8	
766.87	3697.9	
767.05	5504.3	
767.23	6092.7	
767.41	4028.4	
767.58	4108.2	
767.76	5892	
767.94	6066.1	
768.12	4082.3	
768.29	4606.6	
768.47	5494	
768.65	6125.5	
768.83	3739.6	
769	4597.7	
769.18	5154.1	
769.36	5717.9	
769.54	4635.9	
769.72	3759.4	
769.89	5940.5	
770.07	5992.4	
770.25	4014.7	
770.43	4996.4	
770.6	6527.6	
770.78	6825.2	
770.96	4133.5	
771.14	4672.8	
771.31	5849	
771.49	5316.5	
771.67	3443.3	
771.85	3668.6	
772.02	4702.1	
772.2	5307.7	
772.38	4229.1	
772.55	3778.5	
772.73	5559.6	
772.91	5249.6	
773.09	4113	
773.26	4180.6	
773.44	5512.4	
773.62	5160.9	
773.8	3706.8	
773.97	3472	
774.15	5458.5	
774.33	5210	
774.5	3562.1	
774.68	3949.8	
774.86	5674.9	
775.04	5231.2	
775.21	3663.8	
775.39	3630.4	
775.57	5430.5	
775.74	5694.7	
775.92	3527.3	
776.1	3381.9	
776.27	5352.7	
776.45	6391.7	
776.63	3630.4	
776.81	3268.6	
776.98	5162.2	
777.16	5952.8	
777.34	3761.4	
777.51	3999	
777.69	5129.5	
777.87	4866	
778.04	3773.7	
778.22	4264.6	
778.4	4894.6	
778.57	5427.8	
778.75	3170.3	
778.93	3394.8	
779.1	4810.7	
779.28	4662.5	
779.46	3171.6	
779.64	3583.9	
779.81	5527.5	
779.99	6217	
780.17	4160.8	
780.34	4332.8	
780.52	5162.2	
780.69	5260.5	
780.87	3820.1	
781.05	3427.6	
781.22	5176.6	
781.4	5148.6	
781.58	3584.6	
781.75	2886.3	
781.93	5172.5	
782.11	4582	
782.28	4250.2	
782.46	3525.2	
782.64	4524	
782.81	5300.8	
782.99	3656.3	
783.17	3593.5	
783.34	5203.2	
783.52	4563.6	
783.69	3747.8	
783.87	4451.6	
784.05	4749.9	
784.22	4678.2	
784.4	4401.8	
784.58	3850.2	
784.75	5431.9	
784.93	4746.5	
785.1	3538.2	
785.28	4089.1	
785.46	5165	
785.63	4623.6	
785.81	3505.4	
785.99	3374.4	
786.16	4786.8	
786.34	5049.6	
786.51	3437.9	
786.69	3797.6	
786.87	4474.1	
787.04	4869.4	
787.22	3320.4	
787.39	4028.4	
787.57	4655	
787.75	5502.2	
787.92	4252.9	
788.1	4171	
788.27	4629.1	
788.45	4410	
788.63	3950.5	
788.8	2929.3	
788.98	4965	
789.15	4355.3	
789.33	3044	
789.5	3505.4	
789.68	5315.8	
789.86	5470.8	
790.03	3850.2	
790.21	3454.2	
790.38	5385.5	
790.56	4737.6	
790.73	3308.8	
790.91	3281.5	
791.09	4668.7	
791.26	5221.6	
791.44	3531.4	
791.61	3084.2	
791.79	4625.7	
791.96	4732.9	
792.14	3156.6	
792.32	2897.2	
792.49	4634.6	
792.67	4767.7	
792.84	3242.6	
793.02	3050.1	
793.19	4987.5	
793.37	5544.5	
793.54	2845.3	
793.72	3132.7	
793.89	5593.7	
794.07	4624.3	
794.25	3524.6	
794.42	2959.3	
794.6	5454.4	
794.77	5147.2	
794.95	3812	
795.12	3362.8	
795.3	4622.3	
795.47	5055.1	
795.65	3718.4	
795.82	3491.1	
796	4493.2	
796.17	5961	
796.35	3418.7	
796.52	4014	
796.7	5040.1	
796.87	5113.8	
797.05	3422.8	
797.22	4067.9	
797.4	5113.1	
797.57	5903.6	
797.75	3579.8	
797.92	3325.2	
798.1	5343.8	
798.27	4495.3	
798.45	2937.5	
798.62	3119.1	
798.8	4816.8	
798.97	5233.9	
799.15	3750.5	
799.32	3519.1	
799.5	4250.9	
799.67	4895.3	
799.85	3836.5	
800.02	2865.8	
800.2	4562.9	
800.37	4797.7	
800.55	3901.4	
800.72	3337.5	
800.9	5219.6	
801.07	5582.1	
801.25	4378.6	
801.42	3609.9	
801.6	5264.6	
801.77	4937	
801.95	3431	
802.12	3280.8	
802.29	5013.4	
802.47	4918.5	
802.64	3607.8	
802.82	2749.7	
802.99	4529.4	
803.17	5323.4	
803.34	3566.2	
803.52	3192.8	
803.69	5778	
803.87	4367	
804.04	3545.7	
804.21	3551.9	
804.39	5494	
804.56	4702.8	
804.74	3059.7	
804.91	3618.8	
805.09	4579.3	
805.26	4631.8	
805.44	3132	
805.61	3447.4	
805.78	5167	
805.96	5110.4	
806.13	3644.7	
806.31	3867.2	
806.48	4194.2	
806.66	4650.9	
806.83	3609.9	
807	3509.5	
807.18	4558.8	
807.35	4874.8	
807.53	3549.8	
807.7	2906.8	
807.87	5477.6	
808.05	4599.1	
808.22	3776.5	
808.4	2862.4	
808.57	4527.4	
808.74	4339	
808.92	3222.8	
809.09	4052.9	
809.27	4536.9	
809.44	5021.6	
809.61	2878.1	
809.79	3168.2	
809.96	5567.1	
810.14	5113.8	
810.31	2813.2	
810.48	3466.5	
810.66	4605.9	
810.83	5240.1	
811.01	3274	
811.18	3573.7	
811.35	5203.2	
811.53	4060.4	
811.7	3899.3	
811.87	3660.4	
812.05	4653	
812.22	4549.2	
812.39	3153.2	
812.57	3040.6	
812.74	4626.4	
812.92	5999.2	
813.09	3385.3	
813.26	3670	
813.44	5707.7	
813.61	4461.2	
813.78	2857.6	
813.96	3728	
814.13	4573.1	
814.3	4386.1	
814.48	4074.8	
814.65	3327.9	
814.82	5492.7	
815	4341	
815.17	3480.9	
815.34	4162.8	
815.52	4498.7	
815.69	4511	
815.87	3391.4	
816.04	3364.8	
816.21	4571.1	
816.38	4144.4	
816.56	3400.3	
816.73	3168.9	
816.9	5702.2	
817.08	5151.3	
817.25	3161.4	
817.42	3903.4	
817.6	4223.6	
817.77	4547.2	
817.94	3504.8	
818.12	3093.8	
818.29	4410	
818.46	6487.3	
818.64	3259	
818.81	3037.8	
818.98	4328.7	
819.16	6096.1	
819.33	3706.8	
819.5	3457	
819.67	4903.5	
819.85	5415.5	
820.02	3464.5	
820.19	3556.6	
820.37	4730.1	
820.54	4453	
820.71	3528	
820.88	4273.4	
821.06	4725.3	
821.23	4380.6	
821.4	3530.7	
821.58	3566.2	
821.75	5126.1	
821.92	4759.5	
822.09	2930.6	
822.27	2967.5	
822.44	4545.1	
822.61	4481.6	
822.79	2891	
822.96	5371.8	
823.13	4887.8	
823.3	4365.6	
823.48	3345	
823.65	3050.1	
823.82	5220.3	
823.99	4227	
824.17	4129.4	
824.34	3089	
824.51	5905.7	
824.68	4611.3	
824.86	3164.8	
825.03	3556.6	
825.2	4590.2	
825.37	5431.2	
825.55	3172.3	
825.72	3495.2	
825.89	5881.1	
826.06	5550.7	
826.24	3397.6	
826.41	3410.6	
826.58	5496.1	
826.75	4807.9	
826.92	2755.2	
827.1	3036.5	
827.27	7290.8	
827.44	5821	
827.61	3212.6	
827.79	3829	
827.96	4390.8	
828.13	4620.2	
828.3	3377.1	
828.47	2885.6	
828.65	4863.9	
828.82	4777.2	
828.99	4186	
829.16	3703.4	
829.34	5143.1	
829.51	4938.3	
829.68	3439.2	
829.85	3515	
830.02	5418.9	
830.2	5088.5	
830.37	2738.1	
830.54	4091.2	
830.71	5752.7	
830.88	4590.2	
831.05	2767.5	
831.23	3143.6	
831.4	5545.9	
831.57	6075	
831.74	3220.8	
831.91	2833.7	
832.09	4852.3	
832.26	5125.4	
832.43	3323.9	
832.6	3716.4	
832.77	4865.3	
832.94	5432.6	
833.12	2681.5	
833.29	3287.7	
833.46	4490.5	
833.63	6246.3	
833.8	3624.9	
833.97	3306.8	
834.15	5185.5	
834.32	4976.6	
834.49	3468.6	
834.66	3521.8	
834.83	5175.2	
835	4435.2	
835.17	3198.2	
835.35	3193.5	
835.52	5109	
835.69	4956.1	
835.86	3343	
836.03	2853.5	
836.2	5126.1	
836.37	4785.4	
836.55	3315	
836.72	3169.6	
836.89	4738.3	
837.06	5213.4	
837.23	3402.4	
837.4	3683.6	
837.57	5775.3	
837.75	6241.5	
837.92	3035.8	
838.09	3230.3	
838.26	4819.6	
838.43	5328.8	
838.6	3459	
838.77	3149.1	
838.94	5978.7	
839.11	5814.9	
839.29	3379.1	
839.46	2622.1	
839.63	5153.4	
839.8	4882.4	
839.97	3235.8	
840.14	3206.4	
840.31	4932.9	
840.48	5197.7	
840.65	2722.4	
840.82	3147.7	
841	5143.1	
841.17	5005.9	
841.34	2995.5	
841.51	3084.2	
841.68	5093.3	
841.85	4838.7	
842.02	3098.6	
842.19	2580.4	
842.36	4951.3	
842.53	4896.7	
842.7	3001	
842.87	3528.7	
843.05	6269.5	
843.22	4871.4	
843.39	2834.4	
843.56	3041.9	
843.73	4711	
843.9	5179.3	
844.07	4737.6	
844.24	3915.7	
844.41	7045	
844.58	4463.2	
844.75	2854.9	
844.92	3129.3	
845.09	5062.6	
845.26	5045.5	
845.43	2968.9	
845.6	3190.7	
845.77	5098.8	
845.94	4866.7	
846.12	3290.4	
846.29	3459	
846.46	5276.9	
846.63	5053	
846.8	2970.9	
846.97	3463.1	
847.14	5438	
847.31	5038	
847.48	3310.2	
847.65	3655.6	
847.82	5302.9	
847.99	5308.3	
848.16	3912.3	
848.33	3561.4	
848.5	4706.9	
848.67	5513.1	
848.84	2904.7	
849.01	3086.3	
849.18	4628.4	
849.35	4357.4	
849.52	3611.9	
849.69	2908.8	
849.86	5261.9	
850.03	5335.6	
850.2	2975.7	
850.37	3536.2	
850.54	5373.9	
850.71	4848.2	
850.88	3533.4	
851.05	2943.6	
851.22	5014.8	
851.39	5475.6	
851.56	2783.9	
851.73	3352.5	
851.9	4482.3	
852.07	5281.7	
852.24	3240.6	
852.41	2937.5	
852.58	5014.8	
852.75	4543.8	
852.92	3314.3	
853.09	2882.2	
853.26	4711.7	
853.43	5390.9	
853.6	2927.9	
853.77	2556.5	
853.94	5526.1	
854.11	4519.2	
854.28	4282.3	
854.44	3260.4	
854.61	5866.1	
854.78	5356.8	
854.95	2968.9	
855.12	3633.8	
855.29	4180.6	
855.46	5702.9	
855.63	2939.5	
855.8	4008.6	
855.97	4704.2	
856.14	5358.9	
856.31	4047.5	
856.48	3205.8	
856.65	4772.4	
856.82	4420.9	
856.99	2854.2	
857.16	3236.5	
857.33	6034	
857.49	4859.1	
857.66	3133.4	
857.83	3417.4	
858	4818.2	
858.17	4965.6	
858.34	2811.9	
858.51	2997.5	
858.68	5576.6	
858.85	5603.9	
859.02	3362.8	
859.19	3590.8	
859.36	4546.5	
859.52	4548.5	
859.69	2983.9	
859.86	3414	
860.03	4582	
860.2	5524.1	
860.37	2717.7	
860.54	2990	
860.71	5238.7	
860.88	5608.7	
861.05	3330	
861.21	3697.9	
861.38	5565	
861.55	4394.3	
861.72	2736.1	
861.89	3235.8	
862.06	5295.4	
862.23	5713.2	
862.4	2852.1	
862.56	3034.4	
862.73	5167.7	
862.9	4857.8	
863.07	3379.1	
863.24	2729.3	
863.41	4469.4	
863.58	4536.3	
863.75	2987.3	
863.91	3398.3	
864.08	5479.7	
864.25	5238	
864.42	3667.2	
864.59	4068.6	
864.76	5805.3	
864.93	4562.9	
865.09	2912.9	
865.26	3127.2	
865.43	5496.7	
865.6	5786.2	
865.77	2648.7	
865.94	2917	
866.1	5442.8	
866.27	5240.8	
866.44	4348.5	
866.61	2809.1	
866.78	4835.9	
866.95	5152.7	
867.11	2908.8	
867.28	2682.8	
867.45	5383.4	
867.62	4523.3	
867.79	3338.2	
867.96	2927.9	
868.12	4491.9	
868.29	5282.4	
868.46	2957.3	
868.63	3904.1	
868.8	5405.3	
868.97	5199.1	
869.13	3125.9	
869.3	3070.6	
869.47	5074.9	
869.64	5325.4	
869.81	2970.2	
869.97	2977.1	
870.14	5055.1	
870.31	5554.8	
870.48	2873.3	
870.65	3686.3	
870.81	4784.1	
870.98	4828.4	
871.15	3339.6	
871.32	3118.4	
871.48	5188.9	
871.65	5588.9	
871.82	2981.8	
871.99	3183.9	
872.16	5966.4	
872.32	5430.5	
872.49	3020.8	
872.66	2984.6	
872.83	5227.8	
872.99	4635.2	
873.16	3371.6	
873.33	2912.2	
873.5	4947.2	
873.67	4949.3	
873.83	3099.3	
874	3897.3	
874.17	5113.8	
874.34	5873.6	
874.5	3785.3	
874.67	3650.2	
874.84	5498.1	
875.01	4399	
875.17	4056.3	
875.34	2991.4	
875.51	4953.4	
875.68	5913.9	
875.84	3515.7	
876.01	4235.9	
876.18	5264.6	
876.34	5134.3	
876.51	2970.9	
876.68	2895.1	
876.85	4737	
877.01	5371.1	
877.18	4149.9	
877.35	2897.9	
877.52	4967	
877.68	4412.7	
877.85	2945	
878.02	2902.7	
878.18	4888.5	
878.35	4653.7	
878.52	2409.1	
878.69	3286.3	
878.85	5329.5	
879.02	5173.9	
879.19	4142.4	
879.35	3152.5	
879.52	5190.2	
879.69	5335.6	
879.86	2620.7	
880.02	3282.9	
880.19	4894	
880.36	5846.3	
880.52	3336.1	
880.69	3450.1	
880.86	5350	
881.02	5345.2	
881.19	3216	
881.36	3185.3	
881.52	5182.7	
881.69	4616.8	
881.86	3162.7	
882.02	3115.6	
882.19	5416.9	
882.36	6237.4	
882.52	3028.3	
882.69	4071.4	
882.86	5025.7	
883.02	4941.1	
883.19	3529.3	
883.36	3374.4	
883.52	5269.4	
883.69	5923.4	
883.86	3039.2	
884.02	2693.1	
884.19	5307.7	
884.36	4934.9	
884.52	3314.3	
884.69	3204.4	
884.86	4775.2	
885.02	5685.8	
885.19	3278.1	
885.36	3355.9	
885.52	4899.4	
885.69	5033.9	
885.86	4224.3	
886.02	3744.4	
886.19	5225.1	
886.35	4803.2	
886.52	3269.9	
886.69	4054.3	
886.85	4512.4	
887.02	5455.8	
887.19	5455.8	
887.35	5455.8	
887.52	5455.8	
887.68	5455.8	
887.85	5455.8	
888.02	5455.8	
888.18	5455.8	
888.35	5455.8	
888.51	5455.8	
888.68	5455.8	
888.85	5455.8	
889.01	5455.8	
889.18	5455.8	
889.35	5455.8	
889.51	5455.8	
889.68	5455.8	
889.84	5455.8	
890.01	5455.8	
890.17	5455.8	
890.34	5455.8	
890.51	5455.8	
890.67	5455.8	
890.84	5455.8	
891	5455.8	
891.17	5455.8	
891.34	5455.8	
891.5	5455.8	
891.67	5455.8	
891.83	5455.8	
892	5455.8	
892.16	5455.8	
892.33	5455.8	
892.5	5455.8	
892.66	5455.8	
892.83	5455.8	
892.99	5455.8	
893.16	5455.8	
893.32	5455.8	
893.49	5455.8	
893.65	5455.8	
893.82	5455.8	
893.99	5455.8	
894.15	5455.8	
894.32	5455.8	
894.48	5455.8	
894.65	5455.8	
894.81	5455.8	
894.98	5455.8	
895.14	5455.8	
895.31	5455.8	
895.47	5455.8	
895.64	5455.8	
895.81	5455.8	
895.97	5455.8	
896.14	5455.8	
896.3	5455.8	
896.47	5455.8	
896.63	5455.8	
896.8	5455.8	
896.96	5455.8	
897.13	5455.8	
897.29	5455.8	
897.46	5455.8	
897.62	5455.8	
897.79	5455.8	
897.95	5455.8	
898.12	5455.8	
898.28	5455.8	
898.45	5455.8	
898.61	5455.8	
898.78	5455.8	
898.94	5455.8	
899.11	5455.8	
899.27	5455.8	
899.44	5455.8	
899.6	5455.8	
899.77	5455.8	
899.93	5455.8	
900.1	5455.8	
900.26	5455.8	
900.43	5455.8	
900.59	5455.8	
900.76	5455.8	
900.92	5455.8	
901.09	5455.8	
901.25	5455.8	
901.42	5455.8	
901.58	5455.8	
901.75	5455.8	
901.91	5455.8	
902.07	5455.8	
902.24	5455.8	
902.4	5455.8	
902.57	5455.8	
902.73	5455.8	
902.9	5455.8	
903.06	5455.8	
903.23	5455.8	
903.39	5455.8	
903.56	5455.8	
903.72	5455.8	
903.88	5455.8	
904.05	5455.8	
904.21	5455.8	
904.38	5455.8	
904.54	5455.8	
904.71	5455.8	
904.87	5455.8	
905.03	5455.8	
905.2	5455.8	
905.36	5455.8	
905.53	5455.8	
905.69	5455.8	
905.86	5455.8	
906.02	5455.8	
906.18	5455.8	
906.35	5455.8	
906.51	5455.8	
906.68	5455.8	
906.84	5455.8	
907.01	5455.8	
907.17	5455.8	
907.33	5455.8	
907.5	5455.8	
907.66	5455.8	
907.83	5455.8	
907.99	5455.8	
908.15	5455.8	
908.32	5455.8	
908.48	5455.8	
908.65	5455.8	
908.81	5455.8	
908.97	5455.8	
909.14	5455.8	
909.3	5455.8	
909.47	5455.8	
909.63	5455.8	
909.79	5455.8	
909.96	5455.8	
910.12	5455.8	
910.28	5455.8	
910.45	5455.8	
910.61	5455.8	
910.78	5455.8	
910.94	5455.8	
911.1	5455.8	
911.27	5455.8	
911.43	5455.8	
911.59	5455.8	
911.76	5455.8	
911.92	5455.8	
912.08	5455.8	
912.25	5455.8	
912.41	5455.8	
912.57	5455.8	
912.74	5455.8	
912.9	5455.8	
913.07	5455.8	
913.23	5455.8	
913.39	5455.8	
913.56	5455.8	
913.72	5455.8	
913.88	5455.8	
914.05	5455.8	
914.21	5455.8	
914.37	5455.8	
914.54	5455.8	
914.7	5455.8	
914.86	5455.8	
915.03	5455.8	
915.19	5455.8	
