Wavelength	Intensities	
nm	a.u.	
179.22	1930.9	
179.44	1920.3	
179.65	1941.5	
179.86	1899.1	
180.08	1949.7	
180.29	5042.1	
180.51	3604.4	
180.72	5693.4	
180.94	6744.6	
181.15	3279.5	
181.37	3263.1	
181.58	5587.5	
181.79	5900.9	
182.01	3418.1	
182.22	3725.9	
182.44	5848.3	
182.65	4891.2	
182.87	4668.7	
183.08	4128.7	
183.29	6189.6	
183.51	5113.1	
183.72	3769.6	
183.94	5597.1	
184.15	5498.8	
184.37	5532.2	
184.58	3320.4	
184.79	4579.9	
185.01	5103.5	
185.22	5860.6	
185.44	4872.8	
185.65	4043.4	
185.86	5416.9	
186.08	4999.1	
186.29	3222.1	
186.51	3422.2	
186.72	5126.7	
186.94	6083.8	
187.15	4012.7	
187.36	4176.5	
187.58	8007.6	
187.79	5662.6	
188.01	4339	
188.22	6722.1	
188.43	6765.8	
188.65	5892	
188.86	3472.7	
189.08	4164.2	
189.29	5347.9	
189.5	5346.6	
189.72	3892.5	
189.93	3981.3	
190.15	6072.9	
190.36	7348.8	
190.57	4231.8	
190.79	4069.3	
191	6191	
191.22	6138.4	
191.43	4253.6	
191.64	3430.3	
191.86	6404	
192.07	6229.2	
192.29	3622.2	
192.5	3871.3	
192.71	6141.9	
192.93	5193.6	
193.14	3831.1	
193.35	3921.2	
193.57	5287.9	
193.78	6122.7	
194	3069.2	
194.21	3779.2	
194.42	5070.1	
194.64	5588.9	
194.85	4181.3	
195.07	4853.7	
195.28	5564.3	
195.49	4784.1	
195.71	5078.3	
195.92	3627	
196.13	5767.1	
196.35	5894.1	
196.56	5503.6	
196.78	4185.4	
196.99	7216.4	
197.2	6797.9	
197.42	4764.3	
197.63	4216.1	
197.84	4914.4	
198.06	5674.9	
198.27	3766.2	
198.48	5207.3	
198.7	5300.8	
198.91	5386.2	
199.13	4204.5	
199.34	4184.7	
199.55	5923.4	
199.77	4744.5	
199.98	3667.9	
200.19	4251.6	
200.41	5442.1	
200.62	5169.8	
200.83	4379.9	
201.05	4676.2	
201.26	5454.4	
201.47	5136.3	
201.69	3733.4	
201.9	3556.6	
202.11	5450.3	
202.33	6584.2	
202.54	3964.2	
202.76	4425.7	
202.97	5694	
203.18	5713.2	
203.4	4405.9	
203.61	4298.7	
203.82	5563.6	
204.04	5193.6	
204.25	4199.7	
204.46	4145.8	
204.68	5569.1	
204.89	5845.6	
205.1	4084.3	
205.32	3541.6	
205.53	5989.6	
205.74	6171.9	
205.96	3032.4	
206.17	4301.4	
206.38	5873.6	
206.6	6062	
206.81	4857.8	
207.02	3943.7	
207.24	5800.5	
207.45	6227.2	
207.66	3999.7	
207.88	3401.7	
208.09	5703.6	
208.3	5516.5	
208.52	3695.2	
208.73	4060.4	
208.94	5482.4	
209.15	6214.9	
209.37	4014	
209.58	4225.6	
209.79	6096.1	
210.01	5300.8	
210.22	3202.3	
210.43	3291.8	
210.65	5571.8	
210.86	5996.5	
211.07	3992.2	
211.29	3605.1	
211.5	5867.4	
211.71	5486.5	
211.93	3635.1	
212.14	3624.9	
212.35	5425.8	
212.56	5719.3	
212.78	4255	
212.99	3458.3	
213.2	6495.5	
213.42	5332.9	
213.63	3835.8	
213.84	4085	
214.06	4928.1	
214.27	5038.7	
214.48	3999.7	
214.69	4293.2	
214.91	6263.4	
215.12	6281.8	
215.33	4339.6	
215.55	4740.4	
215.76	6858	
215.97	5939.8	
216.18	4108.9	
216.4	3996.3	
216.61	5211.4	
216.82	5984.8	
217.04	3632.4	
217.25	3848.8	
217.46	6248.4	
217.67	5982.1	
217.89	3245.3	
218.1	3455.6	
218.31	5629.9	
218.53	5681.7	
218.74	3852.9	
218.95	3747.1	
219.16	5514.5	
219.38	6518	
219.59	3749.1	
219.8	4444.8	
220.01	7151.5	
220.23	5606	
220.44	4930.8	
220.65	3631.7	
220.87	5614.2	
221.08	6198.5	
221.29	3404.4	
221.5	4577.2	
221.72	7577.5	
221.93	5201.8	
222.14	4291.9	
222.35	5034.6	
222.57	5603.9	
222.78	5819	
222.99	3944.4	
223.2	4334.2	
223.42	5859.9	
223.63	6032	
223.84	3103.4	
224.05	3052.8	
224.27	7145.4	
224.48	6468.9	
224.69	5007.3	
224.9	4159.4	
225.12	5711.1	
225.33	5517.9	
225.54	3319.8	
225.75	3734.8	
225.97	5128.1	
226.18	5378.6	
226.39	4067.9	
226.6	3731.4	
226.82	5255.1	
227.03	5137	
227.24	4176.5	
227.45	3499.3	
227.67	5962.3	
227.88	6527.6	
228.09	4714.4	
228.3	4781.3	
228.52	6001.2	
228.73	5431.2	
228.94	3898	
229.15	3491.1	
229.36	5456.5	
229.58	5328.1	
229.79	3942.3	
230	4587.4	
230.21	6584.2	
230.43	5668.8	
230.64	4121.2	
230.85	4324.6	
231.06	5931.6	
231.28	5999.9	
231.49	3414.6	
231.7	4037.9	
231.91	5869.5	
232.12	5605.3	
232.34	3539.6	
232.55	4059.8	
232.76	6169.2	
232.97	5739.8	
233.18	3670.6	
233.4	4160.8	
233.61	5780.7	
233.82	5279.7	
234.03	3867.2	
234.25	3786	
234.46	7718.8	
234.67	5515.2	
234.88	4295.3	
235.09	3727.3	
235.31	5908.4	
235.52	5390.9	
235.73	4173.1	
235.94	3549.8	
236.15	5237.3	
236.37	6765.1	
236.58	3662.5	
236.79	4023.6	
237	5843.5	
237.21	5002.5	
237.43	4332.8	
237.64	3442.6	
237.85	10112	
238.06	5070.8	
238.27	4392.2	
238.48	3516.4	
238.7	5887.9	
238.91	5394.3	
239.12	4042	
239.33	4012	
239.54	5183.4	
239.76	5481	
239.97	3972.4	
240.18	4050.2	
240.39	7018.4	
240.6	5807.4	
240.82	4145.1	
241.03	3424.9	
241.24	5593.7	
241.45	6478.4	
241.66	3663.8	
241.87	4306.9	
242.09	6251.8	
242.3	6737.8	
242.51	4344.4	
242.72	4016.1	
242.93	6007.4	
243.14	5478.3	
243.36	4734.9	
243.57	5057.1	
243.78	6440.9	
243.99	5897.5	
244.2	4040.6	
244.41	3642	
244.63	5072.8	
244.84	5939.8	
245.05	4371	
245.26	4042.7	
245.47	5834.7	
245.68	6122.1	
245.9	5393.7	
246.11	4227.7	
246.32	5407.3	
246.53	5822.4	
246.74	6610.2	
246.95	3320.4	
247.16	5047.6	
247.38	5518.6	
247.59	3352.5	
247.8	4100	
248.01	5173.9	
248.22	5478.3	
248.43	3670	
248.64	3932.1	
248.86	4928.1	
249.07	5275.6	
249.28	3596.2	
249.49	4091.8	
249.7	6124.1	
249.91	6313.9	
250.12	3273.3	
250.34	3414.6	
250.55	5659.9	
250.76	5526.8	
250.97	4205.8	
251.18	4169.7	
251.39	6315.3	
251.6	5680.4	
251.81	4321.2	
252.03	4266.6	
252.24	5251	
252.45	6091.3	
252.66	3500	
252.87	4478.2	
253.08	5513.1	
253.29	7366.5	
253.5	3513.6	
253.72	4884.4	
253.93	5330.9	
254.14	6537.1	
254.35	3751.2	
254.56	3952.6	
254.77	5851.7	
254.98	5175.9	
255.19	3835.8	
255.41	4909	
255.62	5588.9	
255.83	6257.2	
256.04	4341.7	
256.25	4205.2	
256.46	6807.4	
256.67	5206.6	
256.88	4188.1	
257.09	4679.6	
257.31	5227.1	
257.52	5246.2	
257.73	5289.2	
257.94	3869.3	
258.15	5431.9	
258.36	5608	
258.57	4797	
258.78	3098.6	
258.99	6107	
259.2	5382.7	
259.41	3828.3	
259.63	3962.8	
259.84	6389.7	
260.05	6918	
260.26	5041.4	
260.47	3779.2	
260.68	6229.9	
260.89	5451	
261.1	4678.2	
261.31	3660.4	
261.52	6210.1	
261.73	6556.2	
261.95	4992.3	
262.16	4339.6	
262.37	6337.1	
262.58	6413.6	
262.79	4932.2	
263	3941.7	
263.21	5560.9	
263.42	5098.1	
263.63	3913	
263.84	3865.2	
264.05	6173.3	
264.26	6543.3	
264.47	5018.2	
264.69	4337.6	
264.9	6263.4	
265.11	5739.1	
265.32	3700.7	
265.53	3793.5	
265.74	5713.2	
265.95	4917.9	
266.16	4096.6	
266.37	4519.2	
266.58	5661.3	
266.79	5450.3	
267	3777.8	
267.21	3501.3	
267.42	5154.1	
267.63	5566.4	
267.84	4033.1	
268.06	3414	
268.27	5931.6	
268.48	6341.9	
268.69	3899.3	
268.9	4715.8	
269.11	6219	
269.32	5005.2	
269.53	4032.5	
269.74	3693.9	
269.95	5934.3	
270.16	4894.6	
270.37	4061.1	
270.58	4706.9	
270.79	5339.1	
271	6111.8	
271.21	4296	
271.42	4100	
271.63	5666	
271.84	5239.4	
272.05	3252.9	
272.26	3635.1	
272.47	5608	
272.68	5784.1	
272.89	3820.1	
273.11	4499.4	
273.32	5359.5	
273.53	6592.4	
273.74	4317.8	
273.95	4251.6	
274.16	6232	
274.37	5599.1	
274.58	4457.7	
274.79	3515	
275	5753.4	
275.21	6314.6	
275.42	5362.3	
275.63	4549.2	
275.84	5821	
276.05	7374.7	
276.26	4272.1	
276.47	3885	
276.68	5347.2	
276.89	6589.7	
277.1	4551.3	
277.31	3573	
277.52	5854.5	
277.73	6008.7	
277.94	3468.6	
278.15	3928.7	
278.36	5749.3	
278.57	5218.2	
278.78	3874.1	
278.99	4405.2	
279.2	5135.6	
279.41	5102.2	
279.62	5143.8	
279.83	3604.4	
280.04	6810.2	
280.25	5014.8	
280.46	5097.4	
280.67	4080.2	
280.88	5169.1	
281.09	6204.7	
281.3	4239.3	
281.51	5368.4	
281.72	5312.4	
281.93	6123.4	
282.14	3730	
282.35	4071.4	
282.56	6020.3	
282.77	6070.2	
282.98	3883.6	
283.19	4805.9	
283.4	7485.3	
283.61	5541.8	
283.82	3569.6	
284.03	4988.9	
284.24	5621	
284.45	6261.3	
284.66	4997.7	
284.87	4791.6	
285.08	6148	
285.29	6270.9	
285.5	3419.4	
285.71	3919.8	
285.92	6166.4	
286.12	6847	
286.33	5042.1	
286.54	3895.9	
286.75	6048.3	
286.96	5369.1	
287.17	3540.3	
287.38	4906.9	
287.59	5139.7	
287.8	5080.3	
288.01	3958.7	
288.22	4530.8	
288.43	6130.9	
288.64	5069.4	
288.85	4715.1	
289.06	4505.5	
289.27	6027.2	
289.48	6561.7	
289.69	5081	
289.9	4572.4	
290.11	6224.5	
290.32	5262.6	
290.53	4833.9	
290.74	4332.1	
290.94	5986.2	
291.15	6124.1	
291.36	3807.9	
291.57	4506.9	
291.78	5332.9	
291.99	4982	
292.2	3582.6	
292.41	4347.8	
292.62	6192.4	
292.83	5955.5	
293.04	5333.6	
293.25	3618.1	
293.46	5273.5	
293.67	6210.8	
293.88	3784.6	
294.09	3558.7	
294.29	5134.9	
294.5	5726.1	
294.71	4063.9	
294.92	3855.6	
295.13	5312.4	
295.34	6728.9	
295.55	3371	
295.76	3503.4	
295.97	5913.2	
296.18	6784.9	
296.39	3579.8	
296.6	3819.5	
296.81	5661.3	
297.01	5981.4	
297.22	4009.2	
297.43	3723.2	
297.64	5128.8	
297.85	5176.6	
298.06	3084.9	
298.27	3436.5	
298.48	5616.9	
298.69	5301.5	
298.9	4108.9	
299.11	3702	
299.31	5032.5	
299.52	5052.3	
299.73	4372.4	
299.94	4283.7	
300.15	5531.6	
300.36	5166.3	
300.57	4328.7	
300.78	4296	
300.99	5436	
301.2	5707.7	
301.4	3734.8	
301.61	4038.6	
301.82	5952.1	
302.03	5992.4	
302.24	4625.7	
302.45	3586	
302.66	5877	
302.87	6294.1	
303.08	3782.6	
303.29	5226.4	
303.49	5304.2	
303.7	5606	
303.91	3374.4	
304.12	4952.7	
304.33	5067.4	
304.54	5679.7	
304.75	3802.4	
304.96	3609.9	
305.16	5852.4	
305.37	6680.5	
305.58	3261.7	
305.79	3450.1	
306	5873.6	
306.21	4971.8	
306.42	3751.2	
306.63	5827.8	
306.83	5416.2	
307.04	6155.5	
307.25	4146.5	
307.46	4154.6	
307.67	4739	
307.88	6068.8	
308.09	3741	
308.29	3873.4	
308.5	5644.9	
308.71	6273.6	
308.92	4042	
309.13	3625.6	
309.34	5381.4	
309.55	5511.1	
309.75	4759.5	
309.96	4339.6	
310.17	5928.2	
310.38	5201.2	
310.59	4521.9	
310.8	3534.1	
311.01	5352.7	
311.21	5428.5	
311.42	3542.3	
311.63	3780.6	
311.84	5236.7	
312.05	5727.5	
312.26	4283	
312.46	4623.6	
312.67	5375.2	
312.88	5115.1	
313.09	3646.1	
313.3	3573	
313.51	6436.1	
313.71	6761.7	
313.92	3657.7	
314.13	3820.8	
314.34	5781.4	
314.55	5515.9	
314.76	4745.1	
314.96	4067.9	
315.17	5646.9	
315.38	5993.7	
315.59	3631.7	
315.8	3547.1	
316.01	6574.7	
316.21	6483.2	
316.42	3507.5	
316.63	4071.4	
316.84	5480.4	
317.05	6352.8	
317.26	4296.6	
317.46	3921.2	
317.67	5526.1	
317.88	5977.3	
318.09	4666	
318.3	3379.1	
318.5	5272.8	
318.71	5915.9	
318.92	5999.9	
319.13	4332.1	
319.34	6074.3	
319.54	6240.2	
319.75	3409.2	
319.96	3255.6	
320.17	6000.5	
320.38	6156.9	
320.58	3289	
320.79	4037.9	
321	6173.9	
321.21	6264.1	
321.42	4083.6	
321.62	3345.7	
321.83	5132.2	
322.04	5624.4	
322.25	3805.1	
322.46	3661.1	
322.66	5627.1	
322.87	5836	
323.08	4543.8	
323.29	3670.6	
323.5	6627.2	
323.7	5130.8	
323.91	5060.5	
324.12	4539.7	
324.33	5641.5	
324.53	5917.9	
324.74	4337.6	
324.95	4564.2	
325.16	4913.8	
325.37	5368.4	
325.57	3650.8	
325.78	3798.3	
325.99	5639.4	
326.2	5055.1	
326.4	5236	
326.61	3358	
326.82	5515.2	
327.03	5709.7	
327.24	5246.9	
327.44	5046.2	
327.65	5879	
327.86	4683.7	
328.07	4324.6	
328.27	3511.6	
328.48	6284.5	
328.69	5144.5	
328.9	5352	
329.1	3956	
329.31	5504.9	
329.52	6437.4	
329.73	3732.1	
329.93	4163.5	
330.14	5543.9	
330.35	5882.4	
330.56	6162.3	
330.76	4627	
330.97	5375.9	
331.18	5795.1	
331.39	4098	
331.59	3308.8	
331.8	6235.4	
332.01	6367.1	
332.22	3760.8	
332.42	4381.3	
332.63	5668.1	
332.84	5252.4	
333.05	4090.5	
333.25	3729.4	
333.46	5402.5	
333.67	5531.6	
333.88	3831.7	
334.08	4262.5	
334.29	7419.1	
334.5	6267.5	
334.7	3527.3	
334.91	5241.4	
335.12	5115.1	
335.33	5991.7	
335.53	4057.7	
335.74	6088.6	
335.95	5394.3	
336.16	5195.7	
336.36	4128.7	
336.57	4724	
336.78	5085.8	
336.98	6229.9	
337.19	5029.8	
337.4	3997.6	
337.61	6780.1	
337.81	5103.5	
338.02	3736.9	
338.23	4915.8	
338.43	6402	
338.64	5180	
338.85	3659	
339.05	4839.4	
339.26	6441.5	
339.47	4993.6	
339.68	3693.9	
339.88	5461.2	
340.09	5834.7	
340.3	6089.3	
340.5	4308.2	
340.71	3263.8	
340.92	5011.4	
341.13	6372.6	
341.33	3590.1	
341.54	4360.1	
341.75	5841.5	
341.95	5452.4	
342.16	4149.9	
342.37	4493.2	
342.57	5126.7	
342.78	5581.4	
342.99	4586.1	
343.19	3332	
343.4	6065.4	
343.61	5866.1	
343.81	3953.3	
344.02	3644	
344.23	6036	
344.43	6451.8	
344.64	4532.2	
344.85	4463.9	
345.06	5915.9	
345.26	6279.8	
345.47	4255	
345.68	4996.4	
345.88	4980	
346.09	6053.1	
346.3	4344.4	
346.5	3330.7	
346.71	5607.3	
346.92	5335	
347.12	3415.3	
347.33	4288.4	
347.54	6222.4	
347.74	6612.9	
347.95	4265.2	
348.16	3173.7	
348.36	5407.3	
348.57	5189.6	
348.78	4192.9	
348.98	4554	
349.19	5617.6	
349.39	5070.1	
349.6	3426.9	
349.81	3725.3	
350.01	5877.7	
350.22	5302.9	
350.43	4072.7	
350.63	4962.2	
350.84	5640.8	
351.05	5420.3	
351.25	3750.5	
351.46	3387.3	
351.67	6150.1	
351.87	5352.7	
352.08	3995.6	
352.29	4511	
352.49	6107.7	
352.7	6245.6	
352.9	3627	
353.11	4519.2	
353.32	6807.4	
353.52	5436	
353.73	3601	
353.94	4642.7	
354.14	5987.6	
354.35	5810.8	
354.55	3719.8	
354.76	4184.7	
354.97	5941.2	
355.17	5717.9	
355.38	3519.1	
355.59	4914.4	
355.79	5275.6	
356	5824.4	
356.2	4147.8	
356.41	3675.4	
356.62	5063.3	
356.82	5626.5	
357.03	4457.1	
357.24	3980.6	
357.44	5396.4	
357.65	5512.4	
357.85	5417.6	
358.06	4258.4	
358.27	5115.1	
358.47	5391.6	
358.68	3537.5	
358.88	4451.6	
359.09	5991.7	
359.3	6411.5	
359.5	5206.6	
359.71	4635.2	
359.91	6854.6	
360.12	6252.4	
360.33	4457.7	
360.53	4991.6	
360.74	5388.2	
360.94	5525.4	
361.15	4688.5	
361.36	3926.6	
361.56	6214.9	
361.77	5683.1	
361.97	5250.3	
362.18	4185.4	
362.38	6294.8	
362.59	5356.8	
362.8	3891.1	
363	3725.3	
363.21	5157.5	
363.41	5852.4	
363.62	4454.3	
363.83	5554.8	
364.03	5890.6	
364.24	7053.9	
364.44	5564.3	
364.65	5724.8	
364.85	5704.3	
365.06	5406.6	
365.27	4130.8	
365.47	4141.7	
365.68	6854.6	
365.88	5739.1	
366.09	4556.7	
366.29	4184	
366.5	6047.7	
366.71	6472.3	
366.91	5611.4	
367.12	4767	
367.32	7043	
367.53	6377.4	
367.73	4674.1	
367.94	5690.6	
368.14	6223.8	
368.35	7193.1	
368.56	4687.8	
368.76	4441.4	
368.97	6426.5	
369.17	8106.5	
369.38	4128	
369.58	4453.6	
369.79	5416.2	
369.99	6733.7	
370.2	5478.3	
370.4	4488.5	
370.61	6088.6	
370.82	7350.2	
371.02	4459.1	
371.23	3772.4	
371.43	5333.6	
371.64	6740.5	
371.84	4502.8	
372.05	5816.2	
372.25	8208.3	
372.46	6507.1	
372.66	4545.8	
372.87	4506.9	
373.07	6513.9	
373.28	8198	
373.48	5656.5	
373.69	5423.7	
373.9	6034	
374.1	6104.3	
374.31	5594.4	
374.51	5157.5	
374.72	6943.3	
374.92	5801.9	
375.13	5870.2	
375.33	4988.2	
375.54	6613.6	
375.74	5986.2	
375.95	5089.9	
376.15	6449.1	
376.36	6597.9	
376.56	6461.3	
376.77	5234.6	
376.97	5689.9	
377.18	7826.7	
377.38	6796.5	
377.59	6167.8	
377.79	4785.4	
378	6596.5	
378.2	7103.7	
378.41	4839.4	
378.61	4854.4	
378.82	7085.3	
379.02	6294.8	
379.23	5098.8	
379.43	6253.8	
379.64	7280.5	
379.84	6921.5	
380.05	4915.1	
380.25	4795.7	
380.46	6994.5	
380.66	6455.2	
380.87	6275	
381.07	6630	
381.28	7581.6	
381.48	6955.6	
381.69	4956.1	
381.89	4992.9	
382.1	5824.4	
382.3	7110.5	
382.51	6147.3	
382.71	7138.5	
382.91	6951.5	
383.12	7524.2	
383.32	5299.5	
383.53	5545.9	
383.73	6739.9	
383.94	6608.1	
384.14	5393	
384.35	4536.3	
384.55	6482.5	
384.76	6982.2	
384.96	5251	
385.17	5595.7	
385.37	6861.4	
385.58	6115.2	
385.78	5606.7	
385.98	4376.5	
386.19	6365.1	
386.39	6755.6	
386.6	5026.4	
386.8	5259.2	
387.01	6927.6	
387.21	6995.2	
387.42	5786.2	
387.62	6456.6	
387.83	6263.4	
388.03	7049.8	
388.23	5452.4	
388.44	6272.9	
388.64	6106.4	
388.85	6217	
389.05	5855.1	
389.26	6598.6	
389.46	8275.2	
389.67	7640.3	
389.87	5871.5	
390.07	6000.5	
390.28	6860	
390.48	6339.1	
390.69	5221	
390.89	5526.1	
391.1	6623.8	
391.3	7571.3	
391.5	6784.2	
391.71	7494.2	
391.91	7352.2	
392.12	8483.4	
392.32	6901	
392.53	6029.9	
392.73	6676.4	
392.93	6914.6	
393.14	5724.8	
393.34	6513.2	
393.55	7443.7	
393.75	6770.6	
393.95	5709.1	
394.16	5614.8	
394.36	6594.5	
394.57	7362.4	
394.77	5078.3	
394.98	5515.2	
395.18	6613.6	
395.38	6768.5	
395.59	6634.1	
395.79	5542.5	
396	6868.9	
396.2	7430.7	
396.4	6525.5	
396.61	6502.3	
396.81	7717.4	
397.02	6979.5	
397.22	6851.1	
397.42	6961	
397.63	7781.6	
397.83	7025.9	
398.04	5613.5	
398.24	6344.6	
398.44	7533.8	
398.65	6662.7	
398.85	5613.5	
399.05	5803.3	
399.26	7034.1	
399.46	8856.1	
399.67	6180.8	
399.87	5937.7	
400.07	7530.4	
400.28	7876.5	
400.48	6123.4	
400.69	7251.9	
400.89	8297	
401.09	8648.6	
401.3	6091.3	
401.5	7296.2	
401.7	9098.4	
401.91	9407.7	
402.11	6518	
402.32	6797.9	
402.52	8364.6	
402.72	8168	
402.93	6858.6	
403.13	5595.7	
403.33	8927.1	
403.54	7460.8	
403.74	6341.2	
403.94	7251.2	
404.15	7468.3	
404.35	8794.7	
404.56	6032	
404.76	8018.5	
404.96	7968.6	
405.17	7806.9	
405.37	7191.1	
405.57	6804.7	
405.78	8308.6	
405.98	7617.1	
406.18	6485.9	
406.39	7411.6	
406.59	8251.9	
406.79	7892.2	
407	6105.7	
407.2	6212.2	
407.4	8261.5	
407.61	8516.8	
407.81	6352.8	
408.01	8614.4	
408.22	7309.9	
408.42	9553.1	
408.62	7802.1	
408.83	7269.6	
409.03	8366	
409.23	8265.6	
409.44	7725.6	
409.64	8054.7	
409.84	9874.6	
410.05	9854.1	
410.25	8082.6	
410.45	7790.5	
410.66	9485.5	
410.86	11942	
411.06	8700.5	
411.27	8393.3	
411.47	12009	
411.67	9827.5	
411.88	8708.6	
412.08	9392.7	
412.28	10625	
412.49	11133	
412.69	8831.5	
412.89	8921.6	
413.09	11085	
413.3	10952	
413.5	9116.9	
413.7	8673.1	
413.91	10219	
414.11	11248	
414.31	8988.5	
414.52	9698.5	
414.72	10869	
414.92	10892	
415.12	9190.6	
415.33	9779.7	
415.53	11526	
415.73	11658	
415.94	10132	
416.14	9659.6	
416.34	10513	
416.55	10173	
416.75	10830	
416.95	10305	
417.15	11766	
417.36	12279	
417.56	11376	
417.76	10500	
417.97	12168	
418.17	11985	
418.37	9817.3	
418.57	10183	
418.78	11653	
418.98	11282	
419.18	11153	
419.38	10917	
419.59	11396	
419.79	10855	
419.99	9904	
420.2	10281	
420.4	11946	
420.6	12043	
420.8	9745.6	
421.01	9679.4	
421.21	11974	
421.41	12046	
421.61	10292	
421.82	10006	
422.02	11413	
422.22	12229	
422.42	11037	
422.63	10307	
422.83	11542	
423.03	12846	
423.23	10408	
423.44	9444.5	
423.64	11508	
423.84	11105	
424.04	9846	
424.25	9551.7	
424.45	12372	
424.65	12286	
424.85	9213.1	
425.06	9915.6	
425.26	12335	
425.46	10871	
425.66	10402	
425.87	10010	
426.07	12138	
426.27	11939	
426.47	10278	
426.67	9361.9	
426.88	12306	
427.08	11825	
427.28	10592	
427.48	9364	
427.69	10535	
427.89	11391	
428.09	10436	
428.29	9521.7	
428.5	12180	
428.7	11668	
428.9	9584.5	
429.1	9918.3	
429.3	11539	
429.51	12131	
429.71	9682.8	
429.91	10734	
430.11	12093	
430.31	12968	
430.52	10318	
430.72	10856	
430.92	12738	
431.12	12362	
431.32	10204	
431.53	10435	
431.73	11258	
431.93	12927	
432.13	10036	
432.33	10008	
432.54	11735	
432.74	12243	
432.94	10116	
433.14	11148	
433.34	12254	
433.55	12205	
433.75	11143	
433.95	13333	
434.15	12422	
434.35	12172	
434.56	10423	
434.76	10238	
434.96	12456	
435.16	12989	
435.36	10446	
435.56	12007	
435.77	12389	
435.97	12651	
436.17	12717	
436.37	11970	
436.57	12514	
436.78	12678	
436.98	11678	
437.18	12529	
437.38	13564	
437.58	12508	
437.78	12639	
437.99	11168	
438.19	13053	
438.39	14827	
438.59	11027	
438.79	10402	
438.99	13652	
439.2	12479	
439.4	10345	
439.6	10584	
439.8	12949	
440	14102	
440.2	11837	
440.4	12163	
440.61	13802	
440.81	14567	
441.01	11595	
441.21	12744	
441.41	14812	
441.61	14171	
441.81	13373	
442.02	14272	
442.22	15145	
442.42	14291	
442.62	12013	
442.82	11927	
443.02	14756	
443.22	14057	
443.43	12670	
443.63	12049	
443.83	13511	
444.03	13823	
444.23	13828	
444.43	13293	
444.63	14414	
444.83	15556	
445.04	12674	
445.24	14031	
445.44	14532	
445.64	14911	
445.84	12968	
446.04	13271	
446.24	13828	
446.44	14904	
446.65	12075	
446.85	12880	
447.05	13523	
447.25	14689	
447.45	12586	
447.65	11994	
447.85	13983	
448.05	13491	
448.25	13097	
448.46	13018	
448.66	14108	
448.86	13841	
449.06	11989	
449.26	13205	
449.46	14719	
449.66	13560	
449.86	13039	
450.06	12956	
450.26	14021	
450.47	14707	
450.67	12891	
450.87	13701	
451.07	14709	
451.27	14686	
451.47	12516	
451.67	13310	
451.87	14404	
452.07	15350	
452.27	13160	
452.47	12900	
452.67	14321	
452.88	15302	
453.08	12034	
453.28	14548	
453.48	16315	
453.68	14427	
453.88	13076	
454.08	13257	
454.28	15347	
454.48	14986	
454.68	13845	
454.88	14369	
455.08	15373	
455.28	15578	
455.48	13001	
455.68	13961	
455.89	16297	
456.09	16058	
456.29	13621	
456.49	14037	
456.69	16550	
456.89	15553	
457.09	14702	
457.29	15259	
457.49	16141	
457.69	16566	
457.89	14964	
458.09	14151	
458.29	16389	
458.49	17083	
458.69	15596	
458.89	15012	
459.09	17733	
459.29	17662	
459.49	15086	
459.69	16236	
459.9	17030	
460.1	17038	
460.3	14814	
460.5	14742	
460.7	17160	
460.9	16941	
461.1	14638	
461.3	16227	
461.5	18355	
461.7	17832	
461.9	15738	
462.1	15783	
462.3	17698	
462.5	18305	
462.7	15774	
462.9	16276	
463.1	19624	
463.3	19643	
463.5	16424	
463.7	18020	
463.9	18539	
464.1	18945	
464.3	17588	
464.5	17329	
464.7	19372	
464.9	19684	
465.1	19159	
465.3	18098	
465.5	19861	
465.7	20202	
465.9	18836	
466.1	17932	
466.3	20508	
466.5	19631	
466.7	19760	
466.9	18275	
467.1	20168	
467.3	20975	
467.5	20043	
467.7	18566	
467.9	21465	
468.1	22577	
468.3	19307	
468.5	20267	
468.7	20662	
468.9	20404	
469.1	19432	
469.3	20454	
469.5	22965	
469.7	20608	
469.9	19508	
470.1	19349	
470.3	21065	
470.5	20911	
470.7	20729	
470.9	19184	
471.1	20867	
471.3	20706	
471.5	19120	
471.69	21115	
471.89	20462	
472.09	19686	
472.29	20135	
472.49	19811	
472.69	20332	
472.89	21012	
473.09	18949	
473.29	18667	
473.49	20283	
473.69	20128	
473.89	19822	
474.09	19031	
474.29	21521	
474.49	21252	
474.69	19987	
474.89	19154	
475.09	20312	
475.29	20500	
475.49	18441	
475.69	18942	
475.88	21746	
476.08	20626	
476.28	18593	
476.48	18583	
476.68	20773	
476.88	20570	
477.08	18378	
477.28	18968	
477.48	19845	
477.68	20540	
477.88	18388	
478.08	18588	
478.28	21201	
478.48	20095	
478.67	19007	
478.87	17954	
479.07	21431	
479.27	20285	
479.47	19052	
479.67	19207	
479.87	21125	
480.07	21734	
480.27	18447	
480.47	20063	
480.67	20421	
480.87	21591	
481.06	18724	
481.26	19830	
481.46	20550	
481.66	20648	
481.86	19318	
482.06	20436	
482.26	20426	
482.46	21324	
482.66	19224	
482.86	18918	
483.05	20991	
483.25	20291	
483.45	22071	
483.65	19491	
483.85	20837	
484.05	20915	
484.25	19908	
484.45	20973	
484.65	21961	
484.84	22506	
485.04	19656	
485.24	19759	
485.44	22580	
485.64	20939	
485.84	19324	
486.04	21024	
486.24	21412	
486.44	21771	
486.63	19377	
486.83	20569	
487.03	21603	
487.23	22103	
487.43	19688	
487.63	22544	
487.83	22269	
488.02	23150	
488.22	21352	
488.42	22145	
488.62	23160	
488.82	22266	
489.02	20665	
489.22	21347	
489.41	23133	
489.61	23024	
489.81	20668	
490.01	20794	
490.21	23360	
490.41	24013	
490.61	21044	
490.8	21022	
491	23048	
491.2	21934	
491.4	21534	
491.6	20478	
491.8	22298	
491.99	22373	
492.19	20101	
492.39	20474	
492.59	23043	
492.79	23084	
492.99	21644	
493.18	20904	
493.38	23582	
493.58	25028	
493.78	22337	
493.98	21812	
494.18	23843	
494.37	23707	
494.57	23376	
494.77	23324	
494.97	25185	
495.17	25617	
495.37	23341	
495.56	23593	
495.76	26282	
495.96	25813	
496.16	24987	
496.36	24128	
496.55	26294	
496.75	26078	
496.95	24559	
497.15	24359	
497.35	26133	
497.54	26460	
497.74	24087	
497.94	26044	
498.14	27206	
498.34	27153	
498.53	24181	
498.73	24978	
498.93	26118	
499.13	26898	
499.33	25316	
499.52	25334	
499.72	27260	
499.92	27478	
500.12	25135	
500.32	25490	
500.51	27278	
500.71	27570	
500.91	26422	
501.11	25826	
501.31	27561	
501.5	27801	
501.7	26946	
501.9	25612	
502.1	27185	
502.29	27607	
502.49	26389	
502.69	26469	
502.89	27442	
503.09	27623	
503.28	24661	
503.48	24832	
503.68	26080	
503.88	26516	
504.07	25815	
504.27	24903	
504.47	26714	
504.67	26419	
504.86	25582	
505.06	25047	
505.26	25964	
505.46	28059	
505.65	24781	
505.85	24798	
506.05	25841	
506.25	26049	
506.44	23766	
506.64	24384	
506.84	25253	
507.04	26095	
507.23	23731	
507.43	24323	
507.63	27337	
507.83	25464	
508.02	24205	
508.22	23967	
508.42	27706	
508.62	25384	
508.81	23989	
509.01	24964	
509.21	24981	
509.4	25477	
509.6	24358	
509.8	23808	
510	25213	
510.19	26900	
510.39	23654	
510.59	23897	
510.79	25516	
510.98	27177	
511.18	23991	
511.38	24327	
511.57	26159	
511.77	26405	
511.97	24848	
512.17	23548	
512.36	26238	
512.56	26118	
512.76	23901	
512.95	23470	
513.15	26055	
513.35	24822	
513.55	24696	
513.74	23888	
513.94	26434	
514.14	25594	
514.33	24946	
514.53	24731	
514.73	25499	
514.92	25978	
515.12	24308	
515.32	24143	
515.51	26067	
515.71	26813	
515.91	25878	
516.11	24343	
516.3	28157	
516.5	25851	
516.7	24829	
516.89	25757	
517.09	25910	
517.29	25959	
517.48	25344	
517.68	24573	
517.88	25666	
518.07	26317	
518.27	25089	
518.47	24219	
518.66	26871	
518.86	25365	
519.06	23920	
519.25	24393	
519.45	25753	
519.65	27814	
519.84	25202	
520.04	26233	
520.24	28061	
520.43	26522	
520.63	24746	
520.83	24490	
521.02	25566	
521.22	26206	
521.42	24607	
521.61	25357	
521.81	25489	
522.01	25475	
522.2	24614	
522.4	24237	
522.6	26473	
522.79	25185	
522.99	24767	
523.18	24432	
523.38	26774	
523.58	26993	
523.77	27150	
523.97	25058	
524.17	29516	
524.36	28710	
524.56	27211	
524.76	26740	
524.95	28041	
525.15	27536	
525.34	26903	
525.54	27096	
525.74	29093	
525.93	28124	
526.13	28730	
526.33	27577	
526.52	29567	
526.72	29227	
526.91	28820	
527.11	28273	
527.31	29838	
527.5	30606	
527.7	28562	
527.89	27407	
528.09	29181	
528.29	30054	
528.48	28860	
528.68	28430	
528.87	30256	
529.07	29883	
529.27	28506	
529.46	28082	
529.66	30128	
529.85	30569	
530.05	28065	
530.25	28753	
530.44	31696	
530.64	29874	
530.83	28216	
531.03	28762	
531.23	30416	
531.42	30073	
531.62	29739	
531.81	28889	
532.01	31038	
532.21	31652	
532.4	29450	
532.6	30154	
532.79	32494	
532.99	32182	
533.18	30303	
533.38	31326	
533.58	31902	
533.77	32622	
533.97	30857	
534.16	31558	
534.36	33208	
534.55	32253	
534.75	31744	
534.95	31285	
535.14	33536	
535.34	32417	
535.53	30575	
535.73	32744	
535.92	33784	
536.12	32433	
536.31	30403	
536.51	31737	
536.71	32287	
536.9	31894	
537.1	30318	
537.29	30838	
537.49	32773	
537.68	31899	
537.88	31125	
538.07	30477	
538.27	32344	
538.46	33532	
538.66	30590	
538.86	31130	
539.05	32687	
539.25	33024	
539.44	31685	
539.64	30863	
539.83	32402	
540.03	33619	
540.22	30856	
540.42	30266	
540.61	32024	
540.81	32505	
541	30690	
541.2	31688	
541.39	31462	
541.59	31998	
541.78	31489	
541.98	30063	
542.18	31133	
542.37	31277	
542.57	30279	
542.76	31280	
542.96	30642	
543.15	31624	
543.35	29829	
543.54	29147	
543.74	31297	
543.93	31062	
544.13	29112	
544.32	30504	
544.52	30890	
544.71	30265	
544.91	28261	
545.1	29680	
545.3	30314	
545.49	31042	
545.69	28120	
545.88	28717	
546.08	32082	
546.27	31335	
546.47	29327	
546.66	28568	
546.86	30767	
547.05	31548	
547.24	28692	
547.44	28780	
547.63	29650	
547.83	31272	
548.02	29082	
548.22	29043	
548.41	29387	
548.61	31006	
548.8	28114	
549	28306	
549.19	29870	
549.39	30327	
549.58	27750	
549.78	28518	
549.97	30382	
550.17	29618	
550.36	28675	
550.55	30205	
550.75	29519	
550.94	30205	
551.14	27679	
551.33	27794	
551.53	28678	
551.72	29752	
551.92	27859	
552.11	27631	
552.31	29644	
552.5	29591	
552.69	29257	
552.89	27119	
553.08	29478	
553.28	29138	
553.47	27537	
553.67	28627	
553.86	29902	
554.06	28197	
554.25	26458	
554.44	27225	
554.64	30474	
554.83	30100	
555.03	27061	
555.22	27320	
555.42	29369	
555.61	28994	
555.8	26825	
556	27346	
556.19	27901	
556.39	29239	
556.58	26975	
556.78	27050	
556.97	28807	
557.16	28571	
557.36	28383	
557.55	26815	
557.75	27457	
557.94	29709	
558.13	26712	
558.33	26540	
558.52	29336	
558.72	28287	
558.91	26460	
559.1	26665	
559.3	27650	
559.49	27110	
559.69	26008	
559.88	27008	
560.07	28375	
560.27	28831	
560.46	27058	
560.66	27286	
560.85	27994	
561.04	26773	
561.24	26114	
561.43	26129	
561.63	27276	
561.82	27415	
562.01	27521	
562.21	26530	
562.4	27953	
562.59	29320	
562.79	26325	
562.98	26231	
563.18	28301	
563.37	30062	
563.56	27183	
563.76	26390	
563.95	27895	
564.14	27771	
564.34	26903	
564.53	26416	
564.73	28420	
564.92	29037	
565.11	27247	
565.31	26641	
565.5	29219	
565.69	28203	
565.89	26906	
566.08	27147	
566.27	29252	
566.47	29818	
566.66	28023	
566.85	26754	
567.05	29095	
567.24	28388	
567.44	27069	
567.63	28415	
567.82	29280	
568.02	28999	
568.21	27144	
568.4	27510	
568.6	28974	
568.79	28991	
568.98	26942	
569.18	27561	
569.37	29410	
569.56	31352	
569.76	28013	
569.95	29063	
570.14	29616	
570.34	29888	
570.53	27343	
570.72	27488	
570.91	30234	
571.11	29281	
571.3	27816	
571.49	28660	
571.69	29517	
571.88	28890	
572.07	28867	
572.27	28498	
572.46	29194	
572.65	30162	
572.85	27677	
573.04	28300	
573.23	30784	
573.43	29750	
573.62	28036	
573.81	28482	
574	30027	
574.2	30102	
574.39	28717	
574.58	28947	
574.78	31725	
574.97	30808	
575.16	29596	
575.36	29887	
575.55	31479	
575.74	31400	
575.93	28760	
576.13	30323	
576.32	30780	
576.51	31643	
576.71	29088	
576.9	30947	
577.09	31836	
577.28	31331	
577.48	29718	
577.67	28967	
577.86	30939	
578.05	31490	
578.25	29679	
578.44	29770	
578.63	30975	
578.83	32600	
579.02	28910	
579.21	30906	
579.4	31509	
579.6	31300	
579.79	29933	
579.98	32385	
580.17	31913	
580.37	32049	
580.56	29299	
580.75	30392	
580.94	32628	
581.14	32160	
581.33	30946	
581.52	29687	
581.71	32101	
581.91	32374	
582.1	29428	
582.29	29897	
582.48	31451	
582.68	31526	
582.87	30532	
583.06	30277	
583.25	31912	
583.45	31735	
583.64	31153	
583.83	31951	
584.02	31462	
584.21	32193	
584.41	30919	
584.6	30328	
584.79	31873	
584.98	32754	
585.18	29759	
585.37	29663	
585.56	31369	
585.75	32344	
585.94	29648	
586.14	30653	
586.33	32135	
586.52	31565	
586.71	29983	
586.91	29724	
587.1	30312	
587.29	31350	
587.48	28979	
587.67	29363	
587.87	31083	
588.06	31121	
588.25	30431	
588.44	29536	
588.63	30124	
588.83	30994	
589.02	28561	
589.21	28226	
589.4	29302	
589.59	29440	
589.78	26327	
589.98	26585	
590.17	27465	
590.36	28480	
590.55	24968	
590.74	25469	
590.94	28867	
591.13	27198	
591.32	25227	
591.51	24738	
591.7	27848	
591.89	27514	
592.09	25232	
592.28	25877	
592.47	26820	
592.66	29157	
592.85	25572	
593.05	25901	
593.24	27463	
593.43	28454	
593.62	26016	
593.81	26545	
594	27658	
594.19	27723	
594.39	25915	
594.58	25741	
594.77	27926	
594.96	28321	
595.15	25439	
595.34	26270	
595.54	27547	
595.73	26569	
595.92	24415	
596.11	25639	
596.3	27996	
596.49	26501	
596.68	25243	
596.88	25774	
597.07	27484	
597.26	26465	
597.45	24778	
597.64	26187	
597.83	26610	
598.02	27320	
598.22	24768	
598.41	25620	
598.6	26989	
598.79	26318	
598.98	24590	
599.17	25988	
599.36	27116	
599.55	28030	
599.74	26919	
599.94	26596	
600.13	27344	
600.32	25965	
600.51	24490	
600.7	24609	
600.89	27819	
601.08	27956	
601.27	24449	
601.47	25411	
601.66	27164	
601.85	27788	
602.04	25071	
602.23	25312	
602.42	26129	
602.61	26637	
602.8	24600	
602.99	24212	
603.18	26192	
603.37	26529	
603.57	24716	
603.76	25565	
603.95	27222	
604.14	26874	
604.33	24599	
604.52	25103	
604.71	26666	
604.9	26144	
605.09	25374	
605.28	25255	
605.47	27460	
605.66	27020	
605.86	25281	
606.05	24619	
606.24	27004	
606.43	25494	
606.62	24927	
606.81	25612	
607	26862	
607.19	26165	
607.38	23986	
607.57	24498	
607.76	25809	
607.95	25165	
608.14	24578	
608.33	25266	
608.52	25757	
608.72	26796	
608.91	23744	
609.1	23740	
609.29	25698	
609.48	25038	
609.67	24528	
609.86	23481	
610.05	25142	
610.24	25586	
610.43	23354	
610.62	23010	
610.81	26375	
611	26340	
611.19	23320	
611.38	24070	
611.57	25758	
611.76	27202	
611.95	23135	
612.14	22952	
612.33	25478	
612.52	24855	
612.71	23821	
612.9	22857	
613.09	24447	
613.28	27070	
613.47	23224	
613.66	24445	
613.85	25537	
614.04	24902	
614.24	23490	
614.43	22442	
614.62	25643	
614.81	25533	
615	23960	
615.19	24310	
615.38	24672	
615.57	25297	
615.76	24056	
615.95	25170	
616.14	25706	
616.33	25276	
616.52	24382	
616.71	24552	
616.9	25576	
617.09	25704	
617.28	23634	
617.47	25197	
617.66	24825	
617.85	25072	
618.04	24984	
618.22	24515	
618.41	25610	
618.6	26951	
618.79	24537	
618.98	24683	
619.17	27463	
619.36	25489	
619.55	24778	
619.74	24767	
619.93	26576	
620.12	26363	
620.31	25649	
620.5	25935	
620.69	27830	
620.88	28234	
621.07	26632	
621.26	25922	
621.45	27405	
621.64	27422	
621.83	25879	
622.02	25229	
622.21	27458	
622.4	27192	
622.59	26646	
622.78	26271	
622.97	26916	
623.16	28190	
623.35	26149	
623.54	25199	
623.72	27300	
623.91	27420	
624.1	26424	
624.29	25031	
624.48	28810	
624.67	27562	
624.86	26366	
625.05	25349	
625.24	28732	
625.43	26942	
625.62	28140	
625.81	25827	
626	27981	
626.19	27596	
626.38	26766	
626.56	25864	
626.75	27415	
626.94	28507	
627.13	26350	
627.32	25196	
627.51	28031	
627.7	29416	
627.89	25241	
628.08	26407	
628.27	26868	
628.46	27314	
628.65	25258	
628.83	25206	
629.02	27639	
629.21	26942	
629.4	25890	
629.59	26080	
629.78	27056	
629.97	27897	
630.16	26287	
630.35	25751	
630.54	28254	
630.72	28051	
630.91	25531	
631.1	26073	
631.29	27546	
631.48	27719	
631.67	26074	
631.86	25494	
632.05	27048	
632.24	27120	
632.42	24984	
632.61	25821	
632.8	26819	
632.99	26731	
633.18	25931	
633.37	26114	
633.56	27167	
633.75	27319	
633.93	25664	
634.12	25563	
634.31	28101	
634.5	27936	
634.69	25511	
634.88	25800	
635.07	27014	
635.25	27439	
635.44	26310	
635.63	26776	
635.82	26697	
636.01	26319	
636.2	26021	
636.39	25890	
636.57	28054	
636.76	27282	
636.95	24942	
637.14	26425	
637.33	27147	
637.52	28052	
637.7	24679	
637.89	25753	
638.08	26787	
638.27	28085	
638.46	25774	
638.65	26062	
638.83	27729	
639.02	26188	
639.21	25414	
639.4	25961	
639.59	26530	
639.78	26063	
639.96	24344	
640.15	24292	
640.34	26056	
640.53	26258	
640.72	23866	
640.91	24167	
641.09	25285	
641.28	26596	
641.47	23937	
641.66	24943	
641.85	26081	
642.03	25887	
642.22	24412	
642.41	23971	
642.6	25221	
642.79	24403	
642.97	23361	
643.16	24240	
643.35	25036	
643.54	24610	
643.73	23311	
643.91	24042	
644.1	24126	
644.29	25089	
644.48	22825	
644.67	22954	
644.85	24024	
645.04	24483	
645.23	22106	
645.42	22496	
645.6	23385	
645.79	24694	
645.98	21833	
646.17	20826	
646.36	22671	
646.54	22994	
646.73	21962	
646.92	20982	
647.11	22616	
647.29	23620	
647.48	21149	
647.67	20667	
647.86	23655	
648.05	23986	
648.23	21186	
648.42	22589	
648.61	23178	
648.8	22758	
648.98	20493	
649.17	20971	
649.36	22053	
649.55	21769	
649.73	20553	
649.92	21541	
650.11	22199	
650.3	22499	
650.48	20818	
650.67	20308	
650.86	22588	
651.05	21554	
651.23	20521	
651.42	20491	
651.61	21912	
651.79	21691	
651.98	20638	
652.17	20099	
652.36	22068	
652.54	21189	
652.73	20035	
652.92	19768	
653.11	22091	
653.29	21956	
653.48	19157	
653.67	20068	
653.85	21680	
654.04	22567	
654.23	19921	
654.42	19338	
654.6	20347	
654.79	20835	
654.98	18364	
655.16	18451	
655.35	19139	
655.54	19149	
655.73	17890	
655.91	17650	
656.1	20337	
656.29	19288	
656.47	17621	
656.66	19529	
656.85	19725	
657.03	19964	
657.22	18559	
657.41	18744	
657.59	20324	
657.78	20188	
657.97	18516	
658.16	19336	
658.34	20923	
658.53	21419	
658.72	20230	
658.9	20674	
659.09	20469	
659.28	20636	
659.46	18970	
659.65	18956	
659.84	20344	
660.02	20848	
660.21	18861	
660.4	18836	
660.58	21326	
660.77	20711	
660.96	19459	
661.14	18577	
661.33	21853	
661.52	21573	
661.7	18099	
661.89	22218	
662.08	19965	
662.26	19736	
662.45	18540	
662.64	18480	
662.82	20582	
663.01	19914	
663.2	18495	
663.38	19417	
663.57	20337	
663.75	20300	
663.94	18770	
664.13	20004	
664.31	19688	
664.5	20448	
664.69	19117	
664.87	19663	
665.06	19386	
665.25	20387	
665.43	19943	
665.62	19793	
665.8	20635	
665.99	19904	
666.18	18693	
666.36	18777	
666.55	20276	
666.74	20307	
666.92	18260	
667.11	19738	
667.29	19568	
667.48	20416	
667.67	19300	
667.85	18366	
668.04	19754	
668.22	19858	
668.41	18417	
668.6	18536	
668.78	19438	
668.97	19525	
669.15	18795	
669.34	17546	
669.53	19502	
669.71	19679	
669.9	17727	
670.08	18472	
670.27	19376	
670.46	19965	
670.64	18635	
670.83	18865	
671.01	19269	
671.2	19725	
671.38	17972	
671.57	17712	
671.76	20485	
671.94	21099	
672.13	17683	
672.31	18699	
672.5	20029	
672.69	19381	
672.87	17976	
673.06	18219	
673.24	19902	
673.43	19434	
673.61	18535	
673.8	17989	
673.98	19890	
674.17	20190	
674.36	18667	
674.54	18438	
674.73	19546	
674.91	19940	
675.1	18266	
675.28	17901	
675.47	19403	
675.65	20070	
675.84	18047	
676.03	18456	
676.21	19118	
676.4	18669	
676.58	18899	
676.77	18740	
676.95	20629	
677.14	19086	
677.32	17642	
677.51	17518	
677.69	19938	
677.88	18753	
678.06	17513	
678.25	17619	
678.44	19463	
678.62	19041	
678.81	17256	
678.99	18534	
679.18	20176	
679.36	19775	
679.55	18142	
679.73	18671	
679.92	19765	
680.1	19117	
680.29	19394	
680.47	17935	
680.66	18858	
680.84	19826	
681.03	17221	
681.21	18416	
681.4	19010	
681.58	18882	
681.77	17527	
681.95	17481	
682.14	19982	
682.32	20232	
682.51	18466	
682.69	16974	
682.88	18796	
683.06	19247	
683.25	18110	
683.43	18475	
683.62	19053	
683.8	19537	
683.99	18498	
684.17	17593	
684.36	20158	
684.54	18323	
684.73	16166	
684.91	16266	
685.1	18069	
685.28	17110	
685.46	16227	
685.65	16157	
685.83	17664	
686.02	16999	
686.2	15543	
686.39	15823	
686.57	16894	
686.76	18768	
686.94	15935	
687.13	16183	
687.31	17910	
687.5	17664	
687.68	15714	
687.86	17102	
688.05	19620	
688.23	17082	
688.42	17185	
688.6	16602	
688.79	17863	
688.97	17749	
689.16	17094	
689.34	15801	
689.52	18796	
689.71	18796	
689.89	17468	
690.08	16523	
690.26	18299	
690.45	18019	
690.63	17413	
690.81	16573	
691	17823	
691.18	17752	
691.37	16610	
691.55	19026	
691.74	17508	
691.92	19750	
692.1	16574	
692.29	15726	
692.47	17847	
692.66	17018	
692.84	16245	
693.02	16645	
693.21	17425	
693.39	17700	
693.58	17051	
693.76	16493	
693.94	19103	
694.13	19174	
694.31	16606	
694.5	17810	
694.68	18071	
694.86	18482	
695.05	17430	
695.23	17846	
695.42	19122	
695.6	21557	
695.78	18127	
695.97	16946	
696.15	19095	
696.34	18348	
696.52	16648	
696.7	17402	
696.89	18350	
697.07	17816	
697.25	17085	
697.44	18899	
697.62	18289	
697.81	18604	
697.99	16555	
698.17	17086	
698.36	17433	
698.54	17952	
698.72	17163	
698.91	16003	
699.09	17651	
699.28	17450	
699.46	16554	
699.64	16356	
699.83	17382	
700.01	18445	
700.19	17187	
700.38	15710	
700.56	18776	
700.74	17604	
700.93	15971	
701.11	16911	
701.29	18191	
701.48	19413	
701.66	16395	
701.84	16654	
702.03	17925	
702.21	18699	
702.39	16004	
702.58	16749	
702.76	18342	
702.94	18373	
703.13	16023	
703.31	18651	
703.49	17489	
703.68	18677	
703.86	16251	
704.04	17359	
704.23	17808	
704.41	18342	
704.59	16293	
704.78	17464	
704.96	19132	
705.14	18450	
705.33	16161	
705.51	16819	
705.69	17776	
705.87	18543	
706.06	17133	
706.24	15930	
706.42	18012	
706.61	18441	
706.79	17164	
706.97	15832	
707.16	17327	
707.34	17839	
707.52	16745	
707.7	16167	
707.89	17589	
708.07	17310	
708.25	16981	
708.44	17187	
708.62	17263	
708.8	18371	
708.98	16987	
709.17	16064	
709.35	17688	
709.53	17464	
709.72	15625	
709.9	15593	
710.08	17752	
710.26	17759	
710.45	17185	
710.63	15702	
710.81	17204	
710.99	17278	
711.18	16384	
711.36	15666	
711.54	16916	
711.72	17497	
711.91	15436	
712.09	14825	
712.27	16683	
712.45	17166	
712.64	15399	
712.82	14289	
713	15603	
713.18	15763	
713.37	14147	
713.55	15097	
713.73	16302	
713.91	14411	
714.1	13590	
714.28	12796	
714.46	14860	
714.64	13643	
714.83	11458	
715.01	12028	
715.19	13276	
715.37	12315	
715.55	11320	
715.74	11631	
715.92	13639	
716.1	11613	
716.28	12632	
716.47	11473	
716.65	12050	
716.83	12144	
717.01	11256	
717.19	11202	
717.38	14433	
717.56	11943	
717.74	11615	
717.92	10771	
718.1	13308	
718.29	12570	
718.47	10748	
718.65	11703	
718.83	13938	
719.01	13910	
719.2	11267	
719.38	12529	
719.56	13845	
719.74	15524	
719.92	11924	
720.11	12970	
720.29	13528	
720.47	12469	
720.65	10958	
720.83	11590	
721.02	12295	
721.2	11952	
721.38	11230	
721.56	10439	
721.74	11291	
721.92	11400	
722.11	11756	
722.29	11420	
722.47	12683	
722.65	11836	
722.83	10262	
723.01	11335	
723.2	12020	
723.38	12224	
723.56	9708.7	
723.74	10872	
723.92	11232	
724.1	12534	
724.29	10206	
724.47	11395	
724.65	11370	
724.83	11202	
725.01	9955.9	
725.19	10927	
725.37	11140	
725.56	11328	
725.74	9791.3	
725.92	10128	
726.1	11162	
726.28	11386	
726.46	10505	
726.64	10103	
726.83	11255	
727.01	11548	
727.19	9734	
727.37	10677	
727.55	11482	
727.73	12015	
727.91	9726.5	
728.09	9397.4	
728.28	12088	
728.46	12681	
728.64	10756	
728.82	10727	
729	13330	
729.18	12525	
729.36	10025	
729.54	12390	
729.72	13867	
729.91	12156	
730.09	12271	
730.27	11123	
730.45	12042	
730.63	12800	
730.81	11594	
730.99	10717	
731.17	13274	
731.35	11787	
731.53	11255	
731.71	10878	
731.9	12881	
732.08	13093	
732.26	10925	
732.44	10629	
732.62	13024	
732.8	12454	
732.98	11237	
733.16	10322	
733.34	12372	
733.52	11112	
733.7	10613	
733.88	11025	
734.07	12065	
734.25	11899	
734.43	10051	
734.61	11703	
734.79	13659	
734.97	11713	
735.15	10286	
735.33	10527	
735.51	12021	
735.69	11690	
735.87	11632	
736.05	10753	
736.23	11763	
736.41	11555	
736.59	10443	
736.77	10492	
736.95	12289	
737.13	11693	
737.32	10027	
737.5	10373	
737.68	12803	
737.86	11325	
738.04	9716.9	
738.22	11629	
738.4	10955	
738.58	11372	
738.76	10376	
738.94	9264.3	
739.12	11205	
739.3	11167	
739.48	11071	
739.66	10750	
739.84	11555	
740.02	11574	
740.2	9337.4	
740.38	9673.9	
740.56	11865	
740.74	10574	
740.92	10253	
741.1	10150	
741.28	11110	
741.46	10893	
741.64	9715.6	
741.82	10193	
742	11080	
742.18	11046	
742.36	9815.2	
742.54	9222	
742.72	11561	
742.9	10150	
743.08	10152	
743.26	8839.7	
743.44	11763	
743.62	11480	
743.8	10294	
743.98	9121.7	
744.16	11051	
744.34	10730	
744.52	9996.8	
744.7	9808.4	
744.88	11180	
745.06	10551	
745.24	9815.9	
745.42	10002	
745.6	11083	
745.78	10744	
745.96	8509.3	
746.14	8820.6	
746.32	11699	
746.5	10978	
746.68	9349.7	
746.86	8768	
747.03	11437	
747.21	9510.1	
747.39	9230.9	
747.57	8647.2	
747.75	10385	
747.93	10845	
748.11	8637.6	
748.29	8584.4	
748.47	12095	
748.65	10032	
748.83	9458.2	
749.01	9157.2	
749.19	10599	
749.37	9634.3	
749.55	8908.7	
749.73	9095	
749.91	10113	
750.09	9751.7	
750.26	9001.5	
750.44	8442.4	
750.62	10141	
750.8	9999.5	
750.98	8203.5	
751.16	8543.4	
751.34	10189	
751.52	9396.8	
751.7	9382.4	
751.88	8012.3	
752.06	10662	
752.24	10329	
752.42	7981.6	
752.59	8299.7	
752.77	9850.7	
752.95	11282	
753.13	9183.8	
753.31	8444.5	
753.49	9482.8	
753.67	10047	
753.85	8637	
754.03	8177.5	
754.21	10066	
754.38	10458	
754.56	8178.9	
754.74	7017.7	
754.92	9039.7	
755.1	9703.3	
755.28	6770.6	
755.46	6490	
755.64	9720.3	
755.82	9586.5	
755.99	6036	
756.17	6015.6	
756.35	6361	
756.53	7927	
756.71	4471.4	
756.89	5553.4	
757.07	7510.6	
757.25	6608.1	
757.42	6236.1	
757.6	7414.3	
757.78	8109.3	
757.96	7040.9	
758.14	6375.3	
758.32	5851	
758.5	6494.1	
758.67	7279.8	
758.85	5969.1	
759.03	6140.5	
759.21	7481.2	
759.39	6870.3	
759.57	5547.3	
759.75	6821.8	
759.92	8224	
760.1	7501	
760.28	7310.6	
760.46	7675.1	
760.64	7461.4	
760.82	7159	
760.99	7453.2	
761.17	6509.1	
761.35	8514.1	
761.53	7414.3	
761.71	6659.3	
761.89	7524.2	
762.06	8480	
762.24	7940	
762.42	6891.4	
762.6	6735.8	
762.78	8049.2	
762.96	8781	
763.13	7387	
763.31	7161.7	
763.49	9008.3	
763.67	8078.6	
763.85	8007.6	
764.02	8546.9	
764.2	9275.9	
764.38	8357.1	
764.56	6868.2	
764.74	7895.6	
764.91	9331.9	
765.09	8174.1	
765.27	6538.5	
765.45	6278.4	
765.63	9344.2	
765.8	9177.6	
765.98	5950.7	
766.16	6380.1	
766.34	7540.6	
766.52	7283.9	
766.69	7298.3	
766.87	6125.5	
767.05	7942	
767.23	8751	
767.41	6410.1	
767.58	6634.1	
767.76	8385.1	
767.94	8583.7	
768.12	6374.6	
768.29	7223.2	
768.47	7812.3	
768.65	8637	
768.83	5902.2	
769	7216.4	
769.18	7234.8	
769.36	8060.1	
769.54	7049.8	
769.72	5807.4	
769.89	8342.7	
770.07	8380.3	
770.25	6137.1	
770.43	7520.1	
770.6	9004.2	
770.78	9497.1	
770.96	6264.1	
771.14	6900.3	
771.31	8033.5	
771.49	7279.2	
771.67	5242.1	
771.85	5585.5	
772.02	6492.7	
772.2	7237.5	
772.38	6245.6	
772.55	5685.8	
772.73	7472.4	
772.91	7169.9	
773.09	6078.4	
773.26	6159.6	
773.44	7350.2	
773.62	7027.9	
773.8	5511.1	
773.97	5160.9	
774.15	7356.3	
774.33	6941.2	
774.5	5336.3	
774.68	5774.6	
774.86	7551.5	
775.04	6901.7	
775.21	5328.8	
775.39	5395.7	
775.57	7247.8	
775.74	7663.5	
775.92	5147.9	
776.1	5046.9	
776.27	7002.7	
776.45	8396.7	
776.63	5179.3	
776.81	4698.7	
776.98	6558.3	
777.16	7826.7	
777.34	5322	
777.51	5646.9	
777.69	6630	
777.87	6346.7	
778.04	5300.8	
778.22	6031.3	
778.4	6317.3	
778.57	7032	
778.75	4467.3	
778.93	4790.9	
779.1	6055.8	
779.28	5939.8	
779.46	4525.3	
779.64	5040.1	
779.81	7153.6	
779.99	8069.7	
780.17	5896.8	
780.34	6006.7	
780.52	6459.3	
780.69	6693.4	
780.87	5337	
781.05	4814.8	
781.22	6526.9	
781.4	6570.6	
781.58	4887.8	
781.75	4001	
781.93	6500.3	
782.11	5882.4	
782.28	5942.5	
782.46	4916.5	
782.64	5681.7	
782.81	6583.5	
782.99	4951.3	
783.17	4911.7	
783.34	6524.1	
783.52	5663.3	
783.69	5078.3	
783.87	6008.1	
784.05	5756.2	
784.22	5764.3	
784.4	5883.1	
784.58	5141.1	
784.75	6755.6	
784.93	5687.9	
785.1	4780.6	
785.28	5419.6	
785.46	6378.1	
785.63	5692.7	
785.81	4689.8	
785.99	4519.9	
786.16	5847.6	
786.34	6244.9	
786.51	4513.7	
786.69	5001.8	
786.87	5365	
787.04	5971.2	
787.22	4393.6	
787.39	5369.1	
787.57	5534.3	
787.75	6836.8	
787.92	5555.5	
788.1	5494.7	
788.27	5678.3	
788.45	5401.9	
788.63	5177.3	
788.8	3832.4	
788.98	6038.1	
789.15	5317.2	
789.33	3930.7	
789.5	4648.9	
789.68	6612.2	
789.86	6653.9	
790.03	5087.2	
790.21	4507.6	
790.38	6499.6	
790.56	5695.4	
790.73	4242	
790.91	4350.6	
791.09	5558.2	
791.26	6378.1	
791.44	4561.5	
791.61	3988.1	
791.79	5498.8	
791.96	5614.8	
792.14	4092.5	
792.32	3602.4	
792.49	5506.3	
792.67	5634.6	
792.84	4196.3	
793.02	3917.8	
793.19	6031.3	
793.37	6744.6	
793.54	3608.5	
793.72	4008.6	
793.89	6966.5	
794.07	5484.5	
794.25	4521.2	
794.42	3649.5	
794.6	6615.6	
794.77	6214.9	
794.95	4866	
795.12	4310.3	
795.3	5412.1	
795.47	6107	
795.65	4727.4	
795.82	4500.8	
796	5227.1	
796.17	7373.4	
796.35	4380.6	
796.52	5175.2	
796.7	6005.3	
796.87	6083.8	
797.05	5357.5	
797.22	5251	
797.4	6048.3	
797.57	7176.1	
797.75	4501.4	
797.92	4414.7	
798.1	6423.1	
798.27	5459.2	
798.45	3619.4	
798.62	3961.5	
798.8	5706.3	
798.97	6269.5	
799.15	4841.4	
799.32	4438.6	
799.5	4983.4	
799.67	5859.9	
799.85	4818.9	
800.02	3593.5	
800.2	5337	
800.37	5697.4	
800.55	5079	
800.72	4234.5	
800.9	6170.5	
801.07	6726.2	
801.25	5622.4	
801.42	4588.1	
801.6	6251.8	
801.77	5957.5	
801.95	4245.4	
802.12	4104.1	
802.29	5863.3	
802.47	5943.9	
802.64	4528.7	
802.82	3435.1	
802.99	5272.2	
803.17	6415.6	
803.34	4377.2	
803.52	4013.3	
803.69	7069.6	
803.87	5057.1	
804.04	4388.1	
804.21	4530.8	
804.39	6462.7	
804.56	5494	
804.74	3715	
804.91	4590.9	
805.09	5352.7	
805.26	5481	
805.44	3844.7	
805.61	4214.7	
805.78	6040.8	
805.96	6118.6	
806.13	4582.7	
806.31	4919.2	
806.48	4820.9	
806.66	5362.3	
806.83	4567	
807	4420.2	
807.18	5277.6	
807.35	5775.3	
807.53	4351.3	
807.7	3501.3	
807.87	6535.1	
808.05	5389.6	
808.22	4881.7	
808.4	3535.5	
808.57	5358.2	
808.74	4929.5	
808.92	4042	
809.09	5042.8	
809.27	5175.2	
809.44	5873.6	
809.61	3534.1	
809.79	3965.6	
809.96	6550.8	
810.14	6104.3	
810.31	3416.7	
810.48	4278.2	
810.66	5386.8	
810.83	6196.5	
811.01	3975.8	
811.18	4455	
811.35	6080.4	
811.53	4710.3	
811.7	4905.6	
811.87	4579.3	
812.05	5250.3	
812.22	5214.8	
812.39	3905.5	
812.57	3785.3	
812.74	5301.5	
812.92	7087.3	
813.09	4208.6	
813.26	4612.7	
813.44	6870.9	
813.61	5215.5	
813.78	3558	
813.96	4754.7	
814.13	5304.9	
814.3	4954	
814.48	5060.5	
814.65	4291.2	
814.82	6723.5	
815	5045.5	
815.17	4325.3	
815.34	5300.1	
815.52	5221.6	
815.69	5292	
815.87	4294.6	
816.04	4274.1	
816.21	5322	
816.38	4609.3	
816.56	4158.1	
816.73	3835.2	
816.9	6736.5	
817.08	6056.5	
817.25	3895.9	
817.42	4928.8	
817.6	4860.5	
817.77	5352.7	
817.94	4379.9	
818.12	3872	
818.29	5001.1	
818.46	7910.6	
818.64	4012	
818.81	3781.2	
818.98	4898.7	
819.16	7263.5	
819.33	4679.6	
819.5	4308.9	
819.67	5630.5	
819.85	6396.5	
820.02	4216.8	
820.19	4511	
820.37	5521.3	
820.54	4985.4	
820.71	4403.8	
820.88	5497.4	
821.06	5498.8	
821.23	5007.3	
821.4	4401.8	
821.58	4384.7	
821.75	6048.3	
821.92	5459.9	
822.09	3552.5	
822.27	3805.1	
822.44	5287.2	
822.61	5223.7	
822.79	3541.6	
822.96	6810.9	
823.13	5851.7	
823.3	5020.9	
823.48	4095.9	
823.65	3665.9	
823.82	6044.2	
823.99	4839.4	
824.17	5217.5	
824.34	3739.6	
824.51	6941.2	
824.68	5367	
824.86	3906.8	
825.03	4416.1	
825.2	5266.7	
825.37	6505.7	
825.55	3854.3	
825.72	4306.2	
825.89	7073.7	
826.06	6536.4	
826.24	4203.1	
826.41	4261.1	
826.58	6412.2	
826.75	5595.7	
826.92	3358.7	
827.1	3689.8	
827.27	8824.7	
827.44	7036.1	
827.61	3986.7	
827.79	4856.4	
827.96	5014.1	
828.13	5342.5	
828.3	4133.5	
828.47	3527.3	
828.65	5451.7	
828.82	5515.2	
828.99	5400.5	
829.16	4709.6	
829.34	5962.3	
829.51	5671.5	
829.68	4322.6	
829.85	4534.9	
830.02	6228.6	
830.2	5905	
830.37	3337.5	
830.54	5221	
830.71	6782.9	
830.88	5248.9	
831.05	3425.6	
831.23	3934.8	
831.4	6496.2	
831.57	7213.6	
831.74	4003.1	
831.91	3540.9	
832.09	5494	
832.26	5902.2	
832.43	4189.5	
832.6	4706.9	
832.77	5504.9	
832.94	6383.5	
833.12	3297.9	
833.29	4071.4	
833.46	5683.8	
833.63	7577.5	
833.8	4498.7	
833.97	4187.4	
834.15	5939.1	
834.32	5646.2	
834.49	4360.8	
834.66	4455	
834.83	6141.9	
835	4974.5	
835.17	4031.1	
835.35	4035.2	
835.52	5823.7	
835.69	5700.9	
835.86	4245.4	
836.03	3510.2	
836.2	5851	
836.37	5480.4	
836.55	4099.4	
836.72	3868.6	
836.89	5390.9	
837.06	6016.9	
837.23	4300.1	
837.4	4672.8	
837.57	6718.7	
837.75	7546.8	
837.92	3780.6	
838.09	4074.1	
838.26	5467.4	
838.43	6231.3	
838.6	4336.2	
838.77	3908.2	
838.94	7116	
839.11	6823.1	
839.29	4156	
839.46	3225.6	
839.63	5797.8	
839.8	5591.6	
839.97	3989.4	
840.14	4042.7	
840.31	5710.4	
840.48	5913.2	
840.65	3331.4	
840.82	3867.2	
841	5904.3	
841.17	5879.7	
841.34	3659	
841.51	3723.2	
841.68	5761.6	
841.85	5588.2	
842.02	3850.2	
842.19	3184.6	
842.36	5627.8	
842.53	5589.6	
842.7	3602.4	
842.87	4539	
843.05	7474.4	
843.22	5547.9	
843.39	3498.6	
843.56	3741	
843.73	5272.2	
843.9	5934.3	
844.07	5977.3	
844.24	4984.8	
844.41	8704.5	
844.58	5135.6	
844.75	3543.7	
844.92	3906.8	
845.09	5930.2	
845.26	5823.1	
845.43	3647.4	
845.6	3834.5	
845.77	5885.9	
845.94	5567.7	
846.12	4052.2	
846.29	4341	
846.46	6077.7	
846.63	5867.4	
846.8	3713	
846.97	4336.2	
847.14	6331.6	
847.31	5821.7	
847.48	4129.4	
847.65	4573.1	
847.82	6175.3	
847.99	6189.6	
848.16	4962.9	
848.33	4528.7	
848.5	5393.7	
848.67	6396.5	
848.84	3683.6	
849.01	3846.8	
849.18	5201.2	
849.35	4902.2	
849.52	4615.4	
849.69	3579.8	
849.86	6098.9	
850.03	6298.2	
850.2	3670.6	
850.37	4452.3	
850.54	6250.4	
850.71	5526.8	
850.88	4356.7	
851.05	3561.4	
851.22	5782.8	
851.39	6468.2	
851.56	3457.7	
851.73	4200.4	
851.9	5179.3	
852.07	6099.5	
852.24	4098.7	
852.41	3593.5	
852.58	5668.1	
852.75	5184.1	
852.92	4161.5	
853.09	3608.5	
853.26	5444.9	
853.43	6364.4	
853.6	3599	
853.77	3125.2	
853.94	6385.6	
854.11	5817.6	
854.28	5494.7	
854.44	3994.9	
854.61	6731.7	
854.78	6146	
854.95	3634.5	
855.12	4672.1	
855.29	4701.5	
855.46	6558.3	
855.63	3691.8	
855.8	5013.4	
855.97	5337.7	
856.14	6224.5	
856.31	5126.1	
856.48	4042.7	
856.65	5385.5	
856.82	5134.9	
856.99	3476.1	
857.16	3943.7	
857.33	7150.8	
857.49	5437.4	
857.66	3920.5	
857.83	4276.8	
858	5479.7	
858.17	5710.4	
858.34	3453.6	
858.51	3640.6	
858.68	6595.8	
858.85	6688	
859.02	4250.2	
859.19	4532.8	
859.36	5053.7	
859.52	5175.9	
859.69	3670.6	
859.86	4370.4	
860.03	5215.5	
860.2	6391.7	
860.37	3258.3	
860.54	3697.9	
860.71	6116.6	
860.88	6539.8	
861.05	4122.6	
861.21	4590.9	
861.38	6565.1	
861.55	4995.7	
861.72	3301.3	
861.89	4075.5	
862.06	6171.9	
862.23	6694.1	
862.4	3599	
862.56	3866.6	
862.73	6032.6	
862.9	5663.3	
863.07	4323.3	
863.24	3269.9	
863.41	4952.7	
863.58	5162.9	
863.75	3714.3	
863.91	4204.5	
864.08	6503	
864.25	6047.7	
864.42	4590.2	
864.59	5088.5	
864.76	6842.3	
864.93	5145.2	
865.09	3534.1	
865.26	3930.7	
865.43	6348.7	
865.6	6739.9	
865.77	3121.8	
865.94	3629.7	
866.1	6468.9	
866.27	6144.6	
866.44	5556.1	
866.61	3430.3	
866.78	5543.9	
866.95	5985.5	
867.11	3488.4	
867.28	3202.3	
867.45	6233.3	
867.62	5195	
867.79	4314.4	
867.96	3867.9	
868.12	5078.3	
868.29	6136.4	
868.46	3663.8	
868.63	4872.1	
868.8	6363.7	
868.97	5988.3	
869.13	3800.3	
869.3	3743	
869.47	5994.4	
869.64	6206	
869.81	3658.4	
869.97	3661.1	
870.14	5824.4	
870.31	6532.3	
870.48	3501.3	
870.65	4605.9	
870.81	5461.2	
870.98	5384.8	
871.15	4128.7	
871.32	3736.9	
871.48	5995.1	
871.65	6567.8	
871.82	3602.4	
871.99	3979.2	
872.16	7097.6	
872.32	6402.6	
872.49	3654.9	
872.66	3689.1	
872.83	6064	
872.99	5354.8	
873.16	4218.1	
873.33	3588.7	
873.5	5713.8	
873.67	5784.8	
873.83	3803.1	
874	4886.5	
874.17	5877.7	
874.34	7028.6	
874.5	4667.3	
874.67	4542.4	
874.84	6515.3	
875.01	5133.6	
875.17	5186.1	
875.34	3654.3	
875.51	5743.9	
875.68	6939.2	
875.84	4414.7	
876.01	5379.3	
876.18	6012.2	
876.34	5993	
876.51	3644	
876.68	3551.2	
876.85	5490.6	
877.01	6378.1	
877.18	5242.8	
877.35	3640.6	
877.52	5587.5	
877.68	4997	
877.85	3508.9	
878.02	3605.1	
878.18	5659.9	
878.35	5317.2	
878.52	2922.5	
878.69	4083.6	
878.85	6081.1	
879.02	6039.5	
879.19	5156.1	
879.35	3954.6	
879.52	5974.6	
879.69	6280.4	
879.86	3117.7	
880.02	4083	
880.19	5586.2	
880.36	6910.5	
880.52	4131.4	
880.69	4365.6	
880.86	6142.5	
881.02	6201.2	
881.19	4038.6	
881.36	3976.5	
881.52	5995.8	
881.69	5332.2	
881.86	3912.3	
882.02	3815.4	
882.19	6357.6	
882.36	7393.2	
882.52	3666.5	
882.69	5159.5	
882.86	5875.6	
883.02	5689.3	
883.19	4395.6	
883.36	4183.3	
883.52	6163.7	
883.69	7076.4	
883.86	3676.1	
884.02	3264.5	
884.19	6118.6	
884.36	5563	
884.52	4115.7	
884.69	3867.9	
884.86	5304.2	
885.02	6751.5	
885.19	4054.3	
885.36	4171	
885.52	5655.1	
885.69	5741.8	
885.86	5320.6	
886.02	4663.9	
886.19	6117.3	
886.35	5532.9	
886.52	4030.4	
886.69	5122.7	
886.85	5125.4	
887.02	6521.4	
887.19	6521.4	
887.35	6521.4	
887.52	6521.4	
887.68	6521.4	
887.85	6521.4	
888.02	6521.4	
888.18	6521.4	
888.35	6521.4	
888.51	6521.4	
888.68	6521.4	
888.85	6521.4	
889.01	6521.4	
889.18	6521.4	
889.35	6521.4	
889.51	6521.4	
889.68	6521.4	
889.84	6521.4	
890.01	6521.4	
890.17	6521.4	
890.34	6521.4	
890.51	6521.4	
890.67	6521.4	
890.84	6521.4	
891	6521.4	
891.17	6521.4	
891.34	6521.4	
891.5	6521.4	
891.67	6521.4	
891.83	6521.4	
892	6521.4	
892.16	6521.4	
892.33	6521.4	
892.5	6521.4	
892.66	6521.4	
892.83	6521.4	
892.99	6521.4	
893.16	6521.4	
893.32	6521.4	
893.49	6521.4	
893.65	6521.4	
893.82	6521.4	
893.99	6521.4	
894.15	6521.4	
894.32	6521.4	
894.48	6521.4	
894.65	6521.4	
894.81	6521.4	
894.98	6521.4	
895.14	6521.4	
895.31	6521.4	
895.47	6521.4	
895.64	6521.4	
895.81	6521.4	
895.97	6521.4	
896.14	6521.4	
896.3	6521.4	
896.47	6521.4	
896.63	6521.4	
896.8	6521.4	
896.96	6521.4	
897.13	6521.4	
897.29	6521.4	
897.46	6521.4	
897.62	6521.4	
897.79	6521.4	
897.95	6521.4	
898.12	6521.4	
898.28	6521.4	
898.45	6521.4	
898.61	6521.4	
898.78	6521.4	
898.94	6521.4	
899.11	6521.4	
899.27	6521.4	
899.44	6521.4	
899.6	6521.4	
899.77	6521.4	
899.93	6521.4	
900.1	6521.4	
900.26	6521.4	
900.43	6521.4	
900.59	6521.4	
900.76	6521.4	
900.92	6521.4	
901.09	6521.4	
901.25	6521.4	
901.42	6521.4	
901.58	6521.4	
901.75	6521.4	
901.91	6521.4	
902.07	6521.4	
902.24	6521.4	
902.4	6521.4	
902.57	6521.4	
902.73	6521.4	
902.9	6521.4	
903.06	6521.4	
903.23	6521.4	
903.39	6521.4	
903.56	6521.4	
903.72	6521.4	
903.88	6521.4	
904.05	6521.4	
904.21	6521.4	
904.38	6521.4	
904.54	6521.4	
904.71	6521.4	
904.87	6521.4	
905.03	6521.4	
905.2	6521.4	
905.36	6521.4	
905.53	6521.4	
905.69	6521.4	
905.86	6521.4	
906.02	6521.4	
906.18	6521.4	
906.35	6521.4	
906.51	6521.4	
906.68	6521.4	
906.84	6521.4	
907.01	6521.4	
907.17	6521.4	
907.33	6521.4	
907.5	6521.4	
907.66	6521.4	
907.83	6521.4	
907.99	6521.4	
908.15	6521.4	
908.32	6521.4	
908.48	6521.4	
908.65	6521.4	
908.81	6521.4	
908.97	6521.4	
909.14	6521.4	
909.3	6521.4	
909.47	6521.4	
909.63	6521.4	
909.79	6521.4	
909.96	6521.4	
910.12	6521.4	
910.28	6521.4	
910.45	6521.4	
910.61	6521.4	
910.78	6521.4	
910.94	6521.4	
911.1	6521.4	
911.27	6521.4	
911.43	6521.4	
911.59	6521.4	
911.76	6521.4	
911.92	6521.4	
912.08	6521.4	
912.25	6521.4	
912.41	6521.4	
912.57	6521.4	
912.74	6521.4	
912.9	6521.4	
913.07	6521.4	
913.23	6521.4	
913.39	6521.4	
913.56	6521.4	
913.72	6521.4	
913.88	6521.4	
914.05	6521.4	
914.21	6521.4	
914.37	6521.4	
914.54	6521.4	
914.7	6521.4	
914.86	6521.4	
915.03	6521.4	
915.19	6521.4	
