Wavelength	Intensities	
nm	a.u.	
179.22	1693.3	
179.44	1688.9	
179.65	1697.8	
179.86	1680	
180.08	1705.3	
180.29	3860.4	
180.51	2998.9	
180.72	4939.7	
180.94	5500.2	
181.15	2705.4	
181.37	2672.6	
181.58	4803.9	
181.79	4969.7	
182.01	2852.1	
182.22	2934.7	
182.44	4980	
182.65	4325.3	
182.87	3610.6	
183.08	3187.3	
183.29	5255.1	
183.51	4398.4	
183.72	2914.9	
183.94	4121.9	
184.15	4672.8	
184.37	4629.1	
184.58	2663	
184.79	3409.2	
185.01	4427.7	
185.22	4985.4	
185.44	3608.5	
185.65	3145	
185.86	4693.9	
186.08	4302.1	
186.29	2592	
186.51	2776.4	
186.72	4394.9	
186.94	5073.5	
187.15	3147.7	
187.36	3246.7	
187.58	6343.9	
187.79	4784.7	
188.01	3299.3	
188.22	4931.5	
188.43	5597.8	
188.65	4913.1	
188.86	2740.9	
189.08	3190.1	
189.29	4528.1	
189.5	4500.1	
189.72	2924.5	
189.93	3035.8	
190.15	5055.8	
190.36	5842.2	
190.57	3241.3	
190.79	3125.9	
191	5070.8	
191.22	5139.7	
191.43	3300.6	
191.64	2778.4	
191.86	5310.4	
192.07	5087.2	
192.29	2883.5	
192.5	2977.7	
192.71	5144.5	
192.93	4515.8	
193.14	2953.2	
193.35	3053.5	
193.57	4538.3	
193.78	5093.3	
194	2497.8	
194.21	2870.6	
194.42	4379.2	
194.64	4706.9	
194.85	3206.4	
195.07	3667.9	
195.28	4702.8	
195.49	4154.6	
195.71	3815.4	
195.92	2827.6	
196.13	4869.4	
196.35	4851	
196.56	4059.1	
196.78	3261	
196.99	5821.7	
197.2	5477.6	
197.42	3592.8	
197.63	3320.4	
197.84	4305.5	
198.06	4851	
198.27	2944.3	
198.48	3777.8	
198.7	4519.2	
198.91	4674.8	
199.13	3222.8	
199.34	3244.7	
199.55	5063.9	
199.77	4077.5	
199.98	2930.6	
200.19	3211.2	
200.41	4668	
200.62	4406.5	
200.83	3330	
201.05	3553.9	
201.26	4648.9	
201.47	4473.4	
201.69	2889.7	
201.9	2865.8	
202.11	4704.2	
202.33	5378.6	
202.54	3074.7	
202.76	3418.1	
202.97	4721.9	
203.18	4733.5	
203.4	3337.5	
203.61	3377.8	
203.82	4784.7	
204.04	4448.2	
204.25	3264.5	
204.46	3186	
204.68	4668	
204.89	4876.2	
205.1	3148.4	
205.32	2757.2	
205.53	4940.4	
205.74	5125.4	
205.96	2471.9	
206.17	3261.7	
206.38	4928.8	
206.6	5004.6	
206.81	3644.7	
207.02	3011.2	
207.24	4853	
207.45	5130.8	
207.66	3096.5	
207.88	2724.5	
208.09	4846.9	
208.3	4681.7	
208.52	2907.4	
208.73	3141.6	
208.94	4668.7	
209.15	5185.5	
209.37	3027.6	
209.58	3237.2	
209.79	5089.9	
210.01	4571.1	
210.22	2570.2	
210.43	2667.8	
210.65	4666.6	
210.86	4981.3	
211.07	3135.4	
211.29	2868.5	
211.5	4881	
211.71	4592.9	
211.93	2850.8	
212.14	2867.8	
212.35	4714.4	
212.56	4738.3	
212.78	3244	
212.99	2658.9	
213.2	5345.2	
213.42	4481	
213.63	2947	
213.84	3108.8	
214.06	4227	
214.27	4302.8	
214.48	3078.8	
214.69	3330.7	
214.91	5180	
215.12	5173.2	
215.33	3250.8	
215.55	3523.2	
215.76	5595.1	
215.97	4905.6	
216.18	3142.9	
216.4	3114.3	
216.61	4416.1	
216.82	5051	
217.04	2867.8	
217.25	3007.1	
217.46	5154.7	
217.67	4953.4	
217.89	2614.6	
218.1	2682.2	
218.31	4692.6	
218.53	4857.1	
218.74	3064.4	
218.95	2896.5	
219.16	4668.7	
219.38	5354.1	
219.59	2906.1	
219.8	3411.9	
220.01	5705	
220.23	4724	
220.44	3679.5	
220.65	2860.3	
220.87	4748.6	
221.08	5089.9	
221.29	2734	
221.5	3439.9	
221.72	6032	
221.93	4394.3	
222.14	3263.8	
222.35	3743	
222.57	4657.1	
222.78	5006.6	
222.99	3131.3	
223.2	3276.1	
223.42	4889.2	
223.63	4955.4	
223.84	2430.3	
224.05	2455.5	
224.27	5701.5	
224.48	5260.5	
224.69	3803.1	
224.9	3228.3	
225.12	4809.3	
225.33	4669.4	
225.54	2652.1	
225.75	2909.5	
225.97	4384	
226.18	4598.4	
226.39	3110.2	
226.6	2893.1	
226.82	4508.9	
227.03	4369	
227.24	3235.1	
227.45	2769.5	
227.67	4987.5	
227.88	5323.4	
228.09	3562.8	
228.3	3510.9	
228.52	4980	
228.73	4629.1	
228.94	3010.5	
229.15	2753.2	
229.36	4682.3	
229.58	4679.6	
229.79	3087.7	
230	3463.8	
230.21	5511.1	
230.43	4711.7	
230.64	3235.8	
230.85	3315	
231.06	5016.8	
231.28	4994.3	
231.49	2740.9	
231.7	3155.9	
231.91	4970.4	
232.12	4719.9	
232.34	2809.8	
232.55	3118.4	
232.76	5120.6	
232.97	4812	
233.18	2895.8	
233.4	3182.5	
233.61	4795.7	
233.82	4509.6	
234.03	3056.9	
234.25	2987.3	
234.46	6171.2	
234.67	4658.4	
234.88	3244.7	
235.09	2910.2	
235.31	4814.8	
235.52	4552.6	
235.73	3100.6	
235.94	2772.9	
236.15	4521.9	
236.37	5502.9	
236.58	2878.1	
236.79	3117.7	
237	4909	
237.21	4327.4	
237.43	3265.8	
237.64	2651.4	
237.85	7602.1	
238.06	4351.9	
238.27	3312.2	
238.48	2803	
238.7	4990.2	
238.91	4573.8	
239.12	3106.8	
239.33	3235.1	
239.54	4508.9	
239.76	4645.5	
239.97	3048.1	
240.18	3058.3	
240.39	5570.5	
240.6	4853.7	
240.82	3227.6	
241.03	2731.3	
241.24	4665.3	
241.45	5299.5	
241.66	2878.1	
241.87	3373.7	
242.09	5239.4	
242.3	5443.5	
242.51	3333.4	
242.72	3117	
242.93	4934.9	
243.14	4651.6	
243.36	3560.7	
243.57	3807.2	
243.78	5305.6	
243.99	4973.2	
244.2	3133.4	
244.41	2820.7	
244.63	4341.7	
244.84	4882.4	
245.05	3321.8	
245.26	3145	
245.47	4929.5	
245.68	5022.3	
245.9	3989.4	
246.11	3250.1	
246.32	4484.4	
246.53	4863.2	
246.74	4804.5	
246.95	2691.7	
247.16	4429.1	
247.38	4663.9	
247.59	2680.8	
247.8	3116.3	
248.01	4377.9	
248.22	4750.6	
248.43	2936.8	
248.64	3072	
248.86	4286.4	
249.07	4541	
249.28	2830.3	
249.49	3186.6	
249.7	5104.2	
249.91	5098.8	
250.12	2674	
250.34	2741.5	
250.55	4755.4	
250.76	4655.7	
250.97	3199.6	
251.18	3242.6	
251.39	5101.5	
251.6	4809.3	
251.81	3229	
252.03	3244	
252.24	4478.2	
252.45	4930.1	
252.66	2738.8	
252.87	3322.5	
253.08	4686.4	
253.29	5814.2	
253.5	2843.3	
253.72	3706.8	
253.93	4599.7	
254.14	5393.7	
254.35	3035.8	
254.56	3108.8	
254.77	4820.9	
254.98	4382.7	
255.19	2983.9	
255.41	3670	
255.62	4831.2	
255.83	5122	
256.04	3327.3	
256.25	3226.2	
256.46	5520	
256.67	4446.1	
256.88	3241.3	
257.09	3545.7	
257.31	4371.7	
257.52	4466.6	
257.73	3913.7	
257.94	3005.1	
258.15	4620.9	
258.36	4724.7	
258.57	3620.8	
258.78	2463.7	
258.99	5106.3	
259.2	4507.6	
259.41	2968.9	
259.63	3072	
259.84	5324	
260.05	5557.5	
260.26	3725.9	
260.47	2961.4	
260.68	5051.7	
260.89	4586.8	
261.1	3516.4	
261.31	2903.3	
261.52	5167	
261.73	5347.2	
261.95	3782.6	
262.16	3320.4	
262.37	5191.6	
262.58	5282.4	
262.79	3706.8	
263	3030.3	
263.21	4696.7	
263.42	4287.8	
263.63	3289	
263.84	3038.5	
264.05	5078.3	
264.26	5322	
264.47	3614	
264.69	3220.8	
264.9	5260.5	
265.11	4838	
265.32	2897.2	
265.53	3005.1	
265.74	4777.9	
265.95	4220.9	
266.16	3139.5	
266.37	3464.5	
266.58	4735.6	
266.79	4524.6	
267	2962.7	
267.21	2770.2	
267.42	4343.1	
267.63	4701.5	
267.84	3117.7	
268.06	2767.5	
268.27	5010.7	
268.48	5150	
268.69	3087	
268.9	3526.6	
269.11	5249.6	
269.32	4272.7	
269.53	3115.6	
269.74	2923.1	
269.95	4818.9	
270.16	4237.2	
270.37	3119.1	
270.58	3575.1	
270.79	4573.1	
271	5081.7	
271.21	3282.2	
271.42	3203	
271.63	4891.9	
271.84	4364.9	
272.05	2580.4	
272.26	2798.2	
272.47	4650.9	
272.68	4720.6	
272.89	3009.8	
273.11	3381.9	
273.32	4459.8	
273.53	5358.2	
273.74	3315.7	
273.95	3229.6	
274.16	5075.5	
274.37	4698.7	
274.58	3405.1	
274.79	2779.8	
275	4859.8	
275.21	5074.2	
275.42	4007.9	
275.63	3448.8	
275.84	4880.3	
276.05	5885.2	
276.26	3249.4	
276.47	3084.9	
276.68	4597.7	
276.89	5427.1	
277.1	3442	
277.31	2758.6	
277.52	4782.7	
277.73	5148.6	
277.94	2730.6	
278.15	3011.2	
278.36	4881.7	
278.57	4453.6	
278.78	2985.9	
278.99	3363.4	
279.2	4497.3	
279.41	4407.2	
279.62	3829	
279.83	2784.6	
280.04	5550.7	
280.25	4365.6	
280.46	3831.1	
280.67	3132	
280.88	4444.1	
281.09	5166.3	
281.3	3222.8	
281.51	3993.5	
281.72	4465.3	
281.93	5016.8	
282.14	2985.3	
282.35	3160	
282.56	5092.6	
282.77	4988.2	
282.98	3026.9	
283.19	3615.3	
283.4	5953.4	
283.61	4661.9	
283.82	2797.5	
284.03	3727.3	
284.24	4870.1	
284.45	5106.3	
284.66	3810.6	
284.87	3573.7	
285.08	5087.2	
285.29	5214.1	
285.5	2699.2	
285.71	3014.6	
285.92	5122	
286.12	5603.2	
286.33	3747.8	
286.54	3121.1	
286.75	5024.3	
286.96	4588.1	
287.17	2879.4	
287.38	3664.5	
287.59	4513.7	
287.8	4470.7	
288.01	3084.9	
288.22	3446.7	
288.43	4971.8	
288.64	4266.6	
288.85	3552.5	
289.06	3368.2	
289.27	5008.6	
289.48	5284.4	
289.69	3767.6	
289.9	3420.8	
290.11	5241.4	
290.32	4483.7	
290.53	3638.6	
290.74	3332	
290.94	5027.8	
291.15	5020.3	
291.36	2962	
291.57	3422.2	
291.78	4594.3	
291.99	4244.8	
292.2	2906.1	
292.41	3294.5	
292.62	5082.4	
292.83	4898.1	
293.04	4016.7	
293.25	2895.8	
293.46	4552.6	
293.67	5107	
293.88	2925.2	
294.09	2875.3	
294.29	4394.3	
294.5	4766.3	
294.71	3115.6	
294.92	3055.6	
295.13	4562.2	
295.34	5492	
295.55	2683.5	
295.76	2672.6	
295.97	4953.4	
296.18	5492.7	
296.39	2768.2	
296.6	2960.7	
296.81	4720.6	
297.01	4981.3	
297.22	3103.4	
297.43	2977.1	
297.64	4497.3	
297.85	4399	
298.06	2536.1	
298.27	2684.9	
298.48	4696	
298.69	4518.5	
298.9	3175.7	
299.11	2888.3	
299.31	4414.1	
299.52	4380.6	
299.73	3368.9	
299.94	3306.1	
300.15	4739.7	
300.36	4468	
300.57	3259.7	
300.78	3228.3	
300.99	4599.1	
301.2	4730.1	
301.4	3001.6	
301.61	3121.8	
301.82	4937	
302.03	4979.3	
302.24	3510.2	
302.45	2819.4	
302.66	4886.5	
302.87	5124.7	
303.08	2938.8	
303.29	3930.7	
303.49	4526	
303.7	4639.3	
303.91	2719.7	
304.12	3721.8	
304.33	4305.5	
304.54	4831.8	
304.75	3010.5	
304.96	2805	
305.16	4869.4	
305.37	5407.3	
305.58	2591.4	
305.79	2700.6	
306	4848.9	
306.21	4291.9	
306.42	2959.3	
306.63	4302.1	
306.83	4567	
307.04	5014.8	
307.25	3176.4	
307.46	3191.4	
307.67	4165.6	
307.88	4993.6	
308.09	2960.7	
308.29	3002.3	
308.5	4751.3	
308.71	5022.3	
308.92	3110.9	
309.13	2874	
309.34	4629.8	
309.55	4592.2	
309.75	3666.5	
309.96	3321.8	
310.17	4985.4	
310.38	4461.2	
310.59	3432.4	
310.8	2755.9	
311.01	4564.2	
311.21	4606.6	
311.42	2879.4	
311.63	2914.3	
311.84	4545.1	
312.05	4734.2	
312.26	3256.3	
312.46	3562.8	
312.67	4554.7	
312.88	4335.5	
313.09	2807.8	
313.3	2774.3	
313.51	5278.3	
313.71	5540.4	
313.92	2871.3	
314.13	2990.7	
314.34	4834.6	
314.55	4601.8	
314.76	3579.2	
314.96	3181.2	
315.17	4813.4	
315.38	4898.1	
315.59	2878.1	
315.8	2772.3	
316.01	5224.4	
316.21	5345.2	
316.42	2846	
316.63	3136.8	
316.84	4562.9	
317.05	5142.4	
317.26	3330.7	
317.46	3006.4	
317.67	4698.7	
317.88	4947.2	
318.09	3519.1	
318.3	2719.7	
318.5	4543.1	
318.71	4866.7	
318.92	4369.7	
319.13	3319.1	
319.34	5053	
319.54	5126.7	
319.75	2709.5	
319.96	2612.5	
320.17	4928.1	
320.38	5104.2	
320.58	2678.1	
320.79	3134.1	
321	5117.9	
321.21	5190.9	
321.42	3195.5	
321.62	2665.8	
321.83	4420.2	
322.04	4691.2	
322.25	3044.6	
322.46	2890.4	
322.66	4769.7	
322.87	4902.2	
323.08	3429	
323.29	2805	
323.5	5421	
323.7	4358.1	
323.91	3722.5	
324.12	3379.1	
324.33	4807.9	
324.53	4924	
324.74	3244	
324.95	3390.8	
325.16	4276.2	
325.37	4530.1	
325.57	2800.9	
325.78	2938.2	
325.99	4808.6	
326.2	4305.5	
326.4	3979.9	
326.61	2718.3	
326.82	4660.5	
327.03	4754.7	
327.24	3954.6	
327.44	3675.4	
327.65	4906.9	
327.86	4104.1	
328.07	3287	
328.27	2810.5	
328.48	5242.8	
328.69	4293.2	
328.9	3998.3	
329.1	2925.2	
329.31	4614.1	
329.52	5242.1	
329.73	2928.6	
329.93	3154.6	
330.14	4693.9	
330.35	4899.4	
330.56	4548.5	
330.76	3414	
330.97	4602.5	
331.18	4906.9	
331.39	3168.9	
331.59	2592.7	
331.8	5126.1	
332.01	5127.4	
332.22	2967.5	
332.42	3273.3	
332.63	4798.4	
332.84	4442.7	
333.05	3190.1	
333.25	2930	
333.46	4524	
333.67	4644.1	
333.88	3007.8	
334.08	3292.5	
334.29	6008.7	
334.5	5139	
334.7	2775.7	
334.91	3851.5	
335.12	4304.1	
335.33	4985.4	
335.53	3134.1	
335.74	4372.4	
335.95	4611.3	
336.16	4357.4	
336.36	3142.3	
336.57	3575.1	
336.78	4317.8	
336.98	5073.5	
337.19	3814.7	
337.4	3121.1	
337.61	5470.8	
337.81	4343.1	
338.02	2957.9	
338.23	3633.1	
338.43	5270.8	
338.64	4427	
338.85	2956.6	
339.05	3724.6	
339.26	5324.7	
339.47	4320.5	
339.68	2917.7	
339.88	4137.6	
340.09	4931.5	
340.3	5031.9	
340.5	3306.8	
340.71	2582.5	
340.92	4386.7	
341.13	5145.2	
341.33	2825.5	
341.54	3313.6	
341.75	4863.9	
341.95	4542.4	
342.16	3168.9	
342.37	3431.7	
342.57	4379.9	
342.78	4596.3	
342.99	3456.3	
343.19	2626.9	
343.4	4992.9	
343.61	4878.9	
343.81	3052.8	
344.02	2757.2	
344.23	4968.4	
344.43	5198.4	
344.64	3482.9	
344.85	3431	
345.06	4913.1	
345.26	5101.5	
345.47	3304.7	
345.68	3764.8	
345.88	4323.3	
346.09	5023.7	
346.3	3371	
346.5	2640.5	
346.71	4593.6	
346.92	4510.3	
347.12	2727.2	
347.33	3227.6	
347.54	5042.8	
347.74	5354.1	
347.95	3274	
348.16	2555.2	
348.36	4534.9	
348.57	4414.1	
348.78	3315.7	
348.98	3480.9	
349.19	4653.7	
349.39	4308.9	
349.6	2719	
349.81	2947.7	
350.01	4952	
350.22	4483	
350.43	3188	
350.63	3761.4	
350.84	4717.8	
351.05	4500.1	
351.25	2930.6	
351.46	2717	
351.67	5078.3	
351.87	4489.8	
352.08	3095.8	
352.29	3404.4	
352.49	5020.3	
352.7	5104.2	
352.9	2835.8	
353.11	3513.6	
353.32	5502.2	
353.52	4563.6	
353.73	2897.9	
353.94	3510.2	
354.14	4954	
354.35	4762.2	
354.55	2960.7	
354.76	3171.6	
354.97	4924	
355.17	4699.4	
355.38	2827.6	
355.59	3693.2	
355.79	4480.3	
356	4706.2	
356.2	3186.6	
356.41	2880.8	
356.62	4306.9	
356.82	4697.4	
357.03	3452.9	
357.24	3136.8	
357.44	4497.3	
357.65	4555.4	
357.85	3956	
358.06	3240.6	
358.27	4319.8	
358.47	4447.5	
358.68	2860.3	
358.88	3437.2	
359.09	4891.9	
359.3	5149.3	
359.5	3881.6	
359.71	3496.6	
359.91	5429.8	
360.12	4957.4	
360.33	3432.4	
360.53	3779.9	
360.74	4571.7	
360.94	4606.6	
361.15	3501.3	
361.36	3008.5	
361.56	5138.4	
361.77	4806.6	
361.97	3846.8	
362.18	3190.7	
362.38	5130.2	
362.59	4514.4	
362.8	3032.4	
363	2899.2	
363.21	4276.8	
363.41	4777.2	
363.62	3316.3	
363.83	3987.4	
364.03	4909.7	
364.24	5500.2	
364.44	4148.5	
364.65	4088.4	
364.85	4698	
365.06	4532.2	
365.27	3145.7	
365.47	3202.3	
365.68	5324	
365.88	4710.3	
366.09	3381.2	
366.29	3148.4	
366.5	4852.3	
366.71	5117.9	
366.91	4119.8	
367.12	3518.4	
367.32	5607.3	
367.53	5089.9	
367.73	3560.7	
367.94	4225.6	
368.14	5122	
368.35	5557.5	
368.56	3480.2	
368.76	3315.7	
368.97	5154.1	
369.17	6176.7	
369.38	3170.3	
369.58	3355.3	
369.79	4411.3	
369.99	5335.6	
370.2	4043.4	
370.4	3407.1	
370.61	4915.1	
370.82	5836.7	
371.02	3347.7	
371.23	2942.2	
371.43	4479.6	
371.64	5386.2	
371.84	3351.8	
372.05	4120.5	
372.25	6192.4	
372.46	5104.2	
372.66	3349.1	
372.87	3396.2	
373.07	5147.2	
373.28	6295.5	
373.48	4019.5	
373.69	3777.1	
373.9	4861.2	
374.1	4852.3	
374.31	4063.9	
374.51	3712.3	
374.72	5378.6	
374.92	4622.3	
375.13	4161.5	
375.33	3601	
375.54	5053.7	
375.74	4799.1	
375.95	3674.1	
376.15	4560.8	
376.36	5187.5	
376.56	5063.9	
376.77	3758.7	
376.97	4008.6	
377.18	5916.6	
377.38	5258.5	
377.59	4209.9	
377.79	3409.9	
378	5044.1	
378.2	5354.8	
378.41	3434.4	
378.61	3370.3	
378.82	5441.5	
379.02	4884.4	
379.23	3545	
379.43	4278.9	
379.64	5543.2	
379.84	5216.9	
380.05	3403	
380.25	3428.3	
380.46	5251	
380.66	4959.5	
380.87	4332.8	
381.07	4599.7	
381.28	5707.7	
381.48	5229.8	
381.69	3451.5	
381.89	3493.8	
382.1	4573.1	
382.3	5341.1	
382.51	4180.6	
382.71	4752	
382.91	5189.6	
383.12	5528.8	
383.32	3677.5	
383.53	3899.3	
383.73	5083.7	
383.94	5079.6	
384.14	3842.7	
384.35	3226.9	
384.55	4889.2	
384.76	5217.5	
384.96	3652.2	
385.17	3883.6	
385.37	5223.7	
385.58	4729.4	
385.78	3843.4	
385.98	3142.9	
386.19	4934.9	
386.39	5169.8	
386.6	3530	
386.8	3633.1	
387.01	5196.4	
387.21	5291.3	
387.42	3928	
387.62	4374.5	
387.83	4840	
388.03	5087.2	
388.23	3773.7	
388.44	4269.3	
388.64	4662.5	
388.85	4700.1	
389.05	3966.2	
389.26	4339.6	
389.46	6157.6	
389.67	5662	
389.87	3923.2	
390.07	4005.1	
390.28	4986.1	
390.48	4724	
390.69	3414.6	
390.89	3704.1	
391.1	4891.2	
391.3	5477	
391.5	4473.4	
391.71	4878.3	
391.91	5387.5	
392.12	5954.1	
392.32	4550.6	
392.53	3999	
392.73	5008.6	
392.93	5034.6	
393.14	3771.7	
393.34	4482.3	
393.55	5364.3	
393.75	5029.8	
393.95	3755.3	
394.16	3667.2	
394.36	4951.3	
394.57	5333.6	
394.77	3409.2	
394.98	3655.6	
395.18	4900.8	
395.38	5067.4	
395.59	4263.9	
395.79	3650.2	
396	5025.7	
396.2	5355.4	
396.4	4180.6	
396.61	4156	
396.81	5384.8	
397.02	4943.1	
397.22	4378.6	
397.42	4385.4	
397.63	5516.5	
397.83	4968.4	
398.04	3590.1	
398.24	3988.8	
398.44	5356.8	
398.65	4666.6	
398.85	3577.8	
399.05	3593.5	
399.26	5022.3	
399.46	6113.2	
399.67	3930.7	
399.87	3654.9	
400.07	5248.9	
400.28	5436	
400.48	3749.8	
400.69	4412	
400.89	5521.3	
401.09	5917.9	
401.3	3693.9	
401.5	4461.2	
401.7	6070.2	
401.91	6211.5	
402.11	3977.8	
402.32	4081.6	
402.52	5690.6	
402.72	5554.8	
402.93	4194.2	
403.13	3412.6	
403.33	6037.4	
403.54	5178.6	
403.74	3945.8	
403.94	4561.5	
404.15	5202.5	
404.35	6024.4	
404.56	3797.6	
404.76	5098.8	
404.96	5535.7	
405.17	5406	
405.37	4580.6	
405.57	4151.2	
405.78	5657.2	
405.98	5207.3	
406.18	3872	
406.39	4441.4	
406.59	5593	
406.79	5242.1	
407	3653.6	
407.2	3692.5	
407.4	5758.9	
407.61	5666.7	
407.81	3723.2	
408.01	5378.6	
408.22	4892.6	
408.42	6263.4	
408.62	4575.8	
408.83	4270	
409.03	5354.8	
409.23	5382.1	
409.44	4282.3	
409.64	4462.5	
409.84	6120	
410.05	6059.9	
410.25	4414.7	
410.45	4339.6	
410.66	5750.7	
410.86	7370.6	
411.06	4668.7	
411.27	4517.1	
411.47	7344.7	
411.67	5868.8	
411.88	4687.8	
412.08	4792.9	
412.28	6249	
412.49	6601.3	
412.69	4552.6	
412.89	4597.7	
413.09	6503	
413.3	6406	
413.5	4646.2	
413.7	4381.3	
413.91	5917.9	
414.11	6470.9	
414.31	4462.5	
414.52	4829.8	
414.72	6338.5	
414.92	6201.2	
415.12	4588.1	
415.33	4982.7	
415.53	6446.3	
415.73	6620.4	
415.94	5198.4	
416.14	4662.5	
416.34	5847.6	
416.55	5623.7	
416.75	5586.2	
416.95	5159.5	
417.15	6548	
417.36	7002	
417.56	5733.6	
417.76	5088.5	
417.97	6802.7	
418.17	6580.1	
418.37	4791.6	
418.57	4832.5	
418.78	6490	
418.98	6197.2	
419.18	5425.8	
419.38	5411.4	
419.59	6108.4	
419.79	5931.6	
419.99	4670.1	
420.2	4924	
420.4	6559	
420.6	6564.4	
420.8	4630.5	
421.01	4568.3	
421.21	6455.2	
421.41	6466.1	
421.61	4879.6	
421.82	4764.9	
422.02	6112.5	
422.22	6782.2	
422.42	5257.1	
422.63	5006.6	
422.83	6186.9	
423.03	6993.8	
423.23	4982.7	
423.44	4356.7	
423.64	6228.6	
423.84	5952.8	
424.04	4623.6	
424.25	4407.2	
424.45	6873.7	
424.65	6730.3	
424.85	4261.8	
425.06	4632.5	
425.26	6910.5	
425.46	6047.7	
425.66	4985.4	
425.87	4813.4	
426.07	6587.6	
426.27	6466.8	
426.47	4879.6	
426.67	4373.1	
426.88	6848.4	
427.08	6425.8	
427.28	5069.4	
427.48	4331.5	
427.69	5687.9	
427.89	6123.4	
428.09	4919.9	
428.29	4387.4	
428.5	6484.6	
428.7	6208.1	
428.9	4325.3	
429.1	4601.1	
429.3	6305.7	
429.51	6369.9	
429.71	4568.3	
429.91	5122	
430.11	6541.9	
430.31	6631.3	
430.52	4792.2	
430.72	5027.8	
430.92	6838.2	
431.12	6451.1	
431.32	4513	
431.53	4815.5	
431.73	5733.6	
431.93	6821.8	
432.13	4431.8	
432.33	4388.1	
432.54	6130.3	
432.74	6296.1	
432.94	4393.6	
433.14	5024.3	
433.34	6543.3	
433.55	6150.7	
433.75	5051	
433.95	6277.7	
434.15	6393.8	
434.35	6053.1	
434.56	4555.4	
434.76	4199.7	
434.96	6388.3	
435.16	6451.8	
435.36	4483.7	
435.56	5261.2	
435.77	6053.1	
435.97	6208.1	
436.17	5751.4	
436.37	5137.7	
436.57	6090	
436.78	6085.2	
436.98	5136.3	
437.18	5496.7	
437.38	6520	
437.58	6110.5	
437.78	5720.7	
437.99	4758.1	
438.19	6497.5	
438.39	7069.6	
438.59	4724	
438.79	4271.4	
438.99	6928.3	
439.2	6057.9	
439.4	4334.9	
439.6	4321.9	
439.8	6304.3	
440	7030	
440.2	5154.7	
440.4	5175.9	
440.61	6735.1	
440.81	7079.1	
441.01	4609.3	
441.21	5237.3	
441.41	7032	
441.61	6602	
441.81	5485.8	
442.02	6105	
442.22	7311.9	
442.42	6735.8	
442.62	4664.6	
442.82	4726.7	
443.02	7032	
443.22	6427.9	
443.43	5016.8	
443.63	4703.5	
443.83	6311.8	
444.03	6200.6	
444.23	5568.4	
444.43	5311.7	
444.63	6561.7	
444.83	7336.5	
445.04	4848.2	
445.24	5599.8	
445.44	6789.7	
445.64	6860	
445.84	5298.1	
446.04	5279.7	
446.24	6250.4	
446.44	6939.2	
446.65	4652.3	
446.85	4962.2	
447.05	6505.7	
447.25	7017	
447.45	5051	
447.65	4640	
447.85	6546	
448.05	6204	
448.25	5281	
448.46	5117.9	
448.66	6527.6	
448.86	6177.4	
449.06	4508.9	
449.26	5244.2	
449.46	6705.7	
449.66	6095.4	
449.86	4988.2	
450.06	4911	
450.26	6215.6	
450.47	6674.3	
450.67	5124.7	
450.87	5375.9	
451.07	6800.6	
451.27	6559	
451.47	4655.7	
451.67	5310.4	
451.87	6285.9	
452.07	7142.6	
452.27	4805.2	
452.47	4774.5	
452.67	6518.7	
452.88	6787.7	
453.08	4420.9	
453.28	5694.7	
453.48	7428	
453.68	6378.1	
453.88	4781.3	
454.08	4898.7	
454.28	6802.7	
454.48	6494.8	
454.68	5231.9	
454.88	5653.8	
455.08	6884.6	
455.28	6697.5	
455.48	4660.5	
455.68	5152	
455.89	7296.2	
456.09	6950.1	
456.29	5003.9	
456.49	4973.8	
456.69	7104.4	
456.89	6500.9	
457.09	5360.9	
457.29	5659.2	
457.49	6870.9	
457.69	6867.5	
457.89	5306.3	
458.09	4842.8	
458.29	6736.5	
458.49	7210.9	
458.69	5470.1	
458.89	5135.6	
459.09	7381.6	
459.29	7376.1	
459.49	5157.5	
459.69	5671.5	
459.9	7067.5	
460.1	6653.9	
460.3	5077.6	
460.5	4909.7	
460.7	7011.6	
460.9	6694.8	
461.1	4696.7	
461.3	5563	
461.5	7551.5	
461.7	7253.9	
461.9	5126.7	
462.1	5431.2	
462.3	6901.7	
462.5	7249.8	
462.7	5076.9	
462.9	5226.4	
463.1	8000.7	
463.3	7812.3	
463.5	5377.3	
463.7	5931.6	
463.9	7047.1	
464.1	7370	
464.3	5517.9	
464.5	5601.2	
464.7	7583.6	
464.9	7178.8	
465.1	6553.5	
465.3	5810.8	
465.5	7744.1	
465.7	7732.4	
465.9	6084.5	
466.1	5829.2	
466.3	7534.5	
466.5	7457.3	
466.7	6613.6	
466.9	5719.3	
467.1	7506.5	
467.3	8126.3	
467.5	6578.1	
467.7	5663.3	
467.9	8291.5	
468.1	8891.6	
468.3	6247.7	
468.5	6578.8	
468.7	7423.2	
468.9	7397.9	
469.1	5935	
469.3	6386.9	
469.5	8809.7	
469.7	7221.1	
469.9	6268.8	
470.1	5786.2	
470.3	7590.5	
470.5	7525.6	
470.7	6654.5	
470.9	5868.8	
471.1	7382.9	
471.3	7601.4	
471.5	5709.7	
471.69	7048.4	
471.89	7266.9	
472.09	6817.7	
472.29	6276.3	
472.49	6438.1	
472.69	6984.9	
472.89	7578.8	
473.09	5618.9	
473.29	5720	
473.49	7094.2	
473.69	7155.6	
473.89	6323.4	
474.09	5697.4	
474.29	8084.7	
474.49	7727.7	
474.69	6301.6	
474.89	5902.2	
475.09	7203.4	
475.29	7215	
475.49	5454.4	
475.69	5638.7	
475.88	8336.6	
476.08	7459.4	
476.28	5411.4	
476.48	5634.6	
476.68	7722.2	
476.88	7548.8	
477.08	5637.4	
477.28	5693.4	
477.48	7268.2	
477.68	7662.8	
477.88	5440.1	
478.08	5700.9	
478.28	7880.6	
478.48	7349.5	
478.67	5718.6	
478.87	5371.1	
479.07	7755.7	
479.27	7442.3	
479.47	5850.4	
479.67	5839.4	
479.87	7606.8	
480.07	7876.5	
480.27	5302.2	
480.47	6442.9	
480.67	7372	
480.87	7866.9	
481.06	5609.4	
481.26	6182.1	
481.46	7453.9	
481.66	7294.2	
481.86	5871.5	
482.06	6537.8	
482.26	7148.1	
482.46	7901.1	
482.66	5823.1	
482.86	5433.3	
483.05	7472.4	
483.25	6916	
483.45	7549.5	
483.65	5821.7	
483.85	7032	
484.05	7274.4	
484.25	6118	
484.45	6492.1	
484.65	7811.6	
484.84	7971.4	
485.04	5795.8	
485.24	5799.8	
485.44	8128.4	
485.64	6855.2	
485.84	5298.8	
486.04	6255.9	
486.24	7268.9	
486.44	7500.3	
486.63	5231.9	
486.83	5917.3	
487.03	7186.3	
487.23	7316.7	
487.43	5399.1	
487.63	6941.2	
487.83	7389.8	
488.02	8013	
488.22	6008.7	
488.42	6472.3	
488.62	7983	
488.82	7120.1	
489.02	5791.7	
489.22	5767.8	
489.41	7877.9	
489.61	7636.9	
489.81	5582.8	
490.01	5558.9	
490.21	7859.4	
490.41	8368	
490.61	5682.4	
490.8	5725.4	
491	7410.9	
491.2	7016.3	
491.4	6138.4	
491.6	5483.1	
491.8	7416.4	
491.99	7458	
492.19	5306.3	
492.39	5528.2	
492.59	7756.3	
492.79	7851.2	
492.99	6228.6	
493.18	5653.8	
493.38	7970.7	
493.58	8473.1	
493.78	6113.2	
493.98	5858.6	
494.18	7768.6	
494.37	7326.9	
494.57	6287.9	
494.77	6168.5	
494.97	7901.7	
495.17	8034.9	
495.37	6001.2	
495.56	6216.3	
495.76	8250.6	
495.96	7900.4	
496.16	6889.4	
496.36	6108.4	
496.55	8133.8	
496.75	7746.8	
496.95	6275	
497.15	6206	
497.35	8201.4	
497.54	8025.3	
497.74	6111.8	
497.94	7331.7	
498.14	8546.2	
498.34	8418.5	
498.53	5967.1	
498.73	6449.1	
498.93	7511.9	
499.13	8097.7	
499.33	6307.1	
499.52	6696.2	
499.72	8162.5	
499.92	8187.1	
500.12	6091.3	
500.32	6286.6	
500.51	8276.5	
500.71	8086.1	
500.91	6780.1	
501.11	6544.6	
501.31	8250.6	
501.5	8526.4	
501.7	7042.3	
501.9	6368.5	
502.1	8058.8	
502.29	8333.2	
502.49	6577.4	
502.69	6864.1	
502.89	8197.3	
503.09	8188.5	
503.28	5963.7	
503.48	6057.2	
503.68	7670.3	
503.88	7585.7	
504.07	6698.2	
504.27	6338.5	
504.47	7889.5	
504.67	8022.6	
504.86	6630	
505.06	6427.2	
505.26	7744.1	
505.46	8804.9	
505.65	6326.9	
505.85	6442.2	
506.05	7649.2	
506.25	7937.2	
506.44	5810.1	
506.64	6483.9	
506.84	7573.4	
507.04	8063.5	
507.23	6010.8	
507.43	6327.5	
507.63	8835.6	
507.83	7559.1	
508.02	6328.9	
508.22	6038.8	
508.42	9050	
508.62	7443.7	
508.81	6132.3	
509.01	6556.2	
509.21	7425.9	
509.4	7681.2	
509.6	6381.5	
509.8	5913.9	
510	7555	
510.19	8538.7	
510.39	5824.4	
510.59	5984.2	
510.79	7406.8	
510.98	8488.8	
511.18	6104.3	
511.38	6045.6	
511.57	8054	
511.77	7747.5	
511.97	6501.6	
512.17	5952.1	
512.36	8017.1	
512.56	7882.6	
512.76	5769.1	
512.95	5677	
513.15	8142.7	
513.35	7056.6	
513.55	6437.4	
513.74	5862.7	
513.94	8084.7	
514.14	7649.8	
514.33	6533	
514.53	6244.9	
514.73	7618.4	
514.92	7718.1	
515.12	5870.8	
515.32	5825.8	
515.51	7780.9	
515.71	8098.4	
515.91	7159.7	
516.11	5862	
516.3	8966	
516.5	7491.5	
516.7	6346	
516.89	6643.6	
517.09	7522.2	
517.29	7576.8	
517.48	6667.5	
517.68	6098.2	
517.88	7276.4	
518.07	7791.8	
518.27	6414.2	
518.47	5719.3	
518.66	8300.4	
518.86	7237.5	
519.06	5637.4	
519.25	5935	
519.45	7404.8	
519.65	8467.7	
519.84	6326.9	
520.04	6875	
520.24	8841.1	
520.43	7921.5	
520.63	6280.4	
520.83	6139.8	
521.02	7385	
521.22	7793.2	
521.42	6313.9	
521.61	6739.2	
521.81	7561.8	
522.01	7683.3	
522.2	6274.3	
522.4	6146	
522.6	8006.2	
522.79	7114.6	
522.99	6138.4	
523.18	5648.3	
523.38	7810.3	
523.58	7795.9	
523.77	7007.5	
523.97	5775.3	
524.17	9101.2	
524.36	8692.3	
524.56	6716	
524.76	6496.8	
524.95	7841	
525.15	7701	
525.34	6284.5	
525.54	6316.6	
525.74	8150.9	
525.93	7410.2	
526.13	7183.6	
526.33	6302.3	
526.52	8391.9	
526.72	7983.7	
526.91	7126.2	
527.11	6617.7	
527.31	8256.7	
527.5	8619.9	
527.7	6654.5	
527.89	5879.7	
528.09	7671	
528.29	8011.7	
528.48	6835.4	
528.68	6591	
528.87	8344.1	
529.07	8368.7	
529.27	6587	
529.46	6199.2	
529.66	8068.3	
529.85	8331.8	
530.05	6156.9	
530.25	6624.5	
530.44	8974.9	
530.64	7932.5	
530.83	6413.6	
531.03	6503	
531.23	8253.3	
531.42	8103.1	
531.62	7068.9	
531.81	6520	
532.01	8527.1	
532.21	8703.9	
532.4	6399.2	
532.6	6677.7	
532.79	9084.8	
532.99	8390.5	
533.18	6698.2	
533.38	7499.7	
533.58	8161.8	
533.77	8589.2	
533.97	6711.9	
534.16	7199.3	
534.36	8952.4	
534.55	8141.4	
534.75	7266.9	
534.95	6642.2	
535.14	8832.9	
535.34	8232.2	
535.53	6526.2	
535.73	7795.3	
535.92	9161.9	
536.12	8275.2	
536.31	6533.7	
536.51	7405.5	
536.71	8458.8	
536.9	8099.7	
537.1	6605.4	
537.29	6708.5	
537.49	8795.3	
537.68	8045.8	
537.88	7060	
538.07	6374	
538.27	8354.3	
538.46	9022.7	
538.66	6266.1	
538.86	6615.6	
539.05	8322.3	
539.25	8602.8	
539.44	6969.2	
539.64	6606.1	
539.83	8133.2	
540.03	8848.6	
540.22	6436.1	
540.42	6463.4	
540.61	8372.1	
540.81	8363.9	
541	6832.7	
541.2	7270.3	
541.39	7938.6	
541.59	8254.7	
541.78	7138.5	
541.98	6492.7	
542.18	7729.7	
542.37	7749.5	
542.57	6731.7	
542.76	7084.6	
542.96	7855.3	
543.15	8271.1	
543.35	6652.5	
543.54	6227.2	
543.74	8355.7	
543.93	8170	
544.13	6647	
544.32	7390.4	
544.52	8379.6	
544.71	7815.7	
544.91	6023.8	
545.1	6849.1	
545.3	7985	
545.49	8232.8	
545.69	6006	
545.88	6405.4	
546.08	8992.6	
546.27	8627.4	
546.47	6680.5	
546.66	6191.7	
546.86	8488.1	
547.05	8804.9	
547.24	6464.8	
547.44	6235.4	
547.63	7656	
547.83	8517.5	
548.02	6597.2	
548.22	6694.1	
548.41	7475.1	
548.61	8510.7	
548.8	6239.5	
549	6228.6	
549.19	7968	
549.39	8330.5	
549.58	5943.2	
549.78	6387.6	
549.97	8348.9	
550.17	7828.7	
550.36	6896.2	
550.55	7731.1	
550.75	7829.4	
550.94	8557.1	
551.14	6165.8	
551.33	6417	
551.53	7390.4	
551.72	8053.3	
551.92	6449.1	
552.11	6328.2	
552.31	8170.7	
552.5	8113.4	
552.69	7441.6	
552.89	5976	
553.08	8156.4	
553.28	7886	
553.47	6298.9	
553.67	7020.4	
553.86	8572.8	
554.06	7367.2	
554.25	5672.9	
554.44	6044.2	
554.64	9116.2	
554.83	8714.8	
555.03	6050.4	
555.22	6307.1	
555.42	8284	
555.61	8010.3	
555.8	6239.5	
556	6359.6	
556.19	7366.5	
556.39	8286.8	
556.58	6250.4	
556.78	6250.4	
556.97	7978.2	
557.16	7688.8	
557.36	7111.2	
557.55	6022.4	
557.75	7230	
557.94	8466.3	
558.13	6077.7	
558.33	5793.7	
558.52	8341.4	
558.72	7403.4	
558.91	5975.3	
559.1	6163	
559.3	7311.9	
559.49	7109.9	
559.69	5742.5	
559.88	6293.4	
560.07	7923.6	
560.27	8129.8	
560.46	6481.1	
560.66	6581.5	
560.85	7833.5	
561.04	7154.9	
561.24	5900.2	
561.43	6026.5	
561.63	7265.5	
561.82	7516.7	
562.01	6827.9	
562.21	6163	
562.4	7882.6	
562.59	8471.8	
562.79	6091.3	
562.98	5950.7	
563.18	7806.9	
563.37	8800.1	
563.56	6497.5	
563.76	5882.4	
563.95	7421.8	
564.14	7391.1	
564.34	6145.3	
564.53	5933.6	
564.73	7817.8	
564.92	7891.5	
565.11	6225.8	
565.31	5711.1	
565.5	8212.4	
565.69	7350.8	
565.89	6006	
566.08	6106.4	
566.27	8090.2	
566.47	8282.7	
566.66	6657.3	
566.85	5702.2	
567.05	7861.5	
567.24	7414.3	
567.44	5950.7	
567.63	6799.9	
567.82	7999.4	
568.02	7726.3	
568.21	5810.1	
568.4	6128.2	
568.6	7699	
568.79	7638.9	
568.98	5785.5	
569.18	5878.4	
569.37	7662.1	
569.56	9039.1	
569.76	6193.7	
569.95	6841.6	
570.14	7926.3	
570.34	7779.6	
570.53	5858.6	
570.72	5726.1	
570.91	8246.5	
571.11	7671	
571.3	6165.8	
571.49	6792.4	
571.69	7735.9	
571.88	7301	
572.07	6488.6	
572.27	6448.4	
572.46	7268.2	
572.65	8044.4	
572.85	5980.8	
573.04	6112.5	
573.23	8184.4	
573.43	7729.7	
573.62	5795.8	
573.81	6236.1	
574	7781.6	
574.2	7631.4	
574.39	6043.6	
574.58	6140.5	
574.78	8258.1	
574.97	7772.7	
575.16	6422.4	
575.36	6499.6	
575.55	8133.8	
575.74	8250.6	
575.93	5712.5	
576.13	6557.6	
576.32	7669	
576.51	8073.8	
576.71	6093.4	
576.9	7298.3	
577.09	8307.2	
577.28	7906.5	
577.48	6447.7	
577.67	5751.4	
577.86	7740.6	
578.05	7891.5	
578.25	6217.6	
578.44	6142.5	
578.63	7718.8	
578.83	8655.4	
579.02	5760.3	
579.21	6847.7	
579.4	7815	
579.6	7702.4	
579.79	6352.1	
579.98	7881.3	
580.17	8125.7	
580.37	8204.8	
580.56	5859.9	
580.75	6457.2	
580.94	8409	
581.14	8463.6	
581.33	6746	
581.52	6052.4	
581.71	7987.1	
581.91	8524.3	
582.1	5851	
582.29	6251.1	
582.48	7796.6	
582.68	7840.3	
582.87	6645	
583.06	6369.2	
583.25	8104.5	
583.45	7452.6	
583.64	6792.4	
583.83	7214.3	
584.02	7854	
584.21	8022.6	
584.41	6790.4	
584.6	6229.2	
584.79	7858.1	
584.98	8351.6	
585.18	5995.1	
585.37	5903.6	
585.56	7626	
585.75	7983	
585.94	6041.5	
586.14	6508.4	
586.33	8487.5	
586.52	7806.2	
586.71	6417.7	
586.91	6120.7	
587.1	7340.6	
587.29	8071.7	
587.48	6184.2	
587.67	6008.1	
587.87	7970.7	
588.06	7952.3	
588.25	6956.9	
588.44	6447.7	
588.63	7722.2	
588.83	8069.7	
589.02	6185.5	
589.21	6021	
589.4	7577.5	
589.59	7365.9	
589.78	5453.1	
589.98	5543.9	
590.17	7135.8	
590.36	7431.4	
590.55	5152	
590.74	5727.5	
590.94	8273.1	
591.13	7333.8	
591.32	5600.5	
591.51	5229.8	
591.7	7669	
591.89	7318.8	
592.09	5341.1	
592.28	5693.4	
592.47	6780.8	
592.66	8220.5	
592.85	5339.7	
593.05	5553.4	
593.24	7145.4	
593.43	7866.9	
593.62	5595.1	
593.81	5861.3	
594	7260	
594.19	7457.3	
594.39	5516.5	
594.58	5394.3	
594.77	7554.3	
594.96	7854	
595.15	5471.5	
595.34	5864.7	
595.54	7456.7	
595.73	6879.8	
595.92	4969.1	
596.11	5776	
596.3	7837.6	
596.49	6913.9	
596.68	5692.7	
596.88	5883.8	
597.07	7665.5	
597.26	6842.9	
597.45	5333.6	
597.64	6135	
597.83	7035.5	
598.02	7415.7	
598.22	5372.5	
598.41	5763	
598.6	7326.3	
598.79	6810.9	
598.98	5450.3	
599.17	6019	
599.36	7332.4	
599.55	8050.6	
599.74	6817	
599.94	6610.2	
600.13	7717.4	
600.32	6891.4	
600.51	5198.4	
600.7	5242.1	
600.89	8124.3	
601.08	8164.6	
601.27	5116.5	
601.47	5798.5	
601.66	7518.8	
601.85	7971.4	
602.04	5655.8	
602.23	5776	
602.42	6973.3	
602.61	7342	
602.8	5586.9	
602.99	5360.9	
603.18	7147.4	
603.37	7258	
603.57	5820.3	
603.76	6178	
603.95	7775.5	
604.14	7578.2	
604.33	5472.9	
604.52	5611.4	
604.71	7247.8	
604.9	6998.6	
605.09	6070.2	
605.28	5939.8	
605.47	7763.2	
605.66	7373.4	
605.86	5885.2	
606.05	5477	
606.24	7757	
606.43	6634.7	
606.62	5679.7	
606.81	6197.2	
607	7571.3	
607.19	7066.2	
607.38	5193.6	
607.57	5369.1	
607.76	6912.6	
607.95	6586.3	
608.14	5771.2	
608.33	6178.7	
608.52	6894.1	
608.72	7579.5	
608.91	5151.3	
609.1	5163.6	
609.29	7019.8	
609.48	6685.3	
609.67	5841.5	
609.86	5205.3	
610.05	6790.4	
610.24	6935.1	
610.43	5061.9	
610.62	4917.2	
610.81	7827.3	
611	7610.3	
611.19	5193	
611.38	5642.2	
611.57	7223.9	
611.76	8036.9	
611.95	4971.8	
612.14	4924.7	
612.33	7004.1	
612.52	6694.1	
612.71	5402.5	
612.9	4823	
613.09	6411.5	
613.28	8117.5	
613.47	5339.7	
613.66	5853.8	
613.85	7094.2	
614.04	6822.5	
614.24	5257.8	
614.43	4822.3	
614.62	7161.7	
614.81	7176.1	
615	5622.4	
615.19	5660.6	
615.38	6638.8	
615.57	6950.1	
615.76	5603.2	
615.95	6227.2	
616.14	7268.9	
616.33	6936.5	
616.52	5754.8	
616.71	5849	
616.9	7187.7	
617.09	7108.5	
617.28	5307	
617.47	6207.4	
617.66	6573.3	
617.85	6606.7	
618.04	5966.4	
618.22	5516.5	
618.41	6840.2	
618.6	7548.8	
618.79	5524.7	
618.98	5286.5	
619.17	7740.6	
619.36	6384.9	
619.55	5382.1	
619.74	5467.4	
619.93	7152.9	
620.12	6802	
620.31	5819.6	
620.5	5887.2	
620.69	7603.4	
620.88	7845.8	
621.07	6371.9	
621.26	5701.5	
621.45	7289.4	
621.64	7240.3	
621.83	5834	
622.02	5151.3	
622.21	7335.8	
622.4	7107.8	
622.59	6264.7	
622.78	6070.9	
622.97	6906.4	
623.16	7600.7	
623.35	5806	
623.54	5233.2	
623.72	6939.9	
623.91	7141.9	
624.1	6033.3	
624.29	5050.3	
624.48	7863.5	
624.67	7354.9	
624.86	5790.3	
625.05	5221.6	
625.24	7972.1	
625.43	6866.8	
625.62	7048.4	
625.81	5403.2	
626	7510.6	
626.19	6969.2	
626.38	5879.7	
626.56	5457.8	
626.75	6868.2	
626.94	7428	
627.13	5911.1	
627.32	5036	
627.51	7395.2	
627.7	8160.5	
627.89	5092.6	
628.08	5963	
628.27	6738.5	
628.46	6926.2	
628.65	5306.3	
628.83	5065.3	
629.02	7322.9	
629.21	6805.4	
629.4	5628.5	
629.59	5735.7	
629.78	6791.7	
629.97	7465.5	
630.16	5727.5	
630.35	5485.1	
630.54	7836.2	
630.72	7615	
630.91	5436	
631.1	5803.9	
631.29	7198.6	
631.48	7237.5	
631.67	5969.8	
631.86	5454.4	
632.05	6952.9	
632.24	6930.3	
632.42	5169.1	
632.61	5707.7	
632.8	7006.8	
632.99	6765.8	
633.18	5708.4	
633.37	5864	
633.56	7148.8	
633.75	7082.6	
633.93	5618.9	
634.12	5427.8	
634.31	7793.2	
634.5	7468.9	
634.69	5456.5	
634.88	5823.7	
635.07	7066.2	
635.25	7449.8	
635.44	6085.9	
635.63	6232.7	
635.82	6870.9	
636.01	6527.6	
636.2	6017.6	
636.39	5767.8	
636.57	7759.8	
636.76	7402.7	
636.95	5360.2	
637.14	6358.3	
637.33	7250.5	
637.52	7845.8	
637.7	5171.1	
637.89	5901.6	
638.08	7006.1	
638.27	7950.2	
638.46	5987.6	
638.65	6156.9	
638.83	7932.5	
639.02	6861.4	
639.21	5846.3	
639.4	6110.5	
639.59	7146	
639.78	6812.9	
639.96	5218.2	
640.15	5320.6	
640.34	7159.7	
640.53	7059.3	
640.72	5120.6	
640.91	5382.7	
641.09	6655.2	
641.28	7492.8	
641.47	5347.9	
641.66	5928.9	
641.85	7165.2	
642.03	7313.3	
642.22	5699.5	
642.41	5404.6	
642.6	6701	
642.79	6256.5	
642.97	5329.5	
643.16	5741.8	
643.35	6667.5	
643.54	6460	
643.73	5112.4	
643.91	5664.7	
644.1	6402	
644.29	6876.4	
644.48	5260.5	
644.67	5263.3	
644.85	6470.9	
645.04	6831.3	
645.23	4902.8	
645.42	5216.9	
645.6	6505	
645.79	7275.8	
645.98	5100.1	
646.17	4481.6	
646.36	6331	
646.54	6614.9	
646.73	5697.4	
646.92	4827.1	
647.11	6346	
647.29	7122.8	
647.48	4942.4	
647.67	4760.2	
647.86	7299.6	
648.05	7247.8	
648.23	5129.5	
648.42	6059.9	
648.61	6838.9	
648.8	6609.5	
648.98	4822.3	
649.17	5081	
649.36	6340.5	
649.55	6083.8	
649.73	4866	
649.92	5380.7	
650.11	6278.4	
650.3	6500.3	
650.48	4977.2	
650.67	4769	
650.86	6710.5	
651.05	5963	
651.23	4900.8	
651.42	4865.3	
651.61	6363	
651.79	6367.8	
651.98	5116.5	
652.17	4796.3	
652.36	6675.7	
652.54	5921.4	
652.73	4843.4	
652.92	4734.9	
653.11	6686.6	
653.29	6660.7	
653.48	4339.6	
653.67	5062.6	
653.85	6512.5	
654.04	7161.7	
654.23	5214.1	
654.42	4847.5	
654.6	6187.6	
654.79	6623.8	
654.98	4431.1	
655.16	4876.9	
655.35	5853.1	
655.54	5730.2	
655.73	4498	
655.91	4405.2	
656.1	6555.5	
656.29	5756.2	
656.47	4194.9	
656.66	5383.4	
656.85	5930.9	
657.03	6013.5	
657.22	4553.3	
657.41	4587.4	
657.59	6076.3	
657.78	5889.3	
657.97	4382	
658.16	4838.7	
658.34	6509.1	
658.53	6795.8	
658.72	5504.9	
658.9	5866.1	
659.09	6248.4	
659.28	6209.4	
659.46	4670.7	
659.65	4612	
659.84	5941.8	
660.02	6381.5	
660.21	4639.3	
660.4	4479.6	
660.58	6640.2	
660.77	6236.1	
660.96	5059.8	
661.14	4246.1	
661.33	7165.8	
661.52	6976.1	
661.7	4240	
661.89	6769.2	
662.08	5965.7	
662.26	5621.7	
662.45	4465.9	
662.64	4553.3	
662.82	6504.3	
663.01	5883.1	
663.2	4588.8	
663.38	5054.4	
663.57	6348	
663.75	6287.3	
663.94	4780	
664.13	5674.9	
664.31	5999.9	
664.5	6460.7	
664.69	5109.7	
664.87	5335	
665.06	5793.7	
665.25	6294.1	
665.43	5464.7	
665.62	5515.9	
665.8	6443.6	
665.99	6025.1	
666.18	4769	
666.36	4865.3	
666.55	6393.1	
666.74	6391.7	
666.92	4562.2	
667.11	5756.2	
667.29	6042.9	
667.48	6419	
667.67	5309	
667.85	4713.7	
668.04	6052.4	
668.22	6040.1	
668.41	4863.9	
668.6	5068.7	
668.78	5849	
668.97	6059.9	
669.15	5049.6	
669.34	4332.8	
669.53	5913.2	
669.71	6056.5	
669.9	4420.9	
670.08	4934.9	
670.27	5831.9	
670.46	6292	
670.64	5089.2	
670.83	5269.4	
671.01	5754.1	
671.2	6199.2	
671.38	4601.8	
671.57	4394.9	
671.76	6706.4	
671.94	7063.4	
672.13	4420.2	
672.31	5146.5	
672.5	6324.1	
672.69	5891.3	
672.87	4535.6	
673.06	4716.5	
673.24	6243.6	
673.43	5867.4	
673.61	5062.6	
673.8	4646.2	
673.98	6298.9	
674.17	6500.3	
674.36	5113.8	
674.54	4988.2	
674.73	6049.7	
674.91	6438.8	
675.1	4807.9	
675.28	4487.8	
675.47	5990.3	
675.65	6461.3	
675.84	4755.4	
676.03	4965.6	
676.21	5932.3	
676.4	5552	
676.58	5297.4	
676.77	5095.3	
676.95	6994.5	
677.14	5904.3	
677.32	4442.7	
677.51	4335.5	
677.69	6467.5	
677.88	5705.6	
678.06	4412.7	
678.25	4499.4	
678.44	6000.5	
678.62	5896.1	
678.81	4311	
678.99	4975.9	
679.18	6678.4	
679.36	6223.1	
679.55	4659.1	
679.73	5138.4	
679.92	6322.1	
680.1	5856.5	
680.29	5531.6	
680.47	4668	
680.66	5883.1	
680.84	6421.1	
681.03	4182.6	
681.21	5034.6	
681.4	5809.4	
681.58	5793.7	
681.77	4535.6	
681.95	4493.2	
682.14	6521.4	
682.32	6718	
682.51	5084.4	
682.69	4296	
682.88	5831.9	
683.06	6214.2	
683.25	4940.4	
683.43	5183.4	
683.62	6093.4	
683.8	6218.3	
683.99	5354.8	
684.17	4798.4	
684.36	6949.4	
684.54	5945.9	
684.73	4267.3	
684.91	4373.1	
685.1	6174.6	
685.28	5767.1	
685.46	4775.2	
685.65	4764.9	
685.83	6232.7	
686.02	5838.1	
686.2	4403.8	
686.39	4464.6	
686.57	5604.6	
686.76	6665.5	
686.94	4396.3	
687.13	4536.3	
687.31	6203.3	
687.5	5955.5	
687.68	4150.6	
687.86	4916.5	
688.05	7125.6	
688.23	5520	
688.42	4990.9	
688.6	4485.7	
688.79	5770.5	
688.97	5829.9	
689.16	4734.9	
689.34	4001.7	
689.52	6279.1	
689.71	6486.6	
689.89	4952	
690.08	4436.6	
690.26	6033.3	
690.45	5823.7	
690.63	5047.6	
690.81	4588.8	
691	5867.4	
691.18	5723.4	
691.37	4627.7	
691.55	6182.1	
691.74	5711.1	
691.92	7111.9	
692.1	4633.2	
692.29	4257	
692.47	5904.3	
692.66	5431.2	
692.84	4373.1	
693.02	4790.2	
693.21	5480.4	
693.39	5896.8	
693.58	4854.4	
693.76	4407.2	
693.94	6706.4	
694.13	6565.1	
694.31	4435.2	
694.5	5140.4	
694.68	5771.2	
694.86	5983.5	
695.05	4748.6	
695.23	4777.9	
695.42	6281.1	
695.6	7791.8	
695.78	5137.7	
695.97	4498.7	
696.15	6311.8	
696.34	5741.1	
696.52	4311.7	
696.7	4907.6	
696.89	6082.5	
697.07	5634.6	
697.25	4821.6	
697.44	5773.9	
697.62	6128.2	
697.81	6281.8	
697.99	4633.9	
698.17	4941.7	
698.36	5733.6	
698.54	6120.7	
698.72	4878.9	
698.91	4142.4	
699.09	5769.1	
699.28	5664.7	
699.46	4620.2	
699.64	4514.4	
699.83	5651	
700.01	6434.7	
700.19	5141.8	
700.38	4012	
700.56	6455.2	
700.74	5664.7	
700.93	4218.1	
701.11	4851.6	
701.29	6104.3	
701.48	6851.8	
701.66	4424.3	
701.84	4511.7	
702.03	5881.8	
702.21	6335.1	
702.39	4158.1	
702.58	4575.2	
702.76	6073.6	
702.94	6159.6	
703.13	4137.6	
703.31	5822.4	
703.49	5663.3	
703.68	6258.6	
703.86	4259.8	
704.04	5003.9	
704.23	6029.9	
704.41	6246.3	
704.59	4487.8	
704.78	5239.4	
704.96	7171.3	
705.14	6270.2	
705.33	4313	
705.51	4818.9	
705.69	5882.4	
705.87	6456.6	
706.06	5020.3	
706.24	4175.8	
706.42	6121.4	
706.61	6219	
706.79	5002.5	
706.97	4247.5	
707.16	5757.5	
707.34	6042.2	
707.52	4973.2	
707.7	4429.1	
707.89	5644.2	
708.07	5542.5	
708.25	5011.4	
708.44	5025	
708.62	5636	
708.8	6483.9	
708.98	5221	
709.17	4450.2	
709.35	6005.3	
709.53	6056.5	
709.72	4250.2	
709.9	4368.3	
710.08	6257.9	
710.26	6201.9	
710.45	5408	
710.63	4417.5	
710.81	5941.2	
710.99	5935	
711.18	4845.5	
711.36	4470.7	
711.54	5803.3	
711.72	6400.6	
711.91	4615.4	
712.09	4227.7	
712.27	5987.6	
712.45	6427.9	
712.64	4749.9	
712.82	4066.6	
713	5545.2	
713.18	5732.9	
713.37	4106.2	
713.55	5058.5	
713.73	6307.1	
713.91	5342.5	
714.1	4459.1	
714.28	4026.3	
714.46	6045.6	
714.64	5406.6	
714.83	3692.5	
715.01	4220.9	
715.19	5614.8	
715.37	5040.7	
715.55	4005.1	
715.74	4224.3	
715.92	6168.5	
716.1	4696.7	
716.28	4973.2	
716.47	4352.6	
716.65	5313.8	
716.83	5336.3	
717.01	4195.6	
717.19	4261.8	
717.38	6746	
717.56	5086.5	
717.74	4353.3	
717.92	3710.9	
718.1	5995.8	
718.29	5369.1	
718.47	3535.5	
718.65	3998.3	
718.83	5893.4	
719.01	5821	
719.2	3469.9	
719.38	4275.5	
719.56	5610.8	
719.74	6734.4	
719.92	3941.7	
720.11	4671.4	
720.29	5741.1	
720.47	5104.9	
720.65	3628.3	
720.83	4218.8	
721.02	5349.3	
721.2	5177.9	
721.38	4258.4	
721.56	3685	
721.74	4798.4	
721.92	4898.7	
722.11	4632.5	
722.29	4375.1	
722.47	5844.2	
722.65	5193	
722.83	3764.8	
723.01	4386.1	
723.2	5263.3	
723.38	5511.8	
723.56	3341.6	
723.74	4140.3	
723.92	4911.7	
724.1	5698.8	
724.29	3654.9	
724.47	4537.6	
724.65	4999.1	
724.83	4823	
725.01	3628.3	
725.19	4193.6	
725.37	4908.3	
725.56	4952	
725.74	3540.3	
725.92	3710.2	
726.1	4868	
726.28	5145.2	
726.46	4012.7	
726.64	3789.4	
726.83	5210	
727.01	5313.8	
727.19	3570.3	
727.37	4134.8	
727.55	5225.7	
727.73	5552.7	
727.91	3521.1	
728.09	3409.2	
728.28	5568.4	
728.46	5669.5	
728.64	4194.2	
728.82	4100.7	
729	6309.1	
729.18	5827.2	
729.36	3523.2	
729.54	5229.1	
729.72	6526.2	
729.91	5264	
730.09	5044.1	
730.27	4026.3	
730.45	5273.5	
730.63	5702.2	
730.81	4465.3	
730.99	3857.7	
731.17	6161.7	
731.35	5074.9	
731.53	4146.5	
731.71	3936.2	
731.9	5885.9	
732.08	5966.4	
732.26	4086.4	
732.44	3858.4	
732.62	6011.5	
732.8	5670.1	
732.98	4365.6	
733.16	3722.5	
733.34	5653.8	
733.52	4716.5	
733.7	4052.2	
733.88	4313.7	
734.07	5507.7	
734.25	5416.9	
734.43	3708.9	
734.61	4776.5	
734.79	6404.7	
734.97	5294.7	
735.15	3850.9	
735.33	4029.7	
735.51	5589.6	
735.69	5328.8	
735.87	4766.3	
736.05	4173.8	
736.23	5496.1	
736.41	5203.9	
736.59	4109.6	
736.77	4146.5	
736.95	5769.1	
737.13	5296	
737.32	3863.2	
737.5	3956.7	
737.68	6115.9	
737.86	5257.8	
738.04	3702.7	
738.22	4951.3	
738.4	5218.9	
738.58	5428.5	
738.76	4131.4	
738.94	3444.7	
739.12	5175.2	
739.3	5186.1	
739.48	4561.5	
739.66	4418.8	
739.84	5403.9	
740.02	5386.2	
740.2	3496.6	
740.38	3681.6	
740.56	5668.1	
740.74	4763.6	
740.92	4197.7	
741.1	4078.2	
741.28	5299.5	
741.46	5064.6	
741.64	3866.6	
741.82	4208.6	
742	5362.9	
742.18	5199.8	
742.36	4048.2	
742.54	3678.8	
742.72	5730.2	
742.9	4757.4	
743.08	4265.9	
743.26	3396.9	
743.44	5834.7	
743.62	5755.5	
743.8	4403.1	
743.98	3712.3	
744.16	5461.2	
744.34	5267.4	
744.52	4303.5	
744.7	4256.4	
744.88	5587.5	
745.06	5289.2	
745.24	4298	
745.42	4422.2	
745.6	5668.1	
745.78	5583.4	
745.96	3551.9	
746.14	3737.5	
746.32	6279.1	
746.5	5610.8	
746.68	4175.8	
746.86	3739.6	
747.03	5891.3	
747.21	4767	
747.39	4183.3	
747.57	3752.6	
747.75	5373.9	
747.93	5599.8	
748.11	3704.8	
748.29	3690.4	
748.47	6507.8	
748.65	5193	
748.83	4215.4	
749.01	4067.3	
749.19	5473.5	
749.37	4872.1	
749.55	3967.6	
749.73	4058.4	
749.91	5307	
750.09	5130.2	
750.26	4084.3	
750.44	3616.7	
750.62	5347.9	
750.8	5226.4	
750.98	3516.4	
751.16	3781.9	
751.34	5388.2	
751.52	4799.1	
751.7	4285	
751.88	3502.7	
752.06	5703.6	
752.24	5426.4	
752.42	3502.7	
752.59	3741.6	
752.77	5272.2	
752.95	6113.9	
753.13	4274.1	
753.31	3795.6	
753.49	5061.2	
753.67	5373.2	
753.85	4009.2	
754.03	3746.4	
754.21	5603.9	
754.38	5742.5	
754.56	3883.6	
754.74	3175.7	
754.92	5003.9	
755.1	5462.6	
755.28	3217.4	
755.46	3259	
755.64	6113.2	
755.82	6135	
755.99	3439.2	
756.17	3485	
756.35	4306.9	
756.53	5416.9	
756.71	2664.4	
756.89	3350.5	
757.07	5106.3	
757.25	4470	
757.42	3748.5	
757.6	4374.5	
757.78	5203.9	
757.96	4519.9	
758.14	3494.5	
758.32	3093.1	
758.5	4169.7	
758.67	4774.5	
758.85	3412.6	
759.03	3482.9	
759.21	4891.9	
759.39	4421.6	
759.57	3105.4	
759.75	3903.4	
759.92	5386.8	
760.1	4904.9	
760.28	4121.2	
760.46	4324.6	
760.64	4719.2	
760.82	4498.7	
760.99	4059.8	
761.17	3437.2	
761.35	5340.4	
761.53	4493.2	
761.71	3548.4	
761.89	3981.9	
762.06	5173.2	
762.24	4798.4	
762.42	3637.2	
762.6	3417.4	
762.78	4765.6	
762.96	5303.6	
763.13	3877.5	
763.31	3659.7	
763.49	5335.6	
763.67	4714.4	
763.85	4237.2	
764.02	4584	
764.2	5646.9	
764.38	4930.1	
764.56	3556	
764.74	4134.2	
764.91	5625.1	
765.09	4815.5	
765.27	3342.3	
765.45	3168.2	
765.63	5735	
765.8	5585.5	
765.98	3053.5	
766.16	3220.1	
766.34	4558.8	
766.52	4324.6	
766.69	3872.7	
766.87	3145.7	
767.05	4868	
767.23	5396.4	
767.41	3349.8	
767.58	3525.2	
767.76	5286.5	
767.94	5283.1	
768.12	3473.4	
768.29	3905.5	
768.47	4893.3	
768.65	5417.6	
768.83	3132	
769	3975.1	
769.18	4579.3	
769.36	5141.8	
769.54	3986	
769.72	3170.3	
769.89	5318.6	
770.07	5330.2	
770.25	3436.5	
770.43	4333.5	
770.6	5917.9	
770.78	6174.6	
770.96	3562.8	
771.14	4034.5	
771.31	5281	
771.49	4794.3	
771.67	2964.8	
771.85	3102	
772.02	4285.7	
772.2	4706.9	
772.38	3716.4	
772.55	3217.4	
772.73	4999.8	
772.91	4793.6	
773.09	3549.8	
773.26	3624.2	
773.44	4928.8	
773.62	4740.4	
773.8	3233.1	
773.97	2998.9	
774.15	4995.7	
774.33	4743.1	
774.5	3140.9	
774.68	3393.5	
774.86	5014.8	
775.04	4713.1	
775.21	3192.1	
775.39	3216	
775.57	4942.4	
775.74	5142.4	
775.92	3084.9	
776.1	2977.1	
776.27	4911	
776.45	5822.4	
776.63	3220.8	
776.81	2875.3	
776.98	4708.3	
777.16	5432.6	
777.34	3263.1	
777.51	3543	
777.69	4640.7	
777.87	4466.6	
778.04	3364.8	
778.22	3707.5	
778.4	4530.1	
778.57	5029.1	
778.75	2784.6	
778.93	3069.2	
779.1	4392.2	
779.28	4251.6	
779.46	2816	
779.64	3191.4	
779.81	5167.7	
779.99	5675.6	
780.17	3703.4	
780.34	3817.4	
780.52	4755.4	
780.69	4859.8	
780.87	3352.5	
781.05	3119.7	
781.22	4742.4	
781.4	4728.8	
781.58	3215.3	
781.75	2613.9	
781.93	4872.1	
782.11	4341	
782.28	3835.2	
782.46	3160.7	
782.64	4214	
782.81	4928.1	
782.99	3326.6	
783.17	3239.9	
783.34	4833.2	
783.52	4391.5	
783.69	3349.1	
783.87	3983.3	
784.05	4414.1	
784.22	4345.1	
784.4	3936.2	
784.58	3453.6	
784.75	5076.2	
784.93	4503.5	
785.1	3186	
785.28	3624.2	
785.46	4870.1	
785.63	4279.6	
785.81	3220.8	
785.99	3109.5	
786.16	4517.8	
786.34	4780.6	
786.51	3087.7	
786.69	3450.8	
786.87	4167.6	
787.04	4536.3	
787.22	3011.9	
787.39	3719.1	
787.57	4326	
787.75	5082.4	
787.92	3844	
788.1	3764.8	
788.27	4384	
788.45	4118.5	
788.63	3569.6	
788.8	2596.1	
788.98	4734.2	
789.15	4081.6	
789.33	2794.1	
789.5	3180.5	
789.68	4986.8	
789.86	5128.8	
790.03	3497.9	
790.21	3106.8	
790.38	5084.4	
790.56	4450.2	
790.73	3030.3	
790.91	3044	
791.09	4375.8	
791.26	4883.7	
791.44	3195.5	
791.61	2830.3	
791.79	4349.2	
791.96	4362.9	
792.14	2897.2	
792.32	2616.6	
792.49	4360.8	
792.67	4491.9	
792.84	2995.5	
793.02	2792.1	
793.19	4728.8	
793.37	5236.7	
793.54	2613.2	
793.72	2836.4	
793.89	5267.4	
794.07	4340.3	
794.25	3201.7	
794.42	2667.8	
794.6	5109.7	
794.77	4887.8	
794.95	3500.7	
795.12	3039.9	
795.3	4414.7	
795.47	4764.9	
795.65	3321.8	
795.82	3270.6	
796	4249.5	
796.17	5545.2	
796.35	3113.6	
796.52	3685.7	
796.7	4770.4	
796.87	4908.3	
797.05	3133.4	
797.22	3760.8	
797.4	4861.9	
797.57	5525.4	
797.75	3249.4	
797.92	3060.3	
798.1	5071.5	
798.27	4225	
798.45	2717	
798.62	2855.6	
798.8	4613.4	
798.97	4938.3	
799.15	3425.6	
799.32	3299.3	
799.5	4044.1	
799.67	4559.5	
799.85	3478.1	
800.02	2633	
800.2	4332.8	
800.37	4564.2	
800.55	3616	
800.72	3094.5	
800.9	4898.7	
801.07	5251	
801.25	4020.8	
801.42	3333.4	
801.6	4967.7	
801.77	4635.9	
801.95	3158.7	
802.12	3050.8	
802.29	4745.8	
802.47	4717.8	
802.64	3326.6	
802.82	2599.6	
802.99	4349.9	
803.17	4999.1	
803.34	3261.7	
803.52	2977.7	
803.69	5517.9	
803.87	4144.4	
804.04	3273.3	
804.21	3275.4	
804.39	5203.2	
804.56	4418.2	
804.74	2859.6	
804.91	3317	
805.09	4347.8	
805.26	4444.1	
805.44	2893.1	
805.61	3087	
805.78	4848.9	
805.96	4826.4	
806.13	3302	
806.31	3565.5	
806.48	3988.8	
806.66	4354	
806.83	3340.9	
807	3300	
807.18	4375.8	
807.35	4689.2	
807.53	3223.5	
807.7	2729.9	
807.87	5223	
808.05	4402.5	
808.22	3575.8	
808.4	2661.7	
808.57	4346.5	
808.74	4103.4	
808.92	3033.7	
809.09	3685.7	
809.27	4361.5	
809.44	4724.7	
809.61	2720.4	
809.79	2933.4	
809.96	5318.6	
810.14	4908.3	
810.31	2649.4	
810.48	3175.7	
810.66	4464.6	
810.83	4949.3	
811.01	3028.9	
811.18	3305.4	
811.35	4904.2	
811.53	3964.2	
811.7	3579.2	
811.87	3334.8	
812.05	4445.5	
812.22	4375.1	
812.39	2953.2	
812.57	2921.8	
812.74	4465.3	
812.92	5573.9	
813.09	3193.5	
813.26	3409.2	
813.44	5388.2	
813.61	4298	
813.78	2775.7	
813.96	3467.9	
814.13	4455.7	
814.3	4188.8	
814.48	3713	
814.65	3100.6	
814.82	5232.6	
815	4188.1	
815.17	3212.6	
815.34	3895.2	
815.52	4328.7	
815.69	4317.1	
815.87	3166.2	
816.04	3150.5	
816.21	4383.3	
816.38	3998.3	
816.56	3142.3	
816.73	2968.9	
816.9	5375.2	
817.08	4900.8	
817.25	3022.8	
817.42	3618.8	
817.6	4108.9	
817.77	4375.8	
817.94	3319.8	
818.12	2906.8	
818.29	4213.4	
818.46	6086.6	
818.64	3051.5	
818.81	2843.3	
818.98	4168.3	
819.16	5708.4	
819.33	3434.4	
819.5	3266.5	
819.67	4720.6	
819.85	5072.1	
820.02	3202.3	
820.19	3306.8	
820.37	4616.1	
820.54	4293.2	
820.71	3297.9	
820.88	4022.2	
821.06	4571.7	
821.23	4207.9	
821.4	3263.8	
821.58	3222.8	
821.75	4909	
821.92	4539	
822.09	2685.6	
822.27	2780.5	
822.44	4418.2	
822.61	4282.3	
822.79	2742.9	
822.96	4932.2	
823.13	4676.9	
823.3	4143.7	
823.48	3118.4	
823.65	2834.4	
823.82	4957.4	
823.99	4107.5	
824.17	3829.7	
824.34	2844.6	
824.51	5550	
824.68	4447.5	
824.86	2994.8	
825.03	3275.4	
825.2	4414.7	
825.37	5167.7	
825.55	2963.4	
825.72	3223.5	
825.89	5567.7	
826.06	5220.3	
826.24	3178.4	
826.41	3173	
826.58	5221	
826.75	4577.9	
826.92	2626.9	
827.1	2834.4	
827.27	6806.8	
827.44	5569.1	
827.61	3003	
827.79	3532.1	
827.96	4300.7	
828.13	4405.9	
828.3	3173.7	
828.47	2702	
828.65	4646.8	
828.82	4608.6	
828.99	3979.9	
829.16	3472.7	
829.34	4909.7	
829.51	4766.3	
829.68	3188	
829.85	3288.4	
830.02	5207.3	
830.2	4865.3	
830.37	2549.7	
830.54	3815.4	
830.71	5457.2	
830.88	4421.6	
831.05	2566.1	
831.23	2911.5	
831.4	5334.3	
831.57	5786.9	
831.74	2988	
831.91	2689	
832.09	4688.5	
832.26	4869.4	
832.43	3052.8	
832.6	3461.7	
832.77	4663.2	
832.94	5160.9	
833.12	2509.4	
833.29	3029.6	
833.46	4380.6	
833.63	5873.6	
833.8	3327.3	
833.97	3127.9	
834.15	4958.1	
834.32	4792.2	
834.49	3265.1	
834.66	3239.9	
834.83	5004.6	
835	4296	
835.17	3046	
835.35	2977.1	
835.52	4870.8	
835.69	4774.5	
835.86	3218.7	
836.03	2631.6	
836.2	4894	
836.37	4609.3	
836.55	3057.6	
836.72	2953.2	
836.89	4614.1	
837.06	4936.3	
837.23	3158	
837.4	3384.6	
837.57	5540.4	
837.75	5933	
837.92	2886.3	
838.09	3026.9	
838.26	4549.2	
838.43	5038	
838.6	3200.3	
838.77	2907.4	
838.94	5662	
839.11	5467.4	
839.29	3073.3	
839.46	2551.1	
839.63	4917.9	
839.8	4662.5	
839.97	3008.5	
840.14	2945	
840.31	4771.8	
840.48	4851.6	
840.65	2534	
840.82	2974.3	
841	4857.8	
841.17	4798.4	
841.34	2805	
841.51	2877.4	
841.68	4839.4	
841.85	4625.7	
842.02	2922.5	
842.19	2451.4	
842.36	4751.3	
842.53	4750.6	
842.7	2839.8	
842.87	3295.2	
843.05	5932.3	
843.22	4640.7	
843.39	2691	
843.56	2884.9	
843.73	4563.6	
843.9	4980.7	
844.07	4360.1	
844.24	3635.8	
844.41	6619.7	
844.58	4300.7	
844.75	2739.5	
844.92	2934.7	
845.09	4854.4	
845.26	4883	
845.43	2800.3	
845.6	2939.5	
845.77	4893.3	
845.94	4671.4	
846.12	3041.2	
846.29	3194.8	
846.46	5088.5	
846.63	4809.3	
846.8	2803	
846.97	3237.8	
847.14	5233.2	
847.31	4863.2	
847.48	3109.5	
847.65	3343	
847.82	4988.9	
847.99	5028.4	
848.16	3571	
848.33	3392.1	
848.5	4575.2	
848.67	5242.1	
848.84	2734.7	
849.01	2876	
849.18	4468.7	
849.35	4242.7	
849.52	3418.7	
849.69	2739.5	
849.86	5042.8	
850.03	5113.8	
850.2	2788	
850.37	3260.4	
850.54	5086.5	
850.71	4673.5	
850.88	3308.2	
851.05	2748.4	
851.22	4816.8	
851.39	5240.8	
851.56	2616.6	
851.73	3152.5	
851.9	4391.5	
852.07	5033.9	
852.24	3041.2	
852.41	2760	
852.58	4842.1	
852.75	4397.7	
852.92	3141.6	
853.09	2741.5	
853.26	4493.2	
853.43	5107.6	
853.6	2785.2	
853.77	2465.8	
853.94	5225.1	
854.11	4346.5	
854.28	4007.9	
854.44	2971.6	
854.61	5563	
854.78	5055.1	
854.95	2781.1	
855.12	3395.5	
855.29	4079.6	
855.46	5515.9	
855.63	2742.2	
855.8	3759.4	
855.97	4490.5	
856.14	5164.3	
856.31	3864.5	
856.48	2989.4	
856.65	4564.9	
856.82	4307.6	
856.99	2712.2	
857.16	2953.2	
857.33	5700.2	
857.49	4617.5	
857.66	2966.1	
857.83	3108.1	
858	4668	
858.17	4773.8	
858.34	2625.5	
858.51	2778.4	
858.68	5350	
858.85	5357.5	
859.02	3207.8	
859.19	3390.1	
859.36	4345.1	
859.52	4337.6	
859.69	2777.7	
859.86	3201.7	
860.03	4422.2	
860.2	5233.2	
860.37	2600.9	
860.54	2819.4	
860.71	5020.3	
860.88	5308.3	
861.05	2990	
861.21	3431.7	
861.38	5280.3	
861.55	4223.6	
861.72	2564.1	
861.89	3130.7	
862.06	5082.4	
862.23	5429.2	
862.4	2725.2	
862.56	2878.1	
862.73	4956.1	
862.9	4716.5	
863.07	3218	
863.24	2579.1	
863.41	4307.6	
863.58	4328	
863.75	2803	
863.91	3160.7	
864.08	5217.5	
864.25	4958.1	
864.42	3354.6	
864.59	3782.6	
864.76	5509	
864.93	4344.4	
865.09	2689	
865.26	2939.5	
865.43	5224.4	
865.6	5490.6	
865.77	2480.1	
865.94	2755.2	
866.1	5214.8	
866.27	4970.4	
866.44	3994.9	
866.61	2646.7	
866.78	4741	
866.95	4941.1	
867.11	2702.6	
867.28	2519.7	
867.45	5159.5	
867.62	4407.2	
867.79	3129.3	
867.96	2775.7	
868.12	4338.3	
868.29	4992.9	
868.46	2713.6	
868.63	3561.4	
868.8	5109	
868.97	5019.6	
869.13	2943.6	
869.3	2912.2	
869.47	4890.5	
869.64	5093.3	
869.81	2747.7	
869.97	2817.3	
870.14	4860.5	
870.31	5323.4	
870.48	2706	
870.65	3438.5	
870.81	4658.4	
870.98	4637.3	
871.15	3123.2	
871.32	2909.5	
871.48	4869.4	
871.65	5381.4	
871.82	2729.3	
871.99	3033	
872.16	5649.7	
872.32	5124.7	
872.49	2831	
872.66	2837.1	
872.83	5076.2	
872.99	4428.4	
873.16	3124.5	
873.33	2731.3	
873.5	4748.6	
873.67	4769	
873.83	2942.9	
874	3575.8	
874.17	4853	
874.34	5543.2	
874.5	3521.1	
874.67	3308.2	
874.84	5292.6	
875.01	4233.2	
875.17	3784	
875.34	2751.8	
875.51	4803.2	
875.68	5641.5	
875.84	3285.6	
876.01	3966.9	
876.18	4977.2	
876.34	4945.2	
876.51	2765.4	
876.68	2747.7	
876.85	4579.3	
877.01	5177.3	
877.18	3865.9	
877.35	2771.6	
877.52	4866.7	
877.68	4302.1	
877.85	2729.3	
878.02	2734	
878.18	4622.9	
878.35	4535.6	
878.52	2274.6	
878.69	3052.8	
878.85	5119.2	
879.02	4958.1	
879.19	3846.1	
879.35	2964.8	
879.52	4984.1	
879.69	5107.6	
879.86	2469.9	
880.02	3117	
880.19	4698.7	
880.36	5547.9	
880.52	3112.2	
880.69	3242.6	
880.86	5033.9	
881.02	5059.2	
881.19	3041.2	
881.36	2959.3	
881.52	5004.6	
881.69	4476.2	
881.86	2961.4	
882.02	2945.7	
882.19	5145.9	
882.36	5877.7	
882.52	2867.8	
882.69	3759.4	
882.86	4856.4	
883.02	4768.4	
883.19	3272	
883.36	3108.1	
883.52	5052.3	
883.69	5639.4	
883.86	2811.9	
884.02	2529.9	
884.19	5038	
884.36	4760.2	
884.52	3114.3	
884.69	3011.2	
884.86	4548.5	
885.02	5382.7	
885.19	3045.3	
885.36	3192.1	
885.52	4655	
885.69	4819.6	
885.86	3878.2	
886.02	3512.3	
886.19	5061.9	
886.35	4553.3	
886.52	3050.1	
886.69	3771	
886.85	4388.8	
887.02	5261.9	
887.19	5261.9	
887.35	5261.9	
887.52	5261.9	
887.68	5261.9	
887.85	5261.9	
888.02	5261.9	
888.18	5261.9	
888.35	5261.9	
888.51	5261.9	
888.68	5261.9	
888.85	5261.9	
889.01	5261.9	
889.18	5261.9	
889.35	5261.9	
889.51	5261.9	
889.68	5261.9	
889.84	5261.9	
890.01	5261.9	
890.17	5261.9	
890.34	5261.9	
890.51	5261.9	
890.67	5261.9	
890.84	5261.9	
891	5261.9	
891.17	5261.9	
891.34	5261.9	
891.5	5261.9	
891.67	5261.9	
891.83	5261.9	
892	5261.9	
892.16	5261.9	
892.33	5261.9	
892.5	5261.9	
892.66	5261.9	
892.83	5261.9	
892.99	5261.9	
893.16	5261.9	
893.32	5261.9	
893.49	5261.9	
893.65	5261.9	
893.82	5261.9	
893.99	5261.9	
894.15	5261.9	
894.32	5261.9	
894.48	5261.9	
894.65	5261.9	
894.81	5261.9	
894.98	5261.9	
895.14	5261.9	
895.31	5261.9	
895.47	5261.9	
895.64	5261.9	
895.81	5261.9	
895.97	5261.9	
896.14	5261.9	
896.3	5261.9	
896.47	5261.9	
896.63	5261.9	
896.8	5261.9	
896.96	5261.9	
897.13	5261.9	
897.29	5261.9	
897.46	5261.9	
897.62	5261.9	
897.79	5261.9	
897.95	5261.9	
898.12	5261.9	
898.28	5261.9	
898.45	5261.9	
898.61	5261.9	
898.78	5261.9	
898.94	5261.9	
899.11	5261.9	
899.27	5261.9	
899.44	5261.9	
899.6	5261.9	
899.77	5261.9	
899.93	5261.9	
900.1	5261.9	
900.26	5261.9	
900.43	5261.9	
900.59	5261.9	
900.76	5261.9	
900.92	5261.9	
901.09	5261.9	
901.25	5261.9	
901.42	5261.9	
901.58	5261.9	
901.75	5261.9	
901.91	5261.9	
902.07	5261.9	
902.24	5261.9	
902.4	5261.9	
902.57	5261.9	
902.73	5261.9	
902.9	5261.9	
903.06	5261.9	
903.23	5261.9	
903.39	5261.9	
903.56	5261.9	
903.72	5261.9	
903.88	5261.9	
904.05	5261.9	
904.21	5261.9	
904.38	5261.9	
904.54	5261.9	
904.71	5261.9	
904.87	5261.9	
905.03	5261.9	
905.2	5261.9	
905.36	5261.9	
905.53	5261.9	
905.69	5261.9	
905.86	5261.9	
906.02	5261.9	
906.18	5261.9	
906.35	5261.9	
906.51	5261.9	
906.68	5261.9	
906.84	5261.9	
907.01	5261.9	
907.17	5261.9	
907.33	5261.9	
907.5	5261.9	
907.66	5261.9	
907.83	5261.9	
907.99	5261.9	
908.15	5261.9	
908.32	5261.9	
908.48	5261.9	
908.65	5261.9	
908.81	5261.9	
908.97	5261.9	
909.14	5261.9	
909.3	5261.9	
909.47	5261.9	
909.63	5261.9	
909.79	5261.9	
909.96	5261.9	
910.12	5261.9	
910.28	5261.9	
910.45	5261.9	
910.61	5261.9	
910.78	5261.9	
910.94	5261.9	
911.1	5261.9	
911.27	5261.9	
911.43	5261.9	
911.59	5261.9	
911.76	5261.9	
911.92	5261.9	
912.08	5261.9	
912.25	5261.9	
912.41	5261.9	
912.57	5261.9	
912.74	5261.9	
912.9	5261.9	
913.07	5261.9	
913.23	5261.9	
913.39	5261.9	
913.56	5261.9	
913.72	5261.9	
913.88	5261.9	
914.05	5261.9	
914.21	5261.9	
914.37	5261.9	
914.54	5261.9	
914.7	5261.9	
914.86	5261.9	
915.03	5261.9	
915.19	5261.9	
