Wavelength	Intensities	
nm	a.u.	
179.22	1611.4	
179.44	1600.1	
179.65	1622.7	
179.86	1577.6	
180.08	1615.8	
180.29	3556.6	
180.51	2826.9	
180.72	4702.8	
180.94	5171.1	
181.15	2549	
181.37	2519.7	
181.58	4510.3	
181.79	4721.3	
182.01	2621.4	
182.22	2747	
182.44	4765.6	
182.65	4158.1	
182.87	3332.7	
183.08	2942.9	
183.29	4975.9	
183.51	4173.1	
183.72	2703.3	
183.94	3753.9	
184.15	4457.1	
184.37	4393.6	
184.58	2491	
184.79	3148.4	
185.01	4248.9	
185.22	4782	
185.44	3302	
185.65	2888.3	
185.86	4492.6	
186.08	4111	
186.29	2471.9	
186.51	2584.5	
186.72	4289.8	
186.94	4764.3	
187.15	2961.4	
187.36	3005.7	
187.58	5905.7	
187.79	4530.8	
188.01	3031.7	
188.22	4467.3	
188.43	5242.1	
188.65	4745.8	
188.86	2658.3	
189.08	2975	
189.29	4311	
189.5	4266.6	
189.72	2740.9	
189.93	2822.1	
190.15	4878.9	
190.36	5444.2	
190.57	3038.5	
190.79	2863.1	
191	4795.7	
191.22	4784.1	
191.43	3036.5	
191.64	2641.9	
191.86	4973.2	
192.07	4816.8	
192.29	2713.6	
192.5	2764.1	
192.71	4807.9	
192.93	4366.3	
193.14	2736.1	
193.35	2822.1	
193.57	4317.1	
193.78	4883.7	
194	2327.9	
194.21	2712.9	
194.42	4174.4	
194.64	4472.1	
194.85	2971.6	
195.07	3393.5	
195.28	4487.1	
195.49	3984	
195.71	3469.9	
195.92	2663.7	
196.13	4644.8	
196.35	4669.4	
196.56	3715.7	
196.78	2973.7	
196.99	5461.9	
197.2	5131.5	
197.42	3289.7	
197.63	2961.4	
197.84	4127.3	
198.06	4626.4	
198.27	2755.9	
198.48	3460.4	
198.7	4347.8	
198.91	4523.3	
199.13	3021.4	
199.34	2960.7	
199.55	4880.3	
199.77	3975.1	
199.98	2719	
200.19	3001	
200.41	4414.1	
200.62	4200.4	
200.83	3073.3	
201.05	3289	
201.26	4522.6	
201.47	4312.3	
201.69	2682.8	
201.9	2655.5	
202.11	4466.6	
202.33	5016.2	
202.54	2833	
202.76	3158	
202.97	4422.2	
203.18	4620.9	
203.4	3121.1	
203.61	3115	
203.82	4505.5	
204.04	4243.4	
204.25	3009.1	
204.46	2993.4	
204.68	4474.8	
204.89	4613.4	
205.1	2955.2	
205.32	2604.3	
205.53	4689.8	
205.74	4790.2	
205.96	2296.5	
206.17	3058.3	
206.38	4663.2	
206.6	4784.1	
206.81	3362.1	
207.02	2792.1	
207.24	4625.7	
207.45	4906.3	
207.66	2839.8	
207.88	2555.9	
208.09	4554.7	
208.3	4463.2	
208.52	2668.5	
208.73	2878.1	
208.94	4485.7	
209.15	4884.4	
209.37	2906.1	
209.58	2920.4	
209.79	4795.7	
210.01	4388.1	
210.22	2435	
210.43	2474.6	
210.65	4425	
210.86	4661.9	
211.07	2835.1	
211.29	2631	
211.5	4591.5	
211.71	4431.8	
211.93	2716.3	
212.14	2678.7	
212.35	4444.8	
212.56	4481.6	
212.78	2964.1	
212.99	2539.5	
213.2	5031.2	
213.42	4336.2	
213.63	2720.4	
213.84	2856.2	
214.06	4116.4	
214.27	4162.2	
214.48	2858.3	
214.69	3052.8	
214.91	4913.1	
215.12	4898.7	
215.33	3013.9	
215.55	3228.3	
215.76	5289.2	
215.97	4620.9	
216.18	2940.2	
216.4	2939.5	
216.61	4233.2	
216.82	4783.4	
217.04	2709.5	
217.25	2785.9	
217.46	4838	
217.67	4703.5	
217.89	2497.2	
218.1	2568.8	
218.31	4498	
218.53	4605.9	
218.74	2849.4	
218.95	2693.8	
219.16	4487.1	
219.38	5047.6	
219.59	2701.3	
219.8	3150.5	
220.01	5343.8	
220.23	4472.8	
220.44	3338.2	
220.65	2697.2	
220.87	4527.4	
221.08	4893.3	
221.29	2618.7	
221.5	3162.1	
221.72	5681.7	
221.93	4298.7	
222.14	3003.7	
222.35	3474.7	
222.57	4502.8	
222.78	4768.4	
222.99	2954.5	
223.2	3065.1	
223.42	4597.7	
223.63	4754	
223.84	2340.1	
224.05	2316.9	
224.27	5259.9	
224.48	5018.2	
224.69	3458.3	
224.9	3026.9	
225.12	4601.8	
225.33	4442	
225.54	2465.8	
225.75	2698.5	
225.97	4201.1	
226.18	4395.6	
226.39	2833	
226.6	2707.4	
226.82	4343.1	
227.03	4155.3	
227.24	2979.1	
227.45	2564.7	
227.67	4715.1	
227.88	4974.5	
228.09	3350.5	
228.3	3241.9	
228.52	4704.9	
228.73	4415.4	
228.94	2863.1	
229.15	2583.9	
229.36	4410.6	
229.58	4489.8	
229.79	2862.4	
230	3224.9	
230.21	5220.3	
230.43	4469.4	
230.64	2940.9	
230.85	3016.7	
231.06	4726	
231.28	4743.8	
231.49	2522.4	
231.7	2927.9	
231.91	4724.7	
232.12	4461.8	
232.34	2642.6	
232.55	2856.9	
232.76	4861.9	
232.97	4549.2	
233.18	2671.2	
233.4	2945	
233.61	4562.2	
233.82	4251.6	
234.03	2800.3	
234.25	2795.5	
234.46	5750.7	
234.67	4459.1	
234.88	3061	
235.09	2749.1	
235.31	4584	
235.52	4371	
235.73	2947.7	
235.94	2607.1	
236.15	4340.3	
236.37	5153.4	
236.58	2685.6	
236.79	2862.4	
237	4681.7	
237.21	4091.2	
237.43	3037.1	
237.64	2513.5	
237.85	7015.7	
238.06	4193.6	
238.27	3112.9	
238.48	2594.8	
238.7	4717.8	
238.91	4375.8	
239.12	2798.2	
239.33	3018.7	
239.54	4296	
239.76	4397.7	
239.97	2935.4	
240.18	2889.7	
240.39	5169.8	
240.6	4591.5	
240.82	3005.1	
241.03	2595.5	
241.24	4425	
241.45	4990.2	
241.66	2667.8	
241.87	3142.3	
242.09	4977.2	
242.3	5152	
242.51	3125.2	
242.72	2850.8	
242.93	4777.9	
243.14	4424.3	
243.36	3255.6	
243.57	3530.7	
243.78	5019.6	
243.99	4683.7	
244.2	2896.5	
244.41	2598.9	
244.63	4146.5	
244.84	4617.5	
245.05	3043.3	
245.26	2842.6	
245.47	4739	
245.68	4738.3	
245.9	3586	
246.11	2972.3	
246.32	4303.5	
246.53	4578.6	
246.74	4386.1	
246.95	2549	
247.16	4208.6	
247.38	4448.2	
247.59	2528.6	
247.8	2910.2	
248.01	4165.6	
248.22	4445.5	
248.43	2653.5	
248.64	2853.5	
248.86	4125.3	
249.07	4330.8	
249.28	2679.4	
249.49	2915.6	
249.7	4799.8	
249.91	4768.4	
250.12	2541.5	
250.34	2532	
250.55	4513	
250.76	4527.4	
250.97	2966.1	
251.18	3004.4	
251.39	4868.7	
251.6	4543.8	
251.81	2970.2	
252.03	2973.7	
252.24	4358.1	
252.45	4684.4	
252.66	2624.1	
252.87	3153.2	
253.08	4499.4	
253.29	5547.3	
253.5	2620	
253.72	3446.7	
253.93	4372.4	
254.14	5083.1	
254.35	2779.1	
254.56	2818	
254.77	4577.9	
254.98	4270.7	
255.19	2749.1	
255.41	3366.2	
255.62	4588.1	
255.83	4838.7	
256.04	3140.9	
256.25	2990	
256.46	5247.6	
256.67	4240.7	
256.88	2980.5	
257.09	3277.4	
257.31	4126	
257.52	4199	
257.73	3656.3	
257.94	2775	
258.15	4448.9	
258.36	4429.1	
258.57	3381.2	
258.78	2292.4	
258.99	4797.7	
259.2	4362.9	
259.41	2740.9	
259.63	2861	
259.84	5014.8	
260.05	5156.1	
260.26	3397.6	
260.47	2741.5	
260.68	4881	
260.89	4364.2	
261.1	3286.3	
261.31	2715.6	
261.52	4923.3	
261.73	5087.8	
261.95	3462.4	
262.16	3055.6	
262.37	4828.4	
262.58	4946.5	
262.79	3428.3	
263	2820.7	
263.21	4503.5	
263.42	4324.6	
263.63	3001	
263.84	2798.2	
264.05	4803.9	
264.26	5025.7	
264.47	3345.7	
264.69	3093.1	
264.9	4966.3	
265.11	4503.5	
265.32	2684.9	
265.53	2697.2	
265.74	4527.4	
265.95	4055	
266.16	2878.1	
266.37	3122.5	
266.58	4512.4	
266.79	4276.2	
267	2782.5	
267.21	2618	
267.42	4166.9	
267.63	4453.6	
267.84	2835.8	
268.06	2533.3	
268.27	4776.5	
268.48	4875.5	
268.69	2852.1	
268.9	3241.3	
269.11	4864.6	
269.32	4077.5	
269.53	2855.6	
269.74	2702.6	
269.95	4610	
270.16	4098.7	
270.37	2963.4	
270.58	3239.9	
270.79	4419.5	
271	4759.5	
271.21	3018.7	
271.42	2889.7	
271.63	4645.5	
271.84	4139.6	
272.05	2420	
272.26	2689.7	
272.47	4486.4	
272.68	4592.9	
272.89	2883.5	
273.11	3093.1	
273.32	4288.4	
273.53	4969.1	
273.74	2999.6	
273.95	2961.4	
274.16	4723.3	
274.37	4431.8	
274.58	3143.6	
274.79	2637.8	
275	4585.4	
275.21	4807.9	
275.42	3654.9	
275.63	3157.3	
275.84	4641.4	
276.05	5520.6	
276.26	3012.6	
276.47	2861	
276.68	4425.7	
276.89	5122.7	
277.1	3181.2	
277.31	2641.2	
277.52	4609.3	
277.73	4868.7	
277.94	2528.6	
278.15	2749.7	
278.36	4643.4	
278.57	4239.3	
278.78	2770.2	
278.99	3037.8	
279.2	4289.8	
279.41	4272.7	
279.62	3535.5	
279.83	2624.1	
280.04	5223	
280.25	4166.3	
280.46	3527.3	
280.67	2967.5	
280.88	4247.5	
281.09	4885.8	
281.3	2990	
281.51	3596.9	
281.72	4278.9	
281.93	4777.9	
282.14	2720.4	
282.35	2919	
282.56	4821.6	
282.77	4725.3	
282.98	2792.7	
283.19	3332.7	
283.4	5613.5	
283.61	4414.7	
283.82	2645.3	
284.03	3462.4	
284.24	4622.3	
284.45	4783.4	
284.66	3445.4	
284.87	3287	
285.08	4847.5	
285.29	4968.4	
285.5	2594.1	
285.71	2813.9	
285.92	4835.3	
286.12	5304.2	
286.33	3445.4	
286.54	2832.3	
286.75	4788.8	
286.96	4410	
287.17	2683.5	
287.38	3321.1	
287.59	4290.5	
287.8	4282.3	
288.01	2822.1	
288.22	3129.3	
288.43	4444.1	
288.64	4050.2	
288.85	3276.1	
289.06	3134.1	
289.27	4803.9	
289.48	4907.6	
289.69	3502	
289.9	3190.1	
290.11	4938.3	
290.32	4326.7	
290.53	3291.1	
290.74	3046	
290.94	4747.9	
291.15	4780.6	
291.36	2760	
291.57	3121.1	
291.78	4395.6	
291.99	4063.9	
292.2	2678.1	
292.41	3043.3	
292.62	4797	
292.83	4694.6	
293.04	3675.4	
293.25	2730.6	
293.46	4339.6	
293.67	4811.4	
293.88	2692.4	
294.09	2690.3	
294.29	4227.7	
294.5	4575.2	
294.71	2899.9	
294.92	2779.8	
295.13	4345.8	
295.34	5236	
295.55	2551.8	
295.76	2519.7	
295.97	4741.7	
296.18	5149.3	
296.39	2605.7	
296.6	2734.7	
296.81	4462.5	
297.01	4715.8	
297.22	2828.9	
297.43	2789.3	
297.64	4345.1	
297.85	4190.8	
298.06	2364.7	
298.27	2482.8	
298.48	4456.4	
298.69	4248.2	
298.9	3002.3	
299.11	2719.7	
299.31	4148.5	
299.52	4196.3	
299.73	3107.5	
299.94	3004.4	
300.15	4521.2	
300.36	4327.4	
300.57	3077.4	
300.78	2963.4	
300.99	4330.8	
301.2	4463.2	
301.4	2777.7	
301.61	2933.4	
301.82	4643.4	
302.03	4672.8	
302.24	3231.7	
302.45	2622.1	
302.66	4626.4	
302.87	4831.2	
303.08	2738.1	
303.29	3550.5	
303.49	4372.4	
303.7	4403.1	
303.91	2529.2	
304.12	3394.8	
304.33	4109.6	
304.54	4573.8	
304.75	2742.2	
304.96	2637.1	
305.16	4668	
305.37	5098.8	
305.58	2481.5	
305.79	2495.1	
306	4657.1	
306.21	4041.3	
306.42	2742.9	
306.63	3861.8	
306.83	4360.1	
307.04	4699.4	
307.25	2923.8	
307.46	2933.4	
307.67	4012.7	
307.88	4676.9	
308.09	2754.5	
308.29	2749.1	
308.5	4487.8	
308.71	4770.4	
308.92	2841.2	
309.13	2652.1	
309.34	4460.5	
309.55	4407.2	
309.75	3317	
309.96	3020.8	
310.17	4685.8	
310.38	4267.3	
310.59	3140.2	
310.8	2588.6	
311.01	4371.7	
311.21	4425	
311.42	2731.3	
311.63	2722.4	
311.84	4336.2	
312.05	4509.6	
312.26	2998.9	
312.46	3239.9	
312.67	4414.1	
312.88	4141.7	
313.09	2640.5	
313.3	2656.2	
313.51	4967	
313.71	5094.7	
313.92	2658.3	
314.13	2824.8	
314.34	4584.7	
314.55	4457.7	
314.76	3241.3	
314.96	2936.8	
315.17	4620.2	
315.38	4581.3	
315.59	2709.5	
315.8	2581.8	
316.01	4908.3	
316.21	5058.5	
316.42	2570.9	
316.63	2934.7	
316.84	4405.9	
317.05	4780.6	
317.26	3069.2	
317.46	2775	
317.67	4468	
317.88	4706.9	
318.09	3203	
318.3	2553.1	
318.5	4361.5	
318.71	4637.3	
318.92	4005.1	
319.13	3042.6	
319.34	4788.2	
319.54	4870.8	
319.75	2532.7	
319.96	2469.9	
320.17	4637.3	
320.38	4752	
320.58	2481.5	
320.79	2835.1	
321	4840	
321.21	4831.2	
321.42	2925.2	
321.62	2499.9	
321.83	4311	
322.04	4477.5	
322.25	2840.5	
322.46	2662.4	
322.66	4511	
322.87	4675.5	
323.08	3170.9	
323.29	2575.7	
323.5	5170.4	
323.7	4179.9	
323.91	3458.3	
324.12	3147	
324.33	4575.8	
324.53	4589.5	
324.74	3024.2	
324.95	3127.9	
325.16	4143	
325.37	4335.5	
325.57	2657.6	
325.78	2729.9	
325.99	4599.1	
326.2	4147.8	
326.4	3633.8	
326.61	2486.2	
326.82	4413.4	
327.03	4549.9	
327.24	3614.7	
327.44	3327.3	
327.65	4666.6	
327.86	3889.8	
328.07	3039.9	
328.27	2602.3	
328.48	4900.1	
328.69	4148.5	
328.9	3573	
329.1	2788	
329.31	4425.7	
329.52	4924.7	
329.73	2710.8	
329.93	2893.8	
330.14	4547.2	
330.35	4600.4	
330.56	4038.6	
330.76	3199.6	
330.97	4330.8	
331.18	4530.8	
331.39	2932	
331.59	2471.9	
331.8	4787.5	
332.01	4843.4	
332.22	2702.6	
332.42	3044.6	
332.63	4532.2	
332.84	4222.9	
333.05	2923.8	
333.25	2692.4	
333.46	4246.1	
333.67	4504.8	
333.88	2792.7	
334.08	2990	
334.29	5557.5	
334.5	4782.7	
334.7	2616.6	
334.91	3568.9	
335.12	4129.4	
335.33	4660.5	
335.53	2909.5	
335.74	3967.6	
335.95	4410.6	
336.16	4087.1	
336.36	2959.3	
336.57	3238.5	
336.78	4124.6	
336.98	4833.9	
337.19	3463.1	
337.4	2861	
337.61	5190.2	
337.81	4120.5	
338.02	2749.7	
338.23	3259.7	
338.43	4911.7	
338.64	4285.7	
338.85	2686.3	
339.05	3397.6	
339.26	5049.6	
339.47	4126.7	
339.68	2678.1	
339.88	3676.1	
340.09	4672.8	
340.3	4775.9	
340.5	3049.4	
340.71	2448.7	
340.92	4136.9	
341.13	4900.1	
341.33	2556.5	
341.54	3010.5	
341.75	4640	
341.95	4278.9	
342.16	2912.2	
342.37	3179.8	
342.57	4169	
342.78	4357.4	
342.99	3202.3	
343.19	2514.2	
343.4	4697.4	
343.61	4586.1	
343.81	2785.2	
344.02	2631.6	
344.23	4708.3	
344.43	4890.5	
344.64	3239.2	
344.85	3134.1	
345.06	4669.4	
345.26	4829.8	
345.47	3068.5	
345.68	3428.3	
345.88	4092.5	
346.09	4754	
346.3	3093.1	
346.5	2458.2	
346.71	4418.2	
346.92	4255	
347.12	2611.8	
347.33	2958.6	
347.54	4775.9	
347.74	5022.3	
347.95	2992.8	
348.16	2388.6	
348.36	4252.3	
348.57	4164.9	
348.78	3019.4	
348.98	3127.2	
349.19	4431.1	
349.39	4042	
349.6	2555.9	
349.81	2735.4	
350.01	4668	
350.22	4245.4	
350.43	2984.6	
350.63	3358.7	
350.84	4455.7	
351.05	4258.4	
351.25	2681.5	
351.46	2536.8	
351.67	4757.4	
351.87	4260.5	
352.08	2852.1	
352.29	3151.1	
352.49	4687.8	
352.7	4476.9	
352.9	2608.4	
353.11	3098.6	
353.32	5115.1	
353.52	4283.7	
353.73	2603	
353.94	3124.5	
354.14	4614.8	
354.35	4411.3	
354.55	2690.3	
354.76	2939.5	
354.97	4570.4	
355.17	4425	
355.38	2571.6	
355.59	3306.8	
355.79	4214	
356	4361.5	
356.2	2844.6	
356.41	2619.4	
356.62	4098	
356.82	4360.8	
357.03	3061	
357.24	2751.1	
357.44	4161.5	
357.65	4244.1	
357.85	3559.4	
358.06	2922.5	
358.27	4020.8	
358.47	4117.1	
358.68	2562	
358.88	2998.2	
359.09	4541.7	
359.3	4721.3	
359.5	3450.8	
359.71	3108.8	
359.91	4996.4	
360.12	4554	
360.33	3061	
360.53	3312.9	
360.74	4208.6	
360.94	4231.8	
361.15	3146.4	
361.36	2658.9	
361.56	4743.1	
361.77	4392.9	
361.97	3381.9	
362.18	2749.7	
362.38	4741	
362.59	4096.6	
362.8	2637.1	
363	2504.7	
363.21	4042.7	
363.41	4388.1	
363.62	2917.7	
363.83	3553.2	
364.03	4561.5	
364.24	4949.3	
364.44	3719.8	
364.65	3614	
364.85	4271.4	
365.06	4110.3	
365.27	2677.4	
365.47	2775	
365.68	4928.1	
365.88	4266.6	
366.09	3006.4	
366.29	2750.4	
366.5	4394.9	
366.71	4702.8	
366.91	3510.9	
367.12	3072	
367.32	5060.5	
367.53	4590.2	
367.73	3080.8	
367.94	3714.3	
368.14	4663.9	
368.35	5049.6	
368.56	3005.1	
368.76	2661	
368.97	4678.9	
369.17	5540.4	
369.38	2717.7	
369.58	2936.1	
369.79	3981.9	
369.99	4913.8	
370.2	3577.8	
370.4	2917.7	
370.61	4435.9	
370.82	5265.3	
371.02	2895.1	
371.23	2481.5	
371.43	4047.5	
371.64	4894	
371.84	2911.5	
372.05	3618.1	
372.25	5524.1	
372.46	4504.8	
372.66	2859	
372.87	2884.9	
373.07	4595	
373.28	5631.9	
373.48	3450.8	
373.69	3256.3	
373.9	4350.6	
374.1	4392.2	
374.31	3384.6	
374.51	3153.9	
374.72	4764.3	
374.92	4108.9	
375.13	3504.1	
375.33	3013.2	
375.54	4476.2	
375.74	4210.6	
375.95	3082.2	
376.15	3876.8	
376.36	4553.3	
376.56	4473.4	
376.77	3068.5	
376.97	3373	
377.18	5218.9	
377.38	4588.8	
377.59	3480.9	
377.79	2823.5	
378	4468	
378.2	4591.5	
378.41	2822.8	
378.61	2720.4	
378.82	4762.9	
379.02	4233.8	
379.23	2961.4	
379.43	3592.1	
379.64	4881.7	
379.84	4536.3	
380.05	2833.7	
380.25	2794.1	
380.46	4612.7	
380.66	4348.5	
380.87	3638.6	
381.07	3795.6	
381.28	5011.4	
381.48	4595	
381.69	2747	
381.89	2865.1	
382.1	4022.2	
382.3	4655	
382.51	3480.2	
382.71	3981.9	
382.91	4570.4	
383.12	4859.8	
383.32	3035.8	
383.53	3121.1	
383.73	4517.1	
383.94	4375.8	
384.14	3132	
384.35	2665.1	
384.55	4286.4	
384.76	4562.9	
384.96	3091.8	
385.17	3248.8	
385.37	4610	
385.58	4138.3	
385.78	3236.5	
385.98	2629.6	
386.19	4348.5	
386.39	4599.1	
386.6	2895.1	
386.8	3048.7	
387.01	4556	
387.21	4688.5	
387.42	3317.7	
387.62	3608.5	
387.83	4265.2	
388.03	4390.8	
388.23	3171.6	
388.44	3538.2	
388.64	4018.8	
388.85	4038.6	
389.05	3257.6	
389.26	3586	
389.46	5399.1	
389.67	4888.5	
389.87	3257.6	
390.07	3345	
390.28	4360.1	
390.48	4083.6	
390.69	2778.4	
390.89	3007.8	
391.1	4261.8	
391.3	4750.6	
391.5	3775.1	
391.71	4045.4	
391.91	4675.5	
392.12	5139.7	
392.32	3732.8	
392.53	3248.1	
392.73	4326	
392.93	4360.1	
393.14	3056.9	
393.34	3549.1	
393.55	4661.2	
393.75	4351.3	
393.95	3109.5	
394.16	3055.6	
394.36	4353.3	
394.57	4661.2	
394.77	2797.5	
394.98	2979.8	
395.18	4231.8	
395.38	4226.3	
395.59	3534.8	
395.79	2929.3	
396	4363.5	
396.2	4590.2	
396.4	3408.5	
396.61	3321.1	
396.81	4614.8	
397.02	4222.2	
397.22	3540.3	
397.42	3599	
397.63	4736.3	
397.83	4199	
398.04	2839.8	
398.24	3134.8	
398.44	4532.8	
398.65	3898.6	
398.85	2742.9	
399.05	2803	
399.26	4215.4	
399.46	5253	
399.67	3078.8	
399.87	2855.6	
400.07	4447.5	
400.28	4557.4	
400.48	2897.9	
400.69	3594.9	
400.89	4672.1	
401.09	4988.2	
401.3	2854.2	
401.5	3478.1	
401.7	5053.7	
401.91	5277.6	
402.11	3123.2	
402.32	3235.8	
402.52	4807.9	
402.72	4741.7	
402.93	3428.3	
403.13	2655.5	
403.33	5219.6	
403.54	4456.4	
403.74	3253.5	
403.94	3787.4	
404.15	4513.7	
404.35	5300.1	
404.56	3098.6	
404.76	4121.9	
404.96	4767	
405.17	4586.8	
405.37	3567.6	
405.57	3353.9	
405.78	4751.3	
405.98	4450.2	
406.18	3061.7	
406.39	3570.3	
406.59	4767	
406.79	4455	
407	2964.8	
407.2	2973	
407.4	5008	
407.61	4883	
407.81	2985.9	
408.01	4354.7	
408.22	3984.7	
408.42	5182.7	
408.62	3644.7	
408.83	3245.3	
409.03	4406.5	
409.23	4387.4	
409.44	3266.5	
409.64	3429	
409.84	5013.4	
410.05	4973.2	
410.25	3405.8	
410.45	3208.5	
410.66	4644.8	
410.86	6206.7	
411.06	3452.2	
411.27	3411.2	
411.47	5939.1	
411.67	4681.7	
411.88	3575.1	
412.08	3656.3	
412.28	5033.9	
412.49	5408.7	
412.69	3320.4	
412.89	3379.1	
413.09	5326.8	
413.3	5180	
413.5	3473.4	
413.7	3181.9	
413.91	4769.7	
414.11	5261.2	
414.31	3284.3	
414.52	3526.6	
414.72	5098.1	
414.92	4925.4	
415.12	3332	
415.33	3674.7	
415.53	5167.7	
415.73	5367	
415.94	3829.7	
416.14	3493.2	
416.34	4641.4	
416.55	4459.1	
416.75	4220.2	
416.95	3930.1	
417.15	5338.4	
417.36	5698.8	
417.56	4377.2	
417.76	3726.6	
417.97	5458.5	
418.17	5240.8	
418.37	3603.7	
418.57	3502.7	
418.78	5251.7	
418.98	4981.3	
419.18	4158.7	
419.38	4091.8	
419.59	4918.5	
419.79	4803.2	
419.99	3547.8	
420.2	3700	
420.4	5330.2	
420.6	5311.1	
420.8	3487	
421.01	3382.6	
421.21	5191.6	
421.41	5222.3	
421.61	3697.3	
421.82	3543	
422.02	4922	
422.22	5515.2	
422.42	3979.2	
422.63	3801	
422.83	4865.3	
423.03	5666	
423.23	3848.1	
423.44	3131.3	
423.64	4970.4	
423.84	4745.8	
424.04	3494.5	
424.25	3253.5	
424.45	5585.5	
424.65	5490.6	
424.85	3162.1	
425.06	3519.1	
425.26	5758.9	
425.46	4950.6	
425.66	3838.6	
425.87	3621.5	
426.07	5477	
426.27	5257.1	
426.47	3723.9	
426.67	3312.2	
426.88	5718.6	
427.08	5364.3	
427.28	3895.9	
427.48	3324.5	
427.69	4647.5	
427.89	5011.4	
428.09	3827.7	
428.29	3333.4	
428.5	5409.4	
428.7	5198.4	
428.9	3277.4	
429.1	3648.1	
429.3	5198.4	
429.51	5287.9	
429.71	3512.9	
429.91	3973.1	
430.11	5399.1	
430.31	5462.6	
430.52	3657	
430.72	3760.1	
430.92	5638.7	
431.12	5331.5	
431.32	3413.3	
431.53	3708.9	
431.73	4711	
431.93	5631.2	
432.13	3376.4	
432.33	3364.1	
432.54	4982.7	
432.74	5074.2	
432.94	3274	
433.14	3967.6	
433.34	5509	
433.55	5047.6	
433.75	3875.4	
433.95	4925.4	
434.15	5215.5	
434.35	4956.8	
434.56	3454.2	
434.76	3108.1	
434.96	5150	
435.16	5302.2	
435.36	3359.4	
435.56	4055.7	
435.77	5011.4	
435.97	5167.7	
436.17	4455.7	
436.37	4019.5	
436.57	4889.2	
436.78	4888.5	
436.98	5123.3	
437.18	4335.5	
437.38	5274.9	
437.58	5024.3	
437.78	4466.6	
437.99	3601	
438.19	5375.9	
438.39	6264.1	
438.59	3646.1	
438.79	3306.8	
438.99	5851	
439.2	5110.4	
439.4	3307.5	
439.6	3268.6	
439.8	5194.3	
440	5836	
440.2	3988.8	
440.4	3923.2	
440.61	5470.8	
440.81	5723.4	
441.01	3458.3	
441.21	3971	
441.41	5747.3	
441.61	5481	
441.81	4167.6	
442.02	4820.2	
442.22	6086.6	
442.42	5590.3	
442.62	3531.4	
442.82	3622.9	
443.02	5909.8	
443.22	5215.5	
443.43	3775.8	
443.63	3459	
443.83	5075.5	
444.03	5130.8	
444.23	4191.5	
444.43	3945.8	
444.63	5416.9	
444.83	6090	
445.04	3611.3	
445.24	4351.3	
445.44	5651.7	
445.64	5550	
445.84	4132.1	
446.04	4186	
446.24	5239.4	
446.44	5873.6	
446.65	3654.9	
446.85	3861.1	
447.05	5229.8	
447.25	5795.8	
447.45	3984	
447.65	3503.4	
447.85	5453.7	
448.05	5117.9	
448.25	4182	
448.46	3985.3	
448.66	5464	
448.86	5171.1	
449.06	3517	
449.26	4136.9	
449.46	5609.4	
449.66	5041.4	
449.86	3858.4	
450.06	3807.2	
450.26	5182.7	
450.47	5545.2	
450.67	4005.8	
450.87	4241.3	
451.07	5752.1	
451.27	5432.6	
451.47	3590.8	
451.67	4210.6	
451.87	5242.1	
452.07	5972.6	
452.27	3768.3	
452.47	3763.5	
452.67	5560.2	
452.88	5655.8	
453.08	3411.2	
453.28	4502.8	
453.48	6206.7	
453.68	5408.7	
453.88	3715.7	
454.08	3876.8	
454.28	5679.7	
454.48	5410.7	
454.68	4168.3	
454.88	4372.4	
455.08	5780.1	
455.28	5470.8	
455.48	3703.4	
455.68	4066.6	
455.89	6097.5	
456.09	5799.8	
456.29	3908.9	
456.49	3987.4	
456.69	5973.9	
456.89	5443.5	
457.09	4242.7	
457.29	4403.1	
457.49	5703.6	
457.69	5764.3	
457.89	4080.2	
458.09	3690.4	
458.29	5611.4	
458.49	6040.8	
458.69	4368.3	
458.89	3910.9	
459.09	6182.8	
459.29	6142.5	
459.49	4027	
459.69	4526	
459.9	5875.6	
460.1	5601.9	
460.3	3966.9	
460.5	3900.7	
460.7	5930.9	
460.9	5552	
461.1	3674.1	
461.3	4343.7	
461.5	6300.9	
461.7	5920.7	
461.9	3944.4	
462.1	4251.6	
462.3	5737.7	
462.5	6064.7	
462.7	4012.7	
462.9	4077.5	
463.1	6709.1	
463.3	6468.9	
463.5	4188.8	
463.7	4728.1	
463.9	5860.6	
464.1	6077	
464.3	4238.6	
464.5	4468	
464.7	6218.3	
464.9	5949.3	
465.1	5204.6	
465.3	4603.8	
465.5	6446.3	
465.7	6546	
465.9	4822.3	
466.1	4611.3	
466.3	6285.9	
466.5	6254.5	
466.7	5238.7	
466.9	4509.6	
467.1	6367.1	
467.3	6781.5	
467.5	5180	
467.7	4568.3	
467.9	7002.7	
468.1	7488.1	
468.3	4993.6	
468.5	5198.4	
468.7	6189	
468.9	6137.8	
469.1	4706.9	
469.3	5155.4	
469.5	7456.7	
469.7	5988.9	
469.9	5048.2	
470.1	4544.4	
470.3	6354.2	
470.5	6308.4	
470.7	5388.2	
470.9	4627.7	
471.1	6184.2	
471.3	6439.5	
471.5	4570.4	
471.69	5684.5	
471.89	6133	
472.09	5799.8	
472.29	5018.2	
472.49	5225.1	
472.69	5928.9	
472.89	6449.1	
473.09	4605.2	
473.29	4641.4	
473.49	6075	
473.69	6062	
473.89	5108.3	
474.09	4659.1	
474.29	6924.9	
474.49	6645	
474.69	5132.2	
474.89	4775.9	
475.09	6186.9	
475.29	6108.4	
475.49	4534.2	
475.69	4628.4	
475.88	7230.7	
476.08	6466.8	
476.28	4425	
476.48	4637.3	
476.68	6756.9	
476.88	6530.3	
477.08	4676.2	
477.28	4790.9	
477.48	6342.6	
477.68	6530.3	
477.88	4452.3	
478.08	4646.8	
478.28	6860	
478.48	6339.8	
478.67	4745.8	
478.87	4362.2	
479.07	6784.2	
479.27	6408.1	
479.47	4874.8	
479.67	4821.6	
479.87	6587	
480.07	6984.9	
480.27	4452.3	
480.47	5338.4	
480.67	6366.5	
480.87	6838.9	
481.06	4627	
481.26	5139.7	
481.46	6448.4	
481.66	6371.9	
481.86	4937.7	
482.06	5526.1	
482.26	6214.9	
482.46	6754.2	
482.66	4870.8	
482.86	4574.5	
483.05	6526.9	
483.25	6081.1	
483.45	6352.8	
483.65	4829.1	
483.85	6081.1	
484.05	6350.1	
484.25	5165.7	
484.45	5401.9	
484.65	6898.9	
484.84	6886.6	
485.04	4774.5	
485.24	4842.8	
485.44	7131.7	
485.64	6010.8	
485.84	4407.9	
486.04	5205.3	
486.24	6330.3	
486.44	6492.7	
486.63	4426.3	
486.83	5000.5	
487.03	6338.5	
487.23	6338.5	
487.43	4499.4	
487.63	5876.3	
487.83	6385.6	
488.02	6842.9	
488.22	4998.4	
488.42	5396.4	
488.62	7062.8	
488.82	6284.5	
489.02	4941.7	
489.22	4885.8	
489.41	6846.4	
489.61	6759	
489.81	4728.8	
490.01	4763.6	
490.21	6903	
490.41	7407.5	
490.61	4773.8	
490.8	4835.3	
491	6612.9	
491.2	6235.4	
491.4	5233.2	
491.6	4805.2	
491.8	6774	
491.99	6610.2	
492.19	4693.3	
492.39	4784.1	
492.59	6846.4	
492.79	6926.9	
492.99	5274.9	
493.18	4655.7	
493.38	7071.6	
493.58	7505.8	
493.78	5125.4	
493.98	4925.4	
494.18	6746.7	
494.37	6371.2	
494.57	5408.7	
494.77	5207.3	
494.97	6988.4	
495.17	7043.6	
495.37	5091.3	
495.56	5300.1	
495.76	7236.8	
495.96	7081.2	
496.16	5856.5	
496.36	5261.9	
496.55	7220.5	
496.75	6862.7	
496.95	5480.4	
497.15	5374.6	
497.35	7233.4	
497.54	7207.5	
497.74	5288.5	
497.94	6238.1	
498.14	7681.9	
498.34	7431.4	
498.53	5046.2	
498.73	5549.3	
498.93	6759	
499.13	7081.2	
499.33	5447.6	
499.52	5797.8	
499.72	7267.6	
499.92	7393.8	
500.12	5321.3	
500.32	5521.3	
500.51	7385	
500.71	7177.4	
500.91	5943.2	
501.11	5698.1	
501.31	7326.9	
501.5	7656	
501.7	6235.4	
501.9	5535.7	
502.1	7198.6	
502.29	7488.1	
502.49	5876.3	
502.69	6096.8	
502.89	7436.2	
503.09	7441.6	
503.28	5223.7	
503.48	5427.1	
503.68	7022.5	
503.88	6918	
504.07	5841.5	
504.27	5566.4	
504.47	7161.1	
504.67	7254.6	
504.86	5847.6	
505.06	5632.6	
505.26	7155.6	
505.46	7970.7	
505.65	5621	
505.85	5794.4	
506.05	7029.3	
506.25	7313.3	
506.44	5223	
506.64	5769.8	
506.84	6858.6	
507.04	7451.2	
507.23	5316.5	
507.43	5694	
507.63	8118.8	
507.83	6887.3	
508.02	5663.3	
508.22	5371.1	
508.42	8236.2	
508.62	6769.2	
508.81	5539.8	
509.01	5963.7	
509.21	6810.2	
509.4	7097.6	
509.6	5732.9	
509.8	5391.6	
510	6942.6	
510.19	7699.7	
510.39	5287.9	
510.59	5384.1	
510.79	6919.4	
510.98	7642.3	
511.18	5481	
511.38	5468.1	
511.57	7481.2	
511.77	7157.7	
511.97	5872.2	
512.17	5335.6	
512.36	7417.1	
512.56	7217.7	
512.76	5318.6	
512.95	5186.8	
513.15	7588.4	
513.35	6524.1	
513.55	5872.9	
513.74	5322.7	
513.94	7413.6	
514.14	6904.4	
514.33	5947.3	
514.53	5909.8	
514.73	7061.4	
514.92	7122.2	
515.12	5401.2	
515.32	5307	
515.51	7210.2	
515.71	7488.7	
515.91	6473.6	
516.11	5300.8	
516.3	8260.8	
516.5	7030	
516.7	5757.5	
516.89	6081.8	
517.09	7067.5	
517.29	7069.6	
517.48	5874.3	
517.68	5541.1	
517.88	6845.7	
518.07	7327.6	
518.27	5885.2	
518.47	5283.1	
518.66	7612.3	
518.86	6771.9	
519.06	5161.6	
519.25	5502.2	
519.45	6959.7	
519.65	7869.7	
519.84	5893.4	
520.04	6331.6	
520.24	8150.9	
520.43	7430	
520.63	5773.2	
520.83	5600.5	
521.02	6961	
521.22	7475.1	
521.42	5888.6	
521.61	6199.2	
521.81	7105.8	
522.01	7254.6	
522.2	5761.6	
522.4	5625.1	
522.6	7542	
522.79	6655.2	
522.99	5599.8	
523.18	5179.3	
523.38	7389.8	
523.58	7271.7	
523.77	6348.7	
523.97	5246.2	
524.17	8351.6	
524.36	7951.6	
524.56	6208.1	
524.76	5873.6	
524.95	7303.1	
525.15	7075	
525.34	5874.3	
525.54	5867.4	
525.74	7712	
525.93	7033.4	
526.13	6593.8	
526.33	5853.8	
526.52	7896.3	
526.72	7538.6	
526.91	6668.9	
527.11	6181.5	
527.31	7892.9	
527.5	8082	
527.7	6100.9	
527.89	5582.1	
528.09	7338.6	
528.29	7404.8	
528.48	6360.3	
528.68	6115.2	
528.87	7809.6	
529.07	7908.6	
529.27	6087.9	
529.46	5863.3	
529.66	7823.9	
529.85	7957.7	
530.05	5778	
530.25	6269.5	
530.44	8665	
530.64	7619.8	
530.83	6146	
531.03	6207.4	
531.23	7972.1	
531.42	7808.9	
531.62	6589	
531.81	6117.3	
532.01	7994.6	
532.21	8138.6	
532.4	6016.9	
532.6	6215.6	
532.79	8505.9	
532.99	8044.4	
533.18	6255.9	
533.38	6976.1	
533.58	7871	
533.77	8314.8	
533.97	6321.4	
534.16	6819.7	
534.36	8477.9	
534.55	7808.2	
534.75	6960.4	
534.95	6428.6	
535.14	8484.7	
535.34	7844.4	
535.53	6173.9	
535.73	7407.5	
535.92	8861.6	
536.12	7963.9	
536.31	6290.7	
536.51	7008.8	
536.71	8243.8	
536.9	7958.4	
537.1	6280.4	
537.29	6413.6	
537.49	8450.6	
537.68	7798	
537.88	6713.2	
538.07	6047.7	
538.27	7968.6	
538.46	8626.7	
538.66	6139.1	
538.86	6419.7	
539.05	8106.5	
539.25	8239.7	
539.44	6643.6	
539.64	6371.2	
539.83	8020.5	
540.03	8651.3	
540.22	6238.1	
540.42	6426.5	
540.61	8146.8	
540.81	8228.7	
541	6634.1	
541.2	6897.6	
541.39	7784.3	
541.59	8041.7	
541.78	6858.6	
541.98	6296.8	
542.18	7626.6	
542.37	7610.9	
542.57	6549.4	
542.76	6879.1	
542.96	7804.1	
543.15	8056	
543.35	6534.4	
543.54	6163	
543.74	8028.7	
543.93	7959.8	
544.13	6518	
544.32	7275.8	
544.52	8275.2	
544.71	7651.9	
544.91	6001.9	
545.1	6608.8	
545.3	7692.9	
545.49	8000.7	
545.69	5844.2	
545.88	6234.7	
546.08	8811	
546.27	8389.2	
546.47	6580.1	
546.66	6106.4	
546.86	8311.3	
547.05	8512	
547.24	6223.1	
547.44	6216.3	
547.63	7555	
547.83	8151.6	
548.02	6469.5	
548.22	6473.6	
548.41	7462.8	
548.61	8357.1	
548.8	6140.5	
549	6189	
549.19	7976.2	
549.39	8116.1	
549.58	5889.3	
549.78	6297.5	
549.97	8168	
550.17	7859.4	
550.36	6810.2	
550.55	7516	
550.75	7808.2	
550.94	8406.9	
551.14	6085.2	
551.33	6337.8	
551.53	7274.4	
551.72	7987.8	
551.92	6259.3	
552.11	6156.2	
552.31	8139.3	
552.5	7993.2	
552.69	7182.9	
552.89	5886.5	
553.08	8088.1	
553.28	7829.4	
553.47	6210.8	
553.67	6803.4	
553.86	8356.4	
554.06	7344.7	
554.25	5669.5	
554.44	5986.2	
554.64	8856.8	
554.83	8499.1	
555.03	6014.2	
555.22	6226.5	
555.42	8153	
555.61	7854.6	
555.8	6090	
556	6248.4	
556.19	7363.1	
556.39	8106.5	
556.58	6087.9	
556.78	6242.2	
556.97	7882.6	
557.16	7571.3	
557.36	6894.1	
557.55	5940.5	
557.75	7271	
557.94	8350.3	
558.13	5949.3	
558.33	5892.7	
558.52	8223.3	
558.72	7366.5	
558.91	5956.9	
559.1	6064.7	
559.3	7354.3	
559.49	7136.5	
559.69	5823.7	
559.88	6237.4	
560.07	7801.4	
560.27	8086.7	
560.46	6382.8	
560.66	6532.3	
560.85	7717.4	
561.04	7128.3	
561.24	5864.7	
561.43	5997.1	
561.63	7313.3	
561.82	7554.3	
562.01	6677.1	
562.21	6128.2	
562.4	7770.7	
562.59	8357.1	
562.79	6168.5	
562.98	5864.7	
563.18	7755.7	
563.37	8649.9	
563.56	6331.6	
563.76	5930.2	
563.95	7397.3	
564.14	7406.1	
564.34	6153.5	
564.53	5962.3	
564.73	7771.4	
564.92	7942	
565.11	6262	
565.31	5793	
565.5	8162.5	
565.69	7377.5	
565.89	6036.7	
566.08	6178.7	
566.27	7929.1	
566.47	8383	
566.66	6632.7	
566.85	5750.7	
567.05	8028	
567.24	7535.8	
567.44	5942.5	
567.63	6800.6	
567.82	7972.7	
568.02	7799.3	
568.21	5967.1	
568.4	6266.1	
568.6	7772.7	
568.79	7620.5	
568.98	5936.4	
569.18	5910.4	
569.37	7688.8	
569.56	8921.6	
569.76	6313.2	
569.95	6822.5	
570.14	7996.6	
570.34	7946.1	
570.53	5983.5	
570.72	5925.5	
570.91	8256	
571.11	7761.1	
571.3	6255.9	
571.49	6832	
571.69	7876.5	
571.88	7438.9	
572.07	6536.4	
572.27	6606.1	
572.46	7453.9	
572.65	8002.1	
572.85	6130.9	
573.04	6238.1	
573.23	8295.6	
573.43	7800.7	
573.62	5959.6	
573.81	6362.4	
574	7957	
574.2	7693.5	
574.39	6217	
574.58	6316.6	
574.78	8447.9	
574.97	7948.8	
575.16	6509.1	
575.36	6583.5	
575.55	8274.5	
575.74	8284	
575.93	6002.6	
576.13	6781.5	
576.32	7950.9	
576.51	8270.4	
576.71	6400.6	
576.9	7086	
577.09	8505.9	
577.28	8140.7	
577.48	6655.9	
577.67	5977.3	
577.86	7949.5	
578.05	8119.5	
578.25	6478.4	
578.44	6466.1	
578.63	7953.6	
578.83	8682.7	
579.02	6124.8	
579.21	7033.4	
579.4	8086.1	
579.6	7918.1	
579.79	6531	
579.98	7844.4	
580.17	8331.1	
580.37	8448.6	
580.56	6309.1	
580.75	6756.9	
580.94	8537.3	
581.14	8544.1	
581.33	6848.4	
581.52	6277.7	
581.71	8230.8	
581.91	8677.2	
582.1	6228.6	
582.29	6380.8	
582.48	7990.5	
582.68	8056.7	
582.87	6752.8	
583.06	6582.2	
583.25	8380.3	
583.45	7897	
583.64	7011.6	
583.83	7301	
584.02	8093.6	
584.21	8305.9	
584.41	6959.7	
584.6	6554.9	
584.79	8191.2	
584.98	8531.8	
585.18	6297.5	
585.37	6221.7	
585.56	7918.1	
585.75	8344.1	
585.94	6380.1	
586.14	6887.3	
586.33	8685.4	
586.52	8107.9	
586.71	6708.5	
586.91	6486.6	
587.1	7688.8	
587.29	8380.3	
587.48	6488.6	
587.67	6453.8	
587.87	8380.3	
588.06	8209.6	
588.25	7181.5	
588.44	6724.8	
588.63	8007.6	
588.83	8339.3	
589.02	6479.1	
589.21	6285.2	
589.4	7911.3	
589.59	7855.3	
589.78	5953.4	
589.98	6070.9	
590.17	7552.2	
590.36	7919.5	
590.55	5612.1	
590.74	6081.8	
590.94	8497.7	
591.13	7691.5	
591.32	5888.6	
591.51	5625.8	
591.7	7881.3	
591.89	7597.3	
592.09	5644.9	
592.28	5917.9	
592.47	7083.2	
592.66	8394.6	
592.85	5789.6	
593.05	5864.7	
593.24	7651.2	
593.43	8111.3	
593.62	5870.2	
593.81	6242.2	
594	7682.6	
594.19	7666.2	
594.39	5904.3	
594.58	5740.5	
594.77	7833.5	
594.96	8207.6	
595.15	5840.8	
595.34	6210.8	
595.54	7786.4	
595.73	7238.2	
595.92	5435.3	
596.11	6065.4	
596.3	8065.6	
596.49	7295.5	
596.68	5908.4	
596.88	6165.1	
597.07	7817.1	
597.26	7109.9	
597.45	5670.1	
597.64	6394.4	
597.83	7419.8	
598.02	7716.1	
598.22	5696.8	
598.41	6060.6	
598.6	7589.8	
598.79	7225.2	
598.98	5732.9	
599.17	6275.7	
599.36	7658.7	
599.55	8177.5	
599.74	6914.6	
599.94	6806.8	
600.13	7940.7	
600.32	7241.6	
600.51	5486.5	
600.7	5604.6	
600.89	8249.9	
601.08	8375.5	
601.27	5482.4	
601.47	6023.8	
601.66	7802.1	
601.85	8221.2	
602.04	5976	
602.23	5974.6	
602.42	7181.5	
602.61	7623.9	
602.8	5883.1	
602.99	5663.3	
603.18	7458.7	
603.37	7537.9	
603.57	6113.2	
603.76	6350.1	
603.95	8094.3	
604.14	7744.7	
604.33	5754.1	
604.52	5945.3	
604.71	7633.5	
604.9	7292.1	
605.09	6243.6	
605.28	6152.1	
605.47	7981.6	
605.66	7575.4	
605.86	6040.1	
606.05	5778.7	
606.24	8014.4	
606.43	6897.6	
606.62	5935.7	
606.81	6307.7	
607	7862.2	
607.19	7381.6	
607.38	5551.4	
607.57	5623	
607.76	7283.3	
607.95	6864.8	
608.14	6047	
608.33	6381.5	
608.52	7223.9	
608.72	7793.2	
608.91	5464	
609.1	5447.6	
609.29	7370	
609.48	7026.6	
609.67	6097.5	
609.86	5546.6	
610.05	7154.2	
610.24	7197.2	
610.43	5482.4	
610.62	5207.3	
610.81	7992.5	
611	7914.7	
611.19	5529.5	
611.38	5948.7	
611.57	7462.8	
611.76	8126.3	
611.95	5366.4	
612.14	5272.2	
612.33	7391.1	
612.52	6958.3	
612.71	5667.4	
612.9	5213.4	
613.09	6835.4	
613.28	8346.8	
613.47	5599.8	
613.66	6115.2	
613.85	7383.6	
614.04	7071.6	
614.24	5597.8	
614.43	5057.1	
614.62	7436.2	
614.81	7420.5	
615	5862	
615.19	5842.9	
615.38	7015.7	
615.57	7241.6	
615.76	5796.4	
615.95	6456.6	
616.14	7563.1	
616.33	7266.9	
616.52	6105.7	
616.71	6151.4	
616.9	7531.1	
617.09	7378.8	
617.28	5617.6	
617.47	6306.4	
617.66	6908.5	
617.85	6914.6	
618.04	6171.2	
618.22	5768.4	
618.41	7159	
618.6	7804.1	
618.79	5847.6	
618.98	5638.1	
619.17	8004.1	
619.36	6751.5	
619.55	5763.7	
619.74	5844.2	
619.93	7465.5	
620.12	7101.7	
620.31	6092.7	
620.5	6182.8	
620.69	7778.9	
620.88	8106.5	
621.07	6634.1	
621.26	5971.2	
621.45	7692.2	
621.64	7600	
621.83	6081.1	
622.02	5679.7	
622.21	7668.3	
622.4	7619.8	
622.59	6492.1	
622.78	6412.9	
622.97	7298.3	
623.16	7956.4	
623.35	6270.2	
623.54	5600.5	
623.72	7349.5	
623.91	7515.4	
624.1	6281.1	
624.29	5469.4	
624.48	8234.2	
624.67	7801.4	
624.86	6196.5	
625.05	5707	
625.24	8252.6	
625.43	7364.5	
625.62	7249.8	
625.81	5820.3	
626	7858.1	
626.19	7455.3	
626.38	6257.2	
626.56	5909.1	
626.75	7288	
626.94	7795.3	
627.13	6303	
627.32	5528.2	
627.51	7856.7	
627.7	8329.8	
627.89	5613.5	
628.08	6359.6	
628.27	7245	
628.46	7371.3	
628.65	5765.7	
628.83	5496.7	
629.02	7798.7	
629.21	7206.8	
629.4	5965.7	
629.59	6117.3	
629.78	7227.3	
629.97	7857.4	
630.16	6164.4	
630.35	5871.5	
630.54	8235.6	
630.72	7924.3	
630.91	5899.5	
631.1	6154.1	
631.29	7625.3	
631.48	7535.8	
631.67	6285.9	
631.86	5856.5	
632.05	7387.7	
632.24	7425.3	
632.42	5696.8	
632.61	5971.9	
632.8	7395.2	
632.99	7102.4	
633.18	6023.8	
633.37	6227.9	
633.56	7601.4	
633.75	7543.4	
633.93	6134.3	
634.12	5923.4	
634.31	8125	
634.5	7746.1	
634.69	5915.2	
634.88	6274.3	
635.07	7511.3	
635.25	7864.2	
635.44	6451.1	
635.63	6520.7	
635.82	7355.6	
636.01	6742.6	
636.2	6447	
636.39	6145.3	
636.57	8134.5	
636.76	7754.3	
636.95	5846.3	
637.14	6541.9	
637.33	7589.1	
637.52	8155	
637.7	5610.1	
637.89	6366.5	
638.08	7425.9	
638.27	8336.6	
638.46	6334.4	
638.65	6565.1	
638.83	8214.4	
639.02	7302.4	
639.21	6215.6	
639.4	6479.8	
639.59	7549.5	
639.78	7334.5	
639.96	5753.4	
640.15	5832.6	
640.34	7505.1	
640.53	7477.1	
640.72	5566.4	
640.91	5771.2	
641.09	7133.1	
641.28	7871.7	
641.47	5848.3	
641.66	6275.7	
641.85	7505.8	
642.03	7654.6	
642.22	6064	
642.41	5821	
642.6	7163.8	
642.79	6784.2	
642.97	5720.7	
643.16	6182.1	
643.35	7217	
643.54	6999.3	
643.73	5638.1	
643.91	6111.8	
644.1	6966.5	
644.29	7303.1	
644.48	5700.9	
644.67	5697.4	
644.85	6947.4	
645.04	7333.8	
645.23	5416.2	
645.42	5631.2	
645.6	6958.3	
645.79	7647.8	
645.98	5549.3	
646.17	5014.1	
646.36	6745.3	
646.54	7127.6	
646.73	6021.7	
646.92	5367.7	
647.11	6830	
647.29	7441	
647.48	5281	
647.67	5132.9	
647.86	7621.2	
648.05	7602.7	
648.23	5496.1	
648.42	6219.7	
648.61	7245.7	
648.8	7073.7	
648.98	5253	
649.17	5511.8	
649.36	6838.9	
649.55	6533.7	
649.73	5268.1	
649.92	5771.9	
650.11	6730.3	
650.3	6882.5	
650.48	5376.6	
650.67	5270.8	
650.86	7044.3	
651.05	6419.7	
651.23	5362.9	
651.42	5276.9	
651.61	6764.4	
651.79	6644.3	
651.98	5380.7	
652.17	5135.6	
652.36	7019.1	
652.54	6320	
652.73	5285.8	
652.92	5152.7	
653.11	7043.6	
653.29	7120.8	
653.48	4801.8	
653.67	5436.7	
653.85	6897.6	
654.04	7456	
654.23	5512.4	
654.42	5283.8	
654.6	6518	
654.79	6873.7	
654.98	4961.5	
655.16	5254.4	
655.35	6380.1	
655.54	6103.6	
655.73	4823.6	
655.91	4776.5	
656.1	6781.5	
656.29	6018.3	
656.47	4554	
656.66	5618.9	
656.85	6262.7	
657.03	6313.2	
657.22	4913.1	
657.41	4961.5	
657.59	6350.1	
657.78	6285.2	
657.97	4735.6	
658.16	5178.6	
658.34	6849.1	
658.53	7090.8	
658.72	5760.9	
658.9	5965.1	
659.09	6606.1	
659.28	6604.7	
659.46	5077.6	
659.65	4963.6	
659.84	6381.5	
660.02	6781.5	
660.21	5074.2	
660.4	4939.7	
660.58	7031.4	
660.77	6519.4	
660.96	5394.3	
661.14	4684.4	
661.33	7268.2	
661.52	7171.3	
661.7	4724	
661.89	6810.2	
662.08	6395.1	
662.26	6040.8	
662.45	4837.3	
662.64	4918.5	
662.82	6800.6	
663.01	6333	
663.2	4968.4	
663.38	5410.7	
663.57	6716.7	
663.75	6577.4	
663.94	5030.5	
664.13	5890.6	
664.31	6385.6	
664.5	6793.8	
664.69	5261.2	
664.87	5601.9	
665.06	6255.9	
665.25	6533.7	
665.43	5756.8	
665.62	5686.5	
665.8	6776.7	
665.99	6365.8	
666.18	5147.2	
666.36	5166.3	
666.55	6801.3	
666.74	6651.1	
666.92	4879.6	
667.11	5888.6	
667.29	6509.1	
667.48	6731	
667.67	5702.9	
667.85	5044.8	
668.04	6407.4	
668.22	6254.5	
668.41	5187.5	
668.6	5341.1	
668.78	6249.7	
668.97	6410.1	
669.15	5331.5	
669.34	4680.3	
669.53	6306.4	
669.71	6520.7	
669.9	4842.8	
670.08	5168.4	
670.27	6147.3	
670.46	6607.4	
670.64	5345.9	
670.83	5509	
671.01	6038.8	
671.2	6468.2	
671.38	4911	
671.57	4758.8	
671.76	6971.3	
671.94	7218.4	
672.13	4767	
672.31	5443.5	
672.5	6737.8	
672.69	6262.7	
672.87	4824.3	
673.06	5036	
673.24	6556.2	
673.43	6309.8	
673.61	5302.2	
673.8	4960.2	
673.98	6675	
674.17	6740.5	
674.36	5403.9	
674.54	5328.8	
674.73	6434.7	
674.91	6725.5	
675.1	5102.9	
675.28	4836.6	
675.47	6358.3	
675.65	6713.9	
675.84	5026.4	
676.03	5143.8	
676.21	6319.3	
676.4	5802.6	
676.58	5447.6	
676.77	5346.6	
676.95	7247.8	
677.14	6201.9	
677.32	4785.4	
677.51	4678.2	
677.69	6683.2	
677.88	6117.3	
678.06	4791.6	
678.25	4797	
678.44	6326.2	
678.62	6171.2	
678.81	4691.9	
678.99	5239.4	
679.18	6834.8	
679.36	6597.9	
679.55	5029.1	
679.73	5328.1	
679.92	6612.2	
680.1	6245.6	
680.29	5711.1	
680.47	4983.4	
680.66	6260	
680.84	6683.2	
681.03	4562.9	
681.21	5251	
681.4	6126.8	
681.58	6125.5	
681.77	4844.8	
681.95	4807.9	
682.14	6709.1	
682.32	6858.6	
682.51	5425.1	
682.69	4661.2	
682.88	6100.9	
683.06	6462	
683.25	5152.7	
683.43	5369.8	
683.62	6432	
683.8	6539.8	
683.99	5552	
684.17	5016.8	
684.36	7139.9	
684.54	6305	
684.73	4659.1	
684.91	4713.1	
685.1	6513.9	
685.28	6077.7	
685.46	5061.2	
685.65	5025	
685.83	6504.3	
686.02	6107.7	
686.2	4568.3	
686.39	4651.6	
686.57	5825.8	
686.76	6771.9	
686.94	4633.2	
687.13	4747.9	
687.31	6317.3	
687.5	6126.2	
687.68	4318.5	
687.86	5001.1	
688.05	7206.8	
688.23	5737	
688.42	5190.2	
688.6	4657.1	
688.79	6023.1	
688.97	5948	
689.16	4945.2	
689.34	4264.6	
689.52	6508.4	
689.71	6567.8	
689.89	5140.4	
690.08	4713.1	
690.26	6311.8	
690.45	6057.9	
690.63	5188.9	
690.81	4838.7	
691	6262.7	
691.18	6007.4	
691.37	4984.1	
691.55	6184.2	
691.74	5982.1	
691.92	7162.4	
692.1	4820.2	
692.29	4495.3	
692.47	6228.6	
692.66	5719.3	
692.84	4570.4	
693.02	4922.6	
693.21	5748	
693.39	6174.6	
693.58	5083.7	
693.76	4638.6	
693.94	6809.5	
694.13	6621.1	
694.31	4629.8	
694.5	5314.5	
694.68	5957.5	
694.86	6222.4	
695.05	4882.4	
695.23	5138.4	
695.42	6415.6	
695.6	7763.8	
695.78	5295.4	
695.97	4743.1	
696.15	6477.7	
696.34	6043.6	
696.52	4663.9	
696.7	5122.7	
696.89	6383.5	
697.07	5866.7	
697.25	5025	
697.44	5888.6	
697.62	6363.7	
697.81	6400.6	
697.99	4904.2	
698.17	5195.7	
698.36	5974.6	
698.54	6292	
698.72	5085.1	
698.91	4416.1	
699.09	6086.6	
699.28	5871.5	
699.46	4857.8	
699.64	4659.8	
699.83	5883.1	
700.01	6433.4	
700.19	5193.6	
700.38	4285	
700.56	6524.8	
700.74	5849	
700.93	4386.1	
701.11	4977.9	
701.29	6265.4	
701.48	6927.6	
701.66	4610.7	
701.84	4693.3	
702.03	5959.6	
702.21	6447	
702.39	4387.4	
702.58	4769	
702.76	6328.9	
702.94	6280.4	
703.13	4354.7	
703.31	5854.5	
703.49	5827.8	
703.68	6455.2	
703.86	4451.6	
704.04	5087.8	
704.23	6189	
704.41	6400.6	
704.59	4588.1	
704.78	5272.2	
704.96	7197.2	
705.14	6312.5	
705.33	4493.2	
705.51	4849.6	
705.69	5986.9	
705.87	6500.3	
706.06	5006.6	
706.24	4369.7	
706.42	6188.3	
706.61	6242.2	
706.79	5126.1	
706.97	4392.9	
707.16	5857.9	
707.34	6244.3	
707.52	5016.8	
707.7	4521.2	
707.89	5924.8	
708.07	5647.6	
708.25	5020.9	
708.44	5135.6	
708.62	5848.3	
708.8	6496.8	
708.98	5117.2	
709.17	4599.1	
709.35	6042.9	
709.53	6061.3	
709.72	4323.3	
709.9	4453.6	
710.08	6369.9	
710.26	6320	
710.45	5357.5	
710.63	4536.9	
710.81	5962.3	
710.99	5976.7	
711.18	4924.7	
711.36	4565.6	
711.54	5918.6	
711.72	6386.2	
711.91	4650.9	
712.09	4328	
712.27	6006	
712.45	6561.7	
712.64	4735.6	
712.82	4108.2	
713	5630.5	
713.18	5752.1	
713.37	4173.8	
713.55	4913.1	
713.73	6199.2	
713.91	5413.5	
714.1	4434.5	
714.28	4136.9	
714.46	6003.3	
714.64	5509.7	
714.83	3749.8	
715.01	4173.8	
715.19	5556.1	
715.37	5008	
715.55	3892.5	
715.74	4115.7	
715.92	5982.8	
716.1	4612	
716.28	4824.3	
716.47	4144.4	
716.65	5262.6	
716.83	5196.4	
717.01	4029	
717.19	4006.5	
717.38	6475.7	
717.56	4965	
717.74	4215.4	
717.92	3660.4	
718.1	5737.7	
718.29	5213.4	
718.47	3394.8	
718.65	3815.4	
718.83	5655.8	
719.01	5644.9	
719.2	3401	
719.38	4058.4	
719.56	5469.4	
719.74	6393.8	
719.92	3866.6	
720.11	4489.1	
720.29	5562.3	
720.47	4967	
720.65	3578.5	
720.83	4102.8	
721.02	5263.3	
721.2	5093.3	
721.38	4046.8	
721.56	3598.3	
721.74	4733.5	
721.92	4766.3	
722.11	4328	
722.29	4127.3	
722.47	5553.4	
722.65	5011.4	
722.83	3614	
723.01	4052.2	
723.2	5032.5	
723.38	5326.8	
723.56	3272.7	
723.74	3960.8	
723.92	4775.9	
724.1	5438.7	
724.29	3538.9	
724.47	4230.4	
724.65	4926	
724.83	4756.1	
725.01	3472	
725.19	3953.3	
725.37	4769	
725.56	4694.6	
725.74	3374.4	
725.92	3506.1	
726.1	4767	
726.28	4931.5	
726.46	3723.9	
726.64	3556	
726.83	4953.4	
727.01	5048.2	
727.19	3297.2	
727.37	3848.1	
727.55	5025.7	
727.73	5297.4	
727.91	3274	
728.09	3234.4	
728.28	5366.4	
728.46	5481.7	
728.64	3883.6	
728.82	3845.4	
729	5956.9	
729.18	5511.8	
729.36	3342.3	
729.54	4753.3	
729.72	6084.5	
729.91	5046.2	
730.09	4528.7	
730.27	3751.9	
730.45	5006.6	
730.63	5372.5	
730.81	4100	
730.99	3508.2	
731.17	5738.4	
731.35	4858.5	
731.53	3807.2	
731.71	3611.9	
731.9	5515.9	
732.08	5567.1	
732.26	3768.3	
732.44	3512.3	
732.62	5657.9	
732.8	5292.6	
732.98	4066.6	
733.16	3389.4	
733.34	5324.7	
733.52	4414.7	
733.7	3741.6	
733.88	3863.2	
734.07	5215.5	
734.25	5052.3	
734.43	3470.6	
734.61	4321.2	
734.79	5995.8	
734.97	4974.5	
735.15	3508.2	
735.33	3687	
735.51	5242.1	
735.69	4968.4	
735.87	4320.5	
736.05	3751.9	
736.23	5048.2	
736.41	4846.2	
736.59	3657	
736.77	3717.1	
736.95	5361.6	
737.13	4906.9	
737.32	3439.2	
737.5	3599.6	
737.68	5657.2	
737.86	4874.2	
738.04	3302	
738.22	4446.8	
738.4	4815.5	
738.58	5031.9	
738.76	3710.9	
738.94	3085.6	
739.12	4876.2	
739.3	4793.6	
739.48	4073.4	
739.66	3892.5	
739.84	5066.7	
740.02	4939.7	
740.2	3148.4	
740.38	3311.6	
740.56	5215.5	
740.74	4469.4	
740.92	3781.2	
741.1	3661.8	
741.28	4859.8	
741.46	4679.6	
741.64	3443.3	
741.82	3827	
742	4917.9	
742.18	4754.7	
742.36	3599	
742.54	3341.6	
742.72	5229.8	
742.9	4397	
743.08	3814.7	
743.26	3031	
743.44	5242.1	
743.62	5212.1	
743.8	3883.6	
743.98	3316.3	
744.16	5115.1	
744.34	4863.9	
744.52	3784	
744.7	3781.9	
744.88	5149.3	
745.06	4848.9	
745.24	3868.6	
745.42	3906.8	
745.6	5213.4	
745.78	5098.8	
745.96	3159.3	
746.14	3330.7	
746.32	5694	
746.5	5094.7	
746.68	3628.3	
746.86	3309.5	
747.03	5379.3	
747.21	4427.7	
747.39	3678.8	
747.57	3291.8	
747.75	4861.9	
747.93	5029.8	
748.11	3321.1	
748.29	3248.8	
748.47	5995.8	
748.65	4735.6	
748.83	3760.8	
749.01	3585.3	
749.19	5092.6	
749.37	4442	
749.55	3504.8	
749.73	3566.2	
749.91	4911.7	
750.09	4762.2	
750.26	3505.4	
750.44	3212.6	
750.62	4868	
750.8	4785.4	
750.98	3160	
751.16	3288.4	
751.34	4956.1	
751.52	4478.9	
751.7	3811.3	
751.88	3102.7	
752.06	5228.5	
752.24	5013.4	
752.42	3093.8	
752.59	3313.6	
752.77	4882.4	
752.95	5575.9	
753.13	3833.8	
753.31	3371.6	
753.49	4641.4	
753.67	4890.5	
753.85	3605.8	
754.03	3250.1	
754.21	5134.3	
754.38	5335	
754.56	3420.1	
754.74	2854.9	
754.92	4646.8	
755.1	5003.9	
755.28	2846.7	
755.46	2859	
755.64	5617.6	
755.82	5672.2	
755.99	3076	
756.17	3175	
756.35	4083.6	
756.53	5002.5	
756.71	2484.9	
756.89	3280.2	
757.07	4777.9	
757.25	4254.3	
757.42	3358.7	
757.6	3955.3	
757.78	4782.7	
757.96	4206.5	
758.14	3198.2	
758.32	2856.9	
758.5	3891.1	
758.67	4442	
758.85	3061.7	
759.03	3118.4	
759.21	4551.3	
759.39	4206.5	
759.57	2785.2	
759.75	3494.5	
759.92	5027.1	
760.1	4595	
760.28	3743	
760.46	3872	
760.64	4413.4	
760.82	4336.2	
760.99	3594.9	
761.17	3115	
761.35	4961.5	
761.53	4244.1	
761.71	3272	
761.89	3616.7	
762.06	4810.7	
762.24	4478.9	
762.42	3285.6	
762.6	3043.3	
762.78	4453	
762.96	4853.7	
763.13	3489.7	
763.31	3192.1	
763.49	4892.6	
763.67	4492.6	
763.85	3728.7	
764.02	4064.5	
764.2	5175.2	
764.38	4515.8	
764.56	3157.3	
764.74	3682.9	
764.91	5137	
765.09	4407.2	
765.27	2962.7	
765.45	2799.6	
765.63	5255.1	
765.8	5036.6	
765.98	2757.2	
766.16	2908.8	
766.34	4215.4	
766.52	4059.1	
766.69	3495.9	
766.87	2783.9	
767.05	4540.3	
767.23	4998.4	
767.41	3024.2	
767.58	3160	
767.76	4926	
767.94	4891.9	
768.12	3087.7	
768.29	3461.7	
768.47	4467.3	
768.65	4976.6	
768.83	2816.6	
769	3495.9	
769.18	4314.4	
769.36	4697.4	
769.54	3514.3	
769.72	2839.8	
769.89	4926	
770.07	4891.9	
770.25	3130.7	
770.43	3867.9	
770.6	5421	
770.78	5558.2	
770.96	3162.7	
771.14	3562.1	
771.31	4909.7	
771.49	4518.5	
771.67	2691	
771.85	2818.7	
772.02	3976.5	
772.2	4442.7	
772.38	3337.5	
772.55	2932.7	
772.73	4693.9	
772.91	4484.4	
773.09	3241.3	
773.26	3290.4	
773.44	4630.5	
773.62	4422.9	
773.8	2966.8	
773.97	2746.3	
774.15	4694.6	
774.33	4463.2	
774.5	2855.6	
774.68	3050.1	
774.86	4779.3	
775.04	4471.4	
775.21	2876	
775.39	2876	
775.57	4659.1	
775.74	4784.1	
775.92	2783.2	
776.1	2676	
776.27	4585.4	
776.45	5364.3	
776.63	2918.4	
776.81	2673.3	
776.98	4429.8	
777.16	5066	
777.34	2960	
777.51	3147	
777.69	4476.9	
777.87	4207.2	
778.04	3140.9	
778.22	3352.5	
778.4	4288.4	
778.57	4682.3	
778.75	2620.7	
778.93	2742.9	
779.1	4198.3	
779.28	3969	
779.46	2621.4	
779.64	2921.1	
779.81	4814.8	
779.99	5325.4	
780.17	3355.3	
780.34	3439.9	
780.52	4530.1	
780.69	4507.6	
780.87	3112.2	
781.05	2827.6	
781.22	4563.6	
781.4	4457.7	
781.58	3028.9	
781.75	2420.7	
781.93	4589.5	
782.11	4004.5	
782.28	3551.9	
782.46	2911.5	
782.64	4031.8	
782.81	4601.1	
782.99	3075.4	
783.17	2960.7	
783.34	4544.4	
783.52	4174.4	
783.69	3046	
783.87	3571.7	
784.05	4182	
784.22	4074.8	
784.4	3610.6	
784.58	3149.8	
784.75	4803.9	
784.93	4243.4	
785.1	2911.5	
785.28	3321.1	
785.46	4653.7	
785.63	4102.1	
785.81	2932.7	
785.99	2824.8	
786.16	4330.8	
786.34	4542.4	
786.51	2874	
786.69	3111.5	
786.87	3971.7	
787.04	4341	
787.22	2812.5	
787.39	3343.7	
787.57	4128	
787.75	4815.5	
787.92	3600.3	
788.1	3452.2	
788.27	4082.3	
788.45	3891.8	
788.63	3263.8	
788.8	2423.4	
788.98	4451.6	
789.15	3848.1	
789.33	2567.5	
789.5	2905.4	
789.68	4663.9	
789.86	4810.7	
790.03	3207.1	
790.21	2892.4	
790.38	4805.9	
790.56	4204.5	
790.73	2843.9	
790.91	2767.5	
791.09	4126.7	
791.26	4603.2	
791.44	2973.7	
791.61	2557.9	
791.79	4190.8	
791.96	4113	
792.14	2671.9	
792.32	2447.3	
792.49	4097.3	
792.67	4206.5	
792.84	2766.8	
793.02	2648	
793.19	4739	
793.37	4927.4	
793.54	2396.1	
793.72	2658.9	
793.89	4919.2	
794.07	4092.5	
794.25	3034.4	
794.42	2512.9	
794.6	4834.6	
794.77	4507.6	
794.95	3183.2	
795.12	2803	
795.3	4150.5	
795.47	4507.6	
795.65	3069.2	
795.82	2988	
796	4059.8	
796.17	5174.5	
796.35	2882.2	
796.52	3405.1	
796.7	4522.6	
796.87	4588.8	
797.05	2887	
797.22	3423.5	
797.4	4609.3	
797.57	5148.6	
797.75	2981.8	
797.92	2878.8	
798.1	4764.3	
798.27	4045.4	
798.45	2529.9	
798.62	2665.8	
798.8	4408.6	
798.97	4683.7	
799.15	3084.2	
799.32	3054.2	
799.5	3915	
799.67	4294.6	
799.85	3234.4	
800.02	2457.6	
800.2	4170.3	
800.37	4288.4	
800.55	3322.5	
800.72	2839.8	
800.9	4687.8	
801.07	4872.1	
801.25	3693.9	
801.42	3031	
801.6	4722.6	
801.77	4360.1	
801.95	2903.3	
802.12	2794.8	
802.29	4515.8	
802.47	4418.2	
802.64	3073.3	
802.82	2426.8	
802.99	4171	
803.17	4714.4	
803.34	2967.5	
803.52	2752.5	
803.69	5075.5	
803.87	4020.8	
804.04	2994.8	
804.21	2997.5	
804.39	4876.9	
804.56	4214	
804.74	2609.1	
804.91	3080.8	
805.09	4147.1	
805.26	4188.1	
805.44	2693.1	
805.61	2832.3	
805.78	4582.7	
805.96	4471.4	
806.13	3056.9	
806.31	3295.9	
806.48	3856.3	
806.66	4194.2	
806.83	3095.8	
807	3047.4	
807.18	4222.2	
807.35	4386.1	
807.53	3039.2	
807.7	2563.4	
807.87	4900.8	
808.05	4163.5	
808.22	3235.8	
808.4	2495.1	
808.57	4072.7	
808.74	3963.5	
808.92	2852.8	
809.09	3446	
809.27	4169	
809.44	4502.1	
809.61	2510.1	
809.79	2751.8	
809.96	5010.7	
810.14	4572.4	
810.31	2448.7	
810.48	3196.9	
810.66	4168.3	
810.83	4655.7	
811.01	2867.2	
811.18	3036.5	
811.35	4652.3	
811.53	3729.4	
811.7	3262.4	
811.87	3091.8	
812.05	4256.4	
812.22	4163.5	
812.39	2768.9	
812.57	2646.7	
812.74	4250.2	
812.92	5216.2	
813.09	2936.1	
813.26	3073.3	
813.44	5036	
813.61	4070.7	
813.78	2517	
813.96	3194.8	
814.13	4183.3	
814.3	4027	
814.48	3432.4	
814.65	2891	
814.82	5030.5	
815	3926	
815.17	2975.7	
815.34	3499.3	
815.52	4089.1	
815.69	4149.9	
815.87	2936.1	
816.04	2887	
816.21	4179.2	
816.38	3846.8	
816.56	2912.2	
816.73	2681.5	
816.9	5115.8	
817.08	4573.8	
817.25	2740.2	
817.42	3273.3	
817.6	3924.6	
817.77	4120.5	
817.94	3056.3	
818.12	2742.9	
818.29	4029	
818.46	5581.4	
818.64	2806.4	
818.81	2638.5	
818.98	4063.9	
819.16	5290.6	
819.33	3161.4	
819.5	3007.1	
819.67	4395.6	
819.85	4846.2	
820.02	2941.6	
820.19	3106.1	
820.37	4323.3	
820.54	4096.6	
820.71	3019.4	
820.88	3661.8	
821.06	4367.6	
821.23	4006.5	
821.4	3080.1	
821.58	2988.7	
821.75	4591.5	
821.92	4275.5	
822.09	2556.5	
822.27	2673.3	
822.44	4193.6	
822.61	4118.5	
822.79	2538.8	
822.96	4449.6	
823.13	4332.8	
823.3	3919.1	
823.48	2878.1	
823.65	2618	
823.82	4668.7	
823.99	3904.1	
824.17	3509.5	
824.34	2609.8	
824.51	5236.7	
824.68	4242.7	
824.86	2755.9	
825.03	3035.1	
825.2	4186.7	
825.37	4786.8	
825.55	2728.6	
825.72	2964.1	
825.89	5172.5	
826.06	4906.3	
826.24	2949.1	
826.41	2971.6	
826.58	4949.3	
826.75	4330.8	
826.92	2429.6	
827.1	2652.8	
827.27	6287.9	
827.44	5104.2	
827.61	2824.1	
827.79	3304.7	
827.96	4094.6	
828.13	4130.1	
828.3	2955.2	
828.47	2460.3	
828.65	4453.6	
828.82	4342.4	
828.99	3577.8	
829.16	3156.6	
829.34	4709	
829.51	4571.1	
829.68	2974.3	
829.85	2992.1	
830.02	4980.7	
830.2	4660.5	
830.37	2401.6	
830.54	3375.7	
830.71	5190.9	
830.88	4273.4	
831.05	2390	
831.23	2721.1	
831.4	5055.1	
831.57	5326.1	
831.74	2751.1	
831.91	2524.5	
832.09	4511	
832.26	4666.6	
832.43	2858.3	
832.6	3113.6	
832.77	4469.4	
832.94	4915.1	
833.12	2339.5	
833.29	2823.5	
833.46	4495.3	
833.63	5534.3	
833.8	3045.3	
833.97	2823.5	
834.15	4709.6	
834.32	4600.4	
834.49	2983.2	
834.66	3020.1	
834.83	4726	
835	4106.9	
835.17	2781.1	
835.35	2724.5	
835.52	4612.7	
835.69	4540.3	
835.86	2872.6	
836.03	2471.9	
836.2	4710.3	
836.37	4390.2	
836.55	2832.3	
836.72	2688.3	
836.89	4405.9	
837.06	4715.8	
837.23	2880.1	
837.4	3044	
837.57	5164.3	
837.75	5547.3	
837.92	2687.6	
838.09	2728.6	
838.26	4367	
838.43	4790.9	
838.6	2932.7	
838.77	2704.7	
838.94	5279	
839.11	5168.4	
839.29	2817.3	
839.46	2291	
839.63	4714.4	
839.8	4426.3	
839.97	2778.4	
840.14	2714.9	
840.31	4528.7	
840.48	4657.1	
840.65	2383.2	
840.82	2739.5	
841	4619.5	
841.17	4523.3	
841.34	2542.9	
841.51	2584.5	
841.68	4626.4	
841.85	4437.3	
842.02	2683.5	
842.19	2338.1	
842.36	4573.8	
842.53	4479.6	
842.7	2469.2	
842.87	3016.7	
843.05	5575.3	
843.22	4427.7	
843.39	2492.4	
843.56	2643.2	
843.73	4327.4	
843.9	4723.3	
844.07	3857.7	
844.24	3271.3	
844.41	6133	
844.58	4132.8	
844.75	2566.8	
844.92	2645.3	
845.09	4561.5	
845.26	4622.3	
845.43	2593.4	
845.6	2702	
845.77	4672.8	
845.94	4467.3	
846.12	2820.1	
846.29	2912.2	
846.46	4818.9	
846.63	4597	
846.8	2598.9	
846.97	2966.1	
847.14	4866.7	
847.31	4629.8	
847.48	2868.5	
847.65	3078.8	
847.82	4712.4	
847.99	4706.9	
848.16	3262.4	
848.33	3060.3	
848.5	4317.8	
848.67	4949.3	
848.84	2527.2	
849.01	2680.8	
849.18	4312.3	
849.35	4038.6	
849.52	3109.5	
849.69	2486.2	
849.86	4818.2	
850.03	4857.1	
850.2	2618	
850.37	3014.6	
850.54	4825	
850.71	4436.6	
850.88	3013.2	
851.05	2505.3	
851.22	4531.5	
851.39	4917.9	
851.56	2427.5	
851.73	2865.8	
851.9	4161.5	
852.07	4790.2	
852.24	2783.2	
852.41	2543.6	
852.58	4550.6	
852.75	4199	
852.92	2846	
853.09	2513.5	
853.26	4265.2	
853.43	4853	
853.6	2578.4	
853.77	2221.4	
853.94	4980	
854.11	4164.2	
854.28	3546.4	
854.44	2740.2	
854.61	5142.4	
854.78	4814.1	
854.95	2538.1	
855.12	3104.7	
855.29	3937.6	
855.46	5055.1	
855.63	2581.8	
855.8	3377.1	
855.97	4321.2	
856.14	4883.7	
856.31	3414	
856.48	2770.2	
856.65	4394.3	
856.82	4154	
856.99	2457.6	
857.16	2708.1	
857.33	5354.1	
857.49	4412	
857.66	2729.9	
857.83	2926.5	
858	4443.4	
858.17	4542.4	
858.34	2408.4	
858.51	2581.1	
858.68	5005.9	
858.85	4959.5	
859.02	2869.2	
859.19	3069.9	
859.36	4159.4	
859.52	4126.7	
859.69	2596.8	
859.86	2978.4	
860.03	4185.4	
860.2	4950.6	
860.37	2372.2	
860.54	2603	
860.71	4739.7	
860.88	4975.2	
861.05	2830.3	
861.21	3123.2	
861.38	4970.4	
861.55	4003.1	
861.72	2378.4	
861.89	2837.8	
862.06	4802.5	
862.23	5043.5	
862.4	2506.7	
862.56	2673.3	
862.73	4722.6	
862.9	4530.1	
863.07	2925.2	
863.24	2340.1	
863.41	4112.3	
863.58	4176.5	
863.75	2595.5	
863.91	2908.8	
864.08	4906.9	
864.25	4754.7	
864.42	3082.2	
864.59	3407.1	
864.76	5167.7	
864.93	4162.8	
865.09	2485.6	
865.26	2675.3	
865.43	4918.5	
865.6	5150.6	
865.77	2304	
865.94	2481.5	
866.1	4840	
866.27	4685.1	
866.44	3670	
866.61	2437.8	
866.78	4409.3	
866.95	4678.2	
867.11	2519	
867.28	2313.5	
867.45	4840	
867.62	4144.4	
867.79	2861.7	
867.96	2521	
868.12	4145.1	
868.29	4737	
868.46	2592.7	
868.63	3269.9	
868.8	4807.9	
868.97	4709.6	
869.13	2685.6	
869.3	2622.1	
869.47	4631.8	
869.64	4853	
869.81	2535.4	
869.97	2548.4	
870.14	4539.7	
870.31	4951.3	
870.48	2525.1	
870.65	3091.8	
870.81	4434.5	
870.98	4379.2	
871.15	2811.9	
871.32	2648	
871.48	4642.1	
871.65	5061.9	
871.82	2508.1	
871.99	2808.4	
872.16	5349.3	
872.32	4938.3	
872.49	2622.8	
872.66	2606.4	
872.83	4781.3	
872.99	4254.3	
873.16	2876.7	
873.33	2561.3	
873.5	4481.6	
873.67	4482.3	
873.83	2682.2	
874	3268.6	
874.17	4572.4	
874.34	5185.5	
874.5	3237.2	
874.67	3069.2	
874.84	4917.9	
875.01	4065.9	
875.17	3467.9	
875.34	2527.2	
875.51	4648.2	
875.68	5276.9	
875.84	2988.7	
876.01	3543.7	
876.18	4771.1	
876.34	4688.5	
876.51	2543.6	
876.68	2518.3	
876.85	4386.7	
877.01	4904.9	
877.18	3521.8	
877.35	2564.1	
877.52	4627.7	
877.68	4149.2	
877.85	2527.2	
878.02	2499.9	
878.18	4303.5	
878.35	4328.7	
878.52	2127.2	
878.69	2953.9	
878.85	4826.4	
879.02	4693.9	
879.19	3471.3	
879.35	2699.2	
879.52	4730.8	
879.69	4743.8	
879.86	2280.1	
880.02	2810.5	
880.19	4487.1	
880.36	5223	
880.52	2833.7	
880.69	2970.2	
880.86	4808.6	
881.02	4789.5	
881.19	2758.6	
881.36	2671.9	
881.52	4734.2	
881.69	4250.2	
881.86	2795.5	
882.02	2653.5	
882.19	4919.9	
882.36	5472.9	
882.52	2622.8	
882.69	3397.6	
882.86	4571.1	
883.02	4578.6	
883.19	3039.2	
883.36	2793.4	
883.52	4795	
883.69	5298.8	
883.86	2597.5	
884.02	2336.7	
884.19	4737.6	
884.36	4502.8	
884.52	2822.1	
884.69	2698.5	
884.86	4332.8	
885.02	5018.2	
885.19	2817.3	
885.36	2876	
885.52	4439.3	
885.69	4547.9	
885.86	3564.1	
886.02	3189.4	
886.19	4822.3	
886.35	4326.7	
886.52	2748.4	
886.69	3472	
886.85	4169.7	
887.02	4924	
887.19	4924	
887.35	4924	
887.52	4924	
887.68	4924	
887.85	4924	
888.02	4924	
888.18	4924	
888.35	4924	
888.51	4924	
888.68	4924	
888.85	4924	
889.01	4924	
889.18	4924	
889.35	4924	
889.51	4924	
889.68	4924	
889.84	4924	
890.01	4924	
890.17	4924	
890.34	4924	
890.51	4924	
890.67	4924	
890.84	4924	
891	4924	
891.17	4924	
891.34	4924	
891.5	4924	
891.67	4924	
891.83	4924	
892	4924	
892.16	4924	
892.33	4924	
892.5	4924	
892.66	4924	
892.83	4924	
892.99	4924	
893.16	4924	
893.32	4924	
893.49	4924	
893.65	4924	
893.82	4924	
893.99	4924	
894.15	4924	
894.32	4924	
894.48	4924	
894.65	4924	
894.81	4924	
894.98	4924	
895.14	4924	
895.31	4924	
895.47	4924	
895.64	4924	
895.81	4924	
895.97	4924	
896.14	4924	
896.3	4924	
896.47	4924	
896.63	4924	
896.8	4924	
896.96	4924	
897.13	4924	
897.29	4924	
897.46	4924	
897.62	4924	
897.79	4924	
897.95	4924	
898.12	4924	
898.28	4924	
898.45	4924	
898.61	4924	
898.78	4924	
898.94	4924	
899.11	4924	
899.27	4924	
899.44	4924	
899.6	4924	
899.77	4924	
899.93	4924	
900.1	4924	
900.26	4924	
900.43	4924	
900.59	4924	
900.76	4924	
900.92	4924	
901.09	4924	
901.25	4924	
901.42	4924	
901.58	4924	
901.75	4924	
901.91	4924	
902.07	4924	
902.24	4924	
902.4	4924	
902.57	4924	
902.73	4924	
902.9	4924	
903.06	4924	
903.23	4924	
903.39	4924	
903.56	4924	
903.72	4924	
903.88	4924	
904.05	4924	
904.21	4924	
904.38	4924	
904.54	4924	
904.71	4924	
904.87	4924	
905.03	4924	
905.2	4924	
905.36	4924	
905.53	4924	
905.69	4924	
905.86	4924	
906.02	4924	
906.18	4924	
906.35	4924	
906.51	4924	
906.68	4924	
906.84	4924	
907.01	4924	
907.17	4924	
907.33	4924	
907.5	4924	
907.66	4924	
907.83	4924	
907.99	4924	
908.15	4924	
908.32	4924	
908.48	4924	
908.65	4924	
908.81	4924	
908.97	4924	
909.14	4924	
909.3	4924	
909.47	4924	
909.63	4924	
909.79	4924	
909.96	4924	
910.12	4924	
910.28	4924	
910.45	4924	
910.61	4924	
910.78	4924	
910.94	4924	
911.1	4924	
911.27	4924	
911.43	4924	
911.59	4924	
911.76	4924	
911.92	4924	
912.08	4924	
912.25	4924	
912.41	4924	
912.57	4924	
912.74	4924	
912.9	4924	
913.07	4924	
913.23	4924	
913.39	4924	
913.56	4924	
913.72	4924	
913.88	4924	
914.05	4924	
914.21	4924	
914.37	4924	
914.54	4924	
914.7	4924	
914.86	4924	
915.03	4924	
915.19	4924	
