Wavelength	Intensities	
nm	a.u.	
179.22	1895.2	
179.44	1910.4	
179.65	1880	
179.86	1940.8	
180.08	1902.6	
180.29	4956.1	
180.51	3495.9	
180.72	5677	
180.94	6628.6	
181.15	3215.3	
181.37	3137.5	
181.58	5532.2	
181.79	5802.6	
182.01	3371	
182.22	3608.5	
182.44	5767.1	
182.65	4796.3	
182.87	4481	
183.08	4014	
183.29	6090	
183.51	5006.6	
183.72	3663.1	
183.94	5384.8	
184.15	5407.3	
184.37	5457.8	
184.58	3232.4	
184.79	4508.9	
185.01	5012.7	
185.22	5769.8	
185.44	4713.1	
185.65	3936.2	
185.86	5303.6	
186.08	4902.8	
186.29	3146.4	
186.51	3366.2	
186.72	5124.7	
186.94	6003.3	
187.15	3878.2	
187.36	4031.1	
187.58	7705.8	
187.79	5567.1	
188.01	4231.8	
188.22	6572.6	
188.43	6662.7	
188.65	5759.6	
188.86	3446.7	
189.08	4083.6	
189.29	5245.5	
189.5	5263.3	
189.72	3784.6	
189.93	3848.8	
190.15	5975.3	
190.36	7206.1	
190.57	4151.2	
190.79	3952.6	
191	6110.5	
191.22	6025.1	
191.43	4149.9	
191.64	3339.6	
191.86	6272.9	
192.07	6046.3	
192.29	3588.7	
192.5	3766.2	
192.71	6019.7	
192.93	5162.9	
193.14	3700	
193.35	3778.5	
193.57	5230.5	
193.78	5948.7	
194	3047.4	
194.21	3688.4	
194.42	4941.1	
194.64	5486.5	
194.85	4032.5	
195.07	4735.6	
195.28	5494.7	
195.49	4698	
195.71	4986.8	
195.92	3575.1	
196.13	5638.7	
196.35	5757.5	
196.56	5273.5	
196.78	4047.5	
196.99	7075.7	
197.2	6632.7	
197.42	4685.8	
197.63	4085	
197.84	4856.4	
198.06	5627.1	
198.27	3758	
198.48	5025	
198.7	5230.5	
198.91	5296	
199.13	4097.3	
199.34	4112.3	
199.55	5840.8	
199.77	4722.6	
199.98	3581.9	
200.19	4145.8	
200.41	5362.9	
200.62	5014.1	
200.83	4337.6	
201.05	4558.1	
201.26	5292	
201.47	5103.5	
201.69	3670.6	
201.9	3500.7	
202.11	5410.1	
202.33	6422.4	
202.54	3867.9	
202.76	4333.5	
202.97	5454.4	
203.18	5509.7	
203.4	4265.9	
203.61	4175.8	
203.82	5460.6	
204.04	5092.6	
204.25	4092.5	
204.46	4014.7	
204.68	5470.1	
204.89	5716.6	
205.1	3949.2	
205.32	3459.7	
205.53	5860.6	
205.74	5987.6	
205.96	2979.8	
206.17	4182.6	
206.38	5805.3	
206.6	5946.6	
206.81	4651.6	
207.02	3809.2	
207.24	5676.3	
207.45	6109.8	
207.66	3949.2	
207.88	3350.5	
208.09	5700.2	
208.3	5449	
208.52	3516.4	
208.73	3855.6	
208.94	5388.2	
209.15	6139.1	
209.37	3848.8	
209.58	4140.3	
209.79	5946.6	
210.01	5231.9	
210.22	3123.8	
210.43	3366.9	
210.65	5424.4	
210.86	5866.7	
211.07	3868.6	
211.29	3610.6	
211.5	5759.6	
211.71	5387.5	
211.93	3545	
212.14	3546.4	
212.35	5399.1	
212.56	5612.1	
212.78	4115.7	
212.99	3440.6	
213.2	6322.8	
213.42	5167.7	
213.63	3670	
213.84	3973.7	
214.06	4815.5	
214.27	4915.1	
214.48	3873.4	
214.69	4170.3	
214.91	6115.2	
215.12	6180.1	
215.33	4178.5	
215.55	4584.7	
215.76	6741.9	
215.97	5786.2	
216.18	4001.7	
216.4	3867.9	
216.61	5104.9	
216.82	5964.4	
217.04	3553.2	
217.25	3717.7	
217.46	6085.2	
217.67	5854.5	
217.89	3194.8	
218.1	3312.2	
218.31	5532.2	
218.53	5637.4	
218.74	3751.9	
218.95	3637.9	
219.16	5373.9	
219.38	6419.7	
219.59	3684.3	
219.8	4301.4	
220.01	7047.1	
220.23	5494.7	
220.44	4795.7	
220.65	3591.5	
220.87	5502.2	
221.08	6059.3	
221.29	3299.3	
221.5	4443.4	
221.72	7428	
221.93	5161.6	
222.14	4125.3	
222.35	4846.2	
222.57	5420.3	
222.78	5816.2	
222.99	3934.8	
223.2	4253.6	
223.42	5778	
223.63	5874.3	
223.84	3011.9	
224.05	3016.7	
224.27	6935.8	
224.48	6349.4	
224.69	4821.6	
224.9	4132.8	
225.12	5633.3	
225.33	5446.9	
225.54	3290.4	
225.75	3663.1	
225.97	5041.4	
226.18	5281	
226.39	3892.5	
226.6	3687	
226.82	5222.3	
227.03	5097.4	
227.24	4135.5	
227.45	3383.2	
227.67	5808.7	
227.88	6384.2	
228.09	4549.2	
228.3	4569	
228.52	5876.3	
228.73	5414.1	
228.94	3772.4	
229.15	3373.7	
229.36	5356.1	
229.58	5291.3	
229.79	3788.7	
230	4450.9	
230.21	6507.8	
230.43	5548.6	
230.64	4011.3	
230.85	4225	
231.06	5849.7	
231.28	5864.7	
231.49	3404.4	
231.7	3998.3	
231.91	5721.3	
232.12	5477.6	
232.34	3433.8	
232.55	3986	
232.76	6040.8	
232.97	5621.7	
233.18	3583.3	
233.4	4085.7	
233.61	5668.8	
233.82	5191.6	
234.03	3793.5	
234.25	3728	
234.46	7507.9	
234.67	5488.6	
234.88	4237.2	
235.09	3573.7	
235.31	5840.8	
235.52	5336.3	
235.73	4089.1	
235.94	3435.8	
236.15	5139.7	
236.37	6585.6	
236.58	3612.6	
236.79	3963.5	
237	5739.1	
237.21	4915.8	
237.43	4251.6	
237.64	3317.7	
237.85	9809.8	
238.06	5000.5	
238.27	4277.5	
238.48	3429.7	
238.7	5794.4	
238.91	5281.7	
239.12	3917.8	
239.33	3955.3	
239.54	5023.7	
239.76	5403.2	
239.97	3879.5	
240.18	3869.3	
240.39	6808.8	
240.6	5739.8	
240.82	4064.5	
241.03	3304.7	
241.24	5414.8	
241.45	6282.5	
241.66	3604.4	
241.87	4288.4	
242.09	6176.7	
242.3	6514.6	
242.51	4273.4	
242.72	3935.5	
242.93	5915.9	
243.14	5347.9	
243.36	4512.4	
243.57	4780	
243.78	6277	
243.99	5793.7	
244.2	3969.6	
244.41	3629.7	
244.63	4992.9	
244.84	5726.1	
245.05	4207.9	
245.26	3977.2	
245.47	5696.8	
245.68	6031.3	
245.9	5283.8	
246.11	4153.3	
246.32	5244.2	
246.53	5666.7	
246.74	6359.6	
246.95	3334.1	
247.16	4928.1	
247.38	5442.8	
247.59	3220.1	
247.8	3948.5	
248.01	5079.6	
248.22	5399.8	
248.43	3540.9	
248.64	3825.6	
248.86	4833.9	
249.07	5208.7	
249.28	3429.7	
249.49	4081.6	
249.7	5968.5	
249.91	6126.2	
250.12	3246.7	
250.34	3327.9	
250.55	5574.6	
250.76	5421.7	
250.97	4061.1	
251.18	4112.3	
251.39	6135.7	
251.6	5614.2	
251.81	4136.9	
252.03	4133.5	
252.24	5159.5	
252.45	5994.4	
252.66	3415.3	
252.87	4358.1	
253.08	5472.2	
253.29	7221.8	
253.5	3440.6	
253.72	4806.6	
253.93	5240.8	
254.14	6458.6	
254.35	3790.8	
254.56	3824.2	
254.77	5687.9	
254.98	5069.4	
255.19	3680.9	
255.41	4754	
255.62	5522.7	
255.83	6122.7	
256.04	4260.5	
256.25	4112.3	
256.46	6750.8	
256.67	5126.7	
256.88	4060.4	
257.09	4474.1	
257.31	5089.2	
257.52	5164.3	
257.73	5063.9	
257.94	3728	
258.15	5290.6	
258.36	5455.8	
258.57	4719.2	
258.78	3016.7	
258.99	5941.8	
259.2	5301.5	
259.41	3777.1	
259.63	3791.5	
259.84	6365.1	
260.05	6722.1	
260.26	4925.4	
260.47	3645.4	
260.68	6038.1	
260.89	5389.6	
261.1	4539.7	
261.31	3595.6	
261.52	6041.5	
261.73	6398.5	
261.95	4868	
262.16	4280.3	
262.37	6152.8	
262.58	6262	
262.79	4758.8	
263	3835.8	
263.21	5545.9	
263.42	5002.5	
263.63	3904.1	
263.84	3773	
264.05	5941.8	
264.26	6410.8	
264.47	4618.9	
264.69	4294.6	
264.9	6137.1	
265.11	5712.5	
265.32	3619.4	
265.53	3725.9	
265.74	5558.9	
265.95	4866.7	
266.16	3959.4	
266.37	4407.2	
266.58	5547.3	
266.79	5277.6	
267	3720.5	
267.21	3387.3	
267.42	4998.4	
267.63	5410.1	
267.84	3936.9	
268.06	3321.8	
268.27	5906.3	
268.48	6141.9	
268.69	3827.7	
268.9	4526	
269.11	6160.3	
269.32	4938.3	
269.53	3928	
269.74	3618.1	
269.95	5765	
270.16	4775.2	
270.37	3950.5	
270.58	4490.5	
270.79	5318.6	
271	6002.6	
271.21	4196.3	
271.42	4005.1	
271.63	5573.2	
271.84	5083.7	
272.05	3141.6	
272.26	3526.6	
272.47	5506.3	
272.68	5658.5	
272.89	3800.3	
273.11	4373.8	
273.32	5250.3	
273.53	6382.8	
273.74	4288.4	
273.95	4218.1	
274.16	6120	
274.37	5554.1	
274.58	4290.5	
274.79	3454.9	
275	5556.1	
275.21	6159.6	
275.42	5229.8	
275.63	4446.1	
275.84	5721.3	
276.05	7163.8	
276.26	4179.2	
276.47	3895.2	
276.68	5247.6	
276.89	6472.3	
277.1	4477.5	
277.31	3439.2	
277.52	5677.7	
277.73	5843.5	
277.94	3405.8	
278.15	3764.8	
278.36	5649	
278.57	5100.8	
278.78	3749.8	
278.99	4242.7	
279.2	5077.6	
279.41	5066	
279.62	4986.8	
279.83	3524.6	
280.04	6686.6	
280.25	5008	
280.46	4946.5	
280.67	3915	
280.88	5110.4	
281.09	6092	
281.3	4137.6	
281.51	5193	
281.72	5194.3	
281.93	6000.5	
282.14	3693.2	
282.35	3953.9	
282.56	5945.9	
282.77	5867.4	
282.98	3788.1	
283.19	4669.4	
283.4	7334.5	
283.61	5378	
283.82	3417.4	
284.03	4876.9	
284.24	5574.6	
284.45	6075	
284.66	4913.8	
284.87	4737.6	
285.08	6045.6	
285.29	6189	
285.5	3326.6	
285.71	3849.5	
285.92	6070.9	
286.12	6803.4	
286.33	4823.6	
286.54	3764.2	
286.75	5917.9	
286.96	5363.6	
287.17	3489.1	
287.38	4768.4	
287.59	5074.9	
287.8	5018.2	
288.01	3882.9	
288.22	4430.4	
288.43	5971.2	
288.64	4982.7	
288.85	4562.9	
289.06	4347.2	
289.27	5912.5	
289.48	6381.5	
289.69	4860.5	
289.9	4354.7	
290.11	6123.4	
290.32	5160.9	
290.53	4655	
290.74	4231.1	
290.94	5840.8	
291.15	5938.4	
291.36	3702	
291.57	4390.8	
291.78	5283.1	
291.99	4947.9	
292.2	3521.1	
292.41	4265.2	
292.62	6032.6	
292.83	5847	
293.04	5313.8	
293.25	3617.4	
293.46	5293.3	
293.67	6047.7	
293.88	3744.4	
294.09	3545.7	
294.29	5020.3	
294.5	5608	
294.71	4013.3	
294.92	3808.5	
295.13	5192.3	
295.34	6559	
295.55	3306.1	
295.76	3441.3	
295.97	5874.9	
296.18	6641.6	
296.39	3493.8	
296.6	3705.5	
296.81	5586.9	
297.01	5826.5	
297.22	3818.1	
297.43	3649.5	
297.64	5132.2	
297.85	5047.6	
298.06	3050.8	
298.27	3284.9	
298.48	5521.3	
298.69	5165	
298.9	3958.7	
299.11	3647.4	
299.31	4960.2	
299.52	4980.7	
299.73	4313	
299.94	4219.5	
300.15	5460.6	
300.36	5056.4	
300.57	4219.5	
300.78	4206.5	
300.99	5325.4	
301.2	5538.4	
301.4	3642	
301.61	4052.9	
301.82	5760.3	
302.03	5891.3	
302.24	4499.4	
302.45	3512.9	
302.66	5799.2	
302.87	6269.5	
303.08	3751.9	
303.29	5052.3	
303.49	5201.2	
303.7	5482.4	
303.91	3254.2	
304.12	4735.6	
304.33	4964.3	
304.54	5619.6	
304.75	3764.8	
304.96	3536.2	
305.16	5805.3	
305.37	6543.3	
305.58	3255.6	
305.79	3399.6	
306	5823.7	
306.21	4833.9	
306.42	3683.6	
306.63	5664	
306.83	5314.5	
307.04	6138.4	
307.25	4044.7	
307.46	4005.1	
307.67	4675.5	
307.88	5935.7	
308.09	3620.8	
308.29	3844.7	
308.5	5498.1	
308.71	6093.4	
308.92	3973.1	
309.13	3592.1	
309.34	5420.3	
309.55	5395	
309.75	4581.3	
309.96	4190.1	
310.17	5918.6	
310.38	5115.8	
310.59	4347.2	
310.8	3485.6	
311.01	5276.3	
311.21	5303.6	
311.42	3492.5	
311.63	3698.6	
311.84	5190.2	
312.05	5617.6	
312.26	4126	
312.46	4502.1	
312.67	5296	
312.88	5042.8	
313.09	3487	
313.3	3505.4	
313.51	6238.8	
313.71	6609.5	
313.92	3590.8	
314.13	3781.9	
314.34	5638.1	
314.55	5359.5	
314.76	4633.9	
314.96	4026.3	
315.17	5544.5	
315.38	5841.5	
315.59	3567.6	
315.8	3490.4	
316.01	6266.8	
316.21	6374	
316.42	3476.8	
316.63	3958	
316.84	5301.5	
317.05	6241.5	
317.26	4244.8	
317.46	3749.1	
317.67	5369.1	
317.88	5872.2	
318.09	4551.3	
318.3	3289.7	
318.5	5166.3	
318.71	5737.7	
318.92	5814.2	
319.13	4217.5	
319.34	5974.6	
319.54	6113.2	
319.75	3334.8	
319.96	3170.3	
320.17	5881.1	
320.38	6059.9	
320.58	3290.4	
320.79	3973.7	
321	6079.1	
321.21	6238.8	
321.42	3938.9	
321.62	3250.8	
321.83	5053.7	
322.04	5483.1	
322.25	3754.6	
322.46	3568.2	
322.66	5554.8	
322.87	5750	
323.08	4451.6	
323.29	3510.9	
323.5	6582.2	
323.7	4978.6	
323.91	4902.8	
324.12	4383.3	
324.33	5564.3	
324.53	5829.2	
324.74	4227.7	
324.95	4508.3	
325.16	4841.4	
325.37	5271.5	
325.57	3538.9	
325.78	3666.5	
325.99	5545.9	
326.2	5002.5	
326.4	5143.1	
326.61	3302.7	
326.82	5395	
327.03	5564.3	
327.24	5061.9	
327.44	4837.3	
327.65	5726.1	
327.86	4604.5	
328.07	4216.8	
328.27	3469.9	
328.48	6145.3	
328.69	5064.6	
328.9	5163.6	
329.1	3891.8	
329.31	5352.7	
329.52	6324.8	
329.73	3579.2	
329.93	4024.3	
330.14	5460.6	
330.35	5730.9	
330.56	5855.1	
330.76	4406.5	
330.97	5345.9	
331.18	5689.3	
331.39	3967.6	
331.59	3188.7	
331.8	6057.2	
332.01	6255.2	
332.22	3640.6	
332.42	4272.7	
332.63	5603.2	
332.84	5148.6	
333.05	3970.3	
333.25	3610.6	
333.46	5300.8	
333.67	5492	
333.88	3732.8	
334.08	4140.3	
334.29	7354.9	
334.5	6168.5	
334.7	3465.2	
334.91	5105.6	
335.12	5082.4	
335.33	5886.5	
335.53	3975.1	
335.74	5881.1	
335.95	5215.5	
336.16	5154.1	
336.36	3981.9	
336.57	4633.9	
336.78	5018.9	
336.98	6083.8	
337.19	4917.2	
337.4	3921.9	
337.61	6647.7	
337.81	4975.2	
338.02	3632.4	
338.23	4767	
338.43	6189.6	
338.64	5155.4	
338.85	3578.5	
339.05	4752	
339.26	6342.6	
339.47	4864.6	
339.68	3586	
339.88	5299.5	
340.09	5718.6	
340.3	5941.8	
340.5	4227.7	
340.71	3164.8	
340.92	4958.1	
341.13	6225.1	
341.33	3478.8	
341.54	4245.4	
341.75	5692	
341.95	5378.6	
342.16	4093.2	
342.37	4342.4	
342.57	5046.2	
342.78	5409.4	
342.99	4491.2	
343.19	3229.6	
343.4	5883.8	
343.61	5696.8	
343.81	3855.6	
344.02	3529.3	
344.23	5867.4	
344.43	6304.3	
344.64	4533.5	
344.85	4308.9	
345.06	5761.6	
345.26	6135	
345.47	4171.7	
345.68	4909	
345.88	4855.7	
346.09	5985.5	
346.3	4222.2	
346.5	3175.7	
346.71	5517.9	
346.92	5214.1	
347.12	3310.9	
347.33	4120.5	
347.54	6077.7	
347.74	6427.2	
347.95	4095.9	
348.16	3095.8	
348.36	5325.4	
348.57	4987.5	
348.78	4067.3	
348.98	4414.1	
349.19	5423.7	
349.39	4977.2	
349.6	3304.1	
349.81	3681.6	
350.01	5705.6	
350.22	5195.7	
350.43	3999.7	
350.63	4813.4	
350.84	5537.7	
351.05	5264.6	
351.25	3558	
351.46	3321.8	
351.67	6113.9	
351.87	5182.7	
352.08	3807.9	
352.29	4386.7	
352.49	5956.9	
352.7	6072.2	
352.9	3549.8	
353.11	4409.3	
353.32	6692.8	
353.52	5232.6	
353.73	3460.4	
353.94	4435.9	
354.14	5798.5	
354.35	5589.6	
354.55	3580.5	
354.76	4012	
354.97	5778.7	
355.17	5523.4	
355.38	3367.5	
355.59	4761.5	
355.79	5204.6	
356	5602.6	
356.2	3955.3	
356.41	3550.5	
356.62	4899.4	
356.82	5356.1	
357.03	4300.7	
357.24	3826.3	
357.44	5251	
357.65	5348.6	
357.85	5233.9	
358.06	4052.9	
358.27	5001.8	
358.47	5158.8	
358.68	3360	
358.88	4330.8	
359.09	5776	
359.3	6224.5	
359.5	5025	
359.71	4478.9	
359.91	6560.3	
360.12	5941.8	
360.33	4279.6	
360.53	4784.1	
360.74	5329.5	
360.94	5369.8	
361.15	4499.4	
361.36	3700	
361.56	6137.1	
361.77	5502.9	
361.97	5099.4	
362.18	4068.6	
362.38	6159.6	
362.59	5147.9	
362.8	3682.2	
363	3567.6	
363.21	5012.1	
363.41	5740.5	
363.62	4265.9	
363.83	5332.9	
364.03	5775.3	
364.24	6750.8	
364.44	5416.2	
364.65	5350	
364.85	5560.2	
365.06	5380.7	
365.27	3921.2	
365.47	3951.9	
365.68	6614.3	
365.88	5555.5	
366.09	4384	
366.29	4012	
366.5	5896.1	
366.71	6327.5	
366.91	5444.9	
367.12	4592.2	
367.32	6862.7	
367.53	6171.2	
367.73	4517.8	
367.94	5550	
368.14	6055.2	
368.35	7008.1	
368.56	4481.6	
368.76	4177.9	
368.97	6179.4	
369.17	7927	
369.38	4013.3	
369.58	4280.9	
369.79	5186.1	
369.99	6583.5	
370.2	5330.9	
370.4	4419.5	
370.61	5903.6	
370.82	7178.1	
371.02	4318.5	
371.23	3625.6	
371.43	5169.8	
371.64	6574	
371.84	4401.8	
372.05	5610.8	
372.25	7918.8	
372.46	6371.2	
372.66	4413.4	
372.87	4384	
373.07	6468.2	
373.28	8011.7	
373.48	5509	
373.69	5262.6	
373.9	5879	
374.1	5898.8	
374.31	5412.8	
374.51	4960.2	
374.72	6872.3	
374.92	5655.1	
375.13	5717.2	
375.33	4844.1	
375.54	6507.1	
375.74	5909.1	
375.95	5001.1	
376.15	6348.7	
376.36	6476.4	
376.56	6318.7	
376.77	5165.7	
376.97	5617.6	
377.18	7633.5	
377.38	6610.8	
377.59	6046.3	
377.79	4659.8	
378	6545.3	
378.2	7008.8	
378.41	4780.6	
378.61	4760.2	
378.82	7002.7	
379.02	6186.9	
379.23	4967	
379.43	6204.7	
379.64	7085.3	
379.84	6724.8	
380.05	4796.3	
380.25	4728.1	
380.46	6903	
380.66	6433.4	
380.87	6236.7	
381.07	6470.9	
381.28	7533.1	
381.48	6863.4	
381.69	4817.5	
381.89	4865.3	
382.1	5754.1	
382.3	7019.1	
382.51	5948	
382.71	6929	
382.91	6852.5	
383.12	7320.1	
383.32	5219.6	
383.53	5338.4	
383.73	6678.4	
383.94	6378.7	
384.14	5285.1	
384.35	4289.8	
384.55	6249	
384.76	6834.8	
384.96	5226.4	
385.17	5484.5	
385.37	6782.9	
385.58	6023.8	
385.78	5485.8	
385.98	4290.5	
386.19	6232	
386.39	6712.6	
386.6	4973.8	
386.8	5190.9	
387.01	6850.5	
387.21	6842.9	
387.42	5670.8	
387.62	6228.6	
387.83	6311.8	
388.03	7012.2	
388.23	5409.4	
388.44	6231.3	
388.64	5910.4	
388.85	6148	
389.05	5798.5	
389.26	6477.7	
389.46	7829.4	
389.67	7536.5	
389.87	5789.6	
390.07	5825.1	
390.28	6694.1	
390.48	6253.8	
390.69	5051	
390.89	5345.2	
391.1	6521.4	
391.3	7497.6	
391.5	6529.6	
391.71	7251.9	
391.91	7260	
392.12	8324.3	
392.32	6673	
392.53	5821	
392.73	6534.4	
392.93	6703	
393.14	5499.5	
393.34	6361	
393.55	7214.3	
393.75	6731	
393.95	5481	
394.16	5442.8	
394.36	6584.9	
394.57	7191.8	
394.77	5019.6	
394.98	5560.2	
395.18	6643.6	
395.38	6804	
395.59	6503.7	
395.79	5574.6	
396	6855.2	
396.2	7382.2	
396.4	6683.9	
396.61	6420.4	
396.81	7680.6	
397.02	6922.8	
397.22	6802.7	
397.42	6857.3	
397.63	7714	
397.83	7000	
398.04	5619.6	
398.24	6374	
398.44	7518.8	
398.65	6624.5	
398.85	5614.8	
399.05	5775.3	
399.26	7189.1	
399.46	8866.3	
399.67	6230.6	
399.87	5971.2	
400.07	7595.2	
400.28	7977.5	
400.48	6194.4	
400.69	7318.1	
400.89	8328.4	
401.09	8690.2	
401.3	6234.7	
401.5	7382.9	
401.7	9098.4	
401.91	9241.1	
402.11	6470.9	
402.32	6604.7	
402.52	8175.5	
402.72	8076.5	
402.93	6707.1	
403.13	5451	
403.33	8753	
403.54	7319.4	
403.74	6354.2	
403.94	7117.4	
404.15	7522.9	
404.35	8788.5	
404.56	6187.6	
404.76	8125	
404.96	8157.7	
405.17	7903.1	
405.37	7698.3	
405.57	6883.2	
405.78	8341.4	
405.98	7628	
406.18	6429.9	
406.39	7278.5	
406.59	8156.4	
406.79	7845.8	
407	6221.7	
407.2	6328.9	
407.4	8415.8	
407.61	8701.1	
407.81	6633.4	
408.01	8806.9	
408.22	7716.1	
408.42	10057	
408.62	8159.8	
408.83	7740	
409.03	8851.3	
409.23	8708	
409.44	8058.1	
409.64	8357.1	
409.84	10051	
410.05	10138	
410.25	8430.8	
410.45	8215.8	
410.66	9876	
410.86	12233	
411.06	9107.3	
411.27	8783.7	
411.47	12441	
411.67	10267	
411.88	9115.5	
412.08	9680.1	
412.28	10986	
412.49	11492	
412.69	9207	
412.89	9376.3	
413.09	11428	
413.3	11426	
413.5	9478	
413.7	9043.8	
413.91	10601	
414.11	11574	
414.31	9439.1	
414.52	10086	
414.72	11195	
414.92	11368	
415.12	9424.8	
415.33	10047	
415.53	11751	
415.73	11991	
415.94	10430	
416.14	9887.6	
416.34	10864	
416.55	10636	
416.75	11258	
416.95	10742	
417.15	12076	
417.36	12699	
417.56	11694	
417.76	10718	
417.97	12608	
418.17	12310	
418.37	10227	
418.57	10300	
418.78	11970	
418.98	11468	
419.18	11355	
419.38	10978	
419.59	11774	
419.79	11224	
419.99	10210	
420.2	10714	
420.4	12230	
420.6	12420	
420.8	10221	
421.01	10063	
421.21	12166	
421.41	12344	
421.61	10599	
421.82	10246	
422.02	11654	
422.22	12471	
422.42	11213	
422.63	10499	
422.83	11761	
423.03	13033	
423.23	10639	
423.44	9633.6	
423.64	11713	
423.84	11269	
424.04	10056	
424.25	9686.2	
424.45	12608	
424.65	12464	
424.85	9547.6	
425.06	10144	
425.26	12487	
425.46	11572	
425.66	10551	
425.87	10288	
426.07	12285	
426.27	12052	
426.47	10421	
426.67	9547.6	
426.88	12490	
427.08	12000	
427.28	10762	
427.48	9579	
427.69	10850	
427.89	11546	
428.09	10670	
428.29	9667.1	
428.5	12310	
428.7	11893	
428.9	9852.8	
429.1	10271	
429.3	11918	
429.51	12360	
429.71	9948.3	
429.91	11066	
430.11	12266	
430.31	12529	
430.52	10563	
430.72	10969	
430.92	12979	
431.12	12508	
431.32	10359	
431.53	10585	
431.73	11473	
431.93	13122	
432.13	10273	
432.33	10234	
432.54	12115	
432.74	12402	
432.94	10490	
433.14	11299	
433.34	12629	
433.55	12473	
433.75	11460	
433.95	13545	
434.15	12657	
434.35	12462	
434.56	10719	
434.76	10529	
434.96	12727	
435.16	13241	
435.36	10742	
435.56	12220	
435.77	12819	
435.97	12866	
436.17	12876	
436.37	12172	
436.57	12678	
436.78	12890	
436.98	11835	
437.18	12649	
437.38	13560	
437.58	12662	
437.78	12674	
437.99	11135	
438.19	12950	
438.39	13965	
438.59	11168	
438.79	10563	
438.99	14000	
439.2	12882	
439.4	10911	
439.6	11095	
439.8	13503	
440	14648	
440.2	12536	
440.4	12641	
440.61	14300	
440.81	14915	
441.01	11943	
441.21	13018	
441.41	14978	
441.61	14416	
441.81	13398	
442.02	14475	
442.22	15373	
442.42	14670	
442.62	12375	
442.82	12198	
443.02	15101	
443.22	14465	
443.43	13054	
443.63	12461	
443.83	14080	
444.03	14111	
444.23	14060	
444.43	13456	
444.63	14697	
444.83	15768	
445.04	12877	
445.24	14160	
445.44	14650	
445.64	14814	
445.84	13064	
446.04	13330	
446.24	13887	
446.44	15166	
446.65	12301	
446.85	12882	
447.05	13749	
447.25	14898	
447.45	12757	
447.65	12257	
447.85	14324	
448.05	13779	
448.25	13558	
448.46	13269	
448.66	14491	
448.86	13960	
449.06	12370	
449.26	13528	
449.46	14928	
449.66	13878	
449.86	13359	
450.06	13067	
450.26	14246	
450.47	14891	
450.67	13241	
450.87	13817	
451.07	14889	
451.27	14946	
451.47	12605	
451.67	13536	
451.87	14662	
452.07	15492	
452.27	13192	
452.47	12923	
452.67	14618	
452.88	15492	
453.08	12245	
453.28	14687	
453.48	16399	
453.68	14681	
453.88	13282	
454.08	13388	
454.28	15752	
454.48	15354	
454.68	14063	
454.88	14768	
455.08	15655	
455.28	16046	
455.48	13197	
455.68	14340	
455.89	16622	
456.09	16389	
456.29	14182	
456.49	14468	
456.69	16858	
456.89	15979	
457.09	15104	
457.29	15781	
457.49	16754	
457.69	17086	
457.89	15517	
458.09	14603	
458.29	16698	
458.49	17488	
458.69	15827	
458.89	15349	
459.09	18039	
459.29	17969	
459.49	15397	
459.69	16352	
459.9	17232	
460.1	17408	
460.3	15312	
460.5	15171	
460.7	17712	
460.9	17555	
461.1	15148	
461.3	16665	
461.5	18758	
461.7	18348	
461.9	16399	
462.1	16473	
462.3	18213	
462.5	18838	
462.7	16521	
462.9	16778	
463.1	20091	
463.3	20217	
463.5	17140	
463.7	18535	
463.9	19161	
464.1	19510	
464.3	18139	
464.5	17787	
464.7	20091	
464.9	20129	
465.1	19580	
465.3	18581	
465.5	20425	
465.7	20693	
465.9	19264	
466.1	18459	
466.3	20899	
466.5	20154	
466.7	20516	
466.9	18903	
467.1	20712	
467.3	21834	
467.5	20530	
467.7	19381	
467.9	22089	
468.1	23160	
468.3	20046	
468.5	20752	
468.7	21117	
468.9	21061	
469.1	19929	
469.3	20736	
469.5	23392	
469.7	21084	
469.9	19914	
470.1	19843	
470.3	21235	
470.5	21358	
470.7	21010	
470.9	19660	
471.1	21263	
471.3	21136	
471.5	19708	
471.69	21433	
471.89	20847	
472.09	20293	
472.29	20383	
472.49	20161	
472.69	20692	
472.89	21378	
473.09	19471	
473.29	19230	
473.49	20663	
473.69	20480	
473.89	20183	
474.09	19330	
474.29	21893	
474.49	21575	
474.69	20285	
474.89	19267	
475.09	20672	
475.29	20692	
475.49	18710	
475.69	19084	
475.88	22021	
476.08	20714	
476.28	18772	
476.48	18733	
476.68	20918	
476.88	20826	
477.08	18752	
477.28	19353	
477.48	20162	
477.68	20840	
477.88	18759	
478.08	18953	
478.28	21671	
478.48	20555	
478.67	19138	
478.87	18159	
479.07	21704	
479.27	20545	
479.47	19293	
479.67	19353	
479.87	21286	
480.07	21723	
480.27	18594	
480.47	20131	
480.67	20533	
480.87	21714	
481.06	18916	
481.26	19816	
481.46	20974	
481.66	20794	
481.86	19433	
482.06	20566	
482.26	20519	
482.46	21639	
482.66	19415	
482.86	19101	
483.05	21165	
483.25	20539	
483.45	22050	
483.65	19614	
483.85	20932	
484.05	21231	
484.25	20073	
484.45	21024	
484.65	22214	
484.84	22603	
485.04	20035	
485.24	20008	
485.44	22819	
485.64	21142	
485.84	19635	
486.04	21063	
486.24	21700	
486.44	22172	
486.63	19895	
486.83	20868	
487.03	21975	
487.23	22593	
487.43	20000	
487.63	22806	
487.83	22513	
488.02	23549	
488.22	21691	
488.42	22421	
488.62	23555	
488.82	22515	
489.02	21087	
489.22	21725	
489.41	23223	
489.61	23281	
489.81	21049	
490.01	21105	
490.21	23353	
490.41	24019	
490.61	20887	
490.8	20862	
491	23043	
491.2	21871	
491.4	21399	
491.6	20602	
491.8	22612	
491.99	22678	
492.19	20581	
492.39	20984	
492.59	23730	
492.79	23837	
492.99	22427	
493.18	21592	
493.38	24265	
493.58	25559	
493.78	22686	
493.98	22448	
494.18	24492	
494.37	24635	
494.57	24112	
494.77	23763	
494.97	25716	
495.17	26187	
495.37	23969	
495.56	24091	
495.76	26618	
495.96	26046	
496.16	25268	
496.36	24354	
496.55	26604	
496.75	26125	
496.95	24904	
497.15	24909	
497.35	26507	
497.54	26919	
497.74	24714	
497.94	26439	
498.14	27832	
498.34	27513	
498.53	24701	
498.73	25604	
498.93	26953	
499.13	27296	
499.33	25957	
499.52	25989	
499.72	27744	
499.92	27620	
500.12	25497	
500.32	25860	
500.51	27781	
500.71	27970	
500.91	26751	
501.11	26269	
501.31	28050	
501.5	28188	
501.7	26983	
501.9	26033	
502.1	27529	
502.29	27681	
502.49	26437	
502.69	26460	
502.89	27606	
503.09	27616	
503.28	24701	
503.48	24957	
503.68	26253	
503.88	26600	
504.07	25957	
504.27	25023	
504.47	26921	
504.67	26523	
504.86	25518	
505.06	25155	
505.26	25922	
505.46	27652	
505.65	24649	
505.85	24628	
506.05	25493	
506.25	25969	
506.44	23507	
506.64	24143	
506.84	25142	
507.04	25858	
507.23	23259	
507.43	23698	
507.63	26730	
507.83	24911	
508.02	23598	
508.22	23114	
508.42	26787	
508.62	24612	
508.81	23292	
509.01	24128	
509.21	24133	
509.4	24907	
509.6	23599	
509.8	23171	
510	24715	
510.19	26549	
510.39	23081	
510.59	23520	
510.79	24724	
510.98	26371	
511.18	23523	
511.38	23633	
511.57	25331	
511.77	25531	
511.97	24170	
512.17	23012	
512.36	25540	
512.56	25401	
512.76	23279	
512.95	22868	
513.15	25709	
513.35	24608	
513.55	24385	
513.74	23568	
513.94	25873	
514.14	25230	
514.33	24717	
514.53	24463	
514.73	25472	
514.92	26029	
515.12	24187	
515.32	24039	
515.51	26108	
515.71	26452	
515.91	26006	
516.11	24256	
516.3	27967	
516.5	25753	
516.7	24790	
516.89	25391	
517.09	25823	
517.29	25937	
517.48	25083	
517.68	24419	
517.88	25626	
518.07	26398	
518.27	25221	
518.47	24150	
518.66	26993	
518.86	25632	
519.06	24161	
519.25	24600	
519.45	26086	
519.65	27789	
519.84	25137	
520.04	25909	
520.24	27621	
520.43	26151	
520.63	24504	
520.83	24214	
521.02	25494	
521.22	26047	
521.42	24645	
521.61	25298	
521.81	25788	
522.01	25941	
522.2	24897	
522.4	24500	
522.6	26873	
522.79	25713	
522.99	25150	
523.18	24892	
523.38	27016	
523.58	27615	
523.77	27506	
523.97	25327	
524.17	29694	
524.36	29094	
524.56	27287	
524.76	26881	
524.95	28560	
525.15	28018	
525.34	26918	
525.54	27125	
525.74	28868	
525.93	28018	
526.13	28530	
526.33	27511	
526.52	29762	
526.72	29302	
526.91	28988	
527.11	28315	
527.31	30094	
527.5	30650	
527.7	28433	
527.89	27753	
528.09	29252	
528.29	30305	
528.48	28941	
528.68	28415	
528.87	30308	
529.07	29805	
529.27	28064	
529.46	27447	
529.66	29188	
529.85	29662	
530.05	27222	
530.25	28087	
530.44	31054	
530.64	29340	
530.83	28116	
531.03	28817	
531.23	30434	
531.42	30328	
531.62	29803	
531.81	29001	
532.01	31088	
532.21	31821	
532.4	29287	
532.6	29809	
532.79	32197	
532.99	32013	
533.18	30304	
533.38	31111	
533.58	31911	
533.77	32334	
533.97	30715	
534.16	31375	
534.36	32945	
534.55	32137	
534.75	31324	
534.95	30535	
535.14	33027	
535.34	31911	
535.53	30131	
535.73	31922	
535.92	33129	
536.12	31726	
536.31	30115	
536.51	31322	
536.71	31995	
536.9	31700	
537.1	30124	
537.29	30498	
537.49	32564	
537.68	31724	
537.88	31128	
538.07	30111	
538.27	32479	
538.46	33167	
538.66	30241	
538.86	30933	
539.05	32248	
539.25	32473	
539.44	31176	
539.64	30132	
539.83	31845	
540.03	32823	
540.22	30158	
540.42	30009	
540.61	31688	
540.81	32037	
541	30124	
541.2	31165	
541.39	31007	
541.59	31582	
541.78	30900	
541.98	29419	
542.18	30286	
542.37	30366	
542.57	29111	
542.76	30198	
542.96	29945	
543.15	30546	
543.35	28863	
543.54	28211	
543.74	30067	
543.93	30018	
544.13	28330	
544.32	29449	
544.52	29904	
544.71	29106	
544.91	27372	
545.1	28564	
545.3	29262	
545.49	30114	
545.69	27121	
545.88	27736	
546.08	30967	
546.27	30314	
546.47	28388	
546.66	27624	
546.86	29921	
547.05	30395	
547.24	27658	
547.44	27839	
547.63	28730	
547.83	30033	
548.02	27867	
548.22	28169	
548.41	28409	
548.61	29644	
548.8	27188	
549	27104	
549.19	28612	
549.39	29204	
549.58	26736	
549.78	27187	
549.97	29142	
550.17	28661	
550.36	27830	
550.55	29050	
550.75	28562	
550.94	29388	
551.14	26715	
551.33	26893	
551.53	27925	
551.72	29097	
551.92	26950	
552.11	26843	
552.31	28758	
552.5	28846	
552.69	28362	
552.89	26415	
553.08	28579	
553.28	28306	
553.47	26732	
553.67	27945	
553.86	29178	
554.06	27537	
554.25	25881	
554.44	26523	
554.64	29975	
554.83	29477	
555.03	26457	
555.22	26796	
555.42	28706	
555.61	28100	
555.8	26400	
556	26608	
556.19	27578	
556.39	28651	
556.58	26688	
556.78	26391	
556.97	28267	
557.16	28028	
557.36	27700	
557.55	25978	
557.75	26886	
557.94	28927	
558.13	26030	
558.33	25737	
558.52	28526	
558.72	27350	
558.91	25705	
559.1	25876	
559.3	27069	
559.49	26492	
559.69	25230	
559.88	26135	
560.07	27720	
560.27	27927	
560.46	26275	
560.66	26344	
560.85	27310	
561.04	26355	
561.24	25331	
561.43	25260	
561.63	26710	
561.82	26917	
562.01	27020	
562.21	25833	
562.4	27453	
562.59	28549	
562.79	25852	
562.98	25699	
563.18	27394	
563.37	29189	
563.56	26307	
563.76	25583	
563.95	27183	
564.14	27011	
564.34	26049	
564.53	25761	
564.73	27624	
564.92	28241	
565.11	26309	
565.31	25906	
565.5	28411	
565.69	27306	
565.89	25904	
566.08	26219	
566.27	28143	
566.47	28871	
566.66	26805	
566.85	25574	
567.05	27833	
567.24	27235	
567.44	25746	
567.63	27255	
567.82	27942	
568.02	27712	
568.21	25990	
568.4	26278	
568.6	27889	
568.79	27636	
568.98	25722	
569.18	26050	
569.37	27641	
569.56	29599	
569.76	25986	
569.95	27005	
570.14	27427	
570.34	27536	
570.53	25159	
570.72	24991	
570.91	28016	
571.11	26804	
571.3	25456	
571.49	26329	
571.69	27001	
571.88	26348	
572.07	26163	
572.27	25933	
572.46	26580	
572.65	27620	
572.85	25491	
573.04	26056	
573.23	28241	
573.43	27540	
573.62	25490	
573.81	26230	
574	27722	
574.2	27497	
574.39	26150	
574.58	26452	
574.78	28990	
574.97	27973	
575.16	26744	
575.36	26903	
575.55	28678	
575.74	28425	
575.93	25843	
576.13	27206	
576.32	27680	
576.51	28624	
576.71	26314	
576.9	27874	
577.09	28836	
577.28	28330	
577.48	26898	
577.67	25886	
577.86	28016	
578.05	28612	
578.25	26884	
578.44	26820	
578.63	28244	
578.83	29503	
579.02	26142	
579.21	27914	
579.4	28725	
579.6	28510	
579.79	27159	
579.98	29300	
580.17	29192	
580.37	29504	
580.56	26794	
580.75	27838	
580.94	30102	
581.14	29795	
581.33	28428	
581.52	27395	
581.71	29556	
581.91	30220	
582.1	27354	
582.29	27710	
582.48	29416	
582.68	29563	
582.87	28546	
583.06	28131	
583.25	29738	
583.45	29743	
583.64	29070	
583.83	29783	
584.02	29276	
584.21	29945	
584.41	28735	
584.6	28353	
584.79	29676	
584.98	30524	
585.18	27592	
585.37	27430	
585.56	29076	
585.75	29886	
585.94	27406	
586.14	28415	
586.33	29885	
586.52	29044	
586.71	27557	
586.91	27246	
587.1	27585	
587.29	28879	
587.48	26460	
587.67	26374	
587.87	28121	
588.06	28023	
588.25	26867	
588.44	25923	
588.63	26409	
588.83	26773	
589.02	24089	
589.21	23440	
589.4	24220	
589.59	23890	
589.78	21004	
589.98	21028	
590.17	22254	
590.36	22646	
590.55	19563	
590.74	20015	
590.94	23580	
591.13	21857	
591.32	20078	
591.51	19647	
591.7	22652	
591.89	22193	
592.09	19916	
592.28	20486	
592.47	21453	
592.66	23669	
592.85	20345	
593.05	20661	
593.24	22462	
593.43	23500	
593.62	21136	
593.81	21774	
594	22900	
594.19	23264	
594.39	20866	
594.58	20919	
594.77	23073	
594.96	23438	
595.15	20573	
595.34	21061	
595.54	22612	
595.73	21793	
595.92	19773	
596.11	21059	
596.3	23404	
596.49	22214	
596.68	20850	
596.88	21622	
597.07	23444	
597.26	22445	
597.45	20640	
597.64	22167	
597.83	22673	
598.02	23506	
598.22	21085	
598.41	21655	
598.6	23225	
598.79	22753	
598.98	21229	
599.17	22502	
599.36	23525	
599.55	24545	
599.74	23681	
599.94	23536	
600.13	24403	
600.32	23091	
600.51	21442	
600.7	21805	
600.89	25089	
601.08	25135	
601.27	21720	
601.47	22847	
601.66	24603	
601.85	25242	
602.04	22722	
602.23	22661	
602.42	23845	
602.61	24587	
602.8	22628	
602.99	22379	
603.18	24331	
603.37	24665	
603.57	22961	
603.76	23633	
603.95	25578	
604.14	25172	
604.33	22813	
604.52	23273	
604.71	24908	
604.9	24448	
605.09	23712	
605.28	23569	
605.47	25469	
605.66	25064	
605.86	23404	
606.05	22694	
606.24	25400	
606.43	23875	
606.62	23125	
606.81	23928	
607	25217	
607.19	24541	
607.38	22477	
607.57	22672	
607.76	24238	
607.95	23562	
608.14	22894	
608.33	23556	
608.52	23883	
608.72	25146	
608.91	22074	
609.1	22014	
609.29	24046	
609.48	23463	
609.67	22783	
609.86	21863	
610.05	23406	
610.24	23831	
610.43	21816	
610.62	21308	
610.81	24845	
611	24671	
611.19	21904	
611.38	22666	
611.57	24126	
611.76	25507	
611.95	21640	
612.14	21284	
612.33	23812	
612.52	23326	
612.71	21979	
612.9	21278	
613.09	22937	
613.28	25333	
613.47	21655	
613.66	22772	
613.85	23940	
614.04	23462	
614.24	21848	
614.43	21018	
614.62	24160	
614.81	23968	
615	22423	
615.19	22522	
615.38	23150	
615.57	23668	
615.76	22388	
615.95	23371	
616.14	24092	
616.33	23676	
616.52	22538	
616.71	22971	
616.9	23986	
617.09	24117	
617.28	22119	
617.47	23473	
617.66	23416	
617.85	23541	
618.04	23488	
618.22	22797	
618.41	24071	
618.6	25084	
618.79	22863	
618.98	22713	
619.17	25423	
619.36	24008	
619.55	23038	
619.74	22928	
619.93	24834	
620.12	24311	
620.31	23777	
620.5	23974	
620.69	25717	
620.88	26168	
621.07	24667	
621.26	23752	
621.45	25550	
621.64	25365	
621.83	23984	
622.02	23128	
622.21	25371	
622.4	25239	
622.59	24495	
622.78	24298	
622.97	24828	
623.16	25995	
623.35	23879	
623.54	23013	
623.72	25155	
623.91	25176	
624.1	24010	
624.29	22742	
624.48	26303	
624.67	25241	
624.86	24073	
625.05	23017	
625.24	26039	
625.43	24503	
625.62	25560	
625.81	23160	
626	25439	
626.19	24774	
626.38	23924	
626.56	22944	
626.75	24251	
626.94	24911	
627.13	23042	
627.32	21523	
627.51	24324	
627.7	25676	
627.89	21338	
628.08	22738	
628.27	23230	
628.46	23487	
628.65	21772	
628.83	21625	
629.02	24217	
629.21	23597	
629.4	22646	
629.59	22758	
629.78	23872	
629.97	24513	
630.16	23032	
630.35	22339	
630.54	25107	
630.72	24950	
630.91	22541	
631.1	22797	
631.29	24399	
631.48	24664	
631.67	23006	
631.86	22427	
632.05	24069	
632.24	23876	
632.42	22048	
632.61	22760	
632.8	24104	
632.99	23800	
633.18	22944	
633.37	23291	
633.56	24502	
633.75	24324	
633.93	22950	
634.12	22733	
634.31	25309	
634.5	25230	
634.69	22863	
634.88	22952	
635.07	24435	
635.25	24885	
635.44	23648	
635.63	24006	
635.82	24279	
636.01	23539	
636.2	23477	
636.39	23243	
636.57	25294	
636.76	24806	
636.95	22548	
637.14	23705	
637.33	24596	
637.52	25550	
637.7	22321	
637.89	23338	
638.08	24236	
638.27	25626	
638.46	23345	
638.65	23507	
638.83	25269	
639.02	23802	
639.21	22872	
639.4	23524	
639.59	23998	
639.78	23592	
639.96	21929	
640.15	21832	
640.34	23718	
640.53	23920	
640.72	21569	
640.91	21744	
641.09	22909	
641.28	24297	
641.47	21708	
641.66	22696	
641.85	23769	
642.03	23548	
642.22	22139	
642.41	21609	
642.6	22951	
642.79	22210	
642.97	20999	
643.16	21978	
643.35	22619	
643.54	22023	
643.73	20590	
643.91	21272	
644.1	21338	
644.29	22091	
644.48	19888	
644.67	19811	
644.85	20844	
645.04	20874	
645.23	18688	
645.42	18961	
645.6	19654	
645.79	20705	
645.98	18041	
646.17	16882	
646.36	18658	
646.54	19125	
646.73	17905	
646.92	16724	
647.11	18232	
647.29	19366	
647.48	16780	
647.67	16565	
647.86	19513	
648.05	19892	
648.23	17285	
648.42	18777	
648.61	19441	
648.8	19347	
648.98	17443	
649.17	17859	
649.36	19091	
649.55	18741	
649.73	17379	
649.92	18263	
650.11	18931	
650.3	18993	
650.48	17265	
650.67	17032	
650.86	19183	
651.05	18134	
651.23	17141	
651.42	17337	
651.61	18578	
651.79	18749	
651.98	17533	
652.17	17260	
652.36	19189	
652.54	18174	
652.73	17047	
652.92	16808	
653.11	18893	
653.29	18951	
653.48	15988	
653.67	16858	
653.85	18364	
654.04	19226	
654.23	16740	
654.42	16055	
654.6	17053	
654.79	17639	
654.98	15226	
655.16	15718	
655.35	16554	
655.54	16567	
655.73	15464	
655.91	15332	
656.1	18065	
656.29	16967	
656.47	15370	
656.66	17269	
656.85	17501	
657.03	17721	
657.22	16255	
657.41	16419	
657.59	18132	
657.78	17938	
657.97	16194	
658.16	17013	
658.34	18762	
658.53	19146	
658.72	17957	
658.9	18688	
659.09	18464	
659.28	18417	
659.46	16968	
659.65	17003	
659.84	18152	
660.02	18955	
660.21	16871	
660.4	16784	
660.58	19377	
660.77	18841	
660.96	17545	
661.14	16489	
661.33	19689	
661.52	19672	
661.7	16408	
661.89	20179	
662.08	18202	
662.26	17811	
662.45	16575	
662.64	16702	
662.82	18791	
663.01	18056	
663.2	16647	
663.38	17690	
663.57	18561	
663.75	18548	
663.94	17058	
664.13	18050	
664.31	17947	
664.5	18551	
664.69	17359	
664.87	17811	
665.06	17724	
665.25	18507	
665.43	17905	
665.62	18084	
665.8	18678	
665.99	17983	
666.18	16885	
666.36	17007	
666.55	18654	
666.74	18716	
666.92	16472	
667.11	17983	
667.29	17977	
667.48	18565	
667.67	17645	
667.85	16898	
668.04	17960	
668.22	18000	
668.41	16906	
668.6	16853	
668.78	17665	
668.97	17935	
669.15	17092	
669.34	15952	
669.53	17533	
669.71	17980	
669.9	16066	
670.08	16797	
670.27	17558	
670.46	18222	
670.64	16955	
670.83	17311	
671.01	17397	
671.2	17976	
671.38	16233	
671.57	16009	
671.76	18738	
671.94	19238	
672.13	15941	
672.31	17059	
672.5	18335	
672.69	17535	
672.87	16180	
673.06	16441	
673.24	17925	
673.43	17630	
673.61	16694	
673.8	16292	
673.98	18129	
674.17	18388	
674.36	16925	
674.54	16721	
674.73	17761	
674.91	18021	
675.1	16401	
675.28	16049	
675.47	17626	
675.65	18165	
675.84	16257	
676.03	16643	
676.21	17423	
676.4	16893	
676.58	16991	
676.77	16987	
676.95	18808	
677.14	17256	
677.32	15911	
677.51	15647	
677.69	18172	
677.88	16866	
678.06	15743	
678.25	15809	
678.44	17499	
678.62	17287	
678.81	15386	
678.99	16582	
679.18	18286	
679.36	17734	
679.55	15982	
679.73	16722	
679.92	17821	
680.1	17228	
680.29	17359	
680.47	15897	
680.66	16997	
680.84	17899	
681.03	15301	
681.21	16284	
681.4	17201	
681.58	16820	
681.77	15502	
681.95	15443	
682.14	17655	
682.32	18100	
682.51	16376	
682.69	15032	
682.88	16576	
683.06	17097	
683.25	16004	
683.43	16313	
683.62	16811	
683.8	16988	
683.99	15907	
684.17	14827	
684.36	17077	
684.54	15289	
684.73	12979	
684.91	12942	
685.1	14679	
685.28	13979	
685.46	12908	
685.65	13045	
685.83	14600	
686.02	14039	
686.2	12616	
686.39	12754	
686.57	13764	
686.76	15635	
686.94	12893	
687.13	13100	
687.31	14910	
687.5	14574	
687.68	12527	
687.86	13922	
688.05	16401	
688.23	14210	
688.42	14001	
688.6	13264	
688.79	14698	
688.97	14523	
689.16	13705	
689.34	12698	
689.52	15443	
689.71	15388	
689.89	13730	
690.08	12899	
690.26	14430	
690.45	14278	
690.63	13397	
690.81	12750	
691	13627	
691.18	13634	
691.37	12489	
691.55	14598	
691.74	13355	
691.92	15385	
692.1	12508	
692.29	11846	
692.47	13708	
692.66	12981	
692.84	12222	
693.02	13089	
693.21	13383	
693.39	14005	
693.58	13355	
693.76	12919	
693.94	15694	
694.13	15709	
694.31	13455	
694.5	14642	
694.68	14825	
694.86	15249	
695.05	14188	
695.23	14306	
695.42	15837	
695.6	18118	
695.78	14489	
695.97	13427	
696.15	15371	
696.34	14612	
696.52	12933	
696.7	13650	
696.89	14536	
697.07	13851	
697.25	13090	
697.44	14787	
697.62	14180	
697.81	14595	
697.99	12657	
698.17	13170	
698.36	13327	
698.54	14146	
698.72	12969	
698.91	11879	
699.09	13678	
699.28	13518	
699.46	12622	
699.64	12418	
699.83	13578	
700.01	14810	
700.19	13591	
700.38	12027	
700.56	15139	
700.74	14126	
700.93	12737	
701.11	13590	
701.29	14833	
701.48	15961	
701.66	13147	
701.84	13165	
702.03	14447	
702.21	15342	
702.39	12501	
702.58	13336	
702.76	14906	
702.94	14766	
703.13	12553	
703.31	15219	
703.49	14130	
703.68	15182	
703.86	12729	
704.04	13882	
704.23	14603	
704.41	14987	
704.59	12990	
704.78	14169	
704.96	15871	
705.14	15236	
705.33	12759	
705.51	13708	
705.69	14609	
705.87	15383	
706.06	13994	
706.24	12935	
706.42	14904	
706.61	15365	
706.79	14043	
706.97	12910	
707.16	14356	
707.34	14892	
707.52	13842	
707.7	13114	
707.89	14463	
708.07	14148	
708.25	13833	
708.44	14231	
708.62	14463	
708.8	15496	
708.98	14270	
709.17	13348	
709.35	14870	
709.53	14709	
709.72	12723	
709.9	12843	
710.08	14996	
710.26	15063	
710.45	14302	
710.63	13136	
710.81	14505	
710.99	14418	
711.18	13438	
711.36	12747	
711.54	13909	
711.72	14564	
711.91	12370	
712.09	11744	
712.27	13448	
712.45	14125	
712.64	12063	
712.82	10909	
713	12276	
713.18	12209	
713.37	10323	
713.55	11241	
713.73	12182	
713.91	10417	
714.1	9555.8	
714.28	8662.2	
714.46	10682	
714.64	9645.9	
714.83	7403.4	
715.01	8023.3	
715.19	9269.8	
715.37	8559.1	
715.55	7629.4	
715.74	7717.4	
715.92	9840.5	
716.1	7886.7	
716.28	8822.6	
716.47	7869.7	
716.65	8471.1	
716.83	8667	
717.01	7691.5	
717.19	7740	
717.38	10889	
717.56	8503.2	
717.74	8384.4	
717.92	7590.5	
718.1	10277	
718.29	9636.4	
718.47	7747.5	
718.65	8631.5	
718.83	10993	
719.01	10852	
719.2	8178.2	
719.38	9329.2	
719.56	10628	
719.74	12164	
719.92	8606.2	
720.11	9570.8	
720.29	10185	
720.47	9071.8	
720.65	7557.7	
720.83	8376.2	
721.02	9095	
721.2	8717.5	
721.38	8092.2	
721.56	7227.3	
721.74	8144.8	
721.92	8253.3	
722.11	8521.6	
722.29	8170.7	
722.47	9538.1	
722.65	8776.9	
722.83	7298.3	
723.01	8195.3	
723.2	8834.9	
723.38	9131.2	
723.56	6792.4	
723.74	7899	
723.92	8286.1	
724.1	9495.1	
724.29	7167.9	
724.47	8435.6	
724.65	8410.3	
724.83	8349.6	
725.01	7155.6	
725.19	8107.2	
725.37	8323.6	
725.56	8506.6	
725.74	6979.5	
725.92	7320.8	
726.1	8404.2	
726.28	8716.2	
726.46	7703.8	
726.64	7344	
726.83	8540	
727.01	8812.4	
727.19	6926.2	
727.37	7791.8	
727.55	8824	
727.73	9221.3	
727.91	7049.8	
728.09	6865.5	
728.28	9426.1	
728.46	10206	
728.64	8361.9	
728.82	8398.7	
729	11006	
729.18	10350	
729.36	7912.7	
729.54	10248	
729.72	11772	
729.91	10110	
730.09	10319	
730.27	9127.1	
730.45	10117	
730.63	10945	
730.81	9759.9	
730.99	8895.7	
731.17	11553	
731.35	9953.8	
731.53	9339.4	
731.71	9000.8	
731.9	11029	
732.08	11233	
732.26	9088.2	
732.44	8755.1	
732.62	11177	
732.8	10711	
732.98	9380.4	
733.16	8510	
733.34	10702	
733.52	9342.8	
733.7	9009	
733.88	9372.9	
734.07	10465	
734.25	10428	
734.43	8645.2	
734.61	10260	
734.79	11984	
734.97	10267	
735.15	8809.7	
735.33	9212.4	
735.51	10673	
735.69	10283	
735.87	10352	
736.05	9412.5	
736.23	10618	
736.41	10477	
736.59	9371.5	
736.77	9568.8	
736.95	11178	
737.13	10703	
737.32	9023.4	
737.5	9388.6	
737.68	11897	
737.86	10612	
738.04	8959.9	
738.22	10832	
738.4	10288	
738.58	10712	
738.76	9655.5	
738.94	8542.8	
739.12	10464	
739.3	10473	
739.48	10501	
739.66	10144	
739.84	10926	
740.02	11046	
740.2	8830.2	
740.38	9093.7	
740.56	11296	
740.74	10122	
740.92	9796.1	
741.1	9695.1	
741.28	10718	
741.46	10490	
741.64	9273.2	
741.82	9788.6	
742	10688	
742.18	10631	
742.36	9470.5	
742.54	9030.9	
742.72	11142	
742.9	9850	
743.08	9901.9	
743.26	8549.6	
743.44	11375	
743.62	11269	
743.8	9978.4	
743.98	8931.9	
744.16	10778	
744.34	10475	
744.52	9744.2	
744.7	9594.1	
744.88	10903	
745.06	10359	
745.24	9757.2	
745.42	9744.9	
745.6	10841	
745.78	10631	
745.96	8415.8	
746.14	8600.8	
746.32	11572	
746.5	10775	
746.68	9153.1	
746.86	8716.2	
747.03	11227	
747.21	9361.9	
747.39	9121.7	
747.57	8629.5	
747.75	10266	
747.93	10635	
748.11	8526.4	
748.29	8462.9	
748.47	11925	
748.65	10002	
748.83	9270.5	
749.01	9067	
749.19	10538	
749.37	9637.1	
749.55	8786.5	
749.73	8907.3	
749.91	10144	
750.09	9825.5	
750.26	8997.4	
750.44	8300.4	
750.62	10169	
750.8	10065	
750.98	8106.5	
751.16	8512	
751.34	10167	
751.52	9512.8	
751.7	9271.2	
751.88	8086.1	
752.06	10589	
752.24	10437	
752.42	8069.7	
752.59	8367.3	
752.77	9869.2	
752.95	11321	
753.13	9122.3	
753.31	8550.3	
753.49	9665.7	
753.67	10048	
753.85	8745.5	
754.03	8262.9	
754.21	10122	
754.38	10355	
754.56	8162.5	
754.74	7084.6	
754.92	8968.1	
755.1	9464.3	
755.28	6453.1	
755.46	5967.1	
755.64	9046.6	
755.82	8837	
755.99	5238.7	
756.17	5202.5	
756.35	5630.5	
756.53	7200.7	
756.71	3796.9	
756.89	4768.4	
757.07	6736.5	
757.25	5934.3	
757.42	5633.3	
757.6	6697.5	
757.78	7377.5	
757.96	6407.4	
758.14	5720.7	
758.32	5076.9	
758.5	5712.5	
758.67	6549.4	
758.85	5176.6	
759.03	5303.6	
759.21	6623.1	
759.39	6115.2	
759.57	4771.8	
759.75	6010.8	
759.92	7460.1	
760.1	6799.9	
760.28	6555.5	
760.46	6931.7	
760.64	6710.5	
760.82	6690	
760.99	6720.1	
761.17	5935.7	
761.35	7958.4	
761.53	6941.2	
761.71	6296.8	
761.89	7159	
762.06	8172.1	
762.24	7693.5	
762.42	6666.8	
762.6	6564.4	
762.78	7960.5	
762.96	8656.1	
763.13	7404.1	
763.31	7072.3	
763.49	8984.4	
763.67	8148.9	
763.85	8055.3	
764.02	8615.8	
764.2	9329.9	
764.38	8546.9	
764.56	7083.2	
764.74	7963.2	
764.91	9475.3	
765.09	8374.8	
765.27	6741.9	
765.45	6557.6	
765.63	9483.5	
765.8	9347.6	
765.98	6199.2	
766.16	6690.7	
766.34	7783.6	
766.52	7535.8	
766.69	7634.1	
766.87	6345.3	
767.05	8229.4	
767.23	8891.6	
767.41	6694.8	
767.58	6834.8	
767.76	8723	
767.94	8709.3	
768.12	6623.8	
768.29	7423.9	
768.47	8079.2	
768.65	8910	
768.83	6160.3	
769	7436.2	
769.18	7548.8	
769.36	8282.7	
769.54	7307.8	
769.72	6103.6	
769.89	8486.1	
770.07	8639	
770.25	6358.9	
770.43	7703.8	
770.6	9279.3	
770.78	9723.8	
770.96	6527.6	
771.14	7180.2	
771.31	8347.5	
771.49	7582.9	
771.67	5616.9	
771.85	5835.3	
772.02	6679.1	
772.2	7483.3	
772.38	6598.6	
772.55	6048.3	
772.73	7770	
772.91	7523.6	
773.09	6296.8	
773.26	6388.3	
773.44	7669.6	
773.62	7319.4	
773.8	5806	
773.97	5465.3	
774.15	7607.5	
774.33	7155.6	
774.5	5525.4	
774.68	5920.7	
774.86	7696.9	
775.04	7144	
775.21	5601.2	
775.39	5559.6	
775.57	7380.9	
775.74	7793.2	
775.92	5388.9	
776.1	5233.2	
776.27	7239.6	
776.45	8593.3	
776.63	5410.7	
776.81	4894	
776.98	6869.6	
777.16	8019.2	
777.34	5534.3	
777.51	5494	
777.69	6726.9	
777.87	6509.8	
778.04	5539.8	
778.22	6209.4	
778.4	6490	
778.57	7187.7	
778.75	4706.9	
778.93	5008	
779.1	6237.4	
779.28	6096.1	
779.46	4580.6	
779.64	5133.6	
779.81	7230.7	
779.99	8201.4	
780.17	5860.6	
780.34	6025.8	
780.52	6567.2	
780.69	6854.6	
780.87	5395.7	
781.05	4947.9	
781.22	6595.1	
781.4	6636.1	
781.58	4992.3	
781.75	4105.5	
781.93	6568.5	
782.11	5822.4	
782.28	5867.4	
782.46	4868.7	
782.64	5651	
782.81	6784.2	
782.99	4999.8	
783.17	4885.8	
783.34	6550.8	
783.52	5552	
783.69	5091.3	
783.87	5912.5	
784.05	5743.2	
784.22	5615.5	
784.4	5774.6	
784.58	5020.9	
784.75	6655.9	
784.93	5742.5	
785.1	4743.8	
785.28	5377.3	
785.46	6225.1	
785.63	5634.6	
785.81	4601.8	
785.99	4554	
786.16	5738.4	
786.34	6172.6	
786.51	4558.8	
786.69	4872.8	
786.87	5330.2	
787.04	5890	
787.22	4318.5	
787.39	5315.8	
787.57	5573.9	
787.75	6756.2	
787.92	5453.1	
788.1	5399.8	
788.27	5571.2	
788.45	5391.6	
788.63	5206.6	
788.8	3788.1	
788.98	5956.9	
789.15	5233.9	
789.33	3918.4	
789.5	4642.1	
789.68	6492.7	
789.86	6616.3	
790.03	4709.6	
790.21	4424.3	
790.38	6443.6	
790.56	5610.1	
790.73	4189.5	
790.91	4296	
791.09	5513.8	
791.26	6218.3	
791.44	4436.6	
791.61	3869.3	
791.79	5407.3	
791.96	5548.6	
792.14	3985.3	
792.32	3552.5	
792.49	5492.7	
792.67	5580	
792.84	4048.8	
793.02	3880.9	
793.19	5881.8	
793.37	6744.6	
793.54	3560.1	
793.72	3930.7	
793.89	6802.7	
794.07	5412.8	
794.25	4494.6	
794.42	3642	
794.6	6443.6	
794.77	6075	
794.95	4769	
795.12	4229.7	
795.3	5319.9	
795.47	6032	
795.65	4629.1	
795.82	4432.5	
796	5165	
796.17	7169.3	
796.35	4278.9	
796.52	5018.9	
796.7	5800.5	
796.87	6000.5	
797.05	5196.4	
797.22	5171.1	
797.4	5985.5	
797.57	6997.2	
797.75	4343.7	
797.92	4108.2	
798.1	6201.9	
798.27	5264.6	
798.45	3494.5	
798.62	3803.8	
798.8	5659.2	
798.97	6128.9	
799.15	4642.7	
799.32	4456.4	
799.5	4843.4	
799.67	5726.8	
799.85	4721.9	
800.02	3426.3	
800.2	5258.5	
800.37	5644.9	
800.55	4885.1	
800.72	4098.7	
800.9	6149.4	
801.07	6553.5	
801.25	5505.6	
801.42	4480.3	
801.6	6122.7	
801.77	5817.6	
801.95	4155.3	
802.12	4037.2	
802.29	5848.3	
802.47	5803.9	
802.64	4418.8	
802.82	3361.4	
802.99	5205.9	
803.17	6266.8	
803.34	4307.6	
803.52	3975.1	
803.69	6859.3	
803.87	5015.5	
804.04	4336.2	
804.21	4403.8	
804.39	6373.3	
804.56	5463.3	
804.74	3738.9	
804.91	4544.4	
805.09	5195	
805.26	5341.8	
805.44	3678.2	
805.61	4040.6	
805.78	5862.7	
805.96	5949.3	
806.13	4448.9	
806.31	4765.6	
806.48	4760.8	
806.66	5292	
806.83	4414.7	
807	4293.9	
807.18	5139	
807.35	5595.1	
807.53	4341	
807.7	3431	
807.87	6371.2	
808.05	5229.1	
808.22	4745.1	
808.4	3411.9	
808.57	5239.4	
808.74	4881.7	
808.92	3911.6	
809.09	5001.8	
809.27	5087.2	
809.44	5659.9	
809.61	3497.9	
809.79	3856.3	
809.96	6356.9	
810.14	5937.7	
810.31	3347.7	
810.48	4170.3	
810.66	5276.9	
810.83	6034	
811.01	3892.5	
811.18	4367.6	
811.35	5946.6	
811.53	4662.5	
811.7	4694.6	
811.87	4386.7	
812.05	5204.6	
812.22	5111.7	
812.39	3734.1	
812.57	3633.1	
812.74	5212.1	
812.92	6945.3	
813.09	4065.9	
813.26	4422.9	
813.44	6625.2	
813.61	5137.7	
813.78	3374.4	
813.96	4559.5	
814.13	5178.6	
814.3	4883	
814.48	4972.5	
814.65	4133.5	
814.82	6434	
815	4944.5	
815.17	4247.5	
815.34	5184.8	
815.52	5100.8	
815.69	5184.8	
815.87	4218.8	
816.04	3590.1	
816.21	5188.9	
816.38	4605.9	
816.56	4097.3	
816.73	3797.6	
816.9	6507.1	
817.08	6037.4	
817.25	3788.1	
817.42	4754	
817.6	4727.4	
817.77	5203.2	
817.94	4322.6	
818.12	3708.9	
818.29	4904.2	
818.46	7693.5	
818.64	3986	
818.81	3675.4	
818.98	4857.1	
819.16	7019.8	
819.33	4540.3	
819.5	4239.3	
819.67	5591.6	
819.85	6263.4	
820.02	4160.8	
820.19	4382.7	
820.37	5416.9	
820.54	5071.5	
820.71	4222.2	
820.88	5312.4	
821.06	5427.8	
821.23	5027.1	
821.4	4249.5	
821.58	4237.9	
821.75	5985.5	
821.92	5382.7	
822.09	3467.2	
822.27	3799.7	
822.44	5264	
822.61	5116.5	
822.79	3458.3	
822.96	6664.1	
823.13	5756.2	
823.3	4916.5	
823.48	4004.5	
823.65	3640.6	
823.82	5855.1	
823.99	4713.1	
824.17	5057.8	
824.34	3724.6	
824.51	6806.1	
824.68	5272.2	
824.86	3856.3	
825.03	4288.4	
825.2	5198.4	
825.37	6296.8	
825.55	3723.2	
825.72	4163.5	
825.89	6967.2	
826.06	6426.5	
826.24	4091.2	
826.41	4149.9	
826.58	6313.9	
826.75	5536.3	
826.92	3297.2	
827.1	3632.4	
827.27	8609	
827.44	6863.4	
827.61	3889.1	
827.79	4775.2	
827.96	4889.9	
828.13	5306.3	
828.3	4119.8	
828.47	3411.9	
828.65	5375.9	
828.82	5369.8	
828.99	5169.1	
829.16	4624.3	
829.34	5827.8	
829.51	5594.4	
829.68	4195.6	
829.85	4420.2	
830.02	6135	
830.2	5801.9	
830.37	3306.1	
830.54	5144.5	
830.71	6690.7	
830.88	5188.2	
831.05	3343	
831.23	3923.9	
831.4	6281.1	
831.57	7133.8	
831.74	3895.2	
831.91	3448.8	
832.09	5483.1	
832.26	5833.3	
832.43	4046.1	
832.6	4539.7	
832.77	5433.9	
832.94	6184.9	
833.12	3281.5	
833.29	4048.2	
833.46	5547.3	
833.63	7352.2	
833.8	4409.3	
833.97	4118.5	
834.15	5877.7	
834.32	5552	
834.49	4207.9	
834.66	4340.3	
834.83	6052.4	
835	4859.8	
835.17	3881.6	
835.35	3919.1	
835.52	5657.9	
835.69	5612.8	
835.86	4145.8	
836.03	3444.7	
836.2	5784.8	
836.37	5409.4	
836.55	4028.4	
836.72	3764.8	
836.89	5397.1	
837.06	5801.2	
837.23	4175.1	
837.4	4519.2	
837.57	6628.6	
837.75	7385.7	
837.92	3720.5	
838.09	3994.2	
838.26	5328.1	
838.43	6105	
838.6	4241.3	
838.77	3817.4	
838.94	6938.5	
839.11	6736.5	
839.29	4104.1	
839.46	3205.1	
839.63	5801.2	
839.8	5541.1	
839.97	3969	
840.14	3949.8	
840.31	5601.2	
840.48	5857.9	
840.65	3333.4	
840.82	3865.9	
841	5856.5	
841.17	5760.9	
841.34	3627	
841.51	3663.8	
841.68	5735.7	
841.85	5450.3	
842.02	3762.8	
842.19	3117	
842.36	5576.6	
842.53	5549.3	
842.7	3645.4	
842.87	4509.6	
843.05	7297.6	
843.22	5507	
843.39	3480.2	
843.56	3802.4	
843.73	5289.2	
843.9	5864.7	
844.07	5847.6	
844.24	4909	
844.41	8495.7	
844.58	5036.6	
844.75	3468.6	
844.92	3860.4	
845.09	5840.8	
845.26	5808	
845.43	3492.5	
845.6	3831.1	
845.77	5819	
845.94	5563.6	
846.12	4085	
846.29	4220.2	
846.46	6014.2	
846.63	5768.4	
846.8	3595.6	
846.97	4259.1	
847.14	6287.9	
847.31	5716.6	
847.48	4102.8	
847.65	4442.7	
847.82	6066.8	
847.99	6105.7	
848.16	4852.3	
848.33	4410.6	
848.5	5358.2	
848.67	6280.4	
848.84	3579.2	
849.01	3718.4	
849.18	5198.4	
849.35	4900.8	
849.52	4508.3	
849.69	3503.4	
849.86	5986.9	
850.03	6237.4	
850.2	3615.3	
850.37	4474.8	
850.54	6173.9	
850.71	5498.1	
850.88	4356	
851.05	3565.5	
851.22	5713.2	
851.39	6386.9	
851.56	3395.5	
851.73	4173.8	
851.9	5059.8	
852.07	6032	
852.24	3990.8	
852.41	3577.8	
852.58	5633.3	
852.75	5140.4	
852.92	4027	
853.09	3564.8	
853.26	5387.5	
853.43	6202.6	
853.6	3583.3	
853.77	3117	
853.94	6305.7	
854.11	5725.4	
854.28	5319.9	
854.44	3870	
854.61	6804	
854.78	5849.7	
854.95	3588	
855.12	4528.1	
855.29	4650.3	
855.46	6514.6	
855.63	3536.8	
855.8	4933.6	
855.97	5372.5	
856.14	6109.1	
856.31	5038.7	
856.48	3916.4	
856.65	5328.1	
856.82	5056.4	
856.99	3368.9	
857.16	3846.1	
857.33	7058.7	
857.49	5419.6	
857.66	3920.5	
857.83	4205.8	
858	5409.4	
858.17	5567.7	
858.34	3348.4	
858.51	3563.5	
858.68	6451.1	
858.85	6539.2	
859.02	4148.5	
859.19	4465.9	
859.36	5016.8	
859.52	5123.3	
859.69	3600.3	
859.86	4218.1	
860.03	5151.3	
860.2	6377.4	
860.37	3237.2	
860.54	3612.6	
860.71	6015.6	
860.88	6445	
861.05	4022.2	
861.21	4487.8	
861.38	6518.7	
861.55	4952	
861.72	3273.3	
861.89	3998.3	
862.06	6149.4	
862.23	6554.2	
862.4	3459.7	
862.56	3786.7	
862.73	5924.1	
862.9	5547.3	
863.07	4163.5	
863.24	3257.6	
863.41	4962.9	
863.58	5134.3	
863.75	3672.7	
863.91	4045.4	
864.08	6433.4	
864.25	5952.1	
864.42	4485.1	
864.59	5048.9	
864.76	6749.4	
864.93	5128.8	
865.09	3510.9	
865.26	3793.5	
865.43	6279.1	
865.6	6673.6	
865.77	3157.3	
865.94	3568.9	
866.1	6403.3	
866.27	6004	
866.44	5364.3	
866.61	3399.6	
866.78	5503.6	
866.95	5895.4	
867.11	3499.3	
867.28	3245.3	
867.45	6096.8	
867.62	5144.5	
867.79	4190.8	
867.96	3534.1	
868.12	5089.2	
868.29	6055.2	
868.46	3616.7	
868.63	4816.8	
868.8	6217	
868.97	5971.2	
869.13	3754.6	
869.3	3720.5	
869.47	5880.4	
869.64	6158.2	
869.81	3647.4	
869.97	3617.4	
870.14	5586.2	
870.31	6512.5	
870.48	3520.5	
870.65	4550.6	
870.81	5384.8	
870.98	5324	
871.15	4070	
871.32	3753.2	
871.48	5894.1	
871.65	6503.7	
871.82	3573	
871.99	3977.8	
872.16	6914.6	
872.32	6286.6	
872.49	3611.9	
872.66	3615.3	
872.83	5982.1	
872.99	5298.8	
873.16	4143.7	
873.33	3508.2	
873.5	5647.6	
873.67	5732.9	
873.83	3772.4	
874	4744.5	
874.17	5769.1	
874.34	6844.3	
874.5	4579.3	
874.67	4504.2	
874.84	6519.4	
875.01	5055.8	
875.17	5059.2	
875.34	3560.7	
875.51	5688.6	
875.68	6837.5	
875.84	4277.5	
876.01	5233.9	
876.18	5937.1	
876.34	5894.7	
876.51	3682.2	
876.68	3538.9	
876.85	5440.1	
877.01	6270.2	
877.18	5098.8	
877.35	3551.2	
877.52	5537	
877.68	4975.9	
877.85	3502	
878.02	3500.7	
878.18	5560.2	
878.35	5219.6	
878.52	2877.4	
878.69	3988.8	
878.85	6010.8	
879.02	5902.2	
879.19	5075.5	
879.35	3875.4	
879.52	5979.4	
879.69	6148	
879.86	3063.8	
880.02	3996.3	
880.19	5504.9	
880.36	6782.9	
880.52	4122.6	
880.69	4275.5	
880.86	6081.1	
881.02	6135.7	
881.19	3917.1	
881.36	3902.1	
881.52	5911.1	
881.69	5263.3	
881.86	3812	
882.02	3832.4	
882.19	6222.4	
882.36	7292.8	
882.52	3685	
882.69	4974.5	
882.86	5754.8	
883.02	5655.1	
883.19	4401.1	
883.36	4102.8	
883.52	5990.3	
883.69	6893.5	
883.86	3639.2	
884.02	3185.3	
884.19	6079.1	
884.36	5504.9	
884.52	4051.6	
884.69	3741	
884.86	5287.2	
885.02	6635.4	
885.19	4048.8	
885.36	4090.5	
885.52	5550	
885.69	5715.2	
885.86	5167.7	
886.02	4567.7	
886.19	5987.6	
886.35	5449.6	
886.52	3994.2	
886.69	5005.9	
886.85	5060.5	
887.02	6403.3	
887.19	6403.3	
887.35	6403.3	
887.52	6403.3	
887.68	6403.3	
887.85	6403.3	
888.02	6403.3	
888.18	6403.3	
888.35	6403.3	
888.51	6403.3	
888.68	6403.3	
888.85	6403.3	
889.01	6403.3	
889.18	6403.3	
889.35	6403.3	
889.51	6403.3	
889.68	6403.3	
889.84	6403.3	
890.01	6403.3	
890.17	6403.3	
890.34	6403.3	
890.51	6403.3	
890.67	6403.3	
890.84	6403.3	
891	6403.3	
891.17	6403.3	
891.34	6403.3	
891.5	6403.3	
891.67	6403.3	
891.83	6403.3	
892	6403.3	
892.16	6403.3	
892.33	6403.3	
892.5	6403.3	
892.66	6403.3	
892.83	6403.3	
892.99	6403.3	
893.16	6403.3	
893.32	6403.3	
893.49	6403.3	
893.65	6403.3	
893.82	6403.3	
893.99	6403.3	
894.15	6403.3	
894.32	6403.3	
894.48	6403.3	
894.65	6403.3	
894.81	6403.3	
894.98	6403.3	
895.14	6403.3	
895.31	6403.3	
895.47	6403.3	
895.64	6403.3	
895.81	6403.3	
895.97	6403.3	
896.14	6403.3	
896.3	6403.3	
896.47	6403.3	
896.63	6403.3	
896.8	6403.3	
896.96	6403.3	
897.13	6403.3	
897.29	6403.3	
897.46	6403.3	
897.62	6403.3	
897.79	6403.3	
897.95	6403.3	
898.12	6403.3	
898.28	6403.3	
898.45	6403.3	
898.61	6403.3	
898.78	6403.3	
898.94	6403.3	
899.11	6403.3	
899.27	6403.3	
899.44	6403.3	
899.6	6403.3	
899.77	6403.3	
899.93	6403.3	
900.1	6403.3	
900.26	6403.3	
900.43	6403.3	
900.59	6403.3	
900.76	6403.3	
900.92	6403.3	
901.09	6403.3	
901.25	6403.3	
901.42	6403.3	
901.58	6403.3	
901.75	6403.3	
901.91	6403.3	
902.07	6403.3	
902.24	6403.3	
902.4	6403.3	
902.57	6403.3	
902.73	6403.3	
902.9	6403.3	
903.06	6403.3	
903.23	6403.3	
903.39	6403.3	
903.56	6403.3	
903.72	6403.3	
903.88	6403.3	
904.05	6403.3	
904.21	6403.3	
904.38	6403.3	
904.54	6403.3	
904.71	6403.3	
904.87	6403.3	
905.03	6403.3	
905.2	6403.3	
905.36	6403.3	
905.53	6403.3	
905.69	6403.3	
905.86	6403.3	
906.02	6403.3	
906.18	6403.3	
906.35	6403.3	
906.51	6403.3	
906.68	6403.3	
906.84	6403.3	
907.01	6403.3	
907.17	6403.3	
907.33	6403.3	
907.5	6403.3	
907.66	6403.3	
907.83	6403.3	
907.99	6403.3	
908.15	6403.3	
908.32	6403.3	
908.48	6403.3	
908.65	6403.3	
908.81	6403.3	
908.97	6403.3	
909.14	6403.3	
909.3	6403.3	
909.47	6403.3	
909.63	6403.3	
909.79	6403.3	
909.96	6403.3	
910.12	6403.3	
910.28	6403.3	
910.45	6403.3	
910.61	6403.3	
910.78	6403.3	
910.94	6403.3	
911.1	6403.3	
911.27	6403.3	
911.43	6403.3	
911.59	6403.3	
911.76	6403.3	
911.92	6403.3	
912.08	6403.3	
912.25	6403.3	
912.41	6403.3	
912.57	6403.3	
912.74	6403.3	
912.9	6403.3	
913.07	6403.3	
913.23	6403.3	
913.39	6403.3	
913.56	6403.3	
913.72	6403.3	
913.88	6403.3	
914.05	6403.3	
914.21	6403.3	
914.37	6403.3	
914.54	6403.3	
914.7	6403.3	
914.86	6403.3	
915.03	6403.3	
915.19	6403.3	
