Wavelength	Intensities	
nm	a.u.	
179.22	1663.5	
179.44	1661.2	
179.65	1665.7	
179.86	1656.8	
180.08	1652.7	
180.29	3817.4	
180.51	2953.2	
180.72	4882.4	
180.94	5401.9	
181.15	2643.9	
181.37	2659.6	
181.58	4688.5	
181.79	4796.3	
182.01	2727.9	
182.22	2931.3	
182.44	4894.6	
182.65	4242.7	
182.87	3514.3	
183.08	3147	
183.29	5127.4	
183.51	4334.9	
183.72	2893.8	
183.94	3956	
184.15	4572.4	
184.37	4553.3	
184.58	2578.4	
184.79	3311.6	
185.01	4368.3	
185.22	4954	
185.44	3527.3	
185.65	3069.9	
185.86	4644.8	
186.08	4310.3	
186.29	2547.7	
186.51	2698.5	
186.72	4422.9	
186.94	5053.7	
187.15	3069.9	
187.36	3134.8	
187.58	6227.9	
187.79	4670.1	
188.01	3225.6	
188.22	4792.9	
188.43	5467.4	
188.65	4844.8	
188.86	2719	
189.08	3130	
189.29	4448.9	
189.5	4407.9	
189.72	2883.5	
189.93	2968.9	
190.15	5055.1	
190.36	5698.8	
190.57	3170.9	
190.79	3086.3	
191	5014.8	
191.22	5019.6	
191.43	3239.9	
191.64	2751.8	
191.86	5201.2	
192.07	4973.8	
192.29	2824.8	
192.5	2875.3	
192.71	5020.3	
192.93	4504.8	
193.14	2867.2	
193.35	3007.1	
193.57	4392.9	
193.78	5069.4	
194	2406.4	
194.21	2827.6	
194.42	4346.5	
194.64	4629.8	
194.85	3073.3	
195.07	3606.5	
195.28	4557.4	
195.49	4123.9	
195.71	3692.5	
195.92	2789.3	
196.13	4788.2	
196.35	4842.8	
196.56	3948.5	
196.78	3119.1	
196.99	5751.4	
197.2	5409.4	
197.42	3517.7	
197.63	3181.2	
197.84	4205.2	
198.06	4778.6	
198.27	2919	
198.48	3747.1	
198.7	4456.4	
198.91	4610.7	
199.13	3142.9	
199.34	3157.3	
199.55	4982.7	
199.77	4083.6	
199.98	2863.7	
200.19	3177.1	
200.41	4549.9	
200.62	4326	
200.83	3205.1	
201.05	3441.3	
201.26	4603.2	
201.47	4399	
201.69	2839.8	
201.9	2766.8	
202.11	4674.8	
202.33	5306.3	
202.54	2983.9	
202.76	3284.3	
202.97	4579.9	
203.18	4735.6	
203.4	3234.4	
203.61	3215.3	
203.82	4669.4	
204.04	4431.1	
204.25	3226.2	
204.46	3092.4	
204.68	4597.7	
204.89	4748.6	
205.1	3054.9	
205.32	2719	
205.53	4858.5	
205.74	4966.3	
205.96	2444.6	
206.17	3178.4	
206.38	4885.8	
206.6	4924	
206.81	3588	
207.02	2966.1	
207.24	4752.7	
207.45	5131.5	
207.66	3031	
207.88	2635.7	
208.09	4749.9	
208.3	4579.9	
208.52	2809.1	
208.73	3070.6	
208.94	4629.1	
209.15	5105.6	
209.37	3025.5	
209.58	3128.6	
209.79	4991.6	
210.01	4524.6	
210.22	2554.5	
210.43	2575	
210.65	4562.2	
210.86	4881.7	
211.07	3014.6	
211.29	2768.9	
211.5	4824.3	
211.71	4565.6	
211.93	2858.3	
212.14	2844.6	
212.35	4558.1	
212.56	4621.6	
212.78	3142.9	
212.99	2680.8	
213.2	5274.2	
213.42	4458.4	
213.63	2910.2	
213.84	3054.2	
214.06	4242.7	
214.27	4239.3	
214.48	3001	
214.69	3201	
214.91	5108.3	
215.12	5128.8	
215.33	3195.5	
215.55	3450.1	
215.76	5474.2	
215.97	4835.3	
216.18	3102.7	
216.4	3128.6	
216.61	4345.1	
216.82	4929.5	
217.04	2817.3	
217.25	2897.2	
217.46	5046.9	
217.67	4851.6	
217.89	2580.4	
218.1	2655.5	
218.31	4697.4	
218.53	4792.9	
218.74	3033.7	
218.95	2872.6	
219.16	4595	
219.38	5251	
219.59	2855.6	
219.8	3341.6	
220.01	5559.6	
220.23	4630.5	
220.44	3524.6	
220.65	2785.9	
220.87	4709.6	
221.08	5094.7	
221.29	2680.8	
221.5	3371.6	
221.72	5945.9	
221.93	4396.3	
222.14	3136.8	
222.35	3637.2	
222.57	4606.6	
222.78	4946.5	
222.99	3053.5	
223.2	3209.8	
223.42	4864.6	
223.63	4876.2	
223.84	2409.1	
224.05	2435	
224.27	5550	
224.48	5239.4	
224.69	3670	
224.9	3162.7	
225.12	4719.9	
225.33	4535.6	
225.54	2600.9	
225.75	2891	
225.97	4386.7	
226.18	4526.7	
226.39	3078.1	
226.6	2863.1	
226.82	4415.4	
227.03	4321.9	
227.24	3110.2	
227.45	2675.3	
227.67	4901.5	
227.88	5161.6	
228.09	3511.6	
228.3	3489.7	
228.52	4869.4	
228.73	4554	
228.94	2919.7	
229.15	2704.7	
229.36	4591.5	
229.58	4557.4	
229.79	2966.1	
230	3393.5	
230.21	5407.3	
230.43	4658.4	
230.64	3161.4	
230.85	3268.6	
231.06	4947.9	
231.28	4913.8	
231.49	2680.8	
231.7	3143.6	
231.91	4898.1	
232.12	4640	
232.34	2754.5	
232.55	3021.4	
232.76	5026.4	
232.97	4691.9	
233.18	2815.3	
233.4	3161.4	
233.61	4708.3	
233.82	4435.2	
234.03	2950.4	
234.25	2936.8	
234.46	6107.7	
234.67	4714.4	
234.88	3231	
235.09	2875.3	
235.31	4801.1	
235.52	4554.7	
235.73	3132	
235.94	2738.8	
236.15	4448.9	
236.37	5372.5	
236.58	2832.3	
236.79	3039.2	
237	4853	
237.21	4244.8	
237.43	3222.1	
237.64	2605.7	
237.85	7385.7	
238.06	4321.9	
238.27	3202.3	
238.48	2736.8	
238.7	4903.5	
238.91	4568.3	
239.12	2976.4	
239.33	3155.2	
239.54	4517.1	
239.76	4551.3	
239.97	3041.2	
240.18	3021.4	
240.39	5478.3	
240.6	4756.7	
240.82	3215.3	
241.03	2694.4	
241.24	4642.1	
241.45	5209.3	
241.66	2801.6	
241.87	3248.8	
242.09	5130.2	
242.3	5394.3	
242.51	3309.5	
242.72	3013.9	
242.93	4887.1	
243.14	4611.3	
243.36	3467.2	
243.57	3695.2	
243.78	5142.4	
243.99	4851	
244.2	3038.5	
244.41	2781.8	
244.63	4323.9	
244.84	4786.8	
245.05	3239.9	
245.26	2982.5	
245.47	4860.5	
245.68	4965	
245.9	3816.7	
246.11	3213.3	
246.32	4471.4	
246.53	4781.3	
246.74	4672.1	
246.95	2652.8	
247.16	4368.3	
247.38	4634.6	
247.59	2696.5	
247.8	3033	
248.01	4321.9	
248.22	4578.6	
248.43	2838.5	
248.64	3018	
248.86	4259.8	
249.07	4460.5	
249.28	2771.6	
249.49	3167.5	
249.7	4965.6	
249.91	5007.3	
250.12	2653.5	
250.34	2729.9	
250.55	4706.2	
250.76	4639.3	
250.97	3120.4	
251.18	3194.1	
251.39	5036.6	
251.6	4759.5	
251.81	3173.7	
252.03	3158	
252.24	4533.5	
252.45	4878.9	
252.66	2710.1	
252.87	3347.1	
253.08	4607.9	
253.29	5684.5	
253.5	2797.5	
253.72	3578.5	
253.93	4522.6	
254.14	5327.4	
254.35	2925.2	
254.56	2987.3	
254.77	4775.2	
254.98	4364.9	
255.19	2889	
255.41	3580.5	
255.62	4747.9	
255.83	5051	
256.04	3258.3	
256.25	3121.1	
256.46	5455.8	
256.67	4410	
256.88	3149.1	
257.09	3404.4	
257.31	4304.8	
257.52	4416.8	
257.73	3809.9	
257.94	2930.6	
258.15	4557.4	
258.36	4610	
258.57	3562.1	
258.78	2390	
258.99	4992.3	
259.2	4474.1	
259.41	2871.3	
259.63	2990	
259.84	5193.6	
260.05	5447.6	
260.26	3657	
260.47	2845.3	
260.68	4992.9	
260.89	4496.7	
261.1	3476.8	
261.31	2803	
261.52	5107.6	
261.73	5255.1	
261.95	3642	
262.16	3210.5	
262.37	5051.7	
262.58	5137	
262.79	3610.6	
263	2975	
263.21	4611.3	
263.42	4232.5	
263.63	3181.9	
263.84	2935.4	
264.05	5006.6	
264.26	5217.5	
264.47	3538.9	
264.69	3147.7	
264.9	5189.6	
265.11	4741	
265.32	2880.1	
265.53	2902.7	
265.74	4748.6	
265.95	4188.8	
266.16	3040.6	
266.37	3338.2	
266.58	4721.9	
266.79	4410.6	
267	2938.8	
267.21	2745	
267.42	4332.1	
267.63	4588.1	
267.84	2991.4	
268.06	2689.7	
268.27	4995.7	
268.48	5084.4	
268.69	2985.9	
268.9	3427.6	
269.11	5073.5	
269.32	4184	
269.53	3023.5	
269.74	2825.5	
269.95	4823	
270.16	4160.8	
270.37	3051.5	
270.58	3455.6	
270.79	4534.2	
271	5009.3	
271.21	3243.3	
271.42	3090.4	
271.63	4786.1	
271.84	4288.4	
272.05	2506.7	
272.26	2783.2	
272.47	4634.6	
272.68	4727.4	
272.89	3003	
273.11	3317.7	
273.32	4442.7	
273.53	5246.2	
273.74	3228.3	
273.95	3194.1	
274.16	4889.9	
274.37	4582	
274.58	3362.8	
274.79	2779.1	
275	4777.2	
275.21	5020.3	
275.42	3876.1	
275.63	3413.3	
275.84	4851.6	
276.05	5726.1	
276.26	3188.7	
276.47	2985.9	
276.68	4537.6	
276.89	5286.5	
277.1	3435.8	
277.31	2722.4	
277.52	4752	
277.73	5031.2	
277.94	2691	
278.15	2962	
278.36	4784.7	
278.57	4400.4	
278.78	2963.4	
278.99	3222.8	
279.2	4427	
279.41	4330.8	
279.62	3741.6	
279.83	2796.8	
280.04	5431.9	
280.25	4335.5	
280.46	3741.6	
280.67	3009.1	
280.88	4404.5	
281.09	5117.9	
281.3	3167.5	
281.51	3906.8	
281.72	4427	
281.93	4919.2	
282.14	2831.7	
282.35	3105.4	
282.56	5046.2	
282.77	4941.7	
282.98	2976.4	
283.19	3547.8	
283.4	5803.3	
283.61	4596.3	
283.82	2810.5	
284.03	3639.9	
284.24	4795	
284.45	5027.8	
284.66	3729.4	
284.87	3517	
285.08	5035.3	
285.29	5107	
285.5	2693.1	
285.71	2998.2	
285.92	4997	
286.12	5415.5	
286.33	3650.8	
286.54	3003.7	
286.75	4930.8	
286.96	4485.1	
287.17	2815.3	
287.38	3478.1	
287.59	4449.6	
287.8	4406.5	
288.01	2975.7	
288.22	3351.2	
288.43	4882.4	
288.64	4176.5	
288.85	3456.3	
289.06	3274.7	
289.27	4889.9	
289.48	5192.3	
289.69	3668.6	
289.9	3331.4	
290.11	5128.8	
290.32	4447.5	
290.53	3429	
290.74	3280.8	
290.94	4962.2	
291.15	4901.5	
291.36	2908.8	
291.57	3362.1	
291.78	4478.9	
291.99	4164.2	
292.2	2878.8	
292.41	3244	
292.62	5028.4	
292.83	4883	
293.04	3966.9	
293.25	2822.8	
293.46	4536.3	
293.67	5028.4	
293.88	2848	
294.09	2843.3	
294.29	4342.4	
294.5	4743.1	
294.71	3089.7	
294.92	2924.5	
295.13	4547.9	
295.34	5436	
295.55	2648	
295.76	2627.5	
295.97	4911.7	
296.18	5378	
296.39	2725.2	
296.6	2886.3	
296.81	4689.2	
297.01	4956.8	
297.22	2981.8	
297.43	2878.8	
297.64	4500.1	
297.85	4351.9	
298.06	2514.2	
298.27	2647.3	
298.48	4596.3	
298.69	4432.5	
298.9	3112.2	
299.11	2796.8	
299.31	4303.5	
299.52	4279.6	
299.73	3282.2	
299.94	3177.1	
300.15	4601.8	
300.36	4411.3	
300.57	3228.3	
300.78	3220.1	
300.99	4530.8	
301.2	4728.1	
301.4	2918.4	
301.61	3074.7	
301.82	4814.1	
302.03	4890.5	
302.24	3428.3	
302.45	2768.9	
302.66	4805.9	
302.87	5048.9	
303.08	2916.3	
303.29	3813.3	
303.49	4546.5	
303.7	4560.1	
303.91	2669.9	
304.12	3697.9	
304.33	4263.2	
304.54	4740.4	
304.75	2939.5	
304.96	2793.4	
305.16	4828.4	
305.37	5317.2	
305.58	2613.2	
305.79	2648	
306	4888.5	
306.21	4188.8	
306.42	2886.3	
306.63	4149.9	
306.83	4520.5	
307.04	4904.2	
307.25	3158	
307.46	3050.8	
307.67	4132.8	
307.88	4846.2	
308.09	2903.3	
308.29	2925.9	
308.5	4676.2	
308.71	4970.4	
308.92	3043.3	
309.13	2780.5	
309.34	4626.4	
309.55	4564.9	
309.75	3522.5	
309.96	3196.9	
310.17	4860.5	
310.38	4375.8	
310.59	3334.1	
310.8	2691.7	
311.01	4536.9	
311.21	4560.1	
311.42	2752.5	
311.63	2896.5	
311.84	4501.4	
312.05	4646.2	
312.26	3232.4	
312.46	3437.2	
312.67	4484.4	
312.88	4233.2	
313.09	2790	
313.3	2767.5	
313.51	5132.2	
313.71	5373.9	
313.92	2810.5	
314.13	2940.2	
314.34	4770.4	
314.55	4618.9	
314.76	3452.2	
314.96	3118.4	
315.17	4762.2	
315.38	4797.7	
315.59	2822.1	
315.8	2709.5	
316.01	5175.9	
316.21	5265.3	
316.42	2786.6	
316.63	3084.9	
316.84	4579.3	
317.05	5026.4	
317.26	3236.5	
317.46	2948.4	
317.67	4619.5	
317.88	4865.3	
318.09	3501.3	
318.3	2637.1	
318.5	4519.9	
318.71	4817.5	
318.92	4211.3	
319.13	3264.5	
319.34	4937.7	
319.54	5072.8	
319.75	2666.5	
319.96	2545.6	
320.17	4816.8	
320.38	4984.1	
320.58	2631.6	
320.79	3050.8	
321	5028.4	
321.21	5050.3	
321.42	3106.1	
321.62	2644.6	
321.83	4398.4	
322.04	4622.3	
322.25	3015.3	
322.46	2828.2	
322.66	4627	
322.87	4853.7	
323.08	3383.9	
323.29	2701.3	
323.5	5325.4	
323.7	4323.3	
323.91	3647.4	
324.12	3392.1	
324.33	4730.8	
324.53	4851	
324.74	3238.5	
324.95	3308.2	
325.16	4300.7	
325.37	4502.8	
325.57	2859.6	
325.78	2887.6	
325.99	4747.9	
326.2	4296	
326.4	3867.9	
326.61	2638.5	
326.82	4554	
327.03	4693.9	
327.24	3760.1	
327.44	3529.3	
327.65	4876.2	
327.86	4006.5	
328.07	3262.4	
328.27	2746.3	
328.48	5074.2	
328.69	4266.6	
328.9	3835.8	
329.1	2936.1	
329.31	4571.7	
329.52	5152	
329.73	2837.8	
329.93	3067.9	
330.14	4641.4	
330.35	4764.3	
330.56	4325.3	
330.76	3404.4	
330.97	4540.3	
331.18	4706.9	
331.39	3109.5	
331.59	2571.6	
331.8	5066.7	
332.01	5091.9	
332.22	2921.8	
332.42	3196.2	
332.63	4650.3	
332.84	4367.6	
333.05	3126.6	
333.25	2830.3	
333.46	4422.2	
333.67	4633.9	
333.88	2977.7	
334.08	3155.9	
334.29	5960.3	
334.5	4997.7	
334.7	2720.4	
334.91	3865.2	
335.12	4274.8	
335.33	4887.8	
335.53	3046	
335.74	4254.3	
335.95	4520.5	
336.16	4278.2	
336.36	3101.3	
336.57	3473.4	
336.78	4259.8	
336.98	4956.1	
337.19	3714.3	
337.4	3033.7	
337.61	5430.5	
337.81	4268.6	
338.02	2868.5	
338.23	3551.2	
338.43	5177.9	
338.64	4416.8	
338.85	2826.9	
339.05	3602.4	
339.26	5279	
339.47	4227.7	
339.68	2826.9	
339.88	3949.8	
340.09	4821.6	
340.3	4959.5	
340.5	3215.3	
340.71	2584.5	
340.92	4295.3	
341.13	5086.5	
341.33	2732.7	
341.54	3250.8	
341.75	4823	
341.95	4457.1	
342.16	3108.8	
342.37	3330.7	
342.57	4323.3	
342.78	4544.4	
342.99	3312.9	
343.19	2636.4	
343.4	4904.9	
343.61	4803.2	
343.81	3011.9	
344.02	2714.9	
344.23	4906.9	
344.43	5070.1	
344.64	3404.4	
344.85	3350.5	
345.06	4812.7	
345.26	5012.7	
345.47	3232.4	
345.68	3685.7	
345.88	4218.1	
346.09	4934.9	
346.3	3289	
346.5	2548.4	
346.71	4541.7	
346.92	4406.5	
347.12	2704	
347.33	3175.7	
347.54	5016.2	
347.74	5247.6	
347.95	3193.5	
348.16	2519	
348.36	4494.6	
348.57	4307.6	
348.78	3250.1	
348.98	3411.9	
349.19	4584.7	
349.39	4270.7	
349.6	2679.4	
349.81	2869.9	
350.01	4805.2	
350.22	4388.1	
350.43	3161.4	
350.63	3667.9	
350.84	4624.3	
351.05	4449.6	
351.25	2813.9	
351.46	2627.5	
351.67	4967	
351.87	4390.2	
352.08	3041.9	
352.29	3357.3	
352.49	4928.8	
352.7	4737	
352.9	2796.8	
353.11	3390.1	
353.32	5384.8	
353.52	4502.1	
353.73	2772.9	
353.94	3394.2	
354.14	4843.4	
354.35	4681	
354.55	2828.9	
354.76	3119.7	
354.97	4823.6	
355.17	4603.2	
355.38	2780.5	
355.59	3610.6	
355.79	4451.6	
356	4634.6	
356.2	3130	
356.41	2815.3	
356.62	4231.8	
356.82	4598.4	
357.03	3349.8	
357.24	3011.9	
357.44	4442.7	
357.65	4534.2	
357.85	3917.1	
358.06	3206.4	
358.27	4276.2	
358.47	4392.2	
358.68	2751.1	
358.88	3297.2	
359.09	4773.1	
359.3	5011.4	
359.5	3822.9	
359.71	3420.1	
359.91	5321.3	
360.12	4881	
360.33	3338.9	
360.53	3631	
360.74	4519.2	
360.94	4539	
361.15	3539.6	
361.36	2983.9	
361.56	5062.6	
361.77	4693.9	
361.97	3835.2	
362.18	3130.7	
362.38	5108.3	
362.59	4375.1	
362.8	2924.5	
363	2794.1	
363.21	4231.1	
363.41	4787.5	
363.62	3277.4	
363.83	3980.6	
364.03	4925.4	
364.24	5466.7	
364.44	4092.5	
364.65	4114.4	
364.85	4717.2	
365.06	4478.9	
365.27	3099.3	
365.47	3196.9	
365.68	5368.4	
365.88	4704.9	
366.09	3461.1	
366.29	3177.1	
366.5	4818.9	
366.71	5139	
366.91	4154	
367.12	3551.2	
367.32	5670.8	
367.53	5130.8	
367.73	3574.4	
367.94	4223.6	
368.14	5062.6	
368.35	5572.5	
368.56	3560.1	
368.76	3013.9	
368.97	5201.8	
369.17	6225.8	
369.38	3129.3	
369.58	3375.1	
369.79	4423.6	
369.99	5410.7	
370.2	4104.1	
370.4	3381.2	
370.61	4870.8	
370.82	5821.7	
371.02	3353.9	
371.23	2828.2	
371.43	4425	
371.64	5416.9	
371.84	3418.1	
372.05	4174.4	
372.25	6194.4	
372.46	5196.4	
372.66	3474.7	
372.87	3433.8	
373.07	5205.3	
373.28	6450.4	
373.48	4177.9	
373.69	3966.2	
373.9	4901.5	
374.1	4898.1	
374.31	4174.4	
374.51	3814	
374.72	5560.2	
374.92	4702.1	
375.13	4255.7	
375.33	3764.2	
375.54	5178.6	
375.74	4831.8	
375.95	3906.8	
376.15	4690.5	
376.36	5344.5	
376.56	5228.5	
376.77	3866.6	
376.97	4163.5	
377.18	6104.3	
377.38	5453.7	
377.59	4369.7	
377.79	3578.5	
378	5391.6	
378.2	5619.6	
378.41	3652.9	
378.61	3580.5	
378.82	5720.7	
379.02	5083.7	
379.23	3820.8	
379.43	4569	
379.64	5866.7	
379.84	5509.7	
380.05	3721.2	
380.25	3608.5	
380.46	5489.9	
380.66	5247.6	
380.87	4696.7	
381.07	4812	
381.28	5925.5	
381.48	5534.3	
381.69	3708.9	
381.89	3814.7	
382.1	4731.5	
382.3	5585.5	
382.51	4513	
382.71	5068	
382.91	5452.4	
383.12	5749.3	
383.32	3966.2	
383.53	4010.6	
383.73	5358.9	
383.94	5272.2	
384.14	4045.4	
384.35	3383.2	
384.55	5164.3	
384.76	5437.4	
384.96	3947.8	
385.17	4117.1	
385.37	5513.8	
385.58	4888.5	
385.78	4111.6	
385.98	3297.2	
386.19	5095.3	
386.39	5309.7	
386.6	3747.8	
386.8	3908.9	
387.01	5515.9	
387.21	5433.3	
387.42	4185.4	
387.62	4615.4	
387.83	5113.8	
388.03	5426.4	
388.23	4040.6	
388.44	4627.7	
388.64	4907.6	
388.85	4961.5	
389.05	4347.8	
389.26	4720.6	
389.46	6556.9	
389.67	6053.1	
389.87	4399.7	
390.07	4324.6	
390.28	5324.7	
390.48	5033.2	
390.69	3801	
390.89	3987.4	
391.1	5277.6	
391.3	5938.4	
391.5	4973.8	
391.71	5298.1	
391.91	5758.2	
392.12	6331.6	
392.32	5012.7	
392.53	4399.7	
392.73	5352.7	
392.93	5429.2	
393.14	4237.9	
393.34	4681	
393.55	5722	
393.75	5369.8	
393.95	4115.1	
394.16	4013.3	
394.36	5269.4	
394.57	5683.1	
394.77	3764.8	
394.98	3948.5	
395.18	5270.8	
395.38	5362.3	
395.59	4845.5	
395.79	4067.9	
396	5509	
396.2	5868.1	
396.4	4807.9	
396.61	4776.5	
396.81	5995.8	
397.02	5465.3	
397.22	5013.4	
397.42	5076.2	
397.63	6158.9	
397.83	5494	
398.04	4203.8	
398.24	4655.7	
398.44	5838.1	
398.65	5267.4	
398.85	4091.2	
399.05	4128	
399.26	5617.6	
399.46	6819.1	
399.67	4515.1	
399.87	4320.5	
400.07	5990.3	
400.28	6118	
400.48	4454.3	
400.69	5251.7	
400.89	6322.8	
401.09	6716.7	
401.3	4395.6	
401.5	5288.5	
401.7	6950.8	
401.91	7051.2	
402.11	4830.5	
402.32	4878.3	
402.52	6452.5	
402.72	6277.7	
402.93	4995	
403.13	4078.9	
403.33	6813.6	
403.54	5677	
403.74	4504.8	
403.94	5096.7	
404.15	5770.5	
404.35	6617.7	
404.56	4390.8	
404.76	5645.6	
404.96	6234	
405.17	6014.9	
405.37	5328.8	
405.57	4969.7	
405.78	6442.9	
405.98	5952.1	
406.18	4604.5	
406.39	5188.9	
406.59	6337.1	
406.79	5869.5	
407	4356.7	
407.2	4406.5	
407.4	6533.7	
407.61	6384.2	
407.81	4584	
408.01	6143.2	
408.22	5613.5	
408.42	7150.1	
408.62	5663.3	
408.83	5330.9	
409.03	6470.9	
409.23	6438.1	
409.44	5396.4	
409.64	5632.6	
409.84	7367.9	
410.05	7320.8	
410.25	5762.3	
410.45	5615.5	
410.66	7180.2	
410.86	8839.7	
411.06	6039.5	
411.27	5991	
411.47	8891.6	
411.67	7416.4	
411.88	6214.9	
412.08	6417.7	
412.28	7818.5	
412.49	8248.5	
412.69	6104.3	
412.89	6190.3	
413.09	8172.1	
413.3	8114.7	
413.5	6405.4	
413.7	6165.8	
413.91	7614.3	
414.11	8239.7	
414.31	6318	
414.52	6706.4	
414.72	8070.4	
414.92	7971.4	
415.12	6345.3	
415.33	6883.2	
415.53	8401.5	
415.73	8497	
415.94	6906.4	
416.14	6597.9	
416.34	7778.9	
416.55	7530.4	
416.75	7428	
416.95	7209.5	
417.15	8565.3	
417.36	8829.5	
417.56	7774.8	
417.76	7072.3	
417.97	8908	
418.17	8639.7	
418.37	6812.9	
418.57	6946.7	
418.78	8597.4	
418.98	8282	
419.18	7594.6	
419.38	7305.8	
419.59	8213	
419.79	7884	
419.99	6775.4	
420.2	6905.8	
420.4	8559.1	
420.6	8643.8	
420.8	6696.9	
421.01	6623.1	
421.21	8768	
421.41	8602.8	
421.61	7036.1	
421.82	6878.4	
422.02	8284.7	
422.22	8856.1	
422.42	7460.8	
422.63	6978.1	
422.83	8336.6	
423.03	9145.5	
423.23	7071.6	
423.44	6332.3	
423.64	8301.8	
423.84	7948.8	
424.04	6664.1	
424.25	6477	
424.45	8819.2	
424.65	8681.3	
424.85	6309.8	
425.06	6655.9	
425.26	8903.2	
425.46	8107.9	
425.66	7092.1	
425.87	6836.8	
426.07	8583.7	
426.27	8505.2	
426.47	6792.4	
426.67	6349.4	
426.88	8772.8	
427.08	8458.1	
427.28	7113.3	
427.48	6262.7	
427.69	7712	
427.89	8075.8	
428.09	6911.2	
428.29	6357.6	
428.5	8589.9	
428.7	8297.7	
428.9	6392.4	
429.1	6721.4	
429.3	8280.6	
429.51	8503.8	
429.71	6516.6	
429.91	7243	
430.11	8669.1	
430.31	8798.1	
430.52	6868.2	
430.72	7124.2	
430.92	9052.7	
431.12	8578.3	
431.32	6709.1	
431.53	6929.6	
431.73	7914.7	
431.93	9000.1	
432.13	6598.6	
432.33	6556.2	
432.54	8322.3	
432.74	8473.8	
432.94	6743.3	
433.14	7363.1	
433.34	8826.7	
433.55	8576.9	
433.75	7409.6	
433.95	8679.3	
434.15	8689.5	
434.35	8480	
434.56	6832.7	
434.76	6682.5	
434.96	8724.3	
435.16	9004.9	
435.36	6838.9	
435.56	7834.2	
435.77	8661.5	
435.97	8822	
436.17	8191.9	
436.37	7752.9	
436.57	8621.9	
436.78	8726.4	
436.98	7599.3	
437.18	8157.1	
437.38	9237.7	
437.58	8666.3	
437.78	8258.8	
437.99	7247.8	
438.19	9009	
438.39	9525.1	
438.59	7144.7	
438.79	6606.7	
438.99	9327.8	
439.2	8525	
439.4	6673.6	
439.6	6804.7	
439.8	8970.1	
440	9747.6	
440.2	7866.9	
440.4	7927	
440.61	9502.6	
440.81	9936.1	
441.01	7496.9	
441.21	8240.3	
441.41	10094	
441.61	9596.8	
441.81	8436.9	
442.02	9073.9	
442.22	10180	
442.42	9657.5	
442.62	7659.4	
442.82	7508.5	
443.02	10050	
443.22	9440.5	
443.43	8047.2	
443.63	7763.2	
443.83	9340.1	
444.03	9287.5	
444.23	8731.9	
444.43	8322.3	
444.63	9809.1	
444.83	10490	
445.04	8029.4	
445.24	8979	
445.44	9956.5	
445.64	9895.8	
445.84	8260.8	
446.04	8354.3	
446.24	9220.6	
446.44	9946.3	
446.65	7525.6	
446.85	7916.8	
447.05	9256.8	
447.25	9885.5	
447.45	7970	
447.65	7587.7	
447.85	9441.8	
448.05	9023.4	
448.25	8282.7	
448.46	8186.4	
448.66	9482.1	
448.86	9213.8	
449.06	7659.4	
449.26	8243.1	
449.46	9884.9	
449.66	9056.8	
449.86	8191.2	
450.06	8011.7	
450.26	9354.4	
450.47	9740.8	
450.67	8177.5	
450.87	8453.3	
451.07	10016	
451.27	9734	
451.47	7759.8	
451.67	8486.8	
451.87	9613.8	
452.07	10170	
452.27	8058.8	
452.47	7985.7	
452.67	9643.9	
452.88	10015	
453.08	7548.1	
453.28	8813.8	
453.48	10662	
453.68	9517.6	
453.88	7957.7	
454.08	8043.1	
454.28	10108	
454.48	9792	
454.68	8538	
454.88	8822	
455.08	10131	
455.28	10169	
455.48	8011	
455.68	8650.6	
455.89	10677	
456.09	10417	
456.29	8387.1	
456.49	8531.2	
456.69	10647	
456.89	10077	
457.09	8865.7	
457.29	9284.1	
457.49	10491	
457.69	10726	
457.89	9095	
458.09	8490.2	
458.29	10472	
458.49	11142	
458.69	9443.2	
458.89	9142.8	
459.09	11316	
459.29	11310	
459.49	9088.9	
459.69	9688.3	
459.9	10905	
460.1	10791	
460.3	8850	
460.5	8809.7	
460.7	10986	
460.9	10666	
461.1	8680.7	
461.3	9695.8	
461.5	11706	
461.7	11266	
461.9	9385.8	
462.1	9430.9	
462.3	11265	
462.5	11501	
462.7	9420.7	
462.9	9567.4	
463.1	12351	
463.3	12303	
463.5	9853.5	
463.7	10685	
463.9	11575	
464.1	12006	
464.3	10282	
464.5	10334	
464.7	12227	
464.9	12107	
465.1	11174	
465.3	10630	
465.5	12368	
465.7	12574	
465.9	10920	
466.1	10454	
466.3	12454	
466.5	12208	
466.7	11641	
466.9	10584	
467.1	12501	
467.3	13166	
467.5	11848	
467.7	10847	
467.9	13276	
468.1	14104	
468.3	11247	
468.5	11787	
468.7	12621	
468.9	12551	
469.1	11236	
469.3	11811	
469.5	14071	
469.7	12403	
469.9	11452	
470.1	11190	
470.3	12854	
470.5	12758	
470.7	11918	
470.9	11072	
471.1	12689	
471.3	12602	
471.5	10984	
471.69	12211	
471.89	12427	
472.09	11960	
472.29	11495	
472.49	11524	
472.69	12273	
472.89	12654	
473.09	10901	
473.29	10682	
473.49	12327	
473.69	12123	
473.89	11344	
474.09	10859	
474.29	13171	
474.49	12835	
474.69	11556	
474.89	10972	
475.09	12277	
475.29	12184	
475.49	10549	
475.69	10777	
475.88	13251	
476.08	12509	
476.28	10476	
476.48	10507	
476.68	12693	
476.88	12454	
477.08	10553	
477.28	10793	
477.48	12028	
477.68	12486	
477.88	10388	
478.08	10554	
478.28	13041	
478.48	12248	
478.67	10806	
478.87	10119	
479.07	12823	
479.27	12370	
479.47	10734	
479.67	10814	
479.87	12679	
480.07	13015	
480.27	10402	
480.47	11417	
480.67	12296	
480.87	12906	
481.06	10556	
481.26	11232	
481.46	12372	
481.66	12325	
481.86	10882	
482.06	11501	
482.26	12211	
482.46	12735	
482.66	10783	
482.86	10574	
483.05	12592	
483.25	11837	
483.45	12550	
483.65	10897	
483.85	12198	
484.05	12450	
484.25	11196	
484.45	11732	
484.65	12910	
484.84	13195	
485.04	10887	
485.24	10993	
485.44	13435	
485.64	12200	
485.84	10692	
486.04	11643	
486.24	12469	
486.44	12719	
486.63	10591	
486.83	11413	
487.03	12719	
487.23	12865	
487.43	10816	
487.63	12439	
487.83	12939	
488.02	13501	
488.22	11601	
488.42	12090	
488.62	13546	
488.82	12749	
489.02	11310	
489.22	11442	
489.41	13283	
489.61	13365	
489.81	11271	
490.01	11210	
490.21	13527	
490.41	13991	
490.61	11325	
490.8	11320	
491	13166	
491.2	12492	
491.4	11548	
491.6	10919	
491.8	12943	
491.99	12693	
492.19	10724	
492.39	10941	
492.59	13311	
492.79	13416	
492.99	11962	
493.18	11409	
493.38	13760	
493.58	14501	
493.78	12093	
493.98	11834	
494.18	13722	
494.37	13431	
494.57	12446	
494.77	12362	
494.97	14141	
495.17	14566	
495.37	12394	
495.56	12627	
495.76	14817	
495.96	14554	
496.16	13311	
496.36	12704	
496.55	14781	
496.75	14370	
496.95	12894	
497.15	12912	
497.35	14616	
497.54	14675	
497.74	12762	
497.94	14062	
498.14	15274	
498.34	15155	
498.53	12736	
498.73	13192	
498.93	14461	
499.13	14838	
499.33	13354	
499.52	13301	
499.72	15238	
499.92	15198	
500.12	13082	
500.32	13400	
500.51	15229	
500.71	15107	
500.91	13837	
501.11	13495	
501.31	15180	
501.5	15424	
501.7	14150	
501.9	13300	
502.1	15074	
502.29	15412	
502.49	13924	
502.69	13893	
502.89	15131	
503.09	15106	
503.28	12798	
503.48	12742	
503.68	14520	
503.88	14466	
504.07	13575	
504.27	12999	
504.47	14833	
504.67	14743	
504.86	13394	
505.06	13143	
505.26	14315	
505.46	15486	
505.65	12928	
505.85	12912	
506.05	14200	
506.25	14501	
506.44	12240	
506.64	12691	
506.84	13960	
507.04	14437	
507.23	12344	
507.43	12664	
507.63	15141	
507.83	14045	
508.02	12774	
508.22	12398	
508.42	15412	
508.62	13895	
508.81	12521	
509.01	13009	
509.21	13741	
509.4	14072	
509.6	12664	
509.8	12287	
510	13884	
510.19	14983	
510.39	12202	
510.59	12536	
510.79	13907	
510.98	14911	
511.18	12463	
511.38	12542	
511.57	14548	
511.77	14311	
511.97	12865	
512.17	12153	
512.36	14289	
512.56	14183	
512.76	12154	
512.95	11897	
513.15	14487	
513.35	13560	
513.55	12798	
513.74	12225	
513.94	14400	
514.14	14060	
514.33	12979	
514.53	12620	
514.73	13941	
514.92	14095	
515.12	12337	
515.32	12350	
515.51	14220	
515.71	14446	
515.91	13491	
516.11	12441	
516.3	15494	
516.5	13987	
516.7	12860	
516.89	13054	
517.09	14031	
517.29	14126	
517.48	12941	
517.68	12484	
517.88	13687	
518.07	14329	
518.27	12905	
518.47	12228	
518.66	14694	
518.86	13787	
519.06	12043	
519.25	12402	
519.45	13997	
519.65	15208	
519.84	13048	
520.04	13440	
520.24	15476	
520.43	14390	
520.63	12570	
520.83	12344	
521.02	13666	
521.22	14035	
521.42	12654	
521.61	12909	
521.81	13859	
522.01	14065	
522.2	12591	
522.4	12452	
522.6	14509	
522.79	13592	
522.99	12626	
523.18	12242	
523.38	14534	
523.58	14601	
523.77	13907	
523.97	12612	
524.17	15960	
524.36	15641	
524.56	13885	
524.76	13576	
524.95	15061	
525.15	14659	
525.34	13529	
525.54	13605	
525.74	15470	
525.93	14880	
526.13	14496	
526.33	13758	
526.52	15864	
526.72	15497	
526.91	14672	
527.11	14172	
527.31	15934	
527.5	16244	
527.7	14285	
527.89	13762	
528.09	15431	
528.29	15955	
528.48	14665	
528.68	14259	
528.87	16187	
529.07	15993	
529.27	14206	
529.46	13987	
529.66	15871	
529.85	16075	
530.05	14035	
530.25	14493	
530.44	16855	
530.64	15576	
530.83	14197	
531.03	14321	
531.23	16237	
531.42	15980	
531.62	15072	
531.81	14382	
532.01	16540	
532.21	16843	
532.4	14823	
532.6	15033	
532.79	17361	
532.99	17045	
533.18	15217	
533.38	15808	
533.58	16822	
533.77	17047	
533.97	15398	
534.16	15857	
534.36	17838	
534.55	16956	
534.75	16064	
534.95	15535	
535.14	17847	
535.34	17003	
535.53	15231	
535.73	16426	
535.92	17998	
536.12	16804	
536.31	15172	
536.51	15954	
536.71	17103	
536.9	16800	
537.1	15150	
537.29	15403	
537.49	17408	
537.68	16832	
537.88	15750	
538.07	15020	
538.27	16976	
538.46	17677	
538.66	15126	
538.86	15622	
539.05	17183	
539.25	17372	
539.44	15816	
539.64	15428	
539.83	16837	
540.03	17527	
540.22	15310	
540.42	15169	
540.61	16830	
540.81	17078	
541	15497	
541.2	15899	
541.39	16444	
541.59	16922	
541.78	15794	
541.98	14908	
542.18	16228	
542.37	16271	
542.57	15169	
542.76	15666	
542.96	16233	
543.15	16630	
543.35	15014	
543.54	14468	
543.74	16391	
543.93	16378	
544.13	14859	
544.32	15440	
544.52	16564	
544.71	15899	
544.91	14065	
545.1	14998	
545.3	16049	
545.49	16268	
545.69	13945	
545.88	14512	
546.08	17079	
546.27	16569	
546.47	14758	
546.66	14179	
546.86	16358	
547.05	16695	
547.24	14511	
547.44	14297	
547.63	15705	
547.83	16555	
548.02	14467	
548.22	14552	
548.41	15418	
548.61	16331	
548.8	14124	
549	14104	
549.19	15890	
549.39	16082	
549.58	13745	
549.78	14195	
549.97	16064	
550.17	15535	
550.36	14611	
550.55	15199	
550.75	15425	
550.94	16118	
551.14	13667	
551.33	13825	
551.53	15081	
551.72	15762	
551.92	13980	
552.11	13804	
552.31	15693	
552.5	15549	
552.69	14863	
552.89	13532	
553.08	15628	
553.28	15330	
553.47	13721	
553.67	14388	
553.86	15852	
554.06	14662	
554.25	13132	
554.44	13520	
554.64	16421	
554.83	16075	
555.03	13472	
555.22	13694	
555.42	15627	
555.61	15415	
555.8	13493	
556	13605	
556.19	14866	
556.39	15485	
556.58	13566	
556.78	13425	
556.97	15389	
557.16	14947	
557.36	14320	
557.55	13286	
557.75	14315	
557.94	15781	
558.13	13166	
558.33	13119	
558.52	15606	
558.72	14582	
558.91	13067	
559.1	13170	
559.3	14446	
559.49	14063	
559.69	12805	
559.88	13325	
560.07	14992	
560.27	15297	
560.46	13439	
560.66	13648	
560.85	14770	
561.04	13991	
561.24	12818	
561.43	12899	
561.63	14275	
561.82	14414	
562.01	13818	
562.21	13234	
562.4	14831	
562.59	15418	
562.79	13076	
562.98	12878	
563.18	14751	
563.37	15867	
563.56	13528	
563.76	12947	
563.95	14620	
564.14	14400	
564.34	13260	
564.53	12899	
564.73	14827	
564.92	15062	
565.11	13396	
565.31	12912	
565.5	15337	
565.69	14491	
565.89	13173	
566.08	13365	
566.27	15201	
566.47	15627	
566.66	13822	
566.85	12896	
567.05	15118	
567.24	14605	
567.44	13090	
567.63	14011	
567.82	15221	
568.02	14920	
568.21	13060	
568.4	13369	
568.6	15134	
568.79	14852	
568.98	13121	
569.18	13294	
569.37	15079	
569.56	16423	
569.76	13414	
569.95	14115	
570.14	15168	
570.34	15155	
570.53	13078	
570.72	13147	
570.91	15537	
571.11	14955	
571.3	13567	
571.49	14042	
571.69	15083	
571.88	14753	
572.07	13966	
572.27	13670	
572.46	14620	
572.65	15375	
572.85	13321	
573.04	13411	
573.23	15555	
573.43	15029	
573.62	13250	
573.81	13690	
574	15317	
574.2	15057	
574.39	13637	
574.58	13677	
574.78	16045	
574.97	15487	
575.16	14070	
575.36	14111	
575.55	15816	
575.74	15758	
575.93	13336	
576.13	14234	
576.32	15327	
576.51	15713	
576.71	13681	
576.9	14757	
577.09	15925	
577.28	15633	
577.48	14041	
577.67	13320	
577.86	15420	
578.05	15657	
578.25	13957	
578.44	13904	
578.63	15358	
578.83	16316	
579.02	13592	
579.21	14610	
579.4	15578	
579.6	15584	
579.79	14088	
579.98	15359	
580.17	15887	
580.37	15948	
580.56	13518	
580.75	14257	
580.94	16103	
581.14	16090	
581.33	14560	
581.52	13779	
581.71	15831	
581.91	16232	
582.1	13646	
582.29	13963	
582.48	15511	
582.68	15584	
582.87	14288	
583.06	14026	
583.25	15882	
583.45	15324	
583.64	14573	
583.83	14991	
584.02	15691	
584.21	15668	
584.41	14345	
584.6	14197	
584.79	15600	
584.98	16140	
585.18	13745	
585.37	13707	
585.56	15313	
585.75	15909	
585.94	13601	
586.14	14260	
586.33	16084	
586.52	15439	
586.71	13914	
586.91	13741	
587.1	14708	
587.29	15519	
587.48	13445	
587.67	13394	
587.87	15354	
588.06	15164	
588.25	14368	
588.44	13807	
588.63	14846	
588.83	15221	
589.02	13165	
589.21	13039	
589.4	14496	
589.59	14371	
589.78	12216	
589.98	12314	
590.17	13812	
590.36	13992	
590.55	11544	
590.74	11901	
590.94	14519	
591.13	13566	
591.32	11813	
591.51	11595	
591.7	13967	
591.89	13609	
592.09	11682	
592.28	12045	
592.47	13082	
592.66	14674	
592.85	11721	
593.05	11854	
593.24	13536	
593.43	14189	
593.62	11908	
593.81	12200	
594	13647	
594.19	13911	
594.39	11895	
594.58	11794	
594.77	13887	
594.96	14123	
595.15	11706	
595.34	12140	
595.54	13614	
595.73	13047	
595.92	11138	
596.11	11874	
596.3	13884	
596.49	13024	
596.68	11757	
596.88	12011	
597.07	13739	
597.26	12940	
597.45	11352	
597.64	12184	
597.83	13144	
598.02	13506	
598.22	11397	
598.41	11880	
598.6	13490	
598.79	12928	
598.98	11351	
599.17	12076	
599.36	13353	
599.55	13996	
599.74	12806	
599.94	12571	
600.13	13753	
600.32	12921	
600.51	11159	
600.7	11331	
600.89	14059	
601.08	14057	
601.27	11117	
601.47	11772	
601.66	13400	
601.85	14014	
602.04	11642	
602.23	11615	
602.42	12742	
602.61	13291	
602.8	11375	
602.99	11229	
603.18	13010	
603.37	13189	
603.57	11624	
603.76	12059	
603.95	13766	
604.14	13329	
604.33	11344	
604.52	11552	
604.71	13340	
604.9	12828	
605.09	11901	
605.28	11654	
605.47	13636	
605.66	13266	
605.86	11697	
606.05	11270	
606.24	13515	
606.43	12405	
606.62	11488	
606.81	11936	
607	13282	
607.19	12846	
607.38	10861	
607.57	11230	
607.76	12644	
607.95	12210	
608.14	11517	
608.33	11776	
608.52	12526	
608.72	13236	
608.91	10895	
609.1	10757	
609.29	12611	
609.48	12346	
609.67	11310	
609.86	10677	
610.05	12394	
610.24	12534	
610.43	10664	
610.62	10385	
610.81	13248	
611	13099	
611.19	10714	
611.38	11097	
611.57	12672	
611.76	13517	
611.95	10593	
612.14	10378	
612.33	12477	
612.52	12222	
612.71	10933	
612.9	10284	
613.09	12027	
613.28	13594	
613.47	10697	
613.66	11348	
613.85	12628	
614.04	12263	
614.24	10699	
614.43	10137	
614.62	12678	
614.81	12599	
615	11072	
615.19	11092	
615.38	12258	
615.57	12465	
615.76	11075	
615.95	11730	
616.14	12597	
616.33	12512	
616.52	11199	
616.71	11237	
616.9	12624	
617.09	12578	
617.28	10776	
617.47	11489	
617.66	12106	
617.85	12054	
618.04	11496	
618.22	11111	
618.41	12493	
618.6	13237	
618.79	11103	
618.98	11033	
619.17	13449	
619.36	12234	
619.55	11172	
619.74	11138	
619.93	12925	
620.12	12458	
620.31	11548	
620.5	11764	
620.69	13244	
620.88	13738	
621.07	12261	
621.26	11525	
621.45	13159	
621.64	13237	
621.83	11721	
622.02	11159	
622.21	13291	
622.4	13123	
622.59	12086	
622.78	11962	
622.97	12863	
623.16	13474	
623.35	11701	
623.54	11133	
623.72	13026	
623.91	13117	
624.1	11966	
624.29	11053	
624.48	13816	
624.67	13287	
624.86	11807	
625.05	11133	
625.24	13956	
625.43	12912	
625.62	12887	
625.81	11473	
626	13439	
626.19	13019	
626.38	11903	
626.56	11488	
626.75	12977	
626.94	13632	
627.13	11970	
627.32	11004	
627.51	13388	
627.7	14095	
627.89	10911	
628.08	11901	
628.27	12624	
628.46	12902	
628.65	11228	
628.83	10947	
629.02	13241	
629.21	12770	
629.4	11639	
629.59	11637	
629.78	12773	
629.97	13354	
630.16	11746	
630.35	11311	
630.54	13899	
630.72	13562	
630.91	11401	
631.1	11549	
631.29	13145	
631.48	13216	
631.67	11792	
631.86	11320	
632.05	12996	
632.24	13035	
632.42	11172	
632.61	11526	
632.8	12789	
632.99	12643	
633.18	11695	
633.37	11821	
633.56	13181	
633.75	13011	
633.93	11549	
634.12	11432	
634.31	13673	
634.5	13393	
634.69	11438	
634.88	11711	
635.07	12956	
635.25	13424	
635.44	11937	
635.63	12088	
635.82	12860	
636.01	12272	
636.2	11829	
636.39	11525	
636.57	13558	
636.76	13287	
636.95	11086	
637.14	12122	
637.33	13125	
637.52	13706	
637.7	10950	
637.89	11792	
638.08	12804	
638.27	13734	
638.46	11690	
638.65	11919	
638.83	13518	
639.02	12589	
639.21	11486	
639.4	11769	
639.59	12876	
639.78	12583	
639.96	10925	
640.15	10981	
640.34	12670	
640.53	12625	
640.72	10535	
640.91	10877	
641.09	12139	
641.28	12981	
641.47	10819	
641.66	11436	
641.85	12619	
642.03	12602	
642.22	11128	
642.41	10748	
642.6	12073	
642.79	11604	
642.97	10437	
643.16	10968	
643.35	12020	
643.54	11799	
643.73	10364	
643.91	10899	
644.1	11672	
644.29	12151	
644.48	10256	
644.67	10314	
644.85	11596	
645.04	11930	
645.23	10016	
645.42	10177	
645.6	11459	
645.79	12193	
645.98	9875.3	
646.17	9298.5	
646.36	11052	
646.54	11392	
646.73	10246	
646.92	9489.6	
647.11	11001	
647.29	11703	
647.48	9510.1	
647.67	9299.1	
647.86	11835	
648.05	11753	
648.23	9581.8	
648.42	10471	
648.61	11340	
648.8	11184	
648.98	9208.4	
649.17	9416.6	
649.36	10785	
649.55	10668	
649.73	9387.9	
649.92	9794.8	
650.11	10786	
650.3	11124	
650.48	9308	
650.67	9143.5	
650.86	11172	
651.05	10374	
651.23	9284.1	
651.42	9241.1	
651.61	10662	
651.79	10636	
651.98	9390.6	
652.17	9041.1	
652.36	11022	
652.54	10176	
652.73	8979.7	
652.92	8974.9	
653.11	10798	
653.29	10910	
653.48	8432.9	
653.67	9190.6	
653.85	10628	
654.04	11338	
654.23	9146.2	
654.42	8893.6	
654.6	10006	
654.79	10396	
654.98	8241.7	
655.16	8555	
655.35	9494.4	
655.54	9271.2	
655.73	8127.7	
655.91	8013.7	
656.1	10212	
656.29	9485.5	
656.47	7858.7	
656.66	9075.9	
656.85	9769.5	
657.03	9884.2	
657.22	8532.5	
657.41	8528.4	
657.59	10009	
657.78	9794.1	
657.97	8139.3	
658.16	8785.8	
658.34	10423	
658.53	10686	
658.72	9465.7	
658.9	9686.9	
659.09	10262	
659.28	10047	
659.46	8615.8	
659.65	8448.6	
659.84	9851.4	
660.02	10411	
660.21	8537.3	
660.4	8310.7	
660.58	10510	
660.77	10062	
660.96	8824	
661.14	8191.9	
661.33	10903	
661.52	10897	
661.7	8122.9	
661.89	10468	
662.08	9789.3	
662.26	9378.3	
662.45	8294.3	
662.64	8385.1	
662.82	10313	
663.01	9636.4	
663.2	8271.7	
663.38	8781	
663.57	10088	
663.75	10069	
663.94	8589.2	
664.13	9241.1	
664.31	9674.6	
664.5	10112	
664.69	8751.7	
664.87	8909.3	
665.06	9496.4	
665.25	9908.8	
665.43	9168.1	
665.62	9156.5	
665.8	10138	
665.99	9577.7	
666.18	8384.4	
666.36	8456.1	
666.55	10086	
666.74	9969.5	
666.92	8213	
667.11	9220	
667.29	9697.8	
667.48	10134	
667.67	8940.1	
667.85	8284	
668.04	9567.4	
668.22	9626.8	
668.41	8366.6	
668.6	8572.8	
668.78	9437	
668.97	9639.8	
669.15	8571.4	
669.34	7864.9	
669.53	9440.5	
669.71	9696.4	
669.9	7937.9	
670.08	8403.5	
670.27	9357.2	
670.46	9802.9	
670.64	8581.7	
670.83	8796.7	
671.01	9184.5	
671.2	9643.9	
671.38	8005.5	
671.57	8019.8	
671.76	10101	
671.94	10580	
672.13	7857.4	
672.31	8573.5	
672.5	9919	
672.69	9400.2	
672.87	7987.8	
673.06	8212.4	
673.24	9769.5	
673.43	9486.9	
673.61	8475.2	
673.8	8214.4	
673.98	9781.8	
674.17	9853.5	
674.36	8587.1	
674.54	8449.9	
674.73	9484.1	
674.91	9911.5	
675.1	8255.4	
675.28	7952.3	
675.47	9572.9	
675.65	9987.9	
675.84	8148.2	
676.03	8387.8	
676.21	9365.4	
676.4	8970.8	
676.58	8659.5	
676.77	8464.3	
676.95	10378	
677.14	9314.2	
677.32	7944.8	
677.51	7795.9	
677.69	9895.1	
677.88	9223.4	
678.06	7838.3	
678.25	8003.5	
678.44	9552.4	
678.62	9245.2	
678.81	7697.6	
678.99	8324.3	
679.18	10102	
679.36	9816.6	
679.55	8062.2	
679.73	8466.3	
679.92	9728.5	
680.1	9245.2	
680.29	8957.8	
680.47	8054.7	
680.66	9284.1	
680.84	9852.1	
681.03	7663.5	
681.21	8484.7	
681.4	9267.7	
681.58	9158.5	
681.77	7854.6	
681.95	7836.2	
682.14	9925.8	
682.32	10065	
682.51	8401.5	
682.69	7657.4	
682.88	9154.4	
683.06	9497.8	
683.25	8217.1	
683.43	8592.6	
683.62	9423.4	
683.8	9749	
683.99	8595.3	
684.17	8054	
684.36	10169	
684.54	9186.5	
684.73	7322.9	
684.91	7436.9	
685.1	9094.3	
685.28	8585.1	
685.46	7576.8	
685.65	7550.9	
685.83	9093	
686.02	8669.7	
686.2	7152.2	
686.39	7407.5	
686.57	8472.4	
686.76	9671.9	
686.94	7323.5	
687.13	7529	
687.31	9130.5	
687.5	8888.2	
687.68	7152.9	
687.86	7884	
688.05	10085	
688.23	8568	
688.42	7986.4	
688.6	7553.6	
688.79	8890.2	
688.97	8959.9	
689.16	7946.8	
689.34	7174.7	
689.52	9561.3	
689.71	9704.6	
689.89	8161.2	
690.08	7658.7	
690.26	9316.9	
690.45	9116.9	
690.63	8208.3	
690.81	7824.6	
691	9152.4	
691.18	9052.7	
691.37	7845.8	
691.55	9261.6	
691.74	8968.1	
691.92	10231	
692.1	7814.4	
692.29	7401.4	
692.47	9202.9	
692.66	8665	
692.84	7627.3	
693.02	7932.5	
693.21	8744.1	
693.39	9104.6	
693.58	8159.1	
693.76	7732.4	
693.94	9931.3	
694.13	9961.3	
694.31	7874.4	
694.5	8575.5	
694.68	9252	
694.86	9521.7	
695.05	8204.2	
695.23	8595.3	
695.42	9882.8	
695.6	11273	
695.78	8718.9	
695.97	7971.4	
696.15	9951.8	
696.34	9516.2	
696.52	7950.2	
696.7	8466.3	
696.89	9772.9	
697.07	9256.8	
697.25	8301.8	
697.44	9408.4	
697.62	9736	
697.81	9753.8	
697.99	8223.3	
698.17	8452.6	
698.36	9244.5	
698.54	9669.8	
698.72	8492.9	
698.91	7749.5	
699.09	9346.9	
699.28	9131.9	
699.46	8144.8	
699.64	8079.2	
699.83	9242.5	
700.01	9981.1	
700.19	8743.5	
700.38	7550.9	
700.56	10058	
700.74	9365.4	
700.93	7940.7	
701.11	8509.3	
701.29	9818.6	
701.48	10634	
701.66	8152.3	
701.84	8219.9	
702.03	9642.5	
702.21	10135	
702.39	7907.9	
702.58	8380.3	
702.76	9899.2	
702.94	9985.9	
703.13	7956.4	
703.31	9567.4	
703.49	9555.8	
703.68	10238	
703.86	8135.9	
704.04	8797.4	
704.23	9780.4	
704.41	10088	
704.59	8247.9	
704.78	8938	
704.96	10997	
705.14	10189	
705.33	8230.1	
705.51	8699.8	
705.69	9616.6	
705.87	10294	
706.06	8887.5	
706.24	8106.5	
706.42	9947.7	
706.61	10120	
706.79	8937.3	
706.97	8091.5	
707.16	9653.4	
707.34	9998.2	
707.52	8706.6	
707.7	8266.3	
707.89	9654.8	
708.07	9481.4	
708.25	8862.2	
708.44	9105.3	
708.62	9649.3	
708.8	10413	
708.98	9075.2	
709.17	8299.7	
709.35	9920.4	
709.53	9873.9	
709.72	8196.7	
709.9	8271.1	
710.08	10137	
710.26	10122	
710.45	9138	
710.63	8303.8	
710.81	9879.4	
710.99	9790	
711.18	8731.2	
711.36	8298.4	
711.54	9600.9	
711.72	10113	
711.91	8316.1	
712.09	7937.9	
712.27	9608.4	
712.45	10042	
712.64	8333.9	
712.82	7651.9	
713	9144.9	
713.18	9196.7	
713.37	7612.3	
713.55	8359.8	
713.73	9696.4	
713.91	8501.1	
714.1	7582.3	
714.28	7076.4	
714.46	8890.2	
714.64	8342.1	
714.83	6333.7	
715.01	6758.3	
715.19	8014.4	
715.37	7453.2	
715.55	6333.7	
715.74	6591	
715.92	8363.2	
716.1	6982.9	
716.28	7184.3	
716.47	6469.5	
716.65	7546.8	
716.83	7430.7	
717.01	6399.9	
717.19	6387.6	
717.38	8962.6	
717.56	7244.3	
717.74	6569.2	
717.92	6025.1	
718.1	8196.7	
718.29	7703.1	
718.47	5990.3	
718.65	6471.6	
718.83	8473.1	
719.01	8410.3	
719.2	6262	
719.38	7014.3	
719.56	8470.4	
719.74	9427.5	
719.92	6741.9	
720.11	7430	
720.29	8417.2	
720.47	7783	
720.65	6279.1	
720.83	6771.3	
721.02	7747.5	
721.2	7523.6	
721.38	6631.3	
721.56	6124.1	
721.74	7101	
721.92	7152.9	
722.11	6770.6	
722.29	6619	
722.47	7996	
722.65	7445	
722.83	6027.2	
723.01	6567.2	
723.2	7473	
723.38	7741.3	
723.56	5674.2	
723.74	6513.2	
723.92	7145.4	
724.1	7931.1	
724.29	5953.4	
724.47	6728.3	
724.65	7260	
724.83	7144.7	
725.01	5849.7	
725.19	6372.6	
725.37	7117.4	
725.56	7072.3	
725.74	5692.7	
725.92	6065.4	
726.1	7189.7	
726.28	7316	
726.46	6182.1	
726.64	5955.5	
726.83	7382.9	
727.01	7489.4	
727.19	5707	
727.37	6417.7	
727.55	7492.8	
727.73	7795.9	
727.91	5754.1	
728.09	5636.7	
728.28	7829.4	
728.46	7929.1	
728.64	6416.3	
728.82	6351.4	
729	8566.7	
729.18	8123.6	
729.36	5930.9	
729.54	7526.3	
729.72	8936	
729.91	7673.7	
730.09	7364.5	
730.27	6567.8	
730.45	7826.7	
730.63	8271.1	
730.81	7007.5	
730.99	6299.6	
731.17	8671.8	
731.35	7572	
731.53	6694.8	
731.71	6497.5	
731.9	8415.8	
732.08	8485.4	
732.26	6577.4	
732.44	6280.4	
732.62	8505.9	
732.8	8171.4	
732.98	6802	
733.16	6179.4	
733.34	8153.6	
733.52	7092.8	
733.7	6429.3	
733.88	6596.5	
734.07	7901.1	
734.25	7807.5	
734.43	6128.9	
734.61	7107.1	
734.79	8803.5	
734.97	7708.6	
735.15	6086.6	
735.33	6440.2	
735.51	7843.7	
735.69	7660.1	
735.87	7053.2	
736.05	6483.9	
736.23	7825.3	
736.41	7522.2	
736.59	6402	
736.77	6477.7	
736.95	8071	
737.13	7596.6	
737.32	6168.5	
737.5	6266.1	
737.68	8540	
737.86	7524.2	
738.04	5948.7	
738.22	7249.8	
738.4	7429.3	
738.58	7624.6	
738.76	6260	
738.94	5697.4	
739.12	7529	
739.3	7365.2	
739.48	6771.3	
739.66	6595.1	
739.84	7637.6	
740.02	7677.8	
740.2	5739.8	
740.38	5889.3	
740.56	7916.1	
740.74	6996.5	
740.92	6369.2	
741.1	6223.1	
741.28	7438.9	
741.46	7221.8	
741.64	6105.7	
741.82	6349.4	
742	7384.3	
742.18	7339.9	
742.36	6044.2	
742.54	5838.8	
742.72	7819.8	
742.9	6802	
743.08	6193.1	
743.26	5369.8	
743.44	7797.3	
743.62	7578.2	
743.8	6366.5	
743.98	5719.3	
744.16	7468.9	
744.34	7154.2	
744.52	6251.8	
744.7	6103.6	
744.88	7522.2	
745.06	7083.2	
745.24	6118.6	
745.42	6173.3	
745.6	7489.4	
745.78	7339.9	
745.96	5315.8	
746.14	5517.2	
746.32	7944.1	
746.5	7363.8	
746.68	5855.8	
746.86	5527.5	
747.03	7596.6	
747.21	6423.8	
747.39	5836.7	
747.57	5228.5	
747.75	6995.2	
747.93	7240.9	
748.11	5369.8	
748.29	5341.8	
748.47	8203.5	
748.65	6736.5	
748.83	5937.1	
749.01	5647.6	
749.19	7127.6	
749.37	6531	
749.55	5630.5	
749.73	5653.1	
749.91	6926.9	
750.09	6782.9	
750.26	5658.5	
750.44	5231.2	
750.62	6894.1	
750.8	6754.2	
750.98	5125.4	
751.16	5353.4	
751.34	6971.3	
751.52	6456.6	
751.7	5867.4	
751.88	5035.3	
752.06	7240.3	
752.24	7049.1	
752.42	4957.4	
752.59	5294	
752.77	6759	
752.95	7615.7	
753.13	5775.3	
753.31	5276.3	
753.49	6577.4	
753.67	6726.9	
753.85	5416.9	
754.03	5115.1	
754.21	6889.4	
754.38	7137.2	
754.56	5056.4	
754.74	4469.4	
754.92	6257.9	
755.1	6612.9	
755.28	4280.3	
755.46	4163.5	
755.64	6906.4	
755.82	6826.6	
755.99	4058.4	
756.17	4040	
756.35	4776.5	
756.53	5778.7	
756.71	3065.8	
756.89	3706.8	
757.07	5449	
757.25	4914.4	
757.42	4142.4	
757.6	4782.7	
757.78	5765.7	
757.96	5072.1	
758.14	4101.4	
758.32	3807.9	
758.5	4720.6	
758.67	5365	
758.85	3951.2	
759.03	3992.9	
759.21	5448.3	
759.39	5011.4	
759.57	3625.6	
759.75	4463.2	
759.92	5949.3	
760.1	5507.7	
760.28	4713.1	
760.46	4935.6	
760.64	5391.6	
760.82	5264.6	
760.99	4722.6	
761.17	4169	
761.35	6067.4	
761.53	5245.5	
761.71	4452.3	
761.89	4813.4	
762.06	6037.4	
762.24	5668.8	
762.42	4489.1	
762.6	4300.7	
762.78	5757.5	
762.96	6138.4	
763.13	4823.6	
763.31	4528.7	
763.49	6236.1	
763.67	5712.5	
763.85	5131.5	
764.02	5569.1	
764.2	6513.9	
764.38	5879.7	
764.56	4492.6	
764.74	5077.6	
764.91	6522.1	
765.09	5698.1	
765.27	4218.1	
765.45	4104.1	
765.63	6614.9	
765.8	6449.7	
765.98	3942.3	
766.16	4105.5	
766.34	5442.1	
766.52	5191.6	
766.69	4691.9	
766.87	3953.9	
767.05	5732.9	
767.23	6224.5	
767.41	4162.2	
767.58	4267.3	
767.76	6010.1	
767.94	6044.9	
768.12	4192.2	
768.29	4683.7	
768.47	5603.2	
768.65	6150.1	
768.83	3936.2	
769	4785.4	
769.18	5294.7	
769.36	5800.5	
769.54	4631.8	
769.72	3861.8	
769.89	6031.3	
770.07	6029.2	
770.25	4110.3	
770.43	5005.2	
770.6	6504.3	
770.78	6702.3	
770.96	4188.1	
771.14	4603.2	
771.31	5890.6	
771.49	5414.1	
771.67	3559.4	
771.85	3697.3	
772.02	4842.1	
772.2	5304.9	
772.38	4311	
772.55	3849.5	
772.73	5549.3	
772.91	5323.4	
773.09	4090.5	
773.26	4140.3	
773.44	5486.5	
773.62	5262.6	
773.8	3777.8	
773.97	3607.2	
774.15	5498.1	
774.33	5260.5	
774.5	3656.3	
774.68	3850.2	
774.86	5442.8	
775.04	5174.5	
775.21	3663.8	
775.39	3693.2	
775.57	5365.7	
775.74	5578.7	
775.92	3491.8	
776.1	3418.7	
776.27	5332.9	
776.45	6236.1	
776.63	3620.1	
776.81	3288.4	
776.98	5029.8	
777.16	5773.2	
777.34	3700	
777.51	3910.9	
777.69	5097.4	
777.87	4859.8	
778.04	3739.6	
778.22	4170.3	
778.4	4910.3	
778.57	5359.5	
778.75	3170.3	
778.93	3325.9	
779.1	4777.9	
779.28	4592.2	
779.46	3156.6	
779.64	3517	
779.81	5444.9	
779.99	5988.9	
780.17	4024.3	
780.34	4120.5	
780.52	5036	
780.69	5065.3	
780.87	3728.7	
781.05	3358.7	
781.22	5111	
781.4	5029.1	
781.58	3537.5	
781.75	2882.9	
781.93	5065.3	
782.11	4537.6	
782.28	4071.4	
782.46	3428.3	
782.64	4467.3	
782.81	5134.9	
782.99	3565.5	
783.17	3454.9	
783.34	5010.7	
783.52	4581.3	
783.69	3545.7	
783.87	4159.4	
784.05	4668.7	
784.22	4570.4	
784.4	4152.6	
784.58	3669.3	
784.75	5274.2	
784.93	4629.1	
785.1	3336.8	
785.28	3818.8	
785.46	5072.1	
785.63	4511.7	
785.81	3337.5	
785.99	3235.8	
786.16	4741.7	
786.34	4889.9	
786.51	3293.1	
786.69	3571.7	
786.87	4326	
787.04	4713.1	
787.22	3198.2	
787.39	3819.5	
787.57	4541.7	
787.75	5271.5	
787.92	4050.9	
788.1	3904.8	
788.27	4455.7	
788.45	4278.2	
788.63	3700.7	
788.8	2809.1	
788.98	4968.4	
789.15	4239.3	
789.33	2869.9	
789.5	3302	
789.68	5139.7	
789.86	5195	
790.03	3684.3	
790.21	3192.8	
790.38	5178.6	
790.56	4592.2	
790.73	3163.4	
790.91	3158.7	
791.09	4525.3	
791.26	4992.3	
791.44	3295.9	
791.61	2890.4	
791.79	4472.1	
791.96	4482.3	
792.14	3018	
792.32	2658.3	
792.49	4484.4	
792.67	4581.3	
792.84	3043.3	
793.02	2904.7	
793.19	4892.6	
793.37	5272.8	
793.54	2738.1	
793.72	2930.6	
793.89	5332.2	
794.07	4375.8	
794.25	3358	
794.42	2772.9	
794.6	5180	
794.77	4868	
794.95	3549.8	
795.12	3155.9	
795.3	4460.5	
795.47	4884.4	
795.65	3432.4	
795.82	3311.6	
796	4334.9	
796.17	5560.2	
796.35	3250.1	
796.52	3712.3	
796.7	4793.6	
796.87	4928.8	
797.05	3203	
797.22	3766.9	
797.4	4885.1	
797.57	5547.9	
797.75	3339.6	
797.92	3147.7	
798.1	5112.4	
798.27	4327.4	
798.45	2783.9	
798.62	2935.4	
798.8	4644.1	
798.97	5007.3	
799.15	3430.3	
799.32	3327.9	
799.5	4087.1	
799.67	4646.8	
799.85	3563.5	
800.02	2699.9	
800.2	4447.5	
800.37	4576.5	
800.55	3689.1	
800.72	3097.9	
800.9	4956.1	
801.07	5218.9	
801.25	4061.8	
801.42	3408.5	
801.6	4940.4	
801.77	4690.5	
801.95	3166.2	
802.12	3034.4	
802.29	4777.9	
802.47	4696	
802.64	3381.2	
802.82	2654.9	
802.99	4372.4	
803.17	5027.8	
803.34	3278.8	
803.52	2975	
803.69	5487.2	
803.87	4200.4	
804.04	3284.3	
804.21	3282.9	
804.39	5146.5	
804.56	4489.8	
804.74	2892.4	
804.91	3369.6	
805.09	4375.1	
805.26	4420.2	
805.44	2835.8	
805.61	3164.1	
805.78	4843.4	
805.96	4866.7	
806.13	3326.6	
806.31	3592.1	
806.48	4050.2	
806.66	4458.4	
806.83	3426.3	
807	3267.9	
807.18	4347.2	
807.35	4622.3	
807.53	3080.1	
807.7	2709.5	
807.87	5185.5	
808.05	4391.5	
808.22	3490.4	
808.4	2725.2	
808.57	4341	
808.74	4102.8	
808.92	3018	
809.09	3633.1	
809.27	4408.6	
809.44	4674.8	
809.61	2729.3	
809.79	2940.2	
809.96	5268.7	
810.14	4873.5	
810.31	2660.3	
810.48	3193.5	
810.66	4440	
810.83	4923.3	
811.01	2993.4	
811.18	3233.7	
811.35	4890.5	
811.53	3938.2	
811.7	3583.3	
811.87	3332	
812.05	4426.3	
812.22	4286.4	
812.39	2960	
812.57	2861.7	
812.74	4482.3	
812.92	5545.9	
813.09	3147.7	
813.26	3272	
813.44	5341.8	
813.61	4265.9	
813.78	2682.8	
813.96	3429	
814.13	4414.7	
814.3	4179.9	
814.48	3685	
814.65	3109.5	
814.82	5180	
815	4143	
815.17	3163.4	
815.34	3730	
815.52	4336.2	
815.69	4314.4	
815.87	3136.1	
816.04	3132.7	
816.21	4364.2	
816.38	3937.6	
816.56	3108.8	
816.73	2900.6	
816.9	5361.6	
817.08	4849.6	
817.25	2990.7	
817.42	3550.5	
817.6	4122.6	
817.77	4330.1	
817.94	3230.3	
818.12	2887	
818.29	4203.1	
818.46	5898.8	
818.64	3048.1	
818.81	2826.2	
818.98	4172.4	
819.16	5584.1	
819.33	3353.2	
819.5	3137.5	
819.67	4575.2	
819.85	5066	
820.02	3168.2	
820.19	3299.3	
820.37	4555.4	
820.54	4293.9	
820.71	3227.6	
820.88	3913.7	
821.06	4506.2	
821.23	4212	
821.4	3278.8	
821.58	3277.4	
821.75	4840	
821.92	4495.3	
822.09	2692.4	
822.27	2814.6	
822.44	4388.8	
822.61	4308.2	
822.79	2723.8	
822.96	4838.7	
823.13	4608.6	
823.3	4108.2	
823.48	3033.7	
823.65	2771.6	
823.82	4906.3	
823.99	4078.9	
824.17	3799	
824.34	2816.6	
824.51	5458.5	
824.68	4384	
824.86	2930	
825.03	3207.8	
825.2	4341.7	
825.37	5057.1	
825.55	2979.8	
825.72	3173	
825.89	5507.7	
826.06	5167	
826.24	3071.3	
826.41	3104	
826.58	5162.9	
826.75	4560.1	
826.92	2620	
827.1	2779.8	
827.27	6619	
827.44	5442.8	
827.61	2990.7	
827.79	3518.4	
827.96	4187.4	
828.13	4325.3	
828.3	3178.4	
828.47	2648.7	
828.65	4614.1	
828.82	4575.8	
828.99	3867.9	
829.16	3375.7	
829.34	4844.8	
829.51	4742.4	
829.68	3174.4	
829.85	3233.7	
830.02	5154.1	
830.2	4883	
830.37	2561.3	
830.54	3708.2	
830.71	5397.1	
830.88	4387.4	
831.05	2555.2	
831.23	2869.2	
831.4	5287.9	
831.57	5644.9	
831.74	2983.9	
831.91	2661.7	
832.09	4696	
832.26	4913.1	
832.43	2988	
832.6	3401	
832.77	4611.3	
832.94	5152	
833.12	2502.6	
833.29	2953.9	
833.46	4667.3	
833.63	5782.1	
833.8	3267.9	
833.97	3058.3	
834.15	4930.8	
834.32	4727.4	
834.49	3192.1	
834.66	3207.1	
834.83	4943.1	
835	4246.1	
835.17	2954.5	
835.35	2966.8	
835.52	4781.3	
835.69	4720.6	
835.86	3099.3	
836.03	2600.9	
836.2	4855.1	
836.37	4558.8	
836.55	2955.2	
836.72	2839.2	
836.89	4524	
837.06	4971.8	
837.23	3109.5	
837.4	3292.5	
837.57	5389.6	
837.75	5823.1	
837.92	2802.3	
838.09	2996.9	
838.26	4574.5	
838.43	4977.2	
838.6	3188	
838.77	2843.9	
838.94	5505.6	
839.11	5446.2	
839.29	3062.4	
839.46	2503.3	
839.63	4909	
839.8	4617.5	
839.97	2981.2	
840.14	2931.3	
840.31	4750.6	
840.48	4887.8	
840.65	2546.3	
840.82	2925.9	
841	4821.6	
841.17	4781.3	
841.34	2691	
841.51	2792.1	
841.68	4798.4	
841.85	4583.4	
842.02	2834.4	
842.19	2425.5	
842.36	4676.2	
842.53	4639.3	
842.7	2779.8	
842.87	3220.1	
843.05	5831.2	
843.22	4605.9	
843.39	2658.9	
843.56	2831	
843.73	4572.4	
843.9	4911.7	
844.07	4251.6	
844.24	3538.2	
844.41	6438.8	
844.58	4273.4	
844.75	2656.9	
844.92	2906.1	
845.09	4785.4	
845.26	4850.3	
845.43	2748.4	
845.6	2894.5	
845.77	4845.5	
845.94	4617.5	
846.12	3052.2	
846.29	3134.8	
846.46	5025.7	
846.63	4780	
846.8	2787.3	
846.97	3208.5	
847.14	5189.6	
847.31	4763.6	
847.48	3056.3	
847.65	3322.5	
847.82	5020.3	
847.99	4947.2	
848.16	3578.5	
848.33	3254.9	
848.5	4521.2	
848.67	5142.4	
848.84	2671.2	
849.01	2813.9	
849.18	4446.8	
849.35	4223.6	
849.52	3315	
849.69	2656.9	
849.86	5027.8	
850.03	5051	
850.2	2798.2	
850.37	3218	
850.54	5007.3	
850.71	4588.8	
850.88	3276.1	
851.05	2686.3	
851.22	4743.8	
851.39	5149.3	
851.56	2597.5	
851.73	3101.3	
851.9	4337.6	
852.07	4997.7	
852.24	3020.1	
852.41	2685.6	
852.58	4798.4	
852.75	4355.3	
852.92	3017.3	
853.09	2656.9	
853.26	4491.2	
853.43	5085.1	
853.6	2755.2	
853.77	2353.1	
853.94	5229.1	
854.11	4282.3	
854.28	3903.4	
854.44	2932	
854.61	5456.5	
854.78	5004.6	
854.95	2675.3	
855.12	3292.5	
855.29	4024.9	
855.46	5189.6	
855.63	2730.6	
855.8	3591.5	
855.97	4505.5	
856.14	5074.2	
856.31	3704.1	
856.48	2960	
856.65	4554	
856.82	4276.2	
856.99	2645.3	
857.16	2927.9	
857.33	5640.8	
857.49	4564.2	
857.66	2856.2	
857.83	3063.8	
858	4600.4	
858.17	4680.3	
858.34	2572.9	
858.51	2763.4	
858.68	5264.6	
858.85	5241.4	
859.02	3104.7	
859.19	3278.8	
859.36	4334.9	
859.52	4328.7	
859.69	2729.3	
859.86	3161.4	
860.03	4358.1	
860.2	5189.6	
860.37	2521	
860.54	2764.8	
860.71	4928.8	
860.88	5162.2	
861.05	3009.8	
861.21	3339.6	
861.38	5208.7	
861.55	4192.9	
861.72	2504	
861.89	2960.7	
862.06	5006.6	
862.23	5311.1	
862.4	2698.5	
862.56	2788.7	
862.73	4919.2	
862.9	4640.7	
863.07	3122.5	
863.24	2480.1	
863.41	4240	
863.58	4349.9	
863.75	2813.9	
863.91	3098.6	
864.08	5057.1	
864.25	4910.3	
864.42	3345.7	
864.59	3704.8	
864.76	5453.1	
864.93	4353.3	
865.09	2639.1	
865.26	2854.2	
865.43	5155.4	
865.6	5360.9	
865.77	2406.4	
865.94	2722.4	
866.1	5127.4	
866.27	4895.3	
866.44	3922.5	
866.61	2655.5	
866.78	4606.6	
866.95	4870.8	
867.11	2643.2	
867.28	2453.5	
867.45	5084.4	
867.62	4311	
867.79	3078.8	
867.96	2678.7	
868.12	4261.1	
868.29	4894	
868.46	2760	
868.63	3479.5	
868.8	5005.9	
868.97	4840	
869.13	2830.3	
869.3	2803.7	
869.47	4836.6	
869.64	4967	
869.81	2684.2	
869.97	2727.2	
870.14	4746.5	
870.31	5224.4	
870.48	2638.5	
870.65	3359.4	
870.81	4534.2	
870.98	4612	
871.15	3039.2	
871.32	2800.3	
871.48	4814.8	
871.65	5294.7	
871.82	2699.2	
871.99	3002.3	
872.16	5583.4	
872.32	5130.2	
872.49	2769.5	
872.66	2750.4	
872.83	4964.3	
872.99	4382.7	
873.16	3059.7	
873.33	2695.1	
873.5	4638.6	
873.67	4735.6	
873.83	2865.8	
874	3514.3	
874.17	4799.8	
874.34	5407.3	
874.5	3413.3	
874.67	3309.5	
874.84	5138.4	
875.01	4204.5	
875.17	3702.7	
875.34	2712.9	
875.51	4670.7	
875.68	5562.3	
875.84	3211.2	
876.01	3775.1	
876.18	4917.9	
876.34	4800.4	
876.51	2760.7	
876.68	2697.2	
876.85	4506.9	
877.01	5194.3	
877.18	3736.9	
877.35	2675.3	
877.52	4797	
877.68	4240.7	
877.85	2657.6	
878.02	2702	
878.18	4588.8	
878.35	4468	
878.52	2247.3	
878.69	3112.9	
878.85	5024.3	
879.02	4861.9	
879.19	3734.1	
879.35	2861.7	
879.52	4904.9	
879.69	4996.4	
879.86	2426.8	
880.02	3028.9	
880.19	4653	
880.36	5453.7	
880.52	3064.4	
880.69	3159.3	
880.86	5021.6	
881.02	5024.3	
881.19	2989.4	
881.36	2929.3	
881.52	4873.5	
881.69	4390.8	
881.86	2884.9	
882.02	2815.3	
882.19	5089.9	
882.36	5786.9	
882.52	2770.9	
882.69	3665.2	
882.86	4711.7	
883.02	4726	
883.19	3189.4	
883.36	3053.5	
883.52	4947.2	
883.69	5609.4	
883.86	2682.2	
884.02	2533.3	
884.19	4932.9	
884.36	4687.8	
884.52	3048.7	
884.69	2855.6	
884.86	4485.7	
885.02	5354.1	
885.19	2985.3	
885.36	3045.3	
885.52	4600.4	
885.69	4760.8	
885.86	3743.7	
886.02	3376.4	
886.19	4983.4	
886.35	4468.7	
886.52	3007.1	
886.69	3636.5	
886.85	4285	
887.02	5188.2	
887.19	5188.2	
887.35	5188.2	
887.52	5188.2	
887.68	5188.2	
887.85	5188.2	
888.02	5188.2	
888.18	5188.2	
888.35	5188.2	
888.51	5188.2	
888.68	5188.2	
888.85	5188.2	
889.01	5188.2	
889.18	5188.2	
889.35	5188.2	
889.51	5188.2	
889.68	5188.2	
889.84	5188.2	
890.01	5188.2	
890.17	5188.2	
890.34	5188.2	
890.51	5188.2	
890.67	5188.2	
890.84	5188.2	
891	5188.2	
891.17	5188.2	
891.34	5188.2	
891.5	5188.2	
891.67	5188.2	
891.83	5188.2	
892	5188.2	
892.16	5188.2	
892.33	5188.2	
892.5	5188.2	
892.66	5188.2	
892.83	5188.2	
892.99	5188.2	
893.16	5188.2	
893.32	5188.2	
893.49	5188.2	
893.65	5188.2	
893.82	5188.2	
893.99	5188.2	
894.15	5188.2	
894.32	5188.2	
894.48	5188.2	
894.65	5188.2	
894.81	5188.2	
894.98	5188.2	
895.14	5188.2	
895.31	5188.2	
895.47	5188.2	
895.64	5188.2	
895.81	5188.2	
895.97	5188.2	
896.14	5188.2	
896.3	5188.2	
896.47	5188.2	
896.63	5188.2	
896.8	5188.2	
896.96	5188.2	
897.13	5188.2	
897.29	5188.2	
897.46	5188.2	
897.62	5188.2	
897.79	5188.2	
897.95	5188.2	
898.12	5188.2	
898.28	5188.2	
898.45	5188.2	
898.61	5188.2	
898.78	5188.2	
898.94	5188.2	
899.11	5188.2	
899.27	5188.2	
899.44	5188.2	
899.6	5188.2	
899.77	5188.2	
899.93	5188.2	
900.1	5188.2	
900.26	5188.2	
900.43	5188.2	
900.59	5188.2	
900.76	5188.2	
900.92	5188.2	
901.09	5188.2	
901.25	5188.2	
901.42	5188.2	
901.58	5188.2	
901.75	5188.2	
901.91	5188.2	
902.07	5188.2	
902.24	5188.2	
902.4	5188.2	
902.57	5188.2	
902.73	5188.2	
902.9	5188.2	
903.06	5188.2	
903.23	5188.2	
903.39	5188.2	
903.56	5188.2	
903.72	5188.2	
903.88	5188.2	
904.05	5188.2	
904.21	5188.2	
904.38	5188.2	
904.54	5188.2	
904.71	5188.2	
904.87	5188.2	
905.03	5188.2	
905.2	5188.2	
905.36	5188.2	
905.53	5188.2	
905.69	5188.2	
905.86	5188.2	
906.02	5188.2	
906.18	5188.2	
906.35	5188.2	
906.51	5188.2	
906.68	5188.2	
906.84	5188.2	
907.01	5188.2	
907.17	5188.2	
907.33	5188.2	
907.5	5188.2	
907.66	5188.2	
907.83	5188.2	
907.99	5188.2	
908.15	5188.2	
908.32	5188.2	
908.48	5188.2	
908.65	5188.2	
908.81	5188.2	
908.97	5188.2	
909.14	5188.2	
909.3	5188.2	
909.47	5188.2	
909.63	5188.2	
909.79	5188.2	
909.96	5188.2	
910.12	5188.2	
910.28	5188.2	
910.45	5188.2	
910.61	5188.2	
910.78	5188.2	
910.94	5188.2	
911.1	5188.2	
911.27	5188.2	
911.43	5188.2	
911.59	5188.2	
911.76	5188.2	
911.92	5188.2	
912.08	5188.2	
912.25	5188.2	
912.41	5188.2	
912.57	5188.2	
912.74	5188.2	
912.9	5188.2	
913.07	5188.2	
913.23	5188.2	
913.39	5188.2	
913.56	5188.2	
913.72	5188.2	
913.88	5188.2	
914.05	5188.2	
914.21	5188.2	
914.37	5188.2	
914.54	5188.2	
914.7	5188.2	
914.86	5188.2	
915.03	5188.2	
915.19	5188.2	
