Wavelength	Intensities	
nm	a.u.	
179.22	1749.6	
179.44	1749.6	
179.65	1749.6	
179.86	1749.6	
180.08	1785.8	
180.29	4255.7	
180.51	3106.1	
180.72	5147.9	
180.94	5945.3	
181.15	2882.9	
181.37	2909.5	
181.58	5044.1	
181.79	5252.4	
182.01	3026.9	
182.22	3216.7	
182.44	5256.5	
182.65	4463.9	
182.87	3981.9	
183.08	3552.5	
183.29	5500.8	
183.51	4644.1	
183.72	3209.2	
183.94	4539.7	
184.15	4926.7	
184.37	4914.4	
184.58	2861	
184.79	3748.5	
185.01	4590.9	
185.22	5253.7	
185.44	3947.1	
185.65	3411.2	
185.86	4888.5	
186.08	4505.5	
186.29	2771.6	
186.51	2992.1	
186.72	4668	
186.94	5358.9	
187.15	3431.7	
187.36	3494.5	
187.58	6842.3	
187.79	5023	
188.01	3627.6	
188.22	5586.2	
188.43	5941.2	
188.65	5242.1	
188.86	3015.3	
189.08	3535.5	
189.29	4841.4	
189.5	4752	
189.72	3253.5	
189.93	3315.7	
190.15	5397.8	
190.36	6351.4	
190.57	3569.6	
190.79	3440.6	
191	5431.2	
191.22	5404.6	
191.43	3601	
191.64	3011.9	
191.86	5579.3	
192.07	5453.1	
192.29	3137.5	
192.5	3231.7	
192.71	5421	
192.93	4716.5	
193.14	3227.6	
193.35	3307.5	
193.57	4772.4	
193.78	5474.9	
194	2661.7	
194.21	3169.6	
194.42	4556.7	
194.64	4955.4	
194.85	3452.9	
195.07	4003.1	
195.28	4956.1	
195.49	4387.4	
195.71	4268	
195.92	3031	
196.13	5132.2	
196.35	5151.3	
196.56	4477.5	
196.78	3498.6	
196.99	6225.8	
197.2	5902.9	
197.42	3908.9	
197.63	3540.9	
197.84	4470	
198.06	5105.6	
198.27	3251.5	
198.48	4257	
198.7	4705.5	
198.91	4899.4	
199.13	3543	
199.34	3526.6	
199.55	5345.9	
199.77	4319.8	
199.98	3136.1	
200.19	3573	
200.41	4832.5	
200.62	4638	
200.83	3665.9	
201.05	3933.5	
201.26	4894.6	
201.47	4712.4	
201.69	3132.7	
201.9	3119.1	
202.11	4943.8	
202.33	5804.6	
202.54	3364.1	
202.76	3732.1	
202.97	5036	
203.18	5048.9	
203.4	3700	
203.61	3635.1	
203.82	4981.3	
204.04	4703.5	
204.25	3558	
204.46	3446.7	
204.68	4991.6	
204.89	5122.7	
205.1	3465.2	
205.32	3076.7	
205.53	5268.7	
205.74	5435.3	
205.96	2600.2	
206.17	3639.9	
206.38	5211.4	
206.6	5393	
206.81	4085.7	
207.02	3268.6	
207.24	5136.3	
207.45	5524.7	
207.66	3402.4	
207.88	2959.3	
208.09	5129.5	
208.3	4946.5	
208.52	3130.7	
208.73	3464.5	
208.94	4929.5	
209.15	5573.9	
209.37	3455.6	
209.58	3812	
209.79	5413.5	
210.01	4823	
210.22	2792.1	
210.43	2843.3	
210.65	4931.5	
210.86	5318.6	
211.07	3405.1	
211.29	3097.2	
211.5	5193	
211.71	4893.3	
211.93	3132	
212.14	3117	
212.35	4884.4	
212.56	5048.2	
212.78	3538.2	
212.99	2949.1	
213.2	5687.2	
213.42	4833.2	
213.63	3199.6	
213.84	3404.4	
214.06	4463.9	
214.27	4540.3	
214.48	3368.2	
214.69	3605.8	
214.91	5552.7	
215.12	5575.3	
215.33	3614	
215.55	3889.1	
215.76	5945.3	
215.97	5255.8	
216.18	3405.1	
216.4	3437.2	
216.61	4651.6	
216.82	5341.1	
217.04	3170.3	
217.25	3251.5	
217.46	5530.2	
217.67	5279.7	
217.89	2800.9	
218.1	2960.7	
218.31	5062.6	
218.53	5171.1	
218.74	3336.8	
218.95	3168.9	
219.16	4887.8	
219.38	5742.5	
219.59	3171.6	
219.8	3768.3	
220.01	6238.8	
220.23	4934.9	
220.44	4115.7	
220.65	3099.9	
220.87	5076.9	
221.08	5448.3	
221.29	2971.6	
221.5	3831.1	
221.72	6546.7	
221.93	4723.3	
222.14	3524.6	
222.35	4115.1	
222.57	4939.7	
222.78	5359.5	
222.99	3356.6	
223.2	3633.8	
223.42	5261.9	
223.63	5296.7	
223.84	2607.1	
224.05	2657.6	
224.27	6146	
224.48	5719.3	
224.69	4179.2	
224.9	3565.5	
225.12	5147.2	
225.33	4893.3	
225.54	2869.2	
225.75	3196.2	
225.97	4614.1	
226.18	4900.1	
226.39	3412.6	
226.6	3192.1	
226.82	4745.1	
227.03	4622.9	
227.24	3518.4	
227.45	2992.1	
227.67	5352.7	
227.88	5720.7	
228.09	3913.7	
228.3	3963.5	
228.52	5271.5	
228.73	4896	
228.94	3336.1	
229.15	2985.9	
229.36	4885.1	
229.58	4812.7	
229.79	3366.9	
230	3834.5	
230.21	5816.9	
230.43	5034.6	
230.64	3530.7	
230.85	3687.7	
231.06	5373.2	
231.28	5293.3	
231.49	2977.7	
231.7	3497.2	
231.91	5233.9	
232.12	4964.3	
232.34	3030.3	
232.55	3424.2	
232.76	5485.1	
232.97	5063.3	
233.18	3154.6	
233.4	3504.8	
233.61	5072.1	
233.82	4785.4	
234.03	3274	
234.25	3217.4	
234.46	6678.4	
234.67	4997	
234.88	3670	
235.09	3140.2	
235.31	5116.5	
235.52	4897.4	
235.73	3505.4	
235.94	3005.1	
236.15	4686.4	
236.37	5874.3	
236.58	3142.3	
236.79	3439.9	
237	5236	
237.21	4506.2	
237.43	3648.8	
237.64	2907.4	
237.85	8401.5	
238.06	4600.4	
238.27	3691.8	
238.48	3007.8	
238.7	5257.8	
238.91	4894	
239.12	3408.5	
239.33	3472	
239.54	4595.6	
239.76	4904.2	
239.97	3383.2	
240.18	3373	
240.39	6038.8	
240.6	5146.5	
240.82	3528.7	
241.03	2933.4	
241.24	4899.4	
241.45	5636	
241.66	3126.6	
241.87	3614.7	
242.09	5578	
242.3	5851.7	
242.51	3659.7	
242.72	3400.3	
242.93	5313.8	
243.14	4872.1	
243.36	3882.9	
243.57	4171	
243.78	5674.9	
243.99	5297.4	
244.2	3345.7	
244.41	3083.6	
244.63	4587.4	
244.84	5216.2	
245.05	3674.7	
245.26	3396.2	
245.47	5227.1	
245.68	5375.2	
245.9	4463.2	
246.11	3558	
246.32	4820.9	
246.53	5082.4	
246.74	5408	
246.95	2902.7	
247.16	4585.4	
247.38	4947.9	
247.59	2840.5	
247.8	3424.9	
248.01	4661.2	
248.22	4934.2	
248.43	3119.7	
248.64	3343	
248.86	4472.8	
249.07	4750.6	
249.28	3065.8	
249.49	3545	
249.7	5364.3	
249.91	5455.8	
250.12	2850.8	
250.34	2945.7	
250.55	5091.9	
250.76	4958.1	
250.97	3514.3	
251.18	3550.5	
251.39	5411.4	
251.6	5091.9	
251.81	3566.2	
252.03	3601.7	
252.24	4771.1	
252.45	5345.2	
252.66	2990.7	
252.87	3767.6	
253.08	4938.3	
253.29	6295.5	
253.5	3028.9	
253.72	4051.6	
253.93	4827.7	
254.14	5779.4	
254.35	3234.4	
254.56	3342.3	
254.77	5180	
254.98	4589.5	
255.19	3244.7	
255.41	4065.2	
255.62	5060.5	
255.83	5511.1	
256.04	3645.4	
256.25	3544.4	
256.46	6012.2	
256.67	4695.3	
256.88	3502.7	
257.09	3869.3	
257.31	4637.3	
257.52	4679.6	
257.73	4324.6	
257.94	3281.5	
258.15	4863.2	
258.36	4969.7	
258.57	3986	
258.78	2705.4	
258.99	5322.7	
259.2	4807.9	
259.41	3267.2	
259.63	3358.7	
259.84	5650.3	
260.05	5960.3	
260.26	4142.4	
260.47	3170.3	
260.68	5434.6	
260.89	4851.6	
261.1	3921.2	
261.31	3146.4	
261.52	5499.5	
261.73	5741.8	
261.95	4130.8	
262.16	3725.3	
262.37	5572.5	
262.58	5672.9	
262.79	4121.9	
263	3319.8	
263.21	4920.6	
263.42	4858.5	
263.63	3414	
263.84	3263.8	
264.05	5427.8	
264.26	5711.8	
264.47	4033.1	
264.69	3617.4	
264.9	5574.6	
265.11	5109.7	
265.32	3153.2	
265.53	3301.3	
265.74	5099.4	
265.95	4435.9	
266.16	3487.7	
266.37	3763.5	
266.58	5049.6	
266.79	4827.7	
267	3245.3	
267.21	2994.1	
267.42	4620.2	
267.63	4970.4	
267.84	3392.8	
268.06	2977.1	
268.27	5334.3	
268.48	5529.5	
268.69	3322.5	
268.9	3896.6	
269.11	5517.9	
269.32	4530.1	
269.53	3394.8	
269.74	3191.4	
269.95	5169.8	
270.16	4439.3	
270.37	3433.1	
270.58	3870	
270.79	4842.1	
271	5350	
271.21	3602.4	
271.42	3393.5	
271.63	5085.8	
271.84	4640	
272.05	2743.6	
272.26	3087	
272.47	4962.2	
272.68	5158.8	
272.89	3287	
273.11	3753.2	
273.32	4794.3	
273.53	5732.9	
273.74	3678.2	
273.95	3568.9	
274.16	5452.4	
274.37	4971.8	
274.58	3731.4	
274.79	3046	
275	5100.8	
275.21	5444.2	
275.42	4414.1	
275.63	3805.8	
275.84	5264.6	
276.05	6320	
276.26	3620.1	
276.47	3392.8	
276.68	4887.1	
276.89	5781.4	
277.1	3801	
277.31	3022.1	
277.52	5143.8	
277.73	5345.2	
277.94	2967.5	
278.15	3287	
278.36	5138.4	
278.57	4670.1	
278.78	3361.4	
278.99	3666.5	
279.2	4741.7	
279.41	4659.1	
279.62	4250.9	
279.83	3029.6	
280.04	5917.3	
280.25	4600.4	
280.46	4233.8	
280.67	3375.7	
280.88	4642.7	
281.09	5511.8	
281.3	3590.1	
281.51	4517.8	
281.72	4731.5	
281.93	5343.8	
282.14	3222.8	
282.35	3491.1	
282.56	5352.7	
282.77	5324	
282.98	3327.3	
283.19	3962.8	
283.4	6462	
283.61	4913.8	
283.82	3091.8	
284.03	4174.4	
284.24	5091.9	
284.45	5479	
284.66	4229.7	
284.87	4000.4	
285.08	5420.3	
285.29	5560.9	
285.5	2934.7	
285.71	3298.6	
285.92	5446.9	
286.12	6053.1	
286.33	4133.5	
286.54	3315	
286.75	5306.3	
286.96	4868	
287.17	3063.8	
287.38	4009.2	
287.59	4704.9	
287.8	4697.4	
288.01	3406.5	
288.22	3824.9	
288.43	5356.8	
288.64	4543.8	
288.85	3968.3	
289.06	3805.8	
289.27	5313.1	
289.48	5671.5	
289.69	4207.2	
289.9	3821.5	
290.11	5552.7	
290.32	4726.7	
290.53	3971.7	
290.74	3614.7	
290.94	5313.1	
291.15	5386.2	
291.36	3177.1	
291.57	3747.8	
291.78	4825.7	
291.99	4491.9	
292.2	3119.7	
292.41	3631.7	
292.62	5446.9	
292.83	5217.5	
293.04	4485.7	
293.25	3142.3	
293.46	4769.7	
293.67	5466.7	
293.88	3187.3	
294.09	3123.2	
294.29	4622.3	
294.5	5071.5	
294.71	3409.9	
294.92	3308.2	
295.13	4787.5	
295.34	5834.7	
295.55	2932	
295.76	2884.9	
295.97	5312.4	
296.18	5903.6	
296.39	3047.4	
296.6	3183.9	
296.81	5073.5	
297.01	5244.8	
297.22	3358	
297.43	3231	
297.64	4702.1	
297.85	4646.8	
298.06	2744.3	
298.27	2927.2	
298.48	5008.6	
298.69	4693.9	
298.9	3441.3	
299.11	3164.8	
299.31	4616.8	
299.52	4610.7	
299.73	3693.9	
299.94	3616	
300.15	4945.2	
300.36	4616.8	
300.57	3617.4	
300.78	3587.4	
300.99	4830.5	
301.2	5049.6	
301.4	3175.7	
301.61	3478.1	
301.82	5276.9	
302.03	5340.4	
302.24	3866.6	
302.45	3037.1	
302.66	5172.5	
302.87	5563	
303.08	3207.8	
303.29	4299.4	
303.49	4765.6	
303.7	4997	
303.91	2891.7	
304.12	4108.2	
304.33	4546.5	
304.54	5124	
304.75	3264.5	
304.96	3085.6	
305.16	5186.8	
305.37	5821.7	
305.58	2833	
305.79	2939.5	
306	5217.5	
306.21	4498.7	
306.42	3265.1	
306.63	4779.3	
306.83	4857.8	
307.04	5381.4	
307.25	3539.6	
307.46	3487.7	
307.67	4360.8	
307.88	5299.5	
308.09	3188.7	
308.29	3287	
308.5	5024.3	
308.71	5461.2	
308.92	3430.3	
309.13	3086.3	
309.34	4824.3	
309.55	4864.6	
309.75	3962.1	
309.96	3630.4	
310.17	5294.7	
310.38	4721.9	
310.59	3781.2	
310.8	3059	
311.01	4854.4	
311.21	4871.4	
311.42	3145.7	
311.63	3167.5	
311.84	4754.7	
312.05	5025.7	
312.26	3490.4	
312.46	3902.7	
312.67	4819.6	
312.88	4549.2	
313.09	3057.6	
313.3	3063.1	
313.51	5640.1	
313.71	5968.5	
313.92	3117	
314.13	3237.2	
314.34	5090.6	
314.55	4881	
314.76	3953.3	
314.96	3477.5	
315.17	5087.8	
315.38	5240.8	
315.59	3147	
315.8	2981.2	
316.01	5614.2	
316.21	5685.8	
316.42	3021.4	
316.63	3482.9	
316.84	4799.1	
317.05	5540.4	
317.26	3635.1	
317.46	3310.9	
317.67	4923.3	
317.88	5247.6	
318.09	3907.5	
318.3	2922.5	
318.5	4768.4	
318.71	5285.1	
318.92	4892.6	
319.13	3680.2	
319.34	5397.8	
319.54	5475.6	
319.75	2940.2	
319.96	2804.4	
320.17	5273.5	
320.38	5375.2	
320.58	2898.6	
320.79	3371.6	
321	5457.8	
321.21	5489.2	
321.42	3451.5	
321.62	2933.4	
321.83	4615.4	
322.04	4990.9	
322.25	3298.6	
322.46	3130.7	
322.66	5054.4	
322.87	5245.5	
323.08	3798.3	
323.29	3069.2	
323.5	5803.9	
323.7	4653.7	
323.91	4175.1	
324.12	3781.2	
324.33	5038.7	
324.53	5282.4	
324.74	3620.8	
324.95	3782.6	
325.16	4496.7	
325.37	4823.6	
325.57	3127.9	
325.78	3136.1	
325.99	5061.2	
326.2	4545.1	
326.4	4300.7	
326.61	2924.5	
326.82	4901.5	
327.03	5087.2	
327.24	4382	
327.44	4080.2	
327.65	5184.8	
327.86	4284.4	
328.07	3601	
328.27	3007.1	
328.48	5594.4	
328.69	4585.4	
328.9	4410	
329.1	3304.7	
329.31	4881.7	
329.52	5625.1	
329.73	3145	
329.93	3476.1	
330.14	4962.2	
330.35	5146.5	
330.56	5048.9	
330.76	3822.9	
330.97	4794.3	
331.18	5201.2	
331.39	3490.4	
331.59	2851.5	
331.8	5429.8	
332.01	5541.1	
332.22	3220.8	
332.42	3669.3	
332.63	5053.7	
332.84	4733.5	
333.05	3513.6	
333.25	3157.3	
333.46	4790.2	
333.67	4945.8	
333.88	3307.5	
334.08	3549.8	
334.29	6483.9	
334.5	5484.5	
334.7	3050.1	
334.91	4327.4	
335.12	4626.4	
335.33	5259.2	
335.53	3461.7	
335.74	4901.5	
335.95	4826.4	
336.16	4656.4	
336.36	3451.5	
336.57	3910.9	
336.78	4603.2	
336.98	5481	
337.19	4226.3	
337.4	3394.2	
337.61	5969.1	
337.81	4625.7	
338.02	3186.6	
338.23	4001	
338.43	5609.4	
338.64	4657.1	
338.85	3138.9	
339.05	4080.9	
339.26	5658.5	
339.47	4537.6	
339.68	3098.6	
339.88	4538.3	
340.09	5244.2	
340.3	5355.4	
340.5	3618.1	
340.71	2736.1	
340.92	4539	
341.13	5525.4	
341.33	3028.9	
341.54	3644.7	
341.75	5208	
341.95	4833.9	
342.16	3506.1	
342.37	3754.6	
342.57	4576.5	
342.78	4931.5	
342.99	3870.7	
343.19	2831	
343.4	5276.3	
343.61	5144.5	
343.81	3327.9	
344.02	3061.7	
344.23	5296.7	
344.43	5651	
344.64	3813.3	
344.85	3703.4	
345.06	5177.9	
345.26	5447.6	
345.47	3596.2	
345.68	4110.3	
345.88	4503.5	
346.09	5359.5	
346.3	3703.4	
346.5	2801.6	
346.71	4955.4	
346.92	4734.2	
347.12	2983.9	
347.33	3566.9	
347.54	5437.4	
347.74	5782.8	
347.95	3632.4	
348.16	2736.1	
348.36	4819.6	
348.57	4671.4	
348.78	3593.5	
348.98	3810.6	
349.19	4920.6	
349.39	4547.2	
349.6	2953.2	
349.81	3193.5	
350.01	5236	
350.22	4717.2	
350.43	3469.9	
350.63	4107.5	
350.84	5026.4	
351.05	4800.4	
351.25	3167.5	
351.46	2934.7	
351.67	5455.1	
351.87	4732.9	
352.08	3384.6	
352.29	3789.4	
352.49	5375.9	
352.7	5050.3	
352.9	3093.8	
353.11	3833.8	
353.32	5900.2	
353.52	4833.9	
353.73	3064.4	
353.94	3822.2	
354.14	5259.9	
354.35	5078.3	
354.55	3170.9	
354.76	3505.4	
354.97	5199.1	
355.17	4983.4	
355.38	3097.9	
355.59	4044.1	
355.79	4706.9	
356	5076.2	
356.2	3465.8	
356.41	3097.2	
356.62	4561.5	
356.82	4955.4	
357.03	3748.5	
357.24	3346.4	
357.44	4806.6	
357.65	4885.8	
357.85	4358.8	
358.06	3537.5	
358.27	4537.6	
358.47	4716.5	
358.68	3008.5	
358.88	3736.2	
359.09	5248.9	
359.3	5522	
359.5	4297.3	
359.71	3863.8	
359.91	5861.3	
360.12	5280.3	
360.33	3656.3	
360.53	4186.7	
360.74	4746.5	
360.94	4853.7	
361.15	3874.1	
361.36	3272.7	
361.56	5451	
361.77	5010.7	
361.97	4254.3	
362.18	3478.8	
362.38	5526.1	
362.59	4730.1	
362.8	3308.2	
363	3135.4	
363.21	4539.7	
363.41	5089.2	
363.62	3705.5	
363.83	4457.1	
364.03	5212.1	
364.24	5862.7	
364.44	4530.8	
364.65	4564.2	
364.85	5018.2	
365.06	4741.7	
365.27	3424.9	
365.47	3398.3	
365.68	5825.1	
365.88	5000.5	
366.09	3710.2	
366.29	3450.1	
366.5	5190.2	
366.71	5510.4	
366.91	4514.4	
367.12	3870	
367.32	6016.9	
367.53	5369.1	
367.73	3893.9	
367.94	4634.6	
368.14	5410.1	
368.35	6029.9	
368.56	3805.1	
368.76	3319.1	
368.97	5543.2	
369.17	6784.9	
369.38	3418.7	
369.58	3615.3	
369.79	4666.6	
369.99	5776.6	
370.2	4524	
370.4	3731.4	
370.61	5184.1	
370.82	6182.8	
371.02	3654.3	
371.23	3104	
371.43	4640	
371.64	5765.7	
371.84	3731.4	
372.05	4625.7	
372.25	6726.9	
372.46	5437.4	
372.66	3707.5	
372.87	3685	
373.07	5548.6	
373.28	6867.5	
373.48	4454.3	
373.69	4278.2	
373.9	5134.3	
374.1	5161.6	
374.31	4422.2	
374.51	4109.6	
374.72	5810.1	
374.92	4913.8	
375.13	4640	
375.33	3949.8	
375.54	5438	
375.74	5042.8	
375.95	4070	
376.15	5096.7	
376.36	5560.9	
376.56	5362.9	
376.77	4052.9	
376.97	4406.5	
377.18	6391.7	
377.38	5589.6	
377.59	4778.6	
377.79	3715.7	
378	5439.4	
378.2	5772.5	
378.41	3753.9	
378.61	3725.9	
378.82	5861.3	
379.02	5158.2	
379.23	3967.6	
379.43	4820.9	
379.64	5997.8	
379.84	5559.6	
380.05	3808.5	
380.25	3768.9	
380.46	5711.1	
380.66	5296	
380.87	4849.6	
381.07	5117.2	
381.28	6156.9	
381.48	5632.6	
381.69	3778.5	
381.89	3830.4	
382.1	4919.2	
382.3	5801.2	
382.51	4674.8	
382.71	5375.9	
382.91	5597.8	
383.12	6090.7	
383.32	4039.3	
383.53	4249.5	
383.73	5535.7	
383.94	5373.9	
384.14	4243.4	
384.35	3489.7	
384.55	5263.3	
384.76	5644.2	
384.96	4098.7	
385.17	4297.3	
385.37	5686.5	
385.58	4997	
385.78	4278.2	
385.98	3442.6	
386.19	5196.4	
386.39	5578.7	
386.6	3869.3	
386.8	4050.9	
387.01	5612.1	
387.21	5743.9	
387.42	4447.5	
387.62	4844.1	
387.83	5152	
388.03	5559.6	
388.23	4137.6	
388.44	4755.4	
388.64	4965.6	
388.85	5048.2	
389.05	4403.1	
389.26	4949.9	
389.46	6650.4	
389.67	6111.1	
389.87	4446.1	
390.07	4448.2	
390.28	5447.6	
390.48	5085.8	
390.69	3850.9	
390.89	4074.8	
391.1	5330.2	
391.3	5998.5	
391.5	5032.5	
391.71	5483.8	
391.91	5809.4	
392.12	6521.4	
392.32	5148.6	
392.53	4430.4	
392.73	5287.2	
392.93	5461.2	
393.14	4253.6	
393.34	4848.2	
393.55	5752.1	
393.75	5350.7	
393.95	4106.2	
394.16	4083	
394.36	5281.7	
394.57	5820.3	
394.77	3771	
394.98	4055.7	
395.18	5226.4	
395.38	5363.6	
395.59	4842.8	
395.79	4005.8	
396	5406.6	
396.2	5745.2	
396.4	4693.9	
396.61	4704.2	
396.81	5950	
397.02	5354.1	
397.22	4915.8	
397.42	4978.6	
397.63	5976	
397.83	5360.9	
398.04	4015.4	
398.24	4481	
398.44	5750.7	
398.65	5014.1	
398.85	3915	
399.05	3998.3	
399.26	5315.8	
399.46	6689.3	
399.67	4353.3	
399.87	4085.7	
400.07	5628.5	
400.28	5917.3	
400.48	4218.1	
400.69	5052.3	
400.89	6070.9	
401.09	6465.4	
401.3	4166.3	
401.5	5020.9	
401.7	6687.3	
401.91	6935.8	
402.11	4481	
402.32	4595.6	
402.52	6245.6	
402.72	6032	
402.93	4686.4	
403.13	3832.4	
403.33	6683.9	
403.54	5532.2	
403.74	4382.7	
403.94	5074.2	
404.15	5656.5	
404.35	6596.5	
404.56	4278.9	
404.76	5687.9	
404.96	6096.8	
405.17	5802.6	
405.37	5242.1	
405.57	4678.2	
405.78	6205.3	
405.98	5730.9	
406.18	4386.1	
406.39	5011.4	
406.59	6135.7	
406.79	5780.1	
407	4133.5	
407.2	4209.3	
407.4	6156.9	
407.61	6276.3	
407.81	4190.1	
408.01	5790.3	
408.22	5285.8	
408.42	6890.7	
408.62	5249.6	
408.83	4792.2	
409.03	5939.8	
409.23	5857.2	
409.44	4923.3	
409.64	5232.6	
409.84	6739.9	
410.05	6680.5	
410.25	5119.2	
410.45	4941.7	
410.66	6309.8	
410.86	8350.9	
411.06	5284.4	
411.27	5264	
411.47	8236.2	
411.67	6499.6	
411.88	5444.9	
412.08	5638.1	
412.28	7058.7	
412.49	7468.9	
412.69	5272.2	
412.89	5309	
413.09	7280.5	
413.3	7221.1	
413.5	5363.6	
413.7	5156.1	
413.91	6669.6	
414.11	7432.8	
414.31	5293.3	
414.52	5688.6	
414.72	7180.9	
414.92	7091.4	
415.12	5263.3	
415.33	5745.2	
415.53	7438.2	
415.73	7524.2	
415.94	6108.4	
416.14	5546.6	
416.34	6629.3	
416.55	6343.2	
416.75	6535.1	
416.95	6103.6	
417.15	7520.1	
417.36	7961.8	
417.56	6817.7	
417.76	5971.9	
417.97	7727.7	
418.17	7481.9	
418.37	5645.6	
418.57	5748	
418.78	7364.5	
418.98	7008.8	
419.18	6391	
419.38	6405.4	
419.59	6984.9	
419.79	6640.2	
419.99	5515.9	
420.2	5823.7	
420.4	7394.5	
420.6	7632.1	
420.8	5580.7	
421.01	5446.9	
421.21	7387	
421.41	7456	
421.61	5881.1	
421.82	5531.6	
422.02	6999.3	
422.22	7701	
422.42	6352.8	
422.63	5954.1	
422.83	7009.5	
423.03	8056.7	
423.23	6005.3	
423.44	5087.8	
423.64	7072.3	
423.84	6819.1	
424.04	5586.2	
424.25	5158.8	
424.45	7746.1	
424.65	7716.7	
424.85	5097.4	
425.06	5511.1	
425.26	7858.7	
425.46	6848.4	
425.66	5935.7	
425.87	5662.6	
426.07	7504.4	
426.27	7361.1	
426.47	5735.7	
426.67	5283.1	
426.88	7813	
427.08	7325.6	
427.28	5984.8	
427.48	5140.4	
427.69	6524.8	
427.89	7019.8	
428.09	5951.4	
428.29	5190.2	
428.5	7580.2	
428.7	7205.4	
428.9	5203.2	
429.1	5472.9	
429.3	7162.4	
429.51	7339.9	
429.71	5385.5	
429.91	6160.3	
430.11	7406.8	
430.31	7629.4	
430.52	5610.1	
430.72	5971.2	
430.92	7860.1	
431.12	7387.7	
431.32	5437.4	
431.53	5807.4	
431.73	6560.3	
431.93	7980.3	
432.13	5371.8	
432.33	5260.5	
432.54	6959.7	
432.74	7208.2	
432.94	5238.7	
433.14	6150.1	
433.34	7408.2	
433.55	7152.9	
433.75	6053.8	
433.95	7585	
434.15	7327.6	
434.35	7120.1	
434.56	5429.2	
434.76	5082.4	
434.96	7279.2	
435.16	7559.7	
435.36	5358.9	
435.56	6371.2	
435.77	7025.9	
435.97	7195.9	
436.17	6898.9	
436.37	6376.7	
436.57	7032	
436.78	7029.3	
436.98	6708.5	
437.18	6837.5	
437.38	7636.2	
437.58	7177.4	
437.78	6883.9	
437.99	5776	
438.19	7596.6	
438.39	8305.9	
438.59	5775.3	
438.79	5212.8	
438.99	8133.8	
439.2	7083.9	
439.4	5271.5	
439.6	5274.2	
439.8	7440.3	
440	8306.6	
440.2	6308.4	
440.4	6395.1	
440.61	7875.8	
440.81	8335.9	
441.01	5672.9	
441.21	6450.4	
441.41	8284.7	
441.61	7894.9	
441.81	6704.4	
442.02	7507.9	
442.22	8608.3	
442.42	7959.8	
442.62	5744.6	
442.82	5765.7	
443.02	8209.6	
443.22	7627.3	
443.43	6143.9	
443.63	5773.9	
443.83	7382.9	
444.03	7381.6	
444.23	6928.3	
444.43	6410.1	
444.63	7806.2	
444.83	8755.1	
445.04	5929.6	
445.24	7000	
445.44	7991.2	
445.64	8071.7	
445.84	6596.5	
446.04	6577.4	
446.24	7437.5	
446.44	8208.9	
446.65	5692	
446.85	6167.1	
447.05	7363.1	
447.25	8158.4	
447.45	6269.5	
447.65	5728.2	
447.85	7699.7	
448.05	7253.9	
448.25	6509.8	
448.46	6408.8	
448.66	7731.8	
448.86	7386.3	
449.06	5666	
449.26	6587.6	
449.46	8043.1	
449.66	7289.4	
449.86	6331	
450.06	6214.2	
450.26	7372.7	
450.47	7922.9	
450.67	6372.6	
450.87	6709.8	
451.07	8021.2	
451.27	7848.5	
451.47	5855.8	
451.67	6409.5	
451.87	7580.9	
452.07	8507.9	
452.27	6122.1	
452.47	5993.7	
452.67	7854.6	
452.88	8163.9	
453.08	5496.1	
453.28	7157	
453.48	8808.3	
453.68	7686	
453.88	6019	
454.08	6182.8	
454.28	8049.2	
454.48	7802.1	
454.68	6616.3	
454.88	7067.5	
455.08	8193.2	
455.28	8013	
455.48	5979.4	
455.68	6537.1	
455.89	8668.4	
456.09	8352.3	
456.29	6296.8	
456.49	6468.9	
456.69	8544.1	
456.89	7933.1	
457.09	6769.9	
457.29	7173.4	
457.49	8311.3	
457.69	8366	
457.89	6761	
458.09	6184.2	
458.29	8110.6	
458.49	8770.1	
458.69	7148.1	
458.89	6595.1	
459.09	8989.2	
459.29	9170.8	
459.49	6724.2	
459.69	7335.1	
459.9	8568	
460.1	8332.5	
460.3	6589.7	
460.5	6343.2	
460.7	8530.5	
460.9	8229.4	
461.1	6232.7	
461.3	7193.8	
461.5	9073.9	
461.7	8840.4	
461.9	6688	
462.1	7042.3	
462.3	8551.6	
462.5	8942.8	
462.7	6732.4	
462.9	6881.2	
463.1	9862.3	
463.3	9714.2	
463.5	7012.2	
463.7	7862.2	
463.9	8845.2	
464.1	9041.1	
464.3	7272.3	
464.5	7372	
464.7	9380.4	
464.9	9102.5	
465.1	8491.6	
465.3	7751.6	
465.5	9562.6	
465.7	9664.4	
465.9	7944.1	
466.1	7664.2	
466.3	9538.8	
466.5	9305.3	
466.7	8545.5	
466.9	7657.4	
467.1	9451.4	
467.3	10169	
467.5	8693.6	
467.7	7605.5	
467.9	10303	
468.1	11069	
468.3	8209.6	
468.5	8677.2	
468.7	9407	
468.9	9344.9	
469.1	7994.6	
469.3	8572.1	
469.5	11139	
469.7	9142.8	
469.9	8262.9	
470.1	7847.1	
470.3	9608.4	
470.5	9493	
470.7	8832.9	
470.9	7765.9	
471.1	9340.8	
471.3	9564.7	
471.5	7717.4	
471.69	9140.8	
471.89	9181	
472.09	8802.2	
472.29	8338.6	
472.49	8467	
472.69	8903.2	
472.89	9527.8	
473.09	7582.9	
473.29	7559.1	
473.49	9130.5	
473.69	9112.8	
473.89	8430.8	
474.09	7755	
474.29	10163	
474.49	9845.3	
474.69	8288.8	
474.89	7811	
475.09	9241.1	
475.29	9095	
475.49	7402	
475.69	7645.1	
475.88	10362	
476.08	9426.1	
476.28	7259.4	
476.48	7573.4	
476.68	9665.7	
476.88	9499.2	
477.08	7522.2	
477.28	7785	
477.48	9159.9	
477.68	9554.5	
477.88	7259.4	
478.08	7561.8	
478.28	10074	
478.48	9273.2	
478.67	7712.7	
478.87	7215	
479.07	9910.8	
479.27	9387.9	
479.47	7784.3	
479.67	7823.9	
479.87	9692.4	
480.07	10131	
480.27	7251.9	
480.47	8553.7	
480.67	9383.1	
480.87	9944.9	
481.06	7453.2	
481.26	8283.4	
481.46	9401.5	
481.66	9221.3	
481.86	7956.4	
482.06	8785.8	
482.26	9084.1	
482.46	9846.6	
482.66	7783	
482.86	7550.9	
483.05	9463.7	
483.25	8903.9	
483.45	9937.4	
483.65	7983.7	
483.85	9009.7	
484.05	9410.4	
484.25	8258.1	
484.45	8675.9	
484.65	10069	
484.84	10141	
485.04	7882.6	
485.24	7891.5	
485.44	10383	
485.64	8916.2	
485.84	7348.1	
486.04	8500.4	
486.24	9293.7	
486.44	9553.1	
486.63	7240.9	
486.83	8009.6	
487.03	9232.9	
487.23	9444.5	
487.43	7421.8	
487.63	9462.3	
487.83	9534.7	
488.02	10264	
488.22	8376.9	
488.42	8781.7	
488.62	10301	
488.82	9424.1	
489.02	7985	
489.22	8149.6	
489.41	10032	
489.61	9947	
489.81	7840.3	
490.01	7871	
490.21	10238	
490.41	10787	
490.61	7894.9	
490.8	7944.1	
491	9693	
491.2	9127.8	
491.4	8378.9	
491.6	7494.9	
491.8	9557.2	
491.99	9529.2	
492.19	7459.4	
492.39	7720.2	
492.59	10025	
492.79	10088	
492.99	8561.2	
493.18	7877.2	
493.38	10325	
493.58	10991	
493.78	8496.3	
493.98	8189.8	
494.18	10114	
494.37	9712.2	
494.57	8871.1	
494.77	8669.1	
494.97	10428	
495.17	10559	
495.37	8403.5	
495.56	8677.9	
495.76	10845	
495.96	10643	
496.16	9521.7	
496.36	8722.3	
496.55	10842	
496.75	10400	
496.95	9038.4	
497.15	8973.5	
497.35	10822	
497.54	10699	
497.74	8709.3	
497.94	10075	
498.14	11456	
498.34	11214	
498.53	8511.4	
498.73	9050	
498.93	10288	
499.13	10764	
499.33	9029.5	
499.52	9492.3	
499.72	10830	
499.92	11036	
500.12	8880	
500.32	9058.2	
500.51	11086	
500.71	10839	
500.91	9733.3	
501.11	9414.5	
501.31	11025	
501.5	11431	
501.7	9987.3	
501.9	9110	
502.1	10770	
502.29	11160	
502.49	9475.3	
502.69	9908.1	
502.89	10910	
503.09	10925	
503.28	8642.4	
503.48	8750.3	
503.68	10253	
503.88	10288	
504.07	9477.3	
504.27	9019.9	
504.47	10718	
504.67	10723	
504.86	9438.4	
505.06	9105.3	
505.26	10403	
505.46	11715	
505.65	9016.5	
505.85	9082.7	
506.05	10245	
506.25	10619	
506.44	8284.7	
506.64	9052	
506.84	10101	
507.04	10779	
507.23	8532.5	
507.43	8924.4	
507.63	11711	
507.83	10122	
508.02	8918.2	
508.22	8572.8	
508.42	11872	
508.62	10041	
508.81	8706.6	
509.01	9265	
509.21	9847.3	
509.4	10135	
509.6	8919.6	
509.8	8467.7	
510	10136	
510.19	11274	
510.39	8448.6	
510.59	8572.8	
510.79	10077	
510.98	11157	
511.18	8658.8	
511.38	8768	
511.57	10740	
511.77	10541	
511.97	9185.8	
512.17	8424	
512.36	10670	
512.56	10535	
512.76	8443.8	
512.95	8175.5	
513.15	10825	
513.35	9632.3	
513.55	9151.7	
513.74	8478.6	
513.94	10718	
514.14	10105	
514.33	9286.9	
514.53	8998.8	
514.73	10084	
514.92	10329	
515.12	8551	
515.32	8428.1	
515.51	10403	
515.71	10789	
515.91	9955.2	
516.11	8563.2	
516.3	11814	
516.5	10097	
516.7	8966	
516.89	9466.4	
517.09	10217	
517.29	10226	
517.48	9290.3	
517.68	8760.5	
517.88	9977.7	
518.07	10542	
518.27	9318.3	
518.47	8391.9	
518.66	10864	
518.86	9785.9	
519.06	8172.8	
519.25	8600.1	
519.45	10092	
519.65	11331	
519.84	9293	
520.04	9807.7	
520.24	11737	
520.43	10645	
520.63	9026.8	
520.83	8653.4	
521.02	9920.4	
521.22	10460	
521.42	8966	
521.61	9544.9	
521.81	10068	
522.01	10233	
522.2	8940.7	
522.4	8708.6	
522.6	10710	
522.79	9693	
522.99	8860.2	
523.18	8329.8	
523.38	10516	
523.58	10649	
523.77	10075	
523.97	8488.8	
524.17	12074	
524.36	11475	
524.56	9667.8	
524.76	9401.5	
524.95	10715	
525.15	10345	
525.34	9242.5	
525.54	9189.2	
525.74	11265	
525.93	10240	
526.13	10269	
526.33	9326.4	
526.52	11531	
526.72	10935	
526.91	10327	
527.11	9701.9	
527.31	11394	
527.5	11819	
527.7	9709.4	
527.89	8995.4	
528.09	10641	
528.29	11246	
528.48	10161	
528.68	9807.7	
528.87	11454	
529.07	11368	
529.27	9644.6	
529.46	9301.2	
529.66	11105	
529.85	11531	
530.05	9163.3	
530.25	9875.3	
530.44	12340	
530.64	10907	
530.83	9484.1	
531.03	9606.3	
531.23	11596	
531.42	11269	
531.62	10243	
531.81	9626.8	
532.01	11675	
532.21	11953	
532.4	9666.4	
532.6	9949	
532.79	12499	
532.99	11847	
533.18	10021	
533.38	10909	
533.58	11529	
533.77	12050	
533.97	10085	
534.16	10732	
534.36	12249	
534.55	11479	
534.75	10990	
534.95	10161	
535.14	12336	
535.34	11598	
535.53	9848.7	
535.73	11479	
535.92	12711	
536.12	11651	
536.31	9779.1	
536.51	10901	
536.71	11823	
536.9	11359	
537.1	10007	
537.29	10079	
537.49	12282	
537.68	11437	
537.88	10477	
538.07	9755.2	
538.27	11661	
538.46	12526	
538.66	9787.2	
538.86	10094	
539.05	11810	
539.25	12076	
539.44	10521	
539.64	9960.6	
539.83	11606	
540.03	12370	
540.22	9876.7	
540.42	9888.3	
540.61	11641	
540.81	11825	
541	10196	
541.2	10800	
541.39	11349	
541.59	11604	
541.78	10581	
541.98	9736.7	
542.18	11014	
542.37	11032	
542.57	10093	
542.76	10469	
542.96	10976	
543.15	11390	
543.35	10042	
543.54	9436.4	
543.74	11710	
543.93	11445	
544.13	9831.6	
544.32	10672	
544.52	11603	
544.71	10884	
544.91	9091.6	
545.1	10133	
545.3	10965	
545.49	11434	
545.69	9010.4	
545.88	9590.6	
546.08	12423	
546.27	11945	
546.47	10036	
546.66	9367.4	
546.86	11703	
547.05	12172	
547.24	9545.6	
547.44	9463	
547.63	10824	
547.83	11686	
548.02	9654.8	
548.22	9927.9	
548.41	10569	
548.61	11686	
548.8	9312.1	
549	9306	
549.19	11174	
549.39	11516	
549.58	8979.7	
549.78	9443.2	
549.97	11542	
550.17	10847	
550.36	10200	
550.55	11028	
550.75	10859	
550.94	11682	
551.14	9137.4	
551.33	9413.8	
551.53	10409	
551.72	11129	
551.92	9469.8	
552.11	9230.9	
552.31	11235	
552.5	11199	
552.69	10544	
552.89	8970.1	
553.08	11202	
553.28	10901	
553.47	9350.3	
553.67	10118	
553.86	11618	
554.06	10286	
554.25	8514.8	
554.44	9069.1	
554.64	12211	
554.83	11720	
555.03	9004.2	
555.22	9233.6	
555.42	11250	
555.61	10950	
555.8	9077.3	
556	9286.2	
556.19	10199	
556.39	11217	
556.58	9189.9	
556.78	9149	
556.97	10864	
557.16	10669	
557.36	10222	
557.55	8817.9	
557.75	10059	
557.94	11550	
558.13	8940.7	
558.33	8689.5	
558.52	11350	
558.72	10376	
558.91	8806.3	
559.1	8951	
559.3	10249	
559.49	9854.1	
559.69	8359.8	
559.88	9308	
560.07	10747	
560.27	11130	
560.46	9398.1	
560.66	9526.5	
560.85	10634	
561.04	9894.4	
561.24	8741.4	
561.43	8822	
561.63	10020	
561.82	10347	
562.01	9884.2	
562.21	9089.6	
562.4	10634	
562.59	11550	
562.79	9000.8	
562.98	8704.5	
563.18	10779	
563.37	11860	
563.56	9350.3	
563.76	8671.8	
563.95	10188	
564.14	10273	
564.34	9035	
564.53	8780.3	
564.73	10696	
564.92	10970	
565.11	9196.7	
565.31	8637	
565.5	11210	
565.69	10238	
565.89	8930.5	
566.08	9173.5	
566.27	11097	
566.47	11519	
566.66	9721	
566.85	8546.2	
567.05	10914	
567.24	10333	
567.44	8787.8	
567.63	9932.6	
567.82	10860	
568.02	10657	
568.21	8774.9	
568.4	9151.7	
568.6	10663	
568.79	10643	
568.98	8723	
569.18	8903.9	
569.37	10702	
569.56	12391	
569.76	9226.1	
569.95	10017	
570.14	11061	
570.34	10856	
570.53	8754.4	
570.72	8704.5	
570.91	11293	
571.11	10628	
571.3	9087.5	
571.49	9897.2	
571.69	10780	
571.88	10185	
572.07	9574.9	
572.27	9568.8	
572.46	10299	
572.65	11108	
572.85	8988.5	
573.04	9245.9	
573.23	11365	
573.43	10734	
573.62	8809	
573.81	9364.7	
574	10857	
574.2	10717	
574.39	9172.9	
574.58	9293	
574.78	11645	
574.97	11036	
575.16	9690.3	
575.36	9885.5	
575.55	11310	
575.74	11480	
575.93	8888.9	
576.13	9869.2	
576.32	10828	
576.51	11267	
576.71	9303.2	
576.9	10364	
577.09	11598	
577.28	11148	
577.48	9675.3	
577.67	8934.6	
577.86	10828	
578.05	11124	
578.25	9498.5	
578.44	9519	
578.63	11010	
578.83	12015	
579.02	8976.2	
579.21	10229	
579.4	11091	
579.6	10978	
579.79	9568.1	
579.98	11403	
580.17	11445	
580.37	11564	
580.56	9112.1	
580.75	9756.5	
580.94	11762	
581.14	11794	
581.33	10162	
581.52	9327.1	
581.71	11341	
581.91	11908	
582.1	9039.7	
582.29	9442.5	
582.48	11110	
582.68	11089	
582.87	9929.9	
583.06	9729.9	
583.25	11391	
583.45	10829	
583.64	10154	
583.83	10730	
584.02	10934	
584.21	11356	
584.41	10118	
584.6	9585.9	
584.79	11158	
584.98	11699	
585.18	9146.9	
585.37	9164	
585.56	10905	
585.75	11372	
585.94	9278.7	
586.14	9766.1	
586.33	11826	
586.52	11032	
586.71	9695.8	
586.91	9351	
587.1	10402	
587.29	11239	
587.48	9209.7	
587.67	9177.6	
587.87	11168	
588.06	11164	
588.25	10182	
588.44	9711.5	
588.63	10762	
588.83	11195	
589.02	9103.9	
589.21	9088.9	
589.4	10602	
589.59	10436	
589.78	8259.5	
589.98	8368	
590.17	9801.6	
590.36	10280	
590.55	7746.1	
590.74	8234.9	
590.94	11223	
591.13	10035	
591.32	8179.6	
591.51	7938.6	
591.7	10458	
591.89	10066	
592.09	8063.5	
592.28	8406.2	
592.47	9413.8	
592.66	11080	
592.85	7879.9	
593.05	8163.9	
593.24	9968.1	
593.43	10664	
593.62	8303.8	
593.81	8675.9	
594	10046	
594.19	10283	
594.39	8217.1	
594.58	8077.2	
594.77	10326	
594.96	10774	
595.15	8090.2	
595.34	8579.6	
595.54	10077	
595.73	9466.4	
595.92	7520.8	
596.11	8480	
596.3	10616	
596.49	9522.4	
596.68	8259.5	
596.88	8680	
597.07	10379	
597.26	9421.3	
597.45	7910.6	
597.64	8929.1	
597.83	9607	
598.02	10153	
598.22	7991.9	
598.41	8443.1	
598.6	10018	
598.79	9546.3	
598.98	8029.4	
599.17	8720.9	
599.36	10021	
599.55	10808	
599.74	9723.1	
599.94	9388.6	
600.13	10407	
600.32	9490.3	
600.51	7759.1	
600.7	7872.4	
600.89	10943	
601.08	11012	
601.27	7684	
601.47	8535.3	
601.66	10380	
601.85	10871	
602.04	8277.9	
602.23	8323.6	
602.42	9591.3	
602.61	10107	
602.8	8106.5	
602.99	7905.2	
603.18	9826.8	
603.37	9955.9	
603.57	8533.2	
603.76	8962.6	
603.95	10635	
604.14	10162	
604.33	8086.7	
604.52	8318.2	
604.71	10021	
604.9	9587.9	
605.09	8817.9	
605.28	8647.2	
605.47	10447	
605.66	10206	
605.86	8488.8	
606.05	8123.6	
606.24	10501	
606.43	9250.7	
606.62	8297	
606.81	8873.2	
607	10256	
607.19	9802.3	
607.38	7756.3	
607.57	8002.1	
607.76	9578.3	
607.95	9026.1	
608.14	8301.8	
608.33	8823.3	
608.52	9598.1	
608.72	10226	
608.91	7673.7	
609.1	7563.8	
609.29	9611.1	
609.48	9203.6	
609.67	8394.6	
609.86	7639.6	
610.05	9210.4	
610.24	9456.2	
610.43	7514.7	
610.62	7170.6	
610.81	10419	
611	10253	
611.19	7658.7	
611.38	8267.6	
611.57	9672.6	
611.76	10776	
611.95	7482.6	
612.14	7247.1	
612.33	9565.4	
612.52	9228.8	
612.71	7881.3	
612.9	7312.6	
613.09	8875.9	
613.28	10886	
613.47	7789.8	
613.66	8456.1	
613.85	9632.3	
614.04	9161.2	
614.24	7656	
614.43	7114.6	
614.62	9696.4	
614.81	9687.6	
615	8129.8	
615.19	8115.4	
615.38	9117.6	
615.57	9480	
615.76	8144.8	
615.95	8981	
616.14	9792	
616.33	9487.6	
616.52	8342.1	
616.71	8432.2	
616.9	9766.1	
617.09	9562	
617.28	7717.4	
617.47	8673.1	
617.66	9059.5	
617.85	9117.6	
618.04	8594.6	
618.22	8095.6	
618.41	9377	
618.6	10051	
618.79	8083.3	
618.98	7798	
619.17	10395	
619.36	9007	
619.55	8031.5	
619.74	8034.9	
619.93	9745.6	
620.12	9310.7	
620.31	8448.6	
620.5	8607.6	
620.69	10344	
620.88	10720	
621.07	9235.7	
621.26	8414.4	
621.45	10061	
621.64	9948.3	
621.83	8542.1	
622.02	7905.8	
622.21	10123	
622.4	9826.8	
622.59	8989.9	
622.78	8818.6	
622.97	9606.3	
623.16	10380	
623.35	8588.5	
623.54	7814.4	
623.72	9725.1	
623.91	9820.7	
624.1	8826.7	
624.29	7618.4	
624.48	10836	
624.67	10102	
624.86	8686.8	
625.05	7935.9	
625.24	10826	
625.43	9491.7	
625.62	10074	
625.81	8006.9	
626	10320	
626.19	9682.8	
626.38	8708.6	
626.56	8249.9	
626.75	9589.3	
626.94	10221	
627.13	8697	
627.32	7648.5	
627.51	10155	
627.7	11143	
627.89	7663.5	
628.08	8732.5	
628.27	9398.1	
628.46	9633.6	
628.65	7987.1	
628.83	7782.3	
629.02	10074	
629.21	9476.6	
629.4	8256.7	
629.59	8516.1	
629.78	9415.2	
629.97	10200	
630.16	8583.7	
630.35	8158.4	
630.54	10688	
630.72	10357	
630.91	8174.1	
631.1	8537.3	
631.29	9882.1	
631.48	10001	
631.67	8533.2	
631.86	8126.3	
632.05	9678	
632.24	9655.5	
632.42	7859.4	
632.61	8315.4	
632.8	9753.1	
632.99	9402.2	
633.18	8357.8	
633.37	8634.2	
633.56	9951.1	
633.75	9775	
633.93	8363.2	
634.12	8065.6	
634.31	10587	
634.5	10055	
634.69	8191.2	
634.88	8552.3	
635.07	9658.2	
635.25	10201	
635.44	8780.3	
635.63	9110.7	
635.82	9575.6	
636.01	9047.2	
636.2	8815.1	
636.39	8426	
636.57	10591	
636.76	10119	
636.95	7858.7	
637.14	9030.2	
637.33	9977	
637.52	10623	
637.7	7768.6	
637.89	8556.4	
638.08	9590	
638.27	10730	
638.46	8541.4	
638.65	8910.7	
638.83	10686	
639.02	9377.6	
639.21	8475.9	
639.4	8798.8	
639.59	9747	
639.78	9340.8	
639.96	7764.5	
640.15	7838.9	
640.34	9562	
640.53	9745.6	
640.72	7587.7	
640.91	7821.2	
641.09	9136.7	
641.28	10225	
641.47	7864.2	
641.66	8511.4	
641.85	9681.4	
642.03	9738.8	
642.22	8252.6	
642.41	7764.5	
642.6	9119.6	
642.79	8624	
642.97	7573.4	
643.16	8224	
643.35	9158.5	
643.54	8796.7	
643.73	7540.6	
643.91	8153	
644.1	8712.7	
644.29	9323	
644.48	7561.8	
644.67	7572.7	
644.85	8833.6	
645.04	9183.1	
645.23	7086	
645.42	7385	
645.6	8662.2	
645.79	9600.2	
645.98	7269.6	
646.17	6552.1	
646.36	8338.6	
646.54	8871.8	
646.73	7862.8	
646.92	6978.8	
647.11	8534.6	
647.29	9288.2	
647.48	7006.1	
647.67	6812.9	
647.86	9549	
648.05	9609.8	
648.23	7165.8	
648.42	8297	
648.61	8996.7	
648.8	8776.2	
648.98	6864.1	
649.17	7161.1	
649.36	8441.7	
649.55	8079.2	
649.73	6945.3	
649.92	7647.8	
650.11	8353	
650.3	8609	
650.48	7013.6	
650.67	6680.5	
650.86	8818.6	
651.05	7919.5	
651.23	6947.4	
651.42	6939.2	
651.61	8411.7	
651.79	8391.2	
651.98	7098.9	
652.17	6776	
652.36	8736.6	
652.54	7947.5	
652.73	6834.1	
652.92	6660	
653.11	8688.2	
653.29	8810.4	
653.48	6265.4	
653.67	6956.3	
653.85	8415.1	
654.04	9331.2	
654.23	7090.8	
654.42	6744	
654.6	7960.5	
654.79	8521.6	
654.98	6227.2	
655.16	6664.1	
655.35	7529	
655.54	7415.7	
655.73	6225.8	
655.91	6150.7	
656.1	8441.7	
656.29	7563.8	
656.47	5880.4	
656.66	7318.1	
656.85	7842.4	
657.03	7789.1	
657.22	6429.3	
657.41	6481.8	
657.59	7914	
657.78	7798.7	
657.97	6154.1	
658.16	6774.7	
658.34	8486.1	
658.53	8808.3	
658.72	7565.9	
658.9	7901.1	
659.09	8042.4	
659.28	8133.2	
659.46	6520	
659.65	6556.9	
659.84	7830.1	
660.02	8360.5	
660.21	6382.8	
660.4	6389.7	
660.58	8573.5	
660.77	8089.5	
660.96	6993.8	
661.14	6100.2	
661.33	9062.3	
661.52	8933.9	
661.7	6077.7	
661.89	9024.7	
662.08	7794.6	
662.26	7447.1	
662.45	6351.4	
662.64	6336.4	
662.82	8378.2	
663.01	7628.7	
663.2	6322.8	
663.38	6991.8	
663.57	8217.1	
663.75	8148.9	
663.94	6647	
664.13	7750.9	
664.31	7731.1	
664.5	8315.4	
664.69	7055.3	
664.87	7224.6	
665.06	7557.7	
665.25	8130.4	
665.43	7530.4	
665.62	7448.5	
665.8	8339.3	
665.99	7795.9	
666.18	6602	
666.36	6647.7	
666.55	8333.2	
666.74	8217.1	
666.92	6253.1	
667.11	7551.5	
667.29	7759.8	
667.48	8366.6	
667.67	7346.7	
667.85	6505	
668.04	7763.2	
668.22	7720.8	
668.41	6599.9	
668.6	6801.3	
668.78	7607.5	
668.97	7790.5	
669.15	6968.6	
669.34	6053.1	
669.53	7628	
669.71	7991.9	
669.9	6152.8	
670.08	6729.6	
670.27	7622.5	
670.46	8148.9	
670.64	6861.4	
670.83	7092.1	
671.01	7506.5	
671.2	8017.1	
671.38	6331	
671.57	6153.5	
671.76	8612.4	
671.94	9000.8	
672.13	6084.5	
672.31	6953.5	
672.5	8261.5	
672.69	7667.6	
672.87	6256.5	
673.06	6541.9	
673.24	8177.5	
673.43	7654.6	
673.61	6856.6	
673.8	6427.9	
673.98	8230.1	
674.17	8347.5	
674.36	6965.1	
674.54	6911.2	
674.73	7952.9	
674.91	8255.4	
675.1	6616.3	
675.28	6223.1	
675.47	7843.7	
675.65	8224	
675.84	6455.2	
676.03	6730.3	
676.21	7644.4	
676.4	7231.4	
676.58	7075	
676.77	6878.4	
676.95	8850	
677.14	7581.6	
677.32	6173.3	
677.51	5964.4	
677.69	8261.5	
677.88	7387	
678.06	6138.4	
678.25	6156.2	
678.44	7909.9	
678.62	7606.2	
678.81	5966.4	
678.99	6708.5	
679.18	8475.9	
679.36	8110.6	
679.55	6466.8	
679.73	6868.2	
679.92	8128.4	
680.1	7630.7	
680.29	7398.6	
680.47	6445.6	
680.66	7625.3	
680.84	8254	
681.03	5894.1	
681.21	6656.6	
681.4	7574.1	
681.58	7477.8	
681.77	6217.6	
681.95	6121.4	
682.14	8236.2	
682.32	8615.8	
682.51	6917.4	
682.69	5893.4	
682.88	7507.9	
683.06	7934.5	
683.25	6675	
683.43	7068.2	
683.62	7733.8	
683.8	8051.2	
683.99	7098.3	
684.17	6450.4	
684.36	8712.1	
684.54	7550.2	
684.73	5765	
684.91	5862.7	
685.1	7707.2	
685.28	7148.1	
685.46	6264.7	
685.65	6335	
685.83	7813	
686.02	7390.4	
686.2	5869.5	
686.39	5983.5	
686.57	7054.6	
686.76	8382.3	
686.94	5881.1	
687.13	6028.5	
687.31	7791.2	
687.5	7457.3	
687.68	5627.8	
687.86	6604	
688.05	8874.5	
688.23	7010.2	
688.42	6681.2	
688.6	5904.3	
688.79	7395.9	
688.97	7350.2	
689.16	6369.2	
689.34	5452.4	
689.52	7950.2	
689.71	8157.1	
689.89	6500.3	
690.08	6057.9	
690.26	7658.7	
690.45	7436.2	
690.63	6692.1	
690.81	6068.1	
691	7428.7	
691.18	7366.5	
691.37	6238.1	
691.55	8003.5	
691.74	7237.5	
691.92	8877.3	
692.1	6240.8	
692.29	5657.2	
692.47	7399.3	
692.66	6830.7	
692.84	5861.3	
693.02	6361	
693.21	6913.3	
693.39	7374.7	
693.58	6409.5	
693.76	5939.1	
693.94	8389.2	
694.13	8211	
694.31	5950.7	
694.5	6850.5	
694.68	7301	
694.86	7646.4	
695.05	6305	
695.23	6404	
695.42	7922.2	
695.6	9751.1	
695.78	6836.8	
695.97	6122.7	
696.15	7954.3	
696.34	7397.9	
696.52	5808	
696.7	6559.6	
696.89	7694.2	
697.07	7122.8	
697.25	6400.6	
697.44	7660.8	
697.62	7661.5	
697.81	7841.7	
697.99	6201.9	
698.17	6582.9	
698.36	7000.6	
698.54	7616.4	
698.72	6433.4	
698.91	5575.9	
699.09	7296.2	
699.28	7131.7	
699.46	6113.2	
699.64	6068.1	
699.83	7094.8	
700.01	8058.8	
700.19	6599.9	
700.38	5409.4	
700.56	8078.6	
700.74	7151.5	
700.93	5739.8	
701.11	6371.9	
701.29	7748.8	
701.48	8521.6	
701.66	5891.3	
701.84	6010.8	
702.03	7286.7	
702.21	7897	
702.39	5614.8	
702.58	6109.1	
702.76	7749.5	
702.94	7738.6	
703.13	5547.3	
703.31	7540.6	
703.49	7103.7	
703.68	7920.2	
703.86	5729.5	
704.04	6548	
704.23	7552.9	
704.41	7797.3	
704.59	5973.2	
704.78	6815	
704.96	8430.8	
705.14	7812.3	
705.33	5687.2	
705.51	6301.6	
705.69	7378.1	
705.87	8030.8	
706.06	6576.7	
706.24	5637.4	
706.42	7628.7	
706.61	7837.6	
706.79	6628.6	
706.97	5663.3	
707.16	7144	
707.34	7623.9	
707.52	6526.9	
707.7	5800.5	
707.89	7243	
708.07	7020.4	
708.25	6619.7	
708.44	6618.4	
708.62	7131.7	
708.8	8085.4	
708.98	6763.8	
709.17	5896.8	
709.35	7572.7	
709.53	7521.5	
709.72	5719.3	
709.9	6042.2	
710.08	7749.5	
710.26	7735.2	
710.45	6957.6	
710.63	5900.2	
710.81	7423.9	
710.99	7369.3	
711.18	6412.9	
711.36	5920	
711.54	7241.6	
711.72	7843.7	
711.91	6081.1	
712.09	5597.1	
712.27	7296.9	
712.45	8026.7	
712.64	6146.6	
712.82	5312.4	
713	6858	
713.18	6953.5	
713.37	5354.8	
713.55	6468.9	
713.73	7710.6	
713.91	6423.1	
714.1	5603.2	
714.28	5121.3	
714.46	7159.7	
714.64	6428.6	
714.83	4594.3	
715.01	5264.6	
715.19	6528.9	
715.37	5971.2	
715.55	4945.2	
715.74	5160.9	
715.92	7210.2	
716.1	5453.1	
716.28	6105	
716.47	5280.3	
716.65	6173.9	
716.83	6232.7	
717.01	5048.9	
717.19	5240.8	
717.38	7910.6	
717.56	5948	
717.74	5361.6	
717.92	4573.1	
718.1	6972.7	
718.29	6300.9	
718.47	4383.3	
718.65	4990.2	
718.83	6963.8	
719.01	6880.5	
719.2	4405.9	
719.38	5340.4	
719.56	6650.4	
719.74	7952.3	
719.92	4969.1	
720.11	5814.2	
720.29	6691.4	
720.47	5973.2	
720.65	4552.6	
720.83	5205.9	
721.02	6277	
721.2	5963.7	
721.38	5246.9	
721.56	4610.7	
721.74	5543.9	
721.92	5717.9	
722.11	5604.6	
722.29	5361.6	
722.47	6806.8	
722.65	6059.3	
722.83	4630.5	
723.01	5398.4	
723.2	6064.7	
723.38	6406	
723.56	4121.9	
723.74	5155.4	
723.92	5739.1	
724.1	6651.1	
724.29	4589.5	
724.47	5451.7	
724.65	5758.2	
724.83	5694.7	
725.01	4464.6	
725.19	5171.8	
725.37	5788.9	
725.56	5794.4	
725.74	4368.3	
725.92	4568.3	
726.1	5728.9	
726.28	5907	
726.46	4879.6	
726.64	4601.8	
726.83	5909.8	
727.01	6173.3	
727.19	4351.9	
727.37	4995	
727.55	6048.3	
727.73	6503	
727.91	4232.5	
728.09	4147.8	
728.28	6511.2	
728.46	6827.9	
728.64	5137	
728.82	5044.8	
729	7376.1	
729.18	6799.9	
729.36	4416.1	
729.54	6375.3	
729.72	7628.7	
729.91	6208.8	
730.09	6043.6	
730.27	5103.5	
730.45	6196.5	
730.63	6720.8	
730.81	5498.1	
730.99	4691.2	
731.17	7220.5	
731.35	5976.7	
731.53	5106.3	
731.71	4900.1	
731.9	6863.4	
732.08	7045.7	
732.26	5036.6	
732.44	4814.8	
732.62	7107.1	
732.8	6705.7	
732.98	5397.8	
733.16	4633.9	
733.34	6672.3	
733.52	5645.6	
733.7	5068	
733.88	5256.5	
734.07	6511.2	
734.25	6257.2	
734.43	4615.4	
734.61	5902.9	
734.79	7463.5	
734.97	6171.2	
735.15	4774.5	
735.33	5010	
735.51	6499.6	
735.69	6229.2	
735.87	5887.2	
736.05	5110.4	
736.23	6361.7	
736.41	6129.6	
736.59	5002.5	
736.77	5121.3	
736.95	6754.2	
737.13	6231.3	
737.32	4763.6	
737.5	4855.1	
737.68	7234.1	
737.86	6121.4	
738.04	4570.4	
738.22	6118	
738.4	6027.2	
738.58	6264.1	
738.76	5097.4	
738.94	4190.1	
739.12	6164.4	
739.3	6027.2	
739.48	5559.6	
739.66	5281.7	
739.84	6313.9	
740.02	6292	
740.2	4379.9	
740.38	4671.4	
740.56	6587	
740.74	5621	
740.92	5176.6	
741.1	5062.6	
741.28	6141.2	
741.46	6023.8	
741.64	4761.5	
741.82	5227.8	
742	6244.9	
742.18	6137.1	
742.36	4915.1	
742.54	4664.6	
742.72	6644.3	
742.9	5554.1	
743.08	5222.3	
743.26	4214.7	
743.44	6700.3	
743.62	6662	
743.8	5390.3	
743.98	4561.5	
744.16	6404	
744.34	6160.3	
744.52	5281	
744.7	5179.3	
744.88	6522.1	
745.06	6140.5	
745.24	5316.5	
745.42	5352	
745.6	6582.9	
745.78	6436.8	
745.96	4296.6	
746.14	4556	
746.32	7231.4	
746.5	6536.4	
746.68	5034.6	
746.86	4636.6	
747.03	6851.1	
747.21	5481.7	
747.39	4980	
747.57	4506.9	
747.75	6225.8	
747.93	6567.2	
748.11	4555.4	
748.29	4443.4	
748.47	7608.2	
748.65	5995.8	
748.83	5175.9	
749.01	4872.8	
749.19	6355.5	
749.37	5646.9	
749.55	4823.6	
749.73	4839.4	
749.91	6118	
750.09	5875.6	
750.26	4924.7	
750.44	4414.7	
750.62	6137.1	
750.8	6029.2	
750.98	4303.5	
751.16	4610.7	
751.34	6150.7	
751.52	5567.1	
751.7	5212.8	
751.88	4265.9	
752.06	6575.3	
752.24	6333.7	
752.42	4207.2	
752.59	4524	
752.77	6039.5	
752.95	7106.5	
753.13	5182	
753.31	4578.6	
753.49	5819	
753.67	6166.4	
753.85	4902.8	
754.03	4497.3	
754.21	6386.2	
754.38	6677.1	
754.56	4562.9	
754.74	3863.8	
754.92	5724.1	
755.1	6241.5	
755.28	3828.3	
755.46	3833.8	
755.64	6880.5	
755.82	6860.7	
755.99	3923.2	
756.17	3961.5	
756.35	4713.7	
756.53	6040.1	
756.71	3004.4	
756.89	3818.8	
757.07	5561.6	
757.25	4917.9	
757.42	4305.5	
757.6	5055.8	
757.78	5779.4	
757.96	4946.5	
758.14	4132.8	
758.32	3661.8	
758.5	4567.7	
758.67	5211.4	
758.85	3921.9	
759.03	3987.4	
759.21	5381.4	
759.39	4918.5	
759.57	3553.9	
759.75	4521.9	
759.92	5961.6	
760.1	5447.6	
760.28	4788.8	
760.46	5087.2	
760.64	5142.4	
760.82	4926	
760.99	4599.7	
761.17	3971.7	
761.35	5919.3	
761.53	5043.5	
761.71	4167.6	
761.89	4774.5	
762.06	5861.3	
762.24	5290.6	
762.42	4194.9	
762.6	4106.2	
762.78	5395.7	
762.96	5959.6	
763.13	4601.1	
763.31	4311.7	
763.49	6069.5	
763.67	5315.2	
763.85	4941.1	
764.02	5483.1	
764.2	6293.4	
764.38	5527.5	
764.56	4163.5	
764.74	4934.2	
764.91	6391.7	
765.09	5447.6	
765.27	3874.1	
765.45	3773.7	
765.63	6474.3	
765.8	6307.7	
765.98	3486.3	
766.16	3861.1	
766.34	5091.3	
766.52	4935.6	
766.69	4616.1	
766.87	3644	
767.05	5417.6	
767.23	6033.3	
767.41	3947.8	
767.58	4203.8	
767.76	5900.9	
767.94	5975.3	
768.12	3956	
768.29	4558.1	
768.47	5412.8	
768.65	6139.1	
768.83	3611.3	
769	4627	
769.18	5142.4	
769.36	5669.5	
769.54	4597.7	
769.72	3681.6	
769.89	5911.8	
770.07	5930.9	
770.25	4037.9	
770.43	5071.5	
770.6	6533.7	
770.78	6829.3	
770.96	4106.2	
771.14	4651.6	
771.31	5844.2	
771.49	5308.3	
771.67	3416	
771.85	3594.9	
772.02	4655.7	
772.2	5218.2	
772.38	4252.3	
772.55	3780.6	
772.73	5547.9	
772.91	5309	
773.09	4059.1	
773.26	4201.7	
773.44	5405.3	
773.62	5172.5	
773.8	3741.6	
773.97	3467.2	
774.15	5478.3	
774.33	5158.8	
774.5	3568.2	
774.68	3898.6	
774.86	5625.8	
775.04	5159.5	
775.21	3666.5	
775.39	3665.9	
775.57	5414.1	
775.74	5672.2	
775.92	3508.2	
776.1	3417.4	
776.27	5359.5	
776.45	6445	
776.63	3654.3	
776.81	3257.6	
776.98	5099.4	
777.16	6023.8	
777.34	3743	
777.51	4003.1	
777.69	5109.7	
777.87	4855.1	
778.04	3770.3	
778.22	4322.6	
778.4	4864.6	
778.57	5403.9	
778.75	3171.6	
778.93	3412.6	
779.1	4733.5	
779.28	4623.6	
779.46	3177.8	
779.64	3604.4	
779.81	5601.2	
779.99	6322.8	
780.17	4193.6	
780.34	4324.6	
780.52	5123.3	
780.69	5296.7	
780.87	3903.4	
781.05	3510.9	
781.22	5141.8	
781.4	5215.5	
781.58	3611.3	
781.75	2843.9	
781.93	5205.3	
782.11	4625.7	
782.28	4330.1	
782.46	3532.1	
782.64	4527.4	
782.81	5334.3	
782.99	3691.8	
783.17	3571.7	
783.34	5231.9	
783.52	4616.8	
783.69	3805.8	
783.87	4509.6	
784.05	4720.6	
784.22	4683.7	
784.4	4526	
784.58	3899.3	
784.75	5505.6	
784.93	4746.5	
785.1	3556.6	
785.28	4100.7	
785.46	5197.1	
785.63	4610.7	
785.81	3616	
785.99	3395.5	
786.16	4901.5	
786.34	5122	
786.51	3481.5	
786.69	3805.1	
786.87	4472.1	
787.04	4909	
787.22	3355.9	
787.39	4114.4	
787.57	4684.4	
787.75	5513.1	
787.92	4331.5	
788.1	4250.2	
788.27	4711.7	
788.45	4450.9	
788.63	4031.8	
788.8	2951.1	
788.98	5123.3	
789.15	4390.2	
789.33	3016	
789.5	3598.3	
789.68	5453.1	
789.86	5496.1	
790.03	3971.7	
790.21	3460.4	
790.38	5457.2	
790.56	4763.6	
790.73	3367.5	
790.91	3388.7	
791.09	4661.9	
791.26	5250.3	
791.44	3538.2	
791.61	3067.9	
791.79	4695.3	
791.96	4645.5	
792.14	3222.1	
792.32	2841.9	
792.49	4653.7	
792.67	4792.2	
792.84	3252.2	
793.02	3082.9	
793.19	5080.3	
793.37	5565.7	
793.54	2824.8	
793.72	3118.4	
793.89	5694.7	
794.07	4590.9	
794.25	3536.8	
794.42	2955.9	
794.6	5580	
794.77	5208	
794.95	3861.1	
795.12	3472.7	
795.3	4653.7	
795.47	5143.8	
795.65	3729.4	
795.82	3525.2	
796	4562.2	
796.17	6061.3	
796.35	3480.9	
796.52	4130.1	
796.7	5130.8	
796.87	5221	
797.05	3502	
797.22	4212.7	
797.4	5153.4	
797.57	5999.9	
797.75	3592.8	
797.92	3403	
798.1	5429.2	
798.27	4563.6	
798.45	2934.1	
798.62	3193.5	
798.8	4904.2	
798.97	5315.2	
799.15	3816	
799.32	3583.9	
799.5	4287.1	
799.67	4924.7	
799.85	3949.8	
800.02	2894.5	
800.2	4602.5	
800.37	4900.8	
800.55	4059.8	
800.72	3393.5	
800.9	5341.8	
801.07	5667.4	
801.25	4497.3	
801.42	3741	
801.6	5335.6	
801.77	5036.6	
801.95	3485.6	
802.12	3310.9	
802.29	5130.8	
802.47	5012.7	
802.64	3699.3	
802.82	2841.2	
802.99	4579.3	
803.17	5441.5	
803.34	3543	
803.52	3222.8	
803.69	6000.5	
803.87	4418.8	
804.04	3597.6	
804.21	3622.2	
804.39	5599.8	
804.56	4756.7	
804.74	3109.5	
804.91	3718.4	
805.09	4640	
805.26	4715.1	
805.44	3138.9	
805.61	3415.3	
805.78	5227.1	
805.96	5167	
806.13	3725.9	
806.31	3971.7	
806.48	4287.8	
806.66	4713.1	
806.83	3752.6	
807	3642	
807.18	4642.1	
807.35	4973.2	
807.53	3620.8	
807.7	2905.4	
807.87	5638.7	
808.05	4695.3	
808.22	3961.5	
808.4	2894.5	
808.57	4672.1	
808.74	4342.4	
808.92	3355.3	
809.09	4245.4	
809.27	4659.8	
809.44	5077.6	
809.61	2950.4	
809.79	3290.4	
809.96	5668.1	
810.14	5199.1	
810.31	2871.3	
810.48	3530.7	
810.66	4690.5	
810.83	5347.9	
811.01	3291.8	
811.18	3669.3	
811.35	5282.4	
811.53	4171	
811.7	3961.5	
811.87	3728	
812.05	4724.7	
812.22	4618.2	
812.39	3271.3	
812.57	3135.4	
812.74	4690.5	
812.92	6075.6	
813.09	3530.7	
813.26	3740.3	
813.44	5811.5	
813.61	4568.3	
813.78	2947.7	
813.96	3886.4	
814.13	4675.5	
814.3	4410.6	
814.48	4120.5	
814.65	3474.7	
814.82	5687.2	
815	4483.7	
815.17	3530	
815.34	4330.8	
815.52	4558.1	
815.69	4616.8	
815.87	3534.1	
816.04	3515.7	
816.21	4661.2	
816.38	4237.9	
816.56	3442.6	
816.73	3284.3	
816.9	5868.8	
817.08	5258.5	
817.25	3274.7	
817.42	4020.8	
817.6	4255	
817.77	4628.4	
817.94	3639.2	
818.12	3227.6	
818.29	4469.4	
818.46	6563.7	
818.64	3370.3	
818.81	3136.1	
818.98	4399	
819.16	6173.9	
819.33	3820.1	
819.5	3529.3	
819.67	4951.3	
819.85	5547.3	
820.02	3569.6	
820.19	3729.4	
820.37	4848.2	
820.54	4541	
820.71	3655.6	
820.88	4461.8	
821.06	4835.9	
821.23	4489.8	
821.4	3660.4	
821.58	3596.9	
821.75	5206.6	
821.92	4755.4	
822.09	2940.2	
822.27	3123.8	
822.44	4712.4	
822.61	4576.5	
822.79	2991.4	
822.96	5482.4	
823.13	5085.8	
823.3	4440	
823.48	3379.8	
823.65	3054.9	
823.82	5304.2	
823.99	4307.6	
824.17	4276.2	
824.34	3113.6	
824.51	6036.7	
824.68	4675.5	
824.86	3247.4	
825.03	3661.1	
825.2	4665.3	
825.37	5563	
825.55	3248.8	
825.72	3551.2	
825.89	6011.5	
826.06	5615.5	
826.24	3488.4	
826.41	3487	
826.58	5592.3	
826.75	4886.5	
826.92	2850.1	
827.1	3138.9	
827.27	7445.7	
827.44	5961.6	
827.61	3332	
827.79	4037.2	
827.96	4425.7	
828.13	4737.6	
828.3	3492.5	
828.47	2978.4	
828.65	4954	
828.82	4886.5	
828.99	4382.7	
829.16	3819.5	
829.34	5290.6	
829.51	5027.1	
829.68	3518.4	
829.85	3644	
830.02	5520.6	
830.2	5255.8	
830.37	2800.9	
830.54	4258.4	
830.71	5844.2	
830.88	4661.2	
831.05	2863.7	
831.23	3251.5	
831.4	5712.5	
831.57	6240.2	
831.74	3362.8	
831.91	2932.7	
832.09	4943.1	
832.26	5199.1	
832.43	3391.4	
832.6	3815.4	
832.77	4937	
832.94	5526.1	
833.12	2781.8	
833.29	3358	
833.46	4549.2	
833.63	6452.5	
833.8	3702.7	
833.97	3381.2	
834.15	5264	
834.32	5031.9	
834.49	3585.3	
834.66	3634.5	
834.83	5370.5	
835	4447.5	
835.17	3291.1	
835.35	3308.8	
835.52	5212.1	
835.69	5023.7	
835.86	3444	
836.03	2902.7	
836.2	5215.5	
836.37	4847.5	
836.55	3419.4	
836.72	3202.3	
836.89	4835.3	
837.06	5304.9	
837.23	3446	
837.4	3747.1	
837.57	5943.9	
837.75	6437.4	
837.92	3194.8	
838.09	3366.2	
838.26	4892.6	
838.43	5390.9	
838.6	3652.2	
838.77	3224.2	
838.94	6150.7	
839.11	5879	
839.29	3465.8	
839.46	2755.2	
839.63	5226.4	
839.8	4978.6	
839.97	3319.8	
840.14	3287.7	
840.31	5035.3	
840.48	5247.6	
840.65	2794.1	
840.82	3307.5	
841	5208	
841.17	5085.1	
841.34	3015.3	
841.51	3097.9	
841.68	5145.2	
841.85	4900.8	
842.02	3170.9	
842.19	2676.7	
842.36	4982.7	
842.53	5008	
842.7	2909.5	
842.87	3721.8	
843.05	6387.6	
843.22	4964.3	
843.39	2951.1	
843.56	3144.3	
843.73	4800.4	
843.9	5287.2	
844.07	4903.5	
844.24	4116.4	
844.41	7273	
844.58	4590.9	
844.75	3009.1	
844.92	3261.7	
845.09	5160.2	
845.26	5133.6	
845.43	3061	
845.6	3175.7	
845.77	5227.1	
845.94	4922.6	
846.12	3417.4	
846.29	3538.2	
846.46	5397.1	
846.63	5162.2	
846.8	3062.4	
846.97	3630.4	
847.14	5552	
847.31	5092.6	
847.48	3416.7	
847.65	3794.2	
847.82	5404.6	
847.99	5377.3	
848.16	4033.8	
848.33	3768.3	
848.5	4757.4	
848.67	5567.7	
848.84	3040.6	
849.01	3204.4	
849.18	4719.2	
849.35	4433.9	
849.52	3808.5	
849.69	2955.2	
849.86	5350	
850.03	5492.7	
850.2	3078.1	
850.37	3658.4	
850.54	5509	
850.71	4906.9	
850.88	3659.7	
851.05	3057.6	
851.22	5103.5	
851.39	5594.4	
851.56	2880.1	
851.73	3458.3	
851.9	4577.9	
852.07	5352	
852.24	3377.8	
852.41	3022.8	
852.58	5112.4	
852.75	4611.3	
852.92	3421.5	
853.09	2956.6	
853.26	4812.7	
853.43	5526.8	
853.6	3049.4	
853.77	2624.1	
853.94	5642.8	
854.11	5130.2	
854.28	4419.5	
854.44	3321.1	
854.61	5961.6	
854.78	5499.5	
854.95	3111.5	
855.12	3820.8	
855.29	4285.7	
855.46	5727.5	
855.63	3054.2	
855.8	4138.3	
855.97	4820.9	
856.14	5475.6	
856.31	4269.3	
856.48	3307.5	
856.65	4818.9	
856.82	4554.7	
856.99	2965.5	
857.16	3284.3	
857.33	6169.8	
857.49	4944.5	
857.66	3272	
857.83	3525.2	
858	4865.3	
858.17	5119.9	
858.34	2871.3	
858.51	3076	
858.68	5769.1	
858.85	5636.7	
859.02	3487	
859.19	3732.1	
859.36	4567	
859.52	4599.1	
859.69	3075.4	
859.86	3581.9	
860.03	4589.5	
860.2	5664.7	
860.37	2795.5	
860.54	3089.7	
860.71	5299.5	
860.88	5666	
861.05	3413.3	
861.21	3809.9	
861.38	5720.7	
861.55	4470.7	
861.72	2800.9	
861.89	3382.6	
862.06	5431.2	
862.23	5846.3	
862.4	3018.7	
862.56	3152.5	
862.73	5274.9	
862.9	4990.9	
863.07	3557.3	
863.24	2764.1	
863.41	4537.6	
863.58	4584	
863.75	3119.1	
863.91	3502.7	
864.08	5622.4	
864.25	5274.2	
864.42	3808.5	
864.59	4195.6	
864.76	5967.1	
864.93	4588.1	
865.09	2964.1	
865.26	3269.9	
865.43	5582.8	
865.6	5885.2	
865.77	2665.8	
865.94	2992.8	
866.1	5589.6	
866.27	5332.9	
866.44	4465.3	
866.61	2900.6	
866.78	4899.4	
866.95	5282.4	
867.11	2953.9	
867.28	2753.2	
867.45	5494	
867.62	4597	
867.79	3522.5	
867.96	3024.2	
868.12	4578.6	
868.29	5365.7	
868.46	2683.5	
868.63	4005.1	
868.8	5515.2	
868.97	5340.4	
869.13	3214.6	
869.3	3181.2	
869.47	5268.7	
869.64	5472.2	
869.81	3028.3	
869.97	3081.5	
870.14	5146.5	
870.31	5758.9	
870.48	2964.1	
870.65	3803.8	
870.81	4887.8	
870.98	4911.7	
871.15	3426.9	
871.32	3158.7	
871.48	5248.9	
871.65	5779.4	
871.82	3006.4	
871.99	3345	
872.16	6078.4	
872.32	5551.4	
872.49	3089.7	
872.66	3099.9	
872.83	5386.2	
872.99	4789.5	
873.16	3478.8	
873.33	3003.7	
873.5	5039.4	
873.67	5094	
873.83	3172.3	
874	4000.4	
874.17	5186.8	
874.34	5948.7	
874.5	3888.4	
874.67	3764.2	
874.84	5703.6	
875.01	4488.5	
875.17	4271.4	
875.34	3072.6	
875.51	5087.8	
875.68	6044.2	
875.84	3628.3	
876.01	4379.2	
876.18	5329.5	
876.34	5255.1	
876.51	3059	
876.68	2998.2	
876.85	4910.3	
877.01	5613.5	
877.18	4271.4	
877.35	3040.6	
877.52	5076.9	
877.68	4623.6	
877.85	2927.2	
878.02	2998.2	
878.18	4964.3	
878.35	4757.4	
878.52	2468.5	
878.69	3392.8	
878.85	5337	
879.02	5285.1	
879.19	4248.9	
879.35	3304.1	
879.52	5362.9	
879.69	5468.1	
879.86	2646	
880.02	3358	
880.19	4965	
880.36	5978.7	
880.52	3448.8	
880.69	3590.1	
880.86	5414.8	
881.02	5397.1	
881.19	3290.4	
881.36	3295.9	
881.52	5221.6	
881.69	4740.4	
881.86	3327.3	
882.02	3209.8	
882.19	5520	
882.36	6358.9	
882.52	3157.3	
882.69	4175.1	
882.86	5137	
883.02	5072.8	
883.19	3629.7	
883.36	3426.3	
883.52	5433.3	
883.69	6077	
883.86	3123.8	
884.02	2809.1	
884.19	5326.1	
884.36	5020.9	
884.52	3422.8	
884.69	3192.1	
884.86	4787.5	
885.02	5818.3	
885.19	3394.2	
885.36	3498.6	
885.52	4926	
885.69	5138.4	
885.86	4293.9	
886.02	3891.1	
886.19	5336.3	
886.35	4775.2	
886.52	3344.3	
886.69	4216.8	
886.85	4673.5	
887.02	5649.7	
887.19	5649.7	
887.35	5649.7	
887.52	5649.7	
887.68	5649.7	
887.85	5649.7	
888.02	5649.7	
888.18	5649.7	
888.35	5649.7	
888.51	5649.7	
888.68	5649.7	
888.85	5649.7	
889.01	5649.7	
889.18	5649.7	
889.35	5649.7	
889.51	5649.7	
889.68	5649.7	
889.84	5649.7	
890.01	5649.7	
890.17	5649.7	
890.34	5649.7	
890.51	5649.7	
890.67	5649.7	
890.84	5649.7	
891	5649.7	
891.17	5649.7	
891.34	5649.7	
891.5	5649.7	
891.67	5649.7	
891.83	5649.7	
892	5649.7	
892.16	5649.7	
892.33	5649.7	
892.5	5649.7	
892.66	5649.7	
892.83	5649.7	
892.99	5649.7	
893.16	5649.7	
893.32	5649.7	
893.49	5649.7	
893.65	5649.7	
893.82	5649.7	
893.99	5649.7	
894.15	5649.7	
894.32	5649.7	
894.48	5649.7	
894.65	5649.7	
894.81	5649.7	
894.98	5649.7	
895.14	5649.7	
895.31	5649.7	
895.47	5649.7	
895.64	5649.7	
895.81	5649.7	
895.97	5649.7	
896.14	5649.7	
896.3	5649.7	
896.47	5649.7	
896.63	5649.7	
896.8	5649.7	
896.96	5649.7	
897.13	5649.7	
897.29	5649.7	
897.46	5649.7	
897.62	5649.7	
897.79	5649.7	
897.95	5649.7	
898.12	5649.7	
898.28	5649.7	
898.45	5649.7	
898.61	5649.7	
898.78	5649.7	
898.94	5649.7	
899.11	5649.7	
899.27	5649.7	
899.44	5649.7	
899.6	5649.7	
899.77	5649.7	
899.93	5649.7	
900.1	5649.7	
900.26	5649.7	
900.43	5649.7	
900.59	5649.7	
900.76	5649.7	
900.92	5649.7	
901.09	5649.7	
901.25	5649.7	
901.42	5649.7	
901.58	5649.7	
901.75	5649.7	
901.91	5649.7	
902.07	5649.7	
902.24	5649.7	
902.4	5649.7	
902.57	5649.7	
902.73	5649.7	
902.9	5649.7	
903.06	5649.7	
903.23	5649.7	
903.39	5649.7	
903.56	5649.7	
903.72	5649.7	
903.88	5649.7	
904.05	5649.7	
904.21	5649.7	
904.38	5649.7	
904.54	5649.7	
904.71	5649.7	
904.87	5649.7	
905.03	5649.7	
905.2	5649.7	
905.36	5649.7	
905.53	5649.7	
905.69	5649.7	
905.86	5649.7	
906.02	5649.7	
906.18	5649.7	
906.35	5649.7	
906.51	5649.7	
906.68	5649.7	
906.84	5649.7	
907.01	5649.7	
907.17	5649.7	
907.33	5649.7	
907.5	5649.7	
907.66	5649.7	
907.83	5649.7	
907.99	5649.7	
908.15	5649.7	
908.32	5649.7	
908.48	5649.7	
908.65	5649.7	
908.81	5649.7	
908.97	5649.7	
909.14	5649.7	
909.3	5649.7	
909.47	5649.7	
909.63	5649.7	
909.79	5649.7	
909.96	5649.7	
910.12	5649.7	
910.28	5649.7	
910.45	5649.7	
910.61	5649.7	
910.78	5649.7	
910.94	5649.7	
911.1	5649.7	
911.27	5649.7	
911.43	5649.7	
911.59	5649.7	
911.76	5649.7	
911.92	5649.7	
912.08	5649.7	
912.25	5649.7	
912.41	5649.7	
912.57	5649.7	
912.74	5649.7	
912.9	5649.7	
913.07	5649.7	
913.23	5649.7	
913.39	5649.7	
913.56	5649.7	
913.72	5649.7	
913.88	5649.7	
914.05	5649.7	
914.21	5649.7	
914.37	5649.7	
914.54	5649.7	
914.7	5649.7	
914.86	5649.7	
915.03	5649.7	
915.19	5649.7	
