Wavelength	Intensities	
nm	a.u.	
179.22	1600.1	
179.44	1594.7	
179.65	1605.6	
179.86	1583.8	
180.08	1585.1	
180.29	3470.6	
180.51	2779.1	
180.72	4650.3	
180.94	5062.6	
181.15	2467.1	
181.37	2492.4	
181.58	4418.2	
181.79	4622.3	
182.01	2551.1	
182.22	2654.9	
182.44	4690.5	
182.65	4090.5	
182.87	3226.2	
183.08	2877.4	
183.29	4863.9	
183.51	4152.6	
183.72	2642.6	
183.94	3585.3	
184.15	4456.4	
184.37	4345.1	
184.58	2375	
184.79	3013.9	
185.01	4222.9	
185.22	4706.2	
185.44	3207.8	
185.65	2839.2	
185.86	4472.1	
186.08	4052.2	
186.29	2409.8	
186.51	2502.6	
186.72	4194.2	
186.94	4754.7	
187.15	2873.3	
187.36	2869.2	
187.58	5791	
187.79	4455.7	
188.01	2923.1	
188.22	4304.8	
188.43	5128.1	
188.65	4633.2	
188.86	2561.3	
189.08	2923.8	
189.29	4222.2	
189.5	4250.2	
189.72	2685.6	
189.93	2695.8	
190.15	4692.6	
190.36	5384.8	
190.57	2850.8	
190.79	2840.5	
191	4734.2	
191.22	4724	
191.43	2977.7	
191.64	2516.3	
191.86	4911.7	
192.07	4738.3	
192.29	2618.7	
192.5	2648	
192.71	4721.9	
192.93	4296.6	
193.14	2643.9	
193.35	2724.5	
193.57	4240	
193.78	4736.3	
194	2286.2	
194.21	2661	
194.42	4089.1	
194.64	4388.1	
194.85	2855.6	
195.07	3263.8	
195.28	4337.6	
195.49	3963.5	
195.71	3353.9	
195.92	2566.1	
196.13	4588.1	
196.35	4548.5	
196.56	3525.9	
196.78	2907.4	
196.99	5397.8	
197.2	4988.2	
197.42	3145	
197.63	2935.4	
197.84	4080.9	
198.06	4534.9	
198.27	2722.4	
198.48	3378.5	
198.7	4301.4	
198.91	4426.3	
199.13	2948.4	
199.34	2918.4	
199.55	4755.4	
199.77	3856.3	
199.98	2641.9	
200.19	2927.9	
200.41	4388.1	
200.62	4112.3	
200.83	2932.7	
201.05	3167.5	
201.26	4373.8	
201.47	4235.9	
201.69	2641.9	
201.9	2628.2	
202.11	4416.1	
202.33	4963.6	
202.54	2713.6	
202.76	3024.2	
202.97	4406.5	
203.18	4545.8	
203.4	2957.3	
203.61	3039.2	
203.82	4429.8	
204.04	4156	
204.25	2893.8	
204.46	2849.4	
204.68	4390.8	
204.89	4533.5	
205.1	2821.4	
205.32	2479.4	
205.53	4596.3	
205.74	4769.7	
205.96	2237.7	
206.17	2955.2	
206.38	4590.9	
206.6	4651.6	
206.81	3187.3	
207.02	2729.9	
207.24	4573.1	
207.45	4764.9	
207.66	2806.4	
207.88	2506.7	
208.09	4542.4	
208.3	4376.5	
208.52	2603.7	
208.73	2835.1	
208.94	4404.5	
209.15	4811.4	
209.37	2762	
209.58	2879.4	
209.79	4775.2	
210.01	4287.1	
210.22	2370.2	
210.43	2463.7	
210.65	4367.6	
210.86	4590.2	
211.07	2794.8	
211.29	2590	
211.5	4582.7	
211.71	4370.4	
211.93	2664.4	
212.14	2617.3	
212.35	4349.2	
212.56	4414.7	
212.78	2904	
212.99	2462.3	
213.2	4920.6	
213.42	4277.5	
213.63	2660.3	
213.84	2783.9	
214.06	3994.2	
214.27	4061.1	
214.48	2732.7	
214.69	2893.1	
214.91	4854.4	
215.12	4801.1	
215.33	2895.1	
215.55	3087	
215.76	5130.2	
215.97	4543.8	
216.18	2818.7	
216.4	2854.9	
216.61	4163.5	
216.82	4693.9	
217.04	2647.3	
217.25	2740.9	
217.46	4781.3	
217.67	4636.6	
217.89	2407	
218.1	2495.1	
218.31	4415.4	
218.53	4530.8	
218.74	2799.6	
218.95	2686.9	
219.16	4373.1	
219.38	4961.5	
219.59	2667.8	
219.8	3059	
220.01	5225.1	
220.23	4406.5	
220.44	3257.6	
220.65	2563.4	
220.87	4470.7	
221.08	4822.3	
221.29	2553.1	
221.5	3120.4	
221.72	5522	
221.93	4146.5	
222.14	2930	
222.35	3318.4	
222.57	4367	
222.78	4685.8	
222.99	2838.5	
223.2	2968.9	
223.42	4571.1	
223.63	4612	
223.84	2322.4	
224.05	2261	
224.27	5170.4	
224.48	4902.2	
224.69	3323.9	
224.9	2896.5	
225.12	4503.5	
225.33	4326.7	
225.54	2420.7	
225.75	2661.7	
225.97	4109.6	
226.18	4360.8	
226.39	2775	
226.6	2630.3	
226.82	4271.4	
227.03	4080.9	
227.24	2921.8	
227.45	2476.7	
227.67	4697.4	
227.88	4853.7	
228.09	3208.5	
228.3	3151.8	
228.52	4584.7	
228.73	4375.1	
228.94	2761.3	
229.15	2496.5	
229.36	4379.2	
229.58	4411.3	
229.79	2766.8	
230	3100.6	
230.21	5119.9	
230.43	4381.3	
230.64	2856.9	
230.85	2970.9	
231.06	4704.2	
231.28	4631.8	
231.49	2553.1	
231.7	2893.1	
231.91	4633.9	
232.12	4392.2	
232.34	2550.4	
232.55	2792.7	
232.76	4696	
232.97	4476.9	
233.18	2624.8	
233.4	2939.5	
233.61	4453.6	
233.82	4192.2	
234.03	2719	
234.25	2745	
234.46	5591.6	
234.67	4440	
234.88	2947	
235.09	2641.2	
235.31	4459.8	
235.52	4321.2	
235.73	2826.2	
235.94	2513.5	
236.15	4257.7	
236.37	5066	
236.58	2610.5	
236.79	2800.9	
237	4607.9	
237.21	4054.3	
237.43	2972.3	
237.64	2499.9	
237.85	6782.9	
238.06	4132.1	
238.27	2883.5	
238.48	2550.4	
238.7	4617.5	
238.91	4306.2	
239.12	2743.6	
239.33	2846	
239.54	4172.4	
239.76	4308.9	
239.97	2794.1	
240.18	2781.1	
240.39	5070.1	
240.6	4468	
240.82	2959.3	
241.03	2525.1	
241.24	4328.7	
241.45	4915.8	
241.66	2570.9	
241.87	3007.8	
242.09	4858.5	
242.3	4995	
242.51	3039.2	
242.72	2775	
242.93	4614.1	
243.14	4356.7	
243.36	3175.7	
243.57	3348.4	
243.78	4848.2	
243.99	4555.4	
244.2	2796.8	
244.41	2601.6	
244.63	4113.7	
244.84	4508.3	
245.05	2930	
245.26	2738.1	
245.47	4608.6	
245.68	4598.4	
245.9	3474	
246.11	2878.8	
246.32	4250.9	
246.53	4523.3	
246.74	4301.4	
246.95	2441.9	
247.16	4166.3	
247.38	4440.7	
247.59	2508.8	
247.8	2882.2	
248.01	4124.6	
248.22	4369	
248.43	2589.3	
248.64	2746.3	
248.86	4049.5	
249.07	4233.2	
249.28	2543.6	
249.49	2887.6	
249.7	4659.8	
249.91	4716.5	
250.12	2465.8	
250.34	2561.3	
250.55	4504.2	
250.76	4437.3	
250.97	2842.6	
251.18	2926.5	
251.39	4703.5	
251.6	4472.1	
251.81	2929.3	
252.03	2897.9	
252.24	4280.9	
252.45	4563.6	
252.66	2525.1	
252.87	2988	
253.08	4401.1	
253.29	5436	
253.5	2568.2	
253.72	3316.3	
253.93	4334.2	
254.14	4966.3	
254.35	2755.9	
254.56	2723.1	
254.77	4481	
254.98	4132.1	
255.19	2664.4	
255.41	3291.8	
255.62	4540.3	
255.83	4735.6	
256.04	2985.9	
256.25	2846.7	
256.46	5094	
256.67	4195.6	
256.88	2870.6	
257.09	3122.5	
257.31	4102.8	
257.52	4138.3	
257.73	3511.6	
257.94	2689	
258.15	4341	
258.36	4397.7	
258.57	3203.7	
258.78	2295.8	
258.99	4657.8	
259.2	4283.7	
259.41	2689	
259.63	2773.6	
259.84	4908.3	
260.05	5058.5	
260.26	3296.5	
260.47	2650.1	
260.68	4704.9	
260.89	4360.1	
261.1	3166.8	
261.31	2634.4	
261.52	4864.6	
261.73	4916.5	
261.95	3360	
262.16	2953.2	
262.37	4745.8	
262.58	4849.6	
262.79	3354.6	
263	2725.2	
263.21	4427	
263.42	4208.6	
263.63	2944.3	
263.84	2727.9	
264.05	4746.5	
264.26	4953.4	
264.47	3229.6	
264.69	3003.7	
264.9	4920.6	
265.11	4495.3	
265.32	2639.8	
265.53	2661.7	
265.74	4453	
265.95	3984	
266.16	2774.3	
266.37	3110.2	
266.58	4489.8	
266.79	4218.1	
267	2718.3	
267.21	2559.3	
267.42	4119.1	
267.63	4395.6	
267.84	2805	
268.06	2482.8	
268.27	4707.6	
268.48	4787.5	
268.69	2781.1	
268.9	3145	
269.11	4752.7	
269.32	3970.3	
269.53	2829.6	
269.74	2678.1	
269.95	4508.9	
270.16	4016.7	
270.37	2775	
270.58	3158	
270.79	4321.2	
271	4682.3	
271.21	2927.2	
271.42	2818	
271.63	4548.5	
271.84	4063.2	
272.05	2377	
272.26	2590	
272.47	4390.8	
272.68	4479.6	
272.89	2770.2	
273.11	2983.9	
273.32	4166.9	
273.53	4889.2	
273.74	2927.9	
273.95	2946.3	
274.16	4663.2	
274.37	4352.6	
274.58	3053.5	
274.79	2517	
275	4517.8	
275.21	4712.4	
275.42	3532.7	
275.63	3054.2	
275.84	4538.3	
276.05	5408	
276.26	2911.5	
276.47	2768.2	
276.68	4361.5	
276.89	5025.7	
277.1	3104.7	
277.31	2492.4	
277.52	4529.4	
277.73	4821.6	
277.94	2473.9	
278.15	2713.6	
278.36	4528.7	
278.57	4188.8	
278.78	2723.8	
278.99	3001	
279.2	4252.9	
279.41	4158.7	
279.62	3437.9	
279.83	2508.8	
280.04	5113.1	
280.25	4120.5	
280.46	3398.9	
280.67	2836.4	
280.88	4218.8	
281.09	4816.1	
281.3	2927.9	
281.51	3538.9	
281.72	4249.5	
281.93	4669.4	
282.14	2658.3	
282.35	2895.8	
282.56	4767	
282.77	4610	
282.98	2732	
283.19	3157.3	
283.4	5500.8	
283.61	4339	
283.82	2568.2	
284.03	3318.4	
284.24	4542.4	
284.45	4745.1	
284.66	3367.5	
284.87	3142.9	
285.08	4764.9	
285.29	4818.9	
285.5	2512.9	
285.71	2775	
285.92	4696	
286.12	5180.7	
286.33	3328.6	
286.54	2791.4	
286.75	4659.1	
286.96	4319.8	
287.17	2606.4	
287.38	3286.3	
287.59	4265.2	
287.8	4267.3	
288.01	2754.5	
288.22	3061	
288.43	4536.9	
288.64	3976.5	
288.85	3183.2	
289.06	3031	
289.27	4682.3	
289.48	4882.4	
289.69	3407.1	
289.9	3102.7	
290.11	4855.1	
290.32	4265.9	
290.53	3181.9	
290.74	3014.6	
290.94	4663.9	
291.15	4683.7	
291.36	2641.9	
291.57	3042.6	
291.78	4346.5	
291.99	4008.6	
292.2	2642.6	
292.41	2996.9	
292.62	4676.9	
292.83	4586.1	
293.04	3532.1	
293.25	2616.6	
293.46	4304.1	
293.67	4699.4	
293.88	2628.2	
294.09	2613.2	
294.29	4196.3	
294.5	4454.3	
294.71	2832.3	
294.92	2680.1	
295.13	4316.4	
295.34	5139.7	
295.55	2474.6	
295.76	2431.6	
295.97	4599.1	
296.18	4997.7	
296.39	2548.4	
296.6	2652.8	
296.81	4400.4	
297.01	4677.6	
297.22	2816	
297.43	2674.6	
297.64	4298	
297.85	4169.7	
298.06	2331.3	
298.27	2467.1	
298.48	4375.1	
298.69	4222.2	
298.9	2878.1	
299.11	2613.2	
299.31	4118.5	
299.52	4105.5	
299.73	3104.7	
299.94	2923.1	
300.15	4427	
300.36	4242.7	
300.57	2968.9	
300.78	2898.6	
300.99	4289.8	
301.2	4470.7	
301.4	2744.3	
301.61	2843.3	
301.82	4560.1	
302.03	4677.6	
302.24	3075.4	
302.45	2538.1	
302.66	4538.3	
302.87	4717.2	
303.08	2669.2	
303.29	3418.1	
303.49	4285.7	
303.7	4322.6	
303.91	2463	
304.12	3319.8	
304.33	4102.8	
304.54	4507.6	
304.75	2688.3	
304.96	2603	
305.16	4562.9	
305.37	5002.5	
305.58	2407.7	
305.79	2428.2	
306	4623.6	
306.21	3986.7	
306.42	2697.9	
306.63	3702	
306.83	4317.8	
307.04	4606.6	
307.25	2892.4	
307.46	2873.3	
307.67	3993.5	
307.88	4575.2	
308.09	2686.9	
308.29	2666.5	
308.5	4405.2	
308.71	4688.5	
308.92	2831.7	
309.13	2551.8	
309.34	4448.2	
309.55	4298	
309.75	3211.9	
309.96	2958.6	
310.17	4626.4	
310.38	4188.1	
310.59	3033.7	
310.8	2904	
311.01	4348.5	
311.21	4356	
311.42	2615.3	
311.63	2617.3	
311.84	4310.3	
312.05	4387.4	
312.26	2936.8	
312.46	3097.9	
312.67	4274.1	
312.88	4046.1	
313.09	2551.8	
313.3	2561.3	
313.51	4831.8	
313.71	5078.3	
313.92	2618	
314.13	2708.8	
314.34	4564.2	
314.55	4362.9	
314.76	3132	
314.96	2850.1	
315.17	4554.7	
315.38	4594.3	
315.59	2642.6	
315.8	2548.4	
316.01	4805.2	
316.21	4950.6	
316.42	2575.7	
316.63	2822.1	
316.84	4313.7	
317.05	4714.4	
317.26	3007.1	
317.46	2714.2	
317.67	4369.7	
317.88	4590.9	
318.09	3091.8	
318.3	2473.3	
318.5	4326.7	
318.71	4522.6	
318.92	3876.1	
319.13	2979.1	
319.34	4645.5	
319.54	4807.9	
319.75	2445.3	
319.96	2385.9	
320.17	4519.9	
320.38	4755.4	
320.58	2433.7	
320.79	2861.7	
321	4726.7	
321.21	4839.4	
321.42	2798.9	
321.62	2428.9	
321.83	4178.5	
322.04	4384	
322.25	2772.3	
322.46	2606.4	
322.66	4485.1	
322.87	4676.2	
323.08	3100.6	
323.29	2539.5	
323.5	5025	
323.7	4071.4	
323.91	3330.7	
324.12	3078.8	
324.33	4492.6	
324.53	4626.4	
324.74	2949.1	
324.95	3058.3	
325.16	4079.6	
325.37	4317.1	
325.57	2623.4	
325.78	2648	
325.99	4521.9	
326.2	4063.9	
326.4	3548.4	
326.61	2494.4	
326.82	4346.5	
327.03	4443.4	
327.24	3477.5	
327.44	3300	
327.65	4601.8	
327.86	3888.4	
328.07	2939.5	
328.27	2532	
328.48	4876.2	
328.69	4119.8	
328.9	3469.3	
329.1	2724.5	
329.31	4359.4	
329.52	4810	
329.73	2693.1	
329.93	2824.1	
330.14	4491.2	
330.35	4523.3	
330.56	3884.3	
330.76	3122.5	
330.97	4276.2	
331.18	4419.5	
331.39	2893.1	
331.59	2396.8	
331.8	4720.6	
332.01	4846.9	
332.22	2706	
332.42	2947	
332.63	4455.7	
332.84	4120.5	
333.05	2850.1	
333.25	2588.6	
333.46	4237.2	
333.67	4339.6	
333.88	2732.7	
334.08	2883.5	
334.29	5966.4	
334.5	4739.7	
334.7	2568.2	
334.91	3526.6	
335.12	4082.3	
335.33	4601.1	
335.53	2846	
335.74	3809.9	
335.95	4335.5	
336.16	4080.2	
336.36	2867.2	
336.57	3190.1	
336.78	4074.8	
336.98	4663.2	
337.19	3423.5	
337.4	2742.2	
337.61	5097.4	
337.81	4087.1	
338.02	2663.7	
338.23	3261.7	
338.43	4861.2	
338.64	4210.6	
338.85	2661	
339.05	3345	
339.26	4959.5	
339.47	4025.6	
339.68	2605.7	
339.88	3476.8	
340.09	4627.7	
340.3	4680.3	
340.5	2922.5	
340.71	2379.7	
340.92	4150.6	
341.13	4799.8	
341.33	2495.1	
341.54	3005.7	
341.75	4535.6	
341.95	4305.5	
342.16	2881.5	
342.37	3064.4	
342.57	4091.2	
342.78	4304.1	
342.99	3105.4	
343.19	2480.8	
343.4	4626.4	
343.61	4539.7	
343.81	2806.4	
344.02	2512.2	
344.23	4668.7	
344.43	4833.2	
344.64	3110.9	
344.85	3078.1	
345.06	4582	
345.26	4732.2	
345.47	3012.6	
345.68	3375.7	
345.88	4044.7	
346.09	4652.3	
346.3	3014.6	
346.5	2389.3	
346.71	4341	
346.92	4235.2	
347.12	2567.5	
347.33	2927.2	
347.54	4674.1	
347.74	4876.2	
347.95	2891.7	
348.16	2381.1	
348.36	4274.1	
348.57	4092.5	
348.78	3025.5	
348.98	3076	
349.19	4324.6	
349.39	4007.2	
349.6	2542.9	
349.81	2692.4	
350.01	4633.9	
350.22	4191.5	
350.43	2918.4	
350.63	3319.1	
350.84	4397.7	
351.05	4220.2	
351.25	2656.2	
351.46	2505.3	
351.67	4711.7	
351.87	4189.5	
352.08	2772.9	
352.29	3081.5	
352.49	4659.1	
352.7	4533.5	
352.9	2557.2	
353.11	3072.6	
353.32	5032.5	
353.52	4344.4	
353.73	2648.7	
353.94	3119.1	
354.14	4592.9	
354.35	4407.2	
354.55	2724.5	
354.76	2911.5	
354.97	4570.4	
355.17	4285.7	
355.38	2605.7	
355.59	3311.6	
355.79	4177.9	
356	4358.8	
356.2	2900.6	
356.41	2650.8	
356.62	4132.8	
356.82	4429.8	
357.03	3130	
357.24	2805	
357.44	4235.2	
357.65	4276.2	
357.85	3513.6	
358.06	2931.3	
358.27	4078.2	
358.47	4126	
358.68	2586.6	
358.88	3067.2	
359.09	4530.8	
359.3	4711	
359.5	3426.3	
359.71	3125.2	
359.91	4868.7	
360.12	4607.9	
360.33	3113.6	
360.53	3354.6	
360.74	4325.3	
360.94	4338.3	
361.15	3117.7	
361.36	2798.9	
361.56	4749.9	
361.77	4470	
361.97	3464.5	
362.18	2835.8	
362.38	4758.1	
362.59	4190.8	
362.8	2736.1	
363	2652.1	
363.21	4136.2	
363.41	4489.8	
363.62	3039.9	
363.83	3517	
364.03	4650.3	
364.24	4997	
364.44	3703.4	
364.65	3558	
364.85	4415.4	
365.06	4265.2	
365.27	2803	
365.47	2908.1	
365.68	4951.3	
365.88	4400.4	
366.09	3084.9	
366.29	2854.2	
366.5	4456.4	
366.71	4705.5	
366.91	3654.9	
367.12	3220.8	
367.32	5160.2	
367.53	4671.4	
367.73	3201	
367.94	3772.4	
368.14	4743.8	
368.35	5093.3	
368.56	3164.1	
368.76	2883.5	
368.97	4801.8	
369.17	5593.7	
369.38	2819.4	
369.58	2970.9	
369.79	4110.3	
369.99	4970.4	
370.2	3660.4	
370.4	3086.3	
370.61	4551.3	
370.82	5315.8	
371.02	3026.2	
371.23	2648	
371.43	4231.8	
371.64	4939	
371.84	3072.6	
372.05	3700	
372.25	5568.4	
372.46	4678.9	
372.66	3020.8	
372.87	3074	
373.07	4748.6	
373.28	5741.8	
373.48	3566.2	
373.69	3448.1	
373.9	4469.4	
374.1	4547.9	
374.31	3605.1	
374.51	3284.3	
374.72	4940.4	
374.92	4373.1	
375.13	3682.9	
375.33	3250.1	
375.54	4768.4	
375.74	4511	
375.95	3305.4	
376.15	3979.2	
376.36	4823.6	
376.56	4709	
376.77	3369.6	
376.97	3603.1	
377.18	5386.8	
377.38	4847.5	
377.59	3631	
377.79	3126.6	
378	4709.6	
378.2	4862.6	
378.41	3115	
378.61	3060.3	
378.82	5051	
379.02	4601.1	
379.23	3246.7	
379.43	3789.4	
379.64	5121.3	
379.84	4823.6	
380.05	3160.7	
380.25	3046	
380.46	4855.7	
380.66	4621.6	
380.87	3827	
381.07	4050.9	
381.28	5217.5	
381.48	4838	
381.69	3131.3	
381.89	3134.1	
382.1	4276.8	
382.3	4820.9	
382.51	3726.6	
382.71	4177.2	
382.91	4747.2	
383.12	5163.6	
383.32	3277.4	
383.53	3362.8	
383.73	4765.6	
383.94	4678.9	
384.14	3374.4	
384.35	2925.2	
384.55	4478.2	
384.76	4764.9	
384.96	3382.6	
385.17	3465.8	
385.37	4788.8	
385.58	4319.2	
385.78	3458.3	
385.98	2932.7	
386.19	4620.2	
386.39	4768.4	
386.6	3140.2	
386.8	3270.6	
387.01	4801.8	
387.21	4868	
387.42	3568.9	
387.62	3856.3	
387.83	4575.8	
388.03	4685.1	
388.23	3422.8	
388.44	3725.9	
388.64	4381.3	
388.85	4411.3	
389.05	3532.1	
389.26	3870.7	
389.46	5614.8	
389.67	5150.6	
389.87	3514.3	
390.07	3563.5	
390.28	4665.3	
390.48	4418.8	
390.69	3134.1	
390.89	3403.7	
391.1	4616.8	
391.3	5049.6	
391.5	3963.5	
391.71	4293.2	
391.91	5007.3	
392.12	5346.6	
392.32	4033.8	
392.53	3644.7	
392.73	4634.6	
392.93	4668.7	
393.14	3409.2	
393.34	3981.3	
393.55	4913.1	
393.75	4587.4	
393.95	3349.1	
394.16	3266.5	
394.36	4629.1	
394.57	4987.5	
394.77	3075.4	
394.98	3288.4	
395.18	4549.2	
395.38	4610	
395.59	3833.1	
395.79	3255.6	
396	4762.9	
396.2	4992.9	
396.4	3786	
396.61	3695.9	
396.81	4995	
397.02	4638.6	
397.22	3818.8	
397.42	3859.1	
397.63	5076.9	
397.83	4614.8	
398.04	3280.2	
398.24	3542.3	
398.44	4940.4	
398.65	4360.8	
398.85	3263.8	
399.05	3247.4	
399.26	4689.8	
399.46	5538.4	
399.67	3480.2	
399.87	3321.8	
400.07	4829.8	
400.28	5054.4	
400.48	3396.2	
400.69	4008.6	
400.89	5057.1	
401.09	5405.3	
401.3	3324.5	
401.5	3915	
401.7	5446.9	
401.91	5674.9	
402.11	3580.5	
402.32	3625.6	
402.52	5232.6	
402.72	5014.1	
402.93	3744.4	
403.13	3108.8	
403.33	5516.5	
403.54	4780.6	
403.74	3492.5	
403.94	4009.9	
404.15	4775.9	
404.35	5548.6	
404.56	3389.4	
404.76	4452.3	
404.96	5184.1	
405.17	4995.7	
405.37	3875.4	
405.57	3753.9	
405.78	5201.2	
405.98	4790.9	
406.18	3508.9	
406.39	3913	
406.59	5066.7	
406.79	4788.8	
407	3285.6	
407.2	3330.7	
407.4	5363.6	
407.61	5238	
407.81	3465.8	
408.01	4736.3	
408.22	4534.2	
408.42	5726.8	
408.62	4082.3	
408.83	3861.8	
409.03	4924.7	
409.23	4997	
409.44	3859.7	
409.64	3938.9	
409.84	5556.1	
410.05	5537	
410.25	3932.1	
410.45	3828.3	
410.66	5296	
410.86	6651.1	
411.06	4111	
411.27	3994.9	
411.47	6515.3	
411.67	5370.5	
411.88	4186.7	
412.08	4258.4	
412.28	5717.2	
412.49	5994.4	
412.69	4048.8	
412.89	4087.1	
413.09	5851	
413.3	5846.3	
413.5	4197	
413.7	3982.6	
413.91	5414.1	
414.11	5938.4	
414.31	4009.9	
414.52	4254.3	
414.72	5748	
414.92	5670.8	
415.12	4034.5	
415.33	4387.4	
415.53	5858.6	
415.73	5978	
415.94	4498	
416.14	4192.9	
416.34	5437.4	
416.55	5202.5	
416.75	4855.7	
416.95	4519.9	
417.15	6038.1	
417.36	6305.7	
417.56	5081	
417.76	4420.2	
417.97	6087.2	
418.17	5945.9	
418.37	4337.6	
418.57	4305.5	
418.78	5905.7	
418.98	5712.5	
419.18	4767	
419.38	4733.5	
419.59	5627.8	
419.79	5464	
419.99	4186.7	
420.2	4356	
420.4	5963.7	
420.6	5970.5	
420.8	4175.1	
421.01	4102.1	
421.21	5928.2	
421.41	5887.2	
421.61	4311	
421.82	4185.4	
422.02	5640.1	
422.22	6181.5	
422.42	4606.6	
422.63	4477.5	
422.83	5616.9	
423.03	6350.1	
423.23	4438.6	
423.44	3832.4	
423.64	5641.5	
423.84	5398.4	
424.04	4134.8	
424.25	3914.4	
424.45	6152.1	
424.65	6060.6	
424.85	3838.6	
425.06	4073.4	
425.26	6286.6	
425.46	5562.3	
425.66	4444.1	
425.87	4217.5	
426.07	5981.4	
426.27	5832.6	
426.47	4313	
426.67	3909.6	
426.88	6186.9	
427.08	5936.4	
427.28	4491.9	
427.48	3884.3	
427.69	5283.8	
427.89	5556.8	
428.09	4384	
428.29	3872	
428.5	5922	
428.7	5682.4	
428.9	3906.2	
429.1	4078.2	
429.3	5737.7	
429.51	5869.5	
429.71	4112.3	
429.91	4531.5	
430.11	5948	
430.31	6098.9	
430.52	4245.4	
430.72	4429.8	
430.92	6220.4	
431.12	5862	
431.32	4010.6	
431.53	4270.7	
431.73	5321.3	
431.93	6161.7	
432.13	3990.1	
432.33	3936.2	
432.54	5629.9	
432.74	5719.3	
432.94	3874.8	
433.14	4495.3	
433.34	6006.7	
433.55	5729.5	
433.75	4446.8	
433.95	5386.2	
434.15	5845.6	
434.35	5539.1	
434.56	4012	
434.76	3761.4	
434.96	5842.9	
435.16	5898.2	
435.36	3960.8	
435.56	4638	
435.77	5584.1	
435.97	5651	
436.17	4969.7	
436.37	4551.3	
436.57	5569.1	
436.78	5524.1	
436.98	5536.3	
437.18	4965.6	
437.38	5853.1	
437.58	5651	
437.78	4993.6	
437.99	4242	
438.19	5964.4	
438.39	6743.3	
438.59	4192.9	
438.79	3839.9	
438.99	6276.3	
439.2	5566.4	
439.4	3917.8	
439.6	3914.4	
439.8	5771.9	
440	6537.1	
440.2	4627.7	
440.4	4559.5	
440.61	6236.7	
440.81	6353.5	
441.01	4148.5	
441.21	4659.8	
441.41	6445.6	
441.61	6016.9	
441.81	4839.4	
442.02	5324	
442.22	6643.6	
442.42	6072.9	
442.62	4167.6	
442.82	4170.3	
443.02	6482.5	
443.22	5908.4	
443.43	4466.6	
443.63	4173.8	
443.83	5764.3	
444.03	5743.2	
444.23	4823	
444.43	4578.6	
444.63	5991	
444.83	6638.8	
445.04	4318.5	
445.24	4942.4	
445.44	6122.7	
445.64	6152.8	
445.84	4705.5	
446.04	4633.9	
446.24	5692.7	
446.44	6352.8	
446.65	4122.6	
446.85	4414.7	
447.05	5872.2	
447.25	6335.7	
447.45	4500.1	
447.65	4076.1	
447.85	6061.3	
448.05	5742.5	
448.25	4675.5	
448.46	4532.2	
448.66	6001.9	
448.86	5698.1	
449.06	4134.2	
449.26	4633.2	
449.46	6157.6	
449.66	5601.2	
449.86	4442	
450.06	4376.5	
450.26	5696.1	
450.47	6025.1	
450.67	4544.4	
450.87	4760.8	
451.07	6290.7	
451.27	5973.9	
451.47	4196.3	
451.67	4625.7	
451.87	5752.7	
452.07	6477.7	
452.27	4319.2	
452.47	4230.4	
452.67	6023.8	
452.88	6180.8	
453.08	3918.4	
453.28	5008.6	
453.48	6738.5	
453.68	5894.1	
453.88	4224.3	
454.08	4338.3	
454.28	6179.4	
454.48	5945.9	
454.68	4671.4	
454.88	4911	
455.08	6343.2	
455.28	6109.1	
455.48	4227	
455.68	4633.2	
455.89	6595.8	
456.09	6267.5	
456.29	4490.5	
456.49	4529.4	
456.69	6559	
456.89	5985.5	
457.09	4730.1	
457.29	5027.1	
457.49	6232.7	
457.69	6283.9	
457.89	4689.8	
458.09	4242	
458.29	6105	
458.49	6614.3	
458.69	4887.1	
458.89	4599.1	
459.09	6732.4	
459.29	6684.6	
459.49	4603.2	
459.69	5029.1	
459.9	6420.4	
460.1	6122.7	
460.3	4506.9	
460.5	4435.2	
460.7	6493.4	
460.9	6066.8	
461.1	4311.7	
461.3	4999.8	
461.5	6922.1	
461.7	6529.6	
461.9	4580.6	
462.1	4734.9	
462.3	6425.8	
462.5	6631.3	
462.7	4553.3	
462.9	4681.7	
463.1	7303.7	
463.3	7019.1	
463.5	4838.7	
463.7	5301.5	
463.9	6484.6	
464.1	6672.3	
464.3	4917.9	
464.5	4960.9	
464.7	6795.2	
464.9	6583.5	
465.1	5701.5	
465.3	5155.4	
465.5	6976.7	
465.7	7008.8	
465.9	5297.4	
466.1	5200.5	
466.3	6907.1	
466.5	6810.2	
466.7	5674.9	
466.9	5105.6	
467.1	6952.9	
467.3	7312.6	
467.5	5643.5	
467.7	5114.5	
467.9	7488.7	
468.1	8019.8	
468.3	5477.6	
468.5	5834.7	
468.7	6741.9	
468.9	6702.3	
469.1	5317.2	
469.3	5669.5	
469.5	7936.6	
469.7	6569.9	
469.9	5552	
470.1	5057.1	
470.3	6966.5	
470.5	6842.9	
470.7	5819	
470.9	5128.8	
471.1	6632.7	
471.3	6933.1	
471.5	5069.4	
471.69	6096.8	
471.89	6637.5	
472.09	6266.1	
472.29	5500.2	
472.49	5614.2	
472.69	6466.1	
472.89	6748.7	
473.09	5022.3	
473.29	5076.2	
473.49	6581.5	
473.69	6529.6	
473.89	5518.6	
474.09	5102.9	
474.29	7333.8	
474.49	7023.2	
474.69	5520	
474.89	5173.9	
475.09	6562.4	
475.29	6492.7	
475.49	4846.9	
475.69	4991.6	
475.88	7481.9	
476.08	6810.9	
476.28	4825.7	
476.48	4943.1	
476.68	7049.8	
476.88	6883.2	
477.08	4944.5	
477.28	5140.4	
477.48	6663.4	
477.68	6922.8	
477.88	4870.1	
478.08	5018.2	
478.28	7185	
478.48	6676.4	
478.67	5069.4	
478.87	4710.3	
479.07	6948.8	
479.27	6744	
479.47	5149.3	
479.67	5188.9	
479.87	6996.5	
480.07	7256.6	
480.27	4737	
480.47	5640.8	
480.67	6738.5	
480.87	7113.3	
481.06	4934.2	
481.26	5374.6	
481.46	6737.8	
481.66	6660.7	
481.86	5257.1	
482.06	5665.4	
482.26	6587	
482.46	7049.8	
482.66	5062.6	
482.86	4871.4	
483.05	6918.7	
483.25	6402.6	
483.45	6599.9	
483.65	5089.9	
483.85	6421.7	
484.05	6713.9	
484.25	5423.7	
484.45	5646.9	
484.65	7043	
484.84	7129.7	
485.04	5150.6	
485.24	5109	
485.44	7460.1	
485.64	6397.9	
485.84	4795	
486.04	5492.7	
486.24	6597.9	
486.44	6812.2	
486.63	4652.3	
486.83	5283.8	
487.03	6576	
487.23	6603.3	
487.43	4795.7	
487.63	6066.8	
487.83	6762.4	
488.02	7104.4	
488.22	5285.1	
488.42	5659.9	
488.62	7247.8	
488.82	6507.1	
489.02	5155.4	
489.22	5144.5	
489.41	6989.7	
489.61	7050.5	
489.81	4909.7	
490.01	5006.6	
490.21	7086	
490.41	7559.1	
490.61	5039.4	
490.8	5052.3	
491	6824.5	
491.2	6513.2	
491.4	5360.2	
491.6	4894	
491.8	6864.8	
491.99	6792.4	
492.19	4819.6	
492.39	4935.6	
492.59	7080.5	
492.79	7148.1	
492.99	5528.8	
493.18	5003.9	
493.38	7310.6	
493.58	7659.4	
493.78	5401.2	
493.98	5111.7	
494.18	7102.4	
494.37	6609.5	
494.57	5575.3	
494.77	5444.9	
494.97	7268.9	
495.17	7277.1	
495.37	5300.1	
495.56	5552.7	
495.76	7408.9	
495.96	7318.1	
496.16	6077	
496.36	5452.4	
496.55	7413	
496.75	7045	
496.95	5624.4	
497.15	5563	
497.35	7338.6	
497.54	7247.1	
497.74	5547.9	
497.94	6489.3	
498.14	7914.7	
498.34	7608.9	
498.53	5307.7	
498.73	5670.8	
498.93	6939.2	
499.13	7238.2	
499.33	5636.7	
499.52	5880.4	
499.72	7380.9	
499.92	7447.1	
500.12	5383.4	
500.32	5608	
500.51	7438.9	
500.71	7335.1	
500.91	6036.7	
501.11	5734.3	
501.31	7417.7	
501.5	7798	
501.7	6237.4	
501.9	5621.7	
502.1	7317.4	
502.29	7578.2	
502.49	5888.6	
502.69	6137.1	
502.89	7456.7	
503.09	7394.5	
503.28	5242.8	
503.48	5377.3	
503.68	7046.4	
503.88	6892.8	
504.07	5812.8	
504.27	5628.5	
504.47	7210.2	
504.67	7240.3	
504.86	5870.8	
505.06	5628.5	
505.26	7116.7	
505.46	7931.8	
505.65	5530.2	
505.85	5666.7	
506.05	7008.8	
506.25	7260.7	
506.44	5156.8	
506.64	5753.4	
506.84	6862.1	
507.04	7346.1	
507.23	5341.1	
507.43	5566.4	
507.63	7968	
507.83	6806.8	
508.02	5617.6	
508.22	5264	
508.42	8049.9	
508.62	6796.5	
508.81	5495.4	
509.01	5780.1	
509.21	6678.4	
509.4	7052.5	
509.6	5596.4	
509.8	5221.6	
510	6918.7	
510.19	7643.7	
510.39	5160.2	
510.59	5230.5	
510.79	6850.5	
510.98	7610.3	
511.18	5343.8	
511.38	5394.3	
511.57	7413	
511.77	6993.1	
511.97	5666	
512.17	5210.7	
512.36	7301	
512.56	7102.4	
512.76	5171.1	
512.95	5019.6	
513.15	7468.9	
513.35	6488.6	
513.55	5796.4	
513.74	5206.6	
513.94	7318.1	
514.14	6940.6	
514.33	5778	
514.53	5646.2	
514.73	7017.7	
514.92	7051.8	
515.12	5286.5	
515.32	5182.7	
515.51	7137.2	
515.71	7190.4	
515.91	6191	
516.11	5257.8	
516.3	8019.2	
516.5	6895.5	
516.7	5581.4	
516.89	5844.9	
517.09	6877.8	
517.29	6873	
517.48	5866.7	
517.68	5406	
517.88	6653.2	
518.07	7109.9	
518.27	5625.1	
518.47	5094.7	
518.66	7463.5	
518.86	6680.5	
519.06	5043.5	
519.25	5350	
519.45	6828.6	
519.65	7719.5	
519.84	5717.2	
520.04	6066.1	
520.24	7988.4	
520.43	7169.3	
520.63	5533.6	
520.83	5340.4	
521.02	6789.7	
521.22	7133.1	
521.42	5623.7	
521.61	5924.1	
521.81	6896.9	
522.01	7070.3	
522.2	5587.5	
522.4	5442.1	
522.6	7306.5	
522.79	6547.4	
522.99	5555.5	
523.18	5169.8	
523.38	7204.8	
523.58	7161.1	
523.77	6160.3	
523.97	5123.3	
524.17	8241	
524.36	7797.3	
524.56	5978	
524.76	5715.2	
524.95	7098.3	
525.15	7019.1	
525.34	5618.9	
525.54	5641.5	
525.74	7418.4	
525.93	6781.5	
526.13	6237.4	
526.33	5578	
526.52	7647.8	
526.72	7245	
526.91	6265.4	
527.11	5874.3	
527.31	7480.5	
527.5	7743.4	
527.7	5848.3	
527.89	5258.5	
528.09	7093.5	
528.29	7356.3	
528.48	6133.7	
528.68	5853.8	
528.87	7609.6	
529.07	7501.7	
529.27	5760.3	
529.46	5475.6	
529.66	7389.1	
529.85	7529	
530.05	5453.7	
530.25	5863.3	
530.44	8126.3	
530.64	7217	
530.83	5598.5	
531.03	5722	
531.23	7745.4	
531.42	7435.5	
531.62	6224.5	
531.81	5806.7	
532.01	7764.5	
532.21	7935.9	
532.4	5685.2	
532.6	5913.9	
532.79	8193.9	
532.99	7562.5	
533.18	5984.2	
533.38	6478.4	
533.58	7482.6	
533.77	7780.9	
533.97	5986.9	
534.16	6401.3	
534.36	8058.1	
534.55	7464.2	
534.75	6396.5	
534.95	6029.9	
535.14	7983.7	
535.34	7385	
535.53	5720	
535.73	6830.7	
535.92	8277.9	
536.12	7413.6	
536.31	5822.4	
536.51	6494.1	
536.71	7821.9	
536.9	7383.6	
537.1	5937.7	
537.29	5964.4	
537.49	7997.3	
537.68	7288	
537.88	6242.9	
538.07	5663.3	
538.27	7633.5	
538.46	8159.8	
538.66	5666.7	
538.86	5975.3	
539.05	7698.3	
539.25	7770.7	
539.44	6111.1	
539.64	5792.3	
539.83	7409.6	
540.03	7994.6	
540.22	5747.3	
540.42	5795.8	
540.61	7589.1	
540.81	7650.5	
541	6068.8	
541.2	6414.2	
541.39	7391.1	
541.59	7382.2	
541.78	6297.5	
541.98	5747.3	
542.18	7075.7	
542.37	7054.6	
542.57	5905.7	
542.76	6201.2	
542.96	7202	
543.15	7464.2	
543.35	5935	
543.54	5538.4	
543.74	7385.7	
543.93	7343.3	
544.13	5917.3	
544.32	6494.8	
544.52	7685.3	
544.71	7124.2	
544.91	5406.6	
545.1	6049	
545.3	7241.6	
545.49	7436.9	
545.69	5332.2	
545.88	5720.7	
546.08	8115.4	
546.27	7686	
546.47	5948.7	
546.66	5464.7	
546.86	7663.5	
547.05	7890.8	
547.24	5727.5	
547.44	5616.2	
547.63	7040.2	
547.83	7597.3	
548.02	5788.2	
548.22	5954.1	
548.41	6882.5	
548.61	7767.9	
548.8	5529.5	
549	5547.9	
549.19	7392.5	
549.39	7523.6	
549.58	5365	
549.78	5689.9	
549.97	7503.8	
550.17	7193.8	
550.36	6195.1	
550.55	6736.5	
550.75	7126.2	
550.94	7677.8	
551.14	5481	
551.33	5699.5	
551.53	6749.4	
551.72	7410.2	
551.92	5734.3	
552.11	5530.9	
552.31	7507.2	
552.5	7370.6	
552.69	6591	
552.89	5404.6	
553.08	7352.2	
553.28	7172	
553.47	5539.8	
553.67	6115.2	
553.86	7726.3	
554.06	6708.5	
554.25	5084.4	
554.44	5463.3	
554.64	8189.1	
554.83	7848.5	
555.03	5365.7	
555.22	5535	
555.42	7503.1	
555.61	7328.3	
555.8	5481.7	
556	5643.5	
556.19	6864.1	
556.39	7359.7	
556.58	5553.4	
556.78	5506.3	
556.97	7281.9	
557.16	7074.4	
557.36	6279.1	
557.55	5319.3	
557.75	6650.4	
557.94	7694.2	
558.13	5358.9	
558.33	5193.6	
558.52	7666.2	
558.72	6744	
558.91	5236.7	
559.1	5416.2	
559.3	6699.6	
559.49	6507.1	
559.69	5211.4	
559.88	5528.2	
560.07	7152.2	
560.27	7454.6	
560.46	5716.6	
560.66	5808	
560.85	7053.9	
561.04	6580.8	
561.24	5294	
561.43	5434.6	
561.63	6689.3	
561.82	6924.2	
562.01	6037.4	
562.21	5502.2	
562.4	7135.8	
562.59	7550.9	
562.79	5456.5	
562.98	5216.2	
563.18	7211.6	
563.37	7901.1	
563.56	5670.8	
563.76	5252.4	
563.95	6779.5	
564.14	6769.2	
564.34	5496.1	
564.53	5248.3	
564.73	7173.4	
564.92	7185	
565.11	5543.2	
565.31	5160.2	
565.5	7405.5	
565.69	6690.7	
565.89	5387.5	
566.08	5419.6	
566.27	7327.6	
566.47	7546.8	
566.66	5933.6	
566.85	5131.5	
567.05	7114.6	
567.24	6838.9	
567.44	5256.5	
567.63	5985.5	
567.82	7240.9	
568.02	7015	
568.21	5223	
568.4	5389.6	
568.6	6962.4	
568.79	6959	
568.98	5152.7	
569.18	5210	
569.37	6939.9	
569.56	8137.9	
569.76	5485.1	
569.95	5978.7	
570.14	7161.1	
570.34	7105.8	
570.53	5212.1	
570.72	5147.2	
570.91	7453.9	
571.11	6986.3	
571.3	5505.6	
571.49	6000.5	
571.69	7034.1	
571.88	6641.6	
572.07	5704.3	
572.27	5743.9	
572.46	6617	
572.65	7324.2	
572.85	5323.4	
573.04	5510.4	
573.23	7475.1	
573.43	7019.8	
573.62	5162.9	
573.81	5575.3	
574	7058	
574.2	6912.6	
574.39	5373.2	
574.58	5406.6	
574.78	7492.2	
574.97	7120.1	
575.16	5668.1	
575.36	5782.8	
575.55	7383.6	
575.74	7415	
575.93	5144.5	
576.13	5720	
576.32	6969.9	
576.51	7281.2	
576.71	5493.3	
576.9	6266.8	
577.09	7562.5	
577.28	7238.2	
577.48	5774.6	
577.67	5075.5	
577.86	7059.3	
578.05	7235.5	
578.25	5451.7	
578.44	5589.6	
578.63	7095.5	
578.83	7771.4	
579.02	5233.2	
579.21	6134.3	
579.4	7232.1	
579.6	6963.8	
579.79	5569.1	
579.98	6896.2	
580.17	7400.7	
580.37	7479.2	
580.56	5268.7	
580.75	5792.3	
580.94	7574.1	
581.14	7710.6	
581.33	5945.9	
581.52	5380.7	
581.71	7217.7	
581.91	7720.2	
582.1	5215.5	
582.29	5527.5	
582.48	7114	
582.68	7020.4	
582.87	5786.2	
583.06	5653.8	
583.25	7384.3	
583.45	7171.3	
583.64	5998.5	
583.83	6410.1	
584.02	7163.8	
584.21	7393.2	
584.41	6001.2	
584.6	5615.5	
584.79	7212.9	
584.98	7485.3	
585.18	5265.3	
585.37	5307.7	
585.56	6943.3	
585.75	7328.3	
585.94	5461.2	
586.14	5777.3	
586.33	7590.5	
586.52	7030.7	
586.71	5642.8	
586.91	5533.6	
587.1	6712.6	
587.29	7405.5	
587.48	5456.5	
587.67	5327.4	
587.87	7215	
588.06	7135.1	
588.25	6156.9	
588.44	5726.8	
588.63	7021.1	
588.83	7295.5	
589.02	5429.8	
589.21	5270.1	
589.4	6872.3	
589.59	6774.7	
589.78	4804.5	
589.98	5044.1	
590.17	6488.6	
590.36	6709.8	
590.55	4622.3	
590.74	5012.1	
590.94	7445	
591.13	6664.8	
591.32	4892.6	
591.51	4671.4	
591.7	6898.9	
591.89	6677.1	
592.09	4829.1	
592.28	4995	
592.47	6206	
592.66	7466.2	
592.85	4743.8	
593.05	4922.6	
593.24	6574.7	
593.43	7106.5	
593.62	5039.4	
593.81	5189.6	
594	6750.1	
594.19	6703.7	
594.39	4911	
594.58	4850.3	
594.77	6875.7	
594.96	7093.5	
595.15	4902.8	
595.34	5243.5	
595.54	6795.8	
595.73	6247.7	
595.92	4467.3	
596.11	5076.9	
596.3	7139.9	
596.49	6449.1	
596.68	4957.4	
596.88	5203.9	
597.07	6916.7	
597.26	6163.7	
597.45	4728.1	
597.64	5351.3	
597.83	6422.4	
598.02	6754.2	
598.22	4764.9	
598.41	5178.6	
598.6	6650.4	
598.79	6272.9	
598.98	4792.9	
599.17	5340.4	
599.36	6688	
599.55	7260	
599.74	5907.7	
599.94	5812.1	
600.13	7055.3	
600.32	6279.8	
600.51	4676.9	
600.7	4739	
600.89	7342	
601.08	7359.7	
601.27	4620.2	
601.47	5177.3	
601.66	6914.6	
601.85	7253.2	
602.04	5081	
602.23	5212.8	
602.42	6416.3	
602.61	6711.9	
602.8	4869.4	
602.99	4765.6	
603.18	6524.8	
603.37	6617	
603.57	5078.3	
603.76	5569.8	
603.95	7126.2	
604.14	6830.7	
604.33	4923.3	
604.52	5057.8	
604.71	6720.8	
604.9	6356.2	
605.09	5479	
605.28	5251	
605.47	7154.2	
605.66	6739.2	
605.86	5186.1	
606.05	4854.4	
606.24	7083.9	
606.43	6109.8	
606.62	5063.3	
606.81	5425.1	
607	6939.2	
607.19	6478.4	
607.38	4747.2	
607.57	4807.9	
607.76	6358.3	
607.95	5950.7	
608.14	5177.9	
608.33	5453.7	
608.52	6353.5	
608.72	6860.7	
608.91	4613.4	
609.1	4594.3	
609.29	6483.2	
609.48	6097.5	
609.67	5162.2	
609.86	4633.2	
610.05	6318	
610.24	6428.6	
610.43	4505.5	
610.62	4394.3	
610.81	7051.8	
611	6961	
611.19	4605.2	
611.38	5019.6	
611.57	6585.6	
611.76	7213.6	
611.95	4571.1	
612.14	4439.3	
612.33	6447.7	
612.52	6192.4	
612.71	4805.9	
612.9	4360.1	
613.09	5948	
613.28	7439.6	
613.47	4746.5	
613.66	5212.1	
613.85	6535.1	
614.04	6225.1	
614.24	4736.3	
614.43	4218.1	
614.62	6566.5	
614.81	6553.5	
615	4992.3	
615.19	4960.2	
615.38	6217	
615.57	6393.1	
615.76	5025	
615.95	5517.9	
616.14	6687.3	
616.33	6429.9	
616.52	5173.9	
616.71	5233.2	
616.9	6636.8	
617.09	6421.7	
617.28	4792.9	
617.47	5469.4	
617.66	6090	
617.85	6059.9	
618.04	5326.8	
618.22	4915.8	
618.41	6261.3	
618.6	6916	
618.79	4937	
618.98	4708.3	
619.17	6987.7	
619.36	5864	
619.55	4887.8	
619.74	4967	
619.93	6580.1	
620.12	6210.8	
620.31	5147.9	
620.5	5258.5	
620.69	6853.2	
620.88	7211.6	
621.07	5660.6	
621.26	5037.3	
621.45	6695.5	
621.64	6666.8	
621.83	5196.4	
622.02	4720.6	
622.21	6757.6	
622.4	6584.2	
622.59	5451	
622.78	5352.7	
622.97	6337.8	
623.16	6886.6	
623.35	5310.4	
623.54	4646.2	
623.72	6423.8	
623.91	6500.9	
624.1	5310.4	
624.29	4537.6	
624.48	7127.6	
624.67	6772.6	
624.86	5244.8	
625.05	4704.2	
625.24	7300.3	
625.43	6341.2	
625.62	6219.7	
625.81	4759.5	
626	6884.6	
626.19	6447	
626.38	5244.2	
626.56	4937	
626.75	6291.4	
626.94	6737.1	
627.13	5317.9	
627.32	4571.7	
627.51	6884.6	
627.7	7309.2	
627.89	4580.6	
628.08	5307	
628.27	6228.6	
628.46	6406.7	
628.65	4739	
628.83	4537.6	
629.02	6694.1	
629.21	6210.1	
629.4	5039.4	
629.59	5176.6	
629.78	6261.3	
629.97	6743.3	
630.16	5136.3	
630.35	4790.9	
630.54	7173.4	
630.72	6943.3	
630.91	4911	
631.1	5188.2	
631.29	6530.3	
631.48	6614.3	
631.67	5246.2	
631.86	4881.7	
632.05	6507.8	
632.24	6380.8	
632.42	4764.3	
632.61	5056.4	
632.8	6393.8	
632.99	6189	
633.18	5100.1	
633.37	5294.7	
633.56	6606.7	
633.75	6563.1	
633.93	5104.9	
634.12	4879.6	
634.31	7142.6	
634.5	6799.3	
634.69	4945.8	
634.88	5225.1	
635.07	6544.6	
635.25	6809.5	
635.44	5441.5	
635.63	5554.8	
635.82	6384.2	
636.01	5859.9	
636.2	5328.8	
636.39	5122	
636.57	7075	
636.76	6736.5	
636.95	4816.1	
637.14	5574.6	
637.33	6653.2	
637.52	7120.1	
637.7	4661.2	
637.89	5321.3	
638.08	6376	
638.27	7236.2	
638.46	5289.2	
638.65	5536.3	
638.83	7247.1	
639.02	6260	
639.21	5257.1	
639.4	5436.7	
639.59	6552.1	
639.78	6281.1	
639.96	4732.2	
640.15	4844.8	
640.34	6475.7	
640.53	6487.3	
640.72	4674.1	
640.91	4810	
641.09	6130.3	
641.28	6941.9	
641.47	4955.4	
641.66	5309.7	
641.85	6523.5	
642.03	6640.2	
642.22	5096.7	
642.41	4839.4	
642.6	6217.6	
642.79	5775.3	
642.97	4790.2	
643.16	5122	
643.35	6155.5	
643.54	6044.2	
643.73	4653.7	
643.91	5072.1	
644.1	5987.6	
644.29	6314.6	
644.48	4688.5	
644.67	4732.2	
644.85	5949.3	
645.04	6281.8	
645.23	4517.8	
645.42	4791.6	
645.6	6064	
645.79	6669.6	
645.98	4521.9	
646.17	4048.2	
646.36	5795.8	
646.54	6088.6	
646.73	5010.7	
646.92	4325.3	
647.11	5851	
647.29	6425.8	
647.48	4347.2	
647.67	4229.1	
647.86	6604	
648.05	6571.9	
648.23	4544.4	
648.42	5289.2	
648.61	6296.8	
648.8	6138.4	
648.98	4372.4	
649.17	4578.6	
649.36	5952.1	
649.55	5642.8	
649.73	4452.3	
649.92	4827.1	
650.11	5824.4	
650.3	6018.3	
650.48	4463.2	
650.67	4331.5	
650.86	6157.6	
651.05	5487.9	
651.23	4464.6	
651.42	4405.9	
651.61	5915.2	
651.79	5709.7	
651.98	4489.8	
652.17	4263.2	
652.36	6118.6	
652.54	5554.8	
652.73	4418.2	
652.92	4214.7	
653.11	6088.6	
653.29	6149.4	
653.48	3973.1	
653.67	4492.6	
653.85	5934.3	
654.04	6505	
654.23	4550.6	
654.42	4388.1	
654.6	5688.6	
654.79	6081.8	
654.98	4055	
655.16	4364.9	
655.35	5507	
655.54	5268.7	
655.73	4049.5	
655.91	4001	
656.1	5961.6	
656.29	5246.9	
656.47	3848.8	
656.66	4807.3	
656.85	5621.7	
657.03	5608	
657.22	4119.1	
657.41	4123.2	
657.59	5614.8	
657.78	5455.1	
657.97	3943	
658.16	4343.1	
658.34	6073.6	
658.53	6246.3	
658.72	4891.2	
658.9	5244.8	
659.09	5800.5	
659.28	5698.1	
659.46	4286.4	
659.65	4136.2	
659.84	5552.7	
660.02	5963.7	
660.21	4166.3	
660.4	4059.1	
660.58	6107	
660.77	5735.7	
660.96	4468.7	
661.14	3951.2	
661.33	6424.5	
661.52	6425.2	
661.7	3883.6	
661.89	5868.1	
662.08	5573.9	
662.26	5165.7	
662.45	4078.2	
662.64	4140.3	
662.82	6027.2	
663.01	5431.9	
663.2	4093.9	
663.38	4525.3	
663.57	5879	
663.75	5756.8	
663.94	4248.9	
664.13	5027.1	
664.31	5545.9	
664.5	5847	
664.69	4630.5	
664.87	4733.5	
665.06	5420.3	
665.25	5748	
665.43	4906.3	
665.62	4833.2	
665.8	5943.2	
665.99	5614.8	
666.18	4354.7	
666.36	4300.1	
666.55	5987.6	
666.74	5868.8	
666.92	4123.2	
667.11	5049.6	
667.29	5623.7	
667.48	5933.6	
667.67	4747.2	
667.85	4266.6	
668.04	5574.6	
668.22	5513.8	
668.41	4313.7	
668.6	4567	
668.78	5423	
668.97	5655.1	
669.15	4548.5	
669.34	3933.5	
669.53	5458.5	
669.71	5726.8	
669.9	4000.4	
670.08	4364.9	
670.27	5350	
670.46	5824.4	
670.64	4567	
670.83	4696.7	
671.01	5319.3	
671.2	5694.7	
671.38	4065.2	
671.57	4061.8	
671.76	6177.4	
671.94	6326.9	
672.13	3967.6	
672.31	4555.4	
672.5	5915.9	
672.69	5425.1	
672.87	4106.2	
673.06	4311	
673.24	5820.3	
673.43	5511.1	
673.61	4472.8	
673.8	4272.1	
673.98	5779.4	
674.17	5878.4	
674.36	4595	
674.54	4520.5	
674.73	5539.1	
674.91	5965.7	
675.1	4328	
675.28	4047.5	
675.47	5560.2	
675.65	5874.9	
675.84	4271.4	
676.03	4425.7	
676.21	5511.1	
676.4	5061.9	
676.58	4671.4	
676.77	4556	
676.95	6354.2	
677.14	5472.9	
677.32	3986	
677.51	3938.9	
677.69	5945.3	
677.88	5371.1	
678.06	4037.2	
678.25	4092.5	
678.44	5582.8	
678.62	5394.3	
678.81	3910.3	
678.99	4459.1	
679.18	6021.7	
679.36	5783.5	
679.55	4291.9	
679.73	4519.2	
679.92	5751.4	
680.1	5466	
680.29	4891.2	
680.47	4182	
680.66	5528.8	
680.84	5954.1	
681.03	3875.4	
681.21	4431.1	
681.4	5413.5	
681.58	5371.1	
681.77	4121.2	
681.95	4059.8	
682.14	5968.5	
682.32	6148	
682.51	4556.7	
682.69	3875.4	
682.88	5412.1	
683.06	5722	
683.25	4414.7	
683.43	4667.3	
683.62	5602.6	
683.8	5776.6	
683.99	4750.6	
684.17	4296.6	
684.36	6300.9	
684.54	5560.9	
684.73	3887	
684.91	3872.7	
685.1	5638.7	
685.28	5273.5	
685.46	4207.9	
685.65	4281.6	
685.83	5730.9	
686.02	5425.1	
686.2	3920.5	
686.39	3972.4	
686.57	5242.1	
686.76	6083.8	
686.94	3976.5	
687.13	4085	
687.31	5651	
687.5	5483.8	
687.68	3787.4	
687.86	4429.8	
688.05	6503	
688.23	5093.3	
688.42	4453.6	
688.6	3939.6	
688.79	5402.5	
688.97	5386.2	
689.16	4283	
689.34	3633.1	
689.52	5697.4	
689.71	5973.2	
689.89	4468	
690.08	4034.5	
690.26	5517.9	
690.45	5335.6	
690.63	4514.4	
690.81	4100	
691	5525.4	
691.18	5305.6	
691.37	4291.9	
691.55	5421.7	
691.74	5295.4	
691.92	6470.2	
692.1	4140.3	
692.29	3840.6	
692.47	5537	
692.66	5011.4	
692.84	3967.6	
693.02	4227	
693.21	5052.3	
693.39	5454.4	
693.58	4308.2	
693.76	3929.4	
693.94	6034	
694.13	5900.9	
694.31	4031.1	
694.5	4581.3	
694.68	5244.8	
694.86	5541.8	
695.05	4188.8	
695.23	4411.3	
695.42	5743.9	
695.6	7037.5	
695.78	4552	
695.97	4016.1	
696.15	5807.4	
696.34	5337.7	
696.52	3884.3	
696.7	4371.7	
696.89	5588.9	
697.07	5201.2	
697.25	4310.3	
697.44	5102.9	
697.62	5562.3	
697.81	5674.2	
697.99	4185.4	
698.17	4373.1	
698.36	5336.3	
698.54	5636.7	
698.72	4328	
698.91	3772.4	
699.09	5412.8	
699.28	5125.4	
699.46	4162.2	
699.64	4027	
699.83	5259.2	
700.01	5812.1	
700.19	4549.9	
700.38	3593.5	
700.56	5810.8	
700.74	5339.7	
700.93	3753.9	
701.11	4315.1	
701.29	5616.9	
701.48	6281.1	
701.66	3959.4	
701.84	4018.8	
702.03	5446.2	
702.21	5827.2	
702.39	3780.6	
702.58	4160.8	
702.76	5702.9	
702.94	5722	
703.13	3787.4	
703.31	5132.9	
703.49	5349.3	
703.68	5798.5	
703.86	3895.2	
704.04	4463.2	
704.23	5573.9	
704.41	5663.3	
704.59	4001.7	
704.78	4657.1	
704.96	6506.4	
705.14	5739.8	
705.33	3840.6	
705.51	4347.2	
705.69	5343.2	
705.87	5902.2	
706.06	4452.3	
706.24	3807.9	
706.42	5599.8	
706.61	5677	
706.79	4496.7	
706.97	3819.5	
707.16	5255.8	
707.34	5659.2	
707.52	4396.3	
707.7	3917.8	
707.89	5334.3	
708.07	5129.5	
708.25	4472.8	
708.44	4498	
708.62	5284.4	
708.8	5963	
708.98	4648.9	
709.17	4004.5	
709.35	5527.5	
709.53	5567.7	
709.72	3776.5	
709.9	3895.2	
710.08	5839.4	
710.26	5754.8	
710.45	4827.7	
710.63	4023.6	
710.81	5477	
710.99	5556.8	
711.18	4416.1	
711.36	4059.8	
711.54	5366.4	
711.72	5823.1	
711.91	4162.2	
712.09	3846.8	
712.27	5526.8	
712.45	5816.2	
712.64	4188.1	
712.82	3695.2	
713	5228.5	
713.18	5251.7	
713.37	3720.5	
713.55	4452.3	
713.73	5767.8	
713.91	5027.8	
714.1	3919.8	
714.28	3651.5	
714.46	5477.6	
714.64	5020.3	
714.83	3379.8	
715.01	3766.2	
715.19	5198.4	
715.37	4600.4	
715.55	3527.3	
715.74	3749.1	
715.92	5556.1	
716.1	4367.6	
716.28	4407.9	
716.47	3882.9	
716.65	4974.5	
716.83	4865.3	
717.01	3743.7	
717.19	3738.9	
717.38	6046.3	
717.56	4676.9	
717.74	3878.9	
717.92	3458.3	
718.1	5479.7	
718.29	4980	
718.47	3176.4	
718.65	3544.4	
718.83	5453.1	
719.01	5315.8	
719.2	3138.9	
719.38	3803.8	
719.56	5146.5	
719.74	6032.6	
719.92	3576.4	
720.11	4166.9	
720.29	5268.7	
720.47	4705.5	
720.65	3289	
720.83	3768.9	
721.02	4928.8	
721.2	4789.5	
721.38	3822.9	
721.56	3389.4	
721.74	4527.4	
721.92	4476.9	
722.11	4084.3	
722.29	3869.3	
722.47	5315.8	
722.65	4842.1	
722.83	3370.3	
723.01	3839.3	
723.2	4812	
723.38	5074.9	
723.56	3044	
723.74	3756.7	
723.92	4587.4	
724.1	5218.2	
724.29	3337.5	
724.47	4018.1	
724.65	4731.5	
724.83	4529.4	
725.01	3287	
725.19	3767.6	
725.37	4629.1	
725.56	4590.2	
725.74	3261.7	
725.92	3338.9	
726.1	4584	
726.28	4809.3	
726.46	3595.6	
726.64	3435.8	
726.83	4851.6	
727.01	4934.9	
727.19	3196.2	
727.37	3706.1	
727.55	4874.2	
727.73	5151.3	
727.91	3170.3	
728.09	3091.1	
728.28	5148.6	
728.46	5235.3	
728.64	3740.3	
728.82	3689.8	
729	5767.8	
729.18	5395	
729.36	3223.5	
729.54	4543.1	
729.72	5941.2	
729.91	4965	
730.09	4429.8	
730.27	3622.9	
730.45	4896.7	
730.63	5265.3	
730.81	3947.8	
730.99	3471.3	
731.17	5636.7	
731.35	4666	
731.53	3700	
731.71	3544.4	
731.9	5406	
732.08	5454.4	
732.26	3699.3	
732.44	3466.5	
732.62	5530.9	
732.8	5246.9	
732.98	3958.7	
733.16	3422.2	
733.34	5265.3	
733.52	4422.2	
733.7	3732.1	
733.88	3751.9	
734.07	5156.8	
734.25	5049.6	
734.43	3407.1	
734.61	4246.1	
734.79	5854.5	
734.97	4997	
735.15	3442	
735.33	3657	
735.51	5137	
735.69	5010.7	
735.87	4246.8	
736.05	3725.9	
736.23	5037.3	
736.41	4820.9	
736.59	3601	
736.77	3691.8	
736.95	5324	
737.13	4887.1	
737.32	3420.8	
737.5	3520.5	
737.68	5734.3	
737.86	4904.2	
738.04	3350.5	
738.22	4413.4	
738.4	4803.2	
738.58	5063.9	
738.76	3730.7	
738.94	3135.4	
739.12	4952.7	
739.3	4853	
739.48	4100	
739.66	3836.5	
739.84	5069.4	
740.02	5003.9	
740.2	3197.6	
740.38	3323.9	
740.56	5231.2	
740.74	4464.6	
740.92	3793.5	
741.1	3652.2	
741.28	4970.4	
741.46	4762.9	
741.64	3500	
741.82	3841.3	
742	5012.7	
742.18	4820.9	
742.36	3639.2	
742.54	3429.7	
742.72	5323.4	
742.9	4506.9	
743.08	3770.3	
743.26	3122.5	
743.44	5286.5	
743.62	5209.3	
743.8	3953.9	
743.98	3371	
744.16	5132.2	
744.34	4884.4	
744.52	3860.4	
744.7	3865.9	
744.88	5276.9	
745.06	4891.9	
745.24	3941	
745.42	3993.5	
745.6	5264	
745.78	5143.8	
745.96	3228.3	
746.14	3388	
746.32	5744.6	
746.5	5174.5	
746.68	3670.6	
746.86	3394.8	
747.03	5406	
747.21	4474.8	
747.39	3738.9	
747.57	3404.4	
747.75	4992.9	
747.93	5180.7	
748.11	3307.5	
748.29	3319.8	
748.47	5978	
748.65	4798.4	
748.83	3747.1	
749.01	3620.8	
749.19	5137.7	
749.37	4542.4	
749.55	3591.5	
749.73	3630.4	
749.91	5014.8	
750.09	4830.5	
750.26	3700	
750.44	3282.9	
750.62	4956.8	
750.8	4912.4	
750.98	3230.3	
751.16	3430.3	
751.34	5098.1	
751.52	4628.4	
751.7	3852.9	
751.88	3197.6	
752.06	5323.4	
752.24	5031.2	
752.42	3197.6	
752.59	3390.1	
752.77	4955.4	
752.95	5683.8	
753.13	3835.2	
753.31	3435.8	
753.49	4700.8	
753.67	4984.1	
753.85	3622.9	
754.03	3354.6	
754.21	5225.1	
754.38	5325.4	
754.56	3393.5	
754.74	2961.4	
754.92	4668.7	
755.1	5024.3	
755.28	2894.5	
755.46	2912.9	
755.64	5588.2	
755.82	5631.2	
755.99	3096.5	
756.17	3134.8	
756.35	4025.6	
756.53	5018.2	
756.71	2474.6	
756.89	3241.3	
757.07	4687.8	
757.25	4151.2	
757.42	3263.1	
757.6	3818.8	
757.78	4779.3	
757.96	4249.5	
758.14	3153.2	
758.32	2906.1	
758.5	3858.4	
758.67	4633.2	
758.85	2972.3	
759.03	3121.1	
759.21	4597.7	
759.39	4233.8	
759.57	2769.5	
759.75	3440.6	
759.92	4956.8	
760.1	4565.6	
760.28	3634.5	
760.46	3796.3	
760.64	4418.8	
760.82	4298.7	
760.99	3463.8	
761.17	3087.7	
761.35	4923.3	
761.53	4174.4	
761.71	3225.6	
761.89	3528.7	
762.06	4811.4	
762.24	4513.7	
762.42	3284.3	
762.6	3116.3	
762.78	4465.3	
762.96	4872.8	
763.13	3488.4	
763.31	3233.1	
763.49	4953.4	
763.67	4437.9	
763.85	3727.3	
764.02	4074.1	
764.2	5195.7	
764.38	4504.2	
764.56	3232.4	
764.74	3705.5	
764.91	5163.6	
765.09	4546.5	
765.27	3036.5	
765.45	2891.7	
765.63	5332.2	
765.8	5079.6	
765.98	2800.3	
766.16	2922.5	
766.34	4272.7	
766.52	4196.3	
766.69	3451.5	
766.87	2851.5	
767.05	4548.5	
767.23	5003.9	
767.41	3020.1	
767.58	3178.4	
767.76	4879.6	
767.94	4908.3	
768.12	3121.1	
768.29	3540.3	
768.47	4498	
768.65	5013.4	
768.83	2854.9	
769	3504.8	
769.18	4328	
769.36	4665.3	
769.54	3513.6	
769.72	2897.2	
769.89	4992.9	
770.07	4924.7	
770.25	3116.3	
770.43	3792.8	
770.6	5356.1	
770.78	5560.9	
770.96	3254.2	
771.14	3544.4	
771.31	4915.8	
771.49	4478.9	
771.67	2715.6	
771.85	2839.8	
772.02	3977.2	
772.2	4388.1	
772.38	3287	
772.55	2931.3	
772.73	4646.2	
772.91	4489.1	
773.09	3198.9	
773.26	3287	
773.44	4610.7	
773.62	4453.6	
773.8	2922.5	
773.97	2765.4	
774.15	4606.6	
774.33	4482.3	
774.5	2881.5	
774.68	3099.3	
774.86	4662.5	
775.04	4453.6	
775.21	2899.2	
775.39	2893.1	
775.57	4628.4	
775.74	4739	
775.92	2757.2	
776.1	2635.1	
776.27	4547.9	
776.45	5350	
776.63	2921.8	
776.81	2664.4	
776.98	4430.4	
777.16	4962.2	
777.34	2958.6	
777.51	3122.5	
777.69	4371	
777.87	4187.4	
778.04	3033	
778.22	3327.9	
778.4	4237.2	
778.57	4627.7	
778.75	2583.9	
778.93	2801.6	
779.1	4206.5	
779.28	3966.2	
779.46	2582.5	
779.64	2807.1	
779.81	4821.6	
779.99	5227.8	
780.17	3306.1	
780.34	3392.8	
780.52	4463.2	
780.69	4517.1	
780.87	2998.9	
781.05	2769.5	
781.22	4485.1	
781.4	4453.6	
781.58	2848.7	
781.75	2328.5	
781.93	4550.6	
782.11	4033.1	
782.28	3467.2	
782.46	2854.9	
782.64	4002.4	
782.81	4611.3	
782.99	2944.3	
783.17	2841.2	
783.34	4478.2	
783.52	4179.2	
783.69	3037.1	
783.87	3543	
784.05	4158.7	
784.22	4103.4	
784.4	3448.1	
784.58	3099.3	
784.75	4762.9	
784.93	4244.8	
785.1	2843.3	
785.28	3175	
785.46	4538.3	
785.63	4090.5	
785.81	2903.3	
785.99	2723.1	
786.16	4289.8	
786.34	4405.9	
786.51	2784.6	
786.69	3133.4	
786.87	3934.1	
787.04	4258.4	
787.22	2738.8	
787.39	3263.1	
787.57	4104.1	
787.75	4759.5	
787.92	3456.3	
788.1	3323.9	
788.27	4057	
788.45	3852.2	
788.63	3192.8	
788.8	2440.5	
788.98	4436.6	
789.15	3844	
789.33	2506.7	
789.5	2854.9	
789.68	4659.8	
789.86	4706.9	
790.03	3154.6	
790.21	2779.8	
790.38	4735.6	
790.56	4178.5	
790.73	2790	
790.91	2680.1	
791.09	4119.8	
791.26	4537.6	
791.44	2910.8	
791.61	2521	
791.79	4141	
791.96	4125.3	
792.14	2589.3	
792.32	2392.7	
792.49	4067.3	
792.67	4191.5	
792.84	2697.2	
793.02	2554.5	
793.19	4431.8	
793.37	4797	
793.54	2362	
793.72	2591.4	
793.89	4817.5	
794.07	4055.7	
794.25	2983.2	
794.42	2458.9	
794.6	4719.9	
794.77	4457.1	
794.95	3075.4	
795.12	2762.7	
795.3	4100.7	
795.47	4442	
795.65	3016	
795.82	2930	
796	4001	
796.17	5091.3	
796.35	2809.1	
796.52	3293.8	
796.7	4481.6	
796.87	4501.4	
797.05	2831.7	
797.22	3380.5	
797.4	4506.9	
797.57	5045.5	
797.75	2881.5	
797.92	2749.7	
798.1	4657.8	
798.27	3975.8	
798.45	2495.8	
798.62	2605.7	
798.8	4325.3	
798.97	4603.2	
799.15	3007.1	
799.32	2946.3	
799.5	3833.1	
799.67	4269.3	
799.85	3097.2	
800.02	2433	
800.2	4106.9	
800.37	4239.3	
800.55	3179.8	
800.72	2780.5	
800.9	4620.2	
801.07	4786.8	
801.25	3536.2	
801.42	2920.4	
801.6	4637.3	
801.77	4291.2	
801.95	2859	
802.12	2691.7	
802.29	4367.6	
802.47	4321.2	
802.64	3054.9	
802.82	2381.1	
802.99	4155.3	
803.17	4615.4	
803.34	2913.6	
803.52	2635.1	
803.69	5063.9	
803.87	3904.1	
804.04	2951.1	
804.21	2966.1	
804.39	4807.9	
804.56	4178.5	
804.74	2556.5	
804.91	3011.2	
805.09	4109.6	
805.26	4147.8	
805.44	2595.5	
805.61	2751.1	
805.78	4558.1	
805.96	4453.6	
806.13	2954.5	
806.31	3170.3	
806.48	3803.8	
806.66	4124.6	
806.83	3018.7	
807	2945	
807.18	4097.3	
807.35	4263.2	
807.53	2874.7	
807.7	2470.5	
807.87	4764.3	
808.05	4065.2	
808.22	3166.2	
808.4	2407.7	
808.57	4040.6	
808.74	3837.9	
808.92	2770.2	
809.09	3336.1	
809.27	4154	
809.44	4383.3	
809.61	2469.2	
809.79	2701.3	
809.96	4904.9	
810.14	4456.4	
810.31	2465.1	
810.48	3080.8	
810.66	4111	
810.83	4514.4	
811.01	2757.9	
811.18	2942.2	
811.35	4500.1	
811.53	3717.1	
811.7	3239.2	
811.87	2975	
812.05	4224.3	
812.22	4094.6	
812.39	2702	
812.57	2587.9	
812.74	4163.5	
812.92	5130.8	
813.09	2894.5	
813.26	2990.7	
813.44	4972.5	
813.61	3988.1	
813.78	2452.8	
813.96	3103.4	
814.13	4162.8	
814.3	3933.5	
814.48	3323.9	
814.65	2848.7	
814.82	4886.5	
815	3893.9	
815.17	2927.9	
815.34	3433.1	
815.52	4046.1	
815.69	4029.7	
815.87	2801.6	
816.04	2768.9	
816.21	4059.8	
816.38	3813.3	
816.56	2851.5	
816.73	2625.5	
816.9	5014.8	
817.08	4481.6	
817.25	2702.6	
817.42	3190.7	
817.6	3820.8	
817.77	4015.4	
817.94	2909.5	
818.12	2638.5	
818.29	4010.6	
818.46	5459.9	
818.64	2783.2	
818.81	2593.4	
818.98	3956.7	
819.16	5187.5	
819.33	3075.4	
819.5	2905.4	
819.67	4301.4	
819.85	4718.5	
820.02	2893.1	
820.19	3052.8	
820.37	4277.5	
820.54	4027	
820.71	2927.9	
820.88	3512.3	
821.06	4221.5	
821.23	3956	
821.4	2957.3	
821.58	2945.7	
821.75	4444.1	
821.92	4222.9	
822.09	2501.9	
822.27	2532	
822.44	4091.2	
822.61	4004.5	
822.79	2532	
822.96	4334.2	
823.13	4255	
823.3	3899.3	
823.48	2764.1	
823.65	2504.7	
823.82	4659.1	
823.99	3873.4	
824.17	3454.2	
824.34	2562.7	
824.51	5110.4	
824.68	4128	
824.86	2680.1	
825.03	2911.5	
825.2	4162.8	
825.37	4731.5	
825.55	2691	
825.72	2919	
825.89	5063.3	
826.06	4776.5	
826.24	2891.7	
826.41	2822.8	
826.58	4782.7	
826.75	4305.5	
826.92	2396.1	
827.1	2577.7	
827.27	6074.3	
827.44	4953.4	
827.61	2686.3	
827.79	3173	
827.96	4039.3	
828.13	4053.6	
828.3	2828.2	
828.47	2452.1	
828.65	4397.7	
828.82	4340.3	
828.99	3377.8	
829.16	3038.5	
829.34	4581.3	
829.51	4535.6	
829.68	2849.4	
829.85	2930	
830.02	4934.9	
830.2	4628.4	
830.37	2305.3	
830.54	3319.8	
830.71	5050.3	
830.88	4162.8	
831.05	2315.6	
831.23	2603	
831.4	5012.1	
831.57	5210	
831.74	2699.9	
831.91	2399.5	
832.09	4480.3	
832.26	4575.2	
832.43	2762	
832.6	2985.9	
832.77	4387.4	
832.94	4811.4	
833.12	2336.7	
833.29	2747	
833.46	4377.9	
833.63	5369.8	
833.8	2942.2	
833.97	2757.9	
834.15	4693.9	
834.32	4445.5	
834.49	2862.4	
834.66	2850.1	
834.83	4631.8	
835	4043.4	
835.17	2688.3	
835.35	2667.8	
835.52	4543.8	
835.69	4402.5	
835.86	2788.7	
836.03	2408.4	
836.2	4584	
836.37	4365.6	
836.55	2775	
836.72	2615.9	
836.89	4295.3	
837.06	4631.8	
837.23	2773.6	
837.4	2976.4	
837.57	5028.4	
837.75	5423.7	
837.92	2532	
838.09	2704.7	
838.26	4331.5	
838.43	4695.3	
838.6	2910.2	
838.77	2597.5	
838.94	5171.1	
839.11	5096.7	
839.29	2768.9	
839.46	2218.6	
839.63	4618.9	
839.8	4394.9	
839.97	2711.5	
840.14	2677.4	
840.31	4504.2	
840.48	4580.6	
840.65	2312.2	
840.82	2667.8	
841	4536.3	
841.17	4418.8	
841.34	2501.3	
841.51	2547.7	
841.68	4532.2	
841.85	4381.3	
842.02	2589.3	
842.19	2257.5	
842.36	4462.5	
842.53	4451.6	
842.7	2579.8	
842.87	2936.1	
843.05	5423.7	
843.22	4317.1	
843.39	2399.5	
843.56	2560.6	
843.73	4259.1	
843.9	4651.6	
844.07	3792.2	
844.24	3152.5	
844.41	5933	
844.58	4059.8	
844.75	2489	
844.92	2565.4	
845.09	4482.3	
845.26	4543.8	
845.43	2519.7	
845.6	2605.7	
845.77	4571.7	
845.94	4366.3	
846.12	2731.3	
846.29	2835.8	
846.46	4765.6	
846.63	4521.9	
846.8	2463.7	
846.97	2874.7	
847.14	4832.5	
847.31	4539	
847.48	2749.1	
847.65	2998.9	
847.82	4592.9	
847.99	4627	
848.16	3139.5	
848.33	2973.7	
848.5	4240	
848.67	4810.7	
848.84	2449.4	
849.01	2580.4	
849.18	4239.3	
849.35	4016.7	
849.52	2984.6	
849.69	2407.7	
849.86	4696	
850.03	4688.5	
850.2	2478.7	
850.37	2932.7	
850.54	4646.8	
850.71	4306.9	
850.88	2893.8	
851.05	2426.2	
851.22	4508.3	
851.39	4879.6	
851.56	2368.8	
851.73	2796.8	
851.9	4145.1	
852.07	4702.8	
852.24	2695.1	
852.41	2484.2	
852.58	4539.7	
852.75	4157.4	
852.92	2757.9	
853.09	2449.4	
853.26	4158.1	
853.43	4774.5	
853.6	2530.6	
853.77	2211.1	
853.94	4899.4	
854.11	4060.4	
854.28	3440.6	
854.44	2655.5	
854.61	5081.7	
854.78	4747.2	
854.95	2463.7	
855.12	2955.2	
855.29	3816.7	
855.46	4988.9	
855.63	2495.8	
855.8	3235.1	
855.97	4232.5	
856.14	4713.7	
856.31	3304.7	
856.48	2662.4	
856.65	4318.5	
856.82	4062.5	
856.99	2399.5	
857.16	2680.8	
857.33	5260.5	
857.49	4376.5	
857.66	2658.9	
857.83	2805	
858	4414.1	
858.17	4482.3	
858.34	2347.7	
858.51	2488.3	
858.68	4874.2	
858.85	4943.1	
859.02	2812.5	
859.19	2950.4	
859.36	4115.1	
859.52	4037.9	
859.69	2514.2	
859.86	2888.3	
860.03	4096.6	
860.2	4864.6	
860.37	2365.4	
860.54	2559.3	
860.71	4634.6	
860.88	4903.5	
861.05	2734.7	
861.21	3084.2	
861.38	4846.9	
861.55	3936.9	
861.72	2323.1	
861.89	2738.1	
862.06	4688.5	
862.23	4973.8	
862.4	2428.9	
862.56	2534.7	
862.73	4620.9	
862.9	4362.2	
863.07	2828.9	
863.24	2351.8	
863.41	4031.8	
863.58	4130.1	
863.75	2511.5	
863.91	2818.7	
864.08	4766.3	
864.25	4590.2	
864.42	2990	
864.59	3336.1	
864.76	5117.2	
864.93	4048.2	
865.09	2405.7	
865.26	2696.5	
865.43	4829.1	
865.6	5051.7	
865.77	2226.8	
865.94	2439.8	
866.1	4814.8	
866.27	4553.3	
866.44	3453.6	
866.61	2387.9	
866.78	4313	
866.95	4624.3	
867.11	2424.1	
867.28	2276	
867.45	4797.7	
867.62	4009.2	
867.79	2882.2	
867.96	2499.9	
868.12	4072	
868.29	4702.8	
868.46	2506	
868.63	3205.1	
868.8	4732.9	
868.97	4591.5	
869.13	2570.9	
869.3	2562.7	
869.47	4564.2	
869.64	4753.3	
869.81	2489	
869.97	2529.9	
870.14	4438.6	
870.31	4874.2	
870.48	2412.5	
870.65	3041.2	
870.81	4287.8	
870.98	4354.7	
871.15	2753.2	
871.32	2600.9	
871.48	4552	
871.65	4872.8	
871.82	2433.7	
871.99	2721.1	
872.16	5173.2	
872.32	4889.2	
872.49	2566.8	
872.66	2477.4	
872.83	4683.7	
872.99	4197	
873.16	2770.9	
873.33	2420.7	
873.5	4430.4	
873.67	4490.5	
873.83	2577.7	
874	3233.1	
874.17	4543.8	
874.34	5071.5	
874.5	3086.3	
874.67	2921.8	
874.84	4804.5	
875.01	3909.6	
875.17	3318.4	
875.34	2493.1	
875.51	4468.7	
875.68	5253.7	
875.84	2917.7	
876.01	3401	
876.18	4591.5	
876.34	4586.1	
876.51	2490.3	
876.68	2435.7	
876.85	4301.4	
877.01	4891.2	
877.18	3341.6	
877.35	2467.8	
877.52	4521.9	
877.68	4124.6	
877.85	2484.2	
878.02	2488.3	
878.18	4231.8	
878.35	4224.3	
878.52	2070.5	
878.69	2827.6	
878.85	4775.2	
879.02	4605.9	
879.19	3377.8	
879.35	2638.5	
879.52	4643.4	
879.69	4695.3	
879.86	2228.9	
880.02	2723.8	
880.19	4429.8	
880.36	5099.4	
880.52	2745.6	
880.69	2837.1	
880.86	4668.7	
881.02	4709.6	
881.19	2684.9	
881.36	2604.3	
881.52	4603.2	
881.69	4175.1	
881.86	2646	
882.02	2583.9	
882.19	4807.3	
882.36	5358.9	
882.52	2573.6	
882.69	3338.2	
882.86	4496	
883.02	4521.9	
883.19	2923.1	
883.36	2703.3	
883.52	4700.1	
883.69	5175.9	
883.86	2575.7	
884.02	2344.2	
884.19	4619.5	
884.36	4481	
884.52	2695.8	
884.69	2694.4	
884.86	4300.7	
885.02	4933.6	
885.19	2738.1	
885.36	2781.1	
885.52	4320.5	
885.69	4491.9	
885.86	3387.3	
886.02	3020.1	
886.19	4704.2	
886.35	4275.5	
886.52	2688.3	
886.69	3247.4	
886.85	4072	
887.02	4800.4	
887.19	4800.4	
887.35	4800.4	
887.52	4800.4	
887.68	4800.4	
887.85	4800.4	
888.02	4800.4	
888.18	4800.4	
888.35	4800.4	
888.51	4800.4	
888.68	4800.4	
888.85	4800.4	
889.01	4800.4	
889.18	4800.4	
889.35	4800.4	
889.51	4800.4	
889.68	4800.4	
889.84	4800.4	
890.01	4800.4	
890.17	4800.4	
890.34	4800.4	
890.51	4800.4	
890.67	4800.4	
890.84	4800.4	
891	4800.4	
891.17	4800.4	
891.34	4800.4	
891.5	4800.4	
891.67	4800.4	
891.83	4800.4	
892	4800.4	
892.16	4800.4	
892.33	4800.4	
892.5	4800.4	
892.66	4800.4	
892.83	4800.4	
892.99	4800.4	
893.16	4800.4	
893.32	4800.4	
893.49	4800.4	
893.65	4800.4	
893.82	4800.4	
893.99	4800.4	
894.15	4800.4	
894.32	4800.4	
894.48	4800.4	
894.65	4800.4	
894.81	4800.4	
894.98	4800.4	
895.14	4800.4	
895.31	4800.4	
895.47	4800.4	
895.64	4800.4	
895.81	4800.4	
895.97	4800.4	
896.14	4800.4	
896.3	4800.4	
896.47	4800.4	
896.63	4800.4	
896.8	4800.4	
896.96	4800.4	
897.13	4800.4	
897.29	4800.4	
897.46	4800.4	
897.62	4800.4	
897.79	4800.4	
897.95	4800.4	
898.12	4800.4	
898.28	4800.4	
898.45	4800.4	
898.61	4800.4	
898.78	4800.4	
898.94	4800.4	
899.11	4800.4	
899.27	4800.4	
899.44	4800.4	
899.6	4800.4	
899.77	4800.4	
899.93	4800.4	
900.1	4800.4	
900.26	4800.4	
900.43	4800.4	
900.59	4800.4	
900.76	4800.4	
900.92	4800.4	
901.09	4800.4	
901.25	4800.4	
901.42	4800.4	
901.58	4800.4	
901.75	4800.4	
901.91	4800.4	
902.07	4800.4	
902.24	4800.4	
902.4	4800.4	
902.57	4800.4	
902.73	4800.4	
902.9	4800.4	
903.06	4800.4	
903.23	4800.4	
903.39	4800.4	
903.56	4800.4	
903.72	4800.4	
903.88	4800.4	
904.05	4800.4	
904.21	4800.4	
904.38	4800.4	
904.54	4800.4	
904.71	4800.4	
904.87	4800.4	
905.03	4800.4	
905.2	4800.4	
905.36	4800.4	
905.53	4800.4	
905.69	4800.4	
905.86	4800.4	
906.02	4800.4	
906.18	4800.4	
906.35	4800.4	
906.51	4800.4	
906.68	4800.4	
906.84	4800.4	
907.01	4800.4	
907.17	4800.4	
907.33	4800.4	
907.5	4800.4	
907.66	4800.4	
907.83	4800.4	
907.99	4800.4	
908.15	4800.4	
908.32	4800.4	
908.48	4800.4	
908.65	4800.4	
908.81	4800.4	
908.97	4800.4	
909.14	4800.4	
909.3	4800.4	
909.47	4800.4	
909.63	4800.4	
909.79	4800.4	
909.96	4800.4	
910.12	4800.4	
910.28	4800.4	
910.45	4800.4	
910.61	4800.4	
910.78	4800.4	
910.94	4800.4	
911.1	4800.4	
911.27	4800.4	
911.43	4800.4	
911.59	4800.4	
911.76	4800.4	
911.92	4800.4	
912.08	4800.4	
912.25	4800.4	
912.41	4800.4	
912.57	4800.4	
912.74	4800.4	
912.9	4800.4	
913.07	4800.4	
913.23	4800.4	
913.39	4800.4	
913.56	4800.4	
913.72	4800.4	
913.88	4800.4	
914.05	4800.4	
914.21	4800.4	
914.37	4800.4	
914.54	4800.4	
914.7	4800.4	
914.86	4800.4	
915.03	4800.4	
915.19	4800.4	
