Wavelength	Intensities	
nm	a.u.	
179.22	1904.6	
179.44	1908.7	
179.65	1900.5	
179.86	1916.9	
180.08	1867.1	
180.29	4874.2	
180.51	3458.3	
180.72	5552.7	
180.94	6454.5	
181.15	3218.7	
181.37	3142.3	
181.58	5375.2	
181.79	5679	
182.01	3344.3	
182.22	3543	
182.44	5665.4	
182.65	4804.5	
182.87	4471.4	
183.08	3971	
183.29	6021.7	
183.51	4923.3	
183.72	3646.1	
183.94	5248.3	
184.15	5332.9	
184.37	5332.2	
184.58	3171.6	
184.79	4351.3	
185.01	4928.8	
185.22	5655.8	
185.44	4558.8	
185.65	3853.6	
185.86	5241.4	
186.08	4816.1	
186.29	3087.7	
186.51	3362.8	
186.72	4970.4	
186.94	5858.6	
187.15	3777.1	
187.36	3930.1	
187.58	7626	
187.79	5376.6	
188.01	4124.6	
188.22	6399.2	
188.43	6570.6	
188.65	5644.2	
188.86	3290.4	
189.08	3999	
189.29	5141.8	
189.5	5136.3	
189.72	3674.7	
189.93	3717.1	
190.15	5849	
190.36	7036.1	
190.57	4065.9	
190.79	3915	
191	5945.9	
191.22	5929.6	
191.43	4014	
191.64	3296.5	
191.86	6122.1	
192.07	5925.5	
192.29	3461.7	
192.5	3647.4	
192.71	5851.7	
192.93	5025	
193.14	3650.2	
193.35	3744.4	
193.57	5100.8	
193.78	5831.9	
194	2963.4	
194.21	3595.6	
194.42	4925.4	
194.64	5382.7	
194.85	3977.2	
195.07	4648.2	
195.28	5440.1	
195.49	4687.8	
195.71	4855.1	
195.92	3409.2	
196.13	5543.9	
196.35	5719.3	
196.56	5210	
196.78	4007.2	
196.99	6928.3	
197.2	6496.2	
197.42	4465.3	
197.63	3972.4	
197.84	4774.5	
198.06	5506.3	
198.27	3734.1	
198.48	4873.5	
198.7	5185.5	
198.91	5281	
199.13	3985.3	
199.34	3974.4	
199.55	5769.8	
199.77	4629.8	
199.98	3516.4	
200.19	4014	
200.41	5177.3	
200.62	4985.4	
200.83	4165.6	
201.05	4388.8	
201.26	5266	
201.47	5030.5	
201.69	3510.2	
201.9	3383.2	
202.11	5356.8	
202.33	6309.1	
202.54	3855.6	
202.76	4222.9	
202.97	5399.1	
203.18	5455.1	
203.4	4146.5	
203.61	4091.8	
203.82	5427.1	
204.04	5004.6	
204.25	4031.8	
204.46	3904.8	
204.68	5364.3	
204.89	5608	
205.1	3899.3	
205.32	3427.6	
205.53	5711.1	
205.74	5913.9	
205.96	2919	
206.17	4059.1	
206.38	5732.9	
206.6	5832.6	
206.81	4580.6	
207.02	3754.6	
207.24	5553.4	
207.45	5995.1	
207.66	3814	
207.88	3231.7	
208.09	5499.5	
208.3	5332.2	
208.52	3445.4	
208.73	3885	
208.94	5345.9	
209.15	6042.9	
209.37	3796.3	
209.58	3996.3	
209.79	5887.2	
210.01	5154.1	
210.22	3003.7	
210.43	3158	
210.65	5323.4	
210.86	5747.3	
211.07	3786	
211.29	3494.5	
211.5	5667.4	
211.71	5293.3	
211.93	3501.3	
212.14	3480.9	
212.35	5270.8	
212.56	5470.8	
212.78	3991.5	
212.99	3288.4	
213.2	6285.9	
213.42	5115.8	
213.63	3575.1	
213.84	3869.3	
214.06	4784.1	
214.27	4847.5	
214.48	3814	
214.69	4043.4	
214.91	6004	
215.12	6103.6	
215.33	4097.3	
215.55	4562.2	
215.76	6584.9	
215.97	5730.2	
216.18	3909.6	
216.4	3835.8	
216.61	5006.6	
216.82	5801.2	
217.04	3451.5	
217.25	3649.5	
217.46	6008.7	
217.67	5753.4	
217.89	3170.9	
218.1	3271.3	
218.31	5463.3	
218.53	5497.4	
218.74	3633.8	
218.95	3583.9	
219.16	5270.8	
219.38	6206.7	
219.59	3535.5	
219.8	4294.6	
220.01	6858	
220.23	5387.5	
220.44	4655	
220.65	3502	
220.87	5448.3	
221.08	5964.4	
221.29	3224.2	
221.5	4388.8	
221.72	7365.9	
221.93	5033.2	
222.14	4029	
222.35	4713.1	
222.57	5414.1	
222.78	5692.7	
222.99	3801	
223.2	4093.9	
223.42	5665.4	
223.63	5799.8	
223.84	2998.2	
224.05	2937.5	
224.27	6840.2	
224.48	6220.4	
224.69	4732.2	
224.9	4045.4	
225.12	5573.2	
225.33	5255.1	
225.54	3211.9	
225.75	3560.7	
225.97	4937	
226.18	5229.8	
226.39	3876.8	
226.6	3583.9	
226.82	5090.6	
227.03	4962.2	
227.24	4001.7	
227.45	3332.7	
227.67	5676.3	
227.88	6283.2	
228.09	4457.1	
228.3	4478.2	
228.52	5743.2	
228.73	5267.4	
228.94	3758.7	
229.15	3298.6	
229.36	5292.6	
229.58	5226.4	
229.79	3754.6	
230	4313	
230.21	6417	
230.43	5425.1	
230.64	3976.5	
230.85	4155.3	
231.06	5786.9	
231.28	5769.1	
231.49	3311.6	
231.7	3926.6	
231.91	5700.2	
232.12	5410.7	
232.34	3398.9	
232.55	3848.1	
232.76	5980.1	
232.97	5539.8	
233.18	3523.9	
233.4	3931.4	
233.61	5563.6	
233.82	5216.9	
234.03	3679.5	
234.25	3592.8	
234.46	7405.5	
234.67	5430.5	
234.88	4057	
235.09	3558.7	
235.31	5696.8	
235.52	5246.2	
235.73	3952.6	
235.94	3337.5	
236.15	5102.2	
236.37	6447	
236.58	3519.8	
236.79	3842	
237	5674.2	
237.21	4889.2	
237.43	4070	
237.64	3234.4	
237.85	9650	
238.06	4905.6	
238.27	4202.4	
238.48	3302	
238.7	5658.5	
238.91	5156.8	
239.12	3832.4	
239.33	3893.2	
239.54	4974.5	
239.76	5269.4	
239.97	3809.9	
240.18	3781.2	
240.39	6662.7	
240.6	5644.2	
240.82	3969.6	
241.03	3239.2	
241.24	5395	
241.45	6167.8	
241.66	3509.5	
241.87	4100.7	
242.09	6038.1	
242.3	6433.4	
242.51	4248.2	
242.72	3812.6	
242.93	5807.4	
243.14	5309.7	
243.36	4401.8	
243.57	4766.3	
243.78	6173.3	
243.99	5690.6	
244.2	3867.9	
244.41	3444.7	
244.63	4874.2	
244.84	5625.8	
245.05	4131.4	
245.26	3848.8	
245.47	5630.5	
245.68	5922.7	
245.9	5063.3	
246.11	4046.1	
246.32	5208	
246.53	5607.3	
246.74	6210.8	
246.95	3186.6	
247.16	4796.3	
247.38	5304.2	
247.59	3227.6	
247.8	3842	
248.01	5044.1	
248.22	5287.2	
248.43	3455.6	
248.64	3721.2	
248.86	4728.1	
249.07	5109	
249.28	3338.9	
249.49	3934.1	
249.7	5842.9	
249.91	5991	
250.12	3142.9	
250.34	3235.1	
250.55	5447.6	
250.76	5330.9	
250.97	3932.1	
251.18	4003.1	
251.39	6051.7	
251.6	5500.8	
251.81	4070	
252.03	4023.6	
252.24	5079	
252.45	5879	
252.66	3358	
252.87	4273.4	
253.08	5389.6	
253.29	7027.3	
253.5	3352.5	
253.72	4599.1	
253.93	5199.8	
254.14	6413.6	
254.35	3595.6	
254.56	3751.2	
254.77	5596.4	
254.98	4964.3	
255.19	3551.2	
255.41	4678.9	
255.62	5459.9	
255.83	6014.2	
256.04	4130.8	
256.25	4033.1	
256.46	6552.1	
256.67	5003.9	
256.88	3977.2	
257.09	4393.6	
257.31	5065.3	
257.52	5073.5	
257.73	4917.9	
257.94	3647.4	
258.15	5164.3	
258.36	5348.6	
258.57	4564.9	
258.78	2876.7	
258.99	5778	
259.2	5216.2	
259.41	3673.4	
259.63	3741.6	
259.84	6197.8	
260.05	6624.5	
260.26	4803.9	
260.47	3514.3	
260.68	5911.8	
260.89	5274.9	
261.1	4379.9	
261.31	3448.8	
261.52	5909.1	
261.73	6314.6	
261.95	4725.3	
262.16	4171.7	
262.37	6063.4	
262.58	6167.8	
262.79	4719.9	
263	3737.5	
263.21	5337.7	
263.42	4861.9	
263.63	3781.2	
263.84	3691.8	
264.05	5829.2	
264.26	6260.6	
264.47	4572.4	
264.69	4132.1	
264.9	6033.3	
265.11	5550	
265.32	3506.1	
265.53	3660.4	
265.74	5481.7	
265.95	4781.3	
266.16	3873.4	
266.37	4337.6	
266.58	5494.7	
266.79	5165.7	
267	3622.2	
267.21	3353.9	
267.42	4881.7	
267.63	5341.1	
267.84	3808.5	
268.06	3241.3	
268.27	5765	
268.48	6064.7	
268.69	3726.6	
268.9	4384.7	
269.11	6059.3	
269.32	4836.6	
269.53	3833.1	
269.74	3568.9	
269.95	5693.4	
270.16	4745.8	
270.37	3844.7	
270.58	4407.2	
270.79	5185.5	
271	5880.4	
271.21	4126	
271.42	3877.5	
271.63	5500.8	
271.84	4999.8	
272.05	3087.7	
272.26	3478.1	
272.47	5411.4	
272.68	5614.8	
272.89	3700.7	
273.11	4268.6	
273.32	5174.5	
273.53	6292	
273.74	4100	
273.95	4033.1	
274.16	5994.4	
274.37	5424.4	
274.58	4250.9	
274.79	3325.2	
275	5483.8	
275.21	6062.7	
275.42	5031.9	
275.63	4332.8	
275.84	5605.3	
276.05	7054.6	
276.26	4089.8	
276.47	3717.7	
276.68	5215.5	
276.89	6363	
277.1	4405.2	
277.31	3414.6	
277.52	5594.4	
277.73	5747.3	
277.94	3315.7	
278.15	3739.6	
278.36	5530.9	
278.57	4986.1	
278.78	3679.5	
278.99	4145.8	
279.2	5010	
279.41	4956.8	
279.62	4833.2	
279.83	3398.9	
280.04	6543.9	
280.25	4955.4	
280.46	4820.9	
280.67	3852.9	
280.88	4941.7	
281.09	6019.7	
281.3	4059.8	
281.51	5163.6	
281.72	5143.1	
281.93	5849	
282.14	3573.7	
282.35	3864.5	
282.56	5830.6	
282.77	5794.4	
282.98	3660.4	
283.19	4510.3	
283.4	7194.5	
283.61	5312.4	
283.82	3449.5	
284.03	4745.8	
284.24	5477	
284.45	6003.3	
284.66	4786.8	
284.87	4566.3	
285.08	5928.2	
285.29	6106.4	
285.5	3209.8	
285.71	3782.6	
285.92	5942.5	
286.12	6586.3	
286.33	4756.1	
286.54	3685.7	
286.75	5834	
286.96	5259.9	
287.17	3430.3	
287.38	4668	
287.59	5019.6	
287.8	4943.8	
288.01	3757.3	
288.22	4334.2	
288.43	5867.4	
288.64	4904.2	
288.85	4427.7	
289.06	4240.7	
289.27	5824.4	
289.48	6265.4	
289.69	4775.2	
289.9	4317.1	
290.11	6045.6	
290.32	5099.4	
290.53	4500.8	
290.74	4151.2	
290.94	5829.2	
291.15	5869.5	
291.36	3657.7	
291.57	4242.7	
291.78	5121.3	
291.99	4810.7	
292.2	3462.4	
292.41	4179.2	
292.62	5939.8	
292.83	5698.1	
293.04	5104.9	
293.25	3493.2	
293.46	5155.4	
293.67	5965.1	
293.88	3556.6	
294.09	3454.9	
294.29	4891.2	
294.5	5472.9	
294.71	3890.5	
294.92	3666.5	
295.13	5176.6	
295.34	6398.5	
295.55	3228.3	
295.76	3353.2	
295.97	5745.2	
296.18	6505	
296.39	3430.3	
296.6	3609.9	
296.81	5425.1	
297.01	5840.1	
297.22	3767.6	
297.43	3532.7	
297.64	4998.4	
297.85	4971.8	
298.06	2955.9	
298.27	3269.2	
298.48	5411.4	
298.69	5053.7	
298.9	3843.4	
299.11	3497.2	
299.31	4929.5	
299.52	4891.9	
299.73	4194.9	
299.94	4072.7	
300.15	5374.6	
300.36	5014.1	
300.57	4101.4	
300.78	4035.2	
300.99	5201.2	
301.2	5485.8	
301.4	3586.7	
301.61	3882.9	
301.82	5672.9	
302.03	5783.5	
302.24	4371.7	
302.45	3410.6	
302.66	5622.4	
302.87	6107.7	
303.08	3611.9	
303.29	4884.4	
303.49	5134.9	
303.7	5347.2	
303.91	3196.9	
304.12	4702.8	
304.33	4895.3	
304.54	5414.1	
304.75	3627.6	
304.96	3427.6	
305.16	5722	
305.37	6445	
305.58	3173.7	
305.79	3261.7	
306	5627.1	
306.21	4759.5	
306.42	3616	
306.63	5492.7	
306.83	5216.2	
307.04	5922	
307.25	3971	
307.46	3943.7	
307.67	4614.8	
307.88	5859.2	
308.09	3524.6	
308.29	3738.9	
308.5	5479	
308.71	5917.3	
308.92	3903.4	
309.13	3446.7	
309.34	5223.7	
309.55	5336.3	
309.75	4469.4	
309.96	4121.2	
310.17	5763.7	
310.38	5071.5	
310.59	4338.3	
310.8	3402.4	
311.01	5259.9	
311.21	5255.1	
311.42	3409.9	
311.63	3528.7	
311.84	5118.6	
312.05	5504.3	
312.26	3976.5	
312.46	4407.9	
312.67	5221	
312.88	4922.6	
313.09	3490.4	
313.3	3408.5	
313.51	6128.2	
313.71	6480.5	
313.92	3465.2	
314.13	3633.8	
314.34	5592.3	
314.55	5286.5	
314.76	4428.4	
314.96	3943	
315.17	5467.4	
315.38	5717.9	
315.59	3487	
315.8	3333.4	
316.01	6206	
316.21	6267.5	
316.42	3323.2	
316.63	3803.8	
316.84	5269.4	
317.05	6082.5	
317.26	4156	
317.46	3635.1	
317.67	5341.8	
317.88	5755.5	
318.09	4457.1	
318.3	3244.7	
318.5	5079	
318.71	5689.3	
318.92	5700.2	
319.13	4126	
319.34	5855.8	
319.54	6013.5	
319.75	3198.9	
319.96	3104.7	
320.17	5741.8	
320.38	5982.8	
320.58	3152.5	
320.79	3895.2	
321	5959.6	
321.21	6029.2	
321.42	3901.4	
321.62	3179.1	
321.83	5001.1	
322.04	5415.5	
322.25	3659	
322.46	3512.3	
322.66	5471.5	
322.87	5590.3	
323.08	4317.1	
323.29	3427.6	
323.5	6417.7	
323.7	4982	
323.91	4776.5	
324.12	4231.8	
324.33	5451.7	
324.53	5705.6	
324.74	4144.4	
324.95	4346.5	
325.16	4803.2	
325.37	5203.9	
325.57	3484.3	
325.78	3556.6	
325.99	5437.4	
326.2	4927.4	
326.4	4890.5	
326.61	3220.8	
326.82	5343.8	
327.03	5516.5	
327.24	4932.2	
327.44	4645.5	
327.65	5631.9	
327.86	4561.5	
328.07	4100.7	
328.27	3315.7	
328.48	6010.8	
328.69	4989.5	
328.9	4965	
329.1	3745.1	
329.31	5262.6	
329.52	6164.4	
329.73	3497.2	
329.93	3877.5	
330.14	5341.8	
330.35	5606.7	
330.56	5745.2	
330.76	4324.6	
330.97	5199.1	
331.18	5550.7	
331.39	3898	
331.59	3139.5	
331.8	5956.2	
332.01	6102.9	
332.22	3579.8	
332.42	4130.8	
332.63	5487.2	
332.84	5031.2	
333.05	3938.2	
333.25	3581.2	
333.46	5142.4	
333.67	5382.7	
333.88	3666.5	
334.08	4090.5	
334.29	7196.6	
334.5	6064.7	
334.7	3337.5	
334.91	4948.6	
335.12	4882.4	
335.33	5803.9	
335.53	3895.2	
335.74	5760.9	
335.95	5134.9	
336.16	4960.2	
336.36	3960.8	
336.57	4504.8	
336.78	4859.1	
336.98	5987.6	
337.19	4769	
337.4	3771.7	
337.61	6522.1	
337.81	4891.9	
338.02	3564.1	
338.23	4619.5	
338.43	6160.3	
338.64	5074.9	
338.85	3517.7	
339.05	4591.5	
339.26	6173.3	
339.47	4834.6	
339.68	3528	
339.88	5170.4	
340.09	5591.6	
340.3	5876.3	
340.5	4063.9	
340.71	3111.5	
340.92	4884.4	
341.13	6072.9	
341.33	3382.6	
341.54	4145.1	
341.75	5599.8	
341.95	5273.5	
342.16	3941	
342.37	4250.2	
342.57	4990.9	
342.78	5316.5	
342.99	4402.5	
343.19	3116.3	
343.4	5805.3	
343.61	5634	
343.81	3723.2	
344.02	3424.9	
344.23	5793.7	
344.43	6240.2	
344.64	4346.5	
344.85	4189.5	
345.06	5654.4	
345.26	5982.8	
345.47	3995.6	
345.68	4734.2	
345.88	4742.4	
346.09	5838.8	
346.3	4141	
346.5	3088.3	
346.71	5412.1	
346.92	5084.4	
347.12	3197.6	
347.33	3987.4	
347.54	5926.1	
347.74	6333.7	
347.95	4056.3	
348.16	2955.2	
348.36	5218.9	
348.57	5005.2	
348.78	3988.8	
348.98	4329.4	
349.19	5305.6	
349.39	4887.8	
349.6	3246	
349.81	3558	
350.01	5657.9	
350.22	5048.2	
350.43	3870	
350.63	4655.7	
350.84	5395	
351.05	5204.6	
351.25	3556	
351.46	3172.3	
351.67	5857.2	
351.87	5052.3	
352.08	3812.6	
352.29	4280.9	
352.49	5852.4	
352.7	5898.8	
352.9	3422.2	
353.11	4272.7	
353.32	6500.3	
353.52	5217.5	
353.73	3343.7	
353.94	4325.3	
354.14	5677	
354.35	5521.3	
354.55	3503.4	
354.76	3876.1	
354.97	5588.9	
355.17	5381.4	
355.38	3259.7	
355.59	4608.6	
355.79	5068.7	
356	5409.4	
356.2	3818.1	
356.41	3383.2	
356.62	4814.8	
356.82	5283.1	
357.03	4112.3	
357.24	3710.2	
357.44	5122.7	
357.65	5182	
357.85	4975.2	
358.06	3926.6	
358.27	4833.2	
358.47	5027.8	
358.68	3234.4	
358.88	4123.2	
359.09	5558.9	
359.3	5993.7	
359.5	4821.6	
359.71	4298	
359.91	6468.9	
360.12	5763.7	
360.33	4080.9	
360.53	4586.8	
360.74	5134.9	
360.94	5180.7	
361.15	4291.9	
361.36	3551.9	
361.56	5809.4	
361.77	5306.3	
361.97	4781.3	
362.18	3801	
362.38	5861.3	
362.59	4932.9	
362.8	3510.9	
363	3315.7	
363.21	4745.8	
363.41	5423.7	
363.62	3992.9	
363.83	5011.4	
364.03	5505.6	
364.24	6447.7	
364.44	5074.2	
364.65	5150.6	
364.85	5225.7	
365.06	5184.1	
365.27	3731.4	
365.47	3766.9	
365.68	6283.9	
365.88	5240.8	
366.09	4052.9	
366.29	3746.4	
366.5	5539.1	
366.71	5981.4	
366.91	5080.3	
367.12	4235.9	
367.32	6547.4	
367.53	5829.2	
367.73	4212.7	
367.94	5134.3	
368.14	5707	
368.35	6669.6	
368.56	4224.3	
368.76	3790.1	
368.97	5895.4	
369.17	7511.9	
369.38	3665.9	
369.58	3975.8	
369.79	4923.3	
369.99	6225.8	
370.2	4915.1	
370.4	4009.2	
370.61	5566.4	
370.82	6780.8	
371.02	3960.8	
371.23	3271.3	
371.43	4859.8	
371.64	6172.6	
371.84	3973.7	
372.05	5153.4	
372.25	7488.1	
372.46	5913.2	
372.66	3960.8	
372.87	3996.3	
373.07	5935	
373.28	7497.6	
373.48	5046.9	
373.69	4676.9	
373.9	5421	
374.1	5388.2	
374.31	4881	
374.51	4483	
374.72	6238.8	
374.92	5152	
375.13	5033.2	
375.33	4284.4	
375.54	5786.2	
375.74	5255.8	
375.95	4377.2	
376.15	5606	
376.36	5841.5	
376.56	5682.4	
376.77	4440.7	
376.97	4911	
377.18	6851.8	
377.38	5961	
377.59	5161.6	
377.79	3864.5	
378	5771.2	
378.2	6139.1	
378.41	4017.4	
378.61	3937.6	
378.82	6226.5	
379.02	5382.1	
379.23	4192.9	
379.43	5279.7	
379.64	6272.2	
379.84	5939.1	
380.05	4010.6	
380.25	3949.2	
380.46	6064	
380.66	5606.7	
380.87	5270.1	
381.07	5706.3	
381.28	6704.4	
381.48	5994.4	
381.69	4055	
381.89	4079.6	
382.1	4963.6	
382.3	6163	
382.51	5162.2	
382.71	5961.6	
382.91	6047.7	
383.12	6595.1	
383.32	4380.6	
383.53	4611.3	
383.73	5813.5	
383.94	5704.3	
384.14	4507.6	
384.35	3714.3	
384.55	5644.9	
384.76	6025.8	
384.96	4394.3	
385.17	4687.8	
385.37	6030.6	
385.58	5298.8	
385.78	4668.7	
385.98	3565.5	
386.19	5515.2	
386.39	5842.2	
386.6	4143	
386.8	4381.3	
387.01	5946.6	
387.21	5998.5	
387.42	4781.3	
387.62	5393	
387.83	5351.3	
388.03	5955.5	
388.23	4440.7	
388.44	5191.6	
388.64	5003.9	
388.85	5144.5	
389.05	4684.4	
389.26	5390.9	
389.46	6997.9	
389.67	6452.5	
389.87	4711	
390.07	4732.9	
390.28	5670.8	
390.48	5304.2	
390.69	4037.9	
390.89	4304.1	
391.1	5483.8	
391.3	6378.7	
391.5	5427.8	
391.71	6056.5	
391.91	6016.2	
392.12	7051.2	
392.32	5487.9	
392.53	4832.5	
392.73	5505.6	
392.93	5754.8	
393.14	4461.8	
393.34	5260.5	
393.55	6178.7	
393.75	5647.6	
393.95	4445.5	
394.16	4382	
394.36	5404.6	
394.57	6020.3	
394.77	3943.7	
394.98	4341.7	
395.18	5368.4	
395.38	5563.6	
395.59	5218.9	
395.79	4113	
396	5537.7	
396.2	6016.9	
396.4	5141.8	
396.61	4952.7	
396.81	6191.7	
397.02	5501.5	
397.22	5258.5	
397.42	5291.3	
397.63	6219.7	
397.83	5432.6	
398.04	4087.7	
398.24	4683	
398.44	5925.5	
398.65	5063.3	
398.85	3971	
399.05	4099.4	
399.26	5369.1	
399.46	7042.3	
399.67	4521.2	
399.87	4222.2	
400.07	5710.4	
400.28	6075	
400.48	4283.7	
400.69	5397.8	
400.89	6326.9	
401.09	6796.5	
401.3	4247.5	
401.5	5401.9	
401.7	7007.5	
401.91	7248.4	
402.11	4531.5	
402.32	4889.9	
402.52	6432	
402.72	6357.6	
402.93	4972.5	
403.13	3864.5	
403.33	7114	
403.54	5838.1	
403.74	4681.7	
403.94	5548.6	
404.15	5908.4	
404.35	7056.6	
404.56	4468	
404.76	6214.9	
404.96	6257.2	
405.17	5984.2	
405.37	5788.2	
405.57	4846.2	
405.78	6310.5	
405.98	5756.8	
406.18	4478.2	
406.39	5381.4	
406.59	6338.5	
406.79	6013.5	
407	4301.4	
407.2	4368.3	
407.4	6288.6	
407.61	6519.4	
407.81	4361.5	
408.01	6634.7	
408.22	5283.8	
408.42	7286.7	
408.62	5334.3	
408.83	4781.3	
409.03	5935.7	
409.23	5764.3	
409.44	4996.4	
409.64	5302.9	
409.84	6898.2	
410.05	6759.7	
410.25	5087.2	
410.45	4967.7	
410.66	6296.1	
410.86	8697.7	
411.06	5337.7	
411.27	5330.9	
411.47	8553.7	
411.67	6465.4	
411.88	5535.7	
412.08	5747.3	
412.28	7073	
412.49	7534.5	
412.69	5264.6	
412.89	5236.7	
413.09	7454.6	
413.3	7294.9	
413.5	5414.1	
413.7	4973.8	
413.91	6563.1	
414.11	7441	
414.31	5240.8	
414.52	5652.4	
414.72	7124.9	
414.92	6978.8	
415.12	5216.9	
415.33	5741.1	
415.53	7466.9	
415.73	7608.2	
415.94	6133.7	
416.14	5509	
416.34	6356.9	
416.55	6174.6	
416.75	6731	
416.95	6126.2	
417.15	7312.6	
417.36	8129.1	
417.56	6896.2	
417.76	5922	
417.97	7726.3	
418.17	7381.6	
418.37	5556.1	
418.57	5585.5	
418.78	7193.8	
418.98	6875.7	
419.18	6486.6	
419.38	6429.3	
419.59	6942.6	
419.79	6574.7	
419.99	5534.3	
420.2	5797.1	
420.4	7426.6	
420.6	7536.5	
420.8	5305.6	
421.01	5229.1	
421.21	7196.6	
421.41	7403.4	
421.61	5739.1	
421.82	5525.4	
422.02	6745.3	
422.22	7739.3	
422.42	6236.7	
422.63	5960.3	
422.83	6916.7	
423.03	8074.5	
423.23	5940.5	
423.44	4939.7	
423.64	6886	
423.84	6735.8	
424.04	5375.2	
424.25	5046.2	
424.45	7862.2	
424.65	7806.2	
424.85	4832.5	
425.06	5479	
425.26	7806.2	
425.46	6320.7	
425.66	5902.9	
425.87	5574.6	
426.07	7572.7	
426.27	7364.5	
426.47	5735.7	
426.67	5035.3	
426.88	7898.3	
427.08	7320.1	
427.28	5925.5	
427.48	4964.3	
427.69	6197.8	
427.89	6866.2	
428.09	5871.5	
428.29	5042.8	
428.5	7544	
428.7	7048.4	
428.9	4891.9	
429.1	5433.3	
429.3	7053.9	
429.51	7427.3	
429.71	5218.9	
429.91	5945.9	
430.11	7252.5	
430.31	7502.4	
430.52	5501.5	
430.72	5860.6	
430.92	7885.4	
431.12	7288	
431.32	5213.4	
431.53	5683.1	
431.73	6214.2	
431.93	7896.3	
432.13	5117.9	
432.33	4992.3	
432.54	6713.2	
432.74	7060.7	
432.94	4913.1	
433.14	6051.1	
433.34	7250.5	
433.55	6675.7	
433.75	5902.9	
433.95	7601.4	
434.15	7023.9	
434.35	6666.1	
434.56	5167.7	
434.76	4612.7	
434.96	6956.9	
435.16	7178.1	
435.36	4984.1	
435.56	6107	
435.77	6605.4	
435.97	6761.7	
436.17	6776	
436.37	6043.6	
436.57	6657.3	
436.78	6578.1	
436.98	5988.9	
437.18	6571.9	
437.38	7266.2	
437.58	6898.9	
437.78	6795.8	
437.99	5485.8	
438.19	7309.2	
438.39	8133.8	
438.59	5369.1	
438.79	4886.5	
438.99	8006.2	
439.2	6807.4	
439.4	5001.1	
439.6	4923.3	
439.8	7064.1	
440	8122.9	
440.2	5885.9	
440.4	6025.8	
440.61	7385.7	
440.81	7920.9	
441.01	5087.2	
441.21	6005.3	
441.41	7953.6	
441.61	7513.3	
441.81	6371.9	
442.02	7319.4	
442.22	8402.1	
442.42	7681.2	
442.62	5264.6	
442.82	5236.7	
443.02	7961.1	
443.22	7083.9	
443.43	5691.3	
443.63	5236	
443.83	6890.7	
444.03	6866.8	
444.23	6472.9	
444.43	6036.7	
444.63	7175.4	
444.83	8390.5	
445.04	5358.9	
445.24	6600.6	
445.44	7565.9	
445.64	7595.9	
445.84	6137.1	
446.04	6186.9	
446.24	6897.6	
446.44	7976.2	
446.65	5302.9	
446.85	5763	
447.05	6921.5	
447.25	7804.1	
447.45	5788.9	
447.65	5126.7	
447.85	7230	
448.05	6932.4	
448.25	6120.7	
448.46	5990.3	
448.66	7243.7	
448.86	6835.4	
449.06	5031.9	
449.26	6278.4	
449.46	7496.2	
449.66	6522.8	
449.86	5676.3	
450.06	5634	
450.26	6777.4	
450.47	7280.5	
450.67	5913.2	
450.87	6249.7	
451.07	7457.3	
451.27	7320.1	
451.47	5201.8	
451.67	5850.4	
451.87	6914.6	
452.07	8054	
452.27	5484.5	
452.47	5459.2	
452.67	7142.6	
452.88	7630	
453.08	4797.7	
453.28	6848.4	
453.48	8372.1	
453.68	7131.7	
453.88	5362.3	
454.08	5543.9	
454.28	7479.9	
454.48	7186.3	
454.68	6043.6	
454.88	6635.4	
455.08	7557	
455.28	7296.2	
455.48	5237.3	
455.68	5829.9	
455.89	8030.1	
456.09	7699	
456.29	5476.3	
456.49	5634.6	
456.69	7891.5	
456.89	7147.4	
457.09	6085.9	
457.29	6406.7	
457.49	7492.8	
457.69	7628.7	
457.89	5943.9	
458.09	5300.1	
458.29	7217.7	
458.49	7989.1	
458.69	6306.4	
458.89	5722	
459.09	8205.5	
459.29	8357.1	
459.49	5810.1	
459.69	6711.9	
459.9	7831.4	
460.1	7271.7	
460.3	5694	
460.5	5560.9	
460.7	7681.2	
460.9	7424.6	
461.1	5190.9	
461.3	6479.8	
461.5	8318.2	
461.7	7947.5	
461.9	5614.2	
462.1	6012.8	
462.3	7419.1	
462.5	7989.8	
462.7	5665.4	
462.9	5696.1	
463.1	9097.8	
463.3	8684.1	
463.5	5903.6	
463.7	6913.9	
463.9	7609.6	
464.1	7972.7	
464.3	6038.1	
464.5	6304.3	
464.7	8391.9	
464.9	7942	
465.1	7591.1	
465.3	6561	
465.5	8649.3	
465.7	8608.3	
465.9	6876.4	
466.1	6756.2	
466.3	8409.6	
466.5	8179.6	
466.7	7629.4	
466.9	6477	
467.1	8152.3	
467.3	9089.6	
467.5	7477.1	
467.7	6337.8	
467.9	9273.2	
468.1	10190	
468.3	7126.9	
468.5	7602.7	
468.7	8144.1	
468.9	8160.5	
469.1	6688.7	
469.3	7404.1	
469.5	10045	
469.7	7745.4	
469.9	7165.2	
470.1	6389	
470.3	8217.8	
470.5	8146.8	
470.7	7679.2	
470.9	6513.9	
471.1	7943.4	
471.3	8445.1	
471.5	6347.3	
471.69	8288.1	
471.89	7898.3	
472.09	7308.5	
472.29	7226.6	
472.49	7507.9	
472.69	7531.1	
472.89	8378.9	
473.09	6311.8	
473.29	6383.5	
473.49	7779.6	
473.69	7858.7	
473.89	7371.3	
474.09	6541.9	
474.29	9071.1	
474.49	8825.4	
474.69	7290.8	
474.89	6645	
475.09	7844.4	
475.29	7796.6	
475.49	6069.5	
475.69	6352.8	
475.88	9503.9	
476.08	8113.4	
476.28	6024.4	
476.48	6503.7	
476.68	8660.9	
476.88	8378.2	
477.08	6277.7	
477.28	6618.4	
477.48	7971.4	
477.68	8605.6	
477.88	6114.6	
478.08	6469.5	
478.28	8884.8	
478.48	8021.9	
478.67	6405.4	
478.87	5924.8	
479.07	8703.2	
479.27	8124.3	
479.47	6695.5	
479.67	6644.3	
479.87	8503.8	
480.07	9006.3	
480.27	5949.3	
480.47	7552.9	
480.67	8228.1	
480.87	8800.8	
481.06	6233.3	
481.26	7014.3	
481.46	8189.8	
481.66	8054.7	
481.86	6664.8	
482.06	7628	
482.26	7804.8	
482.46	8695	
482.66	6559.6	
482.86	6195.1	
483.05	8169.3	
483.25	7606.2	
483.45	9028.8	
483.65	6531	
483.85	7754.3	
484.05	7971.4	
484.25	6979.5	
484.45	7465.5	
484.65	8870.4	
484.84	8841.1	
485.04	6546	
485.24	6507.1	
485.44	9198.1	
485.64	7397.3	
485.84	5769.8	
486.04	7196.6	
486.24	7857.4	
486.44	8276.5	
486.63	5796.4	
486.83	6671.6	
487.03	7708.6	
487.23	7959.1	
487.43	5877	
487.63	8182.3	
487.83	7949.5	
488.02	8981.7	
488.22	6842.9	
488.42	7428.7	
488.62	8800.8	
488.82	7795.3	
489.02	6402.6	
489.22	6486.6	
489.41	8662.2	
489.61	8428.8	
489.81	6232	
490.01	6169.2	
490.21	8631.5	
490.41	9289.6	
490.61	6189.6	
490.8	6350.8	
491	8140.7	
491.2	7464.8	
491.4	6959.7	
491.6	6070.9	
491.8	8160.5	
491.99	8331.1	
492.19	5914.5	
492.39	6361.7	
492.59	8658.8	
492.79	8613.1	
492.99	7092.1	
493.18	6120	
493.38	8709.3	
493.58	9402.2	
493.78	6858.6	
493.98	6531	
494.18	8395.3	
494.37	7830.7	
494.57	7051.2	
494.77	6980.8	
494.97	8524.3	
495.17	8903.9	
495.37	6526.2	
495.56	6815.6	
495.76	8996.7	
495.96	8613.1	
496.16	7805.5	
496.36	6746.7	
496.55	8896.4	
496.75	8393.9	
496.95	7109.9	
497.15	7047.1	
497.35	8846.5	
497.54	8764.6	
497.74	6803.4	
497.94	8445.8	
498.14	9574.3	
498.34	9258.9	
498.53	6366.5	
498.73	7289.4	
498.93	8148.2	
499.13	8860.2	
499.33	7031.4	
499.52	7535.8	
499.72	8759.2	
499.92	9103.2	
500.12	6677.1	
500.32	7004.7	
500.51	8980.3	
500.71	8748.9	
500.91	7806.2	
501.11	7406.1	
501.31	8987.2	
501.5	9417.9	
501.7	8190.5	
501.9	7101	
502.1	8710.7	
502.29	9058.8	
502.49	7490.8	
502.69	7927	
502.89	8953.7	
503.09	9048.6	
503.28	6512.5	
503.48	6677.7	
503.68	8226	
503.88	8202.8	
504.07	7643	
504.27	7086	
504.47	8643.8	
504.67	8692.9	
504.86	7537.9	
505.06	7274.4	
505.26	8304.5	
505.46	10076	
505.65	7154.9	
505.85	7348.8	
506.05	8290.9	
506.25	8707.3	
506.44	6479.1	
506.64	7373.4	
506.84	8123.6	
507.04	9125.1	
507.23	6632	
507.43	7165.8	
507.63	10122	
507.83	8377.6	
508.02	7198.6	
508.22	6859.3	
508.42	10400	
508.62	8145.5	
508.81	7171.3	
509.01	7682.6	
509.21	8062.2	
509.4	8359.8	
509.6	7295.5	
509.8	6576.7	
510	8170.7	
510.19	9634.3	
510.39	6639.5	
510.59	6661.4	
510.79	8090.2	
510.98	9421.3	
511.18	6681.8	
511.38	6883.2	
511.57	8818.6	
511.77	8818.6	
511.97	7578.2	
512.17	6437.4	
512.36	8875.9	
512.56	8813.1	
512.76	6605.4	
512.95	6373.3	
513.15	9071.8	
513.35	7651.2	
513.55	7307.8	
513.74	6596.5	
513.94	8929.8	
514.14	8219.2	
514.33	7539.3	
514.53	7176.1	
514.73	8204.2	
514.92	8385.1	
515.12	6760.3	
515.32	6496.8	
515.51	8474.5	
515.71	9096.4	
515.91	8247.9	
516.11	6589.7	
516.3	10076	
516.5	8112.7	
516.7	7181.5	
516.89	7754.3	
517.09	8249.9	
517.29	8056	
517.48	7392.5	
517.68	6911.2	
517.88	7912	
518.07	8541.4	
518.27	7342	
518.47	6381.5	
518.66	9172.9	
518.86	7780.9	
519.06	6212.9	
519.25	6677.1	
519.45	8100.4	
519.65	9612.5	
519.84	7277.8	
520.04	8074.5	
520.24	9917.6	
520.43	8718.2	
520.63	7031.4	
520.83	6817	
521.02	7922.9	
521.22	8654	
521.42	7384.3	
521.61	7817.1	
521.81	8140.7	
522.01	8340	
522.2	7146	
522.4	6918	
522.6	8856.8	
522.79	7560.4	
522.99	6910.5	
523.18	6267.5	
523.38	8518.2	
523.58	8449.9	
523.77	8140.7	
523.97	6243.6	
524.17	10380	
524.36	9512.1	
524.56	7636.9	
524.76	7271.7	
524.95	8439	
525.15	8093.6	
525.34	6986.3	
525.54	7016.3	
525.74	8858.1	
525.93	7804.8	
526.13	8168.7	
526.33	7057.3	
526.52	9143.5	
526.72	8642.4	
526.91	8232.8	
527.11	7488.1	
527.31	9226.1	
527.5	9564	
527.7	7377.5	
527.89	6358.3	
528.09	8167.3	
528.29	8624.7	
528.48	7700.4	
528.68	7456	
528.87	9068.4	
529.07	9069.8	
529.27	7271	
529.46	6880.5	
529.66	8729.8	
529.85	9186.5	
530.05	6688	
530.25	7443	
530.44	10150	
530.64	8714.8	
530.83	7098.9	
531.03	7363.1	
531.23	9019.9	
531.42	8974.9	
531.62	8086.7	
531.81	7174.7	
532.01	9137.4	
532.21	9574.9	
532.4	6926.9	
532.6	7272.3	
532.79	10052	
532.99	9145.5	
533.18	7354.9	
533.38	8355.7	
533.58	8773.5	
533.77	9477.3	
533.97	7376.8	
534.16	8183	
534.36	9656.2	
534.55	8716.8	
534.75	8401.5	
534.95	7380.9	
535.14	9573.6	
535.34	8772.1	
535.53	7105.1	
535.73	8994	
535.92	10071	
536.12	8948.3	
536.31	7197.2	
536.51	8360.5	
536.71	9181	
536.9	8841.8	
537.1	7304.4	
537.29	7445	
537.49	9745.6	
537.68	8703.2	
537.88	7837.6	
538.07	6935.8	
538.27	8981.7	
538.46	9964.1	
538.66	6897.6	
538.86	7372	
539.05	9007	
539.25	9361.3	
539.44	7623.2	
539.64	7159	
539.83	8935.3	
540.03	9820.7	
540.22	7226.6	
540.42	7329.7	
540.61	9174.2	
540.81	9254.1	
541	7813.7	
541.2	8358.4	
541.39	8581.7	
541.59	9085.5	
541.78	7966.6	
541.98	7111.2	
542.18	8253.3	
542.37	8252.6	
542.57	7603.4	
542.76	8052.6	
542.96	8331.8	
543.15	9067.7	
543.35	7595.9	
543.54	6975.4	
543.74	9414.5	
543.93	8916.2	
544.13	7527	
544.32	8619.2	
544.52	9276.6	
544.71	8484.7	
544.91	6674.3	
545.1	7866.2	
545.3	8467	
545.49	9204.9	
545.69	6595.1	
545.88	7225.2	
546.08	10214	
546.27	9723.1	
546.47	7687.4	
546.66	6948.8	
546.86	9349	
547.05	9989.3	
547.24	7217	
547.44	7040.9	
547.63	8400.8	
547.83	9437.7	
548.02	7415.7	
548.22	7676.5	
548.41	8113.4	
548.61	9448.6	
548.8	7023.2	
549	6958.3	
549.19	8809.7	
549.39	9073.2	
549.58	6671.6	
549.78	7210.2	
549.97	9247.9	
550.17	8665.6	
550.36	8157.1	
550.55	9127.1	
550.75	8667.7	
550.94	9553.8	
551.14	6879.1	
551.33	7316.7	
551.53	7976.8	
551.72	9070.5	
551.92	7290.1	
552.11	7025.2	
552.31	8989.9	
552.5	9121.7	
552.69	8704.5	
552.89	6683.9	
553.08	8979	
553.28	8720.9	
553.47	7143.3	
553.67	8200.7	
553.86	9623.4	
554.06	7957	
554.25	6202.6	
554.44	6820.4	
554.64	10398	
554.83	9867.1	
555.03	6776.7	
555.22	7179.5	
555.42	9226.8	
555.61	8858.8	
555.8	6974	
556	7223.9	
556.19	7968.6	
556.39	9276.6	
556.58	7012.9	
556.78	6924.9	
556.97	8800.1	
557.16	8500.4	
557.36	8310	
557.55	6647	
557.75	7716.1	
557.94	9527.8	
558.13	6779.5	
558.33	6543.3	
558.52	9267.7	
558.72	8202.8	
558.91	6701	
559.1	6868.9	
559.3	7882.6	
559.49	7610.3	
559.69	6188.3	
559.88	7286	
560.07	8781	
560.27	9194	
560.46	7480.5	
560.66	7633.5	
560.85	8512	
561.04	7701.7	
561.24	6653.9	
561.43	6805.4	
561.63	7991.2	
561.82	8262.9	
562.01	7968.6	
562.21	7161.7	
562.4	8701.8	
562.59	9566.1	
562.79	6912.6	
562.98	6570.6	
563.18	8516.8	
563.37	10051	
563.56	7491.5	
563.76	6505	
563.95	7978.9	
564.14	8091.5	
564.34	6962.4	
564.53	6761.7	
564.73	8586.5	
564.92	8834.9	
565.11	7135.8	
565.31	6404	
565.5	9194.7	
565.69	8069	
565.89	6681.8	
566.08	6895.5	
566.27	9051.3	
566.47	9386.5	
566.66	7559.1	
566.85	6182.1	
567.05	8535.3	
567.24	7931.8	
567.44	6557.6	
567.63	7989.8	
567.82	8867	
568.02	8655.4	
568.21	6599.9	
568.4	6914.6	
568.6	8405.5	
568.79	8456.1	
568.98	6465.4	
569.18	6556.9	
569.37	8350.3	
569.56	10350	
569.76	6944.7	
569.95	7885.4	
570.14	8787.2	
570.34	8707.3	
570.53	6402	
570.72	6500.3	
570.91	9245.2	
571.11	8298.4	
571.3	6903.7	
571.49	7894.9	
571.69	8409.6	
571.88	7927	
572.07	7504.4	
572.27	7451.2	
572.46	7940.7	
572.65	8980.3	
572.85	6675	
573.04	7075	
573.23	9231.6	
573.43	8457.4	
573.62	6455.2	
573.81	7103	
574	8473.8	
574.2	8335.9	
574.39	6840.9	
574.58	6999.3	
574.78	9338.7	
574.97	8516.1	
575.16	7277.8	
575.36	7492.2	
575.55	8935.3	
575.74	9151.7	
575.93	6455.9	
576.13	7524.9	
576.32	8452.6	
576.51	8859.5	
576.71	6854.6	
576.9	8188.5	
577.09	9334	
577.28	8715.5	
577.48	7301.7	
577.67	6373.3	
577.86	8477.2	
578.05	8688.2	
578.25	7065.5	
578.44	7073	
578.63	8613.8	
578.83	9708.1	
579.02	6378.1	
579.21	7905.2	
579.4	8763.3	
579.6	8415.8	
579.79	7183.6	
579.98	9263.6	
580.17	9046.6	
580.37	9149.6	
580.56	6650.4	
580.75	7403.4	
580.94	9660.3	
581.14	9419.3	
581.33	7869.7	
581.52	6739.9	
581.71	8889.5	
581.91	9626.1	
582.1	6486.6	
582.29	6998.6	
582.48	8556.4	
582.68	8447.2	
582.87	7527	
583.06	7113.3	
583.25	8804.2	
583.45	8727.8	
583.64	7856	
583.83	8584.4	
584.02	8434.2	
584.21	8837	
584.41	7826	
584.6	7068.2	
584.79	8597.4	
584.98	9336.7	
585.18	6530.3	
585.37	6543.3	
585.56	7976.8	
585.75	8858.1	
585.94	6802	
586.14	7438.9	
586.33	9541.5	
586.52	8520.2	
586.71	7251.2	
586.91	7043	
587.1	7951.6	
587.29	8980.3	
587.48	6948.8	
587.67	6858	
587.87	8941.4	
588.06	8923.7	
588.25	8129.8	
588.44	7461.4	
588.63	8508.6	
588.83	9097.1	
589.02	6871.6	
589.21	6793.8	
589.4	8297	
589.59	8205.5	
589.78	6192.4	
589.98	6432.7	
590.17	7848.5	
590.36	8524.3	
590.55	5814.9	
590.74	6720.1	
590.94	9759.3	
591.13	8364.6	
591.32	6479.1	
591.51	6012.2	
591.7	8714.1	
591.89	8219.2	
592.09	6094.1	
592.28	6543.9	
592.47	7438.9	
592.66	9306.7	
592.85	6073.6	
593.05	6315.9	
593.24	8092.2	
593.43	8873.2	
593.62	6359.6	
593.81	6825.2	
594	8120.9	
594.19	8309.3	
594.39	6312.5	
594.58	6178.7	
594.77	8393.9	
594.96	9008.3	
595.15	6135	
595.34	6791.1	
595.54	8578.3	
595.73	7617.8	
595.92	5593	
596.11	6759.7	
596.3	8942.8	
596.49	7661.5	
596.68	6482.5	
596.88	6919.4	
597.07	8626	
597.26	7482.6	
597.45	6006	
597.64	7200.7	
597.83	7770	
598.02	8424	
598.22	6064	
598.41	6778.1	
598.6	8117.5	
598.79	7641.7	
598.98	6221.7	
599.17	7024.5	
599.36	8162.5	
599.55	9364	
599.74	8115.4	
599.94	7837.6	
600.13	8670.4	
600.32	7589.1	
600.51	5868.1	
600.7	5915.9	
600.89	9338.7	
601.08	9386.5	
601.27	5716.6	
601.47	6792.4	
601.66	8587.1	
601.85	9235.7	
602.04	6434	
602.23	6684.6	
602.42	7610.3	
602.61	8314.8	
602.8	6351.4	
602.99	6124.8	
603.18	8067.6	
603.37	8188.5	
603.57	6721.4	
603.76	7311.2	
603.95	8936	
604.14	8527.7	
604.33	6115.2	
604.52	6520.7	
604.71	8127.7	
604.9	7833.5	
605.09	7419.1	
605.28	6963.1	
605.47	8695.7	
605.66	8428.8	
605.86	6737.1	
606.05	6285.2	
606.24	8688.2	
606.43	7262.1	
606.62	6543.9	
606.81	7255.3	
607	8626	
607.19	7944.1	
607.38	5988.3	
607.57	6236.1	
607.76	7681.9	
607.95	7223.9	
608.14	6672.3	
608.33	7182.2	
608.52	7790.5	
608.72	8570.1	
608.91	5893.4	
609.1	5753.4	
609.29	7810.3	
609.48	7289.4	
609.67	6722.1	
609.86	5844.9	
610.05	7428.7	
610.24	7713.3	
610.43	5670.1	
610.62	5354.8	
610.81	8850.6	
611	8589.2	
611.19	5824.4	
611.38	6577.4	
611.57	8007.6	
611.76	9249.3	
611.95	5663.3	
612.14	5468.1	
612.33	7894.9	
612.52	7298.3	
612.71	6199.2	
612.9	5380	
613.09	7047.1	
613.28	9298.5	
613.47	5980.8	
613.66	6835.4	
613.85	8028.7	
614.04	7481.9	
614.24	5933	
614.43	5280.3	
614.62	8010.3	
614.81	8001.4	
615	6514.6	
615.19	6469.5	
615.38	7277.8	
615.57	7726.3	
615.76	6364.4	
615.95	7318.8	
616.14	8101.1	
616.33	7684.7	
616.52	6657.3	
616.71	6862.1	
616.9	8008.2	
617.09	7816.4	
617.28	6083.1	
617.47	7208.8	
617.66	7199.3	
617.85	7166.5	
618.04	6892.1	
618.22	6409.5	
618.41	7491.5	
618.6	8366.6	
618.79	6266.8	
618.98	5999.2	
619.17	8669.1	
619.36	7014.3	
619.55	6128.9	
619.74	6157.6	
619.93	8035.5	
620.12	7348.1	
620.31	6655.2	
620.5	6877.1	
620.69	8447.9	
620.88	8893.6	
621.07	7619.8	
621.26	6585.6	
621.45	8156.4	
621.64	8097	
621.83	6797.2	
622.02	5857.9	
622.21	8158.4	
622.4	7908.6	
622.59	7256	
622.78	7000	
622.97	7501	
623.16	8450.6	
623.35	6636.8	
623.54	5740.5	
623.72	7734.5	
623.91	7841	
624.1	6873	
624.29	5550.7	
624.48	8905.3	
624.67	8229.4	
624.86	6728.9	
625.05	5881.8	
625.24	9013.8	
625.43	7425.3	
625.62	8477.2	
625.81	6026.5	
626	8460.2	
626.19	7738.6	
626.38	6834.8	
626.56	6267.5	
626.75	7585.7	
626.94	8075.8	
627.13	6815	
627.32	5628.5	
627.51	8244.4	
627.7	9519	
627.89	5745.9	
628.08	6893.5	
628.27	7452.6	
628.46	7677.8	
628.65	6019	
628.83	5700.2	
629.02	8207.6	
629.21	7490.1	
629.4	6455.2	
629.59	6663.4	
629.78	7431.4	
629.97	8437.6	
630.16	6678.4	
630.35	6216.3	
630.54	8910.7	
630.72	8568	
630.91	6078.4	
631.1	6616.3	
631.29	8029.4	
631.48	8187.8	
631.67	6761.7	
631.86	6192.4	
632.05	7591.8	
632.24	7663.5	
632.42	5892	
632.61	6517.3	
632.8	7773.4	
632.99	7413.6	
633.18	6467.5	
633.37	6867.5	
633.56	7941.3	
633.75	7784.3	
633.93	6492.1	
634.12	6178.7	
634.31	8815.8	
634.5	8453.3	
634.69	6225.8	
634.88	6696.2	
635.07	7693.5	
635.25	8378.9	
635.44	7150.8	
635.63	7291.5	
635.82	7638.9	
636.01	7097.6	
636.2	7146	
636.39	6650.4	
636.57	8719.6	
636.76	8467	
636.95	6043.6	
637.14	7380.9	
637.33	8127	
637.52	9106.6	
637.7	5836.7	
637.89	6727.6	
638.08	7677.8	
638.27	9018.6	
638.46	6806.1	
638.65	7315.3	
638.83	9102.5	
639.02	7496.2	
639.21	6855.2	
639.4	7189.1	
639.59	8028	
639.78	7572	
639.96	6054.5	
640.15	6096.8	
640.34	7788.4	
640.53	7937.2	
640.72	5786.9	
640.91	6086.6	
641.09	7342	
641.28	8755.1	
641.47	6092	
641.66	6870.3	
641.85	7949.5	
642.03	8244.4	
642.22	6708.5	
642.41	6199.2	
642.6	7429.3	
642.79	6810.9	
642.97	6034	
643.16	6737.1	
643.35	7415.7	
643.54	7189.1	
643.73	5864	
643.91	6758.3	
644.1	7161.7	
644.29	7660.8	
644.48	6040.8	
644.67	6072.2	
644.85	7286.7	
645.04	7610.9	
645.23	5584.8	
645.42	5985.5	
645.6	7163.8	
645.79	8369.4	
645.98	5905.7	
646.17	5010.7	
646.36	6915.3	
646.54	7602.1	
646.73	6793.8	
646.92	5597.1	
647.11	7187.7	
647.29	8329.1	
647.48	5702.2	
647.67	5457.2	
647.86	8488.8	
648.05	8527.1	
648.23	6019	
648.42	7225.9	
648.61	7790.5	
648.8	7573.4	
648.98	5666	
649.17	5935	
649.36	7133.8	
649.55	6616.3	
649.73	5702.2	
649.92	6357.6	
650.11	7060	
650.3	7446.4	
650.48	5765	
650.67	5482.4	
650.86	7634.8	
651.05	6644.3	
651.23	5781.4	
651.42	5736.4	
651.61	7098.9	
651.79	7191.1	
651.98	5937.7	
652.17	5578.7	
652.36	7500.3	
652.54	6686.6	
652.73	5565	
652.92	5401.9	
653.11	7612.3	
653.29	7632.8	
653.48	4894	
653.67	5905.7	
653.85	7367.9	
654.04	8422.6	
654.23	6159.6	
654.42	5725.4	
654.6	6996.5	
654.79	7616.4	
654.98	5144.5	
655.16	5726.1	
655.35	6548	
655.54	6470.9	
655.73	5272.8	
655.91	5175.2	
656.1	7591.8	
656.29	6462	
656.47	4765.6	
656.66	6437.4	
656.85	6720.8	
657.03	6707.1	
657.22	5232.6	
657.41	5384.1	
657.59	6806.8	
657.78	6569.2	
657.97	4977.2	
658.16	5723.4	
658.34	7449.8	
658.53	7835.5	
658.72	6617	
658.9	7076.4	
659.09	6859.3	
659.28	6967.2	
659.46	5421.7	
659.65	5361.6	
659.84	6688.7	
660.02	7195.9	
660.21	5233.9	
660.4	5214.8	
660.58	7636.9	
660.77	7012.9	
660.96	5916.6	
661.14	4818.2	
661.33	8096.3	
661.52	8118.8	
661.7	4820.2	
661.89	8553.7	
662.08	6601.3	
662.26	6218.3	
662.45	5110.4	
662.64	5230.5	
662.82	7379.5	
663.01	6474.3	
663.2	5256.5	
663.38	6008.1	
663.57	7214.3	
663.75	7058	
663.94	5472.9	
664.13	6925.5	
664.31	6614.9	
664.5	7380.9	
664.69	5760.9	
664.87	6361	
665.06	6326.9	
665.25	7086	
665.43	6593.8	
665.62	6730.3	
665.8	7437.5	
665.99	6741.2	
666.18	5537	
666.36	5705	
666.55	7390.4	
666.74	7330.4	
666.92	5229.1	
667.11	6815	
667.29	6734.4	
667.48	7320.1	
667.67	6463.4	
667.85	5408.7	
668.04	6797.2	
668.22	6794.5	
668.41	5576.6	
668.6	5836	
668.78	6578.8	
668.97	6747.4	
669.15	5997.8	
669.34	4930.1	
669.53	6570.6	
669.71	6916.7	
669.9	5130.8	
670.08	5735.7	
670.27	6532.3	
670.46	7106.5	
670.64	6016.9	
670.83	6185.5	
671.01	6361	
671.2	7088.7	
671.38	5176.6	
671.57	5127.4	
671.76	7681.2	
671.94	8234.9	
672.13	4957.4	
672.31	6174.6	
672.5	7241.6	
672.69	6544.6	
672.87	5236	
673.06	5592.3	
673.24	7122.2	
673.43	6690.7	
673.61	5952.1	
673.8	5521.3	
673.98	7245.7	
674.17	7442.3	
674.36	6015.6	
674.54	5968.5	
674.73	7037.5	
674.91	7231.4	
675.1	5651	
675.28	5265.3	
675.47	6825.9	
675.65	7369.3	
675.84	5504.3	
676.03	5881.8	
676.21	6586.3	
676.4	6130.9	
676.58	6287.3	
676.77	6042.2	
676.95	8050.6	
677.14	6489.3	
677.32	5248.9	
677.51	4988.2	
677.69	7273	
677.88	6208.8	
678.06	5059.8	
678.25	5206.6	
678.44	6821.1	
678.62	6511.9	
678.81	4829.8	
678.99	5813.5	
679.18	7604.1	
679.36	7179.5	
679.55	5422.3	
679.73	6049.7	
679.92	7155.6	
680.1	6571.9	
680.29	6575.3	
680.47	5449	
680.66	6543.9	
680.84	7384.3	
681.03	4683.7	
681.21	5785.5	
681.4	6583.5	
681.58	6512.5	
681.77	5208.7	
681.95	5080.3	
682.14	7430.7	
682.32	7711.3	
682.51	6079.1	
682.69	4966.3	
682.88	6491.4	
683.06	7165.8	
683.25	5866.1	
683.43	6197.2	
683.62	6831.3	
683.8	7185	
683.99	6349.4	
684.17	5674.2	
684.36	7996	
684.54	6793.1	
684.73	4877.6	
684.91	5115.1	
685.1	7092.1	
685.28	6508.4	
685.46	5741.8	
685.65	5764.3	
685.83	7361.8	
686.02	6718.7	
686.2	5202.5	
686.39	5322	
686.57	6283.9	
686.76	7924.3	
686.94	5095.3	
687.13	5319.9	
687.31	7139.9	
687.5	6711.9	
687.68	4846.9	
687.86	5990.3	
688.05	8334.6	
688.23	6150.7	
688.42	6069.5	
688.6	5244.8	
688.79	6567.2	
688.97	6566.5	
689.16	5662	
689.34	4556	
689.52	7261.4	
689.71	7537.9	
689.89	5912.5	
690.08	5169.1	
690.26	6757.6	
690.45	6685.3	
690.63	6081.8	
690.81	5372.5	
691	6554.9	
691.18	6490	
691.37	5569.1	
691.55	7712	
691.74	6526.2	
691.92	8533.2	
692.1	5537.7	
692.29	4968.4	
692.47	6648.4	
692.66	6037.4	
692.84	5141.1	
693.02	5669.5	
693.21	6122.7	
693.39	6662.7	
693.58	5773.9	
693.76	5200.5	
693.94	7799.3	
694.13	7492.8	
694.31	5244.8	
694.5	6294.1	
694.68	6358.9	
694.86	6692.1	
695.05	5482.4	
695.23	5610.1	
695.42	7043	
695.6	9345.6	
695.78	6115.2	
695.97	5220.3	
696.15	7129	
696.34	6549.4	
696.52	4992.9	
696.7	5836.7	
696.89	6929	
697.07	6329.6	
697.25	5734.3	
697.44	7243	
697.62	6875.7	
697.81	7216.4	
697.99	5436.7	
698.17	5984.2	
698.36	6234	
698.54	6903.7	
698.72	5753.4	
698.91	4801.1	
699.09	6503	
699.28	6409.5	
699.46	5426.4	
699.64	5269.4	
699.83	6309.8	
700.01	7545.4	
700.19	6090	
700.38	4518.5	
700.56	7421.2	
700.74	6395.8	
700.93	4939	
701.11	5773.2	
701.29	6916.7	
701.48	8059.4	
701.66	5148.6	
701.84	5163.6	
702.03	6453.1	
702.21	7107.8	
702.39	4725.3	
702.58	5281.7	
702.76	6833.4	
702.94	6954.9	
703.13	4664.6	
703.31	7103	
703.49	6154.1	
703.68	7232.1	
703.86	4868.7	
704.04	5844.9	
704.23	6609.5	
704.41	7046.4	
704.59	5022.3	
704.78	6148	
704.96	7733.1	
705.14	7071	
705.33	4810	
705.51	5651	
705.69	6522.1	
705.87	7293.5	
706.06	5885.9	
706.24	4769.7	
706.42	6777.4	
706.61	7088.7	
706.79	5955.5	
706.97	4818.9	
707.16	6285.9	
707.34	6834.1	
707.52	5944.6	
707.7	5062.6	
707.89	6348	
708.07	6039.5	
708.25	5899.5	
708.44	5968.5	
708.62	6276.3	
708.8	7511.9	
708.98	6152.1	
709.17	5135.6	
709.35	6778.8	
709.53	6778.1	
709.72	4797	
709.9	5261.9	
710.08	6970.6	
710.26	7046.4	
710.45	6449.7	
710.63	5105.6	
710.81	6616.3	
710.99	6642.9	
711.18	5760.9	
711.36	5240.8	
711.54	6542.6	
711.72	7215.7	
711.91	5313.1	
712.09	4766.3	
712.27	6648.4	
712.45	7277.1	
712.64	5634	
712.82	4589.5	
713	6108.4	
713.18	6341.9	
713.37	4747.9	
713.55	5988.3	
713.73	7268.2	
713.91	5870.2	
714.1	5217.5	
714.28	4728.1	
714.46	6972.7	
714.64	6182.1	
714.83	4207.9	
715.01	5079.6	
715.19	6269.5	
715.37	5715.2	
715.55	4723.3	
715.74	5065.3	
715.92	7168.6	
716.1	5218.9	
716.28	6199.9	
716.47	5218.9	
716.65	5915.2	
716.83	6008.7	
717.01	5038.7	
717.19	5124	
717.38	8100.4	
717.56	5662.6	
717.74	5338.4	
717.92	4403.8	
718.1	6884.6	
718.29	6059.9	
718.47	3966.9	
718.65	4588.8	
718.83	6731.7	
719.01	6610.8	
719.2	3835.8	
719.38	4952.7	
719.56	6318.7	
719.74	7877.9	
719.92	4528.7	
720.11	5618.3	
720.29	6356.9	
720.47	5556.8	
720.65	4117.8	
720.83	5056.4	
721.02	5906.3	
721.2	5623.7	
721.38	5128.1	
721.56	4422.9	
721.74	5267.4	
721.92	5397.1	
722.11	5651	
722.29	5301.5	
722.47	6702.3	
722.65	5788.2	
722.83	4377.9	
723.01	5289.2	
723.2	5901.6	
723.38	6198.5	
723.56	3848.1	
723.74	4947.2	
723.92	5384.8	
724.1	6551.5	
724.29	4304.8	
724.47	5463.3	
724.65	5503.6	
724.83	5377.3	
725.01	4238.6	
725.19	5091.9	
725.37	5442.8	
725.56	5533.6	
725.74	4058.4	
725.92	4308.2	
726.1	5416.9	
726.28	5702.2	
726.46	4711	
726.64	4450.9	
726.83	5679.7	
727.01	5976.7	
727.19	3986	
727.37	4798.4	
727.55	5806	
727.73	6323.4	
727.91	4026.3	
728.09	3829	
728.28	6328.2	
728.46	6875	
728.64	4909	
728.82	4907.6	
729	7374.7	
729.18	6586.3	
729.36	4050.9	
729.54	6395.1	
729.72	7556.3	
729.91	5868.1	
730.09	5928.9	
730.27	4730.8	
730.45	5788.2	
730.63	6414.2	
730.81	5347.2	
730.99	4353.3	
731.17	6891.4	
731.35	5470.8	
731.53	4877.6	
731.71	4495.3	
731.9	6672.3	
732.08	6844.3	
732.26	4674.8	
732.44	4362.2	
732.62	6902.3	
732.8	6420.4	
732.98	5178.6	
733.16	4184	
733.34	6354.8	
733.52	5177.9	
733.7	4745.8	
733.88	4996.4	
734.07	6193.7	
734.25	5945.9	
734.43	4237.9	
734.61	5737.7	
734.79	7459.4	
734.97	5834	
735.15	4341	
735.33	4670.7	
735.51	6171.2	
735.69	5925.5	
735.87	6260	
736.05	4915.1	
736.23	6070.9	
736.41	5799.8	
736.59	4706.9	
736.77	4839.4	
736.95	6462.7	
737.13	5971.9	
737.32	4382	
737.5	4666	
737.68	7044.3	
737.86	5807.4	
738.04	4158.7	
738.22	6118	
738.4	5646.9	
738.58	5886.5	
738.76	4911	
738.94	3720.5	
739.12	5794.4	
739.3	5613.5	
739.48	5414.1	
739.66	5137	
739.84	6032	
740.02	6007.4	
740.2	3849.5	
740.38	4221.5	
740.56	6338.5	
740.74	5224.4	
740.92	4928.8	
741.1	4825.7	
741.28	5829.9	
741.46	5655.8	
741.64	4454.3	
741.82	4944.5	
742	5870.8	
742.18	5868.8	
742.36	4681.7	
742.54	4304.8	
742.72	6408.1	
742.9	5186.1	
743.08	5091.9	
743.26	3900	
743.44	6567.8	
743.62	6509.1	
743.8	5170.4	
743.98	4322.6	
744.16	6171.9	
744.34	5892	
744.52	5096.7	
744.7	5085.8	
744.88	6318	
745.06	5831.9	
745.24	5161.6	
745.42	5252.4	
745.6	6396.5	
745.78	6142.5	
745.96	4022.2	
746.14	4384	
746.32	7191.1	
746.5	6443.6	
746.68	4947.2	
746.86	4373.1	
747.03	6858	
747.21	5293.3	
747.39	4926	
747.57	4367.6	
747.75	6080.4	
747.93	6424.5	
748.11	4408.6	
748.29	4252.9	
748.47	7599.3	
748.65	5794.4	
748.83	5116.5	
749.01	4811.4	
749.19	6309.1	
749.37	5416.9	
749.55	4723.3	
749.73	4810	
749.91	5924.1	
750.09	5690.6	
750.26	4814.8	
750.44	4216.8	
750.62	6001.2	
750.8	5898.1	
750.98	4161.5	
751.16	4422.9	
751.34	5983.5	
751.52	5399.8	
751.7	5257.1	
751.88	4033.8	
752.06	6540.5	
752.24	6264.1	
752.42	4046.8	
752.59	4397	
752.77	5906.3	
752.95	7184.3	
753.13	5108.3	
753.31	4513	
753.49	5638.7	
753.67	6087.9	
753.85	4766.3	
754.03	4446.8	
754.21	6296.1	
754.38	6748.7	
754.56	4566.3	
754.74	3669.3	
754.92	5655.1	
755.1	6363	
755.28	3723.2	
755.46	3809.9	
755.64	7223.2	
755.82	7309.9	
755.99	4145.8	
756.17	4290.5	
756.35	4855.7	
756.53	6490	
756.71	3201	
756.89	4124.6	
757.07	6054.5	
757.25	5132.2	
757.42	4672.1	
757.6	5556.1	
757.78	6049	
757.96	5057.1	
758.14	4279.6	
758.32	3865.2	
758.5	4637.3	
758.67	5457.8	
758.85	4114.4	
759.03	4252.3	
759.21	5713.8	
759.39	5111.7	
759.57	3796.3	
759.75	4916.5	
759.92	6294.1	
760.1	5462.6	
760.28	5130.2	
760.46	5471.5	
760.64	5322.7	
760.82	5067.4	
760.99	5052.3	
761.17	4252.3	
761.35	6104.3	
761.53	5122	
761.71	4297.3	
761.89	4989.5	
762.06	5963.7	
762.24	5442.8	
762.42	4385.4	
762.6	4115.1	
762.78	5474.9	
762.96	6163	
763.13	4727.4	
763.31	4409.3	
763.49	6285.2	
763.67	5407.3	
763.85	5334.3	
764.02	5793.7	
764.2	6507.8	
764.38	5707	
764.56	4298	
764.74	5162.2	
764.91	6660	
765.09	5567.7	
765.27	3954.6	
765.45	3818.8	
765.63	6688	
765.8	6503	
765.98	3562.8	
766.16	3864.5	
766.34	5137	
766.52	4950.6	
766.69	4827.7	
766.87	3720.5	
767.05	5532.9	
767.23	6242.9	
767.41	4024.3	
767.58	4308.9	
767.76	6147.3	
767.94	6136.4	
768.12	4120.5	
768.29	4913.8	
768.47	5640.1	
768.65	6331.6	
768.83	3775.8	
769	4948.6	
769.18	5184.1	
769.36	5931.6	
769.54	4955.4	
769.72	3842	
769.89	6223.8	
770.07	6278.4	
770.25	4155.3	
770.43	5449.6	
770.6	6976.7	
770.78	7465.5	
770.96	4364.2	
771.14	4160.1	
771.31	6113.9	
771.49	5472.2	
771.67	3498.6	
771.85	3754.6	
772.02	4724	
772.2	5463.3	
772.38	4539	
772.55	3992.2	
772.73	5747.3	
772.91	5550.7	
773.09	4341.7	
773.26	4424.3	
773.44	5729.5	
773.62	5332.2	
773.8	3883.6	
773.97	3599.6	
774.15	5797.8	
774.33	5418.2	
774.5	3851.5	
774.68	4164.2	
774.86	5983.5	
775.04	5425.1	
775.21	3909.6	
775.39	3870	
775.57	5715.2	
775.74	6130.9	
775.92	3726.6	
776.1	3686.3	
776.27	5685.8	
776.45	6882.5	
776.63	3865.9	
776.81	3462.4	
776.98	5299.5	
777.16	6464.8	
777.34	4073.4	
777.51	4273.4	
777.69	5326.1	
777.87	5099.4	
778.04	4085	
778.22	4734.2	
778.4	5203.2	
778.57	5792.3	
778.75	3403	
778.93	3661.1	
779.1	4907.6	
779.28	4846.2	
779.46	3401	
779.64	3907.5	
779.81	5958.9	
779.99	6874.3	
780.17	4734.9	
780.34	4769	
780.52	5448.3	
780.69	5651	
780.87	4267.3	
781.05	3748.5	
781.22	5464.7	
781.4	5567.7	
781.58	3900	
781.75	3103.4	
781.93	5429.8	
782.11	4958.8	
782.28	4817.5	
782.46	3966.2	
782.64	4821.6	
782.81	5714.5	
782.99	4074.8	
783.17	4009.9	
783.34	5610.1	
783.52	4829.8	
783.69	4209.9	
783.87	5050.3	
784.05	5032.5	
784.22	4941.1	
784.4	5033.2	
784.58	4244.1	
784.75	5938.4	
784.93	5008	
785.1	3958.7	
785.28	4622.9	
785.46	5649	
785.63	4911.7	
785.81	3900.7	
785.99	3783.3	
786.16	5076.9	
786.34	5483.1	
786.51	3793.5	
786.69	4212	
786.87	4709.6	
787.04	5269.4	
787.22	3678.2	
787.39	4607.2	
787.57	4957.4	
787.75	6049	
787.92	4848.2	
788.1	4754.7	
788.27	4985.4	
788.45	4717.8	
788.63	4487.8	
788.8	3195.5	
788.98	5352.7	
789.15	4663.2	
789.33	3348.4	
789.5	3965.6	
789.68	5906.3	
789.86	6011.5	
790.03	4414.1	
790.21	3819.5	
790.38	5910.4	
790.56	5069.4	
790.73	3670.6	
790.91	3820.8	
791.09	4975.9	
791.26	5788.2	
791.44	3964.2	
791.61	3403.7	
791.79	4931.5	
791.96	5037.3	
792.14	3499.3	
792.32	3134.8	
792.49	4941.7	
792.67	5081.7	
792.84	3564.8	
793.02	3358.7	
793.19	5391.6	
793.37	6196.5	
793.54	3088.3	
793.72	3474	
793.89	6305	
794.07	4987.5	
794.25	4100	
794.42	3189.4	
794.6	6104.3	
794.77	5685.2	
794.95	4431.1	
795.12	3831.1	
795.3	4997.7	
795.47	5575.9	
795.65	4146.5	
795.82	4020.2	
796	4792.9	
796.17	6744.6	
796.35	3872.7	
796.52	4584.7	
796.7	5543.2	
796.87	5605.3	
797.05	4774.5	
797.22	4819.6	
797.4	5609.4	
797.57	6550.8	
797.75	4014	
797.92	3799.7	
798.1	5883.1	
798.27	5016.8	
798.45	3213.9	
798.62	3500.7	
798.8	5323.4	
798.97	5860.6	
799.15	4280.3	
799.32	4046.1	
799.5	4556.7	
799.67	5377.3	
799.85	4341.7	
800.02	3171.6	
800.2	4948.6	
800.37	5292.6	
800.55	4525.3	
800.72	3790.8	
800.9	5814.2	
801.07	6192.4	
801.25	5169.1	
801.42	4189.5	
801.6	5782.1	
801.77	5522.7	
801.95	3851.5	
802.12	3678.2	
802.29	5473.5	
802.47	5451.7	
802.64	4096.6	
802.82	3091.1	
802.99	4954	
803.17	5987.6	
803.34	4057.7	
803.52	3627	
803.69	6645	
803.87	4785.4	
804.04	3988.1	
804.21	4119.8	
804.39	6062.7	
804.56	5162.2	
804.74	3393.5	
804.91	4202.4	
805.09	5005.9	
805.26	5003.9	
805.44	3506.8	
805.61	3830.4	
805.78	5649	
805.96	5666.7	
806.13	4259.1	
806.31	4510.3	
806.48	4531.5	
806.66	5044.8	
806.83	4233.2	
807	4081.6	
807.18	4988.9	
807.35	5442.8	
807.53	4063.9	
807.7	3244	
807.87	6160.3	
808.05	5018.9	
808.22	4455.7	
808.4	3235.8	
808.57	5054.4	
808.74	4638.6	
808.92	3713.7	
809.09	4786.8	
809.27	4923.3	
809.44	5554.1	
809.61	3303.4	
809.79	3691.1	
809.96	6207.4	
810.14	5740.5	
810.31	3165.5	
810.48	3894.6	
810.66	5147.9	
810.83	5927.5	
811.01	3715	
811.18	4185.4	
811.35	5769.1	
811.53	4447.5	
811.7	4547.9	
811.87	4207.2	
812.05	5058.5	
812.22	4943.1	
812.39	3590.8	
812.57	3469.3	
812.74	5067.4	
812.92	6769.9	
813.09	3915	
813.26	4259.1	
813.44	6457.2	
813.61	4974.5	
813.78	3283.6	
813.96	4409.3	
814.13	5032.5	
814.3	4676.9	
814.48	4769	
814.65	3922.5	
814.82	6279.1	
815	4777.2	
815.17	4007.9	
815.34	4956.1	
815.52	4914.4	
815.69	5010.7	
815.87	3990.1	
816.04	3436.5	
816.21	5088.5	
816.38	4431.8	
816.56	3855	
816.73	3577.1	
816.9	6433.4	
817.08	5785.5	
817.25	3622.9	
817.42	4633.9	
817.6	4607.9	
817.77	5092.6	
817.94	4190.1	
818.12	3659.7	
818.29	4799.1	
818.46	7514.7	
818.64	3785.3	
818.81	3493.8	
818.98	4665.3	
819.16	6835.4	
819.33	4312.3	
819.5	4009.9	
819.67	5452.4	
819.85	6102.9	
820.02	4009.2	
820.19	4242	
820.37	5225.7	
820.54	4871.4	
820.71	4124.6	
820.88	5126.1	
821.06	5283.1	
821.23	4825.7	
821.4	4147.8	
821.58	4046.1	
821.75	5728.2	
821.92	5212.8	
822.09	3266.5	
822.27	3592.1	
822.44	5063.3	
822.61	4900.8	
822.79	3351.2	
822.96	6427.9	
823.13	5513.1	
823.3	4792.9	
823.48	3818.8	
823.65	3420.8	
823.82	5774.6	
823.99	4590.2	
824.17	4922	
824.34	3518.4	
824.51	6666.1	
824.68	5122	
824.86	3705.5	
825.03	4156	
825.2	5035.3	
825.37	6128.2	
825.55	3574.4	
825.72	4049.5	
825.89	6770.6	
826.06	6192.4	
826.24	3991.5	
826.41	3946.4	
826.58	6102.9	
826.75	5354.8	
826.92	3084.9	
827.1	3456.3	
827.27	8428.1	
827.44	6683.9	
827.61	3742.3	
827.79	4567.7	
827.96	4788.8	
828.13	5142.4	
828.3	3885	
828.47	3337.5	
828.65	5273.5	
828.82	5227.1	
828.99	5076.9	
829.16	4422.9	
829.34	5656.5	
829.51	5422.3	
829.68	4058.4	
829.85	4285	
830.02	5919.3	
830.2	5644.2	
830.37	3107.5	
830.54	4890.5	
830.71	6470.9	
830.88	4969.1	
831.05	3165.5	
831.23	3685	
831.4	6209.4	
831.57	6847.7	
831.74	3749.1	
831.91	3310.2	
832.09	5265.3	
832.26	5692.7	
832.43	3920.5	
832.6	4399	
832.77	5331.5	
832.94	6096.1	
833.12	3090.4	
833.29	3847.5	
833.46	4910.3	
833.63	7191.8	
833.8	4259.8	
833.97	3849.5	
834.15	5682.4	
834.32	5474.2	
834.49	4049.5	
834.66	4121.9	
834.83	5857.2	
835	4786.8	
835.17	3771	
835.35	3809.2	
835.52	5592.3	
835.69	5454.4	
835.86	4001	
836.03	3252.2	
836.2	5614.2	
836.37	5261.2	
836.55	3860.4	
836.72	3657	
836.89	5185.5	
837.06	5726.8	
837.23	4020.8	
837.4	4326	
837.57	6479.8	
837.75	7194.5	
837.92	3547.1	
838.09	3769.6	
838.26	5237.3	
838.43	5913.9	
838.6	4088.4	
838.77	3634.5	
838.94	6823.8	
839.11	6495.5	
839.29	3863.8	
839.46	3103.4	
839.63	5608.7	
839.8	5380.7	
839.97	3751.2	
840.14	3790.1	
840.31	5429.2	
840.48	5638.1	
840.65	3113.6	
840.82	3848.1	
841	5599.8	
841.17	5616.2	
841.34	3494.5	
841.51	3528.7	
841.68	5604.6	
841.85	5269.4	
842.02	3577.8	
842.19	2934.1	
842.36	5367	
842.53	5423	
842.7	3266.5	
842.87	4272.7	
843.05	7088	
843.22	5296.7	
843.39	3280.2	
843.56	3546.4	
843.73	5156.1	
843.9	5664	
844.07	5609.4	
844.24	4706.2	
844.41	8316.8	
844.58	4913.1	
844.75	3358	
844.92	3676.8	
845.09	5606.7	
845.26	5599.1	
845.43	3467.2	
845.6	3658.4	
845.77	5614.2	
845.94	5340.4	
846.12	3820.1	
846.29	4050.2	
846.46	5889.3	
846.63	5613.5	
846.8	3429.7	
846.97	4068.6	
847.14	6092.7	
847.31	5546.6	
847.48	3859.7	
847.65	4308.9	
847.82	5921.4	
847.99	5907	
848.16	4633.2	
848.33	4312.3	
848.5	5191.6	
848.67	6102.3	
848.84	3380.5	
849.01	3549.1	
849.18	5137	
849.35	4733.5	
849.52	4369.7	
849.69	3383.2	
849.86	5780.1	
850.03	6034	
850.2	3467.9	
850.37	4230.4	
850.54	5983.5	
850.71	5323.4	
850.88	4145.8	
851.05	3399.6	
851.22	5541.8	
851.39	6143.2	
851.56	3299.3	
851.73	4018.8	
851.9	4937	
852.07	5921.4	
852.24	3855	
852.41	3420.1	
852.58	5460.6	
852.75	5031.2	
852.92	3839.3	
853.09	3351.2	
853.26	5226.4	
853.43	6036	
853.6	3415.3	
853.77	2994.1	
853.94	6165.8	
854.11	4910.3	
854.28	5121.3	
854.44	3714.3	
854.61	6614.3	
854.78	5951.4	
854.95	3414.6	
855.12	4371.7	
855.29	4504.8	
855.46	6331	
855.63	3459	
855.8	4818.9	
855.97	5163.6	
856.14	5946.6	
856.31	4903.5	
856.48	3719.8	
856.65	5248.9	
856.82	4916.5	
856.99	3271.3	
857.16	3728.7	
857.33	6869.6	
857.49	5313.8	
857.66	3755.3	
857.83	4009.9	
858	5247.6	
858.17	5521.3	
858.34	3259	
858.51	3442.6	
858.68	6345.3	
858.85	6385.6	
859.02	3970.3	
859.19	4249.5	
859.36	4922	
859.52	4995	
859.69	3440.6	
859.86	4044.7	
860.03	5020.3	
860.2	6158.9	
860.37	3090.4	
860.54	3439.9	
860.71	5853.8	
860.88	6250.4	
861.05	3860.4	
861.21	4342.4	
861.38	6374	
861.55	4804.5	
861.72	3147	
861.89	3868.6	
862.06	5907.7	
862.23	6389.7	
862.4	3351.2	
862.56	3525.2	
862.73	5735	
862.9	5392.3	
863.07	4075.5	
863.24	3136.8	
863.41	4883.7	
863.58	4953.4	
863.75	3543	
863.91	3984.7	
864.08	6252.4	
864.25	5794.4	
864.42	4349.2	
864.59	4836.6	
864.76	6543.3	
864.93	4922	
865.09	3345.7	
865.26	3674.7	
865.43	6059.3	
865.6	6485.2	
865.77	2990	
865.94	3386	
866.1	6161	
866.27	5920	
866.44	5242.1	
866.61	3332	
866.78	5343.2	
866.95	5788.9	
867.11	3331.4	
867.28	3051.5	
867.45	5931.6	
867.62	4999.8	
867.79	4028.4	
867.96	3391.4	
868.12	4889.2	
868.29	5868.1	
868.46	2996.2	
868.63	4590.9	
868.8	6054.5	
868.97	5803.3	
869.13	3655.6	
869.3	3599.6	
869.47	5731.6	
869.64	5937.7	
869.81	3472.7	
869.97	3523.9	
870.14	5636.7	
870.31	6313.2	
870.48	3398.3	
870.65	4366.3	
870.81	5300.1	
870.98	5190.2	
871.15	3893.9	
871.32	3565.5	
871.48	5703.6	
871.65	6324.8	
871.82	3463.1	
871.99	3801	
872.16	6744	
872.32	6131.6	
872.49	3453.6	
872.66	3493.8	
872.83	5844.9	
872.99	5141.1	
873.16	3993.5	
873.33	3402.4	
873.5	5502.2	
873.67	5515.2	
873.83	3599.6	
874	4595.6	
874.17	5633.3	
874.34	6706.4	
874.5	4468	
874.67	4252.9	
874.84	6288.6	
875.01	4894.6	
875.17	4874.8	
875.34	3439.2	
875.51	5553.4	
875.68	6701.6	
875.84	4135.5	
876.01	5104.2	
876.18	5825.1	
876.34	5789.6	
876.51	3459.7	
876.68	3361.4	
876.85	5295.4	
877.01	6139.8	
877.18	4891.2	
877.35	3362.8	
877.52	5442.1	
877.68	4874.8	
877.85	3380.5	
878.02	3392.8	
878.18	5398.4	
878.35	5141.8	
878.52	2740.2	
878.69	3882.9	
878.85	5898.8	
879.02	5820.3	
879.19	4988.9	
879.35	3700	
879.52	5713.2	
879.69	6038.8	
879.86	2977.7	
880.02	3862.5	
880.19	5388.2	
880.36	6597.9	
880.52	3970.3	
880.69	4057.7	
880.86	5922	
881.02	6001.2	
881.19	3796.9	
881.36	3756	
881.52	5779.4	
881.69	5132.2	
881.86	3686.3	
882.02	3700.7	
882.19	6061.3	
882.36	7108.5	
882.52	3532.1	
882.69	4893.3	
882.86	5601.9	
883.02	5489.2	
883.19	4258.4	
883.36	3990.8	
883.52	5844.2	
883.69	6765.8	
883.86	3494.5	
884.02	3162.1	
884.19	5836	
884.36	5350.7	
884.52	3911.6	
884.69	3678.8	
884.86	5141.8	
885.02	6505.7	
885.19	3843.4	
885.36	4010.6	
885.52	5416.9	
885.69	5601.9	
885.86	5029.8	
886.02	4354.7	
886.19	5849.7	
886.35	5337.7	
886.52	3809.9	
886.69	4872.1	
886.85	4982	
887.02	6217.6	
887.19	6217.6	
887.35	6217.6	
887.52	6217.6	
887.68	6217.6	
887.85	6217.6	
888.02	6217.6	
888.18	6217.6	
888.35	6217.6	
888.51	6217.6	
888.68	6217.6	
888.85	6217.6	
889.01	6217.6	
889.18	6217.6	
889.35	6217.6	
889.51	6217.6	
889.68	6217.6	
889.84	6217.6	
890.01	6217.6	
890.17	6217.6	
890.34	6217.6	
890.51	6217.6	
890.67	6217.6	
890.84	6217.6	
891	6217.6	
891.17	6217.6	
891.34	6217.6	
891.5	6217.6	
891.67	6217.6	
891.83	6217.6	
892	6217.6	
892.16	6217.6	
892.33	6217.6	
892.5	6217.6	
892.66	6217.6	
892.83	6217.6	
892.99	6217.6	
893.16	6217.6	
893.32	6217.6	
893.49	6217.6	
893.65	6217.6	
893.82	6217.6	
893.99	6217.6	
894.15	6217.6	
894.32	6217.6	
894.48	6217.6	
894.65	6217.6	
894.81	6217.6	
894.98	6217.6	
895.14	6217.6	
895.31	6217.6	
895.47	6217.6	
895.64	6217.6	
895.81	6217.6	
895.97	6217.6	
896.14	6217.6	
896.3	6217.6	
896.47	6217.6	
896.63	6217.6	
896.8	6217.6	
896.96	6217.6	
897.13	6217.6	
897.29	6217.6	
897.46	6217.6	
897.62	6217.6	
897.79	6217.6	
897.95	6217.6	
898.12	6217.6	
898.28	6217.6	
898.45	6217.6	
898.61	6217.6	
898.78	6217.6	
898.94	6217.6	
899.11	6217.6	
899.27	6217.6	
899.44	6217.6	
899.6	6217.6	
899.77	6217.6	
899.93	6217.6	
900.1	6217.6	
900.26	6217.6	
900.43	6217.6	
900.59	6217.6	
900.76	6217.6	
900.92	6217.6	
901.09	6217.6	
901.25	6217.6	
901.42	6217.6	
901.58	6217.6	
901.75	6217.6	
901.91	6217.6	
902.07	6217.6	
902.24	6217.6	
902.4	6217.6	
902.57	6217.6	
902.73	6217.6	
902.9	6217.6	
903.06	6217.6	
903.23	6217.6	
903.39	6217.6	
903.56	6217.6	
903.72	6217.6	
903.88	6217.6	
904.05	6217.6	
904.21	6217.6	
904.38	6217.6	
904.54	6217.6	
904.71	6217.6	
904.87	6217.6	
905.03	6217.6	
905.2	6217.6	
905.36	6217.6	
905.53	6217.6	
905.69	6217.6	
905.86	6217.6	
906.02	6217.6	
906.18	6217.6	
906.35	6217.6	
906.51	6217.6	
906.68	6217.6	
906.84	6217.6	
907.01	6217.6	
907.17	6217.6	
907.33	6217.6	
907.5	6217.6	
907.66	6217.6	
907.83	6217.6	
907.99	6217.6	
908.15	6217.6	
908.32	6217.6	
908.48	6217.6	
908.65	6217.6	
908.81	6217.6	
908.97	6217.6	
909.14	6217.6	
909.3	6217.6	
909.47	6217.6	
909.63	6217.6	
909.79	6217.6	
909.96	6217.6	
910.12	6217.6	
910.28	6217.6	
910.45	6217.6	
910.61	6217.6	
910.78	6217.6	
910.94	6217.6	
911.1	6217.6	
911.27	6217.6	
911.43	6217.6	
911.59	6217.6	
911.76	6217.6	
911.92	6217.6	
912.08	6217.6	
912.25	6217.6	
912.41	6217.6	
912.57	6217.6	
912.74	6217.6	
912.9	6217.6	
913.07	6217.6	
913.23	6217.6	
913.39	6217.6	
913.56	6217.6	
913.72	6217.6	
913.88	6217.6	
914.05	6217.6	
914.21	6217.6	
914.37	6217.6	
914.54	6217.6	
914.7	6217.6	
914.86	6217.6	
915.03	6217.6	
915.19	6217.6	
