Wavelength	Intensities	
nm	a.u.	
179.22	1904.8	
179.44	1898.8	
179.65	1910.8	
179.86	1886.9	
180.08	1927.1	
180.29	5071.5	
180.51	3596.2	
180.72	5793.7	
180.94	6765.1	
181.15	3332.7	
181.37	3248.8	
181.58	5617.6	
181.79	5863.3	
182.01	3417.4	
182.22	3681.6	
182.44	5902.2	
182.65	4869.4	
182.87	4622.9	
183.08	4093.9	
183.29	6265.4	
183.51	5089.9	
183.72	3776.5	
183.94	5477	
184.15	5513.8	
184.37	5502.9	
184.58	3295.2	
184.79	4509.6	
185.01	5119.2	
185.22	5821.7	
185.44	4762.2	
185.65	4033.1	
185.86	5380	
186.08	4991.6	
186.29	3167.5	
186.51	3481.5	
186.72	5109.7	
186.94	6040.1	
187.15	3945.8	
187.36	4176.5	
187.58	7954.3	
187.79	5612.8	
188.01	4329.4	
188.22	6727.6	
188.43	6794.5	
188.65	5848.3	
188.86	3492.5	
189.08	4162.8	
189.29	5294	
189.5	5290.6	
189.72	3809.9	
189.93	3934.8	
190.15	6107	
190.36	7307.2	
190.57	4206.5	
190.79	4078.9	
191	6143.9	
191.22	6121.4	
191.43	4218.8	
191.64	3451.5	
191.86	6399.2	
192.07	6120.7	
192.29	3607.8	
192.5	3846.1	
192.71	6086.6	
192.93	5266	
193.14	3787.4	
193.35	3851.5	
193.57	5230.5	
193.78	6081.1	
194	3026.2	
194.21	3737.5	
194.42	5017.5	
194.64	5559.6	
194.85	4127.3	
195.07	4852.3	
195.28	5545.9	
195.49	4726.7	
195.71	5107	
195.92	3573	
196.13	5707.7	
196.35	5771.9	
196.56	5490.6	
196.78	4139.6	
196.99	7264.1	
197.2	6714.6	
197.42	4690.5	
197.63	4188.8	
197.84	4909	
198.06	5677.7	
198.27	3865.9	
198.48	5049.6	
198.7	5261.9	
198.91	5386.2	
199.13	4149.2	
199.34	4128.7	
199.55	5915.2	
199.77	4741.7	
199.98	3615.3	
200.19	4167.6	
200.41	5295.4	
200.62	5102.2	
200.83	4341	
201.05	4712.4	
201.26	5421.7	
201.47	5068	
201.69	3705.5	
201.9	3562.1	
202.11	5504.3	
202.33	6511.9	
202.54	3943.7	
202.76	4367	
202.97	5651.7	
203.18	5626.5	
203.4	4374.5	
203.61	4191.5	
203.82	5569.8	
204.04	5195.7	
204.25	4146.5	
204.46	4117.1	
204.68	5497.4	
204.89	5783.5	
205.1	4061.8	
205.32	3528	
205.53	5980.8	
205.74	6112.5	
205.96	3026.9	
206.17	4247.5	
206.38	5831.2	
206.6	6080.4	
206.81	4724.7	
207.02	3862.5	
207.24	5711.1	
207.45	6201.9	
207.66	3924.6	
207.88	3402.4	
208.09	5752.1	
208.3	5542.5	
208.52	3622.9	
208.73	4040.6	
208.94	5508.4	
209.15	6243.6	
209.37	3946.4	
209.58	4125.3	
209.79	6064	
210.01	5270.8	
210.22	3148.4	
210.43	3308.8	
210.65	5603.9	
210.86	5947.3	
211.07	4014	
211.29	3674.1	
211.5	5838.1	
211.71	5492	
211.93	3642.7	
212.14	3591.5	
212.35	5489.2	
212.56	5674.9	
212.78	4201.1	
212.99	3461.7	
213.2	6426.5	
213.42	5252.4	
213.63	3708.2	
213.84	4088.4	
214.06	4863.9	
214.27	5000.5	
214.48	3928.7	
214.69	4204.5	
214.91	6214.2	
215.12	6264.7	
215.33	4265.2	
215.55	4750.6	
215.76	6761.7	
215.97	5915.9	
216.18	4092.5	
216.4	3966.9	
216.61	5224.4	
216.82	5985.5	
217.04	3652.2	
217.25	3808.5	
217.46	6154.1	
217.67	5894.1	
217.89	3287	
218.1	3366.2	
218.31	5563	
218.53	5669.5	
218.74	3835.8	
218.95	3659	
219.16	5473.5	
219.38	6415.6	
219.59	3710.2	
219.8	4545.1	
220.01	7127.6	
220.23	5494	
220.44	4883.7	
220.65	3621.5	
220.87	5543.9	
221.08	6146	
221.29	3378.5	
221.5	4534.9	
221.72	7634.8	
221.93	5233.2	
222.14	4222.2	
222.35	4928.1	
222.57	5490.6	
222.78	5877	
222.99	3977.2	
223.2	4270.7	
223.42	5793.7	
223.63	5996.5	
223.84	3031.7	
224.05	3022.8	
224.27	7107.1	
224.48	6442.9	
224.69	4987.5	
224.9	4205.8	
225.12	5722	
225.33	5499.5	
225.54	3299.3	
225.75	3721.2	
225.97	5059.2	
226.18	5333.6	
226.39	4029.7	
226.6	3734.1	
226.82	5244.8	
227.03	5085.1	
227.24	4208.6	
227.45	3489.7	
227.67	5901.6	
227.88	6495.5	
228.09	4693.9	
228.3	4717.8	
228.52	5947.3	
228.73	5534.3	
228.94	3931.4	
229.15	3443.3	
229.36	5420.3	
229.58	5358.9	
229.79	3972.4	
230	4581.3	
230.21	6588.3	
230.43	5586.9	
230.64	4162.8	
230.85	4382	
231.06	5912.5	
231.28	5973.9	
231.49	3417.4	
231.7	4066.6	
231.91	5810.1	
232.12	5552.7	
232.34	3503.4	
232.55	4024.3	
232.76	6209.4	
232.97	5715.2	
233.18	3633.1	
233.4	4147.8	
233.61	5771.2	
233.82	5213.4	
234.03	3885	
234.25	3767.6	
234.46	7687.4	
234.67	5556.1	
234.88	4283.7	
235.09	3715.7	
235.31	5870.8	
235.52	5395	
235.73	4114.4	
235.94	3528	
236.15	5223	
236.37	6722.1	
236.58	3706.8	
236.79	4001	
237	5881.8	
237.21	5031.2	
237.43	4365.6	
237.64	3353.9	
237.85	10191	
238.06	5040.1	
238.27	4343.7	
238.48	3494.5	
238.7	5812.1	
238.91	5322.7	
239.12	4013.3	
239.33	4040	
239.54	5081	
239.76	5392.3	
239.97	3954.6	
240.18	4014	
240.39	6970.6	
240.6	5788.9	
240.82	4151.2	
241.03	3422.8	
241.24	5464	
241.45	6393.8	
241.66	3626.3	
241.87	4365.6	
242.09	6320	
242.3	6680.5	
242.51	4308.2	
242.72	4029	
242.93	5999.9	
243.14	5508.4	
243.36	4601.1	
243.57	5039.4	
243.78	6429.3	
243.99	5923.4	
244.2	4018.1	
244.41	3670	
244.63	5023.7	
244.84	5875.6	
245.05	4270	
245.26	3977.2	
245.47	5777.3	
245.68	6119.3	
245.9	5329.5	
246.11	4285	
246.32	5319.3	
246.53	5784.1	
246.74	6485.9	
246.95	3386	
247.16	4941.1	
247.38	5535.7	
247.59	3340.2	
247.8	3979.9	
248.01	5190.2	
248.22	5457.8	
248.43	3640.6	
248.64	3949.8	
248.86	4880.3	
249.07	5237.3	
249.28	3500	
249.49	4074.8	
249.7	6074.3	
249.91	6234	
250.12	3298.6	
250.34	3392.8	
250.55	5593	
250.76	5466.7	
250.97	4175.8	
251.18	4161.5	
251.39	6275	
251.6	5710.4	
251.81	4277.5	
252.03	4194.2	
252.24	5219.6	
252.45	6092.7	
252.66	3381.9	
252.87	4432.5	
253.08	5560.2	
253.29	7382.2	
253.5	3487.7	
253.72	4859.8	
253.93	5346.6	
254.14	6582.2	
254.35	3757.3	
254.56	3914.4	
254.77	5785.5	
254.98	5059.2	
255.19	3728	
255.41	4845.5	
255.62	5578.7	
255.83	6240.2	
256.04	4262.5	
256.25	4203.1	
256.46	6883.9	
256.67	5148.6	
256.88	4083	
257.09	4598.4	
257.31	5208	
257.52	5229.1	
257.73	5199.8	
257.94	3842.7	
258.15	5322.7	
258.36	5534.3	
258.57	4797.7	
258.78	3125.2	
258.99	6137.1	
259.2	5335.6	
259.41	3816	
259.63	3960.1	
259.84	6387.6	
260.05	6823.1	
260.26	5061.2	
260.47	3671.3	
260.68	6090.7	
260.89	5415.5	
261.1	4641.4	
261.31	3642	
261.52	6106.4	
261.73	6476.4	
261.95	4924.7	
262.16	4261.1	
262.37	6304.3	
262.58	6306.4	
262.79	4900.1	
263	3891.8	
263.21	5589.6	
263.42	4961.5	
263.63	3940.3	
263.84	3842	
264.05	6055.8	
264.26	6507.1	
264.47	4757.4	
264.69	4361.5	
264.9	6236.1	
265.11	5706.3	
265.32	3689.8	
265.53	3780.6	
265.74	5636	
265.95	4885.1	
266.16	4060.4	
266.37	4466.6	
266.58	5677.7	
266.79	5357.5	
267	3783.3	
267.21	3496.6	
267.42	5046.2	
267.63	5552.7	
267.84	3979.2	
268.06	3431	
268.27	5913.9	
268.48	6308.4	
268.69	3906.2	
268.9	4597	
269.11	6244.3	
269.32	5038.7	
269.53	3925.3	
269.74	3661.1	
269.95	5917.9	
270.16	4853	
270.37	3988.8	
270.58	4676.2	
270.79	5322.7	
271	6091.3	
271.21	4327.4	
271.42	4051.6	
271.63	5682.4	
271.84	5155.4	
272.05	3237.2	
272.26	3592.8	
272.47	5553.4	
272.68	5741.1	
272.89	3851.5	
273.11	4435.9	
273.32	5338.4	
273.53	6533	
273.74	4337.6	
273.95	4298	
274.16	6191	
274.37	5598.5	
274.58	4393.6	
274.79	3433.8	
275	5672.9	
275.21	6238.1	
275.42	5298.8	
275.63	4562.9	
275.84	5823.1	
276.05	7337.9	
276.26	4292.5	
276.47	4003.1	
276.68	5333.6	
276.89	6558.3	
277.1	4524	
277.31	3528.7	
277.52	5853.1	
277.73	5986.9	
277.94	3462.4	
278.15	3874.8	
278.36	5756.8	
278.57	5127.4	
278.78	3817.4	
278.99	4371	
279.2	5147.2	
279.41	5074.2	
279.62	5052.3	
279.83	3553.2	
280.04	6812.2	
280.25	5081.7	
280.46	5116.5	
280.67	4020.2	
280.88	5164.3	
281.09	6210.1	
281.3	4204.5	
281.51	5360.2	
281.72	6108.4	
281.93	6093.4	
282.14	3703.4	
282.35	4000.4	
282.56	6019.7	
282.77	6009.4	
282.98	3880.9	
283.19	4810.7	
283.4	7457.3	
283.61	5461.9	
283.82	3553.2	
284.03	4970.4	
284.24	5537	
284.45	6203.3	
284.66	4941.7	
284.87	4785.4	
285.08	6093.4	
285.29	6275	
285.5	3379.8	
285.71	3954.6	
285.92	6173.3	
286.12	6890.7	
286.33	4954	
286.54	3859.1	
286.75	6006	
286.96	5404.6	
287.17	3574.4	
287.38	4949.9	
287.59	5154.7	
287.8	5075.5	
288.01	3912.3	
288.22	4557.4	
288.43	6111.8	
288.64	5029.1	
288.85	4642.7	
289.06	4465.9	
289.27	5991	
289.48	6524.8	
289.69	4969.7	
289.9	4514.4	
290.11	6254.5	
290.32	5262.6	
290.53	4760.2	
290.74	4379.2	
290.94	5990.3	
291.15	6002.6	
291.36	3809.2	
291.57	4487.1	
291.78	5231.2	
291.99	4936.3	
292.2	3640.6	
292.41	4384.7	
292.62	6073.6	
292.83	5887.2	
293.04	5396.4	
293.25	3596.9	
293.46	5328.8	
293.67	6139.1	
293.88	3791.5	
294.09	3563.5	
294.29	5065.3	
294.5	5623.7	
294.71	4033.1	
294.92	3854.3	
295.13	5306.3	
295.34	6634.1	
295.55	3350.5	
295.76	3485	
295.97	5969.1	
296.18	6838.2	
296.39	3538.2	
296.6	3785.3	
296.81	5638.7	
297.01	5965.1	
297.22	3916.4	
297.43	3700.7	
297.64	5138.4	
297.85	5145.2	
298.06	3155.9	
298.27	3430.3	
298.48	5629.9	
298.69	5199.8	
298.9	4066.6	
299.11	3644.7	
299.31	5027.8	
299.52	5019.6	
299.73	4440	
299.94	4295.3	
300.15	5520	
300.36	5130.8	
300.57	4302.8	
300.78	4231.8	
300.99	5387.5	
301.2	5666.7	
301.4	3680.9	
301.61	4043.4	
301.82	5857.9	
302.03	5960.3	
302.24	4584.7	
302.45	3569.6	
302.66	5894.1	
302.87	6362.4	
303.08	3746.4	
303.29	5104.9	
303.49	5255.8	
303.7	5583.4	
303.91	3322.5	
304.12	4934.2	
304.33	5126.1	
304.54	5646.2	
304.75	3750.5	
304.96	3572.3	
305.16	5894.1	
305.37	6744	
305.58	3234.4	
305.79	3394.2	
306	5881.8	
306.21	4924.7	
306.42	3755.3	
306.63	5819.6	
306.83	5328.8	
307.04	6185.5	
307.25	4133.5	
307.46	4117.1	
307.67	4704.9	
307.88	6059.9	
308.09	3659	
308.29	3869.3	
308.5	5627.1	
308.71	6166.4	
308.92	3988.1	
309.13	3636.5	
309.34	5357.5	
309.55	5436	
309.75	4719.2	
309.96	4369.7	
310.17	6019.7	
310.38	5205.3	
310.59	4504.2	
310.8	3561.4	
311.01	5312.4	
311.21	5404.6	
311.42	3597.6	
311.63	3677.5	
311.84	5262.6	
312.05	5696.1	
312.26	4193.6	
312.46	4601.1	
312.67	5356.8	
312.88	5102.9	
313.09	3635.8	
313.3	3507.5	
313.51	6344.6	
313.71	6776.7	
313.92	3623.5	
314.13	3824.2	
314.34	5711.1	
314.55	5412.8	
314.76	4655	
314.96	4046.8	
315.17	5605.3	
315.38	6096.8	
315.59	3628.3	
315.8	3472	
316.01	6465.4	
316.21	6502.3	
316.42	3506.8	
316.63	4025.6	
316.84	5397.1	
317.05	6267.5	
317.26	4344.4	
317.46	3831.1	
317.67	5427.8	
317.88	5883.1	
318.09	4675.5	
318.3	3358	
318.5	5244.2	
318.71	5922.7	
318.92	5949.3	
319.13	4303.5	
319.34	6082.5	
319.54	6226.5	
319.75	3306.1	
319.96	3193.5	
320.17	5943.2	
320.38	6120.7	
320.58	3300.6	
320.79	4025.6	
321	6179.4	
321.21	6208.1	
321.42	4061.8	
321.62	3269.2	
321.83	5131.5	
322.04	5543.2	
322.25	3785.3	
322.46	3634.5	
322.66	5617.6	
322.87	5811.5	
323.08	4521.2	
323.29	3631.7	
323.5	6658.6	
323.7	5091.9	
323.91	4967	
324.12	4474.1	
324.33	5578.7	
324.53	5881.8	
324.74	4281.6	
324.95	4601.1	
325.16	4917.2	
325.37	5356.1	
325.57	3704.8	
325.78	3689.8	
325.99	5627.8	
326.2	5006.6	
326.4	5190.2	
326.61	3399.6	
326.82	5447.6	
327.03	5640.8	
327.24	5196.4	
327.44	4853.7	
327.65	5781.4	
327.86	4650.3	
328.07	4378.6	
328.27	3469.9	
328.48	6226.5	
328.69	5063.9	
328.9	5261.2	
329.1	3895.9	
329.31	5449.6	
329.52	6402.6	
329.73	3656.3	
329.93	4091.8	
330.14	5508.4	
330.35	5784.1	
330.56	6091.3	
330.76	4513	
330.97	5326.8	
331.18	5719.3	
331.39	4064.5	
331.59	3250.1	
331.8	6120	
332.01	6324.8	
332.22	3757.3	
332.42	4372.4	
332.63	5623	
332.84	5264	
333.05	4062.5	
333.25	3692.5	
333.46	5313.1	
333.67	5584.1	
333.88	3809.2	
334.08	4281.6	
334.29	7439.6	
334.5	6254.5	
334.7	3494.5	
334.91	5235.3	
335.12	5131.5	
335.33	5995.8	
335.53	4003.1	
335.74	6108.4	
335.95	5234.6	
336.16	5177.9	
336.36	4020.8	
336.57	4698	
336.78	5083.7	
336.98	6178.7	
337.19	4984.1	
337.4	3962.8	
337.61	6707.1	
337.81	5053	
338.02	3652.9	
338.23	4860.5	
338.43	6322.8	
338.64	5201.2	
338.85	3630.4	
339.05	4844.1	
339.26	6437.4	
339.47	4953.4	
339.68	3671.3	
339.88	5363.6	
340.09	5817.6	
340.3	5997.1	
340.5	4332.1	
340.71	3253.5	
340.92	5013.4	
341.13	6304.3	
341.33	3550.5	
341.54	4339	
341.75	5740.5	
341.95	5401.9	
342.16	4078.9	
342.37	4455	
342.57	5063.3	
342.78	5504.3	
342.99	4573.8	
343.19	3288.4	
343.4	5924.8	
343.61	5815.5	
343.81	3886.4	
344.02	3603.1	
344.23	6019.7	
344.43	6338.5	
344.64	4484.4	
344.85	4483.7	
345.06	5840.1	
345.26	6180.8	
345.47	4216.1	
345.68	4978.6	
345.88	4863.2	
346.09	6050.4	
346.3	4371	
346.5	3219.4	
346.71	5517.2	
346.92	5293.3	
347.12	3303.4	
347.33	4209.9	
347.54	6135	
347.74	6565.8	
347.95	4186	
348.16	3085.6	
348.36	5319.3	
348.57	5111.7	
348.78	4125.3	
348.98	4498.7	
349.19	5483.8	
349.39	5055.1	
349.6	3282.9	
349.81	3733.4	
350.01	5754.8	
350.22	5177.3	
350.43	4007.9	
350.63	4825.7	
350.84	5578	
351.05	5276.9	
351.25	3641.3	
351.46	3325.2	
351.67	6128.2	
351.87	5218.2	
352.08	3945.1	
352.29	4500.1	
352.49	5969.8	
352.7	5674.9	
352.9	3573.7	
353.11	4437.3	
353.32	6699.6	
353.52	5359.5	
353.73	3516.4	
353.94	4528.7	
354.14	5834.7	
354.35	5629.2	
354.55	3624.2	
354.76	4050.9	
354.97	5812.8	
355.17	5573.2	
355.38	3386	
355.59	4801.1	
355.79	5183.4	
356	5672.2	
356.2	3981.3	
356.41	3472.7	
356.62	4943.8	
356.82	5386.8	
357.03	4298	
357.24	3843.4	
357.44	5221.6	
357.65	5392.3	
357.85	5145.9	
358.06	4040	
358.27	4952	
358.47	5141.8	
358.68	3341.6	
358.88	4250.9	
359.09	5805.3	
359.3	6192.4	
359.5	4983.4	
359.71	4405.9	
359.91	6687.3	
360.12	6002.6	
360.33	4317.8	
360.53	4726	
360.74	5197.1	
360.94	5252.4	
361.15	4446.8	
361.36	3639.2	
361.56	5979.4	
361.77	5463.3	
361.97	4954	
362.18	3889.8	
362.38	6038.1	
362.59	5061.2	
362.8	3613.3	
363	3454.2	
363.21	4843.4	
363.41	5486.5	
363.62	4126	
363.83	5212.8	
364.03	5623	
364.24	6679.8	
364.44	5311.7	
364.65	5158.2	
364.85	5332.2	
365.06	5030.5	
365.27	3730	
365.47	3792.2	
365.68	6358.9	
365.88	5346.6	
366.09	4212	
366.29	3835.2	
366.5	5629.9	
366.71	6113.9	
366.91	5196.4	
367.12	4380.6	
367.32	6694.1	
367.53	5922	
367.73	4278.2	
367.94	5278.3	
368.14	5883.1	
368.35	6921.5	
368.56	4276.8	
368.76	4012	
368.97	5952.1	
369.17	7765.9	
369.38	3741.6	
369.58	3990.8	
369.79	5024.3	
369.99	6383.5	
370.2	5116.5	
370.4	4150.5	
370.61	5677	
370.82	6911.2	
371.02	3988.8	
371.23	3342.3	
371.43	4880.3	
371.64	6287.3	
371.84	3996.3	
372.05	5354.1	
372.25	7626	
372.46	6001.2	
372.66	4057.7	
372.87	4007.2	
373.07	6042.9	
373.28	7645.1	
373.48	5095.3	
373.69	4728.8	
373.9	5459.9	
374.1	5511.8	
374.31	5001.8	
374.51	4518.5	
374.72	6365.8	
374.92	5161.6	
375.13	5184.1	
375.33	4374.5	
375.54	5866.7	
375.74	5305.6	
375.95	4362.9	
376.15	5738.4	
376.36	5835.3	
376.56	5685.2	
376.77	4453	
376.97	4927.4	
377.18	6937.2	
377.38	5920	
377.59	5255.8	
377.79	3953.9	
378	5739.8	
378.2	6138.4	
378.41	3952.6	
378.61	3818.1	
378.82	6199.2	
379.02	5289.2	
379.23	4085.7	
379.43	5330.9	
379.64	6235.4	
379.84	5874.3	
380.05	3938.2	
380.25	3870	
380.46	5933	
380.66	5562.3	
380.87	5344.5	
381.07	5782.8	
381.28	6616.3	
381.48	6056.5	
381.69	3955.3	
381.89	3990.8	
382.1	4941.7	
382.3	6182.1	
382.51	5137.7	
382.71	6076.3	
382.91	6030.6	
383.12	6587.6	
383.32	4425	
383.53	4594.3	
383.73	5869.5	
383.94	5674.2	
384.14	4529.4	
384.35	3592.8	
384.55	5526.8	
384.76	6060.6	
384.96	4325.3	
385.17	4704.2	
385.37	6001.9	
385.58	5269.4	
385.78	4747.2	
385.98	3541.6	
386.19	5449	
386.39	5895.4	
386.6	4118.5	
386.8	4397.7	
387.01	6001.9	
387.21	5979.4	
387.42	4808.6	
387.62	5438.7	
387.83	5264.6	
388.03	6004	
388.23	4365.6	
388.44	5283.1	
388.64	4917.9	
388.85	5079.6	
389.05	4792.2	
389.26	5322.7	
389.46	7045.7	
389.67	6371.9	
389.87	4690.5	
390.07	4788.2	
390.28	5635.3	
390.48	5209.3	
390.69	3906.8	
390.89	4220.9	
391.1	5343.2	
391.3	6275.7	
391.5	5470.8	
391.71	6135.7	
391.91	5980.8	
392.12	7130.3	
392.32	5563	
392.53	4734.9	
392.73	5408	
392.93	5665.4	
393.14	4402.5	
393.34	5337.7	
393.55	6167.8	
393.75	5615.5	
393.95	4422.2	
394.16	4379.9	
394.36	5328.1	
394.57	6072.9	
394.77	3842	
394.98	4372.4	
395.18	5324.7	
395.38	5489.9	
395.59	5257.1	
395.79	4143	
396	5486.5	
396.2	5944.6	
396.4	4931.5	
396.61	4874.2	
396.81	6190.3	
397.02	5345.2	
397.22	5180.7	
397.42	5284.4	
397.63	6034	
397.83	5302.9	
398.04	4085.7	
398.24	4581.3	
398.44	5900.2	
398.65	4851	
398.85	3906.8	
399.05	3992.9	
399.26	5191.6	
399.46	7113.3	
399.67	4414.1	
399.87	4055	
400.07	5614.2	
400.28	5969.1	
400.48	4110.3	
400.69	5240.8	
400.89	6222.4	
401.09	6610.2	
401.3	4048.2	
401.5	5172.5	
401.7	6881.2	
401.91	7167.9	
402.11	4330.8	
402.32	4647.5	
402.52	6201.2	
402.72	6140.5	
402.93	4765.6	
403.13	3689.8	
403.33	6974	
403.54	5679.7	
403.74	4511	
403.94	5482.4	
404.15	5776	
404.35	6959	
404.56	4311	
404.76	6219.7	
404.96	6186.9	
405.17	5988.9	
405.37	5639.4	
405.57	4799.1	
405.78	6208.1	
405.98	5668.1	
406.18	4210.6	
406.39	5236.7	
406.59	6204.7	
406.79	5836	
407	4095.9	
407.2	4274.1	
407.4	6139.8	
407.61	6488	
407.81	4217.5	
408.01	6272.9	
408.22	5216.9	
408.42	7154.2	
408.62	5276.9	
408.83	4648.9	
409.03	5655.8	
409.23	5476.3	
409.44	4745.1	
409.64	5050.3	
409.84	6622.4	
410.05	6508.4	
410.25	4828.4	
410.45	4645.5	
410.66	5835.3	
410.86	8590.5	
411.06	5055.8	
411.27	4856.4	
411.47	8204.8	
411.67	6132.3	
411.88	5134.9	
412.08	5373.2	
412.28	6705.7	
412.49	7268.9	
412.69	4766.3	
412.89	4861.2	
413.09	7034.8	
413.3	6815.6	
413.5	4900.8	
413.7	4458.4	
413.91	6143.9	
414.11	7064.1	
414.31	4737	
414.52	5163.6	
414.72	6657.3	
414.92	6511.9	
415.12	4773.1	
415.33	5302.2	
415.53	6924.9	
415.73	7150.1	
415.94	5613.5	
416.14	5050.3	
416.34	5871.5	
416.55	5592.3	
416.75	6338.5	
416.95	5668.8	
417.15	6908.5	
417.36	7692.9	
417.56	6432	
417.76	5543.9	
417.97	7272.3	
418.17	6920.1	
418.37	5055.8	
418.57	5139	
418.78	6658.6	
418.98	6379.4	
419.18	6081.8	
419.38	5978.7	
419.59	6454.5	
419.79	6063.4	
419.99	5006.6	
420.2	5408	
420.4	6932.4	
420.6	7177.4	
420.8	4826.4	
421.01	4742.4	
421.21	6661.4	
421.41	6972	
421.61	5300.8	
421.82	4993.6	
422.02	6188.3	
422.22	7290.1	
422.42	5874.3	
422.63	5494	
422.83	6365.1	
423.03	7590.5	
423.23	5481	
423.44	4397.7	
423.64	6390.3	
423.84	6291.4	
424.04	4853	
424.25	4584.7	
424.45	7453.9	
424.65	7349.5	
424.85	4316.4	
425.06	4997	
425.26	7322.2	
425.46	5870.2	
425.66	5503.6	
425.87	5113.1	
426.07	7101.7	
426.27	6982.9	
426.47	5274.2	
426.67	4614.8	
426.88	7549.5	
427.08	6937.8	
427.28	5517.2	
427.48	4511.7	
427.69	5824.4	
427.89	6481.8	
428.09	5466.7	
428.29	4620.2	
428.5	7223.2	
428.7	6659.3	
428.9	4467.3	
429.1	4977.2	
429.3	6539.8	
429.51	7018.4	
429.71	4871.4	
429.91	5665.4	
430.11	6823.8	
430.31	7073	
430.52	5119.2	
430.72	5417.6	
430.92	7511.9	
431.12	6919.4	
431.32	4798.4	
431.53	5251	
431.73	5743.2	
431.93	7541.3	
432.13	4691.9	
432.33	4571.7	
432.54	6190.3	
432.74	6634.7	
432.94	4369	
433.14	5559.6	
433.34	6783.6	
433.55	6312.5	
433.75	5529.5	
433.95	7314.7	
434.15	6576	
434.35	6218.3	
434.56	4639.3	
434.76	4151.9	
434.96	6475.7	
435.16	6817	
435.36	4492.6	
435.56	5641.5	
435.77	6130.3	
435.97	6286.6	
436.17	6358.9	
436.37	5607.3	
436.57	6109.8	
436.78	5967.1	
436.98	7471.7	
437.18	6146	
437.38	6832.7	
437.58	6285.2	
437.78	6346.7	
437.99	4939	
438.19	6851.8	
438.39	7710.6	
438.59	4822.3	
438.79	4392.9	
438.99	7518.8	
439.2	6276.3	
439.4	4541	
439.6	4444.1	
439.8	6701.6	
440	7811	
440.2	5424.4	
440.4	5626.5	
440.61	7023.9	
440.81	7591.1	
441.01	4607.2	
441.21	5554.8	
441.41	7356.3	
441.61	6997.9	
441.81	5893.4	
442.02	6920.8	
442.22	7924.3	
442.42	7127.6	
442.62	4675.5	
442.82	4820.2	
443.02	7380.2	
443.22	6447	
443.43	5084.4	
443.63	4696	
443.83	6249.7	
444.03	6208.8	
444.23	5995.1	
444.43	5472.9	
444.63	6549.4	
444.83	7867.6	
445.04	4760.8	
445.24	6086.6	
445.44	7042.3	
445.64	7122.2	
445.84	5724.1	
446.04	5662.6	
446.24	6354.8	
446.44	7406.1	
446.65	4792.9	
446.85	5221	
447.05	6537.1	
447.25	7391.1	
447.45	5332.9	
447.65	4674.1	
447.85	6739.9	
448.05	6358.3	
448.25	5701.5	
448.46	5527.5	
448.66	6744	
448.86	6417.7	
449.06	4513.7	
449.26	5707.7	
449.46	6999.3	
449.66	6065.4	
449.86	5155.4	
450.06	5162.2	
450.26	6152.8	
450.47	6784.9	
450.67	5500.8	
450.87	5812.1	
451.07	6976.1	
451.27	6698.9	
451.47	4743.8	
451.67	5273.5	
451.87	6296.1	
452.07	7617.1	
452.27	4931.5	
452.47	4966.3	
452.67	6679.1	
452.88	7215.7	
453.08	4296	
453.28	6464.8	
453.48	7871	
453.68	6663.4	
453.88	4829.1	
454.08	5079	
454.28	6952.2	
454.48	6650.4	
454.68	5596.4	
454.88	6253.1	
455.08	7059.3	
455.28	6786.3	
455.48	4704.9	
455.68	5367.7	
455.89	7549.5	
456.09	7251.2	
456.29	5001.1	
456.49	5013.4	
456.69	7382.2	
456.89	6932.4	
457.09	5680.4	
457.29	5929.6	
457.49	6980.2	
457.69	7067.5	
457.89	5397.1	
458.09	4775.9	
458.29	6701.6	
458.49	7405.5	
458.69	5716.6	
458.89	5217.5	
459.09	7595.2	
459.29	7870.3	
459.49	5264	
459.69	6143.9	
459.9	7213.6	
460.1	6673	
460.3	5213.4	
460.5	5008.6	
460.7	7166.5	
460.9	6869.6	
461.1	4575.8	
461.3	5905	
461.5	7789.8	
461.7	7416.4	
461.9	4959.5	
462.1	5485.1	
462.3	6815.6	
462.5	7444.4	
462.7	5137	
462.9	5133.6	
463.1	8521.6	
463.3	8097	
463.5	5266.7	
463.7	6264.7	
463.9	7034.1	
464.1	7381.6	
464.3	5373.2	
464.5	5728.2	
464.7	7645.8	
464.9	7182.9	
465.1	7045.7	
465.3	5954.1	
465.5	8018.5	
465.7	7848.5	
465.9	6279.8	
466.1	6102.9	
466.3	7651.9	
466.5	7548.1	
466.7	7045	
466.9	5828.5	
467.1	7394.5	
467.3	8475.9	
467.5	6911.9	
467.7	5614.2	
467.9	8704.5	
468.1	9595.4	
468.3	6549.4	
468.5	6900.3	
468.7	7435.5	
468.9	7417.1	
469.1	5950	
469.3	6696.2	
469.5	9458.2	
469.7	6922.8	
469.9	6470.2	
470.1	5672.2	
470.3	7335.8	
470.5	7454.6	
470.7	6976.7	
470.9	5834	
471.1	7109.2	
471.3	7639.6	
471.5	5586.9	
471.69	7701.7	
471.89	6997.9	
472.09	6625.9	
472.29	6439.5	
472.49	6926.9	
472.69	6769.2	
472.89	7712	
473.09	5511.1	
473.29	5745.9	
473.49	7000.6	
473.69	7187	
473.89	6718.7	
474.09	5857.9	
474.29	8475.9	
474.49	8191.2	
474.69	6713.9	
474.89	6004	
475.09	7170.6	
475.29	7221.1	
475.49	5399.8	
475.69	5677	
475.88	8918.9	
476.08	7545.4	
476.28	5328.1	
476.48	5890.6	
476.68	7991.2	
476.88	7860.1	
477.08	5702.2	
477.28	6023.8	
477.48	7322.2	
477.68	8075.1	
477.88	5462.6	
478.08	5859.9	
478.28	8278.6	
478.48	7460.8	
478.67	5831.9	
478.87	5371.8	
479.07	8046.5	
479.27	7520.1	
479.47	6125.5	
479.67	6070.9	
479.87	7885.4	
480.07	8396.7	
480.27	5289.2	
480.47	7008.8	
480.67	7591.8	
480.87	8246.5	
481.06	5628.5	
481.26	6504.3	
481.46	7522.2	
481.66	7457.3	
481.86	6026.5	
482.06	7232.1	
482.26	7266.2	
482.46	8189.8	
482.66	6002.6	
482.86	5651.7	
483.05	7564.5	
483.25	6963.1	
483.45	8645.2	
483.65	5994.4	
483.85	7087.3	
484.05	7385.7	
484.25	6584.2	
484.45	6907.1	
484.65	8439.7	
484.84	8386.4	
485.04	5941.8	
485.24	5900.2	
485.44	8621.3	
485.64	6863.4	
485.84	5213.4	
486.04	6675	
486.24	7256.6	
486.44	7664.9	
486.63	5143.1	
486.83	5982.1	
487.03	7091.4	
487.23	7307.8	
487.43	5315.2	
487.63	7718.8	
487.83	7382.9	
488.02	8431.5	
488.22	6237.4	
488.42	6943.3	
488.62	8268.3	
488.82	7209.5	
489.02	5855.8	
489.22	5922	
489.41	8145.5	
489.61	7746.8	
489.81	5565	
490.01	5691.3	
490.21	8019.2	
490.41	8754.4	
490.61	5614.2	
490.8	5840.1	
491	7525.6	
491.2	6853.2	
491.4	6348	
491.6	5440.8	
491.8	7582.3	
491.99	7770.7	
492.19	5316.5	
492.39	5733.6	
492.59	8131.1	
492.79	8103.8	
492.99	6611.5	
493.18	5596.4	
493.38	8180.3	
493.58	8981.7	
493.78	6399.9	
493.98	5945.9	
494.18	7818.5	
494.37	7266.9	
494.57	6532.3	
494.77	6386.9	
494.97	8087.4	
495.17	8244.4	
495.37	5852.4	
495.56	6210.8	
495.76	8473.8	
495.96	7992.5	
496.16	7246.4	
496.36	6042.2	
496.55	8305.2	
496.75	7750.9	
496.95	6500.9	
497.15	6354.8	
497.35	8256	
497.54	8183	
497.74	6177.4	
497.94	7948.2	
498.14	8832.9	
498.34	8761.9	
498.53	5739.1	
498.73	6696.2	
498.93	7527.7	
499.13	8113.4	
499.33	6374	
499.52	7032	
499.72	8100.4	
499.92	8511.4	
500.12	6045.6	
500.32	6369.2	
500.51	8411	
500.71	8142	
500.91	7140.6	
501.11	6731	
501.31	8306.6	
501.5	8803.5	
501.7	7452.6	
501.9	6365.8	
502.1	8094.9	
502.29	8464.3	
502.49	6855.9	
502.69	7384.3	
502.89	8349.6	
503.09	8328.4	
503.28	5834	
503.48	5967.1	
503.68	7566.6	
503.88	7547.4	
504.07	7022.5	
504.27	6581.5	
504.47	8045.8	
504.67	8144.8	
504.86	6921.5	
505.06	6649.8	
505.26	7716.1	
505.46	9561.3	
505.65	6445.6	
505.85	6883.2	
506.05	7661.5	
506.25	8078.6	
506.44	5859.9	
506.64	6861.4	
506.84	7561.1	
507.04	8594	
507.23	6145.3	
507.43	6713.9	
507.63	9683.5	
507.83	7842.4	
508.02	6686.6	
508.22	6306.4	
508.42	9871.2	
508.62	7623.9	
508.81	6587	
509.01	7128.3	
509.21	7483.3	
509.4	7722.2	
509.6	6765.1	
509.8	6066.1	
510	7746.1	
510.19	9321.7	
510.39	6117.3	
510.59	6238.1	
510.79	7451.9	
510.98	8961.9	
511.18	6232.7	
511.38	6358.3	
511.57	8355	
511.77	8373.5	
511.97	7103.7	
512.17	6037.4	
512.36	8449.2	
512.56	8445.1	
512.76	6013.5	
512.95	5816.2	
513.15	8612.4	
513.35	7126.2	
513.55	7032.7	
513.74	6128.2	
513.94	8445.8	
514.14	7760.4	
514.33	7086.7	
514.53	6769.9	
514.73	7752.2	
514.92	8023.9	
515.12	6371.9	
515.32	6127.5	
515.51	7995.3	
515.71	8730.5	
515.91	7916.1	
516.11	6128.2	
516.3	9837.1	
516.5	7600.7	
516.7	6812.9	
516.89	7348.1	
517.09	7756.3	
517.29	7699.7	
517.48	7114.6	
517.68	6505.7	
517.88	7481.9	
518.07	8206.2	
518.27	6993.8	
518.47	6010.1	
518.66	8773.5	
518.86	7333.8	
519.06	5768.4	
519.25	6296.1	
519.45	7664.9	
519.65	9213.8	
519.84	7012.2	
520.04	7697.6	
520.24	9544.2	
520.43	8359.8	
520.63	6690.7	
520.83	6341.2	
521.02	7557	
521.22	8357.1	
521.42	7084.6	
521.61	7591.1	
521.81	7849.2	
522.01	7959.8	
522.2	6829.3	
522.4	6611.5	
522.6	8422.6	
522.79	7297.6	
522.99	6633.4	
523.18	5963	
523.38	8200.1	
523.58	8156.4	
523.77	7976.2	
523.97	5841.5	
524.17	10115	
524.36	9224.1	
524.56	7455.3	
524.76	6872.3	
524.95	8145.5	
525.15	7767.9	
525.34	6748.1	
525.54	6658.6	
525.74	8523.6	
525.93	7423.9	
526.13	7925.6	
526.33	6647.7	
526.52	8919.6	
526.72	8230.8	
526.91	7883.3	
527.11	7071	
527.31	8902.5	
527.5	9245.9	
527.7	6980.2	
527.89	6082.5	
528.09	7720.2	
528.29	8285.4	
528.48	7447.1	
528.68	7124.2	
528.87	8671.1	
529.07	8793.3	
529.27	7035.5	
529.46	6528.9	
529.66	8331.8	
529.85	8826.7	
530.05	6369.2	
530.25	7163.1	
530.44	9782.5	
530.64	8314.1	
530.83	6797.2	
531.03	7010.2	
531.23	8723	
531.42	8632.2	
531.62	7887.4	
531.81	6957.6	
532.01	8803.5	
532.21	9364.7	
532.4	6638.1	
532.6	6982.2	
532.79	9751.7	
532.99	8897.7	
533.18	6993.1	
533.38	8054.7	
533.58	8419.2	
533.77	9249.3	
533.97	6892.8	
534.16	7944.8	
534.36	9396.1	
534.55	8448.6	
534.75	8014.4	
534.95	7092.1	
535.14	9214.5	
535.34	8482.7	
535.53	6727.6	
535.73	8801.5	
535.92	9943.6	
536.12	8706.6	
536.31	6839.5	
536.51	8161.8	
536.71	8966	
536.9	8547.5	
537.1	7117.4	
537.29	7193.1	
537.49	9469.1	
537.68	8394.6	
537.88	7592.5	
538.07	6782.9	
538.27	8723	
538.46	9758.6	
538.66	6614.3	
538.86	7075.7	
539.05	8761.9	
539.25	9159.9	
539.44	7414.3	
539.64	7061.4	
539.83	8539.3	
540.03	9588.6	
540.22	6820.4	
540.42	7060	
540.61	8842.4	
540.81	9013.8	
541	7511.3	
541.2	8148.2	
541.39	8414.4	
541.59	8797.4	
541.78	7802.8	
541.98	6980.8	
542.18	8030.1	
542.37	7966.6	
542.57	7387.7	
542.76	7906.5	
542.96	8074.5	
543.15	8973.5	
543.35	7406.8	
543.54	6612.9	
543.74	9246.6	
543.93	8752.3	
544.13	7383.6	
544.32	8484.1	
544.52	9119.6	
544.71	8222.6	
544.91	6398.5	
545.1	7748.8	
545.3	8243.1	
545.49	9030.2	
545.69	6414.2	
545.88	6991.1	
546.08	9962	
546.27	9599.5	
546.47	7575.4	
546.66	6922.8	
546.86	9296.4	
547.05	9919.7	
547.24	7034.8	
547.44	6873.7	
547.63	8133.8	
547.83	9362.6	
548.02	7353.6	
548.22	7542	
548.41	7941.3	
548.61	9426.1	
548.8	6911.9	
549	6841.6	
549.19	8692.9	
549.39	9017.9	
549.58	6605.4	
549.78	7237.5	
549.97	9117.6	
550.17	8602.2	
550.36	8025.3	
550.55	9088.2	
550.75	8511.4	
550.94	9627.5	
551.14	6746.7	
551.33	7231.4	
551.53	7944.8	
551.72	9003.6	
551.92	7323.5	
552.11	7030.7	
552.31	8957.1	
552.5	9051.3	
552.69	8798.1	
552.89	6680.5	
553.08	9015.2	
553.28	8657.4	
553.47	7018.4	
553.67	8276.5	
553.86	9652.1	
554.06	7933.1	
554.25	6197.2	
554.44	6903.7	
554.64	10471	
554.83	9949.7	
555.03	6766.5	
555.22	7183.6	
555.42	9189.9	
555.61	8930.5	
555.8	7041.6	
556	7309.2	
556.19	7947.5	
556.39	9394.7	
556.58	7034.8	
556.78	7081.9	
556.97	8758.5	
557.16	8503.8	
557.36	8447.2	
557.55	6683.2	
557.75	7724.9	
557.94	9672.6	
558.13	6773.3	
558.33	6612.9	
558.52	9480.7	
558.72	8247.2	
558.91	6756.9	
559.1	6977.4	
559.3	7918.1	
559.49	7669	
559.69	6217.6	
559.88	7311.2	
560.07	8848.6	
560.27	9215.2	
560.46	7481.2	
560.66	7707.2	
560.85	8555.7	
561.04	7747.5	
561.24	6668.2	
561.43	6889.4	
561.63	7999.4	
561.82	8265.6	
562.01	8267	
562.21	7277.1	
562.4	8763.3	
562.59	9805	
562.79	7086	
562.98	6719.4	
563.18	8637.6	
563.37	10294	
563.56	7624.6	
563.76	6593.1	
563.95	8116.1	
564.14	8077.9	
564.34	7090.8	
564.53	6829.3	
564.73	8637	
564.92	9098.4	
565.11	7253.2	
565.31	6590.4	
565.5	9252.7	
565.69	8245.8	
565.89	6836.8	
566.08	7145.4	
566.27	9225.4	
566.47	9644.6	
566.66	7695.6	
566.85	6413.6	
567.05	8860.9	
567.24	8085.4	
567.44	6702.3	
567.63	8182.3	
567.82	9028.1	
568.02	8667	
568.21	6752.8	
568.4	7177.4	
568.6	8537.3	
568.79	8677.2	
568.98	6567.2	
569.18	6690.7	
569.37	8557.8	
569.56	10688	
569.76	7077.8	
569.95	8130.4	
570.14	9025.4	
570.34	8721.6	
570.53	6513.9	
570.72	6569.2	
570.91	9423.4	
571.11	8518.9	
571.3	7065.5	
571.49	7968	
571.69	8595.3	
571.88	8174.1	
572.07	7746.1	
572.27	7642.3	
572.46	8102.4	
572.65	9195.4	
572.85	6873	
573.04	7268.9	
573.23	9513.5	
573.43	8705.2	
573.62	6521.4	
573.81	7277.8	
574	8633.6	
574.2	8422.6	
574.39	7004.7	
574.58	7181.5	
574.78	9565.4	
574.97	8841.8	
575.16	7538.6	
575.36	7773.4	
575.55	9144.9	
575.74	9312.1	
575.93	6624.5	
576.13	7772	
576.32	8512.7	
576.51	9162.6	
576.71	7088	
576.9	8483.4	
577.09	9471.9	
577.28	9039.1	
577.48	7475.1	
577.67	6497.5	
577.86	8570.7	
578.05	8959.2	
578.25	7206.8	
578.44	7362.4	
578.63	8764.6	
578.83	10005	
579.02	6543.9	
579.21	8208.3	
579.4	8963.3	
579.6	8619.9	
579.79	7447.1	
579.98	9780.4	
580.17	9407	
580.37	9388.6	
580.56	6816.3	
580.75	7668.3	
580.94	9843.9	
581.14	9719	
581.33	8109.3	
581.52	6898.9	
581.71	9145.5	
581.91	9891	
582.1	6636.1	
582.29	7320.8	
582.48	8741.4	
582.68	8699.8	
582.87	7744.1	
583.06	7385	
583.25	9116.2	
583.45	8484.7	
583.64	8128.4	
583.83	8917.5	
584.02	8568	
584.21	9056.8	
584.41	8094.9	
584.6	7277.8	
584.79	8767.4	
584.98	9680.1	
585.18	6799.3	
585.37	6828.6	
585.56	8310.7	
585.75	9124.4	
585.94	7044.3	
586.14	7763.2	
586.33	9903.3	
586.52	8828.8	
586.71	7529.7	
586.91	7334.5	
587.1	8234.2	
587.29	9363.3	
587.48	7247.1	
587.67	7075	
587.87	9158.5	
588.06	9254.8	
588.25	8470.4	
588.44	7770	
588.63	8804.2	
588.83	9450	
589.02	7162.4	
589.21	7060	
589.4	8531.2	
589.59	8370	
589.78	6378.1	
589.98	6588.3	
590.17	8165.9	
590.36	8727.1	
590.55	5983.5	
590.74	6907.8	
590.94	10124	
591.13	8569.4	
591.32	6641.6	
591.51	6090.7	
591.7	9091.6	
591.89	8464.9	
592.09	6223.8	
592.28	6831.3	
592.47	7729	
592.66	9671.9	
592.85	6314.6	
593.05	6576.7	
593.24	8339.3	
593.43	9136.7	
593.62	6642.2	
593.81	7172.7	
594	8432.2	
594.19	8591.2	
594.39	6559.6	
594.58	6491.4	
594.77	8778.3	
594.96	9433.6	
595.15	6393.1	
595.34	7133.8	
595.54	8822	
595.73	7762.5	
595.92	5842.2	
596.11	7034.8	
596.3	9264.3	
596.49	7935.2	
596.68	6821.8	
596.88	7247.8	
597.07	9011.7	
597.26	7741.3	
597.45	6355.5	
597.64	7593.2	
597.83	8058.1	
598.02	8717.5	
598.22	6423.8	
598.41	7062.8	
598.6	8482	
598.79	7867.6	
598.98	6453.8	
599.17	7468.9	
599.36	8402.8	
599.55	9801.6	
599.74	8649.3	
599.94	8430.1	
600.13	9098.4	
600.32	7860.1	
600.51	6167.8	
600.7	6332.3	
600.89	9786.6	
601.08	9790	
601.27	6075	
601.47	7207.5	
601.66	9028.8	
601.85	9831.6	
602.04	6853.2	
602.23	6988.4	
602.42	8073.1	
602.61	8748.2	
602.8	6708.5	
602.99	6503.7	
603.18	8394.6	
603.37	8701.1	
603.57	7234.1	
603.76	7776.8	
603.95	9490.3	
604.14	9002.2	
604.33	6589.7	
604.52	7006.8	
604.71	8609.7	
604.9	8291.5	
605.09	7583.6	
605.28	7473.7	
605.47	9284.8	
605.66	8974.2	
605.86	7201.3	
606.05	6616.3	
606.24	9228.1	
606.43	7737.9	
606.62	6933.1	
606.81	7776.1	
607	9050.7	
607.19	8385.7	
607.38	6454.5	
607.57	6664.1	
607.76	8204.8	
607.95	7667.6	
608.14	7152.9	
608.33	7750.9	
608.52	8170.7	
608.72	9069.8	
608.91	6212.2	
609.1	6130.9	
609.29	8246.5	
609.48	7765.9	
609.67	7225.2	
609.86	6303	
610.05	7866.9	
610.24	8219.2	
610.43	6150.1	
610.62	5737	
610.81	9424.8	
611	9083.4	
611.19	6281.1	
611.38	7106.5	
611.57	8668.4	
611.76	10034	
611.95	6121.4	
612.14	5889.3	
612.33	8353	
612.52	7838.3	
612.71	6634.1	
612.9	5788.9	
613.09	7469.6	
613.28	9871.9	
613.47	6437.4	
613.66	7421.2	
613.85	8400.8	
614.04	7935.2	
614.24	6453.8	
614.43	5565	
614.62	8670.4	
614.81	8482	
615	7139.2	
615.19	7108.5	
615.38	7795.3	
615.57	8230.8	
615.76	6887.3	
615.95	7907.2	
616.14	8637.6	
616.33	8259.5	
616.52	7247.1	
616.71	7563.8	
616.9	8606.9	
617.09	8375.5	
617.28	6582.9	
617.47	8155	
617.66	7645.8	
617.85	7720.8	
618.04	7507.2	
618.22	7008.1	
618.41	7986.4	
618.6	8949.6	
618.79	6778.8	
618.98	6472.9	
619.17	9334.6	
619.36	7527.7	
619.55	6653.2	
619.74	6739.2	
619.93	8551	
620.12	7873.1	
620.31	7247.8	
620.5	7398.6	
620.69	9097.1	
620.88	9529.2	
621.07	8209.6	
621.26	7205.4	
621.45	8682	
621.64	8794	
621.83	7302.4	
622.02	6379.4	
622.21	8860.9	
622.4	8540.7	
622.59	7870.3	
622.78	7595.9	
622.97	7988.4	
623.16	9129.8	
623.35	7264.1	
623.54	6294.1	
623.72	8297.7	
623.91	8449.2	
624.1	7539.3	
624.29	6137.1	
624.48	9602.9	
624.67	8758.5	
624.86	7378.1	
625.05	6431.3	
625.24	9714.9	
625.43	7953.6	
625.62	9274.6	
625.81	6700.3	
626	9112.1	
626.19	8307.9	
626.38	7479.9	
626.56	6874.3	
626.75	8208.3	
626.94	8943.5	
627.13	7444.4	
627.32	6172.6	
627.51	8853.4	
627.7	10271	
627.89	6266.1	
628.08	7496.9	
628.27	8017.1	
628.46	8185.7	
628.65	6576.7	
628.83	6240.2	
629.02	8862.9	
629.21	8068.3	
629.4	7023.2	
629.59	7280.5	
629.78	7922.2	
629.97	9066.4	
630.16	7347.4	
630.35	6741.9	
630.54	9465	
630.72	9252	
630.91	6729.6	
631.1	7298.3	
631.29	8645.2	
631.48	8791.9	
631.67	7416.4	
631.86	6863.4	
632.05	8148.2	
632.24	8282	
632.42	6457.9	
632.61	7175.4	
632.8	8409.6	
632.99	8013	
633.18	7141.9	
633.37	7548.8	
633.56	8621.3	
633.75	8502.5	
633.93	7120.8	
634.12	6784.2	
634.31	9476	
634.5	9183.8	
634.69	6782.2	
634.88	7306.5	
635.07	8344.8	
635.25	9034.3	
635.44	7836.9	
635.63	8026.7	
635.82	8255.4	
636.01	7729.7	
636.2	7733.1	
636.39	7277.8	
636.57	9449.3	
636.76	9157.8	
636.95	6634.7	
637.14	8179.6	
637.33	8725.7	
637.52	9778.4	
637.7	6420.4	
637.89	7332.4	
638.08	8353.7	
638.27	9898.5	
638.46	7514	
638.65	8000.7	
638.83	9839.8	
639.02	8144.1	
639.21	7428.7	
639.4	7903.8	
639.59	8708.6	
639.78	8275.2	
639.96	6730.3	
640.15	6683.2	
640.34	8507.9	
640.53	8664.3	
640.72	6350.1	
640.91	6738.5	
641.09	7856.7	
641.28	9313.5	
641.47	6737.1	
641.66	7588.4	
641.85	8604.2	
642.03	8994	
642.22	7442.3	
642.41	6900.3	
642.6	7955.7	
642.79	7341.3	
642.97	6652.5	
643.16	7440.3	
643.35	8034.9	
643.54	7864.9	
643.73	6499.6	
643.91	7393.8	
644.1	7667.6	
644.29	8287.4	
644.48	6598.6	
644.67	6684.6	
644.85	7857.4	
645.04	8175.5	
645.23	6191.7	
645.42	6528.2	
645.6	7746.8	
645.79	8892.3	
645.98	6439.5	
646.17	5539.8	
646.36	7446.4	
646.54	8154.3	
646.73	7331	
646.92	6067.4	
647.11	7753.6	
647.29	8907.3	
647.48	6246.3	
647.67	5980.8	
647.86	9056.1	
648.05	9103.9	
648.23	6468.9	
648.42	7916.1	
648.61	8383	
648.8	8173.4	
648.98	6120	
649.17	6505	
649.36	7702.4	
649.55	7178.1	
649.73	6249	
649.92	6978.8	
650.11	7603.4	
650.3	7909.9	
650.48	6298.2	
650.67	6271.6	
650.86	8223.3	
651.05	7120.1	
651.23	6348	
651.42	6278.4	
651.61	7690.8	
651.79	7837.6	
651.98	6503.7	
652.17	6105	
652.36	8195.3	
652.54	7206.1	
652.73	6135.7	
652.92	5993	
653.11	8118.8	
653.29	8247.9	
653.48	5401.2	
653.67	6466.8	
653.85	7991.9	
654.04	9070.5	
654.23	6705.7	
654.42	6232	
654.6	7473.7	
654.79	8204.8	
654.98	5612.1	
655.16	6216.3	
655.35	7002	
655.54	7038.2	
655.73	5734.3	
655.91	5646.9	
656.1	8293.6	
656.29	6941.2	
656.47	5169.1	
656.66	7109.9	
656.85	7221.1	
657.03	7279.8	
657.22	5782.8	
657.41	5876.3	
657.59	7393.8	
657.78	7143.3	
657.97	5538.4	
658.16	6276.3	
658.34	8157.1	
658.53	8452	
658.72	7218.4	
658.9	7702.4	
659.09	7475.8	
659.28	7615.7	
659.46	6035.4	
659.65	5924.8	
659.84	7290.8	
660.02	7821.2	
660.21	5815.5	
660.4	5752.1	
660.58	8344.1	
660.77	7698.3	
660.96	6451.8	
661.14	5428.5	
661.33	8859.5	
661.52	8748.2	
661.7	5398.4	
661.89	9417.9	
662.08	7167.9	
662.26	6777.4	
662.45	5701.5	
662.64	5847.6	
662.82	7907.9	
663.01	7131	
663.2	5900.2	
663.38	6668.9	
663.57	7870.3	
663.75	7766.6	
663.94	6247.7	
664.13	7531.1	
664.31	7164.5	
664.5	7900.4	
664.69	6282.5	
664.87	7118.1	
665.06	6950.1	
665.25	7760.4	
665.43	7262.1	
665.62	7384.3	
665.8	8036.2	
665.99	7278.5	
666.18	6180.1	
666.36	6331	
666.55	8034.9	
666.74	8007.6	
666.92	5739.1	
667.11	7637.6	
667.29	7379.5	
667.48	8015.7	
667.67	7100.3	
667.85	6067.4	
668.04	7395.9	
668.22	7351.5	
668.41	6240.2	
668.6	6445.6	
668.78	7208.2	
668.97	7468.3	
669.15	6686.6	
669.34	5594.4	
669.53	7169.3	
669.71	7533.1	
669.9	5776.6	
670.08	6461.3	
670.27	7127.6	
670.46	7794.6	
670.64	6666.8	
670.83	6941.9	
671.01	7043	
671.2	7729.7	
671.38	5739.1	
671.57	5676.3	
671.76	8439	
671.94	9060.9	
672.13	5700.2	
672.31	6830.7	
672.5	7869	
672.69	7204.1	
672.87	5847.6	
673.06	6225.1	
673.24	7742	
673.43	7208.8	
673.61	6575.3	
673.8	6029.2	
673.98	7937.9	
674.17	8167.3	
674.36	6759.7	
674.54	6633.4	
674.73	7722.2	
674.91	7823.2	
675.1	6292	
675.28	5956.2	
675.47	7388.4	
675.65	8095.6	
675.84	6083.8	
676.03	6563.1	
676.21	7209.5	
676.4	6685.3	
676.58	6971.3	
676.77	6707.1	
676.95	8783.7	
677.14	7153.6	
677.32	5803.9	
677.51	5611.4	
677.69	8077.2	
677.88	6814.3	
678.06	5650.3	
678.25	5878.4	
678.44	7464.8	
678.62	7204.1	
678.81	5478.3	
678.99	6481.8	
679.18	8327.7	
679.36	7907.9	
679.55	6033.3	
679.73	6785.6	
679.92	7848.5	
680.1	7277.8	
680.29	7421.2	
680.47	6115.9	
680.66	7178.8	
680.84	8075.1	
681.03	5357.5	
681.21	6483.9	
681.4	7282.6	
681.58	7106.5	
681.77	5887.9	
681.95	5774.6	
682.14	8113.4	
682.32	8480.6	
682.51	6861.4	
682.69	5599.1	
682.88	7129	
683.06	7839.6	
683.25	6486.6	
683.43	6975.4	
683.62	7444.4	
683.8	7934.5	
683.99	7092.1	
684.17	6382.2	
684.36	8839	
684.54	7421.2	
684.73	5489.2	
684.91	5726.1	
685.1	7721.5	
685.28	7101.7	
685.46	6358.9	
685.65	6430.6	
685.83	7965.9	
686.02	7361.8	
686.2	5778	
686.39	5950.7	
686.57	6974	
686.76	8648.6	
686.94	5726.1	
687.13	6021.7	
687.31	7842.4	
687.5	7322.9	
687.68	5404.6	
687.86	6795.8	
688.05	9150.3	
688.23	6832.7	
688.42	6701.6	
688.6	5867.4	
688.79	7191.1	
688.97	7246.4	
689.16	6242.2	
689.34	5193.6	
689.52	8086.7	
689.71	8264.9	
689.89	6644.3	
690.08	5910.4	
690.26	7482.6	
690.45	7387	
690.63	6836.8	
690.81	6092	
691	7129	
691.18	7232.1	
691.37	6270.2	
691.55	8556.4	
691.74	7126.9	
691.92	9374.9	
692.1	6253.1	
692.29	5606.7	
692.47	7447.1	
692.66	6634.1	
692.84	5866.7	
693.02	6477	
693.21	6738.5	
693.39	7342	
693.58	6520.7	
693.76	5999.9	
693.94	8618.5	
694.13	8383.7	
694.31	5848.3	
694.5	7080.5	
694.68	7178.1	
694.86	7515.4	
695.05	6253.1	
695.23	6765.8	
695.42	7910.6	
695.6	10448	
695.78	7067.5	
695.97	5969.1	
696.15	7995.3	
696.34	7348.8	
696.52	5784.1	
696.7	6688.7	
696.89	7767.9	
697.07	7106.5	
697.25	6566.5	
697.44	8212.4	
697.62	7672.4	
697.81	8144.8	
697.99	6284.5	
698.17	6871.6	
698.36	7038.9	
698.54	7741.3	
698.72	6605.4	
698.91	5586.9	
699.09	7340.6	
699.28	7231.4	
699.46	6326.2	
699.64	6137.1	
699.83	7105.1	
700.01	8489.5	
700.19	7000.6	
700.38	5360.9	
700.56	8426	
700.74	7292.8	
700.93	5804.6	
701.11	6735.8	
701.29	7830.7	
701.48	9009.7	
701.66	6059.3	
701.84	6049	
702.03	7365.2	
702.21	8069.7	
702.39	5603.2	
702.58	6382.8	
702.76	7840.3	
702.94	8058.8	
703.13	5654.4	
703.31	8176.9	
703.49	6959	
703.68	8102.4	
703.86	5806	
704.04	6907.1	
704.23	7676.5	
704.41	8082	
704.59	6021.7	
704.78	7412.3	
704.96	8904.6	
705.14	8116.1	
705.33	5803.9	
705.51	6701.6	
705.69	7508.5	
705.87	8393.3	
706.06	6975.4	
706.24	5780.1	
706.42	7890.8	
706.61	8170	
706.79	7143.3	
706.97	5816.9	
707.16	7199.3	
707.34	7877.2	
707.52	6991.1	
707.7	6085.9	
707.89	7373.4	
708.07	7125.6	
708.25	7033.4	
708.44	7110.5	
708.62	7464.8	
708.8	8596	
708.98	7277.1	
709.17	6079.1	
709.35	7868.3	
709.53	7916.8	
709.72	5836	
709.9	6336.4	
710.08	8052.6	
710.26	8078.6	
710.45	7571.3	
710.63	6235.4	
710.81	7770.7	
710.99	7746.1	
711.18	6870.3	
711.36	6272.9	
711.54	7528.3	
711.72	8353.7	
711.91	6449.7	
712.09	5770.5	
712.27	7745.4	
712.45	8453.3	
712.64	6735.8	
712.82	5582.8	
713	7155.6	
713.18	7276.4	
713.37	5714.5	
713.55	7059.3	
713.73	8185.7	
713.91	6775.4	
714.1	6177.4	
714.28	5575.3	
714.46	7811	
714.64	6987	
714.83	4954.7	
715.01	5852.4	
715.19	7036.8	
715.37	6400.6	
715.55	5408	
715.74	5810.8	
715.92	8031.5	
716.1	5843.5	
716.28	6978.8	
716.47	5997.8	
716.65	6619	
716.83	6761.7	
717.01	5797.8	
717.19	5874.9	
717.38	8951.7	
717.56	6313.9	
717.74	6128.2	
717.92	5128.8	
718.1	7650.5	
718.29	6748.7	
718.47	4702.8	
718.65	5437.4	
718.83	7517.4	
719.01	7434.1	
719.2	4662.5	
719.38	5916.6	
719.56	7126.2	
719.74	8933.2	
719.92	5402.5	
720.11	6517.3	
720.29	7253.9	
720.47	6306.4	
720.65	4945.2	
720.83	5921.4	
721.02	6706.4	
721.2	6354.8	
721.38	5907	
721.56	5087.8	
721.74	5907.7	
721.92	6147.3	
722.11	6391	
722.29	6133	
722.47	7438.9	
722.65	6540.5	
722.83	5094	
723.01	6043.6	
723.2	6660	
723.38	6902.3	
723.56	4450.9	
723.74	5737	
723.92	6150.7	
724.1	7402.7	
724.29	5055.8	
724.47	6317.3	
724.65	6180.1	
724.83	6084.5	
725.01	4854.4	
725.19	5816.2	
725.37	6164.4	
725.56	6242.9	
725.74	4788.8	
725.92	5048.2	
726.1	6091.3	
726.28	6390.3	
726.46	5484.5	
726.64	5197.7	
726.83	6419	
727.01	6607.4	
727.19	4672.8	
727.37	5565.7	
727.55	6480.5	
727.73	7073.7	
727.91	4680.3	
728.09	4516.5	
728.28	7039.6	
728.46	7756.3	
728.64	5765.7	
728.82	5687.2	
729	8226	
729.18	7416.4	
729.36	4830.5	
729.54	7270.3	
729.72	8533.2	
729.91	6689.3	
730.09	6949.4	
730.27	5584.8	
730.45	6544.6	
730.63	7268.2	
730.81	6264.1	
730.99	5218.9	
731.17	7847.1	
731.35	6265.4	
731.53	5788.2	
731.71	5311.7	
731.9	7507.2	
732.08	7748.8	
732.26	5622.4	
732.44	5238.7	
732.62	7806.2	
732.8	7219.1	
732.98	6058.6	
733.16	5044.8	
733.34	7157.7	
733.52	5872.9	
733.7	5468.8	
733.88	5890.6	
734.07	7071	
734.25	6794.5	
734.43	4980	
734.61	6722.1	
734.79	8376.9	
734.97	6598.6	
735.15	5140.4	
735.33	5507	
735.51	6953.5	
735.69	6623.1	
735.87	6734.4	
736.05	5767.1	
736.23	6875	
736.41	6547.4	
736.59	5494	
736.77	5606	
736.95	7372	
737.13	6677.1	
737.32	5151.3	
737.5	5300.1	
737.68	7907.2	
737.86	6571.9	
738.04	4928.8	
738.22	6973.3	
738.4	6371.2	
738.58	6703.7	
738.76	5655.1	
738.94	4431.8	
739.12	6420.4	
739.3	6346.7	
739.48	6306.4	
739.66	5975.3	
739.84	6735.1	
740.02	6754.9	
740.2	4607.9	
740.38	5047.6	
740.56	7137.9	
740.74	5953.4	
740.92	5636.7	
741.1	5631.2	
741.28	6525.5	
741.46	6464.8	
741.64	5236	
741.82	5770.5	
742	6584.2	
742.18	6576	
742.36	5358.9	
742.54	4928.1	
742.72	7204.8	
742.9	5846.3	
743.08	5776	
743.26	4618.2	
743.44	7391.8	
743.62	7292.8	
743.8	6032.6	
743.98	4974.5	
744.16	6919.4	
744.34	6614.9	
744.52	5878.4	
744.7	5770.5	
744.88	7028.6	
745.06	6565.1	
745.24	5902.2	
745.42	6008.7	
745.6	7162.4	
745.78	6847	
745.96	4602.5	
746.14	5006.6	
746.32	8004.8	
746.5	7078.5	
746.68	5638.7	
746.86	5034.6	
747.03	7652.6	
747.21	5761.6	
747.39	5564.3	
747.57	5060.5	
747.75	6672.3	
747.93	7055.3	
748.11	5012.7	
748.29	4861.9	
748.47	8405.5	
748.65	6429.3	
748.83	5752.1	
749.01	5440.8	
749.19	6849.1	
749.37	6030.6	
749.55	5332.9	
749.73	5424.4	
749.91	6535.1	
750.09	6270.9	
750.26	5423	
750.44	4883.7	
750.62	6557.6	
750.8	6526.9	
750.98	4678.9	
751.16	5010.7	
751.34	6595.8	
751.52	5863.3	
751.7	5812.1	
751.88	4607.2	
752.06	7132.4	
752.24	6864.1	
752.42	4652.3	
752.59	4962.2	
752.77	6438.8	
752.95	7782.3	
753.13	5697.4	
753.31	5107.6	
753.49	6166.4	
753.67	6608.1	
753.85	5362.3	
754.03	4954.7	
754.21	6952.9	
754.38	7333.8	
754.56	5190.9	
754.74	4082.3	
754.92	6119.3	
755.1	6875.7	
755.28	4159.4	
755.46	4143	
755.64	7628.7	
755.82	7759.1	
755.99	4496.7	
756.17	4592.2	
756.35	5114.5	
756.53	6882.5	
756.71	3390.8	
756.89	4399	
757.07	6367.1	
757.25	5416.9	
757.42	4982.7	
757.6	5952.1	
757.78	6397.2	
757.96	5298.8	
758.14	4681	
758.32	4162.2	
758.5	4820.2	
758.67	5807.4	
758.85	4481	
759.03	4590.2	
759.21	6011.5	
759.39	5373.9	
759.57	4022.2	
759.75	5238	
759.92	6607.4	
760.1	5844.9	
760.28	5591	
760.46	5892	
760.64	5553.4	
760.82	5363.6	
760.99	5257.8	
761.17	4573.1	
761.35	6454.5	
761.53	5417.6	
761.71	4614.8	
761.89	5532.9	
762.06	6421.7	
762.24	5840.1	
762.42	4724.7	
762.6	4513.7	
762.78	5758.9	
762.96	6497.5	
763.13	5237.3	
763.31	4889.2	
763.49	6737.1	
763.67	5728.2	
763.85	5745.9	
764.02	6335.7	
764.2	7013.6	
764.38	6064.7	
764.56	4760.2	
764.74	5662.6	
764.91	7074.4	
765.09	5889.3	
765.27	4349.2	
765.45	4207.2	
765.63	7168.6	
765.8	6962.4	
765.98	3905.5	
766.16	4225	
766.34	5479.7	
766.52	5259.9	
766.69	5233.9	
766.87	4081.6	
767.05	5940.5	
767.23	6688	
767.41	4376.5	
767.58	4656.4	
767.76	6480.5	
767.94	6597.2	
768.12	4526.7	
768.29	5446.2	
768.47	5978.7	
768.65	6711.2	
768.83	4037.9	
769	5324.7	
769.18	5477.6	
769.36	6307.1	
769.54	5360.9	
769.72	4126	
769.89	6481.8	
770.07	6696.2	
770.25	4478.2	
770.43	5913.9	
770.6	7382.2	
770.78	7878.5	
770.96	4683	
771.14	5341.1	
771.31	6460	
771.49	5754.8	
771.67	3766.9	
771.85	4084.3	
772.02	4940.4	
772.2	5824.4	
772.38	4835.9	
772.55	4289.1	
772.73	6078.4	
772.91	5833.3	
773.09	4689.8	
773.26	4818.2	
773.44	6069.5	
773.62	5727.5	
773.8	4200.4	
773.97	3910.9	
774.15	6119.3	
774.33	5677.7	
774.5	4121.2	
774.68	4539.7	
774.86	6292	
775.04	5764.3	
775.21	4196.3	
775.39	4201.7	
775.57	5987.6	
775.74	6470.2	
775.92	4024.3	
776.1	3949.2	
776.27	5967.8	
776.45	7315.3	
776.63	4185.4	
776.81	3688.4	
776.98	5526.8	
777.16	6824.5	
777.34	4324.6	
777.51	4659.8	
777.69	5644.9	
777.87	5326.8	
778.04	4384	
778.22	5122.7	
778.4	5387.5	
778.57	6143.2	
778.75	3601.7	
778.93	3973.7	
779.1	5130.2	
779.28	5008	
779.46	3653.6	
779.64	4104.1	
779.81	6223.1	
779.99	7191.8	
780.17	5012.1	
780.34	5246.2	
780.52	5688.6	
780.69	5836.7	
780.87	4468	
781.05	4017.4	
781.22	5763.7	
781.4	5831.2	
781.58	4173.1	
781.75	3322.5	
781.93	5788.9	
782.11	5120.6	
782.28	5134.3	
782.46	4141	
782.64	4992.9	
782.81	5932.3	
782.99	4305.5	
783.17	4205.2	
783.34	5943.2	
783.52	5046.2	
783.69	4490.5	
783.87	5309	
784.05	5130.8	
784.22	5136.3	
784.4	5358.9	
784.58	4624.3	
784.75	6212.2	
784.93	5156.1	
785.1	4183.3	
785.28	4868.7	
785.46	5875.6	
785.63	5139.7	
785.81	4124.6	
785.99	4081.6	
786.16	5289.2	
786.34	5710.4	
786.51	4047.5	
786.69	4495.3	
786.87	4859.8	
787.04	5468.8	
787.22	3891.8	
787.39	4904.2	
787.57	5097.4	
787.75	6401.3	
787.92	5161.6	
788.1	5068.7	
788.27	5209.3	
788.45	4954	
788.63	4676.2	
788.8	3409.9	
788.98	5668.1	
789.15	4847.5	
789.33	3547.8	
789.5	4250.9	
789.68	6195.8	
789.86	6248.4	
790.03	4711.7	
790.21	4060.4	
790.38	6186.2	
790.56	5287.9	
790.73	3940.3	
790.91	3963.5	
791.09	5171.1	
791.26	6033.3	
791.44	4249.5	
791.61	3625.6	
791.79	5132.9	
791.96	5212.8	
792.14	3786.7	
792.32	3233.7	
792.49	5220.3	
792.67	5282.4	
792.84	3792.8	
793.02	3569.6	
793.19	5703.6	
793.37	6439.5	
793.54	3285.6	
793.72	3699.3	
793.89	6595.1	
794.07	5253	
794.25	4195.6	
794.42	3358	
794.6	6304.3	
794.77	5920	
794.95	4605.9	
795.12	3961.5	
795.3	5154.7	
795.47	5862.7	
795.65	4414.7	
795.82	4294.6	
796	4965	
796.17	7025.9	
796.35	4065.2	
796.52	4862.6	
796.7	5741.1	
796.87	5837.4	
797.05	5096	
797.22	4949.9	
797.4	5836	
797.57	6944	
797.75	4231.1	
797.92	4017.4	
798.1	6099.5	
798.27	5253.7	
798.45	3379.8	
798.62	3693.2	
798.8	5554.8	
798.97	6094.8	
799.15	4501.4	
799.32	4245.4	
799.5	4756.1	
799.67	5595.7	
799.85	4611.3	
800.02	3323.9	
800.2	5117.2	
800.37	5479	
800.55	4825	
800.72	4001.7	
800.9	6015.6	
801.07	6476.4	
801.25	5435.3	
801.42	4433.2	
801.6	6052.4	
801.77	5740.5	
801.95	4058.4	
802.12	3909.6	
802.29	5766.4	
802.47	5734.3	
802.64	4345.8	
802.82	3254.2	
802.99	5100.8	
803.17	6182.1	
803.34	4264.6	
803.52	3809.9	
803.69	6937.8	
803.87	4974.5	
804.04	4234.5	
804.21	4304.8	
804.39	6339.1	
804.56	5397.8	
804.74	3569.6	
804.91	4477.5	
805.09	5178.6	
805.26	5222.3	
805.44	3661.8	
805.61	4012	
805.78	5860.6	
805.96	5958.9	
806.13	4437.9	
806.31	4755.4	
806.48	4718.5	
806.66	5246.9	
806.83	4435.2	
807	4334.9	
807.18	5149.3	
807.35	5510.4	
807.53	4287.1	
807.7	3395.5	
807.87	6479.8	
808.05	5195	
808.22	4678.2	
808.4	3418.7	
808.57	5205.3	
808.74	4831.8	
808.92	3915.7	
809.09	5000.5	
809.27	5038.7	
809.44	5740.5	
809.61	3389.4	
809.79	3889.8	
809.96	6371.9	
810.14	6062.7	
810.31	3350.5	
810.48	4150.6	
810.66	5286.5	
810.83	6088.6	
811.01	3973.1	
811.18	4403.1	
811.35	6037.4	
811.53	4582	
811.7	4771.8	
811.87	4437.9	
812.05	5207.3	
812.22	5082.4	
812.39	3852.9	
812.57	3665.9	
812.74	5224.4	
812.92	7019.1	
813.09	4082.3	
813.26	4528.7	
813.44	6709.8	
813.61	5139.7	
813.78	3378.5	
813.96	4636.6	
814.13	5209.3	
814.3	4871.4	
814.48	4969.7	
814.65	4120.5	
814.82	6551.5	
815	5012.7	
815.17	4294.6	
815.34	5197.1	
815.52	5104.2	
815.69	5148.6	
815.87	4182.6	
816.04	3608.5	
816.21	5203.9	
816.38	4579.3	
816.56	4052.2	
816.73	3741.6	
816.9	6617	
817.08	6017.6	
817.25	3778.5	
817.42	4879.6	
817.6	4768.4	
817.77	5272.8	
817.94	4328	
818.12	3762.1	
818.29	4960.2	
818.46	7860.1	
818.64	3938.9	
818.81	3712.3	
818.98	4799.8	
819.16	7199.3	
819.33	4535.6	
819.5	4244.8	
819.67	5605.3	
819.85	6348	
820.02	4128.7	
820.19	4431.1	
820.37	5417.6	
820.54	4973.2	
820.71	4399.7	
820.88	5432.6	
821.06	5483.1	
821.23	4935.6	
821.4	4379.2	
821.58	4318.5	
821.75	6035.4	
821.92	5380	
822.09	3431.7	
822.27	3783.3	
822.44	5227.1	
822.61	5143.1	
822.79	3494.5	
822.96	6780.8	
823.13	5797.1	
823.3	4915.8	
823.48	4083	
823.65	3600.3	
823.82	5930.9	
823.99	4734.9	
824.17	5113.1	
824.34	3631.7	
824.51	6933.1	
824.68	5285.8	
824.86	3833.1	
825.03	4330.8	
825.2	5289.9	
825.37	6445.6	
825.55	3758	
825.72	4277.5	
825.89	6987.7	
826.06	6509.1	
826.24	4190.8	
826.41	4156	
826.58	6374.6	
826.75	5537.7	
826.92	3242.6	
827.1	3657	
827.27	8819.9	
827.44	6967.9	
827.61	3959.4	
827.79	4816.8	
827.96	4896.7	
828.13	5289.2	
828.3	4073.4	
828.47	3495.2	
828.65	5423	
828.82	5397.8	
828.99	5432.6	
829.16	4724	
829.34	5829.9	
829.51	5621	
829.68	4305.5	
829.85	4455.7	
830.02	6158.9	
830.2	5852.4	
830.37	3257	
830.54	5138.4	
830.71	6692.8	
830.88	5150.6	
831.05	3331.4	
831.23	3864.5	
831.4	6384.2	
831.57	7161.1	
831.74	3898.6	
831.91	3453.6	
832.09	5416.2	
832.26	5837.4	
832.43	4085	
832.6	4631.8	
832.77	5466	
832.94	6305	
833.12	3223.5	
833.29	3978.5	
833.46	5196.4	
833.63	7510.6	
833.8	4484.4	
833.97	4150.5	
834.15	5972.6	
834.32	5630.5	
834.49	4301.4	
834.66	4405.9	
834.83	6067.4	
835	4968.4	
835.17	3940.3	
835.35	4003.1	
835.52	5697.4	
835.69	5651.7	
835.86	4236.6	
836.03	3384.6	
836.2	5794.4	
836.37	5433.3	
836.55	4109.6	
836.72	3850.2	
836.89	5390.9	
837.06	5972.6	
837.23	4166.3	
837.4	4610	
837.57	6627.2	
837.75	7410.9	
837.92	3775.8	
838.09	3939.6	
838.26	5363.6	
838.43	6152.1	
838.6	4285	
838.77	3830.4	
838.94	7049.1	
839.11	6780.1	
839.29	4051.6	
839.46	3229	
839.63	5760.9	
839.8	5579.3	
839.97	3955.3	
840.14	3962.1	
840.31	5595.7	
840.48	5833.3	
840.65	3293.8	
840.82	4033.8	
841	5798.5	
841.17	5787.6	
841.34	3662.5	
841.51	3697.9	
841.68	5728.9	
841.85	5509	
842.02	3816.7	
842.19	3149.8	
842.36	5547.3	
842.53	5539.8	
842.7	3644.7	
842.87	4532.8	
843.05	7406.1	
843.22	5456.5	
843.39	3424.2	
843.56	3737.5	
843.73	5193.6	
843.9	5892.7	
844.07	5992.4	
844.24	4986.8	
844.41	8729.1	
844.58	5061.9	
844.75	3469.3	
844.92	3812.6	
845.09	5827.8	
845.26	5782.1	
845.43	3589.4	
845.6	3790.8	
845.77	5856.5	
845.94	5567.7	
846.12	4009.9	
846.29	4229.1	
846.46	6004	
846.63	5851.7	
846.8	3630.4	
846.97	4293.2	
847.14	6343.9	
847.31	5800.5	
847.48	4123.2	
847.65	4592.2	
847.82	6161	
847.99	6047	
848.16	4947.9	
848.33	4582.7	
848.5	5354.8	
848.67	6382.2	
848.84	3610.6	
849.01	3790.8	
849.18	5147.9	
849.35	4855.7	
849.52	4569	
849.69	3611.9	
849.86	6051.7	
850.03	6354.2	
850.2	3590.8	
850.37	4465.3	
850.54	6210.8	
850.71	5478.3	
850.88	4375.1	
851.05	3583.9	
851.22	5739.1	
851.39	6431.3	
851.56	3413.3	
851.73	4121.9	
851.9	5111.7	
852.07	6084.5	
852.24	3973.7	
852.41	3586.7	
852.58	5672.9	
852.75	5119.2	
852.92	4052.2	
853.09	3498.6	
853.26	5409.4	
853.43	6268.1	
853.6	3559.4	
853.77	3101.3	
853.94	6372.6	
854.11	5787.6	
854.28	5376.6	
854.44	3896.6	
854.61	6891.4	
854.78	6115.2	
854.95	3543.7	
855.12	4602.5	
855.29	4666.6	
855.46	6533	
855.63	3573.7	
855.8	5036.6	
855.97	5378.6	
856.14	6181.5	
856.31	5171.1	
856.48	3917.8	
856.65	5356.1	
856.82	5027.8	
856.99	3463.8	
857.16	3951.2	
857.33	7207.5	
857.49	5415.5	
857.66	3841.3	
857.83	4200.4	
858	5373.2	
858.17	5646.2	
858.34	3355.3	
858.51	3608.5	
858.68	6504.3	
858.85	6598.6	
859.02	4159.4	
859.19	4496	
859.36	5052.3	
859.52	5137	
859.69	3642	
859.86	4270.7	
860.03	5170.4	
860.2	6406	
860.37	3272.7	
860.54	3628.3	
860.71	6064.7	
860.88	6490	
861.05	4064.5	
861.21	4515.1	
861.38	6531	
861.55	4996.4	
861.72	3336.1	
861.89	4042	
862.06	6137.8	
862.23	6688.7	
862.4	3536.2	
862.56	3758	
862.73	5939.1	
862.9	5608	
863.07	4304.8	
863.24	3308.8	
863.41	4979.3	
863.58	5128.1	
863.75	3775.1	
863.91	4191.5	
864.08	6494.8	
864.25	6001.9	
864.42	4539	
864.59	5130.8	
864.76	6822.5	
864.93	5122.7	
865.09	3445.4	
865.26	3853.6	
865.43	6331	
865.6	6767.9	
865.77	3106.8	
865.94	3587.4	
866.1	6394.4	
866.27	6167.8	
866.44	5513.1	
866.61	3442	
866.78	5485.1	
866.95	6004	
867.11	3473.4	
867.28	3173	
867.45	6152.8	
867.62	5233.2	
867.79	4216.8	
867.96	3644	
868.12	5072.1	
868.29	6118	
868.46	3063.1	
868.63	4856.4	
868.8	6268.8	
868.97	6015.6	
869.13	3796.3	
869.3	3773	
869.47	5909.1	
869.64	6152.1	
869.81	3610.6	
869.97	3635.8	
870.14	5783.5	
870.31	6507.1	
870.48	3564.1	
870.65	4607.9	
870.81	5410.1	
870.98	5367.7	
871.15	4117.8	
871.32	3736.2	
871.48	5912.5	
871.65	6564.4	
871.82	3629	
871.99	3981.9	
872.16	7058.7	
872.32	6427.9	
872.49	3696.6	
872.66	3626.3	
872.83	6007.4	
872.99	5290.6	
873.16	4162.8	
873.33	3552.5	
873.5	5664.7	
873.67	5662.6	
873.83	3763.5	
874	4852.3	
874.17	5801.9	
874.34	6954.2	
874.5	4695.3	
874.67	4530.8	
874.84	6487.3	
875.01	5104.9	
875.17	5187.5	
875.34	3580.5	
875.51	5850.4	
875.68	7018.4	
875.84	4395.6	
876.01	5371.8	
876.18	5965.7	
876.34	5991	
876.51	3641.3	
876.68	3510.2	
876.85	5500.8	
877.01	6361	
877.18	5154.1	
877.35	3649.5	
877.52	5587.5	
877.68	5021.6	
877.85	3506.1	
878.02	3511.6	
878.18	5565	
878.35	5321.3	
878.52	2925.2	
878.69	4133.5	
878.85	6035.4	
879.02	6044.2	
879.19	5172.5	
879.35	3891.8	
879.52	6022.4	
879.69	6262.7	
879.86	3131.3	
880.02	4052.2	
880.19	5552.7	
880.36	6873	
880.52	4186	
880.69	4316.4	
880.86	6148	
881.02	6235.4	
881.19	3940.3	
881.36	3928	
881.52	5968.5	
881.69	5305.6	
881.86	3902.1	
882.02	3809.2	
882.19	6294.1	
882.36	7403.4	
882.52	3732.1	
882.69	5156.1	
882.86	5799.2	
883.02	5645.6	
883.19	4474.8	
883.36	4177.2	
883.52	6154.8	
883.69	7062.1	
883.86	3630.4	
884.02	3254.2	
884.19	6114.6	
884.36	5627.8	
884.52	4124.6	
884.69	3802.4	
884.86	5345.2	
885.02	6707.8	
885.19	4051.6	
885.36	4159.4	
885.52	5588.9	
885.69	5793	
885.86	5211.4	
886.02	4712.4	
886.19	6088.6	
886.35	5554.8	
886.52	3998.3	
886.69	5116.5	
886.85	5094.7	
887.02	6503	
887.19	6503	
887.35	6503	
887.52	6503	
887.68	6503	
887.85	6503	
888.02	6503	
888.18	6503	
888.35	6503	
888.51	6503	
888.68	6503	
888.85	6503	
889.01	6503	
889.18	6503	
889.35	6503	
889.51	6503	
889.68	6503	
889.84	6503	
890.01	6503	
890.17	6503	
890.34	6503	
890.51	6503	
890.67	6503	
890.84	6503	
891	6503	
891.17	6503	
891.34	6503	
891.5	6503	
891.67	6503	
891.83	6503	
892	6503	
892.16	6503	
892.33	6503	
892.5	6503	
892.66	6503	
892.83	6503	
892.99	6503	
893.16	6503	
893.32	6503	
893.49	6503	
893.65	6503	
893.82	6503	
893.99	6503	
894.15	6503	
894.32	6503	
894.48	6503	
894.65	6503	
894.81	6503	
894.98	6503	
895.14	6503	
895.31	6503	
895.47	6503	
895.64	6503	
895.81	6503	
895.97	6503	
896.14	6503	
896.3	6503	
896.47	6503	
896.63	6503	
896.8	6503	
896.96	6503	
897.13	6503	
897.29	6503	
897.46	6503	
897.62	6503	
897.79	6503	
897.95	6503	
898.12	6503	
898.28	6503	
898.45	6503	
898.61	6503	
898.78	6503	
898.94	6503	
899.11	6503	
899.27	6503	
899.44	6503	
899.6	6503	
899.77	6503	
899.93	6503	
900.1	6503	
900.26	6503	
900.43	6503	
900.59	6503	
900.76	6503	
900.92	6503	
901.09	6503	
901.25	6503	
901.42	6503	
901.58	6503	
901.75	6503	
901.91	6503	
902.07	6503	
902.24	6503	
902.4	6503	
902.57	6503	
902.73	6503	
902.9	6503	
903.06	6503	
903.23	6503	
903.39	6503	
903.56	6503	
903.72	6503	
903.88	6503	
904.05	6503	
904.21	6503	
904.38	6503	
904.54	6503	
904.71	6503	
904.87	6503	
905.03	6503	
905.2	6503	
905.36	6503	
905.53	6503	
905.69	6503	
905.86	6503	
906.02	6503	
906.18	6503	
906.35	6503	
906.51	6503	
906.68	6503	
906.84	6503	
907.01	6503	
907.17	6503	
907.33	6503	
907.5	6503	
907.66	6503	
907.83	6503	
907.99	6503	
908.15	6503	
908.32	6503	
908.48	6503	
908.65	6503	
908.81	6503	
908.97	6503	
909.14	6503	
909.3	6503	
909.47	6503	
909.63	6503	
909.79	6503	
909.96	6503	
910.12	6503	
910.28	6503	
910.45	6503	
910.61	6503	
910.78	6503	
910.94	6503	
911.1	6503	
911.27	6503	
911.43	6503	
911.59	6503	
911.76	6503	
911.92	6503	
912.08	6503	
912.25	6503	
912.41	6503	
912.57	6503	
912.74	6503	
912.9	6503	
913.07	6503	
913.23	6503	
913.39	6503	
913.56	6503	
913.72	6503	
913.88	6503	
914.05	6503	
914.21	6503	
914.37	6503	
914.54	6503	
914.7	6503	
914.86	6503	
915.03	6503	
915.19	6503	
