Wavelength	Intensities	
nm	a.u.	
179.22	1774.7	
179.44	1769.8	
179.65	1779.7	
179.86	1759.9	
180.08	1804.9	
180.29	4330.8	
180.51	3201.7	
180.72	5223.7	
180.94	5950	
181.15	2908.1	
181.37	2894.5	
181.58	5038	
181.79	5304.9	
182.01	3069.2	
182.22	3229	
182.44	5294.7	
182.65	4527.4	
182.87	4001	
183.08	3524.6	
183.29	5615.5	
183.51	4633.2	
183.72	3269.9	
183.94	4664.6	
184.15	4982	
184.37	4949.9	
184.58	2890.4	
184.79	3836.5	
185.01	4721.9	
185.22	5273.5	
185.44	4050.9	
185.65	3436.5	
185.86	4958.8	
186.08	4518.5	
186.29	2882.9	
186.51	2985.9	
186.72	4717.8	
186.94	5468.8	
187.15	3401	
187.36	3558.7	
187.58	6924.2	
187.79	5068.7	
188.01	3713.6	
188.22	5599.8	
188.43	6049	
188.65	5232.6	
188.86	2984.6	
189.08	3587.4	
189.29	4787.5	
189.5	4830.5	
189.72	3268.6	
189.93	3389.4	
190.15	5446.9	
190.36	6386.9	
190.57	3627	
190.79	3497.9	
191	5499.5	
191.22	5486.5	
191.43	3628.3	
191.64	3040.6	
191.86	5728.9	
192.07	5485.8	
192.29	3181.2	
192.5	3283.6	
192.71	5455.1	
192.93	4786.1	
193.14	3296.5	
193.35	3376.4	
193.57	4782	
193.78	5380.7	
194	2684.9	
194.21	3231.7	
194.42	4634.6	
194.64	5005.9	
194.85	3558.7	
195.07	4132.8	
195.28	5020.9	
195.49	4384.7	
195.71	4366.3	
195.92	3099.9	
196.13	5173.9	
196.35	5210	
196.56	4584	
196.78	3586	
196.99	6348.7	
197.2	6000.5	
197.42	3952.6	
197.63	3596.2	
197.84	4536.3	
198.06	5173.2	
198.27	3253.5	
198.48	4218.8	
198.7	4734.9	
198.91	4928.8	
199.13	3563.5	
199.34	3575.1	
199.55	5391.6	
199.77	4348.5	
199.98	3187.3	
200.19	3689.1	
200.41	4952.7	
200.62	4675.5	
200.83	3682.2	
201.05	3959.4	
201.26	4910.3	
201.47	4709	
201.69	3228.3	
201.9	3098.6	
202.11	5016.2	
202.33	5796.4	
202.54	3379.1	
202.76	3762.1	
202.97	5070.1	
203.18	5087.2	
203.4	3740.3	
203.61	3685	
203.82	5087.8	
204.04	4756.1	
204.25	3631	
204.46	3599	
204.68	5022.3	
204.89	5174.5	
205.1	3452.9	
205.32	3046.7	
205.53	5307.7	
205.74	5442.8	
205.96	2682.2	
206.17	3630.4	
206.38	5306.3	
206.6	5402.5	
206.81	3999.7	
207.02	3355.3	
207.24	5157.5	
207.45	5549.3	
207.66	3451.5	
207.88	2995.5	
208.09	5123.3	
208.3	4937	
208.52	3196.2	
208.73	3444.7	
208.94	5005.2	
209.15	5580	
209.37	3448.8	
209.58	3959.4	
209.79	5502.2	
210.01	4848.9	
210.22	2765.4	
210.43	2921.1	
210.65	4990.2	
210.86	5313.8	
211.07	3472.7	
211.29	3125.2	
211.5	5266.7	
211.71	4926.7	
211.93	3188.7	
212.14	3094.5	
212.35	4924	
212.56	5100.8	
212.78	3579.8	
212.99	2999.6	
213.2	5775.3	
213.42	4790.2	
213.63	3268.6	
213.84	3388	
214.06	4492.6	
214.27	4588.1	
214.48	3400.3	
214.69	3683.6	
214.91	5543.2	
215.12	5634	
215.33	3677.5	
215.55	3930.7	
215.76	6049	
215.97	5276.9	
216.18	3534.1	
216.4	3412.6	
216.61	4745.1	
216.82	5493.3	
217.04	3222.1	
217.25	3307.5	
217.46	5532.9	
217.67	5304.2	
217.89	2884.2	
218.1	2969.6	
218.31	5074.2	
218.53	5164.3	
218.74	3330.7	
218.95	3201	
219.16	4991.6	
219.38	5710.4	
219.59	3241.3	
219.8	3852.2	
220.01	6271.6	
220.23	4986.1	
220.44	4132.1	
220.65	3151.8	
220.87	5038	
221.08	5539.8	
221.29	2975	
221.5	3869.3	
221.72	6637.5	
221.93	4758.8	
222.14	3590.8	
222.35	4227	
222.57	5008	
222.78	5297.4	
222.99	3407.8	
223.2	3700	
223.42	5182	
223.63	5358.9	
223.84	2719.7	
224.05	2686.3	
224.27	6275.7	
224.48	5739.1	
224.69	4240.7	
224.9	3605.8	
225.12	5187.5	
225.33	4973.8	
225.54	2891.7	
225.75	3272.7	
225.97	4657.1	
226.18	4901.5	
226.39	3423.5	
226.6	3194.8	
226.82	4803.9	
227.03	4676.2	
227.24	3579.8	
227.45	3020.1	
227.67	5375.2	
227.88	5760.9	
228.09	3992.9	
228.3	4009.2	
228.52	5329.5	
228.73	4970.4	
228.94	3329.3	
229.15	2980.5	
229.36	4967	
229.58	4905.6	
229.79	3381.2	
230	3935.5	
230.21	5890.6	
230.43	5061.9	
230.64	3548.4	
230.85	3688.4	
231.06	5371.8	
231.28	5325.4	
231.49	2962	
231.7	3495.2	
231.91	5316.5	
232.12	5010	
232.34	3110.9	
232.55	3459	
232.76	5513.8	
232.97	5119.2	
233.18	3158	
233.4	3525.2	
233.61	5233.9	
233.82	4805.2	
234.03	3321.8	
234.25	3291.1	
234.46	6795.8	
234.67	5020.9	
234.88	3591.5	
235.09	3192.8	
235.31	5197.1	
235.52	4826.4	
235.73	3571.7	
235.94	3048.1	
236.15	4732.9	
236.37	5924.1	
236.58	3123.8	
236.79	3477.5	
237	5212.1	
237.21	4571.1	
237.43	3662.5	
237.64	2914.3	
237.85	8514.1	
238.06	4629.1	
238.27	3758	
238.48	3063.8	
238.7	5306.3	
238.91	4836.6	
239.12	3378.5	
239.33	3533.4	
239.54	4681.7	
239.76	4912.4	
239.97	3449.5	
240.18	3433.8	
240.39	6081.1	
240.6	5204.6	
240.82	3587.4	
241.03	3007.1	
241.24	4954	
241.45	5662.6	
241.66	3165.5	
241.87	3670.6	
242.09	5629.9	
242.3	5908.4	
242.51	3743	
242.72	3457.7	
242.93	5328.8	
243.14	4904.2	
243.36	3969	
243.57	4247.5	
243.78	5711.8	
243.99	5337.7	
244.2	3468.6	
244.41	3148.4	
244.63	4614.8	
244.84	5218.9	
245.05	3626.3	
245.26	3478.1	
245.47	5253.7	
245.68	5437.4	
245.9	4524	
246.11	3579.8	
246.32	4787.5	
246.53	5235.3	
246.74	5457.8	
246.95	2912.9	
247.16	4610.7	
247.38	5009.3	
247.59	2916.3	
247.8	3501.3	
248.01	4653	
248.22	4932.2	
248.43	3182.5	
248.64	3345	
248.86	4515.1	
249.07	4783.4	
249.28	3110.2	
249.49	3520.5	
249.7	5459.9	
249.91	5551.4	
250.12	2955.2	
250.34	2955.9	
250.55	5082.4	
250.76	5000.5	
250.97	3583.3	
251.18	3584.6	
251.39	5591.6	
251.6	5133.6	
251.81	3676.8	
252.03	3606.5	
252.24	4812.7	
252.45	5438.7	
252.66	3026.9	
252.87	3790.8	
253.08	4980	
253.29	6309.8	
253.5	3034.4	
253.72	4158.1	
253.93	4870.1	
254.14	5810.1	
254.35	3319.8	
254.56	3358	
254.77	5165	
254.98	4684.4	
255.19	3250.8	
255.41	4111.6	
255.62	5096	
255.83	5520.6	
256.04	3646.7	
256.25	3581.9	
256.46	5969.1	
256.67	4758.1	
256.88	3578.5	
257.09	3928.7	
257.31	4697.4	
257.52	4747.2	
257.73	4435.2	
257.94	3253.5	
258.15	4901.5	
258.36	4994.3	
258.57	4089.1	
258.78	2666.5	
258.99	5429.2	
259.2	4822.3	
259.41	3305.4	
259.63	3424.2	
259.84	5678.3	
260.05	6040.8	
260.26	4235.9	
260.47	3225.6	
260.68	5468.8	
260.89	4902.8	
261.1	3932.8	
261.31	3130	
261.52	5544.5	
261.73	5788.9	
261.95	4224.3	
262.16	3704.8	
262.37	5547.9	
262.58	5662.6	
262.79	4199	
263	3346.4	
263.21	4997	
263.42	4900.8	
263.63	3386	
263.84	3276.8	
264.05	5460.6	
264.26	5657.9	
264.47	4036.5	
264.69	3681.6	
264.9	5620.3	
265.11	5193	
265.32	3175.7	
265.53	3209.8	
265.74	5128.8	
265.95	4536.9	
266.16	3491.1	
266.37	3855.6	
266.58	5136.3	
266.79	4794.3	
267	3196.2	
267.21	3059	
267.42	4620.2	
267.63	4976.6	
267.84	3435.1	
268.06	2971.6	
268.27	5404.6	
268.48	5550	
268.69	3347.7	
268.9	3962.1	
269.11	5593.7	
269.32	4531.5	
269.53	3410.6	
269.74	3181.9	
269.95	5189.6	
270.16	4429.8	
270.37	3500.7	
270.58	3949.2	
270.79	4821.6	
271	5441.5	
271.21	3691.8	
271.42	3493.8	
271.63	5173.9	
271.84	4633.9	
272.05	2813.9	
272.26	3093.1	
272.47	5003.2	
272.68	5171.8	
272.89	3368.9	
273.11	3781.2	
273.32	4825	
273.53	5703.6	
273.74	3664.5	
273.95	3593.5	
274.16	5481.7	
274.37	4961.5	
274.58	3791.5	
274.79	3082.2	
275	5121.3	
275.21	5522	
275.42	4468	
275.63	3846.1	
275.84	5253.7	
276.05	6391.7	
276.26	3546.4	
276.47	3447.4	
276.68	4900.8	
276.89	5815.5	
277.1	3829.7	
277.31	3028.9	
277.52	5177.3	
277.73	5390.9	
277.94	2975.7	
278.15	3308.2	
278.36	5188.2	
278.57	4698.7	
278.78	3281.5	
278.99	3740.3	
279.2	4726	
279.41	4653	
279.62	4317.1	
279.83	3116.3	
280.04	6001.2	
280.25	4666	
280.46	4265.2	
280.67	3467.2	
280.88	4697.4	
281.09	5590.3	
281.3	3586	
281.51	4521.2	
281.72	4767.7	
281.93	5388.9	
282.14	3263.8	
282.35	3481.5	
282.56	5448.3	
282.77	5382.7	
282.98	3372.3	
283.19	4094.6	
283.4	6527.6	
283.61	4927.4	
283.82	3094.5	
284.03	4263.2	
284.24	5115.1	
284.45	5526.8	
284.66	4234.5	
284.87	4091.8	
285.08	5466	
285.29	5604.6	
285.5	2995.5	
285.71	3388.7	
285.92	5502.2	
286.12	6109.1	
286.33	4160.8	
286.54	3388.7	
286.75	5440.8	
286.96	4858.5	
287.17	3155.2	
287.38	4124.6	
287.59	4709.6	
287.8	4657.1	
288.01	3392.8	
288.22	3855	
288.43	5425.1	
288.64	4539.7	
288.85	4050.9	
289.06	3848.8	
289.27	5382.7	
289.48	5756.2	
289.69	4334.9	
289.9	3833.1	
290.11	5597.1	
290.32	4762.2	
290.53	4027.7	
290.74	3665.2	
290.94	5304.2	
291.15	5418.9	
291.36	3248.8	
291.57	3818.8	
291.78	4831.8	
291.99	4504.8	
292.2	3088.3	
292.41	3662.5	
292.62	5481	
292.83	5287.2	
293.04	4550.6	
293.25	3212.6	
293.46	4865.3	
293.67	5507	
293.88	3230.3	
294.09	3167.5	
294.29	4607.9	
294.5	5087.8	
294.71	3448.8	
294.92	3267.2	
295.13	4830.5	
295.34	5926.8	
295.55	2947.7	
295.76	2924.5	
295.97	5365.7	
296.18	5982.8	
296.39	3084.9	
296.6	3265.8	
296.81	5075.5	
297.01	5330.9	
297.22	3345	
297.43	3239.2	
297.64	4739	
297.85	4661.2	
298.06	2716.3	
298.27	2935.4	
298.48	5025.7	
298.69	4775.9	
298.9	3539.6	
299.11	3181.2	
299.31	4614.1	
299.52	4619.5	
299.73	3727.3	
299.94	3620.8	
300.15	4997.7	
300.36	4702.1	
300.57	3656.3	
300.78	3674.7	
300.99	4904.2	
301.2	5109.7	
301.4	3237.8	
301.61	3437.9	
301.82	5298.8	
302.03	5397.1	
302.24	3900	
302.45	3084.2	
302.66	5248.3	
302.87	5575.3	
303.08	3255.6	
303.29	4329.4	
303.49	4790.9	
303.7	4975.9	
303.91	2913.6	
304.12	4138.3	
304.33	4578.6	
304.54	5117.9	
304.75	3275.4	
304.96	3153.2	
305.16	5285.1	
305.37	5929.6	
305.58	2903.3	
305.79	3004.4	
306	5279	
306.21	4508.9	
306.42	3224.2	
306.63	4850.3	
306.83	4868.7	
307.04	5435.3	
307.25	3582.6	
307.46	3557.3	
307.67	4371.7	
307.88	5356.8	
308.09	3205.8	
308.29	3347.1	
308.5	5072.1	
308.71	5455.1	
308.92	3471.3	
309.13	3180.5	
309.34	4937.7	
309.55	4975.9	
309.75	4028.4	
309.96	3710.9	
310.17	5291.3	
310.38	4719.2	
310.59	3848.1	
310.8	3076	
311.01	4847.5	
311.21	4891.9	
311.42	3115	
311.63	3175	
311.84	4784.7	
312.05	5084.4	
312.26	3602.4	
312.46	3915	
312.67	4894.6	
312.88	4628.4	
313.09	3119.7	
313.3	3104.7	
313.51	5606.7	
313.71	5949.3	
313.92	3102.7	
314.13	3360	
314.34	5202.5	
314.55	4938.3	
314.76	4020.2	
314.96	3502	
315.17	5116.5	
315.38	5249.6	
315.59	3135.4	
315.8	3035.1	
316.01	5700.2	
316.21	5775.3	
316.42	3060.3	
316.63	3453.6	
316.84	4871.4	
317.05	5545.9	
317.26	3768.9	
317.46	3326.6	
317.67	4985.4	
317.88	5318.6	
318.09	3968.3	
318.3	2953.9	
318.5	4810	
318.71	5231.2	
318.92	4973.8	
319.13	3658.4	
319.34	5427.8	
319.54	5598.5	
319.75	2937.5	
319.96	2831	
320.17	5249.6	
320.38	5464.7	
320.58	2925.9	
320.79	3405.1	
321	5509.7	
321.21	5540.4	
321.42	3486.3	
321.62	2910.8	
321.83	4726.7	
322.04	5025	
322.25	3379.1	
322.46	3126.6	
322.66	5063.3	
322.87	5274.9	
323.08	3823.6	
323.29	3082.9	
323.5	5890.6	
323.7	4556	
323.91	4256.4	
324.12	3801	
324.33	5087.2	
324.53	5224.4	
324.74	3677.5	
324.95	3805.8	
325.16	4521.2	
325.37	4795	
325.57	3179.1	
325.78	3244	
325.99	5132.2	
326.2	4639.3	
326.4	4502.8	
326.61	2914.3	
326.82	4896.7	
327.03	5081.7	
327.24	4397	
327.44	4119.1	
327.65	5267.4	
327.86	4369.7	
328.07	3654.9	
328.27	3019.4	
328.48	5582.8	
328.69	4671.4	
328.9	4486.4	
329.1	3323.9	
329.31	4993.6	
329.52	5679.7	
329.73	3184.6	
329.93	3538.2	
330.14	5042.1	
330.35	5211.4	
330.56	5052.3	
330.76	3803.1	
330.97	4859.8	
331.18	5112.4	
331.39	3512.9	
331.59	2867.2	
331.8	5483.8	
332.01	5620.3	
332.22	3260.4	
332.42	3699.3	
332.63	5061.2	
332.84	4801.8	
333.05	3536.2	
333.25	3248.1	
333.46	4813.4	
333.67	4991.6	
333.88	3314.3	
334.08	3625.6	
334.29	6528.9	
334.5	5555.5	
334.7	3065.1	
334.91	4412	
335.12	4636.6	
335.33	5393.7	
335.53	3480.9	
335.74	5036	
335.95	4844.1	
336.16	4647.5	
336.36	3472	
336.57	3969.6	
336.78	4618.9	
336.98	5503.6	
337.19	4292.5	
337.4	3420.1	
337.61	5979.4	
337.81	4593.6	
338.02	3228.3	
338.23	4072	
338.43	5640.8	
338.64	4720.6	
338.85	3149.1	
339.05	4116.4	
339.26	5762.3	
339.47	4502.8	
339.68	3232.4	
339.88	4616.1	
340.09	5246.9	
340.3	5384.8	
340.5	3661.1	
340.71	2865.8	
340.92	4605.9	
341.13	5635.3	
341.33	3082.9	
341.54	3665.9	
341.75	5216.9	
341.95	4896	
342.16	3543	
342.37	3806.5	
342.57	4660.5	
342.78	4973.8	
342.99	3863.8	
343.19	2874	
343.4	5364.3	
343.61	5212.8	
343.81	3380.5	
344.02	3122.5	
344.23	5356.8	
344.43	5670.1	
344.64	3900	
344.85	3811.3	
345.06	5226.4	
345.26	5518.6	
345.47	3580.5	
345.68	4214.7	
345.88	4486.4	
346.09	5384.8	
346.3	3670	
346.5	2835.1	
346.71	4954.7	
346.92	4719.2	
347.12	2926.5	
347.33	3622.9	
347.54	5451	
347.74	5800.5	
347.95	3605.1	
348.16	2757.2	
348.36	4830.5	
348.57	4656.4	
348.78	3618.8	
348.98	3823.6	
349.19	4889.2	
349.39	4555.4	
349.6	2938.8	
349.81	3222.1	
350.01	5229.1	
350.22	4764.9	
350.43	3485	
350.63	4215.4	
350.84	5022.3	
351.05	4741.7	
351.25	3191.4	
351.46	2897.9	
351.67	5449	
351.87	4715.8	
352.08	3395.5	
352.29	3792.2	
352.49	5362.3	
352.7	5485.8	
352.9	3091.8	
353.11	3809.9	
353.32	5911.8	
353.52	4851.6	
353.73	3048.7	
353.94	3812	
354.14	5230.5	
354.35	5032.5	
354.55	3190.1	
354.76	3508.9	
354.97	5173.2	
355.17	5029.8	
355.38	2978.4	
355.59	4100.7	
355.79	4775.9	
356	5081	
356.2	3456.3	
356.41	3063.1	
356.62	4536.9	
356.82	4960.9	
357.03	3708.2	
357.24	3340.2	
357.44	4747.9	
357.65	4842.8	
357.85	4352.6	
358.06	3516.4	
358.27	4490.5	
358.47	4663.9	
358.68	3017.3	
358.88	3685.7	
359.09	5208	
359.3	5499.5	
359.5	4302.1	
359.71	3814.7	
359.91	5859.9	
360.12	5255.8	
360.33	3642	
360.53	4110.3	
360.74	4757.4	
360.94	4823.6	
361.15	3906.8	
361.36	3216.7	
361.56	5428.5	
361.77	4984.1	
361.97	4229.7	
362.18	3420.1	
362.38	5425.8	
362.59	4630.5	
362.8	3210.5	
363	3044	
363.21	4523.3	
363.41	5111.7	
363.62	3616.7	
363.83	4444.8	
364.03	5162.2	
364.24	5837.4	
364.44	4612.7	
364.65	4499.4	
364.85	4894.6	
365.06	4655.7	
365.27	3366.9	
365.47	3398.3	
365.68	5776	
365.88	4900.1	
366.09	3652.2	
366.29	3423.5	
366.5	5113.8	
366.71	5481.7	
366.91	4495.3	
367.12	3865.2	
367.32	6006.7	
367.53	5410.7	
367.73	3817.4	
367.94	4655.7	
368.14	5406	
368.35	6090	
368.56	3747.8	
368.76	3221.5	
368.97	5478.3	
369.17	6786.3	
369.38	3362.1	
369.58	3587.4	
369.79	4606.6	
369.99	5748.6	
370.2	4468.7	
370.4	3670	
370.61	5176.6	
370.82	6195.8	
371.02	3654.3	
371.23	3039.9	
371.43	4531.5	
371.64	5683.8	
371.84	3642.7	
372.05	4592.9	
372.25	6706.4	
372.46	5422.3	
372.66	3649.5	
372.87	3553.2	
373.07	5506.3	
373.28	6806.8	
373.48	4552.6	
373.69	4222.2	
373.9	5083.7	
374.1	5103.5	
374.31	4412.7	
374.51	3979.2	
374.72	5754.8	
374.92	4842.8	
375.13	4588.8	
375.33	3876.8	
375.54	5324.7	
375.74	4987.5	
375.95	3967.6	
376.15	4988.9	
376.36	5420.3	
376.56	5362.3	
376.77	3997	
376.97	4401.1	
377.18	6347.3	
377.38	5566.4	
377.59	4652.3	
377.79	3638.6	
378	5355.4	
378.2	5730.2	
378.41	3687	
378.61	3594.9	
378.82	5837.4	
379.02	5066.7	
379.23	3792.8	
379.43	4715.8	
379.64	5872.2	
379.84	5562.3	
380.05	3715	
380.25	3618.1	
380.46	5647.6	
380.66	5234.6	
380.87	4786.1	
381.07	5053	
381.28	6128.9	
381.48	5588.9	
381.69	3704.8	
381.89	3703.4	
382.1	4724.7	
382.3	5711.1	
382.51	4705.5	
382.71	5406	
382.91	5568.4	
383.12	6027.9	
383.32	4007.9	
383.53	4186	
383.73	5468.8	
383.94	5324	
384.14	4180.6	
384.35	3348.4	
384.55	5250.3	
384.76	5649.7	
384.96	3997	
385.17	4191.5	
385.37	5599.1	
385.58	4920.6	
385.78	4244.1	
385.98	3259.7	
386.19	5165	
386.39	5513.8	
386.6	3764.2	
386.8	3939.6	
387.01	5567.1	
387.21	5592.3	
387.42	4306.2	
387.62	4792.2	
387.83	4999.1	
388.03	5489.9	
388.23	4042	
388.44	4648.2	
388.64	4679.6	
388.85	4810	
389.05	4317.8	
389.26	4766.3	
389.46	6520	
389.67	5941.2	
389.87	4304.8	
390.07	4358.1	
390.28	5262.6	
390.48	4934.2	
390.69	3725.9	
390.89	3915.7	
391.1	5136.3	
391.3	5896.8	
391.5	4911.7	
391.71	5413.5	
391.91	5608.7	
392.12	6427.2	
392.32	4973.8	
392.53	4293.9	
392.73	5180.7	
392.93	5356.8	
393.14	4073.4	
393.34	4687.1	
393.55	5671.5	
393.75	5293.3	
393.95	4076.1	
394.16	4046.8	
394.36	5104.9	
394.57	5681.7	
394.77	3645.4	
394.98	3907.5	
395.18	4980.7	
395.38	5087.8	
395.59	4654.4	
395.79	3799.7	
396	5212.1	
396.2	5547.9	
396.4	4488.5	
396.61	4450.2	
396.81	5808.7	
397.02	5177.3	
397.22	4748.6	
397.42	4743.1	
397.63	5778.7	
397.83	5142.4	
398.04	3809.9	
398.24	4265.2	
398.44	5597.8	
398.65	4768.4	
398.85	3716.4	
399.05	3795.6	
399.26	5153.4	
399.46	6540.5	
399.67	4188.8	
399.87	3891.1	
400.07	5403.9	
400.28	5714.5	
400.48	3947.8	
400.69	4857.1	
400.89	5904.3	
401.09	6243.6	
401.3	3867.2	
401.5	4830.5	
401.7	6442.2	
401.91	6667.5	
402.11	4257.7	
402.32	4420.2	
402.52	6035.4	
402.72	5961.6	
402.93	4643.4	
403.13	3660.4	
403.33	6609.5	
403.54	5520.6	
403.74	4318.5	
403.94	5049.6	
404.15	5543.9	
404.35	6546	
404.56	4134.2	
404.76	5596.4	
404.96	5874.9	
405.17	5663.3	
405.37	5141.8	
405.57	4450.9	
405.78	5923.4	
405.98	5353.4	
406.18	4095.9	
406.39	4853	
406.59	5877	
406.79	5567.1	
407	3926.6	
407.2	4098.7	
407.4	6016.9	
407.61	6051.7	
407.81	3951.9	
408.01	5994.4	
408.22	4965	
408.42	6616.3	
408.62	4821.6	
408.83	4408.6	
409.03	5539.8	
409.23	5356.8	
409.44	4517.1	
409.64	4853	
409.84	6460	
410.05	6283.9	
410.25	4747.2	
410.45	4550.6	
410.66	5919.3	
410.86	8006.9	
411.06	4975.9	
411.27	4855.1	
411.47	7817.1	
411.67	6146	
411.88	4956.1	
412.08	5271.5	
412.28	6563.1	
412.49	7047.1	
412.69	4873.5	
412.89	4893.3	
413.09	6884.6	
413.3	6780.8	
413.5	5044.1	
413.7	4620.9	
413.91	6180.8	
414.11	6986.3	
414.31	4878.9	
414.52	5260.5	
414.72	6600.6	
414.92	6574	
415.12	4823	
415.33	5292.6	
415.53	6877.1	
415.73	7025.9	
415.94	5653.1	
416.14	5133.6	
416.34	6045.6	
416.55	5919.3	
416.75	6143.9	
416.95	5590.3	
417.15	6911.2	
417.36	7514	
417.56	6303.6	
417.76	5500.8	
417.97	7182.2	
418.17	6942.6	
418.37	5076.2	
418.57	5203.9	
418.78	6868.2	
418.98	6501.6	
419.18	5941.8	
419.38	5897.5	
419.59	6634.1	
419.79	6188.3	
419.99	5053	
420.2	5428.5	
420.4	7015.7	
420.6	7047.1	
420.8	4926	
421.01	4876.2	
421.21	6852.5	
421.41	6867.5	
421.61	5295.4	
421.82	5045.5	
422.02	6457.9	
422.22	7178.8	
422.42	5763	
422.63	5435.3	
422.83	6488.6	
423.03	7500.3	
423.23	5477	
423.44	4545.8	
423.64	6610.2	
423.84	6273.6	
424.04	4932.2	
424.25	4651.6	
424.45	7282.6	
424.65	7208.2	
424.85	4523.3	
425.06	4980	
425.26	7325.6	
425.46	6393.8	
425.66	5421	
425.87	5045.5	
426.07	6965.1	
426.27	6859.3	
426.47	5238	
426.67	4592.9	
426.88	7335.8	
427.08	6927.6	
427.28	5494.7	
427.48	4648.2	
427.69	5839.4	
427.89	6438.1	
428.09	5328.8	
428.29	4678.9	
428.5	6991.1	
428.7	6645	
428.9	4547.9	
429.1	4937.7	
429.3	6578.1	
429.51	6828.6	
429.71	4856.4	
429.91	5505.6	
430.11	6871.6	
430.31	6992.4	
430.52	5094	
430.72	5338.4	
430.92	7301	
431.12	6776.7	
431.32	4848.9	
431.53	5165.7	
431.73	5971.2	
431.93	7294.9	
432.13	4741	
432.33	4588.8	
432.54	6279.1	
432.74	6553.5	
432.94	4586.1	
433.14	5482.4	
433.34	6781.5	
433.55	6364.4	
433.75	5403.9	
433.95	6904.4	
434.15	6605.4	
434.35	6337.8	
434.56	4838	
434.76	4257	
434.96	6532.3	
435.16	6767.9	
435.36	4658.4	
435.56	5514.5	
435.77	6260.6	
435.97	6499.6	
436.17	6194.4	
436.37	5514.5	
436.57	6283.2	
436.78	6152.1	
436.98	6541.2	
437.18	6054.5	
437.38	6802.7	
437.58	6412.2	
437.78	6154.1	
437.99	5003.9	
438.19	6907.1	
438.39	7562.5	
438.59	4955.4	
438.79	4577.2	
438.99	7464.8	
439.2	6348.7	
439.4	4642.1	
439.6	4543.1	
439.8	6560.3	
440	7486	
440.2	5405.3	
440.4	5511.8	
440.61	6956.9	
440.81	7376.8	
441.01	4697.4	
441.21	5508.4	
441.41	7310.6	
441.61	6987.7	
441.81	5750.7	
442.02	6641.6	
442.22	7759.1	
442.42	7119.4	
442.62	4863.2	
442.82	4916.5	
443.02	7411.6	
443.22	6599.9	
443.43	5300.8	
443.63	4833.9	
443.83	6436.1	
444.03	6410.8	
444.23	5871.5	
444.43	5554.8	
444.63	6718	
444.83	7710.6	
445.04	5034.6	
445.24	6029.9	
445.44	7150.1	
445.64	7159	
445.84	5689.9	
446.04	5638.1	
446.24	6526.9	
446.44	7372	
446.65	4951.3	
446.85	5300.1	
447.05	6529.6	
447.25	7288	
447.45	5317.9	
447.65	4783.4	
447.85	6830.7	
448.05	6337.8	
448.25	5569.8	
448.46	5460.6	
448.66	6764.4	
448.86	6429.9	
449.06	4625	
449.26	5606.7	
449.46	7004.1	
449.66	6184.9	
449.86	5223	
450.06	5162.2	
450.26	6391	
450.47	6906.4	
450.67	5440.1	
450.87	5680.4	
451.07	7055.3	
451.27	6752.2	
451.47	4810	
451.67	5356.1	
451.87	6490	
452.07	7438.2	
452.27	5070.1	
452.47	5029.8	
452.67	6792.4	
452.88	7078.5	
453.08	4455	
453.28	6185.5	
453.48	7773.4	
453.68	6685.3	
453.88	5004.6	
454.08	5191.6	
454.28	7051.8	
454.48	6717.3	
454.68	5496.1	
454.88	6033.3	
455.08	7161.1	
455.28	6810.2	
455.48	4771.8	
455.68	5373.2	
455.89	7531.7	
456.09	7197.9	
456.29	5158.2	
456.49	5165	
456.69	7420.5	
456.89	6787.7	
457.09	5611.4	
457.29	5947.3	
457.49	7038.2	
457.69	7090.8	
457.89	5414.1	
458.09	4909.7	
458.29	6802.7	
458.49	7509.9	
458.69	5768.4	
458.89	5266	
459.09	7565.9	
459.29	7769.3	
459.49	5330.9	
459.69	6057.9	
459.9	7268.9	
460.1	6830	
460.3	5322	
460.5	5101.5	
460.7	7208.2	
460.9	6907.1	
461.1	4810	
461.3	5956.2	
461.5	7805.5	
461.7	7389.1	
461.9	5178.6	
462.1	5501.5	
462.3	7016.3	
462.5	7468.3	
462.7	5193	
462.9	5302.9	
463.1	8296.3	
463.3	8051.2	
463.5	5509.7	
463.7	6308.4	
463.9	7165.8	
464.1	7429.3	
464.3	5627.1	
464.5	5834.7	
464.7	7707.9	
464.9	7380.9	
465.1	6837.5	
465.3	6123.4	
465.5	7972.7	
465.7	7971.4	
465.9	6327.5	
466.1	6205.3	
466.3	7783	
466.5	7657.4	
466.7	6861.4	
466.9	5946.6	
467.1	7695.6	
467.3	8378.2	
467.5	6837.5	
467.7	5926.1	
467.9	8626.7	
468.1	9367.4	
468.3	6526.9	
468.5	6954.9	
468.7	7672.4	
468.9	7620.5	
469.1	6156.2	
469.3	6694.8	
469.5	9291	
469.7	7271	
469.9	6601.3	
470.1	5917.3	
470.3	7690.8	
470.5	7785.7	
470.7	7079.8	
470.9	6105	
471.1	7468.3	
471.3	7815	
471.5	5901.6	
471.69	7509.2	
471.89	7443.7	
472.09	6980.2	
472.29	6588.3	
472.49	6845	
472.69	7225.9	
472.89	7839.6	
473.09	5778	
473.29	5978.7	
473.49	7349.5	
473.69	7430.7	
473.89	6726.9	
474.09	6044.9	
474.29	8551.6	
474.49	8167.3	
474.69	6657.9	
474.89	6129.6	
475.09	7436.9	
475.29	7388.4	
475.49	5698.1	
475.69	5894.1	
475.88	8789.9	
476.08	7858.1	
476.28	5633.3	
476.48	5960.3	
476.68	8131.1	
476.88	7927	
477.08	5848.3	
477.28	6131.6	
477.48	7554.3	
477.68	8073.1	
477.88	5673.6	
478.08	5977.3	
478.28	8314.8	
478.48	7573.4	
478.67	5988.3	
478.87	5490.6	
479.07	8165.9	
479.27	7572.7	
479.47	6184.9	
479.67	6171.2	
479.87	7988.4	
480.07	8389.8	
480.27	5582.1	
480.47	6830.7	
480.67	7677.8	
480.87	8201.4	
481.06	5743.9	
481.26	6485.9	
481.46	7671.7	
481.66	7618.4	
481.86	6228.6	
482.06	7042.3	
482.26	7453.2	
482.46	8202.8	
482.66	6079.7	
482.86	5798.5	
483.05	7722.9	
483.25	7189.7	
483.45	8207.6	
483.65	6203.3	
483.85	7316.7	
484.05	7516.7	
484.25	6531	
484.45	6751.5	
484.65	8279.9	
484.84	8271.1	
485.04	6143.9	
485.24	6001.9	
485.44	8575.5	
485.64	7079.1	
485.84	5452.4	
486.04	6646.3	
486.24	7400	
486.44	7718.8	
486.63	5345.2	
486.83	6122.7	
487.03	7349.5	
487.23	7493.5	
487.43	5511.1	
487.63	7497.6	
487.83	7533.1	
488.02	8395.3	
488.22	6311.2	
488.42	6750.1	
488.62	8273.8	
488.82	7337.9	
489.02	6035.4	
489.22	6023.1	
489.41	8138.6	
489.61	7841.7	
489.81	5799.2	
490.01	5796.4	
490.21	8105.2	
490.41	8690.9	
490.61	5800.5	
490.8	5922	
491	7686	
491.2	7201.3	
491.4	6483.2	
491.6	5623.7	
491.8	7724.9	
491.99	7833.5	
492.19	5621	
492.39	5840.1	
492.59	8066.9	
492.79	8151.6	
492.99	6550.8	
493.18	5721.3	
493.38	8186.4	
493.58	8727.1	
493.78	6378.1	
493.98	6014.2	
494.18	7849.9	
494.37	7408.9	
494.57	6491.4	
494.77	6442.2	
494.97	8002.8	
495.17	8321.6	
495.37	6090	
495.56	6353.5	
495.76	8463.6	
495.96	8172.8	
496.16	7139.2	
496.36	6233.3	
496.55	8376.2	
496.75	7935.9	
496.95	6571.9	
497.15	6477	
497.35	8358.4	
497.54	8362.5	
497.74	6322.8	
497.94	7772.7	
498.14	8942.8	
498.34	8754.4	
498.53	6044.2	
498.73	6711.2	
498.93	7768.6	
499.13	8254.7	
499.33	6515.3	
499.52	6946	
499.72	8320.9	
499.92	8495	
500.12	6319.3	
500.32	6527.6	
500.51	8600.1	
500.71	8258.8	
500.91	7193.8	
501.11	6853.2	
501.31	8543.4	
501.5	8845.2	
501.7	7421.8	
501.9	6543.9	
502.1	8243.1	
502.29	8594.6	
502.49	6943.3	
502.69	7296.2	
502.89	8492.9	
503.09	8518.9	
503.28	6189.6	
503.48	6223.8	
503.68	7843	
503.88	7849.2	
504.07	7021.1	
504.27	6646.3	
504.47	8149.6	
504.67	8311.3	
504.86	7011.6	
505.06	6624.5	
505.26	7969.3	
505.46	9339.4	
505.65	6644.3	
505.85	6740.5	
506.05	7861.5	
506.25	8370.7	
506.44	6063.4	
506.64	6795.8	
506.84	7790.5	
507.04	8533.2	
507.23	6266.8	
507.43	6608.1	
507.63	9311.4	
507.83	7899.7	
508.02	6669.6	
508.22	6350.8	
508.42	9585.9	
508.62	7778.2	
508.81	6509.8	
509.01	7023.2	
509.21	7653.9	
509.4	7862.8	
509.6	6756.9	
509.8	6217	
510	7799.3	
510.19	9062.9	
510.39	6229.2	
510.59	6210.8	
510.79	7649.8	
510.98	8854.1	
511.18	6365.8	
511.38	6358.9	
511.57	8399.4	
511.77	8235.6	
511.97	6941.2	
512.17	6163	
512.36	8315.4	
512.56	8371.4	
512.76	6187.6	
512.95	5953.4	
513.15	8523.6	
513.35	7262.1	
513.55	6879.1	
513.74	6152.8	
513.94	8418.5	
514.14	7796.6	
514.33	6995.9	
514.53	6732.4	
514.73	7904.5	
514.92	7975.5	
515.12	6375.3	
515.32	6191.7	
515.51	8057.4	
515.71	8473.8	
515.91	7533.1	
516.11	6186.9	
516.3	9488.9	
516.5	7706.5	
516.7	6707.1	
516.89	7157	
517.09	7833.5	
517.29	7770	
517.48	6895.5	
517.68	6462.7	
517.88	7615.7	
518.07	8107.2	
518.27	6874.3	
518.47	6069.5	
518.66	8740.7	
518.86	7559.1	
519.06	5911.1	
519.25	6261.3	
519.45	7721.5	
519.65	9036.3	
519.84	6892.8	
520.04	7428.7	
520.24	9356.5	
520.43	8300.4	
520.63	6527.6	
520.83	6352.1	
521.02	7680.6	
521.22	8264.9	
521.42	6926.9	
521.61	7301.7	
521.81	7917.4	
522.01	8088.1	
522.2	6679.8	
522.4	6512.5	
522.6	8454.7	
522.79	7302.4	
522.99	6554.9	
523.18	5905.7	
523.38	8125.7	
523.58	8120.9	
523.77	7585	
523.97	5913.2	
524.17	9553.8	
524.36	8938	
524.56	7071.6	
524.76	6755.6	
524.95	8131.1	
525.15	7845.8	
525.34	6662	
525.54	6608.8	
525.74	8495.7	
525.93	7627.3	
526.13	7721.5	
526.33	6644.3	
526.52	8735.3	
526.72	8286.1	
526.91	7672.4	
527.11	7030.7	
527.31	8808.3	
527.5	9078.6	
527.7	7015	
527.89	6146	
528.09	7785.7	
528.29	8208.3	
528.48	7268.2	
528.68	6951.5	
528.87	8617.2	
529.07	8660.2	
529.27	6940.6	
529.46	6550.8	
529.66	8532.5	
529.85	8768.7	
530.05	6419	
530.25	7100.3	
530.44	9483.5	
530.64	8302.5	
530.83	6746	
531.03	7007.5	
531.23	8818.6	
531.42	8596	
531.62	7605.5	
531.81	6827.2	
532.01	8784.4	
532.21	9133.3	
532.4	6668.9	
532.6	7005.4	
532.79	9505.3	
532.99	8821.3	
533.18	7019.1	
533.38	7791.2	
533.58	8410.3	
533.77	9058.8	
533.97	6956.3	
534.16	7638.2	
534.36	9320.3	
534.55	8516.1	
534.75	7851.9	
534.95	7049.8	
535.14	9159.9	
535.34	8447.2	
535.53	6825.9	
535.73	8402.8	
535.92	9678	
536.12	8626.7	
536.31	6939.9	
536.51	8017.8	
536.71	8974.9	
536.9	8561.9	
537.1	7094.8	
537.29	7089.4	
537.49	9241.1	
537.68	8512.7	
537.88	7473.7	
538.07	6788.3	
538.27	8696.4	
538.46	9514.2	
538.66	6714.6	
538.86	7038.2	
539.05	8682.7	
539.25	9021.3	
539.44	7304.4	
539.64	6992.4	
539.83	8587.1	
540.03	9331.9	
540.22	6860.7	
540.42	6989.7	
540.61	8766.7	
540.81	8850	
541	7371.3	
541.2	7882.6	
541.39	8386.4	
541.59	8647.2	
541.78	7610.3	
541.98	6888	
542.18	8133.8	
542.37	8034.2	
542.57	7159.7	
542.76	7628.7	
542.96	8130.4	
543.15	8691.6	
543.35	7282.6	
543.54	6657.9	
543.74	8953.7	
543.93	8697	
544.13	7157	
544.32	8071	
544.52	8858.1	
544.71	8235.6	
544.91	6397.9	
545.1	7346.7	
545.3	8269.7	
545.49	8801.5	
545.69	6346.7	
545.88	6914.6	
546.08	9576.3	
546.27	9257.5	
546.47	7281.2	
546.66	6595.1	
546.86	8953.7	
547.05	9391.3	
547.24	6843.6	
547.44	6747.4	
547.63	8039	
547.83	8979.7	
548.02	7096.9	
548.22	7185.6	
548.41	7904.5	
548.61	9004.2	
548.8	6700.3	
549	6675	
549.19	8480.6	
549.39	8781	
549.58	6455.9	
549.78	6876.4	
549.97	8830.8	
550.17	8376.9	
550.36	7585.7	
550.55	8417.8	
550.75	8316.8	
550.94	9140.1	
551.14	6552.8	
551.33	6957.6	
551.53	7774.8	
551.72	8717.5	
551.92	6940.6	
552.11	6703.7	
552.31	8759.8	
552.5	8645.8	
552.69	8104.5	
552.89	6394.4	
553.08	8651.3	
553.28	8406.9	
553.47	6730.3	
553.67	7705.8	
553.86	9219.3	
554.06	7660.1	
554.25	6006.7	
554.44	6621.8	
554.64	9907.4	
554.83	9310.7	
555.03	6527.6	
555.22	6804	
555.42	8837.7	
555.61	8489.5	
555.8	6694.1	
556	6909.8	
556.19	7832.8	
556.39	8888.9	
556.58	6741.9	
556.78	6660	
556.97	8451.3	
557.16	8075.1	
557.36	7759.1	
557.55	6404.7	
557.75	7578.2	
557.94	9048.6	
558.13	6462.7	
558.33	6298.2	
558.52	8871.1	
558.72	7858.1	
558.91	6391	
559.1	6650.4	
559.3	7699.7	
559.49	7465.5	
559.69	6097.5	
559.88	6849.1	
560.07	8415.8	
560.27	8776.9	
560.46	7080.5	
560.66	7135.8	
560.85	8288.8	
561.04	7541.3	
561.24	6378.1	
561.43	6518.7	
561.63	7802.1	
561.82	8069.7	
562.01	7543.4	
562.21	6815.6	
562.4	8341.4	
562.59	9120.3	
562.79	6666.1	
562.98	6315.3	
563.18	8297	
563.37	9401.5	
563.56	7043	
563.76	6309.8	
563.95	7891.5	
564.14	7787.1	
564.34	6698.2	
564.53	6464.1	
564.73	8350.3	
564.92	8572.1	
565.11	6779.5	
565.31	6212.9	
565.5	8804.2	
565.69	7828	
565.89	6423.8	
566.08	6728.9	
566.27	8648.6	
566.47	9024.7	
566.66	7250.5	
566.85	6042.9	
567.05	8420.6	
567.24	7770	
567.44	6424.5	
567.63	7479.2	
567.82	8619.2	
568.02	8278.6	
568.21	6376.7	
568.4	6722.8	
568.6	8167.3	
568.79	8129.1	
568.98	6280.4	
569.18	6348	
569.37	8153.6	
569.56	9873.3	
569.76	6716	
569.95	7494.9	
570.14	8544.8	
570.34	8402.8	
570.53	6417	
570.72	6304.3	
570.91	8969.4	
571.11	8123.6	
571.3	6713.9	
571.49	7542	
571.69	8258.8	
571.88	7836.2	
572.07	7214.3	
572.27	7104.4	
572.46	7762.5	
572.65	8724.3	
572.85	6524.1	
573.04	6761.7	
573.23	8882	
573.43	8208.9	
573.62	6287.9	
573.81	6769.2	
574	8365.3	
574.2	8112	
574.39	6574.7	
574.58	6681.2	
574.78	9004.9	
574.97	8258.8	
575.16	7045.7	
575.36	7114	
575.55	8697.7	
575.74	8800.8	
575.93	6253.1	
576.13	7021.8	
576.32	8226	
576.51	8687.5	
576.71	6670.2	
576.9	7828.7	
577.09	8997.4	
577.28	8573.5	
577.48	7037.5	
577.67	6279.8	
577.86	8262.9	
578.05	8544.1	
578.25	6875	
578.44	6827.9	
578.63	8387.1	
578.83	9338.7	
579.02	6358.9	
579.21	7688.8	
579.4	8509.3	
579.6	8204.8	
579.79	6918	
579.98	8776.9	
580.17	8834.9	
580.37	8840.4	
580.56	6576	
580.75	7088.7	
580.94	9219.3	
581.14	9091.6	
581.33	7486	
581.52	6593.8	
581.71	8691.6	
581.91	9269.1	
582.1	6382.8	
582.29	6876.4	
582.48	8332.5	
582.68	8350.9	
582.87	7301.7	
583.06	6924.2	
583.25	8699.1	
583.45	8551	
583.64	7473.7	
583.83	8015.7	
584.02	8224	
584.21	8639	
584.41	7490.8	
584.6	6849.8	
584.79	8415.1	
584.98	8962.6	
585.18	6498.2	
585.37	6489.3	
585.56	8028.7	
585.75	8673.1	
585.94	6688	
586.14	7200	
586.33	9238.4	
586.52	8348.2	
586.71	7116	
586.91	6851.1	
587.1	7897	
587.29	8804.2	
587.48	6810.9	
587.67	6688	
587.87	8665	
588.06	8588.5	
588.25	7804.8	
588.44	7194.5	
588.63	8418.5	
588.83	8809.7	
589.02	6739.2	
589.21	6574.7	
589.4	8217.1	
589.59	8122.2	
589.78	6068.8	
589.98	6281.8	
590.17	7789.1	
590.36	8153	
590.55	5774.6	
590.74	6456.6	
590.94	9282.8	
591.13	8071.7	
591.32	6288.6	
591.51	5893.4	
591.7	8404.2	
591.89	8032.8	
592.09	5993.7	
592.28	6344.6	
592.47	7402.7	
592.66	9007	
592.85	5945.3	
593.05	6136.4	
593.24	7847.8	
593.43	8637.6	
593.62	6221.7	
593.81	6640.9	
594	7985	
594.19	8139.3	
594.39	6113.2	
594.58	5994.4	
594.77	8261.5	
594.96	8531.2	
595.15	6025.1	
595.34	6522.1	
595.54	8189.1	
595.73	7408.9	
595.92	5502.2	
596.11	6496.2	
596.3	8673.1	
596.49	7519.5	
596.68	6307.1	
596.88	6668.9	
597.07	8374.1	
597.26	7407.5	
597.45	5812.1	
597.64	6934.4	
597.83	7617.8	
598.02	8170.7	
598.22	5968.5	
598.41	6546	
598.6	7978.2	
598.79	7510.6	
598.98	6008.7	
599.17	6792.4	
599.36	8008.9	
599.55	8915.5	
599.74	7658	
599.94	7507.9	
600.13	8353.7	
600.32	7405.5	
600.51	5719.3	
600.7	5844.9	
600.89	8926.4	
601.08	8949.6	
601.27	5740.5	
601.47	6446.3	
601.66	8417.2	
601.85	8877.3	
602.04	6315.3	
602.23	6535.8	
602.42	7622.5	
602.61	8070.4	
602.8	6126.2	
602.99	6013.5	
603.18	7813.7	
603.37	7956.4	
603.57	6567.2	
603.76	7007.5	
603.95	8667	
604.14	8173.4	
604.33	6119.3	
604.52	6363	
604.71	8005.5	
604.9	7663.5	
605.09	7089.4	
605.28	6587	
605.47	8449.2	
605.66	8114.7	
605.86	6610.8	
606.05	6064	
606.24	8436.3	
606.43	7239.6	
606.62	6396.5	
606.81	6946	
607	8394.6	
607.19	7817.1	
607.38	5799.8	
607.57	6018.3	
607.76	7638.9	
607.95	7062.8	
608.14	6437.4	
608.33	6963.1	
608.52	7560.4	
608.72	8330.5	
608.91	5791.7	
609.1	5773.9	
609.29	7718.8	
609.48	7251.9	
609.67	6546.7	
609.86	5738.4	
610.05	7365.9	
610.24	7647.1	
610.43	5663.3	
610.62	5365	
610.81	8630.1	
611	8357.1	
611.19	5773.2	
611.38	6399.9	
611.57	7857.4	
611.76	8986.5	
611.95	5632.6	
612.14	5454.4	
612.33	7666.9	
612.52	7277.1	
612.71	6009.4	
612.9	5445.5	
613.09	6974	
613.28	8947.6	
613.47	5927.5	
613.66	6565.8	
613.85	7824.6	
614.04	7372	
614.24	5914.5	
614.43	5206.6	
614.62	7944.1	
614.81	7923.6	
615	6429.3	
615.19	6335	
615.38	7271.7	
615.57	7630.7	
615.76	6274.3	
615.95	7030.7	
616.14	7924.3	
616.33	7604.8	
616.52	6534.4	
616.71	6657.9	
616.9	7965.9	
617.09	7756.3	
617.28	5909.1	
617.47	6978.8	
617.66	7212.9	
617.85	7176.1	
618.04	6746	
618.22	6272.9	
618.41	7458	
618.6	8157.7	
618.79	6223.8	
618.98	5943.2	
619.17	8404.2	
619.36	7060	
619.55	6122.1	
619.74	6096.8	
619.93	7912.7	
620.12	7380.2	
620.31	6547.4	
620.5	6710.5	
620.69	8324.3	
620.88	8749.6	
621.07	7245.7	
621.26	6423.8	
621.45	8032.8	
621.64	8065.6	
621.83	6597.9	
622.02	5932.3	
622.21	8069.7	
622.4	7904.5	
622.59	7083.9	
622.78	6894.1	
622.97	7565.2	
623.16	8385.7	
623.35	6589	
623.54	5791.7	
623.72	7762.5	
623.91	7922.2	
624.1	6821.1	
624.29	5658.5	
624.48	8811	
624.67	8142	
624.86	6740.5	
625.05	5911.1	
625.24	8882	
625.43	7508.5	
625.62	8144.8	
625.81	6130.9	
626	8435.6	
626.19	7740.6	
626.38	6812.9	
626.56	6281.1	
626.75	7621.9	
626.94	8333.9	
627.13	6762.4	
627.32	5702.9	
627.51	8157.7	
627.7	9204.9	
627.89	5791.7	
628.08	6863.4	
628.27	7503.1	
628.46	7777.5	
628.65	6086.6	
628.83	5785.5	
629.02	8202.1	
629.21	7478.5	
629.4	6455.9	
629.59	6593.1	
629.78	7628	
629.97	8339.3	
630.16	6627.9	
630.35	6175.3	
630.54	8740	
630.72	8393.9	
630.91	6132.3	
631.1	6687.3	
631.29	7990.5	
631.48	8084.7	
631.67	6693.4	
631.86	6326.2	
632.05	7713.3	
632.24	7811	
632.42	5910.4	
632.61	6516	
632.8	7732.4	
632.99	7410.9	
633.18	6458.6	
633.37	6865.5	
633.56	8006.2	
633.75	7906.5	
633.93	6485.2	
634.12	6184.9	
634.31	8654.7	
634.5	8306.6	
634.69	6292.7	
634.88	6673.6	
635.07	7684.7	
635.25	8280.6	
635.44	6997.2	
635.63	7146	
635.82	7660.1	
636.01	7234.1	
636.2	6937.8	
636.39	6561	
636.57	8634.2	
636.76	8324.3	
636.95	6094.8	
637.14	7180.9	
637.33	8076.5	
637.52	8809	
637.7	5925.5	
637.89	6737.8	
638.08	7662.1	
638.27	8907.3	
638.46	6734.4	
638.65	7108.5	
638.83	8978.3	
639.02	7580.9	
639.21	6708.5	
639.4	7111.9	
639.59	7923.6	
639.78	7548.1	
639.96	6095.4	
640.15	6136.4	
640.34	7842.4	
640.53	7959.1	
640.72	5850.4	
640.91	6109.1	
641.09	7370.6	
641.28	8513.4	
641.47	6104.3	
641.66	6824.5	
641.85	7955	
642.03	8133.8	
642.22	6616.3	
642.41	6146.6	
642.6	7417.7	
642.79	6956.3	
642.97	5974.6	
643.16	6610.2	
643.35	7410.9	
643.54	7302.4	
643.73	5911.1	
643.91	6632.7	
644.1	7204.8	
644.29	7731.1	
644.48	6030.6	
644.67	6016.2	
644.85	7305.8	
645.04	7621.2	
645.23	5683.1	
645.42	5942.5	
645.6	7258	
645.79	8147.5	
645.98	5929.6	
646.17	5157.5	
646.36	6944	
646.54	7475.8	
646.73	6577.4	
646.92	5573.2	
647.11	7135.1	
647.29	8039.6	
647.48	5601.9	
647.67	5472.2	
647.86	8251.9	
648.05	8228.7	
648.23	5837.4	
648.42	6902.3	
648.61	7722.9	
648.8	7440.3	
648.98	5593	
649.17	5880.4	
649.36	7083.9	
649.55	6647	
649.73	5612.8	
649.92	6267.5	
650.11	7018.4	
650.3	7356.3	
650.48	5640.1	
650.67	5640.8	
650.86	7546.1	
651.05	6610.8	
651.23	5681.1	
651.42	5678.3	
651.61	7080.5	
651.79	7103.7	
651.98	5778	
652.17	5533.6	
652.36	7425.9	
652.54	6579.4	
652.73	5578.7	
652.92	5419.6	
653.11	7481.9	
653.29	7589.8	
653.48	5005.2	
653.67	5823.7	
653.85	7283.3	
654.04	8139.3	
654.23	6079.1	
654.42	5599.8	
654.6	6925.5	
654.79	7390.4	
654.98	5144.5	
655.16	5627.1	
655.35	6567.8	
655.54	6395.1	
655.73	5228.5	
655.91	5124.7	
656.1	7377.5	
656.29	6288.6	
656.47	4683.7	
656.66	6205.3	
656.85	6685.3	
657.03	6668.9	
657.22	5202.5	
657.41	5330.2	
657.59	6754.2	
657.78	6660.7	
657.97	4967	
658.16	5612.1	
658.34	7358.4	
658.53	7690.8	
658.72	6371.2	
658.9	6782.2	
659.09	6967.2	
659.28	6999.3	
659.46	5365.7	
659.65	5328.8	
659.84	6614.9	
660.02	7187.7	
660.21	5206.6	
660.4	5128.8	
660.58	7438.2	
660.77	6964.5	
660.96	5743.9	
661.14	4866	
661.33	7879.9	
661.52	7843	
661.7	4967	
661.89	7978.2	
662.08	6652.5	
662.26	6238.1	
662.45	5130.8	
662.64	5289.9	
662.82	7234.1	
663.01	6537.8	
663.2	5247.6	
663.38	5857.9	
663.57	7089.4	
663.75	7045	
663.94	5458.5	
664.13	6608.1	
664.31	6608.8	
664.5	7207.5	
664.69	5876.3	
664.87	6149.4	
665.06	6401.3	
665.25	7034.1	
665.43	6362.4	
665.62	6419	
665.8	7247.1	
665.99	6719.4	
666.18	5507	
666.36	5597.1	
666.55	7268.9	
666.74	7116.7	
666.92	5256.5	
667.11	6623.1	
667.29	6791.1	
667.48	7262.8	
667.67	6237.4	
667.85	5431.2	
668.04	6756.9	
668.22	6730.3	
668.41	5552.7	
668.6	5685.2	
668.78	6529.6	
668.97	6730.3	
669.15	5868.8	
669.34	4971.1	
669.53	6597.2	
669.71	6897.6	
669.9	5128.1	
670.08	5661.3	
670.27	6470.9	
670.46	7073	
670.64	5870.8	
670.83	6038.8	
671.01	6460	
671.2	6958.3	
671.38	5225.1	
671.57	5111	
671.76	7453.2	
671.94	7966.6	
672.13	5074.9	
672.31	5980.8	
672.5	7185	
672.69	6581.5	
672.87	5212.1	
673.06	5433.9	
673.24	7010.2	
673.43	6613.6	
673.61	5836	
673.8	5463.3	
673.98	7105.8	
674.17	7292.1	
674.36	5969.8	
674.54	5814.9	
674.73	6911.9	
674.91	7162.4	
675.1	5521.3	
675.28	5235.3	
675.47	6773.3	
675.65	7219.1	
675.84	5455.1	
676.03	5746.6	
676.21	6606.1	
676.4	6162.3	
676.58	6135.7	
676.77	5936.4	
676.95	7826.7	
677.14	6513.2	
677.32	5223	
677.51	5027.1	
677.69	7215.7	
677.88	6279.8	
678.06	5084.4	
678.25	5129.5	
678.44	6873	
678.62	6556.9	
678.81	4925.4	
678.99	5690.6	
679.18	7470.3	
679.36	7121.5	
679.55	5399.1	
679.73	5891.3	
679.92	7030	
680.1	6565.8	
680.29	6440.2	
680.47	5335	
680.66	6550.8	
680.84	7219.8	
681.03	4859.8	
681.21	5795.1	
681.4	6553.5	
681.58	6524.1	
681.77	5198.4	
681.95	5175.2	
682.14	7291.5	
682.32	7649.8	
682.51	5975.3	
682.69	4932.9	
682.88	6539.8	
683.06	7060.7	
683.25	5724.8	
683.43	6081.1	
683.62	6780.1	
683.8	7118.7	
683.99	6199.2	
684.17	5597.8	
684.36	7808.9	
684.54	6767.9	
684.73	4904.9	
684.91	5146.5	
685.1	6938.5	
685.28	6456.6	
685.46	5613.5	
685.65	5647.6	
685.83	7162.4	
686.02	6627.2	
686.2	5098.8	
686.39	5184.8	
686.57	6328.9	
686.76	7644.4	
686.94	5115.8	
687.13	5223.7	
687.31	6941.2	
687.5	6513.2	
687.68	4810	
687.86	5827.8	
688.05	8079.2	
688.23	6135.7	
688.42	5808.7	
688.6	5137	
688.79	6410.1	
688.97	6503.7	
689.16	5536.3	
689.34	4627	
689.52	7164.5	
689.71	7322.9	
689.89	5706.3	
690.08	5137.7	
690.26	6759.7	
690.45	6608.8	
690.63	5847	
690.81	5354.8	
691	6614.9	
691.18	6439.5	
691.37	5483.8	
691.55	7307.8	
691.74	6436.8	
691.92	8153	
692.1	5412.1	
692.29	4939	
692.47	6640.2	
692.66	5982.1	
692.84	5118.6	
693.02	5586.2	
693.21	6111.1	
693.39	6649.8	
693.58	5713.8	
693.76	5147.2	
693.94	7600	
694.13	7414.3	
694.31	5145.9	
694.5	6085.2	
694.68	6440.9	
694.86	6769.9	
695.05	5567.1	
695.23	5560.9	
695.42	7116.7	
695.6	9035	
695.78	5985.5	
695.97	5273.5	
696.15	7145.4	
696.34	6586.3	
696.52	5105.6	
696.7	5709.7	
696.89	6895.5	
697.07	6321.4	
697.25	5735	
697.44	6947.4	
697.62	6875	
697.81	7132.4	
697.99	5417.6	
698.17	5773.2	
698.36	6356.9	
698.54	6893.5	
698.72	5718.6	
698.91	4820.9	
699.09	6521.4	
699.28	6374	
699.46	5449.6	
699.64	5285.8	
699.83	6406.7	
700.01	7374.7	
700.19	5917.9	
700.38	4674.1	
700.56	7260.7	
700.74	6445	
700.93	4957.4	
701.11	5719.3	
701.29	6939.9	
701.48	7785.7	
701.66	5145.9	
701.84	5177.3	
702.03	6565.8	
702.21	7111.9	
702.39	4842.1	
702.58	5315.8	
702.76	6833.4	
702.94	7006.1	
703.13	4748.6	
703.31	6808.1	
703.49	6268.8	
703.68	7212.3	
703.86	5019.6	
704.04	5890	
704.23	6798.6	
704.41	7054.6	
704.59	5115.8	
704.78	6118.6	
704.96	7668.3	
705.14	7014.3	
705.33	4909.7	
705.51	5644.9	
705.69	6593.1	
705.87	7339.9	
706.06	5873.6	
706.24	4893.3	
706.42	6874.3	
706.61	7047.7	
706.79	5892.7	
706.97	4876.9	
707.16	6340.5	
707.34	6862.1	
707.52	5790.3	
707.7	5103.5	
707.89	6545.3	
708.07	6194.4	
708.25	5854.5	
708.44	5881.8	
708.62	6479.8	
708.8	7345.4	
708.98	6096.8	
709.17	5158.2	
709.35	6775.4	
709.53	6793.8	
709.72	4938.3	
709.9	5370.5	
710.08	6986.3	
710.26	7043	
710.45	6247	
710.63	5176.6	
710.81	6622.4	
710.99	6715.3	
711.18	5664	
711.36	5274.2	
711.54	6514.6	
711.72	7215.7	
711.91	5277.6	
712.09	4869.4	
712.27	6641.6	
712.45	7580.9	
712.64	5564.3	
712.82	4697.4	
713	6268.8	
713.18	6379.4	
713.37	4857.1	
713.55	5799.8	
713.73	7109.2	
713.91	5950.7	
714.1	5175.2	
714.28	4734.9	
714.46	6818.4	
714.64	6134.3	
714.83	4260.5	
715.01	4899.4	
715.19	6210.1	
715.37	5621.7	
715.55	4653	
715.74	4842.1	
715.92	6906.4	
716.1	5225.1	
716.28	5823.1	
716.47	4984.1	
716.65	5801.2	
716.83	5901.6	
717.01	4861.2	
717.19	4874.2	
717.38	7593.2	
717.56	5531.6	
717.74	5030.5	
717.92	4379.9	
718.1	6592.4	
718.29	5950	
718.47	3949.2	
718.65	4514.4	
718.83	6579.4	
719.01	6378.7	
719.2	3938.2	
719.38	4764.3	
719.56	6290.7	
719.74	7514.7	
719.92	4496.7	
720.11	5350	
720.29	6326.9	
720.47	5530.2	
720.65	4090.5	
720.83	4971.8	
721.02	5822.4	
721.2	5596.4	
721.38	4883.7	
721.56	4220.9	
721.74	5192.3	
721.92	5340.4	
722.11	5313.1	
722.29	5061.2	
722.47	6414.2	
722.65	5723.4	
722.83	4279.6	
723.01	5020.9	
723.2	5748.6	
723.38	5987.6	
723.56	3745.1	
723.74	4769	
723.92	5371.8	
724.1	6363	
724.29	4236.6	
724.47	5154.1	
724.65	5452.4	
724.83	5271.5	
725.01	4072	
725.19	4856.4	
725.37	5380	
725.56	5410.7	
725.74	3972.4	
725.92	4190.1	
726.1	5366.4	
726.28	5624.4	
726.46	4575.8	
726.64	4297.3	
726.83	5637.4	
727.01	5861.3	
727.19	3978.5	
727.37	4680.3	
727.55	5728.9	
727.73	6118	
727.91	3922.5	
728.09	3736.9	
728.28	6146	
728.46	6467.5	
728.64	4669.4	
728.82	4619.5	
729	7060	
729.18	6432	
729.36	3949.8	
729.54	6016.9	
729.72	7146.7	
729.91	5769.1	
730.09	5644.9	
730.27	4545.1	
730.45	5694	
730.63	6249.7	
730.81	5055.8	
730.99	4274.8	
731.17	6685.3	
731.35	5496.1	
731.53	4732.9	
731.71	4405.2	
731.9	6466.8	
732.08	6472.9	
732.26	4644.8	
732.44	4259.1	
732.62	6646.3	
732.8	6188.3	
732.98	4975.2	
733.16	4126	
733.34	6197.8	
733.52	5126.1	
733.7	4590.2	
733.88	4855.1	
734.07	6026.5	
734.25	5827.2	
734.43	4067.3	
734.61	5417.6	
734.79	7122.8	
734.97	5694	
735.15	4286.4	
735.33	4515.1	
735.51	6010.8	
735.69	5687.2	
735.87	5423.7	
736.05	4690.5	
736.23	5797.8	
736.41	5623.7	
736.59	4567.7	
736.77	4604.5	
736.95	6194.4	
737.13	5695.4	
737.32	4142.4	
737.5	4382.7	
737.68	6718.7	
737.86	5646.9	
738.04	4037.2	
738.22	5645.6	
738.4	5509.7	
738.58	5737	
738.76	4611.3	
738.94	3627	
739.12	5558.9	
739.3	5459.9	
739.48	5119.9	
739.66	4836.6	
739.84	5793	
740.02	5806.7	
740.2	3758.7	
740.38	4052.9	
740.56	6112.5	
740.74	5104.2	
740.92	4631.1	
741.1	4506.9	
741.28	5638.7	
741.46	5464	
741.64	4218.8	
741.82	4767.7	
742	5681.7	
742.18	5609.4	
742.36	4410	
742.54	4117.8	
742.72	6150.1	
742.9	5003.2	
743.08	4726.7	
743.26	3631	
743.44	6248.4	
743.62	6142.5	
743.8	4828.4	
743.98	4027.7	
744.16	5890.6	
744.34	5688.6	
744.52	4805.2	
744.7	4685.8	
744.88	6075	
745.06	5623.7	
745.24	4831.8	
745.42	4921.3	
745.6	6086.6	
745.78	5938.4	
745.96	3852.9	
746.14	4083	
746.32	6775.4	
746.5	6088.6	
746.68	4547.2	
746.86	4137.6	
747.03	6456.6	
747.21	5014.8	
747.39	4572.4	
747.57	4051.6	
747.75	5760.3	
747.93	6036	
748.11	4053.6	
748.29	3986.7	
748.47	7094.2	
748.65	5511.1	
748.83	4710.3	
749.01	4491.9	
749.19	5931.6	
749.37	5220.3	
749.55	4370.4	
749.73	4400.4	
749.91	5681.7	
750.09	5453.1	
750.26	4493.2	
750.44	3868.6	
750.62	5606.7	
750.8	5550.7	
750.98	3818.1	
751.16	4108.9	
751.34	5742.5	
751.52	5139.7	
751.7	4764.9	
751.88	3732.1	
752.06	6050.4	
752.24	5913.2	
752.42	3764.2	
752.59	4002.4	
752.77	5590.3	
752.95	6602	
753.13	4719.9	
753.31	4218.8	
753.49	5337	
753.67	5693.4	
753.85	4417.5	
754.03	4018.1	
754.21	6019.7	
754.38	6244.9	
754.56	4186.7	
754.74	3381.2	
754.92	5304.2	
755.1	5857.9	
755.28	3407.8	
755.46	3495.9	
755.64	6630	
755.82	6776	
755.99	3773.7	
756.17	3885.7	
756.35	4614.8	
756.53	5907	
756.71	2971.6	
756.89	3730	
757.07	5561.6	
757.25	4816.8	
757.42	4200.4	
757.6	4951.3	
757.78	5676.3	
757.96	4760.8	
758.14	3893.9	
758.32	3454.9	
758.5	4360.8	
758.67	5107	
758.85	3743	
759.03	3873.4	
759.21	5253	
759.39	4738.3	
759.57	3401.7	
759.75	4404.5	
759.92	5770.5	
760.1	5257.1	
760.28	4711.7	
760.46	4923.3	
760.64	4969.1	
760.82	4749.9	
760.99	4515.1	
761.17	3803.8	
761.35	5670.8	
761.53	4780	
761.71	3894.6	
761.89	4534.2	
762.06	5553.4	
762.24	5081	
762.42	3977.8	
762.6	3739.6	
762.78	5127.4	
762.96	5685.2	
763.13	4278.9	
763.31	3957.4	
763.49	5776	
763.67	5035.3	
763.85	4732.2	
764.02	5102.9	
764.2	6087.2	
764.38	5302.9	
764.56	3895.9	
764.74	4665.3	
764.91	6073.6	
765.09	5121.3	
765.27	3641.3	
765.45	3446	
765.63	6214.9	
765.8	5923.4	
765.98	3272	
766.16	3467.2	
766.34	4818.2	
766.52	4614.8	
766.69	4324.6	
766.87	3405.8	
767.05	5160.2	
767.23	5895.4	
767.41	3689.1	
767.58	3921.2	
767.76	5658.5	
767.94	5718.6	
768.12	3740.3	
768.29	4371.7	
768.47	5239.4	
768.65	5881.8	
768.83	3467.9	
769	4480.3	
769.18	4869.4	
769.36	5418.9	
769.54	4399.7	
769.72	3458.3	
769.89	5764.3	
770.07	5803.9	
770.25	3771	
770.43	4807.9	
770.6	6411.5	
770.78	6742.6	
770.96	3947.8	
771.14	4454.3	
771.31	5672.9	
771.49	5069.4	
771.67	3250.1	
771.85	3391.4	
772.02	4438.6	
772.2	5057.1	
772.38	4024.9	
772.55	3613.3	
772.73	5345.9	
772.91	5179.3	
773.09	3994.9	
773.26	4068.6	
773.44	5339.7	
773.62	5052.3	
773.8	3519.1	
773.97	3363.4	
774.15	5302.9	
774.33	5023.7	
774.5	3491.8	
774.68	3823.6	
774.86	5587.5	
775.04	5111	
775.21	3522.5	
775.39	3446.7	
775.57	5283.8	
775.74	5618.3	
775.92	3427.6	
776.1	3264.5	
776.27	5274.2	
776.45	6290	
776.63	3612.6	
776.81	3121.8	
776.98	5001.8	
777.16	5907.7	
777.34	3627	
777.51	3929.4	
777.69	5017.5	
777.87	4801.8	
778.04	3727.3	
778.22	4195.6	
778.4	4811.4	
778.57	5414.1	
778.75	3026.2	
778.93	3350.5	
779.1	4653.7	
779.28	4506.9	
779.46	3077.4	
779.64	3523.9	
779.81	5588.2	
779.99	6228.6	
780.17	4224.3	
780.34	4291.9	
780.52	5043.5	
780.69	5251.7	
780.87	3813.3	
781.05	3390.8	
781.22	5170.4	
781.4	5171.8	
781.58	3599.6	
781.75	2863.7	
781.93	5049.6	
782.11	4627.7	
782.28	4329.4	
782.46	3564.8	
782.64	4530.1	
782.81	5339.7	
782.99	3652.2	
783.17	3584.6	
783.34	5124.7	
783.52	4575.8	
783.69	3776.5	
783.87	4496	
784.05	4724	
784.22	4654.4	
784.4	4493.9	
784.58	3891.1	
784.75	5461.2	
784.93	4699.4	
785.1	3561.4	
785.28	4079.6	
785.46	5214.8	
785.63	4607.2	
785.81	3525.2	
785.99	3426.9	
786.16	4801.8	
786.34	5128.8	
786.51	3457	
786.69	3778.5	
786.87	4417.5	
787.04	4926	
787.22	3338.9	
787.39	4188.8	
787.57	4588.1	
787.75	5569.1	
787.92	4315.1	
788.1	4280.3	
788.27	4642.1	
788.45	4479.6	
788.63	4028.4	
788.8	2906.1	
788.98	5061.9	
789.15	4351.9	
789.33	3064.4	
789.5	3605.8	
789.68	5470.8	
789.86	5584.8	
790.03	4040	
790.21	3448.8	
790.38	5451	
790.56	4846.9	
790.73	3375.7	
790.91	3373.7	
791.09	4689.2	
791.26	5305.6	
791.44	3645.4	
791.61	3085.6	
791.79	4618.9	
791.96	4739.7	
792.14	3207.8	
792.32	2820.1	
792.49	4659.1	
792.67	4777.2	
792.84	3282.2	
793.02	3088.3	
793.19	5076.2	
793.37	5683.8	
793.54	2842.6	
793.72	3167.5	
793.89	5717.2	
794.07	4683.7	
794.25	3566.2	
794.42	3006.4	
794.6	5542.5	
794.77	5309	
794.95	3885	
795.12	3452.9	
795.3	4776.5	
795.47	5166.3	
795.65	3758	
795.82	3628.3	
796	4534.2	
796.17	6161	
796.35	3488.4	
796.52	4119.1	
796.7	5140.4	
796.87	5264.6	
797.05	3567.6	
797.22	4227.7	
797.4	5181.4	
797.57	6008.1	
797.75	3631	
797.92	3440.6	
798.1	5477	
798.27	4569	
798.45	2960	
798.62	3145	
798.8	4913.8	
798.97	5382.7	
799.15	3837.9	
799.32	3652.2	
799.5	4305.5	
799.67	4978.6	
799.85	3966.2	
800.02	2854.9	
800.2	4659.1	
800.37	4831.2	
800.55	4055	
800.72	3465.8	
800.9	5347.2	
801.07	5666.7	
801.25	4606.6	
801.42	3731.4	
801.6	5365.7	
801.77	5039.4	
801.95	3521.8	
802.12	3373	
802.29	5146.5	
802.47	5020.3	
802.64	3704.8	
802.82	2854.2	
802.99	4645.5	
803.17	5471.5	
803.34	3616	
803.52	3287.7	
803.69	6090	
803.87	4428.4	
804.04	3588.7	
804.21	3716.4	
804.39	5591.6	
804.56	4779.3	
804.74	3117	
804.91	3716.4	
805.09	4636.6	
805.26	4724	
805.44	3141.6	
805.61	3463.1	
805.78	5248.3	
805.96	5188.2	
806.13	3776.5	
806.31	4034.5	
806.48	4272.1	
806.66	4709.6	
806.83	3758	
807	3684.3	
807.18	4684.4	
807.35	4998.4	
807.53	3630.4	
807.7	2956.6	
807.87	5657.2	
808.05	4702.1	
808.22	4033.1	
808.4	2936.8	
808.57	4702.8	
808.74	4360.8	
808.92	3344.3	
809.09	4238.6	
809.27	4661.2	
809.44	5104.9	
809.61	3009.8	
809.79	3252.2	
809.96	5702.9	
810.14	5265.3	
810.31	2895.1	
810.48	3547.8	
810.66	4765.6	
810.83	5369.8	
811.01	3310.2	
811.18	3745.7	
811.35	5347.9	
811.53	4176.5	
811.7	3997.6	
811.87	3766.9	
812.05	4762.2	
812.22	4616.8	
812.39	3254.2	
812.57	3218.7	
812.74	4778.6	
812.92	6084.5	
813.09	3513.6	
813.26	3796.3	
813.44	5877	
813.61	4587.4	
813.78	2987.3	
813.96	3938.2	
814.13	4730.8	
814.3	4424.3	
814.48	4156	
814.65	3474.7	
814.82	5925.5	
815	4503.5	
815.17	3634.5	
815.34	4347.2	
815.52	4632.5	
815.69	4588.1	
815.87	3598.3	
816.04	3560.7	
816.21	4681	
816.38	4205.2	
816.56	3491.1	
816.73	3278.1	
816.9	5881.1	
817.08	5259.9	
817.25	3273.3	
817.42	4049.5	
817.6	4311.7	
817.77	4683.7	
817.94	3646.1	
818.12	3269.2	
818.29	4520.5	
818.46	6749.4	
818.64	3377.1	
818.81	3124.5	
818.98	4438.6	
819.16	6311.8	
819.33	3879.5	
819.5	3606.5	
819.67	4982.7	
819.85	5553.4	
820.02	3604.4	
820.19	3734.8	
820.37	4932.2	
820.54	4587.4	
820.71	3727.3	
820.88	4525.3	
821.06	4910.3	
821.23	4500.8	
821.4	3668.6	
821.58	3657	
821.75	5339.1	
821.92	4856.4	
822.09	2975.7	
822.27	3233.7	
822.44	4672.8	
822.61	4616.8	
822.79	2994.1	
822.96	5610.1	
823.13	4999.1	
823.3	4437.9	
823.48	3475.4	
823.65	3084.9	
823.82	5292.6	
823.99	4310.3	
824.17	4331.5	
824.34	3167.5	
824.51	6084.5	
824.68	4782.7	
824.86	3310.9	
825.03	3634.5	
825.2	4732.9	
825.37	5603.2	
825.55	3265.1	
825.72	3612.6	
825.89	6028.5	
826.06	5752.1	
826.24	3611.9	
826.41	3558	
826.58	5673.6	
826.75	4928.8	
826.92	2863.1	
827.1	3173	
827.27	7528.3	
827.44	6032	
827.61	3368.2	
827.79	4057	
827.96	4500.1	
828.13	4780	
828.3	3516.4	
828.47	2970.2	
828.65	4930.1	
828.82	4840	
828.99	4474.8	
829.16	3906.8	
829.34	5283.8	
829.51	5063.9	
829.68	3631.7	
829.85	3800.3	
830.02	5586.2	
830.2	5219.6	
830.37	2846.7	
830.54	4293.2	
830.71	5955.5	
830.88	4757.4	
831.05	2927.2	
831.23	3265.1	
831.4	5728.9	
831.57	6321.4	
831.74	3358.7	
831.91	2975.7	
832.09	4943.1	
832.26	5302.2	
832.43	3460.4	
832.6	3894.6	
832.77	4911.7	
832.94	5588.2	
833.12	2825.5	
833.29	3414.6	
833.46	4652.3	
833.63	6451.1	
833.8	3791.5	
833.97	3460.4	
834.15	5293.3	
834.32	5061.2	
834.49	3649.5	
834.66	3628.3	
834.83	5402.5	
835	4534.2	
835.17	3289.7	
835.35	3351.2	
835.52	5179.3	
835.69	5074.2	
835.86	3562.8	
836.03	2901.3	
836.2	5230.5	
836.37	4892.6	
836.55	3459.7	
836.72	3279.5	
836.89	4887.8	
837.06	5324	
837.23	3532.7	
837.4	3825.6	
837.57	5969.1	
837.75	6509.1	
837.92	3201	
838.09	3364.8	
838.26	4887.1	
838.43	5478.3	
838.6	3647.4	
838.77	3258.3	
838.94	6115.2	
839.11	5975.3	
839.29	3512.9	
839.46	2748.4	
839.63	5212.1	
839.8	4995	
839.97	3366.9	
840.14	3338.2	
840.31	5066	
840.48	5234.6	
840.65	2816	
840.82	3291.1	
841	5230.5	
841.17	5130.2	
841.34	3091.1	
841.51	3192.1	
841.68	5214.1	
841.85	4967	
842.02	3235.1	
842.19	2710.1	
842.36	5049.6	
842.53	4999.8	
842.7	3105.4	
842.87	3781.2	
843.05	6443.6	
843.22	4942.4	
843.39	2966.8	
843.56	3171.6	
843.73	4780	
843.9	5303.6	
844.07	4906.9	
844.24	4106.2	
844.41	7406.1	
844.58	4636.6	
844.75	3001.6	
844.92	3276.1	
845.09	5238.7	
845.26	5248.3	
845.43	3065.1	
845.6	3235.1	
845.77	5259.2	
845.94	4994.3	
846.12	3392.8	
846.29	3589.4	
846.46	5464	
846.63	5191.6	
846.8	3087.7	
846.97	3678.2	
847.14	5601.2	
847.31	5232.6	
847.48	3453.6	
847.65	3834.5	
847.82	5456.5	
847.99	5421.7	
848.16	4074.1	
848.33	3816.7	
848.5	4831.2	
848.67	5604.6	
848.84	3059	
849.01	3231.7	
849.18	4781.3	
849.35	4443.4	
849.52	3855	
849.69	3009.1	
849.86	5453.7	
850.03	5530.2	
850.2	3095.8	
850.37	3760.8	
850.54	5528.2	
850.71	4976.6	
850.88	3698.6	
851.05	3044.6	
851.22	5159.5	
851.39	5710.4	
851.56	2878.8	
851.73	3549.1	
851.9	4633.9	
852.07	5466.7	
852.24	3426.9	
852.41	3041.9	
852.58	5127.4	
852.75	4629.8	
852.92	3489.7	
853.09	3025.5	
853.26	4894	
853.43	5614.8	
853.6	3097.9	
853.77	2663	
853.94	5660.6	
854.11	5139.7	
854.28	4522.6	
854.44	3325.9	
854.61	6042.9	
854.78	5541.8	
854.95	3062.4	
855.12	3836.5	
855.29	4214	
855.46	5971.9	
855.63	3072	
855.8	4220.2	
855.97	4822.3	
856.14	5502.9	
856.31	4294.6	
856.48	3327.3	
856.65	4874.2	
856.82	4640	
856.99	2948.4	
857.16	3328.6	
857.33	6262	
857.49	4929.5	
857.66	3330.7	
857.83	3547.8	
858	4906.9	
858.17	5094	
858.34	2904	
858.51	3103.4	
858.68	5795.1	
858.85	5813.5	
859.02	3530	
859.19	3757.3	
859.36	4670.7	
859.52	4635.2	
859.69	3051.5	
859.86	3659	
860.03	4671.4	
860.2	5730.9	
860.37	2814.6	
860.54	3107.5	
860.71	5392.3	
860.88	5770.5	
861.05	3416.7	
861.21	3835.2	
861.38	5743.9	
861.55	4525.3	
861.72	2839.8	
861.89	3415.3	
862.06	5433.9	
862.23	5836	
862.4	2999.6	
862.56	3257	
862.73	5300.1	
862.9	5019.6	
863.07	3628.3	
863.24	2837.1	
863.41	4612.7	
863.58	4635.9	
863.75	3192.8	
863.91	3562.8	
864.08	5703.6	
864.25	5351.3	
864.42	3878.2	
864.59	4322.6	
864.76	5977.3	
864.93	4618.9	
865.09	3014.6	
865.26	3294.5	
865.43	5634	
865.6	5956.2	
865.77	2758.6	
865.94	3053.5	
866.1	5607.3	
866.27	5366.4	
866.44	4501.4	
866.61	2908.1	
866.78	4942.4	
866.95	5354.8	
867.11	3027.6	
867.28	2728.6	
867.45	5565.7	
867.62	4644.8	
867.79	3580.5	
867.96	3061.7	
868.12	4588.8	
868.29	5395.7	
868.46	2702	
868.63	4072	
868.8	5602.6	
868.97	5363.6	
869.13	3246.7	
869.3	3233.1	
869.47	5308.3	
869.64	5496.1	
869.81	3119.1	
869.97	3123.2	
870.14	5191.6	
870.31	5814.2	
870.48	3022.1	
870.65	3876.8	
870.81	4941.7	
870.98	4961.5	
871.15	3520.5	
871.32	3235.1	
871.48	5287.2	
871.65	5754.1	
871.82	3067.9	
871.99	3356.6	
872.16	6175.3	
872.32	5633.3	
872.49	3137.5	
872.66	3136.1	
872.83	5467.4	
872.99	4784.1	
873.16	3545.7	
873.33	3069.2	
873.5	5087.2	
873.67	5112.4	
873.83	3237.8	
874	4192.2	
874.17	5229.1	
874.34	6077	
874.5	3935.5	
874.67	3843.4	
874.84	5711.8	
875.01	4562.9	
875.17	4270	
875.34	3097.9	
875.51	5160.9	
875.68	6184.9	
875.84	3732.8	
876.01	4431.8	
876.18	5418.9	
876.34	5302.9	
876.51	3150.5	
876.68	3045.3	
876.85	4949.3	
877.01	5679.7	
877.18	4293.9	
877.35	3011.9	
877.52	5120.6	
877.68	4580.6	
877.85	3016	
878.02	3077.4	
878.18	4993.6	
878.35	4773.8	
878.52	2504	
878.69	3403.7	
878.85	5455.1	
879.02	5247.6	
879.19	4299.4	
879.35	3308.8	
879.52	5391.6	
879.69	5508.4	
879.86	2676.7	
880.02	3457	
880.19	5027.8	
880.36	6047	
880.52	3514.3	
880.69	3635.8	
880.86	5465.3	
881.02	5523.4	
881.19	3370.3	
881.36	3373	
881.52	5375.2	
881.69	4767.7	
881.86	3321.8	
882.02	3218	
882.19	5601.9	
882.36	6475.7	
882.52	3163.4	
882.69	4305.5	
882.86	5196.4	
883.02	5133.6	
883.19	3761.4	
883.36	3472.7	
883.52	5402.5	
883.69	6157.6	
883.86	3147	
884.02	2806.4	
884.19	5439.4	
884.36	5088.5	
884.52	3455.6	
884.69	3247.4	
884.86	4870.8	
885.02	5864	
885.19	3390.8	
885.36	3535.5	
885.52	4967.7	
885.69	5193.6	
885.86	4443.4	
886.02	4036.5	
886.19	5438	
886.35	4945.2	
886.52	3358	
886.69	4252.9	
886.85	4668	
887.02	5709.7	
887.19	5709.7	
887.35	5709.7	
887.52	5709.7	
887.68	5709.7	
887.85	5709.7	
888.02	5709.7	
888.18	5709.7	
888.35	5709.7	
888.51	5709.7	
888.68	5709.7	
888.85	5709.7	
889.01	5709.7	
889.18	5709.7	
889.35	5709.7	
889.51	5709.7	
889.68	5709.7	
889.84	5709.7	
890.01	5709.7	
890.17	5709.7	
890.34	5709.7	
890.51	5709.7	
890.67	5709.7	
890.84	5709.7	
891	5709.7	
891.17	5709.7	
891.34	5709.7	
891.5	5709.7	
891.67	5709.7	
891.83	5709.7	
892	5709.7	
892.16	5709.7	
892.33	5709.7	
892.5	5709.7	
892.66	5709.7	
892.83	5709.7	
892.99	5709.7	
893.16	5709.7	
893.32	5709.7	
893.49	5709.7	
893.65	5709.7	
893.82	5709.7	
893.99	5709.7	
894.15	5709.7	
894.32	5709.7	
894.48	5709.7	
894.65	5709.7	
894.81	5709.7	
894.98	5709.7	
895.14	5709.7	
895.31	5709.7	
895.47	5709.7	
895.64	5709.7	
895.81	5709.7	
895.97	5709.7	
896.14	5709.7	
896.3	5709.7	
896.47	5709.7	
896.63	5709.7	
896.8	5709.7	
896.96	5709.7	
897.13	5709.7	
897.29	5709.7	
897.46	5709.7	
897.62	5709.7	
897.79	5709.7	
897.95	5709.7	
898.12	5709.7	
898.28	5709.7	
898.45	5709.7	
898.61	5709.7	
898.78	5709.7	
898.94	5709.7	
899.11	5709.7	
899.27	5709.7	
899.44	5709.7	
899.6	5709.7	
899.77	5709.7	
899.93	5709.7	
900.1	5709.7	
900.26	5709.7	
900.43	5709.7	
900.59	5709.7	
900.76	5709.7	
900.92	5709.7	
901.09	5709.7	
901.25	5709.7	
901.42	5709.7	
901.58	5709.7	
901.75	5709.7	
901.91	5709.7	
902.07	5709.7	
902.24	5709.7	
902.4	5709.7	
902.57	5709.7	
902.73	5709.7	
902.9	5709.7	
903.06	5709.7	
903.23	5709.7	
903.39	5709.7	
903.56	5709.7	
903.72	5709.7	
903.88	5709.7	
904.05	5709.7	
904.21	5709.7	
904.38	5709.7	
904.54	5709.7	
904.71	5709.7	
904.87	5709.7	
905.03	5709.7	
905.2	5709.7	
905.36	5709.7	
905.53	5709.7	
905.69	5709.7	
905.86	5709.7	
906.02	5709.7	
906.18	5709.7	
906.35	5709.7	
906.51	5709.7	
906.68	5709.7	
906.84	5709.7	
907.01	5709.7	
907.17	5709.7	
907.33	5709.7	
907.5	5709.7	
907.66	5709.7	
907.83	5709.7	
907.99	5709.7	
908.15	5709.7	
908.32	5709.7	
908.48	5709.7	
908.65	5709.7	
908.81	5709.7	
908.97	5709.7	
909.14	5709.7	
909.3	5709.7	
909.47	5709.7	
909.63	5709.7	
909.79	5709.7	
909.96	5709.7	
910.12	5709.7	
910.28	5709.7	
910.45	5709.7	
910.61	5709.7	
910.78	5709.7	
910.94	5709.7	
911.1	5709.7	
911.27	5709.7	
911.43	5709.7	
911.59	5709.7	
911.76	5709.7	
911.92	5709.7	
912.08	5709.7	
912.25	5709.7	
912.41	5709.7	
912.57	5709.7	
912.74	5709.7	
912.9	5709.7	
913.07	5709.7	
913.23	5709.7	
913.39	5709.7	
913.56	5709.7	
913.72	5709.7	
913.88	5709.7	
914.05	5709.7	
914.21	5709.7	
914.37	5709.7	
914.54	5709.7	
914.7	5709.7	
914.86	5709.7	
915.03	5709.7	
915.19	5709.7	
