Wavelength	Intensities	
nm	a.u.	
179.22	1935.5	
179.44	1929.5	
179.65	1941.5	
179.86	1917.6	
180.08	1925.8	
180.29	5047.6	
180.51	3553.9	
180.72	5780.1	
180.94	6778.8	
181.15	3324.5	
181.37	3221.5	
181.58	5655.1	
181.79	5916.6	
182.01	3443.3	
182.22	3690.4	
182.44	5810.1	
182.65	4901.5	
182.87	4653.7	
183.08	4080.2	
183.29	6182.1	
183.51	5043.5	
183.72	3751.9	
183.94	5530.2	
184.15	5478.3	
184.37	5535.7	
184.58	3294.5	
184.79	4569.7	
185.01	5115.8	
185.22	5835.3	
185.44	4850.3	
185.65	3997	
185.86	5352	
186.08	4923.3	
186.29	3151.8	
186.51	3474	
186.72	5137.7	
186.94	6025.8	
187.15	4029	
187.36	4142.4	
187.58	7890.1	
187.79	5621	
188.01	4358.8	
188.22	6802.7	
188.43	6765.8	
188.65	5879	
188.86	3444	
189.08	4123.2	
189.29	5290.6	
189.5	5324	
189.72	3812	
189.93	3957.4	
190.15	6154.8	
190.36	7374.1	
190.57	4203.1	
190.79	4089.8	
191	6215.6	
191.22	6107	
191.43	4305.5	
191.64	3448.8	
191.86	6397.2	
192.07	6148.7	
192.29	3633.8	
192.5	3842.7	
192.71	6080.4	
192.93	5222.3	
193.14	3843.4	
193.35	3903.4	
193.57	5233.9	
193.78	6107	
194	3071.3	
194.21	3751.2	
194.42	5026.4	
194.64	5554.1	
194.85	4111.6	
195.07	4874.8	
195.28	5560.9	
195.49	4795	
195.71	5104.9	
195.92	3551.2	
196.13	5697.4	
196.35	5851	
196.56	5473.5	
196.78	4132.1	
196.99	7199.3	
197.2	6715.3	
197.42	4771.8	
197.63	4207.2	
197.84	4900.1	
198.06	5693.4	
198.27	3827.7	
198.48	5111	
198.7	5233.9	
198.91	5406.6	
199.13	4139.6	
199.34	4182.6	
199.55	6006.7	
199.77	4825.7	
199.98	3674.1	
200.19	4231.8	
200.41	5384.8	
200.62	5101.5	
200.83	4336.9	
201.05	4663.2	
201.26	5401.2	
201.47	5150	
201.69	3709.6	
201.9	3531.4	
202.11	5453.7	
202.33	6559.6	
202.54	3960.8	
202.76	4394.3	
202.97	5636	
203.18	5586.9	
203.4	4325.3	
203.61	4272.7	
203.82	5550.7	
204.04	5158.8	
204.25	4272.1	
204.46	4094.6	
204.68	5509.7	
204.89	5823.7	
205.1	4118.5	
205.32	3515	
205.53	5955.5	
205.74	6092	
205.96	3005.1	
206.17	4268	
206.38	5838.1	
206.6	6067.4	
206.81	4776.5	
207.02	3876.8	
207.24	5763	
207.45	6262.7	
207.66	3989.4	
207.88	3383.9	
208.09	5726.8	
208.3	5464.7	
208.52	3634.5	
208.73	3965.6	
208.94	5453.7	
209.15	6252.4	
209.37	3943.7	
209.58	4225.6	
209.79	6085.9	
210.01	5292.6	
210.22	3175.7	
210.43	3417.4	
210.65	5520	
210.86	5922	
211.07	3926.6	
211.29	3633.8	
211.5	5884.5	
211.71	5382.1	
211.93	3623.5	
212.14	3584.6	
212.35	5436.7	
212.56	5737.7	
212.78	4256.4	
212.99	3435.1	
213.2	6555.5	
213.42	5245.5	
213.63	3777.8	
213.84	4032.5	
214.06	4848.9	
214.27	4989.5	
214.48	3993.5	
214.69	4207.9	
214.91	6205.3	
215.12	6357.6	
215.33	4285.7	
215.55	4803.2	
215.76	6834.8	
215.97	5952.8	
216.18	4067.9	
216.4	4007.9	
216.61	5206.6	
216.82	6052.4	
217.04	3669.3	
217.25	3814.7	
217.46	6202.6	
217.67	5938.4	
217.89	3244.7	
218.1	3433.8	
218.31	5623.7	
218.53	5741.8	
218.74	3800.3	
218.95	3751.2	
219.16	5471.5	
219.38	6457.9	
219.59	3740.3	
219.8	4437.9	
220.01	7169.9	
220.23	5498.1	
220.44	4888.5	
220.65	3649.5	
220.87	5620.3	
221.08	6148.7	
221.29	3347.1	
221.5	4548.5	
221.72	7650.5	
221.93	5229.8	
222.14	4236.6	
222.35	4924.7	
222.57	5641.5	
222.78	5851.7	
222.99	3930.1	
223.2	4331.5	
223.42	5857.9	
223.63	5980.8	
223.84	3035.1	
224.05	2984.6	
224.27	7083.9	
224.48	6558.3	
224.69	4992.9	
224.9	4166.3	
225.12	5734.3	
225.33	5506.3	
225.54	3338.9	
225.75	3681.6	
225.97	5115.1	
226.18	5421	
226.39	4043.4	
226.6	3802.4	
226.82	5281.7	
227.03	5117.2	
227.24	4237.2	
227.45	3470.6	
227.67	5885.2	
227.88	6524.1	
228.09	4638.6	
228.3	4629.1	
228.52	5976.7	
228.73	5498.1	
228.94	3819.5	
229.15	3466.5	
229.36	5416.2	
229.58	5302.9	
229.79	3909.6	
230	4561.5	
230.21	6608.1	
230.43	5632.6	
230.64	4189.5	
230.85	4309.6	
231.06	5906.3	
231.28	5962.3	
231.49	3437.2	
231.7	4091.2	
231.91	5826.5	
232.12	5601.2	
232.34	3504.8	
232.55	4099.4	
232.76	6165.1	
232.97	5722.7	
233.18	3693.2	
233.4	4112.3	
233.61	5753.4	
233.82	5237.3	
234.03	3801.7	
234.25	3795.6	
234.46	7740	
234.67	5532.2	
234.88	4306.9	
235.09	3646.7	
235.31	5825.1	
235.52	5351.3	
235.73	4164.9	
235.94	3535.5	
236.15	5234.6	
236.37	6759.7	
236.58	3698.6	
236.79	4027.7	
237	5825.8	
237.21	5029.8	
237.43	4293.9	
237.64	3346.4	
237.85	10149	
238.06	5034.6	
238.27	4383.3	
238.48	3503.4	
238.7	5880.4	
238.91	5353.4	
239.12	3997.6	
239.33	4052.9	
239.54	5110.4	
239.76	5401.9	
239.97	3953.3	
240.18	3984	
240.39	7030	
240.6	5801.2	
240.82	4099.4	
241.03	3383.9	
241.24	5470.1	
241.45	6393.8	
241.66	3645.4	
241.87	4326	
242.09	6293.4	
242.3	6701	
242.51	4305.5	
242.72	4001	
242.93	6001.2	
243.14	5498.1	
243.36	4700.8	
243.57	5080.3	
243.78	6422.4	
243.99	5773.2	
244.2	4019.5	
244.41	3582.6	
244.63	5005.9	
244.84	5850.4	
245.05	4314.4	
245.26	3984.7	
245.47	5875.6	
245.68	6128.2	
245.9	5382.1	
246.11	4194.9	
246.32	5345.2	
246.53	5752.1	
246.74	6554.9	
246.95	3352.5	
247.16	4984.1	
247.38	5577.3	
247.59	3290.4	
247.8	4042.7	
248.01	5156.1	
248.22	5433.3	
248.43	3631	
248.64	3894.6	
248.86	4891.9	
249.07	5238.7	
249.28	3496.6	
249.49	4065.9	
249.7	6083.8	
249.91	6211.5	
250.12	3316.3	
250.34	3310.9	
250.55	5664.7	
250.76	5547.3	
250.97	4141	
251.18	4188.8	
251.39	6244.9	
251.6	5716.6	
251.81	4279.6	
252.03	4196.3	
252.24	5285.1	
252.45	6083.1	
252.66	3504.8	
252.87	4498	
253.08	5513.8	
253.29	7289.4	
253.5	3515.7	
253.72	4885.8	
253.93	5329.5	
254.14	6576.7	
254.35	3776.5	
254.56	3941.7	
254.77	5800.5	
254.98	5098.1	
255.19	3738.9	
255.41	4905.6	
255.62	5644.9	
255.83	6276.3	
256.04	4306.9	
256.25	4255	
256.46	6645.7	
256.67	5216.9	
256.88	4147.1	
257.09	4634.6	
257.31	5218.2	
257.52	5246.9	
257.73	5183.4	
257.94	3781.2	
258.15	5340.4	
258.36	5554.8	
258.57	4819.6	
258.78	3007.8	
258.99	5980.8	
259.2	5348.6	
259.41	3802.4	
259.63	3953.3	
259.84	6390.3	
260.05	6937.2	
260.26	5102.9	
260.47	3771.7	
260.68	6164.4	
260.89	5429.8	
261.1	4697.4	
261.31	3645.4	
261.52	6084.5	
261.73	6488	
261.95	4931.5	
262.16	4334.2	
262.37	6272.9	
262.58	6337.8	
262.79	4959.5	
263	3907.5	
263.21	5606.7	
263.42	5027.1	
263.63	3962.8	
263.84	3827.7	
264.05	6105	
264.26	6492.7	
264.47	4830.5	
264.69	4206.5	
264.9	6240.8	
265.11	5788.9	
265.32	3684.3	
265.53	3882.9	
265.74	5682.4	
265.95	4977.2	
266.16	4046.8	
266.37	4508.9	
266.58	5668.8	
266.79	5349.3	
267	3717.7	
267.21	3523.2	
267.42	5075.5	
267.63	5464	
267.84	3988.1	
268.06	3442	
268.27	6008.1	
268.48	6326.9	
268.69	3912.3	
268.9	4633.2	
269.11	6287.3	
269.32	5000.5	
269.53	4029.7	
269.74	3734.8	
269.95	5920	
270.16	4887.1	
270.37	4008.6	
270.58	4656.4	
270.79	5357.5	
271	6129.6	
271.21	4302.8	
271.42	4049.5	
271.63	5646.2	
271.84	5201.2	
272.05	3155.2	
272.26	3614	
272.47	5586.2	
272.68	5758.9	
272.89	3787.4	
273.11	4482.3	
273.32	5371.1	
273.53	6536.4	
273.74	4328.7	
273.95	4197	
274.16	6168.5	
274.37	5613.5	
274.58	4422.2	
274.79	3486.3	
275	5563.6	
275.21	6187.6	
275.42	5282.4	
275.63	4555.4	
275.84	5765	
276.05	7296.2	
276.26	4238.6	
276.47	3973.7	
276.68	5296	
276.89	6640.9	
277.1	4558.8	
277.31	3546.4	
277.52	5808	
277.73	5977.3	
277.94	3472.7	
278.15	3850.9	
278.36	5741.8	
278.57	5197.1	
278.78	3833.1	
278.99	4362.9	
279.2	5154.1	
279.41	5130.8	
279.62	5097.4	
279.83	3584.6	
280.04	6842.3	
280.25	5023	
280.46	5040.1	
280.67	4049.5	
280.88	5096.7	
281.09	6270.2	
281.3	4186	
281.51	5348.6	
281.72	5223.7	
281.93	6120.7	
282.14	3744.4	
282.35	4042	
282.56	6059.9	
282.77	6047.7	
282.98	3860.4	
283.19	4797	
283.4	7441.6	
283.61	5468.1	
283.82	3450.1	
284.03	4953.4	
284.24	5655.1	
284.45	6221	
284.66	4984.1	
284.87	4768.4	
285.08	6163.7	
285.29	6298.9	
285.5	3422.8	
285.71	3960.1	
285.92	6211.5	
286.12	6863.4	
286.33	4939	
286.54	3887.7	
286.75	6092.7	
286.96	5369.1	
287.17	3578.5	
287.38	4833.2	
287.59	5193	
287.8	5068	
288.01	3934.8	
288.22	4580.6	
288.43	6039.5	
288.64	5027.1	
288.85	4666.6	
289.06	4455.7	
289.27	5967.1	
289.48	6571.9	
289.69	5016.2	
289.9	4559.5	
290.11	6236.7	
290.32	5261.2	
290.53	4800.4	
290.74	4367.6	
290.94	5971.9	
291.15	6059.3	
291.36	3717.7	
291.57	4528.7	
291.78	5291.3	
291.99	4907.6	
292.2	3629	
292.41	4324.6	
292.62	6163.7	
292.83	5894.7	
293.04	5434.6	
293.25	3603.1	
293.46	5237.3	
293.67	6189	
293.88	3781.9	
294.09	3609.2	
294.29	5053.7	
294.5	5674.9	
294.71	4029.7	
294.92	3840.6	
295.13	5342.5	
295.34	6733.7	
295.55	3359.4	
295.76	3495.9	
295.97	5955.5	
296.18	6772.6	
296.39	3562.8	
296.6	3773.7	
296.81	5656.5	
297.01	5993.7	
297.22	3941	
297.43	3746.4	
297.64	5128.8	
297.85	5158.8	
298.06	3076	
298.27	3371	
298.48	5573.2	
298.69	5234.6	
298.9	4001	
299.11	3719.8	
299.31	5002.5	
299.52	4988.2	
299.73	4386.7	
299.94	4302.8	
300.15	5560.2	
300.36	5156.1	
300.57	4334.2	
300.78	4264.6	
300.99	5446.9	
301.2	5644.9	
301.4	3702.7	
301.61	4129.4	
301.82	5907	
302.03	6006	
302.24	4599.7	
302.45	3515	
302.66	5877	
302.87	6406	
303.08	3769.6	
303.29	5240.1	
303.49	5240.1	
303.7	5544.5	
303.91	3330.7	
304.12	4960.9	
304.33	5028.4	
304.54	5594.4	
304.75	3821.5	
304.96	3609.9	
305.16	5946.6	
305.37	6660.7	
305.58	3287	
305.79	3442.6	
306	5899.5	
306.21	4950.6	
306.42	3717.1	
306.63	5801.9	
306.83	5435.3	
307.04	6186.2	
307.25	4069.3	
307.46	4131.4	
307.67	4711	
307.88	6024.4	
308.09	3670	
308.29	3885	
308.5	5627.1	
308.71	6201.2	
308.92	4076.8	
309.13	3642.7	
309.34	5430.5	
309.55	5459.9	
309.75	4666	
309.96	4293.9	
310.17	6001.9	
310.38	5244.8	
310.59	4582.7	
310.8	4160.8	
311.01	5309	
311.21	5399.1	
311.42	3552.5	
311.63	3691.1	
311.84	5248.9	
312.05	5705.6	
312.26	4194.2	
312.46	4564.2	
312.67	5339.7	
312.88	5078.3	
313.09	3676.1	
313.3	3571.7	
313.51	6347.3	
313.71	6778.8	
313.92	3629	
314.13	3867.9	
314.34	5638.7	
314.55	5464	
314.76	4724.7	
314.96	4145.8	
315.17	5638.1	
315.38	5973.2	
315.59	3642	
315.8	3456.3	
316.01	6435.4	
316.21	6503.7	
316.42	3470.6	
316.63	4011.3	
316.84	5414.1	
317.05	6266.8	
317.26	4291.2	
317.46	3802.4	
317.67	5500.2	
317.88	5953.4	
318.09	4670.1	
318.3	3386.7	
318.5	5270.8	
318.71	5851.7	
318.92	5976	
319.13	4276.8	
319.34	6072.9	
319.54	6239.5	
319.75	3373	
319.96	3231	
320.17	5911.1	
320.38	6146	
320.58	3307.5	
320.79	4004.5	
321	6156.2	
321.21	6329.6	
321.42	4017.4	
321.62	3322.5	
321.83	5119.9	
322.04	5545.9	
322.25	3873.4	
322.46	3663.8	
322.66	5683.8	
322.87	5804.6	
323.08	4615.4	
323.29	3614.7	
323.5	6593.8	
323.7	5076.9	
323.91	4989.5	
324.12	4432.5	
324.33	5649	
324.53	5876.3	
324.74	4328.7	
324.95	4557.4	
325.16	4917.2	
325.37	5378	
325.57	3612.6	
325.78	3730	
325.99	5665.4	
326.2	4999.1	
326.4	5326.8	
326.61	3364.8	
326.82	5556.1	
327.03	5700.9	
327.24	5181.4	
327.44	4986.8	
327.65	5854.5	
327.86	4668	
328.07	4304.1	
328.27	3495.9	
328.48	6255.9	
328.69	5113.1	
328.9	5304.2	
329.1	3939.6	
329.31	5420.3	
329.52	6457.9	
329.73	3614.7	
329.93	4112.3	
330.14	5517.9	
330.35	5804.6	
330.56	6126.2	
330.76	4520.5	
330.97	5378	
331.18	5786.2	
331.39	4065.2	
331.59	3259.7	
331.8	6186.9	
332.01	6352.8	
332.22	3721.8	
332.42	4286.4	
332.63	5616.2	
332.84	5254.4	
333.05	4091.8	
333.25	3747.8	
333.46	5325.4	
333.67	5511.1	
333.88	3819.5	
334.08	4217.5	
334.29	7488.7	
334.5	6268.8	
334.7	3581.2	
334.91	5270.1	
335.12	5073.5	
335.33	6020.3	
335.53	4058.4	
335.74	6109.1	
335.95	5326.1	
336.16	5137.7	
336.36	4050.2	
336.57	4693.3	
336.78	5020.3	
336.98	6180.1	
337.19	5011.4	
337.4	4011.3	
337.61	6728.9	
337.81	5068	
338.02	3722.5	
338.23	4966.3	
338.43	6352.8	
338.64	5167.7	
338.85	3686.3	
339.05	4787.5	
339.26	6406	
339.47	4969.1	
339.68	3629	
339.88	5440.8	
340.09	5803.9	
340.3	6008.1	
340.5	4292.5	
340.71	3288.4	
340.92	5042.1	
341.13	6297.5	
341.33	3566.9	
341.54	4323.9	
341.75	5801.2	
341.95	5434.6	
342.16	4101.4	
342.37	4499.4	
342.57	5091.3	
342.78	5540.4	
342.99	4571.7	
343.19	3242.6	
343.4	5951.4	
343.61	5786.2	
343.81	3919.8	
344.02	3521.8	
344.23	6016.9	
344.43	6506.4	
344.64	4524	
344.85	4439.3	
345.06	5840.8	
345.26	6204.7	
345.47	4214.7	
345.68	4988.2	
345.88	4872.1	
346.09	6050.4	
346.3	4325.3	
346.5	3205.8	
346.71	5517.2	
346.92	5160.9	
347.12	3306.8	
347.33	4240.7	
347.54	6119.3	
347.74	6580.1	
347.95	4203.8	
348.16	3030.3	
348.36	5330.2	
348.57	5011.4	
348.78	4184	
348.98	4512.4	
349.19	5459.9	
349.39	4974.5	
349.6	3309.5	
349.81	3695.2	
350.01	5795.1	
350.22	5259.2	
350.43	4055.7	
350.63	4898.7	
350.84	5535.7	
351.05	5317.2	
351.25	3694.5	
351.46	3303.4	
351.67	6158.2	
351.87	5203.9	
352.08	3970.3	
352.29	4509.6	
352.49	6034.7	
352.7	5693.4	
352.9	3504.8	
353.11	4437.3	
353.32	6705	
353.52	5331.5	
353.73	3483.6	
353.94	4488.5	
354.14	5884.5	
354.35	5686.5	
354.55	3587.4	
354.76	4029.7	
354.97	5810.1	
355.17	5563	
355.38	3379.8	
355.59	4795.7	
355.79	5198.4	
356	5640.1	
356.2	4050.2	
356.41	3461.1	
356.62	4908.3	
356.82	5440.1	
357.03	4285	
357.24	3868.6	
357.44	5194.3	
357.65	5338.4	
357.85	5187.5	
358.06	3999	
358.27	4898.7	
358.47	5138.4	
358.68	3326.6	
358.88	4269.3	
359.09	5743.9	
359.3	6147.3	
359.5	4992.9	
359.71	4349.9	
359.91	6696.2	
360.12	5950	
360.33	4220.9	
360.53	4745.8	
360.74	5158.2	
360.94	5259.9	
361.15	4440.7	
361.36	3624.9	
361.56	6046.3	
361.77	5431.2	
361.97	4973.8	
362.18	3839.3	
362.38	6040.1	
362.59	4980.7	
362.8	3569.6	
363	3368.2	
363.21	4838.7	
363.41	5503.6	
363.62	4161.5	
363.83	5184.1	
364.03	5565.7	
364.24	6690.7	
364.44	5325.4	
364.65	5227.1	
364.85	5360.2	
365.06	5223	
365.27	3757.3	
365.47	3789.4	
365.68	6386.9	
365.88	5331.5	
366.09	4152.6	
366.29	3784.6	
366.5	5613.5	
366.71	6044.9	
366.91	5181.4	
367.12	4358.1	
367.32	6647	
367.53	5855.8	
367.73	4257.7	
367.94	5302.2	
368.14	5833.3	
368.35	6766.5	
368.56	4275.5	
368.76	3969	
368.97	5908.4	
369.17	7781.6	
369.38	3719.8	
369.58	4008.6	
369.79	4942.4	
369.99	6354.2	
370.2	5083.7	
370.4	4183.3	
370.61	5649	
370.82	6844.3	
371.02	4005.1	
371.23	3265.1	
371.43	4775.9	
371.64	6214.2	
371.84	3990.1	
372.05	5351.3	
372.25	7663.5	
372.46	5937.7	
372.66	4004.5	
372.87	3915.7	
373.07	5994.4	
373.28	7632.8	
373.48	5100.8	
373.69	4747.2	
373.9	5425.1	
374.1	5467.4	
374.31	4980	
374.51	4468.7	
374.72	6288.6	
374.92	5075.5	
375.13	5134.9	
375.33	4283	
375.54	5793	
375.74	5244.8	
375.95	4332.1	
376.15	5618.9	
376.36	5773.2	
376.56	5621.7	
376.77	4358.8	
376.97	4825.7	
377.18	6922.8	
377.38	5877	
377.59	5253.7	
377.79	3774.4	
378	5648.3	
378.2	6102.3	
378.41	3933.5	
378.61	3832.4	
378.82	6198.5	
379.02	5236.7	
379.23	4089.8	
379.43	5264.6	
379.64	6238.8	
379.84	5816.2	
380.05	3903.4	
380.25	3770.3	
380.46	5990.3	
380.66	5547.3	
380.87	5299.5	
381.07	5709.1	
381.28	6607.4	
381.48	5976.7	
381.69	3926	
381.89	3980.6	
382.1	4852.3	
382.3	6152.1	
382.51	5111.7	
382.71	6025.8	
382.91	6012.8	
383.12	6524.8	
383.32	4345.8	
383.53	4636.6	
383.73	5842.2	
383.94	5569.8	
384.14	4463.2	
384.35	3581.2	
384.55	5518.6	
384.76	6029.2	
384.96	4321.9	
385.17	4646.2	
385.37	5973.9	
385.58	5231.9	
385.78	4631.8	
385.98	3493.2	
386.19	5465.3	
386.39	5862.7	
386.6	4035.9	
386.8	4276.8	
387.01	5986.9	
387.21	6032	
387.42	4750.6	
387.62	5393.7	
387.83	5195	
388.03	5915.2	
388.23	4357.4	
388.44	5245.5	
388.64	4855.7	
388.85	4981.3	
389.05	4721.9	
389.26	5378.6	
389.46	6959.7	
389.67	6307.1	
389.87	4685.1	
390.07	4767.7	
390.28	5551.4	
390.48	5179.3	
390.69	3910.3	
390.89	4201.1	
391.1	5289.2	
391.3	6295.5	
391.5	5400.5	
391.71	6150.1	
391.91	5950.7	
392.12	7118.1	
392.32	5517.9	
392.53	4666	
392.73	5342.5	
392.93	5575.9	
393.14	4337.6	
393.34	5193.6	
393.55	6115.2	
393.75	5543.2	
393.95	4399.7	
394.16	4313.7	
394.36	5339.1	
394.57	6023.8	
394.77	3797.6	
394.98	4313	
395.18	5203.2	
395.38	5352.7	
395.59	5153.4	
395.79	4047.5	
396	5351.3	
396.2	5853.8	
396.4	4983.4	
396.61	4831.8	
396.81	6068.8	
397.02	5276.9	
397.22	5128.1	
397.42	5157.5	
397.63	6058.6	
397.83	5177.3	
398.04	3950.5	
398.24	4481	
398.44	5831.9	
398.65	4798.4	
398.85	3805.1	
399.05	3929.4	
399.26	5130.8	
399.46	6976.7	
399.67	4392.9	
399.87	4003.8	
400.07	5522	
400.28	5896.1	
400.48	4089.1	
400.69	5208	
400.89	6096.1	
401.09	6559	
401.3	3928.7	
401.5	5228.5	
401.7	6842.3	
401.91	7120.8	
402.11	4300.7	
402.32	4610.7	
402.52	6135	
402.72	6121.4	
402.93	4846.2	
403.13	3612.6	
403.33	6958.3	
403.54	5713.8	
403.74	4483	
403.94	5502.2	
404.15	5733.6	
404.35	6931	
404.56	4218.1	
404.76	6194.4	
404.96	6114.6	
405.17	5918.6	
405.37	5533.6	
405.57	4756.7	
405.78	6130.3	
405.98	5590.3	
406.18	4287.1	
406.39	5289.9	
406.59	6204.7	
406.79	5705.6	
407	4078.9	
407.2	4327.4	
407.4	6092	
407.61	6394.4	
407.81	4159.4	
408.01	6313.2	
408.22	5095.3	
408.42	7202.7	
408.62	5177.3	
408.83	4579.9	
409.03	5631.2	
409.23	5378	
409.44	4681	
409.64	5057.1	
409.84	6620.4	
410.05	6384.9	
410.25	4751.3	
410.45	4543.1	
410.66	5803.3	
410.86	8452	
411.06	4882.4	
411.27	4815.5	
411.47	8130.4	
411.67	6036	
411.88	5075.5	
412.08	5323.4	
412.28	6646.3	
412.49	7175.4	
412.69	4669.4	
412.89	4810	
413.09	6987	
413.3	6831.3	
413.5	4857.8	
413.7	4430.4	
413.91	6083.1	
414.11	6899.6	
414.31	4670.7	
414.52	5105.6	
414.72	6597.2	
414.92	6477	
415.12	4610	
415.33	5188.2	
415.53	6849.1	
415.73	7049.1	
415.94	5593.7	
416.14	4964.3	
416.34	5765	
416.55	5560.2	
416.75	6261.3	
416.95	5656.5	
417.15	6829.3	
417.36	7593.9	
417.56	6469.5	
417.76	5397.8	
417.97	7263.5	
418.17	6815.6	
418.37	4969.1	
418.57	5045.5	
418.78	6531.7	
418.98	6275.7	
419.18	5988.9	
419.38	5952.8	
419.59	6368.5	
419.79	5945.9	
419.99	4862.6	
420.2	5289.9	
420.4	6851.1	
420.6	7092.8	
420.8	4834.6	
421.01	4611.3	
421.21	6541.9	
421.41	6897.6	
421.61	5215.5	
421.82	4880.3	
422.02	6154.8	
422.22	7212.9	
422.42	5759.6	
422.63	5384.1	
422.83	6350.8	
423.03	7440.3	
423.23	5414.1	
423.44	4255.7	
423.64	6343.9	
423.84	6134.3	
424.04	4833.2	
424.25	4473.4	
424.45	7346.7	
424.65	7358.4	
424.85	4247.5	
425.06	4849.6	
425.26	7245	
425.46	6222.4	
425.66	5457.8	
425.87	5052.3	
426.07	7055.9	
426.27	6918	
426.47	5171.8	
426.67	4568.3	
426.88	7443	
427.08	6827.2	
427.28	5498.8	
427.48	4482.3	
427.69	5735	
427.89	6382.8	
428.09	5455.8	
428.29	4577.2	
428.5	7145.4	
428.7	6598.6	
428.9	4404.5	
429.1	5046.2	
429.3	6464.1	
429.51	7005.4	
429.71	4726.7	
429.91	5519.3	
430.11	6747.4	
430.31	6963.8	
430.52	5020.9	
430.72	5302.9	
430.92	7460.1	
431.12	6781.5	
431.32	4663.2	
431.53	5200.5	
431.73	5646.2	
431.93	7472.4	
432.13	4561.5	
432.33	4459.8	
432.54	6191.7	
432.74	6552.8	
432.94	4336.9	
433.14	5498.8	
433.34	6722.8	
433.55	6178	
433.75	5334.3	
433.95	7133.8	
434.15	6405.4	
434.35	6156.9	
434.56	4544.4	
434.76	3955.3	
434.96	6447.7	
435.16	6589	
435.36	4410	
435.56	5569.1	
435.77	6042.9	
435.97	6242.2	
436.17	6281.8	
436.37	5516.5	
436.57	5988.3	
436.78	5855.8	
436.98	6041.5	
437.18	6178.7	
437.38	6631.3	
437.58	6193.1	
437.78	6264.7	
437.99	4838	
438.19	6863.4	
438.39	8331.8	
438.59	4814.1	
438.79	4318.5	
438.99	7519.5	
439.2	6232	
439.4	4448.2	
439.6	4336.2	
439.8	6542.6	
440	7702.4	
440.2	5369.1	
440.4	5515.2	
440.61	6826.6	
440.81	7457.3	
441.01	4511.7	
441.21	5436	
441.41	7256	
441.61	6909.2	
441.81	5801.9	
442.02	6886.6	
442.22	7808.2	
442.42	7023.9	
442.62	4547.2	
442.82	4678.2	
443.02	7285.3	
443.22	6313.2	
443.43	5016.8	
443.63	4586.8	
443.83	6140.5	
444.03	6235.4	
444.23	5848.3	
444.43	5399.8	
444.63	6419.7	
444.83	7704.5	
445.04	4650.9	
445.24	6036.7	
445.44	6952.9	
445.64	7022.5	
445.84	5565	
446.04	5573.2	
446.24	6324.1	
446.44	7329.7	
446.65	4734.2	
446.85	5096	
447.05	6677.7	
447.25	7243.7	
447.45	5216.9	
447.65	4544.4	
447.85	6576	
448.05	6264.7	
448.25	5638.1	
448.46	5427.8	
448.66	6675.7	
448.86	6257.9	
449.06	4369	
449.26	5659.2	
449.46	6984.9	
449.66	5874.3	
449.86	5059.8	
450.06	5063.9	
450.26	6160.3	
450.47	6791.7	
450.67	5409.4	
450.87	5730.9	
451.07	6806.8	
451.27	6614.9	
451.47	4569.7	
451.67	5158.2	
451.87	6122.1	
452.07	7498.3	
452.27	4816.1	
452.47	4820.2	
452.67	6573.3	
452.88	7204.1	
453.08	4153.3	
453.28	6264.7	
453.48	7829.4	
453.68	6529.6	
453.88	4661.9	
454.08	4928.1	
454.28	6849.1	
454.48	6481.1	
454.68	5553.4	
454.88	6105	
455.08	6948.8	
455.28	6708.5	
455.48	4617.5	
455.68	5180.7	
455.89	7471.7	
456.09	6999.3	
456.29	4878.9	
456.49	4901.5	
456.69	7233.4	
456.89	6508.4	
457.09	5472.2	
457.29	5837.4	
457.49	6847.7	
457.69	6889.4	
457.89	5178.6	
458.09	4621.6	
458.29	6543.3	
458.49	7282.6	
458.69	5637.4	
458.89	4963.6	
459.09	7523.6	
459.29	7684.7	
459.49	5120.6	
459.69	5942.5	
459.9	7103	
460.1	6481.8	
460.3	5059.2	
460.5	4793.6	
460.7	6989.7	
460.9	6705	
461.1	4349.9	
461.3	5821	
461.5	7662.8	
461.7	7290.8	
461.9	4711.7	
462.1	5289.9	
462.3	6635.4	
462.5	7347.4	
462.7	4853	
462.9	4929.5	
463.1	8314.1	
463.3	7857.4	
463.5	5136.3	
463.7	6032.6	
463.9	6784.2	
464.1	7234.1	
464.3	5119.9	
464.5	5571.8	
464.7	7424.6	
464.9	6989.7	
465.1	6853.2	
465.3	5758.9	
465.5	7864.2	
465.7	7692.2	
465.9	6036	
466.1	5975.3	
466.3	7494.9	
466.5	7395.2	
466.7	6729.6	
466.9	5593.7	
467.1	7224.6	
467.3	8240.3	
467.5	6657.3	
467.7	5427.8	
467.9	8409	
468.1	9446.6	
468.3	6343.9	
468.5	6800.6	
468.7	7165.2	
468.9	7191.8	
469.1	5677.7	
469.3	6462.7	
469.5	9294.4	
469.7	6664.1	
469.9	6227.9	
470.1	5395	
470.3	7226.6	
470.5	7196.6	
470.7	6862.1	
470.9	5582.1	
471.1	6950.8	
471.3	7475.8	
471.5	5382.1	
471.69	7458	
471.89	6841.6	
472.09	6350.1	
472.29	6214.2	
472.49	6733	
472.69	6548.7	
472.89	7533.1	
473.09	5279.7	
473.29	5582.1	
473.49	6713.2	
473.69	6988.4	
473.89	6560.3	
474.09	5608	
474.29	8306.6	
474.49	8026.7	
474.69	6402	
474.89	5871.5	
475.09	7058.7	
475.29	6944	
475.49	5149.3	
475.69	5406	
475.88	8811	
476.08	7328.3	
476.28	5102.2	
476.48	5698.1	
476.68	7783	
476.88	7675.8	
477.08	5494.7	
477.28	5819	
477.48	7159	
477.68	7869	
477.88	5261.9	
478.08	5531.6	
478.28	8032.1	
478.48	7302.4	
478.67	5626.5	
478.87	5094	
479.07	7854.6	
479.27	7284.6	
479.47	5898.8	
479.67	5925.5	
479.87	7737.2	
480.07	8273.1	
480.27	5129.5	
480.47	6872.3	
480.67	7459.4	
480.87	7980.9	
481.06	5392.3	
481.26	6298.9	
481.46	7230	
481.66	7324.2	
481.86	5901.6	
482.06	7036.8	
482.26	6982.9	
482.46	8080.6	
482.66	5848.3	
482.86	5362.9	
483.05	7369.3	
483.25	6698.9	
483.45	8424	
483.65	5786.9	
483.85	6888	
484.05	7277.1	
484.25	6179.4	
484.45	6771.9	
484.65	8111.3	
484.84	8099.7	
485.04	5745.2	
485.24	5680.4	
485.44	8338.6	
485.64	6591	
485.84	4958.1	
486.04	6408.8	
486.24	7028.6	
486.44	7442.3	
486.63	4853.7	
486.83	5646.9	
487.03	6850.5	
487.23	7073.7	
487.43	4970.4	
487.63	7482.6	
487.83	7147.4	
488.02	8165.9	
488.22	5930.9	
488.42	6599.2	
488.62	8008.2	
488.82	6871.6	
489.02	5639.4	
489.22	5663.3	
489.41	7910.6	
489.61	7461.4	
489.81	5362.3	
490.01	5401.9	
490.21	7796.6	
490.41	8458.1	
490.61	5326.8	
490.8	5472.9	
491	7324.9	
491.2	6619.7	
491.4	6148.7	
491.6	5215.5	
491.8	7234.1	
491.99	7487.4	
492.19	5044.8	
492.39	5506.3	
492.59	7853.3	
492.79	7909.9	
492.99	6302.3	
493.18	5293.3	
493.38	7869.7	
493.58	8627.4	
493.78	5997.8	
493.98	5660.6	
494.18	7549.5	
494.37	6975.4	
494.57	6217.6	
494.77	6191.7	
494.97	7746.1	
495.17	7948.8	
495.37	5644.9	
495.56	5870.8	
495.76	8170.7	
495.96	7745.4	
496.16	6972	
496.36	5780.1	
496.55	7959.1	
496.75	7466.2	
496.95	6104.3	
497.15	5981.4	
497.35	7880.6	
497.54	7920.9	
497.74	5778.7	
497.94	7653.9	
498.14	8621.9	
498.34	8479.3	
498.53	5396.4	
498.73	6303	
498.93	7200.7	
499.13	7889.5	
499.33	5993	
499.52	6571.9	
499.72	7737.2	
499.92	8150.9	
500.12	5673.6	
500.32	5965.7	
500.51	8055.3	
500.71	7847.1	
500.91	6844.3	
501.11	6395.1	
501.31	7991.2	
501.5	8445.8	
501.7	7096.9	
501.9	5951.4	
502.1	7749.5	
502.29	8067.6	
502.49	6480.5	
502.69	7038.2	
502.89	8019.8	
503.09	8028.7	
503.28	5539.8	
503.48	5677	
503.68	7187	
503.88	7292.1	
504.07	6745.3	
504.27	6225.8	
504.47	7585	
504.67	7813	
504.86	6619.7	
505.06	6309.8	
505.26	7376.8	
505.46	9251.4	
505.65	6184.9	
505.85	6492.1	
506.05	7282.6	
506.25	7826.7	
506.44	5567.7	
506.64	6571.9	
506.84	7152.2	
507.04	8125.7	
507.23	5750.7	
507.43	6310.5	
507.63	9263.6	
507.83	7456	
508.02	6337.8	
508.22	5962.3	
508.42	9534	
508.62	7238.2	
508.81	6215.6	
509.01	6730.3	
509.21	7096.2	
509.4	7359	
509.6	6492.7	
509.8	5711.8	
510	7346.7	
510.19	8837.7	
510.39	5686.5	
510.59	5791.7	
510.79	7173.4	
510.98	8574.2	
511.18	5793.7	
511.38	5956.2	
511.57	8133.2	
511.77	7908.6	
511.97	6804	
512.17	5616.9	
512.36	8023.3	
512.56	8013.7	
512.76	5770.5	
512.95	5421.7	
513.15	8171.4	
513.35	6681.2	
513.55	6611.5	
513.74	5691.3	
513.94	8122.2	
514.14	7397.3	
514.33	6763.1	
514.53	6535.8	
514.73	7309.9	
514.92	7591.1	
515.12	5935	
515.32	5687.2	
515.51	7648.5	
515.71	8229.4	
515.91	7688.1	
516.11	5817.6	
516.3	9608.4	
516.5	7207.5	
516.7	6418.3	
516.89	7090.8	
517.09	7438.9	
517.29	7290.1	
517.48	6780.8	
517.68	5961	
517.88	7069.6	
518.07	7763.8	
518.27	6686.6	
518.47	5576.6	
518.66	8320.2	
518.86	6931	
519.06	5433.3	
519.25	5879	
519.45	7249.1	
519.65	8885.5	
519.84	6605.4	
520.04	7238.2	
520.24	9267.1	
520.43	7966.6	
520.63	6320	
520.83	6051.1	
521.02	7203.4	
521.22	7905.2	
521.42	6616.3	
521.61	7217.7	
521.81	7400.7	
522.01	7603.4	
522.2	6424.5	
522.4	6211.5	
522.6	8108.6	
522.79	6781.5	
522.99	6240.2	
523.18	5476.3	
523.38	7745.4	
523.58	7753.6	
523.77	7530.4	
523.97	5389.6	
524.17	9650.7	
524.36	8826.7	
524.56	6773.3	
524.76	6355.5	
524.95	7684.7	
525.15	7364.5	
525.34	6225.8	
525.54	6189.6	
525.74	8029.4	
525.93	6935.8	
526.13	7485.3	
526.33	6189.6	
526.52	8362.5	
526.72	7826	
526.91	7324.9	
527.11	6666.1	
527.31	8380.3	
527.5	8760.5	
527.7	6438.8	
527.89	5436	
528.09	7137.2	
528.29	7759.8	
528.48	6959.7	
528.68	6513.2	
528.87	8178.9	
529.07	8237.6	
529.27	6443.6	
529.46	5954.1	
529.66	7746.8	
529.85	8275.2	
530.05	5780.1	
530.25	6604.7	
530.44	9332.6	
530.64	7813	
530.83	6184.9	
531.03	6479.1	
531.23	8161.8	
531.42	8027.4	
531.62	7220.5	
531.81	6374	
532.01	8235.6	
532.21	8802.2	
532.4	6059.9	
532.6	6465.4	
532.79	9288.2	
532.99	8285.4	
533.18	6447	
533.38	7497.6	
533.58	7754.3	
533.77	8522.3	
533.97	6307.7	
534.16	7145.4	
534.36	8768.7	
534.55	7766.6	
534.75	7385.7	
534.95	6333	
535.14	8560.5	
535.34	7750.2	
535.53	6034.7	
535.73	8084	
535.92	9184.5	
536.12	7986.4	
536.31	6159.6	
536.51	7451.2	
536.71	8307.9	
536.9	7798	
537.1	6423.8	
537.29	6543.3	
537.49	8809.7	
537.68	7699	
537.88	6952.2	
538.07	6137.8	
538.27	7987.1	
538.46	9044.5	
538.66	5889.3	
538.86	6371.2	
539.05	8019.8	
539.25	8402.1	
539.44	6693.4	
539.64	6309.8	
539.83	7828.7	
540.03	8912.8	
540.22	6157.6	
540.42	6389	
540.61	8114.7	
540.81	8291.5	
541	6857.3	
541.2	7497.6	
541.39	7627.3	
541.59	8017.8	
541.78	7152.2	
541.98	6227.9	
542.18	7415.7	
542.37	7356.3	
542.57	6699.6	
542.76	7158.3	
542.96	7460.1	
543.15	8257.4	
543.35	6757.6	
543.54	5976	
543.74	8650.6	
543.93	8079.2	
544.13	6599.9	
544.32	7930.4	
544.52	8431.5	
544.71	7608.9	
544.91	5785.5	
545.1	7099.6	
545.3	7671	
545.49	8389.2	
545.69	5706.3	
545.88	6406.7	
546.08	9344.9	
546.27	9010.4	
546.47	6972.7	
546.66	6115.9	
546.86	8599.4	
547.05	9278.7	
547.24	6453.8	
547.44	6260	
547.63	7434.8	
547.83	8680	
548.02	6673	
548.22	6897.6	
548.41	7373.4	
548.61	8806.3	
548.8	6249	
549	6197.8	
549.19	8049.9	
549.39	8382.3	
549.58	5933	
549.78	6583.5	
549.97	8429.4	
550.17	7963.2	
550.36	7506.5	
550.55	8490.2	
550.75	7951.6	
550.94	8886.8	
551.14	6107.7	
551.33	6630	
551.53	7226.6	
551.72	8380.3	
551.92	6730.3	
552.11	6378.7	
552.31	8302.5	
552.5	8433.5	
552.69	8167.3	
552.89	6025.8	
553.08	8352.3	
553.28	7953.6	
553.47	6417	
553.67	7614.3	
553.86	9071.1	
554.06	7303.1	
554.25	5570.5	
554.44	6141.9	
554.64	9855.5	
554.83	9290.3	
555.03	6130.9	
555.22	6581.5	
555.42	8591.9	
555.61	8263.6	
555.8	6384.2	
556	6780.8	
556.19	7261.4	
556.39	8631.5	
556.58	6448.4	
556.78	6444.3	
556.97	8178.2	
557.16	7841	
557.36	7864.2	
557.55	6040.1	
557.75	7043	
557.94	8958.5	
558.13	6247.7	
558.33	5958.2	
558.52	8755.7	
558.72	7628	
558.91	6053.8	
559.1	6361	
559.3	7219.1	
559.49	7106.5	
559.69	5571.2	
559.88	6744.6	
560.07	8196.7	
560.27	8705.2	
560.46	6945.3	
560.66	7038.2	
560.85	7976.8	
561.04	7137.9	
561.24	6029.2	
561.43	6411.5	
561.63	7388.4	
561.82	7679.2	
562.01	7722.2	
562.21	6664.1	
562.4	8176.2	
562.59	9217.2	
562.79	6432.7	
562.98	6017.6	
563.18	8005.5	
563.37	9656.9	
563.56	6994.5	
563.76	5890.6	
563.95	7465.5	
564.14	7336.5	
564.34	6369.9	
564.53	6174.6	
564.73	8049.9	
564.92	8387.8	
565.11	6567.8	
565.31	5839.4	
565.5	8619.2	
565.69	7583.6	
565.89	6199.9	
566.08	6399.9	
566.27	8424	
566.47	8950.3	
566.66	7024.5	
566.85	5649	
567.05	8024.6	
567.24	7411.6	
567.44	6079.7	
567.63	7488.7	
567.82	8303.1	
568.02	8008.9	
568.21	5971.9	
568.4	6504.3	
568.6	7880.6	
568.79	7869	
568.98	5798.5	
569.18	6019.7	
569.37	7785	
569.56	9963.4	
569.76	6367.8	
569.95	7334.5	
570.14	8276.5	
570.34	8182.3	
570.53	5881.1	
570.72	5871.5	
570.91	8655.4	
571.11	7772.7	
571.3	6339.8	
571.49	7272.3	
571.69	7773.4	
571.88	7387.7	
572.07	6851.1	
572.27	6976.1	
572.46	7354.9	
572.65	8492.2	
572.85	6107.7	
573.04	6438.1	
573.23	8697.7	
573.43	7891.5	
573.62	5884.5	
573.81	6537.1	
574	7914	
574.2	7742.7	
574.39	6238.1	
574.58	6380.1	
574.78	8805.6	
574.97	7923.6	
575.16	6710.5	
575.36	6965.8	
575.55	8325.7	
575.74	8555	
575.93	5780.1	
576.13	6833.4	
576.32	7785.7	
576.51	8366.6	
576.71	6262	
576.9	7635.5	
577.09	8645.8	
577.28	8190.5	
577.48	6781.5	
577.67	5654.4	
577.86	7710.6	
578.05	8145.5	
578.25	6447.7	
578.44	6500.3	
578.63	7922.2	
578.83	9177.6	
579.02	5763	
579.21	7351.5	
579.4	8176.2	
579.6	7787.7	
579.79	6640.9	
579.98	8886.1	
580.17	8615.8	
580.37	8582.4	
580.56	6021.7	
580.75	6769.9	
580.94	9154.4	
581.14	8869.1	
581.33	7321.5	
581.52	6162.3	
581.71	8451.3	
581.91	9155.8	
582.1	5784.8	
582.29	6526.2	
582.48	8106.5	
582.68	7944.1	
582.87	7078.5	
583.06	6661.4	
583.25	8335.9	
583.45	7962.5	
583.64	7380.2	
583.83	8098.4	
584.02	7821.2	
584.21	8229.4	
584.41	7301	
584.6	6546.7	
584.79	8053.3	
584.98	8775.5	
585.18	5989.6	
585.37	6029.2	
585.56	7543.4	
585.75	8411	
585.94	6285.9	
586.14	6995.2	
586.33	9058.2	
586.52	8028.7	
586.71	6845.7	
586.91	6574	
587.1	7423.2	
587.29	8551.6	
587.48	6427.9	
587.67	6313.9	
587.87	8351.6	
588.06	8490.9	
588.25	7762.5	
588.44	6990.4	
588.63	8014.4	
588.83	8589.2	
589.02	6309.8	
589.21	6296.1	
589.4	7767.9	
589.59	7518.1	
589.78	5582.1	
589.98	5845.6	
590.17	7286	
590.36	7905.2	
590.55	5211.4	
590.74	6255.9	
590.94	9374.2	
591.13	7841.7	
591.32	5851.7	
591.51	5451.7	
591.7	8251.3	
591.89	7671	
592.09	5544.5	
592.28	6079.7	
592.47	6918	
592.66	8908.7	
592.85	5530.9	
593.05	5790.3	
593.24	7543.4	
593.43	8362.5	
593.62	5806.7	
593.81	6331	
594	7575.4	
594.19	7788.4	
594.39	5818.3	
594.58	5670.8	
594.77	7937.2	
594.96	8639	
595.15	5608	
595.34	6374.6	
595.54	8092.9	
595.73	7077.1	
595.92	5055.1	
596.11	6343.2	
596.3	8605.6	
596.49	7173.4	
596.68	5999.9	
596.88	6509.1	
597.07	8310	
597.26	6993.1	
597.45	5576.6	
597.64	6921.5	
597.83	7271.7	
598.02	7985.7	
598.22	5653.1	
598.41	6428.6	
598.6	7706.5	
598.79	7198.6	
598.98	5727.5	
599.17	6763.8	
599.36	7869	
599.55	9048.6	
599.74	7937.9	
599.94	7699.7	
600.13	8414.4	
600.32	7138.5	
600.51	5528.2	
600.7	5670.8	
600.89	9178.3	
601.08	9142.8	
601.27	5494	
601.47	6537.8	
601.66	8320.9	
601.85	9036.3	
602.04	6147.3	
602.23	6504.3	
602.42	7332.4	
602.61	8046.5	
602.8	6150.1	
602.99	5877	
603.18	7800	
603.37	8087.4	
603.57	6548	
603.76	7197.9	
603.95	8848.6	
604.14	8312	
604.33	6009.4	
604.52	6384.2	
604.71	8001.4	
604.9	7557.7	
605.09	6923.5	
605.28	6779.5	
605.47	8618.5	
605.66	8268.3	
605.86	6609.5	
606.05	6012.2	
606.24	8649.9	
606.43	7215.7	
606.62	6326.2	
606.81	7200	
607	8512.7	
607.19	7763.2	
607.38	5733.6	
607.57	6034	
607.76	7564.5	
607.95	7079.1	
608.14	6446.3	
608.33	7139.2	
608.52	7555.6	
608.72	8543.4	
608.91	5625.1	
609.1	5608.7	
609.29	7731.8	
609.48	7167.9	
609.67	6767.2	
609.86	5732.3	
610.05	7226.6	
610.24	7572	
610.43	5520.6	
610.62	5115.1	
610.81	8869.1	
611	8542.1	
611.19	5685.2	
611.38	6458.6	
611.57	7931.1	
611.76	9342.8	
611.95	5494	
612.14	5384.1	
612.33	7843	
612.52	7255.3	
612.71	6096.8	
612.9	5201.8	
613.09	6901	
613.28	9271.2	
613.47	5770.5	
613.66	6855.9	
613.85	7862.8	
614.04	7457.3	
614.24	5872.9	
614.43	5128.8	
614.62	8006.2	
614.81	7985.7	
615	6507.8	
615.19	6497.5	
615.38	7266.9	
615.57	7619.1	
615.76	6331.6	
615.95	7331	
616.14	8078.6	
616.33	7669.6	
616.52	6626.5	
616.71	7082.6	
616.9	8076.5	
617.09	7799.3	
617.28	5992.4	
617.47	7422.5	
617.66	7028.6	
617.85	7157.7	
618.04	6953.5	
618.22	6307.7	
618.41	7364.5	
618.6	8378.9	
618.79	6204	
618.98	5918.6	
619.17	8734.6	
619.36	6962.4	
619.55	6170.5	
619.74	6126.2	
619.93	7942	
620.12	7244.3	
620.31	6749.4	
620.5	6908.5	
620.69	8601.5	
620.88	8959.2	
621.07	7625.3	
621.26	6569.9	
621.45	8150.9	
621.64	8201.4	
621.83	6724.2	
622.02	5876.3	
622.21	8173.4	
622.4	7965.2	
622.59	7209.5	
622.78	7041.6	
622.97	7443.7	
623.16	8581.7	
623.35	6662	
623.54	5808	
623.72	7708.6	
623.91	7881.3	
624.1	6892.8	
624.29	5588.9	
624.48	8977.6	
624.67	8168	
624.86	6823.8	
625.05	5802.6	
625.24	9067.7	
625.43	7404.1	
625.62	8565.3	
625.81	5928.2	
626	8477.2	
626.19	7717.4	
626.38	6832.7	
626.56	6150.1	
626.75	7527	
626.94	8254.7	
627.13	6792.4	
627.32	5375.2	
627.51	8176.2	
627.7	9753.1	
627.89	5586.9	
628.08	6825.2	
628.27	7367.2	
628.46	7593.9	
628.65	5900.9	
628.83	5548.6	
629.02	8179.6	
629.21	7406.1	
629.4	6352.8	
629.59	6535.8	
629.78	7314.7	
629.97	8430.1	
630.16	6731.7	
630.35	6042.9	
630.54	8717.5	
630.72	8531.8	
630.91	6049	
631.1	6728.3	
631.29	7894.2	
631.48	8236.2	
631.67	6716.7	
631.86	6275.7	
632.05	7580.2	
632.24	7622.5	
632.42	5892	
632.61	6556.2	
632.8	7746.8	
632.99	7417.7	
633.18	6536.4	
633.37	6886	
633.56	8020.5	
633.75	7911.3	
633.93	6539.2	
634.12	6124.8	
634.31	8833.6	
634.5	8398.7	
634.69	6193.1	
634.88	6771.3	
635.07	7741.3	
635.25	8414.4	
635.44	7209.5	
635.63	7417.1	
635.82	7591.8	
636.01	7149.5	
636.2	7184.3	
636.39	6733	
636.57	8824	
636.76	8531.8	
636.95	6021	
637.14	7504.4	
637.33	8094.3	
637.52	9118.2	
637.7	5811.5	
637.89	6825.2	
638.08	7626	
638.27	9303.9	
638.46	6932.4	
638.65	7473.7	
638.83	9295	
639.02	7561.1	
639.21	6897.6	
639.4	7410.2	
639.59	8077.9	
639.78	7623.9	
639.96	6181.5	
640.15	6146.6	
640.34	7894.9	
640.53	8071	
640.72	5824.4	
640.91	6246.3	
641.09	7293.5	
641.28	8753	
641.47	6206	
641.66	7082.6	
641.85	8066.3	
642.03	8372.1	
642.22	6845.7	
642.41	6258.6	
642.6	7501.7	
642.79	6832.7	
642.97	6053.1	
643.16	6771.9	
643.35	7458	
643.54	7178.1	
643.73	5928.2	
643.91	6842.3	
644.1	7101	
644.29	7788.4	
644.48	6084.5	
644.67	6141.9	
644.85	7284.6	
645.04	7646.4	
645.23	5609.4	
645.42	5864	
645.6	7038.9	
645.79	8342.1	
645.98	5928.2	
646.17	4904.9	
646.36	6862.7	
646.54	7524.9	
646.73	6849.1	
646.92	5489.2	
647.11	7089.4	
647.29	8310	
647.48	5573.9	
647.67	5329.5	
647.86	8563.2	
648.05	8638.3	
648.23	6081.1	
648.42	7434.8	
648.61	7841	
648.8	7605.5	
648.98	5660.6	
649.17	6057.2	
649.36	7190.4	
649.55	6659.3	
649.73	5655.1	
649.92	6487.3	
650.11	7017.7	
650.3	7469.6	
650.48	5834	
650.67	5681.1	
650.86	7750.2	
651.05	6575.3	
651.23	5850.4	
651.42	5760.9	
651.61	7124.9	
651.79	7379.5	
651.98	5987.6	
652.17	5595.1	
652.36	7712.7	
652.54	6655.9	
652.73	5675.6	
652.92	5459.2	
653.11	7684.7	
653.29	7748.8	
653.48	4917.2	
653.67	5933	
653.85	7460.8	
654.04	8607.6	
654.23	6133	
654.42	5699.5	
654.6	6944.7	
654.79	7662.8	
654.98	5209.3	
655.16	5801.2	
655.35	6663.4	
655.54	6584.9	
655.73	5308.3	
655.91	5317.9	
656.1	7798.7	
656.29	6532.3	
656.47	4869.4	
656.66	6659.3	
656.85	6828.6	
657.03	6883.2	
657.22	5353.4	
657.41	5442.1	
657.59	6910.5	
657.78	6677.1	
657.97	5086.5	
658.16	5868.8	
658.34	7696.3	
658.53	8032.8	
658.72	6926.9	
658.9	7423.2	
659.09	7018.4	
659.28	7162.4	
659.46	5605.3	
659.65	5526.1	
659.84	6851.1	
660.02	7519.5	
660.21	5416.2	
660.4	5332.9	
660.58	7817.8	
660.77	7180.2	
660.96	6079.7	
661.14	5020.3	
661.33	8428.1	
661.52	8297.7	
661.7	5025	
661.89	8916.2	
662.08	6821.1	
662.26	6406	
662.45	5300.1	
662.64	5488.6	
662.82	7548.1	
663.01	6741.9	
663.2	5516.5	
663.38	6307.1	
663.57	7479.9	
663.75	7279.2	
663.94	5821	
664.13	7217	
664.31	6776.7	
664.5	7552.9	
664.69	6034	
664.87	6695.5	
665.06	6512.5	
665.25	7309.9	
665.43	6940.6	
665.62	7008.8	
665.8	7712	
665.99	7004.7	
666.18	5842.9	
666.36	5926.1	
666.55	7696.3	
666.74	7565.2	
666.92	5329.5	
667.11	7113.3	
667.29	6975.4	
667.48	7677.8	
667.67	6782.2	
667.85	5873.6	
668.04	7002	
668.22	7061.4	
668.41	5826.5	
668.6	6089.3	
668.78	6833.4	
668.97	7037.5	
669.15	6362.4	
669.34	5245.5	
669.53	6846.4	
669.71	7220.5	
669.9	5376.6	
670.08	6097.5	
670.27	6851.1	
670.46	7438.2	
670.64	6303.6	
670.83	6491.4	
671.01	6694.1	
671.2	7336.5	
671.38	5398.4	
671.57	5412.8	
671.76	8030.8	
671.94	8724.3	
672.13	5375.9	
672.31	6528.9	
672.5	7640.3	
672.69	6889.4	
672.87	5472.2	
673.06	5818.3	
673.24	7386.3	
673.43	6873.7	
673.61	6289.3	
673.8	5881.1	
673.98	7610.9	
674.17	7768.6	
674.36	6437.4	
674.54	6260	
674.73	7378.8	
674.91	7559.1	
675.1	5894.1	
675.28	5612.1	
675.47	7074.4	
675.65	7702.4	
675.84	5780.7	
676.03	6199.9	
676.21	6849.8	
676.4	6376.7	
676.58	6652.5	
676.77	6441.5	
676.95	8412.4	
677.14	6803.4	
677.32	5456.5	
677.51	5189.6	
677.69	7632.1	
677.88	6464.1	
678.06	5342.5	
678.25	5473.5	
678.44	7187.7	
678.62	6821.1	
678.81	5167	
678.99	6209.4	
679.18	8113.4	
679.36	7499	
679.55	5754.1	
679.73	6489.3	
679.92	7473	
680.1	6901.7	
680.29	7158.3	
680.47	5782.8	
680.66	6842.3	
680.84	7739.3	
681.03	5051	
681.21	6252.4	
681.4	6851.8	
681.58	6761	
681.77	5469.4	
681.95	5470.8	
682.14	7795.9	
682.32	8082	
682.51	6591	
682.69	5244.8	
682.88	6801.3	
683.06	7490.1	
683.25	6181.5	
683.43	6660	
683.62	7073.7	
683.8	7490.8	
683.99	6578.8	
684.17	5920	
684.36	8332.5	
684.54	6906.4	
684.73	5049.6	
684.91	5323.4	
685.1	7266.2	
685.28	6642.2	
685.46	5914.5	
685.65	5972.6	
685.83	7538.6	
686.02	6833.4	
686.2	5305.6	
686.39	5481	
686.57	6471.6	
686.76	8104.5	
686.94	5298.8	
687.13	5522	
687.31	7450.5	
687.5	6894.1	
687.68	4929.5	
687.86	6342.6	
688.05	8537.3	
688.23	6279.8	
688.42	6363.7	
688.6	5442.1	
688.79	6772.6	
688.97	6737.8	
689.16	5867.4	
689.34	4801.1	
689.52	7583.6	
689.71	7749.5	
689.89	6093.4	
690.08	5317.9	
690.26	6949.4	
690.45	6864.1	
690.63	6289.3	
690.81	5497.4	
691	6652.5	
691.18	6586.3	
691.37	5677.7	
691.55	7953.6	
691.74	6600.6	
691.92	8753.7	
692.1	5660.6	
692.29	5073.5	
692.47	6910.5	
692.66	6080.4	
692.84	5295.4	
693.02	6014.9	
693.21	6195.1	
693.39	6808.1	
693.58	6044.9	
693.76	5464.7	
693.94	8073.8	
694.13	7849.9	
694.31	5364.3	
694.5	6586.3	
694.68	6563.7	
694.86	6990.4	
695.05	5836	
695.23	5849.7	
695.42	7478.5	
695.6	9870.5	
695.78	6401.3	
695.97	5486.5	
696.15	7410.9	
696.34	6758.3	
696.52	5140.4	
696.7	6131.6	
696.89	7197.2	
697.07	6498.2	
697.25	5955.5	
697.44	7667.6	
697.62	7058	
697.81	7448.5	
697.99	5698.1	
698.17	6196.5	
698.36	6400.6	
698.54	7131.7	
698.72	5950	
698.91	4959.5	
699.09	6669.6	
699.28	6543.3	
699.46	5655.8	
699.64	5436	
699.83	6446.3	
700.01	7894.2	
700.19	6419.7	
700.38	4664.6	
700.56	7759.8	
700.74	6610.2	
700.93	5118.6	
701.11	6010.8	
701.29	7219.1	
701.48	8355	
701.66	5381.4	
701.84	5391.6	
702.03	6732.4	
702.21	7431.4	
702.39	4900.1	
702.58	5563.6	
702.76	7134.4	
702.94	7208.2	
703.13	5014.8	
703.31	7484.6	
703.49	6393.8	
703.68	7662.1	
703.86	5121.3	
704.04	6229.2	
704.23	6935.1	
704.41	7360.4	
704.59	5287.2	
704.78	6681.8	
704.96	8118.8	
705.14	7434.1	
705.33	5086.5	
705.51	6032.6	
705.69	6833.4	
705.87	7690.8	
706.06	6313.9	
706.24	5057.1	
706.42	7103.7	
706.61	7478.5	
706.79	6322.1	
706.97	5158.8	
707.16	6478.4	
707.34	7185.6	
707.52	6265.4	
707.7	5319.9	
707.89	6758.3	
708.07	6333.7	
708.25	6279.1	
708.44	6348	
708.62	6599.2	
708.8	7783	
708.98	6485.9	
709.17	5438	
709.35	7057.3	
709.53	7109.9	
709.72	5082.4	
709.9	5368.4	
710.08	7374.1	
710.26	7310.6	
710.45	6827.2	
710.63	5495.4	
710.81	7015	
710.99	6987.7	
711.18	6100.2	
711.36	5584.1	
711.54	6827.2	
711.72	7555.6	
711.91	5649.7	
712.09	4997	
712.27	6950.8	
712.45	7613	
712.64	5898.8	
712.82	4743.8	
713	6262	
713.18	6526.2	
713.37	4935.6	
713.55	6214.2	
713.73	7391.1	
713.91	5924.1	
714.1	5345.2	
714.28	4745.1	
714.46	7021.8	
714.64	6183.5	
714.83	4192.2	
715.01	5182	
715.19	6299.6	
715.37	5772.5	
715.55	4801.8	
715.74	5090.6	
715.92	7326.3	
716.1	5185.5	
716.28	6346.7	
716.47	5346.6	
716.65	5952.1	
716.83	6067.4	
717.01	5178.6	
717.19	5261.9	
717.38	8275.8	
717.56	5741.1	
717.74	5497.4	
717.92	4541	
718.1	7086.7	
718.29	6240.8	
718.47	4168.3	
718.65	4842.1	
718.83	6959.7	
719.01	6886	
719.2	3969	
719.38	5147.9	
719.56	6511.9	
719.74	8137.9	
719.92	4705.5	
720.11	5857.2	
720.29	6524.8	
720.47	5646.9	
720.65	4218.1	
720.83	5118.6	
721.02	6032	
721.2	5726.1	
721.38	5295.4	
721.56	4407.2	
721.74	5216.2	
721.92	5538.4	
722.11	5808	
722.29	5483.8	
722.47	6837.5	
722.65	5987.6	
722.83	4474.1	
723.01	5454.4	
723.2	6057.9	
723.38	6271.6	
723.56	3824.2	
723.74	5153.4	
723.92	5460.6	
724.1	6748.7	
724.29	4395.6	
724.47	5717.9	
724.65	5599.1	
724.83	5489.2	
725.01	4264.6	
725.19	5261.9	
725.37	5582.8	
725.56	5676.3	
725.74	4198.3	
725.92	4450.2	
726.1	5474.2	
726.28	5840.1	
726.46	4928.1	
726.64	4585.4	
726.83	5700.9	
727.01	6097.5	
727.19	4084.3	
727.37	5009.3	
727.55	5859.9	
727.73	6451.1	
727.91	4104.1	
728.09	3936.9	
728.28	6536.4	
728.46	7185.6	
728.64	5238	
728.82	5103.5	
729	7686.7	
729.18	6849.8	
729.36	4320.5	
729.54	6796.5	
729.72	8017.8	
729.91	6140.5	
730.09	6356.2	
730.27	5058.5	
730.45	6019.7	
730.63	6712.6	
730.81	5660.6	
730.99	4618.9	
731.17	7217.7	
731.35	5771.2	
731.53	5222.3	
731.71	4812	
731.9	6915.3	
732.08	7219.8	
732.26	5099.4	
732.44	4699.4	
732.62	7236.2	
732.8	6656.6	
732.98	5596.4	
733.16	4461.2	
733.34	6669.6	
733.52	5384.8	
733.7	5055.8	
733.88	5406.6	
734.07	6542.6	
734.25	6319.3	
734.43	4472.1	
734.61	6236.7	
734.79	7862.8	
734.97	6078.4	
735.15	4659.8	
735.33	5087.8	
735.51	6511.2	
735.69	6122.1	
735.87	6359.6	
736.05	5328.8	
736.23	6371.9	
736.41	6177.4	
736.59	5151.3	
736.77	5230.5	
736.95	6845	
737.13	6211.5	
737.32	4746.5	
737.5	5017.5	
737.68	7410.9	
737.86	6126.8	
738.04	4492.6	
738.22	6662	
738.4	5893.4	
738.58	6332.3	
738.76	5276.9	
738.94	4115.1	
739.12	6053.1	
739.3	5899.5	
739.48	5933.6	
739.66	5593.7	
739.84	6458.6	
740.02	6351.4	
740.2	4150.6	
740.38	4620.9	
740.56	6771.3	
740.74	5626.5	
740.92	5335	
741.1	5282.4	
741.28	6207.4	
741.46	6053.8	
741.64	4838	
741.82	5414.8	
742	6263.4	
742.18	6211.5	
742.36	5147.2	
742.54	4648.2	
742.72	6870.3	
742.9	5442.8	
743.08	5599.8	
743.26	4172.4	
743.44	7145.4	
743.62	6900.3	
743.8	5722.7	
743.98	4648.9	
744.16	6569.9	
744.34	6244.3	
744.52	5586.2	
744.7	5527.5	
744.88	6781.5	
745.06	6268.8	
745.24	5653.8	
745.42	5777.3	
745.6	6858	
745.78	6630	
745.96	4365.6	
746.14	4725.3	
746.32	7625.3	
746.5	6879.8	
746.68	5393	
746.86	4776.5	
747.03	7370	
747.21	5547.9	
747.39	5386.2	
747.57	4793.6	
747.75	6451.8	
747.93	6921.5	
748.11	4800.4	
748.29	4676.2	
748.47	8214.4	
748.65	6214.2	
748.83	5629.2	
749.01	5209.3	
749.19	6753.5	
749.37	5787.6	
749.55	5138.4	
749.73	5218.2	
749.91	6244.3	
750.09	6030.6	
750.26	5211.4	
750.44	4582.7	
750.62	6417.7	
750.8	6349.4	
750.98	4440.7	
751.16	4827.1	
751.34	6442.9	
751.52	5698.1	
751.7	5662.6	
751.88	4435.2	
752.06	6870.9	
752.24	6748.1	
752.42	4424.3	
752.59	4793.6	
752.77	6315.9	
752.95	7643.7	
753.13	5571.2	
753.31	4941.1	
753.49	5945.3	
753.67	6452.5	
753.85	5228.5	
754.03	4787.5	
754.21	6748.7	
754.38	7153.6	
754.56	5033.2	
754.74	3934.1	
754.92	5993.7	
755.1	6772.6	
755.28	4024.9	
755.46	4059.1	
755.64	7512.6	
755.82	7610.9	
755.99	4276.2	
756.17	4478.9	
756.35	4917.2	
756.53	6681.8	
756.71	3262.4	
756.89	4263.2	
757.07	6213.5	
757.25	5244.2	
757.42	4913.8	
757.6	5776.6	
757.78	6289.3	
757.96	5173.9	
758.14	4483.7	
758.32	3936.9	
758.5	4650.3	
758.67	5597.8	
758.85	4250.2	
759.03	4431.8	
759.21	5851.7	
759.39	5201.8	
759.57	3818.1	
759.75	5127.4	
759.92	6477	
760.1	5706.3	
760.28	5524.7	
760.46	5797.8	
760.64	5440.1	
760.82	5157.5	
760.99	5362.3	
761.17	4437.3	
761.35	6408.1	
761.53	5273.5	
761.71	4620.2	
761.89	5326.8	
762.06	6290.7	
762.24	5717.2	
762.42	4726.7	
762.6	4449.6	
762.78	5719.3	
762.96	6460	
763.13	5085.8	
763.31	4755.4	
763.49	6613.6	
763.67	5674.9	
763.85	5612.1	
764.02	6298.9	
764.2	6944.7	
764.38	6046.3	
764.56	4601.8	
764.74	5626.5	
764.91	7128.3	
765.09	5851.7	
765.27	4270	
765.45	4065.2	
765.63	7071.6	
765.8	6971.3	
765.98	3774.4	
766.16	4177.2	
766.34	5384.1	
766.52	5145.2	
766.69	5189.6	
766.87	4007.2	
767.05	5778	
767.23	6698.9	
767.41	4304.8	
767.58	4627	
767.76	6567.2	
767.94	6551.5	
768.12	4403.1	
768.29	5358.9	
768.47	5956.9	
768.65	6726.2	
768.83	4087.1	
769	5279	
769.18	5415.5	
769.36	6281.8	
769.54	5071.5	
769.72	4095.3	
769.89	6523.5	
770.07	6643.6	
770.25	4442	
770.43	5864.7	
770.6	7380.9	
770.78	7909.3	
770.96	4612.7	
771.14	5312.4	
771.31	6438.8	
771.49	5715.9	
771.67	3773.7	
771.85	4061.8	
772.02	4887.1	
772.2	5738.4	
772.38	4900.1	
772.55	4385.4	
772.73	6006	
772.91	5814.2	
773.09	4702.1	
773.26	4773.1	
773.44	5976	
773.62	5686.5	
773.8	4149.2	
773.97	3822.9	
774.15	6117.3	
774.33	5728.2	
774.5	4091.8	
774.68	4476.9	
774.86	6272.2	
775.04	5696.8	
775.21	4184	
775.39	4194.9	
775.57	6008.7	
775.74	6476.4	
775.92	3986	
776.1	3890.5	
776.27	5938.4	
776.45	7251.9	
776.63	4235.9	
776.81	3620.1	
776.98	5526.1	
777.16	6805.4	
777.34	4300.7	
777.51	4612.7	
777.69	5554.1	
777.87	5319.9	
778.04	4306.9	
778.22	5073.5	
778.4	5383.4	
778.57	6032	
778.75	3506.1	
778.93	3857	
779.1	5187.5	
779.28	5029.1	
779.46	3569.6	
779.64	4116.4	
779.81	6210.1	
779.99	7210.2	
780.17	4913.8	
780.34	5190.2	
780.52	5678.3	
780.69	5874.9	
780.87	4433.9	
781.05	4046.8	
781.22	5698.8	
781.4	5843.5	
781.58	4186	
781.75	3293.1	
781.93	5657.9	
782.11	5139	
782.28	5117.9	
782.46	4123.2	
782.64	4918.5	
782.81	5899.5	
782.99	4232.5	
783.17	4201.7	
783.34	5791	
783.52	5029.1	
783.69	4487.8	
783.87	5335	
784.05	5073.5	
784.22	5134.9	
784.4	5370.5	
784.58	4577.2	
784.75	6107.7	
784.93	5096.7	
785.1	4153.3	
785.28	4845.5	
785.46	5793.7	
785.63	5098.1	
785.81	4095.9	
785.99	3953.3	
786.16	5317.2	
786.34	5716.6	
786.51	3986	
786.69	4479.6	
786.87	4799.1	
787.04	5429.8	
787.22	3472.7	
787.39	4946.5	
787.57	5029.8	
787.75	6375.3	
787.92	5081.7	
788.1	5046.2	
788.27	5166.3	
788.45	4919.2	
788.63	4750.6	
788.8	3365.5	
788.98	5524.1	
789.15	4834.6	
789.33	3469.9	
789.5	4242.7	
789.68	6125.5	
789.86	6210.1	
790.03	4390.8	
790.21	3988.8	
790.38	6104.3	
790.56	5257.1	
790.73	3922.5	
790.91	3978.5	
791.09	5152	
791.26	6013.5	
791.44	4133.5	
791.61	3602.4	
791.79	5152	
791.96	5218.9	
792.14	3698.6	
792.32	3255.6	
792.49	5157.5	
792.67	5313.1	
792.84	3745.1	
793.02	3542.3	
793.19	5598.5	
793.37	6361.7	
793.54	3347.1	
793.72	3627.6	
793.89	6584.9	
794.07	5156.1	
794.25	4382	
794.42	3365.5	
794.6	6298.9	
794.77	5848.3	
794.95	4644.1	
795.12	4029.7	
795.3	5154.1	
795.47	5817.6	
795.65	4455	
795.82	4263.2	
796	4948.6	
796.17	7062.1	
796.35	4115.7	
796.52	4865.3	
796.7	5705	
796.87	5848.3	
797.05	5158.8	
797.22	4990.2	
797.4	5784.1	
797.57	6835.4	
797.75	4148.5	
797.92	3922.5	
798.1	6096.8	
798.27	5083.1	
798.45	3387.3	
798.62	3615.3	
798.8	5496.7	
798.97	6020.3	
799.15	4440.7	
799.32	4205.8	
799.5	4703.5	
799.67	5586.2	
799.85	4638	
800.02	3259	
800.2	5104.2	
800.37	5518.6	
800.55	4838.7	
800.72	3951.2	
800.9	5971.9	
801.07	6450.4	
801.25	5370.5	
801.42	4345.8	
801.6	6051.7	
801.77	5684.5	
801.95	3902.1	
802.12	3910.3	
802.29	5706.3	
802.47	5670.1	
802.64	4347.8	
802.82	3251.5	
802.99	5057.8	
803.17	6222.4	
803.34	4220.2	
803.52	3809.9	
803.69	6881.9	
803.87	4866	
804.04	4179.2	
804.21	4319.8	
804.39	6328.2	
804.56	5391.6	
804.74	3558	
804.91	4428.4	
805.09	5116.5	
805.26	5273.5	
805.44	3624.9	
805.61	4011.3	
805.78	5855.1	
805.96	5914.5	
806.13	4407.2	
806.31	4791.6	
806.48	4684.4	
806.66	5262.6	
806.83	4368.3	
807	4298	
807.18	5103.5	
807.35	5582.8	
807.53	4279.6	
807.7	3407.8	
807.87	6406.7	
808.05	5175.9	
808.22	4721.9	
808.4	3379.8	
808.57	5209.3	
808.74	4827.7	
808.92	3870.7	
809.09	4955.4	
809.27	5044.8	
809.44	5762.3	
809.61	3451.5	
809.79	3839.9	
809.96	6331	
810.14	6123.4	
810.31	3318.4	
810.48	4087.1	
810.66	5347.2	
810.83	6082.5	
811.01	3876.1	
811.18	4698	
811.35	6003.3	
811.53	4594.3	
811.7	4783.4	
811.87	4459.8	
812.05	5158.2	
812.22	5152.7	
812.39	3738.2	
812.57	3657	
812.74	5207.3	
812.92	7030	
813.09	4085.7	
813.26	4545.8	
813.44	6707.1	
813.61	5121.3	
813.78	3370.3	
813.96	4605.2	
814.13	5223.7	
814.3	4841.4	
814.48	4938.3	
814.65	4102.1	
814.82	6554.2	
815	5043.5	
815.17	4154	
815.34	5199.8	
815.52	5131.5	
815.69	5117.9	
815.87	4201.7	
816.04	3597.6	
816.21	5238	
816.38	4569.7	
816.56	4085	
816.73	3760.8	
816.9	6620.4	
817.08	6029.9	
817.25	3782.6	
817.42	4842.8	
817.6	4743.8	
817.77	5225.1	
817.94	4332.1	
818.12	3745.1	
818.29	4881.7	
818.46	7831.4	
818.64	3941.7	
818.81	3671.3	
818.98	4831.8	
819.16	7191.8	
819.33	4510.3	
819.5	4229.1	
819.67	5599.1	
819.85	6331	
820.02	4121.9	
820.19	4388.8	
820.37	5411.4	
820.54	4997	
820.71	4222.9	
820.88	5354.1	
821.06	5441.5	
821.23	4937.7	
821.4	4356	
821.58	4291.2	
821.75	6042.9	
821.92	5341.1	
822.09	3432.4	
822.27	3564.1	
822.44	5207.3	
822.61	5117.2	
822.79	3505.4	
822.96	6716.7	
823.13	5819.6	
823.3	4934.9	
823.48	4050.2	
823.65	3619.4	
823.82	5958.9	
823.99	4724	
824.17	5101.5	
824.34	3680.2	
824.51	6947.4	
824.68	5310.4	
824.86	3867.2	
825.03	4317.8	
825.2	5218.2	
825.37	6390.3	
825.55	3766.9	
825.72	4237.9	
825.89	7006.8	
826.06	6481.8	
826.24	4156	
826.41	4179.2	
826.58	6301.6	
826.75	5520	
826.92	3179.8	
827.1	3613.3	
827.27	8832.9	
827.44	6948.8	
827.61	3936.2	
827.79	4817.5	
827.96	4969.1	
828.13	5283.1	
828.3	4146.5	
828.47	3423.5	
828.65	5387.5	
828.82	5374.6	
828.99	5405.3	
829.16	4728.8	
829.34	5809.4	
829.51	5575.3	
829.68	4264.6	
829.85	4421.6	
830.02	6109.8	
830.2	5823.1	
830.37	3225.6	
830.54	5208.7	
830.71	6721.4	
830.88	5178.6	
831.05	3351.2	
831.23	3870	
831.4	6400.6	
831.57	7325.6	
831.74	3969.6	
831.91	3432.4	
832.09	5387.5	
832.26	5833.3	
832.43	4081.6	
832.6	4590.2	
832.77	5444.2	
832.94	6269.5	
833.12	3201	
833.29	4003.1	
833.46	5613.5	
833.63	7516.7	
833.8	4464.6	
833.97	4132.1	
834.15	5870.8	
834.32	5573.2	
834.49	4232.5	
834.66	4323.3	
834.83	6167.8	
835	4900.8	
835.17	3915.7	
835.35	3980.6	
835.52	5727.5	
835.69	5651.7	
835.86	4245.4	
836.03	3375.7	
836.2	5798.5	
836.37	5418.2	
836.55	4061.8	
836.72	3813.3	
836.89	5408.7	
837.06	5836.7	
837.23	4177.9	
837.4	4597.7	
837.57	6716	
837.75	7476.5	
837.92	3780.6	
838.09	4009.2	
838.26	5353.4	
838.43	6151.4	
838.6	4313.7	
838.77	3792.8	
838.94	7061.4	
839.11	6806.8	
839.29	4072	
839.46	3184.6	
839.63	5806.7	
839.8	5530.2	
839.97	3992.9	
840.14	3986.7	
840.31	5529.5	
840.48	5866.1	
840.65	3252.9	
840.82	3827.7	
841	5806	
841.17	5845.6	
841.34	3651.5	
841.51	3702.7	
841.68	5680.4	
841.85	5499.5	
842.02	3756.7	
842.19	3078.1	
842.36	5588.9	
842.53	5536.3	
842.7	3598.3	
842.87	4484.4	
843.05	7420.5	
843.22	5479.7	
843.39	3418.1	
843.56	3746.4	
843.73	5208	
843.9	5896.8	
844.07	5999.9	
844.24	4969.7	
844.41	8803.5	
844.58	4984.8	
844.75	3472.7	
844.92	3784	
845.09	5834.7	
845.26	5803.9	
845.43	3592.1	
845.6	3810.6	
845.77	5881.8	
845.94	5552	
846.12	4016.1	
846.29	4287.1	
846.46	6036.7	
846.63	5855.8	
846.8	3656.3	
846.97	4351.3	
847.14	6311.2	
847.31	5673.6	
847.48	4101.4	
847.65	4526	
847.82	6114.6	
847.99	6001.9	
848.16	4894	
848.33	4458.4	
848.5	5392.3	
848.67	6340.5	
848.84	3599.6	
849.01	3790.1	
849.18	5233.2	
849.35	4851.6	
849.52	4579.3	
849.69	3500.7	
849.86	6006	
850.03	6252.4	
850.2	3688.4	
850.37	4535.6	
850.54	6193.1	
850.71	5470.1	
850.88	4441.4	
851.05	3555.3	
851.22	5705.6	
851.39	6375.3	
851.56	3385.3	
851.73	4231.1	
851.9	5058.5	
852.07	6109.1	
852.24	3994.2	
852.41	3604.4	
852.58	5700.2	
852.75	5195.7	
852.92	4036.5	
853.09	3568.2	
853.26	5396.4	
853.43	6329.6	
853.6	3585.3	
853.77	3040.6	
853.94	6406.7	
854.11	5063.3	
854.28	5408	
854.44	3912.3	
854.61	6836.8	
854.78	5940.5	
854.95	3542.3	
855.12	4633.9	
855.29	4674.1	
855.46	6518	
855.63	3635.1	
855.8	5068.7	
855.97	5378.6	
856.14	6134.3	
856.31	5146.5	
856.48	3964.9	
856.65	5302.9	
856.82	5057.1	
856.99	3461.7	
857.16	3865.9	
857.33	7158.3	
857.49	5455.8	
857.66	3937.6	
857.83	4207.2	
858	5362.9	
858.17	5655.1	
858.34	3413.3	
858.51	3618.8	
858.68	6587.6	
858.85	6666.1	
859.02	4201.7	
859.19	4497.3	
859.36	5048.2	
859.52	5145.9	
859.69	3680.9	
859.86	4263.2	
860.03	5154.1	
860.2	6439.5	
860.37	3271.3	
860.54	3603.7	
860.71	6092.7	
860.88	6522.1	
861.05	4061.8	
861.21	4629.1	
861.38	6539.2	
861.55	4956.1	
861.72	3241.3	
861.89	4049.5	
862.06	6156.9	
862.23	6720.1	
862.4	3500.7	
862.56	3828.3	
862.73	5953.4	
862.9	5606.7	
863.07	4242	
863.24	3298.6	
863.41	4918.5	
863.58	5087.2	
863.75	3736.2	
863.91	4148.5	
864.08	6455.2	
864.25	5994.4	
864.42	4517.8	
864.59	5119.2	
864.76	6826.6	
864.93	5111	
865.09	3524.6	
865.26	3844	
865.43	6351.4	
865.6	6750.8	
865.77	3125.9	
865.94	3588.7	
866.1	6404	
866.27	6126.2	
866.44	5444.2	
866.61	3351.8	
866.78	5505.6	
866.95	5928.2	
867.11	3484.3	
867.28	3190.7	
867.45	6158.9	
867.62	5167.7	
867.79	4219.5	
867.96	3579.8	
868.12	5080.3	
868.29	6147.3	
868.46	3601	
868.63	4868	
868.8	6333.7	
868.97	6079.1	
869.13	3819.5	
869.3	3731.4	
869.47	5933.6	
869.64	6179.4	
869.81	3659.7	
869.97	3627.6	
870.14	5822.4	
870.31	6575.3	
870.48	3564.1	
870.65	4583.4	
870.81	5433.9	
870.98	5326.1	
871.15	4149.9	
871.32	3810.6	
871.48	5858.6	
871.65	6569.2	
871.82	3569.6	
871.99	3950.5	
872.16	7085.3	
872.32	6416.3	
872.49	3663.1	
872.66	3667.2	
872.83	6050.4	
872.99	5333.6	
873.16	4158.1	
873.33	3594.2	
873.5	5644.9	
873.67	5664	
873.83	3816.7	
874	4840.7	
874.17	5810.8	
874.34	7027.9	
874.5	4698.7	
874.67	4562.9	
874.84	6549.4	
875.01	5130.8	
875.17	5160.2	
875.34	3594.2	
875.51	5783.5	
875.68	6991.1	
875.84	4341	
876.01	5438.7	
876.18	5984.8	
876.34	5967.8	
876.51	3646.7	
876.68	3546.4	
876.85	5463.3	
877.01	6340.5	
877.18	5199.8	
877.35	3619.4	
877.52	5523.4	
877.68	4995.7	
877.85	3486.3	
878.02	3611.3	
878.18	5577.3	
878.35	5276.9	
878.52	2861.7	
878.69	4115.1	
878.85	6047.7	
879.02	6006	
879.19	5177.3	
879.35	3875.4	
879.52	6066.8	
879.69	6319.3	
879.86	3119.1	
880.02	4096.6	
880.19	5545.9	
880.36	6776.7	
880.52	4162.8	
880.69	4304.1	
880.86	6140.5	
881.02	6191.7	
881.19	3920.5	
881.36	3947.1	
881.52	6016.2	
881.69	5246.9	
881.86	3899.3	
882.02	3799.7	
882.19	6333	
882.36	7451.9	
882.52	3661.8	
882.69	5159.5	
882.86	5752.1	
883.02	5697.4	
883.19	4472.1	
883.36	4233.8	
883.52	6109.1	
883.69	7011.6	
883.86	3637.2	
884.02	3241.9	
884.19	6137.8	
884.36	5565	
884.52	4102.8	
884.69	3830.4	
884.86	5335.6	
885.02	6804.7	
885.19	4132.1	
885.36	3986.7	
885.52	5627.8	
885.69	5803.9	
885.86	5294	
886.02	4646.8	
886.19	6107.7	
886.35	5477	
886.52	3999	
886.69	5102.9	
886.85	5145.9	
887.02	6493.4	
887.19	6493.4	
887.35	6493.4	
887.52	6493.4	
887.68	6493.4	
887.85	6493.4	
888.02	6493.4	
888.18	6493.4	
888.35	6493.4	
888.51	6493.4	
888.68	6493.4	
888.85	6493.4	
889.01	6493.4	
889.18	6493.4	
889.35	6493.4	
889.51	6493.4	
889.68	6493.4	
889.84	6493.4	
890.01	6493.4	
890.17	6493.4	
890.34	6493.4	
890.51	6493.4	
890.67	6493.4	
890.84	6493.4	
891	6493.4	
891.17	6493.4	
891.34	6493.4	
891.5	6493.4	
891.67	6493.4	
891.83	6493.4	
892	6493.4	
892.16	6493.4	
892.33	6493.4	
892.5	6493.4	
892.66	6493.4	
892.83	6493.4	
892.99	6493.4	
893.16	6493.4	
893.32	6493.4	
893.49	6493.4	
893.65	6493.4	
893.82	6493.4	
893.99	6493.4	
894.15	6493.4	
894.32	6493.4	
894.48	6493.4	
894.65	6493.4	
894.81	6493.4	
894.98	6493.4	
895.14	6493.4	
895.31	6493.4	
895.47	6493.4	
895.64	6493.4	
895.81	6493.4	
895.97	6493.4	
896.14	6493.4	
896.3	6493.4	
896.47	6493.4	
896.63	6493.4	
896.8	6493.4	
896.96	6493.4	
897.13	6493.4	
897.29	6493.4	
897.46	6493.4	
897.62	6493.4	
897.79	6493.4	
897.95	6493.4	
898.12	6493.4	
898.28	6493.4	
898.45	6493.4	
898.61	6493.4	
898.78	6493.4	
898.94	6493.4	
899.11	6493.4	
899.27	6493.4	
899.44	6493.4	
899.6	6493.4	
899.77	6493.4	
899.93	6493.4	
900.1	6493.4	
900.26	6493.4	
900.43	6493.4	
900.59	6493.4	
900.76	6493.4	
900.92	6493.4	
901.09	6493.4	
901.25	6493.4	
901.42	6493.4	
901.58	6493.4	
901.75	6493.4	
901.91	6493.4	
902.07	6493.4	
902.24	6493.4	
902.4	6493.4	
902.57	6493.4	
902.73	6493.4	
902.9	6493.4	
903.06	6493.4	
903.23	6493.4	
903.39	6493.4	
903.56	6493.4	
903.72	6493.4	
903.88	6493.4	
904.05	6493.4	
904.21	6493.4	
904.38	6493.4	
904.54	6493.4	
904.71	6493.4	
904.87	6493.4	
905.03	6493.4	
905.2	6493.4	
905.36	6493.4	
905.53	6493.4	
905.69	6493.4	
905.86	6493.4	
906.02	6493.4	
906.18	6493.4	
906.35	6493.4	
906.51	6493.4	
906.68	6493.4	
906.84	6493.4	
907.01	6493.4	
907.17	6493.4	
907.33	6493.4	
907.5	6493.4	
907.66	6493.4	
907.83	6493.4	
907.99	6493.4	
908.15	6493.4	
908.32	6493.4	
908.48	6493.4	
908.65	6493.4	
908.81	6493.4	
908.97	6493.4	
909.14	6493.4	
909.3	6493.4	
909.47	6493.4	
909.63	6493.4	
909.79	6493.4	
909.96	6493.4	
910.12	6493.4	
910.28	6493.4	
910.45	6493.4	
910.61	6493.4	
910.78	6493.4	
910.94	6493.4	
911.1	6493.4	
911.27	6493.4	
911.43	6493.4	
911.59	6493.4	
911.76	6493.4	
911.92	6493.4	
912.08	6493.4	
912.25	6493.4	
912.41	6493.4	
912.57	6493.4	
912.74	6493.4	
912.9	6493.4	
913.07	6493.4	
913.23	6493.4	
913.39	6493.4	
913.56	6493.4	
913.72	6493.4	
913.88	6493.4	
914.05	6493.4	
914.21	6493.4	
914.37	6493.4	
914.54	6493.4	
914.7	6493.4	
914.86	6493.4	
915.03	6493.4	
915.19	6493.4	
