Wavelength	Intensities	
nm	a.u.	
179.22	1901.2	
179.44	1892.3	
179.65	1910.1	
179.86	1874.6	
180.08	1912.1	
180.29	4884.4	
180.51	3493.8	
180.72	5576.6	
180.94	6597.2	
181.15	3237.2	
181.37	3153.9	
181.58	5507.7	
181.79	5774.6	
182.01	3339.6	
182.22	3590.8	
182.44	5790.3	
182.65	4775.2	
182.87	4566.3	
183.08	4013.3	
183.29	5986.2	
183.51	5003.2	
183.72	3577.8	
183.94	5335.6	
184.15	5373.9	
184.37	5421	
184.58	3154.6	
184.79	4401.1	
185.01	4972.5	
185.22	5720	
185.44	4716.5	
185.65	3932.1	
185.86	5271.5	
186.08	4842.1	
186.29	3106.8	
186.51	3347.7	
186.72	5053	
186.94	5876.3	
187.15	3817.4	
187.36	3992.2	
187.58	7688.1	
187.79	5494.7	
188.01	4166.9	
188.22	6488	
188.43	6623.8	
188.65	5699.5	
188.86	3335.5	
189.08	3961.5	
189.29	5149.3	
189.5	5208.7	
189.72	3652.9	
189.93	3768.3	
190.15	5965.7	
190.36	7146	
190.57	4112.3	
190.79	4000.4	
191	6061.3	
191.22	5956.9	
191.43	4136.9	
191.64	3353.9	
191.86	6222.4	
192.07	5904.3	
192.29	3566.2	
192.5	3693.9	
192.71	5948.7	
192.93	5095.3	
193.14	3663.1	
193.35	3784.6	
193.57	5120.6	
193.78	5982.8	
194	2940.2	
194.21	3579.2	
194.42	4921.3	
194.64	5423	
194.85	3961.5	
195.07	4693.9	
195.28	5449.6	
195.49	4679.6	
195.71	4940.4	
195.92	3457.7	
196.13	5550	
196.35	5681.7	
196.56	5311.1	
196.78	4005.8	
196.99	7057.3	
197.2	6541.2	
197.42	4570.4	
197.63	4049.5	
197.84	4842.1	
198.06	5599.1	
198.27	3689.8	
198.48	4886.5	
198.7	5113.1	
198.91	5300.1	
199.13	4057	
199.34	4076.8	
199.55	5734.3	
199.77	4659.1	
199.98	3553.9	
200.19	4080.2	
200.41	5270.8	
200.62	5009.3	
200.83	4233.2	
201.05	4545.1	
201.26	5302.9	
201.47	4979.3	
201.69	3634.5	
201.9	3466.5	
202.11	5386.8	
202.33	6363	
202.54	3760.8	
202.76	4265.9	
202.97	5515.2	
203.18	5510.4	
203.4	4184	
203.61	4146.5	
203.82	5444.9	
204.04	5040.1	
204.25	4086.4	
204.46	3982.6	
204.68	5416.2	
204.89	5639.4	
205.1	3904.1	
205.32	3454.2	
205.53	5810.1	
205.74	6002.6	
205.96	2919.7	
206.17	4144.4	
206.38	5730.2	
206.6	5916.6	
206.81	4646.8	
207.02	3768.3	
207.24	5682.4	
207.45	6062.7	
207.66	3870	
207.88	3276.1	
208.09	5597.1	
208.3	5410.1	
208.52	3541.6	
208.73	3852.2	
208.94	5386.8	
209.15	6145.3	
209.37	3791.5	
209.58	4020.2	
209.79	5969.8	
210.01	5198.4	
210.22	3124.5	
210.43	3220.8	
210.65	5373.9	
210.86	5806.7	
211.07	3810.6	
211.29	3507.5	
211.5	5699.5	
211.71	5354.8	
211.93	3545.7	
212.14	3534.8	
212.35	5292	
212.56	5554.8	
212.78	4038.6	
212.99	3333.4	
213.2	6426.5	
213.42	5128.8	
213.63	3615.3	
213.84	3885	
214.06	4773.1	
214.27	4893.3	
214.48	3874.1	
214.69	4116.4	
214.91	6124.1	
215.12	6148.7	
215.33	4131.4	
215.55	4555.4	
215.76	6651.1	
215.97	5786.2	
216.18	4021.5	
216.4	3831.7	
216.61	5098.8	
216.82	5860.6	
217.04	3539.6	
217.25	3697.3	
217.46	6033.3	
217.67	5786.2	
217.89	3164.8	
218.1	3286.3	
218.31	5488.6	
218.53	5625.8	
218.74	3742.3	
218.95	3588	
219.16	5362.3	
219.38	6303.6	
219.59	3669.3	
219.8	4320.5	
220.01	6965.1	
220.23	5421.7	
220.44	4708.3	
220.65	3506.1	
220.87	5466	
221.08	6051.1	
221.29	3292.5	
221.5	4435.9	
221.72	7380.2	
221.93	5111.7	
222.14	4078.2	
222.35	4752	
222.57	5459.9	
222.78	5763	
222.99	3848.1	
223.2	4159.4	
223.42	5669.5	
223.63	5843.5	
223.84	2895.1	
224.05	2934.7	
224.27	6886	
224.48	6303	
224.69	4825	
224.9	4065.9	
225.12	5618.3	
225.33	5348.6	
225.54	3244.7	
225.75	3616.7	
225.97	4925.4	
226.18	5197.7	
226.39	3901.4	
226.6	3619.4	
226.82	5124.7	
227.03	5013.4	
227.24	4067.9	
227.45	3339.6	
227.67	5755.5	
227.88	6379.4	
228.09	4542.4	
228.3	4588.1	
228.52	5829.2	
228.73	5362.9	
228.94	3767.6	
229.15	3349.8	
229.36	5313.1	
229.58	5217.5	
229.79	3757.3	
230	4398.4	
230.21	6374	
230.43	5453.7	
230.64	4027.7	
230.85	4171.7	
231.06	5770.5	
231.28	5840.1	
231.49	3353.2	
231.7	3896.6	
231.91	5713.2	
232.12	5450.3	
232.34	3422.2	
232.55	3922.5	
232.76	6008.1	
232.97	5597.1	
233.18	3530	
233.4	3927.3	
233.61	5623.7	
233.82	5111	
234.03	3700.7	
234.25	3671.3	
234.46	7513.3	
234.67	5413.5	
234.88	4104.1	
235.09	3574.4	
235.31	5720	
235.52	5256.5	
235.73	4018.8	
235.94	3345.7	
236.15	5113.1	
236.37	6617.7	
236.58	3551.2	
236.79	3872.7	
237	5677.7	
237.21	4931.5	
237.43	4134.2	
237.64	3304.7	
237.85	9865.1	
238.06	4950.6	
238.27	4207.2	
238.48	3377.1	
238.7	5718.6	
238.91	5261.2	
239.12	3822.9	
239.33	3857.7	
239.54	4971.1	
239.76	5315.2	
239.97	3825.6	
240.18	3876.1	
240.39	6756.2	
240.6	5699.5	
240.82	3997	
241.03	3265.8	
241.24	5388.9	
241.45	6298.2	
241.66	3566.2	
241.87	4126.7	
242.09	6136.4	
242.3	6495.5	
242.51	4231.1	
242.72	3911.6	
242.93	5907	
243.14	5324	
243.36	4446.8	
243.57	4887.8	
243.78	6188.3	
243.99	5727.5	
244.2	3872.7	
244.41	3539.6	
244.63	4962.2	
244.84	5700.9	
245.05	4176.5	
245.26	3915.7	
245.47	5653.1	
245.68	5990.3	
245.9	5159.5	
246.11	4023.6	
246.32	5281	
246.53	5670.8	
246.74	6273.6	
246.95	3293.8	
247.16	4855.1	
247.38	5424.4	
247.59	3267.9	
247.8	3906.2	
248.01	5034.6	
248.22	5291.3	
248.43	3480.2	
248.64	3734.1	
248.86	4764.9	
249.07	5140.4	
249.28	3403	
249.49	3969.6	
249.7	5975.3	
249.91	6077.7	
250.12	3220.1	
250.34	3261	
250.55	5516.5	
250.76	5359.5	
250.97	4015.4	
251.18	4046.8	
251.39	6148.7	
251.6	5555.5	
251.81	4108.2	
252.03	4090.5	
252.24	5137.7	
252.45	5881.1	
252.66	3353.2	
252.87	4329.4	
253.08	5403.2	
253.29	7092.1	
253.5	3388.7	
253.72	4697.4	
253.93	5255.8	
254.14	6358.3	
254.35	3685.7	
254.56	3803.1	
254.77	5681.7	
254.98	4973.8	
255.19	3658.4	
255.41	4782.7	
255.62	5503.6	
255.83	6090	
256.04	4256.4	
256.25	4092.5	
256.46	6617	
256.67	5105.6	
256.88	4031.1	
257.09	4442	
257.31	5039.4	
257.52	5074.2	
257.73	5064.6	
257.94	3663.8	
258.15	5330.2	
258.36	5460.6	
258.57	4647.5	
258.78	2951.1	
258.99	5947.3	
259.2	5191.6	
259.41	3723.9	
259.63	3845.4	
259.84	6195.1	
260.05	6670.2	
260.26	4932.2	
260.47	3562.1	
260.68	5993	
260.89	5331.5	
261.1	4468	
261.31	3547.8	
261.52	5969.1	
261.73	6315.9	
261.95	4814.1	
262.16	4220.9	
262.37	6092.7	
262.58	6115.2	
262.79	4805.2	
263	3755.3	
263.21	5427.8	
263.42	4866	
263.63	3788.7	
263.84	3721.8	
264.05	5935	
264.26	6361.7	
264.47	4648.9	
264.69	4218.8	
264.9	6152.8	
265.11	5646.2	
265.32	3553.9	
265.53	3679.5	
265.74	5528.8	
265.95	4805.9	
266.16	3985.3	
266.37	4384	
266.58	5448.3	
266.79	5251.7	
267	3650.8	
267.21	3414.6	
267.42	4979.3	
267.63	5418.9	
267.84	3869.3	
268.06	3309.5	
268.27	5831.2	
268.48	6180.1	
268.69	3757.3	
268.9	4440.7	
269.11	6068.8	
269.32	4898.1	
269.53	3846.1	
269.74	3567.6	
269.95	5722.7	
270.16	4764.9	
270.37	3938.2	
270.58	4500.8	
270.79	5279.7	
271	5977.3	
271.21	4160.8	
271.42	3851.5	
271.63	5520.6	
271.84	5063.9	
272.05	3084.9	
272.26	3479.5	
272.47	5445.5	
272.68	5662	
272.89	3677.5	
273.11	4305.5	
273.32	5237.3	
273.53	6382.2	
273.74	4164.2	
273.95	4073.4	
274.16	6021	
274.37	5438	
274.58	4178.5	
274.79	3379.1	
275	5554.8	
275.21	6109.8	
275.42	5130.8	
275.63	4383.3	
275.84	5676.3	
276.05	7080.5	
276.26	4115.7	
276.47	3791.5	
276.68	5207.3	
276.89	6496.8	
277.1	4382	
277.31	3362.1	
277.52	5667.4	
277.73	5832.6	
277.94	3366.9	
278.15	3773	
278.36	5570.5	
278.57	5037.3	
278.78	3744.4	
278.99	4169	
279.2	5008.6	
279.41	4999.1	
279.62	4840	
279.83	3465.8	
280.04	6630.6	
280.25	4922	
280.46	4939.7	
280.67	3870.7	
280.88	5053.7	
281.09	6066.1	
281.3	4100.7	
281.51	5137	
281.72	5115.8	
281.93	5959.6	
282.14	3566.9	
282.35	3969.6	
282.56	5871.5	
282.77	5879.7	
282.98	3721.8	
283.19	4592.2	
283.4	7221.1	
283.61	5391.6	
283.82	3377.8	
284.03	4824.3	
284.24	5487.2	
284.45	6011.5	
284.66	4758.1	
284.87	4683	
285.08	5954.1	
285.29	6102.9	
285.5	3290.4	
285.71	3820.1	
285.92	6105	
286.12	6713.9	
286.33	4745.1	
286.54	3796.3	
286.75	5909.1	
286.96	5268.1	
287.17	3441.3	
287.38	4743.1	
287.59	4991.6	
287.8	4952	
288.01	3788.1	
288.22	4358.8	
288.43	5915.2	
288.64	4943.8	
288.85	4582.7	
289.06	4256.4	
289.27	5819.6	
289.48	6333.7	
289.69	4863.2	
289.9	4360.1	
290.11	6044.9	
290.32	5161.6	
290.53	4616.1	
290.74	4223.6	
290.94	5842.2	
291.15	5868.1	
291.36	3657	
291.57	4348.5	
291.78	5143.8	
291.99	4846.9	
292.2	3523.9	
292.41	4224.3	
292.62	5977.3	
292.83	5800.5	
293.04	5150	
293.25	3509.5	
293.46	5167.7	
293.67	5987.6	
293.88	3638.6	
294.09	3452.2	
294.29	4958.1	
294.5	5526.8	
294.71	3934.1	
294.92	3704.8	
295.13	5141.8	
295.34	6501.6	
295.55	3274.7	
295.76	3342.3	
295.97	5773.9	
296.18	6560.3	
296.39	3449.5	
296.6	3687	
296.81	5511.1	
297.01	5863.3	
297.22	3795.6	
297.43	3629	
297.64	5091.9	
297.85	5087.2	
298.06	3028.9	
298.27	3278.1	
298.48	5479.7	
298.69	5110.4	
298.9	4011.3	
299.11	3594.2	
299.31	4930.1	
299.52	4944.5	
299.73	4205.2	
299.94	4102.1	
300.15	5369.8	
300.36	5010.7	
300.57	4132.8	
300.78	4138.3	
300.99	5253	
301.2	5525.4	
301.4	3628.3	
301.61	3900	
301.82	5701.5	
302.03	5866.7	
302.24	4437.9	
302.45	3450.1	
302.66	5792.3	
302.87	6219	
303.08	3650.8	
303.29	4951.3	
303.49	5175.2	
303.7	5459.2	
303.91	3217.4	
304.12	4770.4	
304.33	4924.7	
304.54	5569.8	
304.75	3631.7	
304.96	3500.7	
305.16	5689.9	
305.37	6510.5	
305.58	3177.8	
305.79	3313.6	
306	5708.4	
306.21	4828.4	
306.42	3592.1	
306.63	5526.1	
306.83	5316.5	
307.04	6058.6	
307.25	4005.1	
307.46	4012.7	
307.67	4633.2	
307.88	5843.5	
308.09	3566.9	
308.29	3720.5	
308.5	5483.1	
308.71	5997.1	
308.92	3852.2	
309.13	3503.4	
309.34	5302.2	
309.55	5286.5	
309.75	4563.6	
309.96	4111	
310.17	5829.9	
310.38	5102.2	
310.59	4338.3	
310.8	3461.1	
311.01	5277.6	
311.21	5307	
311.42	3519.1	
311.63	3585.3	
311.84	5155.4	
312.05	5563	
312.26	4048.8	
312.46	4455.7	
312.67	5202.5	
312.88	4932.9	
313.09	3485.6	
313.3	3477.5	
313.51	6234	
313.71	6582.2	
313.92	3532.1	
314.13	3727.3	
314.34	5550	
314.55	5305.6	
314.76	4528.1	
314.96	3974.4	
315.17	5490.6	
315.38	5806.7	
315.59	3515.7	
315.8	3355.9	
316.01	6263.4	
316.21	6339.1	
316.42	3347.7	
316.63	3943.7	
316.84	5252.4	
317.05	6051.1	
317.26	4160.1	
317.46	3736.9	
317.67	5337.7	
317.88	5785.5	
318.09	4465.9	
318.3	3255.6	
318.5	5157.5	
318.71	5753.4	
318.92	5702.2	
319.13	4111.6	
319.34	5902.9	
319.54	5976	
319.75	3304.7	
319.96	3121.1	
320.17	5782.1	
320.38	6012.8	
320.58	3222.1	
320.79	3900	
321	5995.8	
321.21	6148	
321.42	3877.5	
321.62	3216	
321.83	5040.1	
322.04	5403.2	
322.25	3659.7	
322.46	3537.5	
322.66	5514.5	
322.87	5653.8	
323.08	4358.1	
323.29	3491.8	
323.5	6441.5	
323.7	4991.6	
323.91	4788.8	
324.12	4342.4	
324.33	5505.6	
324.53	5737	
324.74	4124.6	
324.95	4399	
325.16	4817.5	
325.37	5244.8	
325.57	3551.9	
325.78	3596.9	
325.99	5495.4	
326.2	4930.8	
326.4	4934.9	
326.61	3197.6	
326.82	5341.1	
327.03	5486.5	
327.24	5067.4	
327.44	4801.8	
327.65	5641.5	
327.86	4573.1	
328.07	4123.9	
328.27	3334.1	
328.48	6125.5	
328.69	4987.5	
328.9	5113.8	
329.1	3812	
329.31	5289.9	
329.52	6217.6	
329.73	3521.8	
329.93	4032.5	
330.14	5446.2	
330.35	5667.4	
330.56	5800.5	
330.76	4377.9	
330.97	5260.5	
331.18	5619.6	
331.39	3935.5	
331.59	3188	
331.8	5965.1	
332.01	6158.9	
332.22	3647.4	
332.42	4205.2	
332.63	5546.6	
332.84	5124	
333.05	3964.9	
333.25	3631.7	
333.46	5199.8	
333.67	5417.6	
333.88	3702.7	
334.08	4100.7	
334.29	7206.8	
334.5	6153.5	
334.7	3396.2	
334.91	5059.2	
335.12	4949.3	
335.33	5866.7	
335.53	3866.6	
335.74	5865.4	
335.95	5202.5	
336.16	5014.1	
336.36	3920.5	
336.57	4554.7	
336.78	4917.9	
336.98	6012.2	
337.19	4822.3	
337.4	3895.9	
337.61	6523.5	
337.81	4980.7	
338.02	3576.4	
338.23	4653.7	
338.43	6212.9	
338.64	5060.5	
338.85	3551.9	
339.05	4667.3	
339.26	6289.3	
339.47	4859.8	
339.68	3542.3	
339.88	5234.6	
340.09	5659.9	
340.3	5912.5	
340.5	4130.1	
340.71	3113.6	
340.92	4866.7	
341.13	6141.9	
341.33	3381.2	
341.54	4160.8	
341.75	5688.6	
341.95	5261.2	
342.16	3999	
342.37	4335.5	
342.57	5036	
342.78	5376.6	
342.99	4367	
343.19	3155.2	
343.4	5842.9	
343.61	5715.9	
343.81	3794.2	
344.02	3438.5	
344.23	5835.3	
344.43	6217.6	
344.64	4398.4	
344.85	4313	
345.06	5661.3	
345.26	6113.2	
345.47	4111.6	
345.68	4795.7	
345.88	4774.5	
346.09	5890	
346.3	4191.5	
346.5	3155.2	
346.71	5418.2	
346.92	5099.4	
347.12	3219.4	
347.33	4054.3	
347.54	6005.3	
347.74	6432.7	
347.95	4020.8	
348.16	2983.2	
348.36	5209.3	
348.57	4931.5	
348.78	4055.7	
348.98	4388.8	
349.19	5350.7	
349.39	4859.8	
349.6	3214.6	
349.81	3630.4	
350.01	5719.3	
350.22	5135.6	
350.43	3877.5	
350.63	4739.7	
350.84	5427.1	
351.05	5256.5	
351.25	3532.7	
351.46	3219.4	
351.67	6012.8	
351.87	5066.7	
352.08	3852.9	
352.29	4298	
352.49	5866.7	
352.7	6032.6	
352.9	3433.8	
353.11	4300.7	
353.32	6559.6	
353.52	5217.5	
353.73	3381.9	
353.94	4323.3	
354.14	5707.7	
354.35	5502.2	
354.55	3519.8	
354.76	3911.6	
354.97	5720	
355.17	5461.2	
355.38	3296.5	
355.59	4665.3	
355.79	5094.7	
356	5508.4	
356.2	3908.9	
356.41	3414	
356.62	4858.5	
356.82	5392.3	
357.03	4172.4	
357.24	3763.5	
357.44	5130.8	
357.65	5244.8	
357.85	5030.5	
358.06	3878.9	
358.27	4866	
358.47	5129.5	
358.68	3224.2	
358.88	4171	
359.09	5623	
359.3	5999.9	
359.5	4856.4	
359.71	4253.6	
359.91	6486.6	
360.12	5809.4	
360.33	4090.5	
360.53	4614.8	
360.74	5062.6	
360.94	5140.4	
361.15	4318.5	
361.36	3571	
361.56	5914.5	
361.77	5350.7	
361.97	4834.6	
362.18	3794.2	
362.38	5930.9	
362.59	4954.7	
362.8	3485.6	
363	3317.7	
363.21	4822.3	
363.41	5452.4	
363.62	4024.3	
363.83	5079.6	
364.03	5526.1	
364.24	6524.1	
364.44	5122	
364.65	5040.7	
364.85	5264	
365.06	5180.7	
365.27	3665.2	
365.47	3697.9	
365.68	6369.9	
365.88	5228.5	
366.09	4140.3	
366.29	3802.4	
366.5	5573.2	
366.71	6001.9	
366.91	5063.3	
367.12	4282.3	
367.32	6535.8	
367.53	5822.4	
367.73	4178.5	
367.94	5169.1	
368.14	5712.5	
368.35	6673.6	
368.56	4229.1	
368.76	3479.5	
368.97	5862	
369.17	7568.6	
369.38	3648.8	
369.58	3930.1	
369.79	4889.9	
369.99	6180.1	
370.2	4982	
370.4	4088.4	
370.61	5614.2	
370.82	6811.5	
371.02	3939.6	
371.23	3266.5	
371.43	4812	
371.64	6109.1	
371.84	3998.3	
372.05	5194.3	
372.25	7466.9	
372.46	5824.4	
372.66	3983.3	
372.87	3962.8	
373.07	5925.5	
373.28	7587.7	
373.48	4956.8	
373.69	4684.4	
373.9	5378	
374.1	5393	
374.31	4885.8	
374.51	4426.3	
374.72	6265.4	
374.92	5085.1	
375.13	5117.9	
375.33	4306.9	
375.54	5741.8	
375.74	5177.9	
375.95	4395.6	
376.15	5620.3	
376.36	5846.3	
376.56	5651.7	
376.77	4419.5	
376.97	4774.5	
377.18	6881.9	
377.38	5847	
377.59	5158.2	
377.79	3863.8	
378	5718.6	
378.2	6050.4	
378.41	3947.8	
378.61	3889.1	
378.82	6114.6	
379.02	5231.2	
379.23	4081.6	
379.43	5207.3	
379.64	6240.8	
379.84	5867.4	
380.05	3906.2	
380.25	3875.4	
380.46	5862.7	
380.66	5578	
380.87	5233.9	
381.07	5564.3	
381.28	6565.8	
381.48	5961.6	
381.69	3934.8	
381.89	4005.1	
382.1	4930.8	
382.3	6154.8	
382.51	5065.3	
382.71	5940.5	
382.91	5982.1	
383.12	6475	
383.32	4280.3	
383.53	4554	
383.73	5819	
383.94	5601.9	
384.14	4434.5	
384.35	3579.2	
384.55	5497.4	
384.76	5977.3	
384.96	4263.2	
385.17	4609.3	
385.37	5923.4	
385.58	5218.2	
385.78	4625	
385.98	3446.7	
386.19	5455.1	
386.39	5841.5	
386.6	4108.9	
386.8	4326	
387.01	5942.5	
387.21	6004	
387.42	4760.2	
387.62	5283.8	
387.83	5297.4	
388.03	5986.2	
388.23	4320.5	
388.44	5174.5	
388.64	4950.6	
388.85	5091.9	
389.05	4656.4	
389.26	5298.8	
389.46	6984.9	
389.67	6346	
389.87	4632.5	
390.07	4784.7	
390.28	5595.7	
390.48	5193	
390.69	3893.9	
390.89	4193.6	
391.1	5382.7	
391.3	6305.7	
391.5	5428.5	
391.71	6044.2	
391.91	5940.5	
392.12	7053.9	
392.32	5560.2	
392.53	4680.3	
392.73	5399.1	
392.93	5621	
393.14	4339	
393.34	5195.7	
393.55	6102.9	
393.75	5615.5	
393.95	4369	
394.16	4349.9	
394.36	5366.4	
394.57	5991	
394.77	3874.1	
394.98	4313	
395.18	5282.4	
395.38	5343.8	
395.59	5130.8	
395.79	4104.1	
396	5433.3	
396.2	5897.5	
396.4	4943.1	
396.61	4931.5	
396.81	6209.4	
397.02	5393	
397.22	5238.7	
397.42	5260.5	
397.63	6098.2	
397.83	5319.9	
398.04	4068.6	
398.24	4589.5	
398.44	5903.6	
398.65	4952	
398.85	3922.5	
399.05	4065.2	
399.26	5242.1	
399.46	7037.5	
399.67	4397.7	
399.87	4076.1	
400.07	5710.4	
400.28	6043.6	
400.48	4183.3	
400.69	5274.2	
400.89	6278.4	
401.09	6652.5	
401.3	4035.2	
401.5	5216.2	
401.7	6868.2	
401.91	7114	
402.11	4376.5	
402.32	4675.5	
402.52	6202.6	
402.72	6128.9	
402.93	4892.6	
403.13	3721.8	
403.33	6953.5	
403.54	5752.1	
403.74	4552.6	
403.94	5472.2	
404.15	5827.2	
404.35	6988.4	
404.56	4366.3	
404.76	6232	
404.96	6197.8	
405.17	6027.9	
405.37	5632.6	
405.57	4818.2	
405.78	6229.9	
405.98	5661.3	
406.18	4305.5	
406.39	5211.4	
406.59	6210.1	
406.79	5828.5	
407	4170.3	
407.2	4343.1	
407.4	6278.4	
407.61	6479.1	
407.81	4334.2	
408.01	6593.8	
408.22	5213.4	
408.42	7363.1	
408.62	5421	
408.83	4788.8	
409.03	5784.1	
409.23	5608	
409.44	4866.7	
409.64	5164.3	
409.84	6778.8	
410.05	6615.6	
410.25	5016.8	
410.45	4771.8	
410.66	6074.3	
410.86	8613.8	
411.06	5118.6	
411.27	5059.8	
411.47	8360.5	
411.67	6263.4	
411.88	5269.4	
412.08	5477.6	
412.28	6855.9	
412.49	7485.3	
412.69	5055.1	
412.89	5110.4	
413.09	7178.1	
413.3	7049.1	
413.5	5096	
413.7	4769	
413.91	6324.1	
414.11	7202	
414.31	4919.9	
414.52	5360.9	
414.72	6897.6	
414.92	6767.2	
415.12	4966.3	
415.33	5458.5	
415.53	7156.3	
415.73	7373.4	
415.94	5838.8	
416.14	5324	
416.34	6186.2	
416.55	5874.9	
416.75	6481.8	
416.95	5933	
417.15	7139.2	
417.36	7952.9	
417.56	6631.3	
417.76	5715.2	
417.97	7522.2	
418.17	7116.7	
418.37	5192.3	
418.57	5280.3	
418.78	6881.2	
418.98	6597.2	
419.18	6242.2	
419.38	6213.5	
419.59	6716.7	
419.79	6328.2	
419.99	5226.4	
420.2	5621	
420.4	7233.4	
420.6	7353.6	
420.8	5062.6	
421.01	4936.3	
421.21	6959	
421.41	7141.9	
421.61	5512.4	
421.82	5203.9	
422.02	6452.5	
422.22	7392.5	
422.42	6029.2	
422.63	5728.2	
422.83	6650.4	
423.03	7771.4	
423.23	5702.2	
423.44	4631.8	
423.64	6634.1	
423.84	6472.3	
424.04	5150	
424.25	4822.3	
424.45	7574.8	
424.65	7538.6	
424.85	4490.5	
425.06	5215.5	
425.26	7534.5	
425.46	6486.6	
425.66	5639.4	
425.87	5312.4	
426.07	7320.1	
426.27	7162.4	
426.47	5460.6	
426.67	4788.2	
426.88	7601.4	
427.08	7120.1	
427.28	5795.8	
427.48	4784.7	
427.69	5918.6	
427.89	6623.8	
428.09	5663.3	
428.29	4825	
428.5	7370	
428.7	6851.8	
428.9	4663.2	
429.1	5309	
429.3	6771.9	
429.51	7179.5	
429.71	5014.8	
429.91	5843.5	
430.11	7008.8	
430.31	7273.7	
430.52	5262.6	
430.72	5599.1	
430.92	7682.6	
431.12	7086.7	
431.32	4902.2	
431.53	5401.2	
431.73	5970.5	
431.93	7717.4	
432.13	4855.7	
432.33	4760.2	
432.54	6482.5	
432.74	6862.7	
432.94	4720.6	
433.14	5715.9	
433.34	7074.4	
433.55	6488.6	
433.75	5702.9	
433.95	7457.3	
434.15	6743.3	
434.35	6473.6	
434.56	4881	
434.76	4399.7	
434.96	6762.4	
435.16	7037.5	
435.36	4767.7	
435.56	5849.7	
435.77	6392.4	
435.97	6548	
436.17	6543.9	
436.37	5821.7	
436.57	6361	
436.78	6188.3	
436.98	5724.1	
437.18	6341.2	
437.38	7017	
437.58	6584.2	
437.78	6556.9	
437.99	5211.4	
438.19	7049.1	
438.39	7873.1	
438.59	5150	
438.79	4613.4	
438.99	7849.9	
439.2	6678.4	
439.4	4797	
439.6	4668.7	
439.8	6840.9	
440	7965.9	
440.2	5824.4	
440.4	5867.4	
440.61	7217.7	
440.81	7804.1	
441.01	4814.8	
441.21	5832.6	
441.41	7605.5	
441.61	7273	
441.81	6053.1	
442.02	7165.8	
442.22	8083.3	
442.42	7434.8	
442.62	4911.7	
442.82	5058.5	
443.02	7682.6	
443.22	6726.9	
443.43	5428.5	
443.63	5008.6	
443.83	6574	
444.03	6540.5	
444.23	6219	
444.43	5722	
444.63	6840.9	
444.83	8066.9	
445.04	4937	
445.24	6343.2	
445.44	7321.5	
445.64	7415	
445.84	5851	
446.04	5847.6	
446.24	6624.5	
446.44	7713.3	
446.65	5100.8	
446.85	5520	
447.05	6764.4	
447.25	7591.1	
447.45	5508.4	
447.65	4909.7	
447.85	6946.7	
448.05	6559	
448.25	5997.1	
448.46	5837.4	
448.66	6939.2	
448.86	6620.4	
449.06	4790.9	
449.26	5940.5	
449.46	7279.8	
449.66	6344.6	
449.86	5403.2	
450.06	5474.9	
450.26	6490	
450.47	7108.5	
450.67	5712.5	
450.87	6055.8	
451.07	7191.1	
451.27	7006.1	
451.47	4959.5	
451.67	5578.7	
451.87	6508.4	
452.07	7766.6	
452.27	5139.7	
452.47	5120.6	
452.67	6973.3	
452.88	7531.1	
453.08	4604.5	
453.28	6607.4	
453.48	8138.6	
453.68	6853.2	
453.88	5068.7	
454.08	5307.7	
454.28	7227.3	
454.48	6896.2	
454.68	5855.1	
454.88	6374.6	
455.08	7409.6	
455.28	7079.8	
455.48	4887.1	
455.68	5574.6	
455.89	7828	
456.09	7486.7	
456.29	5326.1	
456.49	5337	
456.69	7762.5	
456.89	6941.9	
457.09	5835.3	
457.29	6161	
457.49	7253.9	
457.69	7348.8	
457.89	5577.3	
458.09	5061.2	
458.29	6894.8	
458.49	7633.5	
458.69	6051.1	
458.89	5414.8	
459.09	7899	
459.29	8089.5	
459.49	5554.1	
459.69	6330.3	
459.9	7517.4	
460.1	6956.3	
460.3	5524.7	
460.5	5281.7	
460.7	7426.6	
460.9	7163.1	
461.1	4818.2	
461.3	6210.8	
461.5	8096.3	
461.7	7675.8	
461.9	5274.2	
462.1	5785.5	
462.3	7185	
462.5	7760.4	
462.7	5371.8	
462.9	5450.3	
463.1	8792.6	
463.3	8362.5	
463.5	5635.3	
463.7	6614.9	
463.9	7276.4	
464.1	7660.8	
464.3	5711.1	
464.5	6073.6	
464.7	7927	
464.9	7549.5	
465.1	7335.8	
465.3	6311.8	
465.5	8232.8	
465.7	8183	
465.9	6468.2	
466.1	6423.1	
466.3	8027.4	
466.5	7932.5	
466.7	7268.2	
466.9	6139.8	
467.1	7836.9	
467.3	8736	
467.5	7176.8	
467.7	5979.4	
467.9	8991.9	
468.1	9890.3	
468.3	6806.1	
468.5	7280.5	
468.7	7795.9	
468.9	7774.8	
469.1	6341.2	
469.3	7097.6	
469.5	9671.2	
469.7	7353.6	
469.9	6782.2	
470.1	6063.4	
470.3	7803.4	
470.5	7805.5	
470.7	7309.2	
470.9	6193.1	
471.1	7575.4	
471.3	8125.7	
471.5	5924.1	
471.69	7957.7	
471.89	7489.4	
472.09	6929	
472.29	6774	
472.49	7187.7	
472.69	7110.5	
472.89	8090.8	
473.09	5807.4	
473.29	6055.8	
473.49	7414.3	
473.69	7464.2	
473.89	6980.8	
474.09	6176	
474.29	8783.1	
474.49	8449.9	
474.69	7004.7	
474.89	6283.9	
475.09	7600.7	
475.29	7456.7	
475.49	5731.6	
475.69	5967.1	
475.88	9080	
476.08	7780.9	
476.28	5649	
476.48	6135	
476.68	8277.2	
476.88	8111.3	
477.08	6014.9	
477.28	6283.2	
477.48	7685.3	
477.68	8356.4	
477.88	5829.2	
478.08	6012.2	
478.28	8572.1	
478.48	7752.9	
478.67	6075.6	
478.87	5602.6	
479.07	8348.2	
479.27	7748.8	
479.47	6386.9	
479.67	6378.7	
479.87	8199.4	
480.07	8711.4	
480.27	5608.7	
480.47	7344.7	
480.67	7884.7	
480.87	8419.9	
481.06	5930.9	
481.26	6692.1	
481.46	7700.4	
481.66	7664.2	
481.86	6354.8	
482.06	7472.4	
482.26	7516.7	
482.46	8377.6	
482.66	6342.6	
482.86	5852.4	
483.05	7776.8	
483.25	7199.3	
483.45	8760.5	
483.65	6235.4	
483.85	7310.6	
484.05	7713.3	
484.25	6694.1	
484.45	7191.8	
484.65	8611	
484.84	8574.2	
485.04	6156.2	
485.24	6224.5	
485.44	8794	
485.64	7090.1	
485.84	5446.2	
486.04	6817	
486.24	7448.5	
486.44	7824.6	
486.63	5425.8	
486.83	6224.5	
487.03	7370	
487.23	7530.4	
487.43	5526.1	
487.63	7892.2	
487.83	7716.1	
488.02	8638.3	
488.22	6435.4	
488.42	7116	
488.62	8553.7	
488.82	7450.5	
489.02	6168.5	
489.22	6213.5	
489.41	8421.9	
489.61	8035.5	
489.81	5836.7	
490.01	5997.1	
490.21	8226	
490.41	8907.3	
490.61	5866.1	
490.8	6016.9	
491	7729	
491.2	7148.1	
491.4	6565.1	
491.6	5745.9	
491.8	7857.4	
491.99	8062.2	
492.19	5532.9	
492.39	5981.4	
492.59	8418.5	
492.79	8356.4	
492.99	6778.8	
493.18	5821.7	
493.38	8417.2	
493.58	9125.1	
493.78	6639.5	
493.98	6180.1	
494.18	8001.4	
494.37	7520.8	
494.57	6760.3	
494.77	6569.2	
494.97	8304.5	
495.17	8540.7	
495.37	6145.3	
495.56	6523.5	
495.76	8619.2	
495.96	8317.5	
496.16	7398.6	
496.36	6257.9	
496.55	8593.3	
496.75	8106.5	
496.95	6785.6	
497.15	6620.4	
497.35	8471.1	
497.54	8483.4	
497.74	6388.3	
497.94	8088.1	
498.14	9143.5	
498.34	8832.9	
498.53	6115.2	
498.73	6865.5	
498.93	7870.3	
499.13	8374.1	
499.33	6609.5	
499.52	7206.1	
499.72	8285.4	
499.92	8715.5	
500.12	6314.6	
500.32	6601.3	
500.51	8662.9	
500.71	8413.1	
500.91	7391.1	
501.11	7051.2	
501.31	8556.4	
501.5	9039.1	
501.7	7630	
501.9	6604	
502.1	8331.1	
502.29	8681.3	
502.49	7147.4	
502.69	7502.4	
502.89	8621.3	
503.09	8608.3	
503.28	6141.9	
503.48	6226.5	
503.68	7748.8	
503.88	7815.7	
504.07	7274.4	
504.27	6723.5	
504.47	8151.6	
504.67	8325	
504.86	7148.1	
505.06	6763.1	
505.26	7876.5	
505.46	9759.9	
505.65	6706.4	
505.85	6889.4	
506.05	7833.5	
506.25	8399.4	
506.44	6066.8	
506.64	7075	
506.84	7694.9	
507.04	8681.3	
507.23	6262	
507.43	6775.4	
507.63	9640.5	
507.83	7945.4	
508.02	6737.8	
508.22	6428.6	
508.42	10034	
508.62	7679.2	
508.81	6747.4	
509.01	7245.7	
509.21	7528.3	
509.4	7839.6	
509.6	6826.6	
509.8	6158.2	
510	7772.7	
510.19	9267.1	
510.39	6165.8	
510.59	6320	
510.79	7591.1	
510.98	8978.3	
511.18	6337.1	
511.38	6451.8	
511.57	8473.1	
511.77	8297.7	
511.97	7089.4	
512.17	6127.5	
512.36	8528.4	
512.56	8365.3	
512.76	6158.9	
512.95	5941.8	
513.15	8591.9	
513.35	7185.6	
513.55	6978.1	
513.74	6147.3	
513.94	8525.7	
514.14	7819.8	
514.33	7174.7	
514.53	6974	
514.73	7890.1	
514.92	8081.3	
515.12	6350.1	
515.32	6165.1	
515.51	8045.1	
515.71	8733.2	
515.91	7930.4	
516.11	6310.5	
516.3	9776.3	
516.5	7684	
516.7	6792.4	
516.89	7375.4	
517.09	7845.1	
517.29	7765.2	
517.48	7109.9	
517.68	6482.5	
517.88	7578.2	
518.07	8245.8	
518.27	7056.6	
518.47	6026.5	
518.66	8759.8	
518.86	7442.3	
519.06	5892	
519.25	6378.7	
519.45	7736.5	
519.65	9190.6	
519.84	7017.7	
520.04	7661.5	
520.24	9648	
520.43	8402.1	
520.63	6715.3	
520.83	6473.6	
521.02	7685.3	
521.22	8370.7	
521.42	7066.9	
521.61	7574.8	
521.81	7854	
522.01	8036.2	
522.2	6869.6	
522.4	6591.7	
522.6	8526.4	
522.79	7333.1	
522.99	6623.8	
523.18	5922.7	
523.38	8132.5	
523.58	8132.5	
523.77	7807.5	
523.97	5887.9	
524.17	9996.1	
524.36	9178.3	
524.56	7376.1	
524.76	6965.8	
524.95	8203.5	
525.15	7735.9	
525.34	6733.7	
525.54	6701	
525.74	8512	
525.93	7415	
526.13	7813	
526.33	6605.4	
526.52	8833.6	
526.72	8243.8	
526.91	7873.8	
527.11	7084.6	
527.31	8821.3	
527.5	9162.6	
527.7	6973.3	
527.89	6096.8	
528.09	7698.3	
528.29	8296.3	
528.48	7397.9	
528.68	7012.2	
528.87	8619.9	
529.07	8718.2	
529.27	6909.8	
529.46	6414.9	
529.66	8298.4	
529.85	8795.3	
530.05	6302.3	
530.25	7122.8	
530.44	9744.2	
530.64	8284	
530.83	6761.7	
531.03	6888.7	
531.23	8673.1	
531.42	8539.3	
531.62	7593.9	
531.81	6780.8	
532.01	8795.3	
532.21	9265	
532.4	6547.4	
532.6	6952.9	
532.79	9671.9	
532.99	8730.5	
533.18	6900.3	
533.38	8005.5	
533.58	8286.8	
533.77	9093.7	
533.97	6876.4	
534.16	7730.4	
534.36	9212.4	
534.55	8206.2	
534.75	7781.6	
534.95	6866.8	
535.14	9122.3	
535.34	8300.4	
535.53	6560.3	
535.73	8658.1	
535.92	9613.2	
536.12	8506.6	
536.31	6829.3	
536.51	7989.1	
536.71	8854.7	
536.9	8366	
537.1	6894.8	
537.29	7042.3	
537.49	9215.9	
537.68	8250.6	
537.88	7364.5	
538.07	6532.3	
538.27	8428.8	
538.46	9497.1	
538.66	6481.8	
538.86	6771.9	
539.05	8532.5	
539.25	8940.7	
539.44	7090.8	
539.64	6867.5	
539.83	8404.2	
540.03	9359.2	
540.22	6700.3	
540.42	6849.1	
540.61	8718.9	
540.81	8736	
541	7306.5	
541.2	7959.8	
541.39	8088.8	
541.59	8569.4	
541.78	7540.6	
541.98	6698.2	
542.18	7790.5	
542.37	7759.8	
542.57	7047.7	
542.76	7539.9	
542.96	7925	
543.15	8653.4	
543.35	7081.9	
543.54	6492.1	
543.74	8920.3	
543.93	8480.6	
544.13	7146	
544.32	8218.5	
544.52	8820.6	
544.71	7987.1	
544.91	6149.4	
545.1	7483.3	
545.3	8019.8	
545.49	8705.2	
545.69	6083.1	
545.88	6681.2	
546.08	9736	
546.27	9221.3	
546.47	7232.1	
546.66	6566.5	
546.86	8988.5	
547.05	9522.4	
547.24	6802.7	
547.44	6670.9	
547.63	7858.1	
547.83	9003.6	
548.02	7001.3	
548.22	7190.4	
548.41	7659.4	
548.61	9002.9	
548.8	6481.1	
549	6466.8	
549.19	8393.3	
549.39	8604.2	
549.58	6244.9	
549.78	6842.3	
549.97	8726.4	
550.17	8241.7	
550.36	7660.1	
550.55	8688.2	
550.75	8200.7	
550.94	9246.6	
551.14	6427.2	
551.33	6897.6	
551.53	7603.4	
551.72	8630.8	
551.92	6871.6	
552.11	6617.7	
552.31	8690.2	
552.5	8591.2	
552.69	8475.9	
552.89	6333.7	
553.08	8645.8	
553.28	8269.7	
553.47	6692.1	
553.67	7856	
553.86	9357.9	
554.06	7548.8	
554.25	5905.7	
554.44	6437.4	
554.64	9949	
554.83	9553.8	
555.03	6395.8	
555.22	6862.7	
555.42	8779	
555.61	8539.3	
555.8	6650.4	
556	6990.4	
556.19	7726.3	
556.39	8950.3	
556.58	6709.1	
556.78	6661.4	
556.97	8413.7	
557.16	8063.5	
557.36	7948.8	
557.55	6280.4	
557.75	7380.2	
557.94	9200.2	
558.13	6471.6	
558.33	6272.2	
558.52	9026.1	
558.72	7849.2	
558.91	6376.7	
559.1	6578.8	
559.3	7556.3	
559.49	7308.5	
559.69	5865.4	
559.88	6880.5	
560.07	8314.8	
560.27	8854.1	
560.46	7161.1	
560.66	7341.3	
560.85	8136.6	
561.04	7423.2	
561.24	6315.3	
561.43	6511.2	
561.63	7623.2	
561.82	7899	
562.01	7705.1	
562.21	6691.4	
562.4	8395.3	
562.59	9267.7	
562.79	6655.2	
562.98	6285.2	
563.18	8232.8	
563.37	9710.1	
563.56	7150.1	
563.76	6229.9	
563.95	7718.1	
564.14	7638.2	
564.34	6615.6	
564.53	6363.7	
564.73	8224	
564.92	8574.2	
565.11	6759	
565.31	6055.8	
565.5	8792.6	
565.69	7752.2	
565.89	6369.2	
566.08	6536.4	
566.27	8657.4	
566.47	9112.8	
566.66	7282.6	
566.85	5898.2	
567.05	8260.1	
567.24	7609.6	
567.44	6256.5	
567.63	7688.1	
567.82	8541.4	
568.02	8254.7	
568.21	6208.8	
568.4	6607.4	
568.6	8049.2	
568.79	8045.8	
568.98	6000.5	
569.18	6296.8	
569.37	7979.6	
569.56	9989.3	
569.76	6510.5	
569.95	7576.1	
570.14	8379.6	
570.34	8263.6	
570.53	6119.3	
570.72	6002.6	
570.91	8836.3	
571.11	7896.3	
571.3	6486.6	
571.49	7445	
571.69	7892.9	
571.88	7472.4	
572.07	6992.4	
572.27	6975.4	
572.46	7475.8	
572.65	8520.2	
572.85	6238.8	
573.04	6595.8	
573.23	8816.5	
573.43	8023.3	
573.62	5957.5	
573.81	6674.3	
574	8030.1	
574.2	7781.6	
574.39	6278.4	
574.58	6465.4	
574.78	8853.4	
574.97	8136.6	
575.16	6819.1	
575.36	7027.3	
575.55	8488.1	
575.74	8647.9	
575.93	5975.3	
576.13	7028.6	
576.32	7762.5	
576.51	8490.9	
576.71	6414.9	
576.9	7671	
577.09	8810.4	
577.28	8217.1	
577.48	6931.7	
577.67	5888.6	
577.86	7914	
578.05	8240.3	
578.25	6466.8	
578.44	6604.7	
578.63	8017.1	
578.83	9231.6	
579.02	5866.1	
579.21	7436.9	
579.4	8312	
579.6	7938.6	
579.79	6702.3	
579.98	8877.3	
580.17	8641.1	
580.37	8611	
580.56	6146	
580.75	6885.3	
580.94	9105.3	
581.14	8947.6	
581.33	7408.2	
581.52	6275.7	
581.71	8482	
581.91	9153.7	
582.1	5972.6	
582.29	6605.4	
582.48	8155	
582.68	8021.9	
582.87	7129.7	
583.06	6673	
583.25	8398.7	
583.45	7764.5	
583.64	7393.8	
583.83	8056	
584.02	7962.5	
584.21	8408.3	
584.41	7385.7	
584.6	6682.5	
584.79	8113.4	
584.98	8914.1	
585.18	6163	
585.37	6099.5	
585.56	7669.6	
585.75	8553.7	
585.94	6441.5	
586.14	6963.8	
586.33	9166.7	
586.52	8142.7	
586.71	6902.3	
586.91	6573.3	
587.1	7582.9	
587.29	8578.9	
587.48	6567.8	
587.67	6390.3	
587.87	8411.7	
588.06	8569.4	
588.25	7705.1	
588.44	6972	
588.63	8063.5	
588.83	8634.9	
589.02	6482.5	
589.21	6368.5	
589.4	7867.6	
589.59	7722.2	
589.78	5634.6	
589.98	5930.2	
590.17	7404.8	
590.36	7911.3	
590.55	5238.7	
590.74	6162.3	
590.94	9265.7	
591.13	7806.9	
591.32	5779.4	
591.51	5362.3	
591.7	8181.6	
591.89	7564.5	
592.09	5432.6	
592.28	5881.1	
592.47	6892.1	
592.66	8687.5	
592.85	5466	
593.05	5640.1	
593.24	7492.2	
593.43	8246.5	
593.62	5746.6	
593.81	6190.3	
594	7483.3	
594.19	7720.2	
594.39	5608.7	
594.58	5605.3	
594.77	7870.3	
594.96	8497	
595.15	5716.6	
595.34	6382.2	
595.54	8010.3	
595.73	7055.3	
595.92	4993.6	
596.11	6152.8	
596.3	8413.7	
596.49	7163.8	
596.68	5853.1	
596.88	6346	
597.07	8164.6	
597.26	6988.4	
597.45	5477.6	
597.64	6758.3	
597.83	7202.7	
598.02	7929.1	
598.22	5606.7	
598.41	6247	
598.6	7628	
598.79	7178.8	
598.98	5618.9	
599.17	6599.2	
599.36	7755.7	
599.55	8912.8	
599.74	7789.8	
599.94	7474.4	
600.13	8292.9	
600.32	7143.3	
600.51	5485.8	
600.7	5578.7	
600.89	8943.5	
601.08	9005.6	
601.27	5384.8	
601.47	6352.8	
601.66	8314.1	
601.85	8927.8	
602.04	6122.7	
602.23	6417.7	
602.42	7281.2	
602.61	7964.6	
602.8	6010.1	
602.99	5854.5	
603.18	7709.2	
603.37	7991.2	
603.57	6505.7	
603.76	7018.4	
603.95	8728.4	
604.14	8204.8	
604.33	5904.3	
604.52	6246.3	
604.71	7879.2	
604.9	7547.4	
605.09	6939.9	
605.28	6752.8	
605.47	8584.4	
605.66	8210.3	
605.86	6457.9	
606.05	5900.9	
606.24	8558.5	
606.43	7079.8	
606.62	6271.6	
606.81	7063.4	
607	8459.5	
607.19	7644.4	
607.38	5698.8	
607.57	5996.5	
607.76	7529	
607.95	6885.3	
608.14	6334.4	
608.33	6992.4	
608.52	7482.6	
608.72	8381.7	
608.91	5605.3	
609.1	5507	
609.29	7572	
609.48	7141.3	
609.67	6522.1	
609.86	5655.1	
610.05	7216.4	
610.24	7630	
610.43	5547.9	
610.62	5213.4	
610.81	8699.8	
611	8453.3	
611.19	5617.6	
611.38	6360.3	
611.57	7843	
611.76	9154.4	
611.95	5440.1	
612.14	5298.1	
612.33	7644.4	
612.52	7187.7	
612.71	5923.4	
612.9	5182.7	
613.09	6755.6	
613.28	9035	
613.47	5618.3	
613.66	6712.6	
613.85	7799.3	
614.04	7260.7	
614.24	5730.2	
614.43	5048.2	
614.62	7921.5	
614.81	7797.3	
615	6346.7	
615.19	6379.4	
615.38	7135.8	
615.57	7524.9	
615.76	6204.7	
615.95	7148.8	
616.14	7859.4	
616.33	7578.8	
616.52	6519.4	
616.71	6825.2	
616.9	7834.8	
617.09	7706.5	
617.28	5876.3	
617.47	7072.3	
617.66	6967.2	
617.85	7004.7	
618.04	6795.8	
618.22	6165.8	
618.41	7253.9	
618.6	8122.9	
618.79	6024.4	
618.98	5776.6	
619.17	8509.3	
619.36	6896.9	
619.55	5915.2	
619.74	5980.8	
619.93	7774.1	
620.12	7253.9	
620.31	6495.5	
620.5	6720.1	
620.69	8314.1	
620.88	8720.9	
621.07	7335.8	
621.26	6365.8	
621.45	7919.5	
621.64	7862.8	
621.83	6503	
622.02	5650.3	
622.21	7973.4	
622.4	7684.7	
622.59	7045	
622.78	6767.2	
622.97	7248.4	
623.16	8338	
623.35	6384.2	
623.54	5565	
623.72	7523.6	
623.91	7653.3	
624.1	6805.4	
624.29	5379.3	
624.48	8692.9	
624.67	7945.4	
624.86	6501.6	
625.05	5609.4	
625.24	8884.1	
625.43	7204.1	
625.62	8258.1	
625.81	5793	
626	8229.4	
626.19	7460.8	
626.38	6563.1	
626.56	5954.8	
626.75	7263.5	
626.94	8034.2	
627.13	6478.4	
627.32	5315.8	
627.51	7981.6	
627.7	9383.8	
627.89	5360.2	
628.08	6494.1	
628.27	7080.5	
628.46	7273	
628.65	5638.1	
628.83	5283.8	
629.02	7810.3	
629.21	7107.1	
629.4	6085.2	
629.59	6280.4	
629.78	7133.8	
629.97	8073.8	
630.16	6292.7	
630.35	5828.5	
630.54	8497.7	
630.72	8150.2	
630.91	5819.6	
631.1	6386.9	
631.29	7714	
631.48	7892.9	
631.67	6450.4	
631.86	5884.5	
632.05	7307.2	
632.24	7357	
632.42	5483.1	
632.61	6195.1	
632.8	7426.6	
632.99	7008.1	
633.18	6175.3	
633.37	6587	
633.56	7727	
633.75	7522.2	
633.93	6227.9	
634.12	5814.2	
634.31	8584.4	
634.5	8092.9	
634.69	5878.4	
634.88	6352.1	
635.07	7470.3	
635.25	8079.9	
635.44	6782.9	
635.63	7101	
635.82	7320.1	
636.01	6853.2	
636.2	6735.8	
636.39	6273.6	
636.57	8569.4	
636.76	8193.9	
636.95	5795.1	
637.14	7136.5	
637.33	7778.9	
637.52	8717.5	
637.7	5498.1	
637.89	6485.2	
638.08	7401.4	
638.27	8923.7	
638.46	6614.9	
638.65	7098.9	
638.83	8899.8	
639.02	7231.4	
639.21	6451.8	
639.4	6939.9	
639.59	7746.8	
639.78	7385.7	
639.96	5778	
640.15	5853.1	
640.34	7585	
640.53	7785	
640.72	5537	
640.91	5829.2	
641.09	6954.2	
641.28	8436.3	
641.47	5862	
641.66	6675	
641.85	7636.9	
642.03	8015.1	
642.22	6442.2	
642.41	5949.3	
642.6	7106.5	
642.79	6581.5	
642.97	5732.3	
643.16	6464.8	
643.35	7100.3	
643.54	6932.4	
643.73	5686.5	
643.91	6478.4	
644.1	6709.8	
644.29	7417.7	
644.48	5728.2	
644.67	5855.8	
644.85	7045.7	
645.04	7352.9	
645.23	5279	
645.42	5595.7	
645.6	6849.8	
645.79	8063.5	
645.98	5631.2	
646.17	4611.3	
646.36	6597.9	
646.54	7256	
646.73	6469.5	
646.92	5205.3	
647.11	6727.6	
647.29	7897.7	
647.48	5311.7	
647.67	5030.5	
647.86	8060.8	
648.05	8178.2	
648.23	5586.9	
648.42	6884.6	
648.61	7425.3	
648.8	7216.4	
648.98	5214.1	
649.17	5565	
649.36	6872.3	
649.55	6243.6	
649.73	5377.3	
649.92	6156.2	
650.11	6756.9	
650.3	7123.5	
650.48	5535	
650.67	5187.5	
650.86	7376.8	
651.05	6300.2	
651.23	5444.9	
651.42	5415.5	
651.61	6797.9	
651.79	6903	
651.98	5563.6	
652.17	5321.3	
652.36	7272.3	
652.54	6399.2	
652.73	5319.9	
652.92	5135.6	
653.11	7339.9	
653.29	7477.8	
653.48	4698	
653.67	5693.4	
653.85	7163.8	
654.04	8205.5	
654.23	5944.6	
654.42	5416.9	
654.6	6762.4	
654.79	7350.2	
654.98	4894.6	
655.16	5580.7	
655.35	6346	
655.54	6302.3	
655.73	4995.7	
655.91	4814.1	
656.1	7385.7	
656.29	6185.5	
656.47	4477.5	
656.66	6264.1	
656.85	6425.8	
657.03	6551.5	
657.22	5016.2	
657.41	5112.4	
657.59	6593.1	
657.78	6372.6	
657.97	4717.8	
658.16	5520	
658.34	7294.9	
658.53	7699.7	
658.72	6460.7	
658.9	6924.9	
659.09	6690.7	
659.28	6826.6	
659.46	5246.2	
659.65	5205.9	
659.84	6503.7	
660.02	7020.4	
660.21	5145.9	
660.4	5010	
660.58	7476.5	
660.77	6898.2	
660.96	5708.4	
661.14	4739	
661.33	8063.5	
661.52	7910.6	
661.7	4680.3	
661.89	8374.8	
662.08	6522.8	
662.26	6064.7	
662.45	5034.6	
662.64	5092.6	
662.82	7219.1	
663.01	6367.1	
663.2	5212.8	
663.38	5909.1	
663.57	7162.4	
663.75	7006.8	
663.94	5546.6	
664.13	6777.4	
664.31	6454.5	
664.5	7174	
664.69	5866.1	
664.87	6325.5	
665.06	6240.2	
665.25	6988.4	
665.43	6470.2	
665.62	6640.9	
665.8	7382.2	
665.99	6561.7	
666.18	5479.7	
666.36	5624.4	
666.55	7282.6	
666.74	7086	
666.92	5111	
667.11	6846.4	
667.29	6623.8	
667.48	7333.8	
667.67	6379.4	
667.85	5474.9	
668.04	6684.6	
668.22	6692.1	
668.41	5530.9	
668.6	5715.9	
668.78	6440.2	
668.97	6716	
669.15	5935	
669.34	4833.2	
669.53	6469.5	
669.71	6791.1	
669.9	5067.4	
670.08	5782.1	
670.27	6565.8	
670.46	7151.5	
670.64	5972.6	
670.83	6207.4	
671.01	6303.6	
671.2	7042.3	
671.38	5145.2	
671.57	5004.6	
671.76	7628	
671.94	8306.6	
672.13	4917.9	
672.31	6118	
672.5	7165.8	
672.69	6493.4	
672.87	5126.1	
673.06	5483.1	
673.24	7018.4	
673.43	6511.2	
673.61	5912.5	
673.8	5396.4	
673.98	7259.4	
674.17	7379.5	
674.36	5992.4	
674.54	5835.3	
674.73	6963.8	
674.91	7212.3	
675.1	5606.7	
675.28	5261.9	
675.47	6771.3	
675.65	7291.5	
675.84	5409.4	
676.03	5717.2	
676.21	6500.3	
676.4	6051.7	
676.58	6252.4	
676.77	5909.1	
676.95	8013	
677.14	6434	
677.32	5121.3	
677.51	4898.1	
677.69	7271	
677.88	6106.4	
678.06	4954	
678.25	5055.8	
678.44	6787	
678.62	6507.1	
678.81	4780	
678.99	5806.7	
679.18	7583.6	
679.36	7111.9	
679.55	5388.9	
679.73	5928.2	
679.92	7109.9	
680.1	6506.4	
680.29	6614.9	
680.47	5324.7	
680.66	6479.1	
680.84	7316.7	
681.03	4704.2	
681.21	5901.6	
681.4	6496.8	
681.58	6322.1	
681.77	5083.7	
681.95	5036.6	
682.14	7357.7	
682.32	7668.3	
682.51	6000.5	
682.69	4807.3	
682.88	6419	
683.06	7054.6	
683.25	5690.6	
683.43	6133.7	
683.62	6634.1	
683.8	7118.1	
683.99	6220.4	
684.17	5570.5	
684.36	8050.6	
684.54	6594.5	
684.73	4779.3	
684.91	4962.2	
685.1	6979.5	
685.28	6365.1	
685.46	5547.3	
685.65	5579.3	
685.83	7060.7	
686.02	6382.2	
686.2	4944.5	
686.39	4978.6	
686.57	6329.6	
686.76	7757	
686.94	4896	
687.13	5088.5	
687.31	6910.5	
687.5	6395.1	
687.68	4511.7	
687.86	5879	
688.05	8226	
688.23	5895.4	
688.42	5880.4	
688.6	4974.5	
688.79	6303	
688.97	6309.1	
689.16	5311.1	
689.34	4319.8	
689.52	7057.3	
689.71	7268.2	
689.89	5722	
690.08	4917.2	
690.26	6595.1	
690.45	6432.7	
690.63	5887.9	
690.81	5109	
691	6329.6	
691.18	6195.1	
691.37	5241.4	
691.55	7416.4	
691.74	6174.6	
691.92	8243.1	
692.1	5155.4	
692.29	4619.5	
692.47	6361.7	
692.66	5670.8	
692.84	4770.4	
693.02	5535.7	
693.21	5826.5	
693.39	6292.7	
693.58	5532.2	
693.76	4949.9	
693.94	7538.6	
694.13	7240.3	
694.31	4870.1	
694.5	6013.5	
694.68	6162.3	
694.86	6411.5	
695.05	5274.9	
695.23	5354.1	
695.42	6956.3	
695.6	9306	
695.78	5920.7	
695.97	5004.6	
696.15	6939.9	
696.34	6369.2	
696.52	4800.4	
696.7	5617.6	
696.89	6665.5	
697.07	6101.6	
697.25	5526.1	
697.44	7025.2	
697.62	6646.3	
697.81	6981.5	
697.99	5213.4	
698.17	5677	
698.36	5959.6	
698.54	6657.9	
698.72	5600.5	
698.91	4498	
699.09	6194.4	
699.28	6026.5	
699.46	5167.7	
699.64	5022.3	
699.83	5891.3	
700.01	7329	
700.19	5855.8	
700.38	4256.4	
700.56	7303.1	
700.74	6100.9	
700.93	4635.2	
701.11	5513.1	
701.29	6756.9	
701.48	7759.8	
701.66	4884.4	
701.84	4975.9	
702.03	6234	
702.21	6931	
702.39	4462.5	
702.58	5082.4	
702.76	6675	
702.94	6750.8	
703.13	4530.8	
703.31	6981.5	
703.49	5948	
703.68	7236.2	
703.86	4661.9	
704.04	5636	
704.23	6452.5	
704.41	6913.3	
704.59	4823.6	
704.78	6128.9	
704.96	7545.4	
705.14	6959	
705.33	4601.8	
705.51	5499.5	
705.69	6342.6	
705.87	7155.6	
706.06	5737.7	
706.24	4576.5	
706.42	6643.6	
706.61	6873	
706.79	5826.5	
706.97	4592.2	
707.16	6093.4	
707.34	6699.6	
707.52	5797.8	
707.7	4891.9	
707.89	6136.4	
708.07	5922	
708.25	5734.3	
708.44	5909.8	
708.62	6166.4	
708.8	7377.5	
708.98	6043.6	
709.17	4924	
709.35	6634.7	
709.53	6679.1	
709.72	4659.1	
709.9	4844.1	
710.08	6870.3	
710.26	6873.7	
710.45	6359.6	
710.63	5148.6	
710.81	6551.5	
710.99	6505	
711.18	5646.2	
711.36	5134.3	
711.54	6414.9	
711.72	7033.4	
711.91	5166.3	
712.09	4614.1	
712.27	6563.1	
712.45	7250.5	
712.64	5550.7	
712.82	4486.4	
713	5960.3	
713.18	6152.1	
713.37	4625.7	
713.55	5893.4	
713.73	7040.2	
713.91	5642.8	
714.1	5034.6	
714.28	4450.2	
714.46	6741.2	
714.64	5875.6	
714.83	3960.1	
715.01	4762.2	
715.19	6009.4	
715.37	5419.6	
715.55	4437.3	
715.74	4811.4	
715.92	6971.3	
716.1	4963.6	
716.28	5978.7	
716.47	4954.7	
716.65	5649	
716.83	5786.2	
717.01	4844.8	
717.19	4897.4	
717.38	7871.7	
717.56	5416.9	
717.74	5095.3	
717.92	4112.3	
718.1	6683.9	
718.29	5831.2	
718.47	3714.3	
718.65	4367	
718.83	6441.5	
719.01	6442.2	
719.2	3593.5	
719.38	4786.1	
719.56	6129.6	
719.74	7728.4	
719.92	4282.3	
720.11	5440.8	
720.29	6177.4	
720.47	5374.6	
720.65	3937.6	
720.83	4953.4	
721.02	5677.7	
721.2	5484.5	
721.38	4878.9	
721.56	4143	
721.74	4956.8	
721.92	5204.6	
722.11	5466	
722.29	5055.1	
722.47	6432	
722.65	5608.7	
722.83	4132.8	
723.01	5101.5	
723.2	5681.1	
723.38	5909.8	
723.56	3564.8	
723.74	4803.9	
723.92	5145.9	
724.1	6406	
724.29	4038.6	
724.47	5300.8	
724.65	5285.1	
724.83	5149.3	
725.01	3974.4	
725.19	4878.3	
725.37	5266.7	
725.56	5301.5	
725.74	3834.5	
725.92	4103.4	
726.1	5184.8	
726.28	5519.3	
726.46	4581.3	
726.64	4302.1	
726.83	5498.1	
727.01	5720	
727.19	3765.5	
727.37	4654.4	
727.55	5629.2	
727.73	6116.6	
727.91	3784	
728.09	3628.3	
728.28	6210.8	
728.46	6761	
728.64	4739.7	
728.82	4767.7	
729	7207.5	
729.18	6521.4	
729.36	3926.6	
729.54	6283.9	
729.72	7561.1	
729.91	5764.3	
730.09	5930.2	
730.27	4628.4	
730.45	5614.8	
730.63	6257.2	
730.81	5236	
730.99	4198.3	
731.17	6794.5	
731.35	5366.4	
731.53	4806.6	
731.71	4361.5	
731.9	6608.1	
732.08	6834.1	
732.26	4718.5	
732.44	4256.4	
732.62	6748.7	
732.8	6273.6	
732.98	5106.3	
733.16	4105.5	
733.34	6281.1	
733.52	4987.5	
733.7	4627	
733.88	4977.9	
734.07	6120.7	
734.25	5853.8	
734.43	4085	
734.61	5711.1	
734.79	7361.1	
734.97	5764.3	
735.15	4287.8	
735.33	4675.5	
735.51	6128.2	
735.69	5751.4	
735.87	5786.2	
736.05	4877.6	
736.23	6025.1	
736.41	5734.3	
736.59	4599.1	
736.77	4767	
736.95	6397.9	
737.13	5855.1	
737.32	4349.2	
737.5	4478.2	
737.68	6987	
737.86	5768.4	
738.04	4116.4	
738.22	6092	
738.4	5514.5	
738.58	5796.4	
738.76	4758.8	
738.94	3671.3	
739.12	5628.5	
739.3	5502.2	
739.48	5365	
739.66	5125.4	
739.84	5997.1	
740.02	5979.4	
740.2	3829.7	
740.38	4255	
740.56	6339.1	
740.74	5162.9	
740.92	4965.6	
741.1	4808.6	
741.28	5780.1	
741.46	5679.7	
741.64	4361.5	
741.82	4926.7	
742	5816.9	
742.18	5796.4	
742.36	4667.3	
742.54	4184	
742.72	6454.5	
742.9	5088.5	
743.08	5077.6	
743.26	3827	
743.44	6621.1	
743.62	6469.5	
743.8	5226.4	
743.98	4188.8	
744.16	6158.9	
744.34	5877	
744.52	5156.8	
744.7	5100.8	
744.88	6356.2	
745.06	5831.2	
745.24	5208.7	
745.42	5371.1	
745.6	6488	
745.78	6144.6	
745.96	4007.2	
746.14	4287.8	
746.32	7137.2	
746.5	6484.6	
746.68	4911.7	
746.86	4358.1	
747.03	6851.8	
747.21	5164.3	
747.39	4918.5	
747.57	4367.6	
747.75	6053.1	
747.93	6436.1	
748.11	4338.3	
748.29	4296	
748.47	7643.7	
748.65	5707	
748.83	5033.9	
749.01	4821.6	
749.19	6265.4	
749.37	5360.9	
749.55	4632.5	
749.73	4734.9	
749.91	5912.5	
750.09	5664.7	
750.26	4760.8	
750.44	4119.8	
750.62	5929.6	
750.8	5900.2	
750.98	3994.9	
751.16	4404.5	
751.34	5937.1	
751.52	5317.2	
751.7	5176.6	
751.88	4001.7	
752.06	6522.8	
752.24	6232	
752.42	3890.5	
752.59	4339.6	
752.77	5851.7	
752.95	7091.4	
753.13	5121.3	
753.31	4445.5	
753.49	5532.2	
753.67	6024.4	
753.85	4801.1	
754.03	4293.9	
754.21	6287.3	
754.38	6668.2	
754.56	4544.4	
754.74	3574.4	
754.92	5632.6	
755.1	6320.7	
755.28	3721.2	
755.46	3725.3	
755.64	7163.1	
755.82	7335.1	
755.99	4121.9	
756.17	4235.9	
756.35	4788.8	
756.53	6427.9	
756.71	3095.8	
756.89	4060.4	
757.07	6063.4	
757.25	5083.7	
757.42	4636.6	
757.6	5531.6	
757.78	5986.2	
757.96	4924	
758.14	4292.5	
758.32	3737.5	
758.5	4474.1	
758.67	5760.9	
758.85	4054.3	
759.03	4175.1	
759.21	5611.4	
759.39	5026.4	
759.57	3636.5	
759.75	4843.4	
759.92	6272.2	
760.1	5464	
760.28	5173.9	
760.46	5385.5	
760.64	5206.6	
760.82	4907.6	
760.99	4801.8	
761.17	4204.5	
761.35	6009.4	
761.53	5012.1	
761.71	4268	
761.89	4969.7	
762.06	5896.8	
762.24	5418.9	
762.42	4261.1	
762.6	4051.6	
762.78	5355.4	
762.96	6037.4	
763.13	4672.8	
763.31	4391.5	
763.49	6229.9	
763.67	5352	
763.85	5198.4	
764.02	5787.6	
764.2	6513.2	
764.38	5610.8	
764.56	4212	
764.74	5117.9	
764.91	6677.1	
765.09	5412.1	
765.27	3926	
765.45	3708.9	
765.63	6656.6	
765.8	6529.6	
765.98	3458.3	
766.16	3782.6	
766.34	5053	
766.52	4814.8	
766.69	4807.9	
766.87	3661.1	
767.05	5517.9	
767.23	6334.4	
767.41	4011.3	
767.58	4222.2	
767.76	6092.7	
767.94	6231.3	
768.12	4103.4	
768.29	4941.1	
768.47	5601.2	
768.65	6291.4	
768.83	3742.3	
769	4975.9	
769.18	5158.2	
769.36	5849	
769.54	4861.2	
769.72	3727.3	
769.89	6181.5	
770.07	6294.1	
770.25	4057.7	
770.43	5483.8	
770.6	6992.4	
770.78	7406.8	
770.96	4369	
771.14	5010.7	
771.31	6047	
771.49	5402.5	
771.67	3468.6	
771.85	3788.7	
772.02	4627.7	
772.2	5444.9	
772.38	4531.5	
772.55	3953.9	
772.73	5724.1	
772.91	5538.4	
773.09	4440.7	
773.26	4481	
773.44	5692	
773.62	5386.2	
773.8	3895.9	
773.97	3581.2	
774.15	5832.6	
774.33	5337.7	
774.5	3784.6	
774.68	4145.8	
774.86	5964.4	
775.04	5430.5	
775.21	3886.4	
775.39	3834.5	
775.57	5707.7	
775.74	6168.5	
775.92	3790.8	
776.1	3620.8	
776.27	5726.1	
776.45	6967.2	
776.63	3886.4	
776.81	3408.5	
776.98	5327.4	
777.16	6480.5	
777.34	4075.5	
777.51	4082.3	
777.69	5240.8	
777.87	5048.2	
778.04	4063.2	
778.22	4741.7	
778.4	5172.5	
778.57	5821	
778.75	3411.2	
778.93	3669.3	
779.1	4928.8	
779.28	4762.9	
779.46	3420.1	
779.64	3898	
779.81	6036	
779.99	6917.4	
780.17	4780	
780.34	4884.4	
780.52	5494	
780.69	5595.1	
780.87	4245.4	
781.05	3793.5	
781.22	5529.5	
781.4	5523.4	
781.58	3903.4	
781.75	3087.7	
781.93	5561.6	
782.11	4977.2	
782.28	4949.3	
782.46	3977.2	
782.64	4769.7	
782.81	5750.7	
782.99	4065.9	
783.17	3992.2	
783.34	5685.8	
783.52	4868.7	
783.69	4246.8	
783.87	5028.4	
784.05	4894	
784.22	4980	
784.4	5098.1	
784.58	4317.1	
784.75	5907.7	
784.93	4986.1	
785.1	3898.6	
785.28	4649.6	
785.46	5647.6	
785.63	4913.1	
785.81	3993.5	
785.99	3819.5	
786.16	5096.7	
786.34	5530.2	
786.51	3857	
786.69	4334.2	
786.87	4742.4	
787.04	5283.1	
787.22	3630.4	
787.39	4716.5	
787.57	4982.7	
787.75	6130.3	
787.92	4971.8	
788.1	4883	
788.27	5001.1	
788.45	4798.4	
788.63	4572.4	
788.8	3219.4	
788.98	5539.1	
789.15	4709.6	
789.33	3371.6	
789.5	4061.1	
789.68	5886.5	
789.86	6090.7	
790.03	4479.6	
790.21	3902.7	
790.38	5857.9	
790.56	5127.4	
790.73	3756.7	
790.91	3807.9	
791.09	4970.4	
791.26	5829.9	
791.44	3972.4	
791.61	3444	
791.79	4957.4	
791.96	5028.4	
792.14	3545.7	
792.32	3134.8	
792.49	5066	
792.67	5089.9	
792.84	3600.3	
793.02	3426.3	
793.19	5436.7	
793.37	6193.1	
793.54	3145	
793.72	3504.1	
793.89	6339.8	
794.07	5001.1	
794.25	4217.5	
794.42	3156.6	
794.6	6054.5	
794.77	5714.5	
794.95	4388.8	
795.12	3769.6	
795.3	5027.8	
795.47	5692.7	
795.65	4263.2	
795.82	4052.9	
796	4823	
796.17	6774.7	
796.35	3949.8	
796.52	4672.8	
796.7	5569.1	
796.87	5701.5	
797.05	4894.6	
797.22	4791.6	
797.4	5602.6	
797.57	6720.1	
797.75	4057	
797.92	3820.8	
798.1	5982.8	
798.27	4998.4	
798.45	3266.5	
798.62	3519.8	
798.8	5372.5	
798.97	5863.3	
799.15	4344.4	
799.32	4100	
799.5	4613.4	
799.67	5432.6	
799.85	4419.5	
800.02	3211.2	
800.2	4941.7	
800.37	5345.9	
800.55	4601.1	
800.72	3898	
800.9	5808	
801.07	6369.2	
801.25	5242.1	
801.42	4253.6	
801.6	5907.7	
801.77	5593.7	
801.95	3917.8	
802.12	3734.8	
802.29	5589.6	
802.47	5514.5	
802.64	4162.8	
802.82	3133.4	
802.99	4932.9	
803.17	6021	
803.34	4077.5	
803.52	3652.2	
803.69	6709.1	
803.87	4778.6	
804.04	3989.4	
804.21	4161.5	
804.39	6117.3	
804.56	5213.4	
804.74	3454.2	
804.91	4207.9	
805.09	5020.9	
805.26	5152	
805.44	3459	
805.61	3892.5	
805.78	5655.1	
805.96	5730.2	
806.13	4226.3	
806.31	4537.6	
806.48	4530.8	
806.66	5067.4	
806.83	4212.7	
807	4078.2	
807.18	4994.3	
807.35	5404.6	
807.53	4093.2	
807.7	3268.6	
807.87	6148.7	
808.05	5046.9	
808.22	4540.3	
808.4	3287.7	
808.57	5091.3	
808.74	4746.5	
808.92	3713	
809.09	4768.4	
809.27	4930.8	
809.44	5584.1	
809.61	3276.8	
809.79	3693.2	
809.96	6187.6	
810.14	5832.6	
810.31	3168.9	
810.48	4006.5	
810.66	5189.6	
810.83	5896.1	
811.01	3766.9	
811.18	4237.2	
811.35	5765.7	
811.53	4504.2	
811.7	4573.1	
811.87	4329.4	
812.05	5085.8	
812.22	4976.6	
812.39	3642	
812.57	3553.9	
812.74	5023.7	
812.92	6911.2	
813.09	3934.8	
813.26	4308.9	
813.44	6535.8	
813.61	5046.9	
813.78	3311.6	
813.96	4485.1	
814.13	5084.4	
814.3	4775.2	
814.48	4842.1	
814.65	3924.6	
814.82	6336.4	
815	4851	
815.17	4061.1	
815.34	4972.5	
815.52	5022.3	
815.69	5057.8	
815.87	4101.4	
816.04	3491.1	
816.21	5110.4	
816.38	4476.9	
816.56	3900	
816.73	3625.6	
816.9	6454.5	
817.08	5837.4	
817.25	3635.8	
817.42	4666	
817.6	4648.2	
817.77	5063.9	
817.94	4136.9	
818.12	3633.8	
818.29	4857.8	
818.46	7648.5	
818.64	3861.8	
818.81	3590.1	
818.98	4715.1	
819.16	6941.9	
819.33	4370.4	
819.5	4017.4	
819.67	5489.2	
819.85	6124.8	
820.02	4001.7	
820.19	4241.3	
820.37	5340.4	
820.54	4851	
820.71	4173.1	
820.88	5147.2	
821.06	5279.7	
821.23	4861.9	
821.4	4162.2	
821.58	4088.4	
821.75	5853.1	
821.92	5192.3	
822.09	3324.5	
822.27	3418.7	
822.44	5089.2	
822.61	4984.1	
822.79	3315.7	
822.96	6466.8	
823.13	5636	
823.3	4787.5	
823.48	3867.9	
823.65	3478.8	
823.82	5782.1	
823.99	4652.3	
824.17	4899.4	
824.34	3555.3	
824.51	6643.6	
824.68	5119.2	
824.86	3695.9	
825.03	4147.1	
825.2	5076.9	
825.37	6173.3	
825.55	3632.4	
825.72	4154	
825.89	6821.1	
826.06	6260.6	
826.24	4040.6	
826.41	3988.8	
826.58	6199.2	
826.75	5388.2	
826.92	3127.9	
827.1	3452.2	
827.27	8517.5	
827.44	6744.6	
827.61	3853.6	
827.79	4648.9	
827.96	4838.7	
828.13	5238	
828.3	3949.8	
828.47	3364.8	
828.65	5289.9	
828.82	5290.6	
828.99	5117.2	
829.16	4481	
829.34	5731.6	
829.51	5465.3	
829.68	4092.5	
829.85	4232.5	
830.02	5925.5	
830.2	5728.9	
830.37	3117.7	
830.54	4990.2	
830.71	6553.5	
830.88	5028.4	
831.05	3161.4	
831.23	3728	
831.4	6220.4	
831.57	7023.2	
831.74	3785.3	
831.91	3341.6	
832.09	5281	
832.26	5705	
832.43	4024.3	
832.6	4464.6	
832.77	5356.1	
832.94	6103.6	
833.12	3072.6	
833.29	3866.6	
833.46	5478.3	
833.63	7283.9	
833.8	4313	
833.97	3962.1	
834.15	5696.8	
834.32	5459.2	
834.49	4066.6	
834.66	4178.5	
834.83	5920	
835	4800.4	
835.17	3766.9	
835.35	3864.5	
835.52	5570.5	
835.69	5494.7	
835.86	3974.4	
836.03	3290.4	
836.2	5623.7	
836.37	5281	
836.55	3953.9	
836.72	3693.9	
836.89	5247.6	
837.06	5695.4	
837.23	4034.5	
837.4	4449.6	
837.57	6500.9	
837.75	7262.8	
837.92	3650.2	
838.09	3786.7	
838.26	5250.3	
838.43	5967.1	
838.6	4098	
838.77	3692.5	
838.94	6903.7	
839.11	6610.8	
839.29	3911.6	
839.46	3046	
839.63	5669.5	
839.8	5374.6	
839.97	3816.7	
840.14	3842.7	
840.31	5404.6	
840.48	5685.8	
840.65	3205.8	
840.82	3741.6	
841	5698.1	
841.17	5642.8	
841.34	3571.7	
841.51	3583.9	
841.68	5512.4	
841.85	5372.5	
842.02	3659	
842.19	3016.7	
842.36	5378.6	
842.53	5450.3	
842.7	3489.7	
842.87	4274.8	
843.05	7243	
843.22	5362.9	
843.39	3327.9	
843.56	3644	
843.73	5121.3	
843.9	5713.2	
844.07	5703.6	
844.24	4740.4	
844.41	8444.5	
844.58	4922	
844.75	3398.9	
844.92	3726.6	
845.09	5709.1	
845.26	5674.2	
845.43	3509.5	
845.6	3724.6	
845.77	5728.2	
845.94	5404.6	
846.12	3854.3	
846.29	4143.7	
846.46	5877	
846.63	5668.1	
846.8	3488.4	
846.97	4139.6	
847.14	6098.2	
847.31	5594.4	
847.48	3947.8	
847.65	4323.3	
847.82	5997.1	
847.99	5917.3	
848.16	4771.1	
848.33	4359.4	
848.5	5276.3	
848.67	6141.9	
848.84	3465.8	
849.01	3614.7	
849.18	5076.2	
849.35	4752	
849.52	4420.9	
849.69	3452.2	
849.86	5861.3	
850.03	6114.6	
850.2	3518.4	
850.37	4330.1	
850.54	6045.6	
850.71	5400.5	
850.88	4182	
851.05	3421.5	
851.22	5582.1	
851.39	6251.1	
851.56	3328.6	
851.73	3984	
851.9	4954	
852.07	5975.3	
852.24	3949.8	
852.41	3415.3	
852.58	5527.5	
852.75	5084.4	
852.92	3907.5	
853.09	3442.6	
853.26	5244.8	
853.43	6072.9	
853.6	3448.1	
853.77	2985.3	
853.94	6256.5	
854.11	5651.7	
854.28	5210	
854.44	3787.4	
854.61	6692.8	
854.78	5782.8	
854.95	3406.5	
855.12	4403.1	
855.29	4562.2	
855.46	6380.8	
855.63	3478.8	
855.8	4886.5	
855.97	5251.7	
856.14	6047.7	
856.31	4958.8	
856.48	3790.8	
856.65	5249.6	
856.82	4922	
856.99	3307.5	
857.16	3766.9	
857.33	6926.2	
857.49	5343.8	
857.66	3767.6	
857.83	4077.5	
858	5251.7	
858.17	5457.2	
858.34	3317	
858.51	3491.1	
858.68	6391.7	
858.85	6454.5	
859.02	3990.1	
859.19	4298	
859.36	4936.3	
859.52	4979.3	
859.69	3514.3	
859.86	4136.2	
860.03	5080.3	
860.2	6171.2	
860.37	3188.7	
860.54	3508.9	
860.71	5907.7	
860.88	6334.4	
861.05	3984	
861.21	4429.8	
861.38	6342.6	
861.55	4861.2	
861.72	3158	
861.89	3885.7	
862.06	5982.1	
862.23	6469.5	
862.4	3368.9	
862.56	3683.6	
862.73	5812.8	
862.9	5456.5	
863.07	4130.8	
863.24	3138.2	
863.41	4895.3	
863.58	4975.2	
863.75	3571.7	
863.91	4010.6	
864.08	6283.9	
864.25	5836.7	
864.42	4363.5	
864.59	4973.2	
864.76	6614.9	
864.93	4953.4	
865.09	3400.3	
865.26	3739.6	
865.43	6171.9	
865.6	6584.9	
865.77	3056.3	
865.94	3444.7	
866.1	6227.2	
866.27	5897.5	
866.44	5315.8	
866.61	3282.2	
866.78	5387.5	
866.95	5849	
867.11	3396.2	
867.28	3050.1	
867.45	6007.4	
867.62	5024.3	
867.79	4108.2	
867.96	3423.5	
868.12	4960.2	
868.29	5963	
868.46	3452.2	
868.63	4697.4	
868.8	6135.7	
868.97	5866.7	
869.13	3727.3	
869.3	3604.4	
869.47	5851.7	
869.64	5997.1	
869.81	3504.8	
869.97	3519.1	
870.14	5590.3	
870.31	6363.7	
870.48	3422.8	
870.65	4380.6	
870.81	5253.7	
870.98	5282.4	
871.15	3973.7	
871.32	3695.2	
871.48	5724.1	
871.65	6382.8	
871.82	3472	
871.99	3885.7	
872.16	6860	
872.32	6238.8	
872.49	3489.7	
872.66	3552.5	
872.83	5915.9	
872.99	5147.9	
873.16	4007.9	
873.33	3491.8	
873.5	5482.4	
873.67	5569.1	
873.83	3676.1	
874	4698.7	
874.17	5684.5	
874.34	6705.7	
874.5	4567	
874.67	4351.9	
874.84	6386.2	
875.01	5012.1	
875.17	4946.5	
875.34	3432.4	
875.51	5663.3	
875.68	6815.6	
875.84	4143	
876.01	5174.5	
876.18	5892	
876.34	5808.7	
876.51	3534.8	
876.68	3396.9	
876.85	5362.9	
877.01	6217	
877.18	4965.6	
877.35	3452.2	
877.52	5512.4	
877.68	4875.5	
877.85	3433.1	
878.02	3425.6	
878.18	5430.5	
878.35	5119.2	
878.52	2788.7	
878.69	3956.7	
878.85	5866.7	
879.02	5827.2	
879.19	5005.2	
879.35	3760.1	
879.52	5865.4	
879.69	6047.7	
879.86	2992.8	
880.02	3902.1	
880.19	5419.6	
880.36	6640.2	
880.52	4033.1	
880.69	4129.4	
880.86	6033.3	
881.02	6010.1	
881.19	3829.7	
881.36	3789.4	
881.52	5874.9	
881.69	5193.6	
881.86	3833.1	
882.02	3715.7	
882.19	6153.5	
882.36	7203.4	
882.52	3589.4	
882.69	4948.6	
882.86	5674.2	
883.02	5512.4	
883.19	4246.8	
883.36	3966.2	
883.52	6029.2	
883.69	6868.9	
883.86	3486.3	
884.02	3170.3	
884.19	5890.6	
884.36	5464	
884.52	3920.5	
884.69	3685	
884.86	5196.4	
885.02	6592.4	
885.19	3898	
885.36	3990.8	
885.52	5499.5	
885.69	5597.8	
885.86	5078.3	
886.02	4489.1	
886.19	5976.7	
886.35	5424.4	
886.52	3898	
886.69	4812	
886.85	5031.2	
887.02	6312.5	
887.19	6312.5	
887.35	6312.5	
887.52	6312.5	
887.68	6312.5	
887.85	6312.5	
888.02	6312.5	
888.18	6312.5	
888.35	6312.5	
888.51	6312.5	
888.68	6312.5	
888.85	6312.5	
889.01	6312.5	
889.18	6312.5	
889.35	6312.5	
889.51	6312.5	
889.68	6312.5	
889.84	6312.5	
890.01	6312.5	
890.17	6312.5	
890.34	6312.5	
890.51	6312.5	
890.67	6312.5	
890.84	6312.5	
891	6312.5	
891.17	6312.5	
891.34	6312.5	
891.5	6312.5	
891.67	6312.5	
891.83	6312.5	
892	6312.5	
892.16	6312.5	
892.33	6312.5	
892.5	6312.5	
892.66	6312.5	
892.83	6312.5	
892.99	6312.5	
893.16	6312.5	
893.32	6312.5	
893.49	6312.5	
893.65	6312.5	
893.82	6312.5	
893.99	6312.5	
894.15	6312.5	
894.32	6312.5	
894.48	6312.5	
894.65	6312.5	
894.81	6312.5	
894.98	6312.5	
895.14	6312.5	
895.31	6312.5	
895.47	6312.5	
895.64	6312.5	
895.81	6312.5	
895.97	6312.5	
896.14	6312.5	
896.3	6312.5	
896.47	6312.5	
896.63	6312.5	
896.8	6312.5	
896.96	6312.5	
897.13	6312.5	
897.29	6312.5	
897.46	6312.5	
897.62	6312.5	
897.79	6312.5	
897.95	6312.5	
898.12	6312.5	
898.28	6312.5	
898.45	6312.5	
898.61	6312.5	
898.78	6312.5	
898.94	6312.5	
899.11	6312.5	
899.27	6312.5	
899.44	6312.5	
899.6	6312.5	
899.77	6312.5	
899.93	6312.5	
900.1	6312.5	
900.26	6312.5	
900.43	6312.5	
900.59	6312.5	
900.76	6312.5	
900.92	6312.5	
901.09	6312.5	
901.25	6312.5	
901.42	6312.5	
901.58	6312.5	
901.75	6312.5	
901.91	6312.5	
902.07	6312.5	
902.24	6312.5	
902.4	6312.5	
902.57	6312.5	
902.73	6312.5	
902.9	6312.5	
903.06	6312.5	
903.23	6312.5	
903.39	6312.5	
903.56	6312.5	
903.72	6312.5	
903.88	6312.5	
904.05	6312.5	
904.21	6312.5	
904.38	6312.5	
904.54	6312.5	
904.71	6312.5	
904.87	6312.5	
905.03	6312.5	
905.2	6312.5	
905.36	6312.5	
905.53	6312.5	
905.69	6312.5	
905.86	6312.5	
906.02	6312.5	
906.18	6312.5	
906.35	6312.5	
906.51	6312.5	
906.68	6312.5	
906.84	6312.5	
907.01	6312.5	
907.17	6312.5	
907.33	6312.5	
907.5	6312.5	
907.66	6312.5	
907.83	6312.5	
907.99	6312.5	
908.15	6312.5	
908.32	6312.5	
908.48	6312.5	
908.65	6312.5	
908.81	6312.5	
908.97	6312.5	
909.14	6312.5	
909.3	6312.5	
909.47	6312.5	
909.63	6312.5	
909.79	6312.5	
909.96	6312.5	
910.12	6312.5	
910.28	6312.5	
910.45	6312.5	
910.61	6312.5	
910.78	6312.5	
910.94	6312.5	
911.1	6312.5	
911.27	6312.5	
911.43	6312.5	
911.59	6312.5	
911.76	6312.5	
911.92	6312.5	
912.08	6312.5	
912.25	6312.5	
912.41	6312.5	
912.57	6312.5	
912.74	6312.5	
912.9	6312.5	
913.07	6312.5	
913.23	6312.5	
913.39	6312.5	
913.56	6312.5	
913.72	6312.5	
913.88	6312.5	
914.05	6312.5	
914.21	6312.5	
914.37	6312.5	
914.54	6312.5	
914.7	6312.5	
914.86	6312.5	
915.03	6312.5	
915.19	6312.5	
