Wavelength	Intensities	
nm	a.u.	
179.22	1886.7	
179.44	1901.5	
179.65	1871.8	
179.86	1931.2	
180.08	1905.3	
180.29	4857.1	
180.51	3472	
180.72	5631.2	
180.94	6569.2	
181.15	3204.4	
181.37	3198.9	
181.58	5490.6	
181.79	5816.2	
182.01	3373	
182.22	3644.7	
182.44	5758.9	
182.65	4798.4	
182.87	4545.8	
183.08	3997.6	
183.29	6064.7	
183.51	5017.5	
183.72	3654.9	
183.94	5344.5	
184.15	5360.2	
184.37	5449.6	
184.58	3237.8	
184.79	4379.9	
185.01	5020.3	
185.22	5683.8	
185.44	4702.8	
185.65	3934.8	
185.86	5291.3	
186.08	4878.9	
186.29	3146.4	
186.51	3340.2	
186.72	5014.8	
186.94	5897.5	
187.15	3951.9	
187.36	4077.5	
187.58	7709.2	
187.79	5505.6	
188.01	4134.8	
188.22	6484.6	
188.43	6631.3	
188.65	5670.1	
188.86	3327.3	
189.08	4010.6	
189.29	5171.8	
189.5	5224.4	
189.72	3711.6	
189.93	3761.4	
190.15	5920	
190.36	7157.7	
190.57	4141	
190.79	3961.5	
191	6107.7	
191.22	5969.8	
191.43	4088.4	
191.64	3347.7	
191.86	6314.6	
192.07	5996.5	
192.29	3537.5	
192.5	3687.7	
192.71	5930.9	
192.93	5147.2	
193.14	3702.7	
193.35	3730.7	
193.57	5172.5	
193.78	5945.3	
194	2977.7	
194.21	3646.7	
194.42	4891.9	
194.64	5442.1	
194.85	3948.5	
195.07	4730.1	
195.28	5403.9	
195.49	4657.8	
195.71	4991.6	
195.92	3458.3	
196.13	5591	
196.35	5696.1	
196.56	5367.7	
196.78	3971.7	
196.99	6978.8	
197.2	6532.3	
197.42	4586.8	
197.63	4083	
197.84	4813.4	
198.06	5628.5	
198.27	3715	
198.48	5038.7	
198.7	5149.3	
198.91	5266.7	
199.13	4051.6	
199.34	4094.6	
199.55	5828.5	
199.77	4680.3	
199.98	3562.8	
200.19	4159.4	
200.41	5223	
200.62	5037.3	
200.83	4242	
201.05	4517.8	
201.26	5247.6	
201.47	5044.1	
201.69	3614.7	
201.9	3446	
202.11	5415.5	
202.33	6414.9	
202.54	3854.3	
202.76	4250.2	
202.97	5541.1	
203.18	5508.4	
203.4	4244.1	
203.61	4114.4	
203.82	5499.5	
204.04	5046.2	
204.25	4094.6	
204.46	3964.9	
204.68	5451	
204.89	5666.7	
205.1	4029.7	
205.32	3416	
205.53	5805.3	
205.74	5956.2	
205.96	2910.2	
206.17	4117.8	
206.38	5776.6	
206.6	5909.1	
206.81	4648.2	
207.02	3781.9	
207.24	5657.2	
207.45	6071.5	
207.66	3882.9	
207.88	3300	
208.09	5624.4	
208.3	5423.7	
208.52	3536.2	
208.73	3964.2	
208.94	5409.4	
209.15	6135.7	
209.37	3852.2	
209.58	4065.9	
209.79	5937.7	
210.01	5183.4	
210.22	3080.8	
210.43	3200.3	
210.65	5424.4	
210.86	5853.1	
211.07	3846.1	
211.29	3554.6	
211.5	5765	
211.71	5380	
211.93	3536.2	
212.14	3559.4	
212.35	5298.1	
212.56	5528.8	
212.78	4076.8	
212.99	3358.7	
213.2	6324.8	
213.42	5141.8	
213.63	3635.8	
213.84	3938.2	
214.06	4778.6	
214.27	4863.2	
214.48	3854.3	
214.69	4119.8	
214.91	6140.5	
215.12	6170.5	
215.33	4186.7	
215.55	4577.9	
215.76	6580.8	
215.97	5826.5	
216.18	3984	
216.4	3895.2	
216.61	5060.5	
216.82	5872.2	
217.04	3560.1	
217.25	3741	
217.46	6045.6	
217.67	5801.2	
217.89	3144.3	
218.1	3333.4	
218.31	5439.4	
218.53	5618.9	
218.74	3785.3	
218.95	3652.2	
219.16	5333.6	
219.38	6346	
219.59	3581.9	
219.8	4303.5	
220.01	6972	
220.23	5442.8	
220.44	4764.3	
220.65	3566.9	
220.87	5479	
221.08	5982.1	
221.29	3273.3	
221.5	4429.8	
221.72	7382.9	
221.93	5084.4	
222.14	4122.6	
222.35	4868.7	
222.57	5465.3	
222.78	5762.3	
222.99	3893.2	
223.2	4178.5	
223.42	5763	
223.63	5829.9	
223.84	2998.2	
224.05	2975.7	
224.27	6930.3	
224.48	6242.2	
224.69	4786.1	
224.9	4119.8	
225.12	5657.9	
225.33	5399.8	
225.54	3220.1	
225.75	3644.7	
225.97	4999.8	
226.18	5199.8	
226.39	3891.1	
226.6	3606.5	
226.82	5151.3	
227.03	5003.9	
227.24	4007.9	
227.45	3330	
227.67	5779.4	
227.88	6371.9	
228.09	4564.9	
228.3	4523.3	
228.52	5775.3	
228.73	5373.2	
228.94	3745.7	
229.15	3338.2	
229.36	5319.9	
229.58	5232.6	
229.79	3854.3	
230	4435.2	
230.21	6449.1	
230.43	5529.5	
230.64	4044.1	
230.85	4209.3	
231.06	5830.6	
231.28	5842.9	
231.49	3294.5	
231.7	3966.2	
231.91	5718.6	
232.12	5440.8	
232.34	3411.2	
232.55	3973.7	
232.76	6120.7	
232.97	5584.1	
233.18	3594.2	
233.4	4055	
233.61	5653.1	
233.82	5110.4	
234.03	3714.3	
234.25	3661.8	
234.46	7505.1	
234.67	5455.1	
234.88	4174.4	
235.09	3672.7	
235.31	5684.5	
235.52	5309	
235.73	4024.9	
235.94	3411.9	
236.15	5158.8	
236.37	6512.5	
236.58	3594.9	
236.79	3898.6	
237	5764.3	
237.21	4944.5	
237.43	4160.8	
237.64	3265.1	
237.85	9844.6	
238.06	4923.3	
238.27	4241.3	
238.48	3391.4	
238.7	5727.5	
238.91	5285.8	
239.12	3852.2	
239.33	3919.1	
239.54	5138.4	
239.76	5366.4	
239.97	3827	
240.18	3889.1	
240.39	6743.3	
240.6	5672.2	
240.82	4065.2	
241.03	3318.4	
241.24	5402.5	
241.45	6303	
241.66	3532.1	
241.87	4177.2	
242.09	6132.3	
242.3	6473.6	
242.51	4187.4	
242.72	3875.4	
242.93	5867.4	
243.14	5316.5	
243.36	4515.1	
243.57	4883	
243.78	6293.4	
243.99	5756.2	
244.2	3898	
244.41	3546.4	
244.63	4995.7	
244.84	5672.9	
245.05	4194.9	
245.26	3891.8	
245.47	5680.4	
245.68	5947.3	
245.9	5193	
246.11	4102.1	
246.32	5229.8	
246.53	5647.6	
246.74	6412.2	
246.95	3290.4	
247.16	4933.6	
247.38	5427.8	
247.59	3312.2	
247.8	3920.5	
248.01	5044.1	
248.22	5319.3	
248.43	3560.1	
248.64	3826.3	
248.86	4776.5	
249.07	5199.1	
249.28	3437.2	
249.49	4048.2	
249.7	5978.7	
249.91	6125.5	
250.12	3243.3	
250.34	3305.4	
250.55	5585.5	
250.76	5393	
250.97	4008.6	
251.18	4051.6	
251.39	6153.5	
251.6	5552.7	
251.81	4121.9	
252.03	4104.1	
252.24	5195.7	
252.45	5932.3	
252.66	3362.8	
252.87	4322.6	
253.08	5453.7	
253.29	7154.9	
253.5	3401	
253.72	4739	
253.93	5244.8	
254.14	6386.9	
254.35	3693.2	
254.56	3800.3	
254.77	5630.5	
254.98	4992.9	
255.19	3640.6	
255.41	4730.8	
255.62	5559.6	
255.83	6105.7	
256.04	4188.8	
256.25	4088.4	
256.46	6700.3	
256.67	5090.6	
256.88	4018.1	
257.09	4443.4	
257.31	5109.7	
257.52	5126.7	
257.73	5014.1	
257.94	3699.3	
258.15	5271.5	
258.36	5424.4	
258.57	4648.2	
258.78	2966.8	
258.99	5859.2	
259.2	5201.2	
259.41	3711.6	
259.63	3781.9	
259.84	6278.4	
260.05	6707.8	
260.26	4884.4	
260.47	3577.8	
260.68	6019	
260.89	5292.6	
261.1	4453	
261.31	3561.4	
261.52	6047.7	
261.73	6339.8	
261.95	4810.7	
262.16	4214	
262.37	6087.2	
262.58	6158.9	
262.79	4780.6	
263	3758	
263.21	5399.8	
263.42	4965	
263.63	3817.4	
263.84	3696.6	
264.05	5971.9	
264.26	6376.7	
264.47	4625	
264.69	4198.3	
264.9	6134.3	
265.11	5631.2	
265.32	3586	
265.53	3651.5	
265.74	5596.4	
265.95	4838.7	
266.16	3973.1	
266.37	4375.1	
266.58	5521.3	
266.79	5231.2	
267	3648.1	
267.21	3446	
267.42	4960.2	
267.63	5341.8	
267.84	3857.7	
268.06	3389.4	
268.27	5825.8	
268.48	6115.9	
268.69	3816.7	
268.9	4491.2	
269.11	6104.3	
269.32	4908.3	
269.53	3895.9	
269.74	3630.4	
269.95	5773.9	
270.16	4759.5	
270.37	3866.6	
270.58	4541	
270.79	5224.4	
271	5956.9	
271.21	4192.9	
271.42	3963.5	
271.63	5533.6	
271.84	5059.2	
272.05	3061	
272.26	3450.1	
272.47	5443.5	
272.68	5616.9	
272.89	3695.9	
273.11	4323.3	
273.32	5209.3	
273.53	6373.3	
273.74	4246.1	
273.95	4121.9	
274.16	6048.3	
274.37	5519.3	
274.58	4250.9	
274.79	3364.1	
275	5556.1	
275.21	6125.5	
275.42	5106.3	
275.63	4429.1	
275.84	5681.7	
276.05	7156.3	
276.26	4106.2	
276.47	3891.8	
276.68	5270.1	
276.89	6449.1	
277.1	4394.3	
277.31	3431	
277.52	5681.7	
277.73	5823.7	
277.94	3390.1	
278.15	3700	
278.36	5595.7	
278.57	5100.8	
278.78	3685.7	
278.99	4230.4	
279.2	5014.1	
279.41	4986.1	
279.62	4899.4	
279.83	3434.4	
280.04	6598.6	
280.25	5016.8	
280.46	4832.5	
280.67	3857.7	
280.88	5032.5	
281.09	6092.7	
281.3	4109.6	
281.51	5153.4	
281.72	5949.3	
281.93	5967.1	
282.14	3579.2	
282.35	4024.3	
282.56	5940.5	
282.77	5913.9	
282.98	3803.1	
283.19	4676.2	
283.4	7292.8	
283.61	5338.4	
283.82	3450.8	
284.03	4788.2	
284.24	5520.6	
284.45	6063.4	
284.66	4827.1	
284.87	4644.8	
285.08	6045.6	
285.29	6096.8	
285.5	3300.6	
285.71	3807.2	
285.92	6029.2	
286.12	6679.1	
286.33	4839.4	
286.54	3814.7	
286.75	5919.3	
286.96	5299.5	
287.17	3485.6	
287.38	4706.2	
287.59	5058.5	
287.8	4982.7	
288.01	3822.2	
288.22	4448.2	
288.43	5724.1	
288.64	4974.5	
288.85	4553.3	
289.06	4339.6	
289.27	5794.4	
289.48	6381.5	
289.69	4849.6	
289.9	4418.2	
290.11	6096.1	
290.32	5137.7	
290.53	4562.2	
290.74	4207.9	
290.94	5912.5	
291.15	5941.2	
291.36	3661.8	
291.57	4385.4	
291.78	5185.5	
291.99	4860.5	
292.2	3497.2	
292.41	4220.9	
292.62	5988.9	
292.83	5766.4	
293.04	5302.2	
293.25	3536.8	
293.46	5207.3	
293.67	6079.1	
293.88	3652.9	
294.09	3485.6	
294.29	4990.9	
294.5	5583.4	
294.71	3891.1	
294.92	3747.1	
295.13	5214.1	
295.34	6559.6	
295.55	3284.3	
295.76	3397.6	
295.97	5844.9	
296.18	6592.4	
296.39	3446.7	
296.6	3652.9	
296.81	5507	
297.01	5845.6	
297.22	3746.4	
297.43	3650.8	
297.64	5103.5	
297.85	5051	
298.06	2979.1	
298.27	3323.2	
298.48	5517.2	
298.69	5133.6	
298.9	3906.2	
299.11	3596.2	
299.31	4928.1	
299.52	4976.6	
299.73	4276.8	
299.94	4113.7	
300.15	5382.1	
300.36	5068	
300.57	4205.2	
300.78	4182.6	
300.99	5341.8	
301.2	5511.8	
301.4	3631	
301.61	3988.1	
301.82	5732.9	
302.03	5851.7	
302.24	4481	
302.45	3480.2	
302.66	5771.2	
302.87	6203.3	
303.08	3651.5	
303.29	4975.2	
303.49	5177.3	
303.7	5432.6	
303.91	3267.9	
304.12	4711	
304.33	4952	
304.54	5571.8	
304.75	3670	
304.96	3523.2	
305.16	5800.5	
305.37	6457.2	
305.58	3204.4	
305.79	3302.7	
306	5722	
306.21	4855.7	
306.42	3642.7	
306.63	5599.8	
306.83	5302.2	
307.04	6050.4	
307.25	3981.3	
307.46	4005.8	
307.67	4613.4	
307.88	5857.9	
308.09	3618.1	
308.29	3769.6	
308.5	5487.9	
308.71	6059.9	
308.92	3877.5	
309.13	3519.8	
309.34	5281.7	
309.55	5365.7	
309.75	4554	
309.96	4175.8	
310.17	5902.2	
310.38	5107.6	
310.59	4384	
310.8	3426.3	
311.01	6032	
311.21	5333.6	
311.42	3521.1	
311.63	3639.9	
311.84	5175.9	
312.05	5557.5	
312.26	4062.5	
312.46	4517.1	
312.67	5320.6	
312.88	4981.3	
313.09	3510.2	
313.3	3487	
313.51	6205.3	
313.71	6623.8	
313.92	3549.8	
314.13	3710.2	
314.34	5620.3	
314.55	5346.6	
314.76	4548.5	
314.96	3975.8	
315.17	5527.5	
315.38	5884.5	
315.59	3535.5	
315.8	3367.5	
316.01	6308.4	
316.21	6319.3	
316.42	3416.7	
316.63	3948.5	
316.84	5338.4	
317.05	6134.3	
317.26	4222.2	
317.46	3760.8	
317.67	5352	
317.88	5837.4	
318.09	4506.2	
318.3	3282.2	
318.5	5155.4	
318.71	5765.7	
318.92	5740.5	
319.13	4178.5	
319.34	5901.6	
319.54	6092.7	
319.75	3295.9	
319.96	3159.3	
320.17	5813.5	
320.38	6019	
320.58	3207.8	
320.79	3900	
321	6040.1	
321.21	6072.2	
321.42	3928.7	
321.62	3211.9	
321.83	5010.7	
322.04	5470.1	
322.25	3750.5	
322.46	3493.2	
322.66	5483.1	
322.87	5652.4	
323.08	4416.1	
323.29	3462.4	
323.5	6471.6	
323.7	4972.5	
323.91	4894.6	
324.12	4370.4	
324.33	5476.3	
324.53	5801.9	
324.74	4179.9	
324.95	4401.1	
325.16	4788.8	
325.37	5242.8	
325.57	3572.3	
325.78	3633.8	
325.99	5530.9	
326.2	4991.6	
326.4	5034.6	
326.61	3291.1	
326.82	5431.9	
327.03	5511.8	
327.24	5008.6	
327.44	4764.3	
327.65	5754.8	
327.86	4603.2	
328.07	4166.9	
328.27	3425.6	
328.48	6163	
328.69	5029.8	
328.9	5084.4	
329.1	3789.4	
329.31	5302.9	
329.52	6255.2	
329.73	3562.1	
329.93	3994.9	
330.14	5426.4	
330.35	5703.6	
330.56	5864.7	
330.76	4440.7	
330.97	5267.4	
331.18	5713.8	
331.39	3915	
331.59	3246	
331.8	5985.5	
332.01	6221	
332.22	3647.4	
332.42	4192.9	
332.63	5568.4	
332.84	5145.9	
333.05	3984.7	
333.25	3615.3	
333.46	5191.6	
333.67	5470.1	
333.88	3709.6	
334.08	4143.7	
334.29	7261.4	
334.5	6143.2	
334.7	3414.6	
334.91	5039.4	
335.12	4987.5	
335.33	5871.5	
335.53	3891.1	
335.74	5836.7	
335.95	5218.9	
336.16	5016.2	
336.36	3902.7	
336.57	4574.5	
336.78	4963.6	
336.98	5973.9	
337.19	4778.6	
337.4	3862.5	
337.61	6604.7	
337.81	4956.1	
338.02	3590.1	
338.23	4651.6	
338.43	6171.9	
338.64	5068	
338.85	3575.1	
339.05	4704.2	
339.26	6286.6	
339.47	4846.9	
339.68	3544.4	
339.88	5287.9	
340.09	5678.3	
340.3	5896.8	
340.5	4186	
340.71	3228.3	
340.92	4922	
341.13	6206.7	
341.33	3462.4	
341.54	4196.3	
341.75	5702.9	
341.95	5311.7	
342.16	4050.2	
342.37	4400.4	
342.57	4978.6	
342.78	5403.9	
342.99	4389.5	
343.19	3192.1	
343.4	5874.9	
343.61	5724.8	
343.81	3747.8	
344.02	3444	
344.23	5872.2	
344.43	6299.6	
344.64	4405.9	
344.85	4340.3	
345.06	5739.8	
345.26	6018.3	
345.47	4083	
345.68	4804.5	
345.88	4804.5	
346.09	5885.2	
346.3	4204.5	
346.5	3172.3	
346.71	5461.9	
346.92	5150.6	
347.12	3251.5	
347.33	4097.3	
347.54	5999.2	
347.74	6374	
347.95	4093.9	
348.16	3054.2	
348.36	5256.5	
348.57	4978.6	
348.78	4059.1	
348.98	4376.5	
349.19	5358.9	
349.39	4866	
349.6	3254.9	
349.81	3655.6	
350.01	5639.4	
350.22	5175.9	
350.43	3908.9	
350.63	4764.9	
350.84	5472.2	
351.05	5231.2	
351.25	3603.1	
351.46	3212.6	
351.67	6012.8	
351.87	5109	
352.08	3852.9	
352.29	4377.2	
352.49	5864.7	
352.7	6004.6	
352.9	3465.8	
353.11	4335.5	
353.32	6582.2	
353.52	5290.6	
353.73	3407.1	
353.94	4372.4	
354.14	5804.6	
354.35	5571.8	
354.55	3491.1	
354.76	3953.9	
354.97	5698.1	
355.17	5537.7	
355.38	3320.4	
355.59	4670.7	
355.79	5081	
356	5541.1	
356.2	3891.8	
356.41	3379.1	
356.62	4869.4	
356.82	5359.5	
357.03	4179.2	
357.24	3790.1	
357.44	5167.7	
357.65	5285.8	
357.85	5021.6	
358.06	3926.6	
358.27	4815.5	
358.47	5157.5	
358.68	3272	
358.88	4182	
359.09	5697.4	
359.3	6066.1	
359.5	4831.2	
359.71	4319.8	
359.91	6539.2	
360.12	5920.7	
360.33	4164.9	
360.53	4646.2	
360.74	5047.6	
360.94	5158.2	
361.15	4320.5	
361.36	3600.3	
361.56	5997.1	
361.77	5320.6	
361.97	4894.6	
362.18	3782.6	
362.38	5969.8	
362.59	5059.8	
362.8	3607.2	
363	3400.3	
363.21	4797.7	
363.41	5507.7	
363.62	4060.4	
363.83	5124	
364.03	5517.9	
364.24	6576	
364.44	5169.8	
364.65	5203.9	
364.85	5337.7	
365.06	4929.5	
365.27	3671.3	
365.47	3755.3	
365.68	6382.8	
365.88	5339.7	
366.09	4147.8	
366.29	3801.7	
366.5	5599.8	
366.71	6072.9	
366.91	5142.4	
367.12	4335.5	
367.32	6567.2	
367.53	5840.8	
367.73	4240	
367.94	5178.6	
368.14	5805.3	
368.35	6652.5	
368.56	4252.3	
368.76	3738.2	
368.97	5888.6	
369.17	7593.2	
369.38	3680.2	
369.58	4045.4	
369.79	4943.8	
369.99	6292	
370.2	5026.4	
370.4	4121.2	
370.61	5629.9	
370.82	6811.5	
371.02	3991.5	
371.23	3287.7	
371.43	4845.5	
371.64	6186.2	
371.84	4032.5	
372.05	5227.8	
372.25	7580.2	
372.46	5940.5	
372.66	3994.9	
372.87	3914.4	
373.07	6003.3	
373.28	7606.2	
373.48	4998.4	
373.69	4748.6	
373.9	5477.6	
374.1	5497.4	
374.31	4975.2	
374.51	4513	
374.72	6358.9	
374.92	5113.8	
375.13	5189.6	
375.33	4373.8	
375.54	5909.8	
375.74	5301.5	
375.95	4407.2	
376.15	5651	
376.36	5906.3	
376.56	5754.8	
376.77	4452.3	
376.97	4896	
377.18	6918.7	
377.38	5909.8	
377.59	5281.7	
377.79	3941	
378	5825.1	
378.2	6204.7	
378.41	4036.5	
378.61	3984.7	
378.82	6195.8	
379.02	5343.2	
379.23	4184.7	
379.43	5322	
379.64	6331	
379.84	5942.5	
380.05	3976.5	
380.25	3910.9	
380.46	6084.5	
380.66	5610.1	
380.87	5373.9	
381.07	5704.3	
381.28	6723.5	
381.48	5984.8	
381.69	4030.4	
381.89	4093.2	
382.1	5010.7	
382.3	6249.7	
382.51	5170.4	
382.71	6108.4	
382.91	6073.6	
383.12	6576.7	
383.32	4458.4	
383.53	4650.9	
383.73	5916.6	
383.94	5726.8	
384.14	4526.7	
384.35	3666.5	
384.55	5708.4	
384.76	6076.3	
384.96	4385.4	
385.17	4732.9	
385.37	6139.1	
385.58	5356.1	
385.78	4769	
385.98	3635.1	
386.19	5510.4	
386.39	5945.3	
386.6	4218.8	
386.8	4435.9	
387.01	6055.2	
387.21	6118	
387.42	4891.9	
387.62	5451	
387.83	5351.3	
388.03	6077	
388.23	4502.1	
388.44	5324.7	
388.64	5192.3	
388.85	5156.1	
389.05	4828.4	
389.26	5477.6	
389.46	6869.6	
389.67	6491.4	
389.87	4824.3	
390.07	4886.5	
390.28	5780.1	
390.48	5286.5	
390.69	4135.5	
390.89	4339.6	
391.1	5524.1	
391.3	6438.1	
391.5	5665.4	
391.71	6249.7	
391.91	6223.1	
392.12	7252.5	
392.32	5742.5	
392.53	4980.7	
392.73	5564.3	
392.93	5821.7	
393.14	4571.7	
393.34	5420.3	
393.55	6260.6	
393.75	5786.9	
393.95	4536.9	
394.16	4457.7	
394.36	5526.1	
394.57	6210.8	
394.77	4002.4	
394.98	4453.6	
395.18	5477.6	
395.38	5631.2	
395.59	5408	
395.79	4229.7	
396	5590.3	
396.2	6189	
396.4	5154.1	
396.61	5083.7	
396.81	6363.7	
397.02	5607.3	
397.22	5386.8	
397.42	5489.9	
397.63	6305.7	
397.83	5494.7	
398.04	4298.7	
398.24	4809.3	
398.44	6101.6	
398.65	5152	
398.85	4138.9	
399.05	4255	
399.26	5488.6	
399.46	7232.7	
399.67	4658.4	
399.87	4381.3	
400.07	5893.4	
400.28	6292	
400.48	4478.9	
400.69	5617.6	
400.89	6583.5	
401.09	6984.3	
401.3	4334.2	
401.5	5545.9	
401.7	7260.7	
401.91	7374.7	
402.11	4762.2	
402.32	4959.5	
402.52	6620.4	
402.72	6485.2	
402.93	5147.2	
403.13	3922.5	
403.33	7284.6	
403.54	5905	
403.74	4810.7	
403.94	5726.8	
404.15	6049.7	
404.35	7212.3	
404.56	4570.4	
404.76	6463.4	
404.96	6559	
405.17	6283.2	
405.37	6125.5	
405.57	5205.3	
405.78	6567.8	
405.98	6025.1	
406.18	4676.2	
406.39	5623.7	
406.59	6518.7	
406.79	6191	
407	4433.2	
407.2	4562.2	
407.4	6543.9	
407.61	6744	
407.81	4571.7	
408.01	6674.3	
408.22	5608	
408.42	7565.2	
408.62	5710.4	
408.83	5175.2	
409.03	6276.3	
409.23	6075.6	
409.44	5367.7	
409.64	5646.9	
409.84	7236.2	
410.05	7143.3	
410.25	5489.9	
410.45	5219.6	
410.66	6609.5	
410.86	9088.2	
411.06	5759.6	
411.27	5655.8	
411.47	8932.6	
411.67	6922.1	
411.88	5847	
412.08	6194.4	
412.28	7434.1	
412.49	8102.4	
412.69	5656.5	
412.89	5727.5	
413.09	7804.8	
413.3	7734.5	
413.5	5795.1	
413.7	5339.7	
413.91	6966.5	
414.11	7824.6	
414.31	5700.9	
414.52	6096.8	
414.72	7557.7	
414.92	7496.2	
415.12	5697.4	
415.33	6219.7	
415.53	7782.3	
415.73	8043.7	
415.94	6563.7	
416.14	6027.9	
416.34	6910.5	
416.55	6563.7	
416.75	7240.3	
416.95	6625.2	
417.15	7862.2	
417.36	8614.4	
417.56	7490.8	
417.76	6537.8	
417.97	8344.1	
418.17	8011	
418.37	6064	
418.57	6167.1	
418.78	7731.8	
418.98	7348.1	
419.18	7027.9	
419.38	6893.5	
419.59	7446.4	
419.79	7026.6	
419.99	5977.3	
420.2	6408.1	
420.4	7889.5	
420.6	8090.2	
420.8	5926.8	
421.01	5819.6	
421.21	7736.5	
421.41	7970.7	
421.61	6346	
421.82	6046.3	
422.02	7309.2	
422.22	8322.9	
422.42	6855.9	
422.63	6467.5	
422.83	7468.9	
423.03	8647.9	
423.23	6466.8	
423.44	5446.9	
423.64	7523.6	
423.84	7177.4	
424.04	5970.5	
424.25	5606.7	
424.45	8466.3	
424.65	8322.3	
424.85	5381.4	
425.06	6023.8	
425.26	8428.8	
425.46	6887.3	
425.66	6525.5	
425.87	6152.8	
426.07	8140.7	
426.27	8021.2	
426.47	6244.9	
426.67	5608	
426.88	8490.2	
427.08	7993.9	
427.28	6613.6	
427.48	5578.7	
427.69	6859.3	
427.89	7505.8	
428.09	6518.7	
428.29	5691.3	
428.5	8251.3	
428.7	7656.7	
428.9	5601.2	
429.1	6113.9	
429.3	7636.2	
429.51	8118.1	
429.71	5891.3	
429.91	6752.8	
430.11	7985	
430.31	8224	
430.52	6185.5	
430.72	6599.2	
430.92	8622.6	
431.12	8114.1	
431.32	5964.4	
431.53	6384.2	
431.73	6984.3	
431.93	8680	
432.13	5872.9	
432.33	5748	
432.54	7401.4	
432.74	7862.8	
432.94	5704.3	
433.14	6783.6	
433.34	8064.9	
433.55	7591.8	
433.75	6698.2	
433.95	8591.2	
434.15	7848.5	
434.35	7549.5	
434.56	5881.1	
434.76	5489.9	
434.96	7793.2	
435.16	8133.2	
435.36	5834	
435.56	7056.6	
435.77	7544.7	
435.97	7710.6	
436.17	7722.9	
436.37	6985.6	
436.57	7529	
436.78	7506.5	
436.98	8777.6	
437.18	7573.4	
437.38	8301.8	
437.58	7851.2	
437.78	7787.7	
437.99	6246.3	
438.19	8271.7	
438.39	9493.7	
438.59	6171.2	
438.79	5709.1	
438.99	8855.4	
439.2	7786.4	
439.4	5829.2	
439.6	5815.5	
439.8	8073.1	
440	9183.8	
440.2	7024.5	
440.4	7167.2	
440.61	8570.1	
440.81	9072.5	
441.01	6266.8	
441.21	7178.8	
441.41	8979	
441.61	8609	
441.81	7451.2	
442.02	8587.8	
442.22	9471.2	
442.42	8740.7	
442.62	6343.2	
442.82	6315.9	
443.02	8973.5	
443.22	8086.1	
443.43	6830.7	
443.63	6340.5	
443.83	7839.6	
444.03	7998.7	
444.23	7708.6	
444.43	7225.2	
444.63	8359.8	
444.83	9561.3	
445.04	6506.4	
445.24	7900.4	
445.44	8723	
445.64	8852.7	
445.84	7298.3	
446.04	7376.8	
446.24	8041	
446.44	9084.1	
446.65	6350.1	
446.85	6819.7	
447.05	8299.1	
447.25	9039.7	
447.45	6911.9	
447.65	6235.4	
447.85	8383	
448.05	7996	
448.25	7397.3	
448.46	7165.2	
448.66	8338	
448.86	8048.5	
449.06	6219.7	
449.26	7432.8	
449.46	8772.8	
449.66	7782.3	
449.86	6964.5	
450.06	6951.5	
450.26	8039.6	
450.47	8601.5	
450.67	7098.9	
450.87	7628	
451.07	8637	
451.27	8548.9	
451.47	6466.8	
451.67	7130.3	
451.87	8221.2	
452.07	9306.7	
452.27	6854.6	
452.47	6767.2	
452.67	8477.2	
452.88	9039.1	
453.08	6058.6	
453.28	8276.5	
453.48	9774.3	
453.68	8437.6	
453.88	6730.3	
454.08	6980.2	
454.28	8862.2	
454.48	8577.6	
454.68	7492.2	
454.88	7977.5	
455.08	9055.4	
455.28	8869.8	
455.48	6610.2	
455.68	7326.3	
455.89	9628.2	
456.09	9288.2	
456.29	7034.1	
456.49	7176.1	
456.69	9522.4	
456.89	8645.8	
457.09	7674.4	
457.29	8087.4	
457.49	9118.2	
457.69	9337.4	
457.89	7567.9	
458.09	6992.4	
458.29	8866.3	
458.49	9710.1	
458.69	8045.1	
458.89	7503.1	
459.09	10038	
459.29	10094	
459.49	7494.2	
459.69	8307.2	
459.9	9579.7	
460.1	9045.9	
460.3	7402	
460.5	7225.2	
460.7	9469.1	
460.9	9255.5	
461.1	6934.4	
461.3	8277.2	
461.5	10172	
461.7	9781.1	
461.9	7542	
462.1	7978.2	
462.3	9412.5	
462.5	10100	
462.7	7531.1	
462.9	7750.9	
463.1	11069	
463.3	10793	
463.5	7875.8	
463.7	9035.6	
463.9	9677.3	
464.1	10049	
464.3	8171.4	
464.5	8355.7	
464.7	10415	
464.9	10109	
465.1	9977.7	
465.3	8804.9	
465.5	10716	
465.7	10772	
465.9	9103.9	
466.1	8800.8	
466.3	10642	
466.5	10428	
466.7	9965.4	
466.9	8738	
467.1	10485	
467.3	11449	
467.5	9962.7	
467.7	8680.7	
467.9	11601	
468.1	12637	
468.3	9575.6	
468.5	10030	
468.7	10529	
468.9	10560	
469.1	9105.3	
469.3	9876	
469.5	12511	
469.7	10107	
469.9	9422.7	
470.1	8957.8	
470.3	10546	
470.5	10585	
470.7	10148	
470.9	8899.8	
471.1	10339	
471.3	10697	
471.5	8722.3	
471.69	10746	
471.89	10245	
472.09	9734	
472.29	9583.1	
472.49	9895.8	
472.69	10009	
472.89	10805	
473.09	8727.8	
473.29	8768.7	
473.49	10032	
473.69	10218	
473.89	9755.2	
474.09	8889.5	
474.29	11602	
474.49	11202	
474.69	9794.8	
474.89	9095.7	
475.09	10336	
475.29	10299	
475.49	8548.9	
475.69	8740.7	
475.88	11802	
476.08	10590	
476.28	8434.9	
476.48	8854.7	
476.68	11074	
476.88	10834	
477.08	8642.4	
477.28	9041.8	
477.48	10264	
477.68	10912	
477.88	8584.4	
478.08	8902.5	
478.28	11290	
478.48	10548	
478.67	8958.5	
478.87	8297.7	
479.07	11247	
479.27	10516	
479.47	9127.1	
479.67	9203.6	
479.87	11009	
480.07	11597	
480.27	8453.3	
480.47	10045	
480.67	10608	
480.87	11340	
481.06	8721.6	
481.26	9678.7	
481.46	10619	
481.66	10587	
481.86	9151	
482.06	10303	
482.26	10271	
482.46	11400	
482.66	9201.5	
482.86	8837.7	
483.05	10763	
483.25	10067	
483.45	11716	
483.65	9194.7	
483.85	10352	
484.05	10666	
484.25	9667.1	
484.45	10172	
484.65	11622	
484.84	11706	
485.04	9148.3	
485.24	9202.2	
485.44	11948	
485.64	10225	
485.84	8594	
486.04	10025	
486.24	10613	
486.44	11043	
486.63	8523	
486.83	9387.2	
487.03	10542	
487.23	10813	
487.43	8810.4	
487.63	11200	
487.83	10882	
488.02	11872	
488.22	9866.4	
488.42	10418	
488.62	11839	
488.82	10813	
489.02	9426.8	
489.22	9489.6	
489.41	11602	
489.61	11302	
489.81	9182.4	
490.01	9312.1	
490.21	11677	
490.41	12362	
490.61	9218.6	
490.8	9327.1	
491	11184	
491.2	10352	
491.4	9905.3	
491.6	8959.2	
491.8	11033	
491.99	11199	
492.19	8683.4	
492.39	9130.5	
492.59	11546	
492.79	11778	
492.99	10128	
493.18	9237	
493.38	11806	
493.58	12783	
493.78	10284	
493.98	9693	
494.18	11707	
494.37	11283	
494.57	10486	
494.77	10473	
494.97	12084	
495.17	12481	
495.37	10061	
495.56	10446	
495.76	12666	
495.96	12306	
496.16	11447	
496.36	10342	
496.55	12459	
496.75	12271	
496.95	10758	
497.15	10712	
497.35	12448	
497.54	12566	
497.74	10454	
497.94	12243	
498.14	13314	
498.34	13193	
498.53	10014	
498.73	11027	
498.93	12052	
499.13	12611	
499.33	10834	
499.52	11417	
499.72	12771	
499.92	12962	
500.12	10673	
500.32	10839	
500.51	12945	
500.71	12831	
500.91	11797	
501.11	11353	
501.31	12799	
501.5	13342	
501.7	11874	
501.9	10960	
502.1	12666	
502.29	13075	
502.49	11458	
502.69	11868	
502.89	12922	
503.09	12785	
503.28	10295	
503.48	10401	
503.68	11910	
503.88	12060	
504.07	11422	
504.27	10879	
504.47	12528	
504.67	12475	
504.86	11363	
505.06	11065	
505.26	12050	
505.46	13930	
505.65	10823	
505.85	11082	
506.05	11840	
506.25	12355	
506.44	10061	
506.64	10938	
506.84	11756	
507.04	12745	
507.23	10314	
507.43	10837	
507.63	13741	
507.83	12084	
508.02	10892	
508.22	10606	
508.42	14205	
508.62	11836	
508.81	10804	
509.01	11355	
509.21	11646	
509.4	11946	
509.6	10954	
509.8	10473	
510	11912	
510.19	13439	
510.39	10321	
510.59	10428	
510.79	11884	
510.98	13228	
511.18	10566	
511.38	10750	
511.57	12690	
511.77	12508	
511.97	11275	
512.17	10210	
512.36	12698	
512.56	12521	
512.76	10320	
512.95	9960.6	
513.15	12742	
513.35	11327	
513.55	11196	
513.74	10365	
513.94	12684	
514.14	12039	
514.33	11335	
514.53	11211	
514.73	12122	
514.92	12308	
515.12	10564	
515.32	10323	
515.51	12400	
515.71	12942	
515.91	12152	
516.11	10547	
516.3	14204	
516.5	12017	
516.7	11186	
516.89	11776	
517.09	12192	
517.29	12071	
517.48	11559	
517.68	10746	
517.88	11964	
518.07	12646	
518.27	11256	
518.47	10334	
518.66	13122	
518.86	11749	
519.06	10204	
519.25	10642	
519.45	12072	
519.65	13662	
519.84	11417	
520.04	12103	
520.24	14031	
520.43	12757	
520.63	11039	
520.83	10843	
521.02	11897	
521.22	12626	
521.42	11206	
521.61	11794	
521.81	12062	
522.01	12264	
522.2	11139	
522.4	10861	
522.6	12897	
522.79	11751	
522.99	11067	
523.18	10393	
523.38	12686	
523.58	12792	
523.77	12443	
523.97	10551	
524.17	14698	
524.36	13906	
524.56	12014	
524.76	11677	
524.95	13038	
525.15	12618	
525.34	11591	
525.54	11415	
525.74	13463	
525.93	12592	
526.13	12856	
526.33	11624	
526.52	13859	
526.72	13397	
526.91	12954	
527.11	12182	
527.31	14057	
527.5	14522	
527.7	12207	
527.89	11291	
528.09	12945	
528.29	13650	
528.48	12640	
528.68	12295	
528.87	13867	
529.07	13968	
529.27	12201	
529.46	11587	
529.66	13589	
529.85	14250	
530.05	11551	
530.25	12260	
530.44	15102	
530.64	13553	
530.83	11913	
531.03	12249	
531.23	14034	
531.42	13830	
531.62	13029	
531.81	12228	
532.01	14409	
532.21	14834	
532.4	12306	
532.6	12600	
532.79	15334	
532.99	14723	
533.18	12722	
533.38	13700	
533.58	14143	
533.77	14988	
533.97	12922	
534.16	13624	
534.36	15317	
534.55	14380	
534.75	13988	
534.95	12985	
535.14	15186	
535.34	14218	
535.53	12559	
535.73	14587	
535.92	15632	
536.12	14378	
536.31	12511	
536.51	13694	
536.71	14619	
536.9	14187	
537.1	12667	
537.29	12979	
537.49	15128	
537.68	14148	
537.88	13333	
538.07	12475	
538.27	14504	
538.46	15544	
538.66	12431	
538.86	13022	
539.05	14548	
539.25	14861	
539.44	13359	
539.64	12726	
539.83	14306	
540.03	15443	
540.22	12532	
540.42	12799	
540.61	14449	
540.81	14677	
541	13105	
541.2	13720	
541.39	14046	
541.59	14453	
541.78	13610	
541.98	12543	
542.18	13662	
542.37	13625	
542.57	12856	
542.76	13355	
542.96	13646	
543.15	14406	
543.35	12846	
543.54	12136	
543.74	14435	
543.93	14114	
544.13	12673	
544.32	13803	
544.52	14421	
544.71	13568	
544.91	11803	
545.1	12939	
545.3	13637	
545.49	14369	
545.69	11745	
545.88	12323	
546.08	15350	
546.27	14861	
546.47	12810	
546.66	12015	
546.86	14504	
547.05	15154	
547.24	12333	
547.44	12265	
547.63	13357	
547.83	14685	
548.02	12542	
548.22	12765	
548.41	13270	
548.61	14561	
548.8	12058	
549	11933	
549.19	13910	
549.39	14213	
549.58	11727	
549.78	12284	
549.97	14197	
550.17	13674	
550.36	13007	
550.55	14270	
550.75	13547	
550.94	14556	
551.14	11685	
551.33	12110	
551.53	12962	
551.72	13968	
551.92	12284	
552.11	11957	
552.31	13904	
552.5	14023	
552.69	13697	
552.89	11517	
553.08	13945	
553.28	13601	
553.47	11976	
553.67	13142	
553.86	14560	
554.06	12750	
554.25	11058	
554.44	11727	
554.64	15334	
554.83	14786	
555.03	11635	
555.22	12116	
555.42	14033	
555.61	13680	
555.8	11817	
556	12151	
556.19	12878	
556.39	14208	
556.58	11938	
556.78	11807	
556.97	13552	
557.16	13293	
557.36	13191	
557.55	11699	
557.75	12410	
557.94	14367	
558.13	11602	
558.33	11286	
558.52	14108	
558.72	12930	
558.91	11432	
559.1	11635	
559.3	12778	
559.49	12295	
559.69	10978	
559.88	11936	
560.07	13499	
560.27	14014	
560.46	12176	
560.66	12349	
560.85	13310	
561.04	12372	
561.24	11310	
561.43	11521	
561.63	12695	
561.82	12982	
562.01	12813	
562.21	11926	
562.4	13379	
562.59	14577	
562.79	11718	
562.98	11482	
563.18	13412	
563.37	15016	
563.56	12286	
563.76	11390	
563.95	12899	
564.14	12770	
564.34	11873	
564.53	11570	
564.73	13517	
564.92	13792	
565.11	12040	
565.31	11450	
565.5	13964	
565.69	12984	
565.89	11696	
566.08	11935	
566.27	13937	
566.47	14474	
566.66	12669	
566.85	11388	
567.05	13664	
567.24	13052	
567.44	11652	
567.63	13064	
567.82	13823	
568.02	13527	
568.21	11535	
568.4	12017	
568.6	13512	
568.79	13493	
568.98	11387	
569.18	11749	
569.37	13450	
569.56	15570	
569.76	12039	
569.95	13156	
570.14	14005	
570.34	13892	
570.53	11643	
570.72	11557	
570.91	14419	
571.11	13446	
571.3	12149	
571.49	12989	
571.69	13519	
571.88	13189	
572.07	12769	
572.27	12607	
572.46	13152	
572.65	14149	
572.85	11927	
573.04	12321	
573.23	14489	
573.43	13751	
573.62	11772	
573.81	12282	
574	13839	
574.2	13793	
574.39	12273	
574.58	12370	
574.78	14878	
574.97	14098	
575.16	12871	
575.36	12977	
575.55	14474	
575.74	14724	
575.93	11937	
576.13	13013	
576.32	13797	
576.51	14415	
576.71	12263	
576.9	13801	
577.09	14713	
577.28	14311	
577.48	12697	
577.67	11796	
577.86	13930	
578.05	14343	
578.25	12647	
578.44	12667	
578.63	14118	
578.83	15451	
579.02	11937	
579.21	13622	
579.4	14300	
579.6	14004	
579.79	12745	
579.98	15077	
580.17	14730	
580.37	14799	
580.56	12066	
580.75	13029	
580.94	15300	
581.14	15130	
581.33	13571	
581.52	12331	
581.71	14603	
581.91	15234	
582.1	12192	
582.29	12640	
582.48	14369	
582.68	14173	
582.87	13192	
583.06	12833	
583.25	14537	
583.45	13935	
583.64	13543	
583.83	14406	
584.02	14063	
584.21	14599	
584.41	13386	
584.6	12826	
584.79	14379	
584.98	15152	
585.18	12194	
585.37	12340	
585.56	13788	
585.75	14714	
585.94	12408	
586.14	13147	
586.33	15110	
586.52	14131	
586.71	12795	
586.91	12553	
587.1	13401	
587.29	14681	
587.48	12341	
587.67	12269	
587.87	14283	
588.06	14437	
588.25	13540	
588.44	12847	
588.63	13782	
588.83	14497	
589.02	12183	
589.21	12006	
589.4	13521	
589.59	13257	
589.78	11080	
589.98	11241	
590.17	12693	
590.36	13250	
590.55	10409	
590.74	11166	
590.94	14310	
591.13	12850	
591.32	11033	
591.51	10552	
591.7	13622	
591.89	13006	
592.09	10707	
592.28	11318	
592.47	12203	
592.66	14129	
592.85	10857	
593.05	11116	
593.24	12855	
593.43	13661	
593.62	11160	
593.81	11644	
594	12991	
594.19	13109	
594.39	11057	
594.58	11009	
594.77	13122	
594.96	13889	
595.15	10842	
595.34	11519	
595.54	13209	
595.73	12228	
595.92	10259	
596.11	11252	
596.3	13700	
596.49	12323	
596.68	11197	
596.88	11561	
597.07	13343	
597.26	12181	
597.45	10578	
597.64	12019	
597.83	12361	
598.02	12985	
598.22	10712	
598.41	11451	
598.6	12805	
598.79	12293	
598.98	10712	
599.17	11645	
599.36	12826	
599.55	13999	
599.74	12833	
599.94	12677	
600.13	13370	
600.32	12091	
600.51	10533	
600.7	10642	
600.89	13906	
601.08	13961	
601.27	10279	
601.47	11353	
601.66	13147	
601.85	13976	
602.04	11011	
602.23	11233	
602.42	12289	
602.61	12944	
602.8	10770	
602.99	10696	
603.18	12505	
603.37	12669	
603.57	11392	
603.76	11901	
603.95	13555	
604.14	13141	
604.33	10803	
604.52	11182	
604.71	12828	
604.9	12370	
605.09	11740	
605.28	11533	
605.47	13423	
605.66	13015	
605.86	11430	
606.05	10675	
606.24	13252	
606.43	11940	
606.62	11092	
606.81	11796	
607	13067	
607.19	12585	
607.38	10440	
607.57	10755	
607.76	12277	
607.95	11673	
608.14	11054	
608.33	11723	
608.52	12198	
608.72	13240	
608.91	10344	
609.1	10206	
609.29	12280	
609.48	11710	
609.67	11225	
609.86	10215	
610.05	11826	
610.24	12185	
610.43	10047	
610.62	9775	
610.81	13319	
611	12970	
611.19	10189	
611.38	10964	
611.57	12443	
611.76	13839	
611.95	9959.3	
612.14	9797.5	
612.33	12367	
612.52	11798	
612.71	10507	
612.9	9671.9	
613.09	11329	
613.28	13670	
613.47	10305	
613.66	11252	
613.85	12383	
614.04	11828	
614.24	10309	
614.43	9585.9	
614.62	12536	
614.81	12388	
615	10825	
615.19	11088	
615.38	11684	
615.57	12138	
615.76	10815	
615.95	11878	
616.14	12488	
616.33	12205	
616.52	11172	
616.71	11342	
616.9	12407	
617.09	12301	
617.28	10484	
617.47	11738	
617.66	11521	
617.85	11626	
618.04	11484	
618.22	11054	
618.41	12060	
618.6	13082	
618.79	10984	
618.98	10661	
619.17	13280	
619.36	11684	
619.55	10935	
619.74	10849	
619.93	12693	
620.12	12156	
620.31	11402	
620.5	11556	
620.69	13340	
620.88	13725	
621.07	12310	
621.26	11447	
621.45	13030	
621.64	12989	
621.83	11611	
622.02	10792	
622.21	13002	
622.4	12852	
622.59	12194	
622.78	11889	
622.97	12316	
623.16	13482	
623.35	11496	
623.54	10679	
623.72	12637	
623.91	12895	
624.1	11854	
624.29	10499	
624.48	14019	
624.67	13175	
624.86	11774	
625.05	10743	
625.24	14102	
625.43	12276	
625.62	13461	
625.81	10957	
626	13429	
626.19	12689	
626.38	11915	
626.56	11228	
626.75	12572	
626.94	13379	
627.13	11763	
627.32	10442	
627.51	13155	
627.7	14488	
627.89	10615	
628.08	11757	
628.27	12308	
628.46	12579	
628.65	10864	
628.83	10481	
629.02	13146	
629.21	12352	
629.4	11324	
629.59	11496	
629.78	12336	
629.97	13302	
630.16	11546	
630.35	11010	
630.54	13847	
630.72	13458	
630.91	11006	
631.1	11528	
631.29	12883	
631.48	13196	
631.67	11659	
631.86	11064	
632.05	12517	
632.24	12674	
632.42	10789	
632.61	11409	
632.8	12575	
632.99	12355	
633.18	11510	
633.37	11796	
633.56	12891	
633.75	12738	
633.93	11409	
634.12	11014	
634.31	13628	
634.5	13307	
634.69	11069	
634.88	11490	
635.07	12583	
635.25	13166	
635.44	11824	
635.63	12014	
635.82	12348	
636.01	11893	
636.2	11927	
636.39	11389	
636.57	13597	
636.76	13231	
636.95	10784	
637.14	12170	
637.33	12908	
637.52	13905	
637.7	10542	
637.89	11546	
638.08	12453	
638.27	13969	
638.46	11510	
638.65	11941	
638.83	13814	
639.02	12140	
639.21	11424	
639.4	11849	
639.59	12626	
639.78	12170	
639.96	10585	
640.15	10622	
640.34	12470	
640.53	12612	
640.72	10325	
640.91	10629	
641.09	11802	
641.28	13031	
641.47	10447	
641.66	11607	
641.85	12458	
642.03	12567	
642.22	11088	
642.41	10749	
642.6	11684	
642.79	11301	
642.97	10222	
643.16	11042	
643.35	11712	
643.54	11478	
643.73	10273	
643.91	10991	
644.1	11280	
644.29	12026	
644.48	10258	
644.67	10250	
644.85	11454	
645.04	11686	
645.23	9604.3	
645.42	10006	
645.6	11151	
645.79	12324	
645.98	9949	
646.17	8792.6	
646.36	10817	
646.54	11301	
646.73	10497	
646.92	9290.3	
647.11	10927	
647.29	12000	
647.48	9443.2	
647.67	9183.8	
647.86	12187	
648.05	12282	
648.23	9724.4	
648.42	11076	
648.61	11548	
648.8	11197	
648.98	9213.1	
649.17	9605.7	
649.36	10889	
649.55	10427	
649.73	9326.4	
649.92	10175	
650.11	10826	
650.3	11118	
650.48	9443.9	
650.67	9232.9	
650.86	11312	
651.05	10189	
651.23	9408.4	
651.42	9308.7	
651.61	10682	
651.79	10879	
651.98	9546.3	
652.17	9185.1	
652.36	11149	
652.54	10287	
652.73	9162.6	
652.92	8944.8	
653.11	11115	
653.29	11181	
653.48	8505.9	
653.67	9364.7	
653.85	10896	
654.04	11944	
654.23	9500.5	
654.42	9006.3	
654.6	10167	
654.79	10897	
654.98	8272.4	
655.16	8822	
655.35	9549	
655.54	9534.7	
655.73	8280.6	
655.91	8221.9	
656.1	10770	
656.29	9570.8	
656.47	7817.8	
656.66	9686.2	
656.85	9989.3	
657.03	10051	
657.22	8624	
657.41	8687.5	
657.59	10092	
657.78	10063	
657.97	8254.7	
658.16	9084.1	
658.34	10772	
658.53	11177	
658.72	10012	
658.9	10503	
659.09	10196	
659.28	10342	
659.46	8818.6	
659.65	8640.4	
659.84	10003	
660.02	10548	
660.21	8617.2	
660.4	8555.7	
660.58	11064	
660.77	10374	
660.96	9183.8	
661.14	8214.4	
661.33	11530	
661.52	11338	
661.7	8155.7	
661.89	11920	
662.08	9792	
662.26	9562	
662.45	8431.5	
662.64	8519.6	
662.82	10629	
663.01	9949	
663.2	8583.7	
663.38	9321.7	
663.57	10437	
663.75	10335	
663.94	8715.5	
664.13	10171	
664.31	9923.1	
664.5	10621	
664.69	9205.6	
664.87	9652.1	
665.06	9612.5	
665.25	10387	
665.43	9940.2	
665.62	10005	
665.8	10624	
665.99	9934	
666.18	8800.8	
666.36	8951.7	
666.55	10595	
666.74	10479	
666.92	8361.9	
667.11	10136	
667.29	9815.2	
667.48	10561	
667.67	9774.3	
667.85	8680.7	
668.04	9994.1	
668.22	10047	
668.41	8832.9	
668.6	8996.7	
668.78	9729.9	
668.97	10037	
669.15	9155.8	
669.34	8069.7	
669.53	9760.6	
669.71	10092	
669.9	8278.6	
670.08	8970.8	
670.27	9723.1	
670.46	10290	
670.64	9208.4	
670.83	9415.9	
671.01	9628.2	
671.2	10267	
671.38	8368.7	
671.57	8278.6	
671.76	10833	
671.94	11456	
672.13	8217.1	
672.31	9181.7	
672.5	10519	
672.69	9768.8	
672.87	8326.4	
673.06	8645.8	
673.24	10324	
673.43	9781.8	
673.61	8979	
673.8	8610.3	
673.98	10405	
674.17	10624	
674.36	9263	
674.54	9131.9	
674.73	10149	
674.91	10461	
675.1	8787.2	
675.28	8413.1	
675.47	9981.1	
675.65	10514	
675.84	8641.7	
676.03	8966	
676.21	9689.6	
676.4	9256.1	
676.58	9448.6	
676.77	9198.8	
676.95	11120	
677.14	9721	
677.32	8256	
677.51	8055.3	
677.69	10500	
677.88	9370.8	
678.06	8138.6	
678.25	8260.8	
678.44	10005	
678.62	9590.6	
678.81	7893.6	
678.99	8956.5	
679.18	10793	
679.36	10355	
679.55	8591.2	
679.73	9202.9	
679.92	10364	
680.1	9820	
680.29	9869.8	
680.47	8591.9	
680.66	9600.9	
680.84	10531	
681.03	7892.2	
681.21	9033.6	
681.4	9762.7	
681.58	9583.8	
681.77	8260.1	
681.95	8151.6	
682.14	10565	
682.32	10821	
682.51	9118.9	
682.69	7970.7	
682.88	9527.8	
683.06	10238	
683.25	8884.1	
683.43	9368.8	
683.62	9814.5	
683.8	10243	
683.99	9450.7	
684.17	8646.5	
684.36	11020	
684.54	9674.6	
684.73	7788.4	
684.91	7855.3	
685.1	9837.8	
685.28	9167.4	
685.46	8186.4	
685.65	8302.5	
685.83	9871.9	
686.02	9280	
686.2	7713.3	
686.39	7944.1	
686.57	9204.3	
686.76	10751	
686.94	7935.9	
687.13	8038.3	
687.31	9820.7	
687.5	9471.9	
687.68	7544.7	
687.86	8729.8	
688.05	11209	
688.23	8916.2	
688.42	8845.2	
688.6	8043.7	
688.79	9418.6	
688.97	9388.6	
689.16	8578.3	
689.34	7419.1	
689.52	10152	
689.71	10386	
689.89	8856.1	
690.08	8011	
690.26	9631.6	
690.45	9542.9	
690.63	8944.8	
690.81	8306.6	
691	9327.8	
691.18	9355.8	
691.37	8271.1	
691.55	10514	
691.74	9210.4	
691.92	11368	
692.1	8292.2	
692.29	7755	
692.47	9426.1	
692.66	8716.8	
692.84	7922.9	
693.02	8446.5	
693.21	8929.1	
693.39	9473.9	
693.58	8688.2	
693.76	8071	
693.94	10694	
694.13	10505	
694.31	7946.1	
694.5	9250.7	
694.68	9456.8	
694.86	9709.4	
695.05	8542.1	
695.23	8643.1	
695.42	10260	
695.6	12527	
695.78	9209	
695.97	8283.4	
696.15	10293	
696.34	9520.3	
696.52	8060.8	
696.7	8792.6	
696.89	9856.9	
697.07	9296.4	
697.25	8634.2	
697.44	10299	
697.62	9833	
697.81	10260	
697.99	8436.9	
698.17	8873.8	
698.36	8990.6	
698.54	9838.4	
698.72	8542.8	
698.91	7659.4	
699.09	9431.6	
699.28	9242.5	
699.46	8398.7	
699.64	8208.3	
699.83	9177.6	
700.01	10491	
700.19	9030.9	
700.38	7482.6	
700.56	10430	
700.74	9372.2	
700.93	7855.3	
701.11	8766.7	
701.29	9910.1	
701.48	11084	
701.66	8109.3	
701.84	8221.9	
702.03	9508	
702.21	10232	
702.39	7658.7	
702.58	8367.3	
702.76	9818	
702.94	10071	
703.13	7823.9	
703.31	10198	
703.49	9228.8	
703.68	10310	
703.86	7957	
704.04	8914.8	
704.23	9757.9	
704.41	10173	
704.59	8067.6	
704.78	9269.1	
704.96	10913	
705.14	10116	
705.33	7804.1	
705.51	8682	
705.69	9545.6	
705.87	10453	
706.06	9010.4	
706.24	7876.5	
706.42	9869.8	
706.61	10156	
706.79	9008.3	
706.97	7808.2	
707.16	9286.9	
707.34	9848	
707.52	8886.1	
707.7	8112.7	
707.89	9537.4	
708.07	9160.6	
708.25	8974.9	
708.44	9205.6	
708.62	9372.9	
708.8	10577	
708.98	9222	
709.17	8135.9	
709.35	9770.9	
709.53	9747	
709.72	7692.9	
709.9	8295.6	
710.08	10023	
710.26	9960	
710.45	9379	
710.63	8101.8	
710.81	9655.5	
710.99	9645.9	
711.18	8748.2	
711.36	8118.1	
711.54	9491.7	
711.72	10139	
711.91	8212.4	
712.09	7630	
712.27	9462.3	
712.45	10667	
712.64	8363.2	
712.82	7326.9	
713	8822	
713.18	8999.5	
713.37	7337.2	
713.55	8632.2	
713.73	9799.5	
713.91	8217.8	
714.1	7647.8	
714.28	7007.5	
714.46	9116.2	
714.64	8295	
714.83	6278.4	
715.01	7089.4	
715.19	8218.5	
715.37	7553.6	
715.55	6604.7	
715.74	6908.5	
715.92	9150.3	
716.1	7008.8	
716.28	7996.6	
716.47	7071.6	
716.65	7700.4	
716.83	7819.8	
717.01	6871.6	
717.19	6982.2	
717.38	9995.5	
717.56	7490.8	
717.74	7126.2	
717.92	6315.3	
718.1	8858.1	
718.29	8041.7	
718.47	6021.7	
718.65	6788.3	
718.83	8860.2	
719.01	8875.2	
719.2	6059.9	
719.38	7232.7	
719.56	8615.1	
719.74	10249	
719.92	6676.4	
720.11	7782.3	
720.29	8449.2	
720.47	7605.5	
720.65	6207.4	
720.83	7069.6	
721.02	7761.1	
721.2	7510.6	
721.38	6936.5	
721.56	6230.6	
721.74	7113.3	
721.92	7267.6	
722.11	7524.2	
722.29	7167.9	
722.47	8477.2	
722.65	7687.4	
722.83	6250.4	
723.01	7174	
723.2	7722.9	
723.38	8057.4	
723.56	5689.3	
723.74	6853.2	
723.92	7303.1	
724.1	8488.8	
724.29	6127.5	
724.47	7357	
724.65	7303.1	
724.83	7253.2	
725.01	6037.4	
725.19	6885.3	
725.37	7294.2	
725.56	7329.7	
725.74	5859.2	
725.92	6155.5	
726.1	7236.2	
726.28	7524.2	
726.46	6505.7	
726.64	6233.3	
726.83	7443	
727.01	7746.8	
727.19	5846.3	
727.37	6728.9	
727.55	7649.8	
727.73	8161.8	
727.91	5795.8	
728.09	5640.8	
728.28	8170	
728.46	8704.5	
728.64	6907.8	
728.82	6825.9	
729	9361.9	
729.18	8503.8	
729.36	6034	
729.54	8397.4	
729.72	9698.5	
729.91	7869	
730.09	8159.8	
730.27	6847	
730.45	7891.5	
730.63	8430.1	
730.81	7477.8	
730.99	6488.6	
731.17	9096.4	
731.35	7621.2	
731.53	7080.5	
731.71	6598.6	
731.9	8712.1	
732.08	8951.7	
732.26	6858.6	
732.44	6491.4	
732.62	8972.2	
732.8	8381.7	
732.98	7208.2	
733.16	6221.7	
733.34	8441	
733.52	7187.7	
733.7	6858	
733.88	7112.6	
734.07	8269.7	
734.25	8034.2	
734.43	6269.5	
734.61	7931.1	
734.79	9538.8	
734.97	7873.8	
735.15	6406.7	
735.33	6632	
735.51	8145.5	
735.69	7950.2	
735.87	7856	
736.05	6899.6	
736.23	7961.8	
736.41	7791.8	
736.59	6759.7	
736.77	6819.1	
736.95	8514.1	
737.13	7983.7	
737.32	6376	
737.5	6701.6	
737.68	9086.2	
737.86	7778.9	
738.04	6146.6	
738.22	8115.4	
738.4	7576.1	
738.58	7927	
738.76	6769.2	
738.94	5699.5	
739.12	7644.4	
739.3	7638.9	
739.48	7458	
739.66	7189.7	
739.84	7959.8	
740.02	8019.2	
740.2	5806	
740.38	6182.1	
740.56	8386.4	
740.74	7219.1	
740.92	6885.3	
741.1	6791.7	
741.28	7778.2	
741.46	7665.5	
741.64	6367.1	
741.82	6916.7	
742	7742	
742.18	7729.7	
742.36	6541.2	
742.54	6124.8	
742.72	8322.3	
742.9	7001.3	
743.08	7019.1	
743.26	5752.1	
743.44	8569.4	
743.62	8325	
743.8	7119.4	
743.98	6182.1	
744.16	8080.6	
744.34	7756.3	
744.52	6924.2	
744.7	6856.6	
744.88	8133.2	
745.06	7591.8	
745.24	6952.2	
745.42	7049.8	
745.6	8187.8	
745.78	7946.1	
745.96	5666.7	
746.14	6090.7	
746.32	8966.7	
746.5	8309.3	
746.68	6531	
746.86	6007.4	
747.03	8693.6	
747.21	6748.1	
747.39	6542.6	
747.57	6077.7	
747.75	7745.4	
747.93	8135.2	
748.11	6001.2	
748.29	5901.6	
748.47	9430.9	
748.65	7391.8	
748.83	6734.4	
749.01	6587	
749.19	7904.5	
749.37	7012.2	
749.55	6300.2	
749.73	6425.2	
749.91	7531.1	
750.09	7245.7	
750.26	6437.4	
750.44	5885.2	
750.62	7599.3	
750.8	7503.8	
750.98	5705	
751.16	6032.6	
751.34	7606.2	
751.52	6910.5	
751.7	6790.4	
751.88	5600.5	
752.06	8146.8	
752.24	7955.7	
752.42	5528.8	
752.59	5941.2	
752.77	7509.2	
752.95	8804.2	
753.13	6696.2	
753.31	6077	
753.49	7223.2	
753.67	7569.3	
753.85	6423.8	
754.03	5941.2	
754.21	7839.6	
754.38	8200.7	
754.56	6025.1	
754.74	4977.2	
754.92	6945.3	
755.1	7714.7	
755.28	4982.7	
755.46	4853.7	
755.64	8168	
755.82	8260.8	
755.99	4913.8	
756.17	4948.6	
756.35	5423	
756.53	7002.7	
756.71	3697.3	
756.89	4696.7	
757.07	6559.6	
757.25	5671.5	
757.42	5335	
757.6	6244.9	
757.78	6887.3	
757.96	5900.2	
758.14	5150.6	
758.32	4597.7	
758.5	5316.5	
758.67	6191	
758.85	4861.9	
759.03	5013.4	
759.21	6335	
759.39	5828.5	
759.57	4472.1	
759.75	5667.4	
759.92	7052.5	
760.1	6286.6	
760.28	6099.5	
760.46	6363	
760.64	6105	
760.82	5846.3	
760.99	5949.3	
761.17	5090.6	
761.35	7021.8	
761.53	5945.3	
761.71	5314.5	
761.89	6022.4	
762.06	7046.4	
762.24	6409.5	
762.42	5408	
762.6	5173.2	
762.78	6490.7	
762.96	7172.7	
763.13	5840.8	
763.31	5565	
763.49	7435.5	
763.67	6437.4	
763.85	6389	
764.02	6934.4	
764.2	7647.8	
764.38	6802	
764.56	5348.6	
764.74	6290	
764.91	7765.9	
765.09	6569.9	
765.27	5064.6	
765.45	4835.9	
765.63	7741.3	
765.8	7571.3	
765.98	4493.9	
766.16	4814.1	
766.34	6085.9	
766.52	5900.9	
766.69	5826.5	
766.87	4665.3	
767.05	6467.5	
767.23	7202	
767.41	5010.7	
767.58	5244.8	
767.76	7027.9	
767.94	7126.9	
768.12	5009.3	
768.29	5769.8	
768.47	6492.7	
768.65	7256	
768.83	4603.8	
769	5792.3	
769.18	6029.9	
769.36	6831.3	
769.54	5779.4	
769.72	4628.4	
769.89	7052.5	
770.07	7122.2	
770.25	4925.4	
770.43	6277.7	
770.6	7789.1	
770.78	8253.3	
770.96	5178.6	
771.14	4896	
771.31	6882.5	
771.49	6193.7	
771.67	4268	
771.85	4469.4	
772.02	5314.5	
772.2	6211.5	
772.38	5315.2	
772.55	4685.1	
772.73	6460	
772.91	6229.2	
773.09	5057.1	
773.26	5115.1	
773.44	6380.1	
773.62	5947.3	
773.8	4543.1	
773.97	4283.7	
774.15	6400.6	
774.33	5982.1	
774.5	4437.9	
774.68	4816.1	
774.86	6615.6	
775.04	5988.3	
775.21	4493.9	
775.39	4453	
775.57	6267.5	
775.74	6760.3	
775.92	4259.8	
776.1	4180.6	
776.27	6222.4	
776.45	7460.8	
776.63	4476.2	
776.81	3907.5	
776.98	5859.2	
777.16	6941.9	
777.34	4605.2	
777.51	4858.5	
777.69	5823.7	
777.87	5558.9	
778.04	4553.3	
778.22	5209.3	
778.4	5626.5	
778.57	6295.5	
778.75	3833.1	
778.93	4099.4	
779.1	5401.2	
779.28	5188.9	
779.46	3761.4	
779.64	4351.9	
779.81	6390.3	
779.99	7367.9	
780.17	5238	
780.34	5242.1	
780.52	5885.2	
780.69	6017.6	
780.87	4670.1	
781.05	4183.3	
781.22	5882.4	
781.4	5928.9	
781.58	4297.3	
781.75	3403.7	
781.93	5930.2	
782.11	5222.3	
782.28	5200.5	
782.46	4244.8	
782.64	5109	
782.81	6056.5	
782.99	4385.4	
783.17	4352.6	
783.34	5982.1	
783.52	5083.7	
783.69	4549.9	
783.87	5349.3	
784.05	5240.8	
784.22	5261.9	
784.4	5384.8	
784.58	4646.8	
784.75	6153.5	
784.93	5243.5	
785.1	4317.8	
785.28	4908.3	
785.46	5972.6	
785.63	5248.3	
785.81	4250.9	
785.99	4080.9	
786.16	5367.7	
786.34	5757.5	
786.51	4132.8	
786.69	4501.4	
786.87	4930.8	
787.04	5496.7	
787.22	3986	
787.39	4943.8	
787.57	5193	
787.75	6301.6	
787.92	5077.6	
788.1	5024.3	
788.27	5217.5	
788.45	4941.1	
788.63	4809.3	
788.8	3442.6	
788.98	5576.6	
789.15	4865.3	
789.33	3534.8	
789.5	4259.8	
789.68	6106.4	
789.86	6229.9	
790.03	4699.4	
790.21	4060.4	
790.38	6129.6	
790.56	5264	
790.73	3913.7	
790.91	3972.4	
791.09	5235.3	
791.26	5950.7	
791.44	4200.4	
791.61	3628.3	
791.79	5113.1	
791.96	5242.1	
792.14	3743.7	
792.32	3294.5	
792.49	5208.7	
792.67	5261.2	
792.84	3794.9	
793.02	3566.2	
793.19	5612.8	
793.37	6325.5	
793.54	3267.9	
793.72	3660.4	
793.89	6573.3	
794.07	5167.7	
794.25	4354.7	
794.42	3414	
794.6	6219.7	
794.77	5866.7	
794.95	4618.2	
795.12	3945.1	
795.3	5134.9	
795.47	5808.7	
795.65	4328	
795.82	4207.9	
796	4915.1	
796.17	6938.5	
796.35	4098	
796.52	4792.2	
796.7	5724.8	
796.87	5778.7	
797.05	5053.7	
797.22	4938.3	
797.4	5807.4	
797.57	6788.3	
797.75	4177.9	
797.92	3968.3	
798.1	6050.4	
798.27	5165.7	
798.45	3396.9	
798.62	3607.8	
798.8	5431.9	
798.97	5939.8	
799.15	4465.9	
799.32	4212	
799.5	4687.8	
799.67	5547.3	
799.85	4560.1	
800.02	3291.1	
800.2	5120.6	
800.37	5439.4	
800.55	4814.1	
800.72	3936.9	
800.9	5892.7	
801.07	6376.7	
801.25	5307.7	
801.42	4396.3	
801.6	5963	
801.77	5608	
801.95	4036.5	
802.12	3842.7	
802.29	5655.8	
802.47	5638.7	
802.64	4293.9	
802.82	3268.6	
802.99	5083.7	
803.17	6130.3	
803.34	4164.2	
803.52	3749.1	
803.69	6832.7	
803.87	4902.2	
804.04	4151.2	
804.21	4287.8	
804.39	6163	
804.56	5262.6	
804.74	3564.8	
804.91	4351.3	
805.09	5100.1	
805.26	5261.9	
805.44	3590.1	
805.61	3940.3	
805.78	5801.9	
805.96	5880.4	
806.13	4320.5	
806.31	4644.8	
806.48	4649.6	
806.66	5218.9	
806.83	4328	
807	4236.6	
807.18	5046.2	
807.35	5490.6	
807.53	4167.6	
807.7	3346.4	
807.87	6329.6	
808.05	5123.3	
808.22	4641.4	
808.4	3318.4	
808.57	5128.8	
808.74	4757.4	
808.92	3814.7	
809.09	4818.2	
809.27	4985.4	
809.44	5643.5	
809.61	3399.6	
809.79	3768.9	
809.96	6318	
810.14	5916.6	
810.31	3315	
810.48	4044.1	
810.66	5231.9	
810.83	5969.8	
811.01	3831.1	
811.18	4281.6	
811.35	5828.5	
811.53	4541.7	
811.7	4699.4	
811.87	4378.6	
812.05	5130.8	
812.22	5058.5	
812.39	3707.5	
812.57	3575.1	
812.74	5150	
812.92	6879.8	
813.09	4075.5	
813.26	4410.6	
813.44	6640.9	
813.61	5076.9	
813.78	3390.1	
813.96	4506.9	
814.13	5142.4	
814.3	4780	
814.48	4841.4	
814.65	4003.8	
814.82	6335	
815	4924	
815.17	4102.8	
815.34	5051	
815.52	5042.1	
815.69	5074.9	
815.87	4132.1	
816.04	3543.7	
816.21	5122	
816.38	4545.1	
816.56	3986	
816.73	3672.7	
816.9	6481.1	
817.08	5935	
817.25	3781.2	
817.42	4730.8	
817.6	4636.6	
817.77	5073.5	
817.94	4165.6	
818.12	3599	
818.29	4851.6	
818.46	7688.1	
818.64	3833.8	
818.81	3605.8	
818.98	4773.1	
819.16	7000.6	
819.33	4430.4	
819.5	4162.8	
819.67	5477.6	
819.85	6109.1	
820.02	3992.2	
820.19	4323.9	
820.37	5348.6	
820.54	4909.7	
820.71	4220.9	
820.88	5192.3	
821.06	5409.4	
821.23	4917.2	
821.4	4247.5	
821.58	4171	
821.75	5909.1	
821.92	5271.5	
822.09	3390.1	
822.27	3425.6	
822.44	5165.7	
822.61	4994.3	
822.79	3426.9	
822.96	6473.6	
823.13	5647.6	
823.3	4854.4	
823.48	3939.6	
823.65	3550.5	
823.82	5894.1	
823.99	4657.8	
824.17	5002.5	
824.34	3596.2	
824.51	6750.8	
824.68	5211.4	
824.86	3776.5	
825.03	4191.5	
825.2	5170.4	
825.37	6235.4	
825.55	3697.9	
825.72	4103.4	
825.89	6802	
826.06	6311.2	
826.24	4016.7	
826.41	4034.5	
826.58	6254.5	
826.75	5432.6	
826.92	3097.9	
827.1	3509.5	
827.27	8550.3	
827.44	6776.7	
827.61	3854.3	
827.79	4642.1	
827.96	4871.4	
828.13	5272.2	
828.3	4050.9	
828.47	3394.8	
828.65	5369.1	
828.82	5326.8	
828.99	5155.4	
829.16	4529.4	
829.34	5772.5	
829.51	5547.3	
829.68	4134.2	
829.85	4288.4	
830.02	6078.4	
830.2	5772.5	
830.37	3198.9	
830.54	5014.1	
830.71	6571.2	
830.88	5072.1	
831.05	3260.4	
831.23	3765.5	
831.4	6260	
831.57	7098.9	
831.74	3885	
831.91	3395.5	
832.09	5371.8	
832.26	5717.9	
832.43	3989.4	
832.6	4473.4	
832.77	5388.2	
832.94	6140.5	
833.12	3129.3	
833.29	3919.1	
833.46	5546.6	
833.63	7335.8	
833.8	4268	
833.97	3968.3	
834.15	5760.3	
834.32	5580	
834.49	4152.6	
834.66	4236.6	
834.83	5999.9	
835	4849.6	
835.17	3776.5	
835.35	3851.5	
835.52	5667.4	
835.69	5594.4	
835.86	4042	
836.03	3306.8	
836.2	5714.5	
836.37	5369.8	
836.55	4007.2	
836.72	3722.5	
836.89	5266	
837.06	5809.4	
837.23	4061.8	
837.4	4450.9	
837.57	6650.4	
837.75	7244.3	
837.92	3623.5	
838.09	3876.8	
838.26	5298.8	
838.43	6038.8	
838.6	4151.2	
838.77	3719.8	
838.94	6880.5	
839.11	6588.3	
839.29	3972.4	
839.46	3153.9	
839.63	5674.9	
839.8	5443.5	
839.97	3796.9	
840.14	3836.5	
840.31	5495.4	
840.48	5720	
840.65	3246	
840.82	3915	
841	5689.9	
841.17	5692	
841.34	3575.1	
841.51	3651.5	
841.68	5586.9	
841.85	5365	
842.02	3695.9	
842.19	3048.7	
842.36	5506.3	
842.53	5394.3	
842.7	3602.4	
842.87	4390.8	
843.05	7283.3	
843.22	5433.9	
843.39	3317.7	
843.56	3674.1	
843.73	5186.1	
843.9	5745.2	
844.07	5762.3	
844.24	4831.8	
844.41	8527.7	
844.58	4940.4	
844.75	3399.6	
844.92	3691.8	
845.09	5685.2	
845.26	5700.2	
845.43	3520.5	
845.6	3721.8	
845.77	5692.7	
845.94	5446.9	
846.12	3905.5	
846.29	4134.2	
846.46	5908.4	
846.63	5754.1	
846.8	3485	
846.97	4198.3	
847.14	6219	
847.31	5682.4	
847.48	4046.8	
847.65	4393.6	
847.82	6016.9	
847.99	5981.4	
848.16	4770.4	
848.33	4360.8	
848.5	5268.7	
848.67	6221	
848.84	3519.8	
849.01	3666.5	
849.18	5088.5	
849.35	4831.8	
849.52	4414.1	
849.69	3504.8	
849.86	5911.8	
850.03	6201.2	
850.2	3547.8	
850.37	4326	
850.54	6080.4	
850.71	5358.2	
850.88	4336.2	
851.05	3449.5	
851.22	5556.8	
851.39	6286.6	
851.56	3363.4	
851.73	4080.2	
851.9	4980	
852.07	5954.1	
852.24	3904.1	
852.41	3472.7	
852.58	5573.9	
852.75	5074.9	
852.92	4009.2	
853.09	3411.2	
853.26	5284.4	
853.43	6176.7	
853.6	3482.2	
853.77	2964.1	
853.94	6306.4	
854.11	5617.6	
854.28	5227.1	
854.44	3794.2	
854.61	6685.3	
854.78	5980.8	
854.95	3500	
855.12	4464.6	
855.29	4564.2	
855.46	6331	
855.63	3519.1	
855.8	4883.7	
855.97	5242.1	
856.14	6042.2	
856.31	5083.1	
856.48	3855	
856.65	5254.4	
856.82	4973.8	
856.99	3364.8	
857.16	3756	
857.33	6910.5	
857.49	5390.9	
857.66	3807.2	
857.83	4035.2	
858	5352.7	
858.17	5528.2	
858.34	3345.7	
858.51	3503.4	
858.68	6394.4	
858.85	6485.2	
859.02	4068.6	
859.19	4343.7	
859.36	4968.4	
859.52	5083.1	
859.69	3533.4	
859.86	4182	
860.03	5029.1	
860.2	6291.4	
860.37	3155.2	
860.54	3558	
860.71	5971.2	
860.88	6363	
861.05	3916.4	
861.21	4442	
861.38	6399.9	
861.55	4858.5	
861.72	3134.1	
861.89	3972.4	
862.06	5963	
862.23	6527.6	
862.4	3406.5	
862.56	3656.3	
862.73	5819	
862.9	5472.9	
863.07	4156.7	
863.24	3138.9	
863.41	4932.2	
863.58	5016.2	
863.75	3595.6	
863.91	4039.3	
864.08	6306.4	
864.25	5896.8	
864.42	4425	
864.59	4935.6	
864.76	6645	
864.93	5023	
865.09	3416	
865.26	3779.2	
865.43	6195.8	
865.6	6619	
865.77	3046.7	
865.94	3523.9	
866.1	6222.4	
866.27	5973.9	
866.44	5324.7	
866.61	3315	
866.78	5425.8	
866.95	5891.3	
867.11	3353.9	
867.28	3110.9	
867.45	6057.9	
867.62	4990.9	
867.79	4209.3	
867.96	3510.2	
868.12	5030.5	
868.29	5942.5	
868.46	3035.8	
868.63	4728.8	
868.8	6148	
868.97	5880.4	
869.13	3674.1	
869.3	3691.8	
869.47	5782.8	
869.64	6060.6	
869.81	3550.5	
869.97	3535.5	
870.14	5703.6	
870.31	6431.3	
870.48	3581.2	
870.65	4409.3	
870.81	5366.4	
870.98	5237.3	
871.15	3988.1	
871.32	3661.8	
871.48	5798.5	
871.65	6498.2	
871.82	3549.8	
871.99	3833.1	
872.16	6864.1	
872.32	6206.7	
872.49	3579.8	
872.66	3543	
872.83	5939.1	
872.99	5221	
873.16	4056.3	
873.33	3492.5	
873.5	5567.1	
873.67	5522	
873.83	3705.5	
874	4706.2	
874.17	5696.1	
874.34	6744.6	
874.5	4540.3	
874.67	4415.4	
874.84	6353.5	
875.01	4977.2	
875.17	4947.9	
875.34	3466.5	
875.51	5624.4	
875.68	6804	
875.84	4228.4	
876.01	5210.7	
876.18	5850.4	
876.34	5817.6	
876.51	3518.4	
876.68	3452.9	
876.85	5380.7	
877.01	6229.2	
877.18	5043.5	
877.35	3481.5	
877.52	5505.6	
877.68	4911	
877.85	3416.7	
878.02	3453.6	
878.18	5439.4	
878.35	5193	
878.52	2788.7	
878.69	4003.1	
878.85	5903.6	
879.02	5862.7	
879.19	5014.1	
879.35	3760.8	
879.52	5844.9	
879.69	6144.6	
879.86	3033.7	
880.02	3916.4	
880.19	5496.7	
880.36	6701	
880.52	4044.1	
880.69	4141	
880.86	5989.6	
881.02	6120	
881.19	3820.8	
881.36	3815.4	
881.52	5887.2	
881.69	5180.7	
881.86	3794.9	
882.02	3685.7	
882.19	6188.3	
882.36	7195.2	
882.52	3607.2	
882.69	4997	
882.86	5728.2	
883.02	5600.5	
883.19	4324.6	
883.36	4050.9	
883.52	5990.3	
883.69	6830.7	
883.86	3482.9	
884.02	3166.8	
884.19	5890	
884.36	5492.7	
884.52	3935.5	
884.69	3723.2	
884.86	5261.9	
885.02	6606.7	
885.19	3881.6	
885.36	4048.8	
885.52	5485.1	
885.69	5595.1	
885.86	5034.6	
886.02	4482.3	
886.19	5963	
886.35	5310.4	
886.52	3887.7	
886.69	4973.8	
886.85	5079.6	
887.02	6397.9	
887.19	6397.9	
887.35	6397.9	
887.52	6397.9	
887.68	6397.9	
887.85	6397.9	
888.02	6397.9	
888.18	6397.9	
888.35	6397.9	
888.51	6397.9	
888.68	6397.9	
888.85	6397.9	
889.01	6397.9	
889.18	6397.9	
889.35	6397.9	
889.51	6397.9	
889.68	6397.9	
889.84	6397.9	
890.01	6397.9	
890.17	6397.9	
890.34	6397.9	
890.51	6397.9	
890.67	6397.9	
890.84	6397.9	
891	6397.9	
891.17	6397.9	
891.34	6397.9	
891.5	6397.9	
891.67	6397.9	
891.83	6397.9	
892	6397.9	
892.16	6397.9	
892.33	6397.9	
892.5	6397.9	
892.66	6397.9	
892.83	6397.9	
892.99	6397.9	
893.16	6397.9	
893.32	6397.9	
893.49	6397.9	
893.65	6397.9	
893.82	6397.9	
893.99	6397.9	
894.15	6397.9	
894.32	6397.9	
894.48	6397.9	
894.65	6397.9	
894.81	6397.9	
894.98	6397.9	
895.14	6397.9	
895.31	6397.9	
895.47	6397.9	
895.64	6397.9	
895.81	6397.9	
895.97	6397.9	
896.14	6397.9	
896.3	6397.9	
896.47	6397.9	
896.63	6397.9	
896.8	6397.9	
896.96	6397.9	
897.13	6397.9	
897.29	6397.9	
897.46	6397.9	
897.62	6397.9	
897.79	6397.9	
897.95	6397.9	
898.12	6397.9	
898.28	6397.9	
898.45	6397.9	
898.61	6397.9	
898.78	6397.9	
898.94	6397.9	
899.11	6397.9	
899.27	6397.9	
899.44	6397.9	
899.6	6397.9	
899.77	6397.9	
899.93	6397.9	
900.1	6397.9	
900.26	6397.9	
900.43	6397.9	
900.59	6397.9	
900.76	6397.9	
900.92	6397.9	
901.09	6397.9	
901.25	6397.9	
901.42	6397.9	
901.58	6397.9	
901.75	6397.9	
901.91	6397.9	
902.07	6397.9	
902.24	6397.9	
902.4	6397.9	
902.57	6397.9	
902.73	6397.9	
902.9	6397.9	
903.06	6397.9	
903.23	6397.9	
903.39	6397.9	
903.56	6397.9	
903.72	6397.9	
903.88	6397.9	
904.05	6397.9	
904.21	6397.9	
904.38	6397.9	
904.54	6397.9	
904.71	6397.9	
904.87	6397.9	
905.03	6397.9	
905.2	6397.9	
905.36	6397.9	
905.53	6397.9	
905.69	6397.9	
905.86	6397.9	
906.02	6397.9	
906.18	6397.9	
906.35	6397.9	
906.51	6397.9	
906.68	6397.9	
906.84	6397.9	
907.01	6397.9	
907.17	6397.9	
907.33	6397.9	
907.5	6397.9	
907.66	6397.9	
907.83	6397.9	
907.99	6397.9	
908.15	6397.9	
908.32	6397.9	
908.48	6397.9	
908.65	6397.9	
908.81	6397.9	
908.97	6397.9	
909.14	6397.9	
909.3	6397.9	
909.47	6397.9	
909.63	6397.9	
909.79	6397.9	
909.96	6397.9	
910.12	6397.9	
910.28	6397.9	
910.45	6397.9	
910.61	6397.9	
910.78	6397.9	
910.94	6397.9	
911.1	6397.9	
911.27	6397.9	
911.43	6397.9	
911.59	6397.9	
911.76	6397.9	
911.92	6397.9	
912.08	6397.9	
912.25	6397.9	
912.41	6397.9	
912.57	6397.9	
912.74	6397.9	
912.9	6397.9	
913.07	6397.9	
913.23	6397.9	
913.39	6397.9	
913.56	6397.9	
913.72	6397.9	
913.88	6397.9	
914.05	6397.9	
914.21	6397.9	
914.37	6397.9	
914.54	6397.9	
914.7	6397.9	
914.86	6397.9	
915.03	6397.9	
915.19	6397.9	
