Wavelength	Intensities	
nm	a.u.	
179.22	1755.8	
179.44	1755.8	
179.65	1755.8	
179.86	1755.8	
180.08	1804.9	
180.29	4214	
180.51	3099.9	
180.72	5146.5	
180.94	5864.7	
181.15	2899.9	
181.37	2833.7	
181.58	5025.7	
181.79	5270.1	
182.01	3011.9	
182.22	3174.4	
182.44	5302.9	
182.65	4503.5	
182.87	3934.8	
183.08	3482.2	
183.29	5499.5	
183.51	4611.3	
183.72	3216	
183.94	4497.3	
184.15	4906.9	
184.37	4872.1	
184.58	2780.5	
184.79	3784	
185.01	4670.7	
185.22	5242.8	
185.44	3930.7	
185.65	3402.4	
185.86	4884.4	
186.08	4551.3	
186.29	2755.2	
186.51	2976.4	
186.72	4658.4	
186.94	5356.8	
187.15	3467.2	
187.36	3502	
187.58	6750.8	
187.79	5019.6	
188.01	3592.1	
188.22	5492.7	
188.43	5881.8	
188.65	5196.4	
188.86	2917.7	
189.08	3484.3	
189.29	4767	
189.5	4768.4	
189.72	3221.5	
189.93	3289.7	
190.15	5408.7	
190.36	6335.7	
190.57	3607.8	
190.79	3441.3	
191	5429.8	
191.22	5428.5	
191.43	3596.2	
191.64	3018	
191.86	5601.9	
192.07	5407.3	
192.29	3049.4	
192.5	3218.7	
192.71	5367.7	
192.93	4767	
193.14	3238.5	
193.35	3300	
193.57	4791.6	
193.78	5377.3	
194	2662.4	
194.21	3182.5	
194.42	4562.2	
194.64	4950.6	
194.85	3458.3	
195.07	4011.3	
195.28	4943.8	
195.49	4330.8	
195.71	4192.2	
195.92	3018	
196.13	5122	
196.35	5159.5	
196.56	4448.9	
196.78	3511.6	
196.99	6212.2	
197.2	5849	
197.42	3925.3	
197.63	3517.7	
197.84	4471.4	
198.06	5099.4	
198.27	3287	
198.48	4245.4	
198.7	4728.1	
198.91	4906.9	
199.13	3528.7	
199.34	3515.7	
199.55	5348.6	
199.77	4322.6	
199.98	3130.7	
200.19	3545.7	
200.41	4902.8	
200.62	4616.1	
200.83	3671.3	
201.05	3919.1	
201.26	4876.2	
201.47	4650.3	
201.69	3158	
201.9	3012.6	
202.11	4954.7	
202.33	5776	
202.54	3374.4	
202.76	3687.7	
202.97	5000.5	
203.18	5055.8	
203.4	3687	
203.61	3613.3	
203.82	4969.7	
204.04	4660.5	
204.25	3526.6	
204.46	3536.8	
204.68	4965	
204.89	5079.6	
205.1	3383.2	
205.32	2991.4	
205.53	5326.1	
205.74	5423	
205.96	2590.7	
206.17	3536.8	
206.38	5218.2	
206.6	5343.2	
206.81	4042	
207.02	3303.4	
207.24	5131.5	
207.45	5421.7	
207.66	3409.9	
207.88	2925.9	
208.09	5072.1	
208.3	4965	
208.52	3104	
208.73	3413.3	
208.94	4917.9	
209.15	5481.7	
209.37	3338.2	
209.58	3759.4	
209.79	5332.9	
210.01	4766.3	
210.22	2735.4	
210.43	2889	
210.65	4905.6	
210.86	5299.5	
211.07	3368.9	
211.29	3089	
211.5	5159.5	
211.71	4902.2	
211.93	3128.6	
212.14	3112.2	
212.35	4906.9	
212.56	5015.5	
212.78	3532.7	
212.99	2932.7	
213.2	5703.6	
213.42	4713.1	
213.63	3209.2	
213.84	3403	
214.06	4438.6	
214.27	4485.1	
214.48	3326.6	
214.69	3555.3	
214.91	5468.8	
215.12	5489.2	
215.33	3564.1	
215.55	3891.1	
215.76	5950	
215.97	5220.3	
216.18	3452.9	
216.4	3394.2	
216.61	4629.1	
216.82	5355.4	
217.04	3118.4	
217.25	3240.6	
217.46	5455.1	
217.67	5315.8	
217.89	2833	
218.1	2926.5	
218.31	5001.8	
218.53	5087.8	
218.74	3280.8	
218.95	3154.6	
219.16	4956.1	
219.38	5694	
219.59	3181.2	
219.8	3742.3	
220.01	6168.5	
220.23	4962.9	
220.44	4040.6	
220.65	3075.4	
220.87	5022.3	
221.08	5462.6	
221.29	2927.9	
221.5	3770.3	
221.72	6522.8	
221.93	4673.5	
222.14	3583.3	
222.35	4121.9	
222.57	4884.4	
222.78	5212.1	
222.99	3367.5	
223.2	3593.5	
223.42	5137	
223.63	5257.8	
223.84	2674.6	
224.05	2638.5	
224.27	6163	
224.48	5655.1	
224.69	4154	
224.9	3560.1	
225.12	5080.3	
225.33	4846.9	
225.54	2886.3	
225.75	3129.3	
225.97	4593.6	
226.18	4846.9	
226.39	3317.7	
226.6	3186.6	
226.82	4770.4	
227.03	4599.1	
227.24	3536.2	
227.45	2971.6	
227.67	5260.5	
227.88	5648.3	
228.09	3898	
228.3	3848.1	
228.52	5315.8	
228.73	4932.9	
228.94	3259	
229.15	2963.4	
229.36	4928.8	
229.58	4856.4	
229.79	3336.8	
230	3810.6	
230.21	5810.1	
230.43	4998.4	
230.64	3485	
230.85	3618.1	
231.06	5313.8	
231.28	5273.5	
231.49	2934.1	
231.7	3461.1	
231.91	5204.6	
232.12	4988.9	
232.34	2998.9	
232.55	3378.5	
232.76	5431.2	
232.97	5055.1	
233.18	3106.8	
233.4	3487	
233.61	5137.7	
233.82	4752	
234.03	3302	
234.25	3263.1	
234.46	6654.5	
234.67	4974.5	
234.88	3628.3	
235.09	3157.3	
235.31	5164.3	
235.52	4856.4	
235.73	3493.2	
235.94	3011.2	
236.15	4700.1	
236.37	5873.6	
236.58	3187.3	
236.79	3323.2	
237	5167	
237.21	4513.7	
237.43	3623.5	
237.64	2860.3	
237.85	8344.8	
238.06	4601.1	
238.27	3694.5	
238.48	2992.8	
238.7	5203.9	
238.91	4881.7	
239.12	3362.8	
239.33	3498.6	
239.54	4650.3	
239.76	4820.2	
239.97	3360	
240.18	3341.6	
240.39	6040.1	
240.6	5146.5	
240.82	3507.5	
241.03	2928.6	
241.24	4892.6	
241.45	5608.7	
241.66	3100.6	
241.87	3599.6	
242.09	5507.7	
242.3	5855.8	
242.51	3699.3	
242.72	3392.8	
242.93	5281.7	
243.14	4900.1	
243.36	3847.5	
243.57	4193.6	
243.78	5651	
243.99	5244.8	
244.2	3327.9	
244.41	3115	
244.63	4554.7	
244.84	5183.4	
245.05	3624.9	
245.26	3340.9	
245.47	5211.4	
245.68	5347.2	
245.9	4352.6	
246.11	3511.6	
246.32	4795.7	
246.53	5150	
246.74	5400.5	
246.95	2865.1	
247.16	4614.8	
247.38	4997.7	
247.59	2930.6	
247.8	3434.4	
248.01	4605.9	
248.22	4902.8	
248.43	3114.3	
248.64	3324.5	
248.86	4493.2	
249.07	4753.3	
249.28	3020.1	
249.49	3484.3	
249.7	5395.7	
249.91	5440.8	
250.12	2893.1	
250.34	2926.5	
250.55	4997	
250.76	4958.1	
250.97	3505.4	
251.18	3524.6	
251.39	5474.9	
251.6	5055.1	
251.81	3551.9	
252.03	3547.1	
252.24	4746.5	
252.45	5326.1	
252.66	2995.5	
252.87	3701.4	
253.08	4970.4	
253.29	6229.2	
253.5	3038.5	
253.72	4063.2	
253.93	4849.6	
254.14	5730.2	
254.35	3196.2	
254.56	3329.3	
254.77	5155.4	
254.98	4587.4	
255.19	3180.5	
255.41	4034.5	
255.62	5039.4	
255.83	5439.4	
256.04	3617.4	
256.25	3508.9	
256.46	5924.8	
256.67	4676.2	
256.88	3472.7	
257.09	3792.2	
257.31	4614.1	
257.52	4663.9	
257.73	4321.9	
257.94	3199.6	
258.15	4790.2	
258.36	4917.2	
258.57	4005.8	
258.78	2648	
258.99	5347.9	
259.2	4786.1	
259.41	3179.1	
259.63	3352.5	
259.84	5617.6	
260.05	5915.9	
260.26	4237.9	
260.47	3201	
260.68	5369.1	
260.89	4847.5	
261.1	3823.6	
261.31	3078.8	
261.52	5449	
261.73	5728.9	
261.95	4108.9	
262.16	3641.3	
262.37	5480.4	
262.58	5618.3	
262.79	4085	
263	3275.4	
263.21	4939.7	
263.42	4781.3	
263.63	3322.5	
263.84	3236.5	
264.05	5389.6	
264.26	5694	
264.47	3945.8	
264.69	3612.6	
264.9	5551.4	
265.11	5110.4	
265.32	3139.5	
265.53	3208.5	
265.74	5061.9	
265.95	4453.6	
266.16	3471.3	
266.37	3789.4	
266.58	4999.1	
266.79	4790.9	
267	3218	
267.21	2982.5	
267.42	4567.7	
267.63	4977.2	
267.84	3348.4	
268.06	2959.3	
268.27	5257.1	
268.48	5461.9	
268.69	3322.5	
268.9	3892.5	
269.11	5475.6	
269.32	4481	
269.53	3374.4	
269.74	3187.3	
269.95	5152.7	
270.16	4457.7	
270.37	3405.8	
270.58	3891.8	
270.79	4835.9	
271	5371.8	
271.21	3609.9	
271.42	3411.2	
271.63	5128.1	
271.84	4559.5	
272.05	2770.9	
272.26	3115	
272.47	4991.6	
272.68	5092.6	
272.89	3279.5	
273.11	3737.5	
273.32	4784.1	
273.53	5676.3	
273.74	3622.9	
273.95	3576.4	
274.16	5305.6	
274.37	4970.4	
274.58	3775.8	
274.79	2985.9	
275	5036.6	
275.21	5388.9	
275.42	4389.5	
275.63	3810.6	
275.84	5204.6	
276.05	6345.3	
276.26	3535.5	
276.47	3353.2	
276.68	4872.1	
276.89	5740.5	
277.1	3762.8	
277.31	2969.6	
277.52	5143.8	
277.73	5328.8	
277.94	2942.9	
278.15	3245.3	
278.36	5115.8	
278.57	4703.5	
278.78	3233.7	
278.99	3648.8	
279.2	4659.8	
279.41	4604.5	
279.62	4188.1	
279.83	3074.7	
280.04	5896.8	
280.25	4577.9	
280.46	4145.1	
280.67	3426.9	
280.88	4654.4	
281.09	5518.6	
281.3	3534.1	
281.51	4417.5	
281.72	4688.5	
281.93	5347.2	
282.14	3213.9	
282.35	3469.3	
282.56	5446.9	
282.77	5261.2	
282.98	3283.6	
283.19	3943	
283.4	6382.8	
283.61	4909.7	
283.82	3105.4	
284.03	4131.4	
284.24	5018.9	
284.45	5484.5	
284.66	4155.3	
284.87	3923.9	
285.08	5391.6	
285.29	5502.9	
285.5	2964.1	
285.71	3330.7	
285.92	5421.7	
286.12	6053.1	
286.33	4151.2	
286.54	3359.4	
286.75	5339.7	
286.96	4838	
287.17	3071.3	
287.38	4009.2	
287.59	4700.1	
287.8	4634.6	
288.01	3358	
288.22	3695.2	
288.43	5276.3	
288.64	4497.3	
288.85	3890.5	
289.06	3744.4	
289.27	5298.1	
289.48	5614.8	
289.69	4171	
289.9	3764.8	
290.11	5460.6	
290.32	4711	
290.53	3927.3	
290.74	3568.2	
290.94	5353.4	
291.15	5289.9	
291.36	3217.4	
291.57	3732.1	
291.78	4785.4	
291.99	4465.3	
292.2	3103.4	
292.41	3650.2	
292.62	5383.4	
292.83	5247.6	
293.04	4386.7	
293.25	3087	
293.46	4800.4	
293.67	5388.2	
293.88	3165.5	
294.09	3057.6	
294.29	4582.7	
294.5	5052.3	
294.71	3437.9	
294.92	3254.2	
295.13	4799.8	
295.34	5909.8	
295.55	2876	
295.76	2828.2	
295.97	5255.8	
296.18	5861.3	
296.39	3040.6	
296.6	3247.4	
296.81	4996.4	
297.01	5257.8	
297.22	3366.9	
297.43	3224.9	
297.64	4697.4	
297.85	4642.1	
298.06	2692.4	
298.27	2897.9	
298.48	4956.8	
298.69	4686.4	
298.9	3421.5	
299.11	3141.6	
299.31	4527.4	
299.52	4650.9	
299.73	3676.8	
299.94	3569.6	
300.15	4944.5	
300.36	4701.5	
300.57	3604.4	
300.78	3581.2	
300.99	4821.6	
301.2	5035.3	
301.4	3219.4	
301.61	3448.8	
301.82	5224.4	
302.03	5312.4	
302.24	3824.9	
302.45	3080.1	
302.66	5165.7	
302.87	5530.9	
303.08	3241.9	
303.29	4216.1	
303.49	4801.1	
303.7	4919.9	
303.91	2850.8	
304.12	4033.1	
304.33	4532.2	
304.54	5012.1	
304.75	3224.9	
304.96	3094.5	
305.16	5246.9	
305.37	5760.3	
305.58	2837.1	
305.79	2902.7	
306	5225.7	
306.21	4417.5	
306.42	3232.4	
306.63	4689.8	
306.83	4846.2	
307.04	5346.6	
307.25	3482.2	
307.46	3473.4	
307.67	4306.2	
307.88	5328.8	
308.09	3198.9	
308.29	3267.2	
308.5	5052.3	
308.71	5460.6	
308.92	3386	
309.13	3093.8	
309.34	4870.1	
309.55	4870.8	
309.75	3923.9	
309.96	3551.2	
310.17	5307.7	
310.38	4700.8	
310.59	3777.1	
310.8	3067.2	
311.01	4825	
311.21	4857.8	
311.42	3097.9	
311.63	3187.3	
311.84	4704.2	
312.05	5010	
312.26	3551.2	
312.46	3848.1	
312.67	4819.6	
312.88	4535.6	
313.09	3119.1	
313.3	3018	
313.51	5642.2	
313.71	5812.1	
313.92	3104.7	
314.13	3231.7	
314.34	5116.5	
314.55	4894	
314.76	3867.2	
314.96	3437.2	
315.17	5127.4	
315.38	5213.4	
315.59	3117.7	
315.8	2991.4	
316.01	5642.2	
316.21	5720	
316.42	3022.8	
316.63	3444	
316.84	4872.8	
317.05	5491.3	
317.26	3669.3	
317.46	3224.9	
317.67	4877.6	
317.88	5212.8	
318.09	3886.4	
318.3	2895.1	
318.5	4694.6	
318.71	5227.1	
318.92	4915.8	
319.13	3596.9	
319.34	5343.8	
319.54	5504.9	
319.75	2875.3	
319.96	2796.8	
320.17	5214.8	
320.38	5382.7	
320.58	2861.7	
320.79	3363.4	
321	5445.5	
321.21	5530.2	
321.42	3392.8	
321.62	2862.4	
321.83	4635.2	
322.04	4983.4	
322.25	3315.7	
322.46	3123.2	
322.66	4965.6	
322.87	5173.9	
323.08	3792.2	
323.29	3052.8	
323.5	5773.9	
323.7	4596.3	
323.91	4110.3	
324.12	3751.2	
324.33	5027.1	
324.53	5212.1	
324.74	3568.2	
324.95	3771	
325.16	4435.2	
325.37	4797.7	
325.57	3078.1	
325.78	3143.6	
325.99	5063.9	
326.2	4590.9	
326.4	4301.4	
326.61	2857.6	
326.82	4898.1	
327.03	5044.8	
327.24	4375.8	
327.44	4070.7	
327.65	5178.6	
327.86	4278.2	
328.07	3646.7	
328.27	2972.3	
328.48	5519.3	
328.69	4583.4	
328.9	4366.3	
329.1	3348.4	
329.31	4863.9	
329.52	5630.5	
329.73	3144.3	
329.93	3413.3	
330.14	4981.3	
330.35	5051.7	
330.56	4918.5	
330.76	3764.2	
330.97	4794.3	
331.18	5108.3	
331.39	3422.2	
331.59	2847.4	
331.8	5467.4	
332.01	5548.6	
332.22	3198.2	
332.42	3603.7	
332.63	5059.8	
332.84	4588.8	
333.05	3467.9	
333.25	3162.7	
333.46	4709.6	
333.67	4874.8	
333.88	3253.5	
334.08	3561.4	
334.29	6500.3	
334.5	5477	
334.7	3063.8	
334.91	4305.5	
335.12	4536.9	
335.33	5239.4	
335.53	3433.8	
335.74	4922.6	
335.95	4777.9	
336.16	4663.2	
336.36	3434.4	
336.57	3899.3	
336.78	4539.7	
336.98	5383.4	
337.19	4144.4	
337.4	3306.1	
337.61	5892	
337.81	4508.3	
338.02	3231.7	
338.23	3990.8	
338.43	5573.9	
338.64	4675.5	
338.85	3138.2	
339.05	4003.1	
339.26	5610.8	
339.47	4476.9	
339.68	3136.1	
339.88	4474.8	
340.09	5156.1	
340.3	5357.5	
340.5	3629	
340.71	2796.8	
340.92	4586.1	
341.13	5597.1	
341.33	3004.4	
341.54	3598.3	
341.75	5125.4	
341.95	4788.2	
342.16	3506.8	
342.37	3681.6	
342.57	4616.1	
342.78	4896.7	
342.99	3837.9	
343.19	2812.5	
343.4	5283.8	
343.61	5177.9	
343.81	3258.3	
344.02	3039.2	
344.23	5348.6	
344.43	5563	
344.64	3781.9	
344.85	3768.3	
345.06	5191.6	
345.26	5467.4	
345.47	3574.4	
345.68	4123.2	
345.88	4465.9	
346.09	5308.3	
346.3	3711.6	
346.5	2809.1	
346.71	4889.9	
346.92	4670.1	
347.12	2863.7	
347.33	3543	
347.54	5401.2	
347.74	5656.5	
347.95	3584.6	
348.16	2673.3	
348.36	4797.7	
348.57	4624.3	
348.78	3594.2	
348.98	3765.5	
349.19	4930.1	
349.39	4523.3	
349.6	2925.2	
349.81	3145	
350.01	5247.6	
350.22	4748.6	
350.43	3461.7	
350.63	4094.6	
350.84	4972.5	
351.05	4740.4	
351.25	3135.4	
351.46	2910.8	
351.67	5399.8	
351.87	4743.8	
352.08	3352.5	
352.29	3803.1	
352.49	5350	
352.7	5112.4	
352.9	3101.3	
353.11	3732.1	
353.32	5872.9	
353.52	4799.1	
353.73	3010.5	
353.94	3841.3	
354.14	5261.2	
354.35	5079	
354.55	3168.2	
354.76	3454.9	
354.97	5227.8	
355.17	4997.7	
355.38	3048.1	
355.59	4029.7	
355.79	4748.6	
356	5037.3	
356.2	3461.1	
356.41	3086.3	
356.62	4557.4	
356.82	5027.1	
357.03	3732.8	
357.24	3353.9	
357.44	4711	
357.65	4905.6	
357.85	4416.1	
358.06	3525.2	
358.27	4574.5	
358.47	4739.7	
358.68	2990	
358.88	3752.6	
359.09	5242.1	
359.3	5540.4	
359.5	4289.8	
359.71	3931.4	
359.91	5981.4	
360.12	5366.4	
360.33	3777.1	
360.53	4110.3	
360.74	4807.9	
360.94	4803.9	
361.15	3985.3	
361.36	3278.1	
361.56	5491.3	
361.77	5050.3	
361.97	4382.7	
362.18	3507.5	
362.38	5528.2	
362.59	4706.2	
362.8	3254.9	
363	3166.8	
363.21	4553.3	
363.41	5170.4	
363.62	3758.7	
363.83	4582	
364.03	5267.4	
364.24	6038.8	
364.44	4730.1	
364.65	4605.2	
364.85	5036	
365.06	4670.1	
365.27	3450.8	
365.47	3487.7	
365.68	5785.5	
365.88	5014.8	
366.09	3781.9	
366.29	3480.9	
366.5	5184.1	
366.71	5597.8	
366.91	4626.4	
367.12	3957.4	
367.32	6121.4	
367.53	5483.1	
367.73	3958.7	
367.94	4657.8	
368.14	5466	
368.35	6175.3	
368.56	3846.1	
368.76	3352.5	
368.97	5553.4	
369.17	6858.6	
369.38	3427.6	
369.58	3655.6	
369.79	4700.8	
369.99	5862	
370.2	4537.6	
370.4	3777.8	
370.61	5245.5	
370.82	6311.2	
371.02	3667.9	
371.23	3139.5	
371.43	4688.5	
371.64	5854.5	
371.84	3766.2	
372.05	4753.3	
372.25	6811.5	
372.46	5603.9	
372.66	3797.6	
372.87	3706.1	
373.07	5626.5	
373.28	6961.7	
373.48	4534.2	
373.69	4365.6	
373.9	5205.3	
374.1	5219.6	
374.31	4591.5	
374.51	4094.6	
374.72	5924.1	
374.92	4980	
375.13	4750.6	
375.33	4074.1	
375.54	5647.6	
375.74	5143.1	
375.95	4184	
376.15	5205.9	
376.36	5722.7	
376.56	5545.2	
376.77	4253.6	
376.97	4571.7	
377.18	6636.1	
377.38	5777.3	
377.59	4951.3	
377.79	3874.1	
378	5643.5	
378.2	5988.3	
378.41	3966.2	
378.61	3835.2	
378.82	6062.7	
379.02	5304.2	
379.23	4102.1	
379.43	4941.7	
379.64	6179.4	
379.84	5771.9	
380.05	3952.6	
380.25	3834.5	
380.46	5837.4	
380.66	5477.6	
380.87	5074.9	
381.07	5331.5	
381.28	6421.7	
381.48	5765	
381.69	3994.2	
381.89	3940.3	
382.1	4915.8	
382.3	5940.5	
382.51	4833.9	
382.71	5588.2	
382.91	5801.2	
383.12	6252.4	
383.32	4215.4	
383.53	4386.7	
383.73	5662.6	
383.94	5509.7	
384.14	4364.9	
384.35	3548.4	
384.55	5424.4	
384.76	5752.7	
384.96	4223.6	
385.17	4455	
385.37	5786.9	
385.58	5120.6	
385.78	4447.5	
385.98	3474	
386.19	5326.1	
386.39	5705	
386.6	3956	
386.8	4171	
387.01	5784.1	
387.21	5844.9	
387.42	4481	
387.62	5002.5	
387.83	5268.1	
388.03	5739.1	
388.23	4296.6	
388.44	4939.7	
388.64	4977.2	
388.85	5154.1	
389.05	4590.9	
389.26	5073.5	
389.46	6858	
389.67	6306.4	
389.87	4657.1	
390.07	4646.2	
390.28	5552.7	
390.48	5240.1	
390.69	3973.1	
390.89	4295.3	
391.1	5362.3	
391.3	6174.6	
391.5	5222.3	
391.71	5720.7	
391.91	5995.8	
392.12	6773.3	
392.32	5277.6	
392.53	4630.5	
392.73	5477.6	
392.93	5619.6	
393.14	4330.8	
393.34	4942.4	
393.55	5877.7	
393.75	5464.7	
393.95	4234.5	
394.16	4233.2	
394.36	5349.3	
394.57	5958.2	
394.77	3813.3	
394.98	4208.6	
395.18	5326.8	
395.38	5372.5	
395.59	5057.8	
395.79	4143.7	
396	5586.9	
396.2	5997.1	
396.4	4943.8	
396.61	4760.8	
396.81	6113.9	
397.02	5467.4	
397.22	5168.4	
397.42	5149.3	
397.63	6201.2	
397.83	5462.6	
398.04	4175.8	
398.24	4659.8	
398.44	5915.9	
398.65	5106.3	
398.85	4111.6	
399.05	4145.1	
399.26	5487.9	
399.46	6904.4	
399.67	4501.4	
399.87	4259.1	
400.07	5864.7	
400.28	6150.7	
400.48	4327.4	
400.69	5259.9	
400.89	6335.7	
401.09	6698.9	
401.3	4397	
401.5	5248.3	
401.7	7040.2	
401.91	7062.8	
402.11	4618.9	
402.32	4796.3	
402.52	6410.1	
402.72	6181.5	
402.93	4891.2	
403.13	3906.2	
403.33	6901	
403.54	5652.4	
403.74	4524.6	
403.94	5272.8	
404.15	5692	
404.35	6724.8	
404.56	4330.8	
404.76	5901.6	
404.96	6246.3	
405.17	6109.1	
405.37	5422.3	
405.57	4903.5	
405.78	6344.6	
405.98	5840.8	
406.18	4532.2	
406.39	5265.3	
406.59	6203.3	
406.79	5894.7	
407	4187.4	
407.2	4292.5	
407.4	6236.7	
407.61	6351.4	
407.81	4369	
408.01	5759.6	
408.22	5519.3	
408.42	7233.4	
408.62	5472.9	
408.83	5100.1	
409.03	6164.4	
409.23	6049.7	
409.44	5158.2	
409.64	5391.6	
409.84	7066.9	
410.05	6920.1	
410.25	5414.1	
410.45	5176.6	
410.66	6679.8	
410.86	8570.1	
411.06	5648.3	
411.27	5509.7	
411.47	8542.1	
411.67	6802	
411.88	5779.4	
412.08	5995.1	
412.28	7385.7	
412.49	7840.3	
412.69	5611.4	
412.89	5609.4	
413.09	7651.2	
413.3	7514.7	
413.5	5746.6	
413.7	5380.7	
413.91	6976.1	
414.11	7637.6	
414.31	5555.5	
414.52	5915.2	
414.72	7454.6	
414.92	7365.9	
415.12	5558.2	
415.33	6107	
415.53	7595.9	
415.73	7783.6	
415.94	6381.5	
416.14	5906.3	
416.34	6853.2	
416.55	6565.1	
416.75	6832.7	
416.95	6456.6	
417.15	7761.1	
417.36	8194.6	
417.56	7146	
417.76	6262	
417.97	8089.5	
418.17	7718.1	
418.37	5971.2	
418.57	6058.6	
418.78	7639.6	
418.98	7314	
419.18	6771.9	
419.38	6549.4	
419.59	7305.1	
419.79	6929.6	
419.99	5786.2	
420.2	6036	
420.4	7780.9	
420.6	7798.7	
420.8	5815.5	
421.01	5694	
421.21	7703.1	
421.41	7756.3	
421.61	6094.8	
421.82	5780.1	
422.02	7217	
422.22	7924.3	
422.42	6447	
422.63	6125.5	
422.83	7228	
423.03	8264.9	
423.23	6141.9	
423.44	5370.5	
423.64	7268.9	
423.84	7019.8	
424.04	5735.7	
424.25	5365	
424.45	7890.8	
424.65	7841	
424.85	5223.7	
425.06	5696.1	
425.26	7980.3	
425.46	7112.6	
425.66	6064	
425.87	5813.5	
426.07	7682.6	
426.27	7524.9	
426.47	5954.8	
426.67	5361.6	
426.88	7913.4	
427.08	7405.5	
427.28	6124.1	
427.48	5274.2	
427.69	6597.9	
427.89	7146	
428.09	6053.1	
428.29	5316.5	
428.5	7677.2	
428.7	7280.5	
428.9	5188.9	
429.1	5593	
429.3	7268.9	
429.51	7615	
429.71	5545.2	
429.91	6185.5	
430.11	7656.7	
430.31	7783	
430.52	5827.8	
430.72	6091.3	
430.92	7983.7	
431.12	7613.7	
431.32	5587.5	
431.53	5862	
431.73	6692.8	
431.93	8082	
432.13	5470.8	
432.33	5276.9	
432.54	7066.9	
432.74	7320.1	
432.94	5375.9	
433.14	6225.1	
433.34	7548.1	
433.55	7194.5	
433.75	6144.6	
433.95	7677.8	
434.15	7409.6	
434.35	7132.4	
434.56	5504.9	
434.76	5213.4	
434.96	7298.3	
435.16	7590.5	
435.36	5466	
435.56	6425.8	
435.77	7129.7	
435.97	7246.4	
436.17	6989.7	
436.37	6372.6	
436.57	7122.8	
436.78	7111.9	
436.98	6705.7	
437.18	6941.2	
437.38	7696.9	
437.58	7223.2	
437.78	6856.6	
437.99	5770.5	
438.19	7664.9	
438.39	8280.6	
438.59	5702.9	
438.79	5152	
438.99	8108.6	
439.2	7114.6	
439.4	5287.2	
439.6	5296	
439.8	7475.8	
440	8399.4	
440.2	6432.7	
440.4	6332.3	
440.61	8037.6	
440.81	8349.6	
441.01	5781.4	
441.21	6490.7	
441.41	8359.8	
441.61	7860.1	
441.81	6701.6	
442.02	7555	
442.22	8615.8	
442.42	7989.1	
442.62	5777.3	
442.82	5776.6	
443.02	8251.9	
443.22	7600	
443.43	6229.9	
443.63	5750	
443.83	7392.5	
444.03	7387	
444.23	6886	
444.43	6468.9	
444.63	7755	
444.83	8768	
445.04	6001.9	
445.24	6952.2	
445.44	8039.6	
445.64	8086.7	
445.84	6497.5	
446.04	6586.3	
446.24	7385.7	
446.44	8170	
446.65	5705	
446.85	6045.6	
447.05	7599.3	
447.25	8150.9	
447.45	6242.2	
447.65	5668.1	
447.85	7675.8	
448.05	7311.2	
448.25	6488.6	
448.46	6287.3	
448.66	7632.8	
448.86	7288.7	
449.06	5631.2	
449.26	6516	
449.46	7901.7	
449.66	7065.5	
449.86	6131.6	
450.06	6081.1	
450.26	7299	
450.47	7793.2	
450.67	6298.2	
450.87	6602.7	
451.07	7942	
451.27	7656.7	
451.47	5732.9	
451.67	6283.9	
451.87	7422.5	
452.07	8269	
452.27	6011.5	
452.47	5947.3	
452.67	7747.5	
452.88	7975.5	
453.08	5341.8	
453.28	6980.2	
453.48	8609	
453.68	7485.3	
453.88	5926.1	
454.08	5987.6	
454.28	7925	
454.48	7681.2	
454.68	6518.7	
454.88	6889.4	
455.08	8045.1	
455.28	7846.5	
455.48	5762.3	
455.68	6391	
455.89	8481.3	
456.09	8145.5	
456.29	6069.5	
456.49	6173.9	
456.69	8378.2	
456.89	7789.1	
457.09	6494.8	
457.29	6920.8	
457.49	8086.7	
457.69	8196	
457.89	6563.7	
458.09	5894.1	
458.29	7906.5	
458.49	8576.2	
458.69	6861.4	
458.89	6285.9	
459.09	8624.7	
459.29	8830.8	
459.49	6380.8	
459.69	7012.2	
459.9	8264.9	
460.1	7948.2	
460.3	6288.6	
460.5	6077	
460.7	8282	
460.9	7941.3	
461.1	5898.8	
461.3	7061.4	
461.5	8850	
461.7	8559.8	
461.9	6361	
462.1	6679.8	
462.3	8162.5	
462.5	8593.3	
462.7	6339.8	
462.9	6427.9	
463.1	9485.5	
463.3	9249.3	
463.5	6699.6	
463.7	7546.8	
463.9	8417.2	
464.1	8710	
464.3	6849.8	
464.5	7037.5	
464.7	8964.6	
464.9	8772.8	
465.1	8136.6	
465.3	7286	
465.5	9135.3	
465.7	9311.4	
465.9	7544	
466.1	7275.1	
466.3	9156.5	
466.5	8910.7	
466.7	8190.5	
466.9	7210.2	
467.1	9019.3	
467.3	9714.2	
467.5	8094.3	
467.7	7163.1	
467.9	9865.1	
468.1	10663	
468.3	7842.4	
468.5	8208.9	
468.7	8892.3	
468.9	8833.6	
469.1	7500.3	
469.3	7920.9	
469.5	10542	
469.7	8565.3	
469.9	7764.5	
470.1	7305.1	
470.3	8990.6	
470.5	9039.7	
470.7	8310.7	
470.9	7285.3	
471.1	8790.6	
471.3	9016.5	
471.5	7196.6	
471.69	8686.1	
471.89	8584.4	
472.09	8112.7	
472.29	7746.1	
472.49	7950.9	
472.69	8410.3	
472.89	9078.6	
473.09	7046.4	
473.29	7054.6	
473.49	8510.7	
473.69	8516.1	
473.89	7819.1	
474.09	7147.4	
474.29	9617.9	
474.49	9328.5	
474.69	7862.8	
474.89	7288	
475.09	8579.6	
475.29	8531.8	
475.49	6772.6	
475.69	6985.6	
475.88	9887.6	
476.08	8755.7	
476.28	6710.5	
476.48	7030.7	
476.68	9164.7	
476.88	8933.2	
477.08	7021.1	
477.28	7161.1	
477.48	8529.1	
477.68	9058.8	
477.88	6808.8	
478.08	6998.6	
478.28	9345.6	
478.48	8664.3	
478.67	7081.2	
478.87	6493.4	
479.07	9189.2	
479.27	8751.7	
479.47	7214.3	
479.67	7213.6	
479.87	8944.8	
480.07	9521	
480.27	6607.4	
480.47	7909.3	
480.67	8723	
480.87	9338.1	
481.06	6797.2	
481.26	7652.6	
481.46	8681.3	
481.66	8576.2	
481.86	7156.3	
482.06	8015.7	
482.26	8466.3	
482.46	9178.3	
482.66	7152.9	
482.86	6851.1	
483.05	8856.8	
483.25	8191.9	
483.45	9169.4	
483.65	7152.9	
483.85	8372.1	
484.05	8643.8	
484.25	7564.5	
484.45	7935.2	
484.65	9284.1	
484.84	9450	
485.04	7103.7	
485.24	7054.6	
485.44	9598.1	
485.64	8199.4	
485.84	6614.9	
486.04	7733.1	
486.24	8510	
486.44	8824.7	
486.63	6500.9	
486.83	7217	
487.03	8486.1	
487.23	8640.4	
487.43	6656.6	
487.63	8591.9	
487.83	8708	
488.02	9532.6	
488.22	7404.1	
488.42	7998.7	
488.62	9454.8	
488.82	8501.8	
489.02	7191.8	
489.22	7236.8	
489.41	9316.2	
489.61	9094.3	
489.81	6944.7	
490.01	6971.3	
490.21	9290.3	
490.41	9806.4	
490.61	6976.7	
490.8	7061.4	
491	8847.2	
491.2	8247.2	
491.4	7535.2	
491.6	6698.9	
491.8	8865	
491.99	8753.7	
492.19	6584.2	
492.39	6861.4	
492.59	9165.3	
492.79	9336	
492.99	7752.2	
493.18	6911.9	
493.38	9422	
493.58	10096	
493.78	7621.9	
493.98	7245.7	
494.18	9217.9	
494.37	8748.2	
494.57	7826	
494.77	7577.5	
494.97	9406.3	
495.17	9704.6	
495.37	7449.1	
495.56	7755.7	
495.76	9921.7	
495.96	9573.6	
496.16	8513.4	
496.36	7607.5	
496.55	9795.4	
496.75	9346.9	
496.95	7951.6	
497.15	7803.4	
497.35	9661.6	
497.54	9594.1	
497.74	7660.8	
497.94	9085.5	
498.14	10316	
498.34	10058	
498.53	7480.5	
498.73	8077.9	
498.93	9127.8	
499.13	9655.5	
499.33	7911.3	
499.52	8381.7	
499.72	9691.7	
499.92	9955.9	
500.12	7755.7	
500.32	7913.4	
500.51	9913.5	
500.71	9791.3	
500.91	8538.7	
501.11	8206.9	
501.31	9786.6	
501.5	10173	
501.7	8770.8	
501.9	7969.3	
502.1	9691	
502.29	9946.3	
502.49	8246.5	
502.69	8684.8	
502.89	9850	
503.09	9779.7	
503.28	7426.6	
503.48	7501	
503.68	9177.6	
503.88	9069.1	
504.07	8282	
504.27	7854	
504.47	9364	
504.67	9622	
504.86	8347.5	
505.06	7956.4	
505.26	9067	
505.46	10549	
505.65	7818.5	
505.85	7942.7	
506.05	8992.6	
506.25	9439.1	
506.44	7241.6	
506.64	7996	
506.84	8865	
507.04	9677.3	
507.23	7312.6	
507.43	7932.5	
507.63	10430	
507.83	9110	
508.02	7805.5	
508.22	7507.2	
508.42	10786	
508.62	8734.6	
508.81	7576.8	
509.01	8116.8	
509.21	8733.9	
509.4	9013.8	
509.6	7828.7	
509.8	7310.6	
510	9045.9	
510.19	10063	
510.39	7233.4	
510.59	7445	
510.79	8895	
510.98	9878.7	
511.18	7448.5	
511.38	7549.5	
511.57	9464.3	
511.77	9288.2	
511.97	7992.5	
512.17	7388.4	
512.36	9387.9	
512.56	9369.5	
512.76	7278.5	
512.95	7047.7	
513.15	9534.7	
513.35	8407.6	
513.55	7929.1	
513.74	7200	
513.94	9478	
514.14	8902.5	
514.33	8018.5	
514.53	7843	
514.73	8916.2	
514.92	9076.6	
515.12	7400.7	
515.32	7233.4	
515.51	9078.6	
515.71	9467.1	
515.91	8660.9	
516.11	7377.5	
516.3	10504	
516.5	8901.8	
516.7	7718.8	
516.89	8144.1	
517.09	8893	
517.29	8786.5	
517.48	8110.6	
517.68	7494.2	
517.88	8727.8	
518.07	9153.1	
518.27	7931.8	
518.47	7146	
518.66	9693.7	
518.86	8471.8	
519.06	6877.1	
519.25	7350.2	
519.45	8822	
519.65	10074	
519.84	7918.8	
520.04	8465.6	
520.24	10381	
520.43	9423.4	
520.63	7623.9	
520.83	7406.8	
521.02	8571.4	
521.22	9155.8	
521.42	7662.8	
521.61	8146.8	
521.81	8851.3	
522.01	9071.8	
522.2	7721.5	
522.4	7492.2	
522.6	9370.8	
522.79	8346.2	
522.99	7476.5	
523.18	7020.4	
523.38	9226.1	
523.58	9166	
523.77	8634.2	
523.97	7026.6	
524.17	10761	
524.36	10108	
524.56	8294.3	
524.76	7949.5	
524.95	9291.6	
525.15	8897.7	
525.34	7734.5	
525.54	7731.1	
525.74	9594.7	
525.93	8844.5	
526.13	8790.6	
526.33	7752.2	
526.52	9865.7	
526.72	9557.2	
526.91	8841.8	
527.11	8146.1	
527.31	9919.7	
527.5	10229	
527.7	8172.1	
527.89	7427.3	
528.09	9111.4	
528.29	9637.1	
528.48	8454	
528.68	8191.9	
528.87	9843.2	
529.07	9909.4	
529.27	8115.4	
529.46	7771.4	
529.66	9541.5	
529.85	9847.3	
530.05	7649.8	
530.25	8133.8	
530.44	10668	
530.64	9343.5	
530.83	7834.2	
531.03	8021.9	
531.23	9852.1	
531.42	9679.4	
531.62	8833.6	
531.81	8054	
532.01	10050	
532.21	10340	
532.4	7902.4	
532.6	8274.5	
532.79	10797	
532.99	10077	
533.18	8315.4	
533.38	9125.1	
533.58	9706.7	
533.77	10291	
533.97	8360.5	
534.16	8789.9	
534.36	10617	
534.55	9687.6	
534.75	9123	
534.95	8350.9	
535.14	10486	
535.34	9753.1	
535.53	7993.2	
535.73	9544.2	
535.92	10886	
536.12	9928.6	
536.31	8097.7	
536.51	9088.2	
536.71	10054	
536.9	9714.9	
537.1	8173.4	
537.29	8366.6	
537.49	10548	
537.68	9712.8	
537.88	8600.1	
538.07	7979.6	
538.27	9875.3	
538.46	10774	
538.66	7946.1	
538.86	8269	
539.05	9919.7	
539.25	10269	
539.44	8553.7	
539.64	8198	
539.83	9807.7	
540.03	10602	
540.22	8088.8	
540.42	8133.8	
540.61	9955.9	
540.81	10038	
541	8439.7	
541.2	9047.9	
541.39	9560.6	
541.59	9899.2	
541.78	8813.1	
541.98	8007.6	
542.18	9260.9	
542.37	9310.1	
542.57	8316.1	
542.76	8731.9	
542.96	9266.4	
543.15	9755.2	
543.35	8275.8	
543.54	7742	
543.74	9960	
543.93	9719.7	
544.13	8092.2	
544.32	9093	
544.52	9998.2	
544.71	9228.1	
544.91	7491.5	
545.1	8445.8	
545.3	9313.5	
545.49	9913.5	
545.69	7475.8	
545.88	7901.7	
546.08	10619	
546.27	10249	
546.47	8285.4	
546.66	7712	
546.86	10006	
547.05	10486	
547.24	7931.1	
547.44	7749.5	
547.63	9031.5	
547.83	10003	
548.02	8088.1	
548.22	8237.6	
548.41	8904.6	
548.61	10064	
548.8	7604.8	
549	7669	
549.19	9476.6	
549.39	9766.8	
549.58	7361.1	
549.78	7989.8	
549.97	9815.2	
550.17	9210.4	
550.36	8514.8	
550.55	9420.7	
550.75	9350.3	
550.94	10090	
551.14	7524.2	
551.33	7912.7	
551.53	8735.3	
551.72	9559.9	
551.92	7856	
552.11	7692.9	
552.31	9634.3	
552.5	9651.4	
552.69	9021.3	
552.89	7292.1	
553.08	9569.5	
553.28	9230.9	
553.47	7663.5	
553.67	8591.9	
553.86	10090	
554.06	8646.5	
554.25	7029.3	
554.44	7505.8	
554.64	10670	
554.83	10316	
555.03	7470.3	
555.22	7776.8	
555.42	9693.7	
555.61	9460.3	
555.8	7641.7	
556	7835.5	
556.19	8739.4	
556.39	9749.7	
556.58	7635.5	
556.78	7633.5	
556.97	9326.4	
557.16	9056.1	
557.36	8615.8	
557.55	7365.9	
557.75	8531.2	
557.94	9958.6	
558.13	7344	
558.33	7238.9	
558.52	9796.1	
558.72	8776.2	
558.91	7288.7	
559.1	7441.6	
559.3	8596.7	
559.49	8381.7	
559.69	6819.1	
559.88	7707.2	
560.07	9312.8	
560.27	9636.4	
560.46	7998.7	
560.66	7959.1	
560.85	9140.1	
561.04	8405.5	
561.24	7232.1	
561.43	7357	
561.63	8603.5	
561.82	8845.2	
562.01	8405.5	
562.21	7642.3	
562.4	9131.9	
562.59	9977.7	
562.79	7522.2	
562.98	7251.9	
563.18	9125.1	
563.37	10290	
563.56	7879.9	
563.76	7191.1	
563.95	8707.3	
564.14	8643.8	
564.34	7548.1	
564.53	7258.7	
564.73	9112.1	
564.92	9401.5	
565.11	7677.2	
565.31	7071.6	
565.5	9695.1	
565.69	8733.2	
565.89	7405.5	
566.08	7494.2	
566.27	9548.3	
566.47	9807.7	
566.66	8099.7	
566.85	6919.4	
567.05	9211.8	
567.24	8660.2	
567.44	7230.7	
567.63	8307.2	
567.82	9383.8	
568.02	9044.5	
568.21	7234.8	
568.4	7514	
568.6	9034.3	
568.79	9088.9	
568.98	7126.9	
569.18	7275.1	
569.37	9110	
569.56	10710	
569.76	7539.9	
569.95	8321.6	
570.14	9301.2	
570.34	9245.2	
570.53	7058.7	
570.72	7048.4	
570.91	9738.1	
571.11	8923	
571.3	7632.8	
571.49	8256	
571.69	9011.7	
571.88	8627.4	
572.07	7965.2	
572.27	7923.6	
572.46	8596.7	
572.65	9561.3	
572.85	7329.7	
573.04	7647.1	
573.23	9712.2	
573.43	9115.5	
573.62	7130.3	
573.81	7617.1	
574	9207	
574.2	9012.4	
574.39	7415	
574.58	7538.6	
574.78	9867.8	
574.97	9290.3	
575.16	7883.3	
575.36	8033.5	
575.55	9567.4	
575.74	9711.5	
575.93	7187.7	
576.13	8082	
576.32	9099.8	
576.51	9509.4	
576.71	7435.5	
576.9	8646.5	
577.09	9852.8	
577.28	9390.6	
577.48	7856	
577.67	7044.3	
577.86	9054.1	
578.05	9393.4	
578.25	7607.5	
578.44	7740	
578.63	9205.6	
578.83	10221	
579.02	7131	
579.21	8443.8	
579.4	9360.6	
579.6	9125.7	
579.79	7726.3	
579.98	9530.6	
580.17	9723.8	
580.37	9799.5	
580.56	7387	
580.75	7924.3	
580.94	10006	
581.14	9981.8	
581.33	8304.5	
581.52	7458	
581.71	9497.8	
581.91	10251	
582.1	7276.4	
582.29	7764.5	
582.48	9284.1	
582.68	9192	
582.87	8088.1	
583.06	7779.6	
583.25	9596.8	
583.45	9031.5	
583.64	8352.3	
583.83	8924.4	
584.02	9091.6	
584.21	9542.9	
584.41	8381	
584.6	7794.6	
584.79	9333.3	
584.98	9918.3	
585.18	7355.6	
585.37	7328.3	
585.56	8921	
585.75	9546.9	
585.94	7505.1	
586.14	7948.2	
586.33	9959.3	
586.52	9207	
586.71	7838.3	
586.91	7571.3	
587.1	8625.4	
587.29	9471.2	
587.48	7501	
587.67	7449.8	
587.87	9439.1	
588.06	9351	
588.25	8558.5	
588.44	7845.1	
588.63	8972.2	
588.83	9589.3	
589.02	7450.5	
589.21	7240.9	
589.4	8804.2	
589.59	8753.7	
589.78	6567.8	
589.98	6746	
590.17	8241	
590.36	8716.8	
590.55	6177.4	
590.74	6771.3	
590.94	9664.4	
591.13	8552.3	
591.32	6735.8	
591.51	6404.7	
591.7	8988.5	
591.89	8567.3	
592.09	6559	
592.28	6884.6	
592.47	7933.8	
592.66	9560.6	
592.85	6526.2	
593.05	6666.8	
593.24	8484.7	
593.43	9152.4	
593.62	6644.3	
593.81	7158.3	
594	8443.8	
594.19	8754.4	
594.39	6711.2	
594.58	6638.1	
594.77	8782.4	
594.96	9184.5	
595.15	6608.8	
595.34	7153.6	
595.54	8675.9	
595.73	7972.7	
595.92	6046.3	
596.11	6950.1	
596.3	9210.4	
596.49	8091.5	
596.68	6837.5	
596.88	7177.4	
597.07	8856.8	
597.26	8039.6	
597.45	6404.7	
597.64	7486	
597.83	8184.4	
598.02	8664.3	
598.22	6472.9	
598.41	7085.3	
598.6	8445.8	
598.79	8007.6	
598.98	6561.7	
599.17	7352.9	
599.36	8574.8	
599.55	9465.7	
599.74	8289.5	
599.94	8020.5	
600.13	8964.6	
600.32	7962.5	
600.51	6351.4	
600.7	6406	
600.89	9555.1	
601.08	9523.7	
601.27	6341.2	
601.47	7000.6	
601.66	8809.7	
601.85	9343.5	
602.04	6853.2	
602.23	7086	
602.42	8097.7	
602.61	8621.3	
602.8	6771.9	
602.99	6574	
603.18	8422.6	
603.37	8646.5	
603.57	7129	
603.76	7598	
603.95	9282.8	
604.14	8822	
604.33	6645.7	
604.52	6857.3	
604.71	8618.5	
604.9	8315.4	
605.09	7389.1	
605.28	7243.7	
605.47	9044.5	
605.66	8727.8	
605.86	7131	
606.05	6626.5	
606.24	9016.5	
606.43	7878.5	
606.62	6951.5	
606.81	7514.7	
607	8861.6	
607.19	8404.9	
607.38	6415.6	
607.57	6641.6	
607.76	8088.1	
607.95	7647.8	
608.14	6929	
608.33	7456	
608.52	8140	
608.72	8859.5	
608.91	6309.8	
609.1	6225.8	
609.29	8271.7	
609.48	7779.6	
609.67	7150.8	
609.86	6322.8	
610.05	7937.9	
610.24	8187.1	
610.43	6208.1	
610.62	5897.5	
610.81	9080.7	
611	8908.7	
611.19	6258.6	
611.38	6868.9	
611.57	8445.1	
611.76	9442.5	
611.95	6097.5	
612.14	6007.4	
612.33	8196	
612.52	7815	
612.71	6518.7	
612.9	5906.3	
613.09	7499.7	
613.28	9420.7	
613.47	6487.3	
613.66	7096.9	
613.85	8346.2	
614.04	7878.5	
614.24	6397.2	
614.43	5741.1	
614.62	8419.2	
614.81	8322.3	
615	6848.4	
615.19	6875.7	
615.38	7843.7	
615.57	8163.9	
615.76	6765.8	
615.95	7502.4	
616.14	8414.4	
616.33	8129.8	
616.52	7027.9	
616.71	7178.8	
616.9	8374.8	
617.09	8294.3	
617.28	6488	
617.47	7434.8	
617.66	7655.3	
617.85	7703.1	
618.04	7217.7	
618.22	6642.9	
618.41	8090.8	
618.6	8795.3	
618.79	6779.5	
618.98	6458.6	
619.17	9001.5	
619.36	7691.5	
619.55	6643.6	
619.74	6644.3	
619.93	8421.2	
620.12	7901.1	
620.31	7083.9	
620.5	7172	
620.69	9222	
620.88	9181.7	
621.07	7828	
621.26	6984.3	
621.45	8543.4	
621.64	8518.2	
621.83	7142.6	
622.02	6410.8	
622.21	8672.5	
622.4	8376.2	
622.59	7475.8	
622.78	7348.8	
622.97	8099.7	
623.16	8951	
623.35	7058.7	
623.54	6379.4	
623.72	8287.4	
623.91	8402.1	
624.1	7299	
624.29	6184.2	
624.48	9297.8	
624.67	8657.4	
624.86	7192.5	
625.05	6518.7	
625.24	9384.5	
625.43	8077.2	
625.62	8526.4	
625.81	6606.1	
626	8802.9	
626.19	8333.9	
626.38	7303.7	
626.56	6809.5	
626.75	8130.4	
626.94	8822	
627.13	7252.5	
627.32	6318	
627.51	8675.9	
627.7	9681.4	
627.89	6157.6	
628.08	7234.8	
628.27	7968	
628.46	8182.3	
628.65	6510.5	
628.83	6172.6	
629.02	8648.6	
629.21	8116.8	
629.4	6866.8	
629.59	7100.3	
629.78	8015.7	
629.97	8817.2	
630.16	7078.5	
630.35	6700.3	
630.54	9288.2	
630.72	8851.3	
630.91	6647.7	
631.1	7039.6	
631.29	8447.9	
631.48	8639.7	
631.67	7253.2	
631.86	6718.7	
632.05	8178.2	
632.24	8232.2	
632.42	6501.6	
632.61	6913.9	
632.8	8269	
632.99	7920.2	
633.18	6985.6	
633.37	7313.3	
633.56	8531.2	
633.75	8317.5	
633.93	7062.8	
634.12	6672.3	
634.31	9118.9	
634.5	8732.5	
634.69	6699.6	
634.88	7193.8	
635.07	8326.4	
635.25	8763.3	
635.44	7496.9	
635.63	7621.2	
635.82	8176.9	
636.01	7699	
636.2	7464.2	
636.39	7068.9	
636.57	9046.6	
636.76	8751.7	
636.95	6586.3	
637.14	7650.5	
637.33	8542.1	
637.52	9238.4	
637.7	6368.5	
637.89	7260.7	
638.08	8174.8	
638.27	9365.4	
638.46	7249.8	
638.65	7606.8	
638.83	9335.3	
639.02	8090.8	
639.21	7161.7	
639.4	7436.2	
639.59	8306.6	
639.78	8171.4	
639.96	6548.7	
640.15	6514.6	
640.34	8288.8	
640.53	8344.1	
640.72	6317.3	
640.91	6558.3	
641.09	7774.1	
641.28	8961.2	
641.47	6562.4	
641.66	7169.9	
641.85	8331.8	
642.03	8603.5	
642.22	6992.4	
642.41	6573.3	
642.6	7955.7	
642.79	7369.3	
642.97	6395.1	
643.16	7002	
643.35	7868.3	
643.54	7623.9	
643.73	6314.6	
643.91	6987	
644.1	7495.6	
644.29	8048.5	
644.48	6376.7	
644.67	6427.2	
644.85	7651.2	
645.04	7968.6	
645.23	5947.3	
645.42	6296.1	
645.6	7543.4	
645.79	8465.6	
645.98	6277	
646.17	5397.1	
646.36	7356.3	
646.54	7758.4	
646.73	6861.4	
646.92	5808.7	
647.11	7382.2	
647.29	8249.9	
647.48	5864.7	
647.67	5689.9	
647.86	8478.6	
648.05	8431.5	
648.23	6228.6	
648.42	7174.7	
648.61	7970.7	
648.8	7699	
648.98	5787.6	
649.17	6122.7	
649.36	7398.6	
649.55	7060.7	
649.73	5911.8	
649.92	6479.8	
650.11	7265.5	
650.3	7671.7	
650.48	6006	
650.67	5816.9	
650.86	7806.2	
651.05	6822.5	
651.23	5952.8	
651.42	5934.3	
651.61	7335.1	
651.79	7400.7	
651.98	6062	
652.17	5793.7	
652.36	7718.1	
652.54	6920.1	
652.73	5868.8	
652.92	5631.9	
653.11	7761.8	
653.29	7793.9	
653.48	5219.6	
653.67	6128.9	
653.85	7574.1	
654.04	8347.5	
654.23	6183.5	
654.42	5827.2	
654.6	7066.9	
654.79	7613.7	
654.98	5406	
655.16	5771.9	
655.35	6771.9	
655.54	6609.5	
655.73	5399.8	
655.91	5309	
656.1	7532.4	
656.29	6551.5	
656.47	5145.2	
656.66	6470.2	
656.85	6929	
657.03	7042.3	
657.22	5524.1	
657.41	5578.7	
657.59	6944.7	
657.78	6888	
657.97	5258.5	
658.16	5827.8	
658.34	7528.3	
658.53	7919.5	
658.72	6670.9	
658.9	7025.9	
659.09	7263.5	
659.28	7260.7	
659.46	5589.6	
659.65	5627.1	
659.84	6909.8	
660.02	7492.8	
660.21	5515.2	
660.4	5415.5	
660.58	7746.1	
660.77	7214.3	
660.96	6030.6	
661.14	5227.8	
661.33	8144.8	
661.52	8107.2	
661.7	5137.7	
661.89	8150.9	
662.08	6849.8	
662.26	6498.2	
662.45	5395	
662.64	5490.6	
662.82	7467.6	
663.01	6756.2	
663.2	5524.1	
663.38	6143.9	
663.57	7363.8	
663.75	7246.4	
663.94	5776	
664.13	6859.3	
664.31	6821.8	
664.5	7421.8	
664.69	6082.5	
664.87	6421.7	
665.06	6724.8	
665.25	7219.1	
665.43	6597.2	
665.62	6635.4	
665.8	7479.9	
665.99	6995.2	
666.18	5803.9	
666.36	5803.3	
666.55	7533.1	
666.74	7375.4	
666.92	5496.7	
667.11	6800.6	
667.29	7035.5	
667.48	7472.4	
667.67	6429.3	
667.85	5572.5	
668.04	6961	
668.22	7039.6	
668.41	5796.4	
668.6	6014.9	
668.78	6821.8	
668.97	6973.3	
669.15	6156.9	
669.34	5252.4	
669.53	6823.1	
669.71	7101.7	
669.9	5405.3	
670.08	5904.3	
670.27	6752.8	
670.46	7419.1	
670.64	6167.8	
670.83	6292	
671.01	6701.6	
671.2	7215.7	
671.38	5455.1	
671.57	5355.4	
671.76	7815	
671.94	8165.3	
672.13	5317.9	
672.31	6219.7	
672.5	7398.6	
672.69	6842.3	
672.87	5505.6	
673.06	5678.3	
673.24	7236.8	
673.43	6957.6	
673.61	6132.3	
673.8	5670.8	
673.98	7462.8	
674.17	7576.8	
674.36	6129.6	
674.54	6028.5	
674.73	7210.2	
674.91	7447.1	
675.1	5767.8	
675.28	5455.1	
675.47	6992.4	
675.65	7507.9	
675.84	5679	
676.03	5940.5	
676.21	6852.5	
676.4	6363	
676.58	6337.1	
676.77	6106.4	
676.95	8094.3	
677.14	6802.7	
677.32	5405.3	
677.51	5246.9	
677.69	7467.6	
677.88	6563.7	
678.06	5306.3	
678.25	5412.1	
678.44	7070.3	
678.62	6834.8	
678.81	5190.2	
678.99	6035.4	
679.18	7722.9	
679.36	7320.1	
679.55	5655.1	
679.73	6109.1	
679.92	7278.5	
680.1	6881.2	
680.29	6649.8	
680.47	5582.8	
680.66	6821.1	
680.84	7466.9	
681.03	5095.3	
681.21	5966.4	
681.4	6868.2	
681.58	6709.8	
681.77	5486.5	
681.95	5348.6	
682.14	7472.4	
682.32	7715.4	
682.51	6113.9	
682.69	5171.1	
682.88	6681.8	
683.06	7283.9	
683.25	5888.6	
683.43	6283.9	
683.62	7017	
683.8	7339.9	
683.99	6445.6	
684.17	5749.3	
684.36	8008.9	
684.54	6855.2	
684.73	5111.7	
684.91	5221.6	
685.1	7061.4	
685.28	6620.4	
685.46	5677.7	
685.65	5665.4	
685.83	7260.7	
686.02	6760.3	
686.2	5266	
686.39	5375.9	
686.57	6395.1	
686.76	7745.4	
686.94	5287.2	
687.13	5473.5	
687.31	7082.6	
687.5	6812.2	
687.68	4985.4	
687.86	5971.9	
688.05	8213	
688.23	6303.6	
688.42	5998.5	
688.6	5293.3	
688.79	6631.3	
688.97	6654.5	
689.16	5669.5	
689.34	4822.3	
689.52	7281.9	
689.71	7470.3	
689.89	5957.5	
690.08	5313.8	
690.26	6931	
690.45	6708.5	
690.63	6040.1	
690.81	5432.6	
691	6662	
691.18	6567.8	
691.37	5531.6	
691.55	7236.2	
691.74	6497.5	
691.92	8224.6	
692.1	5517.2	
692.29	5064.6	
692.47	6787.7	
692.66	6171.9	
692.84	5173.9	
693.02	5687.9	
693.21	6303.6	
693.39	6739.9	
693.58	5773.2	
693.76	5316.5	
693.94	7624.6	
694.13	7464.8	
694.31	5341.8	
694.5	6237.4	
694.68	6538.5	
694.86	6873.7	
695.05	5643.5	
695.23	5743.2	
695.42	7186.3	
695.6	9170.1	
695.78	6107.7	
695.97	5398.4	
696.15	7211.6	
696.34	6728.3	
696.52	5176.6	
696.7	5898.8	
696.89	7041.6	
697.07	6478.4	
697.25	5793.7	
697.44	6946	
697.62	6952.2	
697.81	7197.2	
697.99	5485.8	
698.17	5925.5	
698.36	6475.7	
698.54	7008.8	
698.72	5773.2	
698.91	4970.4	
699.09	6713.9	
699.28	6488.6	
699.46	5509.7	
699.64	5401.2	
699.83	6443.6	
700.01	7494.9	
700.19	6066.8	
700.38	4745.1	
700.56	7511.9	
700.74	6546.7	
700.93	5118.6	
701.11	5799.8	
701.29	7066.9	
701.48	7968.6	
701.66	5314.5	
701.84	5345.2	
702.03	6631.3	
702.21	7178.1	
702.39	4983.4	
702.58	5436.7	
702.76	7139.9	
702.94	7051.2	
703.13	4962.9	
703.31	6950.1	
703.49	6451.1	
703.68	7472.4	
703.86	5134.9	
704.04	6044.9	
704.23	6869.6	
704.41	7168.6	
704.59	5290.6	
704.78	6284.5	
704.96	7862.8	
705.14	7217.7	
705.33	5078.3	
705.51	5742.5	
705.69	6742.6	
705.87	7380.2	
706.06	5947.3	
706.24	4995.7	
706.42	7037.5	
706.61	7173.4	
706.79	6023.1	
706.97	5057.1	
707.16	6557.6	
707.34	6963.8	
707.52	5978.7	
707.7	5245.5	
707.89	6553.5	
708.07	6365.8	
708.25	5971.9	
708.44	5984.8	
708.62	6570.6	
708.8	7485.3	
708.98	6140.5	
709.17	5343.2	
709.35	6883.9	
709.53	6945.3	
709.72	5083.7	
709.9	5441.5	
710.08	7109.2	
710.26	7212.3	
710.45	6395.8	
710.63	5286.5	
710.81	6753.5	
710.99	6844.3	
711.18	5813.5	
711.36	5360.9	
711.54	6698.2	
711.72	7324.9	
711.91	5468.8	
712.09	5005.9	
712.27	6822.5	
712.45	7301	
712.64	5684.5	
712.82	4722.6	
713	6325.5	
713.18	6451.8	
713.37	4922	
713.55	5961	
713.73	7111.9	
713.91	5927.5	
714.1	5162.2	
714.28	4692.6	
714.46	6726.9	
714.64	6048.3	
714.83	4180.6	
715.01	4805.9	
715.19	6191	
715.37	5608	
715.55	4622.9	
715.74	4832.5	
715.92	6815	
716.1	5133.6	
716.28	5702.2	
716.47	4968.4	
716.65	5821.7	
716.83	5858.6	
717.01	4812.7	
717.19	4894	
717.38	7557.7	
717.56	5490.6	
717.74	5007.3	
717.92	4374.5	
718.1	6645.7	
718.29	5929.6	
718.47	4020.2	
718.65	4665.3	
718.83	6543.9	
719.01	6533.7	
719.2	3990.1	
719.38	4926.7	
719.56	6296.1	
719.74	7580.2	
719.92	4544.4	
720.11	5397.1	
720.29	6313.9	
720.47	5541.1	
720.65	4174.4	
720.83	4934.2	
721.02	5840.1	
721.2	5654.4	
721.38	4939	
721.56	4265.2	
721.74	5255.8	
721.92	5341.1	
722.11	5276.9	
722.29	5051	
722.47	6358.3	
722.65	5773.9	
722.83	4266.6	
723.01	5008.6	
723.2	5795.8	
723.38	5992.4	
723.56	3769.6	
723.74	4780.6	
723.92	5355.4	
724.1	6345.3	
724.29	4207.2	
724.47	5170.4	
724.65	5465.3	
724.83	5322.7	
725.01	4117.8	
725.19	4842.1	
725.37	5447.6	
725.56	5474.2	
725.74	4073.4	
725.92	4291.9	
726.1	5323.4	
726.28	5646.2	
726.46	4597	
726.64	4263.9	
726.83	5643.5	
727.01	5791	
727.19	4012.7	
727.37	4676.2	
727.55	5808	
727.73	6062.7	
727.91	3920.5	
728.09	3842	
728.28	6180.1	
728.46	6546	
728.64	4758.1	
728.82	4738.3	
729	7038.9	
729.18	6402.6	
729.36	4143.7	
729.54	6021	
729.72	7262.1	
729.91	5851	
730.09	5684.5	
730.27	4662.5	
730.45	5871.5	
730.63	6257.2	
730.81	5172.5	
730.99	4377.2	
731.17	6836.1	
731.35	5635.3	
731.53	4757.4	
731.71	4526.7	
731.9	6561.7	
732.08	6727.6	
732.26	4732.2	
732.44	4439.3	
732.62	6758.3	
732.8	6273.6	
732.98	5115.1	
733.16	4252.3	
733.34	6359.6	
733.52	5227.8	
733.7	4756.7	
733.88	4932.2	
734.07	6194.4	
734.25	5969.1	
734.43	4272.7	
734.61	5531.6	
734.79	7146	
734.97	5891.3	
735.15	4395.6	
735.33	4670.7	
735.51	6191	
735.69	5915.9	
735.87	5539.1	
736.05	4859.8	
736.23	6077	
736.41	5775.3	
736.59	4732.2	
736.77	4829.1	
736.95	6425.2	
737.13	5933.6	
737.32	4369	
737.5	4575.8	
737.68	6904.4	
737.86	5885.2	
738.04	4268.6	
738.22	5752.7	
738.4	5639.4	
738.58	5983.5	
738.76	4739	
738.94	3913	
739.12	5818.3	
739.3	5708.4	
739.48	5350	
739.66	5028.4	
739.84	6069.5	
740.02	6075.6	
740.2	4030.4	
740.38	4222.9	
740.56	6358.3	
740.74	5374.6	
740.92	4902.2	
741.1	4754.7	
741.28	5862.7	
741.46	5659.9	
741.64	4489.8	
741.82	4855.7	
742	5890	
742.18	5862.7	
742.36	4631.1	
742.54	4273.4	
742.72	6418.3	
742.9	5300.8	
743.08	4926	
743.26	3907.5	
743.44	6442.9	
743.62	6367.8	
743.8	5085.1	
743.98	4269.3	
744.16	6124.1	
744.34	5822.4	
744.52	5023.7	
744.7	4977.9	
744.88	6269.5	
745.06	5816.2	
745.24	4975.9	
745.42	5098.8	
745.6	6358.9	
745.78	6112.5	
745.96	4059.1	
746.14	4290.5	
746.32	6936.5	
746.5	6289.3	
746.68	4749.2	
746.86	4361.5	
747.03	6563.1	
747.21	5259.2	
747.39	4738.3	
747.57	4238.6	
747.75	5963	
747.93	6262	
748.11	4307.6	
748.29	4250.2	
748.47	7281.9	
748.65	5696.1	
748.83	4852.3	
749.01	4613.4	
749.19	6130.3	
749.37	5367.7	
749.55	4539	
749.73	4605.9	
749.91	5866.1	
750.09	5564.3	
750.26	4658.4	
750.44	4168.3	
750.62	5911.1	
750.8	5821.7	
750.98	4049.5	
751.16	4289.8	
751.34	5992.4	
751.52	5345.9	
751.7	4924	
751.88	3975.1	
752.06	6272.9	
752.24	6115.9	
752.42	3968.3	
752.59	4231.8	
752.77	5803.3	
752.95	6830	
753.13	4918.5	
753.31	4331.5	
753.49	5632.6	
753.67	5934.3	
753.85	4616.8	
754.03	4276.8	
754.21	6148.7	
754.38	6414.9	
754.56	4388.8	
754.74	3611.9	
754.92	5480.4	
755.1	6073.6	
755.28	3623.5	
755.46	3630.4	
755.64	6731	
755.82	6785.6	
755.99	3768.3	
756.17	3852.9	
756.35	4606.6	
756.53	5948.7	
756.71	2933.4	
756.89	3719.1	
757.07	5576.6	
757.25	4788.8	
757.42	4162.8	
757.6	4876.9	
757.78	5671.5	
757.96	4741.7	
758.14	3908.9	
758.32	3543	
758.5	4372.4	
758.67	5156.8	
758.85	3782.6	
759.03	3919.1	
759.21	5276.9	
759.39	4791.6	
759.57	3381.2	
759.75	4336.2	
759.92	5698.8	
760.1	5274.2	
760.28	4683.7	
760.46	4855.7	
760.64	5031.9	
760.82	4805.2	
760.99	4556	
761.17	3856.3	
761.35	5761.6	
761.53	4834.6	
761.71	3979.9	
761.89	4511.7	
762.06	5641.5	
762.24	5225.7	
762.42	4082.3	
762.6	3807.2	
762.78	5221.6	
762.96	5688.6	
763.13	4402.5	
763.31	4075.5	
763.49	5855.1	
763.67	5144.5	
763.85	4764.3	
764.02	5268.1	
764.2	6135.7	
764.38	5382.7	
764.56	3941.7	
764.74	4702.8	
764.91	6174.6	
765.09	5246.2	
765.27	3762.8	
765.45	3571	
765.63	6251.1	
765.8	6107.7	
765.98	3328.6	
766.16	3579.2	
766.34	4907.6	
766.52	4728.1	
766.69	4433.9	
766.87	3473.4	
767.05	5243.5	
767.23	6007.4	
767.41	3762.8	
767.58	3964.9	
767.76	5749.3	
767.94	5740.5	
768.12	3849.5	
768.29	4466.6	
768.47	5307	
768.65	5871.5	
768.83	3462.4	
769	4450.2	
769.18	4958.8	
769.36	5506.3	
769.54	4468	
769.72	3518.4	
769.89	5765	
770.07	5831.2	
770.25	3769.6	
770.43	4886.5	
770.6	6416.3	
770.78	6645.7	
770.96	3951.9	
771.14	4474.8	
771.31	5699.5	
771.49	5197.1	
771.67	3252.2	
771.85	3504.8	
772.02	4509.6	
772.2	5159.5	
772.38	4072.7	
772.55	3724.6	
772.73	5408.7	
772.91	5160.2	
773.09	3966.2	
773.26	4061.8	
773.44	5319.3	
773.62	5074.2	
773.8	3571.7	
773.97	3338.9	
774.15	5433.9	
774.33	5008	
774.5	3485	
774.68	3764.2	
774.86	5551.4	
775.04	5084.4	
775.21	3564.8	
775.39	3525.2	
775.57	5309	
775.74	5582.1	
775.92	3398.9	
776.1	3332.7	
776.27	5304.2	
776.45	6268.8	
776.63	3547.8	
776.81	3164.1	
776.98	4980	
777.16	5848.3	
777.34	3578.5	
777.51	3932.8	
777.69	4939	
777.87	4808.6	
778.04	3685	
778.22	4241.3	
778.4	4817.5	
778.57	5364.3	
778.75	3030.3	
778.93	3284.9	
779.1	4674.1	
779.28	4504.8	
779.46	3090.4	
779.64	3509.5	
779.81	5496.1	
779.99	6189.6	
780.17	4143	
780.34	4284.4	
780.52	5017.5	
780.69	5151.3	
780.87	3785.3	
781.05	3411.2	
781.22	5083.7	
781.4	5141.1	
781.58	3553.9	
781.75	2792.7	
781.93	5053	
782.11	4534.9	
782.28	4291.2	
782.46	3435.1	
782.64	4503.5	
782.81	5313.8	
782.99	3672	
783.17	3521.1	
783.34	5166.3	
783.52	4546.5	
783.69	3727.3	
783.87	4414.7	
784.05	4670.1	
784.22	4614.8	
784.4	4456.4	
784.58	3870	
784.75	5464	
784.93	4650.3	
785.1	3523.9	
785.28	4029	
785.46	5185.5	
785.63	4599.1	
785.81	3476.1	
785.99	3380.5	
786.16	4796.3	
786.34	5043.5	
786.51	3387.3	
786.69	3763.5	
786.87	4385.4	
787.04	4777.9	
787.22	3274	
787.39	4120.5	
787.57	4564.2	
787.75	5500.8	
787.92	4270.7	
788.1	4157.4	
788.27	4589.5	
788.45	4397	
788.63	3966.9	
788.8	2905.4	
788.98	4960.2	
789.15	4371	
789.33	3089	
789.5	3501.3	
789.68	5414.8	
789.86	5481.7	
790.03	3887	
790.21	3417.4	
790.38	5459.9	
790.56	4730.8	
790.73	3347.1	
790.91	3332	
791.09	4626.4	
791.26	5262.6	
791.44	3543.7	
791.61	3030.3	
791.79	4639.3	
791.96	4668.7	
792.14	3202.3	
792.32	2832.3	
792.49	4581.3	
792.67	4793.6	
792.84	3210.5	
793.02	3054.2	
793.19	4934.9	
793.37	5590.3	
793.54	2800.9	
793.72	3134.8	
793.89	5671.5	
794.07	4587.4	
794.25	3500	
794.42	2884.2	
794.6	5536.3	
794.77	5187.5	
794.95	3850.2	
795.12	3367.5	
795.3	4626.4	
795.47	5061.9	
795.65	3690.4	
795.82	3566.9	
796	4519.9	
796.17	6041.5	
796.35	3480.9	
796.52	4129.4	
796.7	5100.1	
796.87	5172.5	
797.05	3465.8	
797.22	4192.2	
797.4	5196.4	
797.57	5939.8	
797.75	3619.4	
797.92	3348.4	
798.1	5440.8	
798.27	4529.4	
798.45	2923.1	
798.62	3107.5	
798.8	4922.6	
798.97	5260.5	
799.15	3762.8	
799.32	3639.2	
799.5	4289.1	
799.67	4903.5	
799.85	3897.3	
800.02	2895.1	
800.2	4588.1	
800.37	4861.2	
800.55	3943	
800.72	3355.9	
800.9	5288.5	
801.07	5610.8	
801.25	4421.6	
801.42	3706.1	
801.6	5307	
801.77	5045.5	
801.95	3465.8	
802.12	3306.8	
802.29	5017.5	
802.47	5028.4	
802.64	3676.1	
802.82	2794.8	
802.99	4572.4	
803.17	5426.4	
803.34	3580.5	
803.52	3210.5	
803.69	5927.5	
803.87	4396.3	
804.04	3583.9	
804.21	3635.1	
804.39	5505.6	
804.56	4723.3	
804.74	3074.7	
804.91	3678.8	
805.09	4588.8	
805.26	4677.6	
805.44	3117.7	
805.61	3392.8	
805.78	5190.9	
805.96	5136.3	
806.13	3674.7	
806.31	3918.4	
806.48	4268	
806.66	4683	
806.83	3694.5	
807	3634.5	
807.18	4601.8	
807.35	4926.7	
807.53	3609.9	
807.7	2914.9	
807.87	5565	
808.05	4659.1	
808.22	3929.4	
808.4	2927.2	
808.57	4601.8	
808.74	4318.5	
808.92	3303.4	
809.09	4102.8	
809.27	4567	
809.44	5037.3	
809.61	2901.3	
809.79	3279.5	
809.96	5629.9	
810.14	5214.8	
810.31	2864.4	
810.48	3490.4	
810.66	4681.7	
810.83	5272.2	
811.01	3320.4	
811.18	3697.3	
811.35	5273.5	
811.53	4199	
811.7	3947.8	
811.87	3705.5	
812.05	4690.5	
812.22	4543.8	
812.39	3210.5	
812.57	3085.6	
812.74	4747.2	
812.92	5974.6	
813.09	3460.4	
813.26	3758.7	
813.44	5796.4	
813.61	4582	
813.78	2939.5	
813.96	3822.9	
814.13	4670.1	
814.3	4392.9	
814.48	4159.4	
814.65	3488.4	
814.82	5588.2	
815	4417.5	
815.17	3485	
815.34	4285	
815.52	4565.6	
815.69	4559.5	
815.87	3442.6	
816.04	3453.6	
816.21	4642.1	
816.38	4182	
816.56	3428.3	
816.73	3220.8	
816.9	5796.4	
817.08	5309	
817.25	3212.6	
817.42	3937.6	
817.6	4255	
817.77	4633.9	
817.94	3558	
818.12	3191.4	
818.29	4433.2	
818.46	6580.1	
818.64	3345	
818.81	3115	
818.98	4410.6	
819.16	6193.7	
819.33	3815.4	
819.5	3573.7	
819.67	5016.2	
819.85	5420.3	
820.02	3461.7	
820.19	3698.6	
820.37	4865.3	
820.54	4525.3	
820.71	3588.7	
820.88	4425.7	
821.06	4864.6	
821.23	4418.2	
821.4	3588	
821.58	3541.6	
821.75	5268.7	
821.92	4800.4	
822.09	2925.2	
822.27	3178.4	
822.44	4627.7	
822.61	4572.4	
822.79	2990.7	
822.96	5451	
823.13	4971.8	
823.3	4356	
823.48	3388	
823.65	3057.6	
823.82	5296.7	
823.99	4282.3	
824.17	4242.7	
824.34	3132.7	
824.51	5953.4	
824.68	4691.9	
824.86	3277.4	
825.03	3572.3	
825.2	4688.5	
825.37	5457.2	
825.55	3263.8	
825.72	3553.9	
825.89	5976	
826.06	5611.4	
826.24	3461.7	
826.41	3520.5	
826.58	5582.1	
826.75	4881.7	
826.92	2804.4	
827.1	3043.3	
827.27	7439.6	
827.44	5952.1	
827.61	3290.4	
827.79	3921.2	
827.96	4442.7	
828.13	4645.5	
828.3	3469.3	
828.47	2930.6	
828.65	4979.3	
828.82	4877.6	
828.99	4375.8	
829.16	3831.1	
829.34	5227.8	
829.51	4947.2	
829.68	3579.8	
829.85	3639.2	
830.02	5459.2	
830.2	5226.4	
830.37	2797.5	
830.54	4218.8	
830.71	5818.3	
830.88	4650.9	
831.05	2822.1	
831.23	3222.8	
831.4	5700.9	
831.57	6201.2	
831.74	3306.1	
831.91	2927.2	
832.09	4917.2	
832.26	5176.6	
832.43	3391.4	
832.6	3791.5	
832.77	4900.1	
832.94	5543.2	
833.12	2738.8	
833.29	3350.5	
833.46	4560.8	
833.63	6501.6	
833.8	3678.2	
833.97	3415.3	
834.15	5239.4	
834.32	5012.1	
834.49	3511.6	
834.66	3581.2	
834.83	5315.8	
835	4465.3	
835.17	3282.2	
835.35	3313.6	
835.52	5130.2	
835.69	4999.1	
835.86	3424.9	
836.03	2848	
836.2	5187.5	
836.37	4881.7	
836.55	3388.7	
836.72	3210.5	
836.89	4760.8	
837.06	5343.2	
837.23	3439.2	
837.4	3768.3	
837.57	5850.4	
837.75	6445.6	
837.92	3175	
838.09	3310.2	
838.26	4832.5	
838.43	5409.4	
838.6	3560.7	
838.77	3236.5	
838.94	6070.2	
839.11	5863.3	
839.29	3404.4	
839.46	2724.5	
839.63	5145.9	
839.8	4967	
839.97	3265.8	
840.14	3281.5	
840.31	4986.8	
840.48	5239.4	
840.65	2806.4	
840.82	3205.1	
841	5142.4	
841.17	5031.9	
841.34	3053.5	
841.51	3128.6	
841.68	5129.5	
841.85	4887.8	
842.02	3213.9	
842.19	2650.8	
842.36	4975.9	
842.53	4978.6	
842.7	3033.7	
842.87	3661.8	
843.05	6346.7	
843.22	4864.6	
843.39	2902	
843.56	3091.8	
843.73	4764.9	
843.9	5240.8	
844.07	4823	
844.24	4059.8	
844.41	7247.1	
844.58	4589.5	
844.75	2940.9	
844.92	3186	
845.09	5146.5	
845.26	5141.1	
845.43	2992.8	
845.6	3225.6	
845.77	5213.4	
845.94	4947.2	
846.12	3350.5	
846.29	3506.1	
846.46	5339.1	
846.63	5153.4	
846.8	3014.6	
846.97	3588	
847.14	5535.7	
847.31	5118.6	
847.48	3379.8	
847.65	3724.6	
847.82	5397.8	
847.99	5343.2	
848.16	4037.9	
848.33	3700	
848.5	4838	
848.67	5578	
848.84	2988.7	
849.01	3113.6	
849.18	4735.6	
849.35	4399.7	
849.52	3757.3	
849.69	2943.6	
849.86	5323.4	
850.03	5480.4	
850.2	3009.1	
850.37	3728	
850.54	5389.6	
850.71	4890.5	
850.88	3643.3	
851.05	3031	
851.22	5089.2	
851.39	5563	
851.56	2869.2	
851.73	3467.2	
851.9	4569	
852.07	5390.9	
852.24	3348.4	
852.41	2998.9	
852.58	5083.7	
852.75	4659.8	
852.92	3431.7	
853.09	2981.8	
853.26	4869.4	
853.43	5462.6	
853.6	2994.8	
853.77	2609.1	
853.94	5573.2	
854.11	4562.2	
854.28	4392.2	
854.44	3263.8	
854.61	5904.3	
854.78	5397.1	
854.95	3007.1	
855.12	3781.9	
855.29	4219.5	
855.46	5710.4	
855.63	3027.6	
855.8	4152.6	
855.97	4753.3	
856.14	5519.3	
856.31	4238.6	
856.48	3326.6	
856.65	4810	
856.82	4559.5	
856.99	2922.5	
857.16	3287	
857.33	6059.9	
857.49	4884.4	
857.66	3228.3	
857.83	3453.6	
858	4912.4	
858.17	5083.1	
858.34	2857.6	
858.51	2999.6	
858.68	5775.3	
858.85	5738.4	
859.02	3498.6	
859.19	3632.4	
859.36	4634.6	
859.52	4582	
859.69	3046.7	
859.86	3538.9	
860.03	4634.6	
860.2	5573.2	
860.37	2763.4	
860.54	3058.3	
860.71	5296.7	
860.88	5628.5	
861.05	3360.7	
861.21	3762.8	
861.38	5734.3	
861.55	4450.9	
861.72	2784.6	
861.89	3379.1	
862.06	5403.9	
862.23	5862.7	
862.4	2942.2	
862.56	3144.3	
862.73	5217.5	
862.9	4988.2	
863.07	3480.2	
863.24	2810.5	
863.41	4534.9	
863.58	4593.6	
863.75	3104.7	
863.91	3471.3	
864.08	5596.4	
864.25	5297.4	
864.42	3721.8	
864.59	4183.3	
864.76	5937.7	
864.93	4592.2	
865.09	2962.7	
865.26	3213.3	
865.43	5528.2	
865.6	5842.9	
865.77	2676.7	
865.94	3016	
866.1	5537	
866.27	5324.7	
866.44	4446.8	
866.61	2822.8	
866.78	4882.4	
866.95	5241.4	
867.11	2962	
867.28	2696.5	
867.45	5452.4	
867.62	4597.7	
867.79	3446.7	
867.96	3035.8	
868.12	4537.6	
868.29	5345.9	
868.46	2617.3	
868.63	3977.8	
868.8	5492.7	
868.97	5292.6	
869.13	3138.2	
869.3	3136.8	
869.47	5227.1	
869.64	5401.2	
869.81	3059	
869.97	3043.3	
870.14	5167	
870.31	5712.5	
870.48	2925.9	
870.65	3804.4	
870.81	4855.1	
870.98	4874.8	
871.15	3403	
871.32	3101.3	
871.48	5250.3	
871.65	5730.9	
871.82	3026.9	
871.99	3324.5	
872.16	6109.8	
872.32	5571.2	
872.49	3020.8	
872.66	3089.7	
872.83	5360.9	
872.99	4706.9	
873.16	3476.1	
873.33	2983.2	
873.5	5005.2	
873.67	5083.7	
873.83	3194.8	
874	4002.4	
874.17	5153.4	
874.34	5952.1	
874.5	3915.7	
874.67	3725.9	
874.84	5698.8	
875.01	4519.2	
875.17	4137.6	
875.34	3016	
875.51	5100.8	
875.68	6043.6	
875.84	3626.3	
876.01	4347.8	
876.18	5276.3	
876.34	5221	
876.51	3076.7	
876.68	2961.4	
876.85	4830.5	
877.01	5529.5	
877.18	4233.2	
877.35	3003.7	
877.52	5062.6	
877.68	4522.6	
877.85	2990.7	
878.02	3053.5	
878.18	4928.8	
878.35	4707.6	
878.52	2466.4	
878.69	3388.7	
878.85	5395.7	
879.02	5287.9	
879.19	4173.8	
879.35	3216.7	
879.52	5317.2	
879.69	5393.7	
879.86	2577.7	
880.02	3360.7	
880.19	4928.1	
880.36	5941.8	
880.52	3435.8	
880.69	3577.1	
880.86	5394.3	
881.02	5430.5	
881.19	3308.8	
881.36	3292.5	
881.52	5261.2	
881.69	4734.2	
881.86	3257	
882.02	3192.1	
882.19	5509.7	
882.36	6429.9	
882.52	3074	
882.69	4132.8	
882.86	5087.2	
883.02	5053	
883.19	3637.2	
883.36	3394.2	
883.52	5330.2	
883.69	6066.8	
883.86	3064.4	
884.02	2810.5	
884.19	5335	
884.36	5005.2	
884.52	3434.4	
884.69	3252.9	
884.86	4754	
885.02	5814.9	
885.19	3364.8	
885.36	3485	
885.52	4972.5	
885.69	5135.6	
885.86	4314.4	
886.02	3777.8	
886.19	5368.4	
886.35	4868	
886.52	3381.2	
886.69	4151.9	
886.85	4554	
887.02	5609.4	
887.19	5609.4	
887.35	5609.4	
887.52	5609.4	
887.68	5609.4	
887.85	5609.4	
888.02	5609.4	
888.18	5609.4	
888.35	5609.4	
888.51	5609.4	
888.68	5609.4	
888.85	5609.4	
889.01	5609.4	
889.18	5609.4	
889.35	5609.4	
889.51	5609.4	
889.68	5609.4	
889.84	5609.4	
890.01	5609.4	
890.17	5609.4	
890.34	5609.4	
890.51	5609.4	
890.67	5609.4	
890.84	5609.4	
891	5609.4	
891.17	5609.4	
891.34	5609.4	
891.5	5609.4	
891.67	5609.4	
891.83	5609.4	
892	5609.4	
892.16	5609.4	
892.33	5609.4	
892.5	5609.4	
892.66	5609.4	
892.83	5609.4	
892.99	5609.4	
893.16	5609.4	
893.32	5609.4	
893.49	5609.4	
893.65	5609.4	
893.82	5609.4	
893.99	5609.4	
894.15	5609.4	
894.32	5609.4	
894.48	5609.4	
894.65	5609.4	
894.81	5609.4	
894.98	5609.4	
895.14	5609.4	
895.31	5609.4	
895.47	5609.4	
895.64	5609.4	
895.81	5609.4	
895.97	5609.4	
896.14	5609.4	
896.3	5609.4	
896.47	5609.4	
896.63	5609.4	
896.8	5609.4	
896.96	5609.4	
897.13	5609.4	
897.29	5609.4	
897.46	5609.4	
897.62	5609.4	
897.79	5609.4	
897.95	5609.4	
898.12	5609.4	
898.28	5609.4	
898.45	5609.4	
898.61	5609.4	
898.78	5609.4	
898.94	5609.4	
899.11	5609.4	
899.27	5609.4	
899.44	5609.4	
899.6	5609.4	
899.77	5609.4	
899.93	5609.4	
900.1	5609.4	
900.26	5609.4	
900.43	5609.4	
900.59	5609.4	
900.76	5609.4	
900.92	5609.4	
901.09	5609.4	
901.25	5609.4	
901.42	5609.4	
901.58	5609.4	
901.75	5609.4	
901.91	5609.4	
902.07	5609.4	
902.24	5609.4	
902.4	5609.4	
902.57	5609.4	
902.73	5609.4	
902.9	5609.4	
903.06	5609.4	
903.23	5609.4	
903.39	5609.4	
903.56	5609.4	
903.72	5609.4	
903.88	5609.4	
904.05	5609.4	
904.21	5609.4	
904.38	5609.4	
904.54	5609.4	
904.71	5609.4	
904.87	5609.4	
905.03	5609.4	
905.2	5609.4	
905.36	5609.4	
905.53	5609.4	
905.69	5609.4	
905.86	5609.4	
906.02	5609.4	
906.18	5609.4	
906.35	5609.4	
906.51	5609.4	
906.68	5609.4	
906.84	5609.4	
907.01	5609.4	
907.17	5609.4	
907.33	5609.4	
907.5	5609.4	
907.66	5609.4	
907.83	5609.4	
907.99	5609.4	
908.15	5609.4	
908.32	5609.4	
908.48	5609.4	
908.65	5609.4	
908.81	5609.4	
908.97	5609.4	
909.14	5609.4	
909.3	5609.4	
909.47	5609.4	
909.63	5609.4	
909.79	5609.4	
909.96	5609.4	
910.12	5609.4	
910.28	5609.4	
910.45	5609.4	
910.61	5609.4	
910.78	5609.4	
910.94	5609.4	
911.1	5609.4	
911.27	5609.4	
911.43	5609.4	
911.59	5609.4	
911.76	5609.4	
911.92	5609.4	
912.08	5609.4	
912.25	5609.4	
912.41	5609.4	
912.57	5609.4	
912.74	5609.4	
912.9	5609.4	
913.07	5609.4	
913.23	5609.4	
913.39	5609.4	
913.56	5609.4	
913.72	5609.4	
913.88	5609.4	
914.05	5609.4	
914.21	5609.4	
914.37	5609.4	
914.54	5609.4	
914.7	5609.4	
914.86	5609.4	
915.03	5609.4	
915.19	5609.4	
