Wavelength	Intensities	
nm	a.u.	
179.22	1654.8	
179.44	1659.5	
179.65	1650	
179.86	1669.1	
180.08	1658.2	
180.29	3824.2	
180.51	2954.5	
180.72	4878.3	
180.94	5406	
181.15	2660.3	
181.37	2650.1	
181.58	4679.6	
181.79	4915.8	
182.01	2776.4	
182.22	2915.6	
182.44	4891.2	
182.65	4229.1	
182.87	3547.8	
183.08	3117.7	
183.29	5195.7	
183.51	4307.6	
183.72	2925.2	
183.94	4011.3	
184.15	4649.6	
184.37	4635.2	
184.58	2646.7	
184.79	3328.6	
185.01	4424.3	
185.22	4990.9	
185.44	3482.9	
185.65	3082.9	
185.86	4664.6	
186.08	4261.1	
186.29	2573.6	
186.51	2723.1	
186.72	4405.9	
186.94	5074.2	
187.15	3140.9	
187.36	3194.8	
187.58	6206	
187.79	4730.1	
188.01	3248.8	
188.22	4885.1	
188.43	5523.4	
188.65	4919.9	
188.86	2707.4	
189.08	3209.2	
189.29	4499.4	
189.5	4465.3	
189.72	2936.1	
189.93	3003.7	
190.15	5034.6	
190.36	5739.8	
190.57	3239.9	
190.79	3130	
191	5011.4	
191.22	5034.6	
191.43	3216	
191.64	2755.9	
191.86	5311.7	
192.07	5020.9	
192.29	2810.5	
192.5	2886.3	
192.71	5083.7	
192.93	4446.1	
193.14	2919	
193.35	3022.1	
193.57	4474.1	
193.78	5033.2	
194	2430.9	
194.21	2903.3	
194.42	4320.5	
194.64	4602.5	
194.85	3099.3	
195.07	3644	
195.28	4593.6	
195.49	4148.5	
195.71	3708.9	
195.92	2806.4	
196.13	4852.3	
196.35	4846.2	
196.56	3981.3	
196.78	3188.7	
196.99	5754.8	
197.2	5352	
197.42	3491.8	
197.63	3164.1	
197.84	4237.9	
198.06	4773.1	
198.27	2979.1	
198.48	3758	
198.7	4447.5	
198.91	4668	
199.13	3183.9	
199.34	3160.7	
199.55	5043.5	
199.77	4120.5	
199.98	2816	
200.19	3176.4	
200.41	4604.5	
200.62	4352.6	
200.83	3301.3	
201.05	3542.3	
201.26	4644.8	
201.47	4457.1	
201.69	2867.8	
201.9	2790	
202.11	4672.8	
202.33	5332.2	
202.54	3024.8	
202.76	3356.6	
202.97	4713.1	
203.18	4724	
203.4	3299.3	
203.61	3297.9	
203.82	4737	
204.04	4383.3	
204.25	3175.7	
204.46	3112.9	
204.68	4681	
204.89	4812	
205.1	3087	
205.32	2736.8	
205.53	4874.2	
205.74	5049.6	
205.96	2414.6	
206.17	3203	
206.38	4889.9	
206.6	4962.9	
206.81	3625.6	
207.02	3005.7	
207.24	4871.4	
207.45	5094.7	
207.66	3046.7	
207.88	2672.6	
208.09	4801.8	
208.3	4632.5	
208.52	2831.7	
208.73	3121.1	
208.94	4607.9	
209.15	5092.6	
209.37	3035.1	
209.58	3149.1	
209.79	5048.9	
210.01	4515.8	
210.22	2577.7	
210.43	2637.8	
210.65	4622.3	
210.86	4875.5	
211.07	3071.3	
211.29	2813.2	
211.5	4816.1	
211.71	4604.5	
211.93	2849.4	
212.14	2847.4	
212.35	4598.4	
212.56	4631.8	
212.78	3187.3	
212.99	2678.1	
213.2	5323.4	
213.42	4467.3	
213.63	2889.7	
213.84	3067.9	
214.06	4233.2	
214.27	4237.9	
214.48	3037.8	
214.69	3212.6	
214.91	5137	
215.12	5153.4	
215.33	3213.9	
215.55	3510.9	
215.76	5525.4	
215.97	4941.7	
216.18	3147	
216.4	3133.4	
216.61	4412	
216.82	4966.3	
217.04	2885.6	
217.25	2947.7	
217.46	5111.7	
217.67	4922	
217.89	2624.1	
218.1	2704	
218.31	4682.3	
218.53	4771.1	
218.74	3032.4	
218.95	2838.5	
219.16	4612	
219.38	5314.5	
219.59	2892.4	
219.8	3313.6	
220.01	5657.2	
220.23	4684.4	
220.44	3571.7	
220.65	2817.3	
220.87	4804.5	
221.08	5104.9	
221.29	2691.7	
221.5	3387.3	
221.72	6024.4	
221.93	4398.4	
222.14	3192.1	
222.35	3639.2	
222.57	4614.1	
222.78	4932.2	
222.99	3129.3	
223.2	3289.7	
223.42	4845.5	
223.63	4882.4	
223.84	2411.1	
224.05	2426.8	
224.27	5502.9	
224.48	5215.5	
224.69	3745.7	
224.9	3222.8	
225.12	4747.2	
225.33	4615.4	
225.54	2626.9	
225.75	2925.2	
225.97	4362.2	
226.18	4556.7	
226.39	3030.3	
226.6	2912.2	
226.82	4515.8	
227.03	4328.7	
227.24	3174.4	
227.45	2687.6	
227.67	4973.2	
227.88	5213.4	
228.09	3499.3	
228.3	3507.5	
228.52	4891.2	
228.73	4573.8	
228.94	2994.8	
229.15	2685.6	
229.36	4685.1	
229.58	4620.9	
229.79	3046	
230	3455.6	
230.21	5466	
230.43	4716.5	
230.64	3137.5	
230.85	3209.8	
231.06	5018.9	
231.28	4916.5	
231.49	2674.6	
231.7	3131.3	
231.91	4883	
232.12	4666	
232.34	2795.5	
232.55	3078.1	
232.76	5072.1	
232.97	4723.3	
233.18	2891.7	
233.4	3147	
233.61	4799.1	
233.82	4459.8	
234.03	3030.3	
234.25	2980.5	
234.46	6109.8	
234.67	4649.6	
234.88	3225.6	
235.09	2851.5	
235.31	4844.1	
235.52	4567	
235.73	3147.7	
235.94	2770.2	
236.15	4440.7	
236.37	5406.6	
236.58	2861.7	
236.79	3080.8	
237	4831.2	
237.21	4175.1	
237.43	3285.6	
237.64	2669.2	
237.85	7485.3	
238.06	4341.7	
238.27	3291.8	
238.48	2750.4	
238.7	4893.3	
238.91	4547.2	
239.12	2995.5	
239.33	3215.3	
239.54	4377.2	
239.76	4541	
239.97	3051.5	
240.18	3074.7	
240.39	5478.3	
240.6	4767	
240.82	3184.6	
241.03	2708.1	
241.24	4582.7	
241.45	5229.1	
241.66	2816	
241.87	3299.3	
242.09	5167.7	
242.3	5348.6	
242.51	3273.3	
242.72	3055.6	
242.93	4932.2	
243.14	4625	
243.36	3439.2	
243.57	3769.6	
243.78	5225.7	
243.99	4882.4	
244.2	2998.9	
244.41	2801.6	
244.63	4302.1	
244.84	4857.1	
245.05	3287.7	
245.26	3013.2	
245.47	4840.7	
245.68	4934.9	
245.9	3951.2	
246.11	3179.8	
246.32	4496.7	
246.53	4818.9	
246.74	4753.3	
246.95	2704	
247.16	4380.6	
247.38	4672.1	
247.59	2683.5	
247.8	3074.7	
248.01	4318.5	
248.22	4588.1	
248.43	2813.2	
248.64	2995.5	
248.86	4286.4	
249.07	4470.7	
249.28	2755.2	
249.49	3150.5	
249.7	4995.7	
249.91	5048.9	
250.12	2649.4	
250.34	2732.7	
250.55	4731.5	
250.76	4627.7	
250.97	3152.5	
251.18	3188	
251.39	5065.3	
251.6	4757.4	
251.81	3222.8	
252.03	3165.5	
252.24	4482.3	
252.45	4971.1	
252.66	2747	
252.87	3349.8	
253.08	4669.4	
253.29	5732.9	
253.5	2749.1	
253.72	3679.5	
253.93	4622.9	
254.14	5319.9	
254.35	2919.7	
254.56	2992.8	
254.77	4808.6	
254.98	4375.8	
255.19	2918.4	
255.41	3631	
255.62	4788.2	
255.83	5072.8	
256.04	3209.8	
256.25	3181.2	
256.46	5443.5	
256.67	4440.7	
256.88	3183.9	
257.09	3411.2	
257.31	4288.4	
257.52	4331.5	
257.73	3878.2	
257.94	2956.6	
258.15	4634.6	
258.36	4618.9	
258.57	3573	
258.78	2470.5	
258.99	4964.3	
259.2	4519.2	
259.41	2900.6	
259.63	3005.1	
259.84	5243.5	
260.05	5418.9	
260.26	3754.6	
260.47	2900.6	
260.68	5094.7	
260.89	4618.9	
261.1	3472	
261.31	2828.2	
261.52	5064.6	
261.73	5264.6	
261.95	3683.6	
262.16	3238.5	
262.37	5156.8	
262.58	5221.6	
262.79	3725.9	
263	2990	
263.21	4704.2	
263.42	4227	
263.63	3211.2	
263.84	2976.4	
264.05	5020.3	
264.26	5272.8	
264.47	3502	
264.69	3153.2	
264.9	5161.6	
265.11	4761.5	
265.32	2900.6	
265.53	2962.7	
265.74	4772.4	
265.95	4186.7	
266.16	3090.4	
266.37	3317	
266.58	4723.3	
266.79	4470	
267	2933.4	
267.21	2807.8	
267.42	4315.1	
267.63	4594.3	
267.84	3090.4	
268.06	2685.6	
268.27	4978.6	
268.48	5119.9	
268.69	3007.1	
268.9	3451.5	
269.11	5095.3	
269.32	4218.1	
269.53	3082.2	
269.74	2835.1	
269.95	4845.5	
270.16	4147.1	
270.37	3100.6	
270.58	3445.4	
270.79	4575.2	
271	4967.7	
271.21	3243.3	
271.42	3088.3	
271.63	4805.2	
271.84	4349.2	
272.05	2527.2	
272.26	2819.4	
272.47	4636.6	
272.68	4788.2	
272.89	2985.3	
273.11	3321.1	
273.32	4504.8	
273.53	5222.3	
273.74	3257	
273.95	3218	
274.16	5031.9	
274.37	4635.9	
274.58	3353.9	
274.79	2779.8	
275	4814.1	
275.21	5047.6	
275.42	3908.2	
275.63	3433.1	
275.84	4858.5	
276.05	5826.5	
276.26	3191.4	
276.47	3016.7	
276.68	4618.2	
276.89	5369.1	
277.1	3431.7	
277.31	2766.8	
277.52	4777.2	
277.73	5086.5	
277.94	2710.1	
278.15	2971.6	
278.36	4818.2	
278.57	4401.8	
278.78	2949.8	
278.99	3302.7	
279.2	4476.2	
279.41	4371	
279.62	3760.8	
279.83	2806.4	
280.04	5518.6	
280.25	4379.2	
280.46	3767.6	
280.67	3094.5	
280.88	4431.1	
281.09	5083.1	
281.3	3153.9	
281.51	3864.5	
281.72	4422.9	
281.93	4943.1	
282.14	2930.6	
282.35	3117.7	
282.56	5021.6	
282.77	4975.2	
282.98	2962.7	
283.19	3556	
283.4	5938.4	
283.61	4603.2	
283.82	2822.8	
284.03	3676.8	
284.24	4822.3	
284.45	5060.5	
284.66	3704.1	
284.87	3517	
285.08	5030.5	
285.29	5113.8	
285.5	2710.1	
285.71	2958.6	
285.92	5018.2	
286.12	5512.4	
286.33	3694.5	
286.54	3038.5	
286.75	4954	
286.96	4571.1	
287.17	2837.1	
287.38	3541.6	
287.59	4470.7	
287.8	4410.6	
288.01	3060.3	
288.22	3340.9	
288.43	4898.7	
288.64	4218.8	
288.85	3541.6	
289.06	3405.1	
289.27	4973.8	
289.48	5175.9	
289.69	3725.3	
289.9	3442.6	
290.11	5143.1	
290.32	4475.5	
290.53	3494.5	
290.74	3269.2	
290.94	4947.2	
291.15	5008.6	
291.36	2951.8	
291.57	3358	
291.78	4511.7	
291.99	4232.5	
292.2	2824.1	
292.41	3263.1	
292.62	5044.1	
292.83	4887.1	
293.04	3930.1	
293.25	2884.2	
293.46	4558.8	
293.67	5014.8	
293.88	2863.1	
294.09	2830.3	
294.29	4360.1	
294.5	4728.8	
294.71	3051.5	
294.92	2925.2	
295.13	4515.1	
295.34	5414.1	
295.55	2708.8	
295.76	2686.3	
295.97	4970.4	
296.18	5397.8	
296.39	2776.4	
296.6	2901.3	
296.81	4669.4	
297.01	4930.1	
297.22	2987.3	
297.43	2929.3	
297.64	4464.6	
297.85	4381.3	
298.06	2497.8	
298.27	2678.1	
298.48	4637.3	
298.69	4452.3	
298.9	3093.8	
299.11	2857.6	
299.31	4321.9	
299.52	4351.9	
299.73	3349.8	
299.94	3244.7	
300.15	4716.5	
300.36	4425.7	
300.57	3250.8	
300.78	3246	
300.99	4511	
301.2	4745.1	
301.4	2950.4	
301.61	3094.5	
301.82	4869.4	
302.03	4955.4	
302.24	3439.2	
302.45	2816.6	
302.66	4908.3	
302.87	5064.6	
303.08	2942.2	
303.29	3830.4	
303.49	4532.8	
303.7	4612	
303.91	2665.1	
304.12	3678.8	
304.33	4285.7	
304.54	4792.9	
304.75	2945	
304.96	2887	
305.16	4899.4	
305.37	5408.7	
305.58	2627.5	
305.79	2655.5	
306	4923.3	
306.21	4194.2	
306.42	2889	
306.63	4235.9	
306.83	4571.1	
307.04	4958.8	
307.25	3127.2	
307.46	3134.8	
307.67	4171.7	
307.88	4917.9	
308.09	2922.5	
308.29	2934.1	
308.5	4727.4	
308.71	5063.9	
308.92	3076.7	
309.13	2810.5	
309.34	4676.9	
309.55	4640	
309.75	3590.1	
309.96	3245.3	
310.17	4915.8	
310.38	4404.5	
310.59	3360	
310.8	2749.7	
311.01	4508.9	
311.21	4664.6	
311.42	2843.9	
311.63	2876.7	
311.84	4526.7	
312.05	4730.1	
312.26	3247.4	
312.46	3461.1	
312.67	4567.7	
312.88	4308.9	
313.09	2807.8	
313.3	2781.8	
313.51	5120.6	
313.71	5423	
313.92	2884.2	
314.13	2979.8	
314.34	4833.2	
314.55	4609.3	
314.76	3457.7	
314.96	3083.6	
315.17	4788.8	
315.38	4861.9	
315.59	2818.7	
315.8	2726.5	
316.01	5186.1	
316.21	5312.4	
316.42	2827.6	
316.63	3132	
316.84	4552	
317.05	5084.4	
317.26	3276.8	
317.46	2977.7	
317.67	4588.1	
317.88	4901.5	
318.09	3513.6	
318.3	2720.4	
318.5	4482.3	
318.71	4866	
318.92	4356.7	
319.13	3297.9	
319.34	5028.4	
319.54	5085.1	
319.75	2659.6	
319.96	2556.5	
320.17	4898.1	
320.38	5007.3	
320.58	2618	
320.79	3041.9	
321	5070.1	
321.21	5193	
321.42	3138.2	
321.62	2626.9	
321.83	4412	
322.04	4731.5	
322.25	3012.6	
322.46	2865.1	
322.66	4699.4	
322.87	4878.9	
323.08	3415.3	
323.29	2743.6	
323.5	5431.9	
323.7	4315.8	
323.91	3697.3	
324.12	3374.4	
324.33	4711.7	
324.53	4855.7	
324.74	3260.4	
324.95	3390.1	
325.16	4270	
325.37	4542.4	
325.57	2837.8	
325.78	2894.5	
325.99	4730.1	
326.2	4323.3	
326.4	3790.1	
326.61	2658.3	
326.82	4560.1	
327.03	4739.7	
327.24	3845.4	
327.44	3601	
327.65	4851.6	
327.86	4061.8	
328.07	3220.8	
328.27	2864.4	
328.48	5156.8	
328.69	4292.5	
328.9	3861.8	
329.1	3022.1	
329.31	4612.7	
329.52	5187.5	
329.73	2824.8	
329.93	3096.5	
330.14	4790.9	
330.35	4799.8	
330.56	4347.2	
330.76	3398.3	
330.97	4581.3	
331.18	4691.9	
331.39	3125.9	
331.59	2593.4	
331.8	5065.3	
332.01	5175.2	
332.22	2930	
332.42	3248.1	
332.63	4757.4	
332.84	4360.8	
333.05	3117.7	
333.25	2896.5	
333.46	4474.8	
333.67	4650.3	
333.88	3013.2	
334.08	3211.9	
334.29	5865.4	
334.5	5010	
334.7	2819.4	
334.91	3855.6	
335.12	4262.5	
335.33	4890.5	
335.53	3110.9	
335.74	4294.6	
335.95	4581.3	
336.16	4351.9	
336.36	3102.7	
336.57	3505.4	
336.78	4258.4	
336.98	5027.8	
337.19	3721.8	
337.4	3065.8	
337.61	5493.3	
337.81	4310.3	
338.02	2888.3	
338.23	3590.1	
338.43	5235.3	
338.64	4402.5	
338.85	2835.8	
339.05	3652.2	
339.26	5300.8	
339.47	4224.3	
339.68	2883.5	
339.88	3966.9	
340.09	4866	
340.3	5031.9	
340.5	3264.5	
340.71	2560.6	
340.92	4331.5	
341.13	5176.6	
341.33	2763.4	
341.54	3252.2	
341.75	4792.2	
341.95	4548.5	
342.16	3183.2	
342.37	3365.5	
342.57	4319.2	
342.78	4597.7	
342.99	3461.7	
343.19	2608.4	
343.4	4954	
343.61	4825	
343.81	3005.1	
344.02	2749.7	
344.23	4945.8	
344.43	5248.3	
344.64	3450.8	
344.85	3374.4	
345.06	4846.2	
345.26	5046.9	
345.47	3263.1	
345.68	3694.5	
345.88	4267.3	
346.09	4979.3	
346.3	3310.9	
346.5	2562	
346.71	4659.1	
346.92	4431.1	
347.12	2708.1	
347.33	3213.9	
347.54	5033.9	
347.74	5287.2	
347.95	3214.6	
348.16	2540.8	
348.36	4547.9	
348.57	4371	
348.78	3239.2	
348.98	3409.2	
349.19	4626.4	
349.39	4195.6	
349.6	2731.3	
349.81	2912.2	
350.01	4902.8	
350.22	4431.8	
350.43	3204.4	
350.63	3680.2	
350.84	4662.5	
351.05	4504.2	
351.25	2902	
351.46	2665.8	
351.67	5043.5	
351.87	4390.8	
352.08	3053.5	
352.29	3378.5	
352.49	4994.3	
352.7	4698	
352.9	2777	
353.11	3478.1	
353.32	5455.1	
353.52	4535.6	
353.73	2837.8	
353.94	3508.2	
354.14	4906.9	
354.35	4687.8	
354.55	2934.7	
354.76	3203	
354.97	4871.4	
355.17	4624.3	
355.38	2819.4	
355.59	3633.1	
355.79	4453	
356	4709	
356.2	3175	
356.41	2838.5	
356.62	4326	
356.82	4650.3	
357.03	3445.4	
357.24	3129.3	
357.44	4459.1	
357.65	4569.7	
357.85	3909.6	
358.06	3216	
358.27	4271.4	
358.47	4433.9	
358.68	2798.2	
358.88	3433.1	
359.09	4932.9	
359.3	5110.4	
359.5	3856.3	
359.71	3531.4	
359.91	5466.7	
360.12	4944.5	
360.33	3478.1	
360.53	3717.1	
360.74	4592.2	
360.94	4573.1	
361.15	3592.8	
361.36	3069.9	
361.56	5165.7	
361.77	4768.4	
361.97	3982.6	
362.18	3259.7	
362.38	5215.5	
362.59	4489.8	
362.8	3013.2	
363	2876	
363.21	4351.9	
363.41	4853	
363.62	3382.6	
363.83	4097.3	
364.03	5023.7	
364.24	5545.9	
364.44	4254.3	
364.65	4187.4	
364.85	4809.3	
365.06	4493.9	
365.27	3183.9	
365.47	3271.3	
365.68	5457.8	
365.88	4784.7	
366.09	3454.2	
366.29	3285.6	
366.5	4952.7	
366.71	5242.1	
366.91	4192.2	
367.12	3597.6	
367.32	5745.2	
367.53	5193	
367.73	3736.2	
367.94	4323.9	
368.14	5178.6	
368.35	5728.9	
368.56	3627.6	
368.76	3153.2	
368.97	5297.4	
369.17	6322.8	
369.38	3229	
369.58	3497.9	
369.79	4525.3	
369.99	5527.5	
370.2	4240.7	
370.4	3499.3	
370.61	4959.5	
370.82	5889.3	
371.02	3484.3	
371.23	2942.2	
371.43	4528.1	
371.64	5507	
371.84	3592.1	
372.05	4295.3	
372.25	6420.4	
372.46	5300.8	
372.66	3519.1	
372.87	3528	
373.07	5400.5	
373.28	6511.9	
373.48	4288.4	
373.69	4086.4	
373.9	5027.1	
374.1	5067.4	
374.31	4389.5	
374.51	3882.9	
374.72	5674.9	
374.92	4881.7	
375.13	4458.4	
375.33	3880.9	
375.54	5388.9	
375.74	5104.9	
375.95	4040.6	
376.15	4931.5	
376.36	5539.8	
376.56	5365	
376.77	4040.6	
376.97	4367.6	
377.18	6365.8	
377.38	5621.7	
377.59	4664.6	
377.79	3816	
378	5555.5	
378.2	5787.6	
378.41	3921.9	
378.61	3816	
378.82	6038.1	
379.02	5348.6	
379.23	4057.7	
379.43	4823	
379.64	6081.1	
379.84	5750.7	
380.05	3923.2	
380.25	3845.4	
380.46	5786.9	
380.66	5393	
380.87	4792.2	
381.07	5033.2	
381.28	6296.1	
381.48	5733.6	
381.69	3919.8	
381.89	3924.6	
382.1	5011.4	
382.3	5844.9	
382.51	4696.7	
382.71	5344.5	
382.91	5662.6	
383.12	6100.2	
383.32	4192.2	
383.53	4274.8	
383.73	5625.1	
383.94	5506.3	
384.14	4288.4	
384.35	3586.7	
384.55	5348.6	
384.76	5654.4	
384.96	4190.8	
385.17	4300.1	
385.37	5715.9	
385.58	5064.6	
385.78	4347.8	
385.98	3551.2	
386.19	5283.1	
386.39	5618.9	
386.6	3923.2	
386.8	4106.9	
387.01	5713.8	
387.21	5812.1	
387.42	4382.7	
387.62	4847.5	
387.83	5324.7	
388.03	5589.6	
388.23	4336.2	
388.44	4848.9	
388.64	5124	
388.85	5293.3	
389.05	4614.8	
389.26	5100.1	
389.46	6763.8	
389.67	6402	
389.87	4697.4	
390.07	4716.5	
390.28	5681.1	
390.48	5372.5	
390.69	4143	
390.89	4371	
391.1	5507.7	
391.3	6197.8	
391.5	5281	
391.71	5563.6	
391.91	6168.5	
392.12	6778.8	
392.32	5319.3	
392.53	4712.4	
392.73	5679.7	
392.93	5825.1	
393.14	4450.9	
393.34	4985.4	
393.55	5991	
393.75	5657.9	
393.95	4377.2	
394.16	4269.3	
394.36	5466.7	
394.57	5926.1	
394.77	4029.7	
394.98	4315.1	
395.18	5569.8	
395.38	5661.3	
395.59	5136.3	
395.79	4392.9	
396	5796.4	
396.2	6184.9	
396.4	5113.1	
396.61	5112.4	
396.81	6311.2	
397.02	5843.5	
397.22	5358.2	
397.42	5364.3	
397.63	6524.8	
397.83	5967.1	
398.04	4515.8	
398.24	4999.1	
398.44	6314.6	
398.65	5619.6	
398.85	4499.4	
399.05	4581.3	
399.26	6064	
399.46	7176.1	
399.67	4962.9	
399.87	4777.9	
400.07	6279.1	
400.28	6560.3	
400.48	4807.3	
400.69	5734.3	
400.89	6879.1	
401.09	7154.9	
401.3	4889.2	
401.5	5792.3	
401.7	7395.2	
401.91	7512.6	
402.11	5343.2	
402.32	5328.1	
402.52	6951.5	
402.72	6735.8	
402.93	5479.7	
403.13	4476.9	
403.33	7161.7	
403.54	6100.9	
403.74	4949.3	
403.94	5504.9	
404.15	6079.7	
404.35	6864.1	
404.56	4767.7	
404.76	5956.2	
404.96	6666.1	
405.17	6458.6	
405.37	5827.2	
405.57	5388.2	
405.78	6909.8	
405.98	6412.2	
406.18	5158.8	
406.39	5707.7	
406.59	6701	
406.79	6439.5	
407	4804.5	
407.2	4816.1	
407.4	6901	
407.61	6749.4	
407.81	5020.9	
408.01	6384.9	
408.22	6102.9	
408.42	7794.6	
408.62	6205.3	
408.83	5984.2	
409.03	7058.7	
409.23	7081.2	
409.44	6239.5	
409.64	6328.9	
409.84	8015.1	
410.05	8066.3	
410.25	6516	
410.45	6284.5	
410.66	8026.7	
410.86	9620.7	
411.06	6910.5	
411.27	6782.9	
411.47	9663	
411.67	8160.5	
411.88	6962.4	
412.08	7331.7	
412.28	8722.3	
412.49	9046.6	
412.69	7084.6	
412.89	7146	
413.09	9007.6	
413.3	9062.3	
413.5	7328.3	
413.7	7017.7	
413.91	8465.6	
414.11	9086.8	
414.31	7206.8	
414.52	7613	
414.72	9035	
414.92	9032.2	
415.12	7265.5	
415.33	7756.3	
415.53	9297.1	
415.73	9492.3	
415.94	7988.4	
416.14	7445	
416.34	8762.6	
416.55	8480	
416.75	8537.3	
416.95	8176.9	
417.15	9635	
417.36	9770.9	
417.56	8863.6	
417.76	8156.4	
417.97	9755.8	
418.17	9807.7	
418.37	7988.4	
418.57	8024.6	
418.78	9673.2	
418.98	9306	
419.18	8705.2	
419.38	8481.3	
419.59	9265	
419.79	8908	
419.99	7761.1	
420.2	7976.2	
420.4	9665.7	
420.6	9610.4	
420.8	7835.5	
421.01	7695.6	
421.21	9764.7	
421.41	9746.3	
421.61	8103.8	
421.82	7949.5	
422.02	9445.2	
422.22	9949.7	
422.42	8516.8	
422.63	7944.1	
422.83	9389.9	
423.03	10249	
423.23	8162.5	
423.44	7391.8	
423.64	9331.9	
423.84	8938.7	
424.04	7660.1	
424.25	7466.9	
424.45	9738.1	
424.65	9740.1	
424.85	7289.4	
425.06	7699	
425.26	9931.3	
425.46	9136.7	
425.66	8022.6	
425.87	7864.2	
426.07	9742.2	
426.27	9473.9	
426.47	7920.2	
426.67	7357	
426.88	9796.8	
427.08	9409.1	
427.28	8127.7	
427.48	7243.7	
427.69	8604.2	
427.89	9026.8	
428.09	7965.2	
428.29	7419.1	
428.5	9648	
428.7	9237.7	
428.9	7393.2	
429.1	7628	
429.3	9282.1	
429.51	9592.7	
429.71	7462.1	
429.91	8303.8	
430.11	9765.4	
430.31	9891.7	
430.52	8005.5	
430.72	8281.3	
430.92	10170	
431.12	9633.6	
431.32	7832.8	
431.53	7975.5	
431.73	9041.8	
431.93	10090	
432.13	7613	
432.33	7709.2	
432.54	9427.5	
432.74	9624.8	
432.94	7746.8	
433.14	8419.9	
433.34	9833	
433.55	9686.9	
433.75	8443.1	
433.95	9863.7	
434.15	9869.2	
434.35	9615.2	
434.56	7995.3	
434.76	7907.2	
434.96	9943.6	
435.16	10293	
435.36	8074.5	
435.56	8951.7	
435.77	9848.7	
435.97	9936.1	
436.17	9530.6	
436.37	9025.4	
436.57	9881.4	
436.78	10051	
436.98	10095	
437.18	9437.7	
437.38	10647	
437.58	10058	
437.78	9430.9	
437.99	8398.7	
438.19	10242	
438.39	10877	
438.59	8341.4	
438.79	7854	
438.99	10529	
439.2	9703.3	
439.4	7801.4	
439.6	7948.8	
439.8	10087	
440	10973	
440.2	9144.9	
440.4	9299.1	
440.61	10974	
440.81	11294	
441.01	8905.9	
441.21	9665.7	
441.41	11594	
441.61	11043	
441.81	9937.4	
442.02	10477	
442.22	11703	
442.42	11170	
442.62	9145.5	
442.82	8886.1	
443.02	11654	
443.22	10961	
443.43	9542.9	
443.63	9211.1	
443.83	10800	
444.03	10844	
444.23	10305	
444.43	9938.1	
444.63	11385	
444.83	12011	
445.04	9594.7	
445.24	10369	
445.44	11422	
445.64	11494	
445.84	9702.6	
446.04	9873.3	
446.24	10665	
446.44	11394	
446.65	8994	
446.85	9430.2	
447.05	10633	
447.25	11414	
447.45	9427.5	
447.65	8948.3	
447.85	11030	
448.05	10438	
448.25	9874.6	
448.46	9643.2	
448.66	10946	
448.86	10625	
449.06	9137.4	
449.26	9688.3	
449.46	11355	
449.66	10669	
449.86	9812.5	
450.06	9647.3	
450.26	10933	
450.47	11331	
450.67	9600.2	
450.87	10084	
451.07	11550	
451.27	11284	
451.47	9247.3	
451.67	10040	
451.87	11254	
452.07	11715	
452.27	9806.4	
452.47	9572.2	
452.67	11421	
452.88	11598	
453.08	8979	
453.28	10494	
453.48	12310	
453.68	11104	
453.88	9663	
454.08	9581.1	
454.28	11702	
454.48	11423	
454.68	10224	
454.88	10393	
455.08	11754	
455.28	11951	
455.48	9579	
455.68	10357	
455.89	12436	
456.09	12142	
456.29	10091	
456.49	10331	
456.69	12525	
456.89	11711	
457.09	10742	
457.29	11166	
457.49	12286	
457.69	12534	
457.89	11092	
458.09	10324	
458.29	12447	
458.49	13136	
458.69	11211	
458.89	11017	
459.09	13373	
459.29	13282	
459.49	10881	
459.69	11601	
459.9	12831	
460.1	12812	
460.3	10701	
460.5	10654	
460.7	12860	
460.9	12566	
461.1	10567	
461.3	11711	
461.5	13737	
461.7	13396	
461.9	11450	
462.1	11441	
462.3	13226	
462.5	13603	
462.7	11476	
462.9	11798	
463.1	14519	
463.3	14378	
463.5	11944	
463.7	12935	
463.9	13913	
464.1	14195	
464.3	12540	
464.5	12426	
464.7	14440	
464.9	14548	
465.1	13592	
465.3	12926	
465.5	14588	
465.7	14901	
465.9	13347	
466.1	12725	
466.3	14962	
466.5	14457	
466.7	14094	
466.9	12985	
467.1	14921	
467.3	15474	
467.5	14182	
467.7	13322	
467.9	15853	
468.1	16389	
468.3	13737	
468.5	14375	
468.7	15218	
468.9	15032	
469.1	13788	
469.3	14287	
469.5	16795	
469.7	15172	
469.9	13997	
470.1	13651	
470.3	15481	
470.5	15327	
470.7	14506	
470.9	13570	
471.1	15261	
471.3	15114	
471.5	13661	
471.69	14730	
471.89	14915	
472.09	14420	
472.29	14077	
472.49	13837	
472.69	14898	
472.89	15244	
473.09	13504	
473.29	13236	
473.49	14834	
473.69	14493	
473.89	13943	
474.09	13255	
474.29	15576	
474.49	15309	
474.69	14013	
474.89	13356	
475.09	14749	
475.29	14758	
475.49	12920	
475.69	13323	
475.88	15753	
476.08	14911	
476.28	13048	
476.48	12917	
476.68	15074	
476.88	14837	
477.08	12837	
477.28	13205	
477.48	14338	
477.68	14730	
477.88	12794	
478.08	12911	
478.28	15429	
478.48	14601	
478.67	13141	
478.87	12504	
479.07	15313	
479.27	14690	
479.47	13162	
479.67	13211	
479.87	15040	
480.07	15385	
480.27	12904	
480.47	13713	
480.67	14640	
480.87	15353	
481.06	13022	
481.26	13572	
481.46	14825	
481.66	14729	
481.86	13433	
482.06	13956	
482.26	14462	
482.46	15154	
482.66	13140	
482.86	12804	
483.05	15038	
483.25	14283	
483.45	15114	
483.65	13379	
483.85	14672	
484.05	14941	
484.25	13707	
484.45	14197	
484.65	15476	
484.84	15672	
485.04	13424	
485.24	13521	
485.44	15981	
485.64	14725	
485.84	13117	
486.04	14181	
486.24	15027	
486.44	15302	
486.63	13225	
486.83	13861	
487.03	15331	
487.23	15475	
487.43	13378	
487.63	15089	
487.83	15560	
488.02	16226	
488.22	14426	
488.42	14803	
488.62	16168	
488.82	15397	
489.02	13904	
489.22	14267	
489.41	16093	
489.61	16023	
489.81	13960	
490.01	14002	
490.21	16154	
490.41	16786	
490.61	14029	
490.8	14158	
491	15950	
491.2	15206	
491.4	14280	
491.6	13705	
491.8	15505	
491.99	15318	
492.19	13313	
492.39	13489	
492.59	15922	
492.79	15965	
492.99	14529	
493.18	13990	
493.38	16502	
493.58	17321	
493.78	14923	
493.98	14590	
494.18	16572	
494.37	16384	
494.57	15401	
494.77	15291	
494.97	17249	
495.17	17490	
495.37	15415	
495.56	15716	
495.76	17889	
495.96	17776	
496.16	16630	
496.36	15911	
496.55	18051	
496.75	17552	
496.95	16122	
497.15	15917	
497.35	17826	
497.54	17894	
497.74	15935	
497.94	17104	
498.14	18494	
498.34	18302	
498.53	16070	
498.73	16492	
498.93	17705	
499.13	18185	
499.33	16448	
499.52	16709	
499.72	18511	
499.92	18366	
500.12	16593	
500.32	16653	
500.51	18710	
500.71	18618	
500.91	17367	
501.11	16993	
501.31	18653	
501.5	18816	
501.7	17421	
501.9	16712	
502.1	18322	
502.29	18774	
502.49	17274	
502.69	17176	
502.89	18524	
503.09	18484	
503.28	16000	
503.48	16029	
503.68	17791	
503.88	17638	
504.07	16688	
504.27	16157	
504.47	18077	
504.67	17952	
504.86	16612	
505.06	16223	
505.26	17487	
505.46	18568	
505.65	16028	
505.85	16133	
506.05	17348	
506.25	17592	
506.44	15366	
506.64	15826	
506.84	17034	
507.04	17492	
507.23	15371	
507.43	15767	
507.63	18345	
507.83	17095	
508.02	15715	
508.22	15515	
508.42	18570	
508.62	17050	
508.81	15378	
509.01	16044	
509.21	16705	
509.4	16989	
509.6	15641	
509.8	15427	
510	16958	
510.19	18054	
510.39	15186	
510.59	15457	
510.79	17110	
510.98	18072	
511.18	15713	
511.38	15680	
511.57	17586	
511.77	17250	
511.97	15833	
512.17	15190	
512.36	17493	
512.56	17114	
512.76	15265	
512.95	14893	
513.15	17432	
513.35	16442	
513.55	15885	
513.74	15212	
513.94	17496	
514.14	16956	
514.33	16045	
514.53	15812	
514.73	16965	
514.92	17021	
515.12	15492	
515.32	15471	
515.51	17317	
515.71	17429	
515.91	16541	
516.11	15362	
516.3	18746	
516.5	17090	
516.7	15997	
516.89	16345	
517.09	17036	
517.29	17148	
517.48	16180	
517.68	15664	
517.88	16864	
518.07	17379	
518.27	16021	
518.47	15202	
518.66	17772	
518.86	16768	
519.06	15102	
519.25	15455	
519.45	16988	
519.65	18219	
519.84	16044	
520.04	16602	
520.24	18568	
520.43	17544	
520.63	15754	
520.83	15415	
521.02	16630	
521.22	16955	
521.42	15395	
521.61	15862	
521.81	16793	
522.01	16810	
522.2	15638	
522.4	15246	
522.6	17500	
522.79	16597	
522.99	15573	
523.18	15276	
523.38	17550	
523.58	17663	
523.77	16976	
523.97	15800	
524.17	19334	
524.36	18856	
524.56	17039	
524.76	16679	
524.95	18337	
525.15	17952	
525.34	16627	
525.54	17028	
525.74	18931	
525.93	18189	
526.13	18013	
526.33	17287	
526.52	19351	
526.72	18917	
526.91	18133	
527.11	17679	
527.31	19286	
527.5	19751	
527.7	17673	
527.89	17177	
528.09	18994	
528.29	19679	
528.48	18310	
528.68	17837	
528.87	19602	
529.07	19462	
529.27	17803	
529.46	17582	
529.66	19471	
529.85	19711	
530.05	17558	
530.25	18015	
530.44	20471	
530.64	19133	
530.83	17472	
531.03	17838	
531.23	19721	
531.42	19497	
531.62	18484	
531.81	17901	
532.01	20177	
532.21	20582	
532.4	18343	
532.6	18817	
532.79	21138	
532.99	20846	
533.18	19025	
533.38	19665	
533.58	20711	
533.77	20817	
533.97	19151	
534.16	19714	
534.36	21496	
534.55	20743	
534.75	19843	
534.95	19418	
535.14	21700	
535.34	20743	
535.53	19084	
535.73	20185	
535.92	21762	
536.12	20695	
536.31	18785	
536.51	19732	
536.71	20796	
536.9	20502	
537.1	18950	
537.29	19083	
537.49	21236	
537.68	20440	
537.88	19408	
538.07	19024	
538.27	20809	
538.46	21468	
538.66	18969	
538.86	19188	
539.05	21044	
539.25	21187	
539.44	19794	
539.64	19172	
539.83	20687	
540.03	21437	
540.22	19045	
540.42	18861	
540.61	20575	
540.81	20727	
541	18962	
541.2	19767	
541.39	20192	
541.59	20480	
541.78	19528	
541.98	18624	
542.18	19978	
542.37	20014	
542.57	18768	
542.76	19351	
542.96	19774	
543.15	20170	
543.35	18429	
543.54	18107	
543.74	19895	
543.93	19952	
544.13	18114	
544.32	18805	
544.52	19873	
544.71	19383	
544.91	17489	
545.1	18191	
545.3	19451	
545.49	19835	
545.69	17387	
545.88	17858	
546.08	20603	
546.27	20140	
546.47	18064	
546.66	17470	
546.86	19826	
547.05	20059	
547.24	17734	
547.44	17677	
547.63	19077	
547.83	19842	
548.02	17933	
548.22	17855	
548.41	18884	
548.61	19718	
548.8	17403	
549	17331	
549.19	19058	
549.39	19419	
549.58	16960	
549.78	17427	
549.97	19364	
550.17	18749	
550.36	17741	
550.55	18501	
550.75	18761	
550.94	19306	
551.14	16993	
551.33	16942	
551.53	18272	
551.72	18908	
551.92	17185	
552.11	16959	
552.31	18843	
552.5	18731	
552.69	18027	
552.89	16573	
553.08	18784	
553.28	18509	
553.47	16802	
553.67	17523	
553.86	19007	
554.06	17956	
554.25	16154	
554.44	16513	
554.64	19414	
554.83	19130	
555.03	16619	
555.22	16726	
555.42	18690	
555.61	18228	
555.8	16508	
556	16559	
556.19	17865	
556.39	18533	
556.58	16593	
556.78	16546	
556.97	18367	
557.16	18137	
557.36	17320	
557.55	16258	
557.75	17414	
557.94	18874	
558.13	16182	
558.33	16055	
558.52	18592	
558.72	17680	
558.91	16043	
559.1	16161	
559.3	17417	
559.49	17074	
559.69	15789	
559.88	16423	
560.07	17922	
560.27	18331	
560.46	16509	
560.66	16490	
560.85	17786	
561.04	16963	
561.24	15864	
561.43	15681	
561.63	17160	
561.82	17378	
562.01	16589	
562.21	16105	
562.4	17554	
562.59	18452	
562.79	15939	
562.98	15744	
563.18	17821	
563.37	18785	
563.56	16255	
563.76	16017	
563.95	17447	
564.14	17389	
564.34	16231	
564.53	15958	
564.73	17769	
564.92	18105	
565.11	16482	
565.31	16040	
565.5	18292	
565.69	17525	
565.89	16137	
566.08	16279	
566.27	17978	
566.47	18725	
566.66	16881	
566.85	15975	
567.05	18134	
567.24	17679	
567.44	16181	
567.63	16976	
567.82	18250	
568.02	17979	
568.21	16118	
568.4	16307	
568.6	17922	
568.79	17989	
568.98	16214	
569.18	16317	
569.37	18029	
569.56	19402	
569.76	16535	
569.95	17292	
570.14	18358	
570.34	18260	
570.53	16219	
570.72	16075	
570.91	18573	
571.11	17979	
571.3	16490	
571.49	17094	
571.69	18142	
571.88	17671	
572.07	16939	
572.27	16815	
572.46	17669	
572.65	18399	
572.85	16268	
573.04	16595	
573.23	18796	
573.43	18144	
573.62	16371	
573.81	16707	
574	18394	
574.2	18263	
574.39	16797	
574.58	16972	
574.78	19188	
574.97	18672	
575.16	17312	
575.36	17397	
575.55	19153	
575.74	19075	
575.93	16694	
576.13	17563	
576.32	18482	
576.51	19129	
576.71	17081	
576.9	18073	
577.09	19261	
577.28	18730	
577.48	17277	
577.67	16723	
577.86	18531	
578.05	18944	
578.25	17099	
578.44	17244	
578.63	18650	
578.83	19792	
579.02	16765	
579.21	17921	
579.4	18842	
579.6	18800	
579.79	17266	
579.98	18800	
580.17	19052	
580.37	19257	
580.56	16767	
580.75	17376	
580.94	19332	
581.14	19409	
581.33	17826	
581.52	17034	
581.71	19216	
581.91	19544	
582.1	16954	
582.29	17148	
582.48	18917	
582.68	18905	
582.87	17655	
583.06	17411	
583.25	19208	
583.45	18617	
583.64	17983	
583.83	18368	
584.02	18723	
584.21	19191	
584.41	17860	
584.6	17425	
584.79	18983	
584.98	19448	
585.18	17149	
585.37	17103	
585.56	18647	
585.75	19217	
585.94	17015	
586.14	17603	
586.33	19301	
586.52	18727	
586.71	17326	
586.91	17090	
587.1	17941	
587.29	18739	
587.48	16678	
587.67	16576	
587.87	18623	
588.06	18403	
588.25	17510	
588.44	16973	
588.63	18033	
588.83	18520	
589.02	16496	
589.21	16251	
589.4	17776	
589.59	17579	
589.78	15228	
589.98	15167	
590.17	16631	
590.36	16941	
590.55	14204	
590.74	14713	
590.94	17376	
591.13	16215	
591.32	14453	
591.51	14335	
591.7	16647	
591.89	16493	
592.09	14493	
592.28	14827	
592.47	15822	
592.66	17423	
592.85	14550	
593.05	14579	
593.24	16311	
593.43	16976	
593.62	14857	
593.81	15135	
594	16541	
594.19	16663	
594.39	14626	
594.58	14532	
594.77	16651	
594.96	16936	
595.15	14573	
595.34	14944	
595.54	16326	
595.73	15812	
595.92	13736	
596.11	14539	
596.3	16605	
596.49	15795	
596.68	14345	
596.88	14753	
597.07	16398	
597.26	15685	
597.45	14102	
597.64	14869	
597.83	15835	
598.02	16244	
598.22	14050	
598.41	14534	
598.6	16025	
598.79	15545	
598.98	14135	
599.17	14812	
599.36	16025	
599.55	16528	
599.74	15374	
599.94	15373	
600.13	16408	
600.32	15420	
600.51	13817	
600.7	13907	
600.89	16677	
601.08	16796	
601.27	13796	
601.47	14391	
601.66	16199	
601.85	16533	
602.04	14159	
602.23	14222	
602.42	15362	
602.61	15879	
602.8	13758	
602.99	13758	
603.18	15610	
603.37	15591	
603.57	14149	
603.76	14575	
603.95	16287	
604.14	16004	
604.33	13973	
604.52	14086	
604.71	15792	
604.9	15464	
605.09	14517	
605.28	14420	
605.47	16273	
605.66	15769	
605.86	14167	
606.05	13842	
606.24	16062	
606.43	14866	
606.62	14035	
606.81	14352	
607	15854	
607.19	15513	
607.38	13481	
607.57	13581	
607.76	15256	
607.95	14603	
608.14	13928	
608.33	14203	
608.52	15119	
608.72	15663	
608.91	13284	
609.1	13148	
609.29	15116	
609.48	14801	
609.67	13793	
609.86	13123	
610.05	14788	
610.24	14991	
610.43	13098	
610.62	12833	
610.81	15629	
611	15597	
611.19	13160	
611.38	13534	
611.57	15150	
611.76	16006	
611.95	12920	
612.14	12766	
612.33	15036	
612.52	14503	
612.71	13192	
612.9	12757	
613.09	14340	
613.28	16031	
613.47	13061	
613.66	13724	
613.85	15047	
614.04	14541	
614.24	13098	
614.43	12478	
614.62	15143	
614.81	14935	
615	13304	
615.19	13493	
615.38	14561	
615.57	14876	
615.76	13470	
615.95	14047	
616.14	15274	
616.33	14906	
616.52	13463	
616.71	13773	
616.9	14991	
617.09	14873	
617.28	13121	
617.47	13925	
617.66	14441	
617.85	14552	
618.04	13910	
618.22	13485	
618.41	15016	
618.6	15758	
618.79	13602	
618.98	13489	
619.17	15946	
619.36	14618	
619.55	13692	
619.74	13633	
619.93	15438	
620.12	15118	
620.31	14169	
620.5	14292	
620.69	16041	
620.88	16259	
621.07	14762	
621.26	14311	
621.45	15715	
621.64	15705	
621.83	14241	
622.02	13710	
622.21	15852	
622.4	15722	
622.59	14829	
622.78	14564	
622.97	15503	
623.16	16222	
623.35	14478	
623.54	13712	
623.72	15642	
623.91	15532	
624.1	14549	
624.29	13640	
624.48	16587	
624.67	15949	
624.86	14565	
625.05	13842	
625.24	16574	
625.43	15503	
625.62	15634	
625.81	13964	
626	16214	
626.19	15742	
626.38	14621	
626.56	14168	
626.75	15593	
626.94	16294	
627.13	14625	
627.32	13614	
627.51	15913	
627.7	16802	
627.89	13698	
628.08	14415	
628.27	15246	
628.46	15603	
628.65	13807	
628.83	13670	
629.02	15791	
629.21	15350	
629.4	14229	
629.59	14360	
629.78	15406	
629.97	15862	
630.16	14450	
630.35	14060	
630.54	16379	
630.72	16155	
630.91	14025	
631.1	14377	
631.29	15913	
631.48	15885	
631.67	14379	
631.86	13852	
632.05	15586	
632.24	15648	
632.42	13687	
632.61	14233	
632.8	15441	
632.99	15260	
633.18	14250	
633.37	14322	
633.56	15760	
633.75	15629	
633.93	14145	
634.12	13959	
634.31	16303	
634.5	16077	
634.69	14055	
634.88	14317	
635.07	15587	
635.25	16016	
635.44	14711	
635.63	14621	
635.82	15331	
636.01	14842	
636.2	14497	
636.39	14226	
636.57	16238	
636.76	15744	
636.95	13639	
637.14	14745	
637.33	15722	
637.52	16264	
637.7	13459	
637.89	14272	
638.08	15519	
638.27	16321	
638.46	14237	
638.65	14396	
638.83	16093	
639.02	15053	
639.21	13997	
639.4	14366	
639.59	15282	
639.78	15125	
639.96	13301	
640.15	13401	
640.34	15089	
640.53	15123	
640.72	13043	
640.91	13332	
641.09	14633	
641.28	15479	
641.47	13218	
641.66	13833	
641.85	15071	
642.03	14994	
642.22	13549	
642.41	13195	
642.6	14504	
642.79	14008	
642.97	12898	
643.16	13436	
643.35	14428	
643.54	14149	
643.73	12828	
643.91	13380	
644.1	13988	
644.29	14568	
644.48	12753	
644.67	12592	
644.85	13904	
645.04	14162	
645.23	12103	
645.42	12440	
645.6	13660	
645.79	14388	
645.98	12084	
646.17	11460	
646.36	13183	
646.54	13387	
646.73	12320	
646.92	11508	
647.11	13016	
647.29	13748	
647.48	11415	
647.67	11322	
647.86	13832	
648.05	13954	
648.23	11533	
648.42	12391	
648.61	13457	
648.8	13275	
648.98	11237	
649.17	11516	
649.36	12762	
649.55	12615	
649.73	11330	
649.92	11838	
650.11	12798	
650.3	13014	
650.48	11426	
650.67	11162	
650.86	13115	
651.05	12247	
651.23	11237	
651.42	11121	
651.61	12662	
651.79	12551	
651.98	11366	
652.17	11039	
652.36	12768	
652.54	12175	
652.73	11110	
652.92	10888	
653.11	12793	
653.29	12925	
653.48	10441	
653.67	11090	
653.85	12459	
654.04	13141	
654.23	11086	
654.42	10634	
654.6	11869	
654.79	12292	
654.98	9970.2	
655.16	10183	
655.35	11168	
655.54	11056	
655.73	9809.8	
655.91	9754.5	
656.1	11871	
656.29	11182	
656.47	9549.7	
656.66	10839	
656.85	11686	
657.03	11678	
657.22	10123	
657.41	10265	
657.59	11712	
657.78	11716	
657.97	10010	
658.16	10512	
658.34	12252	
658.53	12487	
658.72	11241	
658.9	11447	
659.09	11943	
659.28	11832	
659.46	10408	
659.65	10322	
659.84	11668	
660.02	12192	
660.21	10276	
660.4	10188	
660.58	12375	
660.77	11896	
660.96	10598	
661.14	9906	
661.33	12722	
661.52	12612	
661.7	9847.3	
661.89	12272	
662.08	11525	
662.26	11209	
662.45	10085	
662.64	10092	
662.82	12000	
663.01	11479	
663.2	10024	
663.38	10572	
663.57	11817	
663.75	11770	
663.94	10194	
664.13	11079	
664.31	11486	
664.5	11815	
664.69	10437	
664.87	10744	
665.06	11107	
665.25	11666	
665.43	10884	
665.62	10863	
665.8	11877	
665.99	11384	
666.18	10041	
666.36	10085	
666.55	11790	
666.74	11650	
666.92	9928.6	
667.11	11020	
667.29	11418	
667.48	11792	
667.67	10618	
667.85	9889	
668.04	11250	
668.22	11305	
668.41	10006	
668.6	10196	
668.78	11152	
668.97	11218	
669.15	10316	
669.34	9498.5	
669.53	11163	
669.71	11389	
669.9	9598.8	
670.08	10051	
670.27	10964	
670.46	11443	
670.64	10305	
670.83	10316	
671.01	10845	
671.2	11359	
671.38	9702.6	
671.57	9409.1	
671.76	11863	
671.94	12203	
672.13	9614.5	
672.31	10238	
672.5	11594	
672.69	11053	
672.87	9759.3	
673.06	9873.3	
673.24	11405	
673.43	11123	
673.61	10124	
673.8	9728.5	
673.98	11282	
674.17	11578	
674.36	10254	
674.54	10100	
674.73	11089	
674.91	11506	
675.1	9919	
675.28	9599.5	
675.47	11144	
675.65	11589	
675.84	9780.4	
676.03	9951.1	
676.21	11087	
676.4	10589	
676.58	10280	
676.77	10223	
676.95	11949	
677.14	10895	
677.32	9499.2	
677.51	9357.2	
677.69	11514	
677.88	10785	
678.06	9396.8	
678.25	9547.6	
678.44	11121	
678.62	10854	
678.81	9342.2	
678.99	9953.8	
679.18	11744	
679.36	11424	
679.55	9751.1	
679.73	10066	
679.92	11427	
680.1	10858	
680.29	10583	
680.47	9682.1	
680.66	10921	
680.84	11453	
681.03	9295	
681.21	9884.9	
681.4	10869	
681.58	10817	
681.77	9491	
681.95	9494.4	
682.14	11443	
682.32	11676	
682.51	10057	
682.69	9224.7	
682.88	10780	
683.06	11067	
683.25	9807	
683.43	10051	
683.62	11139	
683.8	11199	
683.99	10213	
684.17	9607	
684.36	11755	
684.54	10780	
684.73	8843.1	
684.91	8898.4	
685.1	10563	
685.28	9867.8	
685.46	8837.7	
685.65	8855.4	
685.83	10291	
686.02	9928.6	
686.2	8483.4	
686.39	8661.5	
686.57	9981.8	
686.76	10970	
686.94	8701.1	
687.13	8862.9	
687.31	10490	
687.5	10279	
687.68	8522.3	
687.86	9316.2	
688.05	11585	
688.23	9972.9	
688.42	9419.3	
688.6	8959.9	
688.79	10378	
688.97	10380	
689.16	9342.2	
689.34	8502.5	
689.52	10932	
689.71	11108	
689.89	9622	
690.08	9095.7	
690.26	10757	
690.45	10593	
690.63	9740.8	
690.81	9249.3	
691	10591	
691.18	10470	
691.37	9312.1	
691.55	10706	
691.74	10275	
691.92	11671	
692.1	9200.2	
692.29	8882.7	
692.47	10438	
692.66	9947.7	
692.84	9045.2	
693.02	9377	
693.21	10142	
693.39	10477	
693.58	9649.3	
693.76	9151.7	
693.94	11480	
694.13	11445	
694.31	9409.1	
694.5	10137	
694.68	10770	
694.86	11096	
695.05	9754.5	
695.23	9786.6	
695.42	11380	
695.6	12865	
695.78	10376	
695.97	9529.2	
696.15	11525	
696.34	10938	
696.52	9372.9	
696.7	9960.6	
696.89	11142	
697.07	10634	
697.25	9796.8	
697.44	10818	
697.62	11058	
697.81	11221	
697.99	9513.5	
698.17	9901.9	
698.36	10653	
698.54	11097	
698.72	9752.4	
698.91	9051.3	
699.09	10744	
699.28	10527	
699.46	9527.8	
699.64	9460.9	
699.83	10627	
700.01	11266	
700.19	9960	
700.38	8944.8	
700.56	11351	
700.74	10763	
700.93	9310.1	
701.11	9861.7	
701.29	11120	
701.48	12009	
701.66	9484.8	
701.84	9643.9	
702.03	10948	
702.21	11619	
702.39	9285.5	
702.58	9805.7	
702.76	11342	
702.94	11485	
703.13	9302.6	
703.31	11137	
703.49	10982	
703.68	11908	
703.86	9491	
704.04	10258	
704.23	11284	
704.41	11399	
704.59	9695.1	
704.78	10333	
704.96	12497	
705.14	11500	
705.33	9505.3	
705.51	9983.8	
705.69	11111	
705.87	11701	
706.06	10229	
706.24	9369.5	
706.42	11337	
706.61	11475	
706.79	10206	
706.97	9338.7	
707.16	11023	
707.34	11266	
707.52	10019	
707.7	9636.4	
707.89	11029	
708.07	10778	
708.25	10197	
708.44	10560	
708.62	10910	
708.8	11711	
708.98	10389	
709.17	9607.7	
709.35	11166	
709.53	11216	
709.72	9370.8	
709.9	9495.7	
710.08	11437	
710.26	11379	
710.45	10444	
710.63	9579	
710.81	11032	
710.99	11110	
711.18	9890.3	
711.36	9466.4	
711.54	10914	
711.72	11289	
711.91	9555.8	
712.09	9145.5	
712.27	10795	
712.45	11452	
712.64	9443.9	
712.82	8841.1	
713	10184	
713.18	10304	
713.37	8719.6	
713.55	9527.2	
713.73	10706	
713.91	9639.8	
714.1	8500.4	
714.28	8033.5	
714.46	9879.4	
714.64	9121	
714.83	7301	
715.01	7634.1	
715.19	8867	
715.37	8190.5	
715.55	7100.3	
715.74	7325.6	
715.92	9296.4	
716.1	7832.1	
716.28	8055.3	
716.47	7264.1	
716.65	8286.8	
716.83	8264.2	
717.01	7077.8	
717.19	7088	
717.38	9614.5	
717.56	8079.9	
717.74	7333.8	
717.92	6683.2	
718.1	8996.7	
718.29	8471.8	
718.47	6638.8	
718.65	7364.5	
718.83	9267.7	
719.01	9337.4	
719.2	7138.5	
719.38	7937.2	
719.56	9309.4	
719.74	10301	
719.92	7585.7	
720.11	8186.4	
720.29	9288.2	
720.47	8576.9	
720.65	7040.2	
720.83	7533.8	
721.02	8499.1	
721.2	8242.4	
721.38	7313.3	
721.56	6760.3	
721.74	7750.2	
721.92	7830.7	
722.11	7500.3	
722.29	7322.2	
722.47	8709.3	
722.65	8179.6	
722.83	6688	
723.01	7212.3	
723.2	8146.1	
723.38	8369.4	
723.56	6242.2	
723.74	7098.9	
723.92	7817.1	
724.1	8685.4	
724.29	6645.7	
724.47	7415	
724.65	7944.1	
724.83	7777.5	
725.01	6523.5	
725.19	7037.5	
725.37	7784.3	
725.56	7722.9	
725.74	6432	
725.92	6642.9	
726.1	7787.7	
726.28	7972.1	
726.46	6821.1	
726.64	6534.4	
726.83	8015.1	
727.01	7968.6	
727.19	6369.9	
727.37	6926.2	
727.55	8017.8	
727.73	8408.3	
727.91	6315.9	
728.09	6122.7	
728.28	8458.8	
728.46	8535.3	
728.64	6999.3	
728.82	6949.4	
729	9176.9	
729.18	8826.7	
729.36	6529.6	
729.54	8134.5	
729.72	9541.5	
729.91	8421.9	
730.09	8004.1	
730.27	7222.5	
730.45	8512	
730.63	8831.5	
730.81	7560.4	
730.99	7034.1	
731.17	9291	
731.35	8266.3	
731.53	7333.1	
731.71	7120.1	
731.9	9010.4	
732.08	8991.9	
732.26	7262.1	
732.44	6943.3	
732.62	9036.3	
732.8	8744.8	
732.98	7382.2	
733.16	6804	
733.34	8699.1	
733.52	7642.3	
733.7	7120.1	
733.88	7189.1	
734.07	8474.5	
734.25	8353	
734.43	6722.8	
734.61	7783	
734.79	9422.7	
734.97	8290.2	
735.15	6770.6	
735.33	7016.3	
735.51	8554.4	
735.69	8304.5	
735.87	7632.1	
736.05	7053.9	
736.23	8249.9	
736.41	8119.5	
736.59	6952.2	
736.77	7019.1	
736.95	8658.8	
737.13	8148.2	
737.32	6692.1	
737.5	6753.5	
737.68	8976.9	
737.86	8072.4	
738.04	6560.3	
738.22	7800.7	
738.4	7950.2	
738.58	8179.6	
738.76	6845.7	
738.94	6195.8	
739.12	7965.9	
739.3	7989.8	
739.48	7299	
739.66	7070.3	
739.84	8104.5	
740.02	8105.2	
740.2	6213.5	
740.38	6414.2	
740.56	8400.1	
740.74	7478.5	
740.92	6892.1	
741.1	6705	
741.28	7922.2	
741.46	7695.6	
741.64	6485.2	
741.82	6762.4	
742	7875.1	
742.18	7743.4	
742.36	6541.9	
742.54	6268.1	
742.72	8267.6	
742.9	7228	
743.08	6747.4	
743.26	5894.1	
743.44	8254.7	
743.62	8111.3	
743.8	6852.5	
743.98	6178	
744.16	7742.7	
744.34	7593.2	
744.52	6662.7	
744.7	6562.4	
744.88	7937.2	
745.06	7494.2	
745.24	6581.5	
745.42	6666.1	
745.6	7975.5	
745.78	7762.5	
745.96	5698.8	
746.14	5937.1	
746.32	8340	
746.5	7691.5	
746.68	6221	
746.86	5885.9	
747.03	7935.2	
747.21	6883.2	
747.39	6169.2	
747.57	5756.2	
747.75	7380.9	
747.93	7657.4	
748.11	5758.9	
748.29	5675.6	
748.47	8559.1	
748.65	7119.4	
748.83	6299.6	
749.01	6087.9	
749.19	7493.5	
749.37	6832	
749.55	5894.1	
749.73	6088.6	
749.91	7349.5	
750.09	7027.9	
750.26	6042.9	
750.44	5528.2	
750.62	7281.2	
750.8	7251.9	
750.98	5467.4	
751.16	5672.9	
751.34	7318.8	
751.52	6748.1	
751.7	6176.7	
751.88	5309.7	
752.06	7567.9	
752.24	7396.6	
752.42	5403.9	
752.59	5604.6	
752.77	7158.3	
752.95	7980.9	
753.13	6099.5	
753.31	5634	
753.49	6888	
753.67	7147.4	
753.85	5750	
754.03	5446.9	
754.21	7292.8	
754.38	7470.3	
754.56	5346.6	
754.74	4685.1	
754.92	6475.7	
755.1	6972.7	
755.28	4521.9	
755.46	4456.4	
755.64	7185	
755.82	7121.5	
755.99	4275.5	
756.17	4230.4	
756.35	4895.3	
756.53	5982.1	
756.71	3168.2	
756.89	3846.8	
757.07	5504.3	
757.25	5012.1	
757.42	4261.1	
757.6	4977.2	
757.78	5886.5	
757.96	5206.6	
758.14	4246.8	
758.32	3948.5	
758.5	4952.7	
758.67	5459.2	
758.85	4145.1	
759.03	4100.7	
759.21	5598.5	
759.39	5182.7	
759.57	3786.7	
759.75	4642.1	
759.92	6126.8	
760.1	5731.6	
760.28	4880.3	
760.46	5086.5	
760.64	5530.9	
760.82	5436.7	
760.99	4924	
761.17	4360.8	
761.35	6210.8	
761.53	5399.1	
761.71	4492.6	
761.89	5057.1	
762.06	6206.7	
762.24	5913.2	
762.42	4689.2	
762.6	4489.8	
762.78	5927.5	
762.96	6361.7	
763.13	5071.5	
763.31	4736.3	
763.49	6518	
763.67	5893.4	
763.85	5393.7	
764.02	5720	
764.2	6765.8	
764.38	6132.3	
764.56	4657.8	
764.74	5339.1	
764.91	6778.1	
765.09	5894.7	
765.27	4429.1	
765.45	4352.6	
765.63	6795.2	
765.8	6615.6	
765.98	4120.5	
766.16	4358.1	
766.34	5593	
766.52	5466.7	
766.69	4992.9	
766.87	4200.4	
767.05	5924.1	
767.23	6330.3	
767.41	4361.5	
767.58	4516.5	
767.76	6264.7	
767.94	6293.4	
768.12	4412	
768.29	4857.1	
768.47	5787.6	
768.65	6298.2	
768.83	4085.7	
769	4867.3	
769.18	5496.7	
769.36	5923.4	
769.54	4816.8	
769.72	4077.5	
769.89	6303	
770.07	6208.8	
770.25	4261.8	
770.43	5148.6	
770.6	6738.5	
770.78	6875.7	
770.96	4392.9	
771.14	4730.1	
771.31	6047.7	
771.49	5485.8	
771.67	3736.2	
771.85	3941.7	
772.02	4995	
772.2	5474.9	
772.38	4441.4	
772.55	4013.3	
772.73	5710.4	
772.91	5519.3	
773.09	4228.4	
773.26	4316.4	
773.44	5618.9	
773.62	5384.1	
773.8	3844	
773.97	3724.6	
774.15	5628.5	
774.33	5307	
774.5	3782.6	
774.68	4076.1	
774.86	5733.6	
775.04	5327.4	
775.21	3805.1	
775.39	3765.5	
775.57	5498.1	
775.74	5726.8	
775.92	3660.4	
776.1	3554.6	
776.27	5442.1	
776.45	6364.4	
776.63	3713	
776.81	3477.5	
776.98	5180	
777.16	5897.5	
777.34	3762.1	
777.51	3989.4	
777.69	5164.3	
777.87	4923.3	
778.04	3827.7	
778.22	4237.2	
778.4	4988.9	
778.57	5446.9	
778.75	3304.1	
778.93	3478.8	
779.1	4849.6	
779.28	4661.2	
779.46	3220.8	
779.64	3533.4	
779.81	5526.8	
779.99	6087.2	
780.17	4065.9	
780.34	4172.4	
780.52	5133.6	
780.69	5256.5	
780.87	3893.2	
781.05	3440.6	
781.22	5164.3	
781.4	5186.1	
781.58	3532.7	
781.75	2933.4	
781.93	5191.6	
782.11	4602.5	
782.28	4188.1	
782.46	3585.3	
782.64	4532.8	
782.81	5197.1	
782.99	3625.6	
783.17	3558	
783.34	5085.8	
783.52	4676.9	
783.69	3588.7	
783.87	4193.6	
784.05	4709.6	
784.22	4652.3	
784.4	4192.9	
784.58	3753.9	
784.75	5320.6	
784.93	4692.6	
785.1	3476.1	
785.28	3895.9	
785.46	5154.7	
785.63	4558.1	
785.81	3442.6	
785.99	3330	
786.16	4776.5	
786.34	4966.3	
786.51	3287	
786.69	3595.6	
786.87	4368.3	
787.04	4776.5	
787.22	3265.8	
787.39	3895.9	
787.57	4574.5	
787.75	5342.5	
787.92	4078.9	
788.1	4001.7	
788.27	4541.7	
788.45	4360.8	
788.63	3784	
788.8	2861.7	
788.98	4997	
789.15	4252.9	
789.33	2916.3	
789.5	3402.4	
789.68	5206.6	
789.86	5309	
790.03	3644	
790.21	3270.6	
790.38	5220.3	
790.56	4603.8	
790.73	3211.2	
790.91	3195.5	
791.09	4602.5	
791.26	4984.8	
791.44	3425.6	
791.61	2940.2	
791.79	4545.1	
791.96	4551.3	
792.14	3087	
792.32	2724.5	
792.49	4524	
792.67	4570.4	
792.84	3156.6	
793.02	2955.9	
793.19	4824.3	
793.37	5386.2	
793.54	2716.3	
793.72	3025.5	
793.89	5350.7	
794.07	4448.9	
794.25	3459	
794.42	2744.3	
794.6	5261.2	
794.77	4921.3	
794.95	3600.3	
795.12	3189.4	
795.3	4538.3	
795.47	4883.7	
795.65	3486.3	
795.82	3386.7	
796	4371.7	
796.17	5653.8	
796.35	3282.2	
796.52	3772.4	
796.7	4844.1	
796.87	4935.6	
797.05	3282.9	
797.22	3840.6	
797.4	4920.6	
797.57	5573.9	
797.75	3351.2	
797.92	3194.8	
798.1	5126.1	
798.27	4389.5	
798.45	2784.6	
798.62	2949.1	
798.8	4686.4	
798.97	4967.7	
799.15	3476.8	
799.32	3340.2	
799.5	4135.5	
799.67	4643.4	
799.85	3574.4	
800.02	2753.2	
800.2	4401.1	
800.37	4549.2	
800.55	3661.8	
800.72	3165.5	
800.9	5031.9	
801.07	5216.2	
801.25	4093.9	
801.42	3437.2	
801.6	5072.8	
801.77	4664.6	
801.95	3217.4	
802.12	3110.2	
802.29	4853.7	
802.47	4782	
802.64	3469.3	
802.82	2686.3	
802.99	4455	
803.17	5052.3	
803.34	3291.1	
803.52	2986.6	
803.69	5558.9	
803.87	4233.8	
804.04	3306.1	
804.21	3376.4	
804.39	5214.1	
804.56	4519.2	
804.74	2874	
804.91	3396.2	
805.09	4430.4	
805.26	4410.6	
805.44	2899.2	
805.61	3181.2	
805.78	4906.3	
805.96	4906.3	
806.13	3410.6	
806.31	3599.6	
806.48	4044.1	
806.66	4465.9	
806.83	3387.3	
807	3315.7	
807.18	4431.8	
807.35	4688.5	
807.53	3117	
807.7	2706	
807.87	5199.1	
808.05	4444.8	
808.22	3555.3	
808.4	2715.6	
808.57	4343.1	
808.74	4149.9	
808.92	3069.9	
809.09	3753.9	
809.27	4376.5	
809.44	4728.8	
809.61	2736.8	
809.79	3025.5	
809.96	5285.8	
810.14	4927.4	
810.31	2699.2	
810.48	3156.6	
810.66	4509.6	
810.83	4913.8	
811.01	3040.6	
811.18	3376.4	
811.35	4972.5	
811.53	3946.4	
811.7	3594.2	
811.87	3355.9	
812.05	4499.4	
812.22	4368.3	
812.39	2918.4	
812.57	2908.8	
812.74	4443.4	
812.92	5504.9	
813.09	3237.2	
813.26	3423.5	
813.44	5397.1	
813.61	4306.2	
813.78	2712.2	
813.96	3471.3	
814.13	4427.7	
814.3	4174.4	
814.48	3717.7	
814.65	3154.6	
814.82	5223.7	
815	4136.9	
815.17	3242.6	
815.34	3881.6	
815.52	4362.9	
815.69	4347.8	
815.87	3174.4	
816.04	3158	
816.21	4407.2	
816.38	4010.6	
816.56	3128.6	
816.73	2975.7	
816.9	5362.3	
817.08	4901.5	
817.25	2940.9	
817.42	3560.7	
817.6	4076.1	
817.77	4330.1	
817.94	3257	
818.12	2904	
818.29	4218.8	
818.46	6008.7	
818.64	3087	
818.81	2862.4	
818.98	4219.5	
819.16	5685.8	
819.33	3496.6	
819.5	3276.8	
819.67	4616.8	
819.85	5130.2	
820.02	3229	
820.19	3323.2	
820.37	4543.1	
820.54	4305.5	
820.71	3285.6	
820.88	3962.1	
821.06	4536.3	
821.23	4214	
821.4	3341.6	
821.58	3287	
821.75	4863.9	
821.92	4529.4	
822.09	2742.2	
822.27	2811.9	
822.44	4408.6	
822.61	4346.5	
822.79	2777	
822.96	4870.8	
823.13	4633.9	
823.3	4204.5	
823.48	3110.9	
823.65	2773.6	
823.82	4888.5	
823.99	4117.1	
824.17	3809.2	
824.34	2871.3	
824.51	5555.5	
824.68	4399.7	
824.86	2968.2	
825.03	3284.9	
825.2	4444.1	
825.37	5077.6	
825.55	2997.5	
825.72	3182.5	
825.89	5489.2	
826.06	5152.7	
826.24	3174.4	
826.41	3142.9	
826.58	5199.1	
826.75	4584.7	
826.92	2643.9	
827.1	2835.1	
827.27	6736.5	
827.44	5515.9	
827.61	3054.2	
827.79	3510.2	
827.96	4259.1	
828.13	4410.6	
828.3	3151.8	
828.47	2727.9	
828.65	4674.8	
828.82	4573.1	
828.99	3865.2	
829.16	3448.8	
829.34	4911	
829.51	4756.7	
829.68	3203.7	
829.85	3317.7	
830.02	5171.1	
830.2	4914.4	
830.37	2604.3	
830.54	3776.5	
830.71	5455.8	
830.88	4456.4	
831.05	2580.4	
831.23	2910.8	
831.4	5295.4	
831.57	5712.5	
831.74	3053.5	
831.91	2699.9	
832.09	4724	
832.26	4923.3	
832.43	3057.6	
832.6	3373	
832.77	4657.1	
832.94	5124.7	
833.12	2547	
833.29	3029.6	
833.46	4739.7	
833.63	5893.4	
833.8	3339.6	
833.97	3064.4	
834.15	4930.8	
834.32	4803.9	
834.49	3205.8	
834.66	3267.2	
834.83	5010	
835	4286.4	
835.17	2949.8	
835.35	2996.2	
835.52	4825.7	
835.69	4711.7	
835.86	3162.7	
836.03	2599.6	
836.2	4872.8	
836.37	4596.3	
836.55	3065.8	
836.72	2848.7	
836.89	4595.6	
837.06	4946.5	
837.23	3114.3	
837.4	3365.5	
837.57	5498.8	
837.75	5922.7	
837.92	2872.6	
838.09	3026.2	
838.26	4551.3	
838.43	5031.9	
838.6	3233.7	
838.77	2873.3	
838.94	5545.2	
839.11	5493.3	
839.29	3122.5	
839.46	2501.3	
839.63	4885.1	
839.8	4625.7	
839.97	3006.4	
840.14	2982.5	
840.31	4758.8	
840.48	4902.2	
840.65	2596.1	
840.82	2934.1	
841	4879.6	
841.17	4757.4	
841.34	2762	
841.51	2774.3	
841.68	4803.2	
841.85	4607.9	
842.02	2899.9	
842.19	2443.2	
842.36	4669.4	
842.53	4658.4	
842.7	2798.2	
842.87	3246.7	
843.05	5868.1	
843.22	4593.6	
843.39	2725.8	
843.56	2855.6	
843.73	4564.2	
843.9	4934.9	
844.07	4300.7	
844.24	3551.2	
844.41	6528.9	
844.58	4343.7	
844.75	2682.8	
844.92	2891	
845.09	4775.2	
845.26	4832.5	
845.43	2792.1	
845.6	2923.1	
845.77	4893.3	
845.94	4614.8	
846.12	2990	
846.29	3214.6	
846.46	4970.4	
846.63	4878.3	
846.8	2764.1	
846.97	3225.6	
847.14	5149.3	
847.31	4833.2	
847.48	3031	
847.65	3365.5	
847.82	4998.4	
847.99	4975.2	
848.16	3583.9	
848.33	3307.5	
848.5	4518.5	
848.67	5175.2	
848.84	2718.3	
849.01	2803.7	
849.18	4471.4	
849.35	4210.6	
849.52	3362.1	
849.69	2711.5	
849.86	5055.1	
850.03	5047.6	
850.2	2764.8	
850.37	3281.5	
850.54	5081.7	
850.71	4586.1	
850.88	3241.9	
851.05	2693.1	
851.22	4727.4	
851.39	5185.5	
851.56	2634.4	
851.73	3094.5	
851.9	4287.8	
852.07	5051	
852.24	3054.9	
852.41	2691	
852.58	4756.7	
852.75	4436.6	
852.92	3024.8	
853.09	2717	
853.26	4489.8	
853.43	5139.7	
853.6	2741.5	
853.77	2405	
853.94	5224.4	
854.11	4297.3	
854.28	3900.7	
854.44	2965.5	
854.61	5502.9	
854.78	5055.8	
854.95	2723.1	
855.12	3360.7	
855.29	4036.5	
855.46	5343.2	
855.63	2771.6	
855.8	3652.9	
855.97	4492.6	
856.14	5060.5	
856.31	3756.7	
856.48	2992.1	
856.65	4542.4	
856.82	4316.4	
856.99	2686.9	
857.16	2952.5	
857.33	5715.9	
857.49	4635.9	
857.66	2927.2	
857.83	3077.4	
858	4623.6	
858.17	4776.5	
858.34	2595.5	
858.51	2783.9	
858.68	5298.8	
858.85	5267.4	
859.02	3110.2	
859.19	3327.9	
859.36	4385.4	
859.52	4363.5	
859.69	2801.6	
859.86	3189.4	
860.03	4345.8	
860.2	5211.4	
860.37	2562	
860.54	2748.4	
860.71	4971.8	
860.88	5227.8	
861.05	2988.7	
861.21	3416	
861.38	5242.8	
861.55	4212	
861.72	2550.4	
861.89	3059	
862.06	5034.6	
862.23	5321.3	
862.4	2660.3	
862.56	2858.3	
862.73	4902.2	
862.9	4649.6	
863.07	3133.4	
863.24	2493.7	
863.41	4305.5	
863.58	4317.1	
863.75	2736.8	
863.91	3132.7	
864.08	5139	
864.25	4925.4	
864.42	3359.4	
864.59	3706.1	
864.76	5421.7	
864.93	4288.4	
865.09	2639.8	
865.26	2932.7	
865.43	5186.1	
865.6	5427.8	
865.77	2436.4	
865.94	2723.1	
866.1	5192.3	
866.27	4896	
866.44	3975.1	
866.61	2610.5	
866.78	4659.1	
866.95	4870.8	
867.11	2650.8	
867.28	2479.4	
867.45	5118.6	
867.62	4341.7	
867.79	3082.9	
867.96	2772.9	
868.12	4315.1	
868.29	5000.5	
868.46	2713.6	
868.63	3579.8	
868.8	5081.7	
868.97	4953.4	
869.13	2845.3	
869.3	2883.5	
869.47	4821.6	
869.64	5020.3	
869.81	2756.6	
869.97	2733.4	
870.14	4797.7	
870.31	5300.8	
870.48	2725.8	
870.65	3394.2	
870.81	4595.6	
870.98	4588.8	
871.15	3055.6	
871.32	2775.7	
871.48	4799.8	
871.65	5313.1	
871.82	2716.3	
871.99	3006.4	
872.16	5619.6	
872.32	5144.5	
872.49	2795.5	
872.66	2717.7	
872.83	5047.6	
872.99	4431.1	
873.16	3065.8	
873.33	2744.3	
873.5	4714.4	
873.67	4721.9	
873.83	2838.5	
874	3629	
874.17	4813.4	
874.34	5481.7	
874.5	3408.5	
874.67	3280.8	
874.84	5111	
875.01	4182	
875.17	3710.9	
875.34	2714.2	
875.51	4780.6	
875.68	5606.7	
875.84	3180.5	
876.01	3792.8	
876.18	4962.9	
876.34	4860.5	
876.51	2783.2	
876.68	2689.7	
876.85	4532.8	
877.01	5165	
877.18	3713	
877.35	2711.5	
877.52	4798.4	
877.68	4281.6	
877.85	2698.5	
878.02	2744.3	
878.18	4552	
878.35	4450.9	
878.52	2295.8	
878.69	2969.6	
878.85	5095.3	
879.02	4925.4	
879.19	3748.5	
879.35	2930	
879.52	4938.3	
879.69	5022.3	
879.86	2402.9	
880.02	3115.6	
880.19	4628.4	
880.36	5494.7	
880.52	3087	
880.69	3207.8	
880.86	4984.8	
881.02	5049.6	
881.19	2990	
881.36	2943.6	
881.52	4917.2	
881.69	4420.9	
881.86	2920.4	
882.02	2867.2	
882.19	5113.8	
882.36	5862	
882.52	2795.5	
882.69	3698.6	
882.86	4744.5	
883.02	4722.6	
883.19	3257	
883.36	3063.8	
883.52	5055.1	
883.69	5529.5	
883.86	2777	
884.02	2545.6	
884.19	4967	
884.36	4726	
884.52	3006.4	
884.69	2889.7	
884.86	4539.7	
885.02	5366.4	
885.19	2983.9	
885.36	3091.1	
885.52	4640	
885.69	4781.3	
885.86	3817.4	
886.02	3360	
886.19	4973.8	
886.35	4491.9	
886.52	2996.9	
886.69	3621.5	
886.85	4347.2	
887.02	5196.4	
887.19	5196.4	
887.35	5196.4	
887.52	5196.4	
887.68	5196.4	
887.85	5196.4	
888.02	5196.4	
888.18	5196.4	
888.35	5196.4	
888.51	5196.4	
888.68	5196.4	
888.85	5196.4	
889.01	5196.4	
889.18	5196.4	
889.35	5196.4	
889.51	5196.4	
889.68	5196.4	
889.84	5196.4	
890.01	5196.4	
890.17	5196.4	
890.34	5196.4	
890.51	5196.4	
890.67	5196.4	
890.84	5196.4	
891	5196.4	
891.17	5196.4	
891.34	5196.4	
891.5	5196.4	
891.67	5196.4	
891.83	5196.4	
892	5196.4	
892.16	5196.4	
892.33	5196.4	
892.5	5196.4	
892.66	5196.4	
892.83	5196.4	
892.99	5196.4	
893.16	5196.4	
893.32	5196.4	
893.49	5196.4	
893.65	5196.4	
893.82	5196.4	
893.99	5196.4	
894.15	5196.4	
894.32	5196.4	
894.48	5196.4	
894.65	5196.4	
894.81	5196.4	
894.98	5196.4	
895.14	5196.4	
895.31	5196.4	
895.47	5196.4	
895.64	5196.4	
895.81	5196.4	
895.97	5196.4	
896.14	5196.4	
896.3	5196.4	
896.47	5196.4	
896.63	5196.4	
896.8	5196.4	
896.96	5196.4	
897.13	5196.4	
897.29	5196.4	
897.46	5196.4	
897.62	5196.4	
897.79	5196.4	
897.95	5196.4	
898.12	5196.4	
898.28	5196.4	
898.45	5196.4	
898.61	5196.4	
898.78	5196.4	
898.94	5196.4	
899.11	5196.4	
899.27	5196.4	
899.44	5196.4	
899.6	5196.4	
899.77	5196.4	
899.93	5196.4	
900.1	5196.4	
900.26	5196.4	
900.43	5196.4	
900.59	5196.4	
900.76	5196.4	
900.92	5196.4	
901.09	5196.4	
901.25	5196.4	
901.42	5196.4	
901.58	5196.4	
901.75	5196.4	
901.91	5196.4	
902.07	5196.4	
902.24	5196.4	
902.4	5196.4	
902.57	5196.4	
902.73	5196.4	
902.9	5196.4	
903.06	5196.4	
903.23	5196.4	
903.39	5196.4	
903.56	5196.4	
903.72	5196.4	
903.88	5196.4	
904.05	5196.4	
904.21	5196.4	
904.38	5196.4	
904.54	5196.4	
904.71	5196.4	
904.87	5196.4	
905.03	5196.4	
905.2	5196.4	
905.36	5196.4	
905.53	5196.4	
905.69	5196.4	
905.86	5196.4	
906.02	5196.4	
906.18	5196.4	
906.35	5196.4	
906.51	5196.4	
906.68	5196.4	
906.84	5196.4	
907.01	5196.4	
907.17	5196.4	
907.33	5196.4	
907.5	5196.4	
907.66	5196.4	
907.83	5196.4	
907.99	5196.4	
908.15	5196.4	
908.32	5196.4	
908.48	5196.4	
908.65	5196.4	
908.81	5196.4	
908.97	5196.4	
909.14	5196.4	
909.3	5196.4	
909.47	5196.4	
909.63	5196.4	
909.79	5196.4	
909.96	5196.4	
910.12	5196.4	
910.28	5196.4	
910.45	5196.4	
910.61	5196.4	
910.78	5196.4	
910.94	5196.4	
911.1	5196.4	
911.27	5196.4	
911.43	5196.4	
911.59	5196.4	
911.76	5196.4	
911.92	5196.4	
912.08	5196.4	
912.25	5196.4	
912.41	5196.4	
912.57	5196.4	
912.74	5196.4	
912.9	5196.4	
913.07	5196.4	
913.23	5196.4	
913.39	5196.4	
913.56	5196.4	
913.72	5196.4	
913.88	5196.4	
914.05	5196.4	
914.21	5196.4	
914.37	5196.4	
914.54	5196.4	
914.7	5196.4	
914.86	5196.4	
915.03	5196.4	
915.19	5196.4	
