Wavelength	Intensities	
nm	a.u.	
179.22	1436.5	
179.44	1438	
179.65	1434.9	
179.86	1441.1	
180.08	1417.9	
180.29	2998.2	
180.51	2448	
180.72	4272.7	
180.94	4583.4	
181.15	2219.3	
181.37	2222.7	
181.58	4045.4	
181.79	4108.2	
182.01	2280.8	
182.22	2330.6	
182.44	4319.2	
182.65	3810.6	
182.87	2764.8	
183.08	2543.6	
183.29	4437.9	
183.51	3802.4	
183.72	2314.9	
183.94	3007.8	
184.15	4037.2	
184.37	3977.2	
184.58	2198.2	
184.79	2588.6	
185.01	3883.6	
185.22	4410.6	
185.44	2746.3	
185.65	2450.1	
185.86	4205.8	
186.08	3770.3	
186.29	2192.7	
186.51	2253.4	
186.72	3954.6	
186.94	4334.2	
187.15	2554.5	
187.36	2544.9	
187.58	5106.3	
187.79	4076.8	
188.01	2541.5	
188.22	3557.3	
188.43	4625	
188.65	4259.1	
188.86	2294.4	
189.08	2570.2	
189.29	3965.6	
189.5	3887.7	
189.72	2358.6	
189.93	2381.8	
190.15	4362.2	
190.36	4796.3	
190.57	2542.9	
190.79	2473.3	
191	4260.5	
191.22	4359.4	
191.43	2603	
191.64	2267.8	
191.86	4439.3	
192.07	4347.2	
192.29	2307.4	
192.5	2375.6	
192.71	4392.2	
192.93	4003.1	
193.14	2321.7	
193.35	2415.9	
193.57	3917.8	
193.78	4372.4	
194	2008.4	
194.21	2349	
194.42	3695.2	
194.64	4039.3	
194.85	2473.3	
195.07	2783.2	
195.28	3975.1	
195.49	3729.4	
195.71	2903.3	
195.92	2237.7	
196.13	4193.6	
196.35	4079.6	
196.56	3039.9	
196.78	2534.7	
196.99	4825	
197.2	4536.9	
197.42	2696.5	
197.63	2519	
197.84	3801.7	
198.06	4179.2	
198.27	2369.5	
198.48	2876	
198.7	3952.6	
198.91	4164.2	
199.13	2553.1	
199.34	2533.3	
199.55	4437.3	
199.77	3584.6	
199.98	2341.5	
200.19	2524.5	
200.41	4149.2	
200.62	3865.2	
200.83	2539.5	
201.05	2734.7	
201.26	4094.6	
201.47	3948.5	
201.69	2350.4	
201.9	2305.3	
202.11	4067.9	
202.33	4509.6	
202.54	2379.1	
202.76	2647.3	
202.97	4052.2	
203.18	4181.3	
203.4	2574.3	
203.61	2639.8	
203.82	4126.7	
204.04	3860.4	
204.25	2512.2	
204.46	2552.5	
204.68	4067.9	
204.89	4166.9	
205.1	2497.8	
205.32	2243.9	
205.53	4175.1	
205.74	4345.8	
205.96	2068.4	
206.17	2555.9	
206.38	4162.2	
206.6	4306.2	
206.81	2749.7	
207.02	2413.2	
207.24	4188.8	
207.45	4386.7	
207.66	2442.5	
207.88	2250.7	
208.09	4158.7	
208.3	4046.8	
208.52	2347	
208.73	2531.3	
208.94	4044.1	
209.15	4358.8	
209.37	2413.2	
209.58	2473.3	
209.79	4233.2	
210.01	3976.5	
210.22	2123.7	
210.43	2200.2	
210.65	3949.2	
210.86	4162.2	
211.07	2316.9	
211.29	2282.8	
211.5	4180.6	
211.71	4037.9	
211.93	2353.8	
212.14	2323.8	
212.35	4052.9	
212.56	3989.4	
212.78	2525.8	
212.99	2140.8	
213.2	4450.9	
213.42	3969	
213.63	2366.8	
213.84	2403	
214.06	3861.1	
214.27	3734.8	
214.48	2407.7	
214.69	2520.4	
214.91	4440.7	
215.12	4347.8	
215.33	2511.5	
215.55	2669.2	
215.76	4672.1	
215.97	4212.7	
216.18	2473.3	
216.4	2502.6	
216.61	3833.8	
216.82	4253.6	
217.04	2347.7	
217.25	2380.4	
217.46	4351.9	
217.67	4248.9	
217.89	2195.4	
218.1	2170.8	
218.31	4034.5	
218.53	4204.5	
218.74	2495.1	
218.95	2356.5	
219.16	4065.9	
219.38	4532.8	
219.59	2356.5	
219.8	2605	
220.01	4685.8	
220.23	4100	
220.44	2753.8	
220.65	2264.4	
220.87	4152.6	
221.08	4331.5	
221.29	2256.2	
221.5	2681.5	
221.72	4896.7	
221.93	3815.4	
222.14	2523.1	
222.35	2861	
222.57	4008.6	
222.78	4323.9	
222.99	2495.8	
223.2	2566.1	
223.42	4143	
223.63	4184	
223.84	2034.3	
224.05	2030.9	
224.27	4553.3	
224.48	4457.7	
224.69	2910.8	
224.9	2465.1	
225.12	4091.8	
225.33	4051.6	
225.54	2190	
225.75	2316.3	
225.97	3860.4	
226.18	4046.8	
226.39	2416.6	
226.6	2338.8	
226.82	3957.4	
227.03	3848.8	
227.24	2513.5	
227.45	2226.8	
227.67	4320.5	
227.88	4403.1	
228.09	2790	
228.3	2735.4	
228.52	4175.1	
228.73	3989.4	
228.94	2343.6	
229.15	2206.3	
229.36	4129.4	
229.58	4073.4	
229.79	2420.7	
230	2673.3	
230.21	4592.2	
230.43	4012.7	
230.64	2512.2	
230.85	2563.4	
231.06	4318.5	
231.28	4275.5	
231.49	2215.2	
231.7	2510.1	
231.91	4254.3	
232.12	4048.2	
232.34	2323.8	
232.55	2456.2	
232.76	4351.3	
232.97	4109.6	
233.18	2319.7	
233.4	2526.5	
233.61	4042.7	
233.82	3909.6	
234.03	2435	
234.25	2395.4	
234.46	4972.5	
234.67	4047.5	
234.88	2597.5	
235.09	2378.4	
235.31	4143	
235.52	3979.9	
235.73	2489	
235.94	2231.6	
236.15	3929.4	
236.37	4559.5	
236.58	2312.2	
236.79	2428.2	
237	4176.5	
237.21	3751.2	
237.43	2587.3	
237.64	2196.1	
237.85	5880.4	
238.06	3942.3	
238.27	2551.1	
238.48	2256.9	
238.7	4290.5	
238.91	4035.2	
239.12	2416.6	
239.33	2567.5	
239.54	3846.8	
239.76	3964.2	
239.97	2447.3	
240.18	2452.1	
240.39	4603.2	
240.6	4094.6	
240.82	2610.5	
241.03	2283.5	
241.24	3969.6	
241.45	4385.4	
241.66	2326.5	
241.87	2639.1	
242.09	4463.2	
242.3	4476.9	
242.51	2596.8	
242.72	2431.6	
242.93	4212.7	
243.14	3924.6	
243.36	2725.2	
243.57	2850.1	
243.78	4458.4	
243.99	4137.6	
244.2	2398.9	
244.41	2230.2	
244.63	3730.7	
244.84	4098.7	
245.05	2536.8	
245.26	2404.3	
245.47	4264.6	
245.68	4222.2	
245.9	2911.5	
246.11	2580.4	
246.32	3877.5	
246.53	4203.8	
246.74	3517	
246.95	2172.9	
247.16	3963.5	
247.38	4057.7	
247.59	2266.4	
247.8	2460.3	
248.01	3609.9	
248.22	4074.1	
248.43	2293	
248.64	2440.5	
248.86	3837.9	
249.07	3953.3	
249.28	2326.5	
249.49	2514.2	
249.7	4240.7	
249.91	4249.5	
250.12	2174.3	
250.34	2203.6	
250.55	4089.8	
250.76	4032.5	
250.97	2572.2	
251.18	2484.9	
251.39	4235.2	
251.6	4106.9	
251.81	2522.4	
252.03	2497.2	
252.24	3873.4	
252.45	4193.6	
252.66	2257.5	
252.87	2582.5	
253.08	4036.5	
253.29	4785.4	
253.5	2291.7	
253.72	2841.9	
253.93	3992.2	
254.14	4453	
254.35	2347	
254.56	2396.1	
254.77	4160.1	
254.98	3850.2	
255.19	2458.9	
255.41	2803	
255.62	4184	
255.83	4359.4	
256.04	2609.8	
256.25	2489.6	
256.46	4609.3	
256.67	3880.9	
256.88	2512.2	
257.09	2685.6	
257.31	3732.8	
257.52	3873.4	
257.73	2959.3	
257.94	2353.1	
258.15	4082.3	
258.36	3975.1	
258.57	2708.8	
258.78	2039.8	
258.99	4300.1	
259.2	3937.6	
259.41	2340.1	
259.63	2458.2	
259.84	4466.6	
260.05	4547.2	
260.26	2826.9	
260.47	2314.9	
260.68	4323.3	
260.89	3971	
261.1	2732.7	
261.31	2297.8	
261.52	4500.1	
261.73	4487.1	
261.95	2900.6	
262.16	2568.8	
262.37	4317.8	
262.58	4381.3	
262.79	2846	
263	2404.3	
263.21	4059.1	
263.42	3842	
263.63	2555.9	
263.84	2333.3	
264.05	4204.5	
264.26	4402.5	
264.47	2749.7	
264.69	2527.9	
264.9	4496	
265.11	3977.2	
265.32	2326.5	
265.53	2308.7	
265.74	4059.1	
265.95	3696.6	
266.16	2452.1	
266.37	2619.4	
266.58	4148.5	
266.79	3878.2	
267	2335.4	
267.21	2271.2	
267.42	3803.1	
267.63	4033.1	
267.84	2431.6	
268.06	2223.4	
268.27	4203.8	
268.48	4356	
268.69	2422.1	
268.9	2710.8	
269.11	4072.7	
269.32	3708.9	
269.53	2461.7	
269.74	2336	
269.95	4069.3	
270.16	3747.8	
270.37	2482.8	
270.58	2734.7	
270.79	4027.7	
271	4269.3	
271.21	2509.4	
271.42	2466.4	
271.63	4263.2	
271.84	3717.1	
272.05	2125.8	
272.26	2264.4	
272.47	4065.9	
272.68	4076.1	
272.89	2493.7	
273.11	2557.2	
273.32	3885.7	
273.53	4424.3	
273.74	2537.4	
273.95	2624.1	
274.16	4098	
274.37	3977.8	
274.58	2699.9	
274.79	2267.1	
275	4197.7	
275.21	4255.7	
275.42	2977.7	
275.63	2626.9	
275.84	4246.8	
276.05	4841.4	
276.26	2518.3	
276.47	2406.4	
276.68	4080.2	
276.89	4597	
277.1	2610.5	
277.31	2213.2	
277.52	4149.2	
277.73	4460.5	
277.94	2222.7	
278.15	2407.7	
278.36	4173.8	
278.57	3846.1	
278.78	2387.2	
278.99	2572.9	
279.2	3910.9	
279.41	3892.5	
279.62	2942.2	
279.83	2240.5	
280.04	4642.7	
280.25	3856.3	
280.46	2918.4	
280.67	2430.3	
280.88	3918.4	
281.09	4361.5	
281.3	2551.1	
281.51	2957.3	
281.72	3917.1	
281.93	4112.3	
282.14	2386.6	
282.35	2574.3	
282.56	4382	
282.77	4214.7	
282.98	2434.4	
283.19	2764.1	
283.4	4851	
283.61	3996.3	
283.82	2323.8	
284.03	2841.2	
284.24	4233.2	
284.45	4202.4	
284.66	2904.7	
284.87	2715.6	
285.08	4345.8	
285.29	4429.1	
285.5	2256.9	
285.71	2433.7	
285.92	4224.3	
286.12	4634.6	
286.33	2871.9	
286.54	2418.7	
286.75	4270	
286.96	4001	
287.17	2333.3	
287.38	2725.2	
287.59	3977.2	
287.8	4037.2	
288.01	2425.5	
288.22	2588.6	
288.43	4043.4	
288.64	3702.7	
288.85	2758.6	
289.06	2621.4	
289.27	4283.7	
289.48	4349.9	
289.69	2924.5	
289.9	2705.4	
290.11	4411.3	
290.32	3993.5	
290.53	2727.2	
290.74	2578.4	
290.94	4263.9	
291.15	4289.1	
291.36	2339.5	
291.57	2615.3	
291.78	4029.7	
291.99	3749.8	
292.2	2331.3	
292.41	2600.2	
292.62	4278.9	
292.83	4169.7	
293.04	3011.9	
293.25	2385.9	
293.46	4001	
293.67	4253.6	
293.88	2305.3	
294.09	2310.1	
294.29	3938.9	
294.5	4083.6	
294.71	2449.4	
294.92	2377.7	
295.13	3977.8	
295.34	4659.8	
295.55	2200.2	
295.76	2162	
295.97	4255.7	
296.18	4533.5	
296.39	2264.4	
296.6	2328.5	
296.81	3944.4	
297.01	4266.6	
297.22	2420	
297.43	2399.5	
297.64	3990.8	
297.85	3803.1	
298.06	2106.7	
298.27	2172.9	
298.48	4017.4	
298.69	3906.2	
298.9	2525.8	
299.11	2314.9	
299.31	3893.9	
299.52	3908.9	
299.73	2632.3	
299.94	2547.7	
300.15	4108.2	
300.36	3960.1	
300.57	2580.4	
300.78	2506.7	
300.99	3889.8	
301.2	4053.6	
301.4	2435.7	
301.61	2435	
301.82	4097.3	
302.03	4265.9	
302.24	2685.6	
302.45	2261.6	
302.66	4159.4	
302.87	4199	
303.08	2316.3	
303.29	2927.9	
303.49	4001.7	
303.7	3837.9	
303.91	2226.8	
304.12	2833	
304.33	3688.4	
304.54	4206.5	
304.75	2357.2	
304.96	2335.4	
305.16	4229.7	
305.37	4562.9	
305.58	2171.5	
305.79	2179.7	
306	4233.8	
306.21	3728	
306.42	2410.5	
306.63	3166.2	
306.83	3972.4	
307.04	4134.2	
307.25	2538.8	
307.46	2486.2	
307.67	3768.3	
307.88	4117.1	
308.09	2413.9	
308.29	2352.4	
308.5	4091.2	
308.71	4260.5	
308.92	2476	
309.13	2250.7	
309.34	4085.7	
309.55	4009.2	
309.75	2819.4	
309.96	2579.1	
310.17	4222.9	
310.38	3885.7	
310.59	2577.7	
310.8	2536.8	
311.01	3960.8	
311.21	4072.7	
311.42	2321.7	
311.63	2357.2	
311.84	3985.3	
312.05	4070.7	
312.26	2553.8	
312.46	2682.8	
312.67	3959.4	
312.88	3659.7	
313.09	2245.9	
313.3	2274.6	
313.51	4394.9	
313.71	4609.3	
313.92	2334	
314.13	2388.6	
314.34	4157.4	
314.55	4088.4	
314.76	2704	
314.96	2484.2	
315.17	4205.8	
315.38	3957.4	
315.59	2350.4	
315.8	2235.7	
316.01	4320.5	
316.21	4397.7	
316.42	2283.5	
316.63	2459.6	
316.84	3986.7	
317.05	4199	
317.26	2633	
317.46	2392.7	
317.67	4033.1	
317.88	4198.3	
318.09	2753.8	
318.3	2195.4	
318.5	4031.1	
318.71	4128.7	
318.92	3254.9	
319.13	2610.5	
319.34	4276.8	
319.54	4353.3	
319.75	2254.8	
319.96	2044.6	
320.17	4100.7	
320.38	4258.4	
320.58	2180.4	
320.79	2489	
321	4358.8	
321.21	4391.5	
321.42	2544.3	
321.62	2222	
321.83	3949.2	
322.04	4090.5	
322.25	2447.3	
322.46	2338.1	
322.66	4038.6	
322.87	4224.3	
323.08	2688.3	
323.29	2198.8	
323.5	4549.9	
323.7	3815.4	
323.91	2855.6	
324.12	2633.7	
324.33	4151.2	
324.53	4175.1	
324.74	2532.7	
324.95	2659.6	
325.16	3781.9	
325.37	3974.4	
325.57	2296.5	
325.78	2310.8	
325.99	4238.6	
326.2	3788.1	
326.4	3017.3	
326.61	2202.9	
326.82	3975.8	
327.03	4031.8	
327.24	2945	
327.44	2728.6	
327.65	4218.8	
327.86	3638.6	
328.07	2640.5	
328.27	2261	
328.48	4389.5	
328.69	3775.8	
328.9	2949.8	
329.1	2346.3	
329.31	4040.6	
329.52	4376.5	
329.73	2316.9	
329.93	2417.3	
330.14	4147.1	
330.35	4126.7	
330.56	3276.8	
330.76	2667.1	
330.97	3997	
331.18	4001	
331.39	2458.2	
331.59	2164.7	
331.8	4296	
332.01	4379.2	
332.22	2408.4	
332.42	2594.8	
332.63	4078.9	
332.84	3766.2	
333.05	2486.9	
333.25	2316.9	
333.46	3837.2	
333.67	3972.4	
333.88	2446.6	
334.08	2587.9	
334.29	4807.3	
334.5	4158.7	
334.7	2282.8	
334.91	2934.7	
335.12	3793.5	
335.33	4119.1	
335.53	2507.4	
335.74	3180.5	
335.95	4059.8	
336.16	3681.6	
336.36	2447.3	
336.57	2695.8	
336.78	3534.8	
336.98	4231.8	
337.19	2916.3	
337.4	2446	
337.61	4700.1	
337.81	3756.7	
338.02	2359.9	
338.23	2690.3	
338.43	4429.8	
338.64	3902.1	
338.85	2282.8	
339.05	2849.4	
339.26	4490.5	
339.47	3786.7	
339.68	2323.8	
339.88	3039.2	
340.09	4229.7	
340.3	4297.3	
340.5	2542.2	
340.71	2169.5	
340.92	3837.2	
341.13	4324.6	
341.33	2190.6	
341.54	2545.6	
341.75	4120.5	
341.95	3879.5	
342.16	2536.8	
342.37	2623.4	
342.57	3850.9	
342.78	3947.8	
342.99	2644.6	
343.19	2183.1	
343.4	4244.1	
343.61	4122.6	
343.81	2429.6	
344.02	2241.8	
344.23	4235.2	
344.43	4342.4	
344.64	2667.1	
344.85	2615.3	
345.06	4218.1	
345.26	4341.7	
345.47	2572.9	
345.68	2862.4	
345.88	3811.3	
346.09	4228.4	
346.3	2592	
346.5	2135.3	
346.71	3921.9	
346.92	3882.3	
347.12	2290.3	
347.33	2555.9	
347.54	4279.6	
347.74	4401.1	
347.95	2575	
348.16	2121.7	
348.36	3931.4	
348.57	3818.8	
348.78	2677.4	
348.98	2620	
349.19	4001	
349.39	3648.1	
349.6	2250	
349.81	2340.1	
350.01	4277.5	
350.22	3900.7	
350.43	2566.8	
350.63	2807.1	
350.84	3947.8	
351.05	3837.2	
351.25	2278.7	
351.46	2196.8	
351.67	4128.7	
351.87	3843.4	
352.08	2452.1	
352.29	2633	
352.49	4287.1	
352.7	4218.8	
352.9	2252.1	
353.11	2646	
353.32	4463.9	
353.52	3918.4	
353.73	2278	
353.94	2621.4	
354.14	4136.9	
354.35	3844.7	
354.55	2357.2	
354.76	2496.5	
354.97	4170.3	
355.17	3928.7	
355.38	2277.3	
355.59	2796.2	
355.79	3813.3	
356	4053.6	
356.2	2515.6	
356.41	2288.3	
356.62	3777.1	
356.82	3999.7	
357.03	2649.4	
357.24	2413.2	
357.44	3779.9	
357.65	3878.9	
357.85	2900.6	
358.06	2555.9	
358.27	3711.6	
358.47	3706.1	
358.68	2233.7	
358.88	2628.9	
359.09	4076.8	
359.3	4191.5	
359.5	2878.1	
359.71	2651.4	
359.91	4352.6	
360.12	4005.1	
360.33	2625.5	
360.53	2839.8	
360.74	3863.8	
360.94	3874.8	
361.15	2691.7	
361.36	2308.1	
361.56	4265.2	
361.77	3951.9	
361.97	2849.4	
362.18	2439.1	
362.38	4237.9	
362.59	3764.8	
362.8	2277.3	
363	2288.9	
363.21	3650.2	
363.41	3920.5	
363.62	2567.5	
363.83	2889.7	
364.03	4228.4	
364.24	4332.1	
364.44	3039.9	
364.65	3011.2	
364.85	3934.8	
365.06	3824.2	
365.27	2370.2	
365.47	2476.7	
365.68	4293.9	
365.88	3928.7	
366.09	2591.4	
366.29	2350.4	
366.5	3926	
366.71	4197.7	
366.91	2985.3	
367.12	2668.5	
367.32	4533.5	
367.53	4025.6	
367.73	2720.4	
367.94	3087.7	
368.14	4190.8	
368.35	4199	
368.56	2594.8	
368.76	2355.8	
368.97	4048.8	
369.17	4802.5	
369.38	2357.2	
369.58	2554.5	
369.79	3652.2	
369.99	4416.8	
370.2	2987.3	
370.4	2570.9	
370.61	4000.4	
370.82	4665.3	
371.02	2574.3	
371.23	2247.3	
371.43	3809.2	
371.64	4424.3	
371.84	2579.8	
372.05	3007.8	
372.25	4786.8	
372.46	3976.5	
372.66	2501.3	
372.87	2535.4	
373.07	4016.1	
373.28	5024.3	
373.48	2974.3	
373.69	2799.6	
373.9	3957.4	
374.1	3985.3	
374.31	2923.8	
374.51	2690.3	
374.72	4268.6	
374.92	3827.7	
375.13	2987.3	
375.33	2644.6	
375.54	4095.9	
375.74	3934.1	
375.95	2747	
376.15	3220.8	
376.36	4194.2	
376.56	4100.7	
376.77	2765.4	
376.97	2872.6	
377.18	4739.7	
377.38	4159.4	
377.59	2953.9	
377.79	2534.7	
378	4036.5	
378.2	4124.6	
378.41	2497.8	
378.61	2439.8	
378.82	4378.6	
379.02	3968.3	
379.23	2549.7	
379.43	3037.8	
379.64	4554	
379.84	4123.2	
380.05	2553.8	
380.25	2476.7	
380.46	4231.8	
380.66	3979.2	
380.87	3068.5	
381.07	3317.7	
381.28	4541	
381.48	4183.3	
381.69	2497.8	
381.89	2568.2	
382.1	3689.8	
382.3	4160.1	
382.51	3003	
382.71	3368.2	
382.91	3987.4	
383.12	4292.5	
383.32	2674	
383.53	2798.9	
383.73	4154	
383.94	4051.6	
384.14	2738.1	
384.35	2327.9	
384.55	3827.7	
384.76	4121.2	
384.96	2796.8	
385.17	2829.6	
385.37	4190.8	
385.58	3685.7	
385.78	2798.2	
385.98	2383.8	
386.19	3945.8	
386.39	4209.9	
386.6	2542.9	
386.8	2656.9	
387.01	4134.2	
387.21	4217.5	
387.42	2855.6	
387.62	3084.9	
387.83	3945.1	
388.03	3891.1	
388.23	2736.8	
388.44	3035.8	
388.64	3770.3	
388.85	3642	
389.05	2818.7	
389.26	3096.5	
389.46	4927.4	
389.67	4414.1	
389.87	2838.5	
390.07	2861	
390.28	3990.1	
390.48	3831.7	
390.69	2412.5	
390.89	2615.3	
391.1	3986.7	
391.3	4288.4	
391.5	3138.9	
391.71	3396.9	
391.91	4322.6	
392.12	4517.8	
392.32	3232.4	
392.53	2826.2	
392.73	3876.1	
392.93	4006.5	
393.14	2731.3	
393.34	3203	
393.55	4272.1	
393.75	4003.1	
393.95	2732.7	
394.16	2611.2	
394.36	3946.4	
394.57	4313	
394.77	2518.3	
394.98	2544.9	
395.18	3882.9	
395.38	3902.1	
395.59	3067.2	
395.79	2566.8	
396	4008.6	
396.2	4251.6	
396.4	2983.2	
396.61	2929.3	
396.81	4182.6	
397.02	3847.5	
397.22	3063.1	
397.42	3052.2	
397.63	4369	
397.83	3887	
398.04	2581.8	
398.24	2766.8	
398.44	4147.8	
398.65	3596.2	
398.85	2525.1	
399.05	2486.9	
399.26	3980.6	
399.46	4659.1	
399.67	2704	
399.87	2571.6	
400.07	4109.6	
400.28	4206.5	
400.48	2570.9	
400.69	3076	
400.89	4225	
401.09	4637.3	
401.3	2554.5	
401.5	3041.9	
401.7	4562.2	
401.91	4739	
402.11	2853.5	
402.32	2837.1	
402.52	4431.8	
402.72	4275.5	
402.93	2969.6	
403.13	2458.9	
403.33	4789.5	
403.54	4076.1	
403.74	2825.5	
403.94	3263.1	
404.15	4057.7	
404.35	4682.3	
404.56	2701.3	
404.76	3491.1	
404.96	4375.8	
405.17	4224.3	
405.37	3171.6	
405.57	2935.4	
405.78	4361.5	
405.98	3871.3	
406.18	2713.6	
406.39	3060.3	
406.59	4199.7	
406.79	4068.6	
407	2667.1	
407.2	2686.3	
407.4	4645.5	
407.61	4388.1	
407.81	2667.1	
408.01	3587.4	
408.22	3587.4	
408.42	4669.4	
408.62	3149.1	
408.83	2953.9	
409.03	4095.3	
409.23	4097.3	
409.44	2927.2	
409.64	3031	
409.84	4580.6	
410.05	4543.1	
410.25	3044.6	
410.45	2896.5	
410.66	4384	
410.86	5468.8	
411.06	3099.9	
411.27	3035.1	
411.47	5285.1	
411.67	4371.7	
411.88	3074	
412.08	3196.2	
412.28	4612.7	
412.49	4893.3	
412.69	3074	
412.89	3024.2	
413.09	4810.7	
413.3	4721.9	
413.5	3071.3	
413.7	2973.7	
413.91	4249.5	
414.11	4827.7	
414.31	2978.4	
414.52	3153.9	
414.72	4700.1	
414.92	4566.3	
415.12	2994.1	
415.33	3284.3	
415.53	4606.6	
415.73	4844.8	
415.94	3379.1	
416.14	3115.6	
416.34	4440	
416.55	4102.1	
416.75	3671.3	
416.95	3407.1	
417.15	4911.7	
417.36	5061.9	
417.56	3799.7	
417.76	3349.1	
417.97	4924.7	
418.17	4805.9	
418.37	3246	
418.57	3177.8	
418.78	4859.8	
418.98	4605.9	
419.18	3598.3	
419.38	3517	
419.59	4512.4	
419.79	4440	
419.99	3063.8	
420.2	3158	
420.4	4846.2	
420.6	4820.9	
420.8	3045.3	
421.01	3037.1	
421.21	4809.3	
421.41	4713.7	
421.61	3169.6	
421.82	3097.2	
422.02	4648.9	
422.22	5011.4	
422.42	3426.3	
422.63	3327.9	
422.83	4521.2	
423.03	5115.8	
423.23	3332	
423.44	2852.8	
423.64	4493.2	
423.84	4393.6	
424.04	3084.2	
424.25	2966.8	
424.45	4960.2	
424.65	4933.6	
424.85	2829.6	
425.06	3050.8	
425.26	5194.3	
425.46	4488.5	
425.66	3315	
425.87	3167.5	
426.07	4889.9	
426.27	4762.9	
426.47	3245.3	
426.67	2952.5	
426.88	5104.9	
427.08	4793.6	
427.28	3425.6	
427.48	2874	
427.69	4305.5	
427.89	4547.2	
428.09	3262.4	
428.29	2903.3	
428.5	4734.2	
428.7	4734.9	
428.9	2876	
429.1	3120.4	
429.3	4709	
429.51	4702.8	
429.71	3102	
429.91	3449.5	
430.11	4874.8	
430.31	4894.6	
430.52	3196.9	
430.72	3283.6	
430.92	5033.2	
431.12	4758.8	
431.32	3001.6	
431.53	3319.1	
431.73	4372.4	
431.93	5019.6	
432.13	3034.4	
432.33	2882.9	
432.54	4617.5	
432.74	4601.1	
432.94	2830.3	
433.14	3362.1	
433.34	5000.5	
433.55	4687.1	
433.75	3344.3	
433.95	4084.3	
434.15	4796.3	
434.35	4496.7	
434.56	3056.3	
434.76	2744.3	
434.96	4647.5	
435.16	4756.1	
435.36	2896.5	
435.56	3495.9	
435.77	4518.5	
435.97	4622.9	
436.17	3787.4	
436.37	3449.5	
436.57	4387.4	
436.78	4402.5	
436.98	4227.7	
437.18	3734.8	
437.38	4597	
437.58	4416.1	
437.78	3743.7	
437.99	3112.2	
438.19	4866	
438.39	5238	
438.59	3192.1	
438.79	2856.9	
438.99	5168.4	
439.2	4487.1	
439.4	2867.8	
439.6	2839.2	
439.8	4433.9	
440	5146.5	
440.2	3414	
440.4	3433.8	
440.61	4966.3	
440.81	5160.2	
441.01	3028.3	
441.21	3386	
441.41	5193.6	
441.61	4825.7	
441.81	3564.8	
442.02	3949.2	
442.22	5351.3	
442.42	4980.7	
442.62	3046.7	
442.82	3084.2	
443.02	5233.2	
443.22	4803.2	
443.43	3289.7	
443.63	3018	
443.83	4647.5	
444.03	4576.5	
444.23	3589.4	
444.43	3415.3	
444.63	4854.4	
444.83	5313.1	
445.04	3194.8	
445.24	3647.4	
445.44	4979.3	
445.64	4958.8	
445.84	3497.9	
446.04	3513.6	
446.24	4629.8	
446.44	5141.8	
446.65	3076	
446.85	3245.3	
447.05	4840	
447.25	5081	
447.45	3394.2	
447.65	3028.3	
447.85	4939	
448.05	4550.6	
448.25	3434.4	
448.46	3398.9	
448.66	4773.1	
448.86	4671.4	
449.06	3045.3	
449.26	3422.8	
449.46	5033.9	
449.66	4645.5	
449.86	3328.6	
450.06	3198.2	
450.26	4625	
450.47	4878.3	
450.67	3444	
450.87	3484.3	
451.07	5198.4	
451.27	4745.1	
451.47	3098.6	
451.67	3491.8	
451.87	4690.5	
452.07	5313.1	
452.27	3198.2	
452.47	3216.7	
452.67	4853	
452.88	4902.2	
453.08	2956.6	
453.28	3697.9	
453.48	5414.1	
453.68	4733.5	
453.88	3190.7	
454.08	3162.1	
454.28	5035.3	
454.48	4840	
454.68	3444.7	
454.88	3657.7	
455.08	5136.3	
455.28	4857.8	
455.48	3098.6	
455.68	3380.5	
455.89	5244.2	
456.09	5075.5	
456.29	3308.2	
456.49	3355.9	
456.69	5230.5	
456.89	4764.3	
457.09	3467.2	
457.29	3657	
457.49	4996.4	
457.69	5006.6	
457.89	3461.7	
458.09	3115	
458.29	4882.4	
458.49	5326.8	
458.69	3639.2	
458.89	3272	
459.09	5334.3	
459.29	5380.7	
459.49	3370.3	
459.69	3707.5	
459.9	5113.1	
460.1	4896	
460.3	3344.3	
460.5	3168.2	
460.7	5158.8	
460.9	4771.1	
461.1	3064.4	
461.3	3614	
461.5	5467.4	
461.7	5253	
461.9	3232.4	
462.1	3485.6	
462.3	5083.1	
462.5	5223.7	
462.7	3324.5	
462.9	3306.1	
463.1	5789.6	
463.3	5575.9	
463.5	3429	
463.7	3846.8	
463.9	5094	
464.1	5258.5	
464.3	3476.8	
464.5	3609.2	
464.7	5302.2	
464.9	5177.9	
465.1	4085.7	
465.3	3761.4	
465.5	5474.2	
465.7	5571.2	
465.9	3906.2	
466.1	3721.2	
466.3	5325.4	
466.5	5265.3	
466.7	4199	
466.9	3719.8	
467.1	5461.9	
467.3	5767.8	
467.5	4114.4	
467.7	3642.7	
467.9	5924.1	
468.1	6198.5	
468.3	3912.3	
468.5	4197	
468.7	5214.1	
468.9	5214.8	
469.1	3711.6	
469.3	4098	
469.5	6192.4	
469.7	5117.9	
469.9	4016.7	
470.1	3671.3	
470.3	5505.6	
470.5	5393.7	
470.7	4338.3	
470.9	3618.8	
471.1	5197.7	
471.3	5506.3	
471.5	3682.2	
471.69	4459.8	
471.89	5314.5	
472.09	4898.1	
472.29	3920.5	
472.49	4096.6	
472.69	5068.7	
472.89	5330.9	
473.09	3648.8	
473.29	3652.2	
473.49	5225.7	
473.69	4988.2	
473.89	4041.3	
474.09	3713.6	
474.29	5806	
474.49	5566.4	
474.69	4025.6	
474.89	3779.2	
475.09	5212.1	
475.29	5218.9	
475.49	3512.9	
475.69	3613.3	
475.88	5890	
476.08	5379.3	
476.28	3472	
476.48	3635.1	
476.68	5741.8	
476.88	5336.3	
477.08	3689.8	
477.28	3671.3	
477.48	5354.8	
477.68	5404.6	
477.88	3550.5	
478.08	3662.5	
478.28	5724.1	
478.48	5314.5	
478.67	3742.3	
478.87	3405.1	
479.07	5500.2	
479.27	5399.8	
479.47	3784.6	
479.67	3805.8	
479.87	5565	
480.07	5739.8	
480.27	3525.2	
480.47	4109.6	
480.67	5302.2	
480.87	5687.9	
481.06	3629.7	
481.26	3979.9	
481.46	5446.2	
481.66	5272.2	
481.86	3891.1	
482.06	4175.1	
482.26	5275.6	
482.46	5521.3	
482.66	3784	
482.86	3556	
483.05	5538.4	
483.25	5014.1	
483.45	4980	
483.65	3744.4	
483.85	4975.2	
484.05	5228.5	
484.25	4005.8	
484.45	4088.4	
484.65	5415.5	
484.84	5655.1	
485.04	3764.8	
485.24	3640.6	
485.44	5929.6	
485.64	5011.4	
485.84	3442	
486.04	3960.1	
486.24	5243.5	
486.44	5340.4	
486.63	3394.8	
486.83	3839.9	
487.03	5269.4	
487.23	5296	
487.43	3496.6	
487.63	4414.7	
487.83	5307	
488.02	5216.9	
488.22	3807.9	
488.42	4064.5	
488.62	5756.2	
488.82	5098.8	
489.02	3824.9	
489.22	3733.4	
489.41	5333.6	
489.61	5584.1	
489.81	3599.6	
490.01	3545.7	
490.21	5657.2	
490.41	6021	
490.61	3658.4	
490.8	3670.6	
491	5306.3	
491.2	5089.2	
491.4	3992.9	
491.6	3551.2	
491.8	5403.9	
491.99	5274.9	
492.19	3433.8	
492.39	3555.3	
492.59	5465.3	
492.79	5674.2	
492.99	3971	
493.18	3563.5	
493.38	5874.9	
493.58	5991.7	
493.78	3834.5	
493.98	3745.1	
494.18	5386.8	
494.37	5029.1	
494.57	4029.7	
494.77	3980.6	
494.97	5614.8	
495.17	5791	
495.37	3752.6	
495.56	3934.8	
495.76	5531.6	
495.96	5689.3	
496.16	4394.3	
496.36	3890.5	
496.55	5764.3	
496.75	5407.3	
496.95	3973.1	
497.15	3997	
497.35	5845.6	
497.54	5653.1	
497.74	3984.7	
497.94	4676.2	
498.14	6095.4	
498.34	5799.2	
498.53	3721.2	
498.73	4145.8	
498.93	5350	
499.13	5638.7	
499.33	4020.2	
499.52	4252.3	
499.72	5864.7	
499.92	5763	
500.12	3837.2	
500.32	3996.3	
500.51	5831.2	
500.71	5644.9	
500.91	4297.3	
501.11	4194.2	
501.31	5788.9	
501.5	6094.8	
501.7	4521.2	
501.9	4102.8	
502.1	5720.7	
502.29	5972.6	
502.49	4239.3	
502.69	4524	
502.89	5847.6	
503.09	5836.7	
503.28	3860.4	
503.48	3824.9	
503.68	5671.5	
503.88	5450.3	
504.07	4291.9	
504.27	4033.8	
504.47	5623	
504.67	5726.1	
504.86	4296	
505.06	4095.9	
505.26	5668.8	
505.46	6264.1	
505.65	4063.2	
505.85	4187.4	
506.05	5578.7	
506.25	5836	
506.44	3810.6	
506.64	4171	
506.84	5449	
507.04	5846.3	
507.23	3844.7	
507.43	4089.1	
507.63	6231.3	
507.83	5355.4	
508.02	4066.6	
508.22	3902.7	
508.42	6398.5	
508.62	5348.6	
508.81	4053.6	
509.01	4248.2	
509.21	5325.4	
509.4	5588.9	
509.6	4197	
509.8	3864.5	
510	5483.8	
510.19	5831.9	
510.39	3758.7	
510.59	3816.7	
510.79	5488.6	
510.98	6021.7	
511.18	3994.2	
511.38	3962.8	
511.57	5983.5	
511.77	5583.4	
511.97	4233.8	
512.17	3881.6	
512.36	5873.6	
512.56	5621.7	
512.76	3897.3	
512.95	3677.5	
513.15	5989.6	
513.35	5143.8	
513.55	4254.3	
513.74	3777.1	
513.94	5829.9	
514.14	5507.7	
514.33	4265.2	
514.53	4128.7	
514.73	5650.3	
514.92	5467.4	
515.12	3812.6	
515.32	3756	
515.51	5642.2	
515.71	5669.5	
515.91	4638	
516.11	3801.7	
516.3	6361	
516.5	5517.9	
516.7	4118.5	
516.89	4345.1	
517.09	5493.3	
517.29	5541.8	
517.48	4403.1	
517.68	3925.3	
517.88	5003.9	
518.07	5760.9	
518.27	4212.7	
518.47	3749.1	
518.66	5939.8	
518.86	5421.7	
519.06	3752.6	
519.25	3883.6	
519.45	5516.5	
519.65	6107.7	
519.84	4197	
520.04	4479.6	
520.24	6313.9	
520.43	5785.5	
520.63	4108.9	
520.83	3936.2	
521.02	5526.1	
521.22	5649.7	
521.42	4197.7	
521.61	4328.7	
521.81	5548.6	
522.01	5665.4	
522.2	4116.4	
522.4	4029.7	
522.6	5889.3	
522.79	5205.9	
522.99	4057.7	
523.18	3733.4	
523.38	5674.9	
523.58	5709.7	
523.77	4493.9	
523.97	3839.3	
524.17	6454.5	
524.36	6160.3	
524.56	4318.5	
524.76	4209.9	
524.95	5627.1	
525.15	5602.6	
525.34	4014.7	
525.54	4117.8	
525.74	5855.1	
525.93	5393	
526.13	4674.8	
526.33	4017.4	
526.52	6059.9	
526.72	5698.1	
526.91	4633.2	
527.11	4275.5	
527.31	5948	
527.5	6049	
527.7	4339.6	
527.89	3848.1	
528.09	5625.1	
528.29	5736.4	
528.48	4512.4	
528.68	4295.3	
528.87	6006	
529.07	6014.9	
529.27	4252.3	
529.46	4002.4	
529.66	5848.3	
529.85	5993	
530.05	4026.3	
530.25	4296	
530.44	6414.9	
530.64	5782.1	
530.83	4209.3	
531.03	4267.3	
531.23	6169.8	
531.42	5865.4	
531.62	4585.4	
531.81	4290.5	
532.01	5936.4	
532.21	6111.1	
532.4	4120.5	
532.6	4295.3	
532.79	6466.1	
532.99	6066.1	
533.18	4381.3	
533.38	4770.4	
533.58	5957.5	
533.77	6054.5	
533.97	4345.8	
534.16	4657.1	
534.36	6307.1	
534.55	5894.1	
534.75	4795.7	
534.95	4298.7	
535.14	6295.5	
535.34	5812.8	
535.53	4190.8	
535.73	4986.1	
535.92	6611.5	
536.12	5824.4	
536.31	4229.7	
536.51	4761.5	
536.71	6167.8	
536.9	5855.1	
537.1	4285.7	
537.29	4369.7	
537.49	6283.9	
537.68	5878.4	
537.88	4590.9	
538.07	4123.9	
538.27	6040.1	
538.46	6420.4	
538.66	4118.5	
538.86	4349.9	
539.05	6065.4	
539.25	6183.5	
539.44	4603.8	
539.64	4284.4	
539.83	5931.6	
540.03	6376	
540.22	4196.3	
540.42	4235.9	
540.61	6057.9	
540.81	6059.9	
541	4436.6	
541.2	4743.1	
541.39	5771.9	
541.59	5905	
541.78	4626.4	
541.98	4281.6	
542.18	5642.8	
542.37	5649.7	
542.57	4457.1	
542.76	4620.2	
542.96	5711.1	
543.15	5941.2	
543.35	4425	
543.54	4108.2	
543.74	5411.4	
543.93	5859.2	
544.13	4336.9	
544.32	4917.9	
544.52	6117.3	
544.71	5710.4	
544.91	4032.5	
545.1	4590.9	
545.3	5792.3	
545.49	5932.3	
545.69	3994.2	
545.88	4228.4	
546.08	6483.9	
546.27	6163.7	
546.47	4449.6	
546.66	4065.2	
546.86	6100.2	
547.05	6221	
547.24	4190.8	
547.44	4180.6	
547.63	5760.9	
547.83	6062.7	
548.02	4277.5	
548.22	4409.3	
548.41	5565.7	
548.61	6144.6	
548.8	4123.2	
549	4135.5	
549.19	5999.9	
549.39	6046.3	
549.58	3994.2	
549.78	4341	
549.97	5991.7	
550.17	5653.8	
550.36	4627	
550.55	5064.6	
550.75	5787.6	
550.94	6199.9	
551.14	4079.6	
551.33	4264.6	
551.53	5453.7	
551.72	5894.1	
551.92	4287.1	
552.11	4175.1	
552.31	6072.2	
552.5	5867.4	
552.69	4904.9	
552.89	3985.3	
553.08	5953.4	
553.28	5828.5	
553.47	4164.9	
553.67	4627	
553.86	6173.9	
554.06	5385.5	
554.25	3883.6	
554.44	4126.7	
554.64	6552.8	
554.83	6249	
555.03	4030.4	
555.22	4249.5	
555.42	6181.5	
555.61	5924.8	
555.8	4199	
556	4250.2	
556.19	5582.1	
556.39	5866.1	
556.58	4145.8	
556.78	4222.2	
556.97	5947.3	
557.16	5672.9	
557.36	4715.1	
557.55	4027	
557.75	5444.9	
557.94	6309.1	
558.13	3985.3	
558.33	3926.6	
558.52	6204.7	
558.72	5348.6	
558.91	4035.2	
559.1	4089.1	
559.3	5415.5	
559.49	5347.2	
559.69	3930.1	
559.88	4197.7	
560.07	5813.5	
560.27	5960.3	
560.46	4387.4	
560.66	4447.5	
560.85	5797.8	
561.04	5386.2	
561.24	3961.5	
561.43	4021.5	
561.63	5418.9	
561.82	5676.3	
562.01	4568.3	
562.21	4113	
562.4	5802.6	
562.59	6176.7	
562.79	4156	
562.98	3975.8	
563.18	5767.8	
563.37	6332.3	
563.56	4341	
563.76	3975.1	
563.95	5531.6	
564.14	5522	
564.34	4207.2	
564.53	3961.5	
564.73	5828.5	
564.92	5771.2	
565.11	4174.4	
565.31	3878.9	
565.5	6138.4	
565.69	5427.1	
565.89	4163.5	
566.08	4123.9	
566.27	5826.5	
566.47	6124.8	
566.66	4484.4	
566.85	3862.5	
567.05	5785.5	
567.24	5537	
567.44	3987.4	
567.63	4517.8	
567.82	5928.2	
568.02	5618.9	
568.21	3973.7	
568.4	4028.4	
568.6	5747.3	
568.79	5663.3	
568.98	4000.4	
569.18	3949.8	
569.37	5692.7	
569.56	6554.2	
569.76	4196.3	
569.95	4490.5	
570.14	5923.4	
570.34	5654.4	
570.53	4031.1	
570.72	3902.1	
570.91	6151.4	
571.11	5743.9	
571.3	4244.8	
571.49	4687.1	
571.69	5849	
571.88	5481	
572.07	4360.8	
572.27	4380.6	
572.46	5380	
572.65	5853.8	
572.85	4068.6	
573.04	4145.8	
573.23	6048.3	
573.43	5790.3	
573.62	4007.9	
573.81	4217.5	
574	5823.1	
574.2	5612.8	
574.39	4108.9	
574.58	4099.4	
574.78	6141.9	
574.97	5797.1	
575.16	4367.6	
575.36	4361.5	
575.55	6075	
575.74	6037.4	
575.93	3951.9	
576.13	4326.7	
576.32	5730.9	
576.51	5909.8	
576.71	4195.6	
576.9	4790.2	
577.09	6113.2	
577.28	5868.1	
577.48	4337.6	
577.67	3953.3	
577.86	5836.7	
578.05	5882.4	
578.25	4260.5	
578.44	4195.6	
578.63	5782.8	
578.83	6323.4	
579.02	4040.6	
579.21	4686.4	
579.4	5838.8	
579.6	5784.1	
579.79	4296.6	
579.98	5269.4	
580.17	5979.4	
580.37	6125.5	
580.56	4059.8	
580.75	4320.5	
580.94	6077.7	
581.14	6307.1	
581.33	4632.5	
581.52	4162.8	
581.71	5885.9	
581.91	6268.1	
582.1	4059.8	
582.29	4210.6	
582.48	5700.2	
582.68	5783.5	
582.87	4453	
583.06	4345.8	
583.25	6040.1	
583.45	5627.8	
583.64	4582.7	
583.83	4837.3	
584.02	5883.8	
584.21	6042.9	
584.41	4579.3	
584.6	4235.2	
584.79	5862	
584.98	5995.8	
585.18	4072	
585.37	4036.5	
585.56	5833.3	
585.75	5965.1	
585.94	4211.3	
586.14	4403.8	
586.33	6214.9	
586.52	5749.3	
586.71	4449.6	
586.91	4184	
587.1	5554.8	
587.29	6032	
587.48	4194.2	
587.67	4132.1	
587.87	5987.6	
588.06	5840.1	
588.25	4695.3	
588.44	4422.9	
588.63	5760.9	
588.83	6003.3	
589.02	4223.6	
589.21	4115.7	
589.4	5819	
589.59	5602.6	
589.78	3725.3	
589.98	3928	
590.17	5394.3	
590.36	5595.7	
590.55	3583.3	
590.74	3967.6	
590.94	6162.3	
591.13	5557.5	
591.32	3971	
591.51	3765.5	
591.7	5700.9	
591.89	5610.8	
592.09	3757.3	
592.28	3919.1	
592.47	5101.5	
592.66	6158.9	
592.85	3749.1	
593.05	3846.1	
593.24	5518.6	
593.43	5970.5	
593.62	3913	
593.81	4115.7	
594	5629.2	
594.19	5629.9	
594.39	3885.7	
594.58	3704.8	
594.77	5729.5	
594.96	5872.2	
595.15	3824.9	
595.34	4087.1	
595.54	5562.3	
595.73	5309	
595.92	3564.8	
596.11	4006.5	
596.3	5928.9	
596.49	5365.7	
596.68	4017.4	
596.88	4085	
597.07	5691.3	
597.26	5264	
597.45	3758	
597.64	4273.4	
597.83	5398.4	
598.02	5573.2	
598.22	3766.2	
598.41	4032.5	
598.6	5522.7	
598.79	5240.8	
598.98	3779.9	
599.17	4139.6	
599.36	5662.6	
599.55	5965.7	
599.74	4620.9	
599.94	4613.4	
600.13	5834	
600.32	5243.5	
600.51	3685	
600.7	3691.1	
600.89	6107.7	
601.08	6197.2	
601.27	3599.6	
601.47	4092.5	
601.66	5782.8	
601.85	5958.9	
602.04	4054.3	
602.23	4027	
602.42	5378	
602.61	5659.2	
602.8	3927.3	
602.99	3808.5	
603.18	5563.6	
603.37	5576.6	
603.57	4069.3	
603.76	4253.6	
603.95	5945.3	
604.14	5636	
604.33	3891.1	
604.52	4000.4	
604.71	5668.8	
604.9	5290.6	
605.09	4336.2	
605.28	4214.7	
605.47	5868.1	
605.66	5516.5	
605.86	4061.8	
606.05	3890.5	
606.24	5842.2	
606.43	5104.9	
606.62	4043.4	
606.81	4322.6	
607	5821	
607.19	5414.8	
607.38	3730	
607.57	3794.9	
607.76	5287.9	
607.95	4990.2	
608.14	4104.8	
608.33	4268	
608.52	5341.1	
608.72	5773.9	
608.91	3622.2	
609.1	3620.1	
609.29	5474.9	
609.48	5145.2	
609.67	4091.2	
609.86	3720.5	
610.05	5203.9	
610.24	5197.1	
610.43	3659.7	
610.62	3452.9	
610.81	5919.3	
611	5847.6	
611.19	3683.6	
611.38	4048.8	
611.57	5567.7	
611.76	5962.3	
611.95	3601.7	
612.14	3614	
612.33	5382.1	
612.52	5190.2	
612.71	3808.5	
612.9	3530	
613.09	5053.7	
613.28	6176.7	
613.47	3783.3	
613.66	4136.2	
613.85	5518.6	
614.04	5197.1	
614.24	3771.7	
614.43	3467.2	
614.62	5597.8	
614.81	5521.3	
615	3944.4	
615.19	3903.4	
615.38	5292	
615.57	5447.6	
615.76	3993.5	
615.95	4380.6	
616.14	5672.9	
616.33	5397.1	
616.52	4108.2	
616.71	4140.3	
616.9	5603.9	
617.09	5386.2	
617.28	3882.3	
617.47	4284.4	
617.66	5259.2	
617.85	5155.4	
618.04	4147.1	
618.22	3897.3	
618.41	5119.2	
618.6	5822.4	
618.79	3926	
618.98	3774.4	
619.17	5830.6	
619.36	5046.9	
619.55	3870.7	
619.74	3968.3	
619.93	5511.1	
620.12	5227.8	
620.31	4090.5	
620.5	4143.7	
620.69	5772.5	
620.88	6024.4	
621.07	4552	
621.26	4057	
621.45	5619.6	
621.64	5549.3	
621.83	4105.5	
622.02	3723.9	
622.21	5651.7	
622.4	5506.3	
622.59	4344.4	
622.78	4258.4	
622.97	5367.7	
623.16	5848.3	
623.35	4188.8	
623.54	3676.8	
623.72	5432.6	
623.91	5471.5	
624.1	4231.8	
624.29	3618.8	
624.48	5959.6	
624.67	5771.9	
624.86	4188.8	
625.05	3780.6	
625.24	6127.5	
625.43	5457.2	
625.62	4895.3	
625.81	3994.9	
626	5700.2	
626.19	5498.8	
626.38	4094.6	
626.56	3959.4	
626.75	5226.4	
626.94	5681.1	
627.13	4203.8	
627.32	3677.5	
627.51	5729.5	
627.7	6121.4	
627.89	3717.7	
628.08	4239.3	
628.27	5290.6	
628.46	5470.8	
628.65	3868.6	
628.83	3620.1	
629.02	5681.7	
629.21	5254.4	
629.4	4029	
629.59	4061.1	
629.78	5274.2	
629.97	5758.2	
630.16	4115.7	
630.35	3891.8	
630.54	6120.7	
630.72	5896.8	
630.91	3945.8	
631.1	4121.9	
631.29	5414.1	
631.48	5496.1	
631.67	4246.1	
631.86	3876.8	
632.05	5569.1	
632.24	5477	
632.42	3806.5	
632.61	4082.3	
632.8	5504.3	
632.99	5205.9	
633.18	4107.5	
633.37	4231.8	
633.56	5603.2	
633.75	5557.5	
633.93	4108.2	
634.12	4038.6	
634.31	5975.3	
634.5	5687.2	
634.69	3993.5	
634.88	4244.1	
635.07	5532.9	
635.25	5815.5	
635.44	4434.5	
635.63	4434.5	
635.82	5497.4	
636.01	4703.5	
636.2	4303.5	
636.39	4061.8	
636.57	6047	
636.76	5569.1	
636.95	3878.2	
637.14	4496	
637.33	5666.7	
637.52	5944.6	
637.7	3816	
637.89	4336.9	
638.08	5493.3	
638.27	6087.9	
638.46	4282.3	
638.65	4376.5	
638.83	6113.2	
639.02	5376.6	
639.21	4264.6	
639.4	4388.1	
639.59	5589.6	
639.78	5418.2	
639.96	3852.9	
640.15	3889.8	
640.34	5597.8	
640.53	5329.5	
640.72	3808.5	
640.91	3861.8	
641.09	5315.8	
641.28	5879	
641.47	4096.6	
641.66	4298	
641.85	5560.2	
642.03	5676.3	
642.22	4129.4	
642.41	4028.4	
642.6	5281.7	
642.79	5025.7	
642.97	3941	
643.16	4120.5	
643.35	5274.9	
643.54	5184.1	
643.73	3846.8	
643.91	4172.4	
644.1	5198.4	
644.29	5444.2	
644.48	3811.3	
644.67	3851.5	
644.85	4893.3	
645.04	5487.2	
645.23	3682.2	
645.42	3855.6	
645.6	5238.7	
645.79	5679	
645.98	3805.1	
646.17	3369.6	
646.36	4963.6	
646.54	5266	
646.73	4150.6	
646.92	3629.7	
647.11	5098.8	
647.29	5511.8	
647.48	3611.3	
647.67	3454.9	
647.86	5646.9	
648.05	5615.5	
648.23	3803.1	
648.42	4306.2	
648.61	5507.7	
648.8	5289.2	
648.98	3649.5	
649.17	3700.7	
649.36	5128.8	
649.55	4928.1	
649.73	3653.6	
649.92	3982.6	
650.11	5059.2	
650.3	5167	
650.48	3664.5	
650.67	3650.2	
650.86	5353.4	
651.05	4810.7	
651.23	3623.5	
651.42	3618.1	
651.61	5139.7	
651.79	5029.8	
651.98	3745.7	
652.17	3526.6	
652.36	5334.3	
652.54	4782	
652.73	3614.7	
652.92	3568.2	
653.11	5334.3	
653.29	5409.4	
653.48	3274	
653.67	3682.2	
653.85	5177.3	
654.04	5606.7	
654.23	3828.3	
654.42	3649.5	
654.6	4947.2	
654.79	5260.5	
654.98	3381.2	
655.16	3660.4	
655.35	4868	
655.54	4592.2	
655.73	3403.7	
655.91	3365.5	
656.1	5201.2	
656.29	4565.6	
656.47	3239.2	
656.66	3993.5	
656.85	4993.6	
657.03	4861.9	
657.22	3463.8	
657.41	3503.4	
657.59	4877.6	
657.78	4848.9	
657.97	3284.3	
658.16	3663.8	
658.34	5287.2	
658.53	5440.1	
658.72	4057.7	
658.9	4252.3	
659.09	5091.9	
659.28	5038	
659.46	3511.6	
659.65	3438.5	
659.84	4877.6	
660.02	5233.9	
660.21	3568.2	
660.4	3333.4	
660.58	5337.7	
660.77	4970.4	
660.96	3749.8	
661.14	3286.3	
661.33	5583.4	
661.52	5505.6	
661.7	3300	
661.89	4742.4	
662.08	4861.9	
662.26	4483.7	
662.45	3433.1	
662.64	3455.6	
662.82	5252.4	
663.01	4754.7	
663.2	3473.4	
663.38	3812.6	
663.57	5209.3	
663.75	5036.6	
663.94	3661.1	
664.13	4160.1	
664.31	4882.4	
664.5	5128.8	
664.69	3749.8	
664.87	3904.8	
665.06	4719.9	
665.25	5007.3	
665.43	4068.6	
665.62	3993.5	
665.8	5083.7	
665.99	4914.4	
666.18	3657	
666.36	3555.3	
666.55	5242.8	
666.74	5127.4	
666.92	3523.2	
667.11	4183.3	
667.29	5048.9	
667.48	5176.6	
667.67	3938.9	
667.85	3549.8	
668.04	4854.4	
668.22	4813.4	
668.41	3652.9	
668.6	3865.9	
668.78	4827.7	
668.97	4924.7	
669.15	3823.6	
669.34	3276.7	
669.53	4792.2	
669.71	5008	
669.9	3343	
670.08	3674.7	
670.27	4712.4	
670.46	5107.6	
670.64	3830.4	
670.83	3887	
671.01	4650.9	
671.2	4911.7	
671.38	3473.4	
671.57	3442.6	
671.76	5358.9	
671.94	5484.5	
672.13	3365.5	
672.31	3790.1	
672.5	5230.5	
672.69	4776.5	
672.87	3446.7	
673.06	3596.9	
673.24	5076.9	
673.43	4884.4	
673.61	3735.5	
673.8	3618.1	
673.98	5102.9	
674.17	5152.7	
674.36	3914.4	
674.54	3763.5	
674.73	4709.6	
674.91	5234.6	
675.1	3592.8	
675.28	3374.4	
675.47	4960.9	
675.65	5162.9	
675.84	3610.6	
676.03	3697.9	
676.21	4934.2	
676.4	4527.4	
676.58	3857.7	
676.77	3816.7	
676.95	5659.2	
677.14	4868	
677.32	3317	
677.51	3358	
677.69	5242.1	
677.88	4761.5	
678.06	3416	
678.25	3537.5	
678.44	5004.6	
678.62	4790.9	
678.81	3277.4	
678.99	3679.5	
679.18	5343.8	
679.36	5044.8	
679.55	3506.1	
679.73	3817.4	
679.92	5099.4	
680.1	4843.4	
680.29	4088.4	
680.47	3485	
680.66	4887.8	
680.84	5188.2	
681.03	3292.5	
681.21	3850.9	
681.4	4813.4	
681.58	4792.9	
681.77	3459.7	
681.95	3433.1	
682.14	5285.8	
682.32	5296	
682.51	3796.3	
682.69	3280.8	
682.88	4803.9	
683.06	4963.6	
683.25	3761.4	
683.43	3902.1	
683.62	5025.7	
683.8	5142.4	
683.99	3929.4	
684.17	3622.9	
684.36	5513.8	
684.54	4814.8	
684.73	3347.7	
684.91	3319.1	
685.1	5039.4	
685.28	4674.1	
685.46	3644.7	
685.65	3561.4	
685.83	5087.2	
686.02	4818.2	
686.2	3396.9	
686.39	3396.2	
686.57	4541	
686.76	5220.3	
686.94	3329.3	
687.13	3474.7	
687.31	4992.9	
687.5	4967	
687.68	3186	
687.86	3624.9	
688.05	5679	
688.23	4540.3	
688.42	3712.3	
688.6	3409.2	
688.79	4730.8	
688.97	4834.6	
689.16	3550.5	
689.34	3087.7	
689.52	4973.8	
689.71	5252.4	
689.89	3745.1	
690.08	3426.3	
690.26	4965.6	
690.45	4686.4	
690.63	3809.9	
690.81	3549.1	
691	4977.2	
691.18	4713.7	
691.37	3561.4	
691.55	4464.6	
691.74	4709.6	
691.92	5584.8	
692.1	3467.2	
692.29	3285.6	
692.47	4912.4	
692.66	4568.3	
692.84	3360.7	
693.02	3497.2	
693.21	4476.2	
693.39	4884.4	
693.58	3566.2	
693.76	3330.7	
693.94	5309	
694.13	5221.6	
694.31	3442	
694.5	3818.8	
694.68	4635.2	
694.86	4970.4	
695.05	3557.3	
695.23	3745.1	
695.42	4978.6	
695.6	6020.3	
695.78	3835.2	
695.97	3424.2	
696.15	5100.1	
696.34	4713.7	
696.52	3321.8	
696.7	3734.1	
696.89	4989.5	
697.07	4634.6	
697.25	3624.9	
697.44	4237.9	
697.62	4997.7	
697.81	4937	
697.99	3534.1	
698.17	3747.1	
698.36	4823	
698.54	4995.7	
698.72	3665.9	
698.91	3216.7	
699.09	4823.6	
699.28	4606.6	
699.46	3578.5	
699.64	3448.1	
699.83	4802.5	
700.01	5055.1	
700.19	3822.9	
700.38	3125.9	
700.56	4961.5	
700.74	4703.5	
700.93	3186	
701.11	3670.6	
701.29	4943.8	
701.48	5483.8	
701.66	3280.8	
701.84	3381.2	
702.03	4795	
702.21	5186.8	
702.39	3244.7	
702.58	3437.9	
702.76	5084.4	
702.94	4977.9	
703.13	3191.4	
703.31	4216.1	
703.49	4750.6	
703.68	5136.3	
703.86	3343	
704.04	3773	
704.23	4930.8	
704.41	5063.9	
704.59	3482.2	
704.78	3837.9	
704.96	5739.8	
705.14	4981.3	
705.33	3319.1	
705.51	3613.3	
705.69	4713.1	
705.87	5229.8	
706.06	3632.4	
706.24	3245.3	
706.42	4944.5	
706.61	5048.9	
706.79	3765.5	
706.97	3233.1	
707.16	4635.9	
707.34	4934.2	
707.52	3693.9	
707.7	3331.4	
707.89	4543.1	
708.07	4506.2	
708.25	3738.2	
708.44	3784.6	
708.62	4652.3	
708.8	5186.1	
708.98	3872	
709.17	3392.1	
709.35	4790.2	
709.53	4840.7	
709.72	3224.9	
709.9	3278.8	
710.08	5143.8	
710.26	5040.7	
710.45	3964.9	
710.63	3368.2	
710.81	4694.6	
710.99	4881	
711.18	3678.8	
711.36	3391.4	
711.54	4756.7	
711.72	5150	
711.91	3529.3	
712.09	3233.7	
712.27	4892.6	
712.45	5192.3	
712.64	3523.9	
712.82	3130	
713	4640.7	
713.18	4658.4	
713.37	3209.8	
713.55	3701.4	
713.73	5061.9	
713.91	4416.8	
714.1	3249.4	
714.28	3111.5	
714.46	4842.8	
714.64	4579.9	
714.83	2847.4	
715.01	3207.1	
715.19	4626.4	
715.37	4197.7	
715.55	2997.5	
715.74	3196.2	
715.92	4891.9	
716.1	3913.7	
716.28	3726.6	
716.47	3181.9	
716.65	4437.3	
716.83	4323.3	
717.01	3152.5	
717.19	3073.3	
717.38	5268.7	
717.56	4248.9	
717.74	3284.3	
717.92	2890.4	
718.1	4812.7	
718.29	4396.3	
718.47	2734.7	
718.65	2960.7	
718.83	4806.6	
719.01	4696.7	
719.2	2695.8	
719.38	3162.1	
719.56	4530.8	
719.74	5239.4	
719.92	3057.6	
720.11	3488.4	
720.29	4694.6	
720.47	4244.1	
720.65	2810.5	
720.83	3166.8	
721.02	4487.1	
721.2	4364.9	
721.38	3199.6	
721.56	2865.1	
721.74	4095.9	
721.92	4097.3	
722.11	3414.6	
722.29	3231.7	
722.47	4697.4	
722.65	4279.6	
722.83	2896.5	
723.01	3190.7	
723.2	4185.4	
723.38	4523.3	
723.56	2636.4	
723.74	3149.8	
723.92	3949.8	
724.1	4560.1	
724.29	2855.6	
724.47	3278.8	
724.65	4233.8	
724.83	4091.8	
725.01	2897.9	
725.19	3131.3	
725.37	4138.9	
725.56	4098	
725.74	2749.1	
725.92	2801.6	
726.1	4126	
726.28	4317.1	
726.46	2952.5	
726.64	2877.4	
726.83	4390.8	
727.01	4365.6	
727.19	2770.9	
727.37	3050.8	
727.55	4454.3	
727.73	4615.4	
727.91	2723.8	
728.09	2607.1	
728.28	4373.1	
728.46	4661.2	
728.64	3098.6	
728.82	3083.6	
729	4949.9	
729.18	4799.8	
729.36	2704.7	
729.54	3673.4	
729.72	5121.3	
729.91	4354.7	
730.09	3583.9	
730.27	2973	
730.45	4354	
730.63	4581.3	
730.81	3316.3	
730.99	2874.7	
731.17	4980	
731.35	4172.4	
731.53	3048.1	
731.71	2953.2	
731.9	4745.1	
732.08	4682.3	
732.26	3118.4	
732.44	2891.7	
732.62	4875.5	
732.8	4559.5	
732.98	3268.6	
733.16	2785.9	
733.34	4676.2	
733.52	3905.5	
733.7	3064.4	
733.88	3162.7	
734.07	4526.7	
734.25	4404.5	
734.43	2805.7	
734.61	3454.2	
734.79	5108.3	
734.97	4339.6	
735.15	2796.2	
735.33	3022.1	
735.51	4571.1	
735.69	4406.5	
735.87	3487.7	
736.05	3097.2	
736.23	4508.3	
736.41	4204.5	
736.59	3156.6	
736.77	3105.4	
736.95	4663.2	
737.13	4305.5	
737.32	2843.9	
737.5	2985.3	
737.68	4976.6	
737.86	4333.5	
738.04	2839.8	
738.22	3616.7	
738.4	4319.8	
738.58	4449.6	
738.76	3059.7	
738.94	2622.8	
739.12	4338.3	
739.3	4325.3	
739.48	3341.6	
739.66	3207.1	
739.84	4463.2	
740.02	4441.4	
740.2	2668.5	
740.38	2880.1	
740.56	4577.9	
740.74	3863.2	
740.92	3205.8	
741.1	2968.2	
741.28	4315.8	
741.46	4178.5	
741.64	2929.3	
741.82	3138.2	
742	4462.5	
742.18	4290.5	
742.36	3018	
742.54	2911.5	
742.72	4710.3	
742.9	3949.8	
743.08	3157.3	
743.26	2628.9	
743.44	4590.9	
743.62	4623.6	
743.8	3280.8	
743.98	2861.7	
744.16	4394.3	
744.34	4298.7	
744.52	3188	
744.7	3182.5	
744.88	4569	
745.06	4330.1	
745.24	3112.9	
745.42	3252.2	
745.6	4652.3	
745.78	4629.1	
745.96	2661	
746.14	2819.4	
746.32	4967	
746.5	4396.3	
746.68	3031	
746.86	2802.3	
747.03	4685.1	
747.21	4052.2	
747.39	3094.5	
747.57	2801.6	
747.75	4371	
747.93	4465.3	
748.11	2760.7	
748.29	2760.7	
748.47	5233.2	
748.65	4423.6	
748.83	3178.4	
749.01	3074	
749.19	4569	
749.37	4033.8	
749.55	3068.5	
749.73	3039.2	
749.91	4463.2	
750.09	4324.6	
750.26	3093.1	
750.44	2732.7	
750.62	4391.5	
750.8	4326.7	
750.98	2739.5	
751.16	2810.5	
751.34	4549.2	
751.52	4084.3	
751.7	3200.3	
751.88	2680.8	
752.06	4654.4	
752.24	4550.6	
752.42	2644.6	
752.59	2831.7	
752.77	4446.8	
752.95	4991.6	
753.13	3215.3	
753.31	2939.5	
753.49	4226.3	
753.67	4386.1	
753.85	3060.3	
754.03	2760	
754.21	4620.9	
754.38	4672.1	
754.56	2887	
754.74	2486.2	
754.92	4274.8	
755.1	4394.3	
755.28	2467.1	
755.46	2484.2	
755.64	4906.3	
755.82	4950.6	
755.99	2659.6	
756.17	2694.4	
756.35	3706.8	
756.53	4409.3	
756.71	2188.6	
756.89	2790.7	
757.07	4241.3	
757.25	3786.7	
757.42	2839.2	
757.6	3202.3	
757.78	4237.9	
757.96	3857.7	
758.14	2671.2	
758.32	2443.9	
758.5	3572.3	
758.67	4020.8	
758.85	2624.8	
759.03	2617.3	
759.21	4100.7	
759.39	3725.9	
759.57	2395.4	
759.75	2862.4	
759.92	4492.6	
760.1	4141	
760.28	3086.3	
760.46	3138.2	
760.64	4018.1	
760.82	4014.7	
760.99	3004.4	
761.17	2622.1	
761.35	4423.6	
761.53	3873.4	
761.71	2740.9	
761.89	2996.9	
762.06	4261.1	
762.24	4113.7	
762.42	2796.8	
762.6	2620.7	
762.78	4048.8	
762.96	4386.7	
763.13	3004.4	
763.31	2736.1	
763.49	4431.8	
763.67	4125.3	
763.85	3085.6	
764.02	3349.1	
764.2	4614.8	
764.38	4001.7	
764.56	2667.1	
764.74	3061	
764.91	4562.9	
765.09	4045.4	
765.27	2635.7	
765.45	2496.5	
765.63	4756.1	
765.8	4450.2	
765.98	2489	
766.16	2514.9	
766.34	3732.8	
766.52	3753.9	
766.69	2983.9	
766.87	2523.1	
767.05	4065.2	
767.23	4502.1	
767.41	2619.4	
767.58	2779.8	
767.76	4423.6	
767.94	4436.6	
768.12	2682.8	
768.29	2955.2	
768.47	3902.7	
768.65	4489.1	
768.83	2487.6	
769	2970.2	
769.18	3949.8	
769.36	4240.7	
769.54	2975.7	
769.72	2454.8	
769.89	4521.9	
770.07	4418.2	
770.25	2720.4	
770.43	3245.3	
770.6	4695.3	
770.78	4809.3	
770.96	2781.1	
771.14	2977.7	
771.31	4451.6	
771.49	4061.8	
771.67	2441.2	
771.85	2459.6	
772.02	3680.9	
772.2	3971.7	
772.38	2851.5	
772.55	2545.6	
772.73	4205.8	
772.91	4123.2	
773.09	2794.1	
773.26	2825.5	
773.44	4212.7	
773.62	4126	
773.8	2579.1	
773.97	2466.4	
774.15	4220.9	
774.33	4134.2	
774.5	2517	
774.68	2658.3	
774.86	4230.4	
775.04	4074.1	
775.21	2563.4	
775.39	2482.8	
775.57	4175.8	
775.74	4197	
775.92	2456.2	
776.1	2337.4	
776.27	4141	
776.45	4709	
776.63	2521	
776.81	2376.3	
776.98	4021.5	
777.16	4420.9	
777.34	2581.8	
777.51	2701.3	
777.69	4048.8	
777.87	3852.9	
778.04	2749.1	
778.22	2854.9	
778.4	3919.8	
778.57	4201.1	
778.75	2324.4	
778.93	2415.2	
779.1	3977.8	
779.28	3705.5	
779.46	2314.9	
779.64	2448	
779.81	4347.8	
779.99	4682.3	
780.17	2796.8	
780.34	2908.8	
780.52	4051.6	
780.69	4069.3	
780.87	2721.8	
781.05	2482.1	
781.22	4154.6	
781.4	4105.5	
781.58	2581.8	
781.75	2106	
781.93	4106.9	
782.11	3686.3	
782.28	2900.6	
782.46	2524.5	
782.64	3700	
782.81	4188.8	
782.99	2646	
783.17	2486.9	
783.34	4043.4	
783.52	3842	
783.69	2591.4	
783.87	2945.7	
784.05	3986	
784.22	3803.1	
784.4	2992.8	
784.58	2734	
784.75	4368.3	
784.93	3964.2	
785.1	2464.4	
785.28	2788	
785.46	4232.5	
785.63	3741	
785.81	2566.1	
785.99	2439.1	
786.16	4003.1	
786.34	4055.7	
786.51	2467.1	
786.69	2654.9	
786.87	3607.2	
787.04	3895.2	
787.22	2450.1	
787.39	2807.8	
787.57	3865.2	
787.75	4305.5	
787.92	2973.7	
788.1	2873.3	
788.27	3710.9	
788.45	3418.7	
788.63	2738.1	
788.8	2149	
788.98	4118.5	
789.15	3491.1	
789.33	2274.6	
789.5	2433	
789.68	4233.2	
789.86	4264.6	
790.03	2684.9	
790.21	2383.2	
790.38	4406.5	
790.56	3888.4	
790.73	2443.9	
790.91	2379.1	
791.09	3813.3	
791.26	4111.6	
791.44	2575	
791.61	2273.9	
791.79	3850.9	
791.96	3845.4	
792.14	2378.4	
792.32	2153.8	
792.49	3753.2	
792.67	3869.3	
792.84	2394.1	
793.02	2295.8	
793.19	4100	
793.37	4312.3	
793.54	2156.5	
793.72	2304	
793.89	4389.5	
794.07	3728	
794.25	2543.6	
794.42	2178.4	
794.6	4306.2	
794.77	4014	
794.95	2646	
795.12	2385.2	
795.3	3842.7	
795.47	4052.2	
795.65	2667.1	
795.82	2519	
796	3729.4	
796.17	4532.2	
796.35	2533.3	
796.52	2843.3	
796.7	4089.8	
796.87	4115.7	
797.05	2508.1	
797.22	2880.8	
797.4	4136.9	
797.57	4478.9	
797.75	2574.3	
797.92	2531.3	
798.1	4324.6	
798.27	3568.9	
798.45	2239.8	
798.62	2316.3	
798.8	3973.1	
798.97	4194.9	
799.15	2643.2	
799.32	2564.7	
799.5	3639.9	
799.67	3896.6	
799.85	2682.2	
800.02	2192	
800.2	3858.4	
800.37	3817.4	
800.55	2751.8	
800.72	2435.7	
800.9	4182.6	
801.07	4282.3	
801.25	3020.1	
801.42	2581.1	
801.6	4197.7	
801.77	3894.6	
801.95	2495.8	
802.12	2439.1	
802.29	3983.3	
802.47	3961.5	
802.64	2682.8	
802.82	2181.1	
802.99	3822.2	
803.17	4114.4	
803.34	2551.1	
803.52	2364.7	
803.69	4407.9	
803.87	3581.9	
804.04	2532.7	
804.21	2547.7	
804.39	4335.5	
804.56	3822.2	
804.74	2278	
804.91	2576.3	
805.09	3758	
805.26	3796.3	
805.44	2381.8	
805.61	2477.4	
805.78	4177.2	
805.96	4001.7	
806.13	2607.1	
806.31	2748.4	
806.48	3526.6	
806.66	3797.6	
806.83	2628.9	
807	2529.2	
807.18	3863.2	
807.35	3903.4	
807.53	2593.4	
807.7	2202.2	
807.87	4332.1	
808.05	3803.1	
808.22	2678.7	
808.4	2235.7	
808.57	3664.5	
808.74	3585.3	
808.92	2449.4	
809.09	2818	
809.27	3892.5	
809.44	3990.8	
809.61	2201.6	
809.79	2329.9	
809.96	4484.4	
810.14	4051.6	
810.31	2177.7	
810.48	2735.4	
810.66	3804.4	
810.83	4103.4	
811.01	2413.2	
811.18	2600.2	
811.35	4142.4	
811.53	3476.1	
811.7	2723.1	
811.87	2599.6	
812.05	3932.8	
812.22	3840.6	
812.39	2327.2	
812.57	2297.8	
812.74	3898.6	
812.92	4544.4	
813.09	2554.5	
813.26	2583.2	
813.44	4439.3	
813.61	3663.1	
813.78	2194.7	
813.96	2669.9	
814.13	3872	
814.3	3775.8	
814.48	2901.3	
814.65	2428.9	
814.82	4268	
815	3545.7	
815.17	2487.6	
815.34	2880.8	
815.52	3769.6	
815.69	3731.4	
815.87	2499.9	
816.04	2446.6	
816.21	3628.3	
816.38	3579.8	
816.56	2449.4	
816.73	2379.1	
816.9	4582.7	
817.08	4095.3	
817.25	2424.1	
817.42	2715.6	
817.6	3590.8	
817.77	3701.4	
817.94	2568.8	
818.12	2297.1	
818.29	3691.1	
818.46	4790.2	
818.64	2456.2	
818.81	2284.9	
818.98	3711.6	
819.16	4599.7	
819.33	2661	
819.5	2536.1	
819.67	3975.1	
819.85	4308.9	
820.02	2521	
820.19	2603.7	
820.37	3952.6	
820.54	3711.6	
820.71	2593.4	
820.88	3004.4	
821.06	3926.6	
821.23	3723.2	
821.4	2560.6	
821.58	2566.1	
821.75	4050.9	
821.92	3909.6	
822.09	2240.5	
822.27	2239.1	
822.44	3794.9	
822.61	3803.8	
822.79	2228.9	
822.96	3600.3	
823.13	3850.2	
823.3	3594.2	
823.48	2441.9	
823.65	2264.4	
823.82	4177.2	
823.99	3671.3	
824.17	2902.7	
824.34	2268.5	
824.51	4601.8	
824.68	3826.3	
824.86	2406.4	
825.03	2490.3	
825.2	3779.9	
825.37	4209.3	
825.55	2357.2	
825.72	2473.3	
825.89	4459.8	
826.06	4305.5	
826.24	2445.3	
826.41	2485.6	
826.58	4377.9	
826.75	3890.5	
826.92	2200.2	
827.1	2293.7	
827.27	5323.4	
827.44	4477.5	
827.61	2355.8	
827.79	2710.8	
827.96	3778.5	
828.13	3719.8	
828.3	2428.2	
828.47	2142.2	
828.65	4116.4	
828.82	4020.8	
828.99	2869.9	
829.16	2590	
829.34	4122.6	
829.51	4189.5	
829.68	2468.5	
829.85	2473.3	
830.02	4545.8	
830.2	4270.7	
830.37	2061.6	
830.54	2820.7	
830.71	4546.5	
830.88	3917.8	
831.05	2008.4	
831.23	2279.4	
831.4	4582	
831.57	4637.3	
831.74	2390	
831.91	2129.2	
832.09	4197.7	
832.26	4173.1	
832.43	2338.8	
832.6	2575	
832.77	4037.2	
832.94	4431.1	
833.12	2034.3	
833.29	2338.8	
833.46	3771.7	
833.63	4780.6	
833.8	2535.4	
833.97	2370.2	
834.15	4324.6	
834.32	4160.8	
834.49	2496.5	
834.66	2500.6	
834.83	4146.5	
835	3802.4	
835.17	2347.7	
835.35	2389.3	
835.52	4254.3	
835.69	4075.5	
835.86	2391.3	
836.03	2053.4	
836.2	4259.1	
836.37	4003.1	
836.55	2326.5	
836.72	2288.3	
836.89	4034.5	
837.06	4308.2	
837.23	2400.2	
837.4	2507.4	
837.57	4604.5	
837.75	4748.6	
837.92	2196.1	
838.09	2334.7	
838.26	4008.6	
838.43	4263.9	
838.6	2477.4	
838.77	2259.6	
838.94	4670.7	
839.11	4590.9	
839.29	2428.9	
839.46	1995.4	
839.63	4300.1	
839.8	3977.8	
839.97	2373.6	
840.14	2326.5	
840.31	4156.7	
840.48	4224.3	
840.65	2089.6	
840.82	2276	
841	4194.2	
841.17	4042.7	
841.34	2153.8	
841.51	2241.8	
841.68	4205.2	
841.85	4037.9	
842.02	2225.5	
842.19	2009.7	
842.36	4162.2	
842.53	4135.5	
842.7	2235	
842.87	2448	
843.05	4810.7	
843.22	4028.4	
843.39	2178.4	
843.56	2303.3	
843.73	4080.2	
843.9	4295.3	
844.07	3099.9	
844.24	2646.7	
844.41	5180.7	
844.58	3833.8	
844.75	2187.2	
844.92	2267.1	
845.09	4037.2	
845.26	4166.9	
845.43	2191.3	
845.6	2297.8	
845.77	4226.3	
845.94	4033.8	
846.12	2366.1	
846.29	2413.9	
846.46	4367.6	
846.63	4156	
846.8	2152.4	
846.97	2514.2	
847.14	4302.8	
847.31	4193.6	
847.48	2366.1	
847.65	2566.1	
847.82	3932.1	
847.99	4245.4	
848.16	2703.3	
848.33	2538.8	
848.5	3889.8	
848.67	4388.1	
848.84	2111.5	
849.01	2247.3	
849.18	3948.5	
849.35	3717.1	
849.52	2519	
849.69	2209.1	
849.86	4369.7	
850.03	4243.4	
850.2	2209.1	
850.37	2503.3	
850.54	4259.8	
850.71	3788.7	
850.88	2489	
851.05	2141.5	
851.22	4103.4	
851.39	4397	
851.56	2052.1	
851.73	2354.5	
851.9	3794.2	
852.07	4301.4	
852.24	2309.4	
852.41	2173.6	
852.58	4189.5	
852.75	3876.1	
852.92	2461	
853.09	2130.6	
853.26	3648.8	
853.43	4309.6	
853.6	2209.8	
853.77	1946.3	
853.94	4491.2	
854.11	3808.5	
854.28	2908.8	
854.44	2342.2	
854.61	4588.1	
854.78	4277.5	
854.95	2156.5	
855.12	2565.4	
855.29	3580.5	
855.46	4431.8	
855.63	2210.4	
855.8	2729.3	
855.97	3848.8	
856.14	4360.1	
856.31	2837.1	
856.48	2304.6	
856.65	4079.6	
856.82	3782.6	
856.99	2162	
857.16	2327.2	
857.33	4745.1	
857.49	3930.1	
857.66	2314.9	
857.83	2375	
858	4099.4	
858.17	4101.4	
858.34	2118.3	
858.51	2203.6	
858.68	4394.3	
858.85	4382	
859.02	2397.5	
859.19	2507.4	
859.36	3878.2	
859.52	3689.8	
859.69	2194.1	
859.86	2454.8	
860.03	3680.9	
860.2	4481	
860.37	2114.9	
860.54	2196.1	
860.71	4196.3	
860.88	4433.2	
861.05	2295.8	
861.21	2640.5	
861.38	4414.1	
861.55	3646.1	
861.72	2058.2	
861.89	2357.9	
862.06	4232.5	
862.23	4468	
862.4	2098.5	
862.56	2235	
862.73	4186	
862.9	4069.3	
863.07	2372.9	
863.24	2071.9	
863.41	3745.1	
863.58	3875.4	
863.75	2198.8	
863.91	2446	
864.08	4301.4	
864.25	4136.9	
864.42	2536.8	
864.59	2830.3	
864.76	4481	
864.93	3814	
865.09	2149	
865.26	2275.3	
865.43	4377.2	
865.6	4580.6	
865.77	2000.2	
865.94	2141.5	
866.1	4314.4	
866.27	4089.8	
866.44	2963.4	
866.61	2116.2	
866.78	3971	
866.95	4237.9	
867.11	2172.9	
867.28	2025.4	
867.45	4409.3	
867.62	3773.7	
867.79	2349.7	
867.96	2155.1	
868.12	3775.8	
868.29	4216.1	
868.46	2197.5	
868.63	2685.6	
868.8	4295.3	
868.97	4259.1	
869.13	2293.7	
869.3	2279.4	
869.47	4085	
869.64	4287.8	
869.81	2160.6	
869.97	2196.8	
870.14	4029.7	
870.31	4382.7	
870.48	2142.2	
870.65	2620.7	
870.81	4077.5	
870.98	4021.5	
871.15	2386.6	
871.32	2273.9	
871.48	4240.7	
871.65	4563.6	
871.82	2166.1	
871.99	2338.8	
872.16	4657.1	
872.32	4345.1	
872.49	2235.7	
872.66	2205.7	
872.83	4268.6	
872.99	3880.2	
873.16	2415.9	
873.33	2148.3	
873.5	4024.9	
873.67	4105.5	
873.83	2288.9	
874	2667.8	
874.17	4166.3	
874.34	4435.9	
874.5	2651.4	
874.67	2499.2	
874.84	4383.3	
875.01	3629.7	
875.17	2771.6	
875.34	2182.5	
875.51	4118.5	
875.68	4752	
875.84	2491.7	
876.01	2821.4	
876.18	4182.6	
876.34	4144.4	
876.51	2190.6	
876.68	2144.9	
876.85	3898.6	
877.01	4432.5	
877.18	2798.2	
877.35	2128.5	
877.52	4205.2	
877.68	3850.9	
877.85	2197.5	
878.02	2180.4	
878.18	3667.2	
878.35	3988.1	
878.52	1843.9	
878.69	2447.3	
878.85	4399.7	
879.02	4223.6	
879.19	2826.9	
879.35	2279.4	
879.52	4282.3	
879.69	4291.9	
879.86	2050	
880.02	2393.4	
880.19	4098	
880.36	4645.5	
880.52	2364	
880.69	2469.9	
880.86	4298.7	
881.02	4250.9	
881.19	2309.4	
881.36	2334	
881.52	4187.4	
881.69	3842.7	
881.86	2358.6	
882.02	2312.2	
882.19	4368.3	
882.36	4809.3	
882.52	2273.2	
882.69	2786.6	
882.86	4104.8	
883.02	4144.4	
883.19	2431.6	
883.36	2382.5	
883.52	4252.3	
883.69	4669.4	
883.86	2256.2	
884.02	2100.5	
884.19	4232.5	
884.36	4053.6	
884.52	2351.8	
884.69	2366.8	
884.86	3941	
885.02	4384	
885.19	2344.9	
885.36	2425.5	
885.52	3806.5	
885.69	4199.7	
885.86	2838.5	
886.02	2575.7	
886.19	4260.5	
886.35	3859.7	
886.52	2426.8	
886.69	2800.9	
886.85	3794.2	
887.02	4376.5	
887.19	4376.5	
887.35	4376.5	
887.52	4376.5	
887.68	4376.5	
887.85	4376.5	
888.02	4376.5	
888.18	4376.5	
888.35	4376.5	
888.51	4376.5	
888.68	4376.5	
888.85	4376.5	
889.01	4376.5	
889.18	4376.5	
889.35	4376.5	
889.51	4376.5	
889.68	4376.5	
889.84	4376.5	
890.01	4376.5	
890.17	4376.5	
890.34	4376.5	
890.51	4376.5	
890.67	4376.5	
890.84	4376.5	
891	4376.5	
891.17	4376.5	
891.34	4376.5	
891.5	4376.5	
891.67	4376.5	
891.83	4376.5	
892	4376.5	
892.16	4376.5	
892.33	4376.5	
892.5	4376.5	
892.66	4376.5	
892.83	4376.5	
892.99	4376.5	
893.16	4376.5	
893.32	4376.5	
893.49	4376.5	
893.65	4376.5	
893.82	4376.5	
893.99	4376.5	
894.15	4376.5	
894.32	4376.5	
894.48	4376.5	
894.65	4376.5	
894.81	4376.5	
894.98	4376.5	
895.14	4376.5	
895.31	4376.5	
895.47	4376.5	
895.64	4376.5	
895.81	4376.5	
895.97	4376.5	
896.14	4376.5	
896.3	4376.5	
896.47	4376.5	
896.63	4376.5	
896.8	4376.5	
896.96	4376.5	
897.13	4376.5	
897.29	4376.5	
897.46	4376.5	
897.62	4376.5	
897.79	4376.5	
897.95	4376.5	
898.12	4376.5	
898.28	4376.5	
898.45	4376.5	
898.61	4376.5	
898.78	4376.5	
898.94	4376.5	
899.11	4376.5	
899.27	4376.5	
899.44	4376.5	
899.6	4376.5	
899.77	4376.5	
899.93	4376.5	
900.1	4376.5	
900.26	4376.5	
900.43	4376.5	
900.59	4376.5	
900.76	4376.5	
900.92	4376.5	
901.09	4376.5	
901.25	4376.5	
901.42	4376.5	
901.58	4376.5	
901.75	4376.5	
901.91	4376.5	
902.07	4376.5	
902.24	4376.5	
902.4	4376.5	
902.57	4376.5	
902.73	4376.5	
902.9	4376.5	
903.06	4376.5	
903.23	4376.5	
903.39	4376.5	
903.56	4376.5	
903.72	4376.5	
903.88	4376.5	
904.05	4376.5	
904.21	4376.5	
904.38	4376.5	
904.54	4376.5	
904.71	4376.5	
904.87	4376.5	
905.03	4376.5	
905.2	4376.5	
905.36	4376.5	
905.53	4376.5	
905.69	4376.5	
905.86	4376.5	
906.02	4376.5	
906.18	4376.5	
906.35	4376.5	
906.51	4376.5	
906.68	4376.5	
906.84	4376.5	
907.01	4376.5	
907.17	4376.5	
907.33	4376.5	
907.5	4376.5	
907.66	4376.5	
907.83	4376.5	
907.99	4376.5	
908.15	4376.5	
908.32	4376.5	
908.48	4376.5	
908.65	4376.5	
908.81	4376.5	
908.97	4376.5	
909.14	4376.5	
909.3	4376.5	
909.47	4376.5	
909.63	4376.5	
909.79	4376.5	
909.96	4376.5	
910.12	4376.5	
910.28	4376.5	
910.45	4376.5	
910.61	4376.5	
910.78	4376.5	
910.94	4376.5	
911.1	4376.5	
911.27	4376.5	
911.43	4376.5	
911.59	4376.5	
911.76	4376.5	
911.92	4376.5	
912.08	4376.5	
912.25	4376.5	
912.41	4376.5	
912.57	4376.5	
912.74	4376.5	
912.9	4376.5	
913.07	4376.5	
913.23	4376.5	
913.39	4376.5	
913.56	4376.5	
913.72	4376.5	
913.88	4376.5	
914.05	4376.5	
914.21	4376.5	
914.37	4376.5	
914.54	4376.5	
914.7	4376.5	
914.86	4376.5	
915.03	4376.5	
915.19	4376.5	
