Wavelength	Intensities	
nm	a.u.	
179.22	1676.8	
179.44	1676.9	
179.65	1676.6	
179.86	1677.3	
180.08	1714.1	
180.29	3939.6	
180.51	3007.8	
180.72	4971.1	
180.94	5494	
181.15	2714.9	
181.37	2708.8	
181.58	4726	
181.79	4979.3	
182.01	2806.4	
182.22	2941.6	
182.44	5027.8	
182.65	4351.9	
182.87	3633.8	
183.08	3136.8	
183.29	5251.7	
183.51	4358.1	
183.72	2910.8	
183.94	4079.6	
184.15	4684.4	
184.37	4642.1	
184.58	2729.3	
184.79	3478.1	
185.01	4455	
185.22	5018.2	
185.44	3630.4	
185.65	3108.1	
185.86	4721.3	
186.08	4354	
186.29	2653.5	
186.51	2766.8	
186.72	4445.5	
186.94	5122	
187.15	3191.4	
187.36	3241.9	
187.58	6386.2	
187.79	4789.5	
188.01	3321.8	
188.22	4941.1	
188.43	5583.4	
188.65	4939	
188.86	2783.2	
189.08	3293.1	
189.29	4519.2	
189.5	4516.5	
189.72	2937.5	
189.93	3098.6	
190.15	5070.8	
190.36	5898.8	
190.57	3284.9	
190.79	3105.4	
191	5122	
191.22	5109	
191.43	3284.9	
191.64	2806.4	
191.86	5326.8	
192.07	5145.9	
192.29	2851.5	
192.5	3050.8	
192.71	5104.2	
192.93	4529.4	
193.14	2945	
193.35	3082.2	
193.57	4520.5	
193.78	5140.4	
194	2492.4	
194.21	2972.3	
194.42	4333.5	
194.64	4681	
194.85	3227.6	
195.07	3695.9	
195.28	4698.7	
195.49	4195.6	
195.71	3878.2	
195.92	2875.3	
196.13	4898.1	
196.35	4876.9	
196.56	4105.5	
196.78	3213.3	
196.99	5864.7	
197.2	5488.6	
197.42	3611.3	
197.63	3265.1	
197.84	4317.1	
198.06	4873.5	
198.27	3027.6	
198.48	3877.5	
198.7	4527.4	
198.91	4713.7	
199.13	3243.3	
199.34	3241.3	
199.55	5088.5	
199.77	4113	
199.98	2965.5	
200.19	3261.7	
200.41	4691.9	
200.62	4422.2	
200.83	3332.7	
201.05	3607.8	
201.26	4681.7	
201.47	4476.2	
201.69	2918.4	
201.9	2843.3	
202.11	4678.9	
202.33	5457.8	
202.54	3097.2	
202.76	3394.8	
202.97	4767	
203.18	4761.5	
203.4	3353.2	
203.61	3368.9	
203.82	4736.3	
204.04	4457.7	
204.25	3263.8	
204.46	3123.8	
204.68	4717.2	
204.89	4881	
205.1	3188	
205.32	2778.4	
205.53	5000.5	
205.74	5130.2	
205.96	2464.4	
206.17	3306.8	
206.38	4913.8	
206.6	5061.9	
206.81	3763.5	
207.02	3051.5	
207.24	4878.9	
207.45	5185.5	
207.66	3122.5	
207.88	2726.5	
208.09	4852.3	
208.3	4744.5	
208.52	2884.9	
208.73	3172.3	
208.94	4711	
209.15	5274.2	
209.37	3126.6	
209.58	3258.3	
209.79	5122	
210.01	4569	
210.22	2594.1	
210.43	2682.2	
210.65	4646.2	
210.86	4915.8	
211.07	3139.5	
211.29	2878.8	
211.5	4911	
211.71	4677.6	
211.93	2916.3	
212.14	2896.5	
212.35	4634.6	
212.56	4760.2	
212.78	3262.4	
212.99	2739.5	
213.2	5376.6	
213.42	4573.1	
213.63	2975	
213.84	3186.6	
214.06	4269.3	
214.27	4308.9	
214.48	3054.9	
214.69	3296.5	
214.91	5214.1	
215.12	5228.5	
215.33	3269.9	
215.55	3618.1	
215.76	5632.6	
215.97	4957.4	
216.18	3179.1	
216.4	3147	
216.61	4465.9	
216.82	5061.2	
217.04	2942.9	
217.25	3006.4	
217.46	5169.8	
217.67	4962.2	
217.89	2627.5	
218.1	2709.5	
218.31	4744.5	
218.53	4844.1	
218.74	3102.7	
218.95	2962.7	
219.16	4678.9	
219.38	5353.4	
219.59	2957.3	
219.8	3354.6	
220.01	5780.1	
220.23	4728.8	
220.44	3714.3	
220.65	2840.5	
220.87	4764.3	
221.08	5184.1	
221.29	2744.3	
221.5	3495.9	
221.72	6091.3	
221.93	4417.5	
222.14	3283.6	
222.35	3827.7	
222.57	4740.4	
222.78	5060.5	
222.99	3171.6	
223.2	3338.2	
223.42	4887.8	
223.63	4960.9	
223.84	2478	
224.05	2486.9	
224.27	5760.3	
224.48	5342.5	
224.69	3790.8	
224.9	3226.2	
225.12	4829.1	
225.33	4655.7	
225.54	2695.8	
225.75	2959.3	
225.97	4416.8	
226.18	4653	
226.39	3120.4	
226.6	2966.8	
226.82	4565.6	
227.03	4373.8	
227.24	3267.9	
227.45	2767.5	
227.67	5100.1	
227.88	5299.5	
228.09	3637.9	
228.3	3588	
228.52	4937	
228.73	4615.4	
228.94	3063.8	
229.15	2743.6	
229.36	4625.7	
229.58	4646.2	
229.79	3129.3	
230	3523.9	
230.21	5472.2	
230.43	4719.9	
230.64	3239.9	
230.85	3362.1	
231.06	5066	
231.28	5009.3	
231.49	2770.2	
231.7	3190.7	
231.91	4997	
232.12	4696	
232.34	2879.4	
232.55	3160	
232.76	5160.9	
232.97	4823	
233.18	2897.9	
233.4	3246	
233.61	4808.6	
233.82	4547.9	
234.03	3063.8	
234.25	2964.1	
234.46	6156.9	
234.67	4724.7	
234.88	3311.6	
235.09	2906.1	
235.31	4840.7	
235.52	4604.5	
235.73	3247.4	
235.94	2797.5	
236.15	4536.9	
236.37	5509.7	
236.58	2945.7	
236.79	3149.1	
237	4938.3	
237.21	4373.1	
237.43	3360	
237.64	2693.8	
237.85	7663.5	
238.06	4377.2	
238.27	3297.2	
238.48	2815.3	
238.7	4986.1	
238.91	4619.5	
239.12	3102.7	
239.33	3223.5	
239.54	4611.3	
239.76	4653.7	
239.97	3096.5	
240.18	3126.6	
240.39	5580.7	
240.6	4865.3	
240.82	3310.2	
241.03	2746.3	
241.24	4716.5	
241.45	5298.1	
241.66	2894.5	
241.87	3373.7	
242.09	5233.9	
242.3	5480.4	
242.51	3394.2	
242.72	3124.5	
242.93	4978.6	
243.14	4637.3	
243.36	3624.9	
243.57	3786	
243.78	5301.5	
243.99	4990.2	
244.2	3164.1	
244.41	2826.2	
244.63	4376.5	
244.84	4861.2	
245.05	3334.8	
245.26	3110.9	
245.47	4971.8	
245.68	5004.6	
245.9	4028.4	
246.11	3290.4	
246.32	4529.4	
246.53	4891.9	
246.74	4887.1	
246.95	2677.4	
247.16	4365.6	
247.38	4721.9	
247.59	2748.4	
247.8	3175	
248.01	4396.3	
248.22	4654.4	
248.43	2925.9	
248.64	3137.5	
248.86	4367.6	
249.07	4529.4	
249.28	2856.2	
249.49	3231.7	
249.7	5069.4	
249.91	5132.9	
250.12	2700.6	
250.34	2777	
250.55	4758.1	
250.76	4728.8	
250.97	3222.8	
251.18	3300.6	
251.39	5098.8	
251.6	4830.5	
251.81	3307.5	
252.03	3252.2	
252.24	4526	
252.45	5066.7	
252.66	2807.8	
252.87	3410.6	
253.08	4726	
253.29	5827.2	
253.5	2796.8	
253.72	3745.7	
253.93	4618.2	
254.14	5408	
254.35	2996.9	
254.56	3071.3	
254.77	4832.5	
254.98	4388.8	
255.19	3011.2	
255.41	3678.8	
255.62	4860.5	
255.83	5145.2	
256.04	3325.2	
256.25	3231.7	
256.46	5607.3	
256.67	4468	
256.88	3198.2	
257.09	3599	
257.31	4391.5	
257.52	4433.2	
257.73	4013.3	
257.94	2953.9	
258.15	4686.4	
258.36	4679.6	
258.57	3690.4	
258.78	2469.9	
258.99	5071.5	
259.2	4583.4	
259.41	3015.3	
259.63	3062.4	
259.84	5342.5	
260.05	5568.4	
260.26	3861.1	
260.47	3005.7	
260.68	5092.6	
260.89	4693.9	
261.1	3589.4	
261.31	2910.2	
261.52	5187.5	
261.73	5358.2	
261.95	3797.6	
262.16	3304.1	
262.37	5160.9	
262.58	5265.3	
262.79	3717.1	
263	3053.5	
263.21	4720.6	
263.42	4295.3	
263.63	3310.9	
263.84	3043.3	
264.05	5018.2	
264.26	5291.3	
264.47	3685	
264.69	3275.4	
264.9	5285.8	
265.11	4829.8	
265.32	2922.5	
265.53	2984.6	
265.74	4827.7	
265.95	4222.2	
266.16	3189.4	
266.37	3462.4	
266.58	4833.2	
266.79	4517.1	
267	3005.7	
267.21	2820.1	
267.42	4386.7	
267.63	4674.1	
267.84	3149.1	
268.06	2742.2	
268.27	5051.7	
268.48	5186.1	
268.69	3056.3	
268.9	3530	
269.11	5200.5	
269.32	4274.8	
269.53	3112.2	
269.74	2958.6	
269.95	4938.3	
270.16	4267.3	
270.37	3123.2	
270.58	3562.8	
270.79	4595	
271	5131.5	
271.21	3289	
271.42	3172.3	
271.63	4867.3	
271.84	4384.7	
272.05	2588.6	
272.26	2839.8	
272.47	4756.1	
272.68	4872.8	
272.89	3056.9	
273.11	3414	
273.32	4468	
273.53	5394.3	
273.74	3317	
273.95	3217.4	
274.16	5065.3	
274.37	4737	
274.58	3469.9	
274.79	2821.4	
275	4795	
275.21	5158.2	
275.42	3975.8	
275.63	3448.1	
275.84	4911	
276.05	5950	
276.26	3300	
276.47	3078.8	
276.68	4656.4	
276.89	5499.5	
277.1	3485	
277.31	2802.3	
277.52	4843.4	
277.73	5121.3	
277.94	2727.9	
278.15	3029.6	
278.36	4908.3	
278.57	4482.3	
278.78	3037.1	
278.99	3353.9	
279.2	4518.5	
279.41	4375.1	
279.62	3900.7	
279.83	2856.9	
280.04	5558.2	
280.25	4400.4	
280.46	3844	
280.67	3102.7	
280.88	4441.4	
281.09	5207.3	
281.3	3294.5	
281.51	3999	
281.72	4486.4	
281.93	5048.9	
282.14	2998.2	
282.35	3179.8	
282.56	5107	
282.77	5027.1	
282.98	3084.2	
283.19	3670	
283.4	6018.3	
283.61	4644.1	
283.82	2813.2	
284.03	3795.6	
284.24	4879.6	
284.45	5149.3	
284.66	3812.6	
284.87	3602.4	
285.08	5135.6	
285.29	5215.5	
285.5	2767.5	
285.71	3077.4	
285.92	5130.2	
286.12	5616.2	
286.33	3792.8	
286.54	3105.4	
286.75	5059.2	
286.96	4612.7	
287.17	2857.6	
287.38	3651.5	
287.59	4515.8	
287.8	4473.4	
288.01	3090.4	
288.22	3449.5	
288.43	4935.6	
288.64	4257	
288.85	3607.8	
289.06	3386.7	
289.27	4978.6	
289.48	5353.4	
289.69	3809.2	
289.9	3497.2	
290.11	5211.4	
290.32	4530.1	
290.53	3612.6	
290.74	3360	
290.94	4992.9	
291.15	4971.8	
291.36	3038.5	
291.57	3433.1	
291.78	4558.1	
291.99	4250.9	
292.2	2925.9	
292.41	3377.1	
292.62	5083.7	
292.83	4931.5	
293.04	4085	
293.25	2911.5	
293.46	4571.7	
293.67	5169.8	
293.88	2968.2	
294.09	2831	
294.29	4415.4	
294.5	4804.5	
294.71	3134.8	
294.92	3040.6	
295.13	4592.9	
295.34	5551.4	
295.55	2731.3	
295.76	2638.5	
295.97	4999.1	
296.18	5511.1	
296.39	2841.9	
296.6	2963.4	
296.81	4720.6	
297.01	4997.7	
297.22	3076	
297.43	2988	
297.64	4552.6	
297.85	4416.1	
298.06	2525.1	
298.27	2704	
298.48	4730.8	
298.69	4517.8	
298.9	3171.6	
299.11	2935.4	
299.31	4373.8	
299.52	4390.8	
299.73	3378.5	
299.94	3301.3	
300.15	4757.4	
300.36	4483	
300.57	3325.2	
300.78	3293.8	
300.99	4583.4	
301.2	4754	
301.4	2969.6	
301.61	3125.9	
301.82	4881	
302.03	5022.3	
302.24	3557.3	
302.45	2827.6	
302.66	4915.8	
302.87	5225.7	
303.08	3022.1	
303.29	3913.7	
303.49	4569.7	
303.7	4675.5	
303.91	2729.9	
304.12	3697.9	
304.33	4327.4	
304.54	4848.9	
304.75	2954.5	
304.96	2841.2	
305.16	5010.7	
305.37	5454.4	
305.58	2692.4	
305.79	2740.9	
306	4990.9	
306.21	4268	
306.42	3005.7	
306.63	4280.3	
306.83	4586.8	
307.04	5036.6	
307.25	3220.1	
307.46	3167.5	
307.67	4222.9	
307.88	4959.5	
308.09	3005.7	
308.29	3004.4	
308.5	4769.7	
308.71	5143.1	
308.92	3136.8	
309.13	2869.2	
309.34	4687.8	
309.55	4627	
309.75	3655.6	
309.96	3343.7	
310.17	5062.6	
310.38	4498	
310.59	3461.1	
310.8	2792.7	
311.01	4573.8	
311.21	4678.2	
311.42	2855.6	
311.63	2936.8	
311.84	4592.9	
312.05	4734.9	
312.26	3261	
312.46	3556.6	
312.67	4583.4	
312.88	4365.6	
313.09	2876.7	
313.3	2869.9	
313.51	5224.4	
313.71	5521.3	
313.92	2867.8	
314.13	3001.6	
314.34	4872.8	
314.55	4686.4	
314.76	3580.5	
314.96	3186	
315.17	4887.1	
315.38	4898.1	
315.59	2945.7	
315.8	2809.1	
316.01	5251	
316.21	5397.1	
316.42	2826.2	
316.63	3160	
316.84	4604.5	
317.05	5138.4	
317.26	3368.9	
317.46	3020.1	
317.67	4680.3	
317.88	4984.1	
318.09	3538.9	
318.3	2753.2	
318.5	4558.8	
318.71	4874.8	
318.92	4393.6	
319.13	3351.2	
319.34	5038.7	
319.54	5201.8	
319.75	2703.3	
319.96	2558.6	
320.17	4930.1	
320.38	5109.7	
320.58	2684.2	
320.79	3120.4	
321	5167.7	
321.21	5180.7	
321.42	3195.5	
321.62	2639.8	
321.83	4462.5	
322.04	4699.4	
322.25	3069.9	
322.46	2803	
322.66	4815.5	
322.87	4926	
323.08	3445.4	
323.29	2805.7	
323.5	5479.7	
323.7	4396.3	
323.91	3792.8	
324.12	3447.4	
324.33	4812	
324.53	4945.8	
324.74	3324.5	
324.95	3429.7	
325.16	4303.5	
325.37	4565.6	
325.57	2926.5	
325.78	2940.2	
325.99	4780	
326.2	4311.7	
326.4	3943.7	
326.61	2707.4	
326.82	4668.7	
327.03	4835.9	
327.24	3938.2	
327.44	3721.2	
327.65	4912.4	
327.86	4123.9	
328.07	3409.2	
328.27	2838.5	
328.48	5258.5	
328.69	4406.5	
328.9	4024.3	
329.1	3044.6	
329.31	4641.4	
329.52	5252.4	
329.73	2932	
329.93	3214.6	
330.14	4751.3	
330.35	4869.4	
330.56	4527.4	
330.76	3431.7	
330.97	4614.1	
331.18	4901.5	
331.39	3160.7	
331.59	2637.8	
331.8	5148.6	
332.01	5201.2	
332.22	2953.9	
332.42	3339.6	
332.63	4802.5	
332.84	4483.7	
333.05	3213.9	
333.25	2908.1	
333.46	4502.1	
333.67	4674.8	
333.88	3066.5	
334.08	3250.1	
334.29	6039.5	
334.5	5135.6	
334.7	2848.7	
334.91	3946.4	
335.12	4392.9	
335.33	4958.1	
335.53	3158	
335.74	4483.7	
335.95	4637.3	
336.16	4360.8	
336.36	3207.8	
336.57	3582.6	
336.78	4321.2	
336.98	5137.7	
337.19	3806.5	
337.4	3087	
337.61	5566.4	
337.81	4381.3	
338.02	2985.9	
338.23	3710.9	
338.43	5270.8	
338.64	4491.9	
338.85	2966.1	
339.05	3680.9	
339.26	5396.4	
339.47	4328	
339.68	2873.3	
339.88	4077.5	
340.09	4955.4	
340.3	5061.2	
340.5	3267.2	
340.71	2610.5	
340.92	4380.6	
341.13	5196.4	
341.33	2824.1	
341.54	3315.7	
341.75	4877.6	
341.95	4557.4	
342.16	3218	
342.37	3463.8	
342.57	4379.9	
342.78	4691.2	
342.99	3527.3	
343.19	2646.7	
343.4	5010	
343.61	4833.9	
343.81	3069.2	
344.02	2827.6	
344.23	5001.8	
344.43	5265.3	
344.64	3503.4	
344.85	3436.5	
345.06	4900.1	
345.26	5083.1	
345.47	3350.5	
345.68	3777.8	
345.88	4294.6	
346.09	5079	
346.3	3353.9	
346.5	2600.2	
346.71	4667.3	
346.92	4489.8	
347.12	2764.1	
347.33	3263.8	
347.54	5072.1	
347.74	5437.4	
347.95	3284.9	
348.16	2540.2	
348.36	4601.1	
348.57	4425.7	
348.78	3314.3	
348.98	3501.3	
349.19	4658.4	
349.39	4303.5	
349.6	2779.8	
349.81	2953.9	
350.01	4941.1	
350.22	4515.1	
350.43	3178.4	
350.63	3772.4	
350.84	4695.3	
351.05	4534.2	
351.25	2934.7	
351.46	2695.1	
351.67	5117.9	
351.87	4473.4	
352.08	3097.2	
352.29	3469.3	
352.49	5035.3	
352.7	5061.2	
352.9	2803.7	
353.11	3412.6	
353.32	5536.3	
353.52	4556.7	
353.73	2889.7	
353.94	3527.3	
354.14	4919.9	
354.35	4761.5	
354.55	2940.2	
354.76	3186.6	
354.97	4871.4	
355.17	4743.1	
355.38	2794.8	
355.59	3713	
355.79	4506.9	
356	4749.2	
356.2	3218	
356.41	2878.1	
356.62	4319.2	
356.82	4651.6	
357.03	3378.5	
357.24	3115	
357.44	4466.6	
357.65	4549.9	
357.85	4009.9	
358.06	3275.4	
358.27	4238.6	
358.47	4384.7	
358.68	2765.4	
358.88	3422.2	
359.09	4904.2	
359.3	5096	
359.5	3852.2	
359.71	3529.3	
359.91	5494.7	
360.12	4948.6	
360.33	3431.7	
360.53	3747.1	
360.74	4571.7	
360.94	4560.1	
361.15	3587.4	
361.36	3002.3	
361.56	5086.5	
361.77	4708.3	
361.97	3967.6	
362.18	3160	
362.38	5107	
362.59	4462.5	
362.8	2966.8	
363	2878.8	
363.21	4239.3	
363.41	4772.4	
363.62	3285.6	
363.83	4012.7	
364.03	4939.7	
364.24	5482.4	
364.44	4166.9	
364.65	4112.3	
364.85	4732.9	
365.06	4384.7	
365.27	3076.7	
365.47	3186.6	
365.68	5385.5	
365.88	4698	
366.09	3440.6	
366.29	3151.8	
366.5	4842.8	
366.71	5186.1	
366.91	4111	
367.12	3534.8	
367.32	5640.8	
367.53	5029.8	
367.73	3543.7	
367.94	4218.1	
368.14	5053	
368.35	5631.2	
368.56	3478.1	
368.76	2990	
368.97	5124	
369.17	6294.1	
369.38	3142.3	
369.58	3339.6	
369.79	4369	
369.99	5418.9	
370.2	4089.8	
370.4	3431.7	
370.61	4944.5	
370.82	5800.5	
371.02	3300.6	
371.23	2824.1	
371.43	4427.7	
371.64	5327.4	
371.84	3369.6	
372.05	4207.2	
372.25	6192.4	
372.46	5071.5	
372.66	3340.2	
372.87	3329.3	
373.07	5208.7	
373.28	6343.2	
373.48	4147.1	
373.69	3864.5	
373.9	4798.4	
374.1	4814.8	
374.31	4057.7	
374.51	3734.1	
374.72	5449	
374.92	4554.7	
375.13	4274.1	
375.33	3626.3	
375.54	5121.3	
375.74	4705.5	
375.95	3695.2	
376.15	4611.3	
376.36	5184.1	
376.56	4990.2	
376.77	3775.1	
376.97	4003.1	
377.18	5998.5	
377.38	5281.7	
377.59	4233.8	
377.79	3361.4	
378	5081	
378.2	5327.4	
378.41	3425.6	
378.61	3357.3	
378.82	5470.8	
379.02	4833.2	
379.23	3569.6	
379.43	4326.7	
379.64	5617.6	
379.84	5223.7	
380.05	3485.6	
380.25	3411.9	
380.46	5362.9	
380.66	5020.3	
380.87	4449.6	
381.07	4668	
381.28	5808	
381.48	5321.3	
381.69	3425.6	
381.89	3474.7	
382.1	4519.2	
382.3	5344.5	
382.51	4364.2	
382.71	4924.7	
382.91	5295.4	
383.12	5709.7	
383.32	3797.6	
383.53	3864.5	
383.73	5161.6	
383.94	5049.6	
384.14	3933.5	
384.35	3145.7	
384.55	4962.2	
384.76	5287.9	
384.96	3762.1	
385.17	3951.9	
385.37	5307	
385.58	4739.7	
385.78	3968.3	
385.98	3102	
386.19	4974.5	
386.39	5199.8	
386.6	3519.1	
386.8	3744.4	
387.01	5272.2	
387.21	5367	
387.42	4039.3	
387.62	4468	
387.83	4858.5	
388.03	5149.3	
388.23	3883.6	
388.44	4326	
388.64	4564.9	
388.85	4687.8	
389.05	4063.2	
389.26	4470.7	
389.46	6201.9	
389.67	5761.6	
389.87	4115.1	
390.07	4078.9	
390.28	5126.7	
390.48	4721.9	
390.69	3535.5	
390.89	3754.6	
391.1	4970.4	
391.3	5609.4	
391.5	4623.6	
391.71	5012.7	
391.91	5494	
392.12	6130.3	
392.32	4755.4	
392.53	4175.1	
392.73	5036.6	
392.93	5219.6	
393.14	3889.8	
393.34	4386.1	
393.55	5515.9	
393.75	5165	
393.95	3949.8	
394.16	3802.4	
394.36	4943.8	
394.57	5466.7	
394.77	3478.8	
394.98	3767.6	
395.18	4909	
395.38	5082.4	
395.59	4485.7	
395.79	3730	
396	5110.4	
396.2	5507.7	
396.4	4489.8	
396.61	4357.4	
396.81	5621.7	
397.02	5059.2	
397.22	4488.5	
397.42	4628.4	
397.63	5696.1	
397.83	5108.3	
398.04	3738.2	
398.24	4165.6	
398.44	5505.6	
398.65	4747.2	
398.85	3628.3	
399.05	3706.1	
399.26	5082.4	
399.46	6376.7	
399.67	4080.2	
399.87	3771.7	
400.07	5379.3	
400.28	5611.4	
400.48	3905.5	
400.69	4713.1	
400.89	5844.2	
401.09	6205.3	
401.3	3904.1	
401.5	4746.5	
401.7	6287.3	
401.91	6494.1	
402.11	4238.6	
402.32	4337.6	
402.52	5903.6	
402.72	5806.7	
402.93	4532.2	
403.13	3609.9	
403.33	6482.5	
403.54	5433.9	
403.74	4267.3	
403.94	4764.9	
404.15	5449	
404.35	6303	
404.56	4005.8	
404.76	5235.3	
404.96	5685.2	
405.17	5566.4	
405.37	4844.8	
405.57	4472.8	
405.78	5890	
405.98	5414.8	
406.18	4775.9	
406.39	4788.2	
406.59	5917.9	
406.79	5556.1	
407	3988.1	
407.2	3990.1	
407.4	6114.6	
407.61	5959.6	
407.81	3958.7	
408.01	5671.5	
408.22	5083.7	
408.42	6505.7	
408.62	4979.3	
408.83	4603.8	
409.03	5724.8	
409.23	5603.2	
409.44	4734.2	
409.64	4956.1	
409.84	6568.5	
410.05	6519.4	
410.25	4969.1	
410.45	4722.6	
410.66	6290	
410.86	8039.6	
411.06	5286.5	
411.27	5053	
411.47	7945.4	
411.67	6412.9	
411.88	5310.4	
412.08	5536.3	
412.28	6860.7	
412.49	7357	
412.69	5177.3	
412.89	5202.5	
413.09	7157.7	
413.3	7144.7	
413.5	5396.4	
413.7	5085.1	
413.91	6588.3	
414.11	7318.1	
414.31	5229.1	
414.52	5569.8	
414.72	6976.7	
414.92	7031.4	
415.12	5231.9	
415.33	5708.4	
415.53	7333.1	
415.73	7454.6	
415.94	5927.5	
416.14	5463.3	
416.34	6634.1	
416.55	6320	
416.75	6383.5	
416.95	6023.1	
417.15	7440.3	
417.36	7924.3	
417.56	6630.6	
417.76	5954.8	
417.97	7695.6	
418.17	7395.2	
418.37	5684.5	
418.57	5700.9	
418.78	7403.4	
418.98	7092.1	
419.18	6423.8	
419.38	6271.6	
419.59	7080.5	
419.79	6713.9	
419.99	5619.6	
420.2	5756.2	
420.4	7432.1	
420.6	7488.7	
420.8	5530.9	
421.01	5395.7	
421.21	7397.3	
421.41	7419.1	
421.61	5763	
421.82	5642.2	
422.02	7062.1	
422.22	7758.4	
422.42	6332.3	
422.63	5887.9	
422.83	7075	
423.03	8008.9	
423.23	5905.7	
423.44	5199.1	
423.64	7094.8	
423.84	6847.7	
424.04	5599.8	
424.25	5290.6	
424.45	7739.3	
424.65	7702.4	
424.85	5144.5	
425.06	5547.9	
425.26	7866.9	
425.46	6935.1	
425.66	5922	
425.87	5717.2	
426.07	7527	
426.27	7474.4	
426.47	5764.3	
426.67	5326.1	
426.88	7748.1	
427.08	7377.5	
427.28	6042.9	
427.48	5234.6	
427.69	6548.7	
427.89	7043	
428.09	5941.2	
428.29	5242.8	
428.5	7435.5	
428.7	7155.6	
428.9	5230.5	
429.1	5573.9	
429.3	7135.8	
429.51	7434.8	
429.71	5474.2	
429.91	6118.6	
430.11	7464.8	
430.31	7630.7	
430.52	5754.1	
430.72	6037.4	
430.92	7915.4	
431.12	7595.9	
431.32	5633.3	
431.53	5788.9	
431.73	6863.4	
431.93	7964.6	
432.13	5467.4	
432.33	5470.8	
432.54	7087.3	
432.74	7296.9	
432.94	5443.5	
433.14	6227.9	
433.34	7608.9	
433.55	7320.1	
433.75	6120.7	
433.95	7591.1	
434.15	7513.3	
434.35	7242.3	
434.56	5643.5	
434.76	5375.2	
434.96	7494.9	
435.16	7804.8	
435.36	5666.7	
435.56	6562.4	
435.77	7344	
435.97	7489.4	
436.17	7007.5	
436.37	6524.1	
436.57	7316.7	
436.78	7364.5	
436.98	7564.5	
437.18	6937.2	
437.38	7887.4	
437.58	7531.1	
437.78	7052.5	
437.99	5993	
438.19	7890.1	
438.39	8849.3	
438.59	6021	
438.79	5538.4	
438.99	8262.2	
439.2	7320.8	
439.4	5498.1	
439.6	5466	
439.8	7537.2	
440	8338.6	
440.2	6481.8	
440.4	6488	
440.61	8035.5	
440.81	8501.8	
441.01	6072.2	
441.21	6728.3	
441.41	8632.2	
441.61	8188.5	
441.81	7060.7	
442.02	7722.9	
442.22	8876.6	
442.42	8284.7	
442.62	6184.9	
442.82	6120	
443.02	8656.8	
443.22	7942	
443.43	6527.6	
443.63	6146.6	
443.83	7793.2	
444.03	7793.2	
444.23	7187	
444.43	6836.8	
444.63	8209.6	
444.83	9060.2	
445.04	6492.1	
445.24	7335.1	
445.44	8477.9	
445.64	8514.1	
445.84	6884.6	
446.04	6928.3	
446.24	7774.1	
446.44	8568.7	
446.65	6138.4	
446.85	6516.6	
447.05	7952.3	
447.25	8472.4	
447.45	6563.7	
447.65	6122.1	
447.85	8158.4	
448.05	7760.4	
448.25	6904.4	
448.46	6762.4	
448.66	8137.9	
448.86	7817.1	
449.06	6196.5	
449.26	6944	
449.46	8370	
449.66	7708.6	
449.86	6746	
450.06	6599.9	
450.26	7891.5	
450.47	8335.2	
450.67	6771.9	
450.87	7066.9	
451.07	8523	
451.27	8230.8	
451.47	6300.9	
451.67	7123.5	
451.87	8122.9	
452.07	8888.9	
452.27	6727.6	
452.47	6512.5	
452.67	8261.5	
452.88	8629.5	
453.08	6173.3	
453.28	7651.2	
453.48	9341.5	
453.68	8172.1	
453.88	6541.2	
454.08	6610.2	
454.28	8645.2	
454.48	8372.1	
454.68	7085.3	
454.88	7438.9	
455.08	8669.7	
455.28	8609.7	
455.48	6546.7	
455.68	7081.9	
455.89	9174.2	
456.09	8950.3	
456.29	6864.8	
456.49	7019.8	
456.69	9127.8	
456.89	8445.8	
457.09	7320.1	
457.29	7687.4	
457.49	8893	
457.69	8992.6	
457.89	7380.9	
458.09	6855.9	
458.29	8903.2	
458.49	9414.5	
458.69	7757	
458.89	7380.2	
459.09	9602.9	
459.29	9681.4	
459.49	7460.1	
459.69	8097.7	
459.9	9247.3	
460.1	9026.1	
460.3	7227.3	
460.5	7103	
460.7	9332.6	
460.9	8982.4	
461.1	7004.1	
461.3	7898.3	
461.5	9858.2	
461.7	9495.1	
461.9	7451.9	
462.1	7712	
462.3	9404.3	
462.5	9776.3	
462.7	7613.7	
462.9	7714.7	
463.1	10512	
463.3	10368	
463.5	7844.4	
463.7	8626	
463.9	9811.1	
464.1	9924.5	
464.3	8271.7	
464.5	8303.1	
464.7	10249	
464.9	10088	
465.1	9300.5	
465.3	8682.7	
465.5	10391	
465.7	10603	
465.9	8977.6	
466.1	8584.4	
466.3	10469	
466.5	10292	
466.7	9571.5	
466.9	8666.3	
467.1	10517	
467.3	11195	
467.5	9579	
467.7	8736	
467.9	11258	
468.1	11909	
468.3	9234.3	
468.5	9643.2	
468.7	10509	
468.9	10433	
469.1	9062.3	
469.3	9649.3	
469.5	11959	
469.7	10464	
469.9	9413.8	
470.1	9095	
470.3	10765	
470.5	10670	
470.7	9934.7	
470.9	9133.9	
471.1	10494	
471.3	10617	
471.5	8880	
471.69	10233	
471.89	10380	
472.09	9875.3	
472.29	9460.9	
472.49	9489.6	
472.69	10251	
472.89	10802	
473.09	8798.8	
473.29	8776.2	
473.49	10278	
473.69	10199	
473.89	9499.8	
474.09	8857.5	
474.29	11209	
474.49	10845	
474.69	9476.6	
474.89	8991.3	
475.09	10253	
475.29	10336	
475.49	8530.5	
475.69	8912.8	
475.88	11457	
476.08	10559	
476.28	8551.6	
476.48	8673.8	
476.68	10886	
476.88	10548	
477.08	8656.8	
477.28	8957.8	
477.48	10207	
477.68	10634	
477.88	8511.4	
478.08	8685.4	
478.28	11056	
478.48	10397	
478.67	8859.5	
478.87	8315.4	
479.07	10991	
479.27	10404	
479.47	8934.6	
479.67	9036.3	
479.87	10824	
480.07	11163	
480.27	8539.3	
480.47	9560.6	
480.67	10507	
480.87	11101	
481.06	8727.1	
481.26	9385.8	
481.46	10642	
481.66	10533	
481.86	9143.5	
482.06	9771.5	
482.26	10316	
482.46	11023	
482.66	8916.9	
482.86	8727.8	
483.05	10740	
483.25	10112	
483.45	10776	
483.65	8968.1	
483.85	10227	
484.05	10628	
484.25	9340.8	
484.45	9818.6	
484.65	11129	
484.84	11276	
485.04	9041.1	
485.24	9154.4	
485.44	11558	
485.64	10413	
485.84	8704.5	
486.04	9643.9	
486.24	10590	
486.44	10910	
486.63	8617.9	
486.83	9393.4	
487.03	10628	
487.23	10879	
487.43	8790.6	
487.63	10528	
487.83	11009	
488.02	11518	
488.22	9612.5	
488.42	10105	
488.62	11592	
488.82	10841	
489.02	9335.3	
489.22	9503.3	
489.41	11461	
489.61	11356	
489.81	9237.7	
490.01	9298.5	
490.21	11579	
490.41	12083	
490.61	9306.7	
490.8	9472.5	
491	11300	
491.2	10641	
491.4	9762	
491.6	9098.4	
491.8	11064	
491.99	10993	
492.19	8964.6	
492.39	8953	
492.59	11267	
492.79	11347	
492.99	9760.6	
493.18	9178.3	
493.38	11607	
493.58	12336	
493.78	9992.7	
493.98	9682.8	
494.18	11669	
494.37	11323	
494.57	10404	
494.77	10171	
494.97	11931	
495.17	12261	
495.37	10075	
495.56	10342	
495.76	12614	
495.96	12304	
496.16	11235	
496.36	10488	
496.55	12661	
496.75	12161	
496.95	10753	
497.15	10689	
497.35	12502	
497.54	12472	
497.74	10391	
497.94	11772	
498.14	12962	
498.34	12905	
498.53	10369	
498.73	10916	
498.93	12076	
499.13	12592	
499.33	10928	
499.52	11221	
499.72	12833	
499.92	12823	
500.12	10759	
500.32	11024	
500.51	12893	
500.71	12894	
500.91	11611	
501.11	11338	
501.31	12905	
501.5	13270	
501.7	11804	
501.9	11095	
502.1	12686	
502.29	12921	
502.49	11439	
502.69	11696	
502.89	12946	
503.09	12990	
503.28	10529	
503.48	10562	
503.68	12263	
503.88	12219	
504.07	11275	
504.27	10862	
504.47	12512	
504.67	12546	
504.86	11226	
505.06	11043	
505.26	12405	
505.46	13494	
505.65	10820	
505.85	10906	
506.05	12040	
506.25	12478	
506.44	10249	
506.64	10793	
506.84	11937	
507.04	12334	
507.23	10284	
507.43	10642	
507.63	13282	
507.83	11957	
508.02	10712	
508.22	10440	
508.42	13538	
508.62	11934	
508.81	10576	
509.01	10996	
509.21	11692	
509.4	11944	
509.6	10675	
509.8	10238	
510	11946	
510.19	12887	
510.39	10137	
510.59	10385	
510.79	11892	
510.98	12934	
511.18	10415	
511.38	10690	
511.57	12607	
511.77	12349	
511.97	10903	
512.17	10337	
512.36	12488	
512.56	12323	
512.76	10314	
512.95	10018	
513.15	12471	
513.35	11500	
513.55	10918	
513.74	10263	
513.94	12482	
514.14	12013	
514.33	11183	
514.53	10846	
514.73	12019	
514.92	12172	
515.12	10449	
515.32	10303	
515.51	12324	
515.71	12570	
515.91	11679	
516.11	10446	
516.3	13682	
516.5	12164	
516.7	10912	
516.89	11387	
517.09	12186	
517.29	12174	
517.48	10970	
517.68	10617	
517.88	11842	
518.07	12444	
518.27	11048	
518.47	10192	
518.66	12727	
518.86	11801	
519.06	10191	
519.25	10419	
519.45	12007	
519.65	13095	
519.84	11123	
520.04	11548	
520.24	13643	
520.43	12710	
520.63	10786	
520.83	10671	
521.02	12056	
521.22	12431	
521.42	10843	
521.61	11200	
521.81	11924	
522.01	12082	
522.2	10675	
522.4	10550	
522.6	12473	
522.79	11653	
522.99	10634	
523.18	10294	
523.38	12418	
523.58	12536	
523.77	11824	
523.97	10510	
524.17	14099	
524.36	13578	
524.56	11723	
524.76	11407	
524.95	12917	
525.15	12536	
525.34	11401	
525.54	11406	
525.74	13255	
525.93	12578	
526.13	12519	
526.33	11714	
526.52	13741	
526.72	13354	
526.91	12409	
527.11	11912	
527.31	13700	
527.5	14001	
527.7	12001	
527.89	11381	
528.09	13108	
528.29	13605	
528.48	12270	
528.68	12065	
528.87	13930	
529.07	13784	
529.27	11989	
529.46	11738	
529.66	13676	
529.85	14046	
530.05	11629	
530.25	12279	
530.44	14758	
530.64	13439	
530.83	11845	
531.03	12058	
531.23	13866	
531.42	13476	
531.62	12523	
531.81	11912	
532.01	14033	
532.21	14332	
532.4	12140	
532.6	12357	
532.79	14817	
532.99	14257	
533.18	12680	
533.38	13311	
533.58	14135	
533.77	14585	
533.97	12642	
534.16	13145	
534.36	14920	
534.55	14201	
534.75	13383	
534.95	12682	
535.14	14969	
535.34	14220	
535.53	12518	
535.73	13973	
535.92	15278	
536.12	14273	
536.31	12525	
536.51	13381	
536.71	14412	
536.9	13967	
537.1	12446	
537.29	12702	
537.49	14733	
537.68	14168	
537.88	13054	
538.07	12474	
538.27	14284	
538.46	15001	
538.66	12337	
538.86	12684	
539.05	14357	
539.25	14647	
539.44	13150	
539.64	12622	
539.83	14300	
540.03	14989	
540.22	12553	
540.42	12549	
540.61	14305	
540.81	14415	
541	12629	
541.2	13280	
541.39	13870	
541.59	14096	
541.78	13014	
541.98	12314	
542.18	13734	
542.37	13568	
542.57	12510	
542.76	13001	
542.96	13592	
543.15	14033	
543.35	12493	
543.54	11885	
543.74	14048	
543.93	13858	
544.13	12159	
544.32	12891	
544.52	13945	
544.71	13371	
544.91	11692	
545.1	12437	
545.3	13559	
545.49	13890	
545.69	11645	
545.88	11953	
546.08	14661	
546.27	14079	
546.47	12330	
546.66	11749	
546.86	13906	
547.05	14299	
547.24	11925	
547.44	11768	
547.63	13218	
547.83	14043	
548.02	12083	
548.22	12235	
548.41	12958	
548.61	13852	
548.8	11680	
549	11749	
549.19	13568	
549.39	13747	
549.58	11392	
549.78	11918	
549.97	13750	
550.17	13283	
550.36	12345	
550.55	12992	
550.75	13250	
550.94	13925	
551.14	11475	
551.33	11617	
551.53	12590	
551.72	13447	
551.92	11591	
552.11	11479	
552.31	13402	
552.5	13330	
552.69	12737	
552.89	11073	
553.08	13337	
553.28	13097	
553.47	11526	
553.67	12289	
553.86	13663	
554.06	12505	
554.25	10782	
554.44	11223	
554.64	14203	
554.83	13871	
555.03	11298	
555.22	11428	
555.42	13411	
555.61	13252	
555.8	11236	
556	11456	
556.19	12480	
556.39	13361	
556.58	11306	
556.78	11313	
556.97	13124	
557.16	12889	
557.36	12137	
557.55	11073	
557.75	12284	
557.94	13679	
558.13	11123	
558.33	10957	
558.52	13482	
558.72	12470	
558.91	10974	
559.1	11014	
559.3	12334	
559.49	11995	
559.69	10704	
559.88	11280	
560.07	12846	
560.27	13215	
560.46	11383	
560.66	11462	
560.85	12770	
561.04	12005	
561.24	10843	
561.43	10914	
561.63	12303	
561.82	12424	
562.01	11781	
562.21	11052	
562.4	12710	
562.59	13350	
562.79	10957	
562.98	10764	
563.18	12704	
563.37	13865	
563.56	11409	
563.76	10863	
563.95	12384	
564.14	12291	
564.34	11169	
564.53	10961	
564.73	12819	
564.92	12914	
565.11	11202	
565.31	10866	
565.5	13313	
565.69	12528	
565.89	10977	
566.08	11359	
566.27	13080	
566.47	13614	
566.66	11818	
566.85	10800	
567.05	13022	
567.24	12564	
567.44	10946	
567.63	11917	
567.82	13170	
568.02	12986	
568.21	11160	
568.4	11280	
568.6	12891	
568.79	12790	
568.98	10846	
569.18	11134	
569.37	12824	
569.56	14280	
569.76	11384	
569.95	12097	
570.14	13296	
570.34	13073	
570.53	11119	
570.72	11077	
570.91	13528	
571.11	13003	
571.3	11473	
571.49	11974	
571.69	12897	
571.88	12614	
572.07	11835	
572.27	11790	
572.46	12611	
572.65	13340	
572.85	11211	
573.04	11591	
573.23	13614	
573.43	13022	
573.62	11186	
573.81	11475	
574	13123	
574.2	12969	
574.39	11560	
574.58	11641	
574.78	13915	
574.97	13295	
575.16	12031	
575.36	12122	
575.55	13829	
575.74	13788	
575.93	11383	
576.13	12235	
576.32	13340	
576.51	13788	
576.71	11857	
576.9	12838	
577.09	13965	
577.28	13547	
577.48	12033	
577.67	11400	
577.86	13327	
578.05	13644	
578.25	11856	
578.44	11918	
578.63	13426	
578.83	14310	
579.02	11410	
579.21	12671	
579.4	13547	
579.6	13502	
579.79	11942	
579.98	13684	
580.17	13864	
580.37	13953	
580.56	11662	
580.75	12222	
580.94	13992	
581.14	14133	
581.33	12536	
581.52	11804	
581.71	13780	
581.91	14373	
582.1	11607	
582.29	11959	
582.48	13596	
582.68	13564	
582.87	12250	
583.06	12046	
583.25	13792	
583.45	13670	
583.64	12649	
583.83	13026	
584.02	13467	
584.21	13865	
584.41	12604	
584.6	12166	
584.79	13609	
584.98	14130	
585.18	11727	
585.37	11716	
585.56	13445	
585.75	13933	
585.94	11772	
586.14	12325	
586.33	14157	
586.52	13538	
586.71	12175	
586.91	11906	
587.1	12940	
587.29	13677	
587.48	11683	
587.67	11707	
587.87	13493	
588.06	13452	
588.25	12565	
588.44	11991	
588.63	13132	
588.83	13566	
589.02	11546	
589.21	11345	
589.4	12962	
589.59	12810	
589.78	10611	
589.98	10699	
590.17	12327	
590.36	12512	
590.55	9962	
590.74	10443	
590.94	13124	
591.13	12095	
591.32	10326	
591.51	9884.2	
591.7	12351	
591.89	12134	
592.09	10114	
592.28	10495	
592.47	11502	
592.66	13167	
592.85	10322	
593.05	10446	
593.24	12182	
593.43	12809	
593.62	10533	
593.81	10776	
594	12247	
594.19	12407	
594.39	10413	
594.58	10333	
594.77	12409	
594.96	12759	
595.15	10297	
595.34	10834	
595.54	12315	
595.73	11567	
595.92	9761.3	
596.11	10509	
596.3	12628	
596.49	11551	
596.68	10333	
596.88	10630	
597.07	12511	
597.26	11521	
597.45	9798.8	
597.64	10832	
597.83	11814	
598.02	12121	
598.22	10041	
598.41	10573	
598.6	11949	
598.79	11473	
598.98	9993.4	
599.17	10697	
599.36	12075	
599.55	12854	
599.74	11413	
599.94	11201	
600.13	12268	
600.32	11462	
600.51	9748.3	
600.7	9953.1	
600.89	12712	
601.08	12813	
601.27	9701.2	
601.47	10398	
601.66	12131	
601.85	12592	
602.04	10288	
602.23	10329	
602.42	11409	
602.61	11871	
602.8	10010	
602.99	9964.1	
603.18	11644	
603.37	11820	
603.57	10348	
603.76	10635	
603.95	12342	
604.14	12018	
604.33	9999.5	
604.52	10184	
604.71	12045	
604.9	11584	
605.09	10675	
605.28	10510	
605.47	12309	
605.66	11817	
605.86	10373	
606.05	9965.4	
606.24	12270	
606.43	11099	
606.62	10216	
606.81	10674	
607	12148	
607.19	11622	
607.38	9741.5	
607.57	9812.5	
607.76	11310	
607.95	10945	
608.14	10253	
608.33	10460	
608.52	11304	
608.72	12106	
608.91	9525.8	
609.1	9514.2	
609.29	11411	
609.48	10969	
609.67	10180	
609.86	9473.2	
610.05	11031	
610.24	11374	
610.43	9354.4	
610.62	9162.6	
610.81	12163	
611	11887	
611.19	9515.5	
611.38	9967.5	
611.57	11547	
611.76	12310	
611.95	9354.4	
612.14	9190.6	
612.33	11267	
612.52	11044	
612.71	9757.2	
612.9	9162.6	
613.09	10793	
613.28	12512	
613.47	9524.4	
613.66	10188	
613.85	11428	
614.04	11047	
614.24	9492.3	
614.43	8831.5	
614.62	11464	
614.81	11367	
615	9865.1	
615.19	9960	
615.38	10949	
615.57	11252	
615.76	9826.2	
615.95	10563	
616.14	11552	
616.33	11299	
616.52	10076	
616.71	10178	
616.9	11443	
617.09	11438	
617.28	9564	
617.47	10441	
617.66	10917	
617.85	10920	
618.04	10228	
618.22	9847.3	
618.41	11288	
618.6	11983	
618.79	9936.1	
618.98	9755.2	
619.17	12195	
619.36	10890	
619.55	10047	
619.74	9872.6	
619.93	11661	
620.12	11258	
620.31	10432	
620.5	10580	
620.69	12150	
620.88	12517	
621.07	11125	
621.26	10484	
621.45	11994	
621.64	12020	
621.83	10495	
622.02	9982.5	
622.21	12142	
622.4	11927	
622.59	10957	
622.78	10834	
622.97	11546	
623.16	12365	
623.35	10543	
623.54	9895.1	
623.72	11883	
623.91	11927	
624.1	10725	
624.29	9895.8	
624.48	12726	
624.67	12103	
624.86	10728	
625.05	10043	
625.24	12753	
625.43	11668	
625.62	11825	
625.81	10229	
626	12246	
626.19	11886	
626.38	10811	
626.56	10294	
626.75	11702	
626.94	12293	
627.13	10675	
627.32	9891.7	
627.51	12280	
627.7	12953	
627.89	9876	
628.08	10824	
628.27	11540	
628.46	11645	
628.65	9990.7	
628.83	9699.2	
629.02	12105	
629.21	11651	
629.4	10382	
629.59	10473	
629.78	11545	
629.97	12158	
630.16	10530	
630.35	10108	
630.54	12564	
630.72	12367	
630.91	10310	
631.1	10429	
631.29	11900	
631.48	11969	
631.67	10671	
631.86	10132	
632.05	11712	
632.24	11665	
632.42	9861	
632.61	10361	
632.8	11663	
632.99	11430	
633.18	10499	
633.37	10618	
633.56	11852	
633.75	11863	
633.93	10313	
634.12	10119	
634.31	12437	
634.5	12122	
634.69	10178	
634.88	10358	
635.07	11709	
635.25	12045	
635.44	10735	
635.63	10923	
635.82	11622	
636.01	11183	
636.2	10585	
636.39	10261	
636.57	12343	
636.76	11966	
636.95	9861.7	
637.14	10833	
637.33	11827	
637.52	12495	
637.7	9808.4	
637.89	10533	
638.08	11629	
638.27	12552	
638.46	10546	
638.65	10772	
638.83	12473	
639.02	11334	
639.21	10219	
639.4	10589	
639.59	11549	
639.78	11361	
639.96	9738.1	
640.15	9729.2	
640.34	11444	
640.53	11525	
640.72	9435.7	
640.91	9704.6	
641.09	10981	
641.28	11918	
641.47	9637.7	
641.66	10256	
641.85	11332	
642.03	11481	
642.22	9940.8	
642.41	9666.4	
642.6	10927	
642.79	10546	
642.97	9409.7	
643.16	9955.9	
643.35	10935	
643.54	10774	
643.73	9293	
643.91	9880.1	
644.1	10541	
644.29	11238	
644.48	9377	
644.67	9342.2	
644.85	10619	
645.04	10894	
645.23	8989.9	
645.42	9194.7	
645.6	10492	
645.79	11244	
645.98	8959.2	
646.17	8266.3	
646.36	10059	
646.54	10341	
646.73	9400.2	
646.92	8569.4	
647.11	10058	
647.29	10814	
647.48	8582.4	
647.67	8360.5	
647.86	10998	
648.05	11060	
648.23	8711.4	
648.42	9598.8	
648.61	10548	
648.8	10355	
648.98	8425.3	
649.17	8711.4	
649.36	9977	
649.55	9602.2	
649.73	8457.4	
649.92	9090.9	
650.11	10045	
650.3	10203	
650.48	8468.4	
650.67	8462.9	
650.86	10346	
651.05	9514.9	
651.23	8536.6	
651.42	8417.8	
651.61	9822.7	
651.79	9822.1	
651.98	8619.9	
652.17	8226	
652.36	10093	
652.54	9436.4	
652.73	8329.8	
652.92	8161.2	
653.11	10172	
653.29	10248	
653.48	7724.3	
653.67	8464.9	
653.85	9978.4	
654.04	10604	
654.23	8535.9	
654.42	8089.5	
654.6	9383.1	
654.79	9873.3	
654.98	7629.4	
655.16	7954.3	
655.35	8984.4	
655.54	8787.2	
655.73	7538.6	
655.91	7366.5	
656.1	9590.6	
656.29	8712.7	
656.47	7257.3	
656.66	8376.9	
656.85	9012.4	
657.03	9132.6	
657.22	7746.1	
657.41	7809.6	
657.59	9212.4	
657.78	9144.9	
657.97	7613.7	
658.16	8136.6	
658.34	9794.8	
658.53	10103	
658.72	8781.7	
658.9	9075.2	
659.09	9493.7	
659.28	9446.6	
659.46	7938.6	
659.65	7886.7	
659.84	9289.6	
660.02	9710.8	
660.21	7950.2	
660.4	7804.1	
660.58	9951.1	
660.77	9465.7	
660.96	8308.6	
661.14	7598.6	
661.33	10414	
661.52	10215	
661.7	7465.5	
661.89	10048	
662.08	9166	
662.26	8773.5	
662.45	7629.4	
662.64	7712	
662.82	9747	
663.01	9051.3	
663.2	7858.1	
663.38	8185.7	
663.57	9486.9	
663.75	9452.1	
663.94	8047.2	
664.13	8800.1	
664.31	9243.2	
664.5	9624.8	
664.69	8206.2	
664.87	8559.8	
665.06	8953.7	
665.25	9451.4	
665.43	8738	
665.62	8682	
665.8	9659.6	
665.99	9155.8	
666.18	7861.5	
666.36	7978.9	
666.55	9610.4	
666.74	9594.7	
666.92	7702.4	
667.11	8749.6	
667.29	9228.1	
667.48	9546.3	
667.67	8516.1	
667.85	7795.9	
668.04	8992.6	
668.22	9075.2	
668.41	7904.5	
668.6	8194.6	
668.78	8919.6	
668.97	9105.3	
669.15	8077.9	
669.34	7413.6	
669.53	9043.8	
669.71	9233.6	
669.9	7477.1	
670.08	7977.5	
670.27	8968.1	
670.46	9342.8	
670.64	8130.4	
670.83	8272.4	
671.01	8783.7	
671.2	9251.4	
671.38	7537.9	
671.57	7458.7	
671.76	9741.5	
671.94	10162	
672.13	7408.9	
672.31	8191.2	
672.5	9509.4	
672.69	8915.5	
672.87	7568.6	
673.06	7798	
673.24	9374.2	
673.43	8940.7	
673.61	8040.3	
673.8	7634.1	
673.98	9376.3	
674.17	9559.9	
674.36	8189.1	
674.54	8020.5	
674.73	9195.4	
674.91	9395.4	
675.1	7825.3	
675.28	7516	
675.47	9032.2	
675.65	9465.7	
675.84	7748.8	
676.03	7892.9	
676.21	8943.5	
676.4	8460.2	
676.58	8267.6	
676.77	8131.8	
676.95	10015	
677.14	8780.3	
677.32	7482.6	
677.51	7486	
677.69	9368.8	
677.88	8707.3	
678.06	7447.8	
678.25	7474.4	
678.44	9024.7	
678.62	8757.1	
678.81	7224.6	
678.99	7947.5	
679.18	9653.4	
679.36	9235.7	
679.55	7581.6	
679.73	8021.2	
679.92	9243.2	
680.1	8845.9	
680.29	8467.7	
680.47	7583.6	
680.66	8888.2	
680.84	9421.3	
681.03	7073	
681.21	7966.6	
681.4	8744.1	
681.58	8753.7	
681.77	7496.9	
681.95	7364.5	
682.14	9440.5	
682.32	9699.2	
682.51	8140	
682.69	7144	
682.88	8638.3	
683.06	9082.1	
683.25	7882.6	
683.43	8114.7	
683.62	9011.1	
683.8	9222	
683.99	8181.6	
684.17	7688.1	
684.36	9736	
684.54	8785.8	
684.73	6999.3	
684.91	7036.8	
685.1	8901.2	
685.28	8269.7	
685.46	7240.3	
685.65	7191.1	
685.83	8687.5	
686.02	8170.7	
686.2	6698.9	
686.39	6794.5	
686.57	8110.6	
686.76	9236.3	
686.94	6890	
687.13	7036.1	
687.31	8735.3	
687.5	8379.6	
687.68	6629.3	
687.86	7392.5	
688.05	9682.1	
688.23	7980.9	
688.42	7536.5	
688.6	6958.3	
688.79	8340.7	
688.97	8367.3	
689.16	7384.3	
689.34	6494.8	
689.52	8906.6	
689.71	9126.4	
689.89	7634.1	
690.08	7092.8	
690.26	8804.9	
690.45	8449.9	
690.63	7719.5	
690.81	7318.1	
691	8561.9	
691.18	8452.6	
691.37	7370.6	
691.55	8841.8	
691.74	8363.2	
691.92	9800.9	
692.1	7210.9	
692.29	6789.7	
692.47	8420.6	
692.66	7925	
692.84	6926.2	
693.02	7256	
693.21	8114.1	
693.39	8445.1	
693.58	7373.4	
693.76	6939.9	
693.94	9303.9	
694.13	9166.7	
694.31	7113.3	
694.5	7862.2	
694.68	8350.3	
694.86	8804.9	
695.05	7483.3	
695.23	7487.4	
695.42	9069.8	
695.6	10576	
695.78	7918.1	
695.97	7241.6	
696.15	9085.5	
696.34	8555	
696.52	7049.8	
696.7	7586.4	
696.89	8819.2	
697.07	8373.5	
697.25	7623.9	
697.44	8531.8	
697.62	8766	
697.81	8929.8	
697.99	7199.3	
698.17	7615	
698.36	8220.5	
698.54	8699.1	
698.72	7494.9	
698.91	6780.8	
699.09	8331.8	
699.28	8307.2	
699.46	7226.6	
699.64	7063.4	
699.83	8277.9	
700.01	9035.6	
700.19	7780.2	
700.38	6506.4	
700.56	9002.9	
700.74	8384.4	
700.93	6853.2	
701.11	7449.8	
701.29	8748.2	
701.48	9581.1	
701.66	7015	
701.84	7122.8	
702.03	8600.8	
702.21	8979	
702.39	6739.2	
702.58	7297.6	
702.76	8800.8	
702.94	8912.1	
703.13	6798.6	
703.31	8514.1	
703.49	8243.1	
703.68	9145.5	
703.86	6839.5	
704.04	7676.5	
704.23	8587.1	
704.41	8843.1	
704.59	7047.1	
704.78	7699	
704.96	9786.6	
705.14	8807.6	
705.33	6834.1	
705.51	7376.1	
705.69	8413.1	
705.87	9026.1	
706.06	7551.5	
706.24	6823.8	
706.42	8680	
706.61	8886.8	
706.79	7630	
706.97	6748.1	
707.16	8208.3	
707.34	8708	
707.52	7431.4	
707.7	6992.4	
707.89	8301.1	
708.07	8121.6	
708.25	7481.2	
708.44	7631.4	
708.62	8224	
708.8	9028.8	
708.98	7699	
709.17	7011.6	
709.35	8535.3	
709.53	8454	
709.72	6673	
709.9	6785.6	
710.08	8674.5	
710.26	8685.4	
710.45	7818.5	
710.63	6965.1	
710.81	8357.8	
710.99	8340.7	
711.18	7366.5	
711.36	6892.8	
711.54	8196	
711.72	8759.8	
711.91	7025.9	
712.09	6536.4	
712.27	8351.6	
712.45	8650.6	
712.64	7068.2	
712.82	6329.6	
713	7772	
713.18	7907.2	
713.37	6334.4	
713.55	7247.1	
713.73	8477.2	
713.91	7356.3	
714.1	6469.5	
714.28	6075.6	
714.46	7943.4	
714.64	7245	
714.83	5488.6	
715.01	5885.9	
715.19	7201.3	
715.37	6522.1	
715.55	5558.2	
715.74	5850.4	
715.92	7680.6	
716.1	6199.9	
716.28	6483.9	
716.47	5801.2	
716.65	6695.5	
716.83	6724.2	
717.01	5619.6	
717.19	5608.7	
717.38	8219.2	
717.56	6483.9	
717.74	5866.7	
717.92	5188.2	
718.1	7358.4	
718.29	6761.7	
718.47	4932.9	
718.65	5414.8	
718.83	7490.1	
719.01	7424.6	
719.2	5053	
719.38	5892	
719.56	7305.8	
719.74	8451.3	
719.92	5716.6	
720.11	6352.1	
720.29	7273	
720.47	6643.6	
720.65	5240.8	
720.83	5808.7	
721.02	6748.7	
721.2	6580.8	
721.38	5664.7	
721.56	5052.3	
721.74	6146	
721.92	6229.2	
722.11	6073.6	
722.29	5734.3	
722.47	7232.1	
722.65	6506.4	
722.83	5102.9	
723.01	5720.7	
723.2	6605.4	
723.38	6866.2	
723.56	4661.9	
723.74	5580	
723.92	6268.8	
724.1	7055.3	
724.29	5072.8	
724.47	5828.5	
724.65	6318.7	
724.83	6116.6	
725.01	4909	
725.19	5529.5	
725.37	6206.7	
725.56	6219.7	
725.74	4848.2	
725.92	4977.9	
726.1	6158.2	
726.28	6410.8	
726.46	5199.1	
726.64	5014.1	
726.83	6434	
727.01	6500.9	
727.19	4753.3	
727.37	5362.9	
727.55	6533.7	
727.73	6850.5	
727.91	4756.7	
728.09	4607.9	
728.28	6914.6	
728.46	7034.1	
728.64	5468.1	
728.82	5378	
729	7570	
729.18	7116.7	
729.36	4782	
729.54	6487.3	
729.72	7860.8	
729.91	6664.1	
730.09	6240.2	
730.27	5350	
730.45	6582.2	
730.63	6980.2	
730.81	5808.7	
730.99	5139	
731.17	7494.9	
731.35	6409.5	
731.53	5541.8	
731.71	5268.1	
731.9	7217	
732.08	7233.4	
732.26	5496.7	
732.44	5103.5	
732.62	7283.9	
732.8	7000.6	
732.98	5670.1	
733.16	4973.8	
733.34	6940.6	
733.52	5843.5	
733.7	5322	
733.88	5496.7	
734.07	6728.3	
734.25	6581.5	
734.43	4924.7	
734.61	6035.4	
734.79	7707.9	
734.97	6501.6	
735.15	4997.7	
735.33	5285.8	
735.51	6760.3	
735.69	6437.4	
735.87	6004	
736.05	5359.5	
736.23	6522.8	
736.41	6335.1	
736.59	5244.8	
736.77	5304.2	
736.95	6919.4	
737.13	6416.3	
737.32	4888.5	
737.5	5107.6	
737.68	7331	
737.86	6374.6	
738.04	4794.3	
738.22	6157.6	
738.4	6224.5	
738.58	6495.5	
738.76	5165.7	
738.94	4481	
739.12	6252.4	
739.3	6208.8	
739.48	5646.9	
739.66	5450.3	
739.84	6452.5	
740.02	6361	
740.2	4571.7	
740.38	4739	
740.56	6700.3	
740.74	5827.8	
740.92	5236.7	
741.1	5180	
741.28	6261.3	
741.46	6090.7	
741.64	4810	
741.82	5195	
742	6305	
742.18	6154.8	
742.36	4961.5	
742.54	4745.1	
742.72	6716.7	
742.9	5658.5	
743.08	5273.5	
743.26	4329.4	
743.44	6739.2	
743.62	6630.6	
743.8	5358.2	
743.98	4589.5	
744.16	6442.2	
744.34	6124.1	
744.52	5157.5	
744.7	5209.3	
744.88	6470.9	
745.06	6180.1	
745.24	5120.6	
745.42	5289.9	
745.6	6532.3	
745.78	6358.3	
745.96	4326	
746.14	4517.1	
746.32	7036.1	
746.5	6435.4	
746.68	5012.7	
746.86	4521.2	
747.03	6730.3	
747.21	5535.7	
747.39	4918.5	
747.57	4462.5	
747.75	6135	
747.93	6410.1	
748.11	4475.5	
748.29	4452.3	
748.47	7324.9	
748.65	5844.9	
748.83	4990.2	
749.01	4775.2	
749.19	6270.9	
749.37	5570.5	
749.55	4754	
749.73	4685.8	
749.91	6056.5	
750.09	5757.5	
750.26	4769	
750.44	4291.9	
750.62	5984.8	
750.8	5945.3	
750.98	4272.1	
751.16	4476.2	
751.34	6161.7	
751.52	5558.9	
751.7	5082.4	
751.88	4211.3	
752.06	6393.8	
752.24	6177.4	
752.42	4162.8	
752.59	4394.3	
752.77	5956.9	
752.95	6835.4	
753.13	5008.6	
753.31	4464.6	
753.49	5706.3	
753.67	6000.5	
753.85	4713.1	
754.03	4337.6	
754.21	6223.8	
754.38	6421.1	
754.56	4408.6	
754.74	3706.1	
754.92	5544.5	
755.1	5901.6	
755.28	3694.5	
755.46	3652.9	
755.64	6487.3	
755.82	6604	
755.99	3790.8	
756.17	3767.6	
756.35	4599.1	
756.53	5685.8	
756.71	2897.9	
756.89	3622.9	
757.07	5373.2	
757.25	4670.1	
757.42	4009.9	
757.6	4589.5	
757.78	5479.7	
757.96	4724.7	
758.14	3831.1	
758.32	3458.3	
758.5	4394.9	
758.67	5038	
758.85	3652.2	
759.03	3762.8	
759.21	5197.7	
759.39	4696	
759.57	3332	
759.75	4151.2	
759.92	5685.2	
760.1	5240.1	
760.28	4464.6	
760.46	4668.7	
760.64	4980.7	
760.82	4835.9	
760.99	4388.8	
761.17	3784.6	
761.35	5673.6	
761.53	4807.9	
761.71	3895.9	
761.89	4375.8	
762.06	5539.8	
762.24	5152.7	
762.42	3944.4	
762.6	3788.1	
762.78	5155.4	
762.96	5615.5	
763.13	4278.9	
763.31	4020.8	
763.49	5741.8	
763.67	5145.2	
763.85	4626.4	
764.02	5046.9	
764.2	6008.1	
764.38	5265.3	
764.56	3938.2	
764.74	4573.8	
764.91	6087.9	
765.09	5186.8	
765.27	3771.7	
765.45	3485.6	
765.63	6083.1	
765.8	5908.4	
765.98	3367.5	
766.16	3492.5	
766.34	4856.4	
766.52	4643.4	
766.69	4300.7	
766.87	3420.8	
767.05	5193	
767.23	5699.5	
767.41	3678.2	
767.58	3882.9	
767.76	5580.7	
767.94	5623.7	
768.12	3721.8	
768.29	4319.2	
768.47	5149.3	
768.65	5696.1	
768.83	3414	
769	4255.7	
769.18	4853.7	
769.36	5335	
769.54	4274.1	
769.72	3412.6	
769.89	5659.9	
770.07	5578.7	
770.25	3678.2	
770.43	4657.1	
770.6	6233.3	
770.78	6395.8	
770.96	3826.3	
771.14	3717.7	
771.31	5442.1	
771.49	5023	
771.67	3197.6	
771.85	3351.2	
772.02	4418.2	
772.2	4976.6	
772.38	3934.1	
772.55	3564.8	
772.73	5212.8	
772.91	5034.6	
773.09	3784	
773.26	3831.1	
773.44	5190.9	
773.62	4902.8	
773.8	3437.9	
773.97	3218.7	
774.15	5220.3	
774.33	4973.2	
774.5	3334.1	
774.68	3559.4	
774.86	5371.1	
775.04	4864.6	
775.21	3413.3	
775.39	3347.7	
775.57	5182.7	
775.74	5358.2	
775.92	3220.1	
776.1	3147.7	
776.27	5118.6	
776.45	5950.7	
776.63	3339.6	
776.81	3040.6	
776.98	4857.1	
777.16	5645.6	
777.34	3482.9	
777.51	3663.1	
777.69	4857.1	
777.87	4601.8	
778.04	3599.6	
778.22	3921.9	
778.4	4644.1	
778.57	5049.6	
778.75	2964.8	
778.93	3149.1	
779.1	4573.8	
779.28	4360.1	
779.46	2931.3	
779.64	3315	
779.81	5263.3	
779.99	5883.1	
780.17	3895.2	
780.34	4000.4	
780.52	4893.3	
780.69	4975.9	
780.87	3581.9	
781.05	3261	
781.22	4914.4	
781.4	4898.1	
781.58	3326.6	
781.75	2752.5	
781.93	4982.7	
782.11	4427	
782.28	4075.5	
782.46	3367.5	
782.64	4342.4	
782.81	5084.4	
782.99	3458.3	
783.17	3371.6	
783.34	4926.7	
783.52	4406.5	
783.69	3515	
783.87	4145.1	
784.05	4493.9	
784.22	4444.1	
784.4	4063.9	
784.58	3583.9	
784.75	5216.9	
784.93	4506.2	
785.1	3293.1	
785.28	3758	
785.46	4960.9	
785.63	4416.1	
785.81	3343.7	
785.99	3158.7	
786.16	4632.5	
786.34	4858.5	
786.51	3177.8	
786.69	3534.8	
786.87	4229.1	
787.04	4607.2	
787.22	3173	
787.39	3838.6	
787.57	4493.9	
787.75	5246.2	
787.92	3994.2	
788.1	3903.4	
788.27	4431.8	
788.45	4247.5	
788.63	3704.8	
788.8	2714.2	
788.98	4902.8	
789.15	4199	
789.33	2844.6	
789.5	3312.2	
789.68	5122	
789.86	5191.6	
790.03	3594.9	
790.21	3240.6	
790.38	5236	
790.56	4573.8	
790.73	3091.1	
790.91	3126.6	
791.09	4445.5	
791.26	4984.1	
791.44	3337.5	
791.61	2892.4	
791.79	4472.8	
791.96	4446.8	
792.14	2987.3	
792.32	2685.6	
792.49	4390.8	
792.67	4524.6	
792.84	3054.9	
793.02	2836.4	
793.19	4810	
793.37	5319.3	
793.54	2667.8	
793.72	2910.8	
793.89	5343.2	
794.07	4403.1	
794.25	3259	
794.42	2733.4	
794.6	5292	
794.77	4910.3	
794.95	3528.7	
795.12	3107.5	
795.3	4471.4	
795.47	4868.7	
795.65	3463.1	
795.82	3343	
796	4289.8	
796.17	5681.1	
796.35	3255.6	
796.52	3796.3	
796.7	4820.9	
796.87	4874.2	
797.05	3242.6	
797.22	3786.7	
797.4	4917.2	
797.57	5635.3	
797.75	3303.4	
797.92	3126.6	
798.1	5162.2	
798.27	4331.5	
798.45	2768.2	
798.62	2936.8	
798.8	4685.1	
798.97	5005.9	
799.15	3444.7	
799.32	3351.2	
799.5	4201.7	
799.67	4703.5	
799.85	3560.7	
800.02	2699.9	
800.2	4454.3	
800.37	4607.2	
800.55	3649.5	
800.72	3136.8	
800.9	5038.7	
801.07	5255.8	
801.25	4057.7	
801.42	3442	
801.6	5059.2	
801.77	4691.9	
801.95	3218	
802.12	3087	
802.29	4862.6	
802.47	4722.6	
802.64	3442	
802.82	2654.2	
802.99	4407.2	
803.17	5130.8	
803.34	3347.7	
803.52	2985.9	
803.69	5564.3	
803.87	4192.2	
804.04	3338.2	
804.21	3377.8	
804.39	5274.2	
804.56	4513.7	
804.74	2876	
804.91	3465.2	
805.09	4429.1	
805.26	4433.9	
805.44	2942.2	
805.61	3142.9	
805.78	4944.5	
805.96	4917.2	
806.13	3429	
806.31	3652.2	
806.48	4045.4	
806.66	4493.2	
806.83	3411.9	
807	3335.5	
807.18	4476.2	
807.35	4675.5	
807.53	3303.4	
807.7	2732	
807.87	5309	
808.05	4379.2	
808.22	3566.2	
808.4	2736.1	
808.57	4399	
808.74	4127.3	
808.92	3082.2	
809.09	3854.3	
809.27	4431.1	
809.44	4770.4	
809.61	2737.5	
809.79	3016	
809.96	5385.5	
810.14	4931.5	
810.31	2676.7	
810.48	3196.9	
810.66	4487.8	
810.83	4957.4	
811.01	3089	
811.18	3380.5	
811.35	4965	
811.53	3988.8	
811.7	3674.1	
811.87	3422.2	
812.05	4442.7	
812.22	4379.2	
812.39	3001	
812.57	2867.2	
812.74	4485.7	
812.92	5693.4	
813.09	3237.2	
813.26	3424.2	
813.44	5471.5	
813.61	4353.3	
813.78	2703.3	
813.96	3558.7	
814.13	4478.9	
814.3	4278.2	
814.48	3801	
814.65	3194.1	
814.82	5264.6	
815	4233.2	
815.17	3273.3	
815.34	3907.5	
815.52	4395.6	
815.69	4393.6	
815.87	3220.1	
816.04	3217.4	
816.21	4437.3	
816.38	4007.2	
816.56	3194.8	
816.73	2937.5	
816.9	5476.3	
817.08	4922	
817.25	3007.8	
817.42	3665.9	
817.6	4122.6	
817.77	4399.7	
817.94	3330	
818.12	2952.5	
818.29	4256.4	
818.46	6113.2	
818.64	3106.1	
818.81	2881.5	
818.98	4194.2	
819.16	5773.9	
819.33	3544.4	
819.5	3304.1	
819.67	4697.4	
819.85	5137	
820.02	3215.3	
820.19	3398.9	
820.37	4549.2	
820.54	4314.4	
820.71	3308.2	
820.88	4000.4	
821.06	4562.2	
821.23	4261.8	
821.4	3342.3	
821.58	3261.7	
821.75	4898.1	
821.92	4566.3	
822.09	2753.2	
822.27	2805	
822.44	4459.1	
822.61	4328	
822.79	2757.2	
822.96	4959.5	
823.13	4746.5	
823.3	4164.2	
823.48	3104.7	
823.65	2835.8	
823.82	4958.8	
823.99	4100.7	
824.17	3888.4	
824.34	2897.9	
824.51	5606.7	
824.68	4456.4	
824.86	3011.2	
825.03	3286.3	
825.2	4401.1	
825.37	5170.4	
825.55	3002.3	
825.72	3323.9	
825.89	5579.3	
826.06	5228.5	
826.24	3189.4	
826.41	3175	
826.58	5255.8	
826.75	4671.4	
826.92	2654.2	
827.1	2864.4	
827.27	6887.3	
827.44	5512.4	
827.61	3077.4	
827.79	3571.7	
827.96	4272.1	
828.13	4407.2	
828.3	3211.9	
828.47	2734.7	
828.65	4670.1	
828.82	4646.8	
828.99	3936.9	
829.16	3534.8	
829.34	4938.3	
829.51	4815.5	
829.68	3284.3	
829.85	3310.2	
830.02	5247.6	
830.2	4980	
830.37	2605.7	
830.54	3864.5	
830.71	5515.2	
830.88	4435.9	
831.05	2629.6	
831.23	2983.9	
831.4	5360.9	
831.57	5760.9	
831.74	3047.4	
831.91	2723.1	
832.09	4757.4	
832.26	4937.7	
832.43	3134.8	
832.6	3498.6	
832.77	4712.4	
832.94	5242.8	
833.12	2520.4	
833.29	3059.7	
833.46	4388.1	
833.63	5981.4	
833.8	3435.1	
833.97	3125.9	
834.15	5032.5	
834.32	4805.9	
834.49	3260.4	
834.66	3326.6	
834.83	5097.4	
835	4297.3	
835.17	3026.9	
835.35	3059.7	
835.52	4905.6	
835.69	4795	
835.86	3162.7	
836.03	2684.9	
836.2	4983.4	
836.37	4640	
836.55	3106.1	
836.72	2967.5	
836.89	4647.5	
837.06	5009.3	
837.23	3175	
837.4	3436.5	
837.57	5541.8	
837.75	5976.7	
837.92	2866.5	
838.09	3105.4	
838.26	4621.6	
838.43	5136.3	
838.6	3218.7	
838.77	2925.9	
838.94	5728.2	
839.11	5528.8	
839.29	3168.9	
839.46	2549.7	
839.63	4973.2	
839.8	4725.3	
839.97	3046	
840.14	3012.6	
840.31	4796.3	
840.48	4929.5	
840.65	2650.8	
840.82	2945	
841	4913.8	
841.17	4863.2	
841.34	2790	
841.51	2925.9	
841.68	4891.2	
841.85	4676.2	
842.02	2955.9	
842.19	2497.2	
842.36	4786.8	
842.53	4717.2	
842.7	2839.8	
842.87	3373	
843.05	5979.4	
843.22	4620.2	
843.39	2690.3	
843.56	3017.3	
843.73	4569	
843.9	5030.5	
844.07	4391.5	
844.24	3674.7	
844.41	6721.4	
844.58	4367	
844.75	2755.9	
844.92	2962	
845.09	4911.7	
845.26	4916.5	
845.43	2772.9	
845.6	2979.8	
845.77	4950.6	
845.94	4724	
846.12	3132.7	
846.29	3221.5	
846.46	5119.9	
846.63	4879.6	
846.8	2788	
846.97	3319.8	
847.14	5222.3	
847.31	4882.4	
847.48	3135.4	
847.65	3376.4	
847.82	5099.4	
847.99	5085.8	
848.16	3674.1	
848.33	3338.9	
848.5	4569	
848.67	5243.5	
848.84	2727.9	
849.01	2874	
849.18	4509.6	
849.35	4241.3	
849.52	3444	
849.69	2729.3	
849.86	5109.7	
850.03	5193	
850.2	2782.5	
850.37	3305.4	
850.54	5116.5	
850.71	4689.8	
850.88	3306.1	
851.05	2753.8	
851.22	4756.7	
851.39	5323.4	
851.56	2656.9	
851.73	3149.8	
851.9	4371.7	
852.07	5083.1	
852.24	3011.9	
852.41	2828.9	
852.58	4883	
852.75	4447.5	
852.92	3097.2	
853.09	2704.7	
853.26	4589.5	
853.43	5221.6	
853.6	2816.6	
853.77	2453.5	
853.94	5242.8	
854.11	4333.5	
854.28	3986.7	
854.44	3000.3	
854.61	5571.8	
854.78	5122	
854.95	2771.6	
855.12	3454.9	
855.29	4071.4	
855.46	5360.2	
855.63	2773.6	
855.8	3780.6	
855.97	4510.3	
856.14	5145.9	
856.31	3833.8	
856.48	3045.3	
856.65	4604.5	
856.82	4339	
856.99	2694.4	
857.16	3007.1	
857.33	5782.1	
857.49	4678.2	
857.66	3014.6	
857.83	3208.5	
858	4646.2	
858.17	4763.6	
858.34	2673.3	
858.51	2794.8	
858.68	5356.8	
858.85	5367.7	
859.02	3185.3	
859.19	3358	
859.36	4339	
859.52	4342.4	
859.69	2827.6	
859.86	3260.4	
860.03	4438.6	
860.2	5325.4	
860.37	2584.5	
860.54	2843.3	
860.71	5036	
860.88	5388.2	
861.05	3079.5	
861.21	3489.7	
861.38	5276.9	
861.55	4215.4	
861.72	2582.5	
861.89	3164.8	
862.06	5096.7	
862.23	5354.8	
862.4	2751.8	
862.56	2947	
862.73	4969.7	
862.9	4721.9	
863.07	3274.7	
863.24	2527.9	
863.41	4326	
863.58	4403.8	
863.75	2867.8	
863.91	3175.7	
864.08	5271.5	
864.25	5012.7	
864.42	3454.2	
864.59	3845.4	
864.76	5589.6	
864.93	4383.3	
865.09	2723.8	
865.26	2989.4	
865.43	5295.4	
865.6	5470.1	
865.77	2495.1	
865.94	2792.1	
866.1	5208.7	
866.27	5024.3	
866.44	4035.2	
866.61	2662.4	
866.78	4618.2	
866.95	4981.3	
867.11	2691	
867.28	2524.5	
867.45	5126.1	
867.62	4369.7	
867.79	3248.1	
867.96	2792.7	
868.12	4347.2	
868.29	5025	
868.46	2795.5	
868.63	3642.7	
868.8	5146.5	
868.97	5020.9	
869.13	2926.5	
869.3	2914.3	
869.47	4855.1	
869.64	5141.8	
869.81	2794.1	
869.97	2821.4	
870.14	4838.7	
870.31	5335	
870.48	2755.9	
870.65	3445.4	
870.81	4669.4	
870.98	4690.5	
871.15	3126.6	
871.32	2950.4	
871.48	4937.7	
871.65	5460.6	
871.82	2751.1	
871.99	3061.7	
872.16	5696.1	
872.32	5240.8	
872.49	2846.7	
872.66	2813.9	
872.83	5066.7	
872.99	4455.7	
873.16	3152.5	
873.33	2766.1	
873.5	4777.9	
873.67	4812	
873.83	2992.8	
874	3629.7	
874.17	4926.7	
874.34	5530.2	
874.5	3515.7	
874.67	3385.3	
874.84	5239.4	
875.01	4252.3	
875.17	3845.4	
875.34	2789.3	
875.51	4861.2	
875.68	5763.7	
875.84	3306.8	
876.01	3938.2	
876.18	5021.6	
876.34	5012.7	
876.51	2837.1	
876.68	2757.2	
876.85	4616.1	
877.01	5271.5	
877.18	3868.6	
877.35	2782.5	
877.52	4863.2	
877.68	4313	
877.85	2723.1	
878.02	2760	
878.18	4639.3	
878.35	4536.9	
878.52	2318.3	
878.69	3088.3	
878.85	5074.9	
879.02	5005.2	
879.19	3905.5	
879.35	2953.2	
879.52	5041.4	
879.69	5072.1	
879.86	2487.6	
880.02	3152.5	
880.19	4713.7	
880.36	5550	
880.52	3181.2	
880.69	3282.2	
880.86	5085.1	
881.02	5098.8	
881.19	3040.6	
881.36	2923.8	
881.52	4926.7	
881.69	4508.9	
881.86	3008.5	
882.02	3041.2	
882.19	5159.5	
882.36	5964.4	
882.52	2824.8	
882.69	3790.8	
882.86	4840	
883.02	4806.6	
883.19	3327.9	
883.36	3130.7	
883.52	5069.4	
883.69	5672.9	
883.86	2850.8	
884.02	2570.2	
884.19	5033.2	
884.36	4767.7	
884.52	3173	
884.69	2983.9	
884.86	4578.6	
885.02	5439.4	
885.19	3092.4	
885.36	3179.1	
885.52	4693.3	
885.69	4881	
885.86	3926.6	
886.02	3447.4	
886.19	5049.6	
886.35	4592.9	
886.52	3028.9	
886.69	3760.1	
886.85	4397	
887.02	5293.3	
887.19	5293.3	
887.35	5293.3	
887.52	5293.3	
887.68	5293.3	
887.85	5293.3	
888.02	5293.3	
888.18	5293.3	
888.35	5293.3	
888.51	5293.3	
888.68	5293.3	
888.85	5293.3	
889.01	5293.3	
889.18	5293.3	
889.35	5293.3	
889.51	5293.3	
889.68	5293.3	
889.84	5293.3	
890.01	5293.3	
890.17	5293.3	
890.34	5293.3	
890.51	5293.3	
890.67	5293.3	
890.84	5293.3	
891	5293.3	
891.17	5293.3	
891.34	5293.3	
891.5	5293.3	
891.67	5293.3	
891.83	5293.3	
892	5293.3	
892.16	5293.3	
892.33	5293.3	
892.5	5293.3	
892.66	5293.3	
892.83	5293.3	
892.99	5293.3	
893.16	5293.3	
893.32	5293.3	
893.49	5293.3	
893.65	5293.3	
893.82	5293.3	
893.99	5293.3	
894.15	5293.3	
894.32	5293.3	
894.48	5293.3	
894.65	5293.3	
894.81	5293.3	
894.98	5293.3	
895.14	5293.3	
895.31	5293.3	
895.47	5293.3	
895.64	5293.3	
895.81	5293.3	
895.97	5293.3	
896.14	5293.3	
896.3	5293.3	
896.47	5293.3	
896.63	5293.3	
896.8	5293.3	
896.96	5293.3	
897.13	5293.3	
897.29	5293.3	
897.46	5293.3	
897.62	5293.3	
897.79	5293.3	
897.95	5293.3	
898.12	5293.3	
898.28	5293.3	
898.45	5293.3	
898.61	5293.3	
898.78	5293.3	
898.94	5293.3	
899.11	5293.3	
899.27	5293.3	
899.44	5293.3	
899.6	5293.3	
899.77	5293.3	
899.93	5293.3	
900.1	5293.3	
900.26	5293.3	
900.43	5293.3	
900.59	5293.3	
900.76	5293.3	
900.92	5293.3	
901.09	5293.3	
901.25	5293.3	
901.42	5293.3	
901.58	5293.3	
901.75	5293.3	
901.91	5293.3	
902.07	5293.3	
902.24	5293.3	
902.4	5293.3	
902.57	5293.3	
902.73	5293.3	
902.9	5293.3	
903.06	5293.3	
903.23	5293.3	
903.39	5293.3	
903.56	5293.3	
903.72	5293.3	
903.88	5293.3	
904.05	5293.3	
904.21	5293.3	
904.38	5293.3	
904.54	5293.3	
904.71	5293.3	
904.87	5293.3	
905.03	5293.3	
905.2	5293.3	
905.36	5293.3	
905.53	5293.3	
905.69	5293.3	
905.86	5293.3	
906.02	5293.3	
906.18	5293.3	
906.35	5293.3	
906.51	5293.3	
906.68	5293.3	
906.84	5293.3	
907.01	5293.3	
907.17	5293.3	
907.33	5293.3	
907.5	5293.3	
907.66	5293.3	
907.83	5293.3	
907.99	5293.3	
908.15	5293.3	
908.32	5293.3	
908.48	5293.3	
908.65	5293.3	
908.81	5293.3	
908.97	5293.3	
909.14	5293.3	
909.3	5293.3	
909.47	5293.3	
909.63	5293.3	
909.79	5293.3	
909.96	5293.3	
910.12	5293.3	
910.28	5293.3	
910.45	5293.3	
910.61	5293.3	
910.78	5293.3	
910.94	5293.3	
911.1	5293.3	
911.27	5293.3	
911.43	5293.3	
911.59	5293.3	
911.76	5293.3	
911.92	5293.3	
912.08	5293.3	
912.25	5293.3	
912.41	5293.3	
912.57	5293.3	
912.74	5293.3	
912.9	5293.3	
913.07	5293.3	
913.23	5293.3	
913.39	5293.3	
913.56	5293.3	
913.72	5293.3	
913.88	5293.3	
914.05	5293.3	
914.21	5293.3	
914.37	5293.3	
914.54	5293.3	
914.7	5293.3	
914.86	5293.3	
915.03	5293.3	
915.19	5293.3	
