Wavelength	Intensities	
nm	a.u.	
179.22	1919.6	
179.44	1904.6	
179.65	1934.6	
179.86	1874.6	
180.08	1901.9	
180.29	4989.5	
180.51	3510.2	
180.72	5642.2	
180.94	6678.4	
181.15	3265.1	
181.37	3210.5	
181.58	5537.7	
181.79	5819	
182.01	3401.7	
182.22	3678.8	
182.44	5835.3	
182.65	4807.9	
182.87	4660.5	
183.08	4075.5	
183.29	6086.6	
183.51	5029.8	
183.72	3674.7	
183.94	5457.8	
184.15	5446.9	
184.37	5466.7	
184.58	3244	
184.79	4470.7	
185.01	5053	
185.22	5862.7	
185.44	4760.2	
185.65	3948.5	
185.86	5340.4	
186.08	4939	
186.29	3210.5	
186.51	3422.8	
186.72	5076.2	
186.94	6033.3	
187.15	3918.4	
187.36	4024.9	
187.58	7851.2	
187.79	5511.8	
188.01	4280.3	
188.22	6698.2	
188.43	6665.5	
188.65	5819	
188.86	3437.9	
189.08	4112.3	
189.29	5245.5	
189.5	5268.7	
189.72	3748.5	
189.93	3859.1	
190.15	6028.5	
190.36	7200.7	
190.57	4173.1	
190.79	4052.9	
191	6113.2	
191.22	6087.2	
191.43	4158.7	
191.64	3359.4	
191.86	6279.8	
192.07	6048.3	
192.29	3537.5	
192.5	3798.3	
192.71	6026.5	
192.93	5143.8	
193.14	3747.1	
193.35	3834.5	
193.57	5233.9	
193.78	6034.7	
194	3005.1	
194.21	3687	
194.42	4960.2	
194.64	5436	
194.85	4094.6	
195.07	4796.3	
195.28	5511.8	
195.49	4749.2	
195.71	5027.1	
195.92	3508.9	
196.13	5698.8	
196.35	5779.4	
196.56	5371.1	
196.78	4118.5	
196.99	7138.5	
197.2	6677.7	
197.42	4680.3	
197.63	4137.6	
197.84	4867.3	
198.06	5624.4	
198.27	3779.9	
198.48	5070.8	
198.7	5170.4	
198.91	5352	
199.13	4157.4	
199.34	4099.4	
199.55	5917.9	
199.77	4757.4	
199.98	3595.6	
200.19	4213.4	
200.41	5311.7	
200.62	5081	
200.83	4260.5	
201.05	4599.7	
201.26	5341.1	
201.47	5096.7	
201.69	3706.1	
201.9	3500	
202.11	5422.3	
202.33	6560.3	
202.54	3866.6	
202.76	4306.2	
202.97	5591	
203.18	5582.1	
203.4	4263.9	
203.61	4232.5	
203.82	5537.7	
204.04	5100.1	
204.25	4229.1	
204.46	4100	
204.68	5471.5	
204.89	5692	
205.1	4033.1	
205.32	3467.9	
205.53	5826.5	
205.74	6021.7	
205.96	2945	
206.17	4285	
206.38	5836	
206.6	5952.8	
206.81	4740.4	
207.02	3842	
207.24	5670.8	
207.45	6055.2	
207.66	3878.9	
207.88	3353.9	
208.09	5636	
208.3	5455.8	
208.52	3611.9	
208.73	3925.3	
208.94	5479	
209.15	6246.3	
209.37	3945.8	
209.58	4082.3	
209.79	5999.9	
210.01	5287.2	
210.22	3182.5	
210.43	3267.9	
210.65	5480.4	
210.86	5905.7	
211.07	3910.9	
211.29	3556.6	
211.5	5816.9	
211.71	5371.1	
211.93	3533.4	
212.14	3566.2	
212.35	5354.1	
212.56	5651.7	
212.78	4130.8	
212.99	3375.1	
213.2	6427.9	
213.42	5197.7	
213.63	3705.5	
213.84	4010.6	
214.06	4835.9	
214.27	4908.3	
214.48	3902.7	
214.69	4137.6	
214.91	6139.1	
215.12	6282.5	
215.33	4249.5	
215.55	4701.5	
215.76	6758.3	
215.97	5847.6	
216.18	4047.5	
216.4	3935.5	
216.61	5120.6	
216.82	5968.5	
217.04	3609.2	
217.25	3756.7	
217.46	6117.3	
217.67	5864.7	
217.89	3229	
218.1	3340.2	
218.31	5557.5	
218.53	5646.2	
218.74	3772.4	
218.95	3681.6	
219.16	5357.5	
219.38	6433.4	
219.59	3695.2	
219.8	4415.4	
220.01	7125.6	
220.23	5520	
220.44	4857.1	
220.65	3541.6	
220.87	5485.8	
221.08	6118	
221.29	3343.7	
221.5	4498	
221.72	7508.5	
221.93	5154.1	
222.14	4194.2	
222.35	4874.2	
222.57	5492.7	
222.78	5834	
222.99	3988.8	
223.2	4222.2	
223.42	5786.9	
223.63	5930.2	
223.84	3006.4	
224.05	2990.7	
224.27	7073	
224.48	6520.7	
224.69	4970.4	
224.9	4158.1	
225.12	5698.1	
225.33	5423.7	
225.54	3269.9	
225.75	3650.8	
225.97	5005.2	
226.18	5333.6	
226.39	3987.4	
226.6	3681.6	
226.82	5208	
227.03	5039.4	
227.24	4163.5	
227.45	3410.6	
227.67	5890	
227.88	6424.5	
228.09	4614.1	
228.3	4683.7	
228.52	5900.9	
228.73	5426.4	
228.94	3835.8	
229.15	3335.5	
229.36	5364.3	
229.58	5285.8	
229.79	3890.5	
230	4541	
230.21	6504.3	
230.43	5526.1	
230.64	4074.1	
230.85	4300.7	
231.06	5883.1	
231.28	5909.8	
231.49	3407.8	
231.7	4010.6	
231.91	5797.1	
232.12	5515.9	
232.34	3508.2	
232.55	4029.7	
232.76	6137.8	
232.97	5636	
233.18	3569.6	
233.4	4087.7	
233.61	5694	
233.82	5322	
234.03	3816	
234.25	3735.5	
234.46	7671	
234.67	5534.3	
234.88	4216.8	
235.09	3659.7	
235.31	5814.9	
235.52	5353.4	
235.73	4115.1	
235.94	3485	
236.15	5137.7	
236.37	6636.8	
236.58	3614	
236.79	3984.7	
237	5851	
237.21	4985.4	
237.43	4198.3	
237.64	3284.3	
237.85	9983.2	
238.06	5026.4	
238.27	4303.5	
238.48	3442	
238.7	5837.4	
238.91	5280.3	
239.12	3908.2	
239.33	4020.2	
239.54	5082.4	
239.76	5413.5	
239.97	3907.5	
240.18	3913	
240.39	6961.7	
240.6	5769.1	
240.82	4067.3	
241.03	3307.5	
241.24	5511.1	
241.45	6300.2	
241.66	3586.7	
241.87	4209.9	
242.09	6242.2	
242.3	6604.7	
242.51	4336.9	
242.72	3984	
242.93	5939.1	
243.14	5397.1	
243.36	4595.6	
243.57	4962.2	
243.78	6354.2	
243.99	5842.9	
244.2	3908.9	
244.41	3607.8	
244.63	4965	
244.84	5789.6	
245.05	4240.7	
245.26	3939.6	
245.47	5742.5	
245.68	6007.4	
245.9	5304.9	
246.11	4086.4	
246.32	5301.5	
246.53	5700.2	
246.74	6436.8	
246.95	3280.2	
247.16	4930.8	
247.38	5453.7	
247.59	3281.5	
247.8	3941.7	
248.01	5154.7	
248.22	5382.7	
248.43	3574.4	
248.64	3808.5	
248.86	4820.9	
249.07	5244.2	
249.28	3482.9	
249.49	4029.7	
249.7	6044.9	
249.91	6175.3	
250.12	3306.1	
250.34	3327.3	
250.55	5621.7	
250.76	5518.6	
250.97	4095.9	
251.18	4179.2	
251.39	6232	
251.6	5642.8	
251.81	4235.9	
252.03	4207.9	
252.24	5174.5	
252.45	6058.6	
252.66	3460.4	
252.87	4411.3	
253.08	5511.8	
253.29	7212.9	
253.5	3497.2	
253.72	4801.8	
253.93	5317.9	
254.14	6477	
254.35	3756.7	
254.56	3904.1	
254.77	5698.8	
254.98	5063.9	
255.19	3689.1	
255.41	4795.7	
255.62	5573.2	
255.83	6158.2	
256.04	4222.2	
256.25	4149.2	
256.46	6582.9	
256.67	5121.3	
256.88	4064.5	
257.09	4611.3	
257.31	5134.3	
257.52	5122.7	
257.73	5184.8	
257.94	3738.9	
258.15	5365	
258.36	5449.6	
258.57	4768.4	
258.78	2975.7	
258.99	5995.1	
259.2	5316.5	
259.41	3779.2	
259.63	3933.5	
259.84	6264.7	
260.05	6815.6	
260.26	5042.1	
260.47	3652.2	
260.68	6092	
260.89	5398.4	
261.1	4540.3	
261.31	3622.2	
261.52	6027.9	
261.73	6420.4	
261.95	4852.3	
262.16	4289.8	
262.37	6242.9	
262.58	6301.6	
262.79	4793.6	
263	3829.7	
263.21	5485.8	
263.42	4983.4	
263.63	3874.8	
263.84	3812.6	
264.05	6004	
264.26	6470.9	
264.47	4732.2	
264.69	4119.1	
264.9	6232.7	
265.11	5727.5	
265.32	3624.9	
265.53	3741.6	
265.74	5591.6	
265.95	4857.1	
266.16	3979.2	
266.37	4516.5	
266.58	5588.2	
266.79	5324	
267	3688.4	
267.21	3491.1	
267.42	5022.3	
267.63	5438.7	
267.84	3900.7	
268.06	3362.8	
268.27	5926.8	
268.48	6193.7	
268.69	3846.1	
268.9	4609.3	
269.11	6197.8	
269.32	4960.9	
269.53	3934.8	
269.74	3650.2	
269.95	5826.5	
270.16	4822.3	
270.37	3975.1	
270.58	4633.2	
270.79	5298.1	
271	6042.9	
271.21	4273.4	
271.42	3994.2	
271.63	5574.6	
271.84	5131.5	
272.05	3162.7	
272.26	3556	
272.47	5507.7	
272.68	5592.3	
272.89	3812	
273.11	4423.6	
273.32	5256.5	
273.53	6424.5	
273.74	4254.3	
273.95	4140.3	
274.16	6176.7	
274.37	5568.4	
274.58	4311.7	
274.79	3409.2	
275	5609.4	
275.21	6227.9	
275.42	5229.1	
275.63	4462.5	
275.84	5719.3	
276.05	7223.9	
276.26	4154	
276.47	3945.1	
276.68	5274.9	
276.89	6516	
277.1	4474.1	
277.31	3444	
277.52	5772.5	
277.73	5890	
277.94	3446	
278.15	3842	
278.36	5649.7	
278.57	5106.3	
278.78	3876.1	
278.99	4320.5	
279.2	5075.5	
279.41	5065.3	
279.62	5057.1	
279.83	3512.3	
280.04	6698.2	
280.25	4956.1	
280.46	4976.6	
280.67	3956	
280.88	5108.3	
281.09	6167.1	
281.3	4166.9	
281.51	5335.6	
281.72	5209.3	
281.93	6038.8	
282.14	3685.7	
282.35	3997	
282.56	5993	
282.77	5993	
282.98	3852.9	
283.19	4755.4	
283.4	7413	
283.61	5416.9	
283.82	3455.6	
284.03	4922.6	
284.24	5618.3	
284.45	6153.5	
284.66	4943.1	
284.87	4715.1	
285.08	6034	
285.29	6223.8	
285.5	3417.4	
285.71	3911.6	
285.92	6176	
286.12	6783.6	
286.33	4878.3	
286.54	3883.6	
286.75	6020.3	
286.96	5362.3	
287.17	3545	
287.38	4798.4	
287.59	5132.2	
287.8	5017.5	
288.01	3882.3	
288.22	4488.5	
288.43	6105.7	
288.64	5035.3	
288.85	4613.4	
289.06	4388.8	
289.27	5972.6	
289.48	6456.6	
289.69	4922.6	
289.9	4453.6	
290.11	6126.8	
290.32	5172.5	
290.53	4734.2	
290.74	4352.6	
290.94	5930.9	
291.15	5996.5	
291.36	3730.7	
291.57	4396.3	
291.78	5274.9	
291.99	4868	
292.2	3550.5	
292.41	4350.6	
292.62	6090.7	
292.83	5853.1	
293.04	5270.8	
293.25	3611.3	
293.46	5287.9	
293.67	6040.1	
293.88	3704.1	
294.09	3581.2	
294.29	5044.8	
294.5	5672.9	
294.71	3940.3	
294.92	3831.7	
295.13	5266	
295.34	6632	
295.55	3350.5	
295.76	3461.1	
295.97	5920.7	
296.18	6689.3	
296.39	3553.2	
296.6	3723.9	
296.81	5528.2	
297.01	5870.2	
297.22	3861.1	
297.43	3730.7	
297.64	5141.8	
297.85	5051	
298.06	3054.9	
298.27	3341.6	
298.48	5560.9	
298.69	5188.2	
298.9	4013.3	
299.11	3634.5	
299.31	4997.7	
299.52	5013.4	
299.73	4311	
299.94	4147.8	
300.15	5472.9	
300.36	5100.1	
300.57	4237.2	
300.78	4202.4	
300.99	5322	
301.2	5625.1	
301.4	3683.6	
301.61	4001.7	
301.82	5800.5	
302.03	5935	
302.24	4506.2	
302.45	3510.9	
302.66	5791	
302.87	6297.5	
303.08	3678.2	
303.29	5140.4	
303.49	5254.4	
303.7	5511.1	
303.91	3300	
304.12	4825	
304.33	4995.7	
304.54	5573.9	
304.75	3752.6	
304.96	3545.7	
305.16	5809.4	
305.37	6548	
305.58	3216.7	
305.79	3338.9	
306	5864.7	
306.21	4878.3	
306.42	3827.7	
306.63	5756.8	
306.83	5398.4	
307.04	6107	
307.25	4106.9	
307.46	4090.5	
307.67	4726	
307.88	5999.2	
308.09	3646.1	
308.29	3836.5	
308.5	5539.1	
308.71	6096.1	
308.92	3954.6	
309.13	3539.6	
309.34	5421.7	
309.55	5437.4	
309.75	4673.5	
309.96	4252.3	
310.17	5944.6	
310.38	5158.8	
310.59	4524.6	
310.8	3509.5	
311.01	5859.9	
311.21	5365	
311.42	3488.4	
311.63	3674.7	
311.84	5246.9	
312.05	5634	
312.26	4129.4	
312.46	4546.5	
312.67	5356.1	
312.88	5005.2	
313.09	3598.3	
313.3	3540.3	
313.51	6275.7	
313.71	6755.6	
313.92	3562.8	
314.13	3778.5	
314.34	5636	
314.55	5384.1	
314.76	4642.1	
314.96	4029	
315.17	5577.3	
315.38	5934.3	
315.59	3587.4	
315.8	3477.5	
316.01	6410.1	
316.21	6415.6	
316.42	3432.4	
316.63	3966.2	
316.84	5328.1	
317.05	6227.9	
317.26	4228.4	
317.46	3833.8	
317.67	5429.2	
317.88	5898.1	
318.09	4592.9	
318.3	3362.1	
318.5	5166.3	
318.71	5835.3	
318.92	5824.4	
319.13	4174.4	
319.34	5989.6	
319.54	6130.9	
319.75	3309.5	
319.96	3166.8	
320.17	5892.7	
320.38	6083.1	
320.58	3322.5	
320.79	3915	
321	6036.7	
321.21	6255.9	
321.42	3986.7	
321.62	3293.1	
321.83	5063.3	
322.04	5488.6	
322.25	3825.6	
322.46	3573	
322.66	5556.1	
322.87	5763.7	
323.08	4457.7	
323.29	3532.7	
323.5	6570.6	
323.7	5012.7	
323.91	4922	
324.12	4396.3	
324.33	5627.1	
324.53	5803.3	
324.74	4274.1	
324.95	4450.2	
325.16	4878.3	
325.37	5280.3	
325.57	3609.2	
325.78	3610.6	
325.99	5591	
326.2	4993.6	
326.4	5124	
326.61	3317	
326.82	5404.6	
327.03	5581.4	
327.24	5158.8	
327.44	4879.6	
327.65	5788.2	
327.86	4640	
328.07	4262.5	
328.27	3439.9	
328.48	6177.4	
328.69	5092.6	
328.9	5208	
329.1	3865.2	
329.31	5344.5	
329.52	6287.9	
329.73	3564.8	
329.93	4098.7	
330.14	5482.4	
330.35	5808	
330.56	5937.7	
330.76	4468.7	
330.97	5300.8	
331.18	5693.4	
331.39	4013.3	
331.59	3228.3	
331.8	6116.6	
332.01	6254.5	
332.22	3703.4	
332.42	4308.2	
332.63	5590.3	
332.84	5147.9	
333.05	4049.5	
333.25	3713	
333.46	5235.3	
333.67	5470.1	
333.88	3751.9	
334.08	4148.5	
334.29	9133.9	
334.5	6150.1	
334.7	3487	
334.91	5165.7	
335.12	5036.6	
335.33	5943.2	
335.53	4004.5	
335.74	5993.7	
335.95	5273.5	
336.16	5137.7	
336.36	4017.4	
336.57	4586.8	
336.78	4980	
336.98	6185.5	
337.19	4898.1	
337.4	3925.3	
337.61	6694.8	
337.81	5038.7	
338.02	3593.5	
338.23	4807.3	
338.43	6333.7	
338.64	5174.5	
338.85	3640.6	
339.05	4831.2	
339.26	6396.5	
339.47	4893.3	
339.68	3587.4	
339.88	5382.7	
340.09	5721.3	
340.3	6015.6	
340.5	4259.8	
340.71	3226.9	
340.92	5050.3	
341.13	6258.6	
341.33	3506.8	
341.54	4258.4	
341.75	5737.7	
341.95	5369.1	
342.16	4064.5	
342.37	4391.5	
342.57	5068.7	
342.78	5446.9	
342.99	4548.5	
343.19	3257.6	
343.4	5886.5	
343.61	5780.7	
343.81	3873.4	
344.02	3556.6	
344.23	5956.2	
344.43	6345.3	
344.64	4444.1	
344.85	4357.4	
345.06	5776	
345.26	6126.2	
345.47	4154	
345.68	4959.5	
345.88	4877.6	
346.09	5991.7	
346.3	4292.5	
346.5	3212.6	
346.71	5519.3	
346.92	5180	
347.12	3304.1	
347.33	4179.9	
347.54	5993.7	
347.74	6534.4	
347.95	4192.9	
348.16	3103.4	
348.36	5337.7	
348.57	5033.9	
348.78	4070	
348.98	4445.5	
349.19	5410.1	
349.39	4982	
349.6	3280.8	
349.81	3702	
350.01	5739.1	
350.22	5194.3	
350.43	3962.8	
350.63	4792.2	
350.84	5551.4	
351.05	5286.5	
351.25	3624.9	
351.46	3345	
351.67	6081.1	
351.87	5205.3	
352.08	3866.6	
352.29	4476.9	
352.49	6008.1	
352.7	5691.3	
352.9	3533.4	
353.11	4366.3	
353.32	6645.7	
353.52	5313.8	
353.73	3497.2	
353.94	4444.1	
354.14	5803.9	
354.35	5641.5	
354.55	3593.5	
354.76	4005.1	
354.97	5786.9	
355.17	5552.7	
355.38	3359.4	
355.59	4777.2	
355.79	5215.5	
356	5582.8	
356.2	3988.1	
356.41	3518.4	
356.62	4910.3	
356.82	5423.7	
357.03	4302.1	
357.24	3860.4	
357.44	5205.3	
357.65	5369.8	
357.85	5167.7	
358.06	4065.9	
358.27	4945.2	
358.47	5156.1	
358.68	3360.7	
358.88	4265.2	
359.09	5773.9	
359.3	6150.7	
359.5	4980	
359.71	4414.7	
359.91	6702.3	
360.12	5951.4	
360.33	4290.5	
360.53	4743.8	
360.74	5199.8	
360.94	5286.5	
361.15	4538.3	
361.36	3654.3	
361.56	6040.1	
361.77	5440.1	
361.97	4991.6	
362.18	3931.4	
362.38	6038.1	
362.59	5098.1	
362.8	3611.9	
363	3445.4	
363.21	4857.8	
363.41	5509	
363.62	4167.6	
363.83	5189.6	
364.03	5651	
364.24	6708.5	
364.44	5379.3	
364.65	5348.6	
364.85	5406.6	
365.06	5332.9	
365.27	3823.6	
365.47	3784	
365.68	6424.5	
365.88	5396.4	
366.09	4219.5	
366.29	3946.4	
366.5	5735	
366.71	6084.5	
366.91	5276.9	
367.12	4393.6	
367.32	6677.1	
367.53	5988.9	
367.73	4367	
367.94	5405.3	
368.14	5932.3	
368.35	6870.9	
368.56	4291.9	
368.76	3651.5	
368.97	5991	
369.17	7774.1	
369.38	3864.5	
369.58	4126.7	
369.79	5035.3	
369.99	6421.7	
370.2	5205.3	
370.4	4197.7	
370.61	5778	
370.82	6980.2	
371.02	4117.1	
371.23	3477.5	
371.43	5034.6	
371.64	6373.3	
371.84	4132.8	
372.05	5331.5	
372.25	7709.2	
372.46	6098.2	
372.66	4117.1	
372.87	4135.5	
373.07	6129.6	
373.28	7834.8	
373.48	5198.4	
373.69	5003.2	
373.9	5598.5	
374.1	5598.5	
374.31	5164.3	
374.51	4733.5	
374.72	6507.8	
374.92	5302.2	
375.13	5299.5	
375.33	4534.9	
375.54	6086.6	
375.74	5461.9	
375.95	4603.2	
376.15	5812.1	
376.36	6048.3	
376.56	5842.2	
376.77	4713.1	
376.97	5149.3	
377.18	7129	
377.38	6202.6	
377.59	5499.5	
377.79	4190.8	
378	5966.4	
378.2	6431.3	
378.41	4264.6	
378.61	4096.6	
378.82	6503.7	
379.02	5547.9	
379.23	4394.3	
379.43	5603.9	
379.64	6530.3	
379.84	6210.8	
380.05	4234.5	
380.25	4139.6	
380.46	6320.7	
380.66	5821	
380.87	5597.8	
381.07	5970.5	
381.28	6886	
381.48	6292.7	
381.69	4221.5	
381.89	4371	
382.1	5205.3	
382.3	6485.9	
382.51	5367.7	
382.71	6344.6	
382.91	6292	
383.12	6772.6	
383.32	4631.8	
383.53	4870.1	
383.73	6031.3	
383.94	5879	
384.14	4775.2	
384.35	3862.5	
384.55	5907	
384.76	6334.4	
384.96	4631.8	
385.17	4897.4	
385.37	6323.4	
385.58	5527.5	
385.78	5032.5	
385.98	3788.7	
386.19	5735	
386.39	6231.3	
386.6	4431.1	
386.8	4693.9	
387.01	6291.4	
387.21	6382.2	
387.42	5100.8	
387.62	5741.8	
387.83	5603.2	
388.03	6313.9	
388.23	4784.7	
388.44	5570.5	
388.64	5322.7	
388.85	5431.2	
389.05	5104.2	
389.26	5769.1	
389.46	7333.1	
389.67	6833.4	
389.87	5107	
390.07	5258.5	
390.28	5941.2	
390.48	5591.6	
390.69	4340.3	
390.89	4754.7	
391.1	5791.7	
391.3	6724.2	
391.5	5914.5	
391.71	6496.2	
391.91	6420.4	
392.12	7524.9	
392.32	5980.1	
392.53	5125.4	
392.73	5838.1	
392.93	6005.3	
393.14	4787.5	
393.34	5593	
393.55	6486.6	
393.75	5992.4	
393.95	4816.8	
394.16	4784.1	
394.36	5774.6	
394.57	6472.9	
394.77	4246.8	
394.98	4741.7	
395.18	5747.3	
395.38	6088.6	
395.59	5670.1	
395.79	4594.3	
396	5963.7	
396.2	6427.9	
396.4	5457.8	
396.61	5504.3	
396.81	6711.2	
397.02	5943.9	
397.22	5746.6	
397.42	5882.4	
397.63	6713.2	
397.83	5883.8	
398.04	4613.4	
398.24	5219.6	
398.44	6389	
398.65	5584.1	
398.85	4437.3	
399.05	4646.2	
399.26	5918.6	
399.46	7733.8	
399.67	5050.3	
399.87	4749.9	
400.07	6323.4	
400.28	6678.4	
400.48	4888.5	
400.69	6095.4	
400.89	7006.1	
401.09	7365.2	
401.3	4874.2	
401.5	6021	
401.7	7643	
401.91	7896.3	
402.11	5152	
402.32	5287.2	
402.52	6924.9	
402.72	6787.7	
402.93	5532.2	
403.13	4309.6	
403.33	7610.3	
403.54	6282.5	
403.74	5165.7	
403.94	6168.5	
404.15	6429.9	
404.35	7642.3	
404.56	5025.7	
404.76	7004.1	
404.96	6858	
405.17	6710.5	
405.37	6695.5	
405.57	5618.3	
405.78	6986.3	
405.98	6366.5	
406.18	4984.8	
406.39	6008.1	
406.59	6896.9	
406.79	6635.4	
407	4883.7	
407.2	5149.3	
407.4	7032	
407.61	7348.1	
407.81	5018.9	
408.01	7210.2	
408.22	6065.4	
408.42	8324.3	
408.62	6363.7	
408.83	5808	
409.03	6806.8	
409.23	6687.3	
409.44	5953.4	
409.64	6248.4	
409.84	7940.7	
410.05	7783.6	
410.25	6171.9	
410.45	5854.5	
410.66	7342.7	
410.86	9884.2	
411.06	6569.9	
411.27	6306.4	
411.47	9707.4	
411.67	7545.4	
411.88	6627.9	
412.08	6898.9	
412.28	8263.6	
412.49	8827.4	
412.69	6421.7	
412.89	6483.2	
413.09	8633.6	
413.3	8453.3	
413.5	6584.2	
413.7	6171.9	
413.91	7750.2	
414.11	8689.5	
414.31	6492.7	
414.52	6919.4	
414.72	8409	
414.92	8260.1	
415.12	6500.9	
415.33	7059.3	
415.53	8747.6	
415.73	8969.4	
415.94	7427.3	
416.14	6918	
416.34	7712.7	
416.55	7527	
416.75	8204.8	
416.95	7522.9	
417.15	8933.2	
417.36	9510.8	
417.56	8484.1	
417.76	7473.7	
417.97	9262.3	
418.17	8939.4	
418.37	6987	
418.57	7054.6	
418.78	8680	
418.98	8194.6	
419.18	7987.1	
419.38	7877.2	
419.59	8469	
419.79	7920.9	
419.99	6873	
420.2	7406.8	
420.4	8953	
420.6	9084.1	
420.8	6907.1	
421.01	6718.7	
421.21	8818.6	
421.41	8993.3	
421.61	7277.1	
421.82	6991.8	
422.02	8308.6	
422.22	9205.6	
422.42	7771.4	
422.63	7363.8	
422.83	8470.4	
423.03	9635.7	
423.23	7447.8	
423.44	6445.6	
423.64	8485.4	
423.84	8190.5	
424.04	6904.4	
424.25	6562.4	
424.45	9407	
424.65	9310.7	
424.85	6293.4	
425.06	6950.8	
425.26	9266.4	
425.46	8236.9	
425.66	7353.6	
425.87	7010.2	
426.07	9021.3	
426.27	8974.2	
426.47	7215.7	
426.67	6525.5	
426.88	9321	
427.08	8806.3	
427.28	7524.2	
427.48	6446.3	
427.69	7696.3	
427.89	8459.5	
428.09	7565.9	
428.29	6512.5	
428.5	9157.2	
428.7	8633.6	
428.9	6512.5	
429.1	7166.5	
429.3	8590.5	
429.51	9103.9	
429.71	6784.2	
429.91	7748.1	
430.11	8967.4	
430.31	9293	
430.52	7148.8	
430.72	7548.1	
430.92	9527.8	
431.12	8994.7	
431.32	6961.7	
431.53	7383.6	
431.73	7945.4	
431.93	9674.6	
432.13	6784.2	
432.33	6758.3	
432.54	8412.4	
432.74	8834.3	
432.94	6713.2	
433.14	7794.6	
433.34	8979	
433.55	8600.1	
433.75	7766.6	
433.95	9727.2	
434.15	8896.4	
434.35	8604.2	
434.56	6971.3	
434.76	6574	
434.96	8921.6	
435.16	9287.5	
435.36	6855.9	
435.56	8150.2	
435.77	8602.8	
435.97	8789.2	
436.17	8871.8	
436.37	8159.8	
436.57	8596.7	
436.78	8587.8	
436.98	9058.2	
437.18	8658.1	
437.38	9452.7	
437.58	8753	
437.78	8786.5	
437.99	7273.7	
438.19	9138.7	
438.39	10731	
438.59	7217.7	
438.79	6795.8	
438.99	10029	
439.2	8887.5	
439.4	7146	
439.6	7024.5	
439.8	9368.1	
440	10530	
440.2	8282	
440.4	8303.8	
440.61	9837.1	
440.81	10484	
441.01	7477.1	
441.21	8476.5	
441.41	10391	
441.61	9846.6	
441.81	8832.2	
442.02	9852.8	
442.22	10898	
442.42	10026	
442.62	7622.5	
442.82	7531.1	
443.02	10387	
443.22	9508	
443.43	8202.8	
443.63	7764.5	
443.83	9287.5	
444.03	9473.9	
444.23	9089.6	
444.43	8512	
444.63	9777	
444.83	11020	
445.04	7891.5	
445.24	9199.5	
445.44	9940.2	
445.64	10180	
445.84	8528.4	
446.04	8540.7	
446.24	9314.8	
446.44	10450	
446.65	7678.5	
446.85	8157.1	
447.05	9302.6	
447.25	10216	
447.45	8240.3	
447.65	7594.6	
447.85	9696.4	
448.05	9187.9	
448.25	8824.7	
448.46	8599.4	
448.66	9772.2	
448.86	9398.8	
449.06	7583.6	
449.26	8776.9	
449.46	10279	
449.66	9102.5	
449.86	8347.5	
450.06	8211.7	
450.26	9363.3	
450.47	9965.4	
450.67	8527.7	
450.87	8963.3	
451.07	10074	
451.27	10029	
451.47	7666.9	
451.67	8544.8	
451.87	9628.2	
452.07	10703	
452.27	8131.8	
452.47	8057.4	
452.67	9763.3	
452.88	10505	
453.08	7391.8	
453.28	9562.6	
453.48	11230	
453.68	9777.7	
453.88	8204.2	
454.08	8426.7	
454.28	10414	
454.48	10036	
454.68	9035	
454.88	9577.7	
455.08	10535	
455.28	10471	
455.48	7987.8	
455.68	8894.3	
455.89	11107	
456.09	10824	
456.29	8628.1	
456.49	8747.6	
456.69	11068	
456.89	10302	
457.09	9314.8	
457.29	9839.1	
457.49	10750	
457.69	11013	
457.89	9249.3	
458.09	8563.9	
458.29	10589	
458.49	11417	
458.69	9701.9	
458.89	9121.7	
459.09	11660	
459.29	11752	
459.49	9120.3	
459.69	10063	
459.9	11056	
460.1	10868	
460.3	9030.9	
460.5	8981	
460.7	11211	
460.9	10972	
461.1	8748.9	
461.3	10112	
461.5	12052	
461.7	11680	
461.9	9439.8	
462.1	9762.7	
462.3	11372	
462.5	11977	
462.7	9502.6	
462.9	9700.5	
463.1	13130	
463.3	12925	
463.5	9786.6	
463.7	11120	
463.9	11596	
464.1	12134	
464.3	10344	
464.5	10459	
464.7	12463	
464.9	12299	
465.1	11801	
465.3	10985	
465.5	12806	
465.7	12910	
465.9	11289	
466.1	10990	
466.3	12820	
466.5	12549	
466.7	12208	
466.9	10877	
467.1	12613	
467.3	13624	
467.5	12185	
467.7	10948	
467.9	13934	
468.1	14878	
468.3	11759	
468.5	12323	
468.7	12764	
468.9	12782	
469.1	11400	
469.3	12252	
469.5	14836	
469.7	12401	
469.9	11751	
470.1	11111	
470.3	12753	
470.5	12837	
470.7	12345	
470.9	11084	
471.1	12661	
471.3	12959	
471.5	11034	
471.69	13075	
471.89	12418	
472.09	11876	
472.29	11935	
472.49	11980	
472.69	12082	
472.89	12967	
473.09	10902	
473.29	10829	
473.49	12379	
473.69	12407	
473.89	12020	
474.09	11127	
474.29	13696	
474.49	13462	
474.69	11976	
474.89	11260	
475.09	12405	
475.29	12440	
475.49	10583	
475.69	10888	
475.88	13907	
476.08	12610	
476.28	10577	
476.48	10854	
476.68	13066	
476.88	12980	
477.08	10808	
477.28	11321	
477.48	12400	
477.68	13127	
477.88	10633	
478.08	10907	
478.28	13611	
478.48	12561	
478.67	10981	
478.87	10242	
479.07	13378	
479.27	12541	
479.47	11180	
479.67	11305	
479.87	13056	
480.07	13815	
480.27	10541	
480.47	12194	
480.67	12803	
480.87	13556	
481.06	10812	
481.26	11647	
481.46	12783	
481.66	12613	
481.86	11269	
482.06	12421	
482.26	12426	
482.46	13342	
482.66	11348	
482.86	10933	
483.05	12873	
483.25	12308	
483.45	13837	
483.65	11417	
483.85	12451	
484.05	12844	
484.25	11837	
484.45	12521	
484.65	13939	
484.84	13906	
485.04	11377	
485.24	11455	
485.44	14276	
485.64	12454	
485.84	10784	
486.04	12235	
486.24	12837	
486.44	13379	
486.63	10868	
486.83	11695	
487.03	12930	
487.23	13236	
487.43	10998	
487.63	13681	
487.83	13241	
488.02	14446	
488.22	12238	
488.42	12895	
488.62	14123	
488.82	13175	
489.02	11798	
489.22	12044	
489.41	14075	
489.61	13782	
489.81	11555	
490.01	11544	
490.21	13949	
490.41	14650	
490.61	11395	
490.8	11485	
491	13409	
491.2	12611	
491.4	12067	
491.6	11193	
491.8	13387	
491.99	13634	
492.19	11213	
492.39	11763	
492.59	14331	
492.79	14278	
492.99	12936	
493.18	11965	
493.38	14368	
493.58	15455	
493.78	12804	
493.98	12305	
494.18	14369	
494.37	13927	
494.57	13395	
494.77	13199	
494.97	14824	
495.17	15304	
495.37	12822	
495.56	13215	
495.76	15504	
495.96	15106	
496.16	14203	
496.36	13098	
496.55	15276	
496.75	14839	
496.95	13568	
497.15	13470	
497.35	15384	
497.54	15472	
497.74	13247	
497.94	15167	
498.14	16353	
498.34	16068	
498.53	13121	
498.73	14017	
498.93	15031	
499.13	15639	
499.33	13893	
499.52	14268	
499.72	15588	
499.92	15840	
500.12	13604	
500.32	13930	
500.51	15972	
500.71	15727	
500.91	14714	
501.11	14315	
501.31	16001	
501.5	16089	
501.7	15062	
501.9	13845	
502.1	15436	
502.29	15976	
502.49	14425	
502.69	14692	
502.89	15846	
503.09	15740	
503.28	13108	
503.48	13242	
503.68	14715	
503.88	14967	
504.07	14230	
504.27	13528	
504.47	15203	
504.67	15212	
504.86	14037	
505.06	13756	
505.26	14652	
505.46	16527	
505.65	13514	
505.85	13639	
506.05	14601	
506.25	15012	
506.44	12668	
506.64	13691	
506.84	14330	
507.04	15382	
507.23	12761	
507.43	13474	
507.63	16406	
507.83	14594	
508.02	13278	
508.22	12957	
508.42	16632	
508.62	14346	
508.81	13147	
509.01	13928	
509.21	14248	
509.4	14461	
509.6	13504	
509.8	12942	
510	14453	
510.19	16127	
510.39	12796	
510.59	13033	
510.79	14247	
510.98	15807	
511.18	13048	
511.38	13075	
511.57	15107	
511.77	14965	
511.97	13723	
512.17	12649	
512.36	15224	
512.56	15096	
512.76	12781	
512.95	12448	
513.15	15367	
513.35	13870	
513.55	13794	
513.74	12925	
513.94	15249	
514.14	14683	
514.33	13820	
514.53	13637	
514.73	14616	
514.92	14820	
515.12	13201	
515.32	13056	
515.51	15029	
515.71	15519	
515.91	14947	
516.11	13110	
516.3	16879	
516.5	14627	
516.7	13575	
516.89	14328	
517.09	14674	
517.29	14599	
517.48	13885	
517.68	13200	
517.88	14410	
518.07	14944	
518.27	14047	
518.47	13007	
518.66	15707	
518.86	14335	
519.06	12725	
519.25	13278	
519.45	14590	
519.65	16418	
519.84	13829	
520.04	14565	
520.24	16382	
520.43	15086	
520.63	13345	
520.83	13121	
521.02	14231	
521.22	14960	
521.42	13574	
521.61	14373	
521.81	14655	
522.01	14757	
522.2	13668	
522.4	13451	
522.6	15561	
522.79	14348	
522.99	13701	
523.18	13222	
523.38	15511	
523.58	15520	
523.77	15327	
523.97	13319	
524.17	17527	
524.36	16703	
524.56	15003	
524.76	14638	
524.95	16017	
525.15	15452	
525.34	14369	
525.54	14334	
525.74	16236	
525.93	15192	
526.13	15565	
526.33	14425	
526.52	16576	
526.72	16190	
526.91	16033	
527.11	15251	
527.31	17023	
527.5	17426	
527.7	15223	
527.89	14187	
528.09	15896	
528.29	16592	
528.48	15591	
528.68	15238	
528.87	16954	
529.07	16694	
529.27	15032	
529.46	14217	
529.66	16216	
529.85	16633	
530.05	14074	
530.25	14882	
530.44	17856	
530.64	16318	
530.83	14771	
531.03	15205	
531.23	16923	
531.42	16893	
531.62	16294	
531.81	15250	
532.01	17434	
532.21	17924	
532.4	15195	
532.6	15663	
532.79	18404	
532.99	17507	
533.18	15756	
533.38	16787	
533.58	17218	
533.77	17825	
533.97	15918	
534.16	16763	
534.36	18408	
534.55	17307	
534.75	16665	
534.95	15724	
535.14	18193	
535.34	17103	
535.53	15343	
535.73	17319	
535.92	18567	
536.12	17140	
536.31	15545	
536.51	16779	
536.71	17634	
536.9	17107	
537.1	15659	
537.29	15942	
537.49	18007	
537.68	17139	
537.88	16333	
538.07	15526	
538.27	17539	
538.46	18542	
538.66	15415	
538.86	15980	
539.05	17334	
539.25	17839	
539.44	16199	
539.64	15588	
539.83	17006	
540.03	18145	
540.22	15520	
540.42	15552	
540.61	17231	
540.81	17525	
541	15941	
541.2	16607	
541.39	16751	
541.59	17159	
541.78	16379	
541.98	15218	
542.18	16333	
542.37	16240	
542.57	15555	
542.76	16094	
542.96	16092	
543.15	16957	
543.35	15347	
543.54	14719	
543.74	17090	
543.93	16703	
544.13	15233	
544.32	16503	
544.52	16936	
544.71	16094	
544.91	14252	
545.1	15627	
545.3	16158	
545.49	16963	
545.69	14088	
545.88	14766	
546.08	17751	
546.27	17372	
546.47	15377	
546.66	14540	
546.86	17019	
547.05	17698	
547.24	14819	
547.44	14789	
547.63	15790	
547.83	17078	
548.02	15010	
548.22	15126	
548.41	15503	
548.61	16918	
548.8	14379	
549	14415	
549.19	16202	
549.39	16545	
549.58	14109	
549.78	14613	
549.97	16472	
550.17	16016	
550.36	15358	
550.55	16603	
550.75	15911	
550.94	17030	
551.14	14176	
551.33	14469	
551.53	15306	
551.72	16330	
551.92	14602	
552.11	14292	
552.31	16292	
552.5	16356	
552.69	16057	
552.89	13781	
553.08	16277	
553.28	15911	
553.47	14291	
553.67	15380	
553.86	16838	
554.06	14955	
554.25	13342	
554.44	13992	
554.64	17562	
554.83	17032	
555.03	13917	
555.22	14301	
555.42	16138	
555.61	15842	
555.8	14050	
556	14359	
556.19	15182	
556.39	16355	
556.58	14177	
556.78	14065	
556.97	15739	
557.16	15627	
557.36	15443	
557.55	13781	
557.75	14773	
557.94	16714	
558.13	13685	
558.33	13526	
558.52	16339	
558.72	15081	
558.91	13601	
559.1	13815	
559.3	14738	
559.49	14323	
559.69	13060	
559.88	14134	
560.07	15591	
560.27	16034	
560.46	14205	
560.66	14304	
560.85	15318	
561.04	14422	
561.24	13435	
561.43	13586	
561.63	14804	
561.82	15012	
562.01	15086	
562.21	14091	
562.4	15569	
562.59	16520	
562.79	13843	
562.98	13553	
563.18	15503	
563.37	17003	
563.56	14395	
563.76	13441	
563.95	15035	
564.14	14846	
564.34	13967	
564.53	13682	
564.73	15537	
564.92	16070	
565.11	14132	
565.31	13508	
565.5	16196	
565.69	15169	
565.89	13773	
566.08	14092	
566.27	16109	
566.47	16617	
566.66	14609	
566.85	13317	
567.05	15564	
567.24	14922	
567.44	13618	
567.63	14999	
567.82	15864	
568.02	15614	
568.21	13718	
568.4	14104	
568.6	15703	
568.79	15602	
568.98	13528	
569.18	13790	
569.37	15632	
569.56	17581	
569.76	14024	
569.95	15108	
570.14	15851	
570.34	15888	
570.53	13435	
570.72	13491	
570.91	16312	
571.11	15418	
571.3	13954	
571.49	14883	
571.69	15347	
571.88	14987	
572.07	14599	
572.27	14504	
572.46	15098	
572.65	16180	
572.85	13938	
573.04	14263	
573.23	16516	
573.43	15789	
573.62	13742	
573.81	14480	
574	15849	
574.2	15658	
574.39	14350	
574.58	14416	
574.78	16862	
574.97	15999	
575.16	14689	
575.36	15062	
575.55	16376	
575.74	16524	
575.93	13832	
576.13	15121	
576.32	15829	
576.51	16423	
576.71	14338	
576.9	15820	
577.09	16840	
577.28	16203	
577.48	14897	
577.67	13822	
577.86	15799	
578.05	16306	
578.25	14571	
578.44	14627	
578.63	15997	
578.83	17426	
579.02	13891	
579.21	15743	
579.4	16325	
579.6	16144	
579.79	14762	
579.98	16942	
580.17	16602	
580.37	16875	
580.56	14288	
580.75	15214	
580.94	17392	
581.14	17055	
581.33	15657	
581.52	14471	
581.71	16818	
581.91	17417	
582.1	14317	
582.29	14883	
582.48	16398	
582.68	16559	
582.87	15447	
583.06	15021	
583.25	16730	
583.45	16559	
583.64	15799	
583.83	16541	
584.02	16279	
584.21	16990	
584.41	15584	
584.6	14917	
584.79	16561	
584.98	17361	
585.18	14405	
585.37	14395	
585.56	15969	
585.75	16813	
585.94	14521	
586.14	15335	
586.33	17072	
586.52	16194	
586.71	14769	
586.91	14536	
587.1	15433	
587.29	16522	
587.48	14388	
587.67	14422	
587.87	16240	
588.06	16322	
588.25	15509	
588.44	14737	
588.63	15552	
588.83	16010	
589.02	13644	
589.21	13389	
589.4	14715	
589.59	14539	
589.78	12174	
589.98	12482	
590.17	13853	
590.36	14508	
590.55	11702	
590.74	12412	
590.94	15873	
591.13	14294	
591.32	12383	
591.51	11959	
591.7	14939	
591.89	14376	
592.09	12109	
592.28	12630	
592.47	13590	
592.66	15642	
592.85	12217	
593.05	12413	
593.24	14096	
593.43	14986	
593.62	12518	
593.81	13120	
594	14345	
594.19	14588	
594.39	12426	
594.58	12264	
594.77	14455	
594.96	15107	
595.15	12215	
595.34	12860	
595.54	14365	
595.73	13543	
595.92	11588	
596.11	12680	
596.3	15016	
596.49	13721	
596.68	12486	
596.88	13073	
597.07	14683	
597.26	13557	
597.45	11896	
597.64	13329	
597.83	13818	
598.02	14493	
598.22	12106	
598.41	12706	
598.6	14233	
598.79	13672	
598.98	12198	
599.17	13218	
599.36	14337	
599.55	15485	
599.74	14354	
599.94	14199	
600.13	14846	
600.32	13624	
600.51	11955	
600.7	12105	
600.89	15466	
601.08	15478	
601.27	11831	
601.47	12966	
601.66	14686	
601.85	15541	
602.04	12627	
602.23	12672	
602.42	13785	
602.61	14414	
602.8	12575	
602.99	12296	
603.18	14261	
603.37	14498	
603.57	12930	
603.76	13603	
603.95	15175	
604.14	14872	
604.33	12455	
604.52	12745	
604.71	14425	
604.9	14078	
605.09	13296	
605.28	13214	
605.47	15152	
605.66	14687	
605.86	13097	
606.05	12374	
606.24	15045	
606.43	13450	
606.62	12689	
606.81	13493	
607	14799	
607.19	14098	
607.38	11938	
607.57	12326	
607.76	13973	
607.95	13308	
608.14	12742	
608.33	13335	
608.52	13790	
608.72	14729	
608.91	11936	
609.1	11808	
609.29	13970	
609.48	13317	
609.67	12831	
609.86	11826	
610.05	13502	
610.24	13859	
610.43	11767	
610.62	11323	
610.81	14821	
611	14666	
611.19	11916	
611.38	12549	
611.57	14076	
611.76	15525	
611.95	11505	
612.14	11303	
612.33	13949	
612.52	13239	
612.71	12093	
612.9	11254	
613.09	12945	
613.28	15482	
613.47	11787	
613.66	12839	
613.85	13994	
614.04	13443	
614.24	12041	
614.43	11215	
614.62	14173	
614.81	14036	
615	12553	
615.19	12544	
615.38	13343	
615.57	13820	
615.76	12379	
615.95	13368	
616.14	14005	
616.33	13785	
616.52	12717	
616.71	13140	
616.9	14096	
617.09	14053	
617.28	12088	
617.47	13546	
617.66	13324	
617.85	13366	
618.04	13250	
618.22	12590	
618.41	13724	
618.6	14783	
618.79	12675	
618.98	12307	
619.17	15176	
619.36	13408	
619.55	12580	
619.74	12598	
619.93	14446	
620.12	13876	
620.31	13189	
620.5	13506	
620.69	15085	
620.88	15542	
621.07	14136	
621.26	13195	
621.45	14713	
621.64	14825	
621.83	13382	
622.02	12450	
622.21	14683	
622.4	14556	
622.59	13846	
622.78	13620	
622.97	14180	
623.16	15255	
623.35	13177	
623.54	12247	
623.72	14308	
623.91	14612	
624.1	13467	
624.29	12153	
624.48	15737	
624.67	14865	
624.86	13459	
625.05	12417	
625.24	15776	
625.43	14076	
625.62	15201	
625.81	12671	
626	15046	
626.19	14377	
626.38	13538	
626.56	12753	
626.75	14059	
626.94	14919	
627.13	13306	
627.32	11992	
627.51	14657	
627.7	16158	
627.89	11913	
628.08	13351	
628.27	13887	
628.46	14162	
628.65	12252	
628.83	12019	
629.02	14555	
629.21	13865	
629.4	12901	
629.59	13145	
629.78	13951	
629.97	14922	
630.16	13114	
630.35	12663	
630.54	15333	
630.72	14980	
630.91	12624	
631.1	13067	
631.29	14467	
631.48	14604	
631.67	13224	
631.86	12727	
632.05	14158	
632.24	14279	
632.42	12353	
632.61	12964	
632.8	14217	
632.99	13888	
633.18	13020	
633.37	13323	
633.56	14525	
633.75	14397	
633.93	12996	
634.12	12715	
634.31	15346	
634.5	15033	
634.69	12758	
634.88	13159	
635.07	14253	
635.25	14877	
635.44	13661	
635.63	13917	
635.82	14166	
636.01	13679	
636.2	13582	
636.39	13191	
636.57	15335	
636.76	15025	
636.95	12469	
637.14	13974	
637.33	14627	
637.52	15651	
637.7	12254	
637.89	13274	
638.08	14075	
638.27	15588	
638.46	13306	
638.65	13719	
638.83	15604	
639.02	13725	
639.21	13093	
639.4	13653	
639.59	14222	
639.78	13919	
639.96	12237	
640.15	12356	
640.34	14180	
640.53	14302	
640.72	11925	
640.91	12381	
641.09	13423	
641.28	14783	
641.47	12329	
641.66	13206	
641.85	14265	
642.03	14429	
642.22	12865	
642.41	12230	
642.6	13556	
642.79	12812	
642.97	11903	
643.16	12751	
643.35	13429	
643.54	13120	
643.73	11734	
643.91	12581	
644.1	12818	
644.29	13493	
644.48	11615	
644.67	11721	
644.85	12824	
645.04	13085	
645.23	10967	
645.42	11195	
645.6	12466	
645.79	13576	
645.98	11130	
646.17	10072	
646.36	11999	
646.54	12529	
646.73	11706	
646.92	10469	
647.11	12106	
647.29	13183	
647.48	10449	
647.67	10181	
647.86	13258	
648.05	13558	
648.23	10857	
648.42	12324	
648.61	12920	
648.8	12685	
648.98	10697	
649.17	11020	
649.36	12142	
649.55	11715	
649.73	10634	
649.92	11336	
650.11	12040	
650.3	12332	
650.48	10577	
650.67	10327	
650.86	12487	
651.05	11450	
651.23	10697	
651.42	10622	
651.61	12138	
651.79	12112	
651.98	10955	
652.17	10462	
652.36	12461	
652.54	11559	
652.73	10324	
652.92	10114	
653.11	12309	
653.29	12425	
653.48	9428.8	
653.67	10441	
653.85	11987	
654.04	13008	
654.23	10405	
654.42	9839.1	
654.6	11052	
654.79	11718	
654.98	9288.2	
655.16	9858.9	
655.35	10693	
655.54	10755	
655.73	9600.9	
655.91	9499.2	
656.1	12220	
656.29	10944	
656.47	9192.6	
656.66	11012	
656.85	11283	
657.03	11357	
657.22	9896.5	
657.41	9951.8	
657.59	11423	
657.78	11186	
657.97	9469.1	
658.16	10376	
658.34	12119	
658.53	12512	
658.72	11215	
658.9	11854	
659.09	11490	
659.28	11594	
659.46	10127	
659.65	9988.6	
659.84	11364	
660.02	11891	
660.21	9937.4	
660.4	9950.4	
660.58	12261	
660.77	11745	
660.96	10504	
661.14	9453.4	
661.33	12888	
661.52	12745	
661.7	9407	
661.89	13262	
662.08	11156	
662.26	10836	
662.45	9671.2	
662.64	9749.7	
662.82	11934	
663.01	11046	
663.2	9744.2	
663.38	10647	
663.57	11812	
663.75	11598	
663.94	10181	
664.13	11386	
664.31	11116	
664.5	11835	
664.69	10215	
664.87	10942	
665.06	10814	
665.25	11604	
665.43	11094	
665.62	11146	
665.8	11952	
665.99	11143	
666.18	9996.8	
666.36	10109	
666.55	11886	
666.74	11784	
666.92	9580.4	
667.11	11223	
667.29	11190	
667.48	11804	
667.67	10830	
667.85	9941.5	
668.04	11120	
668.22	11225	
668.41	9917.6	
668.6	10122	
668.78	10989	
668.97	11211	
669.15	10307	
669.34	9220	
669.53	10963	
669.71	11357	
669.9	9524.4	
670.08	10149	
670.27	10947	
670.46	11465	
670.64	10280	
670.83	10700	
671.01	10668	
671.2	11441	
671.38	9508	
671.57	9425.4	
671.76	12050	
671.94	12620	
672.13	9313.5	
672.31	10383	
672.5	11665	
672.69	10869	
672.87	9465	
673.06	9800.9	
673.24	11484	
673.43	11013	
673.61	10245	
673.8	9819.3	
673.98	11601	
674.17	11781	
674.36	10420	
674.54	10314	
674.73	11234	
674.91	11542	
675.1	9949.7	
675.28	9475.3	
675.47	11148	
675.65	11778	
675.84	9770.9	
676.03	10080	
676.21	10757	
676.4	10368	
676.58	10484	
676.77	10330	
676.95	12304	
677.14	10733	
677.32	9444.5	
677.51	9171.5	
677.69	11602	
677.88	10395	
678.06	9239.1	
678.25	9428.8	
678.44	11129	
678.62	10760	
678.81	9045.2	
678.99	10135	
679.18	11866	
679.36	11419	
679.55	9682.1	
679.73	10403	
679.92	11397	
680.1	10852	
680.29	10972	
680.47	9696.4	
680.66	10660	
680.84	11531	
681.03	8883.4	
681.21	10078	
681.4	10778	
681.58	10503	
681.77	9316.2	
681.95	9220	
682.14	11577	
682.32	11937	
682.51	10373	
682.69	9064.3	
682.88	10443	
683.06	11195	
683.25	9969.5	
683.43	10338	
683.62	10761	
683.8	11168	
683.99	10159	
684.17	9229.5	
684.36	11574	
684.54	10008	
684.73	8107.2	
684.91	8198.7	
685.1	10275	
685.28	9615.2	
685.46	8862.9	
685.65	8943.5	
685.83	10516	
686.02	9957.9	
686.2	8341.4	
686.39	8532.5	
686.57	9751.7	
686.76	11270	
686.94	8342.1	
687.13	8674.5	
687.31	10510	
687.5	9983.8	
687.68	8144.8	
687.86	9512.8	
688.05	11922	
688.23	9620	
688.42	9548.3	
688.6	8785.1	
688.79	10071	
688.97	10124	
689.16	9133.9	
689.34	8023.9	
689.52	10905	
689.71	11065	
689.89	9467.1	
690.08	8731.9	
690.26	10333	
690.45	10060	
690.63	9438.4	
690.81	8748.9	
691	9852.8	
691.18	9690.3	
691.37	8715.5	
691.55	11013	
691.74	9714.9	
691.92	11850	
692.1	8773.5	
692.29	8176.9	
692.47	10094	
692.66	9384.5	
692.84	8536.6	
693.02	9256.1	
693.21	9585.9	
693.39	10031	
693.58	9374.9	
693.76	8738.7	
693.94	11545	
694.13	11358	
694.31	8919.6	
694.5	10068	
694.68	10198	
694.86	10521	
695.05	9268.4	
695.23	9450.7	
695.42	11025	
695.6	13304	
695.78	9873.9	
695.97	8858.8	
696.15	10770	
696.34	10103	
696.52	8467	
696.7	9388.6	
696.89	10398	
697.07	9859.6	
697.25	9253.4	
697.44	10960	
697.62	10279	
697.81	10748	
697.99	8824	
698.17	9375.6	
698.36	9562.6	
698.54	10243	
698.72	9199.5	
698.91	8157.1	
699.09	9894.4	
699.28	9672.6	
699.46	8842.4	
699.64	8667.7	
699.83	9654.1	
700.01	10974	
700.19	9491.7	
700.38	7995.3	
700.56	11101	
700.74	9923.8	
700.93	8402.8	
701.11	9398.8	
701.29	10611	
701.48	11684	
701.66	8732.5	
701.84	8817.2	
702.03	10054	
702.21	10781	
702.39	8254.7	
702.58	8886.8	
702.76	10512	
702.94	10643	
703.13	8292.2	
703.31	10845	
703.49	9775.6	
703.68	11247	
703.86	8403.5	
704.04	9522.4	
704.23	10258	
704.41	10729	
704.59	8637	
704.78	9773.6	
704.96	11452	
705.14	10734	
705.33	8443.1	
705.51	9245.2	
705.69	10167	
705.87	10947	
706.06	9630.2	
706.24	8316.1	
706.42	10378	
706.61	10768	
706.79	9581.8	
706.97	8423.3	
707.16	9851.4	
707.34	10479	
707.52	9426.1	
707.7	8635.6	
707.89	9953.8	
708.07	9639.8	
708.25	9441.1	
708.44	9663.7	
708.62	9920.4	
708.8	11008	
708.98	9802.3	
709.17	8613.8	
709.35	10295	
709.53	10223	
709.72	8273.1	
709.9	8471.8	
710.08	10475	
710.26	10548	
710.45	9937.4	
710.63	8603.5	
710.81	10149	
710.99	10101	
711.18	9161.2	
711.36	8587.1	
711.54	9825.5	
711.72	10471	
711.91	8523.6	
712.09	7854.6	
712.27	9729.2	
712.45	10486	
712.64	8625.4	
712.82	7591.1	
713	8880.7	
713.18	9011.7	
713.37	7393.8	
713.55	8527.7	
713.73	9643.9	
713.91	8071	
714.1	7374.7	
714.28	6742.6	
714.46	8955.1	
714.64	7995.3	
714.83	5945.9	
715.01	6737.1	
715.19	8008.2	
715.37	7295.5	
715.55	6375.3	
715.74	6776	
715.92	8828.8	
716.1	6716.7	
716.28	7843.7	
716.47	6840.9	
716.65	7449.1	
716.83	7652.6	
717.01	6663.4	
717.19	6727.6	
717.38	9927.9	
717.56	7428	
717.74	7197.2	
717.92	6326.2	
718.1	8930.5	
718.29	8189.1	
718.47	6094.1	
718.65	6855.2	
718.83	8964	
719.01	8895.7	
719.2	6093.4	
719.38	7221.8	
719.56	8465.6	
719.74	10085	
719.92	6610.2	
720.11	7655.3	
720.29	8289.5	
720.47	7351.5	
720.65	5885.2	
720.83	6769.2	
721.02	7585.7	
721.2	7321.5	
721.38	6814.3	
721.56	5956.2	
721.74	6828.6	
721.92	7064.1	
722.11	7306.5	
722.29	7024.5	
722.47	8391.9	
722.65	7462.1	
722.83	5986.2	
723.01	7047.7	
723.2	7574.1	
723.38	7755	
723.56	5383.4	
723.74	6670.2	
723.92	7025.2	
724.1	8288.1	
724.29	5943.2	
724.47	7162.4	
724.65	7094.8	
724.83	6984.3	
725.01	5745.2	
725.19	6802.7	
725.37	7112.6	
725.56	7187.7	
725.74	5608.7	
725.92	5973.9	
726.1	6956.3	
726.28	7293.5	
726.46	6397.9	
726.64	6039.5	
726.83	7274.4	
727.01	7599.3	
727.19	5659.2	
727.37	6572.6	
727.55	7383.6	
727.73	8015.7	
727.91	5570.5	
728.09	5476.3	
728.28	8150.9	
728.46	8699.1	
728.64	6801.3	
728.82	6800.6	
729	9388.6	
729.18	8673.8	
729.36	6067.4	
729.54	8486.8	
729.72	9755.8	
729.91	7980.3	
730.09	8120.2	
730.27	6843.6	
730.45	7835.5	
730.63	8666.3	
730.81	7601.4	
730.99	6518	
731.17	9080	
731.35	7580.9	
731.53	7073	
731.71	6612.2	
731.9	8872.5	
732.08	8970.8	
732.26	6826.6	
732.44	6486.6	
732.62	8958.5	
732.8	8505.2	
732.98	7268.9	
733.16	6314.6	
733.34	8434.9	
733.52	7264.8	
733.7	6809.5	
733.88	7164.5	
734.07	8363.9	
734.25	8105.2	
734.43	6291.4	
734.61	8017.1	
734.79	9680.7	
734.97	7899	
735.15	6485.9	
735.33	6862.7	
735.51	8307.2	
735.69	7948.2	
735.87	8273.1	
736.05	7097.6	
736.23	8192.6	
736.41	7937.2	
736.59	6939.9	
736.77	6961.7	
736.95	8705.2	
737.13	8056.7	
737.32	6594.5	
737.5	6809.5	
737.68	9266.4	
737.86	8065.6	
738.04	6354.8	
738.22	8381	
738.4	7731.8	
738.58	8067.6	
738.76	7133.8	
738.94	5975.3	
739.12	7950.9	
739.3	7784.3	
739.48	7787.1	
739.66	7518.8	
739.84	8270.4	
740.02	8239	
740.2	6073.6	
740.38	6567.8	
740.56	8704.5	
740.74	7433.4	
740.92	7152.2	
741.1	7138.5	
741.28	8061.5	
741.46	7913.4	
741.64	6582.2	
741.82	7175.4	
742	8017.1	
742.18	7972.1	
742.36	6888.7	
742.54	6423.1	
742.72	8609.7	
742.9	7296.9	
743.08	7309.9	
743.26	5948	
743.44	8794	
743.62	8673.8	
743.8	7396.6	
743.98	6453.8	
744.16	8338.6	
744.34	8011.7	
744.52	7308.5	
744.7	7173.4	
744.88	8451.3	
745.06	7929.7	
745.24	7244.3	
745.42	7434.8	
745.6	8492.9	
745.78	8258.8	
745.96	6033.3	
746.14	6349.4	
746.32	9299.1	
746.5	8500.4	
746.68	6976.1	
746.86	6380.8	
747.03	8966.7	
747.21	7151.5	
747.39	6914.6	
747.57	6366.5	
747.75	8085.4	
747.93	8572.1	
748.11	6364.4	
748.29	6245.6	
748.47	9839.8	
748.65	7695.6	
748.83	7138.5	
749.01	6795.8	
749.19	8280.6	
749.37	7413	
749.55	6666.8	
749.73	6754.2	
749.91	7945.4	
750.09	7621.9	
750.26	6868.9	
750.44	6194.4	
750.62	7980.9	
750.8	7929.1	
750.98	6038.8	
751.16	6436.8	
751.34	8028	
751.52	7310.6	
751.7	7219.8	
751.88	5988.9	
752.06	8516.8	
752.24	8303.8	
752.42	5956.9	
752.59	6402.6	
752.77	7935.2	
752.95	9273.2	
753.13	7186.3	
753.31	6555.5	
753.49	7606.8	
753.67	8075.1	
753.85	6769.2	
754.03	6393.1	
754.21	8290.9	
754.38	8610.3	
754.56	6433.4	
754.74	5396.4	
754.92	7262.1	
755.1	8077.9	
755.28	5094.7	
755.46	4866.7	
755.64	8181.6	
755.82	8183	
755.99	4680.3	
756.17	4788.8	
756.35	5214.1	
756.53	6875.7	
756.71	3450.8	
756.89	4524	
757.07	6514.6	
757.25	5639.4	
757.42	5295.4	
757.6	6445	
757.78	6894.8	
757.96	5881.1	
758.14	5157.5	
758.32	4600.4	
758.5	5208.7	
758.67	6123.4	
758.85	4934.9	
759.03	4910.3	
759.21	6339.8	
759.39	5737.7	
759.57	4404.5	
759.75	5667.4	
759.92	7112.6	
760.1	6335.1	
760.28	6130.3	
760.46	6449.1	
760.64	6268.1	
760.82	5933	
760.99	6139.8	
761.17	5299.5	
761.35	7318.8	
761.53	6244.9	
761.71	5486.5	
761.89	6363.7	
762.06	7385	
762.24	6818.4	
762.42	5886.5	
762.6	5576.6	
762.78	6856.6	
762.96	7595.9	
763.13	6293.4	
763.31	5965.7	
763.49	7868.3	
763.67	6980.2	
763.85	6917.4	
764.02	7519.5	
764.2	8156.4	
764.38	7372.7	
764.56	5892	
764.74	6814.3	
764.91	8338	
765.09	7114.6	
765.27	5595.1	
765.45	5388.9	
765.63	8275.2	
765.8	8307.9	
765.98	5045.5	
766.16	5429.2	
766.34	6623.8	
766.52	6441.5	
766.69	6437.4	
766.87	5242.1	
767.05	7036.8	
767.23	7864.9	
767.41	5558.2	
767.58	5825.8	
767.76	7644.4	
767.94	7700.4	
768.12	5609.4	
768.29	6525.5	
768.47	7079.1	
768.65	7914.7	
768.83	5186.1	
769	6418.3	
769.18	6593.1	
769.36	7364.5	
769.54	6164.4	
769.72	5224.4	
769.89	7537.2	
770.07	7742.7	
770.25	5418.2	
770.43	6842.3	
770.6	8299.1	
770.78	8729.1	
770.96	5645.6	
771.14	6318	
771.31	7473.7	
771.49	6677.1	
771.67	4745.8	
771.85	5023	
772.02	5847	
772.2	6692.8	
772.38	5737.7	
772.55	5231.9	
772.73	6976.1	
772.91	6698.9	
773.09	5601.2	
773.26	5750	
773.44	6846.4	
773.62	6578.8	
773.8	5054.4	
773.97	4749.2	
774.15	6892.8	
774.33	6440.9	
774.5	4876.9	
774.68	5328.1	
774.86	7088.7	
775.04	6518.7	
775.21	4924.7	
775.39	4997.7	
775.57	6701	
775.74	7155.6	
775.92	4752.7	
776.1	4592.9	
776.27	6716.7	
776.45	7965.9	
776.63	4894	
776.81	4349.9	
776.98	6173.9	
777.16	7474.4	
777.34	4974.5	
777.51	5355.4	
777.69	6221.7	
777.87	6005.3	
778.04	4930.8	
778.22	5720	
778.4	6027.2	
778.57	6709.1	
778.75	4154.6	
778.93	4526.7	
779.1	5721.3	
779.28	5610.8	
779.46	4189.5	
779.64	4701.5	
779.81	6770.6	
779.99	7751.6	
780.17	5566.4	
780.34	5713.8	
780.52	6130.9	
780.69	6460	
780.87	4997	
781.05	4446.1	
781.22	6223.8	
781.4	6334.4	
781.58	4640	
781.75	3700	
781.93	6198.5	
782.11	5562.3	
782.28	5602.6	
782.46	4588.8	
782.64	5382.7	
782.81	6265.4	
782.99	4696	
783.17	4633.9	
783.34	6270.2	
783.52	5426.4	
783.69	4843.4	
783.87	5720.7	
784.05	5419.6	
784.22	5453.1	
784.4	5594.4	
784.58	4899.4	
784.75	6434	
784.93	5452.4	
785.1	4536.9	
785.28	5130.2	
785.46	6098.9	
785.63	5396.4	
785.81	4491.2	
785.99	4317.8	
786.16	5553.4	
786.34	6070.9	
786.51	4349.2	
786.69	4773.1	
786.87	5167.7	
787.04	5736.4	
787.22	3764.8	
787.39	5156.1	
787.57	5330.9	
787.75	6595.8	
787.92	5337	
788.1	5258.5	
788.27	5480.4	
788.45	5172.5	
788.63	4969.1	
788.8	3604.4	
788.98	5747.3	
789.15	5050.3	
789.33	3760.8	
789.5	4428.4	
789.68	6354.2	
789.86	6454.5	
790.03	4863.9	
790.21	4282.3	
790.38	6305	
790.56	5477	
790.73	4068.6	
790.91	4149.2	
791.09	5316.5	
791.26	6141.9	
791.44	4332.8	
791.61	3799	
791.79	5298.1	
791.96	5427.1	
792.14	3835.2	
792.32	3400.3	
792.49	5300.8	
792.67	5466	
792.84	3977.8	
793.02	3768.9	
793.19	5786.9	
793.37	6526.2	
793.54	3432.4	
793.72	3818.8	
793.89	6675	
794.07	5253.7	
794.25	4464.6	
794.42	3480.2	
794.6	6442.9	
794.77	5993.7	
794.95	4713.7	
795.12	4128.7	
795.3	5242.8	
795.47	5939.1	
795.65	4468	
795.82	4344.4	
796	5018.9	
796.17	7030	
796.35	4164.9	
796.52	4967	
796.7	5821	
796.87	5935	
797.05	5143.1	
797.22	5115.1	
797.4	5878.4	
797.57	6979.5	
797.75	4282.3	
797.92	4030.4	
798.1	6212.9	
798.27	5175.9	
798.45	3453.6	
798.62	3732.8	
798.8	5517.2	
798.97	6128.9	
799.15	4574.5	
799.32	4270	
799.5	4756.1	
799.67	5631.2	
799.85	4717.2	
800.02	3394.8	
800.2	5202.5	
800.37	5515.2	
800.55	4876.2	
800.72	4085.7	
800.9	6034.7	
801.07	6474.3	
801.25	5487.9	
801.42	4410	
801.6	6112.5	
801.77	5780.1	
801.95	3947.8	
802.12	3896.6	
802.29	5727.5	
802.47	5713.8	
802.64	4352.6	
802.82	3318.4	
802.99	5115.8	
803.17	6231.3	
803.34	4263.9	
803.52	3861.1	
803.69	6881.2	
803.87	4888.5	
804.04	4166.9	
804.21	4318.5	
804.39	6356.9	
804.56	5343.8	
804.74	3540.9	
804.91	4402.5	
805.09	5163.6	
805.26	5256.5	
805.44	3650.8	
805.61	4022.9	
805.78	5890	
805.96	5924.8	
806.13	4412	
806.31	4656.4	
806.48	4663.9	
806.66	5254.4	
806.83	4357.4	
807	4306.2	
807.18	5077.6	
807.35	5595.1	
807.53	4244.8	
807.7	3378.5	
807.87	6371.9	
808.05	5248.9	
808.22	4749.9	
808.4	3423.5	
808.57	5193	
808.74	4761.5	
808.92	3864.5	
809.09	4907.6	
809.27	5047.6	
809.44	5717.2	
809.61	3368.9	
809.79	3792.2	
809.96	6361.7	
810.14	5982.8	
810.31	3292.5	
810.48	4078.9	
810.66	5306.3	
810.83	6066.8	
811.01	3889.1	
811.18	4622.9	
811.35	5955.5	
811.53	4629.8	
811.7	4712.4	
811.87	4349.9	
812.05	5156.1	
812.22	5089.9	
812.39	3717.1	
812.57	3593.5	
812.74	5164.3	
812.92	6924.2	
813.09	4085	
813.26	4497.3	
813.44	6685.3	
813.61	5115.8	
813.78	3359.4	
813.96	4580.6	
814.13	5143.1	
814.3	4830.5	
814.48	4997	
814.65	4043.4	
814.82	6511.9	
815	4947.2	
815.17	4169	
815.34	5202.5	
815.52	5063.9	
815.69	5118.6	
815.87	4154.6	
816.04	3573	
816.21	5161.6	
816.38	4528.7	
816.56	4053.6	
816.73	3752.6	
816.9	6557.6	
817.08	6005.3	
817.25	3760.8	
817.42	4717.2	
817.6	4691.9	
817.77	5182	
817.94	4246.1	
818.12	3693.2	
818.29	4921.3	
818.46	7740.6	
818.64	3941	
818.81	3650.2	
818.98	4797	
819.16	7064.8	
819.33	4511.7	
819.5	4184.7	
819.67	5512.4	
819.85	6277.7	
820.02	4079.6	
820.19	4369	
820.37	5369.8	
820.54	5003.2	
820.71	4275.5	
820.88	5272.2	
821.06	5435.3	
821.23	4917.9	
821.4	4290.5	
821.58	4248.2	
821.75	5950.7	
821.92	5316.5	
822.09	3411.2	
822.27	3521.8	
822.44	5210.7	
822.61	5131.5	
822.79	3401.7	
822.96	6658.6	
823.13	5672.2	
823.3	4916.5	
823.48	4005.1	
823.65	3555.3	
823.82	5908.4	
823.99	4678.9	
824.17	5128.8	
824.34	3633.8	
824.51	6893.5	
824.68	5150	
824.86	3776.5	
825.03	4282.3	
825.2	5079	
825.37	6347.3	
825.55	3672.7	
825.72	4205.8	
825.89	6950.8	
826.06	6432.7	
826.24	4080.2	
826.41	4155.3	
826.58	6309.1	
826.75	5486.5	
826.92	3197.6	
827.1	3576.4	
827.27	8757.1	
827.44	6937.8	
827.61	3882.3	
827.79	4743.8	
827.96	4958.8	
828.13	5371.1	
828.3	4045.4	
828.47	3389.4	
828.65	5382.1	
828.82	5351.3	
828.99	5314.5	
829.16	4588.8	
829.34	5799.8	
829.51	5541.1	
829.68	4232.5	
829.85	4382.7	
830.02	6070.2	
830.2	5814.9	
830.37	3233.1	
830.54	5066	
830.71	6655.2	
830.88	5157.5	
831.05	3287	
831.23	3808.5	
831.4	6352.1	
831.57	7165.2	
831.74	3867.2	
831.91	3423.5	
832.09	5429.2	
832.26	5786.9	
832.43	3995.6	
832.6	4586.1	
832.77	5419.6	
832.94	6237.4	
833.12	3209.2	
833.29	4015.4	
833.46	5128.8	
833.63	7388.4	
833.8	4448.9	
833.97	4057.7	
834.15	5851	
834.32	5580	
834.49	4187.4	
834.66	4306.2	
834.83	6056.5	
835	4872.8	
835.17	3899.3	
835.35	3932.8	
835.52	5714.5	
835.69	5594.4	
835.86	4211.3	
836.03	3407.1	
836.2	5736.4	
836.37	5409.4	
836.55	4048.8	
836.72	3796.9	
836.89	5384.1	
837.06	5812.8	
837.23	4166.3	
837.4	4455.7	
837.57	6677.1	
837.75	7470.3	
837.92	3796.3	
838.09	3904.1	
838.26	5316.5	
838.43	6130.9	
838.6	4290.5	
838.77	3768.3	
838.94	6948.8	
839.11	6723.5	
839.29	4047.5	
839.46	3177.8	
839.63	5734.3	
839.8	5503.6	
839.97	3940.3	
840.14	3966.9	
840.31	5568.4	
840.48	5794.4	
840.65	3220.8	
840.82	3852.2	
841	5801.9	
841.17	5733.6	
841.34	3654.9	
841.51	3676.8	
841.68	5671.5	
841.85	5453.1	
842.02	3727.3	
842.19	3091.8	
842.36	5579.3	
842.53	5553.4	
842.7	3592.1	
842.87	4405.2	
843.05	7280.5	
843.22	5475.6	
843.39	3448.8	
843.56	3633.8	
843.73	5209.3	
843.9	5859.9	
844.07	5895.4	
844.24	4954.7	
844.41	8616.5	
844.58	5004.6	
844.75	3474.7	
844.92	3793.5	
845.09	5803.3	
845.26	5786.2	
845.43	3578.5	
845.6	3777.8	
845.77	5727.5	
845.94	5439.4	
846.12	3956	
846.29	4289.8	
846.46	6004.6	
846.63	5747.3	
846.8	3527.3	
846.97	4265.9	
847.14	6292	
847.31	5751.4	
847.48	3997.6	
847.65	4398.4	
847.82	6100.9	
847.99	6030.6	
848.16	4801.8	
848.33	4496.7	
848.5	5354.8	
848.67	6270.9	
848.84	3613.3	
849.01	3740.3	
849.18	5133.6	
849.35	4840.7	
849.52	4516.5	
849.69	3506.8	
849.86	5976.7	
850.03	6184.2	
850.2	3609.2	
850.37	4309.6	
850.54	6158.2	
850.71	5454.4	
850.88	4351.9	
851.05	3552.5	
851.22	5637.4	
851.39	6332.3	
851.56	3351.8	
851.73	4110.3	
851.9	5079.6	
852.07	5999.9	
852.24	3941.7	
852.41	3568.9	
852.58	5623	
852.75	5147.2	
852.92	4026.3	
853.09	3446	
853.26	5321.3	
853.43	6195.8	
853.6	3558.7	
853.77	3087	
853.94	6283.9	
854.11	5045.5	
854.28	5404.6	
854.44	3872.7	
854.61	6766.5	
854.78	5890.6	
854.95	3551.9	
855.12	4552	
855.29	4620.2	
855.46	6519.4	
855.63	3541.6	
855.8	4996.4	
855.97	5296.7	
856.14	6134.3	
856.31	5115.8	
856.48	3901.4	
856.65	5315.8	
856.82	5023	
856.99	3435.8	
857.16	3895.9	
857.33	6995.2	
857.49	5411.4	
857.66	3798.3	
857.83	4257	
858	5336.3	
858.17	5502.9	
858.34	3418.1	
858.51	3545	
858.68	6485.9	
858.85	6520.7	
859.02	4194.9	
859.19	4412.7	
859.36	5033.2	
859.52	5116.5	
859.69	3607.2	
859.86	4204.5	
860.03	5122.7	
860.2	6369.2	
860.37	3212.6	
860.54	3579.2	
860.71	5961	
860.88	6468.2	
861.05	4029	
861.21	4498.7	
861.38	6475	
861.55	4931.5	
861.72	3250.1	
861.89	3957.4	
862.06	6069.5	
862.23	6664.1	
862.4	3452.9	
862.56	3722.5	
862.73	5848.3	
862.9	5564.3	
863.07	4218.1	
863.24	3177.1	
863.41	4887.1	
863.58	5093.3	
863.75	3642	
863.91	4164.9	
864.08	6369.9	
864.25	5932.3	
864.42	4534.9	
864.59	5033.2	
864.76	6804.7	
864.93	5103.5	
865.09	3528	
865.26	3823.6	
865.43	6294.1	
865.6	6640.9	
865.77	3106.1	
865.94	3524.6	
866.1	6340.5	
866.27	6087.9	
866.44	5465.3	
866.61	3365.5	
866.78	5516.5	
866.95	5885.2	
867.11	3418.1	
867.28	3118.4	
867.45	6137.8	
867.62	5089.9	
867.79	4091.8	
867.96	3554.6	
868.12	5070.8	
868.29	6116.6	
868.46	3046	
868.63	4801.1	
868.8	6236.7	
868.97	5950.7	
869.13	3786.7	
869.3	3678.8	
869.47	5910.4	
869.64	6055.8	
869.81	3562.8	
869.97	3617.4	
870.14	5718.6	
870.31	6427.2	
870.48	3470.6	
870.65	4556.7	
870.81	5394.3	
870.98	5341.8	
871.15	4083.6	
871.32	3612.6	
871.48	5877.7	
871.65	6571.2	
871.82	3531.4	
871.99	3964.2	
872.16	7001.3	
872.32	6316.6	
872.49	3594.9	
872.66	3583.9	
872.83	5992.4	
872.99	5238.7	
873.16	4058.4	
873.33	3546.4	
873.5	5621.7	
873.67	5595.1	
873.83	3740.3	
874	4770.4	
874.17	5810.1	
874.34	6953.5	
874.5	4640.7	
874.67	4489.8	
874.84	6395.8	
875.01	5021.6	
875.17	5072.8	
875.34	3546.4	
875.51	5623.7	
875.68	6892.1	
875.84	4311	
876.01	5233.9	
876.18	5939.1	
876.34	5826.5	
876.51	3588	
876.68	3505.4	
876.85	5429.2	
877.01	6260	
877.18	5083.1	
877.35	3504.8	
877.52	5561.6	
877.68	4950.6	
877.85	3445.4	
878.02	3500	
878.18	5513.1	
878.35	5220.3	
878.52	2846	
878.69	4013.3	
878.85	5985.5	
879.02	5976.7	
879.19	5060.5	
879.35	3806.5	
879.52	5870.8	
879.69	6188.3	
879.86	3016	
880.02	4005.8	
880.19	5554.8	
880.36	6753.5	
880.52	4088.4	
880.69	4229.7	
880.86	6006.7	
881.02	6129.6	
881.19	3893.2	
881.36	3809.9	
881.52	5907.7	
881.69	5234.6	
881.86	3831.1	
882.02	3755.3	
882.19	6278.4	
882.36	7328.3	
882.52	3666.5	
882.69	5117.9	
882.86	5803.3	
883.02	5653.8	
883.19	4390.2	
883.36	4121.9	
883.52	6077	
883.69	6939.9	
883.86	3642.7	
884.02	3145.7	
884.19	6095.4	
884.36	5525.4	
884.52	4020.8	
884.69	3779.9	
884.86	5245.5	
885.02	6614.9	
885.19	4016.1	
885.36	4113.7	
885.52	5556.8	
885.69	5724.8	
885.86	5192.3	
886.02	4595.6	
886.19	5986.2	
886.35	5511.1	
886.52	3972.4	
886.69	5044.1	
886.85	5123.3	
887.02	6432.7	
887.19	6432.7	
887.35	6432.7	
887.52	6432.7	
887.68	6432.7	
887.85	6432.7	
888.02	6432.7	
888.18	6432.7	
888.35	6432.7	
888.51	6432.7	
888.68	6432.7	
888.85	6432.7	
889.01	6432.7	
889.18	6432.7	
889.35	6432.7	
889.51	6432.7	
889.68	6432.7	
889.84	6432.7	
890.01	6432.7	
890.17	6432.7	
890.34	6432.7	
890.51	6432.7	
890.67	6432.7	
890.84	6432.7	
891	6432.7	
891.17	6432.7	
891.34	6432.7	
891.5	6432.7	
891.67	6432.7	
891.83	6432.7	
892	6432.7	
892.16	6432.7	
892.33	6432.7	
892.5	6432.7	
892.66	6432.7	
892.83	6432.7	
892.99	6432.7	
893.16	6432.7	
893.32	6432.7	
893.49	6432.7	
893.65	6432.7	
893.82	6432.7	
893.99	6432.7	
894.15	6432.7	
894.32	6432.7	
894.48	6432.7	
894.65	6432.7	
894.81	6432.7	
894.98	6432.7	
895.14	6432.7	
895.31	6432.7	
895.47	6432.7	
895.64	6432.7	
895.81	6432.7	
895.97	6432.7	
896.14	6432.7	
896.3	6432.7	
896.47	6432.7	
896.63	6432.7	
896.8	6432.7	
896.96	6432.7	
897.13	6432.7	
897.29	6432.7	
897.46	6432.7	
897.62	6432.7	
897.79	6432.7	
897.95	6432.7	
898.12	6432.7	
898.28	6432.7	
898.45	6432.7	
898.61	6432.7	
898.78	6432.7	
898.94	6432.7	
899.11	6432.7	
899.27	6432.7	
899.44	6432.7	
899.6	6432.7	
899.77	6432.7	
899.93	6432.7	
900.1	6432.7	
900.26	6432.7	
900.43	6432.7	
900.59	6432.7	
900.76	6432.7	
900.92	6432.7	
901.09	6432.7	
901.25	6432.7	
901.42	6432.7	
901.58	6432.7	
901.75	6432.7	
901.91	6432.7	
902.07	6432.7	
902.24	6432.7	
902.4	6432.7	
902.57	6432.7	
902.73	6432.7	
902.9	6432.7	
903.06	6432.7	
903.23	6432.7	
903.39	6432.7	
903.56	6432.7	
903.72	6432.7	
903.88	6432.7	
904.05	6432.7	
904.21	6432.7	
904.38	6432.7	
904.54	6432.7	
904.71	6432.7	
904.87	6432.7	
905.03	6432.7	
905.2	6432.7	
905.36	6432.7	
905.53	6432.7	
905.69	6432.7	
905.86	6432.7	
906.02	6432.7	
906.18	6432.7	
906.35	6432.7	
906.51	6432.7	
906.68	6432.7	
906.84	6432.7	
907.01	6432.7	
907.17	6432.7	
907.33	6432.7	
907.5	6432.7	
907.66	6432.7	
907.83	6432.7	
907.99	6432.7	
908.15	6432.7	
908.32	6432.7	
908.48	6432.7	
908.65	6432.7	
908.81	6432.7	
908.97	6432.7	
909.14	6432.7	
909.3	6432.7	
909.47	6432.7	
909.63	6432.7	
909.79	6432.7	
909.96	6432.7	
910.12	6432.7	
910.28	6432.7	
910.45	6432.7	
910.61	6432.7	
910.78	6432.7	
910.94	6432.7	
911.1	6432.7	
911.27	6432.7	
911.43	6432.7	
911.59	6432.7	
911.76	6432.7	
911.92	6432.7	
912.08	6432.7	
912.25	6432.7	
912.41	6432.7	
912.57	6432.7	
912.74	6432.7	
912.9	6432.7	
913.07	6432.7	
913.23	6432.7	
913.39	6432.7	
913.56	6432.7	
913.72	6432.7	
913.88	6432.7	
914.05	6432.7	
914.21	6432.7	
914.37	6432.7	
914.54	6432.7	
914.7	6432.7	
914.86	6432.7	
915.03	6432.7	
915.19	6432.7	
