Wavelength	Intensities	
nm	a.u.	
179.22	1686.5	
179.44	1676.6	
179.65	1696.4	
179.86	1656.8	
180.08	1740.1	
180.29	4052.9	
180.51	3080.1	
180.72	5044.1	
180.94	5662.6	
181.15	2758.6	
181.37	2750.4	
181.58	4842.8	
181.79	5076.9	
182.01	2867.8	
182.22	3064.4	
182.44	5071.5	
182.65	4385.4	
182.87	3743.7	
183.08	3360.7	
183.29	5289.2	
183.51	4487.1	
183.72	3026.9	
183.94	4306.2	
184.15	4769	
184.37	4687.8	
184.58	2725.8	
184.79	3586.7	
185.01	4534.2	
185.22	5087.8	
185.44	3788.1	
185.65	3227.6	
185.86	4777.9	
186.08	4417.5	
186.29	2660.3	
186.51	2867.8	
186.72	4470	
186.94	5184.8	
187.15	3218	
187.36	3288.4	
187.58	6439.5	
187.79	4852.3	
188.01	3409.2	
188.22	5135.6	
188.43	5675.6	
188.65	5051.7	
188.86	2871.9	
189.08	3325.9	
189.29	4547.9	
189.5	4644.1	
189.72	3097.9	
189.93	3121.8	
190.15	5145.9	
190.36	6038.1	
190.57	3351.8	
190.79	3237.2	
191	5208.7	
191.22	5187.5	
191.43	3379.8	
191.64	2873.3	
191.86	5399.8	
192.07	5166.3	
192.29	2936.1	
192.5	3103.4	
192.71	5205.9	
192.93	4584.7	
193.14	3048.1	
193.35	3132	
193.57	4542.4	
193.78	5220.3	
194	2539.5	
194.21	3005.7	
194.42	4442.7	
194.64	4812.7	
194.85	3272	
195.07	3774.4	
195.28	4784.1	
195.49	4268.6	
195.71	4004.5	
195.92	2876.7	
196.13	4949.9	
196.35	4995.7	
196.56	4273.4	
196.78	3280.2	
196.99	5984.2	
197.2	5630.5	
197.42	3713.7	
197.63	3333.4	
197.84	4396.3	
198.06	4943.8	
198.27	3038.5	
198.48	4002.4	
198.7	4598.4	
198.91	4742.4	
199.13	3397.6	
199.34	3330	
199.55	5175.2	
199.77	4151.2	
199.98	2980.5	
200.19	3411.2	
200.41	4653.7	
200.62	4501.4	
200.83	3461.1	
201.05	3695.2	
201.26	4642.1	
201.47	4517.1	
201.69	2963.4	
201.9	2910.8	
202.11	4771.8	
202.33	5509	
202.54	3129.3	
202.76	3538.2	
202.97	4797.7	
203.18	4899.4	
203.4	3422.2	
203.61	3396.9	
203.82	4836.6	
204.04	4536.3	
204.25	3371	
204.46	3344.3	
204.68	4825	
204.89	4954.7	
205.1	3253.5	
205.32	2905.4	
205.53	5094	
205.74	5134.3	
205.96	2534	
206.17	3352.5	
206.38	5048.9	
206.6	5126.7	
206.81	3794.9	
207.02	3123.8	
207.24	4958.8	
207.45	5272.2	
207.66	3142.9	
207.88	2824.8	
208.09	4923.3	
208.3	4768.4	
208.52	2950.4	
208.73	3258.3	
208.94	4780.6	
209.15	5303.6	
209.37	3204.4	
209.58	3606.5	
209.79	5191.6	
210.01	4599.7	
210.22	2639.8	
210.43	2740.2	
210.65	4756.1	
210.86	5048.9	
211.07	3187.3	
211.29	2902.7	
211.5	4989.5	
211.71	4727.4	
211.93	2934.7	
212.14	2943.6	
212.35	4725.3	
212.56	4818.9	
212.78	3357.3	
212.99	2811.9	
213.2	5444.9	
213.42	4586.8	
213.63	3052.8	
213.84	3244	
214.06	4313	
214.27	4377.9	
214.48	3137.5	
214.69	3374.4	
214.91	5305.6	
215.12	5338.4	
215.33	3386	
215.55	3652.2	
215.76	5660.6	
215.97	4992.3	
216.18	3245.3	
216.4	3252.9	
216.61	4466.6	
216.82	5118.6	
217.04	2968.9	
217.25	3102	
217.46	5287.2	
217.67	5008.6	
217.89	2745.6	
218.1	2784.6	
218.31	4821.6	
218.53	4883.7	
218.74	3121.8	
218.95	2966.8	
219.16	4713.7	
219.38	5472.2	
219.59	3024.2	
219.8	3564.1	
220.01	5870.2	
220.23	4801.1	
220.44	3812	
220.65	2936.1	
220.87	4817.5	
221.08	5244.8	
221.29	2793.4	
221.5	3518.4	
221.72	6182.1	
221.93	4582.7	
222.14	3350.5	
222.35	3870.7	
222.57	4750.6	
222.78	5072.8	
222.99	3237.8	
223.2	3423.5	
223.42	4978.6	
223.63	5114.5	
223.84	2514.9	
224.05	2571.6	
224.27	5836.7	
224.48	5442.8	
224.69	3871.3	
224.9	3371	
225.12	4945.2	
225.33	4769	
225.54	2745	
225.75	2966.8	
225.97	4491.9	
226.18	4706.9	
226.39	3209.8	
226.6	3019.4	
226.82	4635.9	
227.03	4456.4	
227.24	3314.3	
227.45	2823.5	
227.67	5075.5	
227.88	5399.8	
228.09	3705.5	
228.3	3732.1	
228.52	5040.1	
228.73	4704.2	
228.94	3119.1	
229.15	2799.6	
229.36	4760.8	
229.58	4717.2	
229.79	3147.7	
230	3509.5	
230.21	5595.1	
230.43	4862.6	
230.64	3335.5	
230.85	3404.4	
231.06	5150.6	
231.28	5143.1	
231.49	2768.9	
231.7	3280.8	
231.91	5023.7	
232.12	4798.4	
232.34	2925.9	
232.55	3218.7	
232.76	5255.8	
232.97	4831.8	
233.18	2969.6	
233.4	3294.5	
233.61	4910.3	
233.82	4640	
234.03	3091.8	
234.25	3054.2	
234.46	6328.9	
234.67	4813.4	
234.88	3433.8	
235.09	2991.4	
235.31	4937.7	
235.52	4646.2	
235.73	3291.1	
235.94	2895.1	
236.15	4571.7	
236.37	5578	
236.58	2940.9	
236.79	3175.7	
237	4944.5	
237.21	4364.9	
237.43	3442	
237.64	2755.9	
237.85	7922.9	
238.06	4425.7	
238.27	3383.2	
238.48	2867.2	
238.7	5081	
238.91	4649.6	
239.12	3168.2	
239.33	3230.3	
239.54	4470.7	
239.76	4700.1	
239.97	3237.8	
240.18	3186.6	
240.39	5734.3	
240.6	4891.2	
240.82	3348.4	
241.03	2820.7	
241.24	4718.5	
241.45	5340.4	
241.66	2949.1	
241.87	3423.5	
242.09	5345.9	
242.3	5614.2	
242.51	3463.8	
242.72	3209.2	
242.93	5078.3	
243.14	4716.5	
243.36	3657.7	
243.57	3899.3	
243.78	5374.6	
243.99	4952.7	
244.2	3205.1	
244.41	2898.6	
244.63	4414.7	
244.84	4958.1	
245.05	3393.5	
245.26	3215.3	
245.47	5006.6	
245.68	5162.9	
245.9	4100.7	
246.11	3353.2	
246.32	4642.1	
246.53	5018.9	
246.74	5018.9	
246.95	2745	
247.16	4473.4	
247.38	4764.3	
247.59	2805.7	
247.8	3188	
248.01	4526.7	
248.22	4753.3	
248.43	2973	
248.64	3165.5	
248.86	4371	
249.07	4616.1	
249.28	2895.8	
249.49	3282.2	
249.7	5150.6	
249.91	5218.2	
250.12	2797.5	
250.34	2835.8	
250.55	4903.5	
250.76	4799.8	
250.97	3238.5	
251.18	3364.1	
251.39	5252.4	
251.6	4876.9	
251.81	3362.1	
252.03	3337.5	
252.24	4670.7	
252.45	5136.3	
252.66	2847.4	
252.87	3495.9	
253.08	4805.9	
253.29	5939.1	
253.5	2837.1	
253.72	3896.6	
253.93	4672.8	
254.14	5538.4	
254.35	2985.9	
254.56	3186	
254.77	4941.7	
254.98	4486.4	
255.19	3061.7	
255.41	3777.1	
255.62	4925.4	
255.83	5267.4	
256.04	3396.9	
256.25	3312.9	
256.46	5686.5	
256.67	4519.2	
256.88	3252.9	
257.09	3652.2	
257.31	4455	
257.52	4527.4	
257.73	4079.6	
257.94	3046	
258.15	4732.9	
258.36	4758.8	
258.57	3739.6	
258.78	2546.3	
258.99	5153.4	
259.2	4640	
259.41	3056.9	
259.63	3199.6	
259.84	5434.6	
260.05	5602.6	
260.26	3941	
260.47	3016.7	
260.68	5232.6	
260.89	4720.6	
261.1	3649.5	
261.31	2923.8	
261.52	5291.3	
261.73	5482.4	
261.95	3893.2	
262.16	3415.3	
262.37	5281	
262.58	5399.8	
262.79	3871.3	
263	3084.9	
263.21	4900.1	
263.42	4640	
263.63	3354.6	
263.84	3123.8	
264.05	5152.7	
264.26	5485.1	
264.47	3786.7	
264.69	3318.4	
264.9	5341.1	
265.11	4960.2	
265.32	2975	
265.53	3037.8	
265.74	4863.9	
265.95	4354.7	
266.16	3239.2	
266.37	3566.9	
266.58	4829.1	
266.79	4580.6	
267	3057.6	
267.21	2893.8	
267.42	4430.4	
267.63	4711.7	
267.84	3193.5	
268.06	2803.7	
268.27	5141.8	
268.48	5246.2	
268.69	3137.5	
268.9	3650.2	
269.11	5307.7	
269.32	4382.7	
269.53	3196.9	
269.74	3021.4	
269.95	4960.9	
270.16	4313.7	
270.37	3253.5	
270.58	3665.9	
270.79	4653.7	
271	5142.4	
271.21	3400.3	
271.42	3216	
271.63	4929.5	
271.84	4446.8	
272.05	2642.6	
272.26	2905.4	
272.47	4799.8	
272.68	4907.6	
272.89	3121.1	
273.11	3502.7	
273.32	4615.4	
273.53	5412.1	
273.74	3467.9	
273.95	3329.3	
274.16	5223.7	
274.37	4820.2	
274.58	3489.1	
274.79	2891.7	
275	4951.3	
275.21	5237.3	
275.42	4151.2	
275.63	3548.4	
275.84	4977.2	
276.05	6062	
276.26	3397.6	
276.47	3149.8	
276.68	4631.8	
276.89	5556.1	
277.1	3586.7	
277.31	2843.9	
277.52	4969.7	
277.73	5199.1	
277.94	2845.3	
278.15	3155.9	
278.36	4952.7	
278.57	4569	
278.78	3119.1	
278.99	3422.2	
279.2	4522.6	
279.41	4491.9	
279.62	3963.5	
279.83	2870.6	
280.04	5784.1	
280.25	4447.5	
280.46	3898.6	
280.67	3239.9	
280.88	4515.8	
281.09	5270.8	
281.3	3336.8	
281.51	4114.4	
281.72	4577.2	
281.93	5088.5	
282.14	3018	
282.35	3268.6	
282.56	5195	
282.77	5112.4	
282.98	3179.8	
283.19	3724.6	
283.4	6062.7	
283.61	4716.5	
283.82	2922.5	
284.03	3910.3	
284.24	4919.2	
284.45	5221.6	
284.66	3967.6	
284.87	3724.6	
285.08	5182	
285.29	5342.5	
285.5	2810.5	
285.71	3137.5	
285.92	5209.3	
286.12	5647.6	
286.33	3888.4	
286.54	3144.3	
286.75	5135.6	
286.96	4686.4	
287.17	2923.1	
287.38	3786.7	
287.59	4575.8	
287.8	4577.2	
288.01	3142.9	
288.22	3580.5	
288.43	5066	
288.64	4334.9	
288.85	3677.5	
289.06	3489.1	
289.27	5366.4	
289.48	5434.6	
289.69	3887.7	
289.9	3590.1	
290.11	5276.9	
290.32	4605.2	
290.53	3743	
290.74	3420.1	
290.94	5069.4	
291.15	5165	
291.36	3040.6	
291.57	3531.4	
291.78	4626.4	
291.99	4306.2	
292.2	2933.4	
292.41	3439.9	
292.62	5194.3	
292.83	5023.7	
293.04	4117.8	
293.25	2948.4	
293.46	4655	
293.67	5181.4	
293.88	3026.9	
294.09	2949.1	
294.29	4472.1	
294.5	4821.6	
294.71	3276.8	
294.92	3095.8	
295.13	4614.8	
295.34	5608	
295.55	2798.2	
295.76	2746.3	
295.97	5061.2	
296.18	5626.5	
296.39	2854.2	
296.6	3048.1	
296.81	4794.3	
297.01	5075.5	
297.22	3150.5	
297.43	3043.3	
297.64	4588.8	
297.85	4506.9	
298.06	2609.1	
298.27	2751.1	
298.48	4786.8	
298.69	4530.1	
298.9	3254.2	
299.11	2994.1	
299.31	4437.3	
299.52	4472.8	
299.73	3449.5	
299.94	3388	
300.15	4792.2	
300.36	4504.8	
300.57	3396.2	
300.78	3407.1	
300.99	4657.1	
301.2	4855.7	
301.4	3035.8	
301.61	3248.1	
301.82	4984.1	
302.03	5122.7	
302.24	3587.4	
302.45	2914.3	
302.66	5012.1	
302.87	5289.9	
303.08	3028.3	
303.29	4066.6	
303.49	4638	
303.7	4745.8	
303.91	2710.8	
304.12	3865.2	
304.33	4403.1	
304.54	4872.8	
304.75	3018	
304.96	2884.9	
305.16	5003.9	
305.37	5573.2	
305.58	2705.4	
305.79	2789.3	
306	5033.2	
306.21	4335.5	
306.42	3063.8	
306.63	4417.5	
306.83	4689.2	
307.04	5090.6	
307.25	3297.2	
307.46	3319.1	
307.67	4214.7	
307.88	5055.1	
308.09	3046.7	
308.29	3048.1	
308.5	4865.3	
308.71	5205.3	
308.92	3254.9	
309.13	2931.3	
309.34	4754	
309.55	4700.8	
309.75	3674.7	
309.96	3379.1	
310.17	5068	
310.38	4510.3	
310.59	3552.5	
310.8	3368.2	
311.01	4622.9	
311.21	4694.6	
311.42	2949.1	
311.63	3001	
311.84	4610.7	
312.05	4886.5	
312.26	3379.1	
312.46	3648.8	
312.67	4665.3	
312.88	4440	
313.09	2945	
313.3	2932	
313.51	5350	
313.71	5612.8	
313.92	2973.7	
314.13	3106.1	
314.34	4954.7	
314.55	4769.7	
314.76	3730	
314.96	3251.5	
315.17	4920.6	
315.38	5058.5	
315.59	2980.5	
315.8	2814.6	
316.01	5399.1	
316.21	5502.2	
316.42	2897.2	
316.63	3238.5	
316.84	4667.3	
317.05	5268.1	
317.26	3453.6	
317.46	3123.2	
317.67	4786.1	
317.88	5103.5	
318.09	3635.1	
318.3	2780.5	
318.5	4552.6	
318.71	4953.4	
318.92	4504.8	
319.13	3426.3	
319.34	5140.4	
319.54	5280.3	
319.75	2729.3	
319.96	2663.7	
320.17	5010.7	
320.38	5173.2	
320.58	2739.5	
320.79	3211.2	
321	5224.4	
321.21	5247.6	
321.42	3250.8	
321.62	2730.6	
321.83	4538.3	
322.04	4804.5	
322.25	3119.1	
322.46	2972.3	
322.66	4861.2	
322.87	5025	
323.08	3568.2	
323.29	2893.1	
323.5	5586.9	
323.7	4437.3	
323.91	3878.2	
324.12	3532.7	
324.33	4853	
324.53	5054.4	
324.74	3395.5	
324.95	3558.7	
325.16	4354	
325.37	4639.3	
325.57	2957.9	
325.78	3009.1	
325.99	4853	
326.2	4377.2	
326.4	4012.7	
326.61	2770.9	
326.82	4707.6	
327.03	4883	
327.24	4056.3	
327.44	3788.7	
327.65	5010	
327.86	4182.6	
328.07	3398.3	
328.27	2877.4	
328.48	5283.1	
328.69	4402.5	
328.9	4062.5	
329.1	3124.5	
329.31	4698.7	
329.52	5386.8	
329.73	3005.1	
329.93	3249.4	
330.14	4804.5	
330.35	4955.4	
330.56	4694.6	
330.76	3573.7	
330.97	4625	
331.18	4893.3	
331.39	3278.1	
331.59	2721.1	
331.8	5216.9	
332.01	5292.6	
332.22	3051.5	
332.42	3392.1	
332.63	4850.3	
332.84	4585.4	
333.05	3260.4	
333.25	3009.8	
333.46	4516.5	
333.67	4737.6	
333.88	3093.8	
334.08	3383.2	
334.29	6154.8	
334.5	5246.9	
334.7	2891	
334.91	4040.6	
335.12	4453.6	
335.33	5074.2	
335.53	3212.6	
335.74	4601.8	
335.95	4665.3	
336.16	4465.9	
336.36	3241.3	
336.57	3630.4	
336.78	4399.7	
336.98	5188.2	
337.19	3908.9	
337.4	3101.3	
337.61	5689.9	
337.81	4393.6	
338.02	3024.8	
338.23	3760.8	
338.43	5381.4	
338.64	4502.1	
338.85	3009.8	
339.05	3826.3	
339.26	5412.8	
339.47	4383.3	
339.68	3013.2	
339.88	4237.9	
340.09	5024.3	
340.3	5113.8	
340.5	3392.1	
340.71	2684.2	
340.92	4401.1	
341.13	5325.4	
341.33	2847.4	
341.54	3317	
341.75	4919.2	
341.95	4660.5	
342.16	3300	
342.37	3560.7	
342.57	4467.3	
342.78	4723.3	
342.99	3631	
343.19	2753.2	
343.4	5062.6	
343.61	4960.9	
343.81	3140.9	
344.02	2912.2	
344.23	5072.8	
344.43	5318.6	
344.64	3594.2	
344.85	3485.6	
345.06	5036.6	
345.26	5177.3	
345.47	3407.8	
345.68	3915	
345.88	4313.7	
346.09	5115.1	
346.3	3426.9	
346.5	2635.1	
346.71	4734.2	
346.92	4554.7	
347.12	2807.1	
347.33	3345.7	
347.54	5212.8	
347.74	5464	
347.95	3272.7	
348.16	2594.1	
348.36	4617.5	
348.57	4477.5	
348.78	3402.4	
348.98	3588	
349.19	4699.4	
349.39	4329.4	
349.6	2785.2	
349.81	2991.4	
350.01	4999.1	
350.22	4512.4	
350.43	3284.9	
350.63	3824.9	
350.84	4780	
351.05	4577.2	
351.25	2949.8	
351.46	2768.9	
351.67	5161.6	
351.87	4526.7	
352.08	3198.2	
352.29	3543.7	
352.49	5126.7	
352.7	5013.4	
352.9	2909.5	
353.11	3465.2	
353.32	5547.3	
353.52	4620.9	
353.73	2836.4	
353.94	3584.6	
354.14	5020.3	
354.35	4788.2	
354.55	2971.6	
354.76	3251.5	
354.97	4953.4	
355.17	4730.1	
355.38	2880.1	
355.59	3719.1	
355.79	4485.7	
356	4776.5	
356.2	3257.6	
356.41	2918.4	
356.62	4335.5	
356.82	4715.1	
357.03	3452.2	
357.24	3109.5	
357.44	4461.8	
357.65	4650.9	
357.85	4083.6	
358.06	3285.6	
358.27	4311.7	
358.47	4453	
358.68	2775.7	
358.88	3454.9	
359.09	4959.5	
359.3	5143.8	
359.5	3925.3	
359.71	3489.1	
359.91	5444.9	
360.12	4990.2	
360.33	3418.7	
360.53	3775.1	
360.74	4521.2	
360.94	4572.4	
361.15	3560.1	
361.36	3028.9	
361.56	5165	
361.77	4671.4	
361.97	3931.4	
362.18	3162.1	
362.38	5147.2	
362.59	4465.3	
362.8	2938.2	
363	2854.9	
363.21	4323.3	
363.41	4755.4	
363.62	3276.8	
363.83	4056.3	
364.03	4943.8	
364.24	5542.5	
364.44	4164.9	
364.65	4157.4	
364.85	4689.8	
365.06	4408.6	
365.27	3115.6	
365.47	3137.5	
365.68	5378.6	
365.88	4711.7	
366.09	3393.5	
366.29	3099.3	
366.5	4807.9	
366.71	5132.9	
366.91	4111.6	
367.12	3507.5	
367.32	5584.1	
367.53	5012.7	
367.73	3506.1	
367.94	4265.2	
368.14	5018.9	
368.35	5662	
368.56	3393.5	
368.76	3261	
368.97	5122	
369.17	6287.3	
369.38	3123.8	
369.58	3347.7	
369.79	4365.6	
369.99	5421	
370.2	4114.4	
370.4	3337.5	
370.61	4889.2	
370.82	5805.3	
371.02	3325.2	
371.23	2799.6	
371.43	4418.8	
371.64	5373.9	
371.84	3295.2	
372.05	4132.8	
372.25	6182.8	
372.46	5018.9	
372.66	3304.7	
372.87	3363.4	
373.07	5089.2	
373.28	6281.8	
373.48	4073.4	
373.69	3819.5	
373.9	4741.7	
374.1	4760.2	
374.31	3951.2	
374.51	3619.4	
374.72	5325.4	
374.92	4556.7	
375.13	4055	
375.33	3521.1	
375.54	5026.4	
375.74	4665.3	
375.95	3646.1	
376.15	4495.3	
376.36	5042.1	
376.56	4961.5	
376.77	3631	
376.97	3908.9	
377.18	5873.6	
377.38	5150	
377.59	4154	
377.79	3217.4	
378	4962.2	
378.2	5128.8	
378.41	3267.2	
378.61	3252.2	
378.82	5347.9	
379.02	4740.4	
379.23	3434.4	
379.43	4201.7	
379.64	5462.6	
379.84	5061.9	
380.05	3288.4	
380.25	3219.4	
380.46	5085.8	
380.66	4837.3	
380.87	4298.7	
381.07	4537.6	
381.28	5614.2	
381.48	5104.9	
381.69	3317	
381.89	3331.4	
382.1	4385.4	
382.3	5177.3	
382.51	4106.2	
382.71	4758.8	
382.91	5121.3	
383.12	5487.9	
383.32	3594.9	
383.53	3711.6	
383.73	5040.7	
383.94	4869.4	
384.14	3685	
384.35	3032.4	
384.55	4784.1	
384.76	5100.8	
384.96	3571	
385.17	3796.9	
385.37	5094.7	
385.58	4584.7	
385.78	3805.8	
385.98	2980.5	
386.19	4757.4	
386.39	5053.7	
386.6	3387.3	
386.8	3505.4	
387.01	5109	
387.21	5156.8	
387.42	3815.4	
387.62	4235.9	
387.83	4631.1	
388.03	4965	
388.23	3594.2	
388.44	4146.5	
388.64	4429.8	
388.85	4469.4	
389.05	3780.6	
389.26	4227	
389.46	5927.5	
389.67	5434.6	
389.87	3764.2	
390.07	3826.3	
390.28	4799.1	
390.48	4564.2	
390.69	3310.2	
390.89	3471.3	
391.1	4698.7	
391.3	5332.9	
391.5	4377.9	
391.71	4795.7	
391.91	5173.9	
392.12	5769.8	
392.32	4420.9	
392.53	3736.9	
392.73	4824.3	
392.93	4870.8	
393.14	3577.8	
393.34	4194.2	
393.55	5162.9	
393.75	4847.5	
393.95	3615.3	
394.16	3560.1	
394.36	4693.3	
394.57	5231.2	
394.77	3214.6	
394.98	3488.4	
395.18	4655	
395.38	4716.5	
395.59	4171	
395.79	3436.5	
396	4759.5	
396.2	5118.6	
396.4	3986	
396.61	3952.6	
396.81	5215.5	
397.02	4691.9	
397.22	4136.2	
397.42	4138.3	
397.63	5252.4	
397.83	4644.1	
398.04	3287.7	
398.24	3744.4	
398.44	5065.3	
398.65	4294.6	
398.85	3233.1	
399.05	3267.2	
399.26	4640.7	
399.46	5870.8	
399.67	3595.6	
399.87	3371	
400.07	4912.4	
400.28	5114.5	
400.48	3401	
400.69	4268	
400.89	5561.6	
401.09	5659.9	
401.3	3338.9	
401.5	4150.5	
401.7	5704.3	
401.91	5928.2	
402.11	3664.5	
402.32	3781.9	
402.52	5332.2	
402.72	5226.4	
402.93	3996.3	
403.13	3112.9	
403.33	5952.1	
403.54	4947.9	
403.74	3703.4	
403.94	4364.2	
404.15	5072.1	
404.35	5812.1	
404.56	3590.8	
404.76	4855.7	
404.96	5273.5	
405.17	5155.4	
405.37	4100	
405.57	3799	
405.78	5304.9	
405.98	4909.7	
406.18	3544.4	
406.39	4162.8	
406.59	5330.2	
406.79	5016.2	
407	3349.1	
407.2	3477.5	
407.4	5401.2	
407.61	5477	
407.81	3504.1	
408.01	5145.9	
408.22	4504.8	
408.42	5941.2	
408.62	4235.9	
408.83	3792.8	
409.03	4868.7	
409.23	4840.7	
409.44	3799.7	
409.64	4014	
409.84	5602.6	
410.05	5492.7	
410.25	3981.9	
410.45	3816.7	
410.66	5216.2	
410.86	6985.6	
411.06	4027	
411.27	3980.6	
411.47	6763.1	
411.67	5246.9	
411.88	4174.4	
412.08	4287.8	
412.28	5687.2	
412.49	6088.6	
412.69	3962.1	
412.89	3935.5	
413.09	5939.8	
413.3	5870.2	
413.5	4046.8	
413.7	3681.6	
413.91	5337	
414.11	5910.4	
414.31	3863.8	
414.52	4199.7	
414.72	5720	
414.92	5632.6	
415.12	3878.2	
415.33	4265.9	
415.53	5892.7	
415.73	5938.4	
415.94	4607.2	
416.14	4033.8	
416.34	5150	
416.55	4947.9	
416.75	4998.4	
416.95	4542.4	
417.15	5930.9	
417.36	6362.4	
417.56	5117.2	
417.76	4373.8	
417.97	6107.7	
418.17	5857.2	
418.37	4148.5	
418.57	4146.5	
418.78	5796.4	
418.98	5517.9	
419.18	4785.4	
419.38	4764.9	
419.59	5506.3	
419.79	5225.7	
419.99	4033.1	
420.2	4366.3	
420.4	5914.5	
420.6	5915.9	
420.8	3988.1	
421.01	3874.8	
421.21	5694	
421.41	5861.3	
421.61	4235.9	
421.82	4027.7	
422.02	5414.1	
422.22	6044.9	
422.42	4653.7	
422.63	4390.8	
422.83	5526.1	
423.03	6370.5	
423.23	4429.1	
423.44	3588.7	
423.64	5495.4	
423.84	5313.8	
424.04	3942.3	
424.25	3702	
424.45	6166.4	
424.65	6140.5	
424.85	3562.8	
425.06	4005.1	
425.26	6281.1	
425.46	5406	
425.66	4360.1	
425.87	4080.9	
426.07	5973.2	
426.27	5839.4	
426.47	4248.9	
426.67	3793.5	
426.88	6329.6	
427.08	5856.5	
427.28	4468	
427.48	3725.9	
427.69	5100.1	
427.89	5492	
428.09	4343.7	
428.29	3774.4	
428.5	5977.3	
428.7	5689.9	
428.9	3669.3	
429.1	4042	
429.3	5578.7	
429.51	5805.3	
429.71	3975.1	
429.91	4530.8	
430.11	5867.4	
430.31	5975.3	
430.52	4087.1	
430.72	4334.9	
430.92	6224.5	
431.12	5819	
431.32	3815.4	
431.53	4187.4	
431.73	5012.7	
431.93	6253.1	
432.13	3783.3	
432.33	3722.5	
432.54	5418.2	
432.74	5500.2	
432.94	3656.3	
433.14	4449.6	
433.34	5833.3	
433.55	5447.6	
433.75	4394.3	
433.95	5655.1	
434.15	5695.4	
434.35	5326.1	
434.56	3836.5	
434.76	3424.2	
434.96	5528.8	
435.16	5756.8	
435.36	3670	
435.56	4542.4	
435.77	5295.4	
435.97	5397.1	
436.17	4975.2	
436.37	4452.3	
436.57	5240.1	
436.78	5198.4	
436.98	5792.3	
437.18	4921.3	
437.38	5726.1	
437.58	5357.5	
437.78	5023	
437.99	3975.8	
438.19	5897.5	
438.39	6492.7	
438.59	3944.4	
438.79	3651.5	
438.99	6333	
439.2	5417.6	
439.4	3732.8	
439.6	3638.6	
439.8	5612.1	
440	6399.2	
440.2	4390.2	
440.4	4389.5	
440.61	5848.3	
440.81	6197.2	
441.01	3766.9	
441.21	4405.2	
441.41	6105.7	
441.61	5844.9	
441.81	4629.8	
442.02	5330.2	
442.22	6564.4	
442.42	5939.8	
442.62	3783.3	
442.82	3861.8	
443.02	6247	
443.22	5498.8	
443.43	4129.4	
443.63	3784.6	
443.83	5438.7	
444.03	5415.5	
444.23	4554.7	
444.43	4376.5	
444.63	5705.6	
444.83	6506.4	
445.04	3831.1	
445.24	4801.1	
445.44	5945.3	
445.64	5958.2	
445.84	4552	
446.04	4421.6	
446.24	5384.8	
446.44	6299.6	
446.65	3898.6	
446.85	4184.7	
447.05	5735	
447.25	6146.6	
447.45	4262.5	
447.65	3780.6	
447.85	5763	
448.05	5393	
448.25	4484.4	
448.46	4306.2	
448.66	5735.7	
448.86	5413.5	
449.06	3687	
449.26	4530.8	
449.46	5881.1	
449.66	5193	
449.86	4104.8	
450.06	4149.2	
450.26	5350	
450.47	5866.1	
450.67	4337.6	
450.87	4605.2	
451.07	5944.6	
451.27	5650.3	
451.47	3818.1	
451.67	4218.8	
451.87	5451	
452.07	6413.6	
452.27	3967.6	
452.47	4042.7	
452.67	5733.6	
452.88	5995.1	
453.08	3571.7	
453.28	4977.2	
453.48	6530.3	
453.68	5636	
453.88	3885.7	
454.08	4089.8	
454.28	5930.9	
454.48	5653.1	
454.68	4454.3	
454.88	4767	
455.08	5956.2	
455.28	5718.6	
455.48	3777.1	
455.68	4302.8	
455.89	6309.1	
456.09	6066.8	
456.29	4087.1	
456.49	4151.9	
456.69	6213.5	
456.89	5606	
457.09	4462.5	
457.29	4630.5	
457.49	5836.7	
457.69	5945.9	
457.89	4252.9	
458.09	3868.6	
458.29	5699.5	
458.49	6262.7	
458.69	4511.7	
458.89	4111.6	
459.09	6352.8	
459.29	6417	
459.49	4236.6	
459.69	4781.3	
459.9	6050.4	
460.1	5616.2	
460.3	4177.9	
460.5	3877.5	
460.7	6049	
460.9	5755.5	
461.1	3771.7	
461.3	4666	
461.5	6481.1	
461.7	6199.2	
461.9	3943	
462.1	4350.6	
462.3	5820.3	
462.5	6264.1	
462.7	4047.5	
462.9	4126.7	
463.1	6905.8	
463.3	6718.7	
463.5	4254.3	
463.7	4841.4	
463.9	5957.5	
464.1	6162.3	
464.3	4293.9	
464.5	4457.1	
464.7	6333	
464.9	6083.1	
465.1	5376.6	
465.3	4711	
465.5	6522.1	
465.7	6536.4	
465.9	4884.4	
466.1	4747.9	
466.3	6353.5	
466.5	6360.3	
466.7	5367.7	
466.9	4519.9	
467.1	6324.8	
467.3	6967.9	
467.5	5286.5	
467.7	4438.6	
467.9	7083.2	
468.1	7688.1	
468.3	5011.4	
468.5	5328.8	
468.7	6190.3	
468.9	6142.5	
469.1	4725.3	
469.3	5204.6	
469.5	7649.8	
469.7	5874.3	
469.9	5066.7	
470.1	4525.3	
470.3	6309.8	
470.5	6227.2	
470.7	5505.6	
470.9	4670.1	
471.1	6042.9	
471.3	6397.2	
471.5	4417.5	
471.69	5890	
471.89	6014.2	
472.09	5581.4	
472.29	5023.7	
472.49	5311.7	
472.69	5715.2	
472.89	6373.3	
473.09	4402.5	
473.29	4547.2	
473.49	5917.9	
473.69	6010.1	
473.89	5217.5	
474.09	4575.8	
474.29	6965.8	
474.49	6727.6	
474.69	5203.9	
474.89	4689.2	
475.09	6105	
475.29	5986.9	
475.49	4302.8	
475.69	4444.8	
475.88	7296.9	
476.08	6436.8	
476.28	4306.2	
476.48	4532.8	
476.68	6657.9	
476.88	6517.3	
477.08	4577.2	
477.28	4691.9	
477.48	6247	
477.68	6627.9	
477.88	4375.8	
478.08	4608.6	
478.28	6876.4	
478.48	6247.7	
478.67	4584	
478.87	4180.6	
479.07	6684.6	
479.27	6244.9	
479.47	4781.3	
479.67	4785.4	
479.87	6622.4	
480.07	6939.9	
480.27	4291.9	
480.47	5458.5	
480.67	6341.2	
480.87	6763.1	
481.06	4442	
481.26	5118.6	
481.46	6239.5	
481.66	6230.6	
481.86	4809.3	
482.06	5478.3	
482.26	6029.9	
482.46	6720.8	
482.66	4756.1	
482.86	4409.3	
483.05	6347.3	
483.25	5842.9	
483.45	6611.5	
483.65	4694.6	
483.85	5914.5	
484.05	6193.7	
484.25	5089.9	
484.45	5332.2	
484.65	6759.7	
484.84	6828.6	
485.04	4660.5	
485.24	4727.4	
485.44	7068.2	
485.64	5839.4	
485.84	4126.7	
486.04	5132.2	
486.24	6090	
486.44	6296.8	
486.63	4089.8	
486.83	4734.9	
487.03	6033.3	
487.23	6094.1	
487.43	4207.2	
487.63	5894.7	
487.83	6193.1	
488.02	6695.5	
488.22	4801.8	
488.42	5295.4	
488.62	6809.5	
488.82	6002.6	
489.02	4664.6	
489.22	4655	
489.41	6713.2	
489.61	6479.8	
489.81	4401.8	
490.01	4406.5	
490.21	6617.7	
490.41	7187.7	
490.61	4422.2	
490.8	4462.5	
491	6284.5	
491.2	5867.4	
491.4	4920.6	
491.6	4326.7	
491.8	6391	
491.99	6372.6	
492.19	4201.1	
492.39	4517.8	
492.59	6673	
492.79	6698.2	
492.99	5060.5	
493.18	4399	
493.38	6825.9	
493.58	7152.9	
493.78	4895.3	
493.98	4605.9	
494.18	6457.9	
494.37	5997.1	
494.57	5026.4	
494.77	4890.5	
494.97	6556.2	
495.17	6755.6	
495.37	4613.4	
495.56	4857.1	
495.76	6864.8	
495.96	6623.8	
496.16	5544.5	
496.36	4732.2	
496.55	6802	
496.75	6415.6	
496.95	5091.9	
497.15	4896	
497.35	6746.7	
497.54	6723.5	
497.74	4847.5	
497.94	6191.7	
498.14	7299.6	
498.34	7111.9	
498.53	4493.2	
498.73	5119.2	
498.93	6210.1	
499.13	6723.5	
499.33	4986.8	
499.52	5403.2	
499.72	6691.4	
499.92	6877.8	
500.12	4713.7	
500.32	4930.1	
500.51	6903.7	
500.71	6652.5	
500.91	5541.8	
501.11	5227.8	
501.31	6797.9	
501.5	7101	
501.7	5694.7	
501.9	5001.1	
502.1	6681.8	
502.29	6952.9	
502.49	5300.1	
502.69	5679	
502.89	6812.9	
503.09	6855.2	
503.28	4573.1	
503.48	4713.7	
503.68	6365.8	
503.88	6207.4	
504.07	5334.3	
504.27	5049.6	
504.47	6621.8	
504.67	6675	
504.86	5345.9	
505.06	5116.5	
505.26	6455.9	
505.46	7669.6	
505.65	5052.3	
505.85	5272.2	
506.05	6389.7	
506.25	6756.9	
506.44	4616.8	
506.64	5296	
506.84	6294.1	
507.04	7008.1	
507.23	4770.4	
507.43	5228.5	
507.63	7779.6	
507.83	6424.5	
508.02	5158.2	
508.22	4873.5	
508.42	7992.5	
508.62	6268.1	
508.81	5077.6	
509.01	5499.5	
509.21	6281.1	
509.4	6490	
509.6	5199.1	
509.8	4726.7	
510	6427.9	
510.19	7361.8	
510.39	4726.7	
510.59	4771.8	
510.79	6309.1	
510.98	7283.3	
511.18	4895.3	
511.38	4971.1	
511.57	6980.8	
511.77	6701	
511.97	5404.6	
512.17	4702.8	
512.36	6942.6	
512.56	6749.4	
512.76	4698.7	
512.95	4598.4	
513.15	7007.5	
513.35	5902.2	
513.55	5419.6	
513.74	4763.6	
513.94	6901.7	
514.14	6412.2	
514.33	5459.2	
514.53	5214.8	
514.73	6439.5	
514.92	6530.3	
515.12	4807.3	
515.32	4756.1	
515.51	6660	
515.71	6948.8	
515.91	5997.8	
516.11	4765.6	
516.3	7838.9	
516.5	6359.6	
516.7	5233.9	
516.89	5696.8	
517.09	6421.7	
517.29	6401.3	
517.48	5418.9	
517.68	4939.7	
517.88	6211.5	
518.07	6768.5	
518.27	5378	
518.47	4578.6	
518.66	7159	
518.86	6203.3	
519.06	4551.3	
519.25	4884.4	
519.45	6343.9	
519.65	7398.6	
519.84	5360.9	
520.04	5797.8	
520.24	7727	
520.43	6873.7	
520.63	5175.9	
520.83	4921.3	
521.02	6346	
521.22	6754.2	
521.42	5432.6	
521.61	5806.7	
521.81	6504.3	
522.01	6670.9	
522.2	5261.9	
522.4	5107.6	
522.6	6965.1	
522.79	6030.6	
522.99	5135.6	
523.18	4571.1	
523.38	6713.2	
523.58	6660	
523.77	6055.8	
523.97	4602.5	
524.17	8073.8	
524.36	7507.2	
524.56	5542.5	
524.76	5313.1	
524.95	6584.9	
525.15	6354.2	
525.34	5179.3	
525.54	5121.3	
525.74	6913.3	
525.93	6102.9	
526.13	6049.7	
526.33	5044.1	
526.52	7260	
526.72	6705.7	
526.91	6040.1	
527.11	5384.1	
527.31	7117.4	
527.5	7394.5	
527.7	5369.8	
527.89	4632.5	
528.09	6369.2	
528.29	6780.8	
528.48	5687.2	
528.68	5408.7	
528.87	7034.1	
529.07	7088.7	
529.27	5356.1	
529.46	5057.1	
529.66	6839.5	
529.85	7095.5	
530.05	4941.1	
530.25	5425.1	
530.44	7844.4	
530.64	6760.3	
530.83	5274.2	
531.03	5369.8	
531.23	7189.7	
531.42	6943.3	
531.62	5906.3	
531.81	5264	
532.01	7243.7	
532.21	7460.1	
532.4	5070.1	
532.6	5364.3	
532.79	7891.5	
532.99	7171.3	
533.18	5441.5	
533.38	6060.6	
533.58	6844.3	
533.77	7359	
533.97	5339.7	
534.16	5948	
534.36	7602.7	
534.55	6886.6	
534.75	6126.8	
534.95	5418.9	
535.14	7518.1	
535.34	6844.3	
535.53	5149.3	
535.73	6592.4	
535.92	7906.5	
536.12	6961	
536.31	5238	
536.51	6236.1	
536.71	7288.7	
536.9	6926.2	
537.1	5341.8	
537.29	5537	
537.49	7641.7	
537.68	6828.6	
537.88	5810.8	
538.07	5193	
538.27	7004.7	
538.46	7761.8	
538.66	5098.8	
538.86	5397.1	
539.05	7120.1	
539.25	7355.6	
539.44	5686.5	
539.64	5328.1	
539.83	6900.3	
540.03	7768.6	
540.22	5216.2	
540.42	5352.7	
540.61	7211.6	
540.81	7221.1	
541	5743.9	
541.2	6088.6	
541.39	6826.6	
541.59	7044.3	
541.78	5907.7	
541.98	5334.3	
542.18	6586.3	
542.37	6505.7	
542.57	5595.7	
542.76	5901.6	
542.96	6713.9	
543.15	7195.2	
543.35	5627.1	
543.54	5109.7	
543.74	7340.6	
543.93	7031.4	
544.13	5659.9	
544.32	6371.2	
544.52	7279.2	
544.71	6739.2	
544.91	4937.7	
545.1	5751.4	
545.3	6733.7	
545.49	7144.7	
545.69	4903.5	
545.88	5367.7	
546.08	7960.5	
546.27	7553.6	
546.47	5727.5	
546.66	5201.8	
546.86	7438.2	
547.05	7809.6	
547.24	5364.3	
547.44	5210.7	
547.63	6678.4	
547.83	7423.2	
548.02	5508.4	
548.22	5685.8	
548.41	6528.9	
548.61	7524.9	
548.8	5239.4	
549	5160.9	
549.19	7033.4	
549.39	7301.7	
549.58	5003.2	
549.78	5491.3	
549.97	7353.6	
550.17	6905.8	
550.36	6106.4	
550.55	6788.3	
550.75	6942.6	
550.94	7582.9	
551.14	5169.1	
551.33	5477	
551.53	6505	
551.72	7207.5	
551.92	5551.4	
552.11	5326.8	
552.31	7251.2	
552.5	7178.8	
552.69	6662	
552.89	5053	
553.08	7148.8	
553.28	6980.2	
553.47	5341.1	
553.67	6169.8	
553.86	7645.8	
554.06	6475	
554.25	4827.1	
554.44	5170.4	
554.64	8254.7	
554.83	7894.9	
555.03	5174.5	
555.22	5516.5	
555.42	7418.4	
555.61	7143.3	
555.8	5374.6	
556	5507.7	
556.19	6494.8	
556.39	7335.8	
556.58	5422.3	
556.78	5393.7	
556.97	7090.1	
557.16	6808.1	
557.36	6256.5	
557.55	5142.4	
557.75	6398.5	
557.94	7677.8	
558.13	5168.4	
558.33	5025.7	
558.52	7494.2	
558.72	6614.3	
558.91	5121.3	
559.1	5236	
559.3	6433.4	
559.49	6242.9	
559.69	4837.3	
559.88	5533.6	
560.07	7025.9	
560.27	7443	
560.46	5649	
560.66	5768.4	
560.85	6892.1	
561.04	6304.3	
561.24	5072.8	
561.43	5249.6	
561.63	6471.6	
561.82	6703	
562.01	6182.1	
562.21	5362.3	
562.4	7012.9	
562.59	7834.8	
562.79	5398.4	
562.98	5091.3	
563.18	6987	
563.37	8034.2	
563.56	5660.6	
563.76	5038	
563.95	6520.7	
564.14	6535.8	
564.34	5322.7	
564.53	5185.5	
564.73	6956.9	
564.92	7164.5	
565.11	5424.4	
565.31	4922.6	
565.5	7441.6	
565.69	6542.6	
565.89	5261.2	
566.08	5419.6	
566.27	7282.6	
566.47	7585	
566.66	5825.1	
566.85	4885.1	
567.05	7060	
567.24	6567.2	
567.44	5097.4	
567.63	6081.8	
567.82	7208.8	
568.02	6963.8	
568.21	5109	
568.4	5378	
568.6	6924.9	
568.79	6803.4	
568.98	5000.5	
569.18	5087.8	
569.37	6856.6	
569.56	8366.6	
569.76	5378.6	
569.95	6124.8	
570.14	7170.6	
570.34	6989.7	
570.53	5021.6	
570.72	4973.8	
570.91	7507.2	
571.11	6814.3	
571.3	5379.3	
571.49	6059.3	
571.69	6932.4	
571.88	6556.2	
572.07	5758.2	
572.27	5743.2	
572.46	6466.1	
572.65	7268.9	
572.85	5145.9	
573.04	5401.9	
573.23	7466.9	
573.43	6929	
573.62	5014.8	
573.81	5434.6	
574	7006.1	
574.2	6745.3	
574.39	5229.1	
574.58	5386.2	
574.78	7500.3	
574.97	6962.4	
575.16	5654.4	
575.36	5708.4	
575.55	7344.7	
575.74	7337.2	
575.93	4956.8	
576.13	5776	
576.32	6819.7	
576.51	7200	
576.71	5441.5	
576.9	6320	
577.09	7518.1	
577.28	7062.1	
577.48	5575.3	
577.67	4870.8	
577.86	6941.9	
578.05	7098.9	
578.25	5456.5	
578.44	5464	
578.63	6973.3	
578.83	7885.4	
579.02	4998.4	
579.21	6167.8	
579.4	7070.3	
579.6	6916	
579.79	5565.7	
579.98	7140.6	
580.17	7392.5	
580.37	7419.8	
580.56	5202.5	
580.75	5763	
580.94	7672.4	
581.14	7761.1	
581.33	6025.8	
581.52	5325.4	
581.71	7265.5	
581.91	7810.3	
582.1	5057.1	
582.29	5425.8	
582.48	7012.2	
582.68	6930.3	
582.87	5882.4	
583.06	5532.9	
583.25	7339.9	
583.45	7079.1	
583.64	6043.6	
583.83	6587	
584.02	6976.7	
584.21	7301	
584.41	6030.6	
584.6	5495.4	
584.79	7040.2	
584.98	7599.3	
585.18	5113.8	
585.37	5193.6	
585.56	6750.1	
585.75	7291.5	
585.94	5262.6	
586.14	5751.4	
586.33	7731.1	
586.52	7025.9	
586.71	5627.1	
586.91	5431.9	
587.1	6595.1	
587.29	7370	
587.48	5442.8	
587.67	5358.2	
587.87	7234.1	
588.06	7272.3	
588.25	6313.9	
588.44	5787.6	
588.63	7021.8	
588.83	7362.4	
589.02	5444.2	
589.21	5337.7	
589.4	6916	
589.59	6767.2	
589.78	4816.8	
589.98	5014.8	
590.17	6570.6	
590.36	6918	
590.55	4575.8	
590.74	5270.1	
590.94	7897	
591.13	6875	
591.32	5100.8	
591.51	4713.1	
591.7	7191.8	
591.89	6779.5	
592.09	4782	
592.28	5027.8	
592.47	6251.8	
592.66	7673.7	
592.85	4782	
593.05	4990.2	
593.24	6722.8	
593.43	7392.5	
593.62	5022.3	
593.81	5397.1	
594	6721.4	
594.19	6851.1	
594.39	5018.2	
594.58	4944.5	
594.77	6991.8	
594.96	7393.8	
595.15	4883.7	
595.34	5378	
595.54	6866.8	
595.73	6302.3	
595.92	4478.9	
596.11	5303.6	
596.3	7367.2	
596.49	6393.1	
596.68	5132.9	
596.88	5413.5	
597.07	7154.9	
597.26	6293.4	
597.45	4788.8	
597.64	5633.3	
597.83	6529.6	
598.02	6903	
598.22	4842.1	
598.41	5298.8	
598.6	6794.5	
598.79	6300.2	
598.98	4858.5	
599.17	5561.6	
599.36	6833.4	
599.55	7669.6	
599.74	6361	
599.94	6195.1	
600.13	7283.3	
600.32	6419.7	
600.51	4712.4	
600.7	4842.8	
600.89	7722.9	
601.08	7734.5	
601.27	4667.3	
601.47	5373.9	
601.66	7146.7	
601.85	7650.5	
602.04	5205.9	
602.23	5358.9	
602.42	6470.9	
602.61	6938.5	
602.8	5112.4	
602.99	4875.5	
603.18	6723.5	
603.37	6894.8	
603.57	5403.9	
603.76	5788.9	
603.95	7408.9	
604.14	7116	
604.33	5093.3	
604.52	5242.8	
604.71	7004.7	
604.9	6581.5	
605.09	5675.6	
605.28	5589.6	
605.47	7364.5	
605.66	7034.8	
605.86	5427.1	
606.05	4934.9	
606.24	7389.1	
606.43	6236.7	
606.62	5338.4	
606.81	5818.3	
607	7197.2	
607.19	6679.1	
607.38	4833.9	
607.57	4926.7	
607.76	6462	
607.95	6118.6	
608.14	5290.6	
608.33	5685.8	
608.52	6550.8	
608.72	7149.5	
608.91	4771.1	
609.1	4711.7	
609.29	6573.3	
609.48	6249	
609.67	5403.2	
609.86	4812	
610.05	6309.8	
610.24	6537.8	
610.43	4657.1	
610.62	4421.6	
610.81	7494.2	
611	7226.6	
611.19	4797.7	
611.38	5244.8	
611.57	6817	
611.76	7731.8	
611.95	4635.2	
612.14	4560.8	
612.33	6602.7	
612.52	6298.9	
612.71	5026.4	
612.9	4478.9	
613.09	6021.7	
613.28	7721.5	
613.47	4967	
613.66	5531.6	
613.85	6806.8	
614.04	6365.8	
614.24	4893.3	
614.43	4328.7	
614.62	6903	
614.81	6752.8	
615	5305.6	
615.19	5290.6	
615.38	6327.5	
615.57	6564.4	
615.76	5169.1	
615.95	5901.6	
616.14	6901.7	
616.33	6660	
616.52	5479	
616.71	5571.2	
616.9	6791.7	
617.09	6712.6	
617.28	5002.5	
617.47	5806	
617.66	6223.1	
617.85	6121.4	
618.04	5601.9	
618.22	5164.3	
618.41	6395.1	
618.6	7111.2	
618.79	5204.6	
618.98	4960.2	
619.17	7249.8	
619.36	6057.2	
619.55	5102.9	
619.74	5104.2	
619.93	6781.5	
620.12	6339.8	
620.31	5475.6	
620.5	5570.5	
620.69	7506.5	
620.88	7532.4	
621.07	6119.3	
621.26	5372.5	
621.45	6958.3	
621.64	6913.3	
621.83	5452.4	
622.02	4855.7	
622.21	6959	
622.4	6742.6	
622.59	5872.2	
622.78	5749.3	
622.97	6498.9	
623.16	7256	
623.35	5467.4	
623.54	4861.2	
623.72	6666.1	
623.91	6746	
624.1	5611.4	
624.29	4738.3	
624.48	7610.3	
624.67	7064.8	
624.86	5502.9	
625.05	4844.1	
625.24	7623.9	
625.43	6507.8	
625.62	6765.1	
625.81	5016.2	
626	7217	
626.19	6608.1	
626.38	5586.2	
626.56	5150	
626.75	6502.3	
626.94	7099.6	
627.13	5550.7	
627.32	4618.9	
627.51	7080.5	
627.7	7852.6	
627.89	4720.6	
628.08	5588.2	
628.27	6451.8	
628.46	6620.4	
628.65	4969.7	
628.83	4710.3	
629.02	6996.5	
629.21	6477	
629.4	5303.6	
629.59	5446.9	
629.78	6431.3	
629.97	7189.7	
630.16	5528.8	
630.35	5078.3	
630.54	7570	
630.72	7316.7	
630.91	5116.5	
631.1	5468.8	
631.29	6855.9	
631.48	6933.1	
631.67	5535.7	
631.86	5133.6	
632.05	6607.4	
632.24	6646.3	
632.42	4894	
632.61	5353.4	
632.8	6661.4	
632.99	6370.5	
633.18	5428.5	
633.37	5621	
633.56	6882.5	
633.75	6847	
633.93	5425.1	
634.12	5162.9	
634.31	7557.7	
634.5	7154.2	
634.69	5173.2	
634.88	5609.4	
635.07	6757.6	
635.25	7190.4	
635.44	5799.2	
635.63	5932.3	
635.82	6610.2	
636.01	6163	
636.2	5780.1	
636.39	5485.8	
636.57	7510.6	
636.76	7154.9	
636.95	5031.9	
637.14	6061.3	
637.33	6964.5	
637.52	7578.2	
637.7	4833.2	
637.89	5640.8	
638.08	6626.5	
638.27	7700.4	
638.46	5732.9	
638.65	5913.2	
638.83	7712	
639.02	6552.8	
639.21	5570.5	
639.4	5962.3	
639.59	6904.4	
639.78	6547.4	
639.96	5056.4	
640.15	5090.6	
640.34	6877.1	
640.53	6913.9	
640.72	4980.7	
640.91	5112.4	
641.09	6434.7	
641.28	7387.7	
641.47	5156.8	
641.66	5760.9	
641.85	6870.9	
642.03	7100.3	
642.22	5527.5	
642.41	5226.4	
642.6	6427.9	
642.79	6062	
642.97	5022.3	
643.16	5560.2	
643.35	6449.7	
643.54	6320.7	
643.73	4913.8	
643.91	5617.6	
644.1	6244.9	
644.29	6701.6	
644.48	5044.1	
644.67	5081.7	
644.85	6283.9	
645.04	6655.9	
645.23	4807.9	
645.42	4988.2	
645.6	6349.4	
645.79	7075.7	
645.98	4959.5	
646.17	4270	
646.36	6086.6	
646.54	6541.2	
646.73	5545.9	
646.92	4668	
647.11	6325.5	
647.29	7024.5	
647.48	4768.4	
647.67	4586.1	
647.86	7257.3	
648.05	7152.2	
648.23	4934.9	
648.42	5943.9	
648.61	6802	
648.8	6574	
648.98	4693.3	
649.17	4936.3	
649.36	6200.6	
649.55	5832.6	
649.73	4734.2	
649.92	5339.1	
650.11	6122.1	
650.3	6397.2	
650.48	4914.4	
650.67	4765.6	
650.86	6683.2	
651.05	5816.9	
651.23	4790.2	
651.42	4780.6	
651.61	6207.4	
651.79	6220.4	
651.98	5007.3	
652.17	4663.2	
652.36	6611.5	
652.54	5898.2	
652.73	4739.7	
652.92	4609.3	
653.11	6561	
653.29	6681.2	
653.48	4260.5	
653.67	4917.9	
653.85	6384.2	
654.04	7193.8	
654.23	5020.3	
654.42	4816.1	
654.6	6079.7	
654.79	6570.6	
654.98	4453	
655.16	4853	
655.35	5825.1	
655.54	5625.1	
655.73	4441.4	
655.91	4373.8	
656.1	6561	
656.29	5642.8	
656.47	4085.7	
656.66	5378	
656.85	5947.3	
657.03	5907.7	
657.22	4450.9	
657.41	4470	
657.59	5954.1	
657.78	5860.6	
657.97	4300.7	
658.16	4825.7	
658.34	6497.5	
658.53	6702.3	
658.72	5496.1	
658.9	5898.2	
659.09	6120.7	
659.28	6070.9	
659.46	4615.4	
659.65	4456.4	
659.84	5874.9	
660.02	6381.5	
660.21	4607.9	
660.4	4384	
660.58	6679.1	
660.77	6184.2	
660.96	4888.5	
661.14	4227	
661.33	7012.2	
661.52	6953.5	
661.7	4171.7	
661.89	6799.9	
662.08	5878.4	
662.26	5538.4	
662.45	4427.7	
662.64	4556	
662.82	6400.6	
663.01	5754.8	
663.2	4541.7	
663.38	5119.9	
663.57	6382.2	
663.75	6251.1	
663.94	4706.2	
664.13	5715.9	
664.31	5936.4	
664.5	6429.9	
664.69	4928.8	
664.87	5294	
665.06	5760.3	
665.25	6257.9	
665.43	5520	
665.62	5624.4	
665.8	6410.8	
665.99	5953.4	
666.18	4802.5	
666.36	4830.5	
666.55	6473.6	
666.74	6319.3	
666.92	4576.5	
667.11	5678.3	
667.29	6080.4	
667.48	6389	
667.67	5408.7	
667.85	4698.7	
668.04	6010.8	
668.22	6001.9	
668.41	4803.9	
668.6	4982.7	
668.78	5788.2	
668.97	6057.2	
669.15	5122.7	
669.34	4336.2	
669.53	5891.3	
669.71	6111.8	
669.9	4388.1	
670.08	4936.3	
670.27	5878.4	
670.46	6296.8	
670.64	5075.5	
670.83	5321.3	
671.01	5738.4	
671.2	6225.1	
671.38	4527.4	
671.57	4460.5	
671.76	6758.3	
671.94	7101.7	
672.13	4358.8	
672.31	5162.9	
672.5	6404.7	
672.69	5859.9	
672.87	4490.5	
673.06	4754	
673.24	6293.4	
673.43	5966.4	
673.61	5091.9	
673.8	4699.4	
673.98	6345.3	
674.17	6480.5	
674.36	5237.3	
674.54	5061.9	
674.73	6145.3	
674.91	6489.3	
675.1	4786.8	
675.28	4524.6	
675.47	6062	
675.65	6455.9	
675.84	4723.3	
676.03	5001.1	
676.21	5868.1	
676.4	5484.5	
676.58	5311.1	
676.77	5127.4	
676.95	7030	
677.14	5842.2	
677.32	4426.3	
677.51	4334.9	
677.69	6447.7	
677.88	5755.5	
678.06	4439.3	
678.25	4503.5	
678.44	6055.8	
678.62	5816.9	
678.81	4288.4	
678.99	4986.1	
679.18	6662	
679.36	6322.1	
679.55	4709	
679.73	5135.6	
679.92	6283.2	
680.1	5955.5	
680.29	5626.5	
680.47	4680.3	
680.66	5902.2	
680.84	6465.4	
681.03	4218.1	
681.21	4971.8	
681.4	5941.8	
681.58	5808	
681.77	4531.5	
681.95	4493.2	
682.14	6541.9	
682.32	6747.4	
682.51	5169.8	
682.69	4331.5	
682.88	5862.7	
683.06	6208.1	
683.25	4915.1	
683.43	5251	
683.62	6072.9	
683.8	6384.2	
683.99	5423.7	
684.17	4877.6	
684.36	7081.2	
684.54	6024.4	
684.73	4308.9	
684.91	4405.9	
685.1	6275	
685.28	5838.8	
685.46	4889.2	
685.65	4869.4	
685.83	6406	
686.02	5928.2	
686.2	4463.9	
686.39	4531.5	
686.57	5678.3	
686.76	6787.7	
686.94	4468.7	
687.13	4548.5	
687.31	6259.3	
687.5	5966.4	
687.68	4151.9	
687.86	5019.6	
688.05	7199.3	
688.23	5584.8	
688.42	5074.9	
688.6	4483.7	
688.79	5859.9	
688.97	5844.9	
689.16	4805.2	
689.34	4037.9	
689.52	6381.5	
689.71	6585.6	
689.89	5037.3	
690.08	4474.1	
690.26	6099.5	
690.45	5968.5	
690.63	5194.3	
690.81	4616.1	
691	5991.7	
691.18	5831.2	
691.37	4799.8	
691.55	6341.9	
691.74	5812.1	
691.92	7299	
692.1	4721.9	
692.29	4390.2	
692.47	5950.7	
692.66	5491.3	
692.84	4478.9	
693.02	4905.6	
693.21	5554.8	
693.39	5880.4	
693.58	4937.7	
693.76	4443.4	
693.94	6812.2	
694.13	6625.9	
694.31	4527.4	
694.5	5319.3	
694.68	5737.7	
694.86	6105	
695.05	4829.8	
695.23	4898.7	
695.42	6297.5	
695.6	7998.7	
695.78	5220.3	
695.97	4582	
696.15	6374	
696.34	5900.2	
696.52	4328	
696.7	5087.2	
696.89	6200.6	
697.07	5774.6	
697.25	4979.3	
697.44	6072.2	
697.62	6199.2	
697.81	6365.8	
697.99	4754.7	
698.17	5097.4	
698.36	5767.8	
698.54	6184.2	
698.72	5013.4	
698.91	4303.5	
699.09	5886.5	
699.28	5797.8	
699.46	4804.5	
699.64	4668	
699.83	5748	
700.01	6691.4	
700.19	5264.6	
700.38	4097.3	
700.56	6522.8	
700.74	5774.6	
700.93	4323.3	
701.11	4982	
701.29	6220.4	
701.48	6980.8	
701.66	4493.9	
701.84	4582.7	
702.03	5883.1	
702.21	6389.7	
702.39	4205.2	
702.58	4672.1	
702.76	6251.1	
702.94	6272.2	
703.13	4234.5	
703.31	6023.1	
703.49	5752.1	
703.68	6561.7	
703.86	4384.7	
704.04	5160.9	
704.23	6115.2	
704.41	6378.1	
704.59	4536.3	
704.78	5368.4	
704.96	7299.6	
705.14	6410.8	
705.33	4434.5	
705.51	5016.8	
705.69	5906.3	
705.87	6637.5	
706.06	5165	
706.24	4401.1	
706.42	6188.3	
706.61	6407.4	
706.79	5133.6	
706.97	4326.7	
707.16	5782.8	
707.34	6186.9	
707.52	5158.2	
707.7	4508.3	
707.89	5804.6	
708.07	5676.3	
708.25	5173.9	
708.44	5392.3	
708.62	5722	
708.8	6687.3	
708.98	5319.9	
709.17	4562.9	
709.35	6130.3	
709.53	6085.2	
709.72	4339	
709.9	4740.4	
710.08	6399.2	
710.26	6410.1	
710.45	5556.1	
710.63	4630.5	
710.81	6059.3	
710.99	6128.2	
711.18	5085.8	
711.36	4700.1	
711.54	5983.5	
711.72	6459.3	
711.91	4757.4	
712.09	4336.9	
712.27	6057.2	
712.45	6474.3	
712.64	4942.4	
712.82	4219.5	
713	5651	
713.18	5813.5	
713.37	4302.8	
713.55	5186.1	
713.73	6386.9	
713.91	5434.6	
714.1	4567	
714.28	4240	
714.46	6128.9	
714.64	5653.8	
714.83	3805.1	
715.01	4471.4	
715.19	5742.5	
715.37	5157.5	
715.55	4123.2	
715.74	4302.1	
715.92	6297.5	
716.1	4754	
716.28	5184.1	
716.47	4463.9	
716.65	5474.2	
716.83	5487.9	
717.01	4351.3	
717.19	4378.6	
717.38	6987	
717.56	5173.9	
717.74	4545.1	
717.92	3863.8	
718.1	6135	
718.29	5497.4	
718.47	3608.5	
718.65	4054.3	
718.83	6031.3	
719.01	5874.9	
719.2	3565.5	
719.38	4323.9	
719.56	5714.5	
719.74	6830	
719.92	4066.6	
720.11	4812	
720.29	5849	
720.47	5179.3	
720.65	3747.1	
720.83	4360.1	
721.02	5425.8	
721.2	5272.8	
721.38	4415.4	
721.56	3834.5	
721.74	4808.6	
721.92	4972.5	
722.11	4740.4	
722.29	4495.3	
722.47	5943.9	
722.65	5360.2	
722.83	3844	
723.01	4553.3	
723.2	5335.6	
723.38	5513.8	
723.56	3454.9	
723.74	4367.6	
723.92	4988.2	
724.1	5781.4	
724.29	3826.3	
724.47	4662.5	
724.65	5063.3	
724.83	4997	
725.01	3708.9	
725.19	4354.7	
725.37	4990.2	
725.56	5038.7	
725.74	3694.5	
725.92	3754.6	
726.1	5007.3	
726.28	5224.4	
726.46	4105.5	
726.64	3876.1	
726.83	5268.1	
727.01	5408	
727.19	3584.6	
727.37	4219.5	
727.55	5307	
727.73	5702.2	
727.91	3594.9	
728.09	3454.9	
728.28	5727.5	
728.46	5958.2	
728.64	4273.4	
728.82	4235.2	
729	6429.3	
729.18	5969.8	
729.36	3575.8	
729.54	5332.2	
729.72	6675	
729.91	5288.5	
730.09	5073.5	
730.27	4158.1	
730.45	5224.4	
730.63	5741.8	
730.81	4612.7	
730.99	3846.1	
731.17	6180.1	
731.35	5063.9	
731.53	4250.9	
731.71	3921.2	
731.9	6000.5	
732.08	6004	
732.26	4183.3	
732.44	3928.7	
732.62	6092.7	
732.8	5683.1	
732.98	4398.4	
733.16	3782.6	
733.34	5753.4	
733.52	4729.4	
733.7	4161.5	
733.88	4299.4	
734.07	5573.9	
734.25	5418.9	
734.43	3694.5	
734.61	4831.8	
734.79	6556.2	
734.97	5320.6	
735.15	3884.3	
735.33	4099.4	
735.51	5598.5	
735.69	5319.3	
735.87	4887.8	
736.05	4196.3	
736.23	5432.6	
736.41	5186.8	
736.59	4059.8	
736.77	4179.2	
736.95	5797.8	
737.13	5292	
737.32	3845.4	
737.5	3930.7	
737.68	6160.3	
737.86	5292	
738.04	3627.6	
738.22	5088.5	
738.4	5144.5	
738.58	5423.7	
738.76	4091.2	
738.94	3375.1	
739.12	5264	
739.3	5088.5	
739.48	4560.1	
739.66	4367	
739.84	5342.5	
740.02	5390.9	
740.2	3430.3	
740.38	3716.4	
740.56	5599.8	
740.74	4754.7	
740.92	4195.6	
741.1	4108.9	
741.28	5210	
741.46	5077.6	
741.64	3913	
741.82	4237.2	
742	5316.5	
742.18	5229.8	
742.36	3981.3	
742.54	3680.9	
742.72	5710.4	
742.9	4698	
743.08	4308.2	
743.26	3351.8	
743.44	5850.4	
743.62	5707	
743.8	4419.5	
743.98	3705.5	
744.16	5508.4	
744.34	5264	
744.52	4257.7	
744.7	4268	
744.88	5592.3	
745.06	5191.6	
745.24	4308.2	
745.42	4436.6	
745.6	5716.6	
745.78	5550.7	
745.96	3494.5	
746.14	3715.7	
746.32	6272.9	
746.5	5633.3	
746.68	4117.1	
746.86	3745.1	
747.03	5889.3	
747.21	4725.3	
747.39	4159.4	
747.57	3721.8	
747.75	5379.3	
747.93	5637.4	
748.11	3694.5	
748.29	3635.1	
748.47	6541.2	
748.65	5127.4	
748.83	4239.3	
749.01	4057	
749.19	5513.1	
749.37	4820.2	
749.55	3919.1	
749.73	4012	
749.91	5293.3	
750.09	5118.6	
750.26	4056.3	
750.44	3567.6	
750.62	5284.4	
750.8	5187.5	
750.98	3519.8	
751.16	3714.3	
751.34	5478.3	
751.52	4775.9	
751.7	4347.8	
751.88	3406.5	
752.06	5720	
752.24	5452.4	
752.42	3452.2	
752.59	3693.2	
752.77	5255.8	
752.95	6120.7	
753.13	4255.7	
753.31	3795.6	
753.49	4978.6	
753.67	5388.2	
753.85	4088.4	
754.03	3703.4	
754.21	5528.2	
754.38	5810.8	
754.56	3830.4	
754.74	3147	
754.92	4982	
755.1	5459.9	
755.28	3166.2	
755.46	3201	
755.64	6113.2	
755.82	6247	
755.99	3508.2	
756.17	3524.6	
756.35	4364.2	
756.53	5531.6	
756.71	2715.6	
756.89	3442	
757.07	5225.1	
757.25	4569	
757.42	3811.3	
757.6	4397	
757.78	5287.9	
757.96	4436.6	
758.14	3599.6	
758.32	3203.7	
758.5	4164.2	
758.67	4782	
758.85	3419.4	
759.03	3533.4	
759.21	4967.7	
759.39	4457.7	
759.57	3160	
759.75	3938.2	
759.92	5498.1	
760.1	4952.7	
760.28	4194.2	
760.46	4450.2	
760.64	4728.1	
760.82	4508.9	
760.99	4075.5	
761.17	3467.9	
761.35	5317.9	
761.53	4501.4	
761.71	3547.8	
761.89	4111.6	
762.06	5209.3	
762.24	4792.2	
762.42	3628.3	
762.6	3380.5	
762.78	4781.3	
762.96	5279	
763.13	3877.5	
763.31	3656.3	
763.49	5346.6	
763.67	4717.2	
763.85	4248.9	
764.02	4677.6	
764.2	5650.3	
764.38	4883.7	
764.56	3521.8	
764.74	4175.1	
764.91	5726.8	
765.09	4829.8	
765.27	3388	
765.45	3156.6	
765.63	5765.7	
765.8	5592.3	
765.98	3032.4	
766.16	3257.6	
766.34	4530.8	
766.52	4361.5	
766.69	3935.5	
766.87	3128.6	
767.05	4878.3	
767.23	5447.6	
767.41	3326.6	
767.58	3594.2	
767.76	5329.5	
767.94	5331.5	
768.12	3458.3	
768.29	3975.1	
768.47	4883.7	
768.65	5419.6	
768.83	3164.1	
769	3978.5	
769.18	4607.2	
769.36	5167	
769.54	4000.4	
769.72	3200.3	
769.89	5443.5	
770.07	5467.4	
770.25	3495.9	
770.43	4456.4	
770.6	5947.3	
770.78	6286.6	
770.96	3593.5	
771.14	4089.1	
771.31	5292.6	
771.49	4820.9	
771.67	3022.1	
771.85	3153.2	
772.02	4300.7	
772.2	4764.3	
772.38	3789.4	
772.55	3360	
772.73	5052.3	
772.91	4844.1	
773.09	3658.4	
773.26	3762.8	
773.44	5042.1	
773.62	4774.5	
773.8	3242.6	
773.97	3101.3	
774.15	5047.6	
774.33	4814.8	
774.5	3195.5	
774.68	3459.7	
774.86	5218.9	
775.04	4837.3	
775.21	3259.7	
775.39	3254.2	
775.57	5042.8	
775.74	5269.4	
775.92	3180.5	
776.1	3053.5	
776.27	4963.6	
776.45	5908.4	
776.63	3300	
776.81	2927.9	
776.98	4731.5	
777.16	5539.8	
777.34	3366.9	
777.51	3616	
777.69	4756.1	
777.87	4551.3	
778.04	3401.7	
778.22	3903.4	
778.4	4586.8	
778.57	5092.6	
778.75	2891	
778.93	3052.2	
779.1	4518.5	
779.28	4286.4	
779.46	2919.7	
779.64	3179.1	
779.81	5238	
779.99	5821	
780.17	3847.5	
780.34	3925.3	
780.52	4842.8	
780.69	4913.1	
780.87	3512.3	
781.05	3158.7	
781.22	4868.7	
781.4	4906.3	
781.58	3336.1	
781.75	2653.5	
781.93	4914.4	
782.11	4397.7	
782.28	3973.7	
782.46	3257	
782.64	4304.8	
782.81	4982.7	
782.99	3399.6	
783.17	3313.6	
783.34	4885.1	
783.52	4390.2	
783.69	3468.6	
783.87	4147.8	
784.05	4457.7	
784.22	4424.3	
784.4	4089.8	
784.58	3574.4	
784.75	5227.8	
784.93	4524	
785.1	3316.3	
785.28	3784	
785.46	4963.6	
785.63	4414.1	
785.81	3307.5	
785.99	3151.8	
786.16	4635.2	
786.34	4865.3	
786.51	3239.2	
786.69	3503.4	
786.87	4212.7	
787.04	4640	
787.22	3122.5	
787.39	3812	
787.57	4479.6	
787.75	5264.6	
787.92	3966.2	
788.1	3892.5	
788.27	4409.3	
788.45	4253.6	
788.63	3714.3	
788.8	2718.3	
788.98	4799.1	
789.15	4144.4	
789.33	2872.6	
789.5	3337.5	
789.68	5152	
789.86	5225.7	
790.03	3671.3	
790.21	3202.3	
790.38	5219.6	
790.56	4588.8	
790.73	3141.6	
790.91	3076	
791.09	4505.5	
791.26	5005.2	
791.44	3341.6	
791.61	2899.9	
791.79	4518.5	
791.96	4480.3	
792.14	2966.1	
792.32	2669.2	
792.49	4493.9	
792.67	4575.2	
792.84	3073.3	
793.02	2891	
793.19	4874.2	
793.37	5343.2	
793.54	2689	
793.72	2894.5	
793.89	5356.1	
794.07	4429.8	
794.25	3342.3	
794.42	2739.5	
794.6	5251	
794.77	4950.6	
794.95	3579.8	
795.12	3199.6	
795.3	4451.6	
795.47	4894.6	
795.65	3472	
795.82	3416.7	
796	4302.1	
796.17	5698.8	
796.35	3261.7	
796.52	3792.2	
796.7	4848.2	
796.87	4962.2	
797.05	3251.5	
797.22	3869.3	
797.4	4952.7	
797.57	5718.6	
797.75	3439.9	
797.92	3149.1	
798.1	5204.6	
798.27	4360.1	
798.45	2746.3	
798.62	2909.5	
798.8	4700.1	
798.97	5132.2	
799.15	3511.6	
799.32	3389.4	
799.5	4098.7	
799.67	4717.8	
799.85	3635.8	
800.02	2716.3	
800.2	4457.1	
800.37	4633.9	
800.55	3792.8	
800.72	3178.4	
800.9	5055.1	
801.07	5326.8	
801.25	4158.1	
801.42	3440.6	
801.6	5094	
801.77	4757.4	
801.95	3280.8	
802.12	3088.3	
802.29	4886.5	
802.47	4792.9	
802.64	3496.6	
802.82	2675.3	
802.99	4455.7	
803.17	5181.4	
803.34	3322.5	
803.52	3036.5	
803.69	5660.6	
803.87	4259.1	
804.04	3313.6	
804.21	3388	
804.39	5295.4	
804.56	4588.8	
804.74	2914.3	
804.91	3473.4	
805.09	4435.2	
805.26	4547.2	
805.44	2949.1	
805.61	3211.2	
805.78	4975.9	
805.96	4952	
806.13	3458.3	
806.31	3723.9	
806.48	4076.1	
806.66	4436.6	
806.83	3476.1	
807	3375.1	
807.18	4486.4	
807.35	4775.9	
807.53	3309.5	
807.7	2797.5	
807.87	5295.4	
808.05	4474.8	
808.22	3657	
808.4	2753.8	
808.57	4431.1	
808.74	4160.8	
808.92	3144.3	
809.09	3824.2	
809.27	4418.8	
809.44	4877.6	
809.61	2777.7	
809.79	3061.7	
809.96	5381.4	
810.14	4941.1	
810.31	2752.5	
810.48	3321.1	
810.66	4489.1	
810.83	5000.5	
811.01	3155.2	
811.18	3411.9	
811.35	5082.4	
811.53	4024.3	
811.7	3731.4	
811.87	3479.5	
812.05	4508.3	
812.22	4416.1	
812.39	3033	
812.57	2970.2	
812.74	4508.3	
812.92	5757.5	
813.09	3310.9	
813.26	3498.6	
813.44	5547.3	
813.61	4412.7	
813.78	2803.7	
813.96	3545.7	
814.13	4493.2	
814.3	4229.7	
814.48	3902.7	
814.65	3241.3	
814.82	5361.6	
815	4305.5	
815.17	3332	
815.34	3970.3	
815.52	4432.5	
815.69	4411.3	
815.87	3271.3	
816.04	3277.4	
816.21	4465.3	
816.38	4028.4	
816.56	3269.2	
816.73	3038.5	
816.9	5544.5	
817.08	5005.2	
817.25	3087	
817.42	3760.8	
817.6	4124.6	
817.77	4452.3	
817.94	3425.6	
818.12	3060.3	
818.29	4272.7	
818.46	6304.3	
818.64	3142.3	
818.81	2984.6	
818.98	4283	
819.16	5868.1	
819.33	3554.6	
819.5	3364.1	
819.67	4770.4	
819.85	5203.2	
820.02	3287	
820.19	3477.5	
820.37	4707.6	
820.54	4457.7	
820.71	3362.1	
820.88	4126	
821.06	4618.9	
821.23	4330.1	
821.4	3453.6	
821.58	3397.6	
821.75	5018.2	
821.92	4657.1	
822.09	2845.3	
822.27	3035.1	
822.44	4483.7	
822.61	4327.4	
822.79	2792.7	
822.96	5091.9	
823.13	4776.5	
823.3	4214	
823.48	3176.4	
823.65	2910.2	
823.82	5061.2	
823.99	4154	
824.17	3975.1	
824.34	2913.6	
824.51	5705.6	
824.68	4465.3	
824.86	3091.8	
825.03	3390.8	
825.2	4516.5	
825.37	5280.3	
825.55	3102	
825.72	3375.1	
825.89	5677.7	
826.06	5320.6	
826.24	3276.8	
826.41	3282.9	
826.58	5386.2	
826.75	4706.9	
826.92	2683.5	
827.1	2944.3	
827.27	7021.8	
827.44	5666.7	
827.61	3128.6	
827.79	3782.6	
827.96	4308.9	
828.13	4500.1	
828.3	3269.9	
828.47	2780.5	
828.65	4755.4	
828.82	4631.1	
828.99	4048.2	
829.16	3576.4	
829.34	5032.5	
829.51	4790.2	
829.68	3299.3	
829.85	3407.8	
830.02	5307	
830.2	4989.5	
830.37	2673.3	
830.54	3947.8	
830.71	5552	
830.88	4467.3	
831.05	2682.8	
831.23	3031	
831.4	5442.1	
831.57	5942.5	
831.74	3138.2	
831.91	2774.3	
832.09	4775.9	
832.26	4994.3	
832.43	3232.4	
832.6	3537.5	
832.77	4738.3	
832.94	5332.2	
833.12	2575.7	
833.29	3096.5	
833.46	4802.5	
833.63	6081.8	
833.8	3454.2	
833.97	3215.3	
834.15	5042.8	
834.32	4854.4	
834.49	3330	
834.66	3445.4	
834.83	5151.3	
835	4358.8	
835.17	3095.2	
835.35	3136.8	
835.52	4938.3	
835.69	4869.4	
835.86	3277.4	
836.03	2747.7	
836.2	4992.3	
836.37	4684.4	
836.55	3186	
836.72	3068.5	
836.89	4623.6	
837.06	5089.2	
837.23	3249.4	
837.4	3452.9	
837.57	5619.6	
837.75	6064.7	
837.92	2988	
838.09	3132	
838.26	4643.4	
838.43	5240.1	
838.6	3328.6	
838.77	3041.2	
838.94	5826.5	
839.11	5664.7	
839.29	3165.5	
839.46	2508.8	
839.63	5037.3	
839.8	4756.1	
839.97	3110.2	
840.14	3088.3	
840.31	4830.5	
840.48	5061.2	
840.65	2677.4	
840.82	3087	
841	5021.6	
841.17	4913.1	
841.34	2872.6	
841.51	2950.4	
841.68	4945.8	
841.85	4725.3	
842.02	3021.4	
842.19	2534	
842.36	4807.9	
842.53	4812	
842.7	2762.7	
842.87	3446	
843.05	6070.9	
843.22	4739.7	
843.39	2745.6	
843.56	2975.7	
843.73	4669.4	
843.9	5039.4	
844.07	4448.9	
844.24	3771	
844.41	6814.3	
844.58	4369.7	
844.75	2796.8	
844.92	3017.3	
845.09	4913.1	
845.26	4937.7	
845.43	2867.2	
845.6	3041.9	
845.77	4971.8	
845.94	4835.9	
846.12	3149.1	
846.29	3308.8	
846.46	5177.3	
846.63	4997.7	
846.8	2862.4	
846.97	3351.2	
847.14	5327.4	
847.31	4943.1	
847.48	3204.4	
847.65	3500	
847.82	5083.1	
847.99	5131.5	
848.16	3748.5	
848.33	3502.7	
848.5	4607.2	
848.67	5337	
848.84	2830.3	
849.01	2984.6	
849.18	4511.7	
849.35	4315.1	
849.52	3483.6	
849.69	2793.4	
849.86	5154.7	
850.03	5240.8	
850.2	2871.9	
850.37	3468.6	
850.54	5240.1	
850.71	4745.8	
850.88	3395.5	
851.05	2840.5	
851.22	4934.9	
851.39	5356.8	
851.56	2683.5	
851.73	3286.3	
851.9	4448.9	
852.07	5166.3	
852.24	3179.1	
852.41	2900.6	
852.58	4889.2	
852.75	4438.6	
852.92	3187.3	
853.09	2789.3	
853.26	4644.1	
853.43	5313.1	
853.6	2858.3	
853.77	2502.6	
853.94	5381.4	
854.11	4403.8	
854.28	4132.8	
854.44	3067.9	
854.61	5694.7	
854.78	5205.9	
854.95	2859	
855.12	3520.5	
855.29	4121.9	
855.46	5642.2	
855.63	2880.1	
855.8	3838.6	
855.97	4593.6	
856.14	5229.1	
856.31	4005.1	
856.48	3111.5	
856.65	4704.9	
856.82	4397.7	
856.99	2812.5	
857.16	3067.2	
857.33	5880.4	
857.49	4700.1	
857.66	3093.1	
857.83	3254.2	
858	4704.2	
858.17	4912.4	
858.34	2767.5	
858.51	2901.3	
858.68	5479.7	
858.85	5457.2	
859.02	3280.2	
859.19	3453.6	
859.36	4442	
859.52	4446.1	
859.69	2865.1	
859.86	3332	
860.03	4498	
860.2	5444.2	
860.37	2647.3	
860.54	2891	
860.71	5106.3	
860.88	5414.1	
861.05	3197.6	
861.21	3587.4	
861.38	5444.9	
861.55	4283	
861.72	2643.2	
861.89	3156.6	
862.06	5154.7	
862.23	5492.7	
862.4	2817.3	
862.56	2968.2	
862.73	5082.4	
862.9	4795	
863.07	3299.3	
863.24	2615.9	
863.41	4392.9	
863.58	4464.6	
863.75	2915.6	
863.91	3250.1	
864.08	5320.6	
864.25	5069.4	
864.42	3491.1	
864.59	3979.9	
864.76	5653.1	
864.93	4443.4	
865.09	2770.9	
865.26	3056.3	
865.43	5356.1	
865.6	5641.5	
865.77	2519.7	
865.94	2790	
866.1	5341.8	
866.27	5116.5	
866.44	4227.7	
866.61	2787.3	
866.78	4749.9	
866.95	5060.5	
867.11	2783.9	
867.28	2550.4	
867.45	5324.7	
867.62	4444.8	
867.79	3194.8	
867.96	2854.9	
868.12	4379.9	
868.29	5182.7	
868.46	2854.9	
868.63	3722.5	
868.8	5289.2	
868.97	5057.8	
869.13	2938.8	
869.3	3003	
869.47	4919.9	
869.64	5198.4	
869.81	2902.7	
869.97	2898.6	
870.14	4904.9	
870.31	5440.8	
870.48	2812.5	
870.65	3529.3	
870.81	4787.5	
870.98	4695.3	
871.15	3226.9	
871.32	2976.4	
871.48	5085.8	
871.65	5472.9	
871.82	2863.1	
871.99	3113.6	
872.16	5860.6	
872.32	5371.8	
872.49	2887	
872.66	2950.4	
872.83	5182.7	
872.99	4573.8	
873.16	3293.1	
873.33	2868.5	
873.5	4849.6	
873.67	4932.9	
873.83	2970.2	
874	3740.3	
874.17	4977.2	
874.34	5687.2	
874.5	3657	
874.67	3470.6	
874.84	5384.1	
875.01	4320.5	
875.17	3908.2	
875.34	2869.2	
875.51	4871.4	
875.68	5756.2	
875.84	3365.5	
876.01	4095.3	
876.18	5029.8	
876.34	5055.1	
876.51	2869.2	
876.68	2794.1	
876.85	4680.3	
877.01	5373.9	
877.18	3948.5	
877.35	2809.1	
877.52	4902.2	
877.68	4411.3	
877.85	2794.1	
878.02	2837.1	
878.18	4699.4	
878.35	4588.1	
878.52	2340.1	
878.69	3166.8	
878.85	5237.3	
879.02	5054.4	
879.19	3930.1	
879.35	3046.7	
879.52	5162.9	
879.69	5266	
879.86	2543.6	
880.02	3185.3	
880.19	4829.8	
880.36	5727.5	
880.52	3246	
880.69	3370.3	
880.86	5188.9	
881.02	5197.1	
881.19	3149.8	
881.36	3087.7	
881.52	5028.4	
881.69	4534.9	
881.86	3063.1	
882.02	2977.7	
882.19	5296	
882.36	6064.7	
882.52	2963.4	
882.69	3911.6	
882.86	4948.6	
883.02	4885.1	
883.19	3390.1	
883.36	3223.5	
883.52	5172.5	
883.69	5799.2	
883.86	2878.8	
884.02	2573.6	
884.19	5100.8	
884.36	4790.9	
884.52	3197.6	
884.69	3084.2	
884.86	4572.4	
885.02	5590.3	
885.19	3153.9	
885.36	3254.9	
885.52	4780.6	
885.69	4967.7	
885.86	4055.7	
886.02	3545	
886.19	5123.3	
886.35	4616.8	
886.52	3158	
886.69	3855	
886.85	4364.2	
887.02	5367	
887.19	5367	
887.35	5367	
887.52	5367	
887.68	5367	
887.85	5367	
888.02	5367	
888.18	5367	
888.35	5367	
888.51	5367	
888.68	5367	
888.85	5367	
889.01	5367	
889.18	5367	
889.35	5367	
889.51	5367	
889.68	5367	
889.84	5367	
890.01	5367	
890.17	5367	
890.34	5367	
890.51	5367	
890.67	5367	
890.84	5367	
891	5367	
891.17	5367	
891.34	5367	
891.5	5367	
891.67	5367	
891.83	5367	
892	5367	
892.16	5367	
892.33	5367	
892.5	5367	
892.66	5367	
892.83	5367	
892.99	5367	
893.16	5367	
893.32	5367	
893.49	5367	
893.65	5367	
893.82	5367	
893.99	5367	
894.15	5367	
894.32	5367	
894.48	5367	
894.65	5367	
894.81	5367	
894.98	5367	
895.14	5367	
895.31	5367	
895.47	5367	
895.64	5367	
895.81	5367	
895.97	5367	
896.14	5367	
896.3	5367	
896.47	5367	
896.63	5367	
896.8	5367	
896.96	5367	
897.13	5367	
897.29	5367	
897.46	5367	
897.62	5367	
897.79	5367	
897.95	5367	
898.12	5367	
898.28	5367	
898.45	5367	
898.61	5367	
898.78	5367	
898.94	5367	
899.11	5367	
899.27	5367	
899.44	5367	
899.6	5367	
899.77	5367	
899.93	5367	
900.1	5367	
900.26	5367	
900.43	5367	
900.59	5367	
900.76	5367	
900.92	5367	
901.09	5367	
901.25	5367	
901.42	5367	
901.58	5367	
901.75	5367	
901.91	5367	
902.07	5367	
902.24	5367	
902.4	5367	
902.57	5367	
902.73	5367	
902.9	5367	
903.06	5367	
903.23	5367	
903.39	5367	
903.56	5367	
903.72	5367	
903.88	5367	
904.05	5367	
904.21	5367	
904.38	5367	
904.54	5367	
904.71	5367	
904.87	5367	
905.03	5367	
905.2	5367	
905.36	5367	
905.53	5367	
905.69	5367	
905.86	5367	
906.02	5367	
906.18	5367	
906.35	5367	
906.51	5367	
906.68	5367	
906.84	5367	
907.01	5367	
907.17	5367	
907.33	5367	
907.5	5367	
907.66	5367	
907.83	5367	
907.99	5367	
908.15	5367	
908.32	5367	
908.48	5367	
908.65	5367	
908.81	5367	
908.97	5367	
909.14	5367	
909.3	5367	
909.47	5367	
909.63	5367	
909.79	5367	
909.96	5367	
910.12	5367	
910.28	5367	
910.45	5367	
910.61	5367	
910.78	5367	
910.94	5367	
911.1	5367	
911.27	5367	
911.43	5367	
911.59	5367	
911.76	5367	
911.92	5367	
912.08	5367	
912.25	5367	
912.41	5367	
912.57	5367	
912.74	5367	
912.9	5367	
913.07	5367	
913.23	5367	
913.39	5367	
913.56	5367	
913.72	5367	
913.88	5367	
914.05	5367	
914.21	5367	
914.37	5367	
914.54	5367	
914.7	5367	
914.86	5367	
915.03	5367	
915.19	5367	
