Wavelength	Intensities	
nm	a.u.	
179.22	1540.4	
179.44	1548.9	
179.65	1531.9	
179.86	1566	
180.08	1602.2	
180.29	3370.3	
180.51	2722.4	
180.72	4622.9	
180.94	4970.4	
181.15	2448.7	
181.37	2411.8	
181.58	4344.4	
181.79	4601.8	
182.01	2510.1	
182.22	2592	
182.44	4577.9	
182.65	4025.6	
182.87	3097.9	
183.08	2834.4	
183.29	4764.3	
183.51	4104.8	
183.72	2606.4	
183.94	3526.6	
184.15	4421.6	
184.37	4225.6	
184.58	2401.6	
184.79	2975	
185.01	4182	
185.22	4650.3	
185.44	3119.7	
185.65	2752.5	
185.86	4378.6	
186.08	4041.3	
186.29	2400.9	
186.51	2453.5	
186.72	4126	
186.94	4714.4	
187.15	2768.9	
187.36	2859	
187.58	5616.9	
187.79	4452.3	
188.01	2908.1	
188.22	4229.7	
188.43	5067.4	
188.65	4567.7	
188.86	2529.2	
189.08	2879.4	
189.29	4231.8	
189.5	4229.7	
189.72	2564.7	
189.93	2665.8	
190.15	4693.9	
190.36	5249.6	
190.57	2826.9	
190.79	2763.4	
191	4668.7	
191.22	4685.1	
191.43	2895.1	
191.64	2525.1	
191.86	4807.9	
192.07	4622.9	
192.29	2572.2	
192.5	2658.9	
192.71	4677.6	
192.93	4265.9	
193.14	2594.1	
193.35	2694.4	
193.57	4186.7	
193.78	4615.4	
194	2226.1	
194.21	2614.6	
194.42	4040.6	
194.64	4367.6	
194.85	2840.5	
195.07	3166.8	
195.28	4274.8	
195.49	3930.1	
195.71	3334.8	
195.92	2536.8	
196.13	4513.7	
196.35	4472.8	
196.56	3485	
196.78	2792.7	
196.99	5263.3	
197.2	4976.6	
197.42	3073.3	
197.63	2822.1	
197.84	3978.5	
198.06	4485.1	
198.27	2657.6	
198.48	3300	
198.7	4233.8	
198.91	4409.3	
199.13	2865.8	
199.34	2854.2	
199.55	4748.6	
199.77	3839.3	
199.98	2601.6	
200.19	2872.6	
200.41	4354	
200.62	4056.3	
200.83	2902	
201.05	3100.6	
201.26	4328	
201.47	4192.9	
201.69	2611.2	
201.9	2555.2	
202.11	4364.2	
202.33	4937.7	
202.54	2667.8	
202.76	2980.5	
202.97	4343.1	
203.18	4497.3	
203.4	2881.5	
203.61	2989.4	
203.82	4418.8	
204.04	4115.7	
204.25	2874	
204.46	2762.7	
204.68	4336.9	
204.89	4504.8	
205.1	2818	
205.32	2489.6	
205.53	4568.3	
205.74	4689.2	
205.96	2252.8	
206.17	2876	
206.38	4564.9	
206.6	4637.3	
206.81	3087	
207.02	2688.3	
207.24	4479.6	
207.45	4829.1	
207.66	2743.6	
207.88	2417.3	
208.09	4433.9	
208.3	4364.9	
208.52	2533.3	
208.73	2777	
208.94	4347.2	
209.15	4769	
209.37	2755.9	
209.58	2850.8	
209.79	4640	
210.01	4234.5	
210.22	2353.8	
210.43	2459.6	
210.65	4289.8	
210.86	4584	
211.07	2682.8	
211.29	2486.2	
211.5	4465.3	
211.71	4302.8	
211.93	2581.8	
212.14	2564.7	
212.35	4362.2	
212.56	4306.2	
212.78	2822.1	
212.99	2395.4	
213.2	4879.6	
213.42	4279.6	
213.63	2611.2	
213.84	2739.5	
214.06	3998.3	
214.27	4018.1	
214.48	2739.5	
214.69	2855.6	
214.91	4777.2	
215.12	4734.2	
215.33	2845.3	
215.55	3028.9	
215.76	5099.4	
215.97	4487.8	
216.18	2764.1	
216.4	2813.9	
216.61	4114.4	
216.82	4627	
217.04	2563.4	
217.25	2639.1	
217.46	4713.7	
217.67	4551.3	
217.89	2403.6	
218.1	2449.4	
218.31	4369	
218.53	4492.6	
218.74	2718.3	
218.95	2606.4	
219.16	4315.1	
219.38	4922.6	
219.59	2633.7	
219.8	2930.6	
220.01	5142.4	
220.23	4371.7	
220.44	3143.6	
220.65	2497.8	
220.87	4375.1	
221.08	4688.5	
221.29	2513.5	
221.5	3020.1	
221.72	5369.8	
221.93	4124.6	
222.14	2841.2	
222.35	3259.7	
222.57	4354	
222.78	4669.4	
222.99	2796.8	
223.2	2940.9	
223.42	4497.3	
223.63	4567.7	
223.84	2176.3	
224.05	2211.8	
224.27	5074.9	
224.48	4863.2	
224.69	3295.9	
224.9	2857.6	
225.12	4418.8	
225.33	4296	
225.54	2396.1	
225.75	2609.1	
225.97	4106.9	
226.18	4310.3	
226.39	2690.3	
226.6	2579.8	
226.82	4284.4	
227.03	4063.9	
227.24	2835.1	
227.45	2501.9	
227.67	4575.8	
227.88	4786.8	
228.09	3121.8	
228.3	3110.2	
228.52	4533.5	
228.73	4295.3	
228.94	2635.7	
229.15	2442.5	
229.36	4375.8	
229.58	4348.5	
229.79	2805	
230	3038.5	
230.21	5043.5	
230.43	4351.3	
230.64	2810.5	
230.85	2867.2	
231.06	4614.1	
231.28	4584.7	
231.49	2462.3	
231.7	2858.3	
231.91	4559.5	
232.12	4351.9	
232.34	2544.3	
232.55	2732.7	
232.76	4656.4	
232.97	4403.1	
233.18	2532.7	
233.4	2839.8	
233.61	4384.7	
233.82	4202.4	
234.03	2719	
234.25	2651.4	
234.46	5524.7	
234.67	4343.7	
234.88	2893.1	
235.09	2609.8	
235.31	4414.7	
235.52	4302.8	
235.73	2800.9	
235.94	2478.7	
236.15	4202.4	
236.37	4955.4	
236.58	2600.9	
236.79	2737.5	
237	4484.4	
237.21	4024.3	
237.43	2893.1	
237.64	2420.7	
237.85	6606.7	
238.06	4094.6	
238.27	2832.3	
238.48	2499.2	
238.7	4592.9	
238.91	4287.8	
239.12	2682.2	
239.33	2869.2	
239.54	4214.7	
239.76	4263.2	
239.97	2736.8	
240.18	2736.1	
240.39	4940.4	
240.6	4392.2	
240.82	2917	
241.03	2407	
241.24	4311.7	
241.45	4786.1	
241.66	2576.3	
241.87	2957.9	
242.09	4816.8	
242.3	4952	
242.51	2935.4	
242.72	2714.2	
242.93	4524	
243.14	4230.4	
243.36	3100.6	
243.57	3327.9	
243.78	4883.7	
243.99	4424.3	
244.2	2765.4	
244.41	2484.9	
244.63	4029.7	
244.84	4470.7	
245.05	2874.7	
245.26	2712.9	
245.47	4541.7	
245.68	4559.5	
245.9	3405.1	
246.11	2837.1	
246.32	4197.7	
246.53	4523.3	
246.74	4123.2	
246.95	2353.8	
247.16	4151.2	
247.38	4308.2	
247.59	2468.5	
247.8	2807.8	
248.01	3985.3	
248.22	4392.9	
248.43	2548.4	
248.64	2704	
248.86	4029	
249.07	4212.7	
249.28	2640.5	
249.49	2801.6	
249.7	4597	
249.91	4635.2	
250.12	2469.2	
250.34	2429.6	
250.55	4391.5	
250.76	4307.6	
250.97	2838.5	
251.18	2853.5	
251.39	4640.7	
251.6	4394.3	
251.81	2831	
252.03	2772.3	
252.24	4175.1	
252.45	4515.1	
252.66	2508.8	
252.87	2908.1	
253.08	4346.5	
253.29	5302.9	
253.5	2521	
253.72	3229.6	
253.93	4332.1	
254.14	4904.9	
254.35	2652.1	
254.56	2677.4	
254.77	4457.1	
254.98	4113.7	
255.19	2647.3	
255.41	3158.7	
255.62	4489.8	
255.83	4668.7	
256.04	2951.8	
256.25	2785.9	
256.46	5036.6	
256.67	4152.6	
256.88	2766.8	
257.09	3069.2	
257.31	4036.5	
257.52	4055	
257.73	3368.2	
257.94	2667.8	
258.15	4276.2	
258.36	4313.7	
258.57	3100.6	
258.78	2213.2	
258.99	4659.8	
259.2	4225.6	
259.41	2695.1	
259.63	2741.5	
259.84	4833.2	
260.05	4935.6	
260.26	3246	
260.47	2633	
260.68	4702.1	
260.89	4177.9	
261.1	3036.5	
261.31	2525.1	
261.52	4791.6	
261.73	4857.8	
261.95	3288.4	
262.16	2861	
262.37	4693.9	
262.58	4809.3	
262.79	3297.2	
263	2653.5	
263.21	4391.5	
263.42	4182	
263.63	2848.7	
263.84	2675.3	
264.05	4648.2	
264.26	4780	
264.47	3145	
264.69	2908.8	
264.9	4794.3	
265.11	4443.4	
265.32	2576.3	
265.53	2620.7	
265.74	4400.4	
265.95	3931.4	
266.16	2781.1	
266.37	3001	
266.58	4420.9	
266.79	4158.7	
267	2658.3	
267.21	2495.1	
267.42	4058.4	
267.63	4304.8	
267.84	2790.7	
268.06	2454.8	
268.27	4595	
268.48	4655	
268.69	2709.5	
268.9	3019.4	
269.11	4716.5	
269.32	3972.4	
269.53	2736.8	
269.74	2555.9	
269.95	4474.1	
270.16	3960.8	
270.37	2796.2	
270.58	3086.3	
270.79	4290.5	
271	4659.1	
271.21	2848	
271.42	2747	
271.63	4485.7	
271.84	4023.6	
272.05	2304.6	
272.26	2549.7	
272.47	4319.8	
272.68	4463.2	
272.89	2663.7	
273.11	2981.8	
273.32	4182	
273.53	4799.1	
273.74	2831	
273.95	2912.9	
274.16	4582.7	
274.37	4317.8	
274.58	2994.1	
274.79	2516.3	
275	4501.4	
275.21	4635.9	
275.42	3427.6	
275.63	2979.8	
275.84	4563.6	
276.05	5280.3	
276.26	2861	
276.47	2736.1	
276.68	4341.7	
276.89	4960.9	
277.1	3007.1	
277.31	2479.4	
277.52	4427	
277.73	4703.5	
277.94	2437.1	
278.15	2609.1	
278.36	4463.2	
278.57	4128.7	
278.78	2710.8	
278.99	2903.3	
279.2	4180.6	
279.41	4113.7	
279.62	3297.9	
279.83	2474.6	
280.04	5031.9	
280.25	4085	
280.46	3289	
280.67	2720.4	
280.88	4121.2	
281.09	4737	
281.3	2860.3	
281.51	3433.8	
281.72	4162.2	
281.93	4530.8	
282.14	2617.3	
282.35	2809.8	
282.56	4736.3	
282.77	4567.7	
282.98	2682.2	
283.19	3169.6	
283.4	5401.9	
283.61	4285	
283.82	2517	
284.03	3237.2	
284.24	4552	
284.45	4599.7	
284.66	3306.1	
284.87	3094.5	
285.08	4677.6	
285.29	4750.6	
285.5	2450.7	
285.71	2735.4	
285.92	4654.4	
286.12	5016.2	
286.33	3273.3	
286.54	2765.4	
286.75	4615.4	
286.96	4266.6	
287.17	2556.5	
287.38	3158.7	
287.59	4185.4	
287.8	4203.1	
288.01	2689	
288.22	2930.6	
288.43	4412.7	
288.64	3984	
288.85	3175.7	
289.06	3022.1	
289.27	4601.1	
289.48	4783.4	
289.69	3317.7	
289.9	3010.5	
290.11	4771.8	
290.32	4214.7	
290.53	3104	
290.74	2895.8	
290.94	4610.7	
291.15	4637.3	
291.36	2625.5	
291.57	2963.4	
291.78	4261.8	
291.99	3975.8	
292.2	2609.1	
292.41	2897.9	
292.62	4642.1	
292.83	4524	
293.04	3495.9	
293.25	2630.3	
293.46	4330.8	
293.67	4635.2	
293.88	2573.6	
294.09	2530.6	
294.29	4108.2	
294.5	4392.2	
294.71	2752.5	
294.92	2682.2	
295.13	4271.4	
295.34	5017.5	
295.55	2402.9	
295.76	2387.9	
295.97	4546.5	
296.18	4872.8	
296.39	2544.3	
296.6	2625.5	
296.81	4372.4	
297.01	4577.9	
297.22	2669.2	
297.43	2676	
297.64	4216.1	
297.85	4070.7	
298.06	2251.4	
298.27	2379.1	
298.48	4258.4	
298.69	4178.5	
298.9	2809.1	
299.11	2590.7	
299.31	4094.6	
299.52	4099.4	
299.73	2964.8	
299.94	2926.5	
300.15	4430.4	
300.36	4155.3	
300.57	2910.8	
300.78	2840.5	
300.99	4203.8	
301.2	4388.8	
301.4	2641.2	
301.61	2770.2	
301.82	4478.9	
302.03	4582	
302.24	3026.9	
302.45	2471.9	
302.66	4502.1	
302.87	4657.1	
303.08	2642.6	
303.29	3345.7	
303.49	4258.4	
303.7	4250.9	
303.91	2411.1	
304.12	3183.2	
304.33	3974.4	
304.54	4450.9	
304.75	2654.9	
304.96	2635.7	
305.16	4509.6	
305.37	4885.1	
305.58	2407.7	
305.79	2452.1	
306	4514.4	
306.21	3931.4	
306.42	2613.2	
306.63	3697.9	
306.83	4248.9	
307.04	4526.7	
307.25	2838.5	
307.46	2787.3	
307.67	3923.2	
307.88	4462.5	
308.09	2663	
308.29	2667.1	
308.5	4361.5	
308.71	4559.5	
308.92	2770.2	
309.13	2537.4	
309.34	4426.3	
309.55	4283	
309.75	3198.2	
309.96	2876.7	
310.17	4543.8	
310.38	4129.4	
310.59	2985.3	
310.8	2870.6	
311.01	4255	
311.21	4253.6	
311.42	2532	
311.63	2544.3	
311.84	4238.6	
312.05	4287.8	
312.26	2843.3	
312.46	3030.3	
312.67	4231.8	
312.88	3962.8	
313.09	2543.6	
313.3	2497.8	
313.51	4756.1	
313.71	4992.9	
313.92	2604.3	
314.13	2669.9	
314.34	4440.7	
314.55	4341	
314.76	3067.9	
314.96	2778.4	
315.17	4446.1	
315.38	4519.9	
315.59	2593.4	
315.8	2504	
316.01	4743.1	
316.21	4848.2	
316.42	2527.2	
316.63	2796.8	
316.84	4217.5	
317.05	4627	
317.26	2882.9	
317.46	2735.4	
317.67	4334.9	
317.88	4577.2	
318.09	3069.9	
318.3	2428.9	
318.5	4244.8	
318.71	4454.3	
318.92	3747.1	
319.13	2941.6	
319.34	4605.9	
319.54	4659.1	
319.75	2438.4	
319.96	2350.4	
320.17	4519.9	
320.38	4640	
320.58	2360.6	
320.79	2779.8	
321	4696.7	
321.21	4727.4	
321.42	2807.8	
321.62	2398.2	
321.83	4165.6	
322.04	4326.7	
322.25	2730.6	
322.46	2580.4	
322.66	4381.3	
322.87	4493.9	
323.08	2987.3	
323.29	2514.9	
323.5	4949.3	
323.7	4000.4	
323.91	3284.9	
324.12	2960	
324.33	4461.8	
324.53	4564.9	
324.74	2927.2	
324.95	2953.9	
325.16	4064.5	
325.37	4246.8	
325.57	2517	
325.78	2572.2	
325.99	4469.4	
326.2	4020.2	
326.4	3330	
326.61	2403.6	
326.82	4283.7	
327.03	4389.5	
327.24	3404.4	
327.44	3164.8	
327.65	4521.2	
327.86	3850.9	
328.07	2876.7	
328.27	2521.7	
328.48	4790.9	
328.69	4029.7	
328.9	3417.4	
329.1	2614.6	
329.31	4312.3	
329.52	4788.2	
329.73	2561.3	
329.93	2770.9	
330.14	4403.1	
330.35	4481.6	
330.56	3832.4	
330.76	3016.7	
330.97	4262.5	
331.18	4308.9	
331.39	2782.5	
331.59	2397.5	
331.8	4721.9	
332.01	4708.3	
332.22	2624.1	
332.42	2850.8	
332.63	4383.3	
332.84	4076.8	
333.05	2790	
333.25	2607.1	
333.46	4138.3	
333.67	4304.1	
333.88	2717.7	
334.08	2838.5	
334.29	5311.7	
334.5	4657.8	
334.7	2492.4	
334.91	3362.8	
335.12	3985.3	
335.33	4450.2	
335.53	2782.5	
335.74	3744.4	
335.95	4308.9	
336.16	4024.9	
336.36	2753.2	
336.57	3085.6	
336.78	3960.1	
336.98	4614.1	
337.19	3304.1	
337.4	2772.3	
337.61	5061.9	
337.81	4009.9	
338.02	2680.1	
338.23	3099.9	
338.43	4814.8	
338.64	4160.8	
338.85	2612.5	
339.05	3239.9	
339.26	4871.4	
339.47	3943	
339.68	2581.8	
339.88	3497.2	
340.09	4600.4	
340.3	4579.9	
340.5	2869.2	
340.71	2382.5	
340.92	4035.9	
341.13	4708.3	
341.33	2482.1	
341.54	2880.8	
341.75	4493.9	
341.95	4217.5	
342.16	2807.1	
342.37	2936.1	
342.57	4079.6	
342.78	4227	
342.99	3088.3	
343.19	2409.1	
343.4	4567	
343.61	4489.8	
343.81	2688.3	
344.02	2484.2	
344.23	4585.4	
344.43	4762.2	
344.64	3057.6	
344.85	3010.5	
345.06	4536.9	
345.26	4670.1	
345.47	2940.2	
345.68	3263.8	
345.88	3990.1	
346.09	4599.1	
346.3	2878.1	
346.5	2278	
346.71	4282.3	
346.92	4208.6	
347.12	2530.6	
347.33	2827.6	
347.54	4627	
347.74	4791.6	
347.95	2872.6	
348.16	2335.4	
348.36	4206.5	
348.57	4079.6	
348.78	2921.8	
348.98	3014.6	
349.19	4287.8	
349.39	3921.9	
349.6	2461.7	
349.81	2628.2	
350.01	4558.8	
350.22	4087.7	
350.43	2829.6	
350.63	3213.3	
350.84	4268	
351.05	4106.2	
351.25	2573.6	
351.46	2413.9	
351.67	4539.7	
351.87	4053.6	
352.08	2693.8	
352.29	2994.1	
352.49	4558.1	
352.7	4397	
352.9	2445.3	
353.11	2947.7	
353.32	4912.4	
353.52	4203.1	
353.73	2564.7	
353.94	3006.4	
354.14	4437.9	
354.35	4227.7	
354.55	2567.5	
354.76	2784.6	
354.97	4470	
355.17	4225	
355.38	2525.1	
355.59	3140.2	
355.79	4087.1	
356	4212.7	
356.2	2734.7	
356.41	2484.9	
356.62	3990.8	
356.82	4252.9	
357.03	2941.6	
357.24	2613.9	
357.44	4081.6	
357.65	4191.5	
357.85	3360	
358.06	2795.5	
358.27	3951.9	
358.47	4003.8	
358.68	2448.7	
358.88	2946.3	
359.09	4450.2	
359.3	4522.6	
359.5	3321.8	
359.71	3010.5	
359.91	4755.4	
360.12	4416.8	
360.33	2929.3	
360.53	3229	
360.74	4151.9	
360.94	4184.7	
361.15	2996.9	
361.36	2622.1	
361.56	4590.2	
361.77	4260.5	
361.97	3315.7	
362.18	2749.7	
362.38	4598.4	
362.59	4021.5	
362.8	2545.6	
363	2529.2	
363.21	3987.4	
363.41	4281.6	
363.62	2850.8	
363.83	3304.7	
364.03	4518.5	
364.24	4786.8	
364.44	3500.7	
364.65	3472	
364.85	4221.5	
365.06	4061.8	
365.27	2686.9	
365.47	2781.8	
365.68	4820.2	
365.88	4301.4	
366.09	2927.2	
366.29	2686.9	
366.5	4332.1	
366.71	4627.7	
366.91	3469.9	
367.12	3003.7	
367.32	4957.4	
367.53	4496	
367.73	3049.4	
367.94	3587.4	
368.14	4539	
368.35	4849.6	
368.56	2934.1	
368.76	2767.5	
368.97	4614.1	
369.17	5405.3	
369.38	2677.4	
369.58	2863.7	
369.79	3949.8	
369.99	4816.8	
370.2	3502	
370.4	2878.8	
370.61	4371.7	
370.82	5175.9	
371.02	2861	
371.23	2489	
371.43	4047.5	
371.64	4807.9	
371.84	2872.6	
372.05	3498.6	
372.25	5405.3	
372.46	4456.4	
372.66	2831.7	
372.87	2845.3	
373.07	4536.3	
373.28	5520.6	
373.48	3436.5	
373.69	3257	
373.9	4279.6	
374.1	4314.4	
374.31	3404.4	
374.51	3112.2	
374.72	4749.2	
374.92	4138.9	
375.13	3448.1	
375.33	3061	
375.54	4495.3	
375.74	4257	
375.95	3162.7	
376.15	3737.5	
376.36	4671.4	
376.56	4466.6	
376.77	3153.9	
376.97	3367.5	
377.18	5258.5	
377.38	4618.9	
377.59	3506.1	
377.79	2855.6	
378	4444.1	
378.2	4640.7	
378.41	2882.9	
378.61	2849.4	
378.82	4775.9	
379.02	4285	
379.23	2975.7	
379.43	3570.3	
379.64	4934.2	
379.84	4595.6	
380.05	2895.8	
380.25	2788	
380.46	4651.6	
380.66	4412.7	
380.87	3635.8	
381.07	3806.5	
381.28	5042.8	
381.48	4592.2	
381.69	2861	
381.89	2884.9	
382.1	4090.5	
382.3	4648.9	
382.51	3547.1	
382.71	4006.5	
382.91	4530.8	
383.12	4840	
383.32	3056.3	
383.53	3195.5	
383.73	4554	
383.94	4467.3	
384.14	3155.9	
384.35	2678.7	
384.55	4315.8	
384.76	4541.7	
384.96	3100.6	
385.17	3263.1	
385.37	4646.2	
385.58	4154.6	
385.78	3175.7	
385.98	2648	
386.19	4347.2	
386.39	4567.7	
386.6	2965.5	
386.8	3044.6	
387.01	4625	
387.21	4676.2	
387.42	3333.4	
387.62	3560.1	
387.83	4291.2	
388.03	4412.7	
388.23	3112.2	
388.44	3508.9	
388.64	4140.3	
388.85	4087.7	
389.05	3214.6	
389.26	3571.7	
389.46	5410.7	
389.67	4917.2	
389.87	3318.4	
390.07	3287	
390.28	4366.3	
390.48	4121.9	
390.69	2831	
390.89	3046	
391.1	4333.5	
391.3	4756.1	
391.5	3713.7	
391.71	4034.5	
391.91	4693.9	
392.12	5109.7	
392.32	3793.5	
392.53	3247.4	
392.73	4327.4	
392.93	4428.4	
393.14	3115	
393.34	3465.2	
393.55	4691.9	
393.75	4332.1	
393.95	3151.8	
394.16	3025.5	
394.36	4331.5	
394.57	4728.1	
394.77	2800.9	
394.98	3018.7	
395.18	4287.1	
395.38	4406.5	
395.59	3506.8	
395.79	2941.6	
396	4407.9	
396.2	4661.2	
396.4	3508.9	
396.61	3365.5	
396.81	4706.9	
397.02	4292.5	
397.22	3572.3	
397.42	3650.8	
397.63	4791.6	
397.83	4305.5	
398.04	2925.9	
398.24	3255.6	
398.44	4620.2	
398.65	3981.9	
398.85	2880.1	
399.05	2893.1	
399.26	4336.2	
399.46	5278.3	
399.67	3162.7	
399.87	2994.1	
400.07	4546.5	
400.28	4712.4	
400.48	3009.1	
400.69	3646.1	
400.89	5100.1	
401.09	5087.2	
401.3	2925.9	
401.5	3570.3	
401.7	5139	
401.91	5343.8	
402.11	3270.6	
402.32	3309.5	
402.52	4849.6	
402.72	4754.7	
402.93	3460.4	
403.13	2762.7	
403.33	5268.7	
403.54	4496	
403.74	3229.6	
403.94	3763.5	
404.15	4577.9	
404.35	5252.4	
404.56	3208.5	
404.76	4149.2	
404.96	4843.4	
405.17	4627	
405.37	3784.6	
405.57	3419.4	
405.78	4851	
405.98	4516.5	
406.18	3116.3	
406.39	3586.7	
406.59	4833.9	
406.79	4481	
407	2968.2	
407.2	3046.7	
407.4	5074.2	
407.61	4918.5	
407.81	3111.5	
408.01	4296	
408.22	4110.3	
408.42	5339.1	
408.62	3752.6	
408.83	3435.1	
409.03	4547.9	
409.23	4492.6	
409.44	3471.3	
409.64	3523.9	
409.84	5213.4	
410.05	5111	
410.25	3586.7	
410.45	3457.7	
410.66	4848.9	
410.86	6290.7	
411.06	3708.9	
411.27	3582.6	
411.47	6133	
411.67	4902.2	
411.88	3697.9	
412.08	3816	
412.28	5236	
412.49	5531.6	
412.69	3578.5	
412.89	3596.9	
413.09	5485.8	
413.3	5390.3	
413.5	3690.4	
413.7	3452.2	
413.91	4917.9	
414.11	5489.9	
414.31	3543	
414.52	3801.7	
414.72	5341.1	
414.92	5120.6	
415.12	3571.7	
415.33	3864.5	
415.53	5377.3	
415.73	5524.1	
415.94	4022.2	
416.14	3749.8	
416.34	4872.1	
416.55	4721.9	
416.75	4377.9	
416.95	4050.2	
417.15	5510.4	
417.36	5868.8	
417.56	4581.3	
417.76	3983.3	
417.97	5655.8	
418.17	5483.1	
418.37	3820.8	
418.57	3788.1	
418.78	5483.8	
418.98	5192.3	
419.18	4281.6	
419.38	4256.4	
419.59	5074.9	
419.79	4958.1	
419.99	3704.8	
420.2	3855	
420.4	5448.3	
420.6	5491.3	
420.8	3673.4	
421.01	3578.5	
421.21	5431.9	
421.41	5438	
421.61	3845.4	
421.82	3714.3	
422.02	5119.9	
422.22	5667.4	
422.42	4156	
422.63	3981.3	
422.83	5123.3	
423.03	5877.7	
423.23	3945.1	
423.44	3390.1	
423.64	5166.3	
423.84	4881	
424.04	3668.6	
424.25	3424.2	
424.45	5632.6	
424.65	5618.9	
424.85	3340.2	
425.06	3652.9	
425.26	5840.8	
425.46	5094.7	
425.66	4001	
425.87	3719.1	
426.07	5512.4	
426.27	5384.1	
426.47	3852.9	
426.67	3447.4	
426.88	5774.6	
427.08	5356.1	
427.28	4009.2	
427.48	3370.3	
427.69	4792.2	
427.89	5087.2	
428.09	3878.2	
428.29	3446.7	
428.5	5437.4	
428.7	5285.8	
428.9	3347.7	
429.1	3690.4	
429.3	5251.7	
429.51	5386.2	
429.71	3610.6	
429.91	4040.6	
430.11	5474.9	
430.31	5745.9	
430.52	3719.8	
430.72	3874.8	
430.92	5717.2	
431.12	5420.3	
431.32	3522.5	
431.53	3826.3	
431.73	4775.9	
431.93	5747.3	
432.13	3507.5	
432.33	3407.1	
432.54	5136.3	
432.74	5138.4	
432.94	3366.2	
433.14	4057	
433.34	5513.8	
433.55	5129.5	
433.75	3953.3	
433.95	4913.1	
434.15	5349.3	
434.35	5010	
434.56	3493.2	
434.76	3217.4	
434.96	5245.5	
435.16	5391.6	
435.36	3439.2	
435.56	4092.5	
435.77	5071.5	
435.97	5187.5	
436.17	4465.3	
436.37	3969	
436.57	5023.7	
436.78	4928.1	
436.98	3996.3	
437.18	4393.6	
437.38	5243.5	
437.58	5023	
437.78	4391.5	
437.99	3648.1	
438.19	5431.2	
438.39	6247	
438.59	3610.6	
438.79	3364.1	
438.99	5884.5	
439.2	5125.4	
439.4	3411.9	
439.6	3445.4	
439.8	5225.1	
440	5882.4	
440.2	4087.1	
440.4	4055.7	
440.61	5556.8	
440.81	5850.4	
441.01	3597.6	
441.21	4016.1	
441.41	5773.9	
441.61	5511.1	
441.81	4189.5	
442.02	4737	
442.22	5993.7	
442.42	5613.5	
442.62	3567.6	
442.82	3658.4	
443.02	5898.8	
443.22	5323.4	
443.43	3887.7	
443.63	3614.7	
443.83	5212.8	
444.03	5136.3	
444.23	4245.4	
444.43	4051.6	
444.63	5403.9	
444.83	6000.5	
445.04	3695.2	
445.24	4337.6	
445.44	5615.5	
445.64	5606.7	
445.84	4039.3	
446.04	4124.6	
446.24	5180.7	
446.44	5774.6	
446.65	3579.2	
446.85	3876.8	
447.05	5376.6	
447.25	5808	
447.45	3962.1	
447.65	3491.8	
447.85	5468.8	
448.05	5091.3	
448.25	4104.8	
448.46	3979.2	
448.66	5378	
448.86	5187.5	
449.06	3545.7	
449.26	4121.2	
449.46	5543.2	
449.66	5091.9	
449.86	3887.7	
450.06	3863.8	
450.26	5130.2	
450.47	5477.6	
450.67	4073.4	
450.87	4141.7	
451.07	5741.1	
451.27	5378	
451.47	3612.6	
451.67	4111	
451.87	5220.3	
452.07	5872.2	
452.27	3737.5	
452.47	3738.2	
452.67	5423	
452.88	5588.9	
453.08	3349.8	
453.28	4425	
453.48	6113.9	
453.68	5283.1	
453.88	3685	
454.08	3756	
454.28	5550.7	
454.48	5372.5	
454.68	4131.4	
454.88	4400.4	
455.08	5769.1	
455.28	5464.7	
455.48	3595.6	
455.68	4011.3	
455.89	5969.8	
456.09	5688.6	
456.29	3802.4	
456.49	3865.2	
456.69	5911.1	
456.89	5367	
457.09	4034.5	
457.29	4393.6	
457.49	5607.3	
457.69	5593.7	
457.89	4033.8	
458.09	3619.4	
458.29	5467.4	
458.49	5939.1	
458.69	4251.6	
458.89	3812.6	
459.09	6016.9	
459.29	6079.7	
459.49	3934.1	
459.69	4384	
459.9	5750	
460.1	5430.5	
460.3	3839.3	
460.5	3768.3	
460.7	5819.6	
460.9	5475.6	
461.1	3539.6	
461.3	4334.2	
461.5	6220.4	
461.7	5869.5	
461.9	3829	
462.1	4107.5	
462.3	5672.9	
462.5	5900.2	
462.7	3892.5	
462.9	3913.7	
463.1	6511.9	
463.3	6265.4	
463.5	4042	
463.7	4666.6	
463.9	5773.9	
464.1	5922.7	
464.3	4077.5	
464.5	4211.3	
464.7	6011.5	
464.9	5829.9	
465.1	4929.5	
465.3	4434.5	
465.5	6245.6	
465.7	6298.2	
465.9	4653.7	
466.1	4452.3	
466.3	6075.6	
466.5	6025.1	
466.7	4996.4	
466.9	4321.9	
467.1	6142.5	
467.3	6567.2	
467.5	4963.6	
467.7	4306.9	
467.9	6711.9	
468.1	7131	
468.3	4778.6	
468.5	5027.1	
468.7	5999.9	
468.9	5883.8	
469.1	4455	
469.3	4833.9	
469.5	7137.2	
469.7	5760.3	
469.9	4828.4	
470.1	4293.2	
470.3	6136.4	
470.5	6044.2	
470.7	5079.6	
470.9	4399.7	
471.1	5923.4	
471.3	6213.5	
471.5	4302.8	
471.69	5315.8	
471.89	5964.4	
472.09	5574.6	
472.29	4704.9	
472.49	4937	
472.69	5607.3	
472.89	6065.4	
473.09	4219.5	
473.29	4285.7	
473.49	5830.6	
473.69	5804.6	
473.89	4805.2	
474.09	4365.6	
474.29	6539.2	
474.49	6418.3	
474.69	4797.7	
474.89	4384.7	
475.09	5878.4	
475.29	5806	
475.49	4141	
475.69	4264.6	
475.88	6778.8	
476.08	6059.9	
476.28	4102.1	
476.48	4332.1	
476.68	6399.9	
476.88	6133.7	
477.08	4317.8	
477.28	4414.7	
477.48	6005.3	
477.68	6218.3	
477.88	4152.6	
478.08	4296	
478.28	6500.9	
478.48	5958.2	
478.67	4345.1	
478.87	3941	
479.07	6316.6	
479.27	6014.9	
479.47	4432.5	
479.67	4508.3	
479.87	6268.1	
480.07	6520	
480.27	4029	
480.47	4943.8	
480.67	6009.4	
480.87	6376.7	
481.06	4276.2	
481.26	4676.9	
481.46	6092.7	
481.66	5942.5	
481.86	4578.6	
482.06	4960.9	
482.26	5886.5	
482.46	6589	
482.66	4461.2	
482.86	4192.2	
483.05	6184.9	
483.25	5707.7	
483.45	5892.7	
483.65	4362.2	
483.85	5672.2	
484.05	5949.3	
484.25	4670.1	
484.45	4937	
484.65	6361	
484.84	6487.3	
485.04	4416.1	
485.24	4387.4	
485.44	6695.5	
485.64	5639.4	
485.84	3971	
486.04	4742.4	
486.24	5881.8	
486.44	6007.4	
486.63	3947.8	
486.83	4558.8	
487.03	5819	
487.23	5885.2	
487.43	4083	
487.63	5358.9	
487.83	5966.4	
488.02	6225.8	
488.22	4551.3	
488.42	4890.5	
488.62	6442.9	
488.82	5720	
489.02	4438.6	
489.22	4382	
489.41	6331.6	
489.61	6200.6	
489.81	4209.9	
490.01	4220.9	
490.21	6374	
490.41	6767.9	
490.61	4234.5	
490.8	4254.3	
491	6029.9	
491.2	5675.6	
491.4	4630.5	
491.6	4145.1	
491.8	6040.1	
491.99	6045.6	
492.19	4021.5	
492.39	4261.8	
492.59	6410.1	
492.79	6410.8	
492.99	4724	
493.18	4252.3	
493.38	6538.5	
493.58	6838.9	
493.78	4583.4	
493.98	4404.5	
494.18	6242.9	
494.37	5810.1	
494.57	4706.9	
494.77	4725.3	
494.97	6414.9	
495.17	6526.9	
495.37	4474.1	
495.56	4678.2	
495.76	6561	
495.96	6477	
496.16	5177.9	
496.36	4575.8	
496.55	6581.5	
496.75	6158.2	
496.95	4756.7	
497.15	4648.9	
497.35	6584.9	
497.54	6393.1	
497.74	4685.8	
497.94	5561.6	
498.14	6925.5	
498.34	6685.3	
498.53	4479.6	
498.73	4870.1	
498.93	6061.3	
499.13	6430.6	
499.33	4846.9	
499.52	4959.5	
499.72	6569.9	
499.92	6607.4	
500.12	4552.6	
500.32	4683	
500.51	6616.3	
500.71	6387.6	
500.91	5169.1	
501.11	4874.8	
501.31	6580.1	
501.5	6848.4	
501.7	5399.8	
501.9	4747.9	
502.1	6490	
502.29	6668.2	
502.49	4980.7	
502.69	5296.7	
502.89	6597.9	
503.09	6583.5	
503.28	4454.3	
503.48	4511	
503.68	6232.7	
503.88	6115.2	
504.07	5141.8	
504.27	4736.3	
504.47	6402	
504.67	6465.4	
504.86	5012.7	
505.06	4870.8	
505.26	6337.1	
505.46	7119.4	
505.65	4703.5	
505.85	4917.9	
506.05	6250.4	
506.25	6506.4	
506.44	4513	
506.64	4870.1	
506.84	6125.5	
507.04	6554.9	
507.23	4584.7	
507.43	4924.7	
507.63	7218.4	
507.83	6155.5	
508.02	4889.2	
508.22	4581.3	
508.42	7396.6	
508.62	6029.2	
508.81	4723.3	
509.01	5041.4	
509.21	6068.1	
509.4	6231.3	
509.6	4971.8	
509.8	4599.1	
510	6227.9	
510.19	6811.5	
510.39	4435.9	
510.59	4472.8	
510.79	6100.2	
510.98	6842.3	
511.18	4657.1	
511.38	4629.8	
511.57	6640.2	
511.77	6350.8	
511.97	4960.9	
512.17	4479.6	
512.36	6557.6	
512.56	6463.4	
512.76	4476.2	
512.95	4363.5	
513.15	6667.5	
513.35	5748.6	
513.55	5003.2	
513.74	4442.7	
513.94	6535.1	
514.14	6151.4	
514.33	5084.4	
514.53	4831.8	
514.73	6251.8	
514.92	6238.8	
515.12	4554	
515.32	4502.8	
515.51	6329.6	
515.71	6421.1	
515.91	5407.3	
516.11	4460.5	
516.3	7265.5	
516.5	6099.5	
516.7	4762.9	
516.89	5103.5	
517.09	6152.1	
517.29	6087.2	
517.48	5047.6	
517.68	4618.2	
517.88	5827.2	
518.07	6395.8	
518.27	4980	
518.47	4357.4	
518.66	6687.3	
518.86	5935.7	
519.06	4281.6	
519.25	4509.6	
519.45	6107	
519.65	6854.6	
519.84	4937.7	
520.04	5257.8	
520.24	7125.6	
520.43	6402	
520.63	4716.5	
520.83	4650.9	
521.02	6107.7	
521.22	6339.8	
521.42	4894	
521.61	5177.9	
521.81	6118	
522.01	6349.4	
522.2	4801.8	
522.4	4708.3	
522.6	6614.3	
522.79	5726.1	
522.99	4721.9	
523.18	4318.5	
523.38	6463.4	
523.58	6331	
523.77	5342.5	
523.97	4315.1	
524.17	7430	
524.36	6971.3	
524.56	5100.8	
524.76	4899.4	
524.95	6282.5	
525.15	6156.2	
525.34	4866	
525.54	4799.8	
525.74	6550.1	
525.93	5955.5	
526.13	5433.9	
526.33	4736.3	
526.52	6809.5	
526.72	6376.7	
526.91	5509.7	
527.11	4926.7	
527.31	6768.5	
527.5	6914.6	
527.7	4965.6	
527.89	4467.3	
528.09	6174.6	
528.29	6472.3	
528.48	5257.1	
528.68	5012.7	
528.87	6778.1	
529.07	6710.5	
529.27	4929.5	
529.46	4653.7	
529.66	6488.6	
529.85	6756.9	
530.05	4614.8	
530.25	5010.7	
530.44	7279.2	
530.64	6415.6	
530.83	4841.4	
531.03	4982.7	
531.23	6866.8	
531.42	6582.2	
531.62	5397.1	
531.81	4901.5	
532.01	6794.5	
532.21	6939.9	
532.4	4788.2	
532.6	5076.2	
532.79	7154.2	
532.99	6778.1	
533.18	5099.4	
533.38	5601.2	
533.58	6602	
533.77	6922.8	
533.97	5010.7	
534.16	5445.5	
534.36	7154.9	
534.55	6546.7	
534.75	5569.1	
534.95	5080.3	
535.14	7058	
535.34	6502.3	
535.53	4842.1	
535.73	5934.3	
535.92	7382.9	
536.12	6541.9	
536.31	5045.5	
536.51	5618.9	
536.71	6993.1	
536.9	6558.3	
537.1	4969.1	
537.29	5049.6	
537.49	7084.6	
537.68	6477.7	
537.88	5304.2	
538.07	4803.9	
538.27	6764.4	
538.46	7277.1	
538.66	4774.5	
538.86	5040.1	
539.05	6753.5	
539.25	6933.1	
539.44	5251.7	
539.64	4898.1	
539.83	6727.6	
540.03	7175.4	
540.22	4869.4	
540.42	5024.3	
540.61	6815.6	
540.81	6846.4	
541	5274.2	
541.2	5610.8	
541.39	6435.4	
541.59	6681.2	
541.78	5412.1	
541.98	4937.7	
542.18	6302.3	
542.37	6201.2	
542.57	5107	
542.76	5453.1	
542.96	6386.9	
543.15	6680.5	
543.35	5145.2	
543.54	4740.4	
543.74	6589.7	
543.93	6614.9	
544.13	5123.3	
544.32	5785.5	
544.52	6887.3	
544.71	6399.9	
544.91	4629.8	
545.1	5292.6	
545.3	6457.2	
545.49	6638.8	
545.69	4581.3	
545.88	4938.3	
546.08	7359.7	
546.27	6969.2	
546.47	5186.8	
546.66	4768.4	
546.86	6941.2	
547.05	7159	
547.24	4984.8	
547.44	4849.6	
547.63	6270.2	
547.83	6774	
548.02	5003.2	
548.22	5147.9	
548.41	6144.6	
548.61	6953.5	
548.8	4784.1	
549	4747.9	
549.19	6640.2	
549.39	6782.9	
549.58	4579.9	
549.78	4911	
549.97	6720.1	
550.17	6469.5	
550.36	5433.9	
550.55	5973.9	
550.75	6399.2	
550.94	6987.7	
551.14	4746.5	
551.33	4955.4	
551.53	6038.1	
551.72	6559	
551.92	5005.2	
552.11	4886.5	
552.31	6815.6	
552.5	6651.1	
552.69	5763.7	
552.89	4616.1	
553.08	6683.2	
553.28	6467.5	
553.47	4811.4	
553.67	5415.5	
553.86	7043.6	
554.06	6057.9	
554.25	4439.3	
554.44	4742.4	
554.64	7456.7	
554.83	7102.4	
555.03	4640	
555.22	4937.7	
555.42	6863.4	
555.61	6589	
555.8	4844.1	
556	4909	
556.19	6171.2	
556.39	6671.6	
556.58	4816.8	
556.78	4930.8	
556.97	6608.8	
557.16	6391.7	
557.36	5523.4	
557.55	4593.6	
557.75	5967.1	
557.94	7079.8	
558.13	4683.7	
558.33	4561.5	
558.52	6883.9	
558.72	5978	
558.91	4644.8	
559.1	4790.9	
559.3	6008.7	
559.49	5909.1	
559.69	4487.1	
559.88	4924	
560.07	6473.6	
560.27	6769.9	
560.46	5048.9	
560.66	5114.5	
560.85	6472.9	
561.04	5914.5	
561.24	4500.1	
561.43	4661.9	
561.63	5956.9	
561.82	6310.5	
562.01	5307.7	
562.21	4855.1	
562.4	6511.9	
562.59	6994.5	
562.79	4846.2	
562.98	4564.2	
563.18	6403.3	
563.37	7166.5	
563.56	5064.6	
563.76	4539	
563.95	6143.9	
564.14	6089.3	
564.34	4786.8	
564.53	4662.5	
564.73	6524.8	
564.92	6495.5	
565.11	4913.1	
565.31	4502.1	
565.5	6806.1	
565.69	6037.4	
565.89	4784.7	
566.08	4773.1	
566.27	6632	
566.47	6826.6	
566.66	5169.1	
566.85	4386.7	
567.05	6533	
567.24	6175.3	
567.44	4584	
567.63	5339.1	
567.82	6630	
568.02	6309.1	
568.21	4612.7	
568.4	4835.9	
568.6	6436.1	
568.79	6305	
568.98	4558.1	
569.18	4526	
569.37	6377.4	
569.56	7453.2	
569.76	4799.8	
569.95	5388.2	
570.14	6659.3	
570.34	6358.9	
570.53	4600.4	
570.72	4420.9	
570.91	6823.1	
571.11	6382.2	
571.3	4899.4	
571.49	5357.5	
571.69	6486.6	
571.88	5976	
572.07	5052.3	
572.27	5132.2	
572.46	6012.8	
572.65	6598.6	
572.85	4764.9	
573.04	4883	
573.23	6783.6	
573.43	6451.1	
573.62	4630.5	
573.81	4919.2	
574	6520.7	
574.2	6253.1	
574.39	4747.2	
574.58	4817.5	
574.78	6893.5	
574.97	6421.7	
575.16	5084.4	
575.36	5008.6	
575.55	6723.5	
575.74	6810.9	
575.93	4518.5	
576.13	5152.7	
576.32	6314.6	
576.51	6624.5	
576.71	4815.5	
576.9	5565	
577.09	6997.9	
577.28	6537.8	
577.48	5033.2	
577.67	4452.3	
577.86	6491.4	
578.05	6578.8	
578.25	4890.5	
578.44	4952	
578.63	6421.7	
578.83	7170.6	
579.02	4621.6	
579.21	5408	
579.4	6544.6	
579.6	6394.4	
579.79	4932.2	
579.98	6180.1	
580.17	6750.1	
580.37	6787.7	
580.56	4701.5	
580.75	5117.2	
580.94	6920.8	
581.14	6950.1	
581.33	5214.1	
581.52	4742.4	
581.71	6658.6	
581.91	7123.5	
582.1	4623.6	
582.29	4887.1	
582.48	6436.1	
582.68	6434.7	
582.87	5132.9	
583.06	4922.6	
583.25	6757.6	
583.45	6191	
583.64	5295.4	
583.83	5707.7	
584.02	6528.9	
584.21	6677.7	
584.41	5258.5	
584.6	4895.3	
584.79	6604	
584.98	6832.7	
585.18	4663.2	
585.37	4549.9	
585.56	6311.8	
585.75	6621.8	
585.94	4756.1	
586.14	5130.8	
586.33	7038.2	
586.52	6363	
586.71	5075.5	
586.91	4876.9	
587.1	6177.4	
587.29	6754.9	
587.48	4911.7	
587.67	4757.4	
587.87	6726.2	
588.06	6569.9	
588.25	5565	
588.44	5134.9	
588.63	6413.6	
588.83	6731.7	
589.02	4894	
589.21	4713.1	
589.4	6423.8	
589.59	6294.1	
589.78	4420.2	
589.98	4463.9	
590.17	6025.1	
590.36	6283.2	
590.55	4121.9	
590.74	4661.2	
590.94	7025.9	
591.13	6215.6	
591.32	4586.1	
591.51	4270.7	
591.7	6507.1	
591.89	6180.8	
592.09	4330.8	
592.28	4627	
592.47	5634	
592.66	6881.2	
592.85	4285	
593.05	4448.9	
593.24	6147.3	
593.43	6637.5	
593.62	4500.1	
593.81	4717.8	
594	6268.8	
594.19	6258.6	
594.39	4453.6	
594.58	4359.4	
594.77	6346	
594.96	6608.8	
595.15	4453.6	
595.34	4702.8	
595.54	6182.1	
595.73	5748.6	
595.92	4068.6	
596.11	4664.6	
596.3	6578.1	
596.49	5945.3	
596.68	4572.4	
596.88	4770.4	
597.07	6397.2	
597.26	5791	
597.45	4264.6	
597.64	4926	
597.83	5946.6	
598.02	6258.6	
598.22	4304.8	
598.41	4667.3	
598.6	6272.9	
598.79	5731.6	
598.98	4293.9	
599.17	4829.1	
599.36	6264.1	
599.55	6793.1	
599.74	5436.7	
599.94	5380	
600.13	6477.7	
600.32	5845.6	
600.51	4191.5	
600.7	4237.9	
600.89	6826.6	
601.08	6907.1	
601.27	4120.5	
601.47	4674.8	
601.66	6474.3	
601.85	6695.5	
602.04	4620.9	
602.23	4568.3	
602.42	5903.6	
602.61	6252.4	
602.8	4435.9	
602.99	4364.2	
603.18	6105	
603.37	6223.8	
603.57	4673.5	
603.76	5079	
603.95	6662	
604.14	6300.2	
604.33	4442.7	
604.52	4560.1	
604.71	6267.5	
604.9	5953.4	
605.09	4986.8	
605.28	4758.8	
605.47	6610.2	
605.66	6214.2	
605.86	4689.8	
606.05	4368.3	
606.24	6595.1	
606.43	5611.4	
606.62	4655	
606.81	4964.3	
607	6433.4	
607.19	5980.8	
607.38	4263.2	
607.57	4354.7	
607.76	5862	
607.95	5520	
608.14	4749.2	
608.33	4998.4	
608.52	5903.6	
608.72	6357.6	
608.91	4193.6	
609.1	4153.3	
609.29	5997.1	
609.48	5675.6	
609.67	4679.6	
609.86	4190.8	
610.05	5779.4	
610.24	5961.6	
610.43	4136.2	
610.62	3944.4	
610.81	6659.3	
611	6488	
611.19	4189.5	
611.38	4590.9	
611.57	6171.2	
611.76	6756.2	
611.95	4123.9	
612.14	4029	
612.33	5972.6	
612.52	5799.8	
612.71	4375.1	
612.9	3941.7	
613.09	5552.7	
613.28	6895.5	
613.47	4296.6	
613.66	4768.4	
613.85	6146	
614.04	5694	
614.24	4286.4	
614.43	3801	
614.62	6143.9	
614.81	6184.2	
615	4655	
615.19	4575.8	
615.38	5714.5	
615.57	5969.1	
615.76	4515.1	
615.95	5042.1	
616.14	6232	
616.33	5971.2	
616.52	4719.9	
616.71	4752	
616.9	6130.9	
617.09	6010.8	
617.28	4332.8	
617.47	4921.3	
617.66	5720	
617.85	5670.8	
618.04	4813.4	
618.22	4517.1	
618.41	5801.2	
618.6	6469.5	
618.79	4506.2	
618.98	4331.5	
619.17	6484.6	
619.36	5509	
619.55	4426.3	
619.74	4498	
619.93	6161	
620.12	5699.5	
620.31	4767.7	
620.5	4771.8	
620.69	6632	
620.88	6607.4	
621.07	5184.8	
621.26	4638.6	
621.45	6234	
621.64	6168.5	
621.83	4650.9	
622.02	4261.1	
622.21	6313.2	
622.4	6097.5	
622.59	5071.5	
622.78	4924.7	
622.97	5917.9	
623.16	6418.3	
623.35	4777.2	
623.54	4297.3	
623.72	5946.6	
623.91	6059.3	
624.1	4878.9	
624.29	4082.3	
624.48	6698.9	
624.67	6315.9	
624.86	4797.7	
625.05	4234.5	
625.24	6782.2	
625.43	5914.5	
625.62	5679.7	
625.81	4360.1	
626	6403.3	
626.19	5988.9	
626.38	4775.2	
626.56	4521.9	
626.75	5895.4	
626.94	6338.5	
627.13	4880.3	
627.32	4130.8	
627.51	6354.2	
627.7	6848.4	
627.89	4169	
628.08	4853	
628.27	5856.5	
628.46	6027.2	
628.65	4403.1	
628.83	4071.4	
629.02	6377.4	
629.21	5784.8	
629.4	4618.2	
629.59	4760.8	
629.78	5831.2	
629.97	6395.8	
630.16	4767	
630.35	4457.1	
630.54	6724.8	
630.72	6579.4	
630.91	4450.9	
631.1	4747.2	
631.29	6139.1	
631.48	6162.3	
631.67	4868	
631.86	4508.3	
632.05	6037.4	
632.24	6014.9	
632.42	4336.2	
632.61	4656.4	
632.8	6077	
632.99	5694.7	
633.18	4646.2	
633.37	4832.5	
633.56	6260.6	
633.75	6111.8	
633.93	4765.6	
634.12	4554.7	
634.31	6738.5	
634.5	6374.6	
634.69	4571.7	
634.88	4788.8	
635.07	6085.2	
635.25	6364.4	
635.44	5053	
635.63	5144.5	
635.82	5986.2	
636.01	5423.7	
636.2	5019.6	
636.39	4717.8	
636.57	6724.8	
636.76	6281.1	
636.95	4460.5	
637.14	5162.9	
637.33	6277	
637.52	6739.2	
637.7	4280.3	
637.89	4966.3	
638.08	6082.5	
638.27	6850.5	
638.46	4937	
638.65	5111	
638.83	6757.6	
639.02	5885.9	
639.21	4853	
639.4	5126.1	
639.59	6209.4	
639.78	6014.9	
639.96	4343.1	
640.15	4405.2	
640.34	6186.9	
640.53	6108.4	
640.72	4283	
640.91	4500.1	
641.09	5774.6	
641.28	6516.6	
641.47	4666.6	
641.66	4928.8	
641.85	6163.7	
642.03	6325.5	
642.22	4756.7	
642.41	4554.7	
642.6	5884.5	
642.79	5461.9	
642.97	4458.4	
643.16	4758.1	
643.35	5784.1	
643.54	5735.7	
643.73	4334.9	
643.91	4752	
644.1	5700.9	
644.29	5999.9	
644.48	4391.5	
644.67	4364.9	
644.85	5597.8	
645.04	6006	
645.23	4263.2	
645.42	4381.3	
645.6	5779.4	
645.79	6383.5	
645.98	4345.1	
646.17	3803.8	
646.36	5525.4	
646.54	5806	
646.73	4821.6	
646.92	4107.5	
647.11	5647.6	
647.29	6227.2	
647.48	4205.2	
647.67	3981.9	
647.86	6377.4	
648.05	6285.9	
648.23	4278.9	
648.42	4995	
648.61	6013.5	
648.8	5895.4	
648.98	4111.6	
649.17	4337.6	
649.36	5661.3	
649.55	5349.3	
649.73	4132.8	
649.92	4632.5	
650.11	5503.6	
650.3	5707	
650.48	4185.4	
650.67	4085.7	
650.86	5924.8	
651.05	5302.9	
651.23	4154.6	
651.42	4214.7	
651.61	5644.2	
651.79	5545.2	
651.98	4317.8	
652.17	4073.4	
652.36	5812.8	
652.54	5272.8	
652.73	4085	
652.92	4076.1	
653.11	5919.3	
653.29	5915.2	
653.48	3671.3	
653.67	4263.2	
653.85	5722.7	
654.04	6327.5	
654.23	4359.4	
654.42	4128	
654.6	5466.7	
654.79	5885.2	
654.98	3847.5	
655.16	4216.1	
655.35	5296	
655.54	5059.8	
655.73	3881.6	
655.91	3771.7	
656.1	5835.3	
656.29	5025	
656.47	3615.3	
656.66	4562.9	
656.85	5356.1	
657.03	5345.9	
657.22	3915	
657.41	3945.8	
657.59	5344.5	
657.78	5256.5	
657.97	3655.6	
658.16	4107.5	
658.34	5785.5	
658.53	5941.8	
658.72	4668	
658.9	4912.4	
659.09	5616.9	
659.28	5505.6	
659.46	3973.7	
659.65	3918.4	
659.84	5322	
660.02	5777.3	
660.21	3966.2	
660.4	3789.4	
660.58	5921.4	
660.77	5524.7	
660.96	4257.7	
661.14	3700.7	
661.33	6169.2	
661.52	6181.5	
661.7	3660.4	
661.89	5629.2	
662.08	5264.6	
662.26	4919.2	
662.45	3868.6	
662.64	3950.5	
662.82	5772.5	
663.01	5183.4	
663.2	3937.6	
663.38	4319.2	
663.57	5675.6	
663.75	5644.2	
663.94	4058.4	
664.13	4883	
664.31	5362.3	
664.5	5712.5	
664.69	4238.6	
664.87	4481.6	
665.06	5137	
665.25	5549.3	
665.43	4682.3	
665.62	4603.2	
665.8	5711.1	
665.99	5372.5	
666.18	4077.5	
666.36	4114.4	
666.55	5786.2	
666.74	5627.8	
666.92	3895.9	
667.11	4844.8	
667.29	5489.2	
667.48	5724.1	
667.67	4543.1	
667.85	4033.8	
668.04	5289.9	
668.22	5287.9	
668.41	4081.6	
668.6	4336.9	
668.78	5236	
668.97	5327.4	
669.15	4330.8	
669.34	3714.3	
669.53	5296	
669.71	5425.1	
669.9	3814	
670.08	4186.7	
670.27	5172.5	
670.46	5679	
670.64	4348.5	
670.83	4490.5	
671.01	5083.7	
671.2	5418.2	
671.38	3902.1	
671.57	3860.4	
671.76	5901.6	
671.94	6144.6	
672.13	3750.5	
672.31	4382	
672.5	5696.8	
672.69	5229.1	
672.87	3901.4	
673.06	3993.5	
673.24	5555.5	
673.43	5279.7	
673.61	4265.2	
673.8	3961.5	
673.98	5619.6	
674.17	5651	
674.36	4410.6	
674.54	4290.5	
674.73	5346.6	
674.91	5707	
675.1	4051.6	
675.28	3805.1	
675.47	5414.1	
675.65	5649.7	
675.84	4049.5	
676.03	4166.3	
676.21	5289.9	
676.4	4877.6	
676.58	4505.5	
676.77	4369.7	
676.95	6218.3	
677.14	5251.7	
677.32	3829	
677.51	3725.9	
677.69	5743.9	
677.88	5154.1	
678.06	3760.1	
678.25	3927.3	
678.44	5429.2	
678.62	5198.4	
678.81	3708.9	
678.99	4162.2	
679.18	5892.7	
679.36	5608.7	
679.55	3971.7	
679.73	4364.2	
679.92	5640.1	
680.1	5257.1	
680.29	4702.1	
680.47	3951.9	
680.66	5275.6	
680.84	5728.2	
681.03	3702.7	
681.21	4239.3	
681.4	5215.5	
681.58	5200.5	
681.77	3865.9	
681.95	3861.1	
682.14	5760.9	
682.32	5905.7	
682.51	4425	
682.69	3697.3	
682.88	5219.6	
683.06	5537.7	
683.25	4250.9	
683.43	4407.9	
683.62	5475.6	
683.8	5590.3	
683.99	4545.1	
684.17	4190.8	
684.36	6101.6	
684.54	5416.2	
684.73	3693.2	
684.91	3838.6	
685.1	5600.5	
685.28	5128.8	
685.46	4175.1	
685.65	4197.7	
685.83	5665.4	
686.02	5238	
686.2	3796.3	
686.39	3865.2	
686.57	5051.7	
686.76	5919.3	
686.94	3841.3	
687.13	3848.1	
687.31	5498.1	
687.5	5267.4	
687.68	3562.1	
687.86	4216.1	
688.05	6324.1	
688.23	4893.3	
688.42	4260.5	
688.6	3822.9	
688.79	5204.6	
688.97	5212.8	
689.16	4109.6	
689.34	3473.4	
689.52	5640.1	
689.71	5795.1	
689.89	4229.1	
690.08	3862.5	
690.26	5398.4	
690.45	5215.5	
690.63	4362.2	
690.81	3980.6	
691	5373.2	
691.18	5141.1	
691.37	4059.8	
691.55	5294	
691.74	5100.8	
691.92	6296.1	
692.1	4031.8	
692.29	3636.5	
692.47	5408	
692.66	4931.5	
692.84	3846.8	
693.02	4087.1	
693.21	4921.3	
693.39	5350.7	
693.58	4222.2	
693.76	3815.4	
693.94	5864.7	
694.13	5823.1	
694.31	3871.3	
694.5	4426.3	
694.68	5167.7	
694.86	5403.2	
695.05	4018.8	
695.23	4283	
695.42	5568.4	
695.6	6823.8	
695.78	4403.1	
695.97	3876.8	
696.15	5682.4	
696.34	5221.6	
696.52	3758.7	
696.7	4235.2	
696.89	5470.8	
697.07	5046.9	
697.25	4169	
697.44	4996.4	
697.62	5502.2	
697.81	5589.6	
697.99	4047.5	
698.17	4296	
698.36	5192.3	
698.54	5520	
698.72	4205.2	
698.91	3695.9	
699.09	5261.2	
699.28	5100.1	
699.46	4067.3	
699.64	3933.5	
699.83	5138.4	
700.01	5739.8	
700.19	4425.7	
700.38	3512.9	
700.56	5713.8	
700.74	5097.4	
700.93	3675.4	
701.11	4171.7	
701.29	5465.3	
701.48	6092	
701.66	3798.3	
701.84	3906.8	
702.03	5272.8	
702.21	5696.1	
702.39	3663.8	
702.58	3957.4	
702.76	5553.4	
702.94	5517.9	
703.13	3565.5	
703.31	4931.5	
703.49	5141.1	
703.68	5868.8	
703.86	3727.3	
704.04	4294.6	
704.23	5416.2	
704.41	5610.1	
704.59	3855	
704.78	4270	
704.96	6448.4	
705.14	5489.2	
705.33	3648.1	
705.51	4206.5	
705.69	5173.9	
705.87	5700.9	
706.06	4265.2	
706.24	3627	
706.42	5444.9	
706.61	5568.4	
706.79	4394.3	
706.97	3601.7	
707.16	5158.8	
707.34	5479	
707.52	4269.3	
707.7	3758.7	
707.89	5124.7	
708.07	4976.6	
708.25	4297.3	
708.44	4459.8	
708.62	5086.5	
708.8	5766.4	
708.98	4443.4	
709.17	3876.8	
709.35	5343.2	
709.53	5373.9	
709.72	3666.5	
709.9	3786	
710.08	5635.3	
710.26	5548.6	
710.45	4599.7	
710.63	3866.6	
710.81	5326.1	
710.99	5351.3	
711.18	4243.4	
711.36	3901.4	
711.54	5227.1	
711.72	5691.3	
711.91	3989.4	
712.09	3663.1	
712.27	5406.6	
712.45	5614.2	
712.64	4085.7	
712.82	3577.1	
713	5073.5	
713.18	5129.5	
713.37	3538.9	
713.55	4388.8	
713.73	5603.9	
713.91	4821.6	
714.1	3770.3	
714.28	3489.7	
714.46	5390.3	
714.64	4987.5	
714.83	3220.1	
715.01	3655.6	
715.19	5044.1	
715.37	4523.3	
715.55	3409.2	
715.74	3568.2	
715.92	5457.8	
716.1	4286.4	
716.28	4283.7	
716.47	3722.5	
716.65	4848.2	
716.83	4770.4	
717.01	3593.5	
717.19	3622.2	
717.38	5947.3	
717.56	4526	
717.74	3729.4	
717.92	3252.9	
718.1	5298.1	
718.29	4817.5	
718.47	2998.2	
718.65	3398.9	
718.83	5270.8	
719.01	5173.2	
719.2	2955.2	
719.38	3600.3	
719.56	4958.1	
719.74	5896.1	
719.92	3420.8	
720.11	3971.7	
720.29	5158.2	
720.47	4597	
720.65	3170.9	
720.83	3678.8	
721.02	4794.3	
721.2	4687.8	
721.38	3719.8	
721.56	3280.2	
721.74	4378.6	
721.92	4428.4	
722.11	3943	
722.29	3746.4	
722.47	5172.5	
722.65	4605.2	
722.83	3222.1	
723.01	3721.2	
723.2	4646.2	
723.38	4983.4	
723.56	2919	
723.74	3538.9	
723.92	4445.5	
724.1	5060.5	
724.29	3166.2	
724.47	3813.3	
724.65	4573.1	
724.83	4392.9	
725.01	3145.7	
725.19	3601	
725.37	4474.8	
725.56	4392.2	
725.74	3065.1	
725.92	3247.4	
726.1	4350.6	
726.28	4628.4	
726.46	3449.5	
726.64	3229.6	
726.83	4712.4	
727.01	4715.8	
727.19	3055.6	
727.37	3529.3	
727.55	4728.1	
727.73	5056.4	
727.91	3007.8	
728.09	2907.4	
728.28	4986.8	
728.46	5099.4	
728.64	3490.4	
728.82	3491.1	
729	5581.4	
729.18	5227.8	
729.36	3003	
729.54	4347.2	
729.72	5685.8	
729.91	4701.5	
730.09	4127.3	
730.27	3431.7	
730.45	4674.1	
730.63	4996.4	
730.81	3784	
730.99	3243.3	
731.17	5423.7	
731.35	4500.1	
731.53	3511.6	
731.71	3306.1	
731.9	5222.3	
732.08	5231.9	
732.26	3508.9	
732.44	3291.1	
732.62	5304.2	
732.8	5012.7	
732.98	3749.8	
733.16	3182.5	
733.34	5109.7	
733.52	4206.5	
733.7	3463.8	
733.88	3519.1	
734.07	4958.1	
734.25	4826.4	
734.43	3150.5	
734.61	3933.5	
734.79	5569.1	
734.97	4709.6	
735.15	3196.9	
735.33	3408.5	
735.51	4985.4	
735.69	4715.1	
735.87	4010.6	
736.05	3545.7	
736.23	4803.2	
736.41	4561.5	
736.59	3412.6	
736.77	3452.9	
736.95	5068.7	
737.13	4689.2	
737.32	3244.7	
737.5	3302.7	
737.68	5438.7	
737.86	4618.2	
738.04	3120.4	
738.22	4121.2	
738.4	4599.7	
738.58	4780	
738.76	3452.2	
738.94	2850.8	
739.12	4656.4	
739.3	4596.3	
739.48	3795.6	
739.66	3621.5	
739.84	4807.9	
740.02	4704.9	
740.2	2942.9	
740.38	3104.7	
740.56	5004.6	
740.74	4137.6	
740.92	3476.8	
741.1	3411.2	
741.28	4712.4	
741.46	4446.8	
741.64	3226.2	
741.82	3547.8	
742	4767.7	
742.18	4617.5	
742.36	3381.2	
742.54	3155.9	
742.72	5044.1	
742.9	4259.1	
743.08	3553.9	
743.26	2854.9	
743.44	5018.2	
743.62	4923.3	
743.8	3700.7	
743.98	3137.5	
744.16	4844.8	
744.34	4575.8	
744.52	3536.8	
744.7	3549.1	
744.88	4949.3	
745.06	4583.4	
745.24	3569.6	
745.42	3646.1	
745.6	5113.1	
745.78	4908.3	
745.96	2952.5	
746.14	3120.4	
746.32	5449	
746.5	4859.8	
746.68	3475.4	
746.86	3136.8	
747.03	5076.9	
747.21	4289.1	
747.39	3475.4	
747.57	3102	
747.75	4710.3	
747.93	4952.7	
748.11	3079.5	
748.29	3069.2	
748.47	5708.4	
748.65	4537.6	
748.83	3572.3	
749.01	3375.7	
749.19	4900.8	
749.37	4302.8	
749.55	3396.2	
749.73	3335.5	
749.91	4774.5	
750.09	4617.5	
750.26	3360.7	
750.44	3022.8	
750.62	4689.8	
750.8	4642.7	
750.98	3001.6	
751.16	3194.8	
751.34	4790.2	
751.52	4366.3	
751.7	3601	
751.88	2965.5	
752.06	4997	
752.24	4880.3	
752.42	2957.3	
752.59	3184.6	
752.77	4689.8	
752.95	5383.4	
753.13	3536.2	
753.31	3245.3	
753.49	4473.4	
753.67	4747.9	
753.85	3411.2	
754.03	3109.5	
754.21	4917.9	
754.38	5132.9	
754.56	3183.2	
754.74	2782.5	
754.92	4460.5	
755.1	4811.4	
755.28	2732	
755.46	2737.5	
755.64	5360.2	
755.82	5458.5	
755.99	2961.4	
756.17	3011.9	
756.35	3941	
756.53	4823.6	
756.71	2325.1	
756.89	3195.5	
757.07	4599.7	
757.25	4075.5	
757.42	3194.1	
757.6	3696.6	
757.78	4691.9	
757.96	4158.1	
758.14	2999.6	
758.32	2688.3	
758.5	3784	
758.67	4308.2	
758.85	2880.8	
759.03	2941.6	
759.21	4410.6	
759.39	4035.2	
759.57	2654.2	
759.75	3290.4	
759.92	4872.8	
760.1	4481	
760.28	3458.3	
760.46	3695.2	
760.64	4306.2	
760.82	4173.1	
760.99	3327.3	
761.17	2906.8	
761.35	4756.7	
761.53	4070	
761.71	3130.7	
761.89	3401.7	
762.06	4672.1	
762.24	4377.2	
762.42	3192.1	
762.6	2931.3	
762.78	4373.1	
762.96	4679.6	
763.13	3287	
763.31	3059	
763.49	4741	
763.67	4304.8	
763.85	3562.8	
764.02	3871.3	
764.2	4984.8	
764.38	4403.8	
764.56	3048.1	
764.74	3482.2	
764.91	5005.2	
765.09	4299.4	
765.27	2882.2	
765.45	2720.4	
765.63	5085.8	
765.8	4887.1	
765.98	2638.5	
766.16	2822.1	
766.34	4055	
766.52	3992.2	
766.69	3332	
766.87	2684.9	
767.05	4349.9	
767.23	4777.9	
767.41	2872.6	
767.58	3026.2	
767.76	4734.9	
767.94	4765.6	
768.12	2936.8	
768.29	3336.1	
768.47	4346.5	
768.65	4814.1	
768.83	2761.3	
769	3362.8	
769.18	4191.5	
769.36	4534.2	
769.54	3333.4	
769.72	2746.3	
769.89	4827.1	
770.07	4756.1	
770.25	2986.6	
770.43	3689.8	
770.6	5233.9	
770.78	5432.6	
770.96	3059.7	
771.14	3345	
771.31	4729.4	
771.49	4358.1	
771.67	2619.4	
771.85	2720.4	
772.02	3885.7	
772.2	4257	
772.38	3158	
772.55	2815.3	
772.73	4547.2	
772.91	4373.1	
773.09	3049.4	
773.26	3117	
773.44	4489.1	
773.62	4353.3	
773.8	2764.8	
773.97	2676.7	
774.15	4513	
774.33	4347.8	
774.5	2761.3	
774.68	2942.9	
774.86	4628.4	
775.04	4367.6	
775.21	2817.3	
775.39	2714.9	
775.57	4502.1	
775.74	4603.2	
775.92	2592	
776.1	2547	
776.27	4487.1	
776.45	5145.9	
776.63	2810.5	
776.81	2568.2	
776.98	4334.9	
777.16	4838	
777.34	2856.2	
777.51	3038.5	
777.69	4319.2	
777.87	4128.7	
778.04	3033	
778.22	3215.3	
778.4	4078.9	
778.57	4543.8	
778.75	2532	
778.93	2666.5	
779.1	4095.9	
779.28	3903.4	
779.46	2480.1	
779.64	2729.9	
779.81	4639.3	
779.99	5077.6	
780.17	3213.3	
780.34	3277.4	
780.52	4332.8	
780.69	4382	
780.87	2972.3	
781.05	2692.4	
781.22	4397.7	
781.4	4386.7	
781.58	2810.5	
781.75	2324.4	
781.93	4440.7	
782.11	3982.6	
782.28	3355.9	
782.46	2757.9	
782.64	3915.7	
782.81	4459.1	
782.99	2902.7	
783.17	2794.1	
783.34	4391.5	
783.52	4097.3	
783.69	2889.7	
783.87	3403	
784.05	4092.5	
784.22	4065.2	
784.4	3426.3	
784.58	3018.7	
784.75	4635.9	
784.93	4129.4	
785.1	2798.9	
785.28	3146.4	
785.46	4419.5	
785.63	4026.3	
785.81	2847.4	
785.99	2654.2	
786.16	4192.2	
786.34	4382.7	
786.51	2747	
786.69	3033	
786.87	3812.6	
787.04	4178.5	
787.22	2712.2	
787.39	3229	
787.57	4072	
787.75	4609.3	
787.92	3381.2	
788.1	3225.6	
788.27	4052.2	
788.45	3810.6	
788.63	3126.6	
788.8	2359.3	
788.98	4389.5	
789.15	3735.5	
789.33	2492.4	
789.5	2805.7	
789.68	4591.5	
789.86	4608.6	
790.03	3039.9	
790.21	2683.5	
790.38	4648.2	
790.56	4146.5	
790.73	2676	
790.91	2660.3	
791.09	4068.6	
791.26	4423.6	
791.44	2891	
791.61	2480.1	
791.79	4064.5	
791.96	3977.8	
792.14	2585.9	
792.32	2325.1	
792.49	4018.1	
792.67	4132.8	
792.84	2596.1	
793.02	2482.1	
793.19	4343.1	
793.37	4663.9	
793.54	2325.8	
793.72	2488.3	
793.89	4758.1	
794.07	4010.6	
794.25	2927.9	
794.42	2356.5	
794.6	4618.2	
794.77	4379.2	
794.95	3007.1	
795.12	2697.2	
795.3	4102.1	
795.47	4329.4	
795.65	2963.4	
795.82	2818.7	
796	3955.3	
796.17	4939.7	
796.35	2791.4	
796.52	3169.6	
796.7	4370.4	
796.87	4444.1	
797.05	2747	
797.22	3252.9	
797.4	4459.8	
797.57	4932.9	
797.75	2854.9	
797.92	2680.8	
798.1	4617.5	
798.27	3848.1	
798.45	2480.1	
798.62	2559.3	
798.8	4261.1	
798.97	4467.3	
799.15	2958.6	
799.32	2845.3	
799.5	3812	
799.67	4177.9	
799.85	3027.6	
800.02	2372.9	
800.2	4003.8	
800.37	4130.8	
800.55	3116.3	
800.72	2697.2	
800.9	4486.4	
801.07	4726	
801.25	3481.5	
801.42	2915.6	
801.6	4567	
801.77	4201.7	
801.95	2806.4	
802.12	2695.8	
802.29	4366.3	
802.47	4201.7	
802.64	2974.3	
802.82	2372.9	
802.99	4073.4	
803.17	4573.1	
803.34	2926.5	
803.52	2603	
803.69	4887.8	
803.87	3826.3	
804.04	2857.6	
804.21	2859	
804.39	4780.6	
804.56	4119.1	
804.74	2532	
804.91	2880.1	
805.09	4083.6	
805.26	4048.8	
805.44	2549	
805.61	2768.9	
805.78	4465.3	
805.96	4371.7	
806.13	2911.5	
806.31	3083.6	
806.48	3725.9	
806.66	4048.2	
806.83	2978.4	
807	2815.3	
807.18	4074.1	
807.35	4219.5	
807.53	2841.9	
807.7	2484.2	
807.87	4677.6	
808.05	4036.5	
808.22	3025.5	
808.4	2394.1	
808.57	3955.3	
808.74	3804.4	
808.92	2704.7	
809.09	3291.1	
809.27	4074.1	
809.44	4262.5	
809.61	2393.4	
809.79	2620	
809.96	4850.3	
810.14	4399	
810.31	2420.7	
810.48	3047.4	
810.66	4060.4	
810.83	4427	
811.01	2721.1	
811.18	2951.1	
811.35	4511.7	
811.53	3647.4	
811.7	3153.2	
811.87	2953.2	
812.05	4144.4	
812.22	4022.2	
812.39	2654.9	
812.57	2539.5	
812.74	4151.2	
812.92	5020.3	
813.09	2830.3	
813.26	2902	
813.44	4747.2	
813.61	3940.3	
813.78	2428.9	
813.96	2979.1	
814.13	4078.2	
814.3	3940.3	
814.48	3257.6	
814.65	2723.1	
814.82	4855.1	
815	3830.4	
815.17	2791.4	
815.34	3359.4	
815.52	4024.9	
815.69	3969	
815.87	2758.6	
816.04	2768.2	
816.21	4055.7	
816.38	3770.3	
816.56	2703.3	
816.73	2608.4	
816.9	4988.2	
817.08	4407.9	
817.25	2608.4	
817.42	3166.8	
817.6	3854.3	
817.77	4018.8	
817.94	2850.1	
818.12	2567.5	
818.29	3957.4	
818.46	5382.7	
818.64	2741.5	
818.81	2542.2	
818.98	3938.9	
819.16	5104.2	
819.33	2942.2	
819.5	2839.2	
819.67	4278.2	
819.85	4685.1	
820.02	2798.9	
820.19	2866.5	
820.37	4195.6	
820.54	4043.4	
820.71	2846.7	
820.88	3482.9	
821.06	4224.3	
821.23	3943.7	
821.4	2891.7	
821.58	2831	
821.75	4408.6	
821.92	4177.2	
822.09	2443.2	
822.27	2457.6	
822.44	4068.6	
822.61	3994.9	
822.79	2464.4	
822.96	4214.7	
823.13	4276.8	
823.3	3818.8	
823.48	2675.3	
823.65	2494.4	
823.82	4508.9	
823.99	3820.8	
824.17	3284.9	
824.34	2521	
824.51	5016.2	
824.68	4072	
824.86	2629.6	
825.03	2850.8	
825.2	4078.9	
825.37	4633.2	
825.55	2651.4	
825.72	2833.7	
825.89	4977.9	
826.06	4656.4	
826.24	2771.6	
826.41	2827.6	
826.58	4734.2	
826.75	4217.5	
826.92	2336.7	
827.1	2518.3	
827.27	5959.6	
827.44	4898.1	
827.61	2641.9	
827.79	3067.2	
827.96	3977.2	
828.13	4017.4	
828.3	2815.3	
828.47	2361.3	
828.65	4364.2	
828.82	4263.9	
828.99	3353.2	
829.16	3003.7	
829.34	4509.6	
829.51	4463.2	
829.68	2808.4	
829.85	2806.4	
830.02	4784.1	
830.2	4534.9	
830.37	2290.3	
830.54	3269.2	
830.71	4941.7	
830.88	4143.7	
831.05	2303.3	
831.23	2586.6	
831.4	4876.9	
831.57	5143.1	
831.74	2669.9	
831.91	2359.9	
832.09	4433.2	
832.26	4487.8	
832.43	2686.3	
832.6	2917	
832.77	4287.8	
832.94	4773.8	
833.12	2255.5	
833.29	2632.3	
833.46	4345.8	
833.63	5298.8	
833.8	2901.3	
833.97	2655.5	
834.15	4606.6	
834.32	4474.1	
834.49	2795.5	
834.66	2825.5	
834.83	4588.8	
835	3999.7	
835.17	2600.9	
835.35	2603	
835.52	4504.8	
835.69	4330.1	
835.86	2732	
836.03	2325.1	
836.2	4549.2	
836.37	4240	
836.55	2654.9	
836.72	2539.5	
836.89	4265.2	
837.06	4607.2	
837.23	2718.3	
837.4	2865.8	
837.57	5030.5	
837.75	5352	
837.92	2467.1	
838.09	2643.9	
838.26	4304.8	
838.43	4606.6	
838.6	2749.7	
838.77	2590	
838.94	5057.1	
839.11	4980.7	
839.29	2736.1	
839.46	2205.7	
839.63	4585.4	
839.8	4311.7	
839.97	2619.4	
840.14	2589.3	
840.31	4396.3	
840.48	4502.8	
840.65	2267.8	
840.82	2587.3	
841	4498.7	
841.17	4406.5	
841.34	2424.1	
841.51	2517	
841.68	4503.5	
841.85	4285.7	
842.02	2562.7	
842.19	2194.1	
842.36	4398.4	
842.53	4384	
842.7	2452.8	
842.87	2816	
843.05	5379.3	
843.22	4247.5	
843.39	2402.3	
843.56	2551.8	
843.73	4248.9	
843.9	4602.5	
844.07	3642.7	
844.24	3048.1	
844.41	5819	
844.58	4103.4	
844.75	2387.9	
844.92	2501.3	
845.09	4453	
845.26	4469.4	
845.43	2478	
845.6	2564.7	
845.77	4548.5	
845.94	4376.5	
846.12	2695.1	
846.29	2808.4	
846.46	4674.1	
846.63	4449.6	
846.8	2416.6	
846.97	2839.8	
847.14	4746.5	
847.31	4474.8	
847.48	2663.7	
847.65	2921.8	
847.82	4502.1	
847.99	4622.3	
848.16	3122.5	
848.33	2852.8	
848.5	4184	
848.67	4749.2	
848.84	2387.9	
849.01	2551.8	
849.18	4199	
849.35	3988.8	
849.52	2892.4	
849.69	2437.1	
849.86	4670.7	
850.03	4657.8	
850.2	2434.4	
850.37	2838.5	
850.54	4685.1	
850.71	4242.7	
850.88	2852.1	
851.05	2408.4	
851.22	4380.6	
851.39	4743.1	
851.56	2282.8	
851.73	2718.3	
851.9	4074.1	
852.07	4625	
852.24	2644.6	
852.41	2424.8	
852.58	4475.5	
852.75	4113.7	
852.92	2636.4	
853.09	2394.8	
853.26	4163.5	
853.43	4684.4	
853.6	2439.1	
853.77	2135.3	
853.94	4798.4	
854.11	4022.9	
854.28	3374.4	
854.44	2636.4	
854.61	4979.3	
854.78	4670.1	
854.95	2410.5	
855.12	2891	
855.29	3818.8	
855.46	5018.9	
855.63	2489	
855.8	3155.9	
855.97	4154.6	
856.14	4696.7	
856.31	3224.9	
856.48	2575.7	
856.65	4287.1	
856.82	4040.6	
856.99	2396.1	
857.16	2595.5	
857.33	5159.5	
857.49	4258.4	
857.66	2608.4	
857.83	2681.5	
858	4326	
858.17	4477.5	
858.34	2341.5	
858.51	2455.5	
858.68	4827.7	
858.85	4807.3	
859.02	2733.4	
859.19	2882.9	
859.36	4070.7	
859.52	4031.8	
859.69	2438.4	
859.86	2829.6	
860.03	4085	
860.2	4814.8	
860.37	2292.4	
860.54	2443.9	
860.71	4558.1	
860.88	4862.6	
861.05	2638.5	
861.21	3004.4	
861.38	4769.7	
861.55	3945.1	
861.72	2309.4	
861.89	2638.5	
862.06	4663.9	
862.23	4812.7	
862.4	2434.4	
862.56	2481.5	
862.73	4564.2	
862.9	4358.1	
863.07	2750.4	
863.24	2254.8	
863.41	4004.5	
863.58	4133.5	
863.75	2463.7	
863.91	2792.7	
864.08	4661.2	
864.25	4552.6	
864.42	2993.4	
864.59	3257.6	
864.76	4994.3	
864.93	4102.1	
865.09	2346.3	
865.26	2588.6	
865.43	4780.6	
865.6	4979.3	
865.77	2147.6	
865.94	2362.7	
866.1	4691.9	
866.27	4447.5	
866.44	3411.2	
866.61	2346.3	
866.78	4305.5	
866.95	4524.6	
867.11	2417.3	
867.28	2239.8	
867.45	4735.6	
867.62	4065.9	
867.79	2708.1	
867.96	2401.6	
868.12	4019.5	
868.29	4610.7	
868.46	2436.4	
868.63	3049.4	
868.8	4642.1	
868.97	4599.1	
869.13	2497.8	
869.3	2528.6	
869.47	4440.7	
869.64	4660.5	
869.81	2452.8	
869.97	2473.3	
870.14	4395.6	
870.31	4808.6	
870.48	2385.9	
870.65	2973	
870.81	4342.4	
870.98	4306.9	
871.15	2669.2	
871.32	2535.4	
871.48	4534.2	
871.65	4818.9	
871.82	2394.1	
871.99	2659.6	
872.16	5111	
872.32	4724.7	
872.49	2446	
872.66	2452.8	
872.83	4640.7	
872.99	4164.2	
873.16	2691	
873.33	2430.3	
873.5	4322.6	
873.67	4425	
873.83	2540.2	
874	3121.1	
874.17	4491.9	
874.34	4930.8	
874.5	2941.6	
874.67	2891	
874.84	4713.1	
875.01	3887	
875.17	3181.9	
875.34	2462.3	
875.51	4471.4	
875.68	5126.1	
875.84	2871.3	
876.01	3338.2	
876.18	4598.4	
876.34	4557.4	
876.51	2463.7	
876.68	2427.5	
876.85	4223.6	
877.01	4803.9	
877.18	3262.4	
877.35	2383.2	
877.52	4481	
877.68	4042.7	
877.85	2403.6	
878.02	2428.9	
878.18	4143.7	
878.35	4199	
878.52	2042.5	
878.69	2821.4	
878.85	4715.8	
879.02	4515.8	
879.19	3245.3	
879.35	2620.7	
879.52	4568.3	
879.69	4530.8	
879.86	2232.3	
880.02	2669.2	
880.19	4396.3	
880.36	4998.4	
880.52	2686.9	
880.69	2757.2	
880.86	4643.4	
881.02	4618.9	
881.19	2643.2	
881.36	2571.6	
881.52	4560.8	
881.69	4083.6	
881.86	2674	
882.02	2540.2	
882.19	4698	
882.36	5304.2	
882.52	2416.6	
882.69	3174.4	
882.86	4416.1	
883.02	4429.1	
883.19	2840.5	
883.36	2707.4	
883.52	4622.9	
883.69	5151.3	
883.86	2479.4	
884.02	2257.5	
884.19	4598.4	
884.36	4424.3	
884.52	2674.6	
884.69	2594.1	
884.86	4226.3	
885.02	4890.5	
885.19	2647.3	
885.36	2721.8	
885.52	4261.1	
885.69	4517.1	
885.86	3386	
886.02	2996.9	
886.19	4630.5	
886.35	4177.9	
886.52	2648	
886.69	3222.8	
886.85	4004.5	
887.02	4716.5	
887.19	4716.5	
887.35	4716.5	
887.52	4716.5	
887.68	4716.5	
887.85	4716.5	
888.02	4716.5	
888.18	4716.5	
888.35	4716.5	
888.51	4716.5	
888.68	4716.5	
888.85	4716.5	
889.01	4716.5	
889.18	4716.5	
889.35	4716.5	
889.51	4716.5	
889.68	4716.5	
889.84	4716.5	
890.01	4716.5	
890.17	4716.5	
890.34	4716.5	
890.51	4716.5	
890.67	4716.5	
890.84	4716.5	
891	4716.5	
891.17	4716.5	
891.34	4716.5	
891.5	4716.5	
891.67	4716.5	
891.83	4716.5	
892	4716.5	
892.16	4716.5	
892.33	4716.5	
892.5	4716.5	
892.66	4716.5	
892.83	4716.5	
892.99	4716.5	
893.16	4716.5	
893.32	4716.5	
893.49	4716.5	
893.65	4716.5	
893.82	4716.5	
893.99	4716.5	
894.15	4716.5	
894.32	4716.5	
894.48	4716.5	
894.65	4716.5	
894.81	4716.5	
894.98	4716.5	
895.14	4716.5	
895.31	4716.5	
895.47	4716.5	
895.64	4716.5	
895.81	4716.5	
895.97	4716.5	
896.14	4716.5	
896.3	4716.5	
896.47	4716.5	
896.63	4716.5	
896.8	4716.5	
896.96	4716.5	
897.13	4716.5	
897.29	4716.5	
897.46	4716.5	
897.62	4716.5	
897.79	4716.5	
897.95	4716.5	
898.12	4716.5	
898.28	4716.5	
898.45	4716.5	
898.61	4716.5	
898.78	4716.5	
898.94	4716.5	
899.11	4716.5	
899.27	4716.5	
899.44	4716.5	
899.6	4716.5	
899.77	4716.5	
899.93	4716.5	
900.1	4716.5	
900.26	4716.5	
900.43	4716.5	
900.59	4716.5	
900.76	4716.5	
900.92	4716.5	
901.09	4716.5	
901.25	4716.5	
901.42	4716.5	
901.58	4716.5	
901.75	4716.5	
901.91	4716.5	
902.07	4716.5	
902.24	4716.5	
902.4	4716.5	
902.57	4716.5	
902.73	4716.5	
902.9	4716.5	
903.06	4716.5	
903.23	4716.5	
903.39	4716.5	
903.56	4716.5	
903.72	4716.5	
903.88	4716.5	
904.05	4716.5	
904.21	4716.5	
904.38	4716.5	
904.54	4716.5	
904.71	4716.5	
904.87	4716.5	
905.03	4716.5	
905.2	4716.5	
905.36	4716.5	
905.53	4716.5	
905.69	4716.5	
905.86	4716.5	
906.02	4716.5	
906.18	4716.5	
906.35	4716.5	
906.51	4716.5	
906.68	4716.5	
906.84	4716.5	
907.01	4716.5	
907.17	4716.5	
907.33	4716.5	
907.5	4716.5	
907.66	4716.5	
907.83	4716.5	
907.99	4716.5	
908.15	4716.5	
908.32	4716.5	
908.48	4716.5	
908.65	4716.5	
908.81	4716.5	
908.97	4716.5	
909.14	4716.5	
909.3	4716.5	
909.47	4716.5	
909.63	4716.5	
909.79	4716.5	
909.96	4716.5	
910.12	4716.5	
910.28	4716.5	
910.45	4716.5	
910.61	4716.5	
910.78	4716.5	
910.94	4716.5	
911.1	4716.5	
911.27	4716.5	
911.43	4716.5	
911.59	4716.5	
911.76	4716.5	
911.92	4716.5	
912.08	4716.5	
912.25	4716.5	
912.41	4716.5	
912.57	4716.5	
912.74	4716.5	
912.9	4716.5	
913.07	4716.5	
913.23	4716.5	
913.39	4716.5	
913.56	4716.5	
913.72	4716.5	
913.88	4716.5	
914.05	4716.5	
914.21	4716.5	
914.37	4716.5	
914.54	4716.5	
914.7	4716.5	
914.86	4716.5	
915.03	4716.5	
915.19	4716.5	
