Wavelength	Intensities	
nm	a.u.	
179.22	1931.7	
179.44	1943.9	
179.65	1919.6	
179.86	1968.1	
180.08	1951	
180.29	5166.3	
180.51	3607.8	
180.72	5764.3	
180.94	6872.3	
181.15	3312.9	
181.37	3272.7	
181.58	5624.4	
181.79	6016.9	
182.01	3528.7	
182.22	3739.6	
182.44	5874.9	
182.65	4936.3	
182.87	4724.7	
183.08	4178.5	
183.29	6234	
183.51	5107	
183.72	3795.6	
183.94	5543.9	
184.15	5552.7	
184.37	5551.4	
184.58	3274	
184.79	4571.7	
185.01	5086.5	
185.22	5838.1	
185.44	4881	
185.65	4093.2	
185.86	5407.3	
186.08	5012.1	
186.29	3208.5	
186.51	3508.2	
186.72	5198.4	
186.94	6116.6	
187.15	4052.9	
187.36	4205.8	
187.58	8023.3	
187.79	5639.4	
188.01	4373.8	
188.22	6905.1	
188.43	6836.8	
188.65	5837.4	
188.86	3452.9	
189.08	4209.9	
189.29	5327.4	
189.5	5399.8	
189.72	3902.1	
189.93	3965.6	
190.15	6156.9	
190.36	7404.8	
190.57	4317.1	
190.79	4141.7	
191	6252.4	
191.22	6198.5	
191.43	4288.4	
191.64	3485	
191.86	6505	
192.07	6225.8	
192.29	3650.8	
192.5	3858.4	
192.71	6118	
192.93	5225.1	
193.14	3871.3	
193.35	3936.9	
193.57	5289.9	
193.78	6119.3	
194	3109.5	
194.21	3759.4	
194.42	5066.7	
194.64	5530.2	
194.85	4189.5	
195.07	4970.4	
195.28	5662	
195.49	4807.3	
195.71	5279.7	
195.92	3640.6	
196.13	5745.2	
196.35	5967.8	
196.56	5559.6	
196.78	4243.4	
196.99	7298.3	
197.2	6801.3	
197.42	4775.2	
197.63	4242	
197.84	4971.1	
198.06	5765	
198.27	3804.4	
198.48	5223	
198.7	5276.9	
198.91	5427.1	
199.13	4258.4	
199.34	4214	
199.55	5974.6	
199.77	4778.6	
199.98	3680.9	
200.19	4280.9	
200.41	5474.9	
200.62	5148.6	
200.83	4465.9	
201.05	4668	
201.26	5443.5	
201.47	5170.4	
201.69	3743.7	
201.9	3568.2	
202.11	5513.1	
202.33	6602.7	
202.54	4012	
202.76	4500.1	
202.97	5688.6	
203.18	5668.8	
203.4	4408.6	
203.61	4272.7	
203.82	5560.2	
204.04	5229.1	
204.25	4254.3	
204.46	4199.7	
204.68	5621.7	
204.89	5825.8	
205.1	4100.7	
205.32	3566.2	
205.53	6027.2	
205.74	6154.8	
205.96	3004.4	
206.17	4317.1	
206.38	5922.7	
206.6	6122.1	
206.81	4880.3	
207.02	3941	
207.24	5780.1	
207.45	6249	
207.66	3979.2	
207.88	3360.7	
208.09	5780.7	
208.3	5552.7	
208.52	3667.9	
208.73	4035.2	
208.94	5497.4	
209.15	6287.3	
209.37	4048.2	
209.58	4283	
209.79	6155.5	
210.01	5313.1	
210.22	3229.6	
210.43	3377.8	
210.65	5606	
210.86	6005.3	
211.07	4040	
211.29	3638.6	
211.5	5859.2	
211.71	5449	
211.93	3661.1	
212.14	3642	
212.35	5467.4	
212.56	5790.3	
212.78	4247.5	
212.99	3484.3	
213.2	6562.4	
213.42	5253.7	
213.63	3810.6	
213.84	4037.9	
214.06	4882.4	
214.27	5046.9	
214.48	3956.7	
214.69	4285	
214.91	6264.1	
215.12	6347.3	
215.33	4339	
215.55	4788.8	
215.76	6901	
215.97	6016.9	
216.18	4166.3	
216.4	4020.8	
216.61	5271.5	
216.82	6113.9	
217.04	3720.5	
217.25	3880.2	
217.46	6251.8	
217.67	5956.9	
217.89	3344.3	
218.1	3417.4	
218.31	5651.7	
218.53	5697.4	
218.74	3885	
218.95	3780.6	
219.16	5479	
219.38	6481.8	
219.59	3762.8	
219.8	4541	
220.01	7286	
220.23	5545.2	
220.44	4974.5	
220.65	3668.6	
220.87	5614.8	
221.08	6259.3	
221.29	3424.2	
221.5	4541.7	
221.72	7671.7	
221.93	5249.6	
222.14	4280.9	
222.35	5008.6	
222.57	5573.2	
222.78	5955.5	
222.99	4001.7	
223.2	4379.2	
223.42	5894.1	
223.63	6038.8	
223.84	3125.9	
224.05	3086.3	
224.27	7172.7	
224.48	6606.7	
224.69	5021.6	
224.9	4272.7	
225.12	5794.4	
225.33	5507	
225.54	3383.2	
225.75	3752.6	
225.97	5088.5	
226.18	5367.7	
226.39	4044.1	
226.6	3800.3	
226.82	5290.6	
227.03	5119.2	
227.24	4276.8	
227.45	3492.5	
227.67	5872.9	
227.88	6543.9	
228.09	4653.7	
228.3	4739.7	
228.52	6036.7	
228.73	5518.6	
228.94	3916.4	
229.15	3480.9	
229.36	5432.6	
229.58	5364.3	
229.79	3954.6	
230	4668	
230.21	6683.2	
230.43	5633.3	
230.64	4275.5	
230.85	4377.2	
231.06	6031.3	
231.28	5991	
231.49	3483.6	
231.7	4107.5	
231.91	5849	
232.12	5600.5	
232.34	3551.2	
232.55	4129.4	
232.76	6242.2	
232.97	5753.4	
233.18	3723.2	
233.4	4137.6	
233.61	5806	
233.82	5270.1	
234.03	3912.3	
234.25	3844	
234.46	7788.4	
234.67	5661.3	
234.88	4353.3	
235.09	3667.2	
235.31	5919.3	
235.52	5390.9	
235.73	4210.6	
235.94	3526.6	
236.15	5299.5	
236.37	6817.7	
236.58	3716.4	
236.79	4074.8	
237	5913.2	
237.21	4982	
237.43	4382	
237.64	3414	
237.85	10338	
238.06	5085.1	
238.27	4437.3	
238.48	3557.3	
238.7	5917.3	
238.91	5356.1	
239.12	4070	
239.33	4063.9	
239.54	5106.3	
239.76	5453.7	
239.97	4003.8	
240.18	4039.3	
240.39	7036.1	
240.6	5859.9	
240.82	4216.1	
241.03	3429	
241.24	5528.2	
241.45	6500.9	
241.66	3615.3	
241.87	4345.1	
242.09	6325.5	
242.3	6747.4	
242.51	4425	
242.72	4028.4	
242.93	6041.5	
243.14	5502.9	
243.36	4695.3	
243.57	5090.6	
243.78	6488.6	
243.99	5922.7	
244.2	4061.1	
244.41	3729.4	
244.63	5121.3	
244.84	5910.4	
245.05	4336.9	
245.26	4107.5	
245.47	5906.3	
245.68	6180.8	
245.9	5494.7	
246.11	4281.6	
246.32	5432.6	
246.53	5862	
246.74	6651.1	
246.95	3396.2	
247.16	5028.4	
247.38	5522	
247.59	3345.7	
247.8	4077.5	
248.01	5212.8	
248.22	5482.4	
248.43	3676.8	
248.64	3920.5	
248.86	4922	
249.07	5360.9	
249.28	3548.4	
249.49	4120.5	
249.7	6139.1	
249.91	6307.7	
250.12	3317.7	
250.34	3422.2	
250.55	5652.4	
250.76	5584.8	
250.97	4205.8	
251.18	4250.2	
251.39	6361.7	
251.6	5728.9	
251.81	4317.1	
252.03	4237.9	
252.24	5271.5	
252.45	6155.5	
252.66	3519.1	
252.87	4526.7	
253.08	5609.4	
253.29	7355.6	
253.5	3486.3	
253.72	4951.3	
253.93	5434.6	
254.14	6645	
254.35	3831.7	
254.56	3938.2	
254.77	5865.4	
254.98	5154.1	
255.19	3774.4	
255.41	4986.1	
255.62	5689.3	
255.83	6283.2	
256.04	4381.3	
256.25	4271.4	
256.46	6690	
256.67	5264.6	
256.88	4178.5	
257.09	4709	
257.31	5234.6	
257.52	5286.5	
257.73	5260.5	
257.94	3863.8	
258.15	5388.9	
258.36	5582.8	
258.57	4888.5	
258.78	3039.9	
258.99	6039.5	
259.2	5372.5	
259.41	3873.4	
259.63	3960.1	
259.84	6397.2	
260.05	6916.7	
260.26	5164.3	
260.47	3735.5	
260.68	6156.9	
260.89	5521.3	
261.1	4690.5	
261.31	3685	
261.52	6115.2	
261.73	6589	
261.95	5051	
262.16	4430.4	
262.37	6299.6	
262.58	6387.6	
262.79	4983.4	
263	3950.5	
263.21	5656.5	
263.42	5068	
263.63	3986.7	
263.84	3983.3	
264.05	6139.1	
264.26	6580.1	
264.47	4835.3	
264.69	4205.2	
264.9	6272.9	
265.11	5838.8	
265.32	3745.7	
265.53	3863.2	
265.74	5761.6	
265.95	4977.2	
266.16	4166.3	
266.37	4579.9	
266.58	5724.1	
266.79	5408.7	
267	3742.3	
267.21	3545.7	
267.42	5100.1	
267.63	5537.7	
267.84	4023.6	
268.06	3475.4	
268.27	6027.2	
268.48	6361	
268.69	3880.2	
268.9	4661.2	
269.11	6293.4	
269.32	5042.8	
269.53	4067.3	
269.74	3739.6	
269.95	5866.1	
270.16	4909.7	
270.37	4066.6	
270.58	4743.1	
270.79	5380.7	
271	6186.9	
271.21	4332.8	
271.42	4077.5	
271.63	5665.4	
271.84	5198.4	
272.05	3249.4	
272.26	3638.6	
272.47	5597.1	
272.68	5866.1	
272.89	3891.8	
273.11	4508.9	
273.32	5408	
273.53	6594.5	
273.74	4362.2	
273.95	4259.8	
274.16	6269.5	
274.37	5601.2	
274.58	4459.8	
274.79	3523.9	
275	5710.4	
275.21	6304.3	
275.42	5338.4	
275.63	4595	
275.84	5814.9	
276.05	7354.3	
276.26	4299.4	
276.47	4042	
276.68	5405.3	
276.89	6657.3	
277.1	4603.2	
277.31	3517.7	
277.52	5855.1	
277.73	5950	
277.94	3478.1	
278.15	3958.7	
278.36	5747.3	
278.57	5233.9	
278.78	3811.3	
278.99	4423.6	
279.2	5147.2	
279.41	5158.8	
279.62	5148.6	
279.83	3590.1	
280.04	6836.8	
280.25	5052.3	
280.46	5036	
280.67	4007.2	
280.88	5152	
281.09	6262	
281.3	4228.4	
281.51	5427.8	
281.72	5253	
281.93	6088.6	
282.14	3784	
282.35	4102.1	
282.56	6080.4	
282.77	6092	
282.98	3945.8	
283.19	4833.9	
283.4	7601.4	
283.61	5509.7	
283.82	3500.7	
284.03	5105.6	
284.24	5667.4	
284.45	6274.3	
284.66	5005.9	
284.87	4851	
285.08	6180.8	
285.29	6403.3	
285.5	3397.6	
285.71	3989.4	
285.92	6267.5	
286.12	6963.8	
286.33	4981.3	
286.54	3987.4	
286.75	6042.9	
286.96	5416.9	
287.17	3594.2	
287.38	5042.1	
287.59	5146.5	
287.8	5077.6	
288.01	4036.5	
288.22	4573.1	
288.43	6122.1	
288.64	5043.5	
288.85	4711.7	
289.06	4513	
289.27	6020.3	
289.48	6578.8	
289.69	5051	
289.9	4558.8	
290.11	6253.8	
290.32	5273.5	
290.53	4886.5	
290.74	4425.7	
290.94	6044.9	
291.15	6047	
291.36	3840.6	
291.57	4592.2	
291.78	5294	
291.99	4976.6	
292.2	3662.5	
292.41	4418.2	
292.62	6225.1	
292.83	5931.6	
293.04	5471.5	
293.25	3637.2	
293.46	5376.6	
293.67	6227.2	
293.88	3849.5	
294.09	3646.1	
294.29	5094.7	
294.5	5697.4	
294.71	4108.9	
294.92	3889.1	
295.13	5384.8	
295.34	6771.9	
295.55	3425.6	
295.76	3522.5	
295.97	5989.6	
296.18	6810.2	
296.39	3588	
296.6	3785.3	
296.81	5642.2	
297.01	6042.9	
297.22	3953.3	
297.43	3759.4	
297.64	5186.8	
297.85	5172.5	
298.06	3123.2	
298.27	3376.4	
298.48	5620.3	
298.69	5291.3	
298.9	4145.1	
299.11	3736.2	
299.31	5048.9	
299.52	5094.7	
299.73	4390.2	
299.94	4317.1	
300.15	5573.2	
300.36	5165.7	
300.57	4359.4	
300.78	4315.8	
300.99	5452.4	
301.2	5705	
301.4	3725.3	
301.61	4132.8	
301.82	5933.6	
302.03	6068.1	
302.24	4625	
302.45	3607.8	
302.66	5896.8	
302.87	6373.3	
303.08	3801	
303.29	5269.4	
303.49	5274.9	
303.7	5629.2	
303.91	3332.7	
304.12	4979.3	
304.33	5137.7	
304.54	5717.2	
304.75	3846.1	
304.96	3625.6	
305.16	5913.9	
305.37	6682.5	
305.58	3354.6	
305.79	3510.9	
306	5894.1	
306.21	4948.6	
306.42	3812.6	
306.63	5829.9	
306.83	5418.2	
307.04	6253.1	
307.25	4193.6	
307.46	4179.9	
307.67	4715.1	
307.88	6036.7	
308.09	3713	
308.29	3908.2	
308.5	5716.6	
308.71	6172.6	
308.92	4076.1	
309.13	3640.6	
309.34	5535.7	
309.55	5469.4	
309.75	4699.4	
309.96	4388.8	
310.17	6006.7	
310.38	5236	
310.59	4618.9	
310.8	3538.9	
311.01	5697.4	
311.21	5425.8	
311.42	3593.5	
311.63	3755.3	
311.84	5289.2	
312.05	5714.5	
312.26	4241.3	
312.46	4647.5	
312.67	5371.1	
312.88	5123.3	
313.09	3661.1	
313.3	3591.5	
313.51	6404	
313.71	6897.6	
313.92	3586	
314.13	3798.3	
314.34	5754.8	
314.55	5494.7	
314.76	4774.5	
314.96	4121.2	
315.17	5637.4	
315.38	6202.6	
315.59	3695.2	
315.8	3504.1	
316.01	6504.3	
316.21	6643.6	
316.42	3576.4	
316.63	4050.2	
316.84	5427.8	
317.05	6367.8	
317.26	4348.5	
317.46	3893.9	
317.67	5558.2	
317.88	5911.1	
318.09	4686.4	
318.3	3430.3	
318.5	5289.2	
318.71	5962.3	
318.92	6101.6	
319.13	4341.7	
319.34	6134.3	
319.54	6221.7	
319.75	3405.8	
319.96	3259.7	
320.17	5973.9	
320.38	6239.5	
320.58	3310.9	
320.79	4073.4	
321	6228.6	
321.21	6370.5	
321.42	4013.3	
321.62	3289	
321.83	5174.5	
322.04	5569.1	
322.25	3866.6	
322.46	3725.9	
322.66	5720.7	
322.87	5870.8	
323.08	4558.8	
323.29	3584.6	
323.5	6740.5	
323.7	5106.3	
323.91	5074.9	
324.12	4558.8	
324.33	5594.4	
324.53	5912.5	
324.74	4324.6	
324.95	4601.1	
325.16	4955.4	
325.37	5386.2	
325.57	3664.5	
325.78	3756	
325.99	5618.3	
326.2	4999.8	
326.4	5422.3	
326.61	3354.6	
326.82	5533.6	
327.03	5704.3	
327.24	5262.6	
327.44	5089.9	
327.65	5811.5	
327.86	4719.9	
328.07	4371	
328.27	3516.4	
328.48	6273.6	
328.69	5100.8	
328.9	5413.5	
329.1	3965.6	
329.31	5431.9	
329.52	6477	
329.73	3673.4	
329.93	4169	
330.14	5594.4	
330.35	5894.7	
330.56	6098.2	
330.76	4603.8	
330.97	5387.5	
331.18	5799.8	
331.39	4104.8	
331.59	3277.4	
331.8	6195.1	
332.01	6306.4	
332.22	3785.3	
332.42	4436.6	
332.63	5717.2	
332.84	5294	
333.05	4157.4	
333.25	3788.1	
333.46	5347.2	
333.67	5626.5	
333.88	3839.9	
334.08	4267.3	
334.29	7691.5	
334.5	6337.8	
334.7	3551.2	
334.91	5236	
335.12	5106.3	
335.33	6062.7	
335.53	4070	
335.74	6168.5	
335.95	5336.3	
336.16	5196.4	
336.36	4079.6	
336.57	4745.1	
336.78	5028.4	
336.98	6193.7	
337.19	5063.9	
337.4	4022.9	
337.61	6806.8	
337.81	5179.3	
338.02	3761.4	
338.23	4939.7	
338.43	6379.4	
338.64	5241.4	
338.85	3719.1	
339.05	4917.9	
339.26	6501.6	
339.47	5000.5	
339.68	3693.2	
339.88	5615.5	
340.09	5862.7	
340.3	6104.3	
340.5	4372.4	
340.71	3272	
340.92	5011.4	
341.13	6361	
341.33	3588	
341.54	4365.6	
341.75	5844.2	
341.95	5439.4	
342.16	4141.7	
342.37	4519.2	
342.57	5189.6	
342.78	5544.5	
342.99	4628.4	
343.19	3268.6	
343.4	6073.6	
343.61	5788.2	
343.81	3920.5	
344.02	3613.3	
344.23	6072.9	
344.43	6532.3	
344.64	4586.1	
344.85	4521.2	
345.06	5902.2	
345.26	6288.6	
345.47	4293.9	
345.68	5088.5	
345.88	4885.1	
346.09	6025.8	
346.3	4371.7	
346.5	3222.8	
346.71	5603.9	
346.92	5287.2	
347.12	3358.7	
347.33	4293.2	
347.54	6216.3	
347.74	6644.3	
347.95	4244.8	
348.16	3119.1	
348.36	5406	
348.57	5139.7	
348.78	4207.2	
348.98	4513	
349.19	5429.2	
349.39	5048.2	
349.6	3418.1	
349.81	3749.1	
350.01	5813.5	
350.22	5253.7	
350.43	4040.6	
350.63	4932.9	
350.84	5615.5	
351.05	5342.5	
351.25	3712.3	
351.46	3326.6	
351.67	6199.2	
351.87	5240.8	
352.08	3968.3	
352.29	4546.5	
352.49	6084.5	
352.7	5728.2	
352.9	3614	
353.11	4521.9	
353.32	6852.5	
353.52	5362.3	
353.73	3501.3	
353.94	4569	
354.14	5845.6	
354.35	5722	
354.55	3663.8	
354.76	4100	
354.97	5911.8	
355.17	5668.1	
355.38	3407.8	
355.59	4850.3	
355.79	5266.7	
356	5715.2	
356.2	4050.9	
356.41	3530	
356.62	4924.7	
356.82	5473.5	
357.03	4427.7	
357.24	3913.7	
357.44	5320.6	
357.65	5423	
357.85	5315.8	
358.06	4087.7	
358.27	4977.2	
358.47	5255.1	
358.68	3397.6	
358.88	4349.2	
359.09	5795.8	
359.3	6271.6	
359.5	5021.6	
359.71	4484.4	
359.91	6762.4	
360.12	6017.6	
360.33	4259.1	
360.53	4833.2	
360.74	5199.1	
360.94	5275.6	
361.15	4533.5	
361.36	3650.2	
361.56	6112.5	
361.77	5537	
361.97	5040.1	
362.18	3943	
362.38	6072.2	
362.59	5111.7	
362.8	3592.1	
363	3459	
363.21	4848.9	
363.41	5573.2	
363.62	4207.2	
363.83	5256.5	
364.03	5663.3	
364.24	6765.8	
364.44	5367	
364.65	5357.5	
364.85	5424.4	
365.06	5352.7	
365.27	3835.2	
365.47	3837.2	
365.68	6490.7	
365.88	5409.4	
366.09	4276.2	
366.29	3878.9	
366.5	5733.6	
366.71	6212.2	
366.91	5350	
367.12	4379.2	
367.32	6767.2	
367.53	5959.6	
367.73	4360.1	
367.94	5440.8	
368.14	5911.8	
368.35	6977.4	
368.56	4369	
368.76	3657.7	
368.97	6008.7	
369.17	7880.6	
369.38	3843.4	
369.58	4097.3	
369.79	5031.9	
369.99	6447.7	
370.2	5249.6	
370.4	4203.8	
370.61	5800.5	
370.82	7062.8	
371.02	4068.6	
371.23	3357.3	
371.43	4880.3	
371.64	6317.3	
371.84	4091.2	
372.05	5402.5	
372.25	7762.5	
372.46	6107	
372.66	4113	
372.87	4089.8	
373.07	6197.8	
373.28	7798	
373.48	5215.5	
373.69	4938.3	
373.9	5535	
374.1	5526.1	
374.31	5213.4	
374.51	4659.1	
374.72	6454.5	
374.92	5218.2	
375.13	5295.4	
375.33	4463.2	
375.54	6001.9	
375.74	5412.1	
375.95	4502.8	
376.15	5862	
376.36	5980.8	
376.56	5860.6	
376.77	4530.1	
376.97	5100.1	
377.18	7162.4	
377.38	6113.9	
377.59	5468.8	
377.79	4061.8	
378	5927.5	
378.2	6328.9	
378.41	4100.7	
378.61	3977.8	
378.82	6421.1	
379.02	5345.2	
379.23	4207.2	
379.43	5545.2	
379.64	6412.9	
379.84	6059.3	
380.05	4060.4	
380.25	3999	
380.46	6163.7	
380.66	5739.1	
380.87	5569.1	
381.07	5902.9	
381.28	6891.4	
381.48	6217	
381.69	4111.6	
381.89	4231.8	
382.1	5067.4	
382.3	6395.1	
382.51	5341.8	
382.71	6273.6	
382.91	6257.9	
383.12	6697.5	
383.32	4494.6	
383.53	4780.6	
383.73	6012.2	
383.94	5846.3	
384.14	4658.4	
384.35	3706.1	
384.55	5700.2	
384.76	6251.1	
384.96	4537.6	
385.17	4885.8	
385.37	6153.5	
385.58	5405.3	
385.78	4901.5	
385.98	3629.7	
386.19	5618.9	
386.39	5990.3	
386.6	4315.1	
386.8	4491.9	
387.01	6197.2	
387.21	6220.4	
387.42	4988.2	
387.62	5633.3	
387.83	5463.3	
388.03	6201.9	
388.23	4539	
388.44	5531.6	
388.64	5205.3	
388.85	5250.3	
389.05	5063.3	
389.26	5711.1	
389.46	7256.6	
389.67	6708.5	
389.87	4895.3	
390.07	5048.9	
390.28	5812.8	
390.48	5412.8	
390.69	4102.1	
390.89	4448.2	
391.1	5516.5	
391.3	6662.7	
391.5	5779.4	
391.71	6456.6	
391.91	6240.2	
392.12	7389.8	
392.32	5874.9	
392.53	5012.7	
392.73	5646.2	
392.93	5816.9	
393.14	4633.9	
393.34	5509	
393.55	6256.5	
393.75	5822.4	
393.95	4660.5	
394.16	4567.7	
394.36	5581.4	
394.57	6293.4	
394.77	4089.8	
394.98	4602.5	
395.18	5552	
395.38	5663.3	
395.59	5563	
395.79	4386.1	
396	5646.2	
396.2	6226.5	
396.4	5257.8	
396.61	5213.4	
396.81	6453.8	
397.02	5666	
397.22	5545.2	
397.42	5551.4	
397.63	6427.2	
397.83	5595.1	
398.04	4313.7	
398.24	4879.6	
398.44	6177.4	
398.65	5166.3	
398.85	4209.3	
399.05	4308.2	
399.26	5512.4	
399.46	7469.6	
399.67	4681.7	
399.87	4371.7	
400.07	5937.7	
400.28	6331.6	
400.48	4545.8	
400.69	5668.8	
400.89	6728.3	
401.09	7043.6	
401.3	4369	
401.5	5638.1	
401.7	7378.1	
401.91	7544.7	
402.11	4751.3	
402.32	4973.2	
402.52	6640.9	
402.72	6483.9	
402.93	5223.7	
403.13	3914.4	
403.33	7394.5	
403.54	6042.9	
403.74	4851	
403.94	5836	
404.15	6073.6	
404.35	7368.6	
404.56	4635.9	
404.76	6721.4	
404.96	6569.2	
405.17	6358.3	
405.37	6451.1	
405.57	5263.3	
405.78	6573.3	
405.98	5990.3	
406.18	4754	
406.39	5629.9	
406.59	6626.5	
406.79	6201.9	
407	4458.4	
407.2	4719.2	
407.4	6580.8	
407.61	6877.8	
407.81	4657.8	
408.01	6968.6	
408.22	5545.2	
408.42	7857.4	
408.62	5870.2	
408.83	5270.8	
409.03	6324.8	
409.23	6039.5	
409.44	5397.8	
409.64	5672.2	
409.84	7352.9	
410.05	7161.7	
410.25	5496.1	
410.45	5249.6	
410.66	6657.9	
410.86	9316.2	
411.06	5769.8	
411.27	5673.6	
411.47	9057.5	
411.67	6880.5	
411.88	5904.3	
412.08	6088.6	
412.28	7507.2	
412.49	8082.6	
412.69	5608	
412.89	5670.8	
413.09	7915.4	
413.3	7711.3	
413.5	5734.3	
413.7	5289.9	
413.91	6889.4	
414.11	7903.1	
414.31	5625.1	
414.52	6127.5	
414.72	7453.2	
414.92	7473	
415.12	5529.5	
415.33	6103.6	
415.53	7852.6	
415.73	8052.6	
415.94	6580.1	
416.14	5918.6	
416.34	6836.1	
416.55	6503	
416.75	7344.7	
416.95	6681.8	
417.15	7927.7	
417.36	8628.1	
417.56	7468.9	
417.76	6494.8	
417.97	8267	
418.17	7944.1	
418.37	6037.4	
418.57	6044.9	
418.78	7573.4	
418.98	7279.8	
419.18	7028.6	
419.38	6899.6	
419.59	7410.2	
419.79	6887.3	
419.99	5885.9	
420.2	6412.9	
420.4	7904.5	
420.6	8151.6	
420.8	5803.3	
421.01	5674.2	
421.21	7643	
421.41	7970.7	
421.61	6288.6	
421.82	5863.3	
422.02	7168.6	
422.22	8152.3	
422.42	6795.2	
422.63	6432	
422.83	7279.8	
423.03	8581.7	
423.23	6445.6	
423.44	5276.9	
423.64	7380.9	
423.84	7085.3	
424.04	5815.5	
424.25	5400.5	
424.45	8340.7	
424.65	8326.4	
424.85	5254.4	
425.06	5921.4	
425.26	8330.5	
425.46	7173.4	
425.66	6348	
425.87	6016.9	
426.07	8036.2	
426.27	7926.3	
426.47	6131.6	
426.67	5553.4	
426.88	8416.5	
427.08	7760.4	
427.28	6446.3	
427.48	5393.7	
427.69	6666.8	
427.89	7354.3	
428.09	6442.9	
428.29	5559.6	
428.5	8131.8	
428.7	7624.6	
428.9	5405.3	
429.1	6034.7	
429.3	7534.5	
429.51	7933.8	
429.71	5715.9	
429.91	6599.9	
430.11	7813	
430.31	8106.5	
430.52	6047	
430.72	6433.4	
430.92	8467	
431.12	7945.4	
431.32	5783.5	
431.53	6196.5	
431.73	6709.1	
431.93	8614.4	
432.13	5717.2	
432.33	5575.3	
432.54	7256	
432.74	7660.1	
432.94	5487.9	
433.14	6649.1	
433.34	7828.7	
433.55	7272.3	
433.75	6442.9	
433.95	8497.7	
434.15	7624.6	
434.35	7297.6	
434.56	5702.2	
434.76	5165.7	
434.96	7653.9	
435.16	7894.2	
435.36	5585.5	
435.56	6785.6	
435.77	7289.4	
435.97	7384.3	
436.17	7579.5	
436.37	6774	
436.57	7210.9	
436.78	7175.4	
436.98	8189.8	
437.18	7357.7	
437.38	7929.1	
437.58	7429.3	
437.78	7510.6	
437.99	5946.6	
438.19	7897	
438.39	8743.5	
438.59	5997.1	
438.79	5388.9	
438.99	8682.7	
439.2	7486.7	
439.4	5646.9	
439.6	5603.2	
439.8	7857.4	
440	9043.8	
440.2	6758.3	
440.4	6847.7	
440.61	8234.9	
440.81	8811.7	
441.01	5844.2	
441.21	6886	
441.41	8700.5	
441.61	8287.4	
441.81	7221.8	
442.02	8259.5	
442.22	9187.2	
442.42	8361.9	
442.62	5862.7	
442.82	6029.9	
443.02	8752.3	
443.22	7740	
443.43	6476.4	
443.63	5984.8	
443.83	7552.2	
444.03	7647.1	
444.23	7363.1	
444.43	6875.7	
444.63	7923.6	
444.83	9198.1	
445.04	6085.2	
445.24	7464.8	
445.44	8334.6	
445.64	8363.2	
445.84	6855.2	
446.04	6940.6	
446.24	7614.3	
446.44	8660.9	
446.65	6016.2	
446.85	6460	
447.05	7781.6	
447.25	8583	
447.45	6530.3	
447.65	5872.9	
447.85	7995.3	
448.05	7623.2	
448.25	7037.5	
448.46	6865.5	
448.66	8027.4	
448.86	7684	
449.06	5677	
449.26	7041.6	
449.46	8441.7	
449.66	7290.1	
449.86	6632.7	
450.06	6543.9	
450.26	7553.6	
450.47	8202.8	
450.67	6716.7	
450.87	7190.4	
451.07	8287.4	
451.27	7985	
451.47	6052.4	
451.67	6620.4	
451.87	7697.6	
452.07	8846.5	
452.27	6305.7	
452.47	6296.8	
452.67	8017.8	
452.88	8652.7	
453.08	5535.7	
453.28	7709.2	
453.48	9280.7	
453.68	7807.5	
453.88	6214.9	
454.08	6481.8	
454.28	8361.9	
454.48	8071.7	
454.68	7057.3	
454.88	7646.4	
455.08	8483.4	
455.28	8318.2	
455.48	6072.2	
455.68	6730.3	
455.89	8980.3	
456.09	8699.1	
456.29	6464.1	
456.49	6587.6	
456.69	8954.4	
456.89	8084.7	
457.09	7168.6	
457.29	7477.1	
457.49	8484.1	
457.69	8658.1	
457.89	6951.5	
458.09	6268.8	
458.29	8222.6	
458.49	9021.3	
458.69	7421.2	
458.89	6745.3	
459.09	9290.3	
459.29	9481.4	
459.49	6920.8	
459.69	7749.5	
459.9	8837.7	
460.1	8442.4	
460.3	6742.6	
460.5	6563.1	
460.7	8783.7	
460.9	8532.5	
461.1	6225.8	
461.3	7656.7	
461.5	9613.8	
461.7	9103.9	
461.9	6690.7	
462.1	7225.2	
462.3	8621.9	
462.5	9401.5	
462.7	6768.5	
462.9	6905.8	
463.1	10340	
463.3	10073	
463.5	7078.5	
463.7	8202.1	
463.9	8829.5	
464.1	9224.1	
464.3	7295.5	
464.5	7554.3	
464.7	9525.1	
464.9	9247.9	
465.1	9107.3	
465.3	7954.3	
465.5	9960.6	
465.7	9918.3	
465.9	8301.8	
466.1	7955	
466.3	9688.9	
466.5	9510.1	
466.7	8957.8	
466.9	7714	
467.1	9539.4	
467.3	10529	
467.5	8957.1	
467.7	7734.5	
467.9	10772	
468.1	11693	
468.3	8656.1	
468.5	9093.7	
468.7	9443.2	
468.9	9450	
469.1	8099.7	
469.3	8779	
469.5	11514	
469.7	9003.6	
469.9	8438.3	
470.1	7810.3	
470.3	9449.3	
470.5	9543.5	
470.7	9102.5	
470.9	7905.8	
471.1	9251.4	
471.3	9628.2	
471.5	7639.6	
471.69	9770.2	
471.89	9045.2	
472.09	8611	
472.29	8524.3	
472.49	8849.3	
472.69	8787.8	
472.89	9672.6	
473.09	7516	
473.29	7639.6	
473.49	8905.9	
473.69	9181	
473.89	8697.7	
474.09	7777.5	
474.29	10438	
474.49	10127	
474.69	8705.9	
474.89	8011	
475.09	9101.9	
475.29	9116.2	
475.49	7294.9	
475.69	7535.2	
475.88	10903	
476.08	9402.9	
476.28	7257.3	
476.48	7738.6	
476.68	9803.6	
476.88	9748.3	
477.08	7490.1	
477.28	7924.3	
477.48	9185.8	
477.68	9892.4	
477.88	7281.2	
478.08	7821.2	
478.28	10180	
478.48	9309.4	
478.67	7730.4	
478.87	7174	
479.07	10036	
479.27	9326.4	
479.47	7916.8	
479.67	7900.4	
479.87	9812.5	
480.07	10506	
480.27	7111.2	
480.47	8994	
480.67	9445.9	
480.87	10139	
481.06	7438.9	
481.26	8367.3	
481.46	9365.4	
481.66	9250	
481.86	7972.1	
482.06	9142.8	
482.26	9004.2	
482.46	9937.4	
482.66	7897.7	
482.86	7576.1	
483.05	9370.1	
483.25	8776.9	
483.45	10583	
483.65	7889.5	
483.85	8958.5	
484.05	9347.6	
484.25	8360.5	
484.45	9018.6	
484.65	10329	
484.84	10300	
485.04	7853.3	
485.24	7854.6	
485.44	10595	
485.64	8699.1	
485.84	7129	
486.04	8642.4	
486.24	9153.1	
486.44	9644.6	
486.63	7135.8	
486.83	7968.6	
487.03	9018.6	
487.23	9295.7	
487.43	7280.5	
487.63	9802.9	
487.83	9439.8	
488.02	10626	
488.22	8323.6	
488.42	9069.8	
488.62	10380	
488.82	9174.2	
489.02	7929.7	
489.22	8028	
489.41	10255	
489.61	9833.7	
489.81	7727	
490.01	7678.5	
490.21	10088	
490.41	10778	
490.61	7514.7	
490.8	7694.2	
491	9458.2	
491.2	8758.5	
491.4	8419.9	
491.6	7453.2	
491.8	9491.7	
491.99	9751.1	
492.19	7241.6	
492.39	7742.7	
492.59	10243	
492.79	10251	
492.99	8653.4	
493.18	7750.2	
493.38	10333	
493.58	11220	
493.78	8585.8	
493.98	8098.4	
494.18	10043	
494.37	9450	
494.57	8766	
494.77	8804.2	
494.97	10408	
495.17	10692	
495.37	8244.4	
495.56	8523	
495.76	10858	
495.96	10477	
496.16	9568.8	
496.36	8391.2	
496.55	10598	
496.75	10092	
496.95	8836.3	
497.15	8669.1	
497.35	10573	
497.54	10530	
497.74	8428.1	
497.94	10404	
498.14	11440	
498.34	11161	
498.53	8075.1	
498.73	9038.4	
498.93	10019	
499.13	10682	
499.33	8794.7	
499.52	9436.4	
499.72	10494	
499.92	10907	
500.12	8486.8	
500.32	8755.1	
500.51	10860	
500.71	10594	
500.91	9712.2	
501.11	9207.7	
501.31	10760	
501.5	11226	
501.7	9955.2	
501.9	8689.5	
502.1	10544	
502.29	10848	
502.49	9234.3	
502.69	9765.4	
502.89	10731	
503.09	10616	
503.28	8132.5	
503.48	8202.8	
503.68	9816.6	
503.88	9882.1	
504.07	9334	
504.27	8720.3	
504.47	10288	
504.67	10340	
504.86	9209.7	
505.06	8861.6	
505.26	9810.5	
505.46	11836	
505.65	8658.1	
505.85	8869.8	
506.05	9726.5	
506.25	10275	
506.44	7944.8	
506.64	8961.2	
506.84	9670.5	
507.04	10630	
507.23	8091.5	
507.43	8796.7	
507.63	11749	
507.83	9936.7	
508.02	8674.5	
508.22	8245.1	
508.42	12022	
508.62	9575.6	
508.81	8536.6	
509.01	9151.7	
509.21	9420.7	
509.4	9780.4	
509.6	8798.8	
509.8	8082	
510	9770.9	
510.19	11345	
510.39	8128.4	
510.59	8160.5	
510.79	9492.3	
510.98	10920	
511.18	8219.2	
511.38	8344.8	
511.57	10359	
511.77	10158	
511.97	8923.7	
512.17	7871	
512.36	10439	
512.56	10340	
512.76	8034.9	
512.95	7781.6	
513.15	10449	
513.35	9013.1	
513.55	8946.9	
513.74	8103.1	
513.94	10533	
514.14	9895.8	
514.33	9146.9	
514.53	8829.5	
514.73	9710.1	
514.92	9960.6	
515.12	8313.4	
515.32	8101.1	
515.51	9949.7	
515.71	10699	
515.91	9771.5	
516.11	8217.1	
516.3	11889	
516.5	9620.7	
516.7	8687.5	
516.89	9430.2	
517.09	9715.6	
517.29	9613.8	
517.48	9034.3	
517.68	8441	
517.88	9452.7	
518.07	10081	
518.27	8908	
518.47	7885.4	
518.66	10793	
518.86	9175.6	
519.06	7714	
519.25	8187.8	
519.45	9606.3	
519.65	11194	
519.84	8946.2	
520.04	9648	
520.24	11607	
520.43	10258	
520.63	8552.3	
520.83	8191.2	
521.02	9387.2	
521.22	10135	
521.42	8830.2	
521.61	9386.5	
521.81	9576.3	
522.01	9848.7	
522.2	8670.4	
522.4	8469	
522.6	10460	
522.79	9112.1	
522.99	8599.4	
523.18	7785.7	
523.38	10122	
523.58	10163	
523.77	9950.4	
523.97	7813.7	
524.17	12228	
524.36	11292	
524.56	9460.9	
524.76	8919.6	
524.95	10150	
525.15	9930.6	
525.34	8677.2	
525.54	8698.4	
525.74	10583	
525.93	9424.8	
526.13	9951.8	
526.33	8689.5	
526.52	10943	
526.72	10341	
526.91	9940.2	
527.11	9207.7	
527.31	10926	
527.5	11359	
527.7	9165.3	
527.89	8080.6	
528.09	9774.3	
528.29	10477	
528.48	9582.4	
528.68	9202.2	
528.87	10718	
529.07	10870	
529.27	9043.8	
529.46	8370	
529.66	10336	
529.85	10756	
530.05	8198	
530.25	9122.3	
530.44	11824	
530.64	10189	
530.83	8627.4	
531.03	9064.3	
531.23	10768	
531.42	10630	
531.62	9886.2	
531.81	8966	
532.01	10948	
532.21	11550	
532.4	8731.2	
532.6	9106	
532.79	11991	
532.99	11006	
533.18	9185.1	
533.38	10257	
533.58	10463	
533.77	11326	
533.97	9027.4	
534.16	9968.1	
534.36	11550	
534.55	10589	
534.75	10194	
534.95	9084.8	
535.14	11384	
535.34	10555	
535.53	8869.8	
535.73	10933	
535.92	11997	
536.12	10694	
536.31	8871.8	
536.51	10253	
536.71	10946	
536.9	10628	
537.1	8957.8	
537.29	9206.3	
537.49	11516	
537.68	10459	
537.88	9665.7	
538.07	8824	
538.27	10712	
538.46	11777	
538.66	8574.8	
538.86	9138.7	
539.05	10590	
539.25	11258	
539.44	9427.5	
539.64	8996.7	
539.83	10491	
540.03	11641	
540.22	8904.6	
540.42	8998.8	
540.61	10741	
540.81	10970	
541	9486.2	
541.2	10195	
541.39	10372	
541.59	10801	
541.78	9862.3	
541.98	8704.5	
542.18	9859.6	
542.37	9897.8	
542.57	9196.7	
542.76	9747	
542.96	9802.3	
543.15	10763	
543.35	9128.5	
543.54	8295.6	
543.74	11083	
543.93	10383	
544.13	9106	
544.32	10213	
544.52	10738	
544.71	10005	
544.91	8067.6	
545.1	9484.1	
545.3	10060	
545.49	10818	
545.69	8051.9	
545.88	8710.7	
546.08	11701	
546.27	11318	
546.47	9250.7	
546.66	8472.4	
546.86	10957	
547.05	11637	
547.24	8689.5	
547.44	8488.1	
547.63	9785.9	
547.83	11030	
548.02	8944.8	
548.22	9257.5	
548.41	9598.1	
548.61	10991	
548.8	8413.1	
549	8444.5	
549.19	10159	
549.39	10517	
549.58	8088.1	
549.78	8731.9	
549.97	10741	
550.17	10053	
550.36	9603.6	
550.55	10784	
550.75	9981.8	
550.94	11028	
551.14	8366.6	
551.33	8773.5	
551.53	9458.2	
551.72	10553	
551.92	8901.8	
552.11	8509.3	
552.31	10619	
552.5	10490	
552.69	10309	
552.89	8118.8	
553.08	10434	
553.28	10115	
553.47	8531.8	
553.67	9807.7	
553.86	11172	
554.06	9391.3	
554.25	7645.1	
554.44	8314.1	
554.64	11997	
554.83	11486	
555.03	8245.1	
555.22	8698.4	
555.42	10621	
555.61	10280	
555.8	8358.4	
556	8819.2	
556.19	9424.1	
556.39	10821	
556.58	8537.3	
556.78	8448.6	
556.97	10159	
557.16	9830.2	
557.36	9840.5	
557.55	8157.1	
557.75	9106.6	
557.94	11095	
558.13	8181	
558.33	7857.4	
558.52	10692	
558.72	9620	
558.91	8064.9	
559.1	8207.6	
559.3	9209	
559.49	8909.3	
559.69	7513.3	
559.88	8632.2	
560.07	10106	
560.27	10503	
560.46	8796.7	
560.66	8956.4	
560.85	9837.8	
561.04	8996	
561.24	7983	
561.43	8206.9	
561.63	9171.5	
561.82	9525.8	
562.01	9618.6	
562.21	8522.3	
562.4	10122	
562.59	11131	
562.79	8314.8	
562.98	7984.3	
563.18	9975.7	
563.37	11573	
563.56	8928.5	
563.76	7854	
563.95	9394.7	
564.14	9238.4	
564.34	8282.7	
564.53	7981.6	
564.73	9863.7	
564.92	10355	
565.11	8501.1	
565.31	7695.6	
565.5	10480	
565.69	9394.7	
565.89	7954.3	
566.08	8353	
566.27	10422	
566.47	10805	
566.66	8933.2	
566.85	7499.7	
567.05	9913.5	
567.24	9315.5	
567.44	7924.3	
567.63	9361.9	
567.82	10211	
568.02	9885.5	
568.21	7849.9	
568.4	8297.7	
568.6	9699.9	
568.79	9852.8	
568.98	7701.7	
569.18	7917.4	
569.37	9778.4	
569.56	11908	
569.76	8235.6	
569.95	9256.8	
570.14	10087	
570.34	10038	
570.53	7630	
570.72	7620.5	
570.91	10521	
571.11	9448	
571.3	8145.5	
571.49	9156.5	
571.69	9484.1	
571.88	9160.6	
572.07	8749.6	
572.27	8707.3	
572.46	9162.6	
572.65	10327	
572.85	7910.6	
573.04	8204.2	
573.23	10505	
573.43	9768.1	
573.62	7615	
573.81	8308.6	
574	9704.6	
574.2	9497.1	
574.39	7978.2	
574.58	8139.3	
574.78	10615	
574.97	9738.8	
575.16	8584.4	
575.36	8785.8	
575.55	10205	
575.74	10445	
575.93	7570.7	
576.13	8729.1	
576.32	9557.2	
576.51	10142	
576.71	8007.6	
576.9	9450.7	
577.09	10490	
577.28	10097	
577.48	8617.9	
577.67	7488.7	
577.86	9704.6	
578.05	9978.4	
578.25	8173.4	
578.44	8284	
578.63	9710.1	
578.83	10991	
579.02	7464.8	
579.21	9258.2	
579.4	9959.3	
579.6	9574.9	
579.79	8314.1	
579.98	10761	
580.17	10329	
580.37	10437	
580.56	7858.7	
580.75	8630.1	
580.94	11069	
581.14	10716	
581.33	9265.7	
581.52	8002.1	
581.71	10243	
581.91	11089	
582.1	7656	
582.29	8276.5	
582.48	9856.2	
582.68	9786.6	
582.87	8850	
583.06	8443.8	
583.25	10195	
583.45	9536.7	
583.64	9207.7	
583.83	10004	
584.02	9608.4	
584.21	10133	
584.41	9075.9	
584.6	8367.3	
584.79	9826.8	
584.98	10692	
585.18	7851.2	
585.37	7822.6	
585.56	9327.8	
585.75	10219	
585.94	8075.1	
586.14	8731.2	
586.33	10866	
586.52	9767.4	
586.71	8518.9	
586.91	8340	
587.1	9174.2	
587.29	10208	
587.48	8156.4	
587.67	8000.7	
587.87	10007	
588.06	10172	
588.25	9407.7	
588.44	8604.2	
588.63	9564	
588.83	10140	
589.02	7906.5	
589.21	7778.9	
589.4	9217.9	
589.59	8970.8	
589.78	6719.4	
589.98	7133.1	
590.17	8538.7	
590.36	9202.9	
590.55	6491.4	
590.74	7410.2	
590.94	10686	
591.13	9071.8	
591.32	7126.9	
591.51	6621.8	
591.7	9620	
591.89	9095	
592.09	6797.2	
592.28	7303.1	
592.47	8234.2	
592.66	10271	
592.85	6848.4	
593.05	7146.7	
593.24	8909.3	
593.43	9751.1	
593.62	7085.3	
593.81	7731.8	
594	8890.9	
594.19	9189.2	
594.39	7049.1	
594.58	6995.9	
594.77	9238.4	
594.96	9900.6	
595.15	6894.8	
595.34	7694.9	
595.54	9372.9	
595.73	8383.7	
595.92	6295.5	
596.11	7491.5	
596.3	9867.1	
596.49	8404.9	
596.68	7279.8	
596.88	7895.6	
597.07	9530.6	
597.26	8284.7	
597.45	6792.4	
597.64	8148.2	
597.83	8515.5	
598.02	9211.1	
598.22	6890	
598.41	7693.5	
598.6	9096.4	
598.79	8400.1	
598.98	6920.8	
599.17	7980.3	
599.36	9070.5	
599.55	10370	
599.74	9170.8	
599.94	8999.5	
600.13	9617.9	
600.32	8417.2	
600.51	6735.8	
600.7	6993.8	
600.89	10385	
601.08	10460	
601.27	6672.3	
601.47	7711.3	
601.66	9608.4	
601.85	10334	
602.04	7446.4	
602.23	7718.1	
602.42	8600.1	
602.61	9236.3	
602.8	7341.3	
602.99	7103.7	
603.18	8951	
603.37	9271.8	
603.57	7718.8	
603.76	8415.8	
603.95	10137	
604.14	9637.7	
604.33	7246.4	
604.52	7610.9	
604.71	9295	
604.9	8806.9	
605.09	8139.3	
605.28	7955	
605.47	9818	
605.66	9514.2	
605.86	7856.7	
606.05	7208.8	
606.24	9838.4	
606.43	8351.6	
606.62	7537.9	
606.81	8314.8	
607	9736	
607.19	8992.6	
607.38	6972.7	
607.57	7228.6	
607.76	8630.1	
607.95	8241	
608.14	7444.4	
608.33	8308.6	
608.52	8808.3	
608.72	9722.4	
608.91	6898.2	
609.1	6832	
609.29	8770.8	
609.48	8296.3	
609.67	7919.5	
609.86	6740.5	
610.05	8333.9	
610.24	8814.5	
610.43	6561	
610.62	6274.3	
610.81	10064	
611	9662.3	
611.19	6768.5	
611.38	7567.2	
611.57	9170.8	
611.76	10509	
611.95	6548.7	
612.14	6380.8	
612.33	8857.5	
612.52	8365.3	
612.71	7165.2	
612.9	6227.2	
613.09	7935.2	
613.28	10368	
613.47	6851.8	
613.66	7878.5	
613.85	8912.1	
614.04	8352.3	
614.24	6939.2	
614.43	6053.8	
614.62	9127.8	
614.81	9031.5	
615	7522.2	
615.19	7561.1	
615.38	8346.2	
615.57	8632.9	
615.76	7391.1	
615.95	8377.6	
616.14	9181.7	
616.33	8677.2	
616.52	7720.2	
616.71	8051.9	
616.9	9106	
617.09	8978.3	
617.28	6997.9	
617.47	8362.5	
617.66	8069.7	
617.85	8110	
618.04	8013.7	
618.22	7443.7	
618.41	8552.3	
618.6	9288.9	
618.79	7370	
618.98	6987.7	
619.17	9717.6	
619.36	7930.4	
619.55	7098.3	
619.74	7156.3	
619.93	8981	
620.12	8374.8	
620.31	7738.6	
620.5	7952.9	
620.69	9971.6	
620.88	9987.3	
621.07	8615.1	
621.26	7690.8	
621.45	9195.4	
621.64	9090.3	
621.83	7696.9	
622.02	6771.9	
622.21	9174.9	
622.4	8877.3	
622.59	8257.4	
622.78	8032.8	
622.97	8439.7	
623.16	9573.6	
623.35	7641	
623.54	6712.6	
623.72	8662.2	
623.91	8821.3	
624.1	7828.7	
624.29	6535.1	
624.48	10015	
624.67	9166.7	
624.86	7779.6	
625.05	6770.6	
625.24	10198	
625.43	8317.5	
625.62	9641.2	
625.81	6881.2	
626	9450.7	
626.19	8714.8	
626.38	7793.2	
626.56	7100.3	
626.75	8461.5	
626.94	9250.7	
627.13	7697.6	
627.32	6266.1	
627.51	9062.9	
627.7	10617	
627.89	6486.6	
628.08	7684	
628.27	8288.1	
628.46	8467	
628.65	6833.4	
628.83	6425.2	
629.02	9007.6	
629.21	8305.2	
629.4	7212.3	
629.59	7504.4	
629.78	8200.1	
629.97	9307.3	
630.16	7548.1	
630.35	7018.4	
630.54	9766.1	
630.72	9455.5	
630.91	6951.5	
631.1	7537.2	
631.29	8940.1	
631.48	9119.6	
631.67	7650.5	
631.86	7082.6	
632.05	8471.8	
632.24	8537.3	
632.42	6716.7	
632.61	7482.6	
632.8	8742.8	
632.99	8219.9	
633.18	7471.7	
633.37	7832.8	
633.56	8947.6	
633.75	8697	
633.93	7404.8	
634.12	7071	
634.31	9778.4	
634.5	9303.2	
634.69	7109.9	
634.88	7726.3	
635.07	8680.7	
635.25	9310.1	
635.44	8101.8	
635.63	8325	
635.82	8535.9	
636.01	8016.4	
636.2	8043.1	
636.39	7497.6	
636.57	9730.6	
636.76	9508	
636.95	6922.1	
637.14	8417.8	
637.33	8975.6	
637.52	10118	
637.7	6737.1	
637.89	7728.4	
638.08	8562.6	
638.27	10179	
638.46	7764.5	
638.65	8318.2	
638.83	10117	
639.02	8386.4	
639.21	7690.1	
639.4	8211	
639.59	8887.5	
639.78	8399.4	
639.96	6917.4	
640.15	6940.6	
640.34	8692.3	
640.53	8938	
640.72	6641.6	
640.91	6991.8	
641.09	8079.2	
641.28	9579	
641.47	6976.7	
641.66	7825.3	
641.85	8895.7	
642.03	9149	
642.22	7615	
642.41	6997.2	
642.6	8207.6	
642.79	7630.7	
642.97	6735.1	
643.16	7606.2	
643.35	8271.1	
643.54	7998.7	
643.73	6711.9	
643.91	7519.5	
644.1	7802.1	
644.29	8527.7	
644.48	6771.9	
644.67	6842.3	
644.85	8085.4	
645.04	8349.6	
645.23	6276.3	
645.42	6595.1	
645.6	7744.1	
645.79	9056.1	
645.98	6550.1	
646.17	5571.8	
646.36	7459.4	
646.54	8205.5	
646.73	7363.1	
646.92	6082.5	
647.11	7759.8	
647.29	8862.2	
647.48	6185.5	
647.67	5967.1	
647.86	9120.3	
648.05	9212.4	
648.23	6617.7	
648.42	8034.2	
648.61	8460.2	
648.8	8256	
648.98	6217.6	
649.17	6553.5	
649.36	7738.6	
649.55	7168.6	
649.73	6269.5	
649.92	7094.8	
650.11	7636.9	
650.3	7989.1	
650.48	6358.9	
650.67	6099.5	
650.86	8322.3	
651.05	7110.5	
651.23	6402.6	
651.42	6295.5	
651.61	7698.3	
651.79	7897.7	
651.98	6587.6	
652.17	6055.2	
652.36	8187.8	
652.54	7191.1	
652.73	6188.3	
652.92	6001.2	
653.11	8270.4	
653.29	8218.5	
653.48	5416.9	
653.67	6479.8	
653.85	7955	
654.04	9153.7	
654.23	6731	
654.42	6163	
654.6	7496.2	
654.79	8122.9	
654.98	5676.3	
655.16	6214.2	
655.35	7167.2	
655.54	6968.6	
655.73	5732.3	
655.91	5739.8	
656.1	8325.7	
656.29	7040.9	
656.47	5283.8	
656.66	7118.7	
656.85	7261.4	
657.03	7354.9	
657.22	5879	
657.41	5987.6	
657.59	7384.3	
657.78	7240.9	
657.97	5460.6	
658.16	6337.8	
658.34	8211	
658.53	8539.3	
658.72	7283.3	
658.9	7857.4	
659.09	7451.9	
659.28	7679.2	
659.46	6107	
659.65	5975.3	
659.84	7323.5	
660.02	7798.7	
660.21	5881.8	
660.4	5909.8	
660.58	8353	
660.77	7662.1	
660.96	6494.8	
661.14	5492	
661.33	8856.1	
661.52	8742.1	
661.7	5487.2	
661.89	9359.9	
662.08	7222.5	
662.26	6848.4	
662.45	5703.6	
662.64	5860.6	
662.82	7999.4	
663.01	7146	
663.2	5866.1	
663.38	6748.1	
663.57	7862.2	
663.75	7726.3	
663.94	6206.7	
664.13	7633.5	
664.31	7218.4	
664.5	7965.9	
664.69	6578.1	
664.87	7063.4	
665.06	6916	
665.25	7754.3	
665.43	7294.2	
665.62	7467.6	
665.8	8219.2	
665.99	7365.9	
666.18	6274.3	
666.36	6397.9	
666.55	8045.1	
666.74	7877.9	
666.92	5771.2	
667.11	7651.2	
667.29	7383.6	
667.48	8006.2	
667.67	7119.4	
667.85	6264.7	
668.04	7437.5	
668.22	7343.3	
668.41	6324.8	
668.6	6401.3	
668.78	7232.7	
668.97	7439.6	
669.15	6635.4	
669.34	5556.8	
669.53	7176.8	
669.71	7542.7	
669.9	5723.4	
670.08	6493.4	
670.27	7191.1	
670.46	7862.2	
670.64	6664.8	
670.83	6995.2	
671.01	7092.1	
671.2	7799.3	
671.38	5840.8	
671.57	5664	
671.76	8393.9	
671.94	9023.4	
672.13	5677.7	
672.31	6819.1	
672.5	7952.3	
672.69	7191.1	
672.87	5788.2	
673.06	6142.5	
673.24	7712	
673.43	7195.9	
673.61	6623.1	
673.8	6169.8	
673.98	7963.9	
674.17	8121.6	
674.36	6722.1	
674.54	6660	
674.73	7690.8	
674.91	7995.3	
675.1	6320.7	
675.28	5905	
675.47	7470.3	
675.65	8079.2	
675.84	6147.3	
676.03	6421.1	
676.21	7152.2	
676.4	6647	
676.58	7044.3	
676.77	6738.5	
676.95	8723	
677.14	7131.7	
677.32	5789.6	
677.51	5601.2	
677.69	7925	
677.88	6778.8	
678.06	5698.1	
678.25	5791	
678.44	7453.2	
678.62	7138.5	
678.81	5432.6	
678.99	6484.6	
679.18	8195.3	
679.36	7765.2	
679.55	6014.9	
679.73	6762.4	
679.92	7819.8	
680.1	7154.2	
680.29	7422.5	
680.47	6058.6	
680.66	7051.2	
680.84	7979.6	
681.03	5298.8	
681.21	6492.1	
681.4	7175.4	
681.58	6985.6	
681.77	5797.1	
681.95	5762.3	
682.14	8071.7	
682.32	8417.2	
682.51	6736.5	
682.69	5410.7	
682.88	7083.9	
683.06	7799.3	
683.25	6469.5	
683.43	6890.7	
683.62	7312.6	
683.8	7770	
683.99	6980.2	
684.17	6193.1	
684.36	8718.9	
684.54	7140.6	
684.73	5249.6	
684.91	5519.3	
685.1	7580.2	
685.28	6740.5	
685.46	5969.8	
685.65	6130.3	
685.83	7759.1	
686.02	7004.7	
686.2	5503.6	
686.39	5677	
686.57	6934.4	
686.76	8494.3	
686.94	5523.4	
687.13	5730.9	
687.31	7582.3	
687.5	7068.2	
687.68	5059.2	
687.86	6529.6	
688.05	8944.8	
688.23	6519.4	
688.42	6563.1	
688.6	5596.4	
688.79	6988.4	
688.97	7005.4	
689.16	6076.3	
689.34	4876.9	
689.52	7700.4	
689.71	7958.4	
689.89	6318.7	
690.08	5570.5	
690.26	7192.5	
690.45	7136.5	
690.63	6535.1	
690.81	5694	
691	6901	
691.18	6823.8	
691.37	5885.9	
691.55	8197.3	
691.74	6782.2	
691.92	9017.2	
692.1	5926.1	
692.29	5221.6	
692.47	7034.1	
692.66	6277	
692.84	5468.1	
693.02	6235.4	
693.21	6427.9	
693.39	7030.7	
693.58	6323.4	
693.76	5651	
693.94	8281.3	
694.13	8008.9	
694.31	5581.4	
694.5	6776	
694.68	6827.9	
694.86	7185	
695.05	5971.9	
695.23	6130.3	
695.42	7635.5	
695.6	10043	
695.78	6641.6	
695.97	5608	
696.15	7518.1	
696.34	6972	
696.52	5373.2	
696.7	6269.5	
696.89	7274.4	
697.07	6706.4	
697.25	6236.1	
697.44	7998.7	
697.62	7298.3	
697.81	7698.3	
697.99	5857.2	
698.17	6488.6	
698.36	6559	
698.54	7251.9	
698.72	6228.6	
698.91	5145.2	
699.09	6799.9	
699.28	6706.4	
699.46	5848.3	
699.64	5681.7	
699.83	6627.9	
700.01	8026.7	
700.19	6551.5	
700.38	4891.9	
700.56	7998	
700.74	6776.7	
700.93	5356.8	
701.11	6167.1	
701.29	7376.8	
701.48	8561.9	
701.66	5548.6	
701.84	5561.6	
702.03	6809.5	
702.21	7610.3	
702.39	5097.4	
702.58	5729.5	
702.76	7299.6	
702.94	7462.1	
703.13	5038.7	
703.31	7694.2	
703.49	6554.9	
703.68	8185	
703.86	5343.8	
704.04	6427.2	
704.23	7110.5	
704.41	7593.2	
704.59	5533.6	
704.78	6957.6	
704.96	8359.8	
705.14	7679.9	
705.33	5290.6	
705.51	6175.3	
705.69	6941.9	
705.87	7875.8	
706.06	6448.4	
706.24	5160.2	
706.42	7314.7	
706.61	7555.6	
706.79	6488.6	
706.97	5223.7	
707.16	6746.7	
707.34	7338.6	
707.52	6523.5	
707.7	5444.9	
707.89	6852.5	
708.07	6461.3	
708.25	6414.9	
708.44	6531	
708.62	6718	
708.8	8030.8	
708.98	6727.6	
709.17	5600.5	
709.35	7235.5	
709.53	7256	
709.72	5251	
709.9	5441.5	
710.08	7402.7	
710.26	7505.8	
710.45	6994.5	
710.63	5590.3	
710.81	7147.4	
710.99	7100.3	
711.18	6242.9	
711.36	5752.1	
711.54	6947.4	
711.72	7682.6	
711.91	5812.8	
712.09	5154.1	
712.27	7122.8	
712.45	7858.7	
712.64	6087.2	
712.82	5014.8	
713	6511.9	
713.18	6650.4	
713.37	5082.4	
713.55	6453.8	
713.73	7582.9	
713.91	6079.1	
714.1	5582.1	
714.28	4914.4	
714.46	7217.7	
714.64	6408.1	
714.83	4343.1	
715.01	5231.9	
715.19	6466.1	
715.37	5937.1	
715.55	4878.3	
715.74	5221	
715.92	7490.1	
716.1	5342.5	
716.28	6489.3	
716.47	5524.7	
716.65	6115.9	
716.83	6182.8	
717.01	5270.8	
717.19	5386.2	
717.38	8439	
717.56	5892	
717.74	5646.2	
717.92	4643.4	
718.1	7150.1	
718.29	6386.9	
718.47	4284.4	
718.65	4942.4	
718.83	7060.7	
719.01	7050.5	
719.2	4157.4	
719.38	5304.9	
719.56	6695.5	
719.74	8351.6	
719.92	4839.4	
720.11	5982.1	
720.29	6720.8	
720.47	5701.5	
720.65	4285	
720.83	5299.5	
721.02	6179.4	
721.2	5890.6	
721.38	5352.7	
721.56	4521.9	
721.74	5367	
721.92	5636.7	
722.11	5975.3	
722.29	5564.3	
722.47	6974.7	
722.65	5971.2	
722.83	4601.1	
723.01	5610.8	
723.2	6129.6	
723.38	6434	
723.56	3970.3	
723.74	5254.4	
723.92	5625.1	
724.1	6845	
724.29	4505.5	
724.47	5745.2	
724.65	5657.9	
724.83	5647.6	
725.01	4405.2	
725.19	5338.4	
725.37	5664	
725.56	5821.7	
725.74	4324.6	
725.92	4595.6	
726.1	5645.6	
726.28	5877	
726.46	5101.5	
726.64	4690.5	
726.83	5881.8	
727.01	6211.5	
727.19	4220.2	
727.37	5162.2	
727.55	6101.6	
727.73	6614.9	
727.91	4215.4	
728.09	4070	
728.28	6627.2	
728.46	7262.8	
728.64	5313.8	
728.82	5204.6	
729	7817.8	
729.18	6944	
729.36	4445.5	
729.54	6963.8	
729.72	8146.1	
729.91	6244.3	
730.09	6481.8	
730.27	5124	
730.45	6096.8	
730.63	6807.4	
730.81	5829.2	
730.99	4709	
731.17	7357.7	
731.35	5880.4	
731.53	5326.1	
731.71	4851	
731.9	7100.3	
732.08	7320.8	
732.26	5221.6	
732.44	4818.9	
732.62	7314.7	
732.8	6674.3	
732.98	5679.7	
733.16	4586.1	
733.34	6734.4	
733.52	5524.7	
733.7	5157.5	
733.88	5442.8	
734.07	6567.8	
734.25	6406	
734.43	4593.6	
734.61	6266.1	
734.79	7991.9	
734.97	6264.7	
735.15	4737	
735.33	5132.9	
735.51	6639.5	
735.69	6170.5	
735.87	6371.9	
736.05	5414.8	
736.23	6464.8	
736.41	6209.4	
736.59	5145.2	
736.77	5317.2	
736.95	6892.1	
737.13	6352.1	
737.32	4805.9	
737.5	5092.6	
737.68	7425.3	
737.86	6224.5	
738.04	4552.6	
738.22	6667.5	
738.4	5929.6	
738.58	6348.7	
738.76	5332.9	
738.94	4162.2	
739.12	6124.1	
739.3	5970.5	
739.48	5967.1	
739.66	5702.9	
739.84	6451.8	
740.02	6437.4	
740.2	4208.6	
740.38	4721.3	
740.56	6873.7	
740.74	5696.1	
740.92	5449	
741.1	5362.3	
741.28	6277	
741.46	6088.6	
741.64	4887.1	
741.82	5461.9	
742	6311.2	
742.18	6254.5	
742.36	5129.5	
742.54	4630.5	
742.72	6893.5	
742.9	5565.7	
743.08	5562.3	
743.26	4227.7	
743.44	7199.3	
743.62	6962.4	
743.8	5771.2	
743.98	4672.8	
744.16	6684.6	
744.34	6380.1	
744.52	5683.1	
744.7	5639.4	
744.88	6827.9	
745.06	6283.2	
745.24	5734.3	
745.42	5877.7	
745.6	6982.9	
745.78	6661.4	
745.96	4386.1	
746.14	4760.2	
746.32	7680.6	
746.5	6965.8	
746.68	5347.2	
746.86	4844.1	
747.03	7533.8	
747.21	5563.6	
747.39	5389.6	
747.57	4805.2	
747.75	6511.9	
747.93	6943.3	
748.11	4842.8	
748.29	4752.7	
748.47	8194.6	
748.65	6244.9	
748.83	5592.3	
749.01	5319.9	
749.19	6731.7	
749.37	5839.4	
749.55	5201.8	
749.73	5326.8	
749.91	6462.7	
750.09	6025.1	
750.26	5363.6	
750.44	4629.1	
750.62	6396.5	
750.8	6379.4	
750.98	4484.4	
751.16	4878.9	
751.34	6479.1	
751.52	5715.2	
751.7	5718.6	
751.88	4446.8	
752.06	6989.7	
752.24	6825.9	
752.42	4435.2	
752.59	4811.4	
752.77	6382.2	
752.95	7755.7	
753.13	5685.8	
753.31	4934.9	
753.49	6019.7	
753.67	6527.6	
753.85	5258.5	
754.03	4840.7	
754.21	6856.6	
754.38	7169.9	
754.56	5051	
754.74	3999.7	
754.92	6021.7	
755.1	6791.7	
755.28	4012	
755.46	4047.5	
755.64	7506.5	
755.82	7606.2	
755.99	4289.8	
756.17	4495.3	
756.35	4997	
756.53	6775.4	
756.71	3296.5	
756.89	4335.5	
757.07	6242.9	
757.25	5241.4	
757.42	4932.9	
757.6	5855.8	
757.78	6364.4	
757.96	5190.2	
758.14	4524.6	
758.32	3960.1	
758.5	4736.3	
758.67	5659.9	
758.85	4448.2	
759.03	4448.9	
759.21	5881.8	
759.39	5229.8	
759.57	3879.5	
759.75	5152.7	
759.92	6537.8	
760.1	5727.5	
760.28	5537	
760.46	5799.2	
760.64	5490.6	
760.82	5214.1	
760.99	5350	
761.17	4442	
761.35	6431.3	
761.53	5266	
761.71	4626.4	
761.89	5375.9	
762.06	6320	
762.24	5712.5	
762.42	4707.6	
762.6	4461.2	
762.78	5693.4	
762.96	6478.4	
763.13	5139.7	
763.31	4814.1	
763.49	6690.7	
763.67	5687.9	
763.85	5694.7	
764.02	6326.9	
764.2	6924.9	
764.38	6025.1	
764.56	4683	
764.74	5674.9	
764.91	7069.6	
765.09	5922.7	
765.27	4285.7	
765.45	4178.5	
765.63	7090.8	
765.8	6945.3	
765.98	3854.3	
766.16	4188.1	
766.34	5421.7	
766.52	5267.4	
766.69	5225.7	
766.87	4007.2	
767.05	5834.7	
767.23	6668.9	
767.41	4381.3	
767.58	4685.1	
767.76	6602.7	
767.94	6541.2	
768.12	4498	
768.29	5384.8	
768.47	5993.7	
768.65	6715.3	
768.83	4018.8	
769	5326.1	
769.18	5532.2	
769.36	6293.4	
769.54	5097.4	
769.72	4129.4	
769.89	6547.4	
770.07	6726.9	
770.25	4481.6	
770.43	5862	
770.6	7466.9	
770.78	7947.5	
770.96	4690.5	
771.14	5442.1	
771.31	6342.6	
771.49	5747.3	
771.67	3803.1	
771.85	4023.6	
772.02	4966.3	
772.2	5797.8	
772.38	4855.7	
772.55	4339.6	
772.73	6106.4	
772.91	5810.8	
773.09	4761.5	
773.26	4803.9	
773.44	6068.8	
773.62	5685.2	
773.8	4097.3	
773.97	3893.2	
774.15	6109.8	
774.33	5658.5	
774.5	4101.4	
774.68	4521.2	
774.86	6324.1	
775.04	5766.4	
775.21	4188.1	
775.39	4136.2	
775.57	6004.6	
775.74	6494.8	
775.92	3977.2	
776.1	3921.2	
776.27	6062.7	
776.45	7380.2	
776.63	4179.9	
776.81	3676.8	
776.98	5638.7	
777.16	6797.2	
777.34	4344.4	
777.51	4763.6	
777.69	5590.3	
777.87	5330.9	
778.04	4326.7	
778.22	5156.8	
778.4	5403.9	
778.57	6128.2	
778.75	3635.1	
778.93	3937.6	
779.1	5197.7	
779.28	5066	
779.46	3649.5	
779.64	4207.9	
779.81	6254.5	
779.99	7346.7	
780.17	5022.3	
780.34	5231.2	
780.52	5676.3	
780.69	5976	
780.87	4485.1	
781.05	4066.6	
781.22	5777.3	
781.4	5896.1	
781.58	4229.1	
781.75	3269.9	
781.93	5782.1	
782.11	5157.5	
782.28	5184.1	
782.46	4231.1	
782.64	5025	
782.81	5987.6	
782.99	4314.4	
783.17	4222.9	
783.34	5907.7	
783.52	5029.8	
783.69	4478.9	
783.87	5449	
784.05	5113.8	
784.22	5165.7	
784.4	5351.3	
784.58	4597.7	
784.75	6176	
784.93	5140.4	
785.1	4162.8	
785.28	4959.5	
785.46	5806.7	
785.63	5113.8	
785.81	4190.8	
785.99	4075.5	
786.16	5287.9	
786.34	5755.5	
786.51	4037.2	
786.69	4451.6	
786.87	4903.5	
787.04	5442.8	
787.22	3468.6	
787.39	5040.1	
787.57	5145.9	
787.75	6300.2	
787.92	5190.2	
788.1	4878.9	
788.27	5203.9	
788.45	4971.8	
788.63	4807.9	
788.8	3349.1	
788.98	5562.3	
789.15	4889.9	
789.33	3444	
789.5	4278.9	
789.68	6133.7	
789.86	6272.2	
790.03	4423.6	
790.21	4101.4	
790.38	6098.9	
790.56	5315.2	
790.73	3959.4	
790.91	3997	
791.09	5171.8	
791.26	6042.9	
791.44	4178.5	
791.61	3617.4	
791.79	5132.2	
791.96	5292	
792.14	3702.7	
792.32	3248.8	
792.49	5224.4	
792.67	5252.4	
792.84	3818.1	
793.02	3622.9	
793.19	5644.9	
793.37	6504.3	
793.54	3377.8	
793.72	3713	
793.89	6606.7	
794.07	5207.3	
794.25	4419.5	
794.42	3414	
794.6	6343.9	
794.77	5937.1	
794.95	4709	
795.12	4024.9	
795.3	5143.1	
795.47	5918.6	
795.65	4459.1	
795.82	4270.7	
796	4992.3	
796.17	7143.3	
796.35	4162.8	
796.52	5001.1	
796.7	5798.5	
796.87	5888.6	
797.05	5135.6	
797.22	5070.1	
797.4	5847.6	
797.57	6914.6	
797.75	4273.4	
797.92	4027.7	
798.1	6139.1	
798.27	5197.1	
798.45	3462.4	
798.62	3678.2	
798.8	5504.9	
798.97	6087.2	
799.15	4543.8	
799.32	4317.1	
799.5	4716.5	
799.67	5599.8	
799.85	4666	
800.02	3362.8	
800.2	5104.2	
800.37	5515.2	
800.55	4875.5	
800.72	3980.6	
800.9	5995.8	
801.07	6461.3	
801.25	5469.4	
801.42	4467.3	
801.6	6157.6	
801.77	5769.1	
801.95	3971	
802.12	3921.9	
802.29	5715.9	
802.47	5737	
802.64	4380.6	
802.82	3267.2	
802.99	5085.8	
803.17	6292.7	
803.34	4281.6	
803.52	3787.4	
803.69	7023.9	
803.87	4893.3	
804.04	4222.2	
804.21	4387.4	
804.39	6340.5	
804.56	5390.9	
804.74	3553.9	
804.91	4473.4	
805.09	5178.6	
805.26	5290.6	
805.44	3631.7	
805.61	4053.6	
805.78	5909.1	
805.96	5943.9	
806.13	4458.4	
806.31	4838	
806.48	4670.7	
806.66	5283.8	
806.83	4386.1	
807	4341.7	
807.18	5156.1	
807.35	5569.8	
807.53	4280.3	
807.7	3440.6	
807.87	6490.7	
808.05	5235.3	
808.22	4762.2	
808.4	3446.7	
808.57	5255.8	
808.74	4851.6	
808.92	3928.7	
809.09	5043.5	
809.27	5051	
809.44	5821.7	
809.61	3442	
809.79	3847.5	
809.96	6419	
810.14	6034.7	
810.31	3364.1	
810.48	4199	
810.66	5339.7	
810.83	6122.7	
811.01	3891.8	
811.18	4723.3	
811.35	6092.7	
811.53	4650.3	
811.7	4807.3	
811.87	4499.4	
812.05	5232.6	
812.22	5143.1	
812.39	3814	
812.57	3693.9	
812.74	5214.8	
812.92	7066.9	
813.09	4186	
813.26	4592.9	
813.44	6777.4	
813.61	5186.1	
813.78	3424.2	
813.96	4712.4	
814.13	5227.1	
814.3	4866	
814.48	5064.6	
814.65	4171	
814.82	6587.6	
815	5026.4	
815.17	4290.5	
815.34	5211.4	
815.52	5145.2	
815.69	5139	
815.87	4237.9	
816.04	3622.2	
816.21	5253.7	
816.38	4558.1	
816.56	4070.7	
816.73	3822.2	
816.9	6657.9	
817.08	6058.6	
817.25	3858.4	
817.42	4948.6	
817.6	4771.1	
817.77	5309	
817.94	4448.9	
818.12	3817.4	
818.29	4937.7	
818.46	7961.1	
818.64	3902.1	
818.81	3708.9	
818.98	4909.7	
819.16	7281.2	
819.33	4550.6	
819.5	4251.6	
819.67	5638.1	
819.85	6383.5	
820.02	4150.6	
820.19	4446.8	
820.37	5434.6	
820.54	5020.3	
820.71	4404.5	
820.88	5431.9	
821.06	5558.2	
821.23	4954.7	
821.4	4337.6	
821.58	4302.8	
821.75	6099.5	
821.92	5406.6	
822.09	3487	
822.27	3771.7	
822.44	5299.5	
822.61	5180.7	
822.79	3527.3	
822.96	6896.2	
823.13	5776	
823.3	4933.6	
823.48	4130.1	
823.65	3688.4	
823.82	5971.9	
823.99	4728.8	
824.17	5170.4	
824.34	3739.6	
824.51	7036.1	
824.68	5304.2	
824.86	3895.9	
825.03	4352.6	
825.2	5212.1	
825.37	6486.6	
825.55	3824.9	
825.72	4323.3	
825.89	7081.9	
826.06	6537.8	
826.24	4191.5	
826.41	4241.3	
826.58	6384.9	
826.75	5544.5	
826.92	3237.8	
827.1	3622.9	
827.27	8855.4	
827.44	7032	
827.61	3977.2	
827.79	4881.7	
827.96	4950.6	
828.13	5358.9	
828.3	4093.9	
828.47	3458.3	
828.65	5466	
828.82	5436.7	
828.99	5408.7	
829.16	4724	
829.34	5872.2	
829.51	5614.2	
829.68	4270	
829.85	4493.2	
830.02	6204	
830.2	5920.7	
830.37	3302	
830.54	5238	
830.71	6774.7	
830.88	5174.5	
831.05	3402.4	
831.23	3883.6	
831.4	6466.1	
831.57	7333.8	
831.74	3985.3	
831.91	3432.4	
832.09	5543.2	
832.26	5918.6	
832.43	4117.8	
832.6	4751.3	
832.77	5440.1	
832.94	6329.6	
833.12	3268.6	
833.29	4079.6	
833.46	5486.5	
833.63	7512.6	
833.8	4548.5	
833.97	4171	
834.15	5913.9	
834.32	5629.2	
834.49	4347.8	
834.66	4414.1	
834.83	6147.3	
835	4967	
835.17	3960.8	
835.35	4010.6	
835.52	5748	
835.69	5694	
835.86	4185.4	
836.03	3491.1	
836.2	5810.1	
836.37	5375.2	
836.55	4132.8	
836.72	3882.3	
836.89	5383.4	
837.06	5892.7	
837.23	4212	
837.4	4634.6	
837.57	6776.7	
837.75	7557.7	
837.92	3719.1	
838.09	3990.8	
838.26	5370.5	
838.43	6129.6	
838.6	4367.6	
838.77	3900.7	
838.94	7186.3	
839.11	6853.2	
839.29	4116.4	
839.46	3262.4	
839.63	5836.7	
839.8	5600.5	
839.97	4020.8	
840.14	4035.9	
840.31	5629.9	
840.48	5862.7	
840.65	3306.1	
840.82	3895.2	
841	5851	
841.17	5825.8	
841.34	3658.4	
841.51	3723.9	
841.68	5694.7	
841.85	5433.3	
842.02	3835.2	
842.19	3134.8	
842.36	5563	
842.53	5543.2	
842.7	3672	
842.87	4577.9	
843.05	7428.7	
843.22	5563	
843.39	3514.3	
843.56	3850.9	
843.73	5253.7	
843.9	5905.7	
844.07	6054.5	
844.24	5066.7	
844.41	8821.3	
844.58	5045.5	
844.75	3514.3	
844.92	3826.3	
845.09	5855.1	
845.26	5811.5	
845.43	3678.8	
845.6	3865.2	
845.77	5874.3	
845.94	5537.7	
846.12	4020.8	
846.29	4265.9	
846.46	6074.3	
846.63	5861.3	
846.8	3639.2	
846.97	4356.7	
847.14	6354.2	
847.31	5808.7	
847.48	4158.1	
847.65	4573.8	
847.82	6192.4	
847.99	6115.2	
848.16	4945.8	
848.33	4594.3	
848.5	5440.1	
848.67	6399.9	
848.84	3639.9	
849.01	3815.4	
849.18	5203.2	
849.35	4891.9	
849.52	4676.9	
849.69	3603.1	
849.86	6106.4	
850.03	6321.4	
850.2	3711.6	
850.37	4531.5	
850.54	6279.8	
850.71	5507.7	
850.88	4391.5	
851.05	3573	
851.22	5776	
851.39	6372.6	
851.56	3437.9	
851.73	4209.9	
851.9	5070.1	
852.07	6120	
852.24	4091.2	
852.41	3680.2	
852.58	5645.6	
852.75	5154.1	
852.92	4121.9	
853.09	3598.3	
853.26	5438	
853.43	6349.4	
853.6	3637.2	
853.77	3088.3	
853.94	6525.5	
854.11	5844.2	
854.28	5502.2	
854.44	3963.5	
854.61	6967.9	
854.78	5971.9	
854.95	3687	
855.12	4648.9	
855.29	4694.6	
855.46	6548.7	
855.63	3668.6	
855.8	5141.1	
855.97	5379.3	
856.14	6195.1	
856.31	5162.9	
856.48	3980.6	
856.65	5314.5	
856.82	5066	
856.99	3486.3	
857.16	3984	
857.33	7174.7	
857.49	5500.8	
857.66	3978.5	
857.83	4233.8	
858	5399.1	
858.17	5620.3	
858.34	3452.2	
858.51	3630.4	
858.68	6642.2	
858.85	6619.7	
859.02	4263.2	
859.19	4538.3	
859.36	5084.4	
859.52	5264.6	
859.69	3741.6	
859.86	4321.9	
860.03	5175.2	
860.2	6537.1	
860.37	3274.7	
860.54	3678.2	
860.71	6070.2	
860.88	6573.3	
861.05	4113.7	
861.21	4610	
861.38	6617.7	
861.55	5002.5	
861.72	3301.3	
861.89	4104.8	
862.06	6163.7	
862.23	6774	
862.4	3526.6	
862.56	3812.6	
862.73	6006.7	
862.9	5668.1	
863.07	4353.3	
863.24	3338.9	
863.41	4977.2	
863.58	5155.4	
863.75	3680.9	
863.91	4229.1	
864.08	6601.3	
864.25	6046.3	
864.42	4633.9	
864.59	5137.7	
864.76	6911.9	
864.93	5139	
865.09	3610.6	
865.26	3920.5	
865.43	6373.3	
865.6	6809.5	
865.77	3138.9	
865.94	3598.3	
866.1	6494.1	
866.27	6163	
866.44	5568.4	
866.61	3404.4	
866.78	5539.8	
866.95	6024.4	
867.11	3519.1	
867.28	3220.1	
867.45	6206.7	
867.62	5146.5	
867.79	4285	
867.96	3675.4	
868.12	5158.2	
868.29	6141.2	
868.46	3618.8	
868.63	4910.3	
868.8	6272.2	
868.97	6047	
869.13	3827	
869.3	3803.8	
869.47	6027.2	
869.64	6240.8	
869.81	3695.2	
869.97	3721.2	
870.14	5494.7	
870.31	6610.2	
870.48	3569.6	
870.65	4633.2	
870.81	5507	
870.98	5433.9	
871.15	4152.6	
871.32	3783.3	
871.48	5909.1	
871.65	6640.2	
871.82	3670.6	
871.99	4062.5	
872.16	7148.1	
872.32	6428.6	
872.49	3635.8	
872.66	3670	
872.83	6182.1	
872.99	5356.8	
873.16	4166.9	
873.33	3678.2	
873.5	5719.3	
873.67	5771.9	
873.83	3843.4	
874	4931.5	
874.17	5905.7	
874.34	7036.8	
874.5	4754.7	
874.67	4618.2	
874.84	6595.8	
875.01	5122.7	
875.17	5211.4	
875.34	3661.8	
875.51	5749.3	
875.68	7050.5	
875.84	4435.2	
876.01	5418.2	
876.18	6096.8	
876.34	6071.5	
876.51	3736.9	
876.68	3498.6	
876.85	5510.4	
877.01	6407.4	
877.18	5246.2	
877.35	3666.5	
877.52	5683.1	
877.68	5022.3	
877.85	3592.8	
878.02	3605.1	
878.18	5649	
878.35	5332.9	
878.52	2908.1	
878.69	4199	
878.85	6099.5	
879.02	6019	
879.19	5235.3	
879.35	3943	
879.52	6063.4	
879.69	6374.6	
879.86	3117	
880.02	4077.5	
880.19	5595.1	
880.36	6853.9	
880.52	4236.6	
880.69	4330.1	
880.86	6206	
881.02	6249.7	
881.19	4017.4	
881.36	3981.9	
881.52	6090	
881.69	5377.3	
881.86	3924.6	
882.02	3872	
882.19	6363	
882.36	7447.8	
882.52	3713.6	
882.69	5206.6	
882.86	5809.4	
883.02	5690.6	
883.19	4450.2	
883.36	4241.3	
883.52	6216.3	
883.69	7163.8	
883.86	3676.8	
884.02	3295.2	
884.19	6234	
884.36	5601.9	
884.52	4141.7	
884.69	3871.3	
884.86	5367	
885.02	6790.4	
885.19	4132.8	
885.36	4209.3	
885.52	5628.5	
885.69	5883.1	
885.86	5380.7	
886.02	4793.6	
886.19	6175.3	
886.35	5569.8	
886.52	4022.2	
886.69	5216.9	
886.85	5203.2	
887.02	6538.5	
887.19	6538.5	
887.35	6538.5	
887.52	6538.5	
887.68	6538.5	
887.85	6538.5	
888.02	6538.5	
888.18	6538.5	
888.35	6538.5	
888.51	6538.5	
888.68	6538.5	
888.85	6538.5	
889.01	6538.5	
889.18	6538.5	
889.35	6538.5	
889.51	6538.5	
889.68	6538.5	
889.84	6538.5	
890.01	6538.5	
890.17	6538.5	
890.34	6538.5	
890.51	6538.5	
890.67	6538.5	
890.84	6538.5	
891	6538.5	
891.17	6538.5	
891.34	6538.5	
891.5	6538.5	
891.67	6538.5	
891.83	6538.5	
892	6538.5	
892.16	6538.5	
892.33	6538.5	
892.5	6538.5	
892.66	6538.5	
892.83	6538.5	
892.99	6538.5	
893.16	6538.5	
893.32	6538.5	
893.49	6538.5	
893.65	6538.5	
893.82	6538.5	
893.99	6538.5	
894.15	6538.5	
894.32	6538.5	
894.48	6538.5	
894.65	6538.5	
894.81	6538.5	
894.98	6538.5	
895.14	6538.5	
895.31	6538.5	
895.47	6538.5	
895.64	6538.5	
895.81	6538.5	
895.97	6538.5	
896.14	6538.5	
896.3	6538.5	
896.47	6538.5	
896.63	6538.5	
896.8	6538.5	
896.96	6538.5	
897.13	6538.5	
897.29	6538.5	
897.46	6538.5	
897.62	6538.5	
897.79	6538.5	
897.95	6538.5	
898.12	6538.5	
898.28	6538.5	
898.45	6538.5	
898.61	6538.5	
898.78	6538.5	
898.94	6538.5	
899.11	6538.5	
899.27	6538.5	
899.44	6538.5	
899.6	6538.5	
899.77	6538.5	
899.93	6538.5	
900.1	6538.5	
900.26	6538.5	
900.43	6538.5	
900.59	6538.5	
900.76	6538.5	
900.92	6538.5	
901.09	6538.5	
901.25	6538.5	
901.42	6538.5	
901.58	6538.5	
901.75	6538.5	
901.91	6538.5	
902.07	6538.5	
902.24	6538.5	
902.4	6538.5	
902.57	6538.5	
902.73	6538.5	
902.9	6538.5	
903.06	6538.5	
903.23	6538.5	
903.39	6538.5	
903.56	6538.5	
903.72	6538.5	
903.88	6538.5	
904.05	6538.5	
904.21	6538.5	
904.38	6538.5	
904.54	6538.5	
904.71	6538.5	
904.87	6538.5	
905.03	6538.5	
905.2	6538.5	
905.36	6538.5	
905.53	6538.5	
905.69	6538.5	
905.86	6538.5	
906.02	6538.5	
906.18	6538.5	
906.35	6538.5	
906.51	6538.5	
906.68	6538.5	
906.84	6538.5	
907.01	6538.5	
907.17	6538.5	
907.33	6538.5	
907.5	6538.5	
907.66	6538.5	
907.83	6538.5	
907.99	6538.5	
908.15	6538.5	
908.32	6538.5	
908.48	6538.5	
908.65	6538.5	
908.81	6538.5	
908.97	6538.5	
909.14	6538.5	
909.3	6538.5	
909.47	6538.5	
909.63	6538.5	
909.79	6538.5	
909.96	6538.5	
910.12	6538.5	
910.28	6538.5	
910.45	6538.5	
910.61	6538.5	
910.78	6538.5	
910.94	6538.5	
911.1	6538.5	
911.27	6538.5	
911.43	6538.5	
911.59	6538.5	
911.76	6538.5	
911.92	6538.5	
912.08	6538.5	
912.25	6538.5	
912.41	6538.5	
912.57	6538.5	
912.74	6538.5	
912.9	6538.5	
913.07	6538.5	
913.23	6538.5	
913.39	6538.5	
913.56	6538.5	
913.72	6538.5	
913.88	6538.5	
914.05	6538.5	
914.21	6538.5	
914.37	6538.5	
914.54	6538.5	
914.7	6538.5	
914.86	6538.5	
915.03	6538.5	
915.19	6538.5	
