Wavelength	Intensities	
nm	a.u.	
179.22	1915.9	
179.44	1907.3	
179.65	1924.4	
179.86	1890.3	
180.08	1943.5	
180.29	5048.9	
180.51	3536.2	
180.72	5760.3	
180.94	6737.8	
181.15	3329.3	
181.37	3193.5	
181.58	5503.6	
181.79	5878.4	
182.01	3476.8	
182.22	3728	
182.44	5857.2	
182.65	4924.7	
182.87	4700.1	
183.08	4056.3	
183.29	6123.4	
183.51	5063.9	
183.72	3749.1	
183.94	5537	
184.15	5451	
184.37	5528.8	
184.58	3300	
184.79	4493.9	
185.01	5069.4	
185.22	5814.9	
185.44	4794.3	
185.65	4043.4	
185.86	5386.2	
186.08	4965.6	
186.29	3201	
186.51	3431	
186.72	5137	
186.94	6044.2	
187.15	4006.5	
187.36	4140.3	
187.58	7932.5	
187.79	5582.1	
188.01	4331.5	
188.22	6689.3	
188.43	6787.7	
188.65	5800.5	
188.86	3409.2	
189.08	4121.2	
189.29	5302.2	
189.5	5330.2	
189.72	3845.4	
189.93	3906.2	
190.15	6168.5	
190.36	7292.1	
190.57	4254.3	
190.79	4115.7	
191	6189	
191.22	6104.3	
191.43	4232.5	
191.64	3397.6	
191.86	6399.2	
192.07	6116.6	
192.29	3595.6	
192.5	3804.4	
192.71	6105.7	
192.93	5221	
193.14	3778.5	
193.35	3835.8	
193.57	5289.9	
193.78	6136.4	
194	3051.5	
194.21	3758	
194.42	5016.2	
194.64	5530.9	
194.85	4060.4	
195.07	4885.1	
195.28	5533.6	
195.49	4766.3	
195.71	5160.9	
195.92	3570.3	
196.13	5702.9	
196.35	5812.8	
196.56	5468.1	
196.78	4129.4	
196.99	7195.2	
197.2	6755.6	
197.42	4753.3	
197.63	4174.4	
197.84	4922.6	
198.06	5694.7	
198.27	3799	
198.48	5108.3	
198.7	5220.3	
198.91	5383.4	
199.13	4179.2	
199.34	4162.8	
199.55	5900.9	
199.77	4784.7	
199.98	3642.7	
200.19	4179.9	
200.41	5334.3	
200.62	5051	
200.83	4315.8	
201.05	4620.9	
201.26	5432.6	
201.47	5074.2	
201.69	3719.8	
201.9	3551.2	
202.11	5487.2	
202.33	6557.6	
202.54	3986	
202.76	4376.5	
202.97	5689.9	
203.18	5616.9	
203.4	4368.3	
203.61	4188.1	
203.82	5537	
204.04	5175.9	
204.25	4231.1	
204.46	4093.2	
204.68	5565	
204.89	5801.2	
205.1	4100.7	
205.32	3530.7	
205.53	5937.1	
205.74	6010.8	
205.96	2979.8	
206.17	4283.7	
206.38	5922.7	
206.6	6043.6	
206.81	4844.1	
207.02	3902.1	
207.24	5750	
207.45	6224.5	
207.66	3963.5	
207.88	3353.2	
208.09	5685.8	
208.3	5472.9	
208.52	3608.5	
208.73	4047.5	
208.94	5599.8	
209.15	6287.3	
209.37	3984.7	
209.58	4158.7	
209.79	6062.7	
210.01	5297.4	
210.22	3160	
210.43	3304.7	
210.65	5500.8	
210.86	5951.4	
211.07	3977.8	
211.29	3653.6	
211.5	5898.2	
211.71	5496.7	
211.93	3616.7	
212.14	3663.1	
212.35	5463.3	
212.56	5761.6	
212.78	4182.6	
212.99	3461.1	
213.2	6489.3	
213.42	5261.9	
213.63	3792.2	
213.84	4046.8	
214.06	4879.6	
214.27	4949.3	
214.48	3975.8	
214.69	4203.8	
214.91	6249.7	
215.12	6302.3	
215.33	4283	
215.55	4720.6	
215.76	6847.7	
215.97	5939.1	
216.18	4139.6	
216.4	4052.2	
216.61	5125.4	
216.82	6012.2	
217.04	3639.9	
217.25	3819.5	
217.46	6199.9	
217.67	5915.2	
217.89	3250.1	
218.1	3331.4	
218.31	5545.9	
218.53	5646.9	
218.74	3796.3	
218.95	3738.9	
219.16	5470.8	
219.38	6423.1	
219.59	3733.4	
219.8	4440	
220.01	7159.7	
220.23	5502.9	
220.44	4884.4	
220.65	3652.2	
220.87	5603.2	
221.08	6186.2	
221.29	3337.5	
221.5	4541.7	
221.72	7595.2	
221.93	5212.8	
222.14	4232.5	
222.35	4903.5	
222.57	5571.8	
222.78	5868.1	
222.99	3992.2	
223.2	4330.1	
223.42	5829.2	
223.63	6015.6	
223.84	3062.4	
224.05	3062.4	
224.27	7070.3	
224.48	6455.9	
224.69	4944.5	
224.9	4204.5	
225.12	5712.5	
225.33	5424.4	
225.54	3299.3	
225.75	3691.8	
225.97	5111	
226.18	5369.1	
226.39	4035.9	
226.6	3727.3	
226.82	5270.1	
227.03	5096.7	
227.24	4213.4	
227.45	3429.7	
227.67	5903.6	
227.88	6451.8	
228.09	4685.1	
228.3	4677.6	
228.52	5970.5	
228.73	5433.9	
228.94	3876.8	
229.15	3461.1	
229.36	5373.9	
229.58	5331.5	
229.79	3874.1	
230	4582	
230.21	6608.8	
230.43	5565.7	
230.64	4150.6	
230.85	4298	
231.06	5910.4	
231.28	5952.1	
231.49	3432.4	
231.7	4061.1	
231.91	5881.1	
232.12	5560.9	
232.34	3499.3	
232.55	4070.7	
232.76	6138.4	
232.97	5659.9	
233.18	3690.4	
233.4	4101.4	
233.61	5754.8	
233.82	5245.5	
234.03	3848.1	
234.25	3743	
234.46	7750.2	
234.67	5581.4	
234.88	4264.6	
235.09	3680.2	
235.31	5877.7	
235.52	5415.5	
235.73	4135.5	
235.94	3439.2	
236.15	5170.4	
236.37	6790.4	
236.58	3641.3	
236.79	3997	
237	5868.1	
237.21	4999.1	
237.43	4282.3	
237.64	3327.3	
237.85	10109	
238.06	5076.2	
238.27	4353.3	
238.48	3520.5	
238.7	5879	
238.91	5363.6	
239.12	4008.6	
239.33	4018.8	
239.54	5298.1	
239.76	5408.7	
239.97	3982.6	
240.18	3997.6	
240.39	6971.3	
240.6	5782.1	
240.82	4121.2	
241.03	3373	
241.24	5474.9	
241.45	6466.1	
241.66	3635.8	
241.87	4306.2	
242.09	6237.4	
242.3	6730.3	
242.51	4349.2	
242.72	3999.7	
242.93	6000.5	
243.14	5450.3	
243.36	4645.5	
243.57	4952.7	
243.78	6405.4	
243.99	5922.7	
244.2	4077.5	
244.41	3657	
244.63	4989.5	
244.84	5807.4	
245.05	4283.7	
245.26	3993.5	
245.47	5769.1	
245.68	6082.5	
245.9	5316.5	
246.11	4229.1	
246.32	5321.3	
246.53	5705	
246.74	6532.3	
246.95	3326.6	
247.16	4956.8	
247.38	5487.2	
247.59	3338.9	
247.8	3984	
248.01	5187.5	
248.22	5427.8	
248.43	3644.7	
248.64	3908.9	
248.86	4860.5	
249.07	5276.9	
249.28	3466.5	
249.49	4064.5	
249.7	6109.1	
249.91	6179.4	
250.12	3279.5	
250.34	3304.7	
250.55	5610.8	
250.76	5500.2	
250.97	4140.3	
251.18	4220.2	
251.39	6218.3	
251.6	5693.4	
251.81	4272.1	
252.03	4237.9	
252.24	5189.6	
252.45	6038.1	
252.66	3444.7	
252.87	4476.9	
253.08	5575.9	
253.29	7340.6	
253.5	3483.6	
253.72	4840.7	
253.93	5335	
254.14	6593.8	
254.35	3737.5	
254.56	3954.6	
254.77	5865.4	
254.98	5130.8	
255.19	3782.6	
255.41	4854.4	
255.62	5562.3	
255.83	6226.5	
256.04	4349.9	
256.25	4160.1	
256.46	6818.4	
256.67	5201.2	
256.88	4127.3	
257.09	4648.9	
257.31	5156.1	
257.52	5215.5	
257.73	5197.1	
257.94	3781.9	
258.15	5339.1	
258.36	5547.9	
258.57	4801.1	
258.78	3065.8	
258.99	6071.5	
259.2	5298.1	
259.41	3816	
259.63	3914.4	
259.84	6422.4	
260.05	6870.3	
260.26	5031.2	
260.47	3718.4	
260.68	6037.4	
260.89	5386.2	
261.1	4613.4	
261.31	3628.3	
261.52	6071.5	
261.73	6469.5	
261.95	5001.1	
262.16	4348.5	
262.37	6260.6	
262.58	6333.7	
262.79	4910.3	
263	3861.8	
263.21	5577.3	
263.42	4988.2	
263.63	3945.1	
263.84	3833.8	
264.05	6137.8	
264.26	6475.7	
264.47	4780	
264.69	4363.5	
264.9	6231.3	
265.11	5717.2	
265.32	3733.4	
265.53	3855.6	
265.74	5637.4	
265.95	4929.5	
266.16	4064.5	
266.37	4507.6	
266.58	5599.1	
266.79	5390.9	
267	3790.1	
267.21	3491.8	
267.42	5062.6	
267.63	5495.4	
267.84	3994.9	
268.06	3437.2	
268.27	5983.5	
268.48	6276.3	
268.69	3886.4	
268.9	4689.8	
269.11	6227.9	
269.32	4988.9	
269.53	4039.3	
269.74	3683.6	
269.95	5916.6	
270.16	4880.3	
270.37	4047.5	
270.58	4644.1	
270.79	5381.4	
271	6034.7	
271.21	4239.3	
271.42	4046.1	
271.63	5685.2	
271.84	5181.4	
272.05	3196.2	
272.26	3581.9	
272.47	5606.7	
272.68	5694.7	
272.89	3837.2	
273.11	4519.9	
273.32	5287.2	
273.53	6519.4	
273.74	4350.6	
273.95	4252.9	
274.16	6178	
274.37	5547.9	
274.58	4405.9	
274.79	3513.6	
275	5611.4	
275.21	6220.4	
275.42	5291.3	
275.63	4581.3	
275.84	5795.8	
276.05	7374.1	
276.26	4256.4	
276.47	3951.2	
276.68	5309.7	
276.89	6548.7	
277.1	4538.3	
277.31	3487	
277.52	5756.8	
277.73	5983.5	
277.94	3497.9	
278.15	3861.8	
278.36	5748	
278.57	5163.6	
278.78	3863.2	
278.99	4345.8	
279.2	5124.7	
279.41	5016.8	
279.62	5116.5	
279.83	3544.4	
280.04	6780.1	
280.25	5072.1	
280.46	4997	
280.67	3999.7	
280.88	5169.8	
281.09	6234.7	
281.3	4234.5	
281.51	5386.2	
281.72	6060.6	
281.93	6041.5	
282.14	3683.6	
282.35	4043.4	
282.56	6031.3	
282.77	6055.8	
282.98	3906.2	
283.19	4742.4	
283.4	7475.8	
283.61	5443.5	
283.82	3542.3	
284.03	4996.4	
284.24	5584.8	
284.45	6182.1	
284.66	4971.1	
284.87	4811.4	
285.08	6094.1	
285.29	6277.7	
285.5	3392.1	
285.71	3926.6	
285.92	6155.5	
286.12	6863.4	
286.33	4946.5	
286.54	3861.8	
286.75	6027.2	
286.96	5375.2	
287.17	3549.1	
287.38	4896	
287.59	5147.9	
287.8	5069.4	
288.01	3901.4	
288.22	4539	
288.43	6096.8	
288.64	5044.1	
288.85	4646.2	
289.06	4416.1	
289.27	6005.3	
289.48	6509.8	
289.69	4997.7	
289.9	4487.1	
290.11	6169.2	
290.32	5198.4	
290.53	4745.8	
290.74	4386.7	
290.94	5948	
291.15	6026.5	
291.36	3736.9	
291.57	4564.9	
291.78	5214.8	
291.99	4964.3	
292.2	3596.9	
292.41	4371.7	
292.62	6081.8	
292.83	5864.7	
293.04	5414.8	
293.25	3716.4	
293.46	5291.3	
293.67	6167.8	
293.88	3765.5	
294.09	3602.4	
294.29	5037.3	
294.5	5688.6	
294.71	4016.1	
294.92	3839.3	
295.13	5249.6	
295.34	6657.9	
295.55	3397.6	
295.76	3474	
295.97	5958.9	
296.18	6722.1	
296.39	3595.6	
296.6	3749.1	
296.81	5630.5	
297.01	5963	
297.22	3941.7	
297.43	3658.4	
297.64	5179.3	
297.85	5139	
298.06	3056.9	
298.27	3347.1	
298.48	5580.7	
298.69	5255.8	
298.9	4090.5	
299.11	3714.3	
299.31	5035.3	
299.52	5025.7	
299.73	4405.9	
299.94	4252.9	
300.15	5490.6	
300.36	5122.7	
300.57	4285.7	
300.78	4216.8	
300.99	5351.3	
301.2	5682.4	
301.4	3706.8	
301.61	4102.1	
301.82	5870.8	
302.03	5986.9	
302.24	4582.7	
302.45	3555.3	
302.66	5862.7	
302.87	6331.6	
303.08	3711.6	
303.29	5175.9	
303.49	5263.3	
303.7	5595.1	
303.91	3337.5	
304.12	4900.8	
304.33	5009.3	
304.54	5650.3	
304.75	3732.8	
304.96	3596.9	
305.16	5883.1	
305.37	6591	
305.58	3246	
305.79	3414	
306	5843.5	
306.21	4935.6	
306.42	3816	
306.63	5785.5	
306.83	5436	
307.04	6158.9	
307.25	4083.6	
307.46	4117.1	
307.67	4741.7	
307.88	6006.7	
308.09	3654.3	
308.29	3845.4	
308.5	5656.5	
308.71	6165.1	
308.92	3954.6	
309.13	3590.1	
309.34	5390.9	
309.55	5468.8	
309.75	4727.4	
309.96	4281.6	
310.17	6036	
310.38	5179.3	
310.59	4470.7	
310.8	3503.4	
311.01	6213.5	
311.21	5397.1	
311.42	3609.9	
311.63	3689.1	
311.84	5193	
312.05	5763.7	
312.26	4203.1	
312.46	4642.7	
312.67	5283.8	
312.88	5104.2	
313.09	3568.9	
313.3	3493.8	
313.51	6361.7	
313.71	6703	
313.92	3587.4	
314.13	3844.7	
314.34	5737	
314.55	5411.4	
314.76	4700.8	
314.96	4033.1	
315.17	5593	
315.38	6083.8	
315.59	3630.4	
315.8	3515.7	
316.01	6457.9	
316.21	6500.9	
316.42	3463.1	
316.63	3976.5	
316.84	5357.5	
317.05	6235.4	
317.26	4276.8	
317.46	3856.3	
317.67	5483.1	
317.88	5946.6	
318.09	4604.5	
318.3	3365.5	
318.5	5259.2	
318.71	5920.7	
318.92	5984.2	
319.13	4251.6	
319.34	6034.7	
319.54	6180.8	
319.75	3381.9	
319.96	3224.9	
320.17	5941.8	
320.38	6100.9	
320.58	3284.9	
320.79	4029.7	
321	6135.7	
321.21	6252.4	
321.42	4035.2	
321.62	3300.6	
321.83	5102.9	
322.04	5534.3	
322.25	3825.6	
322.46	3715.7	
322.66	5661.3	
322.87	5847	
323.08	4487.8	
323.29	3588.7	
323.5	6665.5	
323.7	5076.2	
323.91	4967	
324.12	4407.9	
324.33	5547.3	
324.53	5845.6	
324.74	4204.5	
324.95	4528.1	
325.16	4907.6	
325.37	5351.3	
325.57	3672.7	
325.78	3701.4	
325.99	5556.1	
326.2	4982	
326.4	5134.3	
326.61	3391.4	
326.82	5459.2	
327.03	5662.6	
327.24	5193	
327.44	4891.9	
327.65	5809.4	
327.86	4711.7	
328.07	4353.3	
328.27	3472.7	
328.48	6232	
328.69	5083.1	
328.9	5286.5	
329.1	3906.8	
329.31	5382.1	
329.52	6311.2	
329.73	3645.4	
329.93	4094.6	
330.14	5534.3	
330.35	5768.4	
330.56	6055.8	
330.76	4550.6	
330.97	5372.5	
331.18	5773.2	
331.39	4007.9	
331.59	3237.2	
331.8	6144.6	
332.01	6311.2	
332.22	3820.8	
332.42	4265.9	
332.63	5674.9	
332.84	5294	
333.05	4119.8	
333.25	3698.6	
333.46	5336.3	
333.67	5522.7	
333.88	3798.3	
334.08	4258.4	
334.29	7445.7	
334.5	6282.5	
334.7	3540.9	
334.91	5240.8	
335.12	5070.1	
335.33	5931.6	
335.53	3999.7	
335.74	6060.6	
335.95	5285.8	
336.16	5162.2	
336.36	4060.4	
336.57	4662.5	
336.78	5061.2	
336.98	6176	
337.19	5008.6	
337.4	3988.1	
337.61	6737.1	
337.81	5038	
338.02	3727.3	
338.23	4844.1	
338.43	6341.9	
338.64	5159.5	
338.85	3630.4	
339.05	4774.5	
339.26	6405.4	
339.47	4886.5	
339.68	3663.8	
339.88	5440.8	
340.09	5798.5	
340.3	6074.3	
340.5	4285	
340.71	3267.9	
340.92	5008.6	
341.13	6300.9	
341.33	3496.6	
341.54	4347.8	
341.75	5726.8	
341.95	5372.5	
342.16	4114.4	
342.37	4491.9	
342.57	5100.8	
342.78	5544.5	
342.99	4607.9	
343.19	3249.4	
343.4	5971.2	
343.61	5877.7	
343.81	3858.4	
344.02	3601	
344.23	5961.6	
344.43	6383.5	
344.64	4554.7	
344.85	4405.9	
345.06	5790.3	
345.26	6219	
345.47	4212.7	
345.68	4998.4	
345.88	4885.8	
346.09	6031.3	
346.3	4339	
346.5	3246	
346.71	5586.2	
346.92	5202.5	
347.12	3332	
347.33	4239.3	
347.54	6071.5	
347.74	6549.4	
347.95	4162.8	
348.16	3098.6	
348.36	5330.2	
348.57	5128.1	
348.78	4121.2	
348.98	4480.3	
349.19	5423.7	
349.39	4978.6	
349.6	3304.7	
349.81	3667.2	
350.01	5789.6	
350.22	5242.1	
350.43	4018.8	
350.63	4853.7	
350.84	5618.9	
351.05	5327.4	
351.25	3653.6	
351.46	3339.6	
351.67	6096.8	
351.87	5166.3	
352.08	3944.4	
352.29	4438.6	
352.49	5980.1	
352.7	5721.3	
352.9	3573	
353.11	4466.6	
353.32	6716	
353.52	5328.8	
353.73	3521.8	
353.94	4501.4	
354.14	5806	
354.35	5630.5	
354.55	3591.5	
354.76	4009.2	
354.97	5781.4	
355.17	5596.4	
355.38	3341.6	
355.59	4770.4	
355.79	5193.6	
356	5663.3	
356.2	3994.2	
356.41	3471.3	
356.62	4879.6	
356.82	5413.5	
357.03	4218.8	
357.24	3859.7	
357.44	5179.3	
357.65	5326.8	
357.85	5158.8	
358.06	4007.9	
358.27	4902.8	
358.47	5132.9	
358.68	3320.4	
358.88	4252.9	
359.09	5763.7	
359.3	6120	
359.5	4965	
359.71	4389.5	
359.91	6592.4	
360.12	5952.1	
360.33	4188.1	
360.53	4671.4	
360.74	5156.1	
360.94	5149.3	
361.15	4424.3	
361.36	3596.9	
361.56	5987.6	
361.77	5398.4	
361.97	4928.1	
362.18	3863.2	
362.38	5991	
362.59	5008	
362.8	3582.6	
363	3334.1	
363.21	4806.6	
363.41	5495.4	
363.62	4039.3	
363.83	5138.4	
364.03	5603.9	
364.24	6606.1	
364.44	5258.5	
364.65	5274.9	
364.85	5369.8	
365.06	4959.5	
365.27	3749.8	
365.47	3758	
365.68	6335.7	
365.88	5304.2	
366.09	4104.1	
366.29	3796.9	
366.5	5564.3	
366.71	6064.7	
366.91	5140.4	
367.12	4293.9	
367.32	6603.3	
367.53	5899.5	
367.73	4232.5	
367.94	5247.6	
368.14	5804.6	
368.35	6804	
368.56	4227	
368.76	3950.5	
368.97	5911.1	
369.17	7722.9	
369.38	3695.2	
369.58	3977.8	
369.79	4902.8	
369.99	6320	
370.2	5056.4	
370.4	4055	
370.61	5588.2	
370.82	6797.9	
371.02	3951.9	
371.23	3229.6	
371.43	4803.9	
371.64	6160.3	
371.84	3941.7	
372.05	5264.6	
372.25	7520.1	
372.46	5901.6	
372.66	3966.9	
372.87	3928	
373.07	5979.4	
373.28	7610.9	
373.48	4988.9	
373.69	4710.3	
373.9	5322	
374.1	5390.9	
374.31	4932.9	
374.51	4438.6	
374.72	6266.8	
374.92	5042.8	
375.13	5033.9	
375.33	4229.1	
375.54	5760.3	
375.74	5124	
375.95	4321.9	
376.15	5559.6	
376.36	5702.9	
376.56	5548.6	
376.77	4340.3	
376.97	4831.2	
377.18	6849.1	
377.38	5838.8	
377.59	5146.5	
377.79	3782.6	
378	5638.7	
378.2	6158.9	
378.41	3856.3	
378.61	3805.8	
378.82	6061.3	
379.02	5201.2	
379.23	3929.4	
379.43	5174.5	
379.64	6135	
379.84	5774.6	
380.05	3845.4	
380.25	3785.3	
380.46	5874.9	
380.66	5449.6	
380.87	5229.8	
381.07	5584.1	
381.28	6511.9	
381.48	5909.1	
381.69	3800.3	
381.89	3926	
382.1	4780	
382.3	6122.7	
382.51	5089.9	
382.71	6005.3	
382.91	5883.8	
383.12	6449.7	
383.32	4236.6	
383.53	4476.9	
383.73	5798.5	
383.94	5542.5	
384.14	4455	
384.35	3519.8	
384.55	5485.1	
384.76	5887.9	
384.96	4298	
385.17	4654.4	
385.37	5895.4	
385.58	5160.2	
385.78	4611.3	
385.98	3435.8	
386.19	5409.4	
386.39	5778	
386.6	4004.5	
386.8	4308.2	
387.01	5890	
387.21	5973.2	
387.42	4722.6	
387.62	5282.4	
387.83	5162.2	
388.03	5935.7	
388.23	4359.4	
388.44	5154.7	
388.64	4803.9	
388.85	4978.6	
389.05	4642.7	
389.26	5298.8	
389.46	6918	
389.67	6293.4	
389.87	4613.4	
390.07	4728.1	
390.28	5499.5	
390.48	5072.8	
390.69	3797.6	
390.89	4164.9	
391.1	5233.9	
391.3	6204	
391.5	5442.1	
391.71	6006.7	
391.91	5952.8	
392.12	7031.4	
392.32	5468.1	
392.53	4705.5	
392.73	5373.9	
392.93	5583.4	
393.14	4346.5	
393.34	5201.8	
393.55	6051.1	
393.75	5534.3	
393.95	4337.6	
394.16	4271.4	
394.36	5215.5	
394.57	6020.3	
394.77	3730	
394.98	4261.8	
395.18	5197.7	
395.38	5330.9	
395.59	5079.6	
395.79	4012	
396	5322	
396.2	5842.9	
396.4	4909	
396.61	4797.7	
396.81	5988.9	
397.02	5272.2	
397.22	5087.8	
397.42	5179.3	
397.63	5984.8	
397.83	5156.8	
398.04	3891.1	
398.24	4434.5	
398.44	5791.7	
398.65	4768.4	
398.85	3783.3	
399.05	3789.4	
399.26	5096.7	
399.46	6936.5	
399.67	4273.4	
399.87	4012	
400.07	5479.7	
400.28	5907.7	
400.48	4012	
400.69	5125.4	
400.89	6069.5	
401.09	6573.3	
401.3	3908.9	
401.5	5143.8	
401.7	6761.7	
401.91	7065.5	
402.11	4240.7	
402.32	4592.2	
402.52	6190.3	
402.72	6113.2	
402.93	4746.5	
403.13	3570.3	
403.33	6993.1	
403.54	5600.5	
403.74	4467.3	
403.94	5350.7	
404.15	5601.2	
404.35	6858.6	
404.56	4243.4	
404.76	6178.7	
404.96	6102.3	
405.17	5870.2	
405.37	5551.4	
405.57	4779.3	
405.78	6087.9	
405.98	5606	
406.18	4224.3	
406.39	5215.5	
406.59	6122.1	
406.79	5752.7	
407	4007.2	
407.2	4160.8	
407.4	6176	
407.61	6313.9	
407.81	4095.3	
408.01	6316.6	
408.22	5006.6	
408.42	7130.3	
408.62	5154.1	
408.83	4678.2	
409.03	5644.9	
409.23	5378.6	
409.44	4635.9	
409.64	4943.8	
409.84	6505	
410.05	6412.9	
410.25	4692.6	
410.45	4597.7	
410.66	5838.8	
410.86	8405.5	
411.06	4895.3	
411.27	4777.2	
411.47	8108.6	
411.67	5955.5	
411.88	5113.8	
412.08	5248.3	
412.28	6679.1	
412.49	7176.1	
412.69	4732.9	
412.89	4796.3	
413.09	7020.4	
413.3	6750.1	
413.5	4805.2	
413.7	4442	
413.91	6019.7	
414.11	6955.6	
414.31	4646.2	
414.52	5087.2	
414.72	6602.7	
414.92	6485.2	
415.12	4650.9	
415.33	5199.1	
415.53	6873	
415.73	7126.9	
415.94	5583.4	
416.14	5002.5	
416.34	5820.3	
416.55	5606	
416.75	6166.4	
416.95	5632.6	
417.15	6787.7	
417.36	7654.6	
417.56	6365.1	
417.76	5401.2	
417.97	7205.4	
418.17	6862.1	
418.37	4957.4	
418.57	5005.2	
418.78	6629.3	
418.98	6326.9	
419.18	5984.8	
419.38	5894.7	
419.59	6420.4	
419.79	5976.7	
419.99	4913.8	
420.2	5364.3	
420.4	6916	
420.6	7172	
420.8	4840.7	
421.01	4642.1	
421.21	6776	
421.41	6963.8	
421.61	5270.8	
421.82	4960.2	
422.02	6186.9	
422.22	7207.5	
422.42	5837.4	
422.63	5472.9	
422.83	6358.9	
423.03	7596.6	
423.23	5451	
423.44	4364.9	
423.64	6498.2	
423.84	6249.7	
424.04	4925.4	
424.25	4549.2	
424.45	7356.3	
424.65	7387.7	
424.85	4376.5	
425.06	4988.2	
425.26	7294.9	
425.46	5857.2	
425.66	5444.9	
425.87	5152	
426.07	7176.8	
426.27	6997.2	
426.47	5276.9	
426.67	4674.1	
426.88	7507.9	
427.08	6911.9	
427.28	5496.7	
427.48	4586.8	
427.69	5830.6	
427.89	6437.4	
428.09	5515.9	
428.29	4638.6	
428.5	7265.5	
428.7	6685.3	
428.9	4429.8	
429.1	5160.9	
429.3	6634.7	
429.51	7087.3	
429.71	4857.8	
429.91	5642.8	
430.11	6860.7	
430.31	7148.8	
430.52	5163.6	
430.72	5521.3	
430.92	7559.7	
431.12	6931	
431.32	4773.8	
431.53	5347.9	
431.73	5808	
431.93	7625.3	
432.13	4726.7	
432.33	4580.6	
432.54	6359.6	
432.74	6689.3	
432.94	4476.9	
433.14	5621	
433.34	6895.5	
433.55	6323.4	
433.75	5603.2	
433.95	7387	
434.15	6644.3	
434.35	6362.4	
434.56	4772.4	
434.76	4177.9	
434.96	6574.7	
435.16	6883.2	
435.36	4573.1	
435.56	5793.7	
435.77	6225.8	
435.97	6395.1	
436.17	6462.7	
436.37	5732.3	
436.57	6269.5	
436.78	6107.7	
436.98	5692.7	
437.18	6302.3	
437.38	6918.7	
437.58	6471.6	
437.78	6476.4	
437.99	5033.9	
438.19	7036.1	
438.39	7830.1	
438.59	4941.1	
438.79	4459.8	
438.99	7655.3	
439.2	6380.1	
439.4	4588.8	
439.6	4491.9	
439.8	6774	
440	7814.4	
440.2	5659.9	
440.4	5683.8	
440.61	7161.7	
440.81	7730.4	
441.01	4756.1	
441.21	5690.6	
441.41	7562.5	
441.61	7128.3	
441.81	6038.8	
442.02	7088.7	
442.22	8125	
442.42	7245.7	
442.62	4809.3	
442.82	4857.1	
443.02	7560.4	
443.22	6599.9	
443.43	5319.9	
443.63	4853.7	
443.83	6352.1	
444.03	6377.4	
444.23	6152.8	
444.43	5770.5	
444.63	6692.1	
444.83	8037.6	
445.04	4942.4	
445.24	6286.6	
445.44	7277.1	
445.64	7268.2	
445.84	5847.6	
446.04	5868.1	
446.24	6621.1	
446.44	7684	
446.65	5009.3	
446.85	5389.6	
447.05	6642.9	
447.25	7565.9	
447.45	5455.8	
447.65	4810.7	
447.85	6828.6	
448.05	6571.9	
448.25	5952.8	
448.46	5641.5	
448.66	6869.6	
448.86	6522.8	
449.06	4623.6	
449.26	5914.5	
449.46	7251.9	
449.66	6249	
449.86	5468.8	
450.06	5463.3	
450.26	6466.8	
450.47	7088.7	
450.67	5737.7	
450.87	6070.9	
451.07	7131.7	
451.27	6954.9	
451.47	4994.3	
451.67	5487.9	
451.87	6550.1	
452.07	7877.2	
452.27	5183.4	
452.47	5169.8	
452.67	6918.7	
452.88	7430	
453.08	4508.3	
453.28	6691.4	
453.48	8105.9	
453.68	6820.4	
453.88	5022.3	
454.08	5358.9	
454.28	7261.4	
454.48	6849.8	
454.68	5868.1	
454.88	6501.6	
455.08	7406.8	
455.28	7085.3	
455.48	4913.8	
455.68	5560.2	
455.89	7848.5	
456.09	7527.7	
456.29	5336.3	
456.49	5297.4	
456.69	7714.7	
456.89	6943.3	
457.09	5829.9	
457.29	6217	
457.49	7232.7	
457.69	7358.4	
457.89	5655.1	
458.09	5079	
458.29	6945.3	
458.49	7843.7	
458.69	6141.9	
458.89	5414.8	
459.09	7976.2	
459.29	8206.9	
459.49	5606.7	
459.69	6432	
459.9	7604.8	
460.1	7036.1	
460.3	5541.8	
460.5	5308.3	
460.7	7507.9	
460.9	7161.7	
461.1	4896.7	
461.3	6302.3	
461.5	8169.3	
461.7	7779.6	
461.9	5285.8	
462.1	5809.4	
462.3	7156.3	
462.5	7817.8	
462.7	5412.1	
462.9	5494.7	
463.1	8898.4	
463.3	8486.1	
463.5	5719.3	
463.7	6707.1	
463.9	7336.5	
464.1	7837.6	
464.3	5787.6	
464.5	6142.5	
464.7	8096.3	
464.9	7744.7	
465.1	7505.1	
465.3	6419.7	
465.5	8521.6	
465.7	8327	
465.9	6695.5	
466.1	6515.3	
466.3	8214.4	
466.5	7991.9	
466.7	7536.5	
466.9	6248.4	
467.1	7947.5	
467.3	8878.6	
467.5	7378.1	
467.7	6195.1	
467.9	9171.5	
468.1	10129	
468.3	7114.6	
468.5	7516.7	
468.7	7946.1	
468.9	7875.8	
469.1	6449.1	
469.3	7272.3	
469.5	9942.2	
469.7	7434.1	
469.9	6977.4	
470.1	6243.6	
470.3	7890.8	
470.5	7998.7	
470.7	7658.7	
470.9	6336.4	
471.1	7806.2	
471.3	8226.7	
471.5	6163	
471.69	8271.7	
471.89	7583.6	
472.09	7156.3	
472.29	7094.2	
472.49	7449.1	
472.69	7478.5	
472.89	8230.1	
473.09	6119.3	
473.29	6311.2	
473.49	7532.4	
473.69	7746.8	
473.89	7232.1	
474.09	6385.6	
474.29	9088.9	
474.49	8770.8	
474.69	7251.9	
474.89	6556.9	
475.09	7804.8	
475.29	7703.1	
475.49	6034	
475.69	6227.9	
475.88	9463.7	
476.08	8099	
476.28	5881.1	
476.48	6393.8	
476.68	8527.1	
476.88	8428.8	
477.08	6249	
477.28	6565.1	
477.48	7886.7	
477.68	8625.4	
477.88	6092	
478.08	6401.3	
478.28	8888.9	
478.48	7999.4	
478.67	6442.2	
478.87	5860.6	
479.07	8804.2	
479.27	8178.9	
479.47	6722.8	
479.67	6704.4	
479.87	8456.7	
480.07	9199.5	
480.27	5840.8	
480.47	7641	
480.67	8196.7	
480.87	8858.1	
481.06	6232.7	
481.26	7056.6	
481.46	8149.6	
481.66	8101.1	
481.86	6635.4	
482.06	7794.6	
482.26	7821.2	
482.46	8665	
482.66	6675	
482.86	6239.5	
483.05	8148.9	
483.25	7604.1	
483.45	9228.1	
483.65	6672.3	
483.85	7794.6	
484.05	8043.7	
484.25	7179.5	
484.45	7600.7	
484.65	9062.3	
484.84	8937.3	
485.04	6556.9	
485.24	6588.3	
485.44	9242.5	
485.64	7454.6	
485.84	5865.4	
486.04	7403.4	
486.24	7931.1	
486.44	8353	
486.63	5770.5	
486.83	6647.7	
487.03	7774.1	
487.23	8006.2	
487.43	5928.9	
487.63	8419.2	
487.83	8050.6	
488.02	9111.4	
488.22	6978.8	
488.42	7634.1	
488.62	9046.6	
488.82	7841	
489.02	6675.7	
489.22	6667.5	
489.41	8860.2	
489.61	8489.5	
489.81	6266.8	
490.01	6357.6	
490.21	8802.2	
490.41	9525.8	
490.61	6324.8	
490.8	6540.5	
491	8269.7	
491.2	7525.6	
491.4	7167.9	
491.6	6221.7	
491.8	8277.9	
491.99	8449.9	
492.19	5967.1	
492.39	6487.3	
492.59	8856.8	
492.79	8936.7	
492.99	7325.6	
493.18	6390.3	
493.38	8882.7	
493.58	9712.8	
493.78	7124.2	
493.98	6714.6	
494.18	8644.5	
494.37	8094.3	
494.57	7303.7	
494.77	7242.3	
494.97	8855.4	
495.17	9134.6	
495.37	6752.2	
495.56	7208.8	
495.76	9443.2	
495.96	8926.4	
496.16	8023.3	
496.36	6951.5	
496.55	9201.5	
496.75	8666.3	
496.95	7438.9	
497.15	7181.5	
497.35	9189.9	
497.54	9164	
497.74	6955.6	
497.94	8886.1	
498.14	9796.1	
498.34	9708.1	
498.53	6766.5	
498.73	7603.4	
498.93	8561.9	
499.13	9120.3	
499.33	7313.3	
499.52	7959.8	
499.72	9097.8	
499.92	9508	
500.12	7083.2	
500.32	7313.3	
500.51	9437	
500.71	9184.5	
500.91	8181.6	
501.11	7748.8	
501.31	9309.4	
501.5	9799.5	
501.7	8454.7	
501.9	7464.2	
502.1	9090.9	
502.29	9440.5	
502.49	7859.4	
502.69	8407.6	
502.89	9450.7	
503.09	9364	
503.28	6882.5	
503.48	6969.9	
503.68	8526.4	
503.88	8572.8	
504.07	8029.4	
504.27	7496.9	
504.47	8916.2	
504.67	9202.9	
504.86	7968	
505.06	7671.7	
505.26	8751.7	
505.46	10710	
505.65	7513.3	
505.85	7806.9	
506.05	8602.8	
506.25	9067	
506.44	6824.5	
506.64	7804.8	
506.84	8424	
507.04	9553.1	
507.23	7040.2	
507.43	7689.4	
507.63	10668	
507.83	8859.5	
508.02	7676.5	
508.22	7239.6	
508.42	10925	
508.62	8577.6	
508.81	7906.5	
509.01	8211	
509.21	8459.5	
509.4	8701.8	
509.6	7719.5	
509.8	7124.9	
510	8746.2	
510.19	10245	
510.39	7062.1	
510.59	7144	
510.79	8506.6	
510.98	10025	
511.18	7229.3	
511.38	7386.3	
511.57	9360.6	
511.77	9329.9	
511.97	8028.7	
512.17	7000.6	
512.36	9336	
512.56	9359.9	
512.76	7089.4	
512.95	6888.7	
513.15	9492.3	
513.35	8081.3	
513.55	8023.3	
513.74	7017.7	
513.94	9442.5	
514.14	8800.8	
514.33	8099	
514.53	7824.6	
514.73	8759.2	
514.92	9037.7	
515.12	7319.4	
515.32	7124.2	
515.51	9065	
515.71	9645.9	
515.91	8912.1	
516.11	7222.5	
516.3	10847	
516.5	8665	
516.7	7770	
516.89	8496.3	
517.09	8784.4	
517.29	8665.6	
517.48	8167.3	
517.68	7434.8	
517.88	8537.3	
518.07	9232.2	
518.27	8060.1	
518.47	6985.6	
518.66	9729.2	
518.86	8287.4	
519.06	6817.7	
519.25	7299	
519.45	8659.5	
519.65	10242	
519.84	7993.9	
520.04	8712.7	
520.24	10742	
520.43	9369.5	
520.63	7634.8	
520.83	7444.4	
521.02	8577.6	
521.22	9230.2	
521.42	8010.3	
521.61	8649.9	
521.81	8785.1	
522.01	8957.8	
522.2	7731.8	
522.4	7607.5	
522.6	9514.9	
522.79	8271.7	
522.99	7619.8	
523.18	7000.6	
523.38	9198.1	
523.58	9284.1	
523.77	9061.6	
523.97	7040.2	
524.17	11313	
524.36	10269	
524.56	8518.2	
524.76	8047.8	
524.95	9259.5	
525.15	8900.5	
525.34	7821.2	
525.54	7865.6	
525.74	9663.7	
525.93	8624	
526.13	9174.9	
526.33	7773.4	
526.52	10030	
526.72	9471.2	
526.91	9188.6	
527.11	8315.4	
527.31	10017	
527.5	10550	
527.7	8258.8	
527.89	7164.5	
528.09	8936.7	
528.29	9596.1	
528.48	8675.9	
528.68	8312.7	
528.87	9938.1	
529.07	10031	
529.27	8074.5	
529.46	7776.8	
529.66	9533.3	
529.85	10068	
530.05	7581.6	
530.25	8389.2	
530.44	11099	
530.64	9529.9	
530.83	7939.3	
531.03	8235.6	
531.23	9938.8	
531.42	9780.4	
531.62	9078.6	
531.81	8157.1	
532.01	10086	
532.21	10590	
532.4	7901.7	
532.6	8307.2	
532.79	11157	
532.99	10166	
533.18	8441	
533.38	9416.6	
533.58	9699.2	
533.77	10502	
533.97	8325	
534.16	9187.2	
534.36	10852	
534.55	9810.5	
534.75	9339.4	
534.95	8439	
535.14	10710	
535.34	9919.7	
535.53	8082.7	
535.73	10151	
535.92	11161	
536.12	10038	
536.31	8188.5	
536.51	9484.1	
536.71	10243	
536.9	9816.6	
537.1	8363.2	
537.29	8467.7	
537.49	10658	
537.68	9638.4	
537.88	8804.2	
538.07	8041.7	
538.27	9954.5	
538.46	11061	
538.66	7998.7	
538.86	8514.1	
539.05	10028	
539.25	10656	
539.44	8763.9	
539.64	8292.2	
539.83	9809.8	
540.03	10985	
540.22	8134.5	
540.42	8357.8	
540.61	10225	
540.81	10246	
541	8890.9	
541.2	9412.5	
541.39	9654.1	
541.59	9998.2	
541.78	9172.9	
541.98	8302.5	
542.18	9346.9	
542.37	9291.6	
542.57	8692.9	
542.76	9196.7	
542.96	9398.1	
543.15	10312	
543.35	8614.4	
543.54	7980.3	
543.74	10473	
543.93	9966.1	
544.13	8531.8	
544.32	9766.1	
544.52	10256	
544.71	9426.1	
544.91	7593.9	
545.1	9030.9	
545.3	9521	
545.49	10373	
545.69	7690.8	
545.88	8198	
546.08	11130	
546.27	10836	
546.47	8858.8	
546.66	7955.7	
546.86	10540	
547.05	11132	
547.24	8241	
547.44	8250.6	
547.63	9293	
547.83	10576	
548.02	8540.7	
548.22	8785.1	
548.41	9198.8	
548.61	10525	
548.8	8004.1	
549	8000	
549.19	9880.8	
549.39	10180	
549.58	7781.6	
549.78	8341.4	
549.97	10316	
550.17	9768.8	
550.36	9246.6	
550.55	10377	
550.75	9716.2	
550.94	10671	
551.14	7937.9	
551.33	8299.7	
551.53	9080.7	
551.72	10158	
551.92	8431.5	
552.11	8181	
552.31	10155	
552.5	10174	
552.69	9952.4	
552.89	7695.6	
553.08	10200	
553.28	9796.8	
553.47	8133.8	
553.67	9359.9	
553.86	10810	
554.06	9026.1	
554.25	7248.4	
554.44	8007.6	
554.64	11561	
554.83	11068	
555.03	7826	
555.22	8280.6	
555.42	10294	
555.61	9970.2	
555.8	8125.7	
556	8402.1	
556.19	9077.3	
556.39	10524	
556.58	8129.8	
556.78	8105.9	
556.97	9906.7	
557.16	9538.8	
557.36	9432.3	
557.55	7747.5	
557.75	8832.2	
557.94	10682	
558.13	7953.6	
558.33	7634.1	
558.52	10393	
558.72	9200.2	
558.91	7737.9	
559.1	8073.8	
559.3	8972.8	
559.49	8644.5	
559.69	7307.2	
559.88	8316.1	
560.07	9739.5	
560.27	10268	
560.46	8553.7	
560.66	8707.3	
560.85	9579.7	
561.04	8785.8	
561.24	7666.2	
561.43	7912	
561.63	9106.6	
561.82	9233.6	
562.01	9166	
562.21	8248.5	
562.4	9759.3	
562.59	10871	
562.79	8129.8	
562.98	7789.1	
563.18	9708.7	
563.37	11277	
563.56	8663.6	
563.76	7675.8	
563.95	9217.2	
564.14	9123.7	
564.34	8083.3	
564.53	7894.2	
564.73	9785.9	
564.92	10065	
565.11	8270.4	
565.31	7667.6	
565.5	10405	
565.69	9297.1	
565.89	7841.7	
566.08	8068.3	
566.27	10314	
566.47	10639	
566.66	8825.4	
566.85	7470.3	
567.05	9773.6	
567.24	9156.5	
567.44	7789.8	
567.63	9222.7	
567.82	10060	
568.02	9842.5	
568.21	7795.3	
568.4	8175.5	
568.6	9528.5	
568.79	9639.8	
568.98	7611.6	
569.18	7761.8	
569.37	9604.3	
569.56	11767	
569.76	8268.3	
569.95	9236.3	
570.14	10109	
570.34	9943.6	
570.53	7744.7	
570.72	7782.3	
570.91	10581	
571.11	9628.2	
571.3	8211.7	
571.49	9230.2	
571.69	9612.5	
571.88	9215.9	
572.07	8794	
572.27	8817.2	
572.46	9221.3	
572.65	10333	
572.85	8049.9	
573.04	8408.3	
573.23	10509	
573.43	9742.2	
573.62	7648.5	
573.81	8340	
574	9874.6	
574.2	9671.9	
574.39	8063.5	
574.58	8300.4	
574.78	10893	
574.97	9907.4	
575.16	8746.9	
575.36	8903.2	
575.55	10337	
575.74	10598	
575.93	7744.1	
576.13	9071.1	
576.32	9731.3	
576.51	10357	
576.71	8290.2	
576.9	9655.5	
577.09	10638	
577.28	10176	
577.48	8829.5	
577.67	7748.1	
577.86	9772.2	
578.05	10173	
578.25	8396	
578.44	8463.6	
578.63	9971.6	
578.83	11289	
579.02	7791.8	
579.21	9448	
579.4	10228	
579.6	9865.7	
579.79	8648.6	
579.98	10968	
580.17	10448	
580.37	10690	
580.56	8016.4	
580.75	8863.6	
580.94	11157	
581.14	10942	
581.33	9372.2	
581.52	8137.3	
581.71	10475	
581.91	11079	
582.1	7813.7	
582.29	8456.7	
582.48	10168	
582.68	9973.6	
582.87	9032.2	
583.06	8641.1	
583.25	10336	
583.45	9652.1	
583.64	9351.7	
583.83	10019	
584.02	9820.7	
584.21	10281	
584.41	9291	
584.6	8501.8	
584.79	10000	
584.98	10851	
585.18	8070.4	
585.37	8015.1	
585.56	9594.1	
585.75	10395	
585.94	8218.5	
586.14	9057.5	
586.33	10974	
586.52	9938.1	
586.71	8756.4	
586.91	8447.9	
587.1	9311.4	
587.29	10432	
587.48	8340	
587.67	8291.5	
587.87	10356	
588.06	10419	
588.25	9746.3	
588.44	8908	
588.63	9962	
588.83	10651	
589.02	8274.5	
589.21	8235.6	
589.4	9738.8	
589.59	9605.7	
589.78	7376.1	
589.98	7761.8	
590.17	9187.9	
590.36	9796.8	
590.55	7017.7	
590.74	7927	
590.94	11211	
591.13	9566.1	
591.32	7689.4	
591.51	7147.4	
591.7	10193	
591.89	9519	
592.09	7384.3	
592.28	7845.8	
592.47	8724.3	
592.66	10727	
592.85	7364.5	
593.05	7583.6	
593.24	9336.7	
593.43	10170	
593.62	7630.7	
593.81	8159.8	
594	9383.1	
594.19	9661	
594.39	7432.8	
594.58	7516	
594.77	9777	
594.96	10445	
595.15	7413	
595.34	8176.9	
595.54	9735.4	
595.73	8802.9	
595.92	6843.6	
596.11	7989.8	
596.3	10370	
596.49	8942.8	
596.68	7729.7	
596.88	8251.9	
597.07	10019	
597.26	8675.9	
597.45	7205.4	
597.64	8546.2	
597.83	8976.9	
598.02	9690.3	
598.22	7337.2	
598.41	8101.1	
598.6	9447.3	
598.79	8907.3	
598.98	7416.4	
599.17	8312.7	
599.36	9430.9	
599.55	10758	
599.74	9585.2	
599.94	9332.6	
600.13	9966.1	
600.32	8733.2	
600.51	7133.1	
600.7	7207.5	
600.89	10721	
601.08	10647	
601.27	7032.7	
601.47	8055.3	
601.66	9976.3	
601.85	10634	
602.04	7713.3	
602.23	7973.4	
602.42	8916.2	
602.61	9546.3	
602.8	7609.6	
602.99	7406.8	
603.18	9235	
603.37	9574.9	
603.57	8028.7	
603.76	8703.2	
603.95	10321	
604.14	9800.2	
604.33	7473.7	
604.52	7783.6	
604.71	9438.4	
604.9	9078	
605.09	8451.3	
605.28	8268.3	
605.47	10082	
605.66	9811.8	
605.86	8041.7	
606.05	7490.1	
606.24	10101	
606.43	8593.3	
606.62	7822.6	
606.81	8607.6	
607	9933.3	
607.19	9222.7	
607.38	7229.3	
607.57	7436.9	
607.76	8961.2	
607.95	8406.2	
608.14	7834.8	
608.33	8505.2	
608.52	8951	
608.72	9922.4	
608.91	7163.1	
609.1	6975.4	
609.29	9126.4	
609.48	8503.8	
609.67	8103.8	
609.86	7096.9	
610.05	8613.1	
610.24	9112.8	
610.43	6931	
610.62	6509.1	
610.81	10225	
611	9966.1	
611.19	7023.2	
611.38	7726.3	
611.57	9337.4	
611.76	10677	
611.95	6823.1	
612.14	6662.7	
612.33	9123.7	
612.52	8585.8	
612.71	7475.1	
612.9	6642.9	
613.09	8189.8	
613.28	10798	
613.47	7266.2	
613.66	8255.4	
613.85	9287.5	
614.04	8663.6	
614.24	7216.4	
614.43	6463.4	
614.62	9461.6	
614.81	9274.6	
615	7844.4	
615.19	7858.1	
615.38	8557.1	
615.57	8976.9	
615.76	7703.8	
615.95	8684.1	
616.14	9351.7	
616.33	9050	
616.52	8015.7	
616.71	8272.4	
616.9	9359.2	
617.09	9196.1	
617.28	7262.1	
617.47	8856.8	
617.66	8497	
617.85	8436.9	
618.04	8370.7	
618.22	7811	
618.41	8792.6	
618.6	9773.6	
618.79	7610.9	
618.98	7348.8	
619.17	10051	
619.36	8330.5	
619.55	7488.1	
619.74	7618.4	
619.93	9351	
620.12	8870.4	
620.31	8114.7	
620.5	8348.2	
620.69	10017	
620.88	10393	
621.07	9089.6	
621.26	8097.7	
621.45	9661	
621.64	9620.7	
621.83	8199.4	
622.02	7333.1	
622.21	9568.8	
622.4	9335.3	
622.59	8701.8	
622.78	8442.4	
622.97	8956.4	
623.16	10027	
623.35	8169.3	
623.54	7233.4	
623.72	9138	
623.91	9520.3	
624.1	8432.2	
624.29	7060.7	
624.48	10538	
624.67	9683.5	
624.86	8243.1	
625.05	7307.2	
625.24	10597	
625.43	8848.6	
625.62	10176	
625.81	7563.8	
626	9912.9	
626.19	9215.2	
626.38	8381	
626.56	7723.6	
626.75	9169.4	
626.94	9862.3	
627.13	8404.9	
627.32	7010.2	
627.51	9779.7	
627.7	11236	
627.89	7203.4	
628.08	8374.8	
628.27	8873.2	
628.46	9116.2	
628.65	7357	
628.83	7176.8	
629.02	9766.8	
629.21	8963.3	
629.4	7822.6	
629.59	8085.4	
629.78	8869.8	
629.97	10045	
630.16	8233.5	
630.35	7541.3	
630.54	10282	
630.72	10033	
630.91	7582.9	
631.1	8165.9	
631.29	9528.5	
631.48	9637.1	
631.67	8175.5	
631.86	7714.7	
632.05	9013.8	
632.24	9144.2	
632.42	7247.1	
632.61	7952.9	
632.8	9275.9	
632.99	8850.6	
633.18	7943.4	
633.37	8385.1	
633.56	9605	
633.75	9270.5	
633.93	7940.7	
634.12	7581.6	
634.31	10358	
634.5	9818	
634.69	7673.1	
634.88	8217.1	
635.07	9157.8	
635.25	9773.6	
635.44	8643.8	
635.63	8940.7	
635.82	9019.9	
636.01	8488.1	
636.2	8548.2	
636.39	8035.5	
636.57	10297	
636.76	9924.5	
636.95	7431.4	
637.14	8996	
637.33	9500.5	
637.52	10627	
637.7	7303.7	
637.89	8217.1	
638.08	9030.2	
638.27	10632	
638.46	8355	
638.65	8809.7	
638.83	10654	
639.02	8911.4	
639.21	8174.1	
639.4	8716.8	
639.59	9475.3	
639.78	8961.9	
639.96	7343.3	
640.15	7407.5	
640.34	9254.1	
640.53	9509.4	
640.72	7073	
640.91	7503.8	
641.09	8617.2	
641.28	10104	
641.47	7479.9	
641.66	8383	
641.85	9377	
642.03	9606.3	
642.22	8135.9	
642.41	7602.7	
642.6	8723	
642.79	8122.9	
642.97	7359	
643.16	8115.4	
643.35	8692.3	
643.54	8532.5	
643.73	7223.2	
643.91	8117.5	
644.1	8346.8	
644.29	9013.1	
644.48	7300.3	
644.67	7364.5	
644.85	8537.3	
645.04	8927.1	
645.23	6821.8	
645.42	7141.9	
645.6	8346.2	
645.79	9670.5	
645.98	7169.3	
646.17	6126.2	
646.36	8060.1	
646.54	8723	
646.73	8010.3	
646.92	6685.3	
647.11	8359.8	
647.29	9340.8	
647.48	6792.4	
647.67	6563.7	
647.86	9738.8	
648.05	9791.3	
648.23	7157.7	
648.42	8479.3	
648.61	9057.5	
648.8	8727.1	
648.98	6761.7	
649.17	7116	
649.36	8184.4	
649.55	7762.5	
649.73	6772.6	
649.92	7601.4	
650.11	8224.6	
650.3	8527.1	
650.48	6858.6	
650.67	6711.2	
650.86	8886.8	
651.05	7670.3	
651.23	6854.6	
651.42	6789.7	
651.61	8249.9	
651.79	8381	
651.98	7110.5	
652.17	6618.4	
652.36	8657.4	
652.54	7747.5	
652.73	6708.5	
652.92	6456.6	
653.11	8682	
653.29	8859.5	
653.48	5920	
653.67	6973.3	
653.85	8496.3	
654.04	9611.8	
654.23	7296.2	
654.42	6668.9	
654.6	7916.8	
654.79	8665.6	
654.98	6133.7	
655.16	6689.3	
655.35	7461.4	
655.54	7407.5	
655.73	6142.5	
655.91	6051.1	
656.1	8632.2	
656.29	7326.3	
656.47	5681.1	
656.66	7561.8	
656.85	7697.6	
657.03	7673.7	
657.22	6257.9	
657.41	6335.7	
657.59	7881.9	
657.78	7630	
657.97	5966.4	
658.16	6773.3	
658.34	8534.6	
658.53	8963.3	
658.72	7751.6	
658.9	8242.4	
659.09	7859.4	
659.28	8103.1	
659.46	6518.7	
659.65	6358.3	
659.84	7699.7	
660.02	8190.5	
660.21	6232.7	
660.4	6264.7	
660.58	8653.4	
660.77	8097	
660.96	6914.6	
661.14	5935	
661.33	9221.3	
661.52	9116.9	
661.7	5751.4	
661.89	9805	
662.08	7639.6	
662.26	7241.6	
662.45	6124.1	
662.64	6281.1	
662.82	8384.4	
663.01	7503.8	
663.2	6278.4	
663.38	7053.2	
663.57	8375.5	
663.75	8189.8	
663.94	6674.3	
664.13	8024.6	
664.31	7606.8	
664.5	8375.5	
664.69	6781.5	
664.87	7553.6	
665.06	7339.9	
665.25	8198	
665.43	7722.2	
665.62	7755	
665.8	8512.7	
665.99	7714.7	
666.18	6609.5	
666.36	6738.5	
666.55	8545.5	
666.74	8326.4	
666.92	6281.8	
667.11	7933.8	
667.29	7722.2	
667.48	8370.7	
667.67	7387.7	
667.85	6485.2	
668.04	7817.8	
668.22	7869	
668.41	6695.5	
668.6	6823.1	
668.78	7512.6	
668.97	7886.7	
669.15	7038.9	
669.34	6022.4	
669.53	7664.2	
669.71	7970.7	
669.9	6111.1	
670.08	6909.8	
670.27	7562.5	
670.46	8206.9	
670.64	7087.3	
670.83	7280.5	
671.01	7473	
671.2	8137.3	
671.38	6206	
671.57	6144.6	
671.76	8761.2	
671.94	9422	
672.13	6010.8	
672.31	7215.7	
672.5	8338.6	
672.69	7591.8	
672.87	6210.8	
673.06	6593.1	
673.24	8133.2	
673.43	7599.3	
673.61	6924.9	
673.8	6550.1	
673.98	8359.8	
674.17	8555	
674.36	7159.7	
674.54	7133.1	
674.73	8088.1	
674.91	8327.7	
675.1	6728.9	
675.28	6342.6	
675.47	7839.6	
675.65	8408.3	
675.84	6520.7	
676.03	6911.9	
676.21	7497.6	
676.4	7040.9	
676.58	7408.9	
676.77	7056.6	
676.95	9118.9	
677.14	7573.4	
677.32	6241.5	
677.51	5944.6	
677.69	8346.8	
677.88	7223.9	
678.06	5957.5	
678.25	6136.4	
678.44	7915.4	
678.62	7619.1	
678.81	5892.7	
678.99	6936.5	
679.18	8676.6	
679.36	8290.9	
679.55	6496.8	
679.73	7152.2	
679.92	8168.7	
680.1	7645.1	
680.29	7738.6	
680.47	6504.3	
680.66	7552.2	
680.84	8411.7	
681.03	5763.7	
681.21	6836.8	
681.4	7425.3	
681.58	7413	
681.77	6222.4	
681.95	6094.8	
682.14	8456.1	
682.32	8905.9	
682.51	7090.1	
682.69	5877.7	
682.88	7476.5	
683.06	8146.8	
683.25	6862.7	
683.43	7337.9	
683.62	7795.3	
683.8	8219.2	
683.99	7449.1	
684.17	6712.6	
684.36	9173.5	
684.54	7767.3	
684.73	5793.7	
684.91	6068.1	
685.1	8081.3	
685.28	7405.5	
685.46	6625.2	
685.65	6691.4	
685.83	8145.5	
686.02	7505.1	
686.2	6008.7	
686.39	6176	
686.57	7194.5	
686.76	9071.1	
686.94	6038.8	
687.13	6238.1	
687.31	8085.4	
687.5	7598	
687.68	5646.2	
687.86	7064.8	
688.05	9471.2	
688.23	7112.6	
688.42	7109.9	
688.6	6176	
688.79	7478.5	
688.97	7470.3	
689.16	6623.8	
689.34	5492	
689.52	8398	
689.71	8576.9	
689.89	6877.1	
690.08	6189	
690.26	7839.6	
690.45	7672.4	
690.63	7098.3	
690.81	6345.3	
691	7502.4	
691.18	7430	
691.37	6414.2	
691.55	8826.1	
691.74	7346.1	
691.92	9575.6	
692.1	6458.6	
692.29	5848.3	
692.47	7662.8	
692.66	6782.9	
692.84	6020.3	
693.02	6631.3	
693.21	7064.8	
693.39	7505.8	
693.58	6746.7	
693.76	6120.7	
693.94	8850	
694.13	8531.8	
694.31	6101.6	
694.5	7279.2	
694.68	7390.4	
694.86	7703.8	
695.05	6556.2	
695.23	6971.3	
695.42	8183	
695.6	10584	
695.78	7157	
695.97	6154.1	
696.15	8137.9	
696.34	7522.9	
696.52	5926.8	
696.7	6855.9	
696.89	7980.3	
697.07	7292.8	
697.25	6767.9	
697.44	8358.4	
697.62	7828	
697.81	8244.4	
697.99	6402.6	
698.17	6885.3	
698.36	7174	
698.54	7972.1	
698.72	6823.1	
698.91	5702.9	
699.09	7462.1	
699.28	7307.2	
699.46	6334.4	
699.64	6353.5	
699.83	7212.9	
700.01	8604.2	
700.19	7055.3	
700.38	5396.4	
700.56	8580.3	
700.74	7333.1	
700.93	5859.9	
701.11	6778.8	
701.29	7896.3	
701.48	9018.6	
701.66	6057.2	
701.84	6138.4	
702.03	7420.5	
702.21	8098.4	
702.39	5724.1	
702.58	6283.2	
702.76	7834.8	
702.94	8036.9	
703.13	5690.6	
703.31	8355.7	
703.49	7028.6	
703.68	8145.5	
703.86	5825.1	
704.04	6940.6	
704.23	7671	
704.41	8082	
704.59	5976.7	
704.78	7357	
704.96	8740.7	
705.14	8145.5	
705.33	5752.1	
705.51	6627.9	
705.69	7427.3	
705.87	8406.2	
706.06	6981.5	
706.24	5686.5	
706.42	7805.5	
706.61	7991.9	
706.79	7007.5	
706.97	5734.3	
707.16	7177.4	
707.34	7844.4	
707.52	6949.4	
707.7	5984.2	
707.89	7350.8	
708.07	6929	
708.25	6963.1	
708.44	7116.7	
708.62	7234.1	
708.8	8505.2	
708.98	7187	
709.17	6013.5	
709.35	7718.1	
709.53	7643	
709.72	5718.6	
709.9	6125.5	
710.08	7956.4	
710.26	8023.9	
710.45	7477.1	
710.63	6070.2	
710.81	7512.6	
710.99	7588.4	
711.18	6712.6	
711.36	6274.3	
711.54	7407.5	
711.72	8236.9	
711.91	6217.6	
712.09	5660.6	
712.27	7546.8	
712.45	8219.9	
712.64	6569.9	
712.82	5406.6	
713	7038.9	
713.18	7201.3	
713.37	5589.6	
713.55	6973.3	
713.73	8103.8	
713.91	6555.5	
714.1	6020.3	
714.28	5401.9	
714.46	7686.7	
714.64	6933.1	
714.83	4840.7	
715.01	5742.5	
715.19	6893.5	
715.37	6311.2	
715.55	5418.9	
715.74	5730.9	
715.92	7934.5	
716.1	5826.5	
716.28	6924.2	
716.47	5915.2	
716.65	6507.8	
716.83	6642.2	
717.01	5683.8	
717.19	5748	
717.38	8820.6	
717.56	6249.7	
717.74	6013.5	
717.92	5050.3	
718.1	7518.1	
718.29	6716.7	
718.47	4719.9	
718.65	5337.7	
718.83	7523.6	
719.01	7301	
719.2	4535.6	
719.38	5722	
719.56	7124.9	
719.74	8699.8	
719.92	5243.5	
720.11	6399.2	
720.29	7132.4	
720.47	6148	
720.65	4819.6	
720.83	5651.7	
721.02	6580.1	
721.2	6270.2	
721.38	5719.3	
721.56	4984.1	
721.74	5759.6	
721.92	5940.5	
722.11	6343.2	
722.29	5963.7	
722.47	7299.6	
722.65	6427.2	
722.83	4973.2	
723.01	5912.5	
723.2	6484.6	
723.38	6815.6	
723.56	4319.2	
723.74	5670.1	
723.92	5973.9	
724.1	7221.8	
724.29	4962.2	
724.47	6146	
724.65	6031.3	
724.83	5939.8	
725.01	4771.8	
725.19	5713.2	
725.37	6036.7	
725.56	6124.1	
725.74	4623.6	
725.92	4895.3	
726.1	5920	
726.28	6225.1	
726.46	5329.5	
726.64	5031.2	
726.83	6163.7	
727.01	6521.4	
727.19	4558.1	
727.37	5450.3	
727.55	6352.8	
727.73	6967.2	
727.91	4524	
728.09	4375.1	
728.28	6897.6	
728.46	7628.7	
728.64	5616.9	
728.82	5453.1	
729	8004.1	
729.18	7257.3	
729.36	4644.8	
729.54	7131.7	
729.72	8367.3	
729.91	6514.6	
730.09	6744.6	
730.27	5296	
730.45	6328.2	
730.63	7100.3	
730.81	6060.6	
730.99	5018.2	
731.17	7578.8	
731.35	6107	
731.53	5674.9	
731.71	5184.1	
731.9	7307.2	
732.08	7516.7	
732.26	5374.6	
732.44	5097.4	
732.62	7662.8	
732.8	7020.4	
732.98	5901.6	
733.16	4796.3	
733.34	6983.6	
733.52	5682.4	
733.7	5429.2	
733.88	5671.5	
734.07	6830	
734.25	6563.1	
734.43	4765.6	
734.61	6507.8	
734.79	8133.8	
734.97	6489.3	
735.15	4934.2	
735.33	5381.4	
735.51	6827.2	
735.69	6429.9	
735.87	6508.4	
736.05	5615.5	
736.23	6594.5	
736.41	6354.8	
736.59	5342.5	
736.77	5415.5	
736.95	7127.6	
737.13	6479.1	
737.32	4924	
737.5	5208.7	
737.68	7693.5	
737.86	6381.5	
738.04	4712.4	
738.22	6763.1	
738.4	6124.8	
738.58	6483.2	
738.76	5466.7	
738.94	4288.4	
739.12	6290.7	
739.3	6124.1	
739.48	6060.6	
739.66	5855.1	
739.84	6550.8	
740.02	6562.4	
740.2	4399.7	
740.38	4836.6	
740.56	6976.1	
740.74	5738.4	
740.92	5504.3	
741.1	5468.8	
741.28	6287.3	
741.46	6222.4	
741.64	5022.3	
741.82	5586.9	
742	6429.3	
742.18	6404.7	
742.36	5184.8	
742.54	4795	
742.72	7050.5	
742.9	5685.2	
743.08	5626.5	
743.26	4405.9	
743.44	7224.6	
743.62	7044.3	
743.8	5859.9	
743.98	4762.9	
744.16	6758.3	
744.34	6363	
744.52	5735	
744.7	5635.3	
744.88	6855.2	
745.06	6389	
745.24	5783.5	
745.42	5910.4	
745.6	6986.3	
745.78	6643.6	
745.96	4470.7	
746.14	4837.3	
746.32	7849.2	
746.5	6945.3	
746.68	5442.1	
746.86	4828.4	
747.03	7429.3	
747.21	5651.7	
747.39	5434.6	
747.57	4872.1	
747.75	6558.3	
747.93	6957.6	
748.11	4853.7	
748.29	4769	
748.47	8295.6	
748.65	6226.5	
748.83	5674.9	
749.01	5324.7	
749.19	6714.6	
749.37	5895.4	
749.55	5191.6	
749.73	5216.2	
749.91	6353.5	
750.09	6162.3	
750.26	5330.9	
750.44	4651.6	
750.62	6513.2	
750.8	6424.5	
750.98	4533.5	
751.16	4910.3	
751.34	6475	
751.52	5844.9	
751.7	5728.9	
751.88	4584	
752.06	7010.2	
752.24	6688.7	
752.42	4433.9	
752.59	4827.1	
752.77	6399.2	
752.95	7737.2	
753.13	5707.7	
753.31	4952	
753.49	6034	
753.67	6531	
753.85	5317.9	
754.03	4904.2	
754.21	6894.8	
754.38	7254.6	
754.56	5099.4	
754.74	4005.1	
754.92	6107.7	
755.1	6857.3	
755.28	4167.6	
755.46	4177.9	
755.64	7649.2	
755.82	7752.9	
755.99	4440	
756.17	4632.5	
756.35	5099.4	
756.53	6798.6	
756.71	3402.4	
756.89	4410.6	
757.07	6367.1	
757.25	5388.2	
757.42	4949.3	
757.6	5956.9	
757.78	6379.4	
757.96	5369.8	
758.14	4626.4	
758.32	4140.3	
758.5	4900.1	
758.67	5726.1	
758.85	4480.3	
759.03	4590.9	
759.21	5924.8	
759.39	5429.8	
759.57	3949.2	
759.75	5275.6	
759.92	6549.4	
760.1	5808.7	
760.28	5619.6	
760.46	5847.6	
760.64	5595.7	
760.82	5373.9	
760.99	5177.9	
761.17	4526.7	
761.35	6452.5	
761.53	5405.3	
761.71	4612.7	
761.89	5388.2	
762.06	6289.3	
762.24	5766.4	
762.42	4809.3	
762.6	4489.8	
762.78	5739.8	
762.96	6565.1	
763.13	5124	
763.31	4801.1	
763.49	6623.1	
763.67	5768.4	
763.85	5748	
764.02	6399.2	
764.2	6928.3	
764.38	6065.4	
764.56	4701.5	
764.74	5591.6	
764.91	7090.8	
765.09	5874.3	
765.27	4222.2	
765.45	4111.6	
765.63	7025.9	
765.8	6971.3	
765.98	3829.7	
766.16	4227	
766.34	5436	
766.52	5207.3	
766.69	5168.4	
766.87	4050.9	
767.05	5788.2	
767.23	6635.4	
767.41	4354	
767.58	4642.1	
767.76	6462.7	
767.94	6539.8	
768.12	4468.7	
768.29	5313.1	
768.47	5961	
768.65	6762.4	
768.83	4086.4	
769	5255.1	
769.18	5507	
769.36	6305.7	
769.54	5291.3	
769.72	4136.2	
769.89	6528.9	
770.07	6675	
770.25	4401.1	
770.43	5891.3	
770.6	7322.2	
770.78	7858.7	
770.96	4704.2	
771.14	5395.7	
771.31	6465.4	
771.49	5734.3	
771.67	3764.8	
771.85	4009.9	
772.02	4954	
772.2	5788.9	
772.38	4827.1	
772.55	4354	
772.73	6002.6	
772.91	5806.7	
773.09	4715.8	
773.26	4792.2	
773.44	5963.7	
773.62	5705	
773.8	4240.7	
773.97	3878.2	
774.15	6109.1	
774.33	5612.1	
774.5	4111.6	
774.68	4449.6	
774.86	6326.9	
775.04	5658.5	
775.21	4142.4	
775.39	4153.3	
775.57	6050.4	
775.74	6509.1	
775.92	3967.6	
776.1	3905.5	
776.27	5980.1	
776.45	7296.9	
776.63	4087.7	
776.81	3588	
776.98	5588.2	
777.16	6772.6	
777.34	4379.9	
777.51	4592.9	
777.69	5590.3	
777.87	5335	
778.04	4309.6	
778.22	5083.7	
778.4	5378	
778.57	6078.4	
778.75	3564.1	
778.93	3885	
779.1	5116.5	
779.28	5029.1	
779.46	3633.8	
779.64	4131.4	
779.81	6236.1	
779.99	7251.2	
780.17	5009.3	
780.34	5173.9	
780.52	5608.7	
780.69	5856.5	
780.87	4498	
781.05	4013.3	
781.22	5699.5	
781.4	5836.7	
781.58	4216.8	
781.75	3293.8	
781.93	5761.6	
782.11	5065.3	
782.28	5170.4	
782.46	4059.8	
782.64	4984.8	
782.81	5918.6	
782.99	4290.5	
783.17	4177.9	
783.34	5803.3	
783.52	5016.8	
783.69	4468.7	
783.87	5350	
784.05	5132.2	
784.22	5138.4	
784.4	5261.9	
784.58	4602.5	
784.75	6121.4	
784.93	5109.7	
785.1	4163.5	
785.28	4884.4	
785.46	5855.1	
785.63	5094	
785.81	4158.7	
785.99	4065.2	
786.16	5307	
786.34	5714.5	
786.51	4030.4	
786.69	4417.5	
786.87	4878.3	
787.04	5463.3	
787.22	3827	
787.39	4916.5	
787.57	5103.5	
787.75	6326.9	
787.92	5092.6	
788.1	5054.4	
788.27	5190.9	
788.45	4941.1	
788.63	4733.5	
788.8	3343	
788.98	5565	
789.15	4794.3	
789.33	3456.3	
789.5	4225	
789.68	6127.5	
789.86	6232	
790.03	4642.1	
790.21	4057.7	
790.38	6118.6	
790.56	5264.6	
790.73	3892.5	
790.91	3938.9	
791.09	5117.9	
791.26	5976	
791.44	4199	
791.61	3606.5	
791.79	5167.7	
791.96	5257.1	
792.14	3756.7	
792.32	3221.5	
792.49	5131.5	
792.67	5216.9	
792.84	3736.9	
793.02	3527.3	
793.19	5634.6	
793.37	6354.2	
793.54	3275.4	
793.72	3627.6	
793.89	6585.6	
794.07	5182.7	
794.25	4201.7	
794.42	3360.7	
794.6	6293.4	
794.77	5940.5	
794.95	4561.5	
795.12	4001	
795.3	5124	
795.47	5842.9	
795.65	4405.2	
795.82	4247.5	
796	4916.5	
796.17	7043	
796.35	4123.9	
796.52	4807.9	
796.7	5701.5	
796.87	5884.5	
797.05	5008.6	
797.22	5013.4	
797.4	5816.9	
797.57	6916	
797.75	4299.4	
797.92	3976.5	
798.1	6149.4	
798.27	5129.5	
798.45	3319.1	
798.62	3677.5	
798.8	5530.2	
798.97	6068.1	
799.15	4508.3	
799.32	4225	
799.5	4718.5	
799.67	5529.5	
799.85	4612.7	
800.02	3349.8	
800.2	5110.4	
800.37	5504.9	
800.55	4801.1	
800.72	3969	
800.9	5928.9	
801.07	6498.9	
801.25	5392.3	
801.42	4358.1	
801.6	5960.3	
801.77	5730.2	
801.95	4099.4	
802.12	3877.5	
802.29	5715.9	
802.47	5711.8	
802.64	4345.1	
802.82	3246	
802.99	5173.9	
803.17	6258.6	
803.34	4275.5	
803.52	3804.4	
803.69	6900.3	
803.87	4840	
804.04	4199	
804.21	4237.9	
804.39	6309.1	
804.56	5356.8	
804.74	3568.2	
804.91	4414.1	
805.09	5119.2	
805.26	5193	
805.44	3642.7	
805.61	4010.6	
805.78	5785.5	
805.96	5864	
806.13	4382	
806.31	4741.7	
806.48	4711.7	
806.66	5238.7	
806.83	4378.6	
807	4214.7	
807.18	5084.4	
807.35	5508.4	
807.53	4246.1	
807.7	3394.2	
807.87	6425.8	
808.05	5266.7	
808.22	4781.3	
808.4	3371	
808.57	5201.8	
808.74	4753.3	
808.92	3843.4	
809.09	5001.8	
809.27	5046.9	
809.44	5707.7	
809.61	3463.8	
809.79	3820.8	
809.96	6391.7	
810.14	6113.9	
810.31	3330	
810.48	4106.9	
810.66	5310.4	
810.83	6077	
811.01	3925.3	
811.18	4368.3	
811.35	6005.3	
811.53	4618.9	
811.7	4781.3	
811.87	4397	
812.05	5220.3	
812.22	5071.5	
812.39	3778.5	
812.57	3637.9	
812.74	5227.8	
812.92	7006.8	
813.09	4147.1	
813.26	4519.9	
813.44	6777.4	
813.61	5096.7	
813.78	3375.7	
813.96	4612	
814.13	5233.2	
814.3	4814.8	
814.48	5024.3	
814.65	4117.1	
814.82	6530.3	
815	4943.8	
815.17	4271.4	
815.34	5167	
815.52	5100.8	
815.69	5154.1	
815.87	4251.6	
816.04	3587.4	
816.21	5229.1	
816.38	4558.1	
816.56	3975.8	
816.73	3789.4	
816.9	6625.9	
817.08	6027.2	
817.25	3815.4	
817.42	4848.9	
817.6	4731.5	
817.77	5289.2	
817.94	4323.3	
818.12	3794.9	
818.29	4891.9	
818.46	7860.8	
818.64	3909.6	
818.81	3694.5	
818.98	4831.8	
819.16	7168.6	
819.33	4577.2	
819.5	4216.1	
819.67	5586.2	
819.85	6253.1	
820.02	4130.1	
820.19	4382	
820.37	5449	
820.54	5019.6	
820.71	4268.6	
820.88	5420.3	
821.06	5460.6	
821.23	4964.3	
821.4	4313.7	
821.58	4287.1	
821.75	6020.3	
821.92	5393	
822.09	3461.1	
822.27	3683.6	
822.44	5274.9	
822.61	5159.5	
822.79	3469.9	
822.96	6756.9	
823.13	5707.7	
823.3	4948.6	
823.48	4006.5	
823.65	3588	
823.82	5974.6	
823.99	4701.5	
824.17	5124	
824.34	3663.8	
824.51	6911.2	
824.68	5287.9	
824.86	3859.1	
825.03	4338.3	
825.2	5190.9	
825.37	6392.4	
825.55	3801	
825.72	4216.8	
825.89	7031.4	
826.06	6542.6	
826.24	4158.1	
826.41	4154	
826.58	6311.2	
826.75	5539.1	
826.92	3222.1	
827.1	3596.2	
827.27	8812.4	
827.44	6912.6	
827.61	3942.3	
827.79	4798.4	
827.96	4919.2	
828.13	5341.8	
828.3	4063.2	
828.47	3435.8	
828.65	5428.5	
828.82	5361.6	
828.99	5367	
829.16	4653.7	
829.34	5814.9	
829.51	5653.1	
829.68	4239.3	
829.85	4359.4	
830.02	6079.7	
830.2	5857.2	
830.37	3231.7	
830.54	5165	
830.71	6782.2	
830.88	5180	
831.05	3309.5	
831.23	3889.8	
831.4	6354.8	
831.57	7243.7	
831.74	3960.1	
831.91	3455.6	
832.09	5483.8	
832.26	5839.4	
832.43	4074.8	
832.6	4586.1	
832.77	5408.7	
832.94	6184.2	
833.12	3234.4	
833.29	4023.6	
833.46	5004.6	
833.63	7473.7	
833.8	4414.7	
833.97	4102.1	
834.15	5817.6	
834.32	5597.1	
834.49	4228.4	
834.66	4405.2	
834.83	6112.5	
835	4890.5	
835.17	3876.1	
835.35	3960.8	
835.52	5758.2	
835.69	5588.9	
835.86	4178.5	
836.03	3407.8	
836.2	5769.8	
836.37	5365.7	
836.55	4098.7	
836.72	3810.6	
836.89	5436.7	
837.06	5931.6	
837.23	4212	
837.4	4579.9	
837.57	6735.1	
837.75	7424.6	
837.92	3760.1	
838.09	3938.2	
838.26	5391.6	
838.43	6128.9	
838.6	4289.1	
838.77	3801	
838.94	7109.2	
839.11	6723.5	
839.29	4080.2	
839.46	3163.4	
839.63	5718.6	
839.8	5494.7	
839.97	3975.1	
840.14	3957.4	
840.31	5601.2	
840.48	5823.1	
840.65	3246.7	
840.82	4045.4	
841	5817.6	
841.17	5741.8	
841.34	3592.8	
841.51	3693.2	
841.68	5732.3	
841.85	5482.4	
842.02	3786.7	
842.19	3082.2	
842.36	5545.9	
842.53	5578	
842.7	3639.2	
842.87	4507.6	
843.05	7415	
843.22	5486.5	
843.39	3431.7	
843.56	3746.4	
843.73	5225.1	
843.9	5914.5	
844.07	5988.3	
844.24	4984.1	
844.41	8749.6	
844.58	5051	
844.75	3505.4	
844.92	3823.6	
845.09	5834.7	
845.26	5829.9	
845.43	3630.4	
845.6	3832.4	
845.77	5855.1	
845.94	5526.8	
846.12	4007.2	
846.29	4346.5	
846.46	6055.8	
846.63	5814.9	
846.8	3601.7	
846.97	4354.7	
847.14	6296.8	
847.31	5749.3	
847.48	4076.1	
847.65	4580.6	
847.82	6147.3	
847.99	6074.3	
848.16	4849.6	
848.33	4424.3	
848.5	5317.2	
848.67	6280.4	
848.84	3577.8	
849.01	3816.7	
849.18	5196.4	
849.35	4885.1	
849.52	4574.5	
849.69	3504.1	
849.86	6046.3	
850.03	6264.1	
850.2	3674.1	
850.37	4474.1	
850.54	6261.3	
850.71	5489.2	
850.88	4389.5	
851.05	3561.4	
851.22	5750.7	
851.39	6468.9	
851.56	3373.7	
851.73	4216.8	
851.9	5109	
852.07	6040.1	
852.24	4046.8	
852.41	3564.8	
852.58	5643.5	
852.75	5152	
852.92	4037.9	
853.09	3486.3	
853.26	5390.3	
853.43	6313.9	
853.6	3592.8	
853.77	3136.1	
853.94	6426.5	
854.11	5795.8	
854.28	5406	
854.44	3946.4	
854.61	6851.1	
854.78	6142.5	
854.95	3551.9	
855.12	4551.3	
855.29	4661.9	
855.46	6674.3	
855.63	3545	
855.8	5016.2	
855.97	5382.7	
856.14	6217.6	
856.31	5171.1	
856.48	3909.6	
856.65	5311.7	
856.82	5002.5	
856.99	3526.6	
857.16	3928	
857.33	7097.6	
857.49	5433.9	
857.66	3868.6	
857.83	4225	
858	5432.6	
858.17	5698.1	
858.34	3407.1	
858.51	3657.7	
858.68	6584.9	
858.85	6554.2	
859.02	4190.8	
859.19	4528.1	
859.36	5012.1	
859.52	5141.1	
859.69	3620.1	
859.86	4300.7	
860.03	5117.9	
860.2	6433.4	
860.37	3258.3	
860.54	3637.9	
860.71	6046.3	
860.88	6552.8	
861.05	4063.9	
861.21	4547.2	
861.38	6571.2	
861.55	5012.7	
861.72	3289	
861.89	4063.9	
862.06	6145.3	
862.23	6690.7	
862.4	3569.6	
862.56	3758.7	
862.73	5933.6	
862.9	5631.2	
863.07	4248.9	
863.24	3247.4	
863.41	4993.6	
863.58	5124.7	
863.75	3678.8	
863.91	4174.4	
864.08	6437.4	
864.25	5943.9	
864.42	4610	
864.59	5121.3	
864.76	6798.6	
864.93	5101.5	
865.09	3530.7	
865.26	3868.6	
865.43	6352.8	
865.6	6737.1	
865.77	3122.5	
865.94	3618.8	
866.1	6373.3	
866.27	6076.3	
866.44	5477	
866.61	3383.2	
866.78	5478.3	
866.95	5979.4	
867.11	3451.5	
867.28	3188.7	
867.45	6182.1	
867.62	5244.8	
867.79	4201.1	
867.96	3524.6	
868.12	5078.3	
868.29	6150.1	
868.46	3094.5	
868.63	4777.2	
868.8	6244.3	
868.97	6048.3	
869.13	3776.5	
869.3	3717.7	
869.47	5927.5	
869.64	6142.5	
869.81	3636.5	
869.97	3663.8	
870.14	5800.5	
870.31	6525.5	
870.48	3563.5	
870.65	4569.7	
870.81	5372.5	
870.98	5438	
871.15	4141	
871.32	3732.1	
871.48	5942.5	
871.65	6562.4	
871.82	3554.6	
871.99	3943	
872.16	7115.3	
872.32	6391.7	
872.49	3604.4	
872.66	3594.2	
872.83	6057.2	
872.99	5298.8	
873.16	4176.5	
873.33	3596.2	
873.5	5641.5	
873.67	5704.3	
873.83	3783.3	
874	4911	
874.17	5810.8	
874.34	6962.4	
874.5	4699.4	
874.67	4582	
874.84	6501.6	
875.01	5074.2	
875.17	5170.4	
875.34	3646.7	
875.51	5700.9	
875.68	6946	
875.84	4383.3	
876.01	5398.4	
876.18	5971.9	
876.34	6005.3	
876.51	3636.5	
876.68	3512.3	
876.85	5535	
877.01	6346	
877.18	5152	
877.35	3584.6	
877.52	5586.2	
877.68	5011.4	
877.85	3518.4	
878.02	3577.8	
878.18	5568.4	
878.35	5300.8	
878.52	2887	
878.69	4108.2	
878.85	6029.2	
879.02	5959.6	
879.19	5199.8	
879.35	3889.1	
879.52	6025.8	
879.69	6261.3	
879.86	3125.9	
880.02	4059.8	
880.19	5552.7	
880.36	6791.1	
880.52	4171	
880.69	4350.6	
880.86	6174.6	
881.02	6189.6	
881.19	3966.9	
881.36	3998.3	
881.52	6046.3	
881.69	5275.6	
881.86	3917.1	
882.02	3839.9	
882.19	6292.7	
882.36	7486	
882.52	3670.6	
882.69	5150.6	
882.86	5811.5	
883.02	5666	
883.19	4457.1	
883.36	4145.1	
883.52	6137.1	
883.69	7068.9	
883.86	3613.3	
884.02	3241.3	
884.19	6093.4	
884.36	5663.3	
884.52	4147.8	
884.69	3839.9	
884.86	5317.9	
885.02	6680.5	
885.19	4049.5	
885.36	4184.7	
885.52	5553.4	
885.69	5777.3	
885.86	5225.7	
886.02	4626.4	
886.19	6068.8	
886.35	5569.1	
886.52	4047.5	
886.69	5177.3	
886.85	5109.7	
887.02	6500.3	
887.19	6500.3	
887.35	6500.3	
887.52	6500.3	
887.68	6500.3	
887.85	6500.3	
888.02	6500.3	
888.18	6500.3	
888.35	6500.3	
888.51	6500.3	
888.68	6500.3	
888.85	6500.3	
889.01	6500.3	
889.18	6500.3	
889.35	6500.3	
889.51	6500.3	
889.68	6500.3	
889.84	6500.3	
890.01	6500.3	
890.17	6500.3	
890.34	6500.3	
890.51	6500.3	
890.67	6500.3	
890.84	6500.3	
891	6500.3	
891.17	6500.3	
891.34	6500.3	
891.5	6500.3	
891.67	6500.3	
891.83	6500.3	
892	6500.3	
892.16	6500.3	
892.33	6500.3	
892.5	6500.3	
892.66	6500.3	
892.83	6500.3	
892.99	6500.3	
893.16	6500.3	
893.32	6500.3	
893.49	6500.3	
893.65	6500.3	
893.82	6500.3	
893.99	6500.3	
894.15	6500.3	
894.32	6500.3	
894.48	6500.3	
894.65	6500.3	
894.81	6500.3	
894.98	6500.3	
895.14	6500.3	
895.31	6500.3	
895.47	6500.3	
895.64	6500.3	
895.81	6500.3	
895.97	6500.3	
896.14	6500.3	
896.3	6500.3	
896.47	6500.3	
896.63	6500.3	
896.8	6500.3	
896.96	6500.3	
897.13	6500.3	
897.29	6500.3	
897.46	6500.3	
897.62	6500.3	
897.79	6500.3	
897.95	6500.3	
898.12	6500.3	
898.28	6500.3	
898.45	6500.3	
898.61	6500.3	
898.78	6500.3	
898.94	6500.3	
899.11	6500.3	
899.27	6500.3	
899.44	6500.3	
899.6	6500.3	
899.77	6500.3	
899.93	6500.3	
900.1	6500.3	
900.26	6500.3	
900.43	6500.3	
900.59	6500.3	
900.76	6500.3	
900.92	6500.3	
901.09	6500.3	
901.25	6500.3	
901.42	6500.3	
901.58	6500.3	
901.75	6500.3	
901.91	6500.3	
902.07	6500.3	
902.24	6500.3	
902.4	6500.3	
902.57	6500.3	
902.73	6500.3	
902.9	6500.3	
903.06	6500.3	
903.23	6500.3	
903.39	6500.3	
903.56	6500.3	
903.72	6500.3	
903.88	6500.3	
904.05	6500.3	
904.21	6500.3	
904.38	6500.3	
904.54	6500.3	
904.71	6500.3	
904.87	6500.3	
905.03	6500.3	
905.2	6500.3	
905.36	6500.3	
905.53	6500.3	
905.69	6500.3	
905.86	6500.3	
906.02	6500.3	
906.18	6500.3	
906.35	6500.3	
906.51	6500.3	
906.68	6500.3	
906.84	6500.3	
907.01	6500.3	
907.17	6500.3	
907.33	6500.3	
907.5	6500.3	
907.66	6500.3	
907.83	6500.3	
907.99	6500.3	
908.15	6500.3	
908.32	6500.3	
908.48	6500.3	
908.65	6500.3	
908.81	6500.3	
908.97	6500.3	
909.14	6500.3	
909.3	6500.3	
909.47	6500.3	
909.63	6500.3	
909.79	6500.3	
909.96	6500.3	
910.12	6500.3	
910.28	6500.3	
910.45	6500.3	
910.61	6500.3	
910.78	6500.3	
910.94	6500.3	
911.1	6500.3	
911.27	6500.3	
911.43	6500.3	
911.59	6500.3	
911.76	6500.3	
911.92	6500.3	
912.08	6500.3	
912.25	6500.3	
912.41	6500.3	
912.57	6500.3	
912.74	6500.3	
912.9	6500.3	
913.07	6500.3	
913.23	6500.3	
913.39	6500.3	
913.56	6500.3	
913.72	6500.3	
913.88	6500.3	
914.05	6500.3	
914.21	6500.3	
914.37	6500.3	
914.54	6500.3	
914.7	6500.3	
914.86	6500.3	
915.03	6500.3	
915.19	6500.3	
