Wavelength	Intensities	
nm	a.u.	
179.22	1776.1	
179.44	1782.1	
179.65	1770.1	
179.86	1794	
180.08	1796.8	
180.29	4311.7	
180.51	3161.4	
180.72	5176.6	
180.94	5978.7	
181.15	2928.6	
181.37	2889.7	
181.58	5078.3	
181.79	5337.7	
182.01	3043.3	
182.22	3277.4	
182.44	5324	
182.65	4562.9	
182.87	4021.5	
183.08	3517.7	
183.29	5585.5	
183.51	4625	
183.72	3282.2	
183.94	4574.5	
184.15	4959.5	
184.37	4967.7	
184.58	2877.4	
184.79	3900.7	
185.01	4640.7	
185.22	5339.7	
185.44	4104.8	
185.65	3448.8	
185.86	4886.5	
186.08	4519.9	
186.29	2800.9	
186.51	2997.5	
186.72	4672.8	
186.94	5359.5	
187.15	3482.9	
187.36	3553.9	
187.58	6922.1	
187.79	5067.4	
188.01	3692.5	
188.22	5660.6	
188.43	5979.4	
188.65	5281	
188.86	2966.8	
189.08	3558.7	
189.29	4825	
189.5	4799.1	
189.72	3248.1	
189.93	3334.8	
190.15	5447.6	
190.36	6436.8	
190.57	3653.6	
190.79	3540.9	
191	5537.7	
191.22	5451.7	
191.43	3601	
191.64	3073.3	
191.86	5683.1	
192.07	5465.3	
192.29	3148.4	
192.5	3310.2	
192.71	5472.2	
192.93	4804.5	
193.14	3287	
193.35	3365.5	
193.57	4801.1	
193.78	5448.3	
194	2682.8	
194.21	3222.8	
194.42	4616.8	
194.64	5003.2	
194.85	3525.2	
195.07	4108.2	
195.28	5048.2	
195.49	4381.3	
195.71	4301.4	
195.92	3102.7	
196.13	5167.7	
196.35	5228.5	
196.56	4618.2	
196.78	3543	
196.99	6328.2	
197.2	5928.9	
197.42	4059.1	
197.63	3611.9	
197.84	4524.6	
198.06	5165	
198.27	3300	
198.48	4263.2	
198.7	4788.2	
198.91	4946.5	
199.13	3601	
199.34	3549.8	
199.55	5425.8	
199.77	4315.8	
199.98	3174.4	
200.19	3624.9	
200.41	4932.9	
200.62	4679.6	
200.83	3673.4	
201.05	3958.7	
201.26	4908.3	
201.47	4720.6	
201.69	3186.6	
201.9	3068.5	
202.11	5014.8	
202.33	5818.3	
202.54	3339.6	
202.76	3795.6	
202.97	5038	
203.18	5117.9	
203.4	3734.1	
203.61	3710.9	
203.82	5038	
204.04	4709.6	
204.25	3594.9	
204.46	3548.4	
204.68	5015.5	
204.89	5179.3	
205.1	3504.1	
205.32	3061.7	
205.53	5373.9	
205.74	5449.6	
205.96	2664.4	
206.17	3629.7	
206.38	5292.6	
206.6	5470.8	
206.81	4059.1	
207.02	3360	
207.24	5190.2	
207.45	5533.6	
207.66	3426.3	
207.88	3005.1	
208.09	5140.4	
208.3	4982.7	
208.52	3105.4	
208.73	3460.4	
208.94	4990.9	
209.15	5608	
209.37	3362.8	
209.58	3884.3	
209.79	5484.5	
210.01	4849.6	
210.22	2796.2	
210.43	2910.2	
210.65	4953.4	
210.86	5345.2	
211.07	3419.4	
211.29	3144.3	
211.5	5302.9	
211.71	4962.2	
211.93	3151.1	
212.14	3122.5	
212.35	4932.9	
212.56	5040.7	
212.78	3576.4	
212.99	3044	
213.2	5810.1	
213.42	4820.9	
213.63	3252.2	
213.84	3495.9	
214.06	4545.1	
214.27	4526	
214.48	3426.3	
214.69	3643.3	
214.91	5556.8	
215.12	5625.8	
215.33	3679.5	
215.55	3994.2	
215.76	6107.7	
215.97	5331.5	
216.18	3510.9	
216.4	3450.8	
216.61	4716.5	
216.82	5373.9	
217.04	3202.3	
217.25	3311.6	
217.46	5532.2	
217.67	5350	
217.89	2919.7	
218.1	2962	
218.31	5048.2	
218.53	5160.2	
218.74	3332.7	
218.95	3259	
219.16	4950.6	
219.38	5672.9	
219.59	3206.4	
219.8	3814.7	
220.01	6232.7	
220.23	5020.3	
220.44	4144.4	
220.65	3136.1	
220.87	5116.5	
221.08	5538.4	
221.29	3000.3	
221.5	3830.4	
221.72	6659.3	
221.93	4738.3	
222.14	3627.6	
222.35	4194.9	
222.57	4988.9	
222.78	5303.6	
222.99	3433.8	
223.2	3635.1	
223.42	5274.2	
223.63	5360.2	
223.84	2695.8	
224.05	2689.7	
224.27	6274.3	
224.48	5715.2	
224.69	4240	
224.9	3610.6	
225.12	5188.2	
225.33	4912.4	
225.54	2875.3	
225.75	3277.4	
225.97	4629.8	
226.18	4963.6	
226.39	3448.1	
226.6	3211.2	
226.82	4814.8	
227.03	4616.1	
227.24	3605.1	
227.45	3018	
227.67	5339.7	
227.88	5747.3	
228.09	4009.2	
228.3	4019.5	
228.52	5321.3	
228.73	4923.3	
228.94	3290.4	
229.15	2994.1	
229.36	4958.1	
229.58	4909	
229.79	3391.4	
230	3788.7	
230.21	5898.1	
230.43	5023.7	
230.64	3592.8	
230.85	3692.5	
231.06	5305.6	
231.28	5358.9	
231.49	2969.6	
231.7	3507.5	
231.91	5302.9	
232.12	5001.8	
232.34	3054.9	
232.55	3453.6	
232.76	5478.3	
232.97	5104.2	
233.18	3178.4	
233.4	3493.2	
233.61	5221	
233.82	4773.1	
234.03	3314.3	
234.25	3295.2	
234.46	6731	
234.67	5068	
234.88	3571.7	
235.09	3211.2	
235.31	5207.3	
235.52	4946.5	
235.73	3563.5	
235.94	3084.9	
236.15	4780.6	
236.37	5957.5	
236.58	3170.9	
236.79	3458.3	
237	5207.3	
237.21	4567	
237.43	3648.8	
237.64	2949.1	
237.85	8536.6	
238.06	4637.3	
238.27	3717.7	
238.48	2998.9	
238.7	5313.1	
238.91	4939.7	
239.12	3391.4	
239.33	3457.7	
239.54	4689.2	
239.76	4928.1	
239.97	3426.9	
240.18	3450.8	
240.39	6057.2	
240.6	5226.4	
240.82	3529.3	
241.03	3018	
241.24	4926	
241.45	5655.8	
241.66	3168.9	
241.87	3758	
242.09	5571.8	
242.3	5922	
242.51	3743	
242.72	3459.7	
242.93	5399.8	
243.14	4919.9	
243.36	3861.8	
243.57	4238.6	
243.78	5681.7	
243.99	5296	
244.2	3418.1	
244.41	3115.6	
244.63	4623.6	
244.84	5249.6	
245.05	3690.4	
245.26	3456.3	
245.47	5253.7	
245.68	5431.9	
245.9	4466.6	
246.11	3590.1	
246.32	4851	
246.53	5221.6	
246.74	5455.1	
246.95	2936.8	
247.16	4617.5	
247.38	4984.1	
247.59	2895.8	
247.8	3409.9	
248.01	4694.6	
248.22	4962.9	
248.43	3147.7	
248.64	3401	
248.86	4512.4	
249.07	4745.8	
249.28	3087.7	
249.49	3556.6	
249.7	5387.5	
249.91	5562.3	
250.12	2951.1	
250.34	2966.8	
250.55	5100.8	
250.76	4955.4	
250.97	3590.8	
251.18	3573.7	
251.39	5591.6	
251.6	5163.6	
251.81	3618.8	
252.03	3614.7	
252.24	4777.2	
252.45	5356.1	
252.66	3026.2	
252.87	3745.7	
253.08	4982	
253.29	6348	
253.5	3050.1	
253.72	4134.2	
253.93	4875.5	
254.14	5864.7	
254.35	3275.4	
254.56	3317	
254.77	5208.7	
254.98	4673.5	
255.19	3268.6	
255.41	4118.5	
255.62	5095.3	
255.83	5528.8	
256.04	3700	
256.25	3624.9	
256.46	6032	
256.67	4795	
256.88	3555.3	
257.09	3902.7	
257.31	4681.7	
257.52	4746.5	
257.73	4390.8	
257.94	3288.4	
258.15	4876.2	
258.36	4994.3	
258.57	4060.4	
258.78	2678.7	
258.99	5440.8	
259.2	4801.8	
259.41	3293.8	
259.63	3423.5	
259.84	5653.1	
260.05	5978.7	
260.26	4217.5	
260.47	3226.9	
260.68	5501.5	
260.89	4877.6	
261.1	3953.9	
261.31	3154.6	
261.52	5521.3	
261.73	5790.3	
261.95	4212	
262.16	3691.1	
262.37	5567.7	
262.58	5616.2	
262.79	4181.3	
263	3355.3	
263.21	5046.9	
263.42	4797.7	
263.63	3404.4	
263.84	3307.5	
264.05	5488.6	
264.26	5777.3	
264.47	4085.7	
264.69	3634.5	
264.9	5627.1	
265.11	5126.1	
265.32	3196.2	
265.53	3235.8	
265.74	5119.9	
265.95	4467.3	
266.16	3465.8	
266.37	3827	
266.58	5087.8	
266.79	4810	
267	3207.1	
267.21	3060.3	
267.42	4606.6	
267.63	4990.2	
267.84	3391.4	
268.06	2998.2	
268.27	5396.4	
268.48	5592.3	
268.69	3347.7	
268.9	3912.3	
269.11	5609.4	
269.32	4494.6	
269.53	3392.8	
269.74	3185.3	
269.95	5251	
270.16	4520.5	
270.37	3461.1	
270.58	3962.8	
270.79	4840	
271	5459.2	
271.21	3667.2	
271.42	3478.8	
271.63	5172.5	
271.84	4642.1	
272.05	2802.3	
272.26	3132	
272.47	5068	
272.68	5161.6	
272.89	3372.3	
273.11	3766.9	
273.32	4835.3	
273.53	5729.5	
273.74	3643.3	
273.95	3612.6	
274.16	5404.6	
274.37	5031.2	
274.58	3722.5	
274.79	3039.2	
275	5100.1	
275.21	5523.4	
275.42	4491.2	
275.63	3805.8	
275.84	5212.1	
276.05	6406	
276.26	3590.1	
276.47	3372.3	
276.68	4939	
276.89	5849	
277.1	3844	
277.31	3076.7	
277.52	5200.5	
277.73	5451.7	
277.94	3018	
278.15	3360	
278.36	5158.8	
278.57	4702.8	
278.78	3327.3	
278.99	3716.4	
279.2	4702.1	
279.41	4654.4	
279.62	4257.7	
279.83	3093.8	
280.04	6014.9	
280.25	4659.8	
280.46	4257.7	
280.67	3487	
280.88	4711.7	
281.09	5573.2	
281.3	3611.3	
281.51	4493.2	
281.72	4766.3	
281.93	5436.7	
282.14	3226.9	
282.35	3493.8	
282.56	5396.4	
282.77	5387.5	
282.98	3325.9	
283.19	4076.8	
283.4	6485.2	
283.61	4941.1	
283.82	3124.5	
284.03	4227.7	
284.24	5187.5	
284.45	5479	
284.66	4183.3	
284.87	4040.6	
285.08	5500.8	
285.29	5600.5	
285.5	2973.7	
285.71	3349.8	
285.92	5446.9	
286.12	6069.5	
286.33	4234.5	
286.54	3388.7	
286.75	5370.5	
286.96	4870.8	
287.17	3100.6	
287.38	4059.1	
287.59	4738.3	
287.8	4670.7	
288.01	3338.9	
288.22	3777.8	
288.43	5356.1	
288.64	4521.9	
288.85	4037.9	
289.06	3822.9	
289.27	5377.3	
289.48	5817.6	
289.69	4217.5	
289.9	3861.1	
290.11	5615.5	
290.32	4773.1	
290.53	4033.1	
290.74	3663.8	
290.94	5399.1	
291.15	5397.8	
291.36	3229.6	
291.57	3812	
291.78	4785.4	
291.99	4521.9	
292.2	3159.3	
292.41	3731.4	
292.62	5470.8	
292.83	5208	
293.04	4560.8	
293.25	3164.8	
293.46	4861.9	
293.67	5464	
293.88	3235.1	
294.09	3127.9	
294.29	4638.6	
294.5	5096.7	
294.71	3480.2	
294.92	3283.6	
295.13	4799.1	
295.34	5901.6	
295.55	2935.4	
295.76	2867.2	
295.97	5353.4	
296.18	6026.5	
296.39	3045.3	
296.6	3216	
296.81	5070.8	
297.01	5330.2	
297.22	3401	
297.43	3220.8	
297.64	4745.1	
297.85	4672.1	
298.06	2736.1	
298.27	2966.1	
298.48	5031.9	
298.69	4789.5	
298.9	3505.4	
299.11	3197.6	
299.31	4574.5	
299.52	4631.1	
299.73	3762.8	
299.94	3650.2	
300.15	4970.4	
300.36	4726.7	
300.57	3644.7	
300.78	3691.1	
300.99	4911.7	
301.2	5098.8	
301.4	3259	
301.61	3515.7	
301.82	5274.9	
302.03	5329.5	
302.24	3861.8	
302.45	3123.2	
302.66	5239.4	
302.87	5620.3	
303.08	3216.7	
303.29	4388.8	
303.49	4810	
303.7	5019.6	
303.91	2944.3	
304.12	4173.1	
304.33	4599.7	
304.54	5142.4	
304.75	3278.1	
304.96	3099.3	
305.16	5283.1	
305.37	5920.7	
305.58	2860.3	
305.79	3007.1	
306	5285.8	
306.21	4470.7	
306.42	3269.9	
306.63	4808.6	
306.83	4843.4	
307.04	5436	
307.25	3587.4	
307.46	3552.5	
307.67	4323.9	
307.88	5369.1	
308.09	3184.6	
308.29	3300.6	
308.5	5104.2	
308.71	5422.3	
308.92	3461.7	
309.13	3135.4	
309.34	4917.2	
309.55	4965.6	
309.75	3975.1	
309.96	3631	
310.17	5317.9	
310.38	4764.9	
310.59	3842.7	
310.8	3050.1	
311.01	5935	
311.21	4928.1	
311.42	3095.2	
311.63	3238.5	
311.84	4833.9	
312.05	5154.1	
312.26	3605.1	
312.46	3928	
312.67	4858.5	
312.88	4546.5	
313.09	3156.6	
313.3	3128.6	
313.51	5715.2	
313.71	5939.1	
313.92	3168.2	
314.13	3299.3	
314.34	5203.2	
314.55	4924.7	
314.76	3927.3	
314.96	3478.8	
315.17	5122	
315.38	5348.6	
315.59	3161.4	
315.8	3023.5	
316.01	5677	
316.21	5782.1	
316.42	3041.9	
316.63	3475.4	
316.84	4884.4	
317.05	5598.5	
317.26	3687	
317.46	3304.7	
317.67	4943.1	
317.88	5312.4	
318.09	3965.6	
318.3	2949.1	
318.5	4805.9	
318.71	5314.5	
318.92	4923.3	
319.13	3631.7	
319.34	5435.3	
319.54	5593	
319.75	2964.1	
319.96	2777.7	
320.17	5276.9	
320.38	5451.7	
320.58	2895.8	
320.79	3462.4	
321	5498.1	
321.21	5535	
321.42	3423.5	
321.62	2895.8	
321.83	4706.2	
322.04	5044.8	
322.25	3353.2	
322.46	3195.5	
322.66	5066	
322.87	5257.1	
323.08	3861.1	
323.29	3099.9	
323.5	5934.3	
323.7	4614.8	
323.91	4243.4	
324.12	3858.4	
324.33	5090.6	
324.53	5294.7	
324.74	3650.8	
324.95	3867.2	
325.16	4506.2	
325.37	4852.3	
325.57	3115.6	
325.78	3202.3	
325.99	5093.3	
326.2	4595.6	
326.4	4457.7	
326.61	2956.6	
326.82	4968.4	
327.03	5121.3	
327.24	4394.3	
327.44	4142.4	
327.65	5173.9	
327.86	4304.1	
328.07	3721.2	
328.27	3020.1	
328.48	5584.1	
328.69	4662.5	
328.9	4429.8	
329.1	3358	
329.31	4907.6	
329.52	5691.3	
329.73	3154.6	
329.93	3531.4	
330.14	5059.8	
330.35	5198.4	
330.56	5083.7	
330.76	3891.8	
330.97	4803.9	
331.18	5133.6	
331.39	3517	
331.59	2833.7	
331.8	5455.1	
332.01	5628.5	
332.22	3274.7	
332.42	3634.5	
332.63	5121.3	
332.84	4729.4	
333.05	3499.3	
333.25	3235.1	
333.46	4792.9	
333.67	5022.3	
333.88	3345	
334.08	3612.6	
334.29	6632	
334.5	5494.7	
334.7	3142.9	
334.91	4411.3	
335.12	4616.1	
335.33	5351.3	
335.53	3509.5	
335.74	5037.3	
335.95	4818.2	
336.16	4653	
336.36	3500	
336.57	3951.2	
336.78	4573.8	
336.98	5424.4	
337.19	4246.1	
337.4	3379.1	
337.61	5928.9	
337.81	4586.1	
338.02	3207.8	
338.23	4081.6	
338.43	5705	
338.64	4747.9	
338.85	3150.5	
339.05	4121.2	
339.26	5689.9	
339.47	4510.3	
339.68	3177.1	
339.88	4573.8	
340.09	5268.1	
340.3	5431.2	
340.5	3629.7	
340.71	2844.6	
340.92	4557.4	
341.13	5614.2	
341.33	3099.9	
341.54	3703.4	
341.75	5203.9	
341.95	4854.4	
342.16	3524.6	
342.37	3823.6	
342.57	4631.8	
342.78	4969.7	
342.99	3903.4	
343.19	2847.4	
343.4	5369.8	
343.61	5244.8	
343.81	3403.7	
344.02	3082.9	
344.23	5348.6	
344.43	5679	
344.64	3881.6	
344.85	3807.9	
345.06	5217.5	
345.26	5532.9	
345.47	3641.3	
345.68	4194.2	
345.88	4500.1	
346.09	5416.9	
346.3	3648.1	
346.5	2816.6	
346.71	5009.3	
346.92	4773.8	
347.12	2948.4	
347.33	3646.1	
347.54	5436	
347.74	5757.5	
347.95	3609.2	
348.16	2742.9	
348.36	4807.9	
348.57	4641.4	
348.78	3615.3	
348.98	3848.8	
349.19	4980	
349.39	4570.4	
349.6	2960.7	
349.81	3164.1	
350.01	5230.5	
350.22	4740.4	
350.43	3428.3	
350.63	4185.4	
350.84	4968.4	
351.05	4754.7	
351.25	3183.9	
351.46	2885.6	
351.67	5414.8	
351.87	4775.9	
352.08	3383.9	
352.29	3822.9	
352.49	5294.7	
352.7	5423	
352.9	3058.3	
353.11	3738.2	
353.32	5980.1	
353.52	4878.3	
353.73	3032.4	
353.94	3818.8	
354.14	5199.8	
354.35	5025.7	
354.55	3211.9	
354.76	3541.6	
354.97	5225.7	
355.17	5003.2	
355.38	3018.7	
355.59	4106.2	
355.79	4757.4	
356	5027.1	
356.2	3473.4	
356.41	3046	
356.62	4546.5	
356.82	4902.8	
357.03	3719.8	
357.24	3345	
357.44	4734.2	
357.65	4843.4	
357.85	4457.7	
358.06	3547.1	
358.27	4543.8	
358.47	4713.1	
358.68	2945	
358.88	3692.5	
359.09	5144.5	
359.3	5581.4	
359.5	4277.5	
359.71	3821.5	
359.91	5876.3	
360.12	5319.9	
360.33	3673.4	
360.53	4063.2	
360.74	4715.8	
360.94	4773.8	
361.15	3867.9	
361.36	3229	
361.56	5425.1	
361.77	4928.1	
361.97	4273.4	
362.18	3401.7	
362.38	5443.5	
362.59	4624.3	
362.8	3181.2	
363	3049.4	
363.21	4474.1	
363.41	5060.5	
363.62	3592.1	
363.83	4451.6	
364.03	5085.8	
364.24	5831.9	
364.44	4525.3	
364.65	4431.8	
364.85	4959.5	
365.06	4607.2	
365.27	3320.4	
365.47	3375.1	
365.68	5795.8	
365.88	4912.4	
366.09	3626.3	
366.29	3438.5	
366.5	5112.4	
366.71	5457.2	
366.91	4519.2	
367.12	3809.9	
367.32	6001.2	
367.53	5360.9	
367.73	3751.2	
367.94	4614.1	
368.14	5337.7	
368.35	6062	
368.56	3672	
368.76	3214.6	
368.97	5447.6	
369.17	6771.9	
369.38	3377.1	
369.58	3557.3	
369.79	4593.6	
369.99	5734.3	
370.2	4431.1	
370.4	3650.8	
370.61	5182.7	
370.82	6167.8	
371.02	3609.2	
371.23	3050.8	
371.43	4552.6	
371.64	5709.7	
371.84	3610.6	
372.05	4560.1	
372.25	6767.2	
372.46	5374.6	
372.66	3620.1	
372.87	3598.3	
373.07	5436.7	
373.28	6795.8	
373.48	4396.3	
373.69	4171.7	
373.9	5053.7	
374.1	5071.5	
374.31	4383.3	
374.51	3984	
374.72	5765.7	
374.92	4780	
375.13	4554.7	
375.33	3838.6	
375.54	5459.9	
375.74	4966.3	
375.95	3885	
376.15	4911.7	
376.36	5437.4	
376.56	5296.7	
376.77	3943	
376.97	4364.9	
377.18	6297.5	
377.38	5486.5	
377.59	4627	
377.79	3632.4	
378	5335.6	
378.2	5640.1	
378.41	3664.5	
378.61	3538.2	
378.82	5724.8	
379.02	5016.8	
379.23	3818.8	
379.43	4669.4	
379.64	5882.4	
379.84	5430.5	
380.05	3662.5	
380.25	3541.6	
380.46	5569.1	
380.66	5216.2	
380.87	4799.1	
381.07	5041.4	
381.28	6059.3	
381.48	5586.2	
381.69	3574.4	
381.89	3704.1	
382.1	4738.3	
382.3	5643.5	
382.51	4534.2	
382.71	5385.5	
382.91	5470.8	
383.12	6004.6	
383.32	4014	
383.53	4112.3	
383.73	5431.9	
383.94	5224.4	
384.14	4081.6	
384.35	3311.6	
384.55	5177.9	
384.76	5528.2	
384.96	3938.2	
385.17	4220.2	
385.37	5535	
385.58	4874.8	
385.78	4171.7	
385.98	3269.2	
386.19	5096.7	
386.39	5409.4	
386.6	3689.1	
386.8	3960.8	
387.01	5520	
387.21	5563.6	
387.42	4231.8	
387.62	4739.7	
387.83	4986.8	
388.03	5442.8	
388.23	4000.4	
388.44	4623.6	
388.64	4747.2	
388.85	4848.2	
389.05	4262.5	
389.26	4744.5	
389.46	6477.7	
389.67	5875.6	
389.87	4315.8	
390.07	4312.3	
390.28	5186.1	
390.48	4884.4	
390.69	3614.7	
390.89	3934.1	
391.1	5072.8	
391.3	5879	
391.5	4880.3	
391.71	5308.3	
391.91	5649	
392.12	6334.4	
392.32	4878.9	
392.53	4246.8	
392.73	5111.7	
392.93	5264	
393.14	3988.8	
393.34	4622.9	
393.55	5561.6	
393.75	5188.2	
393.95	3984.7	
394.16	3948.5	
394.36	5085.1	
394.57	5609.4	
394.77	3581.9	
394.98	3946.4	
395.18	5044.8	
395.38	5279	
395.59	4687.8	
395.79	3791.5	
396	5221.6	
396.2	5541.1	
396.4	4486.4	
396.61	4492.6	
396.81	5766.4	
397.02	5152.7	
397.22	4645.5	
397.42	4772.4	
397.63	5708.4	
397.83	5072.8	
398.04	3751.9	
398.24	4200.4	
398.44	5547.9	
398.65	4731.5	
398.85	3685	
399.05	3738.9	
399.26	5120.6	
399.46	6566.5	
399.67	4136.2	
399.87	3903.4	
400.07	5382.1	
400.28	5658.5	
400.48	3947.8	
400.69	4807.3	
400.89	5895.4	
401.09	6285.9	
401.3	3906.8	
401.5	4749.2	
401.7	6456.6	
401.91	6630.6	
402.11	4177.9	
402.32	4348.5	
402.52	5906.3	
402.72	5799.8	
402.93	4508.9	
403.13	3497.9	
403.33	6399.9	
403.54	5339.1	
403.74	4229.7	
403.94	4878.9	
404.15	5409.4	
404.35	6398.5	
404.56	4024.3	
404.76	5545.9	
404.96	5840.1	
405.17	5750	
405.37	5069.4	
405.57	4513.7	
405.78	5907	
405.98	5424.4	
406.18	4038.6	
406.39	4747.2	
406.59	5853.8	
406.79	5451	
407	3842.7	
407.2	3938.2	
407.4	5896.8	
407.61	5955.5	
407.81	4038.6	
408.01	5987.6	
408.22	5014.1	
408.42	6707.1	
408.62	4960.2	
408.83	4527.4	
409.03	5578.7	
409.23	5510.4	
409.44	4582	
409.64	4845.5	
409.84	6438.1	
410.05	6342.6	
410.25	4775.9	
410.45	4528.1	
410.66	5890	
410.86	7901.1	
411.06	4931.5	
411.27	4747.9	
411.47	7761.1	
411.67	6066.8	
411.88	5036	
412.08	5135.6	
412.28	6590.4	
412.49	6986.3	
412.69	4882.4	
412.89	4816.1	
413.09	6922.1	
413.3	6750.8	
413.5	4893.3	
413.7	4589.5	
413.91	6159.6	
414.11	6803.4	
414.31	4691.9	
414.52	5146.5	
414.72	6624.5	
414.92	6540.5	
415.12	4717.2	
415.33	5231.2	
415.53	6804	
415.73	6902.3	
415.94	5537.7	
416.14	5019.6	
416.34	5988.3	
416.55	5803.3	
416.75	5961.6	
416.95	5522.7	
417.15	6832	
417.36	7453.2	
417.56	6279.8	
417.76	5399.8	
417.97	7161.1	
418.17	6870.3	
418.37	5080.3	
418.57	5099.4	
418.78	6658.6	
418.98	6412.2	
419.18	5853.1	
419.38	5733.6	
419.59	6411.5	
419.79	6072.2	
419.99	4984.8	
420.2	5312.4	
420.4	6795.2	
420.6	7030.7	
420.8	4975.2	
421.01	4805.9	
421.21	6728.9	
421.41	6877.1	
421.61	5268.1	
421.82	4939	
422.02	6287.9	
422.22	7083.9	
422.42	5653.8	
422.63	5374.6	
422.83	6407.4	
423.03	7420.5	
423.23	5393	
423.44	4510.3	
423.64	6472.9	
423.84	6168.5	
424.04	4891.9	
424.25	4601.1	
424.45	7147.4	
424.65	7147.4	
424.85	4485.1	
425.06	4946.5	
425.26	7182.9	
425.46	6321.4	
425.66	5300.8	
425.87	5068.7	
426.07	6900.3	
426.27	6826.6	
426.47	5185.5	
426.67	4580.6	
426.88	7230	
427.08	6788.3	
427.28	5360.9	
427.48	4588.8	
427.69	5920	
427.89	6445.6	
428.09	5317.2	
428.29	4584	
428.5	6864.1	
428.7	6580.8	
428.9	4461.2	
429.1	4922	
429.3	6474.3	
429.51	6854.6	
429.71	4820.2	
429.91	5487.2	
430.11	6808.8	
430.31	7019.1	
430.52	5014.8	
430.72	5282.4	
430.92	7268.9	
431.12	6814.3	
431.32	4721.9	
431.53	5139	
431.73	5883.8	
431.93	7296.9	
432.13	4702.1	
432.33	4629.8	
432.54	6308.4	
432.74	6602	
432.94	4584.7	
433.14	5479	
433.34	6773.3	
433.55	6417.7	
433.75	5359.5	
433.95	6849.1	
434.15	6642.2	
434.35	6417.7	
434.56	4756.1	
434.76	4381.3	
434.96	6582.9	
435.16	6797.2	
435.36	4622.3	
435.56	5649	
435.77	6249	
435.97	6377.4	
436.17	6166.4	
436.37	5541.8	
436.57	6264.1	
436.78	6225.1	
436.98	5507.7	
437.18	6034.7	
437.38	6796.5	
437.58	6422.4	
437.78	6158.9	
437.99	4979.3	
438.19	6814.3	
438.39	7458	
438.59	4917.2	
438.79	4426.3	
438.99	7325.6	
439.2	6315.9	
439.4	4589.5	
439.6	4599.7	
439.8	6693.4	
440	7602.1	
440.2	5532.9	
440.4	5526.1	
440.61	7077.1	
440.81	7490.1	
441.01	4823	
441.21	5529.5	
441.41	7404.1	
441.61	6980.8	
441.81	5720.7	
442.02	6583.5	
442.22	7745.4	
442.42	7079.8	
442.62	4872.1	
442.82	4918.5	
443.02	7371.3	
443.22	6621.8	
443.43	5232.6	
443.63	4932.9	
443.83	6474.3	
444.03	6572.6	
444.23	5956.9	
444.43	5597.1	
444.63	6793.1	
444.83	7751.6	
445.04	5042.1	
445.24	6048.3	
445.44	7083.9	
445.64	7162.4	
445.84	5678.3	
446.04	5608.7	
446.24	6531.7	
446.44	7314	
446.65	4915.1	
446.85	5279.7	
447.05	6576.7	
447.25	7329.7	
447.45	5398.4	
447.65	4835.3	
447.85	6778.8	
448.05	6479.8	
448.25	5679	
448.46	5462.6	
448.66	6739.9	
448.86	6524.1	
449.06	4714.4	
449.26	5698.1	
449.46	7046.4	
449.66	6333	
449.86	5255.1	
450.06	5281.7	
450.26	6469.5	
450.47	6956.3	
450.67	5539.8	
450.87	5810.1	
451.07	7045	
451.27	6779.5	
451.47	4920.6	
451.67	5399.1	
451.87	6545.3	
452.07	7485.3	
452.27	5135.6	
452.47	5084.4	
452.67	6783.6	
452.88	7083.9	
453.08	4552.6	
453.28	6232.7	
453.48	7782.3	
453.68	6725.5	
453.88	5070.1	
454.08	5228.5	
454.28	7037.5	
454.48	6808.1	
454.68	5664	
454.88	6006	
455.08	7195.2	
455.28	6942.6	
455.48	4934.2	
455.68	5405.3	
455.89	7608.2	
456.09	7346.1	
456.29	5253	
456.49	5282.4	
456.69	7511.3	
456.89	6793.1	
457.09	5771.9	
457.29	5995.1	
457.49	7103	
457.69	7251.2	
457.89	5628.5	
458.09	5065.3	
458.29	6950.1	
458.49	7614.3	
458.69	5917.9	
458.89	5423	
459.09	7749.5	
459.29	7859.4	
459.49	5519.3	
459.69	6113.2	
459.9	7368.6	
460.1	6950.8	
460.3	5384.1	
460.5	5223.7	
460.7	7329.7	
460.9	7066.2	
461.1	4995	
461.3	6026.5	
461.5	7987.8	
461.7	7595.9	
461.9	5360.2	
462.1	5689.9	
462.3	7157	
462.5	7696.9	
462.7	5485.1	
462.9	5498.8	
463.1	8516.8	
463.3	8229.4	
463.5	5645.6	
463.7	6470.2	
463.9	7400.7	
464.1	7672.4	
464.3	5796.4	
464.5	5993.7	
464.7	7889.5	
464.9	7616.4	
465.1	7126.9	
465.3	6234	
465.5	8174.8	
465.7	8112	
465.9	6498.9	
466.1	6255.9	
466.3	8014.4	
466.5	7914.7	
466.7	7016.3	
466.9	6260	
467.1	7932.5	
467.3	8646.5	
467.5	7097.6	
467.7	6118	
467.9	8856.1	
468.1	9566.1	
468.3	6857.3	
468.5	7118.1	
468.7	7813	
468.9	7800	
469.1	6299.6	
469.3	7037.5	
469.5	9497.1	
469.7	7464.2	
469.9	6718.7	
470.1	6205.3	
470.3	7916.1	
470.5	7925	
470.7	7245.7	
470.9	6184.2	
471.1	7651.9	
471.3	7977.5	
471.5	6107	
471.69	7638.2	
471.89	7580.9	
472.09	7154.9	
472.29	6756.2	
472.49	7067.5	
472.69	7333.8	
472.89	7999.4	
473.09	6038.8	
473.29	6085.9	
473.49	7486.7	
473.69	7516	
473.89	6885.3	
474.09	6212.2	
474.29	8708	
474.49	8347.5	
474.69	6793.1	
474.89	6361	
475.09	7650.5	
475.29	7561.8	
475.49	5828.5	
475.69	6004.6	
475.88	8954.4	
476.08	7994.6	
476.28	5780.1	
476.48	6124.1	
476.68	8201.4	
476.88	8073.1	
477.08	6015.6	
477.28	6335.7	
477.48	7720.8	
477.68	8228.1	
477.88	5761.6	
478.08	6062	
478.28	8445.8	
478.48	7737.2	
478.67	6194.4	
478.87	5677	
479.07	8292.9	
479.27	7858.1	
479.47	6337.8	
479.67	6340.5	
479.87	8122.2	
480.07	8563.9	
480.27	5803.3	
480.47	7172.7	
480.67	7883.3	
480.87	8385.7	
481.06	5980.1	
481.26	6701.6	
481.46	7825.3	
481.66	7690.1	
481.86	6447	
482.06	7157	
482.26	7674.4	
482.46	8400.8	
482.66	6312.5	
482.86	6010.8	
483.05	7873.8	
483.25	7400.7	
483.45	8436.9	
483.65	6333	
483.85	7488.1	
484.05	7805.5	
484.25	6698.9	
484.45	7074.4	
484.65	8571.4	
484.84	8561.9	
485.04	6284.5	
485.24	6266.1	
485.44	8747.6	
485.64	7292.8	
485.84	5672.2	
486.04	6809.5	
486.24	7604.8	
486.44	7966.6	
486.63	5625.1	
486.83	6320.7	
487.03	7612.3	
487.23	7838.9	
487.43	5834	
487.63	7838.3	
487.83	7803.4	
488.02	8736	
488.22	6596.5	
488.42	7023.2	
488.62	8541.4	
488.82	7533.8	
489.02	6208.1	
489.22	6242.2	
489.41	8470.4	
489.61	8165.9	
489.81	6092	
490.01	6096.1	
490.21	8331.8	
490.41	8919.6	
490.61	5974.6	
490.8	6154.1	
491	7853.3	
491.2	7342	
491.4	6670.2	
491.6	5877	
491.8	7930.4	
491.99	7920.2	
492.19	5788.9	
492.39	6030.6	
492.59	8388.5	
492.79	8418.5	
492.99	6817	
493.18	6124.1	
493.38	8517.5	
493.58	9147.6	
493.78	6589	
493.98	6352.1	
494.18	8214.4	
494.37	7789.1	
494.57	6931.7	
494.77	6767.2	
494.97	8467	
495.17	8710.7	
495.37	6429.9	
495.56	6767.9	
495.76	8879.3	
495.96	8562.6	
496.16	7492.2	
496.36	6588.3	
496.55	8712.7	
496.75	8196	
496.95	6965.8	
497.15	6894.1	
497.35	8702.5	
497.54	8614.4	
497.74	6599.9	
497.94	8171.4	
498.14	9295	
498.34	9060.2	
498.53	6390.3	
498.73	7109.2	
498.93	8122.2	
499.13	8570.1	
499.33	6953.5	
499.52	7218.4	
499.72	8678.6	
499.92	8894.3	
500.12	6668.9	
500.32	6972	
500.51	8998.1	
500.71	8628.8	
500.91	7564.5	
501.11	7211.6	
501.31	8776.2	
501.5	9172.2	
501.7	7825.3	
501.9	6858	
502.1	8692.9	
502.29	8921	
502.49	7309.9	
502.69	7686	
502.89	8824.7	
503.09	8783.1	
503.28	6413.6	
503.48	6544.6	
503.68	8188.5	
503.88	8229.4	
504.07	7358.4	
504.27	6934.4	
504.47	8472.4	
504.67	8530.5	
504.86	7291.5	
505.06	7055.9	
505.26	8312	
505.46	9652.1	
505.65	6937.8	
505.85	7135.1	
506.05	8211	
506.25	8641.1	
506.44	6356.9	
506.64	7077.1	
506.84	8073.8	
507.04	8905.3	
507.23	6571.9	
507.43	7131	
507.63	9690.3	
507.83	8187.1	
508.02	7030	
508.22	6663.4	
508.42	9908.8	
508.62	8121.6	
508.81	6911.2	
509.01	7296.2	
509.21	7949.5	
509.4	8224.6	
509.6	7093.5	
509.8	6483.9	
510	8202.1	
510.19	9356.5	
510.39	6606.7	
510.59	6625.9	
510.79	7991.9	
510.98	9103.9	
511.18	6694.8	
511.38	6738.5	
511.57	8761.2	
511.77	8568.7	
511.97	7329.7	
512.17	6528.2	
512.36	8642.4	
512.56	8607.6	
512.76	6470.2	
512.95	6242.9	
513.15	8809.7	
513.35	7653.9	
513.55	7235.5	
513.74	6531.7	
513.94	8740	
514.14	8174.1	
514.33	7243.7	
514.53	7080.5	
514.73	8172.8	
514.92	8251.9	
515.12	6674.3	
515.32	6462.7	
515.51	8415.1	
515.71	8763.3	
515.91	7873.1	
516.11	6498.2	
516.3	9886.9	
516.5	8044.4	
516.7	7027.9	
516.89	7505.8	
517.09	8148.9	
517.29	8099	
517.48	7171.3	
517.68	6678.4	
517.88	7898.3	
518.07	8436.9	
518.27	7062.1	
518.47	6342.6	
518.66	8927.8	
518.86	7773.4	
519.06	6236.7	
519.25	6602	
519.45	8081.3	
519.65	9368.8	
519.84	7120.1	
520.04	7706.5	
520.24	9631.6	
520.43	8574.8	
520.63	6866.8	
520.83	6625.2	
521.02	7948.8	
521.22	8482.7	
521.42	7070.3	
521.61	7570	
521.81	8176.9	
522.01	8269	
522.2	6940.6	
522.4	6723.5	
522.6	8653.4	
522.79	7613	
522.99	6829.3	
523.18	6310.5	
523.38	8470.4	
523.58	8460.8	
523.77	7930.4	
523.97	6307.1	
524.17	10013	
524.36	9404.3	
524.56	7499	
524.76	7169.9	
524.95	8466.3	
525.15	8181.6	
525.34	6891.4	
525.54	7073	
525.74	8839.7	
525.93	7995.3	
526.13	7944.8	
526.33	6882.5	
526.52	9118.9	
526.72	8665.6	
526.91	8004.1	
527.11	7378.8	
527.31	9062.3	
527.5	9485.5	
527.7	7242.3	
527.89	6566.5	
528.09	8267.6	
528.29	8706.6	
528.48	7686	
528.68	7372	
528.87	9079.3	
529.07	9128.5	
529.27	7266.9	
529.46	6849.1	
529.66	8689.5	
529.85	9138	
530.05	6735.1	
530.25	7387.7	
530.44	9833	
530.64	8656.8	
530.83	7118.7	
531.03	7307.8	
531.23	9047.2	
531.42	8832.2	
531.62	8056	
531.81	7253.2	
532.01	9292.3	
532.21	9512.8	
532.4	7089.4	
532.6	7375.4	
532.79	9971.6	
532.99	9245.9	
533.18	7418.4	
533.38	8276.5	
533.58	8893.6	
533.77	9451.4	
533.97	7448.5	
534.16	8067.6	
534.36	9757.2	
534.55	8887.5	
534.75	8214.4	
534.95	7536.5	
535.14	9644.6	
535.34	8947.6	
535.53	7185.6	
535.73	8905.3	
535.92	10001	
536.12	8967.4	
536.31	7218.4	
536.51	8275.2	
536.71	9254.8	
536.9	8902.5	
537.1	7370	
537.29	7552.2	
537.49	9666.4	
537.68	8908.7	
537.88	7814.4	
538.07	7058.7	
538.27	9078.6	
538.46	9842.5	
538.66	7072.3	
538.86	7436.2	
539.05	9185.1	
539.25	9381.7	
539.44	7739.3	
539.64	7382.9	
539.83	8983.1	
540.03	9738.8	
540.22	7221.8	
540.42	7283.9	
540.61	9229.5	
540.81	9241.8	
541	7678.5	
541.2	8196.7	
541.39	8743.5	
541.59	9099.1	
541.78	8023.9	
541.98	7200.7	
542.18	8593.3	
542.37	8435.6	
542.57	7504.4	
542.76	8017.1	
542.96	8529.1	
543.15	9073.2	
543.35	7527.7	
543.54	6950.8	
543.74	9267.7	
543.93	8981.7	
544.13	7547.4	
544.32	8325.7	
544.52	9233.6	
544.71	8607.6	
544.91	6720.1	
545.1	7815.7	
545.3	8599.4	
545.49	9069.8	
545.69	6732.4	
545.88	7164.5	
546.08	9964.7	
546.27	9550.4	
546.47	7691.5	
546.66	7012.9	
546.86	9291.6	
547.05	9770.9	
547.24	7195.2	
547.44	7107.1	
547.63	8479.3	
547.83	9311.4	
548.02	7432.1	
548.22	7522.2	
548.41	8224.6	
548.61	9359.2	
548.8	7011.6	
549	6961.7	
549.19	8916.2	
549.39	9082.7	
549.58	6698.9	
549.78	7255.3	
549.97	9111.4	
550.17	8734.6	
550.36	7951.6	
550.55	8767.4	
550.75	8598.1	
550.94	9475.3	
551.14	6878.4	
551.33	7265.5	
551.53	8090.2	
551.72	8974.2	
551.92	7225.2	
552.11	7016.3	
552.31	8976.9	
552.5	8886.1	
552.69	8455.4	
552.89	6644.3	
553.08	8957.1	
553.28	8606.9	
553.47	7059.3	
553.67	7981.6	
553.86	9473.9	
554.06	8040.3	
554.25	6362.4	
554.44	6949.4	
554.64	10137	
554.83	9721	
555.03	6803.4	
555.22	7203.4	
555.42	9056.1	
555.61	8872.5	
555.8	6955.6	
556	7250.5	
556.19	8186.4	
556.39	9148.3	
556.58	6983.6	
556.78	7122.8	
556.97	8731.9	
557.16	8450.6	
557.36	8056.7	
557.55	6748.1	
557.75	7838.3	
557.94	9372.9	
558.13	6837.5	
558.33	6668.9	
558.52	9205.6	
558.72	8165.3	
558.91	6707.1	
559.1	6916.7	
559.3	7969.3	
559.49	7814.4	
559.69	6340.5	
559.88	7262.8	
560.07	8657.4	
560.27	9096.4	
560.46	7320.1	
560.66	7499.7	
560.85	8482.7	
561.04	7785	
561.24	6665.5	
561.43	6775.4	
561.63	7912.7	
561.82	8302.5	
562.01	7789.8	
562.21	7095.5	
562.4	8673.8	
562.59	9435	
562.79	6914.6	
562.98	6595.1	
563.18	8724.3	
563.37	9780.4	
563.56	7322.9	
563.76	6588.3	
563.95	8178.9	
564.14	8064.2	
564.34	6928.3	
564.53	6752.8	
564.73	8624.7	
564.92	8873.8	
565.11	7050.5	
565.31	6602.7	
565.5	8997.4	
565.69	8125.7	
565.89	6808.1	
566.08	6962.4	
566.27	8970.8	
566.47	9311.4	
566.66	7504.4	
566.85	6412.9	
567.05	8603.5	
567.24	8174.1	
567.44	6754.9	
567.63	7870.3	
567.82	8851.3	
568.02	8658.1	
568.21	6632.7	
568.4	6970.6	
568.6	8520.2	
568.79	8525.7	
568.98	6622.4	
569.18	6722.1	
569.37	8502.5	
569.56	10228	
569.76	7012.9	
569.95	7762.5	
570.14	8817.2	
570.34	8650.6	
570.53	6631.3	
570.72	6606.7	
570.91	9209.7	
571.11	8537.3	
571.3	7044.3	
571.49	7821.2	
571.69	8555	
571.88	8123.6	
572.07	7507.9	
572.27	7476.5	
572.46	8110	
572.65	9029.5	
572.85	6812.9	
573.04	7116.7	
573.23	9278	
573.43	8568.7	
573.62	6687.3	
573.81	7304.4	
574	8661.5	
574.2	8509.3	
574.39	6949.4	
574.58	7086.7	
574.78	9391.3	
574.97	8706.6	
575.16	7320.8	
575.36	7541.3	
575.55	9044.5	
575.74	9237.7	
575.93	6608.8	
576.13	7486.7	
576.32	8571.4	
576.51	9045.2	
576.71	7095.5	
576.9	8173.4	
577.09	9321.7	
577.28	8907.3	
577.48	7345.4	
577.67	6590.4	
577.86	8637	
578.05	8829.5	
578.25	7110.5	
578.44	7215.7	
578.63	8710	
578.83	9787.9	
579.02	6630.6	
579.21	7955.7	
579.4	8840.4	
579.6	8639	
579.79	7264.1	
579.98	9170.8	
580.17	9145.5	
580.37	9209	
580.56	6804	
580.75	7396.6	
580.94	9577.7	
581.14	9460.9	
581.33	7867.6	
581.52	6929.6	
581.71	8991.9	
581.91	9588.6	
582.1	6716	
582.29	7227.3	
582.48	8813.8	
582.68	8693.6	
582.87	7629.4	
583.06	7282.6	
583.25	9064.3	
583.45	8736	
583.64	7790.5	
583.83	8367.3	
584.02	8595.3	
584.21	8970.1	
584.41	7823.9	
584.6	7183.6	
584.79	8804.2	
584.98	9368.1	
585.18	6769.2	
585.37	6701.6	
585.56	8440.4	
585.75	8963.3	
585.94	6967.9	
586.14	7608.2	
586.33	9474.6	
586.52	8576.9	
586.71	7392.5	
586.91	7150.1	
587.1	8196	
587.29	9060.9	
587.48	7096.9	
587.67	6976.7	
587.87	8951	
588.06	9011.1	
588.25	8092.9	
588.44	7517.4	
588.63	8658.1	
588.83	9061.6	
589.02	7114	
589.21	6945.3	
589.4	8548.2	
589.59	8301.1	
589.78	6305.7	
589.98	6526.9	
590.17	7974.8	
590.36	8476.5	
590.55	5986.2	
590.74	6665.5	
590.94	9551	
591.13	8417.2	
591.32	6580.8	
591.51	6090	
591.7	8772.8	
591.89	8378.2	
592.09	6257.9	
592.28	6621.8	
592.47	7647.8	
592.66	9287.5	
592.85	6234.7	
593.05	6477.7	
593.24	8153	
593.43	8834.3	
593.62	6494.8	
593.81	6874.3	
594	8189.1	
594.19	8397.4	
594.39	6413.6	
594.58	6324.1	
594.77	8481.3	
594.96	8902.5	
595.15	6386.9	
595.34	6825.2	
595.54	8472.4	
595.73	7706.5	
595.92	5807.4	
596.11	6768.5	
596.3	8916.2	
596.49	7913.4	
596.68	6591.7	
596.88	6969.9	
597.07	8591.9	
597.26	7651.2	
597.45	6128.9	
597.64	7132.4	
597.83	7942.7	
598.02	8407.6	
598.22	6166.4	
598.41	6831.3	
598.6	8170	
598.79	7715.4	
598.98	6248.4	
599.17	7024.5	
599.36	8262.9	
599.55	9243.2	
599.74	7888.8	
599.94	7702.4	
600.13	8669.1	
600.32	7632.1	
600.51	5886.5	
600.7	6122.1	
600.89	9162.6	
601.08	9249.3	
601.27	5885.2	
601.47	6706.4	
601.66	8513.4	
601.85	9110.7	
602.04	6460	
602.23	6685.3	
602.42	7699	
602.61	8319.5	
602.8	6389	
602.99	6203.3	
603.18	8059.4	
603.37	8163.2	
603.57	6815.6	
603.76	7163.8	
603.95	8880.7	
604.14	8442.4	
604.33	6387.6	
604.52	6459.3	
604.71	8139.3	
604.9	7827.3	
605.09	7280.5	
605.28	6904.4	
605.47	8745.5	
605.66	8372.8	
605.86	6677.1	
606.05	6257.2	
606.24	8628.1	
606.43	7457.3	
606.62	6582.2	
606.81	7182.9	
607	8527.1	
607.19	7929.7	
607.38	6054.5	
607.57	6171.9	
607.76	7825.3	
607.95	7260.7	
608.14	6666.8	
608.33	7040.2	
608.52	7798.7	
608.72	8547.5	
608.91	5878.4	
609.1	5823.7	
609.29	7873.1	
609.48	7451.9	
609.67	6737.8	
609.86	5935	
610.05	7536.5	
610.24	7849.2	
610.43	5844.2	
610.62	5498.1	
610.81	8719.6	
611	8551	
611.19	5973.9	
611.38	6580.1	
611.57	8038.3	
611.76	9090.3	
611.95	5727.5	
612.14	5617.6	
612.33	7849.2	
612.52	7522.9	
612.71	6218.3	
612.9	5526.8	
613.09	7169.3	
613.28	9099.1	
613.47	6101.6	
613.66	6780.1	
613.85	7998	
614.04	7592.5	
614.24	6059.9	
614.43	5428.5	
614.62	8080.6	
614.81	8047.2	
615	6536.4	
615.19	6459.3	
615.38	7445.7	
615.57	7734.5	
615.76	6364.4	
615.95	7162.4	
616.14	8120.9	
616.33	7759.1	
616.52	6666.8	
616.71	6826.6	
616.9	8056.7	
617.09	7951.6	
617.28	6158.9	
617.47	7131.7	
617.66	7352.2	
617.85	7294.2	
618.04	6860	
618.22	6411.5	
618.41	7666.2	
618.6	8361.9	
618.79	6193.7	
618.98	6105.7	
619.17	8547.5	
619.36	7133.1	
619.55	6218.3	
619.74	6311.2	
619.93	8132.5	
620.12	7552.9	
620.31	6731.7	
620.5	6808.8	
620.69	8516.8	
620.88	8822.6	
621.07	7432.1	
621.26	6637.5	
621.45	8088.8	
621.64	8175.5	
621.83	6748.7	
622.02	6063.4	
622.21	8163.2	
622.4	8054.7	
622.59	7144	
622.78	7055.3	
622.97	7628	
623.16	8543.4	
623.35	6764.4	
623.54	5963	
623.72	7780.2	
623.91	8067.6	
624.1	6894.1	
624.29	5760.3	
624.48	8948.9	
624.67	8268.3	
624.86	6817	
625.05	5958.2	
625.24	8975.6	
625.43	7631.4	
625.62	8242.4	
625.81	6186.9	
626	8493.6	
626.19	7826	
626.38	6857.3	
626.56	6461.3	
626.75	7735.2	
626.94	8295	
627.13	6858	
627.32	5798.5	
627.51	8309.3	
627.7	9373.6	
627.89	5902.9	
628.08	6841.6	
628.27	7645.1	
628.46	7880.6	
628.65	6270.9	
628.83	5870.8	
629.02	8282	
629.21	7713.3	
629.4	6467.5	
629.59	6685.3	
629.78	7589.1	
629.97	8540	
630.16	6742.6	
630.35	6257.9	
630.54	8769.4	
630.72	8635.6	
630.91	6287.3	
631.1	6782.2	
631.29	8112.7	
631.48	8171.4	
631.67	6761.7	
631.86	6362.4	
632.05	7761.8	
632.24	7929.7	
632.42	6081.8	
632.61	6584.9	
632.8	7829.4	
632.99	7517.4	
633.18	6582.9	
633.37	6918.7	
633.56	8093.6	
633.75	8030.1	
633.93	6599.2	
634.12	6302.3	
634.31	8826.7	
634.5	8396	
634.69	6362.4	
634.88	6757.6	
635.07	7932.5	
635.25	8400.1	
635.44	7159	
635.63	7260	
635.82	7789.8	
636.01	7300.3	
636.2	7120.8	
636.39	6716.7	
636.57	8760.5	
636.76	8424	
636.95	6111.1	
637.14	7300.3	
637.33	8153	
637.52	8912.8	
637.7	6010.1	
637.89	6894.8	
638.08	7871	
638.27	9013.1	
638.46	6892.8	
638.65	7204.1	
638.83	8966.7	
639.02	7667.6	
639.21	6867.5	
639.4	7220.5	
639.59	8049.2	
639.78	7653.9	
639.96	6174.6	
640.15	6248.4	
640.34	7933.1	
640.53	8072.4	
640.72	5979.4	
640.91	6184.9	
641.09	7396.6	
641.28	8574.2	
641.47	6201.9	
641.66	6895.5	
641.85	7998	
642.03	8251.9	
642.22	6746.7	
642.41	6252.4	
642.6	7567.2	
642.79	7047.7	
642.97	6138.4	
643.16	6651.1	
643.35	7578.2	
643.54	7363.1	
643.73	6016.9	
643.91	6720.1	
644.1	7234.1	
644.29	7812.3	
644.48	6106.4	
644.67	6164.4	
644.85	7417.1	
645.04	7813	
645.23	5754.8	
645.42	6016.2	
645.6	7404.8	
645.79	8267.6	
645.98	5978	
646.17	5235.3	
646.36	7103	
646.54	7561.8	
646.73	6641.6	
646.92	5746.6	
647.11	7208.8	
647.29	8156.4	
647.48	5724.1	
647.67	5543.2	
647.86	8420.6	
648.05	8381	
648.23	6008.1	
648.42	7067.5	
648.61	7803.4	
648.8	7572	
648.98	5660.6	
649.17	5957.5	
649.36	7180.9	
649.55	6746.7	
649.73	5722	
649.92	6272.9	
650.11	7113.3	
650.3	7423.2	
650.48	5809.4	
650.67	5614.2	
650.86	7598	
651.05	6684.6	
651.23	5765	
651.42	5747.3	
651.61	7132.4	
651.79	7197.9	
651.98	5922	
652.17	5525.4	
652.36	7452.6	
652.54	6716.7	
652.73	5636.7	
652.92	5482.4	
653.11	7585.7	
653.29	7580.9	
653.48	4994.3	
653.67	5834.7	
653.85	7306.5	
654.04	8110.6	
654.23	5986.2	
654.42	5674.9	
654.6	6883.2	
654.79	7484.6	
654.98	5227.8	
655.16	5739.1	
655.35	6576.7	
655.54	6429.3	
655.73	5237.3	
655.91	5158.8	
656.1	7407.5	
656.29	6393.8	
656.47	4810.7	
656.66	6235.4	
656.85	6717.3	
657.03	6717.3	
657.22	5310.4	
657.41	5292.6	
657.59	6757.6	
657.78	6570.6	
657.97	5029.1	
658.16	5659.9	
658.34	7326.3	
658.53	7767.9	
658.72	6348.7	
658.9	6831.3	
659.09	6969.9	
659.28	6937.2	
659.46	5339.1	
659.65	5341.1	
659.84	6681.2	
660.02	7208.8	
660.21	5343.8	
660.4	5209.3	
660.58	7487.4	
660.77	6945.3	
660.96	5718.6	
661.14	5031.9	
661.33	8045.8	
661.52	7866.2	
661.7	4923.3	
661.89	8024.6	
662.08	6664.1	
662.26	6254.5	
662.45	5180.7	
662.64	5276.9	
662.82	7221.1	
663.01	6468.2	
663.2	5259.2	
663.38	5917.9	
663.57	7116	
663.75	7044.3	
663.94	5521.3	
664.13	6599.9	
664.31	6602	
664.5	7214.3	
664.69	5860.6	
664.87	6253.1	
665.06	6386.2	
665.25	6958.3	
665.43	6410.1	
665.62	6434.7	
665.8	7305.1	
665.99	6754.9	
666.18	5542.5	
666.36	5556.8	
666.55	7238.2	
666.74	7162.4	
666.92	5225.1	
667.11	6591	
667.29	6759.7	
667.48	7204.1	
667.67	6242.2	
667.85	5419.6	
668.04	6746	
668.22	6682.5	
668.41	5532.2	
668.6	5754.1	
668.78	6601.3	
668.97	6795.8	
669.15	5848.3	
669.34	4951.3	
669.53	6595.1	
669.71	6823.1	
669.9	5144.5	
670.08	5705.6	
670.27	6590.4	
670.46	7058.7	
670.64	5877	
670.83	6067.4	
671.01	6447.7	
671.2	6976.7	
671.38	5128.1	
671.57	5119.9	
671.76	7533.1	
671.94	7984.3	
672.13	5046.2	
672.31	5915.9	
672.5	7109.2	
672.69	6523.5	
672.87	5199.1	
673.06	5476.3	
673.24	7015.7	
673.43	6675	
673.61	5801.9	
673.8	5429.2	
673.98	7148.8	
674.17	7307.8	
674.36	5916.6	
674.54	5794.4	
674.73	6914.6	
674.91	7199.3	
675.1	5557.5	
675.28	5205.3	
675.47	6808.8	
675.65	7211.6	
675.84	5425.8	
676.03	5662.6	
676.21	6569.2	
676.4	6132.3	
676.58	6100.9	
676.77	5995.1	
676.95	7757.7	
677.14	6455.9	
677.32	5081.7	
677.51	5009.3	
677.69	7240.9	
677.88	6273.6	
678.06	5071.5	
678.25	5177.3	
678.44	6787	
678.62	6524.1	
678.81	4920.6	
678.99	5651	
679.18	7408.2	
679.36	7141.9	
679.55	5448.3	
679.73	5942.5	
679.92	7060	
680.1	6580.1	
680.29	6489.3	
680.47	5380	
680.66	6602.7	
680.84	7172	
681.03	4801.8	
681.21	5698.8	
681.4	6587	
681.58	6440.9	
681.77	5238.7	
681.95	5134.3	
682.14	7230	
682.32	7615	
682.51	5919.3	
682.69	4943.8	
682.88	6504.3	
683.06	6974	
683.25	5672.9	
683.43	6079.1	
683.62	6810.9	
683.8	7092.1	
683.99	6163	
684.17	5530.9	
684.36	7776.1	
684.54	6668.2	
684.73	4967.7	
684.91	5041.4	
685.1	6947.4	
685.28	6455.2	
685.46	5575.3	
685.65	5709.7	
685.83	7212.9	
686.02	6612.9	
686.2	5154.7	
686.39	5169.1	
686.57	6526.9	
686.76	7730.4	
686.94	5151.3	
687.13	5200.5	
687.31	6918	
687.5	6488	
687.68	4790.2	
687.86	5780.1	
688.05	8169.3	
688.23	6137.1	
688.42	5856.5	
688.6	5126.7	
688.79	6468.9	
688.97	6424.5	
689.16	5520	
689.34	4564.2	
689.52	7083.9	
689.71	7316.7	
689.89	5736.4	
690.08	5126.1	
690.26	6724.2	
690.45	6624.5	
690.63	5859.2	
690.81	5353.4	
691	6554.9	
691.18	6441.5	
691.37	5457.2	
691.55	7260	
691.74	6387.6	
691.92	8176.9	
692.1	5433.3	
692.29	4937	
692.47	6647	
692.66	6013.5	
692.84	5051	
693.02	5486.5	
693.21	6134.3	
693.39	6578.8	
693.58	5597.1	
693.76	5220.3	
693.94	7524.2	
694.13	7339.2	
694.31	5057.1	
694.5	6010.8	
694.68	6407.4	
694.86	6685.9	
695.05	5379.3	
695.23	5520	
695.42	7109.9	
695.6	8892.3	
695.78	5838.1	
695.97	5133.6	
696.15	7078.5	
696.34	6598.6	
696.52	5008.6	
696.7	5606	
696.89	6804	
697.07	6307.7	
697.25	5610.8	
697.44	6802	
697.62	6810.2	
697.81	7037.5	
697.99	5384.8	
698.17	5760.3	
698.36	6290.7	
698.54	6780.1	
698.72	5666.7	
698.91	4754.7	
699.09	6453.1	
699.28	6276.3	
699.46	5289.9	
699.64	5174.5	
699.83	6300.2	
700.01	7314.7	
700.19	5908.4	
700.38	4614.1	
700.56	7263.5	
700.74	6322.1	
700.93	4834.6	
701.11	5501.5	
701.29	6838.9	
701.48	7636.9	
701.66	5051.7	
701.84	5083.7	
702.03	6438.8	
702.21	6997.2	
702.39	4741.7	
702.58	5262.6	
702.76	6763.8	
702.94	6814.3	
703.13	4683	
703.31	6690	
703.49	6204	
703.68	6989	
703.86	4858.5	
704.04	5686.5	
704.23	6678.4	
704.41	6971.3	
704.59	5016.2	
704.78	6099.5	
704.96	7603.4	
705.14	7004.7	
705.33	4813.4	
705.51	5513.1	
705.69	6406	
705.87	7145.4	
706.06	5692.7	
706.24	4767.7	
706.42	6734.4	
706.61	6924.9	
706.79	5767.1	
706.97	4794.3	
707.16	6234	
707.34	6678.4	
707.52	5717.9	
707.7	4911	
707.89	6313.2	
708.07	6032.6	
708.25	5735.7	
708.44	5769.1	
708.62	6247.7	
708.8	7210.9	
708.98	5919.3	
709.17	5031.2	
709.35	6630.6	
709.53	6585.6	
709.72	4675.5	
709.9	5147.2	
710.08	6803.4	
710.26	6894.1	
710.45	6146.6	
710.63	4990.2	
710.81	6523.5	
710.99	6522.8	
711.18	5497.4	
711.36	5128.1	
711.54	6289.3	
711.72	7004.7	
711.91	5212.1	
712.09	4617.5	
712.27	6535.8	
712.45	7345.4	
712.64	5362.9	
712.82	4481.6	
713	6086.6	
713.18	6275	
713.37	4623.6	
713.55	5692	
713.73	6973.3	
713.91	5741.1	
714.1	4995	
714.28	4520.5	
714.46	6732.4	
714.64	5991.7	
714.83	4112.3	
715.01	4788.8	
715.19	6104.3	
715.37	5501.5	
715.55	4487.1	
715.74	4760.2	
715.92	6788.3	
716.1	5076.9	
716.28	5683.8	
716.47	4932.9	
716.65	5680.4	
716.83	5791	
717.01	4767.7	
717.19	4772.4	
717.38	7520.1	
717.56	5461.2	
717.74	4945.8	
717.92	4180.6	
718.1	6509.1	
718.29	5788.2	
718.47	3805.8	
718.65	4421.6	
718.83	6393.1	
719.01	6290.7	
719.2	3741.6	
719.38	4730.8	
719.56	6034.7	
719.74	7353.6	
719.92	4320.5	
720.11	5190.9	
720.29	6137.1	
720.47	5274.2	
720.65	3973.7	
720.83	4745.1	
721.02	5737.7	
721.2	5504.9	
721.38	4720.6	
721.56	4118.5	
721.74	5115.1	
721.92	5261.2	
722.11	5154.1	
722.29	4990.2	
722.47	6305	
722.65	5593	
722.83	4145.8	
723.01	4887.1	
723.2	5616.2	
723.38	5935	
723.56	3650.2	
723.74	4661.2	
723.92	5210.7	
724.1	6211.5	
724.29	4016.7	
724.47	5050.3	
724.65	5328.1	
724.83	5203.2	
725.01	3992.2	
725.19	4687.1	
725.37	5252.4	
725.56	5266.7	
725.74	3801.7	
725.92	4043.4	
726.1	5181.4	
726.28	5433.3	
726.46	4420.9	
726.64	4218.1	
726.83	5438.7	
727.01	5665.4	
727.19	3819.5	
727.37	4504.2	
727.55	5545.2	
727.73	5941.8	
727.91	3805.8	
728.09	3636.5	
728.28	5973.2	
728.46	6240.8	
728.64	4553.3	
728.82	4498	
729	6884.6	
729.18	6298.2	
729.36	3820.1	
729.54	5795.8	
729.72	7076.4	
729.91	5621	
730.09	5509	
730.27	4381.3	
730.45	5541.8	
730.63	6070.2	
730.81	4859.8	
730.99	4085.7	
731.17	6505.7	
731.35	5197.7	
731.53	4567.7	
731.71	4147.1	
731.9	6318	
732.08	6402.6	
732.26	4433.9	
732.44	4066.6	
732.62	6428.6	
732.8	6015.6	
732.98	4838	
733.16	3956.7	
733.34	6038.8	
733.52	4896.7	
733.7	4399	
733.88	4670.1	
734.07	5848.3	
734.25	5642.2	
734.43	3930.7	
734.61	5241.4	
734.79	6901.7	
734.97	5532.9	
735.15	4042	
735.33	4342.4	
735.51	5924.8	
735.69	5524.1	
735.87	5240.8	
736.05	4479.6	
736.23	5668.8	
736.41	5449.6	
736.59	4326	
736.77	4459.8	
736.95	6062.7	
737.13	5559.6	
737.32	4059.1	
737.5	4227	
737.68	6548	
737.86	5480.4	
738.04	3886.4	
738.22	5538.4	
738.4	5332.2	
738.58	5601.2	
738.76	4405.2	
738.94	3512.3	
739.12	5416.2	
739.3	5311.7	
739.48	4836.6	
739.66	4721.3	
739.84	5646.9	
740.02	5608.7	
740.2	3678.2	
740.38	3922.5	
740.56	5987.6	
740.74	4935.6	
740.92	4490.5	
741.1	4351.3	
741.28	5505.6	
741.46	5364.3	
741.64	4140.3	
741.82	4561.5	
742	5504.9	
742.18	5514.5	
742.36	4287.1	
742.54	3886.4	
742.72	6016.9	
742.9	4892.6	
743.08	4617.5	
743.26	3549.8	
743.44	6137.1	
743.62	5967.1	
743.8	4778.6	
743.98	3951.2	
744.16	5778	
744.34	5461.2	
744.52	4607.9	
744.7	4666.6	
744.88	5870.8	
745.06	5514.5	
745.24	4651.6	
745.42	4810	
745.6	5958.2	
745.78	5812.1	
745.96	3684.3	
746.14	3979.2	
746.32	6632	
746.5	5950.7	
746.68	4455.7	
746.86	4029.7	
747.03	6315.9	
747.21	4910.3	
747.39	4394.9	
747.57	4011.3	
747.75	5654.4	
747.93	5982.8	
748.11	3902.7	
748.29	3923.2	
748.47	6978.8	
748.65	5377.3	
748.83	4589.5	
749.01	4322.6	
749.19	5831.9	
749.37	5066	
749.55	4243.4	
749.73	4317.1	
749.91	5549.3	
750.09	5313.8	
750.26	4359.4	
750.44	3876.1	
750.62	5565	
750.8	5550.7	
750.98	3760.8	
751.16	4027.7	
751.34	5648.3	
751.52	5089.2	
751.7	4726.7	
751.88	3708.9	
752.06	6019.7	
752.24	5802.6	
752.42	3741.6	
752.59	4011.3	
752.77	5498.8	
752.95	6573.3	
753.13	4536.3	
753.31	4157.4	
753.49	5217.5	
753.67	5610.1	
753.85	4334.9	
754.03	3990.8	
754.21	5878.4	
754.38	6149.4	
754.56	4128	
754.74	3381.9	
754.92	5252.4	
755.1	5866.7	
755.28	3384.6	
755.46	3487.7	
755.64	6627.9	
755.82	6675.7	
755.99	3770.3	
756.17	3827.7	
756.35	4562.9	
756.53	5902.2	
756.71	2908.1	
756.89	3720.5	
757.07	5539.1	
757.25	4758.8	
757.42	4099.4	
757.6	4913.1	
757.78	5584.1	
757.96	4718.5	
758.14	3801	
758.32	3503.4	
758.5	4340.3	
758.67	5087.2	
758.85	3749.1	
759.03	3858.4	
759.21	5270.1	
759.39	4780	
759.57	3358	
759.75	4385.4	
759.92	5801.2	
760.1	5246.9	
760.28	4642.1	
760.46	4870.8	
760.64	5008	
760.82	4758.8	
760.99	4533.5	
761.17	3803.1	
761.35	5662.6	
761.53	4782	
761.71	3819.5	
761.89	4556.7	
762.06	5517.9	
762.24	5081.7	
762.42	3973.7	
762.6	3769.6	
762.78	5072.8	
762.96	5659.2	
763.13	4340.3	
763.31	3959.4	
763.49	5720	
763.67	5057.1	
763.85	4689.8	
764.02	5144.5	
764.2	5975.3	
764.38	5260.5	
764.56	3859.7	
764.74	4617.5	
764.91	6078.4	
765.09	5083.7	
765.27	3658.4	
765.45	3385.3	
765.63	6121.4	
765.8	5851	
765.98	3203	
766.16	3478.8	
766.34	4749.9	
766.52	4598.4	
766.69	4248.9	
766.87	3326.6	
767.05	5096	
767.23	5853.8	
767.41	3664.5	
767.58	3909.6	
767.76	5638.1	
767.94	5722.7	
768.12	3746.4	
768.29	4287.1	
768.47	5127.4	
768.65	5868.8	
768.83	3383.9	
769	4390.2	
769.18	4848.2	
769.36	5396.4	
769.54	4366.3	
769.72	3450.1	
769.89	5751.4	
770.07	5767.1	
770.25	3738.2	
770.43	4849.6	
770.6	6369.9	
770.78	6677.7	
770.96	3929.4	
771.14	4397.7	
771.31	5610.1	
771.49	5074.2	
771.67	3213.3	
771.85	3433.8	
772.02	4405.9	
772.2	5081.7	
772.38	4060.4	
772.55	3650.2	
772.73	5354.1	
772.91	5122.7	
773.09	3874.1	
773.26	3980.6	
773.44	5303.6	
773.62	4999.1	
773.8	3559.4	
773.97	3294.5	
774.15	5375.9	
774.33	5057.1	
774.5	3434.4	
774.68	3753.9	
774.86	5509.7	
775.04	5043.5	
775.21	3505.4	
775.39	3489.7	
775.57	5277.6	
775.74	5580.7	
775.92	3370.3	
776.1	3252.2	
776.27	5292.6	
776.45	6257.2	
776.63	3558.7	
776.81	3159.3	
776.98	4932.2	
777.16	5879	
777.34	3624.2	
777.51	3883.6	
777.69	4927.4	
777.87	4762.2	
778.04	3710.9	
778.22	4214	
778.4	4756.1	
778.57	5371.8	
778.75	3072.6	
778.93	3313.6	
779.1	4705.5	
779.28	4481	
779.46	3067.9	
779.64	3488.4	
779.81	5533.6	
779.99	6275.7	
780.17	4186.7	
780.34	4321.2	
780.52	5031.2	
780.69	5242.8	
780.87	3805.8	
781.05	3444.7	
781.22	5126.1	
781.4	5159.5	
781.58	3525.2	
781.75	2856.2	
781.93	5182.7	
782.11	4589.5	
782.28	4304.8	
782.46	3538.2	
782.64	4485.1	
782.81	5289.9	
782.99	3641.3	
783.17	3551.2	
783.34	5216.9	
783.52	4570.4	
783.69	3731.4	
783.87	4452.3	
784.05	4704.2	
784.22	4651.6	
784.4	4468	
784.58	3856.3	
784.75	5491.3	
784.93	4712.4	
785.1	3523.9	
785.28	4102.8	
785.46	5195.7	
785.63	4655	
785.81	3533.4	
785.99	3462.4	
786.16	4782	
786.34	5068	
786.51	3485	
786.69	3792.2	
786.87	4410.6	
787.04	4900.1	
787.22	3346.4	
787.39	4143	
787.57	4615.4	
787.75	5569.8	
787.92	4328.7	
788.1	4237.9	
788.27	4644.1	
788.45	4398.4	
788.63	4012	
788.8	2893.1	
788.98	4988.9	
789.15	4295.3	
789.33	3044	
789.5	3549.1	
789.68	5431.9	
789.86	5570.5	
790.03	3930.7	
790.21	3439.9	
790.38	5477	
790.56	4792.9	
790.73	3328.6	
790.91	3360	
791.09	4619.5	
791.26	5319.3	
791.44	3554.6	
791.61	3110.2	
791.79	4655.7	
791.96	4691.2	
792.14	3189.4	
792.32	2816.6	
792.49	4675.5	
792.67	4801.1	
792.84	3207.8	
793.02	3067.9	
793.19	5084.4	
793.37	5727.5	
793.54	2850.8	
793.72	3190.7	
793.89	5692.7	
794.07	4675.5	
794.25	3562.1	
794.42	2899.9	
794.6	5607.3	
794.77	5241.4	
794.95	3893.9	
795.12	3407.8	
795.3	4630.5	
795.47	5179.3	
795.65	3779.2	
795.82	3594.2	
796	4525.3	
796.17	6047	
796.35	3483.6	
796.52	4149.2	
796.7	5119.9	
796.87	5214.8	
797.05	3513.6	
797.22	4264.6	
797.4	5193	
797.57	5990.3	
797.75	3645.4	
797.92	3409.2	
798.1	5462.6	
798.27	4557.4	
798.45	2977.7	
798.62	3159.3	
798.8	4917.9	
798.97	5363.6	
799.15	3792.8	
799.32	3612.6	
799.5	4304.1	
799.67	4954.7	
799.85	3967.6	
800.02	2895.8	
800.2	4604.5	
800.37	4860.5	
800.55	4055	
800.72	3393.5	
800.9	5352.7	
801.07	5644.2	
801.25	4553.3	
801.42	3714.3	
801.6	5371.1	
801.77	5037.3	
801.95	3491.1	
802.12	3328.6	
802.29	5122	
802.47	5018.2	
802.64	3782.6	
802.82	2856.9	
802.99	4653.7	
803.17	5454.4	
803.34	3619.4	
803.52	3279.5	
803.69	6057.2	
803.87	4448.9	
804.04	3643.3	
804.21	3664.5	
804.39	5559.6	
804.56	4792.2	
804.74	3100.6	
804.91	3678.2	
805.09	4646.2	
805.26	4702.8	
805.44	3158.7	
805.61	3454.9	
805.78	5204.6	
805.96	5237.3	
806.13	3751.2	
806.31	4027.7	
806.48	4248.2	
806.66	4695.3	
806.83	3748.5	
807	3693.9	
807.18	4689.8	
807.35	5066	
807.53	3654.3	
807.7	2938.8	
807.87	5650.3	
808.05	4683	
808.22	3990.8	
808.4	2971.6	
808.57	4687.1	
808.74	4379.9	
808.92	3353.9	
809.09	4195.6	
809.27	4621.6	
809.44	5132.2	
809.61	2973.7	
809.79	3302.7	
809.96	5701.5	
810.14	5285.1	
810.31	2919.7	
810.48	3564.8	
810.66	4783.4	
810.83	5356.1	
811.01	3375.1	
811.18	3712.3	
811.35	5338.4	
811.53	4199	
811.7	4013.3	
811.87	3683.6	
812.05	4729.4	
812.22	4599.7	
812.39	3253.5	
812.57	3143.6	
812.74	4724	
812.92	6146.6	
813.09	3539.6	
813.26	3795.6	
813.44	5878.4	
813.61	4609.3	
813.78	2941.6	
813.96	3930.1	
814.13	4705.5	
814.3	4437.9	
814.48	4166.9	
814.65	3504.8	
814.82	5917.3	
815	4467.3	
815.17	3644.7	
815.34	4412	
815.52	4622.3	
815.69	4649.6	
815.87	3562.8	
816.04	3586	
816.21	4665.3	
816.38	4229.1	
816.56	3453.6	
816.73	3221.5	
816.9	5933	
817.08	5301.5	
817.25	3321.1	
817.42	4100	
817.6	4302.1	
817.77	4668	
817.94	3616	
818.12	3213.9	
818.29	4468	
818.46	6765.8	
818.64	3412.6	
818.81	3175	
818.98	4428.4	
819.16	6229.9	
819.33	3897.3	
819.5	3625.6	
819.67	5005.9	
819.85	5558.2	
820.02	3568.2	
820.19	3743.7	
820.37	4941.1	
820.54	4599.1	
820.71	3611.3	
820.88	4486.4	
821.06	4880.3	
821.23	4479.6	
821.4	3697.3	
821.58	3648.8	
821.75	5344.5	
821.92	4862.6	
822.09	3004.4	
822.27	3278.1	
822.44	4752.7	
822.61	4625.7	
822.79	3038.5	
822.96	5618.9	
823.13	5036.6	
823.3	4445.5	
823.48	3452.2	
823.65	3081.5	
823.82	5277.6	
823.99	4332.1	
824.17	4377.2	
824.34	3155.9	
824.51	6115.2	
824.68	4792.2	
824.86	3315.7	
825.03	3663.1	
825.2	4681	
825.37	5612.8	
825.55	3298.6	
825.72	3607.2	
825.89	6097.5	
826.06	5760.3	
826.24	3501.3	
826.41	3551.2	
826.58	5631.9	
826.75	4990.2	
826.92	2818	
827.1	3137.5	
827.27	7539.3	
827.44	6035.4	
827.61	3334.1	
827.79	4076.1	
827.96	4481.6	
828.13	4751.3	
828.3	3510.9	
828.47	2973.7	
828.65	4917.2	
828.82	4867.3	
828.99	4463.2	
829.16	3890.5	
829.34	5281	
829.51	5093.3	
829.68	3623.5	
829.85	3702	
830.02	5600.5	
830.2	5290.6	
830.37	2806.4	
830.54	4293.2	
830.71	5925.5	
830.88	4661.9	
831.05	2868.5	
831.23	3252.9	
831.4	5743.2	
831.57	6299.6	
831.74	3403.7	
831.91	2923.1	
832.09	4983.4	
832.26	5288.5	
832.43	3449.5	
832.6	3857.7	
832.77	4965	
832.94	5555.5	
833.12	2801.6	
833.29	3435.8	
833.46	4604.5	
833.63	6542.6	
833.8	3768.9	
833.97	3438.5	
834.15	5306.3	
834.32	5119.2	
834.49	3644	
834.66	3690.4	
834.83	5421.7	
835	4543.1	
835.17	3375.1	
835.35	3368.9	
835.52	5203.2	
835.69	5042.1	
835.86	3522.5	
836.03	2927.2	
836.2	5208.7	
836.37	4924	
836.55	3415.3	
836.72	3252.2	
836.89	4877.6	
837.06	5339.7	
837.23	3495.2	
837.4	3827	
837.57	5968.5	
837.75	6492.1	
837.92	3194.8	
838.09	3351.2	
838.26	4858.5	
838.43	5455.1	
838.6	3631.7	
838.77	3280.8	
838.94	6227.2	
839.11	6034	
839.29	3545.7	
839.46	2738.1	
839.63	5276.3	
839.8	5044.8	
839.97	3364.8	
840.14	3358	
840.31	5063.3	
840.48	5281.7	
840.65	2820.7	
840.82	3317	
841	5183.4	
841.17	5208.7	
841.34	3082.2	
841.51	3209.2	
841.68	5168.4	
841.85	4959.5	
842.02	3293.8	
842.19	2667.8	
842.36	5028.4	
842.53	4988.2	
842.7	3134.1	
842.87	3757.3	
843.05	6448.4	
843.22	4969.7	
843.39	2943.6	
843.56	3217.4	
843.73	4802.5	
843.9	5353.4	
844.07	5015.5	
844.24	4095.9	
844.41	7372.7	
844.58	4563.6	
844.75	3050.8	
844.92	3276.1	
845.09	5237.3	
845.26	5226.4	
845.43	3106.1	
845.6	3272	
845.77	5270.8	
845.94	4989.5	
846.12	3373.7	
846.29	3590.8	
846.46	5430.5	
846.63	5269.4	
846.8	3094.5	
846.97	3675.4	
847.14	5627.1	
847.31	5185.5	
847.48	3507.5	
847.65	3782.6	
847.82	5442.1	
847.99	5399.1	
848.16	4100.7	
848.33	3809.2	
848.5	4836.6	
848.67	5639.4	
848.84	3025.5	
849.01	3197.6	
849.18	4778.6	
849.35	4487.1	
849.52	3813.3	
849.69	3061	
849.86	5450.3	
850.03	5576.6	
850.2	3094.5	
850.37	3688.4	
850.54	5502.2	
850.71	4952	
850.88	3654.3	
851.05	2996.2	
851.22	5124.7	
851.39	5698.8	
851.56	2906.8	
851.73	3529.3	
851.9	4595	
852.07	5436	
852.24	3437.9	
852.41	3068.5	
852.58	5115.1	
852.75	4690.5	
852.92	3478.8	
853.09	3076.7	
853.26	4874.8	
853.43	5592.3	
853.6	3085.6	
853.77	2657.6	
853.94	5624.4	
854.11	5132.2	
854.28	4495.3	
854.44	3328.6	
854.61	6049	
854.78	5498.1	
854.95	2992.8	
855.12	3790.8	
855.29	4278.2	
855.46	5689.3	
855.63	3084.9	
855.8	4216.1	
855.97	4827.7	
856.14	5582.8	
856.31	4286.4	
856.48	3327.9	
856.65	4854.4	
856.82	4655.7	
856.99	3018	
857.16	3326.6	
857.33	6289.3	
857.49	4965	
857.66	3280.8	
857.83	3543	
858	4947.9	
858.17	5115.1	
858.34	2945	
858.51	3056.9	
858.68	5771.9	
858.85	5793.7	
859.02	3505.4	
859.19	3746.4	
859.36	4601.8	
859.52	4623.6	
859.69	3082.2	
859.86	3626.3	
860.03	4764.9	
860.2	5654.4	
860.37	2856.9	
860.54	3093.8	
860.71	5364.3	
860.88	5750.7	
861.05	3490.4	
861.21	3890.5	
861.38	5824.4	
861.55	4484.4	
861.72	2889.7	
861.89	3437.9	
862.06	5472.2	
862.23	5831.9	
862.4	3039.2	
862.56	3161.4	
862.73	5371.8	
862.9	5031.2	
863.07	3515	
863.24	2800.3	
863.41	4534.9	
863.58	4649.6	
863.75	3143.6	
863.91	3553.9	
864.08	5662	
864.25	5329.5	
864.42	3826.3	
864.59	4283	
864.76	6003.3	
864.93	4629.1	
865.09	3011.9	
865.26	3242.6	
865.43	5621.7	
865.6	5982.1	
865.77	2730.6	
865.94	3069.9	
866.1	5633.3	
866.27	5381.4	
866.44	4532.2	
866.61	2898.6	
866.78	4969.1	
866.95	5309.7	
867.11	3007.8	
867.28	2791.4	
867.45	5565	
867.62	4621.6	
867.79	3571	
867.96	2969.6	
868.12	4598.4	
868.29	5423.7	
868.46	2652.1	
868.63	4058.4	
868.8	5546.6	
868.97	5392.3	
869.13	3249.4	
869.3	3202.3	
869.47	5255.8	
869.64	5444.2	
869.81	3119.7	
869.97	3070.6	
870.14	5221.6	
870.31	5785.5	
870.48	3046.7	
870.65	3926.6	
870.81	4969.7	
870.98	4988.9	
871.15	3446.7	
871.32	3218.7	
871.48	5251.7	
871.65	5757.5	
871.82	3080.1	
871.99	3431.7	
872.16	6133.7	
872.32	5616.9	
872.49	3074.7	
872.66	3131.3	
872.83	5379.3	
872.99	4798.4	
873.16	3501.3	
873.33	3044.6	
873.5	5090.6	
873.67	5130.2	
873.83	3204.4	
874	4080.9	
874.17	5224.4	
874.34	6044.9	
874.5	3943	
874.67	3829	
874.84	5750	
875.01	4591.5	
875.17	4211.3	
875.34	3056.3	
875.51	5124.7	
875.68	6152.1	
875.84	3731.4	
876.01	4502.8	
876.18	5413.5	
876.34	5300.8	
876.51	3099.9	
876.68	3037.1	
876.85	4939.7	
877.01	5653.1	
877.18	4295.3	
877.35	3052.8	
877.52	5117.9	
877.68	4632.5	
877.85	3065.1	
878.02	3059	
878.18	4986.8	
878.35	4811.4	
878.52	2484.2	
878.69	3441.3	
878.85	5446.9	
879.02	5307	
879.19	4292.5	
879.35	3299.3	
879.52	5341.8	
879.69	5488.6	
879.86	2709.5	
880.02	3417.4	
880.19	5055.1	
880.36	6058.6	
880.52	3457.7	
880.69	3583.9	
880.86	5438.7	
881.02	5473.5	
881.19	3391.4	
881.36	3287.7	
881.52	5416.2	
881.69	4776.5	
881.86	3299.3	
882.02	3198.9	
882.19	5563	
882.36	6442.9	
882.52	3183.2	
882.69	4298.7	
882.86	5143.8	
883.02	5143.1	
883.19	3700.7	
883.36	3516.4	
883.52	5421.7	
883.69	6128.9	
883.86	3139.5	
884.02	2813.2	
884.19	5392.3	
884.36	5070.1	
884.52	3500	
884.69	3195.5	
884.86	4811.4	
885.02	5891.3	
885.19	3464.5	
885.36	3505.4	
885.52	5060.5	
885.69	5167	
885.86	4418.2	
886.02	3953.3	
886.19	5457.8	
886.35	4921.3	
886.52	3427.6	
886.69	4265.2	
886.85	4599.1	
887.02	5720	
887.19	5720	
887.35	5720	
887.52	5720	
887.68	5720	
887.85	5720	
888.02	5720	
888.18	5720	
888.35	5720	
888.51	5720	
888.68	5720	
888.85	5720	
889.01	5720	
889.18	5720	
889.35	5720	
889.51	5720	
889.68	5720	
889.84	5720	
890.01	5720	
890.17	5720	
890.34	5720	
890.51	5720	
890.67	5720	
890.84	5720	
891	5720	
891.17	5720	
891.34	5720	
891.5	5720	
891.67	5720	
891.83	5720	
892	5720	
892.16	5720	
892.33	5720	
892.5	5720	
892.66	5720	
892.83	5720	
892.99	5720	
893.16	5720	
893.32	5720	
893.49	5720	
893.65	5720	
893.82	5720	
893.99	5720	
894.15	5720	
894.32	5720	
894.48	5720	
894.65	5720	
894.81	5720	
894.98	5720	
895.14	5720	
895.31	5720	
895.47	5720	
895.64	5720	
895.81	5720	
895.97	5720	
896.14	5720	
896.3	5720	
896.47	5720	
896.63	5720	
896.8	5720	
896.96	5720	
897.13	5720	
897.29	5720	
897.46	5720	
897.62	5720	
897.79	5720	
897.95	5720	
898.12	5720	
898.28	5720	
898.45	5720	
898.61	5720	
898.78	5720	
898.94	5720	
899.11	5720	
899.27	5720	
899.44	5720	
899.6	5720	
899.77	5720	
899.93	5720	
900.1	5720	
900.26	5720	
900.43	5720	
900.59	5720	
900.76	5720	
900.92	5720	
901.09	5720	
901.25	5720	
901.42	5720	
901.58	5720	
901.75	5720	
901.91	5720	
902.07	5720	
902.24	5720	
902.4	5720	
902.57	5720	
902.73	5720	
902.9	5720	
903.06	5720	
903.23	5720	
903.39	5720	
903.56	5720	
903.72	5720	
903.88	5720	
904.05	5720	
904.21	5720	
904.38	5720	
904.54	5720	
904.71	5720	
904.87	5720	
905.03	5720	
905.2	5720	
905.36	5720	
905.53	5720	
905.69	5720	
905.86	5720	
906.02	5720	
906.18	5720	
906.35	5720	
906.51	5720	
906.68	5720	
906.84	5720	
907.01	5720	
907.17	5720	
907.33	5720	
907.5	5720	
907.66	5720	
907.83	5720	
907.99	5720	
908.15	5720	
908.32	5720	
908.48	5720	
908.65	5720	
908.81	5720	
908.97	5720	
909.14	5720	
909.3	5720	
909.47	5720	
909.63	5720	
909.79	5720	
909.96	5720	
910.12	5720	
910.28	5720	
910.45	5720	
910.61	5720	
910.78	5720	
910.94	5720	
911.1	5720	
911.27	5720	
911.43	5720	
911.59	5720	
911.76	5720	
911.92	5720	
912.08	5720	
912.25	5720	
912.41	5720	
912.57	5720	
912.74	5720	
912.9	5720	
913.07	5720	
913.23	5720	
913.39	5720	
913.56	5720	
913.72	5720	
913.88	5720	
914.05	5720	
914.21	5720	
914.37	5720	
914.54	5720	
914.7	5720	
914.86	5720	
915.03	5720	
915.19	5720	
