Wavelength	Intensities	
nm	a.u.	
179.22	1696.7	
179.44	1701.9	
179.65	1691.6	
179.86	1712.1	
180.08	1674.6	
180.29	3749.1	
180.51	2988.7	
180.72	4903.5	
180.94	5446.2	
181.15	2682.2	
181.37	2650.8	
181.58	4689.2	
181.79	4846.9	
182.01	2796.8	
182.22	2919	
182.44	4917.9	
182.65	4285	
182.87	3591.5	
183.08	3168.9	
183.29	5170.4	
183.51	4364.9	
183.72	2958.6	
183.94	3969	
184.15	4643.4	
184.37	4552	
184.58	2612.5	
184.79	3354.6	
185.01	4397.7	
185.22	4946.5	
185.44	3566.2	
185.65	3093.1	
185.86	4666	
186.08	4273.4	
186.29	2569.5	
186.51	2786.6	
186.72	4401.1	
186.94	5072.1	
187.15	3156.6	
187.36	3189.4	
187.58	6257.2	
187.79	4716.5	
188.01	3254.9	
188.22	4831.8	
188.43	5477	
188.65	4941.7	
188.86	2731.3	
189.08	3185.3	
189.29	4513	
189.5	4432.5	
189.72	2990	
189.93	3034.4	
190.15	5071.5	
190.36	5788.9	
190.57	3207.8	
190.79	3095.2	
191	5082.4	
191.22	5061.2	
191.43	3245.3	
191.64	2788	
191.86	5193.6	
192.07	5099.4	
192.29	2824.1	
192.5	2962	
192.71	5041.4	
192.93	4483.7	
193.14	2876.7	
193.35	3025.5	
193.57	4465.9	
193.78	5174.5	
194	2465.1	
194.21	2882.2	
194.42	4330.8	
194.64	4712.4	
194.85	3190.7	
195.07	3605.1	
195.28	4609.3	
195.49	4129.4	
195.71	3775.8	
195.92	2808.4	
196.13	4780.6	
196.35	4861.2	
196.56	4067.9	
196.78	3171.6	
196.99	5819	
197.2	5455.8	
197.42	3495.2	
197.63	3186.6	
197.84	4264.6	
198.06	4799.8	
198.27	2935.4	
198.48	3801.7	
198.7	4502.1	
198.91	4691.9	
199.13	3234.4	
199.34	3176.4	
199.55	5059.8	
199.77	4100	
199.98	2860.3	
200.19	3172.3	
200.41	4562.2	
200.62	4334.9	
200.83	3295.9	
201.05	3509.5	
201.26	4628.4	
201.47	4381.3	
201.69	2886.3	
201.9	2780.5	
202.11	4610.7	
202.33	5367.7	
202.54	3051.5	
202.76	3317.7	
202.97	4657.1	
203.18	4765.6	
203.4	3265.8	
203.61	3342.3	
203.82	4751.3	
204.04	4410.6	
204.25	3192.8	
204.46	3121.1	
204.68	4693.3	
204.89	4758.8	
205.1	3097.9	
205.32	2771.6	
205.53	4932.2	
205.74	5079	
205.96	2448	
206.17	3170.9	
206.38	4893.3	
206.6	5003.2	
206.81	3594.9	
207.02	3024.2	
207.24	4876.9	
207.45	5108.3	
207.66	3089.7	
207.88	2695.8	
208.09	4781.3	
208.3	4613.4	
208.52	2884.2	
208.73	3119.7	
208.94	4606.6	
209.15	5203.9	
209.37	3036.5	
209.58	3149.8	
209.79	5042.1	
210.01	4545.8	
210.22	2524.5	
210.43	2570.2	
210.65	4644.1	
210.86	4896.7	
211.07	3037.1	
211.29	2852.1	
211.5	4840.7	
211.71	4566.3	
211.93	2844.6	
212.14	2832.3	
212.35	4600.4	
212.56	4696.7	
212.78	3163.4	
212.99	2707.4	
213.2	5309.7	
213.42	4524	
213.63	2931.3	
213.84	3056.3	
214.06	4252.9	
214.27	4261.8	
214.48	3016	
214.69	3253.5	
214.91	5123.3	
215.12	5164.3	
215.33	3193.5	
215.55	3506.1	
215.76	5504.3	
215.97	4868.7	
216.18	3164.8	
216.4	3110.9	
216.61	4442.7	
216.82	4974.5	
217.04	2895.8	
217.25	2950.4	
217.46	5075.5	
217.67	4896	
217.89	2669.2	
218.1	2668.5	
218.31	4661.9	
218.53	4780	
218.74	3022.8	
218.95	2873.3	
219.16	4596.3	
219.38	5248.9	
219.59	2937.5	
219.8	3315	
220.01	5672.2	
220.23	4663.2	
220.44	3618.1	
220.65	2820.1	
220.87	4683.7	
221.08	5130.2	
221.29	2704.7	
221.5	3403.7	
221.72	5979.4	
221.93	4369	
222.14	3250.1	
222.35	3732.1	
222.57	4653.7	
222.78	4943.1	
222.99	3040.6	
223.2	3267.9	
223.42	4866.7	
223.63	4932.2	
223.84	2437.8	
224.05	2547	
224.27	5644.9	
224.48	5280.3	
224.69	3686.3	
224.9	3213.9	
225.12	4810	
225.33	4670.1	
225.54	2620	
225.75	2893.1	
225.97	4381.3	
226.18	4564.9	
226.39	3087	
226.6	2919	
226.82	4506.9	
227.03	4331.5	
227.24	3144.3	
227.45	2724.5	
227.67	4926.7	
227.88	5287.2	
228.09	3591.5	
228.3	3491.8	
228.52	4922	
228.73	4579.3	
228.94	2976.4	
229.15	2714.2	
229.36	4665.3	
229.58	4607.9	
229.79	3032.4	
230	3409.2	
230.21	5394.3	
230.43	4665.3	
230.64	3166.8	
230.85	3274	
231.06	5003.2	
231.28	4960.2	
231.49	2689.7	
231.7	3168.9	
231.91	4895.3	
232.12	4657.1	
232.34	2801.6	
232.55	3069.9	
232.76	5088.5	
232.97	4776.5	
233.18	2848.7	
233.4	3185.3	
233.61	4711.7	
233.82	4447.5	
234.03	3001	
234.25	2915.6	
234.46	6120	
234.67	4679.6	
234.88	3250.8	
235.09	2940.9	
235.31	4773.1	
235.52	4586.8	
235.73	3211.2	
235.94	2727.2	
236.15	4465.3	
236.37	5458.5	
236.58	2828.2	
236.79	3072	
237	4870.1	
237.21	4262.5	
237.43	3264.5	
237.64	2630.3	
237.85	7505.8	
238.06	4355.3	
238.27	3240.6	
238.48	2708.1	
238.7	4922.6	
238.91	4528.1	
239.12	3041.9	
239.33	3177.1	
239.54	4353.3	
239.76	4551.3	
239.97	3076	
240.18	3031	
240.39	5432.6	
240.6	4772.4	
240.82	3250.1	
241.03	2708.8	
241.24	4608.6	
241.45	5191.6	
241.66	2867.2	
241.87	3302	
242.09	5201.2	
242.3	5421	
242.51	3315.7	
242.72	3054.9	
242.93	4949.3	
243.14	4634.6	
243.36	3499.3	
243.57	3720.5	
243.78	5285.1	
243.99	4890.5	
244.2	3086.3	
244.41	2778.4	
244.63	4329.4	
244.84	4835.9	
245.05	3257	
245.26	3035.1	
245.47	4883.7	
245.68	5027.1	
245.9	3910.9	
246.11	3267.9	
246.32	4502.1	
246.53	4788.2	
246.74	4718.5	
246.95	2678.1	
247.16	4370.4	
247.38	4646.8	
247.59	2634.4	
247.8	3069.9	
248.01	4321.2	
248.22	4557.4	
248.43	2830.3	
248.64	3035.1	
248.86	4284.4	
249.07	4467.3	
249.28	2790	
249.49	3191.4	
249.7	5016.2	
249.91	5036.6	
250.12	2659.6	
250.34	2695.8	
250.55	4788.8	
250.76	4592.9	
250.97	3205.1	
251.18	3200.3	
251.39	5072.1	
251.6	4784.1	
251.81	3203.7	
252.03	3194.8	
252.24	4450.2	
252.45	4952	
252.66	2761.3	
252.87	3349.8	
253.08	4683	
253.29	5762.3	
253.5	2755.9	
253.72	3668.6	
253.93	4571.7	
254.14	5318.6	
254.35	2969.6	
254.56	3043.3	
254.77	4797	
254.98	4372.4	
255.19	2942.2	
255.41	3631.7	
255.62	4788.8	
255.83	5139	
256.04	3274.7	
256.25	3132.7	
256.46	5501.5	
256.67	4427	
256.88	3172.3	
257.09	3473.4	
257.31	4280.3	
257.52	4401.1	
257.73	3815.4	
257.94	2947	
258.15	4531.5	
258.36	4646.2	
258.57	3571.7	
258.78	2433.7	
258.99	5020.9	
259.2	4513	
259.41	2908.1	
259.63	3040.6	
259.84	5229.8	
260.05	5442.8	
260.26	3678.2	
260.47	2854.9	
260.68	5072.1	
260.89	4592.9	
261.1	3476.1	
261.31	2843.9	
261.52	5126.7	
261.73	5310.4	
261.95	3738.2	
262.16	3268.6	
262.37	5181.4	
262.58	5182.7	
262.79	3651.5	
263	2956.6	
263.21	4695.3	
263.42	4238.6	
263.63	3167.5	
263.84	3027.6	
264.05	5031.2	
264.26	5287.2	
264.47	3572.3	
264.69	3164.1	
264.9	5159.5	
265.11	4769	
265.32	2872.6	
265.53	2954.5	
265.74	4747.2	
265.95	4161.5	
266.16	3132.7	
266.37	3347.7	
266.58	4723.3	
266.79	4473.4	
267	2927.9	
267.21	2789.3	
267.42	4320.5	
267.63	4643.4	
267.84	3075.4	
268.06	2654.9	
268.27	4993.6	
268.48	5141.1	
268.69	2973	
268.9	3513.6	
269.11	5138.4	
269.32	4244.8	
269.53	3091.8	
269.74	2903.3	
269.95	4816.1	
270.16	4209.3	
270.37	3121.8	
270.58	3504.1	
270.79	4550.6	
271	5001.8	
271.21	3190.7	
271.42	3080.8	
271.63	4827.7	
271.84	4300.7	
272.05	2580.4	
272.26	2828.9	
272.47	4674.8	
272.68	4788.8	
272.89	3006.4	
273.11	3325.2	
273.32	4480.3	
273.53	5294.7	
273.74	3260.4	
273.95	3190.1	
274.16	5015.5	
274.37	4653.7	
274.58	3350.5	
274.79	2770.9	
275	4762.9	
275.21	5061.9	
275.42	3969.6	
275.63	3381.9	
275.84	4834.6	
276.05	5892	
276.26	3239.9	
276.47	3064.4	
276.68	4591.5	
276.89	5433.3	
277.1	3400.3	
277.31	2789.3	
277.52	4807.9	
277.73	5070.8	
277.94	2721.8	
278.15	2960.7	
278.36	4771.8	
278.57	4427	
278.78	2947.7	
278.99	3338.2	
279.2	4463.9	
279.41	4341.7	
279.62	3828.3	
279.83	2832.3	
280.04	5510.4	
280.25	4356.7	
280.46	3785.3	
280.67	3080.1	
280.88	4469.4	
281.09	5087.2	
281.3	3193.5	
281.51	3891.1	
281.72	4415.4	
281.93	4925.4	
282.14	2930.6	
282.35	3118.4	
282.56	4992.9	
282.77	4971.8	
282.98	3008.5	
283.19	3586.7	
283.4	5945.9	
283.61	4586.1	
283.82	2790	
284.03	3654.3	
284.24	4785.4	
284.45	5061.2	
284.66	3794.2	
284.87	3542.3	
285.08	5111	
285.29	5163.6	
285.5	2682.8	
285.71	2989.4	
285.92	5055.8	
286.12	5509.7	
286.33	3693.2	
286.54	3033	
286.75	4924.7	
286.96	4601.1	
287.17	2808.4	
287.38	3556	
287.59	4467.3	
287.8	4408.6	
288.01	2993.4	
288.22	3341.6	
288.43	4860.5	
288.64	4192.2	
288.85	3517.7	
289.06	3345	
289.27	4936.3	
289.48	5248.3	
289.69	3745.1	
289.9	3424.9	
290.11	5096.7	
290.32	4491.2	
290.53	3517	
290.74	3352.5	
290.94	4950.6	
291.15	5005.9	
291.36	2919.7	
291.57	3379.1	
291.78	4534.9	
291.99	4229.1	
292.2	2840.5	
292.41	3332.7	
292.62	5036	
292.83	4871.4	
293.04	3972.4	
293.25	2897.9	
293.46	4539	
293.67	5005.9	
293.88	2895.8	
294.09	2849.4	
294.29	4334.9	
294.5	4760.8	
294.71	3091.1	
294.92	2925.2	
295.13	4525.3	
295.34	5456.5	
295.55	2643.9	
295.76	2734.7	
295.97	4912.4	
296.18	5428.5	
296.39	2766.1	
296.6	2904.7	
296.81	4701.5	
297.01	4932.2	
297.22	3011.9	
297.43	2926.5	
297.64	4442	
297.85	4394.3	
298.06	2522.4	
298.27	2675.3	
298.48	4579.3	
298.69	4474.8	
298.9	3181.2	
299.11	2873.3	
299.31	4328	
299.52	4354.7	
299.73	3381.2	
299.94	3257.6	
300.15	4673.5	
300.36	4400.4	
300.57	3262.4	
300.78	3274	
300.99	4522.6	
301.2	4714.4	
301.4	2954.5	
301.61	3084.9	
301.82	4861.9	
302.03	4916.5	
302.24	3409.9	
302.45	2818	
302.66	4814.1	
302.87	5053	
303.08	2930	
303.29	3781.2	
303.49	4528.1	
303.7	4656.4	
303.91	2649.4	
304.12	3678.2	
304.33	4245.4	
304.54	4752.7	
304.75	2932.7	
304.96	2874	
305.16	4882.4	
305.37	5412.1	
305.58	2667.1	
305.79	2645.3	
306	4924.7	
306.21	4190.8	
306.42	2912.2	
306.63	4177.9	
306.83	4521.2	
307.04	4925.4	
307.25	3155.9	
307.46	3142.3	
307.67	4126.7	
307.88	4867.3	
308.09	2944.3	
308.29	2985.3	
308.5	4711	
308.71	5029.1	
308.92	3072.6	
309.13	2830.3	
309.34	4684.4	
309.55	4614.1	
309.75	3570.3	
309.96	3278.1	
310.17	4919.9	
310.38	4397.7	
310.59	3420.1	
310.8	2821.4	
311.01	4529.4	
311.21	4573.8	
311.42	2829.6	
311.63	2902	
311.84	4496	
312.05	4681	
312.26	3245.3	
312.46	3495.2	
312.67	4486.4	
312.88	4337.6	
313.09	2827.6	
313.3	2795.5	
313.51	5190.9	
313.71	5426.4	
313.92	2887	
314.13	2994.1	
314.34	4835.3	
314.55	4620.2	
314.76	3495.9	
314.96	3132	
315.17	4792.2	
315.38	4752.7	
315.59	2857.6	
315.8	2736.1	
316.01	5171.1	
316.21	5232.6	
316.42	2760.7	
316.63	3120.4	
316.84	4557.4	
317.05	5100.8	
317.26	3308.2	
317.46	2982.5	
317.67	4597.7	
317.88	4906.9	
318.09	3484.3	
318.3	2682.8	
318.5	4522.6	
318.71	4841.4	
318.92	4346.5	
319.13	3297.2	
319.34	4993.6	
319.54	5111.7	
319.75	2682.8	
319.96	2555.2	
320.17	4834.6	
320.38	5056.4	
320.58	2618.7	
320.79	3087.7	
321	5073.5	
321.21	5096	
321.42	3122.5	
321.62	2653.5	
321.83	4386.7	
322.04	4695.3	
322.25	2991.4	
322.46	2860.3	
322.66	4777.2	
322.87	4889.2	
323.08	3403.7	
323.29	2755.9	
323.5	5405.3	
323.7	4334.2	
323.91	3662.5	
324.12	3334.1	
324.33	4822.3	
324.53	4862.6	
324.74	3239.2	
324.95	3367.5	
325.16	4276.8	
325.37	4558.1	
325.57	2839.8	
325.78	2883.5	
325.99	4763.6	
326.2	4272.1	
326.4	3936.2	
326.61	2672.6	
326.82	4623.6	
327.03	4691.9	
327.24	3831.1	
327.44	3623.5	
327.65	4891.2	
327.86	4062.5	
328.07	3307.5	
328.27	2742.9	
328.48	5156.1	
328.69	4347.2	
328.9	3823.6	
329.1	2938.2	
329.31	4636.6	
329.52	5225.1	
329.73	2818	
329.93	3088.3	
330.14	4694.6	
330.35	4721.3	
330.56	4367.6	
330.76	3365.5	
330.97	4496	
331.18	4728.8	
331.39	3099.3	
331.59	2635.1	
331.8	5057.1	
332.01	5163.6	
332.22	2966.8	
332.42	3241.9	
332.63	4719.9	
332.84	4399	
333.05	3099.3	
333.25	2853.5	
333.46	4437.3	
333.67	4605.9	
333.88	2975	
334.08	3218	
334.29	5948.7	
334.5	5018.2	
334.7	2773.6	
334.91	3876.1	
335.12	4304.8	
335.33	4830.5	
335.53	3109.5	
335.74	4384	
335.95	4536.9	
336.16	4292.5	
336.36	3102	
336.57	3517	
336.78	4302.8	
336.98	5024.3	
337.19	3749.8	
337.4	3048.1	
337.61	5460.6	
337.81	4313.7	
338.02	2897.2	
338.23	3590.8	
338.43	5215.5	
338.64	4463.9	
338.85	2886.3	
339.05	3631	
339.26	5296.7	
339.47	4224.3	
339.68	2891.7	
339.88	3988.8	
340.09	4878.3	
340.3	4980.7	
340.5	3233.7	
340.71	2583.9	
340.92	4303.5	
341.13	5091.3	
341.33	2748.4	
341.54	3281.5	
341.75	4816.1	
341.95	4519.9	
342.16	3166.8	
342.37	3405.8	
342.57	4349.2	
342.78	4618.2	
342.99	3448.8	
343.19	2601.6	
343.4	4919.9	
343.61	4866.7	
343.81	3054.2	
344.02	2790.7	
344.23	4945.2	
344.43	5160.9	
344.64	3482.2	
344.85	3398.3	
345.06	4848.2	
345.26	5098.1	
345.47	3285.6	
345.68	3715.7	
345.88	4297.3	
346.09	4939.7	
346.3	3270.6	
346.5	2549	
346.71	4627	
346.92	4437.3	
347.12	2752.5	
347.33	3199.6	
347.54	4958.1	
347.74	5263.3	
347.95	3244	
348.16	2477.4	
348.36	4478.2	
348.57	4356.7	
348.78	3239.2	
348.98	3380.5	
349.19	4595.6	
349.39	4207.2	
349.6	2688.3	
349.81	2851.5	
350.01	4825	
350.22	4361.5	
350.43	3138.2	
350.63	3717.1	
350.84	4680.3	
351.05	4427	
351.25	2874	
351.46	2654.9	
351.67	4953.4	
351.87	4403.1	
352.08	3073.3	
352.29	3418.7	
352.49	4967.7	
352.7	4949.9	
352.9	2740.2	
353.11	3340.9	
353.32	5381.4	
353.52	4545.8	
353.73	2798.2	
353.94	3402.4	
354.14	4805.9	
354.35	4671.4	
354.55	2829.6	
354.76	3073.3	
354.97	4741	
355.17	4562.9	
355.38	2722.4	
355.59	3536.8	
355.79	4383.3	
356	4586.8	
356.2	3095.8	
356.41	2784.6	
356.62	4227	
356.82	4512.4	
357.03	3275.4	
357.24	2936.8	
357.44	4362.2	
357.65	4510.3	
357.85	3919.1	
358.06	3108.1	
358.27	4238.6	
358.47	4276.8	
358.68	2681.5	
358.88	3306.1	
359.09	4739.7	
359.3	4952.7	
359.5	3720.5	
359.71	3393.5	
359.91	5346.6	
360.12	4759.5	
360.33	3335.5	
360.53	3622.9	
360.74	4430.4	
360.94	4431.1	
361.15	3418.1	
361.36	2897.2	
361.56	4982	
361.77	4616.8	
361.97	3774.4	
362.18	3069.2	
362.38	4986.8	
362.59	4266.6	
362.8	2852.1	
363	2756.6	
363.21	4134.8	
363.41	4655	
363.62	3198.9	
363.83	3873.4	
364.03	4808.6	
364.24	5289.2	
364.44	4008.6	
364.65	3935.5	
364.85	4573.1	
365.06	4312.3	
365.27	2919.7	
365.47	2993.4	
365.68	5272.8	
365.88	4558.1	
366.09	3300.6	
366.29	2985.3	
366.5	4627	
366.71	4998.4	
366.91	3906.8	
367.12	3372.3	
367.32	5422.3	
367.53	4868.7	
367.73	3396.9	
367.94	4036.5	
368.14	4932.2	
368.35	5433.3	
368.56	3388.7	
368.76	2880.1	
368.97	4956.8	
369.17	6051.7	
369.38	2980.5	
369.58	3212.6	
369.79	4285	
369.99	5238	
370.2	3859.7	
370.4	3265.1	
370.61	4711.7	
370.82	5636.7	
371.02	3159.3	
371.23	2704	
371.43	4301.4	
371.64	5230.5	
371.84	3214.6	
372.05	4002.4	
372.25	5980.1	
372.46	4870.8	
372.66	3188.7	
372.87	3171.6	
373.07	4988.9	
373.28	6097.5	
373.48	3827	
373.69	3659.7	
373.9	4683	
374.1	4627.7	
374.31	3837.2	
374.51	3528.7	
374.72	5208.7	
374.92	4396.3	
375.13	3944.4	
375.33	3425.6	
375.54	4868	
375.74	4517.1	
375.95	3471.3	
376.15	4250.9	
376.36	4948.6	
376.56	4750.6	
376.77	3422.8	
376.97	3764.2	
377.18	5717.9	
377.38	4990.2	
377.59	3966.9	
377.79	3144.3	
378	4805.2	
378.2	5118.6	
378.41	3235.8	
378.61	3107.5	
378.82	5251	
379.02	4602.5	
379.23	3351.8	
379.43	4060.4	
379.64	5327.4	
379.84	4943.8	
380.05	3196.9	
380.25	3101.3	
380.46	5019.6	
380.66	4752	
380.87	4122.6	
381.07	4349.9	
381.28	5468.8	
381.48	4968.4	
381.69	3218.7	
381.89	3240.6	
382.1	4327.4	
382.3	5091.9	
382.51	3971.7	
382.71	4627.7	
382.91	4965.6	
383.12	5391.6	
383.32	3479.5	
383.53	3575.1	
383.73	4884.4	
383.94	4792.9	
384.14	3573.7	
384.35	2904	
384.55	4733.5	
384.76	4957.4	
384.96	3463.1	
385.17	3650.8	
385.37	5055.8	
385.58	4532.2	
385.78	3695.2	
385.98	2892.4	
386.19	4635.9	
386.39	4946.5	
386.6	3265.8	
386.8	3345.7	
387.01	4969.1	
387.21	5078.3	
387.42	3753.2	
387.62	4124.6	
387.83	4569.7	
388.03	4845.5	
388.23	3493.8	
388.44	4022.9	
388.64	4300.1	
388.85	4413.4	
389.05	3655.6	
389.26	4086.4	
389.46	5881.8	
389.67	5306.3	
389.87	3736.9	
390.07	3717.1	
390.28	4724.7	
390.48	4448.2	
390.69	3136.8	
390.89	3396.9	
391.1	4627.7	
391.3	5209.3	
391.5	4227	
391.71	4557.4	
391.91	5135.6	
392.12	5638.1	
392.32	4220.9	
392.53	3685	
392.73	4646.8	
392.93	4770.4	
393.14	3481.5	
393.34	4010.6	
393.55	5132.2	
393.75	4748.6	
393.95	3469.9	
394.16	3434.4	
394.36	4633.9	
394.57	5037.3	
394.77	3170.3	
394.98	3392.8	
395.18	4539.7	
395.38	4678.2	
395.59	4051.6	
395.79	3309.5	
396	4695.3	
396.2	5021.6	
396.4	3870.7	
396.61	3814.7	
396.81	5072.1	
397.02	4597	
397.22	4040.6	
397.42	4063.9	
397.63	5190.2	
397.83	4563.6	
398.04	3269.9	
398.24	3628.3	
398.44	4932.9	
398.65	4220.2	
398.85	3195.5	
399.05	3171.6	
399.26	4576.5	
399.46	5739.1	
399.67	3513.6	
399.87	3299.3	
400.07	4857.8	
400.28	4978.6	
400.48	3377.8	
400.69	4106.2	
400.89	5185.5	
401.09	5548.6	
401.3	3255.6	
401.5	4015.4	
401.7	5654.4	
401.91	5879.7	
402.11	3616.7	
402.32	3745.1	
402.52	5285.8	
402.72	5216.2	
402.93	3850.9	
403.13	3045.3	
403.33	5756.8	
403.54	4830.5	
403.74	3619.4	
403.94	4239.3	
404.15	4863.2	
404.35	5681.1	
404.56	3444	
404.76	4716.5	
404.96	5175.2	
405.17	5004.6	
405.37	4243.4	
405.57	3820.8	
405.78	5269.4	
405.98	4839.4	
406.18	3419.4	
406.39	4078.2	
406.59	5186.1	
406.79	4805.2	
407	3316.3	
407.2	3351.2	
407.4	5386.2	
407.61	5317.2	
407.81	3351.2	
408.01	4758.1	
408.22	4351.9	
408.42	5796.4	
408.62	4182.6	
408.83	3723.9	
409.03	4865.3	
409.23	4848.9	
409.44	3837.9	
409.64	3983.3	
409.84	5642.8	
410.05	5480.4	
410.25	3896.6	
410.45	3773.7	
410.66	5150.6	
410.86	6937.2	
411.06	4053.6	
411.27	3956.7	
411.47	6680.5	
411.67	5313.8	
411.88	4136.9	
412.08	4313	
412.28	5714.5	
412.49	6118.6	
412.69	3947.1	
412.89	3982.6	
413.09	5939.1	
413.3	5812.8	
413.5	4050.2	
413.7	3749.1	
413.91	5332.9	
414.11	5902.2	
414.31	3919.8	
414.52	4222.9	
414.72	5732.3	
414.92	5618.3	
415.12	3902.1	
415.33	4288.4	
415.53	5857.2	
415.73	6017.6	
415.94	4517.1	
416.14	4079.6	
416.34	5279	
416.55	4944.5	
416.75	4982	
416.95	4531.5	
417.15	5984.8	
417.36	6355.5	
417.56	5115.8	
417.76	4422.9	
417.97	6145.3	
418.17	5937.1	
418.37	4242.7	
418.57	4179.9	
418.78	5834	
418.98	5544.5	
419.18	4851	
419.38	4721.3	
419.59	5528.8	
419.79	5287.2	
419.99	4098.7	
420.2	4302.1	
420.4	5932.3	
420.6	5949.3	
420.8	4044.7	
421.01	3964.9	
421.21	5820.3	
421.41	5862.7	
421.61	4276.8	
421.82	4067.3	
422.02	5480.4	
422.22	6102.3	
422.42	4705.5	
422.63	4399.7	
422.83	5524.7	
423.03	6348.7	
423.23	4469.4	
423.44	3674.1	
423.64	5416.2	
423.84	5246.9	
424.04	4016.1	
424.25	3752.6	
424.45	6173.3	
424.65	6083.1	
424.85	3659	
425.06	3989.4	
425.26	6283.9	
425.46	5435.3	
425.66	4379.9	
425.87	4136.2	
426.07	5926.1	
426.27	5877	
426.47	4229.1	
426.67	3795.6	
426.88	6227.9	
427.08	5776.6	
427.28	4452.3	
427.48	3756.7	
427.69	5097.4	
427.89	5481.7	
428.09	4414.1	
428.29	3734.8	
428.5	5968.5	
428.7	5687.9	
428.9	3714.3	
429.1	4063.2	
429.3	5618.9	
429.51	5780.1	
429.71	3966.9	
429.91	4500.8	
430.11	5816.9	
430.31	6035.4	
430.52	4072.7	
430.72	4249.5	
430.92	6193.7	
431.12	5754.1	
431.32	3842.7	
431.53	4246.1	
431.73	5053.7	
431.93	6195.1	
432.13	3852.9	
432.33	3745.1	
432.54	5390.3	
432.74	5583.4	
432.94	3713.7	
433.14	4454.3	
433.34	5883.1	
433.55	5414.8	
433.75	4414.7	
433.95	5547.9	
434.15	5625.1	
434.35	5372.5	
434.56	3847.5	
434.76	3446.7	
434.96	5573.9	
435.16	5757.5	
435.36	3740.3	
435.56	4540.3	
435.77	5311.7	
435.97	5524.1	
436.17	4940.4	
436.37	4450.2	
436.57	5378	
436.78	5248.3	
436.98	5502.9	
437.18	4914.4	
437.38	5677	
437.58	5447.6	
437.78	5039.4	
437.99	4051.6	
438.19	5829.9	
438.39	6784.9	
438.59	3958	
438.79	3614	
438.99	6272.9	
439.2	5454.4	
439.4	3693.9	
439.6	3612.6	
439.8	5604.6	
440	6367.8	
440.2	4468.7	
440.4	4476.2	
440.61	5973.9	
440.81	6281.1	
441.01	3866.6	
441.21	4446.8	
441.41	6154.1	
441.61	5943.2	
441.81	4663.2	
442.02	5293.3	
442.22	6591.7	
442.42	5976.7	
442.62	3879.5	
442.82	3917.8	
443.02	6311.8	
443.22	5614.8	
443.43	4257.7	
443.63	3910.9	
443.83	5496.1	
444.03	5385.5	
444.23	4688.5	
444.43	4416.8	
444.63	5703.6	
444.83	6504.3	
445.04	3979.2	
445.24	4803.2	
445.44	5988.3	
445.64	5931.6	
445.84	4566.3	
446.04	4533.5	
446.24	5510.4	
446.44	6208.8	
446.65	3877.5	
446.85	4192.2	
447.05	5778.7	
447.25	6134.3	
447.45	4334.9	
447.65	3802.4	
447.85	5782.1	
448.05	5414.8	
448.25	4580.6	
448.46	4338.3	
448.66	5745.9	
448.86	5479	
449.06	3753.2	
449.26	4493.9	
449.46	5958.9	
449.66	5280.3	
449.86	4235.9	
450.06	4069.3	
450.26	5418.9	
450.47	5819.6	
450.67	4412.7	
450.87	4570.4	
451.07	6096.1	
451.27	5677	
451.47	3834.5	
451.67	4437.3	
451.87	5481.7	
452.07	6302.3	
452.27	4041.3	
452.47	4037.2	
452.67	5754.1	
452.88	6017.6	
453.08	3563.5	
453.28	4919.9	
453.48	6550.1	
453.68	5653.1	
453.88	3969	
454.08	4108.2	
454.28	5967.1	
454.48	5656.5	
454.68	4454.3	
454.88	4760.2	
455.08	6066.8	
455.28	5754.8	
455.48	3825.6	
455.68	4312.3	
455.89	6327.5	
456.09	6011.5	
456.29	4111	
456.49	4072	
456.69	6238.1	
456.89	5616.9	
457.09	4390.2	
457.29	4756.1	
457.49	5941.8	
457.69	5950.7	
457.89	4326.7	
458.09	3853.6	
458.29	5800.5	
458.49	6291.4	
458.69	4564.9	
458.89	4132.8	
459.09	6384.9	
459.29	6499.6	
459.49	4166.9	
459.69	4829.8	
459.9	6053.1	
460.1	5707	
460.3	4208.6	
460.5	3959.4	
460.7	6037.4	
460.9	5750.7	
461.1	3785.3	
461.3	4556.7	
461.5	6490	
461.7	6223.1	
461.9	4037.9	
462.1	4401.1	
462.3	5837.4	
462.5	6214.2	
462.7	4139.6	
462.9	4128	
463.1	6986.3	
463.3	6705	
463.5	4287.1	
463.7	4900.1	
463.9	6034	
464.1	6184.9	
464.3	4328.7	
464.5	4518.5	
464.7	6391	
464.9	6135.7	
465.1	5443.5	
465.3	4775.9	
465.5	6660	
465.7	6626.5	
465.9	4941.7	
466.1	4774.5	
466.3	6416.3	
466.5	6487.3	
466.7	5404.6	
466.9	4634.6	
467.1	6432.7	
467.3	6953.5	
467.5	5405.3	
467.7	4532.2	
467.9	7099.6	
468.1	7736.5	
468.3	5068.7	
468.5	5434.6	
468.7	6230.6	
468.9	6250.4	
469.1	4875.5	
469.3	5227.8	
469.5	7661.5	
469.7	5932.3	
469.9	5154.7	
470.1	4567.7	
470.3	6397.9	
470.5	6348.7	
470.7	5458.5	
470.9	4634.6	
471.1	6148.7	
471.3	6442.2	
471.5	4546.5	
471.69	5896.1	
471.89	6109.8	
472.09	5732.9	
472.29	5080.3	
472.49	5364.3	
472.69	5815.5	
472.89	6384.2	
473.09	4474.1	
473.29	4655	
473.49	6014.2	
473.69	6023.8	
473.89	5264.6	
474.09	4674.8	
474.29	6962.4	
474.49	6661.4	
474.69	5212.1	
474.89	4768.4	
475.09	6191.7	
475.29	5992.4	
475.49	4470	
475.69	4476.9	
475.88	7223.9	
476.08	6397.2	
476.28	4287.8	
476.48	4625	
476.68	6795.2	
476.88	6479.1	
477.08	4547.2	
477.28	4819.6	
477.48	6176	
477.68	6565.1	
477.88	4375.8	
478.08	4571.1	
478.28	6812.9	
478.48	6285.2	
478.67	4665.3	
478.87	4278.2	
479.07	6674.3	
479.27	6358.9	
479.47	4790.9	
479.67	4753.3	
479.87	6550.8	
480.07	6881.2	
480.27	4294.6	
480.47	5398.4	
480.67	6297.5	
480.87	6750.8	
481.06	4478.9	
481.26	5101.5	
481.46	6386.2	
481.66	6219	
481.86	4848.2	
482.06	5442.1	
482.26	6148.7	
482.46	6698.9	
482.66	4685.1	
482.86	4465.3	
483.05	6450.4	
483.25	5913.2	
483.45	6516	
483.65	4674.8	
483.85	5999.9	
484.05	6184.2	
484.25	5042.8	
484.45	5341.8	
484.65	6763.8	
484.84	6842.3	
485.04	4671.4	
485.24	4677.6	
485.44	7053.9	
485.64	5837.4	
485.84	4146.5	
486.04	5126.1	
486.24	6130.9	
486.44	6260	
486.63	4133.5	
486.83	4766.3	
487.03	6038.1	
487.23	6027.9	
487.43	4215.4	
487.63	5792.3	
487.83	6206.7	
488.02	6760.3	
488.22	4907.6	
488.42	5222.3	
488.62	6805.4	
488.82	6014.9	
489.02	4655.7	
489.22	4626.4	
489.41	6728.3	
489.61	6410.8	
489.81	4461.2	
490.01	4428.4	
490.21	6633.4	
490.41	7153.6	
490.61	4493.2	
490.8	4567	
491	6287.9	
491.2	5813.5	
491.4	4950.6	
491.6	4344.4	
491.8	6321.4	
491.99	6296.8	
492.19	4172.4	
492.39	4386.1	
492.59	6647.7	
492.79	6704.4	
492.99	5084.4	
493.18	4430.4	
493.38	6820.4	
493.58	7210.9	
493.78	4866.7	
493.98	4592.9	
494.18	6498.9	
494.37	6023.8	
494.57	4963.6	
494.77	4904.9	
494.97	6632.7	
495.17	6680.5	
495.37	4649.6	
495.56	4905.6	
495.76	6922.1	
495.96	6656.6	
496.16	5553.4	
496.36	4700.8	
496.55	6769.2	
496.75	6374	
496.95	5008.6	
497.15	4970.4	
497.35	6742.6	
497.54	6677.7	
497.74	4857.1	
497.94	5954.8	
498.14	7277.1	
498.34	7022.5	
498.53	4577.2	
498.73	5087.8	
498.93	6218.3	
499.13	6703.7	
499.33	4946.5	
499.52	5210.7	
499.72	6815.6	
499.92	6776.7	
500.12	4701.5	
500.32	4835.3	
500.51	6908.5	
500.71	6640.2	
500.91	5475.6	
501.11	5201.8	
501.31	6829.3	
501.5	7145.4	
501.7	5730.2	
501.9	4997.7	
502.1	6657.9	
502.29	6932.4	
502.49	5270.8	
502.69	5586.9	
502.89	6840.2	
503.09	6863.4	
503.28	4571.1	
503.48	4678.9	
503.68	6310.5	
503.88	6234	
504.07	5338.4	
504.27	4989.5	
504.47	6593.8	
504.67	6711.9	
504.86	5299.5	
505.06	5117.9	
505.26	6433.4	
505.46	7580.2	
505.65	4984.1	
505.85	5203.9	
506.05	6363.7	
506.25	6696.9	
506.44	4596.3	
506.64	5162.9	
506.84	6274.3	
507.04	6848.4	
507.23	4791.6	
507.43	5136.3	
507.63	7606.2	
507.83	6272.9	
508.02	5139.7	
508.22	4894.6	
508.42	7830.1	
508.62	6296.8	
508.81	5005.2	
509.01	5401.2	
509.21	6177.4	
509.4	6425.8	
509.6	5187.5	
509.8	4709	
510	6449.7	
510.19	7308.5	
510.39	4676.2	
510.59	4780	
510.79	6315.9	
510.98	7181.5	
511.18	4846.2	
511.38	4886.5	
511.57	6889.4	
511.77	6637.5	
511.97	5354.8	
512.17	4734.2	
512.36	6859.3	
512.56	6640.2	
512.76	4739.7	
512.95	4509.6	
513.15	6984.3	
513.35	5894.1	
513.55	5273.5	
513.74	4715.1	
513.94	6863.4	
514.14	6378.1	
514.33	5388.9	
514.53	5145.9	
514.73	6405.4	
514.92	6477.7	
515.12	4750.6	
515.32	4657.8	
515.51	6549.4	
515.71	6761.7	
515.91	5841.5	
516.11	4732.2	
516.3	7673.7	
516.5	6263.4	
516.7	5149.3	
516.89	5461.2	
517.09	6318.7	
517.29	6318	
517.48	5259.2	
517.68	4850.3	
517.88	6084.5	
518.07	6614.3	
518.27	5229.8	
518.47	4515.8	
518.66	6912.6	
518.86	6109.1	
519.06	4405.2	
519.25	4734.9	
519.45	6245.6	
519.65	7278.5	
519.84	5197.7	
520.04	5668.8	
520.24	7596.6	
520.43	6739.2	
520.63	5020.9	
520.83	4806.6	
521.02	6212.9	
521.22	6653.9	
521.42	5255.1	
521.61	5624.4	
521.81	6313.2	
522.01	6544.6	
522.2	5091.3	
522.4	4874.8	
522.6	6795.2	
522.79	5829.9	
522.99	4954.7	
523.18	4422.9	
523.38	6538.5	
523.58	6552.8	
523.77	5798.5	
523.97	4461.8	
524.17	7740	
524.36	7271.7	
524.56	5386.8	
524.76	4927.4	
524.95	6483.2	
525.15	6260	
525.34	4975.2	
525.54	4962.2	
525.74	6778.1	
525.93	6076.3	
526.13	5796.4	
526.33	4957.4	
526.52	7013.6	
526.72	6607.4	
526.91	5797.1	
527.11	5285.1	
527.31	7010.2	
527.5	7220.5	
527.7	5223	
527.89	4455.7	
528.09	6276.3	
528.29	6656.6	
528.48	5553.4	
528.68	5271.5	
528.87	6956.9	
529.07	6946	
529.27	5167.7	
529.46	4901.5	
529.66	6619.7	
529.85	6862.1	
530.05	4797	
530.25	5287.2	
530.44	7552.2	
530.64	6588.3	
530.83	4990.9	
531.03	5133.6	
531.23	7017	
531.42	6692.8	
531.62	5657.2	
531.81	5095.3	
532.01	7107.8	
532.21	7230	
532.4	4922	
532.6	5219.6	
532.79	7557	
532.99	6978.8	
533.18	5199.1	
533.38	5842.2	
533.58	6653.9	
533.77	7146	
533.97	5186.1	
534.16	5720.7	
534.36	7379.5	
534.55	6604	
534.75	5846.3	
534.95	5234.6	
535.14	7307.8	
535.34	6634.1	
535.53	4981.3	
535.73	6319.3	
535.92	7613.7	
536.12	6750.8	
536.31	5060.5	
536.51	5851	
536.71	7063.4	
536.9	6748.1	
537.1	5175.9	
537.29	5335.6	
537.49	7303.1	
537.68	6702.3	
537.88	5521.3	
538.07	4990.9	
538.27	6793.8	
538.46	7552.9	
538.66	4902.8	
538.86	5175.9	
539.05	6840.9	
539.25	7147.4	
539.44	5425.8	
539.64	5111.7	
539.83	6746.7	
540.03	7433.4	
540.22	5016.8	
540.42	5098.8	
540.61	6946.7	
540.81	6980.8	
541	5498.8	
541.2	5984.8	
541.39	6575.3	
541.59	6783.6	
541.78	5593	
541.98	5076.9	
542.18	6370.5	
542.37	6329.6	
542.57	5362.3	
542.76	5722	
542.96	6455.2	
543.15	6939.2	
543.35	5407.3	
543.54	4921.3	
543.74	7024.5	
543.93	6805.4	
544.13	5362.3	
544.32	6045.6	
544.52	7070.3	
544.71	6470.9	
544.91	4763.6	
545.1	5474.2	
545.3	6578.1	
545.49	6917.4	
545.69	4674.8	
545.88	5155.4	
546.08	7716.7	
546.27	7313.3	
546.47	5545.9	
546.66	5027.1	
546.86	7127.6	
547.05	7480.5	
547.24	5147.9	
547.44	4979.3	
547.63	6462	
547.83	7146.7	
548.02	5295.4	
548.22	5444.2	
548.41	6239.5	
548.61	7222.5	
548.8	4965	
549	4896.7	
549.19	6806.1	
549.39	7032	
549.58	4859.8	
549.78	5179.3	
549.97	7036.8	
550.17	6621.8	
550.36	5818.3	
550.55	6452.5	
550.75	6676.4	
550.94	7363.1	
551.14	4909.7	
551.33	5223.7	
551.53	6208.1	
551.72	6879.1	
551.92	5196.4	
552.11	5089.2	
552.31	6984.3	
552.5	6861.4	
552.69	6241.5	
552.89	4754.7	
553.08	6986.3	
553.28	6642.9	
553.47	5109	
553.67	5769.8	
553.86	7358.4	
554.06	6115.9	
554.25	4544.4	
554.44	4860.5	
554.64	7967.3	
554.83	7511.9	
555.03	4898.1	
555.22	5224.4	
555.42	7090.1	
555.61	6806.8	
555.8	5054.4	
556	5223	
556.19	6257.9	
556.39	7065.5	
556.58	5057.8	
556.78	5122	
556.97	6811.5	
557.16	6612.9	
557.36	5890.6	
557.55	4807.3	
557.75	6105	
557.94	7374.1	
558.13	4826.4	
558.33	4712.4	
558.52	7166.5	
558.72	6316.6	
558.91	4767	
559.1	4954	
559.3	6205.3	
559.49	6006	
559.69	4496.7	
559.88	5268.7	
560.07	6769.2	
560.27	7038.9	
560.46	5341.8	
560.66	5460.6	
560.85	6587	
561.04	6043.6	
561.24	4756.7	
561.43	4890.5	
561.63	6204	
561.82	6430.6	
562.01	5690.6	
562.21	5132.9	
562.4	6699.6	
562.59	7306.5	
562.79	5076.2	
562.98	4795.7	
563.18	6657.9	
563.37	7632.8	
563.56	5309	
563.76	4728.1	
563.95	6294.1	
564.14	6337.1	
564.34	5038.7	
564.53	4833.9	
564.73	6627.2	
564.92	6794.5	
565.11	5115.8	
565.31	4655.7	
565.5	7040.2	
565.69	6277.7	
565.89	4997	
566.08	5031.2	
566.27	6936.5	
566.47	7144.7	
566.66	5507	
566.85	4592.9	
567.05	6721.4	
567.24	6322.8	
567.44	4757.4	
567.63	5743.2	
567.82	6922.8	
568.02	6600.6	
568.21	4793.6	
568.4	5122.7	
568.6	6561.7	
568.79	6520.7	
568.98	4657.1	
569.18	4679.6	
569.37	6544.6	
569.56	7808.2	
569.76	5043.5	
569.95	5713.2	
570.14	6838.2	
570.34	6666.8	
570.53	4700.1	
570.72	4677.6	
570.91	7159.7	
571.11	6531	
571.3	5104.2	
571.49	5699.5	
571.69	6578.1	
571.88	6211.5	
572.07	5363.6	
572.27	5408.7	
572.46	6108.4	
572.65	6937.8	
572.85	4854.4	
573.04	5062.6	
573.23	7206.8	
573.43	6584.2	
573.62	4681	
573.81	5142.4	
574	6687.3	
574.2	6537.8	
574.39	4891.2	
574.58	5048.9	
574.78	7128.3	
574.97	6638.8	
575.16	5311.7	
575.36	5434.6	
575.55	6931	
575.74	7080.5	
575.93	4666	
576.13	5357.5	
576.32	6531	
576.51	6814.3	
576.71	5008	
576.9	5892.7	
577.09	7238.2	
577.28	6769.9	
577.48	5258.5	
577.67	4633.2	
577.86	6571.9	
578.05	6774	
578.25	5085.8	
578.44	5048.2	
578.63	6687.3	
578.83	7399.3	
579.02	4698	
579.21	5714.5	
579.4	6725.5	
579.6	6575.3	
579.79	5212.1	
579.98	6677.1	
580.17	6967.9	
580.37	7083.2	
580.56	4845.5	
580.75	5354.1	
580.94	7321.5	
581.14	7358.4	
581.33	5665.4	
581.52	4899.4	
581.71	6812.2	
581.91	7429.3	
582.1	4683.7	
582.29	5201.8	
582.48	6659.3	
582.68	6591	
582.87	5385.5	
583.06	5123.3	
583.25	6965.1	
583.45	6416.3	
583.64	5569.1	
583.83	6047	
584.02	6664.1	
584.21	6835.4	
584.41	5624.4	
584.6	5073.5	
584.79	6624.5	
584.98	7068.2	
585.18	4754.7	
585.37	4716.5	
585.56	6371.2	
585.75	6886.6	
585.94	4937.7	
586.14	5461.9	
586.33	7322.9	
586.52	6605.4	
586.71	5308.3	
586.91	5117.2	
587.1	6201.9	
587.29	7058.7	
587.48	5109	
587.67	4982.7	
587.87	6839.5	
588.06	6894.8	
588.25	6010.1	
588.44	5409.4	
588.63	6660	
588.83	7030.7	
589.02	5141.1	
589.21	4990.9	
589.4	6611.5	
589.59	6391.7	
589.78	4515.8	
589.98	4741.7	
590.17	6225.1	
590.36	6612.9	
590.55	4255	
590.74	4935.6	
590.94	7505.8	
591.13	6550.1	
591.32	4825	
591.51	4463.2	
591.7	6790.4	
591.89	6470.9	
592.09	4465.9	
592.28	4803.9	
592.47	5917.9	
592.66	7250.5	
592.85	4448.2	
593.05	4661.2	
593.24	6352.8	
593.43	6989	
593.62	4732.2	
593.81	5063.9	
594	6441.5	
594.19	6520	
594.39	4670.1	
594.58	4592.2	
594.77	6634.7	
594.96	7004.1	
595.15	4626.4	
595.34	5034.6	
595.54	6675.7	
595.73	6063.4	
595.92	4116.4	
596.11	4915.8	
596.3	6993.8	
596.49	6154.1	
596.68	4815.5	
596.88	5059.8	
597.07	6782.2	
597.26	5940.5	
597.45	4461.8	
597.64	5279	
597.83	6147.3	
598.02	6598.6	
598.22	4538.3	
598.41	4996.4	
598.6	6492.7	
598.79	6007.4	
598.98	4588.8	
599.17	5213.4	
599.36	6439.5	
599.55	7197.9	
599.74	5828.5	
599.94	5773.2	
600.13	6925.5	
600.32	6033.3	
600.51	4333.5	
600.7	4457.7	
600.89	7220.5	
601.08	7218.4	
601.27	4333.5	
601.47	4962.9	
601.66	6708.5	
601.85	7154.9	
602.04	4820.2	
602.23	4995.7	
602.42	6171.9	
602.61	6515.3	
602.8	4728.1	
602.99	4485.1	
603.18	6348.7	
603.37	6498.9	
603.57	4941.7	
603.76	5423.7	
603.95	6967.2	
604.14	6612.9	
604.33	4649.6	
604.52	4762.2	
604.71	6502.3	
604.9	6146	
605.09	5252.4	
605.28	5083.7	
605.47	6954.2	
605.66	6576	
605.86	5059.2	
606.05	4623.6	
606.24	6949.4	
606.43	5846.3	
606.62	4831.2	
606.81	5382.1	
607	6791.7	
607.19	6322.1	
607.38	4446.8	
607.57	4560.8	
607.76	6082.5	
607.95	5695.4	
608.14	4890.5	
608.33	5315.8	
608.52	6138.4	
608.72	6763.8	
608.91	4287.1	
609.1	4284.4	
609.29	6261.3	
609.48	5879.7	
609.67	5037.3	
609.86	4420.9	
610.05	6006.7	
610.24	6144.6	
610.43	4248.2	
610.62	3973.7	
610.81	6951.5	
611	6783.6	
611.19	4317.1	
611.38	4885.1	
611.57	6384.2	
611.76	7216.4	
611.95	4214	
612.14	4141.7	
612.33	6204.7	
612.52	5959.6	
612.71	4629.1	
612.9	3999.7	
613.09	5650.3	
613.28	7308.5	
613.47	4544.4	
613.66	5158.8	
613.85	6347.3	
614.04	5992.4	
614.24	4447.5	
614.43	3938.2	
614.62	6477.7	
614.81	6328.9	
615	4902.2	
615.19	4870.8	
615.38	5908.4	
615.57	6178	
615.76	4758.1	
615.95	5403.2	
616.14	6432.7	
616.33	6219	
616.52	4992.9	
616.71	5083.1	
616.9	6445	
617.09	6301.6	
617.28	4586.8	
617.47	5320.6	
617.66	5785.5	
617.85	5757.5	
618.04	5186.1	
618.22	4686.4	
618.41	6073.6	
618.6	6692.1	
618.79	4685.1	
618.98	4504.8	
619.17	6817	
619.36	5677.7	
619.55	4607.9	
619.74	4691.2	
619.93	6339.1	
620.12	5924.8	
620.31	4973.8	
620.5	5086.5	
620.69	6754.9	
620.88	6946.7	
621.07	5548.6	
621.26	4903.5	
621.45	6445.6	
621.64	6449.7	
621.83	4959.5	
622.02	4410	
622.21	6449.1	
622.4	6353.5	
622.59	5369.8	
622.78	5197.1	
622.97	6048.3	
623.16	6701	
623.35	4992.3	
623.54	4377.2	
623.72	6087.2	
623.91	6273.6	
624.1	5123.3	
624.29	4211.3	
624.48	6966.5	
624.67	6561.7	
624.86	4969.7	
625.05	4415.4	
625.24	7128.3	
625.43	6007.4	
625.62	6236.7	
625.81	4592.9	
626	6690	
626.19	6221	
626.38	5020.9	
626.56	4721.9	
626.75	6022.4	
626.94	6603.3	
627.13	5102.2	
627.32	4174.4	
627.51	6608.8	
627.7	7240.3	
627.89	4291.9	
628.08	5163.6	
628.27	5996.5	
628.46	6169.2	
628.65	4492.6	
628.83	4228.4	
629.02	6601.3	
629.21	5965.1	
629.4	4823.6	
629.59	5025.7	
629.78	6021	
629.97	6627.2	
630.16	5005.2	
630.35	4653	
630.54	6978.8	
630.72	6789.7	
630.91	4631.8	
631.1	4997	
631.29	6434	
631.48	6485.2	
631.67	5094	
631.86	4654.4	
632.05	6199.2	
632.24	6192.4	
632.42	4437.3	
632.61	4869.4	
632.8	6268.8	
632.99	5950.7	
633.18	4868	
633.37	5130.2	
633.56	6417.7	
633.75	6391.7	
633.93	4909	
634.12	4683	
634.31	7002	
634.5	6724.2	
634.69	4694.6	
634.88	5081	
635.07	6286.6	
635.25	6627.2	
635.44	5345.2	
635.63	5450.3	
635.82	6170.5	
636.01	5674.2	
636.2	5311.1	
636.39	4894	
636.57	7025.9	
636.76	6602	
636.95	4596.3	
637.14	5604.6	
637.33	6512.5	
637.52	7066.2	
637.7	4459.1	
637.89	5113.1	
638.08	6214.9	
638.27	7219.8	
638.46	5146.5	
638.65	5422.3	
638.83	7203.4	
639.02	6063.4	
639.21	5078.3	
639.4	5414.1	
639.59	6449.1	
639.78	6204.7	
639.96	4643.4	
640.15	4585.4	
640.34	6384.9	
640.53	6402	
640.72	4474.1	
640.91	4688.5	
641.09	5951.4	
641.28	6898.9	
641.47	4649.6	
641.66	5253.7	
641.85	6340.5	
642.03	6573.3	
642.22	5044.1	
642.41	4760.8	
642.6	6027.2	
642.79	5612.8	
642.97	4599.1	
643.16	5061.9	
643.35	5990.3	
643.54	5921.4	
643.73	4565.6	
643.91	5128.8	
644.1	5838.8	
644.29	6231.3	
644.48	4638.6	
644.67	4566.3	
644.85	5898.8	
645.04	6175.3	
645.23	4362.9	
645.42	4612	
645.6	5868.1	
645.79	6752.2	
645.98	4485.1	
646.17	3921.9	
646.36	5760.3	
646.54	6158.2	
646.73	5169.1	
646.92	4315.1	
647.11	5883.8	
647.29	6605.4	
647.48	4378.6	
647.67	4209.9	
647.86	6800.6	
648.05	6705	
648.23	4581.3	
648.42	5436	
648.61	6389.7	
648.8	6143.2	
648.98	4353.3	
649.17	4580.6	
649.36	5828.5	
649.55	5520.6	
649.73	4380.6	
649.92	4921.3	
650.11	5811.5	
650.3	5982.1	
650.48	4470	
650.67	4345.1	
650.86	6245.6	
651.05	5396.4	
651.23	4401.1	
651.42	4390.8	
651.61	5835.3	
651.79	5803.3	
651.98	4618.2	
652.17	4230.4	
652.36	6096.8	
652.54	5480.4	
652.73	4347.2	
652.92	4208.6	
653.11	6168.5	
653.29	6266.8	
653.48	3803.8	
653.67	4534.2	
653.85	5949.3	
654.04	6688	
654.23	4663.9	
654.42	4401.1	
654.6	5704.3	
654.79	6150.1	
654.98	4016.1	
655.16	4488.5	
655.35	5512.4	
655.54	5318.6	
655.73	4102.8	
655.91	4049.5	
656.1	6097.5	
656.29	5315.8	
656.47	3743	
656.66	4938.3	
656.85	5588.2	
657.03	5498.8	
657.22	4083	
657.41	4147.8	
657.59	5586.9	
657.78	5464	
657.97	3849.5	
658.16	4430.4	
658.34	6043.6	
658.53	6375.3	
658.72	5092.6	
658.9	5358.9	
659.09	5755.5	
659.28	5746.6	
659.46	4231.1	
659.65	4134.8	
659.84	5565	
660.02	5884.5	
660.21	4248.2	
660.4	4074.1	
660.58	6173.3	
660.77	5765.7	
660.96	4539.7	
661.14	3837.9	
661.33	6572.6	
661.52	6503	
661.7	3773	
661.89	6169.8	
662.08	5464	
662.26	5176.6	
662.45	4013.3	
662.64	4152.6	
662.82	6079.1	
663.01	5439.4	
663.2	4108.9	
663.38	4606.6	
663.57	5954.1	
663.75	5838.1	
663.94	4341.7	
664.13	5252.4	
664.31	5476.3	
664.5	5971.9	
664.69	4678.9	
664.87	4829.8	
665.06	5277.6	
665.25	5803.9	
665.43	5039.4	
665.62	5091.3	
665.8	6042.2	
665.99	5495.4	
666.18	4357.4	
666.36	4389.5	
666.55	6052.4	
666.74	5877	
666.92	4091.2	
667.11	5194.3	
667.29	5640.8	
667.48	6009.4	
667.67	4988.2	
667.85	4276.2	
668.04	5571.8	
668.22	5569.1	
668.41	4373.8	
668.6	4594.3	
668.78	5397.1	
668.97	5584.1	
669.15	4634.6	
669.34	3913	
669.53	5500.8	
669.71	5754.8	
669.9	3989.4	
670.08	4497.3	
670.27	5347.9	
670.46	5852.4	
670.64	4674.8	
670.83	4767	
671.01	5331.5	
671.2	5778	
671.38	4095.3	
671.57	3994.2	
671.76	6292.7	
671.94	6599.9	
672.13	3977.2	
672.31	4792.9	
672.5	5901.6	
672.69	5442.1	
672.87	4098.7	
673.06	4261.8	
673.24	5816.9	
673.43	5537	
673.61	4607.9	
673.8	4231.8	
673.98	5935.7	
674.17	5991.7	
674.36	4784.1	
674.54	4539	
674.73	5709.1	
674.91	6002.6	
675.1	4354	
675.28	4018.8	
675.47	5608	
675.65	5988.9	
675.84	4332.8	
676.03	4508.3	
676.21	5509.7	
676.4	5074.2	
676.58	4881.7	
676.77	4630.5	
676.95	6538.5	
677.14	5448.3	
677.32	4052.9	
677.51	3984.7	
677.69	6012.8	
677.88	5258.5	
678.06	3994.9	
678.25	4078.2	
678.44	5640.8	
678.62	5515.2	
678.81	3916.4	
678.99	4543.1	
679.18	6151.4	
679.36	5871.5	
679.55	4225.6	
679.73	4673.5	
679.92	5895.4	
680.1	5456.5	
680.29	5044.1	
680.47	4245.4	
680.66	5492	
680.84	6014.9	
681.03	3790.8	
681.21	4547.2	
681.4	5464	
681.58	5319.3	
681.77	4156	
681.95	4021.5	
682.14	6088.6	
682.32	6284.5	
682.51	4744.5	
682.69	3958.7	
682.88	5416.2	
683.06	5824.4	
683.25	4526	
683.43	4818.2	
683.62	5740.5	
683.8	5877	
683.99	4969.1	
684.17	4425	
684.36	6541.2	
684.54	5640.1	
684.73	3933.5	
684.91	4011.3	
685.1	5879.7	
685.28	5446.2	
685.46	4457.7	
685.65	4463.2	
685.83	6022.4	
686.02	5547.9	
686.2	4053.6	
686.39	4163.5	
686.57	5382.7	
686.76	6330.3	
686.94	4054.3	
687.13	4164.9	
687.31	5768.4	
687.5	5511.8	
687.68	3773	
687.86	4599.7	
688.05	6763.1	
688.23	5158.2	
688.42	4729.4	
688.6	4125.3	
688.79	5527.5	
688.97	5401.2	
689.16	4390.8	
689.34	3637.2	
689.52	5824.4	
689.71	6164.4	
689.89	4570.4	
690.08	4100.7	
690.26	5698.1	
690.45	5507.7	
690.63	4744.5	
690.81	4259.8	
691	5593.7	
691.18	5388.2	
691.37	4332.1	
691.55	5887.2	
691.74	5436.7	
691.92	6818.4	
692.1	4323.9	
692.29	4010.6	
692.47	5505.6	
692.66	5135.6	
692.84	4104.8	
693.02	4440.7	
693.21	5143.1	
693.39	5522.7	
693.58	4530.8	
693.76	4065.9	
693.94	6353.5	
694.13	6194.4	
694.31	4078.2	
694.5	4846.9	
694.68	5362.3	
694.86	5612.1	
695.05	4296.6	
695.23	4468	
695.42	5952.8	
695.6	7414.3	
695.78	4726.7	
695.97	4115.1	
696.15	5916.6	
696.34	5521.3	
696.52	4005.1	
696.7	4586.1	
696.89	5816.9	
697.07	5341.1	
697.25	4528.1	
697.44	5556.8	
697.62	5755.5	
697.81	5954.8	
697.99	4345.8	
698.17	4655.7	
698.36	5333.6	
698.54	5768.4	
698.72	4518.5	
698.91	3893.2	
699.09	5538.4	
699.28	5371.1	
699.46	4399	
699.64	4217.5	
699.83	5332.2	
700.01	6124.8	
700.19	4831.8	
700.38	3635.1	
700.56	6156.2	
700.74	5386.8	
700.93	3904.8	
701.11	4505.5	
701.29	5750	
701.48	6513.9	
701.66	4067.3	
701.84	4165.6	
702.03	5567.7	
702.21	6026.5	
702.39	3835.2	
702.58	4264.6	
702.76	5809.4	
702.94	5869.5	
703.13	3824.2	
703.31	5524.1	
703.49	5356.1	
703.68	6381.5	
703.86	3981.9	
704.04	4627.7	
704.23	5694.7	
704.41	5885.2	
704.59	4055.7	
704.78	4891.9	
704.96	6757.6	
705.14	5923.4	
705.33	3917.8	
705.51	4466.6	
705.69	5496.1	
705.87	6074.3	
706.06	4556	
706.24	3837.9	
706.42	5730.2	
706.61	5931.6	
706.79	4726	
706.97	3868.6	
707.16	5339.7	
707.34	5756.2	
707.52	4641.4	
707.7	4059.1	
707.89	5413.5	
708.07	5257.8	
708.25	4690.5	
708.44	4735.6	
708.62	5332.2	
708.8	6083.8	
708.98	4869.4	
709.17	4082.3	
709.35	5657.9	
709.53	5606.7	
709.72	3853.6	
709.9	4006.5	
710.08	5918.6	
710.26	5948.7	
710.45	5044.1	
710.63	4175.8	
710.81	5581.4	
710.99	5669.5	
711.18	4562.9	
711.36	4204.5	
711.54	5481.7	
711.72	6072.2	
711.91	4265.2	
712.09	3842.7	
712.27	5550	
712.45	6386.9	
712.64	4511	
712.82	3680.2	
713	5233.9	
713.18	5418.9	
713.37	3854.3	
713.55	4711	
713.73	6020.3	
713.91	5057.8	
714.1	4111.6	
714.28	3852.9	
714.46	5752.1	
714.64	5315.8	
714.83	3465.8	
715.01	4009.9	
715.19	5371.1	
715.37	4806.6	
715.55	3822.2	
715.74	4014.7	
715.92	5816.9	
716.1	4490.5	
716.28	4819.6	
716.47	4208.6	
716.65	5087.2	
716.83	5114.5	
717.01	3891.1	
717.19	3999	
717.38	6522.8	
717.56	4891.2	
717.74	4189.5	
717.92	3556	
718.1	5657.2	
718.29	5104.2	
718.47	3265.1	
718.65	3697.3	
718.83	5621.7	
719.01	5460.6	
719.2	3185.3	
719.38	3951.2	
719.56	5317.2	
719.74	6422.4	
719.92	3674.7	
720.11	4430.4	
720.29	5534.3	
720.47	4799.8	
720.65	3444.7	
720.83	3952.6	
721.02	5115.1	
721.2	4902.2	
721.38	4053.6	
721.56	3532.7	
721.74	4549.9	
721.92	4682.3	
722.11	4348.5	
722.29	4167.6	
722.47	5583.4	
722.65	4972.5	
722.83	3519.1	
723.01	4141	
723.2	4980	
723.38	5255.8	
723.56	3147.7	
723.74	3976.5	
723.92	4683	
724.1	5463.3	
724.29	3433.8	
724.47	4334.2	
724.65	4816.1	
724.83	4656.4	
725.01	3420.8	
725.19	3951.9	
725.37	4752.7	
725.56	4708.3	
725.74	3284.3	
725.92	3541.6	
726.1	4652.3	
726.28	4924	
726.46	3793.5	
726.64	3609.2	
726.83	4958.8	
727.01	5042.1	
727.19	3302.7	
727.37	3822.2	
727.55	5015.5	
727.73	5360.2	
727.91	3235.1	
728.09	3170.9	
728.28	5401.9	
728.46	5513.8	
728.64	3934.8	
728.82	3893.9	
729	5989.6	
729.18	5560.9	
729.36	3295.2	
729.54	4863.2	
729.72	6230.6	
729.91	4974.5	
730.09	4635.2	
730.27	3706.1	
730.45	4962.2	
730.63	5365	
730.81	4171.7	
730.99	3485	
731.17	5741.8	
731.35	4740.4	
731.53	3842.7	
731.71	3627.6	
731.9	5616.2	
732.08	5631.2	
732.26	3767.6	
732.44	3550.5	
732.62	5693.4	
732.8	5331.5	
732.98	4131.4	
733.16	3382.6	
733.34	5365	
733.52	4427.7	
733.7	3744.4	
733.88	3867.9	
734.07	5207.3	
734.25	5033.9	
734.43	3375.7	
734.61	4428.4	
734.79	6107.7	
734.97	4941.1	
735.15	3500	
735.33	3759.4	
735.51	5321.3	
735.69	5005.2	
735.87	4465.9	
736.05	3844	
736.23	5096	
736.41	4939.7	
736.59	3683.6	
736.77	3857.7	
736.95	5442.1	
737.13	4945.8	
737.32	3478.1	
737.5	3616	
737.68	5787.6	
737.86	4904.2	
738.04	3366.2	
738.22	4660.5	
738.4	4846.9	
738.58	5060.5	
738.76	3779.9	
738.94	3071.3	
739.12	4917.2	
739.3	4823.6	
739.48	4208.6	
739.66	3962.1	
739.84	4990.9	
740.02	4999.1	
740.2	3145.7	
740.38	3381.9	
740.56	5321.3	
740.74	4467.3	
740.92	3875.4	
741.1	3727.3	
741.28	4937	
741.46	4710.3	
741.64	3563.5	
741.82	3869.3	
742	4970.4	
742.18	4844.8	
742.36	3713.6	
742.54	3362.8	
742.72	5328.1	
742.9	4403.8	
743.08	3936.9	
743.26	3080.8	
743.44	5457.8	
743.62	5365.7	
743.8	4109.6	
743.98	3379.8	
744.16	5165	
744.34	4889.9	
744.52	3944.4	
744.7	3935.5	
744.88	5288.5	
745.06	4909.7	
745.24	3997.6	
745.42	4088.4	
745.6	5359.5	
745.78	5225.1	
745.96	3208.5	
746.14	3443.3	
746.32	5877.7	
746.5	5264	
746.68	3796.3	
746.86	3429	
747.03	5601.9	
747.21	4498.7	
747.39	3790.1	
747.57	3454.2	
747.75	5055.8	
747.93	5313.1	
748.11	3381.9	
748.29	3339.6	
748.47	6176.7	
748.65	5129.5	
748.83	3968.3	
749.01	3723.2	
749.19	5243.5	
749.37	4534.2	
749.55	3656.3	
749.73	3744.4	
749.91	5074.9	
750.09	4857.1	
750.26	3725.3	
750.44	3272.7	
750.62	5028.4	
750.8	4939	
750.98	3235.8	
751.16	3472	
751.34	5112.4	
751.52	4611.3	
751.7	4012	
751.88	3190.1	
752.06	5403.9	
752.24	5227.1	
752.42	3162.7	
752.59	3465.2	
752.77	4992.9	
752.95	5833.3	
753.13	3979.9	
753.31	3534.8	
753.49	4763.6	
753.67	5087.2	
753.85	3816.7	
754.03	3441.3	
754.21	5289.2	
754.38	5490.6	
754.56	3527.3	
754.74	2900.6	
754.92	4758.8	
755.1	5223.7	
755.28	2957.9	
755.46	2999.6	
755.64	5889.3	
755.82	5945.3	
755.99	3289.7	
756.17	3338.9	
756.35	4237.2	
756.53	5309.7	
756.71	2588.6	
756.89	3229.6	
757.07	4977.2	
757.25	4327.4	
757.42	3591.5	
757.6	4154.6	
757.78	5110.4	
757.96	4336.2	
758.14	3340.9	
758.32	3029.6	
758.5	3986	
758.67	4628.4	
758.85	3242.6	
759.03	3324.5	
759.21	4777.2	
759.39	4285.7	
759.57	2946.3	
759.75	3730.7	
759.92	5283.8	
760.1	4812	
760.28	3971.7	
760.46	4182.6	
760.64	4531.5	
760.82	4379.2	
760.99	3853.6	
761.17	3285.6	
761.35	5098.8	
761.53	4300.1	
761.71	3377.1	
761.89	3791.5	
762.06	4987.5	
762.24	4631.8	
762.42	3447.4	
762.6	3255.6	
762.78	4620.2	
762.96	5021.6	
763.13	3634.5	
763.31	3449.5	
763.49	5222.3	
763.67	4619.5	
763.85	3958	
764.02	4420.9	
764.2	5354.1	
764.38	4739.7	
764.56	3369.6	
764.74	3975.1	
764.91	5401.2	
765.09	4616.8	
765.27	3201.7	
765.45	2961.4	
765.63	5537.7	
765.8	5339.7	
765.98	2846.7	
766.16	3035.1	
766.34	4377.9	
766.52	4166.3	
766.69	3715.7	
766.87	2981.2	
767.05	4678.9	
767.23	5231.2	
767.41	3192.1	
767.58	3351.2	
767.76	5091.3	
767.94	5130.8	
768.12	3272.7	
768.29	3772.4	
768.47	4691.9	
768.65	5311.7	
768.83	2969.6	
769	3752.6	
769.18	4396.3	
769.36	4919.2	
769.54	3794.9	
769.72	3039.9	
769.89	5214.1	
770.07	5129.5	
770.25	3336.1	
770.43	4119.1	
770.6	5769.8	
770.78	5950.7	
770.96	3405.8	
771.14	3818.8	
771.31	5104.9	
771.49	4638.6	
771.67	2839.2	
771.85	2981.2	
772.02	4123.9	
772.2	4641.4	
772.38	3529.3	
772.55	3145	
772.73	4852.3	
772.91	4642.1	
773.09	3427.6	
773.26	3514.3	
773.44	4806.6	
773.62	4620.9	
773.8	3104	
773.97	2882.9	
774.15	4879.6	
774.33	4639.3	
774.5	3008.5	
774.68	3302.7	
774.86	4898.1	
775.04	4649.6	
775.21	3130	
775.39	3086.3	
775.57	4866	
775.74	5036.6	
775.92	2936.8	
776.1	2900.6	
776.27	4809.3	
776.45	5694	
776.63	3080.8	
776.81	2748.4	
776.98	4586.1	
777.16	5337.7	
777.34	3205.1	
777.51	3429.7	
777.69	4572.4	
777.87	4386.1	
778.04	3300	
778.22	3656.3	
778.4	4445.5	
778.57	4883.7	
778.75	2762.7	
778.93	2969.6	
779.1	4330.1	
779.28	4182	
779.46	2696.5	
779.64	3038.5	
779.81	5027.8	
779.99	5648.3	
780.17	3631	
780.34	3713.7	
780.52	4644.8	
780.69	4746.5	
780.87	3411.9	
781.05	3092.4	
781.22	4693.9	
781.4	4736.3	
781.58	3120.4	
781.75	2491.7	
781.93	4760.8	
782.11	4194.9	
782.28	3775.1	
782.46	3164.1	
782.64	4151.2	
782.81	4886.5	
782.99	3243.3	
783.17	3147.7	
783.34	4771.8	
783.52	4266.6	
783.69	3317	
783.87	3914.4	
784.05	4380.6	
784.22	4323.9	
784.4	3852.9	
784.58	3420.8	
784.75	5051.7	
784.93	4388.8	
785.1	3146.4	
785.28	3570.3	
785.46	4783.4	
785.63	4237.9	
785.81	3166.2	
785.99	3034.4	
786.16	4462.5	
786.34	4681.7	
786.51	3058.3	
786.69	3361.4	
786.87	4076.1	
787.04	4512.4	
787.22	2965.5	
787.39	3654.3	
787.57	4326	
787.75	5053.7	
787.92	3795.6	
788.1	3743.7	
788.27	4269.3	
788.45	4100.7	
788.63	3536.2	
788.8	2609.1	
788.98	4750.6	
789.15	4024.3	
789.33	2706	
789.5	3147.7	
789.68	4972.5	
789.86	5015.5	
790.03	3439.9	
790.21	3000.3	
790.38	5029.1	
790.56	4440.7	
790.73	2994.8	
790.91	2973.7	
791.09	4358.8	
791.26	4874.8	
791.44	3207.8	
791.61	2784.6	
791.79	4378.6	
791.96	4365.6	
792.14	2852.1	
792.32	2567.5	
792.49	4330.1	
792.67	4418.8	
792.84	2877.4	
793.02	2750.4	
793.19	4908.3	
793.37	5150.6	
793.54	2563.4	
793.72	2820.1	
793.89	5182.7	
794.07	4351.3	
794.25	3156.6	
794.42	2649.4	
794.6	5054.4	
794.77	4801.8	
794.95	3424.2	
795.12	2965.5	
795.3	4401.1	
795.47	4771.8	
795.65	3346.4	
795.82	3201	
796	4203.8	
796.17	5531.6	
796.35	3124.5	
796.52	3581.9	
796.7	4674.1	
796.87	4770.4	
797.05	3159.3	
797.22	3734.8	
797.4	4825.7	
797.57	5453.1	
797.75	3235.8	
797.92	3035.1	
798.1	5024.3	
798.27	4175.8	
798.45	2656.9	
798.62	2828.2	
798.8	4507.6	
798.97	4956.1	
799.15	3313.6	
799.32	3173.7	
799.5	4040.6	
799.67	4629.1	
799.85	3469.3	
800.02	2587.9	
800.2	4277.5	
800.37	4470	
800.55	3561.4	
800.72	3065.1	
800.9	4870.1	
801.07	5194.3	
801.25	3941	
801.42	3308.2	
801.6	4931.5	
801.77	4511.7	
801.95	3074.7	
802.12	2976.4	
802.29	4762.9	
802.47	4579.3	
802.64	3291.8	
802.82	2573.6	
802.99	4284.4	
803.17	4975.2	
803.34	3210.5	
803.52	2908.8	
803.69	5414.1	
803.87	4119.1	
804.04	3220.1	
804.21	3244.7	
804.39	5171.1	
804.56	4377.9	
804.74	2782.5	
804.91	3320.4	
805.09	4268.6	
805.26	4404.5	
805.44	2778.4	
805.61	3136.8	
805.78	4810	
805.96	4823	
806.13	3271.3	
806.31	3517	
806.48	3989.4	
806.66	4385.4	
806.83	3349.8	
807	3199.6	
807.18	4356.7	
807.35	4569.7	
807.53	3067.2	
807.7	2675.3	
807.87	5158.2	
808.05	4334.2	
808.22	3551.2	
808.4	2647.3	
808.57	4276.8	
808.74	4096.6	
808.92	2964.1	
809.09	3677.5	
809.27	4298	
809.44	4623.6	
809.61	2694.4	
809.79	2925.9	
809.96	5300.8	
810.14	4822.3	
810.31	2644.6	
810.48	3135.4	
810.66	4331.5	
810.83	4889.2	
811.01	3022.1	
811.18	3283.6	
811.35	4858.5	
811.53	3867.9	
811.7	3540.3	
811.87	3321.8	
812.05	4410	
812.22	4325.3	
812.39	2951.1	
812.57	2798.9	
812.74	4407.9	
812.92	5498.8	
813.09	3136.1	
813.26	3331.4	
813.44	5339.7	
813.61	4193.6	
813.78	2621.4	
813.96	3396.2	
814.13	4424.3	
814.3	4159.4	
814.48	3660.4	
814.65	3111.5	
814.82	5066	
815	4137.6	
815.17	3244	
815.34	3809.2	
815.52	4311.7	
815.69	4311	
815.87	3111.5	
816.04	3048.7	
816.21	4288.4	
816.38	3971	
816.56	3074.7	
816.73	2906.8	
816.9	5371.8	
817.08	4876.9	
817.25	2933.4	
817.42	3538.9	
817.6	4038.6	
817.77	4326	
817.94	3264.5	
818.12	2829.6	
818.29	4169.7	
818.46	5969.8	
818.64	3051.5	
818.81	2827.6	
818.98	4182.6	
819.16	5599.1	
819.33	3394.8	
819.5	3179.8	
819.67	4594.3	
819.85	5072.1	
820.02	3176.4	
820.19	3314.3	
820.37	4499.4	
820.54	4261.1	
820.71	3190.7	
820.88	3894.6	
821.06	4492.6	
821.23	4206.5	
821.4	3265.1	
821.58	3240.6	
821.75	4792.9	
821.92	4498	
822.09	2655.5	
822.27	2781.1	
822.44	4413.4	
822.61	4276.8	
822.79	2682.8	
822.96	4860.5	
823.13	4644.1	
823.3	4125.3	
823.48	3046.7	
823.65	2800.9	
823.82	4917.9	
823.99	4074.8	
824.17	3777.8	
824.34	2837.1	
824.51	5541.8	
824.68	4412.7	
824.86	2960	
825.03	3216	
825.2	4377.9	
825.37	5081	
825.55	2887.6	
825.72	3160.7	
825.89	5464.7	
826.06	5147.2	
826.24	3127.2	
826.41	3089	
826.58	5186.8	
826.75	4567	
826.92	2582.5	
827.1	2804.4	
827.27	6761	
827.44	5394.3	
827.61	3043.3	
827.79	3521.1	
827.96	4209.3	
828.13	4414.1	
828.3	3114.3	
828.47	2669.2	
828.65	4627.7	
828.82	4517.8	
828.99	3900.7	
829.16	3441.3	
829.34	4928.8	
829.51	4753.3	
829.68	3198.9	
829.85	3246	
830.02	5157.5	
830.2	4884.4	
830.37	2598.9	
830.54	3779.9	
830.71	5419.6	
830.88	4393.6	
831.05	2559.3	
831.23	2896.5	
831.4	5268.1	
831.57	5716.6	
831.74	2980.5	
831.91	2633	
832.09	4693.3	
832.26	4906.3	
832.43	3043.3	
832.6	3348.4	
832.77	4655	
832.94	5158.2	
833.12	2523.8	
833.29	3006.4	
833.46	4711	
833.63	5879.7	
833.8	3339.6	
833.97	3021.4	
834.15	4942.4	
834.32	4714.4	
834.49	3196.9	
834.66	3201	
834.83	4971.8	
835	4265.2	
835.17	2949.8	
835.35	2932.7	
835.52	4858.5	
835.69	4695.3	
835.86	3054.9	
836.03	2611.8	
836.2	4871.4	
836.37	4550.6	
836.55	3031.7	
836.72	2917.7	
836.89	4593.6	
837.06	4925.4	
837.23	3134.1	
837.4	3324.5	
837.57	5439.4	
837.75	5859.9	
837.92	2800.9	
838.09	2996.2	
838.26	4564.2	
838.43	5014.8	
838.6	3194.8	
838.77	2905.4	
838.94	5651.7	
839.11	5468.8	
839.29	3071.3	
839.46	2452.8	
839.63	4900.1	
839.8	4645.5	
839.97	2964.1	
840.14	2951.8	
840.31	4741.7	
840.48	4856.4	
840.65	2541.5	
840.82	2955.9	
841	4807.3	
841.17	4726	
841.34	2758.6	
841.51	2833.7	
841.68	4829.8	
841.85	4562.9	
842.02	2884.9	
842.19	2458.9	
842.36	4683.7	
842.53	4737	
842.7	2799.6	
842.87	3261.7	
843.05	5885.2	
843.22	4562.9	
843.39	2618.7	
843.56	2848.7	
843.73	4493.2	
843.9	4923.3	
844.07	4257	
844.24	3583.3	
844.41	6526.9	
844.58	4346.5	
844.75	2653.5	
844.92	2878.1	
845.09	4831.8	
845.26	4790.2	
845.43	2753.8	
845.6	2871.3	
845.77	4814.1	
845.94	4640.7	
846.12	3064.4	
846.29	3119.7	
846.46	5082.4	
846.63	4819.6	
846.8	2759.3	
846.97	3207.8	
847.14	5134.9	
847.31	4795.7	
847.48	3033	
847.65	3314.3	
847.82	4966.3	
847.99	4938.3	
848.16	3593.5	
848.33	3295.2	
848.5	4489.1	
848.67	5209.3	
848.84	2694.4	
849.01	2864.4	
849.18	4468	
849.35	4233.2	
849.52	3340.2	
849.69	2714.9	
849.86	5010	
850.03	5082.4	
850.2	2757.9	
850.37	3298.6	
850.54	5110.4	
850.71	4604.5	
850.88	3228.3	
851.05	2689	
851.22	4700.1	
851.39	5205.3	
851.56	2626.2	
851.73	3080.1	
851.9	4312.3	
852.07	4937	
852.24	3030.3	
852.41	2757.9	
852.58	4814.1	
852.75	4382.7	
852.92	3037.8	
853.09	2682.8	
853.26	4498	
853.43	5102.9	
853.6	2728.6	
853.77	2407.7	
853.94	5242.1	
854.11	4290.5	
854.28	3876.8	
854.44	2995.5	
854.61	5494.7	
854.78	5014.8	
854.95	2667.8	
855.12	3317	
855.29	4065.2	
855.46	5361.6	
855.63	2766.1	
855.8	3634.5	
855.97	4464.6	
856.14	5102.2	
856.31	3725.9	
856.48	2989.4	
856.65	4602.5	
856.82	4287.1	
856.99	2708.8	
857.16	2923.8	
857.33	5659.2	
857.49	4624.3	
857.66	2935.4	
857.83	3089	
858	4625	
858.17	4720.6	
858.34	2593.4	
858.51	2720.4	
858.68	5294.7	
858.85	5291.3	
859.02	3095.2	
859.19	3303.4	
859.36	4330.1	
859.52	4355.3	
859.69	2770.9	
859.86	3185.3	
860.03	4372.4	
860.2	5184.8	
860.37	2527.9	
860.54	2794.8	
860.71	4992.3	
860.88	5255.1	
861.05	3039.9	
861.21	3383.2	
861.38	5248.9	
861.55	4143	
861.72	2534.7	
861.89	3059.7	
862.06	5018.9	
862.23	5352.7	
862.4	2676.7	
862.56	2840.5	
862.73	4883	
862.9	4649.6	
863.07	3118.4	
863.24	2541.5	
863.41	4258.4	
863.58	4345.1	
863.75	2792.7	
863.91	3141.6	
864.08	5160.9	
864.25	4900.8	
864.42	3380.5	
864.59	3704.1	
864.76	5455.8	
864.93	4287.1	
865.09	2636.4	
865.26	2853.5	
865.43	5179.3	
865.6	5432.6	
865.77	2446	
865.94	2703.3	
866.1	5197.1	
866.27	4920.6	
866.44	3971.7	
866.61	2620	
866.78	4607.2	
866.95	4833.9	
867.11	2711.5	
867.28	2490.3	
867.45	5134.3	
867.62	4339.6	
867.79	3061.7	
867.96	2717.7	
868.12	4306.9	
868.29	4997.7	
868.46	2753.8	
868.63	3571	
868.8	5085.1	
868.97	4920.6	
869.13	2818.7	
869.3	2874	
869.47	4884.4	
869.64	5096	
869.81	2766.8	
869.97	2742.9	
870.14	4784.7	
870.31	5236	
870.48	2691.7	
870.65	3472	
870.81	4595.6	
870.98	4575.8	
871.15	3026.9	
871.32	2833	
871.48	4861.2	
871.65	5323.4	
871.82	2696.5	
871.99	2943.6	
872.16	5616.2	
872.32	5138.4	
872.49	2798.9	
872.66	2764.8	
872.83	5011.4	
872.99	4468	
873.16	3127.2	
873.33	2706.7	
873.5	4718.5	
873.67	4747.9	
873.83	2895.8	
874	3577.8	
874.17	4821.6	
874.34	5470.8	
874.5	3521.8	
874.67	3305.4	
874.84	5171.8	
875.01	4232.5	
875.17	3708.2	
875.34	2693.1	
875.51	4773.1	
875.68	5624.4	
875.84	3207.8	
876.01	3915	
876.18	4934.2	
876.34	4906.3	
876.51	2770.9	
876.68	2731.3	
876.85	4560.8	
877.01	5171.8	
877.18	3779.2	
877.35	2702.6	
877.52	4790.2	
877.68	4292.5	
877.85	2691.7	
878.02	2643.2	
878.18	4564.9	
878.35	4490.5	
878.52	2253.4	
878.69	3006.4	
878.85	5089.9	
879.02	4885.8	
879.19	3793.5	
879.35	2927.2	
879.52	4929.5	
879.69	5028.4	
879.86	2429.6	
880.02	3022.1	
880.19	4679.6	
880.36	5481	
880.52	3115	
880.69	3196.9	
880.86	4987.5	
881.02	5014.1	
881.19	2989.4	
881.36	2908.1	
881.52	4931.5	
881.69	4487.1	
881.86	2934.1	
882.02	2856.9	
882.19	5123.3	
882.36	5826.5	
882.52	2797.5	
882.69	3732.1	
882.86	4766.3	
883.02	4739.7	
883.19	3272	
883.36	3083.6	
883.52	5035.3	
883.69	5589.6	
883.86	2809.8	
884.02	2513.5	
884.19	4977.9	
884.36	4694.6	
884.52	3117.7	
884.69	2942.9	
884.86	4509.6	
885.02	5335	
885.19	3004.4	
885.36	3115.6	
885.52	4657.1	
885.69	4777.9	
885.86	3794.2	
886.02	3398.9	
886.19	4999.8	
886.35	4528.7	
886.52	2992.1	
886.69	3730	
886.85	4322.6	
887.02	5185.5	
887.19	5185.5	
887.35	5185.5	
887.52	5185.5	
887.68	5185.5	
887.85	5185.5	
888.02	5185.5	
888.18	5185.5	
888.35	5185.5	
888.51	5185.5	
888.68	5185.5	
888.85	5185.5	
889.01	5185.5	
889.18	5185.5	
889.35	5185.5	
889.51	5185.5	
889.68	5185.5	
889.84	5185.5	
890.01	5185.5	
890.17	5185.5	
890.34	5185.5	
890.51	5185.5	
890.67	5185.5	
890.84	5185.5	
891	5185.5	
891.17	5185.5	
891.34	5185.5	
891.5	5185.5	
891.67	5185.5	
891.83	5185.5	
892	5185.5	
892.16	5185.5	
892.33	5185.5	
892.5	5185.5	
892.66	5185.5	
892.83	5185.5	
892.99	5185.5	
893.16	5185.5	
893.32	5185.5	
893.49	5185.5	
893.65	5185.5	
893.82	5185.5	
893.99	5185.5	
894.15	5185.5	
894.32	5185.5	
894.48	5185.5	
894.65	5185.5	
894.81	5185.5	
894.98	5185.5	
895.14	5185.5	
895.31	5185.5	
895.47	5185.5	
895.64	5185.5	
895.81	5185.5	
895.97	5185.5	
896.14	5185.5	
896.3	5185.5	
896.47	5185.5	
896.63	5185.5	
896.8	5185.5	
896.96	5185.5	
897.13	5185.5	
897.29	5185.5	
897.46	5185.5	
897.62	5185.5	
897.79	5185.5	
897.95	5185.5	
898.12	5185.5	
898.28	5185.5	
898.45	5185.5	
898.61	5185.5	
898.78	5185.5	
898.94	5185.5	
899.11	5185.5	
899.27	5185.5	
899.44	5185.5	
899.6	5185.5	
899.77	5185.5	
899.93	5185.5	
900.1	5185.5	
900.26	5185.5	
900.43	5185.5	
900.59	5185.5	
900.76	5185.5	
900.92	5185.5	
901.09	5185.5	
901.25	5185.5	
901.42	5185.5	
901.58	5185.5	
901.75	5185.5	
901.91	5185.5	
902.07	5185.5	
902.24	5185.5	
902.4	5185.5	
902.57	5185.5	
902.73	5185.5	
902.9	5185.5	
903.06	5185.5	
903.23	5185.5	
903.39	5185.5	
903.56	5185.5	
903.72	5185.5	
903.88	5185.5	
904.05	5185.5	
904.21	5185.5	
904.38	5185.5	
904.54	5185.5	
904.71	5185.5	
904.87	5185.5	
905.03	5185.5	
905.2	5185.5	
905.36	5185.5	
905.53	5185.5	
905.69	5185.5	
905.86	5185.5	
906.02	5185.5	
906.18	5185.5	
906.35	5185.5	
906.51	5185.5	
906.68	5185.5	
906.84	5185.5	
907.01	5185.5	
907.17	5185.5	
907.33	5185.5	
907.5	5185.5	
907.66	5185.5	
907.83	5185.5	
907.99	5185.5	
908.15	5185.5	
908.32	5185.5	
908.48	5185.5	
908.65	5185.5	
908.81	5185.5	
908.97	5185.5	
909.14	5185.5	
909.3	5185.5	
909.47	5185.5	
909.63	5185.5	
909.79	5185.5	
909.96	5185.5	
910.12	5185.5	
910.28	5185.5	
910.45	5185.5	
910.61	5185.5	
910.78	5185.5	
910.94	5185.5	
911.1	5185.5	
911.27	5185.5	
911.43	5185.5	
911.59	5185.5	
911.76	5185.5	
911.92	5185.5	
912.08	5185.5	
912.25	5185.5	
912.41	5185.5	
912.57	5185.5	
912.74	5185.5	
912.9	5185.5	
913.07	5185.5	
913.23	5185.5	
913.39	5185.5	
913.56	5185.5	
913.72	5185.5	
913.88	5185.5	
914.05	5185.5	
914.21	5185.5	
914.37	5185.5	
914.54	5185.5	
914.7	5185.5	
914.86	5185.5	
915.03	5185.5	
915.19	5185.5	
