Wavelength	Intensities	
nm	a.u.	
179.22	1946.4	
179.44	1943.9	
179.65	1949	
179.86	1938.7	
180.08	1893	
180.29	5005.2	
180.51	3548.4	
180.72	5671.5	
180.94	6782.9	
181.15	3298.6	
181.37	3218.7	
181.58	5588.9	
181.79	5922.7	
182.01	3442	
182.22	3661.8	
182.44	5870.2	
182.65	4956.1	
182.87	4676.9	
183.08	4088.4	
183.29	6138.4	
183.51	5051.7	
183.72	3726.6	
183.94	5504.9	
184.15	5494	
184.37	5517.2	
184.58	3290.4	
184.79	4564.9	
185.01	5050.3	
185.22	5834	
185.44	4780.6	
185.65	4028.4	
185.86	5402.5	
186.08	4982.7	
186.29	3173.7	
186.51	3362.8	
186.72	5084.4	
186.94	6076.3	
187.15	3978.5	
187.36	4173.8	
187.58	7920.2	
187.79	5588.9	
188.01	4332.8	
188.22	6703.7	
188.43	6746.7	
188.65	5823.7	
188.86	3463.8	
189.08	4154.6	
189.29	5311.7	
189.5	5317.2	
189.72	3786	
189.93	3928.7	
190.15	6065.4	
190.36	7301	
190.57	4197.7	
190.79	4028.4	
191	6186.2	
191.22	6121.4	
191.43	4192.2	
191.64	3406.5	
191.86	6303.6	
192.07	6113.9	
192.29	3573.7	
192.5	3818.1	
192.71	6081.1	
192.93	5170.4	
193.14	3774.4	
193.35	3910.3	
193.57	5265.3	
193.78	6027.2	
194	3056.9	
194.21	3708.2	
194.42	5009.3	
194.64	5578	
194.85	4126.7	
195.07	4897.4	
195.28	5545.2	
195.49	4781.3	
195.71	5187.5	
195.92	3556	
196.13	5708.4	
196.35	5840.8	
196.56	5436.7	
196.78	4136.2	
196.99	7177.4	
197.2	6712.6	
197.42	4755.4	
197.63	4220.9	
197.84	4930.8	
198.06	5737.7	
198.27	3807.2	
198.48	5101.5	
198.7	5270.1	
198.91	5362.9	
199.13	4054.3	
199.34	4160.1	
199.55	5893.4	
199.77	4841.4	
199.98	3642	
200.19	4218.1	
200.41	5383.4	
200.62	5091.3	
200.83	4378.6	
201.05	4703.5	
201.26	5423.7	
201.47	5110.4	
201.69	3678.2	
201.9	3526.6	
202.11	5457.8	
202.33	6494.8	
202.54	3894.6	
202.76	4369	
202.97	5630.5	
203.18	5654.4	
203.4	4315.1	
203.61	4246.1	
203.82	5541.8	
204.04	5134.9	
204.25	4225	
204.46	4057.7	
204.68	5510.4	
204.89	5782.8	
205.1	4031.1	
205.32	3526.6	
205.53	5990.3	
205.74	6046.3	
205.96	3028.9	
206.17	4278.9	
206.38	5954.1	
206.6	6041.5	
206.81	4778.6	
207.02	3915.7	
207.24	5773.9	
207.45	6328.2	
207.66	3961.5	
207.88	3366.2	
208.09	5713.2	
208.3	5479	
208.52	3625.6	
208.73	4042	
208.94	5513.8	
209.15	6264.7	
209.37	3900	
209.58	4225	
209.79	6072.2	
210.01	5322	
210.22	3080.8	
210.43	3291.8	
210.65	5475.6	
210.86	5937.1	
211.07	4002.4	
211.29	3651.5	
211.5	5892	
211.71	5416.2	
211.93	3596.9	
212.14	3575.8	
212.35	5450.3	
212.56	5714.5	
212.78	4201.1	
212.99	3396.9	
213.2	6506.4	
213.42	5253	
213.63	3754.6	
213.84	4048.2	
214.06	4851	
214.27	4922	
214.48	3978.5	
214.69	4190.1	
214.91	6223.8	
215.12	6281.8	
215.33	4304.1	
215.55	4758.8	
215.76	6790.4	
215.97	5923.4	
216.18	4036.5	
216.4	4012	
216.61	5173.9	
216.82	6014.9	
217.04	3671.3	
217.25	3786.7	
217.46	6249.7	
217.67	5896.1	
217.89	3263.1	
218.1	3394.2	
218.31	5590.3	
218.53	5657.9	
218.74	3844	
218.95	3712.3	
219.16	5494	
219.38	6377.4	
219.59	3726.6	
219.8	4516.5	
220.01	7163.1	
220.23	5511.8	
220.44	4867.3	
220.65	3654.3	
220.87	5517.9	
221.08	6187.6	
221.29	3309.5	
221.5	4532.8	
221.72	7601.4	
221.93	5236.7	
222.14	4230.4	
222.35	4909	
222.57	5514.5	
222.78	5862.7	
222.99	3994.9	
223.2	4281.6	
223.42	5822.4	
223.63	5988.9	
223.84	3023.5	
224.05	3044	
224.27	7122.8	
224.48	6487.3	
224.69	5009.3	
224.9	4207.9	
225.12	5704.3	
225.33	5468.1	
225.54	3321.8	
225.75	3756	
225.97	5097.4	
226.18	5356.1	
226.39	4055	
226.6	3767.6	
226.82	5229.8	
227.03	5084.4	
227.24	4214	
227.45	3393.5	
227.67	5995.8	
227.88	6470.9	
228.09	4695.3	
228.3	4700.1	
228.52	5982.8	
228.73	5483.8	
228.94	3841.3	
229.15	3399.6	
229.36	5455.8	
229.58	5309.7	
229.79	3909.6	
230	4543.8	
230.21	6616.3	
230.43	5529.5	
230.64	4149.2	
230.85	4297.3	
231.06	5941.2	
231.28	5952.8	
231.49	3453.6	
231.7	4064.5	
231.91	5848.3	
232.12	5539.1	
232.34	3517	
232.55	4044.1	
232.76	6173.9	
232.97	5733.6	
233.18	3653.6	
233.4	4122.6	
233.61	5797.1	
233.82	5242.1	
234.03	3809.9	
234.25	3758.7	
234.46	7666.2	
234.67	5591.6	
234.88	4285.7	
235.09	3710.2	
235.31	5821	
235.52	5313.8	
235.73	4151.9	
235.94	3485.6	
236.15	5175.2	
236.37	6740.5	
236.58	3612.6	
236.79	3997	
237	5798.5	
237.21	4960.2	
237.43	4233.8	
237.64	3328.6	
237.85	10120	
238.06	5090.6	
238.27	4384	
238.48	3479.5	
238.7	5898.2	
238.91	5323.4	
239.12	3975.1	
239.33	4009.9	
239.54	5085.8	
239.76	5425.1	
239.97	3907.5	
240.18	3975.8	
240.39	6952.9	
240.6	5801.9	
240.82	4177.2	
241.03	3380.5	
241.24	5515.9	
241.45	6390.3	
241.66	3663.8	
241.87	4286.4	
242.09	6301.6	
242.3	6639.5	
242.51	4315.1	
242.72	3999	
242.93	6040.1	
243.14	5417.6	
243.36	4656.4	
243.57	5008	
243.78	6410.8	
243.99	5796.4	
244.2	4009.2	
244.41	3660.4	
244.63	5029.1	
244.84	5861.3	
245.05	4288.4	
245.26	3999	
245.47	5782.1	
245.68	6152.1	
245.9	5356.1	
246.11	4249.5	
246.32	5327.4	
246.53	5763	
246.74	6598.6	
246.95	3362.8	
247.16	4934.9	
247.38	5440.1	
247.59	3289	
247.8	4019.5	
248.01	5167	
248.22	5409.4	
248.43	3637.2	
248.64	3893.9	
248.86	4823	
249.07	5205.3	
249.28	3489.7	
249.49	4059.8	
249.7	6016.2	
249.91	6268.8	
250.12	3270.6	
250.34	3363.4	
250.55	5585.5	
250.76	5518.6	
250.97	4133.5	
251.18	4188.8	
251.39	6272.9	
251.6	5681.7	
251.81	4282.3	
252.03	4192.2	
252.24	5211.4	
252.45	6041.5	
252.66	3490.4	
252.87	4395.6	
253.08	5485.8	
253.29	7302.4	
253.5	3515.7	
253.72	4902.2	
253.93	5335.6	
254.14	6589.7	
254.35	3859.1	
254.56	3903.4	
254.77	5776	
254.98	5099.4	
255.19	3751.9	
255.41	4818.9	
255.62	5659.9	
255.83	6236.1	
256.04	4340.3	
256.25	4204.5	
256.46	6871.6	
256.67	5179.3	
256.88	4035.2	
257.09	4655	
257.31	5135.6	
257.52	5233.2	
257.73	5233.2	
257.94	3826.3	
258.15	5305.6	
258.36	5557.5	
258.57	4797	
258.78	3030.3	
258.99	6024.4	
259.2	5337	
259.41	3787.4	
259.63	3932.1	
259.84	6380.8	
260.05	6922.8	
260.26	4991.6	
260.47	3718.4	
260.68	6092	
260.89	5412.8	
261.1	4585.4	
261.31	3633.8	
261.52	6084.5	
261.73	6575.3	
261.95	4945.2	
262.16	4353.3	
262.37	6315.9	
262.58	6376.7	
262.79	4927.4	
263	3903.4	
263.21	5591	
263.42	5041.4	
263.63	3942.3	
263.84	3796.3	
264.05	6121.4	
264.26	6419	
264.47	4784.1	
264.69	4341.7	
264.9	6238.1	
265.11	5773.2	
265.32	3666.5	
265.53	3739.6	
265.74	5644.9	
265.95	4889.2	
266.16	4098.7	
266.37	4516.5	
266.58	5603.9	
266.79	5322	
267	3747.1	
267.21	3513.6	
267.42	5061.9	
267.63	5479.7	
267.84	4037.2	
268.06	3383.9	
268.27	5954.1	
268.48	6287.3	
268.69	3842	
268.9	4664.6	
269.11	6262.7	
269.32	4947.9	
269.53	4000.4	
269.74	3724.6	
269.95	5868.8	
270.16	4884.4	
270.37	3993.5	
270.58	4675.5	
270.79	5346.6	
271	6096.1	
271.21	4271.4	
271.42	4033.1	
271.63	5659.9	
271.84	5158.8	
272.05	3188.7	
272.26	3597.6	
272.47	5493.3	
272.68	5732.9	
272.89	3785.3	
273.11	4491.9	
273.32	5324	
273.53	6581.5	
273.74	4313	
273.95	4223.6	
274.16	6196.5	
274.37	5634.6	
274.58	4310.3	
274.79	3470.6	
275	5612.1	
275.21	6191.7	
275.42	5237.3	
275.63	4479.6	
275.84	5791	
276.05	7326.3	
276.26	4236.6	
276.47	3976.5	
276.68	5326.8	
276.89	6569.2	
277.1	4513.7	
277.31	3516.4	
277.52	5767.8	
277.73	5905.7	
277.94	3430.3	
278.15	3828.3	
278.36	5754.1	
278.57	5124.7	
278.78	3831.7	
278.99	4271.4	
279.2	5119.9	
279.41	5077.6	
279.62	5129.5	
279.83	3561.4	
280.04	6794.5	
280.25	4998.4	
280.46	5024.3	
280.67	3971	
280.88	5112.4	
281.09	6258.6	
281.3	4283.7	
281.51	5360.9	
281.72	5216.9	
281.93	6072.9	
282.14	3738.2	
282.35	3984.7	
282.56	6083.1	
282.77	5984.8	
282.98	3859.7	
283.19	4777.2	
283.4	7362.4	
283.61	5479.7	
283.82	3545	
284.03	5028.4	
284.24	5622.4	
284.45	6251.1	
284.66	5036.6	
284.87	4742.4	
285.08	6146.6	
285.29	6254.5	
285.5	3337.5	
285.71	3948.5	
285.92	6233.3	
286.12	6803.4	
286.33	4918.5	
286.54	3885.7	
286.75	6026.5	
286.96	5364.3	
287.17	3554.6	
287.38	4865.3	
287.59	5141.1	
287.8	5045.5	
288.01	3940.3	
288.22	4433.9	
288.43	6072.2	
288.64	5017.5	
288.85	4649.6	
289.06	4481.6	
289.27	5994.4	
289.48	6514.6	
289.69	4995.7	
289.9	4499.4	
290.11	6213.5	
290.32	5205.9	
290.53	4734.9	
290.74	4382.7	
290.94	5957.5	
291.15	6096.8	
291.36	3781.2	
291.57	4506.2	
291.78	5227.8	
291.99	4897.4	
292.2	3592.8	
292.41	4377.9	
292.62	6086.6	
292.83	5845.6	
293.04	5425.8	
293.25	3612.6	
293.46	5320.6	
293.67	6195.1	
293.88	3824.2	
294.09	3601.7	
294.29	5063.3	
294.5	5633.3	
294.71	4046.1	
294.92	3807.2	
295.13	5261.2	
295.34	6681.8	
295.55	3381.2	
295.76	3396.9	
295.97	5930.2	
296.18	6762.4	
296.39	3553.9	
296.6	3728.7	
296.81	5606	
297.01	5957.5	
297.22	3895.9	
297.43	3710.2	
297.64	5158.2	
297.85	5175.9	
298.06	3056.9	
298.27	3392.8	
298.48	5565	
298.69	5223.7	
298.9	4037.9	
299.11	3685	
299.31	5038	
299.52	5071.5	
299.73	4371.7	
299.94	4300.7	
300.15	5517.2	
300.36	5126.7	
300.57	4298	
300.78	4312.3	
300.99	5371.8	
301.2	5609.4	
301.4	3690.4	
301.61	4070	
301.82	5846.3	
302.03	5956.2	
302.24	4598.4	
302.45	3575.8	
302.66	5806	
302.87	6412.2	
303.08	3752.6	
303.29	5163.6	
303.49	5285.1	
303.7	5556.1	
303.91	3325.2	
304.12	4946.5	
304.33	5008	
304.54	5651.7	
304.75	3779.2	
304.96	3621.5	
305.16	5852.4	
305.37	6651.1	
305.58	3257	
305.79	3403	
306	5894.7	
306.21	4930.1	
306.42	3742.3	
306.63	5780.7	
306.83	5390.9	
307.04	6147.3	
307.25	4148.5	
307.46	4058.4	
307.67	4734.9	
307.88	6050.4	
308.09	3635.8	
308.29	3882.3	
308.5	5608	
308.71	6137.8	
308.92	4044.1	
309.13	3650.8	
309.34	5358.9	
309.55	5429.2	
309.75	4646.2	
309.96	4272.1	
310.17	5993	
310.38	5224.4	
310.59	4503.5	
310.8	3469.3	
311.01	6522.8	
311.21	5357.5	
311.42	3532.1	
311.63	3700.7	
311.84	5261.9	
312.05	5692	
312.26	4163.5	
312.46	4610.7	
312.67	5369.1	
312.88	5051.7	
313.09	3648.8	
313.3	3547.8	
313.51	6300.2	
313.71	6778.8	
313.92	3609.2	
314.13	3850.2	
314.34	5759.6	
314.55	5454.4	
314.76	4655	
314.96	4072	
315.17	5623	
315.38	5971.2	
315.59	3650.8	
315.8	3446	
316.01	6432.7	
316.21	6488	
316.42	3512.9	
316.63	4000.4	
316.84	5425.8	
317.05	6293.4	
317.26	4349.2	
317.46	3835.8	
317.67	5490.6	
317.88	5950	
318.09	4626.4	
318.3	3416.7	
318.5	5264	
318.71	5886.5	
318.92	5934.3	
319.13	4306.2	
319.34	6082.5	
319.54	6174.6	
319.75	3368.9	
319.96	3222.8	
320.17	5963	
320.38	6141.9	
320.58	3260.4	
320.79	4005.8	
321	6149.4	
321.21	6231.3	
321.42	3994.9	
321.62	3293.8	
321.83	5104.9	
322.04	5582.8	
322.25	3829.7	
322.46	3673.4	
322.66	5586.2	
322.87	5795.1	
323.08	4526	
323.29	3570.3	
323.5	6618.4	
323.7	5034.6	
323.91	4962.2	
324.12	4583.4	
324.33	5582.1	
324.53	5828.5	
324.74	4293.9	
324.95	4517.1	
325.16	4866.7	
325.37	5359.5	
325.57	3728.7	
325.78	3732.8	
325.99	5597.8	
326.2	5024.3	
326.4	5138.4	
326.61	3355.9	
326.82	5488.6	
327.03	5603.9	
327.24	5261.2	
327.44	4946.5	
327.65	5825.1	
327.86	4664.6	
328.07	4334.2	
328.27	3468.6	
328.48	6195.1	
328.69	5105.6	
328.9	5229.1	
329.1	3877.5	
329.31	5471.5	
329.52	6344.6	
329.73	3665.2	
329.93	4125.3	
330.14	5539.1	
330.35	5810.1	
330.56	6036	
330.76	4518.5	
330.97	5374.6	
331.18	5738.4	
331.39	4067.3	
331.59	3244	
331.8	6138.4	
332.01	6285.9	
332.22	3707.5	
332.42	4298	
332.63	5643.5	
332.84	5227.1	
333.05	4107.5	
333.25	3706.8	
333.46	5286.5	
333.67	5526.8	
333.88	3773.7	
334.08	4151.2	
334.29	7466.2	
334.5	6286.6	
334.7	3534.1	
334.91	5283.1	
335.12	5082.4	
335.33	5978.7	
335.53	4040.6	
335.74	6062.7	
335.95	5299.5	
336.16	5129.5	
336.36	4181.3	
336.57	4669.4	
336.78	4990.2	
336.98	6116.6	
337.19	5029.8	
337.4	3908.2	
337.61	6666.1	
337.81	5033.9	
338.02	3708.9	
338.23	4846.2	
338.43	6338.5	
338.64	5170.4	
338.85	3645.4	
339.05	4794.3	
339.26	6469.5	
339.47	4945.2	
339.68	3667.9	
339.88	5478.3	
340.09	5847	
340.3	6029.9	
340.5	4296	
340.71	3291.8	
340.92	5000.5	
341.13	6324.1	
341.33	3532.7	
341.54	4309.6	
341.75	5768.4	
341.95	5423	
342.16	4084.3	
342.37	4494.6	
342.57	5170.4	
342.78	5500.8	
342.99	4578.6	
343.19	3294.5	
343.4	5986.2	
343.61	5803.9	
343.81	3891.1	
344.02	3595.6	
344.23	6046.3	
344.43	6420.4	
344.64	4487.8	
344.85	4455	
345.06	5799.8	
345.26	6210.8	
345.47	4265.9	
345.68	4933.6	
345.88	4881	
346.09	6100.9	
346.3	4341	
346.5	3266.5	
346.71	5559.6	
346.92	5238	
347.12	3306.8	
347.33	4257	
347.54	6119.3	
347.74	6544.6	
347.95	4198.3	
348.16	3077.4	
348.36	5283.1	
348.57	5134.3	
348.78	4141.7	
348.98	4508.3	
349.19	5481.7	
349.39	5000.5	
349.6	3389.4	
349.81	3720.5	
350.01	5735.7	
350.22	5207.3	
350.43	4039.3	
350.63	4870.8	
350.84	5606.7	
351.05	5324.7	
351.25	3695.2	
351.46	3300	
351.67	6208.8	
351.87	5244.2	
352.08	3918.4	
352.29	4498	
352.49	5982.1	
352.7	5728.2	
352.9	3558.7	
353.11	4553.3	
353.32	6792.4	
353.52	5356.8	
353.73	3522.5	
353.94	4530.1	
354.14	5954.1	
354.35	5704.3	
354.55	3646.7	
354.76	4082.3	
354.97	5847	
355.17	5593	
355.38	3392.1	
355.59	4762.9	
355.79	5287.2	
356	5709.7	
356.2	4044.1	
356.41	3547.1	
356.62	4971.1	
356.82	5482.4	
357.03	4335.5	
357.24	3876.8	
357.44	5259.9	
357.65	5401.9	
357.85	5222.3	
358.06	4123.9	
358.27	4964.3	
358.47	5273.5	
358.68	3405.8	
358.88	4270	
359.09	5840.1	
359.3	6247.7	
359.5	5034.6	
359.71	4476.2	
359.91	6714.6	
360.12	6050.4	
360.33	4302.1	
360.53	4800.4	
360.74	5296.7	
360.94	5328.8	
361.15	4559.5	
361.36	3745.1	
361.56	6122.7	
361.77	5492.7	
361.97	5057.8	
362.18	4003.8	
362.38	6096.8	
362.59	5174.5	
362.8	3651.5	
363	3538.2	
363.21	4880.3	
363.41	5625.8	
363.62	4193.6	
363.83	5323.4	
364.03	5715.9	
364.24	6707.1	
364.44	5371.8	
364.65	5409.4	
364.85	5466.7	
365.06	5126.7	
365.27	3827.7	
365.47	3864.5	
365.68	6582.2	
365.88	5421.7	
366.09	4240.7	
366.29	3981.3	
366.5	5741.1	
366.71	6181.5	
366.91	5337.7	
367.12	4504.8	
367.32	6776	
367.53	6037.4	
367.73	4422.9	
367.94	5430.5	
368.14	5963.7	
368.35	6935.1	
368.56	4351.9	
368.76	3649.5	
368.97	6050.4	
369.17	7759.8	
369.38	3859.1	
369.58	4173.8	
369.79	5122.7	
369.99	6496.8	
370.2	5199.1	
370.4	4293.9	
370.61	5753.4	
370.82	7034.8	
371.02	4167.6	
371.23	3469.9	
371.43	5010	
371.64	6386.9	
371.84	4216.8	
372.05	5450.3	
372.25	7748.8	
372.46	6178.7	
372.66	4143	
372.87	4058.4	
373.07	6162.3	
373.28	7817.8	
373.48	5287.2	
373.69	4960.2	
373.9	5621.7	
374.1	5660.6	
374.31	5221	
374.51	4669.4	
374.72	6503.7	
374.92	5324.7	
375.13	5313.1	
375.33	4492.6	
375.54	6098.2	
375.74	5470.1	
375.95	4541.7	
376.15	5926.1	
376.36	6075	
376.56	5906.3	
376.77	4649.6	
376.97	5118.6	
377.18	7133.8	
377.38	6148.7	
377.59	5485.8	
377.79	4153.3	
378	5946.6	
378.2	6421.7	
378.41	4180.6	
378.61	4088.4	
378.82	6408.8	
379.02	5504.9	
379.23	4334.9	
379.43	5521.3	
379.64	6480.5	
379.84	6140.5	
380.05	4160.8	
380.25	4098	
380.46	6178.7	
380.66	5807.4	
380.87	5561.6	
381.07	5938.4	
381.28	6866.2	
381.48	6201.9	
381.69	4270.7	
381.89	4251.6	
382.1	5149.3	
382.3	6444.3	
382.51	5366.4	
382.71	6285.2	
382.91	6247	
383.12	6805.4	
383.32	4576.5	
383.53	4789.5	
383.73	6066.1	
383.94	5830.6	
384.14	4679.6	
384.35	3830.4	
384.55	5754.8	
384.76	6251.1	
384.96	4562.9	
385.17	4928.1	
385.37	6187.6	
385.58	5506.3	
385.78	4969.1	
385.98	3809.9	
386.19	5681.1	
386.39	6063.4	
386.6	4325.3	
386.8	4617.5	
387.01	6173.3	
387.21	6283.2	
387.42	4997	
387.62	5654.4	
387.83	5573.9	
388.03	6266.8	
388.23	4670.1	
388.44	5590.3	
388.64	5234.6	
388.85	5402.5	
389.05	5000.5	
389.26	5691.3	
389.46	7286	
389.67	6633.4	
389.87	4943.8	
390.07	5067.4	
390.28	5862	
390.48	5450.3	
390.69	4234.5	
390.89	4522.6	
391.1	5658.5	
391.3	6608.8	
391.5	5726.8	
391.71	6429.3	
391.91	6296.1	
392.12	7376.1	
392.32	5791	
392.53	4999.8	
392.73	5679.7	
392.93	5906.3	
393.14	4625.7	
393.34	5434.6	
393.55	6414.2	
393.75	5901.6	
393.95	4649.6	
394.16	4590.9	
394.36	5584.1	
394.57	6326.9	
394.77	4146.5	
394.98	4528.1	
395.18	5551.4	
395.38	5739.8	
395.59	5593	
395.79	4476.9	
396	5791.7	
396.2	6229.9	
396.4	5296.7	
396.61	5221.6	
396.81	6521.4	
397.02	5745.9	
397.22	5538.4	
397.42	5678.3	
397.63	6389.7	
397.83	5606.7	
398.04	4416.1	
398.24	4952.7	
398.44	6191.7	
398.65	5270.1	
398.85	4172.4	
399.05	4385.4	
399.26	5633.3	
399.46	7395.9	
399.67	4747.2	
399.87	4531.5	
400.07	5973.2	
400.28	6349.4	
400.48	4591.5	
400.69	5582.8	
400.89	6675	
401.09	7098.3	
401.3	4427	
401.5	5732.9	
401.7	7287.4	
401.91	7516	
402.11	4780	
402.32	5053.7	
402.52	6608.8	
402.72	6565.8	
402.93	5171.8	
403.13	4001.7	
403.33	7264.1	
403.54	5988.3	
403.74	4866.7	
403.94	5844.9	
404.15	6114.6	
404.35	7315.3	
404.56	4699.4	
404.76	6744	
404.96	6563.1	
405.17	6440.2	
405.37	5692.7	
405.57	5223	
405.78	6722.8	
405.98	6100.2	
406.18	4709.6	
406.39	5683.8	
406.59	6595.8	
406.79	6125.5	
407	4516.5	
407.2	4561.5	
407.4	6583.5	
407.61	6886	
407.81	4690.5	
408.01	6921.5	
408.22	5618.9	
408.42	7728.4	
408.62	5814.2	
408.83	5274.2	
409.03	6319.3	
409.23	6047	
409.44	5410.7	
409.64	5662.6	
409.84	7311.9	
410.05	7138.5	
410.25	5424.4	
410.45	5310.4	
410.66	6642.2	
410.86	9181.7	
411.06	5748	
411.27	5559.6	
411.47	8985.1	
411.67	6830	
411.88	5831.2	
412.08	6158.2	
412.28	7429.3	
412.49	7987.8	
412.69	5563.6	
412.89	5545.2	
413.09	7806.9	
413.3	7708.6	
413.5	5697.4	
413.7	5296	
413.91	6858.6	
414.11	7778.2	
414.31	5508.4	
414.52	5982.8	
414.72	7439.6	
414.92	7397.9	
415.12	5570.5	
415.33	6083.8	
415.53	7778.2	
415.73	7957.7	
415.94	6466.8	
416.14	5872.9	
416.34	6732.4	
416.55	6462	
416.75	7109.2	
416.95	6516	
417.15	7739.3	
417.36	8542.1	
417.56	7380.9	
417.76	6412.2	
417.97	8217.8	
418.17	7902.4	
418.37	5894.7	
418.57	5978	
418.78	7487.4	
418.98	7172	
419.18	6846.4	
419.38	6763.1	
419.59	7285.3	
419.79	6823.1	
419.99	5762.3	
420.2	6260.6	
420.4	7819.8	
420.6	7970.7	
420.8	5735.7	
421.01	5650.3	
421.21	7543.4	
421.41	7828	
421.61	6123.4	
421.82	5810.8	
422.02	7113.3	
422.22	8036.2	
422.42	6676.4	
422.63	6240.2	
422.83	7187.7	
423.03	8509.3	
423.23	6240.2	
423.44	5202.5	
423.64	7292.8	
423.84	7007.5	
424.04	5751.4	
424.25	5335.6	
424.45	8213.7	
424.65	8172.1	
424.85	5144.5	
425.06	5732.3	
425.26	8149.6	
425.46	6748.1	
425.66	6250.4	
425.87	5954.1	
426.07	7943.4	
426.27	7797.3	
426.47	6128.2	
426.67	5412.1	
426.88	8244.4	
427.08	7731.8	
427.28	6331	
427.48	5297.4	
427.69	6582.2	
427.89	7257.3	
428.09	6241.5	
428.29	5403.2	
428.5	8062.2	
428.7	7425.3	
428.9	5337.7	
429.1	5917.9	
429.3	7382.2	
429.51	7951.6	
429.71	5682.4	
429.91	6482.5	
430.11	7751.6	
430.31	7933.1	
430.52	5898.1	
430.72	6388.3	
430.92	8314.8	
431.12	7658	
431.32	5595.1	
431.53	6032.6	
431.73	6618.4	
431.93	8420.6	
432.13	5552	
432.33	5396.4	
432.54	7178.1	
432.74	7564.5	
432.94	5378	
433.14	6459.3	
433.34	7679.2	
433.55	7137.2	
433.75	6351.4	
433.95	8217.8	
434.15	7501	
434.35	7155.6	
434.56	5557.5	
434.76	5117.9	
434.96	7450.5	
435.16	7789.8	
435.36	5403.9	
435.56	6598.6	
435.77	7086.7	
435.97	7213.6	
436.17	7327.6	
436.37	6555.5	
436.57	7073.7	
436.78	7083.2	
436.98	8441	
437.18	7170.6	
437.38	7795.3	
437.58	7297.6	
437.78	7305.1	
437.99	5810.1	
438.19	7758.4	
438.39	9312.8	
438.59	5714.5	
438.79	5231.9	
438.99	8494.3	
439.2	7299.6	
439.4	5446.2	
439.6	5427.1	
439.8	7697.6	
440	8857.5	
440.2	6513.9	
440.4	6646.3	
440.61	8099	
440.81	8602.8	
441.01	5699.5	
441.21	6645	
441.41	8478.6	
441.61	8051.2	
441.81	6870.3	
442.02	8030.8	
442.22	8931.9	
442.42	8104.5	
442.62	5808	
442.82	5784.1	
443.02	8430.8	
443.22	7519.5	
443.43	6275	
443.63	5750.7	
443.83	7347.4	
444.03	7473	
444.23	7095.5	
444.43	6657.9	
444.63	7722.9	
444.83	8994.7	
445.04	5802.6	
445.24	7176.8	
445.44	8061.5	
445.64	8148.2	
445.84	6682.5	
446.04	6673	
446.24	7327.6	
446.44	8428.8	
446.65	5815.5	
446.85	6237.4	
447.05	7711.3	
447.25	8457.4	
447.45	6372.6	
447.65	5625.8	
447.85	7799.3	
448.05	7378.8	
448.25	6776.7	
448.46	6617	
448.66	7707.2	
448.86	7441.6	
449.06	5530.9	
449.26	6777.4	
449.46	8153	
449.66	7137.9	
449.86	6296.1	
450.06	6133	
450.26	7240.3	
450.47	7927	
450.67	6473.6	
450.87	6846.4	
451.07	8003.5	
451.27	7836.2	
451.47	5821.7	
451.67	6412.9	
451.87	7468.3	
452.07	8632.9	
452.27	6077	
452.47	5977.3	
452.67	7789.8	
452.88	8372.8	
453.08	5319.3	
453.28	7471.7	
453.48	9028.8	
453.68	7703.8	
453.88	5911.1	
454.08	6184.2	
454.28	8134.5	
454.48	7793.2	
454.68	6849.8	
454.88	7335.1	
455.08	8226.7	
455.28	8041.7	
455.48	5782.1	
455.68	6511.2	
455.89	8715.5	
456.09	8442.4	
456.29	6159.6	
456.49	6279.1	
456.69	8687.5	
456.89	7994.6	
457.09	6764.4	
457.29	7211.6	
457.49	8198.7	
457.69	8355	
457.89	6636.8	
458.09	6083.8	
458.29	7933.8	
458.49	8722.3	
458.69	7030	
458.89	6453.8	
459.09	8971.5	
459.29	9110	
459.49	6535.1	
459.69	7370	
459.9	8559.8	
460.1	7982.3	
460.3	6434	
460.5	6257.2	
460.7	8516.1	
460.9	8150.2	
461.1	5930.2	
461.3	7326.9	
461.5	9160.6	
461.7	8725	
461.9	6341.9	
462.1	6810.9	
462.3	8159.1	
462.5	8832.9	
462.7	6421.1	
462.9	6641.6	
463.1	10019	
463.3	9621.4	
463.5	6718.7	
463.7	7712.7	
463.9	8419.2	
464.1	8901.2	
464.3	6897.6	
464.5	7153.6	
464.7	9089.6	
464.9	8793.3	
465.1	8444.5	
465.3	7502.4	
465.5	9505.3	
465.7	9498.5	
465.9	7770	
466.1	7664.2	
466.3	9334.6	
466.5	9033.6	
466.7	8574.8	
466.9	7352.2	
467.1	8955.8	
467.3	10008	
467.5	8430.8	
467.7	7262.8	
467.9	10287	
468.1	11165	
468.3	8094.9	
468.5	8492.9	
468.7	9041.8	
468.9	8957.1	
469.1	7581.6	
469.3	8357.1	
469.5	11172	
469.7	8579.6	
469.9	8093.6	
470.1	7309.9	
470.3	9017.9	
470.5	9002.9	
470.7	8651.3	
470.9	7339.9	
471.1	8791.9	
471.3	9224.7	
471.5	7111.9	
471.69	9214.5	
471.89	8638.3	
472.09	8179.6	
472.29	8001.4	
472.49	8360.5	
472.69	8445.8	
472.89	9270.5	
473.09	7016.3	
473.29	7253.9	
473.49	8539.3	
473.69	8652	
473.89	8301.1	
474.09	7464.2	
474.29	10045	
474.49	9738.1	
474.69	8144.1	
474.89	7461.4	
475.09	8795.3	
475.29	8701.1	
475.49	6880.5	
475.69	7221.1	
475.88	10398	
476.08	8972.8	
476.28	6834.1	
476.48	7331	
476.68	9432.9	
476.88	9354.4	
477.08	7169.3	
477.28	7472.4	
477.48	8842.4	
477.68	9451.4	
477.88	6978.1	
478.08	7308.5	
478.28	9893.1	
478.48	8990.6	
478.67	7337.9	
478.87	6759.7	
479.07	9630.9	
479.27	8992.6	
479.47	7528.3	
479.67	7563.8	
479.87	9400.2	
480.07	9942.2	
480.27	6768.5	
480.47	8564.6	
480.67	8994	
480.87	9722.4	
481.06	7119.4	
481.26	7977.5	
481.46	8979	
481.66	8920.3	
481.86	7549.5	
482.06	8658.8	
482.26	8658.8	
482.46	9660.3	
482.66	7505.1	
482.86	6991.8	
483.05	9007	
483.25	8454.7	
483.45	10070	
483.65	7536.5	
483.85	8667.7	
484.05	8956.4	
484.25	7965.9	
484.45	8528.4	
484.65	9897.2	
484.84	9838.4	
485.04	7415.7	
485.24	7404.1	
485.44	10252	
485.64	8362.5	
485.84	6795.8	
486.04	8211	
486.24	8854.1	
486.44	9172.9	
486.63	6719.4	
486.83	7516	
487.03	8733.2	
487.23	8924.4	
487.43	6749.4	
487.63	9385.8	
487.83	8968.1	
488.02	10027	
488.22	7837.6	
488.42	8583.7	
488.62	9822.7	
488.82	8815.8	
489.02	7434.1	
489.22	7556.3	
489.41	9692.4	
489.61	9408.4	
489.81	7195.2	
490.01	7268.9	
490.21	9652.8	
490.41	10355	
490.61	7157	
490.8	7316	
491	9069.1	
491.2	8390.5	
491.4	7951.6	
491.6	6979.5	
491.8	8981.7	
491.99	9268.4	
492.19	6834.8	
492.39	7192.5	
492.59	9775	
492.79	9821.4	
492.99	8282.7	
493.18	7304.4	
493.38	9864.4	
493.58	10707	
493.78	8120.9	
493.98	7673.7	
494.18	9478.7	
494.37	8856.8	
494.57	8346.8	
494.77	8241	
494.97	9769.5	
495.17	10049	
495.37	7729.7	
495.56	8064.2	
495.76	10325	
495.96	9955.2	
496.16	8954.4	
496.36	7864.9	
496.55	10055	
496.75	9556.5	
496.95	8234.2	
497.15	8033.5	
497.35	10026	
497.54	10010	
497.74	7929.7	
497.94	9802.3	
498.14	10757	
498.34	10585	
498.53	7649.2	
498.73	8572.1	
498.93	9420	
499.13	9971.6	
499.33	8241	
499.52	8845.9	
499.72	9983.2	
499.92	10387	
500.12	8014.4	
500.32	8199.4	
500.51	10288	
500.71	10023	
500.91	9015.2	
501.11	8626	
501.31	10258	
501.5	10644	
501.7	9245.9	
501.9	8187.8	
502.1	10004	
502.29	10317	
502.49	8550.3	
502.69	9102.5	
502.89	10209	
503.09	10205	
503.28	7565.9	
503.48	7770.7	
503.68	9249.3	
503.88	9415.2	
504.07	8753	
504.27	8301.8	
504.47	9810.5	
504.67	9938.8	
504.86	8686.8	
505.06	8399.4	
505.26	9374.2	
505.46	11225	
505.65	8192.6	
505.85	8479.3	
506.05	9273.2	
506.25	9859.6	
506.44	7479.2	
506.64	8517.5	
506.84	9148.3	
507.04	10260	
507.23	7742.7	
507.43	8436.3	
507.63	11319	
507.83	9439.8	
508.02	8363.2	
508.22	7862.8	
508.42	11565	
508.62	9187.9	
508.81	8202.1	
509.01	8779.6	
509.21	9080.7	
509.4	9388.6	
509.6	8383	
509.8	7750.2	
510	9349	
510.19	10917	
510.39	7720.8	
510.59	7817.1	
510.79	9097.8	
510.98	10619	
511.18	7826.7	
511.38	8073.1	
511.57	10008	
511.77	9809.8	
511.97	8701.8	
512.17	7484.6	
512.36	9985.2	
512.56	9912.9	
512.76	7689.4	
512.95	7381.6	
513.15	10133	
513.35	8708	
513.55	8576.2	
513.74	7650.5	
513.94	10100	
514.14	9362.6	
514.33	8670.4	
514.53	8391.2	
514.73	9401.5	
514.92	9580.4	
515.12	7921.5	
515.32	7665.5	
515.51	9615.2	
515.71	10229	
515.91	9456.8	
516.11	7817.8	
516.3	11462	
516.5	9306	
516.7	8400.1	
516.89	9009.7	
517.09	9334	
517.29	9224.1	
517.48	8563.9	
517.68	8037.6	
517.88	9067	
518.07	9723.8	
518.27	8455.4	
518.47	7536.5	
518.66	10337	
518.86	8768.7	
519.06	7373.4	
519.25	7901.7	
519.45	9351	
519.65	10887	
519.84	8597.4	
520.04	9270.5	
520.24	11153	
520.43	9798.2	
520.63	8159.8	
520.83	7863.5	
521.02	8905.3	
521.22	9739.5	
521.42	8409	
521.61	9061.6	
521.81	9332.6	
522.01	9579.7	
522.2	8410.3	
522.4	8168	
522.6	10061	
522.79	8812.4	
522.99	8277.2	
523.18	7503.8	
523.38	9785.2	
523.58	9833.7	
523.77	9681.4	
523.97	7473.7	
524.17	11761	
524.36	10879	
524.56	8923	
524.76	8629.5	
524.95	9889	
525.15	9477.3	
525.34	8357.8	
525.54	8379.6	
525.74	10165	
525.93	9167.4	
526.13	9653.4	
526.33	8306.6	
526.52	10529	
526.72	10048	
526.91	9626.1	
527.11	8882.7	
527.31	10645	
527.5	11107	
527.7	8807.6	
527.89	7845.8	
528.09	9472.5	
528.29	10191	
528.48	9230.2	
528.68	8910.7	
528.87	10485	
529.07	10507	
529.27	8676.6	
529.46	8163.2	
529.66	10013	
529.85	10471	
530.05	7926.3	
530.25	8747.6	
530.44	11501	
530.64	9966.8	
530.83	8448.6	
531.03	8754.4	
531.23	10479	
531.42	10318	
531.62	9660.3	
531.81	8717.5	
532.01	10701	
532.21	11178	
532.4	8458.8	
532.6	8785.1	
532.79	11576	
532.99	10701	
533.18	8885.5	
533.38	9901.9	
533.58	10191	
533.77	11112	
533.97	8889.5	
534.16	9649.3	
534.36	11288	
534.55	10386	
534.75	10360	
534.95	8880	
535.14	11231	
535.34	10284	
535.53	8480	
535.73	10579	
535.92	11583	
536.12	10444	
536.31	8643.8	
536.51	9865.7	
536.71	10824	
536.9	10306	
537.1	8819.9	
537.29	8996.7	
537.49	11252	
537.68	10185	
537.88	9402.2	
538.07	8462.2	
538.27	10544	
538.46	11543	
538.66	8482.7	
538.86	8984.4	
539.05	10540	
539.25	10987	
539.44	9226.1	
539.64	8652.7	
539.83	10325	
540.03	11347	
540.22	8591.9	
540.42	8725.7	
540.61	10509	
540.81	10718	
541	9198.8	
541.2	9965.4	
541.39	9947.7	
541.59	10387	
541.78	9599.5	
541.98	8561.9	
542.18	9756.5	
542.37	9731.3	
542.57	8927.1	
542.76	9492.3	
542.96	9688.9	
543.15	10440	
543.35	8885.5	
543.54	8219.9	
543.74	10802	
543.93	10333	
544.13	8873.2	
544.32	10153	
544.52	10645	
544.71	9828.2	
544.91	7989.1	
545.1	9413.1	
545.3	9871.9	
545.49	10683	
545.69	7938.6	
545.88	8502.5	
546.08	11615	
546.27	11143	
546.47	9154.4	
546.66	8293.6	
546.86	10880	
547.05	11484	
547.24	8649.3	
547.44	8393.3	
547.63	9558.6	
547.83	10817	
548.02	8858.8	
548.22	9075.9	
548.41	9475.3	
548.61	10785	
548.8	8330.5	
549	8293.6	
549.19	10133	
549.39	10533	
549.58	8012.3	
549.78	8603.5	
549.97	10593	
550.17	9953.8	
550.36	9542.9	
550.55	10512	
550.75	10008	
550.94	11019	
551.14	8257.4	
551.33	8699.1	
551.53	9312.1	
551.72	10353	
551.92	8742.8	
552.11	8355	
552.31	10354	
552.5	10458	
552.69	10215	
552.89	7963.2	
553.08	10389	
553.28	10041	
553.47	8371.4	
553.67	9557.9	
553.86	11085	
554.06	9260.2	
554.25	7484.6	
554.44	8148.9	
554.64	11881	
554.83	11346	
555.03	8244.4	
555.22	8548.9	
555.42	10504	
555.61	10163	
555.8	8340	
556	8575.5	
556.19	9285.5	
556.39	10690	
556.58	8383	
556.78	8344.1	
556.97	10147	
557.16	9698.5	
557.36	9579.7	
557.55	8101.1	
557.75	9006.3	
557.94	10921	
558.13	8006.9	
558.33	7807.5	
558.52	10674	
558.72	9435.7	
558.91	7979.6	
559.1	8172.8	
559.3	9163.3	
559.49	8787.2	
559.69	7436.2	
559.88	8612.4	
560.07	10037	
560.27	10454	
560.46	8669.1	
560.66	8845.2	
560.85	9828.2	
561.04	8910.7	
561.24	7860.1	
561.43	8083.3	
561.63	9189.9	
561.82	9538.8	
562.01	9448	
562.21	8476.5	
562.4	10003	
562.59	11006	
562.79	8234.9	
562.98	7947.5	
563.18	9945.6	
563.37	11404	
563.56	8812.4	
563.76	7757	
563.95	9273.9	
564.14	9266.4	
564.34	8251.3	
564.53	8019.2	
564.73	9943.6	
564.92	10232	
565.11	8485.4	
565.31	7853.3	
565.5	10491	
565.69	9447.3	
565.89	7948.2	
566.08	8269.7	
566.27	10365	
566.47	10796	
566.66	8921	
566.85	7565.9	
567.05	9962.7	
567.24	9220.6	
567.44	7832.8	
567.63	9380.4	
567.82	10096	
568.02	9909.4	
568.21	7910.6	
568.4	8318.2	
568.6	9712.8	
568.79	9790	
568.98	7706.5	
569.18	7894.9	
569.37	9738.1	
569.56	11850	
569.76	8348.9	
569.95	9280.7	
570.14	10146	
570.34	10101	
570.53	7709.9	
570.72	7740.6	
570.91	10574	
571.11	9659.6	
571.3	8211	
571.49	9222.7	
571.69	9638.4	
571.88	9288.2	
572.07	8815.8	
572.27	8862.2	
572.46	9306.7	
572.65	10415	
572.85	8008.9	
573.04	8345.5	
573.23	10649	
573.43	9797.5	
573.62	7731.8	
573.81	8486.8	
574	9911.5	
574.2	9769.5	
574.39	8176.2	
574.58	8304.5	
574.78	10736	
574.97	9949.7	
575.16	8725	
575.36	9016.5	
575.55	10385	
575.74	10479	
575.93	7776.8	
576.13	8882	
576.32	9680.1	
576.51	10341	
576.71	8222.6	
576.9	9628.2	
577.09	10667	
577.28	10095	
577.48	8770.1	
577.67	7688.8	
577.86	9822.7	
578.05	10159	
578.25	8377.6	
578.44	8508.6	
578.63	9908.1	
578.83	11172	
579.02	7843	
579.21	9379.7	
579.4	10149	
579.6	9781.8	
579.79	8469.7	
579.98	10877	
580.17	10471	
580.37	10592	
580.56	8033.5	
580.75	8770.8	
580.94	11217	
581.14	10801	
581.33	9209	
581.52	8193.9	
581.71	10376	
581.91	11033	
582.1	7686	
582.29	8445.8	
582.48	10039	
582.68	9952.4	
582.87	8854.1	
583.06	8562.6	
583.25	10280	
583.45	10069	
583.64	9260.2	
583.83	10000	
584.02	9752.4	
584.21	10294	
584.41	9223.4	
584.6	8435.6	
584.79	10031	
584.98	10726	
585.18	7932.5	
585.37	7890.8	
585.56	9402.9	
585.75	10338	
585.94	8133.8	
586.14	8785.8	
586.33	10932	
586.52	9891	
586.71	8526.4	
586.91	8346.8	
587.1	9284.8	
587.29	10307	
587.48	8303.8	
587.67	8118.8	
587.87	10160	
588.06	10198	
588.25	9441.1	
588.44	8734.6	
588.63	9805.7	
588.83	10359	
589.02	8066.3	
589.21	7894.9	
589.4	9307.3	
589.59	9232.9	
589.78	7093.5	
589.98	7439.6	
590.17	8883.4	
590.36	9529.9	
590.55	6714.6	
590.74	7688.1	
590.94	10933	
591.13	9465	
591.32	7514	
591.51	7054.6	
591.7	10004	
591.89	9394.7	
592.09	7125.6	
592.28	7587.7	
592.47	8499.8	
592.66	10471	
592.85	7080.5	
593.05	7413.6	
593.24	9146.2	
593.43	9985.9	
593.62	7458	
593.81	7971.4	
594	9197.4	
594.19	9377.6	
594.39	7305.1	
594.58	7326.9	
594.77	9550.4	
594.96	10143	
595.15	7189.7	
595.34	7846.5	
595.54	9544.9	
595.73	8588.5	
595.92	6544.6	
596.11	7841.7	
596.3	10134	
596.49	8783.7	
596.68	7567.9	
596.88	8127	
597.07	9783.1	
597.26	8447.2	
597.45	7017	
597.64	8259.5	
597.83	8768	
598.02	9499.2	
598.22	7163.8	
598.41	7865.6	
598.6	9182.4	
598.79	8697	
598.98	7119.4	
599.17	8170.7	
599.36	9224.7	
599.55	10498	
599.74	9387.9	
599.94	9136.7	
600.13	9856.2	
600.32	8584.4	
600.51	6911.2	
600.7	7126.9	
600.89	10472	
601.08	10526	
601.27	6905.1	
601.47	7879.2	
601.66	9697.8	
601.85	10429	
602.04	7559.7	
602.23	7754.3	
602.42	8710	
602.61	9444.5	
602.8	7465.5	
602.99	7261.4	
603.18	9045.9	
603.37	9368.8	
603.57	8008.9	
603.76	8505.9	
603.95	10167	
604.14	9704.6	
604.33	7307.8	
604.52	7691.5	
604.71	9356.5	
604.9	8980.3	
605.09	8314.1	
605.28	8092.2	
605.47	9909.4	
605.66	9654.1	
605.86	7957	
606.05	7308.5	
606.24	9970.2	
606.43	8402.1	
606.62	7609.6	
606.81	8477.2	
607	9761.3	
607.19	9054.1	
607.38	7034.8	
607.57	7350.2	
607.76	8824.7	
607.95	8241.7	
608.14	7697.6	
608.33	8340.7	
608.52	8746.2	
608.72	9720.3	
608.91	6987	
609.1	6756.9	
609.29	8966.7	
609.48	8369.4	
609.67	7857.4	
609.86	6967.2	
610.05	8551.6	
610.24	8804.2	
610.43	6746.7	
610.62	6389	
610.81	10051	
611	9774.3	
611.19	6860	
611.38	7658.7	
611.57	9177.6	
611.76	10562	
611.95	6634.1	
612.14	6496.2	
612.33	8930.5	
612.52	8386.4	
612.71	7257.3	
612.9	6275	
613.09	8033.5	
613.28	10438	
613.47	6901	
613.66	7985.7	
613.85	9065	
614.04	8529.1	
614.24	7062.1	
614.43	6184.9	
614.62	9178.3	
614.81	9170.8	
615	7667.6	
615.19	7595.2	
615.38	8399.4	
615.57	8753	
615.76	7456.7	
615.95	8421.2	
616.14	9138.7	
616.33	8811.7	
616.52	7785	
616.71	7982.3	
616.9	9207.7	
617.09	9024	
617.28	7126.9	
617.47	8386.4	
617.66	8277.2	
617.85	8245.8	
618.04	8032.1	
618.22	7460.8	
618.41	8655.4	
618.6	9536.7	
618.79	7421.8	
618.98	7148.8	
619.17	9908.1	
619.36	8108.6	
619.55	7172.7	
619.74	7286.7	
619.93	9117.6	
620.12	8495.7	
620.31	7882.6	
620.5	8062.2	
620.69	9698.5	
620.88	10133	
621.07	8725.7	
621.26	7767.3	
621.45	9247.3	
621.64	9326.4	
621.83	7897.7	
622.02	6991.1	
622.21	9192.6	
622.4	9029.5	
622.59	8479.3	
622.78	8210.3	
622.97	8615.8	
623.16	9713.5	
623.35	7810.3	
623.54	6935.8	
623.72	8838.4	
623.91	9081.4	
624.1	8034.2	
624.29	6673.6	
624.48	10099	
624.67	9387.2	
624.86	7955	
625.05	6902.3	
625.24	10282	
625.43	8579.6	
625.62	9715.6	
625.81	7191.8	
626	9769.5	
626.19	8831.5	
626.38	8071	
626.56	7354.3	
626.75	8715.5	
626.94	9472.5	
627.13	8047.8	
627.32	6599.9	
627.51	9310.1	
627.7	10808	
627.89	6827.2	
628.08	8029.4	
628.27	8548.9	
628.46	8669.7	
628.65	7126.9	
628.83	6758.3	
629.02	9382.4	
629.21	8615.8	
629.4	7474.4	
629.59	7721.5	
629.78	8569.4	
629.97	9528.5	
630.16	7807.5	
630.35	7252.5	
630.54	10040	
630.72	9688.3	
630.91	7098.3	
631.1	7828	
631.29	9081.4	
631.48	9364	
631.67	7975.5	
631.86	7261.4	
632.05	8698.4	
632.24	8684.1	
632.42	6987	
632.61	7641.7	
632.8	8918.2	
632.99	8529.8	
633.18	7596.6	
633.37	8023.9	
633.56	9152.4	
633.75	8924.4	
633.93	7485.3	
634.12	7291.5	
634.31	9949.7	
634.5	9597.5	
634.69	7283.9	
634.88	7874.4	
635.07	8821.3	
635.25	9470.5	
635.44	8254	
635.63	8531.8	
635.82	8594.6	
636.01	8162.5	
636.2	8099	
636.39	7679.9	
636.57	9903.3	
636.76	9584.5	
636.95	7109.9	
637.14	8677.2	
637.33	9196.7	
637.52	10262	
637.7	6898.9	
637.89	7905.2	
638.08	8712.7	
638.27	10215	
638.46	7965.2	
638.65	8392.6	
638.83	10312	
639.02	8511.4	
639.21	7901.1	
639.4	8342.1	
639.59	9073.9	
639.78	8589.9	
639.96	7056.6	
640.15	7113.3	
640.34	8869.8	
640.53	9054.1	
640.72	6775.4	
640.91	7104.4	
641.09	8359.8	
641.28	9794.1	
641.47	7034.1	
641.66	8002.1	
641.85	9028.8	
642.03	9354.4	
642.22	7834.2	
642.41	7275.8	
642.6	8442.4	
642.79	7730.4	
642.97	6909.2	
643.16	7819.8	
643.35	8383	
643.54	8129.8	
643.73	6873	
643.91	7733.1	
644.1	7955.7	
644.29	8625.4	
644.48	6912.6	
644.67	6965.8	
644.85	8215.1	
645.04	8501.1	
645.23	6458.6	
645.42	6715.3	
645.6	8037.6	
645.79	9247.9	
645.98	6778.8	
646.17	5836	
646.36	7772	
646.54	8284.7	
646.73	7673.1	
646.92	6429.3	
647.11	7947.5	
647.29	9154.4	
647.48	6486.6	
647.67	6167.8	
647.86	9353.1	
648.05	9378.3	
648.23	6754.2	
648.42	8154.3	
648.61	8729.8	
648.8	8438.3	
648.98	6341.2	
649.17	6831.3	
649.36	7937.9	
649.55	7477.8	
649.73	6436.1	
649.92	7296.9	
650.11	7757	
650.3	8170.7	
650.48	6591	
650.67	6244.3	
650.86	8427.4	
651.05	7311.2	
651.23	6578.1	
651.42	6549.4	
651.61	7912	
651.79	8077.2	
651.98	6785.6	
652.17	6306.4	
652.36	8402.1	
652.54	7380.9	
652.73	6295.5	
652.92	6124.1	
653.11	8401.5	
653.29	8385.7	
653.48	5631.2	
653.67	6652.5	
653.85	8060.1	
654.04	9179.7	
654.23	6854.6	
654.42	6332.3	
654.6	7582.3	
654.79	8260.1	
654.98	5801.9	
655.16	6362.4	
655.35	7206.1	
655.54	7177.4	
655.73	5851	
655.91	5901.6	
656.1	8361.9	
656.29	7126.2	
656.47	5427.8	
656.66	7301	
656.85	7511.3	
657.03	7492.2	
657.22	5962.3	
657.41	6066.8	
657.59	7570.7	
657.78	7286.7	
657.97	5656.5	
658.16	6391.7	
658.34	8206.2	
658.53	8669.7	
658.72	7389.1	
658.9	7907.9	
659.09	7604.8	
659.28	7701	
659.46	6144.6	
659.65	6076.3	
659.84	7479.9	
660.02	7869	
660.21	6059.3	
660.4	5927.5	
660.58	8406.2	
660.77	7703.1	
660.96	6595.1	
661.14	5560.2	
661.33	8964.6	
661.52	8748.9	
661.7	5430.5	
661.89	9481.4	
662.08	7345.4	
662.26	6846.4	
662.45	5729.5	
662.64	5973.2	
662.82	8020.5	
663.01	7168.6	
663.2	5908.4	
663.38	6720.8	
663.57	7901.7	
663.75	7898.3	
663.94	6253.1	
664.13	7532.4	
664.31	7208.8	
664.5	8074.5	
664.69	6621.8	
664.87	7149.5	
665.06	6999.3	
665.25	7760.4	
665.43	7423.2	
665.62	7509.2	
665.8	8150.9	
665.99	7441.6	
666.18	6235.4	
666.36	6373.3	
666.55	8107.2	
666.74	8000.7	
666.92	5872.2	
667.11	7559.7	
667.29	7416.4	
667.48	8039	
667.67	7143.3	
667.85	6236.7	
668.04	7421.2	
668.22	7499.7	
668.41	6339.1	
668.6	6402	
668.78	7207.5	
668.97	7463.5	
669.15	6735.8	
669.34	5599.8	
669.53	7176.8	
669.71	7674.4	
669.9	5831.2	
670.08	6525.5	
670.27	7210.2	
670.46	7918.8	
670.64	6681.8	
670.83	6984.3	
671.01	7086.7	
671.2	7769.3	
671.38	5819	
671.57	5760.9	
671.76	8402.8	
671.94	9067	
672.13	5717.2	
672.31	6896.9	
672.5	7960.5	
672.69	7014.3	
672.87	5860.6	
673.06	6188.3	
673.24	7731.1	
673.43	7260	
673.61	6608.8	
673.8	6161.7	
673.98	8008.9	
674.17	8173.4	
674.36	6794.5	
674.54	6665.5	
674.73	7668.3	
674.91	7978.2	
675.1	6312.5	
675.28	5928.9	
675.47	7506.5	
675.65	8114.7	
675.84	6171.9	
676.03	6480.5	
676.21	7213.6	
676.4	6741.9	
676.58	7029.3	
676.77	6771.3	
676.95	8740	
677.14	7253.2	
677.32	5855.1	
677.51	5612.1	
677.69	8045.1	
677.88	6819.1	
678.06	5673.6	
678.25	5808	
678.44	7467.6	
678.62	7176.8	
678.81	5444.9	
678.99	6604.7	
679.18	8357.8	
679.36	7878.5	
679.55	6136.4	
679.73	6793.1	
679.92	7869.7	
680.1	7178.1	
680.29	7396.6	
680.47	6148.7	
680.66	7141.9	
680.84	8001.4	
681.03	5381.4	
681.21	6516.6	
681.4	7244.3	
681.58	7072.3	
681.77	5875.6	
681.95	5815.5	
682.14	8092.9	
682.32	8495.7	
682.51	6829.3	
682.69	5544.5	
682.88	7099.6	
683.06	7864.9	
683.25	6380.8	
683.43	6911.2	
683.62	7403.4	
683.8	7847.1	
683.99	7027.3	
684.17	6337.8	
684.36	8707.3	
684.54	7250.5	
684.73	5394.3	
684.91	5641.5	
685.1	7666.2	
685.28	7000.6	
685.46	6192.4	
685.65	6380.8	
685.83	7963.2	
686.02	7227.3	
686.2	5812.1	
686.39	5941.2	
686.57	6810.2	
686.76	8607.6	
686.94	5702.9	
687.13	5859.9	
687.31	7828.7	
687.5	7180.2	
687.68	5285.1	
687.86	6731.7	
688.05	9055.4	
688.23	6726.9	
688.42	6797.2	
688.6	5917.9	
688.79	7098.3	
688.97	7109.2	
689.16	6184.2	
689.34	5167	
689.52	7915.4	
689.71	8172.1	
689.89	6612.9	
690.08	5748.6	
690.26	7367.2	
690.45	7268.2	
690.63	6754.9	
690.81	5901.6	
691	7139.2	
691.18	7090.1	
691.37	6154.1	
691.55	8435.6	
691.74	7011.6	
691.92	9216.5	
692.1	6129.6	
692.29	5485.8	
692.47	7256.6	
692.66	6507.1	
692.84	5715.2	
693.02	6318.7	
693.21	6678.4	
693.39	7240.3	
693.58	6406	
693.76	5855.1	
693.94	8508.6	
694.13	8304.5	
694.31	5938.4	
694.5	7010.2	
694.68	7066.2	
694.86	7432.8	
695.05	6255.2	
695.23	6618.4	
695.42	7854.6	
695.6	10322	
695.78	6847	
695.97	5833.3	
696.15	7813.7	
696.34	7201.3	
696.52	5547.9	
696.7	6509.8	
696.89	7632.1	
697.07	6946	
697.25	6440.9	
697.44	8066.3	
697.62	7521.5	
697.81	7946.8	
697.99	6047.7	
698.17	6622.4	
698.36	6829.3	
698.54	7585.7	
698.72	6429.3	
698.91	5443.5	
699.09	7128.3	
699.28	7010.9	
699.46	6130.3	
699.64	6006	
699.83	7001.3	
700.01	8284	
700.19	6783.6	
700.38	5203.9	
700.56	8221.9	
700.74	7071	
700.93	5577.3	
701.11	6513.9	
701.29	7718.8	
701.48	8800.1	
701.66	5850.4	
701.84	5867.4	
702.03	7103.7	
702.21	7875.1	
702.39	5429.8	
702.58	6041.5	
702.76	7538.6	
702.94	7770.7	
703.13	5445.5	
703.31	7937.9	
703.49	6861.4	
703.68	7928.4	
703.86	5642.2	
704.04	6645.7	
704.23	7413	
704.41	7829.4	
704.59	5765	
704.78	7172.7	
704.96	8584.4	
705.14	7927	
705.33	5636.7	
705.51	6491.4	
705.69	7264.8	
705.87	8200.1	
706.06	6752.8	
706.24	5532.9	
706.42	7641.7	
706.61	7908.6	
706.79	6837.5	
706.97	5592.3	
707.16	7010.9	
707.34	7602.1	
707.52	6762.4	
707.7	5812.8	
707.89	7178.1	
708.07	6869.6	
708.25	6789	
708.44	6840.2	
708.62	7104.4	
708.8	8355	
708.98	7062.8	
709.17	5874.3	
709.35	7618.4	
709.53	7617.8	
709.72	5615.5	
709.9	5744.6	
710.08	7780.9	
710.26	7896.3	
710.45	7342	
710.63	5930.2	
710.81	7430	
710.99	7555.6	
711.18	6707.1	
711.36	6127.5	
711.54	7331.7	
711.72	8056	
711.91	6165.8	
712.09	5522	
712.27	7490.1	
712.45	8134.5	
712.64	6434	
712.82	5339.7	
713	6890	
713.18	7000	
713.37	5530.9	
713.55	6756.2	
713.73	7922.9	
713.91	6413.6	
714.1	5877	
714.28	5193	
714.46	7528.3	
714.64	6757.6	
714.83	4696.7	
715.01	5668.8	
715.19	6799.3	
715.37	6277.7	
715.55	5323.4	
715.74	5657.2	
715.92	7894.9	
716.1	5711.8	
716.28	6817	
716.47	5808	
716.65	6380.8	
716.83	6622.4	
717.01	5689.3	
717.19	5702.9	
717.38	8843.8	
717.56	6305.7	
717.74	5943.2	
717.92	5104.9	
718.1	7625.3	
718.29	6747.4	
718.47	4760.8	
718.65	5456.5	
718.83	7520.1	
719.01	7435.5	
719.2	4552.6	
719.38	5734.3	
719.56	7055.3	
719.74	8699.8	
719.92	5321.3	
720.11	6342.6	
720.29	7072.3	
720.47	6118.6	
720.65	4777.2	
720.83	5711.1	
721.02	6547.4	
721.2	6309.1	
721.38	5729.5	
721.56	4932.9	
721.74	5830.6	
721.92	6072.2	
722.11	6343.9	
722.29	6006.7	
722.47	7302.4	
722.65	6427.9	
722.83	5010.7	
723.01	5966.4	
723.2	6513.2	
723.38	6825.2	
723.56	4418.2	
723.74	5720.7	
723.92	6026.5	
724.1	7283.9	
724.29	4913.8	
724.47	6264.7	
724.65	6114.6	
724.83	6064.7	
725.01	4784.7	
725.19	5805.3	
725.37	6197.8	
725.56	6230.6	
725.74	4665.3	
725.92	5011.4	
726.1	6083.8	
726.28	6389	
726.46	5425.8	
726.64	5031.9	
726.83	6335.7	
727.01	6681.2	
727.19	4734.9	
727.37	5635.3	
727.55	6466.8	
727.73	6982.2	
727.91	4658.4	
728.09	4510.3	
728.28	7098.9	
728.46	7720.8	
728.64	5752.1	
728.82	5672.9	
729	8282.7	
729.18	7472.4	
729.36	4872.1	
729.54	7364.5	
729.72	8559.8	
729.91	6673	
730.09	6878.4	
730.27	5636	
730.45	6612.9	
730.63	7302.4	
730.81	6300.2	
730.99	5311.7	
731.17	7851.9	
731.35	6332.3	
731.53	5784.1	
731.71	5425.1	
731.9	7557.7	
732.08	7764.5	
732.26	5622.4	
732.44	5315.8	
732.62	7780.2	
732.8	7283.3	
732.98	6122.1	
733.16	5081.7	
733.34	7225.2	
733.52	6026.5	
733.7	5653.8	
733.88	5961.6	
734.07	7125.6	
734.25	6866.8	
734.43	5044.1	
734.61	6797.9	
734.79	8515.5	
734.97	6705	
735.15	5223	
735.33	5599.1	
735.51	7083.2	
735.69	6718.7	
735.87	6823.1	
736.05	5866.1	
736.23	6941.9	
736.41	6745.3	
736.59	5683.1	
736.77	5787.6	
736.95	7511.9	
737.13	6793.8	
737.32	5253.7	
737.5	5588.9	
737.68	7999.4	
737.86	6717.3	
738.04	5072.1	
738.22	7063.4	
738.4	6494.1	
738.58	6826.6	
738.76	5810.8	
738.94	4679.6	
739.12	6688.7	
739.3	6569.2	
739.48	6411.5	
739.66	6270.9	
739.84	7039.6	
740.02	7010.9	
740.2	4786.1	
740.38	5243.5	
740.56	7362.4	
740.74	6143.9	
740.92	5914.5	
741.1	5879.7	
741.28	6754.2	
741.46	6666.1	
741.64	5401.2	
741.82	6004	
742	6800.6	
742.18	6755.6	
742.36	5659.2	
742.54	5232.6	
742.72	7350.2	
742.9	6068.8	
743.08	6126.8	
743.26	4748.6	
743.44	7717.4	
743.62	7530.4	
743.8	6259.3	
743.98	5242.1	
744.16	7202.7	
744.34	6809.5	
744.52	6181.5	
744.7	6040.8	
744.88	7342.7	
745.06	6839.5	
745.24	6162.3	
745.42	6262	
745.6	7391.8	
745.78	7165.8	
745.96	4928.1	
746.14	5218.2	
746.32	8230.8	
746.5	7409.6	
746.68	5907	
746.86	5307.7	
747.03	7849.9	
747.21	6079.1	
747.39	5874.9	
747.57	5316.5	
747.75	7027.3	
747.93	7505.8	
748.11	5352.7	
748.29	5187.5	
748.47	8695	
748.65	6630	
748.83	6152.1	
749.01	5754.8	
749.19	7339.2	
749.37	6282.5	
749.55	5648.3	
749.73	5706.3	
749.91	6916.7	
750.09	6624.5	
750.26	5752.7	
750.44	5161.6	
750.62	6985.6	
750.8	6866.8	
750.98	5027.8	
751.16	5416.9	
751.34	6956.9	
751.52	6261.3	
751.7	6244.9	
751.88	4995	
752.06	7456.7	
752.24	7313.3	
752.42	4969.1	
752.59	5358.9	
752.77	6862.7	
752.95	8251.9	
753.13	6145.3	
753.31	5456.5	
753.49	6485.9	
753.67	7068.9	
753.85	5868.8	
754.03	5348.6	
754.21	7285.3	
754.38	7679.2	
754.56	5504.9	
754.74	4456.4	
754.92	6517.3	
755.1	7231.4	
755.28	4502.8	
755.46	4515.1	
755.64	7897	
755.82	7925	
755.99	4608.6	
756.17	4697.4	
756.35	5229.1	
756.53	6840.9	
756.71	3407.1	
756.89	4512.4	
757.07	6441.5	
757.25	5459.2	
757.42	5143.8	
757.6	6144.6	
757.78	6681.2	
757.96	5633.3	
758.14	4915.1	
758.32	4421.6	
758.5	5044.8	
758.67	5992.4	
758.85	4648.9	
759.03	4834.6	
759.21	6162.3	
759.39	5547.9	
759.57	4203.1	
759.75	5502.2	
759.92	6852.5	
760.1	6083.1	
760.28	5868.1	
760.46	6123.4	
760.64	5879.7	
760.82	5627.8	
760.99	5752.7	
761.17	4844.8	
761.35	6779.5	
761.53	5698.1	
761.71	4967.7	
761.89	5813.5	
762.06	6695.5	
762.24	6067.4	
762.42	5120.6	
762.6	4915.8	
762.78	6190.3	
762.96	7030	
763.13	5541.1	
763.31	5224.4	
763.49	7124.9	
763.67	6180.1	
763.85	6146	
764.02	6683.9	
764.2	7363.8	
764.38	6468.2	
764.56	5026.4	
764.74	6001.2	
764.91	7465.5	
765.09	6303	
765.27	4820.9	
765.45	4504.8	
765.63	7512.6	
765.8	7411.6	
765.98	4235.2	
766.16	4610	
766.34	5824.4	
766.52	5634	
766.69	5646.9	
766.87	4432.5	
767.05	6294.1	
767.23	7116.7	
767.41	4795	
767.58	5012.7	
767.76	6877.1	
767.94	6953.5	
768.12	4855.1	
768.29	5661.3	
768.47	6344.6	
768.65	7094.2	
768.83	4483	
769	5699.5	
769.18	5821.7	
769.36	6627.2	
769.54	5636.7	
769.72	4476.9	
769.89	6922.1	
770.07	7060	
770.25	4851	
770.43	6169.8	
770.6	7729.7	
770.78	8244.4	
770.96	5061.9	
771.14	5650.3	
771.31	6783.6	
771.49	6034	
771.67	4122.6	
771.85	4335.5	
772.02	5267.4	
772.2	6040.1	
772.38	5094.7	
772.55	4591.5	
772.73	6349.4	
772.91	6027.2	
773.09	4993.6	
773.26	5098.1	
773.44	6256.5	
773.62	5967.8	
773.8	4491.9	
773.97	4202.4	
774.15	6380.1	
774.33	5928.9	
774.5	4336.2	
774.68	4743.8	
774.86	6509.8	
775.04	5900.9	
775.21	4333.5	
775.39	4413.4	
775.57	6184.9	
775.74	6673.6	
775.92	4208.6	
776.1	4111	
776.27	6195.1	
776.45	7535.8	
776.63	4362.9	
776.81	3899.3	
776.98	5778.7	
777.16	6973.3	
777.34	4529.4	
777.51	4491.9	
777.69	5807.4	
777.87	5522	
778.04	4580.6	
778.22	5264	
778.4	5607.3	
778.57	6258.6	
778.75	3739.6	
778.93	4111.6	
779.1	5302.2	
779.28	5137	
779.46	3784.6	
779.64	4294.6	
779.81	6437.4	
779.99	7283.9	
780.17	5145.2	
780.34	5326.1	
780.52	5820.3	
780.69	6020.3	
780.87	4687.8	
781.05	4151.9	
781.22	5872.9	
781.4	5990.3	
781.58	4293.9	
781.75	3362.1	
781.93	5932.3	
782.11	5304.2	
782.28	5212.1	
782.46	4281.6	
782.64	5115.8	
782.81	6159.6	
782.99	4356	
783.17	4362.2	
783.34	5963	
783.52	5140.4	
783.69	4647.5	
783.87	5434.6	
784.05	5193.6	
784.22	5274.2	
784.4	5391.6	
784.58	4632.5	
784.75	6244.3	
784.93	5261.2	
785.1	4332.8	
785.28	4982.7	
785.46	5935.7	
785.63	5218.9	
785.81	4260.5	
785.99	4037.9	
786.16	5391.6	
786.34	5864.7	
786.51	4160.8	
786.69	4589.5	
786.87	5006.6	
787.04	5547.9	
787.22	3926	
787.39	5013.4	
787.57	5162.9	
787.75	6402.6	
787.92	5172.5	
788.1	5068.7	
788.27	5268.7	
788.45	4986.1	
788.63	4824.3	
788.8	3450.8	
788.98	5730.2	
789.15	4900.1	
789.33	3635.8	
789.5	4291.9	
789.68	6252.4	
789.86	6313.9	
790.03	4752	
790.21	4166.3	
790.38	6169.2	
790.56	5357.5	
790.73	3956	
790.91	4008.6	
791.09	5213.4	
791.26	6001.2	
791.44	4213.4	
791.61	3682.9	
791.79	5181.4	
791.96	5289.9	
792.14	3756.7	
792.32	3258.3	
792.49	5242.8	
792.67	5337	
792.84	3846.1	
793.02	3569.6	
793.19	5631.9	
793.37	6529.6	
793.54	3321.8	
793.72	3676.8	
793.89	6586.3	
794.07	5220.3	
794.25	4342.4	
794.42	3442.6	
794.6	6326.2	
794.77	5982.1	
794.95	4653	
795.12	4011.3	
795.3	5182.7	
795.47	5872.9	
795.65	4491.9	
795.82	4315.1	
796	5013.4	
796.17	7049.8	
796.35	4115.7	
796.52	4934.9	
796.7	5741.8	
796.87	5922.7	
797.05	5143.8	
797.22	4989.5	
797.4	5808	
797.57	6903	
797.75	4188.8	
797.92	4002.4	
798.1	6141.2	
798.27	5165.7	
798.45	3401	
798.62	3657.7	
798.8	5496.7	
798.97	5996.5	
799.15	4528.7	
799.32	4244.8	
799.5	4711.7	
799.67	5567.1	
799.85	4626.4	
800.02	3352.5	
800.2	5122	
800.37	5444.9	
800.55	4824.3	
800.72	4037.2	
800.9	6026.5	
801.07	6508.4	
801.25	5448.3	
801.42	4431.8	
801.6	6075.6	
801.77	5705	
801.95	4063.2	
802.12	3844.7	
802.29	5607.3	
802.47	5673.6	
802.64	4402.5	
802.82	3235.8	
802.99	5109	
803.17	6204	
803.34	4313.7	
803.52	3807.9	
803.69	6903	
803.87	4911	
804.04	4223.6	
804.21	4270.7	
804.39	6250.4	
804.56	5385.5	
804.74	3594.2	
804.91	4450.9	
805.09	5216.9	
805.26	5282.4	
805.44	3661.1	
805.61	4012	
805.78	5858.6	
805.96	5958.2	
806.13	4445.5	
806.31	4732.2	
806.48	4732.9	
806.66	5252.4	
806.83	4373.1	
807	4287.1	
807.18	5135.6	
807.35	5610.8	
807.53	4240	
807.7	3448.8	
807.87	6463.4	
808.05	5201.2	
808.22	4710.3	
808.4	3426.9	
808.57	5158.2	
808.74	4841.4	
808.92	3943	
809.09	5016.2	
809.27	5047.6	
809.44	5799.8	
809.61	3421.5	
809.79	3827.7	
809.96	6360.3	
810.14	6031.3	
810.31	3340.2	
810.48	4102.8	
810.66	5315.8	
810.83	6165.1	
811.01	3923.9	
811.18	4405.2	
811.35	5983.5	
811.53	4585.4	
811.7	4780.6	
811.87	4410.6	
812.05	5211.4	
812.22	5095.3	
812.39	3741.6	
812.57	3645.4	
812.74	5195	
812.92	7023.2	
813.09	4146.5	
813.26	4506.9	
813.44	6784.2	
813.61	5145.2	
813.78	3366.9	
813.96	4593.6	
814.13	5209.3	
814.3	4822.3	
814.48	5010.7	
814.65	4095.9	
814.82	6500.9	
815	4956.1	
815.17	4206.5	
815.34	5188.9	
815.52	5114.5	
815.69	5119.2	
815.87	4173.1	
816.04	3610.6	
816.21	5201.2	
816.38	4559.5	
816.56	4061.8	
816.73	3759.4	
816.9	6614.9	
817.08	6051.7	
817.25	3842.7	
817.42	4891.9	
817.6	4735.6	
817.77	5220.3	
817.94	4311	
818.12	3784.6	
818.29	4903.5	
818.46	7858.7	
818.64	3941.7	
818.81	3719.8	
818.98	4848.2	
819.16	7185	
819.33	4513.7	
819.5	4292.5	
819.67	5621.7	
819.85	6256.5	
820.02	4151.2	
820.19	4440.7	
820.37	5528.2	
820.54	4993.6	
820.71	4281.6	
820.88	5365.7	
821.06	5440.1	
821.23	5024.3	
821.4	4339	
821.58	4330.8	
821.75	5960.3	
821.92	5350.7	
822.09	3424.9	
822.27	3594.9	
822.44	5242.1	
822.61	5104.9	
822.79	3435.1	
822.96	6692.8	
823.13	5752.7	
823.3	4949.9	
823.48	4001.7	
823.65	3576.4	
823.82	5870.8	
823.99	4718.5	
824.17	5153.4	
824.34	3668.6	
824.51	6896.9	
824.68	5242.8	
824.86	3778.5	
825.03	4317.1	
825.2	5186.1	
825.37	6331.6	
825.55	3776.5	
825.72	4268.6	
825.89	6905.1	
826.06	6447.7	
826.24	4169.7	
826.41	4190.8	
826.58	6432	
826.75	5558.2	
826.92	3212.6	
827.1	3645.4	
827.27	8806.3	
827.44	6956.9	
827.61	3928	
827.79	4812	
827.96	4930.8	
828.13	5304.9	
828.3	4089.8	
828.47	3459	
828.65	5461.2	
828.82	5367.7	
828.99	5371.1	
829.16	4606.6	
829.34	5775.3	
829.51	5647.6	
829.68	4291.9	
829.85	4467.3	
830.02	6147.3	
830.2	5846.3	
830.37	3262.4	
830.54	5139	
830.71	6670.9	
830.88	5195.7	
831.05	3360.7	
831.23	3890.5	
831.4	6399.2	
831.57	7211.6	
831.74	3923.2	
831.91	3484.3	
832.09	5387.5	
832.26	5813.5	
832.43	4057.7	
832.6	4639.3	
832.77	5513.1	
832.94	6281.8	
833.12	3249.4	
833.29	4020.2	
833.46	5614.2	
833.63	7543.4	
833.8	4513.7	
833.97	4118.5	
834.15	5821	
834.32	5610.8	
834.49	4256.4	
834.66	4421.6	
834.83	6107	
835	4947.9	
835.17	3880.2	
835.35	3961.5	
835.52	5664	
835.69	5644.9	
835.86	4202.4	
836.03	3433.1	
836.2	5797.8	
836.37	5375.2	
836.55	4060.4	
836.72	3820.8	
836.89	5352	
837.06	5973.2	
837.23	4095.3	
837.4	4528.1	
837.57	6756.9	
837.75	7397.9	
837.92	3737.5	
838.09	3976.5	
838.26	5324	
838.43	6214.2	
838.6	4311	
838.77	3790.8	
838.94	7090.1	
839.11	6767.9	
839.29	4125.3	
839.46	3207.1	
839.63	5763.7	
839.8	5552	
839.97	3996.3	
840.14	3947.1	
840.31	5587.5	
840.48	5778.7	
840.65	3244	
840.82	3910.9	
841	5851	
841.17	5797.1	
841.34	3648.8	
841.51	3713.7	
841.68	5715.2	
841.85	5456.5	
842.02	3791.5	
842.19	3142.9	
842.36	5573.9	
842.53	5564.3	
842.7	3422.2	
842.87	4492.6	
843.05	7383.6	
843.22	5511.1	
843.39	3430.3	
843.56	3733.4	
843.73	5228.5	
843.9	5895.4	
844.07	6023.8	
844.24	4934.2	
844.41	8669.7	
844.58	5023	
844.75	3506.8	
844.92	3864.5	
845.09	5838.1	
845.26	5779.4	
845.43	3596.2	
845.6	3833.1	
845.77	5782.8	
845.94	5488.6	
846.12	4003.8	
846.29	4300.1	
846.46	6000.5	
846.63	5890.6	
846.8	3636.5	
846.97	4354	
847.14	6376	
847.31	5771.9	
847.48	4129.4	
847.65	4492.6	
847.82	6090.7	
847.99	6098.9	
848.16	4904.2	
848.33	4481.6	
848.5	5311.7	
848.67	6393.1	
848.84	3618.1	
849.01	3801.7	
849.18	5221	
849.35	4818.2	
849.52	4524	
849.69	3573	
849.86	6026.5	
850.03	6311.8	
850.2	3631.7	
850.37	4476.2	
850.54	6204	
850.71	5505.6	
850.88	4311.7	
851.05	3588.7	
851.22	5728.9	
851.39	6399.9	
851.56	3437.9	
851.73	4143	
851.9	5107.6	
852.07	6007.4	
852.24	4046.1	
852.41	3617.4	
852.58	5647.6	
852.75	5119.9	
852.92	4065.9	
853.09	3437.2	
853.26	5343.8	
853.43	6332.3	
853.6	3635.8	
853.77	3050.1	
853.94	6371.9	
854.11	5782.8	
854.28	5397.1	
854.44	3896.6	
854.61	6890	
854.78	6174.6	
854.95	3589.4	
855.12	4549.2	
855.29	4659.8	
855.46	6587	
855.63	3618.8	
855.8	5039.4	
855.97	5399.1	
856.14	6202.6	
856.31	5189.6	
856.48	3927.3	
856.65	5296.7	
856.82	5057.1	
856.99	3421.5	
857.16	3904.8	
857.33	7122.8	
857.49	5440.8	
857.66	3881.6	
857.83	4248.2	
858	5434.6	
858.17	5642.8	
858.34	3398.3	
858.51	3637.2	
858.68	6597.9	
858.85	6620.4	
859.02	4185.4	
859.19	4519.9	
859.36	5059.2	
859.52	5096	
859.69	3584.6	
859.86	4280.9	
860.03	5130.2	
860.2	6436.1	
860.37	3277.4	
860.54	3661.8	
860.71	6068.1	
860.88	6490.7	
861.05	4111.6	
861.21	4576.5	
861.38	6584.2	
861.55	4956.1	
861.72	3261	
861.89	4060.4	
862.06	6113.2	
862.23	6559.6	
862.4	3450.8	
862.56	3755.3	
862.73	5924.8	
862.9	5517.2	
863.07	4304.8	
863.24	3253.5	
863.41	4954.7	
863.58	5116.5	
863.75	3719.1	
863.91	4154.6	
864.08	6502.3	
864.25	5926.8	
864.42	4564.2	
864.59	5098.1	
864.76	6800.6	
864.93	5109.7	
865.09	3551.9	
865.26	3888.4	
865.43	6311.2	
865.6	6733.7	
865.77	3119.1	
865.94	3528.7	
866.1	6392.4	
866.27	6116.6	
866.44	5465.3	
866.61	3414	
866.78	5491.3	
866.95	5945.3	
867.11	3469.3	
867.28	3193.5	
867.45	6167.1	
867.62	5144.5	
867.79	4180.6	
867.96	3504.1	
868.12	5113.8	
868.29	6055.2	
868.46	3644.7	
868.63	4898.7	
868.8	6309.8	
868.97	6021.7	
869.13	3818.1	
869.3	3731.4	
869.47	5925.5	
869.64	6172.6	
869.81	3661.1	
869.97	3625.6	
870.14	5809.4	
870.31	6584.9	
870.48	3543	
870.65	4623.6	
870.81	5369.1	
870.98	5329.5	
871.15	4058.4	
871.32	3738.2	
871.48	5855.8	
871.65	6512.5	
871.82	3611.3	
871.99	3996.3	
872.16	7036.8	
872.32	6410.8	
872.49	3607.2	
872.66	3632.4	
872.83	6047.7	
872.99	5252.4	
873.16	4154.6	
873.33	3556	
873.5	5651.7	
873.67	5656.5	
873.83	3835.2	
874	4870.8	
874.17	5827.8	
874.34	7003.4	
874.5	4721.3	
874.67	4508.9	
874.84	6482.5	
875.01	5128.8	
875.17	5117.9	
875.34	3556.6	
875.51	5771.9	
875.68	6948.1	
875.84	4404.5	
876.01	5354.8	
876.18	5976	
876.34	5940.5	
876.51	3625.6	
876.68	3465.2	
876.85	5523.4	
877.01	6341.9	
877.18	5186.8	
877.35	3553.9	
877.52	5527.5	
877.68	4982	
877.85	3511.6	
878.02	3591.5	
878.18	5558.2	
878.35	5248.9	
878.52	2887.6	
878.69	4062.5	
878.85	6077	
879.02	5991	
879.19	5142.4	
879.35	3931.4	
879.52	5968.5	
879.69	6243.6	
879.86	3065.1	
880.02	4035.2	
880.19	5547.3	
880.36	6905.1	
880.52	4193.6	
880.69	4345.1	
880.86	6130.9	
881.02	6238.1	
881.19	3970.3	
881.36	3939.6	
881.52	5996.5	
881.69	5230.5	
881.86	3867.2	
882.02	3805.8	
882.19	6360.3	
882.36	7480.5	
882.52	3667.9	
882.69	5155.4	
882.86	5780.1	
883.02	5668.1	
883.19	4329.4	
883.36	4123.9	
883.52	6127.5	
883.69	6986.3	
883.86	3654.3	
884.02	3246.7	
884.19	6092	
884.36	5588.2	
884.52	4104.1	
884.69	3837.9	
884.86	5300.1	
885.02	6741.2	
885.19	4087.7	
885.36	4166.3	
885.52	5612.8	
885.69	5754.8	
885.86	5281	
886.02	4648.9	
886.19	6045.6	
886.35	5541.8	
886.52	3966.9	
886.69	5022.3	
886.85	5157.5	
887.02	6431.3	
887.19	6431.3	
887.35	6431.3	
887.52	6431.3	
887.68	6431.3	
887.85	6431.3	
888.02	6431.3	
888.18	6431.3	
888.35	6431.3	
888.51	6431.3	
888.68	6431.3	
888.85	6431.3	
889.01	6431.3	
889.18	6431.3	
889.35	6431.3	
889.51	6431.3	
889.68	6431.3	
889.84	6431.3	
890.01	6431.3	
890.17	6431.3	
890.34	6431.3	
890.51	6431.3	
890.67	6431.3	
890.84	6431.3	
891	6431.3	
891.17	6431.3	
891.34	6431.3	
891.5	6431.3	
891.67	6431.3	
891.83	6431.3	
892	6431.3	
892.16	6431.3	
892.33	6431.3	
892.5	6431.3	
892.66	6431.3	
892.83	6431.3	
892.99	6431.3	
893.16	6431.3	
893.32	6431.3	
893.49	6431.3	
893.65	6431.3	
893.82	6431.3	
893.99	6431.3	
894.15	6431.3	
894.32	6431.3	
894.48	6431.3	
894.65	6431.3	
894.81	6431.3	
894.98	6431.3	
895.14	6431.3	
895.31	6431.3	
895.47	6431.3	
895.64	6431.3	
895.81	6431.3	
895.97	6431.3	
896.14	6431.3	
896.3	6431.3	
896.47	6431.3	
896.63	6431.3	
896.8	6431.3	
896.96	6431.3	
897.13	6431.3	
897.29	6431.3	
897.46	6431.3	
897.62	6431.3	
897.79	6431.3	
897.95	6431.3	
898.12	6431.3	
898.28	6431.3	
898.45	6431.3	
898.61	6431.3	
898.78	6431.3	
898.94	6431.3	
899.11	6431.3	
899.27	6431.3	
899.44	6431.3	
899.6	6431.3	
899.77	6431.3	
899.93	6431.3	
900.1	6431.3	
900.26	6431.3	
900.43	6431.3	
900.59	6431.3	
900.76	6431.3	
900.92	6431.3	
901.09	6431.3	
901.25	6431.3	
901.42	6431.3	
901.58	6431.3	
901.75	6431.3	
901.91	6431.3	
902.07	6431.3	
902.24	6431.3	
902.4	6431.3	
902.57	6431.3	
902.73	6431.3	
902.9	6431.3	
903.06	6431.3	
903.23	6431.3	
903.39	6431.3	
903.56	6431.3	
903.72	6431.3	
903.88	6431.3	
904.05	6431.3	
904.21	6431.3	
904.38	6431.3	
904.54	6431.3	
904.71	6431.3	
904.87	6431.3	
905.03	6431.3	
905.2	6431.3	
905.36	6431.3	
905.53	6431.3	
905.69	6431.3	
905.86	6431.3	
906.02	6431.3	
906.18	6431.3	
906.35	6431.3	
906.51	6431.3	
906.68	6431.3	
906.84	6431.3	
907.01	6431.3	
907.17	6431.3	
907.33	6431.3	
907.5	6431.3	
907.66	6431.3	
907.83	6431.3	
907.99	6431.3	
908.15	6431.3	
908.32	6431.3	
908.48	6431.3	
908.65	6431.3	
908.81	6431.3	
908.97	6431.3	
909.14	6431.3	
909.3	6431.3	
909.47	6431.3	
909.63	6431.3	
909.79	6431.3	
909.96	6431.3	
910.12	6431.3	
910.28	6431.3	
910.45	6431.3	
910.61	6431.3	
910.78	6431.3	
910.94	6431.3	
911.1	6431.3	
911.27	6431.3	
911.43	6431.3	
911.59	6431.3	
911.76	6431.3	
911.92	6431.3	
912.08	6431.3	
912.25	6431.3	
912.41	6431.3	
912.57	6431.3	
912.74	6431.3	
912.9	6431.3	
913.07	6431.3	
913.23	6431.3	
913.39	6431.3	
913.56	6431.3	
913.72	6431.3	
913.88	6431.3	
914.05	6431.3	
914.21	6431.3	
914.37	6431.3	
914.54	6431.3	
914.7	6431.3	
914.86	6431.3	
915.03	6431.3	
915.19	6431.3	
