Wavelength	Intensities	
nm	a.u.	
179.22	1865	
179.44	1863.7	
179.65	1866.4	
179.86	1860.9	
180.08	1884.1	
180.29	4739.7	
180.51	3403	
180.72	5512.4	
180.94	6406.7	
181.15	3164.8	
181.37	3096.5	
181.58	5428.5	
181.79	5686.5	
182.01	3274.7	
182.22	3537.5	
182.44	5687.9	
182.65	4736.3	
182.87	4391.5	
183.08	3891.8	
183.29	5940.5	
183.51	4891.2	
183.72	3502	
183.94	5157.5	
184.15	5293.3	
184.37	5253.7	
184.58	3159.3	
184.79	4252.9	
185.01	4923.3	
185.22	5638.1	
185.44	4521.2	
185.65	3755.3	
185.86	5233.2	
186.08	4788.8	
186.29	3036.5	
186.51	3247.4	
186.72	4957.4	
186.94	5812.8	
187.15	3723.2	
187.36	3860.4	
187.58	7511.3	
187.79	5338.4	
188.01	4078.9	
188.22	6337.8	
188.43	6461.3	
188.65	5619.6	
188.86	3233.7	
189.08	3898	
189.29	5048.9	
189.5	5093.3	
189.72	3609.9	
189.93	3682.9	
190.15	5866.1	
190.36	6940.6	
190.57	4003.1	
190.79	3819.5	
191	5862	
191.22	5825.8	
191.43	3915	
191.64	3257.6	
191.86	6113.2	
192.07	5847.6	
192.29	3404.4	
192.5	3601.7	
192.71	5828.5	
192.93	5025.7	
193.14	3582.6	
193.35	3674.1	
193.57	5096	
193.78	5783.5	
194	2925.9	
194.21	3545	
194.42	4810.7	
194.64	5268.7	
194.85	3874.1	
195.07	4584	
195.28	5315.8	
195.49	4609.3	
195.71	4765.6	
195.92	3326.6	
196.13	5401.9	
196.35	5593.7	
196.56	5135.6	
196.78	3874.8	
196.99	6941.9	
197.2	6435.4	
197.42	4457.1	
197.63	3912.3	
197.84	4779.3	
198.06	5448.3	
198.27	3611.9	
198.48	4848.2	
198.7	5040.1	
198.91	5185.5	
199.13	3870.7	
199.34	3910.9	
199.55	5728.2	
199.77	4560.1	
199.98	3445.4	
200.19	3927.3	
200.41	5158.8	
200.62	4890.5	
200.83	4094.6	
201.05	4405.9	
201.26	5232.6	
201.47	4921.3	
201.69	3476.1	
201.9	3319.8	
202.11	5277.6	
202.33	6240.2	
202.54	3723.2	
202.76	4085	
202.97	5403.2	
203.18	5341.1	
203.4	4092.5	
203.61	3952.6	
203.82	5294.7	
204.04	4947.2	
204.25	3969.6	
204.46	3861.1	
204.68	5260.5	
204.89	5556.8	
205.1	3812.6	
205.32	3349.1	
205.53	5709.7	
205.74	5871.5	
205.96	2864.4	
206.17	4003.8	
206.38	5666.7	
206.6	5748	
206.81	4472.8	
207.02	3658.4	
207.24	5550	
207.45	5924.1	
207.66	3723.2	
207.88	3198.2	
208.09	5483.1	
208.3	5244.2	
208.52	3451.5	
208.73	3795.6	
208.94	5285.8	
209.15	5999.2	
209.37	3691.1	
209.58	3885	
209.79	5864	
210.01	5152.7	
210.22	3007.8	
210.43	3147	
210.65	5255.8	
210.86	5696.1	
211.07	3762.1	
211.29	3425.6	
211.5	5586.2	
211.71	5183.4	
211.93	3454.2	
212.14	3371	
212.35	5246.9	
212.56	5434.6	
212.78	3955.3	
212.99	3242.6	
213.2	6305	
213.42	5088.5	
213.63	3530.7	
213.84	3781.2	
214.06	4698	
214.27	4788.8	
214.48	3730	
214.69	4010.6	
214.91	5911.1	
215.12	5971.9	
215.33	4014.7	
215.55	4388.8	
215.76	6470.2	
215.97	5642.8	
216.18	3911.6	
216.4	3761.4	
216.61	4960.9	
216.82	5762.3	
217.04	3486.3	
217.25	3569.6	
217.46	5894.7	
217.67	5675.6	
217.89	3099.9	
218.1	3179.1	
218.31	5331.5	
218.53	5501.5	
218.74	3579.2	
218.95	3521.8	
219.16	5245.5	
219.38	6146.6	
219.59	3491.1	
219.8	4155.3	
220.01	6815	
220.23	5333.6	
220.44	4545.8	
220.65	3382.6	
220.87	5330.2	
221.08	5886.5	
221.29	3209.8	
221.5	4282.3	
221.72	7192.5	
221.93	5015.5	
222.14	3954.6	
222.35	4629.8	
222.57	5304.2	
222.78	5672.2	
222.99	3761.4	
223.2	4083.6	
223.42	5569.8	
223.63	5679	
223.84	2962	
224.05	2831.7	
224.27	6726.9	
224.48	6135.7	
224.69	4565.6	
224.9	3940.3	
225.12	5498.1	
225.33	5217.5	
225.54	3147.7	
225.75	3522.5	
225.97	4860.5	
226.18	5147.9	
226.39	3753.2	
226.6	3506.1	
226.82	5070.8	
227.03	4949.3	
227.24	3934.8	
227.45	3230.3	
227.67	5634.6	
227.88	6171.9	
228.09	4440	
228.3	4442	
228.52	5710.4	
228.73	5237.3	
228.94	3614.7	
229.15	3205.1	
229.36	5207.3	
229.58	5134.3	
229.79	3656.3	
230	4306.9	
230.21	6292.7	
230.43	5431.9	
230.64	3885	
230.85	4108.2	
231.06	5702.9	
231.28	5698.1	
231.49	3294.5	
231.7	3828.3	
231.91	5556.8	
232.12	5296.7	
232.34	3348.4	
232.55	3804.4	
232.76	5924.1	
232.97	5487.2	
233.18	3453.6	
233.4	3924.6	
233.61	5512.4	
233.82	5017.5	
234.03	3667.9	
234.25	3554.6	
234.46	7306.5	
234.67	5348.6	
234.88	3994.2	
235.09	3543.7	
235.31	5609.4	
235.52	5188.9	
235.73	3903.4	
235.94	3257.6	
236.15	5020.9	
236.37	6383.5	
236.58	3472	
236.79	3760.1	
237	5642.2	
237.21	4875.5	
237.43	4055	
237.64	3137.5	
237.85	9433.6	
238.06	4840	
238.27	4083	
238.48	3289.7	
238.7	5629.9	
238.91	5168.4	
239.12	3715.7	
239.33	3799.7	
239.54	4919.9	
239.76	5242.8	
239.97	3707.5	
240.18	3748.5	
240.39	6496.2	
240.6	5562.3	
240.82	3887.7	
241.03	3207.1	
241.24	5241.4	
241.45	6128.9	
241.66	3418.7	
241.87	4070.7	
242.09	5981.4	
242.3	6406.7	
242.51	4110.3	
242.72	3751.9	
242.93	5705.6	
243.14	5258.5	
243.36	4341	
243.57	4691.2	
243.78	6188.3	
243.99	5651	
244.2	3801	
244.41	3402.4	
244.63	4853	
244.84	5642.2	
245.05	4066.6	
245.26	3830.4	
245.47	5504.3	
245.68	5821	
245.9	4952.7	
246.11	4005.1	
246.32	5132.2	
246.53	5556.1	
246.74	6067.4	
246.95	3190.7	
247.16	4836.6	
247.38	5323.4	
247.59	3168.9	
247.8	3838.6	
248.01	4984.8	
248.22	5208	
248.43	3478.1	
248.64	3680.2	
248.86	4698	
249.07	5048.2	
249.28	3305.4	
249.49	3888.4	
249.7	5761.6	
249.91	5942.5	
250.12	3125.9	
250.34	3198.9	
250.55	5433.3	
250.76	5253.7	
250.97	3904.1	
251.18	3958	
251.39	5974.6	
251.6	5457.2	
251.81	3998.3	
252.03	3904.1	
252.24	5058.5	
252.45	5762.3	
252.66	3302.7	
252.87	4137.6	
253.08	5270.1	
253.29	6912.6	
253.5	3333.4	
253.72	4578.6	
253.93	5140.4	
254.14	6212.9	
254.35	3602.4	
254.56	3731.4	
254.77	5498.1	
254.98	4910.3	
255.19	3547.1	
255.41	4573.1	
255.62	5439.4	
255.83	5897.5	
256.04	4091.8	
256.25	3953.9	
256.46	6500.3	
256.67	5013.4	
256.88	3887.7	
257.09	4304.8	
257.31	4945.2	
257.52	4996.4	
257.73	4866.7	
257.94	3573.7	
258.15	5158.8	
258.36	5274.9	
258.57	4504.8	
258.78	2850.1	
258.99	5776	
259.2	5155.4	
259.41	3592.8	
259.63	3706.8	
259.84	6088.6	
260.05	6553.5	
260.26	4685.8	
260.47	3496.6	
260.68	5811.5	
260.89	5206.6	
261.1	4321.2	
261.31	3424.9	
261.52	5810.8	
261.73	6270.9	
261.95	4632.5	
262.16	3988.1	
262.37	5976	
262.58	6065.4	
262.79	4607.2	
263	3656.3	
263.21	5277.6	
263.42	5242.1	
263.63	3706.8	
263.84	3665.9	
264.05	5875.6	
264.26	6255.9	
264.47	4433.2	
264.69	4065.2	
264.9	5961	
265.11	5558.2	
265.32	3467.2	
265.53	3604.4	
265.74	5452.4	
265.95	4714.4	
266.16	3854.3	
266.37	4248.9	
266.58	5401.2	
266.79	5145.9	
267	3585.3	
267.21	3293.1	
267.42	4894	
267.63	5259.2	
267.84	3768.9	
268.06	3246.7	
268.27	5707.7	
268.48	5950	
268.69	3622.2	
268.9	4387.4	
269.11	5934.3	
269.32	4763.6	
269.53	3763.5	
269.74	3545	
269.95	5608.7	
270.16	4722.6	
270.37	3749.8	
270.58	4364.2	
270.79	5133.6	
271	5857.2	
271.21	4020.8	
271.42	3771.7	
271.63	5373.9	
271.84	4953.4	
272.05	2975	
272.26	3349.8	
272.47	5317.2	
272.68	5477	
272.89	3584.6	
273.11	4171.7	
273.32	5113.8	
273.53	6244.3	
273.74	4067.9	
273.95	3990.1	
274.16	5902.2	
274.37	5321.3	
274.58	4057	
274.79	3329.3	
275	5426.4	
275.21	5964.4	
275.42	4880.3	
275.63	4249.5	
275.84	5543.2	
276.05	6903	
276.26	3958	
276.47	3698.6	
276.68	5188.9	
276.89	6214.9	
277.1	4241.3	
277.31	3281.5	
277.52	5499.5	
277.73	5708.4	
277.94	3272.7	
278.15	3648.8	
278.36	5485.8	
278.57	5001.8	
278.78	3633.8	
278.99	4045.4	
279.2	4956.1	
279.41	4878.9	
279.62	4733.5	
279.83	3349.8	
280.04	6408.8	
280.25	4870.1	
280.46	4742.4	
280.67	3768.3	
280.88	4879.6	
281.09	5940.5	
281.3	3955.3	
281.51	5040.1	
281.72	5034.6	
281.93	5820.3	
282.14	3485.6	
282.35	3767.6	
282.56	5784.1	
282.77	5791	
282.98	3656.3	
283.19	4528.7	
283.4	7058	
283.61	5280.3	
283.82	3302.7	
284.03	4612	
284.24	5384.8	
284.45	5913.9	
284.66	4691.2	
284.87	4401.1	
285.08	5888.6	
285.29	5956.9	
285.5	3155.9	
285.71	3666.5	
285.92	5894.1	
286.12	6538.5	
286.33	4608.6	
286.54	3676.8	
286.75	5774.6	
286.96	5206.6	
287.17	3317.7	
287.38	4523.3	
287.59	4935.6	
287.8	4854.4	
288.01	3676.8	
288.22	4274.1	
288.43	5733.6	
288.64	4838	
288.85	4387.4	
289.06	4161.5	
289.27	5714.5	
289.48	6241.5	
289.69	4646.2	
289.9	4226.3	
290.11	5948	
290.32	5046.9	
290.53	4370.4	
290.74	4108.2	
290.94	5730.9	
291.15	5734.3	
291.36	3578.5	
291.57	4221.5	
291.78	5053	
291.99	4767.7	
292.2	3439.9	
292.41	4105.5	
292.62	5822.4	
292.83	5615.5	
293.04	5062.6	
293.25	3439.2	
293.46	5080.3	
293.67	5856.5	
293.88	3580.5	
294.09	3386.7	
294.29	4876.9	
294.5	5399.1	
294.71	3764.2	
294.92	3611.3	
295.13	5073.5	
295.34	6377.4	
295.55	3146.4	
295.76	3255.6	
295.97	5702.9	
296.18	6427.9	
296.39	3371	
296.6	3573	
296.81	5382.1	
297.01	5735.7	
297.22	3687.7	
297.43	3537.5	
297.64	4965.6	
297.85	4982	
298.06	2954.5	
298.27	3264.5	
298.48	5326.8	
298.69	5048.2	
298.9	3830.4	
299.11	3433.1	
299.31	4882.4	
299.52	4891.2	
299.73	4080.9	
299.94	4012.7	
300.15	5270.1	
300.36	4928.8	
300.57	4044.1	
300.78	3987.4	
300.99	5175.2	
301.2	5401.9	
301.4	3496.6	
301.61	3888.4	
301.82	5637.4	
302.03	5734.3	
302.24	4287.1	
302.45	3367.5	
302.66	5556.1	
302.87	5996.5	
303.08	3535.5	
303.29	4774.5	
303.49	5089.9	
303.7	5337	
303.91	3156.6	
304.12	4554	
304.33	4855.7	
304.54	5458.5	
304.75	3572.3	
304.96	3401	
305.16	5625.8	
305.37	6330.3	
305.58	3044	
305.79	3220.1	
306	5613.5	
306.21	4689.8	
306.42	3550.5	
306.63	5388.9	
306.83	5191.6	
307.04	5870.2	
307.25	3887.7	
307.46	3806.5	
307.67	4511.7	
307.88	5749.3	
308.09	3472.7	
308.29	3677.5	
308.5	5359.5	
308.71	5897.5	
308.92	3844	
309.13	3419.4	
309.34	5188.9	
309.55	5246.9	
309.75	4445.5	
309.96	4052.9	
310.17	5719.3	
310.38	5023	
310.59	4240.7	
310.8	3283.6	
311.01	5113.8	
311.21	5190.9	
311.42	3314.3	
311.63	3503.4	
311.84	5085.1	
312.05	5433.3	
312.26	3929.4	
312.46	4304.8	
312.67	5130.2	
312.88	4885.8	
313.09	3425.6	
313.3	3377.8	
313.51	6041.5	
313.71	6432	
313.92	3368.9	
314.13	3542.3	
314.34	5499.5	
314.55	5216.2	
314.76	4405.2	
314.96	3862.5	
315.17	5383.4	
315.38	5775.3	
315.59	3461.7	
315.8	3274	
316.01	6092.7	
316.21	6183.5	
316.42	3336.8	
316.63	3803.8	
316.84	5150.6	
317.05	5950	
317.26	4050.2	
317.46	3650.8	
317.67	5223.7	
317.88	5717.2	
318.09	4334.2	
318.3	3177.1	
318.5	4989.5	
318.71	5657.9	
318.92	5557.5	
319.13	4024.3	
319.34	5827.8	
319.54	5849	
319.75	3205.1	
319.96	3069.9	
320.17	5638.1	
320.38	5837.4	
320.58	3115	
320.79	3726.6	
321	5806	
321.21	5944.6	
321.42	3797.6	
321.62	3121.1	
321.83	4914.4	
322.04	5279.7	
322.25	3630.4	
322.46	3474.7	
322.66	5434.6	
322.87	5550.7	
323.08	4255.7	
323.29	3405.8	
323.5	6329.6	
323.7	4839.4	
323.91	4625.7	
324.12	4169.7	
324.33	5429.2	
324.53	5639.4	
324.74	4041.3	
324.95	4229.7	
325.16	4702.8	
325.37	5125.4	
325.57	3442	
325.78	3506.1	
325.99	5388.2	
326.2	4861.2	
326.4	4808.6	
326.61	3184.6	
326.82	5205.9	
327.03	5371.1	
327.24	4874.2	
327.44	4545.8	
327.65	5598.5	
327.86	4527.4	
328.07	4005.8	
328.27	3278.8	
328.48	6041.5	
328.69	4950.6	
328.9	4949.3	
329.1	3644.7	
329.31	5279	
329.52	6057.9	
329.73	3463.8	
329.93	3875.4	
330.14	5349.3	
330.35	5547.3	
330.56	5654.4	
330.76	4248.2	
330.97	5139	
331.18	5483.1	
331.39	3809.9	
331.59	3109.5	
331.8	5858.6	
332.01	6014.9	
332.22	3542.3	
332.42	4029.7	
332.63	5421	
332.84	5062.6	
333.05	3880.9	
333.25	3508.9	
333.46	5149.3	
333.67	5387.5	
333.88	3581.2	
334.08	3945.8	
334.29	7022.5	
334.5	6025.8	
334.7	3329.3	
334.91	4895.3	
335.12	4868.7	
335.33	5660.6	
335.53	3776.5	
335.74	5605.3	
335.95	5105.6	
336.16	4905.6	
336.36	3786	
336.57	4367.6	
336.78	4853	
336.98	5895.4	
337.19	4654.4	
337.4	3721.8	
337.61	6402.6	
337.81	4847.5	
338.02	3497.2	
338.23	4513.7	
338.43	6061.3	
338.64	4995.7	
338.85	3467.2	
339.05	4497.3	
339.26	6103.6	
339.47	4790.9	
339.68	3444.7	
339.88	5044.1	
340.09	5556.1	
340.3	5810.8	
340.5	4011.3	
340.71	3093.8	
340.92	4851.6	
341.13	6067.4	
341.33	3310.9	
341.54	4017.4	
341.75	5507	
341.95	5218.2	
342.16	3827	
342.37	4190.1	
342.57	4911	
342.78	5269.4	
342.99	4319.8	
343.19	3005.7	
343.4	5717.9	
343.61	5551.4	
343.81	3651.5	
344.02	3366.2	
344.23	5705.6	
344.43	6167.8	
344.64	4273.4	
344.85	4194.2	
345.06	5593.7	
345.26	5841.5	
345.47	3962.1	
345.68	4612	
345.88	4705.5	
346.09	5748.6	
346.3	4063.9	
346.5	3013.9	
346.71	5322.7	
346.92	5054.4	
347.12	3179.8	
347.33	3994.9	
347.54	5825.1	
347.74	6189.6	
347.95	3965.6	
348.16	2917.7	
348.36	5117.9	
348.57	4911.7	
348.78	3905.5	
348.98	4233.8	
349.19	5279	
349.39	4880.3	
349.6	3160.7	
349.81	3502.7	
350.01	5537	
350.22	5012.7	
350.43	3820.1	
350.63	4585.4	
350.84	5360.9	
351.05	5087.2	
351.25	3440.6	
351.46	3186	
351.67	5821.7	
351.87	5023.7	
352.08	3701.4	
352.29	4192.9	
352.49	5651.7	
352.7	5406.6	
352.9	3362.1	
353.11	4199	
353.32	6346.7	
353.52	5107	
353.73	3325.9	
353.94	4235.9	
354.14	5577.3	
354.35	5356.8	
354.55	3398.3	
354.76	3812.6	
354.97	5566.4	
355.17	5357.5	
355.38	3198.9	
355.59	4466.6	
355.79	4927.4	
356	5420.3	
356.2	3696.6	
356.41	3261.7	
356.62	4742.4	
356.82	5178.6	
357.03	4027.7	
357.24	3629.7	
357.44	4999.1	
357.65	5142.4	
357.85	4822.3	
358.06	3792.8	
358.27	4729.4	
358.47	4914.4	
358.68	3176.4	
358.88	3970.3	
359.09	5554.1	
359.3	5874.3	
359.5	4766.3	
359.71	4109.6	
359.91	6298.2	
360.12	5582.8	
360.33	4004.5	
360.53	4429.8	
360.74	4963.6	
360.94	5041.4	
361.15	4189.5	
361.36	3396.2	
361.56	5749.3	
361.77	5174.5	
361.97	4629.1	
362.18	3637.2	
362.38	5685.2	
362.59	4836.6	
362.8	3382.6	
363	3258.3	
363.21	4630.5	
363.41	5279	
363.62	3888.4	
363.83	4861.9	
364.03	5330.2	
364.24	6319.3	
364.44	4899.4	
364.65	4878.9	
364.85	5167.7	
365.06	4790.2	
365.27	3600.3	
365.47	3551.2	
365.68	6139.8	
365.88	5129.5	
366.09	3908.2	
366.29	3586	
366.5	5434.6	
366.71	5746.6	
366.91	4831.2	
367.12	4020.8	
367.32	6339.1	
367.53	5687.2	
367.73	3999	
367.94	4892.6	
368.14	5593	
368.35	6430.6	
368.56	4049.5	
368.76	3358.7	
368.97	5691.3	
369.17	7316	
369.38	3481.5	
369.58	3792.2	
369.79	4788.8	
369.99	6046.3	
370.2	4803.2	
370.4	3927.3	
370.61	5453.7	
370.82	6573.3	
371.02	3786	
371.23	3159.3	
371.43	4708.3	
371.64	5901.6	
371.84	3809.9	
372.05	4940.4	
372.25	7218.4	
372.46	5674.2	
372.66	3762.1	
372.87	3708.2	
373.07	5743.9	
373.28	7262.8	
373.48	4762.2	
373.69	4425.7	
373.9	5236.7	
374.1	5255.1	
374.31	4698.7	
374.51	4244.8	
374.72	5988.3	
374.92	4936.3	
375.13	4861.9	
375.33	4088.4	
375.54	5593	
375.74	5039.4	
375.95	4085.7	
376.15	5261.9	
376.36	5595.1	
376.56	5447.6	
376.77	4198.3	
376.97	4658.4	
377.18	6627.9	
377.38	5662	
377.59	4910.3	
377.79	3659	
378	5436.7	
378.2	5871.5	
378.41	3740.3	
378.61	3657	
378.82	5890.6	
379.02	4986.8	
379.23	3872.7	
379.43	4937	
379.64	5941.2	
379.84	5594.4	
380.05	3670	
380.25	3626.3	
380.46	5733.6	
380.66	5288.5	
380.87	5056.4	
381.07	5329.5	
381.28	6320.7	
381.48	5685.8	
381.69	3702	
381.89	3750.5	
382.1	4786.1	
382.3	5888.6	
382.51	4807.3	
382.71	5709.7	
382.91	5717.9	
383.12	6236.1	
383.32	4037.9	
383.53	4331.5	
383.73	5565	
383.94	5371.1	
384.14	4211.3	
384.35	3401	
384.55	5350	
384.76	5781.4	
384.96	4076.8	
385.17	4387.4	
385.37	5742.5	
385.58	5031.9	
385.78	4404.5	
385.98	3392.1	
386.19	5253	
386.39	5606	
386.6	3842	
386.8	4046.8	
387.01	5666.7	
387.21	5781.4	
387.42	4509.6	
387.62	5079.6	
387.83	5046.9	
388.03	5705.6	
388.23	4107.5	
388.44	4902.2	
388.64	4752	
388.85	4873.5	
389.05	4483	
389.26	5004.6	
389.46	6657.3	
389.67	6083.8	
389.87	4396.3	
390.07	4483	
390.28	5349.3	
390.48	4912.4	
390.69	3715	
390.89	4008.6	
391.1	5121.3	
391.3	6034.7	
391.5	5186.1	
391.71	5750.7	
391.91	5738.4	
392.12	6694.8	
392.32	5187.5	
392.53	4426.3	
392.73	5195.7	
392.93	5356.8	
393.14	4154.6	
393.34	5214.8	
393.55	5782.1	
393.75	5375.2	
393.95	4170.3	
394.16	4132.8	
394.36	5138.4	
394.57	5819.6	
394.77	3674.1	
394.98	4083.6	
395.18	5096.7	
395.38	5161.6	
395.59	4932.9	
395.79	3832.4	
396	5248.9	
396.2	5732.9	
396.4	4648.2	
396.61	4575.2	
396.81	5842.9	
397.02	5182.7	
397.22	4870.8	
397.42	4920.6	
397.63	5852.4	
397.83	5049.6	
398.04	3833.8	
398.24	4287.1	
398.44	5589.6	
398.65	4675.5	
398.85	3692.5	
399.05	3767.6	
399.26	5063.3	
399.46	6676.4	
399.67	4076.1	
399.87	3863.8	
400.07	5366.4	
400.28	5750.7	
400.48	3938.9	
400.69	4906.3	
400.89	6017.6	
401.09	6391	
401.3	3831.7	
401.5	4907.6	
401.7	6547.4	
401.91	6840.2	
402.11	4134.8	
402.32	4358.1	
402.52	5924.8	
402.72	5855.1	
402.93	4556.7	
403.13	3424.9	
403.33	6655.2	
403.54	5354.8	
403.74	4265.2	
403.94	5136.3	
404.15	5526.1	
404.35	6632	
404.56	4091.2	
404.76	5879.7	
404.96	5936.4	
405.17	5762.3	
405.37	5374.6	
405.57	4527.4	
405.78	5971.9	
405.98	5432.6	
406.18	4012.7	
406.39	4908.3	
406.59	5922.7	
406.79	5578.7	
407	3862.5	
407.2	4011.3	
407.4	5999.2	
407.61	6339.8	
407.81	4074.1	
408.01	5915.9	
408.22	4951.3	
408.42	6905.8	
408.62	5094	
408.83	4515.1	
409.03	5522	
409.23	5362.3	
409.44	4636.6	
409.64	4855.1	
409.84	6417	
410.05	6303	
410.25	4646.8	
410.45	4469.4	
410.66	5701.5	
410.86	8191.2	
411.06	4816.8	
411.27	4693.9	
411.47	7964.6	
411.67	5918.6	
411.88	4973.2	
412.08	5134.9	
412.28	6477.7	
412.49	6972.7	
412.69	4586.1	
412.89	4646.2	
413.09	6853.2	
413.3	6591	
413.5	4709	
413.7	4332.1	
413.91	5943.2	
414.11	6772.6	
414.31	4590.2	
414.52	4945.2	
414.72	6445	
414.92	6386.2	
415.12	4611.3	
415.33	5051.7	
415.53	6719.4	
415.73	6916.7	
415.94	5380	
416.14	4890.5	
416.34	5709.7	
416.55	5457.2	
416.75	6085.9	
416.95	5451	
417.15	6711.2	
417.36	7488.7	
417.56	6162.3	
417.76	5265.3	
417.97	7043.6	
418.17	6728.9	
418.37	4877.6	
418.57	4954.7	
418.78	6442.9	
418.98	6182.1	
419.18	5685.8	
419.38	5695.4	
419.59	6280.4	
419.79	5885.9	
419.99	4780.6	
420.2	5167	
420.4	6792.4	
420.6	6923.5	
420.8	4733.5	
421.01	4551.3	
421.21	6520.7	
421.41	6701.6	
421.61	5156.8	
421.82	4848.9	
422.02	6106.4	
422.22	6919.4	
422.42	5558.9	
422.63	5267.4	
422.83	6128.9	
423.03	7290.1	
423.23	5292.6	
423.44	4276.8	
423.64	6219.7	
423.84	5984.8	
424.04	4737.6	
424.25	4398.4	
424.45	7215.7	
424.65	7086.7	
424.85	4179.2	
425.06	4781.3	
425.26	7159	
425.46	5689.9	
425.66	5205.3	
425.87	4972.5	
426.07	6853.2	
426.27	6745.3	
426.47	5077.6	
426.67	4463.2	
426.88	7194.5	
427.08	6698.9	
427.28	5259.9	
427.48	4410	
427.69	5677.7	
427.89	6257.2	
428.09	5258.5	
428.29	4439.3	
428.5	6954.2	
428.7	6443.6	
428.9	4344.4	
429.1	4841.4	
429.3	6331	
429.51	6817	
429.71	4741	
429.91	5440.1	
430.11	6644.3	
430.31	6874.3	
430.52	4920.6	
430.72	5199.8	
430.92	7204.8	
431.12	6653.9	
431.32	4565.6	
431.53	5073.5	
431.73	5635.3	
431.93	7312.6	
432.13	4519.2	
432.33	4428.4	
432.54	6111.1	
432.74	6479.1	
432.94	4351.9	
433.14	5371.8	
433.34	6586.3	
433.55	6127.5	
433.75	5276.9	
433.95	6965.1	
434.15	6428.6	
434.35	6131.6	
434.56	4592.2	
434.76	3997	
434.96	6423.1	
435.16	6554.9	
435.36	4403.8	
435.56	5468.8	
435.77	5974.6	
435.97	6219.7	
436.17	6166.4	
436.37	5441.5	
436.57	5996.5	
436.78	5907	
436.98	7103	
437.18	5967.1	
437.38	6606.7	
437.58	6174.6	
437.78	6131.6	
437.99	4726.7	
438.19	6744	
438.39	7417.7	
438.59	4675.5	
438.79	4241.3	
438.99	7384.3	
439.2	6206	
439.4	4416.8	
439.6	4445.5	
439.8	6568.5	
440	7592.5	
440.2	5392.3	
440.4	5451	
440.61	6890.7	
440.81	7323.5	
441.01	4460.5	
441.21	5429.2	
441.41	7153.6	
441.61	6769.9	
441.81	5668.8	
442.02	6602	
442.22	7647.1	
442.42	6964.5	
442.62	4622.9	
442.82	4678.2	
443.02	7249.8	
443.22	6348.7	
443.43	5055.1	
443.63	4553.3	
443.83	6206.7	
444.03	6217	
444.23	5751.4	
444.43	5381.4	
444.63	6497.5	
444.83	7701	
445.04	4709	
445.24	5913.2	
445.44	6825.9	
445.64	6927.6	
445.84	5403.9	
446.04	5393.7	
446.24	6226.5	
446.44	7205.4	
446.65	4721.9	
446.85	5033.9	
447.05	6427.9	
447.25	7229.3	
447.45	5180	
447.65	4515.1	
447.85	6519.4	
448.05	6207.4	
448.25	5578	
448.46	5289.2	
448.66	6579.4	
448.86	6313.9	
449.06	4440.7	
449.26	5592.3	
449.46	6862.7	
449.66	5936.4	
449.86	5033.9	
450.06	5027.8	
450.26	6217.6	
450.47	6722.8	
450.67	5345.9	
450.87	5647.6	
451.07	6806.8	
451.27	6633.4	
451.47	4620.9	
451.67	5156.1	
451.87	6184.2	
452.07	7444.4	
452.27	4871.4	
452.47	4814.8	
452.67	6461.3	
452.88	7060.7	
453.08	4217.5	
453.28	6235.4	
453.48	7676.5	
453.68	6485.9	
453.88	4750.6	
454.08	4968.4	
454.28	6905.1	
454.48	6498.2	
454.68	5497.4	
454.88	5980.1	
455.08	6964.5	
455.28	6670.2	
455.48	4687.8	
455.68	5219.6	
455.89	7408.9	
456.09	7025.2	
456.29	4878.9	
456.49	4975.2	
456.69	7245.7	
456.89	6614.3	
457.09	5490.6	
457.29	5836	
457.49	6926.9	
457.69	6978.8	
457.89	5256.5	
458.09	4687.1	
458.29	6588.3	
458.49	7320.1	
458.69	5702.2	
458.89	5149.3	
459.09	7500.3	
459.29	7575.4	
459.49	5119.2	
459.69	5991.7	
459.9	7124.2	
460.1	6640.2	
460.3	5100.1	
460.5	4921.3	
460.7	7111.9	
460.9	6801.3	
461.1	4533.5	
461.3	5859.2	
461.5	7658	
461.7	7339.2	
461.9	4946.5	
462.1	5474.2	
462.3	6744.6	
462.5	7316	
462.7	4981.3	
462.9	5134.3	
463.1	8335.2	
463.3	7931.1	
463.5	5202.5	
463.7	6087.9	
463.9	6997.2	
464.1	7292.1	
464.3	5354.1	
464.5	5613.5	
464.7	7576.1	
464.9	7154.2	
465.1	6913.3	
465.3	5976.7	
465.5	7920.9	
465.7	7879.2	
465.9	6214.9	
466.1	5989.6	
466.3	7722.2	
466.5	7508.5	
466.7	6840.2	
466.9	5751.4	
467.1	7431.4	
467.3	8357.8	
467.5	6714.6	
467.7	5644.2	
467.9	8546.2	
468.1	9397.4	
468.3	6405.4	
468.5	6850.5	
468.7	7279.2	
468.9	7322.2	
469.1	5872.2	
469.3	6507.1	
469.5	9209	
469.7	6962.4	
469.9	6368.5	
470.1	5612.8	
470.3	7343.3	
470.5	7465.5	
470.7	6789	
470.9	5731.6	
471.1	7161.1	
471.3	7656.7	
471.5	5523.4	
471.69	7423.9	
471.89	7104.4	
472.09	6606.7	
472.29	6343.2	
472.49	6765.1	
472.69	6817.7	
472.89	7531.7	
473.09	5483.8	
473.29	5610.1	
473.49	7000	
473.69	7143.3	
473.89	6567.2	
474.09	5773.9	
474.29	8316.1	
474.49	8066.9	
474.69	6590.4	
474.89	6036.7	
475.09	7159	
475.29	7132.4	
475.49	5323.4	
475.69	5608	
475.88	8718.2	
476.08	7365.9	
476.28	5247.6	
476.48	5706.3	
476.68	7957.7	
476.88	7746.8	
477.08	5675.6	
477.28	5955.5	
477.48	7331	
477.68	7961.8	
477.88	5514.5	
478.08	5745.9	
478.28	8155	
478.48	7331.7	
478.67	5682.4	
478.87	5261.9	
479.07	7964.6	
479.27	7466.9	
479.47	6015.6	
479.67	6062	
479.87	7881.9	
480.07	8322.9	
480.27	5294	
480.47	6880.5	
480.67	7471.7	
480.87	8118.1	
481.06	5575.3	
481.26	6369.9	
481.46	7449.8	
481.66	7338.6	
481.86	5959.6	
482.06	6983.6	
482.26	7131	
482.46	8147.5	
482.66	5995.1	
482.86	5595.1	
483.05	7545.4	
483.25	6898.9	
483.45	8400.1	
483.65	5999.2	
483.85	7140.6	
484.05	7370.6	
484.25	6380.8	
484.45	6849.8	
484.65	8285.4	
484.84	8277.2	
485.04	5796.4	
485.24	5883.8	
485.44	8502.5	
485.64	6838.9	
485.84	5193	
486.04	6567.2	
486.24	7243.7	
486.44	7589.8	
486.63	5145.9	
486.83	5922.7	
487.03	7103.7	
487.23	7317.4	
487.43	5223	
487.63	7612.3	
487.83	7348.8	
488.02	8299.1	
488.22	6133	
488.42	6800.6	
488.62	8205.5	
488.82	7183.6	
489.02	5828.5	
489.22	5890	
489.41	8028	
489.61	7722.2	
489.81	5577.3	
490.01	5654.4	
490.21	7972.1	
490.41	8680	
490.61	5480.4	
490.8	5642.2	
491	7425.3	
491.2	6778.8	
491.4	6318.7	
491.6	5395	
491.8	7490.8	
491.99	7635.5	
492.19	5296.7	
492.39	5719.3	
492.59	8056.7	
492.79	8161.8	
492.99	6539.2	
493.18	5622.4	
493.38	8157.7	
493.58	8837	
493.78	6307.7	
493.98	5938.4	
494.18	7764.5	
494.37	7197.9	
494.57	6482.5	
494.77	6356.2	
494.97	7996.6	
495.17	8208.9	
495.37	5944.6	
495.56	6305.7	
495.76	8464.9	
495.96	8028.7	
496.16	7128.3	
496.36	6016.9	
496.55	8183	
496.75	7757.7	
496.95	6457.9	
497.15	6329.6	
497.35	8236.9	
497.54	8204.8	
497.74	6141.9	
497.94	7861.5	
498.14	8888.2	
498.34	8722.3	
498.53	5823.1	
498.73	6550.1	
498.93	7527	
499.13	8141.4	
499.33	6436.8	
499.52	6899.6	
499.72	8107.2	
499.92	8423.3	
500.12	6035.4	
500.32	6251.8	
500.51	8440.4	
500.71	8204.8	
500.91	7067.5	
501.11	6647	
501.31	8308.6	
501.5	8718.9	
501.7	7406.1	
501.9	6304.3	
502.1	8124.3	
502.29	8413.7	
502.49	6672.3	
502.69	7186.3	
502.89	8295	
503.09	8205.5	
503.28	5851	
503.48	6019	
503.68	7526.3	
503.88	7624.6	
504.07	6891.4	
504.27	6470.2	
504.47	7931.8	
504.67	8149.6	
504.86	6848.4	
505.06	6525.5	
505.26	7602.7	
505.46	9385.8	
505.65	6351.4	
505.85	6702.3	
506.05	7663.5	
506.25	8150.9	
506.44	5851.7	
506.64	6737.8	
506.84	7606.8	
507.04	8516.8	
507.23	6027.9	
507.43	6625.9	
507.63	9533.3	
507.83	7777.5	
508.02	6616.3	
508.22	6376	
508.42	9706	
508.62	7559.7	
508.81	6804.7	
509.01	7126.2	
509.21	7445	
509.4	7698.3	
509.6	6709.8	
509.8	6117.3	
510	7713.3	
510.19	9130.5	
510.39	6072.9	
510.59	6124.1	
510.79	7468.3	
510.98	8862.9	
511.18	6212.9	
511.38	6300.9	
511.57	8410.3	
511.77	8142.7	
511.97	6967.9	
512.17	5966.4	
512.36	8327.7	
512.56	8338.6	
512.76	6019.7	
512.95	5802.6	
513.15	8543.4	
513.35	7073	
513.55	6864.8	
513.74	6037.4	
513.94	8409.6	
514.14	7772.7	
514.33	6911.2	
514.53	6741.9	
514.73	7740.6	
514.92	7801.4	
515.12	6164.4	
515.32	5957.5	
515.51	8025.3	
515.71	8536.6	
515.91	7877.2	
516.11	6080.4	
516.3	9611.1	
516.5	7539.9	
516.7	6578.8	
516.89	7139.9	
517.09	7752.2	
517.29	7564.5	
517.48	6864.8	
517.68	6335	
517.88	7466.2	
518.07	7952.3	
518.27	6756.2	
518.47	5926.8	
518.66	8566	
518.86	7305.1	
519.06	5720	
519.25	6232.7	
519.45	7595.2	
519.65	9056.1	
519.84	6827.2	
520.04	7371.3	
520.24	9331.9	
520.43	8192.6	
520.63	6421.7	
520.83	6184.9	
521.02	7437.5	
521.22	8122.2	
521.42	6860	
521.61	7306.5	
521.81	7719.5	
522.01	7880.6	
522.2	6720.1	
522.4	6458.6	
522.6	8353.7	
522.79	7182.2	
522.99	6561	
523.18	5837.4	
523.38	8051.9	
523.58	8094.3	
523.77	7779.6	
523.97	5797.1	
524.17	9680.1	
524.36	9012.4	
524.56	7068.2	
524.76	6774	
524.95	8079.9	
525.15	7744.1	
525.34	6557.6	
525.54	6602	
525.74	8355.7	
525.93	7432.8	
526.13	7700.4	
526.33	6477.7	
526.52	8751	
526.72	8136.6	
526.91	7701.7	
527.11	6975.4	
527.31	8766	
527.5	9170.1	
527.7	6862.1	
527.89	5936.4	
528.09	7756.3	
528.29	8192.6	
528.48	7221.8	
528.68	6924.2	
528.87	8567.3	
529.07	8598.1	
529.27	6895.5	
529.46	6285.2	
529.66	8299.1	
529.85	8574.2	
530.05	6176.7	
530.25	6950.8	
530.44	9506	
530.64	8154.3	
530.83	6679.8	
531.03	6913.9	
531.23	8617.2	
531.42	8451.3	
531.62	7531.7	
531.81	6817	
532.01	8698.4	
532.21	9114.1	
532.4	6501.6	
532.6	6875	
532.79	9557.9	
532.99	8688.8	
533.18	6856.6	
533.38	7974.8	
533.58	8257.4	
533.77	9091.6	
533.97	6825.2	
534.16	7714	
534.36	9217.9	
534.55	8387.1	
534.75	7785	
534.95	6901	
535.14	9109.4	
535.34	8292.2	
535.53	6551.5	
535.73	8404.9	
535.92	9605	
536.12	8441.7	
536.31	6763.8	
536.51	7809.6	
536.71	8898.4	
536.9	8378.9	
537.1	6883.2	
537.29	7026.6	
537.49	9155.8	
537.68	8264.2	
537.88	7422.5	
538.07	6595.1	
538.27	8479.3	
538.46	9524.4	
538.66	6459.3	
538.86	6901.7	
539.05	8487.5	
539.25	8920.3	
539.44	7157	
539.64	6812.9	
539.83	8409	
540.03	9343.5	
540.22	6695.5	
540.42	6853.9	
540.61	8637	
540.81	8784.4	
541	7291.5	
541.2	7914	
541.39	8247.2	
541.59	8519.6	
541.78	7541.3	
541.98	6733	
542.18	7865.6	
542.37	7832.1	
542.57	7068.9	
542.76	7499.7	
542.96	7961.1	
543.15	8663.6	
543.35	7049.1	
543.54	6502.3	
543.74	8986.5	
543.93	8515.5	
544.13	7004.1	
544.32	8241	
544.52	8912.8	
544.71	8069	
544.91	6326.2	
545.1	7344	
545.3	8174.1	
545.49	8853.4	
545.69	6193.7	
545.88	6761.7	
546.08	9665	
546.27	9207	
546.47	7324.2	
546.66	6575.3	
546.86	9033.6	
547.05	9630.2	
547.24	6827.2	
547.44	6689.3	
547.63	7927	
547.83	9096.4	
548.02	7089.4	
548.22	7230	
548.41	7801.4	
548.61	9209.7	
548.8	6613.6	
549	6627.9	
549.19	8441.7	
549.39	8881.4	
549.58	6289.3	
549.78	6861.4	
549.97	8729.8	
550.17	8286.8	
550.36	7806.2	
550.55	8678.6	
550.75	8373.5	
550.94	9169.4	
551.14	6496.2	
551.33	6997.9	
551.53	7540.6	
551.72	8666.3	
551.92	6948.1	
552.11	6748.7	
552.31	8682	
552.5	8763.3	
552.69	8290.9	
552.89	6375.3	
553.08	8669.1	
553.28	8380.3	
553.47	6717.3	
553.67	7843	
553.86	9385.8	
554.06	7722.9	
554.25	5986.2	
554.44	6527.6	
554.64	10075	
554.83	9483.5	
555.03	6529.6	
555.22	6935.1	
555.42	8831.5	
555.61	8540.7	
555.8	6744.6	
556	7018.4	
556.19	7748.8	
556.39	8994	
556.58	6771.3	
556.78	6700.3	
556.97	8488.8	
557.16	8154.3	
557.36	7886	
557.55	6384.2	
557.75	7437.5	
557.94	9170.8	
558.13	6469.5	
558.33	6268.8	
558.52	8989.2	
558.72	7869.7	
558.91	6376.7	
559.1	6636.1	
559.3	7669.6	
559.49	7379.5	
559.69	6018.3	
559.88	6987	
560.07	8502.5	
560.27	8791.2	
560.46	7204.8	
560.66	7243.7	
560.85	8191.2	
561.04	7460.1	
561.24	6427.9	
561.43	6570.6	
561.63	7658.7	
561.82	7947.5	
562.01	7799.3	
562.21	6938.5	
562.4	8442.4	
562.59	9354.4	
562.79	6762.4	
562.98	6351.4	
563.18	8350.3	
563.37	9748.3	
563.56	7195.2	
563.76	6259.3	
563.95	7851.2	
564.14	7759.8	
564.34	6696.9	
564.53	6508.4	
564.73	8222.6	
564.92	8632.2	
565.11	6849.1	
565.31	6191.7	
565.5	8813.8	
565.69	7866.2	
565.89	6544.6	
566.08	6779.5	
566.27	8725	
566.47	9134.6	
566.66	7337.2	
566.85	6006.7	
567.05	8380.3	
567.24	7621.2	
567.44	6333	
567.63	7739.3	
567.82	8552.3	
568.02	8396.7	
568.21	6404	
568.4	6779.5	
568.6	8132.5	
568.79	8222.6	
568.98	6311.8	
569.18	6427.2	
569.37	8219.9	
569.56	10174	
569.76	6751.5	
569.95	7672.4	
570.14	8642.4	
570.34	8549.6	
570.53	6277	
570.72	6298.2	
570.91	9043.8	
571.11	8118.1	
571.3	6848.4	
571.49	7678.5	
571.69	8314.1	
571.88	7779.6	
572.07	7254.6	
572.27	7245	
572.46	7770.7	
572.65	8856.1	
572.85	6546	
573.04	6846.4	
573.23	8959.2	
573.43	8266.3	
573.62	6286.6	
573.81	6984.9	
574	8378.2	
574.2	8193.9	
574.39	6637.5	
574.58	6840.9	
574.78	9192	
574.97	8471.1	
575.16	7104.4	
575.36	7389.1	
575.55	8854.1	
575.74	9001.5	
575.93	6285.9	
576.13	7361.1	
576.32	8173.4	
576.51	8703.2	
576.71	6661.4	
576.9	8117.5	
577.09	9118.2	
577.28	8594	
577.48	7192.5	
577.67	6206	
577.86	8154.3	
578.05	8626.7	
578.25	6872.3	
578.44	6967.9	
578.63	8374.8	
578.83	9506.7	
579.02	6250.4	
579.21	7729	
579.4	8596	
579.6	8227.4	
579.79	7090.1	
579.98	9055.4	
580.17	8951.7	
580.37	8957.1	
580.56	6472.3	
580.75	7146.7	
580.94	9338.7	
581.14	9245.2	
581.33	7671.7	
581.52	6632	
581.71	8758.5	
581.91	9391.3	
582.1	6303	
582.29	6896.2	
582.48	8384.4	
582.68	8385.7	
582.87	7356.3	
583.06	6941.2	
583.25	8691.6	
583.45	8093.6	
583.64	7565.9	
583.83	8273.8	
584.02	8197.3	
584.21	8680	
584.41	7531.7	
584.6	6913.3	
584.79	8368.7	
584.98	9186.5	
585.18	6441.5	
585.37	6414.2	
585.56	7954.3	
585.75	8729.1	
585.94	6686.6	
586.14	7261.4	
586.33	9334.6	
586.52	8387.8	
586.71	7062.1	
586.91	6774.7	
587.1	7806.2	
587.29	8805.6	
587.48	6815	
587.67	6626.5	
587.87	8675.9	
588.06	8710	
588.25	7951.6	
588.44	7319.4	
588.63	8347.5	
588.83	8938	
589.02	6769.9	
589.21	6680.5	
589.4	8182.3	
589.59	8064.9	
589.78	5946.6	
589.98	6287.3	
590.17	7765.2	
590.36	8259.5	
590.55	5700.2	
590.74	6629.3	
590.94	9589.3	
591.13	8274.5	
591.32	6386.2	
591.51	5997.8	
591.7	8668.4	
591.89	8159.8	
592.09	5990.3	
592.28	6441.5	
592.47	7417.1	
592.66	9212.4	
592.85	6089.3	
593.05	6232.7	
593.24	8086.7	
593.43	8712.7	
593.62	6308.4	
593.81	6760.3	
594	8039	
594.19	8247.2	
594.39	6142.5	
594.58	6160.3	
594.77	8324.3	
594.96	8945.5	
595.15	6072.2	
595.34	6654.5	
595.54	8332.5	
595.73	7551.5	
595.92	5553.4	
596.11	6608.1	
596.3	8899.1	
596.49	7626	
596.68	6425.8	
596.88	6772.6	
597.07	8547.5	
597.26	7392.5	
597.45	5928.2	
597.64	7027.3	
597.83	7728.4	
598.02	8192.6	
598.22	6001.9	
598.41	6610.2	
598.6	8053.3	
598.79	7616.4	
598.98	5950.7	
599.17	6980.8	
599.36	8049.2	
599.55	9127.8	
599.74	7980.9	
599.94	7838.9	
600.13	8498.4	
600.32	7496.2	
600.51	5729.5	
600.7	5889.3	
600.89	9236.3	
601.08	9291.6	
601.27	5709.1	
601.47	6658.6	
601.66	8442.4	
601.85	9201.5	
602.04	6377.4	
602.23	6557.6	
602.42	7522.2	
602.61	8121.6	
602.8	6255.9	
602.99	6039.5	
603.18	7875.8	
603.37	8148.9	
603.57	6681.2	
603.76	7122.8	
603.95	8903.9	
604.14	8471.8	
604.33	6139.1	
604.52	6425.2	
604.71	8028.7	
604.9	7704.5	
605.09	7269.6	
605.28	6826.6	
605.47	8649.9	
605.66	8310.7	
605.86	6667.5	
606.05	6159.6	
606.24	8577.6	
606.43	7274.4	
606.62	6493.4	
606.81	7219.1	
607	8510	
607.19	7823.2	
607.38	5891.3	
607.57	6110.5	
607.76	7656	
607.95	7157	
608.14	6515.3	
608.33	7155.6	
608.52	7552.9	
608.72	8482.7	
608.91	5790.3	
609.1	5659.9	
609.29	7745.4	
609.48	7256.6	
609.67	6657.3	
609.86	5778.7	
610.05	7410.9	
610.24	7668.3	
610.43	5637.4	
610.62	5287.9	
610.81	8765.3	
611	8559.8	
611.19	5787.6	
611.38	6466.1	
611.57	7996	
611.76	9249.3	
611.95	5571.2	
612.14	5448.3	
612.33	7732.4	
612.52	7300.3	
612.71	6133	
612.9	5296.7	
613.09	6913.3	
613.28	9155.1	
613.47	5917.9	
613.66	6746.7	
613.85	7894.9	
614.04	7385.7	
614.24	5937.7	
614.43	5197.7	
614.62	8030.1	
614.81	8060.8	
615	6476.4	
615.19	6376	
615.38	7352.2	
615.57	7670.3	
615.76	6283.2	
615.95	7304.4	
616.14	7976.8	
616.33	7720.8	
616.52	6617.7	
616.71	6847	
616.9	7976.2	
617.09	7821.9	
617.28	5992.4	
617.47	7201.3	
617.66	7127.6	
617.85	7108.5	
618.04	6840.2	
618.22	6391	
618.41	7473.7	
618.6	8385.1	
618.79	6223.8	
618.98	5908.4	
619.17	8567.3	
619.36	6995.9	
619.55	6018.3	
619.74	6162.3	
619.93	7843	
620.12	7367.2	
620.31	6617.7	
620.5	6791.1	
620.69	8416.5	
620.88	8748.2	
621.07	7439.6	
621.26	6523.5	
621.45	8064.2	
621.64	7986.4	
621.83	6668.2	
622.02	5773.9	
622.21	8133.2	
622.4	7920.9	
622.59	7115.3	
622.78	6950.1	
622.97	7464.8	
623.16	8471.8	
623.35	6574	
623.54	5799.2	
623.72	7699	
623.91	7838.3	
624.1	6857.3	
624.29	5512.4	
624.48	8797.4	
624.67	8101.8	
624.86	6723.5	
625.05	5730.2	
625.24	8920.3	
625.43	7414.3	
625.62	8364.6	
625.81	5988.3	
626	8348.9	
626.19	7705.8	
626.38	6730.3	
626.56	6216.3	
626.75	7514	
626.94	8225.3	
627.13	6770.6	
627.32	5616.9	
627.51	8194.6	
627.7	9389.3	
627.89	5754.8	
628.08	6780.8	
628.27	7405.5	
628.46	7559.7	
628.65	5954.1	
628.83	5657.2	
629.02	8198	
629.21	7430	
629.4	6321.4	
629.59	6556.2	
629.78	7430.7	
629.97	8363.2	
630.16	6641.6	
630.35	6107	
630.54	8772.8	
630.72	8525.7	
630.91	6032	
631.1	6653.2	
631.29	7968	
631.48	8148.2	
631.67	6742.6	
631.86	6194.4	
632.05	7574.8	
632.24	7677.8	
632.42	5930.9	
632.61	6567.2	
632.8	7775.5	
632.99	7360.4	
633.18	6464.8	
633.37	6838.2	
633.56	8023.9	
633.75	7804.8	
633.93	6498.9	
634.12	6100.9	
634.31	8759.2	
634.5	8374.1	
634.69	6181.5	
634.88	6571.9	
635.07	7710.6	
635.25	8363.2	
635.44	7043	
635.63	7279.2	
635.82	7645.1	
636.01	7153.6	
636.2	7081.2	
636.39	6540.5	
636.57	8682	
636.76	8432.9	
636.95	6048.3	
637.14	7376.1	
637.33	8028	
637.52	8978.3	
637.7	5780.1	
637.89	6726.9	
638.08	7577.5	
638.27	9019.3	
638.46	6823.1	
638.65	7216.4	
638.83	9124.4	
639.02	7520.1	
639.21	6780.8	
639.4	7154.2	
639.59	7976.8	
639.78	7636.2	
639.96	6038.1	
640.15	6059.3	
640.34	7800.7	
640.53	7956.4	
640.72	5774.6	
640.91	6051.1	
641.09	7299	
641.28	8503.8	
641.47	6158.9	
641.66	6924.9	
641.85	8023.3	
642.03	8130.4	
642.22	6666.8	
642.41	6147.3	
642.6	7456.7	
642.79	6739.2	
642.97	5982.1	
643.16	6643.6	
643.35	7309.9	
643.54	7152.2	
643.73	5842.9	
643.91	6650.4	
644.1	7167.9	
644.29	7666.9	
644.48	5952.1	
644.67	6043.6	
644.85	7271	
645.04	7612.3	
645.23	5599.1	
645.42	5989.6	
645.6	7230.7	
645.79	8332.5	
645.98	5975.3	
646.17	5014.8	
646.36	6997.2	
646.54	7501.7	
646.73	6771.3	
646.92	5569.1	
647.11	7165.2	
647.29	8234.2	
647.48	5621.7	
647.67	5407.3	
647.86	8390.5	
648.05	8471.1	
648.23	5890.6	
648.42	7281.9	
648.61	7808.9	
648.8	7484	
648.98	5608	
649.17	5961.6	
649.36	7165.2	
649.55	6647.7	
649.73	5571.8	
649.92	6345.3	
650.11	7005.4	
650.3	7385.7	
650.48	5707.7	
650.67	5571.8	
650.86	7642.3	
651.05	6550.1	
651.23	5747.3	
651.42	5677	
651.61	7095.5	
651.79	7210.2	
651.98	5917.9	
652.17	5500.2	
652.36	7576.8	
652.54	6622.4	
652.73	5554.1	
652.92	5424.4	
653.11	7544.7	
653.29	7538.6	
653.48	4889.2	
653.67	5840.8	
653.85	7354.9	
654.04	8400.8	
654.23	6100.9	
654.42	5621.7	
654.6	6909.2	
654.79	7488.1	
654.98	5134.3	
655.16	5653.1	
655.35	6496.2	
655.54	6499.6	
655.73	5181.4	
655.91	5162.2	
656.1	7520.1	
656.29	6367.8	
656.47	4744.5	
656.66	6423.8	
656.85	6685.3	
657.03	6712.6	
657.22	5327.4	
657.41	5321.3	
657.59	6775.4	
657.78	6567.2	
657.97	4952.7	
658.16	5694.7	
658.34	7384.3	
658.53	7749.5	
658.72	6556.2	
658.9	7009.5	
659.09	6778.8	
659.28	6989	
659.46	5399.1	
659.65	5345.9	
659.84	6615.6	
660.02	7137.2	
660.21	5131.5	
660.4	5193.6	
660.58	7602.1	
660.77	6974	
660.96	5749.3	
661.14	4836.6	
661.33	8075.1	
661.52	7950.9	
661.7	4816.1	
661.89	8356.4	
662.08	6584.2	
662.26	6208.1	
662.45	5123.3	
662.64	5195.7	
662.82	7276.4	
663.01	6451.8	
663.2	5266	
663.38	5948	
663.57	7163.8	
663.75	7043	
663.94	5591	
664.13	6754.9	
664.31	6572.6	
664.5	7249.8	
664.69	5701.5	
664.87	6296.8	
665.06	6342.6	
665.25	7043	
665.43	6503	
665.62	6633.4	
665.8	7374.7	
665.99	6685.3	
666.18	5450.3	
666.36	5748.6	
666.55	7294.9	
666.74	7178.1	
666.92	5159.5	
667.11	6703.7	
667.29	6675.7	
667.48	7279.2	
667.67	6363.7	
667.85	5425.8	
668.04	6698.2	
668.22	6695.5	
668.41	5556.8	
668.6	5724.1	
668.78	6429.3	
668.97	6687.3	
669.15	5950	
669.34	4903.5	
669.53	6582.2	
669.71	6864.8	
669.9	5137	
670.08	5681.7	
670.27	6524.8	
670.46	7141.9	
670.64	5970.5	
670.83	6103.6	
671.01	6442.2	
671.2	6999.3	
671.38	5120.6	
671.57	5055.1	
671.76	7638.2	
671.94	8142.7	
672.13	4978.6	
672.31	6038.1	
672.5	7202.7	
672.69	6533	
672.87	5139	
673.06	5458.5	
673.24	7015	
673.43	6587.6	
673.61	5938.4	
673.8	5387.5	
673.98	7285.3	
674.17	7437.5	
674.36	5991	
674.54	5797.1	
674.73	6959	
674.91	7225.2	
675.1	5596.4	
675.28	5279.7	
675.47	6813.6	
675.65	7351.5	
675.84	5434.6	
676.03	5763.7	
676.21	6619.7	
676.4	6083.8	
676.58	6325.5	
676.77	5942.5	
676.95	8077.2	
677.14	6493.4	
677.32	5147.9	
677.51	4952	
677.69	7291.5	
677.88	6207.4	
678.06	4955.4	
678.25	5111	
678.44	6768.5	
678.62	6595.8	
678.81	4855.7	
678.99	5743.9	
679.18	7573.4	
679.36	7215.7	
679.55	5365	
679.73	6015.6	
679.92	7092.1	
680.1	6479.1	
680.29	6582.9	
680.47	5399.1	
680.66	6487.3	
680.84	7264.1	
681.03	4740.4	
681.21	5782.8	
681.4	6499.6	
681.58	6410.8	
681.77	5244.2	
681.95	5087.2	
682.14	7405.5	
682.32	7684.7	
682.51	6126.2	
682.69	4865.3	
682.88	6459.3	
683.06	7208.8	
683.25	5702.9	
683.43	6176	
683.62	6741.9	
683.8	7204.8	
683.99	6360.3	
684.17	5612.8	
684.36	7996	
684.54	6696.9	
684.73	4870.8	
684.91	5048.2	
685.1	7063.4	
685.28	6491.4	
685.46	5707	
685.65	5685.2	
685.83	7303.1	
686.02	6677.1	
686.2	5187.5	
686.39	5289.2	
686.57	6298.9	
686.76	7824.6	
686.94	5181.4	
687.13	5267.4	
687.31	7124.2	
687.5	6628.6	
687.68	4799.1	
687.86	6028.5	
688.05	8366	
688.23	6146	
688.42	6055.8	
688.6	5233.9	
688.79	6661.4	
688.97	6570.6	
689.16	5657.9	
689.34	4561.5	
689.52	7246.4	
689.71	7499	
689.89	5903.6	
690.08	5167	
690.26	6834.1	
690.45	6691.4	
690.63	6075	
690.81	5373.9	
691	6543.3	
691.18	6510.5	
691.37	5510.4	
691.55	7678.5	
691.74	6492.7	
691.92	8494.3	
692.1	5487.9	
692.29	4927.4	
692.47	6706.4	
692.66	6002.6	
692.84	5174.5	
693.02	5767.8	
693.21	6154.1	
693.39	6590.4	
693.58	5808.7	
693.76	5253.7	
693.94	7761.1	
694.13	7564.5	
694.31	5188.9	
694.5	6306.4	
694.68	6405.4	
694.86	6804	
695.05	5545.2	
695.23	5575.9	
695.42	7110.5	
695.6	9317.6	
695.78	6111.1	
695.97	5254.4	
696.15	7135.1	
696.34	6582.9	
696.52	5113.1	
696.7	5859.9	
696.89	6944.7	
697.07	6340.5	
697.25	5795.8	
697.44	7262.1	
697.62	6956.9	
697.81	7361.8	
697.99	5448.3	
698.17	5963	
698.36	6248.4	
698.54	6935.1	
698.72	5943.9	
698.91	4851	
699.09	6566.5	
699.28	6447	
699.46	5467.4	
699.64	5381.4	
699.83	6339.8	
700.01	7584.3	
700.19	6137.8	
700.38	4704.2	
700.56	7568.6	
700.74	6531.7	
700.93	5015.5	
701.11	5786.2	
701.29	7011.6	
701.48	8040.3	
701.66	5152	
701.84	5281	
702.03	6597.2	
702.21	7111.9	
702.39	4820.2	
702.58	5339.1	
702.76	6911.2	
702.94	6993.8	
703.13	4780	
703.31	7135.8	
703.49	6236.7	
703.68	7238.2	
703.86	4922	
704.04	5924.8	
704.23	6780.8	
704.41	7115.3	
704.59	5209.3	
704.78	6365.8	
704.96	7856	
705.14	7217	
705.33	4919.9	
705.51	5717.2	
705.69	6642.9	
705.87	7402	
706.06	5914.5	
706.24	4861.9	
706.42	6903	
706.61	7146	
706.79	6025.8	
706.97	4885.1	
707.16	6373.3	
707.34	6921.5	
707.52	6024.4	
707.7	5082.4	
707.89	6460	
708.07	6230.6	
708.25	5965.1	
708.44	6068.8	
708.62	6427.2	
708.8	7483.3	
708.98	6231.3	
709.17	5216.2	
709.35	6838.9	
709.53	6810.2	
709.72	4899.4	
709.9	5353.4	
710.08	7032	
710.26	7069.6	
710.45	6499.6	
710.63	5436.7	
710.81	6728.3	
710.99	6813.6	
711.18	5762.3	
711.36	5340.4	
711.54	6604	
711.72	7316.7	
711.91	5392.3	
712.09	4800.4	
712.27	6765.1	
712.45	7350.2	
712.64	5698.8	
712.82	4709	
713	6207.4	
713.18	6397.9	
713.37	4822.3	
713.55	6028.5	
713.73	7261.4	
713.91	5884.5	
714.1	5280.3	
714.28	4811.4	
714.46	6922.8	
714.64	6254.5	
714.83	4280.3	
715.01	5149.3	
715.19	6441.5	
715.37	5710.4	
715.55	4840	
715.74	5137	
715.92	7281.2	
716.1	5266	
716.28	6325.5	
716.47	5246.2	
716.65	5960.3	
716.83	6124.1	
717.01	5085.8	
717.19	5205.3	
717.38	8148.9	
717.56	5765	
717.74	5418.2	
717.92	4565.6	
718.1	6985.6	
718.29	6103.6	
718.47	4108.9	
718.65	4739	
718.83	6758.3	
719.01	6657.9	
719.2	3988.1	
719.38	5047.6	
719.56	6394.4	
719.74	7873.1	
719.92	4617.5	
720.11	5717.2	
720.29	6509.1	
720.47	5592.3	
720.65	4205.2	
720.83	5107.6	
721.02	5950.7	
721.2	5730.2	
721.38	5132.9	
721.56	4397	
721.74	5292.6	
721.92	5435.3	
722.11	5581.4	
722.29	5329.5	
722.47	6718.7	
722.65	5908.4	
722.83	4425	
723.01	5369.1	
723.2	5988.9	
723.38	6260.6	
723.56	3865.9	
723.74	5035.3	
723.92	5466	
724.1	6563.7	
724.29	4352.6	
724.47	5557.5	
724.65	5580.7	
724.83	5470.1	
725.01	4195.6	
725.19	5103.5	
725.37	5496.1	
725.56	5613.5	
725.74	4057.7	
725.92	4376.5	
726.1	5430.5	
726.28	5755.5	
726.46	4722.6	
726.64	4504.2	
726.83	5730.2	
727.01	5986.2	
727.19	4079.6	
727.37	4868.7	
727.55	5830.6	
727.73	6345.3	
727.91	4067.3	
728.09	3904.8	
728.28	6349.4	
728.46	6912.6	
728.64	5080.3	
728.82	4884.4	
729	7353.6	
729.18	6601.3	
729.36	4115.7	
729.54	6401.3	
729.72	7570	
729.91	5929.6	
730.09	5900.2	
730.27	4743.8	
730.45	5786.2	
730.63	6408.1	
730.81	5398.4	
730.99	4354.7	
731.17	6984.3	
731.35	5481.7	
731.53	4878.9	
731.71	4476.9	
731.9	6642.2	
732.08	6866.2	
732.26	4795.7	
732.44	4469.4	
732.62	6892.1	
732.8	6376	
732.98	5160.9	
733.16	4243.4	
733.34	6309.1	
733.52	5161.6	
733.7	4698.7	
733.88	5000.5	
734.07	6228.6	
734.25	5928.9	
734.43	4155.3	
734.61	5681.7	
734.79	7399.3	
734.97	5817.6	
735.15	4379.9	
735.33	4670.7	
735.51	6179.4	
735.69	5799.8	
735.87	5777.3	
736.05	4853.7	
736.23	6038.1	
736.41	5793	
736.59	4698	
736.77	4794.3	
736.95	6425.8	
737.13	5902.2	
737.32	4351.3	
737.5	4542.4	
737.68	6935.1	
737.86	5776	
738.04	4136.2	
738.22	6003.3	
738.4	5629.9	
738.58	5844.9	
738.76	4724.7	
738.94	3758.7	
739.12	5741.1	
739.3	5598.5	
739.48	5473.5	
739.66	5156.1	
739.84	5973.9	
740.02	5910.4	
740.2	3814	
740.38	4156	
740.56	6347.3	
740.74	5200.5	
740.92	4827.1	
741.1	4810	
741.28	5757.5	
741.46	5627.1	
741.64	4422.9	
741.82	4932.9	
742	5805.3	
742.18	5780.7	
742.36	4599.7	
742.54	4225.6	
742.72	6395.1	
742.9	5157.5	
743.08	5033.2	
743.26	3830.4	
743.44	6573.3	
743.62	6421.1	
743.8	5184.8	
743.98	4257.7	
744.16	6121.4	
744.34	5840.8	
744.52	5096	
744.7	5013.4	
744.88	6268.8	
745.06	5754.1	
745.24	5098.1	
745.42	5234.6	
745.6	6354.8	
745.78	6046.3	
745.96	4015.4	
746.14	4336.2	
746.32	7112.6	
746.5	6455.2	
746.68	4901.5	
746.86	4268	
747.03	6787	
747.21	5117.9	
747.39	4853.7	
747.57	4354.7	
747.75	5994.4	
747.93	6406	
748.11	4354.7	
748.29	4241.3	
748.47	7533.1	
748.65	5739.1	
748.83	5041.4	
749.01	4785.4	
749.19	6192.4	
749.37	5370.5	
749.55	4616.8	
749.73	4728.1	
749.91	5911.8	
750.09	5569.1	
750.26	4725.3	
750.44	4188.1	
750.62	5961.6	
750.8	5852.4	
750.98	4012	
751.16	4377.9	
751.34	5992.4	
751.52	5309.7	
751.7	5197.1	
751.88	3957.4	
752.06	6434.7	
752.24	6209.4	
752.42	3977.8	
752.59	4310.3	
752.77	5780.1	
752.95	7083.2	
753.13	5029.1	
753.31	4510.3	
753.49	5570.5	
753.67	5956.9	
753.85	4751.3	
754.03	4320.5	
754.21	6314.6	
754.38	6587	
754.56	4549.9	
754.74	3548.4	
754.92	5532.2	
755.1	6210.1	
755.28	3750.5	
755.46	3747.1	
755.64	7133.1	
755.82	7172.7	
755.99	4061.8	
756.17	4259.8	
756.35	4815.5	
756.53	6438.1	
756.71	3137.5	
756.89	4099.4	
757.07	6022.4	
757.25	5049.6	
757.42	4635.9	
757.6	5410.7	
757.78	5902.9	
757.96	4994.3	
758.14	4242.7	
758.32	3738.9	
758.5	4618.9	
758.67	5412.1	
758.85	4120.5	
759.03	4216.1	
759.21	5598.5	
759.39	5061.2	
759.57	3668.6	
759.75	4810.7	
759.92	6173.3	
760.1	5449	
760.28	5184.1	
760.46	5417.6	
760.64	5307.7	
760.82	5016.2	
760.99	4990.2	
761.17	4186	
761.35	6019.7	
761.53	5047.6	
761.71	4314.4	
761.89	4919.2	
762.06	5935.7	
762.24	5375.9	
762.42	4347.8	
762.6	4105.5	
762.78	5461.2	
762.96	6098.9	
763.13	4691.9	
763.31	4388.8	
763.49	6185.5	
763.67	5319.3	
763.85	5165.7	
764.02	5815.5	
764.2	6438.1	
764.38	5651.7	
764.56	4219.5	
764.74	5139.7	
764.91	6600.6	
765.09	5437.4	
765.27	3945.1	
765.45	3751.9	
765.63	6654.5	
765.8	6471.6	
765.98	3508.2	
766.16	3848.8	
766.34	5053	
766.52	4914.4	
766.69	4737.6	
766.87	3642	
767.05	5464.7	
767.23	6271.6	
767.41	4001.7	
767.58	4251.6	
767.76	6083.1	
767.94	6106.4	
768.12	4118.5	
768.29	4787.5	
768.47	5564.3	
768.65	6226.5	
768.83	3674.7	
769	4818.2	
769.18	5171.1	
769.36	5841.5	
769.54	4881	
769.72	3756	
769.89	6075	
770.07	6230.6	
770.25	4081.6	
770.43	5290.6	
770.6	6851.8	
770.78	7280.5	
770.96	4321.2	
771.14	4903.5	
771.31	6042.9	
771.49	5424.4	
771.67	3494.5	
771.85	3754.6	
772.02	4689.2	
772.2	5425.1	
772.38	4439.3	
772.55	3936.9	
772.73	5659.9	
772.91	5479.7	
773.09	4305.5	
773.26	4406.5	
773.44	5650.3	
773.62	5340.4	
773.8	3891.1	
773.97	3592.1	
774.15	5727.5	
774.33	5334.3	
774.5	3802.4	
774.68	4163.5	
774.86	5860.6	
775.04	5358.9	
775.21	3857.7	
775.39	3792.8	
775.57	5683.1	
775.74	6055.2	
775.92	3683.6	
776.1	3622.9	
776.27	5614.8	
776.45	6855.2	
776.63	3870	
776.81	3330	
776.98	5296.7	
777.16	6317.3	
777.34	4016.1	
777.51	4293.2	
777.69	5298.1	
777.87	5091.3	
778.04	3969	
778.22	4625	
778.4	5106.3	
778.57	5756.8	
778.75	3327.9	
778.93	3642	
779.1	4900.1	
779.28	4791.6	
779.46	3424.9	
779.64	3865.9	
779.81	5943.9	
779.99	6746.7	
780.17	4621.6	
780.34	4775.9	
780.52	5406.6	
780.69	5659.9	
780.87	4183.3	
781.05	3765.5	
781.22	5434.6	
781.4	5550	
781.58	3899.3	
781.75	3094.5	
781.93	5457.8	
782.11	4878.3	
782.28	4716.5	
782.46	3854.3	
782.64	4762.2	
782.81	5692	
782.99	3979.2	
783.17	3942.3	
783.34	5540.4	
783.52	4790.2	
783.69	4156	
783.87	5034.6	
784.05	4902.2	
784.22	4880.3	
784.4	4968.4	
784.58	4182	
784.75	5879	
784.93	4924.7	
785.1	3899.3	
785.28	4543.1	
785.46	5544.5	
785.63	4896.7	
785.81	3882.9	
785.99	3793.5	
786.16	5070.1	
786.34	5472.2	
786.51	3721.8	
786.69	4151.2	
786.87	4654.4	
787.04	5208.7	
787.22	3690.4	
787.39	4570.4	
787.57	4844.8	
787.75	6016.2	
787.92	4730.8	
788.1	4657.8	
788.27	4958.8	
788.45	4633.2	
788.63	4438.6	
788.8	3143.6	
788.98	5457.2	
789.15	4634.6	
789.33	3352.5	
789.5	3920.5	
789.68	5815.5	
789.86	5970.5	
790.03	4398.4	
790.21	3801.7	
790.38	5826.5	
790.56	5065.3	
790.73	3688.4	
790.91	3728.7	
791.09	4908.3	
791.26	5703.6	
791.44	3939.6	
791.61	3371.6	
791.79	4985.4	
791.96	4964.3	
792.14	3456.3	
792.32	3111.5	
792.49	4910.3	
792.67	5057.8	
792.84	3577.1	
793.02	3291.8	
793.19	5363.6	
793.37	6140.5	
793.54	3108.1	
793.72	3472.7	
793.89	6255.2	
794.07	4944.5	
794.25	4062.5	
794.42	3159.3	
794.6	6049.7	
794.77	5635.3	
794.95	4332.8	
795.12	3726.6	
795.3	4948.6	
795.47	5554.8	
795.65	4143.7	
795.82	3897.3	
796	4746.5	
796.17	6670.9	
796.35	3837.2	
796.52	4565.6	
796.7	5452.4	
796.87	5653.8	
797.05	4721.3	
797.22	4739.7	
797.4	5479.7	
797.57	6529.6	
797.75	3955.3	
797.92	3721.8	
798.1	5833.3	
798.27	4937	
798.45	3232.4	
798.62	3465.2	
798.8	5246.2	
798.97	5738.4	
799.15	4195.6	
799.32	4009.9	
799.5	4480.3	
799.67	5276.9	
799.85	4322.6	
800.02	3147.7	
800.2	4896	
800.37	5199.1	
800.55	4493.2	
800.72	3706.8	
800.9	5668.8	
801.07	6190.3	
801.25	5029.8	
801.42	4189.5	
801.6	5764.3	
801.77	5432.6	
801.95	3789.4	
802.12	3661.8	
802.29	5467.4	
802.47	5343.2	
802.64	4100	
802.82	3106.8	
802.99	4855.1	
803.17	5879	
803.34	4021.5	
803.52	3558	
803.69	6533	
803.87	4701.5	
804.04	3987.4	
804.21	4066.6	
804.39	5993.7	
804.56	5109	
804.74	3405.1	
804.91	4126	
805.09	4963.6	
805.26	5043.5	
805.44	3452.2	
805.61	3788.1	
805.78	5596.4	
805.96	5569.1	
806.13	4182.6	
806.31	4461.8	
806.48	4498	
806.66	5036.6	
806.83	4108.2	
807	4045.4	
807.18	4899.4	
807.35	5330.2	
807.53	4026.3	
807.7	3181.9	
807.87	6131.6	
808.05	4949.9	
808.22	4426.3	
808.4	3236.5	
808.57	4947.2	
808.74	4622.3	
808.92	3672.7	
809.09	4649.6	
809.27	4810.7	
809.44	5444.2	
809.61	3246	
809.79	3615.3	
809.96	6064.7	
810.14	5694.7	
810.31	3170.9	
810.48	3874.1	
810.66	5100.1	
810.83	5778	
811.01	3649.5	
811.18	4081.6	
811.35	5710.4	
811.53	4450.2	
811.7	4429.1	
811.87	4140.3	
812.05	4963.6	
812.22	4900.8	
812.39	3622.9	
812.57	3409.9	
812.74	4994.3	
812.92	6660	
813.09	3841.3	
813.26	4188.8	
813.44	6383.5	
813.61	4900.1	
813.78	3285.6	
813.96	4297.3	
814.13	5035.3	
814.3	4688.5	
814.48	4696	
814.65	3903.4	
814.82	6238.8	
815	4782.7	
815.17	3946.4	
815.34	4807.3	
815.52	4904.9	
815.69	4952.7	
815.87	3930.1	
816.04	3335.5	
816.21	5029.8	
816.38	4389.5	
816.56	3767.6	
816.73	3534.1	
816.9	6290	
817.08	5743.2	
817.25	3596.9	
817.42	4513	
817.6	4601.8	
817.77	5053	
817.94	4020.8	
818.12	3540.3	
818.29	4708.3	
818.46	7466.2	
818.64	3740.3	
818.81	3446.7	
818.98	4688.5	
819.16	6792.4	
819.33	4249.5	
819.5	3909.6	
819.67	5360.2	
819.85	5939.8	
820.02	3875.4	
820.19	4185.4	
820.37	5217.5	
820.54	4820.9	
820.71	4040	
820.88	5000.5	
821.06	5181.4	
821.23	4832.5	
821.4	4029.7	
821.58	4044.1	
821.75	5696.8	
821.92	5053	
822.09	3198.2	
822.27	3392.1	
822.44	4982.7	
822.61	4914.4	
822.79	3248.8	
822.96	6250.4	
823.13	5552.7	
823.3	4717.8	
823.48	3780.6	
823.65	3418.7	
823.82	5714.5	
823.99	4547.2	
824.17	4875.5	
824.34	3487.7	
824.51	6597.2	
824.68	5043.5	
824.86	3624.9	
825.03	4044.7	
825.2	4991.6	
825.37	6087.2	
825.55	3549.1	
825.72	4018.1	
825.89	6622.4	
826.06	6166.4	
826.24	3840.6	
826.41	3952.6	
826.58	6064.7	
826.75	5233.9	
826.92	3067.9	
827.1	3395.5	
827.27	8295	
827.44	6589.7	
827.61	3658.4	
827.79	4456.4	
827.96	4741	
828.13	5046.2	
828.3	3809.2	
828.47	3216.7	
828.65	5213.4	
828.82	5180.7	
828.99	5036.6	
829.16	4319.8	
829.34	5599.8	
829.51	5326.8	
829.68	4027.7	
829.85	4166.9	
830.02	5854.5	
830.2	5580	
830.37	3097.9	
830.54	4810	
830.71	6369.9	
830.88	4892.6	
831.05	3150.5	
831.23	3654.3	
831.4	6111.8	
831.57	6860	
831.74	3624.9	
831.91	3198.2	
832.09	5227.1	
832.26	5629.9	
832.43	3861.8	
832.6	4268	
832.77	5230.5	
832.94	5982.8	
833.12	3005.1	
833.29	3770.3	
833.46	4863.2	
833.63	7078.5	
833.8	4142.4	
833.97	3822.9	
834.15	5584.1	
834.32	5408.7	
834.49	3946.4	
834.66	4045.4	
834.83	5788.2	
835	4713.7	
835.17	3713.7	
835.35	3746.4	
835.52	5432.6	
835.69	5382.7	
835.86	3909.6	
836.03	3188	
836.2	5558.9	
836.37	5167	
836.55	3870.7	
836.72	3548.4	
836.89	5145.2	
837.06	5627.8	
837.23	3910.3	
837.4	4266.6	
837.57	6387.6	
837.75	7047.7	
837.92	3519.8	
838.09	3751.2	
838.26	5152	
838.43	5864	
838.6	4047.5	
838.77	3571	
838.94	6668.9	
839.11	6446.3	
839.29	3850.2	
839.46	3036.5	
839.63	5526.8	
839.8	5343.2	
839.97	3701.4	
840.14	3719.1	
840.31	5385.5	
840.48	5579.3	
840.65	3090.4	
840.82	3781.2	
841	5544.5	
841.17	5537	
841.34	3425.6	
841.51	3431.7	
841.68	5496.7	
841.85	5175.2	
842.02	3513.6	
842.19	2906.8	
842.36	5322	
842.53	5308.3	
842.7	3434.4	
842.87	4192.9	
843.05	6946	
843.22	5258.5	
843.39	3231	
843.56	3545	
843.73	5070.8	
843.9	5702.2	
844.07	5499.5	
844.24	4619.5	
844.41	8168.7	
844.58	4819.6	
844.75	3281.5	
844.92	3610.6	
845.09	5638.1	
845.26	5555.5	
845.43	3382.6	
845.6	3545	
845.77	5591	
845.94	5275.6	
846.12	3763.5	
846.29	4009.9	
846.46	5780.1	
846.63	5547.3	
846.8	3433.8	
846.97	4060.4	
847.14	6032	
847.31	5482.4	
847.48	3829	
847.65	4229.1	
847.82	5862	
847.99	5750	
848.16	4539	
848.33	4250.9	
848.5	5190.2	
848.67	6022.4	
848.84	3341.6	
849.01	3587.4	
849.18	4997.7	
849.35	4679.6	
849.52	4243.4	
849.69	3308.2	
849.86	5728.2	
850.03	6010.8	
850.2	3398.9	
850.37	4179.2	
850.54	5939.1	
850.71	5271.5	
850.88	4117.8	
851.05	3334.8	
851.22	5424.4	
851.39	6063.4	
851.56	3272	
851.73	3905.5	
851.9	4855.1	
852.07	5745.2	
852.24	3780.6	
852.41	3371.6	
852.58	5429.8	
852.75	4985.4	
852.92	3803.1	
853.09	3351.8	
853.26	5153.4	
853.43	6039.5	
853.6	3377.8	
853.77	2903.3	
853.94	6106.4	
854.11	4917.2	
854.28	4984.1	
854.44	3632.4	
854.61	6528.2	
854.78	5829.9	
854.95	3396.2	
855.12	4298.7	
855.29	4516.5	
855.46	6283.9	
855.63	3373.7	
855.8	4655.7	
855.97	5178.6	
856.14	5857.9	
856.31	4787.5	
856.48	3656.3	
856.65	5154.1	
856.82	4922.6	
856.99	3248.8	
857.16	3670.6	
857.33	6716	
857.49	5249.6	
857.66	3667.2	
857.83	3987.4	
858	5196.4	
858.17	5408	
858.34	3214.6	
858.51	3405.8	
858.68	6254.5	
858.85	6339.1	
859.02	3910.9	
859.19	4256.4	
859.36	4874.2	
859.52	4916.5	
859.69	3390.1	
859.86	4018.1	
860.03	4941.7	
860.2	6124.1	
860.37	3042.6	
860.54	3401.7	
860.71	5794.4	
860.88	6236.7	
861.05	3789.4	
861.21	4334.2	
861.38	6205.3	
861.55	4788.2	
861.72	3108.1	
861.89	3734.1	
862.06	5886.5	
862.23	6240.8	
862.4	3312.9	
862.56	3489.1	
862.73	5668.1	
862.9	5307.7	
863.07	3981.3	
863.24	3089	
863.41	4804.5	
863.58	4930.8	
863.75	3475.4	
863.91	3919.8	
864.08	6157.6	
864.25	5752.7	
864.42	4219.5	
864.59	4774.5	
864.76	6452.5	
864.93	4917.2	
865.09	3323.2	
865.26	3631	
865.43	6081.8	
865.6	6432.7	
865.77	2988.7	
865.94	3355.9	
866.1	6117.3	
866.27	5806.7	
866.44	5111	
866.61	3248.8	
866.78	5264	
866.95	5724.1	
867.11	3317	
867.28	3029.6	
867.45	5924.8	
867.62	4904.2	
867.79	3848.1	
867.96	3344.3	
868.12	4873.5	
868.29	5821	
868.46	2951.8	
868.63	4549.2	
868.8	5956.2	
868.97	5717.2	
869.13	3554.6	
869.3	3586	
869.47	5681.7	
869.64	5919.3	
869.81	3422.8	
869.97	3393.5	
870.14	5499.5	
870.31	6286.6	
870.48	3318.4	
870.65	4311.7	
870.81	5197.7	
870.98	5239.4	
871.15	3796.3	
871.32	3515	
871.48	5676.3	
871.65	6235.4	
871.82	3367.5	
871.99	3786	
872.16	6732.4	
872.32	6147.3	
872.49	3401.7	
872.66	3380.5	
872.83	5799.2	
872.99	5070.8	
873.16	3876.8	
873.33	3370.3	
873.5	5408	
873.67	5491.3	
873.83	3565.5	
874	4571.1	
874.17	5590.3	
874.34	6569.2	
874.5	4403.8	
874.67	4218.8	
874.84	6221	
875.01	4855.7	
875.17	4813.4	
875.34	3383.9	
875.51	5471.5	
875.68	6621.8	
875.84	4019.5	
876.01	4924.7	
876.18	5700.2	
876.34	5663.3	
876.51	3416	
876.68	3350.5	
876.85	5238.7	
877.01	6026.5	
877.18	4868	
877.35	3325.9	
877.52	5329.5	
877.68	4802.5	
877.85	3306.1	
878.02	3317	
878.18	5326.1	
878.35	5059.2	
878.52	2726.5	
878.69	3804.4	
878.85	5825.8	
879.02	5722	
879.19	4775.9	
879.35	3676.1	
879.52	5744.6	
879.69	5991	
879.86	2982.5	
880.02	3821.5	
880.19	5353.4	
880.36	6533	
880.52	3905.5	
880.69	4029	
880.86	5857.9	
881.02	5940.5	
881.19	3743.7	
881.36	3685	
881.52	5722	
881.69	5147.2	
881.86	3648.1	
882.02	3595.6	
882.19	6024.4	
882.36	6989	
882.52	3530.7	
882.69	4693.9	
882.86	5554.1	
883.02	5470.8	
883.19	4113	
883.36	3831.1	
883.52	5855.8	
883.69	6714.6	
883.86	3455.6	
884.02	3103.4	
884.19	5803.3	
884.36	5369.1	
884.52	3835.2	
884.69	3573.7	
884.86	5100.1	
885.02	6385.6	
885.19	3796.3	
885.36	3910.3	
885.52	5365.7	
885.69	5526.8	
885.86	4934.9	
886.02	4311.7	
886.19	5786.2	
886.35	5304.9	
886.52	3781.2	
886.69	4760.2	
886.85	4908.3	
887.02	6172.6	
887.19	6172.6	
887.35	6172.6	
887.52	6172.6	
887.68	6172.6	
887.85	6172.6	
888.02	6172.6	
888.18	6172.6	
888.35	6172.6	
888.51	6172.6	
888.68	6172.6	
888.85	6172.6	
889.01	6172.6	
889.18	6172.6	
889.35	6172.6	
889.51	6172.6	
889.68	6172.6	
889.84	6172.6	
890.01	6172.6	
890.17	6172.6	
890.34	6172.6	
890.51	6172.6	
890.67	6172.6	
890.84	6172.6	
891	6172.6	
891.17	6172.6	
891.34	6172.6	
891.5	6172.6	
891.67	6172.6	
891.83	6172.6	
892	6172.6	
892.16	6172.6	
892.33	6172.6	
892.5	6172.6	
892.66	6172.6	
892.83	6172.6	
892.99	6172.6	
893.16	6172.6	
893.32	6172.6	
893.49	6172.6	
893.65	6172.6	
893.82	6172.6	
893.99	6172.6	
894.15	6172.6	
894.32	6172.6	
894.48	6172.6	
894.65	6172.6	
894.81	6172.6	
894.98	6172.6	
895.14	6172.6	
895.31	6172.6	
895.47	6172.6	
895.64	6172.6	
895.81	6172.6	
895.97	6172.6	
896.14	6172.6	
896.3	6172.6	
896.47	6172.6	
896.63	6172.6	
896.8	6172.6	
896.96	6172.6	
897.13	6172.6	
897.29	6172.6	
897.46	6172.6	
897.62	6172.6	
897.79	6172.6	
897.95	6172.6	
898.12	6172.6	
898.28	6172.6	
898.45	6172.6	
898.61	6172.6	
898.78	6172.6	
898.94	6172.6	
899.11	6172.6	
899.27	6172.6	
899.44	6172.6	
899.6	6172.6	
899.77	6172.6	
899.93	6172.6	
900.1	6172.6	
900.26	6172.6	
900.43	6172.6	
900.59	6172.6	
900.76	6172.6	
900.92	6172.6	
901.09	6172.6	
901.25	6172.6	
901.42	6172.6	
901.58	6172.6	
901.75	6172.6	
901.91	6172.6	
902.07	6172.6	
902.24	6172.6	
902.4	6172.6	
902.57	6172.6	
902.73	6172.6	
902.9	6172.6	
903.06	6172.6	
903.23	6172.6	
903.39	6172.6	
903.56	6172.6	
903.72	6172.6	
903.88	6172.6	
904.05	6172.6	
904.21	6172.6	
904.38	6172.6	
904.54	6172.6	
904.71	6172.6	
904.87	6172.6	
905.03	6172.6	
905.2	6172.6	
905.36	6172.6	
905.53	6172.6	
905.69	6172.6	
905.86	6172.6	
906.02	6172.6	
906.18	6172.6	
906.35	6172.6	
906.51	6172.6	
906.68	6172.6	
906.84	6172.6	
907.01	6172.6	
907.17	6172.6	
907.33	6172.6	
907.5	6172.6	
907.66	6172.6	
907.83	6172.6	
907.99	6172.6	
908.15	6172.6	
908.32	6172.6	
908.48	6172.6	
908.65	6172.6	
908.81	6172.6	
908.97	6172.6	
909.14	6172.6	
909.3	6172.6	
909.47	6172.6	
909.63	6172.6	
909.79	6172.6	
909.96	6172.6	
910.12	6172.6	
910.28	6172.6	
910.45	6172.6	
910.61	6172.6	
910.78	6172.6	
910.94	6172.6	
911.1	6172.6	
911.27	6172.6	
911.43	6172.6	
911.59	6172.6	
911.76	6172.6	
911.92	6172.6	
912.08	6172.6	
912.25	6172.6	
912.41	6172.6	
912.57	6172.6	
912.74	6172.6	
912.9	6172.6	
913.07	6172.6	
913.23	6172.6	
913.39	6172.6	
913.56	6172.6	
913.72	6172.6	
913.88	6172.6	
914.05	6172.6	
914.21	6172.6	
914.37	6172.6	
914.54	6172.6	
914.7	6172.6	
914.86	6172.6	
915.03	6172.6	
915.19	6172.6	
