Wavelength	Intensities	
nm	a.u.	
179.22	1841.6	
179.44	1849.7	
179.65	1833.6	
179.86	1865.7	
180.08	1822	
180.29	4618.9	
180.51	3389.4	
180.72	5487.2	
180.94	6308.4	
181.15	3091.8	
181.37	3053.5	
181.58	5344.5	
181.79	5599.1	
182.01	3233.7	
182.22	3494.5	
182.44	5609.4	
182.65	4726	
182.87	4307.6	
183.08	3793.5	
183.29	5930.9	
183.51	4877.6	
183.72	3506.1	
183.94	5079	
184.15	5227.1	
184.37	5285.8	
184.58	3074	
184.79	4199.7	
185.01	4887.1	
185.22	5566.4	
185.44	4472.8	
185.65	3789.4	
185.86	5156.1	
186.08	4764.3	
186.29	2990.7	
186.51	3207.8	
186.72	4930.1	
186.94	5734.3	
187.15	3751.2	
187.36	3844.7	
187.58	7472.4	
187.79	5347.2	
188.01	3955.3	
188.22	6192.4	
188.43	6391.7	
188.65	5576.6	
188.86	3225.6	
189.08	3878.9	
189.29	5063.3	
189.5	5067.4	
189.72	3555.3	
189.93	3599	
190.15	5776	
190.36	6876.4	
190.57	3941	
190.79	3756	
191	5821	
191.22	5786.2	
191.43	3934.8	
191.64	3220.1	
191.86	5857.9	
192.07	5863.3	
192.29	3391.4	
192.5	3544.4	
192.71	5789.6	
192.93	5040.1	
193.14	3595.6	
193.35	3604.4	
193.57	5019.6	
193.78	5746.6	
194	2859	
194.21	3486.3	
194.42	4813.4	
194.64	5273.5	
194.85	3807.2	
195.07	4487.1	
195.28	5328.1	
195.49	4560.1	
195.71	4687.1	
195.92	3368.9	
196.13	5426.4	
196.35	5558.9	
196.56	5008.6	
196.78	3859.1	
196.99	6763.8	
197.2	6341.9	
197.42	4326.7	
197.63	3940.3	
197.84	4706.2	
198.06	5450.3	
198.27	3529.3	
198.48	4745.8	
198.7	5004.6	
198.91	5172.5	
199.13	3902.7	
199.34	3870	
199.55	5639.4	
199.77	4583.4	
199.98	3411.9	
200.19	3910.3	
200.41	5126.7	
200.62	4853.7	
200.83	4071.4	
201.05	4329.4	
201.26	5184.1	
201.47	4859.8	
201.69	3454.9	
201.9	3347.1	
202.11	5248.9	
202.33	6163	
202.54	3675.4	
202.76	4065.2	
202.97	5369.1	
203.18	5374.6	
203.4	3998.3	
203.61	3898.6	
203.82	5294.7	
204.04	4957.4	
204.25	3894.6	
204.46	3807.9	
204.68	5235.3	
204.89	5463.3	
205.1	3766.9	
205.32	3274.7	
205.53	5564.3	
205.74	5799.8	
205.96	2837.1	
206.17	3975.8	
206.38	5610.8	
206.6	5742.5	
206.81	4375.8	
207.02	3616	
207.24	5516.5	
207.45	5844.2	
207.66	3681.6	
207.88	3218	
208.09	5406	
208.3	5268.1	
208.52	3426.3	
208.73	3743.7	
208.94	5233.9	
209.15	5942.5	
209.37	3730.7	
209.58	3899.3	
209.79	5751.4	
210.01	5074.9	
210.22	3017.3	
210.43	3151.1	
210.65	5277.6	
210.86	5625.1	
211.07	3707.5	
211.29	3381.2	
211.5	5551.4	
211.71	5197.7	
211.93	3457	
212.14	3429.7	
212.35	5135.6	
212.56	5369.1	
212.78	3919.1	
212.99	3270.6	
213.2	6120.7	
213.42	5031.2	
213.63	3521.8	
213.84	3784.6	
214.06	4655	
214.27	4786.1	
214.48	3675.4	
214.69	3952.6	
214.91	5896.1	
215.12	5973.9	
215.33	3956	
215.55	4369	
215.76	6417	
215.97	5602.6	
216.18	3822.2	
216.4	3712.3	
216.61	4968.4	
216.82	5741.8	
217.04	3445.4	
217.25	3555.3	
217.46	5853.1	
217.67	5651	
217.89	3080.8	
218.1	3203	
218.31	5271.5	
218.53	5457.2	
218.74	3575.1	
218.95	3465.2	
219.16	5226.4	
219.38	6085.2	
219.59	3515.7	
219.8	4151.2	
220.01	6748.7	
220.23	5299.5	
220.44	4465.3	
220.65	3389.4	
220.87	5236	
221.08	5871.5	
221.29	3175.7	
221.5	4207.2	
221.72	7114.6	
221.93	4941.1	
222.14	3985.3	
222.35	4606.6	
222.57	5263.3	
222.78	5606.7	
222.99	3751.2	
223.2	3958.7	
223.42	5535.7	
223.63	5735.7	
223.84	2897.2	
224.05	2896.5	
224.27	6698.2	
224.48	6066.8	
224.69	4611.3	
224.9	3933.5	
225.12	5441.5	
225.33	5203.2	
225.54	3138.9	
225.75	3461.7	
225.97	4841.4	
226.18	5080.3	
226.39	3708.9	
226.6	3490.4	
226.82	5044.1	
227.03	4850.3	
227.24	3872.7	
227.45	3229.6	
227.67	5620.3	
227.88	6096.1	
228.09	4272.1	
228.3	4310.3	
228.52	5676.3	
228.73	5185.5	
228.94	3541.6	
229.15	3193.5	
229.36	5165	
229.58	5114.5	
229.79	3667.2	
230	4205.8	
230.21	6258.6	
230.43	5338.4	
230.64	3864.5	
230.85	3965.6	
231.06	5625.8	
231.28	5647.6	
231.49	3218	
231.7	3810.6	
231.91	5604.6	
232.12	5300.8	
232.34	3306.8	
232.55	3746.4	
232.76	5874.3	
232.97	5436	
233.18	3392.8	
233.4	3886.4	
233.61	5451	
233.82	5028.4	
234.03	3582.6	
234.25	3573.7	
234.46	7221.8	
234.67	5274.9	
234.88	3984.7	
235.09	3444	
235.31	5549.3	
235.52	5160.9	
235.73	3844.7	
235.94	3292.5	
236.15	4979.3	
236.37	6368.5	
236.58	3382.6	
236.79	3705.5	
237	5485.8	
237.21	4769	
237.43	3978.5	
237.64	3095.2	
237.85	9297.8	
238.06	4859.1	
238.27	4033.1	
238.48	3267.2	
238.7	5593.7	
238.91	5129.5	
239.12	3689.8	
239.33	3756.7	
239.54	4905.6	
239.76	5119.9	
239.97	3687	
240.18	3682.9	
240.39	6505	
240.6	5513.8	
240.82	3795.6	
241.03	3205.8	
241.24	5238.7	
241.45	6028.5	
241.66	3388	
241.87	4036.5	
242.09	5945.9	
242.3	6320	
242.51	4042.7	
242.72	3698.6	
242.93	5699.5	
243.14	5197.1	
243.36	4360.1	
243.57	4628.4	
243.78	5986.9	
243.99	5579.3	
244.2	3786.7	
244.41	3396.9	
244.63	4837.3	
244.84	5535	
245.05	4029	
245.26	3704.8	
245.47	5517.9	
245.68	5788.9	
245.9	4912.4	
246.11	3943	
246.32	5065.3	
246.53	5485.1	
246.74	6029.9	
246.95	3104.7	
247.16	4786.8	
247.38	5285.1	
247.59	3117	
247.8	3736.2	
248.01	4930.8	
248.22	5180	
248.43	3394.8	
248.64	3659	
248.86	4677.6	
249.07	5008	
249.28	3274	
249.49	3848.8	
249.7	5774.6	
249.91	5961.6	
250.12	3126.6	
250.34	3218.7	
250.55	5350.7	
250.76	5205.9	
250.97	3801.7	
251.18	3934.8	
251.39	5888.6	
251.6	5461.2	
251.81	3972.4	
252.03	3858.4	
252.24	4998.4	
252.45	5752.1	
252.66	3265.1	
252.87	4113.7	
253.08	5306.3	
253.29	6836.1	
253.5	3275.4	
253.72	4519.9	
253.93	5106.3	
254.14	6250.4	
254.35	3495.2	
254.56	3699.3	
254.77	5497.4	
254.98	4848.9	
255.19	3533.4	
255.41	4461.8	
255.62	5347.9	
255.83	5871.5	
256.04	3990.1	
256.25	3897.3	
256.46	6456.6	
256.67	4972.5	
256.88	3842.7	
257.09	4209.3	
257.31	4929.5	
257.52	4970.4	
257.73	4751.3	
257.94	3487	
258.15	5103.5	
258.36	5221	
258.57	4398.4	
258.78	2835.1	
258.99	5707.7	
259.2	5117.2	
259.41	3547.8	
259.63	3596.9	
259.84	6049.7	
260.05	6444.3	
260.26	4651.6	
260.47	3452.2	
260.68	5772.5	
260.89	5188.9	
261.1	4282.3	
261.31	3388.7	
261.52	5788.9	
261.73	6221	
261.95	4584	
262.16	4021.5	
262.37	5913.9	
262.58	6061.3	
262.79	4562.9	
263	3618.8	
263.21	5240.1	
263.42	5160.9	
263.63	3672	
263.84	3610.6	
264.05	5785.5	
264.26	6107.7	
264.47	4496	
264.69	4041.3	
264.9	5905	
265.11	5475.6	
265.32	3427.6	
265.53	3505.4	
265.74	5358.2	
265.95	4710.3	
266.16	3812	
266.37	4178.5	
266.58	5404.6	
266.79	5089.9	
267	3517	
267.21	3308.8	
267.42	4849.6	
267.63	5218.9	
267.84	3708.2	
268.06	3173	
268.27	5673.6	
268.48	5980.8	
268.69	3579.8	
268.9	4304.1	
269.11	5922.7	
269.32	4806.6	
269.53	3759.4	
269.74	3423.5	
269.95	5515.2	
270.16	4668.7	
270.37	3708.2	
270.58	4310.3	
270.79	5100.8	
271	5743.9	
271.21	3928	
271.42	3773.7	
271.63	5387.5	
271.84	4945.2	
272.05	2973.7	
272.26	3357.3	
272.47	5280.3	
272.68	5479.7	
272.89	3566.9	
273.11	4192.9	
273.32	5051	
273.53	6225.1	
273.74	4054.3	
273.95	3932.8	
274.16	5824.4	
274.37	5309	
274.58	4132.8	
274.79	3274.7	
275	5401.2	
275.21	5849	
275.42	4879.6	
275.63	4182.6	
275.84	5483.8	
276.05	6909.2	
276.26	3925.3	
276.47	3674.7	
276.68	5113.1	
276.89	6244.3	
277.1	4228.4	
277.31	3284.9	
277.52	5512.4	
277.73	5685.8	
277.94	3224.2	
278.15	3586.7	
278.36	5385.5	
278.57	4900.1	
278.78	3538.2	
278.99	3994.9	
279.2	4868.7	
279.41	4852.3	
279.62	4675.5	
279.83	3340.2	
280.04	6401.3	
280.25	4811.4	
280.46	4672.1	
280.67	3747.8	
280.88	4858.5	
281.09	5818.3	
281.3	3927.3	
281.51	5004.6	
281.72	5017.5	
281.93	5766.4	
282.14	3497.2	
282.35	3783.3	
282.56	5733.6	
282.77	5666.7	
282.98	3631.7	
283.19	4374.5	
283.4	6927.6	
283.61	5197.7	
283.82	3334.1	
284.03	4618.9	
284.24	5401.9	
284.45	5848.3	
284.66	4632.5	
284.87	4359.4	
285.08	5853.8	
285.29	5950	
285.5	3132	
285.71	3654.3	
285.92	5824.4	
286.12	6517.3	
286.33	4629.8	
286.54	3637.2	
286.75	5746.6	
286.96	5120.6	
287.17	3388	
287.38	4467.3	
287.59	4987.5	
287.8	4891.2	
288.01	3643.3	
288.22	4156.7	
288.43	5733.6	
288.64	4798.4	
288.85	4364.9	
289.06	4132.8	
289.27	5665.4	
289.48	6145.3	
289.69	4637.3	
289.9	4209.3	
290.11	5889.3	
290.32	4990.2	
290.53	4418.2	
290.74	4037.2	
290.94	5719.3	
291.15	5752.1	
291.36	3562.8	
291.57	4190.1	
291.78	5040.7	
291.99	4727.4	
292.2	3369.6	
292.41	4018.1	
292.62	5750	
292.83	5612.8	
293.04	5005.2	
293.25	3389.4	
293.46	5081.7	
293.67	5757.5	
293.88	3525.9	
294.09	3359.4	
294.29	4859.8	
294.5	5393.7	
294.71	3767.6	
294.92	3635.1	
295.13	5104.2	
295.34	6386.9	
295.55	3132.7	
295.76	3288.4	
295.97	5660.6	
296.18	6391	
296.39	3312.2	
296.6	3530	
296.81	5346.6	
297.01	5646.9	
297.22	3663.1	
297.43	3506.1	
297.64	4943.8	
297.85	4917.2	
298.06	2876	
298.27	3173	
298.48	5279	
298.69	5000.5	
298.9	3787.4	
299.11	3416	
299.31	4837.3	
299.52	4829.1	
299.73	4091.8	
299.94	4024.9	
300.15	5277.6	
300.36	4889.2	
300.57	3947.1	
300.78	3907.5	
300.99	5140.4	
301.2	5345.9	
301.4	3459	
301.61	3786.7	
301.82	5603.2	
302.03	5624.4	
302.24	4222.9	
302.45	3336.1	
302.66	5524.7	
302.87	5878.4	
303.08	3495.9	
303.29	4799.8	
303.49	5059.8	
303.7	5263.3	
303.91	3134.8	
304.12	4595.6	
304.33	4792.9	
304.54	5451.7	
304.75	3515	
304.96	3353.2	
305.16	5579.3	
305.37	6300.2	
305.58	3070.6	
305.79	3182.5	
306	5556.8	
306.21	4701.5	
306.42	3528.7	
306.63	5388.9	
306.83	5128.1	
307.04	5835.3	
307.25	3902.1	
307.46	3818.8	
307.67	4546.5	
307.88	5638.7	
308.09	3470.6	
308.29	3579.8	
308.5	5357.5	
308.71	5822.4	
308.92	3745.1	
309.13	3400.3	
309.34	5122.7	
309.55	5231.2	
309.75	4376.5	
309.96	3991.5	
310.17	5635.3	
310.38	4978.6	
310.59	4163.5	
310.8	3240.6	
311.01	5186.8	
311.21	5177.9	
311.42	3327.9	
311.63	3435.8	
311.84	5020.9	
312.05	5390.3	
312.26	3935.5	
312.46	4225	
312.67	5108.3	
312.88	4854.4	
313.09	3418.7	
313.3	3325.2	
313.51	6015.6	
313.71	6341.2	
313.92	3389.4	
314.13	3521.1	
314.34	5441.5	
314.55	5175.2	
314.76	4362.2	
314.96	3773	
315.17	5380	
315.38	5649	
315.59	3435.8	
315.8	3261	
316.01	6047	
316.21	6094.8	
316.42	3279.5	
316.63	3781.9	
316.84	5163.6	
317.05	5941.2	
317.26	3999	
317.46	3574.4	
317.67	5242.1	
317.88	5606.7	
318.09	4360.8	
318.3	3193.5	
318.5	5051	
318.71	5517.9	
318.92	5457.8	
319.13	4007.2	
319.34	5739.1	
319.54	5864.7	
319.75	3200.3	
319.96	3058.3	
320.17	5637.4	
320.38	5847.6	
320.58	3084.2	
320.79	3702	
321	5820.3	
321.21	5861.3	
321.42	3777.1	
321.62	3130.7	
321.83	4876.9	
322.04	5283.1	
322.25	3624.2	
322.46	3407.1	
322.66	5397.1	
322.87	5543.9	
323.08	4212	
323.29	3326.6	
323.5	6240.8	
323.7	4864.6	
323.91	4558.1	
324.12	4177.9	
324.33	5320.6	
324.53	5571.2	
324.74	3966.2	
324.95	4182.6	
325.16	4683.7	
325.37	5089.9	
325.57	3372.3	
325.78	3465.2	
325.99	5303.6	
326.2	4783.4	
326.4	4928.1	
326.61	3149.8	
326.82	5210	
327.03	5398.4	
327.24	4810	
327.44	4526.7	
327.65	5498.1	
327.86	4456.4	
328.07	3997.6	
328.27	3250.8	
328.48	5967.1	
328.69	4921.3	
328.9	4840	
329.1	3654.9	
329.31	5185.5	
329.52	6082.5	
329.73	3383.2	
329.93	3837.9	
330.14	5230.5	
330.35	5483.1	
330.56	5572.5	
330.76	4197	
330.97	5115.8	
331.18	5436.7	
331.39	3785.3	
331.59	3079.5	
331.8	5838.8	
332.01	5967.8	
332.22	3467.2	
332.42	4000.4	
332.63	5381.4	
332.84	4981.3	
333.05	3817.4	
333.25	3461.1	
333.46	5066	
333.67	5270.8	
333.88	3602.4	
334.08	3923.2	
334.29	6939.9	
334.5	5836.7	
334.7	3311.6	
334.91	4833.9	
335.12	4853.7	
335.33	5625.8	
335.53	3766.2	
335.74	5536.3	
335.95	5080.3	
336.16	4926.7	
336.36	3759.4	
336.57	4364.2	
336.78	4797	
336.98	5799.2	
337.19	4611.3	
337.4	3711.6	
337.61	6376	
337.81	4821.6	
338.02	3474	
338.23	4435.2	
338.43	6058.6	
338.64	4988.9	
338.85	3431	
339.05	4478.9	
339.26	6066.1	
339.47	4730.1	
339.68	3397.6	
339.88	5027.8	
340.09	5530.2	
340.3	5745.2	
340.5	3969.6	
340.71	3066.5	
340.92	4800.4	
341.13	5988.3	
341.33	3313.6	
341.54	4011.3	
341.75	5445.5	
341.95	5141.1	
342.16	3874.8	
342.37	4115.7	
342.57	4880.3	
342.78	5206.6	
342.99	4239.3	
343.19	3074.7	
343.4	5607.3	
343.61	5524.1	
343.81	3708.2	
344.02	3375.1	
344.23	5643.5	
344.43	6027.2	
344.64	4287.1	
344.85	4170.3	
345.06	5593.7	
345.26	5862	
345.47	3936.2	
345.68	4551.3	
345.88	4698.7	
346.09	5699.5	
346.3	3991.5	
346.5	3079.5	
346.71	5287.2	
346.92	5007.3	
347.12	3173	
347.33	3906.2	
347.54	5741.8	
347.74	6159.6	
347.95	3845.4	
348.16	2942.9	
348.36	5147.2	
348.57	4941.7	
348.78	3879.5	
348.98	4200.4	
349.19	5231.2	
349.39	4828.4	
349.6	3124.5	
349.81	3478.8	
350.01	5542.5	
350.22	4976.6	
350.43	3812.6	
350.63	4536.3	
350.84	5313.8	
351.05	5060.5	
351.25	3476.8	
351.46	3093.8	
351.67	5756.2	
351.87	4999.8	
352.08	3714.3	
352.29	4192.9	
352.49	5674.9	
352.7	5803.3	
352.9	3317	
353.11	4156	
353.32	6358.3	
353.52	5137	
353.73	3300.6	
353.94	4259.8	
354.14	5550.7	
354.35	5384.8	
354.55	3421.5	
354.76	3801.7	
354.97	5558.2	
355.17	5292	
355.38	3219.4	
355.59	4425	
355.79	4967	
356	5398.4	
356.2	3855.6	
356.41	3306.1	
356.62	4749.2	
356.82	5271.5	
357.03	4045.4	
357.24	3677.5	
357.44	5027.1	
357.65	5119.2	
357.85	4842.1	
358.06	3840.6	
358.27	4782	
358.47	5006.6	
358.68	3207.1	
358.88	4050.9	
359.09	5621.7	
359.3	5938.4	
359.5	4797.7	
359.71	4222.2	
359.91	6341.9	
360.12	5705.6	
360.33	4067.3	
360.53	4511	
360.74	5063.3	
360.94	5120.6	
361.15	4304.8	
361.36	3573.7	
361.56	5907.7	
361.77	5281	
361.97	4790.9	
362.18	3803.1	
362.38	5913.2	
362.59	5020.3	
362.8	3523.2	
363	3370.3	
363.21	4848.2	
363.41	5434.6	
363.62	4020.8	
363.83	5046.2	
364.03	5525.4	
364.24	6500.3	
364.44	5123.3	
364.65	5036.6	
364.85	5275.6	
365.06	5018.9	
365.27	3741	
365.47	3770.3	
365.68	6297.5	
365.88	5315.8	
366.09	4150.6	
366.29	3908.9	
366.5	5572.5	
366.71	6019	
366.91	5104.9	
367.12	4340.3	
367.32	6582.9	
367.53	5868.8	
367.73	4273.4	
367.94	5294	
368.14	5902.9	
368.35	6718	
368.56	4271.4	
368.76	3698.6	
368.97	5902.2	
369.17	7550.9	
369.38	3762.1	
369.58	4058.4	
369.79	5035.3	
369.99	6300.9	
370.2	4959.5	
370.4	4168.3	
370.61	5707	
370.82	6825.2	
371.02	4076.1	
371.23	3451.5	
371.43	5000.5	
371.64	6247.7	
371.84	4095.3	
372.05	5302.9	
372.25	7563.8	
372.46	6037.4	
372.66	4151.9	
372.87	4093.2	
373.07	6095.4	
373.28	7595.9	
373.48	5141.8	
373.69	4861.2	
373.9	5653.1	
374.1	5725.4	
374.31	5165.7	
374.51	4702.1	
374.72	6514.6	
374.92	5446.9	
375.13	5352	
375.33	4543.8	
375.54	6179.4	
375.74	5657.2	
375.95	4674.1	
376.15	5910.4	
376.36	6202.6	
376.56	6029.2	
376.77	4864.6	
376.97	5208	
377.18	7301.7	
377.38	6460.7	
377.59	5586.2	
377.79	4427	
378	6217	
378.2	6670.2	
378.41	4519.9	
378.61	4438.6	
378.82	6694.1	
379.02	5893.4	
379.23	4685.8	
379.43	5722.7	
379.64	6789.7	
379.84	6445	
380.05	4516.5	
380.25	4451.6	
380.46	6401.3	
380.66	6056.5	
380.87	5672.2	
381.07	6076.3	
381.28	7019.1	
381.48	6539.2	
381.69	4461.8	
381.89	4499.4	
382.1	5453.1	
382.3	6617	
382.51	5510.4	
382.71	6371.2	
382.91	6395.8	
383.12	6929.6	
383.32	4780.6	
383.53	4982	
383.73	6217	
383.94	6113.2	
384.14	4875.5	
384.35	4091.8	
384.55	5940.5	
384.76	6416.3	
384.96	4697.4	
385.17	5022.3	
385.37	6358.3	
385.58	5670.1	
385.78	5068.7	
385.98	3955.3	
386.19	5838.1	
386.39	6238.1	
386.6	4573.1	
386.8	4740.4	
387.01	6422.4	
387.21	6445	
387.42	5160.9	
387.62	5710.4	
387.83	5801.9	
388.03	6358.3	
388.23	4863.9	
388.44	5694	
388.64	5485.8	
388.85	5698.1	
389.05	5233.2	
389.26	5902.9	
389.46	7514.7	
389.67	6893.5	
389.87	5250.3	
390.07	5331.5	
390.28	6105	
390.48	5748.6	
390.69	4571.1	
390.89	4835.9	
391.1	5936.4	
391.3	6887.3	
391.5	6057.2	
391.71	6579.4	
391.91	6611.5	
392.12	7550.9	
392.32	6077	
392.53	5289.2	
392.73	6027.9	
392.93	6115.2	
393.14	4958.1	
393.34	5696.1	
393.55	6674.3	
393.75	6054.5	
393.95	4873.5	
394.16	4829.1	
394.36	5926.8	
394.57	6500.9	
394.77	4465.9	
394.98	4866	
395.18	5995.1	
395.38	6092	
395.59	5799.8	
395.79	4833.2	
396	6221	
396.2	6786.3	
396.4	5649.7	
396.61	5683.1	
396.81	6901.7	
397.02	6225.1	
397.22	5974.6	
397.42	6040.1	
397.63	6924.2	
397.83	6264.7	
398.04	4958.1	
398.24	5488.6	
398.44	6711.2	
398.65	5842.2	
398.85	4817.5	
399.05	4999.1	
399.26	6286.6	
399.46	7952.3	
399.67	5384.8	
399.87	5135.6	
400.07	6703	
400.28	7091.4	
400.48	5256.5	
400.69	6311.2	
400.89	7333.1	
401.09	7703.1	
401.3	5234.6	
401.5	6354.8	
401.7	8042.4	
401.91	8254.7	
402.11	5621.7	
402.32	5752.7	
402.52	7240.9	
402.72	7123.5	
402.93	5863.3	
403.13	4723.3	
403.33	7790.5	
403.54	6404.7	
403.74	5346.6	
403.94	6067.4	
404.15	6617	
404.35	7709.2	
404.56	5289.9	
404.76	7064.1	
404.96	7200	
405.17	6927.6	
405.37	6813.6	
405.57	5865.4	
405.78	7250.5	
405.98	6657.3	
406.18	5363.6	
406.39	6187.6	
406.59	7059.3	
406.79	6685.9	
407	5025	
407.2	5149.3	
407.4	7304.4	
407.61	7456	
407.81	5350.7	
408.01	7528.3	
408.22	6455.9	
408.42	8412.4	
408.62	6689.3	
408.83	6233.3	
409.03	7340.6	
409.23	7219.8	
409.44	6469.5	
409.64	6788.3	
409.84	8458.8	
410.05	8305.9	
410.25	6725.5	
410.45	6462	
410.66	7961.8	
410.86	10301	
411.06	7143.3	
411.27	6928.3	
411.47	10405	
411.67	8299.1	
411.88	7154.9	
412.08	7602.1	
412.28	8884.1	
412.49	9402.2	
412.69	7126.9	
412.89	7192.5	
413.09	9269.1	
413.3	9159.2	
413.5	7339.2	
413.7	6969.9	
413.91	8368.7	
414.11	9371.5	
414.31	7133.1	
414.52	7736.5	
414.72	9112.8	
414.92	8970.1	
415.12	7163.8	
415.33	7643	
415.53	9373.6	
415.73	9574.9	
415.94	8099	
416.14	7520.1	
416.34	8486.1	
416.55	8213	
416.75	8757.8	
416.95	8251.3	
417.15	9517.6	
417.36	10077	
417.56	9014.5	
417.76	8225.3	
417.97	9903.3	
418.17	9737.4	
418.37	7600.7	
418.57	7886.7	
418.78	9368.1	
418.98	8968.1	
419.18	8555	
419.38	8376.2	
419.59	9094.3	
419.79	8497	
419.99	7543.4	
420.2	7905.2	
420.4	9600.9	
420.6	9654.8	
420.8	7562.5	
421.01	7288	
421.21	9453.4	
421.41	9483.5	
421.61	7847.1	
421.82	7585	
422.02	8945.5	
422.22	9661	
422.42	8370.7	
422.63	7832.8	
422.83	9113.5	
423.03	10072	
423.23	7931.1	
423.44	6969.9	
423.64	9032.9	
423.84	8625.4	
424.04	7362.4	
424.25	7039.6	
424.45	9725.1	
424.65	9683.5	
424.85	6789	
425.06	7364.5	
425.26	9757.2	
425.46	8349.6	
425.66	7687.4	
425.87	7348.8	
426.07	9478.7	
426.27	9214.5	
426.47	7473	
426.67	6879.8	
426.88	9626.8	
427.08	9126.4	
427.28	7834.8	
427.48	6856.6	
427.69	8082	
427.89	8710.7	
428.09	7656.7	
428.29	6881.2	
428.5	9349.7	
428.7	8925.7	
428.9	6849.1	
429.1	7267.6	
429.3	8864.3	
429.51	9174.9	
429.71	7122.8	
429.91	7957.7	
430.11	9291.6	
430.31	9469.1	
430.52	7469.6	
430.72	7830.7	
430.92	9723.8	
431.12	9247.9	
431.32	7164.5	
431.53	7536.5	
431.73	8156.4	
431.93	9744.2	
432.13	7040.9	
432.33	6970.6	
432.54	8661.5	
432.74	9036.3	
432.94	7008.1	
433.14	7902.4	
433.34	9241.1	
433.55	8873.2	
433.75	7912.7	
433.95	9708.7	
434.15	9089.6	
434.35	8860.2	
434.56	7228	
434.76	6783.6	
434.96	9136.7	
435.16	9382.4	
435.36	7090.8	
435.56	8314.1	
435.77	8845.2	
435.97	9107.3	
436.17	9028.8	
436.37	8329.8	
436.57	8951	
436.78	8886.8	
436.98	9799.5	
437.18	8789.9	
437.38	9574.9	
437.58	9005.6	
437.78	8777.6	
437.99	7499	
438.19	9254.1	
438.39	10123	
438.59	7391.8	
438.79	6836.8	
438.99	9994.8	
439.2	8929.1	
439.4	7043	
439.6	7112.6	
439.8	9352.4	
440	10487	
440.2	8209.6	
440.4	8424	
440.61	9932	
440.81	10479	
441.01	7653.3	
441.21	8456.1	
441.41	10396	
441.61	9970.9	
441.81	8852.7	
442.02	9702.6	
442.22	10765	
442.42	10092	
442.62	7765.9	
442.82	7681.9	
443.02	10389	
443.22	9590	
443.43	8189.8	
443.63	7856	
443.83	9329.9	
444.03	9430.9	
444.23	9065.7	
444.43	8632.2	
444.63	9796.1	
444.83	10910	
445.04	8006.9	
445.24	9216.5	
445.44	9996.8	
445.64	10059	
445.84	8371.4	
446.04	8522.3	
446.24	9289.6	
446.44	10226	
446.65	7668.3	
446.85	8135.9	
447.05	9307.3	
447.25	10264	
447.45	8131.1	
447.65	7544	
447.85	9551.7	
448.05	9194.7	
448.25	8535.3	
448.46	8377.6	
448.66	9638.4	
448.86	9215.2	
449.06	7436.2	
449.26	8462.9	
449.46	10060	
449.66	9022.7	
449.86	8190.5	
450.06	8043.1	
450.26	9251.4	
450.47	9840.5	
450.67	8340	
450.87	8774.2	
451.07	9846	
451.27	9719	
451.47	7645.1	
451.67	8366	
451.87	9332.6	
452.07	10287	
452.27	7958.4	
452.47	7923.6	
452.67	9717.6	
452.88	10040	
453.08	7206.8	
453.28	9262.3	
453.48	10924	
453.68	9441.8	
453.88	7874.4	
454.08	8066.9	
454.28	10049	
454.48	9764	
454.68	8656.8	
454.88	9135.3	
455.08	10101	
455.28	10004	
455.48	7575.4	
455.68	8548.9	
455.89	10649	
456.09	10286	
456.29	8155	
456.49	8368	
456.69	10657	
456.89	9842.5	
457.09	8799.4	
457.29	9177.6	
457.49	10316	
457.69	10541	
457.89	8857.5	
458.09	8185.7	
458.29	10084	
458.49	10873	
458.69	9185.1	
458.89	8708.6	
459.09	11069	
459.29	11151	
459.49	8747.6	
459.69	9414.5	
459.9	10637	
460.1	10273	
460.3	8598.1	
460.5	8398	
460.7	10613	
460.9	10350	
461.1	8181.6	
461.3	9511.4	
461.5	11360	
461.7	10960	
461.9	8729.8	
462.1	9136.7	
462.3	10651	
462.5	11174	
462.7	8793.3	
462.9	9090.3	
463.1	12353	
463.3	11985	
463.5	9220.6	
463.7	10232	
463.9	11103	
464.1	11339	
464.3	9587.9	
464.5	9682.8	
464.7	11733	
464.9	11411	
465.1	11091	
465.3	10061	
465.5	11945	
465.7	12058	
465.9	10448	
466.1	10088	
466.3	11923	
466.5	11662	
466.7	11129	
466.9	10015	
467.1	11860	
467.3	12611	
467.5	11280	
467.7	10139	
467.9	12970	
468.1	13923	
468.3	10808	
468.5	11310	
468.7	11814	
468.9	11734	
469.1	10546	
469.3	11214	
469.5	13791	
469.7	11536	
469.9	10867	
470.1	10191	
470.3	11887	
470.5	11983	
470.7	11376	
470.9	10204	
471.1	11756	
471.3	11997	
471.5	10204	
471.69	11869	
471.89	11467	
472.09	11052	
472.29	10774	
472.49	10765	
472.69	11314	
472.89	11985	
473.09	10015	
473.29	9919	
473.49	11354	
473.69	11312	
473.89	10956	
474.09	10096	
474.29	12532	
474.49	12292	
474.69	10953	
474.89	10269	
475.09	11437	
475.29	11454	
475.49	9670.5	
475.69	9898.5	
475.88	12800	
476.08	11569	
476.28	9559.2	
476.48	9833	
476.68	11937	
476.88	11872	
477.08	9639.8	
477.28	10041	
477.48	11202	
477.68	11852	
477.88	9592.7	
478.08	9858.2	
478.28	12299	
478.48	11414	
478.67	9994.1	
478.87	9241.1	
479.07	12132	
479.27	11425	
479.47	10086	
479.67	10034	
479.87	11912	
480.07	12591	
480.27	9365.4	
480.47	10817	
480.67	11557	
480.87	12241	
481.06	9574.3	
481.26	10387	
481.46	11538	
481.66	11431	
481.86	10060	
482.06	11009	
482.26	11225	
482.46	12108	
482.66	9923.8	
482.86	9548.3	
483.05	11560	
483.25	10982	
483.45	12457	
483.65	9973.6	
483.85	11127	
484.05	11422	
484.25	10275	
484.45	11007	
484.65	12327	
484.84	12497	
485.04	10031	
485.24	9987.9	
485.44	12629	
485.64	10990	
485.84	9417.2	
486.04	10646	
486.24	11412	
486.44	11733	
486.63	9355.1	
486.83	10173	
487.03	11296	
487.23	11660	
487.43	9485.5	
487.63	11842	
487.83	11706	
488.02	12585	
488.22	10535	
488.42	11112	
488.62	12407	
488.82	11408	
489.02	10190	
489.22	10236	
489.41	12197	
489.61	12026	
489.81	9922.4	
490.01	9848	
490.21	12286	
490.41	12945	
490.61	9921.7	
490.8	10056	
491	11689	
491.2	10928	
491.4	10378	
491.6	9489.6	
491.8	11521	
491.99	11674	
492.19	9352.4	
492.39	9704.6	
492.59	12236	
492.79	12366	
492.99	10727	
493.18	9934	
493.38	12497	
493.58	13241	
493.78	10841	
493.98	10297	
494.18	12221	
494.37	11808	
494.57	11110	
494.77	11035	
494.97	12750	
495.17	13034	
495.37	10797	
495.56	11108	
495.76	13162	
495.96	12852	
496.16	11929	
496.36	10922	
496.55	13007	
496.75	12652	
496.95	11274	
497.15	11139	
497.35	13011	
497.54	13106	
497.74	10817	
497.94	12692	
498.14	13855	
498.34	13588	
498.53	10860	
498.73	11474	
498.93	12557	
499.13	13205	
499.33	11493	
499.52	11945	
499.72	13215	
499.92	13321	
500.12	11124	
500.32	11228	
500.51	13364	
500.71	13287	
500.91	12142	
501.11	11862	
501.31	13296	
501.5	13727	
501.7	12443	
501.9	11419	
502.1	13087	
502.29	13398	
502.49	11850	
502.69	12174	
502.89	13283	
503.09	13280	
503.28	10632	
503.48	10894	
503.68	12370	
503.88	12521	
504.07	11753	
504.27	11163	
504.47	12775	
504.67	12800	
504.86	11528	
505.06	11265	
505.26	12320	
505.46	14063	
505.65	10990	
505.85	11315	
506.05	12288	
506.25	12602	
506.44	10402	
506.64	11241	
506.84	11995	
507.04	13051	
507.23	10558	
507.43	11060	
507.63	13927	
507.83	12259	
508.02	11151	
508.22	10631	
508.42	14092	
508.62	12028	
508.81	11123	
509.01	11561	
509.21	11860	
509.4	12288	
509.6	11151	
509.8	10615	
510	12267	
510.19	13544	
510.39	10460	
510.59	10587	
510.79	11958	
510.98	13395	
511.18	10593	
511.38	10701	
511.57	12721	
511.77	12508	
511.97	11314	
512.17	10262	
512.36	12639	
512.56	12596	
512.76	10285	
512.95	9973.6	
513.15	12855	
513.35	11462	
513.55	11144	
513.74	10294	
513.94	12772	
514.14	12040	
514.33	11161	
514.53	10994	
514.73	12033	
514.92	12235	
515.12	10458	
515.32	10404	
515.51	12269	
515.71	12811	
515.91	12081	
516.11	10417	
516.3	13863	
516.5	11983	
516.7	10794	
516.89	11365	
517.09	12020	
517.29	11964	
517.48	11099	
517.68	10711	
517.88	11745	
518.07	12284	
518.27	11064	
518.47	10115	
518.66	12894	
518.86	11499	
519.06	9945.6	
519.25	10426	
519.45	11858	
519.65	13390	
519.84	11096	
520.04	11704	
520.24	13575	
520.43	12420	
520.63	10557	
520.83	10360	
521.02	11583	
521.22	12067	
521.42	10799	
521.61	11357	
521.81	11695	
522.01	11992	
522.2	10800	
522.4	10533	
522.6	12430	
522.79	11298	
522.99	10610	
523.18	10010	
523.38	12265	
523.58	12292	
523.77	12026	
523.97	10199	
524.17	14189	
524.36	13334	
524.56	11586	
524.76	11168	
524.95	12461	
525.15	12084	
525.34	10966	
525.54	11177	
525.74	12932	
525.93	11849	
526.13	12161	
526.33	11073	
526.52	13257	
526.72	12762	
526.91	12188	
527.11	11617	
527.31	13325	
527.5	13817	
527.7	11580	
527.89	10573	
528.09	12399	
528.29	13077	
528.48	11983	
528.68	11572	
528.87	13306	
529.07	13240	
529.27	11412	
529.46	10930	
529.66	12930	
529.85	13224	
530.05	10714	
530.25	11447	
530.44	14177	
530.64	12702	
530.83	11201	
531.03	11534	
531.23	13310	
531.42	13129	
531.62	12305	
531.81	11466	
532.01	13422	
532.21	13939	
532.4	11316	
532.6	11744	
532.79	14335	
532.99	13661	
533.18	11847	
533.38	12681	
533.58	13298	
533.77	13880	
533.97	11844	
534.16	12565	
534.36	14242	
534.55	13355	
534.75	12814	
534.95	11863	
535.14	14083	
535.34	13199	
535.53	11466	
535.73	13271	
535.92	14418	
536.12	13341	
536.31	11592	
536.51	12719	
536.71	13638	
536.9	13186	
537.1	11738	
537.29	11822	
537.49	14028	
537.68	13087	
537.88	12159	
538.07	11388	
538.27	13310	
538.46	14399	
538.66	11362	
538.86	11777	
539.05	13464	
539.25	13757	
539.44	12179	
539.64	11665	
539.83	13125	
540.03	14169	
540.22	11473	
540.42	11450	
540.61	13391	
540.81	13512	
541	12083	
541.2	12624	
541.39	12815	
541.59	13188	
541.78	12275	
541.98	11336	
542.18	12541	
542.37	12437	
542.57	11600	
542.76	12074	
542.96	12448	
543.15	13059	
543.35	11587	
543.54	10962	
543.74	13218	
543.93	12867	
544.13	11377	
544.32	12512	
544.52	13082	
544.71	12364	
544.91	10656	
545.1	11658	
545.3	12499	
545.49	13060	
545.69	10456	
545.88	11075	
546.08	13929	
546.27	13435	
546.47	11480	
546.66	10869	
546.86	13158	
547.05	13717	
547.24	11011	
547.44	10897	
547.63	12182	
547.83	13234	
548.02	11154	
548.22	11458	
548.41	11964	
548.61	13271	
548.8	10687	
549	10776	
549.19	12407	
549.39	12901	
549.58	10413	
549.78	10897	
549.97	12733	
550.17	12248	
550.36	11512	
550.55	12566	
550.75	12207	
550.94	13076	
551.14	10518	
551.33	10790	
551.53	11587	
551.72	12531	
551.92	10835	
552.11	10495	
552.31	12561	
552.5	12542	
552.69	12181	
552.89	10166	
553.08	12388	
553.28	12074	
553.47	10583	
553.67	11538	
553.86	13064	
554.06	11413	
554.25	9592.7	
554.44	10320	
554.64	13672	
554.83	13255	
555.03	10181	
555.22	10473	
555.42	12518	
555.61	12136	
555.8	10290	
556	10593	
556.19	11416	
556.39	12549	
556.58	10322	
556.78	10315	
556.97	12076	
557.16	11813	
557.36	11479	
557.55	9957.2	
557.75	11039	
557.94	12826	
558.13	10004	
558.33	9813.2	
558.52	12523	
558.72	11505	
558.91	9805	
559.1	10165	
559.3	11146	
559.49	10877	
559.69	9405.6	
559.88	10413	
560.07	11847	
560.27	12366	
560.46	10619	
560.66	10634	
560.85	11669	
561.04	10755	
561.24	9768.1	
561.43	9878	
561.63	11097	
561.82	11300	
562.01	11055	
562.21	10253	
562.4	11891	
562.59	12789	
562.79	10142	
562.98	9832.3	
563.18	11711	
563.37	13127	
563.56	10681	
563.76	9776.3	
563.95	11226	
564.14	11187	
564.34	10079	
564.53	9787.9	
564.73	11785	
564.92	12009	
565.11	10300	
565.31	9650.7	
565.5	12260	
565.69	11292	
565.89	9871.9	
566.08	10222	
566.27	12084	
566.47	12637	
566.66	10787	
566.85	9468.4	
567.05	11764	
567.24	11271	
567.44	9741.5	
567.63	11077	
567.82	11964	
568.02	11722	
568.21	9796.1	
568.4	10150	
568.6	11611	
568.79	11576	
568.98	9594.1	
569.18	9879.4	
569.37	11699	
569.56	13515	
569.76	10200	
569.95	11151	
570.14	12059	
570.34	11925	
570.53	9680.1	
570.72	9650.7	
570.91	12497	
571.11	11615	
571.3	10133	
571.49	11008	
571.69	11653	
571.88	11207	
572.07	10771	
572.27	10580	
572.46	11185	
572.65	12202	
572.85	10013	
573.04	10189	
573.23	12489	
573.43	11825	
573.62	9776.3	
573.81	10321	
574	11927	
574.2	11706	
574.39	10034	
574.58	10253	
574.78	12747	
574.97	12013	
575.16	10671	
575.36	10867	
575.55	12519	
575.74	12568	
575.93	9812.5	
576.13	10948	
576.32	11783	
576.51	12368	
576.71	10250	
576.9	11559	
577.09	12604	
577.28	12202	
577.48	10684	
577.67	9740.8	
577.86	11857	
578.05	12141	
578.25	10468	
578.44	10434	
578.63	11902	
578.83	13091	
579.02	9828.2	
579.21	11305	
579.4	12114	
579.6	11875	
579.79	10525	
579.98	12542	
580.17	12506	
580.37	12579	
580.56	9978.4	
580.75	10723	
580.94	12872	
581.14	12720	
581.33	11217	
581.52	10069	
581.71	12384	
581.91	13015	
582.1	9863.7	
582.29	10443	
582.48	11979	
582.68	11898	
582.87	10994	
583.06	10624	
583.25	12217	
583.45	12098	
583.64	11126	
583.83	11880	
584.02	11752	
584.21	12151	
584.41	11067	
584.6	10426	
584.79	11822	
584.98	12739	
585.18	10003	
585.37	9828.2	
585.56	11558	
585.75	12177	
585.94	10032	
586.14	10681	
586.33	12776	
586.52	11892	
586.71	10580	
586.91	10318	
587.1	11071	
587.29	12108	
587.48	10137	
587.67	9941.5	
587.87	11956	
588.06	11980	
588.25	11280	
588.44	10452	
588.63	11658	
588.83	12211	
589.02	9921	
589.21	9706.7	
589.4	11330	
589.59	11125	
589.78	8908	
589.98	9168.1	
590.17	10708	
590.36	11186	
590.55	8535.9	
590.74	9265	
590.94	12510	
591.13	11078	
591.32	9142.8	
591.51	8723	
591.7	11535	
591.89	10966	
592.09	8920.3	
592.28	9268.4	
592.47	10188	
592.66	12125	
592.85	8816.5	
593.05	9097.8	
593.24	10877	
593.43	11609	
593.62	9095	
593.81	9609.8	
594	10909	
594.19	11080	
594.39	8963.3	
594.58	8945.5	
594.77	11118	
594.96	11655	
595.15	8856.8	
595.34	9524.4	
595.54	11118	
595.73	10247	
595.92	8180.3	
596.11	9431.6	
596.3	11531	
596.49	10296	
596.68	9028.8	
596.88	9533.3	
597.07	11227	
597.26	10053	
597.45	8589.9	
597.64	9785.9	
597.83	10249	
598.02	10860	
598.22	8595.3	
598.41	9230.2	
598.6	10714	
598.79	10152	
598.98	8576.2	
599.17	9492.3	
599.36	10660	
599.55	11680	
599.74	10515	
599.94	10444	
600.13	11167	
600.32	9939.5	
600.51	8321.6	
600.7	8459.5	
600.89	11753	
601.08	11758	
601.27	8216.5	
601.47	9140.8	
601.66	11004	
601.85	11583	
602.04	8809	
602.23	9046.6	
602.42	10035	
602.61	10604	
602.8	8651.3	
602.99	8422.6	
603.18	10378	
603.37	10692	
603.57	9029.5	
603.76	9712.8	
603.95	11334	
604.14	10849	
604.33	8548.9	
604.52	8933.9	
604.71	10570	
604.9	10185	
605.09	9622	
605.28	9228.1	
605.47	11091	
605.66	10744	
605.86	9062.3	
606.05	8516.1	
606.24	11000	
606.43	9659.6	
606.62	8866.3	
606.81	9542.2	
607	10883	
607.19	10218	
607.38	8209.6	
607.57	8478.6	
607.76	10015	
607.95	9461.6	
608.14	8737.3	
608.33	9366	
608.52	9849.4	
608.72	10846	
608.91	8124.3	
609.1	7986.4	
609.29	10058	
609.48	9557.9	
609.67	9026.8	
609.86	7997.3	
610.05	9607.7	
610.24	10041	
610.43	7989.1	
610.62	7520.8	
610.81	10981	
611	10770	
611.19	8035.5	
611.38	8686.1	
611.57	10092	
611.76	11525	
611.95	7834.8	
612.14	7641.7	
612.33	9910.1	
612.52	9491	
612.71	8306.6	
612.9	7512.6	
613.09	9106.6	
613.28	11403	
613.47	8021.9	
613.66	8944.2	
613.85	10081	
614.04	9635	
614.24	8097.7	
614.43	7310.6	
614.62	10210	
614.81	10109	
615	8626.7	
615.19	8700.5	
615.38	9453.4	
615.57	9710.1	
615.76	8434.2	
615.95	9407.7	
616.14	10256	
616.33	9908.8	
616.52	8714.1	
616.71	9012.4	
616.9	10207	
617.09	10015	
617.28	8223.3	
617.47	9370.8	
617.66	9379.7	
617.85	9349.7	
618.04	9129.8	
618.22	8586.5	
618.41	9740.8	
618.6	10632	
618.79	8482.7	
618.98	8230.1	
619.17	10918	
619.36	9307.3	
619.55	8297.7	
619.74	8368.7	
619.93	10293	
620.12	9602.2	
620.31	8898.4	
620.5	9127.1	
620.69	10936	
620.88	11206	
621.07	9780.4	
621.26	8812.4	
621.45	10322	
621.64	10361	
621.83	8929.8	
622.02	8181.6	
622.21	10466	
622.4	10282	
622.59	9458.2	
622.78	9179	
622.97	9881.4	
623.16	10884	
623.35	8865.7	
623.54	8096.3	
623.72	10064	
623.91	10206	
624.1	9149.6	
624.29	7940	
624.48	11243	
624.67	10535	
624.86	9103.2	
625.05	8234.9	
625.24	11310	
625.43	9787.9	
625.62	10619	
625.81	8439.7	
626	10686	
626.19	10045	
626.38	9152.4	
626.56	8574.8	
626.75	9966.8	
626.94	10400	
627.13	9116.9	
627.32	7903.1	
627.51	10571	
627.7	11709	
627.89	8077.2	
628.08	9133.3	
628.27	9745.6	
628.46	9906	
628.65	8288.1	
628.83	7948.2	
629.02	10480	
629.21	9770.2	
629.4	8674.5	
629.59	8813.8	
629.78	9685.5	
629.97	10684	
630.16	8934.6	
630.35	8422.6	
630.54	11090	
630.72	10756	
630.91	8432.2	
631.1	8876.6	
631.29	10273	
631.48	10402	
631.67	8946.2	
631.86	8458.1	
632.05	9904	
632.24	10036	
632.42	8128.4	
632.61	8709.3	
632.8	10030	
632.99	9619.3	
633.18	8812.4	
633.37	9091.6	
633.56	10231	
633.75	10161	
633.93	8712.1	
634.12	8456.7	
634.31	11036	
634.5	10608	
634.69	8427.4	
634.88	8836.3	
635.07	10010	
635.25	10537	
635.44	9228.1	
635.63	9515.5	
635.82	9824.8	
636.01	9393.4	
636.2	9126.4	
636.39	8791.9	
636.57	10867	
636.76	10610	
636.95	8234.9	
637.14	9497.1	
637.33	10303	
637.52	11229	
637.7	7871.7	
637.89	8798.1	
638.08	9787.2	
638.27	11175	
638.46	8860.2	
638.65	9338.1	
638.83	11187	
639.02	9635	
639.21	8777.6	
639.4	9244.5	
639.59	10067	
639.78	9725.8	
639.96	8101.8	
640.15	8067.6	
640.34	9867.1	
640.53	10056	
640.72	7886	
640.91	8108.6	
641.09	9255.5	
641.28	10642	
641.47	8106.5	
641.66	8955.1	
641.85	9947	
642.03	10140	
642.22	8632.2	
642.41	8163.2	
642.6	9394.7	
642.79	8843.1	
642.97	7919.5	
643.16	8680	
643.35	9340.1	
643.54	9158.5	
643.73	7838.9	
643.91	8494.3	
644.1	9039.1	
644.29	9623.4	
644.48	7928.4	
644.67	7864.9	
644.85	9146.9	
645.04	9474.6	
645.23	7365.2	
645.42	7741.3	
645.6	9094.3	
645.79	10182	
645.98	7776.1	
646.17	6854.6	
646.36	8757.1	
646.54	9260.9	
646.73	8427.4	
646.92	7317.4	
647.11	8916.2	
647.29	9889	
647.48	7350.8	
647.67	7107.1	
647.86	10125	
648.05	10165	
648.23	7657.4	
648.42	8848.6	
648.61	9396.8	
648.8	9241.1	
648.98	7262.8	
649.17	7599.3	
649.36	8759.8	
649.55	8307.9	
649.73	7356.3	
649.92	8015.7	
650.11	8623.3	
650.3	9031.5	
650.48	7380.9	
650.67	7265.5	
650.86	9252.7	
651.05	8188.5	
651.23	7344.7	
651.42	7238.9	
651.61	8730.5	
651.79	8875.9	
651.98	7490.8	
652.17	7132.4	
652.36	9053.4	
652.54	8161.8	
652.73	7147.4	
652.92	6915.3	
653.11	9113.5	
653.29	9114.1	
653.48	6494.1	
653.67	7388.4	
653.85	8845.9	
654.04	9889.6	
654.23	7490.8	
654.42	7055.3	
654.6	8306.6	
654.79	8888.9	
654.98	6531	
655.16	7103	
655.35	7897	
655.54	7777.5	
655.73	6535.8	
655.91	6543.9	
656.1	8998.1	
656.29	7754.3	
656.47	6105.7	
656.66	7723.6	
656.85	8058.8	
657.03	8101.1	
657.22	6580.8	
657.41	6780.1	
657.59	8206.2	
657.78	8023.3	
657.97	6287.3	
658.16	7017.7	
658.34	8890.2	
658.53	9229.5	
658.72	7901.7	
658.9	8477.9	
659.09	8246.5	
659.28	8358.4	
659.46	6845	
659.65	6820.4	
659.84	8157.1	
660.02	8596.7	
660.21	6675.7	
660.4	6561.7	
660.58	9019.9	
660.77	8405.5	
660.96	7204.1	
661.14	6220.4	
661.33	9464.3	
661.52	9369.5	
661.7	6183.5	
661.89	9760.6	
662.08	7965.2	
662.26	7580.9	
662.45	6475	
662.64	6591.7	
662.82	8707.3	
663.01	7874.4	
663.2	6599.2	
663.38	7322.9	
663.57	8540	
663.75	8400.1	
663.94	6926.9	
664.13	8119.5	
664.31	7952.9	
664.5	8596.7	
664.69	7260	
664.87	7679.2	
665.06	7654.6	
665.25	8353	
665.43	7843.7	
665.62	7849.2	
665.8	8725.7	
665.99	8000.7	
666.18	6914.6	
666.36	6929.6	
666.55	8569.4	
666.74	8501.8	
666.92	6430.6	
667.11	7999.4	
667.29	8049.2	
667.48	8646.5	
667.67	7610.3	
667.85	6668.9	
668.04	8028.7	
668.22	7975.5	
668.41	6900.3	
668.6	7030.7	
668.78	7843.7	
668.97	7976.8	
669.15	7212.9	
669.34	6166.4	
669.53	7774.1	
669.71	8138.6	
669.9	6433.4	
670.08	6997.9	
670.27	7692.9	
670.46	8283.4	
670.64	7206.8	
670.83	7316.7	
671.01	7751.6	
671.2	8268.3	
671.38	6402	
671.57	6296.8	
671.76	8798.1	
671.94	9361.3	
672.13	6214.9	
672.31	7295.5	
672.5	8436.3	
672.69	7862.2	
672.87	6420.4	
673.06	6709.8	
673.24	8290.2	
673.43	7800	
673.61	7130.3	
673.8	6689.3	
673.98	8466.3	
674.17	8604.2	
674.36	7174.7	
674.54	7126.2	
674.73	8144.8	
674.91	8449.2	
675.1	6787.7	
675.28	6400.6	
675.47	8019.2	
675.65	8581	
675.84	6597.9	
676.03	6982.9	
676.21	7738.6	
676.4	7322.2	
676.58	7347.4	
676.77	7094.2	
676.95	9173.5	
677.14	7761.8	
677.32	6341.2	
677.51	6077.7	
677.69	8398.7	
677.88	7404.8	
678.06	6228.6	
678.25	6302.3	
678.44	7998.7	
678.62	7703.1	
678.81	5965.7	
678.99	6956.9	
679.18	8733.2	
679.36	8355.7	
679.55	6566.5	
679.73	7175.4	
679.92	8267.6	
680.1	7662.1	
680.29	7747.5	
680.47	6585.6	
680.66	7679.2	
680.84	8476.5	
681.03	5924.1	
681.21	6858.6	
681.4	7718.1	
681.58	7452.6	
681.77	6279.1	
681.95	6242.2	
682.14	8395.3	
682.32	8830.8	
682.51	7160.4	
682.69	6027.9	
682.88	7592.5	
683.06	8239.7	
683.25	6872.3	
683.43	7368.6	
683.62	7830.7	
683.8	8215.1	
683.99	7346.7	
684.17	6666.1	
684.36	8979	
684.54	7774.1	
684.73	5853.1	
684.91	6071.5	
685.1	8011.7	
685.28	7482.6	
685.46	6616.3	
685.65	6650.4	
685.83	8244.4	
686.02	7646.4	
686.2	6193.1	
686.39	6267.5	
686.57	7481.9	
686.76	8878.6	
686.94	6180.1	
687.13	6294.8	
687.31	8100.4	
687.5	7593.9	
687.68	5726.1	
687.86	6964.5	
688.05	9221.3	
688.23	7218.4	
688.42	6976.7	
688.6	6260	
688.79	7546.1	
688.97	7586.4	
689.16	6694.8	
689.34	5610.1	
689.52	8165.3	
689.71	8432.2	
689.89	6897.6	
690.08	6160.3	
690.26	7820.5	
690.45	7716.7	
690.63	7096.2	
690.81	6398.5	
691	7595.2	
691.18	7481.2	
691.37	6524.8	
691.55	8662.2	
691.74	7413.6	
691.92	9326.4	
692.1	6541.2	
692.29	5905	
692.47	7565.2	
692.66	7051.8	
692.84	6154.8	
693.02	6653.2	
693.21	7069.6	
693.39	7696.9	
693.58	6774	
693.76	6167.1	
693.94	8692.3	
694.13	8580.3	
694.31	6115.2	
694.5	7212.3	
694.68	7408.2	
694.86	7798.7	
695.05	6611.5	
695.23	6650.4	
695.42	8100.4	
695.6	10351	
695.78	7142.6	
695.97	6241.5	
696.15	8243.1	
696.34	7566.6	
696.52	6069.5	
696.7	6832	
696.89	7905.2	
697.07	7425.3	
697.25	6774.7	
697.44	8082	
697.62	7902.4	
697.81	8215.1	
697.99	6436.1	
698.17	6893.5	
698.36	7320.1	
698.54	7885.4	
698.72	6759.7	
698.91	5819.6	
699.09	7546.1	
699.28	7391.8	
699.46	6441.5	
699.64	6219	
699.83	7277.1	
700.01	8458.1	
700.19	7001.3	
700.38	5565.7	
700.56	8464.9	
700.74	7354.9	
700.93	5907	
701.11	6669.6	
701.29	7930.4	
701.48	8923	
701.66	6098.2	
701.84	6168.5	
702.03	7509.9	
702.21	8108.6	
702.39	5756.8	
702.58	6352.1	
702.76	7797.3	
702.94	7974.8	
703.13	5758.9	
703.31	8037.6	
703.49	7191.1	
703.68	8516.8	
703.86	5876.3	
704.04	6831.3	
704.23	7702.4	
704.41	8048.5	
704.59	6006	
704.78	7290.8	
704.96	8714.8	
705.14	7980.9	
705.33	5866.7	
705.51	6561	
705.69	7421.8	
705.87	8304.5	
706.06	6846.4	
706.24	5755.5	
706.42	7709.9	
706.61	7969.3	
706.79	6887.3	
706.97	5850.4	
707.16	7265.5	
707.34	7767.3	
707.52	6784.9	
707.7	6036.7	
707.89	7398.6	
708.07	7101.7	
708.25	6792.4	
708.44	7207.5	
708.62	7264.8	
708.8	8361.2	
708.98	6940.6	
709.17	6014.2	
709.35	7673.7	
709.53	7539.3	
709.72	5659.2	
709.9	6167.8	
710.08	7909.3	
710.26	7862.2	
710.45	7347.4	
710.63	6014.9	
710.81	7496.2	
710.99	7550.2	
711.18	6584.2	
711.36	6120.7	
711.54	7391.1	
711.72	8088.1	
711.91	6171.9	
712.09	5649	
712.27	7502.4	
712.45	8132.5	
712.64	6410.1	
712.82	5469.4	
713	6995.2	
713.18	7128.3	
713.37	5543.2	
713.55	6705.7	
713.73	7934.5	
713.91	6538.5	
714.1	5880.4	
714.28	5377.3	
714.46	7536.5	
714.64	6814.3	
714.83	4841.4	
715.01	5684.5	
715.19	6815	
715.37	6246.3	
715.55	5257.1	
715.74	5578	
715.92	7715.4	
716.1	5758.2	
716.28	6681.8	
716.47	5742.5	
716.65	6425.8	
716.83	6552.8	
717.01	5581.4	
717.19	5633.3	
717.38	8488.8	
717.56	6198.5	
717.74	5823.7	
717.92	5067.4	
718.1	7387	
718.29	6561.7	
718.47	4596.3	
718.65	5332.2	
718.83	7330.4	
719.01	7199.3	
719.2	4469.4	
719.38	5543.9	
719.56	6958.3	
719.74	8443.8	
719.92	5114.5	
720.11	6098.2	
720.29	6993.8	
720.47	6081.1	
720.65	4720.6	
720.83	5572.5	
721.02	6479.1	
721.2	6196.5	
721.38	5539.8	
721.56	4830.5	
721.74	5730.9	
721.92	5905.7	
722.11	5988.3	
722.29	5786.2	
722.47	7077.8	
722.65	6344.6	
722.83	4828.4	
723.01	5775.3	
723.2	6438.1	
723.38	6660.7	
723.56	4368.3	
723.74	5446.2	
723.92	5896.8	
724.1	7063.4	
724.29	4805.9	
724.47	5894.1	
724.65	5957.5	
724.83	5873.6	
725.01	4629.8	
725.19	5539.8	
725.37	5980.1	
725.56	5997.8	
725.74	4515.8	
725.92	4776.5	
726.1	5825.8	
726.28	6157.6	
726.46	5208.7	
726.64	4971.1	
726.83	6152.8	
727.01	6528.2	
727.19	4527.4	
727.37	5296.7	
727.55	6255.9	
727.73	6799.3	
727.91	4445.5	
728.09	4329.4	
728.28	6761.7	
728.46	7230.7	
728.64	5397.1	
728.82	5386.2	
729	7769.3	
729.18	7006.1	
729.36	4590.9	
729.54	6885.3	
729.72	8043.7	
729.91	6380.8	
730.09	6371.9	
730.27	5161.6	
730.45	6266.8	
730.63	6893.5	
730.81	5817.6	
730.99	4823.6	
731.17	7354.3	
731.35	5956.2	
731.53	5390.3	
731.71	4965.6	
731.9	7109.2	
732.08	7271.7	
732.26	5215.5	
732.44	4918.5	
732.62	7312.6	
732.8	6835.4	
732.98	5664.7	
733.16	4655.7	
733.34	6825.2	
733.52	5605.3	
733.7	5261.2	
733.88	5455.1	
734.07	6665.5	
734.25	6400.6	
734.43	4696.7	
734.61	6190.3	
734.79	7896.3	
734.97	6287.9	
735.15	4795	
735.33	5208.7	
735.51	6625.2	
735.69	6283.2	
735.87	6221.7	
736.05	5309	
736.23	6462.7	
736.41	6215.6	
736.59	5175.2	
736.77	5292	
736.95	6915.3	
737.13	6297.5	
737.32	4816.1	
737.5	5025.7	
737.68	7373.4	
737.86	6214.9	
738.04	4620.2	
738.22	6374.6	
738.4	6072.2	
738.58	6301.6	
738.76	5248.3	
738.94	4171	
739.12	6180.8	
739.3	5995.8	
739.48	5872.2	
739.66	5573.2	
739.84	6378.1	
740.02	6384.2	
740.2	4278.2	
740.38	4661.2	
740.56	6772.6	
740.74	5684.5	
740.92	5300.8	
741.1	5180	
741.28	6250.4	
741.46	5994.4	
741.64	4857.8	
741.82	5329.5	
742	6228.6	
742.18	6249	
742.36	4971.8	
742.54	4617.5	
742.72	6751.5	
742.9	5522	
743.08	5514.5	
743.26	4240	
743.44	6934.4	
743.62	6823.8	
743.8	5579.3	
743.98	4648.2	
744.16	6634.7	
744.34	6196.5	
744.52	5534.3	
744.7	5373.9	
744.88	6629.3	
745.06	6223.1	
745.24	5526.8	
745.42	5637.4	
745.6	6740.5	
745.78	6488.6	
745.96	4351.9	
746.14	4696	
746.32	7468.9	
746.5	6683.2	
746.68	5246.2	
746.86	4644.8	
747.03	7164.5	
747.21	5528.2	
747.39	5253.7	
747.57	4690.5	
747.75	6436.1	
747.93	6734.4	
748.11	4691.9	
748.29	4592.9	
748.47	7892.9	
748.65	6074.3	
748.83	5371.8	
749.01	5017.5	
749.19	6543.3	
749.37	5741.8	
749.55	4922	
749.73	5095.3	
749.91	6275	
750.09	5956.2	
750.26	5050.3	
750.44	4541	
750.62	6268.1	
750.8	6266.8	
750.98	4380.6	
751.16	4754	
751.34	6280.4	
751.52	5675.6	
751.7	5449	
751.88	4341.7	
752.06	6836.8	
752.24	6583.5	
752.42	4354.7	
752.59	4659.8	
752.77	6165.8	
752.95	7421.8	
753.13	5371.8	
753.31	4822.3	
753.49	5947.3	
753.67	6325.5	
753.85	5072.1	
754.03	4601.1	
754.21	6589.7	
754.38	6907.8	
754.56	4826.4	
754.74	3898	
754.92	5904.3	
755.1	6610.2	
755.28	3936.9	
755.46	3956.7	
755.64	7238.9	
755.82	7452.6	
755.99	4208.6	
756.17	4274.1	
756.35	4844.8	
756.53	6418.3	
756.71	3237.2	
756.89	4198.3	
757.07	6053.1	
757.25	5192.3	
757.42	4700.8	
757.6	5552	
757.78	6170.5	
757.96	5097.4	
758.14	4406.5	
758.32	3932.1	
758.5	4758.8	
758.67	5527.5	
758.85	4265.2	
759.03	4292.5	
759.21	5758.9	
759.39	5132.2	
759.57	3809.2	
759.75	4938.3	
759.92	6355.5	
760.1	5709.1	
760.28	5313.1	
760.46	5517.9	
760.64	5390.9	
760.82	5193	
760.99	5136.3	
761.17	4338.3	
761.35	6258.6	
761.53	5171.1	
761.71	4418.8	
761.89	5124.7	
762.06	6143.9	
762.24	5567.7	
762.42	4498.7	
762.6	4289.8	
762.78	5626.5	
762.96	6201.9	
763.13	4872.8	
763.31	4630.5	
763.49	6444.3	
763.67	5589.6	
763.85	5391.6	
764.02	5879.7	
764.2	6662.7	
764.38	5839.4	
764.56	4438.6	
764.74	5375.9	
764.91	6694.1	
765.09	5691.3	
765.27	4157.4	
765.45	3935.5	
765.63	6797.9	
765.8	6621.1	
765.98	3702.7	
766.16	4017.4	
766.34	5250.3	
766.52	4993.6	
766.69	4923.3	
766.87	3864.5	
767.05	5642.8	
767.23	6441.5	
767.41	4147.8	
767.58	4409.3	
767.76	6234.7	
767.94	6331.6	
768.12	4247.5	
768.29	4921.3	
768.47	5750	
768.65	6406.7	
768.83	3892.5	
769	5029.8	
769.18	5341.1	
769.36	6030.6	
769.54	4979.3	
769.72	3893.2	
769.89	6295.5	
770.07	6390.3	
770.25	4274.8	
770.43	5476.3	
770.6	7068.9	
770.78	7396.6	
770.96	4442	
771.14	5004.6	
771.31	6154.8	
771.49	5490.6	
771.67	3640.6	
771.85	3885.7	
772.02	4786.8	
772.2	5556.8	
772.38	4590.9	
772.55	4111	
772.73	5819	
772.91	5589.6	
773.09	4429.1	
773.26	4593.6	
773.44	5771.2	
773.62	5452.4	
773.8	3968.3	
773.97	3708.2	
774.15	5870.8	
774.33	5428.5	
774.5	3871.3	
774.68	4208.6	
774.86	5709.7	
775.04	5465.3	
775.21	3934.8	
775.39	3990.8	
775.57	5715.9	
775.74	6133	
775.92	3779.9	
776.1	3676.8	
776.27	5625.1	
776.45	6884.6	
776.63	3932.8	
776.81	3483.6	
776.98	5333.6	
777.16	6434	
777.34	4014	
777.51	4341.7	
777.69	5233.9	
777.87	5145.2	
778.04	4079.6	
778.22	4737	
778.4	5201.8	
778.57	5830.6	
778.75	3388	
778.93	3716.4	
779.1	5028.4	
779.28	4788.8	
779.46	3361.4	
779.64	3871.3	
779.81	5986.2	
779.99	6827.9	
780.17	4617.5	
780.34	4805.2	
780.52	5345.2	
780.69	5606.7	
780.87	4200.4	
781.05	3793.5	
781.22	5475.6	
781.4	5576.6	
781.58	3906.2	
781.75	3097.9	
781.93	5540.4	
782.11	5006.6	
782.28	4794.3	
782.46	3958.7	
782.64	4798.4	
782.81	5653.1	
782.99	4020.2	
783.17	3921.9	
783.34	5534.3	
783.52	4869.4	
783.69	4192.2	
783.87	4974.5	
784.05	4941.1	
784.22	4932.2	
784.4	4976.6	
784.58	4296	
784.75	5872.2	
784.93	4978.6	
785.1	3929.4	
785.28	4517.8	
785.46	5552.7	
785.63	4912.4	
785.81	3938.9	
785.99	3748.5	
786.16	5063.3	
786.34	5462.6	
786.51	3824.2	
786.69	4179.9	
786.87	4655.7	
787.04	5233.2	
787.22	3630.4	
787.39	4568.3	
787.57	4904.9	
787.75	6046.3	
787.92	4756.7	
788.1	4680.3	
788.27	4915.1	
788.45	4676.2	
788.63	4422.9	
788.8	3092.4	
788.98	5311.7	
789.15	4666	
789.33	3336.8	
789.5	3906.8	
789.68	5829.2	
789.86	5960.3	
790.03	4349.9	
790.21	3764.2	
790.38	5786.9	
790.56	5074.2	
790.73	3758.7	
790.91	3717.1	
791.09	4965	
791.26	5658.5	
791.44	3947.1	
791.61	3376.4	
791.79	4956.1	
791.96	5017.5	
792.14	3427.6	
792.32	3042.6	
792.49	4883	
792.67	5035.3	
792.84	3552.5	
793.02	3357.3	
793.19	5390.3	
793.37	6021	
793.54	3021.4	
793.72	3408.5	
793.89	6173.9	
794.07	4967	
794.25	4007.9	
794.42	3125.2	
794.6	5943.2	
794.77	5566.4	
794.95	4274.8	
795.12	3740.3	
795.3	4943.1	
795.47	5526.1	
795.65	4136.9	
795.82	3914.4	
796	4796.3	
796.17	6619.7	
796.35	3843.4	
796.52	4529.4	
796.7	5492	
796.87	5530.2	
797.05	4707.6	
797.22	4655	
797.4	5508.4	
797.57	6501.6	
797.75	3963.5	
797.92	3713	
798.1	5821.7	
798.27	4891.9	
798.45	3170.3	
798.62	3482.9	
798.8	5251.7	
798.97	5760.9	
799.15	4167.6	
799.32	3979.2	
799.5	4523.3	
799.67	5272.8	
799.85	4292.5	
800.02	3127.2	
800.2	4906.3	
800.37	5195	
800.55	4431.8	
800.72	3721.2	
800.9	5681.1	
801.07	6126.2	
801.25	5010.7	
801.42	4143.7	
801.6	5728.9	
801.77	5369.1	
801.95	3815.4	
802.12	3631.7	
802.29	5442.1	
802.47	5335	
802.64	4027.7	
802.82	3052.2	
802.99	4838	
803.17	5889.3	
803.34	3976.5	
803.52	3566.2	
803.69	6461.3	
803.87	4647.5	
804.04	3887	
804.21	4012	
804.39	5969.1	
804.56	5072.8	
804.74	3311.6	
804.91	4129.4	
805.09	4910.3	
805.26	5038.7	
805.44	3362.8	
805.61	3766.2	
805.78	5575.9	
805.96	5614.2	
806.13	4092.5	
806.31	4419.5	
806.48	4493.2	
806.66	4991.6	
806.83	4095.9	
807	3962.8	
807.18	4904.2	
807.35	5326.1	
807.53	3959.4	
807.7	3203	
807.87	6010.8	
808.05	4939	
808.22	4450.2	
808.4	3165.5	
808.57	4997	
808.74	4602.5	
808.92	3602.4	
809.09	4661.9	
809.27	4797	
809.44	5459.2	
809.61	3226.9	
809.79	3523.9	
809.96	6068.8	
810.14	5635.3	
810.31	3127.9	
810.48	3856.3	
810.66	5027.8	
810.83	5704.3	
811.01	3610.6	
811.18	4026.3	
811.35	5640.1	
811.53	4435.2	
811.7	4425.7	
811.87	4096.6	
812.05	5029.1	
812.22	4886.5	
812.39	3556	
812.57	3392.1	
812.74	4986.8	
812.92	6552.8	
813.09	3805.1	
813.26	4152.6	
813.44	6335.7	
813.61	4891.9	
813.78	3203.7	
813.96	4250.2	
814.13	5012.7	
814.3	4653	
814.48	4644.8	
814.65	3819.5	
814.82	6107.7	
815	4696.7	
815.17	3893.9	
815.34	4774.5	
815.52	4842.8	
815.69	4913.1	
815.87	3883.6	
816.04	3375.7	
816.21	4957.4	
816.38	4387.4	
816.56	3753.2	
816.73	3486.3	
816.9	6201.2	
817.08	5653.8	
817.25	3558.7	
817.42	4487.8	
817.6	4516.5	
817.77	4941.7	
817.94	4001.7	
818.12	3518.4	
818.29	4729.4	
818.46	7378.1	
818.64	3672	
818.81	3445.4	
818.98	4680.3	
819.16	6668.2	
819.33	4188.8	
819.5	3921.9	
819.67	5343.8	
819.85	5917.9	
820.02	3796.9	
820.19	4156.7	
820.37	5162.2	
820.54	4756.1	
820.71	3961.5	
820.88	4863.9	
821.06	5169.1	
821.23	4730.1	
821.4	4003.1	
821.58	3963.5	
821.75	5651.7	
821.92	5119.9	
822.09	3255.6	
822.27	3290.4	
822.44	5023.7	
822.61	4898.1	
822.79	3198.9	
822.96	6168.5	
823.13	5479	
823.3	4700.1	
823.48	3747.1	
823.65	3367.5	
823.82	5715.9	
823.99	4553.3	
824.17	4679.6	
824.34	3450.1	
824.51	6549.4	
824.68	5048.9	
824.86	3558.7	
825.03	3983.3	
825.2	5014.1	
825.37	5954.8	
825.55	3496.6	
825.72	3923.9	
825.89	6578.1	
826.06	6076.3	
826.24	3833.8	
826.41	3863.2	
826.58	6014.2	
826.75	5250.3	
826.92	3013.2	
827.1	3369.6	
827.27	8146.1	
827.44	6535.1	
827.61	3652.9	
827.79	4399.7	
827.96	4729.4	
828.13	5010.7	
828.3	3771	
828.47	3261.7	
828.65	5184.8	
828.82	5139.7	
828.99	4909	
829.16	4251.6	
829.34	5613.5	
829.51	5329.5	
829.68	3971.7	
829.85	4102.1	
830.02	5851	
830.2	5521.3	
830.37	3028.3	
830.54	4739.7	
830.71	6367.1	
830.88	4960.9	
831.05	3116.3	
831.23	3557.3	
831.4	6025.1	
831.57	6764.4	
831.74	3646.7	
831.91	3238.5	
832.09	5205.3	
832.26	5580.7	
832.43	3742.3	
832.6	4296.6	
832.77	5189.6	
832.94	5956.2	
833.12	2979.8	
833.29	3730	
833.46	5310.4	
833.63	6983.6	
833.8	4149.2	
833.97	3794.9	
834.15	5616.9	
834.32	5322	
834.49	3891.8	
834.66	4007.2	
834.83	5815.5	
835	4692.6	
835.17	3730.7	
835.35	3655.6	
835.52	5455.1	
835.69	5370.5	
835.86	3932.8	
836.03	3160.7	
836.2	5534.3	
836.37	5212.1	
836.55	3762.8	
836.72	3532.7	
836.89	5096.7	
837.06	5627.1	
837.23	3824.2	
837.4	4242.7	
837.57	6317.3	
837.75	7002	
837.92	3452.2	
838.09	3717.1	
838.26	5109	
838.43	5775.3	
838.6	3965.6	
838.77	3534.8	
838.94	6608.1	
839.11	6335.7	
839.29	3805.1	
839.46	3019.4	
839.63	5528.8	
839.8	5264	
839.97	3642.7	
840.14	3676.8	
840.31	5329.5	
840.48	5575.9	
840.65	3045.3	
840.82	3732.1	
841	5541.1	
841.17	5491.3	
841.34	3421.5	
841.51	3459	
841.68	5467.4	
841.85	5173.9	
842.02	3532.7	
842.19	2896.5	
842.36	5320.6	
842.53	5274.2	
842.7	3354.6	
842.87	4091.8	
843.05	6918.7	
843.22	5185.5	
843.39	3184.6	
843.56	3478.1	
843.73	5036.6	
843.9	5603.2	
844.07	5517.2	
844.24	4579.9	
844.41	8088.1	
844.58	4774.5	
844.75	3250.8	
844.92	3571.7	
845.09	5554.1	
845.26	5539.8	
845.43	3351.8	
845.6	3547.1	
845.77	5526.8	
845.94	5265.3	
846.12	3725.9	
846.29	3921.2	
846.46	5742.5	
846.63	5566.4	
846.8	3321.1	
846.97	4012.7	
847.14	6023.1	
847.31	5456.5	
847.48	3773	
847.65	4152.6	
847.82	5796.4	
847.99	5769.8	
848.16	4477.5	
848.33	4171	
848.5	5147.9	
848.67	6021.7	
848.84	3347.7	
849.01	3517	
849.18	4983.4	
849.35	4650.3	
849.52	4191.5	
849.69	3263.8	
849.86	5695.4	
850.03	5894.1	
850.2	3424.2	
850.37	4098	
850.54	5881.1	
850.71	5201.2	
850.88	4029	
851.05	3272.7	
851.22	5447.6	
851.39	6023.8	
851.56	3186	
851.73	3812.6	
851.9	4886.5	
852.07	5728.2	
852.24	3732.8	
852.41	3302	
852.58	5421.7	
852.75	4948.6	
852.92	3747.1	
853.09	3265.1	
853.26	5122	
853.43	5948	
853.6	3325.2	
853.77	2845.3	
853.94	6054.5	
854.11	4811.4	
854.28	4967	
854.44	3661.8	
854.61	6470.2	
854.78	5841.5	
854.95	3376.4	
855.12	4190.1	
855.29	4452.3	
855.46	6255.9	
855.63	3364.1	
855.8	4613.4	
855.97	5096.7	
856.14	5844.2	
856.31	4769.7	
856.48	3642	
856.65	5128.1	
856.82	4845.5	
856.99	3223.5	
857.16	3585.3	
857.33	6711.9	
857.49	5186.1	
857.66	3593.5	
857.83	3888.4	
858	5125.4	
858.17	5381.4	
858.34	3160	
858.51	3351.8	
858.68	6242.2	
858.85	6210.8	
859.02	3902.7	
859.19	4137.6	
859.36	4880.3	
859.52	4827.1	
859.69	3403.7	
859.86	4011.3	
860.03	4895.3	
860.2	6056.5	
860.37	3040.6	
860.54	3358	
860.71	5674.9	
860.88	6158.9	
861.05	3781.2	
861.21	4238.6	
861.38	6230.6	
861.55	4732.2	
861.72	3037.1	
861.89	3702.7	
862.06	5812.1	
862.23	6286.6	
862.4	3282.2	
862.56	3525.9	
862.73	5670.1	
862.9	5309	
863.07	3868.6	
863.24	3028.3	
863.41	4754.7	
863.58	4869.4	
863.75	3437.9	
863.91	3910.3	
864.08	6058.6	
864.25	5680.4	
864.42	4222.2	
864.59	4651.6	
864.76	6376.7	
864.93	4883	
865.09	3193.5	
865.26	3576.4	
865.43	6009.4	
865.6	6377.4	
865.77	2940.9	
865.94	3312.2	
866.1	6017.6	
866.27	5763	
866.44	5059.2	
866.61	3188	
866.78	5216.9	
866.95	5623	
867.11	3239.9	
867.28	3033.7	
867.45	5855.1	
867.62	4860.5	
867.79	3834.5	
867.96	3366.9	
868.12	4888.5	
868.29	5788.9	
868.46	2861.7	
868.63	4433.9	
868.8	5923.4	
868.97	5681.7	
869.13	3512.9	
869.3	3501.3	
869.47	5651.7	
869.64	5847.6	
869.81	3362.1	
869.97	3338.9	
870.14	5558.2	
870.31	6130.3	
870.48	3278.1	
870.65	4210.6	
870.81	5131.5	
870.98	5225.7	
871.15	3762.1	
871.32	3510.9	
871.48	5620.3	
871.65	6213.5	
871.82	3319.1	
871.99	3743	
872.16	6667.5	
872.32	6016.9	
872.49	3394.2	
872.66	3411.9	
872.83	5728.9	
872.99	5037.3	
873.16	3835.8	
873.33	3292.5	
873.5	5388.9	
873.67	5416.9	
873.83	3547.8	
874	4481.6	
874.17	5481	
874.34	6487.3	
874.5	4298	
874.67	4197.7	
874.84	6081.1	
875.01	4879.6	
875.17	4682.3	
875.34	3345	
875.51	5468.8	
875.68	6558.3	
875.84	4031.1	
876.01	4878.9	
876.18	5668.8	
876.34	5686.5	
876.51	3411.9	
876.68	3314.3	
876.85	5210.7	
877.01	5926.8	
877.18	4782.7	
877.35	3309.5	
877.52	5345.9	
877.68	4771.8	
877.85	3291.1	
878.02	3371	
878.18	5284.4	
878.35	5012.1	
878.52	2682.8	
878.69	3746.4	
878.85	5722	
879.02	5675.6	
879.19	4708.3	
879.35	3609.9	
879.52	5692.7	
879.69	5891.3	
879.86	2874.7	
880.02	3784	
880.19	5292	
880.36	6384.2	
880.52	3813.3	
880.69	3979.2	
880.86	5855.1	
881.02	5858.6	
881.19	3677.5	
881.36	3657	
881.52	5701.5	
881.69	5016.8	
881.86	3589.4	
882.02	3560.1	
882.19	5973.9	
882.36	6963.1	
882.52	3390.8	
882.69	4704.9	
882.86	5499.5	
883.02	5383.4	
883.19	4042.7	
883.36	3815.4	
883.52	5732.9	
883.69	6590.4	
883.86	3411.9	
884.02	3052.2	
884.19	5763	
884.36	5347.2	
884.52	3778.5	
884.69	3579.2	
884.86	5056.4	
885.02	6330.3	
885.19	3734.1	
885.36	3760.1	
885.52	5345.9	
885.69	5458.5	
885.86	4837.3	
886.02	4321.2	
886.19	5765	
886.35	5255.1	
886.52	3718.4	
886.69	4622.3	
886.85	4894	
887.02	6095.4	
887.19	6095.4	
887.35	6095.4	
887.52	6095.4	
887.68	6095.4	
887.85	6095.4	
888.02	6095.4	
888.18	6095.4	
888.35	6095.4	
888.51	6095.4	
888.68	6095.4	
888.85	6095.4	
889.01	6095.4	
889.18	6095.4	
889.35	6095.4	
889.51	6095.4	
889.68	6095.4	
889.84	6095.4	
890.01	6095.4	
890.17	6095.4	
890.34	6095.4	
890.51	6095.4	
890.67	6095.4	
890.84	6095.4	
891	6095.4	
891.17	6095.4	
891.34	6095.4	
891.5	6095.4	
891.67	6095.4	
891.83	6095.4	
892	6095.4	
892.16	6095.4	
892.33	6095.4	
892.5	6095.4	
892.66	6095.4	
892.83	6095.4	
892.99	6095.4	
893.16	6095.4	
893.32	6095.4	
893.49	6095.4	
893.65	6095.4	
893.82	6095.4	
893.99	6095.4	
894.15	6095.4	
894.32	6095.4	
894.48	6095.4	
894.65	6095.4	
894.81	6095.4	
894.98	6095.4	
895.14	6095.4	
895.31	6095.4	
895.47	6095.4	
895.64	6095.4	
895.81	6095.4	
895.97	6095.4	
896.14	6095.4	
896.3	6095.4	
896.47	6095.4	
896.63	6095.4	
896.8	6095.4	
896.96	6095.4	
897.13	6095.4	
897.29	6095.4	
897.46	6095.4	
897.62	6095.4	
897.79	6095.4	
897.95	6095.4	
898.12	6095.4	
898.28	6095.4	
898.45	6095.4	
898.61	6095.4	
898.78	6095.4	
898.94	6095.4	
899.11	6095.4	
899.27	6095.4	
899.44	6095.4	
899.6	6095.4	
899.77	6095.4	
899.93	6095.4	
900.1	6095.4	
900.26	6095.4	
900.43	6095.4	
900.59	6095.4	
900.76	6095.4	
900.92	6095.4	
901.09	6095.4	
901.25	6095.4	
901.42	6095.4	
901.58	6095.4	
901.75	6095.4	
901.91	6095.4	
902.07	6095.4	
902.24	6095.4	
902.4	6095.4	
902.57	6095.4	
902.73	6095.4	
902.9	6095.4	
903.06	6095.4	
903.23	6095.4	
903.39	6095.4	
903.56	6095.4	
903.72	6095.4	
903.88	6095.4	
904.05	6095.4	
904.21	6095.4	
904.38	6095.4	
904.54	6095.4	
904.71	6095.4	
904.87	6095.4	
905.03	6095.4	
905.2	6095.4	
905.36	6095.4	
905.53	6095.4	
905.69	6095.4	
905.86	6095.4	
906.02	6095.4	
906.18	6095.4	
906.35	6095.4	
906.51	6095.4	
906.68	6095.4	
906.84	6095.4	
907.01	6095.4	
907.17	6095.4	
907.33	6095.4	
907.5	6095.4	
907.66	6095.4	
907.83	6095.4	
907.99	6095.4	
908.15	6095.4	
908.32	6095.4	
908.48	6095.4	
908.65	6095.4	
908.81	6095.4	
908.97	6095.4	
909.14	6095.4	
909.3	6095.4	
909.47	6095.4	
909.63	6095.4	
909.79	6095.4	
909.96	6095.4	
910.12	6095.4	
910.28	6095.4	
910.45	6095.4	
910.61	6095.4	
910.78	6095.4	
910.94	6095.4	
911.1	6095.4	
911.27	6095.4	
911.43	6095.4	
911.59	6095.4	
911.76	6095.4	
911.92	6095.4	
912.08	6095.4	
912.25	6095.4	
912.41	6095.4	
912.57	6095.4	
912.74	6095.4	
912.9	6095.4	
913.07	6095.4	
913.23	6095.4	
913.39	6095.4	
913.56	6095.4	
913.72	6095.4	
913.88	6095.4	
914.05	6095.4	
914.21	6095.4	
914.37	6095.4	
914.54	6095.4	
914.7	6095.4	
914.86	6095.4	
915.03	6095.4	
915.19	6095.4	
