Wavelength	Intensities	
nm	a.u.	
179.22	1774.1	
179.44	1763.6	
179.65	1784.5	
179.86	1742.8	
180.08	1723	
180.29	4254.3	
180.51	3117.7	
180.72	5177.9	
180.94	5887.2	
181.15	2906.8	
181.37	2841.2	
181.58	5039.4	
181.79	5297.4	
182.01	3023.5	
182.22	3151.1	
182.44	5323.4	
182.65	4485.7	
182.87	3879.5	
183.08	3448.8	
183.29	5518.6	
183.51	4543.1	
183.72	3196.9	
183.94	4474.1	
184.15	4900.1	
184.37	4889.2	
184.58	2790	
184.79	3782.6	
185.01	4580.6	
185.22	5289.2	
185.44	4013.3	
185.65	3419.4	
185.86	4913.1	
186.08	4514.4	
186.29	2787.3	
186.51	2969.6	
186.72	4645.5	
186.94	5337	
187.15	3414.6	
187.36	3500.7	
187.58	6752.2	
187.79	5008	
188.01	3644	
188.22	5511.1	
188.43	5923.4	
188.65	5214.8	
188.86	2942.9	
189.08	3502.7	
189.29	4783.4	
189.5	4787.5	
189.72	3236.5	
189.93	3239.2	
190.15	5434.6	
190.36	6298.9	
190.57	3538.2	
190.79	3448.1	
191	5382.1	
191.22	5431.2	
191.43	3541.6	
191.64	3039.2	
191.86	5618.3	
192.07	5444.9	
192.29	3110.9	
192.5	3224.2	
192.71	5356.8	
192.93	4777.9	
193.14	3191.4	
193.35	3350.5	
193.57	4719.9	
193.78	5380.7	
194	2663.7	
194.21	3230.3	
194.42	4580.6	
194.64	4977.2	
194.85	3495.9	
195.07	4077.5	
195.28	4940.4	
195.49	4328.7	
195.71	4239.3	
195.92	3103.4	
196.13	5075.5	
196.35	5145.9	
196.56	4455	
196.78	3483.6	
196.99	6191	
197.2	5873.6	
197.42	3937.6	
197.63	3556	
197.84	4449.6	
198.06	5097.4	
198.27	3219.4	
198.48	4244.8	
198.7	4756.7	
198.91	4886.5	
199.13	3521.8	
199.34	3493.2	
199.55	5313.8	
199.77	4313	
199.98	3071.3	
200.19	3583.9	
200.41	4831.2	
200.62	4615.4	
200.83	3627.6	
201.05	3879.5	
201.26	4863.2	
201.47	4678.2	
201.69	3136.8	
201.9	3050.1	
202.11	4949.3	
202.33	5709.1	
202.54	3304.7	
202.76	3665.2	
202.97	5025	
203.18	5098.8	
203.4	3674.7	
203.61	3646.7	
203.82	4982	
204.04	4670.7	
204.25	3567.6	
204.46	3452.2	
204.68	4975.2	
204.89	5126.1	
205.1	3407.1	
205.32	3022.8	
205.53	5251.7	
205.74	5419.6	
205.96	2626.9	
206.17	3578.5	
206.38	5238	
206.6	5324.7	
206.81	4063.9	
207.02	3296.5	
207.24	5192.3	
207.45	5509	
207.66	3383.2	
207.88	2904	
208.09	5119.9	
208.3	4924.7	
208.52	3117	
208.73	3379.1	
208.94	4904.2	
209.15	5523.4	
209.37	3340.2	
209.58	3736.2	
209.79	5364.3	
210.01	4767.7	
210.22	2758.6	
210.43	2813.2	
210.65	4946.5	
210.86	5195.7	
211.07	3357.3	
211.29	3101.3	
211.5	5220.3	
211.71	4894	
211.93	3124.5	
212.14	3142.9	
212.35	4913.1	
212.56	5014.1	
212.78	3548.4	
212.99	2964.1	
213.2	5694	
213.42	4813.4	
213.63	3208.5	
213.84	3401	
214.06	4424.3	
214.27	4491.9	
214.48	3328.6	
214.69	3613.3	
214.91	5524.7	
215.12	5507	
215.33	3573.7	
215.55	3873.4	
215.76	6004.6	
215.97	5172.5	
216.18	3461.1	
216.4	3385.3	
216.61	4657.1	
216.82	5327.4	
217.04	3121.1	
217.25	3264.5	
217.46	5474.9	
217.67	5219.6	
217.89	2799.6	
218.1	2914.9	
218.31	4998.4	
218.53	5062.6	
218.74	3278.8	
218.95	3205.8	
219.16	4889.2	
219.38	5681.7	
219.59	3155.9	
219.8	3699.3	
220.01	6166.4	
220.23	4994.3	
220.44	4044.1	
220.65	3084.9	
220.87	5014.1	
221.08	5368.4	
221.29	2923.1	
221.5	3831.1	
221.72	6512.5	
221.93	4679.6	
222.14	3544.4	
222.35	4074.8	
222.57	4897.4	
222.78	5266	
222.99	3388	
223.2	3587.4	
223.42	5156.1	
223.63	5244.2	
223.84	2663.7	
224.05	2650.1	
224.27	6160.3	
224.48	5627.8	
224.69	4169	
224.9	3504.1	
225.12	5152	
225.33	4879.6	
225.54	2846	
225.75	3169.6	
225.97	4636.6	
226.18	4861.2	
226.39	3422.2	
226.6	3168.2	
226.82	4778.6	
227.03	4610	
227.24	3521.8	
227.45	2998.9	
227.67	5275.6	
227.88	5697.4	
228.09	3872	
228.3	3891.1	
228.52	5295.4	
228.73	4906.3	
228.94	3286.3	
229.15	2945.7	
229.36	4904.9	
229.58	4829.1	
229.79	3330	
230	3787.4	
230.21	5766.4	
230.43	4981.3	
230.64	3485.6	
230.85	3619.4	
231.06	5252.4	
231.28	5319.3	
231.49	2983.9	
231.7	3450.1	
231.91	5221.6	
232.12	4972.5	
232.34	3055.6	
232.55	3397.6	
232.76	5460.6	
232.97	5099.4	
233.18	3127.2	
233.4	3521.1	
233.61	5062.6	
233.82	4745.1	
234.03	3302	
234.25	3246	
234.46	6605.4	
234.67	4928.1	
234.88	3536.8	
235.09	3155.2	
235.31	5156.1	
235.52	4840.7	
235.73	3440.6	
235.94	3010.5	
236.15	4724.7	
236.37	5851	
236.58	3114.3	
236.79	3394.8	
237	5188.2	
237.21	4505.5	
237.43	3631.7	
237.64	2882.9	
237.85	8454.7	
238.06	4562.2	
238.27	3573.7	
238.48	2969.6	
238.7	5223.7	
238.91	4788.2	
239.12	3319.8	
239.33	3441.3	
239.54	4657.8	
239.76	4879.6	
239.97	3360	
240.18	3338.9	
240.39	5978.7	
240.6	5150.6	
240.82	3532.7	
241.03	2885.6	
241.24	4875.5	
241.45	5649.7	
241.66	3126.6	
241.87	3633.1	
242.09	5502.9	
242.3	5823.7	
242.51	3669.3	
242.72	3349.8	
242.93	5256.5	
243.14	4896.7	
243.36	3869.3	
243.57	4194.2	
243.78	5608.7	
243.99	5125.4	
244.2	3378.5	
244.41	3056.9	
244.63	4576.5	
244.84	5137.7	
245.05	3607.8	
245.26	3414.6	
245.47	5171.8	
245.68	5335	
245.9	4371.7	
246.11	3502.7	
246.32	4769.7	
246.53	5113.1	
246.74	5384.8	
246.95	2910.2	
247.16	4586.1	
247.38	4943.8	
247.59	2842.6	
247.8	3411.9	
248.01	4622.3	
248.22	4892.6	
248.43	3086.3	
248.64	3357.3	
248.86	4446.8	
249.07	4713.7	
249.28	3035.8	
249.49	3447.4	
249.7	5335.6	
249.91	5458.5	
250.12	2878.1	
250.34	2899.2	
250.55	5014.8	
250.76	4944.5	
250.97	3493.2	
251.18	3525.2	
251.39	5481.7	
251.6	5078.3	
251.81	3538.9	
252.03	3535.5	
252.24	4752	
252.45	5253	
252.66	2951.1	
252.87	3703.4	
253.08	4955.4	
253.29	6266.1	
253.5	2998.2	
253.72	4048.8	
253.93	4863.9	
254.14	5703.6	
254.35	3246.7	
254.56	3306.8	
254.77	5128.8	
254.98	4631.1	
255.19	3196.9	
255.41	3983.3	
255.62	5063.3	
255.83	5459.2	
256.04	3573.7	
256.25	3530.7	
256.46	5915.2	
256.67	4674.1	
256.88	3426.9	
257.09	3818.1	
257.31	4595	
257.52	4684.4	
257.73	4331.5	
257.94	3235.1	
258.15	4815.5	
258.36	4889.9	
258.57	3999.7	
258.78	2607.7	
258.99	5364.3	
259.2	4835.9	
259.41	3244.7	
259.63	3369.6	
259.84	5582.1	
260.05	5883.8	
260.26	4162.8	
260.47	3149.1	
260.68	5403.2	
260.89	4791.6	
261.1	3812.6	
261.31	3117	
261.52	5430.5	
261.73	5688.6	
261.95	4116.4	
262.16	3679.5	
262.37	5491.3	
262.58	5545.9	
262.79	4140.3	
263	3259	
263.21	4911	
263.42	4815.5	
263.63	3388.7	
263.84	3226.2	
264.05	5319.3	
264.26	5699.5	
264.47	3947.1	
264.69	3642.7	
264.9	5573.2	
265.11	5112.4	
265.32	3142.3	
265.53	3189.4	
265.74	5075.5	
265.95	4440.7	
266.16	3415.3	
266.37	3777.8	
266.58	5044.1	
266.79	4796.3	
267	3234.4	
267.21	3021.4	
267.42	4592.2	
267.63	4885.1	
267.84	3394.2	
268.06	2942.2	
268.27	5289.2	
268.48	5464.7	
268.69	3327.9	
268.9	3886.4	
269.11	5485.1	
269.32	4474.1	
269.53	3383.2	
269.74	3151.8	
269.95	5148.6	
270.16	4437.3	
270.37	3364.1	
270.58	3848.1	
270.79	4811.4	
271	5353.4	
271.21	3571.7	
271.42	3428.3	
271.63	5066.7	
271.84	4582	
272.05	2762	
272.26	3084.2	
272.47	4954.7	
272.68	5133.6	
272.89	3289	
273.11	3665.2	
273.32	4777.2	
273.53	5729.5	
273.74	3622.9	
273.95	3518.4	
274.16	5354.8	
274.37	4963.6	
274.58	3716.4	
274.79	2997.5	
275	5077.6	
275.21	5521.3	
275.42	4383.3	
275.63	3807.2	
275.84	5151.3	
276.05	6306.4	
276.26	3577.8	
276.47	3300	
276.68	4822.3	
276.89	5739.1	
277.1	3748.5	
277.31	2992.8	
277.52	5063.3	
277.73	5332.2	
277.94	2949.8	
278.15	3263.8	
278.36	5108.3	
278.57	4638	
278.78	3208.5	
278.99	3663.1	
279.2	4710.3	
279.41	4580.6	
279.62	4157.4	
279.83	2999.6	
280.04	5862.7	
280.25	4513.7	
280.46	4162.2	
280.67	3394.8	
280.88	4651.6	
281.09	5475.6	
281.3	3577.1	
281.51	4404.5	
281.72	4706.9	
281.93	5333.6	
282.14	3170.9	
282.35	3450.1	
282.56	5373.9	
282.77	5325.4	
282.98	3327.9	
283.19	3925.3	
283.4	6453.1	
283.61	4884.4	
283.82	3015.3	
284.03	4117.1	
284.24	5051	
284.45	5414.1	
284.66	4214.7	
284.87	3948.5	
285.08	5406	
285.29	5515.9	
285.5	2921.1	
285.71	3318.4	
285.92	5387.5	
286.12	5970.5	
286.33	4087.1	
286.54	3319.1	
286.75	5367.7	
286.96	4837.3	
287.17	3093.1	
287.38	4027	
287.59	4686.4	
287.8	4634.6	
288.01	3308.2	
288.22	3799	
288.43	5286.5	
288.64	4546.5	
288.85	3913	
289.06	3654.9	
289.27	5328.1	
289.48	5610.1	
289.69	4219.5	
289.9	3807.2	
290.11	5474.2	
290.32	4741.7	
290.53	3932.1	
290.74	3642	
290.94	5311.1	
291.15	5343.2	
291.36	3173	
291.57	3719.8	
291.78	4803.2	
291.99	4495.3	
292.2	3037.1	
292.41	3602.4	
292.62	5434.6	
292.83	5192.3	
293.04	4459.8	
293.25	3119.7	
293.46	4792.2	
293.67	5450.3	
293.88	3212.6	
294.09	3092.4	
294.29	4601.8	
294.5	5057.8	
294.71	3375.1	
294.92	3252.9	
295.13	4812.7	
295.34	5860.6	
295.55	2919.7	
295.76	2891.7	
295.97	5294	
296.18	5878.4	
296.39	2992.1	
296.6	3224.2	
296.81	5040.1	
297.01	5285.8	
297.22	3274.7	
297.43	3194.8	
297.64	4751.3	
297.85	4648.2	
298.06	2649.4	
298.27	2891	
298.48	4926.7	
298.69	4644.1	
298.9	3431	
299.11	3160	
299.31	4534.9	
299.52	4575.8	
299.73	3672.7	
299.94	3547.1	
300.15	4941.1	
300.36	4620.9	
300.57	3580.5	
300.78	3657	
300.99	4829.1	
301.2	5032.5	
301.4	3173.7	
301.61	3422.2	
301.82	5222.3	
302.03	5287.2	
302.24	3812.6	
302.45	3045.3	
302.66	5171.8	
302.87	5490.6	
303.08	3158.7	
303.29	4261.1	
303.49	4754	
303.7	4929.5	
303.91	2833	
304.12	4089.8	
304.33	4541.7	
304.54	5081	
304.75	3177.8	
304.96	3044	
305.16	5272.2	
305.37	5844.2	
305.58	2873.3	
305.79	2912.2	
306	5163.6	
306.21	4478.2	
306.42	3181.9	
306.63	4690.5	
306.83	4799.1	
307.04	5347.9	
307.25	3483.6	
307.46	3479.5	
307.67	4328.7	
307.88	5256.5	
308.09	3145.7	
308.29	3288.4	
308.5	4998.4	
308.71	5394.3	
308.92	3389.4	
309.13	3101.3	
309.34	4853	
309.55	4880.3	
309.75	3976.5	
309.96	3582.6	
310.17	5315.2	
310.38	4694.6	
310.59	3775.8	
310.8	2968.2	
311.01	5175.2	
311.21	4805.9	
311.42	3083.6	
311.63	3127.9	
311.84	4717.2	
312.05	5044.1	
312.26	3487	
312.46	3861.1	
312.67	4795	
312.88	4618.2	
313.09	3092.4	
313.3	3056.9	
313.51	5634.6	
313.71	5847	
313.92	3061.7	
314.13	3247.4	
314.34	5147.2	
314.55	4869.4	
314.76	3898.6	
314.96	3389.4	
315.17	5098.1	
315.38	5181.4	
315.59	3135.4	
315.8	2978.4	
316.01	5599.8	
316.21	5686.5	
316.42	3016	
316.63	3442	
316.84	4870.1	
317.05	5488.6	
317.26	3637.9	
317.46	3263.8	
317.67	4865.3	
317.88	5213.4	
318.09	3882.3	
318.3	2882.2	
318.5	4771.1	
318.71	5111	
318.92	4843.4	
319.13	3611.9	
319.34	5341.8	
319.54	5442.8	
319.75	2902	
319.96	2775.7	
320.17	5261.2	
320.38	5380	
320.58	2833.7	
320.79	3348.4	
321	5455.1	
321.21	5511.8	
321.42	3398.3	
321.62	2852.1	
321.83	4676.2	
322.04	5000.5	
322.25	3295.2	
322.46	3069.9	
322.66	5061.9	
322.87	5202.5	
323.08	3803.8	
323.29	3041.9	
323.5	5801.2	
323.7	4563.6	
323.91	4153.3	
324.12	3714.3	
324.33	4997	
324.53	5207.3	
324.74	3624.2	
324.95	3767.6	
325.16	4414.1	
325.37	4816.1	
325.57	3122.5	
325.78	3178.4	
325.99	5044.1	
326.2	4504.2	
326.4	4278.2	
326.61	2921.8	
326.82	4862.6	
327.03	5042.1	
327.24	4335.5	
327.44	4065.2	
327.65	5199.8	
327.86	4293.9	
328.07	3578.5	
328.27	2974.3	
328.48	5539.8	
328.69	4561.5	
328.9	4343.7	
329.1	3304.7	
329.31	4874.8	
329.52	5627.1	
329.73	3110.9	
329.93	3417.4	
330.14	4975.2	
330.35	5160.9	
330.56	4896	
330.76	3786	
330.97	4805.2	
331.18	5033.2	
331.39	3453.6	
331.59	2832.3	
331.8	5416.2	
332.01	5557.5	
332.22	3179.1	
332.42	3618.1	
332.63	5051.7	
332.84	4693.3	
333.05	3468.6	
333.25	3156.6	
333.46	4756.7	
333.67	4967	
333.88	3246.7	
334.08	3623.5	
334.29	6449.1	
334.5	5416.2	
334.7	3044.6	
334.91	4313	
335.12	4557.4	
335.33	5273.5	
335.53	3433.1	
335.74	4863.9	
335.95	4788.2	
336.16	4570.4	
336.36	3395.5	
336.57	3910.9	
336.78	4594.3	
336.98	5431.9	
337.19	4182	
337.4	3315	
337.61	5920	
337.81	4575.2	
338.02	3160	
338.23	4010.6	
338.43	5618.3	
338.64	4685.8	
338.85	3131.3	
339.05	4028.4	
339.26	5698.1	
339.47	4469.4	
339.68	3116.3	
339.88	4416.8	
340.09	5164.3	
340.3	5313.8	
340.5	3612.6	
340.71	2832.3	
340.92	4498.7	
341.13	5585.5	
341.33	3018.7	
341.54	3631.7	
341.75	5177.3	
341.95	4807.9	
342.16	3488.4	
342.37	3745.7	
342.57	4597	
342.78	4937.7	
342.99	3806.5	
343.19	2837.8	
343.4	5278.3	
343.61	5140.4	
343.81	3303.4	
344.02	3074	
344.23	5288.5	
344.43	5575.3	
344.64	3831.1	
344.85	3742.3	
345.06	5174.5	
345.26	5479.7	
345.47	3555.3	
345.68	4138.9	
345.88	4487.1	
346.09	5271.5	
346.3	3642	
346.5	2754.5	
346.71	4917.2	
346.92	4676.9	
347.12	2875.3	
347.33	3510.9	
347.54	5371.8	
347.74	5765.7	
347.95	3523.2	
348.16	2709.5	
348.36	4740.4	
348.57	4640	
348.78	3558	
348.98	3785.3	
349.19	4914.4	
349.39	4403.1	
349.6	2854.9	
349.81	3153.9	
350.01	5141.8	
350.22	4680.3	
350.43	3456.3	
350.63	4074.8	
350.84	4928.1	
351.05	4733.5	
351.25	3096.5	
351.46	2839.8	
351.67	5365	
351.87	4654.4	
352.08	3323.9	
352.29	3807.2	
352.49	5255.1	
352.7	5008.6	
352.9	2962.7	
353.11	3709.6	
353.32	5857.2	
353.52	4803.9	
353.73	3042.6	
353.94	3778.5	
354.14	5154.1	
354.35	4941.7	
354.55	3139.5	
354.76	3407.8	
354.97	5109.7	
355.17	4914.4	
355.38	2925.9	
355.59	3986.7	
355.79	4653.7	
356	4930.8	
356.2	3410.6	
356.41	3015.3	
356.62	4473.4	
356.82	4874.8	
357.03	3620.1	
357.24	3284.3	
357.44	4683	
357.65	4819.6	
357.85	4296.6	
358.06	3420.1	
358.27	4397.7	
358.47	4655	
358.68	2903.3	
358.88	3640.6	
359.09	5104.9	
359.3	5393	
359.5	4217.5	
359.71	3713.6	
359.91	5735.7	
360.12	5236.7	
360.33	3660.4	
360.53	4027	
360.74	4715.8	
360.94	4700.1	
361.15	3834.5	
361.36	3196.2	
361.56	5321.3	
361.77	4894	
361.97	4144.4	
362.18	3364.8	
362.38	5358.9	
362.59	4627.7	
362.8	3200.3	
363	2987.3	
363.21	4466.6	
363.41	5090.6	
363.62	3504.1	
363.83	4306.9	
364.03	5133.6	
364.24	5844.2	
364.44	4470	
364.65	4434.5	
364.85	4861.9	
365.06	4590.9	
365.27	3227.6	
365.47	3358.7	
365.68	5617.6	
365.88	4872.1	
366.09	3624.2	
366.29	3368.2	
366.5	5071.5	
366.71	5451.7	
366.91	4410.6	
367.12	3776.5	
367.32	5920	
367.53	5248.3	
367.73	3706.8	
367.94	4539	
368.14	5272.8	
368.35	5970.5	
368.56	3632.4	
368.76	3194.8	
368.97	5374.6	
369.17	6640.9	
369.38	3276.1	
369.58	3491.8	
369.79	4560.1	
369.99	5646.2	
370.2	4336.2	
370.4	3579.8	
370.61	5144.5	
370.82	6070.9	
371.02	3538.9	
371.23	2992.8	
371.43	4545.1	
371.64	5624.4	
371.84	3581.2	
372.05	4453	
372.25	6634.7	
372.46	5377.3	
372.66	3578.5	
372.87	3469.9	
373.07	5337	
373.28	6727.6	
373.48	4417.5	
373.69	4110.3	
373.9	5012.7	
374.1	5009.3	
374.31	4341	
374.51	3904.1	
374.72	5595.1	
374.92	4779.3	
375.13	4416.8	
375.33	3797.6	
375.54	5300.1	
375.74	4921.3	
375.95	3865.9	
376.15	4887.8	
376.36	5323.4	
376.56	5199.8	
376.77	3863.8	
376.97	4274.1	
377.18	6233.3	
377.38	5419.6	
377.59	4521.2	
377.79	3521.1	
378	5273.5	
378.2	5532.2	
378.41	3607.2	
378.61	3537.5	
378.82	5697.4	
379.02	4934.2	
379.23	3726.6	
379.43	4616.1	
379.64	5766.4	
379.84	5367.7	
380.05	3568.9	
380.25	3499.3	
380.46	5439.4	
380.66	5116.5	
380.87	4661.2	
381.07	4896	
381.28	5992.4	
381.48	5393	
381.69	3556.6	
381.89	3646.7	
382.1	4655.7	
382.3	5606	
382.51	4506.2	
382.71	5177.9	
382.91	5410.7	
383.12	5930.2	
383.32	3851.5	
383.53	4056.3	
383.73	5302.9	
383.94	5202.5	
384.14	4031.1	
384.35	3287.7	
384.55	5083.7	
384.76	5403.9	
384.96	3915.7	
385.17	4093.2	
385.37	5437.4	
385.58	4822.3	
385.78	4104.8	
385.98	3184.6	
386.19	5026.4	
386.39	5363.6	
386.6	3700.7	
386.8	3841.3	
387.01	5404.6	
387.21	5457.2	
387.42	4173.8	
387.62	4608.6	
387.83	4917.2	
388.03	5330.2	
388.23	3906.8	
388.44	4554.7	
388.64	4663.9	
388.85	4766.3	
389.05	4126	
389.26	4648.2	
389.46	6350.8	
389.67	5789.6	
389.87	4166.3	
390.07	4244.8	
390.28	5094	
390.48	4831.8	
390.69	3543	
390.89	3852.9	
391.1	5037.3	
391.3	5689.9	
391.5	4754.7	
391.71	5330.9	
391.91	5520.6	
392.12	6322.1	
392.32	4805.2	
392.53	4160.1	
392.73	5060.5	
392.93	5151.3	
393.14	3884.3	
393.34	4530.8	
393.55	5472.9	
393.75	5147.2	
393.95	3953.9	
394.16	3838.6	
394.36	4992.3	
394.57	5559.6	
394.77	3491.1	
394.98	3805.8	
395.18	5002.5	
395.38	5002.5	
395.59	4562.9	
395.79	3777.1	
396	5166.3	
396.2	5489.2	
396.4	4361.5	
396.61	4388.8	
396.81	5583.4	
397.02	5060.5	
397.22	4586.1	
397.42	4633.9	
397.63	5724.8	
397.83	4977.2	
398.04	3680.2	
398.24	4133.5	
398.44	5422.3	
398.65	4696.7	
398.85	3587.4	
399.05	3668.6	
399.26	5018.2	
399.46	6344.6	
399.67	4056.3	
399.87	3843.4	
400.07	5324	
400.28	5640.8	
400.48	3885.7	
400.69	4625.7	
400.89	5754.1	
401.09	6131.6	
401.3	3762.1	
401.5	4696	
401.7	6279.8	
401.91	6489.3	
402.11	4050.9	
402.32	4240.7	
402.52	5791.7	
402.72	5743.9	
402.93	4380.6	
403.13	3446.7	
403.33	6350.1	
403.54	5210.7	
403.74	4116.4	
403.94	4826.4	
404.15	5337	
404.35	6348	
404.56	3962.1	
404.76	5457.8	
404.96	5784.1	
405.17	5634.6	
405.37	4976.6	
405.57	4402.5	
405.78	5855.1	
405.98	5322	
406.18	4015.4	
406.39	4651.6	
406.59	5737	
406.79	5362.3	
407	3777.1	
407.2	3831.1	
407.4	5870.2	
407.61	5933.6	
407.81	3943	
408.01	5814.9	
408.22	4949.9	
408.42	6604.7	
408.62	4890.5	
408.83	4420.9	
409.03	5543.2	
409.23	5435.3	
409.44	4440	
409.64	4685.1	
409.84	6289.3	
410.05	6260	
410.25	4604.5	
410.45	4437.3	
410.66	5788.2	
410.86	7816.4	
411.06	4833.2	
411.27	4674.8	
411.47	7589.8	
411.67	5983.5	
411.88	4840	
412.08	5143.8	
412.28	6490.7	
412.49	6907.8	
412.69	4674.1	
412.89	4691.2	
413.09	6721.4	
413.3	6665.5	
413.5	4829.8	
413.7	4476.2	
413.91	6051.7	
414.11	6686.6	
414.31	4674.8	
414.52	5010	
414.72	6531	
414.92	6361	
415.12	4666	
415.33	5086.5	
415.53	6676.4	
415.73	6849.1	
415.94	5324	
416.14	4881	
416.34	5989.6	
416.55	5709.7	
416.75	5849.7	
416.95	5339.7	
417.15	6745.3	
417.36	7273	
417.56	6047	
417.76	5223	
417.97	7040.9	
418.17	6753.5	
418.37	4947.2	
418.57	4975.2	
418.78	6576.7	
418.98	6345.3	
419.18	5695.4	
419.38	5644.9	
419.59	6226.5	
419.79	6028.5	
419.99	4871.4	
420.2	5116.5	
420.4	6812.9	
420.6	6810.9	
420.8	4822.3	
421.01	4754	
421.21	6581.5	
421.41	6589	
421.61	5116.5	
421.82	4817.5	
422.02	6195.8	
422.22	6928.3	
422.42	5449	
422.63	5219.6	
422.83	6291.4	
423.03	7289.4	
423.23	5243.5	
423.44	4371.7	
423.64	6350.8	
423.84	6079.1	
424.04	4743.8	
424.25	4513.7	
424.45	7059.3	
424.65	6987	
424.85	4291.9	
425.06	4810.7	
425.26	7157.7	
425.46	6206	
425.66	5154.1	
425.87	4911.7	
426.07	6791.7	
426.27	6648.4	
426.47	5039.4	
426.67	4519.2	
426.88	7088.7	
427.08	6685.3	
427.28	5277.6	
427.48	4479.6	
427.69	5744.6	
427.89	6278.4	
428.09	5141.1	
428.29	4500.8	
428.5	6851.1	
428.7	6481.8	
428.9	4424.3	
429.1	4856.4	
429.3	6403.3	
429.51	6662	
429.71	4728.1	
429.91	5337	
430.11	6673	
430.31	6837.5	
430.52	4924.7	
430.72	5091.3	
430.92	7091.4	
431.12	6682.5	
431.32	4643.4	
431.53	5016.8	
431.73	5753.4	
431.93	7111.2	
432.13	4535.6	
432.33	4500.8	
432.54	6232	
432.74	6407.4	
432.94	4393.6	
433.14	5303.6	
433.34	6670.9	
433.55	6217	
433.75	5263.3	
433.95	6688.7	
434.15	6513.9	
434.35	6294.1	
434.56	4631.1	
434.76	4184	
434.96	6378.1	
435.16	6629.3	
435.36	4582.7	
435.56	5464	
435.77	6178	
435.97	6349.4	
436.17	5993	
436.37	5420.3	
436.57	6151.4	
436.78	6083.1	
436.98	5360.2	
437.18	5847	
437.38	6681.2	
437.58	6204	
437.78	5941.2	
437.99	4875.5	
438.19	6671.6	
438.39	7333.8	
438.59	4746.5	
438.79	4330.1	
438.99	7255.3	
439.2	6214.9	
439.4	4507.6	
439.6	4477.5	
439.8	6518	
440	7415	
440.2	5371.8	
440.4	5456.5	
440.61	6851.1	
440.81	7301	
441.01	4716.5	
441.21	5445.5	
441.41	7249.8	
441.61	6839.5	
441.81	5615.5	
442.02	6478.4	
442.22	7570.7	
442.42	6915.3	
442.62	4747.9	
442.82	4840.7	
443.02	7207.5	
443.22	6490.7	
443.43	5143.8	
443.63	4751.3	
443.83	6343.2	
444.03	6277	
444.23	5758.9	
444.43	5421	
444.63	6591	
444.83	7653.3	
445.04	4883	
445.24	5883.1	
445.44	6963.8	
445.64	6952.9	
445.84	5485.8	
446.04	5441.5	
446.24	6331.6	
446.44	7178.1	
446.65	4780	
446.85	5111.7	
447.05	6557.6	
447.25	7186.3	
447.45	5203.9	
447.65	4679.6	
447.85	6653.9	
448.05	6311.8	
448.25	5504.3	
448.46	5385.5	
448.66	6698.9	
448.86	6397.2	
449.06	4581.3	
449.26	5491.3	
449.46	6883.9	
449.66	6221.7	
449.86	5222.3	
450.06	5120.6	
450.26	6277	
450.47	6804.7	
450.67	5324	
450.87	5622.4	
451.07	6967.9	
451.27	6647.7	
451.47	4788.8	
451.67	5285.1	
451.87	6405.4	
452.07	7340.6	
452.27	4962.9	
452.47	4966.3	
452.67	6647	
452.88	7045	
453.08	4426.3	
453.28	6051.7	
453.48	7672.4	
453.68	6578.1	
453.88	4833.9	
454.08	5076.9	
454.28	6933.1	
454.48	6648.4	
454.68	5513.1	
454.88	5885.9	
455.08	7103	
455.28	6765.8	
455.48	4766.3	
455.68	5299.5	
455.89	7477.8	
456.09	7090.1	
456.29	5041.4	
456.49	5182.7	
456.69	7251.9	
456.89	6559	
457.09	5589.6	
457.29	5852.4	
457.49	6927.6	
457.69	7080.5	
457.89	5453.7	
458.09	4906.3	
458.29	6774.7	
458.49	7437.5	
458.69	5690.6	
458.89	5262.6	
459.09	7570	
459.29	7634.8	
459.49	5340.4	
459.69	5912.5	
459.9	7241.6	
460.1	6735.1	
460.3	5281.7	
460.5	5093.3	
460.7	7206.8	
460.9	6944	
461.1	4775.2	
461.3	5920.7	
461.5	7777.5	
461.7	7421.2	
461.9	5199.8	
462.1	5566.4	
462.3	7006.1	
462.5	7499	
462.7	5243.5	
462.9	5303.6	
463.1	8298.4	
463.3	7927	
463.5	5446.9	
463.7	6244.3	
463.9	7191.1	
464.1	7437.5	
464.3	5653.8	
464.5	5792.3	
464.7	7688.1	
464.9	7448.5	
465.1	6826.6	
465.3	6031.3	
465.5	7989.8	
465.7	7994.6	
465.9	6262	
466.1	6093.4	
466.3	7800.7	
466.5	7716.1	
466.7	6814.3	
466.9	5941.8	
467.1	7732.4	
467.3	8366	
467.5	6753.5	
467.7	5941.8	
467.9	8555.7	
468.1	9301.9	
468.3	6483.9	
468.5	6902.3	
468.7	7589.1	
468.9	7584.3	
469.1	6124.8	
469.3	6730.3	
469.5	9310.1	
469.7	7247.1	
469.9	6521.4	
470.1	5938.4	
470.3	7662.8	
470.5	7696.9	
470.7	6923.5	
470.9	5941.2	
471.1	7429.3	
471.3	7807.5	
471.5	5909.8	
471.69	7508.5	
471.89	7361.1	
472.09	6908.5	
472.29	6562.4	
472.49	6804.7	
472.69	7129.7	
472.89	7747.5	
473.09	5693.4	
473.29	5810.8	
473.49	7215	
473.69	7311.9	
473.89	6573.3	
474.09	5982.8	
474.29	8409.6	
474.49	8155	
474.69	6627.9	
474.89	6060.6	
475.09	7357.7	
475.29	7354.9	
475.49	5672.9	
475.69	5814.9	
475.88	8732.5	
476.08	7767.9	
476.28	5560.2	
476.48	5816.2	
476.68	7927.7	
476.88	7811.6	
477.08	5816.9	
477.28	6076.3	
477.48	7421.8	
477.68	7937.9	
477.88	5607.3	
478.08	5971.2	
478.28	8292.9	
478.48	7499	
478.67	5917.9	
478.87	5475.6	
479.07	8035.5	
479.27	7617.8	
479.47	6118.6	
479.67	6108.4	
479.87	8000.7	
480.07	8329.1	
480.27	5563	
480.47	6839.5	
480.67	7595.9	
480.87	8188.5	
481.06	5786.2	
481.26	6590.4	
481.46	7615	
481.66	7522.2	
481.86	6111.1	
482.06	6872.3	
482.26	7438.9	
482.46	8219.2	
482.66	6072.9	
482.86	5728.2	
483.05	7733.1	
483.25	7151.5	
483.45	8133.8	
483.65	6076.3	
483.85	7353.6	
484.05	7619.1	
484.25	6531.7	
484.45	6830	
484.65	8181	
484.84	8234.2	
485.04	6078.4	
485.24	6024.4	
485.44	8543.4	
485.64	7086	
485.84	5461.2	
486.04	6506.4	
486.24	7451.2	
486.44	7714	
486.63	5447.6	
486.83	6139.1	
487.03	7364.5	
487.23	7507.2	
487.43	5557.5	
487.63	7473.7	
487.83	7558.4	
488.02	8292.9	
488.22	6311.2	
488.42	6789	
488.62	8295.6	
488.82	7367.2	
489.02	6015.6	
489.22	6066.8	
489.41	8172.8	
489.61	7885.4	
489.81	5909.1	
490.01	5819.6	
490.21	8070.4	
490.41	8748.9	
490.61	5879	
490.8	5900.9	
491	7686.7	
491.2	7127.6	
491.4	6313.2	
491.6	5606.7	
491.8	7696.3	
491.99	7819.8	
492.19	5541.8	
492.39	5847	
492.59	8095.6	
492.79	8146.1	
492.99	6531.7	
493.18	5743.9	
493.38	8324.3	
493.58	8815.1	
493.78	6445.6	
493.98	6125.5	
494.18	7972.7	
494.37	7477.1	
494.57	6670.2	
494.77	6449.7	
494.97	8217.8	
495.17	8361.9	
495.37	6165.8	
495.56	6522.1	
495.76	8482	
495.96	8207.6	
496.16	7148.8	
496.36	6382.8	
496.55	8475.2	
496.75	7927	
496.95	6674.3	
497.15	6549.4	
497.35	8421.2	
497.54	8337.3	
497.74	6416.3	
497.94	7707.9	
498.14	8927.8	
498.34	8769.4	
498.53	6176	
498.73	6745.3	
498.93	7811.6	
499.13	8252.6	
499.33	6625.9	
499.52	7045	
499.72	8386.4	
499.92	8537.3	
500.12	6350.8	
500.32	6551.5	
500.51	8488.8	
500.71	8315.4	
500.91	7228	
501.11	6822.5	
501.31	8524.3	
501.5	8912.8	
501.7	7428	
501.9	6635.4	
502.1	8363.2	
502.29	8724.3	
502.49	6976.1	
502.69	7369.3	
502.89	8443.1	
503.09	8445.8	
503.28	6109.8	
503.48	6255.9	
503.68	7848.5	
503.88	7845.8	
504.07	7009.5	
504.27	6670.2	
504.47	8251.3	
504.67	8277.2	
504.86	6994.5	
505.06	6801.3	
505.26	8052.6	
505.46	9278.7	
505.65	6606.7	
505.85	6818.4	
506.05	7860.1	
506.25	8335.9	
506.44	6146.6	
506.64	6845	
506.84	7764.5	
507.04	8548.9	
507.23	6310.5	
507.43	6670.2	
507.63	9381.7	
507.83	7936.6	
508.02	6724.8	
508.22	6425.2	
508.42	9620	
508.62	7791.8	
508.81	6552.8	
509.01	7094.2	
509.21	7587.7	
509.4	7965.2	
509.6	6738.5	
509.8	6245.6	
510	7940.7	
510.19	9038.4	
510.39	6167.8	
510.59	6324.8	
510.79	7754.3	
510.98	8904.6	
511.18	6370.5	
511.38	6459.3	
511.57	8452.6	
511.77	8327	
511.97	6970.6	
512.17	6211.5	
512.36	8417.8	
512.56	8333.9	
512.76	6266.1	
512.95	5973.2	
513.15	8539.3	
513.35	7411.6	
513.55	6941.9	
513.74	6234	
513.94	8519.5	
514.14	7882.6	
514.33	6923.5	
514.53	6754.9	
514.73	7904.5	
514.92	8026	
515.12	6327.5	
515.32	6223.1	
515.51	8091.5	
515.71	8431.5	
515.91	7662.1	
516.11	6242.9	
516.3	9422.7	
516.5	7763.2	
516.7	6771.9	
516.89	7130.3	
517.09	7843	
517.29	7812.3	
517.48	7021.1	
517.68	6411.5	
517.88	7630.7	
518.07	8138.6	
518.27	6831.3	
518.47	6121.4	
518.66	8625.4	
518.86	7505.1	
519.06	5917.3	
519.25	6335.7	
519.45	7760.4	
519.65	8970.8	
519.84	6805.4	
520.04	7428.7	
520.24	9297.8	
520.43	8274.5	
520.63	6604.7	
520.83	6333	
521.02	7656	
521.22	8037.6	
521.42	6816.3	
521.61	7248.4	
521.81	7768.6	
522.01	8031.5	
522.2	6739.2	
522.4	6496.8	
522.6	8474.5	
522.79	7400.7	
522.99	6593.1	
523.18	5980.8	
523.38	8160.5	
523.58	8159.8	
523.77	7463.5	
523.97	5984.2	
524.17	9683.5	
524.36	8975.6	
524.56	7120.1	
524.76	6788.3	
524.95	8122.2	
525.15	7823.2	
525.34	6602.7	
525.54	6630.6	
525.74	8476.5	
525.93	7673.1	
526.13	7572.7	
526.33	6657.9	
526.52	8754.4	
526.72	8235.6	
526.91	7674.4	
527.11	7076.4	
527.31	8792.6	
527.5	9100.5	
527.7	7055.9	
527.89	6118.6	
528.09	7931.1	
528.29	8340.7	
528.48	7256.6	
528.68	7118.7	
528.87	8677.9	
529.07	8741.4	
529.27	6901.7	
529.46	6636.8	
529.66	8439	
529.85	8677.2	
530.05	6390.3	
530.25	7038.2	
530.44	9467.1	
530.64	8339.3	
530.83	6767.2	
531.03	6959	
531.23	8789.2	
531.42	8522.3	
531.62	7575.4	
531.81	6905.8	
532.01	8910	
532.21	9114.1	
532.4	6744.6	
532.6	7075.7	
532.79	9539.4	
532.99	8785.8	
533.18	7188.4	
533.38	7914.7	
533.58	8486.8	
533.77	9086.8	
533.97	6973.3	
534.16	7776.1	
534.36	9265.7	
534.55	8521.6	
534.75	7793.2	
534.95	7092.1	
535.14	9207	
535.34	8490.2	
535.53	6786.3	
535.73	8344.1	
535.92	9686.9	
536.12	8539.3	
536.31	6883.9	
536.51	7949.5	
536.71	8892.3	
536.9	8535.3	
537.1	6964.5	
537.29	7116.7	
537.49	9233.6	
537.68	8464.3	
537.88	7479.9	
538.07	6660	
538.27	8709.3	
538.46	9511.4	
538.66	6599.2	
538.86	7096.9	
539.05	8696.4	
539.25	9050.7	
539.44	7233.4	
539.64	6995.9	
539.83	8532.5	
540.03	9447.3	
540.22	6892.1	
540.42	6946	
540.61	8794	
540.81	8846.5	
541	7397.9	
541.2	7873.8	
541.39	8368	
541.59	8653.4	
541.78	7598	
541.98	6892.8	
542.18	8172.1	
542.37	8023.9	
542.57	7141.3	
542.76	7507.2	
542.96	8155.7	
543.15	8730.5	
543.35	7197.2	
543.54	6588.3	
543.74	8923.7	
543.93	8610.3	
544.13	7094.8	
544.32	8021.9	
544.52	8873.2	
544.71	8168.7	
544.91	6412.9	
545.1	7412.3	
545.3	8262.9	
545.49	8778.3	
545.69	6315.9	
545.88	6794.5	
546.08	9527.2	
546.27	9156.5	
546.47	7349.5	
546.66	6642.2	
546.86	8991.3	
547.05	9445.9	
547.24	6809.5	
547.44	6804	
547.63	8092.2	
547.83	8972.8	
548.02	7043.6	
548.22	7240.3	
548.41	7902.4	
548.61	9056.8	
548.8	6589	
549	6692.8	
549.19	8465.6	
549.39	8800.1	
549.58	6384.9	
549.78	6885.3	
549.97	8766	
550.17	8266.3	
550.36	7587.7	
550.55	8429.4	
550.75	8287.4	
550.94	9054.8	
551.14	6614.3	
551.33	6880.5	
551.53	7728.4	
551.72	8614.4	
551.92	6931	
552.11	6635.4	
552.31	8677.9	
552.5	8677.2	
552.69	8145.5	
552.89	6335	
553.08	8527.7	
553.28	8297	
553.47	6722.1	
553.67	7658	
553.86	9080.7	
554.06	7732.4	
554.25	6070.9	
554.44	6483.9	
554.64	9708.1	
554.83	9211.8	
555.03	6522.8	
555.22	6748.1	
555.42	8652.7	
555.61	8459.5	
555.8	6647	
556	6867.5	
556.19	7776.1	
556.39	8884.8	
556.58	6575.3	
556.78	6715.3	
556.97	8446.5	
557.16	8112.7	
557.36	7690.8	
557.55	6386.9	
557.75	7570.7	
557.94	9032.9	
558.13	6515.3	
558.33	6224.5	
558.52	8912.1	
558.72	7849.9	
558.91	6296.1	
559.1	6541.2	
559.3	7660.1	
559.49	7430.7	
559.69	6057.9	
559.88	6812.9	
560.07	8293.6	
560.27	8744.8	
560.46	6977.4	
560.66	7152.9	
560.85	8205.5	
561.04	7487.4	
561.24	6359.6	
561.43	6496.2	
561.63	7693.5	
561.82	7925.6	
562.01	7417.1	
562.21	6687.3	
562.4	8251.9	
562.59	9095.7	
562.79	6704.4	
562.98	6294.1	
563.18	8241.7	
563.37	9402.9	
563.56	7040.9	
563.76	6233.3	
563.95	7793.9	
564.14	7705.8	
564.34	6619	
564.53	6299.6	
564.73	8208.9	
564.92	8429.4	
565.11	6729.6	
565.31	6210.8	
565.5	8686.8	
565.69	7785	
565.89	6402.6	
566.08	6625.9	
566.27	8559.8	
566.47	8974.2	
566.66	7168.6	
566.85	6053.8	
567.05	8292.9	
567.24	7801.4	
567.44	6348.7	
567.63	7412.3	
567.82	8475.9	
568.02	8221.2	
568.21	6295.5	
568.4	6593.8	
568.6	8104.5	
568.79	8079.2	
568.98	6238.8	
569.18	6284.5	
569.37	8110	
569.56	9793.4	
569.76	6658.6	
569.95	7406.8	
570.14	8529.8	
570.34	8295	
570.53	6236.1	
570.72	6249.7	
570.91	8841.8	
571.11	8163.2	
571.3	6707.8	
571.49	7432.1	
571.69	8232.2	
571.88	7759.1	
572.07	7116.7	
572.27	7093.5	
572.46	7783	
572.65	8629.5	
572.85	6404	
573.04	6737.8	
573.23	8882.7	
573.43	8260.1	
573.62	6257.2	
573.81	6809.5	
574	8234.9	
574.2	8130.4	
574.39	6608.8	
574.58	6659.3	
574.78	8895.7	
574.97	8400.8	
575.16	7094.2	
575.36	7057.3	
575.55	8713.4	
575.74	8862.9	
575.93	6221.7	
576.13	7048.4	
576.32	8135.2	
576.51	8653.4	
576.71	6661.4	
576.9	7756.3	
577.09	8889.5	
577.28	8464.3	
577.48	6948.8	
577.67	6195.8	
577.86	8237.6	
578.05	8473.1	
578.25	6747.4	
578.44	6776.7	
578.63	8298.4	
578.83	9358.5	
579.02	6341.9	
579.21	7510.6	
579.4	8470.4	
579.6	8162.5	
579.79	6858	
579.98	8572.1	
580.17	8772.1	
580.37	8812.4	
580.56	6410.1	
580.75	7070.3	
580.94	9088.2	
581.14	9024.7	
581.33	7375.4	
581.52	6627.2	
581.71	8606.2	
581.91	9182.4	
582.1	6298.2	
582.29	6810.2	
582.48	8338.6	
582.68	8255.4	
582.87	7239.6	
583.06	6862.1	
583.25	8666.3	
583.45	8137.9	
583.64	7407.5	
583.83	7933.8	
584.02	8148.2	
584.21	8687.5	
584.41	7323.5	
584.6	6808.8	
584.79	8352.3	
584.98	8839.7	
585.18	6389	
585.37	6447.7	
585.56	8006.2	
585.75	8582.4	
585.94	6643.6	
586.14	7095.5	
586.33	9051.3	
586.52	8259.5	
586.71	6948.8	
586.91	6726.9	
587.1	7817.8	
587.29	8649.9	
587.48	6689.3	
587.67	6594.5	
587.87	8570.7	
588.06	8549.6	
588.25	7721.5	
588.44	7118.7	
588.63	8254	
588.83	8773.5	
589.02	6686.6	
589.21	6525.5	
589.4	8134.5	
589.59	8002.8	
589.78	5956.2	
589.98	6139.1	
590.17	7662.8	
590.36	8127.7	
590.55	5575.3	
590.74	6354.8	
590.94	9150.3	
591.13	8002.8	
591.32	6167.8	
591.51	5859.2	
591.7	8372.1	
591.89	8046.5	
592.09	5877	
592.28	6292	
592.47	7393.8	
592.66	8910.7	
592.85	5911.1	
593.05	5999.9	
593.24	7782.3	
593.43	8419.2	
593.62	6137.8	
593.81	6544.6	
594	7865.6	
594.19	7979.6	
594.39	6049	
594.58	6039.5	
594.77	8175.5	
594.96	8468.4	
595.15	5982.1	
595.34	6548	
595.54	8132.5	
595.73	7416.4	
595.92	5466.7	
596.11	6490.7	
596.3	8553	
596.49	7527.7	
596.68	6198.5	
596.88	6541.9	
597.07	8279.9	
597.26	7296.2	
597.45	5778	
597.64	6750.1	
597.83	7507.9	
598.02	8061.5	
598.22	5838.8	
598.41	6386.2	
598.6	7853.3	
598.79	7376.1	
598.98	5842.2	
599.17	6574	
599.36	7834.8	
599.55	8804.9	
599.74	7598.6	
599.94	7290.8	
600.13	8411	
600.32	7339.9	
600.51	5627.8	
600.7	5814.2	
600.89	8769.4	
601.08	8817.9	
601.27	5565	
601.47	6343.2	
601.66	8187.1	
601.85	8703.2	
602.04	6196.5	
602.23	6327.5	
602.42	7449.8	
602.61	8010.3	
602.8	6049.7	
602.99	5932.3	
603.18	7714	
603.37	7866.2	
603.57	6382.8	
603.76	6817.7	
603.95	8534.6	
604.14	8116.1	
604.33	5936.4	
604.52	6168.5	
604.71	7892.9	
604.9	7536.5	
605.09	6776.7	
605.28	6559.6	
605.47	8378.9	
605.66	7978.2	
605.86	6347.3	
606.05	5909.1	
606.24	8309.3	
606.43	7097.6	
606.62	6248.4	
606.81	6795.8	
607	8137.3	
607.19	7604.8	
607.38	5701.5	
607.57	5986.2	
607.76	7434.1	
607.95	6985.6	
608.14	6303.6	
608.33	6784.2	
608.52	7358.4	
608.72	8114.1	
608.91	5591	
609.1	5529.5	
609.29	7621.2	
609.48	7065.5	
609.67	6338.5	
609.86	5626.5	
610.05	7225.2	
610.24	7472.4	
610.43	5492.7	
610.62	5177.3	
610.81	8365.3	
611	8198	
611.19	5604.6	
611.38	6165.8	
611.57	7720.2	
611.76	8705.2	
611.95	5497.4	
612.14	5317.2	
612.33	7513.3	
612.52	7154.9	
612.71	5942.5	
612.9	5223	
613.09	6861.4	
613.28	8705.9	
613.47	5867.4	
613.66	6444.3	
613.85	7662.1	
614.04	7258.7	
614.24	5707.7	
614.43	5050.3	
614.62	7681.2	
614.81	7661.5	
615	6185.5	
615.19	6170.5	
615.38	7124.2	
615.57	7444.4	
615.76	6017.6	
615.95	6840.9	
616.14	7755	
616.33	7479.2	
616.52	6307.7	
616.71	6452.5	
616.9	7709.9	
617.09	7604.8	
617.28	5829.9	
617.47	6721.4	
617.66	7013.6	
617.85	7045	
618.04	6486.6	
618.22	6066.8	
618.41	7299	
618.6	8017.1	
618.79	5976	
618.98	5771.9	
619.17	8245.8	
619.36	6812.9	
619.55	5851	
619.74	5926.8	
619.93	7687.4	
620.12	7165.8	
620.31	6333.7	
620.5	6509.8	
620.69	8169.3	
620.88	8458.8	
621.07	7068.2	
621.26	6281.8	
621.45	7809.6	
621.64	7802.8	
621.83	6324.1	
622.02	5677.7	
622.21	7899.7	
622.4	7675.1	
622.59	6806.8	
622.78	6643.6	
622.97	7386.3	
623.16	8141.4	
623.35	6313.9	
623.54	5638.1	
623.72	7526.3	
623.91	7656	
624.1	6535.8	
624.29	5462.6	
624.48	8516.1	
624.67	7941.3	
624.86	6467.5	
625.05	5694.7	
625.24	8596.7	
625.43	7307.8	
625.62	7828.7	
625.81	5851	
626	8186.4	
626.19	7544.7	
626.38	6526.9	
626.56	5956.9	
626.75	7407.5	
626.94	8023.9	
627.13	6513.2	
627.32	5456.5	
627.51	7983.7	
627.7	8957.8	
627.89	5669.5	
628.08	6543.3	
628.27	7276.4	
628.46	7475.8	
628.65	5831.9	
628.83	5569.1	
629.02	7974.1	
629.21	7328.3	
629.4	6202.6	
629.59	6307.1	
629.78	7232.7	
629.97	8090.2	
630.16	6303	
630.35	5890	
630.54	8537.3	
630.72	8215.1	
630.91	5911.1	
631.1	6356.9	
631.29	7742.7	
631.48	7864.9	
631.67	6448.4	
631.86	6001.2	
632.05	7471	
632.24	7505.8	
632.42	5738.4	
632.61	6272.9	
632.8	7476.5	
632.99	7177.4	
633.18	6227.2	
633.37	6578.8	
633.56	7712	
633.75	7587.7	
633.93	6252.4	
634.12	5933	
634.31	8474.5	
634.5	8062.2	
634.69	5983.5	
634.88	6445	
635.07	7559.7	
635.25	8114.1	
635.44	6774	
635.63	6934.4	
635.82	7427.3	
636.01	6931	
636.2	6660	
636.39	6350.8	
636.57	8386.4	
636.76	8102.4	
636.95	5819.6	
637.14	6905.1	
637.33	7793.2	
637.52	8497	
637.7	5638.1	
637.89	6518.7	
638.08	7496.9	
638.27	8618.5	
638.46	6500.9	
638.65	6846.4	
638.83	8588.5	
639.02	7288	
639.21	6447	
639.4	6819.7	
639.59	7701	
639.78	7404.8	
639.96	5860.6	
640.15	5777.3	
640.34	7623.2	
640.53	7708.6	
640.72	5698.1	
640.91	5871.5	
641.09	7120.8	
641.28	8198.7	
641.47	5932.3	
641.66	6559.6	
641.85	7699.7	
642.03	7903.8	
642.22	6401.3	
642.41	5986.2	
642.6	7159.7	
642.79	6730.3	
642.97	5819.6	
643.16	6395.1	
643.35	7206.8	
643.54	6984.9	
643.73	5674.2	
643.91	6352.1	
644.1	6922.1	
644.29	7420.5	
644.48	5810.1	
644.67	5797.8	
644.85	7034.1	
645.04	7433.4	
645.23	5477.6	
645.42	5710.4	
645.6	7034.8	
645.79	7985.7	
645.98	5681.7	
646.17	4906.9	
646.36	6799.3	
646.54	7244.3	
646.73	6343.2	
646.92	5420.3	
647.11	6944	
647.29	7776.8	
647.48	5401.9	
647.67	5225.1	
647.86	7928.4	
648.05	7977.5	
648.23	5638.1	
648.42	6743.3	
648.61	7512.6	
648.8	7178.8	
648.98	5355.4	
649.17	5556.8	
649.36	6901.7	
649.55	6435.4	
649.73	5417.6	
649.92	6041.5	
650.11	6766.5	
650.3	7062.1	
650.48	5525.4	
650.67	5266	
650.86	7303.1	
651.05	6387.6	
651.23	5506.3	
651.42	5371.1	
651.61	6868.2	
651.79	6781.5	
651.98	5582.1	
652.17	5303.6	
652.36	7216.4	
652.54	6461.3	
652.73	5362.9	
652.92	5177.3	
653.11	7276.4	
653.29	7251.9	
653.48	4790.9	
653.67	5507.7	
653.85	7030.7	
654.04	7890.1	
654.23	5766.4	
654.42	5350.7	
654.6	6694.8	
654.79	7212.9	
654.98	4922.6	
655.16	5391.6	
655.35	6315.9	
655.54	6218.3	
655.73	4990.2	
655.91	4838	
656.1	7139.2	
656.29	6225.1	
656.47	4588.1	
656.66	5957.5	
656.85	6497.5	
657.03	6484.6	
657.22	5034.6	
657.41	5078.3	
657.59	6488.6	
657.78	6338.5	
657.97	4773.8	
658.16	5391.6	
658.34	7175.4	
658.53	7407.5	
658.72	6115.9	
658.9	6407.4	
659.09	6666.8	
659.28	6669.6	
659.46	5081.7	
659.65	5044.8	
659.84	6419.7	
660.02	6911.9	
660.21	5051	
660.4	4964.3	
660.58	7174.7	
660.77	6748.1	
660.96	5453.1	
661.14	4686.4	
661.33	7574.1	
661.52	7595.2	
661.7	4641.4	
661.89	7588.4	
662.08	6338.5	
662.26	6018.3	
662.45	4840	
662.64	4954	
662.82	7032.7	
663.01	6317.3	
663.2	5001.8	
663.38	5632.6	
663.57	6888	
663.75	6787.7	
663.94	5277.6	
664.13	6367.1	
664.31	6398.5	
664.5	6929.6	
664.69	5580.7	
664.87	5954.8	
665.06	6183.5	
665.25	6696.9	
665.43	6153.5	
665.62	6178	
665.8	6984.3	
665.99	6502.3	
666.18	5335	
666.36	5325.4	
666.55	6973.3	
666.74	6858	
666.92	4873.5	
667.11	6250.4	
667.29	6423.8	
667.48	6954.9	
667.67	5937.7	
667.85	5184.1	
668.04	6500.9	
668.22	6455.9	
668.41	5383.4	
668.6	5430.5	
668.78	6259.3	
668.97	6496.2	
669.15	5617.6	
669.34	4685.1	
669.53	6327.5	
669.71	6617.7	
669.9	4844.8	
670.08	5430.5	
670.27	6268.1	
670.46	6876.4	
670.64	5591.6	
670.83	5732.3	
671.01	6182.8	
671.2	6726.9	
671.38	4932.9	
671.57	4863.9	
671.76	7239.6	
671.94	7739.3	
672.13	4841.4	
672.31	5707	
672.5	7021.1	
672.69	6248.4	
672.87	4995	
673.06	5191.6	
673.24	6692.1	
673.43	6358.9	
673.61	5536.3	
673.8	5180	
673.98	6853.9	
674.17	6994.5	
674.36	5657.2	
674.54	5539.1	
674.73	6636.1	
674.91	6916	
675.1	5268.1	
675.28	4907.6	
675.47	6459.3	
675.65	6862.1	
675.84	5227.1	
676.03	5469.4	
676.21	6423.8	
676.4	5896.8	
676.58	5880.4	
676.77	5652.4	
676.95	7574.1	
677.14	6281.8	
677.32	4887.8	
677.51	4786.8	
677.69	6962.4	
677.88	6041.5	
678.06	4802.5	
678.25	4956.1	
678.44	6547.4	
678.62	6303	
678.81	4712.4	
678.99	5470.8	
679.18	7242.3	
679.36	6789	
679.55	5084.4	
679.73	5685.2	
679.92	6850.5	
680.1	6338.5	
680.29	6148	
680.47	5086.5	
680.66	6346.7	
680.84	6930.3	
681.03	4616.1	
681.21	5393.7	
681.4	6272.9	
681.58	6233.3	
681.77	4996.4	
681.95	4924	
682.14	7008.1	
682.32	7258	
682.51	5665.4	
682.69	4682.3	
682.88	6237.4	
683.06	6735.8	
683.25	5420.3	
683.43	5783.5	
683.62	6507.1	
683.8	6809.5	
683.99	5936.4	
684.17	5319.3	
684.36	7543.4	
684.54	6451.1	
684.73	4636.6	
684.91	4887.8	
685.1	6721.4	
685.28	6236.1	
685.46	5215.5	
685.65	5406	
685.83	6857.3	
686.02	6417.7	
686.2	4964.3	
686.39	4963.6	
686.57	6172.6	
686.76	7346.1	
686.94	4858.5	
687.13	4984.8	
687.31	6740.5	
687.5	6398.5	
687.68	4444.1	
687.86	5582.8	
688.05	7771.4	
688.23	5937.1	
688.42	5560.9	
688.6	4956.8	
688.79	6243.6	
688.97	6291.4	
689.16	5278.3	
689.34	4376.5	
689.52	6820.4	
689.71	7062.1	
689.89	5507	
690.08	4898.1	
690.26	6456.6	
690.45	6367.8	
690.63	5586.9	
690.81	5039.4	
691	6310.5	
691.18	6225.8	
691.37	5188.2	
691.55	6908.5	
691.74	6191	
691.92	7905.2	
692.1	5153.4	
692.29	4629.1	
692.47	6427.9	
692.66	5823.7	
692.84	4797.7	
693.02	5301.5	
693.21	5844.2	
693.39	6260	
693.58	5421	
693.76	4855.7	
693.94	7290.1	
694.13	7053.2	
694.31	4862.6	
694.5	5730.9	
694.68	6164.4	
694.86	6398.5	
695.05	5091.9	
695.23	5256.5	
695.42	6745.3	
695.6	8567.3	
695.78	5664.7	
695.97	4861.9	
696.15	6754.2	
696.34	6229.9	
696.52	4733.5	
696.7	5470.8	
696.89	6518.7	
697.07	6059.3	
697.25	5398.4	
697.44	6595.8	
697.62	6562.4	
697.81	6756.9	
697.99	5158.2	
698.17	5444.9	
698.36	6003.3	
698.54	6585.6	
698.72	5340.4	
698.91	4558.8	
699.09	6237.4	
699.28	6071.5	
699.46	5090.6	
699.64	4943.1	
699.83	6052.4	
700.01	7015.7	
700.19	5711.8	
700.38	4270.7	
700.56	6978.8	
700.74	6081.8	
700.93	4679.6	
701.11	5316.5	
701.29	6606.1	
701.48	7434.8	
701.66	4772.4	
701.84	4818.2	
702.03	6182.8	
702.21	6773.3	
702.39	4451.6	
702.58	4934.2	
702.76	6549.4	
702.94	6615.6	
703.13	4467.3	
703.31	6439.5	
703.49	5957.5	
703.68	6698.9	
703.86	4616.8	
704.04	5423.7	
704.23	6326.2	
704.41	6668.9	
704.59	4772.4	
704.78	5698.1	
704.96	7318.1	
705.14	6660	
705.33	4540.3	
705.51	5244.8	
705.69	6206	
705.87	6825.9	
706.06	5420.3	
706.24	4483.7	
706.42	6524.8	
706.61	6636.8	
706.79	5472.9	
706.97	4542.4	
707.16	6029.2	
707.34	6473.6	
707.52	5416.9	
707.7	4698.7	
707.89	6107.7	
708.07	5784.8	
708.25	5441.5	
708.44	5501.5	
708.62	6017.6	
708.8	6963.8	
708.98	5655.1	
709.17	4711.7	
709.35	6337.8	
709.53	6332.3	
709.72	4513	
709.9	4922	
710.08	6567.2	
710.26	6548	
710.45	5883.1	
710.63	4749.2	
710.81	6278.4	
710.99	6251.8	
711.18	5254.4	
711.36	4886.5	
711.54	6213.5	
711.72	6761.7	
711.91	4986.1	
712.09	4519.2	
712.27	6357.6	
712.45	7155.6	
712.64	5110.4	
712.82	4293.9	
713	5807.4	
713.18	5986.2	
713.37	4355.3	
713.55	5458.5	
713.73	6718.7	
713.91	5571.8	
714.1	4811.4	
714.28	4294.6	
714.46	6455.2	
714.64	5812.8	
714.83	3956.7	
715.01	4646.8	
715.19	5903.6	
715.37	5277.6	
715.55	4360.1	
715.74	4557.4	
715.92	6585.6	
716.1	4939	
716.28	5483.8	
716.47	4749.9	
716.65	5641.5	
716.83	5661.3	
717.01	4622.3	
717.19	4620.9	
717.38	7281.9	
717.56	5362.9	
717.74	4741	
717.92	4054.3	
718.1	6332.3	
718.29	5726.1	
718.47	3717.1	
718.65	4269.3	
718.83	6243.6	
719.01	6092	
719.2	3543.7	
719.38	4515.1	
719.56	5851.7	
719.74	7207.5	
719.92	4192.9	
720.11	5072.8	
720.29	6005.3	
720.47	5215.5	
720.65	3812.6	
720.83	4595	
721.02	5569.1	
721.2	5373.9	
721.38	4584	
721.56	3990.8	
721.74	4980.7	
721.92	5112.4	
722.11	4990.2	
722.29	4779.3	
722.47	6081.8	
722.65	5441.5	
722.83	3950.5	
723.01	4743.1	
723.2	5497.4	
723.38	5711.8	
723.56	3521.1	
723.74	4449.6	
723.92	5025.7	
724.1	6012.2	
724.29	3915	
724.47	4900.8	
724.65	5170.4	
724.83	5031.9	
725.01	3889.1	
725.19	4584.7	
725.37	5150.6	
725.56	5152.7	
725.74	3673.4	
725.92	3904.1	
726.1	5060.5	
726.28	5271.5	
726.46	4245.4	
726.64	4025.6	
726.83	5345.2	
727.01	5498.8	
727.19	3650.8	
727.37	4365.6	
727.55	5444.2	
727.73	5921.4	
727.91	3663.1	
728.09	3550.5	
728.28	5873.6	
728.46	6142.5	
728.64	4397	
728.82	4356	
729	6652.5	
729.18	6107.7	
729.36	3710.9	
729.54	5573.9	
729.72	6854.6	
729.91	5428.5	
730.09	5342.5	
730.27	4284.4	
730.45	5388.9	
730.63	5902.9	
730.81	4746.5	
730.99	3924.6	
731.17	6343.9	
731.35	5092.6	
731.53	4365.6	
731.71	4078.2	
731.9	6105.7	
732.08	6170.5	
732.26	4270.7	
732.44	3932.1	
732.62	6253.1	
732.8	5803.9	
732.98	4584	
733.16	3778.5	
733.34	5859.2	
733.52	4791.6	
733.7	4276.2	
733.88	4475.5	
734.07	5706.3	
734.25	5481	
734.43	3765.5	
734.61	5025	
734.79	6774	
734.97	5356.8	
735.15	3886.4	
735.33	4123.9	
735.51	5665.4	
735.69	5412.1	
735.87	5403.9	
736.05	4339.6	
736.23	5535	
736.41	5321.3	
736.59	4173.8	
736.77	4285.7	
736.95	5901.6	
737.13	5360.9	
737.32	3941	
737.5	4052.2	
737.68	6412.2	
737.86	5354.1	
738.04	3738.2	
738.22	5260.5	
738.4	5134.9	
738.58	5468.1	
738.76	4279.6	
738.94	3389.4	
739.12	5272.2	
739.3	5185.5	
739.48	4764.3	
739.66	4514.4	
739.84	5516.5	
740.02	5425.8	
740.2	3448.8	
740.38	3741	
740.56	5816.2	
740.74	4820.9	
740.92	4278.2	
741.1	4244.1	
741.28	5366.4	
741.46	5165.7	
741.64	3982.6	
741.82	4399	
742	5427.8	
742.18	5322.7	
742.36	4109.6	
742.54	3773.7	
742.72	5808	
742.9	4760.2	
743.08	4478.2	
743.26	3381.2	
743.44	5989.6	
743.62	5878.4	
743.8	4535.6	
743.98	3847.5	
744.16	5614.8	
744.34	5345.2	
744.52	4480.3	
744.7	4399	
744.88	5754.8	
745.06	5308.3	
745.24	4521.2	
745.42	4575.2	
745.6	5851	
745.78	5685.2	
745.96	3610.6	
746.14	3857	
746.32	6504.3	
746.5	5866.7	
746.68	4349.9	
746.86	3869.3	
747.03	6128.2	
747.21	4799.8	
747.39	4321.2	
747.57	3895.2	
747.75	5444.2	
747.93	5821.7	
748.11	3831.1	
748.29	3796.3	
748.47	6817.7	
748.65	5293.3	
748.83	4460.5	
749.01	4223.6	
749.19	5674.2	
749.37	4940.4	
749.55	4089.8	
749.73	4151.9	
749.91	5433.3	
750.09	5200.5	
750.26	4222.9	
750.44	3780.6	
750.62	5412.1	
750.8	5367.7	
750.98	3596.9	
751.16	3919.8	
751.34	5517.9	
751.52	4889.9	
751.7	4583.4	
751.88	3572.3	
752.06	5865.4	
752.24	5661.3	
752.42	3562.1	
752.59	3855.6	
752.77	5418.9	
752.95	6436.8	
753.13	4482.3	
753.31	3985.3	
753.49	5107	
753.67	5464.7	
753.85	4231.1	
754.03	3900.7	
754.21	5786.9	
754.38	6037.4	
754.56	3986.7	
754.74	3239.9	
754.92	5152.7	
755.1	5717.2	
755.28	3319.8	
755.46	3339.6	
755.64	6431.3	
755.82	6582.9	
755.99	3700.7	
756.17	3745.7	
756.35	4546.5	
756.53	5837.4	
756.71	2808.4	
756.89	3580.5	
757.07	5466	
757.25	4702.1	
757.42	4046.1	
757.6	4735.6	
757.78	5506.3	
757.96	4682.3	
758.14	3819.5	
758.32	3336.1	
758.5	4300.1	
758.67	4987.5	
758.85	3682.9	
759.03	3725.9	
759.21	5161.6	
759.39	4655	
759.57	3263.8	
759.75	4267.3	
759.92	5543.9	
760.1	5118.6	
760.28	4463.2	
760.46	4693.9	
760.64	4919.9	
760.82	4681.7	
760.99	4358.8	
761.17	3695.2	
761.35	5558.2	
761.53	4693.3	
761.71	3766.2	
761.89	4341.7	
762.06	5429.8	
762.24	5031.2	
762.42	3804.4	
762.6	3624.9	
762.78	4946.5	
762.96	5515.9	
763.13	4163.5	
763.31	3886.4	
763.49	5651.7	
763.67	4957.4	
763.85	4513	
764.02	5027.8	
764.2	5866.7	
764.38	5115.1	
764.56	3762.1	
764.74	4497.3	
764.91	5924.1	
765.09	4993.6	
765.27	3541.6	
765.45	3335.5	
765.63	6014.2	
765.8	5856.5	
765.98	3077.4	
766.16	3431.7	
766.34	4739.7	
766.52	4515.1	
766.69	4168.3	
766.87	3300	
767.05	5051	
767.23	5694.7	
767.41	3526.6	
767.58	3764.8	
767.76	5484.5	
767.94	5542.5	
768.12	3642	
768.29	4189.5	
768.47	5124.7	
768.65	5723.4	
768.83	3327.9	
769	4184.7	
769.18	4731.5	
769.36	5319.9	
769.54	4282.3	
769.72	3345.7	
769.89	5655.1	
770.07	5687.9	
770.25	3614	
770.43	4696.7	
770.6	6273.6	
770.78	6548	
770.96	3782.6	
771.14	4291.9	
771.31	5504.3	
771.49	4986.8	
771.67	3085.6	
771.85	3293.8	
772.02	4357.4	
772.2	4955.4	
772.38	3938.9	
772.55	3512.9	
772.73	5193	
772.91	5085.8	
773.09	3788.1	
773.26	3908.9	
773.44	5177.3	
773.62	4921.3	
773.8	3434.4	
773.97	3246	
774.15	5308.3	
774.33	4974.5	
774.5	3376.4	
774.68	3609.2	
774.86	5434.6	
775.04	4954	
775.21	3445.4	
775.39	3422.2	
775.57	5171.1	
775.74	5482.4	
775.92	3241.9	
776.1	3139.5	
776.27	5175.2	
776.45	6196.5	
776.63	3451.5	
776.81	3026.9	
776.98	4911.7	
777.16	5788.9	
777.34	3551.9	
777.51	3833.1	
777.69	4931.5	
777.87	4698.7	
778.04	3620.8	
778.22	4104.1	
778.4	4758.8	
778.57	5270.1	
778.75	2988.7	
778.93	3307.5	
779.1	4594.3	
779.28	4424.3	
779.46	3021.4	
779.64	3319.1	
779.81	5416.9	
779.99	6171.2	
780.17	4067.3	
780.34	4207.9	
780.52	4977.2	
780.69	5157.5	
780.87	3722.5	
781.05	3319.8	
781.22	5053.7	
781.4	5074.9	
781.58	3475.4	
781.75	2807.8	
781.93	5072.1	
782.11	4534.2	
782.28	4230.4	
782.46	3429	
782.64	4441.4	
782.81	5169.1	
782.99	3562.8	
783.17	3476.8	
783.34	5072.8	
783.52	4487.1	
783.69	3672.7	
783.87	4351.9	
784.05	4550.6	
784.22	4547.9	
784.4	4285	
784.58	3779.2	
784.75	5366.4	
784.93	4624.3	
785.1	3474.7	
785.28	3969.6	
785.46	5180.7	
785.63	4561.5	
785.81	3437.9	
785.99	3282.2	
786.16	4741.7	
786.34	4985.4	
786.51	3371.6	
786.69	3721.8	
786.87	4365.6	
787.04	4853.7	
787.22	3272.7	
787.39	4049.5	
787.57	4588.8	
787.75	5504.3	
787.92	4222.2	
788.1	4125.3	
788.27	4568.3	
788.45	4367.6	
788.63	3925.3	
788.8	2869.9	
788.98	4935.6	
789.15	4242	
789.33	2964.8	
789.5	3460.4	
789.68	5377.3	
789.86	5427.1	
790.03	3865.9	
790.21	3360	
790.38	5418.9	
790.56	4718.5	
790.73	3282.9	
790.91	3349.8	
791.09	4575.8	
791.26	5193.6	
791.44	3538.9	
791.61	3039.2	
791.79	4556	
791.96	4625	
792.14	3137.5	
792.32	2783.2	
792.49	4554.7	
792.67	4702.8	
792.84	3189.4	
793.02	3067.9	
793.19	4996.4	
793.37	5565	
793.54	2823.5	
793.72	3095.8	
793.89	5547.9	
794.07	4573.1	
794.25	3486.3	
794.42	2794.8	
794.6	5421	
794.77	5127.4	
794.95	3814.7	
795.12	3323.9	
795.3	4616.8	
795.47	5079.6	
795.65	3680.2	
795.82	3544.4	
796	4427	
796.17	5937.7	
796.35	3435.8	
796.52	4050.2	
796.7	5049.6	
796.87	5094.7	
797.05	3366.9	
797.22	4144.4	
797.4	5089.9	
797.57	5984.8	
797.75	3558	
797.92	3312.9	
798.1	5407.3	
798.27	4509.6	
798.45	2944.3	
798.62	3074	
798.8	4882.4	
798.97	5292	
799.15	3657	
799.32	3547.1	
799.5	4227.7	
799.67	4909.7	
799.85	3826.3	
800.02	2831.7	
800.2	4583.4	
800.37	4826.4	
800.55	3956.7	
800.72	3338.9	
800.9	5196.4	
801.07	5582.1	
801.25	4447.5	
801.42	3644.7	
801.6	5298.1	
801.77	4976.6	
801.95	3416.7	
802.12	3249.4	
802.29	5026.4	
802.47	5003.9	
802.64	3702.7	
802.82	2820.1	
802.99	4581.3	
803.17	5322.7	
803.34	3575.1	
803.52	3226.2	
803.69	5909.1	
803.87	4397.7	
804.04	3539.6	
804.21	3616	
804.39	5504.3	
804.56	4781.3	
804.74	3088.3	
804.91	3659	
805.09	4627	
805.26	4660.5	
805.44	3108.8	
805.61	3392.1	
805.78	5178.6	
805.96	5129.5	
806.13	3682.2	
806.31	3892.5	
806.48	4175.1	
806.66	4619.5	
806.83	3659.7	
807	3521.1	
807.18	4630.5	
807.35	4936.3	
807.53	3539.6	
807.7	2921.1	
807.87	5585.5	
808.05	4661.9	
808.22	3869.3	
808.4	2927.9	
808.57	4648.2	
808.74	4276.8	
808.92	3300	
809.09	4110.3	
809.27	4508.3	
809.44	5097.4	
809.61	2973.7	
809.79	3225.6	
809.96	5609.4	
810.14	5210	
810.31	2876	
810.48	3470.6	
810.66	4676.9	
810.83	5239.4	
811.01	3343.7	
811.18	3665.9	
811.35	5247.6	
811.53	4152.6	
811.7	3930.7	
811.87	3728	
812.05	4658.4	
812.22	4581.3	
812.39	3181.2	
812.57	3080.1	
812.74	4666.6	
812.92	6032.6	
813.09	3501.3	
813.26	3756	
813.44	5760.3	
813.61	4583.4	
813.78	2936.8	
813.96	3850.9	
814.13	4622.9	
814.3	4390.2	
814.48	4097.3	
814.65	3425.6	
814.82	5593	
815	4412.7	
815.17	3566.9	
815.34	4284.4	
815.52	4585.4	
815.69	4595.6	
815.87	3470.6	
816.04	3441.3	
816.21	4629.1	
816.38	4176.5	
816.56	3404.4	
816.73	3182.5	
816.9	5799.8	
817.08	5238.7	
817.25	3218	
817.42	3988.1	
817.6	4298	
817.77	4657.1	
817.94	3593.5	
818.12	3121.8	
818.29	4407.9	
818.46	6623.1	
818.64	3378.5	
818.81	3125.9	
818.98	4375.1	
819.16	6079.7	
819.33	3740.3	
819.5	3564.1	
819.67	4904.9	
819.85	5524.7	
820.02	3520.5	
820.19	3708.2	
820.37	4809.3	
820.54	4535.6	
820.71	3606.5	
820.88	4388.8	
821.06	4835.3	
821.23	4440	
821.4	3599.6	
821.58	3532.1	
821.75	5234.6	
821.92	4749.9	
822.09	2970.9	
822.27	3013.9	
822.44	4597	
822.61	4540.3	
822.79	2997.5	
822.96	5497.4	
823.13	4967	
823.3	4422.2	
823.48	3471.3	
823.65	3066.5	
823.82	5259.2	
823.99	4268	
824.17	4255	
824.34	3119.7	
824.51	6004	
824.68	4700.8	
824.86	3250.1	
825.03	3599.6	
825.2	4648.9	
825.37	5466	
825.55	3220.1	
825.72	3499.3	
825.89	6014.9	
826.06	5642.2	
826.24	3496.6	
826.41	3468.6	
826.58	5561.6	
826.75	4825.7	
826.92	2869.2	
827.1	3020.1	
827.27	7399.3	
827.44	5953.4	
827.61	3276.1	
827.79	3921.2	
827.96	4440.7	
828.13	4691.9	
828.3	3403.7	
828.47	2918.4	
828.65	4876.9	
828.82	4838	
828.99	4351.3	
829.16	3779.2	
829.34	5194.3	
829.51	4943.1	
829.68	3536.2	
829.85	3644	
830.02	5512.4	
830.2	5180.7	
830.37	2785.9	
830.54	4235.2	
830.71	5874.9	
830.88	4650.3	
831.05	2810.5	
831.23	3210.5	
831.4	5693.4	
831.57	6147.3	
831.74	3285.6	
831.91	2897.9	
832.09	4942.4	
832.26	5140.4	
832.43	3416.7	
832.6	3792.2	
832.77	4909.7	
832.94	5548.6	
833.12	2729.9	
833.29	3346.4	
833.46	4582	
833.63	6411.5	
833.8	3691.1	
833.97	3449.5	
834.15	5274.2	
834.32	5005.2	
834.49	3530	
834.66	3612.6	
834.83	5361.6	
835	4423.6	
835.17	3325.2	
835.35	3299.3	
835.52	5139	
835.69	5025	
835.86	3452.2	
836.03	2799.6	
836.2	5160.9	
836.37	4892.6	
836.55	3363.4	
836.72	3178.4	
836.89	4809.3	
837.06	5296.7	
837.23	3406.5	
837.4	3712.3	
837.57	5842.9	
837.75	6336.4	
837.92	3107.5	
838.09	3250.8	
838.26	4800.4	
838.43	5395.7	
838.6	3535.5	
838.77	3183.2	
838.94	6093.4	
839.11	5890.6	
839.29	3416	
839.46	2682.8	
839.63	5138.4	
839.8	4924	
839.97	3327.9	
840.14	3253.5	
840.31	5021.6	
840.48	5164.3	
840.65	2766.1	
840.82	3282.9	
841	5193.6	
841.17	5076.9	
841.34	3008.5	
841.51	3079.5	
841.68	5096	
841.85	4945.2	
842.02	3146.4	
842.19	2647.3	
842.36	4969.7	
842.53	4996.4	
842.7	3035.8	
842.87	3665.9	
843.05	6365.1	
843.22	4920.6	
843.39	2917	
843.56	3090.4	
843.73	4777.2	
843.9	5257.8	
844.07	4807.9	
844.24	4009.9	
844.41	7210.9	
844.58	4488.5	
844.75	2977.7	
844.92	3168.2	
845.09	5173.2	
845.26	5122.7	
845.43	3024.2	
845.6	3187.3	
845.77	5157.5	
845.94	4885.8	
846.12	3380.5	
846.29	3506.1	
846.46	5392.3	
846.63	5128.8	
846.8	3063.8	
846.97	3556.6	
847.14	5516.5	
847.31	5177.9	
847.48	3434.4	
847.65	3745.7	
847.82	5349.3	
847.99	5339.1	
848.16	3951.9	
848.33	3745.7	
848.5	4737	
848.67	5543.2	
848.84	3078.1	
849.01	3102	
849.18	4711.7	
849.35	4398.4	
849.52	3734.8	
849.69	2992.8	
849.86	5365.7	
850.03	5512.4	
850.2	3029.6	
850.37	3703.4	
850.54	5487.2	
850.71	4851	
850.88	3686.3	
851.05	2958.6	
851.22	5028.4	
851.39	5490.6	
851.56	2878.1	
851.73	3454.9	
851.9	4564.2	
852.07	5335.6	
852.24	3373.7	
852.41	3022.1	
852.58	5109	
852.75	4627	
852.92	3356.6	
853.09	2957.3	
853.26	4790.9	
853.43	5537	
853.6	3012.6	
853.77	2612.5	
853.94	5586.9	
854.11	4527.4	
854.28	4442.7	
854.44	3265.1	
854.61	5924.1	
854.78	5402.5	
854.95	2938.8	
855.12	3763.5	
855.29	4207.2	
855.46	5712.5	
855.63	3039.2	
855.8	4092.5	
855.97	4808.6	
856.14	5470.1	
856.31	4210.6	
856.48	3258.3	
856.65	4807.3	
856.82	4530.8	
856.99	2948.4	
857.16	3225.6	
857.33	6180.8	
857.49	4900.8	
857.66	3263.1	
857.83	3489.7	
858	4839.4	
858.17	5019.6	
858.34	2882.2	
858.51	3022.1	
858.68	5677	
858.85	5719.3	
859.02	3483.6	
859.19	3635.8	
859.36	4584.7	
859.52	4619.5	
859.69	3049.4	
859.86	3519.1	
860.03	4582.7	
860.2	5607.3	
860.37	2769.5	
860.54	3062.4	
860.71	5315.8	
860.88	5666	
861.05	3343	
861.21	3751.2	
861.38	5677	
861.55	4459.8	
861.72	2801.6	
861.89	3385.3	
862.06	5401.2	
862.23	5708.4	
862.4	2954.5	
862.56	3136.1	
862.73	5267.4	
862.9	4931.5	
863.07	3537.5	
863.24	2769.5	
863.41	4489.1	
863.58	4599.7	
863.75	3095.2	
863.91	3482.2	
864.08	5568.4	
864.25	5250.3	
864.42	3713	
864.59	4108.2	
864.76	5910.4	
864.93	4566.3	
865.09	2956.6	
865.26	3245.3	
865.43	5554.8	
865.6	5838.8	
865.77	2665.8	
865.94	2977.7	
866.1	5605.3	
866.27	5318.6	
866.44	4477.5	
866.61	2798.2	
866.78	4914.4	
866.95	5252.4	
867.11	2937.5	
867.28	2721.8	
867.45	5503.6	
867.62	4573.8	
867.79	3467.2	
867.96	2985.3	
868.12	4525.3	
868.29	5347.2	
868.46	2654.2	
868.63	3980.6	
868.8	5513.8	
868.97	5290.6	
869.13	3134.1	
869.3	3133.4	
869.47	5157.5	
869.64	5391.6	
869.81	3044	
869.97	3038.5	
870.14	5063.3	
870.31	5625.8	
870.48	3016	
870.65	3788.7	
870.81	4868	
870.98	4872.8	
871.15	3394.8	
871.32	3138.2	
871.48	5232.6	
871.65	5765	
871.82	3049.4	
871.99	3292.5	
872.16	6115.9	
872.32	5551.4	
872.49	3049.4	
872.66	3059.7	
872.83	5329.5	
872.99	4718.5	
873.16	3480.9	
873.33	2981.8	
873.5	5061.2	
873.67	5070.1	
873.83	3136.8	
874	4005.1	
874.17	5183.4	
874.34	5948.7	
874.5	3872.7	
874.67	3697.3	
874.84	5696.8	
875.01	4463.9	
875.17	4157.4	
875.34	2983.2	
875.51	5094.7	
875.68	6069.5	
875.84	3612.6	
876.01	4323.3	
876.18	5296.7	
876.34	5253.7	
876.51	3009.1	
876.68	2953.2	
876.85	4900.8	
877.01	5537.7	
877.18	4285.7	
877.35	2969.6	
877.52	5061.9	
877.68	4575.8	
877.85	2998.9	
878.02	2965.5	
878.18	4883.7	
878.35	4712.4	
878.52	2455.5	
878.69	3412.6	
878.85	5368.4	
879.02	5277.6	
879.19	4244.1	
879.35	3211.9	
879.52	5296	
879.69	5452.4	
879.86	2627.5	
880.02	3393.5	
880.19	4931.5	
880.36	5961.6	
880.52	3501.3	
880.69	3513.6	
880.86	5410.1	
881.02	5395	
881.19	3295.2	
881.36	3237.8	
881.52	5278.3	
881.69	4732.2	
881.86	3269.2	
882.02	3181.9	
882.19	5492.7	
882.36	6372.6	
882.52	3065.8	
882.69	4183.3	
882.86	5126.1	
883.02	5072.1	
883.19	3610.6	
883.36	3418.7	
883.52	5392.3	
883.69	6047	
883.86	3041.2	
884.02	2723.8	
884.19	5357.5	
884.36	4983.4	
884.52	3405.8	
884.69	3214.6	
884.86	4754	
885.02	5814.9	
885.19	3331.4	
885.36	3456.3	
885.52	5000.5	
885.69	5123.3	
885.86	4262.5	
886.02	3827.7	
886.19	5407.3	
886.35	4846.2	
886.52	3309.5	
886.69	4223.6	
886.85	4600.4	
887.02	5612.8	
887.19	5612.8	
887.35	5612.8	
887.52	5612.8	
887.68	5612.8	
887.85	5612.8	
888.02	5612.8	
888.18	5612.8	
888.35	5612.8	
888.51	5612.8	
888.68	5612.8	
888.85	5612.8	
889.01	5612.8	
889.18	5612.8	
889.35	5612.8	
889.51	5612.8	
889.68	5612.8	
889.84	5612.8	
890.01	5612.8	
890.17	5612.8	
890.34	5612.8	
890.51	5612.8	
890.67	5612.8	
890.84	5612.8	
891	5612.8	
891.17	5612.8	
891.34	5612.8	
891.5	5612.8	
891.67	5612.8	
891.83	5612.8	
892	5612.8	
892.16	5612.8	
892.33	5612.8	
892.5	5612.8	
892.66	5612.8	
892.83	5612.8	
892.99	5612.8	
893.16	5612.8	
893.32	5612.8	
893.49	5612.8	
893.65	5612.8	
893.82	5612.8	
893.99	5612.8	
894.15	5612.8	
894.32	5612.8	
894.48	5612.8	
894.65	5612.8	
894.81	5612.8	
894.98	5612.8	
895.14	5612.8	
895.31	5612.8	
895.47	5612.8	
895.64	5612.8	
895.81	5612.8	
895.97	5612.8	
896.14	5612.8	
896.3	5612.8	
896.47	5612.8	
896.63	5612.8	
896.8	5612.8	
896.96	5612.8	
897.13	5612.8	
897.29	5612.8	
897.46	5612.8	
897.62	5612.8	
897.79	5612.8	
897.95	5612.8	
898.12	5612.8	
898.28	5612.8	
898.45	5612.8	
898.61	5612.8	
898.78	5612.8	
898.94	5612.8	
899.11	5612.8	
899.27	5612.8	
899.44	5612.8	
899.6	5612.8	
899.77	5612.8	
899.93	5612.8	
900.1	5612.8	
900.26	5612.8	
900.43	5612.8	
900.59	5612.8	
900.76	5612.8	
900.92	5612.8	
901.09	5612.8	
901.25	5612.8	
901.42	5612.8	
901.58	5612.8	
901.75	5612.8	
901.91	5612.8	
902.07	5612.8	
902.24	5612.8	
902.4	5612.8	
902.57	5612.8	
902.73	5612.8	
902.9	5612.8	
903.06	5612.8	
903.23	5612.8	
903.39	5612.8	
903.56	5612.8	
903.72	5612.8	
903.88	5612.8	
904.05	5612.8	
904.21	5612.8	
904.38	5612.8	
904.54	5612.8	
904.71	5612.8	
904.87	5612.8	
905.03	5612.8	
905.2	5612.8	
905.36	5612.8	
905.53	5612.8	
905.69	5612.8	
905.86	5612.8	
906.02	5612.8	
906.18	5612.8	
906.35	5612.8	
906.51	5612.8	
906.68	5612.8	
906.84	5612.8	
907.01	5612.8	
907.17	5612.8	
907.33	5612.8	
907.5	5612.8	
907.66	5612.8	
907.83	5612.8	
907.99	5612.8	
908.15	5612.8	
908.32	5612.8	
908.48	5612.8	
908.65	5612.8	
908.81	5612.8	
908.97	5612.8	
909.14	5612.8	
909.3	5612.8	
909.47	5612.8	
909.63	5612.8	
909.79	5612.8	
909.96	5612.8	
910.12	5612.8	
910.28	5612.8	
910.45	5612.8	
910.61	5612.8	
910.78	5612.8	
910.94	5612.8	
911.1	5612.8	
911.27	5612.8	
911.43	5612.8	
911.59	5612.8	
911.76	5612.8	
911.92	5612.8	
912.08	5612.8	
912.25	5612.8	
912.41	5612.8	
912.57	5612.8	
912.74	5612.8	
912.9	5612.8	
913.07	5612.8	
913.23	5612.8	
913.39	5612.8	
913.56	5612.8	
913.72	5612.8	
913.88	5612.8	
914.05	5612.8	
914.21	5612.8	
914.37	5612.8	
914.54	5612.8	
914.7	5612.8	
914.86	5612.8	
915.03	5612.8	
915.19	5612.8	
