Wavelength	Intensities	
nm	a.u.	
179.22	1550.3	
179.44	1541.4	
179.65	1559.2	
179.86	1523.7	
180.08	1569.4	
180.29	3457.7	
180.51	2757.2	
180.72	4683	
180.94	5119.2	
181.15	2463	
181.37	2521	
181.58	4481.6	
181.79	4582	
182.01	2576.3	
182.22	2658.9	
182.44	4700.1	
182.65	4065.9	
182.87	3232.4	
183.08	2967.5	
183.29	4934.2	
183.51	4153.3	
183.72	2704	
183.94	3644.7	
184.15	4397.7	
184.37	4332.1	
184.58	2429.6	
184.79	3038.5	
185.01	4184	
185.22	4705.5	
185.44	3229.6	
185.65	2835.1	
185.86	4455	
186.08	4086.4	
186.29	2412.5	
186.51	2540.8	
186.72	4246.1	
186.94	4717.2	
187.15	2833.7	
187.36	2897.2	
187.58	5791	
187.79	4501.4	
188.01	2968.2	
188.22	4326	
188.43	5123.3	
188.65	4605.9	
188.86	2555.9	
189.08	2964.1	
189.29	4253.6	
189.5	4199.7	
189.72	2701.3	
189.93	2746.3	
190.15	4747.2	
190.36	5422.3	
190.57	2940.9	
190.79	2799.6	
191	4734.2	
191.22	4717.2	
191.43	2973.7	
191.64	2560	
191.86	4885.8	
192.07	4788.8	
192.29	2608.4	
192.5	2633.7	
192.71	4797.7	
192.93	4274.8	
193.14	2665.1	
193.35	2755.9	
193.57	4247.5	
193.78	4809.3	
194	2333.3	
194.21	2681.5	
194.42	4088.4	
194.64	4412.7	
194.85	2886.3	
195.07	3275.4	
195.28	4380.6	
195.49	4023.6	
195.71	3424.2	
195.92	2583.9	
196.13	4607.9	
196.35	4603.2	
196.56	3583.3	
196.78	2900.6	
196.99	5380	
197.2	5076.9	
197.42	3193.5	
197.63	2916.3	
197.84	4099.4	
198.06	4568.3	
198.27	2708.8	
198.48	3429.7	
198.7	4253.6	
198.91	4506.9	
199.13	2938.8	
199.34	2888.3	
199.55	4778.6	
199.77	3891.8	
199.98	2609.8	
200.19	2950.4	
200.41	4398.4	
200.62	4133.5	
200.83	2970.2	
201.05	3233.1	
201.26	4437.3	
201.47	4242.7	
201.69	2667.8	
201.9	2583.9	
202.11	4419.5	
202.33	4984.1	
202.54	2771.6	
202.76	3062.4	
202.97	4422.2	
203.18	4542.4	
203.4	3019.4	
203.61	3084.2	
203.82	4433.9	
204.04	4213.4	
204.25	2962.7	
204.46	2836.4	
204.68	4443.4	
204.89	4605.2	
205.1	2830.3	
205.32	2555.2	
205.53	4562.2	
205.74	4734.9	
205.96	2305.3	
206.17	2948.4	
206.38	4604.5	
206.6	4736.3	
206.81	3173.7	
207.02	2749.7	
207.24	4563.6	
207.45	4842.8	
207.66	2811.9	
207.88	2530.6	
208.09	4492.6	
208.3	4399.7	
208.52	2629.6	
208.73	2827.6	
208.94	4373.8	
209.15	4814.1	
209.37	2813.2	
209.58	2906.1	
209.79	4707.6	
210.01	4334.2	
210.22	2396.1	
210.43	2447.3	
210.65	4289.1	
210.86	4620.2	
211.07	2747	
211.29	2687.6	
211.5	4560.1	
211.71	4380.6	
211.93	2630.3	
212.14	2627.5	
212.35	4392.2	
212.56	4434.5	
212.78	2963.4	
212.99	2468.5	
213.2	4975.2	
213.42	4321.9	
213.63	2728.6	
213.84	2797.5	
214.06	4050.9	
214.27	4111.6	
214.48	2751.1	
214.69	2976.4	
214.91	4798.4	
215.12	4830.5	
215.33	2863.7	
215.55	3164.1	
215.76	5118.6	
215.97	4590.9	
216.18	2788.7	
216.4	2830.3	
216.61	4211.3	
216.82	4700.1	
217.04	2708.8	
217.25	2689	
217.46	4770.4	
217.67	4620.9	
217.89	2463	
218.1	2508.8	
218.31	4408.6	
218.53	4546.5	
218.74	2791.4	
218.95	2655.5	
219.16	4388.8	
219.38	4950.6	
219.59	2671.9	
219.8	3055.6	
220.01	5261.9	
220.23	4470.7	
220.44	3233.1	
220.65	2597.5	
220.87	4448.9	
221.08	4773.1	
221.29	2558.6	
221.5	3102	
221.72	5509.7	
221.93	4162.2	
222.14	2928.6	
222.35	3325.2	
222.57	4384	
222.78	4777.2	
222.99	2849.4	
223.2	2970.9	
223.42	4572.4	
223.63	4631.8	
223.84	2278	
224.05	2300.6	
224.27	5235.3	
224.48	4948.6	
224.69	3373	
224.9	2933.4	
225.12	4463.2	
225.33	4373.1	
225.54	2439.1	
225.75	2698.5	
225.97	4129.4	
226.18	4403.8	
226.39	2779.1	
226.6	2654.2	
226.82	4282.3	
227.03	4136.9	
227.24	2899.2	
227.45	2522.4	
227.67	4746.5	
227.88	4909	
228.09	3177.8	
228.3	3164.8	
228.52	4605.9	
228.73	4356	
228.94	2710.8	
229.15	2538.1	
229.36	4401.1	
229.58	4425	
229.79	2796.2	
230	3117	
230.21	5118.6	
230.43	4422.9	
230.64	2905.4	
230.85	2979.8	
231.06	4736.3	
231.28	4669.4	
231.49	2512.2	
231.7	2961.4	
231.91	4643.4	
232.12	4378.6	
232.34	2589.3	
232.55	2808.4	
232.76	4784.7	
232.97	4493.2	
233.18	2616.6	
233.4	2876	
233.61	4499.4	
233.82	4285.7	
234.03	2753.2	
234.25	2699.2	
234.46	5616.9	
234.67	4412	
234.88	3007.1	
235.09	2713.6	
235.31	4497.3	
235.52	4376.5	
235.73	2856.9	
235.94	2496.5	
236.15	4261.1	
236.37	5097.4	
236.58	2605	
236.79	2807.8	
237	4588.1	
237.21	4050.2	
237.43	3037.8	
237.64	2521	
237.85	6795.2	
238.06	4158.7	
238.27	2985.9	
238.48	2600.2	
238.7	4659.8	
238.91	4337.6	
239.12	2771.6	
239.33	2887.6	
239.54	4132.8	
239.76	4332.8	
239.97	2867.2	
240.18	2818.7	
240.39	5081	
240.6	4469.4	
240.82	2950.4	
241.03	2562.7	
241.24	4364.2	
241.45	4887.8	
241.66	2603	
241.87	3065.1	
242.09	4857.1	
242.3	5025.7	
242.51	3037.1	
242.72	2807.8	
242.93	4635.9	
243.14	4362.2	
243.36	3208.5	
243.57	3399.6	
243.78	4894	
243.99	4570.4	
244.2	2843.3	
244.41	2597.5	
244.63	4111	
244.84	4576.5	
245.05	3005.7	
245.26	2800.9	
245.47	4622.9	
245.68	4719.9	
245.9	3483.6	
246.11	2960.7	
246.32	4261.1	
246.53	4573.8	
246.74	4241.3	
246.95	2506	
247.16	4167.6	
247.38	4401.1	
247.59	2473.3	
247.8	2840.5	
248.01	4138.3	
248.22	4393.6	
248.43	2569.5	
248.64	2782.5	
248.86	4132.8	
249.07	4314.4	
249.28	2598.2	
249.49	2899.9	
249.7	4717.8	
249.91	4754.7	
250.12	2504.7	
250.34	2487.6	
250.55	4474.8	
250.76	4415.4	
250.97	2893.8	
251.18	2899.2	
251.39	4748.6	
251.6	4532.2	
251.81	2923.1	
252.03	2915.6	
252.24	4227.7	
252.45	4653.7	
252.66	2525.8	
252.87	3082.2	
253.08	4446.8	
253.29	5386.8	
253.5	2547	
253.72	3287.7	
253.93	4338.3	
254.14	4946.5	
254.35	2731.3	
254.56	2723.1	
254.77	4506.9	
254.98	4180.6	
255.19	2745	
255.41	3258.3	
255.62	4544.4	
255.83	4769.7	
256.04	3063.1	
256.25	2865.1	
256.46	5122	
256.67	4261.1	
256.88	2850.1	
257.09	3126.6	
257.31	4169.7	
257.52	4197.7	
257.73	3514.3	
257.94	2706	
258.15	4394.3	
258.36	4388.8	
258.57	3241.9	
258.78	2280.8	
258.99	4718.5	
259.2	4268.6	
259.41	2734	
259.63	2824.8	
259.84	4898.7	
260.05	5082.4	
260.26	3343.7	
260.47	2666.5	
260.68	4790.2	
260.89	4298	
261.1	3172.3	
261.31	2641.2	
261.52	4850.3	
261.73	5020.9	
261.95	3364.8	
262.16	2968.2	
262.37	4814.8	
262.58	4886.5	
262.79	3374.4	
263	2758.6	
263.21	4431.1	
263.42	4302.8	
263.63	2939.5	
263.84	2746.3	
264.05	4739	
264.26	4891.2	
264.47	3245.3	
264.69	2972.3	
264.9	4891.9	
265.11	4433.9	
265.32	2633	
265.53	2643.2	
265.74	4504.8	
265.95	3993.5	
266.16	2824.8	
266.37	3060.3	
266.58	4487.1	
266.79	4215.4	
267	2711.5	
267.21	2537.4	
267.42	4120.5	
267.63	4379.9	
267.84	2843.9	
268.06	2520.4	
268.27	4737	
268.48	4805.9	
268.69	2801.6	
268.9	3119.1	
269.11	4805.2	
269.32	4007.2	
269.53	2843.3	
269.74	2695.1	
269.95	4478.2	
270.16	4034.5	
270.37	2825.5	
270.58	3189.4	
270.79	4346.5	
271	4719.9	
271.21	2909.5	
271.42	2899.9	
271.63	4582.7	
271.84	4098.7	
272.05	2385.2	
272.26	2605	
272.47	4440	
272.68	4500.1	
272.89	2782.5	
273.11	3017.3	
273.32	4253.6	
273.53	4896.7	
273.74	2995.5	
273.95	3057.6	
274.16	4666	
274.37	4394.9	
274.58	3132	
274.79	2558.6	
275	4504.8	
275.21	4747.9	
275.42	3569.6	
275.63	3102	
275.84	4629.8	
276.05	5463.3	
276.26	2919.7	
276.47	2741.5	
276.68	4389.5	
276.89	5034.6	
277.1	3121.1	
277.31	2522.4	
277.52	4522.6	
277.73	4805.9	
277.94	2475.3	
278.15	2727.2	
278.36	4606.6	
278.57	4189.5	
278.78	2729.9	
278.99	3011.9	
279.2	4284.4	
279.41	4113	
279.62	3479.5	
279.83	2563.4	
280.04	5102.2	
280.25	4108.9	
280.46	3389.4	
280.67	2863.1	
280.88	4190.8	
281.09	4796.3	
281.3	2947.7	
281.51	3528	
281.72	4228.4	
281.93	4632.5	
282.14	2658.3	
282.35	2867.8	
282.56	4784.1	
282.77	4675.5	
282.98	2776.4	
283.19	3206.4	
283.4	5512.4	
283.61	4348.5	
283.82	2604.3	
284.03	3314.3	
284.24	4607.2	
284.45	4744.5	
284.66	3431.7	
284.87	3211.9	
285.08	4781.3	
285.29	4787.5	
285.5	2529.2	
285.71	2783.9	
285.92	4689.8	
286.12	5144.5	
286.33	3363.4	
286.54	2810.5	
286.75	4671.4	
286.96	4361.5	
287.17	2628.2	
287.38	3229.6	
287.59	4217.5	
287.8	4226.3	
288.01	2768.2	
288.22	3059.7	
288.43	4553.3	
288.64	3982.6	
288.85	3198.2	
289.06	3046	
289.27	4695.3	
289.48	4924	
289.69	3395.5	
289.9	3080.1	
290.11	4886.5	
290.32	4262.5	
290.53	3201	
290.74	2949.1	
290.94	4683	
291.15	4702.8	
291.36	2678.1	
291.57	3044.6	
291.78	4360.8	
291.99	4023.6	
292.2	2693.1	
292.41	3041.9	
292.62	4709	
292.83	4592.2	
293.04	3589.4	
293.25	2665.1	
293.46	4341	
293.67	4708.3	
293.88	2657.6	
294.09	2684.9	
294.29	4240	
294.5	4468.7	
294.71	2828.2	
294.92	2732.7	
295.13	4313	
295.34	5134.3	
295.55	2544.9	
295.76	2456.2	
295.97	4639.3	
296.18	5084.4	
296.39	2553.8	
296.6	2656.2	
296.81	4425.7	
297.01	4702.1	
297.22	2798.9	
297.43	2794.1	
297.64	4308.2	
297.85	4186.7	
298.06	2315.6	
298.27	2471.2	
298.48	4333.5	
298.69	4226.3	
298.9	2890.4	
299.11	2633.7	
299.31	4180.6	
299.52	4161.5	
299.73	3048.1	
299.94	2990	
300.15	4476.9	
300.36	4274.1	
300.57	3004.4	
300.78	2911.5	
300.99	4281.6	
301.2	4478.2	
301.4	2757.2	
301.61	2839.8	
301.82	4582	
302.03	4655	
302.24	3099.3	
302.45	2600.9	
302.66	4564.2	
302.87	4744.5	
303.08	2697.9	
303.29	3433.8	
303.49	4288.4	
303.7	4349.9	
303.91	2498.5	
304.12	3300	
304.33	4083.6	
304.54	4577.9	
304.75	2682.8	
304.96	2625.5	
305.16	4623.6	
305.37	5030.5	
305.58	2438.4	
305.79	2452.8	
306	4592.2	
306.21	4031.8	
306.42	2710.8	
306.63	3774.4	
306.83	4300.7	
307.04	4568.3	
307.25	2884.2	
307.46	2851.5	
307.67	3955.3	
307.88	4632.5	
308.09	2689.7	
308.29	2736.1	
308.5	4482.3	
308.71	4704.2	
308.92	2857.6	
309.13	2602.3	
309.34	4427.7	
309.55	4312.3	
309.75	3250.1	
309.96	2945.7	
310.17	4588.1	
310.38	4229.1	
310.59	3061.7	
310.8	2919	
311.01	4347.8	
311.21	4407.2	
311.42	2654.9	
311.63	2595.5	
311.84	4268.6	
312.05	4422.9	
312.26	3011.9	
312.46	3129.3	
312.67	4344.4	
312.88	4072	
313.09	2596.1	
313.3	2597.5	
313.51	4874.8	
313.71	5098.8	
313.92	2626.9	
314.13	2751.1	
314.34	4577.2	
314.55	4407.2	
314.76	3168.2	
314.96	2858.3	
315.17	4537.6	
315.38	4599.7	
315.59	2666.5	
315.8	2517.6	
316.01	4823.6	
316.21	4943.8	
316.42	2609.8	
316.63	2824.1	
316.84	4320.5	
317.05	4762.2	
317.26	2978.4	
317.46	2776.4	
317.67	4358.8	
317.88	4590.2	
318.09	3217.4	
318.3	2450.1	
318.5	4290.5	
318.71	4536.3	
318.92	3908.2	
319.13	3008.5	
319.34	4734.9	
319.54	4807.9	
319.75	2496.5	
319.96	2422.7	
320.17	4511.7	
320.38	4747.2	
320.58	2430.3	
320.79	2854.2	
321	4820.2	
321.21	4841.4	
321.42	2866.5	
321.62	2455.5	
321.83	4268	
322.04	4426.3	
322.25	2766.8	
322.46	2626.9	
322.66	4459.8	
322.87	4623.6	
323.08	3119.1	
323.29	2534.7	
323.5	5102.2	
323.7	4102.8	
323.91	3394.2	
324.12	3041.9	
324.33	4535.6	
324.53	4620.9	
324.74	3020.8	
324.95	3043.3	
325.16	4044.7	
325.37	4313.7	
325.57	2627.5	
325.78	2727.2	
325.99	4538.3	
326.2	4076.8	
326.4	3527.3	
326.61	2512.9	
326.82	4384.7	
327.03	4452.3	
327.24	3473.4	
327.44	3273.3	
327.65	4584	
327.86	3928.7	
328.07	2983.9	
328.27	2567.5	
328.48	4798.4	
328.69	4116.4	
328.9	3518.4	
329.1	2721.1	
329.31	4327.4	
329.52	4878.3	
329.73	2684.9	
329.93	2831.7	
330.14	4498	
330.35	4558.1	
330.56	3975.1	
330.76	3152.5	
330.97	4290.5	
331.18	4414.1	
331.39	2871.3	
331.59	2429.6	
331.8	4773.1	
332.01	4812.7	
332.22	2727.2	
332.42	2968.2	
332.63	4503.5	
332.84	4166.9	
333.05	2891	
333.25	2655.5	
333.46	4172.4	
333.67	4417.5	
333.88	2743.6	
334.08	2895.1	
334.29	5516.5	
334.5	4708.3	
334.7	2611.2	
334.91	3486.3	
335.12	4147.1	
335.33	4593.6	
335.53	2897.9	
335.74	3843.4	
335.95	4358.8	
336.16	4103.4	
336.36	2794.1	
336.57	3195.5	
336.78	4083	
336.98	4706.2	
337.19	3405.1	
337.4	2834.4	
337.61	5098.1	
337.81	4123.2	
338.02	2691.7	
338.23	3241.9	
338.43	4866.7	
338.64	4191.5	
338.85	2642.6	
339.05	3322.5	
339.26	4967	
339.47	4088.4	
339.68	2646.7	
339.88	3609.2	
340.09	4603.2	
340.3	4729.4	
340.5	2967.5	
340.71	2415.9	
340.92	4158.1	
341.13	4765.6	
341.33	2504.7	
341.54	2984.6	
341.75	4578.6	
341.95	4238.6	
342.16	2884.2	
342.37	3024.8	
342.57	4119.1	
342.78	4368.3	
342.99	3081.5	
343.19	2422.7	
343.4	4624.3	
343.61	4545.8	
343.81	2771.6	
344.02	2556.5	
344.23	4661.2	
344.43	4833.2	
344.64	3114.3	
344.85	3127.9	
345.06	4586.1	
345.26	4752.7	
345.47	2973.7	
345.68	3350.5	
345.88	4075.5	
346.09	4668	
346.3	3052.2	
346.5	2390	
346.71	4328	
346.92	4244.1	
347.12	2527.2	
347.33	2956.6	
347.54	4700.1	
347.74	4966.3	
347.95	2927.2	
348.16	2340.8	
348.36	4296	
348.57	4115.1	
348.78	3016	
348.98	3104.7	
349.19	4356	
349.39	4012.7	
349.6	2515.6	
349.81	2714.9	
350.01	4638.6	
350.22	4225	
350.43	2953.2	
350.63	3304.1	
350.84	4398.4	
351.05	4200.4	
351.25	2660.3	
351.46	2528.6	
351.67	4687.8	
351.87	4199.7	
352.08	2834.4	
352.29	3107.5	
352.49	4676.2	
352.7	4493.9	
352.9	2561.3	
353.11	3117	
353.32	5027.1	
353.52	4311.7	
353.73	2566.8	
353.94	3085.6	
354.14	4543.1	
354.35	4403.8	
354.55	2604.3	
354.76	2882.2	
354.97	4548.5	
355.17	4336.9	
355.38	2541.5	
355.59	3275.4	
355.79	4204.5	
356	4304.1	
356.2	2878.1	
356.41	2608.4	
356.62	4128	
356.82	4341	
357.03	3008.5	
357.24	2781.1	
357.44	4122.6	
357.65	4244.8	
357.85	3459.7	
358.06	2873.3	
358.27	4069.3	
358.47	4085	
358.68	2516.3	
358.88	3032.4	
359.09	4525.3	
359.3	4671.4	
359.5	3428.3	
359.71	3110.2	
359.91	4891.9	
360.12	4559.5	
360.33	3084.9	
360.53	3336.8	
360.74	4229.7	
360.94	4259.8	
361.15	3171.6	
361.36	2705.4	
361.56	4668	
361.77	4405.9	
361.97	3414.6	
362.18	2859	
362.38	4733.5	
362.59	4123.9	
362.8	2663.7	
363	2541.5	
363.21	4059.1	
363.41	4410	
363.62	2979.1	
363.83	3499.3	
364.03	4530.8	
364.24	4967	
364.44	3646.7	
364.65	3637.9	
364.85	4346.5	
365.06	4160.8	
365.27	2750.4	
365.47	2830.3	
365.68	4909.7	
365.88	4317.1	
366.09	2992.8	
366.29	2789.3	
366.5	4429.1	
366.71	4691.9	
366.91	3551.2	
367.12	3158.7	
367.32	5115.8	
367.53	4582	
367.73	3096.5	
367.94	3688.4	
368.14	4689.2	
368.35	5015.5	
368.56	3089	
368.76	2704	
368.97	4699.4	
369.17	5608	
369.38	2737.5	
369.58	2942.9	
369.79	4059.8	
369.99	4900.8	
370.2	3590.1	
370.4	2996.2	
370.61	4512.4	
370.82	5330.2	
371.02	2943.6	
371.23	2613.2	
371.43	4145.8	
371.64	4950.6	
371.84	3018	
372.05	3615.3	
372.25	5563.6	
372.46	4583.4	
372.66	2929.3	
372.87	2961.4	
373.07	4695.3	
373.28	5655.8	
373.48	3519.1	
373.69	3337.5	
373.9	4434.5	
374.1	4425.7	
374.31	3537.5	
374.51	3160	
374.72	4897.4	
374.92	4205.8	
375.13	3531.4	
375.33	3195.5	
375.54	4567	
375.74	4382.7	
375.95	3233.1	
376.15	3906.2	
376.36	4760.2	
376.56	4575.2	
376.77	3243.3	
376.97	3485	
377.18	5380	
377.38	4717.8	
377.59	3652.2	
377.79	2970.9	
378	4571.7	
378.2	4752	
378.41	2988.7	
378.61	2928.6	
378.82	4909.7	
379.02	4439.3	
379.23	3121.1	
379.43	3659	
379.64	5058.5	
379.84	4702.8	
380.05	3033	
380.25	2910.8	
380.46	4852.3	
380.66	4518.5	
380.87	3813.3	
381.07	3953.9	
381.28	5159.5	
381.48	4753.3	
381.69	2953.9	
381.89	3051.5	
382.1	4141	
382.3	4763.6	
382.51	3724.6	
382.71	4185.4	
382.91	4746.5	
383.12	5072.1	
383.32	3233.7	
383.53	3253.5	
383.73	4696	
383.94	4544.4	
384.14	3309.5	
384.35	2764.8	
384.55	4484.4	
384.76	4739	
384.96	3256.3	
385.17	3437.2	
385.37	4816.8	
385.58	4298	
385.78	3422.8	
385.98	2809.8	
386.19	4489.8	
386.39	4761.5	
386.6	3058.3	
386.8	3191.4	
387.01	4754.7	
387.21	4799.1	
387.42	3472.7	
387.62	3823.6	
387.83	4427.7	
388.03	4549.2	
388.23	3300	
388.44	3665.9	
388.64	4248.9	
388.85	4225.6	
389.05	3416	
389.26	3786.7	
389.46	5569.8	
389.67	5083.1	
389.87	3509.5	
390.07	3410.6	
390.28	4611.3	
390.48	4323.9	
390.69	2968.2	
390.89	3164.8	
391.1	4511	
391.3	4997.7	
391.5	3910.3	
391.71	4225	
391.91	4947.9	
392.12	5379.3	
392.32	3949.2	
392.53	3411.9	
392.73	4571.1	
392.93	4599.1	
393.14	3317.7	
393.34	3734.1	
393.55	4866	
393.75	4525.3	
393.95	3281.5	
394.16	3258.3	
394.36	4523.3	
394.57	4887.8	
394.77	3019.4	
394.98	3183.2	
395.18	4466.6	
395.38	4453	
395.59	3776.5	
395.79	3092.4	
396	4585.4	
396.2	4845.5	
396.4	3648.8	
396.61	3627	
396.81	4896	
397.02	4504.8	
397.22	3808.5	
397.42	3833.8	
397.63	5024.3	
397.83	4483	
398.04	3192.1	
398.24	3445.4	
398.44	4879.6	
398.65	4235.9	
398.85	3085.6	
399.05	3069.2	
399.26	4601.1	
399.46	5514.5	
399.67	3414.6	
399.87	3170.9	
400.07	4745.8	
400.28	4911	
400.48	3258.3	
400.69	3943.7	
400.89	4989.5	
401.09	5355.4	
401.3	3275.4	
401.5	3834.5	
401.7	5409.4	
401.91	5618.9	
402.11	3496.6	
402.32	3537.5	
402.52	5132.9	
402.72	5033.9	
402.93	3760.1	
403.13	2987.3	
403.33	5601.9	
403.54	4728.1	
403.74	3525.9	
403.94	4077.5	
404.15	4777.2	
404.35	5539.8	
404.56	3377.1	
404.76	4377.2	
404.96	5027.1	
405.17	4918.5	
405.37	3832.4	
405.57	3602.4	
405.78	5044.1	
405.98	4812	
406.18	3467.2	
406.39	3889.1	
406.59	5104.2	
406.79	4832.5	
407	3278.8	
407.2	3344.3	
407.4	5330.9	
407.61	5161.6	
407.81	3310.2	
408.01	4622.3	
408.22	4380.6	
408.42	5539.1	
408.62	3990.1	
408.83	3768.9	
409.03	4842.8	
409.23	4864.6	
409.44	3755.3	
409.64	3904.8	
409.84	5525.4	
410.05	5423.7	
410.25	3859.1	
410.45	3751.2	
410.66	5175.2	
410.86	6719.4	
411.06	4038.6	
411.27	3959.4	
411.47	6511.2	
411.67	5292	
411.88	4093.9	
412.08	4276.8	
412.28	5640.1	
412.49	6006	
412.69	4026.3	
412.89	4028.4	
413.09	5944.6	
413.3	5832.6	
413.5	4149.2	
413.7	3906.8	
413.91	5440.1	
414.11	5944.6	
414.31	3989.4	
414.52	4258.4	
414.72	5769.8	
414.92	5679	
415.12	4032.5	
415.33	4409.3	
415.53	5910.4	
415.73	5952.1	
415.94	4574.5	
416.14	4192.9	
416.34	5440.8	
416.55	5196.4	
416.75	4984.8	
416.95	4537.6	
417.15	6082.5	
417.36	6364.4	
417.56	5164.3	
417.76	4477.5	
417.97	6134.3	
418.17	5946.6	
418.37	4307.6	
418.57	4309.6	
418.78	5971.2	
418.98	5730.2	
419.18	4901.5	
419.38	4776.5	
419.59	5662	
419.79	5433.9	
419.99	4216.8	
420.2	4394.9	
420.4	6081.1	
420.6	6049.7	
420.8	4206.5	
421.01	4095.9	
421.21	6010.1	
421.41	5937.1	
421.61	4474.1	
421.82	4262.5	
422.02	5759.6	
422.22	6221	
422.42	4744.5	
422.63	4447.5	
422.83	5635.3	
423.03	6483.2	
423.23	4560.1	
423.44	3913.7	
423.64	5668.1	
423.84	5468.1	
424.04	4220.9	
424.25	3966.2	
424.45	6309.1	
424.65	6178.7	
424.85	3921.9	
425.06	4233.2	
425.26	6429.3	
425.46	5654.4	
425.66	4562.9	
425.87	4377.2	
426.07	6157.6	
426.27	5948.7	
426.47	4406.5	
426.67	4063.9	
426.88	6337.8	
427.08	5971.2	
427.28	4633.2	
427.48	4044.1	
427.69	5390.3	
427.89	5763.7	
428.09	4485.7	
428.29	4040.6	
428.5	6145.3	
428.7	5917.3	
428.9	3975.8	
429.1	4360.1	
429.3	5831.9	
429.51	5961	
429.71	4207.2	
429.91	4716.5	
430.11	6111.1	
430.31	6172.6	
430.52	4321.9	
430.72	4511.7	
430.92	6375.3	
431.12	6086.6	
431.32	4206.5	
431.53	4503.5	
431.73	5474.2	
431.93	6400.6	
432.13	4179.9	
432.33	4082.3	
432.54	5793.7	
432.74	5833.3	
432.94	4031.8	
433.14	4709	
433.34	6239.5	
433.55	5863.3	
433.75	4726.7	
433.95	5722	
434.15	6033.3	
434.35	5767.8	
434.56	4216.8	
434.76	3962.8	
434.96	5965.1	
435.16	6093.4	
435.36	4160.1	
435.56	4934.9	
435.77	5825.8	
435.97	5966.4	
436.17	5364.3	
436.37	4801.8	
436.57	5803.3	
436.78	5767.1	
436.98	5836.7	
437.18	5208	
437.38	6229.2	
437.58	5850.4	
437.78	5244.8	
437.99	4469.4	
438.19	6246.3	
438.39	7111.2	
438.59	4571.1	
438.79	4128	
438.99	6594.5	
439.2	5896.1	
439.4	4102.1	
439.6	4119.8	
439.8	5947.3	
440	6628.6	
440.2	4840.7	
440.4	4803.2	
440.61	6402	
440.81	6619.7	
441.01	4354.7	
441.21	4890.5	
441.41	6674.3	
441.61	6347.3	
441.81	5144.5	
442.02	5703.6	
442.22	7034.8	
442.42	6552.1	
442.62	4526	
442.82	4516.5	
443.02	6784.9	
443.22	6172.6	
443.43	4807.3	
443.63	4431.8	
443.83	6100.2	
444.03	6069.5	
444.23	5237.3	
444.43	4971.1	
444.63	6422.4	
444.83	7045.7	
445.04	4569.7	
445.24	5369.8	
445.44	6632.7	
445.64	6554.2	
445.84	5139.7	
446.04	5044.1	
446.24	6231.3	
446.44	6709.8	
446.65	4624.3	
446.85	4814.8	
447.05	6179.4	
447.25	6774.7	
447.45	4838	
447.65	4454.3	
447.85	6410.8	
448.05	6040.8	
448.25	5072.1	
448.46	4952	
448.66	6376	
448.86	6130.9	
449.06	4481	
449.26	5053.7	
449.46	6559.6	
449.66	5984.2	
449.86	4901.5	
450.06	4816.1	
450.26	6156.2	
450.47	6591.7	
450.67	5003.9	
450.87	5242.1	
451.07	6674.3	
451.27	6421.1	
451.47	4592.9	
451.67	5166.3	
451.87	6222.4	
452.07	6905.1	
452.27	4807.9	
452.47	4731.5	
452.67	6384.2	
452.88	6700.3	
453.08	4405.9	
453.28	5537.7	
453.48	7245.7	
453.68	6382.2	
453.88	4738.3	
454.08	4779.3	
454.28	6673.6	
454.48	6417	
454.68	5135.6	
454.88	5453.7	
455.08	6802	
455.28	6532.3	
455.48	4621.6	
455.68	5119.9	
455.89	7073	
456.09	6817	
456.29	4968.4	
456.49	5066.7	
456.69	7054.6	
456.89	6421.1	
457.09	5348.6	
457.29	5508.4	
457.49	6804.7	
457.69	6875.7	
457.89	5219.6	
458.09	4919.2	
458.29	6736.5	
458.49	7200.7	
458.69	5489.2	
458.89	5157.5	
459.09	7315.3	
459.29	7366.5	
459.49	5190.2	
459.69	5671.5	
459.9	7047.7	
460.1	6799.9	
460.3	5109.7	
460.5	5012.7	
460.7	7094.2	
460.9	6710.5	
461.1	4995.7	
461.3	5673.6	
461.5	7565.9	
461.7	7233.4	
461.9	5176.6	
462.1	5521.3	
462.3	7071	
462.5	7355.6	
462.7	5173.9	
462.9	5395	
463.1	7966.6	
463.3	7797.3	
463.5	5455.1	
463.7	6135.7	
463.9	7372.7	
464.1	7437.5	
464.3	5672.2	
464.5	5712.5	
464.7	7589.8	
464.9	7496.9	
465.1	6575.3	
465.3	6027.9	
465.5	7864.2	
465.7	7892.2	
465.9	6204.7	
466.1	5974.6	
466.3	7678.5	
466.5	7660.1	
466.7	6679.1	
466.9	5995.8	
467.1	7810.3	
467.3	8162.5	
467.5	6702.3	
467.7	6014.2	
467.9	8409	
468.1	8901.2	
468.3	6386.9	
468.5	6636.8	
468.7	7723.6	
468.9	7554.3	
469.1	6273.6	
469.3	6655.9	
469.5	8967.4	
469.7	7535.2	
469.9	6533	
470.1	6110.5	
470.3	7866.2	
470.5	7825.3	
470.7	6888.7	
470.9	6186.9	
471.1	7767.3	
471.3	7983	
471.5	6088.6	
471.69	7193.1	
471.89	7585.7	
472.09	7234.8	
472.29	6543.3	
472.49	6616.3	
472.69	7522.9	
472.89	7801.4	
473.09	6019	
473.29	6073.6	
473.49	7593.9	
473.69	7547.4	
473.89	6587.6	
474.09	6089.3	
474.29	8372.1	
474.49	8088.8	
474.69	6579.4	
474.89	6217	
475.09	7645.1	
475.29	7632.8	
475.49	5892.7	
475.69	6051.7	
475.88	8531.2	
476.08	7918.1	
476.28	5814.9	
476.48	6033.3	
476.68	8119.5	
476.88	7911.3	
477.08	6092.7	
477.28	6243.6	
477.48	7738.6	
477.68	7907.9	
477.88	5880.4	
478.08	6067.4	
478.28	8227.4	
478.48	7667.6	
478.67	6100.2	
478.87	5683.1	
479.07	8131.1	
479.27	7765.2	
479.47	6210.1	
479.67	6410.1	
479.87	8142	
480.07	8313.4	
480.27	5816.9	
480.47	6730.3	
480.67	7771.4	
480.87	8218.5	
481.06	6025.8	
481.26	6511.9	
481.46	7892.2	
481.66	7762.5	
481.86	6421.7	
482.06	6860.7	
482.26	7746.1	
482.46	8271.1	
482.66	6272.9	
482.86	6086.6	
483.05	8003.5	
483.25	7443	
483.45	7659.4	
483.65	6293.4	
483.85	7539.3	
484.05	7755.7	
484.25	6518.7	
484.45	6874.3	
484.65	8224	
484.84	8316.8	
485.04	6336.4	
485.24	6323.4	
485.44	8643.1	
485.64	7520.8	
485.84	5979.4	
486.04	6692.1	
486.24	7839.6	
486.44	8039	
486.63	5911.1	
486.83	6509.1	
487.03	7752.2	
487.23	7904.5	
487.43	6036.7	
487.63	7362.4	
487.83	7989.8	
488.02	8322.9	
488.22	6625.2	
488.42	6941.9	
488.62	8558.5	
488.82	7833.5	
489.02	6434.7	
489.22	6481.1	
489.41	8395.3	
489.61	8358.4	
489.81	6424.5	
490.01	6401.3	
490.21	8583	
490.41	8914.8	
490.61	6449.7	
490.8	6452.5	
491	8292.2	
491.2	7845.1	
491.4	6898.2	
491.6	6428.6	
491.8	8278.6	
491.99	8189.1	
492.19	6242.9	
492.39	6329.6	
492.59	8403.5	
492.79	8549.6	
492.99	6806.8	
493.18	6346.7	
493.38	8583.7	
493.58	8994.7	
493.78	6760.3	
493.98	6514.6	
494.18	8419.9	
494.37	8087.4	
494.57	7044.3	
494.77	7002	
494.97	8718.2	
495.17	8869.1	
495.37	6825.9	
495.56	7055.9	
495.76	8977.6	
495.96	8822.6	
496.16	7706.5	
496.36	7141.9	
496.55	9065	
496.75	8788.5	
496.95	7317.4	
497.15	7324.2	
497.35	9097.1	
497.54	8964.6	
497.74	7160.4	
497.94	8240.3	
498.14	9542.9	
498.34	9352.4	
498.53	6971.3	
498.73	7485.3	
498.93	8682.7	
499.13	9030.2	
499.33	7537.2	
499.52	7560.4	
499.72	9209.7	
499.92	9191.3	
500.12	7197.9	
500.32	7375.4	
500.51	9209	
500.71	9159.2	
500.91	7901.7	
501.11	7695.6	
501.31	9337.4	
501.5	9607.7	
501.7	8108.6	
501.9	7473	
502.1	9232.2	
502.29	9368.1	
502.49	7758.4	
502.69	8015.7	
502.89	9368.8	
503.09	9344.9	
503.28	7098.3	
503.48	7234.1	
503.68	8984.4	
503.88	8955.8	
504.07	7800	
504.27	7481.2	
504.47	9078	
504.67	9089.6	
504.86	7794.6	
505.06	7527.7	
505.26	8968.7	
505.46	9781.1	
505.65	7443	
505.85	7677.8	
506.05	8884.1	
506.25	9155.1	
506.44	6977.4	
506.64	7486.7	
506.84	8740	
507.04	9160.6	
507.23	7166.5	
507.43	7404.1	
507.63	9821.4	
507.83	8619.9	
508.02	7441.6	
508.22	7180.9	
508.42	10027	
508.62	8689.5	
508.81	7266.2	
509.01	7715.4	
509.21	8596	
509.4	8924.4	
509.6	7327.6	
509.8	7016.3	
510	8751	
510.19	9491	
510.39	6950.8	
510.59	7104.4	
510.79	8720.3	
510.98	9507.4	
511.18	7288.7	
511.38	7294.2	
511.57	9318.3	
511.77	9030.2	
511.97	7682.6	
512.17	7073.7	
512.36	9252	
512.56	9011.1	
512.76	7064.8	
512.95	6978.1	
513.15	9289.6	
513.35	8374.8	
513.55	7594.6	
513.74	7075	
513.94	9126.4	
514.14	8781.7	
514.33	7674.4	
514.53	7447.1	
514.73	8888.2	
514.92	8911.4	
515.12	7165.8	
515.32	7077.8	
515.51	9085.5	
515.71	9130.5	
515.91	8132.5	
516.11	7144.7	
516.3	9975	
516.5	8734.6	
516.7	7401.4	
516.89	7883.3	
517.09	8830.8	
517.29	8828.8	
517.48	7740	
517.68	7278.5	
517.88	8650.6	
518.07	9142.8	
518.27	7694.9	
518.47	7046.4	
518.66	9448.6	
518.86	8630.8	
519.06	6907.8	
519.25	7286	
519.45	8804.9	
519.65	9652.8	
519.84	7666.2	
520.04	8097	
520.24	9989.3	
520.43	9282.1	
520.63	7674.4	
520.83	7366.5	
521.02	8918.2	
521.22	9192	
521.42	7656	
521.61	7987.8	
521.81	8860.2	
522.01	9026.1	
522.2	7499	
522.4	7268.9	
522.6	9283.4	
522.79	8445.1	
522.99	7463.5	
523.18	7083.2	
523.38	9105.3	
523.58	9194.7	
523.77	8243.1	
523.97	7167.2	
524.17	10281	
524.36	9942.9	
524.56	8058.1	
524.76	7805.5	
524.95	9371.5	
525.15	9092.3	
525.34	7835.5	
525.54	7830.7	
525.74	9680.7	
525.93	9019.9	
526.13	8535.9	
526.33	7884	
526.52	10049	
526.72	9572.2	
526.91	8785.1	
527.11	8260.8	
527.31	9914.2	
527.5	10183	
527.7	8205.5	
527.89	7650.5	
528.09	9358.5	
528.29	9760.6	
528.48	8462.9	
528.68	8200.7	
528.87	10022	
529.07	9915.6	
529.27	8283.4	
529.46	7942	
529.66	10054	
529.85	10183	
530.05	8165.3	
530.25	8377.6	
530.44	10806	
530.64	9892.4	
530.83	8359.8	
531.03	8460.2	
531.23	10194	
531.42	9883.5	
531.62	8741.4	
531.81	8204.2	
532.01	10314	
532.21	10357	
532.4	8253.3	
532.6	8511.4	
532.79	10753	
532.99	10451	
533.18	8624.7	
533.38	9278.7	
533.58	10178	
533.77	10611	
533.97	8773.5	
534.16	9159.2	
534.36	10957	
534.55	10248	
534.75	9323	
534.95	8815.8	
535.14	10879	
535.34	10380	
535.53	8598.7	
535.73	9735.4	
535.92	11265	
536.12	10428	
536.31	8832.9	
536.51	9415.2	
536.71	10661	
536.9	10316	
537.1	8684.1	
537.29	8811.7	
537.49	10705	
537.68	10268	
537.88	9045.9	
538.07	8587.8	
538.27	10465	
538.46	11090	
538.66	8591.2	
538.86	8795.3	
539.05	10533	
539.25	10722	
539.44	9161.9	
539.64	8720.9	
539.83	10435	
540.03	11106	
540.22	8723	
540.42	8739.4	
540.61	10574	
540.81	10682	
541	8955.8	
541.2	9378.3	
541.39	10255	
541.59	10475	
541.78	9265.7	
541.98	8648.6	
542.18	10083	
542.37	10026	
542.57	8897.1	
542.76	9304.6	
542.96	10185	
543.15	10499	
543.35	8936.7	
543.54	8607.6	
543.74	10260	
543.93	10346	
544.13	8761.2	
544.32	9280.7	
544.52	10430	
544.71	9975.7	
544.91	8185.7	
545.1	8802.9	
545.3	10075	
545.49	10350	
545.69	8139.3	
545.88	8535.3	
546.08	11122	
546.27	10721	
546.47	8858.8	
546.66	8359.1	
546.86	10454	
547.05	10818	
547.24	8518.9	
547.44	8497	
547.63	9860.3	
547.83	10556	
548.02	8660.9	
548.22	8759.2	
548.41	9753.1	
548.61	10542	
548.8	8349.6	
549	8387.1	
549.19	10121	
549.39	10426	
549.58	8253.3	
549.78	8550.3	
549.97	10329	
550.17	10049	
550.36	9030.9	
550.55	9695.8	
550.75	9996.1	
550.94	10600	
551.14	8260.8	
551.33	8452.6	
551.53	9711.5	
551.72	10176	
551.92	8491.6	
552.11	8228.7	
552.31	10320	
552.5	10077	
552.69	9367.4	
552.89	8045.1	
553.08	10277	
553.28	10026	
553.47	8432.9	
553.67	9004.9	
553.86	10495	
554.06	9467.8	
554.25	7823.2	
554.44	8121.6	
554.64	10907	
554.83	10759	
555.03	8117.5	
555.22	8460.8	
555.42	10339	
555.61	10056	
555.8	8190.5	
556	8320.2	
556.19	9612.5	
556.39	10147	
556.58	8202.8	
556.78	8226	
556.97	9871.9	
557.16	9800.9	
557.36	9082.1	
557.55	8060.1	
557.75	9379	
557.94	10531	
558.13	8096.3	
558.33	7958.4	
558.52	10455	
558.72	9576.3	
558.91	8039	
559.1	8068.3	
559.3	9444.5	
559.49	9239.8	
559.69	7873.8	
559.88	8333.2	
560.07	9855.5	
560.27	10222	
560.46	8462.2	
560.66	8531.2	
560.85	9794.1	
561.04	9247.9	
561.24	8008.2	
561.43	8021.2	
561.63	9403.6	
561.82	9650.7	
562.01	8747.6	
562.21	8160.5	
562.4	9803.6	
562.59	10402	
562.79	8054.7	
562.98	7947.5	
563.18	9785.2	
563.37	10691	
563.56	8393.3	
563.76	8027.4	
563.95	9602.9	
564.14	9590.6	
564.34	8297	
564.53	8037.6	
564.73	9934	
564.92	10013	
565.11	8307.2	
565.31	7901.1	
565.5	10333	
565.69	9501.2	
565.89	8247.2	
566.08	8305.9	
566.27	10164	
566.47	10565	
566.66	8754.4	
566.85	7897	
567.05	10030	
567.24	9797.5	
567.44	8105.9	
567.63	8908.7	
567.82	10176	
568.02	9921	
568.21	8205.5	
568.4	8352.3	
568.6	9964.1	
568.79	9807.7	
568.98	8104.5	
569.18	8146.8	
569.37	9877.4	
569.56	11067	
569.76	8389.8	
569.95	9025.4	
570.14	10180	
570.34	10038	
570.53	8178.9	
570.72	8117.5	
570.91	10589	
571.11	10005	
571.3	8432.2	
571.49	9024	
571.69	10006	
571.88	9684.8	
572.07	8761.9	
572.27	8647.2	
572.46	9698.5	
572.65	10281	
572.85	8355.7	
573.04	8542.1	
573.23	10576	
573.43	10144	
573.62	8262.9	
573.81	8595.3	
574	10241	
574.2	9864.4	
574.39	8532.5	
574.58	8556.4	
574.78	10682	
574.97	10235	
575.16	8793.3	
575.36	8960.5	
575.55	10641	
575.74	10682	
575.93	8348.9	
576.13	8982.4	
576.32	10103	
576.51	10564	
576.71	8690.2	
576.9	9484.1	
577.09	10784	
577.28	10448	
577.48	8856.8	
577.67	8358.4	
577.86	10226	
578.05	10505	
578.25	8787.8	
578.44	8772.1	
578.63	10316	
578.83	11064	
579.02	8432.9	
579.21	9381.7	
579.4	10498	
579.6	10448	
579.79	8910	
579.98	10226	
580.17	10700	
580.37	10866	
580.56	8659.5	
580.75	9064.3	
580.94	10839	
581.14	11002	
581.33	9300.5	
581.52	8591.2	
581.71	10576	
581.91	10995	
582.1	8642.4	
582.29	8777.6	
582.48	10469	
582.68	10466	
582.87	9115.5	
583.06	8996	
583.25	10750	
583.45	10248	
583.64	9384.5	
583.83	9760.6	
584.02	10546	
584.21	10782	
584.41	9316.2	
584.6	9000.8	
584.79	10673	
584.98	10919	
585.18	8805.6	
585.37	8694.3	
585.56	10391	
585.75	10820	
585.94	8822	
586.14	9217.2	
586.33	10983	
586.52	10580	
586.71	8958.5	
586.91	8943.5	
587.1	10151	
587.29	10921	
587.48	8721.6	
587.67	8723.7	
587.87	10637	
588.06	10526	
588.25	9436.4	
588.44	9125.7	
588.63	10288	
588.83	10665	
589.02	8785.8	
589.21	8594	
589.4	10277	
589.59	10205	
589.78	8146.8	
589.98	8275.8	
590.17	9721	
590.36	9993.4	
590.55	7696.3	
590.74	8096.3	
590.94	10436	
591.13	9668.5	
591.32	7810.3	
591.51	7535.8	
591.7	9767.4	
591.89	9506	
592.09	7574.1	
592.28	7872.4	
592.47	8976.2	
592.66	10300	
592.85	7701	
593.05	7901.1	
593.24	9486.2	
593.43	10148	
593.62	7871.7	
593.81	8214.4	
594	9688.9	
594.19	9645.3	
594.39	7856.7	
594.58	7723.6	
594.77	9809.8	
594.96	10045	
595.15	7785.7	
595.34	8181.6	
595.54	9692.4	
595.73	9234.3	
595.92	7411.6	
596.11	8056	
596.3	9972.9	
596.49	9286.2	
596.68	7840.3	
596.88	8113.4	
597.07	9689.6	
597.26	9143.5	
597.45	7617.8	
597.64	8292.2	
597.83	9343.5	
598.02	9656.9	
598.22	7673.1	
598.41	8000.7	
598.6	9598.1	
598.79	9181.7	
598.98	7690.1	
599.17	8190.5	
599.36	9662.3	
599.55	10166	
599.74	8759.2	
599.94	8704.5	
600.13	9921.7	
600.32	9173.5	
600.51	7587	
600.7	7603.4	
600.89	10198	
601.08	10217	
601.27	7493.5	
601.47	7988.4	
601.66	9792.7	
601.85	10149	
602.04	7965.2	
602.23	7960.5	
602.42	9314.8	
602.61	9661	
602.8	7820.5	
602.99	7673.7	
603.18	9496.4	
603.37	9484.8	
603.57	8036.2	
603.76	8350.3	
603.95	9983.2	
604.14	9661	
604.33	7783	
604.52	7850.5	
604.71	9551	
604.9	9306	
605.09	8326.4	
605.28	8190.5	
605.47	10032	
605.66	9652.8	
605.86	8120.9	
606.05	7780.2	
606.24	9985.2	
606.43	8968.1	
606.62	8026	
606.81	8338	
607	9936.1	
607.19	9435	
607.38	7487.4	
607.57	7722.2	
607.76	9257.5	
607.95	8841.1	
608.14	7977.5	
608.33	8267	
608.52	9206.3	
608.72	9788.6	
608.91	7477.8	
609.1	7428	
609.29	9291	
609.48	8925.7	
609.67	7956.4	
609.86	7468.9	
610.05	9166.7	
610.24	9159.9	
610.43	7463.5	
610.62	7161.7	
610.81	9908.8	
611	9822.7	
611.19	7471	
611.38	7871	
611.57	9484.1	
611.76	10170	
611.95	7322.9	
612.14	7333.1	
612.33	9294.4	
612.52	9056.1	
612.71	7667.6	
612.9	7147.4	
613.09	8773.5	
613.28	10155	
613.47	7580.2	
613.66	7968.6	
613.85	9423.4	
614.04	8927.1	
614.24	7588.4	
614.43	7098.3	
614.62	9420	
614.81	9384.5	
615	7879.9	
615.19	7754.3	
615.38	8944.2	
615.57	9320.3	
615.76	7877.2	
615.95	8425.3	
616.14	9501.9	
616.33	9301.2	
616.52	8058.1	
616.71	8078.6	
616.9	9458.2	
617.09	9332.6	
617.28	7649.2	
617.47	8178.9	
617.66	9024.7	
617.85	9031.5	
618.04	8148.9	
618.22	7787.7	
618.41	9176.3	
618.6	9749.7	
618.79	7828	
618.98	7679.9	
619.17	10006	
619.36	8876.6	
619.55	7946.1	
619.74	7894.9	
619.93	9607	
620.12	9245.2	
620.31	8215.8	
620.5	8224	
620.69	9826.8	
620.88	10245	
621.07	8724.3	
621.26	8199.4	
621.45	9785.2	
621.64	9771.5	
621.83	8315.4	
622.02	7818.5	
622.21	9826.8	
622.4	9695.8	
622.59	8551	
622.78	8566.7	
622.97	9512.8	
623.16	10015	
623.35	8330.5	
623.54	7797.3	
623.72	9496.4	
623.91	9796.8	
624.1	8488.1	
624.29	7750.9	
624.48	10333	
624.67	9972.2	
624.86	8378.9	
625.05	7848.5	
625.24	10471	
625.43	9617.3	
625.62	9443.9	
625.81	8105.9	
626	10041	
626.19	9651.4	
626.38	8462.2	
626.56	8112.7	
626.75	9559.9	
626.94	9988.6	
627.13	8503.2	
627.32	7593.2	
627.51	9990	
627.7	10473	
627.89	7834.8	
628.08	8596.7	
628.27	9422.7	
628.46	9599.5	
628.65	7870.3	
628.83	7724.3	
629.02	9866.4	
629.21	9318.3	
629.4	8190.5	
629.59	8297.7	
629.78	9485.5	
629.97	10012	
630.16	8295	
630.35	8008.2	
630.54	10316	
630.72	10184	
630.91	8047.8	
631.1	8298.4	
631.29	9770.9	
631.48	9759.3	
631.67	8476.5	
631.86	8011.7	
632.05	9718.3	
632.24	9623.4	
632.42	7859.4	
632.61	8174.8	
632.8	9667.8	
632.99	9398.8	
633.18	8280.6	
633.37	8509.3	
633.56	9834.3	
633.75	9706.7	
633.93	8294.3	
634.12	8104.5	
634.31	10359	
634.5	10055	
634.69	8175.5	
634.88	8376.2	
635.07	9734.7	
635.25	10074	
635.44	8700.5	
635.63	8746.2	
635.82	9605	
636.01	9021.3	
636.2	8587.1	
636.39	8289.5	
636.57	10249	
636.76	9986.6	
636.95	7937.2	
637.14	8726.4	
637.33	9858.2	
637.52	10352	
637.7	7828	
637.89	8527.7	
638.08	9699.2	
638.27	10378	
638.46	8526.4	
638.65	8735.3	
638.83	10422	
639.02	9549	
639.21	8410.3	
639.4	8690.2	
639.59	9730.6	
639.78	9408.4	
639.96	7896.3	
640.15	7935.9	
640.34	9742.9	
640.53	9549	
640.72	7731.1	
640.91	7920.9	
641.09	9289.6	
641.28	10045	
641.47	7926.3	
641.66	8479.3	
641.85	9582.4	
642.03	9746.3	
642.22	8210.3	
642.41	7975.5	
642.6	9291	
642.79	8926.4	
642.97	7814.4	
643.16	8140.7	
643.35	9251.4	
643.54	9083.4	
643.73	7706.5	
643.91	8206.2	
644.1	9001.5	
644.29	9448.6	
644.48	7696.3	
644.67	7696.9	
644.85	8964	
645.04	9424.1	
645.23	7398.6	
645.42	7680.6	
645.6	8903.2	
645.79	9457.5	
645.98	7462.1	
646.17	6825.2	
646.36	8669.7	
646.54	8900.5	
646.73	7891.5	
646.92	7138.5	
647.11	8638.3	
647.29	9303.9	
647.48	7129.7	
647.67	7043.6	
647.86	9350.3	
648.05	9323	
648.23	7286	
648.42	8000	
648.61	9073.9	
648.8	8887.5	
648.98	7090.8	
649.17	7268.2	
649.36	8461.5	
649.55	8287.4	
649.73	6988.4	
649.92	7513.3	
650.11	8510	
650.3	8766	
650.48	7176.8	
650.67	7125.6	
650.86	8895	
651.05	8185.7	
651.23	7127.6	
651.42	7090.8	
651.61	8633.6	
651.79	8467.7	
651.98	7209.5	
652.17	6960.4	
652.36	8689.5	
652.54	8148.9	
652.73	7043.6	
652.92	6933.7	
653.11	8681.3	
653.29	8862.2	
653.48	6605.4	
653.67	7227.3	
653.85	8525	
654.04	9185.1	
654.23	7234.8	
654.42	7045.7	
654.6	8208.3	
654.79	8643.8	
654.98	6647	
655.16	6851.8	
655.35	7956.4	
655.54	7706.5	
655.73	6505.7	
655.91	6352.8	
656.1	8342.7	
656.29	7608.9	
656.47	6102.9	
656.66	7150.8	
656.85	7995.3	
657.03	7873.8	
657.22	6546.7	
657.41	6541.2	
657.59	8094.3	
657.78	7891.5	
657.97	6466.1	
658.16	6952.9	
658.34	8514.1	
658.53	8804.9	
658.72	7491.5	
658.9	7680.6	
659.09	8396	
659.28	8303.1	
659.46	6819.1	
659.65	6673	
659.84	8067.6	
660.02	8631.5	
660.21	6793.1	
660.4	6718	
660.58	8659.5	
660.77	8284.7	
660.96	7056.6	
661.14	6462.7	
661.33	9020.6	
661.52	8918.2	
661.7	6466.8	
661.89	8409.6	
662.08	8144.1	
662.26	7813.7	
662.45	6698.2	
662.64	6582.2	
662.82	8621.9	
663.01	8097	
663.2	6651.1	
663.38	7110.5	
663.57	8401.5	
663.75	8325	
663.94	6849.8	
664.13	7513.3	
664.31	8074.5	
664.5	8469.7	
664.69	7051.2	
664.87	7253.9	
665.06	8051.2	
665.25	8303.8	
665.43	7490.8	
665.62	7445	
665.8	8458.8	
665.99	8037.6	
666.18	6772.6	
666.36	6771.3	
666.55	8478.6	
666.74	8354.3	
666.92	6594.5	
667.11	7585.7	
667.29	8147.5	
667.48	8456.7	
667.67	7327.6	
667.85	6707.1	
668.04	8067.6	
668.22	8041.7	
668.41	6793.1	
668.6	7012.9	
668.78	8045.1	
668.97	8072.4	
669.15	7077.8	
669.34	6400.6	
669.53	7991.9	
669.71	8214.4	
669.9	6497.5	
670.08	6834.1	
670.27	7838.3	
670.46	8263.6	
670.64	6991.8	
670.83	7204.8	
671.01	7824.6	
671.2	8150.2	
671.38	6615.6	
671.57	6439.5	
671.76	8556.4	
671.94	8918.2	
672.13	6417	
672.31	7078.5	
672.5	8428.8	
672.69	7991.9	
672.87	6548	
673.06	6784.9	
673.24	8305.2	
673.43	8027.4	
673.61	6980.2	
673.8	6587	
673.98	8284	
674.17	8366.6	
674.36	7032.7	
674.54	6950.8	
674.73	7984.3	
674.91	8394.6	
675.1	6815.6	
675.28	6475	
675.47	8014.4	
675.65	8396.7	
675.84	6702.3	
676.03	6845.7	
676.21	7903.1	
676.4	7639.6	
676.58	7101	
676.77	7010.2	
676.95	8976.9	
677.14	7856.7	
677.32	6417.7	
677.51	6480.5	
677.69	8387.1	
677.88	7821.2	
678.06	6467.5	
678.25	6466.8	
678.44	8097	
678.62	7776.8	
678.81	6300.9	
678.99	6886	
679.18	8566.7	
679.36	8232.8	
679.55	6647.7	
679.73	6964.5	
679.92	8221.2	
680.1	8028.7	
680.29	7359	
680.47	6595.8	
680.66	7854	
680.84	8387.8	
681.03	6279.8	
681.21	6971.3	
681.4	7859.4	
681.58	7778.9	
681.77	6537.1	
681.95	6429.3	
682.14	8387.1	
682.32	8601.5	
682.51	7040.9	
682.69	6350.1	
682.88	7840.3	
683.06	8068.3	
683.25	6766.5	
683.43	6983.6	
683.62	8126.3	
683.8	8200.1	
683.99	7178.8	
684.17	6694.8	
684.36	8684.1	
684.54	7976.2	
684.73	6227.2	
684.91	6388.3	
685.1	8042.4	
685.28	7666.2	
685.46	6546.7	
685.65	6537.8	
685.83	7827.3	
686.02	7450.5	
686.2	5933.6	
686.39	5995.8	
686.57	7043.6	
686.76	8046.5	
686.94	5930.9	
687.13	6109.1	
687.31	7706.5	
687.5	7579.5	
687.68	5805.3	
687.86	6454.5	
688.05	8698.4	
688.23	7254.6	
688.42	6612.9	
688.6	6156.2	
688.79	7459.4	
688.97	7538.6	
689.16	6505.7	
689.34	5803.9	
689.52	8002.8	
689.71	8159.1	
689.89	6702.3	
690.08	6232	
690.26	7821.9	
690.45	7684.7	
690.63	6743.3	
690.81	6500.9	
691	7742.7	
691.18	7731.8	
691.37	6552.1	
691.55	7811.6	
691.74	7596.6	
691.92	8684.1	
692.1	6346	
692.29	6144.6	
692.47	7818.5	
692.66	7331	
692.84	6062.7	
693.02	6385.6	
693.21	7281.9	
693.39	7699.7	
693.58	6579.4	
693.76	6262.7	
693.94	8417.2	
694.13	8206.2	
694.31	6348	
694.5	6935.1	
694.68	7567.9	
694.86	7892.9	
695.05	6547.4	
695.23	6762.4	
695.42	8215.8	
695.6	9510.8	
695.78	7050.5	
695.97	6507.8	
696.15	8303.8	
696.34	7836.9	
696.52	6404	
696.7	6870.9	
696.89	8161.2	
697.07	7669	
697.25	6711.9	
697.44	7546.8	
697.62	8007.6	
697.81	8030.1	
697.99	6589.7	
698.17	6831.3	
698.36	7623.9	
698.54	7972.7	
698.72	6642.2	
698.91	6044.2	
699.09	7707.9	
699.28	7581.6	
699.46	6460.7	
699.64	6386.9	
699.83	7471.7	
700.01	8124.3	
700.19	6851.1	
700.38	5963	
700.56	8181.6	
700.74	7685.3	
700.93	6079.1	
701.11	6689.3	
701.29	7946.1	
701.48	8564.6	
701.66	6272.9	
701.84	6406.7	
702.03	7735.2	
702.21	8287.4	
702.39	6092.7	
702.58	6586.3	
702.76	8105.9	
702.94	8036.9	
703.13	6143.2	
703.31	7576.8	
703.49	7748.8	
703.68	8316.8	
703.86	6300.9	
704.04	6778.8	
704.23	7897	
704.41	8162.5	
704.59	6309.1	
704.78	7010.9	
704.96	8967.4	
705.14	8094.9	
705.33	6249	
705.51	6705	
705.69	7708.6	
705.87	8218.5	
706.06	6798.6	
706.24	6203.3	
706.42	7941.3	
706.61	8196.7	
706.79	6895.5	
706.97	6128.9	
707.16	7684.7	
707.34	7907.2	
707.52	6687.3	
707.7	6370.5	
707.89	7631.4	
708.07	7519.5	
708.25	6746	
708.44	6925.5	
708.62	7597.3	
708.8	8292.2	
708.98	6962.4	
709.17	6341.9	
709.35	7794.6	
709.53	7821.9	
709.72	6114.6	
709.9	6216.3	
710.08	8088.8	
710.26	8157.1	
710.45	7069.6	
710.63	6246.3	
710.81	7688.1	
710.99	7789.8	
711.18	6649.1	
711.36	6277	
711.54	7557	
711.72	8045.1	
711.91	6361.7	
712.09	5947.3	
712.27	7712.7	
712.45	7987.8	
712.64	6313.2	
712.82	5777.3	
713	7233.4	
713.18	7281.9	
713.37	5772.5	
713.55	6419.7	
713.73	7716.1	
713.91	6873	
714.1	5788.9	
714.28	5527.5	
714.46	7380.2	
714.64	6819.1	
714.83	5052.3	
715.01	5333.6	
715.19	6638.1	
715.37	6054.5	
715.55	4973.8	
715.74	5124.7	
715.92	6875	
716.1	5659.2	
716.28	5724.1	
716.47	5117.9	
716.65	6224.5	
716.83	6169.8	
717.01	4960.2	
717.19	5019.6	
717.38	7380.9	
717.56	5947.3	
717.74	5073.5	
717.92	4582.7	
718.1	6569.2	
718.29	6128.9	
718.47	4339	
718.65	4858.5	
718.83	6744.6	
719.01	6651.8	
719.2	4550.6	
719.38	5175.9	
719.56	6595.1	
719.74	7544	
719.92	5032.5	
720.11	5617.6	
720.29	6799.9	
720.47	6183.5	
720.65	4696	
720.83	5169.1	
721.02	6290.7	
721.2	6128.2	
721.38	5083.1	
721.56	4543.1	
721.74	5699.5	
721.92	5737	
722.11	5242.8	
722.29	5079	
722.47	6432	
722.65	5982.1	
722.83	4533.5	
723.01	4969.1	
723.2	5982.1	
723.38	6215.6	
723.56	4212.7	
723.74	4859.1	
723.92	5696.8	
724.1	6341.2	
724.29	4461.8	
724.47	5112.4	
724.65	5902.9	
724.83	5666	
725.01	4405.9	
725.19	4805.9	
725.37	5642.8	
725.56	5640.8	
725.74	4238.6	
725.92	4439.3	
726.1	5714.5	
726.28	5878.4	
726.46	4707.6	
726.64	4462.5	
726.83	5901.6	
727.01	5907	
727.19	4311	
727.37	4668	
727.55	5970.5	
727.73	6196.5	
727.91	4124.6	
728.09	4098.7	
728.28	6137.8	
728.46	6324.8	
728.64	4752	
728.82	4657.8	
729	6751.5	
729.18	6400.6	
729.36	4238.6	
729.54	5593.7	
729.72	6938.5	
729.91	6008.1	
730.09	5498.8	
730.27	4748.6	
730.45	5989.6	
730.63	6251.1	
730.81	5031.2	
730.99	4526	
731.17	6677.7	
731.35	5741.1	
731.53	4790.9	
731.71	4596.3	
731.9	6445	
732.08	6468.9	
732.26	4762.9	
732.44	4521.2	
732.62	6517.3	
732.8	6219	
732.98	4975.2	
733.16	4402.5	
733.34	6187.6	
733.52	5425.8	
733.7	4564.9	
733.88	4704.9	
734.07	6070.2	
734.25	5905.7	
734.43	4321.2	
734.61	5128.8	
734.79	6913.9	
734.97	5915.2	
735.15	4403.1	
735.33	4535.6	
735.51	6083.8	
735.69	5859.9	
735.87	5354.1	
736.05	4600.4	
736.23	5935	
736.41	5666	
736.59	4470.7	
736.77	4555.4	
736.95	6077.7	
737.13	5782.1	
737.32	4288.4	
737.5	4399.7	
737.68	6524.8	
737.86	5698.8	
738.04	4171	
738.22	5200.5	
738.4	5674.9	
738.58	5802.6	
738.76	4487.1	
738.94	3929.4	
739.12	5668.8	
739.3	5602.6	
739.48	4817.5	
739.66	4657.8	
739.84	5773.9	
740.02	5714.5	
740.2	3977.8	
740.38	4111	
740.56	5909.8	
740.74	5221.6	
740.92	4519.9	
741.1	4363.5	
741.28	5641.5	
741.46	5403.2	
741.64	4227	
741.82	4552	
742	5591.6	
742.18	5502.2	
742.36	4263.9	
742.54	4072.7	
742.72	6004	
742.9	5106.3	
743.08	4360.1	
743.26	3765.5	
743.44	5957.5	
743.62	5827.8	
743.8	4574.5	
743.98	3906.2	
744.16	5654.4	
744.34	5373.9	
744.52	4351.9	
744.7	4372.4	
744.88	5790.3	
745.06	5447.6	
745.24	4387.4	
745.42	4463.9	
745.6	5750	
745.78	5713.8	
745.96	3728	
746.14	3895.2	
746.32	6214.9	
746.5	5606.7	
746.68	4176.5	
746.86	3880.2	
747.03	5807.4	
747.21	4971.8	
747.39	4170.3	
747.57	3800.3	
747.75	5426.4	
747.93	5595.7	
748.11	3798.3	
748.29	3741.6	
748.47	6391.7	
748.65	5240.1	
748.83	4195.6	
749.01	4007.2	
749.19	5580.7	
749.37	4977.2	
749.55	3988.1	
749.73	3997.6	
749.91	5335.6	
750.09	5218.2	
750.26	3977.2	
750.44	3658.4	
750.62	5313.1	
750.8	5221	
750.98	3572.3	
751.16	3768.3	
751.34	5419.6	
751.52	4899.4	
751.7	4238.6	
751.88	3508.2	
752.06	5625.1	
752.24	5411.4	
752.42	3515	
752.59	3704.8	
752.77	5212.1	
752.95	5993	
753.13	4093.9	
753.31	3753.2	
753.49	5037.3	
753.67	5296	
753.85	3911.6	
754.03	3633.1	
754.21	5490.6	
754.38	5607.3	
754.56	3634.5	
754.74	3167.5	
754.92	4924.7	
755.1	5226.4	
755.28	3133.4	
755.46	3134.1	
755.64	5717.9	
755.82	5797.8	
755.99	3263.8	
756.17	3265.8	
756.35	4237.2	
756.53	5089.2	
756.71	2582.5	
756.89	3378.5	
757.07	4856.4	
757.25	4314.4	
757.42	3463.1	
757.6	3936.9	
757.78	4866	
757.96	4338.3	
758.14	3205.1	
758.32	3015.3	
758.5	4030.4	
758.67	4787.5	
758.85	3126.6	
759.03	3199.6	
759.21	4681	
759.39	4313.7	
759.57	2914.9	
759.75	3538.2	
759.92	5108.3	
760.1	4762.9	
760.28	3777.8	
760.46	3959.4	
760.64	4527.4	
760.82	4495.3	
760.99	3675.4	
761.17	3267.9	
761.35	5035.3	
761.53	4402.5	
761.71	3411.2	
761.89	3686.3	
762.06	4996.4	
762.24	4670.1	
762.42	3424.2	
762.6	3263.8	
762.78	4703.5	
762.96	5014.1	
763.13	3637.9	
763.31	3422.2	
763.49	5008	
763.67	4608.6	
763.85	3882.3	
764.02	4263.2	
764.2	5293.3	
764.38	4721.9	
764.56	3351.2	
764.74	3844	
764.91	5277.6	
765.09	4700.8	
765.27	3186.6	
765.45	3020.1	
765.63	5412.8	
765.8	5195	
765.98	3005.7	
766.16	3112.2	
766.34	4455	
766.52	4207.2	
766.69	3663.1	
766.87	2984.6	
767.05	4721.9	
767.23	5094	
767.41	3151.1	
767.58	3338.9	
767.76	5034.6	
767.94	5053	
768.12	3245.3	
768.29	3610.6	
768.47	4680.3	
768.65	5176.6	
768.83	3028.9	
769	3633.1	
769.18	4445.5	
769.36	4835.3	
769.54	3605.1	
769.72	2955.2	
769.89	5087.8	
770.07	5049.6	
770.25	3283.6	
770.43	3967.6	
770.6	5514.5	
770.78	5683.1	
770.96	3301.3	
771.14	3633.8	
771.31	5044.8	
771.49	4595	
771.67	2829.6	
771.85	2942.9	
772.02	4162.8	
772.2	4588.1	
772.38	3452.2	
772.55	3116.3	
772.73	4772.4	
772.91	4616.1	
773.09	3323.2	
773.26	3411.2	
773.44	4802.5	
773.62	4506.9	
773.8	3031	
773.97	2877.4	
774.15	4730.8	
774.33	4552	
774.5	2977.7	
774.68	3190.1	
774.86	4805.2	
775.04	4564.9	
775.21	3035.1	
775.39	2986.6	
775.57	4718.5	
775.74	4852.3	
775.92	2867.8	
776.1	2776.4	
776.27	4641.4	
776.45	5396.4	
776.63	2983.9	
776.81	2738.1	
776.98	4500.1	
777.16	5048.2	
777.34	3127.2	
777.51	3213.9	
777.69	4499.4	
777.87	4315.8	
778.04	3177.1	
778.22	3364.1	
778.4	4337.6	
778.57	4752.7	
778.75	2691	
778.93	2832.3	
779.1	4321.2	
779.28	4119.1	
779.46	2679.4	
779.64	2891	
779.81	4867.3	
779.99	5258.5	
780.17	3340.9	
780.34	3510.2	
780.52	4569.7	
780.69	4579.9	
780.87	3133.4	
781.05	2874	
781.22	4623.6	
781.4	4576.5	
781.58	2965.5	
781.75	2461.7	
781.93	4629.1	
782.11	4093.9	
782.28	3491.1	
782.46	2982.5	
782.64	4024.9	
782.81	4682.3	
782.99	3123.2	
783.17	3001.6	
783.34	4477.5	
783.52	4244.1	
783.69	3136.1	
783.87	3570.3	
784.05	4283.7	
784.22	4216.8	
784.4	3618.1	
784.58	3153.2	
784.75	4825	
784.93	4323.9	
785.1	2938.8	
785.28	3325.2	
785.46	4627.7	
785.63	4199	
785.81	2968.9	
785.99	2862.4	
786.16	4386.7	
786.34	4499.4	
786.51	2866.5	
786.69	3188	
786.87	4031.8	
787.04	4302.8	
787.22	2834.4	
787.39	3304.7	
787.57	4190.8	
787.75	4839.4	
787.92	3458.3	
788.1	3414.6	
788.27	4116.4	
788.45	3908.2	
788.63	3280.8	
788.8	2497.2	
788.98	4579.3	
789.15	3941	
789.33	2593.4	
789.5	2912.9	
789.68	4756.7	
789.86	4788.2	
790.03	3149.8	
790.21	2835.1	
790.38	4825.7	
790.56	4265.2	
790.73	2817.3	
790.91	2790.7	
791.09	4162.8	
791.26	4590.2	
791.44	3004.4	
791.61	2633.7	
791.79	4201.1	
791.96	4132.8	
792.14	2700.6	
792.32	2434.4	
792.49	4190.1	
792.67	4188.8	
792.84	2753.8	
793.02	2590	
793.19	4500.1	
793.37	4857.8	
793.54	2453.5	
793.72	2655.5	
793.89	4891.9	
794.07	4125.3	
794.25	3033	
794.42	2505.3	
794.6	4774.5	
794.77	4534.2	
794.95	3164.1	
795.12	2796.8	
795.3	4244.8	
795.47	4519.2	
795.65	3039.2	
795.82	2969.6	
796	4063.2	
796.17	5107	
796.35	2869.9	
796.52	3304.1	
796.7	4547.9	
796.87	4556	
797.05	2919.7	
797.22	3366.2	
797.4	4595.6	
797.57	5153.4	
797.75	3021.4	
797.92	2877.4	
798.1	4776.5	
798.27	3938.2	
798.45	2559.3	
798.62	2664.4	
798.8	4324.6	
798.97	4640	
799.15	3102.7	
799.32	2998.9	
799.5	3934.1	
799.67	4329.4	
799.85	3190.1	
800.02	2465.8	
800.2	4142.4	
800.37	4205.2	
800.55	3218	
800.72	2812.5	
800.9	4656.4	
801.07	4786.8	
801.25	3610.6	
801.42	3065.8	
801.6	4648.2	
801.77	4248.2	
801.95	2867.2	
802.12	2802.3	
802.29	4463.9	
802.47	4362.2	
802.64	3076	
802.82	2431.6	
802.99	4179.9	
803.17	4646.2	
803.34	3019.4	
803.52	2726.5	
803.69	5039.4	
803.87	4024.3	
804.04	2953.9	
804.21	2987.3	
804.39	4904.9	
804.56	4186	
804.74	2594.1	
804.91	3082.2	
805.09	4090.5	
805.26	4151.2	
805.44	2678.7	
805.61	2840.5	
805.78	4525.3	
805.96	4581.3	
806.13	3033	
806.31	3224.9	
806.48	3865.9	
806.66	4131.4	
806.83	3057.6	
807	2934.7	
807.18	4162.8	
807.35	4379.9	
807.53	2970.9	
807.7	2559.3	
807.87	4835.9	
808.05	4081.6	
808.22	3201.7	
808.4	2521	
808.57	4063.2	
808.74	3936.9	
808.92	2805.7	
809.09	3429	
809.27	4162.8	
809.44	4431.8	
809.61	2498.5	
809.79	2678.1	
809.96	4950.6	
810.14	4530.8	
810.31	2478.7	
810.48	3145	
810.66	4222.2	
810.83	4560.1	
811.01	2792.7	
811.18	2997.5	
811.35	4603.2	
811.53	3721.8	
811.7	3196.2	
811.87	3057.6	
812.05	4232.5	
812.22	4125.3	
812.39	2684.2	
812.57	2639.8	
812.74	4214	
812.92	5137.7	
813.09	2882.9	
813.26	3022.1	
813.44	4962.2	
813.61	4076.1	
813.78	2438.4	
813.96	3106.1	
814.13	4197.7	
814.3	4002.4	
814.48	3375.1	
814.65	2801.6	
814.82	4889.9	
815	3869.3	
815.17	2935.4	
815.34	3432.4	
815.52	4101.4	
815.69	4078.2	
815.87	2852.8	
816.04	2863.7	
816.21	4099.4	
816.38	3822.9	
816.56	2846.7	
816.73	2715.6	
816.9	5034.6	
817.08	4534.9	
817.25	2688.3	
817.42	3213.3	
817.6	3893.9	
817.77	4034.5	
817.94	2951.1	
818.12	2651.4	
818.29	4033.1	
818.46	5497.4	
818.64	2822.8	
818.81	2622.8	
818.98	4011.3	
819.16	5162.2	
819.33	3127.2	
819.5	2925.9	
819.67	4386.1	
819.85	4754.7	
820.02	2895.8	
820.19	2995.5	
820.37	4274.1	
820.54	4077.5	
820.71	3002.3	
820.88	3598.3	
821.06	4249.5	
821.23	4003.1	
821.4	2954.5	
821.58	2940.2	
821.75	4499.4	
821.92	4225.6	
822.09	2473.9	
822.27	2564.7	
822.44	4113	
822.61	4109.6	
822.79	2478	
822.96	4284.4	
823.13	4306.9	
823.3	3878.2	
823.48	2803	
823.65	2523.1	
823.82	4620.2	
823.99	3882.3	
824.17	3424.2	
824.34	2594.8	
824.51	5131.5	
824.68	4191.5	
824.86	2685.6	
825.03	2977.7	
825.2	4132.8	
825.37	4762.2	
825.55	2712.2	
825.72	2902.7	
825.89	5057.1	
826.06	4795.7	
826.24	2857.6	
826.41	2887.6	
826.58	4816.1	
826.75	4272.7	
826.92	2445.3	
827.1	2613.2	
827.27	6123.4	
827.44	5022.3	
827.61	2732	
827.79	3170.3	
827.96	4061.8	
828.13	4113	
828.3	2874.7	
828.47	2431.6	
828.65	4444.8	
828.82	4338.3	
828.99	3436.5	
829.16	3004.4	
829.34	4631.8	
829.51	4510.3	
829.68	2886.3	
829.85	2984.6	
830.02	4845.5	
830.2	4609.3	
830.37	2376.3	
830.54	3390.1	
830.71	5059.8	
830.88	4177.9	
831.05	2377	
831.23	2626.2	
831.4	4953.4	
831.57	5247.6	
831.74	2648	
831.91	2463	
832.09	4463.2	
832.26	4650.9	
832.43	2772.9	
832.6	3092.4	
832.77	4392.2	
832.94	4841.4	
833.12	2327.9	
833.29	2695.1	
833.46	4130.1	
833.63	5417.6	
833.8	2962	
833.97	2767.5	
834.15	4696.7	
834.32	4522.6	
834.49	2921.1	
834.66	2893.1	
834.83	4661.2	
835	4115.1	
835.17	2747.7	
835.35	2676.7	
835.52	4590.9	
835.69	4454.3	
835.86	2808.4	
836.03	2394.1	
836.2	4618.9	
836.37	4350.6	
836.55	2748.4	
836.72	2646	
836.89	4326	
837.06	4698.7	
837.23	2817.3	
837.4	2949.8	
837.57	5114.5	
837.75	5398.4	
837.92	2592	
838.09	2714.2	
838.26	4344.4	
838.43	4729.4	
838.6	2882.9	
838.77	2620.7	
838.94	5161.6	
839.11	5050.3	
839.29	2794.8	
839.46	2298.5	
839.63	4666.6	
839.8	4412	
839.97	2678.7	
840.14	2682.2	
840.31	4534.9	
840.48	4601.8	
840.65	2362	
840.82	2665.1	
841	4594.3	
841.17	4511.7	
841.34	2460.3	
841.51	2605.7	
841.68	4566.3	
841.85	4318.5	
842.02	2570.9	
842.19	2237.1	
842.36	4453.6	
842.53	4456.4	
842.7	2501.9	
842.87	2921.8	
843.05	5437.4	
843.22	4356.7	
843.39	2452.1	
843.56	2648	
843.73	4310.3	
843.9	4728.8	
844.07	3731.4	
844.24	3175	
844.41	5954.1	
844.58	4137.6	
844.75	2466.4	
844.92	2584.5	
845.09	4549.2	
845.26	4569	
845.43	2524.5	
845.6	2668.5	
845.77	4604.5	
845.94	4390.2	
846.12	2770.9	
846.29	2897.2	
846.46	4739	
846.63	4534.9	
846.8	2524.5	
846.97	2882.2	
847.14	4879.6	
847.31	4505.5	
847.48	2736.1	
847.65	3007.1	
847.82	4616.1	
847.99	4616.1	
848.16	3205.1	
848.33	2966.8	
848.5	4287.1	
848.67	4866.7	
848.84	2496.5	
849.01	2572.2	
849.18	4280.3	
849.35	4031.8	
849.52	3021.4	
849.69	2472.6	
849.86	4764.3	
850.03	4767	
850.2	2522.4	
850.37	2921.8	
850.54	4747.2	
850.71	4337.6	
850.88	2923.1	
851.05	2476	
851.22	4444.8	
851.39	4827.7	
851.56	2364	
851.73	2783.9	
851.9	4123.2	
852.07	4684.4	
852.24	2755.9	
852.41	2495.8	
852.58	4562.2	
852.75	4188.8	
852.92	2730.6	
853.09	2468.5	
853.26	4179.2	
853.43	4758.8	
853.6	2499.9	
853.77	2251.4	
853.94	4885.1	
854.11	4102.8	
854.28	3436.5	
854.44	2641.2	
854.61	5135.6	
854.78	4747.9	
854.95	2444.6	
855.12	3003.7	
855.29	3854.3	
855.46	4939.7	
855.63	2567.5	
855.8	3240.6	
855.97	4305.5	
856.14	4784.7	
856.31	3336.8	
856.48	2692.4	
856.65	4326.7	
856.82	4054.3	
856.99	2383.8	
857.16	2690.3	
857.33	5296.7	
857.49	4293.2	
857.66	2667.1	
857.83	2837.8	
858	4392.2	
858.17	4507.6	
858.34	2344.2	
858.51	2501.3	
858.68	4945.8	
858.85	4927.4	
859.02	2800.3	
859.19	2977.1	
859.36	4091.2	
859.52	4161.5	
859.69	2478.7	
859.86	2824.1	
860.03	4059.8	
860.2	4879.6	
860.37	2347.7	
860.54	2530.6	
860.71	4662.5	
860.88	4915.1	
861.05	2728.6	
861.21	3123.8	
861.38	4888.5	
861.55	3944.4	
861.72	2342.9	
861.89	2785.2	
862.06	4721.9	
862.23	4922.6	
862.4	2436.4	
862.56	2576.3	
862.73	4604.5	
862.9	4404.5	
863.07	2830.3	
863.24	2321.7	
863.41	4064.5	
863.58	4145.1	
863.75	2572.2	
863.91	2876	
864.08	4758.1	
864.25	4646.2	
864.42	3035.8	
864.59	3318.4	
864.76	5073.5	
864.93	4119.1	
865.09	2435.7	
865.26	2657.6	
865.43	4844.8	
865.6	5068.7	
865.77	2287.6	
865.94	2463	
866.1	4797.7	
866.27	4640.7	
866.44	3531.4	
866.61	2465.1	
866.78	4367.6	
866.95	4648.2	
867.11	2505.3	
867.28	2248.7	
867.45	4786.1	
867.62	4108.2	
867.79	2850.1	
867.96	2476	
868.12	4065.9	
868.29	4704.9	
868.46	2539.5	
868.63	3179.8	
868.8	4719.9	
868.97	4660.5	
869.13	2635.7	
869.3	2577.7	
869.47	4549.9	
869.64	4726.7	
869.81	2461	
869.97	2487.6	
870.14	4455	
870.31	4944.5	
870.48	2430.9	
870.65	3024.8	
870.81	4347.8	
870.98	4312.3	
871.15	2785.9	
871.32	2596.1	
871.48	4618.9	
871.65	4975.2	
871.82	2480.8	
871.99	2727.2	
872.16	5254.4	
872.32	4829.1	
872.49	2593.4	
872.66	2515.6	
872.83	4686.4	
872.99	4251.6	
873.16	2843.3	
873.33	2489.6	
873.5	4464.6	
873.67	4487.8	
873.83	2637.8	
874	3152.5	
874.17	4514.4	
874.34	5059.8	
874.5	3089.7	
874.67	2995.5	
874.84	4867.3	
875.01	3989.4	
875.17	3278.1	
875.34	2489	
875.51	4491.2	
875.68	5241.4	
875.84	2926.5	
876.01	3406.5	
876.18	4646.8	
876.34	4630.5	
876.51	2474.6	
876.68	2482.8	
876.85	4263.9	
877.01	4861.2	
877.18	3381.9	
877.35	2493.1	
877.52	4541.7	
877.68	4069.3	
877.85	2467.8	
878.02	2470.5	
878.18	4313	
878.35	4261.1	
878.52	2024.8	
878.69	2859	
878.85	4795	
879.02	4594.3	
879.19	3394.2	
879.35	2635.1	
879.52	4657.1	
879.69	4735.6	
879.86	2256.2	
880.02	2767.5	
880.19	4478.2	
880.36	5126.1	
880.52	2823.5	
880.69	2876	
880.86	4698.7	
881.02	4676.2	
881.19	2719.7	
881.36	2624.1	
881.52	4614.1	
881.69	4209.9	
881.86	2738.8	
882.02	2641.2	
882.19	4824.3	
882.36	5421.7	
882.52	2554.5	
882.69	3400.3	
882.86	4507.6	
883.02	4499.4	
883.19	2945.7	
883.36	2807.1	
883.52	4691.9	
883.69	5143.1	
883.86	2529.2	
884.02	2334	
884.19	4627.7	
884.36	4444.1	
884.52	2785.9	
884.69	2678.7	
884.86	4263.2	
885.02	4965.6	
885.19	2726.5	
885.36	2822.1	
885.52	4373.8	
885.69	4554.7	
885.86	3452.9	
886.02	3064.4	
886.19	4718.5	
886.35	4239.3	
886.52	2726.5	
886.69	3311.6	
886.85	4090.5	
887.02	4859.1	
887.19	4859.1	
887.35	4859.1	
887.52	4859.1	
887.68	4859.1	
887.85	4859.1	
888.02	4859.1	
888.18	4859.1	
888.35	4859.1	
888.51	4859.1	
888.68	4859.1	
888.85	4859.1	
889.01	4859.1	
889.18	4859.1	
889.35	4859.1	
889.51	4859.1	
889.68	4859.1	
889.84	4859.1	
890.01	4859.1	
890.17	4859.1	
890.34	4859.1	
890.51	4859.1	
890.67	4859.1	
890.84	4859.1	
891	4859.1	
891.17	4859.1	
891.34	4859.1	
891.5	4859.1	
891.67	4859.1	
891.83	4859.1	
892	4859.1	
892.16	4859.1	
892.33	4859.1	
892.5	4859.1	
892.66	4859.1	
892.83	4859.1	
892.99	4859.1	
893.16	4859.1	
893.32	4859.1	
893.49	4859.1	
893.65	4859.1	
893.82	4859.1	
893.99	4859.1	
894.15	4859.1	
894.32	4859.1	
894.48	4859.1	
894.65	4859.1	
894.81	4859.1	
894.98	4859.1	
895.14	4859.1	
895.31	4859.1	
895.47	4859.1	
895.64	4859.1	
895.81	4859.1	
895.97	4859.1	
896.14	4859.1	
896.3	4859.1	
896.47	4859.1	
896.63	4859.1	
896.8	4859.1	
896.96	4859.1	
897.13	4859.1	
897.29	4859.1	
897.46	4859.1	
897.62	4859.1	
897.79	4859.1	
897.95	4859.1	
898.12	4859.1	
898.28	4859.1	
898.45	4859.1	
898.61	4859.1	
898.78	4859.1	
898.94	4859.1	
899.11	4859.1	
899.27	4859.1	
899.44	4859.1	
899.6	4859.1	
899.77	4859.1	
899.93	4859.1	
900.1	4859.1	
900.26	4859.1	
900.43	4859.1	
900.59	4859.1	
900.76	4859.1	
900.92	4859.1	
901.09	4859.1	
901.25	4859.1	
901.42	4859.1	
901.58	4859.1	
901.75	4859.1	
901.91	4859.1	
902.07	4859.1	
902.24	4859.1	
902.4	4859.1	
902.57	4859.1	
902.73	4859.1	
902.9	4859.1	
903.06	4859.1	
903.23	4859.1	
903.39	4859.1	
903.56	4859.1	
903.72	4859.1	
903.88	4859.1	
904.05	4859.1	
904.21	4859.1	
904.38	4859.1	
904.54	4859.1	
904.71	4859.1	
904.87	4859.1	
905.03	4859.1	
905.2	4859.1	
905.36	4859.1	
905.53	4859.1	
905.69	4859.1	
905.86	4859.1	
906.02	4859.1	
906.18	4859.1	
906.35	4859.1	
906.51	4859.1	
906.68	4859.1	
906.84	4859.1	
907.01	4859.1	
907.17	4859.1	
907.33	4859.1	
907.5	4859.1	
907.66	4859.1	
907.83	4859.1	
907.99	4859.1	
908.15	4859.1	
908.32	4859.1	
908.48	4859.1	
908.65	4859.1	
908.81	4859.1	
908.97	4859.1	
909.14	4859.1	
909.3	4859.1	
909.47	4859.1	
909.63	4859.1	
909.79	4859.1	
909.96	4859.1	
910.12	4859.1	
910.28	4859.1	
910.45	4859.1	
910.61	4859.1	
910.78	4859.1	
910.94	4859.1	
911.1	4859.1	
911.27	4859.1	
911.43	4859.1	
911.59	4859.1	
911.76	4859.1	
911.92	4859.1	
912.08	4859.1	
912.25	4859.1	
912.41	4859.1	
912.57	4859.1	
912.74	4859.1	
912.9	4859.1	
913.07	4859.1	
913.23	4859.1	
913.39	4859.1	
913.56	4859.1	
913.72	4859.1	
913.88	4859.1	
914.05	4859.1	
914.21	4859.1	
914.37	4859.1	
914.54	4859.1	
914.7	4859.1	
914.86	4859.1	
915.03	4859.1	
915.19	4859.1	
