Wavelength	Intensities	
nm	a.u.	
179.22	1743.3	
179.44	1741.8	
179.65	1744.9	
179.86	1738.7	
180.08	1732.6	
180.29	4076.1	
180.51	3045.3	
180.72	5111	
180.94	5767.1	
181.15	2853.5	
181.37	2732.7	
181.58	4958.8	
181.79	5135.6	
182.01	2904	
182.22	3102	
182.44	5101.5	
182.65	4427	
182.87	3814.7	
183.08	3329.3	
183.29	5401.2	
183.51	4486.4	
183.72	3033	
183.94	4332.1	
184.15	4834.6	
184.37	4773.8	
184.58	2766.8	
184.79	3590.1	
185.01	4524	
185.22	5214.8	
185.44	3821.5	
185.65	3268.6	
185.86	4839.4	
186.08	4444.1	
186.29	2741.5	
186.51	2862.4	
186.72	4574.5	
186.94	5223.7	
187.15	3244	
187.36	3401	
187.58	6567.8	
187.79	4951.3	
188.01	3474.7	
188.22	5326.1	
188.43	5808.7	
188.65	5099.4	
188.86	2918.4	
189.08	3390.1	
189.29	4681.7	
189.5	4618.2	
189.72	3076	
189.93	3204.4	
190.15	5258.5	
190.36	6120	
190.57	3435.1	
190.79	3318.4	
191	5289.2	
191.22	5315.2	
191.43	3435.1	
191.64	2898.6	
191.86	5444.9	
192.07	5222.3	
192.29	2985.9	
192.5	3089	
192.71	5274.9	
192.93	4662.5	
193.14	3110.2	
193.35	3184.6	
193.57	4685.1	
193.78	5322	
194	2587.9	
194.21	3073.3	
194.42	4487.1	
194.64	4835.9	
194.85	3353.2	
195.07	3874.8	
195.28	4798.4	
195.49	4284.4	
195.71	4054.3	
195.92	2961.4	
196.13	5036	
196.35	5009.3	
196.56	4290.5	
196.78	3368.2	
196.99	6086.6	
197.2	5665.4	
197.42	3791.5	
197.63	3346.4	
197.84	4410.6	
198.06	4949.3	
198.27	3126.6	
198.48	4020.2	
198.7	4623.6	
198.91	4813.4	
199.13	3386	
199.34	3407.8	
199.55	5167	
199.77	4206.5	
199.98	2961.4	
200.19	3403.7	
200.41	4758.1	
200.62	4502.8	
200.83	3526.6	
201.05	3753.2	
201.26	4764.9	
201.47	4575.8	
201.69	2993.4	
201.9	2950.4	
202.11	4866.7	
202.33	5586.2	
202.54	3215.3	
202.76	3519.8	
202.97	4881.7	
203.18	4932.9	
203.4	3523.9	
203.61	3505.4	
203.82	4831.2	
204.04	4541.7	
204.25	3409.9	
204.46	3322.5	
204.68	4801.8	
204.89	5005.9	
205.1	3310.2	
205.32	2869.2	
205.53	5103.5	
205.74	5214.8	
205.96	2560.6	
206.17	3454.2	
206.38	5076.2	
206.6	5249.6	
206.81	3900.7	
207.02	3164.8	
207.24	5047.6	
207.45	5322	
207.66	3272	
207.88	2805.7	
208.09	4968.4	
208.3	4786.1	
208.52	2971.6	
208.73	3288.4	
208.94	4773.8	
209.15	5369.8	
209.37	3252.2	
209.58	3700	
209.79	5279	
210.01	4667.3	
210.22	2679.4	
210.43	2738.1	
210.65	4888.5	
210.86	5134.3	
211.07	3254.9	
211.29	2962	
211.5	5043.5	
211.71	4777.9	
211.93	3024.8	
212.14	3001	
212.35	4770.4	
212.56	4855.7	
212.78	3426.9	
212.99	2829.6	
213.2	5606	
213.42	4638	
213.63	3084.9	
213.84	3255.6	
214.06	4437.9	
214.27	4450.2	
214.48	3210.5	
214.69	3418.7	
214.91	5382.7	
215.12	5402.5	
215.33	3396.9	
215.55	3751.2	
215.76	5798.5	
215.97	5101.5	
216.18	3317.7	
216.4	3263.1	
216.61	4524	
216.82	5214.1	
217.04	3046	
217.25	3139.5	
217.46	5345.9	
217.67	5145.2	
217.89	2784.6	
218.1	2826.9	
218.31	4848.2	
218.53	5014.8	
218.74	3145.7	
218.95	3075.4	
219.16	4807.3	
219.38	5494.7	
219.59	3037.1	
219.8	3629.7	
220.01	6002.6	
220.23	4866.7	
220.44	3848.1	
220.65	2940.9	
220.87	4919.9	
221.08	5307.7	
221.29	2811.2	
221.5	3647.4	
221.72	6311.8	
221.93	4583.4	
222.14	3447.4	
222.35	4014	
222.57	4837.3	
222.78	5124	
222.99	3248.8	
223.2	3502.7	
223.42	5055.1	
223.63	5183.4	
223.84	2560.6	
224.05	2540.8	
224.27	5895.4	
224.48	5520	
224.69	3948.5	
224.9	3417.4	
225.12	4988.9	
225.33	4798.4	
225.54	2799.6	
225.75	3097.2	
225.97	4481.6	
226.18	4724	
226.39	3254.2	
226.6	3093.8	
226.82	4701.5	
227.03	4520.5	
227.24	3408.5	
227.45	2850.1	
227.67	5180.7	
227.88	5460.6	
228.09	3797.6	
228.3	3702	
228.52	5137	
228.73	4772.4	
228.94	3142.9	
229.15	2814.6	
229.36	4767	
229.58	4762.9	
229.79	3212.6	
230	3640.6	
230.21	5683.1	
230.43	4853	
230.64	3383.9	
230.85	3463.1	
231.06	5180	
231.28	5150.6	
231.49	2885.6	
231.7	3324.5	
231.91	5101.5	
232.12	4866	
232.34	2952.5	
232.55	3314.3	
232.76	5335.6	
232.97	4913.8	
233.18	2990	
233.4	3333.4	
233.61	4974.5	
233.82	4700.1	
234.03	3177.8	
234.25	3154.6	
234.46	6404	
234.67	4863.2	
234.88	3439.2	
235.09	3026.2	
235.31	5023.7	
235.52	4679.6	
235.73	3348.4	
235.94	2867.2	
236.15	4603.8	
236.37	5644.9	
236.58	3002.3	
236.79	3205.1	
237	5040.7	
237.21	4426.3	
237.43	3463.8	
237.64	2794.1	
237.85	7966.6	
238.06	4511.7	
238.27	3505.4	
238.48	2871.9	
238.7	5084.4	
238.91	4709.6	
239.12	3257	
239.33	3304.7	
239.54	4511	
239.76	4753.3	
239.97	3240.6	
240.18	3253.5	
240.39	5836	
240.6	5030.5	
240.82	3423.5	
241.03	2834.4	
241.24	4834.6	
241.45	5469.4	
241.66	3015.3	
241.87	3544.4	
242.09	5430.5	
242.3	5631.2	
242.51	3586.7	
242.72	3209.8	
242.93	5173.2	
243.14	4823.6	
243.36	3639.9	
243.57	3995.6	
243.78	5482.4	
243.99	5103.5	
244.2	3252.9	
244.41	2982.5	
244.63	4427	
244.84	4980.7	
245.05	3487	
245.26	3205.8	
245.47	5087.8	
245.68	5171.8	
245.9	4161.5	
246.11	3360.7	
246.32	4699.4	
246.53	5007.3	
246.74	5077.6	
246.95	2779.8	
247.16	4495.3	
247.38	4829.1	
247.59	2811.2	
247.8	3302.7	
248.01	4575.8	
248.22	4818.2	
248.43	2986.6	
248.64	3181.2	
248.86	4422.2	
249.07	4642.1	
249.28	2955.9	
249.49	3282.9	
249.7	5212.8	
249.91	5285.8	
250.12	2772.3	
250.34	2832.3	
250.55	4963.6	
250.76	4842.8	
250.97	3426.9	
251.18	3412.6	
251.39	5385.5	
251.6	4943.1	
251.81	3429.7	
252.03	3370.3	
252.24	4638.6	
252.45	5201.2	
252.66	2854.9	
252.87	3603.7	
253.08	4829.8	
253.29	6068.8	
253.5	2910.8	
253.72	3943.7	
253.93	4734.2	
254.14	5650.3	
254.35	3120.4	
254.56	3176.4	
254.77	5035.3	
254.98	4490.5	
255.19	3141.6	
255.41	3865.2	
255.62	4939.7	
255.83	5299.5	
256.04	3473.4	
256.25	3438.5	
256.46	5687.2	
256.67	4576.5	
256.88	3370.3	
257.09	3664.5	
257.31	4491.2	
257.52	4542.4	
257.73	4160.8	
257.94	3099.9	
258.15	4706.2	
258.36	4828.4	
258.57	3817.4	
258.78	2527.2	
258.99	5208	
259.2	4663.2	
259.41	3143.6	
259.63	3211.9	
259.84	5472.9	
260.05	5779.4	
260.26	3984.7	
260.47	3080.8	
260.68	5286.5	
260.89	4727.4	
261.1	3680.2	
261.31	2992.8	
261.52	5362.9	
261.73	5580	
261.95	3983.3	
262.16	3458.3	
262.37	5350	
262.58	5449	
262.79	3986	
263	3187.3	
263.21	4816.8	
263.42	4709	
263.63	3452.9	
263.84	3186.6	
264.05	5192.3	
264.26	5481.7	
264.47	3827	
264.69	3510.9	
264.9	5387.5	
265.11	4975.2	
265.32	2968.9	
265.53	3114.3	
265.74	4933.6	
265.95	4286.4	
266.16	3339.6	
266.37	3652.2	
266.58	4923.3	
266.79	4624.3	
267	3119.7	
267.21	2908.1	
267.42	4536.9	
267.63	4773.1	
267.84	3290.4	
268.06	2856.9	
268.27	5182.7	
268.48	5316.5	
268.69	3216	
268.9	3708.9	
269.11	5377.3	
269.32	4388.1	
269.53	3240.6	
269.74	3069.9	
269.95	5011.4	
270.16	4345.1	
270.37	3308.2	
270.58	3758.7	
270.79	4718.5	
271	5212.8	
271.21	3427.6	
271.42	3284.9	
271.63	5014.1	
271.84	4502.1	
272.05	2712.9	
272.26	2988	
272.47	4851	
272.68	4928.8	
272.89	3173	
273.11	3598.3	
273.32	4649.6	
273.53	5498.8	
273.74	3510.9	
273.95	3387.3	
274.16	5225.7	
274.37	4881	
274.58	3597.6	
274.79	2923.8	
275	4958.8	
275.21	5257.1	
275.42	4256.4	
275.63	3670.6	
275.84	5014.8	
276.05	6146	
276.26	3423.5	
276.47	3191.4	
276.68	4739	
276.89	5613.5	
277.1	3628.3	
277.31	2964.8	
277.52	5026.4	
277.73	5235.3	
277.94	2883.5	
278.15	3176.4	
278.36	4974.5	
278.57	4578.6	
278.78	3164.1	
278.99	3500	
279.2	4562.2	
279.41	4482.3	
279.62	4061.8	
279.83	2966.8	
280.04	5744.6	
280.25	4465.3	
280.46	4040	
280.67	3263.1	
280.88	4560.1	
281.09	5347.2	
281.3	3430.3	
281.51	4229.7	
281.72	4543.1	
281.93	5212.1	
282.14	3111.5	
282.35	3273.3	
282.56	5201.8	
282.77	5199.8	
282.98	3187.3	
283.19	3837.2	
283.4	6198.5	
283.61	4767.7	
283.82	2925.9	
284.03	3953.9	
284.24	4971.1	
284.45	5276.9	
284.66	3975.1	
284.87	3821.5	
285.08	5270.1	
285.29	5385.5	
285.5	2863.7	
285.71	3177.1	
285.92	5302.2	
286.12	5848.3	
286.33	3953.3	
286.54	3232.4	
286.75	5205.3	
286.96	4759.5	
287.17	3029.6	
287.38	3826.3	
287.59	4602.5	
287.8	4545.1	
288.01	3219.4	
288.22	3646.1	
288.43	5161.6	
288.64	4382.7	
288.85	3798.3	
289.06	3633.8	
289.27	5163.6	
289.48	5515.2	
289.69	3999.7	
289.9	3642.7	
290.11	5415.5	
290.32	4636.6	
290.53	3820.8	
290.74	3515.7	
290.94	5210	
291.15	5244.8	
291.36	3072	
291.57	3574.4	
291.78	4677.6	
291.99	4351.3	
292.2	3059	
292.41	3522.5	
292.62	5227.1	
292.83	5132.9	
293.04	4326	
293.25	3021.4	
293.46	4671.4	
293.67	5286.5	
293.88	3071.3	
294.09	3016.7	
294.29	4494.6	
294.5	4909.7	
294.71	3331.4	
294.92	3138.9	
295.13	4702.1	
295.34	5758.2	
295.55	2824.8	
295.76	2781.8	
295.97	5134.9	
296.18	5745.9	
296.39	2968.9	
296.6	3048.1	
296.81	4912.4	
297.01	5124.7	
297.22	3231	
297.43	3072	
297.64	4643.4	
297.85	4528.1	
298.06	2581.8	
298.27	2828.9	
298.48	4820.9	
298.69	4607.2	
298.9	3345.7	
299.11	3025.5	
299.31	4494.6	
299.52	4554.7	
299.73	3533.4	
299.94	3435.8	
300.15	4847.5	
300.36	4546.5	
300.57	3422.8	
300.78	3452.9	
300.99	4722.6	
301.2	4947.9	
301.4	3115.6	
301.61	3302	
301.82	5080.3	
302.03	5113.8	
302.24	3656.3	
302.45	2937.5	
302.66	5046.2	
302.87	5337	
303.08	3059.7	
303.29	4110.3	
303.49	4690.5	
303.7	4782	
303.91	2743.6	
304.12	3936.2	
304.33	4433.9	
304.54	4939	
304.75	3094.5	
304.96	2996.2	
305.16	5090.6	
305.37	5668.8	
305.58	2745	
305.79	2833.7	
306	5117.9	
306.21	4364.9	
306.42	3068.5	
306.63	4541.7	
306.83	4753.3	
307.04	5213.4	
307.25	3388	
307.46	3356.6	
307.67	4240	
307.88	5122.7	
308.09	3063.1	
308.29	3119.1	
308.5	4905.6	
308.71	5268.1	
308.92	3295.2	
309.13	3033.7	
309.34	4710.3	
309.55	4797	
309.75	3797.6	
309.96	3452.9	
310.17	5070.1	
310.38	4565.6	
310.59	3618.1	
310.8	2925.2	
311.01	5010.7	
311.21	4816.8	
311.42	3030.3	
311.63	3079.5	
311.84	4650.9	
312.05	4867.3	
312.26	3480.2	
312.46	3690.4	
312.67	4677.6	
312.88	4448.9	
313.09	2991.4	
313.3	2889	
313.51	5453.1	
313.71	5743.2	
313.92	2977.7	
314.13	3136.1	
314.34	4967.7	
314.55	4794.3	
314.76	3751.2	
314.96	3332.7	
315.17	4941.7	
315.38	5186.1	
315.59	3092.4	
315.8	2902.7	
316.01	5455.8	
316.21	5595.1	
316.42	2910.2	
316.63	3330.7	
316.84	4709.6	
317.05	5369.8	
317.26	3503.4	
317.46	3200.3	
317.67	4843.4	
317.88	5130.2	
318.09	3714.3	
318.3	2848	
318.5	4669.4	
318.71	5057.8	
318.92	4675.5	
319.13	3464.5	
319.34	5194.3	
319.54	5337	
319.75	2858.3	
319.96	2686.3	
320.17	5102.9	
320.38	5244.2	
320.58	2755.2	
320.79	3234.4	
321	5281	
321.21	5368.4	
321.42	3341.6	
321.62	2763.4	
321.83	4555.4	
322.04	4893.3	
322.25	3207.8	
322.46	3012.6	
322.66	4881	
322.87	5097.4	
323.08	3599.6	
323.29	2945	
323.5	5614.8	
323.7	4499.4	
323.91	3983.3	
324.12	3615.3	
324.33	4943.1	
324.53	5104.9	
324.74	3458.3	
324.95	3682.2	
325.16	4377.9	
325.37	4682.3	
325.57	3034.4	
325.78	3066.5	
325.99	4932.2	
326.2	4415.4	
326.4	4043.4	
326.61	2852.1	
326.82	4767.7	
327.03	4955.4	
327.24	4152.6	
327.44	3869.3	
327.65	5050.3	
327.86	4197	
328.07	3493.8	
328.27	2880.1	
328.48	5367	
328.69	4482.3	
328.9	4144.4	
329.1	3196.9	
329.31	4725.3	
329.52	5476.3	
329.73	3056.3	
329.93	3327.3	
330.14	4866	
330.35	5004.6	
330.56	4730.1	
330.76	3583.9	
330.97	4729.4	
331.18	4958.8	
331.39	3310.9	
331.59	2759.3	
331.8	5279.7	
332.01	5373.9	
332.22	3154.6	
332.42	3422.8	
332.63	4932.9	
332.84	4583.4	
333.05	3330	
333.25	3079.5	
333.46	4607.9	
333.67	4823.6	
333.88	3177.1	
334.08	3437.2	
334.29	6326.9	
334.5	5285.1	
334.7	2907.4	
334.91	4110.3	
335.12	4511.7	
335.33	5147.9	
335.53	3292.5	
335.74	4670.1	
335.95	4667.3	
336.16	4461.8	
336.36	3299.3	
336.57	3784	
336.78	4436.6	
336.98	5328.1	
337.19	4012	
337.4	3228.3	
337.61	5705	
337.81	4468	
338.02	3058.3	
338.23	3787.4	
338.43	5438.7	
338.64	4592.2	
338.85	3024.8	
339.05	3885.7	
339.26	5484.5	
339.47	4420.9	
339.68	3040.6	
339.88	4290.5	
340.09	5056.4	
340.3	5190.9	
340.5	3473.4	
340.71	2755.2	
340.92	4493.2	
341.13	5386.8	
341.33	2914.3	
341.54	3500.7	
341.75	5014.8	
341.95	4668	
342.16	3373.7	
342.37	3606.5	
342.57	4513	
342.78	4833.9	
342.99	3672.7	
343.19	2748.4	
343.4	5113.1	
343.61	5010.7	
343.81	3202.3	
344.02	2917.7	
344.23	5190.9	
344.43	5412.8	
344.64	3651.5	
344.85	3644.7	
345.06	5087.8	
345.26	5274.2	
345.47	3467.9	
345.68	3986.7	
345.88	4394.3	
346.09	5216.2	
346.3	3536.2	
346.5	2713.6	
346.71	4808.6	
346.92	4641.4	
347.12	2874.7	
347.33	3421.5	
347.54	5257.1	
347.74	5607.3	
347.95	3429	
348.16	2607.7	
348.36	4664.6	
348.57	4533.5	
348.78	3474.7	
348.98	3640.6	
349.19	4801.8	
349.39	4392.9	
349.6	2832.3	
349.81	3087	
350.01	5120.6	
350.22	4594.3	
350.43	3327.3	
350.63	3983.3	
350.84	4825	
351.05	4657.8	
351.25	3091.1	
351.46	2848	
351.67	5292	
351.87	4582	
352.08	3248.8	
352.29	3667.2	
352.49	5210.7	
352.7	5303.6	
352.9	2992.1	
353.11	3615.3	
353.32	5763	
353.52	4777.9	
353.73	2957.3	
353.94	3689.1	
354.14	5045.5	
354.35	4868	
354.55	3061.7	
354.76	3360	
354.97	5104.9	
355.17	4839.4	
355.38	2957.3	
355.59	3889.8	
355.79	4615.4	
356	4878.9	
356.2	3352.5	
356.41	2994.1	
356.62	4457.1	
356.82	4839.4	
357.03	3561.4	
357.24	3255.6	
357.44	4631.8	
357.65	4737	
357.85	4227.7	
358.06	3401	
358.27	4454.3	
358.47	4595	
358.68	2930.6	
358.88	3544.4	
359.09	5070.1	
359.3	5294	
359.5	4055	
359.71	3697.9	
359.91	5693.4	
360.12	5159.5	
360.33	3646.7	
360.53	3953.9	
360.74	4676.2	
360.94	4753.3	
361.15	3766.2	
361.36	3192.1	
361.56	5319.3	
361.77	4922	
361.97	4044.7	
362.18	3324.5	
362.38	5363.6	
362.59	4565.6	
362.8	3132	
363	3073.3	
363.21	4455	
363.41	4974.5	
363.62	3543.7	
363.83	4235.2	
364.03	5164.3	
364.24	5737	
364.44	4379.2	
364.65	4347.2	
364.85	4934.2	
365.06	4641.4	
365.27	3249.4	
365.47	3288.4	
365.68	5599.8	
365.88	4866.7	
366.09	3564.8	
366.29	3271.3	
366.5	5083.1	
366.71	5341.8	
366.91	4339.6	
367.12	3687	
367.32	5869.5	
367.53	5244.8	
367.73	3737.5	
367.94	4427.7	
368.14	5193.6	
368.35	5818.3	
368.56	3652.2	
368.76	3474.7	
368.97	5351.3	
369.17	6513.9	
369.38	3323.2	
369.58	3523.2	
369.79	4642.1	
369.99	5602.6	
370.2	4276.8	
370.4	3593.5	
370.61	5094.7	
370.82	5995.1	
371.02	3500.7	
371.23	3015.3	
371.43	4558.8	
371.64	5559.6	
371.84	3580.5	
372.05	4443.4	
372.25	6541.2	
372.46	5303.6	
372.66	3537.5	
372.87	3543.7	
373.07	5438.7	
373.28	6650.4	
373.48	4334.9	
373.69	4085.7	
373.9	4987.5	
374.1	5078.3	
374.31	4257.7	
374.51	3907.5	
374.72	5646.9	
374.92	4785.4	
375.13	4414.7	
375.33	3801.7	
375.54	5317.2	
375.74	4956.1	
375.95	3887.7	
376.15	4730.1	
376.36	5375.9	
376.56	5189.6	
376.77	3959.4	
376.97	4264.6	
377.18	6206.7	
377.38	5418.9	
377.59	4479.6	
377.79	3665.9	
378	5264	
378.2	5615.5	
378.41	3624.2	
378.61	3610.6	
378.82	5649	
379.02	5040.7	
379.23	3813.3	
379.43	4635.2	
379.64	5748	
379.84	5407.3	
380.05	3639.9	
380.25	3618.1	
380.46	5470.1	
380.66	5198.4	
380.87	4582	
381.07	4905.6	
381.28	5978	
381.48	5504.9	
381.69	3620.8	
381.89	3710.2	
382.1	4793.6	
382.3	5528.8	
382.51	4489.8	
382.71	5082.4	
382.91	5475.6	
383.12	5838.8	
383.32	3911.6	
383.53	4027	
383.73	5356.8	
383.94	5256.5	
384.14	4059.8	
384.35	3383.2	
384.55	5154.1	
384.76	5429.2	
384.96	3916.4	
385.17	4093.9	
385.37	5423	
385.58	4902.8	
385.78	4087.1	
385.98	3298.6	
386.19	5068	
386.39	5390.3	
386.6	3715	
386.8	3967.6	
387.01	5499.5	
387.21	5522.7	
387.42	4182	
387.62	4612	
387.83	5064.6	
388.03	5300.8	
388.23	3969.6	
388.44	4554.7	
388.64	4829.1	
388.85	4894.6	
389.05	4220.9	
389.26	4704.2	
389.46	6421.7	
389.67	5877	
389.87	4203.1	
390.07	4223.6	
390.28	5309	
390.48	4943.8	
390.69	3631.7	
390.89	3931.4	
391.1	5126.1	
391.3	5777.3	
391.5	4754.7	
391.71	5246.9	
391.91	5659.2	
392.12	6290	
392.32	4860.5	
392.53	4361.5	
392.73	5195	
392.93	5236	
393.14	4007.2	
393.34	4795	
393.55	5575.9	
393.75	5231.2	
393.95	3948.5	
394.16	3903.4	
394.36	5087.2	
394.57	5649.7	
394.77	3587.4	
394.98	3899.3	
395.18	5108.3	
395.38	5303.6	
395.59	4612.7	
395.79	3908.2	
396	5247.6	
396.2	5623.7	
396.4	4456.4	
396.61	4357.4	
396.81	5635.3	
397.02	5200.5	
397.22	4667.3	
397.42	4643.4	
397.63	5745.2	
397.83	5219.6	
398.04	3812	
398.24	4244.1	
398.44	5553.4	
398.65	4848.9	
398.85	3755.3	
399.05	3775.8	
399.26	5199.1	
399.46	6428.6	
399.67	4136.9	
399.87	3859.7	
400.07	5444.2	
400.28	5712.5	
400.48	3978.5	
400.69	4834.6	
400.89	5844.2	
401.09	6203.3	
401.3	3880.9	
401.5	4726.7	
401.7	6391	
401.91	6527.6	
402.11	4259.8	
402.32	4349.9	
402.52	5935.7	
402.72	5838.1	
402.93	4470	
403.13	3664.5	
403.33	6417	
403.54	5355.4	
403.74	4184.7	
403.94	4846.2	
404.15	5449.6	
404.35	6223.1	
404.56	4047.5	
404.76	5365.7	
404.96	5816.9	
405.17	5680.4	
405.37	4797	
405.57	4569.7	
405.78	5911.1	
405.98	5424.4	
406.18	4104.1	
406.39	4738.3	
406.59	5811.5	
406.79	5507	
407	3870	
407.2	3921.9	
407.4	5883.8	
407.61	5946.6	
407.81	3981.9	
408.01	5631.2	
408.22	5115.8	
408.42	6617	
408.62	4986.1	
408.83	4571.1	
409.03	5679	
409.23	5595.7	
409.44	4661.9	
409.64	4823	
409.84	6465.4	
410.05	6412.2	
410.25	4803.9	
410.45	4614.8	
410.66	6002.6	
410.86	7925	
411.06	4991.6	
411.27	4855.7	
411.47	7850.5	
411.67	6199.2	
411.88	5010	
412.08	5226.4	
412.28	6678.4	
412.49	7034.1	
412.69	4911.7	
412.89	4965	
413.09	6928.3	
413.3	6836.1	
413.5	5099.4	
413.7	4724	
413.91	6345.3	
414.11	7001.3	
414.31	4873.5	
414.52	5216.9	
414.72	6719.4	
414.92	6614.9	
415.12	4953.4	
415.33	5362.9	
415.53	6991.8	
415.73	7080.5	
415.94	5549.3	
416.14	5089.2	
416.34	6302.3	
416.55	6027.9	
416.75	6036	
416.95	5588.2	
417.15	7015.7	
417.36	7546.1	
417.56	6295.5	
417.76	5523.4	
417.97	7226.6	
418.17	7045	
418.37	5281.7	
418.57	5306.3	
418.78	6909.2	
418.98	6625.2	
419.18	5957.5	
419.38	5874.9	
419.59	6590.4	
419.79	6287.3	
419.99	5108.3	
420.2	5396.4	
420.4	6997.2	
420.6	7083.2	
420.8	5121.3	
421.01	5051	
421.21	6925.5	
421.41	7043	
421.61	5351.3	
421.82	5141.1	
422.02	6584.9	
422.22	7188.4	
422.42	5611.4	
422.63	5515.2	
422.83	6571.2	
423.03	7490.1	
423.23	5526.8	
423.44	4698.7	
423.64	6533	
423.84	6337.1	
424.04	5050.3	
424.25	4710.3	
424.45	7251.9	
424.65	7208.8	
424.85	4562.9	
425.06	5032.5	
425.26	7404.1	
425.46	6484.6	
425.66	5371.1	
425.87	5165	
426.07	7090.8	
426.27	6936.5	
426.47	5205.9	
426.67	4786.8	
426.88	7354.9	
427.08	6846.4	
427.28	5494	
427.48	4762.9	
427.69	6096.8	
427.89	6574.7	
428.09	5316.5	
428.29	4748.6	
428.5	6963.8	
428.7	6704.4	
428.9	4691.9	
429.1	5061.9	
429.3	6696.2	
429.51	6906.4	
429.71	4977.9	
429.91	5600.5	
430.11	6908.5	
430.31	7092.1	
430.52	5205.9	
430.72	5420.3	
430.92	7350.2	
431.12	6868.2	
431.32	4928.1	
431.53	5294	
431.73	6049	
431.93	7292.8	
432.13	4883	
432.33	4830.5	
432.54	6531.7	
432.74	6655.9	
432.94	4792.9	
433.14	5550.7	
433.34	6992.4	
433.55	6589.7	
433.75	5524.1	
433.95	6823.8	
434.15	6733	
434.35	6524.8	
434.56	4971.8	
434.76	4567.7	
434.96	6754.9	
435.16	7028.6	
435.36	4887.8	
435.56	5754.8	
435.77	6560.3	
435.97	6566.5	
436.17	6271.6	
436.37	5721.3	
436.57	6540.5	
436.78	6477	
436.98	5699.5	
437.18	6185.5	
437.38	6994.5	
437.58	6569.2	
437.78	6165.8	
437.99	5150	
438.19	7027.9	
438.39	7567.2	
438.59	5108.3	
438.79	4665.3	
438.99	7457.3	
439.2	6477.7	
439.4	4747.2	
439.6	4712.4	
439.8	6766.5	
440	7654.6	
440.2	5588.2	
440.4	5803.9	
440.61	7212.3	
440.81	7641.7	
441.01	5093.3	
441.21	5827.8	
441.41	7579.5	
441.61	7227.3	
441.81	5973.2	
442.02	6735.8	
442.22	7955.7	
442.42	7271	
442.62	5061.2	
442.82	5136.3	
443.02	7622.5	
443.22	6873.7	
443.43	5453.1	
443.63	5112.4	
443.83	6697.5	
444.03	6752.8	
444.23	6106.4	
444.43	5782.8	
444.63	7081.9	
444.83	7906.5	
445.04	5294	
445.24	6212.9	
445.44	7281.9	
445.64	7305.8	
445.84	5816.2	
446.04	5760.3	
446.24	6799.9	
446.44	7536.5	
446.65	5131.5	
446.85	5467.4	
447.05	6920.1	
447.25	7508.5	
447.45	5528.2	
447.65	5013.4	
447.85	7023.9	
448.05	6713.2	
448.25	5834.7	
448.46	5606	
448.66	6968.6	
448.86	6708.5	
449.06	5029.8	
449.26	5864.7	
449.46	7283.9	
449.66	6513.2	
449.86	5557.5	
450.06	5475.6	
450.26	6713.2	
450.47	7215	
450.67	5666.7	
450.87	5920	
451.07	7254.6	
451.27	7026.6	
451.47	5209.3	
451.67	5583.4	
451.87	6812.9	
452.07	7684	
452.27	5414.1	
452.47	5251	
452.67	7002.7	
452.88	7325.6	
453.08	4815.5	
453.28	6391	
453.48	7965.2	
453.68	6891.4	
453.88	5193	
454.08	5473.5	
454.28	7290.8	
454.48	7053.2	
454.68	5834	
454.88	6157.6	
455.08	7400	
455.28	7221.1	
455.48	5188.2	
455.68	5733.6	
455.89	7777.5	
456.09	7452.6	
456.29	5479.7	
456.49	5536.3	
456.69	7719.5	
456.89	7163.8	
457.09	5935.7	
457.29	6188.3	
457.49	7388.4	
457.69	7479.9	
457.89	5752.1	
458.09	5330.9	
458.29	7334.5	
458.49	7841	
458.69	6117.3	
458.89	5730.2	
459.09	8028.7	
459.29	8104.5	
459.49	5702.2	
459.69	6338.5	
459.9	7663.5	
460.1	7267.6	
460.3	5639.4	
460.5	5517.2	
460.7	7685.3	
460.9	7314	
461.1	5268.1	
461.3	6244.9	
461.5	8179.6	
461.7	7849.2	
461.9	5604.6	
462.1	5896.8	
462.3	7572.7	
462.5	7894.9	
462.7	5743.2	
462.9	5800.5	
463.1	8690.2	
463.3	8501.1	
463.5	5939.1	
463.7	6756.9	
463.9	7714.7	
464.1	7995.3	
464.3	6173.9	
464.5	6260	
464.7	8284	
464.9	7912	
465.1	7296.2	
465.3	6566.5	
465.5	8411.7	
465.7	8414.4	
465.9	6791.1	
466.1	6576.7	
466.3	8215.8	
466.5	8159.8	
466.7	7359	
466.9	6441.5	
467.1	8292.2	
467.3	8869.1	
467.5	7328.3	
467.7	6442.2	
467.9	9091.6	
468.1	9723.8	
468.3	7025.2	
468.5	7366.5	
468.7	8206.9	
468.9	8086.7	
469.1	6682.5	
469.3	7206.1	
469.5	9680.1	
469.7	7892.2	
469.9	7012.9	
470.1	6492.7	
470.3	8239.7	
470.5	8222.6	
470.7	7456	
470.9	6464.8	
471.1	8035.5	
471.3	8269.7	
471.5	6403.3	
471.69	7826.7	
471.89	7894.9	
472.09	7496.2	
472.29	6961	
472.49	7254.6	
472.69	7697.6	
472.89	8284	
473.09	6279.8	
473.29	6418.3	
473.49	7885.4	
473.69	7809.6	
473.89	7010.9	
474.09	6503	
474.29	8851.3	
474.49	8557.8	
474.69	7109.2	
474.89	6584.9	
475.09	7909.9	
475.29	7873.1	
475.49	6219	
475.69	6292	
475.88	9075.2	
476.08	8245.1	
476.28	6087.2	
476.48	6337.8	
476.68	8487.5	
476.88	8305.2	
477.08	6298.2	
477.28	6492.1	
477.48	7921.5	
477.68	8421.9	
477.88	6055.8	
478.08	6365.8	
478.28	8675.2	
478.48	8006.9	
478.67	6436.8	
478.87	6001.9	
479.07	8532.5	
479.27	8063.5	
479.47	6520.7	
479.67	6503.7	
479.87	8329.8	
480.07	8832.2	
480.27	6100.2	
480.47	7167.2	
480.67	7978.2	
480.87	8602.2	
481.06	6223.8	
481.26	6901.7	
481.46	8086.1	
481.66	7905.2	
481.86	6628.6	
482.06	7342.7	
482.26	7799.3	
482.46	8508.6	
482.66	6496.2	
482.86	6189.6	
483.05	8174.1	
483.25	7570	
483.45	8436.9	
483.65	6489.3	
483.85	7771.4	
484.05	8054	
484.25	6833.4	
484.45	7234.1	
484.65	8635.6	
484.84	8745.5	
485.04	6518	
485.24	6541.2	
485.44	8940.7	
485.64	7569.3	
485.84	6052.4	
486.04	7006.8	
486.24	7916.8	
486.44	8187.8	
486.63	5984.2	
486.83	6622.4	
487.03	7911.3	
487.23	8058.8	
487.43	6074.3	
487.63	7850.5	
487.83	8121.6	
488.02	8762.6	
488.22	6803.4	
488.42	7257.3	
488.62	8718.9	
488.82	7894.2	
489.02	6500.9	
489.22	6578.1	
489.41	8578.9	
489.61	8337.3	
489.81	6360.3	
490.01	6394.4	
490.21	8586.5	
490.41	9169.4	
490.61	6339.1	
490.8	6500.3	
491	8260.8	
491.2	7682.6	
491.4	6873.7	
491.6	6201.9	
491.8	8138.6	
491.99	8262.9	
492.19	6079.7	
492.39	6294.1	
492.59	8619.2	
492.79	8601.5	
492.99	7075	
493.18	6314.6	
493.38	8760.5	
493.58	9366	
493.78	6869.6	
493.98	6567.8	
494.18	8554.4	
494.37	8148.2	
494.57	7152.2	
494.77	7011.6	
494.97	8716.2	
495.17	8963.3	
495.37	6706.4	
495.56	7135.8	
495.76	9149.6	
495.96	8897.1	
496.16	7771.4	
496.36	6971.3	
496.55	8994.7	
496.75	8645.2	
496.95	7266.2	
497.15	7088.7	
497.35	8905.3	
497.54	8890.9	
497.74	6992.4	
497.94	8461.5	
498.14	9577.7	
498.34	9302.6	
498.53	6774	
498.73	7331.7	
498.93	8393.9	
499.13	8905.9	
499.33	7286	
499.52	7641	
499.72	9059.5	
499.92	9202.9	
500.12	6939.2	
500.32	7163.1	
500.51	9212.4	
500.71	8961.2	
500.91	7867.6	
501.11	7583.6	
501.31	9134.6	
501.5	9466.4	
501.7	7972.1	
501.9	7148.1	
502.1	8898.4	
502.29	9293.7	
502.49	7579.5	
502.69	8021.9	
502.89	9133.9	
503.09	9110	
503.28	6777.4	
503.48	6827.2	
503.68	8460.2	
503.88	8370	
504.07	7656.7	
504.27	7163.8	
504.47	8770.1	
504.67	8897.7	
504.86	7553.6	
505.06	7297.6	
505.26	8615.8	
505.46	9858.9	
505.65	7116.7	
505.85	7268.2	
506.05	8514.1	
506.25	8802.2	
506.44	6614.3	
506.64	7282.6	
506.84	8385.7	
507.04	9140.1	
507.23	6838.9	
507.43	7204.8	
507.63	9880.1	
507.83	8421.2	
508.02	7224.6	
508.22	6889.4	
508.42	10023	
508.62	8271.7	
508.81	6951.5	
509.01	7438.2	
509.21	8264.2	
509.4	8440.4	
509.6	7239.6	
509.8	6759.7	
510	8398	
510.19	9472.5	
510.39	6692.8	
510.59	6786.3	
510.79	8267.6	
510.98	9287.5	
511.18	6871.6	
511.38	6859.3	
511.57	9013.1	
511.77	8724.3	
511.97	7395.9	
512.17	6728.3	
512.36	8888.9	
512.56	8745.5	
512.76	6639.5	
512.95	6473.6	
513.15	8920.3	
513.35	7843	
513.55	7381.6	
513.74	6739.2	
513.94	8969.4	
514.14	8379.6	
514.33	7419.8	
514.53	7225.9	
514.73	8521.6	
514.92	8483.4	
515.12	6821.1	
515.32	6688.7	
515.51	8568	
515.71	8974.2	
515.91	7993.2	
516.11	6793.1	
516.3	9901.9	
516.5	8245.8	
516.7	7247.8	
516.89	7577.5	
517.09	8387.8	
517.29	8389.2	
517.48	7472.4	
517.68	6902.3	
517.88	8166.6	
518.07	8658.1	
518.27	7345.4	
518.47	6539.2	
518.66	9110.7	
518.86	8124.3	
519.06	6498.9	
519.25	6746	
519.45	8321.6	
519.65	9503.9	
519.84	7307.2	
520.04	7879.2	
520.24	9767.4	
520.43	8873.2	
520.63	7118.1	
520.83	6876.4	
521.02	8232.8	
521.22	8677.9	
521.42	7139.2	
521.61	7712.7	
521.81	8441.7	
522.01	8505.9	
522.2	7098.9	
522.4	7007.5	
522.6	8917.5	
522.79	7892.2	
522.99	6998.6	
523.18	6472.9	
523.38	8772.1	
523.58	8655.4	
523.77	8174.8	
523.97	6559	
524.17	10186	
524.36	9646.6	
524.56	7628.7	
524.76	7368.6	
524.95	8706.6	
525.15	8510	
525.34	7216.4	
525.54	7183.6	
525.74	9084.8	
525.93	8337.3	
526.13	8206.2	
526.33	7270.3	
526.52	9432.3	
526.72	8847.2	
526.91	8214.4	
527.11	7628	
527.31	9377	
527.5	9695.8	
527.7	7492.8	
527.89	6817	
528.09	8584.4	
528.29	8996	
528.48	7938.6	
528.68	7587	
528.87	9217.2	
529.07	9295.7	
529.27	7585	
529.46	7223.9	
529.66	9015.2	
529.85	9415.2	
530.05	7110.5	
530.25	7632.1	
530.44	10120	
530.64	8899.1	
530.83	7302.4	
531.03	7513.3	
531.23	9349.7	
531.42	9089.6	
531.62	8075.8	
531.81	7477.1	
532.01	9469.1	
532.21	9731.9	
532.4	7370.6	
532.6	7652.6	
532.79	10276	
532.99	9571.5	
533.18	7723.6	
533.38	8461.5	
533.58	9213.8	
533.77	9728.5	
533.97	7740	
534.16	8353.7	
534.36	9960	
534.55	9201.5	
534.75	8423.3	
534.95	7784.3	
535.14	9958.6	
535.34	9250	
535.53	7621.9	
535.73	8903.2	
535.92	10191	
536.12	9339.4	
536.31	7575.4	
536.51	8421.2	
536.71	9531.9	
536.9	9209	
537.1	7565.2	
537.29	7780.2	
537.49	9898.5	
537.68	9092.3	
537.88	8084.7	
538.07	7512.6	
538.27	9327.1	
538.46	10091	
538.66	7432.8	
538.86	7725.6	
539.05	9457.5	
539.25	9828.9	
539.44	8045.1	
539.64	7623.2	
539.83	9241.8	
540.03	10072	
540.22	7523.6	
540.42	7604.1	
540.61	9372.2	
540.81	9469.8	
541	7915.4	
541.2	8443.1	
541.39	9013.8	
541.59	9346.2	
541.78	8243.1	
541.98	7518.8	
542.18	8772.1	
542.37	8716.8	
542.57	7707.2	
542.76	8098.4	
542.96	8772.8	
543.15	9413.8	
543.35	7752.9	
543.54	7190.4	
543.74	9439.8	
543.93	9150.3	
544.13	7639.6	
544.32	8521.6	
544.52	9380.4	
544.71	8740	
544.91	7008.8	
545.1	7907.2	
545.3	8685.4	
545.49	9381.1	
545.69	6999.3	
545.88	7403.4	
546.08	10158	
546.27	9671.2	
546.47	7758.4	
546.66	7163.8	
546.86	9446.6	
547.05	9834.3	
547.24	7335.8	
547.44	7370.6	
547.63	8708.6	
547.83	9544.9	
548.02	7575.4	
548.22	7672.4	
548.41	8446.5	
548.61	9482.1	
548.8	7257.3	
549	7120.1	
549.19	9045.2	
549.39	9250	
549.58	6864.8	
549.78	7377.5	
549.97	9222.7	
550.17	8846.5	
550.36	8025.3	
550.55	8724.3	
550.75	8746.2	
550.94	9564	
551.14	7040.2	
551.33	7336.5	
551.53	8302.5	
551.72	9165.3	
551.92	7402	
552.11	7172.7	
552.31	9148.3	
552.5	9224.7	
552.69	8505.9	
552.89	6883.2	
553.08	9050	
553.28	8867.7	
553.47	7225.9	
553.67	8038.3	
553.86	9518.3	
554.06	8265.6	
554.25	6563.1	
554.44	7017.7	
554.64	10064	
554.83	9787.2	
555.03	6929.6	
555.22	7255.3	
555.42	9174.2	
555.61	8942.8	
555.8	7088.7	
556	7374.7	
556.19	8281.3	
556.39	9244.5	
556.58	7168.6	
556.78	7163.1	
556.97	8892.3	
557.16	8683.4	
557.36	8060.8	
557.55	6892.1	
557.75	8144.8	
557.94	9501.2	
558.13	6970.6	
558.33	6774	
558.52	9334.6	
558.72	8312	
558.91	6834.1	
559.1	6962.4	
559.3	8215.1	
559.49	7933.1	
559.69	6485.2	
559.88	7225.2	
560.07	8793.3	
560.27	9104.6	
560.46	7408.2	
560.66	7545.4	
560.85	8665	
561.04	8005.5	
561.24	6744	
561.43	6903	
561.63	8092.9	
561.82	8480	
562.01	7789.8	
562.21	7157	
562.4	8755.7	
562.59	9534	
562.79	7043.6	
562.98	6795.8	
563.18	8721.6	
563.37	9878.7	
563.56	7382.2	
563.76	6662.7	
563.95	8248.5	
564.14	8273.1	
564.34	7027.9	
564.53	6820.4	
564.73	8763.9	
564.92	9023.4	
565.11	7141.9	
565.31	6685.9	
565.5	9151	
565.69	8307.9	
565.89	6947.4	
566.08	7060.7	
566.27	9039.1	
566.47	9331.2	
566.66	7597.3	
566.85	6612.9	
567.05	8789.2	
567.24	8269.7	
567.44	6813.6	
567.63	7750.2	
567.82	9007.6	
568.02	8633.6	
568.21	6804.7	
568.4	7069.6	
568.6	8649.3	
568.79	8497.7	
568.98	6641.6	
569.18	6783.6	
569.37	8606.2	
569.56	10075	
569.76	7082.6	
569.95	7849.2	
570.14	8885.5	
570.34	8845.9	
570.53	6762.4	
570.72	6753.5	
570.91	9270.5	
571.11	8512.7	
571.3	7096.9	
571.49	7815	
571.69	8724.3	
571.88	8232.8	
572.07	7436.9	
572.27	7438.9	
572.46	8276.5	
572.65	9023.4	
572.85	6890	
573.04	7126.9	
573.23	9263.6	
573.43	8699.8	
573.62	6731	
573.81	7163.8	
574	8690.2	
574.2	8589.2	
574.39	7039.6	
574.58	7215	
574.78	9428.8	
574.97	8757.8	
575.16	7452.6	
575.36	7593.9	
575.55	9183.8	
575.74	9181	
575.93	6668.2	
576.13	7574.1	
576.32	8587.8	
576.51	9077.3	
576.71	7135.1	
576.9	8143.4	
577.09	9372.2	
577.28	8985.8	
577.48	7397.3	
577.67	6691.4	
577.86	8646.5	
578.05	8943.5	
578.25	7151.5	
578.44	7250.5	
578.63	8770.1	
578.83	9585.9	
579.02	6789	
579.21	7963.9	
579.4	8886.1	
579.6	8651.3	
579.79	7343.3	
579.98	8934.6	
580.17	9079.3	
580.37	9196.7	
580.56	6976.7	
580.75	7514	
580.94	9443.9	
581.14	9469.8	
581.33	7814.4	
581.52	7092.1	
581.71	9101.9	
581.91	9615.2	
582.1	6850.5	
582.29	7269.6	
582.48	8874.5	
582.68	8697.7	
582.87	7589.8	
583.06	7264.8	
583.25	9079.3	
583.45	8587.8	
583.64	7889.5	
583.83	8456.7	
584.02	8824.7	
584.21	9116.2	
584.41	7813.7	
584.6	7312.6	
584.79	8828.8	
584.98	9329.2	
585.18	6945.3	
585.37	6874.3	
585.56	8667	
585.75	9070.5	
585.94	7018.4	
586.14	7500.3	
586.33	9496.4	
586.52	8755.1	
586.71	7344.7	
586.91	7211.6	
587.1	8221.2	
587.29	9052.7	
587.48	7116	
587.67	7029.3	
587.87	8968.7	
588.06	9011.1	
588.25	7944.8	
588.44	7586.4	
588.63	8621.9	
588.83	9095	
589.02	7110.5	
589.21	6939.2	
589.4	8541.4	
589.59	8377.6	
589.78	6315.3	
589.98	6501.6	
590.17	8018.5	
590.36	8341.4	
590.55	5947.3	
590.74	6640.2	
590.94	9314.2	
591.13	8202.8	
591.32	6365.8	
591.51	6111.1	
591.7	8493.6	
591.89	8224	
592.09	6218.3	
592.28	6492.1	
592.47	7651.2	
592.66	9149	
592.85	6201.2	
593.05	6304.3	
593.24	8151.6	
593.43	8705.2	
593.62	6480.5	
593.81	6788.3	
594	8115.4	
594.19	8319.5	
594.39	6354.2	
594.58	6329.6	
594.77	8368	
594.96	8824	
595.15	6270.9	
595.34	6808.8	
595.54	8297	
595.73	7644.4	
595.92	5827.8	
596.11	6584.9	
596.3	8774.2	
596.49	7731.1	
596.68	6469.5	
596.88	6716.7	
597.07	8469.7	
597.26	7565.9	
597.45	6098.2	
597.64	7027.3	
597.83	7808.2	
598.02	8208.9	
598.22	6122.1	
598.41	6708.5	
598.6	8130.4	
598.79	7670.3	
598.98	6190.3	
599.17	6850.5	
599.36	8168	
599.55	9013.1	
599.74	7744.1	
599.94	7613	
600.13	8535.9	
600.32	7600.7	
600.51	5980.1	
600.7	6050.4	
600.89	8983.8	
601.08	9076.6	
601.27	5988.3	
601.47	6685.3	
601.66	8488.8	
601.85	8930.5	
602.04	6488	
602.23	6544.6	
602.42	7717.4	
602.61	8329.8	
602.8	6315.3	
602.99	6280.4	
603.18	7952.3	
603.37	8169.3	
603.57	6682.5	
603.76	7075	
603.95	8757.1	
604.14	8382.3	
604.33	6302.3	
604.52	6450.4	
604.71	8277.2	
604.9	7847.8	
605.09	6982.9	
605.28	6881.2	
605.47	8653.4	
605.66	8353	
605.86	6719.4	
606.05	6218.3	
606.24	8650.6	
606.43	7415	
606.62	6536.4	
606.81	7040.2	
607	8406.2	
607.19	7875.1	
607.38	6080.4	
607.57	6164.4	
607.76	7714	
607.95	7320.1	
608.14	6556.2	
608.33	7004.1	
608.52	7661.5	
608.72	8482.7	
608.91	5909.1	
609.1	5842.9	
609.29	7798.7	
609.48	7425.9	
609.67	6711.2	
609.86	5907	
610.05	7561.1	
610.24	7797.3	
610.43	5810.8	
610.62	5545.2	
610.81	8627.4	
611	8494.3	
611.19	5951.4	
611.38	6514.6	
611.57	8060.1	
611.76	8970.8	
611.95	5687.9	
612.14	5658.5	
612.33	7746.1	
612.52	7505.8	
612.71	6171.9	
612.9	5550.7	
613.09	7218.4	
613.28	8933.2	
613.47	6172.6	
613.66	6731.7	
613.85	7894.9	
614.04	7465.5	
614.24	6031.3	
614.43	5423	
614.62	8070.4	
614.81	7922.9	
615	6486.6	
615.19	6372.6	
615.38	7476.5	
615.57	7735.9	
615.76	6408.1	
615.95	7016.3	
616.14	8120.9	
616.33	7722.9	
616.52	6574	
616.71	6652.5	
616.9	7973.4	
617.09	7816.4	
617.28	6042.2	
617.47	6978.8	
617.66	7390.4	
617.85	7322.2	
618.04	6829.3	
618.22	6313.9	
618.41	7600.7	
618.6	8304.5	
618.79	6318.7	
618.98	5994.4	
619.17	8459.5	
619.36	7160.4	
619.55	6191.7	
619.74	6212.2	
619.93	8000.7	
620.12	7496.9	
620.31	6658.6	
620.5	6776	
620.69	8396	
620.88	8696.4	
621.07	7312.6	
621.26	6582.2	
621.45	8164.6	
621.64	8094.3	
621.83	6662	
622.02	6059.9	
622.21	8218.5	
622.4	8003.5	
622.59	7105.8	
622.78	6834.1	
622.97	7744.7	
623.16	8436.3	
623.35	6625.2	
623.54	6016.2	
623.72	7875.1	
623.91	7874.4	
624.1	6930.3	
624.29	5812.8	
624.48	8829.5	
624.67	8257.4	
624.86	6774	
625.05	6118	
625.24	8859.5	
625.43	7651.2	
625.62	8116.1	
625.81	6261.3	
626	8432.9	
626.19	7880.6	
626.38	6779.5	
626.56	6316.6	
626.75	7773.4	
626.94	8264.9	
627.13	6881.2	
627.32	5880.4	
627.51	8219.2	
627.7	9023.4	
627.89	5874.3	
628.08	6849.1	
628.27	7626.6	
628.46	7806.2	
628.65	6189.6	
628.83	5817.6	
629.02	8170.7	
629.21	7586.4	
629.4	6561.7	
629.59	6663.4	
629.78	7596.6	
629.97	8264.2	
630.16	6631.3	
630.35	6223.1	
630.54	8690.9	
630.72	8419.2	
630.91	6223.8	
631.1	6645	
631.29	8041	
631.48	8049.2	
631.67	6726.9	
631.86	6287.3	
632.05	7718.8	
632.24	7862.8	
632.42	6063.4	
632.61	6490.7	
632.8	7752.2	
632.99	7572	
633.18	6493.4	
633.37	6798.6	
633.56	8019.2	
633.75	7959.8	
633.93	6502.3	
634.12	6275.7	
634.31	8702.5	
634.5	8312	
634.69	6318	
634.88	6741.2	
635.07	7879.2	
635.25	8324.3	
635.44	6935.8	
635.63	7100.3	
635.82	7740	
636.01	7316	
636.2	6937.2	
636.39	6606.7	
636.57	8613.1	
636.76	8335.2	
636.95	6154.8	
637.14	7165.8	
637.33	8099	
637.52	8795.3	
637.7	5905	
637.89	6716.7	
638.08	7798	
638.27	8856.8	
638.46	6777.4	
638.65	7128.3	
638.83	8828.1	
639.02	7684.7	
639.21	6664.8	
639.4	7001.3	
639.59	7986.4	
639.78	7673.1	
639.96	6097.5	
640.15	6132.3	
640.34	7826.7	
640.53	7886	
640.72	5906.3	
640.91	6152.8	
641.09	7502.4	
641.28	8419.9	
641.47	6164.4	
641.66	6757.6	
641.85	7894.2	
642.03	8082.7	
642.22	6649.8	
642.41	6185.5	
642.6	7496.2	
642.79	6956.3	
642.97	6040.8	
643.16	6510.5	
643.35	7503.8	
643.54	7250.5	
643.73	5911.1	
643.91	6561	
644.1	7218.4	
644.29	7626.6	
644.48	5925.5	
644.67	5982.8	
644.85	7255.3	
645.04	7509.2	
645.23	5604.6	
645.42	5954.1	
645.6	7194.5	
645.79	8079.2	
645.98	5853.8	
646.17	5124	
646.36	6923.5	
646.54	7321.5	
646.73	6413.6	
646.92	5399.1	
647.11	7034.8	
647.29	7826	
647.48	5543.2	
647.67	5403.2	
647.86	8109.3	
648.05	8079.9	
648.23	5787.6	
648.42	6696.9	
648.61	7639.6	
648.8	7382.9	
648.98	5535.7	
649.17	5765.7	
649.36	7066.2	
649.55	6732.4	
649.73	5571.2	
649.92	6122.7	
650.11	7013.6	
650.3	7154.9	
650.48	5677.7	
650.67	5450.3	
650.86	7501.7	
651.05	6617	
651.23	5600.5	
651.42	5466	
651.61	7038.9	
651.79	6979.5	
651.98	5667.4	
652.17	5433.3	
652.36	7338.6	
652.54	6589.7	
652.73	5433.3	
652.92	5313.1	
653.11	7332.4	
653.29	7369.3	
653.48	4913.1	
653.67	5694.7	
653.85	7128.3	
654.04	7924.3	
654.23	5821.7	
654.42	5464	
654.6	6713.2	
654.79	7220.5	
654.98	5066	
655.16	5472.9	
655.35	6452.5	
655.54	6251.1	
655.73	5070.8	
655.91	4973.2	
656.1	7180.9	
656.29	6292.7	
656.47	4746.5	
656.66	6054.5	
656.85	6598.6	
657.03	6543.3	
657.22	5129.5	
657.41	5223	
657.59	6678.4	
657.78	6478.4	
657.97	4956.1	
658.16	5511.1	
658.34	7105.8	
658.53	7509.2	
658.72	6133.7	
658.9	6581.5	
659.09	6771.9	
659.28	6804.7	
659.46	5309	
659.65	5134.3	
659.84	6629.3	
660.02	7048.4	
660.21	5246.9	
660.4	5130.2	
660.58	7254.6	
660.77	6867.5	
660.96	5649.7	
661.14	4857.8	
661.33	7744.7	
661.52	7692.2	
661.7	4812.7	
661.89	7529	
662.08	6577.4	
662.26	6156.9	
662.45	5048.9	
662.64	5112.4	
662.82	7170.6	
663.01	6423.1	
663.2	5145.2	
663.38	5735.7	
663.57	6956.9	
663.75	6894.8	
663.94	5386.8	
664.13	6260.6	
664.31	6533	
664.5	6998.6	
664.69	5571.2	
664.87	5952.1	
665.06	6264.1	
665.25	6855.9	
665.43	6202.6	
665.62	6206.7	
665.8	7051.2	
665.99	6585.6	
666.18	5425.1	
666.36	5443.5	
666.55	7081.9	
666.74	7025.9	
666.92	5160.9	
667.11	6393.8	
667.29	6627.9	
667.48	7026.6	
667.67	6064.7	
667.85	5291.3	
668.04	6599.2	
668.22	6592.4	
668.41	5466	
668.6	5610.1	
668.78	6462.7	
668.97	6673	
669.15	5695.4	
669.34	4927.4	
669.53	6443.6	
669.71	6694.1	
669.9	5007.3	
670.08	5494	
670.27	6325.5	
670.46	6943.3	
670.64	5741.1	
670.83	5809.4	
671.01	6363	
671.2	6814.3	
671.38	5109	
671.57	5045.5	
671.76	7263.5	
671.94	7660.1	
672.13	4875.5	
672.31	5724.1	
672.5	6944.7	
672.69	6423.8	
672.87	5100.8	
673.06	5367	
673.24	6840.9	
673.43	6504.3	
673.61	5550	
673.8	5254.4	
673.98	6978.8	
674.17	7118.1	
674.36	5729.5	
674.54	5684.5	
674.73	6789	
674.91	7014.3	
675.1	5406.6	
675.28	5111	
675.47	6666.1	
675.65	6997.2	
675.84	5384.8	
676.03	5530.9	
676.21	6473.6	
676.4	6009.4	
676.58	5895.4	
676.77	5705.6	
676.95	7682.6	
677.14	6382.8	
677.32	5063.3	
677.51	4876.2	
677.69	7015.7	
677.88	6198.5	
678.06	5018.2	
678.25	5122.7	
678.44	6574	
678.62	6457.9	
678.81	4868	
678.99	5582.8	
679.18	7262.8	
679.36	6838.9	
679.55	5265.3	
679.73	5732.9	
679.92	6861.4	
680.1	6493.4	
680.29	6219	
680.47	5283.1	
680.66	6450.4	
680.84	7015	
681.03	4728.1	
681.21	5580	
681.4	6422.4	
681.58	6330.3	
681.77	5026.4	
681.95	5076.9	
682.14	7197.2	
682.32	7370.6	
682.51	5681.1	
682.69	4779.3	
682.88	6335.1	
683.06	6824.5	
683.25	5520.6	
683.43	5855.8	
683.62	6625.2	
683.8	6907.8	
683.99	5974.6	
684.17	5366.4	
684.36	7532.4	
684.54	6520	
684.73	4777.2	
684.91	4865.3	
685.1	6720.8	
685.28	6162.3	
685.46	5247.6	
685.65	5321.3	
685.83	6781.5	
686.02	6342.6	
686.2	4966.3	
686.39	5019.6	
686.57	6263.4	
686.76	7281.9	
686.94	4962.2	
687.13	5027.8	
687.31	6660	
687.5	6397.9	
687.68	4635.2	
687.86	5649	
688.05	7744.7	
688.23	5993.7	
688.42	5572.5	
688.6	4950.6	
688.79	6292	
688.97	6293.4	
689.16	5318.6	
689.34	4450.9	
689.52	6944	
689.71	7112.6	
689.89	5452.4	
690.08	4960.2	
690.26	6608.1	
690.45	6424.5	
690.63	5653.8	
690.81	5018.9	
691	6436.1	
691.18	6245.6	
691.37	5274.2	
691.55	6947.4	
691.74	6226.5	
691.92	7751.6	
692.1	5191.6	
692.29	4742.4	
692.47	6406.7	
692.66	5882.4	
692.84	4859.1	
693.02	5296	
693.21	5925.5	
693.39	6382.8	
693.58	5458.5	
693.76	4988.2	
693.94	7292.8	
694.13	7135.8	
694.31	4967.7	
694.5	5741.1	
694.68	6229.2	
694.86	6562.4	
695.05	5274.9	
695.23	5340.4	
695.42	6791.7	
695.6	8547.5	
695.78	5754.1	
695.97	5000.5	
696.15	6841.6	
696.34	6400.6	
696.52	4872.8	
696.7	5506.3	
696.89	6623.8	
697.07	6135	
697.25	5439.4	
697.44	6451.8	
697.62	6608.1	
697.81	6877.1	
697.99	5132.9	
698.17	5457.2	
698.36	6067.4	
698.54	6635.4	
698.72	5365	
698.91	4631.1	
699.09	6287.3	
699.28	6121.4	
699.46	5236.7	
699.64	4987.5	
699.83	6203.3	
700.01	6963.1	
700.19	5656.5	
700.38	4407.9	
700.56	7061.4	
700.74	6204.7	
700.93	4716.5	
701.11	5448.3	
701.29	6631.3	
701.48	7438.9	
701.66	4932.9	
701.84	4966.3	
702.03	6325.5	
702.21	6789	
702.39	4560.1	
702.58	5065.3	
702.76	6684.6	
702.94	6691.4	
703.13	4636.6	
703.31	6439.5	
703.49	6166.4	
703.68	7294.2	
703.86	4773.8	
704.04	5564.3	
704.23	6499.6	
704.41	6776	
704.59	4908.3	
704.78	5853.1	
704.96	7391.1	
705.14	6727.6	
705.33	4780	
705.51	5309	
705.69	6339.8	
705.87	7005.4	
706.06	5560.9	
706.24	4721.3	
706.42	6621.8	
706.61	6803.4	
706.79	5637.4	
706.97	4731.5	
707.16	6182.8	
707.34	6584.9	
707.52	5509	
707.7	4855.1	
707.89	6236.7	
708.07	6021.7	
708.25	5544.5	
708.44	5693.4	
708.62	6179.4	
708.8	7045	
708.98	5806	
709.17	4931.5	
709.35	6464.1	
709.53	6482.5	
709.72	4700.1	
709.9	5132.9	
710.08	6759	
710.26	6748.7	
710.45	5920	
710.63	4926.7	
710.81	6399.9	
710.99	6484.6	
711.18	5389.6	
711.36	5077.6	
711.54	6354.2	
711.72	6898.2	
711.91	5094	
712.09	4609.3	
712.27	6496.8	
712.45	6930.3	
712.64	5246.2	
712.82	4539.7	
713	5999.2	
713.18	6146	
713.37	4582.7	
713.55	5524.7	
713.73	6837.5	
713.91	5752.7	
714.1	4865.3	
714.28	4452.3	
714.46	6490	
714.64	5872.2	
714.83	3986.7	
715.01	4588.8	
715.19	5945.3	
715.37	5380.7	
715.55	4363.5	
715.74	4628.4	
715.92	6583.5	
716.1	4998.4	
716.28	5495.4	
716.47	4691.2	
716.65	5648.3	
716.83	5664	
717.01	4539	
717.19	4565.6	
717.38	7306.5	
717.56	5266.7	
717.74	4807.3	
717.92	4106.2	
718.1	6319.3	
718.29	5779.4	
718.47	3802.4	
718.65	4333.5	
718.83	6358.9	
719.01	6231.3	
719.2	3781.9	
719.38	4673.5	
719.56	5994.4	
719.74	7256.6	
719.92	4338.3	
720.11	5182	
720.29	6060.6	
720.47	5347.2	
720.65	3974.4	
720.83	4642.1	
721.02	5584.1	
721.2	5412.1	
721.38	4687.1	
721.56	4046.1	
721.74	5055.8	
721.92	5203.9	
722.11	5058.5	
722.29	4852.3	
722.47	6156.2	
722.65	5533.6	
722.83	4062.5	
723.01	4784.7	
723.2	5532.9	
723.38	5796.4	
723.56	3635.8	
723.74	4589.5	
723.92	5250.3	
724.1	6094.1	
724.29	4021.5	
724.47	4881	
724.65	5324.7	
724.83	5145.9	
725.01	3957.4	
725.19	4580.6	
725.37	5319.9	
725.56	5279.7	
725.74	3852.9	
725.92	3992.2	
726.1	5188.9	
726.28	5400.5	
726.46	4283.7	
726.64	4098	
726.83	5520.6	
727.01	5600.5	
727.19	3838.6	
727.37	4457.1	
727.55	5598.5	
727.73	5906.3	
727.91	3771.7	
728.09	3674.1	
728.28	5945.9	
728.46	6226.5	
728.64	4521.2	
728.82	4549.2	
729	6745.3	
729.18	6173.9	
729.36	3877.5	
729.54	5670.1	
729.72	6945.3	
729.91	5640.8	
730.09	5414.1	
730.27	4402.5	
730.45	5580.7	
730.63	6100.2	
730.81	4937	
730.99	4191.5	
731.17	6496.2	
731.35	5399.1	
731.53	4532.2	
731.71	4339.6	
731.9	6206	
732.08	6347.3	
732.26	4532.2	
732.44	4140.3	
732.62	6412.9	
732.8	5978	
732.98	4724	
733.16	4026.3	
733.34	6051.7	
733.52	5040.7	
733.7	4412	
733.88	4598.4	
734.07	5917.3	
734.25	5748	
734.43	4033.8	
734.61	5211.4	
734.79	6883.9	
734.97	5618.9	
735.15	4126.7	
735.33	4375.1	
735.51	5876.3	
735.69	5646.9	
735.87	5586.2	
736.05	4539	
736.23	5734.3	
736.41	5529.5	
736.59	4444.1	
736.77	4530.8	
736.95	6088.6	
737.13	5633.3	
737.32	4142.4	
737.5	4322.6	
737.68	6594.5	
737.86	5563.6	
738.04	3973.7	
738.22	5440.8	
738.4	5431.9	
738.58	5729.5	
738.76	4508.3	
738.94	3715.7	
739.12	5486.5	
739.3	5477	
739.48	4969.1	
739.66	4780.6	
739.84	5715.2	
740.02	5735	
740.2	3803.1	
740.38	4024.9	
740.56	6034.7	
740.74	5082.4	
740.92	4527.4	
741.1	4472.8	
741.28	5607.3	
741.46	5373.2	
741.64	4179.9	
741.82	4564.9	
742	5595.1	
742.18	5677	
742.36	4299.4	
742.54	4054.3	
742.72	6090	
742.9	5061.9	
743.08	4663.9	
743.26	3705.5	
743.44	6198.5	
743.62	6083.1	
743.8	4740.4	
743.98	3983.3	
744.16	5874.3	
744.34	5598.5	
744.52	4684.4	
744.7	4669.4	
744.88	5976	
745.06	5564.3	
745.24	4712.4	
745.42	4784.1	
745.6	6006.7	
745.78	5838.8	
745.96	3806.5	
746.14	4010.6	
746.32	6642.2	
746.5	5991.7	
746.68	4444.8	
746.86	4098.7	
747.03	6262	
747.21	5065.3	
747.39	4461.8	
747.57	4001	
747.75	5670.1	
747.93	5990.3	
748.11	3999.7	
748.29	3947.8	
748.47	6903.7	
748.65	5454.4	
748.83	4579.3	
749.01	4341	
749.19	5865.4	
749.37	5203.2	
749.55	4317.1	
749.73	4379.2	
749.91	5609.4	
750.09	5391.6	
750.26	4442.7	
750.44	3915	
750.62	5623	
750.8	5483.1	
750.98	3812	
751.16	4018.8	
751.34	5672.9	
751.52	5099.4	
751.7	4720.6	
751.88	3773	
752.06	6044.9	
752.24	5807.4	
752.42	3755.3	
752.59	3994.2	
752.77	5563.6	
752.95	6505	
753.13	4641.4	
753.31	4096.6	
753.49	5313.1	
753.67	5646.2	
753.85	4345.1	
754.03	3981.3	
754.21	5909.1	
754.38	6083.1	
754.56	4117.8	
754.74	3427.6	
754.92	5218.2	
755.1	5793	
755.28	3445.4	
755.46	3453.6	
755.64	6382.8	
755.82	6556.9	
755.99	3691.1	
756.17	3679.5	
756.35	4507.6	
756.53	5711.8	
756.71	2873.3	
756.89	3572.3	
757.07	5345.9	
757.25	4688.5	
757.42	3994.2	
757.6	4655.7	
757.78	5438.7	
757.96	4634.6	
758.14	3796.9	
758.32	3338.2	
758.5	4313	
758.67	4987.5	
758.85	3620.1	
759.03	3694.5	
759.21	5165.7	
759.39	4669.4	
759.57	3300.6	
759.75	4177.9	
759.92	5690.6	
760.1	5142.4	
760.28	4421.6	
760.46	4640.7	
760.64	4909	
760.82	4773.8	
760.99	4180.6	
761.17	3731.4	
761.35	5543.2	
761.53	4704.9	
761.71	3821.5	
761.89	4395.6	
762.06	5469.4	
762.24	5088.5	
762.42	3838.6	
762.6	3723.9	
762.78	5008	
762.96	5582.1	
763.13	4143	
763.31	3835.2	
763.49	5585.5	
763.67	4986.1	
763.85	4506.9	
764.02	4976.6	
764.2	5886.5	
764.38	5141.8	
764.56	3777.8	
764.74	4511.7	
764.91	5951.4	
765.09	5035.3	
765.27	3577.1	
765.45	3381.2	
765.63	5998.5	
765.8	5853.8	
765.98	3227.6	
766.16	3394.8	
766.34	4762.2	
766.52	4537.6	
766.69	4222.2	
766.87	3282.2	
767.05	5079.6	
767.23	5650.3	
767.41	3569.6	
767.58	3729.4	
767.76	5535	
767.94	5548.6	
768.12	3644.7	
768.29	4233.8	
768.47	5082.4	
768.65	5641.5	
768.83	3350.5	
769	4187.4	
769.18	4818.2	
769.36	5360.2	
769.54	4247.5	
769.72	3381.2	
769.89	5636	
770.07	5608	
770.25	3704.8	
770.43	4646.2	
770.6	6210.8	
770.78	6500.3	
770.96	3823.6	
771.14	4249.5	
771.31	5556.1	
771.49	4947.9	
771.67	3128.6	
771.85	3330.7	
772.02	4377.9	
772.2	5000.5	
772.38	3857	
772.55	3431.7	
772.73	5158.8	
772.91	5019.6	
773.09	3818.1	
773.26	3900.7	
773.44	5212.1	
773.62	4915.1	
773.8	3460.4	
773.97	3211.9	
774.15	5182	
774.33	4954	
774.5	3332.7	
774.68	3626.3	
774.86	5388.2	
775.04	4988.9	
775.21	3356.6	
775.39	3362.8	
775.57	5152.7	
775.74	5378	
775.92	3255.6	
776.1	3159.3	
776.27	5126.7	
776.45	6066.1	
776.63	3371.6	
776.81	3068.5	
776.98	4856.4	
777.16	5640.1	
777.34	3497.9	
777.51	3738.9	
777.69	4877.6	
777.87	4669.4	
778.04	3581.9	
778.22	3971	
778.4	4681.7	
778.57	5230.5	
778.75	2960.7	
778.93	3201.7	
779.1	4588.8	
779.28	4334.9	
779.46	2950.4	
779.64	3316.3	
779.81	5273.5	
779.99	6016.9	
780.17	3956	
780.34	4088.4	
780.52	4913.8	
780.69	5008	
780.87	3654.3	
781.05	3299.3	
781.22	5017.5	
781.4	5028.4	
781.58	3360	
781.75	2700.6	
781.93	5001.8	
782.11	4442	
782.28	4051.6	
782.46	3351.8	
782.64	4361.5	
782.81	5101.5	
782.99	3463.1	
783.17	3437.9	
783.34	4997.7	
783.52	4429.1	
783.69	3525.9	
783.87	4214	
784.05	4514.4	
784.22	4517.1	
784.4	4162.8	
784.58	3617.4	
784.75	5297.4	
784.93	4576.5	
785.1	3374.4	
785.28	3892.5	
785.46	5063.9	
785.63	4462.5	
785.81	3364.8	
785.99	3315	
786.16	4687.8	
786.34	4881.7	
786.51	3255.6	
786.69	3616	
786.87	4337.6	
787.04	4658.4	
787.22	3160.7	
787.39	3969.6	
787.57	4472.8	
787.75	5406.6	
787.92	4114.4	
788.1	4018.1	
788.27	4510.3	
788.45	4230.4	
788.63	3805.1	
788.8	2808.4	
788.98	4930.1	
789.15	4238.6	
789.33	2915.6	
789.5	3442	
789.68	5243.5	
789.86	5355.4	
790.03	3702	
790.21	3246.7	
790.38	5271.5	
790.56	4618.9	
790.73	3192.8	
790.91	3188	
791.09	4525.3	
791.26	5063.3	
791.44	3386	
791.61	2919.7	
791.79	4532.2	
791.96	4556.7	
792.14	3033	
792.32	2682.8	
792.49	4529.4	
792.67	4596.3	
792.84	3180.5	
793.02	2955.9	
793.19	4841.4	
793.37	5434.6	
793.54	2730.6	
793.72	2992.8	
793.89	5470.8	
794.07	4493.9	
794.25	3525.9	
794.42	2781.8	
794.6	5257.1	
794.77	4952.7	
794.95	3677.5	
795.12	3239.2	
795.3	4531.5	
795.47	4993.6	
795.65	3528	
795.82	3373.7	
796	4343.7	
796.17	5808.7	
796.35	3322.5	
796.52	3920.5	
796.7	4921.3	
796.87	4994.3	
797.05	3309.5	
797.22	3948.5	
797.4	4978.6	
797.57	5763.7	
797.75	3404.4	
797.92	3200.3	
798.1	5226.4	
798.27	4457.7	
798.45	2823.5	
798.62	3015.3	
798.8	4719.2	
798.97	5102.9	
799.15	3611.9	
799.32	3446.7	
799.5	4160.1	
799.67	4800.4	
799.85	3651.5	
800.02	2763.4	
800.2	4485.7	
800.37	4655	
800.55	3844.7	
800.72	3254.2	
800.9	5150.6	
801.07	5412.1	
801.25	4274.1	
801.42	3528.7	
801.6	5124	
801.77	4797.7	
801.95	3319.8	
802.12	3148.4	
802.29	4874.2	
802.47	4806.6	
802.64	3539.6	
802.82	2783.2	
802.99	4492.6	
803.17	5229.1	
803.34	3456.3	
803.52	3056.9	
803.69	5787.6	
803.87	4304.1	
804.04	3447.4	
804.21	3494.5	
804.39	5429.8	
804.56	4601.8	
804.74	2940.9	
804.91	3523.2	
805.09	4516.5	
805.26	4554.7	
805.44	3038.5	
805.61	3312.9	
805.78	5065.3	
805.96	5025.7	
806.13	3513.6	
806.31	3747.1	
806.48	4140.3	
806.66	4532.8	
806.83	3542.3	
807	3454.9	
807.18	4541.7	
807.35	4782	
807.53	3429	
807.7	2837.8	
807.87	5447.6	
808.05	4530.1	
808.22	3737.5	
808.4	2833.7	
808.57	4497.3	
808.74	4250.2	
808.92	3141.6	
809.09	4010.6	
809.27	4521.2	
809.44	4872.8	
809.61	2813.2	
809.79	3164.1	
809.96	5496.7	
810.14	5104.2	
810.31	2737.5	
810.48	3394.8	
810.66	4605.9	
810.83	5109	
811.01	3222.8	
811.18	3512.3	
811.35	5122.7	
811.53	4043.4	
811.7	3802.4	
811.87	3545.7	
812.05	4588.1	
812.22	4476.9	
812.39	3104.7	
812.57	3013.9	
812.74	4519.2	
812.92	5833.3	
813.09	3389.4	
813.26	3562.1	
813.44	5646.9	
813.61	4438.6	
813.78	2833	
813.96	3654.9	
814.13	4500.8	
814.3	4332.1	
814.48	3991.5	
814.65	3304.1	
814.82	5387.5	
815	4341.7	
815.17	3439.2	
815.34	4063.9	
815.52	4509.6	
815.69	4491.2	
815.87	3423.5	
816.04	3348.4	
816.21	4539.7	
816.38	4074.1	
816.56	3304.7	
816.73	3059.7	
816.9	5673.6	
817.08	5078.3	
817.25	3140.9	
817.42	3863.8	
817.6	4182	
817.77	4515.8	
817.94	3471.3	
818.12	3045.3	
818.29	4414.1	
818.46	6371.9	
818.64	3209.2	
818.81	3001.6	
818.98	4301.4	
819.16	5944.6	
819.33	3543.7	
819.5	3474	
819.67	4861.9	
819.85	5331.5	
820.02	3336.1	
820.19	3467.9	
820.37	4749.9	
820.54	4417.5	
820.71	3476.1	
820.88	4225.6	
821.06	4741.7	
821.23	4323.3	
821.4	3510.2	
821.58	3450.8	
821.75	5077.6	
821.92	4683	
822.09	2867.2	
822.27	2904	
822.44	4539.7	
822.61	4559.5	
822.79	2914.9	
822.96	5263.3	
823.13	4895.3	
823.3	4280.3	
823.48	3285.6	
823.65	2930	
823.82	5134.3	
823.99	4214	
824.17	4076.8	
824.34	2971.6	
824.51	5844.2	
824.68	4584	
824.86	3106.8	
825.03	3420.8	
825.2	4562.9	
825.37	5343.2	
825.55	3096.5	
825.72	3397.6	
825.89	5802.6	
826.06	5442.1	
826.24	3342.3	
826.41	3357.3	
826.58	5414.1	
826.75	4734.9	
826.92	2728.6	
827.1	2941.6	
827.27	7148.8	
827.44	5744.6	
827.61	3244.7	
827.79	3767.6	
827.96	4394.9	
828.13	4605.9	
828.3	3310.9	
828.47	2853.5	
828.65	4822.3	
828.82	4712.4	
828.99	4171	
829.16	3648.1	
829.34	5112.4	
829.51	4882.4	
829.68	3394.2	
829.85	3483.6	
830.02	5367	
830.2	5050.3	
830.37	2671.2	
830.54	4031.1	
830.71	5682.4	
830.88	4520.5	
831.05	2676	
831.23	3061.7	
831.4	5510.4	
831.57	6000.5	
831.74	3166.8	
831.91	2816	
832.09	4866	
832.26	5110.4	
832.43	3207.8	
832.6	3661.8	
832.77	4789.5	
832.94	5401.2	
833.12	2667.1	
833.29	3188.7	
833.46	4866	
833.63	6171.9	
833.8	3509.5	
833.97	3244.7	
834.15	5082.4	
834.32	4866.7	
834.49	3402.4	
834.66	3467.9	
834.83	5203.9	
835	4422.2	
835.17	3185.3	
835.35	3158.7	
835.52	5044.8	
835.69	4883.7	
835.86	3305.4	
836.03	2741.5	
836.2	5098.8	
836.37	4717.8	
836.55	3236.5	
836.72	3121.8	
836.89	4746.5	
837.06	5154.7	
837.23	3324.5	
837.4	3646.7	
837.57	5695.4	
837.75	6165.8	
837.92	3005.1	
838.09	3151.8	
838.26	4717.8	
838.43	5234.6	
838.6	3406.5	
838.77	3099.9	
838.94	5871.5	
839.11	5675.6	
839.29	3243.3	
839.46	2636.4	
839.63	5098.8	
839.8	4820.2	
839.97	3189.4	
840.14	3207.8	
840.31	4869.4	
840.48	5097.4	
840.65	2690.3	
840.82	3083.6	
841	5076.2	
841.17	4976.6	
841.34	2940.9	
841.51	3007.1	
841.68	5001.8	
841.85	4829.1	
842.02	3063.8	
842.19	2547.7	
842.36	4882.4	
842.53	4891.2	
842.7	2949.1	
842.87	3485	
843.05	6182.1	
843.22	4771.1	
843.39	2832.3	
843.56	2990	
843.73	4661.2	
843.9	5126.7	
844.07	4598.4	
844.24	3874.8	
844.41	7020.4	
844.58	4425.7	
844.75	2882.9	
844.92	3101.3	
845.09	5052.3	
845.26	5010.7	
845.43	2925.9	
845.6	3087	
845.77	5046.9	
845.94	4878.3	
846.12	3174.4	
846.29	3384.6	
846.46	5250.3	
846.63	4997.7	
846.8	2940.2	
846.97	3409.2	
847.14	5380.7	
847.31	5044.8	
847.48	3260.4	
847.65	3576.4	
847.82	5296.7	
847.99	5224.4	
848.16	3799	
848.33	3538.9	
848.5	4670.7	
848.67	5412.8	
848.84	2954.5	
849.01	3050.8	
849.18	4600.4	
849.35	4349.2	
849.52	3609.9	
849.69	2888.3	
849.86	5202.5	
850.03	5285.8	
850.2	2917.7	
850.37	3519.8	
850.54	5316.5	
850.71	4762.2	
850.88	3454.2	
851.05	2882.2	
851.22	4944.5	
851.39	5480.4	
851.56	2783.9	
851.73	3367.5	
851.9	4509.6	
852.07	5231.2	
852.24	3239.9	
852.41	2872.6	
852.58	4945.8	
852.75	4515.1	
852.92	3265.1	
853.09	2865.8	
853.26	4689.2	
853.43	5350	
853.6	2908.1	
853.77	2514.9	
853.94	5496.7	
854.11	4419.5	
854.28	4130.1	
854.44	3156.6	
854.61	5757.5	
854.78	5294.7	
854.95	2960	
855.12	3574.4	
855.29	4145.1	
855.46	5438.7	
855.63	2899.9	
855.8	3986.7	
855.97	4667.3	
856.14	5363.6	
856.31	3986.7	
856.48	3208.5	
856.65	4683	
856.82	4447.5	
856.99	2815.3	
857.16	3160	
857.33	5976.7	
857.49	4743.8	
857.66	3114.3	
857.83	3383.2	
858	4732.2	
858.17	4968.4	
858.34	2788.7	
858.51	2953.9	
858.68	5523.4	
858.85	5582.1	
859.02	3391.4	
859.19	3524.6	
859.36	4458.4	
859.52	4534.2	
859.69	2911.5	
859.86	3396.9	
860.03	4500.8	
860.2	5474.9	
860.37	2697.2	
860.54	2951.8	
860.71	5192.3	
860.88	5550	
861.05	3270.6	
861.21	3663.1	
861.38	5483.8	
861.55	4333.5	
861.72	2695.8	
861.89	3266.5	
862.06	5250.3	
862.23	5596.4	
862.4	2813.9	
862.56	2982.5	
862.73	5081.7	
862.9	4839.4	
863.07	3330	
863.24	2652.1	
863.41	4432.5	
863.58	4486.4	
863.75	2969.6	
863.91	3334.1	
864.08	5414.8	
864.25	5176.6	
864.42	3615.3	
864.59	3985.3	
864.76	5702.9	
864.93	4496.7	
865.09	2843.9	
865.26	3116.3	
865.43	5443.5	
865.6	5721.3	
865.77	2599.6	
865.94	2891.7	
866.1	5424.4	
866.27	5122	
866.44	4243.4	
866.61	2835.8	
866.78	4769	
866.95	5134.9	
867.11	2832.3	
867.28	2620.7	
867.45	5358.2	
867.62	4492.6	
867.79	3314.3	
867.96	2881.5	
868.12	4493.9	
868.29	5242.1	
868.46	2881.5	
868.63	3786	
868.8	5330.9	
868.97	5117.9	
869.13	3044	
869.3	3015.3	
869.47	5094.7	
869.64	5288.5	
869.81	2917.7	
869.97	2960.7	
870.14	4926	
870.31	5562.3	
870.48	2887.6	
870.65	3644	
870.81	4784.1	
870.98	4771.1	
871.15	3276.8	
871.32	3054.2	
871.48	5055.8	
871.65	5601.9	
871.82	2886.3	
871.99	3201	
872.16	5882.4	
872.32	5369.1	
872.49	2941.6	
872.66	2966.8	
872.83	5204.6	
872.99	4654.4	
873.16	3299.3	
873.33	2883.5	
873.5	4857.8	
873.67	4908.3	
873.83	3048.7	
874	3855	
874.17	5005.2	
874.34	5825.8	
874.5	3729.4	
874.67	3589.4	
874.84	5456.5	
875.01	4362.2	
875.17	3990.1	
875.34	2884.9	
875.51	4931.5	
875.68	5883.1	
875.84	3510.2	
876.01	4127.3	
876.18	5184.8	
876.34	5116.5	
876.51	2900.6	
876.68	2896.5	
876.85	4698.7	
877.01	5359.5	
877.18	4061.1	
877.35	2893.8	
877.52	4987.5	
877.68	4476.9	
877.85	2897.9	
878.02	2833.7	
878.18	4779.3	
878.35	4596.3	
878.52	2368.8	
878.69	3272.7	
878.85	5247.6	
879.02	5124	
879.19	4038.6	
879.35	3112.2	
879.52	5186.8	
879.69	5298.1	
879.86	2555.2	
880.02	3199.6	
880.19	4811.4	
880.36	5796.4	
880.52	3313.6	
880.69	3435.8	
880.86	5251	
881.02	5271.5	
881.19	3195.5	
881.36	3116.3	
881.52	5128.1	
881.69	4577.2	
881.86	3130.7	
882.02	3092.4	
882.19	5379.3	
882.36	6226.5	
882.52	2972.3	
882.69	4027.7	
882.86	4999.1	
883.02	4948.6	
883.19	3450.8	
883.36	3254.9	
883.52	5210.7	
883.69	5864	
883.86	2946.3	
884.02	2640.5	
884.19	5226.4	
884.36	4835.9	
884.52	3264.5	
884.69	3120.4	
884.86	4676.9	
885.02	5677	
885.19	3253.5	
885.36	3343.7	
885.52	4838	
885.69	5025.7	
885.86	4151.2	
886.02	3665.9	
886.19	5215.5	
886.35	4721.9	
886.52	3227.6	
886.69	4024.9	
886.85	4429.8	
887.02	5449	
887.19	5449	
887.35	5449	
887.52	5449	
887.68	5449	
887.85	5449	
888.02	5449	
888.18	5449	
888.35	5449	
888.51	5449	
888.68	5449	
888.85	5449	
889.01	5449	
889.18	5449	
889.35	5449	
889.51	5449	
889.68	5449	
889.84	5449	
890.01	5449	
890.17	5449	
890.34	5449	
890.51	5449	
890.67	5449	
890.84	5449	
891	5449	
891.17	5449	
891.34	5449	
891.5	5449	
891.67	5449	
891.83	5449	
892	5449	
892.16	5449	
892.33	5449	
892.5	5449	
892.66	5449	
892.83	5449	
892.99	5449	
893.16	5449	
893.32	5449	
893.49	5449	
893.65	5449	
893.82	5449	
893.99	5449	
894.15	5449	
894.32	5449	
894.48	5449	
894.65	5449	
894.81	5449	
894.98	5449	
895.14	5449	
895.31	5449	
895.47	5449	
895.64	5449	
895.81	5449	
895.97	5449	
896.14	5449	
896.3	5449	
896.47	5449	
896.63	5449	
896.8	5449	
896.96	5449	
897.13	5449	
897.29	5449	
897.46	5449	
897.62	5449	
897.79	5449	
897.95	5449	
898.12	5449	
898.28	5449	
898.45	5449	
898.61	5449	
898.78	5449	
898.94	5449	
899.11	5449	
899.27	5449	
899.44	5449	
899.6	5449	
899.77	5449	
899.93	5449	
900.1	5449	
900.26	5449	
900.43	5449	
900.59	5449	
900.76	5449	
900.92	5449	
901.09	5449	
901.25	5449	
901.42	5449	
901.58	5449	
901.75	5449	
901.91	5449	
902.07	5449	
902.24	5449	
902.4	5449	
902.57	5449	
902.73	5449	
902.9	5449	
903.06	5449	
903.23	5449	
903.39	5449	
903.56	5449	
903.72	5449	
903.88	5449	
904.05	5449	
904.21	5449	
904.38	5449	
904.54	5449	
904.71	5449	
904.87	5449	
905.03	5449	
905.2	5449	
905.36	5449	
905.53	5449	
905.69	5449	
905.86	5449	
906.02	5449	
906.18	5449	
906.35	5449	
906.51	5449	
906.68	5449	
906.84	5449	
907.01	5449	
907.17	5449	
907.33	5449	
907.5	5449	
907.66	5449	
907.83	5449	
907.99	5449	
908.15	5449	
908.32	5449	
908.48	5449	
908.65	5449	
908.81	5449	
908.97	5449	
909.14	5449	
909.3	5449	
909.47	5449	
909.63	5449	
909.79	5449	
909.96	5449	
910.12	5449	
910.28	5449	
910.45	5449	
910.61	5449	
910.78	5449	
910.94	5449	
911.1	5449	
911.27	5449	
911.43	5449	
911.59	5449	
911.76	5449	
911.92	5449	
912.08	5449	
912.25	5449	
912.41	5449	
912.57	5449	
912.74	5449	
912.9	5449	
913.07	5449	
913.23	5449	
913.39	5449	
913.56	5449	
913.72	5449	
913.88	5449	
914.05	5449	
914.21	5449	
914.37	5449	
914.54	5449	
914.7	5449	
914.86	5449	
915.03	5449	
915.19	5449	
