Wavelength	Intensities	
nm	a.u.	
179.22	1918.1	
179.44	1916.6	
179.65	1919.6	
179.86	1913.5	
180.08	1953.8	
180.29	5088.5	
180.51	3597.6	
180.72	5687.2	
180.94	6731	
181.15	3323.2	
181.37	3191.4	
181.58	5579.3	
181.79	5921.4	
182.01	3470.6	
182.22	3663.1	
182.44	5862	
182.65	4838.7	
182.87	4646.8	
183.08	4113	
183.29	6181.5	
183.51	5084.4	
183.72	3781.9	
183.94	5472.9	
184.15	5473.5	
184.37	5533.6	
184.58	3282.2	
184.79	4544.4	
185.01	5060.5	
185.22	5849.7	
185.44	4849.6	
185.65	4038.6	
185.86	5385.5	
186.08	4970.4	
186.29	3168.9	
186.51	3441.3	
186.72	5100.1	
186.94	6054.5	
187.15	3978.5	
187.36	4138.3	
187.58	7923.6	
187.79	5642.2	
188.01	4338.3	
188.22	6756.9	
188.43	6803.4	
188.65	5769.1	
188.86	3395.5	
189.08	4074.1	
189.29	5303.6	
189.5	5298.1	
189.72	3818.8	
189.93	3876.1	
190.15	6110.5	
190.36	7374.1	
190.57	4164.2	
190.79	4133.5	
191	6176.7	
191.22	6110.5	
191.43	4187.4	
191.64	3429.7	
191.86	6317.3	
192.07	6151.4	
192.29	3636.5	
192.5	3827.7	
192.71	6083.1	
192.93	5203.2	
193.14	3801	
193.35	3822.2	
193.57	5212.8	
193.78	6081.1	
194	3050.8	
194.21	3778.5	
194.42	5018.9	
194.64	5505.6	
194.85	4136.2	
195.07	4900.1	
195.28	5576.6	
195.49	4834.6	
195.71	5143.8	
195.92	3620.1	
196.13	5683.1	
196.35	5826.5	
196.56	5419.6	
196.78	4140.3	
196.99	7212.9	
197.2	6763.1	
197.42	4695.3	
197.63	4168.3	
197.84	4933.6	
198.06	5737.7	
198.27	3819.5	
198.48	5092.6	
198.7	5275.6	
198.91	5362.3	
199.13	4152.6	
199.34	4184.7	
199.55	5931.6	
199.77	4803.9	
199.98	3663.1	
200.19	4229.7	
200.41	5299.5	
200.62	5026.4	
200.83	4412	
201.05	4665.3	
201.26	5347.9	
201.47	5093.3	
201.69	3663.1	
201.9	3541.6	
202.11	5518.6	
202.33	6554.9	
202.54	3970.3	
202.76	4352.6	
202.97	5623	
203.18	5567.1	
203.4	4376.5	
203.61	4254.3	
203.82	5565	
204.04	5159.5	
204.25	4193.6	
204.46	4124.6	
204.68	5511.8	
204.89	5779.4	
205.1	4068.6	
205.32	3560.7	
205.53	5992.4	
205.74	6070.2	
205.96	3005.1	
206.17	4272.7	
206.38	5941.8	
206.6	6042.9	
206.81	4784.7	
207.02	3888.4	
207.24	5744.6	
207.45	6229.2	
207.66	3921.9	
207.88	3353.9	
208.09	5715.2	
208.3	5526.8	
208.52	3616	
208.73	4052.9	
208.94	5507.7	
209.15	6221	
209.37	3967.6	
209.58	4220.9	
209.79	6018.3	
210.01	5325.4	
210.22	3152.5	
210.43	3308.8	
210.65	5578	
210.86	5957.5	
211.07	4001	
211.29	3624.2	
211.5	5908.4	
211.71	5435.3	
211.93	3658.4	
212.14	3672.7	
212.35	5399.8	
212.56	5706.3	
212.78	4209.3	
212.99	3465.2	
213.2	6477	
213.42	5300.1	
213.63	3758	
213.84	4097.3	
214.06	4830.5	
214.27	4970.4	
214.48	3944.4	
214.69	4214	
214.91	6210.1	
215.12	6338.5	
215.33	4253.6	
215.55	4704.9	
215.76	6799.9	
215.97	5879.7	
216.18	4101.4	
216.4	4001	
216.61	5121.3	
216.82	6025.8	
217.04	3710.9	
217.25	3779.2	
217.46	6209.4	
217.67	5968.5	
217.89	3271.3	
218.1	3360	
218.31	5591	
218.53	5698.8	
218.74	3852.9	
218.95	3704.8	
219.16	5409.4	
219.38	6419	
219.59	3743.7	
219.8	4396.3	
220.01	7169.3	
220.23	5547.9	
220.44	4960.9	
220.65	3620.8	
220.87	5556.1	
221.08	6183.5	
221.29	3345.7	
221.5	4504.8	
221.72	7594.6	
221.93	5255.8	
222.14	4191.5	
222.35	4905.6	
222.57	5531.6	
222.78	5851.7	
222.99	3964.9	
223.2	4342.4	
223.42	5801.2	
223.63	5937.7	
223.84	3080.1	
224.05	2998.9	
224.27	7123.5	
224.48	6442.2	
224.69	5008	
224.9	4197	
225.12	5694.7	
225.33	5498.1	
225.54	3347.1	
225.75	3699.3	
225.97	5059.2	
226.18	5384.1	
226.39	4020.2	
226.6	3748.5	
226.82	5251.7	
227.03	5102.2	
227.24	4149.2	
227.45	3411.2	
227.67	5846.3	
227.88	6485.2	
228.09	4681.7	
228.3	4715.1	
228.52	5941.8	
228.73	5528.2	
228.94	3855.6	
229.15	3394.8	
229.36	5375.2	
229.58	5345.2	
229.79	3922.5	
230	4586.8	
230.21	6562.4	
230.43	5521.3	
230.64	4105.5	
230.85	4371	
231.06	5883.8	
231.28	5933	
231.49	3455.6	
231.7	4004.5	
231.91	5853.8	
232.12	5540.4	
232.34	3469.9	
232.55	4020.2	
232.76	6169.2	
232.97	5727.5	
233.18	3654.9	
233.4	4156	
233.61	5745.9	
233.82	5212.1	
234.03	3805.1	
234.25	3781.9	
234.46	7785.7	
234.67	5542.5	
234.88	4251.6	
235.09	3714.3	
235.31	5842.9	
235.52	5457.2	
235.73	4162.8	
235.94	3459	
236.15	5181.4	
236.37	6723.5	
236.58	3672.7	
236.79	4024.9	
237	5812.8	
237.21	4969.1	
237.43	4315.8	
237.64	3345.7	
237.85	10126	
238.06	5099.4	
238.27	4350.6	
238.48	3447.4	
238.7	5876.3	
238.91	5340.4	
239.12	3995.6	
239.33	4023.6	
239.54	5244.8	
239.76	5429.8	
239.97	3951.9	
240.18	3999	
240.39	6975.4	
240.6	5800.5	
240.82	4112.3	
241.03	3430.3	
241.24	5489.9	
241.45	6497.5	
241.66	3612.6	
241.87	4318.5	
242.09	6240.8	
242.3	6689.3	
242.51	4364.2	
242.72	3999.7	
242.93	5995.8	
243.14	5482.4	
243.36	4600.4	
243.57	5055.1	
243.78	6397.9	
243.99	5926.1	
244.2	4060.4	
244.41	3627.6	
244.63	5030.5	
244.84	5795.8	
245.05	4263.2	
245.26	3985.3	
245.47	5815.5	
245.68	6107	
245.9	5292.6	
246.11	4178.5	
246.32	5327.4	
246.53	5770.5	
246.74	6574.7	
246.95	3341.6	
247.16	4938.3	
247.38	5530.2	
247.59	3343	
247.8	4033.8	
248.01	5175.2	
248.22	5439.4	
248.43	3639.2	
248.64	3893.9	
248.86	4846.2	
249.07	5251	
249.28	3539.6	
249.49	4111	
249.7	6107	
249.91	6208.8	
250.12	3356.6	
250.34	3415.3	
250.55	5618.3	
250.76	5575.3	
250.97	4103.4	
251.18	4144.4	
251.39	6253.8	
251.6	5739.8	
251.81	4268.6	
252.03	4239.3	
252.24	5243.5	
252.45	6051.7	
252.66	3478.8	
252.87	4491.9	
253.08	5558.2	
253.29	7304.4	
253.5	3472.7	
253.72	4882.4	
253.93	5380.7	
254.14	6582.2	
254.35	3751.2	
254.56	3910.3	
254.77	5774.6	
254.98	5154.7	
255.19	3746.4	
255.41	4835.9	
255.62	5606.7	
255.83	6191	
256.04	4311.7	
256.25	4289.1	
256.46	6765.1	
256.67	5111.7	
256.88	4115.7	
257.09	4646.8	
257.31	5180.7	
257.52	5188.9	
257.73	5221.6	
257.94	3762.8	
258.15	5283.1	
258.36	5570.5	
258.57	4876.2	
258.78	3044.6	
258.99	6042.9	
259.2	5344.5	
259.41	3848.8	
259.63	3919.8	
259.84	6455.2	
260.05	6877.1	
260.26	5022.3	
260.47	3711.6	
260.68	6128.2	
260.89	5429.8	
261.1	4613.4	
261.31	3635.8	
261.52	6123.4	
261.73	6520.7	
261.95	4919.9	
262.16	4282.3	
262.37	6267.5	
262.58	6376	
262.79	4999.1	
263	3844.7	
263.21	5561.6	
263.42	5057.8	
263.63	3925.3	
263.84	3831.7	
264.05	6032	
264.26	6488.6	
264.47	4809.3	
264.69	4323.9	
264.9	6252.4	
265.11	5792.3	
265.32	3698.6	
265.53	3797.6	
265.74	5617.6	
265.95	4879.6	
266.16	4050.9	
266.37	4561.5	
266.58	5646.2	
266.79	5377.3	
267	3727.3	
267.21	3487.7	
267.42	5087.8	
267.63	5488.6	
267.84	4005.8	
268.06	3439.9	
268.27	5952.8	
268.48	6283.2	
268.69	3897.3	
268.9	4591.5	
269.11	6181.5	
269.32	4962.2	
269.53	3949.8	
269.74	3752.6	
269.95	5892	
270.16	4808.6	
270.37	3979.2	
270.58	4693.9	
270.79	5380	
271	6025.1	
271.21	4328	
271.42	4108.9	
271.63	5601.9	
271.84	5144.5	
272.05	3224.9	
272.26	3618.1	
272.47	5510.4	
272.68	5711.1	
272.89	3831.1	
273.11	4482.3	
273.32	5347.9	
273.53	6531	
273.74	4325.3	
273.95	4198.3	
274.16	6180.8	
274.37	5577.3	
274.58	4413.4	
274.79	3482.9	
275	5612.1	
275.21	6272.9	
275.42	5250.3	
275.63	4527.4	
275.84	5760.3	
276.05	7363.1	
276.26	4199	
276.47	3995.6	
276.68	5339.1	
276.89	6597.9	
277.1	4526.7	
277.31	3461.1	
277.52	5814.9	
277.73	5967.8	
277.94	3467.9	
278.15	3887	
278.36	5744.6	
278.57	5161.6	
278.78	3795.6	
278.99	4325.3	
279.2	5107.6	
279.41	5075.5	
279.62	5010	
279.83	3590.8	
280.04	6784.2	
280.25	5003.9	
280.46	5043.5	
280.67	4052.2	
280.88	5113.1	
281.09	6221	
281.3	4197	
281.51	5373.2	
281.72	6049	
281.93	6036	
282.14	3740.3	
282.35	4008.6	
282.56	6055.2	
282.77	6030.6	
282.98	3870.7	
283.19	4823	
283.4	7488.1	
283.61	5444.9	
283.82	3521.8	
284.03	4990.9	
284.24	5638.7	
284.45	6212.2	
284.66	4941.1	
284.87	4737	
285.08	6095.4	
285.29	6296.1	
285.5	3444	
285.71	3947.8	
285.92	6199.9	
286.12	6866.8	
286.33	4885.1	
286.54	3881.6	
286.75	6059.3	
286.96	5413.5	
287.17	3559.4	
287.38	4924	
287.59	5137.7	
287.8	5041.4	
288.01	3942.3	
288.22	4525.3	
288.43	5595.7	
288.64	5044.1	
288.85	4607.2	
289.06	4470.7	
289.27	6027.2	
289.48	6461.3	
289.69	4930.1	
289.9	4470.7	
290.11	6200.6	
290.32	5196.4	
290.53	4735.6	
290.74	4393.6	
290.94	6035.4	
291.15	6124.8	
291.36	3795.6	
291.57	4462.5	
291.78	5284.4	
291.99	4952	
292.2	3566.2	
292.41	4404.5	
292.62	6070.2	
292.83	5827.2	
293.04	5392.3	
293.25	3614.7	
293.46	5315.8	
293.67	6118	
293.88	3732.8	
294.09	3620.1	
294.29	5098.1	
294.5	5668.8	
294.71	4029	
294.92	3874.1	
295.13	5351.3	
295.34	6719.4	
295.55	3358.7	
295.76	3450.8	
295.97	5928.2	
296.18	6829.3	
296.39	3530.7	
296.6	3777.1	
296.81	5608.7	
297.01	5959.6	
297.22	3898.6	
297.43	3730.7	
297.64	5175.2	
297.85	5155.4	
298.06	3066.5	
298.27	3336.8	
298.48	5612.1	
298.69	5215.5	
298.9	4057	
299.11	3670.6	
299.31	5003.2	
299.52	4997.7	
299.73	4391.5	
299.94	4279.6	
300.15	5526.8	
300.36	5104.9	
300.57	4334.2	
300.78	4330.8	
300.99	5390.3	
301.2	5688.6	
301.4	3750.5	
301.61	4107.5	
301.82	5904.3	
302.03	5983.5	
302.24	4543.1	
302.45	3586	
302.66	5874.3	
302.87	6330.3	
303.08	3750.5	
303.29	5148.6	
303.49	5229.1	
303.7	5520	
303.91	3342.3	
304.12	4915.8	
304.33	5052.3	
304.54	5642.8	
304.75	3785.3	
304.96	3553.2	
305.16	5808	
305.37	6580.8	
305.58	3246	
305.79	3404.4	
306	5919.3	
306.21	4908.3	
306.42	3818.1	
306.63	5872.2	
306.83	5409.4	
307.04	6154.8	
307.25	4173.8	
307.46	4098.7	
307.67	4695.3	
307.88	6005.3	
308.09	3695.9	
308.29	3827	
308.5	5582.8	
308.71	6137.8	
308.92	4005.1	
309.13	3610.6	
309.34	5337.7	
309.55	5427.1	
309.75	4707.6	
309.96	4307.6	
310.17	5916.6	
310.38	5244.8	
310.59	4491.2	
310.8	3474.7	
311.01	5375.2	
311.21	5386.2	
311.42	3565.5	
311.63	3752.6	
311.84	5260.5	
312.05	5606.7	
312.26	4156.7	
312.46	4603.8	
312.67	5380.7	
312.88	5059.2	
313.09	3631.7	
313.3	3496.6	
313.51	6411.5	
313.71	6740.5	
313.92	3588.7	
314.13	3818.1	
314.34	5722	
314.55	5432.6	
314.76	4699.4	
314.96	4048.2	
315.17	5517.9	
315.38	5973.2	
315.59	3650.2	
315.8	3456.3	
316.01	6442.9	
316.21	6493.4	
316.42	3478.8	
316.63	4019.5	
316.84	5386.2	
317.05	6309.1	
317.26	4313.7	
317.46	3820.8	
317.67	5468.1	
317.88	5952.1	
318.09	4587.4	
318.3	3321.8	
318.5	5198.4	
318.71	5867.4	
318.92	5988.9	
319.13	4280.3	
319.34	6064.7	
319.54	6198.5	
319.75	3323.2	
319.96	3230.3	
320.17	5911.1	
320.38	6137.1	
320.58	3297.2	
320.79	4021.5	
321	6146.6	
321.21	6236.7	
321.42	3981.9	
321.62	3285.6	
321.83	5091.3	
322.04	5573.2	
322.25	3808.5	
322.46	3629	
322.66	5640.8	
322.87	5789.6	
323.08	4476.2	
323.29	3564.8	
323.5	6650.4	
323.7	5003.9	
323.91	4992.9	
324.12	4463.9	
324.33	5592.3	
324.53	5849	
324.74	4221.5	
324.95	4502.8	
325.16	4941.1	
325.37	5328.1	
325.57	3641.3	
325.78	3678.8	
325.99	5629.2	
326.2	4997.7	
326.4	5228.5	
326.61	3338.9	
326.82	5492.7	
327.03	5635.3	
327.24	5145.2	
327.44	5001.1	
327.65	5855.1	
327.86	4617.5	
328.07	4250.9	
328.27	3490.4	
328.48	6285.2	
328.69	5114.5	
328.9	5264	
329.1	3900.7	
329.31	5432.6	
329.52	6406.7	
329.73	3622.9	
329.93	4136.9	
330.14	5456.5	
330.35	5803.3	
330.56	6065.4	
330.76	4496	
330.97	5350	
331.18	5711.8	
331.39	4016.7	
331.59	3225.6	
331.8	6158.9	
332.01	6333	
332.22	3727.3	
332.42	4300.1	
332.63	5668.1	
332.84	5208.7	
333.05	4078.2	
333.25	3658.4	
333.46	5285.1	
333.67	5557.5	
333.88	3788.1	
334.08	4235.9	
334.29	7426.6	
334.5	6243.6	
334.7	3533.4	
334.91	5253	
335.12	5087.8	
335.33	6019	
335.53	4007.9	
335.74	6069.5	
335.95	5268.1	
336.16	5124.7	
336.36	4016.7	
336.57	4668	
336.78	5057.8	
336.98	6163	
337.19	5021.6	
337.4	3949.8	
337.61	6713.9	
337.81	5094	
338.02	3681.6	
338.23	4877.6	
338.43	6302.3	
338.64	5139.7	
338.85	3662.5	
339.05	4847.5	
339.26	6428.6	
339.47	4980.7	
339.68	3631	
339.88	5440.8	
340.09	5773.9	
340.3	6072.9	
340.5	4283.7	
340.71	3244.7	
340.92	4945.8	
341.13	6337.8	
341.33	3547.1	
341.54	4277.5	
341.75	5812.8	
341.95	5404.6	
342.16	4095.3	
342.37	4478.9	
342.57	5066	
342.78	5486.5	
342.99	4505.5	
343.19	3241.3	
343.4	5960.3	
343.61	5844.2	
343.81	3859.1	
344.02	3578.5	
344.23	5978.7	
344.43	6363	
344.64	4526.7	
344.85	4426.3	
345.06	5825.1	
345.26	6127.5	
345.47	4240.7	
345.68	4915.1	
345.88	4852.3	
346.09	5985.5	
346.3	4344.4	
346.5	3254.9	
346.71	5467.4	
346.92	5277.6	
347.12	3263.1	
347.33	4252.9	
347.54	6112.5	
347.74	6541.9	
347.95	4132.8	
348.16	3044.6	
348.36	5354.1	
348.57	5149.3	
348.78	4106.9	
348.98	4496	
349.19	5492.7	
349.39	4960.9	
349.6	3355.9	
349.81	3711.6	
350.01	5726.8	
350.22	5246.9	
350.43	4007.2	
350.63	4873.5	
350.84	5549.3	
351.05	5314.5	
351.25	3700	
351.46	3290.4	
351.67	6105.7	
351.87	5197.1	
352.08	3928.7	
352.29	4445.5	
352.49	6006.7	
352.7	5656.5	
352.9	3543	
353.11	4427.7	
353.32	6702.3	
353.52	5272.8	
353.73	3437.2	
353.94	4511.7	
354.14	5793	
354.35	5584.1	
354.55	3575.1	
354.76	3975.1	
354.97	5734.3	
355.17	5511.8	
355.38	3364.1	
355.59	4780	
355.79	5193.6	
356	5582.1	
356.2	4000.4	
356.41	3403.7	
356.62	4895.3	
356.82	5370.5	
357.03	4276.2	
357.24	3811.3	
357.44	5195	
357.65	5322.7	
357.85	5123.3	
358.06	4007.2	
358.27	4876.2	
358.47	5136.3	
358.68	3302	
358.88	4227	
359.09	5720	
359.3	6137.8	
359.5	4986.8	
359.71	4333.5	
359.91	6694.1	
360.12	5882.4	
360.33	4163.5	
360.53	4699.4	
360.74	5136.3	
360.94	5210	
361.15	4415.4	
361.36	3585.3	
361.56	5923.4	
361.77	5395	
361.97	4960.2	
362.18	3874.8	
362.38	5924.8	
362.59	4999.1	
362.8	3533.4	
363	3330	
363.21	4728.1	
363.41	5502.2	
363.62	4113	
363.83	5188.9	
364.03	5527.5	
364.24	6598.6	
364.44	5188.9	
364.65	5212.8	
364.85	5265.3	
365.06	4915.8	
365.27	3693.2	
365.47	3719.8	
365.68	6298.2	
365.88	5243.5	
366.09	4123.2	
366.29	3779.2	
366.5	5522	
366.71	5991.7	
366.91	5098.1	
367.12	4311.7	
367.32	6599.2	
367.53	5828.5	
367.73	4186	
367.94	5184.1	
368.14	5771.2	
368.35	6778.1	
368.56	4205.2	
368.76	3911.6	
368.97	5874.9	
369.17	7692.2	
369.38	3642	
369.58	3977.2	
369.79	4908.3	
369.99	6296.8	
370.2	5026.4	
370.4	4079.6	
370.61	5549.3	
370.82	6767.2	
371.02	3910.9	
371.23	3220.8	
371.43	4768.4	
371.64	6089.3	
371.84	3926	
372.05	5206.6	
372.25	7496.2	
372.46	5894.1	
372.66	3850.2	
372.87	3889.8	
373.07	5908.4	
373.28	7584.3	
373.48	4955.4	
373.69	4632.5	
373.9	5296.7	
374.1	5388.2	
374.31	4820.9	
374.51	4380.6	
374.72	6154.8	
374.92	4975.9	
375.13	5003.9	
375.33	4173.8	
375.54	5736.4	
375.74	5099.4	
375.95	4218.1	
376.15	5529.5	
376.36	5701.5	
376.56	5524.1	
376.77	4268.6	
376.97	4762.2	
377.18	6739.9	
377.38	5758.2	
377.59	5129.5	
377.79	3734.1	
378	5551.4	
378.2	5966.4	
378.41	3868.6	
378.61	3668.6	
378.82	6025.8	
379.02	5130.2	
379.23	3964.9	
379.43	5119.2	
379.64	6137.8	
379.84	5729.5	
380.05	3763.5	
380.25	3726.6	
380.46	5829.9	
380.66	5367.7	
380.87	5221	
381.07	5573.2	
381.28	6491.4	
381.48	5808.7	
381.69	3829	
381.89	3822.2	
382.1	4726.7	
382.3	5990.3	
382.51	5010.7	
382.71	5911.8	
382.91	5907	
383.12	6374.6	
383.32	4215.4	
383.53	4420.2	
383.73	5668.8	
383.94	5452.4	
384.14	4384	
384.35	3502	
384.55	5412.1	
384.76	5898.8	
384.96	4240	
385.17	4491.9	
385.37	5788.2	
385.58	5123.3	
385.78	4567.7	
385.98	3340.2	
386.19	5326.8	
386.39	5762.3	
386.6	4004.5	
386.8	4231.8	
387.01	5834.7	
387.21	5843.5	
387.42	4672.1	
387.62	5242.1	
387.83	5130.8	
388.03	5842.2	
388.23	4247.5	
388.44	5078.3	
388.64	4890.5	
388.85	4894	
389.05	4610	
389.26	5242.8	
389.46	6815.6	
389.67	6244.3	
389.87	4515.8	
390.07	4636.6	
390.28	5446.2	
390.48	5061.2	
390.69	3697.3	
390.89	4044.7	
391.1	5165	
391.3	6158.2	
391.5	5337	
391.71	5965.7	
391.91	5856.5	
392.12	6943.3	
392.32	5396.4	
392.53	4606.6	
392.73	5264	
392.93	5431.2	
393.14	4218.1	
393.34	5003.9	
393.55	6009.4	
393.75	5362.9	
393.95	4242	
394.16	4113.7	
394.36	5139	
394.57	5894.7	
394.77	3668.6	
394.98	4149.2	
395.18	5140.4	
395.38	5378	
395.59	5083.1	
395.79	3867.2	
396	5184.1	
396.2	5753.4	
396.4	4818.9	
396.61	4732.2	
396.81	5917.9	
397.02	5201.2	
397.22	5044.8	
397.42	5032.5	
397.63	5894.1	
397.83	5023	
398.04	3797.6	
398.24	4314.4	
398.44	5702.9	
398.65	4720.6	
398.85	3640.6	
399.05	3832.4	
399.26	4981.3	
399.46	6832.7	
399.67	4171.7	
399.87	3842	
400.07	5345.2	
400.28	5775.3	
400.48	4017.4	
400.69	5034.6	
400.89	5974.6	
401.09	6354.8	
401.3	3766.2	
401.5	5001.8	
401.7	6688.7	
401.91	6926.9	
402.11	4214.7	
402.32	4434.5	
402.52	6037.4	
402.72	5920.7	
402.93	4577.2	
403.13	3476.8	
403.33	6808.1	
403.54	5500.2	
403.74	4373.8	
403.94	5309.7	
404.15	5611.4	
404.35	6726.2	
404.56	4145.8	
404.76	6077.7	
404.96	6004	
405.17	5808	
405.37	5145.9	
405.57	4620.9	
405.78	6101.6	
405.98	5474.9	
406.18	4113.7	
406.39	5070.8	
406.59	6023.1	
406.79	5708.4	
407	3941.7	
407.2	4028.4	
407.4	5950	
407.61	6203.3	
407.81	4010.6	
408.01	6229.2	
408.22	4850.3	
408.42	6968.6	
408.62	4986.1	
408.83	4478.9	
409.03	5649	
409.23	5254.4	
409.44	4559.5	
409.64	4845.5	
409.84	6339.1	
410.05	6275.7	
410.25	4610	
410.45	4320.5	
410.66	5641.5	
410.86	8262.2	
411.06	4717.2	
411.27	4610	
411.47	7991.9	
411.67	5822.4	
411.88	4902.8	
412.08	5093.3	
412.28	6500.9	
412.49	6968.6	
412.69	4514.4	
412.89	4560.8	
413.09	6717.3	
413.3	6595.8	
413.5	4691.2	
413.7	4210.6	
413.91	5904.3	
414.11	6771.3	
414.31	4463.9	
414.52	4858.5	
414.72	6438.1	
414.92	6307.1	
415.12	4450.2	
415.33	5048.2	
415.53	6623.1	
415.73	6922.8	
415.94	5386.2	
416.14	4747.9	
416.34	5606	
416.55	5414.1	
416.75	6049.7	
416.95	5367.7	
417.15	6519.4	
417.36	7399.3	
417.56	6241.5	
417.76	5203.9	
417.97	7068.9	
418.17	6658.6	
418.37	4732.9	
418.57	4827.1	
418.78	6418.3	
418.98	6060.6	
419.18	5737.7	
419.38	5720	
419.59	6192.4	
419.79	5774.6	
419.99	4653.7	
420.2	5150.6	
420.4	6718	
420.6	6804	
420.8	4617.5	
421.01	4485.1	
421.21	6442.9	
421.41	6753.5	
421.61	5081.7	
421.82	4774.5	
422.02	6009.4	
422.22	6989	
422.42	5607.3	
422.63	5264.6	
422.83	6085.2	
423.03	7402.7	
423.23	5259.2	
423.44	4165.6	
423.64	6235.4	
423.84	6027.9	
424.04	4705.5	
424.25	4270.7	
424.45	7270.3	
424.65	7144	
424.85	4086.4	
425.06	4737	
425.26	7144	
425.46	5718.6	
425.66	5332.2	
425.87	4965	
426.07	6919.4	
426.27	6794.5	
426.47	5087.2	
426.67	4337.6	
426.88	7376.1	
427.08	6676.4	
427.28	5274.9	
427.48	4384.7	
427.69	5616.2	
427.89	6258.6	
428.09	5281.7	
428.29	4433.2	
428.5	7055.3	
428.7	6519.4	
428.9	4334.2	
429.1	4992.9	
429.3	6379.4	
429.51	6896.9	
429.71	4630.5	
429.91	5491.3	
430.11	6696.9	
430.31	6963.8	
430.52	4952.7	
430.72	5235.3	
430.92	7287.4	
431.12	6783.6	
431.32	4556	
431.53	5087.2	
431.73	5583.4	
431.93	7376.8	
432.13	4532.2	
432.33	4375.1	
432.54	6111.1	
432.74	6535.1	
432.94	4308.2	
433.14	5476.3	
433.34	6700.3	
433.55	6137.8	
433.75	5401.9	
433.95	7186.3	
434.15	6445	
434.35	6038.8	
434.56	4515.8	
434.76	3940.3	
434.96	6436.1	
435.16	6599.2	
435.36	4302.8	
435.56	5522.7	
435.77	5965.7	
435.97	6131.6	
436.17	6252.4	
436.37	5488.6	
436.57	5943.2	
436.78	5922.7	
436.98	7354.9	
437.18	6088.6	
437.38	6703	
437.58	6236.7	
437.78	6249.7	
437.99	4840	
438.19	6679.1	
438.39	7566.6	
438.59	4773.8	
438.79	4232.5	
438.99	7503.8	
439.2	6212.9	
439.4	4410.6	
439.6	4311.7	
439.8	6573.3	
440	7675.8	
440.2	5389.6	
440.4	5500.2	
440.61	6915.3	
440.81	7567.2	
441.01	4500.1	
441.21	5487.2	
441.41	7307.2	
441.61	6937.2	
441.81	5774.6	
442.02	6821.1	
442.22	7806.2	
442.42	6963.8	
442.62	4666	
442.82	4681.7	
443.02	7290.1	
443.22	6303	
443.43	5023.7	
443.63	4558.8	
443.83	6214.2	
444.03	6245.6	
444.23	5939.1	
444.43	5415.5	
444.63	6559.6	
444.83	7830.7	
445.04	4678.9	
445.24	6025.8	
445.44	6917.4	
445.64	7081.2	
445.84	5545.2	
446.04	5515.2	
446.24	6293.4	
446.44	7326.3	
446.65	4724	
446.85	5126.1	
447.05	6484.6	
447.25	7339.2	
447.45	5227.1	
447.65	4592.9	
447.85	6647.7	
448.05	6254.5	
448.25	5686.5	
448.46	5520.6	
448.66	6655.2	
448.86	6341.9	
449.06	4454.3	
449.26	5715.2	
449.46	7027.9	
449.66	6019.7	
449.86	5112.4	
450.06	5165	
450.26	6209.4	
450.47	6888.7	
450.67	5427.8	
450.87	5835.3	
451.07	6957.6	
451.27	6716	
451.47	4778.6	
451.67	5250.3	
451.87	6358.3	
452.07	7606.8	
452.27	4955.4	
452.47	4979.3	
452.67	6680.5	
452.88	7276.4	
453.08	4227.7	
453.28	6379.4	
453.48	7862.2	
453.68	6600.6	
453.88	4773.1	
454.08	5123.3	
454.28	7090.1	
454.48	6612.9	
454.68	5668.8	
454.88	6290.7	
455.08	7090.8	
455.28	6856.6	
455.48	4678.9	
455.68	5336.3	
455.89	7531.1	
456.09	7162.4	
456.29	5050.3	
456.49	5025.7	
456.69	7413.6	
456.89	6666.8	
457.09	5668.8	
457.29	5949.3	
457.49	6998.6	
457.69	7109.2	
457.89	5287.9	
458.09	4773.1	
458.29	6747.4	
458.49	7483.3	
458.69	5772.5	
458.89	5234.6	
459.09	7737.2	
459.29	7783	
459.49	5347.9	
459.69	6178.7	
459.9	7230.7	
460.1	6678.4	
460.3	5209.3	
460.5	4980.7	
460.7	7237.5	
460.9	6967.2	
461.1	4603.8	
461.3	5974.6	
461.5	7862.2	
461.7	7405.5	
461.9	4984.8	
462.1	5579.3	
462.3	6861.4	
462.5	7537.2	
462.7	5094.7	
462.9	5198.4	
463.1	8609.7	
463.3	8148.9	
463.5	5397.1	
463.7	6309.8	
463.9	7092.8	
464.1	7492.8	
464.3	5478.3	
464.5	5795.1	
464.7	7841	
464.9	7335.8	
465.1	7239.6	
465.3	6115.2	
465.5	8173.4	
465.7	8025.3	
465.9	6357.6	
466.1	6208.8	
466.3	7794.6	
466.5	7666.9	
466.7	7088	
466.9	6026.5	
467.1	7553.6	
467.3	8585.8	
467.5	7021.1	
467.7	5822.4	
467.9	8817.9	
468.1	9754.5	
468.3	6724.2	
468.5	7137.9	
468.7	7466.9	
468.9	7637.6	
469.1	6244.3	
469.3	6911.9	
469.5	9640.5	
469.7	7049.1	
469.9	6635.4	
470.1	5906.3	
470.3	7552.2	
470.5	7656.7	
470.7	7254.6	
470.9	6001.2	
471.1	7348.1	
471.3	7821.2	
471.5	5735	
471.69	7834.2	
471.89	7226.6	
472.09	6783.6	
472.29	6630	
472.49	7066.2	
472.69	7048.4	
472.89	7898.3	
473.09	5786.2	
473.29	5948.7	
473.49	7234.1	
473.69	7386.3	
473.89	6967.2	
474.09	6096.8	
474.29	8736.6	
474.49	8407.6	
474.69	6891.4	
474.89	6223.8	
475.09	7432.8	
475.29	7382.9	
475.49	5604.6	
475.69	5853.8	
475.88	9202.2	
476.08	7755.7	
476.28	5565	
476.48	6104.3	
476.68	8173.4	
476.88	8109.3	
477.08	5911.8	
477.28	6248.4	
477.48	7525.6	
477.68	8296.3	
477.88	5717.9	
478.08	6083.8	
478.28	8585.1	
478.48	7643.7	
478.67	6154.1	
478.87	5551.4	
479.07	8321.6	
479.27	7833.5	
479.47	6355.5	
479.67	6346.7	
479.87	8140	
480.07	8685.4	
480.27	5565.7	
480.47	7316.7	
480.67	7914.7	
480.87	8568.7	
481.06	5931.6	
481.26	6889.4	
481.46	7794.6	
481.66	7684.7	
481.86	6408.1	
482.06	7539.3	
482.26	7416.4	
482.46	8552.3	
482.66	6352.1	
482.86	5860.6	
483.05	7796.6	
483.25	7327.6	
483.45	8953	
483.65	6314.6	
483.85	7400	
484.05	7817.8	
484.25	6822.5	
484.45	7301	
484.65	8688.8	
484.84	8576.2	
485.04	6216.3	
485.24	6182.8	
485.44	8956.4	
485.64	7157.7	
485.84	5525.4	
486.04	6950.8	
486.24	7550.2	
486.44	8071	
486.63	5419.6	
486.83	6279.1	
487.03	7395.2	
487.23	7673.7	
487.43	5559.6	
487.63	8059.4	
487.83	7754.3	
488.02	8767.4	
488.22	6623.1	
488.42	7191.8	
488.62	8556.4	
488.82	7480.5	
489.02	6258.6	
489.22	6281.8	
489.41	8561.2	
489.61	8113.4	
489.81	6020.3	
490.01	6078.4	
490.21	8381.7	
490.41	9145.5	
490.61	5737.7	
490.8	6034.7	
491	7889.5	
491.2	7173.4	
491.4	6769.9	
491.6	5737.7	
491.8	7855.3	
491.99	8061.5	
492.19	5679	
492.39	6099.5	
492.59	8486.8	
492.79	8532.5	
492.99	7027.3	
493.18	6018.3	
493.38	8652	
493.58	9392	
493.78	6779.5	
493.98	6311.2	
494.18	8338	
494.37	7709.9	
494.57	6953.5	
494.77	6840.2	
494.97	8508.6	
495.17	8733.2	
495.37	6408.1	
495.56	6676.4	
495.76	8895	
495.96	8510	
496.16	7674.4	
496.36	6483.9	
496.55	8766.7	
496.75	8305.9	
496.95	7044.3	
497.15	6835.4	
497.35	8661.5	
497.54	8711.4	
497.74	6591.7	
497.94	8426	
498.14	9389.9	
498.34	9243.8	
498.53	6277.7	
498.73	7078.5	
498.93	8103.1	
499.13	8780.3	
499.33	6918	
499.52	7404.8	
499.72	8644.5	
499.92	9071.8	
500.12	6655.9	
500.32	6842.3	
500.51	8951	
500.71	8708	
500.91	7662.8	
501.11	7318.1	
501.31	8951.7	
501.5	9360.6	
501.7	8107.9	
501.9	6925.5	
502.1	8698.4	
502.29	9077.3	
502.49	7419.1	
502.69	7931.8	
502.89	8894.3	
503.09	8953	
503.28	6372.6	
503.48	6536.4	
503.68	8081.3	
503.88	8146.1	
504.07	7659.4	
504.27	7053.9	
504.47	8540	
504.67	8647.9	
504.86	7480.5	
505.06	7189.7	
505.26	8200.1	
505.46	10226	
505.65	7098.9	
505.85	7290.8	
506.05	8255.4	
506.25	8680	
506.44	6403.3	
506.64	7522.2	
506.84	8099	
507.04	9199.5	
507.23	6748.1	
507.43	7379.5	
507.63	10190	
507.83	8506.6	
508.02	7255.3	
508.22	6880.5	
508.42	10520	
508.62	8191.9	
508.81	7129	
509.01	7828	
509.21	8079.2	
509.4	8402.1	
509.6	7453.2	
509.8	6688	
510	8348.9	
510.19	9934.7	
510.39	6736.5	
510.59	6873.7	
510.79	8113.4	
510.98	9657.5	
511.18	6894.1	
511.38	6918	
511.57	8968.1	
511.77	8910.7	
511.97	7662.1	
512.17	6618.4	
512.36	9062.9	
512.56	9030.2	
512.76	6741.9	
512.95	6419	
513.15	9158.5	
513.35	7784.3	
513.55	7682.6	
513.74	6806.8	
513.94	9176.9	
514.14	8525	
514.33	7722.2	
514.53	7651.9	
514.73	8464.9	
514.92	8662.2	
515.12	6995.9	
515.32	6791.1	
515.51	8688.2	
515.71	9339.4	
515.91	8579.6	
516.11	6871.6	
516.3	10503	
516.5	8326.4	
516.7	7425.9	
516.89	8158.4	
517.09	8580.3	
517.29	8422.6	
517.48	7920.2	
517.68	7137.2	
517.88	8191.9	
518.07	8844.5	
518.27	7649.8	
518.47	6688.7	
518.66	9488.2	
518.86	8066.9	
519.06	6563.1	
519.25	7057.3	
519.45	8456.1	
519.65	9975.7	
519.84	7765.9	
520.04	8449.9	
520.24	10346	
520.43	9148.3	
520.63	7419.8	
520.83	7162.4	
521.02	8251.9	
521.22	9048.6	
521.42	7718.8	
521.61	8336.6	
521.81	8578.3	
522.01	8692.9	
522.2	7621.2	
522.4	7372	
522.6	9331.2	
522.79	8002.8	
522.99	7425.9	
523.18	6659.3	
523.38	9030.2	
523.58	9097.1	
523.77	8832.9	
523.97	6765.8	
524.17	10958	
524.36	10114	
524.56	8237.6	
524.76	7862.2	
524.95	9159.9	
525.15	8661.5	
525.34	7658	
525.54	7700.4	
525.74	9372.9	
525.93	8385.1	
526.13	8898.4	
526.33	7578.8	
526.52	9904	
526.72	9291	
526.91	8867.7	
527.11	8231.5	
527.31	9949	
527.5	10391	
527.7	8148.2	
527.89	7094.2	
528.09	8762.6	
528.29	9553.1	
528.48	8557.1	
528.68	8208.3	
528.87	9863	
529.07	9901.9	
529.27	8119.5	
529.46	7584.3	
529.66	9405.6	
529.85	9903.3	
530.05	7384.3	
530.25	8183	
530.44	11004	
530.64	9365.4	
530.83	7811	
531.03	8175.5	
531.23	9914.2	
531.42	9786.6	
531.62	8975.6	
531.81	8149.6	
532.01	10040	
532.21	10684	
532.4	7893.6	
532.6	8298.4	
532.79	10994	
532.99	10116	
533.18	8387.1	
533.38	9329.9	
533.58	9785.2	
533.77	10467	
533.97	8383	
534.16	9239.1	
534.36	10798	
534.55	9790.7	
534.75	9407.7	
534.95	8460.8	
535.14	10739	
535.34	9813.9	
535.53	8084.7	
535.73	10206	
535.92	11207	
536.12	9960.6	
536.31	8156.4	
536.51	9534	
536.71	10315	
536.9	9925.1	
537.1	8335.2	
537.29	8487.5	
537.49	10688	
537.68	9762.7	
537.88	8997.4	
538.07	8121.6	
538.27	10004	
538.46	11181	
538.66	7993.9	
538.86	8527.7	
539.05	10122	
539.25	10576	
539.44	8784.4	
539.64	8432.9	
539.83	9946.3	
540.03	11072	
540.22	8326.4	
540.42	8440.4	
540.61	10276	
540.81	10380	
541	8932.6	
541.2	9594.7	
541.39	9739.5	
541.59	10221	
541.78	9268.4	
541.98	8338.6	
542.18	9375.6	
542.37	9413.1	
542.57	8726.4	
542.76	9234.3	
542.96	9442.5	
543.15	10354	
543.35	8834.3	
543.54	8055.3	
543.74	10604	
543.93	10154	
544.13	8776.9	
544.32	9870.5	
544.52	10499	
544.71	9674.6	
544.91	7737.2	
545.1	9161.2	
545.3	9735.4	
545.49	10307	
545.69	7722.2	
545.88	8404.2	
546.08	11442	
546.27	11037	
546.47	8958.5	
546.66	8188.5	
546.86	10664	
547.05	11345	
547.24	8415.8	
547.44	8368	
547.63	9579.7	
547.83	10718	
548.02	8712.7	
548.22	8858.8	
548.41	9399.5	
548.61	10812	
548.8	8185	
549	8241	
549.19	10005	
549.39	10356	
549.58	7880.6	
549.78	8562.6	
549.97	10568	
550.17	9932.6	
550.36	9488.9	
550.55	10527	
550.75	9811.1	
550.94	10855	
551.14	8207.6	
551.33	8632.2	
551.53	9228.1	
551.72	10367	
551.92	8699.8	
552.11	8321.6	
552.31	10398	
552.5	10456	
552.69	10114	
552.89	7989.1	
553.08	10279	
553.28	10022	
553.47	8324.3	
553.67	9592.7	
553.86	11025	
554.06	9190.6	
554.25	7496.9	
554.44	8119.5	
554.64	11759	
554.83	11265	
555.03	8017.8	
555.22	8531.8	
555.42	10467	
555.61	10180	
555.8	8396	
556	8634.9	
556.19	9314.8	
556.39	10580	
556.58	8315.4	
556.78	8298.4	
556.97	10112	
557.16	9817.3	
557.36	9638.4	
557.55	7968	
557.75	9061.6	
557.94	10909	
558.13	8110.6	
558.33	7907.9	
558.52	10705	
558.72	9564.7	
558.91	7998.7	
559.1	8299.7	
559.3	9149.6	
559.49	8973.5	
559.69	7522.2	
559.88	8598.7	
560.07	10122	
560.27	10556	
560.46	8794	
560.66	8887.5	
560.85	9884.2	
561.04	8920.3	
561.24	7942.7	
561.43	8121.6	
561.63	9338.1	
561.82	9604.3	
562.01	9573.6	
562.21	8491.6	
562.4	9944.9	
562.59	11092	
562.79	8407.6	
562.98	8001.4	
563.18	10049	
563.37	11629	
563.56	8901.2	
563.76	7891.5	
563.95	9355.1	
564.14	9291	
564.34	8215.8	
564.53	8052.6	
564.73	10023	
564.92	10466	
565.11	8498.4	
565.31	7825.3	
565.5	10653	
565.69	9570.8	
565.89	8129.8	
566.08	8390.5	
566.27	10509	
566.47	10860	
566.66	9028.8	
566.85	7735.9	
567.05	10032	
567.24	9355.8	
567.44	8045.8	
567.63	9513.5	
567.82	10226	
568.02	10035	
568.21	8043.7	
568.4	8439	
568.6	9934.7	
568.79	9968.8	
568.98	7757.7	
569.18	7969.3	
569.37	9944.3	
569.56	12004	
569.76	8423.3	
569.95	9471.2	
570.14	10294	
570.34	10171	
570.53	7939.3	
570.72	7941.3	
570.91	10755	
571.11	9886.9	
571.3	8436.3	
571.49	9496.4	
571.69	9974.3	
571.88	9450.7	
572.07	9060.2	
572.27	8960.5	
572.46	9427.5	
572.65	10507	
572.85	8246.5	
573.04	8636.3	
573.23	10733	
573.43	10094	
573.62	7928.4	
573.81	8712.7	
574	10078	
574.2	9853.5	
574.39	8427.4	
574.58	8593.3	
574.78	10933	
574.97	10178	
575.16	8911.4	
575.36	9193.3	
575.55	10606	
575.74	10747	
575.93	7963.2	
576.13	9143.5	
576.32	9895.8	
576.51	10542	
576.71	8467.7	
576.9	9839.8	
577.09	10932	
577.28	10400	
577.48	8981	
577.67	7954.3	
577.86	10021	
578.05	10420	
578.25	8655.4	
578.44	8789.2	
578.63	10146	
578.83	11453	
579.02	7918.1	
579.21	9636.4	
579.4	10316	
579.6	10038	
579.79	8814.5	
579.98	11169	
580.17	10724	
580.37	10935	
580.56	8277.9	
580.75	9043.1	
580.94	11327	
581.14	11099	
581.33	9469.8	
581.52	8393.3	
581.71	10641	
581.91	11241	
582.1	8051.9	
582.29	8742.8	
582.48	10151	
582.68	10106	
582.87	9203.6	
583.06	8713.4	
583.25	10525	
583.45	10357	
583.64	9560.6	
583.83	10304	
584.02	10045	
584.21	10494	
584.41	9503.9	
584.6	8699.8	
584.79	10233	
584.98	11043	
585.18	8187.1	
585.37	8277.2	
585.56	9787.2	
585.75	10533	
585.94	8391.2	
586.14	9050	
586.33	11173	
586.52	10211	
586.71	8857.5	
586.91	8696.4	
587.1	9603.6	
587.29	10613	
587.48	8530.5	
587.67	8455.4	
587.87	10437	
588.06	10689	
588.25	9828.9	
588.44	9125.7	
588.63	10172	
588.83	10821	
589.02	8484.1	
589.21	8340	
589.4	9938.1	
589.59	9635	
589.78	7524.9	
589.98	7825.3	
590.17	9200.8	
590.36	9838.4	
590.55	7131	
590.74	8020.5	
590.94	11254	
591.13	9768.1	
591.32	7759.8	
591.51	7378.8	
591.7	10252	
591.89	9788.6	
592.09	7440.3	
592.28	8029.4	
592.47	8962.6	
592.66	10863	
592.85	7559.7	
593.05	7812.3	
593.24	9522.4	
593.43	10423	
593.62	7809.6	
593.81	8342.1	
594	9519.6	
594.19	9882.1	
594.39	7687.4	
594.58	7542.7	
594.77	9964.7	
594.96	10594	
595.15	7623.2	
595.34	8301.8	
595.54	9953.8	
595.73	9002.9	
595.92	6984.9	
596.11	8153.6	
596.3	10393	
596.49	9157.2	
596.68	7989.1	
596.88	8509.3	
597.07	10247	
597.26	8823.3	
597.45	7430	
597.64	8692.9	
597.83	9262.3	
598.02	9955.9	
598.22	7471	
598.41	8238.3	
598.6	9635	
598.79	8970.1	
598.98	7490.1	
599.17	8575.5	
599.36	9657.5	
599.55	10988	
599.74	9663	
599.94	9324.4	
600.13	10275	
600.32	8909.3	
600.51	7290.8	
600.7	7444.4	
600.89	10790	
601.08	10867	
601.27	7203.4	
601.47	8183.7	
601.66	10155	
601.85	10885	
602.04	7972.1	
602.23	8169.3	
602.42	9179	
602.61	9768.8	
602.8	7799.3	
602.99	7606.2	
603.18	9471.9	
603.37	9800.2	
603.57	8219.9	
603.76	8856.8	
603.95	10482	
604.14	10064	
604.33	7701	
604.52	8066.9	
604.71	9710.8	
604.9	9321	
605.09	8645.8	
605.28	8497.7	
605.47	10273	
605.66	10106	
605.86	8235.6	
606.05	7568.6	
606.24	10286	
606.43	8854.7	
606.62	8064.9	
606.81	8817.9	
607	10057	
607.19	9420	
607.38	7435.5	
607.57	7754.3	
607.76	9195.4	
607.95	8588.5	
608.14	8173.4	
608.33	8675.9	
608.52	9243.2	
608.72	10001	
608.91	7279.8	
609.1	7157.7	
609.29	9299.8	
609.48	8771.5	
609.67	8270.4	
609.86	7335.8	
610.05	8876.6	
610.24	9214.5	
610.43	7111.2	
610.62	6763.1	
610.81	10441	
611	10142	
611.19	7264.8	
611.38	7972.1	
611.57	9560.6	
611.76	10856	
611.95	7063.4	
612.14	6938.5	
612.33	9314.8	
612.52	8819.9	
612.71	7628.7	
612.9	6723.5	
613.09	8456.1	
613.28	10957	
613.47	7237.5	
613.66	8346.8	
613.85	9434.3	
614.04	8891.6	
614.24	7369.3	
614.43	6563.7	
614.62	9497.8	
614.81	9488.9	
615	8120.9	
615.19	8031.5	
615.38	8783.1	
615.57	9267.7	
615.76	7871.7	
615.95	8933.2	
616.14	9590	
616.33	9155.1	
616.52	8240.3	
616.71	8423.3	
616.9	9587.2	
617.09	9383.1	
617.28	7480.5	
617.47	8852.7	
617.66	8653.4	
617.85	8654.7	
618.04	8611.7	
618.22	7996.6	
618.41	8999.5	
618.6	9958.6	
618.79	7831.4	
618.98	7536.5	
619.17	10335	
619.36	8630.1	
619.55	7730.4	
619.74	7746.1	
619.93	9513.5	
620.12	8934.6	
620.31	8377.6	
620.5	8602.8	
620.69	10299	
620.88	10638	
621.07	9278.7	
621.26	8193.2	
621.45	9701.2	
621.64	9838.4	
621.83	8394.6	
622.02	7468.3	
622.21	9884.9	
622.4	9682.8	
622.59	8976.9	
622.78	8674.5	
622.97	9221.3	
623.16	10236	
623.35	8355	
623.54	7457.3	
623.72	9336	
623.91	9557.2	
624.1	8703.2	
624.29	7238.2	
624.48	10705	
624.67	9904.7	
624.86	8529.1	
625.05	7514	
625.24	10836	
625.43	9101.9	
625.62	10315	
625.81	7755	
626	10231	
626.19	9519	
626.38	8591.2	
626.56	7967.3	
626.75	9331.2	
626.94	10118	
627.13	8576.9	
627.32	7264.1	
627.51	10012	
627.7	11288	
627.89	7428.7	
628.08	8596.7	
628.27	9149	
628.46	9423.4	
628.65	7789.1	
628.83	7329.7	
629.02	10025	
629.21	9172.2	
629.4	8136.6	
629.59	8391.2	
629.78	9169.4	
629.97	10151	
630.16	8358.4	
630.35	7884.7	
630.54	10647	
630.72	10293	
630.91	7929.1	
631.1	8491.6	
631.29	9778.4	
631.48	9960	
631.67	8494.3	
631.86	7955	
632.05	9344.9	
632.24	9487.6	
632.42	7607.5	
632.61	8365.3	
632.8	9557.9	
632.99	9114.8	
633.18	8368	
633.37	8678.6	
633.56	9798.8	
633.75	9621.4	
633.93	8302.5	
634.12	7908.6	
634.31	10637	
634.5	10302	
634.69	7944.1	
634.88	8500.4	
635.07	9394.7	
635.25	10184	
635.44	8974.2	
635.63	9100.5	
635.82	9334.6	
636.01	8871.8	
636.2	8767.4	
636.39	8340	
636.57	10565	
636.76	10206	
636.95	7651.9	
637.14	9211.1	
637.33	9848.7	
637.52	10873	
637.7	7436.2	
637.89	8496.3	
638.08	9420	
638.27	10952	
638.46	8605.6	
638.65	9140.8	
638.83	10869	
639.02	9123.7	
639.21	8501.1	
639.4	8970.8	
639.59	9711.5	
639.78	9121.7	
639.96	7631.4	
640.15	7667.6	
640.34	9493.7	
640.53	9760.6	
640.72	7311.9	
640.91	7734.5	
641.09	8922.3	
641.28	10358	
641.47	7670.3	
641.66	8686.8	
641.85	9575.6	
642.03	9871.2	
642.22	8399.4	
642.41	7844.4	
642.6	9023.4	
642.79	8429.4	
642.97	7532.4	
643.16	8349.6	
643.35	9007.6	
643.54	8655.4	
643.73	7452.6	
643.91	8301.1	
644.1	8516.8	
644.29	9213.8	
644.48	7577.5	
644.67	7556.3	
644.85	8824.7	
645.04	9056.1	
645.23	7056.6	
645.42	7401.4	
645.6	8662.9	
645.79	9863	
645.98	7327.6	
646.17	6374.6	
646.36	8295	
646.54	8926.4	
646.73	8172.8	
646.92	6919.4	
647.11	8508.6	
647.29	9697.8	
647.48	6995.9	
647.67	6695.5	
647.86	9870.5	
648.05	9818	
648.23	7303.1	
648.42	8698.4	
648.61	9106.6	
648.8	9020.6	
648.98	6967.2	
649.17	7309.2	
649.36	8425.3	
649.55	7969.3	
649.73	7093.5	
649.92	7838.3	
650.11	8341.4	
650.3	8764.6	
650.48	7148.8	
650.67	6922.8	
650.86	9075.2	
651.05	7808.2	
651.23	7100.3	
651.42	7052.5	
651.61	8479.3	
651.79	8566.7	
651.98	7273.7	
652.17	6836.8	
652.36	8921	
652.54	7944.1	
652.73	6938.5	
652.92	6653.2	
653.11	8887.5	
653.29	8980.3	
653.48	6139.1	
653.67	7230.7	
653.85	8643.8	
654.04	9688.3	
654.23	7361.1	
654.42	6855.9	
654.6	8137.3	
654.79	8783.1	
654.98	6274.3	
655.16	6795.8	
655.35	7635.5	
655.54	7654.6	
655.73	6326.9	
655.91	6272.9	
656.1	8858.8	
656.29	7668.3	
656.47	5847.6	
656.66	7765.2	
656.85	7900.4	
657.03	7974.8	
657.22	6451.8	
657.41	6524.8	
657.59	8068.3	
657.78	7775.5	
657.97	6186.9	
658.16	6949.4	
658.34	8747.6	
658.53	9164.7	
658.72	7873.1	
658.9	8368	
659.09	8091.5	
659.28	8196	
659.46	6692.8	
659.65	6617.7	
659.84	7922.2	
660.02	8409	
660.21	6463.4	
660.4	6419	
660.58	8948.3	
660.77	8227.4	
660.96	7103	
661.14	6048.3	
661.33	9426.8	
661.52	9259.5	
661.7	6041.5	
661.89	10060	
662.08	7804.8	
662.26	7389.1	
662.45	6316.6	
662.64	6434.7	
662.82	8530.5	
663.01	7660.8	
663.2	6378.7	
663.38	7268.9	
663.57	8417.2	
663.75	8303.8	
663.94	6717.3	
664.13	8198	
664.31	7749.5	
664.5	8538.7	
664.69	7107.1	
664.87	7587.7	
665.06	7550.2	
665.25	8260.8	
665.43	7828.7	
665.62	7887.4	
665.8	8530.5	
665.99	7957	
666.18	6703	
666.36	6822.5	
666.55	8568.7	
666.74	8464.9	
666.92	6241.5	
667.11	8105.9	
667.29	7813	
667.48	8457.4	
667.67	7604.8	
667.85	6780.1	
668.04	7941.3	
668.22	7968	
668.41	6711.9	
668.6	6925.5	
668.78	7645.1	
668.97	7949.5	
669.15	7185	
669.34	6004	
669.53	7656	
669.71	8070.4	
669.9	6238.1	
670.08	6929	
670.27	7706.5	
670.46	8354.3	
670.64	7150.8	
670.83	7476.5	
671.01	7607.5	
671.2	8246.5	
671.38	6270.9	
671.57	6206	
671.76	8946.2	
671.94	9508.7	
672.13	6132.3	
672.31	7233.4	
672.5	8398.7	
672.69	7692.2	
672.87	6331	
673.06	6661.4	
673.24	8223.3	
673.43	7705.8	
673.61	7170.6	
673.8	6716	
673.98	8393.3	
674.17	8662.9	
674.36	7178.1	
674.54	7044.3	
674.73	8148.9	
674.91	8447.2	
675.1	6795.8	
675.28	6436.1	
675.47	8003.5	
675.65	8520.2	
675.84	6683.2	
676.03	7029.3	
676.21	7713.3	
676.4	7265.5	
676.58	7452.6	
676.77	7224.6	
676.95	9316.2	
677.14	7593.2	
677.32	6292	
677.51	6067.4	
677.69	8519.5	
677.88	7312.6	
678.06	6159.6	
678.25	6333	
678.44	7968	
678.62	7731.8	
678.81	5995.1	
678.99	7018.4	
679.18	8854.7	
679.36	8437.6	
679.55	6582.9	
679.73	7306.5	
679.92	8408.3	
680.1	7684	
680.29	7869.7	
680.47	6654.5	
680.66	7701	
680.84	8525	
681.03	5896.8	
681.21	7081.9	
681.4	7757.7	
681.58	7629.4	
681.77	6376	
681.95	6358.3	
682.14	8623.3	
682.32	9075.9	
682.51	7300.3	
682.69	6111.8	
682.88	7634.8	
683.06	8415.8	
683.25	7017	
683.43	7572	
683.62	7965.9	
683.8	8380.3	
683.99	7641	
684.17	6767.9	
684.36	9269.8	
684.54	7854	
684.73	5923.4	
684.91	6177.4	
685.1	8148.9	
685.28	7576.8	
685.46	6790.4	
685.65	6864.8	
685.83	8430.8	
686.02	7826	
686.2	6274.3	
686.39	6494.1	
686.57	7373.4	
686.76	9113.5	
686.94	6346	
687.13	6537.8	
687.31	8376.2	
687.5	7814.4	
687.68	5971.9	
687.86	7306.5	
688.05	9624.1	
688.23	7389.8	
688.42	7428.7	
688.6	6502.3	
688.79	7766.6	
688.97	7833.5	
689.16	7002.7	
689.34	5821.7	
689.52	8703.9	
689.71	8896.4	
689.89	7293.5	
690.08	6526.2	
690.26	8127	
690.45	7988.4	
690.63	7547.4	
690.81	6718	
691	7871	
691.18	7819.1	
691.37	6854.6	
691.55	9207.7	
691.74	7830.7	
691.92	10019	
692.1	6888	
692.29	6330.3	
692.47	8052.6	
692.66	7280.5	
692.84	6580.1	
693.02	7186.3	
693.21	7541.3	
693.39	8061.5	
693.58	7266.2	
693.76	6728.9	
693.94	9324.4	
694.13	9194	
694.31	6749.4	
694.5	7953.6	
694.68	8026	
694.86	8266.3	
695.05	7119.4	
695.23	7318.1	
695.42	8795.3	
695.6	11194	
695.78	7888.8	
695.97	6855.2	
696.15	8842.4	
696.34	8238.3	
696.52	6647	
696.7	7587	
696.89	8614.4	
697.07	7998	
697.25	7470.3	
697.44	9151.7	
697.62	8626.7	
697.81	9030.9	
697.99	7127.6	
698.17	7808.9	
698.36	7938.6	
698.54	8744.8	
698.72	7552.2	
698.91	6569.2	
699.09	8213.7	
699.28	8120.2	
699.46	7256	
699.64	7122.2	
699.83	7985.7	
700.01	9402.2	
700.19	7975.5	
700.38	6331.6	
700.56	9469.8	
700.74	8199.4	
700.93	6831.3	
701.11	7666.2	
701.29	8856.1	
701.48	10050	
701.66	7092.8	
701.84	7042.3	
702.03	8412.4	
702.21	9157.2	
702.39	6675.7	
702.58	7345.4	
702.76	8886.8	
702.94	9045.2	
703.13	6724.8	
703.31	9385.2	
703.49	8158.4	
703.68	9847.3	
703.86	6893.5	
704.04	8073.1	
704.23	8699.1	
704.41	9263	
704.59	7163.1	
704.78	8473.8	
704.96	10026	
705.14	9436.4	
705.33	6934.4	
705.51	7901.7	
705.69	8572.8	
705.87	9514.9	
706.06	8196.7	
706.24	6982.2	
706.42	9036.3	
706.61	9318.9	
706.79	8178.2	
706.97	7052.5	
707.16	8443.1	
707.34	9023.4	
707.52	8233.5	
707.7	7222.5	
707.89	8583	
708.07	8348.2	
708.25	8190.5	
708.44	8292.2	
708.62	8570.7	
708.8	9807	
708.98	8547.5	
709.17	7352.2	
709.35	9095	
709.53	9067.7	
709.72	7150.8	
709.9	7322.9	
710.08	9392	
710.26	9407.7	
710.45	8882.7	
710.63	7464.8	
710.81	9010.4	
710.99	9082.1	
711.18	8102.4	
711.36	7457.3	
711.54	8808.3	
711.72	9570.2	
711.91	7647.8	
712.09	7037.5	
712.27	9282.1	
712.45	10082	
712.64	7978.2	
712.82	6826.6	
713	8329.8	
713.18	8546.9	
713.37	6935.8	
713.55	8214.4	
713.73	9357.9	
713.91	7802.8	
714.1	7203.4	
714.28	6582.9	
714.46	8803.5	
714.64	7952.3	
714.83	5883.8	
715.01	6778.8	
715.19	7916.1	
715.37	7272.3	
715.55	6437.4	
715.74	6741.9	
715.92	8938	
716.1	6753.5	
716.28	7955	
716.47	6841.6	
716.65	7456.7	
716.83	7555	
717.01	6693.4	
717.19	6749.4	
717.38	9792.7	
717.56	7287.4	
717.74	6959	
717.92	6109.8	
718.1	8674.5	
718.29	7894.9	
718.47	5795.8	
718.65	6651.8	
718.83	8791.2	
719.01	8630.1	
719.2	5788.9	
719.38	7062.1	
719.56	8310.7	
719.74	10056	
719.92	6551.5	
720.11	7634.8	
720.29	8275.2	
720.47	7414.3	
720.65	5953.4	
720.83	6804	
721.02	7608.2	
721.2	7379.5	
721.38	6935.8	
721.56	6039.5	
721.74	6842.9	
721.92	7105.8	
722.11	7471	
722.29	7107.1	
722.47	8451.3	
722.65	7544.7	
722.83	6125.5	
723.01	7123.5	
723.2	7643	
723.38	7943.4	
723.56	5454.4	
723.74	6743.3	
723.92	7144.7	
724.1	8404.9	
724.29	6020.3	
724.47	7300.3	
724.65	7128.3	
724.83	7064.1	
725.01	5879.7	
725.19	6955.6	
725.37	7152.9	
725.56	7329	
725.74	5791	
725.92	6096.8	
726.1	7111.9	
726.28	7467.6	
726.46	6424.5	
726.64	6237.4	
726.83	7387	
727.01	7735.2	
727.19	5764.3	
727.37	6688.7	
727.55	7681.2	
727.73	8118.1	
727.91	5754.1	
728.09	5704.3	
728.28	8146.8	
728.46	8834.9	
728.64	6831.3	
728.82	6761.7	
729	9391.3	
729.18	8555.7	
729.36	5964.4	
729.54	8472.4	
729.72	9774.3	
729.91	7836.2	
730.09	8091.5	
730.27	6860.7	
730.45	7735.2	
730.63	8495	
730.81	7523.6	
730.99	6497.5	
731.17	9127.1	
731.35	7571.3	
731.53	6980.8	
731.71	6666.1	
731.9	8828.8	
732.08	9030.2	
732.26	6894.1	
732.44	6436.1	
732.62	9055.4	
732.8	8395.3	
732.98	7376.1	
733.16	6200.6	
733.34	8515.5	
733.52	7076.4	
733.7	6784.2	
733.88	7054.6	
734.07	8185	
734.25	8004.1	
734.43	6249.7	
734.61	7888.1	
734.79	9665	
734.97	7931.8	
735.15	6380.1	
735.33	6677.1	
735.51	8198.7	
735.69	7873.8	
735.87	8350.9	
736.05	6982.9	
736.23	8088.1	
736.41	7879.9	
736.59	6754.9	
736.77	6920.1	
736.95	8596.7	
737.13	7919.5	
737.32	6460.7	
737.5	6657.9	
737.68	9162.6	
737.86	7762.5	
738.04	6117.3	
738.22	8153.6	
738.4	7485.3	
738.58	7808.2	
738.76	6830	
738.94	5718.6	
739.12	7658.7	
739.3	7606.8	
739.48	7461.4	
739.66	7228.6	
739.84	7932.5	
740.02	7991.2	
740.2	5798.5	
740.38	6208.8	
740.56	8400.8	
740.74	7201.3	
740.92	6890.7	
741.1	6767.2	
741.28	7641	
741.46	7635.5	
741.64	6325.5	
741.82	6937.2	
742	7840.3	
742.18	7806.2	
742.36	6563.7	
742.54	6140.5	
742.72	8366.6	
742.9	7004.7	
743.08	7044.3	
743.26	5688.6	
743.44	8609	
743.62	8425.3	
743.8	7112.6	
743.98	6070.9	
744.16	8013	
744.34	7735.2	
744.52	7025.9	
744.7	6951.5	
744.88	8176.9	
745.06	7671.7	
745.24	7047.1	
745.42	7091.4	
745.6	8275.2	
745.78	7909.9	
745.96	5756.8	
746.14	6085.9	
746.32	9009.7	
746.5	8266.3	
746.68	6671.6	
746.86	6099.5	
747.03	8624.7	
747.21	6840.9	
747.39	6686.6	
747.57	6072.9	
747.75	7742.7	
747.93	8185	
748.11	6119.3	
748.29	5948.7	
748.47	9517.6	
748.65	7399.3	
748.83	6773.3	
749.01	6543.9	
749.19	7948.8	
749.37	7091.4	
749.55	6380.8	
749.73	6494.8	
749.91	7576.8	
750.09	7247.1	
750.26	6550.8	
750.44	5885.9	
750.62	7717.4	
750.8	7621.9	
750.98	5613.5	
751.16	5999.9	
751.34	7687.4	
751.52	6947.4	
751.7	6999.3	
751.88	5631.2	
752.06	8242.4	
752.24	7974.1	
752.42	5664	
752.59	5997.8	
752.77	7489.4	
752.95	8910	
753.13	6690	
753.31	6163	
753.49	7092.1	
753.67	7759.8	
753.85	6402	
754.03	5954.1	
754.21	7858.1	
754.38	8314.1	
754.56	6057.2	
754.74	5014.1	
754.92	7065.5	
755.1	7825.3	
755.28	4979.3	
755.46	4948.6	
755.64	8347.5	
755.82	8265.6	
755.99	4978.6	
756.17	4960.2	
756.35	5442.1	
756.53	7156.3	
756.71	3703.4	
756.89	4737.6	
757.07	6680.5	
757.25	5704.3	
757.42	5362.3	
757.6	6360.3	
757.78	6954.9	
757.96	5876.3	
758.14	5169.8	
758.32	4683.7	
758.5	5337	
758.67	6246.3	
758.85	4898.7	
759.03	5098.1	
759.21	6464.8	
759.39	5849	
759.57	4450.9	
759.75	5761.6	
759.92	7156.3	
760.1	6384.9	
760.28	6184.2	
760.46	6409.5	
760.64	6085.2	
760.82	5913.9	
760.99	6095.4	
761.17	5195.7	
761.35	7120.1	
761.53	6011.5	
761.71	5395	
761.89	6120	
762.06	7082.6	
762.24	6457.9	
762.42	5449.6	
762.6	5292	
762.78	6596.5	
762.96	7302.4	
763.13	5881.8	
763.31	5671.5	
763.49	7494.2	
763.67	6558.3	
763.85	6509.8	
764.02	7099.6	
764.2	7707.2	
764.38	6903.7	
764.56	5429.8	
764.74	6429.9	
764.91	7892.2	
765.09	6627.2	
765.27	5083.7	
765.45	4859.1	
765.63	7800.7	
765.8	7719.5	
765.98	4562.9	
766.16	5019.6	
766.34	6171.9	
766.52	5980.8	
766.69	5961	
766.87	4693.9	
767.05	6590.4	
767.23	7414.3	
767.41	5070.8	
767.58	5302.9	
767.76	7143.3	
767.94	7285.3	
768.12	5148.6	
768.29	6008.7	
768.47	6590.4	
768.65	7410.2	
768.83	4663.2	
769	5993	
769.18	6092	
769.36	6849.8	
769.54	5929.6	
769.72	4709.6	
769.89	7150.1	
770.07	7248.4	
770.25	5008	
770.43	6420.4	
770.6	8006.2	
770.78	8436.3	
770.96	5281	
771.14	5093.3	
771.31	6991.8	
771.49	6357.6	
771.67	4303.5	
771.85	4591.5	
772.02	5500.8	
772.2	6337.1	
772.38	5379.3	
772.55	4826.4	
772.73	6564.4	
772.91	6313.2	
773.09	5182	
773.26	5308.3	
773.44	6491.4	
773.62	6171.2	
773.8	4655.7	
773.97	4309.6	
774.15	6540.5	
774.33	6094.1	
774.5	4508.3	
774.68	4816.1	
774.86	6693.4	
775.04	6075	
775.21	4640.7	
775.39	4586.1	
775.57	6409.5	
775.74	6920.8	
775.92	4374.5	
776.1	4281.6	
776.27	6410.8	
776.45	7707.9	
776.63	4511.7	
776.81	4049.5	
776.98	5948	
777.16	7131	
777.34	4675.5	
777.51	4666.6	
777.69	5899.5	
777.87	5705.6	
778.04	4639.3	
778.22	5463.3	
778.4	5651.7	
778.57	6456.6	
778.75	3887	
778.93	4218.1	
779.1	5433.9	
779.28	5324	
779.46	3879.5	
779.64	4445.5	
779.81	6547.4	
779.99	7535.2	
780.17	5348.6	
780.34	5455.8	
780.52	5888.6	
780.69	6167.1	
780.87	4819.6	
781.05	4300.1	
781.22	6009.4	
781.4	6140.5	
781.58	4425	
781.75	3546.4	
781.93	6006	
782.11	5404.6	
782.28	5436.7	
782.46	4418.8	
782.64	5216.9	
782.81	6246.3	
782.99	4460.5	
783.17	4445.5	
783.34	6094.1	
783.52	5229.1	
783.69	4745.8	
783.87	5619.6	
784.05	5300.1	
784.22	5302.2	
784.4	5569.8	
784.58	4751.3	
784.75	6334.4	
784.93	5274.2	
785.1	4373.8	
785.28	5119.2	
785.46	6029.9	
785.63	5315.8	
785.81	4343.7	
785.99	4168.3	
786.16	5472.2	
786.34	5895.4	
786.51	4214.7	
786.69	4640	
786.87	5053	
787.04	5604.6	
787.22	4048.8	
787.39	5114.5	
787.57	5270.1	
787.75	6505.7	
787.92	5255.8	
788.1	5227.1	
788.27	5379.3	
788.45	5090.6	
788.63	4891.2	
788.8	3460.4	
788.98	5875.6	
789.15	5017.5	
789.33	3661.8	
789.5	4341	
789.68	6275.7	
789.86	6412.9	
790.03	4851.6	
790.21	4201.7	
790.38	6228.6	
790.56	5400.5	
790.73	4016.1	
790.91	4162.2	
791.09	5268.1	
791.26	6070.2	
791.44	4343.7	
791.61	3678.8	
791.79	5223	
791.96	5345.9	
792.14	3807.9	
792.32	3396.2	
792.49	5275.6	
792.67	5375.9	
792.84	3867.9	
793.02	3716.4	
793.19	5782.1	
793.37	6584.2	
793.54	3329.3	
793.72	3803.8	
793.89	6719.4	
794.07	5329.5	
794.25	4463.9	
794.42	3446	
794.6	6428.6	
794.77	6013.5	
794.95	4760.2	
795.12	4116.4	
795.3	5185.5	
795.47	5913.9	
795.65	4575.2	
795.82	4334.9	
796	5029.1	
796.17	7150.8	
796.35	4156	
796.52	4945.2	
796.7	5843.5	
796.87	5924.1	
797.05	5141.1	
797.22	5162.9	
797.4	5806	
797.57	6998.6	
797.75	4325.3	
797.92	4044.7	
798.1	6145.3	
798.27	5231.9	
798.45	3461.7	
798.62	3782.6	
798.8	5573.9	
798.97	6075	
799.15	4524	
799.32	4327.4	
799.5	4780	
799.67	5715.9	
799.85	4726.7	
800.02	3338.2	
800.2	5164.3	
800.37	5504.3	
800.55	4930.8	
800.72	4009.9	
800.9	5993	
801.07	6509.1	
801.25	5442.1	
801.42	4504.8	
801.6	6030.6	
801.77	5852.4	
801.95	4138.9	
802.12	3941.7	
802.29	5758.9	
802.47	5685.8	
802.64	4364.2	
802.82	3325.9	
802.99	5161.6	
803.17	6320	
803.34	4311.7	
803.52	3863.8	
803.69	6964.5	
803.87	4980	
804.04	4227	
804.21	4407.9	
804.39	6304.3	
804.56	5443.5	
804.74	3664.5	
804.91	4461.2	
805.09	5188.2	
805.26	5350.7	
805.44	3700.7	
805.61	4102.8	
805.78	5851	
805.96	5937.7	
806.13	4464.6	
806.31	4825.7	
806.48	4744.5	
806.66	5301.5	
806.83	4460.5	
807	4344.4	
807.18	5160.2	
807.35	5608	
807.53	4063.9	
807.7	3396.9	
807.87	6451.8	
808.05	5173.9	
808.22	4729.4	
808.4	3401.7	
808.57	5209.3	
808.74	4839.4	
808.92	3930.1	
809.09	5063.3	
809.27	5073.5	
809.44	5801.9	
809.61	3441.3	
809.79	3836.5	
809.96	6411.5	
810.14	5977.3	
810.31	3316.3	
810.48	4149.2	
810.66	5307.7	
810.83	6168.5	
811.01	3891.1	
811.18	4354.7	
811.35	6032.6	
811.53	4670.1	
811.7	4842.1	
811.87	4445.5	
812.05	5231.2	
812.22	5156.8	
812.39	3732.1	
812.57	3673.4	
812.74	5248.3	
812.92	7018.4	
813.09	4107.5	
813.26	4533.5	
813.44	6774.7	
813.61	5170.4	
813.78	3423.5	
813.96	4693.3	
814.13	5227.1	
814.3	4847.5	
814.48	5057.8	
814.65	4120.5	
814.82	6571.9	
815	5072.1	
815.17	4269.3	
815.34	5175.9	
815.52	5142.4	
815.69	5118.6	
815.87	4260.5	
816.04	3654.3	
816.21	5234.6	
816.38	4540.3	
816.56	4072.7	
816.73	3764.8	
816.9	6701	
817.08	6068.8	
817.25	3848.8	
817.42	4851	
817.6	4729.4	
817.77	5294	
817.94	4355.3	
818.12	3788.7	
818.29	4930.1	
818.46	7816.4	
818.64	3966.9	
818.81	3728	
818.98	4830.5	
819.16	7219.8	
819.33	4541	
819.5	4227	
819.67	5618.3	
819.85	6328.9	
820.02	4179.2	
820.19	4410.6	
820.37	5453.1	
820.54	4947.9	
820.71	4273.4	
820.88	5399.8	
821.06	5442.1	
821.23	5006.6	
821.4	4373.1	
821.58	4283.7	
821.75	6036	
821.92	5356.8	
822.09	3444	
822.27	3737.5	
822.44	5257.8	
822.61	5125.4	
822.79	3487.7	
822.96	6853.9	
823.13	5743.9	
823.3	4946.5	
823.48	4070	
823.65	3672.7	
823.82	6064.7	
823.99	4747.9	
824.17	5141.8	
824.34	3646.1	
824.51	6881.2	
824.68	5288.5	
824.86	3840.6	
825.03	4326.7	
825.2	5246.9	
825.37	6392.4	
825.55	3818.8	
825.72	4235.2	
825.89	7038.2	
826.06	6499.6	
826.24	4177.2	
826.41	4152.6	
826.58	6378.1	
826.75	5576.6	
826.92	3237.2	
827.1	3589.4	
827.27	8798.8	
827.44	6894.1	
827.61	3921.9	
827.79	4824.3	
827.96	4944.5	
828.13	5295.4	
828.3	4102.1	
828.47	3474.7	
828.65	5461.9	
828.82	5451.7	
828.99	5353.4	
829.16	4622.3	
829.34	5865.4	
829.51	5567.1	
829.68	4242.7	
829.85	4391.5	
830.02	6102.9	
830.2	5954.1	
830.37	3310.9	
830.54	5226.4	
830.71	6742.6	
830.88	5208	
831.05	3368.9	
831.23	3836.5	
831.4	6414.9	
831.57	7285.3	
831.74	3949.8	
831.91	3477.5	
832.09	5445.5	
832.26	5856.5	
832.43	4119.8	
832.6	4600.4	
832.77	5401.9	
832.94	6269.5	
833.12	3229	
833.29	4031.1	
833.46	5645.6	
833.63	7454.6	
833.8	4533.5	
833.97	4136.2	
834.15	5887.9	
834.32	5565.7	
834.49	4249.5	
834.66	4340.3	
834.83	6064.7	
835	4906.3	
835.17	3994.9	
835.35	3988.1	
835.52	5769.8	
835.69	5626.5	
835.86	4119.8	
836.03	3446	
836.2	5824.4	
836.37	5414.8	
836.55	4070	
836.72	3851.5	
836.89	5367.7	
837.06	5909.1	
837.23	4237.9	
837.4	4556.7	
837.57	6698.9	
837.75	7443.7	
837.92	3758	
838.09	4003.1	
838.26	5384.1	
838.43	6146	
838.6	4296.6	
838.77	3889.8	
838.94	7105.8	
839.11	6756.9	
839.29	4099.4	
839.46	3188	
839.63	5791	
839.8	5532.9	
839.97	3986	
840.14	3979.2	
840.31	5646.9	
840.48	5855.1	
840.65	3287.7	
840.82	3904.1	
841	5811.5	
841.17	5769.8	
841.34	3652.9	
841.51	3674.7	
841.68	5750	
841.85	5467.4	
842.02	3792.8	
842.19	3082.2	
842.36	5607.3	
842.53	5563	
842.7	3635.1	
842.87	4441.4	
843.05	7477.8	
843.22	5496.1	
843.39	3469.3	
843.56	3752.6	
843.73	5318.6	
843.9	5957.5	
844.07	5978.7	
844.24	5004.6	
844.41	8677.2	
844.58	5026.4	
844.75	3486.3	
844.92	3880.2	
845.09	5825.8	
845.26	5845.6	
845.43	3597.6	
845.6	3882.3	
845.77	5849.7	
845.94	5542.5	
846.12	3985.3	
846.29	4208.6	
846.46	6093.4	
846.63	5808	
846.8	3662.5	
846.97	4384	
847.14	6338.5	
847.31	5776	
847.48	4142.4	
847.65	4465.3	
847.82	6086.6	
847.99	6050.4	
848.16	4902.8	
848.33	4534.2	
848.5	5350.7	
848.67	6308.4	
848.84	3611.9	
849.01	3768.3	
849.18	5252.4	
849.35	4823	
849.52	4545.8	
849.69	3609.9	
849.86	6047	
850.03	6287.9	
850.2	3670	
850.37	4489.8	
850.54	6223.1	
850.71	5509.7	
850.88	4384	
851.05	3588	
851.22	5660.6	
851.39	6356.9	
851.56	3400.3	
851.73	4186	
851.9	5100.8	
852.07	6093.4	
852.24	3981.9	
852.41	3637.9	
852.58	5680.4	
852.75	5173.9	
852.92	4065.2	
853.09	3528.7	
853.26	5377.3	
853.43	6285.2	
853.6	3605.1	
853.77	3115	
853.94	6418.3	
854.11	5787.6	
854.28	5414.1	
854.44	3989.4	
854.61	6882.5	
854.78	6171.2	
854.95	3599.6	
855.12	4521.9	
855.29	4666	
855.46	6447	
855.63	3666.5	
855.8	5076.9	
855.97	5343.8	
856.14	6179.4	
856.31	5122	
856.48	3908.9	
856.65	5365	
856.82	5106.3	
856.99	3450.8	
857.16	3915	
857.33	7156.3	
857.49	5498.8	
857.66	3895.9	
857.83	4227	
858	5427.1	
858.17	5636	
858.34	3442	
858.51	3627	
858.68	6605.4	
858.85	6613.6	
859.02	4224.3	
859.19	4529.4	
859.36	5054.4	
859.52	5139	
859.69	3583.3	
859.86	4286.4	
860.03	5147.2	
860.2	6428.6	
860.37	3270.6	
860.54	3633.8	
860.71	6051.1	
860.88	6475.7	
861.05	4119.8	
861.21	4606.6	
861.38	6601.3	
861.55	4906.3	
861.72	3294.5	
861.89	4027	
862.06	6192.4	
862.23	6683.2	
862.4	3504.1	
862.56	3799	
862.73	5961.6	
862.9	5659.9	
863.07	4312.3	
863.24	3288.4	
863.41	4934.9	
863.58	5119.9	
863.75	3678.2	
863.91	4170.3	
864.08	6418.3	
864.25	5954.8	
864.42	4552.6	
864.59	5096	
864.76	6737.8	
864.93	5130.8	
865.09	3533.4	
865.26	3844	
865.43	6343.9	
865.6	6769.2	
865.77	3157.3	
865.94	3545	
866.1	6433.4	
866.27	6164.4	
866.44	5459.9	
866.61	3422.8	
866.78	5571.2	
866.95	6029.2	
867.11	3500	
867.28	3257	
867.45	6203.3	
867.62	5113.1	
867.79	4248.2	
867.96	3635.1	
868.12	5133.6	
868.29	6114.6	
868.46	3614.7	
868.63	4844.1	
868.8	6244.9	
868.97	6035.4	
869.13	3797.6	
869.3	3757.3	
869.47	5943.2	
869.64	6190.3	
869.81	3585.3	
869.97	3683.6	
870.14	5798.5	
870.31	6500.9	
870.48	3528.7	
870.65	4580.6	
870.81	5365	
870.98	5428.5	
871.15	4120.5	
871.32	3740.3	
871.48	5842.2	
871.65	6591.7	
871.82	3640.6	
871.99	3985.3	
872.16	7058.7	
872.32	6472.3	
872.49	3621.5	
872.66	3667.2	
872.83	6057.2	
872.99	5257.8	
873.16	4167.6	
873.33	3593.5	
873.5	5683.8	
873.67	5696.1	
873.83	3833.8	
874	4889.9	
874.17	5837.4	
874.34	6985.6	
874.5	4740.4	
874.67	4590.9	
874.84	6481.1	
875.01	5098.1	
875.17	5131.5	
875.34	3577.8	
875.51	5741.8	
875.68	6952.9	
875.84	4347.2	
876.01	5362.9	
876.18	6036	
876.34	5929.6	
876.51	3642.7	
876.68	3539.6	
876.85	5545.2	
877.01	6371.9	
877.18	5194.3	
877.35	3563.5	
877.52	5604.6	
877.68	5056.4	
877.85	3523.2	
878.02	3547.1	
878.18	5603.2	
878.35	5256.5	
878.52	2882.9	
878.69	4035.9	
878.85	6110.5	
879.02	5953.4	
879.19	5125.4	
879.35	3906.8	
879.52	6064	
879.69	6242.9	
879.86	3106.8	
880.02	4061.1	
880.19	5560.2	
880.36	6832	
880.52	4175.1	
880.69	4289.1	
880.86	6153.5	
881.02	6140.5	
881.19	3964.9	
881.36	3949.8	
881.52	5990.3	
881.69	5305.6	
881.86	3910.3	
882.02	3748.5	
882.19	6303	
882.36	7441.6	
882.52	3705.5	
882.69	5135.6	
882.86	5840.1	
883.02	5636	
883.19	4403.1	
883.36	4151.9	
883.52	6079.1	
883.69	7049.1	
883.86	3666.5	
884.02	3272.7	
884.19	6144.6	
884.36	5616.2	
884.52	4111	
884.69	3840.6	
884.86	5350.7	
885.02	6756.9	
885.19	4005.1	
885.36	4168.3	
885.52	5596.4	
885.69	5767.1	
885.86	5248.9	
886.02	4657.1	
886.19	6054.5	
886.35	5573.2	
886.52	4034.5	
886.69	5129.5	
886.85	5141.8	
887.02	6499.6	
887.19	6499.6	
887.35	6499.6	
887.52	6499.6	
887.68	6499.6	
887.85	6499.6	
888.02	6499.6	
888.18	6499.6	
888.35	6499.6	
888.51	6499.6	
888.68	6499.6	
888.85	6499.6	
889.01	6499.6	
889.18	6499.6	
889.35	6499.6	
889.51	6499.6	
889.68	6499.6	
889.84	6499.6	
890.01	6499.6	
890.17	6499.6	
890.34	6499.6	
890.51	6499.6	
890.67	6499.6	
890.84	6499.6	
891	6499.6	
891.17	6499.6	
891.34	6499.6	
891.5	6499.6	
891.67	6499.6	
891.83	6499.6	
892	6499.6	
892.16	6499.6	
892.33	6499.6	
892.5	6499.6	
892.66	6499.6	
892.83	6499.6	
892.99	6499.6	
893.16	6499.6	
893.32	6499.6	
893.49	6499.6	
893.65	6499.6	
893.82	6499.6	
893.99	6499.6	
894.15	6499.6	
894.32	6499.6	
894.48	6499.6	
894.65	6499.6	
894.81	6499.6	
894.98	6499.6	
895.14	6499.6	
895.31	6499.6	
895.47	6499.6	
895.64	6499.6	
895.81	6499.6	
895.97	6499.6	
896.14	6499.6	
896.3	6499.6	
896.47	6499.6	
896.63	6499.6	
896.8	6499.6	
896.96	6499.6	
897.13	6499.6	
897.29	6499.6	
897.46	6499.6	
897.62	6499.6	
897.79	6499.6	
897.95	6499.6	
898.12	6499.6	
898.28	6499.6	
898.45	6499.6	
898.61	6499.6	
898.78	6499.6	
898.94	6499.6	
899.11	6499.6	
899.27	6499.6	
899.44	6499.6	
899.6	6499.6	
899.77	6499.6	
899.93	6499.6	
900.1	6499.6	
900.26	6499.6	
900.43	6499.6	
900.59	6499.6	
900.76	6499.6	
900.92	6499.6	
901.09	6499.6	
901.25	6499.6	
901.42	6499.6	
901.58	6499.6	
901.75	6499.6	
901.91	6499.6	
902.07	6499.6	
902.24	6499.6	
902.4	6499.6	
902.57	6499.6	
902.73	6499.6	
902.9	6499.6	
903.06	6499.6	
903.23	6499.6	
903.39	6499.6	
903.56	6499.6	
903.72	6499.6	
903.88	6499.6	
904.05	6499.6	
904.21	6499.6	
904.38	6499.6	
904.54	6499.6	
904.71	6499.6	
904.87	6499.6	
905.03	6499.6	
905.2	6499.6	
905.36	6499.6	
905.53	6499.6	
905.69	6499.6	
905.86	6499.6	
906.02	6499.6	
906.18	6499.6	
906.35	6499.6	
906.51	6499.6	
906.68	6499.6	
906.84	6499.6	
907.01	6499.6	
907.17	6499.6	
907.33	6499.6	
907.5	6499.6	
907.66	6499.6	
907.83	6499.6	
907.99	6499.6	
908.15	6499.6	
908.32	6499.6	
908.48	6499.6	
908.65	6499.6	
908.81	6499.6	
908.97	6499.6	
909.14	6499.6	
909.3	6499.6	
909.47	6499.6	
909.63	6499.6	
909.79	6499.6	
909.96	6499.6	
910.12	6499.6	
910.28	6499.6	
910.45	6499.6	
910.61	6499.6	
910.78	6499.6	
910.94	6499.6	
911.1	6499.6	
911.27	6499.6	
911.43	6499.6	
911.59	6499.6	
911.76	6499.6	
911.92	6499.6	
912.08	6499.6	
912.25	6499.6	
912.41	6499.6	
912.57	6499.6	
912.74	6499.6	
912.9	6499.6	
913.07	6499.6	
913.23	6499.6	
913.39	6499.6	
913.56	6499.6	
913.72	6499.6	
913.88	6499.6	
914.05	6499.6	
914.21	6499.6	
914.37	6499.6	
914.54	6499.6	
914.7	6499.6	
914.86	6499.6	
915.03	6499.6	
915.19	6499.6	
