Wavelength	Intensities	
nm	a.u.	
179.22	1885.2	
179.44	1885.5	
179.65	1884.8	
179.86	1886.2	
180.08	1893	
180.29	4923.3	
180.51	3540.3	
180.72	5569.8	
180.94	6649.8	
181.15	3266.5	
181.37	3171.6	
181.58	5524.1	
181.79	5827.2	
182.01	3423.5	
182.22	3620.8	
182.44	5775.3	
182.65	4863.9	
182.87	4603.2	
183.08	3943.7	
183.29	6094.8	
183.51	5040.7	
183.72	3677.5	
183.94	5407.3	
184.15	5362.9	
184.37	5445.5	
184.58	3161.4	
184.79	4378.6	
185.01	5024.3	
185.22	5754.8	
185.44	4760.2	
185.65	3900	
185.86	5362.3	
186.08	4898.7	
186.29	3116.3	
186.51	3351.8	
186.72	5023	
186.94	5932.3	
187.15	3906.2	
187.36	4055	
187.58	7744.7	
187.79	5526.8	
188.01	4199	
188.22	6574	
188.43	6666.8	
188.65	5739.1	
188.86	3340.2	
189.08	4046.8	
189.29	5226.4	
189.5	5232.6	
189.72	3752.6	
189.93	3803.1	
190.15	5945.3	
190.36	7245.7	
190.57	4095.9	
190.79	3981.9	
191	6085.2	
191.22	5986.2	
191.43	4074.8	
191.64	3368.2	
191.86	6277.7	
192.07	6003.3	
192.29	3488.4	
192.5	3789.4	
192.71	5971.9	
192.93	5124.7	
193.14	3678.8	
193.35	3781.2	
193.57	5196.4	
193.78	5978.7	
194	3007.8	
194.21	3674.1	
194.42	4913.8	
194.64	5448.3	
194.85	4037.2	
195.07	4709.6	
195.28	5454.4	
195.49	4723.3	
195.71	4958.1	
195.92	3514.3	
196.13	5653.1	
196.35	5707.7	
196.56	5356.1	
196.78	4036.5	
196.99	7062.1	
197.2	6535.8	
197.42	4593.6	
197.63	4094.6	
197.84	4853.7	
198.06	5613.5	
198.27	3729.4	
198.48	4980.7	
198.7	5181.4	
198.91	5361.6	
199.13	4066.6	
199.34	4084.3	
199.55	5786.2	
199.77	4700.1	
199.98	3573.7	
200.19	4100	
200.41	5340.4	
200.62	5014.8	
200.83	4278.2	
201.05	4586.8	
201.26	5363.6	
201.47	5033.9	
201.69	3564.8	
201.9	3450.1	
202.11	5337	
202.33	6424.5	
202.54	3884.3	
202.76	4261.1	
202.97	5527.5	
203.18	5567.7	
203.4	4153.3	
203.61	4114.4	
203.82	5467.4	
204.04	5073.5	
204.25	4041.3	
204.46	4022.2	
204.68	5481	
204.89	5723.4	
205.1	3984	
205.32	3373	
205.53	5778.7	
205.74	5954.8	
205.96	2958.6	
206.17	4187.4	
206.38	5792.3	
206.6	6010.1	
206.81	4655	
207.02	3750.5	
207.24	5687.2	
207.45	6110.5	
207.66	3825.6	
207.88	3325.2	
208.09	5635.3	
208.3	5393	
208.52	3597.6	
208.73	3852.2	
208.94	5456.5	
209.15	6178.7	
209.37	3848.1	
209.58	4063.9	
209.79	5956.2	
210.01	5173.2	
210.22	3137.5	
210.43	3204.4	
210.65	5450.3	
210.86	5872.2	
211.07	3876.1	
211.29	3565.5	
211.5	5788.9	
211.71	5371.8	
211.93	3588	
212.14	3526.6	
212.35	5324	
212.56	5552.7	
212.78	4070.7	
212.99	3306.1	
213.2	6394.4	
213.42	5148.6	
213.63	3660.4	
213.84	3951.2	
214.06	4752.7	
214.27	4959.5	
214.48	3857	
214.69	4121.9	
214.91	6102.3	
215.12	6151.4	
215.33	4199.7	
215.55	4625	
215.76	6687.3	
215.97	5769.1	
216.18	3976.5	
216.4	3897.3	
216.61	5128.8	
216.82	5886.5	
217.04	3609.2	
217.25	3687.7	
217.46	6072.9	
217.67	5822.4	
217.89	3185.3	
218.1	3318.4	
218.31	5547.9	
218.53	5643.5	
218.74	3743	
218.95	3652.9	
219.16	5322	
219.38	6303.6	
219.59	3649.5	
219.8	4349.9	
220.01	7002	
220.23	5468.1	
220.44	4775.2	
220.65	3513.6	
220.87	5433.9	
221.08	6038.8	
221.29	3295.2	
221.5	4417.5	
221.72	7456.7	
221.93	5141.8	
222.14	4102.8	
222.35	4814.8	
222.57	5437.4	
222.78	5792.3	
222.99	3904.1	
223.2	4140.3	
223.42	5718.6	
223.63	5849.7	
223.84	3019.4	
224.05	2959.3	
224.27	6943.3	
224.48	6341.9	
224.69	4855.7	
224.9	4085	
225.12	5619.6	
225.33	5387.5	
225.54	3248.8	
225.75	3654.9	
225.97	4995	
226.18	5270.1	
226.39	3951.9	
226.6	3701.4	
226.82	5156.1	
227.03	5071.5	
227.24	4054.3	
227.45	3396.2	
227.67	5801.2	
227.88	6405.4	
228.09	4541.7	
228.3	4586.1	
228.52	5797.8	
228.73	5347.2	
228.94	3847.5	
229.15	3329.3	
229.36	5337	
229.58	5252.4	
229.79	3832.4	
230	4459.1	
230.21	6489.3	
230.43	5478.3	
230.64	4037.2	
230.85	4220.9	
231.06	5854.5	
231.28	5872.9	
231.49	3334.8	
231.7	3957.4	
231.91	5769.1	
232.12	5530.9	
232.34	3436.5	
232.55	3947.1	
232.76	6032.6	
232.97	5574.6	
233.18	3577.1	
233.4	3997.6	
233.61	5603.9	
233.82	5128.1	
234.03	3747.1	
234.25	3680.2	
234.46	7559.1	
234.67	5526.1	
234.88	4241.3	
235.09	3605.8	
235.31	5691.3	
235.52	5315.2	
235.73	4033.8	
235.94	3416	
236.15	5188.9	
236.37	6532.3	
236.58	3572.3	
236.79	3862.5	
237	5728.2	
237.21	4930.1	
237.43	4207.2	
237.64	3308.8	
237.85	9959.3	
238.06	4955.4	
238.27	4255	
238.48	3361.4	
238.7	5804.6	
238.91	5304.9	
239.12	3848.8	
239.33	4003.8	
239.54	4974.5	
239.76	5343.2	
239.97	3843.4	
240.18	3893.9	
240.39	6819.1	
240.6	5829.9	
240.82	4040	
241.03	3302	
241.24	5399.8	
241.45	6274.3	
241.66	3601	
241.87	4228.4	
242.09	6201.2	
242.3	6603.3	
242.51	4259.8	
242.72	3952.6	
242.93	5921.4	
243.14	5408.7	
243.36	4554.7	
243.57	4865.3	
243.78	6341.9	
243.99	5840.8	
244.2	3933.5	
244.41	3562.1	
244.63	4965.6	
244.84	5770.5	
245.05	4212	
245.26	3971	
245.47	5732.9	
245.68	6006.7	
245.9	5163.6	
246.11	4070	
246.32	5276.9	
246.53	5696.8	
246.74	6275	
246.95	3305.4	
247.16	4913.1	
247.38	5371.8	
247.59	3235.8	
247.8	3905.5	
248.01	5083.7	
248.22	5335	
248.43	3594.2	
248.64	3772.4	
248.86	4769	
249.07	5173.9	
249.28	3409.9	
249.49	4033.1	
249.7	5956.9	
249.91	6165.1	
250.12	3210.5	
250.34	3279.5	
250.55	5522	
250.76	5488.6	
250.97	4056.3	
251.18	4144.4	
251.39	6125.5	
251.6	5586.9	
251.81	4157.4	
252.03	4093.9	
252.24	5117.2	
252.45	5925.5	
252.66	3407.8	
252.87	4296.6	
253.08	5482.4	
253.29	7182.2	
253.5	3391.4	
253.72	4780	
253.93	5292	
254.14	6417	
254.35	3735.5	
254.56	3818.8	
254.77	5651.7	
254.98	5031.2	
255.19	3625.6	
255.41	4743.8	
255.62	5561.6	
255.83	6075.6	
256.04	4195.6	
256.25	4076.1	
256.46	6692.1	
256.67	5110.4	
256.88	3999	
257.09	4490.5	
257.31	5043.5	
257.52	5145.9	
257.73	5033.9	
257.94	3713.6	
258.15	5252.4	
258.36	5459.9	
258.57	4629.8	
258.78	2944.3	
258.99	5927.5	
259.2	5243.5	
259.41	3745.1	
259.63	3880.2	
259.84	6295.5	
260.05	6731	
260.26	4906.9	
260.47	3611.9	
260.68	6006	
260.89	5328.1	
261.1	4517.8	
261.31	3548.4	
261.52	5956.9	
261.73	6335.7	
261.95	4889.2	
262.16	4223.6	
262.37	6133	
262.58	6207.4	
262.79	4820.9	
263	3771.7	
263.21	5412.8	
263.42	4977.2	
263.63	3852.9	
263.84	3741.6	
264.05	5956.2	
264.26	6391	
264.47	4713.7	
264.69	4267.3	
264.9	6126.2	
265.11	5622.4	
265.32	3647.4	
265.53	3647.4	
265.74	5573.9	
265.95	4829.1	
266.16	3979.9	
266.37	4399	
266.58	5515.2	
266.79	5236	
267	3663.1	
267.21	3454.2	
267.42	4976.6	
267.63	5407.3	
267.84	3921.2	
268.06	3353.9	
268.27	5887.2	
268.48	6180.8	
268.69	3805.8	
268.9	4525.3	
269.11	6108.4	
269.32	4874.8	
269.53	3927.3	
269.74	3639.9	
269.95	5761.6	
270.16	4780	
270.37	3885	
270.58	4558.1	
270.79	5277.6	
271	5999.9	
271.21	4212.7	
271.42	3930.7	
271.63	5536.3	
271.84	5053.7	
272.05	3103.4	
272.26	3480.2	
272.47	5433.9	
272.68	5681.7	
272.89	3746.4	
273.11	4398.4	
273.32	5228.5	
273.53	6427.9	
273.74	4210.6	
273.95	4161.5	
274.16	6071.5	
274.37	5490.6	
274.58	4252.9	
274.79	3378.5	
275	5569.1	
275.21	6092.7	
275.42	5169.1	
275.63	4412.7	
275.84	5622.4	
276.05	7217	
276.26	4064.5	
276.47	3873.4	
276.68	5217.5	
276.89	6445.6	
277.1	4417.5	
277.31	3440.6	
277.52	5699.5	
277.73	5862	
277.94	3397.6	
278.15	3747.1	
278.36	5618.9	
278.57	5051	
278.78	3736.9	
278.99	4266.6	
279.2	5044.8	
279.41	5022.3	
279.62	4919.9	
279.83	3493.8	
280.04	6655.9	
280.25	4927.4	
280.46	4898.1	
280.67	3904.1	
280.88	5071.5	
281.09	6086.6	
281.3	4108.2	
281.51	5255.1	
281.72	5145.2	
281.93	5915.9	
282.14	3631	
282.35	3926.6	
282.56	5920	
282.77	5934.3	
282.98	3767.6	
283.19	4709	
283.4	7260.7	
283.61	5400.5	
283.82	3374.4	
284.03	4848.2	
284.24	5504.9	
284.45	6098.9	
284.66	4883.7	
284.87	4663.9	
285.08	6047	
285.29	6169.2	
285.5	3295.9	
285.71	3826.3	
285.92	6064.7	
286.12	6722.8	
286.33	4788.8	
286.54	3784	
286.75	5920	
286.96	5253	
287.17	3514.3	
287.38	4752.7	
287.59	5111.7	
287.8	5004.6	
288.01	3827	
288.22	4356	
288.43	6003.3	
288.64	4961.5	
288.85	4554	
289.06	4341.7	
289.27	5866.7	
289.48	6333	
289.69	4917.9	
289.9	4435.2	
290.11	6076.3	
290.32	5129.5	
290.53	4666.6	
290.74	4224.3	
290.94	5895.4	
291.15	5894.7	
291.36	3699.3	
291.57	4364.9	
291.78	5155.4	
291.99	4836.6	
292.2	3477.5	
292.41	4209.3	
292.62	6016.9	
292.83	5769.1	
293.04	5248.9	
293.25	3545	
293.46	5212.8	
293.67	6010.1	
293.88	3671.3	
294.09	3513.6	
294.29	4950.6	
294.5	5563	
294.71	3932.8	
294.92	3762.1	
295.13	5232.6	
295.34	6537.8	
295.55	3291.1	
295.76	3392.1	
295.97	5865.4	
296.18	6586.3	
296.39	3408.5	
296.6	3700	
296.81	5453.1	
297.01	5892	
297.22	3855.6	
297.43	3672.7	
297.64	5117.2	
297.85	5055.1	
298.06	3030.3	
298.27	3275.4	
298.48	5481	
298.69	5143.8	
298.9	3953.3	
299.11	3553.9	
299.31	4933.6	
299.52	4967	
299.73	4233.8	
299.94	4154.6	
300.15	5492.7	
300.36	5057.1	
300.57	4240	
300.78	4218.8	
300.99	5311.1	
301.2	5597.8	
301.4	3611.3	
301.61	3948.5	
301.82	5730.2	
302.03	5892.7	
302.24	4462.5	
302.45	3508.2	
302.66	5708.4	
302.87	6251.8	
303.08	3633.8	
303.29	4951.3	
303.49	5152	
303.7	5517.9	
303.91	3250.8	
304.12	4776.5	
304.33	4944.5	
304.54	5575.3	
304.75	3689.8	
304.96	3540.9	
305.16	5816.2	
305.37	6483.9	
305.58	3213.9	
305.79	3329.3	
306	5780.7	
306.21	4829.1	
306.42	3626.3	
306.63	5668.8	
306.83	5329.5	
307.04	6048.3	
307.25	4068.6	
307.46	4057.7	
307.67	4635.9	
307.88	5915.9	
308.09	3583.3	
308.29	3766.9	
308.5	5502.2	
308.71	6021	
308.92	3906.8	
309.13	3565.5	
309.34	5390.9	
309.55	5365.7	
309.75	4614.1	
309.96	4218.8	
310.17	5802.6	
310.38	5150	
310.59	4388.8	
310.8	4167.6	
311.01	6594.5	
311.21	5316.5	
311.42	3484.3	
311.63	3598.3	
311.84	5169.1	
312.05	5545.9	
312.26	4052.9	
312.46	4544.4	
312.67	5248.3	
312.88	4988.9	
313.09	3492.5	
313.3	3444	
313.51	6298.2	
313.71	6533	
313.92	3517	
314.13	3736.9	
314.34	5612.1	
314.55	5335	
314.76	4565.6	
314.96	3947.8	
315.17	5491.3	
315.38	5872.9	
315.59	3592.8	
315.8	3383.2	
316.01	6331	
316.21	6312.5	
316.42	3386	
316.63	3973.1	
316.84	5294	
317.05	6144.6	
317.26	4208.6	
317.46	3796.3	
317.67	5326.1	
317.88	5813.5	
318.09	4529.4	
318.3	3293.8	
318.5	5104.2	
318.71	5776	
318.92	5784.8	
319.13	4200.4	
319.34	5938.4	
319.54	6123.4	
319.75	3336.8	
319.96	3139.5	
320.17	5812.1	
320.38	6051.1	
320.58	3226.9	
320.79	3878.9	
321	6081.8	
321.21	6232	
321.42	3954.6	
321.62	3249.4	
321.83	5060.5	
322.04	5471.5	
322.25	3717.7	
322.46	3542.3	
322.66	5607.3	
322.87	5699.5	
323.08	4354.7	
323.29	3483.6	
323.5	6541.2	
323.7	4994.3	
323.91	4833.9	
324.12	4405.2	
324.33	5501.5	
324.53	5796.4	
324.74	4241.3	
324.95	4429.1	
325.16	4841.4	
325.37	5232.6	
325.57	3557.3	
325.78	3619.4	
325.99	5523.4	
326.2	4990.9	
326.4	5162.9	
326.61	3297.9	
326.82	5395	
327.03	5524.7	
327.24	5053.7	
327.44	4806.6	
327.65	5684.5	
327.86	4609.3	
328.07	4185.4	
328.27	3389.4	
328.48	6072.9	
328.69	5033.9	
328.9	5106.3	
329.1	3812.6	
329.31	5265.3	
329.52	6251.8	
329.73	3550.5	
329.93	4031.1	
330.14	5432.6	
330.35	5683.8	
330.56	5917.3	
330.76	4415.4	
330.97	5268.7	
331.18	5650.3	
331.39	3901.4	
331.59	3211.9	
331.8	6091.3	
332.01	6216.3	
332.22	3625.6	
332.42	4210.6	
332.63	5558.9	
332.84	5069.4	
333.05	3982.6	
333.25	3614.7	
333.46	5264	
333.67	5478.3	
333.88	3717.1	
334.08	4111	
334.29	7260.7	
334.5	6090	
334.7	3449.5	
334.91	5115.8	
335.12	4992.3	
335.33	5844.2	
335.53	3926.6	
335.74	5788.2	
335.95	5216.2	
336.16	5112.4	
336.36	3941.7	
336.57	4540.3	
336.78	4927.4	
336.98	6088.6	
337.19	4874.2	
337.4	3849.5	
337.61	6593.8	
337.81	4999.1	
338.02	3627	
338.23	4734.2	
338.43	6223.1	
338.64	5117.2	
338.85	3564.8	
339.05	4736.3	
339.26	6367.1	
339.47	4847.5	
339.68	3597.6	
339.88	5285.8	
340.09	5668.8	
340.3	5916.6	
340.5	4186	
340.71	3184.6	
340.92	4909	
341.13	6161	
341.33	3466.5	
341.54	4257.7	
341.75	5679.7	
341.95	5265.3	
342.16	4052.9	
342.37	4313	
342.57	5061.9	
342.78	5402.5	
342.99	4529.4	
343.19	3209.2	
343.4	5838.1	
343.61	5745.9	
343.81	3801.7	
344.02	3523.9	
344.23	5910.4	
344.43	6248.4	
344.64	4400.4	
344.85	4268.6	
345.06	5708.4	
345.26	6085.2	
345.47	4123.2	
345.68	4802.5	
345.88	4792.9	
346.09	5987.6	
346.3	4227	
346.5	3159.3	
346.71	5490.6	
346.92	5108.3	
347.12	3248.8	
347.33	4101.4	
347.54	6011.5	
347.74	6451.8	
347.95	4115.7	
348.16	3011.2	
348.36	5218.2	
348.57	4868	
348.78	4011.3	
348.98	4373.8	
349.19	5394.3	
349.39	4925.4	
349.6	3237.8	
349.81	3616.7	
350.01	5685.2	
350.22	5177.9	
350.43	3937.6	
350.63	4778.6	
350.84	5497.4	
351.05	5214.1	
351.25	3581.9	
351.46	3272	
351.67	6034	
351.87	5114.5	
352.08	3805.1	
352.29	4430.4	
352.49	5920	
352.7	5616.2	
352.9	3468.6	
353.11	4373.8	
353.32	6578.8	
353.52	5248.3	
353.73	3431.7	
353.94	4305.5	
354.14	5791	
354.35	5589.6	
354.55	3538.2	
354.76	3973.1	
354.97	5677	
355.17	5538.4	
355.38	3308.2	
355.59	4692.6	
355.79	5125.4	
356	5548.6	
356.2	3887.7	
356.41	3465.8	
356.62	4832.5	
356.82	5322	
357.03	4185.4	
357.24	3788.7	
357.44	5171.8	
357.65	5229.1	
357.85	5090.6	
358.06	3983.3	
358.27	4846.9	
358.47	5079.6	
358.68	3244	
358.88	4156.7	
359.09	5685.8	
359.3	6025.1	
359.5	4862.6	
359.71	4366.3	
359.91	6515.3	
360.12	5817.6	
360.33	4136.9	
360.53	4663.9	
360.74	5169.1	
360.94	5216.2	
361.15	4339	
361.36	3573	
361.56	5914.5	
361.77	5287.2	
361.97	4880.3	
362.18	3827.7	
362.38	5954.1	
362.59	4971.8	
362.8	3528	
363	3364.1	
363.21	4741.7	
363.41	5399.8	
363.62	4020.8	
363.83	5154.7	
364.03	5560.2	
364.24	6482.5	
364.44	5134.3	
364.65	5106.3	
364.85	5320.6	
365.06	5183.4	
365.27	3667.9	
365.47	3723.2	
365.68	6261.3	
365.88	5294	
366.09	4094.6	
366.29	3823.6	
366.5	5503.6	
366.71	5953.4	
366.91	5085.1	
367.12	4300.7	
367.32	6564.4	
367.53	5815.5	
367.73	4207.2	
367.94	5184.8	
368.14	5705	
368.35	6681.2	
368.56	4208.6	
368.76	3964.9	
368.97	5807.4	
369.17	7544.7	
369.38	3647.4	
369.58	4005.1	
369.79	4967	
369.99	6208.8	
370.2	4966.3	
370.4	4049.5	
370.61	5563	
370.82	6753.5	
371.02	3921.2	
371.23	3219.4	
371.43	4797	
371.64	6154.1	
371.84	3932.8	
372.05	5217.5	
372.25	7419.8	
372.46	5855.1	
372.66	3992.2	
372.87	3921.2	
373.07	5973.9	
373.28	7510.6	
373.48	4947.9	
373.69	4633.9	
373.9	5349.3	
374.1	5438	
374.31	4902.2	
374.51	4412.7	
374.72	6246.3	
374.92	5073.5	
375.13	5038.7	
375.33	4193.6	
375.54	5774.6	
375.74	5173.2	
375.95	4282.3	
376.15	5558.9	
376.36	5773.9	
376.56	5618.3	
376.77	4320.5	
376.97	4800.4	
377.18	6760.3	
377.38	5849	
377.59	5190.9	
377.79	3841.3	
378	5640.8	
378.2	6092	
378.41	3922.5	
378.61	3807.2	
378.82	6172.6	
379.02	5203.2	
379.23	4073.4	
379.43	5165.7	
379.64	6191.7	
379.84	5810.8	
380.05	3827	
380.25	3845.4	
380.46	5968.5	
380.66	5493.3	
380.87	5268.7	
381.07	5605.3	
381.28	6545.3	
381.48	5836.7	
381.69	3911.6	
381.89	3981.3	
382.1	4879.6	
382.3	6058.6	
382.51	5066	
382.71	5982.1	
382.91	5954.1	
383.12	6470.2	
383.32	4283	
383.53	4565.6	
383.73	5735.7	
383.94	5582.1	
384.14	4416.8	
384.35	3556.6	
384.55	5494	
384.76	5929.6	
384.96	4283.7	
385.17	4640	
385.37	5941.2	
385.58	5182	
385.78	4640.7	
385.98	3435.1	
386.19	5443.5	
386.39	5798.5	
386.6	4027	
386.8	4341.7	
387.01	5933.6	
387.21	5993	
387.42	4752	
387.62	5235.3	
387.83	5276.9	
388.03	5911.8	
388.23	4339	
388.44	5124	
388.64	5006.6	
388.85	5062.6	
389.05	4646.2	
389.26	5323.4	
389.46	6900.3	
389.67	6361	
389.87	4611.3	
390.07	4717.2	
390.28	5584.1	
390.48	5148.6	
390.69	3896.6	
390.89	4167.6	
391.1	5306.3	
391.3	6227.2	
391.5	5418.9	
391.71	6005.3	
391.91	5957.5	
392.12	7055.3	
392.32	5467.4	
392.53	4748.6	
392.73	5448.3	
392.93	5588.2	
393.14	4391.5	
393.34	5121.3	
393.55	5991	
393.75	5563	
393.95	4390.8	
394.16	4341.7	
394.36	5332.9	
394.57	6007.4	
394.77	3822.2	
394.98	4311	
395.18	5195	
395.38	5514.5	
395.59	5083.1	
395.79	4050.9	
396	5440.8	
396.2	5911.8	
396.4	4901.5	
396.61	4883.7	
396.81	6118.6	
397.02	5311.7	
397.22	5128.1	
397.42	5117.2	
397.63	6104.3	
397.83	5264.6	
398.04	4055.7	
398.24	4549.9	
398.44	5831.2	
398.65	4923.3	
398.85	3803.1	
399.05	3964.2	
399.26	5256.5	
399.46	6969.2	
399.67	4315.8	
399.87	4022.9	
400.07	5635.3	
400.28	5991.7	
400.48	4182	
400.69	5228.5	
400.89	6217	
401.09	6592.4	
401.3	4061.1	
401.5	5218.9	
401.7	6827.2	
401.91	7120.8	
402.11	4350.6	
402.32	4633.2	
402.52	6208.1	
402.72	6147.3	
402.93	4838.7	
403.13	3682.2	
403.33	6952.9	
403.54	5657.2	
403.74	4479.6	
403.94	5455.8	
404.15	5743.9	
404.35	6864.8	
404.56	4263.2	
404.76	6140.5	
404.96	6080.4	
405.17	5860.6	
405.37	5861.3	
405.57	4767	
405.78	6164.4	
405.98	5693.4	
406.18	4316.4	
406.39	5246.9	
406.59	6255.2	
406.79	5823.1	
407	4167.6	
407.2	4205.8	
407.4	6184.9	
407.61	6365.1	
407.81	4131.4	
408.01	6408.1	
408.22	5155.4	
408.42	7162.4	
408.62	5248.3	
408.83	4694.6	
409.03	5765	
409.23	5526.8	
409.44	4756.1	
409.64	5072.8	
409.84	6662.7	
410.05	6591.7	
410.25	4930.1	
410.45	4648.2	
410.66	6027.2	
410.86	8507.9	
411.06	5048.9	
411.27	5017.5	
411.47	8236.2	
411.67	6224.5	
411.88	5184.1	
412.08	5456.5	
412.28	6865.5	
412.49	7357	
412.69	5021.6	
412.89	5009.3	
413.09	7077.8	
413.3	6941.9	
413.5	5058.5	
413.7	4610.7	
413.91	6225.8	
414.11	7182.9	
414.31	4954.7	
414.52	5322.7	
414.72	6805.4	
414.92	6677.1	
415.12	4870.1	
415.33	5408.7	
415.53	7089.4	
415.73	7266.9	
415.94	5834	
416.14	5223	
416.34	6019	
416.55	5806.7	
416.75	6443.6	
416.95	5816.9	
417.15	7053.2	
417.36	7860.8	
417.56	6623.1	
417.76	5677	
417.97	7404.8	
418.17	7163.8	
418.37	5194.3	
418.57	5317.2	
418.78	6848.4	
418.98	6566.5	
419.18	6161	
419.38	6098.9	
419.59	6671.6	
419.79	6194.4	
419.99	5158.2	
420.2	5550	
420.4	7141.9	
420.6	7299	
420.8	5031.2	
421.01	4896	
421.21	6901	
421.41	7152.2	
421.61	5474.2	
421.82	5164.3	
422.02	6505.7	
422.22	7419.8	
422.42	5973.2	
422.63	5644.2	
422.83	6605.4	
423.03	7739.3	
423.23	5636	
423.44	4538.3	
423.64	6683.9	
423.84	6373.3	
424.04	5090.6	
424.25	4721.9	
424.45	7527	
424.65	7570.7	
424.85	4513	
425.06	5170.4	
425.26	7509.9	
425.46	6591.7	
425.66	5634.6	
425.87	5328.1	
426.07	7317.4	
426.27	7115.3	
426.47	5427.8	
426.67	4783.4	
426.88	7608.9	
427.08	7077.8	
427.28	5616.9	
427.48	4790.2	
427.69	5958.2	
427.89	6663.4	
428.09	5663.3	
428.29	4837.3	
428.5	7341.3	
428.7	6826.6	
428.9	4675.5	
429.1	5284.4	
429.3	6726.2	
429.51	7179.5	
429.71	4993.6	
429.91	5792.3	
430.11	7034.8	
430.31	7265.5	
430.52	5311.1	
430.72	5614.2	
430.92	7626	
431.12	7186.3	
431.32	5023	
431.53	5390.3	
431.73	5985.5	
431.93	7761.1	
432.13	4885.1	
432.33	4770.4	
432.54	6500.9	
432.74	6844.3	
432.94	4710.3	
433.14	5831.2	
433.34	7000	
433.55	6522.1	
433.75	5674.9	
433.95	7520.1	
434.15	6799.3	
434.35	6481.8	
434.56	4884.4	
434.76	4379.9	
434.96	6810.2	
435.16	7038.2	
435.36	4737.6	
435.56	5920	
435.77	6393.1	
435.97	6559	
436.17	6596.5	
436.37	5811.5	
436.57	6417	
436.78	6339.1	
436.98	6595.1	
437.18	6524.8	
437.38	7068.9	
437.58	6657.9	
437.78	6629.3	
437.99	5223.7	
438.19	7197.2	
438.39	8533.2	
438.59	5206.6	
438.79	4645.5	
438.99	7786.4	
439.2	6500.3	
439.4	4681.7	
439.6	4694.6	
439.8	6848.4	
440	7968.6	
440.2	5659.2	
440.4	5868.8	
440.61	7283.3	
440.81	7883.3	
441.01	4895.3	
441.21	5911.8	
441.41	7733.1	
441.61	7309.2	
441.81	6164.4	
442.02	7256.6	
442.22	8073.1	
442.42	7428.7	
442.62	5036.6	
442.82	5066	
443.02	7621.2	
443.22	6729.6	
443.43	5465.3	
443.63	4981.3	
443.83	6571.2	
444.03	6584.9	
444.23	6221.7	
444.43	5892.7	
444.63	6957.6	
444.83	8209.6	
445.04	5015.5	
445.24	6513.9	
445.44	7324.9	
445.64	7393.2	
445.84	5963.7	
446.04	5911.1	
446.24	6657.9	
446.44	7746.8	
446.65	5066	
446.85	5492	
447.05	7002.7	
447.25	7617.8	
447.45	5562.3	
447.65	4928.1	
447.85	6987.7	
448.05	6588.3	
448.25	6055.8	
448.46	5777.3	
448.66	6963.8	
448.86	6684.6	
449.06	4712.4	
449.26	6056.5	
449.46	7389.1	
449.66	6353.5	
449.86	5517.9	
450.06	5440.1	
450.26	6561	
450.47	7187.7	
450.67	5737.7	
450.87	6085.9	
451.07	7228	
451.27	7015	
451.47	5072.1	
451.67	5646.9	
451.87	6585.6	
452.07	7844.4	
452.27	5337	
452.47	5258.5	
452.67	7030	
452.88	7587.7	
453.08	4672.8	
453.28	6638.1	
453.48	8144.1	
453.68	6848.4	
453.88	5119.2	
454.08	5378	
454.28	7269.6	
454.48	6917.4	
454.68	5935	
454.88	6542.6	
455.08	7437.5	
455.28	7146	
455.48	4982.7	
455.68	5666	
455.89	7884	
456.09	7543.4	
456.29	5446.9	
456.49	5417.6	
456.69	7767.9	
456.89	6989	
457.09	5961.6	
457.29	6241.5	
457.49	7316	
457.69	7474.4	
457.89	5675.6	
458.09	5101.5	
458.29	7141.9	
458.49	7829.4	
458.69	6208.1	
458.89	5634	
459.09	8077.2	
459.29	8176.2	
459.49	5735.7	
459.69	6470.9	
459.9	7603.4	
460.1	7090.1	
460.3	5574.6	
460.5	5320.6	
460.7	7456.7	
460.9	7233.4	
461.1	5016.8	
461.3	6221.7	
461.5	8186.4	
461.7	7838.3	
461.9	5434.6	
462.1	5872.9	
462.3	7338.6	
462.5	7903.8	
462.7	5481	
462.9	5595.1	
463.1	8884.1	
463.3	8510	
463.5	5756.2	
463.7	6718	
463.9	7423.9	
464.1	7867.6	
464.3	5834.7	
464.5	6174.6	
464.7	8072.4	
464.9	7793.9	
465.1	7524.9	
465.3	6432.7	
465.5	8514.8	
465.7	8438.3	
465.9	6773.3	
466.1	6578.1	
466.3	8164.6	
466.5	8054	
466.7	7450.5	
466.9	6268.8	
467.1	7953.6	
467.3	8933.2	
467.5	7386.3	
467.7	6186.9	
467.9	9134.6	
468.1	10051	
468.3	7106.5	
468.5	7357.7	
468.7	7937.2	
468.9	8023.9	
469.1	6478.4	
469.3	7253.2	
469.5	9867.8	
469.7	7498.3	
469.9	6965.8	
470.1	6262.7	
470.3	7964.6	
470.5	7997.3	
470.7	7511.9	
470.9	6347.3	
471.1	7670.3	
471.3	8229.4	
471.5	6147.3	
471.69	8113.4	
471.89	7582.3	
472.09	7151.5	
472.29	6933.7	
472.49	7413	
472.69	7391.1	
472.89	8155.7	
473.09	6034.7	
473.29	6184.9	
473.49	7471.7	
473.69	7683.3	
473.89	7229.3	
474.09	6361.7	
474.29	8935.3	
474.49	8641.7	
474.69	7093.5	
474.89	6462.7	
475.09	7707.9	
475.29	7587.7	
475.49	5885.9	
475.69	6123.4	
475.88	9354.4	
476.08	7953.6	
476.28	5877.7	
476.48	6341.9	
476.68	8505.2	
476.88	8233.5	
477.08	6083.1	
477.28	6401.3	
477.48	7691.5	
477.68	8373.5	
477.88	5905	
478.08	6303.6	
478.28	8721.6	
478.48	7863.5	
478.67	6298.2	
478.87	5814.2	
479.07	8585.8	
479.27	7948.2	
479.47	6501.6	
479.67	6520	
479.87	8358.4	
480.07	8908	
480.27	5738.4	
480.47	7401.4	
480.67	7997.3	
480.87	8529.8	
481.06	6008.1	
481.26	6873	
481.46	7907.9	
481.66	7849.9	
481.86	6500.3	
482.06	7540.6	
482.26	7605.5	
482.46	8712.1	
482.66	6440.2	
482.86	6072.2	
483.05	7884.7	
483.25	7353.6	
483.45	8883.4	
483.65	6399.9	
483.85	7539.3	
484.05	7824.6	
484.25	6899.6	
484.45	7395.9	
484.65	8700.5	
484.84	8735.3	
485.04	6275.7	
485.24	6299.6	
485.44	9012.4	
485.64	7299	
485.84	5583.4	
486.04	7067.5	
486.24	7657.4	
486.44	8112.7	
486.63	5589.6	
486.83	6395.1	
487.03	7492.8	
487.23	7791.2	
487.43	5702.9	
487.63	8101.1	
487.83	7885.4	
488.02	8987.2	
488.22	6741.9	
488.42	7332.4	
488.62	8743.5	
488.82	7701	
489.02	6382.8	
489.22	6327.5	
489.41	8525.7	
489.61	8222.6	
489.81	6083.1	
490.01	6193.1	
490.21	8516.1	
490.41	9201.5	
490.61	6100.2	
490.8	6212.2	
491	8019.8	
491.2	7330.4	
491.4	6898.2	
491.6	5851.7	
491.8	8013.7	
491.99	8120.9	
492.19	5722.7	
492.39	6064.7	
492.59	8432.2	
492.79	8478.6	
492.99	6862.1	
493.18	6041.5	
493.38	8615.8	
493.58	9383.1	
493.78	6814.3	
493.98	6372.6	
494.18	8229.4	
494.37	7696.9	
494.57	7007.5	
494.77	6870.3	
494.97	8460.2	
495.17	8744.8	
495.37	6406.7	
495.56	6802	
495.76	8979	
495.96	8585.8	
496.16	7665.5	
496.36	6672.3	
496.55	8839.7	
496.75	8419.2	
496.95	7058.7	
497.15	6876.4	
497.35	8731.2	
497.54	8673.8	
497.74	6692.1	
497.94	8463.6	
498.14	9344.2	
498.34	9136.7	
498.53	6249	
498.73	7135.1	
498.93	7958.4	
499.13	8791.9	
499.33	6928.3	
499.52	7360.4	
499.72	8658.1	
499.92	9018.6	
500.12	6641.6	
500.32	6886	
500.51	8985.8	
500.71	8705.2	
500.91	7761.1	
501.11	7296.2	
501.31	8810.4	
501.5	9277.3	
501.7	8001.4	
501.9	6866.2	
502.1	8671.8	
502.29	9024	
502.49	7399.3	
502.69	7927	
502.89	8893.6	
503.09	8888.9	
503.28	6380.8	
503.48	6559	
503.68	7983	
503.88	8125.7	
504.07	7494.9	
504.27	7019.8	
504.47	8447.2	
504.67	8734.6	
504.86	7455.3	
505.06	7097.6	
505.26	8175.5	
505.46	10007	
505.65	7046.4	
505.85	7229.3	
506.05	8107.2	
506.25	8542.1	
506.44	6331	
506.64	7296.2	
506.84	7899	
507.04	8953.7	
507.23	6483.9	
507.43	7093.5	
507.63	10002	
507.83	8215.8	
508.02	7008.1	
508.22	6623.1	
508.42	10295	
508.62	7858.1	
508.81	6859.3	
509.01	7413.6	
509.21	7747.5	
509.4	7922.2	
509.6	6924.9	
509.8	6338.5	
510	7987.8	
510.19	9488.9	
510.39	6438.1	
510.59	6513.2	
510.79	7818.5	
510.98	9223.4	
511.18	6487.3	
511.38	6605.4	
511.57	8673.1	
511.77	8555.7	
511.97	7266.2	
512.17	6313.2	
512.36	8768	
512.56	8615.8	
512.76	6408.1	
512.95	6094.1	
513.15	8741.4	
513.35	7361.1	
513.55	7144	
513.74	6411.5	
513.94	8805.6	
514.14	8074.5	
514.33	7428.7	
514.53	7315.3	
514.73	8065.6	
514.92	8239.7	
515.12	6567.2	
515.32	6399.2	
515.51	8254	
515.71	9002.2	
515.91	8168	
516.11	6533	
516.3	10155	
516.5	7965.2	
516.7	7139.9	
516.89	7685.3	
517.09	8112.7	
517.29	8049.9	
517.48	7393.8	
517.68	6768.5	
517.88	7887.4	
518.07	8559.8	
518.27	7333.1	
518.47	6332.3	
518.66	9135.3	
518.86	7636.9	
519.06	6139.8	
519.25	6690.7	
519.45	8031.5	
519.65	9536.7	
519.84	7232.1	
520.04	8001.4	
520.24	9923.8	
520.43	8716.2	
520.63	7034.8	
520.83	6730.3	
521.02	7831.4	
521.22	8619.2	
521.42	7262.1	
521.61	7736.5	
521.81	8028	
522.01	8267	
522.2	7025.2	
522.4	6854.6	
522.6	8728.4	
522.79	7548.8	
522.99	6896.9	
523.18	6145.3	
523.38	8477.9	
523.58	8373.5	
523.77	8148.9	
523.97	6113.2	
524.17	10266	
524.36	9551.7	
524.56	7527	
524.76	7125.6	
524.95	8366.6	
525.15	8095.6	
525.34	6957.6	
525.54	6936.5	
525.74	8815.8	
525.93	7800	
526.13	8168	
526.33	7017	
526.52	9057.5	
526.72	8542.1	
526.91	8181.6	
527.11	7374.1	
527.31	9122.3	
527.5	9592	
527.7	7253.9	
527.89	6384.9	
528.09	7992.5	
528.29	8614.4	
528.48	7763.8	
528.68	7375.4	
528.87	8942.1	
529.07	9027.4	
529.27	7243.7	
529.46	6776.7	
529.66	8652	
529.85	9103.2	
530.05	6719.4	
530.25	7436.2	
530.44	10042	
530.64	8566	
530.83	7055.9	
531.03	7292.1	
531.23	8905.3	
531.42	8818.6	
531.62	8039	
531.81	7150.8	
532.01	9089.6	
532.21	9559.9	
532.4	6969.2	
532.6	7305.1	
532.79	10085	
532.99	9157.8	
533.18	7308.5	
533.38	8403.5	
533.58	8732.5	
533.77	9444.5	
533.97	7215	
534.16	8021.2	
534.36	9655.5	
534.55	8639.7	
534.75	8270.4	
534.95	7367.2	
535.14	9530.6	
535.34	8671.8	
535.53	7036.8	
535.73	9026.8	
535.92	10063	
536.12	8928.5	
536.31	7130.3	
536.51	8356.4	
536.71	9211.1	
536.9	8677.9	
537.1	7256	
537.29	7353.6	
537.49	9676.7	
537.68	8658.8	
537.88	7821.9	
538.07	6920.8	
538.27	8789.2	
538.46	9901.9	
538.66	6854.6	
538.86	7268.9	
539.05	8907.3	
539.25	9423.4	
539.44	7644.4	
539.64	7319.4	
539.83	8718.2	
540.03	9801.6	
540.22	7144.7	
540.42	7345.4	
540.61	9108	
540.81	9114.8	
541	7630.7	
541.2	8295.6	
541.39	8529.8	
541.59	9012.4	
541.78	7902.4	
541.98	7127.6	
542.18	8285.4	
542.37	8273.1	
542.57	7527.7	
542.76	7981.6	
542.96	8332.5	
543.15	9080	
543.35	7432.1	
543.54	6848.4	
543.74	9353.8	
543.93	8815.1	
544.13	7453.9	
544.32	8525	
544.52	9181.7	
544.71	8217.1	
544.91	6447.7	
545.1	7786.4	
545.3	8353	
545.49	9062.9	
545.69	6467.5	
545.88	7113.3	
546.08	10135	
546.27	9663.7	
546.47	7552.2	
546.66	6935.8	
546.86	9330.5	
547.05	9907.4	
547.24	7129.7	
547.44	6913.3	
547.63	8219.2	
547.83	9453.4	
548.02	7410.2	
548.22	7521.5	
548.41	8059.4	
548.61	9397.4	
548.8	6851.8	
549	6827.9	
549.19	8694.3	
549.39	8986.5	
549.58	6611.5	
549.78	7172	
549.97	9131.2	
550.17	8705.2	
550.36	8035.5	
550.55	9088.2	
550.75	8550.3	
550.94	9530.6	
551.14	6839.5	
551.33	7243.7	
551.53	7941.3	
551.72	8987.9	
551.92	7338.6	
552.11	6992.4	
552.31	9011.7	
552.5	8899.1	
552.69	8839.7	
552.89	6681.2	
553.08	8959.9	
553.28	8637.6	
553.47	7008.8	
553.67	8264.2	
553.86	9700.5	
554.06	7958.4	
554.25	6173.9	
554.44	6860	
554.64	10433	
554.83	9909.4	
555.03	6754.9	
555.22	7264.8	
555.42	9249.3	
555.61	8892.3	
555.8	6990.4	
556	7279.2	
556.19	8000.7	
556.39	9206.3	
556.58	7105.8	
556.78	7056.6	
556.97	8728.4	
557.16	8469	
557.36	8331.8	
557.55	6608.8	
557.75	7720.8	
557.94	9488.9	
558.13	6836.8	
558.33	6561	
558.52	9394	
558.72	8189.8	
558.91	6666.8	
559.1	6899.6	
559.3	7861.5	
559.49	7618.4	
559.69	6276.3	
559.88	7296.9	
560.07	8772.8	
560.27	9141.4	
560.46	7516	
560.66	7747.5	
560.85	8487.5	
561.04	7783	
561.24	6621.8	
561.43	6819.7	
561.63	7954.3	
561.82	8286.1	
562.01	8035.5	
562.21	7083.2	
562.4	8649.9	
562.59	9645.3	
562.79	6944.7	
562.98	6571.9	
563.18	8564.6	
563.37	10068	
563.56	7457.3	
563.76	6432	
563.95	7976.8	
564.14	7916.1	
564.34	6919.4	
564.53	6649.1	
564.73	8548.9	
564.92	8871.1	
565.11	7136.5	
565.31	6469.5	
565.5	9206.3	
565.69	8070.4	
565.89	6694.1	
566.08	6943.3	
566.27	9013.8	
566.47	9471.9	
566.66	7513.3	
566.85	6197.2	
567.05	8499.8	
567.24	7970	
567.44	6592.4	
567.63	7947.5	
567.82	8832.2	
568.02	8499.8	
568.21	6550.1	
568.4	6907.8	
568.6	8423.3	
568.79	8382.3	
568.98	6273.6	
569.18	6554.2	
569.37	8267	
569.56	10393	
569.76	6834.1	
569.95	7820.5	
570.14	8641.1	
570.34	8535.3	
570.53	6315.9	
570.72	6249.7	
570.91	9052.7	
571.11	8129.8	
571.3	6696.9	
571.49	7669	
571.69	8203.5	
571.88	7724.9	
572.07	7316.7	
572.27	7193.8	
572.46	7705.1	
572.65	8757.8	
572.85	6410.8	
573.04	6835.4	
573.23	9036.3	
573.43	8286.8	
573.62	6167.8	
573.81	6873	
574	8256	
574.2	8041	
574.39	6597.9	
574.58	6675	
574.78	9086.8	
574.97	8359.8	
575.16	7058	
575.36	7236.8	
575.55	8681.3	
575.74	8895	
575.93	6172.6	
576.13	7178.1	
576.32	8023.3	
576.51	8626	
576.71	6532.3	
576.9	7947.5	
577.09	8947.6	
577.28	8455.4	
577.48	7088	
577.67	6120	
577.86	8042.4	
578.05	8484.7	
578.25	6735.1	
578.44	6816.3	
578.63	8224	
578.83	9470.5	
579.02	6107	
579.21	7700.4	
579.4	8415.1	
579.6	8131.1	
579.79	6902.3	
579.98	9057.5	
580.17	8800.8	
580.37	8837.7	
580.56	6370.5	
580.75	7058	
580.94	9415.2	
581.14	9211.8	
581.33	7577.5	
581.52	6546	
581.71	8743.5	
581.91	9382.4	
582.1	6211.5	
582.29	6952.9	
582.48	8325	
582.68	8243.1	
582.87	7376.8	
583.06	6986.3	
583.25	8617.2	
583.45	8445.1	
583.64	7607.5	
583.83	8304.5	
584.02	8272.4	
584.21	8663.6	
584.41	7673.7	
584.6	6914.6	
584.79	8349.6	
584.98	9123	
585.18	6361	
585.37	6313.2	
585.56	7903.8	
585.75	8736.6	
585.94	6680.5	
586.14	7304.4	
586.33	9376.3	
586.52	8365.3	
586.71	7170.6	
586.91	6846.4	
587.1	7757	
587.29	8839	
587.48	6713.9	
587.67	6612.9	
587.87	8635.6	
588.06	8727.1	
588.25	7983	
588.44	7228.6	
588.63	8340	
588.83	8863.6	
589.02	6666.1	
589.21	6464.8	
589.4	8042.4	
589.59	7785	
589.78	5775.3	
589.98	5993	
590.17	7376.1	
590.36	7920.9	
590.55	5230.5	
590.74	6115.9	
590.94	9192.6	
591.13	7707.9	
591.32	5791.7	
591.51	5328.8	
591.7	8216.5	
591.89	7639.6	
592.09	5504.3	
592.28	5962.3	
592.47	6913.3	
592.66	8853.4	
592.85	5520	
593.05	5703.6	
593.24	7596.6	
593.43	8301.1	
593.62	5850.4	
593.81	6274.3	
594	7593.2	
594.19	7831.4	
594.39	5791	
594.58	5705.6	
594.77	7962.5	
594.96	8609.7	
595.15	5775.3	
595.34	6335	
595.54	8129.1	
595.73	7044.3	
595.92	5048.2	
596.11	6251.8	
596.3	8493.6	
596.49	7142.6	
596.68	6025.1	
596.88	6549.4	
597.07	8229.4	
597.26	7064.8	
597.45	5588.9	
597.64	6830.7	
597.83	7318.8	
598.02	7933.1	
598.22	5704.3	
598.41	6436.8	
598.6	7759.8	
598.79	7244.3	
598.98	5743.9	
599.17	6695.5	
599.36	7787.7	
599.55	9143.5	
599.74	7903.8	
599.94	7562.5	
600.13	8461.5	
600.32	7269.6	
600.51	5520.6	
600.7	5691.3	
600.89	9093	
601.08	9128.5	
601.27	5504.9	
601.47	6493.4	
601.66	8388.5	
601.85	9155.8	
602.04	6247	
602.23	6522.8	
602.42	7462.8	
602.61	8137.9	
602.8	6162.3	
602.99	5960.3	
603.18	7877.9	
603.37	8105.9	
603.57	6692.8	
603.76	7272.3	
603.95	8916.2	
604.14	8418.5	
604.33	6059.3	
604.52	6425.8	
604.71	8053.3	
604.9	7703.8	
605.09	7080.5	
605.28	6935.8	
605.47	8750.3	
605.66	8432.2	
605.86	6657.9	
606.05	6107.7	
606.24	8675.2	
606.43	7249.1	
606.62	6496.2	
606.81	7291.5	
607	8523	
607.19	7815.7	
607.38	5914.5	
607.57	6121.4	
607.76	7570	
607.95	7159	
608.14	6479.8	
608.33	7139.9	
608.52	7679.9	
608.72	8626	
608.91	5785.5	
609.1	5717.2	
609.29	7780.2	
609.48	7270.3	
609.67	6765.8	
609.86	5799.8	
610.05	7352.9	
610.24	7728.4	
610.43	5634	
610.62	5277.6	
610.81	8891.6	
611	8649.9	
611.19	5744.6	
611.38	6554.9	
611.57	8006.9	
611.76	9407	
611.95	5590.3	
612.14	5474.2	
612.33	7785.7	
612.52	7296.9	
612.71	6157.6	
612.9	5236	
613.09	6932.4	
613.28	9293	
613.47	5776	
613.66	6824.5	
613.85	7867.6	
614.04	7501.7	
614.24	5991	
614.43	5105.6	
614.62	8024.6	
614.81	7901.1	
615	6476.4	
615.19	6434.7	
615.38	7258	
615.57	7550.2	
615.76	6373.3	
615.95	7313.3	
616.14	8048.5	
616.33	7666.9	
616.52	6667.5	
616.71	6950.1	
616.9	8063.5	
617.09	7872.4	
617.28	5973.2	
617.47	7278.5	
617.66	7144.7	
617.85	7071.6	
618.04	6821.8	
618.22	6268.1	
618.41	7433.4	
618.6	8308.6	
618.79	6189	
618.98	5939.8	
619.17	8583.7	
619.36	6941.9	
619.55	6021	
619.74	6079.7	
619.93	7933.1	
620.12	7289.4	
620.31	6716	
620.5	6794.5	
620.69	8480.6	
620.88	8783.7	
621.07	7511.9	
621.26	6548	
621.45	8063.5	
621.64	8001.4	
621.83	6659.3	
622.02	5829.2	
622.21	8079.9	
622.4	7826.7	
622.59	7161.7	
622.78	6842.3	
622.97	7362.4	
623.16	8412.4	
623.35	6504.3	
623.54	5668.8	
623.72	7591.8	
623.91	7826.7	
624.1	6787	
624.29	5451	
624.48	8854.7	
624.67	8091.5	
624.86	6688.7	
625.05	5711.1	
625.24	8890.2	
625.43	7279.2	
625.62	8342.7	
625.81	5914.5	
626	8289.5	
626.19	7541.3	
626.38	6638.8	
626.56	6092.7	
626.75	7419.8	
626.94	8064.2	
627.13	6647.7	
627.32	5309	
627.51	7954.3	
627.7	9412.5	
627.89	5442.1	
628.08	6587	
628.27	7163.8	
628.46	7311.9	
628.65	5659.2	
628.83	5323.4	
629.02	7884.7	
629.21	7190.4	
629.4	6176.7	
629.59	6348	
629.78	7146	
629.97	8127.7	
630.16	6433.4	
630.35	5893.4	
630.54	8539.3	
630.72	8314.1	
630.91	5839.4	
631.1	6442.2	
631.29	7794.6	
631.48	7981.6	
631.67	6502.3	
631.86	5969.8	
632.05	7268.2	
632.24	7421.8	
632.42	5584.8	
632.61	6214.9	
632.8	7563.1	
632.99	7099.6	
633.18	6131.6	
633.37	6651.1	
633.56	7797.3	
633.75	7602.1	
633.93	6219.7	
634.12	5926.1	
634.31	8560.5	
634.5	8192.6	
634.69	6014.9	
634.88	6566.5	
635.07	7505.1	
635.25	8153	
635.44	6919.4	
635.63	7134.4	
635.82	7451.2	
636.01	6978.8	
636.2	6845	
636.39	6402.6	
636.57	8607.6	
636.76	8286.8	
636.95	5852.4	
637.14	7153.6	
637.33	7874.4	
637.52	8808.3	
637.7	5642.2	
637.89	6595.8	
638.08	7480.5	
638.27	8987.9	
638.46	6593.8	
638.65	7164.5	
638.83	8944.8	
639.02	7228	
639.21	6636.1	
639.4	7053.2	
639.59	7895.6	
639.78	7391.8	
639.96	5930.9	
640.15	5914.5	
640.34	7645.7	
640.53	7871.7	
640.72	5526.1	
640.91	5900.2	
641.09	7067.5	
641.28	8568.7	
641.47	5899.5	
641.66	6823.8	
641.85	7775.5	
642.03	8093.6	
642.22	6487.3	
642.41	6064	
642.6	7253.9	
642.79	6709.1	
642.97	5874.9	
643.16	6547.4	
643.35	7212.9	
643.54	6929.6	
643.73	5733.6	
643.91	6463.4	
644.1	6897.6	
644.29	7495.6	
644.48	5758.9	
644.67	5909.1	
644.85	7101	
645.04	7334.5	
645.23	5378	
645.42	5644.2	
645.6	6909.2	
645.79	8063.5	
645.98	5643.5	
646.17	4704.2	
646.36	6535.1	
646.54	7236.2	
646.73	6411.5	
646.92	5188.9	
647.11	6862.1	
647.29	7861.5	
647.48	5251	
647.67	5054.4	
647.86	8104.5	
648.05	8157.1	
648.23	5595.1	
648.42	6959.7	
648.61	7544.7	
648.8	7181.5	
648.98	5256.5	
649.17	5599.8	
649.36	6825.9	
649.55	6305	
649.73	5423.7	
649.92	6167.1	
650.11	6716.7	
650.3	7228	
650.48	5573.2	
650.67	5154.7	
650.86	7374.1	
651.05	6242.9	
651.23	5425.8	
651.42	5367.7	
651.61	6777.4	
651.79	6937.8	
651.98	5631.9	
652.17	5264.6	
652.36	7319.4	
652.54	6417.7	
652.73	5416.2	
652.92	5205.3	
653.11	7367.2	
653.29	7477.8	
653.48	4643.4	
653.67	5610.1	
653.85	7159	
654.04	8181.6	
654.23	5900.9	
654.42	5448.3	
654.6	6733.7	
654.79	7378.1	
654.98	4958.1	
655.16	5436	
655.35	6294.8	
655.54	6176	
655.73	4944.5	
655.91	4857.1	
656.1	7415.7	
656.29	6123.4	
656.47	4505.5	
656.66	6212.9	
656.85	6516.6	
657.03	6545.3	
657.22	5021.6	
657.41	5138.4	
657.59	6580.1	
657.78	6399.9	
657.97	4807.3	
658.16	5574.6	
658.34	7249.1	
658.53	7645.8	
658.72	6466.1	
658.9	6991.8	
659.09	6716	
659.28	6834.8	
659.46	5270.1	
659.65	5285.1	
659.84	6517.3	
660.02	7049.8	
660.21	5105.6	
660.4	5083.1	
660.58	7524.9	
660.77	6894.1	
660.96	5739.8	
661.14	4740.4	
661.33	8062.2	
661.52	7965.2	
661.7	4704.9	
661.89	8543.4	
662.08	6492.1	
662.26	6140.5	
662.45	5018.9	
662.64	5156.8	
662.82	7263.5	
663.01	6403.3	
663.2	5119.2	
663.38	5989.6	
663.57	7164.5	
663.75	6981.5	
663.94	5502.2	
664.13	6851.1	
664.31	6486.6	
664.5	7273	
664.69	5851	
664.87	6348	
665.06	6244.3	
665.25	7040.9	
665.43	6538.5	
665.62	6629.3	
665.8	7326.3	
665.99	6651.8	
666.18	5500.8	
666.36	5547.3	
666.55	7279.2	
666.74	7233.4	
666.92	5111	
667.11	6730.3	
667.29	6650.4	
667.48	7265.5	
667.67	6389.7	
667.85	5569.8	
668.04	6734.4	
668.22	6685.9	
668.41	5573.9	
668.6	5765.7	
668.78	6451.8	
668.97	6710.5	
669.15	5950	
669.34	4901.5	
669.53	6483.9	
669.71	6862.7	
669.9	5055.8	
670.08	5714.5	
670.27	6457.9	
670.46	7121.5	
670.64	5969.8	
670.83	6230.6	
671.01	6395.8	
671.2	6948.1	
671.38	5101.5	
671.57	5141.8	
671.76	7643	
671.94	8202.1	
672.13	4959.5	
672.31	6098.9	
672.5	7214.3	
672.69	6494.1	
672.87	5132.9	
673.06	5445.5	
673.24	7066.9	
673.43	6544.6	
673.61	5933	
673.8	5451	
673.98	7309.2	
674.17	7418.4	
674.36	6049	
674.54	5913.9	
674.73	7064.8	
674.91	7253.2	
675.1	5638.1	
675.28	5226.4	
675.47	6800.6	
675.65	7317.4	
675.84	5401.2	
676.03	5754.8	
676.21	6569.9	
676.4	6056.5	
676.58	6270.2	
676.77	5982.8	
676.95	8023.3	
677.14	6440.2	
677.32	5117.2	
677.51	4872.1	
677.69	7270.3	
677.88	6075.6	
678.06	4956.8	
678.25	5080.3	
678.44	6806.8	
678.62	6506.4	
678.81	4793.6	
678.99	5811.5	
679.18	7609.6	
679.36	7137.9	
679.55	5406	
679.73	6110.5	
679.92	7024.5	
680.1	6492.1	
680.29	6610.2	
680.47	5375.2	
680.66	6514.6	
680.84	7376.1	
681.03	4719.2	
681.21	5694	
681.4	6543.3	
681.58	6447	
681.77	5096	
681.95	5033.2	
682.14	7301.7	
682.32	7637.6	
682.51	6004	
682.69	4820.9	
682.88	6416.3	
683.06	7182.2	
683.25	5728.9	
683.43	6226.5	
683.62	6670.2	
683.8	7208.2	
683.99	6352.1	
684.17	5517.9	
684.36	8036.9	
684.54	6648.4	
684.73	4815.5	
684.91	4945.8	
685.1	6906.4	
685.28	6272.9	
685.46	5470.1	
685.65	5525.4	
685.83	7038.2	
686.02	6395.1	
686.2	4920.6	
686.39	5035.3	
686.57	6081.1	
686.76	7703.8	
686.94	4940.4	
687.13	5092.6	
687.31	6910.5	
687.5	6393.1	
687.68	4463.2	
687.86	5844.2	
688.05	7950.2	
688.23	5836.7	
688.42	5731.6	
688.6	5001.8	
688.79	6260	
688.97	6296.1	
689.16	5441.5	
689.34	4216.1	
689.52	7142.6	
689.71	7341.3	
689.89	5705	
690.08	4966.3	
690.26	6640.2	
690.45	6374	
690.63	5844.9	
690.81	5040.1	
691	6275.7	
691.18	6155.5	
691.37	5105.6	
691.55	7473.7	
691.74	6122.1	
691.92	8168	
692.1	5233.2	
692.29	4603.8	
692.47	6353.5	
692.66	5628.5	
692.84	4838.7	
693.02	5459.2	
693.21	5745.9	
693.39	6284.5	
693.58	5515.9	
693.76	4932.2	
693.94	7556.3	
694.13	7236.8	
694.31	4883.7	
694.5	6042.9	
694.68	6135	
694.86	6581.5	
695.05	5285.1	
695.23	5758.9	
695.42	6901	
695.6	9342.2	
695.78	5984.2	
695.97	5092.6	
696.15	7021.8	
696.34	6335.1	
696.52	4790.2	
696.7	5635.3	
696.89	6719.4	
697.07	6002.6	
697.25	5500.2	
697.44	7032	
697.62	6641.6	
697.81	6976.7	
697.99	5190.9	
698.17	5717.2	
698.36	5973.2	
698.54	6570.6	
698.72	5477	
698.91	4483.7	
699.09	6238.8	
699.28	6094.8	
699.46	5186.1	
699.64	5048.9	
699.83	6008.7	
700.01	7378.1	
700.19	5902.9	
700.38	4260.5	
700.56	7331	
700.74	6079.1	
700.93	4693.3	
701.11	5526.1	
701.29	6743.3	
701.48	7785.7	
701.66	4964.3	
701.84	5003.9	
702.03	6379.4	
702.21	6913.9	
702.39	4538.3	
702.58	5172.5	
702.76	6735.8	
702.94	6804	
703.13	4558.8	
703.31	7015.7	
703.49	5968.5	
703.68	7393.2	
703.86	4642.7	
704.04	5669.5	
704.23	6541.9	
704.41	6932.4	
704.59	4859.8	
704.78	6177.4	
704.96	7660.8	
705.14	7051.2	
705.33	4641.4	
705.51	5603.9	
705.69	6329.6	
705.87	7251.9	
706.06	5909.8	
706.24	4697.4	
706.42	6718.7	
706.61	7004.1	
706.79	5980.8	
706.97	4667.3	
707.16	6249.7	
707.34	6842.3	
707.52	5915.9	
707.7	4911	
707.89	6449.1	
708.07	5938.4	
708.25	5859.2	
708.44	5896.1	
708.62	6259.3	
708.8	7481.2	
708.98	6175.3	
709.17	5048.9	
709.35	6690	
709.53	6705.7	
709.72	4737	
709.9	4924	
710.08	6966.5	
710.26	7004.7	
710.45	6415.6	
710.63	5159.5	
710.81	6719.4	
710.99	6628.6	
711.18	5746.6	
711.36	5203.9	
711.54	6569.9	
711.72	7224.6	
711.91	5319.9	
712.09	4788.2	
712.27	6642.9	
712.45	7278.5	
712.64	5625.8	
712.82	4505.5	
713	6011.5	
713.18	6242.9	
713.37	4748.6	
713.55	6016.2	
713.73	7164.5	
713.91	5653.1	
714.1	5085.1	
714.28	4503.5	
714.46	6747.4	
714.64	5910.4	
714.83	3948.5	
715.01	4845.5	
715.19	6008.1	
715.37	5449.6	
715.55	4502.1	
715.74	4857.8	
715.92	7019.1	
716.1	4937	
716.28	5953.4	
716.47	5000.5	
716.65	5672.2	
716.83	5732.9	
717.01	4861.9	
717.19	4941.7	
717.38	7892.2	
717.56	5447.6	
717.74	5122	
717.92	4169.7	
718.1	6702.3	
718.29	5909.1	
718.47	3817.4	
718.65	4516.5	
718.83	6533	
719.01	6498.9	
719.2	3741	
719.38	4871.4	
719.56	6204.7	
719.74	7840.3	
719.92	4403.1	
720.11	5635.3	
720.29	6283.2	
720.47	5420.3	
720.65	4022.2	
720.83	4871.4	
721.02	5799.2	
721.2	5539.8	
721.38	5001.1	
721.56	4184	
721.74	5053.7	
721.92	5241.4	
722.11	5455.1	
722.29	5116.5	
722.47	6551.5	
722.65	5652.4	
722.83	4171	
723.01	5194.3	
723.2	5760.3	
723.38	6042.9	
723.56	3603.7	
723.74	4866	
723.92	5230.5	
724.1	6425.2	
724.29	4196.3	
724.47	5361.6	
724.65	5356.8	
724.83	5242.1	
725.01	4004.5	
725.19	4986.1	
725.37	5379.3	
725.56	5416.2	
725.74	3984	
725.92	4150.6	
726.1	5238	
726.28	5593	
726.46	4568.3	
726.64	4326	
726.83	5543.9	
727.01	5863.3	
727.19	3846.8	
727.37	4790.9	
727.55	5644.9	
727.73	6248.4	
727.91	3854.3	
728.09	3738.2	
728.28	6229.2	
728.46	6957.6	
728.64	4849.6	
728.82	4794.3	
729	7362.4	
729.18	6665.5	
729.36	4082.3	
729.54	6528.9	
729.72	7705.1	
729.91	5935.7	
730.09	6095.4	
730.27	4727.4	
730.45	5785.5	
730.63	6526.2	
730.81	5448.3	
730.99	4446.1	
731.17	6995.2	
731.35	5593.7	
731.53	4928.1	
731.71	4615.4	
731.9	6755.6	
732.08	6970.6	
732.26	4842.1	
732.44	4485.1	
732.62	6974.7	
732.8	6443.6	
732.98	5338.4	
733.16	4277.5	
733.34	6380.8	
733.52	5199.1	
733.7	4803.9	
733.88	5107	
734.07	6259.3	
734.25	5991	
734.43	4279.6	
734.61	5994.4	
734.79	7593.9	
734.97	5945.9	
735.15	4421.6	
735.33	4814.1	
735.51	6358.3	
735.69	5953.4	
735.87	5938.4	
736.05	5077.6	
736.23	6186.9	
736.41	6022.4	
736.59	4858.5	
736.77	4971.1	
736.95	6614.9	
737.13	6019.7	
737.32	4554.7	
737.5	4825	
737.68	7232.7	
737.86	5924.8	
738.04	4268	
738.22	6316.6	
738.4	5787.6	
738.58	6141.2	
738.76	5069.4	
738.94	3926	
739.12	5933.6	
739.3	5765.7	
739.48	5680.4	
739.66	5402.5	
739.84	6227.9	
740.02	6210.1	
740.2	4046.1	
740.38	4487.1	
740.56	6630	
740.74	5489.2	
740.92	5165	
741.1	5119.2	
741.28	6048.3	
741.46	5889.3	
741.64	4653.7	
741.82	5237.3	
742	6075.6	
742.18	6025.8	
742.36	4825.7	
742.54	4549.9	
742.72	6705.7	
742.9	5365.7	
743.08	5297.4	
743.26	4059.8	
743.44	6916	
743.62	6701	
743.8	5492.7	
743.98	4496.7	
744.16	6451.8	
744.34	6113.2	
744.52	5365	
744.7	5370.5	
744.88	6524.8	
745.06	6029.2	
745.24	5381.4	
745.42	5568.4	
745.6	6633.4	
745.78	6408.1	
745.96	4171.7	
746.14	4519.2	
746.32	7467.6	
746.5	6653.9	
746.68	5197.1	
746.86	4629.1	
747.03	7178.1	
747.21	5339.1	
747.39	5229.8	
747.57	4628.4	
747.75	6316.6	
747.93	6691.4	
748.11	4571.7	
748.29	4483.7	
748.47	7820.5	
748.65	6029.9	
748.83	5330.9	
749.01	4986.8	
749.19	6524.1	
749.37	5500.2	
749.55	4925.4	
749.73	4872.8	
749.91	6076.3	
750.09	5851.7	
750.26	5008	
750.44	4354	
750.62	6113.9	
750.8	6176	
750.98	4266.6	
751.16	4537.6	
751.34	6225.1	
751.52	5545.2	
751.7	5453.1	
751.88	4200.4	
752.06	6610.2	
752.24	6478.4	
752.42	4138.9	
752.59	4563.6	
752.77	6051.7	
752.95	7394.5	
753.13	5319.9	
753.31	4615.4	
753.49	5716.6	
753.67	6219	
753.85	4969.1	
754.03	4603.2	
754.21	6509.1	
754.38	6935.8	
754.56	4794.3	
754.74	3746.4	
754.92	5812.8	
755.1	6563.7	
755.28	3855	
755.46	3961.5	
755.64	7311.9	
755.82	7475.8	
755.99	4194.9	
756.17	4360.1	
756.35	4859.8	
756.53	6564.4	
756.71	3166.8	
756.89	4082.3	
757.07	6083.8	
757.25	5083.7	
757.42	4685.1	
757.6	5563	
757.78	6070.9	
757.96	4979.3	
758.14	4344.4	
758.32	3822.9	
758.5	4564.9	
758.67	5466	
758.85	4132.8	
759.03	4286.4	
759.21	5665.4	
759.39	5003.2	
759.57	3676.8	
759.75	4911	
759.92	6219.7	
760.1	5464	
760.28	5283.1	
760.46	5499.5	
760.64	5268.1	
760.82	4995	
760.99	5102.2	
761.17	4220.2	
761.35	6124.8	
761.53	5051.7	
761.71	4358.1	
761.89	5101.5	
762.06	6041.5	
762.24	5483.8	
762.42	4403.8	
762.6	4179.9	
762.78	5527.5	
762.96	6180.8	
763.13	4785.4	
763.31	4455.7	
763.49	6419.7	
763.67	5453.1	
763.85	5313.1	
764.02	6015.6	
764.2	6607.4	
764.38	5825.8	
764.56	4344.4	
764.74	5298.8	
764.91	6789	
765.09	5582.1	
765.27	4046.1	
765.45	3853.6	
765.63	6726.2	
765.8	6642.9	
765.98	3571.7	
766.16	3974.4	
766.34	5201.8	
766.52	5023	
766.69	4915.1	
766.87	3766.9	
767.05	5608	
767.23	6384.2	
767.41	4147.1	
767.58	4386.1	
767.76	6164.4	
767.94	6334.4	
768.12	4220.2	
768.29	5009.3	
768.47	5657.2	
768.65	6467.5	
768.83	3836.5	
769	5093.3	
769.18	5221.6	
769.36	6008.7	
769.54	5053	
769.72	3875.4	
769.89	6277.7	
770.07	6403.3	
770.25	4182	
770.43	5565	
770.6	7144	
770.78	7542.7	
770.96	4351.9	
771.14	4317.8	
771.31	6119.3	
771.49	5515.2	
771.67	3523.2	
771.85	3831.1	
772.02	4739	
772.2	5543.9	
772.38	4635.2	
772.55	4091.8	
772.73	5812.8	
772.91	5599.8	
773.09	4471.4	
773.26	4545.1	
773.44	5705.6	
773.62	5457.8	
773.8	3968.3	
773.97	3718.4	
774.15	5935.7	
774.33	5475.6	
774.5	3870	
774.68	4226.3	
774.86	6059.3	
775.04	5475.6	
775.21	3986.7	
775.39	3972.4	
775.57	5786.2	
775.74	6183.5	
775.92	3839.3	
776.1	3719.1	
776.27	5763.7	
776.45	7004.7	
776.63	3913	
776.81	3467.9	
776.98	5404.6	
777.16	6540.5	
777.34	4035.9	
777.51	4104.8	
777.69	5373.9	
777.87	5152	
778.04	4075.5	
778.22	4804.5	
778.4	5188.2	
778.57	5931.6	
778.75	3477.5	
778.93	3661.1	
779.1	4977.2	
779.28	4859.1	
779.46	3409.2	
779.64	3945.1	
779.81	6074.3	
779.99	7008.8	
780.17	4715.1	
780.34	4936.3	
780.52	5414.1	
780.69	5696.8	
780.87	4344.4	
781.05	3846.8	
781.22	5529.5	
781.4	5686.5	
781.58	3986.7	
781.75	3172.3	
781.93	5597.1	
782.11	4980	
782.28	4944.5	
782.46	3960.8	
782.64	4795.7	
782.81	5836.7	
782.99	4093.9	
783.17	4043.4	
783.34	5671.5	
783.52	4814.8	
783.69	4265.9	
783.87	5095.3	
784.05	4990.9	
784.22	4988.2	
784.4	5023.7	
784.58	4349.9	
784.75	5974.6	
784.93	5051.7	
785.1	4001	
785.28	4656.4	
785.46	5692	
785.63	4959.5	
785.81	3968.3	
785.99	3774.4	
786.16	5161.6	
786.34	5562.3	
786.51	3859.1	
786.69	4293.9	
786.87	4776.5	
787.04	5287.2	
787.22	3699.3	
787.39	4740.4	
787.57	5008	
787.75	6096.8	
787.92	4865.3	
788.1	4888.5	
788.27	5078.3	
788.45	4765.6	
788.63	4592.9	
788.8	3224.2	
788.98	5560.2	
789.15	4726	
789.33	3391.4	
789.5	4064.5	
789.68	6000.5	
789.86	6116.6	
790.03	4496	
790.21	3895.9	
790.38	5930.2	
790.56	5145.2	
790.73	3754.6	
790.91	3814.7	
791.09	5036	
791.26	5821.7	
791.44	4044.7	
791.61	3420.8	
791.79	5008.6	
791.96	5152.7	
792.14	3605.8	
792.32	3154.6	
792.49	5117.2	
792.67	5177.3	
792.84	3706.8	
793.02	3486.3	
793.19	5494	
793.37	6261.3	
793.54	3184.6	
793.72	3519.8	
793.89	6475.7	
794.07	5083.7	
794.25	4158.7	
794.42	3227.6	
794.6	6136.4	
794.77	5722.7	
794.95	4461.8	
795.12	3841.3	
795.3	5029.8	
795.47	5712.5	
795.65	4319.2	
795.82	4056.3	
796	4823.6	
796.17	6784.9	
796.35	3983.3	
796.52	4754	
796.7	5593.7	
796.87	5750.7	
797.05	4926	
797.22	4850.3	
797.4	5745.2	
797.57	6740.5	
797.75	4088.4	
797.92	3837.2	
798.1	6013.5	
798.27	5050.3	
798.45	3297.2	
798.62	3563.5	
798.8	5323.4	
798.97	5876.3	
799.15	4399	
799.32	4122.6	
799.5	4661.2	
799.67	5427.8	
799.85	4468	
800.02	3206.4	
800.2	5025	
800.37	5356.1	
800.55	4617.5	
800.72	3829.7	
800.9	5840.1	
801.07	6288.6	
801.25	5240.8	
801.42	4261.1	
801.6	5842.9	
801.77	5541.8	
801.95	3949.2	
802.12	3738.2	
802.29	5580	
802.47	5582.8	
802.64	4291.9	
802.82	3179.1	
802.99	5007.3	
803.17	6060.6	
803.34	4094.6	
803.52	3693.2	
803.69	6736.5	
803.87	4775.9	
804.04	4088.4	
804.21	4174.4	
804.39	6165.8	
804.56	5225.7	
804.74	3476.1	
804.91	4287.8	
805.09	5073.5	
805.26	5198.4	
805.44	3543	
805.61	3939.6	
805.78	5672.2	
805.96	5776	
806.13	4293.9	
806.31	4620.2	
806.48	4524	
806.66	5111.7	
806.83	4214.7	
807	4188.1	
807.18	4962.9	
807.35	5440.8	
807.53	4165.6	
807.7	3254.9	
807.87	6263.4	
808.05	5109	
808.22	4597	
808.4	3278.1	
808.57	5074.9	
808.74	4745.8	
808.92	3766.9	
809.09	4877.6	
809.27	4939.7	
809.44	5547.9	
809.61	3383.2	
809.79	3646.7	
809.96	6253.8	
810.14	5867.4	
810.31	3237.8	
810.48	4016.1	
810.66	5184.8	
810.83	5981.4	
811.01	3721.2	
811.18	4240.7	
811.35	5824.4	
811.53	4498	
811.7	4584.7	
811.87	4320.5	
812.05	5061.9	
812.22	4979.3	
812.39	3648.8	
812.57	3558.7	
812.74	5090.6	
812.92	6900.3	
813.09	3992.2	
813.26	4366.3	
813.44	6576.7	
813.61	5025	
813.78	3306.8	
813.96	4491.2	
814.13	5086.5	
814.3	4706.9	
814.48	4878.9	
814.65	3962.8	
814.82	6380.1	
815	4839.4	
815.17	4098	
815.34	5036.6	
815.52	5035.3	
815.69	4967.7	
815.87	4063.9	
816.04	3455.6	
816.21	5139.7	
816.38	4489.8	
816.56	3880.9	
816.73	3689.1	
816.9	6472.9	
817.08	5877	
817.25	3670	
817.42	4730.1	
817.6	4660.5	
817.77	5083.7	
817.94	4195.6	
818.12	3650.8	
818.29	4811.4	
818.46	7665.5	
818.64	3833.1	
818.81	3588	
818.98	4728.1	
819.16	7009.5	
819.33	4471.4	
819.5	4112.3	
819.67	5477.6	
819.85	6133.7	
820.02	4027	
820.19	4298	
820.37	5382.7	
820.54	4845.5	
820.71	4199.7	
820.88	5216.2	
821.06	5325.4	
821.23	4843.4	
821.4	4215.4	
821.58	4169	
821.75	5879.7	
821.92	5263.3	
822.09	3329.3	
822.27	3500	
822.44	5113.1	
822.61	5016.2	
822.79	3337.5	
822.96	6595.8	
823.13	5649	
823.3	4801.8	
823.48	3938.9	
823.65	3512.9	
823.82	5767.8	
823.99	4644.8	
824.17	4997	
824.34	3645.4	
824.51	6733.7	
824.68	5201.8	
824.86	3710.9	
825.03	4167.6	
825.2	5081.7	
825.37	6269.5	
825.55	3676.8	
825.72	4100.7	
825.89	6811.5	
826.06	6341.2	
826.24	4008.6	
826.41	3966.9	
826.58	6265.4	
826.75	5406.6	
826.92	3113.6	
827.1	3502	
827.27	8540	
827.44	6829.3	
827.61	3848.1	
827.79	4655	
827.96	4805.2	
828.13	5171.8	
828.3	3938.9	
828.47	3349.1	
828.65	5326.1	
828.82	5284.4	
828.99	5219.6	
829.16	4489.1	
829.34	5754.8	
829.51	5478.3	
829.68	4153.3	
829.85	4289.1	
830.02	6026.5	
830.2	5780.7	
830.37	3168.9	
830.54	5025	
830.71	6573.3	
830.88	5081.7	
831.05	3261.7	
831.23	3747.8	
831.4	6247	
831.57	7018.4	
831.74	3823.6	
831.91	3390.8	
832.09	5366.4	
832.26	5752.7	
832.43	3959.4	
832.6	4468	
832.77	5379.3	
832.94	6137.8	
833.12	3153.9	
833.29	3890.5	
833.46	4941.1	
833.63	7345.4	
833.8	4329.4	
833.97	4009.2	
834.15	5737.7	
834.32	5537.7	
834.49	4152.6	
834.66	4255	
834.83	6025.1	
835	4787.5	
835.17	3898.6	
835.35	3875.4	
835.52	5634	
835.69	5477.6	
835.86	4114.4	
836.03	3331.4	
836.2	5684.5	
836.37	5302.2	
836.55	3986	
836.72	3728.7	
836.89	5221.6	
837.06	5754.1	
837.23	4091.8	
837.4	4440	
837.57	6497.5	
837.75	7256	
837.92	3631.7	
838.09	3851.5	
838.26	5241.4	
838.43	6105	
838.6	4138.9	
838.77	3689.8	
838.94	6866.8	
839.11	6589.7	
839.29	4000.4	
839.46	3130	
839.63	5700.2	
839.8	5465.3	
839.97	3845.4	
840.14	3773.7	
840.31	5504.3	
840.48	5729.5	
840.65	3211.2	
840.82	3742.3	
841	5721.3	
841.17	5619.6	
841.34	3522.5	
841.51	3601	
841.68	5598.5	
841.85	5395.7	
842.02	3702.7	
842.19	3019.4	
842.36	5446.2	
842.53	5487.2	
842.7	3537.5	
842.87	4341	
843.05	7254.6	
843.22	5371.8	
843.39	3277.4	
843.56	3594.2	
843.73	5164.3	
843.9	5793	
844.07	5831.9	
844.24	4830.5	
844.41	8486.1	
844.58	4886.5	
844.75	3395.5	
844.92	3732.1	
845.09	5705.6	
845.26	5680.4	
845.43	3479.5	
845.6	3700.7	
845.77	5687.9	
845.94	5427.1	
846.12	3913	
846.29	4122.6	
846.46	5961.6	
846.63	5736.4	
846.8	3502.7	
846.97	4210.6	
847.14	6176.7	
847.31	5631.9	
847.48	3951.2	
847.65	4382.7	
847.82	6017.6	
847.99	5901.6	
848.16	4684.4	
848.33	4373.8	
848.5	5231.2	
848.67	6238.8	
848.84	3506.1	
849.01	3662.5	
849.18	5105.6	
849.35	4779.3	
849.52	4427.7	
849.69	3465.2	
849.86	5894.7	
850.03	6122.7	
850.2	3529.3	
850.37	4341	
850.54	6083.8	
850.71	5376.6	
850.88	4238.6	
851.05	3421.5	
851.22	5591.6	
851.39	6291.4	
851.56	3306.8	
851.73	4044.7	
851.9	4980.7	
852.07	5924.1	
852.24	3905.5	
852.41	3534.1	
852.58	5526.8	
852.75	5010	
852.92	4052.9	
853.09	3455.6	
853.26	5338.4	
853.43	6170.5	
853.6	3482.2	
853.77	2942.2	
853.94	6324.8	
854.11	5631.9	
854.28	5235.3	
854.44	3845.4	
854.61	6599.9	
854.78	5831.2	
854.95	3505.4	
855.12	4431.8	
855.29	4582	
855.46	6375.3	
855.63	3464.5	
855.8	4888.5	
855.97	5289.2	
856.14	6080.4	
856.31	5000.5	
856.48	3837.9	
856.65	5251.7	
856.82	4997.7	
856.99	3348.4	
857.16	3768.3	
857.33	7050.5	
857.49	5377.3	
857.66	3757.3	
857.83	4091.8	
858	5324.7	
858.17	5450.3	
858.34	3349.8	
858.51	3537.5	
858.68	6414.2	
858.85	6487.3	
859.02	4143.7	
859.19	4328.7	
859.36	4959.5	
859.52	5055.1	
859.69	3540.9	
859.86	4085.7	
860.03	5093.3	
860.2	6343.9	
860.37	3132.7	
860.54	3596.2	
860.71	5913.2	
860.88	6410.1	
861.05	3936.2	
861.21	4451.6	
861.38	6387.6	
861.55	4881.7	
861.72	3209.2	
861.89	3916.4	
862.06	6015.6	
862.23	6569.9	
862.4	3407.8	
862.56	3682.2	
862.73	5758.9	
862.9	5445.5	
863.07	4078.9	
863.24	3168.9	
863.41	4904.9	
863.58	5008	
863.75	3579.8	
863.91	4047.5	
864.08	6363.7	
864.25	5854.5	
864.42	4492.6	
864.59	4947.2	
864.76	6677.7	
864.93	5036.6	
865.09	3402.4	
865.26	3738.2	
865.43	6203.3	
865.6	6604.7	
865.77	3065.8	
865.94	3448.1	
866.1	6253.8	
866.27	6015.6	
866.44	5390.9	
866.61	3290.4	
866.78	5376.6	
866.95	5861.3	
867.11	3347.1	
867.28	3140.2	
867.45	6094.8	
867.62	5006.6	
867.79	4089.8	
867.96	3446.7	
868.12	5019.6	
868.29	5998.5	
868.46	3543.7	
868.63	4708.3	
868.8	6111.8	
868.97	5870.2	
869.13	3674.1	
869.3	3698.6	
869.47	5781.4	
869.64	6036	
869.81	3547.1	
869.97	3553.2	
870.14	5696.1	
870.31	6392.4	
870.48	3434.4	
870.65	4425	
870.81	5304.2	
870.98	5253	
871.15	4041.3	
871.32	3602.4	
871.48	5806.7	
871.65	6421.1	
871.82	3497.9	
871.99	3891.1	
872.16	6845	
872.32	6186.9	
872.49	3520.5	
872.66	3590.1	
872.83	5930.2	
872.99	5218.2	
873.16	4091.2	
873.33	3513.6	
873.5	5559.6	
873.67	5567.1	
873.83	3692.5	
874	4784.7	
874.17	5743.9	
874.34	6842.3	
874.5	4559.5	
874.67	4391.5	
874.84	6390.3	
875.01	5025.7	
875.17	4991.6	
875.34	3505.4	
875.51	5622.4	
875.68	6850.5	
875.84	4257	
876.01	5114.5	
876.18	5872.2	
876.34	5866.1	
876.51	3571	
876.68	3449.5	
876.85	5350	
877.01	6205.3	
877.18	5036.6	
877.35	3498.6	
877.52	5494	
877.68	4948.6	
877.85	3404.4	
878.02	3479.5	
878.18	5480.4	
878.35	5210.7	
878.52	2867.2	
878.69	3903.4	
878.85	5967.1	
879.02	5889.3	
879.19	5049.6	
879.35	3786	
879.52	5864.7	
879.69	6139.1	
879.86	3011.9	
880.02	3977.2	
880.19	5444.9	
880.36	6645.7	
880.52	4068.6	
880.69	4237.9	
880.86	6105	
881.02	6109.8	
881.19	3881.6	
881.36	3803.8	
881.52	5848.3	
881.69	5195	
881.86	3793.5	
882.02	3654.3	
882.19	6236.1	
882.36	7268.9	
882.52	3593.5	
882.69	5048.2	
882.86	5688.6	
883.02	5542.5	
883.19	4309.6	
883.36	4078.9	
883.52	6014.9	
883.69	6851.8	
883.86	3549.8	
884.02	3220.8	
884.19	5973.2	
884.36	5489.2	
884.52	3969.6	
884.69	3728	
884.86	5184.8	
885.02	6666.1	
885.19	3979.2	
885.36	4118.5	
885.52	5463.3	
885.69	5644.2	
885.86	5154.7	
886.02	4499.4	
886.19	5938.4	
886.35	5387.5	
886.52	3879.5	
886.69	5014.1	
886.85	5017.5	
887.02	6321.4	
887.19	6321.4	
887.35	6321.4	
887.52	6321.4	
887.68	6321.4	
887.85	6321.4	
888.02	6321.4	
888.18	6321.4	
888.35	6321.4	
888.51	6321.4	
888.68	6321.4	
888.85	6321.4	
889.01	6321.4	
889.18	6321.4	
889.35	6321.4	
889.51	6321.4	
889.68	6321.4	
889.84	6321.4	
890.01	6321.4	
890.17	6321.4	
890.34	6321.4	
890.51	6321.4	
890.67	6321.4	
890.84	6321.4	
891	6321.4	
891.17	6321.4	
891.34	6321.4	
891.5	6321.4	
891.67	6321.4	
891.83	6321.4	
892	6321.4	
892.16	6321.4	
892.33	6321.4	
892.5	6321.4	
892.66	6321.4	
892.83	6321.4	
892.99	6321.4	
893.16	6321.4	
893.32	6321.4	
893.49	6321.4	
893.65	6321.4	
893.82	6321.4	
893.99	6321.4	
894.15	6321.4	
894.32	6321.4	
894.48	6321.4	
894.65	6321.4	
894.81	6321.4	
894.98	6321.4	
895.14	6321.4	
895.31	6321.4	
895.47	6321.4	
895.64	6321.4	
895.81	6321.4	
895.97	6321.4	
896.14	6321.4	
896.3	6321.4	
896.47	6321.4	
896.63	6321.4	
896.8	6321.4	
896.96	6321.4	
897.13	6321.4	
897.29	6321.4	
897.46	6321.4	
897.62	6321.4	
897.79	6321.4	
897.95	6321.4	
898.12	6321.4	
898.28	6321.4	
898.45	6321.4	
898.61	6321.4	
898.78	6321.4	
898.94	6321.4	
899.11	6321.4	
899.27	6321.4	
899.44	6321.4	
899.6	6321.4	
899.77	6321.4	
899.93	6321.4	
900.1	6321.4	
900.26	6321.4	
900.43	6321.4	
900.59	6321.4	
900.76	6321.4	
900.92	6321.4	
901.09	6321.4	
901.25	6321.4	
901.42	6321.4	
901.58	6321.4	
901.75	6321.4	
901.91	6321.4	
902.07	6321.4	
902.24	6321.4	
902.4	6321.4	
902.57	6321.4	
902.73	6321.4	
902.9	6321.4	
903.06	6321.4	
903.23	6321.4	
903.39	6321.4	
903.56	6321.4	
903.72	6321.4	
903.88	6321.4	
904.05	6321.4	
904.21	6321.4	
904.38	6321.4	
904.54	6321.4	
904.71	6321.4	
904.87	6321.4	
905.03	6321.4	
905.2	6321.4	
905.36	6321.4	
905.53	6321.4	
905.69	6321.4	
905.86	6321.4	
906.02	6321.4	
906.18	6321.4	
906.35	6321.4	
906.51	6321.4	
906.68	6321.4	
906.84	6321.4	
907.01	6321.4	
907.17	6321.4	
907.33	6321.4	
907.5	6321.4	
907.66	6321.4	
907.83	6321.4	
907.99	6321.4	
908.15	6321.4	
908.32	6321.4	
908.48	6321.4	
908.65	6321.4	
908.81	6321.4	
908.97	6321.4	
909.14	6321.4	
909.3	6321.4	
909.47	6321.4	
909.63	6321.4	
909.79	6321.4	
909.96	6321.4	
910.12	6321.4	
910.28	6321.4	
910.45	6321.4	
910.61	6321.4	
910.78	6321.4	
910.94	6321.4	
911.1	6321.4	
911.27	6321.4	
911.43	6321.4	
911.59	6321.4	
911.76	6321.4	
911.92	6321.4	
912.08	6321.4	
912.25	6321.4	
912.41	6321.4	
912.57	6321.4	
912.74	6321.4	
912.9	6321.4	
913.07	6321.4	
913.23	6321.4	
913.39	6321.4	
913.56	6321.4	
913.72	6321.4	
913.88	6321.4	
914.05	6321.4	
914.21	6321.4	
914.37	6321.4	
914.54	6321.4	
914.7	6321.4	
914.86	6321.4	
915.03	6321.4	
915.19	6321.4	
