Wavelength	Intensities	
nm	a.u.	
179.22	1950.3	
179.44	1947.6	
179.65	1953.1	
179.86	1942.2	
180.08	1931.9	
180.29	5024.3	
180.51	3577.1	
180.72	5794.4	
180.94	6748.7	
181.15	3362.8	
181.37	3286.3	
181.58	5683.1	
181.79	5920	
182.01	3435.1	
182.22	3756	
182.44	5898.8	
182.65	4917.9	
182.87	4756.7	
183.08	4097.3	
183.29	6145.3	
183.51	5099.4	
183.72	3796.3	
183.94	5558.9	
184.15	5463.3	
184.37	5531.6	
184.58	3280.2	
184.79	4589.5	
185.01	5113.1	
185.22	5869.5	
185.44	4824.3	
185.65	4063.2	
185.86	5371.8	
186.08	4983.4	
186.29	3200.3	
186.51	3465.8	
186.72	5152.7	
186.94	6051.7	
187.15	4005.1	
187.36	4128.7	
187.58	8058.8	
187.79	5635.3	
188.01	4336.9	
188.22	6816.3	
188.43	6769.2	
188.65	5879.7	
188.86	3454.2	
189.08	4147.8	
189.29	5313.8	
189.5	5366.4	
189.72	3877.5	
189.93	3867.2	
190.15	6141.9	
190.36	7344.7	
190.57	4261.8	
190.79	4145.8	
191	6222.4	
191.22	6171.2	
191.43	4185.4	
191.64	3419.4	
191.86	6341.9	
192.07	6185.5	
192.29	3611.9	
192.5	3926.6	
192.71	6111.8	
192.93	5244.8	
193.14	3774.4	
193.35	3917.1	
193.57	5276.3	
193.78	6193.7	
194	3116.3	
194.21	3713	
194.42	5055.8	
194.64	5543.9	
194.85	4142.4	
195.07	4960.9	
195.28	5624.4	
195.49	4765.6	
195.71	5167.7	
195.92	3545	
196.13	5735.7	
196.35	5877.7	
196.56	5530.9	
196.78	4188.8	
196.99	7241.6	
197.2	6726.2	
197.42	4747.2	
197.63	4213.4	
197.84	4969.1	
198.06	5740.5	
198.27	3897.3	
198.48	5157.5	
198.7	5286.5	
198.91	5386.2	
199.13	4195.6	
199.34	4216.8	
199.55	6008.1	
199.77	4791.6	
199.98	3706.1	
200.19	4252.9	
200.41	5447.6	
200.62	5130.8	
200.83	4358.8	
201.05	4647.5	
201.26	5433.3	
201.47	5184.1	
201.69	3715.7	
201.9	3535.5	
202.11	5441.5	
202.33	6516.6	
202.54	4012.7	
202.76	4464.6	
202.97	5713.2	
203.18	5657.2	
203.4	4390.8	
203.61	4262.5	
203.82	5586.2	
204.04	5166.3	
204.25	4293.9	
204.46	4143	
204.68	5552	
204.89	5804.6	
205.1	4120.5	
205.32	3546.4	
205.53	5988.9	
205.74	6096.8	
205.96	2997.5	
206.17	4280.3	
206.38	5892.7	
206.6	6087.2	
206.81	4790.2	
207.02	3956	
207.24	5702.9	
207.45	6187.6	
207.66	3979.9	
207.88	3407.1	
208.09	5770.5	
208.3	5496.7	
208.52	3646.7	
208.73	4074.8	
208.94	5567.1	
209.15	6281.1	
209.37	3988.8	
209.58	4222.9	
209.79	6085.9	
210.01	5296	
210.22	3144.3	
210.43	3343	
210.65	5569.8	
210.86	5955.5	
211.07	3961.5	
211.29	3611.9	
211.5	5902.2	
211.71	5458.5	
211.93	3622.9	
212.14	3649.5	
212.35	5382.7	
212.56	5738.4	
212.78	4225.6	
212.99	3407.1	
213.2	6490	
213.42	5218.9	
213.63	3723.9	
213.84	4101.4	
214.06	4919.2	
214.27	5004.6	
214.48	3967.6	
214.69	4272.7	
214.91	6288.6	
215.12	6325.5	
215.33	4354	
215.55	4749.9	
215.76	6893.5	
215.97	5933.6	
216.18	4136.9	
216.4	3984.7	
216.61	5126.1	
216.82	6034	
217.04	3676.1	
217.25	3848.8	
217.46	6255.2	
217.67	5955.5	
217.89	3280.2	
218.1	3365.5	
218.31	5628.5	
218.53	5739.8	
218.74	3828.3	
218.95	3687	
219.16	5475.6	
219.38	6421.1	
219.59	3759.4	
219.8	4587.4	
220.01	7177.4	
220.23	5560.9	
220.44	4995.7	
220.65	3646.7	
220.87	5571.8	
221.08	6200.6	
221.29	3362.1	
221.5	4537.6	
221.72	7617.8	
221.93	5229.1	
222.14	4169	
222.35	5018.2	
222.57	5531.6	
222.78	5918.6	
222.99	3968.3	
223.2	4323.9	
223.42	5837.4	
223.63	6034.7	
223.84	3042.6	
224.05	3037.8	
224.27	7131	
224.48	6457.2	
224.69	5010.7	
224.9	4237.9	
225.12	5722	
225.33	5529.5	
225.54	3368.2	
225.75	3756	
225.97	5051.7	
226.18	5397.8	
226.39	4065.2	
226.6	3756	
226.82	5313.1	
227.03	5143.1	
227.24	4191.5	
227.45	3478.8	
227.67	5925.5	
227.88	6526.9	
228.09	4726	
228.3	4674.8	
228.52	5963.7	
228.73	5495.4	
228.94	3873.4	
229.15	3440.6	
229.36	5421.7	
229.58	5358.2	
229.79	3928.7	
230	4628.4	
230.21	6629.3	
230.43	5645.6	
230.64	4164.2	
230.85	4367.6	
231.06	5872.9	
231.28	6034.7	
231.49	3429	
231.7	4078.9	
231.91	5830.6	
232.12	5610.1	
232.34	3500.7	
232.55	4026.3	
232.76	6180.1	
232.97	5724.8	
233.18	3652.9	
233.4	4170.3	
233.61	5826.5	
233.82	5248.3	
234.03	3843.4	
234.25	3796.3	
234.46	7740.6	
234.67	5575.3	
234.88	4333.5	
235.09	3721.8	
235.31	5901.6	
235.52	5399.1	
235.73	4139.6	
235.94	3457	
236.15	5266.7	
236.37	6764.4	
236.58	3662.5	
236.79	3949.8	
237	5883.8	
237.21	5008	
237.43	4362.9	
237.64	3409.2	
237.85	10256	
238.06	5081	
238.27	4416.8	
238.48	3472	
238.7	5913.9	
238.91	5337	
239.12	4009.9	
239.33	4010.6	
239.54	5129.5	
239.76	5489.2	
239.97	3984.7	
240.18	4034.5	
240.39	7000.6	
240.6	5834	
240.82	4176.5	
241.03	3368.9	
241.24	5532.9	
241.45	6490	
241.66	3663.1	
241.87	4316.4	
242.09	6274.3	
242.3	6685.9	
242.51	4430.4	
242.72	4057.7	
242.93	6023.1	
243.14	5528.2	
243.36	4674.1	
243.57	5104.2	
243.78	6332.3	
243.99	5968.5	
244.2	4092.5	
244.41	3681.6	
244.63	5041.4	
244.84	5813.5	
245.05	4306.9	
245.26	4003.8	
245.47	5825.8	
245.68	6144.6	
245.9	5443.5	
246.11	4246.8	
246.32	5406	
246.53	5767.1	
246.74	6567.8	
246.95	3351.8	
247.16	5018.2	
247.38	5533.6	
247.59	3336.8	
247.8	4052.2	
248.01	5154.7	
248.22	5483.8	
248.43	3648.1	
248.64	3912.3	
248.86	4855.1	
249.07	5259.2	
249.28	3521.8	
249.49	4130.1	
249.7	6133.7	
249.91	6275	
250.12	3324.5	
250.34	3321.1	
250.55	5668.1	
250.76	5563	
250.97	4158.7	
251.18	4218.8	
251.39	6249	
251.6	5698.1	
251.81	4341	
252.03	4183.3	
252.24	5182.7	
252.45	6077.7	
252.66	3512.9	
252.87	4491.2	
253.08	5567.7	
253.29	7406.1	
253.5	3458.3	
253.72	4934.2	
253.93	5369.8	
254.14	6581.5	
254.35	3810.6	
254.56	3930.7	
254.77	5837.4	
254.98	5127.4	
255.19	3778.5	
255.41	4906.9	
255.62	5659.9	
255.83	6281.8	
256.04	4329.4	
256.25	4167.6	
256.46	6859.3	
256.67	5251	
256.88	4194.2	
257.09	4652.3	
257.31	5134.3	
257.52	5192.3	
257.73	5221	
257.94	3765.5	
258.15	5328.1	
258.36	5642.2	
258.57	4802.5	
258.78	3016.7	
258.99	6089.3	
259.2	5378.6	
259.41	3823.6	
259.63	3950.5	
259.84	6398.5	
260.05	6851.1	
260.26	5143.1	
260.47	3745.7	
260.68	6168.5	
260.89	5475.6	
261.1	4655.7	
261.31	3653.6	
261.52	6152.1	
261.73	6499.6	
261.95	5024.3	
262.16	4374.5	
262.37	6318	
262.58	6389.7	
262.79	4914.4	
263	3962.8	
263.21	5653.8	
263.42	5068.7	
263.63	3956	
263.84	3845.4	
264.05	6115.9	
264.26	6528.2	
264.47	4827.1	
264.69	4407.9	
264.9	6234	
265.11	5801.9	
265.32	3723.2	
265.53	3866.6	
265.74	5660.6	
265.95	4915.1	
266.16	4127.3	
266.37	4549.9	
266.58	5664.7	
266.79	5360.2	
267	3788.1	
267.21	3489.7	
267.42	5040.7	
267.63	5487.9	
267.84	3985.3	
268.06	3436.5	
268.27	5984.8	
268.48	6283.2	
268.69	3900	
268.9	4693.9	
269.11	6268.8	
269.32	4988.2	
269.53	4035.2	
269.74	3743	
269.95	5911.1	
270.16	4891.2	
270.37	3999.7	
270.58	4687.8	
270.79	5352.7	
271	6032.6	
271.21	4303.5	
271.42	4022.9	
271.63	5675.6	
271.84	5126.1	
272.05	3160	
272.26	3642.7	
272.47	5570.5	
272.68	5711.1	
272.89	3814.7	
273.11	4521.2	
273.32	5294	
273.53	6563.1	
273.74	4390.2	
273.95	4231.8	
274.16	6205.3	
274.37	5621	
274.58	4406.5	
274.79	3495.9	
275	5671.5	
275.21	6312.5	
275.42	5269.4	
275.63	4559.5	
275.84	5824.4	
276.05	7314	
276.26	4218.1	
276.47	4035.9	
276.68	5388.2	
276.89	6678.4	
277.1	4553.3	
277.31	3519.1	
277.52	5846.3	
277.73	6006	
277.94	3450.8	
278.15	3894.6	
278.36	5778.7	
278.57	5216.2	
278.78	3822.9	
278.99	4435.9	
279.2	5126.1	
279.41	5127.4	
279.62	5119.9	
279.83	3568.2	
280.04	6791.1	
280.25	5025.7	
280.46	5061.9	
280.67	4113.7	
280.88	5102.9	
281.09	6212.9	
281.3	4312.3	
281.51	5343.8	
281.72	6069.5	
281.93	6097.5	
282.14	3754.6	
282.35	4088.4	
282.56	6098.9	
282.77	6009.4	
282.98	3883.6	
283.19	4821.6	
283.4	7530.4	
283.61	5509.7	
283.82	3571.7	
284.03	5064.6	
284.24	5668.8	
284.45	6225.8	
284.66	5019.6	
284.87	4818.9	
285.08	6105.7	
285.29	6264.1	
285.5	3411.2	
285.71	3941	
285.92	6287.9	
286.12	6877.1	
286.33	4949.3	
286.54	3868.6	
286.75	6096.8	
286.96	5406	
287.17	3609.9	
287.38	4896.7	
287.59	5177.9	
287.8	5016.2	
288.01	3969.6	
288.22	4533.5	
288.43	6101.6	
288.64	5103.5	
288.85	4695.3	
289.06	4466.6	
289.27	6040.8	
289.48	6604	
289.69	5038	
289.9	4578.6	
290.11	6163	
290.32	5209.3	
290.53	4782.7	
290.74	4372.4	
290.94	6022.4	
291.15	6113.2	
291.36	3893.9	
291.57	4483.7	
291.78	5269.4	
291.99	4930.1	
292.2	3636.5	
292.41	4404.5	
292.62	6213.5	
292.83	5956.9	
293.04	5465.3	
293.25	3606.5	
293.46	5351.3	
293.67	6206	
293.88	3768.9	
294.09	3622.9	
294.29	5051.7	
294.5	5643.5	
294.71	4038.6	
294.92	3872	
295.13	5326.8	
295.34	6664.1	
295.55	3418.1	
295.76	3465.8	
295.97	5980.1	
296.18	6768.5	
296.39	3540.9	
296.6	3810.6	
296.81	5586.9	
297.01	6013.5	
297.22	3955.3	
297.43	3776.5	
297.64	5177.3	
297.85	5099.4	
298.06	3067.2	
298.27	3390.1	
298.48	5608.7	
298.69	5266	
298.9	4065.2	
299.11	3734.1	
299.31	5057.1	
299.52	5059.2	
299.73	4383.3	
299.94	4266.6	
300.15	5502.9	
300.36	5166.3	
300.57	4308.9	
300.78	4332.8	
300.99	5332.9	
301.2	5723.4	
301.4	3718.4	
301.61	4103.4	
301.82	5844.2	
302.03	5993	
302.24	4603.2	
302.45	3595.6	
302.66	5841.5	
302.87	6423.1	
303.08	3779.2	
303.29	5272.8	
303.49	5276.9	
303.7	5619.6	
303.91	3382.6	
304.12	4913.8	
304.33	5098.1	
304.54	5729.5	
304.75	3805.1	
304.96	3642.7	
305.16	5851.7	
305.37	6656.6	
305.58	3263.8	
305.79	3430.3	
306	5942.5	
306.21	4889.9	
306.42	3729.4	
306.63	5818.3	
306.83	5376.6	
307.04	6234	
307.25	4169.7	
307.46	4077.5	
307.67	4681	
307.88	6066.8	
308.09	3683.6	
308.29	3913	
308.5	5692.7	
308.71	6193.1	
308.92	4028.4	
309.13	3632.4	
309.34	5392.3	
309.55	5467.4	
309.75	4718.5	
309.96	4340.3	
310.17	6013.5	
310.38	5250.3	
310.59	4584	
310.8	4261.1	
311.01	6782.2	
311.21	5470.8	
311.42	3554.6	
311.63	3710.2	
311.84	5264	
312.05	5758.9	
312.26	4205.2	
312.46	4642.7	
312.67	5403.9	
312.88	5089.9	
313.09	3690.4	
313.3	3563.5	
313.51	6354.2	
313.71	6771.3	
313.92	3596.9	
314.13	3861.1	
314.34	5778.7	
314.55	5410.7	
314.76	4738.3	
314.96	4053.6	
315.17	5612.1	
315.38	5980.8	
315.59	3671.3	
315.8	3487	
316.01	6556.9	
316.21	6515.3	
316.42	3506.1	
316.63	4089.8	
316.84	5423	
317.05	6326.9	
317.26	4323.3	
317.46	3887.7	
317.67	5462.6	
317.88	5920.7	
318.09	4660.5	
318.3	3373.7	
318.5	5267.4	
318.71	5920	
318.92	5946.6	
319.13	4290.5	
319.34	6105.7	
319.54	6240.8	
319.75	3455.6	
319.96	3257.6	
320.17	5939.8	
320.38	6173.3	
320.58	3341.6	
320.79	4028.4	
321	6178.7	
321.21	6243.6	
321.42	4010.6	
321.62	3367.5	
321.83	5144.5	
322.04	5598.5	
322.25	3837.2	
322.46	3655.6	
322.66	5655.1	
322.87	5885.2	
323.08	4520.5	
323.29	3582.6	
323.5	6669.6	
323.7	5057.1	
323.91	4972.5	
324.12	4431.8	
324.33	5640.1	
324.53	5920.7	
324.74	4291.2	
324.95	4582	
325.16	4901.5	
325.37	5364.3	
325.57	3586	
325.78	3744.4	
325.99	5662	
326.2	5051	
326.4	5234.6	
326.61	3377.8	
326.82	5502.2	
327.03	5688.6	
327.24	5232.6	
327.44	5031.2	
327.65	5829.2	
327.86	4638	
328.07	4291.2	
328.27	3495.9	
328.48	6281.1	
328.69	5162.9	
328.9	5292	
329.1	3917.8	
329.31	5449.6	
329.52	6419	
329.73	3639.2	
329.93	4164.9	
330.14	5496.1	
330.35	5818.3	
330.56	6143.9	
330.76	4506.9	
330.97	5324.7	
331.18	5752.1	
331.39	4071.4	
331.59	3276.1	
331.8	6186.2	
332.01	6320	
332.22	3764.8	
332.42	4311.7	
332.63	5657.9	
332.84	5239.4	
333.05	4134.2	
333.25	3775.8	
333.46	5350.7	
333.67	5624.4	
333.88	3847.5	
334.08	4295.3	
334.29	7471.7	
334.5	6324.1	
334.7	3585.3	
334.91	5300.1	
335.12	5061.2	
335.33	6001.2	
335.53	4067.9	
335.74	6005.3	
335.95	5288.5	
336.16	5219.6	
336.36	4092.5	
336.57	4738.3	
336.78	5030.5	
336.98	6217.6	
337.19	5015.5	
337.4	3977.8	
337.61	6752.8	
337.81	5066	
338.02	3722.5	
338.23	4884.4	
338.43	6346	
338.64	5166.3	
338.85	3678.8	
339.05	4837.3	
339.26	6483.2	
339.47	4926.7	
339.68	3647.4	
339.88	5446.2	
340.09	5804.6	
340.3	6054.5	
340.5	4337.6	
340.71	3291.8	
340.92	4989.5	
341.13	6369.9	
341.33	3543.7	
341.54	4314.4	
341.75	5746.6	
341.95	5427.1	
342.16	4130.1	
342.37	4481	
342.57	5134.9	
342.78	5483.1	
342.99	4596.3	
343.19	3280.2	
343.4	5946.6	
343.61	5848.3	
343.81	3895.9	
344.02	3568.2	
344.23	6038.1	
344.43	6399.2	
344.64	4560.1	
344.85	4490.5	
345.06	5836	
345.26	6198.5	
345.47	4244.1	
345.68	5027.8	
345.88	4891.9	
346.09	6051.7	
346.3	4351.3	
346.5	3236.5	
346.71	5607.3	
346.92	5201.2	
347.12	3330.7	
347.33	4215.4	
347.54	6198.5	
347.74	6574	
347.95	4217.5	
348.16	3084.2	
348.36	5375.9	
348.57	5190.2	
348.78	4157.4	
348.98	4538.3	
349.19	5482.4	
349.39	4998.4	
349.6	3375.1	
349.81	3739.6	
350.01	5789.6	
350.22	5287.2	
350.43	4066.6	
350.63	4919.2	
350.84	5588.2	
351.05	5328.8	
351.25	3697.9	
351.46	3336.1	
351.67	6176	
351.87	5221.6	
352.08	3997.6	
352.29	4496.7	
352.49	6045.6	
352.7	6152.8	
352.9	3523.2	
353.11	4471.4	
353.32	6776.7	
353.52	5367.7	
353.73	3472	
353.94	4505.5	
354.14	5857.9	
354.35	5673.6	
354.55	3613.3	
354.76	4024.3	
354.97	5829.2	
355.17	5605.3	
355.38	3383.2	
355.59	4842.1	
355.79	5232.6	
356	5717.2	
356.2	3972.4	
356.41	3453.6	
356.62	4897.4	
356.82	5427.1	
357.03	4269.3	
357.24	3827.7	
357.44	5245.5	
357.65	5318.6	
357.85	5168.4	
358.06	4092.5	
358.27	4903.5	
358.47	5190.2	
358.68	3315	
358.88	4199.7	
359.09	5789.6	
359.3	6145.3	
359.5	4974.5	
359.71	4460.5	
359.91	6651.8	
360.12	5934.3	
360.33	4186	
360.53	4688.5	
360.74	5169.8	
360.94	5306.3	
361.15	4492.6	
361.36	3651.5	
361.56	6061.3	
361.77	5406	
361.97	4987.5	
362.18	3855.6	
362.38	6042.2	
362.59	5052.3	
362.8	3572.3	
363	3381.9	
363.21	4808.6	
363.41	5453.7	
363.62	4065.2	
363.83	5193.6	
364.03	5638.7	
364.24	6636.1	
364.44	5327.4	
364.65	5223.7	
364.85	5384.1	
365.06	4989.5	
365.27	3717.7	
365.47	3772.4	
365.68	6357.6	
365.88	5293.3	
366.09	4166.9	
366.29	3835.8	
366.5	5653.1	
366.71	6085.2	
366.91	5189.6	
367.12	4310.3	
367.32	6680.5	
367.53	5878.4	
367.73	4323.9	
367.94	5238.7	
368.14	5786.2	
368.35	6747.4	
368.56	4230.4	
368.76	3974.4	
368.97	5983.5	
369.17	7780.9	
369.38	3740.3	
369.58	3998.3	
369.79	4975.9	
369.99	6323.4	
370.2	5066.7	
370.4	4130.1	
370.61	5629.2	
370.82	6889.4	
371.02	3994.9	
371.23	3260.4	
371.43	4795	
371.64	6255.2	
371.84	3981.9	
372.05	5237.3	
372.25	7565.9	
372.46	5913.2	
372.66	3952.6	
372.87	3911.6	
373.07	5952.1	
373.28	7725.6	
373.48	5062.6	
373.69	4723.3	
373.9	5416.2	
374.1	5405.3	
374.31	4935.6	
374.51	4420.9	
374.72	6270.9	
374.92	5030.5	
375.13	5119.2	
375.33	4286.4	
375.54	5790.3	
375.74	5225.1	
375.95	4332.1	
376.15	5584.1	
376.36	5672.9	
376.56	5577.3	
376.77	4336.9	
376.97	4881	
377.18	6874.3	
377.38	5874.9	
377.59	5156.8	
377.79	3766.2	
378	5594.4	
378.2	6093.4	
378.41	3901.4	
378.61	3757.3	
378.82	6111.8	
379.02	5180.7	
379.23	3996.3	
379.43	5206.6	
379.64	6120	
379.84	5764.3	
380.05	3861.1	
380.25	3744.4	
380.46	5899.5	
380.66	5410.7	
380.87	5249.6	
381.07	5614.2	
381.28	6550.1	
381.48	5846.3	
381.69	3908.2	
381.89	3873.4	
382.1	4804.5	
382.3	6094.8	
382.51	5064.6	
382.71	6007.4	
382.91	5952.8	
383.12	6507.1	
383.32	4304.8	
383.53	4459.1	
383.73	5671.5	
383.94	5526.8	
384.14	4364.2	
384.35	3514.3	
384.55	5535.7	
384.76	5991	
384.96	4225	
385.17	4596.3	
385.37	5929.6	
385.58	5238	
385.78	4687.8	
385.98	3405.1	
386.19	5379.3	
386.39	5772.5	
386.6	4003.1	
386.8	4269.3	
387.01	5966.4	
387.21	5915.9	
387.42	4747.2	
387.62	5317.9	
387.83	5190.2	
388.03	5918.6	
388.23	4281.6	
388.44	5161.6	
388.64	4842.8	
388.85	4965.6	
389.05	4627	
389.26	5365.7	
389.46	6614.9	
389.67	6250.4	
389.87	4597.7	
390.07	4671.4	
390.28	5456.5	
390.48	5065.3	
390.69	3858.4	
390.89	4111	
391.1	5242.8	
391.3	6197.8	
391.5	5358.2	
391.71	5999.2	
391.91	5952.1	
392.12	7030.7	
392.32	5455.8	
392.53	4625	
392.73	5309.7	
392.93	5531.6	
393.14	4235.9	
393.34	5134.3	
393.55	6098.9	
393.75	5477	
393.95	4344.4	
394.16	4247.5	
394.36	5233.9	
394.57	5963.7	
394.77	3749.1	
394.98	4220.2	
395.18	5203.2	
395.38	5397.8	
395.59	5088.5	
395.79	3951.2	
396	5291.3	
396.2	5809.4	
396.4	4807.9	
396.61	4686.4	
396.81	5999.2	
397.02	5240.1	
397.22	5061.2	
397.42	5115.1	
397.63	5967.8	
397.83	5096.7	
398.04	3885	
398.24	4420.9	
398.44	5769.8	
398.65	4717.2	
398.85	3686.3	
399.05	3833.8	
399.26	5106.3	
399.46	6868.9	
399.67	4268	
399.87	3954.6	
400.07	5407.3	
400.28	5800.5	
400.48	4023.6	
400.69	5162.9	
400.89	6027.9	
401.09	6462.7	
401.3	3801.7	
401.5	5040.7	
401.7	6702.3	
401.91	6996.5	
402.11	4191.5	
402.32	4496.7	
402.52	5997.8	
402.72	5984.2	
402.93	4726.7	
403.13	3493.2	
403.33	6887.3	
403.54	5506.3	
403.74	4446.8	
403.94	5373.9	
404.15	5643.5	
404.35	6793.1	
404.56	4164.2	
404.76	6062.7	
404.96	6101.6	
405.17	5828.5	
405.37	5451	
405.57	4638	
405.78	6064.7	
405.98	5468.1	
406.18	4126.7	
406.39	5188.9	
406.59	6078.4	
406.79	5634.6	
407	3972.4	
407.2	4096.6	
407.4	6081.8	
407.61	6289.3	
407.81	3983.3	
408.01	6217.6	
408.22	4900.8	
408.42	7029.3	
408.62	5053.7	
408.83	4470	
409.03	5508.4	
409.23	5236	
409.44	4560.8	
409.64	4870.1	
409.84	6426.5	
410.05	6227.2	
410.25	4594.3	
410.45	4364.9	
410.66	5629.9	
410.86	8241.7	
411.06	4737.6	
411.27	4649.6	
411.47	7880.6	
411.67	5821	
411.88	4855.1	
412.08	5040.1	
412.28	6424.5	
412.49	6965.1	
412.69	4561.5	
412.89	4508.9	
413.09	6716	
413.3	6626.5	
413.5	4693.3	
413.7	4225.6	
413.91	5819	
414.11	6730.3	
414.31	4473.4	
414.52	4849.6	
414.72	6330.3	
414.92	6198.5	
415.12	4407.2	
415.33	4995	
415.53	6645.7	
415.73	6870.9	
415.94	5358.9	
416.14	4762.2	
416.34	5563.6	
416.55	5442.1	
416.75	6002.6	
416.95	5378.6	
417.15	6557.6	
417.36	7442.3	
417.56	6146	
417.76	5195.7	
417.97	7027.3	
418.17	6601.3	
418.37	4748.6	
418.57	4841.4	
418.78	6381.5	
418.98	6036	
419.18	5691.3	
419.38	5628.5	
419.59	6064.7	
419.79	5760.9	
419.99	4627	
420.2	5062.6	
420.4	6597.9	
420.6	6842.3	
420.8	4521.9	
421.01	4396.3	
421.21	6395.8	
421.41	6709.8	
421.61	4954	
421.82	4703.5	
422.02	5819.6	
422.22	6915.3	
422.42	5537.7	
422.63	5165.7	
422.83	6096.8	
423.03	7291.5	
423.23	5238.7	
423.44	4113	
423.64	6178.7	
423.84	5896.1	
424.04	4653	
424.25	4238.6	
424.45	7110.5	
424.65	7096.2	
424.85	4017.4	
425.06	4681	
425.26	7062.8	
425.46	5592.3	
425.66	5203.2	
425.87	4846.2	
426.07	6858	
426.27	6723.5	
426.47	5059.8	
426.67	4325.3	
426.88	7232.7	
427.08	6650.4	
427.28	5270.1	
427.48	4328.7	
427.69	5520.6	
427.89	6222.4	
428.09	5259.2	
428.29	4350.6	
428.5	6942.6	
428.7	6379.4	
428.9	4160.8	
429.1	4854.4	
429.3	6291.4	
429.51	6716	
429.71	4552.6	
429.91	5354.1	
430.11	6642.2	
430.31	6881.2	
430.52	4857.1	
430.72	5068.7	
430.92	7208.2	
431.12	6645.7	
431.32	4461.2	
431.53	4975.2	
431.73	5479.7	
431.93	7157.7	
432.13	4364.2	
432.33	4274.1	
432.54	5952.1	
432.74	6350.1	
432.94	4115.7	
433.14	5323.4	
433.34	6473.6	
433.55	5930.2	
433.75	5246.9	
433.95	7076.4	
434.15	6225.1	
434.35	5870.8	
434.56	4385.4	
434.76	3809.9	
434.96	6259.3	
435.16	6438.1	
435.36	4192.2	
435.56	5281	
435.77	5811.5	
435.97	5970.5	
436.17	6076.3	
436.37	5307.7	
436.57	5838.8	
436.78	5677	
436.98	6363.7	
437.18	5943.9	
437.38	6438.8	
437.58	5989.6	
437.78	6092	
437.99	4609.3	
438.19	6578.8	
438.39	7453.2	
438.59	4569	
438.79	4056.3	
438.99	7231.4	
439.2	6027.9	
439.4	4287.8	
439.6	4131.4	
439.8	6359.6	
440	7485.3	
440.2	5227.1	
440.4	5281	
440.61	6603.3	
440.81	7206.8	
441.01	4251.6	
441.21	5175.2	
441.41	7008.8	
441.61	6685.9	
441.81	5498.8	
442.02	6655.2	
442.22	7580.9	
442.42	6763.8	
442.62	4310.3	
442.82	4374.5	
443.02	7004.1	
443.22	6118.6	
443.43	4767.7	
443.63	4286.4	
443.83	5852.4	
444.03	5984.2	
444.23	5554.1	
444.43	5145.2	
444.63	6184.2	
444.83	7559.1	
445.04	4394.9	
445.24	5766.4	
445.44	6636.8	
445.64	6678.4	
445.84	5264.6	
446.04	5294	
446.24	6026.5	
446.44	7051.2	
446.65	4440	
446.85	4832.5	
447.05	6158.2	
447.25	6950.8	
447.45	4956.1	
447.65	4282.3	
447.85	6333	
448.05	5993.7	
448.25	5363.6	
448.46	5108.3	
448.66	6309.1	
448.86	6016.9	
449.06	4161.5	
449.26	5430.5	
449.46	6689.3	
449.66	5686.5	
449.86	4773.8	
450.06	4840.7	
450.26	5878.4	
450.47	6472.3	
450.67	5079.6	
450.87	5449.6	
451.07	6583.5	
451.27	6323.4	
451.47	4439.3	
451.67	4878.3	
451.87	5890.6	
452.07	7232.7	
452.27	4564.9	
452.47	4579.9	
452.67	6255.2	
452.88	6827.9	
453.08	3975.8	
453.28	6040.8	
453.48	7563.1	
453.68	6333.7	
453.88	4427.7	
454.08	4700.1	
454.28	6603.3	
454.48	6259.3	
454.68	5295.4	
454.88	5850.4	
455.08	6761.7	
455.28	6432	
455.48	4330.1	
455.68	4870.8	
455.89	7203.4	
456.09	6817.7	
456.29	4659.1	
456.49	4668	
456.69	6966.5	
456.89	6266.8	
457.09	5152.7	
457.29	5494	
457.49	6579.4	
457.69	6681.2	
457.89	4851.6	
458.09	4304.8	
458.29	6169.2	
458.49	6963.1	
458.69	5328.1	
458.89	4747.2	
459.09	7208.8	
459.29	7388.4	
459.49	4878.9	
459.69	5698.1	
459.9	6787.7	
460.1	6199.2	
460.3	4732.2	
460.5	4519.9	
460.7	6683.9	
460.9	6299.6	
461.1	4068.6	
461.3	5528.2	
461.5	7305.1	
461.7	6916.7	
461.9	4463.9	
462.1	4998.4	
462.3	6294.1	
462.5	6969.9	
462.7	4517.1	
462.9	4625	
463.1	8002.1	
463.3	7610.9	
463.5	4818.9	
463.7	5698.1	
463.9	6372.6	
464.1	6827.2	
464.3	4815.5	
464.5	5134.3	
464.7	7068.9	
464.9	6608.1	
465.1	6545.3	
465.3	5490.6	
465.5	7462.8	
465.7	7374.7	
465.9	5567.1	
466.1	5606.7	
466.3	7118.7	
466.5	7014.3	
466.7	6329.6	
466.9	5211.4	
467.1	6915.3	
467.3	7959.1	
467.5	6242.9	
467.7	5085.8	
467.9	8069.7	
468.1	9075.2	
468.3	5919.3	
468.5	6367.1	
468.7	6752.2	
468.9	6847	
469.1	5343.8	
469.3	6070.9	
469.5	8916.2	
469.7	6281.8	
469.9	5939.1	
470.1	5152.7	
470.3	6736.5	
470.5	6797.2	
470.7	6456.6	
470.9	5203.2	
471.1	6487.3	
471.3	7098.9	
471.5	5010	
471.69	7081.2	
471.89	6450.4	
472.09	5980.1	
472.29	5830.6	
472.49	6300.9	
472.69	6187.6	
472.89	7102.4	
473.09	4944.5	
473.29	5150	
473.49	6393.1	
473.69	6684.6	
473.89	6118.6	
474.09	5309.7	
474.29	7901.7	
474.49	7532.4	
474.69	6047	
474.89	5439.4	
475.09	6642.9	
475.29	6576.7	
475.49	4836.6	
475.69	5108.3	
475.88	8318.2	
476.08	6896.2	
476.28	4790.9	
476.48	5272.8	
476.68	7503.8	
476.88	7296.2	
477.08	5101.5	
477.28	5446.2	
477.48	6697.5	
477.68	7455.3	
477.88	4909.7	
478.08	5223.7	
478.28	7763.2	
478.48	6941.2	
478.67	5378	
478.87	4846.9	
479.07	7565.2	
479.27	7040.9	
479.47	5547.3	
479.67	5539.1	
479.87	7339.9	
480.07	7893.6	
480.27	4707.6	
480.47	6528.9	
480.67	7072.3	
480.87	7621.2	
481.06	4982	
481.26	5975.3	
481.46	6943.3	
481.66	6817.7	
481.86	5467.4	
482.06	6614.9	
482.26	6599.9	
482.46	7685.3	
482.66	5510.4	
482.86	5040.7	
483.05	6925.5	
483.25	6404	
483.45	8001.4	
483.65	5473.5	
483.85	6498.9	
484.05	6821.8	
484.25	5894.7	
484.45	6338.5	
484.65	7860.8	
484.84	7767.3	
485.04	5339.1	
485.24	5337.7	
485.44	7989.8	
485.64	6307.1	
485.84	4521.9	
486.04	6041.5	
486.24	6602	
486.44	7071	
486.63	4508.3	
486.83	5331.5	
487.03	6408.1	
487.23	6687.3	
487.43	4583.4	
487.63	7128.3	
487.83	6817.7	
488.02	7778.9	
488.22	5575.9	
488.42	6253.8	
488.62	7651.2	
488.82	6514.6	
489.02	5233.2	
489.22	5230.5	
489.41	7545.4	
489.61	7107.1	
489.81	5014.1	
490.01	4960.9	
490.21	7421.2	
490.41	8163.9	
490.61	4728.1	
490.8	5076.9	
491	6876.4	
491.2	6154.8	
491.4	5763	
491.6	4792.9	
491.8	6968.6	
491.99	7079.8	
492.19	4678.2	
492.39	5074.9	
492.59	7466.2	
492.79	7466.2	
492.99	5963.7	
493.18	4947.9	
493.38	7502.4	
493.58	8230.8	
493.78	5618.3	
493.98	5198.4	
494.18	7159	
494.37	6474.3	
494.57	5754.1	
494.77	5715.2	
494.97	7217	
495.17	7447.8	
495.37	5161.6	
495.56	5526.8	
495.76	7669	
495.96	7320.8	
496.16	6388.3	
496.36	5252.4	
496.55	7487.4	
496.75	6959.7	
496.95	5646.9	
497.15	5546.6	
497.35	7453.9	
497.54	7335.8	
497.74	5253	
497.94	7161.7	
498.14	8125	
498.34	8015.1	
498.53	4924.7	
498.73	5856.5	
498.93	6703	
499.13	7387	
499.33	5587.5	
499.52	6073.6	
499.72	7247.8	
499.92	7603.4	
500.12	5169.8	
500.32	5583.4	
500.51	7606.2	
500.71	7323.5	
500.91	6296.1	
501.11	5903.6	
501.31	7466.9	
501.5	7931.8	
501.7	6635.4	
501.9	5552.7	
502.1	7248.4	
502.29	7669.6	
502.49	5947.3	
502.69	6563.7	
502.89	7466.9	
503.09	7441	
503.28	5035.3	
503.48	5093.3	
503.68	6695.5	
503.88	6748.1	
504.07	6169.8	
504.27	5672.2	
504.47	7101.7	
504.67	7329	
504.86	6112.5	
505.06	5857.2	
505.26	6849.8	
505.46	8763.3	
505.65	5752.1	
505.85	5986.9	
506.05	6813.6	
506.25	7306.5	
506.44	5085.8	
506.64	6016.9	
506.84	6747.4	
507.04	7822.6	
507.23	5306.3	
507.43	5973.9	
507.63	8986.5	
507.83	6932.4	
508.02	5941.2	
508.22	5481	
508.42	9135.3	
508.62	6727.6	
508.81	5837.4	
509.01	6371.9	
509.21	6703.7	
509.4	7005.4	
509.6	5956.2	
509.8	5314.5	
510	6975.4	
510.19	8462.2	
510.39	5326.8	
510.59	5357.5	
510.79	6707.1	
510.98	8185.7	
511.18	5442.8	
511.38	5554.1	
511.57	7520.1	
511.77	7395.2	
511.97	6331	
512.17	5190.9	
512.36	7630	
512.56	7528.3	
512.76	5270.8	
512.95	5079.6	
513.15	7758.4	
513.35	6247	
513.55	6238.8	
513.74	5315.2	
513.94	7675.1	
514.14	6963.8	
514.33	6347.3	
514.53	6010.8	
514.73	6918	
514.92	7111.2	
515.12	5455.1	
515.32	5261.2	
515.51	7281.2	
515.71	7925	
515.91	7128.3	
516.11	5360.9	
516.3	8982.4	
516.5	6805.4	
516.7	5928.9	
516.89	6597.9	
517.09	6978.1	
517.29	6847.7	
517.48	6477.7	
517.68	5661.3	
517.88	6596.5	
518.07	7197.9	
518.27	6155.5	
518.47	5096.7	
518.66	8086.1	
518.86	6466.8	
519.06	4946.5	
519.25	5543.2	
519.45	6853.2	
519.65	8381.7	
519.84	6102.9	
520.04	6866.8	
520.24	8729.8	
520.43	7610.3	
520.63	5816.2	
520.83	5518.6	
521.02	6761	
521.22	7415.7	
521.42	6211.5	
521.61	6682.5	
521.81	6976.7	
522.01	7171.3	
522.2	5955.5	
522.4	5785.5	
522.6	7632.8	
522.79	6333.7	
522.99	5819	
523.18	4983.4	
523.38	7297.6	
523.58	7303.1	
523.77	7075	
523.97	4941.1	
524.17	9220	
524.36	8337.3	
524.56	6469.5	
524.76	5973.2	
524.95	7161.1	
525.15	6854.6	
525.34	5728.2	
525.54	5721.3	
525.74	7537.9	
525.93	6513.9	
526.13	6975.4	
526.33	5627.1	
526.52	7824.6	
526.72	7199.3	
526.91	6893.5	
527.11	6053.8	
527.31	7859.4	
527.5	8241.7	
527.7	6037.4	
527.89	4960.9	
528.09	6594.5	
528.29	7268.9	
528.48	6481.1	
528.68	6027.2	
528.87	7622.5	
529.07	7805.5	
529.27	5840.8	
529.46	5507	
529.66	7263.5	
529.85	7792.5	
530.05	5216.9	
530.25	6121.4	
530.44	8826.7	
530.64	7283.9	
530.83	5694.7	
531.03	5861.3	
531.23	7633.5	
531.42	7559.7	
531.62	6642.2	
531.81	5865.4	
532.01	7726.3	
532.21	8268.3	
532.4	5532.9	
532.6	5922.7	
532.79	8654	
532.99	7799.3	
533.18	5868.1	
533.38	7004.1	
533.58	7238.9	
533.77	8075.1	
533.97	5739.8	
534.16	6705.7	
534.36	8267.6	
534.55	7286	
534.75	6865.5	
534.95	5813.5	
535.14	8051.9	
535.34	7176.8	
535.53	5520.6	
535.73	7643	
535.92	8648.6	
536.12	7511.3	
536.31	5720.7	
536.51	6931.7	
536.71	7752.9	
536.9	7389.8	
537.1	5887.2	
537.29	5928.2	
537.49	8233.5	
537.68	7188.4	
537.88	6374	
538.07	5524.1	
538.27	7437.5	
538.46	8535.9	
538.66	5355.4	
538.86	5873.6	
539.05	7453.9	
539.25	7972.1	
539.44	6158.2	
539.64	5839.4	
539.83	7281.2	
540.03	8442.4	
540.22	5621.7	
540.42	5812.8	
540.61	7598.6	
540.81	7795.9	
541	6391.7	
541.2	6963.1	
541.39	7154.2	
541.59	7570	
541.78	6582.9	
541.98	5684.5	
542.18	6864.8	
542.37	6799.9	
542.57	6161	
542.76	6662.7	
542.96	6933.1	
543.15	7698.3	
543.35	6146	
543.54	5534.3	
543.74	8099	
543.93	7584.3	
544.13	6216.3	
544.32	7415.7	
544.52	7950.9	
544.71	7074.4	
544.91	5261.9	
545.1	6631.3	
545.3	7167.2	
545.49	7841.7	
545.69	5201.2	
545.88	5862	
546.08	8911.4	
546.27	8480.6	
546.47	6488.6	
546.66	5694	
546.86	8178.2	
547.05	8852	
547.24	5941.8	
547.44	5719.3	
547.63	7006.1	
547.83	8211	
548.02	6208.8	
548.22	6416.3	
548.41	6836.1	
548.61	8310.7	
548.8	5750.7	
549	5718.6	
549.19	7634.8	
549.39	7869.7	
549.58	5396.4	
549.78	6044.9	
549.97	7993.9	
550.17	7569.3	
550.36	6990.4	
550.55	8056	
550.75	7531.1	
550.94	8433.5	
551.14	5663.3	
551.33	6205.3	
551.53	6724.2	
551.72	7838.3	
551.92	6244.3	
552.11	5878.4	
552.31	7907.9	
552.5	7937.2	
552.69	7614.3	
552.89	5543.2	
553.08	7883.3	
553.28	7651.9	
553.47	5958.2	
553.67	7101.7	
553.86	8615.8	
554.06	6834.1	
554.25	5028.4	
554.44	5692.7	
554.64	9432.9	
554.83	8872.5	
555.03	5642.8	
555.22	6072.2	
555.42	8122.9	
555.61	7816.4	
555.8	5907	
556	6318	
556.19	6890.7	
556.39	8263.6	
556.58	5976	
556.78	6016.9	
556.97	7696.3	
557.16	7342.7	
557.36	7362.4	
557.55	5583.4	
557.75	6633.4	
557.94	8505.9	
558.13	5786.2	
558.33	5471.5	
558.52	8348.2	
558.72	7141.9	
558.91	5585.5	
559.1	5878.4	
559.3	6837.5	
559.49	6580.1	
559.69	5167.7	
559.88	6294.8	
560.07	7761.8	
560.27	8097	
560.46	6453.8	
560.66	6563.1	
560.85	7434.1	
561.04	6705.7	
561.24	5613.5	
561.43	5866.7	
561.63	6890.7	
561.82	7254.6	
562.01	7164.5	
562.21	6188.3	
562.4	7677.2	
562.59	8681.3	
562.79	6059.9	
562.98	5603.9	
563.18	7523.6	
563.37	9053.4	
563.56	6483.2	
563.76	5504.3	
563.95	7027.9	
564.14	6931	
564.34	5862.7	
564.53	5701.5	
564.73	7493.5	
564.92	7884.7	
565.11	6029.2	
565.31	5461.9	
565.5	8121.6	
565.69	7102.4	
565.89	5645.6	
566.08	5949.3	
566.27	7991.2	
566.47	8499.1	
566.66	6635.4	
566.85	5211.4	
567.05	7566.6	
567.24	6936.5	
567.44	5508.4	
567.63	7032.7	
567.82	7778.2	
568.02	7569.3	
568.21	5555.5	
568.4	6000.5	
568.6	7385.7	
568.79	7450.5	
568.98	5343.2	
569.18	5512.4	
569.37	7364.5	
569.56	9411.8	
569.76	5928.2	
569.95	6896.9	
570.14	7843	
570.34	7578.8	
570.53	5388.2	
570.72	5385.5	
570.91	8194.6	
571.11	7266.9	
571.3	5908.4	
571.49	6909.8	
571.69	7397.3	
571.88	6821.8	
572.07	6485.2	
572.27	6493.4	
572.46	6911.2	
572.65	7960.5	
572.85	5628.5	
573.04	5971.2	
573.23	8146.1	
573.43	7441	
573.62	5344.5	
573.81	6013.5	
574	7378.8	
574.2	7274.4	
574.39	5651	
574.58	5814.2	
574.78	8284.7	
574.97	7481.2	
575.16	6210.1	
575.36	6451.8	
575.55	7900.4	
575.74	7989.1	
575.93	5292.6	
576.13	6448.4	
576.32	7194.5	
576.51	7818.5	
576.71	5655.8	
576.9	7150.1	
577.09	8149.6	
577.28	7711.3	
577.48	6235.4	
577.67	5160.9	
577.86	7220.5	
578.05	7655.3	
578.25	5836.7	
578.44	5952.8	
578.63	7425.3	
578.83	8660.9	
579.02	5182	
579.21	6887.3	
579.4	7630.7	
579.6	7314.7	
579.79	6062	
579.98	8368	
580.17	7993.9	
580.37	8056	
580.56	5437.4	
580.75	6297.5	
580.94	8615.8	
581.14	8391.2	
581.33	6694.8	
581.52	5614.8	
581.71	7770.7	
581.91	8539.3	
582.1	5278.3	
582.29	5950.7	
582.48	7434.1	
582.68	7366.5	
582.87	6532.3	
583.06	6034	
583.25	7757.7	
583.45	7112.6	
583.64	6788.3	
583.83	7507.2	
584.02	7242.3	
584.21	7702.4	
584.41	6754.9	
584.6	5976	
584.79	7380.2	
584.98	8262.2	
585.18	5339.7	
585.37	5348.6	
585.56	6982.2	
585.75	7798.7	
585.94	5633.3	
586.14	6408.1	
586.33	8587.8	
586.52	7354.9	
586.71	6197.2	
586.91	5950	
587.1	6838.2	
587.29	7985	
587.48	5915.9	
587.67	5742.5	
587.87	7657.4	
588.06	7905.8	
588.25	7247.1	
588.44	6429.9	
588.63	7537.9	
588.83	8065.6	
589.02	5866.7	
589.21	5767.8	
589.4	7240.9	
589.59	7066.9	
589.78	5007.3	
589.98	5376.6	
590.17	6796.5	
590.36	7484.6	
590.55	4805.2	
590.74	5722	
590.94	8955.8	
591.13	7451.2	
591.32	5472.2	
591.51	4951.3	
591.7	7871	
591.89	7266.9	
592.09	5111	
592.28	5631.9	
592.47	6517.3	
592.66	8503.2	
592.85	5096	
593.05	5375.9	
593.24	7087.3	
593.43	7938.6	
593.62	5373.9	
593.81	5969.8	
594	7090.1	
594.19	7453.9	
594.39	5297.4	
594.58	5278.3	
594.77	7502.4	
594.96	8153	
595.15	5234.6	
595.34	5994.4	
595.54	7591.1	
595.73	6552.8	
595.92	4622.9	
596.11	5841.5	
596.3	8141.4	
596.49	6794.5	
596.68	5605.3	
596.88	6068.1	
597.07	7834.2	
597.26	6570.6	
597.45	5115.8	
597.64	6368.5	
597.83	6820.4	
598.02	7470.3	
598.22	5214.1	
598.41	6014.2	
598.6	7350.2	
598.79	6714.6	
598.98	5279	
599.17	6264.1	
599.36	7305.8	
599.55	8684.1	
599.74	7429.3	
599.94	7200	
600.13	7912	
600.32	6693.4	
600.51	4964.3	
600.7	5229.1	
600.89	8702.5	
601.08	8659.5	
601.27	4965.6	
601.47	5994.4	
601.66	7883.3	
601.85	8574.2	
602.04	5607.3	
602.23	5819	
602.42	6807.4	
602.61	7552.9	
602.8	5622.4	
602.99	5371.8	
603.18	7262.8	
603.37	7526.3	
603.57	6062.7	
603.76	6642.2	
603.95	8327	
604.14	7920.2	
604.33	5445.5	
604.52	5799.8	
604.71	7470.3	
604.9	7053.9	
605.09	6358.3	
605.28	6236.1	
605.47	8127	
605.66	7803.4	
605.86	6124.1	
606.05	5465.3	
606.24	8013.7	
606.43	6586.3	
606.62	5824.4	
606.81	6681.2	
607	7980.3	
607.19	7154.9	
607.38	5233.2	
607.57	5502.9	
607.76	7014.3	
607.95	6560.3	
608.14	5965.1	
608.33	6553.5	
608.52	6956.9	
608.72	7960.5	
608.91	5095.3	
609.1	5057.1	
609.29	7099.6	
609.48	6642.9	
609.67	6157.6	
609.86	5145.9	
610.05	6708.5	
610.24	7074.4	
610.43	5035.3	
610.62	4624.3	
610.81	8305.9	
611	8045.8	
611.19	5098.8	
611.38	5960.3	
611.57	7396.6	
611.76	8843.8	
611.95	4899.4	
612.14	4810	
612.33	7185.6	
612.52	6642.9	
612.71	5566.4	
612.9	4619.5	
613.09	6287.9	
613.28	8856.1	
613.47	5170.4	
613.66	6244.9	
613.85	7331.7	
614.04	6841.6	
614.24	5287.9	
614.43	4567.7	
614.62	7460.8	
614.81	7355.6	
615	5958.2	
615.19	5980.8	
615.38	6684.6	
615.57	7034.1	
615.76	5777.3	
615.95	6783.6	
616.14	7471.7	
616.33	7129.7	
616.52	6079.7	
616.71	6346.7	
616.9	7486.7	
617.09	7238.9	
617.28	5451	
617.47	6953.5	
617.66	6525.5	
617.85	6496.2	
618.04	6385.6	
618.22	5718.6	
618.41	6808.8	
618.6	7694.9	
618.79	5616.2	
618.98	5241.4	
619.17	8076.5	
619.36	6330.3	
619.55	5455.1	
619.74	5537.7	
619.93	7266.2	
620.12	6742.6	
620.31	6001.9	
620.5	6206	
620.69	7884	
620.88	8293.6	
621.07	7005.4	
621.26	5935	
621.45	7444.4	
621.64	7464.8	
621.83	6071.5	
622.02	5257.8	
622.21	7450.5	
622.4	7223.2	
622.59	6534.4	
622.78	6315.9	
622.97	6754.2	
623.16	7878.5	
623.35	5920.7	
623.54	5022.3	
623.72	6983.6	
623.91	7144.7	
624.1	6274.3	
624.29	4869.4	
624.48	8267.6	
624.67	7525.6	
624.86	6033.3	
625.05	5089.9	
625.24	8423.3	
625.43	6591.7	
625.62	7871.7	
625.81	5290.6	
626	7839.6	
626.19	6953.5	
626.38	6124.1	
626.56	5556.1	
626.75	6826.6	
626.94	7284.6	
627.13	6082.5	
627.32	4742.4	
627.51	7456	
627.7	8834.9	
627.89	4928.1	
628.08	6148.7	
628.27	6715.3	
628.46	6991.8	
628.65	5264	
628.83	4946.5	
629.02	7464.8	
629.21	6769.9	
629.4	5773.9	
629.59	5872.2	
629.78	6655.2	
629.97	7677.8	
630.16	5926.8	
630.35	5414.1	
630.54	8112	
630.72	7856	
630.91	5384.8	
631.1	6048.3	
631.29	7281.9	
631.48	7467.6	
631.67	6024.4	
631.86	5525.4	
632.05	6822.5	
632.24	6880.5	
632.42	5116.5	
632.61	5825.1	
632.8	7036.8	
632.99	6618.4	
633.18	5853.1	
633.37	6259.3	
633.56	7339.9	
633.75	7159.7	
633.93	5730.2	
634.12	5482.4	
634.31	8105.9	
634.5	7750.2	
634.69	5532.9	
634.88	5981.4	
635.07	7045	
635.25	7733.1	
635.44	6480.5	
635.63	6800.6	
635.82	6935.1	
636.01	6451.8	
636.2	6441.5	
636.39	5961.6	
636.57	8112.7	
636.76	7880.6	
636.95	5341.8	
637.14	6830.7	
637.33	7370.6	
637.52	8433.5	
637.7	5085.1	
637.89	6102.9	
638.08	6964.5	
638.27	8571.4	
638.46	6171.9	
638.65	6681.8	
638.83	8514.1	
639.02	6791.7	
639.21	6141.9	
639.4	6580.8	
639.59	7266.9	
639.78	6964.5	
639.96	5431.2	
640.15	5433.9	
640.34	7264.8	
640.53	7291.5	
640.72	5198.4	
640.91	5474.2	
641.09	6604	
641.28	8039	
641.47	5458.5	
641.66	6295.5	
641.85	7391.8	
642.03	7621.2	
642.22	6130.3	
642.41	5565	
642.6	6724.2	
642.79	6152.8	
642.97	5347.2	
643.16	6145.3	
643.35	6740.5	
643.54	6592.4	
643.73	5284.4	
643.91	6175.3	
644.1	6485.9	
644.29	7034.8	
644.48	5453.1	
644.67	5468.1	
644.85	6722.1	
645.04	6992.4	
645.23	5001.1	
645.42	5336.3	
645.6	6498.2	
645.79	7814.4	
645.98	5384.8	
646.17	4415.4	
646.36	6303	
646.54	6975.4	
646.73	6298.2	
646.92	4960.2	
647.11	6586.3	
647.29	7714.7	
647.48	5038	
647.67	4868	
647.86	8001.4	
648.05	7979.6	
648.23	5423	
648.42	6778.8	
648.61	7342	
648.8	7007.5	
648.98	5113.1	
649.17	5408.7	
649.36	6622.4	
649.55	6103.6	
649.73	5130.8	
649.92	5897.5	
650.11	6547.4	
650.3	6880.5	
650.48	5289.9	
650.67	4905.6	
650.86	7292.1	
651.05	6104.3	
651.23	5212.8	
651.42	5246.2	
651.61	6578.1	
651.79	6809.5	
651.98	5359.5	
652.17	5070.1	
652.36	7120.8	
652.54	6158.9	
652.73	5051	
652.92	4895.3	
653.11	7088	
653.29	7244.3	
653.48	4360.1	
653.67	5454.4	
653.85	6891.4	
654.04	7993.9	
654.23	5694	
654.42	5224.4	
654.6	6472.9	
654.79	7227.3	
654.98	4660.5	
655.16	5255.8	
655.35	6061.3	
655.54	6027.2	
655.73	4792.9	
655.91	4741.7	
656.1	7385	
656.29	6059.9	
656.47	4240	
656.66	6085.2	
656.85	6308.4	
657.03	6386.9	
657.22	4792.9	
657.41	4904.2	
657.59	6402.6	
657.78	6143.2	
657.97	4539.7	
658.16	5274.9	
658.34	7073.7	
658.53	7481.9	
658.72	6225.8	
658.9	6744.6	
659.09	6449.1	
659.28	6521.4	
659.46	5013.4	
659.65	4830.5	
659.84	6255.9	
660.02	6765.8	
660.21	4759.5	
660.4	4798.4	
660.58	7249.1	
660.77	6540.5	
660.96	5479.7	
661.14	4429.8	
661.33	7879.2	
661.52	7731.8	
661.7	4371	
661.89	8352.3	
662.08	6161	
662.26	5808	
662.45	4674.1	
662.64	4897.4	
662.82	6921.5	
663.01	6134.3	
663.2	4790.9	
663.38	5664	
663.57	6905.1	
663.75	6726.9	
663.94	5169.1	
664.13	6519.4	
664.31	6206.7	
664.5	6901	
664.69	5388.2	
664.87	6075	
665.06	5929.6	
665.25	6700.3	
665.43	6299.6	
665.62	6285.9	
665.8	7077.1	
665.99	6331.6	
666.18	5217.5	
666.36	5326.8	
666.55	7083.2	
666.74	6930.3	
666.92	4804.5	
667.11	6540.5	
667.29	6341.9	
667.48	6980.8	
667.67	6156.9	
667.85	5261.2	
668.04	6374.6	
668.22	6463.4	
668.41	5247.6	
668.6	5468.8	
668.78	6212.9	
668.97	6415.6	
669.15	5662.6	
669.34	4581.3	
669.53	6212.9	
669.71	6640.2	
669.9	4747.2	
670.08	5442.8	
670.27	6154.1	
670.46	6850.5	
670.64	5671.5	
670.83	5941.2	
671.01	6032.6	
671.2	6792.4	
671.38	4797.7	
671.57	4726.7	
671.76	7416.4	
671.94	7987.8	
672.13	4734.9	
672.31	5886.5	
672.5	6963.8	
672.69	6183.5	
672.87	4831.2	
673.06	5210.7	
673.24	6718	
673.43	6257.9	
673.61	5665.4	
673.8	5103.5	
673.98	7034.1	
674.17	7181.5	
674.36	5811.5	
674.54	5617.6	
674.73	6721.4	
674.91	6989.7	
675.1	5317.9	
675.28	4987.5	
675.47	6479.1	
675.65	7031.4	
675.84	5195.7	
676.03	5530.9	
676.21	6224.5	
676.4	5782.8	
676.58	6013.5	
676.77	5731.6	
676.95	7798	
677.14	6231.3	
677.32	4870.8	
677.51	4638	
677.69	7042.3	
677.88	5851.7	
678.06	4688.5	
678.25	4842.8	
678.44	6490.7	
678.62	6275	
678.81	4469.4	
678.99	5493.3	
679.18	7347.4	
679.36	6923.5	
679.55	5079.6	
679.73	5809.4	
679.92	6919.4	
680.1	6246.3	
680.29	6403.3	
680.47	5124.7	
680.66	6140.5	
680.84	7066.9	
681.03	4356.7	
681.21	5529.5	
681.4	6253.1	
681.58	6098.9	
681.77	4915.8	
681.95	4816.8	
682.14	7176.1	
682.32	7503.8	
682.51	5850.4	
682.69	4601.1	
682.88	6124.8	
683.06	6866.2	
683.25	5554.1	
683.43	6084.5	
683.62	6478.4	
683.8	6909.8	
683.99	6148.7	
684.17	5411.4	
684.36	7840.3	
684.54	6427.9	
684.73	4527.4	
684.91	4857.8	
685.1	6786.3	
685.28	6212.2	
685.46	5412.8	
685.65	5561.6	
685.83	7075.7	
686.02	6358.9	
686.2	4862.6	
686.39	5017.5	
686.57	6272.2	
686.76	7727.7	
686.94	4840	
687.13	5070.1	
687.31	6985.6	
687.5	6318	
687.68	4475.5	
687.86	5827.8	
688.05	8021.2	
688.23	5793.7	
688.42	5813.5	
688.6	4912.4	
688.79	6276.3	
688.97	6279.8	
689.16	5404.6	
689.34	4317.8	
689.52	6982.9	
689.71	7302.4	
689.89	5693.4	
690.08	4878.9	
690.26	6477.7	
690.45	6371.9	
690.63	5883.8	
690.81	5071.5	
691	6183.5	
691.18	6180.8	
691.37	5219.6	
691.55	7619.8	
691.74	6168.5	
691.92	8285.4	
692.1	5256.5	
692.29	4612	
692.47	6426.5	
692.66	5627.1	
692.84	4918.5	
693.02	5444.9	
693.21	5743.9	
693.39	6334.4	
693.58	5531.6	
693.76	4934.2	
693.94	7606.2	
694.13	7350.2	
694.31	4885.8	
694.5	6000.5	
694.68	6094.8	
694.86	6410.8	
695.05	5209.3	
695.23	5656.5	
695.42	6850.5	
695.6	9379.7	
695.78	5937.1	
695.97	5005.2	
696.15	6897.6	
696.34	6274.3	
696.52	4702.1	
696.7	5646.2	
696.89	6646.3	
697.07	6083.8	
697.25	5552	
697.44	7141.9	
697.62	6631.3	
697.81	7066.2	
697.99	5219.6	
698.17	5693.4	
698.36	5973.2	
698.54	6675.7	
698.72	5521.3	
698.91	4488.5	
699.09	6273.6	
699.28	6126.8	
699.46	5230.5	
699.64	5089.2	
699.83	6034.7	
700.01	7470.3	
700.19	5920	
700.38	4330.8	
700.56	7359	
700.74	6135.7	
700.93	4686.4	
701.11	5504.9	
701.29	6660	
701.48	7851.9	
701.66	4962.9	
701.84	4946.5	
702.03	6211.5	
702.21	6918.7	
702.39	4545.8	
702.58	5095.3	
702.76	6677.1	
702.94	6825.2	
703.13	4535.6	
703.31	7025.2	
703.49	5984.2	
703.68	7471.7	
703.86	4708.3	
704.04	5821.7	
704.23	6506.4	
704.41	6963.8	
704.59	4883.7	
704.78	6224.5	
704.96	7688.1	
705.14	6975.4	
705.33	4566.3	
705.51	5624.4	
705.69	6333.7	
705.87	7236.8	
706.06	5796.4	
706.24	4612	
706.42	6683.2	
706.61	7018.4	
706.79	5876.3	
706.97	4698	
707.16	6130.9	
707.34	6706.4	
707.52	5809.4	
707.7	4932.9	
707.89	6236.1	
708.07	5969.1	
708.25	5906.3	
708.44	5946.6	
708.62	6201.9	
708.8	7460.1	
708.98	6140.5	
709.17	4986.1	
709.35	6655.2	
709.53	6713.2	
709.72	4660.5	
709.9	4910.3	
710.08	6986.3	
710.26	6977.4	
710.45	6405.4	
710.63	5047.6	
710.81	6648.4	
710.99	6606.7	
711.18	5793	
711.36	5144.5	
711.54	6423.8	
711.72	7213.6	
711.91	5295.4	
712.09	4693.9	
712.27	6628.6	
712.45	7808.9	
712.64	5646.9	
712.82	4495.3	
713	6118.6	
713.18	6298.9	
713.37	4742.4	
713.55	6007.4	
713.73	7165.2	
713.91	5780.7	
714.1	5183.4	
714.28	4682.3	
714.46	6918.7	
714.64	6139.8	
714.83	4105.5	
715.01	5075.5	
715.19	6253.8	
715.37	5576.6	
715.55	4685.8	
715.74	5076.9	
715.92	7256.6	
716.1	5149.3	
716.28	6283.9	
716.47	5236	
716.65	5853.1	
716.83	6009.4	
717.01	5027.8	
717.19	5145.2	
717.38	8229.4	
717.56	5614.8	
717.74	5341.1	
717.92	4402.5	
718.1	6870.3	
718.29	6029.9	
718.47	4009.9	
718.65	4657.1	
718.83	6718	
719.01	6647	
719.2	3772.4	
719.38	4974.5	
719.56	6339.1	
719.74	7929.7	
719.92	4472.8	
720.11	5656.5	
720.29	6395.8	
720.47	5496.7	
720.65	4106.2	
720.83	5076.2	
721.02	5910.4	
721.2	5678.3	
721.38	5146.5	
721.56	4345.1	
721.74	5216.9	
721.92	5452.4	
722.11	5740.5	
722.29	5378	
722.47	6669.6	
722.65	5860.6	
722.83	4437.9	
723.01	5427.1	
723.2	5936.4	
723.38	6206	
723.56	3803.1	
723.74	5010	
723.92	5423.7	
724.1	6650.4	
724.29	4368.3	
724.47	5675.6	
724.65	5453.1	
724.83	5408.7	
725.01	4204.5	
725.19	5275.6	
725.37	5448.3	
725.56	5535.7	
725.74	4020.2	
725.92	4343.7	
726.1	5397.1	
726.28	5739.8	
726.46	4806.6	
726.64	4497.3	
726.83	5702.2	
727.01	6044.2	
727.19	4027.7	
727.37	4986.8	
727.55	5758.9	
727.73	6334.4	
727.91	4001	
728.09	3878.9	
728.28	6457.9	
728.46	7122.8	
728.64	5033.2	
728.82	5010	
729	7580.9	
729.18	6690.7	
729.36	4151.9	
729.54	6726.9	
729.72	7794.6	
729.91	5997.1	
730.09	6182.8	
730.27	4831.8	
730.45	5812.1	
730.63	6557.6	
730.81	5511.8	
730.99	4448.2	
731.17	7102.4	
731.35	5563.6	
731.53	5023	
731.71	4575.2	
731.9	6823.1	
732.08	7015.7	
732.26	4939.7	
732.44	4549.2	
732.62	7081.9	
732.8	6524.1	
732.98	5387.5	
733.16	4269.3	
733.34	6491.4	
733.52	5207.3	
733.7	4859.8	
733.88	5192.3	
734.07	6362.4	
734.25	6068.1	
734.43	4300.7	
734.61	5955.5	
734.79	7709.2	
734.97	5967.1	
735.15	4493.9	
735.33	4817.5	
735.51	6398.5	
735.69	5961	
735.87	6148.7	
736.05	5048.2	
736.23	6163.7	
736.41	5933	
736.59	4898.1	
736.77	5008.6	
736.95	6646.3	
737.13	6049	
737.32	4496	
737.5	4773.8	
737.68	7124.9	
737.86	5935	
738.04	4279.6	
738.22	6380.1	
738.4	5679.7	
738.58	6048.3	
738.76	4975.9	
738.94	3842.7	
739.12	5869.5	
739.3	5681.1	
739.48	5711.1	
739.66	5296	
739.84	6195.1	
740.02	6161	
740.2	3990.1	
740.38	4405.9	
740.56	6623.8	
740.74	5316.5	
740.92	5124	
741.1	4972.5	
741.28	5970.5	
741.46	5827.2	
741.64	4560.8	
741.82	5190.9	
742	6019	
742.18	5958.2	
742.36	4842.1	
742.54	4398.4	
742.72	6571.9	
742.9	5280.3	
743.08	5264.6	
743.26	4020.8	
743.44	6939.2	
743.62	6709.8	
743.8	5424.4	
743.98	4481	
744.16	6366.5	
744.34	6070.9	
744.52	5367.7	
744.7	5308.3	
744.88	6516.6	
745.06	6069.5	
745.24	5379.3	
745.42	5537	
745.6	6648.4	
745.78	6406	
745.96	4128	
746.14	4499.4	
746.32	7432.1	
746.5	6664.1	
746.68	5194.3	
746.86	4476.9	
747.03	7147.4	
747.21	5315.8	
747.39	5154.7	
747.57	4563.6	
747.75	6233.3	
747.93	6685.3	
748.11	4591.5	
748.29	4468.7	
748.47	7964.6	
748.65	6010.1	
748.83	5266.7	
749.01	5089.9	
749.19	6478.4	
749.37	5635.3	
749.55	4876.9	
749.73	5052.3	
749.91	6120	
750.09	5833.3	
750.26	5053.7	
750.44	4449.6	
750.62	6115.9	
750.8	6117.3	
750.98	4223.6	
751.16	4612.7	
751.34	6151.4	
751.52	5498.1	
751.7	5445.5	
751.88	4205.2	
752.06	6706.4	
752.24	6538.5	
752.42	4181.3	
752.59	4521.2	
752.77	6036.7	
752.95	7414.3	
753.13	5388.9	
753.31	4652.3	
753.49	5746.6	
753.67	6210.1	
753.85	5023	
754.03	4587.4	
754.21	6586.3	
754.38	6939.2	
754.56	4790.9	
754.74	3809.2	
754.92	5725.4	
755.1	6622.4	
755.28	3911.6	
755.46	3893.2	
755.64	7460.1	
755.82	7514	
755.99	4229.7	
756.17	4405.2	
756.35	4946.5	
756.53	6712.6	
756.71	3257.6	
756.89	4306.2	
757.07	6262	
757.25	5244.2	
757.42	4846.9	
757.6	5734.3	
757.78	6225.8	
757.96	5121.3	
758.14	4399.7	
758.32	3964.2	
758.5	4637.3	
758.67	5616.9	
758.85	4333.5	
759.03	4440	
759.21	5821.7	
759.39	5136.3	
759.57	3812	
759.75	5124.7	
759.92	6432	
760.1	5636	
760.28	5477	
760.46	5732.3	
760.64	5347.2	
760.82	5142.4	
760.99	5255.1	
761.17	4342.4	
761.35	6307.1	
761.53	5158.2	
761.71	4483.7	
761.89	5254.4	
762.06	6075.6	
762.24	5580	
762.42	4457.1	
762.6	4320.5	
762.78	5542.5	
762.96	6274.3	
763.13	4908.3	
763.31	4647.5	
763.49	6495.5	
763.67	5599.8	
763.85	5481	
764.02	6102.3	
764.2	6689.3	
764.38	5849.7	
764.56	4403.1	
764.74	5427.1	
764.91	6897.6	
765.09	5709.1	
765.27	4101.4	
765.45	3915	
765.63	6855.9	
765.8	6759.7	
765.98	3637.2	
766.16	3957.4	
766.34	5220.3	
766.52	5038	
766.69	5001.1	
766.87	3837.9	
767.05	5706.3	
767.23	6541.9	
767.41	4205.2	
767.58	4491.2	
767.76	6323.4	
767.94	6298.9	
768.12	4258.4	
768.29	5101.5	
768.47	5778	
768.65	6552.8	
768.83	3902.7	
769	5177.3	
769.18	5357.5	
769.36	6130.3	
769.54	5150.6	
769.72	3949.2	
769.89	6372.6	
770.07	6577.4	
770.25	4324.6	
770.43	5649	
770.6	7217	
770.78	7712	
770.96	4466.6	
771.14	5277.6	
771.31	6333	
771.49	5567.1	
771.67	3639.2	
771.85	3971.7	
772.02	4822.3	
772.2	5659.2	
772.38	4621.6	
772.55	4188.1	
772.73	5920	
772.91	5666	
773.09	4635.2	
773.26	4732.2	
773.44	5919.3	
773.62	5593	
773.8	4055.7	
773.97	3764.2	
774.15	5955.5	
774.33	5554.8	
774.5	4019.5	
774.68	4422.9	
774.86	6198.5	
775.04	5606	
775.21	4059.8	
775.39	4129.4	
775.57	5821.7	
775.74	6332.3	
775.92	3941	
776.1	3832.4	
776.27	5865.4	
776.45	7236.2	
776.63	4026.3	
776.81	3570.3	
776.98	5504.3	
777.16	6680.5	
777.34	4291.2	
777.51	4597	
777.69	5496.1	
777.87	5254.4	
778.04	4233.8	
778.22	4938.3	
778.4	5281	
778.57	5984.8	
778.75	3519.1	
778.93	3862.5	
779.1	5046.9	
779.28	4932.9	
779.46	3498.6	
779.64	4079.6	
779.81	6251.1	
779.99	7188.4	
780.17	4990.9	
780.34	5095.3	
780.52	5579.3	
780.69	5799.8	
780.87	4417.5	
781.05	3987.4	
781.22	5672.9	
781.4	5771.9	
781.58	4114.4	
781.75	3243.3	
781.93	5595.7	
782.11	5033.9	
782.28	5031.2	
782.46	4061.1	
782.64	4951.3	
782.81	6036	
782.99	4194.2	
783.17	4186	
783.34	5872.9	
783.52	4893.3	
783.69	4393.6	
783.87	5318.6	
784.05	4998.4	
784.22	5073.5	
784.4	5267.4	
784.58	4564.9	
784.75	6052.4	
784.93	5100.8	
785.1	4173.8	
785.28	4870.8	
785.46	5847	
785.63	5098.8	
785.81	4113.7	
785.99	3958.7	
786.16	5200.5	
786.34	5759.6	
786.51	3994.2	
786.69	4384.7	
786.87	4823.6	
787.04	5389.6	
787.22	3803.1	
787.39	4885.8	
787.57	5079.6	
787.75	6272.9	
787.92	5079.6	
788.1	4988.9	
788.27	5152.7	
788.45	4926.7	
788.63	4769	
788.8	3351.2	
788.98	5524.1	
789.15	4818.9	
789.33	3591.5	
789.5	4167.6	
789.68	6161.7	
789.86	6264.7	
790.03	4646.2	
790.21	4100.7	
790.38	6143.9	
790.56	5264.6	
790.73	3889.1	
790.91	3947.1	
791.09	5152.7	
791.26	5962.3	
791.44	4145.8	
791.61	3553.9	
791.79	5097.4	
791.96	5183.4	
792.14	3676.1	
792.32	3242.6	
792.49	5197.7	
792.67	5207.3	
792.84	3803.8	
793.02	3573	
793.19	5573.2	
793.37	6412.9	
793.54	3257.6	
793.72	3606.5	
793.89	6520.7	
794.07	5219.6	
794.25	4359.4	
794.42	3375.7	
794.6	6303	
794.77	5911.8	
794.95	4653.7	
795.12	4035.2	
795.3	5107	
795.47	5851	
795.65	4410	
795.82	4269.3	
796	4973.8	
796.17	7055.3	
796.35	4083	
796.52	4843.4	
796.7	5746.6	
796.87	5834.7	
797.05	5096.7	
797.22	5051	
797.4	5808.7	
797.57	6937.8	
797.75	4214	
797.92	3936.9	
798.1	6085.2	
798.27	5152.7	
798.45	3415.3	
798.62	3622.2	
798.8	5496.1	
798.97	6022.4	
799.15	4534.2	
799.32	4277.5	
799.5	4680.3	
799.67	5576.6	
799.85	4625.7	
800.02	3337.5	
800.2	5093.3	
800.37	5484.5	
800.55	4842.8	
800.72	4003.1	
800.9	5902.9	
801.07	6471.6	
801.25	5427.1	
801.42	4370.4	
801.6	6048.3	
801.77	5698.8	
801.95	4048.8	
802.12	3880.2	
802.29	5663.3	
802.47	5677	
802.64	4395.6	
802.82	3263.1	
802.99	5070.8	
803.17	6193.1	
803.34	4244.1	
803.52	3792.2	
803.69	6890	
803.87	4958.8	
804.04	4206.5	
804.21	4328.7	
804.39	6304.3	
804.56	5374.6	
804.74	3574.4	
804.91	4407.2	
805.09	5171.8	
805.26	5306.3	
805.44	3637.2	
805.61	3979.9	
805.78	5894.1	
805.96	5887.2	
806.13	4406.5	
806.31	4803.9	
806.48	4670.7	
806.66	5246.9	
806.83	4365.6	
807	4342.4	
807.18	5164.3	
807.35	5612.1	
807.53	4034.5	
807.7	3374.4	
807.87	6427.9	
808.05	5276.9	
808.22	4760.2	
808.4	3360.7	
808.57	5236	
808.74	4863.9	
808.92	3863.8	
809.09	5051	
809.27	5068	
809.44	5778	
809.61	3440.6	
809.79	3831.1	
809.96	6402	
810.14	6096.8	
810.31	3267.9	
810.48	4127.3	
810.66	5350.7	
810.83	6105.7	
811.01	3839.9	
811.18	4384	
811.35	6016.9	
811.53	4656.4	
811.7	4763.6	
811.87	4407.2	
812.05	5177.9	
812.22	5116.5	
812.39	3762.1	
812.57	3604.4	
812.74	5214.1	
812.92	7066.9	
813.09	4117.1	
813.26	4512.4	
813.44	6732.4	
813.61	5155.4	
813.78	3419.4	
813.96	4646.8	
814.13	5251.7	
814.3	4873.5	
814.48	4956.8	
814.65	4166.9	
814.82	6503.7	
815	4967	
815.17	4264.6	
815.34	5248.3	
815.52	5093.3	
815.69	5091.3	
815.87	4198.3	
816.04	4190.1	
816.21	5240.1	
816.38	4545.8	
816.56	4073.4	
816.73	3735.5	
816.9	6614.9	
817.08	6066.8	
817.25	3822.2	
817.42	4894	
817.6	4720.6	
817.77	5274.2	
817.94	4405.2	
818.12	3807.2	
818.29	4937	
818.46	7918.8	
818.64	3918.4	
818.81	3687	
818.98	4843.4	
819.16	7239.6	
819.33	4550.6	
819.5	4253.6	
819.67	5629.9	
819.85	6357.6	
820.02	4164.9	
820.19	4455	
820.37	5442.1	
820.54	5053	
820.71	4345.1	
820.88	5409.4	
821.06	5515.9	
821.23	5022.3	
821.4	4355.3	
821.58	4279.6	
821.75	6034.7	
821.92	5421	
822.09	3435.1	
822.27	3803.1	
822.44	5223.7	
822.61	5132.2	
822.79	3455.6	
822.96	6754.9	
823.13	5760.9	
823.3	4893.3	
823.48	4052.2	
823.65	3624.9	
823.82	5897.5	
823.99	4721.3	
824.17	5170.4	
824.34	3668.6	
824.51	6953.5	
824.68	5244.8	
824.86	3846.8	
825.03	4315.8	
825.2	5209.3	
825.37	6389	
825.55	3787.4	
825.72	4268	
825.89	7073	
826.06	6466.1	
826.24	4127.3	
826.41	4140.3	
826.58	6381.5	
826.75	5530.2	
826.92	3254.9	
827.1	3596.9	
827.27	8888.9	
827.44	7019.8	
827.61	3996.3	
827.79	4759.5	
827.96	4928.8	
828.13	5350.7	
828.3	4091.8	
828.47	3510.2	
828.65	5370.5	
828.82	5382.7	
828.99	5399.1	
829.16	4706.2	
829.34	5917.9	
829.51	5557.5	
829.68	4252.9	
829.85	4466.6	
830.02	6102.9	
830.2	5838.8	
830.37	3259.7	
830.54	5277.6	
830.71	6709.8	
830.88	5184.1	
831.05	3358.7	
831.23	3854.3	
831.4	6389	
831.57	7277.1	
831.74	3966.2	
831.91	3509.5	
832.09	5455.8	
832.26	5844.2	
832.43	4109.6	
832.6	4567	
832.77	5494	
832.94	6283.2	
833.12	3291.1	
833.29	4076.8	
833.46	5088.5	
833.63	7464.2	
833.8	4451.6	
833.97	4104.8	
834.15	5867.4	
834.32	5655.8	
834.49	4224.3	
834.66	4355.3	
834.83	6118.6	
835	4945.2	
835.17	3963.5	
835.35	3974.4	
835.52	5803.9	
835.69	5627.8	
835.86	4184.7	
836.03	3429	
836.2	5797.8	
836.37	5416.9	
836.55	4127.3	
836.72	3864.5	
836.89	5406.6	
837.06	5937.7	
837.23	4210.6	
837.4	4624.3	
837.57	6671.6	
837.75	7503.1	
837.92	3704.8	
838.09	4033.1	
838.26	5386.8	
838.43	6182.8	
838.6	4308.9	
838.77	3809.9	
838.94	7085.3	
839.11	6768.5	
839.29	4065.9	
839.46	3181.2	
839.63	5776	
839.8	5552.7	
839.97	3915.7	
840.14	3939.6	
840.31	5586.2	
840.48	5811.5	
840.65	3295.9	
840.82	3833.1	
841	5833.3	
841.17	5829.2	
841.34	3650.2	
841.51	3708.2	
841.68	5780.1	
841.85	5492	
842.02	3861.1	
842.19	3103.4	
842.36	5578	
842.53	5568.4	
842.7	3622.2	
842.87	4505.5	
843.05	7413.6	
843.22	5539.8	
843.39	3426.3	
843.56	3720.5	
843.73	5270.1	
843.9	5864.7	
844.07	6046.3	
844.24	4992.3	
844.41	8763.3	
844.58	5048.2	
844.75	3504.8	
844.92	3883.6	
845.09	5860.6	
845.26	5787.6	
845.43	3643.3	
845.6	3917.8	
845.77	5857.9	
845.94	5555.5	
846.12	3996.3	
846.29	4291.2	
846.46	6118.6	
846.63	5763	
846.8	3645.4	
846.97	4369.7	
847.14	6367.8	
847.31	5810.8	
847.48	4152.6	
847.65	4571.7	
847.82	6150.1	
847.99	6137.8	
848.16	4890.5	
848.33	4545.1	
848.5	5337	
848.67	6373.3	
848.84	3639.2	
849.01	3781.2	
849.18	5215.5	
849.35	4865.3	
849.52	4659.8	
849.69	3610.6	
849.86	6042.9	
850.03	6309.8	
850.2	3634.5	
850.37	4490.5	
850.54	6239.5	
850.71	5502.9	
850.88	4393.6	
851.05	3580.5	
851.22	5775.3	
851.39	6449.1	
851.56	3437.9	
851.73	4232.5	
851.9	5126.7	
852.07	6122.7	
852.24	4020.8	
852.41	3622.2	
852.58	5673.6	
852.75	5210.7	
852.92	4113.7	
853.09	3545.7	
853.26	5375.9	
853.43	6379.4	
853.6	3614.7	
853.77	3078.1	
853.94	6412.2	
854.11	5788.2	
854.28	5522.7	
854.44	3928.7	
854.61	6964.5	
854.78	6180.1	
854.95	3650.2	
855.12	4545.1	
855.29	4689.2	
855.46	6560.3	
855.63	3648.8	
855.8	5094.7	
855.97	5343.2	
856.14	6178	
856.31	5184.8	
856.48	4020.2	
856.65	5338.4	
856.82	5062.6	
856.99	3482.2	
857.16	3955.3	
857.33	7197.9	
857.49	5522.7	
857.66	3869.3	
857.83	4283	
858	5387.5	
858.17	5673.6	
858.34	3377.1	
858.51	3650.2	
858.68	6665.5	
858.85	6573.3	
859.02	4226.3	
859.19	4536.9	
859.36	5103.5	
859.52	5149.3	
859.69	3657	
859.86	4276.2	
860.03	5208	
860.2	6400.6	
860.37	3252.2	
860.54	3624.9	
860.71	6061.3	
860.88	6585.6	
861.05	4129.4	
861.21	4585.4	
861.38	6509.1	
861.55	4990.2	
861.72	3275.4	
861.89	4057	
862.06	6105	
862.23	6735.8	
862.4	3535.5	
862.56	3799	
862.73	5953.4	
862.9	5614.2	
863.07	4328	
863.24	3253.5	
863.41	4934.2	
863.58	5104.9	
863.75	3731.4	
863.91	4175.1	
864.08	6480.5	
864.25	6034	
864.42	4601.8	
864.59	5128.8	
864.76	6873	
864.93	5153.4	
865.09	3512.3	
865.26	3923.9	
865.43	6341.2	
865.6	6797.9	
865.77	3132.7	
865.94	3611.3	
866.1	6454.5	
866.27	6167.8	
866.44	5530.9	
866.61	3446.7	
866.78	5499.5	
866.95	5986.2	
867.11	3492.5	
867.28	3187.3	
867.45	6182.1	
867.62	5096	
867.79	4208.6	
867.96	3569.6	
868.12	5115.1	
868.29	6083.1	
868.46	3603.1	
868.63	4888.5	
868.8	6307.1	
868.97	6068.8	
869.13	3864.5	
869.3	3804.4	
869.47	5927.5	
869.64	6240.2	
869.81	3676.8	
869.97	3606.5	
870.14	5869.5	
870.31	6581.5	
870.48	3540.9	
870.65	4664.6	
870.81	5461.9	
870.98	5407.3	
871.15	4196.3	
871.32	3829.7	
871.48	5986.9	
871.65	6605.4	
871.82	3589.4	
871.99	3993.5	
872.16	6901	
872.32	6460.7	
872.49	3619.4	
872.66	3652.9	
872.83	6051.1	
872.99	5362.3	
873.16	4136.2	
873.33	3583.9	
873.5	5726.1	
873.67	5765	
873.83	3788.1	
874	4927.4	
874.17	5823.7	
874.34	7008.1	
874.5	4679.6	
874.67	4594.3	
874.84	6584.9	
875.01	5128.8	
875.17	5205.9	
875.34	3603.7	
875.51	5745.9	
875.68	6913.9	
875.84	4464.6	
876.01	5403.2	
876.18	6021.7	
876.34	5959.6	
876.51	3654.9	
876.68	3590.8	
876.85	5513.1	
877.01	6338.5	
877.18	5225.7	
877.35	3622.2	
877.52	5591.6	
877.68	5070.8	
877.85	3518.4	
878.02	3568.9	
878.18	5564.3	
878.35	5307	
878.52	2856.9	
878.69	4098.7	
878.85	6081.8	
879.02	6084.5	
879.19	5209.3	
879.35	3914.4	
879.52	5992.4	
879.69	6261.3	
879.86	3145	
880.02	4112.3	
880.19	5582.8	
880.36	6862.7	
880.52	4233.8	
880.69	4359.4	
880.86	6174.6	
881.02	6263.4	
881.19	4065.9	
881.36	4003.1	
881.52	6048.3	
881.69	5281	
881.86	3945.8	
882.02	3850.9	
882.19	6354.8	
882.36	7435.5	
882.52	3657	
882.69	5234.6	
882.86	5788.2	
883.02	5657.9	
883.19	4439.3	
883.36	4173.1	
883.52	6118.6	
883.69	7075.7	
883.86	3674.1	
884.02	3256.3	
884.19	6102.3	
884.36	5634	
884.52	4168.3	
884.69	3830.4	
884.86	5333.6	
885.02	6761	
885.19	4102.8	
885.36	4189.5	
885.52	5627.8	
885.69	5789.6	
885.86	5337.7	
886.02	4739	
886.19	6109.1	
886.35	5569.8	
886.52	4046.8	
886.69	5199.8	
886.85	5188.9	
887.02	6457.9	
887.19	6457.9	
887.35	6457.9	
887.52	6457.9	
887.68	6457.9	
887.85	6457.9	
888.02	6457.9	
888.18	6457.9	
888.35	6457.9	
888.51	6457.9	
888.68	6457.9	
888.85	6457.9	
889.01	6457.9	
889.18	6457.9	
889.35	6457.9	
889.51	6457.9	
889.68	6457.9	
889.84	6457.9	
890.01	6457.9	
890.17	6457.9	
890.34	6457.9	
890.51	6457.9	
890.67	6457.9	
890.84	6457.9	
891	6457.9	
891.17	6457.9	
891.34	6457.9	
891.5	6457.9	
891.67	6457.9	
891.83	6457.9	
892	6457.9	
892.16	6457.9	
892.33	6457.9	
892.5	6457.9	
892.66	6457.9	
892.83	6457.9	
892.99	6457.9	
893.16	6457.9	
893.32	6457.9	
893.49	6457.9	
893.65	6457.9	
893.82	6457.9	
893.99	6457.9	
894.15	6457.9	
894.32	6457.9	
894.48	6457.9	
894.65	6457.9	
894.81	6457.9	
894.98	6457.9	
895.14	6457.9	
895.31	6457.9	
895.47	6457.9	
895.64	6457.9	
895.81	6457.9	
895.97	6457.9	
896.14	6457.9	
896.3	6457.9	
896.47	6457.9	
896.63	6457.9	
896.8	6457.9	
896.96	6457.9	
897.13	6457.9	
897.29	6457.9	
897.46	6457.9	
897.62	6457.9	
897.79	6457.9	
897.95	6457.9	
898.12	6457.9	
898.28	6457.9	
898.45	6457.9	
898.61	6457.9	
898.78	6457.9	
898.94	6457.9	
899.11	6457.9	
899.27	6457.9	
899.44	6457.9	
899.6	6457.9	
899.77	6457.9	
899.93	6457.9	
900.1	6457.9	
900.26	6457.9	
900.43	6457.9	
900.59	6457.9	
900.76	6457.9	
900.92	6457.9	
901.09	6457.9	
901.25	6457.9	
901.42	6457.9	
901.58	6457.9	
901.75	6457.9	
901.91	6457.9	
902.07	6457.9	
902.24	6457.9	
902.4	6457.9	
902.57	6457.9	
902.73	6457.9	
902.9	6457.9	
903.06	6457.9	
903.23	6457.9	
903.39	6457.9	
903.56	6457.9	
903.72	6457.9	
903.88	6457.9	
904.05	6457.9	
904.21	6457.9	
904.38	6457.9	
904.54	6457.9	
904.71	6457.9	
904.87	6457.9	
905.03	6457.9	
905.2	6457.9	
905.36	6457.9	
905.53	6457.9	
905.69	6457.9	
905.86	6457.9	
906.02	6457.9	
906.18	6457.9	
906.35	6457.9	
906.51	6457.9	
906.68	6457.9	
906.84	6457.9	
907.01	6457.9	
907.17	6457.9	
907.33	6457.9	
907.5	6457.9	
907.66	6457.9	
907.83	6457.9	
907.99	6457.9	
908.15	6457.9	
908.32	6457.9	
908.48	6457.9	
908.65	6457.9	
908.81	6457.9	
908.97	6457.9	
909.14	6457.9	
909.3	6457.9	
909.47	6457.9	
909.63	6457.9	
909.79	6457.9	
909.96	6457.9	
910.12	6457.9	
910.28	6457.9	
910.45	6457.9	
910.61	6457.9	
910.78	6457.9	
910.94	6457.9	
911.1	6457.9	
911.27	6457.9	
911.43	6457.9	
911.59	6457.9	
911.76	6457.9	
911.92	6457.9	
912.08	6457.9	
912.25	6457.9	
912.41	6457.9	
912.57	6457.9	
912.74	6457.9	
912.9	6457.9	
913.07	6457.9	
913.23	6457.9	
913.39	6457.9	
913.56	6457.9	
913.72	6457.9	
913.88	6457.9	
914.05	6457.9	
914.21	6457.9	
914.37	6457.9	
914.54	6457.9	
914.7	6457.9	
914.86	6457.9	
915.03	6457.9	
915.19	6457.9	
