Wavelength	Intensities	
nm	a.u.	
179.22	1500	
179.44	1500.8	
179.65	1499.1	
179.86	1502.5	
180.08	1532.6	
180.29	3259	
180.51	2559.3	
180.72	4442.7	
180.94	4761.5	
181.15	2352.4	
181.37	2340.8	
181.58	4223.6	
181.79	4395.6	
182.01	2413.9	
182.22	2499.2	
182.44	4409.3	
182.65	3947.1	
182.87	2991.4	
183.08	2703.3	
183.29	4646.2	
183.51	3992.2	
183.72	2482.8	
183.94	3317	
184.15	4247.5	
184.37	4133.5	
184.58	2310.8	
184.79	2804.4	
185.01	4128	
185.22	4543.1	
185.44	2954.5	
185.65	2638.5	
185.86	4344.4	
186.08	3981.9	
186.29	2254.8	
186.51	2385.9	
186.72	4056.3	
186.94	4541	
187.15	2705.4	
187.36	2691.7	
187.58	5447.6	
187.79	4295.3	
188.01	2759.3	
188.22	3941	
188.43	4920.6	
188.65	4416.1	
188.86	2477.4	
189.08	2762	
189.29	4067.9	
189.5	4103.4	
189.72	2543.6	
189.93	2553.1	
190.15	4491.9	
190.36	5074.9	
190.57	2738.1	
190.79	2648	
191	4473.4	
191.22	4539	
191.43	2816	
191.64	2451.4	
191.86	4658.4	
192.07	4540.3	
192.29	2538.8	
192.5	2491	
192.71	4532.2	
192.93	4135.5	
193.14	2523.8	
193.35	2571.6	
193.57	4097.3	
193.78	4567	
194	2164.7	
194.21	2491	
194.42	3934.8	
194.64	4268.6	
194.85	2668.5	
195.07	3038.5	
195.28	4192.9	
195.49	3843.4	
195.71	3127.2	
195.92	2404.3	
196.13	4394.9	
196.35	4380.6	
196.56	3226.9	
196.78	2712.9	
196.99	5122.7	
197.2	4798.4	
197.42	2945	
197.63	2738.1	
197.84	3994.9	
198.06	4370.4	
198.27	2494.4	
198.48	3144.3	
198.7	4090.5	
198.91	4339	
199.13	2764.1	
199.34	2692.4	
199.55	4616.8	
199.77	3756.7	
199.98	2499.2	
200.19	2739.5	
200.41	4199	
200.62	3997	
200.83	2828.9	
201.05	3001.6	
201.26	4295.3	
201.47	4093.9	
201.69	2514.9	
201.9	2458.2	
202.11	4313	
202.33	4740.4	
202.54	2592	
202.76	2816	
202.97	4214.7	
203.18	4367	
203.4	2804.4	
203.61	2917	
203.82	4255	
204.04	4091.8	
204.25	2726.5	
204.46	2670.6	
204.68	4203.1	
204.89	4369	
205.1	2621.4	
205.32	2382.5	
205.53	4431.1	
205.74	4502.8	
205.96	2230.9	
206.17	2742.2	
206.38	4326	
206.6	4510.3	
206.81	2899.2	
207.02	2550.4	
207.24	4374.5	
207.45	4561.5	
207.66	2654.9	
207.88	2366.1	
208.09	4351.3	
208.3	4167.6	
208.52	2455.5	
208.73	2695.8	
208.94	4244.8	
209.15	4606.6	
209.37	2615.3	
209.58	2643.2	
209.79	4481.6	
210.01	4098	
210.22	2282.8	
210.43	2333.3	
210.65	4170.3	
210.86	4424.3	
211.07	2618.7	
211.29	2453.5	
211.5	4371	
211.71	4203.8	
211.93	2500.6	
212.14	2469.9	
212.35	4223.6	
212.56	4173.1	
212.78	2721.8	
212.99	2329.9	
213.2	4760.8	
213.42	4141	
213.63	2499.2	
213.84	2641.9	
214.06	3923.9	
214.27	3936.2	
214.48	2616.6	
214.69	2717	
214.91	4589.5	
215.12	4595.6	
215.33	2727.9	
215.55	2922.5	
215.76	4917.2	
215.97	4362.9	
216.18	2625.5	
216.4	2651.4	
216.61	4017.4	
216.82	4504.8	
217.04	2536.8	
217.25	2574.3	
217.46	4561.5	
217.67	4434.5	
217.89	2324.4	
218.1	2381.1	
218.31	4233.2	
218.53	4373.8	
218.74	2579.1	
218.95	2475.3	
219.16	4209.9	
219.38	4746.5	
219.59	2477.4	
219.8	2828.9	
220.01	4944.5	
220.23	4237.9	
220.44	2998.9	
220.65	2429.6	
220.87	4304.8	
221.08	4635.2	
221.29	2400.2	
221.5	2891	
221.72	5190.2	
221.93	3989.4	
222.14	2704	
222.35	3135.4	
222.57	4218.1	
222.78	4511	
222.99	2662.4	
223.2	2742.9	
223.42	4362.9	
223.63	4399.7	
223.84	2147	
224.05	2174.9	
224.27	4840.7	
224.48	4700.8	
224.69	3122.5	
224.9	2722.4	
225.12	4307.6	
225.33	4193.6	
225.54	2313.5	
225.75	2511.5	
225.97	4023.6	
226.18	4215.4	
226.39	2587.3	
226.6	2529.9	
226.82	4132.1	
227.03	3993.5	
227.24	2693.8	
227.45	2358.6	
227.67	4516.5	
227.88	4644.8	
228.09	3007.1	
228.3	3009.1	
228.52	4406.5	
228.73	4188.1	
228.94	2536.8	
229.15	2363.4	
229.36	4239.3	
229.58	4304.8	
229.79	2668.5	
230	2910.8	
230.21	4822.3	
230.43	4240.7	
230.64	2686.3	
230.85	2706.7	
231.06	4526	
231.28	4465.9	
231.49	2316.3	
231.7	2679.4	
231.91	4476.9	
232.12	4200.4	
232.34	2465.8	
232.55	2603.7	
232.76	4532.2	
232.97	4242	
233.18	2439.1	
233.4	2776.4	
233.61	4291.9	
233.82	4050.9	
234.03	2624.8	
234.25	2564.1	
234.46	5320.6	
234.67	4232.5	
234.88	2791.4	
235.09	2484.2	
235.31	4302.1	
235.52	4141.7	
235.73	2711.5	
235.94	2369.5	
236.15	4149.2	
236.37	4772.4	
236.58	2456.2	
236.79	2610.5	
237	4415.4	
237.21	3911.6	
237.43	2783.2	
237.64	2302.6	
237.85	6275	
238.06	3964.9	
238.27	2740.9	
238.48	2431.6	
238.7	4398.4	
238.91	4186	
239.12	2557.9	
239.33	2735.4	
239.54	3994.9	
239.76	4186	
239.97	2619.4	
240.18	2633.7	
240.39	4858.5	
240.6	4260.5	
240.82	2749.1	
241.03	2372.9	
241.24	4234.5	
241.45	4617.5	
241.66	2453.5	
241.87	2796.2	
242.09	4649.6	
242.3	4737	
242.51	2835.8	
242.72	2650.8	
242.93	4440	
243.14	4187.4	
243.36	2942.9	
243.57	3155.9	
243.78	4706.2	
243.99	4352.6	
244.2	2620	
244.41	2442.5	
244.63	3962.1	
244.84	4343.1	
245.05	2801.6	
245.26	2611.8	
245.47	4482.3	
245.68	4428.4	
245.9	3220.1	
246.11	2706	
246.32	4082.3	
246.53	4389.5	
246.74	3902.7	
246.95	2316.3	
247.16	4099.4	
247.38	4223.6	
247.59	2409.1	
247.8	2648	
248.01	3854.3	
248.22	4210.6	
248.43	2486.2	
248.64	2592.7	
248.86	3977.8	
249.07	4130.8	
249.28	2499.9	
249.49	2742.2	
249.7	4448.9	
249.91	4485.7	
250.12	2381.1	
250.34	2338.8	
250.55	4337.6	
250.76	4199	
250.97	2709.5	
251.18	2715.6	
251.39	4489.8	
251.6	4339.6	
251.81	2772.9	
252.03	2694.4	
252.24	4098	
252.45	4406.5	
252.66	2372.9	
252.87	2798.9	
253.08	4231.1	
253.29	5038	
253.5	2430.3	
253.72	3101.3	
253.93	4140.3	
254.14	4811.4	
254.35	2551.8	
254.56	2616.6	
254.77	4326	
254.98	4022.2	
255.19	2555.9	
255.41	3061.7	
255.62	4368.3	
255.83	4564.9	
256.04	2795.5	
256.25	2637.8	
256.46	4846.2	
256.67	4090.5	
256.88	2727.2	
257.09	2919.7	
257.31	3924.6	
257.52	4001.7	
257.73	3219.4	
257.94	2543.6	
258.15	4221.5	
258.36	4203.1	
258.57	2964.1	
258.78	2142.9	
258.99	4511	
259.2	4100.7	
259.41	2517.6	
259.63	2633	
259.84	4676.9	
260.05	4779.3	
260.26	3108.1	
260.47	2517	
260.68	4563.6	
260.89	4175.8	
261.1	2977.1	
261.31	2446	
261.52	4670.7	
261.73	4732.9	
261.95	3134.8	
262.16	2776.4	
262.37	4604.5	
262.58	4611.3	
262.79	3123.8	
263	2567.5	
263.21	4231.8	
263.42	4070	
263.63	2775.7	
263.84	2605	
264.05	4491.9	
264.26	4670.1	
264.47	3013.2	
264.69	2729.3	
264.9	4668.7	
265.11	4242	
265.32	2477.4	
265.53	2512.2	
265.74	4311	
265.95	3869.3	
266.16	2682.2	
266.37	2823.5	
266.58	4354.7	
266.79	4085.7	
267	2534	
267.21	2418.7	
267.42	3975.8	
267.63	4257.7	
267.84	2631.6	
268.06	2353.1	
268.27	4468	
268.48	4614.1	
268.69	2612.5	
268.9	2910.8	
269.11	4425.7	
269.32	3848.8	
269.53	2631.6	
269.74	2501.9	
269.95	4282.3	
270.16	3915	
270.37	2685.6	
270.58	2985.9	
270.79	4196.3	
271	4515.1	
271.21	2755.2	
271.42	2667.1	
271.63	4379.2	
271.84	3921.2	
272.05	2250	
272.26	2446.6	
272.47	4249.5	
272.68	4291.9	
272.89	2587.3	
273.11	2824.1	
273.32	4065.2	
273.53	4664.6	
273.74	2749.1	
273.95	2777	
274.16	4381.3	
274.37	4178.5	
274.58	2826.2	
274.79	2428.9	
275	4345.8	
275.21	4516.5	
275.42	3276.1	
275.63	2849.4	
275.84	4422.2	
276.05	5171.1	
276.26	2724.5	
276.47	2599.6	
276.68	4244.8	
276.89	4791.6	
277.1	2831.7	
277.31	2307.4	
277.52	4334.2	
277.73	4655	
277.94	2379.1	
278.15	2589.3	
278.36	4378.6	
278.57	4065.9	
278.78	2555.2	
278.99	2770.2	
279.2	4173.8	
279.41	3966.9	
279.62	3188	
279.83	2439.1	
280.04	4906.3	
280.25	3978.5	
280.46	3181.9	
280.67	2663.7	
280.88	4057	
281.09	4610.7	
281.3	2740.2	
281.51	3250.8	
281.72	4486.4	
281.93	4410	
282.14	2570.2	
282.35	2708.8	
282.56	4540.3	
282.77	4422.9	
282.98	2597.5	
283.19	3028.3	
283.4	5203.2	
283.61	4128.7	
283.82	2490.3	
284.03	3065.1	
284.24	4428.4	
284.45	4459.8	
284.66	3182.5	
284.87	2886.3	
285.08	4660.5	
285.29	4628.4	
285.5	2421.4	
285.71	2605.7	
285.92	4477.5	
286.12	4902.8	
286.33	3119.7	
286.54	2665.8	
286.75	4427	
286.96	4154.6	
287.17	2489	
287.38	2983.2	
287.59	4111.6	
287.8	4147.8	
288.01	2619.4	
288.22	2841.2	
288.43	4327.4	
288.64	3893.2	
288.85	3013.2	
289.06	2818.7	
289.27	4496.7	
289.48	4593.6	
289.69	3114.3	
289.9	2887.6	
290.11	4614.1	
290.32	4131.4	
290.53	2945.7	
290.74	2799.6	
290.94	4503.5	
291.15	4496.7	
291.36	2504.7	
291.57	2848	
291.78	4179.2	
291.99	3854.3	
292.2	2484.2	
292.41	2731.3	
292.62	4498	
292.83	4425.7	
293.04	3308.8	
293.25	2527.2	
293.46	4160.8	
293.67	4516.5	
293.88	2469.2	
294.09	2476	
294.29	4044.7	
294.5	4293.2	
294.71	2631	
294.92	2544.3	
295.13	4107.5	
295.34	4868	
295.55	2368.8	
295.76	2329.2	
295.97	4435.2	
296.18	4758.1	
296.39	2458.9	
296.6	2517	
296.81	4171	
297.01	4439.3	
297.22	2603	
297.43	2550.4	
297.64	4192.9	
297.85	3967.6	
298.06	2261	
298.27	2353.1	
298.48	4216.8	
298.69	4094.6	
298.9	2699.9	
299.11	2508.8	
299.31	4012.7	
299.52	4021.5	
299.73	2801.6	
299.94	2818	
300.15	4277.5	
300.36	4125.3	
300.57	2809.1	
300.78	2765.4	
300.99	4124.6	
301.2	4226.3	
301.4	2564.7	
301.61	2610.5	
301.82	4407.2	
302.03	4475.5	
302.24	2924.5	
302.45	2424.1	
302.66	4427.7	
302.87	4478.9	
303.08	2545.6	
303.29	3146.4	
303.49	4197.7	
303.7	4128	
303.91	2354.5	
304.12	3063.1	
304.33	3922.5	
304.54	4393.6	
304.75	2535.4	
304.96	2524.5	
305.16	4401.8	
305.37	4771.8	
305.58	2299.2	
305.79	2338.8	
306	4408.6	
306.21	3878.2	
306.42	2523.1	
306.63	3487.7	
306.83	4130.1	
307.04	4390.2	
307.25	2687.6	
307.46	2656.2	
307.67	3867.2	
307.88	4368.3	
308.09	2545.6	
308.29	2532	
308.5	4285.7	
308.71	4481.6	
308.92	2677.4	
309.13	2461.7	
309.34	4270	
309.55	4218.8	
309.75	3006.4	
309.96	2792.1	
310.17	4454.3	
310.38	4070	
310.59	2843.9	
310.8	2712.2	
311.01	4158.7	
311.21	4192.2	
311.42	2497.2	
311.63	2486.9	
311.84	4134.8	
312.05	4240	
312.26	2809.8	
312.46	2954.5	
312.67	4129.4	
312.88	3878.9	
313.09	2416.6	
313.3	2435	
313.51	4704.2	
313.71	4835.9	
313.92	2462.3	
314.13	2542.9	
314.34	4334.2	
314.55	4314.4	
314.76	2935.4	
314.96	2648	
315.17	4440.7	
315.38	4267.3	
315.59	2539.5	
315.8	2463	
316.01	4566.3	
316.21	4663.2	
316.42	2470.5	
316.63	2688.3	
316.84	4179.9	
317.05	4484.4	
317.26	2761.3	
317.46	2618.7	
317.67	4189.5	
317.88	4436.6	
318.09	2923.1	
318.3	2410.5	
318.5	4206.5	
318.71	4337.6	
318.92	3611.3	
319.13	2828.2	
319.34	4543.1	
319.54	4517.1	
319.75	2395.4	
319.96	2293	
320.17	4289.1	
320.38	4483.7	
320.58	2297.8	
320.79	2648	
321	4580.6	
321.21	4669.4	
321.42	2673.3	
321.62	2369.5	
321.83	4108.2	
322.04	4266.6	
322.25	2637.1	
322.46	2458.9	
322.66	4284.4	
322.87	4440.7	
323.08	2854.2	
323.29	2389.3	
323.5	4871.4	
323.7	3977.8	
323.91	3125.2	
324.12	2848	
324.33	4367	
324.53	4456.4	
324.74	2736.8	
324.95	2879.4	
325.16	4002.4	
325.37	4171.7	
325.57	2486.2	
325.78	2508.1	
325.99	4386.1	
326.2	3931.4	
326.4	3192.8	
326.61	2356.5	
326.82	4233.8	
327.03	4265.9	
327.24	3267.9	
327.44	3031.7	
327.65	4415.4	
327.86	3809.9	
328.07	2762	
328.27	2496.5	
328.48	4671.4	
328.69	3930.1	
328.9	3229	
329.1	2532.7	
329.31	4203.1	
329.52	4619.5	
329.73	2547.7	
329.93	2645.3	
330.14	4379.2	
330.35	4334.2	
330.56	3623.5	
330.76	2879.4	
330.97	4124.6	
331.18	4195.6	
331.39	2676	
331.59	2322.4	
331.8	4532.8	
332.01	4586.8	
332.22	2544.3	
332.42	2755.2	
332.63	4282.3	
332.84	3958	
333.05	2710.8	
333.25	2519	
333.46	4053.6	
333.67	4252.9	
333.88	2612.5	
334.08	2704	
334.29	5213.4	
334.5	4491.2	
334.7	2440.5	
334.91	3234.4	
335.12	3923.2	
335.33	4349.2	
335.53	2683.5	
335.74	3517	
335.95	4207.9	
336.16	3915	
336.36	2659.6	
336.57	2959.3	
336.78	3865.9	
336.98	4513.7	
337.19	3109.5	
337.4	2622.1	
337.61	4890.5	
337.81	3947.1	
338.02	2540.8	
338.23	2950.4	
338.43	4655	
338.64	4069.3	
338.85	2501.9	
339.05	3057.6	
339.26	4777.2	
339.47	3896.6	
339.68	2464.4	
339.88	3327.9	
340.09	4482.3	
340.3	4497.3	
340.5	2745.6	
340.71	2352.4	
340.92	3986.7	
341.13	4600.4	
341.33	2384.5	
341.54	2776.4	
341.75	4380.6	
341.95	4081.6	
342.16	2737.5	
342.37	2862.4	
342.57	3984	
342.78	4169.7	
342.99	2902	
343.19	2353.1	
343.4	4447.5	
343.61	4413.4	
343.81	2635.7	
344.02	2413.9	
344.23	4437.3	
344.43	4643.4	
344.64	2901.3	
344.85	2877.4	
345.06	4433.9	
345.26	4497.3	
345.47	2865.1	
345.68	3107.5	
345.88	3930.7	
346.09	4505.5	
346.3	2799.6	
346.5	2199.5	
346.71	4134.2	
346.92	4113.7	
347.12	2379.7	
347.33	2738.8	
347.54	4477.5	
347.74	4657.1	
347.95	2740.2	
348.16	2274.6	
348.36	4124.6	
348.57	3991.5	
348.78	2815.3	
348.98	2889.7	
349.19	4199.7	
349.39	3891.1	
349.6	2407	
349.81	2540.8	
350.01	4448.9	
350.22	4001.7	
350.43	2753.8	
350.63	3066.5	
350.84	4169.7	
351.05	4031.8	
351.25	2509.4	
351.46	2361.3	
351.67	4421.6	
351.87	4039.3	
352.08	2637.8	
352.29	2909.5	
352.49	4504.8	
352.7	4466.6	
352.9	2469.2	
353.11	2881.5	
353.32	4788.2	
353.52	4154.6	
353.73	2499.2	
353.94	2921.1	
354.14	4453	
354.35	4161.5	
354.55	2518.3	
354.76	2650.1	
354.97	4401.8	
355.17	4152.6	
355.38	2482.1	
355.59	3029.6	
355.79	4045.4	
356	4141	
356.2	2712.2	
356.41	2478	
356.62	4017.4	
356.82	4177.9	
357.03	2899.9	
357.24	2631	
357.44	4012.7	
357.65	4126	
357.85	3201	
358.06	2770.9	
358.27	3906.8	
358.47	3932.8	
358.68	2463	
358.88	2868.5	
359.09	4339	
359.3	4459.8	
359.5	3197.6	
359.71	2930	
359.91	4702.8	
360.12	4332.1	
360.33	2904.7	
360.53	3073.3	
360.74	4175.8	
360.94	4160.1	
361.15	3013.9	
361.36	2589.3	
361.56	4550.6	
361.77	4247.5	
361.97	3177.1	
362.18	2742.2	
362.38	4502.1	
362.59	4063.2	
362.8	2552.5	
363	2471.2	
363.21	4013.3	
363.41	4200.4	
363.62	2815.3	
363.83	3257	
364.03	4444.8	
364.24	4695.3	
364.44	3422.2	
364.65	3361.4	
364.85	4186.7	
365.06	4060.4	
365.27	2640.5	
365.47	2699.9	
365.68	4709.6	
365.88	4199	
366.09	2906.8	
366.29	2675.3	
366.5	4304.1	
366.71	4532.2	
366.91	3362.1	
367.12	2988	
367.32	4859.8	
367.53	4414.7	
367.73	3050.8	
367.94	3493.2	
368.14	4488.5	
368.35	4745.8	
368.56	2949.8	
368.76	2800.3	
368.97	4506.2	
369.17	5332.9	
369.38	2717.7	
369.58	2846.7	
369.79	4004.5	
369.99	4775.9	
370.2	3442	
370.4	2910.2	
370.61	4339.6	
370.82	5080.3	
371.02	2883.5	
371.23	2583.2	
371.43	4145.1	
371.64	4800.4	
371.84	2887.6	
372.05	3420.8	
372.25	5314.5	
372.46	4443.4	
372.66	2893.1	
372.87	2913.6	
373.07	4517.1	
373.28	5401.2	
373.48	3394.2	
373.69	3208.5	
373.9	4356.7	
374.1	4354.7	
374.31	3411.2	
374.51	3076.7	
374.72	4780	
374.92	4229.7	
375.13	3483.6	
375.33	3063.1	
375.54	4522.6	
375.74	4261.8	
375.95	3164.8	
376.15	3753.9	
376.36	4699.4	
376.56	4558.1	
376.77	3149.1	
376.97	3367.5	
377.18	5221.6	
377.38	4670.1	
377.59	3501.3	
377.79	2968.2	
378	4569.7	
378.2	4659.1	
378.41	2990.7	
378.61	2899.2	
378.82	4832.5	
379.02	4439.3	
379.23	3117.7	
379.43	3541.6	
379.64	4968.4	
379.84	4638.6	
380.05	3027.6	
380.25	2905.4	
380.46	4686.4	
380.66	4504.8	
380.87	3650.2	
381.07	3818.1	
381.28	4992.3	
381.48	4685.8	
381.69	2979.8	
381.89	3016	
382.1	4229.7	
382.3	4663.2	
382.51	3528.7	
382.71	4000.4	
382.91	4545.8	
383.12	4930.8	
383.32	3176.4	
383.53	3281.5	
383.73	4615.4	
383.94	4585.4	
384.14	3272	
384.35	2844.6	
384.55	4357.4	
384.76	4648.2	
384.96	3220.8	
385.17	3364.8	
385.37	4676.2	
385.58	4235.9	
385.78	3303.4	
385.98	2807.1	
386.19	4461.8	
386.39	4726.7	
386.6	3091.1	
386.8	3162.7	
387.01	4651.6	
387.21	4775.9	
387.42	3385.3	
387.62	3713.6	
387.83	4451.6	
388.03	4527.4	
388.23	3265.8	
388.44	3599	
388.64	4291.9	
388.85	4301.4	
389.05	3351.2	
389.26	3685	
389.46	5407.3	
389.67	5043.5	
389.87	3497.9	
390.07	3422.2	
390.28	4549.9	
390.48	4331.5	
390.69	3030.3	
390.89	3276.1	
391.1	4598.4	
391.3	4902.2	
391.5	3861.1	
391.71	4057.7	
391.91	4897.4	
392.12	5186.1	
392.32	3855.6	
392.53	3444.7	
392.73	4602.5	
392.93	4627.7	
393.14	3319.8	
393.34	3670.6	
393.55	4954	
393.75	4584.7	
393.95	3300	
394.16	3269.9	
394.36	4620.2	
394.57	4878.3	
394.77	3082.2	
394.98	3228.3	
395.18	4541.7	
395.38	4541	
395.59	3753.9	
395.79	3217.4	
396	4725.3	
396.2	4935.6	
396.4	3663.8	
396.61	3618.1	
396.81	4986.8	
397.02	4531.5	
397.22	3792.8	
397.42	3779.2	
397.63	5122	
397.83	4618.9	
398.04	3278.8	
398.24	3534.1	
398.44	4896.7	
398.65	4440.7	
398.85	3222.1	
399.05	3237.8	
399.26	4710.3	
399.46	5523.4	
399.67	3474.7	
399.87	3327.9	
400.07	4942.4	
400.28	5005.2	
400.48	3427.6	
400.69	3927.3	
400.89	5114.5	
401.09	5432.6	
401.3	3429	
401.5	3979.9	
401.7	5523.4	
401.91	5591.6	
402.11	3729.4	
402.32	3655.6	
402.52	5256.5	
402.72	5173.9	
402.93	3831.7	
403.13	3257	
403.33	5628.5	
403.54	4855.7	
403.74	3625.6	
403.94	4027.7	
404.15	4903.5	
404.35	5608	
404.56	3540.3	
404.76	4433.9	
404.96	5238	
405.17	5091.3	
405.37	3918.4	
405.57	3846.8	
405.78	5320.6	
405.98	4961.5	
406.18	3617.4	
406.39	4011.3	
406.59	5231.9	
406.79	4919.2	
407	3454.9	
407.2	3588	
407.4	5486.5	
407.61	5379.3	
407.81	3644.7	
408.01	4800.4	
408.22	4704.2	
408.42	5737	
408.62	4263.2	
408.83	4083.6	
409.03	5244.8	
409.23	5221	
409.44	4153.3	
409.64	4207.9	
409.84	5791	
410.05	5800.5	
410.25	4277.5	
410.45	4179.9	
410.66	5633.3	
410.86	6877.1	
411.06	4438.6	
411.27	4424.3	
411.47	6879.1	
411.67	5814.2	
411.88	4487.1	
412.08	4690.5	
412.28	6080.4	
412.49	6376	
412.69	4476.9	
412.89	4506.2	
413.09	6369.9	
413.3	6294.1	
413.5	4645.5	
413.7	4480.3	
413.91	5948.7	
414.11	6404	
414.31	4606.6	
414.52	4803.9	
414.72	6204.7	
414.92	6122.7	
415.12	4597	
415.33	4913.8	
415.53	6349.4	
415.73	6500.3	
415.94	5024.3	
416.14	4733.5	
416.34	6048.3	
416.55	5778.7	
416.75	5343.8	
416.95	5171.1	
417.15	6673	
417.36	6852.5	
417.56	5662.6	
417.76	5097.4	
417.97	6682.5	
418.17	6598.6	
418.37	5005.2	
418.57	4902.2	
418.78	6604.7	
418.98	6295.5	
419.18	5436	
419.38	5345.9	
419.59	6334.4	
419.79	6113.2	
419.99	4822.3	
420.2	5076.9	
420.4	6669.6	
420.6	6591	
420.8	4900.8	
421.01	4800.4	
421.21	6626.5	
421.41	6598.6	
421.61	5070.8	
421.82	4917.9	
422.02	6460.7	
422.22	6797.9	
422.42	5260.5	
422.63	5039.4	
422.83	6421.1	
423.03	7077.8	
423.23	5164.3	
423.44	4679.6	
423.64	6376	
423.84	6147.3	
424.04	4968.4	
424.25	4657.1	
424.45	6852.5	
424.65	6793.8	
424.85	4571.1	
425.06	4902.2	
425.26	7081.2	
425.46	6311.8	
425.66	5074.9	
425.87	4951.3	
426.07	6602	
426.27	6588.3	
426.47	5068	
426.67	4667.3	
426.88	6935.1	
427.08	6562.4	
427.28	5235.3	
427.48	4661.9	
427.69	6057.2	
427.89	6451.1	
428.09	5125.4	
428.29	4712.4	
428.5	6662.7	
428.7	6555.5	
428.9	4755.4	
429.1	4929.5	
429.3	6552.8	
429.51	6660	
429.71	4814.8	
429.91	5334.3	
430.11	6825.9	
430.31	7047.1	
430.52	5105.6	
430.72	5268.1	
430.92	7025.2	
431.12	6694.1	
431.32	4920.6	
431.53	5132.2	
431.73	6300.9	
431.93	7121.5	
432.13	4906.9	
432.33	4887.1	
432.54	6579.4	
432.74	6651.1	
432.94	4851	
433.14	5481	
433.34	6990.4	
433.55	6793.8	
433.75	5410.7	
433.95	6351.4	
434.15	6896.9	
434.35	6688.7	
434.56	5098.1	
434.76	4850.3	
434.96	6840.9	
435.16	7057.3	
435.36	5126.7	
435.56	5753.4	
435.77	6749.4	
435.97	6919.4	
436.17	6088.6	
436.37	5739.8	
436.57	6763.8	
436.78	6784.2	
436.98	6248.4	
437.18	5989.6	
437.38	6941.9	
437.58	6765.1	
437.78	6113.2	
437.99	5381.4	
438.19	7137.2	
438.39	7529.7	
438.59	5368.4	
438.79	5039.4	
438.99	7403.4	
439.2	6752.2	
439.4	5032.5	
439.6	5143.1	
439.8	6859.3	
440	7575.4	
440.2	5755.5	
440.4	5796.4	
440.61	7441.6	
440.81	7570	
441.01	5480.4	
441.21	5874.9	
441.41	7730.4	
441.61	7391.1	
441.81	6171.9	
442.02	6631.3	
442.22	8058.1	
442.42	7447.8	
442.62	5563	
442.82	5597.8	
443.02	7885.4	
443.22	7415.7	
443.43	6019.7	
443.63	5624.4	
443.83	7146.7	
444.03	7230.7	
444.23	6348.7	
444.43	6148.7	
444.63	7548.8	
444.83	8079.9	
445.04	5933.6	
445.24	6421.7	
445.44	7775.5	
445.64	7610.9	
445.84	6111.8	
446.04	6177.4	
446.24	7220.5	
446.44	7821.9	
446.65	5550.7	
446.85	5988.9	
447.05	7296.2	
447.25	7781.6	
447.45	6008.7	
447.65	5657.9	
447.85	7572.7	
448.05	7129.7	
448.25	6247	
448.46	6052.4	
448.66	7529	
448.86	7245.7	
449.06	5750.7	
449.26	6169.2	
449.46	7770.7	
449.66	7212.9	
449.86	6110.5	
450.06	6034.7	
450.26	7387	
450.47	7702.4	
450.67	6189.6	
450.87	6300.2	
451.07	7948.2	
451.27	7703.1	
451.47	5784.8	
451.67	6252.4	
451.87	7619.1	
452.07	8082.6	
452.27	6142.5	
452.47	6035.4	
452.67	7681.2	
452.88	7777.5	
453.08	5683.8	
453.28	6761.7	
453.48	8529.1	
453.68	7593.2	
453.88	6102.3	
454.08	6142.5	
454.28	8018.5	
454.48	7817.8	
454.68	6488.6	
454.88	6690	
455.08	8265.6	
455.28	8037.6	
455.48	6012.8	
455.68	6567.2	
455.89	8489.5	
456.09	8363.9	
456.29	6399.2	
456.49	6614.3	
456.69	8510.7	
456.89	8030.8	
457.09	6759	
457.29	7011.6	
457.49	8378.2	
457.69	8484.1	
457.89	6969.2	
458.09	6372.6	
458.29	8447.2	
458.49	8859.5	
458.69	7168.6	
458.89	6880.5	
459.09	9029.5	
459.29	8883.4	
459.49	6882.5	
459.69	7322.2	
459.9	8703.2	
460.1	8544.1	
460.3	6809.5	
460.5	6686.6	
460.7	8854.7	
460.9	8480.6	
461.1	6749.4	
461.3	7372	
461.5	9288.2	
461.7	9091.6	
461.9	7145.4	
462.1	7306.5	
462.3	8933.9	
462.5	9124.4	
462.7	7247.1	
462.9	7286	
463.1	9733.3	
463.3	9783.1	
463.5	7465.5	
463.7	8198	
463.9	9325.1	
464.1	9512.1	
464.3	7944.8	
464.5	7858.1	
464.7	9711.5	
464.9	9652.1	
465.1	8624.7	
465.3	8109.3	
465.5	9871.9	
465.7	10094	
465.9	8423.3	
466.1	7974.1	
466.3	9948.3	
466.5	9778.4	
466.7	8974.9	
466.9	8212.4	
467.1	10069	
467.3	10398	
467.5	8869.1	
467.7	8370	
467.9	10525	
468.1	11049	
468.3	8729.1	
468.5	8984.4	
468.7	10065	
468.9	9931.3	
469.1	8710	
469.3	9053.4	
469.5	11156	
469.7	9963.4	
469.9	8688.2	
470.1	8604.9	
470.3	10338	
470.5	10217	
470.7	9209.7	
470.9	8535.3	
471.1	10176	
471.3	10247	
471.5	8516.1	
471.69	9443.9	
471.89	10043	
472.09	9627.5	
472.29	8837.7	
472.49	8996	
472.69	10023	
472.89	10187	
473.09	8530.5	
473.29	8322.3	
473.49	9987.9	
473.69	9877.4	
473.89	8875.9	
474.09	8460.2	
474.29	10621	
474.49	10404	
474.69	8930.5	
474.89	8548.9	
475.09	10006	
475.29	10096	
475.49	8266.3	
475.69	8518.9	
475.88	10726	
476.08	10262	
476.28	8275.2	
476.48	8245.8	
476.68	10494	
476.88	10232	
477.08	8359.8	
477.28	8542.1	
477.48	9935.4	
477.68	10161	
477.88	8328.4	
478.08	8476.5	
478.28	10564	
478.48	10045	
478.67	8512.7	
478.87	8064.2	
479.07	10528	
479.27	10062	
479.47	8621.9	
479.67	8744.8	
479.87	10451	
480.07	10630	
480.27	8341.4	
480.47	9009	
480.67	10185	
480.87	10633	
481.06	8443.8	
481.26	8968.7	
481.46	10400	
481.66	10180	
481.86	8880.7	
482.06	9234.3	
482.26	10187	
482.46	10623	
482.66	8706.6	
482.86	8509.3	
483.05	10519	
483.25	10061	
483.45	10133	
483.65	8846.5	
483.85	10099	
484.05	10411	
484.25	9069.8	
484.45	9486.9	
484.65	10635	
484.84	11052	
485.04	8924.4	
485.24	8908	
485.44	11155	
485.64	10333	
485.84	8682	
486.04	9380.4	
486.24	10614	
486.44	10672	
486.63	8613.1	
486.83	9314.8	
487.03	10746	
487.23	10894	
487.43	8790.6	
487.63	10034	
487.83	10959	
488.02	11009	
488.22	9500.5	
488.42	9791.3	
488.62	11415	
488.82	10813	
489.02	9280.7	
489.22	9478.7	
489.41	11157	
489.61	11357	
489.81	9318.3	
490.01	9319.6	
490.21	11454	
490.41	11869	
490.61	9425.4	
490.8	9385.2	
491	11249	
491.2	10821	
491.4	9598.1	
491.6	9238.4	
491.8	11131	
491.99	10941	
492.19	9182.4	
492.39	9268.4	
492.59	11356	
492.79	11539	
492.99	9786.6	
493.18	9507.4	
493.38	11736	
493.58	12306	
493.78	10089	
493.98	9727.9	
494.18	11636	
494.37	11402	
494.57	10395	
494.77	10294	
494.97	12108	
495.17	12287	
495.37	10290	
495.56	10575	
495.76	12489	
495.96	12420	
496.16	11151	
496.36	10731	
496.55	12603	
496.75	12317	
496.95	10930	
497.15	10936	
497.35	12702	
497.54	12659	
497.74	10767	
497.94	11679	
498.14	13175	
498.34	12850	
498.53	10793	
498.73	11177	
498.93	12420	
499.13	12763	
499.33	11227	
499.52	11262	
499.72	13190	
499.92	13041	
500.12	11197	
500.32	11296	
500.51	13148	
500.71	13097	
500.91	11656	
501.11	11390	
501.31	13186	
501.5	13342	
501.7	11868	
501.9	11408	
502.1	12960	
502.29	13288	
502.49	11668	
502.69	11759	
502.89	13047	
503.09	13080	
503.28	10851	
503.48	10954	
503.68	12676	
503.88	12580	
504.07	11465	
504.27	10984	
504.47	12934	
504.67	12811	
504.86	11443	
505.06	11194	
505.26	12612	
505.46	13527	
505.65	11052	
505.85	11141	
506.05	12562	
506.25	12837	
506.44	10590	
506.64	10953	
506.84	12306	
507.04	12650	
507.23	10602	
507.43	10951	
507.63	13314	
507.83	12209	
508.02	10861	
508.22	10795	
508.42	13471	
508.62	12274	
508.81	10776	
509.01	11167	
509.21	12088	
509.4	12394	
509.6	10901	
509.8	10735	
510	12331	
510.19	13018	
510.39	10544	
510.59	10848	
510.79	12415	
510.98	13099	
511.18	10978	
511.38	10903	
511.57	13055	
511.77	12529	
511.97	11262	
512.17	10585	
512.36	12764	
512.56	12615	
512.76	10607	
512.95	10516	
513.15	12924	
513.35	12115	
513.55	11223	
513.74	10788	
513.94	12809	
514.14	12487	
514.33	11271	
514.53	11098	
514.73	12532	
514.92	12746	
515.12	10925	
515.32	10867	
515.51	12791	
515.71	12768	
515.91	11886	
516.11	10901	
516.3	13721	
516.5	12658	
516.7	11312	
516.89	11645	
517.09	12727	
517.29	12796	
517.48	11391	
517.68	11028	
517.88	12357	
518.07	13005	
518.27	11430	
518.47	11032	
518.66	13209	
518.86	12541	
519.06	10835	
519.25	11111	
519.45	12677	
519.65	13487	
519.84	11546	
520.04	11925	
520.24	13747	
520.43	13111	
520.63	11292	
520.83	11229	
521.02	12701	
521.22	12891	
521.42	11199	
521.61	11594	
521.81	12655	
522.01	12892	
522.2	11505	
522.4	11168	
522.6	13130	
522.79	12473	
522.99	11339	
523.18	11089	
523.38	13249	
523.58	13226	
523.77	12321	
523.97	11458	
524.17	14453	
524.36	13917	
524.56	12123	
524.76	12131	
524.95	13695	
525.15	13642	
525.34	12090	
525.54	12227	
525.74	14186	
525.93	13565	
526.13	12975	
526.33	12502	
526.52	14403	
526.72	14208	
526.91	13191	
527.11	12816	
527.31	14506	
527.5	14758	
527.7	12923	
527.89	12433	
528.09	14114	
528.29	14558	
528.48	13166	
528.68	12848	
528.87	14739	
529.07	14670	
529.27	12921	
529.46	12660	
529.66	14678	
529.85	14926	
530.05	12780	
530.25	12928	
530.44	15442	
530.64	14431	
530.83	12890	
531.03	13123	
531.23	14965	
531.42	14672	
531.62	13627	
531.81	12965	
532.01	15099	
532.21	15332	
532.4	13371	
532.6	13614	
532.79	15670	
532.99	15550	
533.18	13825	
533.38	14336	
533.58	15326	
533.77	15551	
533.97	13968	
534.16	14181	
534.36	16059	
534.55	15606	
534.75	14510	
534.95	14026	
535.14	16278	
535.34	15573	
535.53	13844	
535.73	14831	
535.92	16427	
536.12	15444	
536.31	13865	
536.51	14475	
536.71	15713	
536.9	15513	
537.1	13867	
537.29	14082	
537.49	15866	
537.68	15479	
537.88	14321	
538.07	13758	
538.27	15797	
538.46	16222	
538.66	13842	
538.86	14240	
539.05	15866	
539.25	16029	
539.44	14448	
539.64	13847	
539.83	15680	
540.03	16229	
540.22	13854	
540.42	13734	
540.61	15483	
540.81	15805	
541	13935	
541.2	14578	
541.39	15234	
541.59	15580	
541.78	14326	
541.98	13635	
542.18	15184	
542.37	15107	
542.57	13822	
542.76	14358	
542.96	15117	
543.15	15327	
543.35	13692	
543.54	13462	
543.74	14835	
543.93	15218	
544.13	13444	
544.32	14007	
544.52	15406	
544.71	14909	
544.91	12920	
545.1	13600	
545.3	14975	
545.49	15192	
545.69	13084	
545.88	13233	
546.08	15785	
546.27	15358	
546.47	13499	
546.66	13037	
546.86	15217	
547.05	15434	
547.24	13281	
547.44	13275	
547.63	14747	
547.83	15180	
548.02	13514	
548.22	13439	
548.41	14543	
548.61	15164	
548.8	13003	
549	13215	
549.19	14771	
549.39	15016	
549.58	12725	
549.78	13112	
549.97	14868	
550.17	14509	
550.36	13409	
550.55	13900	
550.75	14498	
550.94	15090	
551.14	12754	
551.33	12833	
551.53	14207	
551.72	14708	
551.92	12936	
552.11	12950	
552.31	14715	
552.5	14615	
552.69	13824	
552.89	12497	
553.08	14633	
553.28	14486	
553.47	12798	
553.67	13407	
553.86	14880	
554.06	13844	
554.25	12377	
554.44	12726	
554.64	15270	
554.83	15078	
555.03	12567	
555.22	12796	
555.42	14776	
555.61	14534	
555.8	12669	
556	12738	
556.19	14004	
556.39	14382	
556.58	12512	
556.78	12613	
556.97	14426	
557.16	14234	
557.36	13142	
557.55	12516	
557.75	13831	
557.94	14890	
558.13	12539	
558.33	12376	
558.52	14816	
558.72	13855	
558.91	12546	
559.1	12398	
559.3	13938	
559.49	13654	
559.69	12508	
559.88	12573	
560.07	14266	
560.27	14520	
560.46	12648	
560.66	12766	
560.85	14169	
561.04	13602	
561.24	12253	
561.43	12224	
561.63	13811	
561.82	14037	
562.01	12867	
562.21	12452	
562.4	14093	
562.59	14470	
562.79	12624	
562.98	12390	
563.18	14173	
563.37	14905	
563.56	12748	
563.76	12398	
563.95	14123	
564.14	14070	
564.34	12704	
564.53	12483	
564.73	14414	
564.92	14414	
565.11	12788	
565.31	12478	
565.5	14803	
565.69	14044	
565.89	12803	
566.08	12893	
566.27	14655	
566.47	14936	
566.66	13328	
566.85	12598	
567.05	14514	
567.24	14530	
567.44	12639	
567.63	13427	
567.82	14758	
568.02	14496	
568.21	12757	
568.4	12970	
568.6	14566	
568.79	14459	
568.98	12768	
569.18	12837	
569.37	14704	
569.56	15621	
569.76	13187	
569.95	13647	
570.14	14837	
570.34	14672	
570.53	12900	
570.72	12904	
570.91	15174	
571.11	14740	
571.3	13146	
571.49	13534	
571.69	14839	
571.88	14493	
572.07	13516	
572.27	13408	
572.46	14448	
572.65	14971	
572.85	13044	
573.04	13293	
573.23	15197	
573.43	14808	
573.62	13075	
573.81	13363	
574	15068	
574.2	14881	
574.39	13427	
574.58	13454	
574.78	15649	
574.97	15195	
575.16	13818	
575.36	13850	
575.55	15589	
575.74	15666	
575.93	13400	
576.13	14078	
576.32	15229	
576.51	15625	
576.71	13777	
576.9	14505	
577.09	15893	
577.28	15512	
577.48	13972	
577.67	13457	
577.86	15289	
578.05	15617	
578.25	13861	
578.44	13844	
578.63	15472	
578.83	16199	
579.02	13662	
579.21	14517	
579.4	15528	
579.6	15557	
579.79	13960	
579.98	15117	
580.17	15793	
580.37	15948	
580.56	13754	
580.75	14085	
580.94	15967	
581.14	16108	
581.33	14454	
581.52	14027	
581.71	15821	
581.91	16334	
582.1	13913	
582.29	13964	
582.48	15808	
582.68	15697	
582.87	14302	
583.06	14320	
583.25	16082	
583.45	15822	
583.64	14637	
583.83	14916	
584.02	15767	
584.21	16016	
584.41	14453	
584.6	14296	
584.79	15842	
584.98	16193	
585.18	13962	
585.37	13960	
585.56	15780	
585.75	16044	
585.94	13938	
586.14	14529	
586.33	16216	
586.52	15776	
586.71	14177	
586.91	13957	
587.1	15173	
587.29	15980	
587.48	13678	
587.67	13907	
587.87	15696	
588.06	15351	
588.25	14364	
588.44	14022	
588.63	15113	
588.83	15384	
589.02	13579	
589.21	13287	
589.4	15011	
589.59	14821	
589.78	12736	
589.98	12824	
590.17	14052	
590.36	14205	
590.55	11994	
590.74	12199	
590.94	14615	
591.13	13855	
591.32	12153	
591.51	11810	
591.7	13999	
591.89	13868	
592.09	12012	
592.28	12279	
592.47	13272	
592.66	14717	
592.85	12005	
593.05	12204	
593.24	13843	
593.43	14424	
593.62	12439	
593.81	12458	
594	14063	
594.19	14055	
594.39	12290	
594.58	12258	
594.77	14164	
594.96	14419	
595.15	12170	
595.34	12350	
595.54	13822	
595.73	13459	
595.92	11672	
596.11	12210	
596.3	14085	
596.49	13539	
596.68	12152	
596.88	12297	
597.07	13979	
597.26	13368	
597.45	11811	
597.64	12577	
597.83	13624	
598.02	13884	
598.22	11908	
598.41	12347	
598.6	13830	
598.79	13422	
598.98	11777	
599.17	12406	
599.36	13938	
599.55	14163	
599.74	13021	
599.94	12907	
600.13	14106	
600.32	13474	
600.51	11777	
600.7	11814	
600.89	14399	
601.08	14427	
601.27	11855	
601.47	12076	
601.66	14024	
601.85	14245	
602.04	12220	
602.23	12043	
602.42	13562	
602.61	13779	
602.8	11897	
602.99	11820	
603.18	13614	
603.37	13747	
603.57	12196	
603.76	12480	
603.95	14085	
604.14	13809	
604.33	11816	
604.52	12032	
604.71	13872	
604.9	13466	
605.09	12386	
605.28	12142	
605.47	14195	
605.66	13687	
605.86	12269	
606.05	11902	
606.24	14089	
606.43	13201	
606.62	12116	
606.81	12442	
607	13937	
607.19	13562	
607.38	11708	
607.57	11866	
607.76	13287	
607.95	13037	
608.14	12144	
608.33	12426	
608.52	13346	
608.72	13856	
608.91	11481	
609.1	11473	
609.29	13381	
609.48	13026	
609.67	11936	
609.86	11460	
610.05	13016	
610.24	13124	
610.43	11438	
610.62	11274	
610.81	13906	
611	13753	
611.19	11532	
611.38	11822	
611.57	13441	
611.76	14018	
611.95	11408	
612.14	11358	
612.33	13181	
612.52	13160	
612.71	11658	
612.9	11254	
613.09	12828	
613.28	14091	
613.47	11594	
613.66	12013	
613.85	13573	
614.04	12930	
614.24	11533	
614.43	11136	
614.62	13369	
614.81	13380	
615	11742	
615.19	11847	
615.38	12973	
615.57	13350	
615.76	11823	
615.95	12413	
616.14	13584	
616.33	13237	
616.52	12088	
616.71	12084	
616.9	13381	
617.09	13336	
617.28	11654	
617.47	12164	
617.66	13060	
617.85	13210	
618.04	12263	
618.22	11935	
618.41	13373	
618.6	14100	
618.79	12058	
618.98	11985	
619.17	14186	
619.36	13275	
619.55	12185	
619.74	12227	
619.93	13914	
620.12	13509	
620.31	12587	
620.5	12618	
620.69	14273	
620.88	14638	
621.07	13097	
621.26	12626	
621.45	14319	
621.64	14291	
621.83	12766	
622.02	12514	
622.21	14292	
622.4	14269	
622.59	13120	
622.78	13141	
622.97	14088	
623.16	14631	
623.35	12851	
623.54	12323	
623.72	14208	
623.91	14276	
624.1	13130	
624.29	12335	
624.48	14911	
624.67	14521	
624.86	13001	
625.05	12600	
625.24	14984	
625.43	14192	
625.62	13856	
625.81	12677	
626	14478	
626.19	14387	
626.38	13113	
626.56	12776	
626.75	14216	
626.94	14638	
627.13	12975	
627.32	12347	
627.51	14741	
627.7	15031	
627.89	12222	
628.08	13009	
628.27	13919	
628.46	14160	
628.65	12357	
628.83	12205	
629.02	14364	
629.21	13906	
629.4	12787	
629.59	12856	
629.78	14104	
629.97	14593	
630.16	12747	
630.35	12435	
630.54	14799	
630.72	14622	
630.91	12732	
631.1	12774	
631.29	14307	
631.48	14328	
631.67	12927	
631.86	12586	
632.05	14266	
632.24	14229	
632.42	12445	
632.61	12764	
632.8	14034	
632.99	13886	
633.18	12719	
633.37	12816	
633.56	14317	
633.75	14294	
633.93	12827	
634.12	12712	
634.31	14840	
634.5	14623	
634.69	12608	
634.88	12833	
635.07	14336	
635.25	14617	
635.44	13219	
635.63	13268	
635.82	14133	
636.01	13515	
636.2	12972	
636.39	12793	
636.57	14768	
636.76	14347	
636.95	12591	
637.14	13197	
637.33	14413	
637.52	14871	
637.7	12332	
637.89	13005	
638.08	14263	
638.27	14831	
638.46	13044	
638.65	12902	
638.83	14590	
639.02	13923	
639.21	12698	
639.4	12968	
639.59	14093	
639.78	13895	
639.96	12319	
640.15	12131	
640.34	13967	
640.53	13920	
640.72	12054	
640.91	12195	
641.09	13480	
641.28	14288	
641.47	12281	
641.66	12579	
641.85	13987	
642.03	13903	
642.22	12367	
642.41	12247	
642.6	13536	
642.79	13051	
642.97	11959	
643.16	12335	
643.35	13436	
643.54	13205	
643.73	11759	
643.91	12103	
644.1	13082	
644.29	13489	
644.48	11647	
644.67	11741	
644.85	12839	
645.04	13378	
645.23	11252	
645.42	11569	
645.6	12793	
645.79	13348	
645.98	11038	
646.17	10580	
646.36	12278	
646.54	12314	
646.73	11318	
646.92	10750	
647.11	12198	
647.29	12753	
647.48	10744	
647.67	10458	
647.86	12895	
648.05	12784	
648.23	10721	
648.42	11386	
648.61	12504	
648.8	12368	
648.98	10467	
649.17	10746	
649.36	12112	
649.55	11908	
649.73	10615	
649.92	10996	
650.11	12065	
650.3	12206	
650.48	10639	
650.67	10546	
650.86	12338	
651.05	11824	
651.23	10546	
651.42	10579	
651.61	12106	
651.79	11712	
651.98	10714	
652.17	10353	
652.36	12079	
652.54	11586	
652.73	10477	
652.92	10281	
653.11	12056	
653.29	12248	
653.48	9929.2	
653.67	10378	
653.85	11802	
654.04	12365	
654.23	10380	
654.42	10106	
654.6	11426	
654.79	11630	
654.98	9701.2	
655.16	9877.4	
655.35	10842	
655.54	10722	
655.73	9372.2	
655.91	9303.2	
656.1	11101	
656.29	10521	
656.47	9103.2	
656.66	10081	
656.85	11073	
657.03	11069	
657.22	9587.2	
657.41	9758.6	
657.59	11182	
657.78	11191	
657.97	9667.8	
658.16	9957.2	
658.34	11714	
658.53	12026	
658.72	10481	
658.9	10773	
659.09	11409	
659.28	11498	
659.46	9980.4	
659.65	9950.4	
659.84	11324	
660.02	11815	
660.21	9911.5	
660.4	9897.8	
660.58	11817	
660.77	11544	
660.96	10273	
661.14	9692.4	
661.33	12153	
661.52	12029	
661.7	9731.3	
661.89	11319	
662.08	11191	
662.26	10869	
662.45	9777	
662.64	9757.9	
662.82	11754	
663.01	11202	
663.2	9837.1	
663.38	10208	
663.57	11492	
663.75	11476	
663.94	9993.4	
664.13	10596	
664.31	11241	
664.5	11570	
664.69	10066	
664.87	10176	
665.06	10968	
665.25	11416	
665.43	10488	
665.62	10438	
665.8	11537	
665.99	11180	
666.18	9938.1	
666.36	10000	
666.55	11387	
666.74	11437	
666.92	9693	
667.11	10440	
667.29	11407	
667.48	11562	
667.67	10165	
667.85	9809.1	
668.04	11030	
668.22	11140	
668.41	9870.5	
668.6	10006	
668.78	11043	
668.97	11221	
669.15	9995.5	
669.34	9400.9	
669.53	11085	
669.71	11216	
669.9	9508	
670.08	9858.9	
670.27	11009	
670.46	11333	
670.64	10043	
670.83	10221	
671.01	10714	
671.2	11191	
671.38	9704.6	
671.57	9545.6	
671.76	11652	
671.94	11834	
672.13	9428.8	
672.31	10055	
672.5	11573	
672.69	10964	
672.87	9528.5	
673.06	9793.4	
673.24	11308	
673.43	11100	
673.61	9823.4	
673.8	9579	
673.98	11286	
674.17	11465	
674.36	10099	
674.54	9967.5	
674.73	11009	
674.91	11397	
675.1	9761.3	
675.28	9600.9	
675.47	11102	
675.65	11474	
675.84	9678	
676.03	9761.3	
676.21	11010	
676.4	10726	
676.58	10151	
676.77	9984.5	
676.95	11935	
677.14	10874	
677.32	9376.3	
677.51	9438.4	
677.69	11427	
677.88	10856	
678.06	9454.8	
678.25	9570.8	
678.44	11136	
678.62	10889	
678.81	9435.7	
678.99	10010	
679.18	11537	
679.36	11378	
679.55	9707.4	
679.73	9961.3	
679.92	11249	
680.1	10975	
680.29	10412	
680.47	9626.1	
680.66	10963	
680.84	11354	
681.03	9357.2	
681.21	9962	
681.4	10896	
681.58	10864	
681.77	9587.2	
681.95	9585.2	
682.14	11372	
682.32	11494	
682.51	9916.3	
682.69	9237.7	
682.88	10799	
683.06	10970	
683.25	9678.7	
683.43	9893.7	
683.62	11144	
683.8	11331	
683.99	9914.9	
684.17	9564	
684.36	11443	
684.54	10642	
684.73	8942.8	
684.91	8932.6	
685.1	10507	
685.28	10008	
685.46	8830.8	
685.65	8668.4	
685.83	10133	
686.02	9714.9	
686.2	8234.2	
686.39	8396	
686.57	9591.3	
686.76	10466	
686.94	8434.2	
687.13	8607.6	
687.31	10098	
687.5	10069	
687.68	8211	
687.86	8895	
688.05	10903	
688.23	9709.4	
688.42	9022	
688.6	8645.8	
688.79	10071	
688.97	10054	
689.16	8933.2	
689.34	8447.2	
689.52	10527	
689.71	10673	
689.89	9220	
690.08	8841.8	
690.26	10520	
690.45	10235	
690.63	9218.6	
690.81	8924.4	
691	10468	
691.18	10187	
691.37	9045.2	
691.55	10073	
691.74	10016	
691.92	11082	
692.1	8951	
692.29	8701.8	
692.47	10245	
692.66	9757.2	
692.84	8711.4	
693.02	8904.6	
693.21	9874.6	
693.39	10217	
693.58	8994.7	
693.76	8734.6	
693.94	10858	
694.13	10818	
694.31	8873.2	
694.5	9411.8	
694.68	10286	
694.86	10656	
695.05	9265	
695.23	9405.6	
695.42	10846	
695.6	11921	
695.78	9756.5	
695.97	9247.9	
696.15	11043	
696.34	10557	
696.52	9075.9	
696.7	9391.3	
696.89	10624	
697.07	10267	
697.25	9310.1	
697.44	10036	
697.62	10546	
697.81	10559	
697.99	8972.8	
698.17	9196.1	
698.36	10158	
698.54	10422	
698.72	9156.5	
698.91	8527.7	
699.09	10202	
699.28	9974.3	
699.46	9000.1	
699.64	8927.8	
699.83	10087	
700.01	10464	
700.19	9221.3	
700.38	8433.5	
700.56	10434	
700.74	10082	
700.93	8563.9	
701.11	9130.5	
701.29	10440	
701.48	11023	
701.66	8840.4	
701.84	8940.7	
702.03	10368	
702.21	10847	
702.39	8620.6	
702.58	9083.4	
702.76	10583	
702.94	10642	
703.13	8631.5	
703.31	9861	
703.49	10239	
703.68	10914	
703.86	8791.9	
704.04	9295.7	
704.23	10462	
704.41	10619	
704.59	8892.3	
704.78	9355.8	
704.96	11408	
705.14	10447	
705.33	8746.9	
705.51	9045.9	
705.69	10249	
705.87	10730	
706.06	9116.2	
706.24	8548.9	
706.42	10355	
706.61	10553	
706.79	9187.2	
706.97	8525	
707.16	10017	
707.34	10254	
707.52	9033.6	
707.7	8701.1	
707.89	10039	
708.07	10046	
708.25	9002.2	
708.44	9211.1	
708.62	9945.6	
708.8	10497	
708.98	9234.3	
709.17	8703.9	
709.35	10178	
709.53	10124	
709.72	8437.6	
709.9	8526.4	
710.08	10342	
710.26	10327	
710.45	9211.1	
710.63	8510	
710.81	9884.2	
710.99	9940.2	
711.18	8770.8	
711.36	8395.3	
711.54	9744.9	
711.72	10116	
711.91	8398.7	
712.09	8171.4	
712.27	9814.5	
712.45	10048	
712.64	8261.5	
712.82	7819.1	
713	9252	
713.18	9116.9	
713.37	7672.4	
713.55	8191.9	
713.73	9503.9	
713.91	8713.4	
714.1	7421.2	
714.28	7079.1	
714.46	8772.1	
714.64	8162.5	
714.83	6388.3	
715.01	6576	
715.19	7890.8	
715.37	7390.4	
715.55	6094.8	
715.74	6250.4	
715.92	7987.1	
716.1	6875	
716.28	6668.2	
716.47	6158.9	
716.65	7378.8	
716.83	7176.1	
717.01	6032	
717.19	5991.7	
717.38	8348.9	
717.56	7004.7	
717.74	6173.3	
717.92	5769.8	
718.1	7691.5	
718.29	7307.2	
718.47	5686.5	
718.65	6130.3	
718.83	8062.9	
719.01	8053.3	
719.2	6118.6	
719.38	6566.5	
719.56	7974.1	
719.74	8832.9	
719.92	6503.7	
720.11	6868.9	
720.29	8084.7	
720.47	7518.8	
720.65	6014.2	
720.83	6378.7	
721.02	7454.6	
721.2	7250.5	
721.38	6148	
721.56	5672.2	
721.74	6823.8	
721.92	6834.8	
722.11	6283.9	
722.29	6088.6	
722.47	7578.8	
722.65	7051.2	
722.83	5634	
723.01	5930.9	
723.2	7015	
723.38	7207.5	
723.56	5363.6	
723.74	5921.4	
723.92	6715.3	
724.1	7351.5	
724.29	5574.6	
724.47	6098.2	
724.65	6999.3	
724.83	6815	
725.01	5493.3	
725.19	5935	
725.37	6658.6	
725.56	6653.2	
725.74	5350	
725.92	5512.4	
726.1	6712.6	
726.28	6901	
726.46	5659.9	
726.64	5388.2	
726.83	6922.1	
727.01	6912.6	
727.19	5285.1	
727.37	5752.1	
727.55	7028.6	
727.73	7239.6	
727.91	5183.4	
728.09	5134.9	
728.28	7120.1	
728.46	7271	
728.64	5781.4	
728.82	5767.1	
729	7755.7	
729.18	7498.3	
729.36	5408.7	
729.54	6618.4	
729.72	8062.9	
729.91	7197.9	
730.09	6607.4	
730.27	5973.2	
730.45	7237.5	
730.63	7522.2	
730.81	6312.5	
730.99	5819	
731.17	7956.4	
731.35	7045	
731.53	5972.6	
731.71	5889.3	
731.9	7688.8	
732.08	7666.2	
732.26	5928.2	
732.44	5693.4	
732.62	7735.9	
732.8	7378.8	
732.98	6115.9	
733.16	5656.5	
733.34	7396.6	
733.52	6592.4	
733.7	5720.7	
733.88	5870.8	
734.07	7171.3	
734.25	7073	
734.43	5479	
734.61	6217	
734.79	7942	
734.97	7140.6	
735.15	5477.6	
735.33	5720.7	
735.51	7180.9	
735.69	7063.4	
735.87	6165.1	
736.05	5702.2	
736.23	7122.8	
736.41	6788.3	
736.59	5702.9	
736.77	5709.7	
736.95	7285.3	
737.13	6883.2	
737.32	5432.6	
737.5	5639.4	
737.68	7652.6	
737.86	6808.1	
738.04	5313.8	
738.22	6279.1	
738.4	6756.9	
738.58	6984.3	
738.76	5517.9	
738.94	5073.5	
739.12	6771.3	
739.3	6764.4	
739.48	5769.1	
739.66	5749.3	
739.84	6957.6	
740.02	6890.7	
740.2	5127.4	
740.38	5233.2	
740.56	7093.5	
740.74	6299.6	
740.92	5647.6	
741.1	5412.1	
741.28	6692.8	
741.46	6516	
741.64	5311.7	
741.82	5563.6	
742	6722.1	
742.18	6513.9	
742.36	5274.9	
742.54	5126.7	
742.72	6943.3	
742.9	6188.3	
743.08	5451	
743.26	4784.1	
743.44	6885.3	
743.62	6792.4	
743.8	5468.8	
743.98	4988.2	
744.16	6612.9	
744.34	6460	
744.52	5319.3	
744.7	5283.1	
744.88	6729.6	
745.06	6439.5	
745.24	5310.4	
745.42	5307	
745.6	6769.2	
745.78	6599.2	
745.96	4636.6	
746.14	4808.6	
746.32	6988.4	
746.5	6389.7	
746.68	4979.3	
746.86	4730.8	
747.03	6632	
747.21	5900.2	
747.39	4964.3	
747.57	4650.3	
747.75	6268.1	
747.93	6462	
748.11	4573.1	
748.29	4660.5	
748.47	7142.6	
748.65	6109.1	
748.83	5032.5	
749.01	4932.2	
749.19	6372.6	
749.37	5889.3	
749.55	4840.7	
749.73	4863.2	
749.91	6251.1	
750.09	6044.9	
750.26	4777.2	
750.44	4511	
750.62	6117.3	
750.8	6000.5	
750.98	4400.4	
751.16	4547.9	
751.34	6180.8	
751.52	5788.9	
751.7	4987.5	
751.88	4360.8	
752.06	6416.3	
752.24	6200.6	
752.42	4265.9	
752.59	4506.2	
752.77	6013.5	
752.95	6680.5	
753.13	4883.7	
753.31	4543.8	
753.49	5846.3	
753.67	5967.8	
753.85	4666	
754.03	4387.4	
754.21	6135.7	
754.38	6263.4	
754.56	4321.2	
754.74	3906.8	
754.92	5518.6	
755.1	5779.4	
755.28	3672	
755.46	3568.9	
755.64	6049	
755.82	5932.3	
755.99	3464.5	
756.17	3375.1	
756.35	4359.4	
756.53	5098.8	
756.71	2652.1	
756.89	3440.6	
757.07	4772.4	
757.25	4359.4	
757.42	3500	
757.6	3969	
757.78	5009.3	
757.96	4520.5	
758.14	3375.7	
758.32	3237.8	
758.5	4303.5	
758.67	4710.3	
758.85	3310.9	
759.03	3380.5	
759.21	4904.2	
759.39	4501.4	
759.57	3150.5	
759.75	3661.8	
759.92	5268.7	
760.1	4967.7	
760.28	3928	
760.46	4104.8	
760.64	4822.3	
760.82	4768.4	
760.99	3923.2	
761.17	3538.2	
761.35	5336.3	
761.53	4745.1	
761.71	3766.2	
761.89	4047.5	
762.06	5276.9	
762.24	5127.4	
762.42	3789.4	
762.6	3654.3	
762.78	5068.7	
762.96	5458.5	
763.13	4119.8	
763.31	3855.6	
763.49	5507.7	
763.67	5091.9	
763.85	4291.2	
764.02	4515.8	
764.2	5690.6	
764.38	5098.1	
764.56	3807.2	
764.74	4196.3	
764.91	5705.6	
765.09	5075.5	
765.27	3704.1	
765.45	3447.4	
765.63	5801.2	
765.8	5537	
765.98	3383.9	
766.16	3532.7	
766.34	4722.6	
766.52	4725.3	
766.69	3949.2	
766.87	3407.1	
767.05	5091.9	
767.23	5438.7	
767.41	3562.1	
767.58	3664.5	
767.76	5277.6	
767.94	5343.8	
768.12	3615.3	
768.29	3899.3	
768.47	4897.4	
768.65	5408.7	
768.83	3347.1	
769	3907.5	
769.18	4751.3	
769.36	5098.8	
769.54	3886.4	
769.72	3380.5	
769.89	5364.3	
770.07	5222.3	
770.25	3470.6	
770.43	4119.1	
770.6	5637.4	
770.78	5754.8	
770.96	3513.6	
771.14	3805.1	
771.31	5242.8	
771.49	4823.6	
771.67	3087.7	
771.85	3180.5	
772.02	4441.4	
772.2	4770.4	
772.38	3569.6	
772.55	3257.6	
772.73	5001.1	
772.91	4814.1	
773.09	3478.1	
773.26	3635.1	
773.44	4924.7	
773.62	4810.7	
773.8	3243.3	
773.97	3097.9	
774.15	4929.5	
774.33	4715.1	
774.5	3113.6	
774.68	3293.8	
774.86	4948.6	
775.04	4631.1	
775.21	3196.9	
775.39	3129.3	
775.57	4797	
775.74	4908.3	
775.92	3015.3	
776.1	2887	
776.27	4737.6	
776.45	5453.7	
776.63	3083.6	
776.81	2936.1	
776.98	4657.1	
777.16	5070.1	
777.34	3165.5	
777.51	3392.8	
777.69	4564.2	
777.87	4386.7	
778.04	3269.2	
778.22	3458.3	
778.4	4442.7	
778.57	4826.4	
778.75	2816	
778.93	2925.2	
779.1	4425	
779.28	4199	
779.46	2736.1	
779.64	2963.4	
779.81	4883	
779.99	5248.9	
780.17	3373.7	
780.34	3431	
780.52	4601.1	
780.69	4590.2	
780.87	3151.1	
781.05	2916.3	
781.22	4593.6	
781.4	4534.2	
781.58	2952.5	
781.75	2582.5	
781.93	4631.8	
782.11	4179.2	
782.28	3489.1	
782.46	2947	
782.64	4155.3	
782.81	4614.1	
782.99	3011.9	
783.17	2993.4	
783.34	4492.6	
783.52	4231.8	
783.69	2969.6	
783.87	3494.5	
784.05	4283	
784.22	4214	
784.4	3497.2	
784.58	3080.8	
784.75	4805.9	
784.93	4324.6	
785.1	2884.9	
785.28	3262.4	
785.46	4668	
785.63	4097.3	
785.81	2892.4	
785.99	2768.2	
786.16	4370.4	
786.34	4465.3	
786.51	2784.6	
786.69	3038.5	
786.87	3969	
787.04	4318.5	
787.22	2763.4	
787.39	3217.4	
787.57	4145.1	
787.75	4711.7	
787.92	3430.3	
788.1	3284.3	
788.27	4110.3	
788.45	3810.6	
788.63	3133.4	
788.8	2466.4	
788.98	4420.2	
789.15	3850.9	
789.33	2619.4	
789.5	2835.8	
789.68	4615.4	
789.86	4677.6	
790.03	3066.5	
790.21	2745.6	
790.38	4689.8	
790.56	4233.8	
790.73	2725.8	
790.91	2636.4	
791.09	4140.3	
791.26	4441.4	
791.44	2869.9	
791.61	2553.8	
791.79	4181.3	
791.96	4098.7	
792.14	2656.9	
792.32	2405	
792.49	4076.1	
792.67	4171	
792.84	2629.6	
793.02	2615.3	
793.19	4637.3	
793.37	4698	
793.54	2359.9	
793.72	2631	
793.89	4784.7	
794.07	4043.4	
794.25	2921.1	
794.42	2502.6	
794.6	4639.3	
794.77	4393.6	
794.95	3017.3	
795.12	2688.3	
795.3	4092.5	
795.47	4336.2	
795.65	2930	
795.82	2823.5	
796	4007.9	
796.17	4870.8	
796.35	2788.7	
796.52	3149.8	
796.7	4390.2	
796.87	4436.6	
797.05	2740.9	
797.22	3167.5	
797.4	4455	
797.57	4878.9	
797.75	2873.3	
797.92	2690.3	
798.1	4607.2	
798.27	3877.5	
798.45	2495.8	
798.62	2540.8	
798.8	4241.3	
798.97	4475.5	
799.15	2935.4	
799.32	2868.5	
799.5	3864.5	
799.67	4147.1	
799.85	3024.2	
800.02	2433.7	
800.2	4059.1	
800.37	4160.1	
800.55	3065.1	
800.72	2701.3	
800.9	4481	
801.07	4635.2	
801.25	3415.3	
801.42	2912.2	
801.6	4532.2	
801.77	4143	
801.95	2822.8	
802.12	2650.8	
802.29	4324.6	
802.47	4248.9	
802.64	2951.8	
802.82	2331.3	
802.99	4101.4	
803.17	4447.5	
803.34	2810.5	
803.52	2598.9	
803.69	4804.5	
803.87	3836.5	
804.04	2801.6	
804.21	2833	
804.39	4671.4	
804.56	4121.9	
804.74	2510.1	
804.91	2861	
805.09	4016.1	
805.26	4042	
805.44	2538.8	
805.61	2764.1	
805.78	4433.2	
805.96	4308.9	
806.13	2835.1	
806.31	3035.8	
806.48	3764.8	
806.66	3991.5	
806.83	2880.1	
807	2783.2	
807.18	4039.3	
807.35	4193.6	
807.53	2793.4	
807.7	2440.5	
807.87	4622.3	
808.05	3986	
808.22	2995.5	
808.4	2338.1	
808.57	3949.8	
808.74	3822.9	
808.92	2667.8	
809.09	3145	
809.27	4063.9	
809.44	4244.1	
809.61	2429.6	
809.79	2544.9	
809.96	4794.3	
810.14	4317.8	
810.31	2377	
810.48	2946.3	
810.66	3992.9	
810.83	4291.2	
811.01	2649.4	
811.18	2831	
811.35	4380.6	
811.53	3630.4	
811.7	2990	
811.87	2819.4	
812.05	4100	
812.22	3996.3	
812.39	2597.5	
812.57	2480.1	
812.74	4060.4	
812.92	4874.8	
813.09	2749.7	
813.26	2794.1	
813.44	4703.5	
813.61	3865.9	
813.78	2304.6	
813.96	2919	
814.13	4050.9	
814.3	3946.4	
814.48	3096.5	
814.65	2655.5	
814.82	4601.8	
815	3770.3	
815.17	2770.9	
815.34	3162.7	
815.52	3960.1	
815.69	3878.2	
815.87	2654.2	
816.04	2633	
816.21	3906.2	
816.38	3730.7	
816.56	2655.5	
816.73	2506.7	
816.9	4768.4	
817.08	4324.6	
817.25	2582.5	
817.42	3004.4	
817.6	3720.5	
817.77	3946.4	
817.94	2788.7	
818.12	2480.1	
818.29	3873.4	
818.46	5101.5	
818.64	2707.4	
818.81	2437.8	
818.98	3863.2	
819.16	4916.5	
819.33	2952.5	
819.5	2735.4	
819.67	4261.8	
819.85	4494.6	
820.02	2761.3	
820.19	2911.5	
820.37	4104.8	
820.54	3891.8	
820.71	2753.8	
820.88	3283.6	
821.06	4070	
821.23	3855	
821.4	2742.9	
821.58	2777.7	
821.75	4268.6	
821.92	4100.7	
822.09	2373.6	
822.27	2438.4	
822.44	3991.5	
822.61	3960.1	
822.79	2397.5	
822.96	4023.6	
823.13	4156	
823.3	3751.2	
823.48	2607.1	
823.65	2428.9	
823.82	4455	
823.99	3793.5	
824.17	3193.5	
824.34	2442.5	
824.51	4887.1	
824.68	4043.4	
824.86	2566.8	
825.03	2723.1	
825.2	3985.3	
825.37	4468	
825.55	2551.1	
825.72	2655.5	
825.89	4826.4	
826.06	4582.7	
826.24	2667.8	
826.41	2693.1	
826.58	4640.7	
826.75	4053.6	
826.92	2342.9	
827.1	2478	
827.27	5754.8	
827.44	4734.9	
827.61	2597.5	
827.79	2935.4	
827.96	3904.8	
828.13	3960.1	
828.3	2682.2	
828.47	2348.3	
828.65	4267.3	
828.82	4197	
828.99	3148.4	
829.16	2811.9	
829.34	4456.4	
829.51	4356.7	
829.68	2736.8	
829.85	2742.2	
830.02	4695.3	
830.2	4435.2	
830.37	2245.3	
830.54	3106.8	
830.71	4837.3	
830.88	4079.6	
831.05	2142.2	
831.23	2466.4	
831.4	4810.7	
831.57	5019.6	
831.74	2537.4	
831.91	2267.1	
832.09	4342.4	
832.26	4448.9	
832.43	2542.9	
832.6	2870.6	
832.77	4222.9	
832.94	4622.9	
833.12	2224.8	
833.29	2549	
833.46	4237.9	
833.63	5072.1	
833.8	2775	
833.97	2545.6	
834.15	4513.7	
834.32	4356	
834.49	2663.7	
834.66	2721.1	
834.83	4374.5	
835	3945.1	
835.17	2525.1	
835.35	2517.6	
835.52	4420.9	
835.69	4260.5	
835.86	2637.8	
836.03	2256.9	
836.2	4500.8	
836.37	4136.2	
836.55	2555.2	
836.72	2433	
836.89	4244.8	
837.06	4502.8	
837.23	2589.3	
837.4	2767.5	
837.57	4867.3	
837.75	5119.2	
837.92	2391.3	
838.09	2555.9	
838.26	4198.3	
838.43	4465.3	
838.6	2662.4	
838.77	2443.9	
838.94	4926.7	
839.11	4906.3	
839.29	2633	
839.46	2164.7	
839.63	4485.1	
839.8	4214.7	
839.97	2579.8	
840.14	2508.1	
840.31	4341	
840.48	4429.1	
840.65	2160.6	
840.82	2521	
841	4428.4	
841.17	4274.1	
841.34	2360.6	
841.51	2506.7	
841.68	4426.3	
841.85	4188.8	
842.02	2424.8	
842.19	2150.4	
842.36	4330.1	
842.53	4309.6	
842.7	2363.4	
842.87	2712.9	
843.05	5115.8	
843.22	4229.1	
843.39	2231.6	
843.56	2483.5	
843.73	4206.5	
843.9	4498	
844.07	3443.3	
844.24	2932	
844.41	5509.7	
844.58	3988.1	
844.75	2304	
844.92	2412.5	
845.09	4319.8	
845.26	4324.6	
845.43	2382.5	
845.6	2486.9	
845.77	4418.2	
845.94	4256.4	
846.12	2581.1	
846.29	2603	
846.46	4605.9	
846.63	4375.8	
846.8	2390	
846.97	2708.8	
847.14	4562.9	
847.31	4374.5	
847.48	2572.2	
847.65	2754.5	
847.82	4316.4	
847.99	4448.2	
848.16	2930	
848.33	2740.9	
848.5	4091.2	
848.67	4565.6	
848.84	2290.3	
849.01	2385.9	
849.18	4117.8	
849.35	3874.8	
849.52	2816	
849.69	2293.7	
849.86	4548.5	
850.03	4427.7	
850.2	2311.5	
850.37	2684.9	
850.54	4510.3	
850.71	4104.8	
850.88	2753.2	
851.05	2295.1	
851.22	4306.2	
851.39	4612	
851.56	2207.7	
851.73	2605.7	
851.9	3994.2	
852.07	4514.4	
852.24	2508.8	
852.41	2309.4	
852.58	4351.9	
852.75	4020.8	
852.92	2549	
853.09	2281.4	
853.26	3949.2	
853.43	4590.9	
853.6	2394.1	
853.77	2083.5	
853.94	4702.1	
854.11	3934.8	
854.28	3170.3	
854.44	2505.3	
854.61	4900.1	
854.78	4478.2	
854.95	2344.9	
855.12	2751.8	
855.29	3758.7	
855.46	4712.4	
855.63	2370.2	
855.8	3028.3	
855.97	4085	
856.14	4586.1	
856.31	3058.3	
856.48	2493.1	
856.65	4225.6	
856.82	3921.9	
856.99	2265.1	
857.16	2463.7	
857.33	4990.2	
857.49	4189.5	
857.66	2504.7	
857.83	2587.9	
858	4245.4	
858.17	4354	
858.34	2237.7	
858.51	2346.3	
858.68	4678.2	
858.85	4633.9	
859.02	2660.3	
859.19	2693.8	
859.36	3948.5	
859.52	3835.2	
859.69	2349.7	
859.86	2692.4	
860.03	3908.2	
860.2	4646.2	
860.37	2261	
860.54	2367.5	
860.71	4402.5	
860.88	4651.6	
861.05	2526.5	
861.21	2835.1	
861.38	4638.6	
861.55	3814.7	
861.72	2190	
861.89	2555.9	
862.06	4479.6	
862.23	4688.5	
862.4	2279.4	
862.56	2381.1	
862.73	4401.8	
862.9	4237.9	
863.07	2563.4	
863.24	2190	
863.41	4007.9	
863.58	3967.6	
863.75	2368.8	
863.91	2592	
864.08	4517.1	
864.25	4377.2	
864.42	2755.9	
864.59	3069.2	
864.76	4816.8	
864.93	3950.5	
865.09	2338.1	
865.26	2471.9	
865.43	4625.7	
865.6	4815.5	
865.77	2135.3	
865.94	2308.1	
866.1	4543.1	
866.27	4312.3	
866.44	3228.3	
866.61	2280.1	
866.78	4203.8	
866.95	4431.1	
867.11	2319	
867.28	2171.5	
867.45	4579.9	
867.62	3897.3	
867.79	2581.8	
867.96	2324.4	
868.12	3908.9	
868.29	4404.5	
868.46	2363.4	
868.63	2940.2	
868.8	4525.3	
868.97	4410	
869.13	2455.5	
869.3	2445.3	
869.47	4327.4	
869.64	4490.5	
869.81	2301.2	
869.97	2383.8	
870.14	4250.9	
870.31	4651.6	
870.48	2221.4	
870.65	2852.8	
870.81	4254.3	
870.98	4173.1	
871.15	2580.4	
871.32	2372.9	
871.48	4388.1	
871.65	4690.5	
871.82	2308.1	
871.99	2531.3	
872.16	4911.7	
872.32	4571.1	
872.49	2370.2	
872.66	2369.5	
872.83	4461.8	
872.99	4001.7	
873.16	2648	
873.33	2313.5	
873.5	4209.3	
873.67	4265.9	
873.83	2465.8	
874	2933.4	
874.17	4319.2	
874.34	4745.8	
874.5	2904	
874.67	2783.2	
874.84	4573.8	
875.01	3771.7	
875.17	3028.9	
875.34	2335.4	
875.51	4269.3	
875.68	4960.2	
875.84	2685.6	
876.01	3131.3	
876.18	4462.5	
876.34	4356	
876.51	2293.7	
876.68	2312.8	
876.85	4146.5	
877.01	4704.9	
877.18	3093.1	
877.35	2250.7	
877.52	4414.7	
877.68	4001.7	
877.85	2321.7	
878.02	2306.7	
878.18	4005.8	
878.35	4152.6	
878.52	1934	
878.69	2662.4	
878.85	4604.5	
879.02	4384.7	
879.19	3096.5	
879.35	2465.8	
879.52	4432.5	
879.69	4445.5	
879.86	2153.8	
880.02	2543.6	
880.19	4207.2	
880.36	4883.7	
880.52	2607.7	
880.69	2689	
880.86	4449.6	
881.02	4523.3	
881.19	2524.5	
881.36	2456.2	
881.52	4416.8	
881.69	4022.2	
881.86	2512.9	
882.02	2418.7	
882.19	4532.8	
882.36	5105.6	
882.52	2359.9	
882.69	3034.4	
882.86	4315.8	
883.02	4310.3	
883.19	2672.6	
883.36	2566.8	
883.52	4479.6	
883.69	4901.5	
883.86	2355.8	
884.02	2166.8	
884.19	4379.9	
884.36	4254.3	
884.52	2583.2	
884.69	2464.4	
884.86	4152.6	
885.02	4697.4	
885.19	2538.1	
885.36	2605	
885.52	4126	
885.69	4435.9	
885.86	3075.4	
886.02	2852.1	
886.19	4451.6	
886.35	4072	
886.52	2517	
886.69	3035.1	
886.85	3961.5	
887.02	4602.5	
887.19	4602.5	
887.35	4602.5	
887.52	4602.5	
887.68	4602.5	
887.85	4602.5	
888.02	4602.5	
888.18	4602.5	
888.35	4602.5	
888.51	4602.5	
888.68	4602.5	
888.85	4602.5	
889.01	4602.5	
889.18	4602.5	
889.35	4602.5	
889.51	4602.5	
889.68	4602.5	
889.84	4602.5	
890.01	4602.5	
890.17	4602.5	
890.34	4602.5	
890.51	4602.5	
890.67	4602.5	
890.84	4602.5	
891	4602.5	
891.17	4602.5	
891.34	4602.5	
891.5	4602.5	
891.67	4602.5	
891.83	4602.5	
892	4602.5	
892.16	4602.5	
892.33	4602.5	
892.5	4602.5	
892.66	4602.5	
892.83	4602.5	
892.99	4602.5	
893.16	4602.5	
893.32	4602.5	
893.49	4602.5	
893.65	4602.5	
893.82	4602.5	
893.99	4602.5	
894.15	4602.5	
894.32	4602.5	
894.48	4602.5	
894.65	4602.5	
894.81	4602.5	
894.98	4602.5	
895.14	4602.5	
895.31	4602.5	
895.47	4602.5	
895.64	4602.5	
895.81	4602.5	
895.97	4602.5	
896.14	4602.5	
896.3	4602.5	
896.47	4602.5	
896.63	4602.5	
896.8	4602.5	
896.96	4602.5	
897.13	4602.5	
897.29	4602.5	
897.46	4602.5	
897.62	4602.5	
897.79	4602.5	
897.95	4602.5	
898.12	4602.5	
898.28	4602.5	
898.45	4602.5	
898.61	4602.5	
898.78	4602.5	
898.94	4602.5	
899.11	4602.5	
899.27	4602.5	
899.44	4602.5	
899.6	4602.5	
899.77	4602.5	
899.93	4602.5	
900.1	4602.5	
900.26	4602.5	
900.43	4602.5	
900.59	4602.5	
900.76	4602.5	
900.92	4602.5	
901.09	4602.5	
901.25	4602.5	
901.42	4602.5	
901.58	4602.5	
901.75	4602.5	
901.91	4602.5	
902.07	4602.5	
902.24	4602.5	
902.4	4602.5	
902.57	4602.5	
902.73	4602.5	
902.9	4602.5	
903.06	4602.5	
903.23	4602.5	
903.39	4602.5	
903.56	4602.5	
903.72	4602.5	
903.88	4602.5	
904.05	4602.5	
904.21	4602.5	
904.38	4602.5	
904.54	4602.5	
904.71	4602.5	
904.87	4602.5	
905.03	4602.5	
905.2	4602.5	
905.36	4602.5	
905.53	4602.5	
905.69	4602.5	
905.86	4602.5	
906.02	4602.5	
906.18	4602.5	
906.35	4602.5	
906.51	4602.5	
906.68	4602.5	
906.84	4602.5	
907.01	4602.5	
907.17	4602.5	
907.33	4602.5	
907.5	4602.5	
907.66	4602.5	
907.83	4602.5	
907.99	4602.5	
908.15	4602.5	
908.32	4602.5	
908.48	4602.5	
908.65	4602.5	
908.81	4602.5	
908.97	4602.5	
909.14	4602.5	
909.3	4602.5	
909.47	4602.5	
909.63	4602.5	
909.79	4602.5	
909.96	4602.5	
910.12	4602.5	
910.28	4602.5	
910.45	4602.5	
910.61	4602.5	
910.78	4602.5	
910.94	4602.5	
911.1	4602.5	
911.27	4602.5	
911.43	4602.5	
911.59	4602.5	
911.76	4602.5	
911.92	4602.5	
912.08	4602.5	
912.25	4602.5	
912.41	4602.5	
912.57	4602.5	
912.74	4602.5	
912.9	4602.5	
913.07	4602.5	
913.23	4602.5	
913.39	4602.5	
913.56	4602.5	
913.72	4602.5	
913.88	4602.5	
914.05	4602.5	
914.21	4602.5	
914.37	4602.5	
914.54	4602.5	
914.7	4602.5	
914.86	4602.5	
915.03	4602.5	
915.19	4602.5	
