Wavelength	Intensities	
nm	a.u.	
179.22	1511.7	
179.44	1515.5	
179.65	1508	
179.86	1523	
180.08	1568.7	
180.29	3322.5	
180.51	2697.2	
180.72	4572.4	
180.94	4872.8	
181.15	2392	
181.37	2382.5	
181.58	4288.4	
181.79	4440.7	
182.01	2454.1	
182.22	2534	
182.44	4569.7	
182.65	3997.6	
182.87	3090.4	
183.08	2792.7	
183.29	4735.6	
183.51	4090.5	
183.72	2536.8	
183.94	3420.1	
184.15	4309.6	
184.37	4218.1	
184.58	2346.3	
184.79	2911.5	
185.01	4091.8	
185.22	4635.9	
185.44	3046	
185.65	2654.2	
185.86	4361.5	
186.08	4024.3	
186.29	2307.4	
186.51	2413.2	
186.72	4114.4	
186.94	4674.8	
187.15	2735.4	
187.36	2800.9	
187.58	5510.4	
187.79	4380.6	
188.01	2852.8	
188.22	4097.3	
188.43	4947.2	
188.65	4515.8	
188.86	2483.5	
189.08	2798.2	
189.29	4138.9	
189.5	4126.7	
189.72	2608.4	
189.93	2598.2	
190.15	4597.7	
190.36	5146.5	
190.57	2800.3	
190.79	2727.2	
191	4554	
191.22	4595	
191.43	2848.7	
191.64	2477.4	
191.86	4672.8	
192.07	4650.3	
192.29	2511.5	
192.5	2563.4	
192.71	4577.2	
192.93	4220.9	
193.14	2584.5	
193.35	2604.3	
193.57	4137.6	
193.78	4693.3	
194	2193.4	
194.21	2489.6	
194.42	3982.6	
194.64	4268.6	
194.85	2699.2	
195.07	3056.9	
195.28	4239.3	
195.49	3867.2	
195.71	3187.3	
195.92	2487.6	
196.13	4514.4	
196.35	4451.6	
196.56	3340.9	
196.78	2783.9	
196.99	5214.1	
197.2	4810.7	
197.42	2998.2	
197.63	2775.7	
197.84	4003.1	
198.06	4418.8	
198.27	2568.2	
198.48	3254.2	
198.7	4179.9	
198.91	4330.8	
199.13	2791.4	
199.34	2767.5	
199.55	4659.8	
199.77	3753.9	
199.98	2577	
200.19	2760.7	
200.41	4341	
200.62	4044.7	
200.83	2809.1	
201.05	3007.8	
201.26	4282.3	
201.47	4156	
201.69	2532	
201.9	2490.3	
202.11	4374.5	
202.33	4868	
202.54	2643.2	
202.76	2906.1	
202.97	4294.6	
203.18	4389.5	
203.4	2861.7	
203.61	2905.4	
203.82	4341.7	
204.04	4056.3	
204.25	2753.8	
204.46	2723.8	
204.68	4278.2	
204.89	4411.3	
205.1	2729.9	
205.32	2427.5	
205.53	4499.4	
205.74	4622.9	
205.96	2205.7	
206.17	2831	
206.38	4452.3	
206.6	4559.5	
206.81	3008.5	
207.02	2667.8	
207.24	4437.3	
207.45	4663.2	
207.66	2618	
207.88	2419.3	
208.09	4374.5	
208.3	4259.1	
208.52	2531.3	
208.73	2716.3	
208.94	4289.8	
209.15	4663.2	
209.37	2708.1	
209.58	2760	
209.79	4547.2	
210.01	4220.9	
210.22	2308.1	
210.43	2372.9	
210.65	4213.4	
210.86	4468.7	
211.07	2646	
211.29	2510.8	
211.5	4403.1	
211.71	4297.3	
211.93	2499.2	
212.14	2503.3	
212.35	4368.3	
212.56	4288.4	
212.78	2758.6	
212.99	2357.9	
213.2	4831.2	
213.42	4189.5	
213.63	2557.9	
213.84	2670.6	
214.06	4002.4	
214.27	3984.7	
214.48	2634.4	
214.69	2820.1	
214.91	4685.8	
215.12	4693.9	
215.33	2823.5	
215.55	2921.8	
215.76	5018.2	
215.97	4440	
216.18	2667.8	
216.4	2770.2	
216.61	4020.8	
216.82	4534.9	
217.04	2570.9	
217.25	2578.4	
217.46	4570.4	
217.67	4506.2	
217.89	2321	
218.1	2368.1	
218.31	4317.1	
218.53	4473.4	
218.74	2689	
218.95	2510.8	
219.16	4307.6	
219.38	4828.4	
219.59	2536.1	
219.8	2899.2	
220.01	5042.8	
220.23	4297.3	
220.44	3107.5	
220.65	2461	
220.87	4371	
221.08	4692.6	
221.29	2430.9	
221.5	2950.4	
221.72	5279.7	
221.93	4070.7	
222.14	2783.9	
222.35	3177.8	
222.57	4270.7	
222.78	4566.3	
222.99	2730.6	
223.2	2857.6	
223.42	4416.8	
223.63	4483	
223.84	2191.3	
224.05	2210.4	
224.27	4986.1	
224.48	4767.7	
224.69	3145.7	
224.9	2791.4	
225.12	4387.4	
225.33	4248.9	
225.54	2325.8	
225.75	2550.4	
225.97	4115.7	
226.18	4219.5	
226.39	2618.7	
226.6	2592	
226.82	4150.6	
227.03	4052.9	
227.24	2783.9	
227.45	2439.8	
227.67	4607.2	
227.88	4745.8	
228.09	3036.5	
228.3	3006.4	
228.52	4484.4	
228.73	4244.1	
228.94	2657.6	
229.15	2407	
229.36	4253.6	
229.58	4314.4	
229.79	2689	
230	2910.2	
230.21	5028.4	
230.43	4302.1	
230.64	2747.7	
230.85	2818	
231.06	4562.2	
231.28	4524.6	
231.49	2396.8	
231.7	2764.1	
231.91	4554.7	
232.12	4249.5	
232.34	2506.7	
232.55	2672.6	
232.76	4653	
232.97	4354	
233.18	2498.5	
233.4	2792.1	
233.61	4364.9	
233.82	4175.1	
234.03	2634.4	
234.25	2594.8	
234.46	5448.3	
234.67	4325.3	
234.88	2823.5	
235.09	2583.9	
235.31	4359.4	
235.52	4191.5	
235.73	2744.3	
235.94	2404.3	
236.15	4111.6	
236.37	4930.1	
236.58	2491.7	
236.79	2675.3	
237	4521.2	
237.21	4009.9	
237.43	2876	
237.64	2379.1	
237.85	6479.1	
238.06	4042.7	
238.27	2800.3	
238.48	2398.2	
238.7	4528.7	
238.91	4191.5	
239.12	2625.5	
239.33	2765.4	
239.54	4084.3	
239.76	4243.4	
239.97	2644.6	
240.18	2668.5	
240.39	4902.2	
240.6	4327.4	
240.82	2833.7	
241.03	2383.8	
241.24	4242	
241.45	4721.3	
241.66	2519	
241.87	2914.9	
242.09	4773.1	
242.3	4868	
242.51	2904.7	
242.72	2695.8	
242.93	4501.4	
243.14	4246.8	
243.36	3080.8	
243.57	3207.8	
243.78	4779.3	
243.99	4513	
244.2	2661.7	
244.41	2450.1	
244.63	4026.3	
244.84	4358.8	
245.05	2811.2	
245.26	2654.2	
245.47	4476.2	
245.68	4481	
245.9	3268.6	
246.11	2779.1	
246.32	4100	
246.53	4424.3	
246.74	4048.2	
246.95	2354.5	
247.16	4140.3	
247.38	4323.3	
247.59	2422.1	
247.8	2756.6	
248.01	3960.8	
248.22	4339.6	
248.43	2493.7	
248.64	2673.3	
248.86	4033.8	
249.07	4192.2	
249.28	2545.6	
249.49	2762.7	
249.7	4568.3	
249.91	4563.6	
250.12	2371.5	
250.34	2427.5	
250.55	4380.6	
250.76	4329.4	
250.97	2795.5	
251.18	2763.4	
251.39	4572.4	
251.6	4347.2	
251.81	2788.7	
252.03	2754.5	
252.24	4147.1	
252.45	4543.8	
252.66	2405.7	
252.87	2903.3	
253.08	4278.2	
253.29	5272.8	
253.5	2458.9	
253.72	3151.1	
253.93	4278.2	
254.14	4830.5	
254.35	2582.5	
254.56	2618.7	
254.77	4381.3	
254.98	4044.1	
255.19	2572.9	
255.41	3137.5	
255.62	4425	
255.83	4572.4	
256.04	2927.2	
256.25	2768.9	
256.46	4981.3	
256.67	4100	
256.88	2728.6	
257.09	2975.7	
257.31	3977.8	
257.52	4084.3	
257.73	3295.9	
257.94	2598.2	
258.15	4267.3	
258.36	4234.5	
258.57	3114.3	
258.78	2164.7	
258.99	4567.7	
259.2	4179.2	
259.41	2546.3	
259.63	2699.9	
259.84	4724.7	
260.05	4857.8	
260.26	3155.9	
260.47	2587.9	
260.68	4615.4	
260.89	4222.9	
261.1	3003.7	
261.31	2503.3	
261.52	4709	
261.73	4837.3	
261.95	3243.3	
262.16	2828.9	
262.37	4631.8	
262.58	4684.4	
262.79	3183.2	
263	2581.1	
263.21	4384	
263.42	4127.3	
263.63	2852.1	
263.84	2668.5	
264.05	4554.7	
264.26	4655.7	
264.47	3079.5	
264.69	2828.9	
264.9	4800.4	
265.11	4361.5	
265.32	2500.6	
265.53	2573.6	
265.74	4362.2	
265.95	3911.6	
266.16	2715.6	
266.37	2914.3	
266.58	4354	
266.79	4089.8	
267	2604.3	
267.21	2407	
267.42	4027.7	
267.63	4295.3	
267.84	2691	
268.06	2386.6	
268.27	4593.6	
268.48	4612.7	
268.69	2654.9	
268.9	2998.2	
269.11	4608.6	
269.32	3942.3	
269.53	2613.9	
269.74	2554.5	
269.95	4375.1	
270.16	3945.1	
270.37	2697.2	
270.58	2986.6	
270.79	4228.4	
271	4575.8	
271.21	2820.7	
271.42	2727.2	
271.63	4428.4	
271.84	3936.9	
272.05	2319	
272.26	2514.9	
272.47	4313	
272.68	4375.1	
272.89	2643.9	
273.11	2893.1	
273.32	4123.2	
273.53	4746.5	
273.74	2816	
273.95	2886.3	
274.16	4474.8	
274.37	4261.8	
274.58	3007.1	
274.79	2462.3	
275	4446.8	
275.21	4595.6	
275.42	3386	
275.63	2873.3	
275.84	4427	
276.05	5288.5	
276.26	2780.5	
276.47	2664.4	
276.68	4293.9	
276.89	4913.1	
277.1	2939.5	
277.31	2443.2	
277.52	4354	
277.73	4728.1	
277.94	2396.1	
278.15	2581.1	
278.36	4450.9	
278.57	4108.9	
278.78	2627.5	
278.99	2843.3	
279.2	4211.3	
279.41	4068.6	
279.62	3272.7	
279.83	2521.7	
280.04	4963.6	
280.25	4016.1	
280.46	3257.6	
280.67	2672.6	
280.88	4146.5	
281.09	4557.4	
281.3	2761.3	
281.51	3312.2	
281.72	4132.1	
281.93	4483	
282.14	2614.6	
282.35	2746.3	
282.56	4628.4	
282.77	4507.6	
282.98	2643.2	
283.19	3057.6	
283.4	5218.9	
283.61	4235.2	
283.82	2516.3	
284.03	3174.4	
284.24	4432.5	
284.45	4590.2	
284.66	3249.4	
284.87	3001	
285.08	4617.5	
285.29	4674.8	
285.5	2448.7	
285.71	2607.7	
285.92	4571.7	
286.12	4975.9	
286.33	3190.7	
286.54	2689	
286.75	4521.9	
286.96	4239.3	
287.17	2519	
287.38	3033	
287.59	4175.1	
287.8	4170.3	
288.01	2632.3	
288.22	2862.4	
288.43	4405.9	
288.64	3898.6	
288.85	3068.5	
289.06	2927.2	
289.27	4554	
289.48	4696.7	
289.69	3207.1	
289.9	2979.1	
290.11	4708.3	
290.32	4202.4	
290.53	2997.5	
290.74	2803.7	
290.94	4529.4	
291.15	4536.9	
291.36	2571.6	
291.57	2948.4	
291.78	4264.6	
291.99	3893.2	
292.2	2537.4	
292.41	2838.5	
292.62	4571.1	
292.83	4495.3	
293.04	3368.2	
293.25	2582.5	
293.46	4256.4	
293.67	4590.2	
293.88	2538.1	
294.09	2488.3	
294.29	4059.1	
294.5	4365.6	
294.71	2744.3	
294.92	2562.7	
295.13	4233.8	
295.34	4969.7	
295.55	2375.6	
295.76	2352.4	
295.97	4558.1	
296.18	4832.5	
296.39	2461.7	
296.6	2561.3	
296.81	4308.2	
297.01	4545.8	
297.22	2654.9	
297.43	2590	
297.64	4260.5	
297.85	4072	
298.06	2242.5	
298.27	2340.8	
298.48	4235.2	
298.69	4105.5	
298.9	2721.8	
299.11	2510.1	
299.31	3994.2	
299.52	4136.2	
299.73	2901.3	
299.94	2813.9	
300.15	4334.2	
300.36	4080.9	
300.57	2826.2	
300.78	2807.8	
300.99	4211.3	
301.2	4332.1	
301.4	2623.4	
301.61	2626.9	
301.82	4434.5	
302.03	4527.4	
302.24	2960.7	
302.45	2473.3	
302.66	4471.4	
302.87	4566.3	
303.08	2616.6	
303.29	3231	
303.49	4214	
303.7	4156	
303.91	2364	
304.12	3115.6	
304.33	3928	
304.54	4366.3	
304.75	2613.9	
304.96	2540.2	
305.16	4508.9	
305.37	4843.4	
305.58	2402.3	
305.79	2363.4	
306	4521.9	
306.21	3898	
306.42	2593.4	
306.63	3567.6	
306.83	4192.2	
307.04	4433.2	
307.25	2751.1	
307.46	2737.5	
307.67	3937.6	
307.88	4399	
308.09	2607.7	
308.29	2567.5	
308.5	4316.4	
308.71	4552	
308.92	2723.8	
309.13	2497.8	
309.34	4359.4	
309.55	4235.2	
309.75	3078.1	
309.96	2854.2	
310.17	4524.6	
310.38	4044.7	
310.59	2875.3	
310.8	2768.9	
311.01	4197.7	
311.21	4248.9	
311.42	2499.2	
311.63	2529.9	
311.84	4129.4	
312.05	4316.4	
312.26	2822.1	
312.46	3018	
312.67	4231.8	
312.88	3956	
313.09	2504.7	
313.3	2493.1	
313.51	4771.8	
313.71	4900.8	
313.92	2525.1	
314.13	2590	
314.34	4420.2	
314.55	4289.8	
314.76	3026.9	
314.96	2734	
315.17	4473.4	
315.38	4402.5	
315.59	2510.1	
315.8	2437.1	
316.01	4672.1	
316.21	4702.1	
316.42	2456.2	
316.63	2763.4	
316.84	4214	
317.05	4575.2	
317.26	2883.5	
317.46	2650.1	
317.67	4306.9	
317.88	4526	
318.09	3054.9	
318.3	2422.1	
318.5	4216.8	
318.71	4425	
318.92	3642.7	
319.13	2852.8	
319.34	4562.9	
319.54	4638.6	
319.75	2378.4	
319.96	2308.1	
320.17	4418.8	
320.38	4580.6	
320.58	2346.3	
320.79	2702.6	
321	4641.4	
321.21	4680.3	
321.42	2779.8	
321.62	2351.8	
321.83	4148.5	
322.04	4283.7	
322.25	2695.1	
322.46	2499.9	
322.66	4329.4	
322.87	4481.6	
323.08	2933.4	
323.29	2482.8	
323.5	4934.2	
323.7	3988.1	
323.91	3192.8	
324.12	2869.9	
324.33	4405.2	
324.53	4484.4	
324.74	2783.2	
324.95	2935.4	
325.16	4000.4	
325.37	4189.5	
325.57	2482.1	
325.78	2547	
325.99	4466.6	
326.2	3967.6	
326.4	3306.8	
326.61	2370.2	
326.82	4268	
327.03	4349.2	
327.24	3338.2	
327.44	3095.8	
327.65	4491.9	
327.86	3819.5	
328.07	2831	
328.27	2503.3	
328.48	4735.6	
328.69	3992.2	
328.9	3310.9	
329.1	2624.8	
329.31	4233.2	
329.52	4708.3	
329.73	2530.6	
329.93	2699.2	
330.14	4351.3	
330.35	4347.2	
330.56	3767.6	
330.76	2949.8	
330.97	4197.7	
331.18	4328	
331.39	2753.2	
331.59	2333.3	
331.8	4659.1	
332.01	4665.3	
332.22	2570.2	
332.42	2837.1	
332.63	4350.6	
332.84	4054.3	
333.05	2781.1	
333.25	2510.1	
333.46	4111	
333.67	4274.1	
333.88	2658.3	
334.08	2729.3	
334.29	5243.5	
334.5	4566.3	
334.7	2462.3	
334.91	3288.4	
335.12	4000.4	
335.33	4474.8	
335.53	2717	
335.74	3592.1	
335.95	4287.1	
336.16	3988.1	
336.36	2758.6	
336.57	3028.9	
336.78	3934.1	
336.98	4564.9	
337.19	3213.3	
337.4	2674	
337.61	4913.1	
337.81	3962.8	
338.02	2613.9	
338.23	3067.9	
338.43	4723.3	
338.64	4121.2	
338.85	2550.4	
339.05	3179.1	
339.26	4784.1	
339.47	3932.8	
339.68	2534	
339.88	3417.4	
340.09	4526	
340.3	4575.8	
340.5	2839.2	
340.71	2355.8	
340.92	4063.9	
341.13	4650.3	
341.33	2457.6	
341.54	2866.5	
341.75	4377.9	
341.95	4143.7	
342.16	2770.9	
342.37	2956.6	
342.57	4018.8	
342.78	4300.1	
342.99	3003	
343.19	2387.2	
343.4	4511.7	
343.61	4428.4	
343.81	2703.3	
344.02	2432.3	
344.23	4481.6	
344.43	4658.4	
344.64	2985.3	
344.85	2869.9	
345.06	4488.5	
345.26	4601.8	
345.47	2846.7	
345.68	3179.1	
345.88	3971	
346.09	4564.2	
346.3	2880.1	
346.5	2297.1	
346.71	4173.8	
346.92	4116.4	
347.12	2447.3	
347.33	2765.4	
347.54	4497.3	
347.74	4771.8	
347.95	2745.6	
348.16	2288.3	
348.36	4129.4	
348.57	4043.4	
348.78	2903.3	
348.98	2914.3	
349.19	4260.5	
349.39	3911.6	
349.6	2483.5	
349.81	2508.8	
350.01	4494.6	
350.22	4078.2	
350.43	2757.9	
350.63	3088.3	
350.84	4272.1	
351.05	4087.1	
351.25	2480.1	
351.46	2411.8	
351.67	4485.7	
351.87	4037.9	
352.08	2684.2	
352.29	2936.1	
352.49	4527.4	
352.7	4287.1	
352.9	2426.2	
353.11	2899.2	
353.32	4818.2	
353.52	4188.8	
353.73	2473.3	
353.94	2977.7	
354.14	4393.6	
354.35	4214	
354.55	2594.8	
354.76	2723.8	
354.97	4416.8	
355.17	4240	
355.38	2477.4	
355.59	3063.1	
355.79	4028.4	
356	4173.8	
356.2	2757.9	
356.41	2496.5	
356.62	3966.9	
356.82	4189.5	
357.03	2885.6	
357.24	2624.8	
357.44	4074.1	
357.65	4111.6	
357.85	3253.5	
358.06	2777.7	
358.27	3877.5	
358.47	3936.2	
358.68	2417.3	
358.88	2893.8	
359.09	4345.1	
359.3	4442.7	
359.5	3190.7	
359.71	2912.2	
359.91	4691.9	
360.12	4338.3	
360.33	2888.3	
360.53	3132.7	
360.74	4058.4	
360.94	4146.5	
361.15	2932	
361.36	2593.4	
361.56	4496.7	
361.77	4178.5	
361.97	3203.7	
362.18	2689.7	
362.38	4571.1	
362.59	3973.7	
362.8	2471.2	
363	2440.5	
363.21	3961.5	
363.41	4240	
363.62	2803.7	
363.83	3233.1	
364.03	4440.7	
364.24	4697.4	
364.44	3388.7	
364.65	3303.4	
364.85	4145.8	
365.06	4057.7	
365.27	2553.1	
365.47	2670.6	
365.68	4666.6	
365.88	4226.3	
366.09	2826.2	
366.29	2603.7	
366.5	4214	
366.71	4486.4	
366.91	3330	
367.12	2951.8	
367.32	4872.1	
367.53	4424.3	
367.73	2964.8	
367.94	3422.2	
368.14	4509.6	
368.35	4744.5	
368.56	2875.3	
368.76	2564.1	
368.97	4459.1	
369.17	5241.4	
369.38	2663	
369.58	2719.7	
369.79	3900	
369.99	4693.9	
370.2	3383.9	
370.4	2846.7	
370.61	4302.1	
370.82	5030.5	
371.02	2792.7	
371.23	2409.1	
371.43	3979.9	
371.64	4649.6	
371.84	2809.1	
372.05	3362.1	
372.25	5214.1	
372.46	4383.3	
372.66	2735.4	
372.87	2764.1	
373.07	4354	
373.28	5365	
373.48	3271.3	
373.69	3101.3	
373.9	4281.6	
374.1	4197.7	
374.31	3247.4	
374.51	3007.8	
374.72	4592.9	
374.92	4059.1	
375.13	3371	
375.33	2884.2	
375.54	4401.8	
375.74	4100.7	
375.95	3044	
376.15	3588.7	
376.36	4486.4	
376.56	4371.7	
376.77	3015.3	
376.97	3198.2	
377.18	5077.6	
377.38	4499.4	
377.59	3284.9	
377.79	2764.8	
378	4311	
378.2	4490.5	
378.41	2727.2	
378.61	2682.8	
378.82	4698	
379.02	4150.5	
379.23	2844.6	
379.43	3426.3	
379.64	4775.2	
379.84	4428.4	
380.05	2755.9	
380.25	2725.2	
380.46	4481	
380.66	4262.5	
380.87	3453.6	
381.07	3624.9	
381.28	4861.9	
381.48	4514.4	
381.69	2718.3	
381.89	2823.5	
382.1	3943.7	
382.3	4463.9	
382.51	3301.3	
382.71	3777.1	
382.91	4360.8	
383.12	4689.2	
383.32	2927.2	
383.53	3041.2	
383.73	4413.4	
383.94	4326.7	
384.14	3067.2	
384.35	2600.9	
384.55	4194.2	
384.76	4448.2	
384.96	3009.1	
385.17	3142.9	
385.37	4474.8	
385.58	4040	
385.78	3099.3	
385.98	2541.5	
386.19	4225	
386.39	4504.2	
386.6	2803.7	
386.8	2957.3	
387.01	4516.5	
387.21	4485.1	
387.42	3168.2	
387.62	3510.9	
387.83	4235.2	
388.03	4302.8	
388.23	3039.2	
388.44	3383.2	
388.64	3954.6	
388.85	4016.1	
389.05	3145	
389.26	3478.1	
389.46	5276.9	
389.67	4805.2	
389.87	3143.6	
390.07	3201	
390.28	4225	
390.48	4027.7	
390.69	2715.6	
390.89	2944.3	
391.1	4233.8	
391.3	4640.7	
391.5	3564.1	
391.71	3870.7	
391.91	4560.8	
392.12	4922.6	
392.32	3605.1	
392.53	3175.7	
392.73	4261.8	
392.93	4283	
393.14	3033.7	
393.34	3434.4	
393.55	4657.8	
393.75	4230.4	
393.95	3059	
394.16	2977.1	
394.36	4285	
394.57	4599.7	
394.77	2766.8	
394.98	2912.9	
395.18	4188.8	
395.38	4204.5	
395.59	3362.1	
395.79	2835.8	
396	4306.9	
396.2	4564.9	
396.4	3308.8	
396.61	3291.1	
396.81	4543.1	
397.02	4180.6	
397.22	3471.3	
397.42	3437.9	
397.63	4709.6	
397.83	4182.6	
398.04	2867.2	
398.24	3147	
398.44	4482.3	
398.65	3831.1	
398.85	2754.5	
399.05	2796.8	
399.26	4306.2	
399.46	5134.9	
399.67	3110.2	
399.87	2854.9	
400.07	4410	
400.28	4500.1	
400.48	2917.7	
400.69	3482.9	
400.89	4590.2	
401.09	5040.7	
401.3	2846.7	
401.5	3525.9	
401.7	4962.2	
401.91	5212.1	
402.11	3136.8	
402.32	3173.7	
402.52	4750.6	
402.72	4656.4	
402.93	3377.8	
403.13	2709.5	
403.33	5181.4	
403.54	4372.4	
403.74	3203	
403.94	3692.5	
404.15	4457.7	
404.35	5152	
404.56	3057.6	
404.76	3995.6	
404.96	4775.2	
405.17	4571.1	
405.37	3624.9	
405.57	3308.2	
405.78	4751.3	
405.98	4405.2	
406.18	3049.4	
406.39	3461.7	
406.59	4719.9	
406.79	4424.3	
407	2973	
407.2	2989.4	
407.4	5016.8	
407.61	4840.7	
407.81	3037.8	
408.01	4040	
408.22	4059.8	
408.42	5169.1	
408.62	3607.2	
408.83	3271.3	
409.03	4447.5	
409.23	4476.9	
409.44	3335.5	
409.64	3465.8	
409.84	5079.6	
410.05	4967	
410.25	3432.4	
410.45	3281.5	
410.66	4785.4	
410.86	6135	
411.06	3575.1	
411.27	3520.5	
411.47	5902.9	
411.67	4905.6	
411.88	3616	
412.08	3736.9	
412.28	5119.2	
412.49	5398.4	
412.69	3438.5	
412.89	3493.8	
413.09	5399.8	
413.3	5249.6	
413.5	3613.3	
413.7	3378.5	
413.91	4884.4	
414.11	5341.1	
414.31	3495.2	
414.52	3761.4	
414.72	5206.6	
414.92	5044.8	
415.12	3501.3	
415.33	3843.4	
415.53	5307.7	
415.73	5473.5	
415.94	3943	
416.14	3590.1	
416.34	4913.8	
416.55	4652.3	
416.75	4244.1	
416.95	3941.7	
417.15	5470.8	
417.36	5719.3	
417.56	4449.6	
417.76	3936.9	
417.97	5511.1	
418.17	5375.2	
418.37	3781.9	
418.57	3691.8	
418.78	5412.8	
418.98	5185.5	
419.18	4246.8	
419.38	4145.1	
419.59	5117.2	
419.79	4919.2	
419.99	3670.6	
420.2	3809.2	
420.4	5442.1	
420.6	5400.5	
420.8	3645.4	
421.01	3567.6	
421.21	5416.2	
421.41	5363.6	
421.61	3740.3	
421.82	3710.2	
422.02	5130.2	
422.22	5626.5	
422.42	4108.9	
422.63	3902.7	
422.83	5119.9	
423.03	5855.8	
423.23	3961.5	
423.44	3402.4	
423.64	5090.6	
423.84	4995.7	
424.04	3631	
424.25	3433.1	
424.45	5635.3	
424.65	5637.4	
424.85	3386.7	
425.06	3660.4	
425.26	5894.1	
425.46	5110.4	
425.66	3938.9	
425.87	3794.9	
426.07	5551.4	
426.27	5375.9	
426.47	3936.2	
426.67	3499.3	
426.88	5800.5	
427.08	5415.5	
427.28	4035.9	
427.48	3528.7	
427.69	4924	
427.89	5202.5	
428.09	3957.4	
428.29	3468.6	
428.5	5523.4	
428.7	5339.7	
428.9	3446.7	
429.1	3691.1	
429.3	5351.3	
429.51	5424.4	
429.71	3647.4	
429.91	4141.7	
430.11	5553.4	
430.31	5635.3	
430.52	3855.6	
430.72	3934.1	
430.92	5798.5	
431.12	5488.6	
431.32	3614	
431.53	3876.1	
431.73	4983.4	
431.93	5769.8	
432.13	3622.9	
432.33	3537.5	
432.54	5294.7	
432.74	5306.3	
432.94	3562.1	
433.14	4130.8	
433.34	5676.3	
433.55	5365	
433.75	4047.5	
433.95	4972.5	
434.15	5466	
434.35	5196.4	
434.56	3652.9	
434.76	3402.4	
434.96	5350.7	
435.16	5494	
435.36	3588	
435.56	4269.3	
435.77	5203.2	
435.97	5337	
436.17	4590.9	
436.37	4136.9	
436.57	5218.2	
436.78	5136.3	
436.98	4172.4	
437.18	4547.2	
437.38	5507	
437.58	5230.5	
437.78	4601.1	
437.99	3859.1	
438.19	5634	
438.39	6064.7	
438.59	3926	
438.79	3563.5	
438.99	6106.4	
439.2	5365.7	
439.4	3647.4	
439.6	3611.9	
439.8	5408	
440	6045.6	
440.2	4214	
440.4	4212.7	
440.61	5802.6	
440.81	6032.6	
441.01	3773.7	
441.21	4265.9	
441.41	6029.2	
441.61	5742.5	
441.81	4472.8	
442.02	4961.5	
442.22	6293.4	
442.42	5850.4	
442.62	3863.8	
442.82	3935.5	
443.02	6170.5	
443.22	5634	
443.43	4158.1	
443.63	3847.5	
443.83	5527.5	
444.03	5401.2	
444.23	4527.4	
444.43	4348.5	
444.63	5701.5	
444.83	6304.3	
445.04	4009.2	
445.24	4618.9	
445.44	5897.5	
445.64	5902.9	
445.84	4388.8	
446.04	4404.5	
446.24	5523.4	
446.44	6049	
446.65	3916.4	
446.85	4222.9	
447.05	5709.1	
447.25	6083.1	
447.45	4304.8	
447.65	3812.6	
447.85	5793.7	
448.05	5485.1	
448.25	4450.2	
448.46	4321.9	
448.66	5815.5	
448.86	5526.1	
449.06	3923.2	
449.26	4445.5	
449.46	5926.1	
449.66	5499.5	
449.86	4251.6	
450.06	4154	
450.26	5614.8	
450.47	5867.4	
450.67	4439.3	
450.87	4513.7	
451.07	6127.5	
451.27	5795.8	
451.47	4012.7	
451.67	4502.8	
451.87	5641.5	
452.07	6249.7	
452.27	4140.3	
452.47	4114.4	
452.67	5926.1	
452.88	5961.6	
453.08	3827.7	
453.28	4866	
453.48	6596.5	
453.68	5738.4	
453.88	4149.2	
454.08	4199	
454.28	6014.2	
454.48	5846.3	
454.68	4539	
454.88	4755.4	
455.08	6204	
455.28	5919.3	
455.48	4042	
455.68	4391.5	
455.89	6451.1	
456.09	6169.2	
456.29	4229.1	
456.49	4416.8	
456.69	6386.2	
456.89	5846.3	
457.09	4608.6	
457.29	4815.5	
457.49	6084.5	
457.69	6192.4	
457.89	4607.2	
458.09	4223.6	
458.29	6049	
458.49	6489.3	
458.69	4855.1	
458.89	4468.7	
459.09	6612.2	
459.29	6587	
459.49	4569.7	
459.69	4971.8	
459.9	6359.6	
460.1	6055.8	
460.3	4477.5	
460.5	4393.6	
460.7	6384.9	
460.9	6044.2	
461.1	4260.5	
461.3	4863.9	
461.5	6808.8	
461.7	6520.7	
461.9	4496	
462.1	4755.4	
462.3	6254.5	
462.5	6529.6	
462.7	4693.3	
462.9	4593.6	
463.1	7212.9	
463.3	7034.1	
463.5	4835.3	
463.7	5292.6	
463.9	6528.9	
464.1	6710.5	
464.3	4890.5	
464.5	5019.6	
464.7	6830.7	
464.9	6587	
465.1	5666	
465.3	5162.9	
465.5	7045.7	
465.7	7127.6	
465.9	5399.1	
466.1	5182.7	
466.3	6862.1	
466.5	6872.3	
466.7	5693.4	
466.9	5251.7	
467.1	7082.6	
467.3	7379.5	
467.5	5799.8	
467.7	5199.1	
467.9	7522.2	
468.1	7985	
468.3	5502.9	
468.5	5836	
468.7	6823.1	
468.9	6830.7	
469.1	5449	
469.3	5790.3	
469.5	8073.1	
469.7	6657.3	
469.9	5622.4	
470.1	5307.7	
470.3	7051.8	
470.5	6974	
470.7	6004.6	
470.9	5408	
471.1	6861.4	
471.3	7027.3	
471.5	5243.5	
471.69	6170.5	
471.89	6896.9	
472.09	6482.5	
472.29	5627.1	
472.49	5764.3	
472.69	6673	
472.89	7007.5	
473.09	5175.2	
473.29	5265.3	
473.49	6742.6	
473.69	6670.2	
473.89	5677	
474.09	5300.8	
474.29	7473.7	
474.49	7247.1	
474.69	5778	
474.89	5367.7	
475.09	6815	
475.29	6761.7	
475.49	5060.5	
475.69	5273.5	
475.88	7595.2	
476.08	7069.6	
476.28	5027.1	
476.48	5260.5	
476.68	7326.9	
476.88	7017	
477.08	5270.1	
477.28	5351.3	
477.48	6915.3	
477.68	7154.2	
477.88	5130.2	
478.08	5258.5	
478.28	7347.4	
478.48	6890	
478.67	5324	
478.87	4887.8	
479.07	7280.5	
479.27	6993.1	
479.47	5469.4	
479.67	5450.3	
479.87	7286	
480.07	7490.1	
480.27	5124.7	
480.47	5832.6	
480.67	6948.8	
480.87	7382.2	
481.06	5238	
481.26	5644.9	
481.46	7094.8	
481.66	6879.8	
481.86	5569.8	
482.06	5947.3	
482.26	6847	
482.46	7423.9	
482.66	5482.4	
482.86	5260.5	
483.05	7223.9	
483.25	6706.4	
483.45	6795.2	
483.65	5461.9	
483.85	6643.6	
484.05	6950.1	
484.25	5776	
484.45	5892	
484.65	7363.1	
484.84	7451.2	
485.04	5387.5	
485.24	5522	
485.44	7793.2	
485.64	6776	
485.84	5100.1	
486.04	5768.4	
486.24	6995.2	
486.44	7086.7	
486.63	5127.4	
486.83	5601.9	
487.03	7028.6	
487.23	7083.9	
487.43	5299.5	
487.63	6442.2	
487.83	7195.9	
488.02	7206.8	
488.22	5732.9	
488.42	6098.9	
488.62	7565.2	
488.82	6900.3	
489.02	5550.7	
489.22	5523.4	
489.41	7460.1	
489.61	7403.4	
489.81	5417.6	
490.01	5397.8	
490.21	7598	
490.41	7947.5	
490.61	5430.5	
490.8	5429.2	
491	7309.9	
491.2	6980.2	
491.4	5849.7	
491.6	5451.7	
491.8	7294.9	
491.99	7251.2	
492.19	5346.6	
492.39	5481.7	
492.59	7488.1	
492.79	7666.9	
492.99	5873.6	
493.18	5488.6	
493.38	7762.5	
493.58	8019.8	
493.78	5878.4	
493.98	5683.1	
494.18	7522.9	
494.37	7241.6	
494.57	6115.9	
494.77	5993.7	
494.97	7675.8	
495.17	7788.4	
495.37	5864	
495.56	6089.3	
495.76	8002.8	
495.96	7809.6	
496.16	6617	
496.36	6004.6	
496.55	8090.2	
496.75	7694.2	
496.95	6194.4	
497.15	6192.4	
497.35	8065.6	
497.54	7862.8	
497.74	6117.3	
497.94	7104.4	
498.14	8471.8	
498.34	8220.5	
498.53	5935	
498.73	6307.1	
498.93	7670.3	
499.13	7950.9	
499.33	6354.8	
499.52	6445	
499.72	8142.7	
499.92	8078.6	
500.12	6135	
500.32	6370.5	
500.51	8224	
500.71	7993.9	
500.91	6698.9	
501.11	6565.1	
501.31	8175.5	
501.5	8432.9	
501.7	7049.1	
501.9	6405.4	
502.1	8041.7	
502.29	8361.2	
502.49	6671.6	
502.69	6877.8	
502.89	8197.3	
503.09	8282	
503.28	6105	
503.48	6202.6	
503.68	7886	
503.88	7791.2	
504.07	6772.6	
504.27	6341.9	
504.47	7980.3	
504.67	8069	
504.86	6646.3	
505.06	6442.2	
505.26	7893.6	
505.46	8749.6	
505.65	6420.4	
505.85	6571.9	
506.05	7922.2	
506.25	8196	
506.44	5986.2	
506.64	6363.7	
506.84	7815.7	
507.04	8102.4	
507.23	6193.7	
507.43	6300.9	
507.63	8718.9	
507.83	7744.7	
508.02	6462	
508.22	6208.8	
508.42	8939.4	
508.62	7692.2	
508.81	6341.9	
509.01	6565.1	
509.21	7660.1	
509.4	7860.1	
509.6	6468.9	
509.8	6171.2	
510	7740.6	
510.19	8486.1	
510.39	6024.4	
510.59	6193.1	
510.79	7823.2	
510.98	8467.7	
511.18	6358.3	
511.38	6306.4	
511.57	8454.7	
511.77	7986.4	
511.97	6677.7	
512.17	6165.8	
512.36	8308.6	
512.56	8097.7	
512.76	6242.9	
512.95	5975.3	
513.15	8454	
513.35	7454.6	
513.55	6646.3	
513.74	6137.8	
513.94	8327.7	
514.14	7848.5	
514.33	6731.7	
514.53	6672.3	
514.73	8009.6	
514.92	7985.7	
515.12	6203.3	
515.32	6266.1	
515.51	8168.7	
515.71	8213	
515.91	7187.7	
516.11	6282.5	
516.3	9058.8	
516.5	7965.9	
516.7	6658.6	
516.89	6932.4	
517.09	7965.2	
517.29	7972.7	
517.48	6891.4	
517.68	6368.5	
517.88	7755.7	
518.07	8249.2	
518.27	6797.2	
518.47	6251.8	
518.66	8645.8	
518.86	7835.5	
519.06	6149.4	
519.25	6463.4	
519.45	8036.9	
519.65	8862.2	
519.84	6862.1	
520.04	7243.7	
520.24	9069.8	
520.43	8319.5	
520.63	6708.5	
520.83	6636.8	
521.02	7968	
521.22	8374.1	
521.42	6855.9	
521.61	7128.3	
521.81	8213.7	
522.01	8350.9	
522.2	6838.9	
522.4	6600.6	
522.6	8689.5	
522.79	7798.7	
522.99	6756.2	
523.18	6407.4	
523.38	8489.5	
523.58	8521.6	
523.77	7378.1	
523.97	6525.5	
524.17	9546.3	
524.36	9140.1	
524.56	7241.6	
524.76	7104.4	
524.95	8584.4	
525.15	8443.8	
525.34	7008.1	
525.54	7160.4	
525.74	9020.6	
525.93	8448.6	
526.13	7796.6	
526.33	7178.8	
526.52	9299.1	
526.72	8890.2	
526.91	7983.7	
527.11	7639.6	
527.31	9181.7	
527.5	9468.4	
527.7	7517.4	
527.89	7098.9	
528.09	8832.9	
528.29	9157.2	
528.48	7831.4	
528.68	7577.5	
528.87	9448.6	
529.07	9318.3	
529.27	7656	
529.46	7335.8	
529.66	9260.9	
529.85	9478	
530.05	7431.4	
530.25	7802.8	
530.44	10060	
530.64	9224.7	
530.83	7724.9	
531.03	7748.8	
531.23	9711.5	
531.42	9460.3	
531.62	8245.8	
531.81	7888.8	
532.01	9682.8	
532.21	9815.2	
532.4	7794.6	
532.6	8045.8	
532.79	10332	
532.99	9813.2	
533.18	8125.7	
533.38	8600.8	
533.58	9878.7	
533.77	10045	
533.97	8236.9	
534.16	8627.4	
534.36	10339	
534.55	9783.8	
534.75	8733.9	
534.95	8300.4	
535.14	10425	
535.34	9752.4	
535.53	8063.5	
535.73	9185.8	
535.92	10690	
536.12	9860.3	
536.31	8187.1	
536.51	8885.5	
536.71	10202	
536.9	9903.3	
537.1	8242.4	
537.29	8445.8	
537.49	10400	
537.68	9888.3	
537.88	8686.8	
538.07	8084.7	
538.27	10099	
538.46	10589	
538.66	8208.3	
538.86	8400.1	
539.05	10086	
539.25	10200	
539.44	8677.9	
539.64	8349.6	
539.83	10019	
540.03	10563	
540.22	8251.9	
540.42	8299.7	
540.61	10089	
540.81	10241	
541	8563.9	
541.2	8868.4	
541.39	9878	
541.59	10045	
541.78	8809.7	
541.98	8254	
542.18	9749	
542.37	9613.8	
542.57	8394.6	
542.76	8742.8	
542.96	9744.9	
543.15	9979.8	
543.35	8435.6	
543.54	8131.8	
543.74	9698.5	
543.93	9979.1	
544.13	8366	
544.32	8920.3	
544.52	10142	
544.71	9564	
544.91	7835.5	
545.1	8376.9	
545.3	9734.7	
545.49	9852.8	
545.69	7873.1	
545.88	8186.4	
546.08	10579	
546.27	10172	
546.47	8347.5	
546.66	7914	
546.86	10079	
547.05	10349	
547.24	8114.7	
547.44	8088.8	
547.63	9514.2	
547.83	10106	
548.02	8280.6	
548.22	8398.7	
548.41	9478	
548.61	10103	
548.8	8088.1	
549	8172.8	
549.19	9765.4	
549.39	10086	
549.58	7766.6	
549.78	8114.1	
549.97	10014	
550.17	9577	
550.36	8519.5	
550.55	9008.3	
550.75	9665	
550.94	10153	
551.14	7860.1	
551.33	8075.8	
551.53	9341.5	
551.72	9728.5	
551.92	8097	
552.11	7989.1	
552.31	9901.9	
552.5	9815.9	
552.69	8895	
552.89	7791.8	
553.08	9858.9	
553.28	9586.5	
553.47	7987.1	
553.67	8599.4	
553.86	10084	
554.06	9123	
554.25	7529	
554.44	7781.6	
554.64	10387	
554.83	10290	
555.03	7813	
555.22	8057.4	
555.42	9910.8	
555.61	9748.3	
555.8	7888.8	
556	7976.8	
556.19	9273.2	
556.39	9716.2	
556.58	7839.6	
556.78	8041	
556.97	9579.7	
557.16	9511.4	
557.36	8529.8	
557.55	7690.8	
557.75	9013.1	
557.94	10073	
558.13	7752.2	
558.33	7692.2	
558.52	9981.8	
558.72	9209.7	
558.91	7669.6	
559.1	7671	
559.3	9183.8	
559.49	8959.2	
559.69	7597.3	
559.88	7912.7	
560.07	9574.9	
560.27	9781.8	
560.46	8067.6	
560.66	8166.6	
560.85	9506	
561.04	8901.2	
561.24	7640.3	
561.43	7697.6	
561.63	9123	
561.82	9276.6	
562.01	8270.4	
562.21	7832.1	
562.4	9435.7	
562.59	9951.1	
562.79	7776.8	
562.98	7596.6	
563.18	9407	
563.37	10137	
563.56	8011.7	
563.76	7662.1	
563.95	9225.4	
564.14	9176.3	
564.34	7929.7	
564.53	7527	
564.73	9529.9	
564.92	9555.1	
565.11	8015.1	
565.31	7600.7	
565.5	9870.5	
565.69	9162.6	
565.89	7855.3	
566.08	7847.8	
566.27	9658.2	
566.47	9953.8	
566.66	8279.9	
566.85	7523.6	
567.05	9622.7	
567.24	9270.5	
567.44	7696.3	
567.63	8366	
567.82	9712.8	
568.02	9429.5	
568.21	7679.2	
568.4	7836.9	
568.6	9406.3	
568.79	9360.6	
568.98	7667.6	
569.18	7666.2	
569.37	9398.1	
569.56	10404	
569.76	7977.5	
569.95	8385.1	
570.14	9709.4	
570.34	9454.1	
570.53	7672.4	
570.72	7542	
570.91	9854.1	
571.11	9419.3	
571.3	7927	
571.49	8411	
571.69	9547.6	
571.88	9113.5	
572.07	8155.7	
572.27	8082	
572.46	9092.3	
572.65	9624.1	
572.85	7768.6	
573.04	7935.2	
573.23	9906.7	
573.43	9504.6	
573.62	7706.5	
573.81	7934.5	
574	9544.9	
574.2	9419.3	
574.39	7907.9	
574.58	7897	
574.78	10170	
574.97	9701.9	
575.16	8116.8	
575.36	8329.1	
575.55	9934	
575.74	9863.7	
575.93	7662.8	
576.13	8269	
576.32	9520.3	
576.51	9848	
576.71	8000.7	
576.9	8682.7	
577.09	10080	
577.28	9750.4	
577.48	8174.8	
577.67	7671	
577.86	9598.8	
578.05	9706.7	
578.25	8077.9	
578.44	8073.8	
578.63	9567.4	
578.83	10296	
579.02	7709.2	
579.21	8558.5	
579.4	9726.5	
579.6	9530.6	
579.79	8012.3	
579.98	9323.7	
580.17	9825.5	
580.37	9983.8	
580.56	7765.9	
580.75	8297.7	
580.94	9973.6	
581.14	10167	
581.33	8482	
581.52	7887.4	
581.71	9834.3	
581.91	10202	
582.1	7875.1	
582.29	7986.4	
582.48	9663	
582.68	9566.7	
582.87	8217.1	
583.06	8150.2	
583.25	9968.8	
583.45	9744.2	
583.64	8473.1	
583.83	8858.8	
584.02	9695.8	
584.21	9868.5	
584.41	8476.5	
584.6	8130.4	
584.79	9724.4	
584.98	10014	
585.18	7819.8	
585.37	7759.8	
585.56	9564	
585.75	9884.9	
585.94	7909.3	
586.14	8307.2	
586.33	10119	
586.52	9605	
586.71	8096.3	
586.91	8017.1	
587.1	9278.7	
587.29	9822.7	
587.48	7955.7	
587.67	7899.7	
587.87	9768.1	
588.06	9663.7	
588.25	8568.7	
588.44	8077.2	
588.63	9364.7	
588.83	9675.3	
589.02	7817.1	
589.21	7563.1	
589.4	9217.9	
589.59	9208.4	
589.78	7194.5	
589.98	7266.9	
590.17	8744.8	
590.36	8964	
590.55	6867.5	
590.74	7215	
590.94	9573.6	
591.13	8840.4	
591.32	7150.8	
591.51	6857.3	
591.7	9074.5	
591.89	8766	
592.09	6880.5	
592.28	7127.6	
592.47	8256.7	
592.66	9520.3	
592.85	6857.3	
593.05	7048.4	
593.24	8772.1	
593.43	9293	
593.62	7130.3	
593.81	7370	
594	8866.3	
594.19	8884.8	
594.39	7045	
594.58	7048.4	
594.77	9007.6	
594.96	9177.6	
595.15	7060	
595.34	7363.1	
595.54	8783.1	
595.73	8419.2	
595.92	6632	
596.11	7273.7	
596.3	9209.7	
596.49	8576.9	
596.68	7138.5	
596.88	7305.1	
597.07	8896.4	
597.26	8386.4	
597.45	6903.7	
597.64	7377.5	
597.83	8586.5	
598.02	8766.7	
598.22	6817.7	
598.41	7182.9	
598.6	8746.9	
598.79	8378.9	
598.98	6855.2	
599.17	7367.9	
599.36	8770.8	
599.55	9228.1	
599.74	7862.2	
599.94	7817.8	
600.13	9077.3	
600.32	8381.7	
600.51	6756.2	
600.7	6851.8	
600.89	9340.1	
601.08	9465	
601.27	6669.6	
601.47	7169.3	
601.66	8830.2	
601.85	9230.9	
602.04	7116.7	
602.23	7051.2	
602.42	8428.8	
602.61	8720.9	
602.8	6989	
602.99	6792.4	
603.18	8601.5	
603.37	8649.9	
603.57	7153.6	
603.76	7538.6	
603.95	9054.8	
604.14	8744.8	
604.33	7008.8	
604.52	7085.3	
604.71	8712.1	
604.9	8458.8	
605.09	7480.5	
605.28	7264.1	
605.47	9117.6	
605.66	8744.1	
605.86	7185.6	
606.05	6965.1	
606.24	9119.6	
606.43	8199.4	
606.62	7141.9	
606.81	7457.3	
607	8988.5	
607.19	8503.2	
607.38	6763.8	
607.57	6843.6	
607.76	8388.5	
607.95	8028.7	
608.14	7176.8	
608.33	7348.8	
608.52	8306.6	
608.72	8885.5	
608.91	6603.3	
609.1	6585.6	
609.29	8400.1	
609.48	8129.1	
609.67	7075	
609.86	6612.9	
610.05	8243.8	
610.24	8391.2	
610.43	6515.3	
610.62	6369.9	
610.81	9050.7	
611	8803.5	
611.19	6610.8	
611.38	6985.6	
611.57	8518.2	
611.76	9152.4	
611.95	6490	
612.14	6389.7	
612.33	8415.1	
612.52	8095.6	
612.71	6772.6	
612.9	6289.3	
613.09	7918.1	
613.28	9186.5	
613.47	6655.9	
613.66	7189.1	
613.85	8535.3	
614.04	8150.9	
614.24	6607.4	
614.43	6152.8	
614.62	8458.8	
614.81	8445.1	
615	6990.4	
615.19	6991.8	
615.38	8178.2	
615.57	8426	
615.76	6891.4	
615.95	7331.7	
616.14	8596.7	
616.33	8387.1	
616.52	7027.3	
616.71	7170.6	
616.9	8563.9	
617.09	8380.3	
617.28	6799.9	
617.47	7262.1	
617.66	8135.9	
617.85	8073.8	
618.04	7197.2	
618.22	6887.3	
618.41	8144.8	
618.6	8906.6	
618.79	6950.1	
618.98	6904.4	
619.17	8970.1	
619.36	7880.6	
619.55	6943.3	
619.74	6994.5	
619.93	8501.8	
620.12	8228.1	
620.31	7264.1	
620.5	7303.7	
620.69	8854.1	
620.88	9234.3	
621.07	7729.7	
621.26	7236.8	
621.45	8729.8	
621.64	8758.5	
621.83	7232.1	
622.02	6832	
622.21	8795.3	
622.4	8746.2	
622.59	7593.9	
622.78	7544.7	
622.97	8499.1	
623.16	9010.4	
623.35	7385	
623.54	6748.7	
623.72	8675.2	
623.91	8668.4	
624.1	7444.4	
624.29	6739.9	
624.48	9334.6	
624.67	8896.4	
624.86	7479.2	
625.05	6983.6	
625.24	9389.9	
625.43	8576.9	
625.62	8266.3	
625.81	7062.8	
626	8981	
626.19	8688.2	
626.38	7346.7	
626.56	7138.5	
626.75	8474.5	
626.94	8989.9	
627.13	7495.6	
627.32	6765.1	
627.51	9017.2	
627.7	9512.8	
627.89	6832	
628.08	7493.5	
628.27	8381.7	
628.46	8629.5	
628.65	7025.2	
628.83	6694.1	
629.02	8877.9	
629.21	8469	
629.4	7150.1	
629.59	7352.9	
629.78	8514.1	
629.97	8921	
630.16	7302.4	
630.35	7111.2	
630.54	9340.1	
630.72	9149	
630.91	7098.9	
631.1	7311.2	
631.29	8829.5	
631.48	8698.4	
631.67	7444.4	
631.86	7006.8	
632.05	8695.7	
632.24	8656.1	
632.42	6918	
632.61	7309.9	
632.8	8639.7	
632.99	8458.1	
633.18	7331	
633.37	7408.2	
633.56	8910.7	
633.75	8749.6	
633.93	7279.2	
634.12	7198.6	
634.31	9482.1	
634.5	9052	
634.69	7185.6	
634.88	7411.6	
635.07	8747.6	
635.25	9057.5	
635.44	7657.4	
635.63	7684	
635.82	8622.6	
636.01	7968.6	
636.2	7529	
636.39	7324.9	
636.57	9336.7	
636.76	8834.3	
636.95	7043.6	
637.14	7791.2	
637.33	8875.9	
637.52	9321	
637.7	6934.4	
637.89	7490.1	
638.08	8701.8	
638.27	9351	
638.46	7463.5	
638.65	7626	
638.83	9391.3	
639.02	8484.7	
639.21	7379.5	
639.4	7642.3	
639.59	8811	
639.78	8454	
639.96	6937.2	
640.15	6922.8	
640.34	8649.9	
640.53	8680.7	
640.72	6794.5	
640.91	6827.2	
641.09	8278.6	
641.28	9028.1	
641.47	7044.3	
641.66	7338.6	
641.85	8619.2	
642.03	8710.7	
642.22	7141.9	
642.41	6963.1	
642.6	8287.4	
642.79	8054	
642.97	6795.2	
643.16	7021.1	
643.35	8194.6	
643.54	8048.5	
643.73	6623.1	
643.91	7040.2	
644.1	8124.3	
644.29	8348.2	
644.48	6582.9	
644.67	6711.9	
644.85	7896.3	
645.04	8289.5	
645.23	6419.7	
645.42	6597.9	
645.6	7881.3	
645.79	8563.2	
645.98	6430.6	
646.17	5897.5	
646.36	7720.8	
646.54	7874.4	
646.73	6755.6	
646.92	6186.9	
647.11	7660.1	
647.29	8149.6	
647.48	6188.3	
647.67	6086.6	
647.86	8392.6	
648.05	8246.5	
648.23	6264.7	
648.42	7023.9	
648.61	8019.8	
648.8	7944.1	
648.98	6145.3	
649.17	6268.1	
649.36	7643	
649.55	7342.7	
649.73	6143.9	
649.92	6513.9	
650.11	7605.5	
650.3	7728.4	
650.48	6114.6	
650.67	6157.6	
650.86	7847.1	
651.05	7210.9	
651.23	6183.5	
651.42	6035.4	
651.61	7579.5	
651.79	7479.2	
651.98	6298.2	
652.17	5980.1	
652.36	7835.5	
652.54	7173.4	
652.73	6055.8	
652.92	6025.8	
653.11	7800	
653.29	7837.6	
653.48	5653.1	
653.67	6126.8	
653.85	7570	
654.04	8157.1	
654.23	6132.3	
654.42	6023.8	
654.6	7219.1	
654.79	7614.3	
654.98	5547.3	
655.16	5836	
655.35	6963.1	
655.54	6724.2	
655.73	5552	
655.91	5433.3	
656.1	7281.2	
656.29	6755.6	
656.47	5339.1	
656.66	6212.2	
656.85	7165.8	
657.03	6997.2	
657.22	5645.6	
657.41	5698.8	
657.59	7154.9	
657.78	7020.4	
657.97	5461.9	
658.16	5844.9	
658.34	7537.2	
658.53	7791.2	
658.72	6361.7	
658.9	6606.7	
659.09	7317.4	
659.28	7260	
659.46	5726.1	
659.65	5644.2	
659.84	7118.1	
660.02	7472.4	
660.21	5779.4	
660.4	5558.9	
660.58	7614.3	
660.77	7358.4	
660.96	6018.3	
661.14	5408.7	
661.33	7889.5	
661.52	7813	
661.7	5397.1	
661.89	7155.6	
662.08	7070.3	
662.26	6683.2	
662.45	5622.4	
662.64	5677.7	
662.82	7524.9	
663.01	6979.5	
663.2	5597.8	
663.38	5967.1	
663.57	7365.9	
663.75	7290.8	
663.94	5767.1	
664.13	6468.2	
664.31	7046.4	
664.5	7300.3	
664.69	5901.6	
664.87	6114.6	
665.06	6860	
665.25	7144.7	
665.43	6313.9	
665.62	6298.2	
665.8	7305.1	
665.99	7010.9	
666.18	5759.6	
666.36	5745.2	
666.55	7352.2	
666.74	7326.3	
666.92	5542.5	
667.11	6417.7	
667.29	7106.5	
667.48	7251.9	
667.67	6174.6	
667.85	5655.8	
668.04	6925.5	
668.22	6939.2	
668.41	5705.6	
668.6	5980.1	
668.78	6852.5	
668.97	6982.2	
669.15	5899.5	
669.34	5313.8	
669.53	6883.9	
669.71	7121.5	
669.9	5431.2	
670.08	5899.5	
670.27	6782.9	
670.46	7206.8	
670.64	5971.9	
670.83	6059.9	
671.01	6718	
671.2	7048.4	
671.38	5538.4	
671.57	5442.1	
671.76	7582.9	
671.94	7735.2	
672.13	5399.1	
672.31	5913.9	
672.5	7296.9	
672.69	6852.5	
672.87	5518.6	
673.06	5659.9	
673.24	7168.6	
673.43	6892.1	
673.61	5852.4	
673.8	5576.6	
673.98	7212.3	
674.17	7285.3	
674.36	5997.1	
674.54	5881.8	
674.73	6919.4	
674.91	7251.2	
675.1	5625.1	
675.28	5461.2	
675.47	6974.7	
675.65	7268.2	
675.84	5613.5	
676.03	5756.8	
676.21	6939.2	
676.4	6525.5	
676.58	6038.8	
676.77	5977.3	
676.95	7781.6	
677.14	6892.1	
677.32	5420.3	
677.51	5387.5	
677.69	7360.4	
677.88	6784.2	
678.06	5470.1	
678.25	5612.1	
678.44	6928.3	
678.62	6861.4	
678.81	5327.4	
678.99	5835.3	
679.18	7480.5	
679.36	7192.5	
679.55	5671.5	
679.73	5876.3	
679.92	7149.5	
680.1	6887.3	
680.29	6285.2	
680.47	5607.3	
680.66	6870.3	
680.84	7342.7	
681.03	5342.5	
681.21	5927.5	
681.4	6896.2	
681.58	6832.7	
681.77	5586.9	
681.95	5456.5	
682.14	7367.2	
682.32	7503.8	
682.51	6040.8	
682.69	5346.6	
682.88	6802	
683.06	7060.7	
683.25	5892	
683.43	6023.8	
683.62	7086.7	
683.8	7196.6	
683.99	6079.1	
684.17	5705	
684.36	7606.2	
684.54	6947.4	
684.73	5244.2	
684.91	5288.5	
685.1	7077.1	
685.28	6634.7	
685.46	5552	
685.65	5454.4	
685.83	7021.8	
686.02	6680.5	
686.2	5210	
686.39	5241.4	
686.57	6378.1	
686.76	7271.7	
686.94	5229.8	
687.13	5352	
687.31	6907.1	
687.5	6835.4	
687.68	5119.2	
687.86	5668.1	
688.05	7732.4	
688.23	6388.3	
688.42	5788.9	
688.6	5301.5	
688.79	6767.2	
688.97	6817.7	
689.16	5697.4	
689.34	5057.8	
689.52	7272.3	
689.71	7410.2	
689.89	5849	
690.08	5455.1	
690.26	7023.9	
690.45	6777.4	
690.63	6012.2	
690.81	5668.8	
691	7044.3	
691.18	6849.1	
691.37	5778	
691.55	6872.3	
691.74	6857.3	
691.92	7880.6	
692.1	5659.9	
692.29	5430.5	
692.47	7097.6	
692.66	6613.6	
692.84	5519.3	
693.02	5777.3	
693.21	6664.8	
693.39	7060	
693.58	5960.3	
693.76	5616.9	
693.94	7735.9	
694.13	7588.4	
694.31	5793	
694.5	6358.9	
694.68	7023.2	
694.86	7292.1	
695.05	6076.3	
695.23	6291.4	
695.42	7572.7	
695.6	8754.4	
695.78	6434	
695.97	5863.3	
696.15	7665.5	
696.34	7277.8	
696.52	5803.3	
696.7	6264.1	
696.89	7501.7	
697.07	7157	
697.25	6162.3	
697.44	7001.3	
697.62	7595.2	
697.81	7580.9	
697.99	6081.8	
698.17	6260.6	
698.36	7228	
698.54	7591.1	
698.72	6280.4	
698.91	5722	
699.09	7398.6	
699.28	7228	
699.46	6109.1	
699.64	6004	
699.83	7269.6	
700.01	7733.8	
700.19	6556.2	
700.38	5695.4	
700.56	7817.1	
700.74	7391.8	
700.93	5939.1	
701.11	6374.6	
701.29	7720.2	
701.48	8286.1	
701.66	6115.9	
701.84	6284.5	
702.03	7698.3	
702.21	8065.6	
702.39	5961.6	
702.58	6331	
702.76	8049.2	
702.94	7976.8	
703.13	6020.3	
703.31	7397.9	
703.49	7530.4	
703.68	8402.8	
703.86	6242.9	
704.04	6719.4	
704.23	7859.4	
704.41	8097.7	
704.59	6330.3	
704.78	6814.3	
704.96	8826.1	
705.14	8050.6	
705.33	6173.3	
705.51	6634.1	
705.69	7709.9	
705.87	8295	
706.06	6780.8	
706.24	6194.4	
706.42	8062.2	
706.61	8131.1	
706.79	6854.6	
706.97	6186.2	
707.16	7729.7	
707.34	8068.3	
707.52	6842.9	
707.7	6420.4	
707.89	7737.9	
708.07	7643	
708.25	6873	
708.44	7034.8	
708.62	7825.3	
708.8	8360.5	
708.98	7053.9	
709.17	6548	
709.35	7998.7	
709.53	7926.3	
709.72	6378.7	
709.9	6429.9	
710.08	8265.6	
710.26	8269	
710.45	7202	
710.63	6571.2	
710.81	8005.5	
710.99	8002.1	
711.18	6945.3	
711.36	6587	
711.54	7878.5	
711.72	8329.1	
711.91	6688.7	
712.09	6353.5	
712.27	7983	
712.45	8172.1	
712.64	6571.9	
712.82	6145.3	
713	7580.2	
713.18	7613.7	
713.37	6047	
713.55	6604.7	
713.73	7984.3	
713.91	7212.3	
714.1	6057.9	
714.28	5731.6	
714.46	7503.1	
714.64	7010.9	
714.83	5225.7	
715.01	5548.6	
715.19	6952.9	
715.37	6249	
715.55	5208.7	
715.74	5246.2	
715.92	7143.3	
716.1	5972.6	
716.28	5926.8	
716.47	5383.4	
716.65	6559	
716.83	6470.9	
717.01	5259.9	
717.19	5208.7	
717.38	7544	
717.56	6281.8	
717.74	5403.9	
717.92	5014.1	
718.1	6940.6	
718.29	6474.3	
718.47	4836.6	
718.65	5206.6	
718.83	7210.2	
719.01	7137.9	
719.2	5083.1	
719.38	5701.5	
719.56	7150.8	
719.74	7988.4	
719.92	5571.8	
720.11	6073.6	
720.29	7191.1	
720.47	6668.9	
720.65	5186.1	
720.83	5545.9	
721.02	6689.3	
721.2	6539.2	
721.38	5465.3	
721.56	5051	
721.74	6152.8	
721.92	6182.1	
722.11	5627.8	
722.29	5524.1	
722.47	6953.5	
722.65	6451.8	
722.83	5023.7	
723.01	5423.7	
723.2	6475.7	
723.38	6678.4	
723.56	4723.3	
723.74	5341.1	
723.92	6167.1	
724.1	6920.8	
724.29	5006.6	
724.47	5575.9	
724.65	6404	
724.83	6217	
725.01	4918.5	
725.19	5339.7	
725.37	6238.1	
725.56	6105	
725.74	4896.7	
725.92	4980	
726.1	6326.9	
726.28	6395.8	
726.46	5170.4	
726.64	5089.9	
726.83	6468.9	
727.01	6516	
727.19	4898.7	
727.37	5277.6	
727.55	6614.3	
727.73	6769.9	
727.91	4874.2	
728.09	4787.5	
728.28	6711.2	
728.46	6894.8	
728.64	5369.1	
728.82	5324.7	
729	7399.3	
729.18	7090.8	
729.36	4971.8	
729.54	6239.5	
729.72	7732.4	
729.91	6769.9	
730.09	6192.4	
730.27	5533.6	
730.45	6786.3	
730.63	7153.6	
730.81	5811.5	
730.99	5465.3	
731.17	7514.7	
731.35	6630.6	
731.53	5636.7	
731.71	5427.8	
731.9	7302.4	
732.08	7193.1	
732.26	5550	
732.44	5348.6	
732.62	7309.2	
732.8	7083.2	
732.98	5720	
733.16	5273.5	
733.34	7073.7	
733.52	6188.3	
733.7	5404.6	
733.88	5481	
734.07	6920.1	
734.25	6831.3	
734.43	5199.8	
734.61	5939.1	
734.79	7557	
734.97	6747.4	
735.15	5177.3	
735.33	5343.8	
735.51	6860	
735.69	6789	
735.87	6141.9	
736.05	5487.2	
736.23	6826.6	
736.41	6519.4	
736.59	5520.6	
736.77	5469.4	
736.95	7046.4	
737.13	6655.9	
737.32	5154.1	
737.5	5264.6	
737.68	7350.2	
737.86	6605.4	
738.04	5057.1	
738.22	6035.4	
738.4	6505.7	
738.58	6657.9	
738.76	5327.4	
738.94	4866.7	
739.12	6498.9	
739.3	6529.6	
739.48	5659.2	
739.66	5532.9	
739.84	6713.2	
740.02	6632	
740.2	4922	
740.38	5034.6	
740.56	6859.3	
740.74	6088.6	
740.92	5436.7	
741.1	5293.3	
741.28	6549.4	
741.46	6378.1	
741.64	5083.1	
741.82	5367	
742	6555.5	
742.18	6369.2	
742.36	5171.1	
742.54	4929.5	
742.72	6820.4	
742.9	6006	
743.08	5285.1	
743.26	4637.3	
743.44	6733.7	
743.62	6724.2	
743.8	5352.7	
743.98	4775.9	
744.16	6494.1	
744.34	6272.2	
744.52	5272.2	
744.7	5160.2	
744.88	6626.5	
745.06	6326.2	
745.24	5148.6	
745.42	5206.6	
745.6	6624.5	
745.78	6510.5	
745.96	4538.3	
746.14	4646.2	
746.32	6845.7	
746.5	6375.3	
746.68	4949.3	
746.86	4616.1	
747.03	6567.2	
747.21	5722.7	
747.39	4918.5	
747.57	4607.2	
747.75	6176.7	
747.93	6322.1	
748.11	4560.8	
748.29	4545.8	
748.47	7112.6	
748.65	6006.7	
748.83	4875.5	
749.01	4782	
749.19	6266.1	
749.37	5789.6	
749.55	4667.3	
749.73	4749.9	
749.91	6208.1	
750.09	5967.1	
750.26	4774.5	
750.44	4386.1	
750.62	6085.2	
750.8	5998.5	
750.98	4374.5	
751.16	4513	
751.34	6084.5	
751.52	5712.5	
751.7	4939	
751.88	4284.4	
752.06	6402	
752.24	6195.8	
752.42	4284.4	
752.59	4474.1	
752.77	6008.1	
752.95	6688.7	
753.13	4861.2	
753.31	4497.3	
753.49	5850.4	
753.67	5995.8	
753.85	4641.4	
754.03	4354.7	
754.21	6103.6	
754.38	6266.1	
754.56	4388.1	
754.74	3827	
754.92	5547.3	
755.1	5743.2	
755.28	3720.5	
755.46	3583.9	
755.64	6105	
755.82	6098.2	
755.99	3519.1	
756.17	3446	
756.35	4432.5	
756.53	5139.7	
756.71	2745.6	
756.89	3428.3	
757.07	4924	
757.25	4428.4	
757.42	3523.2	
757.6	4030.4	
757.78	5091.3	
757.96	4583.4	
758.14	3485.6	
758.32	3249.4	
758.5	4339	
758.67	4782.7	
758.85	3394.8	
759.03	3396.9	
759.21	4885.1	
759.39	4511.7	
759.57	3166.8	
759.75	3754.6	
759.92	5279	
760.1	4916.5	
760.28	3979.9	
760.46	4183.3	
760.64	4855.1	
760.82	4817.5	
760.99	4046.1	
761.17	3573.7	
761.35	5416.2	
761.53	4811.4	
761.71	3752.6	
761.89	4022.2	
762.06	5279	
762.24	5169.1	
762.42	3822.2	
762.6	3657	
762.78	5091.9	
762.96	5421	
763.13	4037.2	
763.31	3886.4	
763.49	5492	
763.67	5097.4	
763.85	4280.9	
764.02	4635.2	
764.2	5771.2	
764.38	5184.8	
764.56	3809.9	
764.74	4281.6	
764.91	5724.8	
765.09	5105.6	
765.27	3743.7	
765.45	3522.5	
765.63	5861.3	
765.8	5644.2	
765.98	3452.2	
766.16	3547.8	
766.34	4801.1	
766.52	4782	
766.69	3977.8	
766.87	3454.9	
767.05	5110.4	
767.23	5557.5	
767.41	3627.6	
767.58	3737.5	
767.76	5324	
767.94	5383.4	
768.12	3609.2	
768.29	3973.1	
768.47	4965.6	
768.65	5496.1	
768.83	3338.2	
769	3934.1	
769.18	4743.1	
769.36	5114.5	
769.54	3958	
769.72	3333.4	
769.89	5386.2	
770.07	5268.7	
770.25	3571.7	
770.43	4247.5	
770.6	5720.7	
770.78	5782.1	
770.96	3673.4	
771.14	3953.3	
771.31	5324.7	
771.49	4810	
771.67	3250.8	
771.85	3252.9	
772.02	4490.5	
772.2	4740.4	
772.38	3685.7	
772.55	3329.3	
772.73	5019.6	
772.91	4839.4	
773.09	3556	
773.26	3571.7	
773.44	4952	
773.62	4824.3	
773.8	3231.7	
773.97	3177.8	
774.15	4930.8	
774.33	4810	
774.5	3200.3	
774.68	3363.4	
774.86	4993.6	
775.04	4726	
775.21	3251.5	
775.39	3145.7	
775.57	4849.6	
775.74	4980.7	
775.92	3063.8	
776.1	2995.5	
776.27	4810.7	
776.45	5436	
776.63	3175	
776.81	2971.6	
776.98	4694.6	
777.16	5161.6	
777.34	3166.8	
777.51	3422.8	
777.69	4640.7	
777.87	4428.4	
778.04	3307.5	
778.22	3510.9	
778.4	4437.3	
778.57	4823	
778.75	2849.4	
778.93	2949.1	
779.1	4422.9	
779.28	4233.8	
779.46	2808.4	
779.64	3092.4	
779.81	4956.1	
779.99	5287.9	
780.17	3414	
780.34	3495.9	
780.52	4662.5	
780.69	4607.2	
780.87	3222.8	
781.05	2960.7	
781.22	4668.7	
781.4	4625	
781.58	3031.7	
781.75	2552.5	
781.93	4607.2	
782.11	4141	
782.28	3459.7	
782.46	3018	
782.64	4185.4	
782.81	4737	
782.99	3084.2	
783.17	2998.2	
783.34	4538.3	
783.52	4245.4	
783.69	3142.3	
783.87	3590.1	
784.05	4316.4	
784.22	4218.1	
784.4	3509.5	
784.58	3149.8	
784.75	4720.6	
784.93	4320.5	
785.1	2957.3	
785.28	3323.2	
785.46	4665.3	
785.63	4177.9	
785.81	2964.1	
785.99	2863.1	
786.16	4391.5	
786.34	4438.6	
786.51	2945.7	
786.69	3153.9	
786.87	4008.6	
787.04	4350.6	
787.22	2831.7	
787.39	3290.4	
787.57	4251.6	
787.75	4751.3	
787.92	3478.1	
788.1	3367.5	
788.27	4152.6	
788.45	3902.7	
788.63	3190.7	
788.8	2510.8	
788.98	4435.2	
789.15	3859.7	
789.33	2620.7	
789.5	2920.4	
789.68	4642.7	
789.86	4760.8	
790.03	3156.6	
790.21	2830.3	
790.38	4803.2	
790.56	4230.4	
790.73	2806.4	
790.91	2746.3	
791.09	4180.6	
791.26	4513	
791.44	2901.3	
791.61	2639.1	
791.79	4190.1	
791.96	4125.3	
792.14	2663	
792.32	2471.2	
792.49	4142.4	
792.67	4250.2	
792.84	2747.7	
793.02	2627.5	
793.19	4463.2	
793.37	4772.4	
793.54	2408.4	
793.72	2597.5	
793.89	4827.1	
794.07	4061.1	
794.25	2926.5	
794.42	2453.5	
794.6	4685.1	
794.77	4474.1	
794.95	3046.7	
795.12	2717	
795.3	4184	
795.47	4442	
795.65	3003	
795.82	2893.1	
796	4003.8	
796.17	4987.5	
796.35	2825.5	
796.52	3247.4	
796.7	4446.1	
796.87	4505.5	
797.05	2843.9	
797.22	3296.5	
797.4	4491.9	
797.57	4975.2	
797.75	2951.1	
797.92	2767.5	
798.1	4633.9	
798.27	3979.2	
798.45	2510.1	
798.62	2634.4	
798.8	4285.7	
798.97	4509.6	
799.15	3005.7	
799.32	2874.7	
799.5	3868.6	
799.67	4244.8	
799.85	3084.9	
800.02	2446	
800.2	4117.1	
800.37	4163.5	
800.55	3127.2	
800.72	2738.8	
800.9	4575.2	
801.07	4686.4	
801.25	3499.3	
801.42	2913.6	
801.6	4578.6	
801.77	4182	
801.95	2831.7	
802.12	2680.1	
802.29	4413.4	
802.47	4283	
802.64	2976.4	
802.82	2450.7	
802.99	4097.3	
803.17	4516.5	
803.34	2880.1	
803.52	2618.7	
803.69	4860.5	
803.87	3884.3	
804.04	2895.8	
804.21	2960	
804.39	4730.8	
804.56	4145.1	
804.74	2553.1	
804.91	2939.5	
805.09	4059.8	
805.26	4118.5	
805.44	2592	
805.61	2775.7	
805.78	4467.3	
805.96	4401.1	
806.13	2873.3	
806.31	3083.6	
806.48	3809.9	
806.66	4069.3	
806.83	2921.1	
807	2875.3	
807.18	4080.9	
807.35	4235.9	
807.53	2807.1	
807.7	2475.3	
807.87	4713.7	
808.05	4086.4	
808.22	2996.9	
808.4	2401.6	
808.57	3946.4	
808.74	3815.4	
808.92	2730.6	
809.09	3246.7	
809.27	4096.6	
809.44	4298.7	
809.61	2398.9	
809.79	2629.6	
809.96	4844.8	
810.14	4345.8	
810.31	2453.5	
810.48	3007.1	
810.66	4040	
810.83	4433.2	
811.01	2674.6	
811.18	2854.2	
811.35	4476.9	
811.53	3655.6	
811.7	3076	
811.87	2919	
812.05	4166.9	
812.22	3986.7	
812.39	2624.8	
812.57	2531.3	
812.74	4139.6	
812.92	4950.6	
813.09	2795.5	
813.26	2893.8	
813.44	4806.6	
813.61	3917.8	
813.78	2417.3	
813.96	2990	
814.13	4149.2	
814.3	3949.8	
814.48	3194.8	
814.65	2748.4	
814.82	4814.1	
815	3836.5	
815.17	2825.5	
815.34	3312.9	
815.52	4022.9	
815.69	3953.9	
815.87	2712.2	
816.04	2752.5	
816.21	3941	
816.38	3759.4	
816.56	2730.6	
816.73	2559.3	
816.9	4909.7	
817.08	4389.5	
817.25	2648.7	
817.42	3106.1	
817.6	3756.7	
817.77	4046.1	
817.94	2881.5	
818.12	2532	
818.29	3915	
818.46	5226.4	
818.64	2697.9	
818.81	2490.3	
818.98	3938.2	
819.16	5051.7	
819.33	2946.3	
819.5	2823.5	
819.67	4216.8	
819.85	4612.7	
820.02	2818	
820.19	2852.1	
820.37	4181.3	
820.54	3993.5	
820.71	2804.4	
820.88	3388	
821.06	4170.3	
821.23	3934.8	
821.4	2871.3	
821.58	2865.8	
821.75	4401.1	
821.92	4165.6	
822.09	2424.8	
822.27	2478.7	
822.44	4048.2	
822.61	3970.3	
822.79	2421.4	
822.96	4062.5	
823.13	4173.1	
823.3	3819.5	
823.48	2669.2	
823.65	2492.4	
823.82	4500.1	
823.99	3815.4	
824.17	3239.9	
824.34	2554.5	
824.51	4956.8	
824.68	4066.6	
824.86	2628.9	
825.03	2771.6	
825.2	4022.9	
825.37	4597.7	
825.55	2605	
825.72	2770.2	
825.89	4875.5	
826.06	4592.9	
826.24	2716.3	
826.41	2770.9	
826.58	4699.4	
826.75	4096.6	
826.92	2349.7	
827.1	2476.7	
827.27	5945.9	
827.44	4810	
827.61	2608.4	
827.79	3044	
827.96	3980.6	
828.13	3933.5	
828.3	2770.9	
828.47	2405.7	
828.65	4339	
828.82	4259.1	
828.99	3245.3	
829.16	2878.8	
829.34	4448.9	
829.51	4437.3	
829.68	2789.3	
829.85	2768.2	
830.02	4825.7	
830.2	4468.7	
830.37	2312.8	
830.54	3098.6	
830.71	4899.4	
830.88	4121.2	
831.05	2281.4	
831.23	2542.9	
831.4	4869.4	
831.57	5068	
831.74	2605.7	
831.91	2338.8	
832.09	4416.8	
832.26	4512.4	
832.43	2585.2	
832.6	2920.4	
832.77	4257	
832.94	4692.6	
833.12	2271.2	
833.29	2622.8	
833.46	4315.8	
833.63	5216.2	
833.8	2798.2	
833.97	2555.2	
834.15	4544.4	
834.32	4389.5	
834.49	2721.8	
834.66	2822.8	
834.83	4500.8	
835	3949.8	
835.17	2604.3	
835.35	2605.7	
835.52	4425	
835.69	4339.6	
835.86	2661.7	
836.03	2213.2	
836.2	4556	
836.37	4248.9	
836.55	2590.7	
836.72	2475.3	
836.89	4257.7	
837.06	4541	
837.23	2739.5	
837.4	2827.6	
837.57	4975.2	
837.75	5199.8	
837.92	2462.3	
838.09	2550.4	
838.26	4213.4	
838.43	4556.7	
838.6	2748.4	
838.77	2535.4	
838.94	4971.8	
839.11	4950.6	
839.29	2702.6	
839.46	2194.7	
839.63	4535.6	
839.8	4250.2	
839.97	2547	
840.14	2598.9	
840.31	4422.2	
840.48	4468.7	
840.65	2269.1	
840.82	2547	
841	4455	
841.17	4323.3	
841.34	2403.6	
841.51	2480.8	
841.68	4454.3	
841.85	4283.7	
842.02	2453.5	
842.19	2169.5	
842.36	4397	
842.53	4337.6	
842.7	2458.2	
842.87	2755.2	
843.05	5209.3	
843.22	4292.5	
843.39	2396.8	
843.56	2503.3	
843.73	4209.3	
843.9	4536.9	
844.07	3514.3	
844.24	3016	
844.41	5645.6	
844.58	4033.8	
844.75	2391.3	
844.92	2504	
845.09	4407.2	
845.26	4376.5	
845.43	2443.2	
845.6	2527.9	
845.77	4515.8	
845.94	4300.7	
846.12	2590.7	
846.29	2701.3	
846.46	4595.6	
846.63	4375.8	
846.8	2436.4	
846.97	2774.3	
847.14	4697.4	
847.31	4422.9	
847.48	2626.9	
847.65	2890.4	
847.82	4457.7	
847.99	4490.5	
848.16	3079.5	
848.33	2849.4	
848.5	4164.9	
848.67	4693.9	
848.84	2342.9	
849.01	2461.7	
849.18	4151.9	
849.35	3979.9	
849.52	2848.7	
849.69	2353.1	
849.86	4649.6	
850.03	4542.4	
850.2	2428.9	
850.37	2813.9	
850.54	4573.1	
850.71	4222.9	
850.88	2754.5	
851.05	2388.6	
851.22	4321.2	
851.39	4690.5	
851.56	2254.8	
851.73	2693.8	
851.9	4025.6	
852.07	4594.3	
852.24	2582.5	
852.41	2371.5	
852.58	4433.2	
852.75	4050.9	
852.92	2678.7	
853.09	2382.5	
853.26	4059.8	
853.43	4640	
853.6	2390.7	
853.77	2164	
853.94	4762.9	
854.11	3979.2	
854.28	3268.6	
854.44	2544.9	
854.61	4963.6	
854.78	4567	
854.95	2408.4	
855.12	2837.8	
855.29	3808.5	
855.46	4747.2	
855.63	2384.5	
855.8	3110.2	
855.97	4148.5	
856.14	4640.7	
856.31	3230.3	
856.48	2625.5	
856.65	4222.2	
856.82	3934.8	
856.99	2337.4	
857.16	2544.9	
857.33	5122.7	
857.49	4214	
857.66	2555.9	
857.83	2617.3	
858	4304.8	
858.17	4414.7	
858.34	2269.1	
858.51	2440.5	
858.68	4738.3	
858.85	4757.4	
859.02	2691	
859.19	2799.6	
859.36	4046.1	
859.52	3956.7	
859.69	2462.3	
859.86	2740.9	
860.03	4009.9	
860.2	4737	
860.37	2289.6	
860.54	2482.8	
860.71	4530.1	
860.88	4773.8	
861.05	2564.1	
861.21	2961.4	
861.38	4676.9	
861.55	3844	
861.72	2248.7	
861.89	2605	
862.06	4580.6	
862.23	4751.3	
862.4	2330.6	
862.56	2403.6	
862.73	4479.6	
862.9	4268	
863.07	2744.3	
863.24	2245.3	
863.41	3964.2	
863.58	4041.3	
863.75	2414.6	
863.91	2719	
864.08	4635.9	
864.25	4505.5	
864.42	2830.3	
864.59	3183.2	
864.76	4829.1	
864.93	4006.5	
865.09	2316.3	
865.26	2535.4	
865.43	4674.1	
865.6	4892.6	
865.77	2147.6	
865.94	2379.1	
866.1	4648.9	
866.27	4380.6	
866.44	3425.6	
866.61	2241.2	
866.78	4244.8	
866.95	4483.7	
867.11	2353.1	
867.28	2230.9	
867.45	4674.1	
867.62	3939.6	
867.79	2616.6	
867.96	2374.3	
868.12	3938.9	
868.29	4520.5	
868.46	2425.5	
868.63	2999.6	
868.8	4590.2	
868.97	4486.4	
869.13	2458.2	
869.3	2471.2	
869.47	4422.9	
869.64	4550.6	
869.81	2412.5	
869.97	2400.2	
870.14	4346.5	
870.31	4724	
870.48	2330.6	
870.65	2914.3	
870.81	4269.3	
870.98	4217.5	
871.15	2635.1	
871.32	2475.3	
871.48	4461.8	
871.65	4797	
871.82	2379.7	
871.99	2590.7	
872.16	4955.4	
872.32	4641.4	
872.49	2470.5	
872.66	2434.4	
872.83	4532.2	
872.99	4036.5	
873.16	2680.8	
873.33	2377.7	
873.5	4296	
873.67	4366.3	
873.83	2501.3	
874	3079.5	
874.17	4401.8	
874.34	4883	
874.5	2931.3	
874.67	2799.6	
874.84	4646.8	
875.01	3851.5	
875.17	3136.8	
875.34	2382.5	
875.51	4341.7	
875.68	5064.6	
875.84	2767.5	
876.01	3206.4	
876.18	4487.1	
876.34	4456.4	
876.51	2373.6	
876.68	2344.2	
876.85	4126	
877.01	4764.3	
877.18	3239.2	
877.35	2365.4	
877.52	4445.5	
877.68	3951.2	
877.85	2379.1	
878.02	2325.8	
878.18	4030.4	
878.35	4136.9	
878.52	2033.6	
878.69	2750.4	
878.85	4712.4	
879.02	4499.4	
879.19	3220.8	
879.35	2509.4	
879.52	4511	
879.69	4547.9	
879.86	2186.5	
880.02	2561.3	
880.19	4277.5	
880.36	4984.8	
880.52	2654.2	
880.69	2781.8	
880.86	4500.8	
881.02	4519.2	
881.19	2614.6	
881.36	2549	
881.52	4489.1	
881.69	4072	
881.86	2593.4	
882.02	2544.9	
882.19	4657.1	
882.36	5138.4	
882.52	2461	
882.69	3124.5	
882.86	4348.5	
883.02	4367.6	
883.19	2738.1	
883.36	2703.3	
883.52	4549.9	
883.69	4944.5	
883.86	2397.5	
884.02	2226.8	
884.19	4513	
884.36	4379.9	
884.52	2656.2	
884.69	2507.4	
884.86	4173.1	
885.02	4807.9	
885.19	2548.4	
885.36	2625.5	
885.52	4183.3	
885.69	4406.5	
885.86	3234.4	
886.02	2893.8	
886.19	4564.9	
886.35	4138.3	
886.52	2594.8	
886.69	3123.8	
886.85	3974.4	
887.02	4674.1	
887.19	4674.1	
887.35	4674.1	
887.52	4674.1	
887.68	4674.1	
887.85	4674.1	
888.02	4674.1	
888.18	4674.1	
888.35	4674.1	
888.51	4674.1	
888.68	4674.1	
888.85	4674.1	
889.01	4674.1	
889.18	4674.1	
889.35	4674.1	
889.51	4674.1	
889.68	4674.1	
889.84	4674.1	
890.01	4674.1	
890.17	4674.1	
890.34	4674.1	
890.51	4674.1	
890.67	4674.1	
890.84	4674.1	
891	4674.1	
891.17	4674.1	
891.34	4674.1	
891.5	4674.1	
891.67	4674.1	
891.83	4674.1	
892	4674.1	
892.16	4674.1	
892.33	4674.1	
892.5	4674.1	
892.66	4674.1	
892.83	4674.1	
892.99	4674.1	
893.16	4674.1	
893.32	4674.1	
893.49	4674.1	
893.65	4674.1	
893.82	4674.1	
893.99	4674.1	
894.15	4674.1	
894.32	4674.1	
894.48	4674.1	
894.65	4674.1	
894.81	4674.1	
894.98	4674.1	
895.14	4674.1	
895.31	4674.1	
895.47	4674.1	
895.64	4674.1	
895.81	4674.1	
895.97	4674.1	
896.14	4674.1	
896.3	4674.1	
896.47	4674.1	
896.63	4674.1	
896.8	4674.1	
896.96	4674.1	
897.13	4674.1	
897.29	4674.1	
897.46	4674.1	
897.62	4674.1	
897.79	4674.1	
897.95	4674.1	
898.12	4674.1	
898.28	4674.1	
898.45	4674.1	
898.61	4674.1	
898.78	4674.1	
898.94	4674.1	
899.11	4674.1	
899.27	4674.1	
899.44	4674.1	
899.6	4674.1	
899.77	4674.1	
899.93	4674.1	
900.1	4674.1	
900.26	4674.1	
900.43	4674.1	
900.59	4674.1	
900.76	4674.1	
900.92	4674.1	
901.09	4674.1	
901.25	4674.1	
901.42	4674.1	
901.58	4674.1	
901.75	4674.1	
901.91	4674.1	
902.07	4674.1	
902.24	4674.1	
902.4	4674.1	
902.57	4674.1	
902.73	4674.1	
902.9	4674.1	
903.06	4674.1	
903.23	4674.1	
903.39	4674.1	
903.56	4674.1	
903.72	4674.1	
903.88	4674.1	
904.05	4674.1	
904.21	4674.1	
904.38	4674.1	
904.54	4674.1	
904.71	4674.1	
904.87	4674.1	
905.03	4674.1	
905.2	4674.1	
905.36	4674.1	
905.53	4674.1	
905.69	4674.1	
905.86	4674.1	
906.02	4674.1	
906.18	4674.1	
906.35	4674.1	
906.51	4674.1	
906.68	4674.1	
906.84	4674.1	
907.01	4674.1	
907.17	4674.1	
907.33	4674.1	
907.5	4674.1	
907.66	4674.1	
907.83	4674.1	
907.99	4674.1	
908.15	4674.1	
908.32	4674.1	
908.48	4674.1	
908.65	4674.1	
908.81	4674.1	
908.97	4674.1	
909.14	4674.1	
909.3	4674.1	
909.47	4674.1	
909.63	4674.1	
909.79	4674.1	
909.96	4674.1	
910.12	4674.1	
910.28	4674.1	
910.45	4674.1	
910.61	4674.1	
910.78	4674.1	
910.94	4674.1	
911.1	4674.1	
911.27	4674.1	
911.43	4674.1	
911.59	4674.1	
911.76	4674.1	
911.92	4674.1	
912.08	4674.1	
912.25	4674.1	
912.41	4674.1	
912.57	4674.1	
912.74	4674.1	
912.9	4674.1	
913.07	4674.1	
913.23	4674.1	
913.39	4674.1	
913.56	4674.1	
913.72	4674.1	
913.88	4674.1	
914.05	4674.1	
914.21	4674.1	
914.37	4674.1	
914.54	4674.1	
914.7	4674.1	
914.86	4674.1	
915.03	4674.1	
915.19	4674.1	
