Wavelength	Intensities	
nm	a.u.	
179.22	1933.3	
179.44	1923.7	
179.65	1942.8	
179.86	1904.6	
180.08	1942.8	
180.29	5174.5	
180.51	3564.1	
180.72	5722.7	
180.94	6703.7	
181.15	3302	
181.37	3259.7	
181.58	5561.6	
181.79	5902.2	
182.01	3406.5	
182.22	3681.6	
182.44	5898.1	
182.65	4841.4	
182.87	4647.5	
183.08	4095.3	
183.29	6182.8	
183.51	5074.2	
183.72	3770.3	
183.94	5533.6	
184.15	5476.3	
184.37	5496.7	
184.58	3272.7	
184.79	4550.6	
185.01	5068	
185.22	5924.8	
185.44	4831.2	
185.65	4024.3	
185.86	5345.9	
186.08	4986.8	
186.29	3205.1	
186.51	3439.9	
186.72	5107.6	
186.94	6021.7	
187.15	4018.8	
187.36	4130.1	
187.58	7931.1	
187.79	5603.2	
188.01	4330.8	
188.22	6817	
188.43	6791.7	
188.65	5843.5	
188.86	3445.4	
189.08	4170.3	
189.29	5323.4	
189.5	5306.3	
189.72	3803.1	
189.93	3924.6	
190.15	6074.3	
190.36	7297.6	
190.57	4184	
190.79	4075.5	
191	6158.2	
191.22	6124.1	
191.43	4173.1	
191.64	3434.4	
191.86	6324.1	
192.07	6075	
192.29	3605.1	
192.5	3825.6	
192.71	6121.4	
192.93	5253	
193.14	3781.9	
193.35	3866.6	
193.57	5202.5	
193.78	6062	
194	3104.7	
194.21	3777.1	
194.42	5030.5	
194.64	5560.2	
194.85	4128.7	
195.07	4881.7	
195.28	5592.3	
195.49	4785.4	
195.71	5064.6	
195.92	3562.8	
196.13	5698.8	
196.35	5812.1	
196.56	5520	
196.78	4143.7	
196.99	7188.4	
197.2	6714.6	
197.42	4729.4	
197.63	4214	
197.84	4913.8	
198.06	5685.8	
198.27	3824.2	
198.48	5169.1	
198.7	5318.6	
198.91	5371.1	
199.13	4162.2	
199.34	4156	
199.55	5902.2	
199.77	4741	
199.98	3648.8	
200.19	4245.4	
200.41	5317.9	
200.62	5093.3	
200.83	4361.5	
201.05	4688.5	
201.26	5417.6	
201.47	5167.7	
201.69	3730.7	
201.9	3534.1	
202.11	5479.7	
202.33	6511.9	
202.54	3911.6	
202.76	4459.8	
202.97	5651	
203.18	5597.8	
203.4	4382	
203.61	4276.2	
203.82	5547.9	
204.04	5173.9	
204.25	4212.7	
204.46	4098	
204.68	5513.8	
204.89	5785.5	
205.1	4020.2	
205.32	3554.6	
205.53	5967.1	
205.74	6125.5	
205.96	3001	
206.17	4297.3	
206.38	5912.5	
206.6	6062	
206.81	4803.2	
207.02	3844	
207.24	5801.2	
207.45	6188.3	
207.66	3921.9	
207.88	3385.3	
208.09	5732.9	
208.3	5570.5	
208.52	3643.3	
208.73	4042	
208.94	5535.7	
209.15	6272.9	
209.37	4027	
209.58	4220.2	
209.79	6044.9	
210.01	5264	
210.22	3190.7	
210.43	3302.7	
210.65	5528.2	
210.86	5958.9	
211.07	4022.9	
211.29	3637.9	
211.5	5891.3	
211.71	5433.3	
211.93	3632.4	
212.14	3644.7	
212.35	5458.5	
212.56	5706.3	
212.78	4228.4	
212.99	3485.6	
213.2	6477	
213.42	5313.1	
213.63	3773	
213.84	4013.3	
214.06	4952	
214.27	4990.2	
214.48	3924.6	
214.69	4298	
214.91	6236.7	
215.12	6310.5	
215.33	4337.6	
215.55	4732.2	
215.76	6827.2	
215.97	5903.6	
216.18	4067.9	
216.4	4015.4	
216.61	5213.4	
216.82	6044.9	
217.04	3618.8	
217.25	3758	
217.46	6129.6	
217.67	5960.3	
217.89	3299.3	
218.1	3384.6	
218.31	5620.3	
218.53	5714.5	
218.74	3792.8	
218.95	3786	
219.16	5433.9	
219.38	6475	
219.59	3733.4	
219.8	4472.1	
220.01	7187	
220.23	5507.7	
220.44	4915.1	
220.65	3608.5	
220.87	5597.8	
221.08	6185.5	
221.29	3355.3	
221.5	4560.1	
221.72	7570.7	
221.93	5214.8	
222.14	4205.2	
222.35	4992.3	
222.57	5536.3	
222.78	5865.4	
222.99	3954.6	
223.2	4322.6	
223.42	5831.9	
223.63	6025.1	
223.84	3041.9	
224.05	2992.8	
224.27	7129.7	
224.48	6464.8	
224.69	4995	
224.9	4222.9	
225.12	5730.9	
225.33	5496.7	
225.54	3309.5	
225.75	3721.8	
225.97	5049.6	
226.18	5322	
226.39	4020.2	
226.6	3795.6	
226.82	5264.6	
227.03	5151.3	
227.24	4258.4	
227.45	3436.5	
227.67	5913.9	
227.88	6483.9	
228.09	4758.8	
228.3	4717.2	
228.52	5939.8	
228.73	5489.2	
228.94	3875.4	
229.15	3506.1	
229.36	5410.1	
229.58	5343.8	
229.79	3959.4	
230	4530.8	
230.21	6556.2	
230.43	5597.8	
230.64	4141.7	
230.85	4302.1	
231.06	5927.5	
231.28	5958.2	
231.49	3478.1	
231.7	4039.3	
231.91	5907.7	
232.12	5538.4	
232.34	3542.3	
232.55	4012.7	
232.76	6148.7	
232.97	5717.2	
233.18	3655.6	
233.4	4129.4	
233.61	5754.1	
233.82	5257.1	
234.03	3824.2	
234.25	3819.5	
234.46	7711.3	
234.67	5588.2	
234.88	4261.8	
235.09	3730.7	
235.31	5888.6	
235.52	5408.7	
235.73	4097.3	
235.94	3505.4	
236.15	5240.1	
236.37	6735.1	
236.58	3697.9	
236.79	4016.1	
237	5907.7	
237.21	5009.3	
237.43	4293.9	
237.64	3375.1	
237.85	10163	
238.06	5086.5	
238.27	4355.3	
238.48	3530	
238.7	5885.2	
238.91	5356.8	
239.12	3975.8	
239.33	4001	
239.54	5104.9	
239.76	5429.8	
239.97	3936.2	
240.18	3961.5	
240.39	6987	
240.6	5842.2	
240.82	4123.9	
241.03	3364.1	
241.24	5470.1	
241.45	6443.6	
241.66	3703.4	
241.87	4322.6	
242.09	6273.6	
242.3	6642.2	
242.51	4324.6	
242.72	3981.9	
242.93	6021.7	
243.14	5495.4	
243.36	4629.1	
243.57	5061.2	
243.78	6434	
243.99	5899.5	
244.2	4046.8	
244.41	3672.7	
244.63	5047.6	
244.84	5807.4	
245.05	4270	
245.26	4003.1	
245.47	5847	
245.68	6101.6	
245.9	5335	
246.11	4212	
246.32	5356.1	
246.53	5726.1	
246.74	6585.6	
246.95	3341.6	
247.16	5000.5	
247.38	5514.5	
247.59	3318.4	
247.8	4003.1	
248.01	5287.9	
248.22	5492.7	
248.43	3638.6	
248.64	3951.2	
248.86	4863.9	
249.07	5311.7	
249.28	3505.4	
249.49	4083.6	
249.7	6111.8	
249.91	6208.1	
250.12	3321.1	
250.34	3387.3	
250.55	5648.3	
250.76	5537.7	
250.97	4235.2	
251.18	4220.2	
251.39	6280.4	
251.6	5696.1	
251.81	4264.6	
252.03	4252.9	
252.24	5264	
252.45	6136.4	
252.66	3533.4	
252.87	4472.1	
253.08	5542.5	
253.29	7314.7	
253.5	3477.5	
253.72	4946.5	
253.93	5348.6	
254.14	6605.4	
254.35	3777.1	
254.56	3930.1	
254.77	5766.4	
254.98	5129.5	
255.19	3717.7	
255.41	4911	
255.62	5580	
255.83	6285.2	
256.04	4270.7	
256.25	4255.7	
256.46	6734.4	
256.67	5175.9	
256.88	4123.9	
257.09	4696.7	
257.31	5184.1	
257.52	5214.8	
257.73	5184.8	
257.94	3815.4	
258.15	5418.9	
258.36	5493.3	
258.57	4818.2	
258.78	3078.1	
258.99	6060.6	
259.2	5359.5	
259.41	3908.2	
259.63	3984.7	
259.84	6436.8	
260.05	6932.4	
260.26	5107	
260.47	3701.4	
260.68	6167.8	
260.89	5442.1	
261.1	4673.5	
261.31	3613.3	
261.52	6122.7	
261.73	6498.9	
261.95	4976.6	
262.16	4354	
262.37	6281.8	
262.58	6373.3	
262.79	4971.1	
263	3937.6	
263.21	5532.9	
263.42	5031.2	
263.63	3942.3	
263.84	3917.8	
264.05	6146	
264.26	6516	
264.47	4830.5	
264.69	4311.7	
264.9	6236.1	
265.11	5693.4	
265.32	3706.8	
265.53	3800.3	
265.74	5693.4	
265.95	4915.1	
266.16	4111	
266.37	4590.9	
266.58	5668.8	
266.79	5354.1	
267	3779.2	
267.21	3568.9	
267.42	5135.6	
267.63	5559.6	
267.84	3959.4	
268.06	3458.3	
268.27	6014.2	
268.48	6320	
268.69	3898.6	
268.9	4656.4	
269.11	6211.5	
269.32	5001.1	
269.53	4036.5	
269.74	3735.5	
269.95	5926.8	
270.16	4864.6	
270.37	4008.6	
270.58	4681.7	
270.79	5384.1	
271	6061.3	
271.21	4330.1	
271.42	4105.5	
271.63	5630.5	
271.84	5160.2	
272.05	3175	
272.26	3609.9	
272.47	5528.8	
272.68	5779.4	
272.89	3794.2	
273.11	4513	
273.32	5401.9	
273.53	6586.3	
273.74	4365.6	
273.95	4240.7	
274.16	6303	
274.37	5643.5	
274.58	4397.7	
274.79	3515.7	
275	5700.2	
275.21	6287.3	
275.42	5358.2	
275.63	4597	
275.84	5797.8	
276.05	7350.2	
276.26	4227.7	
276.47	3944.4	
276.68	5346.6	
276.89	6564.4	
277.1	4560.1	
277.31	3554.6	
277.52	5769.1	
277.73	5974.6	
277.94	3439.9	
278.15	3902.7	
278.36	5719.3	
278.57	5186.1	
278.78	3870	
278.99	4291.2	
279.2	5154.1	
279.41	5094.7	
279.62	5043.5	
279.83	3591.5	
280.04	6795.2	
280.25	5027.1	
280.46	5057.1	
280.67	4033.8	
280.88	5102.9	
281.09	6236.7	
281.3	4248.2	
281.51	5367.7	
281.72	6072.2	
281.93	6074.3	
282.14	3734.8	
282.35	4027	
282.56	6044.9	
282.77	6010.1	
282.98	3835.8	
283.19	4760.2	
283.4	7456.7	
283.61	5471.5	
283.82	3539.6	
284.03	5014.1	
284.24	5642.8	
284.45	6203.3	
284.66	4975.2	
284.87	4835.3	
285.08	6148.7	
285.29	6283.9	
285.5	3411.9	
285.71	3923.9	
285.92	6206.7	
286.12	6870.9	
286.33	4932.2	
286.54	3857.7	
286.75	6029.9	
286.96	5385.5	
287.17	3597.6	
287.38	4928.1	
287.59	5146.5	
287.8	5058.5	
288.01	4044.1	
288.22	4534.9	
288.43	6084.5	
288.64	5055.8	
288.85	4685.8	
289.06	4464.6	
289.27	5963	
289.48	6520	
289.69	5023	
289.9	4511.7	
290.11	6253.8	
290.32	5270.1	
290.53	4748.6	
290.74	4360.1	
290.94	5952.1	
291.15	6159.6	
291.36	3840.6	
291.57	4477.5	
291.78	5300.1	
291.99	4898.7	
292.2	3645.4	
292.41	4356.7	
292.62	6130.3	
292.83	5859.9	
293.04	5479.7	
293.25	3602.4	
293.46	5335.6	
293.67	6153.5	
293.88	3791.5	
294.09	3635.1	
294.29	5078.3	
294.5	5681.7	
294.71	4055	
294.92	3866.6	
295.13	5332.9	
295.34	6643.6	
295.55	3400.3	
295.76	3505.4	
295.97	5966.4	
296.18	6761.7	
296.39	3582.6	
296.6	3790.8	
296.81	5614.8	
297.01	5993	
297.22	3958.7	
297.43	3780.6	
297.64	5158.8	
297.85	5186.8	
298.06	3115	
298.27	3414.6	
298.48	5599.8	
298.69	5247.6	
298.9	4065.9	
299.11	3695.2	
299.31	5073.5	
299.52	5085.8	
299.73	4414.1	
299.94	4282.3	
300.15	5555.5	
300.36	5137.7	
300.57	4321.2	
300.78	4334.2	
300.99	5454.4	
301.2	5681.1	
301.4	3698.6	
301.61	4121.2	
301.82	5890.6	
302.03	6023.1	
302.24	4601.8	
302.45	3611.3	
302.66	5838.1	
302.87	6324.1	
303.08	3770.3	
303.29	5223.7	
303.49	5254.4	
303.7	5659.9	
303.91	3349.8	
304.12	4928.1	
304.33	5026.4	
304.54	5670.1	
304.75	3753.9	
304.96	3601.7	
305.16	5875.6	
305.37	6614.9	
305.58	3267.9	
305.79	3405.8	
306	5903.6	
306.21	4943.1	
306.42	3727.3	
306.63	5840.8	
306.83	5435.3	
307.04	6175.3	
307.25	4195.6	
307.46	4108.2	
307.67	4765.6	
307.88	6032.6	
308.09	3687.7	
308.29	3880.2	
308.5	5620.3	
308.71	6222.4	
308.92	4000.4	
309.13	3625.6	
309.34	5393.7	
309.55	5456.5	
309.75	4721.9	
309.96	4308.9	
310.17	6019	
310.38	5305.6	
310.59	4517.8	
310.8	3519.1	
311.01	5339.7	
311.21	5416.9	
311.42	3631.7	
311.63	3683.6	
311.84	5273.5	
312.05	5663.3	
312.26	4233.2	
312.46	4631.1	
312.67	5357.5	
312.88	5072.1	
313.09	3619.4	
313.3	3523.2	
313.51	6371.9	
313.71	6806.1	
313.92	3606.5	
314.13	3838.6	
314.34	5759.6	
314.55	5468.8	
314.76	4775.9	
314.96	4065.9	
315.17	5647.6	
315.38	5974.6	
315.59	3637.2	
315.8	3467.2	
316.01	6507.1	
316.21	6456.6	
316.42	3491.1	
316.63	3986	
316.84	5388.9	
317.05	6235.4	
317.26	4273.4	
317.46	3897.3	
317.67	5563	
317.88	5971.9	
318.09	4652.3	
318.3	3379.1	
318.5	5236	
318.71	5928.9	
318.92	6007.4	
319.13	4265.2	
319.34	6067.4	
319.54	6222.4	
319.75	3323.9	
319.96	3238.5	
320.17	6004.6	
320.38	6163.7	
320.58	3316.3	
320.79	3977.8	
321	6143.2	
321.21	6211.5	
321.42	4095.3	
321.62	3333.4	
321.83	5144.5	
322.04	5599.1	
322.25	3898	
322.46	3618.8	
322.66	5709.7	
322.87	5811.5	
323.08	4528.1	
323.29	3607.2	
323.5	6683.9	
323.7	5088.5	
323.91	5076.2	
324.12	4506.2	
324.33	5664.7	
324.53	5894.1	
324.74	4320.5	
324.95	4541	
325.16	4865.3	
325.37	5371.1	
325.57	3626.3	
325.78	3722.5	
325.99	5664.7	
326.2	5010	
326.4	5303.6	
326.61	3379.8	
326.82	5466	
327.03	5654.4	
327.24	5226.4	
327.44	5001.1	
327.65	5767.8	
327.86	4750.6	
328.07	4283.7	
328.27	3516.4	
328.48	6295.5	
328.69	5099.4	
328.9	5301.5	
329.1	3937.6	
329.31	5450.3	
329.52	6402	
329.73	3687	
329.93	4186	
330.14	5509	
330.35	5788.2	
330.56	6064	
330.76	4503.5	
330.97	5341.1	
331.18	5760.9	
331.39	4064.5	
331.59	3352.5	
331.8	6164.4	
332.01	6279.8	
332.22	3764.8	
332.42	4340.3	
332.63	5694.7	
332.84	5274.2	
333.05	4109.6	
333.25	3691.8	
333.46	5353.4	
333.67	5610.8	
333.88	3801	
334.08	4224.3	
334.29	7459.4	
334.5	6307.7	
334.7	3573	
334.91	5230.5	
335.12	5113.1	
335.33	5991	
335.53	4089.1	
335.74	6032.6	
335.95	5280.3	
336.16	5184.1	
336.36	4091.8	
336.57	4646.2	
336.78	5043.5	
336.98	6151.4	
337.19	5073.5	
337.4	3960.1	
337.61	6789.7	
337.81	5079	
338.02	3734.1	
338.23	4811.4	
338.43	6436.8	
338.64	5222.3	
338.85	3652.2	
339.05	4878.3	
339.26	6388.3	
339.47	4942.4	
339.68	3680.9	
339.88	5492.7	
340.09	5789.6	
340.3	6049.7	
340.5	4337.6	
340.71	3323.9	
340.92	5011.4	
341.13	6324.8	
341.33	3560.1	
341.54	4339	
341.75	5748.6	
341.95	5459.2	
342.16	4130.1	
342.37	4505.5	
342.57	5167.7	
342.78	5563.6	
342.99	4624.3	
343.19	3304.7	
343.4	6058.6	
343.61	5830.6	
343.81	3891.1	
344.02	3633.8	
344.23	5980.1	
344.43	6456.6	
344.64	4621.6	
344.85	4448.9	
345.06	5881.8	
345.26	6225.8	
345.47	4259.1	
345.68	5020.3	
345.88	4905.6	
346.09	6043.6	
346.3	4356.7	
346.5	3274.7	
346.71	5614.8	
346.92	5239.4	
347.12	3374.4	
347.33	4274.8	
347.54	6177.4	
347.74	6621.8	
347.95	4221.5	
348.16	3133.4	
348.36	5385.5	
348.57	5166.3	
348.78	4190.1	
348.98	4574.5	
349.19	5573.2	
349.39	5051	
349.6	3408.5	
349.81	3756.7	
350.01	5831.9	
350.22	5301.5	
350.43	4076.1	
350.63	4939	
350.84	5622.4	
351.05	5376.6	
351.25	3734.1	
351.46	3339.6	
351.67	6234	
351.87	5308.3	
352.08	3998.3	
352.29	4577.2	
352.49	6089.3	
352.7	5772.5	
352.9	3627	
353.11	4561.5	
353.32	6777.4	
353.52	5448.3	
353.73	3575.1	
353.94	4589.5	
354.14	5994.4	
354.35	5735	
354.55	3728.7	
354.76	4149.9	
354.97	5944.6	
355.17	5702.9	
355.38	3477.5	
355.59	4907.6	
355.79	5307	
356	5809.4	
356.2	4138.3	
356.41	3666.5	
356.62	5076.2	
356.82	5638.7	
357.03	4465.3	
357.24	4022.2	
357.44	5423	
357.65	5500.8	
357.85	5372.5	
358.06	4295.3	
358.27	5158.2	
358.47	5435.3	
358.68	3594.2	
358.88	4474.1	
359.09	6004.6	
359.3	6404	
359.5	5298.1	
359.71	4702.8	
359.91	7034.8	
360.12	6234	
360.33	4545.8	
360.53	5090.6	
360.74	5539.1	
360.94	5582.8	
361.15	4739	
361.36	4034.5	
361.56	6424.5	
361.77	5827.2	
361.97	5367	
362.18	4316.4	
362.38	6345.3	
362.59	5501.5	
362.8	3987.4	
363	3871.3	
363.21	5276.9	
363.41	6010.8	
363.62	4626.4	
363.83	5704.3	
364.03	6087.9	
364.24	7182.2	
364.44	5828.5	
364.65	5705	
364.85	5853.1	
365.06	5508.4	
365.27	4334.9	
365.47	4384.7	
365.68	6936.5	
365.88	5823.7	
366.09	4805.9	
366.29	4445.5	
366.5	6210.8	
366.71	6690	
366.91	5836	
367.12	4970.4	
367.32	7336.5	
367.53	6591.7	
367.73	4954	
367.94	5945.9	
368.14	6523.5	
368.35	7479.2	
368.56	4969.1	
368.76	4749.9	
368.97	6547.4	
369.17	8469.7	
369.38	4385.4	
369.58	4687.1	
369.79	5631.2	
369.99	7028.6	
370.2	5681.1	
370.4	4835.3	
370.61	6351.4	
370.82	7563.8	
371.02	4687.8	
371.23	4023.6	
371.43	5589.6	
371.64	7042.3	
371.84	4804.5	
372.05	6174.6	
372.25	8428.8	
372.46	6841.6	
372.66	4903.5	
372.87	4842.8	
373.07	6872.3	
373.28	8671.8	
373.48	6018.3	
373.69	5847	
373.9	6435.4	
374.1	6530.3	
374.31	6079.7	
374.51	5578.7	
374.72	7395.9	
374.92	6292	
375.13	6374.6	
375.33	5451	
375.54	7083.9	
375.74	6467.5	
375.95	5670.8	
376.15	7036.8	
376.36	7139.9	
376.56	6911.2	
376.77	5832.6	
376.97	6294.1	
377.18	8398.7	
377.38	7441	
377.59	6725.5	
377.79	5514.5	
378	7242.3	
378.2	7744.1	
378.41	5556.8	
378.61	5504.3	
378.82	7792.5	
379.02	6995.2	
379.23	5840.1	
379.43	6991.8	
379.64	7953.6	
379.84	7650.5	
380.05	5586.9	
380.25	5477.6	
380.46	7687.4	
380.66	7273.7	
380.87	6985.6	
381.07	7270.3	
381.28	8312	
381.48	7601.4	
381.69	5535	
381.89	5614.8	
382.1	6458.6	
382.3	7712	
382.51	6727.6	
382.71	7713.3	
382.91	7645.1	
383.12	8111.3	
383.32	5909.8	
383.53	6079.1	
383.73	7362.4	
383.94	7090.8	
384.14	5991.7	
384.35	5147.2	
384.55	7004.1	
384.76	7553.6	
384.96	5784.8	
385.17	6098.9	
385.37	7385	
385.58	6645.7	
385.78	6101.6	
385.98	4921.3	
386.19	6859.3	
386.39	7270.3	
386.6	5541.8	
386.8	5801.9	
387.01	7444.4	
387.21	7500.3	
387.42	6247	
387.62	6933.7	
387.83	6822.5	
388.03	7557	
388.23	6021	
388.44	6881.9	
388.64	6606.7	
388.85	6907.1	
389.05	6454.5	
389.26	7181.5	
389.46	8818.6	
389.67	8236.2	
389.87	6544.6	
390.07	6560.3	
390.28	7404.8	
390.48	6930.3	
390.69	5851	
390.89	6075.6	
391.1	7131.7	
391.3	8090.2	
391.5	7294.9	
391.71	8035.5	
391.91	7931.1	
392.12	8959.9	
392.32	7432.1	
392.53	6563.1	
392.73	7262.1	
392.93	7436.9	
393.14	6287.9	
393.34	6986.3	
393.55	7875.8	
393.75	7399.3	
393.95	6097.5	
394.16	6042.9	
394.36	7136.5	
394.57	7801.4	
394.77	5617.6	
394.98	6016.2	
395.18	7176.8	
395.38	7385	
395.59	7180.2	
395.79	6185.5	
396	7500.3	
396.2	8060.8	
396.4	7207.5	
396.61	7126.9	
396.81	8384.4	
397.02	7640.3	
397.22	7533.1	
397.42	7654.6	
397.63	8458.1	
397.83	7804.8	
398.04	6305.7	
398.24	7112.6	
398.44	8355.7	
398.65	7361.1	
398.85	6317.3	
399.05	6494.1	
399.26	7864.2	
399.46	9683.5	
399.67	6986.3	
399.87	6666.1	
400.07	8324.3	
400.28	8751.7	
400.48	6906.4	
400.69	8166.6	
400.89	9108	
401.09	9512.8	
401.3	6965.8	
401.5	8119.5	
401.7	10025	
401.91	10151	
402.11	7288	
402.32	7530.4	
402.52	9159.2	
402.72	8972.2	
402.93	7643	
403.13	6310.5	
403.33	9638.4	
403.54	8039.6	
403.74	6997.9	
403.94	7904.5	
404.15	8070.4	
404.35	9368.8	
404.56	6737.8	
404.76	8720.9	
404.96	8741.4	
405.17	8499.8	
405.37	7868.3	
405.57	7524.2	
405.78	9121.7	
405.98	8279.3	
406.18	7088.7	
406.39	8021.2	
406.59	8919.6	
406.79	8512.7	
407	6774	
407.2	6738.5	
407.4	8837	
407.61	9238.4	
407.81	7108.5	
408.01	9457.5	
408.22	8079.9	
408.42	10407	
408.62	8657.4	
408.83	8307.9	
409.03	9371.5	
409.23	9331.9	
409.44	8669.1	
409.64	9073.9	
409.84	10837	
410.05	10860	
410.25	9128.5	
410.45	8882	
410.66	10672	
410.86	13003	
411.06	9904.7	
411.27	9547.6	
411.47	13244	
411.67	10986	
411.88	9955.2	
412.08	10531	
412.28	11761	
412.49	12304	
412.69	9947	
412.89	10126	
413.09	12200	
413.3	12200	
413.5	10300	
413.7	9826.8	
413.91	11310	
414.11	12475	
414.31	10333	
414.52	10819	
414.72	12036	
414.92	12099	
415.12	10271	
415.33	10931	
415.53	12640	
415.73	12705	
415.94	11260	
416.14	10591	
416.34	11723	
416.55	11195	
416.75	11956	
416.95	11454	
417.15	12835	
417.36	13274	
417.56	12516	
417.76	11499	
417.97	13317	
418.17	13102	
418.37	10943	
418.57	11262	
418.78	12592	
418.98	12298	
419.18	11934	
419.38	11913	
419.59	12336	
419.79	11671	
419.99	10874	
420.2	11262	
420.4	12750	
420.6	12973	
420.8	10802	
421.01	10693	
421.21	12804	
421.41	12982	
421.61	11223	
421.82	10884	
422.02	12296	
422.22	13008	
422.42	11813	
422.63	11017	
422.83	12288	
423.03	13650	
423.23	11124	
423.44	10099	
423.64	12243	
423.84	11789	
424.04	10451	
424.25	10163	
424.45	12977	
424.65	12958	
424.85	9812.5	
425.06	10590	
425.26	12919	
425.46	11555	
425.66	10925	
425.87	10494	
426.07	12668	
426.27	12439	
426.47	10742	
426.67	9962	
426.88	12839	
427.08	12270	
427.28	11086	
427.48	9879.4	
427.69	11060	
427.89	11785	
428.09	10867	
428.29	9865.1	
428.5	12652	
428.7	12051	
428.9	9898.5	
429.1	10531	
429.3	12012	
429.51	12571	
429.71	10075	
429.91	11135	
430.11	12396	
430.31	12882	
430.52	10628	
430.72	11094	
430.92	13164	
431.12	12557	
431.32	10404	
431.53	10762	
431.73	11559	
431.93	13235	
432.13	10286	
432.33	10164	
432.54	11971	
432.74	12484	
432.94	10260	
433.14	11339	
433.34	12529	
433.55	12280	
433.75	11362	
433.95	13583	
434.15	12563	
434.35	12363	
434.56	10639	
434.76	10354	
434.96	12643	
435.16	13196	
435.36	10485	
435.56	12018	
435.77	12413	
435.97	12705	
436.17	12831	
436.37	12080	
436.57	12438	
436.78	12664	
436.98	13629	
437.18	12581	
437.38	13418	
437.58	12639	
437.78	12665	
437.99	11153	
438.19	12964	
438.39	13806	
438.59	10926	
438.79	10340	
438.99	13594	
439.2	12369	
439.4	10377	
439.6	10416	
439.8	12820	
440	14098	
440.2	11844	
440.4	12028	
440.61	13731	
440.81	14315	
441.01	11383	
441.21	12587	
441.41	14521	
441.61	13889	
441.81	13035	
442.02	13934	
442.22	14864	
442.42	14057	
442.62	11794	
442.82	11656	
443.02	14513	
443.22	13756	
443.43	12207	
443.63	11763	
443.83	13248	
444.03	13508	
444.23	13384	
444.43	12792	
444.63	14070	
444.83	15186	
445.04	12215	
445.24	13386	
445.44	14079	
445.64	14290	
445.84	12506	
446.04	12702	
446.24	13319	
446.44	14317	
446.65	11465	
446.85	12175	
447.05	13014	
447.25	14216	
447.45	11953	
447.65	11470	
447.85	13305	
448.05	12786	
448.25	12695	
448.46	12372	
448.66	13529	
448.86	13082	
449.06	11237	
449.26	12495	
449.46	14040	
449.66	12738	
449.86	12342	
450.06	12112	
450.26	13215	
450.47	13773	
450.67	12237	
450.87	12764	
451.07	13828	
451.27	13749	
451.47	11420	
451.67	12353	
451.87	13521	
452.07	14243	
452.27	12011	
452.47	12018	
452.67	13540	
452.88	14397	
453.08	11006	
453.28	13552	
453.48	15113	
453.68	13457	
453.88	11875	
454.08	12072	
454.28	14256	
454.48	13779	
454.68	12925	
454.88	13165	
455.08	14156	
455.28	14325	
455.48	11613	
455.68	12680	
455.89	15109	
456.09	14926	
456.29	12579	
456.49	12779	
456.69	15152	
456.89	14222	
457.09	13365	
457.29	13942	
457.49	14976	
457.69	15061	
457.89	13448	
458.09	12686	
458.29	14773	
458.49	15553	
458.69	14006	
458.89	13411	
459.09	16139	
459.29	16231	
459.49	13462	
459.69	14437	
459.9	15528	
460.1	15375	
460.3	13242	
460.5	13119	
460.7	15659	
460.9	15330	
461.1	12893	
461.3	14544	
461.5	16548	
461.7	15955	
461.9	13908	
462.1	14077	
462.3	15712	
462.5	16431	
462.7	14071	
462.9	14163	
463.1	17542	
463.3	17511	
463.5	14467	
463.7	15818	
463.9	16394	
464.1	16858	
464.3	15253	
464.5	15283	
464.7	17333	
464.9	17268	
465.1	16834	
465.3	15811	
465.5	17601	
465.7	17951	
465.9	16296	
466.1	15630	
466.3	17850	
466.5	17269	
466.7	17322	
466.9	15601	
467.1	17550	
467.3	18572	
467.5	17361	
467.7	16029	
467.9	18815	
468.1	19893	
468.3	16697	
468.5	17393	
468.7	17787	
468.9	17740	
469.1	16533	
469.3	17417	
469.5	20142	
469.7	17575	
469.9	16821	
470.1	16394	
470.3	17804	
470.5	18041	
470.7	17565	
470.9	16312	
471.1	17854	
471.3	17756	
471.5	16141	
471.69	18073	
471.89	17332	
472.09	16683	
472.29	16949	
472.49	16778	
472.69	17239	
472.89	17865	
473.09	15930	
473.29	15681	
473.49	17160	
473.69	16932	
473.89	16788	
474.09	15710	
474.29	18474	
474.49	18061	
474.69	16694	
474.89	15862	
475.09	17134	
475.29	17015	
475.49	15197	
475.69	15591	
475.88	18457	
476.08	17098	
476.28	15162	
476.48	15304	
476.68	17413	
476.88	17273	
477.08	15137	
477.28	15581	
477.48	16536	
477.68	17208	
477.88	15006	
478.08	15218	
478.28	17862	
478.48	16744	
478.67	15442	
478.87	14338	
479.07	17875	
479.27	16724	
479.47	15382	
479.67	15593	
479.87	17374	
480.07	17998	
480.27	14880	
480.47	16453	
480.67	16776	
480.87	17600	
481.06	14995	
481.26	15892	
481.46	16759	
481.66	16752	
481.86	15386	
482.06	16542	
482.26	16433	
482.46	17330	
482.66	15333	
482.86	15009	
483.05	16854	
483.25	16332	
483.45	18110	
483.65	15567	
483.85	16528	
484.05	16883	
484.25	15821	
484.45	16793	
484.65	17795	
484.84	18168	
485.04	15468	
485.24	15524	
485.44	18288	
485.64	16594	
485.84	15054	
486.04	16498	
486.24	16902	
486.44	17333	
486.63	15134	
486.83	16047	
487.03	17210	
487.23	17529	
487.43	15270	
487.63	17925	
487.83	17501	
488.02	18563	
488.22	16708	
488.42	17305	
488.62	18516	
488.82	17472	
489.02	16074	
489.22	16443	
489.41	18320	
489.61	18156	
489.81	15891	
490.01	15871	
490.21	18375	
490.41	19241	
490.61	15722	
490.8	16023	
491	17850	
491.2	16916	
491.4	16376	
491.6	15390	
491.8	17379	
491.99	17481	
492.19	15277	
492.39	15634	
492.59	18141	
492.79	18280	
492.99	16683	
493.18	16007	
493.38	18492	
493.58	19730	
493.78	17027	
493.98	16423	
494.18	18540	
494.37	18123	
494.57	17776	
494.77	17576	
494.97	19306	
495.17	19681	
495.37	17251	
495.56	17677	
495.76	20107	
495.96	19676	
496.16	18911	
496.36	17783	
496.55	20101	
496.75	19708	
496.95	18170	
497.15	18073	
497.35	19841	
497.54	20293	
497.74	17775	
497.94	19761	
498.14	20844	
498.34	20746	
498.53	17882	
498.73	18571	
498.93	19654	
499.13	20304	
499.33	18733	
499.52	18988	
499.72	20427	
499.92	20502	
500.12	18333	
500.32	18638	
500.51	20553	
500.71	20620	
500.91	19576	
501.11	18927	
501.31	20767	
501.5	20949	
501.7	19719	
501.9	18563	
502.1	20157	
502.29	20590	
502.49	19104	
502.69	19275	
502.89	20400	
503.09	20502	
503.28	17672	
503.48	17841	
503.68	19099	
503.88	19394	
504.07	18865	
504.27	17987	
504.47	19614	
504.67	19553	
504.86	18513	
505.06	18142	
505.26	18989	
505.46	20904	
505.65	17907	
505.85	17884	
506.05	18677	
506.25	19097	
506.44	16767	
506.64	17580	
506.84	18479	
507.04	19298	
507.23	16547	
507.43	17354	
507.63	20164	
507.83	18466	
508.02	17121	
508.22	16645	
508.42	20271	
508.62	17925	
508.81	16749	
509.01	17466	
509.21	17595	
509.4	17983	
509.6	16904	
509.8	16313	
510	17845	
510.19	19599	
510.39	16258	
510.59	16484	
510.79	18017	
510.98	19458	
511.18	16573	
511.38	16713	
511.57	18761	
511.77	18725	
511.97	17243	
512.17	15977	
512.36	18659	
512.56	18455	
512.76	16150	
512.95	15832	
513.15	18776	
513.35	17174	
513.55	17172	
513.74	16112	
513.94	18646	
514.14	17980	
514.33	17299	
514.53	17042	
514.73	18015	
514.92	18305	
515.12	16654	
515.32	16513	
515.51	18491	
515.71	18982	
515.91	18376	
516.11	16666	
516.3	20338	
516.5	17958	
516.7	17092	
516.89	17791	
517.09	18131	
517.29	18213	
517.48	17638	
517.68	16949	
517.88	17975	
518.07	18454	
518.27	17628	
518.47	16391	
518.66	19121	
518.86	17752	
519.06	16136	
519.25	16539	
519.45	18023	
519.65	19837	
519.84	17343	
520.04	18290	
520.24	20003	
520.43	18591	
520.63	16763	
520.83	16640	
521.02	17647	
521.22	18219	
521.42	16900	
521.61	17550	
521.81	17738	
522.01	17930	
522.2	16922	
522.4	16430	
522.6	18353	
522.79	17513	
522.99	16603	
523.18	16204	
523.38	18441	
523.58	18736	
523.77	18520	
523.97	16575	
524.17	20936	
524.36	20028	
524.56	18132	
524.76	17877	
524.95	19209	
525.15	18880	
525.34	17731	
525.54	17991	
525.74	19787	
525.93	18673	
526.13	19232	
526.33	18102	
526.52	20191	
526.72	19673	
526.91	19590	
527.11	18645	
527.31	20488	
527.5	20955	
527.7	18773	
527.89	17671	
528.09	19188	
528.29	20140	
528.48	19042	
528.68	18567	
528.87	20346	
529.07	20259	
529.27	18419	
529.46	18074	
529.66	20030	
529.85	20383	
530.05	17872	
530.25	18802	
530.44	21516	
530.64	19886	
530.83	18306	
531.03	18535	
531.23	20361	
531.42	20157	
531.62	19599	
531.81	18630	
532.01	20754	
532.21	21248	
532.4	18691	
532.6	19294	
532.79	21691	
532.99	21300	
533.18	19327	
533.38	20383	
533.58	20856	
533.77	21578	
533.97	19494	
534.16	20446	
534.36	21973	
534.55	21145	
534.75	20558	
534.95	19774	
535.14	22105	
535.34	20944	
535.53	19131	
535.73	21311	
535.92	22442	
536.12	20921	
536.31	19234	
536.51	20433	
536.71	21319	
536.9	20690	
537.1	19319	
537.29	19466	
537.49	21624	
537.68	20626	
537.88	19953	
538.07	19017	
538.27	21041	
538.46	22145	
538.66	19033	
538.86	19545	
539.05	21106	
539.25	21557	
539.44	19857	
539.64	19186	
539.83	20753	
540.03	21773	
540.22	19047	
540.42	19077	
540.61	20753	
540.81	21040	
541	19310	
541.2	20287	
541.39	20300	
541.59	20723	
541.78	19901	
541.98	18601	
542.18	19849	
542.37	19615	
542.57	18856	
542.76	19735	
542.96	19555	
543.15	20384	
543.35	18649	
543.54	17943	
543.74	20021	
543.93	19906	
544.13	18127	
544.32	19406	
544.52	19893	
544.71	19003	
544.91	17081	
545.1	18565	
545.3	19094	
545.49	19886	
545.69	17000	
545.88	17703	
546.08	20829	
546.27	20231	
546.47	18208	
546.66	17521	
546.86	19794	
547.05	20458	
547.24	17641	
547.44	17576	
547.63	18741	
547.83	19934	
548.02	17874	
548.22	18009	
548.41	18235	
548.61	19767	
548.8	17163	
549	17037	
549.19	18955	
549.39	19264	
549.58	16757	
549.78	17329	
549.97	19355	
550.17	18621	
550.36	18108	
550.55	19112	
550.75	18573	
550.94	19637	
551.14	16755	
551.33	17058	
551.53	17976	
551.72	19182	
551.92	17237	
552.11	17013	
552.31	18850	
552.5	18964	
552.69	18578	
552.89	16500	
553.08	18885	
553.28	18477	
553.47	16830	
553.67	17813	
553.86	19490	
554.06	17634	
554.25	15862	
554.44	16546	
554.64	20047	
554.83	19617	
555.03	16369	
555.22	16909	
555.42	18735	
555.61	18394	
555.8	16556	
556	16808	
556.19	17519	
556.39	18720	
556.58	16546	
556.78	16524	
556.97	18249	
557.16	18047	
557.36	17770	
557.55	16272	
557.75	17075	
557.94	19005	
558.13	16209	
558.33	15943	
558.52	18770	
558.72	17599	
558.91	15993	
559.1	16092	
559.3	17129	
559.49	16665	
559.69	15404	
559.88	16526	
560.07	18023	
560.27	18256	
560.46	16611	
560.66	16598	
560.85	17660	
561.04	16623	
561.24	15648	
561.43	15674	
561.63	16939	
561.82	17247	
562.01	17117	
562.21	16030	
562.4	17638	
562.59	18832	
562.79	15872	
562.98	15623	
563.18	17580	
563.37	19250	
563.56	16575	
563.76	15707	
563.95	17051	
564.14	17060	
564.34	16034	
564.53	15821	
564.73	17617	
564.92	18073	
565.11	16119	
565.31	15656	
565.5	18252	
565.69	17124	
565.89	15741	
566.08	16150	
566.27	18108	
566.47	18544	
566.66	16636	
566.85	15292	
567.05	17776	
567.24	17025	
567.44	15699	
567.63	17106	
567.82	17823	
568.02	17528	
568.21	15577	
568.4	15956	
568.6	17567	
568.79	17404	
568.98	15319	
569.18	15651	
569.37	17385	
569.56	19476	
569.76	15900	
569.95	16946	
570.14	17593	
570.34	17570	
570.53	15165	
570.72	15170	
570.91	18006	
571.11	16894	
571.3	15504	
571.49	16447	
571.69	17033	
571.88	16508	
572.07	16148	
572.27	16032	
572.46	16368	
572.65	17750	
572.85	15181	
573.04	15700	
573.23	17960	
573.43	17038	
573.62	15233	
573.81	15691	
574	17292	
574.2	17041	
574.39	15511	
574.58	15659	
574.78	18158	
574.97	17347	
575.16	16198	
575.36	16427	
575.55	17740	
575.74	17958	
575.93	15205	
576.13	16418	
576.32	17094	
576.51	17712	
576.71	15642	
576.9	17006	
577.09	18024	
577.28	17593	
577.48	16189	
577.67	15008	
577.86	17228	
578.05	17591	
578.25	15737	
578.44	15800	
578.63	17263	
578.83	18688	
579.02	15164	
579.21	16847	
579.4	17571	
579.6	17196	
579.79	15858	
579.98	18245	
580.17	17922	
580.37	18126	
580.56	15440	
580.75	16167	
580.94	18624	
581.14	18351	
581.33	16821	
581.52	15766	
581.71	18021	
581.91	18718	
582.1	15375	
582.29	16069	
582.48	17596	
582.68	17669	
582.87	16657	
583.06	16234	
583.25	17943	
583.45	17920	
583.64	17153	
583.83	18049	
584.02	17477	
584.21	18026	
584.41	16867	
584.6	16181	
584.79	17891	
584.98	18615	
585.18	15765	
585.37	15612	
585.56	17071	
585.75	18054	
585.94	15799	
586.14	16640	
586.33	18503	
586.52	17570	
586.71	16025	
586.91	15879	
587.1	16692	
587.29	17626	
587.48	15401	
587.67	15307	
587.87	17309	
588.06	17324	
588.25	16516	
588.44	15656	
588.63	16466	
588.83	16978	
589.02	14588	
589.21	14266	
589.4	15444	
589.59	15292	
589.78	12796	
589.98	12917	
590.17	14098	
590.36	14762	
590.55	11783	
590.74	12456	
590.94	15640	
591.13	14149	
591.32	12116	
591.51	11609	
591.7	14594	
591.89	14133	
592.09	11765	
592.28	12452	
592.47	13351	
592.66	15416	
592.85	11975	
593.05	12280	
593.24	14035	
593.43	14947	
593.62	12465	
593.81	12940	
594	14282	
594.19	14575	
594.39	12473	
594.58	12482	
594.77	14513	
594.96	15223	
595.15	12216	
595.34	12899	
595.54	14480	
595.73	13507	
595.92	11482	
596.11	12651	
596.3	15033	
596.49	13602	
596.68	12393	
596.88	12902	
597.07	14915	
597.26	13594	
597.45	12003	
597.64	13446	
597.83	13862	
598.02	14703	
598.22	12295	
598.41	12988	
598.6	14397	
598.79	13939	
598.98	12258	
599.17	13349	
599.36	14459	
599.55	15790	
599.74	14599	
599.94	14362	
600.13	15176	
600.32	13926	
600.51	12258	
600.7	12540	
600.89	15871	
601.08	15970	
601.27	12256	
601.47	13414	
601.66	15184	
601.85	15883	
602.04	13123	
602.23	13168	
602.42	14361	
602.61	15093	
602.8	12937	
602.99	12633	
603.18	14693	
603.37	15068	
603.57	13450	
603.76	14050	
603.95	15769	
604.14	15289	
604.33	12898	
604.52	13241	
604.71	14889	
604.9	14638	
605.09	13917	
605.28	13680	
605.47	15679	
605.66	15132	
605.86	13588	
606.05	13044	
606.24	15524	
606.43	13927	
606.62	13170	
606.81	13919	
607	15397	
607.19	14674	
607.38	12550	
607.57	12938	
607.76	14347	
607.95	13893	
608.14	13090	
608.33	13833	
608.52	14209	
608.72	15109	
608.91	12407	
609.1	12233	
609.29	14334	
609.48	13737	
609.67	13347	
609.86	12270	
610.05	13876	
610.24	14258	
610.43	12149	
610.62	11647	
610.81	15413	
611	15128	
611.19	12234	
611.38	12939	
611.57	14484	
611.76	15831	
611.95	11972	
612.14	11658	
612.33	14305	
612.52	13634	
612.71	12567	
612.9	11606	
613.09	13186	
613.28	15792	
613.47	12197	
613.66	13259	
613.85	14259	
614.04	13787	
614.24	12235	
614.43	11284	
614.62	14347	
614.81	14233	
615	12765	
615.19	12852	
615.38	13514	
615.57	13907	
615.76	12620	
615.95	13820	
616.14	14344	
616.33	13906	
616.52	12933	
616.71	13119	
616.9	14272	
617.09	14061	
617.28	12266	
617.47	13460	
617.66	13257	
617.85	13433	
618.04	13265	
618.22	12682	
618.41	13775	
618.6	14892	
618.79	12637	
618.98	12266	
619.17	15160	
619.36	13321	
619.55	12553	
619.74	12628	
619.93	14473	
620.12	13827	
620.31	13236	
620.5	13445	
620.69	15020	
620.88	15524	
621.07	14229	
621.26	13127	
621.45	14631	
621.64	14622	
621.83	13194	
622.02	12320	
622.21	14671	
622.4	14391	
622.59	13790	
622.78	13532	
622.97	13967	
623.16	15015	
623.35	13168	
623.54	12166	
623.72	14242	
623.91	14325	
624.1	13298	
624.29	12061	
624.48	15512	
624.67	14619	
624.86	13167	
625.05	12232	
625.24	15608	
625.43	13757	
625.62	14906	
625.81	12326	
626	14740	
626.19	14098	
626.38	13145	
626.56	12359	
626.75	13753	
626.94	14584	
627.13	12867	
627.32	11489	
627.51	14203	
627.7	15540	
627.89	11492	
628.08	12639	
628.27	13109	
628.46	13497	
628.65	11665	
628.83	11377	
629.02	13825	
629.21	13188	
629.4	12280	
629.59	12529	
629.78	13337	
629.97	14240	
630.16	12628	
630.35	12007	
630.54	14770	
630.72	14410	
630.91	11992	
631.1	12605	
631.29	13998	
631.48	14109	
631.67	12615	
631.86	11989	
632.05	13543	
632.24	13536	
632.42	11661	
632.61	12452	
632.8	13651	
632.99	13317	
633.18	12435	
633.37	12942	
633.56	13936	
633.75	13805	
633.93	12354	
634.12	12073	
634.31	14826	
634.5	14392	
634.69	12157	
634.88	12509	
635.07	13633	
635.25	14356	
635.44	13088	
635.63	13368	
635.82	13586	
636.01	12943	
636.2	13067	
636.39	12594	
636.57	14652	
636.76	14349	
636.95	11878	
637.14	13379	
637.33	13925	
637.52	15074	
637.7	11654	
637.89	12578	
638.08	13609	
638.27	15091	
638.46	12620	
638.65	13167	
638.83	15033	
639.02	13257	
639.21	12474	
639.4	13091	
639.59	13788	
639.78	13213	
639.96	11772	
640.15	11759	
640.34	13444	
640.53	13751	
640.72	11363	
640.91	11557	
641.09	12839	
641.28	14220	
641.47	11592	
641.66	12545	
641.85	13557	
642.03	13682	
642.22	12167	
642.41	11742	
642.6	12818	
642.79	12162	
642.97	11311	
643.16	12145	
643.35	12710	
643.54	12478	
643.73	11009	
643.91	11911	
644.1	12090	
644.29	12813	
644.48	10952	
644.67	11011	
644.85	12213	
645.04	12350	
645.23	10318	
645.42	10576	
645.6	11576	
645.79	12776	
645.98	10240	
646.17	9193.3	
646.36	10994	
646.54	11561	
646.73	10761	
646.92	9462.3	
647.11	11136	
647.29	12073	
647.48	9483.5	
647.67	9179	
647.86	12417	
648.05	12360	
648.23	9929.2	
648.42	11254	
648.61	11756	
648.8	11523	
648.98	9441.1	
649.17	9867.8	
649.36	11111	
649.55	10673	
649.73	9611.8	
649.92	10493	
650.11	11071	
650.3	11503	
650.48	9680.1	
650.67	9473.9	
650.86	11561	
651.05	10436	
651.23	9683.5	
651.42	9628.2	
651.61	10916	
651.79	11126	
651.98	9873.9	
652.17	9486.2	
652.36	11536	
652.54	10625	
652.73	9523.1	
652.92	9393.4	
653.11	11581	
653.29	11554	
653.48	8654	
653.67	9652.8	
653.85	11134	
654.04	12286	
654.23	9801.6	
654.42	9239.8	
654.6	10432	
654.79	11117	
654.98	8659.5	
655.16	9116.9	
655.35	9865.1	
655.54	9886.9	
655.73	8574.8	
655.91	8469.7	
656.1	11160	
656.29	9898.5	
656.47	8149.6	
656.66	10077	
656.85	10234	
657.03	10326	
657.22	8986.5	
657.41	9086.2	
657.59	10531	
657.78	10337	
657.97	8626.7	
658.16	9392	
658.34	11290	
658.53	11693	
658.72	10473	
658.9	11029	
659.09	10604	
659.28	10797	
659.46	9294.4	
659.65	9224.1	
659.84	10561	
660.02	11034	
660.21	9126.4	
660.4	9034.3	
660.58	11650	
660.77	10940	
660.96	9753.8	
661.14	8771.5	
661.33	12101	
661.52	12017	
661.7	8650.6	
661.89	12635	
662.08	10510	
662.26	10060	
662.45	8897.7	
662.64	9073.2	
662.82	11197	
663.01	10357	
663.2	9151.7	
663.38	9936.7	
663.57	11054	
663.75	10892	
663.94	9411.1	
664.13	10671	
664.31	10363	
664.5	11044	
664.69	9697.8	
664.87	10316	
665.06	10112	
665.25	10966	
665.43	10453	
665.62	10523	
665.8	11252	
665.99	10388	
666.18	9331.2	
666.36	9486.2	
666.55	11071	
666.74	11119	
666.92	8829.5	
667.11	10521	
667.29	10514	
667.48	11074	
667.67	10237	
667.85	9338.1	
668.04	10453	
668.22	10438	
668.41	9258.2	
668.6	9387.2	
668.78	10256	
668.97	10451	
669.15	9646.6	
669.34	8544.1	
669.53	10281	
669.71	10535	
669.9	8700.5	
670.08	9422.7	
670.27	10231	
670.46	10748	
670.64	9602.9	
670.83	9871.2	
671.01	9931.3	
671.2	10638	
671.38	8742.8	
671.57	8625.4	
671.76	11329	
671.94	11906	
672.13	8515.5	
672.31	9702.6	
672.5	10925	
672.69	10045	
672.87	8814.5	
673.06	9153.7	
673.24	10594	
673.43	10221	
673.61	9478.7	
673.8	9015.2	
673.98	10888	
674.17	10936	
674.36	9611.8	
674.54	9488.9	
674.73	10523	
674.91	10836	
675.1	9235.7	
675.28	8694.3	
675.47	10400	
675.65	10929	
675.84	8882.7	
676.03	9317.6	
676.21	10029	
676.4	9569.5	
676.58	9834.3	
676.77	9643.2	
676.95	11576	
677.14	9924.5	
677.32	8659.5	
677.51	8468.4	
677.69	10891	
677.88	9555.8	
678.06	8469	
678.25	8503.2	
678.44	10270	
678.62	9958.6	
678.81	8138.6	
678.99	9409.1	
679.18	11099	
679.36	10647	
679.55	8855.4	
679.73	9480	
679.92	10596	
680.1	10025	
680.29	10134	
680.47	8877.3	
680.66	9873.3	
680.84	10707	
681.03	8014.4	
681.21	9121.7	
681.4	9932	
681.58	9729.2	
681.77	8499.8	
681.95	8405.5	
682.14	10910	
682.32	11105	
682.51	9488.2	
682.69	8134.5	
682.88	9757.9	
683.06	10454	
683.25	9002.9	
683.43	9488.9	
683.62	9973.6	
683.8	10489	
683.99	9459.6	
684.17	8768.7	
684.36	11097	
684.54	9567.4	
684.73	7630.7	
684.91	7795.9	
685.1	9671.2	
685.28	8844.5	
685.46	7979.6	
685.65	8040.3	
685.83	9605.7	
686.02	8959.2	
686.2	7323.5	
686.39	7524.9	
686.57	8509.3	
686.76	10212	
686.94	7473	
687.13	7651.9	
687.31	9445.2	
687.5	9054.8	
687.68	7061.4	
687.86	8511.4	
688.05	10907	
688.23	8462.9	
688.42	8570.1	
688.6	7679.9	
688.79	9153.1	
688.97	8941.4	
689.16	8108.6	
689.34	6980.8	
689.52	9832.3	
689.71	10066	
689.89	8400.8	
690.08	7637.6	
690.26	9257.5	
690.45	9141.4	
690.63	8373.5	
690.81	7695.6	
691	8775.5	
691.18	8776.2	
691.37	7684.7	
691.55	9995.5	
691.74	8544.8	
691.92	10683	
692.1	7669.6	
692.29	7038.9	
692.47	8856.1	
692.66	8068.3	
692.84	7298.3	
693.02	7928.4	
693.21	8346.8	
693.39	8806.3	
693.58	8066.3	
693.76	7434.1	
693.94	10208	
694.13	10066	
694.31	7555.6	
694.5	8855.4	
694.68	8811	
694.86	9399.5	
695.05	8140	
695.23	8390.5	
695.42	9842.5	
695.6	12358	
695.78	8890.2	
695.97	7823.2	
696.15	9813.2	
696.34	9183.8	
696.52	7576.8	
696.7	8379.6	
696.89	9452.1	
697.07	8786.5	
697.25	8200.1	
697.44	9819.3	
697.62	9100.5	
697.81	9639.1	
697.99	7658.7	
698.17	8191.2	
698.36	8459.5	
698.54	9144.2	
698.72	8030.1	
698.91	6990.4	
699.09	8751.7	
699.28	8618.5	
699.46	7702.4	
699.64	7529.7	
699.83	8459.5	
700.01	9945.6	
700.19	8501.8	
700.38	6759	
700.56	9973.6	
700.74	8808.3	
700.93	7329.7	
701.11	8224.6	
701.29	9389.9	
701.48	10667	
701.66	7690.1	
701.84	7826.7	
702.03	9096.4	
702.21	9774.3	
702.39	7212.3	
702.58	7907.9	
702.76	9467.1	
702.94	9634.3	
703.13	7203.4	
703.31	9764.7	
703.49	8662.9	
703.68	9769.5	
703.86	7353.6	
704.04	8462.2	
704.23	9170.1	
704.41	9718.3	
704.59	7552.2	
704.78	8899.8	
704.96	10314	
705.14	9802.3	
705.33	7430.7	
705.51	8365.3	
705.69	9170.8	
705.87	9944.3	
706.06	8645.2	
706.24	7404.1	
706.42	9395.4	
706.61	9725.8	
706.79	8566	
706.97	7376.8	
707.16	8919.6	
707.34	9583.1	
707.52	8551	
707.7	7600.7	
707.89	9096.4	
708.07	8785.8	
708.25	8567.3	
708.44	8757.1	
708.62	9080.7	
708.8	10219	
708.98	8867.7	
709.17	7806.2	
709.35	9391.3	
709.53	9450.7	
709.72	7488.1	
709.9	7591.8	
710.08	9678	
710.26	9693	
710.45	9170.1	
710.63	7745.4	
710.81	9342.8	
710.99	9242.5	
711.18	8352.3	
711.36	7751.6	
711.54	9022.7	
711.72	9741.5	
711.91	7791.8	
712.09	7109.2	
712.27	9143.5	
712.45	9697.1	
712.64	7971.4	
712.82	6815	
713	8354.3	
713.18	8381.7	
713.37	6784.2	
713.55	7989.1	
713.73	9123	
713.91	7480.5	
714.1	6817	
714.28	6240.2	
714.46	8383.7	
714.64	7487.4	
714.83	5276.9	
715.01	6064.7	
715.19	7279.8	
715.37	6664.8	
715.55	5673.6	
715.74	6045.6	
715.92	8230.8	
716.1	6076.3	
716.28	7230.7	
716.47	6122.1	
716.65	6700.3	
716.83	6900.3	
717.01	5905.7	
717.19	6008.1	
717.38	9069.1	
717.56	6510.5	
717.74	6345.3	
717.92	5300.1	
718.1	8051.2	
718.29	7157	
718.47	5107	
718.65	5933	
718.83	8050.6	
719.01	8008.2	
719.2	5310.4	
719.38	6472.9	
719.56	7815.7	
719.74	9465	
719.92	6005.3	
720.11	7174	
720.29	7785	
720.47	6801.3	
720.65	5341.1	
720.83	6229.9	
721.02	6963.1	
721.2	6713.2	
721.38	6168.5	
721.56	5302.9	
721.74	6172.6	
721.92	6343.9	
722.11	6679.8	
722.29	6358.9	
722.47	7703.1	
722.65	6819.1	
722.83	5393	
723.01	6346	
723.2	6918	
723.38	7161.1	
723.56	4727.4	
723.74	5973.2	
723.92	6337.8	
724.1	7656	
724.29	5268.7	
724.47	6511.2	
724.65	6458.6	
724.83	6384.9	
725.01	5175.9	
725.19	6064.7	
725.37	6444.3	
725.56	6543.9	
725.74	5065.3	
725.92	5343.8	
726.1	6441.5	
726.28	6723.5	
726.46	5868.8	
726.64	5421.7	
726.83	6595.8	
727.01	6952.9	
727.19	5003.2	
727.37	5911.8	
727.55	6881.2	
727.73	7335.8	
727.91	5022.3	
728.09	4790.2	
728.28	7406.1	
728.46	8110	
728.64	6086.6	
728.82	6139.8	
729	8708.6	
729.18	7875.8	
729.36	5341.8	
729.54	7901.7	
729.72	9186.5	
729.91	7279.2	
730.09	7546.1	
730.27	6203.3	
730.45	7200.7	
730.63	7927	
730.81	6948.8	
730.99	5903.6	
731.17	8541.4	
731.35	7003.4	
731.53	6432.7	
731.71	6033.3	
731.9	8223.3	
732.08	8348.9	
732.26	6353.5	
732.44	5963.7	
732.62	8436.9	
732.8	7948.2	
732.98	6692.8	
733.16	5673.6	
733.34	7780.2	
733.52	6573.3	
733.7	6167.1	
733.88	6515.3	
734.07	7613	
734.25	7380.2	
734.43	5686.5	
734.61	7464.2	
734.79	9099.8	
734.97	7326.9	
735.15	5834.7	
735.33	6240.2	
735.51	7742	
735.69	7442.3	
735.87	7776.8	
736.05	6462.7	
736.23	7656	
736.41	7341.3	
736.59	6242.2	
736.77	6444.3	
736.95	8066.9	
737.13	7507.9	
737.32	5993.7	
737.5	6261.3	
737.68	8728.4	
737.86	7306.5	
738.04	5738.4	
738.22	7719.5	
738.4	7110.5	
738.58	7514	
738.76	6437.4	
738.94	5377.3	
739.12	7374.1	
739.3	7212.9	
739.48	7163.8	
739.66	6830	
739.84	7684.7	
740.02	7667.6	
740.2	5449.6	
740.38	5921.4	
740.56	8000	
740.74	6784.2	
740.92	6501.6	
741.1	6532.3	
741.28	7414.3	
741.46	7218.4	
741.64	6070.9	
741.82	6555.5	
742	7413	
742.18	7385.7	
742.36	6281.1	
742.54	5776.6	
742.72	8077.9	
742.9	6641.6	
743.08	6609.5	
743.26	5402.5	
743.44	8254	
743.62	8084.7	
743.8	6791.7	
743.98	5797.1	
744.16	7740	
744.34	7333.8	
744.52	6722.8	
744.7	6638.1	
744.88	7845.1	
745.06	7342	
745.24	6717.3	
745.42	6850.5	
745.6	7940	
745.78	7656	
745.96	5388.2	
746.14	5707.7	
746.32	8723	
746.5	7839.6	
746.68	6322.1	
746.86	5702.2	
747.03	8317.5	
747.21	6479.1	
747.39	6325.5	
747.57	5754.1	
747.75	7478.5	
747.93	7817.1	
748.11	5732.9	
748.29	5617.6	
748.47	9086.8	
748.65	7129	
748.83	6462.7	
749.01	6215.6	
749.19	7656	
749.37	6718	
749.55	5999.9	
749.73	6084.5	
749.91	7178.1	
750.09	6911.2	
750.26	6122.1	
750.44	5514.5	
750.62	7331	
750.8	7188.4	
750.98	5322.7	
751.16	5711.1	
751.34	7301.7	
751.52	6604	
751.7	6514.6	
751.88	5289.2	
752.06	7812.3	
752.24	7600	
752.42	5215.5	
752.59	5582.8	
752.77	7195.9	
752.95	8480	
753.13	6299.6	
753.31	5816.2	
753.49	6743.3	
753.67	7245.7	
753.85	6063.4	
754.03	5552	
754.21	7468.9	
754.38	7942.7	
754.56	5765	
754.74	4591.5	
754.92	6608.1	
755.1	7281.9	
755.28	4634.6	
755.46	4584	
755.64	7944.8	
755.82	8013	
755.99	4540.3	
756.17	4671.4	
756.35	5200.5	
756.53	6867.5	
756.71	3482.2	
756.89	4434.5	
757.07	6423.1	
757.25	5416.9	
757.42	5059.8	
757.6	5971.9	
757.78	6548.7	
757.96	5433.9	
758.14	4714.4	
758.32	4252.3	
758.5	4893.3	
758.67	5898.2	
758.85	4534.9	
759.03	4683	
759.21	5936.4	
759.39	5440.1	
759.57	4054.3	
759.75	5289.2	
759.92	6621.8	
760.1	5864.7	
760.28	5657.9	
760.46	6003.3	
760.64	5736.4	
760.82	5415.5	
760.99	5713.2	
761.17	4677.6	
761.35	6670.9	
761.53	5613.5	
761.71	4877.6	
761.89	5741.8	
762.06	6612.9	
762.24	6072.9	
762.42	5070.8	
762.6	4816.8	
762.78	6198.5	
762.96	6875	
763.13	5525.4	
763.31	5174.5	
763.49	7129	
763.67	6135	
763.85	6114.6	
764.02	6801.3	
764.2	7378.1	
764.38	6496.8	
764.56	5081.7	
764.74	5957.5	
764.91	7503.1	
765.09	6285.2	
765.27	4764.3	
765.45	4497.3	
765.63	7580.2	
765.8	7391.8	
765.98	4199	
766.16	4663.2	
766.34	5838.8	
766.52	5593	
766.69	5630.5	
766.87	4449.6	
767.05	6312.5	
767.23	7045.7	
767.41	4790.9	
767.58	5037.3	
767.76	6820.4	
767.94	6873.7	
768.12	4919.2	
768.29	5709.7	
768.47	6325.5	
768.65	7129	
768.83	4451.6	
769	5664	
769.18	5782.8	
769.36	6616.3	
769.54	5666	
769.72	4449.6	
769.89	6873	
770.07	7002	
770.25	4777.2	
770.43	6117.3	
770.6	7729	
770.78	8172.1	
770.96	4960.2	
771.14	4805.9	
771.31	6765.1	
771.49	6049	
771.67	4056.3	
771.85	4412.7	
772.02	5240.1	
772.2	6104.3	
772.38	5157.5	
772.55	4587.4	
772.73	6294.8	
772.91	6090	
773.09	4924.7	
773.26	5183.4	
773.44	6273.6	
773.62	5907	
773.8	4422.2	
773.97	4143.7	
774.15	6358.9	
774.33	5885.9	
774.5	4302.1	
774.68	4708.3	
774.86	6442.9	
775.04	5864.7	
775.21	4342.4	
775.39	4381.3	
775.57	6193.7	
775.74	6728.3	
775.92	4203.8	
776.1	4121.2	
776.27	6139.8	
776.45	7533.1	
776.63	4308.9	
776.81	3886.4	
776.98	5734.3	
777.16	7045	
777.34	4472.1	
777.51	4429.8	
777.69	5780.1	
777.87	5543.9	
778.04	4546.5	
778.22	5259.9	
778.4	5573.9	
778.57	6308.4	
778.75	3759.4	
778.93	4126.7	
779.1	5347.2	
779.28	5188.2	
779.46	3761.4	
779.64	4263.2	
779.81	6389	
779.99	7406.8	
780.17	5106.3	
780.34	5321.3	
780.52	5782.1	
780.69	6039.5	
780.87	4642.7	
781.05	4101.4	
781.22	5845.6	
781.4	5933	
781.58	4324.6	
781.75	3401	
781.93	5842.2	
782.11	5253.7	
782.28	5268.7	
782.46	4276.8	
782.64	5102.2	
782.81	6059.9	
782.99	4397	
783.17	4343.7	
783.34	5956.9	
783.52	5068.7	
783.69	4539.7	
783.87	5449.6	
784.05	5184.8	
784.22	5195.7	
784.4	5375.9	
784.58	4633.2	
784.75	6200.6	
784.93	5172.5	
785.1	4291.9	
785.28	5021.6	
785.46	5898.1	
785.63	5235.3	
785.81	4200.4	
785.99	4114.4	
786.16	5308.3	
786.34	5870.2	
786.51	4114.4	
786.69	4544.4	
786.87	4939.7	
787.04	5447.6	
787.22	3992.2	
787.39	5018.9	
787.57	5141.8	
787.75	6422.4	
787.92	5180	
788.1	5169.1	
788.27	5292.6	
788.45	5019.6	
788.63	4762.2	
788.8	3433.1	
788.98	5783.5	
789.15	4945.2	
789.33	3570.3	
789.5	4328	
789.68	6275	
789.86	6366.5	
790.03	4791.6	
790.21	4159.4	
790.38	6182.1	
790.56	5357.5	
790.73	3962.1	
790.91	4042	
791.09	5187.5	
791.26	6027.9	
791.44	4302.8	
791.61	3650.8	
791.79	5184.1	
791.96	5302.2	
792.14	3726.6	
792.32	3316.3	
792.49	5265.3	
792.67	5360.2	
792.84	3822.2	
793.02	3666.5	
793.19	6120	
793.37	6429.9	
793.54	3323.9	
793.72	3689.8	
793.89	6644.3	
794.07	5188.2	
794.25	4401.8	
794.42	3403.7	
794.6	6344.6	
794.77	5956.9	
794.95	4678.9	
795.12	4021.5	
795.3	5161.6	
795.47	5885.9	
795.65	4502.8	
795.82	4283.7	
796	4986.1	
796.17	7114	
796.35	4189.5	
796.52	4893.3	
796.7	5782.1	
796.87	5905	
797.05	5115.8	
797.22	5093.3	
797.4	5819.6	
797.57	7003.4	
797.75	4246.8	
797.92	4009.9	
798.1	6137.1	
798.27	5201.8	
798.45	3377.1	
798.62	3693.9	
798.8	5471.5	
798.97	6087.2	
799.15	4500.8	
799.32	4298	
799.5	4762.2	
799.67	5581.4	
799.85	4709.6	
800.02	3342.3	
800.2	5148.6	
800.37	5500.8	
800.55	4896.7	
800.72	4033.8	
800.9	5999.2	
801.07	6456.6	
801.25	5365	
801.42	4479.6	
801.6	6117.3	
801.77	5807.4	
801.95	4080.9	
802.12	3915	
802.29	5735.7	
802.47	5730.9	
802.64	4364.9	
802.82	3259	
802.99	5121.3	
803.17	6295.5	
803.34	4260.5	
803.52	3850.2	
803.69	6933.1	
803.87	4901.5	
804.04	4238.6	
804.21	4379.2	
804.39	6265.4	
804.56	5347.9	
804.74	3566.2	
804.91	4459.8	
805.09	5169.1	
805.26	5273.5	
805.44	3674.1	
805.61	4009.9	
805.78	5896.1	
805.96	5908.4	
806.13	4419.5	
806.31	4795	
806.48	4647.5	
806.66	5255.8	
806.83	4379.2	
807	4306.2	
807.18	5134.9	
807.35	5513.1	
807.53	4007.9	
807.7	3426.3	
807.87	6402	
808.05	5171.1	
808.22	4761.5	
808.4	3413.3	
808.57	5250.3	
808.74	4812	
808.92	3874.1	
809.09	4973.8	
809.27	5050.3	
809.44	5748	
809.61	3437.2	
809.79	3858.4	
809.96	6313.9	
810.14	6011.5	
810.31	3331.4	
810.48	4139.6	
810.66	5329.5	
810.83	6150.1	
811.01	3889.8	
811.18	4430.4	
811.35	6029.2	
811.53	4670.1	
811.7	4786.8	
811.87	4406.5	
812.05	5255.1	
812.22	5117.9	
812.39	3753.2	
812.57	3654.3	
812.74	5198.4	
812.92	6994.5	
813.09	4104.1	
813.26	4494.6	
813.44	6666.1	
813.61	5144.5	
813.78	3406.5	
813.96	4625	
814.13	5223	
814.3	4891.9	
814.48	4992.3	
814.65	4128	
814.82	6569.2	
815	4969.7	
815.17	4233.2	
815.34	5215.5	
815.52	5077.6	
815.69	5141.8	
815.87	4244.8	
816.04	3567.6	
816.21	5263.3	
816.38	4614.1	
816.56	4075.5	
816.73	3799.7	
816.9	6619	
817.08	6042.2	
817.25	3824.9	
817.42	4838	
817.6	4739	
817.77	5238.7	
817.94	4409.3	
818.12	3736.2	
818.29	4914.4	
818.46	7906.5	
818.64	3931.4	
818.81	3695.2	
818.98	4835.9	
819.16	7220.5	
819.33	4575.2	
819.5	4270.7	
819.67	5632.6	
819.85	6296.8	
820.02	4181.3	
820.19	4369	
820.37	5445.5	
820.54	5018.2	
820.71	4343.1	
820.88	5384.1	
821.06	5506.3	
821.23	4943.8	
821.4	4371	
821.58	4283.7	
821.75	6056.5	
821.92	5350	
822.09	3429	
822.27	3544.4	
822.44	5240.1	
822.61	5121.3	
822.79	3426.9	
822.96	6815	
823.13	5769.1	
823.3	4932.9	
823.48	4035.9	
823.65	3593.5	
823.82	5930.9	
823.99	4749.2	
824.17	5109.7	
824.34	3728.7	
824.51	6980.8	
824.68	5281.7	
824.86	3819.5	
825.03	4261.1	
825.2	5197.7	
825.37	6405.4	
825.55	3775.8	
825.72	4237.2	
825.89	7034.8	
826.06	6462	
826.24	4177.9	
826.41	4199	
826.58	6392.4	
826.75	5528.8	
826.92	3294.5	
827.1	3611.3	
827.27	8863.6	
827.44	6956.9	
827.61	3923.9	
827.79	4770.4	
827.96	4923.3	
828.13	5324.7	
828.3	4045.4	
828.47	3467.9	
828.65	5404.6	
828.82	5393	
828.99	5372.5	
829.16	4646.8	
829.34	5840.1	
829.51	5597.8	
829.68	4291.9	
829.85	4461.2	
830.02	6129.6	
830.2	5871.5	
830.37	3308.8	
830.54	5189.6	
830.71	6782.9	
830.88	5161.6	
831.05	3341.6	
831.23	3840.6	
831.4	6380.8	
831.57	7214.3	
831.74	3890.5	
831.91	3414.6	
832.09	5427.8	
832.26	5925.5	
832.43	4126	
832.6	4626.4	
832.77	5435.3	
832.94	6213.5	
833.12	3244.7	
833.29	3994.9	
833.46	5031.9	
833.63	7545.4	
833.8	4455.7	
833.97	4085.7	
834.15	5857.9	
834.32	5592.3	
834.49	4242.7	
834.66	4416.8	
834.83	6145.3	
835	4906.3	
835.17	3931.4	
835.35	3979.2	
835.52	5702.9	
835.69	5649.7	
835.86	4119.1	
836.03	3406.5	
836.2	5766.4	
836.37	5406	
836.55	4067.3	
836.72	3824.9	
836.89	5401.2	
837.06	5943.9	
837.23	4203.8	
837.4	4604.5	
837.57	6713.9	
837.75	7475.8	
837.92	3723.2	
838.09	3984.7	
838.26	5390.9	
838.43	6151.4	
838.6	4255	
838.77	3790.8	
838.94	7056.6	
839.11	6745.3	
839.29	4097.3	
839.46	3196.9	
839.63	5809.4	
839.8	5513.1	
839.97	3929.4	
840.14	3982.6	
840.31	5604.6	
840.48	5842.2	
840.65	3212.6	
840.82	3862.5	
841	5756.8	
841.17	5805.3	
841.34	3661.1	
841.51	3771	
841.68	5679.7	
841.85	5477.6	
842.02	3797.6	
842.19	3099.9	
842.36	5579.3	
842.53	5520.6	
842.7	3659	
842.87	4583.4	
843.05	7462.1	
843.22	5465.3	
843.39	3464.5	
843.56	3777.8	
843.73	5283.8	
843.9	5907.7	
844.07	5979.4	
844.24	4925.4	
844.41	8690.9	
844.58	4997	
844.75	3482.9	
844.92	3835.8	
845.09	5861.3	
845.26	5788.9	
845.43	3561.4	
845.6	3865.9	
845.77	5849.7	
845.94	5510.4	
846.12	4037.9	
846.29	4289.8	
846.46	6043.6	
846.63	5845.6	
846.8	3650.2	
846.97	4343.7	
847.14	6304.3	
847.31	5777.3	
847.48	4111.6	
847.65	4513	
847.82	6130.9	
847.99	6114.6	
848.16	4911.7	
848.33	4550.6	
848.5	5338.4	
848.67	6289.3	
848.84	3618.8	
849.01	3818.1	
849.18	5183.4	
849.35	4894.6	
849.52	4594.3	
849.69	3525.9	
849.86	5999.2	
850.03	6284.5	
850.2	3652.2	
850.37	4442	
850.54	6264.7	
850.71	5480.4	
850.88	4375.1	
851.05	3648.1	
851.22	5741.1	
851.39	6375.3	
851.56	3452.9	
851.73	4130.8	
851.9	5065.3	
852.07	6084.5	
852.24	4024.3	
852.41	3608.5	
852.58	5747.3	
852.75	5171.1	
852.92	3976.5	
853.09	3538.2	
853.26	5407.3	
853.43	6326.2	
853.6	3564.1	
853.77	3067.2	
853.94	6393.1	
854.11	5730.9	
854.28	5362.9	
854.44	3920.5	
854.61	6888	
854.78	6162.3	
854.95	3583.9	
855.12	4578.6	
855.29	4597.7	
855.46	6515.3	
855.63	3563.5	
855.8	5089.2	
855.97	5318.6	
856.14	6279.8	
856.31	5212.1	
856.48	3902.1	
856.65	5363.6	
856.82	5038.7	
856.99	3481.5	
857.16	3895.2	
857.33	7217	
857.49	5480.4	
857.66	3931.4	
857.83	4183.3	
858	5396.4	
858.17	5700.2	
858.34	3450.1	
858.51	3643.3	
858.68	6575.3	
858.85	6594.5	
859.02	4251.6	
859.19	4477.5	
859.36	5038.7	
859.52	5112.4	
859.69	3633.1	
859.86	4307.6	
860.03	5145.9	
860.2	6391.7	
860.37	3292.5	
860.54	3652.9	
860.71	6081.1	
860.88	6462	
861.05	4094.6	
861.21	4572.4	
861.38	6526.2	
861.55	4947.2	
861.72	3291.8	
861.89	4042.7	
862.06	6133	
862.23	6687.3	
862.4	3538.2	
862.56	3783.3	
862.73	5942.5	
862.9	5549.3	
863.07	4275.5	
863.24	3244	
863.41	4990.2	
863.58	5066	
863.75	3685	
863.91	4164.9	
864.08	6469.5	
864.25	6025.8	
864.42	4592.2	
864.59	5104.9	
864.76	6824.5	
864.93	5081.7	
865.09	3521.1	
865.26	3876.8	
865.43	6314.6	
865.6	6782.2	
865.77	3139.5	
865.94	3568.9	
866.1	6417	
866.27	6076.3	
866.44	5468.1	
866.61	3448.8	
866.78	5520	
866.95	5954.1	
867.11	3465.8	
867.28	3235.8	
867.45	6200.6	
867.62	5184.1	
867.79	4160.1	
867.96	3582.6	
868.12	5061.9	
868.29	6148	
868.46	3590.1	
868.63	4834.6	
868.8	6257.2	
868.97	5976.7	
869.13	3738.9	
869.3	3793.5	
869.47	5877	
869.64	6125.5	
869.81	3679.5	
869.97	3679.5	
870.14	5872.9	
870.31	6558.3	
870.48	3510.9	
870.65	4519.9	
870.81	5431.9	
870.98	5390.9	
871.15	4148.5	
871.32	3749.8	
871.48	5981.4	
871.65	6606.1	
871.82	3611.9	
871.99	3977.2	
872.16	7009.5	
872.32	6419	
872.49	3654.3	
872.66	3670.6	
872.83	6072.9	
872.99	5296	
873.16	4189.5	
873.33	3578.5	
873.5	5616.2	
873.67	5724.8	
873.83	3801	
874	4822.3	
874.17	5839.4	
874.34	6965.8	
874.5	4676.2	
874.67	4516.5	
874.84	6431.3	
875.01	5138.4	
875.17	5182	
875.34	3568.9	
875.51	5774.6	
875.68	6984.3	
875.84	4371	
876.01	5293.3	
876.18	6033.3	
876.34	5953.4	
876.51	3637.2	
876.68	3541.6	
876.85	5474.9	
877.01	6342.6	
877.18	5122.7	
877.35	3565.5	
877.52	5612.1	
877.68	4973.2	
877.85	3493.2	
878.02	3521.1	
878.18	5550.7	
878.35	5259.9	
878.52	2875.3	
878.69	4049.5	
878.85	6058.6	
879.02	6004.6	
879.19	5206.6	
879.35	3876.8	
879.52	6040.1	
879.69	6240.8	
879.86	3060.3	
880.02	4117.1	
880.19	5545.2	
880.36	6867.5	
880.52	4192.2	
880.69	4320.5	
880.86	6112.5	
881.02	6144.6	
881.19	3992.2	
881.36	3926	
881.52	6066.1	
881.69	5330.2	
881.86	3872	
882.02	3771	
882.19	6249	
882.36	7430	
882.52	3670	
882.69	5171.8	
882.86	5789.6	
883.02	5676.3	
883.19	4449.6	
883.36	4166.3	
883.52	6177.4	
883.69	7064.8	
883.86	3674.7	
884.02	3287.7	
884.19	6116.6	
884.36	5511.1	
884.52	4132.1	
884.69	3839.9	
884.86	5242.1	
885.02	6780.1	
885.19	4030.4	
885.36	4212.7	
885.52	5578.7	
885.69	5813.5	
885.86	5248.3	
886.02	4668	
886.19	6045.6	
886.35	5539.1	
886.52	4005.8	
886.69	5150	
886.85	5100.1	
887.02	6427.9	
887.19	6427.9	
887.35	6427.9	
887.52	6427.9	
887.68	6427.9	
887.85	6427.9	
888.02	6427.9	
888.18	6427.9	
888.35	6427.9	
888.51	6427.9	
888.68	6427.9	
888.85	6427.9	
889.01	6427.9	
889.18	6427.9	
889.35	6427.9	
889.51	6427.9	
889.68	6427.9	
889.84	6427.9	
890.01	6427.9	
890.17	6427.9	
890.34	6427.9	
890.51	6427.9	
890.67	6427.9	
890.84	6427.9	
891	6427.9	
891.17	6427.9	
891.34	6427.9	
891.5	6427.9	
891.67	6427.9	
891.83	6427.9	
892	6427.9	
892.16	6427.9	
892.33	6427.9	
892.5	6427.9	
892.66	6427.9	
892.83	6427.9	
892.99	6427.9	
893.16	6427.9	
893.32	6427.9	
893.49	6427.9	
893.65	6427.9	
893.82	6427.9	
893.99	6427.9	
894.15	6427.9	
894.32	6427.9	
894.48	6427.9	
894.65	6427.9	
894.81	6427.9	
894.98	6427.9	
895.14	6427.9	
895.31	6427.9	
895.47	6427.9	
895.64	6427.9	
895.81	6427.9	
895.97	6427.9	
896.14	6427.9	
896.3	6427.9	
896.47	6427.9	
896.63	6427.9	
896.8	6427.9	
896.96	6427.9	
897.13	6427.9	
897.29	6427.9	
897.46	6427.9	
897.62	6427.9	
897.79	6427.9	
897.95	6427.9	
898.12	6427.9	
898.28	6427.9	
898.45	6427.9	
898.61	6427.9	
898.78	6427.9	
898.94	6427.9	
899.11	6427.9	
899.27	6427.9	
899.44	6427.9	
899.6	6427.9	
899.77	6427.9	
899.93	6427.9	
900.1	6427.9	
900.26	6427.9	
900.43	6427.9	
900.59	6427.9	
900.76	6427.9	
900.92	6427.9	
901.09	6427.9	
901.25	6427.9	
901.42	6427.9	
901.58	6427.9	
901.75	6427.9	
901.91	6427.9	
902.07	6427.9	
902.24	6427.9	
902.4	6427.9	
902.57	6427.9	
902.73	6427.9	
902.9	6427.9	
903.06	6427.9	
903.23	6427.9	
903.39	6427.9	
903.56	6427.9	
903.72	6427.9	
903.88	6427.9	
904.05	6427.9	
904.21	6427.9	
904.38	6427.9	
904.54	6427.9	
904.71	6427.9	
904.87	6427.9	
905.03	6427.9	
905.2	6427.9	
905.36	6427.9	
905.53	6427.9	
905.69	6427.9	
905.86	6427.9	
906.02	6427.9	
906.18	6427.9	
906.35	6427.9	
906.51	6427.9	
906.68	6427.9	
906.84	6427.9	
907.01	6427.9	
907.17	6427.9	
907.33	6427.9	
907.5	6427.9	
907.66	6427.9	
907.83	6427.9	
907.99	6427.9	
908.15	6427.9	
908.32	6427.9	
908.48	6427.9	
908.65	6427.9	
908.81	6427.9	
908.97	6427.9	
909.14	6427.9	
909.3	6427.9	
909.47	6427.9	
909.63	6427.9	
909.79	6427.9	
909.96	6427.9	
910.12	6427.9	
910.28	6427.9	
910.45	6427.9	
910.61	6427.9	
910.78	6427.9	
910.94	6427.9	
911.1	6427.9	
911.27	6427.9	
911.43	6427.9	
911.59	6427.9	
911.76	6427.9	
911.92	6427.9	
912.08	6427.9	
912.25	6427.9	
912.41	6427.9	
912.57	6427.9	
912.74	6427.9	
912.9	6427.9	
913.07	6427.9	
913.23	6427.9	
913.39	6427.9	
913.56	6427.9	
913.72	6427.9	
913.88	6427.9	
914.05	6427.9	
914.21	6427.9	
914.37	6427.9	
914.54	6427.9	
914.7	6427.9	
914.86	6427.9	
915.03	6427.9	
915.19	6427.9	
