Wavelength	Intensities	
nm	a.u.	
179.22	1915.4	
179.44	1917.9	
179.65	1912.8	
179.86	1923	
180.08	1927.1	
180.29	4939	
180.51	3512.3	
180.72	5698.1	
180.94	6599.9	
181.15	3260.4	
181.37	3231	
181.58	5485.8	
181.79	5857.2	
182.01	3355.9	
182.22	3665.9	
182.44	5843.5	
182.65	4855.7	
182.87	4583.4	
183.08	4030.4	
183.29	6101.6	
183.51	5048.2	
183.72	3707.5	
183.94	5356.1	
184.15	5380.7	
184.37	5436	
184.58	3182.5	
184.79	4444.8	
185.01	4995.7	
185.22	5806	
185.44	4688.5	
185.65	3936.2	
185.86	5268.7	
186.08	4922.6	
186.29	3139.5	
186.51	3379.1	
186.72	5080.3	
186.94	5933.6	
187.15	3932.8	
187.36	4073.4	
187.58	7759.8	
187.79	5532.2	
188.01	4264.6	
188.22	6524.8	
188.43	6607.4	
188.65	5722.7	
188.86	3344.3	
189.08	4057.7	
189.29	5226.4	
189.5	5231.2	
189.72	3766.9	
189.93	3839.9	
190.15	6026.5	
190.36	7175.4	
190.57	4171.7	
190.79	4018.1	
191	6029.9	
191.22	6006.7	
191.43	4178.5	
191.64	3373.7	
191.86	6296.1	
192.07	5973.2	
192.29	3545	
192.5	3803.1	
192.71	5978	
192.93	5110.4	
193.14	3728	
193.35	3840.6	
193.57	5187.5	
193.78	5920	
194	2984.6	
194.21	3675.4	
194.42	4972.5	
194.64	5435.3	
194.85	3992.2	
195.07	4719.2	
195.28	5468.1	
195.49	4717.2	
195.71	4975.9	
195.92	3514.3	
196.13	5646.9	
196.35	5724.8	
196.56	5365.7	
196.78	4035.2	
196.99	7025.9	
197.2	6637.5	
197.42	4661.2	
197.63	4087.1	
197.84	4805.2	
198.06	5621.7	
198.27	3773.7	
198.48	5027.1	
198.7	5205.3	
198.91	5324	
199.13	4013.3	
199.34	4123.2	
199.55	5849.7	
199.77	4700.8	
199.98	3608.5	
200.19	4111.6	
200.41	5328.8	
200.62	5128.8	
200.83	4245.4	
201.05	4606.6	
201.26	5270.1	
201.47	5055.1	
201.69	3606.5	
201.9	3453.6	
202.11	5390.9	
202.33	6447.7	
202.54	3920.5	
202.76	4343.1	
202.97	5470.1	
203.18	5562.3	
203.4	4274.1	
203.61	4172.4	
203.82	5493.3	
204.04	5013.4	
204.25	4091.2	
204.46	4085.7	
204.68	5452.4	
204.89	5702.2	
205.1	3964.9	
205.32	3426.3	
205.53	5864.7	
205.74	5990.3	
205.96	2958.6	
206.17	4184	
206.38	5810.8	
206.6	6019.7	
206.81	4661.2	
207.02	3790.1	
207.24	5643.5	
207.45	6101.6	
207.66	3832.4	
207.88	3325.2	
208.09	5667.4	
208.3	5408.7	
208.52	3558	
208.73	3943.7	
208.94	5395	
209.15	6131.6	
209.37	3903.4	
209.58	4104.1	
209.79	6029.2	
210.01	5216.2	
210.22	3072.6	
210.43	3276.8	
210.65	5456.5	
210.86	5857.2	
211.07	3911.6	
211.29	3544.4	
211.5	5842.2	
211.71	5339.1	
211.93	3560.1	
212.14	3564.8	
212.35	5372.5	
212.56	5651.7	
212.78	4130.8	
212.99	3395.5	
213.2	6385.6	
213.42	5172.5	
213.63	3673.4	
213.84	3946.4	
214.06	4857.1	
214.27	4883	
214.48	3823.6	
214.69	4134.2	
214.91	6090	
215.12	6212.2	
215.33	4192.9	
215.55	4632.5	
215.76	6696.9	
215.97	5883.1	
216.18	4085.7	
216.4	3932.1	
216.61	5079	
216.82	5988.9	
217.04	3581.9	
217.25	3753.9	
217.46	6070.9	
217.67	5887.9	
217.89	3170.9	
218.1	3292.5	
218.31	5483.1	
218.53	5634	
218.74	3765.5	
218.95	3631.7	
219.16	5384.1	
219.38	6358.3	
219.59	3659	
219.8	4308.9	
220.01	6985.6	
220.23	5426.4	
220.44	4823.6	
220.65	3519.1	
220.87	5492.7	
221.08	6089.3	
221.29	3269.9	
221.5	4474.1	
221.72	7486.7	
221.93	5104.2	
222.14	4175.1	
222.35	4808.6	
222.57	5411.4	
222.78	5812.8	
222.99	3893.9	
223.2	4222.2	
223.42	5736.4	
223.63	5915.2	
223.84	2979.1	
224.05	2964.8	
224.27	6938.5	
224.48	6303.6	
224.69	4868.7	
224.9	4177.9	
225.12	5626.5	
225.33	5378	
225.54	3321.8	
225.75	3633.8	
225.97	4919.2	
226.18	5291.3	
226.39	3983.3	
226.6	3650.2	
226.82	5197.7	
227.03	5083.1	
227.24	4087.7	
227.45	3417.4	
227.67	5810.1	
227.88	6418.3	
228.09	4631.8	
228.3	4620.2	
228.52	5881.8	
228.73	5341.8	
228.94	3806.5	
229.15	3367.5	
229.36	5325.4	
229.58	5246.2	
229.79	3821.5	
230	4457.1	
230.21	6553.5	
230.43	5535.7	
230.64	3981.3	
230.85	4255	
231.06	5859.9	
231.28	5900.9	
231.49	3361.4	
231.7	3944.4	
231.91	5717.9	
232.12	5427.1	
232.34	3485	
232.55	3971.7	
232.76	6079.1	
232.97	5643.5	
233.18	3607.2	
233.4	4031.1	
233.61	5687.2	
233.82	5199.1	
234.03	3739.6	
234.25	3724.6	
234.46	7595.2	
234.67	5516.5	
234.88	4160.1	
235.09	3629.7	
235.31	5775.3	
235.52	5298.8	
235.73	4072	
235.94	3399.6	
236.15	5173.9	
236.37	6599.9	
236.58	3591.5	
236.79	3904.1	
237	5741.1	
237.21	4965.6	
237.43	4163.5	
237.64	3317	
237.85	9936.7	
238.06	5003.9	
238.27	4304.1	
238.48	3407.8	
238.7	5797.1	
238.91	5244.2	
239.12	3902.7	
239.33	3969.6	
239.54	4984.8	
239.76	5395	
239.97	3841.3	
240.18	3943	
240.39	6714.6	
240.6	5702.9	
240.82	4050.9	
241.03	3338.2	
241.24	5465.3	
241.45	6346	
241.66	3551.2	
241.87	4238.6	
242.09	6194.4	
242.3	6558.3	
242.51	4232.5	
242.72	3907.5	
242.93	5975.3	
243.14	5379.3	
243.36	4548.5	
243.57	4902.2	
243.78	6290.7	
243.99	5881.1	
244.2	3976.5	
244.41	3538.9	
244.63	5000.5	
244.84	5771.2	
245.05	4216.8	
245.26	3871.3	
245.47	5693.4	
245.68	6064	
245.9	5210.7	
246.11	4077.5	
246.32	5267.4	
246.53	5676.3	
246.74	6378.7	
246.95	3311.6	
247.16	4958.1	
247.38	5401.2	
247.59	3282.9	
247.8	3958	
248.01	5076.9	
248.22	5347.9	
248.43	3569.6	
248.64	3867.9	
248.86	4796.3	
249.07	5169.1	
249.28	3428.3	
249.49	4015.4	
249.7	6060.6	
249.91	6133	
250.12	3248.1	
250.34	3341.6	
250.55	5550.7	
250.76	5442.1	
250.97	4067.3	
251.18	4102.8	
251.39	6129.6	
251.6	5634.6	
251.81	4100	
252.03	4147.8	
252.24	5201.8	
252.45	5930.9	
252.66	3393.5	
252.87	4368.3	
253.08	5470.8	
253.29	7223.2	
253.5	3431.7	
253.72	4770.4	
253.93	5299.5	
254.14	6449.7	
254.35	3745.1	
254.56	3861.1	
254.77	5704.3	
254.98	5048.2	
255.19	3708.9	
255.41	4779.3	
255.62	5537	
255.83	6097.5	
256.04	4234.5	
256.25	4116.4	
256.46	6705.7	
256.67	5132.2	
256.88	3989.4	
257.09	4519.9	
257.31	5093.3	
257.52	5128.8	
257.73	5044.8	
257.94	3676.8	
258.15	5258.5	
258.36	5449.6	
258.57	4704.2	
258.78	2917.7	
258.99	5935	
259.2	5286.5	
259.41	3747.8	
259.63	3865.9	
259.84	6311.8	
260.05	6787	
260.26	4894	
260.47	3656.3	
260.68	6054.5	
260.89	5395.7	
261.1	4504.2	
261.31	3528.7	
261.52	6042.9	
261.73	6419.7	
261.95	4865.3	
262.16	4270.7	
262.37	6206	
262.58	6212.2	
262.79	4803.2	
263	3828.3	
263.21	5421	
263.42	4947.2	
263.63	3808.5	
263.84	3793.5	
264.05	5954.8	
264.26	6389.7	
264.47	4681.7	
264.69	4264.6	
264.9	6158.2	
265.11	5667.4	
265.32	3586.7	
265.53	3689.1	
265.74	5594.4	
265.95	4855.7	
266.16	3988.1	
266.37	4418.8	
266.58	5501.5	
266.79	5276.9	
267	3641.3	
267.21	3463.8	
267.42	5029.1	
267.63	5455.1	
267.84	3903.4	
268.06	3325.2	
268.27	5863.3	
268.48	6161.7	
268.69	3811.3	
268.9	4536.3	
269.11	6169.8	
269.32	4925.4	
269.53	3941.7	
269.74	3646.1	
269.95	5792.3	
270.16	4781.3	
270.37	3942.3	
270.58	4492.6	
270.79	5261.9	
271	5960.3	
271.21	4211.3	
271.42	3949.2	
271.63	5554.8	
271.84	5070.8	
272.05	3112.2	
272.26	3504.1	
272.47	5465.3	
272.68	5645.6	
272.89	3771	
273.11	4323.9	
273.32	5210.7	
273.53	6387.6	
273.74	4279.6	
273.95	4153.3	
274.16	6081.1	
274.37	5519.3	
274.58	4264.6	
274.79	3407.1	
275	5574.6	
275.21	6143.9	
275.42	5177.9	
275.63	4437.3	
275.84	5681.7	
276.05	7251.9	
276.26	4162.2	
276.47	3896.6	
276.68	5289.9	
276.89	6456.6	
277.1	4508.3	
277.31	3446.7	
277.52	5672.2	
277.73	5886.5	
277.94	3376.4	
278.15	3809.9	
278.36	5621.7	
278.57	5055.1	
278.78	3773.7	
278.99	4291.2	
279.2	5051.7	
279.41	5043.5	
279.62	4990.9	
279.83	3458.3	
280.04	6686.6	
280.25	5045.5	
280.46	4957.4	
280.67	3887	
280.88	5050.3	
281.09	6054.5	
281.3	4130.1	
281.51	5275.6	
281.72	5161.6	
281.93	5971.2	
282.14	3639.2	
282.35	3926.6	
282.56	5954.8	
282.77	5975.3	
282.98	3764.8	
283.19	4728.1	
283.4	7277.1	
283.61	5400.5	
283.82	3395.5	
284.03	4870.1	
284.24	5534.3	
284.45	6052.4	
284.66	4891.2	
284.87	4726	
285.08	6010.8	
285.29	6253.8	
285.5	3334.8	
285.71	3878.9	
285.92	6059.3	
286.12	6750.8	
286.33	4833.9	
286.54	3755.3	
286.75	5951.4	
286.96	5328.1	
287.17	3508.2	
287.38	4775.2	
287.59	5107.6	
287.8	5051.7	
288.01	3809.9	
288.22	4483.7	
288.43	5954.8	
288.64	4959.5	
288.85	4526.7	
289.06	4330.8	
289.27	5911.8	
289.48	6436.1	
289.69	4885.8	
289.9	4384.7	
290.11	6120	
290.32	5165	
290.53	4638	
290.74	4341	
290.94	5869.5	
291.15	5987.6	
291.36	3688.4	
291.57	4466.6	
291.78	5158.2	
291.99	4886.5	
292.2	3566.2	
292.41	4321.2	
292.62	6029.2	
292.83	5784.8	
293.04	5284.4	
293.25	3572.3	
293.46	5258.5	
293.67	6097.5	
293.88	3731.4	
294.09	3560.1	
294.29	5014.8	
294.5	5595.7	
294.71	3945.1	
294.92	3777.8	
295.13	5219.6	
295.34	6552.1	
295.55	3267.2	
295.76	3405.1	
295.97	5795.8	
296.18	6690	
296.39	3529.3	
296.6	3652.2	
296.81	5586.2	
297.01	5879.7	
297.22	3855.6	
297.43	3617.4	
297.64	5103.5	
297.85	5108.3	
298.06	3003	
298.27	3298.6	
298.48	5487.9	
298.69	5214.8	
298.9	4026.3	
299.11	3611.9	
299.31	4965	
299.52	4958.8	
299.73	4298	
299.94	4226.3	
300.15	5406	
300.36	5079	
300.57	4246.1	
300.78	4146.5	
300.99	5403.9	
301.2	5565.7	
301.4	3628.3	
301.61	3968.3	
301.82	5771.9	
302.03	5911.8	
302.24	4536.9	
302.45	3475.4	
302.66	5756.8	
302.87	6239.5	
303.08	3670	
303.29	5028.4	
303.49	5208.7	
303.7	5502.9	
303.91	3304.7	
304.12	4820.9	
304.33	4967	
304.54	5617.6	
304.75	3713.7	
304.96	3509.5	
305.16	5771.9	
305.37	6528.9	
305.58	3207.1	
305.79	3341.6	
306	5784.1	
306.21	4857.8	
306.42	3635.1	
306.63	5613.5	
306.83	5335	
307.04	6081.1	
307.25	4130.1	
307.46	3972.4	
307.67	4657.1	
307.88	5898.2	
308.09	3582.6	
308.29	3801.7	
308.5	5559.6	
308.71	6019.7	
308.92	3963.5	
309.13	3517.7	
309.34	5331.5	
309.55	5335.6	
309.75	4577.9	
309.96	4184.7	
310.17	5888.6	
310.38	5150	
310.59	4435.9	
310.8	3411.9	
311.01	5323.4	
311.21	5361.6	
311.42	3492.5	
311.63	3630.4	
311.84	5195.7	
312.05	5610.1	
312.26	4109.6	
312.46	4490.5	
312.67	5313.8	
312.88	5029.1	
313.09	3587.4	
313.3	3461.1	
313.51	6262	
313.71	6672.3	
313.92	3534.8	
314.13	3753.9	
314.34	5654.4	
314.55	5397.1	
314.76	4556	
314.96	3986.7	
315.17	5500.8	
315.38	5890.6	
315.59	3589.4	
315.8	3377.1	
316.01	6301.6	
316.21	6402.6	
316.42	3504.8	
316.63	3941	
316.84	5317.2	
317.05	6216.3	
317.26	4228.4	
317.46	3803.1	
317.67	5354.8	
317.88	5824.4	
318.09	4493.9	
318.3	3344.3	
318.5	5202.5	
318.71	5792.3	
318.92	5782.1	
319.13	4186	
319.34	5943.2	
319.54	6151.4	
319.75	3294.5	
319.96	3144.3	
320.17	5858.6	
320.38	6076.3	
320.58	3243.3	
320.79	3919.1	
321	6060.6	
321.21	6193.1	
321.42	3917.8	
321.62	3271.3	
321.83	5051	
322.04	5505.6	
322.25	3777.8	
322.46	3591.5	
322.66	5558.9	
322.87	5760.3	
323.08	4391.5	
323.29	3534.1	
323.5	6506.4	
323.7	5031.2	
323.91	4966.3	
324.12	4384	
324.33	5497.4	
324.53	5804.6	
324.74	4252.3	
324.95	4414.7	
325.16	4870.8	
325.37	5283.8	
325.57	3603.1	
325.78	3598.3	
325.99	5484.5	
326.2	4999.8	
326.4	5160.2	
326.61	3287.7	
326.82	5395	
327.03	5559.6	
327.24	5059.8	
327.44	4912.4	
327.65	5760.3	
327.86	4608.6	
328.07	4190.1	
328.27	3448.1	
328.48	6171.9	
328.69	5063.3	
328.9	5171.8	
329.1	3815.4	
329.31	5386.2	
329.52	6313.9	
329.73	3540.9	
329.93	4016.1	
330.14	5423.7	
330.35	5658.5	
330.56	5845.6	
330.76	4427	
330.97	5305.6	
331.18	5730.2	
331.39	3917.1	
331.59	3205.8	
331.8	6035.4	
332.01	6182.1	
332.22	3667.9	
332.42	4190.1	
332.63	5540.4	
332.84	5179.3	
333.05	4008.6	
333.25	3620.8	
333.46	5256.5	
333.67	5433.3	
333.88	3676.8	
334.08	4177.9	
334.29	7262.1	
334.5	6084.5	
334.7	3480.9	
334.91	5199.8	
335.12	5005.2	
335.33	5878.4	
335.53	3952.6	
335.74	5831.2	
335.95	5252.4	
336.16	5134.9	
336.36	3934.8	
336.57	4536.3	
336.78	4909.7	
336.98	6044.9	
337.19	4893.3	
337.4	3858.4	
337.61	6543.3	
337.81	4982.7	
338.02	3674.7	
338.23	4721.3	
338.43	6277.7	
338.64	5053	
338.85	3545	
339.05	4694.6	
339.26	6336.4	
339.47	4911	
339.68	3585.3	
339.88	5309.7	
340.09	5671.5	
340.3	5932.3	
340.5	4225.6	
340.71	3206.4	
340.92	4896	
341.13	6279.1	
341.33	3513.6	
341.54	4247.5	
341.75	5715.2	
341.95	5337.7	
342.16	4018.8	
342.37	4360.8	
342.57	5024.4	
342.78	5425.8	
342.99	4455.7	
343.19	3180.5	
343.4	5914.5	
343.61	5709.7	
343.81	3792.8	
344.02	3510.2	
344.23	5887.9	
344.43	6315.9	
344.64	4482.3	
344.85	4363.5	
345.06	5769.8	
345.26	6053.1	
345.47	4153.3	
345.68	4872.1	
345.88	4833.2	
346.09	5911.1	
346.3	4201.1	
346.5	3210.5	
346.71	5477	
346.92	5200.5	
347.12	3271.3	
347.33	4124.6	
347.54	5965.7	
347.74	6505	
347.95	4127.3	
348.16	3072.6	
348.36	5267.4	
348.57	4988.9	
348.78	4037.9	
348.98	4376.5	
349.19	5440.1	
349.39	4913.8	
349.6	3308.8	
349.81	3642.7	
350.01	5713.2	
350.22	5208	
350.43	3908.2	
350.63	4804.5	
350.84	5446.9	
351.05	5307	
351.25	3591.5	
351.46	3272.7	
351.67	6039.5	
351.87	5107.6	
352.08	3807.2	
352.29	4406.5	
352.49	5851.7	
352.7	6006.7	
352.9	3482.9	
353.11	4297.3	
353.32	6601.3	
353.52	5236.7	
353.73	3394.8	
353.94	4412.7	
354.14	5668.1	
354.35	5537.7	
354.55	3543.7	
354.76	3972.4	
354.97	5722.7	
355.17	5453.7	
355.38	3342.3	
355.59	4667.3	
355.79	5160.2	
356	5524.1	
356.2	3957.4	
356.41	3461.7	
356.62	4796.3	
356.82	5351.3	
357.03	4186.7	
357.24	3764.8	
357.44	5107.6	
357.65	5285.1	
357.85	5130.2	
358.06	3941.7	
358.27	4861.9	
358.47	5111	
358.68	3291.1	
358.88	4143	
359.09	5644.2	
359.3	6054.5	
359.5	4870.8	
359.71	4331.5	
359.91	6543.3	
360.12	5875.6	
360.33	4160.1	
360.53	4642.1	
360.74	5124	
360.94	5186.1	
361.15	4345.1	
361.36	3573	
361.56	5898.1	
361.77	5394.3	
361.97	4864.6	
362.18	3778.5	
362.38	5898.8	
362.59	4983.4	
362.8	3527.3	
363	3332.7	
363.21	4781.3	
363.41	5417.6	
363.62	4044.7	
363.83	5123.3	
364.03	5494.7	
364.24	6555.5	
364.44	5124	
364.65	5266.7	
364.85	5244.8	
365.06	4916.5	
365.27	3734.1	
365.47	3700.7	
365.68	6255.9	
365.88	5254.4	
366.09	4055.7	
366.29	3732.1	
366.5	5492.7	
366.71	5971.9	
366.91	5097.4	
367.12	4262.5	
367.32	6604	
367.53	5784.1	
367.73	4199	
367.94	5185.5	
368.14	5734.3	
368.35	6688.7	
368.56	4175.1	
368.76	3936.2	
368.97	5845.6	
369.17	7578.8	
369.38	3650.2	
369.58	3965.6	
369.79	4908.3	
369.99	6245.6	
370.2	4994.3	
370.4	4061.8	
370.61	5608	
370.82	6765.8	
371.02	3880.9	
371.23	3289.7	
371.43	4782	
371.64	6174.6	
371.84	3960.1	
372.05	5139	
372.25	7503.1	
372.46	5838.1	
372.66	3880.9	
372.87	3876.1	
373.07	5894.1	
373.28	7547.4	
373.48	4937.7	
373.69	4642.7	
373.9	5395	
374.1	5365	
374.31	4878.3	
374.51	4394.9	
374.72	6180.1	
374.92	5042.1	
375.13	5025	
375.33	4220.9	
375.54	5701.5	
375.74	5199.8	
375.95	4292.5	
376.15	5572.5	
376.36	5777.3	
376.56	5670.8	
376.77	4398.4	
376.97	4771.8	
377.18	6815.6	
377.38	5866.1	
377.59	5126.1	
377.79	3807.9	
378	5662.6	
378.2	6010.1	
378.41	3894.6	
378.61	3779.2	
378.82	6066.8	
379.02	5237.3	
379.23	4036.5	
379.43	5119.9	
379.64	6154.1	
379.84	5739.8	
380.05	3861.1	
380.25	3791.5	
380.46	5912.5	
380.66	5424.4	
380.87	5180	
381.07	5541.8	
381.28	6434.7	
381.48	5919.3	
381.69	3865.9	
381.89	3923.9	
382.1	4827.1	
382.3	6106.4	
382.51	5011.4	
382.71	5866.1	
382.91	5915.2	
383.12	6436.8	
383.32	4259.8	
383.53	4518.5	
383.73	5745.2	
383.94	5522	
384.14	4423.6	
384.35	3576.4	
384.55	5483.8	
384.76	5917.9	
384.96	4238.6	
385.17	4576.5	
385.37	5866.1	
385.58	5212.8	
385.78	4629.8	
385.98	3487	
386.19	5402.5	
386.39	5763	
386.6	3984	
386.8	4265.9	
387.01	5866.7	
387.21	5956.9	
387.42	4698	
387.62	5303.6	
387.83	5151.3	
388.03	5890	
388.23	4335.5	
388.44	5111.7	
388.64	4812.7	
388.85	5010	
389.05	4644.8	
389.26	5268.7	
389.46	6883.9	
389.67	6273.6	
389.87	4596.3	
390.07	4665.3	
390.28	5530.9	
390.48	5090.6	
390.69	3843.4	
390.89	4172.4	
391.1	5276.9	
391.3	6205.3	
391.5	5389.6	
391.71	5967.8	
391.91	5938.4	
392.12	6983.6	
392.32	5453.7	
392.53	4662.5	
392.73	5327.4	
392.93	5527.5	
393.14	4364.9	
393.34	5131.5	
393.55	6075	
393.75	5498.8	
393.95	4360.8	
394.16	4288.4	
394.36	5251.7	
394.57	6029.9	
394.77	3771.7	
394.98	4239.3	
395.18	5201.2	
395.38	5322.7	
395.59	5078.3	
395.79	4027	
396	5324	
396.2	5821.7	
396.4	4885.8	
396.61	4800.4	
396.81	6106.4	
397.02	5282.4	
397.22	5065.3	
397.42	5143.8	
397.63	6005.3	
397.83	5127.4	
398.04	3951.2	
398.24	4525.3	
398.44	5758.2	
398.65	4849.6	
398.85	3802.4	
399.05	3965.6	
399.26	5152.7	
399.46	6873	
399.67	4314.4	
399.87	4040.6	
400.07	5539.8	
400.28	5873.6	
400.48	4099.4	
400.69	5132.9	
400.89	6117.3	
401.09	6537.1	
401.3	4026.3	
401.5	5099.4	
401.7	6780.1	
401.91	7064.8	
402.11	4322.6	
402.32	4591.5	
402.52	6170.5	
402.72	6087.2	
402.93	4834.6	
403.13	3667.9	
403.33	6906.4	
403.54	5691.3	
403.74	4489.1	
403.94	5463.3	
404.15	5721.3	
404.35	6885.3	
404.56	4301.4	
404.76	6141.9	
404.96	6113.2	
405.17	5927.5	
405.37	5702.9	
405.57	4737.6	
405.78	6291.4	
405.98	5656.5	
406.18	4252.3	
406.39	5201.2	
406.59	6141.9	
406.79	5740.5	
407	4102.1	
407.2	4218.1	
407.4	6155.5	
407.61	6370.5	
407.81	4172.4	
408.01	6307.1	
408.22	5059.8	
408.42	7093.5	
408.62	5231.9	
408.83	4686.4	
409.03	5657.9	
409.23	5497.4	
409.44	4741.7	
409.64	5079.6	
409.84	6650.4	
410.05	6500.9	
410.25	4847.5	
410.45	4605.2	
410.66	5937.7	
410.86	8462.9	
411.06	5016.2	
411.27	4954.7	
411.47	8107.9	
411.67	6122.1	
411.88	5108.3	
412.08	5392.3	
412.28	6764.4	
412.49	7240.3	
412.69	4883	
412.89	4957.4	
413.09	7067.5	
413.3	6904.4	
413.5	4942.4	
413.7	4582	
413.91	6163	
414.11	6993.1	
414.31	4837.3	
414.52	5204.6	
414.72	6734.4	
414.92	6603.3	
415.12	4767.7	
415.33	5357.5	
415.53	6986.3	
415.73	7208.8	
415.94	5664.7	
416.14	5098.1	
416.34	5932.3	
416.55	5751.4	
416.75	6313.9	
416.95	5746.6	
417.15	6885.3	
417.36	7757.7	
417.56	6536.4	
417.76	5529.5	
417.97	7389.8	
418.17	7007.5	
418.37	5115.8	
418.57	5185.5	
418.78	6745.3	
418.98	6476.4	
419.18	6081.1	
419.38	6005.3	
419.59	6551.5	
419.79	6065.4	
419.99	5041.4	
420.2	5490.6	
420.4	6987	
420.6	7214.3	
420.8	4969.1	
421.01	4844.8	
421.21	6784.2	
421.41	7000	
421.61	5440.8	
421.82	5002.5	
422.02	6240.8	
422.22	7274.4	
422.42	5821	
422.63	5588.9	
422.83	6392.4	
423.03	7722.2	
423.23	5586.9	
423.44	4530.8	
423.64	6592.4	
423.84	6327.5	
424.04	4994.3	
424.25	4652.3	
424.45	7455.3	
424.65	7513.3	
424.85	4491.2	
425.06	5018.2	
425.26	7500.3	
425.46	6414.9	
425.66	5566.4	
425.87	5226.4	
426.07	7237.5	
426.27	7151.5	
426.47	5352	
426.67	4742.4	
426.88	7627.3	
427.08	7024.5	
427.28	5603.2	
427.48	4676.2	
427.69	5892	
427.89	6673.6	
428.09	5638.1	
428.29	4797	
428.5	7228.6	
428.7	6798.6	
428.9	4645.5	
429.1	5233.9	
429.3	6725.5	
429.51	7213.6	
429.71	4961.5	
429.91	5763	
430.11	6984.3	
430.31	7228.6	
430.52	5231.2	
430.72	5552	
430.92	7582.3	
431.12	7070.3	
431.32	4878.9	
431.53	5383.4	
431.73	5922	
431.93	7661.5	
432.13	4826.4	
432.33	4732.2	
432.54	6386.9	
432.74	6827.2	
432.94	4627.7	
433.14	5710.4	
433.34	6903.7	
433.55	6436.1	
433.75	5685.8	
433.95	7381.6	
434.15	6713.2	
434.35	6423.1	
434.56	4858.5	
434.76	4332.1	
434.96	6729.6	
435.16	6965.8	
435.36	4614.1	
435.56	5821	
435.77	6372.6	
435.97	6453.8	
436.17	6509.1	
436.37	5751.4	
436.57	6369.2	
436.78	6238.8	
436.98	7651.2	
437.18	6365.8	
437.38	7062.8	
437.58	6539.8	
437.78	6511.9	
437.99	5100.1	
438.19	7078.5	
438.39	8555	
438.59	5020.9	
438.79	4560.1	
438.99	7759.1	
439.2	6482.5	
439.4	4734.2	
439.6	4666	
439.8	6851.1	
440	7975.5	
440.2	5705.6	
440.4	5808	
440.61	7227.3	
440.81	7751.6	
441.01	4930.1	
441.21	5725.4	
441.41	7625.3	
441.61	7272.3	
441.81	6063.4	
442.02	7120.1	
442.22	8168.7	
442.42	7311.2	
442.62	4903.5	
442.82	5035.3	
443.02	7640.3	
443.22	6735.8	
443.43	5371.8	
443.63	4954.7	
443.83	6567.2	
444.03	6584.2	
444.23	6163	
444.43	5802.6	
444.63	6868.9	
444.83	8064.9	
445.04	5020.9	
445.24	6380.1	
445.44	7300.3	
445.64	7343.3	
445.84	5859.9	
446.04	5825.8	
446.24	6619	
446.44	7655.3	
446.65	5048.2	
446.85	5505.6	
447.05	6697.5	
447.25	7663.5	
447.45	5544.5	
447.65	4939.7	
447.85	6952.2	
448.05	6631.3	
448.25	5984.8	
448.46	5786.2	
448.66	6952.9	
448.86	6647.7	
449.06	4693.3	
449.26	5992.4	
449.46	7344.7	
449.66	6358.3	
449.86	5508.4	
450.06	5541.8	
450.26	6535.8	
450.47	7109.9	
450.67	5678.3	
450.87	6098.2	
451.07	7210.9	
451.27	7004.7	
451.47	5041.4	
451.67	5552	
451.87	6640.2	
452.07	7880.6	
452.27	5260.5	
452.47	5273.5	
452.67	7005.4	
452.88	7661.5	
453.08	4607.2	
453.28	6713.2	
453.48	8197.3	
453.68	6914.6	
453.88	5141.8	
454.08	5394.3	
454.28	7275.8	
454.48	6916	
454.68	5971.2	
454.88	6447.7	
455.08	7436.9	
455.28	7101	
455.48	4990.9	
455.68	5588.2	
455.89	7959.8	
456.09	7560.4	
456.29	5301.5	
456.49	5441.5	
456.69	7709.9	
456.89	6932.4	
457.09	5967.1	
457.29	6257.9	
457.49	7362.4	
457.69	7416.4	
457.89	5695.4	
458.09	5175.2	
458.29	7071	
458.49	7807.5	
458.69	6208.1	
458.89	5636.7	
459.09	8090.2	
459.29	8269.7	
459.49	5665.4	
459.69	6490	
459.9	7559.7	
460.1	7099.6	
460.3	5528.2	
460.5	5425.8	
460.7	7546.1	
460.9	7204.1	
461.1	5061.2	
461.3	6328.9	
461.5	8271.7	
461.7	7800.7	
461.9	5421.7	
462.1	5944.6	
462.3	7235.5	
462.5	7818.5	
462.7	5511.8	
462.9	5629.9	
463.1	8888.2	
463.3	8575.5	
463.5	5758.2	
463.7	6771.9	
463.9	7456	
464.1	7827.3	
464.3	5859.2	
464.5	6152.1	
464.7	8092.2	
464.9	7787.7	
465.1	7569.3	
465.3	6484.6	
465.5	8404.9	
465.7	8385.7	
465.9	6768.5	
466.1	6571.9	
466.3	8263.6	
466.5	8077.2	
466.7	7447.1	
466.9	6346	
467.1	8030.8	
467.3	8921	
467.5	7359	
467.7	6146	
467.9	9220	
468.1	10049	
468.3	7004.7	
468.5	7483.3	
468.7	8011.7	
468.9	7914.7	
469.1	6462.7	
469.3	7228.6	
469.5	9998.9	
469.7	7536.5	
469.9	7069.6	
470.1	6235.4	
470.3	7943.4	
470.5	7951.6	
470.7	7582.9	
470.9	6397.9	
471.1	7619.8	
471.3	8227.4	
471.5	6118	
471.69	8194.6	
471.89	7653.9	
472.09	7177.4	
472.29	7071.6	
472.49	7444.4	
472.69	7324.9	
472.89	8232.8	
473.09	6081.8	
473.29	6260	
473.49	7497.6	
473.69	7781.6	
473.89	7204.1	
474.09	6384.2	
474.29	9012.4	
474.49	8692.9	
474.69	7209.5	
474.89	6466.8	
475.09	7733.1	
475.29	7783.6	
475.49	5868.1	
475.69	6165.1	
475.88	9316.9	
476.08	8091.5	
476.28	5776.6	
476.48	6336.4	
476.68	8554.4	
476.88	8446.5	
477.08	6232.7	
477.28	6582.9	
477.48	7885.4	
477.68	8591.2	
477.88	6040.1	
478.08	6341.2	
478.28	8757.8	
478.48	7944.8	
478.67	6466.8	
478.87	5816.9	
479.07	8686.1	
479.27	8101.1	
479.47	6610.2	
479.67	6634.1	
479.87	8486.1	
480.07	8974.2	
480.27	5924.8	
480.47	7583.6	
480.67	8218.5	
480.87	8739.4	
481.06	6172.6	
481.26	7080.5	
481.46	8001.4	
481.66	8017.8	
481.86	6651.8	
482.06	7735.2	
482.26	7674.4	
482.46	8724.3	
482.66	6625.9	
482.86	6144.6	
483.05	8090.8	
483.25	7572	
483.45	9090.3	
483.65	6638.8	
483.85	7729	
484.05	8058.8	
484.25	7060.7	
484.45	7507.9	
484.65	9013.8	
484.84	8899.1	
485.04	6503	
485.24	6490.7	
485.44	9168.1	
485.64	7404.1	
485.84	5756.2	
486.04	7174.7	
486.24	7838.9	
486.44	8230.1	
486.63	5785.5	
486.83	6461.3	
487.03	7720.2	
487.23	7940.7	
487.43	5872.9	
487.63	8400.8	
487.83	7919.5	
488.02	8923	
488.22	6801.3	
488.42	7534.5	
488.62	8933.2	
488.82	7785.7	
489.02	6536.4	
489.22	6533	
489.41	8788.5	
489.61	8429.4	
489.81	6265.4	
490.01	6269.5	
490.21	8697	
490.41	9361.3	
490.61	6210.1	
490.8	6398.5	
491	8218.5	
491.2	7493.5	
491.4	6984.9	
491.6	6068.1	
491.8	8156.4	
491.99	8320.2	
492.19	5933.6	
492.39	6294.1	
492.59	8708.6	
492.79	8772.8	
492.99	7211.6	
493.18	6203.3	
493.38	8839	
493.58	9463	
493.78	6975.4	
493.98	6541.9	
494.18	8575.5	
494.37	8046.5	
494.57	7193.1	
494.77	7147.4	
494.97	8673.8	
495.17	9002.9	
495.37	6619.7	
495.56	7037.5	
495.76	9160.6	
495.96	8916.9	
496.16	7935.9	
496.36	6823.1	
496.55	8933.9	
496.75	8556.4	
496.95	7211.6	
497.15	7045.7	
497.35	8955.8	
497.54	8983.1	
497.74	6874.3	
497.94	8724.3	
498.14	9697.8	
498.34	9426.8	
498.53	6602.7	
498.73	7413	
498.93	8460.8	
499.13	8994.7	
499.33	7093.5	
499.52	7714	
499.72	8939.4	
499.92	9265	
500.12	6905.1	
500.32	7113.3	
500.51	9215.2	
500.71	8953.7	
500.91	8028	
501.11	7580.9	
501.31	9138	
501.5	9505.3	
501.7	8163.9	
501.9	7123.5	
502.1	8969.4	
502.29	9190.6	
502.49	7578.2	
502.69	8147.5	
502.89	9144.2	
503.09	9176.9	
503.28	6664.8	
503.48	6845	
503.68	8364.6	
503.88	8322.9	
504.07	7807.5	
504.27	7296.9	
504.47	8790.6	
504.67	8871.8	
504.86	7686.7	
505.06	7348.1	
505.26	8513.4	
505.46	10256	
505.65	7303.1	
505.85	7537.2	
506.05	8307.2	
506.25	8909.3	
506.44	6653.9	
506.64	7587	
506.84	8350.3	
507.04	9250.7	
507.23	6785.6	
507.43	7433.4	
507.63	10400	
507.83	8579.6	
508.02	7421.2	
508.22	7052.5	
508.42	10626	
508.62	8385.7	
508.81	7252.5	
509.01	8016.4	
509.21	8214.4	
509.4	8528.4	
509.6	7565.9	
509.8	6886	
510	8514.8	
510.19	10015	
510.39	6881.9	
510.59	6916.7	
510.79	8295	
510.98	9780.4	
511.18	7000.6	
511.38	7066.9	
511.57	9103.9	
511.77	9098.4	
511.97	7839.6	
512.17	6634.7	
512.36	9081.4	
512.56	9069.8	
512.76	6896.9	
512.95	6563.7	
513.15	9269.1	
513.35	7841	
513.55	7687.4	
513.74	6905.1	
513.94	9253.4	
514.14	8572.8	
514.33	7852.6	
514.53	7548.8	
514.73	8535.9	
514.92	8779.6	
515.12	7035.5	
515.32	6883.9	
515.51	8748.2	
515.71	9398.8	
515.91	8543.4	
516.11	6934.4	
516.3	10618	
516.5	8432.2	
516.7	7529	
516.89	8198	
517.09	8568	
517.29	8471.1	
517.48	7826.7	
517.68	7114	
517.88	8344.8	
518.07	9028.1	
518.27	7767.9	
518.47	6782.2	
518.66	9579.7	
518.86	8137.9	
519.06	6651.8	
519.25	7140.6	
519.45	8510.7	
519.65	10002	
519.84	7776.8	
520.04	8482.7	
520.24	10435	
520.43	9183.1	
520.63	7533.8	
520.83	7205.4	
521.02	8335.2	
521.22	9096.4	
521.42	7784.3	
521.61	8329.8	
521.81	8615.1	
522.01	8832.2	
522.2	7602.1	
522.4	7406.1	
522.6	9351	
522.79	8041	
522.99	7499.7	
523.18	6786.3	
523.38	9004.2	
523.58	9047.2	
523.77	8852	
523.97	6766.5	
524.17	10941	
524.36	10071	
524.56	8211.7	
524.76	7802.8	
524.95	9012.4	
525.15	8688.8	
525.34	7686.7	
525.54	7641.7	
525.74	9566.7	
525.93	8497	
526.13	8906.6	
526.33	7570.7	
526.52	9798.8	
526.72	9321	
526.91	8908	
527.11	8161.8	
527.31	9966.8	
527.5	10316	
527.7	8048.5	
527.89	7077.8	
528.09	8798.1	
528.29	9385.8	
528.48	8424.7	
528.68	8079.9	
528.87	9763.3	
529.07	9843.9	
529.27	8009.6	
529.46	7461.4	
529.66	9454.8	
529.85	9906	
530.05	7367.2	
530.25	8208.9	
530.44	10869	
530.64	9346.2	
530.83	7792.5	
531.03	8083.3	
531.23	9884.2	
531.42	9731.9	
531.62	8822.6	
531.81	7943.4	
532.01	9987.9	
532.21	10441	
532.4	7805.5	
532.6	8206.2	
532.79	10934	
532.99	10044	
533.18	8334.6	
533.38	9232.2	
533.58	9633.6	
533.77	10314	
533.97	8206.2	
534.16	8994.7	
534.36	10637	
534.55	9737.4	
534.75	9228.8	
534.95	8295	
535.14	10534	
535.34	9698.5	
535.53	7927	
535.73	10008	
535.92	11091	
536.12	9800.9	
536.31	8090.8	
536.51	9277.3	
536.71	10212	
536.9	9706	
537.1	8216.5	
537.29	8344.8	
537.49	10597	
537.68	9613.2	
537.88	8835.6	
538.07	7950.2	
538.27	9824.8	
538.46	10945	
538.66	7896.3	
538.86	8347.5	
539.05	9901.2	
539.25	10432	
539.44	8699.8	
539.64	8173.4	
539.83	9813.9	
540.03	10804	
540.22	8069.7	
540.42	8213.7	
540.61	10019	
540.81	10107	
541	8679.3	
541.2	9342.8	
541.39	9546.9	
541.59	10032	
541.78	9046.6	
541.98	8030.8	
542.18	9196.7	
542.37	9240.4	
542.57	8503.2	
542.76	9043.8	
542.96	9314.8	
543.15	10029	
543.35	8505.2	
543.54	7785.7	
543.74	10281	
543.93	9924.5	
544.13	8493.6	
544.32	9579.7	
544.52	10111	
544.71	9362.6	
544.91	7531.1	
545.1	8811	
545.3	9444.5	
545.49	10178	
545.69	7600.7	
545.88	8150.2	
546.08	11060	
546.27	10590	
546.47	8593.3	
546.66	7888.1	
546.86	10316	
547.05	10989	
547.24	8128.4	
547.44	7930.4	
547.63	9267.1	
547.83	10509	
548.02	8396	
548.22	8604.2	
548.41	9024.7	
548.61	10514	
548.8	7955.7	
549	7906.5	
549.19	9718.3	
549.39	10088	
549.58	7608.2	
549.78	8147.5	
549.97	10173	
550.17	9669.8	
550.36	9833	
550.55	10065	
550.75	9600.9	
550.94	10585	
551.14	7742.7	
551.33	8314.8	
551.53	8867.7	
551.72	10027	
551.92	8284.7	
552.11	8037.6	
552.31	10002	
552.5	10073	
552.69	9665.7	
552.89	7669	
553.08	9920.4	
553.28	9686.9	
553.47	8094.9	
553.67	9201.5	
553.86	10686	
554.06	8837	
554.25	7219.1	
554.44	7871	
554.64	11325	
554.83	10860	
555.03	7763.8	
555.22	8170	
555.42	10137	
555.61	9824.1	
555.8	7961.8	
556	8335.9	
556.19	8866.3	
556.39	10238	
556.58	8054.7	
556.78	8013	
556.97	9769.5	
557.16	9486.2	
557.36	9327.1	
557.55	7660.8	
557.75	8646.5	
557.94	10566	
558.13	7762.5	
558.33	7549.5	
558.52	10355	
558.72	9177.6	
558.91	7619.1	
559.1	7983	
559.3	8925.7	
559.49	8544.1	
559.69	7180.9	
559.88	8220.5	
560.07	9649.3	
560.27	10132	
560.46	8462.2	
560.66	8525	
560.85	9390.6	
561.04	8725	
561.24	7544.7	
561.43	7776.1	
561.63	8920.3	
561.82	9237.7	
562.01	9082.7	
562.21	8105.9	
562.4	9551.7	
562.59	10682	
562.79	7993.2	
562.98	7602.1	
563.18	9452.7	
563.37	11107	
563.56	8543.4	
563.76	7547.4	
563.95	9058.8	
564.14	9043.8	
564.34	7942	
564.53	7698.3	
564.73	9579	
564.92	9982.5	
565.11	8147.5	
565.31	7453.2	
565.5	10206	
565.69	9101.9	
565.89	7666.2	
566.08	7961.1	
566.27	10002	
566.47	10420	
566.66	8596.7	
566.85	7333.8	
567.05	9647.3	
567.24	8958.5	
567.44	7510.6	
567.63	9124.4	
567.82	9869.8	
568.02	9649.3	
568.21	7570.7	
568.4	8039.6	
568.6	9407.7	
568.79	9516.2	
568.98	7400	
569.18	7591.1	
569.37	9374.9	
569.56	11493	
569.76	7882.6	
569.95	8982.4	
570.14	9944.9	
570.34	9804.3	
570.53	7447.1	
570.72	7451.9	
570.91	10247	
571.11	9386.5	
571.3	8032.1	
571.49	8917.5	
571.69	9377	
571.88	9003.6	
572.07	8443.1	
572.27	8507.3	
572.46	8975.6	
572.65	10060	
572.85	7654.6	
573.04	8048.5	
573.23	10299	
573.43	9446.6	
573.62	7454.6	
573.81	8134.5	
574	9534.7	
574.2	9329.2	
574.39	7871.7	
574.58	8026	
574.78	10474	
574.97	9684.2	
575.16	8374.8	
575.36	8532.5	
575.55	10058	
575.74	10195	
575.93	7454.6	
576.13	8630.8	
576.32	9402.2	
576.51	10066	
576.71	7980.3	
576.9	9414.5	
577.09	10331	
577.28	9843.9	
577.48	8472.4	
577.67	7374.1	
577.86	9426.8	
578.05	9800.2	
578.25	8019.8	
578.44	8138.6	
578.63	9578.3	
578.83	10844	
579.02	7391.1	
579.21	9008.3	
579.4	9775	
579.6	9477.3	
579.79	8262.2	
579.98	10415	
580.17	10297	
580.37	10189	
580.56	7570	
580.75	8374.8	
580.94	10732	
581.14	10449	
581.33	8886.1	
581.52	7845.8	
581.71	10004	
581.91	10571	
582.1	7461.4	
582.29	8049.9	
582.48	9639.8	
582.68	9577.7	
582.87	8602.8	
583.06	8157.1	
583.25	9833.7	
583.45	9364	
583.64	8866.3	
583.83	9665.7	
584.02	9358.5	
584.21	9828.9	
584.41	8850	
584.6	8093.6	
584.79	9531.9	
584.98	10411	
585.18	7527.7	
585.37	7582.9	
585.56	9151.7	
585.75	9921.7	
585.94	7824.6	
586.14	8479.3	
586.33	10479	
586.52	9650	
586.71	8221.9	
586.91	7965.2	
587.1	8998.8	
587.29	9960.6	
587.48	8002.8	
587.67	7695.6	
587.87	9872.6	
588.06	9876	
588.25	9060.2	
588.44	8485.4	
588.63	9543.5	
588.83	9991.4	
589.02	7814.4	
589.21	7746.1	
589.4	9213.1	
589.59	9037.7	
589.78	6949.4	
589.98	7245.7	
590.17	8589.2	
590.36	9236.3	
590.55	6561.7	
590.74	7445.7	
590.94	10653	
591.13	9152.4	
591.32	7175.4	
591.51	6709.1	
591.7	9572.2	
591.89	9060.9	
592.09	6842.3	
592.28	7348.8	
592.47	8328.4	
592.66	10107	
592.85	6858.6	
593.05	7018.4	
593.24	8798.1	
593.43	9667.8	
593.62	7145.4	
593.81	7669	
594	8920.3	
594.19	9187.9	
594.39	7100.3	
594.58	7070.3	
594.77	9250	
594.96	9836.4	
595.15	6987.7	
595.34	7626	
595.54	9336	
595.73	8295	
595.92	6305	
596.11	7529	
596.3	9800.2	
596.49	8413.7	
596.68	7311.2	
596.88	7726.3	
597.07	9570.8	
597.26	8331.8	
597.45	6716.7	
597.64	8047.2	
597.83	8559.1	
598.02	9166.7	
598.22	6856.6	
598.41	7539.9	
598.6	9052.7	
598.79	8403.5	
598.98	6964.5	
599.17	7897	
599.36	8994	
599.55	10189	
599.74	9032.2	
599.94	8798.1	
600.13	9511.4	
600.32	8318.2	
600.51	6656.6	
600.7	6832	
600.89	10174	
601.08	10260	
601.27	6593.8	
601.47	7536.5	
601.66	9464.3	
601.85	10022	
602.04	7249.8	
602.23	7537.2	
602.42	8452.6	
602.61	9153.1	
602.8	7212.3	
602.99	7034.8	
603.18	8787.8	
603.37	9073.2	
603.57	7600.7	
603.76	8283.4	
603.95	9945.6	
604.14	9400.9	
604.33	6995.9	
604.52	7449.1	
604.71	9097.8	
604.9	8741.4	
605.09	7941.3	
605.28	7772	
605.47	9615.9	
605.66	9412.5	
605.86	7652.6	
606.05	7047.7	
606.24	9548.3	
606.43	8178.2	
606.62	7395.2	
606.81	8122.9	
607	9499.8	
607.19	8809.7	
607.38	6787	
607.57	7080.5	
607.76	8516.1	
607.95	7984.3	
608.14	7416.4	
608.33	8101.1	
608.52	8497	
608.72	9452.7	
608.91	6611.5	
609.1	6616.3	
609.29	8640.4	
609.48	8185.7	
609.67	7610.3	
609.86	6619	
610.05	8221.9	
610.24	8553	
610.43	6520	
610.62	6115.2	
610.81	9777.7	
611	9442.5	
611.19	6649.1	
611.38	7395.2	
611.57	8849.3	
611.76	10269	
611.95	6421.7	
612.14	6310.5	
612.33	8690.2	
612.52	8206.9	
612.71	7025.2	
612.9	6086.6	
613.09	7760.4	
613.28	10232	
613.47	6588.3	
613.66	7628	
613.85	8704.5	
614.04	8275.2	
614.24	6771.3	
614.43	5985.5	
614.62	8955.8	
614.81	8857.5	
615	7379.5	
615.19	7399.3	
615.38	8104.5	
615.57	8576.2	
615.76	7205.4	
615.95	8206.2	
616.14	8862.2	
616.33	8630.8	
616.52	7555	
616.71	7855.3	
616.9	8902.5	
617.09	8794	
617.28	6845.7	
617.47	8056.7	
617.66	8004.1	
617.85	8027.4	
618.04	7903.1	
618.22	7262.8	
618.41	8296.3	
618.6	9196.1	
618.79	7189.1	
618.98	6805.4	
619.17	9558.6	
619.36	7920.2	
619.55	6985.6	
619.74	7064.8	
619.93	8829.5	
620.12	8295.6	
620.31	7691.5	
620.5	7785.7	
620.69	9506.7	
620.88	9837.1	
621.07	8426	
621.26	7429.3	
621.45	8989.9	
621.64	9084.1	
621.83	7593.2	
622.02	6720.1	
622.21	9081.4	
622.4	8805.6	
622.59	8143.4	
622.78	7885.4	
622.97	8399.4	
623.16	9525.8	
623.35	7519.5	
623.54	6607.4	
623.72	8615.8	
623.91	8740.7	
624.1	7849.2	
624.29	6513.2	
624.48	9982.5	
624.67	9119.6	
624.86	7684	
625.05	6664.1	
625.24	9995.5	
625.43	8393.3	
625.62	9371.5	
625.81	6985.6	
626	9503.9	
626.19	8662.9	
626.38	7791.2	
626.56	7056.6	
626.75	8484.1	
626.94	9266.4	
627.13	7704.5	
627.32	6480.5	
627.51	9121	
627.7	10454	
627.89	6574	
628.08	7744.1	
628.27	8339.3	
628.46	8602.2	
628.65	6847.7	
628.83	6444.3	
629.02	9084.1	
629.21	8372.8	
629.4	7249.1	
629.59	7506.5	
629.78	8358.4	
629.97	9319.6	
630.16	7605.5	
630.35	7027.3	
630.54	9782.5	
630.72	9435.7	
630.91	6876.4	
631.1	7555	
631.29	8933.2	
631.48	9112.8	
631.67	7634.1	
631.86	7084.6	
632.05	8503.8	
632.24	8556.4	
632.42	6711.2	
632.61	7349.5	
632.8	8666.3	
632.99	8232.2	
633.18	7322.9	
633.37	7851.2	
633.56	8897.1	
633.75	8825.4	
633.93	7435.5	
634.12	6948.1	
634.31	9642.5	
634.5	9267.1	
634.69	7105.1	
634.88	7636.9	
635.07	8589.9	
635.25	9245.2	
635.44	8110.6	
635.63	8229.4	
635.82	8534.6	
636.01	8007.6	
636.2	7969.3	
636.39	7410.2	
636.57	9648.7	
636.76	9239.1	
636.95	6869.6	
637.14	8294.3	
637.33	8941.4	
637.52	9895.8	
637.7	6653.2	
637.89	7574.1	
638.08	8444.5	
638.27	10036	
638.46	7658.7	
638.65	8135.9	
638.83	9948.3	
639.02	8361.2	
639.21	7566.6	
639.4	8031.5	
639.59	8768.7	
639.78	8386.4	
639.96	6864.1	
640.15	6859.3	
640.34	8691.6	
640.53	8802.2	
640.72	6492.7	
640.91	6916	
641.09	8082	
641.28	9416.6	
641.47	6896.9	
641.66	7711.3	
641.85	8757.8	
642.03	9032.9	
642.22	7513.3	
642.41	6928.3	
642.6	8153	
642.79	7458	
642.97	6726.2	
643.16	7460.1	
643.35	8178.2	
643.54	7939.3	
643.73	6642.2	
643.91	7445.7	
644.1	7757.7	
644.29	8376.2	
644.48	6701	
644.67	6741.2	
644.85	7980.3	
645.04	8303.1	
645.23	6204	
645.42	6618.4	
645.6	7819.1	
645.79	9075.9	
645.98	6590.4	
646.17	5615.5	
646.36	7481.2	
646.54	8144.8	
646.73	7425.3	
646.92	6094.1	
647.11	7632.8	
647.29	8964.6	
647.48	6202.6	
647.67	6009.4	
647.86	9121	
648.05	9053.4	
648.23	6544.6	
648.42	7893.6	
648.61	8451.3	
648.8	8148.2	
648.98	6088.6	
649.17	6532.3	
649.36	7695.6	
649.55	7215.7	
649.73	6197.8	
649.92	6993.8	
650.11	7555	
650.3	7896.3	
650.48	6352.1	
650.67	6099.5	
650.86	8202.1	
651.05	7112.6	
651.23	6315.9	
651.42	6244.3	
651.61	7687.4	
651.79	7776.8	
651.98	6521.4	
652.17	6047	
652.36	8241.7	
652.54	7189.7	
652.73	6135	
652.92	6016.9	
653.11	8205.5	
653.29	8224	
653.48	5420.3	
653.67	6474.3	
653.85	7913.4	
654.04	9082.7	
654.23	6685.3	
654.42	6225.1	
654.6	7484.6	
654.79	8094.3	
654.98	5614.8	
655.16	6185.5	
655.35	7012.2	
655.54	6964.5	
655.73	5710.4	
655.91	5717.2	
656.1	8189.1	
656.29	6981.5	
656.47	5178.6	
656.66	6944	
656.85	7195.9	
657.03	7271.7	
657.22	5778	
657.41	5967.1	
657.59	7369.3	
657.78	7133.1	
657.97	5491.3	
658.16	6204.7	
658.34	7996	
658.53	8329.1	
658.72	7113.3	
658.9	7676.5	
659.09	7336.5	
659.28	7508.5	
659.46	5950	
659.65	5945.9	
659.84	7239.6	
660.02	7759.1	
660.21	5793.7	
660.4	5703.6	
660.58	8186.4	
660.77	7556.3	
660.96	6363	
661.14	5370.5	
661.33	8737.3	
661.52	8527.1	
661.7	5378	
661.89	9133.3	
662.08	7204.8	
662.26	6726.2	
662.45	5624.4	
662.64	5715.9	
662.82	7809.6	
663.01	7000.6	
663.2	5764.3	
663.38	6571.9	
663.57	7789.1	
663.75	7668.3	
663.94	6056.5	
664.13	7459.4	
664.31	7088.7	
664.5	7831.4	
664.69	6307.7	
664.87	6941.9	
665.06	6754.9	
665.25	7553.6	
665.43	7175.4	
665.62	7290.8	
665.8	8010.3	
665.99	7207.5	
666.18	6047	
666.36	6180.8	
666.55	7869	
666.74	7844.4	
666.92	5669.5	
667.11	7375.4	
667.29	7229.3	
667.48	7887.4	
667.67	7015	
667.85	6207.4	
668.04	7323.5	
668.22	7273	
668.41	6161	
668.6	6326.2	
668.78	7077.1	
668.97	7331	
669.15	6475.7	
669.34	5445.5	
669.53	7026.6	
669.71	7441.6	
669.9	5600.5	
670.08	6298.9	
670.27	7102.4	
670.46	7707.9	
670.64	6528.2	
670.83	6828.6	
671.01	6954.2	
671.2	7625.3	
671.38	5676.3	
671.57	5540.4	
671.76	8206.9	
671.94	8822	
672.13	5517.9	
672.31	6681.8	
672.5	7858.7	
672.69	7040.2	
672.87	5675.6	
673.06	6030.6	
673.24	7623.2	
673.43	7031.4	
673.61	6492.1	
673.8	6049.7	
673.98	7733.8	
674.17	7947.5	
674.36	6541.2	
674.54	6423.1	
674.73	7552.9	
674.91	7791.2	
675.1	6191.7	
675.28	5713.8	
675.47	7299.6	
675.65	7903.8	
675.84	6042.9	
676.03	6327.5	
676.21	7079.8	
676.4	6622.4	
676.58	6819.1	
676.77	6521.4	
676.95	8653.4	
677.14	7026.6	
677.32	5683.1	
677.51	5352	
677.69	7839.6	
677.88	6655.2	
678.06	5551.4	
678.25	5656.5	
678.44	7370.6	
678.62	7035.5	
678.81	5371.8	
678.99	6369.2	
679.18	8170	
679.36	7748.8	
679.55	5913.2	
679.73	6669.6	
679.92	7696.3	
680.1	7034.8	
680.29	7189.7	
680.47	5875.6	
680.66	7007.5	
680.84	7872.4	
681.03	5273.5	
681.21	6513.2	
681.4	7076.4	
681.58	7030.7	
681.77	5702.9	
681.95	5628.5	
682.14	7881.3	
682.32	8296.3	
682.51	6658.6	
682.69	5410.7	
682.88	6989.7	
683.06	7758.4	
683.25	6391	
683.43	6838.9	
683.62	7316.7	
683.8	7757	
683.99	6918.7	
684.17	6225.8	
684.36	8619.9	
684.54	7176.1	
684.73	5286.5	
684.91	5520	
685.1	7456	
685.28	6918.7	
685.46	6074.3	
685.65	6260.6	
685.83	7672.4	
686.02	7050.5	
686.2	5585.5	
686.39	5720.7	
686.57	7016.3	
686.76	8429.4	
686.94	5659.9	
687.13	5857.2	
687.31	7634.8	
687.5	7159.7	
687.68	5173.2	
687.86	6533.7	
688.05	8888.2	
688.23	6648.4	
688.42	6600.6	
688.6	5753.4	
688.79	7061.4	
688.97	7070.3	
689.16	6140.5	
689.34	5039.4	
689.52	7864.9	
689.71	8063.5	
689.89	6391	
690.08	5771.9	
690.26	7339.2	
690.45	7174	
690.63	6636.8	
690.81	5879	
691	7037.5	
691.18	7071	
691.37	6105.7	
691.55	8395.3	
691.74	6971.3	
691.92	9079.3	
692.1	6070.2	
692.29	5457.8	
692.47	7208.2	
692.66	6533	
692.84	5728.9	
693.02	6285.2	
693.21	6699.6	
693.39	7139.9	
693.58	6350.1	
693.76	5794.4	
693.94	8458.1	
694.13	8191.9	
694.31	5758.9	
694.5	6890	
694.68	6991.8	
694.86	7439.6	
695.05	6160.3	
695.23	6616.3	
695.42	7835.5	
695.6	10209	
695.78	6894.1	
695.97	5918.6	
696.15	7817.8	
696.34	7247.8	
696.52	5693.4	
696.7	6457.2	
696.89	7649.2	
697.07	7054.6	
697.25	6457.2	
697.44	8143.4	
697.62	7617.1	
697.81	8024.6	
697.99	6173.3	
698.17	6587	
698.36	6908.5	
698.54	7603.4	
698.72	6561.7	
698.91	5500.8	
699.09	7219.1	
699.28	7092.8	
699.46	6175.3	
699.64	6035.4	
699.83	7036.8	
700.01	8419.2	
700.19	6950.1	
700.38	5245.5	
700.56	8365.3	
700.74	7137.9	
700.93	5684.5	
701.11	6476.4	
701.29	7747.5	
701.48	8830.8	
701.66	5926.1	
701.84	5999.2	
702.03	7421.2	
702.21	7970.7	
702.39	5555.5	
702.58	6195.1	
702.76	7710.6	
702.94	7883.3	
703.13	5573.2	
703.31	8063.5	
703.49	7012.9	
703.68	8009.6	
703.86	5808.7	
704.04	6888	
704.23	7531.1	
704.41	8034.2	
704.59	6000.5	
704.78	7223.9	
704.96	8703.2	
705.14	8093.6	
705.33	5720.7	
705.51	6590.4	
705.69	7484	
705.87	8384.4	
706.06	6969.2	
706.24	5704.3	
706.42	7813.7	
706.61	8054	
706.79	6978.1	
706.97	5765.7	
707.16	7274.4	
707.34	7929.7	
707.52	6919.4	
707.7	6070.9	
707.89	7408.9	
708.07	7108.5	
708.25	6968.6	
708.44	7036.1	
708.62	7367.2	
708.8	8576.9	
708.98	7217.7	
709.17	6163	
709.35	7813.7	
709.53	7813	
709.72	5829.9	
709.9	5988.9	
710.08	8010.3	
710.26	8073.1	
710.45	7492.8	
710.63	6140.5	
710.81	7688.8	
710.99	7814.4	
711.18	6812.2	
711.36	6322.1	
711.54	7539.9	
711.72	8326.4	
711.91	6485.2	
712.09	5825.8	
712.27	7732.4	
712.45	8676.6	
712.64	6724.8	
712.82	5621.7	
713	7076.4	
713.18	7286.7	
713.37	5785.5	
713.55	6920.8	
713.73	8148.2	
713.91	6697.5	
714.1	6100.9	
714.28	5577.3	
714.46	7796.6	
714.64	6910.5	
714.83	4963.6	
715.01	5766.4	
715.19	6946.7	
715.37	6354.2	
715.55	5467.4	
715.74	5765	
715.92	7979.6	
716.1	5859.9	
716.28	6902.3	
716.47	5894.7	
716.65	6537.1	
716.83	6695.5	
717.01	5710.4	
717.19	5840.1	
717.38	8800.8	
717.56	6288.6	
717.74	6076.3	
717.92	5151.3	
718.1	7569.3	
718.29	6815.6	
718.47	4804.5	
718.65	5477.6	
718.83	7528.3	
719.01	7524.9	
719.2	4723.3	
719.38	5875.6	
719.56	7258	
719.74	8958.5	
719.92	5459.9	
720.11	6526.2	
720.29	7280.5	
720.47	6361.7	
720.65	5036.6	
720.83	5834	
721.02	6685.3	
721.2	6418.3	
721.38	5894.1	
721.56	5114.5	
721.74	5914.5	
721.92	6121.4	
722.11	6326.2	
722.29	6020.3	
722.47	7451.2	
722.65	6560.3	
722.83	5079	
723.01	6087.2	
723.2	6683.2	
723.38	6984.9	
723.56	4551.3	
723.74	5802.6	
723.92	6148.7	
724.1	7406.8	
724.29	5063.3	
724.47	6371.9	
724.65	6219	
724.83	6159.6	
725.01	4971.8	
725.19	5937.7	
725.37	6257.9	
725.56	6233.3	
725.74	4771.8	
725.92	5037.3	
726.1	6128.9	
726.28	6477.7	
726.46	5464.7	
726.64	5282.4	
726.83	6476.4	
727.01	6759	
727.19	4778.6	
727.37	5740.5	
727.55	6597.2	
727.73	7116	
727.91	4775.9	
728.09	4621.6	
728.28	7161.1	
728.46	7828.7	
728.64	5813.5	
728.82	5752.7	
729	8299.7	
729.18	7441	
729.36	4962.9	
729.54	7292.1	
729.72	8570.1	
729.91	6754.2	
730.09	6917.4	
730.27	5658.5	
730.45	6670.9	
730.63	7407.5	
730.81	6423.8	
730.99	5364.3	
731.17	7948.8	
731.35	6509.8	
731.53	6007.4	
731.71	5502.2	
731.9	7650.5	
732.08	7843.7	
732.26	5687.2	
732.44	5457.2	
732.62	7887.4	
732.8	7402.7	
732.98	6101.6	
733.16	5171.1	
733.34	7268.9	
733.52	6114.6	
733.7	5743.9	
733.88	6029.2	
734.07	7135.8	
734.25	6935.1	
734.43	5184.8	
734.61	6803.4	
734.79	8479.3	
734.97	6809.5	
735.15	5275.6	
735.33	5650.3	
735.51	7189.7	
735.69	6815.6	
735.87	6855.9	
736.05	5891.3	
736.23	7030.7	
736.41	6789	
736.59	5672.2	
736.77	5821.7	
736.95	7436.2	
737.13	6853.2	
737.32	5294.7	
737.5	5545.2	
737.68	8038.3	
737.86	6713.2	
738.04	5091.3	
738.22	7093.5	
738.4	6549.4	
738.58	6854.6	
738.76	5796.4	
738.94	4698.7	
739.12	6682.5	
739.3	6556.2	
739.48	6408.8	
739.66	6148.7	
739.84	6885.3	
740.02	6993.1	
740.2	4855.7	
740.38	5199.8	
740.56	7357.7	
740.74	6185.5	
740.92	5874.3	
741.1	5825.8	
741.28	6744	
741.46	6608.8	
741.64	5412.8	
741.82	5894.7	
742	6764.4	
742.18	6731	
742.36	5583.4	
742.54	5201.8	
742.72	7302.4	
742.9	6060.6	
743.08	5990.3	
743.26	4762.2	
743.44	7579.5	
743.62	7324.2	
743.8	6119.3	
743.98	5149.3	
744.16	7066.9	
744.34	6703.7	
744.52	6006	
744.7	6016.2	
744.88	7174.7	
745.06	6672.3	
745.24	6047.7	
745.42	6220.4	
745.6	7260.7	
745.78	7027.3	
745.96	4821.6	
746.14	5230.5	
746.32	8072.4	
746.5	7273	
746.68	5757.5	
746.86	5225.1	
747.03	7693.5	
747.21	5912.5	
747.39	5763.7	
747.57	5211.4	
747.75	6849.1	
747.93	7227.3	
748.11	5128.1	
748.29	5080.3	
748.47	8488.1	
748.65	6548	
748.83	5904.3	
749.01	5565	
749.19	7046.4	
749.37	6219	
749.55	5481	
749.73	5618.9	
749.91	6726.2	
750.09	6488	
750.26	5603.9	
750.44	4967	
750.62	6737.8	
750.8	6791.1	
750.98	4773.8	
751.16	5216.2	
751.34	6834.8	
751.52	6043.6	
751.7	6016.2	
751.88	4857.1	
752.06	7309.2	
752.24	7107.1	
752.42	4738.3	
752.59	5174.5	
752.77	6628.6	
752.95	7932.5	
753.13	5884.5	
753.31	5272.2	
753.49	6336.4	
753.67	6825.9	
753.85	5645.6	
754.03	5115.8	
754.21	7072.3	
754.38	7395.9	
754.56	5275.6	
754.74	4294.6	
754.92	6270.9	
755.1	6993.1	
755.28	4314.4	
755.46	4301.4	
755.64	7764.5	
755.82	7799.3	
755.99	4493.2	
756.17	4630.5	
756.35	5135.6	
756.53	6758.3	
756.71	3420.1	
756.89	4341	
757.07	6362.4	
757.25	5356.1	
757.42	4937.7	
757.6	5847	
757.78	6422.4	
757.96	5389.6	
758.14	4686.4	
758.32	4165.6	
758.5	4914.4	
758.67	5795.1	
758.85	4543.8	
759.03	4612.7	
759.21	5956.9	
759.39	5330.9	
759.57	4071.4	
759.75	5266	
759.92	6663.4	
760.1	5866.1	
760.28	5618.9	
760.46	5926.1	
760.64	5702.2	
760.82	5427.8	
760.99	5487.2	
761.17	4655	
761.35	6505.7	
761.53	5519.3	
761.71	4799.8	
761.89	5539.8	
762.06	6411.5	
762.24	5883.8	
762.42	4832.5	
762.6	4648.9	
762.78	5965.1	
762.96	6616.3	
763.13	5293.3	
763.31	4954	
763.49	6795.8	
763.67	5928.2	
763.85	5817.6	
764.02	6390.3	
764.2	7126.2	
764.38	6189	
764.56	4811.4	
764.74	5778.7	
764.91	7167.9	
765.09	6019.7	
765.27	4539.7	
765.45	4243.4	
765.63	7226.6	
765.8	7118.1	
765.98	3981.9	
766.16	4355.3	
766.34	5562.3	
766.52	5393.7	
766.69	5244.2	
766.87	4207.2	
767.05	6005.3	
767.23	6742.6	
767.41	4487.8	
767.58	4786.1	
767.76	6598.6	
767.94	6662	
768.12	4575.2	
768.29	5362.3	
768.47	6063.4	
768.65	6761	
768.83	4232.5	
769	5424.4	
769.18	5534.3	
769.36	6365.8	
769.54	5264	
769.72	4242	
769.89	6563.7	
770.07	6743.3	
770.25	4515.8	
770.43	5842.9	
770.6	7337.9	
770.78	7935.9	
770.96	4724	
771.14	5399.1	
771.31	6450.4	
771.49	5842.9	
771.67	3822.2	
771.85	4151.9	
772.02	5055.1	
772.2	5786.9	
772.38	4840.7	
772.55	4382	
772.73	6137.1	
772.91	5849.7	
773.09	4784.7	
773.26	4863.2	
773.44	6031.3	
773.62	5817.6	
773.8	4173.1	
773.97	3926	
774.15	6111.1	
774.33	5758.2	
774.5	4122.6	
774.68	4509.6	
774.86	6309.8	
775.04	5688.6	
775.21	4236.6	
775.39	4167.6	
775.57	6051.7	
775.74	6462	
775.92	3973.1	
776.1	3846.1	
776.27	6024.4	
776.45	7264.8	
776.63	4229.1	
776.81	3720.5	
776.98	5561.6	
777.16	6780.1	
777.34	4330.8	
777.51	4272.7	
777.69	5614.8	
777.87	5299.5	
778.04	4360.1	
778.22	5044.1	
778.4	5403.2	
778.57	6037.4	
778.75	3560.7	
778.93	3934.1	
779.1	5165	
779.28	5051.7	
779.46	3690.4	
779.64	4169	
779.81	6240.2	
779.99	7147.4	
780.17	4949.9	
780.34	5109	
780.52	5612.8	
780.69	5825.1	
780.87	4455	
781.05	4052.2	
781.22	5696.1	
781.4	5809.4	
781.58	4156	
781.75	3354.6	
781.93	5749.3	
782.11	5179.3	
782.28	5153.4	
782.46	4099.4	
782.64	4983.4	
782.81	5973.2	
782.99	4232.5	
783.17	4186	
783.34	5808	
783.52	5014.8	
783.69	4423.6	
783.87	5280.3	
784.05	5136.3	
784.22	5092.6	
784.4	5308.3	
784.58	4498.7	
784.75	6101.6	
784.93	5146.5	
785.1	4207.2	
785.28	4858.5	
785.46	5814.2	
785.63	5051.7	
785.81	4115.7	
785.99	3968.3	
786.16	5270.8	
786.34	5657.2	
786.51	3984	
786.69	4366.3	
786.87	4900.1	
787.04	5385.5	
787.22	3852.9	
787.39	4863.2	
787.57	5103.5	
787.75	6279.1	
787.92	5017.5	
788.1	5001.1	
788.27	5170.4	
788.45	4887.8	
788.63	4627	
788.8	3361.4	
788.98	5528.8	
789.15	4835.9	
789.33	3457.7	
789.5	4158.7	
789.68	6085.9	
789.86	6252.4	
790.03	4594.3	
790.21	4058.4	
790.38	6049.7	
790.56	5266	
790.73	3875.4	
790.91	3883.6	
791.09	5100.8	
791.26	5932.3	
791.44	4106.9	
791.61	3562.1	
791.79	5097.4	
791.96	5247.6	
792.14	3687	
792.32	3240.6	
792.49	5093.3	
792.67	5193	
792.84	3738.2	
793.02	3532.7	
793.19	5558.2	
793.37	6363.7	
793.54	3252.2	
793.72	3622.9	
793.89	6473.6	
794.07	5122	
794.25	4304.8	
794.42	3300	
794.6	6238.8	
794.77	5812.1	
794.95	4541	
795.12	3980.6	
795.3	5087.8	
795.47	5757.5	
795.65	4330.1	
795.82	4194.9	
796	4894.6	
796.17	6931	
796.35	3987.4	
796.52	4820.9	
796.7	5646.2	
796.87	5799.2	
797.05	5031.9	
797.22	4965	
797.4	5748	
797.57	6800.6	
797.75	4227	
797.92	3940.3	
798.1	6027.9	
798.27	5037.3	
798.45	3372.3	
798.62	3619.4	
798.8	5399.8	
798.97	5931.6	
799.15	4473.4	
799.32	4199.7	
799.5	4658.4	
799.67	5537.7	
799.85	4552.6	
800.02	3233.7	
800.2	5072.8	
800.37	5444.2	
800.55	4692.6	
800.72	3906.2	
800.9	5898.8	
801.07	6363.7	
801.25	5263.3	
801.42	4347.2	
801.6	5885.2	
801.77	5700.9	
801.95	4046.1	
802.12	3865.9	
802.29	5660.6	
802.47	5584.8	
802.64	4285	
802.82	3230.3	
802.99	5055.1	
803.17	6138.4	
803.34	4203.8	
803.52	3749.1	
803.69	6830	
803.87	4782	
804.04	4135.5	
804.21	4261.8	
804.39	6255.2	
804.56	5326.1	
804.74	3553.2	
804.91	4354.7	
805.09	5082.4	
805.26	5215.5	
805.44	3546.4	
805.61	3940.3	
805.78	5745.9	
805.96	5824.4	
806.13	4323.9	
806.31	4641.4	
806.48	4624.3	
806.66	5193	
806.83	4326	
807	4266.6	
807.18	5081	
807.35	5509	
807.53	4201.7	
807.7	3315.7	
807.87	6294.1	
808.05	5164.3	
808.22	4650.9	
808.4	3325.9	
808.57	5171.1	
808.74	4723.3	
808.92	3809.2	
809.09	4902.8	
809.27	4971.8	
809.44	5641.5	
809.61	3399.6	
809.79	3802.4	
809.96	6356.2	
810.14	5909.1	
810.31	3237.2	
810.48	4014	
810.66	5194.3	
810.83	5980.8	
811.01	3831.7	
811.18	4250.2	
811.35	5887.9	
811.53	4583.4	
811.7	4681.7	
811.87	4328.7	
812.05	5097.4	
812.22	5038	
812.39	3676.8	
812.57	3612.6	
812.74	5154.1	
812.92	6892.1	
813.09	3945.1	
813.26	4370.4	
813.44	6585.6	
813.61	5096	
813.78	3358.7	
813.96	4489.8	
814.13	5117.9	
814.3	4775.2	
814.48	4948.6	
814.65	4123.9	
814.82	6439.5	
815	4921.3	
815.17	4166.3	
815.34	5117.2	
815.52	5026.4	
815.69	5048.2	
815.87	4106.9	
816.04	3552.5	
816.21	5156.8	
816.38	4508.9	
816.56	4019.5	
816.73	3704.8	
816.9	6460	
817.08	5941.2	
817.25	3745.1	
817.42	4753.3	
817.6	4642.7	
817.77	5143.8	
817.94	4285	
818.12	3731.4	
818.29	4883.7	
818.46	7720.8	
818.64	3865.9	
818.81	3651.5	
818.98	4737	
819.16	7022.5	
819.33	4477.5	
819.5	4159.4	
819.67	5587.5	
819.85	6184.9	
820.02	4064.5	
820.19	4371	
820.37	5395	
820.54	4923.3	
820.71	4172.4	
820.88	5188.9	
821.06	5433.3	
821.23	4883	
821.4	4262.5	
821.58	4192.9	
821.75	5950.7	
821.92	5320.6	
822.09	3421.5	
822.27	3526.6	
822.44	5139.7	
822.61	5040.7	
822.79	3386.7	
822.96	6537.1	
823.13	5669.5	
823.3	4863.2	
823.48	3864.5	
823.65	3579.8	
823.82	5877	
823.99	4620.9	
824.17	5030.5	
824.34	3609.2	
824.51	6823.8	
824.68	5216.2	
824.86	3828.3	
825.03	4229.1	
825.2	5190.2	
825.37	6325.5	
825.55	3730	
825.72	4198.3	
825.89	6858	
826.06	6331	
826.24	4023.6	
826.41	4076.8	
826.58	6323.4	
826.75	5454.4	
826.92	3167.5	
827.1	3562.1	
827.27	8479.3	
827.44	6830	
827.61	3830.4	
827.79	4666	
827.96	4857.8	
828.13	5178.6	
828.3	3975.8	
828.47	3354.6	
828.65	5367	
828.82	5229.8	
828.99	5264	
829.16	4644.8	
829.34	5778.7	
829.51	5493.3	
829.68	4124.6	
829.85	4368.3	
830.02	6034.7	
830.2	5784.1	
830.37	3176.4	
830.54	5060.5	
830.71	6618.4	
830.88	5126.7	
831.05	3294.5	
831.23	3784	
831.4	6356.9	
831.57	7064.8	
831.74	3847.5	
831.91	3364.8	
832.09	5339.7	
832.26	5784.8	
832.43	3982.6	
832.6	4500.1	
832.77	5386.8	
832.94	6158.9	
833.12	3117	
833.29	3928	
833.46	5014.8	
833.63	7335.1	
833.8	4380.6	
833.97	4002.4	
834.15	5747.3	
834.32	5521.3	
834.49	4121.9	
834.66	4229.7	
834.83	5988.9	
835	4820.2	
835.17	3815.4	
835.35	3883.6	
835.52	5720.7	
835.69	5595.7	
835.86	4059.1	
836.03	3338.2	
836.2	5688.6	
836.37	5307	
836.55	4022.9	
836.72	3714.3	
836.89	5303.6	
837.06	5851.7	
837.23	4021.5	
837.4	4472.8	
837.57	6614.9	
837.75	7301.7	
837.92	3687	
838.09	3858.4	
838.26	5261.2	
838.43	6061.3	
838.6	4171	
838.77	3749.1	
838.94	6946.7	
839.11	6637.5	
839.29	3998.3	
839.46	3134.8	
839.63	5705.6	
839.8	5420.3	
839.97	3840.6	
840.14	3853.6	
840.31	5493.3	
840.48	5740.5	
840.65	3211.2	
840.82	3828.3	
841	5743.2	
841.17	5641.5	
841.34	3551.2	
841.51	3613.3	
841.68	5674.2	
841.85	5444.2	
842.02	3742.3	
842.19	3063.1	
842.36	5512.4	
842.53	5464.7	
842.7	3547.8	
842.87	4375.1	
843.05	7247.8	
843.22	5409.4	
843.39	3411.2	
843.56	3652.9	
843.73	5187.5	
843.9	5821.7	
844.07	5859.9	
844.24	4851.6	
844.41	8531.2	
844.58	4954	
844.75	3480.9	
844.92	3803.1	
845.09	5739.8	
845.26	5696.1	
845.43	3551.2	
845.6	3723.9	
845.77	5808	
845.94	5431.2	
846.12	3958	
846.29	4257	
846.46	5923.4	
846.63	5738.4	
846.8	3605.1	
846.97	4273.4	
847.14	6193.7	
847.31	5702.9	
847.48	3974.4	
847.65	4437.3	
847.82	5992.4	
847.99	5963.7	
848.16	4760.2	
848.33	4418.2	
848.5	5292	
848.67	6258.6	
848.84	3585.3	
849.01	3660.4	
849.18	5110.4	
849.35	4830.5	
849.52	4437.9	
849.69	3486.3	
849.86	5932.3	
850.03	6183.5	
850.2	3577.8	
850.37	4350.6	
850.54	6090.7	
850.71	5402.5	
850.88	4213.4	
851.05	3541.6	
851.22	5711.8	
851.39	6315.9	
851.56	3349.8	
851.73	4093.2	
851.9	5013.4	
852.07	5956.9	
852.24	3947.1	
852.41	3516.4	
852.58	5569.1	
852.75	5102.2	
852.92	4004.5	
853.09	3446.7	
853.26	5335.6	
853.43	6237.4	
853.6	3536.2	
853.77	3050.1	
853.94	6297.5	
854.11	5675.6	
854.28	5273.5	
854.44	3805.1	
854.61	6708.5	
854.78	5786.2	
854.95	3539.6	
855.12	4429.8	
855.29	4579.9	
855.46	6314.6	
855.63	3519.1	
855.8	4953.4	
855.97	5244.2	
856.14	6077.7	
856.31	5001.8	
856.48	3860.4	
856.65	5284.4	
856.82	4974.5	
856.99	3394.2	
857.16	3792.8	
857.33	7089.4	
857.49	5391.6	
857.66	3786	
857.83	4156.7	
858	5274.9	
858.17	5555.5	
858.34	3294.5	
858.51	3562.8	
858.68	6425.8	
858.85	6479.8	
859.02	4145.1	
859.19	4420.2	
859.36	5031.2	
859.52	5095.3	
859.69	3497.2	
859.86	4190.1	
860.03	5101.5	
860.2	6284.5	
860.37	3185.3	
860.54	3603.7	
860.71	5940.5	
860.88	6425.2	
861.05	3958.7	
861.21	4447.5	
861.38	6383.5	
861.55	4881.7	
861.72	3161.4	
861.89	4000.4	
862.06	5986.9	
862.23	6574	
862.4	3431	
862.56	3688.4	
862.73	5821.7	
862.9	5503.6	
863.07	4117.1	
863.24	3206.4	
863.41	4931.5	
863.58	5009.3	
863.75	3603.1	
863.91	4067.3	
864.08	6410.1	
864.25	5833.3	
864.42	4478.2	
864.59	4904.2	
864.76	6729.6	
864.93	5099.4	
865.09	3439.9	
865.26	3799	
865.43	6223.1	
865.6	6608.8	
865.77	3106.8	
865.94	3512.3	
866.1	6304.3	
866.27	6079.7	
866.44	5333.6	
866.61	3379.1	
866.78	5497.4	
866.95	5868.8	
867.11	3427.6	
867.28	3144.3	
867.45	6052.4	
867.62	5160.2	
867.79	4153.3	
867.96	3540.9	
868.12	5003.2	
868.29	6039.5	
868.46	3550.5	
868.63	4752	
868.8	6160.3	
868.97	5888.6	
869.13	3684.3	
869.3	3753.9	
869.47	5810.1	
869.64	6097.5	
869.81	3596.9	
869.97	3543.7	
870.14	5703.6	
870.31	6478.4	
870.48	3442	
870.65	4489.8	
870.81	5351.3	
870.98	5337.7	
871.15	4003.8	
871.32	3676.1	
871.48	5820.3	
871.65	6437.4	
871.82	3522.5	
871.99	3906.8	
872.16	6958.3	
872.32	6391	
872.49	3563.5	
872.66	3565.5	
872.83	5927.5	
872.99	5218.9	
873.16	4076.1	
873.33	3491.1	
873.5	5592.3	
873.67	5567.7	
873.83	3697.3	
874	4778.6	
874.17	5683.1	
874.34	6849.1	
874.5	4519.2	
874.67	4379.2	
874.84	6458.6	
875.01	5021.6	
875.17	5002.5	
875.34	3530	
875.51	5639.4	
875.68	6855.2	
875.84	4276.2	
876.01	5203.2	
876.18	5887.9	
876.34	5880.4	
876.51	3556	
876.68	3431.7	
876.85	5439.4	
877.01	6236.7	
877.18	5136.3	
877.35	3504.1	
877.52	5502.9	
877.68	4967.7	
877.85	3467.2	
878.02	3520.5	
878.18	5550.7	
878.35	5201.8	
878.52	2767.5	
878.69	4276.2	
878.85	5953.4	
879.02	5885.2	
879.19	5036.6	
879.35	3830.4	
879.52	5892	
879.69	6146.6	
879.86	3016.7	
880.02	3960.1	
880.19	5466	
880.36	6766.5	
880.52	4083	
880.69	4220.2	
880.86	6010.1	
881.02	6079.1	
881.19	3867.9	
881.36	3837.9	
881.52	5928.2	
881.69	5289.9	
881.86	3795.6	
882.02	3723.2	
882.19	6242.2	
882.36	7304.4	
882.52	3652.2	
882.69	5011.4	
882.86	5715.9	
883.02	5614.8	
883.19	4298	
883.36	4085.7	
883.52	6066.1	
883.69	6921.5	
883.86	3593.5	
884.02	3212.6	
884.19	5987.6	
884.36	5477.6	
884.52	4002.4	
884.69	3775.1	
884.86	5286.5	
885.02	6633.4	
885.19	3916.4	
885.36	4076.1	
885.52	5472.9	
885.69	5678.3	
885.86	5195.7	
886.02	4549.9	
886.19	6023.1	
886.35	5429.2	
886.52	3871.3	
886.69	4904.2	
886.85	5055.1	
887.02	6395.1	
887.19	6395.1	
887.35	6395.1	
887.52	6395.1	
887.68	6395.1	
887.85	6395.1	
888.02	6395.1	
888.18	6395.1	
888.35	6395.1	
888.51	6395.1	
888.68	6395.1	
888.85	6395.1	
889.01	6395.1	
889.18	6395.1	
889.35	6395.1	
889.51	6395.1	
889.68	6395.1	
889.84	6395.1	
890.01	6395.1	
890.17	6395.1	
890.34	6395.1	
890.51	6395.1	
890.67	6395.1	
890.84	6395.1	
891	6395.1	
891.17	6395.1	
891.34	6395.1	
891.5	6395.1	
891.67	6395.1	
891.83	6395.1	
892	6395.1	
892.16	6395.1	
892.33	6395.1	
892.5	6395.1	
892.66	6395.1	
892.83	6395.1	
892.99	6395.1	
893.16	6395.1	
893.32	6395.1	
893.49	6395.1	
893.65	6395.1	
893.82	6395.1	
893.99	6395.1	
894.15	6395.1	
894.32	6395.1	
894.48	6395.1	
894.65	6395.1	
894.81	6395.1	
894.98	6395.1	
895.14	6395.1	
895.31	6395.1	
895.47	6395.1	
895.64	6395.1	
895.81	6395.1	
895.97	6395.1	
896.14	6395.1	
896.3	6395.1	
896.47	6395.1	
896.63	6395.1	
896.8	6395.1	
896.96	6395.1	
897.13	6395.1	
897.29	6395.1	
897.46	6395.1	
897.62	6395.1	
897.79	6395.1	
897.95	6395.1	
898.12	6395.1	
898.28	6395.1	
898.45	6395.1	
898.61	6395.1	
898.78	6395.1	
898.94	6395.1	
899.11	6395.1	
899.27	6395.1	
899.44	6395.1	
899.6	6395.1	
899.77	6395.1	
899.93	6395.1	
900.1	6395.1	
900.26	6395.1	
900.43	6395.1	
900.59	6395.1	
900.76	6395.1	
900.92	6395.1	
901.09	6395.1	
901.25	6395.1	
901.42	6395.1	
901.58	6395.1	
901.75	6395.1	
901.91	6395.1	
902.07	6395.1	
902.24	6395.1	
902.4	6395.1	
902.57	6395.1	
902.73	6395.1	
902.9	6395.1	
903.06	6395.1	
903.23	6395.1	
903.39	6395.1	
903.56	6395.1	
903.72	6395.1	
903.88	6395.1	
904.05	6395.1	
904.21	6395.1	
904.38	6395.1	
904.54	6395.1	
904.71	6395.1	
904.87	6395.1	
905.03	6395.1	
905.2	6395.1	
905.36	6395.1	
905.53	6395.1	
905.69	6395.1	
905.86	6395.1	
906.02	6395.1	
906.18	6395.1	
906.35	6395.1	
906.51	6395.1	
906.68	6395.1	
906.84	6395.1	
907.01	6395.1	
907.17	6395.1	
907.33	6395.1	
907.5	6395.1	
907.66	6395.1	
907.83	6395.1	
907.99	6395.1	
908.15	6395.1	
908.32	6395.1	
908.48	6395.1	
908.65	6395.1	
908.81	6395.1	
908.97	6395.1	
909.14	6395.1	
909.3	6395.1	
909.47	6395.1	
909.63	6395.1	
909.79	6395.1	
909.96	6395.1	
910.12	6395.1	
910.28	6395.1	
910.45	6395.1	
910.61	6395.1	
910.78	6395.1	
910.94	6395.1	
911.1	6395.1	
911.27	6395.1	
911.43	6395.1	
911.59	6395.1	
911.76	6395.1	
911.92	6395.1	
912.08	6395.1	
912.25	6395.1	
912.41	6395.1	
912.57	6395.1	
912.74	6395.1	
912.9	6395.1	
913.07	6395.1	
913.23	6395.1	
913.39	6395.1	
913.56	6395.1	
913.72	6395.1	
913.88	6395.1	
914.05	6395.1	
914.21	6395.1	
914.37	6395.1	
914.54	6395.1	
914.7	6395.1	
914.86	6395.1	
915.03	6395.1	
915.19	6395.1	
