Wavelength	Intensities	
nm	a.u.	
179.22	1920.8	
179.44	1912.5	
179.65	1929.2	
179.86	1895.7	
180.08	1865	
180.29	4719.2	
180.51	3396.9	
180.72	5481	
180.94	6499.6	
181.15	3153.9	
181.37	3113.6	
181.58	5401.9	
181.79	5644.2	
182.01	3287.7	
182.22	3573	
182.44	5681.7	
182.65	4756.7	
182.87	4404.5	
183.08	3869.3	
183.29	5963	
183.51	4909.7	
183.72	3584.6	
183.94	5149.3	
184.15	5331.5	
184.37	5332.2	
184.58	3091.1	
184.79	4263.9	
185.01	4964.3	
185.22	5651	
185.44	4530.8	
185.65	3824.2	
185.86	5173.9	
186.08	4807.3	
186.29	3093.8	
186.51	3326.6	
186.72	4943.8	
186.94	5868.1	
187.15	3837.2	
187.36	3945.1	
187.58	7544	
187.79	5414.8	
188.01	4057.7	
188.22	6335.7	
188.43	6466.1	
188.65	5657.2	
188.86	3284.9	
189.08	3880.2	
189.29	5123.3	
189.5	5098.1	
189.72	3635.1	
189.93	3723.2	
190.15	5870.8	
190.36	6961	
190.57	4003.1	
190.79	3885.7	
191	5948	
191.22	5823.1	
191.43	4023.6	
191.64	3283.6	
191.86	6121.4	
192.07	5877.7	
192.29	3435.1	
192.5	3667.2	
192.71	5850.4	
192.93	5052.3	
193.14	3601	
193.35	3692.5	
193.57	5072.1	
193.78	5753.4	
194	2923.1	
194.21	3549.8	
194.42	4949.3	
194.64	5283.1	
194.85	3930.7	
195.07	4644.8	
195.28	5362.9	
195.49	4704.9	
195.71	4822.3	
195.92	3390.1	
196.13	5535	
196.35	5613.5	
196.56	5096.7	
196.78	3921.9	
196.99	6903	
197.2	6448.4	
197.42	4469.4	
197.63	4021.5	
197.84	4810	
198.06	5551.4	
198.27	3608.5	
198.48	4881	
198.7	5129.5	
198.91	5219.6	
199.13	3973.1	
199.34	3917.1	
199.55	5752.7	
199.77	4618.2	
199.98	3503.4	
200.19	4010.6	
200.41	5255.1	
200.62	4932.9	
200.83	4086.4	
201.05	4467.3	
201.26	5206.6	
201.47	4966.3	
201.69	3510.9	
201.9	3421.5	
202.11	5274.9	
202.33	6300.2	
202.54	3749.8	
202.76	4188.1	
202.97	5399.8	
203.18	5432.6	
203.4	4128	
203.61	3987.4	
203.82	5431.2	
204.04	5018.2	
204.25	3952.6	
204.46	3949.8	
204.68	5294.7	
204.89	5569.1	
205.1	3863.8	
205.32	3351.2	
205.53	5688.6	
205.74	5801.2	
205.96	2917	
206.17	4061.8	
206.38	5686.5	
206.6	5737.7	
206.81	4524.6	
207.02	3670	
207.24	5606	
207.45	5956.9	
207.66	3788.7	
207.88	3218.7	
208.09	5549.3	
208.3	5324	
208.52	3448.1	
208.73	3848.1	
208.94	5331.5	
209.15	5970.5	
209.37	3753.9	
209.58	3970.3	
209.79	5835.3	
210.01	5155.4	
210.22	2990.7	
210.43	3167.5	
210.65	5367.7	
210.86	5691.3	
211.07	3814	
211.29	3439.2	
211.5	5659.9	
211.71	5287.9	
211.93	3493.2	
212.14	3414	
212.35	5276.3	
212.56	5479	
212.78	3928	
212.99	3288.4	
213.2	6294.1	
213.42	5127.4	
213.63	3637.9	
213.84	3795.6	
214.06	4753.3	
214.27	4883	
214.48	3784.6	
214.69	4022.2	
214.91	5994.4	
215.12	6055.8	
215.33	4037.2	
215.55	4493.9	
215.76	6477.7	
215.97	5656.5	
216.18	3909.6	
216.4	3846.8	
216.61	5011.4	
216.82	5783.5	
217.04	3564.1	
217.25	3637.9	
217.46	5969.8	
217.67	5720	
217.89	3126.6	
218.1	3225.6	
218.31	5386.8	
218.53	5531.6	
218.74	3635.8	
218.95	3564.8	
219.16	5330.9	
219.38	6221.7	
219.59	3592.8	
219.8	4198.3	
220.01	6782.9	
220.23	5393.7	
220.44	4614.1	
220.65	3435.8	
220.87	5365.7	
221.08	5943.2	
221.29	3235.8	
221.5	4311.7	
221.72	7294.9	
221.93	5060.5	
222.14	4009.9	
222.35	4650.9	
222.57	5360.9	
222.78	5674.2	
222.99	3796.9	
223.2	4076.1	
223.42	5612.1	
223.63	5785.5	
223.84	2886.3	
224.05	2899.9	
224.27	6805.4	
224.48	6204.7	
224.69	4668.7	
224.9	3992.2	
225.12	5574.6	
225.33	5311.7	
225.54	3189.4	
225.75	3504.8	
225.97	4882.4	
226.18	5154.1	
226.39	3830.4	
226.6	3575.1	
226.82	5076.2	
227.03	4965	
227.24	3962.1	
227.45	3340.9	
227.67	5705	
227.88	6206	
228.09	4518.5	
228.3	4396.3	
228.52	5700.9	
228.73	5301.5	
228.94	3698.6	
229.15	3262.4	
229.36	5268.1	
229.58	5202.5	
229.79	3793.5	
230	4328.7	
230.21	6348.7	
230.43	5448.3	
230.64	3870	
230.85	4104.8	
231.06	5803.9	
231.28	5745.9	
231.49	3248.1	
231.7	3872.7	
231.91	5621.7	
232.12	5371.1	
232.34	3345.7	
232.55	3826.3	
232.76	5888.6	
232.97	5532.9	
233.18	3495.2	
233.4	3903.4	
233.61	5547.3	
233.82	5105.6	
234.03	3620.1	
234.25	3607.2	
234.46	7311.9	
234.67	5369.1	
234.88	4059.8	
235.09	3538.9	
235.31	5606.7	
235.52	5228.5	
235.73	3989.4	
235.94	3334.1	
236.15	5060.5	
236.37	6377.4	
236.58	3485.6	
236.79	3823.6	
237	5595.1	
237.21	4818.2	
237.43	4016.7	
237.64	3181.9	
237.85	9546.3	
238.06	4906.3	
238.27	4155.3	
238.48	3343.7	
238.7	5668.1	
238.91	5214.8	
239.12	3777.8	
239.33	3813.3	
239.54	4938.3	
239.76	5269.4	
239.97	3776.5	
240.18	3814	
240.39	6610.2	
240.6	5613.5	
240.82	3945.1	
241.03	3223.5	
241.24	5350	
241.45	6199.2	
241.66	3469.3	
241.87	4125.3	
242.09	6062	
242.3	6399.9	
242.51	4160.8	
242.72	3851.5	
242.93	5780.1	
243.14	5244.8	
243.36	4455	
243.57	4678.9	
243.78	6126.8	
243.99	5608	
244.2	3812	
244.41	3469.3	
244.63	4909	
244.84	5608	
245.05	4109.6	
245.26	3775.1	
245.47	5590.3	
245.68	5804.6	
245.9	5026.4	
246.11	3984	
246.32	5156.1	
246.53	5565.7	
246.74	6064	
246.95	3195.5	
247.16	4858.5	
247.38	5356.8	
247.59	3149.8	
247.8	3824.2	
248.01	4991.6	
248.22	5296.7	
248.43	3409.2	
248.64	3720.5	
248.86	4724	
249.07	5111	
249.28	3333.4	
249.49	3947.1	
249.7	5901.6	
249.91	6010.1	
250.12	3195.5	
250.34	3201	
250.55	5403.2	
250.76	5350	
250.97	3933.5	
251.18	4047.5	
251.39	5986.2	
251.6	5481	
251.81	3994.2	
252.03	4017.4	
252.24	5083.7	
252.45	5847.6	
252.66	3242.6	
252.87	4212	
253.08	5399.8	
253.29	6967.2	
253.5	3374.4	
253.72	4622.3	
253.93	5171.1	
254.14	6314.6	
254.35	3678.2	
254.56	3714.3	
254.77	5624.4	
254.98	4933.6	
255.19	3622.9	
255.41	4582.7	
255.62	5430.5	
255.83	5963.7	
256.04	4091.2	
256.25	3966.9	
256.46	6550.1	
256.67	5081	
256.88	3880.2	
257.09	4306.2	
257.31	5007.3	
257.52	5047.6	
257.73	4891.2	
257.94	3633.8	
258.15	5217.5	
258.36	5294.7	
258.57	4517.1	
258.78	2935.4	
258.99	5800.5	
259.2	5177.3	
259.41	3651.5	
259.63	3727.3	
259.84	6124.8	
260.05	6634.7	
260.26	4756.7	
260.47	3597.6	
260.68	5983.5	
260.89	5264.6	
261.1	4305.5	
261.31	3497.2	
261.52	5885.2	
261.73	6253.8	
261.95	4656.4	
262.16	4074.1	
262.37	6035.4	
262.58	6103.6	
262.79	4647.5	
263	3721.8	
263.21	5408.7	
263.42	5270.8	
263.63	3768.9	
263.84	3624.2	
264.05	5879.7	
264.26	6249	
264.47	4546.5	
264.69	4083	
264.9	5990.3	
265.11	5565	
265.32	3512.9	
265.53	3600.3	
265.74	5524.7	
265.95	4726.7	
266.16	3855.6	
266.37	4246.1	
266.58	5428.5	
266.79	5200.5	
267	3617.4	
267.21	3353.2	
267.42	4904.9	
267.63	5307	
267.84	3790.1	
268.06	3263.8	
268.27	5813.5	
268.48	6044.2	
268.69	3697.3	
268.9	4357.4	
269.11	6052.4	
269.32	4832.5	
269.53	3759.4	
269.74	3523.9	
269.95	5621	
270.16	4739.7	
270.37	3824.2	
270.58	4306.2	
270.79	5210	
271	5823.1	
271.21	4046.1	
271.42	3867.9	
271.63	5414.8	
271.84	4955.4	
272.05	3069.9	
272.26	3406.5	
272.47	5384.1	
272.68	5552.7	
272.89	3652.2	
273.11	4209.3	
273.32	5151.3	
273.53	6252.4	
273.74	4113.7	
273.95	3983.3	
274.16	5967.8	
274.37	5442.1	
274.58	4229.7	
274.79	3330	
275	5474.2	
275.21	6006.7	
275.42	5032.5	
275.63	4323.9	
275.84	5588.9	
276.05	7008.8	
276.26	3997.6	
276.47	3748.5	
276.68	5207.3	
276.89	6317.3	
277.1	4317.8	
277.31	3368.9	
277.52	5601.2	
277.73	5794.4	
277.94	3327.9	
278.15	3738.9	
278.36	5555.5	
278.57	4987.5	
278.78	3655.6	
278.99	4133.5	
279.2	5036.6	
279.41	4933.6	
279.62	4818.2	
279.83	3412.6	
280.04	6533	
280.25	4957.4	
280.46	4745.8	
280.67	3788.7	
280.88	5010.7	
281.09	5997.1	
281.3	4031.1	
281.51	5000.5	
281.72	5066.7	
281.93	5879.7	
282.14	3540.3	
282.35	3881.6	
282.56	5857.2	
282.77	5838.1	
282.98	3763.5	
283.19	4526.7	
283.4	7103.7	
283.61	5294.7	
283.82	3392.1	
284.03	4683.7	
284.24	5492	
284.45	5962.3	
284.66	4765.6	
284.87	4525.3	
285.08	5833.3	
285.29	6010.1	
285.5	3225.6	
285.71	3808.5	
285.92	5972.6	
286.12	6522.1	
286.33	4721.9	
286.54	3749.8	
286.75	5819.6	
286.96	5227.8	
287.17	3406.5	
287.38	4548.5	
287.59	5027.1	
287.8	4980	
288.01	3790.8	
288.22	4291.9	
288.43	5853.1	
288.64	4867.3	
288.85	4394.9	
289.06	4262.5	
289.27	5743.2	
289.48	6240.8	
289.69	4684.4	
289.9	4273.4	
290.11	5986.2	
290.32	5070.1	
290.53	4539.7	
290.74	4087.1	
290.94	5804.6	
291.15	5812.8	
291.36	3604.4	
291.57	4255	
291.78	5046.2	
291.99	4797	
292.2	3433.1	
292.41	4162.2	
292.62	5826.5	
292.83	5659.9	
293.04	5103.5	
293.25	3497.2	
293.46	5136.3	
293.67	5915.9	
293.88	3543	
294.09	3437.9	
294.29	4868.7	
294.5	5449	
294.71	3828.3	
294.92	3678.8	
295.13	5197.7	
295.34	6432	
295.55	3226.2	
295.76	3345.7	
295.97	5769.1	
296.18	6502.3	
296.39	3377.1	
296.6	3614.7	
296.81	5343.2	
297.01	5801.2	
297.22	3725.9	
297.43	3614	
297.64	4993.6	
297.85	5048.9	
298.06	2966.1	
298.27	3253.5	
298.48	5357.5	
298.69	5104.2	
298.9	3870	
299.11	3536.8	
299.31	4951.3	
299.52	4899.4	
299.73	4155.3	
299.94	4102.8	
300.15	5388.2	
300.36	4943.1	
300.57	4097.3	
300.78	4057.7	
300.99	5276.9	
301.2	5474.9	
301.4	3543.7	
301.61	3839.3	
301.82	5700.2	
302.03	5769.8	
302.24	4338.3	
302.45	3413.3	
302.66	5650.3	
302.87	6009.4	
303.08	3594.2	
303.29	4950.6	
303.49	5109.7	
303.7	5397.1	
303.91	3121.8	
304.12	4644.8	
304.33	4855.1	
304.54	5505.6	
304.75	3618.8	
304.96	3418.1	
305.16	5682.4	
305.37	6354.8	
305.58	3140.9	
305.79	3262.4	
306	5674.2	
306.21	4795.7	
306.42	3422.2	
306.63	5443.5	
306.83	5210	
307.04	5967.8	
307.25	3967.6	
307.46	3939.6	
307.67	4641.4	
307.88	5752.7	
308.09	3518.4	
308.29	3738.2	
308.5	5436.7	
308.71	5957.5	
308.92	3905.5	
309.13	3471.3	
309.34	5210.7	
309.55	5308.3	
309.75	4425	
309.96	4116.4	
310.17	5776	
310.38	5048.2	
310.59	4268.6	
310.8	3367.5	
311.01	5930.2	
311.21	5260.5	
311.42	3491.8	
311.63	3490.4	
311.84	5175.9	
312.05	5511.1	
312.26	3995.6	
312.46	4329.4	
312.67	5225.7	
312.88	4873.5	
313.09	3415.3	
313.3	3370.3	
313.51	6127.5	
313.71	6507.1	
313.92	3478.8	
314.13	3660.4	
314.34	5569.8	
314.55	5227.1	
314.76	4412.7	
314.96	3928	
315.17	5438	
315.38	5713.2	
315.59	3460.4	
315.8	3320.4	
316.01	6210.8	
316.21	6238.8	
316.42	3390.1	
316.63	3834.5	
316.84	5223.7	
317.05	6068.8	
317.26	4053.6	
317.46	3674.7	
317.67	5265.3	
317.88	5767.1	
318.09	4387.4	
318.3	3265.8	
318.5	5111	
318.71	5669.5	
318.92	5595.7	
319.13	4069.3	
319.34	5840.1	
319.54	5960.3	
319.75	3187.3	
319.96	3095.2	
320.17	5683.8	
320.38	5930.9	
320.58	3196.9	
320.79	3836.5	
321	5917.3	
321.21	5984.2	
321.42	3849.5	
321.62	3144.3	
321.83	4992.9	
322.04	5322	
322.25	3667.9	
322.46	3504.8	
322.66	5449	
322.87	5649.7	
323.08	4293.2	
323.29	3425.6	
323.5	6322.1	
323.7	4923.3	
323.91	4714.4	
324.12	4213.4	
324.33	5478.3	
324.53	5735	
324.74	4109.6	
324.95	4332.1	
325.16	4794.3	
325.37	5199.1	
325.57	3465.2	
325.78	3565.5	
325.99	5397.1	
326.2	4876.9	
326.4	4876.2	
326.61	3205.8	
326.82	5301.5	
327.03	5487.2	
327.24	4835.9	
327.44	4623.6	
327.65	5621	
327.86	4576.5	
328.07	4022.2	
328.27	3318.4	
328.48	6040.8	
328.69	4944.5	
328.9	4960.2	
329.1	3703.4	
329.31	5228.5	
329.52	6186.2	
329.73	3506.8	
329.93	3964.9	
330.14	5339.7	
330.35	5638.7	
330.56	5640.8	
330.76	4334.9	
330.97	5193.6	
331.18	5553.4	
331.39	3845.4	
331.59	3148.4	
331.8	5920	
332.01	6099.5	
332.22	3607.2	
332.42	4072	
332.63	5488.6	
332.84	5082.4	
333.05	3947.1	
333.25	3562.8	
333.46	5122.7	
333.67	5401.9	
333.88	3646.1	
334.08	4031.8	
334.29	8675.9	
334.5	6070.9	
334.7	3411.9	
334.91	4956.8	
335.12	4917.9	
335.33	5759.6	
335.53	3840.6	
335.74	5695.4	
335.95	5216.9	
336.16	4986.8	
336.36	3864.5	
336.57	4462.5	
336.78	4919.2	
336.98	5951.4	
337.19	4745.1	
337.4	3839.3	
337.61	6470.9	
337.81	4936.3	
338.02	3538.9	
338.23	4611.3	
338.43	6154.1	
338.64	5006.6	
338.85	3525.2	
339.05	4584	
339.26	6135	
339.47	4812	
339.68	3497.9	
339.88	5146.5	
340.09	5685.2	
340.3	5918.6	
340.5	4141	
340.71	3164.1	
340.92	4916.5	
341.13	6073.6	
341.33	3424.9	
341.54	4134.8	
341.75	5567.7	
341.95	5216.9	
342.16	3947.1	
342.37	4216.1	
342.57	5016.8	
342.78	5302.9	
342.99	4379.9	
343.19	3141.6	
343.4	5737	
343.61	5668.8	
343.81	3773.7	
344.02	3423.5	
344.23	5785.5	
344.43	6120.7	
344.64	4354	
344.85	4212.7	
345.06	5608.7	
345.26	6008.1	
345.47	3997	
345.68	4702.8	
345.88	4804.5	
346.09	5803.3	
346.3	4130.8	
346.5	3215.3	
346.71	5397.1	
346.92	5122.7	
347.12	3211.2	
347.33	4074.8	
347.54	5911.1	
347.74	6332.3	
347.95	4016.1	
348.16	3078.1	
348.36	5188.9	
348.57	5073.5	
348.78	4007.2	
348.98	4335.5	
349.19	5416.2	
349.39	4848.9	
349.6	3252.2	
349.81	3579.2	
350.01	5648.3	
350.22	5168.4	
350.43	3915.7	
350.63	4650.3	
350.84	5447.6	
351.05	5236.7	
351.25	3546.4	
351.46	3259.7	
351.67	5866.7	
351.87	5117.9	
352.08	3808.5	
352.29	4279.6	
352.49	5846.3	
352.7	5579.3	
352.9	3517.7	
353.11	4319.8	
353.32	6465.4	
353.52	5222.3	
353.73	3433.1	
353.94	4363.5	
354.14	5749.3	
354.35	5537	
354.55	3583.3	
354.76	3953.9	
354.97	5677	
355.17	5451.7	
355.38	3397.6	
355.59	4628.4	
355.79	5139.7	
356	5596.4	
356.2	3984.7	
356.41	3470.6	
356.62	4994.3	
356.82	5395	
357.03	4214.7	
357.24	3848.1	
357.44	5201.2	
357.65	5355.4	
357.85	5080.3	
358.06	4001.7	
358.27	5003.2	
358.47	5257.1	
358.68	3433.8	
358.88	4270	
359.09	5801.2	
359.3	6156.9	
359.5	5005.2	
359.71	4479.6	
359.91	6578.8	
360.12	5973.2	
360.33	4247.5	
360.53	4743.1	
360.74	5309.7	
360.94	5360.9	
361.15	4522.6	
361.36	3771.7	
361.56	6094.1	
361.77	5528.8	
361.97	5031.9	
362.18	4075.5	
362.38	6126.2	
362.59	5316.5	
362.8	3717.7	
363	3632.4	
363.21	5052.3	
363.41	5676.3	
363.62	4257	
363.83	5282.4	
364.03	5841.5	
364.24	6719.4	
364.44	5385.5	
364.65	5339.7	
364.85	5610.1	
365.06	5256.5	
365.27	4014.7	
365.47	4108.9	
365.68	6648.4	
365.88	5598.5	
366.09	4390.8	
366.29	4119.1	
366.5	5915.2	
366.71	6354.2	
366.91	5390.3	
367.12	4591.5	
367.32	6839.5	
367.53	6214.2	
367.73	4613.4	
367.94	5513.8	
368.14	6145.3	
368.35	7064.8	
368.56	4560.8	
368.76	4017.4	
368.97	6292	
369.17	7884.7	
369.38	4126	
369.58	4362.2	
369.79	5346.6	
369.99	6602	
370.2	5280.3	
370.4	4401.8	
370.61	5986.9	
370.82	7192.5	
371.02	4392.9	
371.23	3806.5	
371.43	5309	
371.64	6657.9	
371.84	4521.2	
372.05	5667.4	
372.25	7949.5	
372.46	6404.7	
372.66	4492.6	
372.87	4469.4	
373.07	6507.1	
373.28	8100.4	
373.48	5543.9	
373.69	5294.7	
373.9	6049	
374.1	6086.6	
374.31	5524.7	
374.51	5081	
374.72	6927.6	
374.92	5802.6	
375.13	5816.2	
375.33	4988.2	
375.54	6598.6	
375.74	6057.9	
375.95	5154.1	
376.15	6300.9	
376.36	6626.5	
376.56	6475.7	
376.77	5278.3	
376.97	5702.2	
377.18	7759.8	
377.38	6836.8	
377.59	6131.6	
377.79	4915.8	
378	6625.9	
378.2	7154.9	
378.41	4969.1	
378.61	4871.4	
378.82	7167.9	
379.02	6393.8	
379.23	5136.3	
379.43	6222.4	
379.64	7226.6	
379.84	6964.5	
380.05	4965	
380.25	4850.3	
380.46	7008.1	
380.66	6561	
380.87	6234.7	
381.07	6636.1	
381.28	7584.3	
381.48	6948.8	
381.69	4955.4	
381.89	5012.1	
382.1	5904.3	
382.3	7068.2	
382.51	6071.5	
382.71	6867.5	
382.91	6942.6	
383.12	7480.5	
383.32	5314.5	
383.53	5526.1	
383.73	6705.7	
383.94	6608.1	
384.14	5335	
384.35	4601.1	
384.55	6462.7	
384.76	6933.1	
384.96	5256.5	
385.17	5516.5	
385.37	6934.4	
385.58	6143.2	
385.78	5606.7	
385.98	4443.4	
386.19	6303	
386.39	6827.9	
386.6	5023	
386.8	5274.9	
387.01	6965.8	
387.21	6924.2	
387.42	5735.7	
387.62	6326.2	
387.83	6287.9	
388.03	6978.1	
388.23	5487.9	
388.44	6287.9	
388.64	6129.6	
388.85	6367.1	
389.05	5945.3	
389.26	6470.2	
389.46	8181.6	
389.67	7674.4	
389.87	5954.8	
390.07	6036	
390.28	6863.4	
390.48	6496.2	
390.69	5285.8	
390.89	5573.9	
391.1	6655.9	
391.3	7600.7	
391.5	6717.3	
391.71	7273.7	
391.91	7307.8	
392.12	8361.2	
392.32	6784.2	
392.53	5937.7	
392.73	6724.8	
392.93	6901.7	
393.14	5760.3	
393.34	6450.4	
393.55	7326.9	
393.75	6792.4	
393.95	5593	
394.16	5502.9	
394.36	6581.5	
394.57	7306.5	
394.77	5212.8	
394.98	5592.3	
395.18	6658.6	
395.38	6954.9	
395.59	6546.7	
395.79	5649.7	
396	6959.7	
396.2	7419.1	
396.4	6511.9	
396.61	6466.1	
396.81	7660.1	
397.02	7118.1	
397.22	6898.2	
397.42	6952.9	
397.63	7854	
397.83	7164.5	
398.04	5738.4	
398.24	6450.4	
398.44	7555.6	
398.65	6877.8	
398.85	5705	
399.05	5903.6	
399.26	7234.8	
399.46	8858.1	
399.67	6353.5	
399.87	6029.2	
400.07	7628	
400.28	7990.5	
400.48	6251.1	
400.69	7314.7	
400.89	8332.5	
401.09	8664.3	
401.3	6158.9	
401.5	7364.5	
401.7	9174.2	
401.91	9321.7	
402.11	6606.1	
402.32	6798.6	
402.52	8400.8	
402.72	8166.6	
402.93	6940.6	
403.13	5657.9	
403.33	8840.4	
403.54	7458	
403.74	6383.5	
403.94	7139.2	
404.15	7566.6	
404.35	8715.5	
404.56	6260	
404.76	8064.2	
404.96	8125	
405.17	7905.2	
405.37	7570	
405.57	6909.8	
405.78	8395.3	
405.98	7710.6	
406.18	6537.1	
406.39	7303.7	
406.59	8243.8	
406.79	7877.2	
407	6227.9	
407.2	6236.7	
407.4	8292.9	
407.61	8532.5	
407.81	6490.7	
408.01	8820.6	
408.22	7637.6	
408.42	9636.4	
408.62	8050.6	
408.83	7621.9	
409.03	8638.3	
409.23	8611.7	
409.44	7864.2	
409.64	8206.2	
409.84	9956.5	
410.05	9976.3	
410.25	8335.2	
410.45	8127.7	
410.66	9780.4	
410.86	12045	
411.06	8866.3	
411.27	8718.2	
411.47	12191	
411.67	10203	
411.88	8999.5	
412.08	9467.8	
412.28	10850	
412.49	11286	
412.69	9069.8	
412.89	9125.7	
413.09	11415	
413.3	11213	
413.5	9382.4	
413.7	9011.7	
413.91	10465	
414.11	11548	
414.31	9275.3	
414.52	9910.1	
414.72	11142	
414.92	11333	
415.12	9402.9	
415.33	10065	
415.53	11744	
415.73	11881	
415.94	10189	
416.14	9815.2	
416.34	10796	
416.55	10528	
416.75	11093	
416.95	10623	
417.15	11957	
417.36	12492	
417.56	11473	
417.76	10583	
417.97	12439	
418.17	12209	
418.37	10232	
418.57	10364	
418.78	11926	
418.98	11436	
419.18	11041	
419.38	10861	
419.59	11692	
419.79	11081	
419.99	10134	
420.2	10393	
420.4	12134	
420.6	12194	
420.8	10102	
421.01	9843.2	
421.21	12065	
421.41	12107	
421.61	10377	
421.82	10092	
422.02	11546	
422.22	12310	
422.42	11077	
422.63	10320	
422.83	11641	
423.03	12865	
423.23	10567	
423.44	9530.6	
423.64	11624	
423.84	11300	
424.04	9990.7	
424.25	9643.9	
424.45	12284	
424.65	12250	
424.85	9316.2	
425.06	10026	
425.26	12448	
425.46	10865	
425.66	10493	
425.87	10029	
426.07	12172	
426.27	11966	
426.47	10210	
426.67	9521	
426.88	12215	
427.08	11897	
427.28	10562	
427.48	9503.9	
427.69	10714	
427.89	11290	
428.09	10396	
428.29	9549	
428.5	12125	
428.7	11577	
428.9	9708.7	
429.1	10013	
429.3	11635	
429.51	12111	
429.71	9890.3	
429.91	10804	
430.11	12087	
430.31	12919	
430.52	10355	
430.72	10783	
430.92	12883	
431.12	12284	
431.32	10254	
431.53	10443	
431.73	11270	
431.93	12945	
432.13	9921	
432.33	10080	
432.54	11798	
432.74	12114	
432.94	10174	
433.14	11018	
433.34	12278	
433.55	12235	
433.75	11115	
433.95	13135	
434.15	12385	
434.35	12181	
434.56	10361	
434.76	10316	
434.96	12489	
435.16	12903	
435.36	10574	
435.56	11837	
435.77	12474	
435.97	12717	
436.17	12557	
436.37	11933	
436.57	12448	
436.78	12682	
436.98	13418	
437.18	12337	
437.38	13506	
437.58	12671	
437.78	12452	
437.99	11045	
438.19	12939	
438.39	13893	
438.59	10972	
438.79	10428	
438.99	13524	
439.2	12484	
439.4	10374	
439.6	10545	
439.8	12999	
440	14090	
440.2	11882	
440.4	12193	
440.61	13585	
440.81	14334	
441.01	11504	
441.21	12634	
441.41	14593	
441.61	14030	
441.81	13114	
442.02	14000	
442.22	14896	
442.42	14093	
442.62	11901	
442.82	11759	
443.02	14784	
443.22	13881	
443.43	12556	
443.63	12032	
443.83	13618	
444.03	13714	
444.23	13673	
444.43	13072	
444.63	14414	
444.83	15445	
445.04	12467	
445.24	13701	
445.44	14418	
445.64	14717	
445.84	12706	
446.04	13042	
446.24	13728	
446.44	14577	
446.65	11897	
446.85	12610	
447.05	13695	
447.25	14550	
447.45	12520	
447.65	11926	
447.85	13780	
448.05	13328	
448.25	13120	
448.46	12807	
448.66	14071	
448.86	13561	
449.06	11929	
449.26	13110	
449.46	14482	
449.66	13491	
449.86	12862	
450.06	12661	
450.26	13874	
450.47	14604	
450.67	12821	
450.87	13390	
451.07	14484	
451.27	14564	
451.47	12353	
451.67	13250	
451.87	14303	
452.07	15122	
452.27	12937	
452.47	12633	
452.67	14528	
452.88	14973	
453.08	11858	
453.28	14077	
453.48	15980	
453.68	14252	
453.88	12870	
454.08	12976	
454.28	15128	
454.48	14778	
454.68	13616	
454.88	14108	
455.08	15128	
455.28	15357	
455.48	12690	
455.68	13777	
455.89	16147	
456.09	15629	
456.29	13341	
456.49	13816	
456.69	16203	
456.89	15371	
457.09	14271	
457.29	14958	
457.49	15845	
457.69	16212	
457.89	14661	
458.09	13880	
458.29	15967	
458.49	16910	
458.69	15192	
458.89	14720	
459.09	17443	
459.29	17369	
459.49	14754	
459.69	15596	
459.9	16764	
460.1	16692	
460.3	14431	
460.5	14375	
460.7	16880	
460.9	16566	
461.1	14212	
461.3	15930	
461.5	17928	
461.7	17489	
461.9	15404	
462.1	15460	
462.3	17274	
462.5	17918	
462.7	15557	
462.9	16038	
463.1	19128	
463.3	19119	
463.5	16046	
463.7	17589	
463.9	18246	
464.1	18622	
464.3	17053	
464.5	16866	
464.7	19022	
464.9	19232	
465.1	18500	
465.3	17693	
465.5	19464	
465.7	19698	
465.9	18223	
466.1	17496	
466.3	19738	
466.5	19236	
466.7	19253	
466.9	17705	
467.1	19546	
467.3	20622	
467.5	19311	
467.7	18110	
467.9	20825	
468.1	21788	
468.3	18876	
468.5	19364	
468.7	20134	
468.9	19892	
469.1	18793	
469.3	19778	
469.5	22221	
469.7	20052	
469.9	19026	
470.1	18887	
470.3	20341	
470.5	20482	
470.7	19975	
470.9	18630	
471.1	20299	
471.3	19962	
471.5	18497	
471.69	20426	
471.89	19796	
472.09	19354	
472.29	19390	
472.49	19221	
472.69	19777	
472.89	20305	
473.09	18431	
473.29	17984	
473.49	19547	
473.69	19596	
473.89	19309	
474.09	18305	
474.29	20839	
474.49	20576	
474.69	19114	
474.89	18318	
475.09	19663	
475.29	19673	
475.49	17780	
475.69	18281	
475.88	20929	
476.08	19958	
476.28	17929	
476.48	17927	
476.68	20061	
476.88	19814	
477.08	17688	
477.28	18208	
477.48	19013	
477.68	19782	
477.88	17742	
478.08	17956	
478.28	20394	
478.48	19450	
478.67	18148	
478.87	17185	
479.07	20546	
479.27	19633	
479.47	18178	
479.67	18421	
479.87	20224	
480.07	20839	
480.27	17681	
480.47	19187	
480.67	19751	
480.87	20635	
481.06	18079	
481.26	18854	
481.46	19979	
481.66	19882	
481.86	18508	
482.06	19463	
482.26	19551	
482.46	20371	
482.66	18337	
482.86	18218	
483.05	20222	
483.25	19644	
483.45	20949	
483.65	18641	
483.85	20044	
484.05	20153	
484.25	19000	
484.45	19981	
484.65	21070	
484.84	21462	
485.04	18929	
485.24	18890	
485.44	21575	
485.64	20058	
485.84	18651	
486.04	19964	
486.24	20581	
486.44	20958	
486.63	18509	
486.83	19758	
487.03	20866	
487.23	21277	
487.43	18787	
487.63	21450	
487.83	21252	
488.02	22266	
488.22	20441	
488.42	21054	
488.62	22210	
488.82	21323	
489.02	19716	
489.22	20413	
489.41	21947	
489.61	22043	
489.81	19775	
490.01	19879	
490.21	22207	
490.41	22872	
490.61	19960	
490.8	20009	
491	21906	
491.2	20951	
491.4	20258	
491.6	19549	
491.8	21346	
491.99	21397	
492.19	19150	
492.39	19498	
492.59	22168	
492.79	22117	
492.99	20696	
493.18	19998	
493.38	22425	
493.58	23864	
493.78	21186	
493.98	20711	
494.18	22786	
494.37	22977	
494.57	22280	
494.77	22085	
494.97	23793	
495.17	24505	
495.37	22146	
495.56	22519	
495.76	24924	
495.96	24534	
496.16	23657	
496.36	22725	
496.55	24948	
496.75	24725	
496.95	23149	
497.15	22968	
497.35	24843	
497.54	25006	
497.74	22862	
497.94	24718	
498.14	26030	
498.34	25748	
498.53	22937	
498.73	23580	
498.93	24722	
499.13	25475	
499.33	24024	
499.52	24024	
499.72	25991	
499.92	25905	
500.12	23656	
500.32	24098	
500.51	25965	
500.71	26103	
500.91	24908	
501.11	24350	
501.31	26138	
501.5	26250	
501.7	25096	
501.9	24242	
502.1	25862	
502.29	26217	
502.49	24753	
502.69	24791	
502.89	25965	
503.09	26037	
503.28	23238	
503.48	23309	
503.68	24681	
503.88	25084	
504.07	24284	
504.27	23502	
504.47	25328	
504.67	25172	
504.86	24284	
505.06	23629	
505.26	24659	
505.46	26322	
505.65	23213	
505.85	23385	
506.05	24230	
506.25	24747	
506.44	22326	
506.64	23137	
506.84	24069	
507.04	24640	
507.23	22370	
507.43	22866	
507.63	25821	
507.83	24220	
508.02	22786	
508.22	22586	
508.42	26126	
508.62	24000	
508.81	22592	
509.01	23416	
509.21	23532	
509.4	23920	
509.6	22775	
509.8	22505	
510	23905	
510.19	25489	
510.39	22349	
510.59	22515	
510.79	24081	
510.98	25636	
511.18	22680	
511.38	23067	
511.57	24765	
511.77	24743	
511.97	23266	
512.17	22171	
512.36	24748	
512.56	24249	
512.76	22294	
512.95	22031	
513.15	24714	
513.35	23480	
513.55	23306	
513.74	22421	
513.94	24604	
514.14	24049	
514.33	23578	
514.53	23135	
514.73	24024	
514.92	24376	
515.12	22747	
515.32	22622	
515.51	24466	
515.71	25073	
515.91	24393	
516.11	22937	
516.3	26445	
516.5	24363	
516.7	23201	
516.89	23984	
517.09	24276	
517.29	24341	
517.48	23812	
517.68	22773	
517.88	23969	
518.07	24847	
518.27	23515	
518.47	22584	
518.66	25089	
518.86	23817	
519.06	22377	
519.25	22765	
519.45	24462	
519.65	26011	
519.84	23563	
520.04	24504	
520.24	26250	
520.43	24949	
520.63	23100	
520.83	22905	
521.02	23916	
521.22	24339	
521.42	23027	
521.61	23462	
521.81	24066	
522.01	24262	
522.2	23202	
522.4	22685	
522.6	24869	
522.79	23851	
522.99	23221	
523.18	22799	
523.38	25093	
523.58	25261	
523.77	25244	
523.97	23395	
524.17	27590	
524.36	26936	
524.56	25058	
524.76	24822	
524.95	26398	
525.15	25802	
525.34	25004	
525.54	25181	
525.74	27106	
525.93	26206	
526.13	26676	
526.33	25731	
526.52	27643	
526.72	27470	
526.91	27023	
527.11	26297	
527.31	28074	
527.5	28524	
527.7	26456	
527.89	25545	
528.09	27414	
528.29	28068	
528.48	26800	
528.68	26398	
528.87	28171	
529.07	27937	
529.27	26358	
529.46	26004	
529.66	27998	
529.85	28499	
530.05	26011	
530.25	26675	
530.44	29571	
530.64	27514	
530.83	26296	
531.03	26722	
531.23	28428	
531.42	28310	
531.62	27520	
531.81	26581	
532.01	29097	
532.21	29729	
532.4	27340	
532.6	27947	
532.79	30268	
532.99	29935	
533.18	28141	
533.38	29200	
533.58	29848	
533.77	30411	
533.97	28517	
534.16	29225	
534.36	31081	
534.55	30173	
534.75	29570	
534.95	28751	
535.14	31249	
535.34	30092	
535.53	28252	
535.73	30063	
535.92	31582	
536.12	29877	
536.31	28153	
536.51	29472	
536.71	30073	
536.9	29575	
537.1	28085	
537.29	28451	
537.49	30489	
537.68	29627	
537.88	28865	
538.07	27964	
538.27	30119	
538.46	31148	
538.66	28198	
538.86	28848	
539.05	30194	
539.25	30566	
539.44	29228	
539.64	28633	
539.83	30042	
540.03	30959	
540.22	28333	
540.42	28015	
540.61	29618	
540.81	30425	
541	28365	
541.2	29346	
541.39	29310	
541.59	29894	
541.78	28934	
541.98	27691	
542.18	28906	
542.37	28891	
542.57	27893	
542.76	28873	
542.96	28554	
543.15	29244	
543.35	27366	
543.54	27143	
543.74	28958	
543.93	28770	
544.13	26947	
544.32	28087	
544.52	28753	
544.71	27982	
544.91	26350	
545.1	27423	
545.3	28204	
545.49	28910	
545.69	26052	
545.88	26738	
546.08	29754	
546.27	29196	
546.47	27057	
546.66	26245	
546.86	28868	
547.05	29100	
547.24	26398	
547.44	26529	
547.63	27397	
547.83	28891	
548.02	26794	
548.22	26930	
548.41	27503	
548.61	28577	
548.8	26060	
549	25987	
549.19	27742	
549.39	28176	
549.58	25604	
549.78	26170	
549.97	27982	
550.17	27527	
550.36	26661	
550.55	27794	
550.75	27222	
550.94	28072	
551.14	25356	
551.33	25564	
551.53	26630	
551.72	27554	
551.92	25662	
552.11	25586	
552.31	27548	
552.5	27504	
552.69	27039	
552.89	25002	
553.08	27413	
553.28	27014	
553.47	25434	
553.67	26632	
553.86	27719	
554.06	26157	
554.25	24375	
554.44	25154	
554.64	28265	
554.83	28097	
555.03	25170	
555.22	25453	
555.42	27082	
555.61	26989	
555.8	25030	
556	25151	
556.19	26161	
556.39	27085	
556.58	24954	
556.78	24929	
556.97	26667	
557.16	26476	
557.36	26095	
557.55	24729	
557.75	25577	
557.94	27495	
558.13	24604	
558.33	24541	
558.52	27269	
558.72	25970	
558.91	24421	
559.1	24604	
559.3	25598	
559.49	25204	
559.69	23833	
559.88	24694	
560.07	26300	
560.27	26701	
560.46	24908	
560.66	25067	
560.85	26067	
561.04	25070	
561.24	24131	
561.43	24069	
561.63	25406	
561.82	25430	
562.01	25511	
562.21	24606	
562.4	25824	
562.59	27273	
562.79	24507	
562.98	24326	
563.18	26118	
563.37	27740	
563.56	25189	
563.76	24441	
563.95	25839	
564.14	25842	
564.34	24995	
564.53	24541	
564.73	26405	
564.92	26938	
565.11	25033	
565.31	24675	
565.5	27157	
565.69	26245	
565.89	24858	
566.08	25086	
566.27	27091	
566.47	27820	
566.66	25966	
566.85	24644	
567.05	26970	
567.24	26340	
567.44	24795	
567.63	26198	
567.82	27110	
568.02	26849	
568.21	24991	
568.4	25347	
568.6	27058	
568.79	26872	
568.98	24816	
569.18	25400	
569.37	27230	
569.56	29166	
569.76	25852	
569.95	26809	
570.14	27262	
570.34	27534	
570.53	25389	
570.72	25341	
570.91	28017	
571.11	27211	
571.3	25679	
571.49	26525	
571.69	27497	
571.88	26888	
572.07	26545	
572.27	26208	
572.46	26925	
572.65	27878	
572.85	25673	
573.04	26297	
573.23	28287	
573.43	27372	
573.62	25659	
573.81	26512	
574	27727	
574.2	27799	
574.39	26609	
574.58	26740	
574.78	29261	
574.97	28551	
575.16	27379	
575.36	27457	
575.55	29119	
575.74	28941	
575.93	26353	
576.13	28095	
576.32	28491	
576.51	29095	
576.71	26949	
576.9	28506	
577.09	29487	
577.28	28813	
577.48	27547	
577.67	26540	
577.86	28354	
578.05	29279	
578.25	27401	
578.44	27511	
578.63	28767	
578.83	30078	
579.02	26626	
579.21	28562	
579.4	29218	
579.6	28845	
579.79	27671	
579.98	29788	
580.17	29369	
580.37	29717	
580.56	27010	
580.75	27911	
580.94	29913	
581.14	29958	
581.33	28472	
581.52	27130	
581.71	29511	
581.91	30031	
582.1	27178	
582.29	27468	
582.48	29109	
582.68	29261	
582.87	28187	
583.06	27675	
583.25	29510	
583.45	29544	
583.64	28598	
583.83	29279	
584.02	29024	
584.21	29625	
584.41	28216	
584.6	28079	
584.79	29490	
584.98	30306	
585.18	27364	
585.37	27329	
585.56	28920	
585.75	29596	
585.94	27225	
586.14	28093	
586.33	29786	
586.52	29147	
586.71	27624	
586.91	27381	
587.1	27897	
587.29	29134	
587.48	26662	
587.67	26875	
587.87	28717	
588.06	28754	
588.25	27836	
588.44	27176	
588.63	27940	
588.83	28591	
589.02	26388	
589.21	25963	
589.4	27282	
589.59	27320	
589.78	24566	
589.98	24648	
590.17	25819	
590.36	26427	
590.55	23305	
590.74	23762	
590.94	26811	
591.13	25375	
591.32	23519	
591.51	23029	
591.7	25845	
591.89	25468	
592.09	23254	
592.28	23953	
592.47	24778	
592.66	27056	
592.85	23594	
593.05	23909	
593.24	25507	
593.43	26482	
593.62	24283	
593.81	24397	
594	25696	
594.19	25875	
594.39	23845	
594.58	23743	
594.77	25905	
594.96	26430	
595.15	23575	
595.34	24056	
595.54	25730	
595.73	24807	
595.92	22664	
596.11	23653	
596.3	25982	
596.49	24664	
596.68	23505	
596.88	23890	
597.07	25699	
597.26	24412	
597.45	22807	
597.64	24191	
597.83	24892	
598.02	25535	
598.22	23008	
598.41	23667	
598.6	25131	
598.79	24548	
598.98	22904	
599.17	23970	
599.36	25040	
599.55	26039	
599.74	24942	
599.94	24738	
600.13	25376	
600.32	24309	
600.51	22736	
600.7	22747	
600.89	25874	
601.08	25984	
601.27	22422	
601.47	23603	
601.66	25133	
601.85	25918	
602.04	23259	
602.23	23224	
602.42	24219	
602.61	24875	
602.8	22824	
602.99	22517	
603.18	24425	
603.37	24767	
603.57	23166	
603.76	23763	
603.95	25314	
604.14	25051	
604.33	22758	
604.52	23108	
604.71	24765	
604.9	24344	
605.09	23926	
605.28	23417	
605.47	25371	
605.66	24931	
605.86	23199	
606.05	22667	
606.24	25013	
606.43	23685	
606.62	23010	
606.81	23561	
607	24746	
607.19	24311	
607.38	22203	
607.57	22504	
607.76	23995	
607.95	23348	
608.14	22690	
608.33	23398	
608.52	23711	
608.72	24868	
608.91	22086	
609.1	21921	
609.29	23864	
609.48	23244	
609.67	22599	
609.86	21726	
610.05	23302	
610.24	23453	
610.43	21747	
610.62	21345	
610.81	24533	
611	24403	
611.19	21867	
611.38	22420	
611.57	23815	
611.76	25133	
611.95	21472	
612.14	21052	
612.33	23632	
612.52	23156	
612.71	22037	
612.9	21143	
613.09	22749	
613.28	25088	
613.47	21700	
613.66	22572	
613.85	23734	
614.04	23268	
614.24	21655	
614.43	20762	
614.62	23877	
614.81	23563	
615	22263	
615.19	22442	
615.38	23123	
615.57	23554	
615.76	22219	
615.95	23142	
616.14	23836	
616.33	23557	
616.52	22384	
616.71	22628	
616.9	23801	
617.09	23938	
617.28	21754	
617.47	22994	
617.66	23032	
617.85	23261	
618.04	22969	
618.22	22494	
618.41	23817	
618.6	24982	
618.79	22645	
618.98	22662	
619.17	25520	
619.36	23569	
619.55	22732	
619.74	22767	
619.93	24742	
620.12	24327	
620.31	23740	
620.5	23939	
620.69	25947	
620.88	26071	
621.07	24706	
621.26	23657	
621.45	25383	
621.64	25419	
621.83	23904	
622.02	23226	
622.21	25383	
622.4	25265	
622.59	24504	
622.78	24395	
622.97	24944	
623.16	26129	
623.35	24066	
623.54	23193	
623.72	25209	
623.91	25385	
624.1	24457	
624.29	22984	
624.48	26699	
624.67	25783	
624.86	24425	
625.05	23459	
625.24	26689	
625.43	24971	
625.62	26030	
625.81	23743	
626	26004	
626.19	25501	
626.38	24794	
626.56	23988	
626.75	25502	
626.94	26287	
627.13	24529	
627.32	23281	
627.51	25951	
627.7	27276	
627.89	23182	
628.08	24411	
628.27	24919	
628.46	25096	
628.65	23358	
628.83	23138	
629.02	25757	
629.21	25112	
629.4	24242	
629.59	24163	
629.78	25178	
629.97	25708	
630.16	24164	
630.35	23728	
630.54	26344	
630.72	26002	
630.91	23715	
631.1	24017	
631.29	25653	
631.48	25744	
631.67	24101	
631.86	23586	
632.05	25191	
632.24	25273	
632.42	23163	
632.61	23896	
632.8	25168	
632.99	24910	
633.18	24008	
633.37	24197	
633.56	25200	
633.75	25424	
633.93	23898	
634.12	23716	
634.31	26165	
634.5	25836	
634.69	23690	
634.88	23890	
635.07	25275	
635.25	25533	
635.44	24376	
635.63	24740	
635.82	24832	
636.01	24353	
636.2	24125	
636.39	23739	
636.57	26017	
636.76	25322	
636.95	23148	
637.14	24338	
637.33	25228	
637.52	26356	
637.7	22761	
637.89	23890	
638.08	24703	
638.27	26168	
638.46	23950	
638.65	24059	
638.83	25768	
639.02	24377	
639.21	23451	
639.4	23960	
639.59	24679	
639.78	24203	
639.96	22577	
640.15	22509	
640.34	24316	
640.53	24264	
640.72	22050	
640.91	22235	
641.09	23619	
641.28	24617	
641.47	22088	
641.66	23169	
641.85	24318	
642.03	24217	
642.22	22876	
642.41	22237	
642.6	23534	
642.79	22744	
642.97	21486	
643.16	22690	
643.35	23266	
643.54	22892	
643.73	21654	
643.91	22343	
644.1	22699	
644.29	23408	
644.48	21403	
644.67	21295	
644.85	22566	
645.04	22942	
645.23	20502	
645.42	20933	
645.6	22018	
645.79	23178	
645.98	20416	
646.17	19391	
646.36	21289	
646.54	21510	
646.73	20674	
646.92	19656	
647.11	21105	
647.29	22030	
647.48	19667	
647.67	19301	
647.86	22141	
648.05	22429	
648.23	19749	
648.42	20837	
648.61	21477	
648.8	21459	
648.98	19287	
649.17	19665	
649.36	20749	
649.55	20488	
649.73	19282	
649.92	20136	
650.11	20902	
650.3	21026	
650.48	19376	
650.67	19290	
650.86	21396	
651.05	20126	
651.23	19252	
651.42	19048	
651.61	20484	
651.79	20373	
651.98	19310	
652.17	18715	
652.36	20637	
652.54	19966	
652.73	18781	
652.92	18574	
653.11	20706	
653.29	20841	
653.48	17927	
653.67	18797	
653.85	20274	
654.04	21212	
654.23	18669	
654.42	18150	
654.6	19104	
654.79	19635	
654.98	16982	
655.16	17484	
655.35	18115	
655.54	18133	
655.73	16743	
655.91	16607	
656.1	18968	
656.29	18041	
656.47	16384	
656.66	18096	
656.85	18590	
657.03	18732	
657.22	17492	
657.41	17501	
657.59	19103	
657.78	18994	
657.97	17249	
658.16	17940	
658.34	19670	
658.53	20269	
658.72	18688	
658.9	19339	
659.09	19282	
659.28	19490	
659.46	17874	
659.65	17774	
659.84	19086	
660.02	19584	
660.21	17709	
660.4	17686	
660.58	20021	
660.77	19334	
660.96	18230	
661.14	17296	
661.33	20390	
661.52	20274	
661.7	17060	
661.89	20672	
662.08	18806	
662.26	18404	
662.45	17343	
662.64	17389	
662.82	19495	
663.01	18726	
663.2	17303	
663.38	18258	
663.57	19172	
663.75	19166	
663.94	17795	
664.13	18820	
664.31	18604	
664.5	19323	
664.69	17925	
664.87	18415	
665.06	18287	
665.25	19170	
665.43	18542	
665.62	18421	
665.8	19409	
665.99	18681	
666.18	17335	
666.36	17681	
666.55	19266	
666.74	19084	
666.92	16933	
667.11	18468	
667.29	18606	
667.48	19080	
667.67	18155	
667.85	17312	
668.04	18609	
668.22	18703	
668.41	17307	
668.6	17458	
668.78	18467	
668.97	18598	
669.15	17632	
669.34	16462	
669.53	18358	
669.71	18835	
669.9	16762	
670.08	17391	
670.27	18419	
670.46	18853	
670.64	17625	
670.83	17863	
671.01	17971	
671.2	18614	
671.38	17037	
671.57	16700	
671.76	19254	
671.94	19917	
672.13	16705	
672.31	17593	
672.5	19024	
672.69	18404	
672.87	16885	
673.06	17247	
673.24	18883	
673.43	18387	
673.61	17416	
673.8	17080	
673.98	18857	
674.17	19011	
674.36	17619	
674.54	17421	
674.73	18606	
674.91	18798	
675.1	17266	
675.28	16879	
675.47	18339	
675.65	18929	
675.84	16935	
676.03	17330	
676.21	18137	
676.4	17705	
676.58	17757	
676.77	17646	
676.95	19469	
677.14	18112	
677.32	16573	
677.51	16479	
677.69	18858	
677.88	17758	
678.06	16572	
678.25	16563	
678.44	18533	
678.62	18078	
678.81	16324	
678.99	17386	
679.18	19149	
679.36	18769	
679.55	16869	
679.73	17462	
679.92	18670	
680.1	18168	
680.29	18058	
680.47	17001	
680.66	17975	
680.84	18828	
681.03	16247	
681.21	17237	
681.4	18094	
681.58	17941	
681.77	16463	
681.95	16505	
682.14	18901	
682.32	19028	
682.51	17415	
682.69	16113	
682.88	17729	
683.06	18325	
683.25	16949	
683.43	17346	
683.62	18083	
683.8	18551	
683.99	17506	
684.17	16661	
684.36	19095	
684.54	17587	
684.73	15515	
684.91	15363	
685.1	17370	
685.28	16454	
685.46	15403	
685.65	15464	
685.83	16841	
686.02	16328	
686.2	14788	
686.39	15005	
686.57	16254	
686.76	17836	
686.94	15105	
687.13	15304	
687.31	16978	
687.5	16722	
687.68	14971	
687.86	16192	
688.05	18520	
688.23	16320	
688.42	16227	
688.6	15784	
688.79	16903	
688.97	16850	
689.16	16133	
689.34	14982	
689.52	17806	
689.71	18006	
689.89	16466	
690.08	15742	
690.26	17373	
690.45	17253	
690.63	16488	
690.81	16004	
691	16967	
691.18	17008	
691.37	15917	
691.55	17979	
691.74	16746	
691.92	18733	
692.1	15782	
692.29	15183	
692.47	16876	
692.66	16214	
692.84	15383	
693.02	15918	
693.21	16549	
693.39	16823	
693.58	16147	
693.76	15659	
693.94	18117	
694.13	18230	
694.31	15886	
694.5	16841	
694.68	17136	
694.86	17589	
695.05	16431	
695.23	16746	
695.42	18158	
695.6	20265	
695.78	16949	
695.97	16055	
696.15	18096	
696.34	17337	
696.52	15793	
696.7	16571	
696.89	17511	
697.07	16996	
697.25	16210	
697.44	17813	
697.62	17452	
697.81	17655	
697.99	15807	
698.17	16502	
698.36	16583	
698.54	17219	
698.72	16201	
698.91	15042	
699.09	16749	
699.28	16719	
699.46	15562	
699.64	15479	
699.83	16505	
700.01	17492	
700.19	16144	
700.38	14780	
700.56	17467	
700.74	16686	
700.93	15184	
701.11	16046	
701.29	17215	
701.48	18359	
701.66	15507	
701.84	15696	
702.03	17006	
702.21	17794	
702.39	15008	
702.58	15864	
702.76	17306	
702.94	17408	
703.13	15148	
703.31	17529	
703.49	16630	
703.68	17511	
703.86	15111	
704.04	16300	
704.23	16890	
704.41	17413	
704.59	15376	
704.78	16298	
704.96	18185	
705.14	17518	
705.33	15172	
705.51	15881	
705.69	16806	
705.87	17478	
706.06	15918	
706.24	14989	
706.42	17021	
706.61	17467	
706.79	15912	
706.97	14974	
707.16	16326	
707.34	16793	
707.52	15768	
707.7	15092	
707.89	16463	
708.07	16208	
708.25	15846	
708.44	16133	
708.62	16346	
708.8	17318	
708.98	15950	
709.17	15113	
709.35	16679	
709.53	16539	
709.72	14650	
709.9	14915	
710.08	16644	
710.26	16692	
710.45	15794	
710.63	14648	
710.81	16150	
710.99	16125	
711.18	15165	
711.36	14661	
711.54	15875	
711.72	16543	
711.91	14508	
712.09	13874	
712.27	15627	
712.45	16277	
712.64	14453	
712.82	13364	
713	14772	
713.18	14723	
713.37	13123	
713.55	14237	
713.73	15468	
713.91	13670	
714.1	12864	
714.28	12127	
714.46	14063	
714.64	12964	
714.83	10871	
715.01	11488	
715.19	12572	
715.37	11824	
715.55	10804	
715.74	10914	
715.92	13045	
716.1	11073	
716.28	11851	
716.47	10830	
716.65	11536	
716.83	11563	
717.01	10718	
717.19	10447	
717.38	13708	
717.56	11337	
717.74	11003	
717.92	10075	
718.1	12584	
718.29	11957	
718.47	10056	
718.65	10811	
718.83	13067	
719.01	13183	
719.2	10444	
719.38	11624	
719.56	12908	
719.74	14363	
719.92	11163	
720.11	12139	
720.29	12770	
720.47	11776	
720.65	10270	
720.83	10944	
721.02	11612	
721.2	11372	
721.38	10647	
721.56	9925.1	
721.74	10699	
721.92	10847	
722.11	10976	
722.29	10591	
722.47	11986	
722.65	11180	
722.83	9769.5	
723.01	10676	
723.2	11261	
723.38	11428	
723.56	9171.5	
723.74	10169	
723.92	10677	
724.1	11936	
724.29	9555.8	
724.47	10707	
724.65	10832	
724.83	10568	
725.01	9381.1	
725.19	10202	
725.37	10503	
725.56	10595	
725.74	9198.1	
725.92	9469.1	
726.1	10501	
726.28	10815	
726.46	9736.7	
726.64	9433.6	
726.83	10739	
727.01	10998	
727.19	9029.5	
727.37	9893.7	
727.55	10833	
727.73	11254	
727.91	8953	
728.09	8859.5	
728.28	11265	
728.46	11848	
728.64	10023	
728.82	9972.9	
729	12508	
729.18	11746	
729.36	9316.2	
729.54	11505	
729.72	12906	
729.91	11372	
730.09	11288	
730.27	10173	
730.45	11200	
730.63	11873	
730.81	10721	
730.99	10000	
731.17	12402	
731.35	10981	
731.53	10308	
731.71	9900.6	
731.9	11918	
732.08	12179	
732.26	10027	
732.44	9670.5	
732.62	12104	
732.8	11696	
732.98	10326	
733.16	9429.5	
733.34	11516	
733.52	10200	
733.7	9745.6	
733.88	10032	
734.07	11109	
734.25	11030	
734.43	9209	
734.61	10808	
734.79	12549	
734.97	10871	
735.15	9252	
735.33	9702.6	
735.51	11165	
735.69	10764	
735.87	10811	
736.05	9788.6	
736.23	11005	
736.41	10613	
736.59	9597.5	
736.77	9634.3	
736.95	11335	
737.13	10717	
737.32	9142.8	
737.5	9498.5	
737.68	11906	
737.86	10447	
738.04	8910	
738.22	10709	
738.4	10163	
738.58	10499	
738.76	9444.5	
738.94	8438.3	
739.12	10352	
739.3	10190	
739.48	10039	
739.66	9770.9	
739.84	10529	
740.02	10605	
740.2	8575.5	
740.38	8751.7	
740.56	10940	
740.74	9804.3	
740.92	9404.3	
741.1	9200.2	
741.28	10073	
741.46	9901.2	
741.64	8708.6	
741.82	9239.8	
742	10187	
742.18	10149	
742.36	8870.4	
742.54	8482.7	
742.72	10624	
742.9	9319.6	
743.08	9147.6	
743.26	8013	
743.44	10834	
743.62	10525	
743.8	9323	
743.98	8290.2	
744.16	10215	
744.34	9880.1	
744.52	9082.1	
744.7	8888.2	
744.88	10194	
745.06	9833.7	
745.24	8816.5	
745.42	9045.9	
745.6	10188	
745.78	9880.1	
745.96	7704.5	
746.14	7965.2	
746.32	10778	
746.5	10036	
746.68	8409	
746.86	7922.2	
747.03	10475	
747.21	8675.9	
747.39	8332.5	
747.57	7780.2	
747.75	9480.7	
747.93	9938.1	
748.11	7708.6	
748.29	7623.9	
748.47	11209	
748.65	9200.2	
748.83	8540.7	
749.01	8197.3	
749.19	9666.4	
749.37	8832.2	
749.55	8036.9	
749.73	8085.4	
749.91	9267.7	
750.09	8995.4	
750.26	8024.6	
750.44	7398.6	
750.62	9305.3	
750.8	9195.4	
750.98	7316	
751.16	7614.3	
751.34	9258.9	
751.52	8607.6	
751.7	8428.1	
751.88	7170.6	
752.06	9681.4	
752.24	9565.4	
752.42	7203.4	
752.59	7472.4	
752.77	9000.1	
752.95	10332	
753.13	8162.5	
753.31	7587	
753.49	8692.3	
753.67	9139.4	
753.85	7736.5	
754.03	7391.1	
754.21	9234.3	
754.38	9512.1	
754.56	7320.1	
754.74	6363	
754.92	8144.8	
755.1	8797.4	
755.28	6051.1	
755.46	5917.9	
755.64	8976.9	
755.82	9026.8	
755.99	5599.1	
756.17	5556.1	
756.35	6039.5	
756.53	7486.7	
756.71	4261.8	
756.89	5228.5	
757.07	7075	
757.25	6253.8	
757.42	5850.4	
757.6	6806.1	
757.78	7492.2	
757.96	6565.1	
758.14	5788.2	
758.32	5383.4	
758.5	6163.7	
758.67	6960.4	
758.85	5716.6	
759.03	5644.2	
759.21	7034.1	
759.39	6561.7	
759.57	5114.5	
759.75	6358.3	
759.92	7737.2	
760.1	6948.8	
760.28	6701.6	
760.46	7006.8	
760.64	6879.1	
760.82	6750.1	
760.99	6759.7	
761.17	5894.1	
761.35	7783	
761.53	6820.4	
761.71	6102.9	
761.89	6826.6	
762.06	7818.5	
762.24	7336.5	
762.42	6248.4	
762.6	6094.1	
762.78	7400.7	
762.96	8038.3	
763.13	6725.5	
763.31	6341.2	
763.49	8232.2	
763.67	7436.2	
763.85	7235.5	
764.02	7752.2	
764.2	8447.9	
764.38	7653.9	
764.56	6217	
764.74	7060.7	
764.91	8535.9	
765.09	7414.3	
765.27	5897.5	
765.45	5670.8	
765.63	8499.1	
765.8	8401.5	
765.98	5362.9	
766.16	5748.6	
766.34	6871.6	
766.52	6744	
766.69	6604.7	
766.87	5468.8	
767.05	7238.9	
767.23	8036.9	
767.41	5690.6	
767.58	5973.2	
767.76	7734.5	
767.94	7829.4	
768.12	5727.5	
768.29	6394.4	
768.47	7194.5	
768.65	7943.4	
768.83	5288.5	
769	6442.2	
769.18	6706.4	
769.36	7378.1	
769.54	6404	
769.72	5248.9	
769.89	7622.5	
770.07	7714	
770.25	5558.9	
770.43	6832	
770.6	8336.6	
770.78	8774.9	
770.96	5629.9	
771.14	6225.1	
771.31	7407.5	
771.49	6765.8	
771.67	4739	
771.85	5034.6	
772.02	5974.6	
772.2	6605.4	
772.38	5793	
772.55	5254.4	
772.73	6954.2	
772.91	6683.2	
773.09	5560.9	
773.26	5631.9	
773.44	6763.8	
773.62	6493.4	
773.8	5007.3	
773.97	4745.1	
774.15	6797.9	
774.33	6468.2	
774.5	4909.7	
774.68	5213.4	
774.86	6963.1	
775.04	6452.5	
775.21	4898.1	
775.39	4823	
775.57	6690	
775.74	7025.9	
775.92	4683.7	
776.1	4644.1	
776.27	6567.8	
776.45	7797.3	
776.63	4776.5	
776.81	4356.7	
776.98	6244.3	
777.16	7305.1	
777.34	4891.9	
777.51	5188.2	
777.69	6239.5	
777.87	5938.4	
778.04	4843.4	
778.22	5489.9	
778.4	5961	
778.57	6627.2	
778.75	4145.8	
778.93	4377.9	
779.1	5700.9	
779.28	5592.3	
779.46	4095.9	
779.64	4556.7	
779.81	6662	
779.99	7565.2	
780.17	5380	
780.34	5511.1	
780.52	6052.4	
780.69	6322.1	
780.87	4939.7	
781.05	4420.9	
781.22	6183.5	
781.4	6159.6	
781.58	4571.1	
781.75	3781.9	
781.93	6023.1	
782.11	5602.6	
782.28	5394.3	
782.46	4508.3	
782.64	5354.1	
782.81	6299.6	
782.99	4536.9	
783.17	4561.5	
783.34	6094.8	
783.52	5401.2	
783.69	4736.3	
783.87	5502.2	
784.05	5503.6	
784.22	5491.3	
784.4	5487.2	
784.58	4788.8	
784.75	6345.3	
784.93	5427.8	
785.1	4417.5	
785.28	5039.4	
785.46	6100.2	
785.63	5446.2	
785.81	4388.8	
785.99	4223.6	
786.16	5567.7	
786.34	6031.3	
786.51	4283	
786.69	4635.9	
786.87	5132.2	
787.04	5653.1	
787.22	4090.5	
787.39	5001.8	
787.57	5378.6	
787.75	6466.8	
787.92	5197.1	
788.1	5142.4	
788.27	5407.3	
788.45	5164.3	
788.63	4848.2	
788.8	3595.6	
788.98	5834.7	
789.15	5103.5	
789.33	3704.1	
789.5	4347.2	
789.68	6270.2	
789.86	6276.3	
790.03	4745.1	
790.21	4160.8	
790.38	6268.1	
790.56	5451	
790.73	4037.9	
790.91	4077.5	
791.09	5302.9	
791.26	5980.8	
791.44	4347.2	
791.61	3753.9	
791.79	5261.2	
791.96	5386.8	
792.14	3874.8	
792.32	3459.7	
792.49	5332.9	
792.67	5373.9	
792.84	3932.8	
793.02	3708.2	
793.19	5664	
793.37	6436.8	
793.54	3428.3	
793.72	3680.9	
793.89	6606.7	
794.07	5216.9	
794.25	4349.2	
794.42	3478.8	
794.6	6291.4	
794.77	5930.2	
794.95	4616.1	
795.12	4042	
795.3	5240.1	
795.47	5840.8	
795.65	4489.8	
795.82	4263.9	
796	5045.5	
796.17	6993.8	
796.35	4165.6	
796.52	4777.9	
796.7	5701.5	
796.87	5899.5	
797.05	5042.8	
797.22	4959.5	
797.4	5803.9	
797.57	6739.2	
797.75	4255	
797.92	3959.4	
798.1	6058.6	
798.27	5190.9	
798.45	3496.6	
798.62	3689.8	
798.8	5477.6	
798.97	6005.3	
799.15	4456.4	
799.32	4239.3	
799.5	4824.3	
799.67	5550.7	
799.85	4584.7	
800.02	3362.8	
800.2	5086.5	
800.37	5483.1	
800.55	4768.4	
800.72	3973.7	
800.9	5894.1	
801.07	6353.5	
801.25	5265.3	
801.42	4377.9	
801.6	5955.5	
801.77	5646.2	
801.95	3953.3	
802.12	3885	
802.29	5666.7	
802.47	5641.5	
802.64	4231.1	
802.82	3320.4	
802.99	5086.5	
803.17	6102.9	
803.34	4179.9	
803.52	3810.6	
803.69	6747.4	
803.87	4883.7	
804.04	4171.7	
804.21	4184	
804.39	6165.1	
804.56	5274.2	
804.74	3574.4	
804.91	4349.9	
805.09	5108.3	
805.26	5208	
805.44	3633.1	
805.61	3926.6	
805.78	5801.9	
805.96	5911.1	
806.13	4356	
806.31	4582.7	
806.48	4693.9	
806.66	5154.1	
806.83	4237.9	
807	4206.5	
807.18	5091.3	
807.35	5466.7	
807.53	4207.2	
807.7	3355.3	
807.87	6223.1	
808.05	5122	
808.22	4521.9	
808.4	3371.6	
808.57	5104.2	
808.74	4767	
808.92	3829.7	
809.09	4786.8	
809.27	5016.2	
809.44	5616.2	
809.61	3421.5	
809.79	3717.7	
809.96	6223.8	
810.14	5872.9	
810.31	3278.8	
810.48	3994.2	
810.66	5176.6	
810.83	5923.4	
811.01	3794.9	
811.18	4212	
811.35	5785.5	
811.53	4537.6	
811.7	4595	
811.87	4251.6	
812.05	5100.8	
812.22	5026.4	
812.39	3666.5	
812.57	3582.6	
812.74	5060.5	
812.92	6782.9	
813.09	3988.8	
813.26	4377.9	
813.44	6482.5	
813.61	5035.3	
813.78	3287	
813.96	4413.4	
814.13	5106.3	
814.3	4800.4	
814.48	4819.6	
814.65	4022.2	
814.82	6335.7	
815	4905.6	
815.17	4156.7	
815.34	4942.4	
815.52	5029.8	
815.69	5003.9	
815.87	4003.8	
816.04	3508.9	
816.21	5102.2	
816.38	4513.7	
816.56	3986	
816.73	3698.6	
816.9	6406.7	
817.08	5819	
817.25	3672	
817.42	4637.3	
817.6	4625	
817.77	5145.2	
817.94	4150.5	
818.12	3649.5	
818.29	4831.2	
818.46	7493.5	
818.64	3839.9	
818.81	3635.1	
818.98	4808.6	
819.16	6872.3	
819.33	4388.8	
819.5	4076.8	
819.67	5447.6	
819.85	6099.5	
820.02	3998.3	
820.19	4242	
820.37	5342.5	
820.54	4897.4	
820.71	4126.7	
820.88	5096	
821.06	5337	
821.23	4839.4	
821.4	4197.7	
821.58	4093.2	
821.75	5767.1	
821.92	5251.7	
822.09	3374.4	
822.27	3633.1	
822.44	5131.5	
822.61	4990.2	
822.79	3339.6	
822.96	6425.8	
823.13	5591	
823.3	4780.6	
823.48	3874.1	
823.65	3514.3	
823.82	5722.7	
823.99	4655.7	
824.17	4858.5	
824.34	3530.7	
824.51	6688	
824.68	5122.7	
824.86	3674.7	
825.03	4152.6	
825.2	5114.5	
825.37	6133	
825.55	3678.2	
825.72	4048.8	
825.89	6675	
826.06	6251.8	
826.24	3965.6	
826.41	3962.1	
826.58	6201.2	
826.75	5380	
826.92	3148.4	
827.1	3532.1	
827.27	8332.5	
827.44	6671.6	
827.61	3790.1	
827.79	4567	
827.96	4848.2	
828.13	5160.9	
828.3	3941	
828.47	3312.9	
828.65	5330.2	
828.82	5268.1	
828.99	5048.9	
829.16	4475.5	
829.34	5668.1	
829.51	5470.1	
829.68	4040.6	
829.85	4214.7	
830.02	5938.4	
830.2	5709.7	
830.37	3204.4	
830.54	4859.8	
830.71	6433.4	
830.88	5073.5	
831.05	3192.1	
831.23	3670.6	
831.4	6174.6	
831.57	6888.7	
831.74	3753.2	
831.91	3269.9	
832.09	5287.9	
832.26	5638.1	
832.43	3903.4	
832.6	4376.5	
832.77	5307.7	
832.94	6053.8	
833.12	3161.4	
833.29	3795.6	
833.46	4953.4	
833.63	7114	
833.8	4261.8	
833.97	3931.4	
834.15	5743.2	
834.32	5431.2	
834.49	4049.5	
834.66	4149.2	
834.83	5902.9	
835	4799.1	
835.17	3771.7	
835.35	3792.2	
835.52	5603.2	
835.69	5513.1	
835.86	4007.2	
836.03	3287.7	
836.2	5595.7	
836.37	5268.1	
836.55	3910.9	
836.72	3610.6	
836.89	5242.8	
837.06	5740.5	
837.23	3986.7	
837.4	4347.8	
837.57	6476.4	
837.75	7146.7	
837.92	3593.5	
838.09	3790.8	
838.26	5270.1	
838.43	5926.1	
838.6	4065.2	
838.77	3623.5	
838.94	6807.4	
839.11	6452.5	
839.29	3851.5	
839.46	3098.6	
839.63	5580	
839.8	5361.6	
839.97	3766.9	
840.14	3792.2	
840.31	5400.5	
840.48	5664.7	
840.65	3135.4	
840.82	3792.2	
841	5690.6	
841.17	5610.8	
841.34	3537.5	
841.51	3561.4	
841.68	5597.1	
841.85	5315.8	
842.02	3634.5	
842.19	3002.3	
842.36	5380	
842.53	5351.3	
842.7	3437.9	
842.87	4285	
843.05	7106.5	
843.22	5358.9	
843.39	3283.6	
843.56	3523.2	
843.73	5218.9	
843.9	5735	
844.07	5572.5	
844.24	4668	
844.41	8281.3	
844.58	4866.7	
844.75	3383.2	
844.92	3624.9	
845.09	5664	
845.26	5588.9	
845.43	3470.6	
845.6	3673.4	
845.77	5689.3	
845.94	5384.1	
846.12	3788.7	
846.29	4023.6	
846.46	5854.5	
846.63	5633.3	
846.8	3482.9	
846.97	4100.7	
847.14	6030.6	
847.31	5553.4	
847.48	3909.6	
847.65	4326	
847.82	5937.1	
847.99	5854.5	
848.16	4607.2	
848.33	4261.1	
848.5	5165.7	
848.67	6118	
848.84	3425.6	
849.01	3594.2	
849.18	5074.9	
849.35	4741.7	
849.52	4303.5	
849.69	3389.4	
849.86	5800.5	
850.03	6044.9	
850.2	3435.8	
850.37	4235.9	
850.54	5961	
850.71	5312.4	
850.88	4137.6	
851.05	3401.7	
851.22	5547.9	
851.39	6119.3	
851.56	3269.2	
851.73	3966.9	
851.9	4936.3	
852.07	5852.4	
852.24	3838.6	
852.41	3466.5	
852.58	5513.8	
852.75	5021.6	
852.92	3893.9	
853.09	3356.6	
853.26	5224.4	
853.43	6034	
853.6	3437.9	
853.77	2947.7	
853.94	6180.1	
854.11	4986.1	
854.28	5076.2	
854.44	3702.7	
854.61	6537.1	
854.78	5930.9	
854.95	3412.6	
855.12	4319.8	
855.29	4558.1	
855.46	6273.6	
855.63	3424.9	
855.8	4795.7	
855.97	5171.8	
856.14	5928.9	
856.31	4820.9	
856.48	3745.1	
856.65	5205.3	
856.82	4874.8	
856.99	3357.3	
857.16	3702.7	
857.33	6806.8	
857.49	5257.1	
857.66	3687	
857.83	3960.1	
858	5217.5	
858.17	5496.7	
858.34	3279.5	
858.51	3488.4	
858.68	6291.4	
858.85	6314.6	
859.02	3980.6	
859.19	4223.6	
859.36	4914.4	
859.52	4955.4	
859.69	3429.7	
859.86	4063.9	
860.03	5020.3	
860.2	6131.6	
860.37	3093.8	
860.54	3470.6	
860.71	5820.3	
860.88	6256.5	
861.05	3812.6	
861.21	4314.4	
861.38	6209.4	
861.55	4799.1	
861.72	3102.7	
861.89	3820.1	
862.06	5856.5	
862.23	6386.2	
862.4	3390.8	
862.56	3595.6	
862.73	5704.3	
862.9	5329.5	
863.07	4020.2	
863.24	3161.4	
863.41	4835.9	
863.58	4947.9	
863.75	3475.4	
863.91	3973.7	
864.08	6202.6	
864.25	5750	
864.42	4339	
864.59	4832.5	
864.76	6550.8	
864.93	4984.1	
865.09	3394.2	
865.26	3631.7	
865.43	6100.2	
865.6	6475.7	
865.77	2955.9	
865.94	3354.6	
866.1	6104.3	
866.27	5832.6	
866.44	5140.4	
866.61	3254.9	
866.78	5307	
866.95	5773.9	
867.11	3331.4	
867.28	3056.9	
867.45	5926.8	
867.62	4988.2	
867.79	4002.4	
867.96	3378.5	
868.12	4934.2	
868.29	5861.3	
868.46	2968.2	
868.63	4588.8	
868.8	6019	
868.97	5793	
869.13	3596.9	
869.3	3602.4	
869.47	5629.9	
869.64	5937.1	
869.81	3467.9	
869.97	3487	
870.14	5602.6	
870.31	6260.6	
870.48	3340.2	
870.65	4289.8	
870.81	5255.8	
870.98	5314.5	
871.15	3907.5	
871.32	3549.1	
871.48	5729.5	
871.65	6327.5	
871.82	3414.6	
871.99	3760.1	
872.16	6769.9	
872.32	6137.8	
872.49	3457	
872.66	3521.1	
872.83	5838.8	
872.99	5129.5	
873.16	3988.8	
873.33	3367.5	
873.5	5444.9	
873.67	5474.9	
873.83	3616	
874	4535.6	
874.17	5575.9	
874.34	6617	
874.5	4397	
874.67	4259.8	
874.84	6210.8	
875.01	4944.5	
875.17	4783.4	
875.34	3422.2	
875.51	5511.1	
875.68	6633.4	
875.84	4168.3	
876.01	4991.6	
876.18	5752.1	
876.34	5730.9	
876.51	3450.8	
876.68	3304.1	
876.85	5302.2	
877.01	6086.6	
877.18	4928.8	
877.35	3323.2	
877.52	5408.7	
877.68	4857.1	
877.85	3284.3	
878.02	3367.5	
878.18	5353.4	
878.35	5101.5	
878.52	2736.8	
878.69	3781.2	
878.85	5816.9	
879.02	5776.6	
879.19	4829.8	
879.35	3713.6	
879.52	5785.5	
879.69	5958.9	
879.86	2973	
880.02	3848.1	
880.19	5345.2	
880.36	6582.2	
880.52	3984	
880.69	4046.8	
880.86	5823.7	
881.02	5984.8	
881.19	3764.2	
881.36	3715	
881.52	5737.7	
881.69	5102.2	
881.86	3756	
882.02	3562.1	
882.19	6068.1	
882.36	7081.2	
882.52	3499.3	
882.69	4810.7	
882.86	5563	
883.02	5468.8	
883.19	4169	
883.36	3918.4	
883.52	5894.1	
883.69	6714.6	
883.86	3472	
884.02	3065.1	
884.19	5838.8	
884.36	5376.6	
884.52	3867.2	
884.69	3674.7	
884.86	5159.5	
885.02	6437.4	
885.19	3816	
885.36	3939.6	
885.52	5390.3	
885.69	5610.8	
885.86	4931.5	
886.02	4361.5	
886.19	5787.6	
886.35	5287.9	
886.52	3786.7	
886.69	4780.6	
886.85	4968.4	
887.02	6163	
887.19	6163	
887.35	6163	
887.52	6163	
887.68	6163	
887.85	6163	
888.02	6163	
888.18	6163	
888.35	6163	
888.51	6163	
888.68	6163	
888.85	6163	
889.01	6163	
889.18	6163	
889.35	6163	
889.51	6163	
889.68	6163	
889.84	6163	
890.01	6163	
890.17	6163	
890.34	6163	
890.51	6163	
890.67	6163	
890.84	6163	
891	6163	
891.17	6163	
891.34	6163	
891.5	6163	
891.67	6163	
891.83	6163	
892	6163	
892.16	6163	
892.33	6163	
892.5	6163	
892.66	6163	
892.83	6163	
892.99	6163	
893.16	6163	
893.32	6163	
893.49	6163	
893.65	6163	
893.82	6163	
893.99	6163	
894.15	6163	
894.32	6163	
894.48	6163	
894.65	6163	
894.81	6163	
894.98	6163	
895.14	6163	
895.31	6163	
895.47	6163	
895.64	6163	
895.81	6163	
895.97	6163	
896.14	6163	
896.3	6163	
896.47	6163	
896.63	6163	
896.8	6163	
896.96	6163	
897.13	6163	
897.29	6163	
897.46	6163	
897.62	6163	
897.79	6163	
897.95	6163	
898.12	6163	
898.28	6163	
898.45	6163	
898.61	6163	
898.78	6163	
898.94	6163	
899.11	6163	
899.27	6163	
899.44	6163	
899.6	6163	
899.77	6163	
899.93	6163	
900.1	6163	
900.26	6163	
900.43	6163	
900.59	6163	
900.76	6163	
900.92	6163	
901.09	6163	
901.25	6163	
901.42	6163	
901.58	6163	
901.75	6163	
901.91	6163	
902.07	6163	
902.24	6163	
902.4	6163	
902.57	6163	
902.73	6163	
902.9	6163	
903.06	6163	
903.23	6163	
903.39	6163	
903.56	6163	
903.72	6163	
903.88	6163	
904.05	6163	
904.21	6163	
904.38	6163	
904.54	6163	
904.71	6163	
904.87	6163	
905.03	6163	
905.2	6163	
905.36	6163	
905.53	6163	
905.69	6163	
905.86	6163	
906.02	6163	
906.18	6163	
906.35	6163	
906.51	6163	
906.68	6163	
906.84	6163	
907.01	6163	
907.17	6163	
907.33	6163	
907.5	6163	
907.66	6163	
907.83	6163	
907.99	6163	
908.15	6163	
908.32	6163	
908.48	6163	
908.65	6163	
908.81	6163	
908.97	6163	
909.14	6163	
909.3	6163	
909.47	6163	
909.63	6163	
909.79	6163	
909.96	6163	
910.12	6163	
910.28	6163	
910.45	6163	
910.61	6163	
910.78	6163	
910.94	6163	
911.1	6163	
911.27	6163	
911.43	6163	
911.59	6163	
911.76	6163	
911.92	6163	
912.08	6163	
912.25	6163	
912.41	6163	
912.57	6163	
912.74	6163	
912.9	6163	
913.07	6163	
913.23	6163	
913.39	6163	
913.56	6163	
913.72	6163	
913.88	6163	
914.05	6163	
914.21	6163	
914.37	6163	
914.54	6163	
914.7	6163	
914.86	6163	
915.03	6163	
915.19	6163	
