Wavelength	Intensities	
nm	a.u.	
179.22	1700.8	
179.44	1690.9	
179.65	1710.7	
179.86	1671.1	
180.08	1712.1	
180.29	3897.3	
180.51	3007.8	
180.72	5012.1	
180.94	5520.6	
181.15	2689.7	
181.37	2692.4	
181.58	4783.4	
181.79	5058.5	
182.01	2832.3	
182.22	2968.2	
182.44	5012.7	
182.65	4285	
182.87	3637.2	
183.08	3222.8	
183.29	5265.3	
183.51	4378.6	
183.72	2949.1	
183.94	4115.7	
184.15	4724	
184.37	4628.4	
184.58	2622.8	
184.79	3438.5	
185.01	4451.6	
185.22	5053.7	
185.44	3641.3	
185.65	3184.6	
185.86	4705.5	
186.08	4349.2	
186.29	2637.8	
186.51	2809.1	
186.72	4483.7	
186.94	5131.5	
187.15	3203	
187.36	3284.3	
187.58	6309.8	
187.79	4765.6	
188.01	3310.2	
188.22	5049.6	
188.43	5643.5	
188.65	4963.6	
188.86	2819.4	
189.08	3272	
189.29	4504.2	
189.5	4512.4	
189.72	2978.4	
189.93	3007.1	
190.15	5127.4	
190.36	5924.1	
190.57	3207.8	
190.79	3159.3	
191	5102.2	
191.22	5152	
191.43	3327.3	
191.64	2844.6	
191.86	5352.7	
192.07	5116.5	
192.29	2902	
192.5	2957.9	
192.71	5111	
192.93	4541.7	
193.14	2982.5	
193.35	3106.1	
193.57	4528.1	
193.78	5229.8	
194	2517.6	
194.21	2927.2	
194.42	4382.7	
194.64	4709	
194.85	3230.3	
195.07	3731.4	
195.28	4668	
195.49	4233.8	
195.71	3889.1	
195.92	2825.5	
196.13	4923.3	
196.35	4928.8	
196.56	4087.7	
196.78	3267.2	
196.99	5865.4	
197.2	5520	
197.42	3595.6	
197.63	3216.7	
197.84	4347.2	
198.06	4843.4	
198.27	2975.7	
198.48	3917.1	
198.7	4555.4	
198.91	4743.8	
199.13	3271.3	
199.34	3303.4	
199.55	5111	
199.77	4125.3	
199.98	2934.7	
200.19	3310.9	
200.41	4720.6	
200.62	4397	
200.83	3355.3	
201.05	3632.4	
201.26	4704.2	
201.47	4485.7	
201.69	2954.5	
201.9	2843.3	
202.11	4689.8	
202.33	5412.8	
202.54	3093.8	
202.76	3389.4	
202.97	4799.1	
203.18	4838	
203.4	3353.9	
203.61	3362.8	
203.82	4782.7	
204.04	4463.9	
204.25	3257.6	
204.46	3233.7	
204.68	4614.1	
204.89	4845.5	
205.1	3153.9	
205.32	2816.6	
205.53	4970.4	
205.74	5108.3	
205.96	2466.4	
206.17	3276.1	
206.38	4936.3	
206.6	5063.3	
206.81	3685.7	
207.02	3044	
207.24	4878.3	
207.45	5204.6	
207.66	3091.8	
207.88	2768.9	
208.09	4858.5	
208.3	4672.1	
208.52	2911.5	
208.73	3188	
208.94	4698.7	
209.15	5236	
209.37	3096.5	
209.58	3245.3	
209.79	5101.5	
210.01	4581.3	
210.22	2598.2	
210.43	2691.7	
210.65	4657.1	
210.86	5010	
211.07	3134.1	
211.29	2882.9	
211.5	4944.5	
211.71	4682.3	
211.93	2938.8	
212.14	2929.3	
212.35	4723.3	
212.56	4784.1	
212.78	3205.8	
212.99	2736.1	
213.2	5425.8	
213.42	4497.3	
213.63	2995.5	
213.84	3127.2	
214.06	4280.9	
214.27	4336.9	
214.48	3121.1	
214.69	3321.1	
214.91	5231.9	
215.12	5188.2	
215.33	3285.6	
215.55	3629	
215.76	5593	
215.97	4924	
216.18	3203	
216.4	3088.3	
216.61	4472.1	
216.82	5046.2	
217.04	2925.9	
217.25	3015.3	
217.46	5101.5	
217.67	4997.7	
217.89	2620	
218.1	2764.8	
218.31	4704.9	
218.53	4895.3	
218.74	3103.4	
218.95	2930.6	
219.16	4701.5	
219.38	5388.9	
219.59	2929.3	
219.8	3452.2	
220.01	5767.1	
220.23	4739.7	
220.44	3690.4	
220.65	2880.8	
220.87	4790.2	
221.08	5207.3	
221.29	2747	
221.5	3487.7	
221.72	6088.6	
221.93	4463.2	
222.14	3278.8	
222.35	3805.1	
222.57	4723.3	
222.78	5057.1	
222.99	3147	
223.2	3304.7	
223.42	4871.4	
223.63	4966.3	
223.84	2442.5	
224.05	2473.9	
224.27	5691.3	
224.48	5359.5	
224.69	3904.1	
224.9	3297.2	
225.12	4874.2	
225.33	4691.9	
225.54	2704	
225.75	2967.5	
225.97	4424.3	
226.18	4661.9	
226.39	3119.7	
226.6	2957.9	
226.82	4569.7	
227.03	4410	
227.24	3251.5	
227.45	2800.9	
227.67	5057.8	
227.88	5332.9	
228.09	3644.7	
228.3	3584.6	
228.52	5012.1	
228.73	4632.5	
228.94	3033	
229.15	2783.9	
229.36	4631.8	
229.58	4643.4	
229.79	3149.1	
230	3502.7	
230.21	5499.5	
230.43	4739.7	
230.64	3246.7	
230.85	3312.2	
231.06	5098.8	
231.28	4984.8	
231.49	2751.8	
231.7	3180.5	
231.91	4997.7	
232.12	4733.5	
232.34	2821.4	
232.55	3160	
232.76	5165	
232.97	4779.3	
233.18	2866.5	
233.4	3242.6	
233.61	4851	
233.82	4445.5	
234.03	3083.6	
234.25	2989.4	
234.46	6206	
234.67	4788.8	
234.88	3321.8	
235.09	2948.4	
235.31	4850.3	
235.52	4598.4	
235.73	3264.5	
235.94	2813.2	
236.15	4482.3	
236.37	5536.3	
236.58	2880.8	
236.79	3167.5	
237	4941.1	
237.21	4332.1	
237.43	3340.2	
237.64	2687.6	
237.85	7681.9	
238.06	4393.6	
238.27	3340.2	
238.48	2810.5	
238.7	4983.4	
238.91	4591.5	
239.12	3098.6	
239.33	3188.7	
239.54	4392.9	
239.76	4653.7	
239.97	3168.2	
240.18	3155.9	
240.39	5640.8	
240.6	4816.1	
240.82	3262.4	
241.03	2731.3	
241.24	4702.8	
241.45	5324.7	
241.66	2885.6	
241.87	3377.8	
242.09	5282.4	
242.3	5437.4	
242.51	3435.1	
242.72	3107.5	
242.93	5005.9	
243.14	4715.8	
243.36	3556	
243.57	3849.5	
243.78	5398.4	
243.99	4956.8	
244.2	3149.8	
244.41	2837.1	
244.63	4381.3	
244.84	4873.5	
245.05	3366.9	
245.26	3087	
245.47	4935.6	
245.68	5045.5	
245.9	4028.4	
246.11	3250.8	
246.32	4526.7	
246.53	4932.2	
246.74	4898.1	
246.95	2658.3	
247.16	4420.2	
247.38	4719.2	
247.59	2708.8	
247.8	3153.2	
248.01	4415.4	
248.22	4747.9	
248.43	2904	
248.64	3080.1	
248.86	4308.9	
249.07	4517.1	
249.28	2792.7	
249.49	3248.8	
249.7	5124.7	
249.91	5151.3	
250.12	2674.6	
250.34	2754.5	
250.55	4807.3	
250.76	4713.1	
250.97	3276.1	
251.18	3317	
251.39	5139	
251.6	4859.1	
251.81	3292.5	
252.03	3269.9	
252.24	4521.2	
252.45	5061.9	
252.66	2810.5	
252.87	3421.5	
253.08	4696	
253.29	5847	
253.5	2820.7	
253.72	3736.2	
253.93	4633.9	
254.14	5388.2	
254.35	3014.6	
254.56	3038.5	
254.77	4872.1	
254.98	4423.6	
255.19	3024.8	
255.41	3683.6	
255.62	4825.7	
255.83	5145.2	
256.04	3356.6	
256.25	3207.8	
256.46	5597.8	
256.67	4476.2	
256.88	3218	
257.09	3594.9	
257.31	4373.1	
257.52	4481	
257.73	4032.5	
257.94	2983.9	
258.15	4656.4	
258.36	4680.3	
258.57	3655.6	
258.78	2484.9	
258.99	5041.4	
259.2	4567	
259.41	2993.4	
259.63	3176.4	
259.84	5276.3	
260.05	5550.7	
260.26	3792.8	
260.47	2927.9	
260.68	5182	
260.89	4625.7	
261.1	3583.9	
261.31	2922.5	
261.52	5173.2	
261.73	5421.7	
261.95	3807.9	
262.16	3335.5	
262.37	5252.4	
262.58	5304.2	
262.79	3788.1	
263	3080.8	
263.21	4812.7	
263.42	4315.8	
263.63	3325.2	
263.84	3056.9	
264.05	5072.1	
264.26	5375.9	
264.47	3647.4	
264.69	3244.7	
264.9	5259.2	
265.11	4830.5	
265.32	2968.2	
265.53	2981.2	
265.74	4794.3	
265.95	4222.2	
266.16	3165.5	
266.37	3458.3	
266.58	4814.1	
266.79	4542.4	
267	3039.2	
267.21	2836.4	
267.42	4333.5	
267.63	4620.2	
267.84	3141.6	
268.06	2742.9	
268.27	5028.4	
268.48	5215.5	
268.69	3079.5	
268.9	3487	
269.11	5233.9	
269.32	4272.1	
269.53	3138.2	
269.74	2915.6	
269.95	4889.9	
270.16	4250.9	
270.37	3162.1	
270.58	3570.3	
270.79	4638.6	
271	5117.2	
271.21	3292.5	
271.42	3185.3	
271.63	4909.7	
271.84	4400.4	
272.05	2588.6	
272.26	2837.8	
272.47	4745.8	
272.68	4823.6	
272.89	3072.6	
273.11	3437.2	
273.32	4566.3	
273.53	5416.9	
273.74	3327.3	
273.95	3304.7	
274.16	5087.8	
274.37	4723.3	
274.58	3456.3	
274.79	2832.3	
275	4803.9	
275.21	5165	
275.42	4048.8	
275.63	3516.4	
275.84	4940.4	
276.05	5932.3	
276.26	3265.8	
276.47	3135.4	
276.68	4702.8	
276.89	5486.5	
277.1	3437.9	
277.31	2791.4	
277.52	4853.7	
277.73	5182.7	
277.94	2794.1	
278.15	3016.7	
278.36	4881	
278.57	4416.1	
278.78	3059	
278.99	3311.6	
279.2	4508.9	
279.41	4402.5	
279.62	3900	
279.83	2848.7	
280.04	5575.3	
280.25	4426.3	
280.46	3885	
280.67	3136.8	
280.88	4480.3	
281.09	5158.2	
281.3	3278.1	
281.51	4012.7	
281.72	4516.5	
281.93	5063.9	
282.14	2968.9	
282.35	3225.6	
282.56	5147.2	
282.77	5119.9	
282.98	3069.2	
283.19	3673.4	
283.4	6010.1	
283.61	4687.1	
283.82	2908.8	
284.03	3784.6	
284.24	4893.3	
284.45	5162.2	
284.66	3838.6	
284.87	3595.6	
285.08	5116.5	
285.29	5234.6	
285.5	2780.5	
285.71	3023.5	
285.92	5126.7	
286.12	5612.8	
286.33	3786.7	
286.54	3119.1	
286.75	5031.2	
286.96	4648.9	
287.17	2871.9	
287.38	3661.8	
287.59	4546.5	
287.8	4517.8	
288.01	3081.5	
288.22	3454.9	
288.43	4971.8	
288.64	4360.8	
288.85	3615.3	
289.06	3434.4	
289.27	5013.4	
289.48	5315.8	
289.69	3846.1	
289.9	3525.9	
290.11	5220.3	
290.32	4552	
290.53	3592.8	
290.74	3327.9	
290.94	5005.2	
291.15	5031.9	
291.36	2987.3	
291.57	3422.8	
291.78	4574.5	
291.99	4278.2	
292.2	2936.1	
292.41	3375.7	
292.62	5129.5	
292.83	4965.6	
293.04	4055.7	
293.25	2957.3	
293.46	4608.6	
293.67	5147.2	
293.88	2897.2	
294.09	2904	
294.29	4420.2	
294.5	4831.2	
294.71	3158	
294.92	3014.6	
295.13	4592.9	
295.34	5514.5	
295.55	2710.8	
295.76	2718.3	
295.97	5025	
296.18	5532.2	
296.39	2826.9	
296.6	2932.7	
296.81	4805.2	
297.01	4958.1	
297.22	3035.8	
297.43	3031	
297.64	4573.8	
297.85	4418.2	
298.06	2503.3	
298.27	2725.2	
298.48	4666	
298.69	4540.3	
298.9	3239.9	
299.11	2971.6	
299.31	4388.8	
299.52	4446.8	
299.73	3394.2	
299.94	3256.3	
300.15	4702.1	
300.36	4496	
300.57	3332	
300.78	3267.2	
300.99	4601.8	
301.2	4722.6	
301.4	3020.8	
301.61	3224.2	
301.82	4937	
302.03	5038	
302.24	3453.6	
302.45	2874	
302.66	4926.7	
302.87	5144.5	
303.08	2940.9	
303.29	3975.1	
303.49	4536.3	
303.7	4643.4	
303.91	2711.5	
304.12	3742.3	
304.33	4307.6	
304.54	4856.4	
304.75	2992.8	
304.96	2826.2	
305.16	4984.8	
305.37	5420.3	
305.58	2684.2	
305.79	2661	
306	4949.9	
306.21	4298.7	
306.42	2861.7	
306.63	4344.4	
306.83	4594.3	
307.04	5043.5	
307.25	3258.3	
307.46	3175.7	
307.67	4191.5	
307.88	5029.8	
308.09	2950.4	
308.29	3031	
308.5	4776.5	
308.71	5071.5	
308.92	3110.9	
309.13	2843.9	
309.34	4691.2	
309.55	4647.5	
309.75	3638.6	
309.96	3331.4	
310.17	5030.5	
310.38	4462.5	
310.59	3461.7	
310.8	2792.7	
311.01	5528.2	
311.21	4633.2	
311.42	2937.5	
311.63	2979.8	
311.84	4564.9	
312.05	4770.4	
312.26	3334.8	
312.46	3566.2	
312.67	4539.7	
312.88	4373.8	
313.09	2857.6	
313.3	2847.4	
313.51	5251.7	
313.71	5558.9	
313.92	2917	
314.13	2982.5	
314.34	4878.9	
314.55	4702.1	
314.76	3570.3	
314.96	3186	
315.17	4832.5	
315.38	4889.9	
315.59	2932	
315.8	2784.6	
316.01	5324.7	
316.21	5382.7	
316.42	2822.8	
316.63	3175.7	
316.84	4669.4	
317.05	5171.8	
317.26	3353.2	
317.46	3054.9	
317.67	4709	
317.88	4971.1	
318.09	3512.3	
318.3	2717.7	
318.5	4599.7	
318.71	4924.7	
318.92	4498	
319.13	3338.2	
319.34	5054.4	
319.54	5141.1	
319.75	2744.3	
319.96	2652.1	
320.17	4947.2	
320.38	5115.1	
320.58	2659.6	
320.79	3125.2	
321	5155.4	
321.21	5190.9	
321.42	3173.7	
321.62	2666.5	
321.83	4478.2	
322.04	4717.8	
322.25	3070.6	
322.46	2890.4	
322.66	4814.8	
322.87	4939	
323.08	3508.9	
323.29	2848	
323.5	5519.3	
323.7	4341	
323.91	3835.8	
324.12	3439.9	
324.33	4828.4	
324.53	4960.9	
324.74	3309.5	
324.95	3487	
325.16	4308.9	
325.37	4616.8	
325.57	2868.5	
325.78	2962	
325.99	4845.5	
326.2	4376.5	
326.4	3937.6	
326.61	2709.5	
326.82	4653	
327.03	4797.7	
327.24	3902.7	
327.44	3718.4	
327.65	4914.4	
327.86	4111.6	
328.07	3307.5	
328.27	2807.1	
328.48	5227.8	
328.69	4397.7	
328.9	3983.3	
329.1	3037.8	
329.31	4677.6	
329.52	5218.2	
329.73	2939.5	
329.93	3125.2	
330.14	4790.2	
330.35	4902.8	
330.56	4541	
330.76	3498.6	
330.97	4564.2	
331.18	4870.1	
331.39	3192.1	
331.59	2663	
331.8	5132.2	
332.01	5227.8	
332.22	2998.9	
332.42	3336.1	
332.63	4829.8	
332.84	4425	
333.05	3205.1	
333.25	2985.9	
333.46	4498	
333.67	4732.9	
333.88	3062.4	
334.08	3291.1	
334.29	5959.6	
334.5	5147.2	
334.7	2840.5	
334.91	3935.5	
335.12	4384	
335.33	4949.9	
335.53	3200.3	
335.74	4379.9	
335.95	4612	
336.16	4341.7	
336.36	3176.4	
336.57	3566.9	
336.78	4315.8	
336.98	5090.6	
337.19	3895.9	
337.4	3099.3	
337.61	5515.9	
337.81	4354.7	
338.02	2983.9	
338.23	3697.9	
338.43	5261.2	
338.64	4450.9	
338.85	2932.7	
339.05	3690.4	
339.26	5331.5	
339.47	4339.6	
339.68	2879.4	
339.88	4111.6	
340.09	4902.2	
340.3	5081	
340.5	3330	
340.71	2631	
340.92	4339.6	
341.13	5251	
341.33	2833	
341.54	3343.7	
341.75	4876.9	
341.95	4607.9	
342.16	3224.2	
342.37	3441.3	
342.57	4338.3	
342.78	4631.8	
342.99	3533.4	
343.19	2650.1	
343.4	4989.5	
343.61	4885.1	
343.81	3037.1	
344.02	2848.7	
344.23	5009.3	
344.43	5221.6	
344.64	3492.5	
344.85	3407.1	
345.06	4886.5	
345.26	5096.7	
345.47	3339.6	
345.68	3796.3	
345.88	4270.7	
346.09	5044.1	
346.3	3401.7	
346.5	2599.6	
346.71	4700.8	
346.92	4483	
347.12	2769.5	
347.33	3241.9	
347.54	5085.1	
347.74	5320.6	
347.95	3235.1	
348.16	2549.7	
348.36	4530.1	
348.57	4424.3	
348.78	3370.3	
348.98	3509.5	
349.19	4643.4	
349.39	4286.4	
349.6	2720.4	
349.81	2965.5	
350.01	4914.4	
350.22	4392.9	
350.43	3191.4	
350.63	3730.7	
350.84	4728.1	
351.05	4512.4	
351.25	2921.8	
351.46	2729.9	
351.67	5094	
351.87	4486.4	
352.08	3111.5	
352.29	3452.2	
352.49	5001.1	
352.7	5066	
352.9	2826.9	
353.11	3469.3	
353.32	5489.9	
353.52	4560.1	
353.73	2841.2	
353.94	3534.1	
354.14	4928.1	
354.35	4745.8	
354.55	2897.2	
354.76	3170.9	
354.97	4898.7	
355.17	4661.2	
355.38	2811.2	
355.59	3627.6	
355.79	4468	
356	4691.9	
356.2	3113.6	
356.41	2816	
356.62	4264.6	
356.82	4620.2	
357.03	3371	
357.24	3022.8	
357.44	4434.5	
357.65	4563.6	
357.85	3897.3	
358.06	3218.7	
358.27	4269.3	
358.47	4365.6	
358.68	2700.6	
358.88	3372.3	
359.09	4883.7	
359.3	4999.8	
359.5	3808.5	
359.71	3429	
359.91	5405.3	
360.12	4936.3	
360.33	3354.6	
360.53	3619.4	
360.74	4425	
360.94	4488.5	
361.15	3442	
361.36	2913.6	
361.56	5104.2	
361.77	4625.7	
361.97	3791.5	
362.18	3046.7	
362.38	5054.4	
362.59	4348.5	
362.8	2872.6	
363	2772.9	
363.21	4201.7	
363.41	4721.3	
363.62	3289	
363.83	3942.3	
364.03	4830.5	
364.24	5356.8	
364.44	4068.6	
364.65	4024.3	
364.85	4638.6	
365.06	4335.5	
365.27	2933.4	
365.47	3039.2	
365.68	5219.6	
365.88	4593.6	
366.09	3331.4	
366.29	3049.4	
366.5	4683	
366.71	5037.3	
366.91	3954.6	
367.12	3414	
367.32	5485.1	
367.53	4945.2	
367.73	3338.2	
367.94	4103.4	
368.14	4954.7	
368.35	5479	
368.56	3373.7	
368.76	2855.6	
368.97	5066	
369.17	6070.2	
369.38	2983.9	
369.58	3217.4	
369.79	4240.7	
369.99	5268.7	
370.2	3956	
370.4	3209.8	
370.61	4797.7	
370.82	5744.6	
371.02	3221.5	
371.23	2702.6	
371.43	4257.7	
371.64	5284.4	
371.84	3219.4	
372.05	4056.3	
372.25	6083.1	
372.46	4926	
372.66	3158.7	
372.87	3211.2	
373.07	4988.2	
373.28	6190.3	
373.48	3908.2	
373.69	3683.6	
373.9	4653.7	
374.1	4682.3	
374.31	3872.7	
374.51	3548.4	
374.72	5259.9	
374.92	4412.7	
375.13	4004.5	
375.33	3375.7	
375.54	4885.8	
375.74	4564.2	
375.95	3506.1	
376.15	4408.6	
376.36	4967	
376.56	4788.2	
376.77	3461.7	
376.97	3806.5	
377.18	5769.8	
377.38	5001.8	
377.59	4028.4	
377.79	3123.8	
378	4788.2	
378.2	5107	
378.41	3183.2	
378.61	3088.3	
378.82	5220.3	
379.02	4450.9	
379.23	3278.1	
379.43	4028.4	
379.64	5289.9	
379.84	4943.8	
380.05	3191.4	
380.25	3108.8	
380.46	5001.8	
380.66	4732.2	
380.87	4130.1	
381.07	4409.3	
381.28	5431.2	
381.48	5001.1	
381.69	3221.5	
381.89	3216.7	
382.1	4268.6	
382.3	5090.6	
382.51	3980.6	
382.71	4680.3	
382.91	5006.6	
383.12	5364.3	
383.32	3450.1	
383.53	3629	
383.73	4916.5	
383.94	4803.9	
384.14	3678.2	
384.35	2941.6	
384.55	4672.8	
384.76	5005.2	
384.96	3475.4	
385.17	3721.8	
385.37	5078.3	
385.58	4509.6	
385.78	3682.2	
385.98	2852.1	
386.19	4728.8	
386.39	4960.2	
386.6	3350.5	
386.8	3476.8	
387.01	5001.1	
387.21	5048.2	
387.42	3751.9	
387.62	4167.6	
387.83	4541.7	
388.03	4904.9	
388.23	3512.9	
388.44	3981.9	
388.64	4311.7	
388.85	4351.9	
389.05	3693.9	
389.26	4182	
389.46	5843.5	
389.67	5368.4	
389.87	3721.2	
390.07	3770.3	
390.28	4753.3	
390.48	4416.1	
390.69	3190.1	
390.89	3414	
391.1	4622.9	
391.3	5244.2	
391.5	4261.8	
391.71	4684.4	
391.91	5156.1	
392.12	5737	
392.32	4376.5	
392.53	3706.1	
392.73	4663.9	
392.93	4775.2	
393.14	3551.9	
393.34	4106.9	
393.55	5111	
393.75	4763.6	
393.95	3543.7	
394.16	3451.5	
394.36	4673.5	
394.57	5070.8	
394.77	3166.2	
394.98	3479.5	
395.18	4577.9	
395.38	4612	
395.59	4116.4	
395.79	3321.8	
396	4758.1	
396.2	5031.2	
396.4	3922.5	
396.61	3850.9	
396.81	5124	
397.02	4623.6	
397.22	4105.5	
397.42	4120.5	
397.63	5205.3	
397.83	4603.8	
398.04	3290.4	
398.24	3603.1	
398.44	5073.5	
398.65	4250.2	
398.85	3179.8	
399.05	3227.6	
399.26	4605.9	
399.46	5840.8	
399.67	3549.8	
399.87	3360	
400.07	4859.1	
400.28	5097.4	
400.48	3425.6	
400.69	4143.7	
400.89	5236	
401.09	5618.9	
401.3	3368.9	
401.5	4169	
401.7	5758.2	
401.91	5950.7	
402.11	3670	
402.32	3762.8	
402.52	5345.2	
402.72	5210.7	
402.93	3955.3	
403.13	3108.8	
403.33	5816.2	
403.54	4902.2	
403.74	3675.4	
403.94	4373.8	
404.15	5019.6	
404.35	5815.5	
404.56	3512.3	
404.76	4786.1	
404.96	5220.3	
405.17	5087.8	
405.37	4407.9	
405.57	3881.6	
405.78	5340.4	
405.98	4966.3	
406.18	3527.3	
406.39	4230.4	
406.59	5350.7	
406.79	4922.6	
407	3426.3	
407.2	3487.7	
407.4	5541.8	
407.61	5440.8	
407.81	3456.3	
408.01	5188.9	
408.22	4562.2	
408.42	6008.1	
408.62	4263.2	
408.83	3863.8	
409.03	4983.4	
409.23	4900.1	
409.44	3930.7	
409.64	4085	
409.84	5782.8	
410.05	5677.7	
410.25	4074.8	
410.45	3869.3	
410.66	5279	
410.86	7107.1	
411.06	4246.8	
411.27	4130.8	
411.47	6853.9	
411.67	5399.8	
411.88	4227	
412.08	4476.9	
412.28	5948	
412.49	6300.9	
412.69	4143	
412.89	4093.9	
413.09	6095.4	
413.3	5963.7	
413.5	4182.6	
413.7	3949.2	
413.91	5519.3	
414.11	6162.3	
414.31	4053.6	
414.52	4429.1	
414.72	5902.2	
414.92	5806	
415.12	4088.4	
415.33	4513.7	
415.53	6076.3	
415.73	6211.5	
415.94	4762.9	
416.14	4369	
416.34	5442.8	
416.55	5143.1	
416.75	5171.1	
416.95	4730.8	
417.15	6112.5	
417.36	6663.4	
417.56	5380.7	
417.76	4654.4	
417.97	6364.4	
418.17	6146	
418.37	4342.4	
418.57	4457.1	
418.78	6035.4	
418.98	5813.5	
419.18	5059.2	
419.38	5036.6	
419.59	5819	
419.79	5504.3	
419.99	4326	
420.2	4563.6	
420.4	6303.6	
420.6	6260.6	
420.8	4305.5	
421.01	4160.1	
421.21	6055.8	
421.41	6083.8	
421.61	4549.2	
421.82	4363.5	
422.02	5705.6	
422.22	6399.9	
422.42	4924	
422.63	4773.1	
422.83	5751.4	
423.03	6742.6	
423.23	4713.1	
423.44	3949.8	
423.64	5786.2	
423.84	5614.8	
424.04	4273.4	
424.25	4070.7	
424.45	6492.7	
424.65	6458.6	
424.85	3960.8	
425.06	4303.5	
425.26	6565.8	
425.46	5719.3	
425.66	4650.3	
425.87	4463.9	
426.07	6260	
426.27	6124.1	
426.47	4554.7	
426.67	4078.9	
426.88	6591	
427.08	6151.4	
427.28	4722.6	
427.48	4031.8	
427.69	5414.1	
427.89	5829.9	
428.09	4635.2	
428.29	4055	
428.5	6258.6	
428.7	6023.8	
428.9	3987.4	
429.1	4399.7	
429.3	6041.5	
429.51	6154.1	
429.71	4265.2	
429.91	4823	
430.11	6193.1	
430.31	6280.4	
430.52	4501.4	
430.72	4739	
430.92	6579.4	
431.12	6141.9	
431.32	4202.4	
431.53	4580.6	
431.73	5384.8	
431.93	6657.3	
432.13	4179.9	
432.33	4089.1	
432.54	5878.4	
432.74	6013.5	
432.94	4070.7	
433.14	4895.3	
433.34	6260.6	
433.55	5795.1	
433.75	4797	
433.95	6036	
434.15	6062.7	
434.35	5786.2	
434.56	4259.8	
434.76	3885.7	
434.96	6032	
435.16	6195.8	
435.36	4162.2	
435.56	5006.6	
435.77	5741.1	
435.97	5926.8	
436.17	5479.7	
436.37	4937.7	
436.57	5827.2	
436.78	5750	
436.98	6222.4	
437.18	5393.7	
437.38	6291.4	
437.58	5870.8	
437.78	5501.5	
437.99	4525.3	
438.19	6250.4	
438.39	6897.6	
438.59	4461.8	
438.79	4097.3	
438.99	6860.7	
439.2	5857.2	
439.4	4113	
439.6	4099.4	
439.8	6007.4	
440	6868.9	
440.2	4928.8	
440.4	4967.7	
440.61	6479.1	
440.81	6774	
441.01	4369.7	
441.21	5016.8	
441.41	6819.7	
441.61	6522.1	
441.81	5252.4	
442.02	5984.8	
442.22	7109.9	
442.42	6599.9	
442.62	4415.4	
442.82	4464.6	
443.02	6883.2	
443.22	6124.8	
443.43	4789.5	
443.63	4450.9	
443.83	5985.5	
444.03	6061.3	
444.23	5313.8	
444.43	5051.7	
444.63	6341.9	
444.83	7219.1	
445.04	4587.4	
445.24	5482.4	
445.44	6617.7	
445.64	6649.1	
445.84	5178.6	
446.04	5165	
446.24	6060.6	
446.44	6796.5	
446.65	4482.3	
446.85	4769.7	
447.05	6275	
447.25	6748.7	
447.45	4924.7	
447.65	4350.6	
447.85	6439.5	
448.05	6040.8	
448.25	5199.1	
448.46	5010	
448.66	6346.7	
448.86	6085.9	
449.06	4435.9	
449.26	5186.8	
449.46	6634.7	
449.66	5887.9	
449.86	4878.9	
450.06	4786.8	
450.26	6008.1	
450.47	6541.9	
450.67	5083.1	
450.87	5273.5	
451.07	6696.2	
451.27	6409.5	
451.47	4519.9	
451.67	5232.6	
451.87	6186.2	
452.07	7056.6	
452.27	4734.2	
452.47	4719.9	
452.67	6425.2	
452.88	6682.5	
453.08	4254.3	
453.28	5762.3	
453.48	7319.4	
453.68	6339.1	
453.88	4678.9	
454.08	4805.2	
454.28	6632.7	
454.48	6438.1	
454.68	5208.7	
454.88	5538.4	
455.08	6849.1	
455.28	6533	
455.48	4597	
455.68	5078.3	
455.89	7166.5	
456.09	6867.5	
456.29	4938.3	
456.49	4968.4	
456.69	7123.5	
456.89	6671.6	
457.09	5345.9	
457.29	5563.6	
457.49	6767.2	
457.69	6901	
457.89	5269.4	
458.09	4760.2	
458.29	6613.6	
458.49	7169.3	
458.69	5511.8	
458.89	5024.3	
459.09	7292.1	
459.29	7480.5	
459.49	5111.7	
459.69	5706.3	
459.9	7020.4	
460.1	6647.7	
460.3	5086.5	
460.5	5005.2	
460.7	7032.7	
460.9	6711.2	
461.1	4650.9	
461.3	5636.7	
461.5	7608.2	
461.7	7236.2	
461.9	5050.3	
462.1	5416.9	
462.3	6946.7	
462.5	7337.9	
462.7	5208.7	
462.9	5229.8	
463.1	8113.4	
463.3	7808.9	
463.5	5320.6	
463.7	6053.8	
463.9	7096.9	
464.1	7372.7	
464.3	5500.2	
464.5	5622.4	
464.7	7513.3	
464.9	7358.4	
465.1	6675	
465.3	5953.4	
465.5	7870.3	
465.7	7847.1	
465.9	6175.3	
466.1	5910.4	
466.3	7647.1	
466.5	7597.3	
466.7	6707.1	
466.9	5864	
467.1	7716.1	
467.3	8189.8	
467.5	6658.6	
467.7	5808.7	
467.9	8477.2	
468.1	8981.7	
468.3	6384.2	
468.5	6729.6	
468.7	7595.9	
468.9	7533.8	
469.1	6128.9	
469.3	6713.9	
469.5	9041.1	
469.7	7232.1	
469.9	6407.4	
470.1	5984.2	
470.3	7710.6	
470.5	7681.9	
470.7	6859.3	
470.9	5984.8	
471.1	7466.2	
471.3	7789.1	
471.5	5899.5	
471.69	7272.3	
471.89	7453.9	
472.09	6965.1	
472.29	6396.5	
472.49	6636.8	
472.69	7176.8	
472.89	7724.9	
473.09	5797.8	
473.29	5858.6	
473.49	7333.8	
473.69	7393.8	
473.89	6511.2	
474.09	5960.3	
474.29	8351.6	
474.49	8013	
474.69	6572.6	
474.89	5979.4	
475.09	7500.3	
475.29	7349.5	
475.49	5638.7	
475.69	5904.3	
475.88	8581	
476.08	7808.9	
476.28	5630.5	
476.48	5909.1	
476.68	8105.9	
476.88	7815.7	
477.08	5796.4	
477.28	6082.5	
477.48	7537.2	
477.68	7937.9	
477.88	5729.5	
478.08	5954.1	
478.28	8181.6	
478.48	7574.8	
478.67	5978.7	
478.87	5458.5	
479.07	7980.9	
479.27	7619.1	
479.47	6186.2	
479.67	6109.1	
479.87	7914.7	
480.07	8308.6	
480.27	5651	
480.47	6818.4	
480.67	7673.1	
480.87	8185	
481.06	5808.7	
481.26	6492.1	
481.46	7677.8	
481.66	7580.9	
481.86	6185.5	
482.06	6907.8	
482.26	7466.2	
482.46	8211	
482.66	6109.8	
482.86	5848.3	
483.05	7761.8	
483.25	7257.3	
483.45	7933.1	
483.65	6123.4	
483.85	7413	
484.05	7585	
484.25	6459.3	
484.45	6770.6	
484.65	8180.3	
484.84	8358.4	
485.04	6078.4	
485.24	6173.3	
485.44	8489.5	
485.64	7257.3	
485.84	5658.5	
486.04	6667.5	
486.24	7578.8	
486.44	7820.5	
486.63	5621.7	
486.83	6256.5	
487.03	7580.9	
487.23	7755.7	
487.43	5746.6	
487.63	7359.7	
487.83	7839.6	
488.02	8338.6	
488.22	6402.6	
488.42	6878.4	
488.62	8434.2	
488.82	7535.8	
489.02	6185.5	
489.22	6198.5	
489.41	8269	
489.61	8063.5	
489.81	6013.5	
490.01	6019.7	
490.21	8279.3	
490.41	8833.6	
490.61	6032.6	
490.8	6158.9	
491	7886.7	
491.2	7445	
491.4	6593.1	
491.6	5915.9	
491.8	7933.8	
491.99	7859.4	
492.19	5762.3	
492.39	5991.7	
492.59	8208.9	
492.79	8370	
492.99	6722.1	
493.18	6006.7	
493.38	8492.9	
493.58	8981.7	
493.78	6548.7	
493.98	6345.3	
494.18	8211	
494.37	7871	
494.57	6899.6	
494.77	6683.9	
494.97	8491.6	
495.17	8640.4	
495.37	6526.9	
495.56	6756.9	
495.76	8775.5	
495.96	8557.1	
496.16	7488.7	
496.36	6679.8	
496.55	8757.1	
496.75	8321.6	
496.95	6898.9	
497.15	6862.1	
497.35	8762.6	
497.54	8638.3	
497.74	6769.9	
497.94	7991.9	
498.14	9314.8	
498.34	8899.8	
498.53	6475.7	
498.73	7135.1	
498.93	8284	
499.13	8624	
499.33	6992.4	
499.52	7407.5	
499.72	8774.9	
499.92	8859.5	
500.12	6776	
500.32	7026.6	
500.51	9000.1	
500.71	8675.9	
500.91	7565.9	
501.11	7326.3	
501.31	8972.8	
501.5	9200.8	
501.7	7869	
501.9	7040.9	
502.1	8739.4	
502.29	9097.1	
502.49	7344.7	
502.69	7699	
502.89	8828.8	
503.09	8983.8	
503.28	6577.4	
503.48	6757.6	
503.68	8430.8	
503.88	8374.1	
504.07	7359	
504.27	7156.3	
504.47	8645.2	
504.67	8655.4	
504.86	7387.7	
505.06	7133.1	
505.26	8490.2	
505.46	9640.5	
505.65	7015	
505.85	7258	
506.05	8381.7	
506.25	8686.8	
506.44	6634.1	
506.64	7158.3	
506.84	8277.2	
507.04	8800.1	
507.23	6726.9	
507.43	7081.9	
507.63	9691.7	
507.83	8336.6	
508.02	7074.4	
508.22	6825.2	
508.42	9923.8	
508.62	8299.7	
508.81	6987.7	
509.01	7505.8	
509.21	8155.7	
509.4	8447.2	
509.6	7178.1	
509.8	6717.3	
510	8449.9	
510.19	9386.5	
510.39	6642.9	
510.59	6784.2	
510.79	8282.7	
510.98	9221.3	
511.18	6868.2	
511.38	6984.9	
511.57	8964.6	
511.77	8731.9	
511.97	7379.5	
512.17	6740.5	
512.36	8865	
512.56	8771.5	
512.76	6720.1	
512.95	6477	
513.15	9012.4	
513.35	7862.2	
513.55	7388.4	
513.74	6791.1	
513.94	8907.3	
514.14	8430.8	
514.33	7466.2	
514.53	7242.3	
514.73	8516.1	
514.92	8555.7	
515.12	6883.2	
515.32	6701.6	
515.51	8675.9	
515.71	8937.3	
515.91	8065.6	
516.11	6862.1	
516.3	9885.5	
516.5	8439.7	
516.7	7247.1	
516.89	7620.5	
517.09	8486.1	
517.29	8495.7	
517.48	7461.4	
517.68	7017.7	
517.88	8259.5	
518.07	8861.6	
518.27	7387.7	
518.47	6678.4	
518.66	9177.6	
518.86	8169.3	
519.06	6602.7	
519.25	7002	
519.45	8488.8	
519.65	9538.8	
519.84	7439.6	
520.04	7955.7	
520.24	9791.3	
520.43	8937.3	
520.63	7281.9	
520.83	7051.8	
521.02	8433.5	
521.22	8817.2	
521.42	7327.6	
521.61	7811	
521.81	8568.7	
522.01	8790.6	
522.2	7253.2	
522.4	7090.1	
522.6	9045.9	
522.79	8132.5	
522.99	7253.2	
523.18	6757.6	
523.38	8961.9	
523.58	8884.1	
523.77	8249.2	
523.97	6862.1	
524.17	10240	
524.36	9710.8	
524.56	7838.9	
524.76	7595.2	
524.95	9015.2	
525.15	8742.1	
525.34	7509.2	
525.54	7534.5	
525.74	9368.1	
525.93	8719.6	
526.13	8428.1	
526.33	7668.3	
526.52	9750.4	
526.72	9317.6	
526.91	8527.1	
527.11	8012.3	
527.31	9743.6	
527.5	9966.8	
527.7	8028	
527.89	7402.7	
528.09	9038.4	
528.29	9440.5	
528.48	8368.7	
528.68	8005.5	
528.87	9726.5	
529.07	9773.6	
529.27	8171.4	
529.46	7744.7	
529.66	9603.6	
529.85	9906	
530.05	7679.2	
530.25	8155	
530.44	10520	
530.64	9546.9	
530.83	7950.2	
531.03	8121.6	
531.23	10015	
531.42	9693.7	
531.62	8625.4	
531.81	8022.6	
532.01	10108	
532.21	10327	
532.4	8071	
532.6	8334.6	
532.79	10817	
532.99	10261	
533.18	8473.1	
533.38	9196.7	
533.58	9938.8	
533.77	10338	
533.97	8473.1	
534.16	9016.5	
534.36	10665	
534.55	10024	
534.75	9218.6	
534.95	8586.5	
535.14	10695	
535.34	10043	
535.53	8315.4	
535.73	9709.4	
535.92	11079	
536.12	10065	
536.31	8357.1	
536.51	9290.3	
536.71	10453	
536.9	9994.8	
537.1	8558.5	
537.29	8575.5	
537.49	10716	
537.68	10012	
537.88	8895.7	
538.07	8308.6	
538.27	10269	
538.46	10985	
538.66	8304.5	
538.86	8622.6	
539.05	10241	
539.25	10626	
539.44	8960.5	
539.64	8416.5	
539.83	10114	
540.03	10928	
540.22	8469.7	
540.42	8645.8	
540.61	10303	
540.81	10449	
541	8824.7	
541.2	9346.9	
541.39	9942.9	
541.59	10257	
541.78	9064.3	
541.98	8482.7	
542.18	9802.9	
542.37	9706.7	
542.57	8786.5	
542.76	9149	
542.96	9794.1	
543.15	10235	
543.35	8716.8	
543.54	8204.2	
543.74	10374	
543.93	10192	
544.13	8668.4	
544.32	9271.8	
544.52	10370	
544.71	9673.9	
544.91	7933.1	
545.1	8787.8	
545.3	9894.4	
545.49	10094	
545.69	7965.2	
545.88	8304.5	
546.08	10916	
546.27	10649	
546.47	8746.9	
546.66	8175.5	
546.86	10374	
547.05	10770	
547.24	8331.8	
547.44	8198.7	
547.63	9568.8	
547.83	10425	
548.02	8615.8	
548.22	8667	
548.41	9537.4	
548.61	10429	
548.8	8219.2	
549	8101.8	
549.19	10023	
549.39	10199	
549.58	7936.6	
549.78	8399.4	
549.97	10271	
550.17	9824.1	
550.36	9040.4	
550.55	9583.8	
550.75	9811.1	
550.94	10483	
551.14	8083.3	
551.33	8329.1	
551.53	9387.2	
551.72	10045	
551.92	8329.1	
552.11	8211	
552.31	10222	
552.5	9970.2	
552.69	9460.3	
552.89	7914	
553.08	10051	
553.28	9810.5	
553.47	8153.6	
553.67	8983.1	
553.86	10555	
554.06	9259.5	
554.25	7578.2	
554.44	8033.5	
554.64	11013	
554.83	10662	
555.03	7881.9	
555.22	8230.1	
555.42	10225	
555.61	9869.8	
555.8	8199.4	
556	8197.3	
556.19	9295.7	
556.39	10120	
556.58	8032.8	
556.78	8067.6	
556.97	9913.5	
557.16	9590.6	
557.36	8916.9	
557.55	7795.9	
557.75	9112.8	
557.94	10392	
558.13	7892.2	
558.33	7679.9	
558.52	10256	
558.72	9411.1	
558.91	7748.1	
559.1	8054	
559.3	9214.5	
559.49	8921	
559.69	7507.2	
559.88	8188.5	
560.07	9820.7	
560.27	10126	
560.46	8316.1	
560.66	8411.7	
560.85	9599.5	
561.04	8992.6	
561.24	7655.3	
561.43	7798.7	
561.63	9149	
561.82	9373.6	
562.01	8725.7	
562.21	7974.8	
562.4	9656.9	
562.59	10331	
562.79	7984.3	
562.98	7720.2	
563.18	9609.1	
563.37	10654	
563.56	8262.2	
563.76	7727.7	
563.95	9237	
564.14	9192.6	
564.34	8092.2	
564.53	7802.8	
564.73	9669.8	
564.92	9871.9	
565.11	8076.5	
565.31	7640.3	
565.5	10039	
565.69	9275.9	
565.89	7849.9	
566.08	7998.7	
566.27	9981.8	
566.47	10261	
566.66	8586.5	
566.85	7604.8	
567.05	9775.6	
567.24	9324.4	
567.44	7792.5	
567.63	8729.8	
567.82	9897.2	
568.02	9656.9	
568.21	7706.5	
568.4	8124.3	
568.6	9593.4	
568.79	9570.2	
568.98	7740	
569.18	7847.1	
569.37	9566.1	
569.56	11086	
569.76	8100.4	
569.95	8783.1	
570.14	9953.8	
570.34	9759.9	
570.53	7761.8	
570.72	7756.3	
570.91	10262	
571.11	9648.7	
571.3	8054.7	
571.49	8762.6	
571.69	9680.1	
571.88	9206.3	
572.07	8411	
572.27	8543.4	
572.46	9256.8	
572.65	10042	
572.85	7969.3	
573.04	8111.3	
573.23	10200	
573.43	9657.5	
573.62	7772.7	
573.81	8220.5	
574	9762	
574.2	9613.2	
574.39	8102.4	
574.58	8127	
574.78	10269	
574.97	9760.6	
575.16	8417.2	
575.36	8568.7	
575.55	10155	
575.74	10288	
575.93	7822.6	
576.13	8634.9	
576.32	9645.3	
576.51	10171	
576.71	8155	
576.9	9120.3	
577.09	10298	
577.28	9977.7	
577.48	8478.6	
577.67	7773.4	
577.86	9740.8	
578.05	9959.3	
578.25	8247.2	
578.44	8322.9	
578.63	9859.6	
578.83	10596	
579.02	7879.2	
579.21	9028.8	
579.4	9964.7	
579.6	9689.6	
579.79	8397.4	
579.98	9993.4	
580.17	10199	
580.37	10342	
580.56	7965.2	
580.75	8512.7	
580.94	10443	
581.14	10538	
581.33	8890.9	
581.52	8128.4	
581.71	10112	
581.91	10621	
582.1	7919.5	
582.29	8259.5	
582.48	9841.2	
582.68	9758.6	
582.87	8606.9	
583.06	8302.5	
583.25	10107	
583.45	9630.9	
583.64	8856.1	
583.83	9276.6	
584.02	9853.5	
584.21	10037	
584.41	8791.2	
584.6	8342.1	
584.79	9884.9	
584.98	10320	
585.18	8001.4	
585.37	7905.8	
585.56	9569.5	
585.75	10105	
585.94	8094.3	
586.14	8403.5	
586.33	10561	
586.52	9730.6	
586.71	8417.2	
586.91	8310	
587.1	9412.5	
587.29	10116	
587.48	8124.3	
587.67	8011	
587.87	9947.7	
588.06	9934.7	
588.25	8975.6	
588.44	8475.9	
588.63	9591.3	
588.83	10062	
589.02	8054	
589.21	7895.6	
589.4	9436.4	
589.59	9402.2	
589.78	7318.1	
589.98	7438.9	
590.17	8968.1	
590.36	9312.1	
590.55	6897.6	
590.74	7476.5	
590.94	10135	
591.13	9140.1	
591.32	7260.7	
591.51	6956.9	
591.7	9504.6	
591.89	9027.4	
592.09	7105.1	
592.28	7443	
592.47	8624.7	
592.66	9985.2	
592.85	7064.8	
593.05	7293.5	
593.24	9041.1	
593.43	9629.5	
593.62	7294.2	
593.81	7714.7	
594	9090.9	
594.19	9134.6	
594.39	7148.8	
594.58	7191.1	
594.77	9234.3	
594.96	9606.3	
595.15	7112.6	
595.34	7676.5	
595.54	9212.4	
595.73	8515.5	
595.92	6733.7	
596.11	7447.8	
596.3	9581.1	
596.49	8680.7	
596.68	7364.5	
596.88	7646.4	
597.07	9357.9	
597.26	8504.5	
597.45	6962.4	
597.64	7880.6	
597.83	8673.1	
598.02	9078	
598.22	6949.4	
598.41	7464.2	
598.6	9079.3	
598.79	8579.6	
598.98	7096.9	
599.17	7699	
599.36	9002.9	
599.55	9799.5	
599.74	8485.4	
599.94	8346.2	
600.13	9381.1	
600.32	8510	
600.51	6844.3	
600.7	6938.5	
600.89	9810.5	
601.08	9815.9	
601.27	6774	
601.47	7462.1	
601.66	9245.9	
601.85	9571.5	
602.04	7351.5	
602.23	7402.7	
602.42	8578.3	
602.61	9017.2	
602.8	7110.5	
602.99	7023.9	
603.18	8834.3	
603.37	9044.5	
603.57	7390.4	
603.76	7836.2	
603.95	9501.2	
604.14	9068.4	
604.33	7053.9	
604.52	7258.7	
604.71	9071.8	
604.9	8611.7	
605.09	7796.6	
605.28	7617.8	
605.47	9435.7	
605.66	8991.3	
605.86	7526.3	
606.05	7068.2	
606.24	9419.3	
606.43	8312.7	
606.62	7253.9	
606.81	7802.1	
607	9238.4	
607.19	8734.6	
607.38	6877.8	
607.57	6985.6	
607.76	8608.3	
607.95	8134.5	
608.14	7348.1	
608.33	7802.8	
608.52	8562.6	
608.72	9175.6	
608.91	6704.4	
609.1	6709.8	
609.29	8583	
609.48	8192.6	
609.67	7361.1	
609.86	6746.7	
610.05	8385.1	
610.24	8548.9	
610.43	6638.1	
610.62	6329.6	
610.81	9372.2	
611	9196.1	
611.19	6667.5	
611.38	7242.3	
611.57	8796.7	
611.76	9614.5	
611.95	6577.4	
612.14	6383.5	
612.33	8560.5	
612.52	8219.9	
612.71	6911.2	
612.9	6389	
613.09	7983.7	
613.28	9624.8	
613.47	6861.4	
613.66	7416.4	
613.85	8669.7	
614.04	8232.8	
614.24	6746.7	
614.43	6247.7	
614.62	8713.4	
614.81	8717.5	
615	7157.7	
615.19	7146	
615.38	8210.3	
615.57	8507.9	
615.76	7081.9	
615.95	7716.7	
616.14	8776.9	
616.33	8619.2	
616.52	7338.6	
616.71	7469.6	
616.9	8760.5	
617.09	8591.2	
617.28	6793.8	
617.47	7706.5	
617.66	8125.7	
617.85	8093.6	
618.04	7471	
618.22	7061.4	
618.41	8416.5	
618.6	9085.5	
618.79	7020.4	
618.98	6820.4	
619.17	9254.1	
619.36	7995.3	
619.55	7018.4	
619.74	6940.6	
619.93	8779.6	
620.12	8278.6	
620.31	7438.2	
620.5	7496.9	
620.69	9172.9	
620.88	9587.9	
621.07	8099.7	
621.26	7357.7	
621.45	8976.2	
621.64	8894.3	
621.83	7503.8	
622.02	6806.1	
622.21	8970.1	
622.4	8781.7	
622.59	7864.9	
622.78	7746.8	
622.97	8620.6	
623.16	9185.1	
623.35	7419.1	
623.54	6806.8	
623.72	8675.9	
623.91	8813.1	
624.1	7660.1	
624.29	6669.6	
624.48	9623.4	
624.67	9019.9	
624.86	7513.3	
625.05	6894.8	
625.24	9630.2	
625.43	8525.7	
625.62	8813.1	
625.81	7020.4	
626	9229.5	
626.19	8696.4	
626.38	7587	
626.56	7186.3	
626.75	8625.4	
626.94	9130.5	
627.13	7601.4	
627.32	6699.6	
627.51	8971.5	
627.7	9920.4	
627.89	6748.1	
628.08	7590.5	
628.27	8475.2	
628.46	8665.6	
628.65	6976.1	
628.83	6723.5	
629.02	9006.3	
629.21	8447.2	
629.4	7303.1	
629.59	7473.7	
629.78	8453.3	
629.97	9127.1	
630.16	7517.4	
630.35	7155.6	
630.54	9533.3	
630.72	9257.5	
630.91	7174.7	
631.1	7420.5	
631.29	8847.2	
631.48	8990.6	
631.67	7608.9	
631.86	7170.6	
632.05	8768.7	
632.24	8705.9	
632.42	6969.2	
632.61	7324.9	
632.8	8758.5	
632.99	8405.5	
633.18	7335.8	
633.37	7563.8	
633.56	8905.9	
633.75	8754.4	
633.93	7361.1	
634.12	7241.6	
634.31	9510.8	
634.5	9165.3	
634.69	7086	
634.88	7521.5	
635.07	8747.6	
635.25	9127.8	
635.44	7883.3	
635.63	8014.4	
635.82	8625.4	
636.01	8073.1	
636.2	7705.1	
636.39	7432.1	
636.57	9529.2	
636.76	9118.9	
636.95	7043	
637.14	7993.9	
637.33	8927.8	
637.52	9499.2	
637.7	6864.1	
637.89	7537.9	
638.08	8663.6	
638.27	9620.7	
638.46	7535.2	
638.65	7940.7	
638.83	9615.2	
639.02	8382.3	
639.21	7569.3	
639.4	7772	
639.59	8799.4	
639.78	8531.8	
639.96	6907.1	
640.15	6921.5	
640.34	8623.3	
640.53	8781	
640.72	6725.5	
640.91	6882.5	
641.09	8260.1	
641.28	9151.7	
641.47	6963.1	
641.66	7547.4	
641.85	8619.9	
642.03	8882.7	
642.22	7267.6	
642.41	6974.7	
642.6	8282.7	
642.79	7876.5	
642.97	6866.2	
643.16	7303.1	
643.35	8190.5	
643.54	8009.6	
643.73	6759.7	
643.91	7234.1	
644.1	7972.1	
644.29	8410.3	
644.48	6690.7	
644.67	6748.7	
644.85	8026.7	
645.04	8302.5	
645.23	6297.5	
645.42	6695.5	
645.6	7937.9	
645.79	8753.7	
645.98	6526.9	
646.17	5750.7	
646.36	7698.3	
646.54	7992.5	
646.73	7051.8	
646.92	6225.8	
647.11	7736.5	
647.29	8519.6	
647.48	6267.5	
647.67	6051.7	
647.86	8681.3	
648.05	8613.8	
648.23	6370.5	
648.42	7298.3	
648.61	8191.9	
648.8	7946.8	
648.98	6118	
649.17	6350.1	
649.36	7664.9	
649.55	7270.3	
649.73	6238.1	
649.92	6681.2	
650.11	7599.3	
650.3	7817.8	
650.48	6291.4	
650.67	6250.4	
650.86	8032.8	
651.05	7206.8	
651.23	6227.9	
651.42	6143.2	
651.61	7673.1	
651.79	7649.2	
651.98	6285.2	
652.17	6016.9	
652.36	7915.4	
652.54	7196.6	
652.73	6056.5	
652.92	5954.1	
653.11	7862.2	
653.29	8032.8	
653.48	5466	
653.67	6320	
653.85	7737.9	
654.04	8494.3	
654.23	6328.2	
654.42	6010.8	
654.6	7339.9	
654.79	7776.8	
654.98	5614.8	
655.16	5968.5	
655.35	6915.3	
655.54	6894.8	
655.73	5573.2	
655.91	5537	
656.1	7709.9	
656.29	6845.7	
656.47	5217.5	
656.66	6429.9	
656.85	7134.4	
657.03	7174	
657.22	5610.8	
657.41	5767.1	
657.59	7169.9	
657.78	6977.4	
657.97	5449.6	
658.16	5993.7	
658.34	7708.6	
658.53	8023.9	
658.72	6649.1	
658.9	6941.2	
659.09	7374.7	
659.28	7410.9	
659.46	5793.7	
659.65	5759.6	
659.84	7152.2	
660.02	7530.4	
660.21	5793	
660.4	5605.3	
660.58	7892.9	
660.77	7286.7	
660.96	6177.4	
661.14	5399.1	
661.33	8147.5	
661.52	8112	
661.7	5298.1	
661.89	7847.8	
662.08	7114.6	
662.26	6682.5	
662.45	5528.8	
662.64	5691.3	
662.82	7557.7	
663.01	6918.7	
663.2	5666.7	
663.38	6101.6	
663.57	7496.9	
663.75	7350.2	
663.94	5857.9	
664.13	6722.1	
664.31	7012.2	
664.5	7496.9	
664.69	6196.5	
664.87	6466.8	
665.06	6830	
665.25	7318.1	
665.43	6503	
665.62	6578.8	
665.8	7513.3	
665.99	7057.3	
666.18	5785.5	
666.36	5859.2	
666.55	7539.3	
666.74	7376.8	
666.92	5532.2	
667.11	6673.6	
667.29	7051.8	
667.48	7428	
667.67	6390.3	
667.85	5687.9	
668.04	7058.7	
668.22	7040.9	
668.41	5821.7	
668.6	6051.1	
668.78	6865.5	
668.97	7049.8	
669.15	6088.6	
669.34	5233.2	
669.53	6860.7	
669.71	7200	
669.9	5493.3	
670.08	5973.2	
670.27	6815	
670.46	7265.5	
670.64	6130.9	
670.83	6252.4	
671.01	6804.7	
671.2	7236.2	
671.38	5501.5	
671.57	5422.3	
671.76	7690.8	
671.94	8022.6	
672.13	5438	
672.31	6168.5	
672.5	7385	
672.69	6761.7	
672.87	5479.7	
673.06	5776.6	
673.24	7251.2	
673.43	6961	
673.61	5973.2	
673.8	5637.4	
673.98	7387	
674.17	7417.7	
674.36	6153.5	
674.54	5997.8	
674.73	7069.6	
674.91	7370	
675.1	5796.4	
675.28	5515.9	
675.47	7015	
675.65	7443.7	
675.84	5706.3	
676.03	5920.7	
676.21	6918.7	
676.4	6486.6	
676.58	6310.5	
676.77	6015.6	
676.95	8051.2	
677.14	6831.3	
677.32	5407.3	
677.51	5259.2	
677.69	7411.6	
677.88	6721.4	
678.06	5451.7	
678.25	5496.7	
678.44	7049.1	
678.62	6838.2	
678.81	5288.5	
678.99	5937.1	
679.18	7656	
679.36	7269.6	
679.55	5713.2	
679.73	6042.9	
679.92	7330.4	
680.1	6928.3	
680.29	6544.6	
680.47	5647.6	
680.66	6824.5	
680.84	7415.7	
681.03	5101.5	
681.21	6030.6	
681.4	6926.2	
681.58	6785.6	
681.77	5465.3	
681.95	5453.1	
682.14	7544.7	
682.32	7724.9	
682.51	6137.8	
682.69	5294	
682.88	6863.4	
683.06	7163.1	
683.25	5960.3	
683.43	6199.9	
683.62	7142.6	
683.8	7324.9	
683.99	6358.9	
684.17	5801.9	
684.36	7947.5	
684.54	6909.2	
684.73	5239.4	
684.91	5306.3	
685.1	7126.9	
685.28	6710.5	
685.46	5726.1	
685.65	5755.5	
685.83	7266.9	
686.02	6776	
686.2	5279.7	
686.39	5447.6	
686.57	6455.2	
686.76	7645.1	
686.94	5306.3	
687.13	5444.9	
687.31	7181.5	
687.5	6851.1	
687.68	5035.3	
687.86	5891.3	
688.05	8130.4	
688.23	6480.5	
688.42	6008.7	
688.6	5455.8	
688.79	6774	
688.97	6815.6	
689.16	5893.4	
689.34	5028.4	
689.52	7295.5	
689.71	7618.4	
689.89	6065.4	
690.08	5535	
690.26	7079.1	
690.45	6965.8	
690.63	6191	
690.81	5775.3	
691	7044.3	
691.18	6963.8	
691.37	5743.2	
691.55	7376.1	
691.74	6865.5	
691.92	8368	
692.1	5754.8	
692.29	5451	
692.47	7053.9	
692.66	6584.2	
692.84	5656.5	
693.02	5924.1	
693.21	6570.6	
693.39	7041.6	
693.58	6106.4	
693.76	5596.4	
693.94	7892.9	
694.13	7761.1	
694.31	5768.4	
694.5	6551.5	
694.68	7015.7	
694.86	7371.3	
695.05	6053.8	
695.23	6072.9	
695.42	7572.7	
695.6	9224.1	
695.78	6531.7	
695.97	5892.7	
696.15	7762.5	
696.34	7250.5	
696.52	5716.6	
696.7	6434.7	
696.89	7469.6	
697.07	7070.3	
697.25	6273.6	
697.44	7331.7	
697.62	7550.2	
697.81	7764.5	
697.99	6123.4	
698.17	6426.5	
698.36	7174.7	
698.54	7518.1	
698.72	6344.6	
698.91	5671.5	
699.09	7278.5	
699.28	7156.3	
699.46	6155.5	
699.64	6008.7	
699.83	7198.6	
700.01	8012.3	
700.19	6656.6	
700.38	5515.2	
700.56	8101.8	
700.74	7416.4	
700.93	5898.2	
701.11	6423.1	
701.29	7721.5	
701.48	8496.3	
701.66	6058.6	
701.84	6155.5	
702.03	7559.7	
702.21	8030.8	
702.39	5856.5	
702.58	6311.8	
702.76	7881.3	
702.94	7880.6	
703.13	5851.7	
703.31	7599.3	
703.49	7368.6	
703.68	8104.5	
703.86	6013.5	
704.04	6771.9	
704.23	7733.8	
704.41	8047.2	
704.59	6173.9	
704.78	7025.2	
704.96	8903.9	
705.14	7978.9	
705.33	6066.8	
705.51	6681.8	
705.69	7658.7	
705.87	8273.1	
706.06	6913.3	
706.24	6036	
706.42	7950.9	
706.61	8091.5	
706.79	6901.7	
706.97	6020.3	
707.16	7567.2	
707.34	7952.9	
707.52	6825.2	
707.7	6233.3	
707.89	7647.1	
708.07	7463.5	
708.25	6882.5	
708.44	7002.7	
708.62	7603.4	
708.8	8462.9	
708.98	7137.2	
709.17	6311.8	
709.35	7878.5	
709.53	7919.5	
709.72	6182.1	
709.9	6432.7	
710.08	8232.2	
710.26	8206.2	
710.45	7375.4	
710.63	6402.6	
710.81	7883.3	
710.99	7856.7	
711.18	6858.6	
711.36	6408.8	
711.54	7777.5	
711.72	8292.9	
711.91	6574.7	
712.09	6102.9	
712.27	7922.9	
712.45	8657.4	
712.64	6634.1	
712.82	5988.9	
713	7408.2	
713.18	7476.5	
713.37	5935	
713.55	6855.9	
713.73	8189.8	
713.91	7035.5	
714.1	6185.5	
714.28	5808	
714.46	7651.9	
714.64	7071.6	
714.83	5180.7	
715.01	5766.4	
715.19	7075.7	
715.37	6464.8	
715.55	5459.2	
715.74	5567.7	
715.92	7520.8	
716.1	6075	
716.28	6328.9	
716.47	5685.8	
716.65	6634.1	
716.83	6561.7	
717.01	5594.4	
717.19	5495.4	
717.38	8128.4	
717.56	6380.8	
717.74	5733.6	
717.92	5161.6	
718.1	7350.8	
718.29	6715.3	
718.47	4954	
718.65	5446.9	
718.83	7458	
719.01	7319.4	
719.2	4997	
719.38	5845.6	
719.56	7241.6	
719.74	8415.8	
719.92	5597.8	
720.11	6290	
720.29	7380.9	
720.47	6630	
720.65	5194.3	
720.83	5774.6	
721.02	6838.2	
721.2	6580.8	
721.38	5703.6	
721.56	5218.9	
721.74	6210.1	
721.92	6347.3	
722.11	5947.3	
722.29	5870.2	
722.47	7255.3	
722.65	6647	
722.83	5248.9	
723.01	5724.1	
723.2	6629.3	
723.38	6909.2	
723.56	4818.2	
723.74	5578.7	
723.92	6321.4	
724.1	7124.9	
724.29	5141.1	
724.47	5985.5	
724.65	6457.2	
724.83	6349.4	
725.01	5010	
725.19	5584.1	
725.37	6296.1	
725.56	6438.1	
725.74	4951.3	
725.92	5120.6	
726.1	6320.7	
726.28	6567.8	
726.46	5397.8	
726.64	5244.2	
726.83	6558.3	
727.01	6675.7	
727.19	5006.6	
727.37	5494.7	
727.55	6731	
727.73	7003.4	
727.91	4950.6	
728.09	4812	
728.28	7071.6	
728.46	7139.2	
728.64	5616.2	
728.82	5556.8	
729	7824.6	
729.18	7402	
729.36	4992.3	
729.54	6688.7	
729.72	8034.2	
729.91	6879.8	
730.09	6546	
730.27	5564.3	
730.45	6808.8	
730.63	7235.5	
730.81	6073.6	
730.99	5378	
731.17	7707.2	
731.35	6627.2	
731.53	5773.2	
731.71	5474.9	
731.9	7509.2	
732.08	7548.1	
732.26	5604.6	
732.44	5429.8	
732.62	7561.1	
732.8	7133.1	
732.98	5951.4	
733.16	5225.1	
733.34	7226.6	
733.52	6182.1	
733.7	5585.5	
733.88	5739.1	
734.07	6959	
734.25	6835.4	
734.43	5210	
734.61	6237.4	
734.79	7976.2	
734.97	6778.1	
735.15	5282.4	
735.33	5507	
735.51	7079.8	
735.69	6692.1	
735.87	6244.9	
736.05	5629.9	
736.23	6911.2	
736.41	6667.5	
736.59	5445.5	
736.77	5693.4	
736.95	7193.1	
737.13	6748.7	
737.32	5143.1	
737.5	5377.3	
737.68	7550.2	
737.86	6676.4	
738.04	5122	
738.22	6395.8	
738.4	6495.5	
738.58	6764.4	
738.76	5399.1	
738.94	4786.1	
739.12	6550.8	
739.3	6495.5	
739.48	5902.2	
739.66	5726.8	
739.84	6741.2	
740.02	6768.5	
740.2	4908.3	
740.38	5059.2	
740.56	6983.6	
740.74	6150.1	
740.92	5595.7	
741.1	5381.4	
741.28	6567.8	
741.46	6328.9	
741.64	5158.8	
741.82	5552	
742	6533	
742.18	6484.6	
742.36	5190.2	
742.54	4983.4	
742.72	7009.5	
742.9	5967.8	
743.08	5444.9	
743.26	4610	
743.44	6976.7	
743.62	6947.4	
743.8	5668.1	
743.98	4907.6	
744.16	6635.4	
744.34	6412.9	
744.52	5467.4	
744.7	5401.2	
744.88	6767.2	
745.06	6399.9	
745.24	5376.6	
745.42	5552	
745.6	6798.6	
745.78	6717.3	
745.96	4597	
746.14	4832.5	
746.32	7311.9	
746.5	6726.2	
746.68	5143.1	
746.86	4818.2	
747.03	7095.5	
747.21	5788.2	
747.39	5189.6	
747.57	4720.6	
747.75	6408.8	
747.93	6599.9	
748.11	4674.8	
748.29	4696	
748.47	7581.6	
748.65	6122.7	
748.83	5307	
749.01	5116.5	
749.19	6518.7	
749.37	5896.1	
749.55	4993.6	
749.73	5041.4	
749.91	6367.8	
750.09	6098.2	
750.26	5008.6	
750.44	4607.9	
750.62	6363	
750.8	6182.8	
750.98	4471.4	
751.16	4719.2	
751.34	6412.2	
751.52	5820.3	
751.7	5204.6	
751.88	4433.2	
752.06	6630	
752.24	6359.6	
752.42	4418.8	
752.59	4677.6	
752.77	6206	
752.95	7081.9	
753.13	5238.7	
753.31	4792.9	
753.49	5988.3	
753.67	6201.2	
753.85	4965.6	
754.03	4566.3	
754.21	6397.2	
754.38	6675	
754.56	4701.5	
754.74	3936.9	
754.92	5763	
755.1	6221	
755.28	3857	
755.46	3884.3	
755.64	6759	
755.82	6735.1	
755.99	3881.6	
756.17	3961.5	
756.35	4693.3	
756.53	5723.4	
756.71	2990.7	
756.89	3656.3	
757.07	5474.2	
757.25	4838.7	
757.42	4069.3	
757.6	4678.2	
757.78	5667.4	
757.96	4915.8	
758.14	3910.9	
758.32	3673.4	
758.5	4596.3	
758.67	5162.2	
758.85	3779.9	
759.03	3891.1	
759.21	5332.9	
759.39	4834.6	
759.57	3506.8	
759.75	4290.5	
759.92	5831.2	
760.1	5358.9	
760.28	4569.7	
760.46	4859.1	
760.64	5113.8	
760.82	5055.8	
760.99	4508.9	
761.17	4035.2	
761.35	5745.2	
761.53	5049.6	
761.71	4053.6	
761.89	4605.2	
762.06	5750	
762.24	5373.2	
762.42	4182	
762.6	3977.2	
762.78	5412.1	
762.96	5879	
763.13	4465.3	
763.31	4203.8	
763.49	5957.5	
763.67	5313.8	
763.85	4827.7	
764.02	5205.3	
764.2	6207.4	
764.38	5535	
764.56	4115.7	
764.74	4799.8	
764.91	6250.4	
765.09	5393	
765.27	3919.1	
765.45	3778.5	
765.63	6316.6	
765.8	6059.9	
765.98	3605.1	
766.16	3809.2	
766.34	5141.8	
766.52	4909	
766.69	4456.4	
766.87	3680.2	
767.05	5401.2	
767.23	5940.5	
767.41	3916.4	
767.58	4089.1	
767.76	5727.5	
767.94	5849.7	
768.12	3921.9	
768.29	4407.2	
768.47	5347.9	
768.65	5908.4	
768.83	3619.4	
769	4439.3	
769.18	5046.2	
769.36	5487.9	
769.54	4395.6	
769.72	3631	
769.89	5763	
770.07	5739.8	
770.25	3888.4	
770.43	4782	
770.6	6326.2	
770.78	6561	
770.96	4005.1	
771.14	3889.8	
771.31	5705	
771.49	5226.4	
771.67	3341.6	
771.85	3549.8	
772.02	4660.5	
772.2	5138.4	
772.38	4088.4	
772.55	3642.7	
772.73	5440.1	
772.91	5185.5	
773.09	3948.5	
773.26	4008.6	
773.44	5356.1	
773.62	5112.4	
773.8	3609.9	
773.97	3381.9	
774.15	5369.1	
774.33	5138.4	
774.5	3503.4	
774.68	3761.4	
774.86	5478.3	
775.04	5047.6	
775.21	3559.4	
775.39	3488.4	
775.57	5212.8	
775.74	5505.6	
775.92	3392.8	
776.1	3268.6	
776.27	5213.4	
776.45	6176.7	
776.63	3489.7	
776.81	3192.8	
776.98	4937	
777.16	5748	
777.34	3608.5	
777.51	3784.6	
777.69	4965.6	
777.87	4752	
778.04	3678.8	
778.22	4056.3	
778.4	4810	
778.57	5314.5	
778.75	3087	
778.93	3287.7	
779.1	4684.4	
779.28	4493.2	
779.46	3147	
779.64	3472	
779.81	5377.3	
779.99	5984.8	
780.17	4012.7	
780.34	4070.7	
780.52	4973.8	
780.69	5156.1	
780.87	3654.3	
781.05	3362.8	
781.22	5041.4	
781.4	4984.1	
781.58	3394.2	
781.75	2849.4	
781.93	5098.8	
782.11	4528.7	
782.28	4068.6	
782.46	3418.7	
782.64	4446.1	
782.81	5115.8	
782.99	3517.7	
783.17	3456.3	
783.34	4974.5	
783.52	4498.7	
783.69	3569.6	
783.87	4179.9	
784.05	4581.3	
784.22	4489.8	
784.4	4160.8	
784.58	3666.5	
784.75	5317.2	
784.93	4635.9	
785.1	3399.6	
785.28	3830.4	
785.46	5012.7	
785.63	4492.6	
785.81	3406.5	
785.99	3276.8	
786.16	4679.6	
786.34	4934.9	
786.51	3312.9	
786.69	3569.6	
786.87	4315.1	
787.04	4720.6	
787.22	3170.3	
787.39	3891.8	
787.57	4548.5	
787.75	5322	
787.92	4042.7	
788.1	4026.3	
788.27	4514.4	
788.45	4281.6	
788.63	3754.6	
788.8	2839.8	
788.98	4870.1	
789.15	4230.4	
789.33	2954.5	
789.5	3327.9	
789.68	5208.7	
789.86	5244.2	
790.03	3689.1	
790.21	3237.8	
790.38	5199.1	
790.56	4599.7	
790.73	3192.1	
790.91	3155.2	
791.09	4539.7	
791.26	5006.6	
791.44	3359.4	
791.61	2927.2	
791.79	4528.1	
791.96	4528.7	
792.14	3068.5	
792.32	2761.3	
792.49	4448.2	
792.67	4605.2	
792.84	3114.3	
793.02	2927.9	
793.19	4880.3	
793.37	5369.8	
793.54	2702.6	
793.72	2997.5	
793.89	5371.8	
794.07	4471.4	
794.25	3350.5	
794.42	2836.4	
794.6	5247.6	
794.77	4956.8	
794.95	3672.7	
795.12	3170.9	
795.3	4523.3	
795.47	4954.7	
795.65	3493.2	
795.82	3338.9	
796	4369.7	
796.17	5696.1	
796.35	3259	
796.52	3816	
796.7	4916.5	
796.87	5023.7	
797.05	3212.6	
797.22	3891.1	
797.4	4904.2	
797.57	5641.5	
797.75	3377.8	
797.92	3161.4	
798.1	5157.5	
798.27	4362.9	
798.45	2823.5	
798.62	3004.4	
798.8	4688.5	
798.97	5072.1	
799.15	3514.3	
799.32	3338.2	
799.5	4159.4	
799.67	4737	
799.85	3596.9	
800.02	2699.2	
800.2	4452.3	
800.37	4635.9	
800.55	3710.9	
800.72	3187.3	
800.9	5025	
801.07	5334.3	
801.25	4175.8	
801.42	3501.3	
801.6	5040.1	
801.77	4767.7	
801.95	3236.5	
802.12	3138.2	
802.29	4824.3	
802.47	4780.6	
802.64	3442.6	
802.82	2689.7	
802.99	4444.1	
803.17	5084.4	
803.34	3401	
803.52	3059	
803.69	5615.5	
803.87	4201.1	
804.04	3287	
804.21	3356.6	
804.39	5286.5	
804.56	4524	
804.74	2880.8	
804.91	3474.7	
805.09	4413.4	
805.26	4520.5	
805.44	2958.6	
805.61	3238.5	
805.78	4958.8	
805.96	4872.1	
806.13	3435.8	
806.31	3686.3	
806.48	4128	
806.66	4441.4	
806.83	3408.5	
807	3368.9	
807.18	4463.9	
807.35	4737.6	
807.53	3380.5	
807.7	2776.4	
807.87	5332.9	
808.05	4429.8	
808.22	3613.3	
808.4	2797.5	
808.57	4446.8	
808.74	4179.2	
808.92	3139.5	
809.09	3891.1	
809.27	4430.4	
809.44	4818.9	
809.61	2795.5	
809.79	3052.8	
809.96	5421.7	
810.14	4916.5	
810.31	2706.7	
810.48	3292.5	
810.66	4543.1	
810.83	5040.7	
811.01	3108.8	
811.18	3376.4	
811.35	4952.7	
811.53	3994.2	
811.7	3672	
811.87	3388.7	
812.05	4508.3	
812.22	4401.8	
812.39	2968.9	
812.57	2910.2	
812.74	4471.4	
812.92	5657.2	
813.09	3275.4	
813.26	3457	
813.44	5454.4	
813.61	4362.2	
813.78	2762	
813.96	3565.5	
814.13	4551.3	
814.3	4262.5	
814.48	3835.8	
814.65	3173	
814.82	5315.2	
815	4242	
815.17	3297.9	
815.34	3908.9	
815.52	4384.7	
815.69	4403.1	
815.87	3263.1	
816.04	3192.8	
816.21	4379.2	
816.38	4029	
816.56	3213.3	
816.73	3054.9	
816.9	5498.1	
817.08	4986.8	
817.25	3089.7	
817.42	3708.9	
817.6	4078.2	
817.77	4438.6	
817.94	3424.9	
818.12	2918.4	
818.29	4300.7	
818.46	6118	
818.64	3164.1	
818.81	2927.9	
818.98	4283	
819.16	5730.2	
819.33	3517.7	
819.5	3294.5	
819.67	4689.2	
819.85	5197.7	
820.02	3326.6	
820.19	3382.6	
820.37	4592.9	
820.54	4368.3	
820.71	3325.9	
820.88	4059.1	
821.06	4627	
821.23	4261.8	
821.4	3370.3	
821.58	3328.6	
821.75	4965	
821.92	4581.3	
822.09	2736.1	
822.27	2819.4	
822.44	4410.6	
822.61	4379.9	
822.79	2790.7	
822.96	4966.3	
823.13	4724.7	
823.3	4218.1	
823.48	3121.1	
823.65	2846	
823.82	4976.6	
823.99	4156.7	
824.17	3910.9	
824.34	2931.3	
824.51	5650.3	
824.68	4463.2	
824.86	3061	
825.03	3383.9	
825.2	4470.7	
825.37	5167.7	
825.55	3014.6	
825.72	3234.4	
825.89	5588.2	
826.06	5293.3	
826.24	3252.2	
826.41	3231	
826.58	5258.5	
826.75	4628.4	
826.92	2669.2	
827.1	2890.4	
827.27	6876.4	
827.44	5565	
827.61	3109.5	
827.79	3672	
827.96	4305.5	
828.13	4463.2	
828.3	3186.6	
828.47	2710.1	
828.65	4716.5	
828.82	4628.4	
828.99	3997.6	
829.16	3551.9	
829.34	4958.1	
829.51	4805.9	
829.68	3308.2	
829.85	3355.3	
830.02	5236.7	
830.2	4958.1	
830.37	2656.2	
830.54	3833.8	
830.71	5516.5	
830.88	4439.3	
831.05	2615.9	
831.23	3018.7	
831.4	5383.4	
831.57	5857.9	
831.74	3033.7	
831.91	2749.1	
832.09	4751.3	
832.26	5007.3	
832.43	3132	
832.6	3442.6	
832.77	4675.5	
832.94	5238.7	
833.12	2566.1	
833.29	3063.1	
833.46	4801.8	
833.63	6020.3	
833.8	3405.8	
833.97	3129.3	
834.15	5031.2	
834.32	4781.3	
834.49	3317	
834.66	3361.4	
834.83	5091.3	
835	4308.9	
835.17	3059	
835.35	3060.3	
835.52	4885.8	
835.69	4793.6	
835.86	3214.6	
836.03	2680.1	
836.2	4922	
836.37	4611.3	
836.55	3075.4	
836.72	2925.2	
836.89	4617.5	
837.06	5068.7	
837.23	3179.8	
837.4	3460.4	
837.57	5561.6	
837.75	6023.8	
837.92	2898.6	
838.09	3059.7	
838.26	4644.8	
838.43	5150.6	
838.6	3317.7	
838.77	2956.6	
838.94	5696.1	
839.11	5532.9	
839.29	3123.2	
839.46	2537.4	
839.63	4965	
839.8	4722.6	
839.97	3039.2	
840.14	3063.8	
840.31	4861.9	
840.48	5020.3	
840.65	2597.5	
840.82	2983.9	
841	4925.4	
841.17	4827.7	
841.34	2810.5	
841.51	2902.7	
841.68	4878.3	
841.85	4710.3	
842.02	2902	
842.19	2553.8	
842.36	4797.7	
842.53	4751.3	
842.7	2818	
842.87	3340.9	
843.05	5980.1	
843.22	4692.6	
843.39	2763.4	
843.56	2988.7	
843.73	4592.9	
843.9	5057.1	
844.07	4405.2	
844.24	3647.4	
844.41	6655.9	
844.58	4341.7	
844.75	2758.6	
844.92	2980.5	
845.09	4943.1	
845.26	4905.6	
845.43	2822.8	
845.6	2961.4	
845.77	4928.1	
845.94	4692.6	
846.12	3125.2	
846.29	3265.1	
846.46	5138.4	
846.63	4866.7	
846.8	2804.4	
846.97	3300.6	
847.14	5206.6	
847.31	4889.9	
847.48	3137.5	
847.65	3419.4	
847.82	5077.6	
847.99	5055.1	
848.16	3674.7	
848.33	3397.6	
848.5	4543.1	
848.67	5246.9	
848.84	2750.4	
849.01	2939.5	
849.18	4545.1	
849.35	4237.2	
849.52	3425.6	
849.69	2792.7	
849.86	5122	
850.03	5141.1	
850.2	2819.4	
850.37	3312.9	
850.54	5126.1	
850.71	4689.2	
850.88	3330.7	
851.05	2773.6	
851.22	4792.2	
851.39	5222.3	
851.56	2669.2	
851.73	3170.9	
851.9	4403.1	
852.07	5101.5	
852.24	3081.5	
852.41	2746.3	
852.58	4818.9	
852.75	4501.4	
852.92	3164.8	
853.09	2787.3	
853.26	4504.2	
853.43	5208	
853.6	2828.2	
853.77	2472.6	
853.94	5284.4	
854.11	4404.5	
854.28	4093.9	
854.44	3063.8	
854.61	5622.4	
854.78	5127.4	
854.95	2751.1	
855.12	3448.1	
855.29	4083.6	
855.46	5315.2	
855.63	2841.2	
855.8	3762.8	
855.97	4558.8	
856.14	5144.5	
856.31	3815.4	
856.48	3067.2	
856.65	4620.2	
856.82	4310.3	
856.99	2713.6	
857.16	3013.9	
857.33	5820.3	
857.49	4642.7	
857.66	2996.2	
857.83	3134.8	
858	4699.4	
858.17	4818.9	
858.34	2667.8	
858.51	2832.3	
858.68	5425.1	
858.85	5354.1	
859.02	3251.5	
859.19	3337.5	
859.36	4427	
859.52	4396.3	
859.69	2808.4	
859.86	3272	
860.03	4447.5	
860.2	5360.2	
860.37	2579.1	
860.54	2867.2	
860.71	5039.4	
860.88	5335	
861.05	3134.8	
861.21	3524.6	
861.38	5334.3	
861.55	4287.1	
861.72	2603	
861.89	3138.2	
862.06	5111	
862.23	5421.7	
862.4	2714.2	
862.56	2947	
862.73	4999.8	
862.9	4752.7	
863.07	3244.7	
863.24	2622.8	
863.41	4315.8	
863.58	4351.3	
863.75	2875.3	
863.91	3195.5	
864.08	5180.7	
864.25	4999.8	
864.42	3469.3	
864.59	3822.9	
864.76	5562.3	
864.93	4382	
865.09	2741.5	
865.26	2991.4	
865.43	5299.5	
865.6	5557.5	
865.77	2495.8	
865.94	2770.9	
866.1	5272.8	
866.27	5010.7	
866.44	4078.2	
866.61	2719	
866.78	4711.7	
866.95	4956.1	
867.11	2747	
867.28	2541.5	
867.45	5215.5	
867.62	4369.7	
867.79	3160.7	
867.96	2786.6	
868.12	4329.4	
868.29	5055.8	
868.46	2829.6	
868.63	3629	
868.8	5175.2	
868.97	5009.3	
869.13	2944.3	
869.3	2936.1	
869.47	4921.3	
869.64	5170.4	
869.81	2785.9	
869.97	2833.7	
870.14	4857.1	
870.31	5328.1	
870.48	2712.2	
870.65	3407.8	
870.81	4703.5	
870.98	4649.6	
871.15	3156.6	
871.32	2925.2	
871.48	4924.7	
871.65	5404.6	
871.82	2794.8	
871.99	3031	
872.16	5776.6	
872.32	5252.4	
872.49	2882.2	
872.66	2880.1	
872.83	5046.2	
872.99	4491.2	
873.16	3116.3	
873.33	2820.7	
873.5	4789.5	
873.67	4788.8	
873.83	2953.2	
874	3675.4	
874.17	4897.4	
874.34	5589.6	
874.5	3468.6	
874.67	3388.7	
874.84	5319.9	
875.01	4266.6	
875.17	3847.5	
875.34	2809.1	
875.51	4862.6	
875.68	5687.2	
875.84	3281.5	
876.01	3960.1	
876.18	4968.4	
876.34	4995	
876.51	2755.9	
876.68	2732.7	
876.85	4605.2	
877.01	5274.2	
877.18	3910.3	
877.35	2785.9	
877.52	4872.1	
877.68	4350.6	
877.85	2745.6	
878.02	2762	
878.18	4652.3	
878.35	4560.1	
878.52	2288.3	
878.69	3072	
878.85	5109.7	
879.02	4958.1	
879.19	3875.4	
879.35	2958.6	
879.52	5076.9	
879.69	5142.4	
879.86	2527.2	
880.02	3109.5	
880.19	4698.7	
880.36	5615.5	
880.52	3124.5	
880.69	3256.3	
880.86	5079.6	
881.02	5097.4	
881.19	3052.8	
881.36	3060.3	
881.52	4995	
881.69	4510.3	
881.86	3013.9	
882.02	2962	
882.19	5261.2	
882.36	5939.8	
882.52	2878.8	
882.69	3851.5	
882.86	4813.4	
883.02	4796.3	
883.19	3338.2	
883.36	3168.2	
883.52	5147.2	
883.69	5647.6	
883.86	2841.9	
884.02	2519.7	
884.19	5043.5	
884.36	4743.1	
884.52	3110.2	
884.69	2958.6	
884.86	4565.6	
885.02	5444.2	
885.19	3100.6	
885.36	3209.2	
885.52	4758.8	
885.69	4901.5	
885.86	3941	
886.02	3473.4	
886.19	5057.1	
886.35	4631.8	
886.52	3091.1	
886.69	3823.6	
886.85	4365.6	
887.02	5383.4	
887.19	5383.4	
887.35	5383.4	
887.52	5383.4	
887.68	5383.4	
887.85	5383.4	
888.02	5383.4	
888.18	5383.4	
888.35	5383.4	
888.51	5383.4	
888.68	5383.4	
888.85	5383.4	
889.01	5383.4	
889.18	5383.4	
889.35	5383.4	
889.51	5383.4	
889.68	5383.4	
889.84	5383.4	
890.01	5383.4	
890.17	5383.4	
890.34	5383.4	
890.51	5383.4	
890.67	5383.4	
890.84	5383.4	
891	5383.4	
891.17	5383.4	
891.34	5383.4	
891.5	5383.4	
891.67	5383.4	
891.83	5383.4	
892	5383.4	
892.16	5383.4	
892.33	5383.4	
892.5	5383.4	
892.66	5383.4	
892.83	5383.4	
892.99	5383.4	
893.16	5383.4	
893.32	5383.4	
893.49	5383.4	
893.65	5383.4	
893.82	5383.4	
893.99	5383.4	
894.15	5383.4	
894.32	5383.4	
894.48	5383.4	
894.65	5383.4	
894.81	5383.4	
894.98	5383.4	
895.14	5383.4	
895.31	5383.4	
895.47	5383.4	
895.64	5383.4	
895.81	5383.4	
895.97	5383.4	
896.14	5383.4	
896.3	5383.4	
896.47	5383.4	
896.63	5383.4	
896.8	5383.4	
896.96	5383.4	
897.13	5383.4	
897.29	5383.4	
897.46	5383.4	
897.62	5383.4	
897.79	5383.4	
897.95	5383.4	
898.12	5383.4	
898.28	5383.4	
898.45	5383.4	
898.61	5383.4	
898.78	5383.4	
898.94	5383.4	
899.11	5383.4	
899.27	5383.4	
899.44	5383.4	
899.6	5383.4	
899.77	5383.4	
899.93	5383.4	
900.1	5383.4	
900.26	5383.4	
900.43	5383.4	
900.59	5383.4	
900.76	5383.4	
900.92	5383.4	
901.09	5383.4	
901.25	5383.4	
901.42	5383.4	
901.58	5383.4	
901.75	5383.4	
901.91	5383.4	
902.07	5383.4	
902.24	5383.4	
902.4	5383.4	
902.57	5383.4	
902.73	5383.4	
902.9	5383.4	
903.06	5383.4	
903.23	5383.4	
903.39	5383.4	
903.56	5383.4	
903.72	5383.4	
903.88	5383.4	
904.05	5383.4	
904.21	5383.4	
904.38	5383.4	
904.54	5383.4	
904.71	5383.4	
904.87	5383.4	
905.03	5383.4	
905.2	5383.4	
905.36	5383.4	
905.53	5383.4	
905.69	5383.4	
905.86	5383.4	
906.02	5383.4	
906.18	5383.4	
906.35	5383.4	
906.51	5383.4	
906.68	5383.4	
906.84	5383.4	
907.01	5383.4	
907.17	5383.4	
907.33	5383.4	
907.5	5383.4	
907.66	5383.4	
907.83	5383.4	
907.99	5383.4	
908.15	5383.4	
908.32	5383.4	
908.48	5383.4	
908.65	5383.4	
908.81	5383.4	
908.97	5383.4	
909.14	5383.4	
909.3	5383.4	
909.47	5383.4	
909.63	5383.4	
909.79	5383.4	
909.96	5383.4	
910.12	5383.4	
910.28	5383.4	
910.45	5383.4	
910.61	5383.4	
910.78	5383.4	
910.94	5383.4	
911.1	5383.4	
911.27	5383.4	
911.43	5383.4	
911.59	5383.4	
911.76	5383.4	
911.92	5383.4	
912.08	5383.4	
912.25	5383.4	
912.41	5383.4	
912.57	5383.4	
912.74	5383.4	
912.9	5383.4	
913.07	5383.4	
913.23	5383.4	
913.39	5383.4	
913.56	5383.4	
913.72	5383.4	
913.88	5383.4	
914.05	5383.4	
914.21	5383.4	
914.37	5383.4	
914.54	5383.4	
914.7	5383.4	
914.86	5383.4	
915.03	5383.4	
915.19	5383.4	
