Wavelength	Intensities	
nm	a.u.	
179.22	1796.2	
179.44	1795.7	
179.65	1796.8	
179.86	1794.7	
180.08	1770.1	
180.29	4247.5	
180.51	3155.9	
180.72	5235.3	
180.94	5981.4	
181.15	2899.9	
181.37	2910.8	
181.58	5028.4	
181.79	5287.9	
182.01	3001.6	
182.22	3192.8	
182.44	5296.7	
182.65	4498.7	
182.87	3932.8	
183.08	3502	
183.29	5522	
183.51	4618.2	
183.72	3171.6	
183.94	4558.1	
184.15	4926.7	
184.37	4965	
184.58	2874	
184.79	3747.1	
185.01	4590.9	
185.22	5267.4	
185.44	4005.1	
185.65	3386.7	
185.86	4952	
186.08	4583.4	
186.29	2803.7	
186.51	2946.3	
186.72	4655.7	
186.94	5397.1	
187.15	3436.5	
187.36	3525.9	
187.58	6866.2	
187.79	5023	
188.01	3627.6	
188.22	5509	
188.43	5988.3	
188.65	5232.6	
188.86	2992.8	
189.08	3582.6	
189.29	4774.5	
189.5	4784.1	
189.72	3265.8	
189.93	3315.7	
190.15	5403.9	
190.36	6364.4	
190.57	3588.7	
190.79	3444	
191	5414.1	
191.22	5433.3	
191.43	3637.9	
191.64	3035.8	
191.86	5601.9	
192.07	5431.9	
192.29	3157.3	
192.5	3243.3	
192.71	5382.1	
192.93	4755.4	
193.14	3190.1	
193.35	3329.3	
193.57	4739.7	
193.78	5480.4	
194	2663	
194.21	3179.1	
194.42	4586.1	
194.64	4953.4	
194.85	3505.4	
195.07	4106.9	
195.28	4937	
195.49	4410	
195.71	4259.8	
195.92	3094.5	
196.13	5160.9	
196.35	5158.2	
196.56	4557.4	
196.78	3520.5	
196.99	6295.5	
197.2	5937.7	
197.42	3977.2	
197.63	3608.5	
197.84	4496	
198.06	5109.7	
198.27	3261	
198.48	4223.6	
198.7	4776.5	
198.91	4901.5	
199.13	3582.6	
199.34	3511.6	
199.55	5340.4	
199.77	4354	
199.98	3168.2	
200.19	3583.3	
200.41	4919.2	
200.62	4635.9	
200.83	3705.5	
201.05	3967.6	
201.26	4889.2	
201.47	4732.2	
201.69	3153.2	
201.9	3063.1	
202.11	4937.7	
202.33	5767.1	
202.54	3367.5	
202.76	3725.3	
202.97	5005.9	
203.18	5164.3	
203.4	3699.3	
203.61	3614.7	
203.82	5007.3	
204.04	4696	
204.25	3609.9	
204.46	3493.2	
204.68	5026.4	
204.89	5159.5	
205.1	3440.6	
205.32	3037.8	
205.53	5285.1	
205.74	5421	
205.96	2659.6	
206.17	3534.8	
206.38	5271.5	
206.6	5403.2	
206.81	4087.1	
207.02	3289	
207.24	5184.1	
207.45	5478.3	
207.66	3394.2	
207.88	2998.9	
208.09	5162.9	
208.3	4950.6	
208.52	3103.4	
208.73	3438.5	
208.94	4988.2	
209.15	5545.9	
209.37	3368.9	
209.58	3826.3	
209.79	5398.4	
210.01	4831.8	
210.22	2708.1	
210.43	2932.7	
210.65	4975.9	
210.86	5276.3	
211.07	3388	
211.29	3128.6	
211.5	5208	
211.71	4927.4	
211.93	3108.8	
212.14	3130	
212.35	4904.2	
212.56	5071.5	
212.78	3577.1	
212.99	2988.7	
213.2	5675.6	
213.42	4811.4	
213.63	3226.9	
213.84	3387.3	
214.06	4435.9	
214.27	4501.4	
214.48	3352.5	
214.69	3574.4	
214.91	5570.5	
215.12	5596.4	
215.33	3669.3	
215.55	3948.5	
215.76	5987.6	
215.97	5232.6	
216.18	3493.2	
216.4	3461.1	
216.61	4681	
216.82	5433.3	
217.04	3170.3	
217.25	3263.1	
217.46	5507.7	
217.67	5330.9	
217.89	2839.8	
218.1	2976.4	
218.31	5033.2	
218.53	5130.8	
218.74	3290.4	
218.95	3205.1	
219.16	4919.9	
219.38	5722	
219.59	3206.4	
219.8	3778.5	
220.01	6217	
220.23	4992.9	
220.44	4121.2	
220.65	3093.1	
220.87	5044.1	
221.08	5529.5	
221.29	2960.7	
221.5	3849.5	
221.72	6563.1	
221.93	4723.3	
222.14	3582.6	
222.35	4130.8	
222.57	4984.1	
222.78	5302.9	
222.99	3364.8	
223.2	3620.1	
223.42	5201.2	
223.63	5319.9	
223.84	2708.8	
224.05	2664.4	
224.27	6134.3	
224.48	5712.5	
224.69	4199	
224.9	3544.4	
225.12	5083.1	
225.33	4898.7	
225.54	2882.2	
225.75	3208.5	
225.97	4634.6	
226.18	4955.4	
226.39	3394.2	
226.6	3250.8	
226.82	4748.6	
227.03	4672.8	
227.24	3534.8	
227.45	2996.9	
227.67	5309.7	
227.88	5687.9	
228.09	3921.2	
228.3	3951.2	
228.52	5331.5	
228.73	4950.6	
228.94	3284.9	
229.15	3024.8	
229.36	4965.6	
229.58	4888.5	
229.79	3325.2	
230	3777.8	
230.21	5859.9	
230.43	5042.1	
230.64	3538.9	
230.85	3678.2	
231.06	5389.6	
231.28	5337.7	
231.49	3008.5	
231.7	3491.1	
231.91	5300.1	
232.12	4980.7	
232.34	3056.9	
232.55	3461.1	
232.76	5539.8	
232.97	5115.1	
233.18	3128.6	
233.4	3558	
233.61	5111.7	
233.82	4760.2	
234.03	3338.9	
234.25	3262.4	
234.46	6640.2	
234.67	4958.1	
234.88	3616.7	
235.09	3186	
235.31	5212.8	
235.52	4805.2	
235.73	3454.2	
235.94	2975.7	
236.15	4749.9	
236.37	5913.2	
236.58	3155.2	
236.79	3442.6	
237	5240.1	
237.21	4525.3	
237.43	3644.7	
237.64	2920.4	
237.85	8509.3	
238.06	4539	
238.27	3697.3	
238.48	3065.8	
238.7	5308.3	
238.91	4853	
239.12	3390.1	
239.33	3511.6	
239.54	4612.7	
239.76	4848.9	
239.97	3376.4	
240.18	3383.2	
240.39	6017.6	
240.6	5112.4	
240.82	3582.6	
241.03	2949.1	
241.24	4953.4	
241.45	5685.8	
241.66	3137.5	
241.87	3699.3	
242.09	5560.2	
242.3	5864	
242.51	3704.8	
242.72	3390.8	
242.93	5284.4	
243.14	4943.1	
243.36	3962.1	
243.57	4197.7	
243.78	5648.3	
243.99	5310.4	
244.2	3421.5	
244.41	3123.8	
244.63	4551.3	
244.84	5207.3	
245.05	3608.5	
245.26	3384.6	
245.47	5190.9	
245.68	5380.7	
245.9	4464.6	
246.11	3580.5	
246.32	4819.6	
246.53	5158.2	
246.74	5411.4	
246.95	2925.2	
247.16	4584	
247.38	4980	
247.59	2898.6	
247.8	3443.3	
248.01	4697.4	
248.22	4979.3	
248.43	3119.7	
248.64	3374.4	
248.86	4532.8	
249.07	4770.4	
249.28	3019.4	
249.49	3522.5	
249.7	5390.3	
249.91	5503.6	
250.12	2934.7	
250.34	2967.5	
250.55	5115.1	
250.76	4955.4	
250.97	3504.8	
251.18	3571.7	
251.39	5547.3	
251.6	5103.5	
251.81	3618.1	
252.03	3614	
252.24	4795.7	
252.45	5367	
252.66	3012.6	
252.87	3805.8	
253.08	5014.1	
253.29	6311.2	
253.5	3007.1	
253.72	4089.1	
253.93	4848.9	
254.14	5736.4	
254.35	3249.4	
254.56	3330	
254.77	5146.5	
254.98	4657.8	
255.19	3179.8	
255.41	4087.1	
255.62	5052.3	
255.83	5524.7	
256.04	3623.5	
256.25	3549.8	
256.46	5988.9	
256.67	4706.2	
256.88	3559.4	
257.09	3856.3	
257.31	4669.4	
257.52	4654.4	
257.73	4319.2	
257.94	3297.9	
258.15	4811.4	
258.36	4973.2	
258.57	4058.4	
258.78	2641.9	
258.99	5437.4	
259.2	4816.8	
259.41	3291.1	
259.63	3404.4	
259.84	5666	
260.05	5983.5	
260.26	4201.1	
260.47	3188	
260.68	5434.6	
260.89	4842.1	
261.1	3950.5	
261.31	3147.7	
261.52	5469.4	
261.73	5769.8	
261.95	4066.6	
262.16	3676.1	
262.37	5519.3	
262.58	5649	
262.79	4117.1	
263	3282.9	
263.21	4962.9	
263.42	4809.3	
263.63	3371.6	
263.84	3310.9	
264.05	5399.1	
264.26	5676.3	
264.47	4078.2	
264.69	3646.7	
264.9	5588.2	
265.11	5098.8	
265.32	3162.1	
265.53	3233.7	
265.74	5113.8	
265.95	4475.5	
266.16	3460.4	
266.37	3808.5	
266.58	5083.7	
266.79	4807.3	
267	3242.6	
267.21	3057.6	
267.42	4625.7	
267.63	4972.5	
267.84	3429	
268.06	2952.5	
268.27	5354.8	
268.48	5551.4	
268.69	3332	
268.9	3900.7	
269.11	5576.6	
269.32	4514.4	
269.53	3446	
269.74	3128.6	
269.95	5203.9	
270.16	4492.6	
270.37	3381.9	
270.58	3966.9	
270.79	4818.2	
271	5375.2	
271.21	3655.6	
271.42	3465.8	
271.63	5128.8	
271.84	4635.9	
272.05	2782.5	
272.26	3087	
272.47	5012.1	
272.68	5157.5	
272.89	3362.1	
273.11	3773.7	
273.32	4758.8	
273.53	5713.8	
273.74	3622.9	
273.95	3561.4	
274.16	5442.1	
274.37	5039.4	
274.58	3732.8	
274.79	3022.1	
275	5141.1	
275.21	5438.7	
275.42	4435.2	
275.63	3805.8	
275.84	5180.7	
276.05	6348	
276.26	3581.9	
276.47	3377.1	
276.68	4869.4	
276.89	5821	
277.1	3780.6	
277.31	2994.8	
277.52	5183.4	
277.73	5381.4	
277.94	2951.8	
278.15	3294.5	
278.36	5116.5	
278.57	4637.3	
278.78	3306.8	
278.99	3675.4	
279.2	4701.5	
279.41	4622.3	
279.62	4300.1	
279.83	3048.1	
280.04	5969.1	
280.25	4586.8	
280.46	4246.1	
280.67	3439.2	
280.88	4655.7	
281.09	5460.6	
281.3	3609.2	
281.51	4457.7	
281.72	4728.8	
281.93	5395.7	
282.14	3204.4	
282.35	3473.4	
282.56	5405.3	
282.77	5356.1	
282.98	3338.2	
283.19	4025.6	
283.4	6494.8	
283.61	4899.4	
283.82	3108.8	
284.03	4194.2	
284.24	5086.5	
284.45	5514.5	
284.66	4207.9	
284.87	4013.3	
285.08	5468.1	
285.29	5528.2	
285.5	2969.6	
285.71	3343.7	
285.92	5444.2	
286.12	6014.2	
286.33	4175.1	
286.54	3379.1	
286.75	5340.4	
286.96	4840	
287.17	3108.8	
287.38	4090.5	
287.59	4704.2	
287.8	4691.9	
288.01	3374.4	
288.22	3734.1	
288.43	5349.3	
288.64	4552.6	
288.85	3907.5	
289.06	3747.1	
289.27	5330.9	
289.48	5713.2	
289.69	4122.6	
289.9	3815.4	
290.11	5565	
290.32	4734.2	
290.53	3918.4	
290.74	3637.2	
290.94	5306.3	
291.15	5436	
291.36	3226.2	
291.57	3822.9	
291.78	4733.5	
291.99	4458.4	
292.2	3175.7	
292.41	3658.4	
292.62	5439.4	
292.83	5229.8	
293.04	4513	
293.25	3130.7	
293.46	4803.2	
293.67	5507.7	
293.88	3198.2	
294.09	3142.9	
294.29	4644.1	
294.5	5076.2	
294.71	3491.8	
294.92	3306.8	
295.13	4801.8	
295.34	5939.1	
295.55	2904	
295.76	2847.4	
295.97	5333.6	
296.18	5941.8	
296.39	3075.4	
296.6	3220.1	
296.81	5020.9	
297.01	5316.5	
297.22	3339.6	
297.43	3263.8	
297.64	4747.2	
297.85	4652.3	
298.06	2751.1	
298.27	2927.2	
298.48	4972.5	
298.69	4733.5	
298.9	3482.2	
299.11	3157.3	
299.31	4645.5	
299.52	4582	
299.73	3711.6	
299.94	3610.6	
300.15	4980.7	
300.36	4716.5	
300.57	3670.6	
300.78	3633.1	
300.99	4840	
301.2	5052.3	
301.4	3250.8	
301.61	3455.6	
301.82	5284.4	
302.03	5370.5	
302.24	3839.9	
302.45	3065.8	
302.66	5247.6	
302.87	5550.7	
303.08	3265.8	
303.29	4333.5	
303.49	4825	
303.7	4954.7	
303.91	2917.7	
304.12	4104.1	
304.33	4578.6	
304.54	5124	
304.75	3250.1	
304.96	3111.5	
305.16	5288.5	
305.37	5836.7	
305.58	2841.9	
305.79	2955.9	
306	5296	
306.21	4440.7	
306.42	3250.8	
306.63	4820.9	
306.83	4868	
307.04	5406.6	
307.25	3533.4	
307.46	3566.2	
307.67	4362.2	
307.88	5301.5	
308.09	3213.9	
308.29	3297.9	
308.5	4998.4	
308.71	5475.6	
308.92	3438.5	
309.13	3075.4	
309.34	4887.8	
309.55	4917.9	
309.75	4007.9	
309.96	3594.2	
310.17	5398.4	
310.38	4747.2	
310.59	3784.6	
310.8	3062.4	
311.01	5823.7	
311.21	4936.3	
311.42	3089	
311.63	3196.2	
311.84	4801.1	
312.05	5003.9	
312.26	3558	
312.46	3905.5	
312.67	4876.9	
312.88	4542.4	
313.09	3131.3	
313.3	3051.5	
313.51	5611.4	
313.71	5892.7	
313.92	3103.4	
314.13	3309.5	
314.34	5169.1	
314.55	4949.9	
314.76	3957.4	
314.96	3420.8	
315.17	5122.7	
315.38	5261.2	
315.59	3128.6	
315.8	3036.5	
316.01	5702.9	
316.21	5803.9	
316.42	3052.8	
316.63	3483.6	
316.84	4881.7	
317.05	5520.6	
317.26	3681.6	
317.46	3289.7	
317.67	4900.1	
317.88	5313.8	
318.09	3926.6	
318.3	2917.7	
318.5	4772.4	
318.71	5225.7	
318.92	4909	
319.13	3633.1	
319.34	5368.4	
319.54	5489.2	
319.75	2922.5	
319.96	2779.1	
320.17	5240.1	
320.38	5473.5	
320.58	2917	
320.79	3455.6	
321	5458.5	
321.21	5557.5	
321.42	3485	
321.62	2893.8	
321.83	4670.1	
322.04	4945.8	
322.25	3324.5	
322.46	3144.3	
322.66	5104.9	
322.87	5244.2	
323.08	3805.8	
323.29	3029.6	
323.5	5874.9	
323.7	4596.3	
323.91	4176.5	
324.12	3734.1	
324.33	5061.9	
324.53	5259.2	
324.74	3671.3	
324.95	3795.6	
325.16	4494.6	
325.37	4836.6	
325.57	3149.1	
325.78	3226.9	
325.99	5031.9	
326.2	4523.3	
326.4	4322.6	
326.61	2895.1	
326.82	4912.4	
327.03	5120.6	
327.24	4322.6	
327.44	4096.6	
327.65	5232.6	
327.86	4263.9	
328.07	3687	
328.27	3061	
328.48	5580.7	
328.69	4592.9	
328.9	4370.4	
329.1	3340.2	
329.31	4864.6	
329.52	5632.6	
329.73	3172.3	
329.93	3426.3	
330.14	5036	
330.35	5154.7	
330.56	4945.2	
330.76	3781.2	
330.97	4850.3	
331.18	5184.8	
331.39	3453.6	
331.59	2846.7	
331.8	5459.2	
332.01	5565.7	
332.22	3301.3	
332.42	3657	
332.63	5130.8	
332.84	4641.4	
333.05	3482.9	
333.25	3191.4	
333.46	4757.4	
333.67	4933.6	
333.88	3261.7	
334.08	3557.3	
334.29	6501.6	
334.5	5504.9	
334.7	3087.7	
334.91	4354	
335.12	4655.7	
335.33	5314.5	
335.53	3475.4	
335.74	4945.2	
335.95	4797.7	
336.16	4625	
336.36	3556.6	
336.57	3936.2	
336.78	4552.6	
336.98	5412.1	
337.19	4186.7	
337.4	3370.3	
337.61	5939.8	
337.81	4612.7	
338.02	3218	
338.23	4050.2	
338.43	5610.1	
338.64	4691.2	
338.85	3158.7	
339.05	4096.6	
339.26	5737	
339.47	4491.9	
339.68	3151.1	
339.88	4534.9	
340.09	5191.6	
340.3	5367	
340.5	3647.4	
340.71	2841.2	
340.92	4556	
341.13	5548.6	
341.33	3011.2	
341.54	3654.9	
341.75	5216.2	
341.95	4868	
342.16	3517.7	
342.37	3798.3	
342.57	4649.6	
342.78	4948.6	
342.99	3878.2	
343.19	2856.2	
343.4	5340.4	
343.61	5205.9	
343.81	3348.4	
344.02	3121.1	
344.23	5342.5	
344.43	5670.1	
344.64	3850.2	
344.85	3777.8	
345.06	5235.3	
345.26	5490.6	
345.47	3570.3	
345.68	4140.3	
345.88	4521.9	
346.09	5431.9	
346.3	3678.2	
346.5	2841.9	
346.71	4960.9	
346.92	4763.6	
347.12	2970.9	
347.33	3638.6	
347.54	5437.4	
347.74	5810.8	
347.95	3627	
348.16	2746.3	
348.36	4831.2	
348.57	4635.2	
348.78	3577.1	
348.98	3833.8	
349.19	4952	
349.39	4521.9	
349.6	2933.4	
349.81	3228.3	
350.01	5251	
350.22	4719.9	
350.43	3521.8	
350.63	4143.7	
350.84	4987.5	
351.05	4832.5	
351.25	3203	
351.46	2882.9	
351.67	5444.9	
351.87	4738.3	
352.08	3361.4	
352.29	3848.8	
352.49	5401.2	
352.7	5167	
352.9	3033.7	
353.11	3815.4	
353.32	5904.3	
353.52	4881	
353.73	3117.7	
353.94	3879.5	
354.14	5262.6	
354.35	5076.9	
354.55	3167.5	
354.76	3517	
354.97	5168.4	
355.17	4999.1	
355.38	3047.4	
355.59	4061.1	
355.79	4719.9	
356	5066	
356.2	3490.4	
356.41	3114.3	
356.62	4603.2	
356.82	4963.6	
357.03	3753.2	
357.24	3385.3	
357.44	4760.8	
357.65	4874.2	
357.85	4417.5	
358.06	3603.1	
358.27	4521.9	
358.47	4747.2	
358.68	2986.6	
358.88	3711.6	
359.09	5212.8	
359.3	5561.6	
359.5	4341.7	
359.71	3898.6	
359.91	5964.4	
360.12	5436.7	
360.33	3789.4	
360.53	4205.8	
360.74	4838	
360.94	4847.5	
361.15	4018.8	
361.36	3317	
361.56	5553.4	
361.77	5051.7	
361.97	4310.3	
362.18	3521.1	
362.38	5578.7	
362.59	4747.2	
362.8	3282.2	
363	3200.3	
363.21	4596.3	
363.41	5317.9	
363.62	3704.1	
363.83	4576.5	
364.03	5261.2	
364.24	5995.1	
364.44	4732.2	
364.65	4599.7	
364.85	5134.9	
365.06	4794.3	
365.27	3468.6	
365.47	3531.4	
365.68	5928.2	
365.88	5059.2	
366.09	3835.2	
366.29	3594.2	
366.5	5267.4	
366.71	5693.4	
366.91	4612	
367.12	3973.1	
367.32	6146.6	
367.53	5586.2	
367.73	3990.8	
367.94	4713.7	
368.14	5535.7	
368.35	6236.7	
368.56	3908.2	
368.76	3509.5	
368.97	5690.6	
369.17	6924.9	
369.38	3525.2	
369.58	3752.6	
369.79	4742.4	
369.99	5956.2	
370.2	4575.8	
370.4	3840.6	
370.61	5338.4	
370.82	6337.8	
371.02	3727.3	
371.23	3227.6	
371.43	4767	
371.64	5908.4	
371.84	3842	
372.05	4761.5	
372.25	6922.1	
372.46	5579.3	
372.66	3888.4	
372.87	3787.4	
373.07	5738.4	
373.28	7005.4	
373.48	4618.2	
373.69	4440	
373.9	5356.8	
374.1	5342.5	
374.31	4627	
374.51	4290.5	
374.72	6007.4	
374.92	5055.8	
375.13	4846.9	
375.33	4143.7	
375.54	5721.3	
375.74	5278.3	
375.95	4252.3	
376.15	5259.9	
376.36	5780.1	
376.56	5654.4	
376.77	4370.4	
376.97	4691.9	
377.18	6666.1	
377.38	5917.3	
377.59	5000.5	
377.79	4040.6	
378	5738.4	
378.2	6077.7	
378.41	4045.4	
378.61	3966.9	
378.82	6109.1	
379.02	5434.6	
379.23	4238.6	
379.43	5136.3	
379.64	6239.5	
379.84	5946.6	
380.05	4095.3	
380.25	3979.9	
380.46	6016.2	
380.66	5647.6	
380.87	5233.2	
381.07	5438	
381.28	6529.6	
381.48	6002.6	
381.69	4099.4	
381.89	4121.9	
382.1	5136.3	
382.3	6104.3	
382.51	4965.6	
382.71	5743.9	
382.91	5943.2	
383.12	6384.9	
383.32	4400.4	
383.53	4556.7	
383.73	5783.5	
383.94	5670.8	
384.14	4515.8	
384.35	3737.5	
384.55	5603.9	
384.76	5843.5	
384.96	4394.3	
385.17	4562.9	
385.37	6006.7	
385.58	5335.6	
385.78	4573.1	
385.98	3613.3	
386.19	5501.5	
386.39	5809.4	
386.6	4132.1	
386.8	4291.9	
387.01	5924.1	
387.21	6014.9	
387.42	4631.8	
387.62	5159.5	
387.83	5427.1	
388.03	5859.9	
388.23	4416.1	
388.44	5110.4	
388.64	5145.9	
388.85	5302.9	
389.05	4752	
389.26	5208	
389.46	6924.2	
389.67	6402.6	
389.87	4775.9	
390.07	4798.4	
390.28	5742.5	
390.48	5421.7	
390.69	4191.5	
390.89	4403.1	
391.1	5593	
391.3	6418.3	
391.5	5371.8	
391.71	5853.1	
391.91	6183.5	
392.12	6981.5	
392.32	5476.3	
392.53	4831.2	
392.73	5718.6	
392.93	5848.3	
393.14	4541	
393.34	5181.4	
393.55	6149.4	
393.75	5755.5	
393.95	4472.1	
394.16	4455.7	
394.36	5640.1	
394.57	6192.4	
394.77	4080.2	
394.98	4405.9	
395.18	5568.4	
395.38	5696.8	
395.59	5266	
395.79	4386.7	
396	5760.9	
396.2	6161	
396.4	5091.9	
396.61	5072.1	
396.81	6330.3	
397.02	5743.2	
397.22	5390.3	
397.42	5429.2	
397.63	6481.8	
397.83	5720	
398.04	4450.9	
398.24	4947.2	
398.44	6247.7	
398.65	5436.7	
398.85	4369.7	
399.05	4487.8	
399.26	5805.3	
399.46	7270.3	
399.67	4831.2	
399.87	4608.6	
400.07	6109.1	
400.28	6479.8	
400.48	4689.2	
400.69	5642.8	
400.89	6578.8	
401.09	7012.9	
401.3	4644.8	
401.5	5603.9	
401.7	7219.1	
401.91	7446.4	
402.11	5028.4	
402.32	5184.1	
402.52	6730.3	
402.72	6666.1	
402.93	5360.2	
403.13	4274.8	
403.33	7332.4	
403.54	6174.6	
403.74	5009.3	
403.94	5629.2	
404.15	6194.4	
404.35	7079.1	
404.56	4740.4	
404.76	6245.6	
404.96	6533	
405.17	6341.9	
405.37	6006	
405.57	5244.2	
405.78	6662.7	
405.98	6190.3	
406.18	4938.3	
406.39	5659.9	
406.59	6708.5	
406.79	6256.5	
407	4733.5	
407.2	4749.9	
407.4	6699.6	
407.61	6871.6	
407.81	4838	
408.01	6773.3	
408.22	5853.1	
408.42	7600	
408.62	5850.4	
408.83	5370.5	
409.03	6482.5	
409.23	6544.6	
409.44	5704.3	
409.64	6033.3	
409.84	7578.2	
410.05	7509.2	
410.25	5965.7	
410.45	5746.6	
410.66	7314	
410.86	9206.3	
411.06	6281.8	
411.27	6090	
411.47	9251.4	
411.67	7469.6	
411.88	6379.4	
412.08	6658.6	
412.28	8038.3	
412.49	8489.5	
412.69	6269.5	
412.89	6309.1	
413.09	8405.5	
413.3	8219.9	
413.5	6505.7	
413.7	6156.2	
413.91	7655.3	
414.11	8396	
414.31	6331	
414.52	6838.2	
414.72	8161.2	
414.92	8072.4	
415.12	6356.2	
415.33	6860.7	
415.53	8513.4	
415.73	8721.6	
415.94	7113.3	
416.14	6645	
416.34	7770.7	
416.55	7520.8	
416.75	7651.9	
416.95	7288	
417.15	8680.7	
417.36	9112.8	
417.56	7886.7	
417.76	7152.2	
417.97	8957.8	
418.17	8634.9	
418.37	6804	
418.57	6914.6	
418.78	8575.5	
418.98	8183.7	
419.18	7672.4	
419.38	7520.1	
419.59	8278.6	
419.79	7838.3	
419.99	6741.9	
420.2	7042.3	
420.4	8701.1	
420.6	8794.7	
420.8	6684.6	
421.01	6640.9	
421.21	8556.4	
421.41	8652	
421.61	6972	
421.82	6740.5	
422.02	8184.4	
422.22	8959.2	
422.42	7495.6	
422.63	7016.3	
422.83	8293.6	
423.03	9248.6	
423.23	7129	
423.44	6391	
423.64	8194.6	
423.84	7966.6	
424.04	6687.3	
424.25	6299.6	
424.45	8919.6	
424.65	8813.8	
424.85	6156.2	
425.06	6636.8	
425.26	9008.3	
425.46	7989.8	
425.66	7018.4	
425.87	6787	
426.07	8738	
426.27	8491.6	
426.47	6878.4	
426.67	6266.1	
426.88	8860.2	
427.08	8518.2	
427.28	7185.6	
427.48	6270.9	
427.69	7551.5	
427.89	8123.6	
428.09	7006.1	
428.29	6312.5	
428.5	8583.7	
428.7	8332.5	
428.9	6295.5	
429.1	6671.6	
429.3	8320.2	
429.51	8457.4	
429.71	6466.1	
429.91	7159	
430.11	8622.6	
430.31	8776.9	
430.52	6802	
430.72	7154.9	
430.92	9007.6	
431.12	8608.3	
431.32	6640.2	
431.53	6931.7	
431.73	7707.9	
431.93	9129.8	
432.13	6569.2	
432.33	6531.7	
432.54	8086.7	
432.74	8421.2	
432.94	6477.7	
433.14	7224.6	
433.34	8594	
433.55	8378.9	
433.75	7235.5	
433.95	8767.4	
434.15	8511.4	
434.35	8314.8	
434.56	6591	
434.76	6326.2	
434.96	8465.6	
435.16	8781.7	
435.36	6603.3	
435.56	7621.9	
435.77	8315.4	
435.97	8512.7	
436.17	8245.1	
436.37	7552.2	
436.57	8370	
436.78	8376.9	
436.98	9018.6	
437.18	8097.7	
437.38	9051.3	
437.58	8531.8	
437.78	8220.5	
437.99	7047.7	
438.19	8935.3	
438.39	9547.6	
438.59	7011.6	
438.79	6523.5	
438.99	9361.3	
439.2	8387.1	
439.4	6475	
439.6	6551.5	
439.8	8583	
440	9615.9	
440.2	7444.4	
440.4	7539.9	
440.61	9144.2	
440.81	9623.4	
441.01	6883.2	
441.21	7761.1	
441.41	9741.5	
441.61	9198.1	
441.81	8079.2	
442.02	8948.9	
442.22	10105	
442.42	9448.6	
442.62	7212.3	
442.82	7165.8	
443.02	9770.9	
443.22	9062.9	
443.43	7613	
443.63	7199.3	
443.83	8743.5	
444.03	8841.8	
444.23	8294.3	
444.43	7945.4	
444.63	9308	
444.83	10176	
445.04	7505.1	
445.24	8497	
445.44	9349	
445.64	9609.8	
445.84	7918.8	
446.04	8027.4	
446.24	8871.8	
446.44	9732.6	
446.65	7194.5	
446.85	7610.3	
447.05	8692.3	
447.25	9587.2	
447.45	7583.6	
447.65	7092.8	
447.85	8995.4	
448.05	8664.3	
448.25	8011	
448.46	7796.6	
448.66	9078	
448.86	8686.8	
449.06	7058	
449.26	7937.9	
449.46	9383.1	
449.66	8518.2	
449.86	7646.4	
450.06	7590.5	
450.26	8846.5	
450.47	9327.8	
450.67	7763.8	
450.87	8109.3	
451.07	9412.5	
451.27	9291	
451.47	7290.8	
451.67	7759.1	
451.87	9090.9	
452.07	9789.3	
452.27	7596.6	
452.47	7513.3	
452.67	9202.9	
452.88	9508.7	
453.08	6874.3	
453.28	8603.5	
453.48	10339	
453.68	9044.5	
453.88	7434.1	
454.08	7600.7	
454.28	9491.7	
454.48	9302.6	
454.68	8061.5	
454.88	8398.7	
455.08	9600.2	
455.28	9585.9	
455.48	7296.9	
455.68	8022.6	
455.89	10224	
456.09	9874.6	
456.29	7809.6	
456.49	7957	
456.69	10201	
456.89	9442.5	
457.09	8343.4	
457.29	8731.9	
457.49	9854.1	
457.69	10057	
457.89	8430.8	
458.09	7720.8	
458.29	9644.6	
458.49	10337	
458.69	8730.5	
458.89	8281.3	
459.09	10719	
459.29	10726	
459.49	8322.9	
459.69	9121	
459.9	10217	
460.1	9995.5	
460.3	8128.4	
460.5	8107.9	
460.7	10250	
460.9	9908.8	
461.1	7795.9	
461.3	8972.8	
461.5	10991	
461.7	10591	
461.9	8433.5	
462.1	8650.6	
462.3	10337	
462.5	10834	
462.7	8429.4	
462.9	8707.3	
463.1	11632	
463.3	11432	
463.5	8802.2	
463.7	9777	
463.9	10674	
464.1	10857	
464.3	9209	
464.5	9268.4	
464.7	11245	
464.9	11086	
465.1	10360	
465.3	9605	
465.5	11562	
465.7	11582	
465.9	10010	
466.1	9567.4	
466.3	11522	
466.5	11297	
466.7	10681	
466.9	9606.3	
467.1	11405	
467.3	12086	
467.5	10681	
467.7	9741.5	
467.9	12370	
468.1	12996	
468.3	10242	
468.5	10763	
468.7	11493	
468.9	11346	
469.1	10106	
469.3	10712	
469.5	13113	
469.7	11347	
469.9	10290	
470.1	9906	
470.3	11613	
470.5	11514	
470.7	10942	
470.9	9847.3	
471.1	11414	
471.3	11716	
471.5	9823.4	
471.69	11360	
471.89	11152	
472.09	10716	
472.29	10449	
472.49	10510	
472.69	11048	
472.89	11594	
473.09	9671.2	
473.29	9651.4	
473.49	11148	
473.69	11100	
473.89	10491	
474.09	9695.8	
474.29	12179	
474.49	11804	
474.69	10426	
474.89	9899.9	
475.09	11142	
475.29	11105	
475.49	9355.1	
475.69	9583.8	
475.88	12391	
476.08	11445	
476.28	9297.8	
476.48	9471.2	
476.68	11546	
476.88	11557	
477.08	9429.5	
477.28	9643.2	
477.48	10965	
477.68	11383	
477.88	9327.8	
478.08	9403.6	
478.28	11855	
478.48	11098	
478.67	9598.1	
478.87	9057.5	
479.07	11832	
479.27	11157	
479.47	9686.9	
479.67	9838.4	
479.87	11629	
480.07	12049	
480.27	9101.2	
480.47	10417	
480.67	11243	
480.87	11798	
481.06	9335.3	
481.26	10189	
481.46	11258	
481.66	11142	
481.86	9740.1	
482.06	10544	
482.26	11008	
482.46	11798	
482.66	9716.9	
482.86	9296.4	
483.05	11351	
483.25	10858	
483.45	11744	
483.65	9682.8	
483.85	10946	
484.05	11222	
484.25	10045	
484.45	10611	
484.65	11929	
484.84	11996	
485.04	9776.3	
485.24	9697.1	
485.44	12317	
485.64	10858	
485.84	9174.2	
486.04	10359	
486.24	11233	
486.44	11542	
486.63	9207	
486.83	9936.7	
487.03	11298	
487.23	11505	
487.43	9342.2	
487.63	11462	
487.83	11642	
488.02	12295	
488.22	10352	
488.42	10828	
488.62	12221	
488.82	11412	
489.02	9983.2	
489.22	10175	
489.41	12020	
489.61	11992	
489.81	9912.2	
490.01	9802.3	
490.21	12115	
490.41	12712	
490.61	9889	
490.8	10051	
491	11867	
491.2	11191	
491.4	10399	
491.6	9772.2	
491.8	11652	
491.99	11717	
492.19	9549.7	
492.39	9784.5	
492.59	12114	
492.79	12130	
492.99	10536	
493.18	9794.8	
493.38	12208	
493.58	13005	
493.78	10445	
493.98	10167	
494.18	12085	
494.37	11774	
494.57	10935	
494.77	10740	
494.97	12541	
495.17	12882	
495.37	10629	
495.56	10976	
495.76	13075	
495.96	12725	
496.16	11731	
496.36	10930	
496.55	13149	
496.75	12875	
496.95	11343	
497.15	11202	
497.35	13031	
497.54	13037	
497.74	11109	
497.94	12482	
498.14	13690	
498.34	13518	
498.53	10981	
498.73	11514	
498.93	12575	
499.13	13124	
499.33	11381	
499.52	11742	
499.72	13134	
499.92	13411	
500.12	11297	
500.32	11503	
500.51	13300	
500.71	13270	
500.91	12119	
501.11	11730	
501.31	13554	
501.5	13726	
501.7	12408	
501.9	11428	
502.1	13166	
502.29	13464	
502.49	11886	
502.69	12090	
502.89	13434	
503.09	13338	
503.28	10860	
503.48	11052	
503.68	12616	
503.88	12661	
504.07	11809	
504.27	11331	
504.47	13007	
504.67	12997	
504.86	11759	
505.06	11440	
505.26	12654	
505.46	14050	
505.65	11275	
505.85	11395	
506.05	12493	
506.25	12851	
506.44	10556	
506.64	11191	
506.84	12192	
507.04	12868	
507.23	10666	
507.43	11112	
507.63	13797	
507.83	12256	
508.02	11142	
508.22	10796	
508.42	14098	
508.62	12043	
508.81	10899	
509.01	11375	
509.21	11968	
509.4	12228	
509.6	11004	
509.8	10492	
510	12198	
510.19	13390	
510.39	10550	
510.59	10503	
510.79	12125	
510.98	13224	
511.18	10750	
511.38	10839	
511.57	12891	
511.77	12699	
511.97	11301	
512.17	10692	
512.36	12710	
512.56	12542	
512.76	10521	
512.95	10241	
513.15	12848	
513.35	11556	
513.55	11209	
513.74	10467	
513.94	12655	
514.14	12213	
514.33	11353	
514.53	11017	
514.73	12147	
514.92	12331	
515.12	10704	
515.32	10505	
515.51	12404	
515.71	12846	
515.91	12045	
516.11	10580	
516.3	13889	
516.5	12155	
516.7	11119	
516.89	11563	
517.09	12275	
517.29	12255	
517.48	11493	
517.68	10817	
517.88	11987	
518.07	12479	
518.27	11284	
518.47	10421	
518.66	13005	
518.86	11863	
519.06	10221	
519.25	10654	
519.45	12108	
519.65	13415	
519.84	11195	
520.04	11680	
520.24	13662	
520.43	12680	
520.63	10842	
520.83	10714	
521.02	12062	
521.22	12540	
521.42	11033	
521.61	11505	
521.81	12125	
522.01	12187	
522.2	10875	
522.4	10746	
522.6	12679	
522.79	11456	
522.99	10727	
523.18	10200	
523.38	12446	
523.58	12463	
523.77	11959	
523.97	10446	
524.17	14098	
524.36	13503	
524.56	11626	
524.76	11452	
524.95	12772	
525.15	12352	
525.34	11333	
525.54	11356	
525.74	13199	
525.93	12442	
526.13	12372	
526.33	11456	
526.52	13678	
526.72	13296	
526.91	12531	
527.11	11936	
527.31	13642	
527.5	14056	
527.7	11902	
527.89	11102	
528.09	12837	
528.29	13244	
528.48	12185	
528.68	11870	
528.87	13624	
529.07	13613	
529.27	11993	
529.46	11533	
529.66	13489	
529.85	13899	
530.05	11582	
530.25	12129	
530.44	14682	
530.64	13371	
530.83	11798	
531.03	12043	
531.23	13870	
531.42	13501	
531.62	12577	
531.81	11858	
532.01	13880	
532.21	14270	
532.4	11820	
532.6	12148	
532.79	14732	
532.99	14077	
533.18	12252	
533.38	13237	
533.58	13841	
533.77	14420	
533.97	12477	
534.16	13170	
534.36	14834	
534.55	14019	
534.75	13293	
534.95	12563	
535.14	14710	
535.34	14029	
535.53	12242	
535.73	13877	
535.92	15257	
536.12	13960	
536.31	12312	
536.51	13324	
536.71	14349	
536.9	13971	
537.1	12308	
537.29	12608	
537.49	14678	
537.68	13776	
537.88	12743	
538.07	12067	
538.27	14020	
538.46	14900	
538.66	12017	
538.86	12448	
539.05	14128	
539.25	14442	
539.44	12945	
539.64	12369	
539.83	14039	
540.03	14829	
540.22	12308	
540.42	12273	
540.61	14100	
540.81	14358	
541	12493	
541.2	13244	
541.39	13575	
541.59	13977	
541.78	12939	
541.98	12125	
542.18	13367	
542.37	13287	
542.57	12381	
542.76	12833	
542.96	13300	
543.15	13870	
543.35	12363	
543.54	11788	
543.74	13930	
543.93	13629	
544.13	12100	
544.32	12978	
544.52	13842	
544.71	13147	
544.91	11271	
545.1	12186	
545.3	13116	
545.49	13750	
545.69	11151	
545.88	11815	
546.08	14526	
546.27	14119	
546.47	12147	
546.66	11465	
546.86	13779	
547.05	14302	
547.24	11589	
547.44	11603	
547.63	12854	
547.83	13781	
548.02	11809	
548.22	11987	
548.41	12684	
548.61	13759	
548.8	11384	
549	11525	
549.19	13244	
549.39	13485	
549.58	11211	
549.78	11584	
549.97	13437	
550.17	13031	
550.36	12234	
550.55	12997	
550.75	12859	
550.94	13682	
551.14	11259	
551.33	11427	
551.53	12383	
551.72	13315	
551.92	11521	
552.11	11289	
552.31	13233	
552.5	13138	
552.69	12516	
552.89	10950	
553.08	13185	
553.28	12770	
553.47	11150	
553.67	12187	
553.86	13596	
554.06	12209	
554.25	10422	
554.44	11044	
554.64	14220	
554.83	13882	
555.03	10817	
555.22	11325	
555.42	13298	
555.61	12896	
555.8	10962	
556	11331	
556.19	12216	
556.39	13207	
556.58	11127	
556.78	11118	
556.97	12873	
557.16	12475	
557.36	12041	
557.55	10841	
557.75	11887	
557.94	13547	
558.13	10803	
558.33	10663	
558.52	13124	
558.72	12293	
558.91	10706	
559.1	10830	
559.3	12005	
559.49	11757	
559.69	10392	
559.88	11092	
560.07	12637	
560.27	12998	
560.46	11253	
560.66	11306	
560.85	12498	
561.04	11800	
561.24	10667	
561.43	10660	
561.63	11932	
561.82	12107	
562.01	11663	
562.21	10905	
562.4	12469	
562.59	13346	
562.79	10769	
562.98	10476	
563.18	12514	
563.37	13645	
563.56	11185	
563.76	10587	
563.95	12133	
564.14	11951	
564.34	10928	
564.53	10568	
564.73	12575	
564.92	12754	
565.11	10950	
565.31	10490	
565.5	13098	
565.69	12024	
565.89	10746	
566.08	10953	
566.27	12850	
566.47	13239	
566.66	11546	
566.85	10411	
567.05	12664	
567.24	12110	
567.44	10648	
567.63	11858	
567.82	12859	
568.02	12656	
568.21	10723	
568.4	10922	
568.6	12501	
568.79	12455	
568.98	10628	
569.18	10733	
569.37	12561	
569.56	14131	
569.76	11054	
569.95	11755	
570.14	12791	
570.34	12706	
570.53	10633	
570.72	10660	
570.91	13297	
571.11	12444	
571.3	10973	
571.49	11768	
571.69	12625	
571.88	12081	
572.07	11415	
572.27	11480	
572.46	12149	
572.65	12889	
572.85	10847	
573.04	11004	
573.23	13296	
573.43	12671	
573.62	10664	
573.81	11188	
574	12706	
574.2	12598	
574.39	11049	
574.58	11145	
574.78	13396	
574.97	12921	
575.16	11589	
575.36	11687	
575.55	13317	
575.74	13387	
575.93	10808	
576.13	11813	
576.32	12740	
576.51	13313	
576.71	11149	
576.9	12401	
577.09	13534	
577.28	13082	
577.48	11526	
577.67	10748	
577.86	12765	
578.05	13162	
578.25	11305	
578.44	11411	
578.63	12893	
578.83	13814	
579.02	10856	
579.21	12206	
579.4	13106	
579.6	12805	
579.79	11467	
579.98	13306	
580.17	13372	
580.37	13461	
580.56	11092	
580.75	11708	
580.94	13737	
581.14	13653	
581.33	12035	
581.52	11220	
581.71	13235	
581.91	13818	
582.1	10975	
582.29	11426	
582.48	13102	
582.68	12919	
582.87	11847	
583.06	11541	
583.25	13299	
583.45	12702	
583.64	12097	
583.83	12693	
584.02	12925	
584.21	13298	
584.41	12063	
584.6	11600	
584.79	13099	
584.98	13609	
585.18	11044	
585.37	11076	
585.56	12663	
585.75	13356	
585.94	11189	
586.14	11809	
586.33	13753	
586.52	12988	
586.71	11636	
586.91	11261	
587.1	12422	
587.29	13226	
587.48	11177	
587.67	11082	
587.87	12963	
588.06	12952	
588.25	12100	
588.44	11479	
588.63	12590	
588.83	13168	
589.02	11043	
589.21	10806	
589.4	12359	
589.59	12236	
589.78	10217	
589.98	10258	
590.17	11710	
590.36	12162	
590.55	9579.7	
590.74	10096	
590.94	12944	
591.13	11705	
591.32	9746.3	
591.51	9426.1	
591.7	12020	
591.89	11621	
592.09	9438.4	
592.28	9942.9	
592.47	10941	
592.66	12643	
592.85	9575.6	
593.05	9927.9	
593.24	11508	
593.43	12286	
593.62	9848.7	
593.81	10257	
594	11637	
594.19	11755	
594.39	9795.4	
594.58	9713.5	
594.77	11990	
594.96	12347	
595.15	9712.2	
595.34	10229	
595.54	11881	
595.73	11090	
595.92	9159.2	
596.11	9979.1	
596.3	12135	
596.49	11133	
596.68	9874.6	
596.88	10231	
597.07	11927	
597.26	10950	
597.45	9379	
597.64	10537	
597.83	11183	
598.02	11792	
598.22	9421.3	
598.41	10120	
598.6	11594	
598.79	11011	
598.98	9576.3	
599.17	10313	
599.36	11568	
599.55	12434	
599.74	11265	
599.94	11012	
600.13	11944	
600.32	11002	
600.51	9267.1	
600.7	9254.8	
600.89	12483	
601.08	12514	
601.27	9200.8	
601.47	10095	
601.66	11900	
601.85	12368	
602.04	9775	
602.23	10015	
602.42	11061	
602.61	11417	
602.8	9643.2	
602.99	9506	
603.18	11370	
603.37	11549	
603.57	9907.4	
603.76	10414	
603.95	12057	
604.14	11719	
604.33	9602.2	
604.52	9791.3	
604.71	11569	
604.9	11161	
605.09	10319	
605.28	10213	
605.47	11979	
605.66	11579	
605.86	9979.1	
606.05	9582.4	
606.24	11931	
606.43	10813	
606.62	9840.5	
606.81	10460	
607	11849	
607.19	11282	
607.38	9273.9	
607.57	9412.5	
607.76	11000	
607.95	10592	
608.14	9834.3	
608.33	10365	
608.52	10918	
608.72	11906	
608.91	9137.4	
609.1	9083.4	
609.29	11100	
609.48	10535	
609.67	9887.6	
609.86	9157.2	
610.05	10526	
610.24	10916	
610.43	9013.1	
610.62	8667	
610.81	11884	
611	11680	
611.19	9031.5	
611.38	9574.3	
611.57	11148	
611.76	12179	
611.95	8845.9	
612.14	8738.7	
612.33	10868	
612.52	10633	
612.71	9388.6	
612.9	8663.6	
613.09	10223	
613.28	12265	
613.47	9149.6	
613.66	9893.1	
613.85	11082	
614.04	10644	
614.24	9100.5	
614.43	8482	
614.62	11238	
614.81	11091	
615	9483.5	
615.19	9540.1	
615.38	10510	
615.57	10799	
615.76	9380.4	
615.95	10275	
616.14	11237	
616.33	10927	
616.52	9617.3	
616.71	9897.8	
616.9	10991	
617.09	11088	
617.28	9220.6	
617.47	10198	
617.66	10395	
617.85	10486	
618.04	9934.7	
618.22	9437.7	
618.41	10795	
618.6	11516	
618.79	9481.4	
618.98	9278.7	
619.17	11813	
619.36	10350	
619.55	9382.4	
619.74	9503.9	
619.93	11238	
620.12	10798	
620.31	10015	
620.5	10007	
620.69	11732	
620.88	12128	
621.07	10655	
621.26	9921.7	
621.45	11428	
621.64	11460	
621.83	10103	
622.02	9348.3	
622.21	11635	
622.4	11297	
622.59	10458	
622.78	10354	
622.97	11015	
623.16	11813	
623.35	9982.5	
623.54	9252.7	
623.72	11161	
623.91	11280	
624.1	10162	
624.29	9164.7	
624.48	12171	
624.67	11624	
624.86	10209	
625.05	9269.1	
625.24	12270	
625.43	11070	
625.62	11538	
625.81	9521.7	
626	11773	
626.19	11252	
626.38	10185	
626.56	9678.7	
626.75	11057	
626.94	11763	
627.13	10151	
627.32	9017.9	
627.51	11668	
627.7	12499	
627.89	9220.6	
628.08	10229	
628.27	10873	
628.46	11077	
628.65	9507.4	
628.83	9182.4	
629.02	11560	
629.21	10866	
629.4	9815.9	
629.59	9927.9	
629.78	10953	
629.97	11680	
630.16	9972.9	
630.35	9552.4	
630.54	12129	
630.72	11798	
630.91	9460.9	
631.1	9992	
631.29	11366	
631.48	11554	
631.67	10071	
631.86	9564.7	
632.05	11074	
632.24	11019	
632.42	9258.9	
632.61	9762.7	
632.8	11164	
632.99	10815	
633.18	9815.9	
633.37	10109	
633.56	11364	
633.75	11243	
633.93	9777	
634.12	9542.2	
634.31	11954	
634.5	11725	
634.69	9588.6	
634.88	9873.3	
635.07	11145	
635.25	11604	
635.44	10323	
635.63	10383	
635.82	10987	
636.01	10476	
636.2	10170	
636.39	9867.1	
636.57	11952	
636.76	11508	
636.95	9378.3	
637.14	10412	
637.33	11366	
637.52	12007	
637.7	9213.1	
637.89	10000	
638.08	11009	
638.27	12101	
638.46	10032	
638.65	10373	
638.83	12132	
639.02	10796	
639.21	9895.8	
639.4	10278	
639.59	11080	
639.78	10896	
639.96	9254.1	
640.15	9304.6	
640.34	11146	
640.53	11028	
640.72	9024	
640.91	9230.9	
641.09	10490	
641.28	11656	
641.47	9194.7	
641.66	9886.2	
641.85	11061	
642.03	11176	
642.22	9598.1	
642.41	9221.3	
642.6	10469	
642.79	9996.1	
642.97	8988.5	
643.16	9607	
643.35	10447	
643.54	10288	
643.73	8902.5	
643.91	9523.1	
644.1	10092	
644.29	10741	
644.48	8908.7	
644.67	8924.4	
644.85	10158	
645.04	10466	
645.23	8453.3	
645.42	8803.5	
645.6	9987.9	
645.79	10895	
645.98	8555.7	
646.17	7734.5	
646.36	9694.4	
646.54	10097	
646.73	9195.4	
646.92	8169.3	
647.11	9713.5	
647.29	10676	
647.48	8217.1	
647.67	7985	
647.86	10791	
648.05	10707	
648.23	8332.5	
648.42	9465.7	
648.61	10334	
648.8	10080	
648.98	8056	
649.17	8407.6	
649.36	9706	
649.55	9286.2	
649.73	8090.8	
649.92	8791.2	
650.11	9585.2	
650.3	9947	
650.48	8264.9	
650.67	8126.3	
650.86	10034	
651.05	9146.9	
651.23	8239.7	
651.42	8170.7	
651.61	9636.4	
651.79	9493.7	
651.98	8307.2	
652.17	8045.1	
652.36	9940.8	
652.54	9226.1	
652.73	8041.7	
652.92	7864.9	
653.11	9782.5	
653.29	9907.4	
653.48	7401.4	
653.67	8159.8	
653.85	9710.8	
654.04	10593	
654.23	8411.7	
654.42	7987.8	
654.6	9203.6	
654.79	9755.2	
654.98	7418.4	
655.16	7850.5	
655.35	8772.1	
655.54	8700.5	
655.73	7323.5	
655.91	7166.5	
656.1	9535.3	
656.29	8509.3	
656.47	6890	
656.66	8299.7	
656.85	8881.4	
657.03	8875.2	
657.22	7400.7	
657.41	7585	
657.59	9114.8	
657.78	8952.4	
657.97	7163.1	
658.16	7930.4	
658.34	9629.5	
658.53	10051	
658.72	8585.1	
658.9	9118.9	
659.09	9323	
659.28	9239.1	
659.46	7628.7	
659.65	7580.9	
659.84	8998.8	
660.02	9512.8	
660.21	7561.8	
660.4	7449.8	
660.58	9820.7	
660.77	9286.9	
660.96	8004.1	
661.14	7305.1	
661.33	10119	
661.52	10140	
661.7	7249.1	
661.89	10191	
662.08	8918.2	
662.26	8654	
662.45	7451.9	
662.64	7489.4	
662.82	9472.5	
663.01	8839	
663.2	7537.2	
663.38	8191.9	
663.57	9362.6	
663.75	9277.3	
663.94	7735.2	
664.13	8711.4	
664.31	8877.3	
664.5	9465.7	
664.69	8112	
664.87	8327	
665.06	8667	
665.25	9254.1	
665.43	8574.8	
665.62	8649.3	
665.8	9559.2	
665.99	8948.9	
666.18	7721.5	
666.36	7727	
666.55	9452.1	
666.74	9412.5	
666.92	7346.1	
667.11	8723.7	
667.29	8966.7	
667.48	9389.3	
667.67	8339.3	
667.85	7708.6	
668.04	8858.8	
668.22	8889.5	
668.41	7669	
668.6	7948.2	
668.78	8746.9	
668.97	8970.8	
669.15	8015.1	
669.34	7129.7	
669.53	8757.8	
669.71	9026.8	
669.9	7198.6	
670.08	7783.6	
670.27	8649.3	
670.46	9194.7	
670.64	7988.4	
670.83	8235.6	
671.01	8610.3	
671.2	9097.1	
671.38	7294.9	
671.57	7211.6	
671.76	9678.7	
671.94	10139	
672.13	7175.4	
672.31	8069	
672.5	9278	
672.69	8703.9	
672.87	7332.4	
673.06	7595.2	
673.24	9151	
673.43	8733.9	
673.61	7912	
673.8	7580.2	
673.98	9225.4	
674.17	9362.6	
674.36	8051.9	
674.54	7885.4	
674.73	9024.7	
674.91	9331.9	
675.1	7686.7	
675.28	7310.6	
675.47	8861.6	
675.65	9302.6	
675.84	7509.2	
676.03	7847.8	
676.21	8727.8	
676.4	8241.7	
676.58	8147.5	
676.77	7957	
676.95	10028	
677.14	8676.6	
677.32	7221.8	
677.51	7180.2	
677.69	9357.9	
677.88	8427.4	
678.06	7165.2	
678.25	7211.6	
678.44	8843.1	
678.62	8578.9	
678.81	7004.7	
678.99	7771.4	
679.18	9599.5	
679.36	9174.2	
679.55	7461.4	
679.73	7960.5	
679.92	9106	
680.1	8598.1	
680.29	8484.1	
680.47	7438.9	
680.66	8606.9	
680.84	9316.2	
681.03	6916.7	
681.21	7784.3	
681.4	8684.8	
681.58	8533.9	
681.77	7318.1	
681.95	7158.3	
682.14	9343.5	
682.32	9601.6	
682.51	7903.8	
682.69	6974.7	
682.88	8566.7	
683.06	8999.5	
683.25	7652.6	
683.43	8070.4	
683.62	8758.5	
683.8	9067	
683.99	8102.4	
684.17	7559.7	
684.36	9766.1	
684.54	8638.3	
684.73	6814.3	
684.91	6937.2	
685.1	8882.7	
685.28	8215.8	
685.46	7287.4	
685.65	7298.3	
685.83	8761.9	
686.02	8215.1	
686.2	6747.4	
686.39	6776	
686.57	8009.6	
686.76	9308	
686.94	6730.3	
687.13	6849.1	
687.31	8583	
687.5	8289.5	
687.68	6491.4	
687.86	7534.5	
688.05	9709.4	
688.23	7876.5	
688.42	7527	
688.6	6903	
688.79	8191.9	
688.97	8206.2	
689.16	7256.6	
689.34	6361.7	
689.52	8863.6	
689.71	9169.4	
689.89	7574.1	
690.08	6951.5	
690.26	8548.9	
690.45	8337.3	
690.63	7634.8	
690.81	7117.4	
691	8273.1	
691.18	8271.7	
691.37	7126.2	
691.55	9002.9	
691.74	8129.8	
691.92	9748.3	
692.1	7097.6	
692.29	6717.3	
692.47	8290.9	
692.66	7761.1	
692.84	6685.9	
693.02	7246.4	
693.21	7849.2	
693.39	8196	
693.58	7331	
693.76	6802	
693.94	9271.8	
694.13	9062.9	
694.31	6809.5	
694.5	7750.9	
694.68	8135.9	
694.86	8432.2	
695.05	7245	
695.23	7328.3	
695.42	8850	
695.6	10717	
695.78	7721.5	
695.97	7051.2	
696.15	8926.4	
696.34	8382.3	
696.52	6850.5	
696.7	7511.9	
696.89	8665	
697.07	8116.8	
697.25	7320.1	
697.44	8686.8	
697.62	8520.9	
697.81	8791.9	
697.99	6997.9	
698.17	7410.9	
698.36	7985	
698.54	8530.5	
698.72	7270.3	
698.91	6479.8	
699.09	8199.4	
699.28	8018.5	
699.46	7000.6	
699.64	6873.7	
699.83	7995.3	
700.01	8931.2	
700.19	7561.1	
700.38	6279.1	
700.56	8868.4	
700.74	8052.6	
700.93	6554.2	
701.11	7261.4	
701.29	8477.9	
701.48	9420	
701.66	6718.7	
701.84	6876.4	
702.03	8204.8	
702.21	8738	
702.39	6423.8	
702.58	6892.1	
702.76	8583.7	
702.94	8607.6	
703.13	6565.8	
703.31	8474.5	
703.49	7993.2	
703.68	8768	
703.86	6594.5	
704.04	7482.6	
704.23	8321.6	
704.41	8706.6	
704.59	6717.3	
704.78	7624.6	
704.96	9286.2	
705.14	8679.3	
705.33	6513.2	
705.51	7229.3	
705.69	8156.4	
705.87	8826.1	
706.06	7410.2	
706.24	6537.8	
706.42	8389.8	
706.61	8639	
706.79	7398.6	
706.97	6414.9	
707.16	7869	
707.34	8386.4	
707.52	7215	
707.7	6567.8	
707.89	7953.6	
708.07	7718.1	
708.25	7340.6	
708.44	7508.5	
708.62	7898.3	
708.8	8841.1	
708.98	7503.1	
709.17	6597.9	
709.35	8179.6	
709.53	8162.5	
709.72	6343.9	
709.9	6755.6	
710.08	8450.6	
710.26	8473.1	
710.45	7729.7	
710.63	6625.9	
710.81	8072.4	
710.99	8140	
711.18	7069.6	
711.36	6563.7	
711.54	7972.1	
711.72	8539.3	
711.91	6651.1	
712.09	6247.7	
712.27	7991.9	
712.45	8448.6	
712.64	6763.1	
712.82	5995.1	
713	7462.1	
713.18	7531.1	
713.37	5991.7	
713.55	7036.1	
713.73	8251.3	
713.91	7073.7	
714.1	6163	
714.28	5801.2	
714.46	7789.8	
714.64	7036.1	
714.83	5152.7	
715.01	5753.4	
715.19	6994.5	
715.37	6388.3	
715.55	5331.5	
715.74	5597.1	
715.92	7555	
716.1	5958.9	
716.28	6537.1	
716.47	5772.5	
716.65	6554.9	
716.83	6623.8	
717.01	5528.8	
717.19	5490.6	
717.38	8304.5	
717.56	6241.5	
717.74	5707	
717.92	4995.7	
718.1	7299	
718.29	6593.1	
718.47	4683	
718.65	5264	
718.83	7224.6	
719.01	7231.4	
719.2	4697.4	
719.38	5646.9	
719.56	7014.3	
719.74	8362.5	
719.92	5426.4	
720.11	6301.6	
720.29	7122.8	
720.47	6360.3	
720.65	4922	
720.83	5630.5	
721.02	6593.8	
721.2	6350.8	
721.38	5509	
721.56	4949.3	
721.74	5871.5	
721.92	5988.3	
722.11	5843.5	
722.29	5678.3	
722.47	7028.6	
722.65	6402	
722.83	4904.2	
723.01	5581.4	
723.2	6314.6	
723.38	6605.4	
723.56	4434.5	
723.74	5343.2	
723.92	5949.3	
724.1	6926.9	
724.29	4828.4	
724.47	5742.5	
724.65	6045.6	
724.83	5980.1	
725.01	4722.6	
725.19	5390.3	
725.37	5956.2	
725.56	5978.7	
725.74	4552.6	
725.92	4734.2	
726.1	5916.6	
726.28	6179.4	
726.46	5127.4	
726.64	4841.4	
726.83	6204	
727.01	6347.3	
727.19	4571.1	
727.37	5195.7	
727.55	6322.8	
727.73	6657.3	
727.91	4455.7	
728.09	4364.9	
728.28	6694.8	
728.46	6985.6	
728.64	5294.7	
728.82	5182.7	
729	7546.1	
729.18	6891.4	
729.36	4634.6	
729.54	6453.8	
729.72	7771.4	
729.91	6400.6	
730.09	6192.4	
730.27	5151.3	
730.45	6305.7	
730.63	6819.7	
730.81	5642.8	
730.99	4904.2	
731.17	7280.5	
731.35	6105.7	
731.53	5304.9	
731.71	5012.7	
731.9	7036.1	
732.08	7100.3	
732.26	5204.6	
732.44	4871.4	
732.62	7247.8	
732.8	6663.4	
732.98	5496.7	
733.16	4752.7	
733.34	6724.8	
733.52	5632.6	
733.7	5068	
733.88	5360.2	
734.07	6536.4	
734.25	6397.9	
734.43	4615.4	
734.61	5975.3	
734.79	7641.7	
734.97	6294.8	
735.15	4764.3	
735.33	5030.5	
735.51	6590.4	
735.69	6229.9	
735.87	5965.1	
736.05	5144.5	
736.23	6341.2	
736.41	6157.6	
736.59	5043.5	
736.77	5107	
736.95	6769.2	
737.13	6254.5	
737.32	4706.2	
737.5	4941.1	
737.68	7171.3	
737.86	6121.4	
738.04	4601.8	
738.22	6079.7	
738.4	5941.2	
738.58	6357.6	
738.76	5088.5	
738.94	4210.6	
739.12	6111.8	
739.3	5978	
739.48	5534.3	
739.66	5255.8	
739.84	6282.5	
740.02	6274.3	
740.2	4227.7	
740.38	4540.3	
740.56	6568.5	
740.74	5588.2	
740.92	5117.2	
741.1	4958.1	
741.28	6067.4	
741.46	5911.1	
741.64	4685.1	
741.82	5117.9	
742	6083.8	
742.18	6085.9	
742.36	4833.9	
742.54	4552	
742.72	6555.5	
742.9	5533.6	
743.08	5231.2	
743.26	4141	
743.44	6604.7	
743.62	6546	
743.8	5233.9	
743.98	4438.6	
744.16	6298.2	
744.34	5989.6	
744.52	5178.6	
744.7	5132.9	
744.88	6378.1	
745.06	5940.5	
745.24	5197.7	
745.42	5218.9	
745.6	6526.2	
745.78	6268.1	
745.96	4199.7	
746.14	4436.6	
746.32	7077.8	
746.5	6397.2	
746.68	4866	
746.86	4373.8	
747.03	6666.1	
747.21	5357.5	
747.39	4853	
747.57	4433.2	
747.75	6066.8	
747.93	6371.2	
748.11	4367	
748.29	4315.8	
748.47	7352.2	
748.65	5812.1	
748.83	4930.8	
749.01	4754.7	
749.19	6234.7	
749.37	5442.8	
749.55	4633.2	
749.73	4685.1	
749.91	5937.7	
750.09	5714.5	
750.26	4721.9	
750.44	4246.1	
750.62	5945.9	
750.8	5887.9	
750.98	4067.3	
751.16	4381.3	
751.34	6027.2	
751.52	5440.1	
751.7	5087.8	
751.88	4070	
752.06	6389.7	
752.24	6199.2	
752.42	4047.5	
752.59	4340.3	
752.77	5851.7	
752.95	6847	
753.13	4956.8	
753.31	4437.9	
753.49	5567.1	
753.67	5902.2	
753.85	4642.7	
754.03	4285	
754.21	6151.4	
754.38	6431.3	
754.56	4412	
754.74	3620.8	
754.92	5463.3	
755.1	6090.7	
755.28	3581.2	
755.46	3663.8	
755.64	6749.4	
755.82	6827.2	
755.99	3909.6	
756.17	3988.8	
756.35	4677.6	
756.53	5982.1	
756.71	3063.8	
756.89	3768.9	
757.07	5579.3	
757.25	4860.5	
757.42	4261.1	
757.6	4919.9	
757.78	5649	
757.96	4855.7	
758.14	3962.8	
758.32	3546.4	
758.5	4414.7	
758.67	5201.8	
758.85	3799	
759.03	3870	
759.21	5359.5	
759.39	4835.9	
759.57	3491.1	
759.75	4405.2	
759.92	5825.8	
760.1	5327.4	
760.28	4766.3	
760.46	4947.9	
760.64	5150.6	
760.82	4893.3	
760.99	4404.5	
761.17	3933.5	
761.35	5731.6	
761.53	4859.1	
761.71	3992.9	
761.89	4560.1	
762.06	5640.8	
762.24	5246.2	
762.42	4074.1	
762.6	3913	
762.78	5222.3	
762.96	5777.3	
763.13	4468.7	
763.31	4113	
763.49	5868.8	
763.67	5232.6	
763.85	4808.6	
764.02	5268.1	
764.2	6144.6	
764.38	5375.2	
764.56	4014	
764.74	4732.9	
764.91	6217.6	
765.09	5248.9	
765.27	3741.6	
765.45	3533.4	
765.63	6314.6	
765.8	6134.3	
765.98	3429.7	
766.16	3676.8	
766.34	4944.5	
766.52	4757.4	
766.69	4442	
766.87	3482.9	
767.05	5311.1	
767.23	5878.4	
767.41	3745.1	
767.58	3945.8	
767.76	5748	
767.94	5792.3	
768.12	3880.2	
768.29	4375.8	
768.47	5291.3	
768.65	5941.2	
768.83	3533.4	
769	4496	
769.18	4915.8	
769.36	5552	
769.54	4474.8	
769.72	3534.8	
769.89	5853.1	
770.07	5804.6	
770.25	3803.1	
770.43	4941.1	
770.6	6444.3	
770.78	6771.3	
770.96	3964.9	
771.14	4543.1	
771.31	5707.7	
771.49	5236.7	
771.67	3230.3	
771.85	3596.2	
772.02	4513.7	
772.2	5151.3	
772.38	4175.8	
772.55	3693.2	
772.73	5445.5	
772.91	5169.8	
773.09	4018.8	
773.26	4033.1	
773.44	5350	
773.62	5107.6	
773.8	3602.4	
773.97	3395.5	
774.15	5377.3	
774.33	5107	
774.5	3519.1	
774.68	3815.4	
774.86	5481.7	
775.04	5104.9	
775.21	3592.1	
775.39	3594.9	
775.57	5319.9	
775.74	5573.9	
775.92	3431.7	
776.1	3414	
776.27	5236	
776.45	6350.1	
776.63	3592.8	
776.81	3227.6	
776.98	5027.8	
777.16	5898.8	
777.34	3655.6	
777.51	3948.5	
777.69	5054.4	
777.87	4831.8	
778.04	3745.7	
778.22	4214	
778.4	4851.6	
778.57	5441.5	
778.75	3076.7	
778.93	3362.1	
779.1	4661.2	
779.28	4573.8	
779.46	3155.2	
779.64	3528.7	
779.81	5519.3	
779.99	6242.9	
780.17	4198.3	
780.34	4262.5	
780.52	5078.3	
780.69	5227.1	
780.87	3870.7	
781.05	3498.6	
781.22	5128.8	
781.4	5222.3	
781.58	3558	
781.75	2861.7	
781.93	5085.1	
782.11	4590.9	
782.28	4343.7	
782.46	3516.4	
782.64	4498	
782.81	5312.4	
782.99	3626.3	
783.17	3573.7	
783.34	5187.5	
783.52	4533.5	
783.69	3706.8	
783.87	4431.8	
784.05	4724.7	
784.22	4684.4	
784.4	4442	
784.58	3880.9	
784.75	5438.7	
784.93	4673.5	
785.1	3539.6	
785.28	4068.6	
785.46	5224.4	
785.63	4608.6	
785.81	3562.8	
785.99	3444	
786.16	4808.6	
786.34	5100.1	
786.51	3449.5	
786.69	3719.1	
786.87	4415.4	
787.04	4902.2	
787.22	3389.4	
787.39	4100.7	
787.57	4657.1	
787.75	5607.3	
787.92	4285.7	
788.1	4217.5	
788.27	4660.5	
788.45	4470	
788.63	4012	
788.8	2938.8	
788.98	5119.2	
789.15	4337.6	
789.33	3021.4	
789.5	3551.9	
789.68	5403.9	
789.86	5492	
790.03	3955.3	
790.21	3424.9	
790.38	5446.9	
790.56	4747.9	
790.73	3324.5	
790.91	3379.1	
791.09	4666	
791.26	5272.2	
791.44	3553.9	
791.61	3041.2	
791.79	4698.7	
791.96	4728.8	
792.14	3172.3	
792.32	2843.9	
792.49	4633.9	
792.67	4743.1	
792.84	3308.2	
793.02	3041.2	
793.19	5076.2	
793.37	5637.4	
793.54	2913.6	
793.72	3138.9	
793.89	5664.7	
794.07	4727.4	
794.25	3577.8	
794.42	2937.5	
794.6	5510.4	
794.77	5188.2	
794.95	3865.9	
795.12	3452.9	
795.3	4711	
795.47	5157.5	
795.65	3744.4	
795.82	3598.3	
796	4513.7	
796.17	6048.3	
796.35	3495.9	
796.52	4048.8	
796.7	5088.5	
796.87	5175.9	
797.05	3450.8	
797.22	4220.2	
797.4	5220.3	
797.57	6069.5	
797.75	3644.7	
797.92	3405.1	
798.1	5410.1	
798.27	4573.1	
798.45	2994.8	
798.62	3199.6	
798.8	4892.6	
798.97	5324	
799.15	3811.3	
799.32	3640.6	
799.5	4296	
799.67	4963.6	
799.85	3926.6	
800.02	2878.1	
800.2	4562.9	
800.37	4899.4	
800.55	4012	
800.72	3403	
800.9	5307.7	
801.07	5614.2	
801.25	4485.7	
801.42	3741.6	
801.6	5300.1	
801.77	5032.5	
801.95	3487	
802.12	3283.6	
802.29	5107	
802.47	5019.6	
802.64	3691.1	
802.82	2820.7	
802.99	4640	
803.17	5433.9	
803.34	3602.4	
803.52	3247.4	
803.69	6021.7	
803.87	4419.5	
804.04	3610.6	
804.21	3667.2	
804.39	5581.4	
804.56	4767.7	
804.74	3145.7	
804.91	3760.1	
805.09	4650.3	
805.26	4704.2	
805.44	3078.1	
805.61	3434.4	
805.78	5203.2	
805.96	5156.8	
806.13	3674.1	
806.31	3937.6	
806.48	4298.7	
806.66	4700.8	
806.83	3685.7	
807	3667.9	
807.18	4640	
807.35	4968.4	
807.53	3615.3	
807.7	2921.1	
807.87	5615.5	
808.05	4696	
808.22	3959.4	
808.4	2960.7	
808.57	4611.3	
808.74	4373.1	
808.92	3290.4	
809.09	4219.5	
809.27	4601.8	
809.44	5105.6	
809.61	2963.4	
809.79	3268.6	
809.96	5679	
810.14	5212.8	
810.31	2916.3	
810.48	3475.4	
810.66	4766.3	
810.83	5275.6	
811.01	3348.4	
811.18	3723.9	
811.35	5292	
811.53	4117.1	
811.7	4009.2	
811.87	3692.5	
812.05	4715.8	
812.22	4615.4	
812.39	3227.6	
812.57	3112.2	
812.74	4758.1	
812.92	6048.3	
813.09	3513.6	
813.26	3734.8	
813.44	5928.2	
813.61	4616.1	
813.78	2964.1	
813.96	3885.7	
814.13	4657.1	
814.3	4389.5	
814.48	4123.9	
814.65	3465.2	
814.82	5643.5	
815	4463.9	
815.17	3568.9	
815.34	4331.5	
815.52	4611.3	
815.69	4569	
815.87	3523.9	
816.04	3467.2	
816.21	4620.2	
816.38	4216.1	
816.56	3483.6	
816.73	3230.3	
816.9	5852.4	
817.08	5261.9	
817.25	3263.1	
817.42	4029.7	
817.6	4336.2	
817.77	4676.2	
817.94	3639.2	
818.12	3199.6	
818.29	4491.2	
818.46	6752.2	
818.64	3349.1	
818.81	3172.3	
818.98	4402.5	
819.16	6202.6	
819.33	3816.7	
819.5	3579.8	
819.67	4956.1	
819.85	5511.1	
820.02	3463.8	
820.19	3678.2	
820.37	4870.8	
820.54	4602.5	
820.71	3642	
820.88	4461.2	
821.06	4902.2	
821.23	4448.2	
821.4	3706.1	
821.58	3605.8	
821.75	5269.4	
821.92	4827.1	
822.09	2985.3	
822.27	3196.9	
822.44	4646.2	
822.61	4554	
822.79	2970.9	
822.96	5560.9	
823.13	5052.3	
823.3	4465.9	
823.48	3414	
823.65	3117.7	
823.82	5270.1	
823.99	4288.4	
824.17	4319.8	
824.34	3112.9	
824.51	6040.1	
824.68	4722.6	
824.86	3269.9	
825.03	3542.3	
825.2	4715.8	
825.37	5573.2	
825.55	3245.3	
825.72	3569.6	
825.89	6005.3	
826.06	5613.5	
826.24	3482.2	
826.41	3469.9	
826.58	5582.1	
826.75	4911.7	
826.92	2807.8	
827.1	3102	
827.27	7452.6	
827.44	5999.2	
827.61	3332.7	
827.79	3956	
827.96	4514.4	
828.13	4706.9	
828.3	3487	
828.47	2992.8	
828.65	4986.1	
828.82	4870.1	
828.99	4364.2	
829.16	3875.4	
829.34	5221.6	
829.51	5032.5	
829.68	3560.7	
829.85	3702.7	
830.02	5512.4	
830.2	5230.5	
830.37	2824.1	
830.54	4291.9	
830.71	5866.7	
830.88	4659.1	
831.05	2855.6	
831.23	3265.8	
831.4	5665.4	
831.57	6200.6	
831.74	3287	
831.91	2893.8	
832.09	4928.8	
832.26	5281.7	
832.43	3429	
832.6	3869.3	
832.77	4939.7	
832.94	5570.5	
833.12	2745.6	
833.29	3326.6	
833.46	4607.9	
833.63	6440.2	
833.8	3764.8	
833.97	3482.9	
834.15	5270.1	
834.32	5058.5	
834.49	3548.4	
834.66	3661.8	
834.83	5308.3	
835	4468.7	
835.17	3303.4	
835.35	3325.9	
835.52	5124.7	
835.69	5005.2	
835.86	3478.1	
836.03	2896.5	
836.2	5178.6	
836.37	4857.1	
836.55	3400.3	
836.72	3240.6	
836.89	4837.3	
837.06	5276.3	
837.23	3509.5	
837.4	3762.8	
837.57	5917.3	
837.75	6423.1	
837.92	3179.1	
838.09	3332.7	
838.26	4876.9	
838.43	5463.3	
838.6	3573.7	
838.77	3205.1	
838.94	6089.3	
839.11	5928.9	
839.29	3490.4	
839.46	2756.6	
839.63	5223.7	
839.8	4933.6	
839.97	3351.8	
840.14	3312.9	
840.31	5036	
840.48	5218.2	
840.65	2798.2	
840.82	3269.9	
841	5177.3	
841.17	5147.9	
841.34	3090.4	
841.51	3134.8	
841.68	5147.2	
841.85	4960.2	
842.02	3150.5	
842.19	2636.4	
842.36	5012.1	
842.53	4975.2	
842.7	2925.9	
842.87	3693.9	
843.05	6392.4	
843.22	4880.3	
843.39	2910.2	
843.56	3216	
843.73	4790.9	
843.9	5301.5	
844.07	4746.5	
844.24	4116.4	
844.41	7238.2	
844.58	4568.3	
844.75	3043.3	
844.92	3272.7	
845.09	5206.6	
845.26	5178.6	
845.43	3104.7	
845.6	3274	
845.77	5257.1	
845.94	4986.1	
846.12	3364.1	
846.29	3549.8	
846.46	5387.5	
846.63	5232.6	
846.8	3037.8	
846.97	3605.8	
847.14	5627.8	
847.31	5159.5	
847.48	3406.5	
847.65	3777.1	
847.82	5386.8	
847.99	5358.2	
848.16	4029	
848.33	3670.6	
848.5	4784.7	
848.67	5563	
848.84	3002.3	
849.01	3191.4	
849.18	4727.4	
849.35	4476.9	
849.52	3817.4	
849.69	2994.8	
849.86	5399.1	
850.03	5459.2	
850.2	3074.7	
850.37	3663.8	
850.54	5425.8	
850.71	4931.5	
850.88	3670.6	
851.05	3009.1	
851.22	5085.8	
851.39	5720	
851.56	2890.4	
851.73	3483.6	
851.9	4554.7	
852.07	5347.9	
852.24	3406.5	
852.41	3067.9	
852.58	5076.9	
852.75	4718.5	
852.92	3340.2	
853.09	2977.1	
853.26	4852.3	
853.43	5512.4	
853.6	3065.1	
853.77	2660.3	
853.94	5649	
854.11	5070.1	
854.28	4447.5	
854.44	3376.4	
854.61	5996.5	
854.78	5464	
854.95	3054.2	
855.12	3812.6	
855.29	4238.6	
855.46	5811.5	
855.63	3028.3	
855.8	4144.4	
855.97	4820.9	
856.14	5506.3	
856.31	4277.5	
856.48	3379.1	
856.65	4881	
856.82	4530.8	
856.99	2979.8	
857.16	3313.6	
857.33	6184.2	
857.49	4874.8	
857.66	3272	
857.83	3474.7	
858	4872.1	
858.17	5076.2	
858.34	2893.8	
858.51	3052.8	
858.68	5696.1	
858.85	5770.5	
859.02	3515	
859.19	3730	
859.36	4647.5	
859.52	4622.3	
859.69	3028.3	
859.86	3565.5	
860.03	4657.1	
860.2	5685.8	
860.37	2793.4	
860.54	3097.9	
860.71	5350	
860.88	5721.3	
861.05	3410.6	
861.21	3790.8	
861.38	5732.3	
861.55	4485.1	
861.72	2796.2	
861.89	3389.4	
862.06	5438.7	
862.23	5795.1	
862.4	2955.9	
862.56	3147	
862.73	5263.3	
862.9	4991.6	
863.07	3536.2	
863.24	2837.8	
863.41	4501.4	
863.58	4684.4	
863.75	3138.9	
863.91	3554.6	
864.08	5617.6	
864.25	5327.4	
864.42	3792.2	
864.59	4137.6	
864.76	5934.3	
864.93	4583.4	
865.09	2953.2	
865.26	3266.5	
865.43	5550.7	
865.6	5915.2	
865.77	2725.2	
865.94	3060.3	
866.1	5580.7	
866.27	5365	
866.44	4535.6	
866.61	2852.1	
866.78	4906.9	
866.95	5269.4	
867.11	2936.1	
867.28	2731.3	
867.45	5442.1	
867.62	4655	
867.79	3488.4	
867.96	3001	
868.12	4598.4	
868.29	5378.6	
868.46	2657.6	
868.63	3986	
868.8	5481.7	
868.97	5276.9	
869.13	3155.2	
869.3	3168.2	
869.47	5261.2	
869.64	5487.9	
869.81	3034.4	
869.97	3082.9	
870.14	5166.3	
870.31	5739.8	
870.48	3018	
870.65	3790.1	
870.81	4894	
870.98	4943.1	
871.15	3418.1	
871.32	3203	
871.48	5182	
871.65	5810.8	
871.82	3035.1	
871.99	3312.2	
872.16	6125.5	
872.32	5571.8	
872.49	3132.7	
872.66	3082.2	
872.83	5300.8	
872.99	4812	
873.16	3490.4	
873.33	3079.5	
873.5	4999.8	
873.67	5130.8	
873.83	3149.1	
874	3992.2	
874.17	5191.6	
874.34	6018.3	
874.5	3927.3	
874.67	3755.3	
874.84	5710.4	
875.01	4549.9	
875.17	4237.2	
875.34	3033	
875.51	5107.6	
875.68	6036	
875.84	3665.2	
876.01	4399	
876.18	5344.5	
876.34	5267.4	
876.51	3033.7	
876.68	2994.1	
876.85	4878.3	
877.01	5571.2	
877.18	4269.3	
877.35	3001	
877.52	5040.7	
877.68	4512.4	
877.85	2970.2	
878.02	3021.4	
878.18	4923.3	
878.35	4734.2	
878.52	2446	
878.69	3368.9	
878.85	5438	
879.02	5316.5	
879.19	4283.7	
879.35	3300.6	
879.52	5352.7	
879.69	5486.5	
879.86	2667.1	
880.02	3383.2	
880.19	4957.4	
880.36	5967.8	
880.52	3446.7	
880.69	3635.1	
880.86	5453.7	
881.02	5440.8	
881.19	3341.6	
881.36	3307.5	
881.52	5335	
881.69	4711.7	
881.86	3280.2	
882.02	3224.9	
882.19	5569.1	
882.36	6392.4	
882.52	3159.3	
882.69	4237.2	
882.86	5184.1	
883.02	5126.7	
883.19	3659	
883.36	3445.4	
883.52	5401.2	
883.69	6133	
883.86	3099.9	
884.02	2796.2	
884.19	5420.3	
884.36	5066	
884.52	3456.3	
884.69	3268.6	
884.86	4778.6	
885.02	5920	
885.19	3379.1	
885.36	3510.9	
885.52	4992.3	
885.69	5143.8	
885.86	4335.5	
886.02	3925.3	
886.19	5408	
886.35	4746.5	
886.52	3345	
886.69	4182	
886.85	4649.6	
887.02	5681.7	
887.19	5681.7	
887.35	5681.7	
887.52	5681.7	
887.68	5681.7	
887.85	5681.7	
888.02	5681.7	
888.18	5681.7	
888.35	5681.7	
888.51	5681.7	
888.68	5681.7	
888.85	5681.7	
889.01	5681.7	
889.18	5681.7	
889.35	5681.7	
889.51	5681.7	
889.68	5681.7	
889.84	5681.7	
890.01	5681.7	
890.17	5681.7	
890.34	5681.7	
890.51	5681.7	
890.67	5681.7	
890.84	5681.7	
891	5681.7	
891.17	5681.7	
891.34	5681.7	
891.5	5681.7	
891.67	5681.7	
891.83	5681.7	
892	5681.7	
892.16	5681.7	
892.33	5681.7	
892.5	5681.7	
892.66	5681.7	
892.83	5681.7	
892.99	5681.7	
893.16	5681.7	
893.32	5681.7	
893.49	5681.7	
893.65	5681.7	
893.82	5681.7	
893.99	5681.7	
894.15	5681.7	
894.32	5681.7	
894.48	5681.7	
894.65	5681.7	
894.81	5681.7	
894.98	5681.7	
895.14	5681.7	
895.31	5681.7	
895.47	5681.7	
895.64	5681.7	
895.81	5681.7	
895.97	5681.7	
896.14	5681.7	
896.3	5681.7	
896.47	5681.7	
896.63	5681.7	
896.8	5681.7	
896.96	5681.7	
897.13	5681.7	
897.29	5681.7	
897.46	5681.7	
897.62	5681.7	
897.79	5681.7	
897.95	5681.7	
898.12	5681.7	
898.28	5681.7	
898.45	5681.7	
898.61	5681.7	
898.78	5681.7	
898.94	5681.7	
899.11	5681.7	
899.27	5681.7	
899.44	5681.7	
899.6	5681.7	
899.77	5681.7	
899.93	5681.7	
900.1	5681.7	
900.26	5681.7	
900.43	5681.7	
900.59	5681.7	
900.76	5681.7	
900.92	5681.7	
901.09	5681.7	
901.25	5681.7	
901.42	5681.7	
901.58	5681.7	
901.75	5681.7	
901.91	5681.7	
902.07	5681.7	
902.24	5681.7	
902.4	5681.7	
902.57	5681.7	
902.73	5681.7	
902.9	5681.7	
903.06	5681.7	
903.23	5681.7	
903.39	5681.7	
903.56	5681.7	
903.72	5681.7	
903.88	5681.7	
904.05	5681.7	
904.21	5681.7	
904.38	5681.7	
904.54	5681.7	
904.71	5681.7	
904.87	5681.7	
905.03	5681.7	
905.2	5681.7	
905.36	5681.7	
905.53	5681.7	
905.69	5681.7	
905.86	5681.7	
906.02	5681.7	
906.18	5681.7	
906.35	5681.7	
906.51	5681.7	
906.68	5681.7	
906.84	5681.7	
907.01	5681.7	
907.17	5681.7	
907.33	5681.7	
907.5	5681.7	
907.66	5681.7	
907.83	5681.7	
907.99	5681.7	
908.15	5681.7	
908.32	5681.7	
908.48	5681.7	
908.65	5681.7	
908.81	5681.7	
908.97	5681.7	
909.14	5681.7	
909.3	5681.7	
909.47	5681.7	
909.63	5681.7	
909.79	5681.7	
909.96	5681.7	
910.12	5681.7	
910.28	5681.7	
910.45	5681.7	
910.61	5681.7	
910.78	5681.7	
910.94	5681.7	
911.1	5681.7	
911.27	5681.7	
911.43	5681.7	
911.59	5681.7	
911.76	5681.7	
911.92	5681.7	
912.08	5681.7	
912.25	5681.7	
912.41	5681.7	
912.57	5681.7	
912.74	5681.7	
912.9	5681.7	
913.07	5681.7	
913.23	5681.7	
913.39	5681.7	
913.56	5681.7	
913.72	5681.7	
913.88	5681.7	
914.05	5681.7	
914.21	5681.7	
914.37	5681.7	
914.54	5681.7	
914.7	5681.7	
914.86	5681.7	
915.03	5681.7	
915.19	5681.7	
