Wavelength	Intensities	
nm	a.u.	
179.22	1895.6	
179.44	1886.5	
179.65	1904.6	
179.86	1868.4	
180.08	1897.1	
180.29	4775.2	
180.51	3414.6	
180.72	5544.5	
180.94	6456.6	
181.15	3201	
181.37	3106.1	
181.58	5356.8	
181.79	5729.5	
182.01	3275.4	
182.22	3566.9	
182.44	5681.7	
182.65	4746.5	
182.87	4453.6	
183.08	3887	
183.29	5998.5	
183.51	4864.6	
183.72	3549.8	
183.94	5154.7	
184.15	5306.3	
184.37	5348.6	
184.58	3143.6	
184.79	4265.9	
185.01	4922.6	
185.22	5608.7	
185.44	4525.3	
185.65	3813.3	
185.86	5198.4	
186.08	4761.5	
186.29	3045.3	
186.51	3302	
186.72	5001.1	
186.94	5757.5	
187.15	3824.2	
187.36	3918.4	
187.58	7612.3	
187.79	5386.8	
188.01	4089.1	
188.22	6315.3	
188.43	6451.8	
188.65	5651.7	
188.86	3289	
189.08	3985.3	
189.29	5118.6	
189.5	5087.8	
189.72	3660.4	
189.93	3733.4	
190.15	5894.7	
190.36	6940.6	
190.57	3977.8	
190.79	3831.7	
191	5921.4	
191.22	5816.9	
191.43	3977.8	
191.64	3251.5	
191.86	6035.4	
192.07	5868.8	
192.29	3350.5	
192.5	3627	
192.71	5834.7	
192.93	5032.5	
193.14	3603.1	
193.35	3687.7	
193.57	5089.9	
193.78	5917.9	
194	2949.1	
194.21	3546.4	
194.42	4876.9	
194.64	5302.2	
194.85	3922.5	
195.07	4593.6	
195.28	5359.5	
195.49	4607.9	
195.71	4742.4	
195.92	3410.6	
196.13	5496.7	
196.35	5636	
196.56	5141.1	
196.78	3872.7	
196.99	6908.5	
197.2	6462	
197.42	4535.6	
197.63	3945.8	
197.84	4803.2	
198.06	5444.2	
198.27	3606.5	
198.48	4841.4	
198.7	5102.9	
198.91	5226.4	
199.13	3924.6	
199.34	4022.9	
199.55	5705	
199.77	4600.4	
199.98	3525.2	
200.19	3996.3	
200.41	5246.2	
200.62	4983.4	
200.83	4059.1	
201.05	4411.3	
201.26	5216.9	
201.47	4997.7	
201.69	3512.3	
201.9	3362.8	
202.11	5249.6	
202.33	6240.8	
202.54	3762.1	
202.76	4197	
202.97	5475.6	
203.18	5442.8	
203.4	4100.7	
203.61	3987.4	
203.82	5374.6	
204.04	5010	
204.25	3956	
204.46	3871.3	
204.68	5311.1	
204.89	5569.8	
205.1	3900	
205.32	3372.3	
205.53	5679.7	
205.74	5830.6	
205.96	2896.5	
206.17	4063.9	
206.38	5704.3	
206.6	5858.6	
206.81	4491.9	
207.02	3651.5	
207.24	5562.3	
207.45	5898.2	
207.66	3792.8	
207.88	3245.3	
208.09	5519.3	
208.3	5311.1	
208.52	3414.6	
208.73	3827.7	
208.94	5296.7	
209.15	5958.9	
209.37	3705.5	
209.58	3932.1	
209.79	5840.1	
210.01	5158.2	
210.22	2991.4	
210.43	3129.3	
210.65	5307	
210.86	5698.8	
211.07	3731.4	
211.29	3426.9	
211.5	5681.1	
211.71	5261.2	
211.93	3433.1	
212.14	3463.8	
212.35	5283.1	
212.56	5556.8	
212.78	3982.6	
212.99	3251.5	
213.2	6212.9	
213.42	5113.1	
213.63	3593.5	
213.84	3855	
214.06	4711.7	
214.27	4825	
214.48	3686.3	
214.69	4019.5	
214.91	5982.1	
215.12	5980.1	
215.33	4082.3	
215.55	4481.6	
215.76	6518.7	
215.97	5636.7	
216.18	3887	
216.4	3824.2	
216.61	4975.2	
216.82	5786.2	
217.04	3475.4	
217.25	3651.5	
217.46	5948	
217.67	5729.5	
217.89	3136.8	
218.1	3257	
218.31	5392.3	
218.53	5459.2	
218.74	3621.5	
218.95	3523.9	
219.16	5289.9	
219.38	6201.9	
219.59	3533.4	
219.8	4243.4	
220.01	6878.4	
220.23	5373.2	
220.44	4676.2	
220.65	3489.7	
220.87	5401.9	
221.08	5922.7	
221.29	3190.7	
221.5	4283	
221.72	7320.8	
221.93	5057.8	
222.14	3966.9	
222.35	4630.5	
222.57	5349.3	
222.78	5625.1	
222.99	3786	
223.2	4073.4	
223.42	5640.1	
223.63	5756.2	
223.84	2926.5	
224.05	2887	
224.27	6716	
224.48	6229.2	
224.69	4669.4	
224.9	3966.9	
225.12	5534.3	
225.33	5270.8	
225.54	3191.4	
225.75	3571	
225.97	4872.8	
226.18	5227.8	
226.39	3879.5	
226.6	3528.7	
226.82	5087.8	
227.03	4919.2	
227.24	3965.6	
227.45	3258.3	
227.67	5649	
227.88	6231.3	
228.09	4435.9	
228.3	4381.3	
228.52	5707.7	
228.73	5361.6	
228.94	3724.6	
229.15	3285.6	
229.36	5180	
229.58	5188.9	
229.79	3778.5	
230	4354.7	
230.21	6311.8	
230.43	5481.7	
230.64	3945.1	
230.85	4074.1	
231.06	5696.8	
231.28	5713.8	
231.49	3300.6	
231.7	3868.6	
231.91	5677.7	
232.12	5303.6	
232.34	3330	
232.55	3837.9	
232.76	5937.1	
232.97	5528.2	
233.18	3474	
233.4	3910.3	
233.61	5515.2	
233.82	5061.2	
234.03	3636.5	
234.25	3605.1	
234.46	7393.8	
234.67	5355.4	
234.88	4097.3	
235.09	3521.1	
235.31	5640.1	
235.52	5206.6	
235.73	3952.6	
235.94	3315.7	
236.15	4990.2	
236.37	6455.9	
236.58	3463.1	
236.79	3790.8	
237	5618.9	
237.21	4863.2	
237.43	4108.9	
237.64	3147.7	
237.85	9579.7	
238.06	4923.3	
238.27	4131.4	
238.48	3328.6	
238.7	5665.4	
238.91	5214.8	
239.12	3770.3	
239.33	3790.1	
239.54	4954.7	
239.76	5194.3	
239.97	3734.1	
240.18	3751.2	
240.39	6630.6	
240.6	5596.4	
240.82	3990.1	
241.03	3223.5	
241.24	5327.4	
241.45	6174.6	
241.66	3446.7	
241.87	4047.5	
242.09	6049.7	
242.3	6408.1	
242.51	4080.9	
242.72	3807.2	
242.93	5750	
243.14	5251	
243.36	4387.4	
243.57	4742.4	
243.78	6107	
243.99	5680.4	
244.2	3814.7	
244.41	3497.9	
244.63	4884.4	
244.84	5612.1	
245.05	4123.9	
245.26	3793.5	
245.47	5633.3	
245.68	5844.9	
245.9	4999.8	
246.11	3971.7	
246.32	5128.8	
246.53	5528.8	
246.74	6192.4	
246.95	3169.6	
247.16	4812	
247.38	5333.6	
247.59	3176.4	
247.8	3810.6	
248.01	5001.8	
248.22	5258.5	
248.43	3450.1	
248.64	3681.6	
248.86	4743.1	
249.07	5132.2	
249.28	3380.5	
249.49	3877.5	
249.7	5883.1	
249.91	5978	
250.12	3160	
250.34	3242.6	
250.55	5435.3	
250.76	5328.1	
250.97	3926.6	
251.18	4033.1	
251.39	6033.3	
251.6	5455.1	
251.81	4018.1	
252.03	3945.8	
252.24	5073.5	
252.45	5834	
252.66	3305.4	
252.87	4220.2	
253.08	5311.1	
253.29	6961.7	
253.5	3353.2	
253.72	4612.7	
253.93	5136.3	
254.14	6311.2	
254.35	3581.2	
254.56	3701.4	
254.77	5554.8	
254.98	4887.1	
255.19	3552.5	
255.41	4569	
255.62	5403.2	
255.83	6003.3	
256.04	4093.2	
256.25	3972.4	
256.46	6553.5	
256.67	5045.5	
256.88	3894.6	
257.09	4398.4	
257.31	4947.2	
257.52	5094.7	
257.73	4948.6	
257.94	3572.3	
258.15	5160.9	
258.36	5333.6	
258.57	4547.2	
258.78	2910.8	
258.99	5838.8	
259.2	5152.7	
259.41	3676.1	
259.63	3728.7	
259.84	6126.2	
260.05	6571.9	
260.26	4775.9	
260.47	3543	
260.68	5857.9	
260.89	5210	
261.1	4400.4	
261.31	3476.1	
261.52	5841.5	
261.73	6311.2	
261.95	4655	
262.16	4115.7	
262.37	6059.3	
262.58	6109.8	
262.79	4635.9	
263	3694.5	
263.21	5337	
263.42	5210	
263.63	3737.5	
263.84	3734.8	
264.05	5863.3	
264.26	6186.2	
264.47	4526.7	
264.69	4106.2	
264.9	5920	
265.11	5511.8	
265.32	3520.5	
265.53	3566.2	
265.74	5417.6	
265.95	4711	
266.16	3822.9	
266.37	4301.4	
266.58	5382.7	
266.79	5150	
267	3573.7	
267.21	3336.1	
267.42	4885.1	
267.63	5293.3	
267.84	3764.2	
268.06	3291.1	
268.27	5704.3	
268.48	6089.3	
268.69	3682.9	
268.9	4386.7	
269.11	5981.4	
269.32	4824.3	
269.53	3810.6	
269.74	3508.2	
269.95	5614.2	
270.16	4686.4	
270.37	3822.2	
270.58	4377.9	
270.79	5146.5	
271	5815.5	
271.21	4135.5	
271.42	3794.9	
271.63	5454.4	
271.84	4938.3	
272.05	3037.1	
272.26	3422.8	
272.47	5354.8	
272.68	5547.9	
272.89	3588.7	
273.11	4254.3	
273.32	5182.7	
273.53	6179.4	
273.74	4113	
273.95	4057.7	
274.16	5930.2	
274.37	5407.3	
274.58	4096.6	
274.79	3296.5	
275	5410.1	
275.21	6016.2	
275.42	4961.5	
275.63	4265.2	
275.84	5552	
276.05	6987.7	
276.26	4044.1	
276.47	3737.5	
276.68	5213.4	
276.89	6315.9	
277.1	4315.8	
277.31	3377.8	
277.52	5633.3	
277.73	5793.7	
277.94	3343.7	
278.15	3708.9	
278.36	5563	
278.57	4976.6	
278.78	3605.8	
278.99	4153.3	
279.2	4997.7	
279.41	4915.8	
279.62	4799.1	
279.83	3371	
280.04	6513.2	
280.25	4943.8	
280.46	4769	
280.67	3805.1	
280.88	4939	
281.09	5992.4	
281.3	4016.7	
281.51	5030.5	
281.72	5048.2	
281.93	5825.1	
282.14	3551.2	
282.35	3801	
282.56	5812.1	
282.77	5791.7	
282.98	3689.1	
283.19	4486.4	
283.4	7124.2	
283.61	5312.4	
283.82	3415.3	
284.03	4695.3	
284.24	5459.2	
284.45	5953.4	
284.66	4704.2	
284.87	4550.6	
285.08	5857.2	
285.29	6003.3	
285.5	3248.1	
285.71	3768.9	
285.92	5956.2	
286.12	6542.6	
286.33	4659.8	
286.54	3688.4	
286.75	5836	
286.96	5158.8	
287.17	3398.9	
287.38	4616.8	
287.59	5006.6	
287.8	4848.9	
288.01	3723.9	
288.22	4256.4	
288.43	5838.1	
288.64	4878.9	
288.85	4437.3	
289.06	4192.9	
289.27	5787.6	
289.48	6246.3	
289.69	4735.6	
289.9	4263.2	
290.11	5978	
290.32	5081.7	
290.53	4436.6	
290.74	4170.3	
290.94	5773.9	
291.15	5819	
291.36	3645.4	
291.57	4225	
291.78	5096	
291.99	4732.9	
292.2	3396.9	
292.41	4108.9	
292.62	5849.7	
292.83	5640.8	
293.04	5050.3	
293.25	3411.9	
293.46	5150.6	
293.67	5929.6	
293.88	3580.5	
294.09	3445.4	
294.29	4870.8	
294.5	5459.2	
294.71	3803.1	
294.92	3628.3	
295.13	5117.9	
295.34	6463.4	
295.55	3226.2	
295.76	3337.5	
295.97	5739.1	
296.18	6512.5	
296.39	3403.7	
296.6	3579.2	
296.81	5371.8	
297.01	5713.8	
297.22	3710.9	
297.43	3530	
297.64	5010	
297.85	4963.6	
298.06	2945	
298.27	3196.2	
298.48	5431.2	
298.69	5028.4	
298.9	3802.4	
299.11	3499.3	
299.31	4843.4	
299.52	4826.4	
299.73	4142.4	
299.94	4040.6	
300.15	5373.2	
300.36	4959.5	
300.57	4038.6	
300.78	4038.6	
300.99	5228.5	
301.2	5410.1	
301.4	3536.8	
301.61	3888.4	
301.82	5646.2	
302.03	5742.5	
302.24	4306.2	
302.45	3404.4	
302.66	5591	
302.87	6022.4	
303.08	3584.6	
303.29	4843.4	
303.49	5071.5	
303.7	5384.1	
303.91	3188.7	
304.12	4694.6	
304.33	4848.2	
304.54	5507	
304.75	3603.1	
304.96	3420.8	
305.16	5716.6	
305.37	6390.3	
305.58	3080.8	
305.79	3244	
306	5668.1	
306.21	4770.4	
306.42	3571	
306.63	5388.9	
306.83	5245.5	
307.04	5887.9	
307.25	3949.2	
307.46	3917.8	
307.67	4591.5	
307.88	5738.4	
308.09	3502.7	
308.29	3674.1	
308.5	5470.1	
308.71	5905	
308.92	3860.4	
309.13	3454.9	
309.34	5131.5	
309.55	5304.9	
309.75	4419.5	
309.96	4007.2	
310.17	5752.1	
310.38	5045.5	
310.59	4285	
310.8	3336.1	
311.01	5084.4	
311.21	5191.6	
311.42	3393.5	
311.63	3512.9	
311.84	5124	
312.05	5440.1	
312.26	4004.5	
312.46	4321.9	
312.67	5159.5	
312.88	4880.3	
313.09	3452.2	
313.3	3341.6	
313.51	6038.8	
313.71	6464.8	
313.92	3442	
314.13	3656.3	
314.34	5518.6	
314.55	5320.6	
314.76	4416.1	
314.96	3887	
315.17	5436	
315.38	5702.9	
315.59	3466.5	
315.8	3334.1	
316.01	6214.2	
316.21	6231.3	
316.42	3319.1	
316.63	3822.2	
316.84	5178.6	
317.05	5974.6	
317.26	4040	
317.46	3634.5	
317.67	5322	
317.88	5713.8	
318.09	4351.9	
318.3	3206.4	
318.5	5118.6	
318.71	5700.9	
318.92	5628.5	
319.13	4045.4	
319.34	5829.2	
319.54	5980.8	
319.75	3242.6	
319.96	3108.1	
320.17	5696.8	
320.38	5854.5	
320.58	3175	
320.79	3797.6	
321	5904.3	
321.21	5995.1	
321.42	3787.4	
321.62	3153.9	
321.83	4954.7	
322.04	5369.8	
322.25	3649.5	
322.46	3463.8	
322.66	5483.8	
322.87	5678.3	
323.08	4284.4	
323.29	3358.7	
323.5	6341.2	
323.7	4912.4	
323.91	4689.8	
324.12	4199.7	
324.33	5367.7	
324.53	5624.4	
324.74	4033.1	
324.95	4294.6	
325.16	4719.2	
325.37	5113.1	
325.57	3463.1	
325.78	3558	
325.99	5421.7	
326.2	4878.9	
326.4	4874.8	
326.61	3192.1	
326.82	5307.7	
327.03	5479	
327.24	4934.2	
327.44	4597	
327.65	5598.5	
327.86	4543.8	
328.07	4082.3	
328.27	3344.3	
328.48	6020.3	
328.69	4982.7	
328.9	4963.6	
329.1	3706.1	
329.31	5252.4	
329.52	6158.9	
329.73	3488.4	
329.93	3907.5	
330.14	5318.6	
330.35	5580	
330.56	5683.1	
330.76	4301.4	
330.97	5118.6	
331.18	5523.4	
331.39	3814	
331.59	3135.4	
331.8	5901.6	
332.01	6049.7	
332.22	3526.6	
332.42	4095.3	
332.63	5496.1	
332.84	5069.4	
333.05	3852.9	
333.25	3466.5	
333.46	5118.6	
333.67	5316.5	
333.88	3612.6	
334.08	4058.4	
334.29	7959.1	
334.5	5972.6	
334.7	3405.8	
334.91	4928.8	
335.12	4884.4	
335.33	5772.5	
335.53	3836.5	
335.74	5646.9	
335.95	5117.9	
336.16	4990.2	
336.36	3857.7	
336.57	4423.6	
336.78	4817.5	
336.98	5943.2	
337.19	4743.1	
337.4	3795.6	
337.61	6414.9	
337.81	4874.2	
338.02	3525.2	
338.23	4588.1	
338.43	6052.4	
338.64	5022.3	
338.85	3506.8	
339.05	4601.8	
339.26	6197.8	
339.47	4741	
339.68	3462.4	
339.88	5100.1	
340.09	5601.2	
340.3	5846.3	
340.5	4093.2	
340.71	3115.6	
340.92	4795.7	
341.13	6041.5	
341.33	3416.7	
341.54	4119.1	
341.75	5562.3	
341.95	5257.8	
342.16	3883.6	
342.37	4208.6	
342.57	4924	
342.78	5287.2	
342.99	4286.4	
343.19	3075.4	
343.4	5718.6	
343.61	5593	
343.81	3700.7	
344.02	3435.1	
344.23	5760.3	
344.43	6089.3	
344.64	4281.6	
344.85	4190.8	
345.06	5539.8	
345.26	5902.9	
345.47	3956.7	
345.68	4634.6	
345.88	4717.2	
346.09	5814.9	
346.3	4070.7	
346.5	3090.4	
346.71	5322	
346.92	5096	
347.12	3139.5	
347.33	4017.4	
347.54	5936.4	
347.74	6296.8	
347.95	3943.7	
348.16	2957.9	
348.36	5147.2	
348.57	4964.3	
348.78	3946.4	
348.98	4275.5	
349.19	5218.2	
349.39	4877.6	
349.6	3186.6	
349.81	3523.9	
350.01	5553.4	
350.22	5027.1	
350.43	3849.5	
350.63	4612.7	
350.84	5362.9	
351.05	5162.2	
351.25	3478.8	
351.46	3198.2	
351.67	5849	
351.87	4992.9	
352.08	3743	
352.29	4261.8	
352.49	5741.8	
352.7	5465.3	
352.9	3393.5	
353.11	4173.8	
353.32	6384.9	
353.52	5173.2	
353.73	3381.2	
353.94	4241.3	
354.14	5607.3	
354.35	5464.7	
354.55	3444	
354.76	3796.3	
354.97	5608	
355.17	5344.5	
355.38	3255.6	
355.59	4532.8	
355.79	5035.3	
356	5454.4	
356.2	3757.3	
356.41	3375.1	
356.62	4801.1	
356.82	5347.2	
357.03	4057	
357.24	3691.1	
357.44	5093.3	
357.65	5174.5	
357.85	4908.3	
358.06	3832.4	
358.27	4781.3	
358.47	5000.5	
358.68	3173	
358.88	4078.9	
359.09	5612.1	
359.3	5981.4	
359.5	4764.3	
359.71	4184	
359.91	6369.2	
360.12	5698.1	
360.33	4065.2	
360.53	4481.6	
360.74	5033.2	
360.94	5089.2	
361.15	4231.1	
361.36	3502	
361.56	5743.2	
361.77	5261.9	
361.97	4693.9	
362.18	3750.5	
362.38	5775.3	
362.59	4903.5	
362.8	3452.9	
363	3289.7	
363.21	4630.5	
363.41	5369.8	
363.62	3962.8	
363.83	4930.8	
364.03	5441.5	
364.24	6363.7	
364.44	5074.2	
364.65	5106.3	
364.85	5223.7	
365.06	4874.2	
365.27	3583.3	
365.47	3592.8	
365.68	6256.5	
365.88	5212.8	
366.09	4001.7	
366.29	3703.4	
366.5	5440.1	
366.71	5810.1	
366.91	5020.9	
367.12	4162.2	
367.32	6399.2	
367.53	5699.5	
367.73	4090.5	
367.94	4999.1	
368.14	5662	
368.35	6496.8	
368.56	4007.9	
368.76	3801.7	
368.97	5769.8	
369.17	7437.5	
369.38	3579.2	
369.58	3875.4	
369.79	4846.9	
369.99	6153.5	
370.2	4794.3	
370.4	3949.8	
370.61	5486.5	
370.82	6643.6	
371.02	3836.5	
371.23	3259	
371.43	4749.9	
371.64	6047	
371.84	3846.8	
372.05	5021.6	
372.25	7348.8	
372.46	5796.4	
372.66	3857.7	
372.87	3799.7	
373.07	5814.9	
373.28	7298.3	
373.48	4835.9	
373.69	4562.2	
373.9	5305.6	
374.1	5268.1	
374.31	4766.3	
374.51	4295.3	
374.72	6117.3	
374.92	4962.9	
375.13	4939.7	
375.33	4119.8	
375.54	5606	
375.74	5161.6	
375.95	4198.3	
376.15	5403.9	
376.36	5644.2	
376.56	5459.2	
376.77	4230.4	
376.97	4676.9	
377.18	6638.8	
377.38	5700.9	
377.59	5020.9	
377.79	3734.8	
378	5547.3	
378.2	5963	
378.41	3808.5	
378.61	3768.3	
378.82	5969.8	
379.02	5168.4	
379.23	3908.2	
379.43	4991.6	
379.64	6061.3	
379.84	5695.4	
380.05	3805.1	
380.25	3728	
380.46	5778.7	
380.66	5344.5	
380.87	5090.6	
381.07	5472.9	
381.28	6392.4	
381.48	5795.8	
381.69	3897.3	
381.89	3859.7	
382.1	4835.9	
382.3	5952.1	
382.51	4902.2	
382.71	5829.2	
382.91	5802.6	
383.12	6298.2	
383.32	4132.8	
383.53	4388.1	
383.73	5629.2	
383.94	5439.4	
384.14	4320.5	
384.35	3510.2	
384.55	5446.2	
384.76	5766.4	
384.96	4177.9	
385.17	4491.9	
385.37	5816.2	
385.58	5147.9	
385.78	4511	
385.98	3388	
386.19	5328.1	
386.39	5693.4	
386.6	3917.1	
386.8	4166.9	
387.01	5742.5	
387.21	5861.3	
387.42	4570.4	
387.62	5150	
387.83	5097.4	
388.03	5821.7	
388.23	4207.9	
388.44	4998.4	
388.64	4827.1	
388.85	4980	
389.05	4529.4	
389.26	5152	
389.46	6789.7	
389.67	6181.5	
389.87	4539	
390.07	4599.1	
390.28	5454.4	
390.48	5018.2	
390.69	3781.9	
390.89	4076.8	
391.1	5217.5	
391.3	6127.5	
391.5	5190.2	
391.71	5831.9	
391.91	5851	
392.12	6742.6	
392.32	5256.5	
392.53	4499.4	
392.73	5372.5	
392.93	5440.1	
393.14	4219.5	
393.34	4975.2	
393.55	5892	
393.75	5408	
393.95	4212.7	
394.16	4207.9	
394.36	5236.7	
394.57	5847	
394.77	3760.8	
394.98	4163.5	
395.18	5120.6	
395.38	5212.1	
395.59	5003.9	
395.79	3909.6	
396	5213.4	
396.2	5771.2	
396.4	4874.8	
396.61	4737.6	
396.81	5924.1	
397.02	5234.6	
397.22	4933.6	
397.42	5057.1	
397.63	5902.2	
397.83	5129.5	
398.04	3835.8	
398.24	4291.2	
398.44	5669.5	
398.65	4775.9	
398.85	3698.6	
399.05	3794.9	
399.26	5152	
399.46	6771.3	
399.67	4219.5	
399.87	3984	
400.07	5440.8	
400.28	5760.9	
400.48	4038.6	
400.69	4998.4	
400.89	6029.9	
401.09	6419.7	
401.3	3861.8	
401.5	5021.6	
401.7	6604.7	
401.91	6858	
402.11	4208.6	
402.32	4462.5	
402.52	5996.5	
402.72	5874.9	
402.93	4610.7	
403.13	3534.8	
403.33	6698.9	
403.54	5540.4	
403.74	4383.3	
403.94	5261.9	
404.15	5618.9	
404.35	6732.4	
404.56	4149.2	
404.76	5857.2	
404.96	6016.9	
405.17	5826.5	
405.37	5382.1	
405.57	4626.4	
405.78	5952.1	
405.98	5530.2	
406.18	4147.8	
406.39	4995.7	
406.59	5952.1	
406.79	5664.7	
407	3976.5	
407.2	4136.2	
407.4	6036	
407.61	6255.9	
407.81	4103.4	
408.01	6059.9	
408.22	4975.9	
408.42	6930.3	
408.62	5100.1	
408.83	4526	
409.03	5625.8	
409.23	5423	
409.44	4628.4	
409.64	4879.6	
409.84	6439.5	
410.05	6311.2	
410.25	4696	
410.45	4444.1	
410.66	5772.5	
410.86	8219.2	
411.06	4840	
411.27	4714.4	
411.47	7968	
411.67	5970.5	
411.88	4928.8	
412.08	5179.3	
412.28	6539.8	
412.49	6972.7	
412.69	4716.5	
412.89	4721.3	
413.09	6877.8	
413.3	6668.2	
413.5	4850.3	
413.7	4394.3	
413.91	6022.4	
414.11	6790.4	
414.31	4643.4	
414.52	5079.6	
414.72	6515.3	
414.92	6419.7	
415.12	4618.9	
415.33	5115.1	
415.53	6711.9	
415.73	6918.7	
415.94	5430.5	
416.14	4890.5	
416.34	5851.7	
416.55	5590.3	
416.75	6050.4	
416.95	5491.3	
417.15	6800.6	
417.36	7496.9	
417.56	6199.2	
417.76	5230.5	
417.97	7073.7	
418.17	6769.2	
418.37	4833.2	
418.57	5033.9	
418.78	6540.5	
418.98	6243.6	
419.18	5741.8	
419.38	5715.2	
419.59	6204.7	
419.79	5958.9	
419.99	4854.4	
420.2	5266.7	
420.4	6743.3	
420.6	6959.7	
420.8	4782.7	
421.01	4650.9	
421.21	6626.5	
421.41	6827.9	
421.61	5130.2	
421.82	4847.5	
422.02	6100.9	
422.22	7055.3	
422.42	5677	
422.63	5330.2	
422.83	6323.4	
423.03	7431.4	
423.23	5334.3	
423.44	4311.7	
423.64	6333.7	
423.84	6083.8	
424.04	4763.6	
424.25	4451.6	
424.45	7256	
424.65	7187	
424.85	4260.5	
425.06	4795.7	
425.26	7181.5	
425.46	5762.3	
425.66	5304.9	
425.87	4990.2	
426.07	7012.9	
426.27	6815	
426.47	5184.8	
426.67	4569	
426.88	7270.3	
427.08	6776	
427.28	5404.6	
427.48	4483	
427.69	5728.9	
427.89	6346.7	
428.09	5271.5	
428.29	4564.2	
428.5	6995.9	
428.7	6560.3	
428.9	4405.9	
429.1	4962.9	
429.3	6445.6	
429.51	6774.7	
429.71	4688.5	
429.91	5466.7	
430.11	6740.5	
430.31	6910.5	
430.52	4995	
430.72	5261.2	
430.92	7277.8	
431.12	6733.7	
431.32	4676.9	
431.53	5100.8	
431.73	5737.7	
431.93	7358.4	
432.13	4577.2	
432.33	4491.9	
432.54	6214.9	
432.74	6467.5	
432.94	4392.9	
433.14	5427.1	
433.34	6682.5	
433.55	6163.7	
433.75	5312.4	
433.95	7061.4	
434.15	6488	
434.35	6109.1	
434.56	4656.4	
434.76	4075.5	
434.96	6449.1	
435.16	6587.6	
435.36	4452.3	
435.56	5535.7	
435.77	6058.6	
435.97	6223.1	
436.17	6275	
436.37	5435.3	
436.57	6050.4	
436.78	5970.5	
436.98	5477	
437.18	6034.7	
437.38	6688	
437.58	6251.1	
437.78	6186.2	
437.99	4861.2	
438.19	6670.9	
438.39	7555.6	
438.59	4855.1	
438.79	4315.8	
438.99	7374.1	
439.2	6199.2	
439.4	4531.5	
439.6	4404.5	
439.8	6526.9	
440	7577.5	
440.2	5394.3	
440.4	5439.4	
440.61	6875.7	
440.81	7429.3	
441.01	4554.7	
441.21	5399.1	
441.41	7282.6	
441.61	6882.5	
441.81	5776.6	
442.02	6712.6	
442.22	7768.6	
442.42	7032.7	
442.62	4616.8	
442.82	4648.9	
443.02	7207.5	
443.22	6385.6	
443.43	5085.1	
443.63	4665.3	
443.83	6208.1	
444.03	6219.7	
444.23	5842.9	
444.43	5375.9	
444.63	6544.6	
444.83	7735.9	
445.04	4676.9	
445.24	5903.6	
445.44	6987	
445.64	6991.8	
445.84	5529.5	
446.04	5539.8	
446.24	6301.6	
446.44	7320.8	
446.65	4714.4	
446.85	5122	
447.05	6720.1	
447.25	7301.7	
447.45	5215.5	
447.65	4536.9	
447.85	6673.6	
448.05	6345.3	
448.25	5534.3	
448.46	5390.3	
448.66	6597.9	
448.86	6309.1	
449.06	4455.7	
449.26	5594.4	
449.46	7001.3	
449.66	6038.1	
449.86	5098.1	
450.06	5107	
450.26	6169.8	
450.47	6791.1	
450.67	5350.7	
450.87	5711.1	
451.07	6804.7	
451.27	6677.7	
451.47	4765.6	
451.67	5175.2	
451.87	6313.9	
452.07	7461.4	
452.27	4904.2	
452.47	4870.8	
452.67	6707.8	
452.88	7142.6	
453.08	4367.6	
453.28	6289.3	
453.48	7703.8	
453.68	6562.4	
453.88	4844.1	
454.08	5026.4	
454.28	6969.2	
454.48	6621.8	
454.68	5608	
454.88	6111.1	
455.08	7050.5	
455.28	6748.7	
455.48	4707.6	
455.68	5279	
455.89	7539.3	
456.09	7052.5	
456.29	4984.8	
456.49	5077.6	
456.69	7321.5	
456.89	6648.4	
457.09	5563.6	
457.29	5896.8	
457.49	6941.2	
457.69	7077.8	
457.89	5329.5	
458.09	4772.4	
458.29	6662.7	
458.49	7324.9	
458.69	5737	
458.89	5162.9	
459.09	7557.7	
459.29	7686.7	
459.49	5328.1	
459.69	6047.7	
459.9	7135.1	
460.1	6653.9	
460.3	5170.4	
460.5	5010.7	
460.7	7150.1	
460.9	6866.2	
461.1	4624.3	
461.3	5845.6	
461.5	7709.9	
461.7	7337.9	
461.9	4959.5	
462.1	5368.4	
462.3	6878.4	
462.5	7428	
462.7	5085.8	
462.9	5119.2	
463.1	8387.8	
463.3	8110	
463.5	5296	
463.7	6181.5	
463.9	7058	
464.1	7322.2	
464.3	5378.6	
464.5	5717.2	
464.7	7508.5	
464.9	7189.1	
465.1	6864.8	
465.3	5990.3	
465.5	7922.2	
465.7	7867.6	
465.9	6201.9	
466.1	6072.2	
466.3	7665.5	
466.5	7594.6	
466.7	6858.6	
466.9	5768.4	
467.1	7435.5	
467.3	8359.1	
467.5	6767.9	
467.7	5679.7	
467.9	8625.4	
468.1	9506	
468.3	6455.2	
468.5	6941.9	
468.7	7415	
468.9	7370.6	
469.1	6014.9	
469.3	6632.7	
469.5	9314.8	
469.7	7003.4	
469.9	6550.1	
470.1	5724.1	
470.3	7417.1	
470.5	7582.9	
470.7	6981.5	
470.9	5776	
471.1	7191.1	
471.3	7696.9	
471.5	5610.8	
471.69	7522.2	
471.89	7166.5	
472.09	6658.6	
472.29	6438.1	
472.49	6841.6	
472.69	6918	
472.89	7657.4	
473.09	5623.7	
473.29	5742.5	
473.49	7020.4	
473.69	7242.3	
473.89	6647.7	
474.09	5881.1	
474.29	8411.7	
474.49	8122.9	
474.69	6639.5	
474.89	6001.9	
475.09	7268.9	
475.29	7240.3	
475.49	5515.2	
475.69	5680.4	
475.88	8815.1	
476.08	7451.9	
476.28	5354.1	
476.48	5891.3	
476.68	8041	
476.88	7865.6	
477.08	5735.7	
477.28	6072.2	
477.48	7362.4	
477.68	8004.8	
477.88	5509.7	
478.08	5838.8	
478.28	8276.5	
478.48	7441.6	
478.67	5908.4	
478.87	5388.9	
479.07	8045.8	
479.27	7574.8	
479.47	6139.1	
479.67	6139.1	
479.87	8016.4	
480.07	8435.6	
480.27	5380	
480.47	6891.4	
480.67	7558.4	
480.87	8150.2	
481.06	5611.4	
481.26	6492.1	
481.46	7501.7	
481.66	7453.9	
481.86	6165.8	
482.06	7152.9	
482.26	7298.3	
482.46	8288.1	
482.66	6008.1	
482.86	5657.2	
483.05	7606.8	
483.25	7057.3	
483.45	8463.6	
483.65	6036.7	
483.85	7131	
484.05	7549.5	
484.25	6503	
484.45	6891.4	
484.65	8356.4	
484.84	8327.7	
485.04	6077	
485.24	5991.7	
485.44	8617.9	
485.64	6954.2	
485.84	5285.1	
486.04	6701	
486.24	7284.6	
486.44	7633.5	
486.63	5172.5	
486.83	5982.8	
487.03	7214.3	
487.23	7367.9	
487.43	5419.6	
487.63	7619.8	
487.83	7418.4	
488.02	8361.9	
488.22	6315.9	
488.42	6778.1	
488.62	8240.3	
488.82	7154.2	
489.02	5947.3	
489.22	5931.6	
489.41	8131.8	
489.61	7819.8	
489.81	5730.2	
490.01	5729.5	
490.21	8090.2	
490.41	8815.1	
490.61	5731.6	
490.8	5789.6	
491	7628.7	
491.2	7056.6	
491.4	6379.4	
491.6	5582.8	
491.8	7647.8	
491.99	7838.3	
492.19	5409.4	
492.39	5818.3	
492.59	8105.2	
492.79	8189.8	
492.99	6585.6	
493.18	5692	
493.38	8181	
493.58	8921	
493.78	6427.9	
493.98	5994.4	
494.18	7960.5	
494.37	7404.1	
494.57	6532.3	
494.77	6393.1	
494.97	8112.7	
495.17	8374.1	
495.37	6043.6	
495.56	6385.6	
495.76	8512	
495.96	8159.1	
496.16	7189.7	
496.36	6200.6	
496.55	8290.2	
496.75	7869.7	
496.95	6623.8	
497.15	6409.5	
497.35	8328.4	
497.54	8305.2	
497.74	6254.5	
497.94	8026	
498.14	8981	
498.34	8806.3	
498.53	5870.8	
498.73	6685.3	
498.93	7729.7	
499.13	8307.9	
499.33	6454.5	
499.52	7042.3	
499.72	8215.1	
499.92	8527.1	
500.12	6184.2	
500.32	6483.9	
500.51	8480	
500.71	8255.4	
500.91	7159.7	
501.11	6837.5	
501.31	8491.6	
501.5	8839	
501.7	7489.4	
501.9	6479.1	
502.1	8185.7	
502.29	8532.5	
502.49	6918.7	
502.69	7365.9	
502.89	8382.3	
503.09	8521.6	
503.28	5969.1	
503.48	6246.3	
503.68	7662.8	
503.88	7735.9	
504.07	7137.2	
504.27	6584.2	
504.47	8080.6	
504.67	8230.1	
504.86	7038.9	
505.06	6688.7	
505.26	7838.3	
505.46	9638.4	
505.65	6589	
505.85	6822.5	
506.05	7769.3	
506.25	8233.5	
506.44	6036	
506.64	6919.4	
506.84	7656	
507.04	8637.6	
507.23	6201.9	
507.43	6768.5	
507.63	9705.3	
507.83	7952.3	
508.02	6673.6	
508.22	6363.7	
508.42	9916.3	
508.62	7746.1	
508.81	6825.9	
509.01	7161.1	
509.21	7662.1	
509.4	7885.4	
509.6	6873.7	
509.8	6195.1	
510	7833.5	
510.19	9349	
510.39	6171.9	
510.59	6281.8	
510.79	7683.3	
510.98	8971.5	
511.18	6305	
511.38	6485.9	
511.57	8419.9	
511.77	8299.7	
511.97	7129.7	
512.17	6090.7	
512.36	8489.5	
512.56	8434.9	
512.76	6204	
512.95	5979.4	
513.15	8584.4	
513.35	7209.5	
513.55	7071.6	
513.74	6329.6	
513.94	8459.5	
514.14	7938.6	
514.33	7154.9	
514.53	6903	
514.73	7857.4	
514.92	7989.1	
515.12	6367.8	
515.32	6217.6	
515.51	8173.4	
515.71	8774.2	
515.91	7995.3	
516.11	6326.2	
516.3	9740.1	
516.5	7789.8	
516.7	6870.3	
516.89	7432.1	
517.09	7989.8	
517.29	7838.3	
517.48	7075	
517.68	6604.7	
517.88	7692.9	
518.07	8336.6	
518.27	7079.1	
518.47	6092	
518.66	8809	
518.86	7485.3	
519.06	5942.5	
519.25	6393.8	
519.45	7897	
519.65	9200.8	
519.84	7042.3	
520.04	7717.4	
520.24	9643.2	
520.43	8398.7	
520.63	6829.3	
520.83	6498.2	
521.02	7694.2	
521.22	8355	
521.42	7015	
521.61	7582.3	
521.81	7953.6	
522.01	8140	
522.2	6974	
522.4	6679.1	
522.6	8609.7	
522.79	7468.9	
522.99	6726.9	
523.18	6079.1	
523.38	8245.8	
523.58	8290.9	
523.77	8056	
523.97	6027.2	
524.17	10103	
524.36	9286.2	
524.56	7374.7	
524.76	7051.2	
524.95	8286.8	
525.15	7940.7	
525.34	6758.3	
525.54	6834.1	
525.74	8602.8	
525.93	7668.3	
526.13	8005.5	
526.33	6755.6	
526.52	8986.5	
526.72	8436.9	
526.91	8062.9	
527.11	7228.6	
527.31	8968.7	
527.5	9398.8	
527.7	7122.8	
527.89	6180.1	
528.09	8054	
528.29	8545.5	
528.48	7585	
528.68	7220.5	
528.87	8856.1	
529.07	8910	
529.27	7237.5	
529.46	6733	
529.66	8541.4	
529.85	8879.3	
530.05	6492.7	
530.25	7216.4	
530.44	9907.4	
530.64	8529.1	
530.83	7012.9	
531.03	7180.2	
531.23	8877.9	
531.42	8783.1	
531.62	7780.2	
531.81	7126.9	
532.01	9039.1	
532.21	9510.8	
532.4	6842.3	
532.6	7148.1	
532.79	9921.7	
532.99	9103.2	
533.18	7191.8	
533.38	8198.7	
533.58	8649.3	
533.77	9390.6	
533.97	7198.6	
534.16	7937.9	
534.36	9601.6	
534.55	8647.2	
534.75	8143.4	
534.95	7301.7	
535.14	9496.4	
535.34	8613.8	
535.53	6972	
535.73	8925	
535.92	9998.2	
536.12	8907.3	
536.31	7075.7	
536.51	8291.5	
536.71	9128.5	
536.9	8699.8	
537.1	7237.5	
537.29	7393.8	
537.49	9622.7	
537.68	8600.8	
537.88	7799.3	
538.07	6984.9	
538.27	8886.1	
538.46	9940.8	
538.66	6840.9	
538.86	7254.6	
539.05	8897.7	
539.25	9359.2	
539.44	7610.9	
539.64	7127.6	
539.83	8804.9	
540.03	9766.8	
540.22	7158.3	
540.42	7288.7	
540.61	9032.2	
540.81	9189.2	
541	7641	
541.2	8290.2	
541.39	8571.4	
541.59	8921	
541.78	7892.2	
541.98	7158.3	
542.18	8353	
542.37	8305.2	
542.57	7513.3	
542.76	7998	
542.96	8299.1	
543.15	9076.6	
543.35	7460.8	
543.54	6941.9	
543.74	9318.9	
543.93	8976.9	
544.13	7535.2	
544.32	8563.9	
544.52	9243.8	
544.71	8455.4	
544.91	6636.1	
545.1	7890.8	
545.3	8552.3	
545.49	9181.7	
545.69	6532.3	
545.88	7307.8	
546.08	10069	
546.27	9656.2	
546.47	7715.4	
546.66	7056.6	
546.86	9387.2	
547.05	10072	
547.24	7200	
547.44	7095.5	
547.63	8418.5	
547.83	9480	
548.02	7437.5	
548.22	7684	
548.41	8149.6	
548.61	9509.4	
548.8	7062.8	
549	6962.4	
549.19	8894.3	
549.39	9155.8	
549.58	6701	
549.78	7373.4	
549.97	9213.8	
550.17	8684.1	
550.36	8136.6	
550.55	9121	
550.75	8750.3	
550.94	9572.9	
551.14	6920.1	
551.33	7307.2	
551.53	8109.3	
551.72	9080.7	
551.92	7377.5	
552.11	7131.7	
552.31	9126.4	
552.5	9167.4	
552.69	8695	
552.89	6750.1	
553.08	9146.2	
553.28	8830.8	
553.47	7185	
553.67	8298.4	
553.86	9820.7	
554.06	8089.5	
554.25	6433.4	
554.44	6994.5	
554.64	10514	
554.83	10033	
555.03	6924.9	
555.22	7329.7	
555.42	9160.6	
555.61	8906.6	
555.8	7121.5	
556	7434.1	
556.19	8147.5	
556.39	9484.8	
556.58	7286	
556.78	7166.5	
556.97	8869.8	
557.16	8531.2	
557.36	8390.5	
557.55	6859.3	
557.75	8012.3	
557.94	9699.9	
558.13	6988.4	
558.33	6700.3	
558.52	9473.2	
558.72	8419.2	
558.91	6820.4	
559.1	7101.7	
559.3	8103.1	
559.49	7826.7	
559.69	6447	
559.88	7421.2	
560.07	8959.2	
560.27	9338.1	
560.46	7613.7	
560.66	7676.5	
560.85	8664.3	
561.04	8018.5	
561.24	6776	
561.43	6998.6	
561.63	8183.7	
561.82	8434.2	
562.01	8209.6	
562.21	7268.2	
562.4	8922.3	
562.59	9794.1	
562.79	7131	
562.98	6859.3	
563.18	8772.8	
563.37	10208	
563.56	7645.8	
563.76	6750.8	
563.95	8207.6	
564.14	8235.6	
564.34	7191.8	
564.53	6975.4	
564.73	8726.4	
564.92	9048.6	
565.11	7306.5	
565.31	6655.9	
565.5	9340.1	
565.69	8377.6	
565.89	6900.3	
566.08	7159	
566.27	9298.5	
566.47	9637.7	
566.66	7881.9	
566.85	6528.9	
567.05	8787.2	
567.24	8290.2	
567.44	6829.3	
567.63	8188.5	
567.82	9154.4	
568.02	8803.5	
568.21	6834.1	
568.4	7293.5	
568.6	8670.4	
568.79	8663.6	
568.98	6735.8	
569.18	6877.8	
569.37	8638.3	
569.56	10671	
569.76	7272.3	
569.95	8189.8	
570.14	9062.3	
570.34	8950.3	
570.53	6799.9	
570.72	6774	
570.91	9470.5	
571.11	8571.4	
571.3	7223.2	
571.49	8106.5	
571.69	8672.5	
571.88	8245.1	
572.07	7734.5	
572.27	7702.4	
572.46	8317.5	
572.65	9280	
572.85	7030	
573.04	7337.2	
573.23	9523.1	
573.43	8836.3	
573.62	6720.1	
573.81	7372.7	
574	8767.4	
574.2	8632.9	
574.39	7137.2	
574.58	7280.5	
574.78	9727.9	
574.97	8964	
575.16	7664.9	
575.36	7890.1	
575.55	9285.5	
575.74	9563.3	
575.93	6724.2	
576.13	7855.3	
576.32	8624.7	
576.51	9328.5	
576.71	7220.5	
576.9	8459.5	
577.09	9608.4	
577.28	9125.7	
577.48	7638.9	
577.67	6677.7	
577.86	8661.5	
578.05	9031.5	
578.25	7391.8	
578.44	7429.3	
578.63	8863.6	
578.83	10144	
579.02	6752.8	
579.21	8282.7	
579.4	9101.2	
579.6	8751	
579.79	7536.5	
579.98	9688.9	
580.17	9452.1	
580.37	9506.7	
580.56	7014.3	
580.75	7768.6	
580.94	9906	
581.14	9767.4	
581.33	8182.3	
581.52	7247.1	
581.71	9318.9	
581.91	10024	
582.1	6973.3	
582.29	7456	
582.48	9007	
582.68	8942.1	
582.87	7923.6	
583.06	7428.7	
583.25	9323.7	
583.45	9050	
583.64	8204.8	
583.83	8816.5	
584.02	8848.6	
584.21	9294.4	
584.41	8203.5	
584.6	7529	
584.79	8971.5	
584.98	9793.4	
585.18	6951.5	
585.37	7065.5	
585.56	8505.9	
585.75	9267.7	
585.94	7217	
586.14	7912.7	
586.33	9930.6	
586.52	9045.9	
586.71	7645.8	
586.91	7358.4	
587.1	8378.9	
587.29	9521	
587.48	7393.8	
587.67	7235.5	
587.87	9310.1	
588.06	9364	
588.25	8591.2	
588.44	7853.3	
588.63	8910	
588.83	9501.9	
589.02	7299.6	
589.21	7154.2	
589.4	8699.8	
589.59	8530.5	
589.78	6476.4	
589.98	6708.5	
590.17	8146.8	
590.36	8715.5	
590.55	6122.1	
590.74	7109.9	
590.94	10035	
591.13	8658.8	
591.32	6778.1	
591.51	6298.9	
591.7	9125.7	
591.89	8521.6	
592.09	6438.1	
592.28	6875	
592.47	7767.3	
592.66	9686.2	
592.85	6416.3	
593.05	6743.3	
593.24	8472.4	
593.43	9297.1	
593.62	6698.2	
593.81	7272.3	
594	8576.9	
594.19	8799.4	
594.39	6641.6	
594.58	6638.8	
594.77	8798.1	
594.96	9456.2	
595.15	6531	
595.34	7250.5	
595.54	8825.4	
595.73	8051.9	
595.92	5985.5	
596.11	7134.4	
596.3	9291	
596.49	8026	
596.68	6904.4	
596.88	7372.7	
597.07	9112.1	
597.26	7938.6	
597.45	6363	
597.64	7634.1	
597.83	8113.4	
598.02	8768	
598.22	6503	
598.41	7114.6	
598.6	8572.1	
598.79	8008.9	
598.98	6593.8	
599.17	7524.9	
599.36	8597.4	
599.55	9740.8	
599.74	8617.9	
599.94	8279.3	
600.13	9166	
600.32	8026.7	
600.51	6314.6	
600.7	6470.9	
600.89	9780.4	
601.08	9809.8	
601.27	6293.4	
601.47	7192.5	
601.66	8969.4	
601.85	9680.7	
602.04	6898.2	
602.23	7104.4	
602.42	8210.3	
602.61	8791.9	
602.8	6763.8	
602.99	6628.6	
603.18	8484.7	
603.37	8755.7	
603.57	7241.6	
603.76	7821.9	
603.95	9504.6	
604.14	9002.9	
604.33	6711.2	
604.52	7007.5	
604.71	8656.1	
604.9	8322.9	
605.09	7868.3	
605.28	7475.1	
605.47	9291	
605.66	8916.9	
605.86	7301.7	
606.05	6699.6	
606.24	9374.9	
606.43	7863.5	
606.62	7049.8	
606.81	7813	
607	9142.8	
607.19	8457.4	
607.38	6520	
607.57	6774	
607.76	8213.7	
607.95	7697.6	
608.14	7106.5	
608.33	7792.5	
608.52	8187.1	
608.72	9183.1	
608.91	6380.8	
609.1	6345.3	
609.29	8397.4	
609.48	7869.7	
609.67	7259.4	
609.86	6393.8	
610.05	7948.8	
610.24	8236.9	
610.43	6201.9	
610.62	5876.3	
610.81	9363.3	
611	9187.9	
611.19	6397.2	
611.38	7075	
611.57	8598.1	
611.76	9926.5	
611.95	6152.8	
612.14	6027.9	
612.33	8374.8	
612.52	7877.2	
612.71	6734.4	
612.9	5926.1	
613.09	7559.1	
613.28	9845.3	
613.47	6503	
613.66	7387	
613.85	8577.6	
614.04	8075.1	
614.24	6516.6	
614.43	5789.6	
614.62	8706.6	
614.81	8553	
615	7111.2	
615.19	7098.9	
615.38	7937.2	
615.57	8227.4	
615.76	6893.5	
615.95	7890.1	
616.14	8730.5	
616.33	8332.5	
616.52	7243	
616.71	7492.8	
616.9	8718.9	
617.09	8468.4	
617.28	6666.1	
617.47	7903.8	
617.66	7762.5	
617.85	7755	
618.04	7581.6	
618.22	7041.6	
618.41	8082	
618.6	8991.3	
618.79	6838.2	
618.98	6651.8	
619.17	9309.4	
619.36	7679.2	
619.55	6789	
619.74	6769.9	
619.93	8615.1	
620.12	7997.3	
620.31	7401.4	
620.5	7512.6	
620.69	9184.5	
620.88	9549	
621.07	8188.5	
621.26	7215	
621.45	8832.2	
621.64	8794.7	
621.83	7411.6	
622.02	6576	
622.21	8886.1	
622.4	8616.5	
622.59	7869	
622.78	7608.2	
622.97	8215.8	
623.16	9228.8	
623.35	7301.7	
623.54	6536.4	
623.72	8422.6	
623.91	8651.3	
624.1	7495.6	
624.29	6318	
624.48	9709.4	
624.67	8916.9	
624.86	7436.2	
625.05	6550.8	
625.24	9752.4	
625.43	8120.9	
625.62	9107.3	
625.81	6748.7	
626	9157.8	
626.19	8470.4	
626.38	7473	
626.56	6886	
626.75	8277.9	
626.94	9013.1	
627.13	7518.1	
627.32	6297.5	
627.51	8921	
627.7	10170	
627.89	6524.8	
628.08	7500.3	
628.27	8118.1	
628.46	8342.7	
628.65	6666.1	
628.83	6379.4	
629.02	8923.7	
629.21	8260.1	
629.4	7100.3	
629.59	7316.7	
629.78	8204.8	
629.97	9189.9	
630.16	7350.8	
630.35	6853.2	
630.54	9554.5	
630.72	9194.7	
630.91	6841.6	
631.1	7406.8	
631.29	8735.3	
631.48	8968.1	
631.67	7555	
631.86	6987	
632.05	8353.7	
632.24	8350.9	
632.42	6653.2	
632.61	7268.2	
632.8	8580.3	
632.99	8114.1	
633.18	7205.4	
633.37	7649.2	
633.56	8739.4	
633.75	8611.7	
633.93	7217	
634.12	6961	
634.31	9562	
634.5	9136	
634.69	6894.1	
634.88	7470.3	
635.07	8527.7	
635.25	9209.7	
635.44	7802.8	
635.63	8039	
635.82	8432.2	
636.01	7854.6	
636.2	7808.9	
636.39	7300.3	
636.57	9480.7	
636.76	9095	
636.95	6710.5	
637.14	8083.3	
637.33	8844.5	
637.52	9845.3	
637.7	6532.3	
637.89	7542.7	
638.08	8399.4	
638.27	9790.7	
638.46	7543.4	
638.65	8014.4	
638.83	9859.6	
639.02	8290.2	
639.21	7466.2	
639.4	7960.5	
639.59	8662.2	
639.78	8310.7	
639.96	6731	
640.15	6823.8	
640.34	8610.3	
640.53	8783.1	
640.72	6524.8	
640.91	6818.4	
641.09	8034.9	
641.28	9297.1	
641.47	6801.3	
641.66	7695.6	
641.85	8660.2	
642.03	8840.4	
642.22	7393.8	
642.41	6911.2	
642.6	8109.3	
642.79	7555.6	
642.97	6651.1	
643.16	7415.7	
643.35	8066.3	
643.54	7904.5	
643.73	6535.1	
643.91	7394.5	
644.1	7737.2	
644.29	8363.2	
644.48	6697.5	
644.67	6757.6	
644.85	7947.5	
645.04	8331.1	
645.23	6350.1	
645.42	6597.2	
645.6	7815	
645.79	8918.9	
645.98	6557.6	
646.17	5644.9	
646.36	7596.6	
646.54	8051.2	
646.73	7317.4	
646.92	6198.5	
647.11	7722.9	
647.29	8807.6	
647.48	6227.2	
647.67	5937.1	
647.86	9088.9	
648.05	9060.2	
648.23	6518.7	
648.42	7881.9	
648.61	8425.3	
648.8	8154.3	
648.98	6180.1	
649.17	6508.4	
649.36	7703.1	
649.55	7287.4	
649.73	6237.4	
649.92	6887.3	
650.11	7733.1	
650.3	7989.8	
650.48	6418.3	
650.67	6256.5	
650.86	8236.9	
651.05	7165.2	
651.23	6369.9	
651.42	6298.2	
651.61	7724.9	
651.79	8290.2	
651.98	6505.7	
652.17	6186.9	
652.36	8064.2	
652.54	7284.6	
652.73	6160.3	
652.92	6025.1	
653.11	8247.2	
653.29	8282.7	
653.48	5460.6	
653.67	6580.1	
653.85	7913.4	
654.04	8993.3	
654.23	6701.6	
654.42	6200.6	
654.6	7503.8	
654.79	8174.8	
654.98	5689.9	
655.16	6242.9	
655.35	7042.3	
655.54	7038.9	
655.73	5723.4	
655.91	5610.1	
656.1	8137.3	
656.29	6909.2	
656.47	5265.3	
656.66	6980.8	
656.85	7213.6	
657.03	7332.4	
657.22	5856.5	
657.41	5915.9	
657.59	7444.4	
657.78	7187	
657.97	5567.7	
658.16	6272.2	
658.34	8082.7	
658.53	8475.2	
658.72	7139.9	
658.9	7671.7	
659.09	7409.6	
659.28	7599.3	
659.46	5998.5	
659.65	5924.1	
659.84	7342.7	
660.02	7760.4	
660.21	5929.6	
660.4	5786.2	
660.58	8282.7	
660.77	7584.3	
660.96	6407.4	
661.14	5477.6	
661.33	8748.2	
661.52	8602.8	
661.7	5468.1	
661.89	9133.9	
662.08	7223.9	
662.26	6823.1	
662.45	5688.6	
662.64	5837.4	
662.82	7894.9	
663.01	7174	
663.2	5853.1	
663.38	6625.9	
663.57	7836.2	
663.75	7699.7	
663.94	6144.6	
664.13	7344.7	
664.31	7210.9	
664.5	7856.7	
664.69	6335.7	
664.87	6995.9	
665.06	6994.5	
665.25	7772.7	
665.43	7211.6	
665.62	7232.1	
665.8	8026.7	
665.99	7378.8	
666.18	6206.7	
666.36	6191.7	
666.55	8000.7	
666.74	7933.8	
666.92	5836	
667.11	7483.3	
667.29	7383.6	
667.48	7980.3	
667.67	7001.3	
667.85	6100.2	
668.04	7417.7	
668.22	7397.3	
668.41	6207.4	
668.6	6450.4	
668.78	7145.4	
668.97	7403.4	
669.15	6593.8	
669.34	5592.3	
669.53	7191.8	
669.71	7527	
669.9	5736.4	
670.08	6417	
670.27	7228	
670.46	7774.8	
670.64	6597.9	
670.83	6816.3	
671.01	7023.2	
671.2	7695.6	
671.38	5775.3	
671.57	5742.5	
671.76	8338	
671.94	8813.8	
672.13	5615.5	
672.31	6789.7	
672.5	7942	
672.69	7206.1	
672.87	5831.2	
673.06	6133.7	
673.24	7686	
673.43	7254.6	
673.61	6589	
673.8	6113.2	
673.98	7989.8	
674.17	8084.7	
674.36	6657.9	
674.54	6491.4	
674.73	7696.9	
674.91	7883.3	
675.1	6225.1	
675.28	5849.7	
675.47	7511.9	
675.65	8058.1	
675.84	6137.1	
676.03	6460.7	
676.21	7223.9	
676.4	6769.9	
676.58	6956.9	
676.77	6661.4	
676.95	8682	
677.14	7249.1	
677.32	5809.4	
677.51	5663.3	
677.69	7976.2	
677.88	6946.7	
678.06	5711.8	
678.25	5812.8	
678.44	7438.9	
678.62	7286	
678.81	5543.2	
678.99	6449.1	
679.18	8304.5	
679.36	7831.4	
679.55	6117.3	
679.73	6654.5	
679.92	7839.6	
680.1	7272.3	
680.29	7267.6	
680.47	6082.5	
680.66	7141.9	
680.84	8070.4	
681.03	5387.5	
681.21	6494.1	
681.4	7235.5	
681.58	7068.2	
681.77	5868.1	
681.95	5774.6	
682.14	8012.3	
682.32	8428.1	
682.51	6788.3	
682.69	5622.4	
682.88	7129	
683.06	7817.8	
683.25	6433.4	
683.43	6963.8	
683.62	7461.4	
683.8	7903.1	
683.99	7051.2	
684.17	6317.3	
684.36	8649.3	
684.54	7378.8	
684.73	5507	
684.91	5738.4	
685.1	7755.7	
685.28	7106.5	
685.46	6226.5	
685.65	6340.5	
685.83	7856	
686.02	7235.5	
686.2	5723.4	
686.39	5747.3	
686.57	6854.6	
686.76	8445.1	
686.94	5751.4	
687.13	5913.9	
687.31	7799.3	
687.5	7314.7	
687.68	5422.3	
687.86	6605.4	
688.05	8914.1	
688.23	6746	
688.42	6651.1	
688.6	5816.2	
688.79	7305.8	
688.97	7164.5	
689.16	6259.3	
689.34	5180	
689.52	7951.6	
689.71	8137.9	
689.89	6566.5	
690.08	5799.8	
690.26	7463.5	
690.45	7361.8	
690.63	6783.6	
690.81	6075.6	
691	7243	
691.18	7166.5	
691.37	6225.8	
691.55	8273.8	
691.74	7103.7	
691.92	9138.7	
692.1	6167.1	
692.29	5627.8	
692.47	7328.3	
692.66	6728.3	
692.84	5851	
693.02	6419	
693.21	6744.6	
693.39	7321.5	
693.58	6438.8	
693.76	5943.9	
693.94	8467.7	
694.13	8267.6	
694.31	5898.1	
694.5	6898.9	
694.68	7135.8	
694.86	7484	
695.05	6256.5	
695.23	6726.9	
695.42	7925	
695.6	10183	
695.78	6975.4	
695.97	6038.1	
696.15	7869.7	
696.34	7385	
696.52	5787.6	
696.7	6648.4	
696.89	7690.1	
697.07	7178.8	
697.25	6540.5	
697.44	7968.6	
697.62	7724.3	
697.81	8053.3	
697.99	6301.6	
698.17	6663.4	
698.36	7062.8	
698.54	7697.6	
698.72	6658.6	
698.91	5582.8	
699.09	7267.6	
699.28	7214.3	
699.46	6217.6	
699.64	6054.5	
699.83	7150.1	
700.01	8374.1	
700.19	6934.4	
700.38	5373.2	
700.56	8232.2	
700.74	7215.7	
700.93	5758.9	
701.11	6550.1	
701.29	7888.8	
701.48	8848.6	
701.66	5916.6	
701.84	6023.1	
702.03	7383.6	
702.21	8026	
702.39	5679.7	
702.58	6224.5	
702.76	7778.2	
702.94	7951.6	
703.13	5599.8	
703.31	8044.4	
703.49	7152.9	
703.68	8564.6	
703.86	5784.1	
704.04	6794.5	
704.23	7730.4	
704.41	8027.4	
704.59	5937.1	
704.78	7169.9	
704.96	8732.5	
705.14	8160.5	
705.33	5754.1	
705.51	6612.2	
705.69	7411.6	
705.87	8265.6	
706.06	6865.5	
706.24	5770.5	
706.42	7801.4	
706.61	8118.8	
706.79	6864.8	
706.97	5840.8	
707.16	7296.2	
707.34	7832.8	
707.52	6905.8	
707.7	6012.8	
707.89	7416.4	
708.07	7083.2	
708.25	6930.3	
708.44	7256	
708.62	7287.4	
708.8	8409	
708.98	7159.7	
709.17	6063.4	
709.35	7712.7	
709.53	7804.1	
709.72	5789.6	
709.9	6356.9	
710.08	8026.7	
710.26	8086.1	
710.45	7415.7	
710.63	6168.5	
710.81	7681.9	
710.99	7690.8	
711.18	6841.6	
711.36	6221	
711.54	7543.4	
711.72	8241.7	
711.91	6290	
712.09	5825.8	
712.27	7660.1	
712.45	8303.1	
712.64	6614.3	
712.82	5631.9	
713	7088	
713.18	7230	
713.37	5700.2	
713.55	6810.2	
713.73	8132.5	
713.91	6796.5	
714.1	6095.4	
714.28	5554.1	
714.46	7731.1	
714.64	6949.4	
714.83	4919.2	
715.01	5769.8	
715.19	6912.6	
715.37	6321.4	
715.55	5433.9	
715.74	5736.4	
715.92	7846.5	
716.1	5834.7	
716.28	6849.8	
716.47	5873.6	
716.65	6516.6	
716.83	6608.1	
717.01	5664.7	
717.19	5687.2	
717.38	8615.1	
717.56	6375.3	
717.74	5870.2	
717.92	5029.8	
718.1	7441	
718.29	6681.8	
718.47	4676.9	
718.65	5408.7	
718.83	7460.1	
719.01	7408.2	
719.2	4666.6	
719.38	5746.6	
719.56	7098.3	
719.74	8611.7	
719.92	5361.6	
720.11	6361	
720.29	7208.8	
720.47	6276.3	
720.65	4890.5	
720.83	5762.3	
721.02	6590.4	
721.2	6326.9	
721.38	5702.2	
721.56	5034.6	
721.74	5802.6	
721.92	6077.7	
722.11	6222.4	
722.29	5919.3	
722.47	7329.7	
722.65	6472.3	
722.83	4963.6	
723.01	5910.4	
723.2	6518	
723.38	6838.2	
723.56	4437.3	
723.74	5605.3	
723.92	6060.6	
724.1	7219.1	
724.29	4949.3	
724.47	6078.4	
724.65	6125.5	
724.83	6014.9	
725.01	4819.6	
725.19	5782.1	
725.37	6107.7	
725.56	6096.1	
725.74	4651.6	
725.92	4985.4	
726.1	6054.5	
726.28	6388.3	
726.46	5300.8	
726.64	5079	
726.83	6284.5	
727.01	6584.9	
727.19	4676.9	
727.37	5526.1	
727.55	6410.8	
727.73	6867.5	
727.91	4636.6	
728.09	4503.5	
728.28	6956.3	
728.46	7497.6	
728.64	5595.1	
728.82	5516.5	
729	8004.8	
729.18	7243	
729.36	4762.9	
729.54	7062.8	
729.72	8221.9	
729.91	6481.8	
730.09	6664.8	
730.27	5466.7	
730.45	6486.6	
730.63	7087.3	
730.81	5986.9	
730.99	5057.1	
731.17	7598.6	
731.35	6201.9	
731.53	5616.9	
731.71	5190.2	
731.9	7269.6	
732.08	7556.3	
732.26	5481	
732.44	5203.9	
732.62	7578.2	
732.8	7129	
732.98	5875.6	
733.16	4926.7	
733.34	7060.7	
733.52	5812.1	
733.7	5440.1	
733.88	5700.2	
734.07	6797.2	
734.25	6652.5	
734.43	4891.2	
734.61	6458.6	
734.79	8129.8	
734.97	6499.6	
735.15	5037.3	
735.33	5393.7	
735.51	6839.5	
735.69	6509.1	
735.87	6431.3	
736.05	5584.8	
736.23	6651.1	
736.41	6456.6	
736.59	5380.7	
736.77	5533.6	
736.95	7146.7	
737.13	6569.9	
737.32	5024.3	
737.5	5179.3	
737.68	7690.8	
737.86	6472.3	
738.04	4848.2	
738.22	6651.8	
738.4	6238.1	
738.58	6572.6	
738.76	5483.1	
738.94	4382.7	
739.12	6349.4	
739.3	6277.7	
739.48	6070.2	
739.66	5803.3	
739.84	6657.3	
740.02	6622.4	
740.2	4498.7	
740.38	4850.3	
740.56	6995.9	
740.74	5809.4	
740.92	5528.2	
741.1	5426.4	
741.28	6430.6	
741.46	6216.3	
741.64	5033.9	
741.82	5649	
742	6408.1	
742.18	6427.2	
742.36	5289.2	
742.54	4810.7	
742.72	6965.1	
742.9	5796.4	
743.08	5645.6	
743.26	4465.3	
743.44	7212.9	
743.62	7043	
743.8	5758.9	
743.98	4836.6	
744.16	6695.5	
744.34	6417.7	
744.52	5675.6	
744.7	5630.5	
744.88	6847.7	
745.06	6418.3	
745.24	5739.1	
745.42	5840.1	
745.6	6930.3	
745.78	6724.8	
745.96	4492.6	
746.14	4861.2	
746.32	7622.5	
746.5	6882.5	
746.68	5354.1	
746.86	4853	
747.03	7349.5	
747.21	5692.7	
747.39	5321.3	
747.57	4827.1	
747.75	6503	
747.93	6806.8	
748.11	4803.2	
748.29	4787.5	
748.47	8137.3	
748.65	6218.3	
748.83	5485.8	
749.01	5199.8	
749.19	6738.5	
749.37	5868.8	
749.55	5080.3	
749.73	5203.9	
749.91	6349.4	
750.09	6110.5	
750.26	5189.6	
750.44	4642.7	
750.62	6457.9	
750.8	6322.8	
750.98	4486.4	
751.16	4866	
751.34	6464.1	
751.52	5765.7	
751.7	5610.8	
751.88	4447.5	
752.06	6891.4	
752.24	6635.4	
752.42	4437.3	
752.59	4688.5	
752.77	6328.2	
752.95	7575.4	
753.13	5486.5	
753.31	4843.4	
753.49	6000.5	
753.67	6428.6	
753.85	5134.9	
754.03	4793.6	
754.21	6650.4	
754.38	7043.6	
754.56	4945.2	
754.74	3958	
754.92	5894.1	
755.1	6552.1	
755.28	3947.1	
755.46	4001	
755.64	7438.2	
755.82	7531.1	
755.99	4316.4	
756.17	4388.8	
756.35	4973.2	
756.53	6521.4	
756.71	3288.4	
756.89	4221.5	
757.07	6094.1	
757.25	5274.9	
757.42	4781.3	
757.6	5555.5	
757.78	6178	
757.96	5160.2	
758.14	4428.4	
758.32	3947.1	
758.5	4784.7	
758.67	5616.9	
758.85	4255	
759.03	4379.2	
759.21	5753.4	
759.39	5221	
759.57	3821.5	
759.75	5038	
759.92	6391.7	
760.1	5637.4	
760.28	5375.2	
760.46	5654.4	
760.64	5392.3	
760.82	5203.2	
760.99	5225.1	
761.17	4333.5	
761.35	6337.1	
761.53	5293.3	
761.71	4442.7	
761.89	5175.9	
762.06	6115.9	
762.24	5644.2	
762.42	4574.5	
762.6	4330.1	
762.78	5674.9	
762.96	6242.2	
763.13	5003.2	
763.31	4639.3	
763.49	6480.5	
763.67	5625.8	
763.85	5478.3	
764.02	5982.1	
764.2	6681.2	
764.38	5896.1	
764.56	4461.2	
764.74	5371.8	
764.91	6752.8	
765.09	5758.9	
765.27	4141.7	
765.45	4011.3	
765.63	6869.6	
765.8	6688	
765.98	3743	
766.16	4089.8	
766.34	5266.7	
766.52	5115.8	
766.69	4969.1	
766.87	3891.1	
767.05	5707.7	
767.23	6389	
767.41	4222.2	
767.58	4446.8	
767.76	6282.5	
767.94	6320.7	
768.12	4286.4	
768.29	4995.7	
768.47	5766.4	
768.65	6481.1	
768.83	3929.4	
769	5026.4	
769.18	5382.7	
769.36	5946.6	
769.54	5095.3	
769.72	3935.5	
769.89	6302.3	
770.07	6420.4	
770.25	4274.8	
770.43	5566.4	
770.6	7121.5	
770.78	7528.3	
770.96	4523.3	
771.14	5108.3	
771.31	6210.1	
771.49	5644.9	
771.67	3637.9	
771.85	3901.4	
772.02	4822.3	
772.2	5573.9	
772.38	4582.7	
772.55	4140.3	
772.73	5831.2	
772.91	5635.3	
773.09	4468	
773.26	4562.9	
773.44	5756.8	
773.62	5449.6	
773.8	3987.4	
773.97	3676.8	
774.15	5896.8	
774.33	5496.7	
774.5	3945.8	
774.68	4221.5	
774.86	6069.5	
775.04	5515.9	
775.21	4022.9	
775.39	3946.4	
775.57	5800.5	
775.74	6166.4	
775.92	3815.4	
776.1	3693.9	
776.27	5744.6	
776.45	7024.5	
776.63	4035.9	
776.81	3501.3	
776.98	5418.9	
777.16	6466.8	
777.34	4085	
777.51	4446.1	
777.69	5378	
777.87	5200.5	
778.04	4143	
778.22	4793.6	
778.4	5183.4	
778.57	5872.9	
778.75	3427.6	
778.93	3747.8	
779.1	5034.6	
779.28	4876.9	
779.46	3433.8	
779.64	3947.8	
779.81	6016.2	
779.99	6849.8	
780.17	4704.2	
780.34	4894.6	
780.52	5482.4	
780.69	5687.2	
780.87	4277.5	
781.05	3808.5	
781.22	5547.9	
781.4	5646.2	
781.58	4005.8	
781.75	3166.2	
781.93	5571.8	
782.11	4982.7	
782.28	4834.6	
782.46	4038.6	
782.64	4795	
782.81	5679.7	
782.99	4093.9	
783.17	3996.3	
783.34	5605.3	
783.52	4868	
783.69	4250.9	
783.87	5089.9	
784.05	5158.2	
784.22	5015.5	
784.4	5029.1	
784.58	4331.5	
784.75	5900.2	
784.93	5046.9	
785.1	3917.1	
785.28	4610.7	
785.46	5626.5	
785.63	4957.4	
785.81	3969	
785.99	3792.8	
786.16	5154.1	
786.34	5621.7	
786.51	3850.9	
786.69	4241.3	
786.87	4758.1	
787.04	5311.7	
787.22	3704.8	
787.39	4677.6	
787.57	4981.3	
787.75	6072.2	
787.92	4855.1	
788.1	4790.9	
788.27	5028.4	
788.45	4797	
788.63	4511	
788.8	3203	
788.98	5442.8	
789.15	4699.4	
789.33	3428.3	
789.5	3992.9	
789.68	5864.7	
789.86	6021.7	
790.03	4468	
790.21	3822.9	
790.38	5928.2	
790.56	5061.9	
790.73	3706.1	
790.91	3738.9	
791.09	4970.4	
791.26	5718.6	
791.44	4012	
791.61	3483.6	
791.79	4976.6	
791.96	5041.4	
792.14	3509.5	
792.32	3089	
792.49	4978.6	
792.67	5133.6	
792.84	3662.5	
793.02	3349.8	
793.19	5649	
793.37	6185.5	
793.54	3117	
793.72	3468.6	
793.89	6308.4	
794.07	5071.5	
794.25	4156	
794.42	3249.4	
794.6	6065.4	
794.77	5681.7	
794.95	4350.6	
795.12	3809.9	
795.3	4973.8	
795.47	5599.1	
795.65	4239.3	
795.82	3960.1	
796	4817.5	
796.17	6702.3	
796.35	3880.9	
796.52	4569	
796.7	5510.4	
796.87	5695.4	
797.05	4822.3	
797.22	4732.9	
797.4	5554.8	
797.57	6572.6	
797.75	4044.1	
797.92	3786	
798.1	5890	
798.27	5018.2	
798.45	3201	
798.62	3527.3	
798.8	5345.9	
798.97	5840.8	
799.15	4306.2	
799.32	4031.1	
799.5	4564.2	
799.67	5326.8	
799.85	4344.4	
800.02	3183.9	
800.2	4939.7	
800.37	5311.7	
800.55	4546.5	
800.72	3762.1	
800.9	5700.9	
801.07	6221.7	
801.25	5128.8	
801.42	4178.5	
801.6	5780.7	
801.77	5504.3	
801.95	3889.1	
802.12	3659	
802.29	5487.9	
802.47	5429.8	
802.64	4081.6	
802.82	3136.8	
802.99	4923.3	
803.17	5979.4	
803.34	4035.2	
803.52	3678.2	
803.69	6600.6	
803.87	4758.1	
804.04	3970.3	
804.21	4079.6	
804.39	6059.3	
804.56	5185.5	
804.74	3396.9	
804.91	4201.1	
805.09	5011.4	
805.26	5068.7	
805.44	3539.6	
805.61	3846.1	
805.78	5652.4	
805.96	5638.1	
806.13	4166.9	
806.31	4485.1	
806.48	4491.9	
806.66	5091.9	
806.83	4142.4	
807	4065.9	
807.18	4959.5	
807.35	5395	
807.53	3959.4	
807.7	3239.9	
807.87	6206	
808.05	5028.4	
808.22	4541.7	
808.4	3210.5	
808.57	5022.3	
808.74	4640	
808.92	3691.8	
809.09	4758.8	
809.27	4930.8	
809.44	5504.3	
809.61	3293.1	
809.79	3643.3	
809.96	6156.9	
810.14	5784.1	
810.31	3175.7	
810.48	3889.1	
810.66	5138.4	
810.83	5796.4	
811.01	3658.4	
811.18	4141	
811.35	5732.3	
811.53	4431.8	
811.7	4534.2	
811.87	4182.6	
812.05	5076.2	
812.22	4905.6	
812.39	3568.2	
812.57	3504.8	
812.74	5048.2	
812.92	6655.9	
813.09	3849.5	
813.26	4274.8	
813.44	6422.4	
813.61	4924.7	
813.78	3263.1	
813.96	4378.6	
814.13	5036.6	
814.3	4666	
814.48	4673.5	
814.65	3913.7	
814.82	6204.7	
815	4808.6	
815.17	3967.6	
815.34	4896	
815.52	4947.2	
815.69	4934.2	
815.87	4006.5	
816.04	3407.1	
816.21	5018.2	
816.38	4428.4	
816.56	3862.5	
816.73	3661.1	
816.9	6382.8	
817.08	5741.8	
817.25	3621.5	
817.42	4590.2	
817.6	4573.8	
817.77	4997.7	
817.94	4104.1	
818.12	3548.4	
818.29	4784.7	
818.46	7400	
818.64	3763.5	
818.81	3522.5	
818.98	4670.1	
819.16	6851.1	
819.33	4313.7	
819.5	4016.7	
819.67	5451.7	
819.85	6016.9	
820.02	3949.8	
820.19	4199.7	
820.37	5180	
820.54	4782	
820.71	4104.1	
820.88	5062.6	
821.06	5261.9	
821.23	4814.1	
821.4	4088.4	
821.58	4034.5	
821.75	5730.9	
821.92	5147.2	
822.09	3298.6	
822.27	3422.2	
822.44	5055.8	
822.61	4900.8	
822.79	3316.3	
822.96	6349.4	
823.13	5505.6	
823.3	4727.4	
823.48	3812.6	
823.65	3448.8	
823.82	5741.1	
823.99	4537.6	
824.17	4868.7	
824.34	3501.3	
824.51	6548	
824.68	5128.1	
824.86	3660.4	
825.03	4010.6	
825.2	5055.1	
825.37	6148.7	
825.55	3599	
825.72	4000.4	
825.89	6688	
826.06	6118.6	
826.24	3899.3	
826.41	3935.5	
826.58	6109.1	
826.75	5269.4	
826.92	3122.5	
827.1	3469.3	
827.27	8290.9	
827.44	6615.6	
827.61	3765.5	
827.79	4509.6	
827.96	4808.6	
828.13	5104.2	
828.3	3867.9	
828.47	3229	
828.65	5268.7	
828.82	5180	
828.99	5018.9	
829.16	4438.6	
829.34	5560.9	
829.51	5432.6	
829.68	3990.8	
829.85	4190.1	
830.02	5875.6	
830.2	5642.8	
830.37	3119.7	
830.54	4867.3	
830.71	6459.3	
830.88	4969.1	
831.05	3164.1	
831.23	3671.3	
831.4	6140.5	
831.57	6918.7	
831.74	3713	
831.91	3325.9	
832.09	5305.6	
832.26	5650.3	
832.43	3852.9	
832.6	4323.9	
832.77	5276.3	
832.94	6052.4	
833.12	3068.5	
833.29	3751.2	
833.46	5434.6	
833.63	7094.2	
833.8	4170.3	
833.97	3902.1	
834.15	5618.9	
834.32	5436.7	
834.49	4085.7	
834.66	4126.7	
834.83	5831.9	
835	4737	
835.17	3742.3	
835.35	3745.1	
835.52	5505.6	
835.69	5482.4	
835.86	3932.8	
836.03	3218.7	
836.2	5547.3	
836.37	5255.8	
836.55	3852.2	
836.72	3590.8	
836.89	5193	
837.06	5742.5	
837.23	3940.3	
837.4	4250.9	
837.57	6414.2	
837.75	7100.3	
837.92	3517	
838.09	3766.2	
838.26	5193	
838.43	5950	
838.6	4025.6	
838.77	3627.6	
838.94	6737.1	
839.11	6481.1	
839.29	3860.4	
839.46	3060.3	
839.63	5606	
839.8	5311.7	
839.97	3736.9	
840.14	3685.7	
840.31	5368.4	
840.48	5679	
840.65	3066.5	
840.82	3843.4	
841	5623	
841.17	5504.9	
841.34	3435.8	
841.51	3435.8	
841.68	5536.3	
841.85	5297.4	
842.02	3620.1	
842.19	2966.8	
842.36	5352.7	
842.53	5367.7	
842.7	3421.5	
842.87	4214.7	
843.05	7124.2	
843.22	5281.7	
843.39	3284.9	
843.56	3536.8	
843.73	5085.1	
843.9	5709.1	
844.07	5571.2	
844.24	4617.5	
844.41	8210.3	
844.58	4874.2	
844.75	3278.1	
844.92	3627.6	
845.09	5638.7	
845.26	5579.3	
845.43	3453.6	
845.6	3639.9	
845.77	5601.9	
845.94	5302.9	
846.12	3759.4	
846.29	4036.5	
846.46	5833.3	
846.63	5650.3	
846.8	3407.1	
846.97	4118.5	
847.14	6081.8	
847.31	5594.4	
847.48	3901.4	
847.65	4283	
847.82	5874.3	
847.99	5817.6	
848.16	4695.3	
848.33	4287.1	
848.5	5175.2	
848.67	6042.2	
848.84	3423.5	
849.01	3581.9	
849.18	4999.1	
849.35	4673.5	
849.52	4326	
849.69	3407.1	
849.86	5812.8	
850.03	5999.9	
850.2	3489.1	
850.37	4158.1	
850.54	5920	
850.71	5268.1	
850.88	4114.4	
851.05	3339.6	
851.22	5543.2	
851.39	6195.8	
851.56	3285.6	
851.73	3921.9	
851.9	4905.6	
852.07	5823.7	
852.24	3820.1	
852.41	3394.2	
852.58	5395.7	
852.75	4973.8	
852.92	3818.1	
853.09	3358	
853.26	5159.5	
853.43	6040.8	
853.6	3388.7	
853.77	2934.7	
853.94	6116.6	
854.11	4906.3	
854.28	5059.8	
854.44	3697.9	
854.61	6543.3	
854.78	5870.2	
854.95	3461.1	
855.12	4265.9	
855.29	4481.6	
855.46	6337.1	
855.63	3352.5	
855.8	4740.4	
855.97	5148.6	
856.14	5890	
856.31	4850.3	
856.48	3706.8	
856.65	5158.8	
856.82	4894.6	
856.99	3284.3	
857.16	3732.8	
857.33	6821.8	
857.49	5199.8	
857.66	3682.9	
857.83	4018.8	
858	5221	
858.17	5425.8	
858.34	3235.1	
858.51	3398.3	
858.68	6299.6	
858.85	6300.2	
859.02	4006.5	
859.19	4128.7	
859.36	4851	
859.52	4985.4	
859.69	3465.2	
859.86	4053.6	
860.03	4957.4	
860.2	6138.4	
860.37	3085.6	
860.54	3457	
860.71	5813.5	
860.88	6237.4	
861.05	3822.2	
861.21	4347.8	
861.38	6231.3	
861.55	4761.5	
861.72	3102	
861.89	3822.2	
862.06	5857.2	
862.23	6336.4	
862.4	3380.5	
862.56	3523.2	
862.73	5749.3	
862.9	5311.1	
863.07	4022.9	
863.24	3148.4	
863.41	4799.1	
863.58	4934.2	
863.75	3510.9	
863.91	3987.4	
864.08	6161.7	
864.25	5757.5	
864.42	4326	
864.59	4812.7	
864.76	6527.6	
864.93	4931.5	
865.09	3368.2	
865.26	3677.5	
865.43	6053.8	
865.6	6463.4	
865.77	2994.8	
865.94	3360	
866.1	6162.3	
866.27	5844.2	
866.44	5148.6	
866.61	3229.6	
866.78	5328.8	
866.95	5775.3	
867.11	3259	
867.28	2979.8	
867.45	5912.5	
867.62	5009.3	
867.79	3953.9	
867.96	3370.3	
868.12	4865.3	
868.29	5843.5	
868.46	2960.7	
868.63	4558.1	
868.8	5989.6	
868.97	5784.8	
869.13	3557.3	
869.3	3633.1	
869.47	5709.1	
869.64	5928.2	
869.81	3450.8	
869.97	3394.8	
870.14	5594.4	
870.31	6238.1	
870.48	3304.7	
870.65	4226.3	
870.81	5225.1	
870.98	5339.1	
871.15	3887.7	
871.32	3506.8	
871.48	5694	
871.65	6313.2	
871.82	3410.6	
871.99	3790.8	
872.16	6735.8	
872.32	6199.9	
872.49	3465.2	
872.66	3508.2	
872.83	5850.4	
872.99	5112.4	
873.16	3923.2	
873.33	3353.2	
873.5	5443.5	
873.67	5458.5	
873.83	3524.6	
874	4576.5	
874.17	5617.6	
874.34	6636.1	
874.5	4439.3	
874.67	4323.9	
874.84	6200.6	
875.01	4859.8	
875.17	4873.5	
875.34	3388	
875.51	5539.1	
875.68	6636.1	
875.84	4151.9	
876.01	5024.3	
876.18	5741.8	
876.34	5692.7	
876.51	3383.2	
876.68	3354.6	
876.85	5280.3	
877.01	6070.9	
877.18	4862.6	
877.35	3361.4	
877.52	5441.5	
877.68	4844.1	
877.85	3330.7	
878.02	3382.6	
878.18	5375.2	
878.35	5158.2	
878.52	2776.4	
878.69	3825.6	
878.85	5816.9	
879.02	5765	
879.19	4848.9	
879.35	3744.4	
879.52	5788.9	
879.69	5951.4	
879.86	2947.7	
880.02	3887	
880.19	5385.5	
880.36	6552.8	
880.52	3877.5	
880.69	4051.6	
880.86	5844.2	
881.02	5935.7	
881.19	3708.9	
881.36	3750.5	
881.52	5828.5	
881.69	5056.4	
881.86	3669.3	
882.02	3601.7	
882.19	5990.3	
882.36	7114	
882.52	3549.1	
882.69	4885.1	
882.86	5553.4	
883.02	5412.1	
883.19	4189.5	
883.36	3964.2	
883.52	5870.8	
883.69	6733.7	
883.86	3434.4	
884.02	3087.7	
884.19	5839.4	
884.36	5414.8	
884.52	3863.8	
884.69	3634.5	
884.86	5141.8	
885.02	6479.8	
885.19	3801	
885.36	3923.9	
885.52	5367	
885.69	5500.2	
885.86	4952.7	
886.02	4364.2	
886.19	5806.7	
886.35	5279	
886.52	3777.1	
886.69	4810	
886.85	4944.5	
887.02	6154.1	
887.19	6154.1	
887.35	6154.1	
887.52	6154.1	
887.68	6154.1	
887.85	6154.1	
888.02	6154.1	
888.18	6154.1	
888.35	6154.1	
888.51	6154.1	
888.68	6154.1	
888.85	6154.1	
889.01	6154.1	
889.18	6154.1	
889.35	6154.1	
889.51	6154.1	
889.68	6154.1	
889.84	6154.1	
890.01	6154.1	
890.17	6154.1	
890.34	6154.1	
890.51	6154.1	
890.67	6154.1	
890.84	6154.1	
891	6154.1	
891.17	6154.1	
891.34	6154.1	
891.5	6154.1	
891.67	6154.1	
891.83	6154.1	
892	6154.1	
892.16	6154.1	
892.33	6154.1	
892.5	6154.1	
892.66	6154.1	
892.83	6154.1	
892.99	6154.1	
893.16	6154.1	
893.32	6154.1	
893.49	6154.1	
893.65	6154.1	
893.82	6154.1	
893.99	6154.1	
894.15	6154.1	
894.32	6154.1	
894.48	6154.1	
894.65	6154.1	
894.81	6154.1	
894.98	6154.1	
895.14	6154.1	
895.31	6154.1	
895.47	6154.1	
895.64	6154.1	
895.81	6154.1	
895.97	6154.1	
896.14	6154.1	
896.3	6154.1	
896.47	6154.1	
896.63	6154.1	
896.8	6154.1	
896.96	6154.1	
897.13	6154.1	
897.29	6154.1	
897.46	6154.1	
897.62	6154.1	
897.79	6154.1	
897.95	6154.1	
898.12	6154.1	
898.28	6154.1	
898.45	6154.1	
898.61	6154.1	
898.78	6154.1	
898.94	6154.1	
899.11	6154.1	
899.27	6154.1	
899.44	6154.1	
899.6	6154.1	
899.77	6154.1	
899.93	6154.1	
900.1	6154.1	
900.26	6154.1	
900.43	6154.1	
900.59	6154.1	
900.76	6154.1	
900.92	6154.1	
901.09	6154.1	
901.25	6154.1	
901.42	6154.1	
901.58	6154.1	
901.75	6154.1	
901.91	6154.1	
902.07	6154.1	
902.24	6154.1	
902.4	6154.1	
902.57	6154.1	
902.73	6154.1	
902.9	6154.1	
903.06	6154.1	
903.23	6154.1	
903.39	6154.1	
903.56	6154.1	
903.72	6154.1	
903.88	6154.1	
904.05	6154.1	
904.21	6154.1	
904.38	6154.1	
904.54	6154.1	
904.71	6154.1	
904.87	6154.1	
905.03	6154.1	
905.2	6154.1	
905.36	6154.1	
905.53	6154.1	
905.69	6154.1	
905.86	6154.1	
906.02	6154.1	
906.18	6154.1	
906.35	6154.1	
906.51	6154.1	
906.68	6154.1	
906.84	6154.1	
907.01	6154.1	
907.17	6154.1	
907.33	6154.1	
907.5	6154.1	
907.66	6154.1	
907.83	6154.1	
907.99	6154.1	
908.15	6154.1	
908.32	6154.1	
908.48	6154.1	
908.65	6154.1	
908.81	6154.1	
908.97	6154.1	
909.14	6154.1	
909.3	6154.1	
909.47	6154.1	
909.63	6154.1	
909.79	6154.1	
909.96	6154.1	
910.12	6154.1	
910.28	6154.1	
910.45	6154.1	
910.61	6154.1	
910.78	6154.1	
910.94	6154.1	
911.1	6154.1	
911.27	6154.1	
911.43	6154.1	
911.59	6154.1	
911.76	6154.1	
911.92	6154.1	
912.08	6154.1	
912.25	6154.1	
912.41	6154.1	
912.57	6154.1	
912.74	6154.1	
912.9	6154.1	
913.07	6154.1	
913.23	6154.1	
913.39	6154.1	
913.56	6154.1	
913.72	6154.1	
913.88	6154.1	
914.05	6154.1	
914.21	6154.1	
914.37	6154.1	
914.54	6154.1	
914.7	6154.1	
914.86	6154.1	
915.03	6154.1	
915.19	6154.1	
