Wavelength	Intensities	
nm	a.u.	
179.22	1902.1	
179.44	1903.6	
179.65	1900.5	
179.86	1906.7	
180.08	1892.3	
180.29	4999.8	
180.51	3521.1	
180.72	5681.1	
180.94	6663.4	
181.15	3265.1	
181.37	3209.8	
181.58	5485.8	
181.79	5821	
182.01	3407.8	
182.22	3615.3	
182.44	5799.2	
182.65	4846.9	
182.87	4575.8	
183.08	4004.5	
183.29	6085.9	
183.51	5058.5	
183.72	3710.2	
183.94	5387.5	
184.15	5400.5	
184.37	5495.4	
184.58	3209.2	
184.79	4509.6	
185.01	4962.9	
185.22	5791.7	
185.44	4667.3	
185.65	3919.8	
185.86	5307.7	
186.08	4902.8	
186.29	3160	
186.51	3386.7	
186.72	5059.2	
186.94	5983.5	
187.15	3834.5	
187.36	4065.9	
187.58	7802.1	
187.79	5567.1	
188.01	4259.1	
188.22	6645	
188.43	6712.6	
188.65	5778	
188.86	3377.1	
189.08	4001.7	
189.29	5208.7	
189.5	5229.1	
189.72	3831.1	
189.93	3837.9	
190.15	5969.1	
190.36	7225.2	
190.57	4179.9	
190.79	4007.9	
191	6068.1	
191.22	6064	
191.43	4134.2	
191.64	3411.2	
191.86	6313.9	
192.07	6081.8	
192.29	3552.5	
192.5	3773	
192.71	6013.5	
192.93	5127.4	
193.14	3740.3	
193.35	3850.2	
193.57	5195.7	
193.78	6003.3	
194	3011.2	
194.21	3619.4	
194.42	4954	
194.64	5477	
194.85	4091.2	
195.07	4771.8	
195.28	5460.6	
195.49	4763.6	
195.71	5072.1	
195.92	3506.1	
196.13	5635.3	
196.35	5813.5	
196.56	5339.7	
196.78	4031.1	
196.99	7135.8	
197.2	6595.1	
197.42	4597.7	
197.63	4123.9	
197.84	4781.3	
198.06	5644.9	
198.27	3762.1	
198.48	5019.6	
198.7	5232.6	
198.91	5324	
199.13	4040.6	
199.34	4074.8	
199.55	5840.8	
199.77	4743.1	
199.98	3609.9	
200.19	4142.4	
200.41	5232.6	
200.62	5005.9	
200.83	4269.3	
201.05	4578.6	
201.26	5333.6	
201.47	5084.4	
201.69	3624.9	
201.9	3497.9	
202.11	5395	
202.33	6443.6	
202.54	3889.1	
202.76	4341	
202.97	5566.4	
203.18	5565	
203.4	4247.5	
203.61	4188.8	
203.82	5529.5	
204.04	5130.8	
204.25	4208.6	
204.46	4003.1	
204.68	5425.1	
204.89	5701.5	
205.1	4061.1	
205.32	3493.2	
205.53	5847.6	
205.74	6021	
205.96	2940.2	
206.17	4192.9	
206.38	5840.1	
206.6	5929.6	
206.81	4706.9	
207.02	3795.6	
207.24	5685.8	
207.45	6053.8	
207.66	3900.7	
207.88	3331.4	
208.09	5629.2	
208.3	5441.5	
208.52	3582.6	
208.73	3930.7	
208.94	5465.3	
209.15	6115.9	
209.37	3878.9	
209.58	4157.4	
209.79	5997.1	
210.01	5220.3	
210.22	3106.1	
210.43	3235.8	
210.65	5437.4	
210.86	5844.9	
211.07	3926	
211.29	3613.3	
211.5	5810.8	
211.71	5384.8	
211.93	3541.6	
212.14	3594.9	
212.35	5386.2	
212.56	5569.1	
212.78	4154	
212.99	3443.3	
213.2	6440.2	
213.42	5225.1	
213.63	3736.9	
213.84	3966.2	
214.06	4823	
214.27	4923.3	
214.48	3876.8	
214.69	4193.6	
214.91	6102.9	
215.12	6236.1	
215.33	4227.7	
215.55	4633.2	
215.76	6699.6	
215.97	5883.8	
216.18	4003.8	
216.4	3982.6	
216.61	5089.2	
216.82	6001.9	
217.04	3579.8	
217.25	3791.5	
217.46	6151.4	
217.67	5875.6	
217.89	3188.7	
218.1	3368.2	
218.31	5489.2	
218.53	5616.2	
218.74	3791.5	
218.95	3648.1	
219.16	5410.7	
219.38	6383.5	
219.59	3700.7	
219.8	4388.1	
220.01	7125.6	
220.23	5522.7	
220.44	4816.8	
220.65	3543	
220.87	5539.1	
221.08	6007.4	
221.29	3284.9	
221.5	4548.5	
221.72	7494.9	
221.93	5147.9	
222.14	4186.7	
222.35	4821.6	
222.57	5431.9	
222.78	5844.2	
222.99	3944.4	
223.2	4228.4	
223.42	5769.8	
223.63	5954.1	
223.84	2998.9	
224.05	3016.7	
224.27	6942.6	
224.48	6379.4	
224.69	5108.3	
224.9	4125.3	
225.12	5621.7	
225.33	5403.2	
225.54	3342.3	
225.75	3620.1	
225.97	5014.8	
226.18	5309	
226.39	3951.2	
226.6	3638.6	
226.82	5238.7	
227.03	5025	
227.24	4100.7	
227.45	3391.4	
227.67	5831.9	
227.88	6402.6	
228.09	4597	
228.3	4628.4	
228.52	5917.9	
228.73	5385.5	
228.94	3787.4	
229.15	3404.4	
229.36	5426.4	
229.58	5283.1	
229.79	3855.6	
230	4483.7	
230.21	6507.1	
230.43	5547.3	
230.64	4069.3	
230.85	4232.5	
231.06	5897.5	
231.28	5893.4	
231.49	3358.7	
231.7	4000.4	
231.91	5851.7	
232.12	5489.9	
232.34	3480.2	
232.55	3999	
232.76	6113.2	
232.97	5623	
233.18	3558	
233.4	4073.4	
233.61	5706.3	
233.82	5212.8	
234.03	3789.4	
234.25	3680.2	
234.46	7589.1	
234.67	5505.6	
234.88	4184.7	
235.09	3653.6	
235.31	5775.3	
235.52	5345.9	
235.73	4075.5	
235.94	3467.9	
236.15	5139.7	
236.37	6658.6	
236.58	3575.1	
236.79	4012.7	
237	5791.7	
237.21	4958.8	
237.43	4177.2	
237.64	3341.6	
237.85	9984.5	
238.06	5008	
238.27	4270	
238.48	3420.8	
238.7	5769.8	
238.91	5248.9	
239.12	3923.9	
239.33	3919.8	
239.54	5041.4	
239.76	5398.4	
239.97	3906.8	
240.18	3937.6	
240.39	6858.6	
240.6	5795.1	
240.82	4061.8	
241.03	3350.5	
241.24	5421.7	
241.45	6316.6	
241.66	3586.7	
241.87	4182.6	
242.09	6182.8	
242.3	6576.7	
242.51	4227	
242.72	3943	
242.93	5928.9	
243.14	5382.7	
243.36	4585.4	
243.57	5018.9	
243.78	6363	
243.99	5844.9	
244.2	3986.7	
244.41	3571.7	
244.63	4954.7	
244.84	5753.4	
245.05	4255.7	
245.26	3917.8	
245.47	5777.3	
245.68	6016.2	
245.9	5236.7	
246.11	4188.8	
246.32	5302.2	
246.53	5698.1	
246.74	6483.2	
246.95	3334.8	
247.16	4951.3	
247.38	5431.2	
247.59	3302	
247.8	3991.5	
248.01	5116.5	
248.22	5382.1	
248.43	3546.4	
248.64	3943.7	
248.86	4835.9	
249.07	5208	
249.28	3483.6	
249.49	4020.8	
249.7	5995.1	
249.91	6186.9	
250.12	3318.4	
250.34	3345	
250.55	5569.8	
250.76	5441.5	
250.97	4117.1	
251.18	4111	
251.39	6169.2	
251.6	5640.8	
251.81	4216.1	
252.03	4134.2	
252.24	5179.3	
252.45	6046.3	
252.66	3453.6	
252.87	4424.3	
253.08	5464.7	
253.29	7172	
253.5	3449.5	
253.72	4801.8	
253.93	5266	
254.14	6472.3	
254.35	3766.9	
254.56	3828.3	
254.77	5728.9	
254.98	5012.7	
255.19	3698.6	
255.41	4771.1	
255.62	5550	
255.83	6201.2	
256.04	4206.5	
256.25	4130.8	
256.46	6788.3	
256.67	5088.5	
256.88	4082.3	
257.09	4476.9	
257.31	5093.3	
257.52	5147.2	
257.73	5139.7	
257.94	3689.1	
258.15	5289.9	
258.36	5514.5	
258.57	4686.4	
258.78	3036.5	
258.99	5954.1	
259.2	5270.8	
259.41	3796.3	
259.63	3860.4	
259.84	6287.9	
260.05	6778.1	
260.26	4943.8	
260.47	3660.4	
260.68	6024.4	
260.89	5381.4	
261.1	4532.2	
261.31	3573.7	
261.52	6045.6	
261.73	6449.7	
261.95	4861.2	
262.16	4238.6	
262.37	6221	
262.58	6225.8	
262.79	4745.1	
263	3806.5	
263.21	5534.3	
263.42	4967.7	
263.63	3852.9	
263.84	3801.7	
264.05	5989.6	
264.26	6411.5	
264.47	4669.4	
264.69	4253.6	
264.9	6201.2	
265.11	5674.2	
265.32	3605.8	
265.53	3738.9	
265.74	5629.9	
265.95	4896	
266.16	3987.4	
266.37	4476.9	
266.58	5567.1	
266.79	5312.4	
267	3712.3	
267.21	3445.4	
267.42	5059.8	
267.63	5445.5	
267.84	3946.4	
268.06	3386.7	
268.27	5904.3	
268.48	6241.5	
268.69	3806.5	
268.9	4519.9	
269.11	6107.7	
269.32	4938.3	
269.53	4001.7	
269.74	3591.5	
269.95	5815.5	
270.16	4799.1	
270.37	3976.5	
270.58	4592.9	
270.79	5332.2	
271	5982.8	
271.21	4176.5	
271.42	3984.7	
271.63	5558.2	
271.84	5080.3	
272.05	3146.4	
272.26	3583.3	
272.47	5481	
272.68	5728.9	
272.89	3758	
273.11	4465.3	
273.32	5281.7	
273.53	6425.2	
273.74	4276.8	
273.95	4160.1	
274.16	6081.1	
274.37	5504.3	
274.58	4373.8	
274.79	3451.5	
275	5481.7	
275.21	6131.6	
275.42	5171.8	
275.63	4455.7	
275.84	5730.9	
276.05	7198.6	
276.26	4178.5	
276.47	3860.4	
276.68	5270.1	
276.89	6549.4	
277.1	4450.2	
277.31	3448.1	
277.52	5720.7	
277.73	5889.3	
277.94	3405.8	
278.15	3803.8	
278.36	5704.3	
278.57	5157.5	
278.78	3781.9	
278.99	4281.6	
279.2	5070.8	
279.41	5001.1	
279.62	5014.8	
279.83	3530	
280.04	6751.5	
280.25	4955.4	
280.46	5043.5	
280.67	3996.3	
280.88	5096	
281.09	6166.4	
281.3	4176.5	
281.51	5289.9	
281.72	5185.5	
281.93	6008.7	
282.14	3699.3	
282.35	3997.6	
282.56	5921.4	
282.77	5916.6	
282.98	3771.7	
283.19	4666	
283.4	7322.9	
283.61	5440.1	
283.82	3491.8	
284.03	4933.6	
284.24	5543.9	
284.45	6139.8	
284.66	4886.5	
284.87	4711.7	
285.08	6021	
285.29	6210.1	
285.5	3308.8	
285.71	3861.1	
285.92	6126.2	
286.12	6798.6	
286.33	4831.8	
286.54	3835.8	
286.75	6019.7	
286.96	5330.9	
287.17	3526.6	
287.38	4751.3	
287.59	5109	
287.8	5025	
288.01	3911.6	
288.22	4463.9	
288.43	6024.4	
288.64	4990.2	
288.85	4588.8	
289.06	4304.1	
289.27	5952.8	
289.48	6386.2	
289.69	4902.2	
289.9	4476.2	
290.11	6102.9	
290.32	5183.4	
290.53	4650.3	
290.74	4248.9	
290.94	5885.9	
291.15	5978	
291.36	3748.5	
291.57	4453	
291.78	5233.9	
291.99	4825.7	
292.2	3606.5	
292.41	4310.3	
292.62	6061.3	
292.83	5770.5	
293.04	5320.6	
293.25	3534.1	
293.46	5266.7	
293.67	6072.9	
293.88	3662.5	
294.09	3545.7	
294.29	5017.5	
294.5	5621	
294.71	3951.2	
294.92	3812	
295.13	5259.2	
295.34	6588.3	
295.55	3319.8	
295.76	3386.7	
295.97	5922	
296.18	6683.2	
296.39	3504.1	
296.6	3781.9	
296.81	5613.5	
297.01	5893.4	
297.22	3874.8	
297.43	3619.4	
297.64	5141.8	
297.85	5088.5	
298.06	3037.1	
298.27	3350.5	
298.48	5513.1	
298.69	5191.6	
298.9	3994.2	
299.11	3619.4	
299.31	5044.8	
299.52	4991.6	
299.73	4369.7	
299.94	4193.6	
300.15	5507.7	
300.36	5066	
300.57	4252.9	
300.78	4186.7	
300.99	5330.9	
301.2	5659.2	
301.4	3662.5	
301.61	4050.2	
301.82	5770.5	
302.03	5945.3	
302.24	4491.2	
302.45	3506.1	
302.66	5771.9	
302.87	6250.4	
303.08	3721.2	
303.29	5096.7	
303.49	5148.6	
303.7	5498.1	
303.91	3245.3	
304.12	4814.8	
304.33	4988.2	
304.54	5627.8	
304.75	3741.6	
304.96	3525.2	
305.16	5816.9	
305.37	6608.1	
305.58	3218	
305.79	3348.4	
306	5807.4	
306.21	4913.1	
306.42	3660.4	
306.63	5683.1	
306.83	5375.2	
307.04	6102.3	
307.25	4083	
307.46	4077.5	
307.67	4717.2	
307.88	5930.2	
308.09	3665.9	
308.29	3768.9	
308.5	5618.3	
308.71	6088.6	
308.92	3964.2	
309.13	3537.5	
309.34	5324	
309.55	5395.7	
309.75	4662.5	
309.96	4218.8	
310.17	5870.2	
310.38	5112.4	
310.59	4476.9	
310.8	3487	
311.01	5384.8	
311.21	5346.6	
311.42	3488.4	
311.63	3619.4	
311.84	5177.9	
312.05	5621.7	
312.26	4172.4	
312.46	4512.4	
312.67	5313.8	
312.88	5008	
313.09	3609.9	
313.3	3519.8	
313.51	6320	
313.71	6640.2	
313.92	3578.5	
314.13	3723.9	
314.34	5676.3	
314.55	5398.4	
314.76	4656.4	
314.96	4012.7	
315.17	5564.3	
315.38	6061.3	
315.59	3564.1	
315.8	3429.7	
316.01	6383.5	
316.21	6395.1	
316.42	3461.7	
316.63	3966.2	
316.84	5358.9	
317.05	6227.2	
317.26	4255	
317.46	3827.7	
317.67	5384.1	
317.88	5881.8	
318.09	4590.2	
318.3	3368.2	
318.5	5142.4	
318.71	5782.1	
318.92	5874.3	
319.13	4197.7	
319.34	5992.4	
319.54	6127.5	
319.75	3379.8	
319.96	3201.7	
320.17	5868.1	
320.38	6031.3	
320.58	3226.9	
320.79	3929.4	
321	6148.7	
321.21	6134.3	
321.42	3997.6	
321.62	3307.5	
321.83	5066.7	
322.04	5474.9	
322.25	3734.1	
322.46	3583.3	
322.66	5603.2	
322.87	5760.3	
323.08	4419.5	
323.29	3531.4	
323.5	6533	
323.7	5001.1	
323.91	4909.7	
324.12	4418.2	
324.33	5542.5	
324.53	5838.1	
324.74	4227.7	
324.95	4386.7	
325.16	4829.8	
325.37	5291.3	
325.57	3611.9	
325.78	3653.6	
325.99	5510.4	
326.2	4973.2	
326.4	5074.2	
326.61	3308.8	
326.82	5400.5	
327.03	5627.1	
327.24	5151.3	
327.44	4809.3	
327.65	5771.9	
327.86	4705.5	
328.07	4224.3	
328.27	3444.7	
328.48	6242.9	
328.69	5071.5	
328.9	5154.7	
329.1	3908.9	
329.31	5357.5	
329.52	6347.3	
329.73	3638.6	
329.93	4059.1	
330.14	5446.2	
330.35	5732.3	
330.56	5846.3	
330.76	4425.7	
330.97	5299.5	
331.18	5668.8	
331.39	3986	
331.59	3229	
331.8	6098.9	
332.01	6247	
332.22	3687	
332.42	4189.5	
332.63	5657.9	
332.84	5169.8	
333.05	4065.2	
333.25	3677.5	
333.46	5285.8	
333.67	5494	
333.88	3763.5	
334.08	4165.6	
334.29	7333.1	
334.5	6146	
334.7	3457.7	
334.91	5156.1	
335.12	5025.7	
335.33	5900.2	
335.53	3929.4	
335.74	5973.2	
335.95	5238	
336.16	5114.5	
336.36	3988.1	
336.57	4654.4	
336.78	4942.4	
336.98	6085.9	
337.19	4926.7	
337.4	3901.4	
337.61	6663.4	
337.81	4955.4	
338.02	3631	
338.23	4810.7	
338.43	6296.1	
338.64	5119.9	
338.85	3642.7	
339.05	4693.9	
339.26	6318	
339.47	4947.9	
339.68	3609.2	
339.88	5326.1	
340.09	5715.9	
340.3	5997.8	
340.5	4324.6	
340.71	3259.7	
340.92	4956.1	
341.13	6265.4	
341.33	3534.8	
341.54	4274.1	
341.75	5746.6	
341.95	5406.6	
342.16	4077.5	
342.37	4427	
342.57	5048.9	
342.78	5455.8	
342.99	4474.1	
343.19	3268.6	
343.4	5950	
343.61	5731.6	
343.81	3825.6	
344.02	3509.5	
344.23	5945.3	
344.43	6327.5	
344.64	4485.1	
344.85	4313.7	
345.06	5773.2	
345.26	6158.9	
345.47	4188.8	
345.68	4913.1	
345.88	4877.6	
346.09	5926.1	
346.3	4239.3	
346.5	3166.2	
346.71	5466	
346.92	5148.6	
347.12	3321.1	
347.33	4168.3	
347.54	6099.5	
347.74	6477.7	
347.95	4153.3	
348.16	3052.8	
348.36	5322	
348.57	4927.4	
348.78	4136.9	
348.98	4459.1	
349.19	5412.1	
349.39	4983.4	
349.6	3327.3	
349.81	3665.2	
350.01	5728.9	
350.22	5186.1	
350.43	3935.5	
350.63	4791.6	
350.84	5527.5	
351.05	5306.3	
351.25	3644	
351.46	3243.3	
351.67	6034	
351.87	5192.3	
352.08	3850.9	
352.29	4428.4	
352.49	5965.1	
352.7	6049.7	
352.9	3528.7	
353.11	4451.6	
353.32	6686.6	
353.52	5260.5	
353.73	3433.1	
353.94	4425.7	
354.14	5799.2	
354.35	5610.1	
354.55	3551.9	
354.76	4029.7	
354.97	5762.3	
355.17	5560.2	
355.38	3367.5	
355.59	4724	
355.79	5166.3	
356	5604.6	
356.2	3956	
356.41	3446.7	
356.62	4870.1	
356.82	5436.7	
357.03	4252.9	
357.24	3781.9	
357.44	5191.6	
357.65	5223	
357.85	5182	
358.06	4014	
358.27	4876.9	
358.47	5177.9	
358.68	3316.3	
358.88	4229.7	
359.09	5692.7	
359.3	6053.8	
359.5	4949.9	
359.71	4355.3	
359.91	6581.5	
360.12	5831.2	
360.33	4155.3	
360.53	4689.8	
360.74	5134.3	
360.94	5189.6	
361.15	4369.7	
361.36	3646.1	
361.56	5962.3	
361.77	5339.7	
361.97	4855.1	
362.18	3881.6	
362.38	5971.9	
362.59	5048.2	
362.8	3587.4	
363	3337.5	
363.21	4800.4	
363.41	5495.4	
363.62	4115.1	
363.83	5154.7	
364.03	5628.5	
364.24	6614.3	
364.44	5212.1	
364.65	5134.3	
364.85	5321.3	
365.06	4982	
365.27	3700	
365.47	3771	
365.68	6384.2	
365.88	5274.9	
366.09	4103.4	
366.29	3728	
366.5	5623	
366.71	6012.2	
366.91	5139	
367.12	4311	
367.32	6637.5	
367.53	5894.1	
367.73	4234.5	
367.94	5242.8	
368.14	5830.6	
368.35	6772.6	
368.56	4209.9	
368.76	3750.5	
368.97	5959.6	
369.17	7623.2	
369.38	3695.2	
369.58	3999.7	
369.79	4937.7	
369.99	6343.9	
370.2	5011.4	
370.4	4086.4	
370.61	5640.1	
370.82	6836.8	
371.02	3949.8	
371.23	3300.6	
371.43	4857.8	
371.64	6281.8	
371.84	3975.8	
372.05	5296.7	
372.25	7573.4	
372.46	5967.1	
372.66	4055	
372.87	3977.8	
373.07	6021	
373.28	7633.5	
373.48	5044.1	
373.69	4748.6	
373.9	5352.7	
374.1	5391.6	
374.31	4954.7	
374.51	4437.9	
374.72	6279.8	
374.92	5067.4	
375.13	5191.6	
375.33	4321.2	
375.54	5791	
375.74	5253	
375.95	4341.7	
376.15	5662.6	
376.36	5835.3	
376.56	5643.5	
376.77	4394.3	
376.97	4840	
377.18	6921.5	
377.38	5912.5	
377.59	5244.2	
377.79	3921.9	
378	5759.6	
378.2	6112.5	
378.41	4006.5	
378.61	3930.7	
378.82	6152.8	
379.02	5272.2	
379.23	4144.4	
379.43	5255.8	
379.64	6312.5	
379.84	5893.4	
380.05	3901.4	
380.25	3859.1	
380.46	6006.7	
380.66	5565	
380.87	5365	
381.07	5715.2	
381.28	6647.7	
381.48	5997.1	
381.69	4057	
381.89	4046.8	
382.1	4987.5	
382.3	6213.5	
382.51	5167.7	
382.71	6138.4	
382.91	6032.6	
383.12	6608.8	
383.32	4379.9	
383.53	4655.7	
383.73	5887.9	
383.94	5711.1	
384.14	4525.3	
384.35	3629	
384.55	5532.9	
384.76	6070.9	
384.96	4353.3	
385.17	4780	
385.37	6059.3	
385.58	5314.5	
385.78	4780	
385.98	3555.3	
386.19	5506.3	
386.39	5913.2	
386.6	4186.7	
386.8	4312.3	
387.01	6081.8	
387.21	6074.3	
387.42	4814.1	
387.62	5487.2	
387.83	5330.2	
388.03	6061.3	
388.23	4395.6	
388.44	5358.2	
388.64	4982	
388.85	5154.1	
389.05	4775.9	
389.26	5465.3	
389.46	7047.7	
389.67	6450.4	
389.87	4741	
390.07	4868	
390.28	5686.5	
390.48	5167	
390.69	3973.7	
390.89	4375.1	
391.1	5374.6	
391.3	6369.2	
391.5	5547.3	
391.71	6212.2	
391.91	6085.9	
392.12	7228.6	
392.32	5698.8	
392.53	4853.7	
392.73	5570.5	
392.93	5756.8	
393.14	4530.8	
393.34	5325.4	
393.55	6274.3	
393.75	5649	
393.95	4482.3	
394.16	4416.8	
394.36	5451.7	
394.57	6191.7	
394.77	3941	
394.98	4313.7	
395.18	5324.7	
395.38	5503.6	
395.59	5304.9	
395.79	4155.3	
396	5498.1	
396.2	6013.5	
396.4	5070.8	
396.61	4991.6	
396.81	6221	
397.02	5489.9	
397.22	5324	
397.42	5337.7	
397.63	6171.2	
397.83	5347.9	
398.04	4093.2	
398.24	4674.8	
398.44	6023.1	
398.65	5105.6	
398.85	4006.5	
399.05	4132.8	
399.26	5399.1	
399.46	7256	
399.67	4513	
399.87	4243.4	
400.07	5757.5	
400.28	6088.6	
400.48	4374.5	
400.69	5438	
400.89	6410.8	
401.09	6805.4	
401.3	4231.8	
401.5	5426.4	
401.7	7122.2	
401.91	7320.1	
402.11	4575.2	
402.32	4856.4	
402.52	6426.5	
402.72	6350.1	
402.93	5044.8	
403.13	3879.5	
403.33	7189.7	
403.54	5862.7	
403.74	4747.2	
403.94	5621	
404.15	5943.9	
404.35	7138.5	
404.56	4536.9	
404.76	6420.4	
404.96	6361	
405.17	6158.9	
405.37	5807.4	
405.57	5019.6	
405.78	6404	
405.98	5909.8	
406.18	5316.5	
406.39	5520	
406.59	6448.4	
406.79	6051.1	
407	4345.8	
407.2	4496	
407.4	6426.5	
407.61	6671.6	
407.81	4433.2	
408.01	6490.7	
408.22	5458.5	
408.42	7417.7	
408.62	5518.6	
408.83	4910.3	
409.03	6067.4	
409.23	5846.3	
409.44	5123.3	
409.64	5377.3	
409.84	7035.5	
410.05	6858	
410.25	5231.2	
410.45	4953.4	
410.66	6305.7	
410.86	8908.7	
411.06	5421	
411.27	5332.9	
411.47	8649.9	
411.67	6557.6	
411.88	5636	
412.08	5878.4	
412.28	7262.1	
412.49	7762.5	
412.69	5341.1	
412.89	5393	
413.09	7494.2	
413.3	7372.7	
413.5	5423.7	
413.7	5037.3	
413.91	6614.3	
414.11	7554.3	
414.31	5261.2	
414.52	5768.4	
414.72	7247.8	
414.92	7122.2	
415.12	5258.5	
415.33	5868.8	
415.53	7570.7	
415.73	7645.8	
415.94	6235.4	
416.14	5558.9	
416.34	6476.4	
416.55	6287.9	
416.75	6911.2	
416.95	6293.4	
417.15	7451.2	
417.36	8243.8	
417.56	7059.3	
417.76	6064.7	
417.97	7899	
418.17	7551.5	
418.37	5689.9	
418.57	5751.4	
418.78	7362.4	
418.98	6924.9	
419.18	6636.1	
419.38	6561	
419.59	7084.6	
419.79	6653.2	
419.99	5604.6	
420.2	6062.7	
420.4	7624.6	
420.6	7837.6	
420.8	5468.8	
421.01	5376.6	
421.21	7443.7	
421.41	7634.1	
421.61	5909.8	
421.82	5658.5	
422.02	6905.1	
422.22	7846.5	
422.42	6543.9	
422.63	6094.8	
422.83	7077.1	
423.03	8299.1	
423.23	6099.5	
423.44	5102.2	
423.64	7150.1	
423.84	6918	
424.04	5556.1	
424.25	5266	
424.45	8121.6	
424.65	7989.8	
424.85	4982	
425.06	5655.1	
425.26	7902.4	
425.46	6506.4	
425.66	6179.4	
425.87	5816.2	
426.07	7844.4	
426.27	7679.2	
426.47	5935	
426.67	5324	
426.88	8206.9	
427.08	7563.1	
427.28	6253.1	
427.48	5208	
427.69	6573.3	
427.89	7219.8	
428.09	6155.5	
428.29	5272.2	
428.5	7928.4	
428.7	7301.7	
428.9	5273.5	
429.1	5793	
429.3	7260	
429.51	7754.3	
429.71	5472.2	
429.91	6374.6	
430.11	7634.8	
430.31	7862.2	
430.52	5895.4	
430.72	6181.5	
430.92	8209.6	
431.12	7731.8	
431.32	5529.5	
431.53	5970.5	
431.73	6593.8	
431.93	8359.8	
432.13	5492.7	
432.33	5300.1	
432.54	7060	
432.74	7465.5	
432.94	5255.8	
433.14	6437.4	
433.34	7615	
433.55	7151.5	
433.75	6324.1	
433.95	8084	
434.15	7391.1	
434.35	7095.5	
434.56	5468.8	
434.76	5020.3	
434.96	7290.8	
435.16	7684.7	
435.36	5436.7	
435.56	6495.5	
435.77	6989.7	
435.97	7185	
436.17	7281.2	
436.37	6475	
436.57	7098.3	
436.78	6972.7	
436.98	8364.6	
437.18	7171.3	
437.38	7812.3	
437.58	7224.6	
437.78	7316.7	
437.99	5888.6	
438.19	7841	
438.39	8657.4	
438.59	5789.6	
438.79	5346.6	
438.99	8582.4	
439.2	7309.9	
439.4	5407.3	
439.6	5369.8	
439.8	7637.6	
440	8725	
440.2	6541.9	
440.4	6582.2	
440.61	8090.8	
440.81	8697	
441.01	5643.5	
441.21	6538.5	
441.41	8523.6	
441.61	8009.6	
441.81	6896.9	
442.02	8076.5	
442.22	9065.7	
442.42	8178.9	
442.62	5797.1	
442.82	5750	
443.02	8488.8	
443.22	7636.9	
443.43	6279.1	
443.63	5738.4	
443.83	7375.4	
444.03	7411.6	
444.23	7072.3	
444.43	6686.6	
444.63	7804.8	
444.83	9028.1	
445.04	5943.2	
445.24	7370	
445.44	8221.2	
445.64	8260.8	
445.84	6789.7	
446.04	6842.9	
446.24	7524.2	
446.44	8551.6	
446.65	5849.7	
446.85	6356.2	
447.05	7802.1	
447.25	8539.3	
447.45	6413.6	
447.65	5887.2	
447.85	7914.7	
448.05	7447.8	
448.25	6931	
448.46	6726.9	
448.66	7926.3	
448.86	7578.2	
449.06	5649	
449.26	6941.2	
449.46	8301.8	
449.66	7244.3	
449.86	6408.1	
450.06	6403.3	
450.26	7576.1	
450.47	8193.9	
450.67	6705.7	
450.87	7029.3	
451.07	8202.8	
451.27	7974.1	
451.47	5974.6	
451.67	6586.3	
451.87	7623.9	
452.07	8829.5	
452.27	6316.6	
452.47	6236.7	
452.67	7976.2	
452.88	8445.8	
453.08	5632.6	
453.28	7704.5	
453.48	9222.7	
453.68	7895.6	
453.88	6199.9	
454.08	6363	
454.28	8325.7	
454.48	7986.4	
454.68	6972	
454.88	7499.7	
455.08	8454	
455.28	8277.2	
455.48	6093.4	
455.68	6714.6	
455.89	9035	
456.09	8707.3	
456.29	6528.9	
456.49	6526.2	
456.69	8899.1	
456.89	8006.9	
457.09	7094.8	
457.29	7369.3	
457.49	8417.2	
457.69	8596.7	
457.89	6909.8	
458.09	6263.4	
458.29	8245.8	
458.49	8968.1	
458.69	7303.7	
458.89	6726.2	
459.09	9291.6	
459.29	9398.1	
459.49	6812.9	
459.69	7650.5	
459.9	8789.2	
460.1	8313.4	
460.3	6801.3	
460.5	6479.1	
460.7	8822	
460.9	8513.4	
461.1	6153.5	
461.3	7586.4	
461.5	9504.6	
461.7	9063.6	
461.9	6755.6	
462.1	7105.8	
462.3	8464.3	
462.5	9174.2	
462.7	6809.5	
462.9	6946.7	
463.1	10382	
463.3	9890.3	
463.5	7121.5	
463.7	8182.3	
463.9	8888.2	
464.1	9232.9	
464.3	7341.3	
464.5	7508.5	
464.7	9486.2	
464.9	9226.8	
465.1	8997.4	
465.3	7959.8	
465.5	9863	
465.7	9986.6	
465.9	8229.4	
466.1	8169.3	
466.3	9832.3	
466.5	9552.4	
466.7	9002.2	
466.9	7907.9	
467.1	9465.7	
467.3	10541	
467.5	8959.2	
467.7	7801.4	
467.9	10765	
468.1	11696	
468.3	8658.8	
468.5	9108	
468.7	9566.1	
468.9	9637.7	
469.1	8102.4	
469.3	8880	
469.5	11623	
469.7	9160.6	
469.9	8694.3	
470.1	7955	
470.3	9602.2	
470.5	9655.5	
470.7	9240.4	
470.9	7946.1	
471.1	9405	
471.3	9809.8	
471.5	7838.9	
471.69	9767.4	
471.89	9252	
472.09	8763.3	
472.29	8731.9	
472.49	9065.7	
472.69	9116.9	
472.89	9985.2	
473.09	7703.1	
473.29	7872.4	
473.49	9263.6	
473.69	9394	
473.89	8965.3	
474.09	8013	
474.29	10563	
474.49	10277	
474.69	8948.3	
474.89	8234.2	
475.09	9441.1	
475.29	9470.5	
475.49	7635.5	
475.69	7876.5	
475.88	11030	
476.08	9701.9	
476.28	7498.3	
476.48	8077.9	
476.68	10165	
476.88	10063	
477.08	7846.5	
477.28	8177.5	
477.48	9495.7	
477.68	10105	
477.88	7643	
478.08	7901.7	
478.28	10488	
478.48	9627.5	
478.67	8113.4	
478.87	7440.3	
479.07	10395	
479.27	9731.3	
479.47	8249.9	
479.67	8358.4	
479.87	10168	
480.07	10775	
480.27	7570.7	
480.47	9222	
480.67	9879.4	
480.87	10518	
481.06	7856	
481.26	8856.1	
481.46	9897.2	
481.66	9739.5	
481.86	8538.7	
482.06	9450	
482.26	9418.6	
482.46	10490	
482.66	8349.6	
482.86	7939.3	
483.05	9912.9	
483.25	9355.8	
483.45	10783	
483.65	8424.7	
483.85	9490.3	
484.05	9911.5	
484.25	8798.8	
484.45	9381.1	
484.65	10743	
484.84	10780	
485.04	8321.6	
485.24	8370.7	
485.44	11000	
485.64	9364	
485.84	7685.3	
486.04	9122.3	
486.24	9706	
486.44	10130	
486.63	7663.5	
486.83	8540	
487.03	9598.1	
487.23	9915.6	
487.43	7809.6	
487.63	10337	
487.83	9931.3	
488.02	11000	
488.22	8854.7	
488.42	9499.2	
488.62	10911	
488.82	9910.1	
489.02	8471.1	
489.22	8574.8	
489.41	10721	
489.61	10344	
489.81	8148.2	
490.01	8291.5	
490.21	10684	
490.41	11447	
490.61	8200.7	
490.8	8359.1	
491	10195	
491.2	9439.1	
491.4	8959.2	
491.6	8000.7	
491.8	10138	
491.99	10307	
492.19	7940.7	
492.39	8396	
492.59	10735	
492.79	10814	
492.99	9170.1	
493.18	8308.6	
493.38	10874	
493.58	11878	
493.78	9058.2	
493.98	8776.9	
494.18	10683	
494.37	10145	
494.57	9453.4	
494.77	9320.3	
494.97	10974	
495.17	11245	
495.37	8947.6	
495.56	9202.9	
495.76	11531	
495.96	11052	
496.16	10283	
496.36	9247.3	
496.55	11351	
496.75	10914	
496.95	9610.4	
497.15	9450.7	
497.35	11290	
497.54	11267	
497.74	9277.3	
497.94	11006	
498.14	12159	
498.34	11955	
498.53	9123.7	
498.73	9896.5	
498.93	10819	
499.13	11462	
499.33	9643.9	
499.52	10208	
499.72	11414	
499.92	11783	
500.12	9428.2	
500.32	9594.1	
500.51	11713	
500.71	11589	
500.91	10488	
501.11	10094	
501.31	11691	
501.5	12185	
501.7	10667	
501.9	9686.9	
502.1	11563	
502.29	11826	
502.49	10206	
502.69	10541	
502.89	11688	
503.09	11727	
503.28	9127.8	
503.48	9290.3	
503.68	10853	
503.88	10786	
504.07	10279	
504.27	9737.4	
504.47	11241	
504.67	11424	
504.86	10237	
505.06	9897.8	
505.26	10884	
505.46	12814	
505.65	9693	
505.85	9960.6	
506.05	10756	
506.25	11421	
506.44	8994	
506.64	9931.3	
506.84	10750	
507.04	11723	
507.23	9183.1	
507.43	9864.4	
507.63	12705	
507.83	10918	
508.02	9893.7	
508.22	9439.1	
508.42	13155	
508.62	10718	
508.81	9599.5	
509.01	10356	
509.21	10547	
509.4	10935	
509.6	9863	
509.8	9262.3	
510	10811	
510.19	12461	
510.39	9320.3	
510.59	9296.4	
510.79	10794	
510.98	12223	
511.18	9439.8	
511.38	9542.9	
511.57	11639	
511.77	11408	
511.97	10158	
512.17	9144.2	
512.36	11553	
512.56	11578	
512.76	9297.8	
512.95	9056.8	
513.15	11692	
513.35	10354	
513.55	10210	
513.74	9285.5	
513.94	11609	
514.14	11102	
514.33	10400	
514.53	9955.2	
514.73	10961	
514.92	11269	
515.12	9421.3	
515.32	9365.4	
515.51	11225	
515.71	11997	
515.91	11041	
516.11	9415.9	
516.3	13119	
516.5	10968	
516.7	10042	
516.89	10651	
517.09	11037	
517.29	10882	
517.48	10435	
517.68	9607.7	
517.88	10848	
518.07	11363	
518.27	10317	
518.47	9181	
518.66	11983	
518.86	10529	
519.06	9071.1	
519.25	9508.7	
519.45	10877	
519.65	12625	
519.84	10230	
520.04	11109	
520.24	12888	
520.43	11449	
520.63	9866.4	
520.83	9616.6	
521.02	10791	
521.22	11454	
521.42	10149	
521.61	10665	
521.81	10898	
522.01	11224	
522.2	9992	
522.4	9860.3	
522.6	11809	
522.79	10451	
522.99	9897.8	
523.18	9247.9	
523.38	11596	
523.58	11529	
523.77	11423	
523.97	9310.1	
524.17	13644	
524.36	12696	
524.56	10839	
524.76	10478	
524.95	11792	
525.15	11398	
525.34	10270	
525.54	10398	
525.74	12198	
525.93	11090	
526.13	11536	
526.33	10315	
526.52	12683	
526.72	12052	
526.91	11590	
527.11	10889	
527.31	12624	
527.5	13112	
527.7	10796	
527.89	9855.5	
528.09	11613	
528.29	12210	
528.48	11281	
528.68	10888	
528.87	12608	
529.07	12510	
529.27	10776	
529.46	10250	
529.66	12234	
529.85	12551	
530.05	10172	
530.25	10997	
530.44	13704	
530.64	12063	
530.83	10535	
531.03	10912	
531.23	12535	
531.42	12411	
531.62	11669	
531.81	10808	
532.01	12777	
532.21	13428	
532.4	10687	
532.6	11066	
532.79	13744	
532.99	13087	
533.18	11109	
533.38	12248	
533.58	12604	
533.77	13369	
533.97	11110	
534.16	12050	
534.36	13659	
534.55	12597	
534.75	12172	
534.95	11327	
535.14	13623	
535.34	12585	
535.53	10904	
535.73	12934	
535.92	13976	
536.12	12781	
536.31	10916	
536.51	12305	
536.71	13074	
536.9	12613	
537.1	11087	
537.29	11315	
537.49	13515	
537.68	12557	
537.88	11725	
538.07	10877	
538.27	12852	
538.46	13998	
538.66	10820	
538.86	11354	
539.05	12870	
539.25	13388	
539.44	11574	
539.64	11217	
539.83	12781	
540.03	13801	
540.22	10927	
540.42	11138	
540.61	12945	
540.81	12983	
541	11594	
541.2	12297	
541.39	12428	
541.59	12936	
541.78	11940	
541.98	11047	
542.18	12012	
542.37	12114	
542.57	11269	
542.76	11947	
542.96	11992	
543.15	12738	
543.35	11218	
543.54	10626	
543.74	13022	
543.93	12643	
544.13	11221	
544.32	12357	
544.52	12980	
544.71	12084	
544.91	10195	
545.1	11632	
545.3	12211	
545.49	12951	
545.69	10169	
545.88	10920	
546.08	13842	
546.27	13317	
546.47	11467	
546.66	10580	
546.86	13097	
547.05	13652	
547.24	10860	
547.44	10780	
547.63	11980	
547.83	13226	
548.02	11201	
548.22	11204	
548.41	11780	
548.61	13123	
548.8	10570	
549	10561	
549.19	12419	
549.39	12689	
549.58	10274	
549.78	10980	
549.97	12758	
550.17	12298	
550.36	11681	
550.55	12725	
550.75	12204	
550.94	13124	
551.14	10454	
551.33	10854	
551.53	11620	
551.72	12511	
551.92	10845	
552.11	10543	
552.31	12567	
552.5	12675	
552.69	12449	
552.89	10172	
553.08	12536	
553.28	12209	
553.47	10651	
553.67	11830	
553.86	13294	
554.06	11430	
554.25	9771.5	
554.44	10317	
554.64	14016	
554.83	13448	
555.03	10340	
555.22	10864	
555.42	12785	
555.61	12420	
555.8	10532	
556	10744	
556.19	11579	
556.39	12942	
556.58	10623	
556.78	10590	
556.97	12174	
557.16	12049	
557.36	11823	
557.55	10214	
557.75	11173	
557.94	13183	
558.13	10297	
558.33	10131	
558.52	12846	
558.72	11669	
558.91	10060	
559.1	10305	
559.3	11383	
559.49	11069	
559.69	9724.4	
559.88	10667	
560.07	12141	
560.27	12642	
560.46	10890	
560.66	10982	
560.85	11959	
561.04	11056	
561.24	9990.7	
561.43	10234	
561.63	11424	
561.82	11638	
562.01	11538	
562.21	10485	
562.4	12061	
562.59	13233	
562.79	10364	
562.98	10058	
563.18	12119	
563.37	13613	
563.56	10924	
563.76	10084	
563.95	11620	
564.14	11516	
564.34	10350	
564.53	10292	
564.73	12164	
564.92	12504	
565.11	10663	
565.31	9988.6	
565.5	12786	
565.69	11739	
565.89	10302	
566.08	10639	
566.27	12618	
566.47	13072	
566.66	11169	
566.85	9876	
567.05	12235	
567.24	11714	
567.44	10169	
567.63	11670	
567.82	12562	
568.02	12202	
568.21	10339	
568.4	10676	
568.6	12082	
568.79	12146	
568.98	10104	
569.18	10346	
569.37	12212	
569.56	14360	
569.76	10679	
569.95	11822	
570.14	12631	
570.34	12462	
570.53	10200	
570.72	10097	
570.91	13178	
571.11	12161	
571.3	10615	
571.49	11619	
571.69	12128	
571.88	11772	
572.07	11301	
572.27	11325	
572.46	11757	
572.65	12893	
572.85	10486	
573.04	10924	
573.23	13054	
573.43	12295	
573.62	10286	
573.81	11093	
574	12480	
574.2	12317	
574.39	10781	
574.58	11062	
574.78	13450	
574.97	12628	
575.16	11314	
575.36	11611	
575.55	13035	
575.74	13255	
575.93	10443	
576.13	11607	
576.32	12420	
576.51	13097	
576.71	10943	
576.9	12377	
577.09	13367	
577.28	12862	
577.48	11454	
577.67	10368	
577.86	12563	
578.05	13001	
578.25	11082	
578.44	11337	
578.63	12619	
578.83	14025	
579.02	10525	
579.21	12192	
579.4	12886	
579.6	12642	
579.79	11361	
579.98	13643	
580.17	13356	
580.37	13338	
580.56	10793	
580.75	11666	
580.94	13764	
581.14	13655	
581.33	12073	
581.52	11009	
581.71	13224	
581.91	13967	
582.1	10656	
582.29	11346	
582.48	12868	
582.68	12788	
582.87	11820	
583.06	11514	
583.25	13212	
583.45	12593	
583.64	12254	
583.83	13019	
584.02	12659	
584.21	13090	
584.41	12121	
584.6	11382	
584.79	12935	
584.98	13692	
585.18	10892	
585.37	10867	
585.56	12335	
585.75	13223	
585.94	11107	
586.14	11801	
586.33	13763	
586.52	12811	
586.71	11548	
586.91	11354	
587.1	12094	
587.29	13259	
587.48	11086	
587.67	10944	
587.87	13093	
588.06	13117	
588.25	12381	
588.44	11717	
588.63	12721	
588.83	13265	
589.02	11015	
589.21	10829	
589.4	12365	
589.59	12176	
589.78	9946.3	
589.98	10209	
590.17	11667	
590.36	12187	
590.55	9517.6	
590.74	10291	
590.94	13523	
591.13	12089	
591.32	10088	
591.51	9657.5	
591.7	12547	
591.89	12114	
592.09	9850	
592.28	10443	
592.47	11266	
592.66	13212	
592.85	9849.4	
593.05	10097	
593.24	11835	
593.43	12692	
593.62	10122	
593.81	10732	
594	11945	
594.19	12078	
594.39	10090	
594.58	10015	
594.77	12205	
594.96	12908	
595.15	9929.2	
595.34	10624	
595.54	12222	
595.73	11357	
595.92	9239.8	
596.11	10445	
596.3	12678	
596.49	11352	
596.68	10185	
596.88	10675	
597.07	12441	
597.26	11215	
597.45	9657.5	
597.64	10907	
597.83	11448	
598.02	12071	
598.22	9744.9	
598.41	10442	
598.6	11849	
598.79	11209	
598.98	9736.7	
599.17	10681	
599.36	11862	
599.55	13102	
599.74	11855	
599.94	11596	
600.13	12420	
600.32	11193	
600.51	9420	
600.7	9637.1	
600.89	13117	
601.08	12986	
601.27	9450.7	
601.47	10426	
601.66	12260	
601.85	12997	
602.04	10114	
602.23	10305	
602.42	11212	
602.61	11814	
602.8	9884.2	
602.99	9767.4	
603.18	11653	
603.37	11923	
603.57	10284	
603.76	10853	
603.95	12607	
604.14	12185	
604.33	9759.9	
604.52	10125	
604.71	11755	
604.9	11350	
605.09	10686	
605.28	10585	
605.47	12473	
605.66	12040	
605.86	10338	
606.05	9762	
606.24	12358	
606.43	10871	
606.62	10057	
606.81	10922	
607	12230	
607.19	11455	
607.38	9483.5	
607.57	9644.6	
607.76	11234	
607.95	10643	
608.14	10028	
608.33	10744	
608.52	11274	
608.72	12174	
608.91	9306	
609.1	9258.9	
609.29	11248	
609.48	10806	
609.67	10271	
609.86	9234.3	
610.05	10890	
610.24	11212	
610.43	9144.9	
610.62	8780.3	
610.81	12364	
611	12187	
611.19	9275.3	
611.38	10010	
611.57	11517	
611.76	12959	
611.95	9097.8	
612.14	8906.6	
612.33	11257	
612.52	10761	
612.71	9652.8	
612.9	8720.3	
613.09	10527	
613.28	12798	
613.47	9402.2	
613.66	10215	
613.85	11429	
614.04	10976	
614.24	9400.9	
614.43	8608.3	
614.62	11555	
614.81	11464	
615	9984.5	
615.19	10027	
615.38	10777	
615.57	11170	
615.76	9916.9	
615.95	10826	
616.14	11559	
616.33	11317	
616.52	10180	
616.71	10533	
616.9	11626	
617.09	11477	
617.28	9571.5	
617.47	11021	
617.66	10791	
617.85	10765	
618.04	10570	
618.22	10123	
618.41	11146	
618.6	12165	
618.79	9968.1	
618.98	9679.4	
619.17	12453	
619.36	10703	
619.55	9865.7	
619.74	9951.1	
619.93	11686	
620.12	11248	
620.31	10552	
620.5	10607	
620.69	12807	
620.88	12843	
621.07	11470	
621.26	10513	
621.45	12030	
621.64	12142	
621.83	10613	
622.02	9721.7	
622.21	12072	
622.4	11995	
622.59	11250	
622.78	11102	
622.97	11554	
623.16	12543	
623.35	10529	
623.54	9818	
623.72	11770	
623.91	11908	
624.1	10916	
624.29	9538.1	
624.48	12964	
624.67	12273	
624.86	10743	
625.05	9852.1	
625.24	12966	
625.43	11497	
625.62	12618	
625.81	10025	
626	12659	
626.19	11765	
626.38	11066	
626.56	10204	
626.75	11639	
626.94	12456	
627.13	10871	
627.32	9619.3	
627.51	12350	
627.7	13697	
627.89	9617.3	
628.08	10902	
628.27	11459	
628.46	11669	
628.65	10099	
628.83	9755.8	
629.02	12318	
629.21	11486	
629.4	10518	
629.59	10692	
629.78	11469	
629.97	12484	
630.16	10785	
630.35	10123	
630.54	12962	
630.72	12583	
630.91	10168	
631.1	10873	
631.29	12093	
631.48	12220	
631.67	10877	
631.86	10299	
632.05	11695	
632.24	11700	
632.42	9927.9	
632.61	10592	
632.8	11750	
632.99	11457	
633.18	10608	
633.37	10935	
633.56	12067	
633.75	11852	
633.93	10577	
634.12	10154	
634.31	12900	
634.5	12575	
634.69	10230	
634.88	10778	
635.07	11824	
635.25	12346	
635.44	11130	
635.63	11419	
635.82	11631	
636.01	11068	
636.2	11038	
636.39	10556	
636.57	12693	
636.76	12432	
636.95	9987.3	
637.14	11491	
637.33	12072	
637.52	13076	
637.7	9817.3	
637.89	10669	
638.08	11740	
638.27	13141	
638.46	10794	
638.65	11155	
638.83	13030	
639.02	11367	
639.21	10627	
639.4	11093	
639.59	11978	
639.78	11485	
639.96	9824.1	
640.15	9867.1	
640.34	11665	
640.53	11841	
640.72	9487.6	
640.91	9813.2	
641.09	10999	
641.28	12499	
641.47	9838.4	
641.66	10694	
641.85	11798	
642.03	11934	
642.22	10537	
642.41	9907.4	
642.6	11115	
642.79	10490	
642.97	9604.3	
643.16	10413	
643.35	11125	
643.54	10858	
643.73	9411.1	
643.91	10385	
644.1	10636	
644.29	11404	
644.48	9610.4	
644.67	9748.3	
644.85	10977	
645.04	11156	
645.23	9123.7	
645.42	9429.5	
645.6	10608	
645.79	11741	
645.98	9284.8	
646.17	8378.2	
646.36	10252	
646.54	10803	
646.73	9996.1	
646.92	8847.9	
647.11	10493	
647.29	11591	
647.48	8950.3	
647.67	8578.3	
647.86	11729	
648.05	11844	
648.23	9271.2	
648.42	10609	
648.61	11075	
648.8	10817	
648.98	8853.4	
649.17	9125.1	
649.36	10396	
649.55	9908.8	
649.73	8867.7	
649.92	9680.7	
650.11	10436	
650.3	10658	
650.48	8876.6	
650.67	8731.2	
650.86	10832	
651.05	9763.3	
651.23	8827.4	
651.42	8882.7	
651.61	10297	
651.79	10345	
651.98	9007	
652.17	8723.7	
652.36	10653	
652.54	9740.1	
652.73	8690.2	
652.92	8519.6	
653.11	10706	
653.29	10763	
653.48	7897.7	
653.67	8987.2	
653.85	10449	
654.04	11511	
654.23	9105.3	
654.42	8616.5	
654.6	9770.9	
654.79	10458	
654.98	7955	
655.16	8499.8	
655.35	9237	
655.54	9251.4	
655.73	7963.9	
655.91	7838.3	
656.1	10466	
656.29	9250	
656.47	7539.9	
656.66	9365.4	
656.85	9704	
657.03	9615.2	
657.22	8175.5	
657.41	8248.5	
657.59	9740.1	
657.78	9589.3	
657.97	7808.2	
658.16	8671.1	
658.34	10449	
658.53	10796	
658.72	9557.2	
658.9	10064	
659.09	9796.1	
659.28	9904	
659.46	8428.1	
659.65	8366.6	
659.84	9696.4	
660.02	10198	
660.21	8236.2	
660.4	8168	
660.58	10612	
660.77	9925.8	
660.96	8694.3	
661.14	7708.6	
661.33	11144	
661.52	10982	
661.7	7604.8	
661.89	11546	
662.08	9555.1	
662.26	9235	
662.45	7968.6	
662.64	8103.8	
662.82	10216	
663.01	9448	
663.2	8156.4	
663.38	8953	
663.57	10117	
663.75	10038	
663.94	8399.4	
664.13	9736.7	
664.31	9529.2	
664.5	10234	
664.69	8846.5	
664.87	9239.8	
665.06	9237.7	
665.25	9925.1	
665.43	9557.9	
665.62	9619.3	
665.8	10378	
665.99	9680.1	
666.18	8426	
666.36	8541.4	
666.55	10183	
666.74	10305	
666.92	8060.8	
667.11	9702.6	
667.29	9658.2	
667.48	10299	
667.67	9265	
667.85	8245.1	
668.04	9638.4	
668.22	9613.2	
668.41	8466.3	
668.6	8587.8	
668.78	9395.4	
668.97	9736.7	
669.15	8841.8	
669.34	7706.5	
669.53	9333.3	
669.71	9820.7	
669.9	7948.8	
670.08	8657.4	
670.27	9443.2	
670.46	9948.3	
670.64	8923	
670.83	9136.7	
671.01	9296.4	
671.2	9800.2	
671.38	8013.7	
671.57	7857.4	
671.76	10561	
671.94	11237	
672.13	7871	
672.31	8991.3	
672.5	10181	
672.69	9436.4	
672.87	8039.6	
673.06	8372.1	
673.24	10043	
673.43	9538.1	
673.61	8764.6	
673.8	8316.8	
673.98	10210	
674.17	10390	
674.36	8983.1	
674.54	8736	
674.73	9854.1	
674.91	10159	
675.1	8516.8	
675.28	8077.9	
675.47	9614.5	
675.65	10278	
675.84	8300.4	
676.03	8660.2	
676.21	9396.8	
676.4	8862.9	
676.58	9196.7	
676.77	9004.9	
676.95	10914	
677.14	9475.3	
677.32	8016.4	
677.51	7764.5	
677.69	10179	
677.88	9067	
678.06	7843.7	
678.25	7985.7	
678.44	9672.6	
678.62	9402.9	
678.81	7720.8	
678.99	8789.9	
679.18	10477	
679.36	10071	
679.55	8267	
679.73	8972.8	
679.92	10047	
680.1	9489.6	
680.29	9488.9	
680.47	8307.2	
680.66	9353.8	
680.84	10181	
681.03	7519.5	
681.21	8740	
681.4	9383.1	
681.58	9319.6	
681.77	8026.7	
681.95	7841.7	
682.14	10353	
682.32	10608	
682.51	8963.3	
682.69	7633.5	
682.88	9275.9	
683.06	9955.9	
683.25	8570.7	
683.43	9005.6	
683.62	9581.1	
683.8	9965.4	
683.99	9207	
684.17	8385.1	
684.36	10785	
684.54	9421.3	
684.73	7464.2	
684.91	7627.3	
685.1	9619.3	
685.28	8987.9	
685.46	8149.6	
685.65	8148.9	
685.83	9725.8	
686.02	9125.7	
686.2	7609.6	
686.39	7742.7	
686.57	8776.9	
686.76	10492	
686.94	7641.7	
687.13	7852.6	
687.31	9673.9	
687.5	9227.5	
687.68	7301.7	
687.86	8686.1	
688.05	10963	
688.23	8679.3	
688.42	8744.8	
688.6	7783.6	
688.79	9199.5	
688.97	9213.8	
689.16	8423.3	
689.34	7219.1	
689.52	10061	
689.71	10253	
689.89	8553	
690.08	7780.9	
690.26	9428.8	
690.45	9398.8	
690.63	8735.3	
690.81	7939.3	
691	9176.9	
691.18	9136.7	
691.37	8136.6	
691.55	10322	
691.74	9150.3	
691.92	11195	
692.1	8261.5	
692.29	7494.2	
692.47	9363.3	
692.66	8583	
692.84	7782.3	
693.02	8319.5	
693.21	8770.1	
693.39	9198.8	
693.58	8456.1	
693.76	7791.2	
693.94	10572	
694.13	10271	
694.31	7916.1	
694.5	9017.9	
694.68	9216.5	
694.86	9465.7	
695.05	8310	
695.23	8657.4	
695.42	9869.2	
695.6	12293	
695.78	8890.2	
695.97	7987.1	
696.15	9812.5	
696.34	9290.3	
696.52	7664.2	
696.7	8575.5	
696.89	9693.7	
697.07	9066.4	
697.25	8458.8	
697.44	9998.9	
697.62	9603.6	
697.81	9908.8	
697.99	8055.3	
698.17	8632.9	
698.36	8768.7	
698.54	9538.8	
698.72	8358.4	
698.91	7370.6	
699.09	9162.6	
699.28	8995.4	
699.46	8206.9	
699.64	7941.3	
699.83	8939.4	
700.01	10224	
700.19	8755.7	
700.38	7162.4	
700.56	10112	
700.74	8996.7	
700.93	7510.6	
701.11	8443.8	
701.29	9626.8	
701.48	10675	
701.66	7742	
701.84	7716.7	
702.03	9194	
702.21	9879.4	
702.39	7381.6	
702.58	7949.5	
702.76	9503.3	
702.94	9650.7	
703.13	7302.4	
703.31	9949.7	
703.49	8775.5	
703.68	10486	
703.86	7511.9	
704.04	8621.9	
704.23	9367.4	
704.41	9764.7	
704.59	7715.4	
704.78	8935.3	
704.96	10511	
705.14	9742.9	
705.33	7389.1	
705.51	8219.2	
705.69	9117.6	
705.87	10013	
706.06	8559.8	
706.24	7361.8	
706.42	9361.3	
706.61	9794.8	
706.79	8563.9	
706.97	7365.9	
707.16	8890.2	
707.34	9381.1	
707.52	8512	
707.7	7564.5	
707.89	8952.4	
708.07	8680	
708.25	8452	
708.44	8961.2	
708.62	8872.5	
708.8	10105	
708.98	8754.4	
709.17	7618.4	
709.35	9331.2	
709.53	9229.5	
709.72	7221.1	
709.9	7766.6	
710.08	9381.1	
710.26	9547.6	
710.45	8938.7	
710.63	7618.4	
710.81	9084.8	
710.99	9082.1	
711.18	8200.7	
711.36	7712.7	
711.54	8901.2	
711.72	9708.7	
711.91	7722.2	
712.09	7122.8	
712.27	9002.9	
712.45	9627.5	
712.64	7980.9	
712.82	6812.9	
713	8416.5	
713.18	8551.6	
713.37	6907.8	
713.55	8224.6	
713.73	9334.6	
713.91	7814.4	
714.1	7246.4	
714.28	6621.8	
714.46	8776.9	
714.64	7957	
714.83	5957.5	
715.01	6765.8	
715.19	7970.7	
715.37	7289.4	
715.55	6384.2	
715.74	6682.5	
715.92	8860.9	
716.1	6808.1	
716.28	7843.7	
716.47	6840.2	
716.65	7466.9	
716.83	7546.8	
717.01	6649.1	
717.19	6726.9	
717.38	9716.9	
717.56	7213.6	
717.74	6981.5	
717.92	6027.2	
718.1	8495	
718.29	7669.6	
718.47	5641.5	
718.65	6410.1	
718.83	8582.4	
719.01	8445.1	
719.2	5661.3	
719.38	6819.1	
719.56	8142	
719.74	9749.7	
719.92	6276.3	
720.11	7385	
720.29	8130.4	
720.47	7215	
720.65	5773.9	
720.83	6662	
721.02	7440.3	
721.2	7204.1	
721.38	6639.5	
721.56	5895.4	
721.74	6709.8	
721.92	6881.9	
722.11	7141.3	
722.29	6852.5	
722.47	8211	
722.65	7366.5	
722.83	5871.5	
723.01	6807.4	
723.2	7407.5	
723.38	7714	
723.56	5296	
723.74	6528.9	
723.92	6871.6	
724.1	8149.6	
724.29	5817.6	
724.47	7022.5	
724.65	6960.4	
724.83	6849.1	
725.01	5648.3	
725.19	6519.4	
725.37	6877.8	
725.56	7004.7	
725.74	5436.7	
725.92	5732.9	
726.1	6833.4	
726.28	7065.5	
726.46	6216.3	
726.64	5853.8	
726.83	7128.3	
727.01	7418.4	
727.19	5461.2	
727.37	6317.3	
727.55	7198.6	
727.73	7694.9	
727.91	5403.9	
728.09	5261.2	
728.28	7782.3	
728.46	8417.8	
728.64	6500.3	
728.82	6335.1	
729	8907.3	
729.18	8062.9	
729.36	5612.8	
729.54	7972.1	
729.72	9222	
729.91	7421.8	
730.09	7579.5	
730.27	6244.3	
730.45	7319.4	
730.63	8013	
730.81	6925.5	
730.99	5900.2	
731.17	8578.3	
731.35	7068.9	
731.53	6507.1	
731.71	6085.2	
731.9	8172.8	
732.08	8429.4	
732.26	6310.5	
732.44	5954.1	
732.62	8484.1	
732.8	7912.7	
732.98	6709.8	
733.16	5708.4	
733.34	7907.9	
733.52	6586.3	
733.7	6301.6	
733.88	6558.3	
734.07	7632.8	
734.25	7458.7	
734.43	5624.4	
734.61	7367.2	
734.79	9055.4	
734.97	7314	
735.15	5784.1	
735.33	6197.2	
735.51	7695.6	
735.69	7335.8	
735.87	7347.4	
736.05	6376.7	
736.23	7522.2	
736.41	7160.4	
736.59	6154.1	
736.77	6202.6	
736.95	7955	
737.13	7286	
737.32	5808	
737.5	6036.7	
737.68	8441	
737.86	7120.8	
738.04	5566.4	
738.22	7514	
738.4	6902.3	
738.58	7276.4	
738.76	6311.2	
738.94	5113.8	
739.12	7015	
739.3	7038.2	
739.48	6853.2	
739.66	6657.9	
739.84	7456.7	
740.02	7393.2	
740.2	5213.4	
740.38	5538.4	
740.56	7779.6	
740.74	6605.4	
740.92	6242.9	
741.1	6152.1	
741.28	7165.2	
741.46	6955.6	
741.64	5758.2	
741.82	6356.9	
742	7200	
742.18	7055.3	
742.36	5994.4	
742.54	5477.6	
742.72	7776.8	
742.9	6451.8	
743.08	6339.1	
743.26	5108.3	
743.44	8027.4	
743.62	7806.9	
743.8	6497.5	
743.98	5554.1	
744.16	7499	
744.34	7135.1	
744.52	6383.5	
744.7	6324.8	
744.88	7578.8	
745.06	7053.9	
745.24	6402	
745.42	6561.7	
745.6	7653.9	
745.78	7363.8	
745.96	5180	
746.14	5446.9	
746.32	8386.4	
746.5	7610.9	
746.68	6104.3	
746.86	5513.8	
747.03	8053.3	
747.21	6270.9	
747.39	6027.9	
747.57	5528.2	
747.75	7220.5	
747.93	7535.2	
748.11	5472.9	
748.29	5416.9	
748.47	8867	
748.65	6807.4	
748.83	6208.1	
749.01	5973.9	
749.19	7345.4	
749.37	6493.4	
749.55	5788.9	
749.73	5840.8	
749.91	7066.2	
750.09	6630.6	
750.26	5911.1	
750.44	5255.1	
750.62	7049.8	
750.8	6963.8	
750.98	5106.3	
751.16	5457.8	
751.34	7086	
751.52	6398.5	
751.7	6286.6	
751.88	5095.3	
752.06	7630	
752.24	7323.5	
752.42	5061.9	
752.59	5369.8	
752.77	6901.7	
752.95	8234.9	
753.13	6191	
753.31	5604.6	
753.49	6597.9	
753.67	7139.9	
753.85	5851.7	
754.03	5373.2	
754.21	7373.4	
754.38	7747.5	
754.56	5537.7	
754.74	4543.1	
754.92	6600.6	
755.1	7311.2	
755.28	4592.9	
755.46	4489.8	
755.64	7968	
755.82	8030.1	
755.99	4721.3	
756.17	4820.2	
756.35	5313.8	
756.53	6938.5	
756.71	3543	
756.89	4547.2	
757.07	6480.5	
757.25	5560.2	
757.42	5186.1	
757.6	6118	
757.78	6649.8	
757.96	5580.7	
758.14	4909.7	
758.32	4413.4	
758.5	5130.2	
758.67	6084.5	
758.85	4667.3	
759.03	4908.3	
759.21	6244.9	
759.39	5594.4	
759.57	4258.4	
759.75	5524.1	
759.92	6854.6	
760.1	6158.9	
760.28	5928.9	
760.46	6173.9	
760.64	5918.6	
760.82	5675.6	
760.99	5532.9	
761.17	4900.1	
761.35	6802.7	
761.53	5668.8	
761.71	5064.6	
761.89	5763.7	
762.06	6641.6	
762.24	6215.6	
762.42	5109	
762.6	4898.7	
762.78	6171.9	
762.96	6862.1	
763.13	5498.8	
763.31	5131.5	
763.49	7083.9	
763.67	6109.1	
763.85	6182.8	
764.02	6680.5	
764.2	7333.1	
764.38	6427.2	
764.56	5053	
764.74	6042.2	
764.91	7375.4	
765.09	6288.6	
765.27	4736.3	
765.45	4482.3	
765.63	7470.3	
765.8	7293.5	
765.98	4197	
766.16	4620.2	
766.34	5810.1	
766.52	5559.6	
766.69	5566.4	
766.87	4416.8	
767.05	6235.4	
767.23	7105.1	
767.41	4693.3	
767.58	5000.5	
767.76	6771.3	
767.94	6812.2	
768.12	4750.6	
768.29	5504.9	
768.47	6209.4	
768.65	6991.8	
768.83	4328	
769	5599.1	
769.18	5765.7	
769.36	6503.7	
769.54	5580.7	
769.72	4495.3	
769.89	6736.5	
770.07	6911.2	
770.25	4700.8	
770.43	6095.4	
770.6	7665.5	
770.78	8027.4	
770.96	4988.2	
771.14	5534.3	
771.31	6678.4	
771.49	5969.8	
771.67	4050.9	
771.85	4318.5	
772.02	5207.3	
772.2	6012.2	
772.38	5083.1	
772.55	4587.4	
772.73	6259.3	
772.91	5967.1	
773.09	4828.4	
773.26	4943.1	
773.44	6199.9	
773.62	5791	
773.8	4360.8	
773.97	4063.2	
774.15	6305	
774.33	5831.2	
774.5	4255	
774.68	4691.9	
774.86	6494.8	
775.04	5821	
775.21	4339.6	
775.39	4265.9	
775.57	6200.6	
775.74	6644.3	
775.92	4146.5	
776.1	4044.7	
776.27	6113.2	
776.45	7383.6	
776.63	4330.1	
776.81	3838.6	
776.98	5718.6	
777.16	6903	
777.34	4466.6	
777.51	4771.1	
777.69	5726.8	
777.87	5476.3	
778.04	4450.2	
778.22	5130.8	
778.4	5524.1	
778.57	6163.7	
778.75	3701.4	
778.93	3988.1	
779.1	5269.4	
779.28	5119.2	
779.46	3730.7	
779.64	4265.9	
779.81	6362.4	
779.99	7344.7	
780.17	5109	
780.34	5203.2	
780.52	5743.9	
780.69	5982.1	
780.87	4581.3	
781.05	4130.8	
781.22	5824.4	
781.4	5895.4	
781.58	4229.1	
781.75	3364.1	
781.93	5928.9	
782.11	5221.6	
782.28	5195.7	
782.46	4242.7	
782.64	5088.5	
782.81	6042.2	
782.99	4363.5	
783.17	4293.9	
783.34	5945.9	
783.52	5047.6	
783.69	4543.1	
783.87	5362.3	
784.05	5160.2	
784.22	5218.2	
784.4	5479	
784.58	4654.4	
784.75	6211.5	
784.93	5233.2	
785.1	4252.9	
785.28	4889.2	
785.46	5940.5	
785.63	5146.5	
785.81	4145.8	
785.99	4104.1	
786.16	5342.5	
786.34	5770.5	
786.51	4078.2	
786.69	4508.9	
786.87	4906.9	
787.04	5484.5	
787.22	3889.8	
787.39	4925.4	
787.57	5115.1	
787.75	6283.9	
787.92	5093.3	
788.1	5065.3	
788.27	5229.1	
788.45	4978.6	
788.63	4722.6	
788.8	3375.1	
788.98	5578	
789.15	4880.3	
789.33	3511.6	
789.5	4257	
789.68	6195.1	
789.86	6308.4	
790.03	4622.9	
790.21	4060.4	
790.38	6122.1	
790.56	5294.7	
790.73	3907.5	
790.91	3972.4	
791.09	5182.7	
791.26	5958.2	
791.44	4147.8	
791.61	3581.2	
791.79	5116.5	
791.96	5241.4	
792.14	3737.5	
792.32	3220.8	
792.49	5153.4	
792.67	5283.8	
792.84	3766.2	
793.02	3584.6	
793.19	5614.2	
793.37	6412.9	
793.54	3309.5	
793.72	3645.4	
793.89	6506.4	
794.07	5210	
794.25	4266.6	
794.42	3393.5	
794.6	6249	
794.77	5864.7	
794.95	4612.7	
795.12	3992.2	
795.3	5148.6	
795.47	5825.1	
795.65	4388.8	
795.82	4233.2	
796	4940.4	
796.17	6968.6	
796.35	4093.9	
796.52	4876.2	
796.7	5692.7	
796.87	5857.2	
797.05	5070.8	
797.22	5022.3	
797.4	5737	
797.57	6898.9	
797.75	4166.3	
797.92	3940.3	
798.1	6086.6	
798.27	5128.1	
798.45	3358.7	
798.62	3678.2	
798.8	5477.6	
798.97	5960.3	
799.15	4521.2	
799.32	4214.7	
799.5	4717.8	
799.67	5517.9	
799.85	4562.9	
800.02	3313.6	
800.2	5109	
800.37	5433.9	
800.55	4797	
800.72	3995.6	
800.9	5954.1	
801.07	6391	
801.25	5353.4	
801.42	4380.6	
801.6	5974.6	
801.77	5737	
801.95	4100	
802.12	3916.4	
802.29	5702.2	
802.47	5691.3	
802.64	4361.5	
802.82	3225.6	
802.99	5026.4	
803.17	6129.6	
803.34	4196.3	
803.52	3760.8	
803.69	6780.1	
803.87	4844.8	
804.04	4200.4	
804.21	4332.8	
804.39	6272.9	
804.56	5352	
804.74	3611.9	
804.91	4431.8	
805.09	5115.1	
805.26	5242.1	
805.44	3616.7	
805.61	4044.7	
805.78	5796.4	
805.96	5838.8	
806.13	4416.8	
806.31	4714.4	
806.48	4679.6	
806.66	5186.8	
806.83	4302.1	
807	4248.9	
807.18	5046.9	
807.35	5564.3	
807.53	4233.8	
807.7	3311.6	
807.87	6348.7	
808.05	5148.6	
808.22	4622.9	
808.4	3371	
808.57	5194.3	
808.74	4813.4	
808.92	3792.2	
809.09	4962.9	
809.27	5008.6	
809.44	5682.4	
809.61	3409.9	
809.79	3795.6	
809.96	6333	
810.14	5902.2	
810.31	3290.4	
810.48	4037.9	
810.66	5227.8	
810.83	6055.2	
811.01	3856.3	
811.18	4313.7	
811.35	5949.3	
811.53	4590.9	
811.7	4692.6	
811.87	4362.9	
812.05	5106.3	
812.22	5074.9	
812.39	3736.9	
812.57	3612.6	
812.74	5164.3	
812.92	6970.6	
813.09	4026.3	
813.26	4404.5	
813.44	6623.8	
813.61	5110.4	
813.78	3422.2	
813.96	4515.8	
814.13	5152	
814.3	4808.6	
814.48	4888.5	
814.65	4035.9	
814.82	6483.9	
815	4914.4	
815.17	4180.6	
815.34	5144.5	
815.52	5048.9	
815.69	5119.9	
815.87	4197	
816.04	3533.4	
816.21	5161.6	
816.38	4498	
816.56	4022.2	
816.73	3695.9	
816.9	6606.7	
817.08	5917.3	
817.25	3723.9	
817.42	4805.9	
817.6	4711.7	
817.77	5150	
817.94	4269.3	
818.12	3750.5	
818.29	4893.3	
818.46	7763.2	
818.64	3925.3	
818.81	3635.8	
818.98	4821.6	
819.16	7034.1	
819.33	4496	
819.5	4174.4	
819.67	5550.7	
819.85	6233.3	
820.02	4125.3	
820.19	4376.5	
820.37	5387.5	
820.54	4932.2	
820.71	4246.1	
820.88	5283.8	
821.06	5426.4	
821.23	4920.6	
821.4	4248.9	
821.58	4225.6	
821.75	5915.9	
821.92	5319.9	
822.09	3443.3	
822.27	3487	
822.44	5198.4	
822.61	5096.7	
822.79	3449.5	
822.96	6577.4	
823.13	5725.4	
823.3	4885.8	
823.48	3959.4	
823.65	3530.7	
823.82	5906.3	
823.99	4658.4	
824.17	5068.7	
824.34	3631	
824.51	6860	
824.68	5231.2	
824.86	3789.4	
825.03	4278.9	
825.2	5162.2	
825.37	6336.4	
825.55	3741.6	
825.72	4177.9	
825.89	6984.9	
826.06	6414.9	
826.24	4070	
826.41	4128	
826.58	6251.8	
826.75	5500.8	
826.92	3155.9	
827.1	3553.2	
827.27	8621.9	
827.44	6852.5	
827.61	3835.8	
827.79	4691.2	
827.96	4863.2	
828.13	5272.2	
828.3	4050.2	
828.47	3368.2	
828.65	5386.2	
828.82	5318.6	
828.99	5276.3	
829.16	4526	
829.34	5760.3	
829.51	5512.4	
829.68	4186	
829.85	4384.7	
830.02	6053.1	
830.2	5885.9	
830.37	3219.4	
830.54	5079.6	
830.71	6670.9	
830.88	5173.9	
831.05	3282.2	
831.23	3773.7	
831.4	6333	
831.57	7141.3	
831.74	3891.8	
831.91	3405.8	
832.09	5408.7	
832.26	5804.6	
832.43	4017.4	
832.6	4543.8	
832.77	5391.6	
832.94	6176.7	
833.12	3179.8	
833.29	3961.5	
833.46	5268.7	
833.63	7410.9	
833.8	4358.1	
833.97	4035.2	
834.15	5785.5	
834.32	5555.5	
834.49	4182	
834.66	4319.8	
834.83	6031.3	
835	4884.4	
835.17	3883.6	
835.35	3898.6	
835.52	5696.8	
835.69	5614.2	
835.86	4061.1	
836.03	3356.6	
836.2	5739.8	
836.37	5361.6	
836.55	4051.6	
836.72	3818.1	
836.89	5274.9	
837.06	5856.5	
837.23	4085.7	
837.4	4493.2	
837.57	6592.4	
837.75	7342	
837.92	3670.6	
838.09	3906.8	
838.26	5341.1	
838.43	6087.9	
838.6	4201.1	
838.77	3728	
838.94	6944.7	
839.11	6678.4	
839.29	3981.3	
839.46	3191.4	
839.63	5709.1	
839.8	5434.6	
839.97	3929.4	
840.14	3924.6	
840.31	5526.8	
840.48	5752.7	
840.65	3217.4	
840.82	3930.1	
841	5730.9	
841.17	5746.6	
841.34	3541.6	
841.51	3625.6	
841.68	5702.2	
841.85	5433.9	
842.02	3746.4	
842.19	3099.9	
842.36	5533.6	
842.53	5496.1	
842.7	3556	
842.87	4412	
843.05	7332.4	
843.22	5440.1	
843.39	3411.2	
843.56	3624.2	
843.73	5177.9	
843.9	5864.7	
844.07	5862	
844.24	4840.7	
844.41	8642.4	
844.58	4990.9	
844.75	3452.2	
844.92	3831.7	
845.09	5753.4	
845.26	5739.8	
845.43	3534.8	
845.6	3814	
845.77	5761.6	
845.94	5440.8	
846.12	3929.4	
846.29	4153.3	
846.46	5941.2	
846.63	5775.3	
846.8	3576.4	
846.97	4203.8	
847.14	6272.2	
847.31	5686.5	
847.48	4027.7	
847.65	4446.1	
847.82	6019	
847.99	5966.4	
848.16	4837.3	
848.33	4401.8	
848.5	5328.8	
848.67	6285.9	
848.84	3512.9	
849.01	3740.3	
849.18	5159.5	
849.35	4809.3	
849.52	4480.3	
849.69	3462.4	
849.86	5943.9	
850.03	6285.9	
850.2	3577.8	
850.37	4367.6	
850.54	6175.3	
850.71	5450.3	
850.88	4285.7	
851.05	3510.9	
851.22	5661.3	
851.39	6329.6	
851.56	3328.6	
851.73	4093.2	
851.9	5024.3	
852.07	5948.7	
852.24	3970.3	
852.41	3528	
852.58	5588.9	
852.75	5091.9	
852.92	3956	
853.09	3425.6	
853.26	5338.4	
853.43	6186.9	
853.6	3500.7	
853.77	3037.8	
853.94	6350.8	
854.11	5718.6	
854.28	5246.2	
854.44	3847.5	
854.61	6772.6	
854.78	6030.6	
854.95	3453.6	
855.12	4519.9	
855.29	4610.7	
855.46	6582.9	
855.63	3537.5	
855.8	4890.5	
855.97	5307	
856.14	6061.3	
856.31	5092.6	
856.48	3824.2	
856.65	5307.7	
856.82	5018.9	
856.99	3464.5	
857.16	3855	
857.33	7002	
857.49	5392.3	
857.66	3820.1	
857.83	4106.9	
858	5328.8	
858.17	5631.2	
858.34	3357.3	
858.51	3546.4	
858.68	6453.1	
858.85	6501.6	
859.02	4061.1	
859.19	4400.4	
859.36	5043.5	
859.52	5077.6	
859.69	3558.7	
859.86	4233.2	
860.03	5126.7	
860.2	6397.2	
860.37	3230.3	
860.54	3632.4	
860.71	6033.3	
860.88	6420.4	
861.05	4036.5	
861.21	4463.9	
861.38	6468.9	
861.55	4879.6	
861.72	3243.3	
861.89	3943.7	
862.06	6081.8	
862.23	6610.8	
862.4	3446.7	
862.56	3713.6	
862.73	5838.1	
862.9	5505.6	
863.07	4170.3	
863.24	3201.7	
863.41	4919.2	
863.58	5009.3	
863.75	3642	
863.91	4106.2	
864.08	6351.4	
864.25	5896.1	
864.42	4484.4	
864.59	5003.2	
864.76	6666.8	
864.93	5042.1	
865.09	3443.3	
865.26	3809.2	
865.43	6262.7	
865.6	6687.3	
865.77	3067.2	
865.94	3497.9	
866.1	6288.6	
866.27	6052.4	
866.44	5395	
866.61	3371	
866.78	5477	
866.95	5889.3	
867.11	3424.9	
867.28	3119.7	
867.45	6107	
867.62	5164.3	
867.79	4147.1	
867.96	3497.2	
868.12	5033.9	
868.29	6067.4	
868.46	3053.5	
868.63	4798.4	
868.8	6253.1	
868.97	5957.5	
869.13	3746.4	
869.3	3676.8	
869.47	5880.4	
869.64	6062.7	
869.81	3583.3	
869.97	3545	
870.14	5766.4	
870.31	6487.3	
870.48	3557.3	
870.65	4440.7	
870.81	5431.2	
870.98	5337.7	
871.15	4018.1	
871.32	3646.7	
871.48	5863.3	
871.65	6479.1	
871.82	3526.6	
871.99	3870	
872.16	6892.8	
872.32	6239.5	
872.49	3586.7	
872.66	3583.3	
872.83	5981.4	
872.99	5221.6	
873.16	4042.7	
873.33	3548.4	
873.5	5616.2	
873.67	5567.7	
873.83	3706.8	
874	4750.6	
874.17	5798.5	
874.34	6847.7	
874.5	4692.6	
874.67	4416.1	
874.84	6449.7	
875.01	5057.1	
875.17	5013.4	
875.34	3564.1	
875.51	5631.2	
875.68	6821.8	
875.84	4378.6	
876.01	5244.2	
876.18	5941.2	
876.34	5823.7	
876.51	3601.7	
876.68	3498.6	
876.85	5446.9	
877.01	6273.6	
877.18	5098.8	
877.35	3522.5	
877.52	5547.9	
877.68	4959.5	
877.85	3454.9	
878.02	3486.3	
878.18	5517.2	
878.35	5221	
878.52	2840.5	
878.69	3943	
878.85	5995.1	
879.02	5859.2	
879.19	5122	
879.35	3836.5	
879.52	5871.5	
879.69	6161.7	
879.86	3056.9	
880.02	4007.9	
880.19	5498.8	
880.36	6797.2	
880.52	4061.8	
880.69	4156	
880.86	6021	
881.02	6156.2	
881.19	3898.6	
881.36	3904.8	
881.52	5914.5	
881.69	5228.5	
881.86	3827.7	
882.02	3753.9	
882.19	6221.7	
882.36	7333.1	
882.52	3663.8	
882.69	5046.9	
882.86	5703.6	
883.02	5655.8	
883.19	4313	
883.36	4093.9	
883.52	6030.6	
883.69	6937.2	
883.86	3637.9	
884.02	3205.8	
884.19	5996.5	
884.36	5502.9	
884.52	4043.4	
884.69	3793.5	
884.86	5231.2	
885.02	6679.1	
885.19	3969	
885.36	4126.7	
885.52	5501.5	
885.69	5725.4	
885.86	5187.5	
886.02	4586.1	
886.19	5980.8	
886.35	5444.2	
886.52	3928	
886.69	5017.5	
886.85	5111	
887.02	6363	
887.19	6363	
887.35	6363	
887.52	6363	
887.68	6363	
887.85	6363	
888.02	6363	
888.18	6363	
888.35	6363	
888.51	6363	
888.68	6363	
888.85	6363	
889.01	6363	
889.18	6363	
889.35	6363	
889.51	6363	
889.68	6363	
889.84	6363	
890.01	6363	
890.17	6363	
890.34	6363	
890.51	6363	
890.67	6363	
890.84	6363	
891	6363	
891.17	6363	
891.34	6363	
891.5	6363	
891.67	6363	
891.83	6363	
892	6363	
892.16	6363	
892.33	6363	
892.5	6363	
892.66	6363	
892.83	6363	
892.99	6363	
893.16	6363	
893.32	6363	
893.49	6363	
893.65	6363	
893.82	6363	
893.99	6363	
894.15	6363	
894.32	6363	
894.48	6363	
894.65	6363	
894.81	6363	
894.98	6363	
895.14	6363	
895.31	6363	
895.47	6363	
895.64	6363	
895.81	6363	
895.97	6363	
896.14	6363	
896.3	6363	
896.47	6363	
896.63	6363	
896.8	6363	
896.96	6363	
897.13	6363	
897.29	6363	
897.46	6363	
897.62	6363	
897.79	6363	
897.95	6363	
898.12	6363	
898.28	6363	
898.45	6363	
898.61	6363	
898.78	6363	
898.94	6363	
899.11	6363	
899.27	6363	
899.44	6363	
899.6	6363	
899.77	6363	
899.93	6363	
900.1	6363	
900.26	6363	
900.43	6363	
900.59	6363	
900.76	6363	
900.92	6363	
901.09	6363	
901.25	6363	
901.42	6363	
901.58	6363	
901.75	6363	
901.91	6363	
902.07	6363	
902.24	6363	
902.4	6363	
902.57	6363	
902.73	6363	
902.9	6363	
903.06	6363	
903.23	6363	
903.39	6363	
903.56	6363	
903.72	6363	
903.88	6363	
904.05	6363	
904.21	6363	
904.38	6363	
904.54	6363	
904.71	6363	
904.87	6363	
905.03	6363	
905.2	6363	
905.36	6363	
905.53	6363	
905.69	6363	
905.86	6363	
906.02	6363	
906.18	6363	
906.35	6363	
906.51	6363	
906.68	6363	
906.84	6363	
907.01	6363	
907.17	6363	
907.33	6363	
907.5	6363	
907.66	6363	
907.83	6363	
907.99	6363	
908.15	6363	
908.32	6363	
908.48	6363	
908.65	6363	
908.81	6363	
908.97	6363	
909.14	6363	
909.3	6363	
909.47	6363	
909.63	6363	
909.79	6363	
909.96	6363	
910.12	6363	
910.28	6363	
910.45	6363	
910.61	6363	
910.78	6363	
910.94	6363	
911.1	6363	
911.27	6363	
911.43	6363	
911.59	6363	
911.76	6363	
911.92	6363	
912.08	6363	
912.25	6363	
912.41	6363	
912.57	6363	
912.74	6363	
912.9	6363	
913.07	6363	
913.23	6363	
913.39	6363	
913.56	6363	
913.72	6363	
913.88	6363	
914.05	6363	
914.21	6363	
914.37	6363	
914.54	6363	
914.7	6363	
914.86	6363	
915.03	6363	
915.19	6363	
