Wavelength	Intensities	
nm	a.u.	
179.22	1928	
179.44	1924.1	
179.65	1931.9	
179.86	1916.2	
180.08	1883.4	
180.29	5040.7	
180.51	3599	
180.72	5754.1	
180.94	6776	
181.15	3321.1	
181.37	3242.6	
181.58	5531.6	
181.79	5909.8	
182.01	3482.2	
182.22	3734.8	
182.44	5888.6	
182.65	4885.1	
182.87	4660.5	
183.08	4112.3	
183.29	6185.5	
183.51	5051	
183.72	3780.6	
183.94	5502.9	
184.15	5474.2	
184.37	5498.8	
184.58	3312.2	
184.79	4610.7	
185.01	5089.2	
185.22	5952.1	
185.44	4834.6	
185.65	3982.6	
185.86	5372.5	
186.08	5008	
186.29	3193.5	
186.51	3451.5	
186.72	5111.7	
186.94	6018.3	
187.15	3961.5	
187.36	4170.3	
187.58	7945.4	
187.79	5665.4	
188.01	4323.9	
188.22	6762.4	
188.43	6734.4	
188.65	5792.3	
188.86	3432.4	
189.08	4115.1	
189.29	5306.3	
189.5	5317.2	
189.72	3803.1	
189.93	3945.1	
190.15	6150.1	
190.36	7308.5	
190.57	4260.5	
190.79	4078.9	
191	6241.5	
191.22	6195.8	
191.43	4197.7	
191.64	3428.3	
191.86	6365.8	
192.07	6186.2	
192.29	3646.1	
192.5	3853.6	
192.71	6135	
192.93	5234.6	
193.14	3801.7	
193.35	3921.2	
193.57	5253	
193.78	6207.4	
194	3057.6	
194.21	3821.5	
194.42	5032.5	
194.64	5544.5	
194.85	4132.1	
195.07	4869.4	
195.28	5548.6	
195.49	4787.5	
195.71	5098.1	
195.92	3588.7	
196.13	5737.7	
196.35	5823.7	
196.56	5537	
196.78	4126	
196.99	7197.2	
197.2	6726.2	
197.42	4717.8	
197.63	4175.8	
197.84	4908.3	
198.06	5701.5	
198.27	3825.6	
198.48	5193.6	
198.7	5271.5	
198.91	5414.8	
199.13	4182.6	
199.34	4222.9	
199.55	5986.2	
199.77	4758.8	
199.98	3645.4	
200.19	4255.7	
200.41	5449.6	
200.62	5144.5	
200.83	4363.5	
201.05	4680.3	
201.26	5440.8	
201.47	5141.8	
201.69	3707.5	
201.9	3552.5	
202.11	5480.4	
202.33	6556.9	
202.54	3960.1	
202.76	4422.9	
202.97	5571.2	
203.18	5563	
203.4	4307.6	
203.61	4234.5	
203.82	5556.1	
204.04	5171.1	
204.25	4270	
204.46	4109.6	
204.68	5465.3	
204.89	5828.5	
205.1	4063.9	
205.32	3553.2	
205.53	5959.6	
205.74	6096.8	
205.96	2954.5	
206.17	4291.2	
206.38	5885.2	
206.6	6017.6	
206.81	4759.5	
207.02	3885.7	
207.24	5748.6	
207.45	6168.5	
207.66	4014	
207.88	3431	
208.09	5711.8	
208.3	5528.8	
208.52	3654.3	
208.73	3987.4	
208.94	5524.1	
209.15	6220.4	
209.37	3984	
209.58	4180.6	
209.79	6081.1	
210.01	5285.8	
210.22	3142.9	
210.43	3397.6	
210.65	5513.1	
210.86	5971.9	
211.07	3932.1	
211.29	3611.9	
211.5	5891.3	
211.71	5442.8	
211.93	3620.8	
212.14	3659.7	
212.35	5451.7	
212.56	5683.8	
212.78	4195.6	
212.99	3456.3	
213.2	6475.7	
213.42	5262.6	
213.63	3743.7	
213.84	3979.9	
214.06	4848.2	
214.27	4998.4	
214.48	3956.7	
214.69	4293.2	
214.91	6211.5	
215.12	6316.6	
215.33	4315.1	
215.55	4711.7	
215.76	6809.5	
215.97	5900.2	
216.18	4146.5	
216.4	4018.8	
216.61	5213.4	
216.82	5999.9	
217.04	3713	
217.25	3864.5	
217.46	6210.8	
217.67	5929.6	
217.89	3283.6	
218.1	3416.7	
218.31	5639.4	
218.53	5741.1	
218.74	3816.7	
218.95	3723.2	
219.16	5436	
219.38	6436.8	
219.59	3717.1	
219.8	4407.2	
220.01	7166.5	
220.23	5575.3	
220.44	4909.7	
220.65	3622.2	
220.87	5538.4	
221.08	6165.1	
221.29	3371.6	
221.5	4592.2	
221.72	7679.9	
221.93	5211.4	
222.14	4297.3	
222.35	4971.1	
222.57	5611.4	
222.78	5882.4	
222.99	3967.6	
223.2	4322.6	
223.42	5856.5	
223.63	5969.8	
223.84	3016	
224.05	3040.6	
224.27	7081.9	
224.48	6556.9	
224.69	4941.7	
224.9	4193.6	
225.12	5761.6	
225.33	5483.1	
225.54	3273.3	
225.75	3734.1	
225.97	5065.3	
226.18	5369.8	
226.39	4022.2	
226.6	3710.9	
226.82	5195.7	
227.03	5083.7	
227.24	4132.8	
227.45	3478.1	
227.67	5944.6	
227.88	6513.2	
228.09	4640.7	
228.3	4769.7	
228.52	6036	
228.73	5487.9	
228.94	3920.5	
229.15	3459	
229.36	5371.8	
229.58	5355.4	
229.79	3922.5	
230	4622.9	
230.21	6632	
230.43	5660.6	
230.64	4146.5	
230.85	4336.9	
231.06	5947.3	
231.28	5951.4	
231.49	3456.3	
231.7	4046.1	
231.91	5847	
232.12	5500.2	
232.34	3463.8	
232.55	4047.5	
232.76	6130.9	
232.97	5719.3	
233.18	3656.3	
233.4	4110.3	
233.61	5803.9	
233.82	5207.3	
234.03	3803.8	
234.25	3743.7	
234.46	7688.1	
234.67	5558.2	
234.88	4293.9	
235.09	3729.4	
235.31	5879	
235.52	5408.7	
235.73	4151.2	
235.94	3496.6	
236.15	5203.9	
236.37	6756.2	
236.58	3652.2	
236.79	3981.3	
237	5842.2	
237.21	5020.9	
237.43	4242	
237.64	3347.7	
237.85	10158	
238.06	5100.8	
238.27	4432.5	
238.48	3496.6	
238.7	5885.9	
238.91	5391.6	
239.12	4018.1	
239.33	4020.2	
239.54	5117.2	
239.76	5417.6	
239.97	3971.7	
240.18	4040.6	
240.39	6905.1	
240.6	5810.8	
240.82	4119.8	
241.03	3366.2	
241.24	5480.4	
241.45	6391.7	
241.66	3673.4	
241.87	4332.8	
242.09	6310.5	
242.3	6768.5	
242.51	4317.8	
242.72	4016.7	
242.93	6010.1	
243.14	5418.9	
243.36	4737	
243.57	5025.7	
243.78	6396.5	
243.99	5780.1	
244.2	4039.3	
244.41	3644.7	
244.63	5025.7	
244.84	5853.1	
245.05	4348.5	
245.26	4063.2	
245.47	5811.5	
245.68	6111.8	
245.9	5385.5	
246.11	4167.6	
246.32	5401.2	
246.53	5769.1	
246.74	6597.2	
246.95	3379.8	
247.16	4968.4	
247.38	5520	
247.59	3337.5	
247.8	4054.3	
248.01	5197.1	
248.22	5425.1	
248.43	3639.2	
248.64	3926	
248.86	4888.5	
249.07	5276.3	
249.28	3528.7	
249.49	4142.4	
249.7	6109.8	
249.91	6189	
250.12	3301.3	
250.34	3381.2	
250.55	5653.8	
250.76	5479.7	
250.97	4189.5	
251.18	4132.1	
251.39	6303.6	
251.6	5717.2	
251.81	4248.9	
252.03	4181.3	
252.24	5241.4	
252.45	6073.6	
252.66	3473.4	
252.87	4444.8	
253.08	5550	
253.29	7375.4	
253.5	3482.9	
253.72	4922.6	
253.93	5355.4	
254.14	6602	
254.35	3802.4	
254.56	3917.1	
254.77	5737	
254.98	5088.5	
255.19	3749.8	
255.41	4842.1	
255.62	5563.6	
255.83	6223.8	
256.04	4346.5	
256.25	4229.7	
256.46	6692.1	
256.67	5228.5	
256.88	4149.9	
257.09	4705.5	
257.31	5096.7	
257.52	5218.2	
257.73	5195.7	
257.94	3756.7	
258.15	5272.8	
258.36	5567.1	
258.57	4874.2	
258.78	3053.5	
258.99	6076.3	
259.2	5331.5	
259.41	3821.5	
259.63	3928	
259.84	6335.7	
260.05	6947.4	
260.26	5076.9	
260.47	3726.6	
260.68	6100.9	
260.89	5427.8	
261.1	4647.5	
261.31	3612.6	
261.52	6123.4	
261.73	6585.6	
261.95	4957.4	
262.16	4329.4	
262.37	6281.1	
262.58	6355.5	
262.79	4939.7	
263	3900.7	
263.21	5597.1	
263.42	5017.5	
263.63	3928.7	
263.84	3882.3	
264.05	6102.9	
264.26	6468.2	
264.47	4803.9	
264.69	4165.6	
264.9	6202.6	
265.11	5722	
265.32	3691.8	
265.53	3790.8	
265.74	5651	
265.95	4937.7	
266.16	4113	
266.37	4538.3	
266.58	5643.5	
266.79	5353.4	
267	3719.1	
267.21	3491.1	
267.42	5007.3	
267.63	5520	
267.84	4016.7	
268.06	3375.1	
268.27	5959.6	
268.48	6275	
268.69	3903.4	
268.9	4661.2	
269.11	6259.3	
269.32	5010	
269.53	4032.5	
269.74	3705.5	
269.95	5849	
270.16	4847.5	
270.37	4043.4	
270.58	4658.4	
270.79	5360.9	
271	6058.6	
271.21	4336.2	
271.42	4019.5	
271.63	5703.6	
271.84	5148.6	
272.05	3203.7	
272.26	3579.8	
272.47	5531.6	
272.68	5789.6	
272.89	3786.7	
273.11	4528.7	
273.32	5326.8	
273.53	6535.1	
273.74	4320.5	
273.95	4219.5	
274.16	6207.4	
274.37	5559.6	
274.58	4423.6	
274.79	3509.5	
275	5679.7	
275.21	6277	
275.42	5249.6	
275.63	4600.4	
275.84	5760.3	
276.05	7324.2	
276.26	4231.8	
276.47	3884.3	
276.68	5357.5	
276.89	6655.2	
277.1	4580.6	
277.31	3541.6	
277.52	5836	
277.73	5919.3	
277.94	3491.8	
278.15	3846.1	
278.36	5763	
278.57	5167	
278.78	3848.8	
278.99	4384	
279.2	5122	
279.41	5130.8	
279.62	5077.6	
279.83	3512.3	
280.04	6787	
280.25	4962.9	
280.46	5081	
280.67	4016.7	
280.88	5143.1	
281.09	6256.5	
281.3	4246.1	
281.51	5375.9	
281.72	5242.8	
281.93	6070.9	
282.14	3766.2	
282.35	4027	
282.56	6019.7	
282.77	6019.7	
282.98	3876.1	
283.19	4760.2	
283.4	7542.7	
283.61	5468.1	
283.82	3487	
284.03	5038	
284.24	5620.3	
284.45	6236.1	
284.66	4998.4	
284.87	4762.9	
285.08	6096.8	
285.29	6384.2	
285.5	3385.3	
285.71	3981.3	
285.92	6145.3	
286.12	6820.4	
286.33	4928.1	
286.54	3925.3	
286.75	6002.6	
286.96	5363.6	
287.17	3565.5	
287.38	4863.9	
287.59	5087.2	
287.8	5058.5	
288.01	3953.3	
288.22	4576.5	
288.43	6112.5	
288.64	5061.9	
288.85	4694.6	
289.06	4441.4	
289.27	5979.4	
289.48	6539.8	
289.69	4999.1	
289.9	4474.8	
290.11	6199.2	
290.32	5218.9	
290.53	4797	
290.74	4369	
290.94	6088.6	
291.15	6041.5	
291.36	3802.4	
291.57	4478.2	
291.78	5233.2	
291.99	4911	
292.2	3577.1	
292.41	4347.8	
292.62	6148.7	
292.83	5894.7	
293.04	5429.8	
293.25	3633.1	
293.46	5247.6	
293.67	6137.8	
293.88	3741	
294.09	3588.7	
294.29	5042.1	
294.5	5664.7	
294.71	4080.2	
294.92	3815.4	
295.13	5233.9	
295.34	6677.1	
295.55	3354.6	
295.76	3430.3	
295.97	6008.1	
296.18	6815	
296.39	3528	
296.6	3734.1	
296.81	5614.2	
297.01	5958.2	
297.22	3898.6	
297.43	3739.6	
297.64	5097.4	
297.85	5152.7	
298.06	3051.5	
298.27	3319.1	
298.48	5524.7	
298.69	5245.5	
298.9	4097.3	
299.11	3675.4	
299.31	5008	
299.52	5050.3	
299.73	4351.9	
299.94	4222.9	
300.15	5453.1	
300.36	5144.5	
300.57	4351.9	
300.78	4289.1	
300.99	5400.5	
301.2	5660.6	
301.4	3753.2	
301.61	4036.5	
301.82	5874.9	
302.03	5958.2	
302.24	4614.1	
302.45	3520.5	
302.66	5853.8	
302.87	6318.7	
303.08	3756	
303.29	5153.4	
303.49	5297.4	
303.7	5601.2	
303.91	3403.7	
304.12	4990.9	
304.33	5036	
304.54	5683.1	
304.75	3760.8	
304.96	3549.8	
305.16	5869.5	
305.37	6580.1	
305.58	3242.6	
305.79	3375.7	
306	5878.4	
306.21	4949.9	
306.42	3788.1	
306.63	5813.5	
306.83	5388.9	
307.04	6176	
307.25	4147.1	
307.46	4168.3	
307.67	4719.2	
307.88	6010.8	
308.09	3652.2	
308.29	3816	
308.5	5681.7	
308.71	6182.8	
308.92	3952.6	
309.13	3642.7	
309.34	5463.3	
309.55	5503.6	
309.75	4745.1	
309.96	4311	
310.17	5948.7	
310.38	5229.1	
310.59	4556.7	
310.8	4234.5	
311.01	6237.4	
311.21	5429.2	
311.42	3551.2	
311.63	3706.8	
311.84	5283.1	
312.05	5670.1	
312.26	4149.2	
312.46	4571.7	
312.67	5359.5	
312.88	5084.4	
313.09	3667.9	
313.3	3556	
313.51	6408.8	
313.71	6789	
313.92	3608.5	
314.13	3831.1	
314.34	5701.5	
314.55	5500.8	
314.76	4715.1	
314.96	4048.2	
315.17	5584.8	
315.38	5963	
315.59	3627.6	
315.8	3490.4	
316.01	6531	
316.21	6561	
316.42	3454.2	
316.63	4060.4	
316.84	5398.4	
317.05	6305	
317.26	4317.1	
317.46	3817.4	
317.67	5462.6	
317.88	5940.5	
318.09	4644.1	
318.3	3366.9	
318.5	5239.4	
318.71	5866.1	
318.92	5892.7	
319.13	4343.7	
319.34	6111.8	
319.54	6206.7	
319.75	3351.2	
319.96	3184.6	
320.17	5927.5	
320.38	6108.4	
320.58	3303.4	
320.79	3998.3	
321	6128.2	
321.21	6350.1	
321.42	4009.9	
321.62	3272.7	
321.83	5104.9	
322.04	5545.9	
322.25	3857.7	
322.46	3691.8	
322.66	5643.5	
322.87	5812.1	
323.08	4482.3	
323.29	3654.3	
323.5	6651.8	
323.7	5087.2	
323.91	4999.1	
324.12	4465.3	
324.33	5591.6	
324.53	5883.8	
324.74	4282.3	
324.95	4573.1	
325.16	4922	
325.37	5333.6	
325.57	3620.1	
325.78	3735.5	
325.99	5592.3	
326.2	5005.9	
326.4	5404.6	
326.61	3375.7	
326.82	5450.3	
327.03	5694	
327.24	5210	
327.44	5013.4	
327.65	5796.4	
327.86	4702.1	
328.07	4268	
328.27	3480.9	
328.48	6250.4	
328.69	5114.5	
328.9	5281.7	
329.1	3928	
329.31	5436.7	
329.52	6453.1	
329.73	3590.8	
329.93	4121.9	
330.14	5521.3	
330.35	5838.8	
330.56	6049.7	
330.76	4555.4	
330.97	5314.5	
331.18	5807.4	
331.39	4047.5	
331.59	3276.8	
331.8	6148.7	
332.01	6319.3	
332.22	3696.6	
332.42	4334.2	
332.63	5651	
332.84	5307	
333.05	4107.5	
333.25	3678.2	
333.46	5329.5	
333.67	5607.3	
333.88	3833.1	
334.08	4250.9	
334.29	7464.8	
334.5	6270.2	
334.7	3537.5	
334.91	5313.1	
335.12	5050.3	
335.33	5988.9	
335.53	4083	
335.74	6058.6	
335.95	5314.5	
336.16	5196.4	
336.36	4005.1	
336.57	4647.5	
336.78	5063.3	
336.98	6161.7	
337.19	5028.4	
337.4	3949.2	
337.61	6729.6	
337.81	5063.9	
338.02	3728.7	
338.23	4762.2	
338.43	6353.5	
338.64	5159.5	
338.85	3670	
339.05	4847.5	
339.26	6367.8	
339.47	4917.9	
339.68	3695.2	
339.88	5496.1	
340.09	5745.9	
340.3	5970.5	
340.5	4267.3	
340.71	3211.9	
340.92	4976.6	
341.13	6340.5	
341.33	3584.6	
341.54	4314.4	
341.75	5714.5	
341.95	5470.1	
342.16	4150.6	
342.37	4485.7	
342.57	5089.9	
342.78	5554.8	
342.99	4589.5	
343.19	3244.7	
343.4	5999.9	
343.61	5795.8	
343.81	3867.9	
344.02	3583.3	
344.23	5933	
344.43	6434	
344.64	4568.3	
344.85	4461.8	
345.06	5816.2	
345.26	6143.2	
345.47	4209.9	
345.68	4991.6	
345.88	4861.2	
346.09	6072.9	
346.3	4323.9	
346.5	3207.1	
346.71	5519.3	
346.92	5255.1	
347.12	3338.2	
347.33	4239.3	
347.54	6111.1	
347.74	6573.3	
347.95	4164.9	
348.16	3077.4	
348.36	5394.3	
348.57	5053	
348.78	4134.2	
348.98	4478.2	
349.19	5457.2	
349.39	4984.1	
349.6	3351.2	
349.81	3700	
350.01	5781.4	
350.22	5210.7	
350.43	4058.4	
350.63	4848.9	
350.84	5531.6	
351.05	5356.8	
351.25	3687	
351.46	3280.8	
351.67	6150.7	
351.87	5188.2	
352.08	3888.4	
352.29	4456.4	
352.49	6014.9	
352.7	5709.1	
352.9	3547.8	
353.11	4440.7	
353.32	6696.9	
353.52	5322.7	
353.73	3468.6	
353.94	4492.6	
354.14	5820.3	
354.35	5623	
354.55	3593.5	
354.76	4016.7	
354.97	5840.1	
355.17	5601.2	
355.38	3336.8	
355.59	4730.8	
355.79	5251	
356	5642.2	
356.2	4013.3	
356.41	3475.4	
356.62	4902.8	
356.82	5429.2	
357.03	4262.5	
357.24	3877.5	
357.44	5195	
357.65	5341.8	
357.85	5128.1	
358.06	4011.3	
358.27	4925.4	
358.47	5144.5	
358.68	3283.6	
358.88	4267.3	
359.09	5760.9	
359.3	6123.4	
359.5	4969.7	
359.71	4403.8	
359.91	6636.1	
360.12	5948	
360.33	4162.2	
360.53	4704.2	
360.74	5159.5	
360.94	5253.7	
361.15	4464.6	
361.36	3580.5	
361.56	6002.6	
361.77	5426.4	
361.97	4935.6	
362.18	3873.4	
362.38	6026.5	
362.59	5022.3	
362.8	3525.2	
363	3343	
363.21	4812.7	
363.41	5479	
363.62	4137.6	
363.83	5244.2	
364.03	5558.2	
364.24	6594.5	
364.44	5255.8	
364.65	5209.3	
364.85	5340.4	
365.06	5205.9	
365.27	3674.7	
365.47	3736.2	
365.68	6362.4	
365.88	5291.3	
366.09	4130.1	
366.29	3778.5	
366.5	5571.2	
366.71	6023.1	
366.91	5136.3	
367.12	4318.5	
367.32	6567.8	
367.53	5857.9	
367.73	4268.6	
367.94	5264.6	
368.14	5761.6	
368.35	6776.7	
368.56	4241.3	
368.76	3545	
368.97	5894.1	
369.17	7701	
369.38	3653.6	
369.58	4004.5	
369.79	4919.9	
369.99	6269.5	
370.2	5068	
370.4	4123.9	
370.61	5591	
370.82	6834.8	
371.02	3888.4	
371.23	3198.2	
371.43	4742.4	
371.64	6178	
371.84	3975.8	
372.05	5299.5	
372.25	7517.4	
372.46	5941.8	
372.66	4007.9	
372.87	3906.8	
373.07	5965.7	
373.28	7710.6	
373.48	4958.1	
373.69	4690.5	
373.9	5398.4	
374.1	5427.1	
374.31	4955.4	
374.51	4404.5	
374.72	6280.4	
374.92	4974.5	
375.13	5122.7	
375.33	4261.1	
375.54	5784.8	
375.74	5227.8	
375.95	4272.7	
376.15	5616.9	
376.36	5741.8	
376.56	5569.1	
376.77	4358.8	
376.97	4818.9	
377.18	6876.4	
377.38	5844.2	
377.59	5160.2	
377.79	3792.8	
378	5532.9	
378.2	6074.3	
378.41	3885.7	
378.61	3783.3	
378.82	6105.7	
379.02	5131.5	
379.23	3961.5	
379.43	5231.2	
379.64	6173.3	
379.84	5776.6	
380.05	3799.7	
380.25	3760.8	
380.46	5838.8	
380.66	5455.1	
380.87	5272.2	
381.07	5642.8	
381.28	6534.4	
381.48	5878.4	
381.69	3829	
381.89	3909.6	
382.1	4761.5	
382.3	6090.7	
382.51	4988.2	
382.71	6051.1	
382.91	5928.2	
383.12	6439.5	
383.32	4278.2	
383.53	4484.4	
383.73	5729.5	
383.94	5524.1	
384.14	4402.5	
384.35	3446.7	
384.55	5434.6	
384.76	5935	
384.96	4209.9	
385.17	4618.2	
385.37	5940.5	
385.58	5117.9	
385.78	4642.1	
385.98	3396.9	
386.19	5369.8	
386.39	5772.5	
386.6	3994.9	
386.8	4311	
387.01	5894.1	
387.21	5858.6	
387.42	4705.5	
387.62	5348.6	
387.83	5150	
388.03	5945.9	
388.23	4278.2	
388.44	5199.1	
388.64	4749.9	
388.85	4956.1	
389.05	4660.5	
389.26	5274.2	
389.46	6854.6	
389.67	6277.7	
389.87	4617.5	
390.07	4627.7	
390.28	5494	
390.48	5092.6	
390.69	3846.1	
390.89	4130.8	
391.1	5211.4	
391.3	6248.4	
391.5	5362.9	
391.71	6030.6	
391.91	5856.5	
392.12	7026.6	
392.32	5489.9	
392.53	4714.4	
392.73	5268.1	
392.93	5438	
393.14	4253.6	
393.34	5104.9	
393.55	6019.7	
393.75	5510.4	
393.95	4289.8	
394.16	4229.1	
394.36	5210.7	
394.57	5949.3	
394.77	3707.5	
394.98	4201.1	
395.18	5198.4	
395.38	5431.9	
395.59	5079	
395.79	3947.1	
396	5198.4	
396.2	5793	
396.4	4932.2	
396.61	4784.7	
396.81	6016.9	
397.02	5201.2	
397.22	5054.4	
397.42	5079.6	
397.63	5982.1	
397.83	5137	
398.04	3859.1	
398.24	4307.6	
398.44	5711.1	
398.65	4728.8	
398.85	3654.3	
399.05	3781.2	
399.26	5038.7	
399.46	6817	
399.67	4203.8	
399.87	3913	
400.07	5409.4	
400.28	5857.9	
400.48	3947.1	
400.69	5061.2	
400.89	6027.2	
401.09	6503.7	
401.3	3828.3	
401.5	5051.7	
401.7	6673	
401.91	7017	
402.11	4214	
402.32	4552.6	
402.52	6093.4	
402.72	5954.8	
402.93	4698	
403.13	3395.5	
403.33	6894.1	
403.54	5554.8	
403.74	4392.9	
403.94	5357.5	
404.15	5640.8	
404.35	6806.1	
404.56	4229.7	
404.76	6184.2	
404.96	6042.9	
405.17	5814.9	
405.37	5604.6	
405.57	4698	
405.78	6014.2	
405.98	5563.6	
406.18	4113	
406.39	5159.5	
406.59	6061.3	
406.79	5654.4	
407	3956.7	
407.2	4166.9	
407.4	6057.2	
407.61	6313.2	
407.81	3932.8	
408.01	5893.4	
408.22	5008	
408.42	7124.2	
408.62	5119.9	
408.83	4505.5	
409.03	5498.8	
409.23	5248.9	
409.44	4565.6	
409.64	4820.9	
409.84	6452.5	
410.05	6242.2	
410.25	4657.1	
410.45	4394.9	
410.66	5635.3	
410.86	8250.6	
411.06	4760.2	
411.27	4646.2	
411.47	8008.9	
411.67	5857.2	
411.88	4903.5	
412.08	5156.1	
412.28	6503	
412.49	7074.4	
412.69	4529.4	
412.89	4595	
413.09	6740.5	
413.3	6636.1	
413.5	4638.6	
413.7	4228.4	
413.91	5799.2	
414.11	6815	
414.31	4460.5	
414.52	4858.5	
414.72	6356.9	
414.92	6227.9	
415.12	4459.8	
415.33	5001.8	
415.53	6698.9	
415.73	6891.4	
415.94	5442.8	
416.14	4771.8	
416.34	5509.7	
416.55	5357.5	
416.75	6133.7	
416.95	5376.6	
417.15	6590.4	
417.36	7509.9	
417.56	6218.3	
417.76	5165	
417.97	7043	
418.17	6690	
418.37	4739.7	
418.57	4811.4	
418.78	6339.1	
418.98	6128.2	
419.18	5780.1	
419.38	5712.5	
419.59	6148.7	
419.79	5720.7	
419.99	4739	
420.2	5160.9	
420.4	6718	
420.6	6896.2	
420.8	4625	
421.01	4463.9	
421.21	6471.6	
421.41	6709.8	
421.61	5012.1	
421.82	4715.8	
422.02	6003.3	
422.22	6978.8	
422.42	5556.8	
422.63	5256.5	
422.83	6139.1	
423.03	7367.2	
423.23	5223.7	
423.44	4145.1	
423.64	6196.5	
423.84	5982.1	
424.04	4614.8	
424.25	4293.2	
424.45	7219.8	
424.65	7105.8	
424.85	4127.3	
425.06	4746.5	
425.26	7138.5	
425.46	6016.9	
425.66	5164.3	
425.87	4854.4	
426.07	6936.5	
426.27	6759	
426.47	5095.3	
426.67	4450.9	
426.88	7395.9	
427.08	6720.1	
427.28	5249.6	
427.48	4281.6	
427.69	5472.9	
427.89	6264.1	
428.09	5366.4	
428.29	4322.6	
428.5	7006.1	
428.7	6467.5	
428.9	4255	
429.1	4878.9	
429.3	6277.7	
429.51	6846.4	
429.71	4590.9	
429.91	5414.8	
430.11	6613.6	
430.31	6922.1	
430.52	4817.5	
430.72	5168.4	
430.92	7266.2	
431.12	6726.2	
431.32	4560.8	
431.53	4946.5	
431.73	5442.8	
431.93	7387.7	
432.13	4420.9	
432.33	4233.8	
432.54	6006	
432.74	6391	
432.94	4174.4	
433.14	5385.5	
433.34	6527.6	
433.55	5917.3	
433.75	5227.8	
433.95	7087.3	
434.15	6293.4	
434.35	6006	
434.56	4358.8	
434.76	3813.3	
434.96	6290.7	
435.16	6500.9	
435.36	4227	
435.56	5416.2	
435.77	5892	
435.97	6112.5	
436.17	6146.6	
436.37	5346.6	
436.57	5881.1	
436.78	5681.1	
436.98	5289.9	
437.18	5945.9	
437.38	6530.3	
437.58	6039.5	
437.78	6195.8	
437.99	4647.5	
438.19	6668.2	
438.39	8189.8	
438.59	4597	
438.79	4128	
438.99	7332.4	
439.2	6096.8	
439.4	4232.5	
439.6	4193.6	
439.8	6410.8	
440	7515.4	
440.2	5185.5	
440.4	5340.4	
440.61	6721.4	
440.81	7380.9	
441.01	4328.7	
441.21	5292.6	
441.41	7118.7	
441.61	6735.1	
441.81	5631.2	
442.02	6750.8	
442.22	7670.3	
442.42	6862.1	
442.62	4377.2	
442.82	4484.4	
443.02	7061.4	
443.22	6146.6	
443.43	4880.3	
443.63	4351.3	
443.83	5916.6	
444.03	6012.8	
444.23	5681.7	
444.43	5245.5	
444.63	6285.9	
444.83	7607.5	
445.04	4496	
445.24	5838.8	
445.44	6759.7	
445.64	6855.9	
445.84	5401.9	
446.04	5376.6	
446.24	6040.8	
446.44	7193.1	
446.65	4599.1	
446.85	4892.6	
447.05	6519.4	
447.25	7079.1	
447.45	5015.5	
447.65	4326.7	
447.85	6405.4	
448.05	6044.2	
448.25	5473.5	
448.46	5325.4	
448.66	6511.9	
448.86	6113.2	
449.06	4114.4	
449.26	5450.3	
449.46	6826.6	
449.66	5670.1	
449.86	4879.6	
450.06	4881	
450.26	5935.7	
450.47	6571.9	
450.67	5147.9	
450.87	5587.5	
451.07	6641.6	
451.27	6481.1	
451.47	4500.8	
451.67	4967	
451.87	6016.2	
452.07	7309.9	
452.27	4614.8	
452.47	4662.5	
452.67	6401.3	
452.88	7074.4	
453.08	3991.5	
453.28	6161	
453.48	7638.9	
453.68	6365.1	
453.88	4521.2	
454.08	4761.5	
454.28	6621.1	
454.48	6315.3	
454.68	5367	
454.88	5877	
455.08	6786.3	
455.28	6526.9	
455.48	4400.4	
455.68	4986.1	
455.89	7326.9	
456.09	6898.2	
456.29	4691.9	
456.49	4706.9	
456.69	7081.2	
456.89	6351.4	
457.09	5255.1	
457.29	5610.1	
457.49	6637.5	
457.69	6738.5	
457.89	5020.9	
458.09	4425.7	
458.29	6329.6	
458.49	7086	
458.69	5456.5	
458.89	4775.2	
459.09	7329.7	
459.29	7474.4	
459.49	4980.7	
459.69	5771.9	
459.9	6898.9	
460.1	6238.8	
460.3	4900.1	
460.5	4648.2	
460.7	6784.2	
460.9	6526.9	
461.1	4177.2	
461.3	5586.9	
461.5	7475.8	
461.7	7069.6	
461.9	4558.8	
462.1	5163.6	
462.3	6449.1	
462.5	7193.1	
462.7	4685.8	
462.9	4702.8	
463.1	8120.2	
463.3	7731.1	
463.5	4926	
463.7	5870.2	
463.9	6609.5	
464.1	6995.2	
464.3	4949.3	
464.5	5283.8	
464.7	7198.6	
464.9	6805.4	
465.1	6664.1	
465.3	5595.1	
465.5	7698.3	
465.7	7491.5	
465.9	5795.8	
466.1	5737	
466.3	7282.6	
466.5	7107.1	
466.7	6544.6	
466.9	5370.5	
467.1	6927.6	
467.3	8053.3	
467.5	6440.9	
467.7	5160.2	
467.9	8211.7	
468.1	9130.5	
468.3	6201.9	
468.5	6531	
468.7	6956.3	
468.9	6915.3	
469.1	5544.5	
469.3	6279.8	
469.5	9056.1	
469.7	6341.9	
469.9	6068.8	
470.1	5189.6	
470.3	6891.4	
470.5	6959	
470.7	6611.5	
470.9	5313.1	
471.1	6634.7	
471.3	7267.6	
471.5	5057.1	
471.69	7149.5	
471.89	6580.8	
472.09	6156.9	
472.29	5981.4	
472.49	6457.9	
472.69	6277	
472.89	7188.4	
473.09	4962.2	
473.29	5271.5	
473.49	6467.5	
473.69	6710.5	
473.89	6304.3	
474.09	5359.5	
474.29	8041.7	
474.49	7762.5	
474.69	6234.7	
474.89	5616.9	
475.09	6801.3	
475.29	6763.8	
475.49	4903.5	
475.69	5174.5	
475.88	8427.4	
476.08	7004.7	
476.28	4842.8	
476.48	5479.7	
476.68	7571.3	
476.88	7469.6	
477.08	5207.3	
477.28	5523.4	
477.48	6858	
477.68	7580.2	
477.88	5018.2	
478.08	5380	
478.28	7897	
478.48	6930.3	
478.67	5401.9	
478.87	4892.6	
479.07	7683.3	
479.27	7156.3	
479.47	5687.9	
479.67	5670.8	
479.87	7460.1	
480.07	8020.5	
480.27	4840.7	
480.47	6648.4	
480.67	7141.9	
480.87	7688.8	
481.06	5134.3	
481.26	6029.2	
481.46	7043.6	
481.66	6928.3	
481.86	5636	
482.06	6690.7	
482.26	6689.3	
482.46	7740	
482.66	5629.2	
482.86	5083.7	
483.05	7097.6	
483.25	6473.6	
483.45	8181	
483.65	5554.8	
483.85	6653.9	
484.05	7013.6	
484.25	6027.9	
484.45	6454.5	
484.65	7980.3	
484.84	7866.9	
485.04	5440.8	
485.24	5436.7	
485.44	8095.6	
485.64	6374	
485.84	4650.3	
486.04	6255.2	
486.24	6780.8	
486.44	7174	
486.63	4570.4	
486.83	5457.8	
487.03	6574.7	
487.23	6815	
487.43	4734.9	
487.63	7352.9	
487.83	6872.3	
488.02	7909.9	
488.22	5662.6	
488.42	6354.2	
488.62	7805.5	
488.82	6619	
489.02	5382.1	
489.22	5339.1	
489.41	7606.2	
489.61	7143.3	
489.81	5128.8	
490.01	5108.3	
490.21	7498.3	
490.41	8172.8	
490.61	5056.4	
490.8	5105.6	
491	6989.7	
491.2	6280.4	
491.4	5889.3	
491.6	4873.5	
491.8	6996.5	
491.99	7225.2	
492.19	4772.4	
492.39	5240.8	
492.59	7609.6	
492.79	7600	
492.99	6096.1	
493.18	5117.9	
493.38	7674.4	
493.58	8366	
493.78	5870.8	
493.98	5425.8	
494.18	7295.5	
494.37	6649.1	
494.57	5898.8	
494.77	5858.6	
494.97	7441	
495.17	7650.5	
495.37	5283.8	
495.56	5655.8	
495.76	7879.9	
495.96	7402.7	
496.16	6566.5	
496.36	5393	
496.55	7659.4	
496.75	7125.6	
496.95	5855.8	
497.15	5623	
497.35	7568.6	
497.54	7557	
497.74	5477.6	
497.94	7333.1	
498.14	8235.6	
498.34	8060.1	
498.53	5106.3	
498.73	5994.4	
498.93	6927.6	
499.13	7576.8	
499.33	5769.1	
499.52	6214.2	
499.72	7433.4	
499.92	7774.8	
500.12	5354.1	
500.32	5706.3	
500.51	7736.5	
500.71	7509.2	
500.91	6468.9	
501.11	6064.7	
501.31	7625.3	
501.5	8101.8	
501.7	6732.4	
501.9	5656.5	
502.1	7445	
502.29	7727	
502.49	6156.9	
502.69	6708.5	
502.89	7633.5	
503.09	7659.4	
503.28	5194.3	
503.48	5260.5	
503.68	6876.4	
503.88	6853.9	
504.07	6351.4	
504.27	5855.1	
504.47	7300.3	
504.67	7413.6	
504.86	6252.4	
505.06	5993.7	
505.26	7004.1	
505.46	8938	
505.65	5824.4	
505.85	6105.7	
506.05	6875.7	
506.25	7478.5	
506.44	5138.4	
506.64	6290.7	
506.84	6855.9	
507.04	7894.2	
507.23	5448.3	
507.43	5938.4	
507.63	8995.4	
507.83	7122.8	
508.02	6021	
508.22	5325.4	
508.42	9211.1	
508.62	6883.2	
508.81	5881.8	
509.01	6402.6	
509.21	6816.3	
509.4	7084.6	
509.6	6084.5	
509.8	5414.1	
510	7036.1	
510.19	8521.6	
510.39	5409.4	
510.59	5461.2	
510.79	6816.3	
510.98	8199.4	
511.18	5487.9	
511.38	5651.7	
511.57	7660.8	
511.77	7589.1	
511.97	6396.5	
512.17	5314.5	
512.36	7667.6	
512.56	7727.7	
512.76	5392.3	
512.95	5196.4	
513.15	7823.9	
513.35	6397.2	
513.55	6336.4	
513.74	5322.7	
513.94	7790.5	
514.14	7049.8	
514.33	6491.4	
514.53	6094.1	
514.73	7068.2	
514.92	7247.1	
515.12	5604.6	
515.32	5354.8	
515.51	7326.9	
515.71	7939.3	
515.91	7140.6	
516.11	5414.1	
516.3	9211.8	
516.5	6918	
516.7	6014.2	
516.89	6673	
517.09	7062.1	
517.29	6916.7	
517.48	6320.7	
517.68	5705.6	
517.88	6785.6	
518.07	7415.7	
518.27	6295.5	
518.47	5231.9	
518.66	8008.2	
518.86	6544.6	
519.06	5044.1	
519.25	5575.3	
519.45	6961	
519.65	8494.3	
519.84	6234.7	
520.04	6938.5	
520.24	8870.4	
520.43	7602.1	
520.63	5902.2	
520.83	5599.8	
521.02	6765.8	
521.22	7522.2	
521.42	6225.1	
521.61	6793.8	
521.81	6956.3	
522.01	7276.4	
522.2	5997.8	
522.4	5890.6	
522.6	7751.6	
522.79	6420.4	
522.99	5915.9	
523.18	5147.9	
523.38	7419.1	
523.58	7398.6	
523.77	7091.4	
523.97	5076.2	
524.17	9335.3	
524.36	8445.8	
524.56	6490	
524.76	6113.9	
524.95	7286.7	
525.15	6899.6	
525.34	5843.5	
525.54	5752.7	
525.74	7595.9	
525.93	6558.3	
526.13	7009.5	
526.33	5689.3	
526.52	7953.6	
526.72	7329	
526.91	7002	
527.11	6232.7	
527.31	7928.4	
527.5	8386.4	
527.7	6077	
527.89	4952	
528.09	6793.8	
528.29	7327.6	
528.48	6483.2	
528.68	6194.4	
528.87	7700.4	
529.07	7782.3	
529.27	6055.2	
529.46	5451.7	
529.66	7273.7	
529.85	7813.7	
530.05	5283.8	
530.25	6085.9	
530.44	8725.7	
530.64	7262.1	
530.83	5755.5	
531.03	6041.5	
531.23	7631.4	
531.42	7628	
531.62	6807.4	
531.81	5935	
532.01	7834.8	
532.21	8424	
532.4	5578	
532.6	5990.3	
532.79	8826.7	
532.99	7776.8	
533.18	5982.1	
533.38	7090.8	
533.58	7225.2	
533.77	8155.7	
533.97	5849	
534.16	6774.7	
534.36	8342.7	
534.55	7281.9	
534.75	6907.1	
534.95	5881.1	
535.14	8119.5	
535.34	7254.6	
535.53	5593	
535.73	7667.6	
535.92	8805.6	
536.12	7482.6	
536.31	5618.9	
536.51	7016.3	
536.71	7895.6	
536.9	7400	
537.1	5909.1	
537.29	6068.1	
537.49	8312.7	
537.68	7258.7	
537.88	6419	
538.07	5568.4	
538.27	7454.6	
538.46	8525.7	
538.66	5511.8	
538.86	5967.8	
539.05	7499.7	
539.25	8081.3	
539.44	6161.7	
539.64	5840.8	
539.83	7344.7	
540.03	8477.2	
540.22	5656.5	
540.42	5924.8	
540.61	7655.3	
540.81	7772	
541	6457.2	
541.2	7050.5	
541.39	7161.1	
541.59	7582.9	
541.78	6664.1	
541.98	5757.5	
542.18	6812.9	
542.37	6879.1	
542.57	6201.2	
542.76	6604	
542.96	6921.5	
543.15	7729.7	
543.35	6244.3	
543.54	5448.3	
543.74	8101.1	
543.93	7563.1	
544.13	6242.9	
544.32	7429.3	
544.52	7906.5	
544.71	7080.5	
544.91	5303.6	
545.1	6647.7	
545.3	7139.2	
545.49	7918.8	
545.69	5218.2	
545.88	5873.6	
546.08	8873.8	
546.27	8449.2	
546.47	6513.2	
546.66	5627.1	
546.86	8120.2	
547.05	8772.8	
547.24	5950	
547.44	5760.3	
547.63	7004.1	
547.83	8248.5	
548.02	6194.4	
548.22	6428.6	
548.41	6794.5	
548.61	8301.1	
548.8	5785.5	
549	5640.1	
549.19	7447.8	
549.39	7838.9	
549.58	5410.7	
549.78	6057.2	
549.97	7899.7	
550.17	7415	
550.36	7004.7	
550.55	8068.3	
550.75	7451.2	
550.94	8477.2	
551.14	5645.6	
551.33	6094.1	
551.53	6696.2	
551.72	7892.9	
551.92	6148.7	
552.11	5871.5	
552.31	7943.4	
552.5	8061.5	
552.69	7731.8	
552.89	5563.6	
553.08	7830.7	
553.28	7528.3	
553.47	5955.5	
553.67	7240.3	
553.86	8634.9	
554.06	6765.1	
554.25	5091.9	
554.44	5630.5	
554.64	9371.5	
554.83	8871.1	
555.03	5614.8	
555.22	6060.6	
555.42	8110	
555.61	7807.5	
555.8	5900.2	
556	6253.1	
556.19	6818.4	
556.39	8254	
556.58	6027.2	
556.78	5963.7	
556.97	7713.3	
557.16	7349.5	
557.36	7311.2	
557.55	5517.9	
557.75	6596.5	
557.94	8503.8	
558.13	5722.7	
558.33	5463.3	
558.52	8356.4	
558.72	7028.6	
558.91	5640.1	
559.1	5875.6	
559.3	6823.1	
559.49	6561	
559.69	5097.4	
559.88	6201.2	
560.07	7669	
560.27	8157.7	
560.46	6457.2	
560.66	6500.9	
560.85	7397.9	
561.04	6594.5	
561.24	5554.8	
561.43	5787.6	
561.63	6916	
561.82	7144.7	
562.01	7210.9	
562.21	6225.8	
562.4	7726.3	
562.59	8662.9	
562.79	5938.4	
562.98	5560.2	
563.18	7623.2	
563.37	9107.3	
563.56	6504.3	
563.76	5414.1	
563.95	6911.9	
564.14	6885.3	
564.34	5844.9	
564.53	5702.9	
564.73	7511.9	
564.92	7905.2	
565.11	6119.3	
565.31	5422.3	
565.5	8109.3	
565.69	6976.7	
565.89	5567.1	
566.08	5849.7	
566.27	7947.5	
566.47	8442.4	
566.66	6479.8	
566.85	5119.2	
567.05	7517.4	
567.24	6853.9	
567.44	5513.1	
567.63	6992.4	
567.82	7874.4	
568.02	7439.6	
568.21	5478.3	
568.4	5932.3	
568.6	7317.4	
568.79	7355.6	
568.98	5240.1	
569.18	5444.9	
569.37	7223.2	
569.56	9437.7	
569.76	5760.9	
569.95	6836.1	
570.14	7740	
570.34	7587	
570.53	5191.6	
570.72	5269.4	
570.91	8124.3	
571.11	7178.8	
571.3	5763	
571.49	6738.5	
571.69	7200.7	
571.88	6823.8	
572.07	6350.1	
572.27	6353.5	
572.46	6752.2	
572.65	7870.3	
572.85	5565.7	
573.04	5862	
573.23	8036.9	
573.43	7329	
573.62	5227.1	
573.81	5996.5	
574	7313.3	
574.2	7124.9	
574.39	5584.1	
574.58	5780.7	
574.78	8124.3	
574.97	7396.6	
575.16	6110.5	
575.36	6322.1	
575.55	7645.7	
575.74	7899	
575.93	5162.2	
576.13	6230.6	
576.32	7048.4	
576.51	7630	
576.71	5616.9	
576.9	7038.2	
577.09	8091.5	
577.28	7505.1	
577.48	6122.1	
577.67	5044.1	
577.86	7168.6	
578.05	7382.2	
578.25	5710.4	
578.44	5854.5	
578.63	7286	
578.83	8615.8	
579.02	5193.6	
579.21	6749.4	
579.4	7411.6	
579.6	7063.4	
579.79	5993	
579.98	8193.9	
580.17	7867.6	
580.37	7944.8	
580.56	5439.4	
580.75	6097.5	
580.94	8469.7	
581.14	8196	
581.33	6663.4	
581.52	5500.2	
581.71	7761.1	
581.91	8458.1	
582.1	5111	
582.29	5802.6	
582.48	7341.3	
582.68	7281.2	
582.87	6351.4	
583.06	5900.2	
583.25	7694.2	
583.45	7585.7	
583.64	6607.4	
583.83	7409.6	
584.02	7096.2	
584.21	7613	
584.41	6668.2	
584.6	5902.9	
584.79	7305.1	
584.98	8137.3	
585.18	5320.6	
585.37	5292	
585.56	6756.9	
585.75	7729	
585.94	5539.8	
586.14	6139.8	
586.33	8368.7	
586.52	7315.3	
586.71	6061.3	
586.91	5785.5	
587.1	6739.2	
587.29	7820.5	
587.48	5786.2	
587.67	5604.6	
587.87	7604.8	
588.06	7787.1	
588.25	7014.3	
588.44	6223.1	
588.63	7350.2	
588.83	7907.9	
589.02	5641.5	
589.21	5478.3	
589.4	7063.4	
589.59	6823.1	
589.78	4870.8	
589.98	5126.7	
590.17	6557.6	
590.36	7217	
590.55	4604.5	
590.74	5545.2	
590.94	8768	
591.13	7237.5	
591.32	5309.7	
591.51	4858.5	
591.7	7630.7	
591.89	7121.5	
592.09	4873.5	
592.28	5440.1	
592.47	6395.8	
592.66	8247.9	
592.85	4894.6	
593.05	5182	
593.24	6921.5	
593.43	7724.9	
593.62	5159.5	
593.81	5757.5	
594	6956.3	
594.19	7356.3	
594.39	5130.8	
594.58	5036.6	
594.77	7321.5	
594.96	7944.1	
595.15	5025	
595.34	5762.3	
595.54	7462.8	
595.73	6494.1	
595.92	4444.8	
596.11	5723.4	
596.3	8021.2	
596.49	6554.9	
596.68	5416.2	
596.88	5879.7	
597.07	7707.2	
597.26	6303	
597.45	4966.3	
597.64	6226.5	
597.83	6638.1	
598.02	7357	
598.22	5115.1	
598.41	5842.9	
598.6	7133.8	
598.79	6531	
598.98	5105.6	
599.17	6081.8	
599.36	7187.7	
599.55	8484.1	
599.74	7316.7	
599.94	7027.3	
600.13	7795.3	
600.32	6539.8	
600.51	4842.8	
600.7	5029.1	
600.89	8486.8	
601.08	8498.4	
601.27	4775.9	
601.47	5881.8	
601.66	7730.4	
601.85	8498.4	
602.04	5567.1	
602.23	5879	
602.42	6763.8	
602.61	7442.3	
602.8	5546.6	
602.99	5294	
603.18	7052.5	
603.37	7421.8	
603.57	5949.3	
603.76	6535.8	
603.95	8196	
604.14	7765.2	
604.33	5323.4	
604.52	5634.6	
604.71	7309.9	
604.9	6982.2	
605.09	6331	
605.28	6083.1	
605.47	7920.2	
605.66	7652.6	
605.86	5988.3	
606.05	5362.3	
606.24	7966.6	
606.43	6445.6	
606.62	5689.3	
606.81	6494.8	
607	7808.2	
607.19	7042.3	
607.38	5149.3	
607.57	5403.9	
607.76	6875	
607.95	6323.4	
608.14	5776	
608.33	6447	
608.52	6877.1	
608.72	7878.5	
608.91	5061.9	
609.1	4929.5	
609.29	7064.1	
609.48	6500.3	
609.67	6049.7	
609.86	4954.7	
610.05	6596.5	
610.24	6940.6	
610.43	4846.9	
610.62	4520.5	
610.81	8174.1	
611	7822.6	
611.19	4997	
611.38	5805.3	
611.57	7253.2	
611.76	8691.6	
611.95	4796.3	
612.14	4670.1	
612.33	7043.6	
612.52	6516.6	
612.71	5389.6	
612.9	4464.6	
613.09	6178.7	
613.28	8694.3	
613.47	5141.1	
613.66	6194.4	
613.85	7217.7	
614.04	6720.1	
614.24	5182	
614.43	4338.3	
614.62	7342.7	
614.81	7289.4	
615	5830.6	
615.19	5816.2	
615.38	6584.2	
615.57	6976.7	
615.76	5648.3	
615.95	6606.7	
616.14	7387.7	
616.33	7005.4	
616.52	5965.1	
616.71	6273.6	
616.9	7329	
617.09	7113.3	
617.28	5268.1	
617.47	6585.6	
617.66	6343.9	
617.85	6407.4	
618.04	6255.9	
618.22	5689.3	
618.41	6696.9	
618.6	7587	
618.79	5586.9	
618.98	5166.3	
619.17	7922.2	
619.36	6232.7	
619.55	5309.7	
619.74	5378	
619.93	7210.2	
620.12	6553.5	
620.31	5925.5	
620.5	6110.5	
620.69	7772.7	
620.88	8189.1	
621.07	6840.2	
621.26	5799.8	
621.45	7292.8	
621.64	7329.7	
621.83	5883.1	
622.02	5001.1	
622.21	7317.4	
622.4	7056.6	
622.59	6457.9	
622.78	6154.8	
622.97	6636.8	
623.16	7656	
623.35	5722	
623.54	4891.9	
623.72	6805.4	
623.91	7052.5	
624.1	6050.4	
624.29	4582	
624.48	8118.8	
624.67	7314	
624.86	5941.2	
625.05	4940.4	
625.24	8290.9	
625.43	6536.4	
625.62	7793.9	
625.81	5139.7	
626	7591.1	
626.19	6817.7	
626.38	5962.3	
626.56	5302.9	
626.75	6625.2	
626.94	7399.3	
627.13	5905	
627.32	4549.9	
627.51	7267.6	
627.7	8848.6	
627.89	4737.6	
628.08	5899.5	
628.27	6481.1	
628.46	6687.3	
628.65	5071.5	
628.83	4716.5	
629.02	7322.9	
629.21	6552.1	
629.4	5541.8	
629.59	5760.9	
629.78	6429.3	
629.97	7548.8	
630.16	5849.7	
630.35	5225.7	
630.54	7969.3	
630.72	7671	
630.91	5224.4	
631.1	5913.2	
631.29	7093.5	
631.48	7372	
631.67	5991.7	
631.86	5319.9	
632.05	6673	
632.24	6771.3	
632.42	4928.8	
632.61	5648.3	
632.8	6894.8	
632.99	6488.6	
633.18	5547.9	
633.37	6057.9	
633.56	7196.6	
633.75	6936.5	
633.93	5649.7	
634.12	5251.7	
634.31	8009.6	
634.5	7652.6	
634.69	5326.1	
634.88	5914.5	
635.07	6959	
635.25	7507.9	
635.44	6385.6	
635.63	6541.2	
635.82	6778.1	
636.01	6180.1	
636.2	6247.7	
636.39	5782.8	
636.57	7959.1	
636.76	7705.8	
636.95	5184.8	
637.14	6706.4	
637.33	7294.9	
637.52	8303.8	
637.7	4995.7	
637.89	5990.3	
638.08	6825.9	
638.27	8389.2	
638.46	6044.2	
638.65	6578.1	
638.83	8392.6	
639.02	6614.3	
639.21	6001.9	
639.4	6466.8	
639.59	7229.3	
639.78	6716.7	
639.96	5207.3	
640.15	5288.5	
640.34	7046.4	
640.53	7293.5	
640.72	4924.7	
640.91	5345.2	
641.09	6490	
641.28	7955.7	
641.47	5343.8	
641.66	6211.5	
641.85	7228.6	
642.03	7509.2	
642.22	5913.9	
642.41	5410.1	
642.6	6599.2	
642.79	5939.1	
642.97	5272.2	
643.16	5966.4	
643.35	6546.7	
643.54	6352.1	
643.73	5097.4	
643.91	5986.2	
644.1	6277.7	
644.29	6904.4	
644.48	5247.6	
644.67	5285.1	
644.85	6518.7	
645.04	6775.4	
645.23	4745.8	
645.42	5111.7	
645.6	6294.1	
645.79	7542.7	
645.98	5122	
646.17	4170.3	
646.36	6067.4	
646.54	6830	
646.73	6039.5	
646.92	4811.4	
647.11	6380.8	
647.29	7600	
647.48	4859.1	
647.67	4670.1	
647.86	7809.6	
648.05	7742.7	
648.23	5278.3	
648.42	6694.8	
648.61	7180.9	
648.8	6819.7	
648.98	4922.6	
649.17	5279	
649.36	6434	
649.55	5821.7	
649.73	4939	
649.92	5726.1	
650.11	6305	
650.3	6705.7	
650.48	5079.6	
650.67	4809.3	
650.86	7034.1	
651.05	5834.7	
651.23	5045.5	
651.42	5055.1	
651.61	6417.7	
651.79	6607.4	
651.98	5268.7	
652.17	4885.8	
652.36	6989	
652.54	5927.5	
652.73	4861.9	
652.92	4716.5	
653.11	6978.1	
653.29	6986.3	
653.48	4150.5	
653.67	5266.7	
653.85	6716	
654.04	7823.2	
654.23	5496.1	
654.42	5018.9	
654.6	6242.2	
654.79	6995.9	
654.98	4524.6	
655.16	5127.4	
655.35	5966.4	
655.54	5965.1	
655.73	4706.9	
655.91	4543.1	
656.1	7196.6	
656.29	5894.7	
656.47	4212.7	
656.66	5950	
656.85	6154.1	
657.03	6230.6	
657.22	4752	
657.41	4803.9	
657.59	6257.2	
657.78	5959.6	
657.97	4318.5	
658.16	5121.3	
658.34	6987	
658.53	7361.1	
658.72	6092	
658.9	6666.8	
659.09	6325.5	
659.28	6522.1	
659.46	4820.9	
659.65	4839.4	
659.84	6128.9	
660.02	6612.9	
660.21	4668	
660.4	4614.8	
660.58	7110.5	
660.77	6436.1	
660.96	5229.1	
661.14	4229.1	
661.33	7662.1	
661.52	7481.9	
661.7	4192.2	
661.89	8188.5	
662.08	6067.4	
662.26	5678.3	
662.45	4531.5	
662.64	4659.8	
662.82	6750.8	
663.01	5990.3	
663.2	4727.4	
663.38	5604.6	
663.57	6679.8	
663.75	6552.8	
663.94	5018.2	
664.13	6477	
664.31	6010.8	
664.5	6818.4	
664.69	5214.8	
664.87	5934.3	
665.06	5847	
665.25	6649.1	
665.43	6189	
665.62	6222.4	
665.8	6952.2	
665.99	6210.8	
666.18	5016.8	
666.36	5216.9	
666.55	6925.5	
666.74	6780.8	
666.92	4644.8	
667.11	6489.3	
667.29	6213.5	
667.48	6873.7	
667.67	5986.2	
667.85	5071.5	
668.04	6310.5	
668.22	6217.6	
668.41	5118.6	
668.6	5257.8	
668.78	6016.9	
668.97	6285.9	
669.15	5544.5	
669.34	4429.1	
669.53	6006.7	
669.71	6431.3	
669.9	4698.7	
670.08	5339.1	
670.27	6014.9	
670.46	6711.2	
670.64	5527.5	
670.83	5800.5	
671.01	5982.8	
671.2	6640.2	
671.38	4692.6	
671.57	4570.4	
671.76	7243.7	
671.94	7886.7	
672.13	4513	
672.31	5732.3	
672.5	6756.9	
672.69	6040.8	
672.87	4704.9	
673.06	5017.5	
673.24	6674.3	
673.43	6100.2	
673.61	5631.9	
673.8	5009.3	
673.98	6859.3	
674.17	7020.4	
674.36	5646.2	
674.54	5508.4	
674.73	6597.9	
674.91	6802	
675.1	5177.3	
675.28	4749.9	
675.47	6364.4	
675.65	6925.5	
675.84	4995.7	
676.03	5340.4	
676.21	6056.5	
676.4	5562.3	
676.58	5896.1	
676.77	5610.1	
676.95	7659.4	
677.14	6066.1	
677.32	4730.8	
677.51	4450.9	
677.69	6933.7	
677.88	5651.7	
678.06	4575.2	
678.25	4587.4	
678.44	6328.9	
678.62	6033.3	
678.81	4395.6	
678.99	5365	
679.18	7251.9	
679.36	6737.1	
679.55	4929.5	
679.73	5662	
679.92	6705	
680.1	6085.9	
680.29	6227.2	
680.47	4969.7	
680.66	6004.6	
680.84	6980.8	
681.03	4226.3	
681.21	5360.2	
681.4	6003.3	
681.58	5894.7	
681.77	4756.1	
681.95	4603.8	
682.14	6981.5	
682.32	7268.2	
682.51	5632.6	
682.69	4462.5	
682.88	6014.9	
683.06	6700.3	
683.25	5334.3	
683.43	5814.2	
683.62	6266.1	
683.8	6698.2	
683.99	5935	
684.17	5133.6	
684.36	7549.5	
684.54	6169.8	
684.73	4275.5	
684.91	4564.2	
685.1	6461.3	
685.28	5971.9	
685.46	5202.5	
685.65	5324.7	
685.83	6875	
686.02	6234.7	
686.2	4753.3	
686.39	4844.1	
686.57	6079.7	
686.76	7552.9	
686.94	4691.2	
687.13	4809.3	
687.31	6710.5	
687.5	6186.2	
687.68	4216.8	
687.86	5608.7	
688.05	7861.5	
688.23	5618.9	
688.42	5660.6	
688.6	4743.1	
688.79	6065.4	
688.97	6089.3	
689.16	5187.5	
689.34	3939.6	
689.52	6877.1	
689.71	7075.7	
689.89	5446.2	
690.08	4601.8	
690.26	6312.5	
690.45	6167.8	
690.63	5595.1	
690.81	4726	
691	5982.8	
691.18	5919.3	
691.37	4999.8	
691.55	7335.8	
691.74	5911.1	
691.92	8062.9	
692.1	5000.5	
692.29	4397.7	
692.47	6158.2	
692.66	5468.8	
692.84	4668	
693.02	5326.1	
693.21	5582.8	
693.39	6041.5	
693.58	5304.9	
693.76	4771.1	
693.94	7450.5	
694.13	7197.9	
694.31	4674.8	
694.5	5798.5	
694.68	5914.5	
694.86	6262	
695.05	5009.3	
695.23	5119.9	
695.42	6638.1	
695.6	9067	
695.78	5622.4	
695.97	4640	
696.15	6682.5	
696.34	5999.9	
696.52	4388.1	
696.7	5351.3	
696.89	6326.9	
697.07	5712.5	
697.25	5298.8	
697.44	6924.9	
697.62	6343.9	
697.81	6714.6	
697.99	4943.8	
698.17	5442.8	
698.36	5675.6	
698.54	6389	
698.72	5263.3	
698.91	4233.2	
699.09	5933.6	
699.28	5825.8	
699.46	4921.3	
699.64	4760.8	
699.83	5770.5	
700.01	7236.2	
700.19	5704.3	
700.38	4006.5	
700.56	7123.5	
700.74	5828.5	
700.93	4411.3	
701.11	5333.6	
701.29	6521.4	
701.48	7629.4	
701.66	4657.8	
701.84	4652.3	
702.03	5993.7	
702.21	6680.5	
702.39	4126	
702.58	4795	
702.76	6339.1	
702.94	6518.7	
703.13	4216.8	
703.31	6701	
703.49	5672.9	
703.68	6714.6	
703.86	4404.5	
704.04	5392.3	
704.23	6191	
704.41	6625.2	
704.59	4521.9	
704.78	5988.3	
704.96	7402	
705.14	6718.7	
705.33	4332.8	
705.51	5231.2	
705.69	6022.4	
705.87	6886.6	
706.06	5496.7	
706.24	4282.3	
706.42	6335.7	
706.61	6661.4	
706.79	5580	
706.97	4350.6	
707.16	5810.1	
707.34	6425.2	
707.52	5599.1	
707.7	4560.1	
707.89	6010.1	
708.07	5692	
708.25	5528.2	
708.44	5597.1	
708.62	5932.3	
708.8	7143.3	
708.98	5866.1	
709.17	4669.4	
709.35	6401.3	
709.53	6341.2	
709.72	4371.7	
709.9	4599.1	
710.08	6551.5	
710.26	6643.6	
710.45	6098.2	
710.63	4795.7	
710.81	6271.6	
710.99	6298.2	
711.18	5421.7	
711.36	4945.2	
711.54	6064.7	
711.72	6886	
711.91	4929.5	
712.09	4248.2	
712.27	6303	
712.45	6979.5	
712.64	5311.7	
712.82	4191.5	
713	5740.5	
713.18	5907	
713.37	4350.6	
713.55	5651.7	
713.73	6872.3	
713.91	5375.2	
714.1	4719.9	
714.28	4246.1	
714.46	6575.3	
714.64	5829.9	
714.83	3851.5	
715.01	4741.7	
715.19	5917.9	
715.37	5521.3	
715.55	4472.1	
715.74	4781.3	
715.92	7032.7	
716.1	4906.9	
716.28	6008.1	
716.47	4911	
716.65	5633.3	
716.83	5781.4	
717.01	4808.6	
717.19	4939.7	
717.38	8019.8	
717.56	5408.7	
717.74	5159.5	
717.92	4168.3	
718.1	6756.9	
718.29	5890	
718.47	3732.1	
718.65	4485.7	
718.83	6548	
719.01	6468.9	
719.2	3517.7	
719.38	4755.4	
719.56	6091.3	
719.74	7666.9	
719.92	4215.4	
720.11	5422.3	
720.29	6109.1	
720.47	5143.8	
720.65	3857.7	
720.83	4764.3	
721.02	5672.9	
721.2	5390.3	
721.38	4873.5	
721.56	4126	
721.74	4922	
721.92	5162.2	
722.11	5464	
722.29	5098.1	
722.47	6471.6	
722.65	5624.4	
722.83	4177.9	
723.01	5115.1	
723.2	5698.8	
723.38	6031.3	
723.56	3536.8	
723.74	4852.3	
723.92	5265.3	
724.1	6423.1	
724.29	4038.6	
724.47	5404.6	
724.65	5251.7	
724.83	5131.5	
725.01	4016.7	
725.19	4979.3	
725.37	5286.5	
725.56	5315.8	
725.74	3859.1	
725.92	4068.6	
726.1	5132.2	
726.28	5470.8	
726.46	4633.9	
726.64	4226.3	
726.83	5418.2	
727.01	5735	
727.19	3829.7	
727.37	4771.8	
727.55	5631.2	
727.73	6117.3	
727.91	3780.6	
728.09	3602.4	
728.28	6165.8	
728.46	6808.8	
728.64	4903.5	
728.82	4804.5	
729	7391.8	
729.18	6519.4	
729.36	3951.9	
729.54	6504.3	
729.72	7640.3	
729.91	5725.4	
730.09	5984.2	
730.27	4592.9	
730.45	5628.5	
730.63	6367.1	
730.81	5238.7	
730.99	4242.7	
731.17	6821.8	
731.35	5340.4	
731.53	4750.6	
731.71	4461.2	
731.9	6530.3	
732.08	6752.8	
732.26	4616.1	
732.44	4291.9	
732.62	6763.8	
732.8	6212.2	
732.98	5157.5	
733.16	4093.9	
733.34	6287.3	
733.52	5074.9	
733.7	4745.8	
733.88	5025.7	
734.07	6175.3	
734.25	5905.7	
734.43	4107.5	
734.61	5830.6	
734.79	7468.3	
734.97	5739.8	
735.15	4307.6	
735.33	4687.1	
735.51	6189	
735.69	5735.7	
735.87	6084.5	
736.05	4905.6	
736.23	6034.7	
736.41	5787.6	
736.59	4677.6	
736.77	4863.2	
736.95	6537.1	
737.13	5862	
737.32	4373.1	
737.5	4571.1	
737.68	7019.1	
737.86	5763.7	
738.04	4115.7	
738.22	6207.4	
738.4	5537	
738.58	5892	
738.76	4931.5	
738.94	3673.4	
739.12	5726.8	
739.3	5547.9	
739.48	5511.1	
739.66	5225.1	
739.84	6044.2	
740.02	6010.1	
740.2	3826.3	
740.38	4234.5	
740.56	6440.2	
740.74	5236.7	
740.92	4952	
741.1	4855.1	
741.28	5818.3	
741.46	5655.1	
741.64	4526.7	
741.82	5014.8	
742	5919.3	
742.18	5840.1	
742.36	4726.7	
742.54	4298.7	
742.72	6561.7	
742.9	5182.7	
743.08	5162.2	
743.26	3835.8	
743.44	6714.6	
743.62	6669.6	
743.8	5349.3	
743.98	4368.3	
744.16	6336.4	
744.34	5980.1	
744.52	5300.1	
744.7	5185.5	
744.88	6481.8	
745.06	5937.1	
745.24	5287.9	
745.42	5486.5	
745.6	6516	
745.78	6300.2	
745.96	4072	
746.14	4375.1	
746.32	7430.7	
746.5	6563.1	
746.68	5161.6	
746.86	4493.9	
747.03	7102.4	
747.21	5253.7	
747.39	5051.7	
747.57	4529.4	
747.75	6223.8	
747.93	6601.3	
748.11	4500.1	
748.29	4352.6	
748.47	7891.5	
748.65	5920	
748.83	5289.9	
749.01	4996.4	
749.19	6427.9	
749.37	5599.8	
749.55	4855.7	
749.73	4915.8	
749.91	6084.5	
750.09	5750.7	
750.26	4992.9	
750.44	4354	
750.62	6154.8	
750.8	6186.2	
750.98	4186	
751.16	4591.5	
751.34	6134.3	
751.52	5456.5	
751.7	5500.2	
751.88	4192.9	
752.06	6701	
752.24	6500.3	
752.42	4141.7	
752.59	4531.5	
752.77	6101.6	
752.95	7361.1	
753.13	5312.4	
753.31	4702.8	
753.49	5772.5	
753.67	6268.8	
753.85	4999.8	
754.03	4618.9	
754.21	6535.8	
754.38	6987.7	
754.56	4771.8	
754.74	3738.2	
754.92	5799.2	
755.1	6556.9	
755.28	3895.2	
755.46	3848.1	
755.64	7400.7	
755.82	7466.2	
755.99	4167.6	
756.17	4347.2	
756.35	4914.4	
756.53	6629.3	
756.71	3172.3	
756.89	4213.4	
757.07	6221	
757.25	5210.7	
757.42	4711.7	
757.6	5775.3	
757.78	6176.7	
757.96	5039.4	
758.14	4452.3	
758.32	3850.9	
758.5	4563.6	
758.67	5523.4	
758.85	4278.2	
759.03	4367	
759.21	5734.3	
759.39	5083.7	
759.57	3804.4	
759.75	5061.9	
759.92	6391.7	
760.1	5598.5	
760.28	5449	
760.46	5705.6	
760.64	5335.6	
760.82	5041.4	
760.99	5193	
761.17	4304.1	
761.35	6230.6	
761.53	5152	
761.71	4411.3	
761.89	5162.2	
762.06	6126.8	
762.24	5493.3	
762.42	4544.4	
762.6	4249.5	
762.78	5612.1	
762.96	6358.9	
763.13	4931.5	
763.31	4642.1	
763.49	6470.9	
763.67	5520.6	
763.85	5538.4	
764.02	6098.9	
764.2	6749.4	
764.38	5862	
764.56	4562.9	
764.74	5455.8	
764.91	6964.5	
765.09	5778.7	
765.27	4160.1	
765.45	3988.1	
765.63	6923.5	
765.8	6850.5	
765.98	3691.8	
766.16	4111.6	
766.34	5335	
766.52	5098.8	
766.69	5141.1	
766.87	3895.9	
767.05	5747.3	
767.23	6561.7	
767.41	4271.4	
767.58	4453.6	
767.76	6317.3	
767.94	6450.4	
768.12	4367.6	
768.29	5236.7	
768.47	5863.3	
768.65	6596.5	
768.83	3892.5	
769	5177.3	
769.18	5363.6	
769.36	6161	
769.54	4981.3	
769.72	4007.9	
769.89	6386.2	
770.07	6530.3	
770.25	4357.4	
770.43	5754.8	
770.6	7345.4	
770.78	7799.3	
770.96	4627	
771.14	5308.3	
771.31	6408.8	
771.49	5644.2	
771.67	3618.1	
771.85	4039.3	
772.02	4877.6	
772.2	5734.3	
772.38	4734.9	
772.55	4228.4	
772.73	5960.3	
772.91	5694.7	
773.09	4618.9	
773.26	4749.9	
773.44	5952.8	
773.62	5660.6	
773.8	4117.8	
773.97	3764.2	
774.15	6030.6	
774.33	5563	
774.5	3998.3	
774.68	4438.6	
774.86	6204	
775.04	5603.2	
775.21	4097.3	
775.39	4098	
775.57	5925.5	
775.74	6435.4	
775.92	3940.3	
776.1	3818.1	
776.27	5883.1	
776.45	7181.5	
776.63	4073.4	
776.81	3612.6	
776.98	5484.5	
777.16	6776	
777.34	4235.2	
777.51	4582.7	
777.69	5569.8	
777.87	5267.4	
778.04	4291.2	
778.22	5046.9	
778.4	5293.3	
778.57	6047	
778.75	3496.6	
778.93	3865.9	
779.1	5093.3	
779.28	4973.2	
779.46	3500.7	
779.64	4159.4	
779.81	6226.5	
779.99	7197.2	
780.17	4996.4	
780.34	5141.8	
780.52	5637.4	
780.69	5867.4	
780.87	4445.5	
781.05	3976.5	
781.22	5659.9	
781.4	5814.9	
781.58	4102.1	
781.75	3193.5	
781.93	5687.9	
782.11	5124	
782.28	5108.3	
782.46	4072.7	
782.64	4973.2	
782.81	5907	
782.99	4225.6	
783.17	4198.3	
783.34	5805.3	
783.52	4954.7	
783.69	4407.2	
783.87	5363.6	
784.05	5036.6	
784.22	5103.5	
784.4	5290.6	
784.58	4516.5	
784.75	6071.5	
784.93	5116.5	
785.1	4139.6	
785.28	4818.9	
785.46	5767.8	
785.63	5009.3	
785.81	4166.3	
785.99	3938.2	
786.16	5266	
786.34	5685.8	
786.51	4024.9	
786.69	4437.9	
786.87	4816.1	
787.04	5407.3	
787.22	3430.3	
787.39	4896.7	
787.57	5014.1	
787.75	6350.1	
787.92	5087.8	
788.1	5037.3	
788.27	5120.6	
788.45	4870.8	
788.63	4729.4	
788.8	3323.2	
788.98	5652.4	
789.15	4801.8	
789.33	3561.4	
789.5	4165.6	
789.68	6102.3	
789.86	6222.4	
790.03	4453	
790.21	4044.1	
790.38	6086.6	
790.56	5278.3	
790.73	3869.3	
790.91	3937.6	
791.09	5156.1	
791.26	5930.9	
791.44	4143	
791.61	3536.8	
791.79	5074.9	
791.96	5189.6	
792.14	3677.5	
792.32	3245.3	
792.49	5134.9	
792.67	5275.6	
792.84	3723.2	
793.02	3534.8	
793.19	5584.1	
793.37	6399.9	
793.54	3328.6	
793.72	3659	
793.89	6543.9	
794.07	5218.9	
794.25	4328.7	
794.42	3283.6	
794.6	6219	
794.77	5849.7	
794.95	4592.9	
795.12	4010.6	
795.3	5094.7	
795.47	5801.9	
795.65	4405.9	
795.82	4233.8	
796	4984.1	
796.17	6981.5	
796.35	4082.3	
796.52	4838.7	
796.7	5694	
796.87	5821.7	
797.05	5033.9	
797.22	4992.9	
797.4	5758.2	
797.57	6968.6	
797.75	4141.7	
797.92	3946.4	
798.1	6094.1	
798.27	5134.3	
798.45	3323.9	
798.62	3622.9	
798.8	5491.3	
798.97	6062	
799.15	4435.2	
799.32	4225.6	
799.5	4678.9	
799.67	5627.1	
799.85	4589.5	
800.02	3315	
800.2	5042.8	
800.37	5498.8	
800.55	4846.2	
800.72	3935.5	
800.9	5878.4	
801.07	6466.1	
801.25	5359.5	
801.42	4386.1	
801.6	6022.4	
801.77	5735.7	
801.95	3925.3	
802.12	3828.3	
802.29	5695.4	
802.47	5631.9	
802.64	4358.1	
802.82	3245.3	
802.99	5083.1	
803.17	6213.5	
803.34	4213.4	
803.52	3792.8	
803.69	6905.8	
803.87	4881.7	
804.04	4201.7	
804.21	4298	
804.39	6223.1	
804.56	5383.4	
804.74	3538.9	
804.91	4451.6	
805.09	5125.4	
805.26	5235.3	
805.44	3609.9	
805.61	4042.7	
805.78	5827.2	
805.96	5918.6	
806.13	4433.9	
806.31	4801.1	
806.48	4633.2	
806.66	5253	
806.83	4351.9	
807	4308.2	
807.18	5112.4	
807.35	5590.3	
807.53	4237.2	
807.7	3364.1	
807.87	6356.9	
808.05	5215.5	
808.22	4705.5	
808.4	3338.2	
808.57	5176.6	
808.74	4828.4	
808.92	3859.1	
809.09	4955.4	
809.27	5051.7	
809.44	5741.8	
809.61	3433.8	
809.79	3807.2	
809.96	6424.5	
810.14	5957.5	
810.31	3336.1	
810.48	4126	
810.66	5250.3	
810.83	6129.6	
811.01	3919.1	
811.18	4686.4	
811.35	6000.5	
811.53	4615.4	
811.7	4728.1	
811.87	4391.5	
812.05	5197.7	
812.22	5150	
812.39	3784	
812.57	3631.7	
812.74	5216.9	
812.92	6990.4	
813.09	4083.6	
813.26	4537.6	
813.44	6733	
813.61	5089.9	
813.78	3394.8	
813.96	4597	
814.13	5117.2	
814.3	4764.9	
814.48	4988.2	
814.65	4099.4	
814.82	6494.8	
815	4955.4	
815.17	4212	
815.34	5150.6	
815.52	5086.5	
815.69	5104.9	
815.87	4201.1	
816.04	3564.1	
816.21	5195	
816.38	4545.8	
816.56	4092.5	
816.73	3699.3	
816.9	6571.9	
817.08	6047.7	
817.25	3855.6	
817.42	4855.1	
817.6	4713.7	
817.77	5224.4	
817.94	4291.2	
818.12	3793.5	
818.29	4887.8	
818.46	7869.7	
818.64	3963.5	
818.81	3656.3	
818.98	4792.2	
819.16	7135.1	
819.33	4474.1	
819.5	4203.1	
819.67	5616.2	
819.85	6258.6	
820.02	4128	
820.19	4433.9	
820.37	5375.2	
820.54	4917.2	
820.71	4304.8	
820.88	5308.3	
821.06	5414.1	
821.23	4960.9	
821.4	4364.2	
821.58	4250.2	
821.75	5990.3	
821.92	5338.4	
822.09	3467.9	
822.27	3737.5	
822.44	5194.3	
822.61	5111.7	
822.79	3489.1	
822.96	6759	
823.13	5781.4	
823.3	4885.8	
823.48	3994.9	
823.65	3559.4	
823.82	5912.5	
823.99	4664.6	
824.17	5080.3	
824.34	3607.2	
824.51	6909.2	
824.68	5307	
824.86	3805.1	
825.03	4348.5	
825.2	5165.7	
825.37	6347.3	
825.55	3790.1	
825.72	4280.9	
825.89	7027.3	
826.06	6460	
826.24	4100.7	
826.41	4095.3	
826.58	6357.6	
826.75	5537	
826.92	3237.8	
827.1	3541.6	
827.27	8833.6	
827.44	6959	
827.61	3865.2	
827.79	4746.5	
827.96	4954.7	
828.13	5260.5	
828.3	4046.8	
828.47	3425.6	
828.65	5449.6	
828.82	5358.9	
828.99	5340.4	
829.16	4653	
829.34	5851.7	
829.51	5597.1	
829.68	4164.2	
829.85	4389.5	
830.02	6133.7	
830.2	5868.8	
830.37	3250.1	
830.54	5147.9	
830.71	6707.1	
830.88	5196.4	
831.05	3335.5	
831.23	3831.1	
831.4	6354.8	
831.57	7144.7	
831.74	3857.7	
831.91	3433.1	
832.09	5439.4	
832.26	5880.4	
832.43	4048.2	
832.6	4560.8	
832.77	5469.4	
832.94	6250.4	
833.12	3200.3	
833.29	4047.5	
833.46	5658.5	
833.63	7501.7	
833.8	4462.5	
833.97	4080.9	
834.15	5842.2	
834.32	5623.7	
834.49	4279.6	
834.66	4397.7	
834.83	6090	
835	4855.1	
835.17	3874.8	
835.35	3949.8	
835.52	5748.6	
835.69	5619.6	
835.86	4166.3	
836.03	3465.2	
836.2	5781.4	
836.37	5406.6	
836.55	4127.3	
836.72	3877.5	
836.89	5390.3	
837.06	5866.7	
837.23	4180.6	
837.4	4536.3	
837.57	6739.2	
837.75	7494.2	
837.92	3697.9	
838.09	3980.6	
838.26	5325.4	
838.43	6163.7	
838.6	4384.7	
838.77	3849.5	
838.94	7057.3	
839.11	6799.3	
839.29	4065.9	
839.46	3231.7	
839.63	5746.6	
839.8	5554.1	
839.97	3965.6	
840.14	3898	
840.31	5575.9	
840.48	5821.7	
840.65	3240.6	
840.82	3880.9	
841	5857.2	
841.17	5819	
841.34	3667.9	
841.51	3657	
841.68	5657.9	
841.85	5442.1	
842.02	3818.8	
842.19	3133.4	
842.36	5578	
842.53	5562.3	
842.7	3635.1	
842.87	4499.4	
843.05	7417.7	
843.22	5504.9	
843.39	3474.7	
843.56	3744.4	
843.73	5184.8	
843.9	5858.6	
844.07	6051.1	
844.24	5048.2	
844.41	8658.1	
844.58	5062.6	
844.75	3497.2	
844.92	3781.2	
845.09	5857.9	
845.26	5792.3	
845.43	3577.8	
845.6	3841.3	
845.77	5794.4	
845.94	5512.4	
846.12	4040.6	
846.29	4270	
846.46	6051.1	
846.63	5801.2	
846.8	3640.6	
846.97	4315.8	
847.14	6343.2	
847.31	5759.6	
847.48	4130.1	
847.65	4519.2	
847.82	6107.7	
847.99	6105.7	
848.16	4909.7	
848.33	4488.5	
848.5	5337	
848.67	6344.6	
848.84	3629.7	
849.01	3827.7	
849.18	5148.6	
849.35	4857.8	
849.52	4571.1	
849.69	3596.9	
849.86	5982.8	
850.03	6308.4	
850.2	3677.5	
850.37	4458.4	
850.54	6211.5	
850.71	5502.2	
850.88	4405.2	
851.05	3580.5	
851.22	5734.3	
851.39	6370.5	
851.56	3380.5	
851.73	4200.4	
851.9	5099.4	
852.07	6028.5	
852.24	3973.7	
852.41	3548.4	
852.58	5704.3	
852.75	5174.5	
852.92	4057.7	
853.09	3519.8	
853.26	5390.9	
853.43	6226.5	
853.6	3607.2	
853.77	3059	
853.94	6422.4	
854.11	5097.4	
854.28	5479.7	
854.44	3880.9	
854.61	6851.8	
854.78	5888.6	
854.95	3562.8	
855.12	4543.8	
855.29	4696	
855.46	6731.7	
855.63	3573	
855.8	5110.4	
855.97	5296	
856.14	6135	
856.31	5171.8	
856.48	3903.4	
856.65	5371.8	
856.82	5043.5	
856.99	3437.9	
857.16	3878.2	
857.33	7225.2	
857.49	5449	
857.66	3899.3	
857.83	4192.2	
858	5427.1	
858.17	5586.9	
858.34	3393.5	
858.51	3575.8	
858.68	6596.5	
858.85	6603.3	
859.02	4190.1	
859.19	4493.2	
859.36	5010.7	
859.52	5098.1	
859.69	3591.5	
859.86	4276.8	
860.03	5172.5	
860.2	6405.4	
860.37	3298.6	
860.54	3646.1	
860.71	6068.1	
860.88	6483.9	
861.05	3986	
861.21	4587.4	
861.38	6576.7	
861.55	4940.4	
861.72	3272.7	
861.89	4085.7	
862.06	6083.1	
862.23	6690	
862.4	3521.1	
862.56	3728.7	
862.73	5971.2	
862.9	5603.9	
863.07	4342.4	
863.24	3280.8	
863.41	4965.6	
863.58	5126.1	
863.75	3728	
863.91	4177.9	
864.08	6537.1	
864.25	6007.4	
864.42	4595	
864.59	5146.5	
864.76	6850.5	
864.93	5134.3	
865.09	3513.6	
865.26	3822.9	
865.43	6349.4	
865.6	6756.9	
865.77	3090.4	
865.94	3546.4	
866.1	6392.4	
866.27	6072.9	
866.44	5476.3	
866.61	3405.1	
866.78	5503.6	
866.95	5961.6	
867.11	3474.7	
867.28	3177.1	
867.45	6208.1	
867.62	5133.6	
867.79	4201.7	
867.96	3573	
868.12	5100.8	
868.29	6090.7	
868.46	3605.1	
868.63	4857.1	
868.8	6328.9	
868.97	6075.6	
869.13	3754.6	
869.3	3783.3	
869.47	5920.7	
869.64	6154.8	
869.81	3681.6	
869.97	3636.5	
870.14	5879.7	
870.31	6552.1	
870.48	3555.3	
870.65	4582	
870.81	5410.7	
870.98	5368.4	
871.15	4164.2	
871.32	3739.6	
871.48	6001.9	
871.65	6520	
871.82	3590.1	
871.99	3969	
872.16	7006.8	
872.32	6422.4	
872.49	3667.9	
872.66	3655.6	
872.83	6066.1	
872.99	5329.5	
873.16	4250.2	
873.33	3491.1	
873.5	5596.4	
873.67	5690.6	
873.83	3801	
874	4864.6	
874.17	5863.3	
874.34	7005.4	
874.5	4647.5	
874.67	4536.3	
874.84	6513.9	
875.01	5102.9	
875.17	5182	
875.34	3570.3	
875.51	5765.7	
875.68	6933.7	
875.84	4387.4	
876.01	5367	
876.18	6004	
876.34	5928.2	
876.51	3664.5	
876.68	3573	
876.85	5507	
877.01	6354.8	
877.18	5258.5	
877.35	3566.2	
877.52	5558.2	
877.68	5026.4	
877.85	3523.9	
878.02	3586.7	
878.18	5614.8	
878.35	5285.1	
878.52	2912.2	
878.69	4122.6	
878.85	6042.9	
879.02	6064.7	
879.19	5224.4	
879.35	3923.9	
879.52	5997.8	
879.69	6264.7	
879.86	3099.9	
880.02	4000.4	
880.19	5555.5	
880.36	6839.5	
880.52	4199.7	
880.69	4270	
880.86	6063.4	
881.02	6269.5	
881.19	3977.8	
881.36	3964.9	
881.52	5969.8	
881.69	5374.6	
881.86	3894.6	
882.02	3807.9	
882.19	6354.2	
882.36	7459.4	
882.52	3737.5	
882.69	5167	
882.86	5818.3	
883.02	5681.1	
883.19	4419.5	
883.36	4189.5	
883.52	6159.6	
883.69	7055.9	
883.86	3656.3	
884.02	3241.3	
884.19	6130.3	
884.36	5624.4	
884.52	4085	
884.69	3837.2	
884.86	5358.9	
885.02	6744.6	
885.19	4107.5	
885.36	4180.6	
885.52	5605.3	
885.69	5788.2	
885.86	5268.7	
886.02	4662.5	
886.19	6077	
886.35	5553.4	
886.52	3997	
886.69	5107	
886.85	5133.6	
887.02	6565.1	
887.19	6565.1	
887.35	6565.1	
887.52	6565.1	
887.68	6565.1	
887.85	6565.1	
888.02	6565.1	
888.18	6565.1	
888.35	6565.1	
888.51	6565.1	
888.68	6565.1	
888.85	6565.1	
889.01	6565.1	
889.18	6565.1	
889.35	6565.1	
889.51	6565.1	
889.68	6565.1	
889.84	6565.1	
890.01	6565.1	
890.17	6565.1	
890.34	6565.1	
890.51	6565.1	
890.67	6565.1	
890.84	6565.1	
891	6565.1	
891.17	6565.1	
891.34	6565.1	
891.5	6565.1	
891.67	6565.1	
891.83	6565.1	
892	6565.1	
892.16	6565.1	
892.33	6565.1	
892.5	6565.1	
892.66	6565.1	
892.83	6565.1	
892.99	6565.1	
893.16	6565.1	
893.32	6565.1	
893.49	6565.1	
893.65	6565.1	
893.82	6565.1	
893.99	6565.1	
894.15	6565.1	
894.32	6565.1	
894.48	6565.1	
894.65	6565.1	
894.81	6565.1	
894.98	6565.1	
895.14	6565.1	
895.31	6565.1	
895.47	6565.1	
895.64	6565.1	
895.81	6565.1	
895.97	6565.1	
896.14	6565.1	
896.3	6565.1	
896.47	6565.1	
896.63	6565.1	
896.8	6565.1	
896.96	6565.1	
897.13	6565.1	
897.29	6565.1	
897.46	6565.1	
897.62	6565.1	
897.79	6565.1	
897.95	6565.1	
898.12	6565.1	
898.28	6565.1	
898.45	6565.1	
898.61	6565.1	
898.78	6565.1	
898.94	6565.1	
899.11	6565.1	
899.27	6565.1	
899.44	6565.1	
899.6	6565.1	
899.77	6565.1	
899.93	6565.1	
900.1	6565.1	
900.26	6565.1	
900.43	6565.1	
900.59	6565.1	
900.76	6565.1	
900.92	6565.1	
901.09	6565.1	
901.25	6565.1	
901.42	6565.1	
901.58	6565.1	
901.75	6565.1	
901.91	6565.1	
902.07	6565.1	
902.24	6565.1	
902.4	6565.1	
902.57	6565.1	
902.73	6565.1	
902.9	6565.1	
903.06	6565.1	
903.23	6565.1	
903.39	6565.1	
903.56	6565.1	
903.72	6565.1	
903.88	6565.1	
904.05	6565.1	
904.21	6565.1	
904.38	6565.1	
904.54	6565.1	
904.71	6565.1	
904.87	6565.1	
905.03	6565.1	
905.2	6565.1	
905.36	6565.1	
905.53	6565.1	
905.69	6565.1	
905.86	6565.1	
906.02	6565.1	
906.18	6565.1	
906.35	6565.1	
906.51	6565.1	
906.68	6565.1	
906.84	6565.1	
907.01	6565.1	
907.17	6565.1	
907.33	6565.1	
907.5	6565.1	
907.66	6565.1	
907.83	6565.1	
907.99	6565.1	
908.15	6565.1	
908.32	6565.1	
908.48	6565.1	
908.65	6565.1	
908.81	6565.1	
908.97	6565.1	
909.14	6565.1	
909.3	6565.1	
909.47	6565.1	
909.63	6565.1	
909.79	6565.1	
909.96	6565.1	
910.12	6565.1	
910.28	6565.1	
910.45	6565.1	
910.61	6565.1	
910.78	6565.1	
910.94	6565.1	
911.1	6565.1	
911.27	6565.1	
911.43	6565.1	
911.59	6565.1	
911.76	6565.1	
911.92	6565.1	
912.08	6565.1	
912.25	6565.1	
912.41	6565.1	
912.57	6565.1	
912.74	6565.1	
912.9	6565.1	
913.07	6565.1	
913.23	6565.1	
913.39	6565.1	
913.56	6565.1	
913.72	6565.1	
913.88	6565.1	
914.05	6565.1	
914.21	6565.1	
914.37	6565.1	
914.54	6565.1	
914.7	6565.1	
914.86	6565.1	
915.03	6565.1	
915.19	6565.1	
