Wavelength	Intensities	
nm	a.u.	
179.22	1908.4	
179.44	1910.8	
179.65	1906	
179.86	1915.5	
180.08	1953.8	
180.29	5003.9	
180.51	3603.7	
180.72	5724.1	
180.94	6778.1	
181.15	3317	
181.37	3235.8	
181.58	5550	
181.79	5967.8	
182.01	3452.2	
182.22	3702.7	
182.44	5847	
182.65	4855.1	
182.87	4631.1	
183.08	4117.1	
183.29	6185.5	
183.51	5154.1	
183.72	3808.5	
183.94	5584.1	
184.15	5508.4	
184.37	5550.7	
184.58	3345.7	
184.79	4612	
185.01	5127.4	
185.22	5938.4	
185.44	4868	
185.65	4080.9	
185.86	5429.2	
186.08	4999.8	
186.29	3288.4	
186.51	3493.8	
186.72	5179.3	
186.94	6178.7	
187.15	4035.2	
187.36	4146.5	
187.58	8019.8	
187.79	5616.2	
188.01	4388.1	
188.22	6795.2	
188.43	6848.4	
188.65	5894.7	
188.86	3493.8	
189.08	4150.6	
189.29	5337	
189.5	5341.1	
189.72	3904.1	
189.93	3934.1	
190.15	6115.2	
190.36	7286	
190.57	4333.5	
190.79	4140.3	
191	6199.2	
191.22	6186.2	
191.43	4224.3	
191.64	3464.5	
191.86	6402	
192.07	6262.7	
192.29	3639.2	
192.5	3899.3	
192.71	6138.4	
192.93	5238	
193.14	3803.1	
193.35	3958.7	
193.57	5305.6	
193.78	6073.6	
194	3074.7	
194.21	3804.4	
194.42	5043.5	
194.64	5551.4	
194.85	4147.8	
195.07	4899.4	
195.28	5592.3	
195.49	4837.3	
195.71	5208	
195.92	3597.6	
196.13	5789.6	
196.35	5831.2	
196.56	5499.5	
196.78	4138.9	
196.99	7286.7	
197.2	6771.9	
197.42	4793.6	
197.63	4308.2	
197.84	4958.1	
198.06	5750.7	
198.27	3891.1	
198.48	5223.7	
198.7	5386.2	
198.91	5483.1	
199.13	4272.7	
199.34	4218.8	
199.55	6014.9	
199.77	4857.8	
199.98	3744.4	
200.19	4292.5	
200.41	5356.1	
200.62	5160.2	
200.83	4454.3	
201.05	4713.1	
201.26	5429.2	
201.47	5149.3	
201.69	3741.6	
201.9	3641.3	
202.11	5523.4	
202.33	6586.3	
202.54	3966.9	
202.76	4440	
202.97	5629.2	
203.18	5677.7	
203.4	4358.8	
203.61	4323.3	
203.82	5657.9	
204.04	5251.7	
204.25	4293.9	
204.46	4216.8	
204.68	5560.9	
204.89	5849	
205.1	4123.2	
205.32	3598.3	
205.53	6050.4	
205.74	6077.7	
205.96	3031.7	
206.17	4339	
206.38	5924.1	
206.6	6123.4	
206.81	4869.4	
207.02	3941	
207.24	5842.9	
207.45	6262	
207.66	3953.9	
207.88	3387.3	
208.09	5735.7	
208.3	5569.8	
208.52	3644.7	
208.73	4032.5	
208.94	5500.8	
209.15	6326.9	
209.37	4019.5	
209.58	4274.8	
209.79	6127.5	
210.01	5308.3	
210.22	3197.6	
210.43	3355.9	
210.65	5541.8	
210.86	6023.8	
211.07	4024.9	
211.29	3637.9	
211.5	5953.4	
211.71	5484.5	
211.93	3680.2	
212.14	3687.7	
212.35	5454.4	
212.56	5734.3	
212.78	4251.6	
212.99	3525.2	
213.2	6516	
213.42	5293.3	
213.63	3801.7	
213.84	4095.3	
214.06	4889.9	
214.27	5068.7	
214.48	4009.2	
214.69	4225	
214.91	6264.7	
215.12	6317.3	
215.33	4370.4	
215.55	4846.2	
215.76	6829.3	
215.97	5979.4	
216.18	4161.5	
216.4	4070	
216.61	5289.9	
216.82	6051.1	
217.04	3667.2	
217.25	3916.4	
217.46	6242.9	
217.67	5966.4	
217.89	3310.9	
218.1	3457.7	
218.31	5614.2	
218.53	5791	
218.74	3872.7	
218.95	3747.1	
219.16	5513.1	
219.38	6485.9	
219.59	3771.7	
219.8	4532.2	
220.01	7197.2	
220.23	5556.1	
220.44	4929.5	
220.65	3689.8	
220.87	5618.3	
221.08	6193.7	
221.29	3455.6	
221.5	4622.3	
221.72	7657.4	
221.93	5279.7	
222.14	4313	
222.35	5029.8	
222.57	5629.2	
222.78	5997.1	
222.99	3965.6	
223.2	4333.5	
223.42	5903.6	
223.63	6040.1	
223.84	3132.7	
224.05	3081.5	
224.27	7165.2	
224.48	6504.3	
224.69	5062.6	
224.9	4264.6	
225.12	5806.7	
225.33	5530.2	
225.54	3368.2	
225.75	3817.4	
225.97	5100.1	
226.18	5388.9	
226.39	4134.8	
226.6	3811.3	
226.82	5279	
227.03	5191.6	
227.24	4207.9	
227.45	3494.5	
227.67	5925.5	
227.88	6609.5	
228.09	4739	
228.3	4807.3	
228.52	6004.6	
228.73	5515.2	
228.94	3915.7	
229.15	3516.4	
229.36	5444.2	
229.58	5357.5	
229.79	3994.9	
230	4639.3	
230.21	6668.9	
230.43	5651.7	
230.64	4234.5	
230.85	4384	
231.06	6048.3	
231.28	6018.3	
231.49	3457.7	
231.7	4098	
231.91	5958.9	
232.12	5584.1	
232.34	3620.1	
232.55	4116.4	
232.76	6173.9	
232.97	5805.3	
233.18	3669.3	
233.4	4147.1	
233.61	5821.7	
233.82	5236	
234.03	3941	
234.25	3810.6	
234.46	7760.4	
234.67	5636	
234.88	4309.6	
235.09	3788.1	
235.31	5957.5	
235.52	5408	
235.73	4192.9	
235.94	3532.1	
236.15	5270.1	
236.37	6765.1	
236.58	3694.5	
236.79	4020.8	
237	5888.6	
237.21	5064.6	
237.43	4360.1	
237.64	3423.5	
237.85	10241	
238.06	5132.2	
238.27	4428.4	
238.48	3497.9	
238.7	5905.7	
238.91	5404.6	
239.12	4048.2	
239.33	4088.4	
239.54	5130.2	
239.76	5470.8	
239.97	4010.6	
240.18	4020.2	
240.39	7000	
240.6	5843.5	
240.82	4184	
241.03	3457.7	
241.24	5512.4	
241.45	6530.3	
241.66	3736.2	
241.87	4382	
242.09	6366.5	
242.3	6761.7	
242.51	4387.4	
242.72	4018.1	
242.93	6137.8	
243.14	5492.7	
243.36	4684.4	
243.57	5073.5	
243.78	6498.2	
243.99	5935	
244.2	4074.1	
244.41	3693.2	
244.63	5183.4	
244.84	5965.7	
245.05	4348.5	
245.26	4056.3	
245.47	5872.9	
245.68	6244.9	
245.9	5456.5	
246.11	4334.2	
246.32	5386.8	
246.53	5831.2	
246.74	6618.4	
246.95	3413.3	
247.16	5040.7	
247.38	5556.8	
247.59	3375.7	
247.8	4106.9	
248.01	5236.7	
248.22	5474.9	
248.43	3735.5	
248.64	3910.3	
248.86	4912.4	
249.07	5326.1	
249.28	3591.5	
249.49	4173.8	
249.7	6101.6	
249.91	6297.5	
250.12	3395.5	
250.34	3465.2	
250.55	5638.7	
250.76	5531.6	
250.97	4169.7	
251.18	4248.2	
251.39	6332.3	
251.6	5727.5	
251.81	4342.4	
252.03	4230.4	
252.24	5339.7	
252.45	6142.5	
252.66	3553.2	
252.87	4556	
253.08	5571.8	
253.29	7384.3	
253.5	3549.1	
253.72	4929.5	
253.93	5366.4	
254.14	6661.4	
254.35	3818.1	
254.56	4037.9	
254.77	5842.9	
254.98	5172.5	
255.19	3819.5	
255.41	4915.8	
255.62	5725.4	
255.83	6268.1	
256.04	4358.1	
256.25	4321.2	
256.46	6896.9	
256.67	5219.6	
256.88	4209.3	
257.09	4646.8	
257.31	5229.8	
257.52	5255.1	
257.73	5232.6	
257.94	3832.4	
258.15	5476.3	
258.36	5660.6	
258.57	4810	
258.78	3086.3	
258.99	6171.9	
259.2	5375.2	
259.41	3889.1	
259.63	4013.3	
259.84	6480.5	
260.05	6952.9	
260.26	5082.4	
260.47	3713	
260.68	6166.4	
260.89	5509	
261.1	4636.6	
261.31	3723.2	
261.52	6176.7	
261.73	6531.7	
261.95	5014.8	
262.16	4450.2	
262.37	6328.9	
262.58	6380.8	
262.79	4943.8	
263	3951.2	
263.21	5708.4	
263.42	5139	
263.63	3990.1	
263.84	3859.7	
264.05	6151.4	
264.26	6603.3	
264.47	4835.9	
264.69	4393.6	
264.9	6289.3	
265.11	5816.2	
265.32	3717.7	
265.53	3834.5	
265.74	5700.2	
265.95	4964.3	
266.16	4125.3	
266.37	4552.6	
266.58	5750.7	
266.79	5375.9	
267	3851.5	
267.21	3545.7	
267.42	5159.5	
267.63	5566.4	
267.84	4018.8	
268.06	3435.1	
268.27	6001.9	
268.48	6402.6	
268.69	4022.2	
268.9	4703.5	
269.11	6298.2	
269.32	5022.3	
269.53	4046.8	
269.74	3728.7	
269.95	5933.6	
270.16	4916.5	
270.37	4091.2	
270.58	4717.2	
270.79	5387.5	
271	6134.3	
271.21	4352.6	
271.42	4045.4	
271.63	5716.6	
271.84	5242.8	
272.05	3261	
272.26	3647.4	
272.47	5614.2	
272.68	5773.2	
272.89	3936.2	
273.11	4474.1	
273.32	5363.6	
273.53	6559	
273.74	4401.8	
273.95	4274.1	
274.16	6265.4	
274.37	5635.3	
274.58	4482.3	
274.79	3622.2	
275	5752.1	
275.21	6296.1	
275.42	5339.1	
275.63	4631.8	
275.84	5856.5	
276.05	7408.9	
276.26	4332.1	
276.47	4046.8	
276.68	5426.4	
276.89	6574.7	
277.1	4620.9	
277.31	3586.7	
277.52	5850.4	
277.73	6016.9	
277.94	3473.4	
278.15	3943	
278.36	5761.6	
278.57	5244.2	
278.78	3873.4	
278.99	4416.8	
279.2	5172.5	
279.41	5165.7	
279.62	5128.8	
279.83	3657	
280.04	6882.5	
280.25	5152.7	
280.46	5071.5	
280.67	4035.2	
280.88	5226.4	
281.09	6289.3	
281.3	4357.4	
281.51	5477	
281.72	6055.2	
281.93	6062	
282.14	3869.3	
282.35	4133.5	
282.56	6074.3	
282.77	6098.9	
282.98	3940.3	
283.19	4814.8	
283.4	7453.9	
283.61	5509	
283.82	3599.6	
284.03	5069.4	
284.24	5663.3	
284.45	6264.7	
284.66	5054.4	
284.87	4795	
285.08	6206.7	
285.29	6384.2	
285.5	3442.6	
285.71	4014	
285.92	6251.1	
286.12	6900.3	
286.33	5035.3	
286.54	3952.6	
286.75	6048.3	
286.96	5456.5	
287.17	3575.1	
287.38	4956.1	
287.59	5232.6	
287.8	5116.5	
288.01	4044.1	
288.22	4638.6	
288.43	6174.6	
288.64	5144.5	
288.85	4641.4	
289.06	4502.8	
289.27	6335.1	
289.48	6580.1	
289.69	5005.2	
289.9	4595	
290.11	6264.1	
290.32	5281	
290.53	4849.6	
290.74	4447.5	
290.94	6109.1	
291.15	6043.6	
291.36	3846.1	
291.57	4547.2	
291.78	5283.8	
291.99	4967	
292.2	3692.5	
292.41	4442	
292.62	6167.1	
292.83	5986.9	
293.04	5423.7	
293.25	3657.7	
293.46	5357.5	
293.67	6191	
293.88	3807.9	
294.09	3695.2	
294.29	5124.7	
294.5	5795.1	
294.71	4159.4	
294.92	3943.7	
295.13	5377.3	
295.34	6727.6	
295.55	3404.4	
295.76	3508.2	
295.97	6038.1	
296.18	6827.2	
296.39	3630.4	
296.6	3883.6	
296.81	5677	
297.01	6025.1	
297.22	4018.1	
297.43	3743	
297.64	5225.7	
297.85	5231.9	
298.06	3140.2	
298.27	3478.1	
298.48	5632.6	
298.69	5251	
298.9	4139.6	
299.11	3769.6	
299.31	5096	
299.52	5124	
299.73	4461.2	
299.94	4346.5	
300.15	5597.8	
300.36	5214.1	
300.57	4389.5	
300.78	4339.6	
300.99	5461.2	
301.2	5743.2	
301.4	3760.1	
301.61	4117.1	
301.82	5932.3	
302.03	6045.6	
302.24	4676.9	
302.45	3647.4	
302.66	5967.1	
302.87	6397.2	
303.08	3793.5	
303.29	5165	
303.49	5295.4	
303.7	5640.8	
303.91	3376.4	
304.12	4969.7	
304.33	5078.3	
304.54	5695.4	
304.75	3861.1	
304.96	3667.9	
305.16	5943.9	
305.37	6735.8	
305.58	3288.4	
305.79	3474.7	
306	5971.9	
306.21	5040.1	
306.42	3867.2	
306.63	5880.4	
306.83	5475.6	
307.04	6271.6	
307.25	4229.7	
307.46	4198.3	
307.67	4803.9	
307.88	6087.9	
308.09	3730.7	
308.29	3888.4	
308.5	5704.3	
308.71	6262	
308.92	4079.6	
309.13	3701.4	
309.34	5387.5	
309.55	5600.5	
309.75	4738.3	
309.96	4392.9	
310.17	6087.9	
310.38	5258.5	
310.59	4618.2	
310.8	3607.2	
311.01	5408	
311.21	5442.8	
311.42	3613.3	
311.63	3788.7	
311.84	5328.8	
312.05	5723.4	
312.26	4231.8	
312.46	4662.5	
312.67	5398.4	
312.88	5120.6	
313.09	3727.3	
313.3	3584.6	
313.51	6402.6	
313.71	6764.4	
313.92	3672	
314.13	3898.6	
314.34	5842.9	
314.55	5539.1	
314.76	4773.1	
314.96	4137.6	
315.17	5677	
315.38	6186.2	
315.59	3722.5	
315.8	3542.3	
316.01	6494.8	
316.21	6587.6	
316.42	3581.2	
316.63	4034.5	
316.84	5447.6	
317.05	6362.4	
317.26	4351.3	
317.46	3883.6	
317.67	5546.6	
317.88	6016.9	
318.09	4676.9	
318.3	3383.2	
318.5	5255.1	
318.71	5995.1	
318.92	6037.4	
319.13	4306.9	
319.34	6158.2	
319.54	6261.3	
319.75	3446	
319.96	3245.3	
320.17	5995.1	
320.38	6206	
320.58	3385.3	
320.79	4042	
321	6216.3	
321.21	6228.6	
321.42	4067.3	
321.62	3375.1	
321.83	5160.2	
322.04	5583.4	
322.25	3869.3	
322.46	3740.3	
322.66	5665.4	
322.87	5860.6	
323.08	4618.2	
323.29	3680.2	
323.5	6731	
323.7	5207.3	
323.91	5058.5	
324.12	4536.3	
324.33	5625.1	
324.53	5958.9	
324.74	4323.9	
324.95	4581.3	
325.16	4945.2	
325.37	5411.4	
325.57	3753.2	
325.78	3728.7	
325.99	5681.7	
326.2	5089.2	
326.4	5380	
326.61	3429	
326.82	5554.1	
327.03	5702.9	
327.24	5315.2	
327.44	4938.3	
327.65	5849	
327.86	4719.9	
328.07	4407.2	
328.27	3577.1	
328.48	6339.1	
328.69	5157.5	
328.9	5319.9	
329.1	4043.4	
329.31	5530.9	
329.52	6477	
329.73	3687.7	
329.93	4244.8	
330.14	5639.4	
330.35	5890.6	
330.56	6092	
330.76	4605.2	
330.97	5448.3	
331.18	5783.5	
331.39	4160.8	
331.59	3344.3	
331.8	6266.8	
332.01	6337.1	
332.22	3891.8	
332.42	4422.2	
332.63	5776.6	
332.84	5323.4	
333.05	4176.5	
333.25	3762.1	
333.46	5409.4	
333.67	5656.5	
333.88	3885	
334.08	4309.6	
334.29	7534.5	
334.5	6352.1	
334.7	3598.3	
334.91	5339.7	
335.12	5195.7	
335.33	6047	
335.53	4053.6	
335.74	6154.1	
335.95	5396.4	
336.16	5294	
336.36	4094.6	
336.57	4768.4	
336.78	5063.3	
336.98	6197.8	
337.19	5107.6	
337.4	4067.9	
337.61	6874.3	
337.81	5079.6	
338.02	3814.7	
338.23	4913.1	
338.43	6533	
338.64	5285.8	
338.85	3742.3	
339.05	4876.2	
339.26	6491.4	
339.47	5032.5	
339.68	3726.6	
339.88	5522	
340.09	5850.4	
340.3	6106.4	
340.5	4308.2	
340.71	3335.5	
340.92	5073.5	
341.13	6384.9	
341.33	3586	
341.54	4437.9	
341.75	5894.7	
341.95	5492	
342.16	4203.8	
342.37	4535.6	
342.57	5225.7	
342.78	5646.9	
342.99	4660.5	
343.19	3348.4	
343.4	6051.1	
343.61	5939.1	
343.81	4012	
344.02	3652.9	
344.23	6085.2	
344.43	6561	
344.64	4692.6	
344.85	4591.5	
345.06	5929.6	
345.26	6262	
345.47	4373.1	
345.68	5072.8	
345.88	4967	
346.09	6168.5	
346.3	4371	
346.5	3314.3	
346.71	5619.6	
346.92	5365.7	
347.12	3383.9	
347.33	4316.4	
347.54	6230.6	
347.74	6698.9	
347.95	4298.7	
348.16	3186.6	
348.36	5451.7	
348.57	5266	
348.78	4255.7	
348.98	4644.1	
349.19	5638.7	
349.39	5086.5	
349.6	3424.2	
349.81	3853.6	
350.01	5928.9	
350.22	5393	
350.43	4132.1	
350.63	5016.2	
350.84	5732.9	
351.05	5413.5	
351.25	3809.9	
351.46	3469.3	
351.67	6254.5	
351.87	5353.4	
352.08	4035.2	
352.29	4631.1	
352.49	6161.7	
352.7	5857.2	
352.9	3689.8	
353.11	4640	
353.32	6918.7	
353.52	5545.2	
353.73	3710.2	
353.94	4645.5	
354.14	6040.8	
354.35	5879.7	
354.55	3780.6	
354.76	4223.6	
354.97	6008.7	
355.17	5824.4	
355.38	3614	
355.59	4950.6	
355.79	5435.3	
356	5916.6	
356.2	4259.1	
356.41	3689.1	
356.62	5184.1	
356.82	5688.6	
357.03	4592.9	
357.24	4165.6	
357.44	5514.5	
357.65	5590.3	
357.85	5521.3	
358.06	4370.4	
358.27	5274.2	
358.47	5554.1	
358.68	3670.6	
358.88	4635.9	
359.09	6177.4	
359.3	6536.4	
359.5	5349.3	
359.71	4787.5	
359.91	7029.3	
360.12	6326.9	
360.33	4673.5	
360.53	5107.6	
360.74	5659.2	
360.94	5698.8	
361.15	4876.9	
361.36	4082.3	
361.56	6481.8	
361.77	5828.5	
361.97	5434.6	
362.18	4346.5	
362.38	6534.4	
362.59	5581.4	
362.8	4077.5	
363	3895.9	
363.21	5368.4	
363.41	6034.7	
363.62	4648.2	
363.83	5788.2	
364.03	6154.1	
364.24	7244.3	
364.44	5907.7	
364.65	5776	
364.85	5910.4	
365.06	5621	
365.27	4292.5	
365.47	4399.7	
365.68	7019.8	
365.88	5983.5	
366.09	4831.8	
366.29	4465.9	
366.5	6294.1	
366.71	6750.1	
366.91	5848.3	
367.12	5020.3	
367.32	7424.6	
367.53	6625.9	
367.73	5027.8	
367.94	6018.3	
368.14	6517.3	
368.35	7567.2	
368.56	4917.2	
368.76	4304.1	
368.97	6676.4	
369.17	8486.8	
369.38	4433.9	
369.58	4835.3	
369.79	5728.2	
369.99	7051.8	
370.2	5836	
370.4	4891.9	
370.61	6300.2	
370.82	7630	
371.02	4740.4	
371.23	4077.5	
371.43	5603.2	
371.64	7100.3	
371.84	4853.7	
372.05	6120	
372.25	8579.6	
372.46	6816.3	
372.66	4983.4	
372.87	4856.4	
373.07	7035.5	
373.28	8673.1	
373.48	6115.9	
373.69	5810.8	
373.9	6505	
374.1	6519.4	
374.31	6080.4	
374.51	5660.6	
374.72	7469.6	
374.92	6234	
375.13	6359.6	
375.33	5445.5	
375.54	7023.2	
375.74	6531	
375.95	5689.9	
376.15	6884.6	
376.36	7213.6	
376.56	7010.9	
376.77	5892	
376.97	6207.4	
377.18	8415.8	
377.38	7436.2	
377.59	6655.2	
377.79	5417.6	
378	7232.7	
378.2	7731.8	
378.41	5600.5	
378.61	5438.7	
378.82	7796.6	
379.02	6877.8	
379.23	5687.2	
379.43	6995.9	
379.64	7809.6	
379.84	7598	
380.05	5627.8	
380.25	5543.9	
380.46	7647.8	
380.66	7136.5	
380.87	6992.4	
381.07	7320.8	
381.28	8298.4	
381.48	7685.3	
381.69	5623.7	
381.89	5600.5	
382.1	6441.5	
382.3	7715.4	
382.51	6848.4	
382.71	7710.6	
382.91	7662.8	
383.12	8232.2	
383.32	5971.2	
383.53	6126.8	
383.73	7386.3	
383.94	7249.1	
384.14	5964.4	
384.35	5141.1	
384.55	7165.2	
384.76	7686.7	
384.96	5938.4	
385.17	6246.3	
385.37	7502.4	
385.58	6694.8	
385.78	6264.7	
385.98	4893.3	
386.19	6961.7	
386.39	7447.8	
386.6	5704.3	
386.8	5901.6	
387.01	7636.9	
387.21	7619.8	
387.42	6425.2	
387.62	7126.9	
387.83	7006.1	
388.03	7726.3	
388.23	6161	
388.44	7139.2	
388.64	6761	
388.85	7089.4	
389.05	6681.8	
389.26	7472.4	
389.46	9075.2	
389.67	8506.6	
389.87	6856.6	
390.07	6888.7	
390.28	7726.3	
390.48	7244.3	
390.69	6157.6	
390.89	6383.5	
391.1	7449.8	
391.3	8469.7	
391.5	7660.8	
391.71	8293.6	
391.91	8268.3	
392.12	9331.9	
392.32	7753.6	
392.53	6937.8	
392.73	7602.1	
392.93	7860.1	
393.14	6559	
393.34	7393.8	
393.55	8318.8	
393.75	7696.9	
393.95	6502.3	
394.16	6363	
394.36	7417.1	
394.57	8129.1	
394.77	5982.8	
394.98	6375.3	
395.18	7566.6	
395.38	7883.3	
395.59	7546.1	
395.79	6444.3	
396	7959.1	
396.2	8475.2	
396.4	7605.5	
396.61	7589.1	
396.81	8874.5	
397.02	8156.4	
397.22	8032.1	
397.42	8107.2	
397.63	8964	
397.83	8181	
398.04	6812.9	
398.24	7578.2	
398.44	8720.3	
398.65	7870.3	
398.85	6802.7	
399.05	6982.2	
399.26	8356.4	
399.46	10110	
399.67	7477.8	
399.87	7192.5	
400.07	8828.1	
400.28	9185.1	
400.48	7418.4	
400.69	8646.5	
400.89	9680.7	
401.09	9968.8	
401.3	7466.9	
401.5	8755.7	
401.7	10568	
401.91	10804	
402.11	8002.8	
402.32	8153	
402.52	9866.4	
402.72	9593.4	
402.93	8250.6	
403.13	6980.2	
403.33	10366	
403.54	8682.7	
403.74	7651.2	
403.94	8396	
404.15	8675.9	
404.35	9887.6	
404.56	7335.1	
404.76	9239.1	
404.96	9298.5	
405.17	9050	
405.37	9097.8	
405.57	8111.3	
405.78	9783.1	
405.98	9022.7	
406.18	7937.9	
406.39	8823.3	
406.59	9684.2	
406.79	9361.9	
407	7522.2	
407.2	7585.7	
407.4	9685.5	
407.61	9996.8	
407.81	7815	
408.01	10219	
408.22	8987.9	
408.42	11340	
408.62	9604.3	
408.83	9217.2	
409.03	10423	
409.23	10339	
409.44	9811.1	
409.64	10116	
409.84	11908	
410.05	12026	
410.25	10373	
410.45	10133	
410.66	11972	
410.86	14450	
411.06	11326	
411.27	10900	
411.47	14805	
411.67	12542	
411.88	11428	
412.08	12119	
412.28	13426	
412.49	13985	
412.69	11623	
412.89	11745	
413.09	13955	
413.3	13999	
413.5	12074	
413.7	11630	
413.91	13119	
414.11	14316	
414.31	12233	
414.52	12891	
414.72	13960	
414.92	14321	
415.12	12122	
415.33	12843	
415.53	14784	
415.73	14875	
415.94	13289	
416.14	12831	
416.34	13744	
416.55	13359	
416.75	14059	
416.95	13713	
417.15	15115	
417.36	15474	
417.56	14844	
417.76	13951	
417.97	15650	
418.17	15560	
418.37	13277	
418.57	13659	
418.78	15172	
418.98	14732	
419.18	14495	
419.38	14279	
419.59	15008	
419.79	14173	
419.99	13493	
420.2	13652	
420.4	15351	
420.6	15454	
420.8	13469	
421.01	13166	
421.21	15532	
421.41	15709	
421.61	13851	
421.82	13554	
422.02	15089	
422.22	15842	
422.42	14647	
422.63	13554	
422.83	15144	
423.03	16386	
423.23	13934	
423.44	12859	
423.64	15124	
423.84	14545	
424.04	13352	
424.25	13006	
424.45	15791	
424.65	15807	
424.85	12693	
425.06	13479	
425.26	16027	
425.46	14297	
425.66	13874	
425.87	13527	
426.07	15615	
426.27	15459	
426.47	13677	
426.67	12790	
426.88	15752	
427.08	15382	
427.28	14139	
427.48	12775	
427.69	13996	
427.89	14881	
428.09	13892	
428.29	13065	
428.5	15580	
428.7	15126	
428.9	13009	
429.1	13545	
429.3	15017	
429.51	15715	
429.71	13233	
429.91	14561	
430.11	15789	
430.31	16278	
430.52	14015	
430.72	14735	
430.92	16619	
431.12	16039	
431.32	14087	
431.53	14210	
431.73	15085	
431.93	16733	
432.13	13793	
432.33	13852	
432.54	15686	
432.74	16127	
432.94	14192	
433.14	15052	
433.34	16202	
433.55	16450	
433.75	15316	
433.95	17610	
434.15	16410	
434.35	16287	
434.56	14593	
434.76	14600	
434.96	16776	
435.16	17531	
435.36	14788	
435.56	16409	
435.77	16926	
435.97	17048	
436.17	17287	
436.37	16559	
436.57	17134	
436.78	17326	
436.98	17214	
437.18	17036	
437.38	18346	
437.58	17276	
437.78	17139	
437.99	15516	
438.19	17518	
438.39	18424	
438.59	15529	
438.79	14757	
438.99	18034	
439.2	16920	
439.4	14576	
439.6	14926	
439.8	17438	
440	18797	
440.2	16718	
440.4	16950	
440.61	18620	
440.81	19318	
441.01	16454	
441.21	17953	
441.41	20178	
441.61	19160	
441.81	18581	
442.02	19481	
442.22	20306	
442.42	19570	
442.62	17324	
442.82	16971	
443.02	20046	
443.22	19451	
443.43	17850	
443.63	17502	
443.83	18938	
444.03	19218	
444.23	19417	
444.43	18786	
444.63	20093	
444.83	21049	
445.04	18514	
445.24	19575	
445.44	20193	
445.64	20480	
445.84	18338	
446.04	18852	
446.24	19149	
446.44	20291	
446.65	17187	
446.85	18130	
447.05	18475	
447.25	20063	
447.45	17836	
447.65	17428	
447.85	19323	
448.05	18670	
448.25	18817	
448.46	18473	
448.66	19668	
448.86	18951	
449.06	17537	
449.26	18671	
449.46	20137	
449.66	19128	
449.86	18788	
450.06	18562	
450.26	19581	
450.47	20420	
450.67	18497	
450.87	19352	
451.07	20461	
451.27	20681	
451.47	18166	
451.67	19373	
451.87	20340	
452.07	21048	
452.27	19020	
452.47	18609	
452.67	20437	
452.88	21200	
453.08	17684	
453.28	20359	
453.48	22382	
453.68	20219	
453.88	19114	
454.08	19119	
454.28	21405	
454.48	20963	
454.68	19888	
454.88	20439	
455.08	21465	
455.28	22190	
455.48	19007	
455.68	20405	
455.89	22747	
456.09	22553	
456.29	19900	
456.49	20826	
456.69	23224	
456.89	21973	
457.09	21216	
457.29	22203	
457.49	22968	
457.69	23582	
457.89	22126	
458.09	20999	
458.29	23490	
458.49	24125	
458.69	22827	
458.89	22453	
459.09	25213	
459.29	25119	
459.49	22359	
459.69	23396	
459.9	24477	
460.1	24769	
460.3	21914	
460.5	21987	
460.7	24680	
460.9	24372	
461.1	21959	
461.3	23785	
461.5	25987	
461.7	25497	
461.9	23728	
462.1	23513	
462.3	25704	
462.5	26378	
462.7	23886	
462.9	24434	
463.1	27755	
463.3	28055	
463.5	24744	
463.7	26845	
463.9	27085	
464.1	27527	
464.3	26521	
464.5	26156	
464.7	28418	
464.9	28812	
465.1	27946	
465.3	27214	
465.5	28799	
465.7	29326	
465.9	27972	
466.1	26748	
466.3	29885	
466.5	28557	
466.7	29474	
466.9	27439	
467.1	29436	
467.3	30510	
467.5	29786	
467.7	28325	
467.9	31023	
468.1	32243	
468.3	28964	
468.5	30206	
468.7	30516	
468.9	30234	
469.1	29309	
469.3	30526	
469.5	33011	
469.7	30881	
469.9	29307	
470.1	29430	
470.3	30966	
470.5	30886	
470.7	30965	
470.9	29085	
471.1	31262	
471.3	30269	
471.5	29407	
471.69	31020	
471.89	30038	
472.09	29530	
472.29	30232	
472.49	29446	
472.69	30487	
472.89	30849	
473.09	29287	
473.29	28384	
473.49	30076	
473.69	30010	
473.89	29606	
474.09	28731	
474.29	31088	
474.49	30797	
474.69	29891	
474.89	28799	
475.09	30193	
475.29	30449	
475.49	28237	
475.69	29050	
475.88	31346	
476.08	30483	
476.28	28485	
476.48	28248	
476.68	30241	
476.88	30141	
477.08	27890	
477.28	28801	
477.48	29108	
477.68	29959	
477.88	28184	
478.08	28295	
478.28	31113	
478.48	29799	
478.67	28761	
478.87	27317	
479.07	31483	
479.27	30018	
479.47	28883	
479.67	29225	
479.87	30816	
480.07	31520	
480.27	28488	
480.47	30096	
480.67	30253	
480.87	31489	
481.06	28701	
481.26	30014	
481.46	30515	
481.66	30595	
481.86	29421	
482.06	30542	
482.26	30307	
482.46	31105	
482.66	29140	
482.86	28980	
483.05	31161	
483.25	30496	
483.45	32162	
483.65	29679	
483.85	31083	
484.05	31325	
484.25	30270	
484.45	31574	
484.65	32320	
484.84	33186	
485.04	30084	
485.24	30282	
485.44	33255	
485.64	31421	
485.84	30165	
486.04	31700	
486.24	31958	
486.44	32412	
486.63	30325	
486.83	31690	
487.03	32721	
487.23	33252	
487.43	30678	
487.63	33672	
487.83	33397	
488.02	34358	
488.22	32897	
488.42	33746	
488.62	34470	
488.82	33635	
489.02	31941	
489.22	32900	
489.41	34205	
489.61	34442	
489.81	32223	
490.01	32466	
490.21	34936	
490.41	35708	
490.61	32720	
490.8	32855	
491	34672	
491.2	33314	
491.4	32899	
491.6	31972	
491.8	33713	
491.99	33606	
492.19	31288	
492.39	31823	
492.59	34194	
492.79	34469	
492.99	33297	
493.18	32797	
493.38	35344	
493.58	37072	
493.78	34355	
493.98	34106	
494.18	36057	
494.37	36640	
494.57	36186	
494.77	36026	
494.97	38044	
495.17	38722	
495.37	36583	
495.56	37039	
495.76	39662	
495.96	39396	
496.16	38509	
496.36	37854	
496.55	40142	
496.75	39677	
496.95	38322	
497.15	38052	
497.35	39744	
497.54	40312	
497.74	37877	
497.94	39970	
498.14	40963	
498.34	40804	
498.53	38328	
498.73	39077	
498.93	40339	
499.13	41131	
499.33	39719	
499.52	39771	
499.72	41943	
499.92	41511	
500.12	39667	
500.32	40092	
500.51	41937	
500.71	42384	
500.91	41201	
501.11	40555	
501.31	42421	
501.5	42351	
501.7	41308	
501.9	40326	
502.1	41962	
502.29	42144	
502.49	41267	
502.69	40946	
502.89	41770	
503.09	42298	
503.28	39006	
503.48	39380	
503.68	40447	
503.88	40774	
504.07	39989	
504.27	39140	
504.47	41172	
504.67	40791	
504.86	39858	
505.06	39277	
505.26	40076	
505.46	41931	
505.65	38987	
505.85	39136	
506.05	39585	
506.25	39820	
506.44	37315	
506.64	38048	
506.84	39045	
507.04	39601	
507.23	37343	
507.43	37887	
507.63	40806	
507.83	39358	
508.02	37930	
508.22	37587	
508.42	41290	
508.62	39208	
508.81	37631	
509.01	38684	
509.21	38488	
509.4	38993	
509.6	38042	
509.8	37615	
510	38740	
510.19	40968	
510.39	37391	
510.59	37902	
510.79	39424	
510.98	41038	
511.18	38249	
511.38	38512	
511.57	40204	
511.77	40107	
511.97	38604	
512.17	37369	
512.36	40013	
512.56	39534	
512.76	37395	
512.95	37214	
513.15	39846	
513.35	38732	
513.55	38371	
513.74	37691	
513.94	40038	
514.14	39526	
514.33	38846	
514.53	38683	
514.73	39437	
514.92	39778	
515.12	38563	
515.32	38135	
515.51	40090	
515.71	40608	
515.91	39955	
516.11	38347	
516.3	42534	
516.5	40053	
516.7	39036	
516.89	39987	
517.09	40031	
517.29	39977	
517.48	39415	
517.68	38681	
517.88	39867	
518.07	40401	
518.27	39402	
518.47	38070	
518.66	40712	
518.86	39564	
519.06	37992	
519.25	38601	
519.45	39873	
519.65	42293	
519.84	39412	
520.04	40746	
520.24	42213	
520.43	40905	
520.63	38623	
520.83	38644	
521.02	39466	
521.22	40395	
521.42	38522	
521.61	39352	
521.81	39374	
522.01	39389	
522.2	38712	
522.4	38171	
522.6	40383	
522.79	39596	
522.99	38895	
523.18	39051	
523.38	41320	
523.58	41659	
523.77	42082	
523.97	40051	
524.17	44537	
524.36	43922	
524.56	42618	
524.76	42256	
524.95	43701	
525.15	43290	
525.34	42482	
525.54	43075	
525.74	44996	
525.93	44100	
526.13	44775	
526.33	44139	
526.52	46006	
526.72	45578	
526.91	45444	
527.11	44911	
527.31	46399	
527.5	47199	
527.7	45158	
527.89	44467	
528.09	45891	
528.29	47320	
528.48	45476	
528.68	45245	
528.87	47043	
529.07	46604	
529.27	45290	
529.46	44909	
529.66	46845	
529.85	47578	
530.05	44934	
530.25	45534	
530.44	48695	
530.64	46374	
530.83	45535	
531.03	45819	
531.23	47379	
531.42	47012	
531.62	46765	
531.81	45882	
532.01	48402	
532.21	49270	
532.4	47185	
532.6	48099	
532.79	50428	
532.99	50269	
533.18	48716	
533.38	49551	
533.58	50319	
533.77	50788	
533.97	49566	
534.16	50295	
534.36	51687	
534.55	50988	
534.75	50598	
534.95	49911	
535.14	52507	
535.34	51157	
535.53	49248	
535.73	51268	
535.92	52319	
536.12	50493	
536.31	48922	
536.51	50083	
536.71	50700	
536.9	50151	
537.1	48516	
537.29	49084	
537.49	50968	
537.68	50265	
537.88	49766	
538.07	49009	
538.27	50976	
538.46	52093	
538.66	49127	
538.86	50248	
539.05	51213	
539.25	51724	
539.44	50844	
539.64	49448	
539.83	50826	
540.03	52030	
540.22	49607	
540.42	48817	
540.61	50141	
540.81	50978	
541	48700	
541.2	50179	
541.39	49633	
541.59	50089	
541.78	50083	
541.98	48069	
542.18	49519	
542.37	49225	
542.57	48191	
542.76	49712	
542.96	48684	
543.15	49361	
543.35	47703	
543.54	47150	
543.74	48784	
543.93	48729	
544.13	46607	
544.32	47575	
544.52	48222	
544.71	47510	
544.91	45517	
545.1	46853	
545.3	47897	
545.49	48533	
545.69	45416	
545.88	46159	
546.08	49311	
546.27	48744	
546.47	46664	
546.66	45968	
546.86	48224	
547.05	48720	
547.24	45695	
547.44	46163	
547.63	46675	
547.83	48475	
548.02	46390	
548.22	46190	
548.41	46668	
548.61	48008	
548.8	45210	
549	45360	
549.19	46662	
549.39	47367	
549.58	44539	
549.78	45494	
549.97	47058	
550.17	46359	
550.36	45503	
550.55	46990	
550.75	46044	
550.94	46634	
551.14	44299	
551.33	44190	
551.53	45337	
551.72	46386	
551.92	44521	
552.11	44455	
552.31	46041	
552.5	45892	
552.69	45741	
552.89	43582	
553.08	46006	
553.28	45663	
553.47	44095	
553.67	45219	
553.86	46022	
554.06	44351	
554.25	42410	
554.44	43476	
554.64	46521	
554.83	46434	
555.03	43504	
555.22	43754	
555.42	45530	
555.61	45150	
555.8	42939	
556	43395	
556.19	44306	
556.39	45197	
556.58	43226	
556.78	42992	
556.97	44874	
557.16	45029	
557.36	44404	
557.55	43064	
557.75	43415	
557.94	45782	
558.13	42894	
558.33	42828	
558.52	45509	
558.72	44257	
558.91	42453	
559.1	42458	
559.3	43822	
559.49	42978	
559.69	41878	
559.88	42798	
560.07	44223	
560.27	44592	
560.46	42766	
560.66	42964	
560.85	44074	
561.04	42686	
561.24	41986	
561.43	41776	
561.63	43063	
561.82	43259	
562.01	43536	
562.21	42239	
562.4	43514	
562.59	45055	
562.79	42338	
562.98	42262	
563.18	43942	
563.37	45948	
563.56	43386	
563.76	42676	
563.95	43820	
564.14	44161	
564.34	43388	
564.53	42600	
564.73	44788	
564.92	45502	
565.11	43708	
565.31	43205	
565.5	45651	
565.69	44662	
565.89	43468	
566.08	43910	
566.27	45353	
566.47	46575	
566.66	44472	
566.85	43509	
567.05	45427	
567.24	44918	
567.44	43584	
567.63	45182	
567.82	46019	
568.02	45782	
568.21	43812	
568.4	44057	
568.6	45731	
568.79	45717	
568.98	43917	
569.18	44661	
569.37	46401	
569.56	48269	
569.76	45150	
569.95	46346	
570.14	46397	
570.34	47238	
570.53	44668	
570.72	44721	
570.91	47466	
571.11	46443	
571.3	44998	
571.49	45889	
571.69	46767	
571.88	45991	
572.07	46318	
572.27	45574	
572.46	46516	
572.65	47463	
572.85	45381	
573.04	45938	
573.23	48230	
573.43	47013	
573.62	45689	
573.81	46331	
574	47930	
574.2	47671	
574.39	46840	
574.58	46819	
574.78	49594	
574.97	48979	
575.16	47763	
575.36	48382	
575.55	50028	
575.74	49927	
575.93	47068	
576.13	48872	
576.32	49166	
576.51	50082	
576.71	47597	
576.9	49564	
577.09	50078	
577.28	49673	
577.48	48387	
577.67	47616	
577.86	49443	
578.05	50184	
578.25	48406	
578.44	48403	
578.63	49708	
578.83	51267	
579.02	47605	
579.21	49865	
579.4	49925	
579.6	50181	
579.79	48684	
579.98	51287	
580.17	50699	
580.37	50986	
580.56	48041	
580.75	49139	
580.94	51087	
581.14	51007	
581.33	49740	
581.52	48518	
581.71	50918	
581.91	51216	
582.1	48512	
582.29	48972	
582.48	50285	
582.68	50595	
582.87	49495	
583.06	49473	
583.25	51029	
583.45	50607	
583.64	50239	
583.83	51338	
584.02	50419	
584.21	51201	
584.41	50007	
584.6	49510	
584.79	51084	
584.98	52094	
585.18	48919	
585.37	48799	
585.56	50426	
585.75	51345	
585.94	48731	
586.14	49580	
586.33	50776	
586.52	50758	
586.71	48888	
586.91	48684	
587.1	48967	
587.29	50116	
587.48	47451	
587.67	47733	
587.87	49444	
588.06	49199	
588.25	48561	
588.44	47558	
588.63	48519	
588.83	49467	
589.02	46559	
589.21	46103	
589.4	46926	
589.59	47150	
589.78	43841	
589.98	43771	
590.17	44712	
590.36	45240	
590.55	41656	
590.74	41565	
590.94	45124	
591.13	43125	
591.32	41138	
591.51	40893	
591.7	44174	
591.89	43759	
592.09	41515	
592.28	42411	
592.47	43259	
592.66	45813	
592.85	42155	
593.05	42530	
593.24	43990	
593.43	45069	
593.62	42879	
593.81	43168	
594	44323	
594.19	44374	
594.39	42289	
594.58	42392	
594.77	44225	
594.96	44694	
595.15	41843	
595.34	42652	
595.54	43725	
595.73	42884	
595.92	40830	
596.11	41831	
596.3	43839	
596.49	42730	
596.68	40938	
596.88	41759	
597.07	43643	
597.26	42440	
597.45	40728	
597.64	42197	
597.83	42908	
598.02	43459	
598.22	40985	
598.41	41793	
598.6	43035	
598.79	42347	
598.98	40761	
599.17	41921	
599.36	42951	
599.55	43964	
599.74	42848	
599.94	42714	
600.13	43315	
600.32	41902	
600.51	40304	
600.7	40591	
600.89	43517	
601.08	43703	
601.27	40208	
601.47	41312	
601.66	42652	
601.85	43258	
602.04	40838	
602.23	40590	
602.42	41687	
602.61	42379	
602.8	40108	
602.99	39909	
603.18	41834	
603.37	42211	
603.57	40245	
603.76	41092	
603.95	42846	
604.14	42254	
604.33	40203	
604.52	40686	
604.71	42462	
604.9	41980	
605.09	40916	
605.28	40825	
605.47	42966	
605.66	42381	
605.86	40658	
606.05	40017	
606.24	42549	
606.43	40939	
606.62	40421	
606.81	41143	
607	42291	
607.19	41679	
607.38	39393	
607.57	39724	
607.76	41202	
607.95	40504	
608.14	40010	
608.33	40694	
608.52	40957	
608.72	42210	
608.91	38900	
609.1	39097	
609.29	41001	
609.48	40211	
609.67	39551	
609.86	38482	
610.05	40022	
610.24	40311	
610.43	38711	
610.62	38079	
610.81	41528	
611	41409	
611.19	38505	
611.38	39415	
611.57	40784	
611.76	42233	
611.95	38145	
612.14	37842	
612.33	40314	
612.52	40004	
612.71	38789	
612.9	38070	
613.09	39480	
613.28	41899	
613.47	38296	
613.66	39680	
613.85	40488	
614.04	39885	
614.24	38439	
614.43	37427	
614.62	40625	
614.81	40547	
615	38905	
615.19	39369	
615.38	39733	
615.57	40637	
615.76	39133	
615.95	40151	
616.14	40807	
616.33	40470	
616.52	39482	
616.71	39777	
616.9	40579	
617.09	40811	
617.28	38695	
617.47	40169	
617.66	40118	
617.85	40383	
618.04	40704	
618.22	39848	
618.41	41137	
618.6	42719	
618.79	40369	
618.98	40482	
619.17	43276	
619.36	41534	
619.55	40710	
619.74	40541	
619.93	42682	
620.12	42526	
620.31	41807	
620.5	42132	
620.69	43845	
620.88	44608	
621.07	42958	
621.26	42289	
621.45	44199	
621.64	44164	
621.83	42349	
622.02	41875	
622.21	43957	
622.4	44168	
622.59	43349	
622.78	43189	
622.97	43693	
623.16	44970	
623.35	42847	
623.54	41808	
623.72	44083	
623.91	44365	
624.1	43328	
624.29	42169	
624.48	45532	
624.67	44496	
624.86	43270	
625.05	42327	
625.24	45298	
625.43	43949	
625.62	45091	
625.81	42736	
626	44532	
626.19	44586	
626.38	43812	
626.56	42881	
626.75	44424	
626.94	45624	
627.13	43376	
627.32	42082	
627.51	44964	
627.7	46348	
627.89	41975	
628.08	43615	
628.27	43690	
628.46	44002	
628.65	42278	
628.83	42069	
629.02	44179	
629.21	43986	
629.4	42891	
629.59	43036	
629.78	44167	
629.97	44521	
630.16	43277	
630.35	42404	
630.54	45479	
630.72	44754	
630.91	42605	
631.1	42698	
631.29	44264	
631.48	44564	
631.67	42930	
631.86	42120	
632.05	43954	
632.24	43802	
632.42	41802	
632.61	42702	
632.8	43792	
632.99	43624	
633.18	42603	
633.37	43024	
633.56	44005	
633.75	43959	
633.93	42633	
634.12	42579	
634.31	44675	
634.5	44823	
634.69	42497	
634.88	42391	
635.07	43876	
635.25	44324	
635.44	43033	
635.63	43635	
635.82	43420	
636.01	42667	
636.2	42408	
636.39	42104	
636.57	44368	
636.76	43641	
636.95	41823	
637.14	42732	
637.33	43618	
637.52	44504	
637.7	41282	
637.89	42312	
638.08	43371	
638.27	44349	
638.46	42493	
638.65	42177	
638.83	43935	
639.02	42414	
639.21	41453	
639.4	42112	
639.59	42618	
639.78	41962	
639.96	40117	
640.15	40287	
640.34	42123	
640.53	42037	
640.72	39701	
640.91	39835	
641.09	40860	
641.28	42291	
641.47	39659	
641.66	40703	
641.85	41738	
642.03	41396	
642.22	40275	
642.41	39516	
642.6	40910	
642.79	40097	
642.97	38704	
643.16	39750	
643.35	40606	
643.54	39933	
643.73	38713	
643.91	39363	
644.1	39022	
644.29	40348	
644.48	38005	
644.67	37934	
644.85	38941	
645.04	39187	
645.23	36647	
645.42	37066	
645.6	37983	
645.79	38970	
645.98	36205	
646.17	34985	
646.36	36482	
646.54	36880	
646.73	35700	
646.92	34758	
647.11	36189	
647.29	37193	
647.48	34818	
647.67	34282	
647.86	37111	
648.05	37836	
648.23	34777	
648.42	35916	
648.61	36506	
648.8	36274	
648.98	33987	
649.17	34342	
649.36	35551	
649.55	35437	
649.73	33849	
649.92	35052	
650.11	35932	
650.3	35927	
650.48	33850	
650.67	33916	
650.86	35869	
651.05	34682	
651.23	33645	
651.42	33541	
651.61	35078	
651.79	34848	
651.98	34037	
652.17	33221	
652.36	34876	
652.54	34140	
652.73	33101	
652.92	32716	
653.11	34839	
653.29	34966	
653.48	31695	
653.67	32746	
653.85	34150	
654.04	35246	
654.23	32477	
654.42	31520	
654.6	32040	
654.79	32583	
654.98	29773	
655.16	30264	
655.35	30550	
655.54	30506	
655.73	29048	
655.91	29008	
656.1	31595	
656.29	30751	
656.47	28923	
656.66	31111	
656.85	31518	
657.03	32089	
657.22	30649	
657.41	30912	
657.59	32248	
657.78	32406	
657.97	30675	
658.16	31605	
658.34	32981	
658.53	33733	
658.72	32398	
658.9	32839	
659.09	32572	
659.28	32832	
659.46	31090	
659.65	31146	
659.84	32576	
660.02	33201	
660.21	31210	
660.4	31102	
660.58	33706	
660.77	32856	
660.96	31584	
661.14	30745	
661.33	34058	
661.52	33833	
661.7	30391	
661.89	34403	
662.08	32146	
662.26	31808	
662.45	30631	
662.64	30408	
662.82	32602	
663.01	32136	
663.2	30393	
663.38	31329	
663.57	32140	
663.75	32157	
663.94	30758	
664.13	31972	
664.31	31793	
664.5	32334	
664.69	30769	
664.87	31476	
665.06	31277	
665.25	32216	
665.43	31752	
665.62	31685	
665.8	32453	
665.99	31746	
666.18	30466	
666.36	30631	
666.55	31882	
666.74	32164	
666.92	29939	
667.11	31257	
667.29	31466	
667.48	32157	
667.67	31035	
667.85	30187	
668.04	31180	
668.22	31567	
668.41	30073	
668.6	30337	
668.78	31054	
668.97	31311	
669.15	30367	
669.34	29165	
669.53	31249	
669.71	31358	
669.9	29361	
670.08	29956	
670.27	31077	
670.46	31347	
670.64	30139	
670.83	30417	
671.01	30700	
671.2	31347	
671.38	29459	
671.57	29182	
671.76	32083	
671.94	32763	
672.13	29319	
672.31	30114	
672.5	31681	
672.69	31028	
672.87	29478	
673.06	29775	
673.24	31425	
673.43	30958	
673.61	29937	
673.8	29720	
673.98	31221	
674.17	31688	
674.36	30292	
674.54	30044	
674.73	30947	
674.91	31477	
675.1	29746	
675.28	29478	
675.47	30967	
675.65	31682	
675.84	29476	
676.03	29911	
676.21	30467	
676.4	30154	
676.58	30265	
676.77	30300	
676.95	32081	
677.14	30384	
677.32	28929	
677.51	29185	
677.69	31362	
677.88	30167	
678.06	29105	
678.25	28979	
678.44	31151	
678.62	30625	
678.81	28714	
678.99	29958	
679.18	31698	
679.36	31486	
679.55	29425	
679.73	30141	
679.92	31054	
680.1	30436	
680.29	30526	
680.47	29514	
680.66	30346	
680.84	31270	
681.03	28597	
681.21	29821	
681.4	30608	
681.58	30316	
681.77	29016	
681.95	28917	
682.14	31131	
682.32	31495	
682.51	29874	
682.69	28200	
682.88	30007	
683.06	30145	
683.25	29087	
683.43	29496	
683.62	30266	
683.8	30622	
683.99	29777	
684.17	28625	
684.36	30724	
684.54	29244	
684.73	26856	
684.91	26729	
685.1	28179	
685.28	27152	
685.46	26029	
685.65	25794	
685.83	27296	
686.02	26552	
686.2	25152	
686.39	25349	
686.57	26604	
686.76	28488	
686.94	25870	
687.13	26211	
687.31	27951	
687.5	27606	
687.68	25842	
687.86	27187	
688.05	29702	
688.23	27450	
688.42	27359	
688.6	26923	
688.79	27962	
688.97	28226	
689.16	27409	
689.34	26142	
689.52	29292	
689.71	29253	
689.89	27958	
690.08	26968	
690.26	28802	
690.45	28510	
690.63	27792	
690.81	27395	
691	28121	
691.18	28366	
691.37	27041	
691.55	29087	
691.74	27865	
691.92	29660	
692.1	26864	
692.29	26105	
692.47	27884	
692.66	27101	
692.84	26330	
693.02	26854	
693.21	27769	
693.39	27736	
693.58	27431	
693.76	26949	
693.94	29678	
694.13	29881	
694.31	27240	
694.5	28605	
694.68	28863	
694.86	29259	
695.05	28307	
695.23	28904	
695.42	30083	
695.6	32256	
695.78	29102	
695.97	27684	
696.15	30042	
696.34	29104	
696.52	27544	
696.7	28155	
696.89	29034	
697.07	28453	
697.25	27507	
697.44	29334	
697.62	28721	
697.81	28975	
697.99	26789	
698.17	27785	
698.36	27452	
698.54	28455	
698.72	27288	
698.91	25900	
699.09	27821	
699.28	27656	
699.46	26626	
699.64	26409	
699.83	27394	
700.01	28485	
700.19	27174	
700.38	25729	
700.56	28684	
700.74	27753	
700.93	26164	
701.11	27104	
701.29	28353	
701.48	29929	
701.66	26568	
701.84	26999	
702.03	28257	
702.21	29298	
702.39	26133	
702.58	27330	
702.76	28769	
702.94	28878	
703.13	26175	
703.31	28974	
703.49	27814	
703.68	29192	
703.86	26209	
704.04	27655	
704.23	28056	
704.41	28657	
704.59	26340	
704.78	27387	
704.96	29302	
705.14	28599	
705.33	26300	
705.51	26805	
705.69	27830	
705.87	28559	
706.06	27153	
706.24	25965	
706.42	28033	
706.61	28548	
706.79	27090	
706.97	25834	
707.16	27218	
707.34	27653	
707.52	26398	
707.7	25935	
707.89	27225	
708.07	26749	
708.25	26630	
708.44	27023	
708.62	26976	
708.8	27777	
708.98	26764	
709.17	25738	
709.35	27247	
709.53	26883	
709.72	25073	
709.9	25254	
710.08	27202	
710.26	27276	
710.45	26343	
710.63	25048	
710.81	26582	
710.99	26414	
711.18	25572	
711.36	24612	
711.54	26041	
711.72	26529	
711.91	24443	
712.09	23427	
712.27	25429	
712.45	26058	
712.64	23896	
712.82	22910	
713	24009	
713.18	24045	
713.37	22284	
713.55	23262	
713.73	24096	
713.91	22007	
714.1	21137	
714.28	20003	
714.46	21868	
714.64	20508	
714.83	18011	
715.01	18314	
715.19	19284	
715.37	18411	
715.55	17260	
715.74	17421	
715.92	19385	
716.1	17169	
716.28	18209	
716.47	17002	
716.65	17555	
716.83	17759	
717.01	16658	
717.19	16523	
717.38	19961	
717.56	17400	
717.74	17197	
717.92	16444	
718.1	19037	
718.29	18505	
718.47	16726	
718.65	17696	
718.83	20334	
719.01	20482	
719.2	17565	
719.38	18991	
719.56	20183	
719.74	21938	
719.92	18256	
720.11	19090	
720.29	19523	
720.47	18432	
720.65	16846	
720.83	17367	
721.02	17776	
721.2	17387	
721.38	16721	
721.56	15722	
721.74	16576	
721.92	16734	
722.11	17047	
722.29	16693	
722.47	17966	
722.65	17053	
722.83	15574	
723.01	16393	
723.2	17029	
723.38	17406	
723.56	14889	
723.74	16018	
723.92	16364	
724.1	17802	
724.29	15445	
724.47	16602	
724.65	16367	
724.83	16229	
725.01	15076	
725.19	15869	
725.37	16175	
725.56	16350	
725.74	14758	
725.92	15131	
726.1	16256	
726.28	16319	
726.46	15317	
726.64	14988	
726.83	16011	
727.01	16515	
727.19	14427	
727.37	15388	
727.55	16434	
727.73	16836	
727.91	14414	
728.09	14181	
728.28	16808	
728.46	17546	
728.64	15618	
728.82	15623	
729	18226	
729.18	17628	
729.36	15100	
729.54	17456	
729.72	18969	
729.91	17328	
730.09	17262	
730.27	16305	
730.45	17260	
730.63	17970	
730.81	16886	
730.99	15978	
731.17	18497	
731.35	16879	
731.53	16421	
731.71	15893	
731.9	18022	
732.08	18071	
732.26	15999	
732.44	15674	
732.62	17984	
732.8	17584	
732.98	16189	
733.16	15272	
733.34	17200	
733.52	15903	
733.7	15446	
733.88	15786	
734.07	16732	
734.25	16771	
734.43	14926	
734.61	16564	
734.79	18303	
734.97	16503	
735.15	14938	
735.33	15270	
735.51	16678	
735.69	16359	
735.87	16341	
736.05	15323	
736.23	16421	
736.41	16126	
736.59	14880	
736.77	15222	
736.95	16821	
737.13	16245	
737.32	14558	
737.5	14880	
737.68	17468	
737.86	15922	
738.04	14143	
738.22	16086	
738.4	15343	
738.58	15758	
738.76	14747	
738.94	13491	
739.12	15529	
739.3	15542	
739.48	15441	
739.66	15143	
739.84	15822	
740.02	15777	
740.2	13444	
740.38	13869	
740.56	16170	
740.74	14844	
740.92	14560	
741.1	14141	
741.28	15188	
741.46	15039	
741.64	13637	
741.82	14154	
742	15087	
742.18	14993	
742.36	13874	
742.54	13415	
742.72	15557	
742.9	14055	
743.08	14149	
743.26	12639	
743.44	15528	
743.62	15365	
743.8	14011	
743.98	12983	
744.16	14753	
744.34	14500	
744.52	13697	
744.7	13665	
744.88	14806	
745.06	14209	
745.24	13272	
745.42	13474	
745.6	14569	
745.78	14192	
745.96	11908	
746.14	12123	
746.32	15113	
746.5	14297	
746.68	12694	
746.86	12007	
747.03	14758	
747.21	12724	
747.39	12493	
747.57	11946	
747.75	13493	
747.93	14188	
748.11	11867	
748.29	11725	
748.47	15255	
748.65	13190	
748.83	12693	
749.01	12231	
749.19	13796	
749.37	12809	
749.55	12039	
749.73	11992	
749.91	13272	
750.09	12861	
750.26	12025	
750.44	11422	
750.62	13233	
750.8	13177	
750.98	11286	
751.16	11485	
751.34	13213	
751.52	12488	
751.7	12251	
751.88	11045	
752.06	13627	
752.24	13302	
752.42	10862	
752.59	11292	
752.77	12847	
752.95	14214	
753.13	12048	
753.31	11368	
753.49	12503	
753.67	12909	
753.85	11550	
754.03	10922	
754.21	12811	
754.38	13260	
754.56	10805	
754.74	9602.9	
754.92	11383	
755.1	12095	
755.28	8986.5	
755.46	8583	
755.64	11539	
755.82	11267	
755.99	7429.3	
756.17	7232.1	
756.35	7516.7	
756.53	9048.6	
756.71	5517.2	
756.89	6464.1	
757.07	8628.1	
757.25	7690.1	
757.42	7593.2	
757.6	8781	
757.78	9469.8	
757.96	8534.6	
758.14	7885.4	
758.32	7395.2	
758.5	7933.1	
758.67	8758.5	
758.85	7439.6	
759.03	7514.7	
759.21	8789.2	
759.39	8254	
759.57	7029.3	
759.75	8276.5	
759.92	9675.3	
760.1	8948.3	
760.28	8779	
760.46	9256.8	
760.64	9059.5	
760.82	8778.3	
760.99	8867	
761.17	8229.4	
761.35	10188	
761.53	9159.9	
761.71	8482	
761.89	9361.9	
762.06	10258	
762.24	9713.5	
762.42	8822.6	
762.6	8626.7	
762.78	10002	
762.96	10702	
763.13	9402.2	
763.31	9026.1	
763.49	10951	
763.67	9992	
763.85	10006	
764.02	10628	
764.2	11194	
764.38	10333	
764.56	8859.5	
764.74	9737.4	
764.91	11198	
765.09	10036	
765.27	8368.7	
765.45	8255.4	
765.63	11152	
765.8	11148	
765.98	7798	
766.16	8198	
766.34	9295.7	
766.52	9131.9	
766.69	9108.7	
766.87	7869.7	
767.05	9665.7	
767.23	10408	
767.41	7999.4	
767.58	8201.4	
767.76	10075	
767.94	10144	
768.12	7994.6	
768.29	8856.1	
768.47	9417.2	
768.65	10211	
768.83	7426.6	
769	8734.6	
769.18	8778.3	
769.36	9554.5	
769.54	8637	
769.72	7378.1	
769.89	9724.4	
770.07	9815.2	
770.25	7478.5	
770.43	8893.6	
770.6	10443	
770.78	10845	
770.96	7602.1	
771.14	8348.9	
771.31	9397.4	
771.49	8619.9	
771.67	6607.4	
771.85	6842.9	
772.02	7688.8	
772.2	8549.6	
772.38	7527.7	
772.55	6968.6	
772.73	8686.8	
772.91	8388.5	
773.09	7245	
773.26	7363.1	
773.44	8413.1	
773.62	8177.5	
773.8	6634.1	
773.97	6307.1	
774.15	8439.7	
774.33	7964.6	
774.5	6376	
774.68	6788.3	
774.86	8540	
775.04	7946.8	
775.21	6419	
775.39	6326.9	
775.57	8145.5	
775.74	8629.5	
775.92	6163	
776.1	5954.1	
776.27	8032.1	
776.45	9276.6	
776.63	6204.7	
776.81	5666.7	
776.98	7503.8	
777.16	8794.7	
777.34	6222.4	
777.51	6603.3	
777.69	7408.2	
777.87	7234.1	
778.04	6130.3	
778.22	6915.3	
778.4	7127.6	
778.57	7849.2	
778.75	5341.1	
778.93	5631.9	
779.1	6855.9	
779.28	6677.1	
779.46	5211.4	
779.64	5803.3	
779.81	7795.9	
779.99	8772.1	
780.17	6614.3	
780.34	6597.9	
780.52	7197.9	
780.69	7346.1	
780.87	5947.3	
781.05	5503.6	
781.22	7175.4	
781.4	7191.1	
781.58	5612.1	
781.75	4579.3	
781.93	7127.6	
782.11	6510.5	
782.28	6438.1	
782.46	5398.4	
782.64	6296.8	
782.81	7147.4	
782.99	5569.8	
783.17	5477	
783.34	7090.8	
783.52	6198.5	
783.69	5644.9	
783.87	6495.5	
784.05	6257.9	
784.22	6302.3	
784.4	6444.3	
784.58	5615.5	
784.75	7211.6	
784.93	6257.9	
785.1	5283.8	
785.28	5937.7	
785.46	6942.6	
785.63	6128.2	
785.81	5111	
785.99	4953.4	
786.16	6337.8	
786.34	6711.2	
786.51	4993.6	
786.69	5431.9	
786.87	5782.8	
787.04	6345.3	
787.22	4709.6	
787.39	5737.7	
787.57	6005.3	
787.75	7176.1	
787.92	5996.5	
788.1	5914.5	
788.27	6016.2	
788.45	5715.2	
788.63	5543.9	
788.8	4205.8	
788.98	6497.5	
789.15	5657.2	
789.33	4303.5	
789.5	5084.4	
789.68	6924.2	
789.86	7068.2	
790.03	5469.4	
790.21	4800.4	
790.38	6901.7	
790.56	5979.4	
790.73	4631.1	
790.91	4668	
791.09	5840.1	
791.26	6653.2	
791.44	4822.3	
791.61	4247.5	
791.79	5832.6	
791.96	5874.3	
792.14	4481.6	
792.32	3951.2	
792.49	5793.7	
792.67	5917.9	
792.84	4407.2	
793.02	4200.4	
793.19	6390.3	
793.37	7064.8	
793.54	3902.1	
793.72	4276.2	
793.89	7113.3	
794.07	5763.7	
794.25	4743.8	
794.42	3969.6	
794.6	6906.4	
794.77	6503.7	
794.95	5209.3	
795.12	4518.5	
795.3	5696.1	
795.47	6369.2	
795.65	4996.4	
795.82	4733.5	
796	5450.3	
796.17	7567.9	
796.35	4658.4	
796.52	5425.8	
796.7	6295.5	
796.87	6303.6	
797.05	5640.8	
797.22	5533.6	
797.4	6358.3	
797.57	7404.1	
797.75	4718.5	
797.92	4486.4	
798.1	6630.6	
798.27	5634	
798.45	3906.8	
798.62	4117.8	
798.8	5960.3	
798.97	6500.3	
799.15	4990.9	
799.32	4687.1	
799.5	5128.1	
799.67	6065.4	
799.85	5072.8	
800.02	3748.5	
800.2	5590.3	
800.37	5961.6	
800.55	5319.9	
800.72	4377.9	
800.9	6325.5	
801.07	6922.8	
801.25	5823.1	
801.42	4810.7	
801.6	6431.3	
801.77	6131.6	
801.95	4476.2	
802.12	4240.7	
802.29	6067.4	
802.47	6052.4	
802.64	4758.1	
802.82	3623.5	
802.99	5516.5	
803.17	6589	
803.34	4636.6	
803.52	4178.5	
803.69	7254.6	
803.87	5240.8	
804.04	4588.1	
804.21	4688.5	
804.39	6683.9	
804.56	5709.1	
804.74	3951.2	
804.91	4777.2	
805.09	5477	
805.26	5610.1	
805.44	3954.6	
805.61	4390.2	
805.78	6154.8	
805.96	6203.3	
806.13	4730.1	
806.31	5042.8	
806.48	4982	
806.66	5611.4	
806.83	4661.2	
807	4633.2	
807.18	5414.1	
807.35	5849.7	
807.53	4543.1	
807.7	3658.4	
807.87	6636.8	
808.05	5482.4	
808.22	4967.7	
808.4	3652.9	
808.57	5448.3	
808.74	5096.7	
808.92	4126.7	
809.09	5263.3	
809.27	5283.8	
809.44	6022.4	
809.61	3635.8	
809.79	4111	
809.96	6666.8	
810.14	6208.1	
810.31	3540.9	
810.48	4350.6	
810.66	5527.5	
810.83	6337.1	
811.01	4059.8	
811.18	4564.2	
811.35	6163.7	
811.53	4921.3	
811.7	5043.5	
811.87	4653.7	
812.05	5350.7	
812.22	5313.8	
812.39	4023.6	
812.57	3851.5	
812.74	5374.6	
812.92	7224.6	
813.09	4323.3	
813.26	4750.6	
813.44	6949.4	
813.61	5365	
813.78	3637.2	
813.96	4737	
814.13	5360.9	
814.3	5026.4	
814.48	5263.3	
814.65	4336.2	
814.82	6731.7	
815	5163.6	
815.17	4409.3	
815.34	5378	
815.52	5347.2	
815.69	5378.6	
815.87	4390.8	
816.04	3841.3	
816.21	5418.2	
816.38	4769	
816.56	4213.4	
816.73	3969.6	
816.9	6783.6	
817.08	6195.1	
817.25	4030.4	
817.42	5042.1	
817.6	4885.1	
817.77	5369.8	
817.94	4501.4	
818.12	3930.1	
818.29	5098.1	
818.46	8054	
818.64	4111.6	
818.81	3845.4	
818.98	5023.7	
819.16	7326.9	
819.33	4777.9	
819.5	4396.3	
819.67	5733.6	
819.85	6501.6	
820.02	4304.8	
820.19	4576.5	
820.37	5653.1	
820.54	5175.9	
820.71	4465.9	
820.88	5550.7	
821.06	5653.8	
821.23	5113.8	
821.4	4545.1	
821.58	4437.9	
821.75	6113.9	
821.92	5548.6	
822.09	3614	
822.27	3928	
822.44	5335	
822.61	5282.4	
822.79	3603.1	
822.96	6889.4	
823.13	5880.4	
823.3	5104.2	
823.48	4219.5	
823.65	3824.9	
823.82	6113.9	
823.99	4894	
824.17	5284.4	
824.34	3886.4	
824.51	7014.3	
824.68	5431.9	
824.86	4010.6	
825.03	4472.1	
825.2	5399.8	
825.37	6505.7	
825.55	3972.4	
825.72	4418.8	
825.89	7138.5	
826.06	6591	
826.24	4278.9	
826.41	4372.4	
826.58	6495.5	
826.75	5681.7	
826.92	3390.8	
827.1	3695.9	
827.27	8802.2	
827.44	7089.4	
827.61	4075.5	
827.79	4941.7	
827.96	5040.1	
828.13	5548.6	
828.3	4222.9	
828.47	3605.8	
828.65	5584.8	
828.82	5563.6	
828.99	5478.3	
829.16	4780	
829.34	6004.6	
829.51	5765	
829.68	4372.4	
829.85	4605.2	
830.02	6272.2	
830.2	6046.3	
830.37	3351.2	
830.54	5361.6	
830.71	6834.8	
830.88	5294	
831.05	3485	
831.23	3996.3	
831.4	6550.8	
831.57	7459.4	
831.74	4076.8	
831.91	3612.6	
832.09	5513.8	
832.26	5953.4	
832.43	4210.6	
832.6	4803.2	
832.77	5593.7	
832.94	6408.1	
833.12	3351.8	
833.29	4176.5	
833.46	5380.7	
833.63	7562.5	
833.8	4608.6	
833.97	4233.8	
834.15	5975.3	
834.32	5763	
834.49	4422.2	
834.66	4468	
834.83	6261.3	
835	5046.2	
835.17	4043.4	
835.35	4127.3	
835.52	5833.3	
835.69	5728.9	
835.86	4294.6	
836.03	3536.2	
836.2	5951.4	
836.37	5536.3	
836.55	4182.6	
836.72	4005.8	
836.89	5550	
837.06	5991.7	
837.23	4289.1	
837.4	4690.5	
837.57	6802.7	
837.75	7551.5	
837.92	3835.2	
838.09	4137.6	
838.26	5494	
838.43	6278.4	
838.6	4408.6	
838.77	3980.6	
838.94	7172	
839.11	6954.9	
839.29	4233.2	
839.46	3336.8	
839.63	5850.4	
839.8	5681.7	
839.97	4110.3	
840.14	4089.1	
840.31	5683.1	
840.48	5955.5	
840.65	3393.5	
840.82	4120.5	
841	5974.6	
841.17	5939.1	
841.34	3761.4	
841.51	3842.7	
841.68	5881.8	
841.85	5595.7	
842.02	3938.9	
842.19	3155.9	
842.36	5711.8	
842.53	5701.5	
842.7	3773.7	
842.87	4666	
843.05	7461.4	
843.22	5667.4	
843.39	3576.4	
843.56	3803.1	
843.73	5350.7	
843.9	5994.4	
844.07	6143.2	
844.24	5077.6	
844.41	8818.6	
844.58	5107.6	
844.75	3665.2	
844.92	3915	
845.09	5965.1	
845.26	5893.4	
845.43	3703.4	
845.6	3990.1	
845.77	5925.5	
845.94	5652.4	
846.12	4101.4	
846.29	4364.9	
846.46	6163	
846.63	5936.4	
846.8	3744.4	
846.97	4418.8	
847.14	6371.9	
847.31	5925.5	
847.48	4183.3	
847.65	4606.6	
847.82	6253.1	
847.99	6144.6	
848.16	4979.3	
848.33	4586.1	
848.5	5423	
848.67	6472.9	
848.84	3714.3	
849.01	3841.3	
849.18	5280.3	
849.35	4947.2	
849.52	4702.8	
849.69	3644.7	
849.86	6152.8	
850.03	6294.8	
850.2	3728	
850.37	4531.5	
850.54	6315.3	
850.71	5547.9	
850.88	4474.8	
851.05	3685	
851.22	5810.8	
851.39	6502.3	
851.56	3436.5	
851.73	4280.3	
851.9	5190.9	
852.07	6197.2	
852.24	4078.2	
852.41	3702.7	
852.58	5762.3	
852.75	5281.7	
852.92	4151.9	
853.09	3592.1	
853.26	5473.5	
853.43	6385.6	
853.6	3645.4	
853.77	3203	
853.94	6449.7	
854.11	5799.8	
854.28	5473.5	
854.44	3981.9	
854.61	6810.9	
854.78	6237.4	
854.95	3642.7	
855.12	4680.3	
855.29	4689.8	
855.46	6582.2	
855.63	3623.5	
855.8	5110.4	
855.97	5412.1	
856.14	6248.4	
856.31	5209.3	
856.48	4001.7	
856.65	5386.8	
856.82	5124.7	
856.99	3543.7	
857.16	3967.6	
857.33	7283.9	
857.49	5504.9	
857.66	3954.6	
857.83	4268	
858	5460.6	
858.17	5780.1	
858.34	3504.8	
858.51	3669.3	
858.68	6630.6	
858.85	6705.7	
859.02	4323.9	
859.19	4559.5	
859.36	5107.6	
859.52	5211.4	
859.69	3731.4	
859.86	4382.7	
860.03	5184.1	
860.2	6549.4	
860.37	3340.9	
860.54	3719.8	
860.71	6174.6	
860.88	6576	
861.05	4142.4	
861.21	4628.4	
861.38	6628.6	
861.55	5115.1	
861.72	3355.3	
861.89	4137.6	
862.06	6210.1	
862.23	6731	
862.4	3594.9	
862.56	3849.5	
862.73	6027.2	
862.9	5644.9	
863.07	4313.7	
863.24	3314.3	
863.41	5029.8	
863.58	5175.9	
863.75	3761.4	
863.91	4226.3	
864.08	6539.8	
864.25	6115.2	
864.42	4653	
864.59	5169.8	
864.76	6906.4	
864.93	5150	
865.09	3572.3	
865.26	3899.3	
865.43	6439.5	
865.6	6906.4	
865.77	3219.4	
865.94	3654.3	
866.1	6446.3	
866.27	6168.5	
866.44	5525.4	
866.61	3493.8	
866.78	5563	
866.95	6051.1	
867.11	3521.8	
867.28	3228.3	
867.45	6250.4	
867.62	5226.4	
867.79	4296	
867.96	3670	
868.12	5167.7	
868.29	6139.8	
868.46	3226.2	
868.63	4921.3	
868.8	6283.9	
868.97	6131.6	
869.13	3825.6	
869.3	3835.2	
869.47	5969.8	
869.64	6193.1	
869.81	3699.3	
869.97	3707.5	
870.14	5888.6	
870.31	6637.5	
870.48	3658.4	
870.65	4678.2	
870.81	5478.3	
870.98	5444.2	
871.15	4102.8	
871.32	3837.2	
871.48	6029.9	
871.65	6643.6	
871.82	3674.1	
871.99	4040.6	
872.16	7161.7	
872.32	6427.2	
872.49	3743	
872.66	3665.2	
872.83	6128.9	
872.99	5387.5	
873.16	4169.7	
873.33	3662.5	
873.5	5756.8	
873.67	5704.3	
873.83	3839.9	
874	4945.2	
874.17	5817.6	
874.34	7032	
874.5	4773.8	
874.67	4592.9	
874.84	6532.3	
875.01	5139.7	
875.17	5167.7	
875.34	3611.9	
875.51	5783.5	
875.68	7002.7	
875.84	4459.1	
876.01	5445.5	
876.18	6079.1	
876.34	5986.2	
876.51	3745.1	
876.68	3577.1	
876.85	5534.3	
877.01	6413.6	
877.18	5225.1	
877.35	3718.4	
877.52	5612.1	
877.68	5023.7	
877.85	3560.1	
878.02	3596.9	
878.18	5622.4	
878.35	5319.3	
878.52	2930	
878.69	4120.5	
878.85	6105	
879.02	6054.5	
879.19	5221	
879.35	3975.8	
879.52	6019.7	
879.69	6341.9	
879.86	3173	
880.02	4058.4	
880.19	5560.9	
880.36	6928.3	
880.52	4214	
880.69	4339.6	
880.86	6141.9	
881.02	6264.7	
881.19	4055	
881.36	4009.2	
881.52	5997.1	
881.69	5337.7	
881.86	3927.3	
882.02	3867.2	
882.19	6350.8	
882.36	7511.9	
882.52	3717.1	
882.69	5178.6	
882.86	5857.9	
883.02	5702.2	
883.19	4540.3	
883.36	4164.9	
883.52	6213.5	
883.69	7105.1	
883.86	3644.7	
884.02	3265.1	
884.19	6096.1	
884.36	5644.9	
884.52	4116.4	
884.69	3857.7	
884.86	5330.2	
885.02	6744.6	
885.19	4078.2	
885.36	4090.5	
885.52	5585.5	
885.69	5760.3	
885.86	5290.6	
886.02	4686.4	
886.19	6122.7	
886.35	5619.6	
886.52	4013.3	
886.69	5126.1	
886.85	5169.8	
887.02	6547.4	
887.19	6547.4	
887.35	6547.4	
887.52	6547.4	
887.68	6547.4	
887.85	6547.4	
888.02	6547.4	
888.18	6547.4	
888.35	6547.4	
888.51	6547.4	
888.68	6547.4	
888.85	6547.4	
889.01	6547.4	
889.18	6547.4	
889.35	6547.4	
889.51	6547.4	
889.68	6547.4	
889.84	6547.4	
890.01	6547.4	
890.17	6547.4	
890.34	6547.4	
890.51	6547.4	
890.67	6547.4	
890.84	6547.4	
891	6547.4	
891.17	6547.4	
891.34	6547.4	
891.5	6547.4	
891.67	6547.4	
891.83	6547.4	
892	6547.4	
892.16	6547.4	
892.33	6547.4	
892.5	6547.4	
892.66	6547.4	
892.83	6547.4	
892.99	6547.4	
893.16	6547.4	
893.32	6547.4	
893.49	6547.4	
893.65	6547.4	
893.82	6547.4	
893.99	6547.4	
894.15	6547.4	
894.32	6547.4	
894.48	6547.4	
894.65	6547.4	
894.81	6547.4	
894.98	6547.4	
895.14	6547.4	
895.31	6547.4	
895.47	6547.4	
895.64	6547.4	
895.81	6547.4	
895.97	6547.4	
896.14	6547.4	
896.3	6547.4	
896.47	6547.4	
896.63	6547.4	
896.8	6547.4	
896.96	6547.4	
897.13	6547.4	
897.29	6547.4	
897.46	6547.4	
897.62	6547.4	
897.79	6547.4	
897.95	6547.4	
898.12	6547.4	
898.28	6547.4	
898.45	6547.4	
898.61	6547.4	
898.78	6547.4	
898.94	6547.4	
899.11	6547.4	
899.27	6547.4	
899.44	6547.4	
899.6	6547.4	
899.77	6547.4	
899.93	6547.4	
900.1	6547.4	
900.26	6547.4	
900.43	6547.4	
900.59	6547.4	
900.76	6547.4	
900.92	6547.4	
901.09	6547.4	
901.25	6547.4	
901.42	6547.4	
901.58	6547.4	
901.75	6547.4	
901.91	6547.4	
902.07	6547.4	
902.24	6547.4	
902.4	6547.4	
902.57	6547.4	
902.73	6547.4	
902.9	6547.4	
903.06	6547.4	
903.23	6547.4	
903.39	6547.4	
903.56	6547.4	
903.72	6547.4	
903.88	6547.4	
904.05	6547.4	
904.21	6547.4	
904.38	6547.4	
904.54	6547.4	
904.71	6547.4	
904.87	6547.4	
905.03	6547.4	
905.2	6547.4	
905.36	6547.4	
905.53	6547.4	
905.69	6547.4	
905.86	6547.4	
906.02	6547.4	
906.18	6547.4	
906.35	6547.4	
906.51	6547.4	
906.68	6547.4	
906.84	6547.4	
907.01	6547.4	
907.17	6547.4	
907.33	6547.4	
907.5	6547.4	
907.66	6547.4	
907.83	6547.4	
907.99	6547.4	
908.15	6547.4	
908.32	6547.4	
908.48	6547.4	
908.65	6547.4	
908.81	6547.4	
908.97	6547.4	
909.14	6547.4	
909.3	6547.4	
909.47	6547.4	
909.63	6547.4	
909.79	6547.4	
909.96	6547.4	
910.12	6547.4	
910.28	6547.4	
910.45	6547.4	
910.61	6547.4	
910.78	6547.4	
910.94	6547.4	
911.1	6547.4	
911.27	6547.4	
911.43	6547.4	
911.59	6547.4	
911.76	6547.4	
911.92	6547.4	
912.08	6547.4	
912.25	6547.4	
912.41	6547.4	
912.57	6547.4	
912.74	6547.4	
912.9	6547.4	
913.07	6547.4	
913.23	6547.4	
913.39	6547.4	
913.56	6547.4	
913.72	6547.4	
913.88	6547.4	
914.05	6547.4	
914.21	6547.4	
914.37	6547.4	
914.54	6547.4	
914.7	6547.4	
914.86	6547.4	
915.03	6547.4	
915.19	6547.4	
