Wavelength	Intensities	
nm	a.u.	
179.22	1750.2	
179.44	1746.6	
179.65	1753.7	
179.86	1739.4	
180.08	1740.8	
180.29	4137.6	
180.51	3084.9	
180.72	5102.2	
180.94	5814.2	
181.15	2874.7	
181.37	2798.9	
181.58	4964.3	
181.79	5157.5	
182.01	2944.3	
182.22	3135.4	
182.44	5169.1	
182.65	4468.7	
182.87	3844	
183.08	3418.7	
183.29	5398.4	
183.51	4553.3	
183.72	3174.4	
183.94	4478.9	
184.15	4894	
184.37	4843.4	
184.58	2805.7	
184.79	3697.9	
185.01	4616.8	
185.22	5200.5	
185.44	3915.7	
185.65	3390.8	
185.86	4863.9	
186.08	4488.5	
186.29	2730.6	
186.51	2905.4	
186.72	4592.9	
186.94	5332.2	
187.15	3312.2	
187.36	3457.7	
187.58	6681.2	
187.79	4953.4	
188.01	3543	
188.22	5364.3	
188.43	5812.1	
188.65	5152	
188.86	2953.9	
189.08	3449.5	
189.29	4764.3	
189.5	4734.2	
189.72	3189.4	
189.93	3265.8	
190.15	5335	
190.36	6176.7	
190.57	3388	
190.79	3373.7	
191	5362.3	
191.22	5296	
191.43	3487	
191.64	2954.5	
191.86	5580	
192.07	5324	
192.29	3031	
192.5	3194.1	
192.71	5319.3	
192.93	4674.1	
193.14	3136.8	
193.35	3272.7	
193.57	4705.5	
193.78	5311.1	
194	2610.5	
194.21	3122.5	
194.42	4523.3	
194.64	4884.4	
194.85	3442.6	
195.07	3939.6	
195.28	4863.2	
195.49	4304.8	
195.71	4155.3	
195.92	3024.2	
196.13	5085.1	
196.35	5142.4	
196.56	4374.5	
196.78	3418.1	
196.99	6201.9	
197.2	5802.6	
197.42	3938.2	
197.63	3465.8	
197.84	4437.9	
198.06	5094.7	
198.27	3216.7	
198.48	4163.5	
198.7	4704.9	
198.91	4876.9	
199.13	3443.3	
199.34	3495.2	
199.55	5276.9	
199.77	4284.4	
199.98	3146.4	
200.19	3529.3	
200.41	4818.9	
200.62	4544.4	
200.83	3529.3	
201.05	3868.6	
201.26	4824.3	
201.47	4630.5	
201.69	3119.7	
201.9	3035.8	
202.11	4921.3	
202.33	5680.4	
202.54	3278.1	
202.76	3605.8	
202.97	4949.3	
203.18	5020.9	
203.4	3566.2	
203.61	3535.5	
203.82	4973.2	
204.04	4663.9	
204.25	3488.4	
204.46	3459	
204.68	4896.7	
204.89	5116.5	
205.1	3407.8	
205.32	2973.7	
205.53	5201.8	
205.74	5338.4	
205.96	2605	
206.17	3536.8	
206.38	5175.2	
206.6	5289.2	
206.81	3960.8	
207.02	3280.8	
207.24	5059.2	
207.45	5366.4	
207.66	3313.6	
207.88	2873.3	
208.09	5004.6	
208.3	4842.8	
208.52	3095.8	
208.73	3358	
208.94	4873.5	
209.15	5481.7	
209.37	3295.2	
209.58	3753.9	
209.79	5274.2	
210.01	4727.4	
210.22	2702.6	
210.43	2927.2	
210.65	4871.4	
210.86	5190.9	
211.07	3291.8	
211.29	3082.9	
211.5	5111.7	
211.71	4868	
211.93	3109.5	
212.14	3030.3	
212.35	4824.3	
212.56	4975.2	
212.78	3500	
212.99	2900.6	
213.2	5612.8	
213.42	4734.9	
213.63	3168.2	
213.84	3323.9	
214.06	4442	
214.27	4473.4	
214.48	3309.5	
214.69	3476.8	
214.91	5442.1	
215.12	5447.6	
215.33	3523.9	
215.55	3820.8	
215.76	5902.9	
215.97	5186.8	
216.18	3365.5	
216.4	3403	
216.61	4655	
216.82	5245.5	
217.04	3065.1	
217.25	3188	
217.46	5409.4	
217.67	5173.2	
217.89	2785.9	
218.1	2881.5	
218.31	4994.3	
218.53	4993.6	
218.74	3225.6	
218.95	3108.8	
219.16	4885.8	
219.38	5611.4	
219.59	3150.5	
219.8	3694.5	
220.01	6085.9	
220.23	4915.8	
220.44	3973.1	
220.65	3036.5	
220.87	4956.1	
221.08	5397.8	
221.29	2897.9	
221.5	3784.6	
221.72	6370.5	
221.93	4672.1	
222.14	3538.2	
222.35	4057.7	
222.57	4874.8	
222.78	5186.1	
222.99	3304.7	
223.2	3547.8	
223.42	5140.4	
223.63	5293.3	
223.84	2639.1	
224.05	2660.3	
224.27	6046.3	
224.48	5509	
224.69	4106.9	
224.9	3487.7	
225.12	5027.8	
225.33	4832.5	
225.54	2867.8	
225.75	3130.7	
225.97	4597.7	
226.18	4836.6	
226.39	3331.4	
226.6	3137.5	
226.82	4703.5	
227.03	4559.5	
227.24	3425.6	
227.45	2942.2	
227.67	5216.9	
227.88	5591.6	
228.09	3830.4	
228.3	3872	
228.52	5203.2	
228.73	4771.8	
228.94	3246.7	
229.15	2892.4	
229.36	4839.4	
229.58	4829.1	
229.79	3259	
230	3752.6	
230.21	5724.8	
230.43	4934.2	
230.64	3489.7	
230.85	3543	
231.06	5337.7	
231.28	5272.2	
231.49	2934.1	
231.7	3390.1	
231.91	5198.4	
232.12	4925.4	
232.34	3013.9	
232.55	3411.2	
232.76	5395.7	
232.97	5038.7	
233.18	3137.5	
233.4	3461.7	
233.61	5031.2	
233.82	4737.6	
234.03	3248.8	
234.25	3203	
234.46	6511.2	
234.67	4930.8	
234.88	3534.1	
235.09	3183.2	
235.31	5056.4	
235.52	4771.8	
235.73	3445.4	
235.94	2942.9	
236.15	4630.5	
236.37	5760.9	
236.58	3087.7	
236.79	3327.3	
237	5119.2	
237.21	4463.2	
237.43	3594.9	
237.64	2846.7	
237.85	8222.6	
238.06	4584.7	
238.27	3538.2	
238.48	2937.5	
238.7	5251.7	
238.91	4782	
239.12	3342.3	
239.33	3340.2	
239.54	4616.1	
239.76	4844.1	
239.97	3270.6	
240.18	3298.6	
240.39	5879	
240.6	5113.1	
240.82	3404.4	
241.03	2945	
241.24	4805.9	
241.45	5586.2	
241.66	3063.1	
241.87	3550.5	
242.09	5486.5	
242.3	5714.5	
242.51	3626.3	
242.72	3360	
242.93	5259.9	
243.14	4814.8	
243.36	3807.9	
243.57	4113.7	
243.78	5575.9	
243.99	5175.2	
244.2	3367.5	
244.41	3026.9	
244.63	4527.4	
244.84	5109.7	
245.05	3521.1	
245.26	3366.2	
245.47	5143.1	
245.68	5298.1	
245.9	4314.4	
246.11	3459.7	
246.32	4727.4	
246.53	5096.7	
246.74	5293.3	
246.95	2861.7	
247.16	4563.6	
247.38	4920.6	
247.59	2848.7	
247.8	3337.5	
248.01	4564.9	
248.22	4872.1	
248.43	3080.1	
248.64	3241.9	
248.86	4437.9	
249.07	4732.9	
249.28	2983.9	
249.49	3402.4	
249.7	5353.4	
249.91	5416.2	
250.12	2867.2	
250.34	2920.4	
250.55	4992.9	
250.76	4885.1	
250.97	3411.2	
251.18	3494.5	
251.39	5402.5	
251.6	5059.2	
251.81	3500.7	
252.03	3420.1	
252.24	4706.2	
252.45	5197.7	
252.66	2971.6	
252.87	3639.2	
253.08	4897.4	
253.29	6178	
253.5	2994.1	
253.72	4000.4	
253.93	4823.6	
254.14	5679.7	
254.35	3207.1	
254.56	3251.5	
254.77	5089.2	
254.98	4575.2	
255.19	3190.7	
255.41	3988.1	
255.62	4980.7	
255.83	5348.6	
256.04	3586	
256.25	3382.6	
256.46	5898.1	
256.67	4606.6	
256.88	3418.1	
257.09	3758	
257.31	4569	
257.52	4618.2	
257.73	4267.3	
257.94	3200.3	
258.15	4830.5	
258.36	4925.4	
258.57	3900.7	
258.78	2587.3	
258.99	5268.7	
259.2	4692.6	
259.41	3196.9	
259.63	3265.8	
259.84	5526.8	
260.05	5867.4	
260.26	4067.9	
260.47	3149.1	
260.68	5365.7	
260.89	4775.2	
261.1	3863.8	
261.31	3072	
261.52	5373.2	
261.73	5627.8	
261.95	4117.1	
262.16	3588	
262.37	5421	
262.58	5504.3	
262.79	4013.3	
263	3259.7	
263.21	4967.7	
263.42	4767	
263.63	3327.3	
263.84	3196.9	
264.05	5292.6	
264.26	5552.7	
264.47	3919.8	
264.69	3580.5	
264.9	5502.9	
265.11	5046.9	
265.32	3138.2	
265.53	3185.3	
265.74	5016.2	
265.95	4431.1	
266.16	3340.2	
266.37	3729.4	
266.58	4969.7	
266.79	4734.2	
267	3183.2	
267.21	2966.1	
267.42	4558.8	
267.63	4891.9	
267.84	3289.7	
268.06	2889.7	
268.27	5275.6	
268.48	5390.9	
268.69	3272	
268.9	3765.5	
269.11	5449	
269.32	4449.6	
269.53	3316.3	
269.74	3106.8	
269.95	5150	
270.16	4396.3	
270.37	3378.5	
270.58	3832.4	
270.79	4758.8	
271	5328.1	
271.21	3544.4	
271.42	3350.5	
271.63	5084.4	
271.84	4580.6	
272.05	2741.5	
272.26	2993.4	
272.47	4884.4	
272.68	5049.6	
272.89	3231.7	
273.11	3686.3	
273.32	4659.1	
273.53	5592.3	
273.74	3594.9	
273.95	3473.4	
274.16	5341.8	
274.37	4899.4	
274.58	3659.7	
274.79	2964.8	
275	5055.1	
275.21	5358.9	
275.42	4292.5	
275.63	3718.4	
275.84	5095.3	
276.05	6210.8	
276.26	3495.9	
276.47	3249.4	
276.68	4834.6	
276.89	5655.1	
277.1	3695.2	
277.31	2970.9	
277.52	5085.1	
277.73	5328.1	
277.94	2900.6	
278.15	3198.9	
278.36	5098.8	
278.57	4646.2	
278.78	3230.3	
278.99	3545	
279.2	4650.9	
279.41	4541.7	
279.62	4109.6	
279.83	2958.6	
280.04	5887.9	
280.25	4612.7	
280.46	4105.5	
280.67	3305.4	
280.88	4616.1	
281.09	5420.3	
281.3	3498.6	
281.51	4317.1	
281.72	4674.8	
281.93	5275.6	
282.14	3150.5	
282.35	3415.3	
282.56	5303.6	
282.77	5261.2	
282.98	3224.9	
283.19	3883.6	
283.4	6297.5	
283.61	4827.1	
283.82	3002.3	
284.03	4098.7	
284.24	5029.8	
284.45	5405.3	
284.66	4116.4	
284.87	3904.1	
285.08	5341.8	
285.29	5449.6	
285.5	2902	
285.71	3256.3	
285.92	5379.3	
286.12	5875.6	
286.33	4027	
286.54	3292.5	
286.75	5258.5	
286.96	4814.1	
287.17	3012.6	
287.38	3929.4	
287.59	4642.7	
287.8	4601.1	
288.01	3281.5	
288.22	3674.7	
288.43	5203.2	
288.64	4431.8	
288.85	3888.4	
289.06	3637.2	
289.27	5523.4	
289.48	5638.1	
289.69	4088.4	
289.9	3728	
290.11	5488.6	
290.32	4688.5	
290.53	3810.6	
290.74	3575.1	
290.94	5286.5	
291.15	5311.1	
291.36	3173	
291.57	3723.9	
291.78	4793.6	
291.99	4411.3	
292.2	3071.3	
292.41	3592.1	
292.62	5350.7	
292.83	5135.6	
293.04	4344.4	
293.25	3115	
293.46	4758.8	
293.67	5341.1	
293.88	3100.6	
294.09	3077.4	
294.29	4557.4	
294.5	4999.8	
294.71	3420.1	
294.92	3212.6	
295.13	4758.8	
295.34	5808	
295.55	2889	
295.76	2868.5	
295.97	5259.2	
296.18	5816.2	
296.39	3003.7	
296.6	3150.5	
296.81	4988.2	
297.01	5245.5	
297.22	3273.3	
297.43	3187.3	
297.64	4653	
297.85	4632.5	
298.06	2637.8	
298.27	2881.5	
298.48	4904.2	
298.69	4632.5	
298.9	3364.1	
299.11	3090.4	
299.31	4551.3	
299.52	4571.7	
299.73	3634.5	
299.94	3564.1	
300.15	4908.3	
300.36	4573.8	
300.57	3560.1	
300.78	3560.7	
300.99	4827.1	
301.2	5011.4	
301.4	3158.7	
301.61	3424.9	
301.82	5212.8	
302.03	5247.6	
302.24	3787.4	
302.45	3040.6	
302.66	5158.8	
302.87	5432.6	
303.08	3169.6	
303.29	4194.2	
303.49	4703.5	
303.7	4911.7	
303.91	2862.4	
304.12	4016.7	
304.33	4466.6	
304.54	5031.2	
304.75	3129.3	
304.96	3050.1	
305.16	5178.6	
305.37	5651	
305.58	2774.3	
305.79	2891	
306	5153.4	
306.21	4431.1	
306.42	3104.7	
306.63	4633.9	
306.83	4776.5	
307.04	5309	
307.25	3431.7	
307.46	3426.9	
307.67	4293.2	
307.88	5214.8	
308.09	3110.9	
308.29	3188	
308.5	4930.1	
308.71	5398.4	
308.92	3381.9	
309.13	3065.1	
309.34	4840.7	
309.55	4838.7	
309.75	3918.4	
309.96	3543	
310.17	5259.2	
310.38	4648.9	
310.59	3696.6	
310.8	3024.8	
311.01	4775.2	
311.21	4790.2	
311.42	3038.5	
311.63	3222.8	
311.84	4717.8	
312.05	4994.3	
312.26	3501.3	
312.46	3777.1	
312.67	4777.9	
312.88	4526	
313.09	3016	
313.3	3022.1	
313.51	5493.3	
313.71	5751.4	
313.92	3066.5	
314.13	3178.4	
314.34	5025	
314.55	4858.5	
314.76	3813.3	
314.96	3392.8	
315.17	4995	
315.38	5157.5	
315.59	3084.2	
315.8	2966.8	
316.01	5543.2	
316.21	5642.2	
316.42	2982.5	
316.63	3381.9	
316.84	4794.3	
317.05	5433.3	
317.26	3579.8	
317.46	3224.2	
317.67	4854.4	
317.88	5263.3	
318.09	3816.7	
318.3	2877.4	
318.5	4713.7	
318.71	5131.5	
318.92	4715.8	
319.13	3528	
319.34	5337	
319.54	5397.8	
319.75	2893.8	
319.96	2762	
320.17	5181.4	
320.38	5360.9	
320.58	2800.3	
320.79	3318.4	
321	5366.4	
321.21	5472.9	
321.42	3338.2	
321.62	2861	
321.83	4596.3	
322.04	4913.8	
322.25	3250.1	
322.46	3087	
322.66	5002.5	
322.87	5138.4	
323.08	3688.4	
323.29	3021.4	
323.5	5737	
323.7	4562.2	
323.91	4054.3	
324.12	3727.3	
324.33	4981.3	
324.53	5152.7	
324.74	3551.9	
324.95	3715.7	
325.16	4474.8	
325.37	4804.5	
325.57	3133.4	
325.78	3172.3	
325.99	5010	
326.2	4450.2	
326.4	4334.9	
326.61	2893.1	
326.82	4823.6	
327.03	4988.9	
327.24	4265.9	
327.44	4011.3	
327.65	5140.4	
327.86	4267.3	
328.07	3554.6	
328.27	2996.2	
328.48	5466.7	
328.69	4523.3	
328.9	4305.5	
329.1	3198.2	
329.31	4823	
329.52	5541.8	
329.73	3091.8	
329.93	3398.3	
330.14	4965.6	
330.35	5128.8	
330.56	4891.2	
330.76	3672.7	
330.97	4746.5	
331.18	4981.3	
331.39	3371.6	
331.59	2771.6	
331.8	5330.9	
332.01	5436.7	
332.22	3196.2	
332.42	3515	
332.63	5003.9	
332.84	4607.9	
333.05	3441.3	
333.25	3099.3	
333.46	4723.3	
333.67	4925.4	
333.88	3233.7	
334.08	3528	
334.29	6346	
334.5	5355.4	
334.7	3061.7	
334.91	4273.4	
335.12	4551.3	
335.33	5198.4	
335.53	3423.5	
335.74	4850.3	
335.95	4795.7	
336.16	4545.1	
336.36	3358	
336.57	3808.5	
336.78	4523.3	
336.98	5315.2	
337.19	4059.1	
337.4	3347.7	
337.61	5785.5	
337.81	4519.9	
338.02	3128.6	
338.23	3969.6	
338.43	5521.3	
338.64	4652.3	
338.85	3097.9	
339.05	3994.9	
339.26	5575.9	
339.47	4450.2	
339.68	3054.2	
339.88	4378.6	
340.09	5102.2	
340.3	5284.4	
340.5	3578.5	
340.71	2764.1	
340.92	4556	
341.13	5532.9	
341.33	2904.7	
341.54	3645.4	
341.75	5062.6	
341.95	4727.4	
342.16	3447.4	
342.37	3674.1	
342.57	4560.8	
342.78	4890.5	
342.99	3713.6	
343.19	2792.7	
343.4	5274.2	
343.61	5104.2	
343.81	3265.8	
344.02	3047.4	
344.23	5242.8	
344.43	5558.2	
344.64	3709.6	
344.85	3702.7	
345.06	5097.4	
345.26	5377.3	
345.47	3556.6	
345.68	3977.2	
345.88	4445.5	
346.09	5345.2	
346.3	3609.9	
346.5	2793.4	
346.71	4885.1	
346.92	4704.9	
347.12	2935.4	
347.33	3545	
347.54	5358.2	
347.74	5720	
347.95	3551.2	
348.16	2695.8	
348.36	4742.4	
348.57	4612.7	
348.78	3607.2	
348.98	3708.9	
349.19	4857.1	
349.39	4457.7	
349.6	2887.6	
349.81	3124.5	
350.01	5175.2	
350.22	4704.2	
350.43	3403.7	
350.63	4037.9	
350.84	4945.2	
351.05	4690.5	
351.25	3117	
351.46	2884.2	
351.67	5341.8	
351.87	4663.9	
352.08	3336.1	
352.29	3773	
352.49	5301.5	
352.7	5392.3	
352.9	3028.3	
353.11	3751.9	
353.32	5814.9	
353.52	4788.2	
353.73	3057.6	
353.94	3771.7	
354.14	5193.6	
354.35	5011.4	
354.55	3106.1	
354.76	3377.1	
354.97	5186.8	
355.17	4964.3	
355.38	2981.8	
355.59	4027	
355.79	4681	
356	4976.6	
356.2	3426.9	
356.41	3041.2	
356.62	4494.6	
356.82	4941.1	
357.03	3691.8	
357.24	3355.9	
357.44	4716.5	
357.65	4805.2	
357.85	4334.2	
358.06	3502	
358.27	4528.1	
358.47	4680.3	
358.68	3010.5	
358.88	3671.3	
359.09	5231.2	
359.3	5519.3	
359.5	4273.4	
359.71	3805.1	
359.91	5808	
360.12	5307.7	
360.33	3713.6	
360.53	4089.8	
360.74	4801.8	
360.94	4844.8	
361.15	3865.2	
361.36	3287.7	
361.56	5479.7	
361.77	5011.4	
361.97	4270.7	
362.18	3482.2	
362.38	5446.2	
362.59	4747.9	
362.8	3226.2	
363	3087	
363.21	4566.3	
363.41	5101.5	
363.62	3654.3	
363.83	4520.5	
364.03	5272.2	
364.24	6006	
364.44	4612	
364.65	4520.5	
364.85	5035.3	
365.06	4760.8	
365.27	3395.5	
365.47	3495.9	
365.68	5803.3	
365.88	5053	
366.09	3757.3	
366.29	3500.7	
366.5	5311.7	
366.71	5610.8	
366.91	4622.9	
367.12	3966.2	
367.32	6067.4	
367.53	5518.6	
367.73	3901.4	
367.94	4711.7	
368.14	5535	
368.35	6145.3	
368.56	3887.7	
368.76	3719.1	
368.97	5569.1	
369.17	6856.6	
369.38	3517	
369.58	3756.7	
369.79	4695.3	
369.99	5894.7	
370.2	4567	
370.4	3775.8	
370.61	5326.1	
370.82	6300.9	
371.02	3729.4	
371.23	3123.2	
371.43	4721.9	
371.64	5844.2	
371.84	3830.4	
372.05	4728.1	
372.25	6842.3	
372.46	5627.1	
372.66	3818.1	
372.87	3831.1	
373.07	5685.8	
373.28	6976.1	
373.48	4666.6	
373.69	4453.6	
373.9	5276.9	
374.1	5287.2	
374.31	4707.6	
374.51	4268.6	
374.72	6074.3	
374.92	5079	
375.13	4855.7	
375.33	4147.1	
375.54	5700.9	
375.74	5252.4	
375.95	4405.2	
376.15	5352	
376.36	5797.8	
376.56	5627.8	
376.77	4349.2	
376.97	4764.3	
377.18	6722.8	
377.38	5936.4	
377.59	5110.4	
377.79	4105.5	
378	5836	
378.2	6156.9	
378.41	4156.7	
378.61	4105.5	
378.82	6223.8	
379.02	5639.4	
379.23	4371	
379.43	5199.8	
379.64	6379.4	
379.84	6032.6	
380.05	4108.9	
380.25	4061.1	
380.46	6128.9	
380.66	5758.9	
380.87	5236.7	
381.07	5523.4	
381.28	6640.2	
381.48	6114.6	
381.69	4191.5	
381.89	4209.3	
382.1	5162.2	
382.3	6221.7	
382.51	5104.2	
382.71	5750.7	
382.91	5952.1	
383.12	6431.3	
383.32	4454.3	
383.53	4642.1	
383.73	5866.1	
383.94	5766.4	
384.14	4582	
384.35	3786	
384.55	5586.2	
384.76	5973.9	
384.96	4383.3	
385.17	4638	
385.37	6057.2	
385.58	5319.3	
385.78	4680.3	
385.98	3719.8	
386.19	5560.2	
386.39	5860.6	
386.6	4244.1	
386.8	4368.3	
387.01	5966.4	
387.21	6107	
387.42	4788.8	
387.62	5245.5	
387.83	5522.7	
388.03	6013.5	
388.23	4587.4	
388.44	5156.8	
388.64	5283.8	
388.85	5481.7	
389.05	4942.4	
389.26	5440.8	
389.46	7102.4	
389.67	6647	
389.87	5001.1	
390.07	5105.6	
390.28	5905.7	
390.48	5541.8	
390.69	4393.6	
390.89	4592.9	
391.1	5789.6	
391.3	6528.2	
391.5	5603.2	
391.71	6033.3	
391.91	6359.6	
392.12	7101.7	
392.32	5672.2	
392.53	5055.1	
392.73	5915.9	
392.93	5988.9	
393.14	4667.3	
393.34	5274.9	
393.55	6271.6	
393.75	5862.7	
393.95	4622.3	
394.16	4546.5	
394.36	5699.5	
394.57	6190.3	
394.77	4237.9	
394.98	4526.7	
395.18	5771.9	
395.38	6001.2	
395.59	5509	
395.79	4592.9	
396	6012.8	
396.2	6441.5	
396.4	5420.3	
396.61	5281	
396.81	6636.8	
397.02	6090.7	
397.22	5691.3	
397.42	5672.9	
397.63	6737.8	
397.83	6191	
398.04	4736.3	
398.24	5274.9	
398.44	6567.8	
398.65	5752.7	
398.85	4707.6	
399.05	4775.9	
399.26	6212.2	
399.46	7544.7	
399.67	5212.1	
399.87	4943.1	
400.07	6606.7	
400.28	6869.6	
400.48	5098.1	
400.69	5997.8	
400.89	7086.7	
401.09	7422.5	
401.3	5126.1	
401.5	6072.2	
401.7	7691.5	
401.91	7892.2	
402.11	5466.7	
402.32	5600.5	
402.52	7195.2	
402.72	7118.1	
402.93	5692	
403.13	4633.2	
403.33	7578.2	
403.54	6284.5	
403.74	5171.1	
403.94	5806.7	
404.15	6339.1	
404.35	7258	
404.56	4963.6	
404.76	6419	
404.96	6841.6	
405.17	6640.9	
405.37	6118.6	
405.57	5594.4	
405.78	7150.1	
405.98	6600.6	
406.18	5357.5	
406.39	5931.6	
406.59	6883.2	
406.79	6591	
407	4909.7	
407.2	4930.8	
407.4	6915.3	
407.61	7079.1	
407.81	5111	
408.01	6879.1	
408.22	6322.1	
408.42	8030.8	
408.62	6401.3	
408.83	6126.2	
409.03	7292.1	
409.23	7169.3	
409.44	6387.6	
409.64	6548	
409.84	8293.6	
410.05	8251.9	
410.25	6660.7	
410.45	6403.3	
410.66	8029.4	
410.86	9882.8	
411.06	7113.3	
411.27	6898.2	
411.47	10031	
411.67	8344.8	
411.88	7067.5	
412.08	7485.3	
412.28	8856.1	
412.49	9321.7	
412.69	7275.8	
412.89	7222.5	
413.09	9169.4	
413.3	9191.3	
413.5	7432.1	
413.7	7099.6	
413.91	8591.9	
414.11	9320.3	
414.31	7368.6	
414.52	7737.2	
414.72	9129.2	
414.92	9082.7	
415.12	7418.4	
415.33	7894.9	
415.53	9588.6	
415.73	9568.8	
415.94	8077.2	
416.14	7606.2	
416.34	8763.3	
416.55	8476.5	
416.75	8596	
416.95	8208.3	
417.15	9682.1	
417.36	10023	
417.56	8991.9	
417.76	8319.5	
417.97	10049	
418.17	9825.5	
418.37	8037.6	
418.57	8112.7	
418.78	9719.7	
418.98	9357.9	
419.18	8774.2	
419.38	8641.1	
419.59	9336	
419.79	8848.6	
419.99	7821.9	
420.2	8127.7	
420.4	9750.4	
420.6	9759.9	
420.8	7873.8	
421.01	7744.7	
421.21	9850.7	
421.41	9944.3	
421.61	8132.5	
421.82	7902.4	
422.02	9375.6	
422.22	9932	
422.42	8581.7	
422.63	8075.1	
422.83	9434.3	
423.03	10424	
423.23	8284.7	
423.44	7386.3	
423.64	9327.1	
423.84	8920.3	
424.04	7837.6	
424.25	7448.5	
424.45	9850.7	
424.65	9830.2	
424.85	7212.9	
425.06	7653.9	
425.26	10047	
425.46	9145.5	
425.66	8061.5	
425.87	7927.7	
426.07	9756.5	
426.27	9665.7	
426.47	7972.1	
426.67	7234.1	
426.88	9867.1	
427.08	9509.4	
427.28	8242.4	
427.48	7251.2	
427.69	8587.1	
427.89	9175.6	
428.09	8116.8	
428.29	7378.8	
428.5	9655.5	
428.7	9336.7	
428.9	7374.7	
429.1	7735.9	
429.3	9436.4	
429.51	9594.7	
429.71	7557.7	
429.91	8381	
430.11	9727.2	
430.31	10287	
430.52	7991.9	
430.72	8383	
430.92	10202	
431.12	9635	
431.32	7862.8	
431.53	8001.4	
431.73	8933.2	
431.93	10141	
432.13	7608.9	
432.33	7643	
432.54	9391.3	
432.74	9663.7	
432.94	7852.6	
433.14	8519.6	
433.34	9889	
433.55	9722.4	
433.75	8497	
433.95	10086	
434.15	9828.9	
434.35	9734	
434.56	7936.6	
434.76	7824.6	
434.96	9820.7	
435.16	10275	
435.36	8017.8	
435.56	9039.7	
435.77	9841.9	
435.97	9938.8	
436.17	9566.7	
436.37	9052	
436.57	9843.9	
436.78	9854.1	
436.98	8858.8	
437.18	9642.5	
437.38	10503	
437.58	9913.5	
437.78	9521.7	
437.99	8461.5	
438.19	10198	
438.39	10908	
438.59	8305.9	
438.79	7689.4	
438.99	10608	
439.2	9625.5	
439.4	7687.4	
439.6	7923.6	
439.8	10083	
440	11071	
440.2	9130.5	
440.4	9334.6	
440.61	10884	
440.81	11328	
441.01	8700.5	
441.21	9579.7	
441.41	11410	
441.61	10986	
441.81	9824.1	
442.02	10615	
442.22	11697	
442.42	11161	
442.62	8845.9	
442.82	8809.7	
443.02	11387	
443.22	10791	
443.43	9378.3	
443.63	9037.7	
443.83	10584	
444.03	10742	
444.23	10240	
444.43	9824.8	
444.63	11166	
444.83	11989	
445.04	9438.4	
445.24	10338	
445.44	11167	
445.64	11370	
445.84	9705.3	
446.04	9727.9	
446.24	10430	
446.44	11342	
446.65	8834.3	
446.85	9331.2	
447.05	10475	
447.25	11219	
447.45	9368.8	
447.65	8781	
447.85	10857	
448.05	10361	
448.25	9764	
448.46	9461.6	
448.66	10850	
448.86	10391	
449.06	8917.5	
449.26	9693	
449.46	11236	
449.66	10351	
449.86	9516.2	
450.06	9400.9	
450.26	10730	
450.47	11104	
450.67	9502.6	
450.87	9914.2	
451.07	11297	
451.27	11097	
451.47	9002.9	
451.67	9630.9	
451.87	10910	
452.07	11645	
452.27	9476	
452.47	9360.6	
452.67	10982	
452.88	11482	
453.08	8551.6	
453.28	10441	
453.48	12065	
453.68	10826	
453.88	9353.1	
454.08	9476	
454.28	11493	
454.48	11070	
454.68	10045	
454.88	10327	
455.08	11579	
455.28	11721	
455.48	9293.7	
455.68	10059	
455.89	12212	
456.09	11968	
456.29	9755.8	
456.49	10030	
456.69	12243	
456.89	11491	
457.09	10409	
457.29	10978	
457.49	12022	
457.69	12314	
457.89	10748	
458.09	10039	
458.29	12198	
458.49	12766	
458.69	11000	
458.89	10654	
459.09	13046	
459.29	13056	
459.49	10659	
459.69	11314	
459.9	12426	
460.1	12438	
460.3	10342	
460.5	10348	
460.7	12607	
460.9	12218	
461.1	10104	
461.3	11409	
461.5	13332	
461.7	13011	
461.9	10984	
462.1	11123	
462.3	12773	
462.5	13262	
462.7	11040	
462.9	11321	
463.1	14223	
463.3	14276	
463.5	11511	
463.7	12476	
463.9	13351	
464.1	13738	
464.3	12085	
464.5	12068	
464.7	13955	
464.9	13938	
465.1	13210	
465.3	12481	
465.5	14263	
465.7	14391	
465.9	12909	
466.1	12329	
466.3	14509	
466.5	14080	
466.7	13620	
466.9	12470	
467.1	14363	
467.3	14989	
467.5	13775	
467.7	12843	
467.9	15527	
468.1	16081	
468.3	13347	
468.5	13975	
468.7	14650	
468.9	14554	
469.1	13230	
469.3	13882	
469.5	16406	
469.7	14495	
469.9	13349	
470.1	13147	
470.3	14863	
470.5	14878	
470.7	14129	
470.9	13047	
471.1	14657	
471.3	14535	
471.5	12923	
471.69	14357	
471.89	14286	
472.09	13886	
472.29	13611	
472.49	13601	
472.69	14189	
472.89	14745	
473.09	12783	
473.29	12669	
473.49	14175	
473.69	14087	
473.89	13368	
474.09	12827	
474.29	15153	
474.49	14927	
474.69	13579	
474.89	12898	
475.09	14216	
475.29	14167	
475.49	12455	
475.69	12678	
475.88	15330	
476.08	14492	
476.28	12341	
476.48	12454	
476.68	14567	
476.88	14392	
477.08	12336	
477.28	12690	
477.48	13873	
477.68	14347	
477.88	12249	
478.08	12556	
478.28	14947	
478.48	14098	
478.67	12721	
478.87	11822	
479.07	14870	
479.27	14165	
479.47	12788	
479.67	12778	
479.87	14491	
480.07	14992	
480.27	12176	
480.47	13443	
480.67	14190	
480.87	14988	
481.06	12490	
481.26	13258	
481.46	14457	
481.66	14106	
481.86	12837	
482.06	13575	
482.26	13995	
482.46	14782	
482.66	12709	
482.86	12441	
483.05	14457	
483.25	13760	
483.45	14777	
483.65	12937	
483.85	14137	
484.05	14424	
484.25	13235	
484.45	13827	
484.65	15073	
484.84	15256	
485.04	12792	
485.24	12881	
485.44	15507	
485.64	14085	
485.84	12557	
486.04	13638	
486.24	14591	
486.44	14757	
486.63	12570	
486.83	13338	
487.03	14593	
487.23	14868	
487.43	12837	
487.63	14682	
487.83	14962	
488.02	15735	
488.22	13844	
488.42	14186	
488.62	15582	
488.82	14788	
489.02	13310	
489.22	13631	
489.41	15565	
489.61	15459	
489.81	13312	
490.01	13337	
490.21	15588	
490.41	16100	
490.61	13377	
490.8	13482	
491	15286	
491.2	14583	
491.4	13567	
491.6	12981	
491.8	14935	
491.99	14820	
492.19	12692	
492.39	12973	
492.59	15321	
492.79	15504	
492.99	13997	
493.18	13397	
493.38	15881	
493.58	16711	
493.78	14160	
493.98	13909	
494.18	15913	
494.37	15685	
494.57	14830	
494.77	14691	
494.97	16591	
495.17	16706	
495.37	14743	
495.56	15010	
495.76	17236	
495.96	17065	
496.16	15735	
496.36	15137	
496.55	17304	
496.75	16827	
496.95	15543	
497.15	15195	
497.35	17040	
497.54	17208	
497.74	15044	
497.94	16545	
498.14	17861	
498.34	17649	
498.53	15201	
498.73	15587	
498.93	16928	
499.13	17252	
499.33	15748	
499.52	15945	
499.72	17730	
499.92	17811	
500.12	15644	
500.32	15779	
500.51	17817	
500.71	17772	
500.91	16511	
501.11	16172	
501.31	17721	
501.5	17955	
501.7	16840	
501.9	15761	
502.1	17608	
502.29	17879	
502.49	16382	
502.69	16546	
502.89	17748	
503.09	17619	
503.28	15140	
503.48	15352	
503.68	16921	
503.88	16882	
504.07	15945	
504.27	15574	
504.47	17159	
504.67	17092	
504.86	15885	
505.06	15513	
505.26	16749	
505.46	18041	
505.65	15421	
505.85	15497	
506.05	16436	
506.25	16821	
506.44	14582	
506.64	15229	
506.84	16237	
507.04	16922	
507.23	14646	
507.43	15092	
507.63	17789	
507.83	16520	
508.02	15152	
508.22	14756	
508.42	18016	
508.62	16268	
508.81	14906	
509.01	15437	
509.21	16047	
509.4	16251	
509.6	15117	
509.8	14685	
510	16298	
510.19	17537	
510.39	14608	
510.59	14829	
510.79	16311	
510.98	17477	
511.18	14803	
511.38	15099	
511.57	16941	
511.77	16709	
511.97	15317	
512.17	14558	
512.36	16735	
512.56	16470	
512.76	14576	
512.95	14131	
513.15	16938	
513.35	15593	
513.55	15313	
513.74	14511	
513.94	16864	
514.14	16335	
514.33	15412	
514.53	15228	
514.73	16354	
514.92	16437	
515.12	14767	
515.32	14691	
515.51	16690	
515.71	16923	
515.91	16004	
516.11	14859	
516.3	18159	
516.5	16511	
516.7	15351	
516.89	15758	
517.09	16348	
517.29	16498	
517.48	15444	
517.68	15036	
517.88	16149	
518.07	16805	
518.27	15474	
518.47	14539	
518.66	17066	
518.86	16152	
519.06	14470	
519.25	14930	
519.45	16376	
519.65	17725	
519.84	15407	
520.04	16213	
520.24	18051	
520.43	16930	
520.63	15020	
520.83	14822	
521.02	15978	
521.22	16439	
521.42	14969	
521.61	15537	
521.81	16204	
522.01	16297	
522.2	15115	
522.4	14768	
522.6	16930	
522.79	15970	
522.99	15033	
523.18	14729	
523.38	16994	
523.58	17135	
523.77	16653	
523.97	15168	
524.17	18978	
524.36	18403	
524.56	16565	
524.76	16156	
524.95	17670	
525.15	17400	
525.34	16124	
525.54	16345	
525.74	18222	
525.93	17507	
526.13	17344	
526.33	16522	
526.52	18701	
526.72	18314	
526.91	17514	
527.11	17093	
527.31	18744	
527.5	19317	
527.7	17204	
527.89	16552	
528.09	18378	
528.29	18877	
528.48	17709	
528.68	17286	
528.87	19043	
529.07	18896	
529.27	17148	
529.46	16823	
529.66	18768	
529.85	19150	
530.05	16823	
530.25	17326	
530.44	19933	
530.64	18566	
530.83	16802	
531.03	17251	
531.23	19203	
531.42	18764	
531.62	18131	
531.81	17311	
532.01	19710	
532.21	20062	
532.4	17780	
532.6	18177	
532.79	20664	
532.99	20192	
533.18	18392	
533.38	19138	
533.58	20054	
533.77	20336	
533.97	18551	
534.16	19237	
534.36	20966	
534.55	20138	
534.75	19400	
534.95	18921	
535.14	21065	
535.34	20248	
535.53	18458	
535.73	19882	
535.92	21241	
536.12	19922	
536.31	18247	
536.51	19275	
536.71	20324	
536.9	20016	
537.1	18215	
537.29	18591	
537.49	20651	
537.68	20019	
537.88	18901	
538.07	18228	
538.27	20224	
538.46	21127	
538.66	18312	
538.86	18847	
539.05	20338	
539.25	20619	
539.44	19212	
539.64	18529	
539.83	20243	
540.03	20831	
540.22	18446	
540.42	18192	
540.61	19907	
540.81	20348	
541	18547	
541.2	19303	
541.39	19540	
541.59	19953	
541.78	19189	
541.98	17949	
542.18	19385	
542.37	19386	
542.57	18369	
542.76	18811	
542.96	19193	
543.15	19572	
543.35	18027	
543.54	17502	
543.74	19536	
543.93	19379	
544.13	17800	
544.32	18577	
544.52	19477	
544.71	18920	
544.91	17094	
545.1	18051	
545.3	18924	
545.49	19469	
545.69	17066	
545.88	17544	
546.08	20360	
546.27	19638	
546.47	17706	
546.66	17040	
546.86	19485	
547.05	19787	
547.24	17299	
547.44	17313	
547.63	18439	
547.83	19554	
548.02	17650	
548.22	17663	
548.41	18389	
548.61	19196	
548.8	17077	
549	16860	
549.19	18790	
549.39	19082	
549.58	16668	
549.78	17097	
549.97	19026	
550.17	18471	
550.36	17543	
550.55	18372	
550.75	18255	
550.94	19127	
551.14	16621	
551.33	16804	
551.53	17876	
551.72	18643	
551.92	16862	
552.11	16733	
552.31	18639	
552.5	18536	
552.69	17909	
552.89	16309	
553.08	18568	
553.28	18251	
553.47	16519	
553.67	17447	
553.86	18824	
554.06	17550	
554.25	15859	
554.44	16315	
554.64	19424	
554.83	19095	
555.03	16336	
555.22	16425	
555.42	18415	
555.61	18071	
555.8	16144	
556	16439	
556.19	17540	
556.39	18314	
556.58	16267	
556.78	16257	
556.97	18157	
557.16	17791	
557.36	17329	
557.55	15986	
557.75	17146	
557.94	18658	
558.13	16071	
558.33	15926	
558.52	18441	
558.72	17370	
558.91	15779	
559.1	15909	
559.3	17121	
559.49	16836	
559.69	15537	
559.88	16198	
560.07	17752	
560.27	17959	
560.46	16294	
560.66	16319	
560.85	17472	
561.04	16692	
561.24	15556	
561.43	15388	
561.63	16931	
561.82	17107	
562.01	16726	
562.21	15864	
562.4	17525	
562.59	18334	
562.79	15833	
562.98	15607	
563.18	17643	
563.37	18716	
563.56	16256	
563.76	15709	
563.95	17217	
564.14	17187	
564.34	15971	
564.53	15616	
564.73	17548	
564.92	17954	
565.11	16176	
565.31	15806	
565.5	18158	
565.69	17153	
565.89	15874	
566.08	16036	
566.27	18000	
566.47	18389	
566.66	16747	
566.85	15691	
567.05	17862	
567.24	17406	
567.44	15886	
567.63	16898	
567.82	17954	
568.02	17701	
568.21	15829	
568.4	16077	
568.6	17651	
568.79	17641	
568.98	15892	
569.18	16098	
569.37	17742	
569.56	19523	
569.76	16371	
569.95	17236	
570.14	18089	
570.34	18078	
570.53	15896	
570.72	15984	
570.91	18544	
571.11	17906	
571.3	16213	
571.49	16982	
571.69	17864	
571.88	17394	
572.07	16789	
572.27	16621	
572.46	17350	
572.65	18274	
572.85	16142	
573.04	16239	
573.23	18501	
573.43	17802	
573.62	16081	
573.81	16494	
574	18127	
574.2	18071	
574.39	16623	
574.58	16675	
574.78	19133	
574.97	18357	
575.16	17275	
575.36	17189	
575.55	18845	
575.74	18772	
575.93	16368	
576.13	17383	
576.32	18178	
576.51	18799	
576.71	16684	
576.9	17777	
577.09	19042	
577.28	18460	
577.48	16944	
577.67	16414	
577.86	18297	
578.05	18664	
578.25	16985	
578.44	17025	
578.63	18518	
578.83	19463	
579.02	16373	
579.21	17859	
579.4	18568	
579.6	18353	
579.79	16929	
579.98	18882	
580.17	18732	
580.37	19082	
580.56	16479	
580.75	17256	
580.94	19349	
581.14	19112	
581.33	17733	
581.52	16628	
581.71	18863	
581.91	19414	
582.1	16480	
582.29	16981	
582.48	18533	
582.68	18514	
582.87	17223	
583.06	16982	
583.25	18749	
583.45	18285	
583.64	17647	
583.83	18346	
584.02	18496	
584.21	18757	
584.41	17400	
584.6	17109	
584.79	18523	
584.98	19217	
585.18	16596	
585.37	16559	
585.56	18279	
585.75	18847	
585.94	16607	
586.14	17167	
586.33	18972	
586.52	18300	
586.71	16971	
586.91	16648	
587.1	17553	
587.29	18328	
587.48	16214	
587.67	16234	
587.87	18127	
588.06	18145	
588.25	17224	
588.44	16632	
588.63	17823	
588.83	18181	
589.02	15933	
589.21	15925	
589.4	17344	
589.59	17060	
589.78	14807	
589.98	14814	
590.17	16059	
590.36	16573	
590.55	13893	
590.74	14303	
590.94	17231	
591.13	16011	
591.32	14343	
591.51	13842	
591.7	16638	
591.89	16139	
592.09	14167	
592.28	14602	
592.47	15598	
592.66	17221	
592.85	14190	
593.05	14384	
593.24	16133	
593.43	16778	
593.62	14572	
593.81	14927	
594	16304	
594.19	16425	
594.39	14390	
594.58	14320	
594.77	16398	
594.96	16721	
595.15	14249	
595.34	14629	
595.54	16227	
595.73	15430	
595.92	13595	
596.11	14272	
596.3	16415	
596.49	15421	
596.68	14171	
596.88	14510	
597.07	16187	
597.26	15298	
597.45	13735	
597.64	14780	
597.83	15532	
598.02	16064	
598.22	13812	
598.41	14384	
598.6	15793	
598.79	15232	
598.98	13700	
599.17	14528	
599.36	15739	
599.55	16697	
599.74	15412	
599.94	15173	
600.13	16106	
600.32	15292	
600.51	13477	
600.7	13647	
600.89	16679	
601.08	16557	
601.27	13437	
601.47	14211	
601.66	15933	
601.85	16495	
602.04	14031	
602.23	14032	
602.42	15174	
602.61	15721	
602.8	13635	
602.99	13528	
603.18	15373	
603.37	15526	
603.57	13923	
603.76	14500	
603.95	16081	
604.14	15694	
604.33	13745	
604.52	13798	
604.71	15609	
604.9	15158	
605.09	14238	
605.28	14136	
605.47	16038	
605.66	15575	
605.86	14046	
606.05	13506	
606.24	15915	
606.43	14596	
606.62	13784	
606.81	14356	
607	15654	
607.19	15255	
607.38	13160	
607.57	13390	
607.76	14926	
607.95	14432	
608.14	13823	
608.33	14102	
608.52	14860	
608.72	15584	
608.91	13213	
609.1	12859	
609.29	14800	
609.48	14295	
609.67	13721	
609.86	12914	
610.05	14450	
610.24	14601	
610.43	12716	
610.62	12415	
610.81	15569	
611	15455	
611.19	12736	
611.38	13243	
611.57	14861	
611.76	15823	
611.95	12621	
612.14	12435	
612.33	14704	
612.52	14360	
612.71	13111	
612.9	12433	
613.09	14073	
613.28	15980	
613.47	12973	
613.66	13532	
613.85	14850	
614.04	14357	
614.24	12828	
614.43	12052	
614.62	14799	
614.81	14631	
615	13200	
615.19	13394	
615.38	14278	
615.57	14571	
615.76	13135	
615.95	13972	
616.14	14957	
616.33	14560	
616.52	13326	
616.71	13537	
616.9	14805	
617.09	14783	
617.28	12801	
617.47	13809	
617.66	14182	
617.85	14199	
618.04	13842	
618.22	13175	
618.41	14773	
618.6	15462	
618.79	13374	
618.98	13188	
619.17	15661	
619.36	14315	
619.55	13420	
619.74	13277	
619.93	15096	
620.12	14689	
620.31	13968	
620.5	14093	
620.69	15846	
620.88	16169	
621.07	14430	
621.26	13873	
621.45	15533	
621.64	15474	
621.83	14078	
622.02	13470	
622.21	15552	
622.4	15384	
622.59	14646	
622.78	14414	
622.97	15108	
623.16	15988	
623.35	14094	
623.54	13409	
623.72	15373	
623.91	15374	
624.1	14288	
624.29	13287	
624.48	16361	
624.67	15631	
624.86	14205	
625.05	13477	
625.24	16438	
625.43	15055	
625.62	15570	
625.81	13671	
626	15795	
626.19	15418	
626.38	14367	
626.56	13837	
626.75	15401	
626.94	15899	
627.13	14331	
627.32	13324	
627.51	15748	
627.7	16587	
627.89	13097	
628.08	14209	
628.27	15083	
628.46	15290	
628.65	13568	
628.83	13248	
629.02	15701	
629.21	15059	
629.4	13874	
629.59	14090	
629.78	15145	
629.97	15766	
630.16	14021	
630.35	13607	
630.54	16221	
630.72	16028	
630.91	13737	
631.1	14061	
631.29	15556	
631.48	15552	
631.67	14097	
631.86	13661	
632.05	15247	
632.24	15377	
632.42	13354	
632.61	13970	
632.8	15177	
632.99	15008	
633.18	13949	
633.37	14102	
633.56	15375	
633.75	15271	
633.93	13779	
634.12	13749	
634.31	16041	
634.5	15791	
634.69	13659	
634.88	14083	
635.07	15182	
635.25	15702	
635.44	14260	
635.63	14467	
635.82	14984	
636.01	14474	
636.2	14199	
636.39	13948	
636.57	15955	
636.76	15469	
636.95	13511	
637.14	14436	
637.33	15368	
637.52	16126	
637.7	13094	
637.89	14005	
638.08	15096	
638.27	16043	
638.46	14022	
638.65	14150	
638.83	16013	
639.02	14713	
639.21	13631	
639.4	14087	
639.59	14948	
639.78	14599	
639.96	13094	
640.15	12970	
640.34	14802	
640.53	14898	
640.72	12764	
640.91	12893	
641.09	14138	
641.28	15091	
641.47	12945	
641.66	13474	
641.85	14735	
642.03	14770	
642.22	13153	
642.41	12801	
642.6	14169	
642.79	13631	
642.97	12484	
643.16	13258	
643.35	14076	
643.54	13852	
643.73	12479	
643.91	12945	
644.1	13497	
644.29	14246	
644.48	12459	
644.67	12394	
644.85	13510	
645.04	13863	
645.23	11883	
645.42	12153	
645.6	13364	
645.79	14199	
645.98	11826	
646.17	11092	
646.36	12899	
646.54	13396	
646.73	12250	
646.92	11384	
647.11	12692	
647.29	13664	
647.48	11281	
647.67	11082	
647.86	13784	
648.05	13886	
648.23	11499	
648.42	12412	
648.61	13178	
648.8	12882	
648.98	11040	
649.17	11435	
649.36	12540	
649.55	12255	
649.73	11110	
649.92	11753	
650.11	12620	
650.3	12839	
650.48	11145	
650.67	11019	
650.86	12890	
651.05	12047	
651.23	11004	
651.42	10937	
651.61	12474	
651.79	12301	
651.98	11192	
652.17	10832	
652.36	12696	
652.54	11997	
652.73	10822	
652.92	10617	
653.11	12643	
653.29	12739	
653.48	10141	
653.67	10890	
653.85	12359	
654.04	13256	
654.23	10891	
654.42	10522	
654.6	11673	
654.79	12144	
654.98	9807.7	
655.16	10105	
655.35	11037	
655.54	10817	
655.73	9662.3	
655.91	9503.9	
656.1	11703	
656.29	11029	
656.47	9450.7	
656.66	10783	
656.85	11380	
657.03	11370	
657.22	9994.8	
657.41	10049	
657.59	11628	
657.78	11348	
657.97	9756.5	
658.16	10443	
658.34	12149	
658.53	12314	
658.72	11078	
658.9	11500	
659.09	11789	
659.28	11721	
659.46	10210	
659.65	10099	
659.84	11479	
660.02	11947	
660.21	10134	
660.4	9994.1	
660.58	12318	
660.77	11678	
660.96	10551	
661.14	9699.2	
661.33	12728	
661.52	12478	
661.7	9616.6	
661.89	12472	
662.08	11342	
662.26	10870	
662.45	9827.5	
662.64	9850.7	
662.82	11804	
663.01	11146	
663.2	9847.3	
663.38	10303	
663.57	11736	
663.75	11617	
663.94	10022	
664.13	10967	
664.31	11222	
664.5	11737	
664.69	10355	
664.87	10621	
665.06	10964	
665.25	11544	
665.43	10922	
665.62	10939	
665.8	11650	
665.99	11191	
666.18	9976.3	
666.36	10027	
666.55	11659	
666.74	11568	
666.92	9602.2	
667.11	10882	
667.29	11172	
667.48	11540	
667.67	10583	
667.85	9833	
668.04	11088	
668.22	11191	
668.41	9844.6	
668.6	10006	
668.78	10954	
668.97	11071	
669.15	10172	
669.34	9389.3	
669.53	10993	
669.71	11310	
669.9	9505.3	
670.08	9947.7	
670.27	10890	
670.46	11342	
670.64	10120	
670.83	10345	
671.01	10712	
671.2	11249	
671.38	9495.1	
671.57	9406.3	
671.76	11868	
671.94	12181	
672.13	9287.5	
672.31	10109	
672.5	11613	
672.69	10901	
672.87	9485.5	
673.06	9676	
673.24	11287	
673.43	10910	
673.61	10090	
673.8	9672.6	
673.98	11319	
674.17	11505	
674.36	10195	
674.54	10042	
674.73	11139	
674.91	11363	
675.1	9706.7	
675.28	9428.8	
675.47	11019	
675.65	11404	
675.84	9554.5	
676.03	10055	
676.21	10892	
676.4	10416	
676.58	10274	
676.77	10029	
676.95	12007	
677.14	10691	
677.32	9311.4	
677.51	9164.7	
677.69	11435	
677.88	10664	
678.06	9353.1	
678.25	9383.1	
678.44	11011	
678.62	10710	
678.81	9151	
678.99	9908.8	
679.18	11583	
679.36	11275	
679.55	9628.9	
679.73	10169	
679.92	11245	
680.1	10740	
680.29	10677	
680.47	9552.4	
680.66	10705	
680.84	11413	
681.03	9084.1	
681.21	9955.2	
681.4	10916	
681.58	10723	
681.77	9292.3	
681.95	9160.6	
682.14	11383	
682.32	11707	
682.51	10086	
682.69	9015.2	
682.88	10649	
683.06	11052	
683.25	9818.6	
683.43	10162	
683.62	10983	
683.8	11202	
683.99	10229	
684.17	9575.6	
684.36	11873	
684.54	10634	
684.73	8686.8	
684.91	8860.9	
685.1	10601	
685.28	9977	
685.46	9056.8	
685.65	9005.6	
685.83	10583	
686.02	10071	
686.2	8571.4	
686.39	8792.6	
686.57	9967.5	
686.76	11086	
686.94	8744.8	
687.13	8996.7	
687.31	10577	
687.5	10372	
687.68	8503.8	
687.86	9556.5	
688.05	11783	
688.23	9972.9	
688.42	9587.2	
688.6	9046.6	
688.79	10404	
688.97	10460	
689.16	9504.6	
689.34	8598.1	
689.52	10998	
689.71	11230	
689.89	9736.7	
690.08	9181	
690.26	10898	
690.45	10685	
690.63	9695.1	
690.81	9323	
691	10557	
691.18	10624	
691.37	9314.2	
691.55	10999	
691.74	10404	
691.92	12070	
692.1	9274.6	
692.29	8944.2	
692.47	10563	
692.66	10006	
692.84	9095.7	
693.02	9501.2	
693.21	10216	
693.39	10542	
693.58	9747	
693.76	9341.5	
693.94	11727	
694.13	11531	
694.31	9509.4	
694.5	10291	
694.68	10696	
694.86	11088	
695.05	9943.6	
695.23	10097	
695.42	11455	
695.6	13332	
695.78	10391	
695.97	9572.2	
696.15	11772	
696.34	11013	
696.52	9571.5	
696.7	10129	
696.89	11309	
697.07	10731	
697.25	10016	
697.44	11154	
697.62	11327	
697.81	11437	
697.99	9772.9	
698.17	10138	
698.36	10701	
698.54	11228	
698.72	10090	
698.91	9362.6	
699.09	10839	
699.28	10800	
699.46	9775.6	
699.64	9704	
699.83	10692	
700.01	11576	
700.19	10363	
700.38	9099.8	
700.56	11703	
700.74	10877	
700.93	9502.6	
701.11	10187	
701.29	11466	
701.48	12357	
701.66	9833.7	
701.84	9936.1	
702.03	11211	
702.21	11932	
702.39	9545.6	
702.58	9971.6	
702.76	11634	
702.94	11768	
703.13	9575.6	
703.31	11499	
703.49	11103	
703.68	11941	
703.86	9693	
704.04	10613	
704.23	11447	
704.41	11885	
704.59	9941.5	
704.78	10828	
704.96	12568	
705.14	11826	
705.33	9746.3	
705.51	10312	
705.69	11426	
705.87	12196	
706.06	10642	
706.24	9808.4	
706.42	11782	
706.61	11996	
706.79	10687	
706.97	9766.8	
707.16	11333	
707.34	11686	
707.52	10564	
707.7	10043	
707.89	11456	
708.07	11152	
708.25	10624	
708.44	10781	
708.62	11271	
708.8	12209	
708.98	10829	
709.17	10016	
709.35	11598	
709.53	11664	
709.72	9731.9	
709.9	10150	
710.08	11826	
710.26	11861	
710.45	11041	
710.63	9966.8	
710.81	11486	
710.99	11473	
711.18	10435	
711.36	10002	
711.54	11282	
711.72	11788	
711.91	10045	
712.09	9494.4	
712.27	11336	
712.45	12003	
712.64	10020	
712.82	9297.1	
713	10667	
713.18	10793	
713.37	9195.4	
713.55	10019	
713.73	11386	
713.91	10046	
714.1	9154.4	
714.28	8555	
714.46	10441	
714.64	9648	
714.83	7576.8	
715.01	8208.9	
715.19	9316.2	
715.37	8738.7	
715.55	7656	
715.74	7854.6	
715.92	9912.9	
716.1	8256	
716.28	8724.3	
716.47	7870.3	
716.65	8804.2	
716.83	8855.4	
717.01	7684	
717.19	7735.2	
717.38	10549	
717.56	8506.6	
717.74	7975.5	
717.92	7289.4	
718.1	9600.9	
718.29	8924.4	
718.47	7260.7	
718.65	7846.5	
718.83	9927.2	
719.01	9839.1	
719.2	7498.3	
719.38	8467.7	
719.56	9848.7	
719.74	11126	
719.92	8219.9	
720.11	8869.1	
720.29	9836.4	
720.47	9052	
720.65	7507.2	
720.83	8079.2	
721.02	8989.9	
721.2	8800.1	
721.38	7933.8	
721.56	7337.9	
721.74	8312	
721.92	8385.1	
722.11	8183.7	
722.29	7975.5	
722.47	9338.7	
722.65	8705.9	
722.83	7260	
723.01	7873.8	
723.2	8618.5	
723.38	8948.3	
723.56	6797.9	
723.74	7757	
723.92	8335.9	
724.1	9237.7	
724.29	7238.2	
724.47	8121.6	
724.65	8524.3	
724.83	8234.2	
725.01	7053.2	
725.19	7733.8	
725.37	8293.6	
725.56	8340	
725.74	6864.1	
725.92	7135.1	
726.1	8310	
726.28	8617.2	
726.46	7359	
726.64	7089.4	
726.83	8538	
727.01	8688.8	
727.19	6882.5	
727.37	7520.8	
727.55	8628.8	
727.73	9042.5	
727.91	6860.7	
728.09	6740.5	
728.28	9024.7	
728.46	9317.6	
728.64	7687.4	
728.82	7595.9	
729	9953.8	
729.18	9417.9	
729.36	7083.9	
729.54	8886.8	
729.72	10389	
729.91	8948.9	
730.09	8773.5	
730.27	7875.1	
730.45	8957.8	
730.63	9536.7	
730.81	8346.2	
730.99	7625.3	
731.17	9981.8	
731.35	8771.5	
731.53	7950.2	
731.71	7629.4	
731.9	9688.9	
732.08	9771.5	
732.26	7872.4	
732.44	7561.1	
732.62	9768.1	
732.8	9476.6	
732.98	8189.8	
733.16	7288.7	
733.34	9258.9	
733.52	8311.3	
733.7	7610.3	
733.88	7821.9	
734.07	9106.6	
734.25	8946.2	
734.43	7274.4	
734.61	8427.4	
734.79	10114	
734.97	8763.3	
735.15	7351.5	
735.33	7580.9	
735.51	9065	
735.69	8809	
735.87	8380.3	
736.05	7606.8	
736.23	8887.5	
736.41	8674.5	
736.59	7555	
736.77	7643.7	
736.95	9326.4	
737.13	8739.4	
737.32	7178.8	
737.5	7468.9	
737.68	9692.4	
737.86	8620.6	
738.04	7073.7	
738.22	8461.5	
738.4	8399.4	
738.58	8622.6	
738.76	7471	
738.94	6596.5	
739.12	8471.1	
739.3	8513.4	
739.48	7966.6	
739.66	7740	
739.84	8770.8	
740.02	8684.8	
740.2	6681.2	
740.38	6937.2	
740.56	8936	
740.74	8035.5	
740.92	7404.1	
741.1	7293.5	
741.28	8394.6	
741.46	8273.8	
741.64	7055.3	
741.82	7376.1	
742	8403.5	
742.18	8290.9	
742.36	7152.2	
742.54	6638.8	
742.72	8845.9	
742.9	7783.6	
743.08	7322.9	
743.26	6303.6	
743.44	8862.9	
743.62	8698.4	
743.8	7365.9	
743.98	6682.5	
744.16	8411.7	
744.34	8195.3	
744.52	7208.8	
744.7	7243	
744.88	8543.4	
745.06	8088.1	
745.24	7180.9	
745.42	7241.6	
745.6	8504.5	
745.78	8243.8	
745.96	6193.1	
746.14	6333.7	
746.32	9025.4	
746.5	8284.7	
746.68	6872.3	
746.86	6361	
747.03	8624.7	
747.21	7305.8	
747.39	6697.5	
747.57	6338.5	
747.75	7914	
747.93	8298.4	
748.11	6292.7	
748.29	6195.1	
748.47	9215.2	
748.65	7628.7	
748.83	6796.5	
749.01	6603.3	
749.19	8086.1	
749.37	7311.9	
749.55	6522.1	
749.73	6463.4	
749.91	7709.9	
750.09	7502.4	
750.26	6614.3	
750.44	6061.3	
750.62	7793.2	
750.8	7639.6	
750.98	5885.2	
751.16	6196.5	
751.34	7838.3	
751.52	7253.2	
751.7	6759.7	
751.88	5810.8	
752.06	8098.4	
752.24	7829.4	
752.42	5814.2	
752.59	6099.5	
752.77	7605.5	
752.95	8708	
753.13	6690.7	
753.31	6156.9	
753.49	7348.1	
753.67	7669.6	
753.85	6283.9	
754.03	5950.7	
754.21	7817.8	
754.38	8094.9	
754.56	5868.1	
754.74	5133.6	
754.92	6935.8	
755.1	7389.1	
755.28	4969.1	
755.46	4897.4	
755.64	7763.8	
755.82	7722.9	
755.99	4642.1	
756.17	4642.1	
756.35	5307	
756.53	6462.7	
756.71	3525.2	
756.89	4314.4	
757.07	6075.6	
757.25	5398.4	
757.42	4851	
757.6	5583.4	
757.78	6407.4	
757.96	5637.4	
758.14	4753.3	
758.32	4427	
758.5	5315.2	
758.67	6011.5	
758.85	4588.8	
759.03	4683	
759.21	6024.4	
759.39	5670.8	
759.57	4231.8	
759.75	5117.9	
759.92	6672.3	
760.1	6135.7	
760.28	5513.1	
760.46	5758.9	
760.64	5979.4	
760.82	5842.2	
760.99	5306.3	
761.17	4843.4	
761.35	6766.5	
761.53	5951.4	
761.71	5106.3	
761.89	5636.7	
762.06	6668.9	
762.24	6352.1	
762.42	5207.3	
762.6	4945.8	
762.78	6326.2	
762.96	6892.1	
763.13	5511.8	
763.31	5255.8	
763.49	6930.3	
763.67	6337.1	
763.85	5918.6	
764.02	6417.7	
764.2	7316	
764.38	6512.5	
764.56	5165	
764.74	5864.7	
764.91	7254.6	
765.09	6376	
765.27	4881	
765.45	4696.7	
765.63	7322.9	
765.8	7145.4	
765.98	4446.1	
766.16	4704.9	
766.34	5936.4	
766.52	5762.3	
766.69	5477	
766.87	4493.2	
767.05	6294.1	
767.23	6875	
767.41	4788.8	
767.58	4947.9	
767.76	6606.7	
767.94	6727.6	
768.12	4882.4	
768.29	5382.7	
768.47	6179.4	
768.65	6810.9	
768.83	4419.5	
769	5369.1	
769.18	5853.8	
769.36	6324.1	
769.54	5363.6	
769.72	4504.2	
769.89	6630	
770.07	6681.2	
770.25	4655	
770.43	5654.4	
770.6	7146	
770.78	7416.4	
770.96	4823	
771.14	5253.7	
771.31	6483.9	
771.49	5920	
771.67	4024.3	
771.85	4332.1	
772.02	5299.5	
772.2	5835.3	
772.38	4856.4	
772.55	4359.4	
772.73	6129.6	
772.91	5837.4	
773.09	4661.9	
773.26	4726	
773.44	6062.7	
773.62	5743.2	
773.8	4254.3	
773.97	4024.3	
774.15	5983.5	
774.33	5663.3	
774.5	4100.7	
774.68	4394.9	
774.86	5805.3	
775.04	5659.9	
775.21	4104.8	
775.39	4091.2	
775.57	5900.9	
775.74	6195.8	
775.92	3971.7	
776.1	3840.6	
776.27	5859.9	
776.45	6772.6	
776.63	4121.9	
776.81	3690.4	
776.98	5498.8	
777.16	6331.6	
777.34	4154	
777.51	4375.1	
777.69	5431.9	
777.87	5295.4	
778.04	4195.6	
778.22	4670.7	
778.4	5266.7	
778.57	5786.9	
778.75	3536.8	
778.93	3794.9	
779.1	5141.1	
779.28	4934.2	
779.46	3515.7	
779.64	3981.3	
779.81	5935.7	
779.99	6560.3	
780.17	4485.7	
780.34	4577.9	
780.52	5536.3	
780.69	5551.4	
780.87	4145.1	
781.05	3839.3	
781.22	5496.7	
781.4	5502.2	
781.58	3904.1	
781.75	3209.8	
781.93	5478.3	
782.11	4968.4	
782.28	4601.8	
782.46	3878.2	
782.64	4813.4	
782.81	5617.6	
782.99	3885	
783.17	3868.6	
783.34	5468.1	
783.52	4883.7	
783.69	4031.8	
783.87	4740.4	
784.05	4992.3	
784.22	4912.4	
784.4	4646.2	
784.58	4013.3	
784.75	5696.8	
784.93	4934.2	
785.1	3779.2	
785.28	4259.8	
785.46	5404.6	
785.63	4814.8	
785.81	3775.1	
785.99	3601	
786.16	5021.6	
786.34	5324	
786.51	3654.3	
786.69	4009.2	
786.87	4644.8	
787.04	5063.3	
787.22	3496.6	
787.39	4343.1	
787.57	4759.5	
787.75	5737.7	
787.92	4420.9	
788.1	4303.5	
788.27	4829.8	
788.45	4605.2	
788.63	4231.1	
788.8	3095.2	
788.98	5130.2	
789.15	4535.6	
789.33	3283.6	
789.5	3681.6	
789.68	5550.7	
789.86	5601.2	
790.03	4060.4	
790.21	3549.8	
790.38	5582.1	
790.56	4915.8	
790.73	3479.5	
790.91	3519.8	
791.09	4823	
791.26	5389.6	
791.44	3690.4	
791.61	3257	
791.79	4788.8	
791.96	4783.4	
792.14	3279.5	
792.32	2957.3	
792.49	4797	
792.67	4904.9	
792.84	3382.6	
793.02	3166.8	
793.19	5160.2	
793.37	5724.1	
793.54	2979.8	
793.72	3282.9	
793.89	5689.3	
794.07	4762.9	
794.25	3686.3	
794.42	3014.6	
794.6	5612.1	
794.77	5212.8	
794.95	4027.7	
795.12	3517.7	
795.3	4685.8	
795.47	5263.3	
795.65	3872.7	
795.82	3684.3	
796	4605.9	
796.17	6116.6	
796.35	3536.8	
796.52	4142.4	
796.7	5227.8	
796.87	5272.2	
797.05	3562.1	
797.22	4239.3	
797.4	5222.3	
797.57	6017.6	
797.75	3657.7	
797.92	3480.9	
798.1	5502.9	
798.27	4695.3	
798.45	3044	
798.62	3177.8	
798.8	4927.4	
798.97	5397.1	
799.15	3801.7	
799.32	3697.3	
799.5	4382.7	
799.67	5010.7	
799.85	3960.8	
800.02	2981.2	
800.2	4668	
800.37	4934.9	
800.55	4025.6	
800.72	3452.9	
800.9	5340.4	
801.07	5670.8	
801.25	4540.3	
801.42	3776.5	
801.6	5363.6	
801.77	5074.2	
801.95	3526.6	
802.12	3355.3	
802.29	5124	
802.47	5064.6	
802.64	3732.8	
802.82	2919	
802.99	4715.1	
803.17	5423	
803.34	3660.4	
803.52	3339.6	
803.69	5963	
803.87	4452.3	
804.04	3588.7	
804.21	3655.6	
804.39	5621.7	
804.56	4768.4	
804.74	3133.4	
804.91	3710.9	
805.09	4657.8	
805.26	4738.3	
805.44	3187.3	
805.61	3431.7	
805.78	5200.5	
805.96	5224.4	
806.13	3719.8	
806.31	3939.6	
806.48	4250.2	
806.66	4729.4	
806.83	3718.4	
807	3643.3	
807.18	4685.1	
807.35	4980	
807.53	3630.4	
807.7	2954.5	
807.87	5552	
808.05	4653.7	
808.22	3926	
808.4	2945	
808.57	4625.7	
808.74	4322.6	
808.92	3366.9	
809.09	4196.3	
809.27	4620.9	
809.44	5081.7	
809.61	2966.1	
809.79	3254.9	
809.96	5639.4	
810.14	5230.5	
810.31	2873.3	
810.48	3444	
810.66	4680.3	
810.83	5281.7	
811.01	3324.5	
811.18	3635.1	
811.35	5245.5	
811.53	4150.5	
811.7	3981.9	
811.87	3687	
812.05	4665.3	
812.22	4567	
812.39	3214.6	
812.57	3110.9	
812.74	4721.3	
812.92	5946.6	
813.09	3482.2	
813.26	3719.8	
813.44	5765.7	
813.61	4584	
813.78	2942.2	
813.96	3827.7	
814.13	4660.5	
814.3	4440.7	
814.48	4100.7	
814.65	3466.5	
814.82	5629.2	
815	4406.5	
815.17	3520.5	
815.34	4305.5	
815.52	4625.7	
815.69	4569.7	
815.87	3460.4	
816.04	3461.7	
816.21	4705.5	
816.38	4170.3	
816.56	3425.6	
816.73	3201	
816.9	5748.6	
817.08	5251	
817.25	3231.7	
817.42	3941.7	
817.6	4300.1	
817.77	4577.2	
817.94	3587.4	
818.12	3164.8	
818.29	4474.1	
818.46	6490	
818.64	3306.8	
818.81	3130	
818.98	4415.4	
819.16	6094.1	
819.33	3777.1	
819.5	3568.2	
819.67	4918.5	
819.85	5460.6	
820.02	3479.5	
820.19	3689.8	
820.37	4788.2	
820.54	4519.2	
820.71	3521.1	
820.88	4352.6	
821.06	4833.2	
821.23	4488.5	
821.4	3627.6	
821.58	3532.7	
821.75	5152.7	
821.92	4721.9	
822.09	2913.6	
822.27	3052.2	
822.44	4659.8	
822.61	4555.4	
822.79	2966.1	
822.96	5453.7	
823.13	5003.2	
823.3	4383.3	
823.48	3329.3	
823.65	3083.6	
823.82	5245.5	
823.99	4319.2	
824.17	4216.1	
824.34	3119.1	
824.51	5866.7	
824.68	4702.1	
824.86	3295.2	
825.03	3592.8	
825.2	4642.7	
825.37	5530.2	
825.55	3244.7	
825.72	3470.6	
825.89	5959.6	
826.06	5545.2	
826.24	3482.2	
826.41	3474	
826.58	5564.3	
826.75	4874.2	
826.92	2826.9	
827.1	3074	
827.27	7351.5	
827.44	5881.8	
827.61	3266.5	
827.79	3946.4	
827.96	4455	
828.13	4676.2	
828.3	3433.8	
828.47	2930	
828.65	4932.9	
828.82	4807.9	
828.99	4261.1	
829.16	3706.1	
829.34	5208	
829.51	5000.5	
829.68	3486.3	
829.85	3515	
830.02	5472.2	
830.2	5229.8	
830.37	2795.5	
830.54	4190.1	
830.71	5811.5	
830.88	4627	
831.05	2792.7	
831.23	3209.2	
831.4	5572.5	
831.57	6106.4	
831.74	3299.3	
831.91	2970.2	
832.09	4921.3	
832.26	5190.9	
832.43	3364.1	
832.6	3745.7	
832.77	4894	
832.94	5483.8	
833.12	2747	
833.29	3300.6	
833.46	4945.2	
833.63	6352.1	
833.8	3682.9	
833.97	3317.7	
834.15	5267.4	
834.32	4979.3	
834.49	3465.2	
834.66	3598.3	
834.83	5328.1	
835	4504.8	
835.17	3272	
835.35	3302.7	
835.52	5108.3	
835.69	4945.2	
835.86	3386.7	
836.03	2899.9	
836.2	5148.6	
836.37	4836.6	
836.55	3338.2	
836.72	3130.7	
836.89	4825.7	
837.06	5236.7	
837.23	3432.4	
837.4	3681.6	
837.57	5843.5	
837.75	6322.8	
837.92	3087.7	
838.09	3296.5	
838.26	4820.9	
838.43	5350.7	
838.6	3506.1	
838.77	3178.4	
838.94	6004.6	
839.11	5838.8	
839.29	3336.8	
839.46	2706.7	
839.63	5193.6	
839.8	4956.8	
839.97	3289.7	
840.14	3304.7	
840.31	5008.6	
840.48	5144.5	
840.65	2760	
840.82	3278.1	
841	5085.8	
841.17	5012.1	
841.34	3024.2	
841.51	3071.3	
841.68	5110.4	
841.85	4916.5	
842.02	3104	
842.19	2632.3	
842.36	5009.3	
842.53	4900.1	
842.7	3024.8	
842.87	3657.7	
843.05	6228.6	
843.22	4856.4	
843.39	2887.6	
843.56	3142.9	
843.73	4701.5	
843.9	5188.9	
844.07	4756.1	
844.24	4023.6	
844.41	7114.6	
844.58	4499.4	
844.75	2942.9	
844.92	3138.9	
845.09	5126.1	
845.26	5142.4	
845.43	3033	
845.6	3188.7	
845.77	5129.5	
845.94	4903.5	
846.12	3319.1	
846.29	3478.1	
846.46	5383.4	
846.63	5074.9	
846.8	2981.8	
846.97	3536.2	
847.14	5563.6	
847.31	5062.6	
847.48	3347.1	
847.65	3676.8	
847.82	5355.4	
847.99	5366.4	
848.16	3945.1	
848.33	3608.5	
848.5	4734.9	
848.67	5500.8	
848.84	2974.3	
849.01	3138.2	
849.18	4719.2	
849.35	4447.5	
849.52	3710.2	
849.69	2995.5	
849.86	5311.7	
850.03	5395.7	
850.2	3003	
850.37	3659.7	
850.54	5370.5	
850.71	4827.1	
850.88	3532.1	
851.05	2932	
851.22	5010	
851.39	5558.2	
851.56	2874	
851.73	3415.3	
851.9	4543.1	
852.07	5235.3	
852.24	3362.1	
852.41	2976.4	
852.58	5052.3	
852.75	4610	
852.92	3334.1	
853.09	2924.5	
853.26	4807.3	
853.43	5431.9	
853.6	2966.1	
853.77	2598.9	
853.94	5537.7	
854.11	4515.1	
854.28	4337.6	
854.44	3197.6	
854.61	5915.9	
854.78	5418.9	
854.95	2969.6	
855.12	3689.1	
855.29	4189.5	
855.46	5760.3	
855.63	2973.7	
855.8	4053.6	
855.97	4745.8	
856.14	5388.2	
856.31	4143.7	
856.48	3261	
856.65	4767.7	
856.82	4526	
856.99	2921.8	
857.16	3248.1	
857.33	6051.7	
857.49	4831.2	
857.66	3233.7	
857.83	3468.6	
858	4846.9	
858.17	4973.2	
858.34	2823.5	
858.51	3016.7	
858.68	5638.1	
858.85	5620.3	
859.02	3510.9	
859.19	3598.3	
859.36	4556	
859.52	4614.1	
859.69	3012.6	
859.86	3515.7	
860.03	4612	
860.2	5568.4	
860.37	2750.4	
860.54	3020.8	
860.71	5287.9	
860.88	5611.4	
861.05	3323.9	
861.21	3796.9	
861.38	5629.9	
861.55	4408.6	
861.72	2777.7	
861.89	3317	
862.06	5296.7	
862.23	5707	
862.4	2923.1	
862.56	3104	
862.73	5216.2	
862.9	4978.6	
863.07	3468.6	
863.24	2715.6	
863.41	4494.6	
863.58	4558.1	
863.75	3039.9	
863.91	3412.6	
864.08	5536.3	
864.25	5246.9	
864.42	3674.7	
864.59	4082.3	
864.76	5847	
864.93	4556	
865.09	2920.4	
865.26	3149.8	
865.43	5505.6	
865.6	5850.4	
865.77	2633	
865.94	2979.8	
866.1	5479.7	
866.27	5227.1	
866.44	4379.2	
866.61	2817.3	
866.78	4919.2	
866.95	5198.4	
867.11	2878.8	
867.28	2728.6	
867.45	5378.6	
867.62	4631.8	
867.79	3448.1	
867.96	2977.1	
868.12	4511.7	
868.29	5269.4	
868.46	3014.6	
868.63	3926.6	
868.8	5465.3	
868.97	5213.4	
869.13	3144.3	
869.3	3060.3	
869.47	5136.3	
869.64	5339.7	
869.81	3006.4	
869.97	2988	
870.14	5096	
870.31	5628.5	
870.48	2904.7	
870.65	3743	
870.81	4840.7	
870.98	4860.5	
871.15	3350.5	
871.32	3078.8	
871.48	5152.7	
871.65	5658.5	
871.82	2923.1	
871.99	3266.5	
872.16	5911.1	
872.32	5533.6	
872.49	3038.5	
872.66	3016	
872.83	5281	
872.99	4678.9	
873.16	3386.7	
873.33	2981.8	
873.5	4996.4	
873.67	5007.3	
873.83	3139.5	
874	3903.4	
874.17	5145.2	
874.34	5864	
874.5	3799.7	
874.67	3633.1	
874.84	5566.4	
875.01	4409.3	
875.17	4141.7	
875.34	2995.5	
875.51	5001.1	
875.68	5951.4	
875.84	3549.8	
876.01	4253.6	
876.18	5244.2	
876.34	5253	
876.51	3029.6	
876.68	2978.4	
876.85	4796.3	
877.01	5489.9	
877.18	4080.2	
877.35	2987.3	
877.52	4955.4	
877.68	4484.4	
877.85	2951.1	
878.02	2934.1	
878.18	4847.5	
878.35	4671.4	
878.52	2432.3	
878.69	3330.7	
878.85	5345.2	
879.02	5217.5	
879.19	4158.1	
879.35	3186.6	
879.52	5235.3	
879.69	5409.4	
879.86	2600.9	
880.02	3364.8	
880.19	4916.5	
880.36	5866.7	
880.52	3328.6	
880.69	3559.4	
880.86	5289.9	
881.02	5354.8	
881.19	3231	
881.36	3159.3	
881.52	5223.7	
881.69	4638	
881.86	3155.2	
882.02	3177.1	
882.19	5422.3	
882.36	6284.5	
882.52	3022.8	
882.69	4112.3	
882.86	5041.4	
883.02	4992.9	
883.19	3550.5	
883.36	3398.3	
883.52	5281	
883.69	5963	
883.86	3011.9	
884.02	2721.1	
884.19	5259.2	
884.36	4968.4	
884.52	3276.1	
884.69	3167.5	
884.86	4728.1	
885.02	5769.1	
885.19	3294.5	
885.36	3401.7	
885.52	4919.9	
885.69	5041.4	
885.86	4182.6	
886.02	3796.9	
886.19	5269.4	
886.35	4810.7	
886.52	3340.2	
886.69	4093.2	
886.85	4577.2	
887.02	5512.4	
887.19	5512.4	
887.35	5512.4	
887.52	5512.4	
887.68	5512.4	
887.85	5512.4	
888.02	5512.4	
888.18	5512.4	
888.35	5512.4	
888.51	5512.4	
888.68	5512.4	
888.85	5512.4	
889.01	5512.4	
889.18	5512.4	
889.35	5512.4	
889.51	5512.4	
889.68	5512.4	
889.84	5512.4	
890.01	5512.4	
890.17	5512.4	
890.34	5512.4	
890.51	5512.4	
890.67	5512.4	
890.84	5512.4	
891	5512.4	
891.17	5512.4	
891.34	5512.4	
891.5	5512.4	
891.67	5512.4	
891.83	5512.4	
892	5512.4	
892.16	5512.4	
892.33	5512.4	
892.5	5512.4	
892.66	5512.4	
892.83	5512.4	
892.99	5512.4	
893.16	5512.4	
893.32	5512.4	
893.49	5512.4	
893.65	5512.4	
893.82	5512.4	
893.99	5512.4	
894.15	5512.4	
894.32	5512.4	
894.48	5512.4	
894.65	5512.4	
894.81	5512.4	
894.98	5512.4	
895.14	5512.4	
895.31	5512.4	
895.47	5512.4	
895.64	5512.4	
895.81	5512.4	
895.97	5512.4	
896.14	5512.4	
896.3	5512.4	
896.47	5512.4	
896.63	5512.4	
896.8	5512.4	
896.96	5512.4	
897.13	5512.4	
897.29	5512.4	
897.46	5512.4	
897.62	5512.4	
897.79	5512.4	
897.95	5512.4	
898.12	5512.4	
898.28	5512.4	
898.45	5512.4	
898.61	5512.4	
898.78	5512.4	
898.94	5512.4	
899.11	5512.4	
899.27	5512.4	
899.44	5512.4	
899.6	5512.4	
899.77	5512.4	
899.93	5512.4	
900.1	5512.4	
900.26	5512.4	
900.43	5512.4	
900.59	5512.4	
900.76	5512.4	
900.92	5512.4	
901.09	5512.4	
901.25	5512.4	
901.42	5512.4	
901.58	5512.4	
901.75	5512.4	
901.91	5512.4	
902.07	5512.4	
902.24	5512.4	
902.4	5512.4	
902.57	5512.4	
902.73	5512.4	
902.9	5512.4	
903.06	5512.4	
903.23	5512.4	
903.39	5512.4	
903.56	5512.4	
903.72	5512.4	
903.88	5512.4	
904.05	5512.4	
904.21	5512.4	
904.38	5512.4	
904.54	5512.4	
904.71	5512.4	
904.87	5512.4	
905.03	5512.4	
905.2	5512.4	
905.36	5512.4	
905.53	5512.4	
905.69	5512.4	
905.86	5512.4	
906.02	5512.4	
906.18	5512.4	
906.35	5512.4	
906.51	5512.4	
906.68	5512.4	
906.84	5512.4	
907.01	5512.4	
907.17	5512.4	
907.33	5512.4	
907.5	5512.4	
907.66	5512.4	
907.83	5512.4	
907.99	5512.4	
908.15	5512.4	
908.32	5512.4	
908.48	5512.4	
908.65	5512.4	
908.81	5512.4	
908.97	5512.4	
909.14	5512.4	
909.3	5512.4	
909.47	5512.4	
909.63	5512.4	
909.79	5512.4	
909.96	5512.4	
910.12	5512.4	
910.28	5512.4	
910.45	5512.4	
910.61	5512.4	
910.78	5512.4	
910.94	5512.4	
911.1	5512.4	
911.27	5512.4	
911.43	5512.4	
911.59	5512.4	
911.76	5512.4	
911.92	5512.4	
912.08	5512.4	
912.25	5512.4	
912.41	5512.4	
912.57	5512.4	
912.74	5512.4	
912.9	5512.4	
913.07	5512.4	
913.23	5512.4	
913.39	5512.4	
913.56	5512.4	
913.72	5512.4	
913.88	5512.4	
914.05	5512.4	
914.21	5512.4	
914.37	5512.4	
914.54	5512.4	
914.7	5512.4	
914.86	5512.4	
915.03	5512.4	
915.19	5512.4	
