Wavelength	Intensities	
nm	a.u.	
179.22	1920	
179.44	1917.6	
179.65	1922.4	
179.86	1912.8	
180.08	1926.5	
180.29	5053.7	
180.51	3551.2	
180.72	5722.7	
180.94	6709.8	
181.15	3315	
181.37	3196.9	
181.58	5565	
181.79	5872.9	
182.01	3469.9	
182.22	3721.8	
182.44	5871.5	
182.65	4853	
182.87	4659.1	
183.08	4054.3	
183.29	6167.8	
183.51	5046.9	
183.72	3756.7	
183.94	5498.8	
184.15	5478.3	
184.37	5511.1	
184.58	3238.5	
184.79	4484.4	
185.01	5069.4	
185.22	5857.9	
185.44	4896	
185.65	3999	
185.86	5395.7	
186.08	4965	
186.29	3185.3	
186.51	3430.3	
186.72	5091.3	
186.94	6042.9	
187.15	4001.7	
187.36	4143	
187.58	7942	
187.79	5584.1	
188.01	4364.9	
188.22	6754.9	
188.43	6724.2	
188.65	5836.7	
188.86	3448.8	
189.08	4156	
189.29	5328.1	
189.5	5259.2	
189.72	3806.5	
189.93	3906.2	
190.15	6090	
190.36	7311.2	
190.57	4166.9	
190.79	4143	
191	6173.9	
191.22	6061.3	
191.43	4204.5	
191.64	3409.9	
191.86	6433.4	
192.07	6128.9	
192.29	3609.9	
192.5	3924.6	
192.71	6047.7	
192.93	5233.9	
193.14	3708.9	
193.35	3865.9	
193.57	5238	
193.78	6083.1	
194	3039.9	
194.21	3713.7	
194.42	5027.8	
194.64	5592.3	
194.85	4096.6	
195.07	4851.6	
195.28	5573.2	
195.49	4779.3	
195.71	5121.3	
195.92	3560.7	
196.13	5717.9	
196.35	5827.8	
196.56	5487.9	
196.78	4096.6	
196.99	7193.1	
197.2	6714.6	
197.42	4762.9	
197.63	4214	
197.84	4922	
198.06	5760.9	
198.27	3768.3	
198.48	5040.1	
198.7	5290.6	
198.91	5396.4	
199.13	4158.1	
199.34	4187.4	
199.55	5925.5	
199.77	4820.2	
199.98	3652.9	
200.19	4281.6	
200.41	5388.2	
200.62	5053	
200.83	4360.1	
201.05	4618.9	
201.26	5421	
201.47	5053.7	
201.69	3675.4	
201.9	3517	
202.11	5470.1	
202.33	6565.1	
202.54	3951.2	
202.76	4396.3	
202.97	5621	
203.18	5617.6	
203.4	4326.7	
203.61	4242	
203.82	5559.6	
204.04	5130.8	
204.25	4199	
204.46	4121.9	
204.68	5486.5	
204.89	5783.5	
205.1	4101.4	
205.32	3548.4	
205.53	5987.6	
205.74	6069.5	
205.96	3005.1	
206.17	4273.4	
206.38	5882.4	
206.6	6054.5	
206.81	4832.5	
207.02	3902.7	
207.24	5737.7	
207.45	6214.2	
207.66	3941	
207.88	3420.8	
208.09	5680.4	
208.3	5508.4	
208.52	3666.5	
208.73	4031.1	
208.94	5502.9	
209.15	6251.1	
209.37	3959.4	
209.58	4126.7	
209.79	6079.7	
210.01	5257.8	
210.22	3164.8	
210.43	3319.1	
210.65	5548.6	
210.86	5915.9	
211.07	3923.2	
211.29	3629.7	
211.5	5898.8	
211.71	5425.1	
211.93	3631	
212.14	3629	
212.35	5425.8	
212.56	5759.6	
212.78	4177.9	
212.99	3485	
213.2	6503.7	
213.42	5246.9	
213.63	3756	
213.84	4040	
214.06	4826.4	
214.27	5000.5	
214.48	4009.2	
214.69	4272.1	
214.91	6214.9	
215.12	6341.9	
215.33	4276.2	
215.55	4729.4	
215.76	6867.5	
215.97	5873.6	
216.18	4127.3	
216.4	4006.5	
216.61	5163.6	
216.82	6031.3	
217.04	3695.2	
217.25	3851.5	
217.46	6210.8	
217.67	5965.7	
217.89	3237.2	
218.1	3387.3	
218.31	5566.4	
218.53	5683.1	
218.74	3867.2	
218.95	3707.5	
219.16	5446.2	
219.38	6436.1	
219.59	3759.4	
219.8	4490.5	
220.01	7125.6	
220.23	5545.9	
220.44	4849.6	
220.65	3594.2	
220.87	5550	
221.08	6194.4	
221.29	3338.2	
221.5	4516.5	
221.72	7598.6	
221.93	5215.5	
222.14	4258.4	
222.35	4903.5	
222.57	5479	
222.78	5872.9	
222.99	3935.5	
223.2	4275.5	
223.42	5852.4	
223.63	5954.1	
223.84	3031	
224.05	3015.3	
224.27	7064.8	
224.48	6454.5	
224.69	4910.3	
224.9	4208.6	
225.12	5663.3	
225.33	5431.2	
225.54	3311.6	
225.75	3741	
225.97	5056.4	
226.18	5333.6	
226.39	4024.9	
226.6	3785.3	
226.82	5229.8	
227.03	5088.5	
227.24	4188.1	
227.45	3469.3	
227.67	5903.6	
227.88	6546.7	
228.09	4715.1	
228.3	4732.2	
228.52	5954.1	
228.73	5452.4	
228.94	3854.3	
229.15	3399.6	
229.36	5435.3	
229.58	5359.5	
229.79	3910.3	
230	4618.2	
230.21	6651.8	
230.43	5652.4	
230.64	4165.6	
230.85	4328.7	
231.06	5938.4	
231.28	5896.8	
231.49	3444	
231.7	4055	
231.91	5844.9	
232.12	5537.7	
232.34	3461.7	
232.55	4108.9	
232.76	6172.6	
232.97	5712.5	
233.18	3640.6	
233.4	4146.5	
233.61	5707.7	
233.82	5259.9	
234.03	3799	
234.25	3692.5	
234.46	7716.7	
234.67	5580.7	
234.88	4261.1	
235.09	3734.8	
235.31	5864	
235.52	5360.2	
235.73	4164.2	
235.94	3501.3	
236.15	5212.8	
236.37	6702.3	
236.58	3659.7	
236.79	4049.5	
237	5792.3	
237.21	4952.7	
237.43	4283.7	
237.64	3369.6	
237.85	10191	
238.06	5074.2	
238.27	4369.7	
238.48	3439.2	
238.7	5838.1	
238.91	5367	
239.12	3948.5	
239.33	4024.9	
239.54	5082.4	
239.76	5471.5	
239.97	3938.2	
240.18	4018.1	
240.39	6924.9	
240.6	5809.4	
240.82	4140.3	
241.03	3397.6	
241.24	5495.4	
241.45	6421.7	
241.66	3667.9	
241.87	4273.4	
242.09	6219	
242.3	6624.5	
242.51	4386.1	
242.72	4001.7	
242.93	6039.5	
243.14	5461.9	
243.36	4638.6	
243.57	4975.9	
243.78	6408.1	
243.99	5866.1	
244.2	4085	
244.41	3617.4	
244.63	5038.7	
244.84	5835.3	
245.05	4316.4	
245.26	4058.4	
245.47	5809.4	
245.68	6083.1	
245.9	5401.9	
246.11	4256.4	
246.32	5337	
246.53	5837.4	
246.74	6520.7	
246.95	3369.6	
247.16	4988.9	
247.38	5462.6	
247.59	3310.9	
247.8	3979.9	
248.01	5185.5	
248.22	5468.8	
248.43	3599.6	
248.64	3872	
248.86	4838.7	
249.07	5270.8	
249.28	3505.4	
249.49	4076.8	
249.7	6158.2	
249.91	6228.6	
250.12	3304.7	
250.34	3372.3	
250.55	5676.3	
250.76	5535.7	
250.97	4128.7	
251.18	4193.6	
251.39	6305.7	
251.6	5726.8	
251.81	4267.3	
252.03	4212.7	
252.24	5227.8	
252.45	6054.5	
252.66	3437.2	
252.87	4444.8	
253.08	5571.2	
253.29	7221.1	
253.5	3467.9	
253.72	4875.5	
253.93	5355.4	
254.14	6586.3	
254.35	3768.3	
254.56	3897.3	
254.77	5784.1	
254.98	5086.5	
255.19	3758.7	
255.41	4831.8	
255.62	5634.6	
255.83	6210.8	
256.04	4281.6	
256.25	4212	
256.46	6781.5	
256.67	5165	
256.88	4156	
257.09	4562.9	
257.31	5162.2	
257.52	5169.1	
257.73	5205.9	
257.94	3823.6	
258.15	5365	
258.36	5515.2	
258.57	4795	
258.78	2989.4	
258.99	6070.2	
259.2	5318.6	
259.41	3836.5	
259.63	3927.3	
259.84	6421.7	
260.05	6882.5	
260.26	5048.9	
260.47	3678.2	
260.68	6133	
260.89	5475.6	
261.1	4645.5	
261.31	3618.8	
261.52	6015.6	
261.73	6420.4	
261.95	4930.1	
262.16	4335.5	
262.37	6176	
262.58	6332.3	
262.79	4925.4	
263	3883.6	
263.21	5584.8	
263.42	5027.8	
263.63	3951.9	
263.84	3878.9	
264.05	6084.5	
264.26	6505.7	
264.47	4730.1	
264.69	4361.5	
264.9	6228.6	
265.11	5707	
265.32	3738.9	
265.53	3809.2	
265.74	5660.6	
265.95	4885.8	
266.16	4050.2	
266.37	4490.5	
266.58	5596.4	
266.79	5325.4	
267	3773	
267.21	3538.2	
267.42	5065.3	
267.63	5556.1	
267.84	4021.5	
268.06	3410.6	
268.27	6012.8	
268.48	6268.1	
268.69	3891.1	
268.9	4668.7	
269.11	6242.2	
269.32	4958.8	
269.53	3987.4	
269.74	3713	
269.95	5899.5	
270.16	4854.4	
270.37	3997	
270.58	4612.7	
270.79	5352.7	
271	6024.4	
271.21	4302.8	
271.42	3997.6	
271.63	5661.3	
271.84	5142.4	
272.05	3190.7	
272.26	3576.4	
272.47	5467.4	
272.68	5727.5	
272.89	3822.2	
273.11	4531.5	
273.32	5286.5	
273.53	6588.3	
273.74	4349.2	
273.95	4168.3	
274.16	6171.2	
274.37	5542.5	
274.58	4361.5	
274.79	3465.8	
275	5653.8	
275.21	6281.8	
275.42	5324.7	
275.63	4506.9	
275.84	5819	
276.05	7329	
276.26	4227.7	
276.47	4026.3	
276.68	5339.7	
276.89	6540.5	
277.1	4506.2	
277.31	3502	
277.52	5804.6	
277.73	5965.7	
277.94	3471.3	
278.15	3931.4	
278.36	5705	
278.57	5172.5	
278.78	3794.9	
278.99	4399	
279.2	5115.8	
279.41	5107.6	
279.62	5055.8	
279.83	3525.2	
280.04	6771.3	
280.25	5079	
280.46	5016.2	
280.67	4072.7	
280.88	5083.1	
281.09	6212.9	
281.3	4267.3	
281.51	5365.7	
281.72	5925.5	
281.93	6027.2	
282.14	3734.1	
282.35	4057	
282.56	6059.3	
282.77	6016.2	
282.98	3873.4	
283.19	4782	
283.4	7464.2	
283.61	5481.7	
283.82	3530	
284.03	4988.9	
284.24	5560.9	
284.45	6212.2	
284.66	4973.8	
284.87	4815.5	
285.08	6147.3	
285.29	6283.9	
285.5	3292.5	
285.71	3904.8	
285.92	6173.3	
286.12	6814.3	
286.33	4900.8	
286.54	3880.2	
286.75	6053.1	
286.96	5342.5	
287.17	3575.1	
287.38	4805.9	
287.59	5119.9	
287.8	5063.3	
288.01	3921.9	
288.22	4533.5	
288.43	6101.6	
288.64	5054.4	
288.85	4635.2	
289.06	4463.9	
289.27	5960.3	
289.48	6457.9	
289.69	4947.9	
289.9	4508.9	
290.11	6151.4	
290.32	5208	
290.53	4733.5	
290.74	4369	
290.94	6033.3	
291.15	6045.6	
291.36	3770.3	
291.57	4469.4	
291.78	5246.2	
291.99	4911	
292.2	3587.4	
292.41	4303.5	
292.62	6109.8	
292.83	5857.2	
293.04	5409.4	
293.25	3609.2	
293.46	5279	
293.67	6154.8	
293.88	3788.7	
294.09	3660.4	
294.29	5028.4	
294.5	5698.1	
294.71	3999	
294.92	3858.4	
295.13	5248.3	
295.34	6657.3	
295.55	3347.1	
295.76	3502	
295.97	5926.8	
296.18	6776.7	
296.39	3553.9	
296.6	3755.3	
296.81	5637.4	
297.01	5978	
297.22	3947.1	
297.43	3745.7	
297.64	5122	
297.85	5218.2	
298.06	3076.7	
298.27	3363.4	
298.48	5573.2	
298.69	5156.1	
298.9	4057	
299.11	3608.5	
299.31	5076.2	
299.52	5063.9	
299.73	4341	
299.94	4285	
300.15	5567.1	
300.36	5135.6	
300.57	4304.1	
300.78	4302.8	
300.99	5388.9	
301.2	5633.3	
301.4	3665.2	
301.61	4132.8	
301.82	5831.2	
302.03	6007.4	
302.24	4575.2	
302.45	3521.1	
302.66	5840.8	
302.87	6361.7	
303.08	3721.8	
303.29	5137.7	
303.49	5192.3	
303.7	5554.8	
303.91	3346.4	
304.12	4875.5	
304.33	5068.7	
304.54	5689.9	
304.75	3807.2	
304.96	3561.4	
305.16	5877.7	
305.37	6582.9	
305.58	3211.9	
305.79	3404.4	
306	5867.4	
306.21	4902.2	
306.42	3736.2	
306.63	5765.7	
306.83	5384.8	
307.04	6181.5	
307.25	4089.8	
307.46	4136.9	
307.67	4713.7	
307.88	6030.6	
308.09	3674.1	
308.29	3861.1	
308.5	5627.8	
308.71	6121.4	
308.92	4012.7	
309.13	3585.3	
309.34	5401.2	
309.55	5437.4	
309.75	4611.3	
309.96	4330.8	
310.17	5902.2	
310.38	5266	
310.59	4592.9	
310.8	3545	
311.01	5373.2	
311.21	5377.3	
311.42	3560.1	
311.63	3705.5	
311.84	5242.1	
312.05	5634	
312.26	4145.8	
312.46	4609.3	
312.67	5281	
312.88	5033.9	
313.09	3551.2	
313.3	3531.4	
313.51	6386.9	
313.71	6733.7	
313.92	3603.7	
314.13	3827.7	
314.34	5770.5	
314.55	5430.5	
314.76	4709	
314.96	4052.2	
315.17	5580	
315.38	6010.1	
315.59	3629	
315.8	3439.2	
316.01	6384.2	
316.21	6601.3	
316.42	3471.3	
316.63	3990.8	
316.84	5395	
317.05	6251.1	
317.26	4333.5	
317.46	3863.2	
317.67	5433.3	
317.88	5966.4	
318.09	4654.4	
318.3	3362.8	
318.5	5200.5	
318.71	5851.7	
318.92	5896.1	
319.13	4321.9	
319.34	6075.6	
319.54	6142.5	
319.75	3364.8	
319.96	3190.1	
320.17	5899.5	
320.38	6210.8	
320.58	3272	
320.79	3973.7	
321	6135	
321.21	6270.2	
321.42	4037.9	
321.62	3289	
321.83	5087.2	
322.04	5578.7	
322.25	3846.8	
322.46	3612.6	
322.66	5622.4	
322.87	5853.8	
323.08	4562.2	
323.29	3583.9	
323.5	6679.1	
323.7	5053.7	
323.91	4956.1	
324.12	4442.7	
324.33	5636	
324.53	5859.2	
324.74	4309.6	
324.95	4470	
325.16	4915.8	
325.37	5319.9	
325.57	3653.6	
325.78	3703.4	
325.99	5634.6	
326.2	4994.3	
326.4	5109	
326.61	3337.5	
326.82	5481	
327.03	5661.3	
327.24	5184.8	
327.44	4857.1	
327.65	5779.4	
327.86	4663.2	
328.07	4272.7	
328.27	3420.8	
328.48	6219.7	
328.69	5113.8	
328.9	5292.6	
329.1	3850.2	
329.31	5384.8	
329.52	6475	
329.73	3635.8	
329.93	4129.4	
330.14	5527.5	
330.35	5776	
330.56	6038.1	
330.76	4508.9	
330.97	5352.7	
331.18	5758.2	
331.39	4070	
331.59	3274	
331.8	6171.9	
332.01	6350.8	
332.22	3732.1	
332.42	4326.7	
332.63	5659.2	
332.84	5256.5	
333.05	4055	
333.25	3728.7	
333.46	5292.6	
333.67	5528.8	
333.88	3754.6	
334.08	4242.7	
334.29	7394.5	
334.5	6152.1	
334.7	3513.6	
334.91	5286.5	
335.12	5127.4	
335.33	5948	
335.53	3977.8	
335.74	5967.1	
335.95	5372.5	
336.16	5106.3	
336.36	4072.7	
336.57	4681.7	
336.78	4977.2	
336.98	6205.3	
337.19	5008.6	
337.4	3954.6	
337.61	6698.2	
337.81	5021.6	
338.02	3680.9	
338.23	4803.2	
338.43	6434	
338.64	5177.9	
338.85	3677.5	
339.05	4863.9	
339.26	6384.9	
339.47	4955.4	
339.68	3599	
339.88	5472.9	
340.09	5752.1	
340.3	6046.3	
340.5	4302.1	
340.71	3251.5	
340.92	5020.3	
341.13	6351.4	
341.33	3560.7	
341.54	4290.5	
341.75	5745.9	
341.95	5397.1	
342.16	4098.7	
342.37	4423.6	
342.57	5124	
342.78	5516.5	
342.99	4561.5	
343.19	3256.3	
343.4	5940.5	
343.61	5771.9	
343.81	3896.6	
344.02	3599.6	
344.23	5979.4	
344.43	6420.4	
344.64	4590.9	
344.85	4493.2	
345.06	5779.4	
345.26	6193.7	
345.47	4238.6	
345.68	4890.5	
345.88	4855.1	
346.09	6059.3	
346.3	4328.7	
346.5	3288.4	
346.71	5523.4	
346.92	5259.9	
347.12	3330	
347.33	4178.5	
347.54	6045.6	
347.74	6505	
347.95	4177.9	
348.16	3100.6	
348.36	5356.8	
348.57	5090.6	
348.78	4116.4	
348.98	4554	
349.19	5468.8	
349.39	4983.4	
349.6	3291.8	
349.81	3741	
350.01	5717.9	
350.22	5268.7	
350.43	3980.6	
350.63	4923.3	
350.84	5563	
351.05	5342.5	
351.25	3670.6	
351.46	3336.8	
351.67	6047.7	
351.87	5227.8	
352.08	3868.6	
352.29	4539.7	
352.49	6071.5	
352.7	5647.6	
352.9	3566.9	
353.11	4457.1	
353.32	6664.1	
353.52	5323.4	
353.73	3440.6	
353.94	4478.9	
354.14	5825.8	
354.35	5658.5	
354.55	3606.5	
354.76	4012	
354.97	5842.9	
355.17	5575.9	
355.38	3378.5	
355.59	4814.1	
355.79	5224.4	
356	5708.4	
356.2	4009.2	
356.41	3506.8	
356.62	4935.6	
356.82	5402.5	
357.03	4262.5	
357.24	3949.2	
357.44	5240.8	
357.65	5303.6	
357.85	5176.6	
358.06	4071.4	
358.27	4951.3	
358.47	5158.2	
358.68	3345.7	
358.88	4257.7	
359.09	5805.3	
359.3	6173.9	
359.5	5024.3	
359.71	4392.2	
359.91	6698.2	
360.12	5926.1	
360.33	4264.6	
360.53	4733.5	
360.74	5217.5	
360.94	5229.1	
361.15	4511.7	
361.36	3654.9	
361.56	6011.5	
361.77	5418.2	
361.97	4949.9	
362.18	3904.8	
362.38	6032	
362.59	5083.7	
362.8	3634.5	
363	3482.2	
363.21	4834.6	
363.41	5528.2	
363.62	4171.7	
363.83	5188.2	
364.03	5593	
364.24	6641.6	
364.44	5276.9	
364.65	5337.7	
364.85	5387.5	
365.06	5021.6	
365.27	3751.9	
365.47	3818.1	
365.68	6434.7	
365.88	5347.9	
366.09	4168.3	
366.29	3862.5	
366.5	5616.9	
366.71	6091.3	
366.91	5197.1	
367.12	4344.4	
367.32	6668.9	
367.53	5930.2	
367.73	4343.7	
367.94	5337.7	
368.14	5868.8	
368.35	6892.8	
368.56	4248.9	
368.76	3607.8	
368.97	5935.7	
369.17	7771.4	
369.38	3706.1	
369.58	4044.1	
369.79	4984.8	
369.99	6381.5	
370.2	5145.2	
370.4	4161.5	
370.61	5701.5	
370.82	6913.3	
371.02	4076.1	
371.23	3312.9	
371.43	4864.6	
371.64	6312.5	
371.84	4073.4	
372.05	5352.7	
372.25	7645.8	
372.46	6035.4	
372.66	4042.7	
372.87	3997.6	
373.07	6008.1	
373.28	7738.6	
373.48	5133.6	
373.69	4829.8	
373.9	5472.9	
374.1	5508.4	
374.31	5008	
374.51	4551.3	
374.72	6410.8	
374.92	5130.2	
375.13	5172.5	
375.33	4329.4	
375.54	5868.8	
375.74	5311.7	
375.95	4412	
376.15	5721.3	
376.36	5931.6	
376.56	5734.3	
376.77	4513.7	
376.97	4918.5	
377.18	7020.4	
377.38	5975.3	
377.59	5296.7	
377.79	3942.3	
378	5728.2	
378.2	6260	
378.41	4061.1	
378.61	3923.2	
378.82	6238.1	
379.02	5331.5	
379.23	4202.4	
379.43	5464.7	
379.64	6338.5	
379.84	5965.7	
380.05	4019.5	
380.25	3932.1	
380.46	6047	
380.66	5597.8	
380.87	5357.5	
381.07	5779.4	
381.28	6724.8	
381.48	6113.9	
381.69	4044.1	
381.89	4040	
382.1	4958.1	
382.3	6184.2	
382.51	5199.8	
382.71	6146.6	
382.91	6128.2	
383.12	6599.9	
383.32	4462.5	
383.53	4584	
383.73	5900.9	
383.94	5698.8	
384.14	4567	
384.35	3631	
384.55	5631.2	
384.76	6110.5	
384.96	4418.8	
385.17	4801.8	
385.37	6021	
385.58	5340.4	
385.78	4784.1	
385.98	3618.8	
386.19	5505.6	
386.39	5993.7	
386.6	4103.4	
386.8	4413.4	
387.01	6114.6	
387.21	6130.9	
387.42	4887.1	
387.62	5459.2	
387.83	5285.1	
388.03	6118.6	
388.23	4431.1	
388.44	5306.3	
388.64	5038.7	
388.85	5221.6	
389.05	4844.8	
389.26	5435.3	
389.46	7064.1	
389.67	6470.2	
389.87	4807.3	
390.07	4876.9	
390.28	5708.4	
390.48	5270.1	
390.69	4066.6	
390.89	4382.7	
391.1	5495.4	
391.3	6472.3	
391.5	5653.1	
391.71	6234.7	
391.91	6148.7	
392.12	7155.6	
392.32	5703.6	
392.53	4827.7	
392.73	5573.9	
392.93	5751.4	
393.14	4526	
393.34	5344.5	
393.55	6223.8	
393.75	5681.7	
393.95	4468.7	
394.16	4418.2	
394.36	5464.7	
394.57	6156.2	
394.77	3880.2	
394.98	4416.8	
395.18	5399.1	
395.38	5537	
395.59	5328.8	
395.79	4272.1	
396	5484.5	
396.2	6092	
396.4	5046.2	
396.61	5019.6	
396.81	6244.3	
397.02	5403.2	
397.22	5366.4	
397.42	5375.9	
397.63	6253.1	
397.83	5365.7	
398.04	4156	
398.24	4645.5	
398.44	6036.7	
398.65	5040.7	
398.85	4003.8	
399.05	4115.7	
399.26	5386.2	
399.46	7141.9	
399.67	4484.4	
399.87	4252.3	
400.07	5755.5	
400.28	6141.2	
400.48	4316.4	
400.69	5408.7	
400.89	6413.6	
401.09	6756.2	
401.3	4160.1	
401.5	5367	
401.7	7141.9	
401.91	7335.8	
402.11	4588.8	
402.32	4805.9	
402.52	6434	
402.72	6326.2	
402.93	5058.5	
403.13	3832.4	
403.33	7153.6	
403.54	5840.1	
403.74	4672.1	
403.94	5617.6	
404.15	5900.9	
404.35	7073.7	
404.56	4526	
404.76	6414.9	
404.96	6301.6	
405.17	6085.9	
405.37	6074.3	
405.57	4994.3	
405.78	6377.4	
405.98	5913.9	
406.18	4451.6	
406.39	5431.9	
406.59	6354.8	
406.79	5983.5	
407	4196.3	
407.2	4395.6	
407.4	6327.5	
407.61	6574	
407.81	4394.9	
408.01	6612.9	
408.22	5288.5	
408.42	7382.2	
408.62	5444.2	
408.83	4910.3	
409.03	5959.6	
409.23	5693.4	
409.44	5000.5	
409.64	5323.4	
409.84	6890.7	
410.05	6796.5	
410.25	5150.6	
410.45	4956.1	
410.66	6179.4	
410.86	8804.2	
411.06	5369.1	
411.27	5184.8	
411.47	8573.5	
411.67	6436.8	
411.88	5503.6	
412.08	5774.6	
412.28	7158.3	
412.49	7622.5	
412.69	5223.7	
412.89	5218.9	
413.09	7455.3	
413.3	7322.9	
413.5	5317.2	
413.7	4883	
413.91	6484.6	
414.11	7420.5	
414.31	5123.3	
414.52	5578.7	
414.72	7081.9	
414.92	6940.6	
415.12	5130.2	
415.33	5691.3	
415.53	7393.2	
415.73	7461.4	
415.94	6130.9	
416.14	5500.8	
416.34	6302.3	
416.55	6087.2	
416.75	6781.5	
416.95	6072.2	
417.15	7348.8	
417.36	8155.7	
417.56	6950.8	
417.76	5975.3	
417.97	7753.6	
418.17	7408.2	
418.37	5419.6	
418.57	5618.9	
418.78	7132.4	
418.98	6852.5	
419.18	6469.5	
419.38	6400.6	
419.59	6904.4	
419.79	6455.9	
419.99	5509	
420.2	5849	
420.4	7422.5	
420.6	7636.2	
420.8	5397.1	
421.01	5231.2	
421.21	7225.2	
421.41	7407.5	
421.61	5823.7	
421.82	5439.4	
422.02	6694.1	
422.22	7757.7	
422.42	6328.9	
422.63	5891.3	
422.83	6835.4	
423.03	8110	
423.23	5906.3	
423.44	4880.3	
423.64	6864.8	
423.84	6714.6	
424.04	5400.5	
424.25	5013.4	
424.45	7911.3	
424.65	7839.6	
424.85	4823.6	
425.06	5493.3	
425.26	7811	
425.46	6241.5	
425.66	5917.3	
425.87	5562.3	
426.07	7555.6	
426.27	7507.2	
426.47	5776.6	
426.67	5102.9	
426.88	7933.8	
427.08	7374.1	
427.28	5978	
427.48	5023	
427.69	6187.6	
427.89	6911.2	
428.09	5941.8	
428.29	5090.6	
428.5	7703.1	
428.7	7148.1	
428.9	4902.8	
429.1	5466.7	
429.3	7089.4	
429.51	7500.3	
429.71	5228.5	
429.91	6155.5	
430.11	7338.6	
430.31	7570	
430.52	5618.3	
430.72	5971.9	
430.92	7969.3	
431.12	7421.2	
431.32	5243.5	
431.53	5716.6	
431.73	6258.6	
431.93	8069	
432.13	5172.5	
432.33	5008	
432.54	6778.1	
432.74	7140.6	
432.94	4915.1	
433.14	6078.4	
433.34	7301.7	
433.55	6761	
433.75	5976.7	
433.95	7930.4	
434.15	7089.4	
434.35	6735.8	
434.56	5195	
434.76	4662.5	
434.96	7140.6	
435.16	7386.3	
435.36	4990.9	
435.56	6195.1	
435.77	6728.3	
435.97	6880.5	
436.17	6892.8	
436.37	6148	
436.57	6680.5	
436.78	6673.6	
436.98	8035.5	
437.18	6809.5	
437.38	7428	
437.58	6948.1	
437.78	6967.9	
437.99	5547.3	
438.19	7486	
438.39	8298.4	
438.59	5407.3	
438.79	4913.1	
438.99	8100.4	
439.2	6868.9	
439.4	5055.8	
439.6	4980	
439.8	7153.6	
440	8346.8	
440.2	6124.8	
440.4	6269.5	
440.61	7662.1	
440.81	8217.8	
441.01	5202.5	
441.21	6233.3	
441.41	8060.1	
441.61	7628	
441.81	6526.2	
442.02	7638.2	
442.22	8597.4	
442.42	7737.2	
442.62	5348.6	
442.82	5438	
443.02	8050.6	
443.22	7101	
443.43	5797.1	
443.63	5347.9	
443.83	6875	
444.03	7000	
444.23	6698.9	
444.43	6171.9	
444.63	7350.8	
444.83	8543.4	
445.04	5395	
445.24	6805.4	
445.44	7700.4	
445.64	7876.5	
445.84	6337.1	
446.04	6292.7	
446.24	7047.1	
446.44	8093.6	
446.65	5496.1	
446.85	5865.4	
447.05	7131.7	
447.25	7988.4	
447.45	5937.1	
447.65	5354.1	
447.85	7251.9	
448.05	7068.9	
448.25	6373.3	
448.46	6167.8	
448.66	7358.4	
448.86	7039.6	
449.06	5102.9	
449.26	6451.8	
449.46	7701.7	
449.66	6718.7	
449.86	5871.5	
450.06	5862	
450.26	6959	
450.47	7538.6	
450.67	6078.4	
450.87	6519.4	
451.07	7658.7	
451.27	7377.5	
451.47	5358.2	
451.67	6020.3	
451.87	7027.3	
452.07	8226	
452.27	5638.1	
452.47	5647.6	
452.67	7367.2	
452.88	7866.9	
453.08	4969.7	
453.28	7105.1	
453.48	8551	
453.68	7282.6	
453.88	5507.7	
454.08	5808.7	
454.28	7712.7	
454.48	7362.4	
454.68	6339.1	
454.88	6886	
455.08	7826	
455.28	7544	
455.48	5417.6	
455.68	6053.1	
455.89	8318.2	
456.09	8000	
456.29	5803.9	
456.49	5821	
456.69	8230.1	
456.89	7484.6	
457.09	6261.3	
457.29	6735.1	
457.49	7744.1	
457.69	7897.7	
457.89	6149.4	
458.09	5523.4	
458.29	7456.7	
458.49	8320.2	
458.69	6617.7	
458.89	6048.3	
459.09	8567.3	
459.29	8667	
459.49	6101.6	
459.69	7003.4	
459.9	8090.8	
460.1	7542.7	
460.3	6015.6	
460.5	5773.2	
460.7	8019.2	
460.9	7773.4	
461.1	5391.6	
461.3	6764.4	
461.5	8688.2	
461.7	8292.2	
461.9	5914.5	
462.1	6348	
462.3	7744.1	
462.5	8279.3	
462.7	6044.9	
462.9	6063.4	
463.1	9509.4	
463.3	9050	
463.5	6289.3	
463.7	7208.8	
463.9	7948.2	
464.1	8345.5	
464.3	6378.1	
464.5	6647	
464.7	8644.5	
464.9	8233.5	
465.1	8090.8	
465.3	6980.2	
465.5	9015.8	
465.7	8955.8	
465.9	7265.5	
466.1	7060.7	
466.3	8846.5	
466.5	8585.1	
466.7	8088.8	
466.9	6814.3	
467.1	8567.3	
467.3	9527.8	
467.5	7861.5	
467.7	6803.4	
467.9	9755.2	
468.1	10654	
468.3	7646.4	
468.5	8071.7	
468.7	8522.3	
468.9	8486.1	
469.1	7082.6	
469.3	7856	
469.5	10537	
469.7	8047.8	
469.9	7531.1	
470.1	6856.6	
470.3	8381	
470.5	8524.3	
470.7	8162.5	
470.9	6871.6	
471.1	8270.4	
471.3	8826.7	
471.5	6701.6	
471.69	8717.5	
471.89	8168	
472.09	7710.6	
472.29	7550.9	
472.49	7899.7	
472.69	7957	
472.89	8855.4	
473.09	6696.2	
473.29	6746.7	
473.49	8131.8	
473.69	8295	
473.89	7815.7	
474.09	6951.5	
474.29	9613.2	
474.49	9252.7	
474.69	7761.1	
474.89	7117.4	
475.09	8255.4	
475.29	8286.1	
475.49	6425.8	
475.69	6788.3	
475.88	9934	
476.08	8441.7	
476.28	6423.1	
476.48	6965.8	
476.68	9053.4	
476.88	8847.2	
477.08	6687.3	
477.28	7040.2	
477.48	8295.6	
477.68	9056.8	
477.88	6540.5	
478.08	6875.7	
478.28	9293.7	
478.48	8473.8	
478.67	6921.5	
478.87	6294.8	
479.07	9171.5	
479.27	8565.3	
479.47	7156.3	
479.67	7109.9	
479.87	9038.4	
480.07	9580.4	
480.27	6445	
480.47	8008.9	
480.67	8618.5	
480.87	9253.4	
481.06	6708.5	
481.26	7526.3	
481.46	8600.1	
481.66	8485.4	
481.86	7141.9	
482.06	8245.8	
482.26	8255.4	
482.46	9277.3	
482.66	7089.4	
482.86	6621.1	
483.05	8630.8	
483.25	7993.2	
483.45	9634.3	
483.65	7106.5	
483.85	8170	
484.05	8611	
484.25	7514	
484.45	8109.3	
484.65	9446.6	
484.84	9482.8	
485.04	6997.9	
485.24	7021.8	
485.44	9697.1	
485.64	7907.9	
485.84	6187.6	
486.04	7769.3	
486.24	8329.1	
486.44	8839	
486.63	6226.5	
486.83	7111.9	
487.03	8213.7	
487.23	8521.6	
487.43	6317.3	
487.63	8914.1	
487.83	8469.7	
488.02	9576.3	
488.22	7382.2	
488.42	8116.1	
488.62	9437	
488.82	8267	
489.02	7058.7	
489.22	7063.4	
489.41	9267.7	
489.61	8843.8	
489.81	6722.8	
490.01	6849.8	
490.21	9168.1	
490.41	9906	
490.61	6745.3	
490.8	6937.2	
491	8717.5	
491.2	7930.4	
491.4	7481.9	
491.6	6584.9	
491.8	8680	
491.99	8818.6	
492.19	6384.9	
492.39	6789	
492.59	9235.7	
492.79	9285.5	
492.99	7694.9	
493.18	6707.8	
493.38	9357.2	
493.58	10165	
493.78	7580.9	
493.98	7040.9	
494.18	9045.9	
494.37	8452.6	
494.57	7705.8	
494.77	7644.4	
494.97	9353.1	
495.17	9544.9	
495.37	7219.1	
495.56	7576.8	
495.76	9794.1	
495.96	9422	
496.16	8550.3	
496.36	7378.8	
496.55	9518.3	
496.75	9172.9	
496.95	8333.2	
497.15	7701	
497.35	9476.6	
497.54	9583.8	
497.74	7441.6	
497.94	9249.3	
498.14	10191	
498.34	10164	
498.53	7118.7	
498.73	7996.6	
498.93	8921.6	
499.13	9517.6	
499.33	7733.8	
499.52	8219.9	
499.72	9445.9	
499.92	9826.8	
500.12	7363.1	
500.32	7754.3	
500.51	9875.3	
500.71	9559.2	
500.91	8627.4	
501.11	8195.3	
501.31	9733.3	
501.5	10216	
501.7	8875.2	
501.9	7731.1	
502.1	9439.8	
502.29	9897.8	
502.49	8306.6	
502.69	8738.7	
502.89	9805.7	
503.09	9723.8	
503.28	7236.8	
503.48	7377.5	
503.68	8834.9	
503.88	8974.9	
504.07	8443.1	
504.27	7810.3	
504.47	9327.8	
504.67	9413.1	
504.86	8236.9	
505.06	7927.7	
505.26	8968.7	
505.46	10989	
505.65	7886.7	
505.85	8131.1	
506.05	8869.1	
506.25	9432.9	
506.44	7088	
506.64	8202.8	
506.84	8877.3	
507.04	9830.2	
507.23	7363.1	
507.43	7963.2	
507.63	10974	
507.83	9158.5	
508.02	7886.7	
508.22	7529	
508.42	11170	
508.62	8895.7	
508.81	7837.6	
509.01	8458.8	
509.21	8658.1	
509.4	9002.2	
509.6	8015.1	
509.8	7376.1	
510	9013.1	
510.19	10531	
510.39	7375.4	
510.59	7393.2	
510.79	8690.9	
510.98	10178	
511.18	7472.4	
511.38	7638.9	
511.57	9624.1	
511.77	9463	
511.97	8226	
512.17	7223.9	
512.36	9591.3	
512.56	9612.5	
512.76	7349.5	
512.95	7082.6	
513.15	9747.6	
513.35	8339.3	
513.55	8210.3	
513.74	7404.1	
513.94	9673.2	
514.14	9002.2	
514.33	8380.3	
514.53	7998.7	
514.73	9012.4	
514.92	9189.9	
515.12	7453.2	
515.32	7335.1	
515.51	9239.1	
515.71	9878	
515.91	9153.1	
516.11	7460.8	
516.3	11119	
516.5	8856.1	
516.7	7931.8	
516.89	8583	
517.09	9075.9	
517.29	8907.3	
517.48	8398	
517.68	7760.4	
517.88	8797.4	
518.07	9394	
518.27	8198	
518.47	7169.3	
518.66	9973.6	
518.86	8523	
519.06	7004.1	
519.25	7512.6	
519.45	8862.9	
519.65	10526	
519.84	8267.6	
520.04	8940.7	
520.24	10875	
520.43	9580.4	
520.63	7833.5	
520.83	7561.8	
521.02	8723	
521.22	9451.4	
521.42	8086.1	
521.61	8716.2	
521.81	9021.3	
522.01	9257.5	
522.2	8094.3	
522.4	7779.6	
522.6	9637.7	
522.79	8441.7	
522.99	7794.6	
523.18	7143.3	
523.38	9409.1	
523.58	9462.3	
523.77	9280.7	
523.97	7133.8	
524.17	11391	
524.36	10515	
524.56	8501.1	
524.76	8193.2	
524.95	9364.7	
525.15	9014.5	
525.34	7963.2	
525.54	7889.5	
525.74	9802.9	
525.93	8734.6	
526.13	9306	
526.33	7937.9	
526.52	10139	
526.72	9678.7	
526.91	9263.6	
527.11	8488.8	
527.31	10206	
527.5	10772	
527.7	8290.9	
527.89	7337.9	
528.09	9002.2	
528.29	9722.4	
528.48	8767.4	
528.68	8419.9	
528.87	10075	
529.07	10156	
529.27	8346.2	
529.46	7893.6	
529.66	9795.4	
529.85	10180	
530.05	7720.8	
530.25	8483.4	
530.44	11196	
530.64	9652.1	
530.83	8053.3	
531.03	8348.9	
531.23	10080	
531.42	9957.2	
531.62	9268.4	
531.81	8247.9	
532.01	10183	
532.21	10742	
532.4	8090.8	
532.6	8343.4	
532.79	11152	
532.99	10284	
533.18	8406.9	
533.38	9484.1	
533.58	9971.6	
533.77	10593	
533.97	8279.9	
534.16	9357.2	
534.36	10870	
534.55	9934.7	
534.75	9623.4	
534.95	8527.7	
535.14	10811	
535.34	9944.9	
535.53	8156.4	
535.73	10196	
535.92	11359	
536.12	10187	
536.31	8279.9	
536.51	9487.6	
536.71	10451	
536.9	9951.1	
537.1	8529.1	
537.29	8591.9	
537.49	10833	
537.68	9876	
537.88	9045.9	
538.07	8094.9	
538.27	10086	
538.46	11058	
538.66	8049.9	
538.86	8619.9	
539.05	10167	
539.25	10726	
539.44	8880	
539.64	8436.9	
539.83	10064	
540.03	11061	
540.22	8301.8	
540.42	8457.4	
540.61	10271	
540.81	10306	
541	8916.9	
541.2	9534	
541.39	9740.8	
541.59	10249	
541.78	9294.4	
541.98	8288.8	
542.18	9403.6	
542.37	9393.4	
542.57	8749.6	
542.76	9270.5	
542.96	9422.7	
543.15	10253	
543.35	8755.1	
543.54	7998	
543.74	10598	
543.93	10097	
544.13	8701.8	
544.32	9834.3	
544.52	10383	
544.71	9499.8	
544.91	7681.2	
545.1	9112.8	
545.3	9603.6	
545.49	10238	
545.69	7662.1	
545.88	8307.2	
546.08	11354	
546.27	10902	
546.47	8794.7	
546.66	7992.5	
546.86	10623	
547.05	11258	
547.24	8258.8	
547.44	8240.3	
547.63	9341.5	
547.83	10718	
548.02	8637	
548.22	8827.4	
548.41	9206.3	
548.61	10660	
548.8	8104.5	
549	7990.5	
549.19	9889	
549.39	10206	
549.58	7743.4	
549.78	8342.1	
549.97	10386	
550.17	9788.6	
550.36	9299.1	
550.55	10351	
550.75	9757.9	
550.94	10723	
551.14	8021.2	
551.33	8365.3	
551.53	9028.1	
551.72	10150	
551.92	8359.8	
552.11	8109.3	
552.31	10148	
552.5	10230	
552.69	9930.6	
552.89	7764.5	
553.08	10106	
553.28	9701.9	
553.47	8182.3	
553.67	9428.8	
553.86	10934	
554.06	8972.8	
554.25	7352.9	
554.44	7931.8	
554.64	11585	
554.83	11132	
555.03	7857.4	
555.22	8327.7	
555.42	10240	
555.61	9939.5	
555.8	8077.9	
556	8383.7	
556.19	9023.4	
556.39	10519	
556.58	8135.2	
556.78	8097.7	
556.97	9887.6	
557.16	9499.2	
557.36	9383.8	
557.55	7761.8	
557.75	8836.3	
557.94	10705	
558.13	7912	
558.33	7641	
558.52	10481	
558.72	9251.4	
558.91	7734.5	
559.1	7916.1	
559.3	8958.5	
559.49	8684.1	
559.69	7243	
559.88	8430.8	
560.07	9866.4	
560.27	10266	
560.46	8606.2	
560.66	8703.2	
560.85	9581.8	
561.04	8786.5	
561.24	7708.6	
561.43	7918.1	
561.63	8994	
561.82	9355.1	
562.01	9203.6	
562.21	8279.3	
562.4	9753.8	
562.59	10759	
562.79	7976.8	
562.98	7635.5	
563.18	9784.5	
563.37	11239	
563.56	8600.8	
563.76	7593.2	
563.95	9118.9	
564.14	8989.2	
564.34	7962.5	
564.53	7778.9	
564.73	9652.1	
564.92	10109	
565.11	8205.5	
565.31	7512.6	
565.5	10308	
565.69	9198.1	
565.89	7839.6	
566.08	8127	
566.27	10198	
566.47	10567	
566.66	8804.2	
566.85	7318.8	
567.05	9670.5	
567.24	9040.4	
567.44	7750.2	
567.63	9260.2	
567.82	9945.6	
568.02	9736.7	
568.21	7669.6	
568.4	8205.5	
568.6	9523.7	
568.79	9655.5	
568.98	7529	
569.18	7687.4	
569.37	9576.3	
569.56	11662	
569.76	8066.3	
569.95	9071.8	
570.14	9983.8	
570.34	9905.3	
570.53	7552.2	
570.72	7543.4	
570.91	10430	
571.11	9570.2	
571.3	8114.7	
571.49	9041.8	
571.69	9534.7	
571.88	9134.6	
572.07	8712.7	
572.27	8665	
572.46	9050.7	
572.65	10219	
572.85	7815.7	
573.04	8169.3	
573.23	10445	
573.43	9605.7	
573.62	7583.6	
573.81	8269	
574	9643.9	
574.2	9477.3	
574.39	7975.5	
574.58	8117.5	
574.78	10636	
574.97	9796.1	
575.16	8477.2	
575.36	8736.6	
575.55	10120	
575.74	10372	
575.93	7615	
576.13	8765.3	
576.32	9532.6	
576.51	10181	
576.71	8047.2	
576.9	9627.5	
577.09	10550	
577.28	9914.9	
577.48	8492.9	
577.67	7503.1	
577.86	9605.7	
578.05	10015	
578.25	8182.3	
578.44	8374.8	
578.63	9699.2	
578.83	11077	
579.02	7531.7	
579.21	9209.7	
579.4	9971.6	
579.6	9641.2	
579.79	8352.3	
579.98	10748	
580.17	10426	
580.37	10376	
580.56	7842.4	
580.75	8675.2	
580.94	10856	
581.14	10664	
581.33	9105.3	
581.52	7972.1	
581.71	10174	
581.91	10884	
582.1	7559.7	
582.29	8239.7	
582.48	9771.5	
582.68	9644.6	
582.87	8798.8	
583.06	8339.3	
583.25	10094	
583.45	9405.6	
583.64	9052	
583.83	9843.9	
584.02	9658.9	
584.21	10148	
584.41	8989.9	
584.6	8354.3	
584.79	9854.8	
584.98	10713	
585.18	7714.7	
585.37	7729.7	
585.56	9194.7	
585.75	10197	
585.94	8054	
586.14	8754.4	
586.33	10819	
586.52	9700.5	
586.71	8523.6	
586.91	8213.7	
587.1	9086.8	
587.29	10180	
587.48	8102.4	
587.67	7986.4	
587.87	10018	
588.06	10137	
588.25	9351.7	
588.44	8641.7	
588.63	9734.7	
588.83	10301	
589.02	8011	
589.21	7992.5	
589.4	9544.2	
589.59	9331.9	
589.78	7114.6	
589.98	7449.1	
590.17	8845.2	
590.36	9423.4	
590.55	6700.3	
590.74	7626.6	
590.94	10890	
591.13	9328.5	
591.32	7352.2	
591.51	6962.4	
591.7	9737.4	
591.89	9206.3	
592.09	7024.5	
592.28	7516	
592.47	8355	
592.66	10493	
592.85	7098.9	
593.05	7312.6	
593.24	9058.8	
593.43	9808.4	
593.62	7287.4	
593.81	7831.4	
594	9111.4	
594.19	9344.9	
594.39	7336.5	
594.58	7188.4	
594.77	9506	
594.96	10103	
595.15	7128.3	
595.34	7806.2	
595.54	9527.2	
595.73	8540	
595.92	6442.2	
596.11	7808.2	
596.3	10048	
596.49	8619.9	
596.68	7390.4	
596.88	8000	
597.07	9697.8	
597.26	8486.1	
597.45	6896.9	
597.64	8270.4	
597.83	8686.8	
598.02	9445.2	
598.22	7047.7	
598.41	7764.5	
598.6	9100.5	
598.79	8585.8	
598.98	7157	
599.17	8039.6	
599.36	9206.3	
599.55	10421	
599.74	9273.9	
599.94	8914.8	
600.13	9729.2	
600.32	8501.8	
600.51	6928.3	
600.7	6903.7	
600.89	10451	
601.08	10385	
601.27	6746	
601.47	7745.4	
601.66	9660.3	
601.85	10402	
602.04	7395.9	
602.23	7557.7	
602.42	8670.4	
602.61	9362.6	
602.8	7337.2	
602.99	7174	
603.18	9003.6	
603.37	9280	
603.57	7843	
603.76	8469	
603.95	10011	
604.14	9625.5	
604.33	7151.5	
604.52	7653.9	
604.71	9301.2	
604.9	8898.4	
605.09	8262.2	
605.28	8012.3	
605.47	9839.8	
605.66	9580.4	
605.86	7892.2	
606.05	7139.2	
606.24	9740.1	
606.43	8353	
606.62	7531.1	
606.81	8382.3	
607	9698.5	
607.19	8972.2	
607.38	6890	
607.57	7216.4	
607.76	8739.4	
607.95	8204.8	
608.14	7620.5	
608.33	8237.6	
608.52	8713.4	
608.72	9645.3	
608.91	6886	
609.1	6772.6	
609.29	8852	
609.48	8269	
609.67	7705.1	
609.86	6903	
610.05	8391.9	
610.24	8789.2	
610.43	6656.6	
610.62	6273.6	
610.81	9926.5	
611	9727.2	
611.19	6880.5	
611.38	7533.1	
611.57	9140.1	
611.76	10503	
611.95	6584.9	
612.14	6437.4	
612.33	8807.6	
612.52	8381.7	
612.71	7205.4	
612.9	6330.3	
613.09	7978.2	
613.28	10459	
613.47	6961.7	
613.66	7849.9	
613.85	8950.3	
614.04	8445.8	
614.24	6931	
614.43	6143.9	
614.62	9102.5	
614.81	9060.2	
615	7576.8	
615.19	7615.7	
615.38	8254	
615.57	8719.6	
615.76	7526.3	
615.95	8467	
616.14	9088.9	
616.33	8699.8	
616.52	7716.1	
616.71	7955	
616.9	9001.5	
617.09	8898.4	
617.28	7006.8	
617.47	8609	
617.66	8093.6	
617.85	8202.1	
618.04	8002.1	
618.22	7418.4	
618.41	8486.8	
618.6	9480.7	
618.79	7286	
618.98	7000	
619.17	9710.8	
619.36	7974.1	
619.55	7186.3	
619.74	7259.4	
619.93	9101.2	
620.12	8405.5	
620.31	7838.3	
620.5	8066.9	
620.69	9598.8	
620.88	10058	
621.07	8750.3	
621.26	7610.9	
621.45	9203.6	
621.64	9226.1	
621.83	7870.3	
622.02	6896.2	
622.21	9265	
622.4	8923	
622.59	8403.5	
622.78	8132.5	
622.97	8552.3	
623.16	9600.9	
623.35	7658.7	
623.54	6783.6	
623.72	8834.9	
623.91	8959.9	
624.1	7992.5	
624.29	6575.3	
624.48	10134	
624.67	9340.1	
624.86	7783	
625.05	6839.5	
625.24	10185	
625.43	8406.2	
625.62	9781.8	
625.81	7099.6	
626	9543.5	
626.19	8856.8	
626.38	7912.7	
626.56	7363.1	
626.75	8612.4	
626.94	9456.8	
627.13	7931.1	
627.32	6561	
627.51	9404.3	
627.7	10755	
627.89	6768.5	
628.08	7912.7	
628.27	8428.8	
628.46	8721.6	
628.65	7015	
628.83	6693.4	
629.02	9356.5	
629.21	8527.7	
629.4	7503.1	
629.59	7666.2	
629.78	8473.1	
629.97	9573.6	
630.16	7812.3	
630.35	7172.7	
630.54	9966.8	
630.72	9713.5	
630.91	7228	
631.1	7764.5	
631.29	9074.5	
631.48	9217.9	
631.67	7890.8	
631.86	7208.2	
632.05	8692.3	
632.24	8749.6	
632.42	6858.6	
632.61	7558.4	
632.8	8887.5	
632.99	8503.8	
633.18	7497.6	
633.37	7946.1	
633.56	9099.8	
633.75	8991.3	
633.93	7526.3	
634.12	7191.1	
634.31	9919	
634.5	9546.9	
634.69	7239.6	
634.88	7835.5	
635.07	8794.7	
635.25	9557.9	
635.44	8267	
635.63	8439.7	
635.82	8624.7	
636.01	8146.8	
636.2	8111.3	
636.39	7631.4	
636.57	9845.3	
636.76	9569.5	
636.95	6997.2	
637.14	8487.5	
637.33	9064.3	
637.52	10243	
637.7	6808.8	
637.89	7817.1	
638.08	8725	
638.27	10249	
638.46	7927	
638.65	8368	
638.83	10166	
639.02	8518.9	
639.21	7744.7	
639.4	8455.4	
639.59	9019.3	
639.78	8555	
639.96	7025.2	
640.15	7045.7	
640.34	8872.5	
640.53	9008.3	
640.72	6699.6	
640.91	7176.8	
641.09	8236.9	
641.28	9725.1	
641.47	7086	
641.66	7953.6	
641.85	8912.1	
642.03	9241.1	
642.22	7660.1	
642.41	7150.8	
642.6	8363.9	
642.79	7714.7	
642.97	6907.8	
643.16	7791.8	
643.35	8349.6	
643.54	8118.8	
643.73	6840.9	
643.91	7809.6	
644.1	8040.3	
644.29	8638.3	
644.48	6836.8	
644.67	6976.1	
644.85	8235.6	
645.04	8527.7	
645.23	6489.3	
645.42	6743.3	
645.6	8000.7	
645.79	9268.4	
645.98	6823.1	
646.17	5761.6	
646.36	7675.8	
646.54	8397.4	
646.73	7674.4	
646.92	6373.3	
647.11	7960.5	
647.29	9118.9	
647.48	6452.5	
647.67	6261.3	
647.86	9355.8	
648.05	9344.2	
648.23	6764.4	
648.42	8137.3	
648.61	8684.1	
648.8	8394.6	
648.98	6389	
649.17	6806.1	
649.36	7965.2	
649.55	7360.4	
649.73	6414.2	
649.92	7301.7	
650.11	7860.8	
650.3	8220.5	
650.48	6547.4	
650.67	6394.4	
650.86	8503.2	
651.05	7311.9	
651.23	6617.7	
651.42	6451.1	
651.61	7878.5	
651.79	8078.6	
651.98	6722.8	
652.17	6336.4	
652.36	8271.1	
652.54	7405.5	
652.73	6346	
652.92	6197.8	
653.11	8460.8	
653.29	8430.8	
653.48	5615.5	
653.67	6722.8	
653.85	8159.1	
654.04	9349.7	
654.23	6924.9	
654.42	6413.6	
654.6	7657.4	
654.79	8334.6	
654.98	5855.1	
655.16	6378.1	
655.35	7164.5	
655.54	7150.1	
655.73	5879.7	
655.91	5786.2	
656.1	8469	
656.29	7120.1	
656.47	5386.2	
656.66	7170.6	
656.85	7395.2	
657.03	7449.8	
657.22	6035.4	
657.41	6016.9	
657.59	7580.9	
657.78	7329	
657.97	5661.3	
658.16	6448.4	
658.34	8249.9	
658.53	8697.7	
658.72	7405.5	
658.9	7894.2	
659.09	7600.7	
659.28	7716.1	
659.46	6174.6	
659.65	6131.6	
659.84	7481.2	
660.02	7964.6	
660.21	5999.9	
660.4	5916.6	
660.58	8505.2	
660.77	7746.1	
660.96	6574	
661.14	5629.9	
661.33	9019.9	
661.52	8808.3	
661.7	5539.8	
661.89	9514.9	
662.08	7402.7	
662.26	6929.6	
662.45	5844.2	
662.64	5942.5	
662.82	8133.8	
663.01	7243.7	
663.2	6036.7	
663.38	6802	
663.57	7912	
663.75	7799.3	
663.94	6330.3	
664.13	7709.9	
664.31	7264.1	
664.5	8105.2	
664.69	6541.9	
664.87	7247.1	
665.06	6973.3	
665.25	7813	
665.43	7367.2	
665.62	7456	
665.8	8199.4	
665.99	7480.5	
666.18	6326.2	
666.36	6492.1	
666.55	8136.6	
666.74	8082.7	
666.92	5893.4	
667.11	7701.7	
667.29	7432.1	
667.48	8100.4	
667.67	7223.9	
667.85	6150.7	
668.04	7531.1	
668.22	7538.6	
668.41	6394.4	
668.6	6533	
668.78	7331.7	
668.97	7582.3	
669.15	6719.4	
669.34	5674.2	
669.53	7251.2	
669.71	7630	
669.9	5808.7	
670.08	6589.7	
670.27	7296.2	
670.46	7869	
670.64	6739.9	
670.83	7034.1	
671.01	7151.5	
671.2	7860.1	
671.38	5853.8	
671.57	5795.1	
671.76	8445.1	
671.94	9125.7	
672.13	5715.9	
672.31	6935.1	
672.5	7988.4	
672.69	7339.9	
672.87	5949.3	
673.06	6261.3	
673.24	7847.1	
673.43	7325.6	
673.61	6666.8	
673.8	6255.2	
673.98	8052.6	
674.17	8243.1	
674.36	6847	
674.54	6642.2	
674.73	7744.7	
674.91	7981.6	
675.1	6377.4	
675.28	5976.7	
675.47	7584.3	
675.65	8120.2	
675.84	6249	
676.03	6547.4	
676.21	7232.7	
676.4	6812.9	
676.58	7000	
676.77	6823.1	
676.95	8786.5	
677.14	7256.6	
677.32	5920.7	
677.51	5624.4	
677.69	8070.4	
677.88	6875.7	
678.06	5784.1	
678.25	5899.5	
678.44	7535.2	
678.62	7212.9	
678.81	5598.5	
678.99	6591	
679.18	8370.7	
679.36	7950.9	
679.55	6161.7	
679.73	6870.9	
679.92	7925	
680.1	7260.7	
680.29	7462.8	
680.47	6247.7	
680.66	7243	
680.84	8103.8	
681.03	5406.6	
681.21	6617.7	
681.4	7308.5	
681.58	7089.4	
681.77	5934.3	
681.95	5854.5	
682.14	8180.3	
682.32	8566	
682.51	6886	
682.69	5615.5	
682.88	7194.5	
683.06	7901.7	
683.25	6521.4	
683.43	7033.4	
683.62	7512.6	
683.8	7937.9	
683.99	7124.9	
684.17	6350.8	
684.36	8899.1	
684.54	7413	
684.73	5493.3	
684.91	5778	
685.1	7748.1	
685.28	7169.9	
685.46	6358.9	
685.65	6296.8	
685.83	7999.4	
686.02	7279.8	
686.2	5740.5	
686.39	5957.5	
686.57	6982.2	
686.76	8618.5	
686.94	5773.2	
687.13	5860.6	
687.31	7849.2	
687.5	7241.6	
687.68	5361.6	
687.86	6784.9	
688.05	9146.2	
688.23	6761.7	
688.42	6797.2	
688.6	5868.8	
688.79	7174	
688.97	7202.7	
689.16	6297.5	
689.34	5191.6	
689.52	8051.9	
689.71	8239.7	
689.89	6612.2	
690.08	5886.5	
690.26	7475.1	
690.45	7369.3	
690.63	6807.4	
690.81	5956.9	
691	7208.2	
691.18	7141.3	
691.37	6224.5	
691.55	8554.4	
691.74	7132.4	
691.92	9300.5	
692.1	6232.7	
692.29	5535.7	
692.47	7329.7	
692.66	6541.9	
692.84	5744.6	
693.02	6379.4	
693.21	6681.8	
693.39	7221.1	
693.58	6546	
693.76	5874.9	
693.94	8515.5	
694.13	8333.2	
694.31	5803.3	
694.5	6935.8	
694.68	7112.6	
694.86	7479.2	
695.05	6234.7	
695.23	6695.5	
695.42	7961.1	
695.6	10307	
695.78	6893.5	
695.97	6013.5	
696.15	7930.4	
696.34	7191.8	
696.52	5713.8	
696.7	6547.4	
696.89	7649.8	
697.07	7058	
697.25	6475	
697.44	8077.9	
697.62	7503.8	
697.81	8026.7	
697.99	6121.4	
698.17	6713.9	
698.36	6911.9	
698.54	7601.4	
698.72	6436.8	
698.91	5468.1	
699.09	7131.7	
699.28	7119.4	
699.46	6136.4	
699.64	6051.7	
699.83	7017.7	
700.01	8353	
700.19	6898.9	
700.38	5189.6	
700.56	8212.4	
700.74	7074.4	
700.93	5630.5	
701.11	6556.9	
701.29	7697.6	
701.48	8877.9	
701.66	5864	
701.84	5898.8	
702.03	7301	
702.21	7918.8	
702.39	5395	
702.58	6021	
702.76	7571.3	
702.94	7816.4	
703.13	5482.4	
703.31	8070.4	
703.49	6877.8	
703.68	7918.8	
703.86	5698.1	
704.04	6680.5	
704.23	7451.9	
704.41	7875.8	
704.59	5834.7	
704.78	7139.2	
704.96	8618.5	
705.14	7901.1	
705.33	5563	
705.51	6482.5	
705.69	7325.6	
705.87	8229.4	
706.06	6759.7	
706.24	5545.9	
706.42	7614.3	
706.61	8054.7	
706.79	6815	
706.97	5582.1	
707.16	7102.4	
707.34	7688.8	
707.52	6744.6	
707.7	5830.6	
707.89	7176.1	
708.07	6834.8	
708.25	6812.2	
708.44	6845	
708.62	7120.1	
708.8	8400.8	
708.98	7063.4	
709.17	5898.1	
709.35	7618.4	
709.53	7585.7	
709.72	5681.7	
709.9	6096.1	
710.08	7889.5	
710.26	7788.4	
710.45	7330.4	
710.63	6057.9	
710.81	7485.3	
710.99	7475.8	
711.18	6668.9	
711.36	6052.4	
711.54	7324.9	
711.72	8110.6	
711.91	6141.9	
712.09	5559.6	
712.27	7580.2	
712.45	8234.2	
712.64	6502.3	
712.82	5405.3	
713	6881.2	
713.18	7116.7	
713.37	5513.1	
713.55	6799.3	
713.73	8034.9	
713.91	6485.2	
714.1	5948	
714.28	5347.2	
714.46	7630	
714.64	6774.7	
714.83	4748.6	
715.01	5644.2	
715.19	6867.5	
715.37	6212.9	
715.55	5272.8	
715.74	5580	
715.92	7785.7	
716.1	5649	
716.28	6761.7	
716.47	5781.4	
716.65	6402	
716.83	6517.3	
717.01	5608.7	
717.19	5655.8	
717.38	8699.8	
717.56	6138.4	
717.74	5917.9	
717.92	4971.8	
718.1	7468.9	
718.29	6597.2	
718.47	4575.8	
718.65	5291.3	
718.83	7376.8	
719.01	7214.3	
719.2	4513.7	
719.38	5681.1	
719.56	6979.5	
719.74	8701.8	
719.92	5136.3	
720.11	6325.5	
720.29	7009.5	
720.47	6135	
720.65	4720.6	
720.83	5642.2	
721.02	6478.4	
721.2	6228.6	
721.38	5642.2	
721.56	4913.8	
721.74	5668.1	
721.92	5916.6	
722.11	6262.7	
722.29	5930.2	
722.47	7206.8	
722.65	6369.9	
722.83	4915.8	
723.01	5863.3	
723.2	6455.2	
723.38	6713.2	
723.56	4332.1	
723.74	5565.7	
723.92	5917.3	
724.1	7180.9	
724.29	4764.9	
724.47	6088.6	
724.65	5999.2	
724.83	5930.2	
725.01	4672.1	
725.19	5717.9	
725.37	5972.6	
725.56	6076.3	
725.74	4584	
725.92	4861.2	
726.1	5911.1	
726.28	6249	
726.46	5330.9	
726.64	5031.2	
726.83	6219	
727.01	6526.2	
727.19	4504.8	
727.37	5445.5	
727.55	6393.1	
727.73	6929.6	
727.91	4508.9	
728.09	4367.6	
728.28	6935.8	
728.46	7589.8	
728.64	5614.8	
728.82	5494.7	
729	8103.1	
729.18	7257.3	
729.36	4641.4	
729.54	7190.4	
729.72	8432.2	
729.91	6470.2	
730.09	6710.5	
730.27	5483.1	
730.45	6481.8	
730.63	7126.9	
730.81	6113.2	
730.99	5048.2	
731.17	7716.1	
731.35	6137.1	
731.53	5658.5	
731.71	5253	
731.9	7354.3	
732.08	7642.3	
732.26	5433.9	
732.44	5089.9	
732.62	7669.6	
732.8	7131.7	
732.98	5954.8	
733.16	4881	
733.34	7079.8	
733.52	5840.8	
733.7	5438.7	
733.88	5748.6	
734.07	6871.6	
734.25	6562.4	
734.43	4848.2	
734.61	6509.1	
734.79	8234.9	
734.97	6502.3	
735.15	4988.2	
735.33	5334.3	
735.51	6855.2	
735.69	6445.6	
735.87	6607.4	
736.05	5582.1	
736.23	6682.5	
736.41	6450.4	
736.59	5361.6	
736.77	5499.5	
736.95	7185	
737.13	6636.1	
737.32	5025	
737.5	5220.3	
737.68	7798	
737.86	6473.6	
738.04	4854.4	
738.22	6781.5	
738.4	6213.5	
738.58	6578.1	
738.76	5515.2	
738.94	4406.5	
739.12	6417	
739.3	6258.6	
739.48	6182.8	
739.66	5935.7	
739.84	6665.5	
740.02	6586.3	
740.2	4440.7	
740.38	4932.2	
740.56	7111.2	
740.74	5871.5	
740.92	5586.9	
741.1	5520.6	
741.28	6472.3	
741.46	6299.6	
741.64	5077.6	
741.82	5672.9	
742	6520.7	
742.18	6483.9	
742.36	5310.4	
742.54	4878.9	
742.72	7124.9	
742.9	5728.9	
743.08	5786.9	
743.26	4475.5	
743.44	7343.3	
743.62	7102.4	
743.8	5887.9	
743.98	4870.1	
744.16	6892.8	
744.34	6488	
744.52	5842.9	
744.7	5732.9	
744.88	6961	
745.06	6442.9	
745.24	5851.7	
745.42	6003.3	
745.6	7062.1	
745.78	6769.9	
745.96	4627	
746.14	4881	
746.32	7836.9	
746.5	7120.8	
746.68	5573.9	
746.86	4977.9	
747.03	7467.6	
747.21	5691.3	
747.39	5547.3	
747.57	4945.2	
747.75	6631.3	
747.93	7000.6	
748.11	4891.2	
748.29	4808.6	
748.47	8346.8	
748.65	6318.7	
748.83	5698.1	
749.01	5438	
749.19	6864.8	
749.37	5985.5	
749.55	5281	
749.73	5270.1	
749.91	6504.3	
750.09	6176.7	
750.26	5449.6	
750.44	4816.1	
750.62	6544.6	
750.8	6500.3	
750.98	4556	
751.16	5008	
751.34	6567.8	
751.52	5953.4	
751.7	5723.4	
751.88	4586.8	
752.06	7105.1	
752.24	6830.7	
752.42	4494.6	
752.59	4947.9	
752.77	6457.2	
752.95	7705.8	
753.13	5669.5	
753.31	5034.6	
753.49	6115.2	
753.67	6597.2	
753.85	5378.6	
754.03	4903.5	
754.21	6875.7	
754.38	7234.1	
754.56	5075.5	
754.74	4029.7	
754.92	6126.8	
755.1	6884.6	
755.28	4133.5	
755.46	4128.7	
755.64	7612.3	
755.82	7807.5	
755.99	4442	
756.17	4541	
756.35	5079	
756.53	6813.6	
756.71	3379.8	
756.89	4344.4	
757.07	6440.9	
757.25	5375.9	
757.42	4939.7	
757.6	5904.3	
757.78	6400.6	
757.96	5324.7	
758.14	4680.3	
758.32	4103.4	
758.5	4912.4	
758.67	5795.8	
758.85	4433.2	
759.03	4601.1	
759.21	5958.2	
759.39	5358.9	
759.57	3981.3	
759.75	5212.8	
759.92	6576.7	
760.1	5807.4	
760.28	5650.3	
760.46	5902.9	
760.64	5613.5	
760.82	5368.4	
760.99	5206.6	
761.17	4547.9	
761.35	6505.7	
761.53	5382.1	
761.71	4664.6	
761.89	5424.4	
762.06	6268.8	
762.24	5799.2	
762.42	4790.9	
762.6	4523.3	
762.78	5832.6	
762.96	6522.1	
763.13	5158.2	
763.31	4801.1	
763.49	6757.6	
763.67	5717.2	
763.85	5654.4	
764.02	6345.3	
764.2	6930.3	
764.38	6099.5	
764.56	4669.4	
764.74	5670.8	
764.91	7071	
765.09	5908.4	
765.27	4293.2	
765.45	4138.9	
765.63	7129.7	
765.8	7026.6	
765.98	3842.7	
766.16	4209.9	
766.34	5399.1	
766.52	5229.1	
766.69	5223	
766.87	4073.4	
767.05	5875.6	
767.23	6703	
767.41	4369	
767.58	4721.9	
767.76	6511.9	
767.94	6533.7	
768.12	4394.3	
768.29	5319.3	
768.47	5999.2	
768.65	6778.8	
768.83	4044.1	
769	5356.1	
769.18	5465.3	
769.36	6285.9	
769.54	5364.3	
769.72	4147.1	
769.89	6538.5	
770.07	6694.8	
770.25	4505.5	
770.43	5791.7	
770.6	7382.2	
770.78	7861.5	
770.96	4769	
771.14	4518.5	
771.31	6443.6	
771.49	5743.2	
771.67	3842.7	
771.85	4096.6	
772.02	4977.9	
772.2	5823.7	
772.38	4896	
772.55	4308.2	
772.73	6040.1	
772.91	5819.6	
773.09	4702.1	
773.26	4805.9	
773.44	6063.4	
773.62	5606.7	
773.8	4160.8	
773.97	3912.3	
774.15	6191.7	
774.33	5633.3	
774.5	4048.2	
774.68	4491.2	
774.86	6306.4	
775.04	5736.4	
775.21	4218.1	
775.39	4164.9	
775.57	5998.5	
775.74	6447	
775.92	4058.4	
776.1	3923.9	
776.27	6014.9	
776.45	7312.6	
776.63	4186.7	
776.81	3645.4	
776.98	5640.1	
777.16	6844.3	
777.34	4241.3	
777.51	4709.6	
777.69	5537	
777.87	5404.6	
778.04	4367	
778.22	5085.8	
778.4	5387.5	
778.57	6152.8	
778.75	3634.5	
778.93	3908.9	
779.1	5140.4	
779.28	5040.1	
779.46	3633.1	
779.64	4146.5	
779.81	6272.9	
779.99	7215	
780.17	4999.1	
780.34	5195.7	
780.52	5646.9	
780.69	5916.6	
780.87	4511.7	
781.05	4045.4	
781.22	5732.9	
781.4	5878.4	
781.58	4192.9	
781.75	3303.4	
781.93	5804.6	
782.11	5095.3	
782.28	5122.7	
782.46	4173.1	
782.64	4960.9	
782.81	5923.4	
782.99	4292.5	
783.17	4263.9	
783.34	5868.8	
783.52	4991.6	
783.69	4410.6	
783.87	5391.6	
784.05	5137.7	
784.22	5171.8	
784.4	5334.3	
784.58	4583.4	
784.75	6163	
784.93	5169.8	
785.1	4188.1	
785.28	4854.4	
785.46	5847.6	
785.63	5160.9	
785.81	4128.7	
785.99	3986.7	
786.16	5292.6	
786.34	5672.2	
786.51	4011.3	
786.69	4432.5	
786.87	4859.8	
787.04	5399.1	
787.22	3861.1	
787.39	4904.9	
787.57	5122	
787.75	6339.8	
787.92	5057.1	
788.1	5104.2	
788.27	5216.2	
788.45	4896	
788.63	4747.2	
788.8	3386.7	
788.98	5554.1	
789.15	4831.2	
789.33	3569.6	
789.5	4116.4	
789.68	6143.9	
789.86	6314.6	
790.03	4651.6	
790.21	4048.2	
790.38	6081.8	
790.56	5281.7	
790.73	3923.2	
790.91	4001	
791.09	5158.8	
791.26	6032.6	
791.44	4113.7	
791.61	3588.7	
791.79	5098.8	
791.96	5201.2	
792.14	3730.7	
792.32	3262.4	
792.49	5152.7	
792.67	5269.4	
792.84	3754.6	
793.02	3506.1	
793.19	5602.6	
793.37	6409.5	
793.54	3312.2	
793.72	3703.4	
793.89	6595.1	
794.07	5210.7	
794.25	4225.6	
794.42	3321.1	
794.6	6272.9	
794.77	5894.1	
794.95	4642.7	
795.12	4017.4	
795.3	5147.9	
795.47	5836	
795.65	4500.8	
795.82	4300.7	
796	4972.5	
796.17	7063.4	
796.35	4130.8	
796.52	4840.7	
796.7	5726.1	
796.87	5842.9	
797.05	5163.6	
797.22	5072.8	
797.4	5713.2	
797.57	6892.8	
797.75	4245.4	
797.92	3990.8	
798.1	6118	
798.27	5181.4	
798.45	3429	
798.62	3633.1	
798.8	5526.1	
798.97	6001.9	
799.15	4555.4	
799.32	4208.6	
799.5	4683	
799.67	5605.3	
799.85	4643.4	
800.02	3316.3	
800.2	5098.1	
800.37	5500.2	
800.55	4883.7	
800.72	4005.8	
800.9	5939.8	
801.07	6489.3	
801.25	5406.6	
801.42	4412	
801.6	5975.3	
801.77	5697.4	
801.95	4080.2	
802.12	3946.4	
802.29	5674.9	
802.47	5705.6	
802.64	4317.8	
802.82	3241.9	
802.99	5094.7	
803.17	6141.9	
803.34	4246.1	
803.52	3771.7	
803.69	6890.7	
803.87	4911.7	
804.04	4197.7	
804.21	4328.7	
804.39	6282.5	
804.56	5382.7	
804.74	3599	
804.91	4413.4	
805.09	5168.4	
805.26	5284.4	
805.44	3661.1	
805.61	4024.3	
805.78	5832.6	
805.96	5894.1	
806.13	4379.9	
806.31	4741.7	
806.48	4672.8	
806.66	5251	
806.83	4382	
807	4345.8	
807.18	5097.4	
807.35	5517.2	
807.53	4264.6	
807.7	3384.6	
807.87	6399.9	
808.05	5233.2	
808.22	4764.9	
808.4	3411.2	
808.57	5146.5	
808.74	4762.9	
808.92	3877.5	
809.09	4982	
809.27	5053.7	
809.44	5696.1	
809.61	3390.8	
809.79	3799	
809.96	6302.3	
810.14	6034	
810.31	3352.5	
810.48	4114.4	
810.66	5251.7	
810.83	6124.8	
811.01	3861.8	
811.18	4329.4	
811.35	5966.4	
811.53	4589.5	
811.7	4751.3	
811.87	4381.3	
812.05	5226.4	
812.22	5139.7	
812.39	3775.1	
812.57	3665.9	
812.74	5191.6	
812.92	7070.3	
813.09	4095.9	
813.26	4553.3	
813.44	6646.3	
813.61	5127.4	
813.78	3411.9	
813.96	4609.3	
814.13	5205.9	
814.3	4839.4	
814.48	4983.4	
814.65	4115.1	
814.82	6565.1	
815	4971.8	
815.17	4216.8	
815.34	5165	
815.52	5109.7	
815.69	5133.6	
815.87	4165.6	
816.04	3605.8	
816.21	5255.1	
816.38	4511	
816.56	4042.7	
816.73	3728	
816.9	6625.9	
817.08	6029.2	
817.25	3836.5	
817.42	4786.1	
817.6	4757.4	
817.77	5214.8	
817.94	4333.5	
818.12	3783.3	
818.29	4951.3	
818.46	7793.2	
818.64	3923.9	
818.81	3644.7	
818.98	4820.9	
819.16	7143.3	
819.33	4578.6	
819.5	4304.8	
819.67	5646.2	
819.85	6276.3	
820.02	4141.7	
820.19	4459.8	
820.37	5421	
820.54	4934.2	
820.71	4289.8	
820.88	5393	
821.06	5461.9	
821.23	4918.5	
821.4	4304.8	
821.58	4259.8	
821.75	5988.3	
821.92	5392.3	
822.09	3472	
822.27	3577.1	
822.44	5227.8	
822.61	5105.6	
822.79	3399.6	
822.96	6705.7	
823.13	5738.4	
823.3	4963.6	
823.48	4001.7	
823.65	3637.2	
823.82	5952.1	
823.99	4748.6	
824.17	5102.9	
824.34	3652.9	
824.51	6883.9	
824.68	5238	
824.86	3812	
825.03	4273.4	
825.2	5181.4	
825.37	6435.4	
825.55	3720.5	
825.72	4277.5	
825.89	7035.5	
826.06	6465.4	
826.24	4130.1	
826.41	4177.2	
826.58	6400.6	
826.75	5511.1	
826.92	3242.6	
827.1	3588	
827.27	8804.9	
827.44	7012.9	
827.61	3877.5	
827.79	4762.2	
827.96	4890.5	
828.13	5317.2	
828.3	4087.1	
828.47	3447.4	
828.65	5424.4	
828.82	5395	
828.99	5405.3	
829.16	4661.2	
829.34	5848.3	
829.51	5586.2	
829.68	4261.8	
829.85	4428.4	
830.02	6118	
830.2	5859.9	
830.37	3235.1	
830.54	5130.2	
830.71	6754.9	
830.88	5137.7	
831.05	3325.9	
831.23	3837.2	
831.4	6412.2	
831.57	7185	
831.74	3867.2	
831.91	3446	
832.09	5410.1	
832.26	5838.1	
832.43	4085	
832.6	4566.3	
832.77	5485.8	
832.94	6270.2	
833.12	3229	
833.29	4009.2	
833.46	5604.6	
833.63	7415.7	
833.8	4458.4	
833.97	4079.6	
834.15	5840.8	
834.32	5605.3	
834.49	4219.5	
834.66	4349.9	
834.83	6088.6	
835	4859.1	
835.17	3881.6	
835.35	3933.5	
835.52	5705	
835.69	5641.5	
835.86	4132.1	
836.03	3407.1	
836.2	5784.8	
836.37	5378.6	
836.55	4093.9	
836.72	3826.3	
836.89	5347.2	
837.06	5935.7	
837.23	4166.9	
837.4	4579.3	
837.57	6728.9	
837.75	7453.2	
837.92	3777.8	
838.09	3973.1	
838.26	5400.5	
838.43	6179.4	
838.6	4252.9	
838.77	3802.4	
838.94	7080.5	
839.11	6826.6	
839.29	4137.6	
839.46	3278.8	
839.63	5761.6	
839.8	5483.8	
839.97	3938.9	
840.14	3949.2	
840.31	5547.3	
840.48	5866.1	
840.65	3266.5	
840.82	4046.1	
841	5754.1	
841.17	5792.3	
841.34	3657.7	
841.51	3676.1	
841.68	5720	
841.85	5508.4	
842.02	3772.4	
842.19	3108.1	
842.36	5466.7	
842.53	5542.5	
842.7	3597.6	
842.87	4450.9	
843.05	7375.4	
843.22	5516.5	
843.39	3472	
843.56	3710.9	
843.73	5225.7	
843.9	5871.5	
844.07	5983.5	
844.24	4973.2	
844.41	8710	
844.58	4991.6	
844.75	3476.8	
844.92	3797.6	
845.09	5862	
845.26	5798.5	
845.43	3587.4	
845.6	3821.5	
845.77	5821.7	
845.94	5498.8	
846.12	4009.9	
846.29	4248.2	
846.46	5970.5	
846.63	5822.4	
846.8	3639.9	
846.97	4299.4	
847.14	6286.6	
847.31	5715.9	
847.48	4050.2	
847.65	4552.6	
847.82	6025.1	
847.99	6033.3	
848.16	4913.8	
848.33	4496	
848.5	5287.2	
848.67	6325.5	
848.84	3549.1	
849.01	3720.5	
849.18	5169.1	
849.35	4870.8	
849.52	4572.4	
849.69	3561.4	
849.86	6004	
850.03	6336.4	
850.2	3648.8	
850.37	4444.1	
850.54	6166.4	
850.71	5483.1	
850.88	4387.4	
851.05	3580.5	
851.22	5700.2	
851.39	6366.5	
851.56	3379.1	
851.73	4107.5	
851.9	5081.7	
852.07	6052.4	
852.24	4005.8	
852.41	3567.6	
852.58	5591.6	
852.75	5170.4	
852.92	4101.4	
853.09	3538.2	
853.26	5376.6	
853.43	6295.5	
853.6	3563.5	
853.77	3056.3	
853.94	6413.6	
854.11	5782.1	
854.28	5425.8	
854.44	3958.7	
854.61	6883.9	
854.78	6170.5	
854.95	3539.6	
855.12	4564.2	
855.29	4683.7	
855.46	6492.7	
855.63	3595.6	
855.8	4994.3	
855.97	5384.1	
856.14	6144.6	
856.31	5106.3	
856.48	3951.9	
856.65	5356.1	
856.82	5025	
856.99	3457	
857.16	3900.7	
857.33	7152.2	
857.49	5465.3	
857.66	3910.9	
857.83	4170.3	
858	5375.9	
858.17	5642.2	
858.34	3401.7	
858.51	3569.6	
858.68	6569.9	
858.85	6539.8	
859.02	4239.3	
859.19	4554	
859.36	5033.2	
859.52	5089.9	
859.69	3627	
859.86	4275.5	
860.03	5156.1	
860.2	6408.1	
860.37	3293.1	
860.54	3623.5	
860.71	6095.4	
860.88	6470.2	
861.05	4014	
861.21	4552	
861.38	6516	
861.55	4958.1	
861.72	3236.5	
861.89	4044.7	
862.06	6127.5	
862.23	6651.1	
862.4	3494.5	
862.56	3799.7	
862.73	5963	
862.9	5558.2	
863.07	4272.7	
863.24	3287.7	
863.41	4943.8	
863.58	5134.9	
863.75	3695.9	
863.91	4167.6	
864.08	6504.3	
864.25	6016.2	
864.42	4510.3	
864.59	5108.3	
864.76	6796.5	
864.93	5124	
865.09	3529.3	
865.26	3823.6	
865.43	6264.7	
865.6	6737.1	
865.77	3114.3	
865.94	3652.9	
866.1	6408.1	
866.27	6080.4	
866.44	5487.2	
866.61	3408.5	
866.78	5484.5	
866.95	5977.3	
867.11	3479.5	
867.28	3214.6	
867.45	6154.1	
867.62	5164.3	
867.79	4141	
867.96	3531.4	
868.12	5087.8	
868.29	6163.7	
868.46	3126.6	
868.63	4857.1	
868.8	6362.4	
868.97	5992.4	
869.13	3775.1	
869.3	3779.9	
869.47	5920.7	
869.64	6210.8	
869.81	3629.7	
869.97	3643.3	
870.14	5827.2	
870.31	6563.7	
870.48	3611.3	
870.65	4650.9	
870.81	5400.5	
870.98	5397.8	
871.15	4087.1	
871.32	3753.2	
871.48	5915.9	
871.65	6540.5	
871.82	3611.9	
871.99	3905.5	
872.16	7008.8	
872.32	6361	
872.49	3629	
872.66	3659	
872.83	6055.8	
872.99	5292	
873.16	4144.4	
873.33	3538.9	
873.5	5623.7	
873.67	5713.2	
873.83	3816	
874	4853	
874.17	5773.9	
874.34	7069.6	
874.5	4706.9	
874.67	4475.5	
874.84	6513.2	
875.01	5086.5	
875.17	5156.1	
875.34	3603.7	
875.51	5773.2	
875.68	6939.2	
875.84	4394.9	
876.01	5345.2	
876.18	6010.8	
876.34	5972.6	
876.51	3671.3	
876.68	3553.2	
876.85	5481	
877.01	6326.2	
877.18	5261.2	
877.35	3551.2	
877.52	5569.1	
877.68	5005.2	
877.85	3524.6	
878.02	3544.4	
878.18	5592.3	
878.35	5212.1	
878.52	2840.5	
878.69	4067.3	
878.85	6037.4	
879.02	6010.8	
879.19	5173.9	
879.35	3887	
879.52	5983.5	
879.69	6227.2	
879.86	3059	
880.02	4022.2	
880.19	5507.7	
880.36	6820.4	
880.52	4196.3	
880.69	4272.7	
880.86	6117.3	
881.02	6256.5	
881.19	4002.4	
881.36	3957.4	
881.52	5992.4	
881.69	5272.2	
881.86	3926.6	
882.02	3801.7	
882.19	6291.4	
882.36	7389.8	
882.52	3712.3	
882.69	5162.9	
882.86	5833.3	
883.02	5628.5	
883.19	4384.7	
883.36	4111	
883.52	6113.2	
883.69	7041.6	
883.86	3618.1	
884.02	3244.7	
884.19	6113.2	
884.36	5605.3	
884.52	4106.2	
884.69	3769.6	
884.86	5330.2	
885.02	6692.1	
885.19	4037.9	
885.36	4200.4	
885.52	5636	
885.69	5781.4	
885.86	5262.6	
886.02	4646.8	
886.19	6090.7	
886.35	5507	
886.52	3986.7	
886.69	5122.7	
886.85	5132.2	
887.02	6507.1	
887.19	6507.1	
887.35	6507.1	
887.52	6507.1	
887.68	6507.1	
887.85	6507.1	
888.02	6507.1	
888.18	6507.1	
888.35	6507.1	
888.51	6507.1	
888.68	6507.1	
888.85	6507.1	
889.01	6507.1	
889.18	6507.1	
889.35	6507.1	
889.51	6507.1	
889.68	6507.1	
889.84	6507.1	
890.01	6507.1	
890.17	6507.1	
890.34	6507.1	
890.51	6507.1	
890.67	6507.1	
890.84	6507.1	
891	6507.1	
891.17	6507.1	
891.34	6507.1	
891.5	6507.1	
891.67	6507.1	
891.83	6507.1	
892	6507.1	
892.16	6507.1	
892.33	6507.1	
892.5	6507.1	
892.66	6507.1	
892.83	6507.1	
892.99	6507.1	
893.16	6507.1	
893.32	6507.1	
893.49	6507.1	
893.65	6507.1	
893.82	6507.1	
893.99	6507.1	
894.15	6507.1	
894.32	6507.1	
894.48	6507.1	
894.65	6507.1	
894.81	6507.1	
894.98	6507.1	
895.14	6507.1	
895.31	6507.1	
895.47	6507.1	
895.64	6507.1	
895.81	6507.1	
895.97	6507.1	
896.14	6507.1	
896.3	6507.1	
896.47	6507.1	
896.63	6507.1	
896.8	6507.1	
896.96	6507.1	
897.13	6507.1	
897.29	6507.1	
897.46	6507.1	
897.62	6507.1	
897.79	6507.1	
897.95	6507.1	
898.12	6507.1	
898.28	6507.1	
898.45	6507.1	
898.61	6507.1	
898.78	6507.1	
898.94	6507.1	
899.11	6507.1	
899.27	6507.1	
899.44	6507.1	
899.6	6507.1	
899.77	6507.1	
899.93	6507.1	
900.1	6507.1	
900.26	6507.1	
900.43	6507.1	
900.59	6507.1	
900.76	6507.1	
900.92	6507.1	
901.09	6507.1	
901.25	6507.1	
901.42	6507.1	
901.58	6507.1	
901.75	6507.1	
901.91	6507.1	
902.07	6507.1	
902.24	6507.1	
902.4	6507.1	
902.57	6507.1	
902.73	6507.1	
902.9	6507.1	
903.06	6507.1	
903.23	6507.1	
903.39	6507.1	
903.56	6507.1	
903.72	6507.1	
903.88	6507.1	
904.05	6507.1	
904.21	6507.1	
904.38	6507.1	
904.54	6507.1	
904.71	6507.1	
904.87	6507.1	
905.03	6507.1	
905.2	6507.1	
905.36	6507.1	
905.53	6507.1	
905.69	6507.1	
905.86	6507.1	
906.02	6507.1	
906.18	6507.1	
906.35	6507.1	
906.51	6507.1	
906.68	6507.1	
906.84	6507.1	
907.01	6507.1	
907.17	6507.1	
907.33	6507.1	
907.5	6507.1	
907.66	6507.1	
907.83	6507.1	
907.99	6507.1	
908.15	6507.1	
908.32	6507.1	
908.48	6507.1	
908.65	6507.1	
908.81	6507.1	
908.97	6507.1	
909.14	6507.1	
909.3	6507.1	
909.47	6507.1	
909.63	6507.1	
909.79	6507.1	
909.96	6507.1	
910.12	6507.1	
910.28	6507.1	
910.45	6507.1	
910.61	6507.1	
910.78	6507.1	
910.94	6507.1	
911.1	6507.1	
911.27	6507.1	
911.43	6507.1	
911.59	6507.1	
911.76	6507.1	
911.92	6507.1	
912.08	6507.1	
912.25	6507.1	
912.41	6507.1	
912.57	6507.1	
912.74	6507.1	
912.9	6507.1	
913.07	6507.1	
913.23	6507.1	
913.39	6507.1	
913.56	6507.1	
913.72	6507.1	
913.88	6507.1	
914.05	6507.1	
914.21	6507.1	
914.37	6507.1	
914.54	6507.1	
914.7	6507.1	
914.86	6507.1	
915.03	6507.1	
915.19	6507.1	
