Wavelength	Intensities	
nm	a.u.	
179.22	1900.7	
179.44	1905.6	
179.65	1895.7	
179.86	1915.5	
180.08	1930.6	
180.29	4895.3	
180.51	3472	
180.72	5568.4	
180.94	6558.3	
181.15	3189.4	
181.37	3152.5	
181.58	5434.6	
181.79	5797.1	
182.01	3281.5	
182.22	3599	
182.44	5786.9	
182.65	4825	
182.87	4539	
183.08	4029	
183.29	6075	
183.51	4992.9	
183.72	3596.9	
183.94	5300.1	
184.15	5402.5	
184.37	5395.7	
184.58	3229.6	
184.79	4432.5	
185.01	4995.7	
185.22	5726.1	
185.44	4587.4	
185.65	3921.9	
185.86	5329.5	
186.08	4883	
186.29	3161.4	
186.51	3329.3	
186.72	5044.1	
186.94	5874.9	
187.15	3917.1	
187.36	4031.8	
187.58	7679.9	
187.79	5498.1	
188.01	4160.1	
188.22	6481.8	
188.43	6597.9	
188.65	5751.4	
188.86	3347.1	
189.08	3966.2	
189.29	5255.1	
189.5	5188.2	
189.72	3719.1	
189.93	3790.1	
190.15	5966.4	
190.36	7129.7	
190.57	4094.6	
190.79	3940.3	
191	5993.7	
191.22	5967.1	
191.43	4049.5	
191.64	3304.7	
191.86	6195.8	
192.07	5973.2	
192.29	3519.8	
192.5	3657	
192.71	6002.6	
192.93	5139.7	
193.14	3715	
193.35	3776.5	
193.57	5115.1	
193.78	5920	
194	2949.1	
194.21	3672	
194.42	4948.6	
194.64	5421	
194.85	4007.2	
195.07	4747.2	
195.28	5537	
195.49	4766.3	
195.71	4906.3	
195.92	3437.2	
196.13	5576.6	
196.35	5683.1	
196.56	5286.5	
196.78	4075.5	
196.99	7006.1	
197.2	6593.8	
197.42	4595.6	
197.63	4073.4	
197.84	4846.9	
198.06	5580	
198.27	3734.8	
198.48	5005.2	
198.7	5147.2	
198.91	5305.6	
199.13	4032.5	
199.34	4098	
199.55	5811.5	
199.77	4677.6	
199.98	3540.3	
200.19	4138.9	
200.41	5278.3	
200.62	4977.9	
200.83	4255	
201.05	4539	
201.26	5303.6	
201.47	5035.3	
201.69	3577.1	
201.9	3389.4	
202.11	5397.1	
202.33	6356.2	
202.54	3868.6	
202.76	4310.3	
202.97	5522	
203.18	5503.6	
203.4	4188.1	
203.61	4118.5	
203.82	5432.6	
204.04	5066	
204.25	4108.2	
204.46	4014.7	
204.68	5398.4	
204.89	5684.5	
205.1	3932.1	
205.32	3443.3	
205.53	5807.4	
205.74	5923.4	
205.96	2933.4	
206.17	4114.4	
206.38	5762.3	
206.6	5909.8	
206.81	4661.9	
207.02	3734.1	
207.24	5607.3	
207.45	6033.3	
207.66	3870.7	
207.88	3338.2	
208.09	5579.3	
208.3	5417.6	
208.52	3561.4	
208.73	3885.7	
208.94	5442.8	
209.15	6083.8	
209.37	3874.8	
209.58	4064.5	
209.79	5941.8	
210.01	5212.1	
210.22	3066.5	
210.43	3213.3	
210.65	5414.1	
210.86	5791	
211.07	3917.8	
211.29	3545.7	
211.5	5773.9	
211.71	5386.2	
211.93	3526.6	
212.14	3508.2	
212.35	5335.6	
212.56	5591	
212.78	4108.2	
212.99	3376.4	
213.2	6320	
213.42	5150	
213.63	3654.9	
213.84	3959.4	
214.06	4825	
214.27	4854.4	
214.48	3787.4	
214.69	4145.1	
214.91	6125.5	
215.12	6168.5	
215.33	4211.3	
215.55	4608.6	
215.76	6683.9	
215.97	5746.6	
216.18	3956	
216.4	3892.5	
216.61	5105.6	
216.82	5913.2	
217.04	3620.1	
217.25	3732.1	
217.46	6074.3	
217.67	5803.3	
217.89	3190.7	
218.1	3297.2	
218.31	5507	
218.53	5563	
218.74	3769.6	
218.95	3635.1	
219.16	5329.5	
219.38	6318.7	
219.59	3625.6	
219.8	4411.3	
220.01	6912.6	
220.23	5373.2	
220.44	4761.5	
220.65	3483.6	
220.87	5467.4	
221.08	6074.3	
221.29	3293.1	
221.5	4359.4	
221.72	7382.2	
221.93	5163.6	
222.14	4161.5	
222.35	4806.6	
222.57	5436	
222.78	5723.4	
222.99	3900	
223.2	4154.6	
223.42	5703.6	
223.63	5834.7	
223.84	2942.2	
224.05	2947	
224.27	6914.6	
224.48	6287.9	
224.69	4859.8	
224.9	4083	
225.12	5601.9	
225.33	5352.7	
225.54	3224.2	
225.75	3629.7	
225.97	4973.2	
226.18	5264.6	
226.39	3966.2	
226.6	3602.4	
226.82	5150	
227.03	4993.6	
227.24	4012	
227.45	3330	
227.67	5780.7	
227.88	6374	
228.09	4504.8	
228.3	4485.1	
228.52	5837.4	
228.73	5410.1	
228.94	3784.6	
229.15	3353.2	
229.36	5330.9	
229.58	5207.3	
229.79	3805.1	
230	4345.1	
230.21	6399.9	
230.43	5539.1	
230.64	3975.1	
230.85	4164.9	
231.06	5808	
231.28	5826.5	
231.49	3320.4	
231.7	3967.6	
231.91	5714.5	
232.12	5403.2	
232.34	3390.1	
232.55	3895.9	
232.76	6085.9	
232.97	5585.5	
233.18	3512.9	
233.4	4033.8	
233.61	5610.8	
233.82	5284.4	
234.03	3684.3	
234.25	3624.9	
234.46	7489.4	
234.67	5444.9	
234.88	4178.5	
235.09	3615.3	
235.31	5729.5	
235.52	5288.5	
235.73	4040	
235.94	3416	
236.15	5135.6	
236.37	6532.3	
236.58	3543	
236.79	3837.9	
237	5694	
237.21	4904.2	
237.43	4138.9	
237.64	3282.2	
237.85	9738.8	
238.06	4969.1	
238.27	4250.2	
238.48	3381.2	
238.7	5749.3	
238.91	5248.9	
239.12	3846.8	
239.33	3852.2	
239.54	5051.7	
239.76	5388.2	
239.97	3809.9	
240.18	3913.7	
240.39	6824.5	
240.6	5637.4	
240.82	4061.8	
241.03	3273.3	
241.24	5387.5	
241.45	6320.7	
241.66	3538.2	
241.87	4192.9	
242.09	6124.1	
242.3	6507.8	
242.51	4237.2	
242.72	3906.8	
242.93	5880.4	
243.14	5365.7	
243.36	4443.4	
243.57	4865.3	
243.78	6302.3	
243.99	5752.7	
244.2	3958	
244.41	3542.3	
244.63	4993.6	
244.84	5720.7	
245.05	4190.1	
245.26	3879.5	
245.47	5710.4	
245.68	5959.6	
245.9	5223	
246.11	4108.9	
246.32	5257.8	
246.53	5671.5	
246.74	6363	
246.95	3253.5	
247.16	4900.1	
247.38	5427.8	
247.59	3266.5	
247.8	3872.7	
248.01	5091.3	
248.22	5332.2	
248.43	3480.9	
248.64	3807.2	
248.86	4803.2	
249.07	5167.7	
249.28	3438.5	
249.49	3967.6	
249.7	5945.9	
249.91	6130.9	
250.12	3270.6	
250.34	3310.2	
250.55	5491.3	
250.76	5358.2	
250.97	3978.5	
251.18	4118.5	
251.39	6090	
251.6	5592.3	
251.81	4073.4	
252.03	4085	
252.24	5154.1	
252.45	5924.1	
252.66	3394.2	
252.87	4298.7	
253.08	5466.7	
253.29	7107.1	
253.5	3360.7	
253.72	4752.7	
253.93	5281.7	
254.14	6402	
254.35	3682.2	
254.56	3760.1	
254.77	5604.6	
254.98	5023	
255.19	3658.4	
255.41	4751.3	
255.62	5466	
255.83	6055.2	
256.04	4160.8	
256.25	4142.4	
256.46	6664.1	
256.67	5128.1	
256.88	4029.7	
257.09	4446.8	
257.31	5100.1	
257.52	5111	
257.73	5051.7	
257.94	3688.4	
258.15	5229.1	
258.36	5427.1	
258.57	4644.1	
258.78	2963.4	
258.99	5868.8	
259.2	5261.9	
259.41	3695.9	
259.63	3816.7	
259.84	6252.4	
260.05	6718	
260.26	4853	
260.47	3664.5	
260.68	6037.4	
260.89	5337.7	
261.1	4483	
261.31	3570.3	
261.52	5965.1	
261.73	6399.2	
261.95	4754.7	
262.16	4207.9	
262.37	6109.8	
262.58	6224.5	
262.79	4781.3	
263	3817.4	
263.21	5418.9	
263.42	4989.5	
263.63	3858.4	
263.84	3783.3	
264.05	5987.6	
264.26	6371.9	
264.47	4650.3	
264.69	4169	
264.9	6085.2	
265.11	5650.3	
265.32	3579.8	
265.53	3749.1	
265.74	5542.5	
265.95	4810	
266.16	3999.7	
266.37	4434.5	
266.58	5526.8	
266.79	5199.1	
267	3683.6	
267.21	3450.8	
267.42	5010	
267.63	5354.1	
267.84	3855.6	
268.06	3331.4	
268.27	5873.6	
268.48	6150.1	
268.69	3814.7	
268.9	4527.4	
269.11	6100.9	
269.32	4855.1	
269.53	3880.2	
269.74	3599	
269.95	5739.1	
270.16	4722.6	
270.37	3857	
270.58	4504.2	
270.79	5237.3	
271	6027.2	
271.21	4198.3	
271.42	3920.5	
271.63	5566.4	
271.84	5023	
272.05	3119.7	
272.26	3461.1	
272.47	5506.3	
272.68	5657.9	
272.89	3780.6	
273.11	4306.2	
273.32	5220.3	
273.53	6351.4	
273.74	4226.3	
273.95	4084.3	
274.16	6036	
274.37	5474.2	
274.58	4268	
274.79	3395.5	
275	5528.2	
275.21	6077	
275.42	5195.7	
275.63	4353.3	
275.84	5689.9	
276.05	7134.4	
276.26	4154.6	
276.47	3855.6	
276.68	5272.2	
276.89	6417.7	
277.1	4423.6	
277.31	3450.1	
277.52	5702.9	
277.73	5899.5	
277.94	3378.5	
278.15	3764.8	
278.36	5663.3	
278.57	5003.2	
278.78	3717.7	
278.99	4262.5	
279.2	5024.3	
279.41	5063.9	
279.62	4896	
279.83	3437.9	
280.04	6591	
280.25	5001.8	
280.46	4911	
280.67	3886.4	
280.88	5056.4	
281.09	6092.7	
281.3	4052.9	
281.51	5202.5	
281.72	5931.6	
281.93	5950.7	
282.14	3661.1	
282.35	3935.5	
282.56	5913.2	
282.77	5870.8	
282.98	3775.8	
283.19	4606.6	
283.4	7230.7	
283.61	5342.5	
283.82	3470.6	
284.03	4828.4	
284.24	5512.4	
284.45	6059.9	
284.66	4825	
284.87	4659.8	
285.08	5969.1	
285.29	6139.8	
285.5	3289	
285.71	3818.1	
285.92	5975.3	
286.12	6688	
286.33	4805.9	
286.54	3813.3	
286.75	5914.5	
286.96	5257.1	
287.17	3478.1	
287.38	4715.1	
287.59	5078.3	
287.8	5023.7	
288.01	3796.9	
288.22	4344.4	
288.43	6006.7	
288.64	4943.8	
288.85	4509.6	
289.06	4337.6	
289.27	5840.8	
289.48	6372.6	
289.69	4748.6	
289.9	4401.1	
290.11	6084.5	
290.32	5152.7	
290.53	4593.6	
290.74	4278.2	
290.94	5915.2	
291.15	5947.3	
291.36	3728.7	
291.57	4412	
291.78	5205.9	
291.99	4867.3	
292.2	3558.7	
292.41	4258.4	
292.62	6025.8	
292.83	5752.7	
293.04	5197.7	
293.25	3540.3	
293.46	5212.8	
293.67	6033.3	
293.88	3629	
294.09	3547.8	
294.29	4945.8	
294.5	5529.5	
294.71	3926.6	
294.92	3730	
295.13	5214.8	
295.34	6516.6	
295.55	3295.9	
295.76	3407.1	
295.97	5822.4	
296.18	6574	
296.39	3474.7	
296.6	3674.1	
296.81	5521.3	
297.01	5809.4	
297.22	3788.7	
297.43	3654.3	
297.64	5084.4	
297.85	5028.4	
298.06	3029.6	
298.27	3320.4	
298.48	5469.4	
298.69	5121.3	
298.9	3984.7	
299.11	3556.6	
299.31	4903.5	
299.52	4978.6	
299.73	4278.2	
299.94	4145.8	
300.15	5388.2	
300.36	5083.1	
300.57	4130.1	
300.78	4198.3	
300.99	5293.3	
301.2	5556.1	
301.4	3600.3	
301.61	3975.1	
301.82	5688.6	
302.03	5858.6	
302.24	4470	
302.45	3516.4	
302.66	5742.5	
302.87	6196.5	
303.08	3665.2	
303.29	4981.3	
303.49	5175.9	
303.7	5392.3	
303.91	3247.4	
304.12	4734.9	
304.33	4960.9	
304.54	5574.6	
304.75	3652.9	
304.96	3464.5	
305.16	5735	
305.37	6423.1	
305.58	3191.4	
305.79	3310.9	
306	5780.1	
306.21	4891.9	
306.42	3612.6	
306.63	5551.4	
306.83	5266.7	
307.04	5995.8	
307.25	4053.6	
307.46	3971	
307.67	4607.9	
307.88	5920.7	
308.09	3558	
308.29	3847.5	
308.5	5515.2	
308.71	6057.9	
308.92	3958.7	
309.13	3476.8	
309.34	5339.7	
309.55	5287.2	
309.75	4525.3	
309.96	4176.5	
310.17	5780.7	
310.38	5083.7	
310.59	4392.9	
310.8	3489.7	
311.01	5254.4	
311.21	5362.9	
311.42	3506.1	
311.63	3591.5	
311.84	5134.9	
312.05	5603.2	
312.26	4059.1	
312.46	4439.3	
312.67	5332.2	
312.88	5014.1	
313.09	3508.2	
313.3	3417.4	
313.51	6199.9	
313.71	6600.6	
313.92	3519.8	
314.13	3738.9	
314.34	5586.2	
314.55	5322.7	
314.76	4584	
314.96	3931.4	
315.17	5486.5	
315.38	5840.1	
315.59	3567.6	
315.8	3375.1	
316.01	6228.6	
316.21	6361	
316.42	3469.3	
316.63	3947.8	
316.84	5325.4	
317.05	6158.2	
317.26	4111.6	
317.46	3724.6	
317.67	5395	
317.88	5779.4	
318.09	4491.2	
318.3	3310.9	
318.5	5129.5	
318.71	5761.6	
318.92	5804.6	
319.13	4167.6	
319.34	5876.3	
319.54	6059.9	
319.75	3332	
319.96	3125.2	
320.17	5872.2	
320.38	5996.5	
320.58	3222.1	
320.79	3876.8	
321	5998.5	
321.21	6111.1	
321.42	3880.9	
321.62	3257.6	
321.83	5056.4	
322.04	5442.8	
322.25	3762.1	
322.46	3586	
322.66	5580.7	
322.87	5694.7	
323.08	4391.5	
323.29	3459.7	
323.5	6481.8	
323.7	5007.3	
323.91	4827.7	
324.12	4303.5	
324.33	5521.3	
324.53	5788.9	
324.74	4194.9	
324.95	4413.4	
325.16	4810.7	
325.37	5247.6	
325.57	3525.2	
325.78	3622.2	
325.99	5470.1	
326.2	4919.9	
326.4	4955.4	
326.61	3276.8	
326.82	5351.3	
327.03	5547.9	
327.24	5020.9	
327.44	4704.9	
327.65	5687.9	
327.86	4627.7	
328.07	4194.2	
328.27	3398.9	
328.48	6081.1	
328.69	5031.9	
328.9	5079	
329.1	3831.7	
329.31	5339.7	
329.52	6255.2	
329.73	3556	
329.93	3950.5	
330.14	5450.3	
330.35	5659.2	
330.56	5768.4	
330.76	4433.9	
330.97	5228.5	
331.18	5616.2	
331.39	3898	
331.59	3179.8	
331.8	6034.7	
332.01	6168.5	
332.22	3717.7	
332.42	4201.7	
332.63	5541.1	
332.84	5122.7	
333.05	3969.6	
333.25	3604.4	
333.46	5169.8	
333.67	5478.3	
333.88	3730.7	
334.08	4132.8	
334.29	7266.2	
334.5	6106.4	
334.7	3443.3	
334.91	5067.4	
335.12	5012.7	
335.33	5823.7	
335.53	3887.7	
335.74	5858.6	
335.95	5229.8	
336.16	5087.2	
336.36	3900.7	
336.57	4488.5	
336.78	4957.4	
336.98	6001.9	
337.19	4843.4	
337.4	3874.8	
337.61	6518	
337.81	5002.5	
338.02	3562.8	
338.23	4779.3	
338.43	6197.8	
338.64	5113.8	
338.85	3608.5	
339.05	4682.3	
339.26	6251.1	
339.47	4833.9	
339.68	3555.3	
339.88	5311.1	
340.09	5660.6	
340.3	5946.6	
340.5	4141.7	
340.71	3226.9	
340.92	4931.5	
341.13	6237.4	
341.33	3446.7	
341.54	4220.9	
341.75	5682.4	
341.95	5324.7	
342.16	4014.7	
342.37	4319.2	
342.57	4988.2	
342.78	5393	
342.99	4454.3	
343.19	3208.5	
343.4	5892.7	
343.61	5666	
343.81	3799	
344.02	3439.9	
344.23	5914.5	
344.43	6268.8	
344.64	4360.1	
344.85	4321.2	
345.06	5715.2	
345.26	6027.2	
345.47	4088.4	
345.68	4849.6	
345.88	4835.3	
346.09	5911.8	
346.3	4198.3	
346.5	3170.3	
346.71	5451	
346.92	5144.5	
347.12	3308.8	
347.33	4040.6	
347.54	5918.6	
347.74	6414.9	
347.95	4049.5	
348.16	3069.9	
348.36	5197.7	
348.57	4937	
348.78	4067.9	
348.98	4343.7	
349.19	5452.4	
349.39	4885.1	
349.6	3292.5	
349.81	3611.3	
350.01	5642.8	
350.22	5149.3	
350.43	3894.6	
350.63	4728.8	
350.84	5509.7	
351.05	5199.8	
351.25	3592.1	
351.46	3285.6	
351.67	5963.7	
351.87	5127.4	
352.08	3818.8	
352.29	4410.6	
352.49	5933.6	
352.7	6019.7	
352.9	3484.3	
353.11	4373.8	
353.32	6563.1	
353.52	5223.7	
353.73	3396.9	
353.94	4397.7	
354.14	5715.2	
354.35	5526.1	
354.55	3552.5	
354.76	3975.8	
354.97	5712.5	
355.17	5542.5	
355.38	3337.5	
355.59	4697.4	
355.79	5189.6	
356	5559.6	
356.2	3949.2	
356.41	3428.3	
356.62	4889.2	
356.82	5399.1	
357.03	4209.9	
357.24	3797.6	
357.44	5231.9	
357.65	5257.1	
357.85	5097.4	
358.06	4014.7	
358.27	4902.2	
358.47	5210	
358.68	3358.7	
358.88	4272.1	
359.09	5726.1	
359.3	6147.3	
359.5	4942.4	
359.71	4356	
359.91	6591	
360.12	5914.5	
360.33	4244.8	
360.53	4728.1	
360.74	5183.4	
360.94	5306.3	
361.15	4429.8	
361.36	3718.4	
361.56	5993.7	
361.77	5462.6	
361.97	4932.2	
362.18	3971	
362.38	6055.8	
362.59	5145.9	
362.8	3646.1	
363	3473.4	
363.21	4885.8	
363.41	5605.3	
363.62	4179.2	
363.83	5207.3	
364.03	5664	
364.24	6631.3	
364.44	5356.8	
364.65	5238.7	
364.85	5433.3	
365.06	5127.4	
365.27	3832.4	
365.47	3863.8	
365.68	6447.7	
365.88	5429.8	
366.09	4201.7	
366.29	3904.1	
366.5	5763	
366.71	6136.4	
366.91	5205.3	
367.12	4446.8	
367.32	6625.2	
367.53	6021.7	
367.73	4315.1	
367.94	5305.6	
368.14	5893.4	
368.35	6866.2	
368.56	4319.2	
368.76	3811.3	
368.97	6030.6	
369.17	7708.6	
369.38	3855	
369.58	4095.3	
369.79	5088.5	
369.99	6402.6	
370.2	5147.9	
370.4	4250.2	
370.61	5765	
370.82	6870.9	
371.02	4130.8	
371.23	3500	
371.43	5050.3	
371.64	6275.7	
371.84	4178.5	
372.05	5420.3	
372.25	7675.8	
372.46	6100.9	
372.66	4145.1	
372.87	4169.7	
373.07	6150.7	
373.28	7820.5	
373.48	5200.5	
373.69	4896.7	
373.9	5625.8	
374.1	5686.5	
374.31	5145.2	
374.51	4627	
374.72	6511.9	
374.92	5423	
375.13	5390.3	
375.33	4540.3	
375.54	6092.7	
375.74	5544.5	
375.95	4645.5	
376.15	5926.8	
376.36	6107	
376.56	5952.8	
376.77	4718.5	
376.97	5143.1	
377.18	7145.4	
377.38	6305	
377.59	5618.9	
377.79	4240	
378	6066.8	
378.2	6527.6	
378.41	4347.8	
378.61	4323.3	
378.82	6472.9	
379.02	5705.6	
379.23	4517.8	
379.43	5671.5	
379.64	6643.6	
379.84	6227.9	
380.05	4269.3	
380.25	4218.8	
380.46	6331.6	
380.66	5906.3	
380.87	5670.1	
381.07	6009.4	
381.28	6967.9	
381.48	6340.5	
381.69	4302.8	
381.89	4386.7	
382.1	5284.4	
382.3	6531.7	
382.51	5455.1	
382.71	6315.3	
382.91	6411.5	
383.12	6814.3	
383.32	4649.6	
383.53	4867.3	
383.73	6163.7	
383.94	6007.4	
384.14	4859.1	
384.35	3991.5	
384.55	5836.7	
384.76	6322.1	
384.96	4662.5	
385.17	5046.9	
385.37	6333	
385.58	5619.6	
385.78	5059.8	
385.98	3878.9	
386.19	5777.3	
386.39	6244.3	
386.6	4463.9	
386.8	4693.3	
387.01	6303	
387.21	6375.3	
387.42	5119.9	
387.62	5696.8	
387.83	5651	
388.03	6366.5	
388.23	4800.4	
388.44	5584.1	
388.64	5451.7	
388.85	5625.8	
389.05	5253	
389.26	5814.9	
389.46	7402	
389.67	6879.8	
389.87	5196.4	
390.07	5288.5	
390.28	6124.1	
390.48	5691.3	
390.69	4500.1	
390.89	4793.6	
391.1	5877	
391.3	6866.8	
391.5	5986.2	
391.71	6627.9	
391.91	6572.6	
392.12	7597.3	
392.32	6051.1	
392.53	5254.4	
392.73	6001.9	
392.93	6095.4	
393.14	4868.7	
393.34	5711.8	
393.55	6668.2	
393.75	6178	
393.95	4896.7	
394.16	4815.5	
394.36	5816.9	
394.57	6466.8	
394.77	4433.9	
394.98	4838.7	
395.18	5857.2	
395.38	6081.1	
395.59	5689.9	
395.79	4726	
396	6107.7	
396.2	6539.2	
396.4	5576.6	
396.61	5560.2	
396.81	6828.6	
397.02	6056.5	
397.22	5897.5	
397.42	5947.3	
397.63	6804	
397.83	6035.4	
398.04	4796.3	
398.24	5360.2	
398.44	6576	
398.65	5681.7	
398.85	4667.3	
399.05	4741.7	
399.26	6045.6	
399.46	7771.4	
399.67	5188.2	
399.87	4892.6	
400.07	6490	
400.28	6847	
400.48	5010	
400.69	6079.7	
400.89	7083.2	
401.09	7529.7	
401.3	4983.4	
401.5	6124.8	
401.7	7810.3	
401.91	8067.6	
402.11	5347.2	
402.32	5575.3	
402.52	7136.5	
402.72	7043.6	
402.93	5648.3	
403.13	4552	
403.33	7789.8	
403.54	6434.7	
403.74	5323.4	
403.94	6210.8	
404.15	6482.5	
404.35	7632.1	
404.56	5122.7	
404.76	6933.1	
404.96	6960.4	
405.17	6777.4	
405.37	6577.4	
405.57	5739.1	
405.78	7200	
405.98	6569.2	
406.18	5287.9	
406.39	6139.8	
406.59	7076.4	
406.79	6625.2	
407	5075.5	
407.2	5147.9	
407.4	7156.3	
407.61	7342	
407.81	5285.8	
408.01	7249.8	
408.22	6270.9	
408.42	8321.6	
408.62	6436.8	
408.83	6036	
409.03	7027.9	
409.23	6916	
409.44	6202.6	
409.64	6549.4	
409.84	8021.2	
410.05	8061.5	
410.25	6481.8	
410.45	6190.3	
410.66	7648.5	
410.86	10077	
411.06	6787.7	
411.27	6615.6	
411.47	10010	
411.67	7963.2	
411.88	6784.9	
412.08	7233.4	
412.28	8518.9	
412.49	9146.2	
412.69	6777.4	
412.89	6815	
413.09	9015.8	
413.3	8778.3	
413.5	6960.4	
413.7	6448.4	
413.91	8039.6	
414.11	9018.6	
414.31	6795.8	
414.52	7408.2	
414.72	8817.9	
414.92	8683.4	
415.12	6892.1	
415.33	7480.5	
415.53	9099.1	
415.73	9357.2	
415.94	7772	
416.14	7252.5	
416.34	8222.6	
416.55	7931.1	
416.75	8512	
416.95	7881.9	
417.15	9216.5	
417.36	9871.9	
417.56	8809.7	
417.76	7818.5	
417.97	9690.3	
418.17	9464.3	
418.37	7441	
418.57	7552.9	
418.78	9118.9	
418.98	8795.3	
419.18	8406.9	
419.38	8258.1	
419.59	8934.6	
419.79	8460.2	
419.99	7499	
420.2	7742.7	
420.4	9460.3	
420.6	9605	
420.8	7340.6	
421.01	7208.8	
421.21	9338.1	
421.41	9398.1	
421.61	7686	
421.82	7481.2	
422.02	8743.5	
422.22	9679.4	
422.42	8393.9	
422.63	7789.8	
422.83	8932.6	
423.03	10144	
423.23	7774.1	
423.44	6855.9	
423.64	8939.4	
423.84	8670.4	
424.04	7342	
424.25	6956.9	
424.45	9867.1	
424.65	9723.1	
424.85	6817.7	
425.06	7344	
425.26	9818	
425.46	8312	
425.66	7881.3	
425.87	7488.7	
426.07	9437.7	
426.27	9253.4	
426.47	7701.7	
426.67	6999.3	
426.88	9751.1	
427.08	9258.2	
427.28	7955	
427.48	6939.9	
427.69	8236.9	
427.89	8877.3	
428.09	7910.6	
428.29	7019.1	
428.5	9621.4	
428.7	9115.5	
428.9	6952.2	
429.1	7497.6	
429.3	9113.5	
429.51	9531.9	
429.71	7245.7	
429.91	8125.7	
430.11	9407	
430.31	9713.5	
430.52	7623.2	
430.72	8053.3	
430.92	9990	
431.12	9444.5	
431.32	7481.9	
431.53	7755	
431.73	8525.7	
431.93	10200	
432.13	7301	
432.33	7233.4	
432.54	8959.2	
432.74	9398.8	
432.94	7279.8	
433.14	8322.9	
433.34	9544.2	
433.55	9141.4	
433.75	8251.9	
433.95	10197	
434.15	9458.2	
434.35	9167.4	
434.56	7511.9	
434.76	7228	
434.96	9483.5	
435.16	9743.6	
435.36	7590.5	
435.56	8729.1	
435.77	9265.7	
435.97	9534	
436.17	9495.7	
436.37	8694.3	
436.57	9331.2	
436.78	9357.2	
436.98	9295.7	
437.18	9321	
437.38	10137	
437.58	9486.2	
437.78	9397.4	
437.99	7974.8	
438.19	10000	
438.39	11372	
438.59	7918.8	
438.79	7334.5	
438.99	10593	
439.2	9364	
439.4	7460.8	
439.6	7542	
439.8	9815.2	
440	10976	
440.2	8744.1	
440.4	9019.9	
440.61	10352	
440.81	11016	
441.01	8036.9	
441.21	9103.9	
441.41	11086	
441.61	10494	
441.81	9448.6	
442.02	10527	
442.22	11553	
442.42	10741	
442.62	8344.1	
442.82	8359.8	
443.02	11041	
443.22	10206	
443.43	8792.6	
443.63	8449.9	
443.83	9906	
444.03	10098	
444.23	9836.4	
444.43	9360.6	
444.63	10573	
444.83	11814	
445.04	8721.6	
445.24	9987.9	
445.44	10728	
445.64	10928	
445.84	9297.8	
446.04	9473.9	
446.24	10007	
446.44	11158	
446.65	8350.3	
446.85	8935.3	
447.05	10329	
447.25	11092	
447.45	8841.8	
447.65	8352.3	
447.85	10370	
448.05	9882.8	
448.25	9542.2	
448.46	9273.9	
448.66	10453	
448.86	10092	
449.06	8304.5	
449.26	9476.6	
449.46	10977	
449.66	9990.7	
449.86	9188.6	
450.06	9031.5	
450.26	10204	
450.47	10855	
450.67	9314.2	
450.87	9648.7	
451.07	10920	
451.27	10736	
451.47	8690.2	
451.67	9347.6	
451.87	10520	
452.07	11445	
452.27	9095.7	
452.47	9053.4	
452.67	10676	
452.88	11315	
453.08	8251.9	
453.28	10285	
453.48	12052	
453.68	10549	
453.88	9000.1	
454.08	9197.4	
454.28	11198	
454.48	10795	
454.68	9725.1	
454.88	10359	
455.08	11254	
455.28	11282	
455.48	8863.6	
455.68	9708.1	
455.89	12014	
456.09	11650	
456.29	9383.1	
456.49	9614.5	
456.69	11974	
456.89	11110	
457.09	10251	
457.29	10600	
457.49	11658	
457.69	11891	
457.89	10334	
458.09	9542.9	
458.29	11602	
458.49	12376	
458.69	10739	
458.89	10148	
459.09	12734	
459.29	12867	
459.49	10346	
459.69	11155	
459.9	12170	
460.1	11899	
460.3	10082	
460.5	9977.7	
460.7	12246	
460.9	12053	
461.1	9736.7	
461.3	11140	
461.5	13151	
461.7	12646	
461.9	10520	
462.1	10753	
462.3	12389	
462.5	13040	
462.7	10529	
462.9	10748	
463.1	14065	
463.3	14007	
463.5	11017	
463.7	12306	
463.9	13004	
464.1	13366	
464.3	11637	
464.5	11683	
464.7	13765	
464.9	13603	
465.1	13280	
465.3	12170	
465.5	14136	
465.7	14209	
465.9	12620	
466.1	12097	
466.3	14145	
466.5	13713	
466.7	13484	
466.9	12174	
467.1	14010	
467.3	14988	
467.5	13599	
467.7	12348	
467.9	15186	
468.1	16289	
468.3	13177	
468.5	13730	
468.7	14237	
468.9	14086	
469.1	12803	
469.3	13616	
469.5	16343	
469.7	13966	
469.9	13162	
470.1	12736	
470.3	14397	
470.5	14351	
470.7	13930	
470.9	12671	
471.1	14289	
471.3	14294	
471.5	12650	
471.69	14472	
471.89	13922	
472.09	13379	
472.29	13353	
472.49	13547	
472.69	13894	
472.89	14532	
473.09	12523	
473.29	12436	
473.49	13769	
473.69	13922	
473.89	13435	
474.09	12589	
474.29	14995	
474.49	14712	
474.69	13487	
474.89	12638	
475.09	13933	
475.29	14007	
475.49	12099	
475.69	12531	
475.88	15470	
476.08	14173	
476.28	12091	
476.48	12446	
476.68	14468	
476.88	14348	
477.08	12286	
477.28	12641	
477.48	13777	
477.68	14446	
477.88	12115	
478.08	12392	
478.28	14962	
478.48	13956	
478.67	12585	
478.87	11795	
479.07	14912	
479.27	14135	
479.47	12716	
479.67	12820	
479.87	14706	
480.07	15222	
480.27	12157	
480.47	13741	
480.67	14277	
480.87	14990	
481.06	12530	
481.26	13280	
481.46	14265	
481.66	14248	
481.86	12925	
482.06	13928	
482.26	14100	
482.46	15115	
482.66	12904	
482.86	12493	
483.05	14482	
483.25	13856	
483.45	15395	
483.65	12989	
483.85	14147	
484.05	14453	
484.25	13452	
484.45	14056	
484.65	15388	
484.84	15704	
485.04	13009	
485.24	13040	
485.44	15806	
485.64	14279	
485.84	12540	
486.04	14102	
486.24	14657	
486.44	15111	
486.63	12592	
486.83	13467	
487.03	14679	
487.23	14984	
487.43	12683	
487.63	15273	
487.83	15233	
488.02	16068	
488.22	14108	
488.42	14744	
488.62	15918	
488.82	14962	
489.02	13482	
489.22	13863	
489.41	15739	
489.61	15692	
489.81	13427	
490.01	13460	
490.21	15920	
490.41	16626	
490.61	13491	
490.8	13664	
491	15488	
491.2	14607	
491.4	14086	
491.6	13239	
491.8	15134	
491.99	15218	
492.19	12970	
492.39	13364	
492.59	15975	
492.79	15985	
492.99	14526	
493.18	13693	
493.38	16128	
493.58	17370	
493.78	14554	
493.98	14287	
494.18	16229	
494.37	15844	
494.57	15320	
494.77	15115	
494.97	16849	
495.17	17197	
495.37	15091	
495.56	15225	
495.76	17763	
495.96	17339	
496.16	16497	
496.36	15412	
496.55	17619	
496.75	17286	
496.95	15726	
497.15	15578	
497.35	17506	
497.54	17691	
497.74	15373	
497.94	17378	
498.14	18412	
498.34	18297	
498.53	15266	
498.73	16304	
498.93	17282	
499.13	17942	
499.33	16324	
499.52	16707	
499.72	18163	
499.92	18219	
500.12	15984	
500.32	16325	
500.51	18238	
500.71	18344	
500.91	17346	
501.11	16634	
501.31	18294	
501.5	18668	
501.7	17420	
501.9	16324	
502.1	18040	
502.29	18492	
502.49	17029	
502.69	17163	
502.89	18243	
503.09	18328	
503.28	15631	
503.48	15835	
503.68	17321	
503.88	17370	
504.07	16740	
504.27	16235	
504.47	17861	
504.67	17741	
504.86	16763	
505.06	16359	
505.26	17281	
505.46	19131	
505.65	16047	
505.85	16160	
506.05	17091	
506.25	17522	
506.44	15108	
506.64	16021	
506.84	16798	
507.04	17841	
507.23	15343	
507.43	15855	
507.63	18805	
507.83	17193	
508.02	15864	
508.22	15627	
508.42	19153	
508.62	16976	
508.81	15667	
509.01	16541	
509.21	16774	
509.4	16991	
509.6	16084	
509.8	15455	
510	17049	
510.19	18696	
510.39	15292	
510.59	15592	
510.79	16899	
510.98	18484	
511.18	15746	
511.38	15894	
511.57	17710	
511.77	17696	
511.97	16349	
512.17	15297	
512.36	17688	
512.56	17647	
512.76	15378	
512.95	15104	
513.15	17810	
513.35	16513	
513.55	16190	
513.74	15351	
513.94	17752	
514.14	17109	
514.33	16493	
514.53	16302	
514.73	17135	
514.92	17329	
515.12	15767	
515.32	15539	
515.51	17645	
515.71	18189	
515.91	17352	
516.11	15729	
516.3	19441	
516.5	17293	
516.7	16301	
516.89	16973	
517.09	17320	
517.29	17398	
517.48	16656	
517.68	16018	
517.88	17075	
518.07	17787	
518.27	16525	
518.47	15501	
518.66	18420	
518.86	16910	
519.06	15350	
519.25	15829	
519.45	17277	
519.65	18938	
519.84	16597	
520.04	17488	
520.24	19270	
520.43	17954	
520.63	16102	
520.83	15838	
521.02	17037	
521.22	17681	
521.42	16238	
521.61	16942	
521.81	17125	
522.01	17348	
522.2	16311	
522.4	15894	
522.6	18112	
522.79	16812	
522.99	16264	
523.18	15689	
523.38	18097	
523.58	18271	
523.77	18203	
523.97	16146	
524.17	20337	
524.36	19507	
524.56	17727	
524.76	17435	
524.95	18832	
525.15	18408	
525.34	17436	
525.54	17479	
525.74	19293	
525.93	18491	
526.13	18855	
526.33	17656	
526.52	19995	
526.72	19377	
526.91	18966	
527.11	18361	
527.31	20125	
527.5	20579	
527.7	18462	
527.89	17603	
528.09	19345	
528.29	20005	
528.48	18876	
528.68	18628	
528.87	20187	
529.07	20274	
529.27	18299	
529.46	18058	
529.66	19730	
529.85	20267	
530.05	17801	
530.25	18461	
530.44	21332	
530.64	19633	
530.83	18274	
531.03	18511	
531.23	20469	
531.42	20179	
531.62	19516	
531.81	18645	
532.01	20945	
532.21	21379	
532.4	18826	
532.6	19486	
532.79	22107	
532.99	21418	
533.18	19488	
533.38	20551	
533.58	21059	
533.77	21767	
533.97	19650	
534.16	20626	
534.36	22261	
534.55	21332	
534.75	20792	
534.95	20029	
535.14	22197	
535.34	21303	
535.53	19426	
535.73	21434	
535.92	22705	
536.12	21248	
536.31	19587	
536.51	20786	
536.71	21459	
536.9	21110	
537.1	19617	
537.29	19931	
537.49	22035	
537.68	21080	
537.88	20270	
538.07	19464	
538.27	21398	
538.46	22679	
538.66	19439	
538.86	20082	
539.05	21362	
539.25	22053	
539.44	20375	
539.64	19782	
539.83	21321	
540.03	22411	
540.22	19635	
540.42	19517	
540.61	21255	
540.81	21642	
541	19810	
541.2	20803	
541.39	20712	
541.59	21357	
541.78	20430	
541.98	19186	
542.18	20390	
542.37	20581	
542.57	19650	
542.76	20407	
542.96	20142	
543.15	21074	
543.35	19304	
543.54	18686	
543.74	21118	
543.93	20744	
544.13	19205	
544.32	20219	
544.52	20809	
544.71	20198	
544.91	18250	
545.1	19569	
545.3	20183	
545.49	20875	
545.69	18142	
545.88	18626	
546.08	21950	
546.27	21240	
546.47	19250	
546.66	18549	
546.86	20927	
547.05	21465	
547.24	18794	
547.44	18716	
547.63	19853	
547.83	21117	
548.02	19136	
548.22	19157	
548.41	19620	
548.61	20887	
548.8	18374	
549	18423	
549.19	20110	
549.39	20481	
549.58	18023	
549.78	18481	
549.97	20483	
550.17	19893	
550.36	19328	
550.55	20381	
550.75	19676	
550.94	20812	
551.14	18051	
551.33	18366	
551.53	19030	
551.72	20182	
551.92	18420	
552.11	18082	
552.31	20173	
552.5	19935	
552.69	19787	
552.89	17786	
553.08	20060	
553.28	19670	
553.47	18026	
553.67	19161	
553.86	20625	
554.06	18853	
554.25	17176	
554.44	17742	
554.64	21313	
554.83	20906	
555.03	17703	
555.22	17968	
555.42	20101	
555.61	19628	
555.8	17727	
556	18100	
556.19	18887	
556.39	20007	
556.58	17864	
556.78	17813	
556.97	19709	
557.16	19457	
557.36	19164	
557.55	17550	
557.75	18462	
557.94	20502	
558.13	17553	
558.33	17364	
558.52	20141	
558.72	18982	
558.91	17363	
559.1	17642	
559.3	18730	
559.49	18220	
559.69	16841	
559.88	17914	
560.07	19381	
560.27	19743	
560.46	18069	
560.66	18128	
560.85	19121	
561.04	18201	
561.24	17169	
561.43	17290	
561.63	18463	
561.82	18768	
562.01	18533	
562.21	17750	
562.4	19153	
562.59	20437	
562.79	17524	
562.98	17365	
563.18	19260	
563.37	20864	
563.56	18190	
563.76	17492	
563.95	18942	
564.14	18723	
564.34	17826	
564.53	17598	
564.73	19488	
564.92	19950	
565.11	18099	
565.31	17487	
565.5	20051	
565.69	19057	
565.89	17753	
566.08	18029	
566.27	20054	
566.47	20581	
566.66	18703	
566.85	17411	
567.05	19823	
567.24	19164	
567.44	17716	
567.63	19132	
567.82	19936	
568.02	19699	
568.21	17866	
568.4	18224	
568.6	19806	
568.79	19728	
568.98	17743	
569.18	18187	
569.37	19856	
569.56	21880	
569.76	18391	
569.95	19424	
570.14	20274	
570.34	20343	
570.53	17823	
570.72	18030	
570.91	20786	
571.11	19958	
571.3	18372	
571.49	19316	
571.69	20026	
571.88	19427	
572.07	19183	
572.27	18983	
572.46	19506	
572.65	20564	
572.85	18439	
573.04	18782	
573.23	21098	
573.43	20108	
573.62	18262	
573.81	18964	
574	20431	
574.2	20267	
574.39	18883	
574.58	19110	
574.78	21584	
574.97	20880	
575.16	19587	
575.36	19772	
575.55	21334	
575.74	21406	
575.93	18635	
576.13	19962	
576.32	20590	
576.51	21293	
576.71	19032	
576.9	20794	
577.09	21435	
577.28	21091	
577.48	19607	
577.67	18707	
577.86	20850	
578.05	21250	
578.25	19469	
578.44	19562	
578.63	20917	
578.83	22308	
579.02	18894	
579.21	20627	
579.4	21249	
579.6	21060	
579.79	19663	
579.98	21836	
580.17	21681	
580.37	21877	
580.56	19009	
580.75	20126	
580.94	22244	
581.14	21841	
581.33	20687	
581.52	19383	
581.71	21575	
581.91	22166	
582.1	19043	
582.29	19642	
582.48	21298	
582.68	21375	
582.87	20195	
583.06	19906	
583.25	21656	
583.45	21313	
583.64	20730	
583.83	21399	
584.02	21044	
584.21	21650	
584.41	20507	
584.6	19856	
584.79	21446	
584.98	22341	
585.18	19303	
585.37	19275	
585.56	20869	
585.75	21794	
585.94	19396	
586.14	20142	
586.33	21990	
586.52	21315	
586.71	19764	
586.91	19423	
587.1	20257	
587.29	21331	
587.48	19096	
587.67	19151	
587.87	21113	
588.06	20948	
588.25	20319	
588.44	19588	
588.63	20497	
588.83	21150	
589.02	18831	
589.21	18546	
589.4	19921	
589.59	19893	
589.78	17395	
589.98	17576	
590.17	18951	
590.36	19469	
590.55	16410	
590.74	17068	
590.94	20463	
591.13	18951	
591.32	16868	
591.51	16532	
591.7	19330	
591.89	18927	
592.09	16748	
592.28	17333	
592.47	18216	
592.66	20196	
592.85	16881	
593.05	17187	
593.24	18837	
593.43	19620	
593.62	17214	
593.81	17822	
594	18895	
594.19	19244	
594.39	16988	
594.58	16974	
594.77	19158	
594.96	19705	
595.15	16874	
595.34	17520	
595.54	18990	
595.73	18150	
595.92	16167	
596.11	17267	
596.3	19590	
596.49	18071	
596.68	16875	
596.88	17529	
597.07	19181	
597.26	17980	
597.45	16473	
597.64	17718	
597.83	18273	
598.02	18877	
598.22	16440	
598.41	17232	
598.6	18581	
598.79	18016	
598.98	16466	
599.17	17513	
599.36	18598	
599.55	19663	
599.74	18545	
599.94	18376	
600.13	19048	
600.32	17862	
600.51	16049	
600.7	16323	
600.89	19639	
601.08	19650	
601.27	16027	
601.47	17089	
601.66	18853	
601.85	19534	
602.04	16774	
602.23	16677	
602.42	17863	
602.61	18578	
602.8	16535	
602.99	16139	
603.18	18063	
603.37	18452	
603.57	16756	
603.76	17432	
603.95	19172	
604.14	18669	
604.33	16385	
604.52	16908	
604.71	18445	
604.9	18072	
605.09	17273	
605.28	17086	
605.47	19070	
605.66	18609	
605.86	16904	
606.05	16408	
606.24	18910	
606.43	17412	
606.62	16629	
606.81	17253	
607	18588	
607.19	17870	
607.38	16098	
607.57	16280	
607.76	17851	
607.95	17194	
608.14	16537	
608.33	17166	
608.52	17708	
608.72	18566	
608.91	15831	
609.1	15710	
609.29	17858	
609.48	17094	
609.67	16584	
609.86	15498	
610.05	17132	
610.24	17506	
610.43	15517	
610.62	15070	
610.81	18572	
611	18485	
611.19	15645	
611.38	16352	
611.57	17858	
611.76	19246	
611.95	15292	
612.14	15262	
612.33	17602	
612.52	17071	
612.71	15976	
612.9	15094	
613.09	16769	
613.28	19129	
613.47	15527	
613.66	16713	
613.85	17637	
614.04	17161	
614.24	15563	
614.43	14792	
614.62	17864	
614.81	17786	
615	16112	
615.19	16449	
615.38	17089	
615.57	17539	
615.76	16122	
615.95	17101	
616.14	17838	
616.33	17561	
616.52	16524	
616.71	16815	
616.9	17888	
617.09	17739	
617.28	15793	
617.47	17248	
617.66	17090	
617.85	17132	
618.04	16948	
618.22	16440	
618.41	17672	
618.6	18649	
618.79	16436	
618.98	16301	
619.17	19131	
619.36	17223	
619.55	16505	
619.74	16585	
619.93	18439	
620.12	17822	
620.31	17105	
620.5	17656	
620.69	19194	
620.88	19519	
621.07	18296	
621.26	17258	
621.45	18866	
621.64	18855	
621.83	17403	
622.02	16577	
622.21	18850	
622.4	18841	
622.59	18032	
622.78	17847	
622.97	18270	
623.16	19381	
623.35	17392	
623.54	16556	
623.72	18637	
623.91	18774	
624.1	17830	
624.29	16303	
624.48	20046	
624.67	18964	
624.86	17755	
625.05	16712	
625.24	19983	
625.43	18439	
625.62	19453	
625.81	17028	
626	19372	
626.19	18874	
626.38	18054	
626.56	17288	
626.75	18585	
626.94	19511	
627.13	17867	
627.32	16531	
627.51	19297	
627.7	20631	
627.89	16668	
628.08	17984	
628.27	18365	
628.46	18649	
628.65	16932	
628.83	16631	
629.02	19159	
629.21	18437	
629.4	17359	
629.59	17629	
629.78	18394	
629.97	19361	
630.16	17763	
630.35	17019	
630.54	19779	
630.72	19607	
630.91	16974	
631.1	17546	
631.29	19013	
631.48	19148	
631.67	17677	
631.86	17094	
632.05	18679	
632.24	18656	
632.42	16683	
632.61	17415	
632.8	18586	
632.99	18431	
633.18	17421	
633.37	17701	
633.56	18813	
633.75	18621	
633.93	17340	
634.12	16998	
634.31	19655	
634.5	19237	
634.69	17033	
634.88	17527	
635.07	18582	
635.25	19143	
635.44	17941	
635.63	18329	
635.82	18361	
636.01	17701	
636.2	17660	
636.39	17322	
636.57	19559	
636.76	19128	
636.95	16692	
637.14	18025	
637.33	18908	
637.52	19765	
637.7	16401	
637.89	17453	
638.08	18314	
638.27	19768	
638.46	17586	
638.65	17823	
638.83	19500	
639.02	17952	
639.21	17213	
639.4	17552	
639.59	18406	
639.78	18031	
639.96	16371	
640.15	16261	
640.34	18205	
640.53	18217	
640.72	15996	
640.91	16209	
641.09	17485	
641.28	18847	
641.47	16244	
641.66	17199	
641.85	18129	
642.03	18176	
642.22	16827	
642.41	16138	
642.6	17433	
642.79	16750	
642.97	15743	
643.16	16604	
643.35	17397	
643.54	17074	
643.73	15850	
643.91	16479	
644.1	16714	
644.29	17443	
644.48	15500	
644.67	15639	
644.85	16785	
645.04	17129	
645.23	14771	
645.42	15373	
645.6	16400	
645.79	17489	
645.98	15074	
646.17	13912	
646.36	15823	
646.54	16325	
646.73	15524	
646.92	14347	
647.11	15982	
647.29	16904	
647.48	14347	
647.67	13982	
647.86	17187	
648.05	17254	
648.23	14577	
648.42	15962	
648.61	16281	
648.8	16168	
648.98	14037	
649.17	14532	
649.36	15735	
649.55	15338	
649.73	14128	
649.92	14941	
650.11	15700	
650.3	16007	
650.48	14174	
650.67	13919	
650.86	16065	
651.05	15117	
651.23	14091	
651.42	14093	
651.61	15544	
651.79	15515	
651.98	14303	
652.17	13851	
652.36	15890	
652.54	14952	
652.73	13770	
652.92	13530	
653.11	15678	
653.29	15859	
653.48	13021	
653.67	13852	
653.85	15313	
654.04	16358	
654.23	13776	
654.42	13371	
654.6	14419	
654.79	15029	
654.98	12486	
655.16	12924	
655.35	13700	
655.54	13577	
655.73	12306	
655.91	12307	
656.1	14846	
656.29	13801	
656.47	12083	
656.66	13760	
656.85	14064	
657.03	14236	
657.22	12820	
657.41	13036	
657.59	14543	
657.78	14267	
657.97	12669	
658.16	13368	
658.34	15110	
658.53	15660	
658.72	14285	
658.9	14801	
659.09	14596	
659.28	14744	
659.46	13087	
659.65	13192	
659.84	14375	
660.02	14926	
660.21	12865	
660.4	12958	
660.58	15412	
660.77	14685	
660.96	13567	
661.14	12568	
661.33	15773	
661.52	15758	
661.7	12471	
661.89	16261	
662.08	14198	
662.26	13800	
662.45	12770	
662.64	12654	
662.82	14887	
663.01	13991	
663.2	12603	
663.38	13684	
663.57	14679	
663.75	14592	
663.94	13022	
664.13	14237	
664.31	14106	
664.5	14742	
664.69	13199	
664.87	13843	
665.06	13741	
665.25	14612	
665.43	14031	
665.62	14141	
665.8	14760	
665.99	14167	
666.18	12951	
666.36	13123	
666.55	14633	
666.74	14682	
666.92	12560	
667.11	14119	
667.29	14091	
667.48	14668	
667.67	13770	
667.85	12720	
668.04	14143	
668.22	14149	
668.41	12810	
668.6	13001	
668.78	13898	
668.97	14081	
669.15	13177	
669.34	12145	
669.53	13918	
669.71	14189	
669.9	12314	
670.08	13031	
670.27	13876	
670.46	14322	
670.64	13164	
670.83	13362	
671.01	13652	
671.2	14235	
671.38	12337	
671.57	12200	
671.76	14939	
671.94	15666	
672.13	12187	
672.31	13369	
672.5	14539	
672.69	13872	
672.87	12523	
673.06	12751	
673.24	14242	
673.43	13937	
673.61	13153	
673.8	12633	
673.98	14461	
674.17	14631	
674.36	13291	
674.54	13169	
674.73	14104	
674.91	14445	
675.1	12736	
675.28	12460	
675.47	13952	
675.65	14690	
675.84	12551	
676.03	12941	
676.21	13767	
676.4	13350	
676.58	13359	
676.77	13104	
676.95	15296	
677.14	13601	
677.32	12315	
677.51	12054	
677.69	14455	
677.88	13367	
678.06	12149	
678.25	12330	
678.44	14039	
678.62	13793	
678.81	11906	
678.99	13010	
679.18	14801	
679.36	14344	
679.55	12600	
679.73	13229	
679.92	14367	
680.1	13715	
680.29	13783	
680.47	12466	
680.66	13598	
680.84	14454	
681.03	11858	
681.21	12983	
681.4	13685	
681.58	13525	
681.77	12289	
681.95	12136	
682.14	14582	
682.32	14816	
682.51	13147	
682.69	11918	
682.88	13455	
683.06	13971	
683.25	12873	
683.43	13188	
683.62	13730	
683.8	14172	
683.99	13375	
684.17	12444	
684.36	14749	
684.54	13408	
684.73	11310	
684.91	11398	
685.1	13301	
685.28	12498	
685.46	11759	
685.65	11807	
685.83	13348	
686.02	12717	
686.2	11226	
686.39	11407	
686.57	12523	
686.76	14279	
686.94	11315	
687.13	11581	
687.31	13366	
687.5	13041	
687.68	11101	
687.86	12281	
688.05	14758	
688.23	12443	
688.42	12495	
688.6	11624	
688.79	13157	
688.97	13041	
689.16	12264	
689.34	11062	
689.52	13909	
689.71	14043	
689.89	12418	
690.08	11729	
690.26	13442	
690.45	13303	
690.63	12566	
690.81	12015	
691	13049	
691.18	13054	
691.37	12011	
691.55	14024	
691.74	12823	
691.92	15008	
692.1	11826	
692.29	11402	
692.47	13030	
692.66	12376	
692.84	11515	
693.02	12028	
693.21	12706	
693.39	12996	
693.58	12335	
693.76	11807	
693.94	14465	
694.13	14352	
694.31	11847	
694.5	12921	
694.68	13228	
694.86	13533	
695.05	12437	
695.23	12481	
695.42	14076	
695.6	16497	
695.78	13109	
695.97	12030	
696.15	14168	
696.34	13422	
696.52	11747	
696.7	12582	
696.89	13659	
697.07	13026	
697.25	12426	
697.44	14006	
697.62	13504	
697.81	13847	
697.99	12063	
698.17	12509	
698.36	12755	
698.54	13481	
698.72	12468	
698.91	11219	
699.09	12951	
699.28	12903	
699.46	11965	
699.64	11643	
699.83	12773	
700.01	14050	
700.19	12684	
700.38	11010	
700.56	13962	
700.74	13062	
700.93	11533	
701.11	12427	
701.29	13520	
701.48	14784	
701.66	11802	
701.84	11913	
702.03	13191	
702.21	13938	
702.39	11361	
702.58	12088	
702.76	13609	
702.94	13705	
703.13	11439	
703.31	13900	
703.49	12904	
703.68	14011	
703.86	11564	
704.04	12655	
704.23	13457	
704.41	13778	
704.59	11665	
704.78	12920	
704.96	14462	
705.14	13857	
705.33	11546	
705.51	12250	
705.69	13138	
705.87	14041	
706.06	12635	
706.24	11417	
706.42	13349	
706.61	13839	
706.79	12565	
706.97	11404	
707.16	12919	
707.34	13617	
707.52	12358	
707.7	11596	
707.89	13012	
708.07	12646	
708.25	12333	
708.44	12536	
708.62	12894	
708.8	14020	
708.98	12672	
709.17	11555	
709.35	13250	
709.53	13218	
709.72	11293	
709.9	11564	
710.08	13381	
710.26	13452	
710.45	12781	
710.63	11517	
710.81	12884	
710.99	12960	
711.18	12053	
711.36	11447	
711.54	12748	
711.72	13354	
711.91	11351	
712.09	10810	
712.27	12668	
712.45	13188	
712.64	11415	
712.82	10306	
713	11908	
713.18	11972	
713.37	10372	
713.55	11427	
713.73	12622	
713.91	11009	
714.1	10249	
714.28	9548.3	
714.46	11575	
714.64	10739	
714.83	8577.6	
715.01	9273.2	
715.19	10365	
715.37	9661.6	
715.55	8810.4	
715.74	8912.1	
715.92	11175	
716.1	9073.2	
716.28	10061	
716.47	8990.6	
716.65	9803.6	
716.83	9779.1	
717.01	8745.5	
717.19	8948.9	
717.38	11912	
717.56	9498.5	
717.74	9291	
717.92	8341.4	
718.1	10873	
718.29	10139	
718.47	8288.8	
718.65	8972.2	
718.83	11237	
719.01	11176	
719.2	8393.9	
719.38	9618.6	
719.56	10981	
719.74	12568	
719.92	9071.1	
720.11	10059	
720.29	10686	
720.47	9869.2	
720.65	8254.7	
720.83	8994.7	
721.02	9786.6	
721.2	9577.7	
721.38	8901.8	
721.56	8111.3	
721.74	8946.9	
721.92	9183.8	
722.11	9377.6	
722.29	9002.2	
722.47	10465	
722.65	9551.7	
722.83	8170	
723.01	9011.7	
723.2	9585.2	
723.38	9869.2	
723.56	7537.9	
723.74	8570.1	
723.92	9029.5	
724.1	10338	
724.29	7980.9	
724.47	9176.9	
724.65	9163.3	
724.83	8962.6	
725.01	7724.3	
725.19	8761.9	
725.37	9063.6	
725.56	9127.8	
725.74	7692.2	
725.92	7961.1	
726.1	9020.6	
726.28	9285.5	
726.46	8307.9	
726.64	7995.3	
726.83	9195.4	
727.01	9585.2	
727.19	7550.9	
727.37	8535.3	
727.55	9370.8	
727.73	9942.9	
727.91	7561.1	
728.09	7331	
728.28	10007	
728.46	10561	
728.64	8645.8	
728.82	8590.5	
729	11149	
729.18	10347	
729.36	7858.7	
729.54	10222	
729.72	11629	
729.91	9815.2	
730.09	9934.7	
730.27	8731.2	
730.45	9771.5	
730.63	10402	
730.81	9284.1	
730.99	8460.2	
731.17	10931	
731.35	9538.1	
731.53	8882.7	
731.71	8551	
731.9	10572	
732.08	10888	
732.26	8806.3	
732.44	8357.1	
732.62	10789	
732.8	10357	
732.98	9024	
733.16	8077.2	
733.34	10162	
733.52	8979	
733.7	8589.9	
733.88	8806.3	
734.07	9993.4	
734.25	9749	
734.43	7976.2	
734.61	9536	
734.79	11376	
734.97	9704	
735.15	8072.4	
735.33	8368	
735.51	9975.7	
735.69	9640.5	
735.87	9557.9	
736.05	8625.4	
736.23	9813.2	
736.41	9523.1	
736.59	8434.9	
736.77	8631.5	
736.95	10294	
737.13	9676.7	
737.32	8005.5	
737.5	8327.7	
737.68	10701	
737.86	9531.9	
738.04	7848.5	
738.22	9739.5	
738.4	9174.2	
738.58	9538.8	
738.76	8428.8	
738.94	7309.9	
739.12	9405.6	
739.3	9172.9	
739.48	9156.5	
739.66	8871.8	
739.84	9731.9	
740.02	9600.9	
740.2	7412.3	
740.38	7868.3	
740.56	10063	
740.74	8803.5	
740.92	8527.1	
741.1	8265.6	
741.28	9318.3	
741.46	9132.6	
741.64	7843.7	
741.82	8463.6	
742	9303.9	
742.18	9299.1	
742.36	8066.3	
742.54	7670.3	
742.72	9800.9	
742.9	8428.1	
743.08	8432.9	
743.26	7305.1	
743.44	9953.8	
743.62	9800.2	
743.8	8537.3	
743.98	7572.7	
744.16	9347.6	
744.34	9184.5	
744.52	8283.4	
744.7	8265.6	
744.88	9556.5	
745.06	9017.9	
745.24	8342.1	
745.42	8414.4	
745.6	9514.9	
745.78	9271.2	
745.96	7019.8	
746.14	7301.7	
746.32	10150	
746.5	9382.4	
746.68	7834.2	
746.86	7305.8	
747.03	9905.3	
747.21	8237.6	
747.39	7833.5	
747.57	7277.1	
747.75	8948.9	
747.93	9360.6	
748.11	7282.6	
748.29	7232.1	
748.47	10623	
748.65	8679.3	
748.83	7970	
749.01	7741.3	
749.19	9175.6	
749.37	8259.5	
749.55	7490.1	
749.73	7617.8	
749.91	8755.1	
750.09	8460.8	
750.26	7578.2	
750.44	7046.4	
750.62	8842.4	
750.8	8731.9	
750.98	6878.4	
751.16	7226.6	
751.34	8792.6	
751.52	8194.6	
751.7	8009.6	
751.88	6815.6	
752.06	9282.1	
752.24	9098.4	
752.42	6716	
752.59	7212.9	
752.77	8632.2	
752.95	9912.2	
753.13	7916.8	
753.31	7193.1	
753.49	8368	
753.67	8787.8	
753.85	7551.5	
754.03	7034.8	
754.21	8944.2	
754.38	9314.8	
754.56	6982.9	
754.74	5982.1	
754.92	7978.2	
755.1	8689.5	
755.28	5886.5	
755.46	5669.5	
755.64	8895.7	
755.82	8860.2	
755.99	5371.1	
756.17	5449	
756.35	5937.7	
756.53	7395.9	
756.71	4104.1	
756.89	5091.9	
757.07	6961	
757.25	6149.4	
757.42	5771.2	
757.6	6795.8	
757.78	7408.9	
757.96	6470.2	
758.14	5749.3	
758.32	5248.9	
758.5	6016.2	
758.67	6857.3	
758.85	5418.2	
759.03	5594.4	
759.21	6929.6	
759.39	6292	
759.57	5038.7	
759.75	6243.6	
759.92	7606.8	
760.1	6956.3	
760.28	6687.3	
760.46	6973.3	
760.64	6714.6	
760.82	6553.5	
760.99	6624.5	
761.17	5923.4	
761.35	7705.8	
761.53	6705	
761.71	6009.4	
761.89	6725.5	
762.06	7728.4	
762.24	7209.5	
762.42	6184.2	
762.6	5971.9	
762.78	7334.5	
762.96	7920.2	
763.13	6638.1	
763.31	6292	
763.49	8165.3	
763.67	7325.6	
763.85	7230.7	
764.02	7783.6	
764.2	8540	
764.38	7548.1	
764.56	6103.6	
764.74	7025.2	
764.91	8561.2	
765.09	7365.2	
765.27	5746.6	
765.45	5588.9	
765.63	8457.4	
765.8	8348.9	
765.98	5280.3	
766.16	5648.3	
766.34	6780.1	
766.52	6578.1	
766.69	6573.3	
766.87	5417.6	
767.05	7192.5	
767.23	7940.7	
767.41	5709.7	
767.58	5926.8	
767.76	7688.1	
767.94	7792.5	
768.12	5726.8	
768.29	6396.5	
768.47	7148.8	
768.65	7896.3	
768.83	5276.9	
769	6452.5	
769.18	6681.2	
769.36	7402.7	
769.54	6406	
769.72	5185.5	
769.89	7550.9	
770.07	7749.5	
770.25	5479	
770.43	6831.3	
770.6	8318.8	
770.78	8813.8	
770.96	5681.1	
771.14	5518.6	
771.31	7530.4	
771.49	6733.7	
771.67	4812	
771.85	5014.1	
772.02	5991	
772.2	6703.7	
772.38	5715.2	
772.55	5246.9	
772.73	6997.2	
772.91	6643.6	
773.09	5566.4	
773.26	5682.4	
773.44	6870.3	
773.62	6421.1	
773.8	5036	
773.97	4718.5	
774.15	6923.5	
774.33	6496.8	
774.5	4825.7	
774.68	5285.8	
774.86	7021.8	
775.04	6455.2	
775.21	4875.5	
775.39	4900.8	
775.57	6688	
775.74	7087.3	
775.92	4743.1	
776.1	4677.6	
776.27	6618.4	
776.45	7886	
776.63	4822.3	
776.81	4284.4	
776.98	6184.2	
777.16	7346.7	
777.34	4899.4	
777.51	5266.7	
777.69	6232	
777.87	5892.7	
778.04	4976.6	
778.22	5552	
778.4	5973.9	
778.57	6690	
778.75	4154	
778.93	4370.4	
779.1	5763.7	
779.28	5597.1	
779.46	4130.1	
779.64	4606.6	
779.81	6737.1	
779.99	7634.8	
780.17	5390.3	
780.34	5517.2	
780.52	6123.4	
780.69	6300.9	
780.87	4939	
781.05	4427	
781.22	6109.8	
781.4	6244.3	
781.58	4621.6	
781.75	3732.8	
781.93	6047.7	
782.11	5607.3	
782.28	5500.2	
782.46	4499.4	
782.64	5373.9	
782.81	6306.4	
782.99	4597	
783.17	4569	
783.34	6126.8	
783.52	5375.9	
783.69	4736.3	
783.87	5577.3	
784.05	5517.2	
784.22	5455.1	
784.4	5528.8	
784.58	4775.9	
784.75	6410.8	
784.93	5526.1	
785.1	4458.4	
785.28	5133.6	
785.46	6143.2	
785.63	5364.3	
785.81	4425	
785.99	4235.9	
786.16	5589.6	
786.34	5971.9	
786.51	4270.7	
786.69	4607.9	
786.87	5108.3	
787.04	5669.5	
787.22	4130.8	
787.39	5021.6	
787.57	5292	
787.75	6540.5	
787.92	5219.6	
788.1	5210.7	
788.27	5406.6	
788.45	5158.2	
788.63	4924	
788.8	3615.3	
788.98	5732.9	
789.15	4990.9	
789.33	3674.7	
789.5	4403.8	
789.68	6281.8	
789.86	6457.9	
790.03	4831.2	
790.21	4190.1	
790.38	6188.3	
790.56	5438.7	
790.73	4072	
790.91	4117.1	
791.09	5305.6	
791.26	6032.6	
791.44	4265.2	
791.61	3720.5	
791.79	5264	
791.96	5397.1	
792.14	3857	
792.32	3390.1	
792.49	5229.8	
792.67	5380	
792.84	3887.7	
793.02	3701.4	
793.19	5863.3	
793.37	6531.7	
793.54	3420.8	
793.72	3796.9	
793.89	6662.7	
794.07	5335	
794.25	4427.7	
794.42	3478.1	
794.6	6360.3	
794.77	5928.2	
794.95	4680.3	
795.12	4073.4	
795.3	5262.6	
795.47	5928.2	
795.65	4513.7	
795.82	4296.6	
796	5096	
796.17	7039.6	
796.35	4154.6	
796.52	4887.8	
796.7	5755.5	
796.87	5904.3	
797.05	5143.8	
797.22	5073.5	
797.4	5825.8	
797.57	6948.8	
797.75	4270	
797.92	3978.5	
798.1	6146	
798.27	5208	
798.45	3467.9	
798.62	3736.2	
798.8	5517.9	
798.97	6078.4	
799.15	4511	
799.32	4342.4	
799.5	4830.5	
799.67	5586.9	
799.85	4650.9	
800.02	3401	
800.2	5172.5	
800.37	5503.6	
800.55	4752.7	
800.72	3986	
800.9	6018.3	
801.07	6424.5	
801.25	5367.7	
801.42	4403.1	
801.6	6077.7	
801.77	5785.5	
801.95	4075.5	
802.12	3917.8	
802.29	5720.7	
802.47	5700.9	
802.64	4416.8	
802.82	3295.9	
802.99	5135.6	
803.17	6183.5	
803.34	4235.2	
803.52	3819.5	
803.69	6875	
803.87	4968.4	
804.04	4142.4	
804.21	4278.2	
804.39	6266.8	
804.56	5368.4	
804.74	3602.4	
804.91	4419.5	
805.09	5178.6	
805.26	5299.5	
805.44	3685.7	
805.61	4039.3	
805.78	5844.2	
805.96	5869.5	
806.13	4403.8	
806.31	4714.4	
806.48	4680.3	
806.66	5218.2	
806.83	4368.3	
807	4211.3	
807.18	5057.1	
807.35	5531.6	
807.53	4237.9	
807.7	3404.4	
807.87	6363	
808.05	5135.6	
808.22	4683	
808.4	3413.3	
808.57	5225.1	
808.74	4782	
808.92	3860.4	
809.09	4861.9	
809.27	5048.9	
809.44	5692.7	
809.61	3427.6	
809.79	3764.2	
809.96	6310.5	
810.14	5982.1	
810.31	3304.1	
810.48	4113	
810.66	5268.1	
810.83	6053.1	
811.01	3907.5	
811.18	4269.3	
811.35	5936.4	
811.53	4640.7	
811.7	4696.7	
811.87	4369	
812.05	5147.2	
812.22	5052.3	
812.39	3701.4	
812.57	3631	
812.74	5144.5	
812.92	6918.7	
813.09	3966.9	
813.26	4416.8	
813.44	6591	
813.61	5099.4	
813.78	3336.8	
813.96	4545.1	
814.13	5201.2	
814.3	4851	
814.48	4908.3	
814.65	4087.7	
814.82	6413.6	
815	4931.5	
815.17	4182	
815.34	5124	
815.52	5047.6	
815.69	5048.2	
815.87	4126	
816.04	3539.6	
816.21	5186.8	
816.38	4554.7	
816.56	3990.1	
816.73	3667.9	
816.9	6500.3	
817.08	5892	
817.25	3797.6	
817.42	4649.6	
817.6	4657.8	
817.77	5170.4	
817.94	4246.1	
818.12	3747.8	
818.29	4890.5	
818.46	7602.7	
818.64	3855.6	
818.81	3602.4	
818.98	4848.2	
819.16	7016.3	
819.33	4425	
819.5	4119.8	
819.67	5573.2	
819.85	6150.7	
820.02	4095.9	
820.19	4309.6	
820.37	5393	
820.54	4949.9	
820.71	4247.5	
820.88	5237.3	
821.06	5403.2	
821.23	4960.9	
821.4	4285	
821.58	4190.1	
821.75	5895.4	
821.92	5367.7	
822.09	3361.4	
822.27	3455.6	
822.44	5145.9	
822.61	4998.4	
822.79	3463.1	
822.96	6550.1	
823.13	5612.8	
823.3	4838	
823.48	3946.4	
823.65	3624.2	
823.82	5874.9	
823.99	4683	
824.17	4943.8	
824.34	3637.9	
824.51	6785.6	
824.68	5196.4	
824.86	3796.3	
825.03	4244.8	
825.2	5151.3	
825.37	6311.2	
825.55	3715	
825.72	4165.6	
825.89	6834.8	
826.06	6360.3	
826.24	4060.4	
826.41	4009.9	
826.58	6264.1	
826.75	5467.4	
826.92	3183.2	
827.1	3518.4	
827.27	8545.5	
827.44	6738.5	
827.61	3796.3	
827.79	4656.4	
827.96	4875.5	
828.13	5257.8	
828.3	4067.3	
828.47	3395.5	
828.65	5378.6	
828.82	5332.9	
828.99	5149.3	
829.16	4527.4	
829.34	5814.2	
829.51	5483.8	
829.68	4130.8	
829.85	4334.2	
830.02	6075.6	
830.2	5771.2	
830.37	3220.1	
830.54	5063.3	
830.71	6543.9	
830.88	5128.8	
831.05	3275.4	
831.23	3793.5	
831.4	6276.3	
831.57	7017	
831.74	3861.1	
831.91	3444.7	
832.09	5378	
832.26	5795.8	
832.43	3958.7	
832.6	4491.2	
832.77	5380.7	
832.94	6149.4	
833.12	3160	
833.29	3946.4	
833.46	4997	
833.63	7366.5	
833.8	4362.2	
833.97	3932.1	
834.15	5823.7	
834.32	5543.9	
834.49	4125.3	
834.66	4242	
834.83	5963	
835	4870.1	
835.17	3810.6	
835.35	3875.4	
835.52	5641.5	
835.69	5590.3	
835.86	4074.1	
836.03	3362.1	
836.2	5770.5	
836.37	5320.6	
836.55	3968.3	
836.72	3756	
836.89	5238.7	
837.06	5831.2	
837.23	4091.2	
837.4	4478.9	
837.57	6593.1	
837.75	7329	
837.92	3601	
838.09	3913.7	
838.26	5303.6	
838.43	6034	
838.6	4199	
838.77	3752.6	
838.94	6980.2	
839.11	6639.5	
839.29	3968.3	
839.46	3147	
839.63	5699.5	
839.8	5424.4	
839.97	3897.3	
840.14	3808.5	
840.31	5498.1	
840.48	5730.2	
840.65	3196.9	
840.82	3957.4	
841	5674.9	
841.17	5732.3	
841.34	3582.6	
841.51	3561.4	
841.68	5657.9	
841.85	5435.3	
842.02	3727.3	
842.19	3055.6	
842.36	5487.9	
842.53	5485.1	
842.7	3418.7	
842.87	4382.7	
843.05	7212.3	
843.22	5443.5	
843.39	3392.8	
843.56	3693.2	
843.73	5228.5	
843.9	5816.9	
844.07	5801.2	
844.24	4800.4	
844.41	8421.2	
844.58	4982	
844.75	3459	
844.92	3747.8	
845.09	5713.8	
845.26	5705	
845.43	3485	
845.6	3760.1	
845.77	5751.4	
845.94	5435.3	
846.12	3904.8	
846.29	4185.4	
846.46	5955.5	
846.63	5750.7	
846.8	3589.4	
846.97	4194.9	
847.14	6184.9	
847.31	5664.7	
847.48	4010.6	
847.65	4376.5	
847.82	5961.6	
847.99	5955.5	
848.16	4702.1	
848.33	4347.2	
848.5	5307.7	
848.67	6239.5	
848.84	3506.8	
849.01	3654.3	
849.18	5076.9	
849.35	4812.7	
849.52	4468	
849.69	3522.5	
849.86	5925.5	
850.03	6107.7	
850.2	3545	
850.37	4209.9	
850.54	6169.2	
850.71	5362.3	
850.88	4280.3	
851.05	3462.4	
851.22	5627.8	
851.39	6244.9	
851.56	3337.5	
851.73	4020.8	
851.9	5005.9	
852.07	5881.1	
852.24	3940.3	
852.41	3549.8	
852.58	5565.7	
852.75	5119.9	
852.92	3965.6	
853.09	3450.1	
853.26	5347.9	
853.43	6182.1	
853.6	3558	
853.77	2978.4	
853.94	6303	
854.11	5695.4	
854.28	5231.2	
854.44	3803.1	
854.61	6722.8	
854.78	5998.5	
854.95	3525.9	
855.12	4452.3	
855.29	4597.7	
855.46	6341.2	
855.63	3559.4	
855.8	4891.2	
855.97	5289.2	
856.14	6010.1	
856.31	5008.6	
856.48	3830.4	
856.65	5253.7	
856.82	4975.9	
856.99	3364.1	
857.16	3825.6	
857.33	6956.3	
857.49	5350.7	
857.66	3803.1	
857.83	4138.9	
858	5327.4	
858.17	5581.4	
858.34	3383.9	
858.51	3504.1	
858.68	6474.3	
858.85	6469.5	
859.02	4048.8	
859.19	4322.6	
859.36	4991.6	
859.52	5032.5	
859.69	3541.6	
859.86	4182.6	
860.03	5006.6	
860.2	6307.7	
860.37	3230.3	
860.54	3589.4	
860.71	5963	
860.88	6377.4	
861.05	3939.6	
861.21	4463.9	
861.38	6419.7	
861.55	4858.5	
861.72	3186.6	
861.89	3951.9	
862.06	6024.4	
862.23	6496.2	
862.4	3409.9	
862.56	3680.9	
862.73	5797.8	
862.9	5525.4	
863.07	4121.2	
863.24	3164.8	
863.41	4889.2	
863.58	5070.8	
863.75	3623.5	
863.91	4047.5	
864.08	6360.3	
864.25	5871.5	
864.42	4442.7	
864.59	4969.7	
864.76	6628.6	
864.93	5033.9	
865.09	3405.8	
865.26	3753.9	
865.43	6200.6	
865.6	6589	
865.77	3093.8	
865.94	3485	
866.1	6269.5	
866.27	5949.3	
866.44	5339.1	
866.61	3310.9	
866.78	5401.2	
866.95	5854.5	
867.11	3368.9	
867.28	3147	
867.45	6060.6	
867.62	5085.8	
867.79	4147.8	
867.96	3472.7	
868.12	4995	
868.29	6008.7	
868.46	3048.1	
868.63	4693.9	
868.8	6113.2	
868.97	5880.4	
869.13	3659.7	
869.3	3681.6	
869.47	5875.6	
869.64	6050.4	
869.81	3543.7	
869.97	3549.8	
870.14	5773.9	
870.31	6363	
870.48	3510.2	
870.65	4450.9	
870.81	5341.1	
870.98	5318.6	
871.15	4024.9	
871.32	3638.6	
871.48	5808.7	
871.65	6470.9	
871.82	3497.2	
871.99	3852.2	
872.16	6857.3	
872.32	6232.7	
872.49	3521.1	
872.66	3573	
872.83	5905.7	
872.99	5260.5	
873.16	4005.1	
873.33	3477.5	
873.5	5550	
873.67	5574.6	
873.83	3691.1	
874	4765.6	
874.17	5681.1	
874.34	6780.8	
874.5	4530.1	
874.67	4287.8	
874.84	6372.6	
875.01	5000.5	
875.17	4934.9	
875.34	3527.3	
875.51	5592.3	
875.68	6831.3	
875.84	4225.6	
876.01	5147.2	
876.18	5924.1	
876.34	5792.3	
876.51	3529.3	
876.68	3486.3	
876.85	5380	
877.01	6180.8	
877.18	5038.7	
877.35	3510.2	
877.52	5446.9	
877.68	4881.7	
877.85	3470.6	
878.02	3400.3	
878.18	5474.9	
878.35	5169.8	
878.52	2786.6	
878.69	3945.1	
878.85	5924.1	
879.02	5885.9	
879.19	4973.2	
879.35	3843.4	
879.52	5851.7	
879.69	6083.1	
879.86	3003	
880.02	3923.9	
880.19	5398.4	
880.36	6746.7	
880.52	4016.1	
880.69	4169	
880.86	6035.4	
881.02	6054.5	
881.19	3814.7	
881.36	3818.8	
881.52	5771.2	
881.69	5159.5	
881.86	3806.5	
882.02	3684.3	
882.19	6211.5	
882.36	7203.4	
882.52	3569.6	
882.69	4957.4	
882.86	5698.8	
883.02	5570.5	
883.19	4270.7	
883.36	4009.2	
883.52	5969.1	
883.69	6781.5	
883.86	3547.8	
884.02	3168.9	
884.19	5986.9	
884.36	5515.9	
884.52	4004.5	
884.69	3716.4	
884.86	5251.7	
885.02	6567.8	
885.19	3917.8	
885.36	4050.2	
885.52	5496.7	
885.69	5583.4	
885.86	5109	
886.02	4514.4	
886.19	5932.3	
886.35	5390.9	
886.52	3831.1	
886.69	4885.8	
886.85	5001.8	
887.02	6323.4	
887.19	6323.4	
887.35	6323.4	
887.52	6323.4	
887.68	6323.4	
887.85	6323.4	
888.02	6323.4	
888.18	6323.4	
888.35	6323.4	
888.51	6323.4	
888.68	6323.4	
888.85	6323.4	
889.01	6323.4	
889.18	6323.4	
889.35	6323.4	
889.51	6323.4	
889.68	6323.4	
889.84	6323.4	
890.01	6323.4	
890.17	6323.4	
890.34	6323.4	
890.51	6323.4	
890.67	6323.4	
890.84	6323.4	
891	6323.4	
891.17	6323.4	
891.34	6323.4	
891.5	6323.4	
891.67	6323.4	
891.83	6323.4	
892	6323.4	
892.16	6323.4	
892.33	6323.4	
892.5	6323.4	
892.66	6323.4	
892.83	6323.4	
892.99	6323.4	
893.16	6323.4	
893.32	6323.4	
893.49	6323.4	
893.65	6323.4	
893.82	6323.4	
893.99	6323.4	
894.15	6323.4	
894.32	6323.4	
894.48	6323.4	
894.65	6323.4	
894.81	6323.4	
894.98	6323.4	
895.14	6323.4	
895.31	6323.4	
895.47	6323.4	
895.64	6323.4	
895.81	6323.4	
895.97	6323.4	
896.14	6323.4	
896.3	6323.4	
896.47	6323.4	
896.63	6323.4	
896.8	6323.4	
896.96	6323.4	
897.13	6323.4	
897.29	6323.4	
897.46	6323.4	
897.62	6323.4	
897.79	6323.4	
897.95	6323.4	
898.12	6323.4	
898.28	6323.4	
898.45	6323.4	
898.61	6323.4	
898.78	6323.4	
898.94	6323.4	
899.11	6323.4	
899.27	6323.4	
899.44	6323.4	
899.6	6323.4	
899.77	6323.4	
899.93	6323.4	
900.1	6323.4	
900.26	6323.4	
900.43	6323.4	
900.59	6323.4	
900.76	6323.4	
900.92	6323.4	
901.09	6323.4	
901.25	6323.4	
901.42	6323.4	
901.58	6323.4	
901.75	6323.4	
901.91	6323.4	
902.07	6323.4	
902.24	6323.4	
902.4	6323.4	
902.57	6323.4	
902.73	6323.4	
902.9	6323.4	
903.06	6323.4	
903.23	6323.4	
903.39	6323.4	
903.56	6323.4	
903.72	6323.4	
903.88	6323.4	
904.05	6323.4	
904.21	6323.4	
904.38	6323.4	
904.54	6323.4	
904.71	6323.4	
904.87	6323.4	
905.03	6323.4	
905.2	6323.4	
905.36	6323.4	
905.53	6323.4	
905.69	6323.4	
905.86	6323.4	
906.02	6323.4	
906.18	6323.4	
906.35	6323.4	
906.51	6323.4	
906.68	6323.4	
906.84	6323.4	
907.01	6323.4	
907.17	6323.4	
907.33	6323.4	
907.5	6323.4	
907.66	6323.4	
907.83	6323.4	
907.99	6323.4	
908.15	6323.4	
908.32	6323.4	
908.48	6323.4	
908.65	6323.4	
908.81	6323.4	
908.97	6323.4	
909.14	6323.4	
909.3	6323.4	
909.47	6323.4	
909.63	6323.4	
909.79	6323.4	
909.96	6323.4	
910.12	6323.4	
910.28	6323.4	
910.45	6323.4	
910.61	6323.4	
910.78	6323.4	
910.94	6323.4	
911.1	6323.4	
911.27	6323.4	
911.43	6323.4	
911.59	6323.4	
911.76	6323.4	
911.92	6323.4	
912.08	6323.4	
912.25	6323.4	
912.41	6323.4	
912.57	6323.4	
912.74	6323.4	
912.9	6323.4	
913.07	6323.4	
913.23	6323.4	
913.39	6323.4	
913.56	6323.4	
913.72	6323.4	
913.88	6323.4	
914.05	6323.4	
914.21	6323.4	
914.37	6323.4	
914.54	6323.4	
914.7	6323.4	
914.86	6323.4	
915.03	6323.4	
915.19	6323.4	
