Wavelength	Intensities	
nm	a.u.	
179.22	1739.9	
179.44	1735	
179.65	1744.9	
179.86	1725.1	
180.08	1761.3	
180.29	4173.8	
180.51	3136.8	
180.72	5161.6	
180.94	5862	
181.15	2925.9	
181.37	2865.8	
181.58	5001.1	
181.79	5184.8	
182.01	2974.3	
182.22	3229	
182.44	5294	
182.65	4487.8	
182.87	3912.3	
183.08	3482.2	
183.29	5595.7	
183.51	4640.7	
183.72	3224.2	
183.94	4539.7	
184.15	4964.3	
184.37	4914.4	
184.58	2887.6	
184.79	3771	
185.01	4622.9	
185.22	5277.6	
185.44	3962.1	
185.65	3424.9	
185.86	4920.6	
186.08	4505.5	
186.29	2806.4	
186.51	2963.4	
186.72	4659.1	
186.94	5333.6	
187.15	3398.3	
187.36	3518.4	
187.58	6778.8	
187.79	5091.3	
188.01	3682.2	
188.22	5491.3	
188.43	5920	
188.65	5233.9	
188.86	2990.7	
189.08	3527.3	
189.29	4792.2	
189.5	4767	
189.72	3272	
189.93	3338.2	
190.15	5387.5	
190.36	6373.3	
190.57	3571	
190.79	3528	
191	5462.6	
191.22	5396.4	
191.43	3607.8	
191.64	3048.1	
191.86	5607.3	
192.07	5455.8	
192.29	3142.3	
192.5	3244.7	
192.71	5418.9	
192.93	4759.5	
193.14	3189.4	
193.35	3301.3	
193.57	4752.7	
193.78	5462.6	
194	2674.6	
194.21	3211.2	
194.42	4564.9	
194.64	4984.8	
194.85	3512.3	
195.07	4004.5	
195.28	4940.4	
195.49	4383.3	
195.71	4250.2	
195.92	3065.8	
196.13	5115.8	
196.35	5193	
196.56	4470.7	
196.78	3535.5	
196.99	6264.7	
197.2	5924.1	
197.42	3977.8	
197.63	3588	
197.84	4468.7	
198.06	5169.1	
198.27	3300.6	
198.48	4213.4	
198.7	4793.6	
198.91	4911	
199.13	3530.7	
199.34	3566.2	
199.55	5358.9	
199.77	4332.8	
199.98	3120.4	
200.19	3631.7	
200.41	4848.9	
200.62	4668.7	
200.83	3659	
201.05	3876.1	
201.26	4895.3	
201.47	4683	
201.69	3173	
201.9	3119.1	
202.11	4976.6	
202.33	5751.4	
202.54	3358	
202.76	3675.4	
202.97	5042.8	
203.18	5081.7	
203.4	3657	
203.61	3667.9	
203.82	5070.1	
204.04	4687.8	
204.25	3540.9	
204.46	3532.7	
204.68	5023.7	
204.89	5159.5	
205.1	3454.9	
205.32	3077.4	
205.53	5281	
205.74	5421	
205.96	2652.1	
206.17	3562.8	
206.38	5259.9	
206.6	5414.1	
206.81	4078.9	
207.02	3372.3	
207.24	5156.8	
207.45	5507	
207.66	3390.8	
207.88	2968.2	
208.09	5101.5	
208.3	4947.9	
208.52	3142.3	
208.73	3437.2	
208.94	5018.2	
209.15	5533.6	
209.37	3376.4	
209.58	3826.3	
209.79	5399.8	
210.01	4810	
210.22	2757.2	
210.43	2917	
210.65	4916.5	
210.86	5274.9	
211.07	3401.7	
211.29	3138.9	
211.5	5190.2	
211.71	4933.6	
211.93	3151.1	
212.14	3136.8	
212.35	4922.6	
212.56	5018.2	
212.78	3634.5	
212.99	2950.4	
213.2	5697.4	
213.42	4766.3	
213.63	3214.6	
213.84	3428.3	
214.06	4496	
214.27	4517.1	
214.48	3410.6	
214.69	3586	
214.91	5511.8	
215.12	5595.1	
215.33	3580.5	
215.55	3928	
215.76	5965.1	
215.97	5227.1	
216.18	3454.2	
216.4	3419.4	
216.61	4672.8	
216.82	5390.9	
217.04	3190.1	
217.25	3251.5	
217.46	5487.2	
217.67	5261.9	
217.89	2884.2	
218.1	2994.8	
218.31	5018.9	
218.53	5125.4	
218.74	3307.5	
218.95	3198.9	
219.16	4959.5	
219.38	5802.6	
219.59	3216.7	
219.8	3772.4	
220.01	6186.9	
220.23	4958.1	
220.44	4048.2	
220.65	3117	
220.87	5048.9	
221.08	5535.7	
221.29	2955.9	
221.5	3850.9	
221.72	6496.2	
221.93	4770.4	
222.14	3535.5	
222.35	4131.4	
222.57	4909.7	
222.78	5369.1	
222.99	3441.3	
223.2	3723.9	
223.42	5139.7	
223.63	5275.6	
223.84	2644.6	
224.05	2693.1	
224.27	6181.5	
224.48	5689.3	
224.69	4114.4	
224.9	3529.3	
225.12	5123.3	
225.33	4913.8	
225.54	2883.5	
225.75	3181.2	
225.97	4601.1	
226.18	4891.9	
226.39	3378.5	
226.6	3180.5	
226.82	4798.4	
227.03	4616.8	
227.24	3565.5	
227.45	2970.9	
227.67	5300.1	
227.88	5741.1	
228.09	3916.4	
228.3	3985.3	
228.52	5330.2	
228.73	4930.8	
228.94	3281.5	
229.15	3019.4	
229.36	4931.5	
229.58	4829.8	
229.79	3340.9	
230	3810.6	
230.21	5844.2	
230.43	5018.2	
230.64	3523.2	
230.85	3629.7	
231.06	5353.4	
231.28	5300.1	
231.49	2964.8	
231.7	3473.4	
231.91	5286.5	
232.12	4928.1	
232.34	3067.2	
232.55	3442	
232.76	5513.1	
232.97	5074.2	
233.18	3136.1	
233.4	3483.6	
233.61	5125.4	
233.82	4765.6	
234.03	3309.5	
234.25	3291.1	
234.46	6627.2	
234.67	4916.5	
234.88	3609.2	
235.09	3203	
235.31	5109	
235.52	4824.3	
235.73	3491.8	
235.94	3003.7	
236.15	4728.1	
236.37	5845.6	
236.58	3153.9	
236.79	3395.5	
237	5185.5	
237.21	4563.6	
237.43	3648.1	
237.64	2917	
237.85	8392.6	
238.06	4668.7	
238.27	3657	
238.48	3009.8	
238.7	5210	
238.91	4843.4	
239.12	3335.5	
239.33	3461.1	
239.54	4642.7	
239.76	4858.5	
239.97	3375.1	
240.18	3407.1	
240.39	5994.4	
240.6	5109	
240.82	3545	
241.03	2936.8	
241.24	4931.5	
241.45	5647.6	
241.66	3118.4	
241.87	3716.4	
242.09	5546.6	
242.3	5813.5	
242.51	3653.6	
242.72	3369.6	
242.93	5303.6	
243.14	4928.1	
243.36	3872	
243.57	4222.9	
243.78	5656.5	
243.99	5286.5	
244.2	3401.7	
244.41	3157.3	
244.63	4600.4	
244.84	5231.9	
245.05	3678.2	
245.26	3387.3	
245.47	5221	
245.68	5373.9	
245.9	4424.3	
246.11	3601.7	
246.32	4756.1	
246.53	5173.2	
246.74	5343.2	
246.95	2921.8	
247.16	4602.5	
247.38	4988.9	
247.59	2944.3	
247.8	3435.1	
248.01	4673.5	
248.22	4922.6	
248.43	3140.9	
248.64	3361.4	
248.86	4455.7	
249.07	4805.2	
249.28	3123.8	
249.49	3529.3	
249.7	5478.3	
249.91	5504.3	
250.12	2953.2	
250.34	2956.6	
250.55	5084.4	
250.76	4973.8	
250.97	3564.1	
251.18	3526.6	
251.39	5521.3	
251.6	5076.9	
251.81	3538.9	
252.03	3549.1	
252.24	4760.8	
252.45	5364.3	
252.66	3003.7	
252.87	3760.8	
253.08	4981.3	
253.29	6223.1	
253.5	3021.4	
253.72	4072	
253.93	4861.9	
254.14	5785.5	
254.35	3327.3	
254.56	3328.6	
254.77	5227.1	
254.98	4667.3	
255.19	3245.3	
255.41	4096.6	
255.62	5089.2	
255.83	5499.5	
256.04	3599.6	
256.25	3581.9	
256.46	5962.3	
256.67	4762.2	
256.88	3546.4	
257.09	3874.1	
257.31	4606.6	
257.52	4730.8	
257.73	4336.2	
257.94	3245.3	
258.15	4904.2	
258.36	4954.7	
258.57	4104.8	
258.78	2661.7	
258.99	5322	
259.2	4887.8	
259.41	3242.6	
259.63	3392.8	
259.84	5689.3	
260.05	5951.4	
260.26	4188.8	
260.47	3235.8	
260.68	5473.5	
260.89	4851	
261.1	3871.3	
261.31	3142.3	
261.52	5506.3	
261.73	5741.8	
261.95	4175.1	
262.16	3633.8	
262.37	5479	
262.58	5635.3	
262.79	4143.7	
263	3327.9	
263.21	4991.6	
263.42	4845.5	
263.63	3442.6	
263.84	3310.2	
264.05	5449	
264.26	5722.7	
264.47	4050.9	
264.69	3647.4	
264.9	5609.4	
265.11	5128.8	
265.32	3131.3	
265.53	3241.3	
265.74	5101.5	
265.95	4503.5	
266.16	3422.8	
266.37	3869.3	
266.58	5138.4	
266.79	4812	
267	3261.7	
267.21	3084.2	
267.42	4616.8	
267.63	4970.4	
267.84	3382.6	
268.06	3005.1	
268.27	5318.6	
268.48	5582.1	
268.69	3343.7	
268.9	3925.3	
269.11	5543.9	
269.32	4511.7	
269.53	3403	
269.74	3182.5	
269.95	5213.4	
270.16	4461.8	
270.37	3448.1	
270.58	3925.3	
270.79	4868.7	
271	5437.4	
271.21	3633.8	
271.42	3386.7	
271.63	5091.9	
271.84	4635.2	
272.05	2798.9	
272.26	3102	
272.47	4980	
272.68	5128.1	
272.89	3252.2	
273.11	3728.7	
273.32	4833.9	
273.53	5712.5	
273.74	3676.1	
273.95	3580.5	
274.16	5421	
274.37	5004.6	
274.58	3736.9	
274.79	3049.4	
275	5081	
275.21	5461.2	
275.42	4430.4	
275.63	3808.5	
275.84	5188.2	
276.05	6391	
276.26	3614	
276.47	3425.6	
276.68	4873.5	
276.89	5762.3	
277.1	3797.6	
277.31	2990.7	
277.52	5129.5	
277.73	5431.2	
277.94	2994.8	
278.15	3302	
278.36	5150.6	
278.57	4706.2	
278.78	3295.9	
278.99	3704.1	
279.2	4723.3	
279.41	4653	
279.62	4252.3	
279.83	3093.8	
280.04	5954.1	
280.25	4601.8	
280.46	4277.5	
280.67	3426.9	
280.88	4703.5	
281.09	5509	
281.3	3586.7	
281.51	4453	
281.72	4734.9	
281.93	5396.4	
282.14	3243.3	
282.35	3431.7	
282.56	5425.8	
282.77	5385.5	
282.98	3337.5	
283.19	3987.4	
283.4	6416.3	
283.61	4973.2	
283.82	3056.9	
284.03	4171.7	
284.24	5089.9	
284.45	5525.4	
284.66	4212.7	
284.87	4005.8	
285.08	5410.7	
285.29	5608	
285.5	2965.5	
285.71	3354.6	
285.92	5444.2	
286.12	6033.3	
286.33	4167.6	
286.54	3398.9	
286.75	5335.6	
286.96	4858.5	
287.17	3111.5	
287.38	4024.9	
287.59	4732.2	
287.8	4659.8	
288.01	3309.5	
288.22	3794.9	
288.43	5352	
288.64	4558.8	
288.85	3935.5	
289.06	3788.1	
289.27	5390.3	
289.48	5722.7	
289.69	4222.9	
289.9	3809.2	
290.11	5523.4	
290.32	4756.1	
290.53	4013.3	
290.74	3612.6	
290.94	5373.9	
291.15	5365	
291.36	3229	
291.57	3803.8	
291.78	4803.2	
291.99	4526	
292.2	3121.8	
292.41	3680.2	
292.62	5455.1	
292.83	5244.2	
293.04	4493.9	
293.25	3157.3	
293.46	4868	
293.67	5409.4	
293.88	3205.1	
294.09	3140.2	
294.29	4629.8	
294.5	5089.2	
294.71	3424.2	
294.92	3258.3	
295.13	4878.3	
295.34	5865.4	
295.55	2932.7	
295.76	2889.7	
295.97	5338.4	
296.18	5874.9	
296.39	3067.2	
296.6	3216	
296.81	5024.3	
297.01	5337.7	
297.22	3369.6	
297.43	3237.8	
297.64	4732.9	
297.85	4640	
298.06	2714.2	
298.27	2908.1	
298.48	5005.2	
298.69	4747.9	
298.9	3463.1	
299.11	3160	
299.31	4600.4	
299.52	4650.3	
299.73	3672.7	
299.94	3578.5	
300.15	4990.9	
300.36	4672.1	
300.57	3658.4	
300.78	3626.3	
300.99	4872.8	
301.2	5075.5	
301.4	3223.5	
301.61	3452.9	
301.82	5294	
302.03	5300.8	
302.24	3837.9	
302.45	3130	
302.66	5175.2	
302.87	5485.8	
303.08	3231.7	
303.29	4291.2	
303.49	4787.5	
303.7	4952	
303.91	2911.5	
304.12	4178.5	
304.33	4515.1	
304.54	5098.8	
304.75	3216.7	
304.96	3124.5	
305.16	5238.7	
305.37	5851.7	
305.58	2930	
305.79	3014.6	
306	5233.2	
306.21	4523.3	
306.42	3237.2	
306.63	4795	
306.83	4884.4	
307.04	5307.7	
307.25	3575.8	
307.46	3555.3	
307.67	4382	
307.88	5330.9	
308.09	3182.5	
308.29	3303.4	
308.5	5061.9	
308.71	5487.9	
308.92	3409.2	
309.13	3102.7	
309.34	4922.6	
309.55	4936.3	
309.75	4026.3	
309.96	3628.3	
310.17	5339.7	
310.38	4726	
310.59	3756.7	
310.8	3050.1	
311.01	4825.7	
311.21	4887.8	
311.42	3122.5	
311.63	3204.4	
311.84	4795.7	
312.05	5078.3	
312.26	3625.6	
312.46	3885.7	
312.67	4834.6	
312.88	4606.6	
313.09	3135.4	
313.3	3066.5	
313.51	5649	
313.71	5935.7	
313.92	3097.9	
314.13	3345.7	
314.34	5196.4	
314.55	4958.8	
314.76	3933.5	
314.96	3479.5	
315.17	5105.6	
315.38	5356.1	
315.59	3179.8	
315.8	3019.4	
316.01	5667.4	
316.21	5718.6	
316.42	3061	
316.63	3472.7	
316.84	4877.6	
317.05	5558.9	
317.26	3675.4	
317.46	3323.2	
317.67	4979.3	
317.88	5324.7	
318.09	3857	
318.3	2943.6	
318.5	4815.5	
318.71	5231.2	
318.92	4878.9	
319.13	3667.2	
319.34	5399.1	
319.54	5506.3	
319.75	2990	
319.96	2831.7	
320.17	5253	
320.38	5456.5	
320.58	2876.7	
320.79	3429.7	
321	5492	
321.21	5532.2	
321.42	3506.1	
321.62	2877.4	
321.83	4702.8	
322.04	4986.8	
322.25	3345.7	
322.46	3120.4	
322.66	5094.7	
322.87	5262.6	
323.08	3764.2	
323.29	3067.2	
323.5	5817.6	
323.7	4611.3	
323.91	4194.9	
324.12	3758.7	
324.33	5084.4	
324.53	5225.1	
324.74	3693.9	
324.95	3786.7	
325.16	4469.4	
325.37	4864.6	
325.57	3149.8	
325.78	3226.9	
325.99	5080.3	
326.2	4633.9	
326.4	4388.1	
326.61	2942.9	
326.82	4903.5	
327.03	5129.5	
327.24	4397	
327.44	4067.9	
327.65	5207.3	
327.86	4310.3	
328.07	3629.7	
328.27	3062.4	
328.48	5489.2	
328.69	4668.7	
328.9	4425.7	
329.1	3375.7	
329.31	4851.6	
329.52	5636	
329.73	3186	
329.93	3478.8	
330.14	4998.4	
330.35	5220.3	
330.56	5024.3	
330.76	3794.2	
330.97	4881.7	
331.18	5159.5	
331.39	3467.2	
331.59	2837.1	
331.8	5507	
332.01	5568.4	
332.22	3270.6	
332.42	3700	
332.63	5058.5	
332.84	4724	
333.05	3540.9	
333.25	3179.1	
333.46	4803.2	
333.67	4975.9	
333.88	3323.2	
334.08	3611.3	
334.29	6490	
334.5	5501.5	
334.7	3132.7	
334.91	4397.7	
335.12	4595	
335.33	5269.4	
335.53	3492.5	
335.74	4982.7	
335.95	4855.1	
336.16	4659.8	
336.36	3495.2	
336.57	3960.1	
336.78	4631.8	
336.98	5459.2	
337.19	4259.8	
337.4	3446.7	
337.61	5910.4	
337.81	4587.4	
338.02	3199.6	
338.23	4066.6	
338.43	5655.8	
338.64	4681	
338.85	3170.3	
339.05	4033.8	
339.26	5763.7	
339.47	4522.6	
339.68	3169.6	
339.88	4558.1	
340.09	5195	
340.3	5373.9	
340.5	3595.6	
340.71	2883.5	
340.92	4592.9	
341.13	5566.4	
341.33	3070.6	
341.54	3689.1	
341.75	5208.7	
341.95	4863.9	
342.16	3504.8	
342.37	3776.5	
342.57	4627	
342.78	4952	
342.99	3890.5	
343.19	2851.5	
343.4	5387.5	
343.61	5272.8	
343.81	3401	
344.02	3052.2	
344.23	5311.1	
344.43	5693.4	
344.64	3915	
344.85	3759.4	
345.06	5271.5	
345.26	5524.1	
345.47	3697.9	
345.68	4260.5	
345.88	4487.1	
346.09	5395.7	
346.3	3650.8	
346.5	2879.4	
346.71	4995.7	
346.92	4823	
347.12	2965.5	
347.33	3593.5	
347.54	5479	
347.74	5768.4	
347.95	3613.3	
348.16	2818	
348.36	4851	
348.57	4711	
348.78	3641.3	
348.98	3844	
349.19	4976.6	
349.39	4554	
349.6	2977.7	
349.81	3246	
350.01	5240.8	
350.22	4785.4	
350.43	3531.4	
350.63	4178.5	
350.84	5059.2	
351.05	4816.8	
351.25	3237.8	
351.46	2957.9	
351.67	5481	
351.87	4796.3	
352.08	3429	
352.29	3876.1	
352.49	5403.2	
352.7	5141.1	
352.9	3187.3	
353.11	3882.3	
353.32	6018.3	
353.52	4917.9	
353.73	3152.5	
353.94	3923.2	
354.14	5261.9	
354.35	5132.9	
354.55	3248.1	
354.76	3609.2	
354.97	5339.7	
355.17	5063.9	
355.38	3105.4	
355.59	4194.2	
355.79	4846.9	
356	5134.3	
356.2	3571	
356.41	3219.4	
356.62	4657.1	
356.82	4958.1	
357.03	3835.8	
357.24	3476.1	
357.44	4835.3	
357.65	4943.8	
357.85	4473.4	
358.06	3605.1	
358.27	4657.8	
358.47	4857.1	
358.68	3136.8	
358.88	3871.3	
359.09	5448.3	
359.3	5634.6	
359.5	4379.9	
359.71	3984.7	
359.91	6044.2	
360.12	5474.2	
360.33	3857	
360.53	4352.6	
360.74	5022.3	
360.94	5005.9	
361.15	4065.9	
361.36	3457.7	
361.56	5703.6	
361.77	5210	
361.97	4500.8	
362.18	3635.8	
362.38	5648.3	
362.59	4889.9	
362.8	3429	
363	3317.7	
363.21	4749.9	
363.41	5253.7	
363.62	3903.4	
363.83	4722.6	
364.03	5416.2	
364.24	6206.7	
364.44	4815.5	
364.65	4852.3	
364.85	5237.3	
365.06	4995.7	
365.27	3736.2	
365.47	3762.8	
365.68	6069.5	
365.88	5205.3	
366.09	4015.4	
366.29	3757.3	
366.5	5486.5	
366.71	5830.6	
366.91	4929.5	
367.12	4189.5	
367.32	6324.1	
367.53	5699.5	
367.73	4206.5	
367.94	5014.8	
368.14	5726.1	
368.35	6465.4	
368.56	4222.9	
368.76	3642	
368.97	5821	
369.17	7142.6	
369.38	3793.5	
369.58	3963.5	
369.79	4952.7	
369.99	6150.7	
370.2	4778.6	
370.4	4094.6	
370.61	5680.4	
370.82	6639.5	
371.02	4071.4	
371.23	3461.1	
371.43	5025	
371.64	6171.9	
371.84	4133.5	
372.05	5030.5	
372.25	7153.6	
372.46	5872.9	
372.66	4197.7	
372.87	4072.7	
373.07	6012.2	
373.28	7335.8	
373.48	4985.4	
373.69	4818.9	
373.9	5629.2	
374.1	5676.3	
374.31	4963.6	
374.51	4625.7	
374.72	6380.8	
374.92	5394.3	
375.13	5214.1	
375.33	4534.2	
375.54	6069.5	
375.74	5698.8	
375.95	4755.4	
376.15	5758.9	
376.36	6222.4	
376.56	6087.9	
376.77	4775.9	
376.97	5108.3	
377.18	7249.1	
377.38	6397.9	
377.59	5470.8	
377.79	4497.3	
378	6229.9	
378.2	6630	
378.41	4616.8	
378.61	4537.6	
378.82	6685.3	
379.02	6070.9	
379.23	4726.7	
379.43	5709.1	
379.64	6840.9	
379.84	6500.3	
380.05	4690.5	
380.25	4605.9	
380.46	6587	
380.66	6230.6	
380.87	5716.6	
381.07	6050.4	
381.28	7065.5	
381.48	6575.3	
381.69	4729.4	
381.89	4767.7	
382.1	5737	
382.3	6660	
382.51	5556.1	
382.71	6346.7	
382.91	6532.3	
383.12	6984.9	
383.32	4954	
383.53	5133.6	
383.73	6444.3	
383.94	6361.7	
384.14	5092.6	
384.35	4402.5	
384.55	6176.7	
384.76	6563.1	
384.96	4975.9	
385.17	5193.6	
385.37	6581.5	
385.58	5909.8	
385.78	5124	
385.98	4292.5	
386.19	6080.4	
386.39	6466.1	
386.6	4729.4	
386.8	4984.8	
387.01	6587.6	
387.21	6560.3	
387.42	5294	
387.62	5793.7	
387.83	6154.1	
388.03	6535.1	
388.23	5096.7	
388.44	5745.2	
388.64	5896.1	
388.85	6094.1	
389.05	5461.2	
389.26	6028.5	
389.46	7523.6	
389.67	7301	
389.87	5656.5	
390.07	5677.7	
390.28	6636.1	
390.48	6335.7	
390.69	5041.4	
390.89	5240.8	
391.1	6428.6	
391.3	7158.3	
391.5	6215.6	
391.71	6726.2	
391.91	7050.5	
392.12	7854.6	
392.32	6379.4	
392.53	5735.7	
392.73	6685.3	
392.93	6818.4	
393.14	5564.3	
393.34	6144.6	
393.55	7090.1	
393.75	6701	
393.95	5405.3	
394.16	5335	
394.36	6471.6	
394.57	7009.5	
394.77	4984.1	
394.98	5269.4	
395.18	6516	
395.38	6674.3	
395.59	6230.6	
395.79	5375.9	
396	6845	
396.2	7124.9	
396.4	6135	
396.61	6225.8	
396.81	7468.9	
397.02	6934.4	
397.22	6549.4	
397.42	6605.4	
397.63	7652.6	
397.83	7044.3	
398.04	5689.3	
398.24	6235.4	
398.44	7367.9	
398.65	6766.5	
398.85	5649.7	
399.05	5734.3	
399.26	7196.6	
399.46	8493.6	
399.67	6206	
399.87	5899.5	
400.07	7565.9	
400.28	7790.5	
400.48	6082.5	
400.69	7035.5	
400.89	8024.6	
401.09	8487.5	
401.3	6158.9	
401.5	7038.2	
401.7	8849.3	
401.91	9060.2	
402.11	6688	
402.32	6718.7	
402.52	8467.7	
402.72	8192.6	
402.93	7002.7	
403.13	5900.2	
403.33	8796	
403.54	7653.9	
403.74	6434	
403.94	7004.1	
404.15	7456	
404.35	8420.6	
404.56	6108.4	
404.76	7473	
404.96	7916.1	
405.17	7667.6	
405.37	7310.6	
405.57	6641.6	
405.78	8265.6	
405.98	7671.7	
406.18	6560.3	
406.39	7307.2	
406.59	8317.5	
406.79	7902.4	
407	6242.9	
407.2	6270.2	
407.4	8256.7	
407.61	8426.7	
407.81	6326.2	
408.01	7954.3	
408.22	7544.7	
408.42	9359.9	
408.62	7711.3	
408.83	7421.2	
409.03	8775.5	
409.23	8626.7	
409.44	7786.4	
409.64	8069.7	
409.84	9850.7	
410.05	9945.6	
410.25	8379.6	
410.45	8209.6	
410.66	9921.7	
410.86	11804	
411.06	9106.6	
411.27	8859.5	
411.47	12191	
411.67	10323	
411.88	9145.5	
412.08	9729.2	
412.28	11017	
412.49	11563	
412.69	9470.5	
412.89	9601.6	
413.09	11523	
413.3	11527	
413.5	9796.8	
413.7	9458.2	
413.91	10948	
414.11	11821	
414.31	9856.2	
414.52	10386	
414.72	11500	
414.92	11701	
415.12	9830.2	
415.33	10452	
415.53	12118	
415.73	12353	
415.94	10731	
416.14	10319	
416.34	11568	
416.55	11174	
416.75	11378	
416.95	10989	
417.15	12562	
417.36	12785	
417.56	11916	
417.76	11074	
417.97	12879	
418.17	12825	
418.37	10845	
418.57	11022	
418.78	12783	
418.98	12314	
419.18	11785	
419.38	11471	
419.59	12383	
419.79	11934	
419.99	10882	
420.2	11038	
420.4	12799	
420.6	12811	
420.8	10853	
421.01	10689	
421.21	12882	
421.41	12882	
421.61	11120	
421.82	10996	
422.02	12516	
422.22	13086	
422.42	11825	
422.63	11071	
422.83	12541	
423.03	13691	
423.23	11256	
423.44	10507	
423.64	12557	
423.84	12031	
424.04	10842	
424.25	10613	
424.45	13026	
424.65	13033	
424.85	10337	
425.06	10813	
425.26	13161	
425.46	12175	
425.66	11102	
425.87	10977	
426.07	12884	
426.27	12669	
426.47	11141	
426.67	10417	
426.88	13003	
427.08	12648	
427.28	11554	
427.48	10385	
427.69	11619	
427.89	12267	
428.09	11226	
428.29	10381	
428.5	12943	
428.7	12509	
428.9	10555	
429.1	10799	
429.3	12508	
429.51	12991	
429.71	10699	
429.91	11557	
430.11	13037	
430.31	13320	
430.52	11279	
430.72	11751	
430.92	13722	
431.12	13269	
431.32	11312	
431.53	11415	
431.73	12559	
431.93	13857	
432.13	11156	
432.33	11190	
432.54	12802	
432.74	13171	
432.94	11325	
433.14	11921	
433.34	13456	
433.55	13461	
433.75	12219	
433.95	14045	
434.15	13452	
434.35	13410	
434.56	11634	
434.76	11632	
434.96	13778	
435.16	14400	
435.36	11872	
435.56	13127	
435.77	13872	
435.97	14146	
436.17	13769	
436.37	13164	
436.57	13915	
436.78	14301	
436.98	13892	
437.18	13655	
437.38	15119	
437.58	14100	
437.78	13812	
437.99	12667	
438.19	14534	
438.39	15345	
438.59	12678	
438.79	12083	
438.99	14922	
439.2	13879	
439.4	11654	
439.6	11845	
439.8	14091	
440	15062	
440.2	13127	
440.4	13308	
440.61	15008	
440.81	15629	
441.01	13016	
441.21	14256	
441.41	16101	
441.61	15606	
441.81	14716	
442.02	15488	
442.22	16542	
442.42	15950	
442.62	13848	
442.82	13485	
443.02	16528	
443.22	15819	
443.43	14230	
443.63	13769	
443.83	15325	
444.03	15494	
444.23	15208	
444.43	14870	
444.63	16358	
444.83	17204	
445.04	14642	
445.24	15767	
445.44	16522	
445.64	16713	
445.84	14745	
446.04	15056	
446.24	15841	
446.44	16645	
446.65	13881	
446.85	14607	
447.05	15369	
447.25	16473	
447.45	14301	
447.65	13842	
447.85	15885	
448.05	14955	
448.25	14840	
448.46	14627	
448.66	15990	
448.86	15499	
449.06	14004	
449.26	14748	
449.46	16407	
449.66	15447	
449.86	14805	
450.06	14684	
450.26	15927	
450.47	16610	
450.67	14632	
450.87	15274	
451.07	16815	
451.27	16691	
451.47	14472	
451.67	15376	
451.87	16561	
452.07	17072	
452.27	15202	
452.47	14885	
452.67	16655	
452.88	17259	
453.08	14259	
453.28	16252	
453.48	18098	
453.68	16307	
453.88	15290	
454.08	15148	
454.28	17292	
454.48	16930	
454.68	15561	
454.88	16014	
455.08	17340	
455.28	17816	
455.48	15005	
455.68	16186	
455.89	18303	
456.09	18254	
456.29	15807	
456.49	16408	
456.69	18702	
456.89	17660	
457.09	16737	
457.29	17518	
457.49	18368	
457.69	18811	
457.89	17278	
458.09	16561	
458.29	18803	
458.49	19359	
458.69	17808	
458.89	17642	
459.09	20307	
459.29	20181	
459.49	17607	
459.69	18507	
459.9	19637	
460.1	19787	
460.3	17205	
460.5	17387	
460.7	19744	
460.9	19577	
461.1	17419	
461.3	18776	
461.5	20874	
461.7	20369	
461.9	18633	
462.1	18496	
462.3	20499	
462.5	20949	
462.7	18736	
462.9	19118	
463.1	22039	
463.3	22309	
463.5	19227	
463.7	20977	
463.9	21552	
464.1	21779	
464.3	20731	
464.5	20303	
464.7	22433	
464.9	23049	
465.1	22012	
465.3	21179	
465.5	22839	
465.7	23320	
465.9	21976	
466.1	21160	
466.3	23649	
466.5	22795	
466.7	22951	
466.9	21392	
467.1	23578	
467.3	24202	
467.5	23212	
467.7	22224	
467.9	24651	
468.1	25399	
468.3	22469	
468.5	23444	
468.7	24176	
468.9	23845	
469.1	23087	
469.3	23833	
469.5	26310	
469.7	24552	
469.9	23081	
470.1	23190	
470.3	24716	
470.5	24690	
470.7	24248	
470.9	23011	
471.1	24840	
471.3	24222	
471.5	23168	
471.69	24369	
471.89	24288	
472.09	23667	
472.29	23898	
472.49	23163	
472.69	24435	
472.89	24834	
473.09	23084	
473.29	22340	
473.49	24163	
473.69	23856	
473.89	23284	
474.09	22758	
474.29	24851	
474.49	24632	
474.69	23561	
474.89	22668	
475.09	23985	
475.29	24343	
475.49	22136	
475.69	22782	
475.88	24892	
476.08	24497	
476.28	22420	
476.48	22245	
476.68	24391	
476.88	23982	
477.08	22000	
477.28	22729	
477.48	23314	
477.68	23732	
477.88	22004	
478.08	22035	
478.28	24750	
478.48	23654	
478.67	22435	
478.87	21497	
479.07	24966	
479.27	23829	
479.47	22625	
479.67	22894	
479.87	24584	
480.07	24965	
480.27	22161	
480.47	23413	
480.67	23886	
480.87	25028	
481.06	22537	
481.26	23313	
481.46	24191	
481.66	24339	
481.86	23055	
482.06	23868	
482.26	24132	
482.46	24644	
482.66	23010	
482.86	22694	
483.05	24735	
483.25	23964	
483.45	25064	
483.65	23089	
483.85	24511	
484.05	24905	
484.25	23473	
484.45	24290	
484.65	25385	
484.84	26096	
485.04	23671	
485.24	23633	
485.44	26174	
485.64	24924	
485.84	23556	
486.04	24750	
486.24	25441	
486.44	25735	
486.63	23623	
486.83	24552	
487.03	25791	
487.23	26253	
487.43	23862	
487.63	26067	
487.83	26209	
488.02	27405	
488.22	25413	
488.42	26134	
488.62	27183	
488.82	26576	
489.02	24789	
489.22	25717	
489.41	27241	
489.61	27331	
489.81	25090	
490.01	25260	
490.21	27517	
490.41	28210	
490.61	25527	
490.8	25570	
491	27598	
491.2	26559	
491.4	25911	
491.6	25218	
491.8	26984	
491.99	26635	
492.19	24640	
492.39	24764	
492.59	27064	
492.79	27237	
492.99	25718	
493.18	25208	
493.38	27521	
493.58	28954	
493.78	26359	
493.98	26111	
494.18	28031	
494.37	28326	
494.57	27844	
494.77	27607	
494.97	29756	
495.17	30317	
495.37	28093	
495.56	28431	
495.76	30943	
495.96	30858	
496.16	29789	
496.36	29309	
496.55	31501	
496.75	31378	
496.95	29740	
497.15	29695	
497.35	31386	
497.54	31926	
497.74	29484	
497.94	30920	
498.14	32279	
498.34	31969	
498.53	29667	
498.73	30369	
498.93	31658	
499.13	32228	
499.33	30629	
499.52	30704	
499.72	32935	
499.92	32533	
500.12	30761	
500.32	31070	
500.51	32837	
500.71	33234	
500.91	31924	
501.11	31309	
501.31	33199	
501.5	33253	
501.7	32126	
501.9	31344	
502.1	32678	
502.29	33333	
502.49	31969	
502.69	31808	
502.89	32953	
503.09	33043	
503.28	30240	
503.48	30526	
503.68	31926	
503.88	32065	
504.07	31133	
504.27	30437	
504.47	32442	
504.67	31980	
504.86	31199	
505.06	30418	
505.26	31834	
505.46	32991	
505.65	30375	
505.85	30376	
506.05	31219	
506.25	31407	
506.44	29139	
506.64	29741	
506.84	30748	
507.04	31253	
507.23	28953	
507.43	29309	
507.63	31976	
507.83	30740	
508.02	29366	
508.22	29239	
508.42	32468	
508.62	30711	
508.81	29143	
509.01	30124	
509.21	30115	
509.4	30821	
509.6	29435	
509.8	29044	
510	30399	
510.19	32014	
510.39	28901	
510.59	29284	
510.79	30655	
510.98	32216	
511.18	29559	
511.38	29823	
511.57	31556	
511.77	31573	
511.97	29995	
512.17	29188	
512.36	31485	
512.56	31144	
512.76	28932	
512.95	28782	
513.15	31408	
513.35	30323	
513.55	29861	
513.74	29110	
513.94	31315	
514.14	30924	
514.33	29888	
514.53	29902	
514.73	30771	
514.92	31353	
515.12	29517	
515.32	29558	
515.51	31373	
515.71	31584	
515.91	30992	
516.11	29718	
516.3	33229	
516.5	31290	
516.7	29882	
516.89	30962	
517.09	31359	
517.29	31447	
517.48	30532	
517.68	29986	
517.88	31389	
518.07	31593	
518.27	30628	
518.47	29545	
518.66	32014	
518.86	31069	
519.06	29345	
519.25	29709	
519.45	31219	
519.65	32821	
519.84	30437	
520.04	31461	
520.24	33230	
520.43	32150	
520.63	30221	
520.83	29999	
521.02	31338	
521.22	31750	
521.42	29878	
521.61	30603	
521.81	31004	
522.01	30847	
522.2	29904	
522.4	29513	
522.6	31729	
522.79	30830	
522.99	29743	
523.18	29747	
523.38	31945	
523.58	32294	
523.77	32220	
523.97	30621	
524.17	34458	
524.36	33857	
524.56	32586	
524.76	32283	
524.95	33848	
525.15	33593	
525.34	32610	
525.54	33126	
525.74	35084	
525.93	34528	
526.13	34566	
526.33	33781	
526.52	36042	
526.72	35485	
526.91	35009	
527.11	34596	
527.31	36164	
527.5	36626	
527.7	34663	
527.89	33958	
528.09	35640	
528.29	36419	
528.48	34916	
528.68	34700	
528.87	36442	
529.07	36183	
529.27	35034	
529.46	35092	
529.66	37212	
529.85	37580	
530.05	35236	
530.25	35711	
530.44	38427	
530.64	36543	
530.83	35026	
531.03	35719	
531.23	37047	
531.42	36641	
531.62	35945	
531.81	35178	
532.01	37528	
532.21	38134	
532.4	36039	
532.6	36765	
532.79	38902	
532.99	39111	
533.18	37274	
533.38	38201	
533.58	39225	
533.77	39645	
533.97	38193	
534.16	38609	
534.36	40280	
534.55	39757	
534.75	38921	
534.95	38549	
535.14	40962	
535.34	40114	
535.53	38015	
535.73	39991	
535.92	41113	
536.12	39804	
536.31	38184	
536.51	39114	
536.71	39516	
536.9	39329	
537.1	37770	
537.29	38307	
537.49	39779	
537.68	39232	
537.88	38418	
538.07	37678	
538.27	39834	
538.46	40707	
538.66	37794	
538.86	38543	
539.05	39918	
539.25	40118	
539.44	39270	
539.64	38087	
539.83	39853	
540.03	40653	
540.22	38378	
540.42	37750	
540.61	39364	
540.81	39937	
541	37683	
541.2	38884	
541.39	38879	
541.59	39414	
541.78	38879	
541.98	37399	
542.18	38643	
542.37	38681	
542.57	37522	
542.76	38618	
542.96	38317	
543.15	38928	
543.35	37022	
543.54	36575	
543.74	38234	
543.93	38248	
544.13	36155	
544.32	36948	
544.52	37806	
544.71	37053	
544.91	35425	
545.1	36183	
545.3	37117	
545.49	37838	
545.69	35209	
545.88	35479	
546.08	38631	
546.27	38167	
546.47	36323	
546.66	35386	
546.86	37577	
547.05	38056	
547.24	35470	
547.44	35780	
547.63	36653	
547.83	37816	
548.02	35996	
548.22	35773	
548.41	36573	
548.61	37590	
548.8	34984	
549	35057	
549.19	36573	
549.39	37241	
549.58	34803	
549.78	35130	
549.97	36956	
550.17	36291	
550.36	35278	
550.55	36489	
550.75	36091	
550.94	36678	
551.14	34350	
551.33	34102	
551.53	35439	
551.72	36216	
551.92	34062	
552.11	34204	
552.31	36181	
552.5	35926	
552.69	35418	
552.89	33692	
553.08	36102	
553.28	35467	
553.47	34016	
553.67	34781	
553.86	35959	
554.06	34856	
554.25	33042	
554.44	33695	
554.64	36435	
554.83	36227	
555.03	33433	
555.22	33817	
555.42	35588	
555.61	35358	
555.8	33313	
556	33432	
556.19	34464	
556.39	35327	
556.58	33383	
556.78	33279	
556.97	35207	
557.16	34976	
557.36	34338	
557.55	33213	
557.75	34073	
557.94	35822	
558.13	32869	
558.33	33050	
558.52	35467	
558.72	34523	
558.91	32926	
559.1	32961	
559.3	34312	
559.49	33781	
559.69	32389	
559.88	33243	
560.07	34678	
560.27	35017	
560.46	33144	
560.66	33271	
560.85	34435	
561.04	33464	
561.24	32573	
561.43	32096	
561.63	33694	
561.82	33854	
562.01	33532	
562.21	32708	
562.4	34065	
562.59	35020	
562.79	32551	
562.98	32548	
563.18	34144	
563.37	35799	
563.56	33258	
563.76	32899	
563.95	34367	
564.14	34264	
564.34	33299	
564.53	32922	
564.73	34649	
564.92	35306	
565.11	33598	
565.31	33168	
565.5	35338	
565.69	34647	
565.89	33270	
566.08	33671	
566.27	35459	
566.47	36153	
566.66	34297	
566.85	33596	
567.05	35467	
567.24	35027	
567.44	33625	
567.63	34865	
567.82	35850	
568.02	35617	
568.21	33883	
568.4	34062	
568.6	35734	
568.79	35585	
568.98	33555	
569.18	34235	
569.37	35801	
569.56	37744	
569.76	34516	
569.95	35691	
570.14	36286	
570.34	36624	
570.53	34319	
570.72	34387	
570.91	37031	
571.11	36097	
571.3	34585	
571.49	35563	
571.69	36508	
571.88	35876	
572.07	35303	
572.27	35261	
572.46	36243	
572.65	36877	
572.85	34785	
573.04	34951	
573.23	37249	
573.43	36698	
573.62	34929	
573.81	35538	
574	37139	
574.2	36734	
574.39	35680	
574.58	35937	
574.78	38478	
574.97	37988	
575.16	36734	
575.36	37014	
575.55	38973	
575.74	38510	
575.93	35988	
576.13	37528	
576.32	37995	
576.51	38890	
576.71	36772	
576.9	37926	
577.09	39252	
577.28	38676	
577.48	37120	
577.67	36560	
577.86	38483	
578.05	38883	
578.25	37003	
578.44	36936	
578.63	38647	
578.83	39706	
579.02	36506	
579.21	38378	
579.4	38824	
579.6	38855	
579.79	37300	
579.98	39324	
580.17	39194	
580.37	39778	
580.56	36931	
580.75	37900	
580.94	39526	
581.14	39475	
581.33	38283	
581.52	37157	
581.71	39524	
581.91	39677	
582.1	37403	
582.29	37438	
582.48	39020	
582.68	39278	
582.87	37939	
583.06	37858	
583.25	39474	
583.45	39332	
583.64	38858	
583.83	39425	
584.02	39097	
584.21	39738	
584.41	38186	
584.6	38335	
584.79	39604	
584.98	40415	
585.18	37821	
585.37	37874	
585.56	39294	
585.75	40237	
585.94	37490	
586.14	38380	
586.33	39802	
586.52	39316	
586.71	37767	
586.91	37549	
587.1	38022	
587.29	39115	
587.48	36561	
587.67	36797	
587.87	38444	
588.06	38373	
588.25	37631	
588.44	36833	
588.63	37749	
588.83	38423	
589.02	35854	
589.21	35602	
589.4	36978	
589.59	37148	
589.78	34250	
589.98	34385	
590.17	35386	
590.36	35671	
590.55	32589	
590.74	32378	
590.94	35456	
591.13	33933	
591.32	31810	
591.51	31556	
591.7	34127	
591.89	33940	
592.09	31763	
592.28	32356	
592.47	33226	
592.66	35297	
592.85	32344	
593.05	32729	
593.24	33918	
593.43	35182	
593.62	32808	
593.81	33297	
594	34445	
594.19	34421	
594.39	32410	
594.58	32585	
594.77	34761	
594.96	34718	
595.15	32468	
595.34	32912	
595.54	34032	
595.73	33471	
595.92	31316	
596.11	32247	
596.3	34368	
596.49	33287	
596.68	31770	
596.88	32134	
597.07	33881	
597.26	33042	
597.45	31225	
597.64	32489	
597.83	33382	
598.02	33771	
598.22	31524	
598.41	32001	
598.6	33630	
598.79	32924	
598.98	31563	
599.17	32325	
599.36	33460	
599.55	34073	
599.74	33045	
599.94	32819	
600.13	33732	
600.32	32628	
600.51	31092	
600.7	31274	
600.89	33887	
601.08	34271	
601.27	30981	
601.47	31750	
601.66	33370	
601.85	33858	
602.04	31602	
602.23	31640	
602.42	32560	
602.61	33151	
602.8	31006	
602.99	30883	
603.18	32422	
603.37	32727	
603.57	31151	
603.76	31462	
603.95	33420	
604.14	32961	
604.33	30978	
604.52	31311	
604.71	32955	
604.9	32374	
605.09	31700	
605.28	31496	
605.47	33487	
605.66	32837	
605.86	31405	
606.05	30867	
606.24	33320	
606.43	31991	
606.62	31130	
606.81	31571	
607	33164	
607.19	32476	
607.38	30269	
607.57	30631	
607.76	32337	
607.95	31554	
608.14	30897	
608.33	31202	
608.52	31971	
608.72	32899	
608.91	30229	
609.1	30085	
609.29	32083	
609.48	31300	
609.67	30380	
609.86	29727	
610.05	31303	
610.24	31567	
610.43	29815	
610.62	29224	
610.81	32262	
611	32220	
611.19	29831	
611.38	30224	
611.57	31638	
611.76	32798	
611.95	29387	
612.14	29091	
612.33	31621	
612.52	31008	
612.71	30002	
612.9	29173	
613.09	30623	
613.28	32787	
613.47	29487	
613.66	30384	
613.85	31593	
614.04	31035	
614.24	29489	
614.43	28867	
614.62	31551	
614.81	31503	
615	29821	
615.19	30252	
615.38	30941	
615.57	31525	
615.76	30164	
615.95	30911	
616.14	31976	
616.33	31534	
616.52	30251	
616.71	30636	
616.9	31663	
617.09	31900	
617.28	29724	
617.47	30708	
617.66	31109	
617.85	31225	
618.04	30928	
618.22	30363	
618.41	31963	
618.6	32864	
618.79	30855	
618.98	30904	
619.17	33462	
619.36	31969	
619.55	31367	
619.74	31069	
619.93	33132	
620.12	32752	
620.31	31840	
620.5	32250	
620.69	33940	
620.88	34452	
621.07	32869	
621.26	32464	
621.45	34095	
621.64	34263	
621.83	32475	
622.02	32095	
622.21	34122	
622.4	34023	
622.59	33193	
622.78	33000	
622.97	33789	
623.16	34635	
623.35	32861	
623.54	32043	
623.72	34065	
623.91	34403	
624.1	33150	
624.29	32131	
624.48	35342	
624.67	34463	
624.86	33207	
625.05	32400	
625.24	35252	
625.43	33966	
625.62	34583	
625.81	32761	
626	34541	
626.19	34607	
626.38	33436	
626.56	32752	
626.75	34382	
626.94	35228	
627.13	33407	
627.32	32352	
627.51	35007	
627.7	35979	
627.89	32439	
628.08	33555	
628.27	34046	
628.46	34080	
628.65	32330	
628.83	32208	
629.02	34275	
629.21	33720	
629.4	32815	
629.59	33012	
629.78	34045	
629.97	34522	
630.16	32963	
630.35	32618	
630.54	35226	
630.72	34760	
630.91	32580	
631.1	32824	
631.29	34399	
631.48	34504	
631.67	32933	
631.86	32314	
632.05	34144	
632.24	33976	
632.42	31936	
632.61	32617	
632.8	33858	
632.99	33813	
633.18	32845	
633.37	32732	
633.56	34194	
633.75	34298	
633.93	32522	
634.12	32507	
634.31	34755	
634.5	34777	
634.69	32647	
634.88	32462	
635.07	34125	
635.25	34527	
635.44	33015	
635.63	33500	
635.82	33740	
636.01	33128	
636.2	32711	
636.39	32543	
636.57	34464	
636.76	34004	
636.95	31994	
637.14	32911	
637.33	33977	
637.52	34516	
637.7	31718	
637.89	32609	
638.08	33683	
638.27	34531	
638.46	32451	
638.65	32544	
638.83	34336	
639.02	33146	
639.21	32200	
639.4	32763	
639.59	33262	
639.78	32905	
639.96	31035	
640.15	31139	
640.34	33056	
640.53	32800	
640.72	30574	
640.91	30903	
641.09	32020	
641.28	33054	
641.47	30742	
641.66	31520	
641.85	32654	
642.03	32393	
642.22	31109	
642.41	30401	
642.6	31872	
642.79	31445	
642.97	29763	
643.16	30782	
643.35	31885	
643.54	31303	
643.73	29812	
643.91	30467	
644.1	30951	
644.29	31773	
644.48	29362	
644.67	29511	
644.85	30613	
645.04	30962	
645.23	28590	
645.42	28936	
645.6	30051	
645.79	30613	
645.98	28192	
646.17	27296	
646.36	28691	
646.54	28879	
646.73	27884	
646.92	27372	
647.11	28656	
647.29	29446	
647.48	27215	
647.67	26533	
647.86	29342	
648.05	29696	
648.23	27109	
648.42	27975	
648.61	28822	
648.8	28725	
648.98	26508	
649.17	26827	
649.36	27771	
649.55	27805	
649.73	26216	
649.92	27245	
650.11	28233	
650.3	28219	
650.48	26493	
650.67	26466	
650.86	28493	
651.05	27519	
651.23	26286	
651.42	26284	
651.61	27732	
651.79	27323	
651.98	26381	
652.17	25815	
652.36	27746	
652.54	26830	
652.73	25783	
652.92	25640	
653.11	27594	
653.29	27735	
653.48	25209	
653.67	25918	
653.85	27328	
654.04	28137	
654.23	25633	
654.42	24981	
654.6	25980	
654.79	26370	
654.98	23981	
655.16	24103	
655.35	24834	
655.54	24452	
655.73	22943	
655.91	22768	
656.1	24947	
656.29	24152	
656.47	22293	
656.66	23842	
656.85	24454	
657.03	24739	
657.22	23277	
657.41	23821	
657.59	25407	
657.78	25343	
657.97	23782	
658.16	24524	
658.34	26045	
658.53	26518	
658.72	25086	
658.9	25478	
659.09	25888	
659.28	26039	
659.46	24664	
659.65	24410	
659.84	25785	
660.02	26350	
660.21	24268	
660.4	24296	
660.58	26634	
660.77	26068	
660.96	24720	
661.14	23939	
661.33	27030	
661.52	27006	
661.7	23806	
661.89	26823	
662.08	25488	
662.26	25322	
662.45	23947	
662.64	23881	
662.82	26034	
663.01	25416	
663.2	23776	
663.38	24621	
663.57	25545	
663.75	25555	
663.94	24126	
664.13	24961	
664.31	25279	
664.5	25742	
664.69	24176	
664.87	24750	
665.06	24849	
665.25	25621	
665.43	24858	
665.62	24828	
665.8	25689	
665.99	25281	
666.18	23787	
666.36	24027	
666.55	25348	
666.74	25419	
666.92	23432	
667.11	24457	
667.29	24976	
667.48	25391	
667.67	24334	
667.85	23505	
668.04	24840	
668.22	25084	
668.41	23587	
668.6	23666	
668.78	24646	
668.97	24870	
669.15	23687	
669.34	22862	
669.53	24710	
669.71	25025	
669.9	22922	
670.08	23434	
670.27	24586	
670.46	24984	
670.64	23586	
670.83	24007	
671.01	24374	
671.2	24679	
671.38	23029	
671.57	22844	
671.76	25389	
671.94	25855	
672.13	22895	
672.31	23713	
672.5	25340	
672.69	24617	
672.87	23032	
673.06	23485	
673.24	25043	
673.43	24561	
673.61	23579	
673.8	23084	
673.98	25006	
674.17	25157	
674.36	23664	
674.54	23463	
674.73	24476	
674.91	24804	
675.1	23210	
675.28	22842	
675.47	24503	
675.65	25174	
675.84	22967	
676.03	23416	
676.21	24250	
676.4	23894	
676.58	23616	
676.77	23726	
676.95	25498	
677.14	24161	
677.32	22750	
677.51	22560	
677.69	24679	
677.88	24072	
678.06	22725	
678.25	22696	
678.44	24614	
678.62	24070	
678.81	22373	
678.99	23475	
679.18	24961	
679.36	24819	
679.55	23098	
679.73	23458	
679.92	24567	
680.1	24303	
680.29	24165	
680.47	23054	
680.66	23971	
680.84	24816	
681.03	22320	
681.21	23188	
681.4	24283	
681.58	23939	
681.77	22632	
681.95	22565	
682.14	24687	
682.32	24949	
682.51	23318	
682.69	22057	
682.88	23819	
683.06	24034	
683.25	22799	
683.43	23003	
683.62	23901	
683.8	24384	
683.99	23320	
684.17	22581	
684.36	24901	
684.54	23529	
684.73	21447	
684.91	21374	
685.1	23021	
685.28	22193	
685.46	20881	
685.65	20625	
685.83	21829	
686.02	21282	
686.2	19613	
686.39	19789	
686.57	20904	
686.76	22455	
686.94	19971	
687.13	20154	
687.31	21847	
687.5	21813	
687.68	19785	
687.86	21026	
688.05	23369	
688.23	21454	
688.42	21186	
688.6	20735	
688.79	22001	
688.97	21848	
689.16	21160	
689.34	20228	
689.52	22861	
689.71	23183	
689.89	21708	
690.08	21112	
690.26	22649	
690.45	22614	
690.63	21631	
690.81	21453	
691	22365	
691.18	22454	
691.37	21329	
691.55	22814	
691.74	21992	
691.92	23518	
692.1	20846	
692.29	20409	
692.47	21967	
692.66	21255	
692.84	20317	
693.02	20787	
693.21	21803	
693.39	21840	
693.58	21065	
693.76	20847	
693.94	23115	
694.13	23182	
694.31	21013	
694.5	21980	
694.68	22338	
694.86	22889	
695.05	21786	
695.23	21952	
695.42	23582	
695.6	25143	
695.78	22575	
695.97	21661	
696.15	23608	
696.34	23008	
696.52	21366	
696.7	22010	
696.89	23007	
697.07	22340	
697.25	21403	
697.44	22854	
697.62	22829	
697.81	22765	
697.99	20773	
698.17	21636	
698.36	21897	
698.54	22278	
698.72	21139	
698.91	20281	
699.09	21869	
699.28	21652	
699.46	20639	
699.64	20555	
699.83	21631	
700.01	22238	
700.19	20975	
700.38	19953	
700.56	22385	
700.74	21661	
700.93	20035	
701.11	20907	
701.29	22089	
701.48	23131	
701.66	20515	
701.84	20790	
702.03	21914	
702.21	22918	
702.39	20168	
702.58	21156	
702.76	22417	
702.94	22479	
703.13	20090	
703.31	22309	
703.49	21836	
703.68	22911	
703.86	20204	
704.04	20995	
704.23	21788	
704.41	22268	
704.59	20274	
704.78	21061	
704.96	22904	
705.14	22025	
705.33	20221	
705.51	20443	
705.69	21554	
705.87	22324	
706.06	20864	
706.24	19807	
706.42	21746	
706.61	22063	
706.79	20654	
706.97	19665	
707.16	21214	
707.34	21347	
707.52	20190	
707.7	19772	
707.89	21277	
708.07	20880	
708.25	20357	
708.44	20460	
708.62	20989	
708.8	21730	
708.98	20347	
709.17	19517	
709.35	21089	
709.53	20950	
709.72	19279	
709.9	19373	
710.08	21045	
710.26	21052	
710.45	19881	
710.63	19032	
710.81	20525	
710.99	20360	
711.18	19387	
711.36	18790	
711.54	20168	
711.72	20445	
711.91	18518	
712.09	18006	
712.27	19708	
712.45	20061	
712.64	18125	
712.82	17390	
713	18525	
713.18	18663	
713.37	17054	
713.55	17735	
713.73	18976	
713.91	17376	
714.1	16279	
714.28	15616	
714.46	17397	
714.64	16277	
714.83	14076	
715.01	14199	
715.19	15282	
715.37	14402	
715.55	13199	
715.74	13314	
715.92	15189	
716.1	13501	
716.28	14067	
716.47	12878	
716.65	13729	
716.83	13833	
717.01	12629	
717.19	12604	
717.38	15309	
717.56	13338	
717.74	12684	
717.92	12020	
718.1	14371	
718.29	13763	
718.47	12082	
718.65	12850	
718.83	15046	
719.01	15352	
719.2	13002	
719.38	14009	
719.56	15347	
719.74	16662	
719.92	13795	
720.11	14343	
720.29	15127	
720.47	14465	
720.65	12669	
720.83	13167	
721.02	13844	
721.2	13473	
721.38	12467	
721.56	11822	
721.74	12788	
721.92	12841	
722.11	12609	
722.29	12417	
722.47	13713	
722.65	12951	
722.83	11491	
723.01	12127	
723.2	12909	
723.38	13178	
723.56	10950	
723.74	11820	
723.92	12488	
724.1	13321	
724.29	11365	
724.47	12259	
724.65	12576	
724.83	12340	
725.01	11047	
725.19	11583	
725.37	12157	
725.56	12209	
725.74	10848	
725.92	11044	
726.1	12258	
726.28	12370	
726.46	11138	
726.64	10727	
726.83	12196	
727.01	12332	
727.19	10566	
727.37	11267	
727.55	12364	
727.73	12725	
727.91	10525	
728.09	10258	
728.28	12751	
728.46	13039	
728.64	11329	
728.82	11174	
729	13518	
729.18	13051	
729.36	10553	
729.54	12430	
729.72	14151	
729.91	12750	
730.09	12501	
730.27	11554	
730.45	12661	
730.63	13142	
730.81	11923	
730.99	11325	
731.17	13637	
731.35	12357	
731.53	11649	
731.71	11348	
731.9	13233	
732.08	13340	
732.26	11315	
732.44	11073	
732.62	13230	
732.8	12941	
732.98	11544	
733.16	10691	
733.34	12622	
733.52	11583	
733.7	10885	
733.88	11177	
734.07	12255	
734.25	12155	
734.43	10457	
734.61	11700	
734.79	13366	
734.97	12028	
735.15	10518	
735.33	10602	
735.51	12187	
735.69	11891	
735.87	11421	
736.05	10659	
736.23	11850	
736.41	11615	
736.59	10384	
736.77	10545	
736.95	12187	
737.13	11653	
737.32	10079	
737.5	10255	
737.68	12663	
737.86	11456	
738.04	9760.6	
738.22	11168	
738.4	11112	
738.58	11414	
738.76	10222	
738.94	9265.7	
739.12	11134	
739.3	11201	
739.48	10682	
739.66	10325	
739.84	11443	
740.02	11293	
740.2	9247.3	
740.38	9473.9	
740.56	11574	
740.74	10557	
740.92	9978.4	
741.1	9790.7	
741.28	10821	
741.46	10653	
741.64	9351	
741.82	9782.5	
742	10731	
742.18	10678	
742.36	9441.8	
742.54	9075.2	
742.72	11127	
742.9	9867.1	
743.08	9564.7	
743.26	8575.5	
743.44	11055	
743.62	10900	
743.8	9520.3	
743.98	8707.3	
744.16	10502	
744.34	10345	
744.52	9411.8	
744.7	9307.3	
744.88	10553	
745.06	10028	
745.24	9155.8	
745.42	9220.6	
745.6	10503	
745.78	10209	
745.96	8123.6	
746.14	8221.9	
746.32	10909	
746.5	10191	
746.68	8624.7	
746.86	8137.9	
747.03	10492	
747.21	9086.2	
747.39	8457.4	
747.57	8084.7	
747.75	9663	
747.93	10017	
748.11	7931.8	
748.29	7961.8	
748.47	11056	
748.65	9346.9	
748.83	8544.8	
749.01	8348.9	
749.19	9808.4	
749.37	9045.9	
749.55	8087.4	
749.73	8191.2	
749.91	9379.7	
750.09	9109.4	
750.26	8098.4	
750.44	7621.9	
750.62	9439.8	
750.8	9278.7	
750.98	7431.4	
751.16	7681.2	
751.34	9321.7	
751.52	8756.4	
751.7	8329.8	
751.88	7307.8	
752.06	9656.9	
752.24	9396.8	
752.42	7290.1	
752.59	7572	
752.77	9101.9	
752.95	10149	
753.13	8101.1	
753.31	7571.3	
753.49	8716.2	
753.67	9009	
753.85	7698.3	
754.03	7360.4	
754.21	9094.3	
754.38	9273.2	
754.56	7137.9	
754.74	6396.5	
754.92	8096.3	
755.1	8540	
755.28	5985.5	
755.46	5849	
755.64	8662.2	
755.82	8531.2	
755.99	5462.6	
756.17	5406.6	
756.35	5928.2	
756.53	7104.4	
756.71	4136.9	
756.89	4911	
757.07	6701	
757.25	6004	
757.42	5505.6	
757.6	6152.1	
757.78	7062.8	
757.96	6230.6	
758.14	5501.5	
758.32	5127.4	
758.5	5983.5	
758.67	6678.4	
758.85	5274.9	
759.03	5393	
759.21	6716.7	
759.39	6208.8	
759.57	4914.4	
759.75	5844.9	
759.92	7189.7	
760.1	6772.6	
760.28	6251.8	
760.46	6581.5	
760.64	6700.3	
760.82	6588.3	
760.99	6056.5	
761.17	5676.3	
761.35	7506.5	
761.53	6673	
761.71	5852.4	
761.89	6468.9	
762.06	7499	
762.24	7094.2	
762.42	6010.1	
762.6	5790.3	
762.78	7206.1	
762.96	7757	
763.13	6349.4	
763.31	6127.5	
763.49	7908.6	
763.67	7197.2	
763.85	6812.2	
764.02	7215.7	
764.2	8169.3	
764.38	7372.7	
764.56	5992.4	
764.74	6607.4	
764.91	8143.4	
765.09	7201.3	
765.27	5663.3	
765.45	5517.2	
765.63	8185	
765.8	7975.5	
765.98	5255.1	
766.16	5490.6	
766.34	6733	
766.52	6555.5	
766.69	6258.6	
766.87	5229.8	
767.05	7062.8	
767.23	7559.1	
767.41	5488.6	
767.58	5657.2	
767.76	7432.1	
767.94	7397.3	
768.12	5466.7	
768.29	6026.5	
768.47	6877.8	
768.65	7542.7	
768.83	5081	
769	5926.8	
769.18	6523.5	
769.36	7074.4	
769.54	5937.1	
769.72	4976.6	
769.89	7221.1	
770.07	7300.3	
770.25	5277.6	
770.43	6210.8	
770.6	7785.7	
770.78	8109.3	
770.96	5343.2	
771.14	5822.4	
771.31	7059.3	
771.49	6511.2	
771.67	4616.1	
771.85	4828.4	
772.02	5785.5	
772.2	6386.2	
772.38	5324.7	
772.55	4884.4	
772.73	6602	
772.91	6394.4	
773.09	5145.9	
773.26	5264.6	
773.44	6511.9	
773.62	6194.4	
773.8	4717.2	
773.97	4513.7	
774.15	6513.9	
774.33	6179.4	
774.5	4627.7	
774.68	4867.3	
774.86	6534.4	
775.04	6201.2	
775.21	4610.7	
775.39	4567.7	
775.57	6331.6	
775.74	6633.4	
775.92	4343.1	
776.1	4298.7	
776.27	6225.1	
776.45	7204.1	
776.63	4485.7	
776.81	4058.4	
776.98	5883.8	
777.16	6740.5	
777.34	4602.5	
777.51	4812.7	
777.69	5885.9	
777.87	5706.3	
778.04	4573.8	
778.22	5046.2	
778.4	5669.5	
778.57	6166.4	
778.75	3957.4	
778.93	4180.6	
779.1	5516.5	
779.28	5309.7	
779.46	3909.6	
779.64	4271.4	
779.81	6280.4	
779.99	7009.5	
780.17	4911.7	
780.34	5019.6	
780.52	5764.3	
780.69	5866.7	
780.87	4498.7	
781.05	4160.8	
781.22	5852.4	
781.4	5865.4	
781.58	4184.7	
781.75	3539.6	
781.93	5726.8	
782.11	5220.3	
782.28	4950.6	
782.46	4207.9	
782.64	5072.8	
782.81	5862	
782.99	4306.9	
783.17	4146.5	
783.34	5771.9	
783.52	5152.7	
783.69	4305.5	
783.87	4993.6	
784.05	5214.8	
784.22	5172.5	
784.4	4942.4	
784.58	4422.9	
784.75	5967.8	
784.93	5236.7	
785.1	4128	
785.28	4534.9	
785.46	5717.9	
785.63	5117.9	
785.81	4001.7	
785.99	3868.6	
786.16	5264	
786.34	5556.8	
786.51	3962.1	
786.69	4218.1	
786.87	4892.6	
787.04	5276.9	
787.22	3775.1	
787.39	4541	
787.57	5074.9	
787.75	6013.5	
787.92	4678.9	
788.1	4662.5	
788.27	5076.9	
788.45	4809.3	
788.63	4405.2	
788.8	3289.7	
788.98	5520	
789.15	4686.4	
789.33	3458.3	
789.5	3910.9	
789.68	5783.5	
789.86	5900.9	
790.03	4257	
790.21	3779.2	
790.38	5804.6	
790.56	5153.4	
790.73	3670	
790.91	3753.2	
791.09	4974.5	
791.26	5664	
791.44	3975.8	
791.61	3449.5	
791.79	4923.3	
791.96	5037.3	
792.14	3506.8	
792.32	3152.5	
792.49	5022.3	
792.67	5074.9	
792.84	3588.7	
793.02	3402.4	
793.19	5335	
793.37	5964.4	
793.54	3162.1	
793.72	3519.8	
793.89	6025.1	
794.07	4891.2	
794.25	3874.1	
794.42	3196.2	
794.6	5811.5	
794.77	5479	
794.95	4132.1	
795.12	3719.8	
795.3	4965	
795.47	5453.7	
795.65	4016.1	
795.82	3898.6	
796	4742.4	
796.17	6350.1	
796.35	3748.5	
796.52	4362.9	
796.7	5457.2	
796.87	5486.5	
797.05	3727.3	
797.22	4457.1	
797.4	5362.9	
797.57	6183.5	
797.75	3847.5	
797.92	3708.2	
798.1	5662	
798.27	4769	
798.45	3210.5	
798.62	3391.4	
798.8	5180	
798.97	5604.6	
799.15	4014.7	
799.32	3796.3	
799.5	4508.3	
799.67	5161.6	
799.85	4133.5	
800.02	3162.7	
800.2	4752	
800.37	5108.3	
800.55	4252.9	
800.72	3568.2	
800.9	5481.7	
801.07	5926.1	
801.25	4741	
801.42	3976.5	
801.6	5532.9	
801.77	5192.3	
801.95	3684.3	
802.12	3525.2	
802.29	5303.6	
802.47	5205.3	
802.64	3910.9	
802.82	3063.8	
802.99	4795	
803.17	5600.5	
803.34	3852.9	
803.52	3406.5	
803.69	6193.7	
803.87	4622.3	
804.04	3751.2	
804.21	3837.9	
804.39	5719.3	
804.56	4933.6	
804.74	3254.2	
804.91	3935.5	
805.09	4807.9	
805.26	4864.6	
805.44	3322.5	
805.61	3609.9	
805.78	5402.5	
805.96	5350.7	
806.13	3899.3	
806.31	4141	
806.48	4408.6	
806.66	4827.7	
806.83	3912.3	
807	3791.5	
807.18	4822.3	
807.35	5070.1	
807.53	3727.3	
807.7	3118.4	
807.87	5753.4	
808.05	4771.8	
808.22	4031.1	
808.4	3063.1	
808.57	4681.7	
808.74	4463.2	
808.92	3497.9	
809.09	4268.6	
809.27	4680.3	
809.44	5145.2	
809.61	3065.1	
809.79	3362.8	
809.96	5821	
810.14	5339.1	
810.31	2950.4	
810.48	3650.8	
810.66	4865.3	
810.83	5360.2	
811.01	3444.7	
811.18	3725.9	
811.35	5381.4	
811.53	4233.8	
811.7	4064.5	
811.87	3847.5	
812.05	4809.3	
812.22	4642.7	
812.39	3345	
812.57	3263.1	
812.74	4774.5	
812.92	6143.2	
813.09	3592.8	
813.26	3846.1	
813.44	5916.6	
813.61	4674.8	
813.78	3035.8	
813.96	3911.6	
814.13	4795	
814.3	4512.4	
814.48	4199.7	
814.65	3570.3	
814.82	5721.3	
815	4542.4	
815.17	3646.1	
815.34	4407.9	
815.52	4692.6	
815.69	4700.8	
815.87	3624.2	
816.04	3575.8	
816.21	4754	
816.38	4308.9	
816.56	3531.4	
816.73	3268.6	
816.9	5932.3	
817.08	5365	
817.25	3311.6	
817.42	4063.9	
817.6	4354.7	
817.77	4762.9	
817.94	3694.5	
818.12	3246.7	
818.29	4463.2	
818.46	6666.8	
818.64	3444	
818.81	3247.4	
818.98	4492.6	
819.16	6281.1	
819.33	3895.9	
819.5	3648.1	
819.67	5055.1	
819.85	5613.5	
820.02	3588	
820.19	3768.3	
820.37	4949.3	
820.54	4575.8	
820.71	3720.5	
820.88	4509.6	
821.06	4939.7	
821.23	4560.8	
821.4	3734.8	
821.58	3701.4	
821.75	5292	
821.92	4900.8	
822.09	3039.2	
822.27	3137.5	
822.44	4727.4	
822.61	4645.5	
822.79	3011.9	
822.96	5548.6	
823.13	5165	
823.3	4429.8	
823.48	3457.7	
823.65	3151.1	
823.82	5331.5	
823.99	4392.2	
824.17	4294.6	
824.34	3207.1	
824.51	6062.7	
824.68	4794.3	
824.86	3314.3	
825.03	3676.8	
825.2	4750.6	
825.37	5606.7	
825.55	3331.4	
825.72	3613.3	
825.89	6087.2	
826.06	5700.9	
826.24	3630.4	
826.41	3511.6	
826.58	5653.1	
826.75	4965	
826.92	2899.2	
827.1	3183.9	
827.27	7440.3	
827.44	6032.6	
827.61	3373	
827.79	4033.8	
827.96	4521.2	
828.13	4767	
828.3	3583.9	
828.47	3063.8	
828.65	5014.1	
828.82	4904.2	
828.99	4445.5	
829.16	3889.8	
829.34	5264.6	
829.51	5069.4	
829.68	3597.6	
829.85	3781.9	
830.02	5605.3	
830.2	5319.3	
830.37	2904.7	
830.54	4319.2	
830.71	5939.1	
830.88	4748.6	
831.05	2884.2	
831.23	3306.1	
831.4	5718.6	
831.57	6246.3	
831.74	3394.8	
831.91	3045.3	
832.09	5044.1	
832.26	5292.6	
832.43	3505.4	
832.6	3894.6	
832.77	4960.9	
832.94	5621	
833.12	2853.5	
833.29	3451.5	
833.46	5076.9	
833.63	6523.5	
833.8	3807.2	
833.97	3475.4	
834.15	5316.5	
834.32	5136.3	
834.49	3641.3	
834.66	3620.1	
834.83	5379.3	
835	4519.2	
835.17	3334.8	
835.35	3353.9	
835.52	5152	
835.69	5072.1	
835.86	3569.6	
836.03	3025.5	
836.2	5255.8	
836.37	4904.2	
836.55	3421.5	
836.72	3234.4	
836.89	4922.6	
837.06	5360.2	
837.23	3572.3	
837.4	3796.9	
837.57	5932.3	
837.75	6523.5	
837.92	3187.3	
838.09	3387.3	
838.26	4878.9	
838.43	5495.4	
838.6	3659.7	
838.77	3216	
838.94	6091.3	
839.11	5971.2	
839.29	3433.1	
839.46	2807.1	
839.63	5225.7	
839.8	5016.8	
839.97	3398.3	
840.14	3334.1	
840.31	5105.6	
840.48	5241.4	
840.65	2814.6	
840.82	3331.4	
841	5166.3	
841.17	5133.6	
841.34	3085.6	
841.51	3222.1	
841.68	5186.8	
841.85	4984.1	
842.02	3209.2	
842.19	2743.6	
842.36	5065.3	
842.53	5071.5	
842.7	3112.2	
842.87	3741.6	
843.05	6410.1	
843.22	4967.7	
843.39	2970.9	
843.56	3225.6	
843.73	4844.8	
843.9	5345.2	
844.07	4932.2	
844.24	4083	
844.41	7314	
844.58	4664.6	
844.75	3013.9	
844.92	3248.8	
845.09	5203.9	
845.26	5237.3	
845.43	3054.9	
845.6	3235.1	
845.77	5188.9	
845.94	5016.2	
846.12	3383.9	
846.29	3527.3	
846.46	5389.6	
846.63	5197.7	
846.8	3110.9	
846.97	3688.4	
847.14	5560.9	
847.31	5197.1	
847.48	3480.9	
847.65	3788.7	
847.82	5464	
847.99	5391.6	
848.16	4110.3	
848.33	3731.4	
848.5	4841.4	
848.67	5585.5	
848.84	3013.9	
849.01	3177.1	
849.18	4719.9	
849.35	4468	
849.52	3798.3	
849.69	2983.2	
849.86	5395	
850.03	5466	
850.2	3041.9	
850.37	3716.4	
850.54	5496.1	
850.71	4896.7	
850.88	3623.5	
851.05	3059	
851.22	5098.8	
851.39	5696.8	
851.56	2858.3	
851.73	3478.1	
851.9	4614.1	
852.07	5410.7	
852.24	3409.9	
852.41	3071.3	
852.58	5094.7	
852.75	4689.2	
852.92	3444	
853.09	2985.9	
853.26	4845.5	
853.43	5533.6	
853.6	3042.6	
853.77	2620	
853.94	5631.9	
854.11	4601.1	
854.28	4437.3	
854.44	3326.6	
854.61	6027.9	
854.78	5418.9	
854.95	3062.4	
855.12	3861.8	
855.29	4234.5	
855.46	5736.4	
855.63	3065.1	
855.8	4188.8	
855.97	4851	
856.14	5472.2	
856.31	4307.6	
856.48	3310.2	
856.65	4865.3	
856.82	4581.3	
856.99	2946.3	
857.16	3314.3	
857.33	6173.3	
857.49	4954.7	
857.66	3265.1	
857.83	3523.9	
858	4898.7	
858.17	5062.6	
858.34	2926.5	
858.51	3060.3	
858.68	5735	
858.85	5736.4	
859.02	3512.3	
859.19	3736.9	
859.36	4613.4	
859.52	4593.6	
859.69	3131.3	
859.86	3590.8	
860.03	4650.3	
860.2	5720.7	
860.37	2808.4	
860.54	3118.4	
860.71	5369.1	
860.88	5715.9	
861.05	3394.2	
861.21	3801	
861.38	5707.7	
861.55	4491.2	
861.72	2832.3	
861.89	3420.8	
862.06	5391.6	
862.23	5860.6	
862.4	2998.9	
862.56	3170.3	
862.73	5262.6	
862.9	4987.5	
863.07	3558	
863.24	2817.3	
863.41	4558.1	
863.58	4612	
863.75	3119.7	
863.91	3558	
864.08	5637.4	
864.25	5290.6	
864.42	3777.1	
864.59	4244.8	
864.76	5887.9	
864.93	4591.5	
865.09	2958.6	
865.26	3250.8	
865.43	5600.5	
865.6	5860.6	
865.77	2698.5	
865.94	3048.7	
866.1	5551.4	
866.27	5293.3	
866.44	4450.2	
866.61	2930.6	
866.78	4962.9	
866.95	5302.2	
867.11	3002.3	
867.28	2708.1	
867.45	5470.1	
867.62	4612	
867.79	3512.9	
867.96	3023.5	
868.12	4565.6	
868.29	5461.9	
868.46	2690.3	
868.63	3976.5	
868.8	5500.8	
868.97	5263.3	
869.13	3225.6	
869.3	3113.6	
869.47	5255.8	
869.64	5461.9	
869.81	3059.7	
869.97	3056.9	
870.14	5115.8	
870.31	5711.1	
870.48	2953.2	
870.65	3819.5	
870.81	4919.9	
870.98	4934.9	
871.15	3447.4	
871.32	3134.1	
871.48	5205.3	
871.65	5756.2	
871.82	3069.2	
871.99	3404.4	
872.16	6100.9	
872.32	5563	
872.49	3159.3	
872.66	3120.4	
872.83	5410.1	
872.99	4753.3	
873.16	3492.5	
873.33	3028.9	
873.5	5025.7	
873.67	5087.8	
873.83	3206.4	
874	3958.7	
874.17	5183.4	
874.34	5999.2	
874.5	3902.7	
874.67	3690.4	
874.84	5662	
875.01	4552	
875.17	4188.8	
875.34	3052.2	
875.51	5140.4	
875.68	6094.1	
875.84	3657	
876.01	4371	
876.18	5326.8	
876.34	5251	
876.51	3035.1	
876.68	2968.9	
876.85	4904.9	
877.01	5583.4	
877.18	4231.1	
877.35	2965.5	
877.52	5065.3	
877.68	4565.6	
877.85	2985.3	
878.02	2955.2	
878.18	4924	
878.35	4743.8	
878.52	2456.2	
878.69	3359.4	
878.85	5365	
879.02	5272.2	
879.19	4178.5	
879.35	3263.1	
879.52	5358.2	
879.69	5442.1	
879.86	2648	
880.02	3411.9	
880.19	4978.6	
880.36	6014.2	
880.52	3463.1	
880.69	3586.7	
880.86	5367	
881.02	5418.9	
881.19	3354.6	
881.36	3303.4	
881.52	5262.6	
881.69	4734.2	
881.86	3248.1	
882.02	3215.3	
882.19	5548.6	
882.36	6383.5	
882.52	3127.9	
882.69	4166.3	
882.86	5145.2	
883.02	5146.5	
883.19	3613.3	
883.36	3457.7	
883.52	5409.4	
883.69	6053.1	
883.86	3062.4	
884.02	2789.3	
884.19	5364.3	
884.36	4998.4	
884.52	3393.5	
884.69	3198.9	
884.86	4785.4	
885.02	5845.6	
885.19	3364.8	
885.36	3439.9	
885.52	4966.3	
885.69	5148.6	
885.86	4362.2	
886.02	3811.3	
886.19	5350	
886.35	4861.2	
886.52	3354.6	
886.69	4160.1	
886.85	4618.2	
887.02	5646.2	
887.19	5646.2	
887.35	5646.2	
887.52	5646.2	
887.68	5646.2	
887.85	5646.2	
888.02	5646.2	
888.18	5646.2	
888.35	5646.2	
888.51	5646.2	
888.68	5646.2	
888.85	5646.2	
889.01	5646.2	
889.18	5646.2	
889.35	5646.2	
889.51	5646.2	
889.68	5646.2	
889.84	5646.2	
890.01	5646.2	
890.17	5646.2	
890.34	5646.2	
890.51	5646.2	
890.67	5646.2	
890.84	5646.2	
891	5646.2	
891.17	5646.2	
891.34	5646.2	
891.5	5646.2	
891.67	5646.2	
891.83	5646.2	
892	5646.2	
892.16	5646.2	
892.33	5646.2	
892.5	5646.2	
892.66	5646.2	
892.83	5646.2	
892.99	5646.2	
893.16	5646.2	
893.32	5646.2	
893.49	5646.2	
893.65	5646.2	
893.82	5646.2	
893.99	5646.2	
894.15	5646.2	
894.32	5646.2	
894.48	5646.2	
894.65	5646.2	
894.81	5646.2	
894.98	5646.2	
895.14	5646.2	
895.31	5646.2	
895.47	5646.2	
895.64	5646.2	
895.81	5646.2	
895.97	5646.2	
896.14	5646.2	
896.3	5646.2	
896.47	5646.2	
896.63	5646.2	
896.8	5646.2	
896.96	5646.2	
897.13	5646.2	
897.29	5646.2	
897.46	5646.2	
897.62	5646.2	
897.79	5646.2	
897.95	5646.2	
898.12	5646.2	
898.28	5646.2	
898.45	5646.2	
898.61	5646.2	
898.78	5646.2	
898.94	5646.2	
899.11	5646.2	
899.27	5646.2	
899.44	5646.2	
899.6	5646.2	
899.77	5646.2	
899.93	5646.2	
900.1	5646.2	
900.26	5646.2	
900.43	5646.2	
900.59	5646.2	
900.76	5646.2	
900.92	5646.2	
901.09	5646.2	
901.25	5646.2	
901.42	5646.2	
901.58	5646.2	
901.75	5646.2	
901.91	5646.2	
902.07	5646.2	
902.24	5646.2	
902.4	5646.2	
902.57	5646.2	
902.73	5646.2	
902.9	5646.2	
903.06	5646.2	
903.23	5646.2	
903.39	5646.2	
903.56	5646.2	
903.72	5646.2	
903.88	5646.2	
904.05	5646.2	
904.21	5646.2	
904.38	5646.2	
904.54	5646.2	
904.71	5646.2	
904.87	5646.2	
905.03	5646.2	
905.2	5646.2	
905.36	5646.2	
905.53	5646.2	
905.69	5646.2	
905.86	5646.2	
906.02	5646.2	
906.18	5646.2	
906.35	5646.2	
906.51	5646.2	
906.68	5646.2	
906.84	5646.2	
907.01	5646.2	
907.17	5646.2	
907.33	5646.2	
907.5	5646.2	
907.66	5646.2	
907.83	5646.2	
907.99	5646.2	
908.15	5646.2	
908.32	5646.2	
908.48	5646.2	
908.65	5646.2	
908.81	5646.2	
908.97	5646.2	
909.14	5646.2	
909.3	5646.2	
909.47	5646.2	
909.63	5646.2	
909.79	5646.2	
909.96	5646.2	
910.12	5646.2	
910.28	5646.2	
910.45	5646.2	
910.61	5646.2	
910.78	5646.2	
910.94	5646.2	
911.1	5646.2	
911.27	5646.2	
911.43	5646.2	
911.59	5646.2	
911.76	5646.2	
911.92	5646.2	
912.08	5646.2	
912.25	5646.2	
912.41	5646.2	
912.57	5646.2	
912.74	5646.2	
912.9	5646.2	
913.07	5646.2	
913.23	5646.2	
913.39	5646.2	
913.56	5646.2	
913.72	5646.2	
913.88	5646.2	
914.05	5646.2	
914.21	5646.2	
914.37	5646.2	
914.54	5646.2	
914.7	5646.2	
914.86	5646.2	
915.03	5646.2	
915.19	5646.2	
