Wavelength	Intensities	
nm	a.u.	
179.22	1712.8	
179.44	1712.1	
179.65	1713.5	
179.86	1710.7	
180.08	1693.7	
180.29	4042.7	
180.51	3068.5	
180.72	5059.2	
180.94	5616.9	
181.15	2740.2	
181.37	2721.1	
181.58	4803.9	
181.79	5068	
182.01	2867.8	
182.22	3031	
182.44	5051	
182.65	4364.2	
182.87	3657.7	
183.08	3355.3	
183.29	5332.9	
183.51	4435.2	
183.72	3018	
183.94	4254.3	
184.15	4786.1	
184.37	4730.1	
184.58	2721.1	
184.79	3536.2	
185.01	4518.5	
185.22	5109	
185.44	3695.2	
185.65	3291.1	
185.86	4769.7	
186.08	4369.7	
186.29	2642.6	
186.51	2842.6	
186.72	4451.6	
186.94	5080.3	
187.15	3272	
187.36	3297.2	
187.58	6496.8	
187.79	4807.9	
188.01	3394.8	
188.22	5089.9	
188.43	5678.3	
188.65	5051	
188.86	2876.7	
189.08	3331.4	
189.29	4601.1	
189.5	4569	
189.72	3081.5	
189.93	3067.2	
190.15	5136.3	
190.36	6012.2	
190.57	3384.6	
190.79	3250.8	
191	5156.8	
191.22	5192.3	
191.43	3366.9	
191.64	2827.6	
191.86	5329.5	
192.07	5133.6	
192.29	2993.4	
192.5	3047.4	
192.71	5188.2	
192.93	4590.9	
193.14	3063.1	
193.35	3107.5	
193.57	4552	
193.78	5166.3	
194	2555.9	
194.21	2998.9	
194.42	4435.2	
194.64	4833.9	
194.85	3269.9	
195.07	3814	
195.28	4771.1	
195.49	4215.4	
195.71	3904.8	
195.92	2876	
196.13	4951.3	
196.35	5007.3	
196.56	4254.3	
196.78	3340.9	
196.99	5977.3	
197.2	5572.5	
197.42	3650.2	
197.63	3319.8	
197.84	4333.5	
198.06	4943.8	
198.27	3061	
198.48	3926.6	
198.7	4602.5	
198.91	4807.9	
199.13	3360	
199.34	3313.6	
199.55	5134.9	
199.77	4178.5	
199.98	2968.2	
200.19	3372.3	
200.41	4746.5	
200.62	4461.2	
200.83	3465.8	
201.05	3595.6	
201.26	4744.5	
201.47	4508.9	
201.69	2972.3	
201.9	2897.9	
202.11	4801.1	
202.33	5440.1	
202.54	3162.1	
202.76	3523.9	
202.97	4853.7	
203.18	4913.8	
203.4	3426.3	
203.61	3472	
203.82	4870.8	
204.04	4508.3	
204.25	3347.1	
204.46	3299.3	
204.68	4702.8	
204.89	4953.4	
205.1	3229	
205.32	2854.2	
205.53	5040.1	
205.74	5228.5	
205.96	2496.5	
206.17	3409.2	
206.38	4990.9	
206.6	5176.6	
206.81	3791.5	
207.02	3109.5	
207.24	4931.5	
207.45	5270.1	
207.66	3188.7	
207.88	2794.8	
208.09	4913.1	
208.3	4767	
208.52	2942.9	
208.73	3242.6	
208.94	4781.3	
209.15	5283.1	
209.37	3170.9	
209.58	3528	
209.79	5184.1	
210.01	4668	
210.22	2630.3	
210.43	2764.1	
210.65	4758.1	
210.86	5000.5	
211.07	3191.4	
211.29	3028.9	
211.5	4999.1	
211.71	4706.2	
211.93	2984.6	
212.14	2951.8	
212.35	4704.2	
212.56	4839.4	
212.78	3351.8	
212.99	2802.3	
213.2	5474.9	
213.42	4615.4	
213.63	3094.5	
213.84	3241.9	
214.06	4335.5	
214.27	4401.8	
214.48	3181.9	
214.69	3374.4	
214.91	5280.3	
215.12	5260.5	
215.33	3391.4	
215.55	3710.2	
215.76	5696.1	
215.97	5030.5	
216.18	3261.7	
216.4	3242.6	
216.61	4530.1	
216.82	5137	
217.04	2934.7	
217.25	3062.4	
217.46	5259.2	
217.67	5057.8	
217.89	2723.1	
218.1	2767.5	
218.31	4827.1	
218.53	4887.1	
218.74	3147.7	
218.95	3023.5	
219.16	4758.1	
219.38	5479.7	
219.59	2965.5	
219.8	3532.1	
220.01	5826.5	
220.23	4779.3	
220.44	3776.5	
220.65	2947	
220.87	4798.4	
221.08	5248.3	
221.29	2807.1	
221.5	3551.9	
221.72	6203.3	
221.93	4564.2	
222.14	3370.3	
222.35	3830.4	
222.57	4844.1	
222.78	5125.4	
222.99	3236.5	
223.2	3445.4	
223.42	4966.3	
223.63	5080.3	
223.84	2486.9	
224.05	2551.8	
224.27	5881.1	
224.48	5393.7	
224.69	3861.8	
224.9	3343	
225.12	4848.9	
225.33	4731.5	
225.54	2732.7	
225.75	3032.4	
225.97	4478.9	
226.18	4714.4	
226.39	3194.1	
226.6	3022.1	
226.82	4614.1	
227.03	4427	
227.24	3309.5	
227.45	2798.9	
227.67	5067.4	
227.88	5391.6	
228.09	3736.9	
228.3	3622.2	
228.52	5040.7	
228.73	4726.7	
228.94	3131.3	
229.15	2814.6	
229.36	4746.5	
229.58	4687.8	
229.79	3208.5	
230	3567.6	
230.21	5592.3	
230.43	4803.9	
230.64	3287.7	
230.85	3399.6	
231.06	5097.4	
231.28	5096.7	
231.49	2794.8	
231.7	3296.5	
231.91	5059.8	
232.12	4801.8	
232.34	2865.8	
232.55	3274	
232.76	5203.2	
232.97	4844.8	
233.18	2961.4	
233.4	3308.8	
233.61	4902.2	
233.82	4536.3	
234.03	3102.7	
234.25	3143.6	
234.46	6283.9	
234.67	4805.9	
234.88	3377.8	
235.09	3031	
235.31	4923.3	
235.52	4707.6	
235.73	3319.1	
235.94	2839.8	
236.15	4571.1	
236.37	5588.2	
236.58	2983.9	
236.79	3211.9	
237	4985.4	
237.21	4399	
237.43	3435.1	
237.64	2729.9	
237.85	7811.6	
238.06	4443.4	
238.27	3379.1	
238.48	2875.3	
238.7	5008.6	
238.91	4703.5	
239.12	3158.7	
239.33	3273.3	
239.54	4584	
239.76	4657.1	
239.97	3181.9	
240.18	3190.1	
240.39	5705	
240.6	4936.3	
240.82	3366.2	
241.03	2755.2	
241.24	4764.9	
241.45	5421.7	
241.66	2963.4	
241.87	3429.7	
242.09	5391.6	
242.3	5546.6	
242.51	3488.4	
242.72	3224.9	
242.93	5027.1	
243.14	4646.8	
243.36	3676.8	
243.57	3838.6	
243.78	5385.5	
243.99	5038.7	
244.2	3190.1	
244.41	2938.2	
244.63	4427.7	
244.84	4924.7	
245.05	3447.4	
245.26	3207.8	
245.47	5053.7	
245.68	5143.8	
245.9	4075.5	
246.11	3350.5	
246.32	4590.2	
246.53	5000.5	
246.74	4965	
246.95	2764.8	
247.16	4439.3	
247.38	4775.2	
247.59	2749.7	
247.8	3257.6	
248.01	4470.7	
248.22	4720.6	
248.43	2938.8	
248.64	3157.3	
248.86	4313.7	
249.07	4635.2	
249.28	2919.7	
249.49	3302	
249.7	5180	
249.91	5182	
250.12	2792.1	
250.34	2806.4	
250.55	4865.3	
250.76	4796.3	
250.97	3307.5	
251.18	3312.9	
251.39	5249.6	
251.6	4947.2	
251.81	3387.3	
252.03	3366.2	
252.24	4609.3	
252.45	5137	
252.66	2854.2	
252.87	3450.8	
253.08	4791.6	
253.29	5988.9	
253.5	2856.2	
253.72	3822.2	
253.93	4716.5	
254.14	5483.1	
254.35	3039.2	
254.56	3147.7	
254.77	4952	
254.98	4445.5	
255.19	3092.4	
255.41	3796.3	
255.62	4915.8	
255.83	5268.1	
256.04	3434.4	
256.25	3311.6	
256.46	5611.4	
256.67	4549.2	
256.88	3305.4	
257.09	3670	
257.31	4440.7	
257.52	4480.3	
257.73	4100.7	
257.94	3041.9	
258.15	4744.5	
258.36	4724.7	
258.57	3818.1	
258.78	2510.1	
258.99	5158.2	
259.2	4670.7	
259.41	3076	
259.63	3138.9	
259.84	5406.6	
260.05	5664	
260.26	3833.8	
260.47	2992.1	
260.68	5205.9	
260.89	4622.3	
261.1	3678.2	
261.31	2900.6	
261.52	5268.7	
261.73	5475.6	
261.95	3887	
262.16	3414.6	
262.37	5299.5	
262.58	5392.3	
262.79	3884.3	
263	3044.6	
263.21	4844.1	
263.42	4687.1	
263.63	3353.2	
263.84	3134.1	
264.05	5162.2	
264.26	5439.4	
264.47	3758	
264.69	3289	
264.9	5357.5	
265.11	4924.7	
265.32	3011.9	
265.53	3041.9	
265.74	4872.1	
265.95	4321.9	
266.16	3267.2	
266.37	3553.9	
266.58	4875.5	
266.79	4621.6	
267	3117	
267.21	2889.7	
267.42	4518.5	
267.63	4807.9	
267.84	3170.9	
268.06	2796.2	
268.27	5130.8	
268.48	5329.5	
268.69	3099.9	
268.9	3637.9	
269.11	5289.9	
269.32	4374.5	
269.53	3198.2	
269.74	3006.4	
269.95	4960.2	
270.16	4325.3	
270.37	3236.5	
270.58	3657	
270.79	4680.3	
271	5135.6	
271.21	3378.5	
271.42	3294.5	
271.63	4950.6	
271.84	4401.1	
272.05	2638.5	
272.26	2963.4	
272.47	4798.4	
272.68	4895.3	
272.89	3173	
273.11	3523.2	
273.32	4631.8	
273.53	5496.1	
273.74	3418.7	
273.95	3363.4	
274.16	5185.5	
274.37	4765.6	
274.58	3521.8	
274.79	2871.9	
275	4928.1	
275.21	5273.5	
275.42	4081.6	
275.63	3556.6	
275.84	5001.8	
276.05	6042.9	
276.26	3325.9	
276.47	3152.5	
276.68	4689.8	
276.89	5572.5	
277.1	3614.7	
277.31	2820.7	
277.52	4956.1	
277.73	5171.1	
277.94	2816.6	
278.15	3103.4	
278.36	4902.8	
278.57	4528.7	
278.78	3090.4	
278.99	3460.4	
279.2	4552.6	
279.41	4429.1	
279.62	3952.6	
279.83	2926.5	
280.04	5712.5	
280.25	4437.9	
280.46	3959.4	
280.67	3219.4	
280.88	4507.6	
281.09	5279	
281.3	3330	
281.51	4119.8	
281.72	5173.2	
281.93	5177.9	
282.14	3001.6	
282.35	3263.1	
282.56	5184.8	
282.77	5079	
282.98	3103.4	
283.19	3788.1	
283.4	6098.2	
283.61	4719.2	
283.82	2955.2	
284.03	3897.3	
284.24	4904.2	
284.45	5232.6	
284.66	3934.1	
284.87	3707.5	
285.08	5177.3	
285.29	5294.7	
285.5	2831	
285.71	3169.6	
285.92	5191.6	
286.12	5713.2	
286.33	3859.1	
286.54	3199.6	
286.75	5083.1	
286.96	4709	
287.17	2924.5	
287.38	3722.5	
287.59	4547.9	
287.8	4485.1	
288.01	3171.6	
288.22	3534.8	
288.43	5111.7	
288.64	4420.2	
288.85	3671.3	
289.06	3497.9	
289.27	5268.1	
289.48	5416.9	
289.69	3970.3	
289.9	3564.8	
290.11	5285.1	
290.32	4614.8	
290.53	3692.5	
290.74	3416	
290.94	5085.1	
291.15	5087.8	
291.36	2992.8	
291.57	3514.3	
291.78	4703.5	
291.99	4302.1	
292.2	2960	
292.41	3406.5	
292.62	5212.8	
292.83	4980.7	
293.04	4143.7	
293.25	3010.5	
293.46	4629.8	
293.67	5175.9	
293.88	3047.4	
294.09	2923.1	
294.29	4460.5	
294.5	4883	
294.71	3252.2	
294.92	3108.8	
295.13	4653.7	
295.34	5681.7	
295.55	2740.2	
295.76	2796.2	
295.97	5050.3	
296.18	5615.5	
296.39	2913.6	
296.6	3075.4	
296.81	4788.8	
297.01	5115.1	
297.22	3240.6	
297.43	3045.3	
297.64	4602.5	
297.85	4484.4	
298.06	2560.6	
298.27	2788.7	
298.48	4747.9	
298.69	4549.9	
298.9	3284.3	
299.11	2999.6	
299.31	4415.4	
299.52	4429.8	
299.73	3477.5	
299.94	3450.8	
300.15	4854.4	
300.36	4471.4	
300.57	3343	
300.78	3407.1	
300.99	4664.6	
301.2	4827.1	
301.4	3059	
301.61	3247.4	
301.82	4986.1	
302.03	5073.5	
302.24	3613.3	
302.45	2863.1	
302.66	5042.1	
302.87	5245.5	
303.08	3037.8	
303.29	4031.8	
303.49	4650.3	
303.7	4754	
303.91	2787.3	
304.12	3824.2	
304.33	4353.3	
304.54	4949.9	
304.75	3069.2	
304.96	2958.6	
305.16	5023	
305.37	5530.9	
305.58	2724.5	
305.79	2797.5	
306	4997.7	
306.21	4283	
306.42	2968.9	
306.63	4419.5	
306.83	4692.6	
307.04	5118.6	
307.25	3287	
307.46	3278.1	
307.67	4216.8	
307.88	5081.7	
308.09	3011.2	
308.29	3096.5	
308.5	4800.4	
308.71	5156.8	
308.92	3210.5	
309.13	2940.9	
309.34	4742.4	
309.55	4692.6	
309.75	3749.1	
309.96	3402.4	
310.17	5084.4	
310.38	4535.6	
310.59	3577.8	
310.8	3388	
311.01	5589.6	
311.21	4756.7	
311.42	2956.6	
311.63	3016.7	
311.84	4624.3	
312.05	4883	
312.26	3426.9	
312.46	3653.6	
312.67	4676.9	
312.88	4390.2	
313.09	2930	
313.3	2882.9	
313.51	5347.2	
313.71	5622.4	
313.92	2899.9	
314.13	3033	
314.34	4935.6	
314.55	4724.7	
314.76	3728	
314.96	3275.4	
315.17	4887.1	
315.38	5081	
315.59	2989.4	
315.8	2843.3	
316.01	5334.3	
316.21	5470.8	
316.42	2905.4	
316.63	3261.7	
316.84	4693.9	
317.05	5296.7	
317.26	3439.2	
317.46	3081.5	
317.67	4741	
317.88	5072.1	
318.09	3659	
318.3	2803	
318.5	4607.2	
318.71	4990.9	
318.92	4504.2	
319.13	3400.3	
319.34	5161.6	
319.54	5229.8	
319.75	2796.8	
319.96	2715.6	
320.17	5038	
320.38	5242.8	
320.58	2727.9	
320.79	3188.7	
321	5252.4	
321.21	5319.9	
321.42	3241.9	
321.62	2765.4	
321.83	4527.4	
322.04	4747.2	
322.25	3147	
322.46	2996.9	
322.66	4796.3	
322.87	5040.7	
323.08	3549.8	
323.29	2932.7	
323.5	5602.6	
323.7	4470.7	
323.91	3914.4	
324.12	3510.9	
324.33	4921.3	
324.53	5005.2	
324.74	3430.3	
324.95	3517.7	
325.16	4345.1	
325.37	4655	
325.57	2951.1	
325.78	3044	
325.99	4846.9	
326.2	4386.1	
326.4	4123.2	
326.61	2742.2	
326.82	4703.5	
327.03	4887.8	
327.24	4084.3	
327.44	3846.8	
327.65	4998.4	
327.86	4158.7	
328.07	3476.1	
328.27	2844.6	
328.48	5318.6	
328.69	4425.7	
328.9	4059.1	
329.1	3125.2	
329.31	4726.7	
329.52	5378	
329.73	3009.8	
329.93	3263.1	
330.14	4820.9	
330.35	4949.9	
330.56	4647.5	
330.76	3536.2	
330.97	4640.7	
331.18	4878.9	
331.39	3274.7	
331.59	2692.4	
331.8	5228.5	
332.01	5276.9	
332.22	3070.6	
332.42	3407.1	
332.63	4898.1	
332.84	4582.7	
333.05	3295.2	
333.25	3030.3	
333.46	4582	
333.67	4753.3	
333.88	3108.8	
334.08	3374.4	
334.29	6074.3	
334.5	5228.5	
334.7	2877.4	
334.91	3992.2	
335.12	4454.3	
335.33	4982.7	
335.53	3265.8	
335.74	4552	
335.95	4650.3	
336.16	4486.4	
336.36	3211.2	
336.57	3728.7	
336.78	4401.8	
336.98	5210.7	
337.19	3964.2	
337.4	3194.8	
337.61	5695.4	
337.81	4475.5	
338.02	3088.3	
338.23	3735.5	
338.43	5341.8	
338.64	4549.2	
338.85	3004.4	
339.05	3749.8	
339.26	5424.4	
339.47	4384.7	
339.68	2949.8	
339.88	4162.2	
340.09	5022.3	
340.3	5143.1	
340.5	3426.9	
340.71	2746.3	
340.92	4458.4	
341.13	5343.2	
341.33	2883.5	
341.54	3431	
341.75	4956.1	
341.95	4665.3	
342.16	3287	
342.37	3558	
342.57	4462.5	
342.78	4759.5	
342.99	3592.1	
343.19	2754.5	
343.4	5107	
343.61	4937	
343.81	3127.9	
344.02	2873.3	
344.23	5096.7	
344.43	5400.5	
344.64	3581.2	
344.85	3531.4	
345.06	5025.7	
345.26	5211.4	
345.47	3390.8	
345.68	3913.7	
345.88	4326.7	
346.09	5100.8	
346.3	3472	
346.5	2682.8	
346.71	4707.6	
346.92	4577.9	
347.12	2848.7	
347.33	3340.9	
347.54	5161.6	
347.74	5474.2	
347.95	3372.3	
348.16	2598.9	
348.36	4646.8	
348.57	4510.3	
348.78	3390.1	
348.98	3587.4	
349.19	4728.8	
349.39	4390.8	
349.6	2801.6	
349.81	3020.1	
350.01	5045.5	
350.22	4510.3	
350.43	3315.7	
350.63	3859.1	
350.84	4843.4	
351.05	4571.7	
351.25	3011.9	
351.46	2792.7	
351.67	5211.4	
351.87	4548.5	
352.08	3185.3	
352.29	3589.4	
352.49	5172.5	
352.7	5130.8	
352.9	2902.7	
353.11	3576.4	
353.32	5616.9	
353.52	4699.4	
353.73	2981.2	
353.94	3648.1	
354.14	5061.9	
354.35	4855.7	
354.55	3042.6	
354.76	3317	
354.97	5076.2	
355.17	4820.9	
355.38	2921.1	
355.59	3821.5	
355.79	4554.7	
356	4814.1	
356.2	3343	
356.41	2975	
356.62	4415.4	
356.82	4786.8	
357.03	3607.2	
357.24	3283.6	
357.44	4607.2	
357.65	4679.6	
357.85	4202.4	
358.06	3394.2	
358.27	4475.5	
358.47	4584.7	
358.68	2890.4	
358.88	3545.7	
359.09	5054.4	
359.3	5333.6	
359.5	4156.7	
359.71	3665.9	
359.91	5703.6	
360.12	5147.2	
360.33	3618.8	
360.53	3955.3	
360.74	4693.9	
360.94	4773.1	
361.15	3799	
361.36	3244.7	
361.56	5345.2	
361.77	4928.1	
361.97	4149.2	
362.18	3322.5	
362.38	5398.4	
362.59	4646.8	
362.8	3208.5	
363	3096.5	
363.21	4506.9	
363.41	4988.2	
363.62	3624.9	
363.83	4348.5	
364.03	5216.9	
364.24	5793	
364.44	4540.3	
364.65	4466.6	
364.85	4939.7	
365.06	4653.7	
365.27	3392.8	
365.47	3428.3	
365.68	5728.9	
365.88	4958.1	
366.09	3756	
366.29	3411.9	
366.5	5123.3	
366.71	5485.8	
366.91	4503.5	
367.12	3844	
367.32	5993	
367.53	5424.4	
367.73	3902.1	
367.94	4655	
368.14	5408.7	
368.35	6042.2	
368.56	3846.8	
368.76	3308.2	
368.97	5516.5	
369.17	6685.9	
369.38	3403.7	
369.58	3608.5	
369.79	4705.5	
369.99	5787.6	
370.2	4446.1	
370.4	3677.5	
370.61	5253.7	
370.82	6178	
371.02	3643.3	
371.23	3141.6	
371.43	4664.6	
371.64	5760.3	
371.84	3725.9	
372.05	4633.2	
372.25	6631.3	
372.46	5544.5	
372.66	3819.5	
372.87	3779.9	
373.07	5599.8	
373.28	6898.9	
373.48	4563.6	
373.69	4350.6	
373.9	5288.5	
374.1	5248.9	
374.31	4582	
374.51	4253.6	
374.72	6021	
374.92	5140.4	
375.13	4805.2	
375.33	4149.9	
375.54	5745.9	
375.74	5356.1	
375.95	4319.8	
376.15	5229.1	
376.36	5802.6	
376.56	5695.4	
376.77	4389.5	
376.97	4730.1	
377.18	6718	
377.38	5949.3	
377.59	4909.7	
377.79	4092.5	
378	5833.3	
378.2	6165.8	
378.41	4179.9	
378.61	4102.1	
378.82	6272.9	
379.02	5605.3	
379.23	4433.2	
379.43	5199.1	
379.64	6406.7	
379.84	6002.6	
380.05	4208.6	
380.25	4162.2	
380.46	6112.5	
380.66	5754.1	
380.87	5279.7	
381.07	5446.9	
381.28	6551.5	
381.48	6056.5	
381.69	4218.8	
381.89	4309.6	
382.1	5201.2	
382.3	6143.9	
382.51	5036	
382.71	5732.9	
382.91	6053.8	
383.12	6364.4	
383.32	4479.6	
383.53	4597.7	
383.73	5887.9	
383.94	5863.3	
384.14	4644.8	
384.35	3894.6	
384.55	5623.7	
384.76	6032.6	
384.96	4471.4	
385.17	4659.1	
385.37	5988.9	
385.58	5367.7	
385.78	4615.4	
385.98	3706.1	
386.19	5558.2	
386.39	5915.9	
386.6	4265.2	
386.8	4371.7	
387.01	6010.1	
387.21	6113.9	
387.42	4730.1	
387.62	5274.2	
387.83	5613.5	
388.03	5927.5	
388.23	4640	
388.44	5259.2	
388.64	5335	
388.85	5612.8	
389.05	4984.8	
389.26	5472.9	
389.46	7172.7	
389.67	6652.5	
389.87	5122.7	
390.07	5097.4	
390.28	6041.5	
390.48	5713.2	
390.69	4444.8	
390.89	4669.4	
391.1	5902.9	
391.3	6554.9	
391.5	5572.5	
391.71	6089.3	
391.91	6462	
392.12	7090.8	
392.32	5705	
392.53	5071.5	
392.73	6010.8	
392.93	6075	
393.14	4818.2	
393.34	5312.4	
393.55	6236.1	
393.75	5966.4	
393.95	4635.9	
394.16	4589.5	
394.36	5833.3	
394.57	6303.6	
394.77	4347.2	
394.98	4611.3	
395.18	5834	
395.38	5920.7	
395.59	5528.2	
395.79	4760.8	
396	6257.9	
396.2	6606.1	
396.4	5444.9	
396.61	5466	
396.81	6730.3	
397.02	6204	
397.22	5795.8	
397.42	5795.1	
397.63	6893.5	
397.83	6298.2	
398.04	4905.6	
398.24	5464.7	
398.44	6749.4	
398.65	6001.2	
398.85	4891.2	
399.05	4960.9	
399.26	6386.9	
399.46	7636.9	
399.67	5331.5	
399.87	5122	
400.07	6751.5	
400.28	7059.3	
400.48	5392.3	
400.69	6249	
400.89	7357	
401.09	7726.3	
401.3	5379.3	
401.5	6217	
401.7	7942.7	
401.91	8021.9	
402.11	5790.3	
402.32	5823.7	
402.52	7447.1	
402.72	7183.6	
402.93	5952.8	
403.13	4841.4	
403.33	7700.4	
403.54	6483.9	
403.74	5285.8	
403.94	5855.8	
404.15	6473.6	
404.35	7406.1	
404.56	5127.4	
404.76	6498.9	
404.96	6990.4	
405.17	6882.5	
405.37	6260	
405.57	5782.1	
405.78	7363.1	
405.98	6800.6	
406.18	5588.9	
406.39	6147.3	
406.59	7255.3	
406.79	6726.9	
407	5091.9	
407.2	5180.7	
407.4	7162.4	
407.61	7149.5	
407.81	5380.7	
408.01	6970.6	
408.22	6640.9	
408.42	8231.5	
408.62	6671.6	
408.83	6380.8	
409.03	7521.5	
409.23	7542.7	
409.44	6731	
409.64	6960.4	
409.84	8673.1	
410.05	8688.8	
410.25	7116	
410.45	6880.5	
410.66	8489.5	
410.86	10277	
411.06	7540.6	
411.27	7299.6	
411.47	10406	
411.67	8826.1	
411.88	7552.9	
412.08	8019.8	
412.28	9442.5	
412.49	9809.8	
412.69	7759.1	
412.89	7793.2	
413.09	9645.9	
413.3	9719	
413.5	8019.8	
413.7	7790.5	
413.91	9192.6	
414.11	9880.1	
414.31	7972.7	
414.52	8376.9	
414.72	9714.2	
414.92	9829.6	
415.12	7888.8	
415.33	8417.2	
415.53	10133	
415.73	10195	
415.94	8716.2	
416.14	8221.9	
416.34	9493	
416.55	9146.9	
416.75	9286.2	
416.95	8933.9	
417.15	10434	
417.36	10678	
417.56	9628.9	
417.76	8947.6	
417.97	10640	
418.17	10530	
418.37	8713.4	
418.57	8885.5	
418.78	10459	
418.98	10043	
419.18	9507.4	
419.38	9279.3	
419.59	9992	
419.79	9622.7	
419.99	8516.1	
420.2	8794	
420.4	10372	
420.6	10512	
420.8	8661.5	
421.01	8488.1	
421.21	10602	
421.41	10567	
421.61	8900.5	
421.82	8699.1	
422.02	10198	
422.22	10730	
422.42	9356.5	
422.63	8688.2	
422.83	10071	
423.03	11071	
423.23	8975.6	
423.44	8201.4	
423.64	10118	
423.84	9662.3	
424.04	8441	
424.25	8196	
424.45	10576	
424.65	10543	
424.85	8060.8	
425.06	8525	
425.26	10694	
425.46	9788.6	
425.66	8720.9	
425.87	8524.3	
426.07	10473	
426.27	10170	
426.47	8589.9	
426.67	7981.6	
426.88	10413	
427.08	10036	
427.28	8961.9	
427.48	7869	
427.69	9336	
427.89	9813.9	
428.09	8779	
428.29	8035.5	
428.5	10343	
428.7	10045	
428.9	8039.6	
429.1	8323.6	
429.3	10028	
429.51	10288	
429.71	8240.3	
429.91	9093.7	
430.11	10429	
430.31	10710	
430.52	8712.1	
430.72	9050.7	
430.92	10840	
431.12	10466	
431.32	8515.5	
431.53	8738.7	
431.73	9655.5	
431.93	10907	
432.13	8403.5	
432.33	8505.9	
432.54	10168	
432.74	10408	
432.94	8608.3	
433.14	9203.6	
433.34	10686	
433.55	10534	
433.75	9201.5	
433.95	10815	
434.15	10634	
434.35	10515	
434.56	8736	
434.76	8630.8	
434.96	10682	
435.16	11021	
435.36	8804.9	
435.56	9886.9	
435.77	10606	
435.97	10807	
436.17	10362	
436.37	9923.8	
436.57	10741	
436.78	10894	
436.98	9715.6	
437.18	10346	
437.38	11527	
437.58	10781	
437.78	10411	
437.99	9348.3	
438.19	11042	
438.39	11628	
438.59	9114.1	
438.79	8643.8	
438.99	11388	
439.2	10452	
439.4	8532.5	
439.6	8625.4	
439.8	10819	
440	11953	
440.2	9994.1	
440.4	10170	
440.61	11724	
440.81	12143	
441.01	9751.7	
441.21	10515	
441.41	12548	
441.61	11951	
441.81	10871	
442.02	11625	
442.22	12658	
442.42	11963	
442.62	9930.6	
442.82	9873.3	
443.02	12464	
443.22	11920	
443.43	10428	
443.63	10136	
443.83	11667	
444.03	11717	
444.23	11257	
444.43	10887	
444.63	12364	
444.83	13007	
445.04	10498	
445.24	11387	
445.44	12304	
445.64	12436	
445.84	10540	
446.04	10725	
446.24	11531	
446.44	12257	
446.65	9764	
446.85	10254	
447.05	11280	
447.25	12253	
447.45	10331	
447.65	9860.3	
447.85	11881	
448.05	11263	
448.25	10709	
448.46	10584	
448.66	11863	
448.86	11465	
449.06	9878.7	
449.26	10628	
449.46	12284	
449.66	11389	
449.86	10595	
450.06	10378	
450.26	11738	
450.47	12174	
450.67	10580	
450.87	10983	
451.07	12407	
451.27	12197	
451.47	10172	
451.67	10725	
451.87	12078	
452.07	12540	
452.27	10513	
452.47	10493	
452.67	12082	
452.88	12635	
453.08	9928.6	
453.28	11422	
453.48	13208	
453.68	11815	
453.88	10487	
454.08	10639	
454.28	12493	
454.48	12312	
454.68	11126	
454.88	11464	
455.08	12666	
455.28	12752	
455.48	10287	
455.68	11234	
455.89	13436	
456.09	13155	
456.29	11013	
456.49	11300	
456.69	13399	
456.89	12680	
457.09	11574	
457.29	12121	
457.49	13276	
457.69	13477	
457.89	12164	
458.09	11331	
458.29	13241	
458.49	13974	
458.69	12244	
458.89	11981	
459.09	14363	
459.29	14231	
459.49	11990	
459.69	12530	
459.9	13678	
460.1	13663	
460.3	11660	
460.5	11618	
460.7	13880	
460.9	13662	
461.1	11523	
461.3	12716	
461.5	14830	
461.7	14403	
461.9	12516	
462.1	12521	
462.3	14228	
462.5	14635	
462.7	12459	
462.9	12727	
463.1	15629	
463.3	15567	
463.5	12882	
463.7	14097	
463.9	15058	
464.1	15338	
464.3	13766	
464.5	13538	
464.7	15544	
464.9	15694	
465.1	14772	
465.3	14066	
465.5	15756	
465.7	16173	
465.9	14584	
466.1	13923	
466.3	16142	
466.5	15686	
466.7	15425	
466.9	14102	
467.1	15992	
467.3	16663	
467.5	15586	
467.7	14586	
467.9	16948	
468.1	17774	
468.3	15010	
468.5	15498	
468.7	16325	
468.9	16279	
469.1	15055	
469.3	15632	
469.5	18013	
469.7	16389	
469.9	14978	
470.1	15011	
470.3	16606	
470.5	16532	
470.7	15777	
470.9	14778	
471.1	16453	
471.3	16213	
471.5	14747	
471.69	16018	
471.89	16118	
472.09	15569	
472.29	15368	
472.49	15030	
472.69	16015	
472.89	16404	
473.09	14700	
473.29	14321	
473.49	15983	
473.69	15828	
473.89	15167	
474.09	14519	
474.29	16819	
474.49	16447	
474.69	15225	
474.89	14533	
475.09	15974	
475.29	15970	
475.49	14081	
475.69	14271	
475.88	16985	
476.08	16175	
476.28	14275	
476.48	13960	
476.68	16209	
476.88	15949	
477.08	13837	
477.28	14235	
477.48	15368	
477.68	15909	
477.88	13916	
478.08	13983	
478.28	16581	
478.48	15648	
478.67	14274	
478.87	13444	
479.07	16450	
479.27	15666	
479.47	14230	
479.67	14438	
479.87	16236	
480.07	16640	
480.27	13788	
480.47	14895	
480.67	15726	
480.87	16510	
481.06	14044	
481.26	14847	
481.46	16014	
481.66	15724	
481.86	14470	
482.06	15316	
482.26	15559	
482.46	16318	
482.66	14278	
482.86	14059	
483.05	16024	
483.25	15524	
483.45	16193	
483.65	14635	
483.85	15773	
484.05	16229	
484.25	14824	
484.45	15509	
484.65	16522	
484.84	16978	
485.04	14571	
485.24	14487	
485.44	17051	
485.64	15868	
485.84	14262	
486.04	15336	
486.24	16272	
486.44	16419	
486.63	14369	
486.83	15122	
487.03	16433	
487.23	16771	
487.43	14358	
487.63	16360	
487.83	16868	
488.02	17417	
488.22	15625	
488.42	16210	
488.62	17357	
488.82	16742	
489.02	15154	
489.22	15494	
489.41	17264	
489.61	17295	
489.81	15079	
490.01	15111	
490.21	17542	
490.41	17984	
490.61	15351	
490.8	15316	
491	17157	
491.2	16378	
491.4	15433	
491.6	14692	
491.8	16610	
491.99	16541	
492.19	14615	
492.39	14700	
492.59	17130	
492.79	17358	
492.99	15725	
493.18	15274	
493.38	17712	
493.58	18675	
493.78	16231	
493.98	15954	
494.18	17850	
494.37	17568	
494.57	16909	
494.77	16605	
494.97	18553	
495.17	18960	
495.37	16809	
495.56	17185	
495.76	19276	
495.96	19072	
496.16	17903	
496.36	17318	
496.55	19355	
496.75	18974	
496.95	17495	
497.15	17523	
497.35	19096	
497.54	19295	
497.74	17119	
497.94	18436	
498.14	19831	
498.34	19845	
498.53	17375	
498.73	17767	
498.93	19200	
499.13	19626	
499.33	18110	
499.52	18075	
499.72	19988	
499.92	19927	
500.12	18077	
500.32	18200	
500.51	20033	
500.71	20123	
500.91	18699	
501.11	18411	
501.31	20155	
501.5	20147	
501.7	18900	
501.9	18254	
502.1	19701	
502.29	20108	
502.49	18649	
502.69	18742	
502.89	19947	
503.09	19839	
503.28	17266	
503.48	17384	
503.68	18983	
503.88	18961	
504.07	18057	
504.27	17623	
504.47	19458	
504.67	19217	
504.86	18071	
505.06	17602	
505.26	18929	
505.46	20049	
505.65	17505	
505.85	17428	
506.05	18496	
506.25	18980	
506.44	16623	
506.64	17152	
506.84	18227	
507.04	18719	
507.23	16705	
507.43	17090	
507.63	19817	
507.83	18429	
508.02	17115	
508.22	16727	
508.42	20003	
508.62	18257	
508.81	16892	
509.01	17457	
509.21	17792	
509.4	18297	
509.6	17069	
509.8	16685	
510	18287	
510.19	19430	
510.39	16693	
510.59	16790	
510.79	18396	
510.98	19488	
511.18	16978	
511.38	16911	
511.57	18931	
511.77	18650	
511.97	17285	
512.17	16443	
512.36	18748	
512.56	18460	
512.76	16454	
512.95	16242	
513.15	18855	
513.35	17645	
513.55	17136	
513.74	16521	
513.94	18547	
514.14	18313	
514.33	17279	
514.53	17049	
514.73	18181	
514.92	18502	
515.12	16602	
515.32	16580	
515.51	18538	
515.71	18755	
515.91	17994	
516.11	16763	
516.3	19892	
516.5	18490	
516.7	17093	
516.89	17595	
517.09	18447	
517.29	18469	
517.48	17443	
517.68	16832	
517.88	18148	
518.07	18715	
518.27	17251	
518.47	16409	
518.66	18866	
518.86	18101	
519.06	16264	
519.25	16750	
519.45	18380	
519.65	19611	
519.84	17247	
520.04	17876	
520.24	19779	
520.43	18752	
520.63	17025	
520.83	16607	
521.02	17975	
521.22	18236	
521.42	16703	
521.61	17150	
521.81	17977	
522.01	18129	
522.2	16901	
522.4	16621	
522.6	18698	
522.79	17903	
522.99	16827	
523.18	16549	
523.38	18815	
523.58	18949	
523.77	18513	
523.97	17065	
524.17	20775	
524.36	20218	
524.56	18591	
524.76	18221	
524.95	19645	
525.15	19323	
525.34	18139	
525.54	18372	
525.74	20252	
525.93	19490	
526.13	19369	
526.33	18759	
526.52	20866	
526.72	20347	
526.91	19576	
527.11	19051	
527.31	20717	
527.5	21209	
527.7	19226	
527.89	18644	
528.09	20569	
528.29	21203	
528.48	19795	
528.68	19447	
528.87	21069	
529.07	20814	
529.27	19351	
529.46	18951	
529.66	20948	
529.85	21216	
530.05	18896	
530.25	19325	
530.44	22080	
530.64	20478	
530.83	19007	
531.03	19267	
531.23	21215	
531.42	20958	
531.62	20026	
531.81	19548	
532.01	21737	
532.21	22076	
532.4	19998	
532.6	20370	
532.79	22736	
532.99	22496	
533.18	20657	
533.38	21242	
533.58	21981	
533.77	22515	
533.97	20691	
534.16	21437	
534.36	23130	
534.55	22292	
534.75	21604	
534.95	20999	
535.14	23301	
535.34	22479	
535.53	20594	
535.73	22061	
535.92	23558	
536.12	22036	
536.31	20496	
536.51	21307	
536.71	22296	
536.9	21997	
537.1	20521	
537.29	20873	
537.49	22654	
537.68	21965	
537.88	21107	
538.07	20393	
538.27	22466	
538.46	23254	
538.66	20547	
538.86	20880	
539.05	22468	
539.25	22863	
539.44	21457	
539.64	20665	
539.83	22369	
540.03	22870	
540.22	20562	
540.42	20426	
540.61	22163	
540.81	22377	
541	20433	
541.2	21366	
541.39	21789	
541.59	22064	
541.78	21251	
541.98	20192	
542.18	21442	
542.37	21573	
542.57	20306	
542.76	20955	
542.96	21305	
543.15	21640	
543.35	20072	
543.54	19588	
543.74	21408	
543.93	21212	
544.13	19633	
544.32	20508	
544.52	21255	
544.71	20912	
544.91	18936	
545.1	19871	
545.3	20902	
545.49	21429	
545.69	19015	
545.88	19118	
546.08	22156	
546.27	21670	
546.47	19687	
546.66	19181	
546.86	21244	
547.05	21741	
547.24	19246	
547.44	19301	
547.63	20422	
547.83	21289	
548.02	19512	
548.22	19476	
548.41	20091	
548.61	21064	
548.8	18913	
549	18843	
549.19	20568	
549.39	20960	
549.58	18441	
549.78	18925	
549.97	20808	
550.17	20254	
550.36	19207	
550.55	20123	
550.75	19980	
550.94	20719	
551.14	18224	
551.33	18552	
551.53	19615	
551.72	20503	
551.92	18378	
552.11	18458	
552.31	20334	
552.5	20225	
552.69	19549	
552.89	17945	
553.08	20215	
553.28	19908	
553.47	18226	
553.67	19104	
553.86	20406	
554.06	19103	
554.25	17445	
554.44	17998	
554.64	20880	
554.83	20635	
555.03	17888	
555.22	18251	
555.42	20112	
555.61	19640	
555.8	17791	
556	17903	
556.19	19208	
556.39	19882	
556.58	17845	
556.78	17952	
556.97	19758	
557.16	19456	
557.36	18742	
557.55	17628	
557.75	18821	
557.94	20241	
558.13	17612	
558.33	17457	
558.52	20082	
558.72	19045	
558.91	17502	
559.1	17636	
559.3	18736	
559.49	18348	
559.69	16997	
559.88	17552	
560.07	19088	
560.27	19514	
560.46	17772	
560.66	17922	
560.85	19010	
561.04	18375	
561.24	17200	
561.43	17007	
561.63	18462	
561.82	18593	
562.01	18092	
562.21	17410	
562.4	19034	
562.59	19820	
562.79	17337	
562.98	17127	
563.18	19143	
563.37	20128	
563.56	17781	
563.76	17241	
563.95	18809	
564.14	18681	
564.34	17554	
564.53	17193	
564.73	19076	
564.92	19450	
565.11	17724	
565.31	17320	
565.5	19766	
565.69	18889	
565.89	17542	
566.08	17683	
566.27	19520	
566.47	20044	
566.66	18196	
566.85	17240	
567.05	19436	
567.24	18974	
567.44	17492	
567.63	18482	
567.82	19473	
568.02	19208	
568.21	17413	
568.4	17703	
568.6	19282	
568.79	19242	
568.98	17448	
569.18	17640	
569.37	19555	
569.56	20895	
569.76	18001	
569.95	18693	
570.14	19768	
570.34	19653	
570.53	17628	
570.72	17503	
570.91	20076	
571.11	19303	
571.3	17892	
571.49	18522	
571.69	19579	
571.88	19003	
572.07	18355	
572.27	18075	
572.46	18826	
572.65	19675	
572.85	17611	
573.04	17993	
573.23	20143	
573.43	19540	
573.62	17670	
573.81	18316	
574	19945	
574.2	19634	
574.39	18209	
574.58	18234	
574.78	20751	
574.97	20209	
575.16	18773	
575.36	18991	
575.55	20717	
575.74	20496	
575.93	18101	
576.13	19020	
576.32	20028	
576.51	20542	
576.71	18535	
576.9	19536	
577.09	20742	
577.28	20269	
577.48	18861	
577.67	18023	
577.86	20093	
578.05	20439	
578.25	18693	
578.44	18604	
578.63	20263	
578.83	21218	
579.02	18151	
579.21	19364	
579.4	20428	
579.6	20188	
579.79	18703	
579.98	20302	
580.17	20496	
580.37	20753	
580.56	18389	
580.75	19042	
580.94	20975	
581.14	20872	
581.33	19351	
581.52	18568	
581.71	20505	
581.91	21166	
582.1	18576	
582.29	18533	
582.48	20337	
582.68	20370	
582.87	19108	
583.06	18876	
583.25	20673	
583.45	20002	
583.64	19427	
583.83	19864	
584.02	20237	
584.21	20583	
584.41	19180	
584.6	18920	
584.79	20431	
584.98	20816	
585.18	18378	
585.37	18465	
585.56	20169	
585.75	20647	
585.94	18278	
586.14	19002	
586.33	20727	
586.52	20050	
586.71	18604	
586.91	18369	
587.1	19275	
587.29	20120	
587.48	18033	
587.67	17960	
587.87	19898	
588.06	19755	
588.25	18856	
588.44	18333	
588.63	19385	
588.83	19953	
589.02	17764	
589.21	17552	
589.4	18927	
589.59	18778	
589.78	16474	
589.98	16405	
590.17	17806	
590.36	18181	
590.55	15438	
590.74	15708	
590.94	18638	
591.13	17495	
591.32	15698	
591.51	15449	
591.7	17950	
591.89	17744	
592.09	15647	
592.28	16057	
592.47	17109	
592.66	18830	
592.85	15763	
593.05	15851	
593.24	17550	
593.43	18275	
593.62	15937	
593.81	16350	
594	17730	
594.19	17718	
594.39	15763	
594.58	15798	
594.77	17879	
594.96	18242	
595.15	15733	
595.34	16064	
595.54	17523	
595.73	16926	
595.92	14939	
596.11	15707	
596.3	17772	
596.49	17057	
596.68	15571	
596.88	15840	
597.07	17594	
597.26	16735	
597.45	15120	
597.64	16031	
597.83	17032	
598.02	17459	
598.22	15287	
598.41	15803	
598.6	17283	
598.79	16645	
598.98	15186	
599.17	15901	
599.36	17061	
599.55	17848	
599.74	16697	
599.94	16571	
600.13	17352	
600.32	16528	
600.51	14983	
600.7	14949	
600.89	17937	
601.08	17942	
601.27	14814	
601.47	15453	
601.66	17122	
601.85	17633	
602.04	15230	
602.23	15154	
602.42	16533	
602.61	16991	
602.8	14973	
602.99	14728	
603.18	16679	
603.37	16690	
603.57	15231	
603.76	15802	
603.95	17385	
604.14	16961	
604.33	14977	
604.52	15031	
604.71	16933	
604.9	16429	
605.09	15620	
605.28	15395	
605.47	17303	
605.66	16857	
605.86	15350	
606.05	14854	
606.24	17082	
606.43	16023	
606.62	15008	
606.81	15517	
607	16983	
607.19	16339	
607.38	14420	
607.57	14606	
607.76	16211	
607.95	15726	
608.14	14901	
608.33	15313	
608.52	16219	
608.72	16791	
608.91	14335	
609.1	14201	
609.29	15992	
609.48	15795	
609.67	14812	
609.86	14207	
610.05	15707	
610.24	16003	
610.43	14045	
610.62	13750	
610.81	16730	
611	16522	
611.19	14013	
611.38	14605	
611.57	16071	
611.76	17138	
611.95	13957	
612.14	13743	
612.33	16014	
612.52	15602	
612.71	14265	
612.9	13725	
613.09	15203	
613.28	16988	
613.47	14012	
613.66	14644	
613.85	15902	
614.04	15582	
614.24	13926	
614.43	13420	
614.62	16080	
614.81	15904	
615	14415	
615.19	14547	
615.38	15552	
615.57	15956	
615.76	14500	
615.95	15117	
616.14	16199	
616.33	15750	
616.52	14410	
616.71	14643	
616.9	16043	
617.09	15839	
617.28	14143	
617.47	15033	
617.66	15427	
617.85	15489	
618.04	15031	
618.22	14407	
618.41	15949	
618.6	16655	
618.79	14632	
618.98	14400	
619.17	16953	
619.36	15588	
619.55	14679	
619.74	14633	
619.93	16423	
620.12	16024	
620.31	15262	
620.5	15334	
620.69	17124	
620.88	17419	
621.07	15894	
621.26	15268	
621.45	16960	
621.64	16860	
621.83	15319	
622.02	14727	
622.21	17021	
622.4	16759	
622.59	15803	
622.78	15688	
622.97	16456	
623.16	17414	
623.35	15457	
623.54	14776	
623.72	16606	
623.91	16783	
624.1	15504	
624.29	14640	
624.48	17601	
624.67	17138	
624.86	15532	
625.05	14842	
625.24	17573	
625.43	16558	
625.62	16756	
625.81	15152	
626	17259	
626.19	16823	
626.38	15756	
626.56	15280	
626.75	16617	
626.94	17336	
627.13	15592	
627.32	14635	
627.51	17170	
627.7	17960	
627.89	14519	
628.08	15637	
628.27	16399	
628.46	16546	
628.65	14925	
628.83	14768	
629.02	17040	
629.21	16452	
629.4	15138	
629.59	15345	
629.78	16402	
629.97	16968	
630.16	15410	
630.35	14944	
630.54	17521	
630.72	17382	
630.91	15018	
631.1	15375	
631.29	16801	
631.48	16851	
631.67	15488	
631.86	14913	
632.05	16718	
632.24	16621	
632.42	14797	
632.61	15400	
632.8	16585	
632.99	16279	
633.18	15291	
633.37	15400	
633.56	16746	
633.75	16566	
633.93	15218	
634.12	15027	
634.31	17376	
634.5	17109	
634.69	15008	
634.88	15358	
635.07	16572	
635.25	16858	
635.44	15627	
635.63	15786	
635.82	16417	
636.01	15759	
636.2	15509	
636.39	15127	
636.57	17242	
636.76	16657	
636.95	14695	
637.14	15670	
637.33	16679	
637.52	17251	
637.7	14610	
637.89	15204	
638.08	16309	
638.27	17197	
638.46	15176	
638.65	15354	
638.83	17069	
639.02	15998	
639.21	14948	
639.4	15251	
639.59	16264	
639.78	15900	
639.96	14203	
640.15	14205	
640.34	16001	
640.53	16163	
640.72	13916	
640.91	14153	
641.09	15474	
641.28	16320	
641.47	14162	
641.66	14768	
641.85	15977	
642.03	16091	
642.22	14560	
642.41	14149	
642.6	15413	
642.79	14872	
642.97	13708	
643.16	14398	
643.35	15385	
643.54	14930	
643.73	13711	
643.91	14175	
644.1	14728	
644.29	15364	
644.48	13491	
644.67	13496	
644.85	14745	
645.04	15045	
645.23	12878	
645.42	13213	
645.6	14416	
645.79	15356	
645.98	12983	
646.17	12124	
646.36	14005	
646.54	14347	
646.73	13074	
646.92	12283	
647.11	13900	
647.29	14643	
647.48	12377	
647.67	11916	
647.86	14737	
648.05	14826	
648.23	12452	
648.42	13411	
648.61	14239	
648.8	14128	
648.98	11992	
649.17	12444	
649.36	13605	
649.55	13354	
649.73	12136	
649.92	12722	
650.11	13564	
650.3	13809	
650.48	12189	
650.67	11934	
650.86	13902	
651.05	13106	
651.23	11978	
651.42	11917	
651.61	13385	
651.79	13275	
651.98	12243	
652.17	11779	
652.36	13683	
652.54	12764	
652.73	11853	
652.92	11576	
653.11	13724	
653.29	13633	
653.48	11066	
653.67	11790	
653.85	13215	
654.04	13920	
654.23	11738	
654.42	11227	
654.6	12541	
654.79	12905	
654.98	10606	
655.16	10903	
655.35	11835	
655.54	11632	
655.73	10410	
655.91	10363	
656.1	12536	
656.29	11767	
656.47	10322	
656.66	11613	
656.85	12364	
657.03	12375	
657.22	10890	
657.41	10875	
657.59	12547	
657.78	12282	
657.97	10748	
658.16	11260	
658.34	12876	
658.53	13238	
658.72	11822	
658.9	12293	
659.09	12629	
659.28	12570	
659.46	11057	
659.65	10999	
659.84	12466	
660.02	12880	
660.21	11036	
660.4	10902	
660.58	13024	
660.77	12602	
660.96	11404	
661.14	10589	
661.33	13447	
661.52	13402	
661.7	10548	
661.89	13161	
662.08	12246	
662.26	11770	
662.45	10621	
662.64	10707	
662.82	12716	
663.01	12085	
663.2	10657	
663.38	11291	
663.57	12493	
663.75	12392	
663.94	10884	
664.13	11674	
664.31	12043	
664.5	12535	
664.69	10982	
664.87	11527	
665.06	11845	
665.25	12437	
665.43	11540	
665.62	11690	
665.8	12555	
665.99	12040	
666.18	10839	
666.36	10808	
666.55	12510	
666.74	12362	
666.92	10523	
667.11	11675	
667.29	12074	
667.48	12453	
667.67	11415	
667.85	10585	
668.04	12041	
668.22	12060	
668.41	10836	
668.6	10976	
668.78	11779	
668.97	11968	
669.15	10935	
669.34	10163	
669.53	11820	
669.71	12030	
669.9	10216	
670.08	10782	
670.27	11674	
670.46	12137	
670.64	10886	
670.83	11119	
671.01	11582	
671.2	11904	
671.38	10389	
671.57	10180	
671.76	12521	
671.94	12984	
672.13	10174	
672.31	10808	
672.5	12340	
672.69	11594	
672.87	10355	
673.06	10494	
673.24	12166	
673.43	11773	
673.61	10722	
673.8	10474	
673.98	12110	
674.17	12323	
674.36	10938	
674.54	10733	
674.73	11937	
674.91	12213	
675.1	10503	
675.28	10309	
675.47	11856	
675.65	12253	
675.84	10443	
676.03	10652	
676.21	11603	
676.4	11214	
676.58	11017	
676.77	10863	
676.95	12851	
677.14	11592	
677.32	10094	
677.51	10049	
677.69	12196	
677.88	11421	
678.06	10053	
678.25	10176	
678.44	11771	
678.62	11506	
678.81	9981.8	
678.99	10722	
679.18	12332	
679.36	12055	
679.55	10423	
679.73	10755	
679.92	11894	
680.1	11588	
680.29	11305	
680.47	10304	
680.66	11523	
680.84	12192	
681.03	9908.8	
681.21	10735	
681.4	11468	
681.58	11497	
681.77	10202	
681.95	10116	
682.14	12216	
682.32	12327	
682.51	10799	
682.69	9740.1	
682.88	11411	
683.06	11772	
683.25	10484	
683.43	10789	
683.62	11769	
683.8	12050	
683.99	10876	
684.17	10282	
684.36	12440	
684.54	11270	
684.73	9521	
684.91	9439.8	
685.1	11234	
685.28	10690	
685.46	9510.1	
685.65	9571.5	
685.83	11067	
686.02	10632	
686.2	9116.2	
686.39	9286.2	
686.57	10677	
686.76	11702	
686.94	9405.6	
687.13	9445.9	
687.31	11084	
687.5	10884	
687.68	9140.1	
687.86	10073	
688.05	12335	
688.23	10511	
688.42	10167	
688.6	9714.9	
688.79	10923	
688.97	10970	
689.16	10071	
689.34	9106	
689.52	11585	
689.71	11682	
689.89	10263	
690.08	9783.8	
690.26	11374	
690.45	11185	
690.63	10369	
690.81	9974.3	
691	11163	
691.18	11177	
691.37	9927.2	
691.55	11473	
691.74	11014	
691.92	12447	
692.1	9919.7	
692.29	9448.6	
692.47	11226	
692.66	10643	
692.84	9757.2	
693.02	9990	
693.21	10833	
693.39	11190	
693.58	10356	
693.76	9716.2	
693.94	12161	
694.13	12093	
694.31	9978.4	
694.5	10844	
694.68	11273	
694.86	11666	
695.05	10485	
695.23	10447	
695.42	12091	
695.6	13662	
695.78	10924	
695.97	10251	
696.15	12153	
696.34	11574	
696.52	10028	
696.7	10645	
696.89	11831	
697.07	11289	
697.25	10529	
697.44	11671	
697.62	11784	
697.81	11934	
697.99	10133	
698.17	10540	
698.36	11286	
698.54	11686	
698.72	10462	
698.91	9655.5	
699.09	11440	
699.28	11238	
699.46	10292	
699.64	10032	
699.83	11178	
700.01	11979	
700.19	10701	
700.38	9594.7	
700.56	12054	
700.74	11322	
700.93	9880.1	
701.11	10561	
701.29	11856	
701.48	12748	
701.66	10154	
701.84	10256	
702.03	11682	
702.21	12299	
702.39	9896.5	
702.58	10421	
702.76	12015	
702.94	12048	
703.13	9889.6	
703.31	11824	
703.49	11565	
703.68	12680	
703.86	10067	
704.04	10821	
704.23	11857	
704.41	12215	
704.59	10241	
704.78	11095	
704.96	13178	
705.14	12153	
705.33	10178	
705.51	10695	
705.69	11748	
705.87	12366	
706.06	10826	
706.24	10116	
706.42	11925	
706.61	12220	
706.79	10823	
706.97	10118	
707.16	11543	
707.34	11997	
707.52	10764	
707.7	10210	
707.89	11572	
708.07	11551	
708.25	10894	
708.44	11006	
708.62	11565	
708.8	12333	
708.98	11009	
709.17	10281	
709.35	11865	
709.53	11773	
709.72	10051	
709.9	10372	
710.08	12113	
710.26	12090	
710.45	11169	
710.63	10257	
710.81	11733	
710.99	11639	
711.18	10656	
711.36	10211	
711.54	11487	
711.72	12093	
711.91	10221	
712.09	9655.5	
712.27	11424	
712.45	11860	
712.64	10113	
712.82	9423.4	
713	10922	
713.18	10920	
713.37	9366	
713.55	10071	
713.73	11316	
713.91	10187	
714.1	9174.9	
714.28	8656.8	
714.46	10598	
714.64	9760.6	
714.83	7800	
715.01	8256	
715.19	9457.5	
715.37	8838.4	
715.55	7772.7	
715.74	7877.9	
715.92	9783.8	
716.1	8267.6	
716.28	8649.3	
716.47	7840.3	
716.65	8794	
716.83	8802.9	
717.01	7702.4	
717.19	7743.4	
717.38	10377	
717.56	8565.3	
717.74	7937.9	
717.92	7302.4	
718.1	9449.3	
718.29	9057.5	
718.47	7309.9	
718.65	7841.7	
718.83	9912.9	
719.01	9949.7	
719.2	7628	
719.38	8456.7	
719.56	9880.1	
719.74	11082	
719.92	8237.6	
720.11	8880.7	
720.29	9953.1	
720.47	9106	
720.65	7601.4	
720.83	8086.1	
721.02	9015.8	
721.2	8791.9	
721.38	7853.3	
721.56	7223.2	
721.74	8288.8	
721.92	8363.9	
722.11	8229.4	
722.29	8002.1	
722.47	9393.4	
722.65	8667.7	
722.83	7212.3	
723.01	7871	
723.2	8748.9	
723.38	8979.7	
723.56	6842.3	
723.74	7735.9	
723.92	8316.8	
724.1	9225.4	
724.29	7211.6	
724.47	8106.5	
724.65	8472.4	
724.83	8297	
725.01	7064.8	
725.19	7606.2	
725.37	8284.7	
725.56	8312.7	
725.74	6919.4	
725.92	7231.4	
726.1	8290.9	
726.28	8583.7	
726.46	7342.7	
726.64	7141.9	
726.83	8532.5	
727.01	8647.9	
727.19	6844.3	
727.37	7506.5	
727.55	8583	
727.73	8914.8	
727.91	6820.4	
728.09	6784.2	
728.28	9026.1	
728.46	9238.4	
728.64	7529	
728.82	7471	
729	9708.1	
729.18	9346.9	
729.36	7057.3	
729.54	8703.9	
729.72	10318	
729.91	8955.8	
730.09	8684.1	
730.27	7731.1	
730.45	8989.9	
730.63	9491.7	
730.81	8153	
730.99	7589.8	
731.17	9824.8	
731.35	8901.2	
731.53	7911.3	
731.71	7680.6	
731.9	9640.5	
732.08	9685.5	
732.26	7787.7	
732.44	7484	
732.62	9667.8	
732.8	9228.1	
732.98	7970	
733.16	7264.1	
733.34	9330.5	
733.52	8218.5	
733.7	7585	
733.88	7768.6	
734.07	8972.8	
734.25	8901.2	
734.43	7215	
734.61	8379.6	
734.79	10010	
734.97	8816.5	
735.15	7262.1	
735.33	7549.5	
735.51	8974.2	
735.69	8753.7	
735.87	8445.1	
736.05	7572.7	
736.23	8889.5	
736.41	8616.5	
736.59	7400	
736.77	7511.9	
736.95	9191.3	
737.13	8682.7	
737.32	7216.4	
737.5	7339.2	
737.68	9605.7	
737.86	8597.4	
738.04	7013.6	
738.22	8385.7	
738.4	8374.8	
738.58	8570.1	
738.76	7352.2	
738.94	6584.9	
739.12	8473.8	
739.3	8473.8	
739.48	7813	
739.66	7675.1	
739.84	8612.4	
740.02	8599.4	
740.2	6740.5	
740.38	6835.4	
740.56	8867.7	
740.74	7961.8	
740.92	7314	
741.1	7181.5	
741.28	8315.4	
741.46	8154.3	
741.64	6870.9	
741.82	7263.5	
742	8311.3	
742.18	8224	
742.36	6957.6	
742.54	6621.1	
742.72	8690.9	
742.9	7706.5	
743.08	7219.8	
743.26	6226.5	
743.44	8714.8	
743.62	8577.6	
743.8	7340.6	
743.98	6584.2	
744.16	8429.4	
744.34	8054.7	
744.52	7104.4	
744.7	7006.8	
744.88	8411	
745.06	8029.4	
745.24	7086.7	
745.42	7098.3	
745.6	8341.4	
745.78	8170	
745.96	6123.4	
746.14	6354.2	
746.32	8811.7	
746.5	8186.4	
746.68	6690	
746.86	6210.1	
747.03	8417.8	
747.21	7231.4	
747.39	6614.3	
747.57	6146.6	
747.75	7795.9	
747.93	8160.5	
748.11	6155.5	
748.29	6145.3	
748.47	9047.2	
748.65	7580.9	
748.83	6659.3	
749.01	6466.8	
749.19	7925	
749.37	7193.8	
749.55	6339.1	
749.73	6395.1	
749.91	7651.2	
750.09	7490.1	
750.26	6397.2	
750.44	5965.1	
750.62	7606.2	
750.8	7560.4	
750.98	5819	
751.16	6029.9	
751.34	7744.7	
751.52	7113.3	
751.7	6628.6	
751.88	5724.8	
752.06	7974.1	
752.24	7772.7	
752.42	5691.3	
752.59	5928.9	
752.77	7528.3	
752.95	8439.7	
753.13	6519.4	
753.31	5997.8	
753.49	7161.7	
753.67	7501	
753.85	6195.8	
754.03	5875.6	
754.21	7649.8	
754.38	7890.1	
754.56	5804.6	
754.74	5067.4	
754.92	6896.9	
755.1	7333.8	
755.28	4870.1	
755.46	4734.9	
755.64	7569.3	
755.82	7475.1	
755.99	4549.2	
756.17	4524	
756.35	5209.3	
756.53	6246.3	
756.71	3419.4	
756.89	4087.7	
757.07	5913.2	
757.25	5274.2	
757.42	4647.5	
757.6	5332.9	
757.78	6186.9	
757.96	5500.2	
758.14	4600.4	
758.32	4252.9	
758.5	5135.6	
758.67	5773.2	
758.85	4414.1	
759.03	4459.1	
759.21	5847.6	
759.39	5489.2	
759.57	4113	
759.75	4956.1	
759.92	6445	
760.1	6009.4	
760.28	5308.3	
760.46	5514.5	
760.64	5868.8	
760.82	5680.4	
760.99	5228.5	
761.17	4715.1	
761.35	6571.9	
761.53	5834	
761.71	4894	
761.89	5362.3	
762.06	6510.5	
762.24	6219.7	
762.42	5029.1	
762.6	4853	
762.78	6251.8	
762.96	6711.9	
763.13	5347.2	
763.31	5058.5	
763.49	6880.5	
763.67	6270.9	
763.85	5681.1	
764.02	6126.2	
764.2	7089.4	
764.38	6412.9	
764.56	5105.6	
764.74	5591	
764.91	7090.8	
765.09	6205.3	
765.27	4798.4	
765.45	4531.5	
765.63	7153.6	
765.8	7047.1	
765.98	4386.7	
766.16	4582	
766.34	5849.7	
766.52	5701.5	
766.69	5240.8	
766.87	4418.8	
767.05	6122.1	
767.23	6752.2	
767.41	4592.2	
767.58	4881.7	
767.76	6521.4	
767.94	6582.2	
768.12	4709.6	
768.29	5153.4	
768.47	6057.9	
768.65	6610.8	
768.83	4343.1	
769	5173.9	
769.18	5702.2	
769.36	6264.1	
769.54	5116.5	
769.72	4300.1	
769.89	6479.1	
770.07	6456.6	
770.25	4493.2	
770.43	5438.7	
770.6	7036.1	
770.78	7277.8	
770.96	4627.7	
771.14	5060.5	
771.31	6360.3	
771.49	5763	
771.67	3877.5	
771.85	4131.4	
772.02	5172.5	
772.2	5681.7	
772.38	4612	
772.55	4231.1	
772.73	5940.5	
772.91	5678.3	
773.09	4530.8	
773.26	4567	
773.44	5908.4	
773.62	5586.9	
773.8	4114.4	
773.97	3885.7	
774.15	5808	
774.33	5584.1	
774.5	4030.4	
774.68	4224.3	
774.86	5919.3	
775.04	5537	
775.21	3975.1	
775.39	4005.8	
775.57	5698.8	
775.74	5961.6	
775.92	3803.1	
776.1	3743.7	
776.27	5616.9	
776.45	6585.6	
776.63	3927.3	
776.81	3554.6	
776.98	5376.6	
777.16	6129.6	
777.34	3992.9	
777.51	4207.2	
777.69	5309.7	
777.87	5139.7	
778.04	4073.4	
778.22	4446.8	
778.4	5109.7	
778.57	5685.2	
778.75	3422.8	
778.93	3680.2	
779.1	4988.9	
779.28	4829.1	
779.46	3451.5	
779.64	3764.8	
779.81	5688.6	
779.99	6372.6	
780.17	4371	
780.34	4384	
780.52	5357.5	
780.69	5382.1	
780.87	4022.2	
781.05	3639.9	
781.22	5325.4	
781.4	5359.5	
781.58	3754.6	
781.75	3099.9	
781.93	5371.8	
782.11	4789.5	
782.28	4472.8	
782.46	3747.1	
782.64	4672.1	
782.81	5373.9	
782.99	3852.9	
783.17	3767.6	
783.34	5316.5	
783.52	4764.3	
783.69	3802.4	
783.87	4441.4	
784.05	4786.8	
784.22	4748.6	
784.4	4426.3	
784.58	3951.9	
784.75	5504.9	
784.93	4830.5	
785.1	3645.4	
785.28	4106.2	
785.46	5281	
785.63	4732.9	
785.81	3602.4	
785.99	3469.9	
786.16	4937.7	
786.34	5119.2	
786.51	3534.8	
786.69	3784	
786.87	4543.8	
787.04	4934.9	
787.22	3434.4	
787.39	4113.7	
787.57	4747.2	
787.75	5535	
787.92	4308.9	
788.1	4095.3	
788.27	4731.5	
788.45	4488.5	
788.63	3964.2	
788.8	3039.9	
788.98	5182	
789.15	4431.1	
789.33	3116.3	
789.5	3579.8	
789.68	5416.2	
789.86	5471.5	
790.03	3917.8	
790.21	3422.8	
790.38	5425.8	
790.56	4755.4	
790.73	3323.9	
790.91	3386.7	
791.09	4679.6	
791.26	5181.4	
791.44	3564.1	
791.61	3104.7	
791.79	4665.3	
791.96	4655.7	
792.14	3179.1	
792.32	2880.8	
792.49	4646.8	
792.67	4765.6	
792.84	3320.4	
793.02	3063.1	
793.19	5119.2	
793.37	5539.1	
793.54	2901.3	
793.72	3168.9	
793.89	5574.6	
794.07	4612.7	
794.25	3442.6	
794.42	2893.8	
794.6	5465.3	
794.77	5124.7	
794.95	3818.8	
795.12	3301.3	
795.3	4676.2	
795.47	5039.4	
795.65	3652.9	
795.82	3460.4	
796	4476.9	
796.17	5879.7	
796.35	3480.9	
796.52	3974.4	
796.7	5062.6	
796.87	5091.9	
797.05	3396.9	
797.22	4067.9	
797.4	5046.9	
797.57	5765	
797.75	3515	
797.92	3355.9	
798.1	5366.4	
798.27	4508.3	
798.45	2925.9	
798.62	3104	
798.8	4787.5	
798.97	5209.3	
799.15	3723.9	
799.32	3502.7	
799.5	4263.9	
799.67	4873.5	
799.85	3818.1	
800.02	2908.1	
800.2	4555.4	
800.37	4758.8	
800.55	3929.4	
800.72	3324.5	
800.9	5173.2	
801.07	5472.2	
801.25	4278.9	
801.42	3614.7	
801.6	5241.4	
801.77	4860.5	
801.95	3333.4	
802.12	3229	
802.29	4980	
802.47	4873.5	
802.64	3616.7	
802.82	2745.6	
802.99	4575.8	
803.17	5255.8	
803.34	3492.5	
803.52	3134.1	
803.69	5770.5	
803.87	4336.2	
804.04	3420.8	
804.21	3522.5	
804.39	5401.2	
804.56	4652.3	
804.74	2970.2	
804.91	3666.5	
805.09	4607.2	
805.26	4662.5	
805.44	3048.1	
805.61	3316.3	
805.78	5102.2	
805.96	5059.2	
806.13	3542.3	
806.31	3789.4	
806.48	4176.5	
806.66	4575.2	
806.83	3599	
807	3504.1	
807.18	4545.1	
807.35	4823.6	
807.53	3440.6	
807.7	2823.5	
807.87	5397.8	
808.05	4564.2	
808.22	3796.9	
808.4	2854.9	
808.57	4480.3	
808.74	4263.9	
808.92	3231.7	
809.09	3976.5	
809.27	4509.6	
809.44	4871.4	
809.61	2816	
809.79	3115	
809.96	5494	
810.14	5080.3	
810.31	2775	
810.48	3355.9	
810.66	4616.8	
810.83	5139.7	
811.01	3211.9	
811.18	3525.9	
811.35	5115.8	
811.53	4050.9	
811.7	3753.2	
811.87	3522.5	
812.05	4571.7	
812.22	4515.1	
812.39	3061.7	
812.57	2980.5	
812.74	4622.3	
812.92	5782.1	
813.09	3343.7	
813.26	3527.3	
813.44	5591.6	
813.61	4394.9	
813.78	2840.5	
813.96	3603.7	
814.13	4570.4	
814.3	4296	
814.48	3966.9	
814.65	3341.6	
814.82	5393	
815	4315.8	
815.17	3436.5	
815.34	4061.8	
815.52	4444.8	
815.69	4512.4	
815.87	3387.3	
816.04	3309.5	
816.21	4508.3	
816.38	4148.5	
816.56	3308.8	
816.73	3105.4	
816.9	5596.4	
817.08	5029.8	
817.25	3144.3	
817.42	3760.1	
817.6	4203.8	
817.77	4485.1	
817.94	3469.9	
818.12	3050.8	
818.29	4328	
818.46	6253.8	
818.64	3186.6	
818.81	2981.8	
818.98	4333.5	
819.16	5913.9	
819.33	3636.5	
819.5	3398.3	
819.67	4804.5	
819.85	5287.9	
820.02	3342.3	
820.19	3512.3	
820.37	4674.1	
820.54	4414.1	
820.71	3399.6	
820.88	4164.9	
821.06	4642.1	
821.23	4327.4	
821.4	3429.7	
821.58	3422.2	
821.75	5064.6	
821.92	4642.7	
822.09	2822.1	
822.27	2929.3	
822.44	4521.2	
822.61	4455	
822.79	2856.9	
822.96	5193.6	
823.13	4805.9	
823.3	4261.1	
823.48	3248.8	
823.65	2945	
823.82	5135.6	
823.99	4227.7	
824.17	4046.1	
824.34	3007.1	
824.51	5734.3	
824.68	4557.4	
824.86	3118.4	
825.03	3476.1	
825.2	4561.5	
825.37	5325.4	
825.55	3106.8	
825.72	3353.2	
825.89	5703.6	
826.06	5374.6	
826.24	3263.8	
826.41	3308.2	
826.58	5329.5	
826.75	4742.4	
826.92	2721.1	
827.1	2930.6	
827.27	7129.7	
827.44	5717.2	
827.61	3121.1	
827.79	3735.5	
827.96	4394.9	
828.13	4575.2	
828.3	3323.9	
828.47	2762.7	
828.65	4731.5	
828.82	4721.3	
828.99	4117.8	
829.16	3605.1	
829.34	5046.9	
829.51	4923.3	
829.68	3333.4	
829.85	3420.8	
830.02	5378.6	
830.2	5049.6	
830.37	2675.3	
830.54	3945.8	
830.71	5646.2	
830.88	4565.6	
831.05	2725.2	
831.23	3030.3	
831.4	5457.8	
831.57	5950	
831.74	3168.9	
831.91	2790	
832.09	4852.3	
832.26	5055.1	
832.43	3229.6	
832.6	3609.2	
832.77	4790.2	
832.94	5321.3	
833.12	2665.8	
833.29	3145	
833.46	4902.2	
833.63	6146.6	
833.8	3457.7	
833.97	3200.3	
834.15	5042.1	
834.32	4888.5	
834.49	3368.9	
834.66	3456.3	
834.83	5122	
835	4334.2	
835.17	3127.9	
835.35	3132	
835.52	5002.5	
835.69	4886.5	
835.86	3281.5	
836.03	2739.5	
836.2	5023	
836.37	4718.5	
836.55	3203.7	
836.72	3133.4	
836.89	4713.1	
837.06	5102.2	
837.23	3254.9	
837.4	3533.4	
837.57	5694.7	
837.75	6103.6	
837.92	2949.1	
838.09	3123.8	
838.26	4613.4	
838.43	5206.6	
838.6	3347.1	
838.77	3019.4	
838.94	5818.3	
839.11	5650.3	
839.29	3248.1	
839.46	2650.1	
839.63	4992.9	
839.8	4825.7	
839.97	3102.7	
840.14	3130	
840.31	4874.8	
840.48	5005.9	
840.65	2663.7	
840.82	3086.3	
841	5014.1	
841.17	4939	
841.34	2953.2	
841.51	2933.4	
841.68	4962.2	
841.85	4757.4	
842.02	3042.6	
842.19	2536.1	
842.36	4818.9	
842.53	4838	
842.7	2922.5	
842.87	3479.5	
843.05	6103.6	
843.22	4742.4	
843.39	2800.3	
843.56	2953.9	
843.73	4638.6	
843.9	5110.4	
844.07	4506.9	
844.24	3808.5	
844.41	6851.8	
844.58	4450.9	
844.75	2813.9	
844.92	3063.8	
845.09	4942.4	
845.26	5007.3	
845.43	2895.1	
845.6	3033.7	
845.77	4986.8	
845.94	4820.9	
846.12	3170.3	
846.29	3298.6	
846.46	5169.1	
846.63	5009.3	
846.8	2949.8	
846.97	3365.5	
847.14	5287.2	
847.31	4956.1	
847.48	3222.8	
847.65	3508.9	
847.82	5176.6	
847.99	5157.5	
848.16	3773	
848.33	3458.3	
848.5	4661.2	
848.67	5379.3	
848.84	2829.6	
849.01	2963.4	
849.18	4614.1	
849.35	4337.6	
849.52	3540.3	
849.69	2855.6	
849.86	5150.6	
850.03	5281.7	
850.2	2938.8	
850.37	3472	
850.54	5238	
850.71	4719.2	
850.88	3442.6	
851.05	2817.3	
851.22	4859.8	
851.39	5386.8	
851.56	2755.2	
851.73	3289.7	
851.9	4491.9	
852.07	5176.6	
852.24	3208.5	
852.41	2907.4	
852.58	4919.2	
852.75	4510.3	
852.92	3231.7	
853.09	2853.5	
853.26	4642.1	
853.43	5354.8	
853.6	2886.3	
853.77	2478	
853.94	5390.3	
854.11	4419.5	
854.28	4124.6	
854.44	3095.2	
854.61	5740.5	
854.78	5218.9	
854.95	2887	
855.12	3556.6	
855.29	4116.4	
855.46	5461.2	
855.63	2869.9	
855.8	3852.2	
855.97	4622.3	
856.14	5236	
856.31	3944.4	
856.48	3141.6	
856.65	4631.8	
856.82	4470	
856.99	2865.1	
857.16	3121.8	
857.33	5900.9	
857.49	4712.4	
857.66	3067.2	
857.83	3293.8	
858	4693.3	
858.17	4872.8	
858.34	2718.3	
858.51	2896.5	
858.68	5422.3	
858.85	5435.3	
859.02	3288.4	
859.19	3468.6	
859.36	4468.7	
859.52	4420.9	
859.69	2890.4	
859.86	3343.7	
860.03	4449.6	
860.2	5416.9	
860.37	2641.9	
860.54	2899.2	
860.71	5125.4	
860.88	5416.2	
861.05	3155.2	
861.21	3542.3	
861.38	5424.4	
861.55	4282.3	
861.72	2647.3	
861.89	3169.6	
862.06	5167	
862.23	5548.6	
862.4	2710.1	
862.56	2957.9	
862.73	5041.4	
862.9	4810.7	
863.07	3284.9	
863.24	2624.8	
863.41	4388.8	
863.58	4487.8	
863.75	2897.2	
863.91	3238.5	
864.08	5293.3	
864.25	5075.5	
864.42	3473.4	
864.59	3920.5	
864.76	5722.7	
864.93	4432.5	
865.09	2757.2	
865.26	3030.3	
865.43	5325.4	
865.6	5592.3	
865.77	2594.8	
865.94	2840.5	
866.1	5315.2	
866.27	5047.6	
866.44	4138.3	
866.61	2759.3	
866.78	4641.4	
866.95	5061.9	
867.11	2805.7	
867.28	2589.3	
867.45	5314.5	
867.62	4500.8	
867.79	3280.8	
867.96	2902.7	
868.12	4377.2	
868.29	5111	
868.46	2853.5	
868.63	3759.4	
868.8	5216.9	
868.97	5098.8	
869.13	3033	
869.3	2942.2	
869.47	5041.4	
869.64	5160.2	
869.81	2837.8	
869.97	2891	
870.14	4932.9	
870.31	5449.6	
870.48	2783.2	
870.65	3534.8	
870.81	4724.7	
870.98	4727.4	
871.15	3244.7	
871.32	2984.6	
871.48	5038.7	
871.65	5489.2	
871.82	2841.9	
871.99	3113.6	
872.16	5765	
872.32	5261.2	
872.49	2880.8	
872.66	2931.3	
872.83	5130.2	
872.99	4532.8	
873.16	3252.2	
873.33	2805.7	
873.5	4861.2	
873.67	4937	
873.83	2996.9	
874	3685.7	
874.17	4967	
874.34	5633.3	
874.5	3663.8	
874.67	3480.9	
874.84	5365.7	
875.01	4372.4	
875.17	3926.6	
875.34	2804.4	
875.51	4870.1	
875.68	5791.7	
875.84	3424.9	
876.01	4056.3	
876.18	5072.1	
876.34	4995	
876.51	2849.4	
876.68	2790.7	
876.85	4730.8	
877.01	5349.3	
877.18	3971.7	
877.35	2866.5	
877.52	4892.6	
877.68	4369.7	
877.85	2803	
878.02	2796.2	
878.18	4732.9	
878.35	4602.5	
878.52	2358.6	
878.69	3160	
878.85	5193	
879.02	5021.6	
879.19	3950.5	
879.35	3033.7	
879.52	5060.5	
879.69	5189.6	
879.86	2483.5	
880.02	3145	
880.19	4792.2	
880.36	5711.8	
880.52	3251.5	
880.69	3311.6	
880.86	5150.6	
881.02	5212.8	
881.19	3179.1	
881.36	3052.8	
881.52	5074.9	
881.69	4532.2	
881.86	3108.8	
882.02	2998.9	
882.19	5264.6	
882.36	6049	
882.52	2934.7	
882.69	3867.2	
882.86	4954.7	
883.02	4923.3	
883.19	3430.3	
883.36	3223.5	
883.52	5136.3	
883.69	5752.1	
883.86	2896.5	
884.02	2637.1	
884.19	5113.8	
884.36	4776.5	
884.52	3201	
884.69	3067.9	
884.86	4622.3	
885.02	5502.2	
885.19	3186	
885.36	3196.2	
885.52	4737	
885.69	4919.9	
885.86	3971.7	
886.02	3575.8	
886.19	5132.2	
886.35	4659.8	
886.52	3116.3	
886.69	3927.3	
886.85	4481.6	
887.02	5367	
887.19	5367	
887.35	5367	
887.52	5367	
887.68	5367	
887.85	5367	
888.02	5367	
888.18	5367	
888.35	5367	
888.51	5367	
888.68	5367	
888.85	5367	
889.01	5367	
889.18	5367	
889.35	5367	
889.51	5367	
889.68	5367	
889.84	5367	
890.01	5367	
890.17	5367	
890.34	5367	
890.51	5367	
890.67	5367	
890.84	5367	
891	5367	
891.17	5367	
891.34	5367	
891.5	5367	
891.67	5367	
891.83	5367	
892	5367	
892.16	5367	
892.33	5367	
892.5	5367	
892.66	5367	
892.83	5367	
892.99	5367	
893.16	5367	
893.32	5367	
893.49	5367	
893.65	5367	
893.82	5367	
893.99	5367	
894.15	5367	
894.32	5367	
894.48	5367	
894.65	5367	
894.81	5367	
894.98	5367	
895.14	5367	
895.31	5367	
895.47	5367	
895.64	5367	
895.81	5367	
895.97	5367	
896.14	5367	
896.3	5367	
896.47	5367	
896.63	5367	
896.8	5367	
896.96	5367	
897.13	5367	
897.29	5367	
897.46	5367	
897.62	5367	
897.79	5367	
897.95	5367	
898.12	5367	
898.28	5367	
898.45	5367	
898.61	5367	
898.78	5367	
898.94	5367	
899.11	5367	
899.27	5367	
899.44	5367	
899.6	5367	
899.77	5367	
899.93	5367	
900.1	5367	
900.26	5367	
900.43	5367	
900.59	5367	
900.76	5367	
900.92	5367	
901.09	5367	
901.25	5367	
901.42	5367	
901.58	5367	
901.75	5367	
901.91	5367	
902.07	5367	
902.24	5367	
902.4	5367	
902.57	5367	
902.73	5367	
902.9	5367	
903.06	5367	
903.23	5367	
903.39	5367	
903.56	5367	
903.72	5367	
903.88	5367	
904.05	5367	
904.21	5367	
904.38	5367	
904.54	5367	
904.71	5367	
904.87	5367	
905.03	5367	
905.2	5367	
905.36	5367	
905.53	5367	
905.69	5367	
905.86	5367	
906.02	5367	
906.18	5367	
906.35	5367	
906.51	5367	
906.68	5367	
906.84	5367	
907.01	5367	
907.17	5367	
907.33	5367	
907.5	5367	
907.66	5367	
907.83	5367	
907.99	5367	
908.15	5367	
908.32	5367	
908.48	5367	
908.65	5367	
908.81	5367	
908.97	5367	
909.14	5367	
909.3	5367	
909.47	5367	
909.63	5367	
909.79	5367	
909.96	5367	
910.12	5367	
910.28	5367	
910.45	5367	
910.61	5367	
910.78	5367	
910.94	5367	
911.1	5367	
911.27	5367	
911.43	5367	
911.59	5367	
911.76	5367	
911.92	5367	
912.08	5367	
912.25	5367	
912.41	5367	
912.57	5367	
912.74	5367	
912.9	5367	
913.07	5367	
913.23	5367	
913.39	5367	
913.56	5367	
913.72	5367	
913.88	5367	
914.05	5367	
914.21	5367	
914.37	5367	
914.54	5367	
914.7	5367	
914.86	5367	
915.03	5367	
915.19	5367	
