Wavelength	Intensities	
nm	a.u.	
179.22	1916.2	
179.44	1916.9	
179.65	1915.5	
179.86	1918.3	
180.08	1884.8	
180.29	4896	
180.51	3444	
180.72	5631.2	
180.94	6679.8	
181.15	3267.9	
181.37	3182.5	
181.58	5502.2	
181.79	5885.2	
182.01	3369.6	
182.22	3629.7	
182.44	5811.5	
182.65	4823	
182.87	4548.5	
183.08	3992.2	
183.29	6077	
183.51	5028.4	
183.72	3697.3	
183.94	5366.4	
184.15	5401.9	
184.37	5455.8	
184.58	3218	
184.79	4418.8	
185.01	5048.2	
185.22	5730.9	
185.44	4702.8	
185.65	3906.2	
185.86	5331.5	
186.08	4896	
186.29	3090.4	
186.51	3424.2	
186.72	5027.8	
186.94	5970.5	
187.15	3932.1	
187.36	4073.4	
187.58	7766.6	
187.79	5507	
188.01	4175.8	
188.22	6559.6	
188.43	6639.5	
188.65	5778.7	
188.86	3386.7	
189.08	4052.9	
189.29	5262.6	
189.5	5229.8	
189.72	3762.1	
189.93	3812	
190.15	6015.6	
190.36	7148.8	
190.57	4107.5	
190.79	3980.6	
191	6044.2	
191.22	6033.3	
191.43	4149.2	
191.64	3372.3	
191.86	6263.4	
192.07	5954.1	
192.29	3540.3	
192.5	3684.3	
192.71	5999.9	
192.93	5119.2	
193.14	3705.5	
193.35	3824.9	
193.57	5222.3	
193.78	5975.3	
194	3004.4	
194.21	3670	
194.42	4942.4	
194.64	5454.4	
194.85	4070	
195.07	4734.9	
195.28	5501.5	
195.49	4675.5	
195.71	5002.5	
195.92	3433.8	
196.13	5650.3	
196.35	5793	
196.56	5322	
196.78	4095.9	
196.99	7113.3	
197.2	6610.8	
197.42	4638.6	
197.63	4120.5	
197.84	4860.5	
198.06	5636.7	
198.27	3804.4	
198.48	5012.7	
198.7	5185.5	
198.91	5328.1	
199.13	4064.5	
199.34	4057.7	
199.55	5891.3	
199.77	4719.2	
199.98	3563.5	
200.19	4085.7	
200.41	5274.9	
200.62	5028.4	
200.83	4291.9	
201.05	4598.4	
201.26	5388.9	
201.47	5014.1	
201.69	3588	
201.9	3476.8	
202.11	5372.5	
202.33	6481.1	
202.54	3859.1	
202.76	4286.4	
202.97	5564.3	
203.18	5535.7	
203.4	4250.2	
203.61	4171.7	
203.82	5445.5	
204.04	5094.7	
204.25	4169.7	
204.46	3995.6	
204.68	5461.9	
204.89	5647.6	
205.1	3977.2	
205.32	3448.1	
205.53	5850.4	
205.74	5958.2	
205.96	2939.5	
206.17	4171	
206.38	5793	
206.6	5964.4	
206.81	4616.1	
207.02	3848.1	
207.24	5711.8	
207.45	6160.3	
207.66	3868.6	
207.88	3296.5	
208.09	5581.4	
208.3	5438.7	
208.52	3543.7	
208.73	3893.9	
208.94	5317.9	
209.15	6133	
209.37	3880.2	
209.58	4037.2	
209.79	5977.3	
210.01	5233.2	
210.22	3090.4	
210.43	3213.9	
210.65	5375.9	
210.86	5856.5	
211.07	3898	
211.29	3536.2	
211.5	5760.3	
211.71	5361.6	
211.93	3552.5	
212.14	3531.4	
212.35	5335	
212.56	5634	
212.78	4124.6	
212.99	3395.5	
213.2	6335.7	
213.42	5190.2	
213.63	3657	
213.84	3960.1	
214.06	4829.8	
214.27	4894	
214.48	3867.9	
214.69	4190.1	
214.91	6123.4	
215.12	6173.9	
215.33	4220.9	
215.55	4616.8	
215.76	6644.3	
215.97	5753.4	
216.18	3989.4	
216.4	3873.4	
216.61	5089.2	
216.82	5925.5	
217.04	3600.3	
217.25	3736.9	
217.46	6073.6	
217.67	5812.8	
217.89	3201	
218.1	3309.5	
218.31	5531.6	
218.53	5621	
218.74	3780.6	
218.95	3637.2	
219.16	5382.1	
219.38	6339.8	
219.59	3691.8	
219.8	4397	
220.01	6962.4	
220.23	5410.1	
220.44	4782.7	
220.65	3549.8	
220.87	5464	
221.08	6126.2	
221.29	3362.8	
221.5	4443.4	
221.72	7406.1	
221.93	5093.3	
222.14	4138.3	
222.35	4788.2	
222.57	5481.7	
222.78	5790.3	
222.99	3870	
223.2	4173.8	
223.42	5754.1	
223.63	5898.1	
223.84	3007.1	
224.05	3005.7	
224.27	6945.3	
224.48	6337.8	
224.69	4822.3	
224.9	4053.6	
225.12	5666	
225.33	5399.8	
225.54	3251.5	
225.75	3605.1	
225.97	4943.1	
226.18	5279	
226.39	3953.3	
226.6	3668.6	
226.82	5193	
227.03	5023.7	
227.24	4072.7	
227.45	3349.1	
227.67	5823.7	
227.88	6429.3	
228.09	4552.6	
228.3	4603.8	
228.52	5864	
228.73	5443.5	
228.94	3757.3	
229.15	3401.7	
229.36	5321.3	
229.58	5244.8	
229.79	3814	
230	4462.5	
230.21	6462	
230.43	5501.5	
230.64	4063.2	
230.85	4229.1	
231.06	5849	
231.28	5831.9	
231.49	3363.4	
231.7	3937.6	
231.91	5732.3	
232.12	5434.6	
232.34	3430.3	
232.55	3909.6	
232.76	6016.2	
232.97	5593	
233.18	3601.7	
233.4	3990.1	
233.61	5637.4	
233.82	5155.4	
234.03	3693.9	
234.25	3654.9	
234.46	7560.4	
234.67	5409.4	
234.88	4141	
235.09	3650.8	
235.31	5681.7	
235.52	5302.9	
235.73	4048.2	
235.94	3469.3	
236.15	5152.7	
236.37	6603.3	
236.58	3590.1	
236.79	3934.8	
237	5741.8	
237.21	4909	
237.43	4163.5	
237.64	3294.5	
237.85	9888.3	
238.06	5008.6	
238.27	4261.8	
238.48	3388	
238.7	5795.8	
238.91	5325.4	
239.12	3887	
239.33	3981.3	
239.54	5087.8	
239.76	5317.9	
239.97	3839.9	
240.18	3870.7	
240.39	6819.7	
240.6	5744.6	
240.82	3990.8	
241.03	3327.9	
241.24	5408.7	
241.45	6290	
241.66	3583.3	
241.87	4203.1	
242.09	6206.7	
242.3	6587	
242.51	4244.1	
242.72	3968.3	
242.93	5914.5	
243.14	5407.3	
243.36	4502.1	
243.57	4947.2	
243.78	6368.5	
243.99	5844.2	
244.2	3942.3	
244.41	3592.8	
244.63	4929.5	
244.84	5688.6	
245.05	4149.2	
245.26	3886.4	
245.47	5711.1	
245.68	6032	
245.9	5207.3	
246.11	4141.7	
246.32	5281.7	
246.53	5658.5	
246.74	6407.4	
246.95	3222.8	
247.16	4868.7	
247.38	5432.6	
247.59	3274	
247.8	3978.5	
248.01	5109	
248.22	5354.1	
248.43	3594.2	
248.64	3813.3	
248.86	4823	
249.07	5171.8	
249.28	3377.1	
249.49	4033.8	
249.7	6010.1	
249.91	6169.2	
250.12	3306.1	
250.34	3323.9	
250.55	5508.4	
250.76	5418.9	
250.97	4045.4	
251.18	4076.1	
251.39	6083.8	
251.6	5553.4	
251.81	4122.6	
252.03	4141.7	
252.24	5136.3	
252.45	5974.6	
252.66	3375.1	
252.87	4364.2	
253.08	5487.2	
253.29	7191.1	
253.5	3396.9	
253.72	4743.8	
253.93	5254.4	
254.14	6438.8	
254.35	3700	
254.56	3779.2	
254.77	5727.5	
254.98	5040.1	
255.19	3696.6	
255.41	4780.6	
255.62	5474.2	
255.83	6090.7	
256.04	4210.6	
256.25	4107.5	
256.46	6654.5	
256.67	5146.5	
256.88	4046.8	
257.09	4544.4	
257.31	5113.8	
257.52	5111.7	
257.73	5070.8	
257.94	3620.1	
258.15	5369.1	
258.36	5413.5	
258.57	4677.6	
258.78	2969.6	
258.99	5922	
259.2	5268.1	
259.41	3767.6	
259.63	3837.2	
259.84	6243.6	
260.05	6767.9	
260.26	4928.8	
260.47	3563.5	
260.68	6005.3	
260.89	5327.4	
261.1	4538.3	
261.31	3538.9	
261.52	6016.2	
261.73	6388.3	
261.95	4850.3	
262.16	4244.1	
262.37	6156.2	
262.58	6219.7	
262.79	4771.1	
263	3837.2	
263.21	5509.7	
263.42	4915.1	
263.63	3824.9	
263.84	3801.7	
264.05	5967.8	
264.26	6353.5	
264.47	4647.5	
264.69	4272.1	
264.9	6187.6	
265.11	5667.4	
265.32	3644	
265.53	3746.4	
265.74	5545.9	
265.95	4848.9	
266.16	4026.3	
266.37	4422.9	
266.58	5539.1	
266.79	5302.2	
267	3695.9	
267.21	3436.5	
267.42	4928.1	
267.63	5410.1	
267.84	3908.2	
268.06	3306.8	
268.27	5886.5	
268.48	6153.5	
268.69	3767.6	
268.9	4526	
269.11	6225.1	
269.32	4951.3	
269.53	3988.1	
269.74	3611.9	
269.95	5725.4	
270.16	4779.3	
270.37	3878.2	
270.58	4491.2	
270.79	5266	
271	5958.2	
271.21	4207.2	
271.42	3974.4	
271.63	5530.9	
271.84	5077.6	
272.05	3120.4	
272.26	3549.1	
272.47	5469.4	
272.68	5600.5	
272.89	3707.5	
273.11	4391.5	
273.32	5241.4	
273.53	6393.8	
273.74	4333.5	
273.95	4106.2	
274.16	6144.6	
274.37	5522.7	
274.58	4329.4	
274.79	3448.8	
275	5554.1	
275.21	6121.4	
275.42	5113.8	
275.63	4428.4	
275.84	5633.3	
276.05	7193.1	
276.26	4119.1	
276.47	3848.1	
276.68	5345.9	
276.89	6443.6	
277.1	4425.7	
277.31	3469.3	
277.52	5721.3	
277.73	5838.1	
277.94	3407.8	
278.15	3779.9	
278.36	5602.6	
278.57	5085.1	
278.78	3790.1	
278.99	4241.3	
279.2	5068.7	
279.41	4975.9	
279.62	4935.6	
279.83	3465.2	
280.04	6677.7	
280.25	4947.2	
280.46	4919.2	
280.67	3945.8	
280.88	5032.5	
281.09	6134.3	
281.3	4117.8	
281.51	5186.1	
281.72	5950.7	
281.93	6004	
282.14	3618.8	
282.35	3979.9	
282.56	5901.6	
282.77	5924.8	
282.98	3807.9	
283.19	4613.4	
283.4	7344	
283.61	5376.6	
283.82	3375.1	
284.03	4840	
284.24	5563	
284.45	6082.5	
284.66	4895.3	
284.87	4663.9	
285.08	6073.6	
285.29	6186.9	
285.5	3325.2	
285.71	3873.4	
285.92	6047.7	
286.12	6705.7	
286.33	4829.1	
286.54	3820.1	
286.75	5905.7	
286.96	5288.5	
287.17	3480.2	
287.38	4709	
287.59	5047.6	
287.8	4982.7	
288.01	3857.7	
288.22	4465.9	
288.43	5961	
288.64	4945.8	
288.85	4613.4	
289.06	4323.3	
289.27	5882.4	
289.48	6466.8	
289.69	4861.9	
289.9	4399	
290.11	6093.4	
290.32	5158.8	
290.53	4678.9	
290.74	4285.7	
290.94	5930.9	
291.15	5951.4	
291.36	3728.7	
291.57	4425	
291.78	5226.4	
291.99	4807.3	
292.2	3496.6	
292.41	4199	
292.62	5941.8	
292.83	5742.5	
293.04	5226.4	
293.25	3547.1	
293.46	5270.1	
293.67	6029.9	
293.88	3689.1	
294.09	3529.3	
294.29	5015.5	
294.5	5582.8	
294.71	3928.7	
294.92	3802.4	
295.13	5193	
295.34	6532.3	
295.55	3232.4	
295.76	3342.3	
295.97	5853.8	
296.18	6671.6	
296.39	3476.1	
296.6	3690.4	
296.81	5571.2	
297.01	5919.3	
297.22	3847.5	
297.43	3674.1	
297.64	5094	
297.85	5071.5	
298.06	2995.5	
298.27	3265.1	
298.48	5499.5	
298.69	5103.5	
298.9	3994.2	
299.11	3616.7	
299.31	4997	
299.52	4983.4	
299.73	4305.5	
299.94	4248.2	
300.15	5426.4	
300.36	5053	
300.57	4206.5	
300.78	4153.3	
300.99	5287.9	
301.2	5575.9	
301.4	3620.1	
301.61	3997.6	
301.82	5779.4	
302.03	5919.3	
302.24	4500.8	
302.45	3493.2	
302.66	5813.5	
302.87	6203.3	
303.08	3669.3	
303.29	4985.4	
303.49	5200.5	
303.7	5478.3	
303.91	3241.3	
304.12	4805.9	
304.33	4919.2	
304.54	5517.9	
304.75	3731.4	
304.96	3502	
305.16	5756.8	
305.37	6537.1	
305.58	3171.6	
305.79	3355.3	
306	5784.1	
306.21	4834.6	
306.42	3670	
306.63	5644.2	
306.83	5246.2	
307.04	6087.9	
307.25	4033.1	
307.46	3999.7	
307.67	4685.1	
307.88	5896.1	
308.09	3571	
308.29	3788.1	
308.5	5522	
308.71	6045.6	
308.92	3907.5	
309.13	3530	
309.34	5386.2	
309.55	5353.4	
309.75	4562.2	
309.96	4272.7	
310.17	5880.4	
310.38	5145.9	
310.59	4433.2	
310.8	3456.3	
311.01	6391	
311.21	5339.7	
311.42	3520.5	
311.63	3605.1	
311.84	5195	
312.05	5608	
312.26	4112.3	
312.46	4526	
312.67	5305.6	
312.88	5014.1	
313.09	3528	
313.3	3408.5	
313.51	6251.1	
313.71	6587	
313.92	3566.2	
314.13	3706.1	
314.34	5560.9	
314.55	5308.3	
314.76	4622.3	
314.96	3959.4	
315.17	5530.9	
315.38	5985.5	
315.59	3616	
315.8	3438.5	
316.01	6361	
316.21	6376.7	
316.42	3394.2	
316.63	3897.3	
316.84	5299.5	
317.05	6202.6	
317.26	4205.8	
317.46	3748.5	
317.67	5390.9	
317.88	5844.2	
318.09	4525.3	
318.3	3291.1	
318.5	5143.1	
318.71	5780.1	
318.92	5806.7	
319.13	4231.8	
319.34	5973.2	
319.54	6115.9	
319.75	3287	
319.96	3168.9	
320.17	5754.8	
320.38	6101.6	
320.58	3232.4	
320.79	3883.6	
321	6072.2	
321.21	6240.8	
321.42	3923.9	
321.62	3248.1	
321.83	5005.2	
322.04	5434.6	
322.25	3773.7	
322.46	3628.3	
322.66	5542.5	
322.87	5711.8	
323.08	4444.8	
323.29	3508.2	
323.5	6556.2	
323.7	5027.1	
323.91	4834.6	
324.12	4391.5	
324.33	5550.7	
324.53	5783.5	
324.74	4215.4	
324.95	4404.5	
325.16	4850.3	
325.37	5267.4	
325.57	3578.5	
325.78	3615.3	
325.99	5500.8	
326.2	4878.9	
326.4	5251	
326.61	3248.8	
326.82	5321.3	
327.03	5543.9	
327.24	5076.2	
327.44	4885.8	
327.65	5715.2	
327.86	4585.4	
328.07	4174.4	
328.27	3392.1	
328.48	6109.8	
328.69	5036	
328.9	5211.4	
329.1	3853.6	
329.31	5341.1	
329.52	6266.8	
329.73	3568.9	
329.93	4009.2	
330.14	5498.8	
330.35	5685.2	
330.56	5887.9	
330.76	4412.7	
330.97	5298.8	
331.18	5602.6	
331.39	3971	
331.59	3226.2	
331.8	6066.8	
332.01	6214.9	
332.22	3651.5	
332.42	4197	
332.63	5596.4	
332.84	5172.5	
333.05	4009.9	
333.25	3616.7	
333.46	5167	
333.67	5428.5	
333.88	3732.8	
334.08	4193.6	
334.29	7228.6	
334.5	6141.2	
334.7	3530.7	
334.91	5125.4	
335.12	4970.4	
335.33	5876.3	
335.53	3893.9	
335.74	5883.8	
335.95	5263.3	
336.16	5074.9	
336.36	3930.7	
336.57	4566.3	
336.78	4915.1	
336.98	6049.7	
337.19	4869.4	
337.4	3878.2	
337.61	6589	
337.81	5010.7	
338.02	3606.5	
338.23	4700.1	
338.43	6255.2	
338.64	5106.3	
338.85	3625.6	
339.05	4745.8	
339.26	6268.1	
339.47	4888.5	
339.68	3564.8	
339.88	5294.7	
340.09	5667.4	
340.3	5896.1	
340.5	4214.7	
340.71	3215.3	
340.92	4939.7	
341.13	6158.9	
341.33	3471.3	
341.54	4222.2	
341.75	5698.1	
341.95	5327.4	
342.16	4004.5	
342.37	4364.2	
342.57	5003.9	
342.78	5410.1	
342.99	4491.9	
343.19	3184.6	
343.4	5811.5	
343.61	5722	
343.81	3802.4	
344.02	3490.4	
344.23	5910.4	
344.43	6322.1	
344.64	4468	
344.85	4304.8	
345.06	5707.7	
345.26	6118.6	
345.47	4118.5	
345.68	4833.9	
345.88	4805.9	
346.09	5920.7	
346.3	4229.1	
346.5	3147	
346.71	5477	
346.92	5149.3	
347.12	3247.4	
347.33	4091.2	
347.54	5971.2	
347.74	6429.3	
347.95	4065.2	
348.16	3052.8	
348.36	5197.7	
348.57	4934.2	
348.78	4024.9	
348.98	4392.9	
349.19	5382.1	
349.39	4889.9	
349.6	3266.5	
349.81	3650.2	
350.01	5604.6	
350.22	5125.4	
350.43	3941.7	
350.63	4742.4	
350.84	5451	
351.05	5229.8	
351.25	3534.1	
351.46	3269.9	
351.67	6005.3	
351.87	5136.3	
352.08	3799.7	
352.29	4364.9	
352.49	5895.4	
352.7	5957.5	
352.9	3469.3	
353.11	4349.2	
353.32	6584.9	
353.52	5229.8	
353.73	3407.1	
353.94	4354	
354.14	5711.8	
354.35	5551.4	
354.55	3497.2	
354.76	3929.4	
354.97	5663.3	
355.17	5455.8	
355.38	3315	
355.59	4683.7	
355.79	5072.8	
356	5532.2	
356.2	3858.4	
356.41	3409.2	
356.62	4811.4	
356.82	5322	
357.03	4150.5	
357.24	3760.1	
357.44	5163.6	
357.65	5218.9	
357.85	5012.1	
358.06	3882.3	
358.27	4808.6	
358.47	5122	
358.68	3287	
358.88	4130.8	
359.09	5672.2	
359.3	6053.1	
359.5	4855.1	
359.71	4293.9	
359.91	6447	
360.12	5768.4	
360.33	4074.1	
360.53	4627	
360.74	5071.5	
360.94	5077.6	
361.15	4330.1	
361.36	3524.6	
361.56	5891.3	
361.77	5292.6	
361.97	4789.5	
362.18	3729.4	
362.38	5817.6	
362.59	4890.5	
362.8	3373.7	
363	3244.7	
363.21	4670.7	
363.41	5415.5	
363.62	3930.7	
363.83	5061.9	
364.03	5474.9	
364.24	6480.5	
364.44	5070.1	
364.65	5074.2	
364.85	5251	
365.06	5092.6	
365.27	3574.4	
365.47	3619.4	
365.68	6192.4	
365.88	5177.3	
366.09	3997.6	
366.29	3640.6	
366.5	5410.1	
366.71	5894.7	
366.91	5025	
367.12	4150.5	
367.32	6445.6	
367.53	5740.5	
367.73	4082.3	
367.94	5069.4	
368.14	5632.6	
368.35	6622.4	
368.56	4116.4	
368.76	3852.9	
368.97	5788.2	
369.17	7547.4	
369.38	3553.9	
369.58	3849.5	
369.79	4826.4	
369.99	6178.7	
370.2	4855.1	
370.4	3887.7	
370.61	5438.7	
370.82	6628.6	
371.02	3812	
371.23	3134.8	
371.43	4724.7	
371.64	6025.1	
371.84	3867.9	
372.05	5099.4	
372.25	7317.4	
372.46	5763.7	
372.66	3803.8	
372.87	3718.4	
373.07	5734.3	
373.28	7351.5	
373.48	4853	
373.69	4564.2	
373.9	5213.4	
374.1	5278.3	
374.31	4738.3	
374.51	4278.9	
374.72	6043.6	
374.92	4887.8	
375.13	4864.6	
375.33	4091.8	
375.54	5577.3	
375.74	4988.2	
375.95	4099.4	
376.15	5433.3	
376.36	5575.3	
376.56	5382.7	
376.77	4149.9	
376.97	4610	
377.18	6578.8	
377.38	5660.6	
377.59	4994.3	
377.79	3562.8	
378	5396.4	
378.2	5864	
378.41	3685	
378.61	3532.1	
378.82	5892.7	
379.02	4988.9	
379.23	3818.8	
379.43	5003.9	
379.64	5978.7	
379.84	5558.9	
380.05	3663.8	
380.25	3561.4	
380.46	5711.1	
380.66	5259.9	
380.87	5049.6	
381.07	5400.5	
381.28	6361	
381.48	5675.6	
381.69	3654.3	
381.89	3732.8	
382.1	4664.6	
382.3	5887.2	
382.51	4820.9	
382.71	5763.7	
382.91	5722	
383.12	6248.4	
383.32	4072	
383.53	4328	
383.73	5547.9	
383.94	5399.8	
384.14	4265.2	
384.35	3360	
384.55	5290.6	
384.76	5727.5	
384.96	4074.1	
385.17	4485.1	
385.37	5720	
385.58	5055.1	
385.78	4471.4	
385.98	3240.6	
386.19	5214.8	
386.39	5567.7	
386.6	3865.2	
386.8	4076.8	
387.01	5668.1	
387.21	5765.7	
387.42	4500.8	
387.62	5104.9	
387.83	4975.9	
388.03	5692	
388.23	4063.9	
388.44	4901.5	
388.64	4717.8	
388.85	4754	
389.05	4385.4	
389.26	5095.3	
389.46	6650.4	
389.67	6057.2	
389.87	4312.3	
390.07	4487.8	
390.28	5283.1	
390.48	4871.4	
390.69	3647.4	
390.89	3952.6	
391.1	5098.8	
391.3	6017.6	
391.5	5122.7	
391.71	5773.9	
391.91	5688.6	
392.12	6741.2	
392.32	5211.4	
392.53	4376.5	
392.73	5100.8	
392.93	5272.8	
393.14	4139.6	
393.34	4857.1	
393.55	5709.7	
393.75	5341.8	
393.95	4145.1	
394.16	4077.5	
394.36	5085.8	
394.57	5703.6	
394.77	3556.6	
394.98	3977.8	
395.18	5008.6	
395.38	5109.7	
395.59	4863.9	
395.79	3756	
396	5066.7	
396.2	5624.4	
396.4	4539.7	
396.61	4515.8	
396.81	5792.3	
397.02	4976.6	
397.22	4766.3	
397.42	4831.8	
397.63	5696.1	
397.83	4903.5	
398.04	3644	
398.24	4127.3	
398.44	5493.3	
398.65	4549.2	
398.85	3505.4	
399.05	3623.5	
399.26	4833.2	
399.46	6581.5	
399.67	3940.3	
399.87	3653.6	
400.07	5166.3	
400.28	5563.6	
400.48	3751.9	
400.69	4816.8	
400.89	5754.1	
401.09	6165.8	
401.3	3614.7	
401.5	4795.7	
401.7	6393.8	
401.91	6716.7	
402.11	3886.4	
402.32	4222.9	
402.52	5720.7	
402.72	5782.8	
402.93	4493.2	
403.13	3293.1	
403.33	6539.2	
403.54	5308.3	
403.74	4214	
403.94	5153.4	
404.15	5411.4	
404.35	6573.3	
404.56	3917.1	
404.76	5810.1	
404.96	5802.6	
405.17	5577.3	
405.37	5560.2	
405.57	4357.4	
405.78	5747.3	
405.98	5266.7	
406.18	3911.6	
406.39	4894	
406.59	5806.7	
406.79	5433.9	
407	3682.9	
407.2	3817.4	
407.4	5793.7	
407.61	6022.4	
407.81	3811.3	
408.01	5630.5	
408.22	4644.8	
408.42	6728.3	
408.62	4713.1	
408.83	4170.3	
409.03	5332.9	
409.23	5024.3	
409.44	4251.6	
409.64	4502.1	
409.84	6089.3	
410.05	5935.7	
410.25	4294.6	
410.45	4033.8	
410.66	5305.6	
410.86	7807.5	
411.06	4368.3	
411.27	4276.2	
411.47	7494.2	
411.67	5459.2	
411.88	4478.9	
412.08	4640.7	
412.28	6121.4	
412.49	6603.3	
412.69	4179.2	
412.89	4190.1	
413.09	6380.8	
413.3	6225.8	
413.5	4237.2	
413.7	3857.7	
413.91	5491.3	
414.11	6350.1	
414.31	3964.9	
414.52	4429.1	
414.72	5921.4	
414.92	5911.8	
415.12	4119.1	
415.33	4577.2	
415.53	6199.9	
415.73	6431.3	
415.94	4993.6	
416.14	4385.4	
416.34	5217.5	
416.55	4990.2	
416.75	5575.9	
416.95	4925.4	
417.15	6117.3	
417.36	6935.8	
417.56	5722	
417.76	4754	
417.97	6517.3	
418.17	6184.2	
418.37	4294.6	
418.57	4372.4	
418.78	5980.8	
418.98	5671.5	
419.18	5298.1	
419.38	5212.8	
419.59	5677	
419.79	5369.8	
419.99	4200.4	
420.2	4636.6	
420.4	6167.1	
420.6	6384.2	
420.8	4163.5	
421.01	4012.7	
421.21	5980.1	
421.41	6199.2	
421.61	4574.5	
421.82	4268	
422.02	5569.8	
422.22	6551.5	
422.42	5085.1	
422.63	4780	
422.83	5598.5	
423.03	6830.7	
423.23	4786.1	
423.44	3716.4	
423.64	5765.7	
423.84	5585.5	
424.04	4249.5	
424.25	3839.9	
424.45	6749.4	
424.65	6588.3	
424.85	3637.9	
425.06	4259.8	
425.26	6666.8	
425.46	5631.9	
425.66	4811.4	
425.87	4502.1	
426.07	6401.3	
426.27	6295.5	
426.47	4596.3	
426.67	3974.4	
426.88	6836.8	
427.08	6243.6	
427.28	4833.2	
427.48	3903.4	
427.69	5166.3	
427.89	5771.2	
428.09	4832.5	
428.29	3966.2	
428.5	6580.1	
428.7	5943.9	
428.9	3797.6	
429.1	4470	
429.3	5927.5	
429.51	6379.4	
429.71	4183.3	
429.91	4915.8	
430.11	6154.1	
430.31	6341.9	
430.52	4440	
430.72	4716.5	
430.92	6749.4	
431.12	6204	
431.32	4048.2	
431.53	4541.7	
431.73	5034.6	
431.93	6826.6	
432.13	4018.8	
432.33	3830.4	
432.54	5532.9	
432.74	5971.9	
432.94	3725.9	
433.14	4874.2	
433.34	6150.1	
433.55	5545.9	
433.75	4754.7	
433.95	6513.2	
434.15	5821.7	
434.35	5498.1	
434.56	3919.1	
434.76	3402.4	
434.96	5726.8	
435.16	5943.9	
435.36	3773.7	
435.56	4839.4	
435.77	5410.7	
435.97	5569.8	
436.17	5659.9	
436.37	4803.9	
436.57	5335	
436.78	5229.1	
436.98	5785.5	
437.18	5373.9	
437.38	5995.1	
437.58	5553.4	
437.78	5571.2	
437.99	4190.8	
438.19	6071.5	
438.39	6937.8	
438.59	4155.3	
438.79	3695.2	
438.99	6760.3	
439.2	5622.4	
439.4	3889.8	
439.6	3687	
439.8	5899.5	
440	6974.7	
440.2	4685.8	
440.4	4830.5	
440.61	6118	
440.81	6667.5	
441.01	3781.2	
441.21	4648.2	
441.41	6563.1	
441.61	6187.6	
441.81	5053	
442.02	6006.7	
442.22	7021.8	
442.42	6227.9	
442.62	3874.8	
442.82	3952.6	
443.02	6522.8	
443.22	5654.4	
443.43	4302.1	
443.63	3806.5	
443.83	5397.8	
444.03	5492	
444.23	5012.1	
444.43	4659.8	
444.63	5727.5	
444.83	6994.5	
445.04	3878.9	
445.24	5235.3	
445.44	6135.7	
445.64	6218.3	
445.84	4816.1	
446.04	4758.8	
446.24	5558.9	
446.44	6636.8	
446.65	4027	
446.85	4335.5	
447.05	6017.6	
447.25	6478.4	
447.45	4415.4	
447.65	3802.4	
447.85	5864	
448.05	5583.4	
448.25	4902.2	
448.46	4649.6	
448.66	5842.9	
448.86	5571.8	
449.06	3661.1	
449.26	4859.1	
449.46	6159.6	
449.66	5293.3	
449.86	4277.5	
450.06	4287.1	
450.26	5425.8	
450.47	5994.4	
450.67	4634.6	
450.87	4887.1	
451.07	6027.2	
451.27	5822.4	
451.47	3876.1	
451.67	4445.5	
451.87	5449.6	
452.07	6711.2	
452.27	4129.4	
452.47	4117.1	
452.67	5825.1	
452.88	6388.3	
453.08	3480.2	
453.28	5560.9	
453.48	6944.7	
453.68	5771.2	
453.88	3947.1	
454.08	4212	
454.28	6081.8	
454.48	5717.2	
454.68	4690.5	
454.88	5240.8	
455.08	6229.9	
455.28	5850.4	
455.48	3834.5	
455.68	4354	
455.89	6627.9	
456.09	6322.8	
456.29	4148.5	
456.49	4095.3	
456.69	6438.8	
456.89	5735	
457.09	4601.8	
457.29	4868.7	
457.49	5997.8	
457.69	6092	
457.89	4331.5	
458.09	3788.1	
458.29	5696.8	
458.49	6433.4	
458.69	4756.1	
458.89	4095.9	
459.09	6598.6	
459.29	6724.8	
459.49	4271.4	
459.69	5083.1	
459.9	6207.4	
460.1	5614.8	
460.3	4136.2	
460.5	3959.4	
460.7	6108.4	
460.9	5765.7	
461.1	3583.3	
461.3	4764.3	
461.5	6630	
461.7	6290.7	
461.9	3816	
462.1	4467.3	
462.3	5731.6	
462.5	6303.6	
462.7	3922.5	
462.9	3969.6	
463.1	7406.8	
463.3	6936.5	
463.5	4169.7	
463.7	5081.7	
463.9	5773.2	
464.1	6229.9	
464.3	4089.8	
464.5	4461.2	
464.7	6433.4	
464.9	5948.7	
465.1	5794.4	
465.3	4825.7	
465.5	6777.4	
465.7	6627.9	
465.9	4924.7	
466.1	4932.2	
466.3	6442.9	
466.5	6399.2	
466.7	5606	
466.9	4531.5	
467.1	6204.7	
467.3	7143.3	
467.5	5505.6	
467.7	4366.3	
467.9	7417.7	
468.1	8251.9	
468.3	5218.9	
468.5	5517.9	
468.7	6116.6	
468.9	6083.1	
469.1	4657.8	
469.3	5336.3	
469.5	8017.8	
469.7	5596.4	
469.9	5144.5	
470.1	4356	
470.3	6082.5	
470.5	6167.8	
470.7	5631.9	
470.9	4497.3	
471.1	5832.6	
471.3	6475	
471.5	4303.5	
471.69	6311.2	
471.89	5793	
472.09	5330.2	
472.29	5136.3	
472.49	5608.7	
472.69	5454.4	
472.89	6399.2	
473.09	4158.7	
473.29	4417.5	
473.49	5656.5	
473.69	5948	
473.89	5403.2	
474.09	4508.3	
474.29	7135.8	
474.49	6862.7	
474.69	5358.2	
474.89	4796.3	
475.09	5933	
475.29	5850.4	
475.49	4192.2	
475.69	4309.6	
475.88	7651.2	
476.08	6300.2	
476.28	4055	
476.48	4689.8	
476.68	6780.1	
476.88	6649.8	
477.08	4468	
477.28	4841.4	
477.48	6128.9	
477.68	6762.4	
477.88	4218.1	
478.08	4620.9	
478.28	7055.3	
478.48	6212.9	
478.67	4603.2	
478.87	4101.4	
479.07	6804.7	
479.27	6280.4	
479.47	4885.8	
479.67	4795	
479.87	6657.3	
480.07	7187	
480.27	4028.4	
480.47	5848.3	
480.67	6324.1	
480.87	6901	
481.06	4394.9	
481.26	5258.5	
481.46	6202.6	
481.66	6180.1	
481.86	4795.7	
482.06	5915.9	
482.26	5945.3	
482.46	7004.1	
482.66	4721.9	
482.86	4298	
483.05	6283.9	
483.25	5685.2	
483.45	7245.7	
483.65	4771.1	
483.85	5812.1	
484.05	6147.3	
484.25	5215.5	
484.45	5612.8	
484.65	7029.3	
484.84	6962.4	
485.04	4611.3	
485.24	4532.8	
485.44	7262.8	
485.64	5524.7	
485.84	3796.3	
486.04	5290.6	
486.24	5917.9	
486.44	6305.7	
486.63	3779.9	
486.83	4569.7	
487.03	5734.3	
487.23	5864	
487.43	3893.9	
487.63	6301.6	
487.83	6001.2	
488.02	7075.7	
488.22	4822.3	
488.42	5440.1	
488.62	6948.8	
488.82	5717.9	
489.02	4444.8	
489.22	4477.5	
489.41	6693.4	
489.61	6324.8	
489.81	4202.4	
490.01	4182	
490.21	6563.7	
490.41	7307.8	
490.61	4201.7	
490.8	4304.1	
491	6072.9	
491.2	5454.4	
491.4	4919.2	
491.6	4128	
491.8	6143.9	
491.99	6339.1	
492.19	3921.9	
492.39	4341.7	
492.59	6682.5	
492.79	6696.2	
492.99	5079	
493.18	4146.5	
493.38	6748.1	
493.58	7327.6	
493.78	4788.2	
493.98	4446.1	
494.18	6288.6	
494.37	5721.3	
494.57	4881	
494.77	4814.1	
494.97	6397.9	
495.17	6613.6	
495.37	4265.2	
495.56	4604.5	
495.76	6721.4	
495.96	6388.3	
496.16	5515.2	
496.36	4385.4	
496.55	6529.6	
496.75	6096.8	
496.95	4844.1	
497.15	4713.7	
497.35	6596.5	
497.54	6490.7	
497.74	4519.9	
497.94	6062	
498.14	7204.1	
498.34	7016.3	
498.53	4046.1	
498.73	4837.3	
498.93	5736.4	
499.13	6369.2	
499.33	4666	
499.52	5069.4	
499.72	6313.2	
499.92	6737.8	
500.12	4275.5	
500.32	4546.5	
500.51	6634.7	
500.71	6333.7	
500.91	5425.1	
501.11	4885.1	
501.31	6537.8	
501.5	6996.5	
501.7	5670.1	
501.9	4558.8	
502.1	6340.5	
502.29	6636.8	
502.49	5108.3	
502.69	5608.7	
502.89	6544.6	
503.09	6535.8	
503.28	4189.5	
503.48	4272.7	
503.68	5784.1	
503.88	5838.8	
504.07	5266	
504.27	4767.7	
504.47	6203.3	
504.67	6438.8	
504.86	5215.5	
505.06	5009.3	
505.26	5979.4	
505.46	7819.8	
505.65	4791.6	
505.85	5122	
506.05	5999.9	
506.25	6498.9	
506.44	4212.7	
506.64	5222.3	
506.84	5941.8	
507.04	6855.2	
507.23	4463.2	
507.43	5023	
507.63	7948.8	
507.83	6185.5	
508.02	5039.4	
508.22	4727.4	
508.42	8213	
508.62	5949.3	
508.81	4968.4	
509.01	5459.9	
509.21	5889.3	
509.4	6141.9	
509.6	5182	
509.8	4524	
510	6111.8	
510.19	7505.8	
510.39	4481	
510.59	4546.5	
510.79	5884.5	
510.98	7274.4	
511.18	4506.2	
511.38	4758.1	
511.57	6707.8	
511.77	6637.5	
511.97	5384.8	
512.17	4346.5	
512.36	6701	
512.56	6731.7	
512.76	4491.9	
512.95	4278.9	
513.15	6795.2	
513.35	5487.9	
513.55	5291.3	
513.74	4461.8	
513.94	6791.1	
514.14	6077	
514.33	5393.7	
514.53	5086.5	
514.73	6017.6	
514.92	6348.7	
515.12	4552	
515.32	4401.1	
515.51	6323.4	
515.71	6896.9	
515.91	6221.7	
516.11	4407.9	
516.3	8013.7	
516.5	5968.5	
516.7	5022.3	
516.89	5615.5	
517.09	6087.2	
517.29	5969.8	
517.48	5374.6	
517.68	4739.7	
517.88	5782.8	
518.07	6419.7	
518.27	5308.3	
518.47	4229.1	
518.66	7073.7	
518.86	5609.4	
519.06	4159.4	
519.25	4556.7	
519.45	5956.9	
519.65	7382.2	
519.84	5247.6	
520.04	5859.9	
520.24	7828.7	
520.43	6539.2	
520.63	4975.9	
520.83	4683	
521.02	5855.8	
521.22	6587	
521.42	5296	
521.61	5874.3	
521.81	6062.7	
522.01	6284.5	
522.2	5086.5	
522.4	4857.1	
522.6	6726.2	
522.79	5496.1	
522.99	4952.7	
523.18	4155.3	
523.38	6397.2	
523.58	6229.2	
523.77	6038.1	
523.97	4068.6	
524.17	8204.2	
524.36	7361.1	
524.56	5341.1	
524.76	4950.6	
524.95	6214.9	
525.15	5870.8	
525.34	4736.3	
525.54	4700.8	
525.74	6485.2	
525.93	5458.5	
526.13	5818.3	
526.33	4549.2	
526.52	6823.1	
526.72	6252.4	
526.91	5875.6	
527.11	5076.2	
527.31	6821.8	
527.5	7252.5	
527.7	4915.8	
527.89	3913.7	
528.09	5664	
528.29	6218.3	
528.48	5403.2	
528.68	5031.2	
528.87	6560.3	
529.07	6731.7	
529.27	4895.3	
529.46	4431.1	
529.66	6247	
529.85	6702.3	
530.05	4190.8	
530.25	5100.1	
530.44	7703.8	
530.64	6227.2	
530.83	4617.5	
531.03	4907.6	
531.23	6573.3	
531.42	6540.5	
531.62	5655.8	
531.81	4787.5	
532.01	6716	
532.21	7148.8	
532.4	4399.7	
532.6	4747.9	
532.79	7582.9	
532.99	6525.5	
533.18	4798.4	
533.38	5788.2	
533.58	6105.7	
533.77	6934.4	
533.97	4595	
534.16	5535	
534.36	7049.1	
534.55	6085.9	
534.75	5660.6	
534.95	4701.5	
535.14	6836.1	
535.34	6070.2	
535.53	4422.2	
535.73	6461.3	
535.92	7493.5	
536.12	6401.3	
536.31	4561.5	
536.51	5705.6	
536.71	6598.6	
536.9	6169.8	
537.1	4699.4	
537.29	4799.1	
537.49	7083.9	
537.68	5984.8	
537.88	5219.6	
538.07	4393.6	
538.27	6256.5	
538.46	7334.5	
538.66	4302.1	
538.86	4721.9	
539.05	6328.9	
539.25	6860.7	
539.44	4968.4	
539.64	4659.1	
539.83	6126.8	
540.03	7189.7	
540.22	4503.5	
540.42	4751.3	
540.61	6563.7	
540.81	6652.5	
541	5238.7	
541.2	5797.1	
541.39	6064.7	
541.59	6481.8	
541.78	5453.7	
541.98	4578.6	
542.18	5732.3	
542.37	5700.2	
542.57	5045.5	
542.76	5481.7	
542.96	5836.7	
543.15	6658.6	
543.35	5091.9	
543.54	4389.5	
543.74	6987.7	
543.93	6481.8	
544.13	5162.9	
544.32	6223.8	
544.52	6886	
544.71	6083.8	
544.91	4186	
545.1	5541.8	
545.3	6040.8	
545.49	6772.6	
545.69	4112.3	
545.88	4810	
546.08	7795.3	
546.27	7305.8	
546.47	5408.7	
546.66	4667.3	
546.86	7088	
547.05	7661.5	
547.24	4857.1	
547.44	4674.8	
547.63	6006.7	
547.83	7179.5	
548.02	5143.1	
548.22	5382.7	
548.41	5868.8	
548.61	7184.3	
548.8	4620.2	
549	4659.8	
549.19	6475	
549.39	6821.8	
549.58	4465.3	
549.78	4992.3	
549.97	6905.1	
550.17	6459.3	
550.36	5901.6	
550.55	6931.7	
550.75	6414.2	
550.94	7393.2	
551.14	4622.9	
551.33	5175.2	
551.53	5756.8	
551.72	6787	
551.92	5104.2	
552.11	4882.4	
552.31	6817	
552.5	6913.3	
552.69	6599.2	
552.89	4528.1	
553.08	6855.9	
553.28	6466.8	
553.47	4910.3	
553.67	6049	
553.86	7514.7	
554.06	5779.4	
554.25	4093.2	
554.44	4691.2	
554.64	8389.8	
554.83	7688.1	
555.03	4603.2	
555.22	5103.5	
555.42	7088.7	
555.61	6794.5	
555.8	4943.8	
556	5251.7	
556.19	5867.4	
556.39	7168.6	
556.58	4947.9	
556.78	4949.9	
556.97	6603.3	
557.16	6326.2	
557.36	6182.1	
557.55	4556	
557.75	5748.6	
557.94	7421.2	
558.13	4755.4	
558.33	4465.3	
558.52	7223.9	
558.72	6099.5	
558.91	4583.4	
559.1	4949.9	
559.3	5821.7	
559.49	5568.4	
559.69	4170.3	
559.88	5281.7	
560.07	6600.6	
560.27	7101	
560.46	5453.7	
560.66	5612.8	
560.85	6468.9	
561.04	5684.5	
561.24	4646.8	
561.43	4891.9	
561.63	5943.2	
561.82	6274.3	
562.01	6092.7	
562.21	5158.2	
562.4	6731.7	
562.59	7570.7	
562.79	4929.5	
562.98	4631.1	
563.18	6568.5	
563.37	8090.8	
563.56	5423.7	
563.76	4484.4	
563.95	6002.6	
564.14	5953.4	
564.34	4917.2	
564.53	4720.6	
564.73	6512.5	
564.92	6898.9	
565.11	5005.2	
565.31	4452.3	
565.5	7064.8	
565.69	6036.7	
565.89	4657.1	
566.08	4911	
566.27	7012.9	
566.47	7314	
566.66	5515.9	
566.85	4141.7	
567.05	6567.8	
567.24	5900.9	
567.44	4501.4	
567.63	5963.7	
567.82	6741.9	
568.02	6492.7	
568.21	4547.2	
568.4	4996.4	
568.6	6258.6	
568.79	6328.2	
568.98	4360.1	
569.18	4494.6	
569.37	6277.7	
569.56	8333.2	
569.76	4857.1	
569.95	5858.6	
570.14	6808.1	
570.34	6519.4	
570.53	4394.3	
570.72	4388.1	
570.91	7167.9	
571.11	6296.8	
571.3	4870.1	
571.49	5859.9	
571.69	6296.1	
571.88	5970.5	
572.07	5370.5	
572.27	5492.7	
572.46	5849	
572.65	6967.2	
572.85	4586.8	
573.04	4950.6	
573.23	7116.7	
573.43	6346.7	
573.62	4291.2	
573.81	4960.9	
574	6343.2	
574.2	6178.7	
574.39	4608.6	
574.58	4826.4	
574.78	7105.8	
574.97	6453.8	
575.16	5126.1	
575.36	5307	
575.55	6767.2	
575.74	7011.6	
575.93	4216.1	
576.13	5309.7	
576.32	6106.4	
576.51	6696.9	
576.71	4669.4	
576.9	6041.5	
577.09	7083.9	
577.28	6531	
577.48	5222.3	
577.67	4076.8	
577.86	6184.9	
578.05	6473.6	
578.25	4803.2	
578.44	4930.8	
578.63	6302.3	
578.83	7472.4	
579.02	4155.3	
579.21	5693.4	
579.4	6528.2	
579.6	6168.5	
579.79	5035.3	
579.98	7201.3	
580.17	6948.1	
580.37	6905.1	
580.56	4374.5	
580.75	5154.7	
580.94	7406.1	
581.14	7199.3	
581.33	5644.9	
581.52	4500.1	
581.71	6689.3	
581.91	7347.4	
582.1	4172.4	
582.29	4829.8	
582.48	6328.2	
582.68	6239.5	
582.87	5292.6	
583.06	4903.5	
583.25	6608.1	
583.45	6377.4	
583.64	5563	
583.83	6235.4	
584.02	6137.8	
584.21	6493.4	
584.41	5648.3	
584.6	4838	
584.79	6309.8	
584.98	7091.4	
585.18	4284.4	
585.37	4292.5	
585.56	5818.3	
585.75	6625.9	
585.94	4581.3	
586.14	5216.9	
586.33	7346.1	
586.52	6229.9	
586.71	5142.4	
586.91	4838.7	
587.1	5771.9	
587.29	6795.8	
587.48	4906.9	
587.67	4653.7	
587.87	6693.4	
588.06	6883.2	
588.25	6122.7	
588.44	5290.6	
588.63	6426.5	
588.83	6984.3	
589.02	4862.6	
589.21	4771.8	
589.4	6378.1	
589.59	6156.2	
589.78	4128	
589.98	4507.6	
590.17	5894.7	
590.36	6507.8	
590.55	4006.5	
590.74	4901.5	
590.94	8001.4	
591.13	6534.4	
591.32	4577.2	
591.51	4169.7	
591.7	6981.5	
591.89	6384.2	
592.09	4197.7	
592.28	4792.9	
592.47	5670.8	
592.66	7517.4	
592.85	4161.5	
593.05	4405.2	
593.24	6236.7	
593.43	7060	
593.62	4412	
593.81	5015.5	
594	6267.5	
594.19	6475	
594.39	4429.1	
594.58	4402.5	
594.77	6640.9	
594.96	7220.5	
595.15	4388.1	
595.34	5033.2	
595.54	6732.4	
595.73	5744.6	
595.92	3704.8	
596.11	4953.4	
596.3	7207.5	
596.49	5857.2	
596.68	4720.6	
596.88	5203.9	
597.07	6957.6	
597.26	5666	
597.45	4214.7	
597.64	5411.4	
597.83	5881.8	
598.02	6615.6	
598.22	4370.4	
598.41	5055.8	
598.6	6403.3	
598.79	5869.5	
598.98	4414.7	
599.17	5380	
599.36	6467.5	
599.55	7619.1	
599.74	6446.3	
599.94	6160.3	
600.13	6983.6	
600.32	5839.4	
600.51	4078.2	
600.7	4237.2	
600.89	7608.2	
601.08	7623.9	
601.27	4009.2	
601.47	5053	
601.66	6943.3	
601.85	7582.9	
602.04	4669.4	
602.23	4835.3	
602.42	5975.3	
602.61	6617.7	
602.8	4607.2	
602.99	4448.9	
603.18	6346	
603.37	6562.4	
603.57	5153.4	
603.76	5683.8	
603.95	7276.4	
604.14	6843.6	
604.33	4527.4	
604.52	4828.4	
604.71	6450.4	
604.9	6088.6	
605.09	5460.6	
605.28	5282.4	
605.47	7125.6	
605.66	6810.2	
605.86	5055.1	
606.05	4562.9	
606.24	7137.2	
606.43	5644.9	
606.62	4761.5	
606.81	5648.3	
607	6989	
607.19	6313.9	
607.38	4362.9	
607.57	4582	
607.76	6012.2	
607.95	5582.8	
608.14	5062.6	
608.33	5690.6	
608.52	6071.5	
608.72	6946	
608.91	4282.3	
609.1	4165.6	
609.29	6210.8	
609.48	5702.9	
609.67	5155.4	
609.86	4270	
610.05	5771.9	
610.24	6219	
610.43	4030.4	
610.62	3750.5	
610.81	7314.7	
611	7128.3	
611.19	4216.1	
611.38	4923.3	
611.57	6460	
611.76	7825.3	
611.95	4035.2	
612.14	3913	
612.33	6211.5	
612.52	5791.7	
612.71	4585.4	
612.9	3738.2	
613.09	5396.4	
613.28	7705.1	
613.47	4289.8	
613.66	5294	
613.85	6386.2	
614.04	5889.3	
614.24	4392.9	
614.43	3603.1	
614.62	6530.3	
614.81	6449.7	
615	5023	
615.19	4868.7	
615.38	5811.5	
615.57	6114.6	
615.76	4833.2	
615.95	5821.7	
616.14	6601.3	
616.33	6196.5	
616.52	5189.6	
616.71	5406.6	
616.9	6541.2	
617.09	6290.7	
617.28	4487.8	
617.47	5762.3	
617.66	5668.1	
617.85	5573.9	
618.04	5375.2	
618.22	4787.5	
618.41	5847.6	
618.6	6680.5	
618.79	4641.4	
618.98	4339	
619.17	7130.3	
619.36	5342.5	
619.55	4458.4	
619.74	4581.3	
619.93	6315.9	
620.12	5713.8	
620.31	5099.4	
620.5	5250.3	
620.69	6847.7	
620.88	7189.7	
621.07	5977.3	
621.26	4954.7	
621.45	6445	
621.64	6438.1	
621.83	5011.4	
622.02	4094.6	
622.21	6454.5	
622.4	6233.3	
622.59	5562.3	
622.78	5314.5	
622.97	5777.3	
623.16	6726.9	
623.35	4875.5	
623.54	4066.6	
623.72	5981.4	
623.91	6135	
624.1	5197.7	
624.29	3805.1	
624.48	7203.4	
624.67	6536.4	
624.86	5037.3	
625.05	4027	
625.24	7243	
625.43	5694.7	
625.62	6837.5	
625.81	4254.3	
626	6810.2	
626.19	5976.7	
626.38	5128.1	
626.56	4482.3	
626.75	5792.3	
626.94	6598.6	
627.13	5113.1	
627.32	3829.7	
627.51	6525.5	
627.7	7929.1	
627.89	4032.5	
628.08	5130.2	
628.27	5740.5	
628.46	5965.1	
628.65	4292.5	
628.83	3944.4	
629.02	6485.9	
629.21	5685.8	
629.4	4694.6	
629.59	4997.7	
629.78	5641.5	
629.97	6739.9	
630.16	5045.5	
630.35	4417.5	
630.54	7048.4	
630.72	6893.5	
630.91	4379.9	
631.1	4992.3	
631.29	6270.9	
631.48	6447.7	
631.67	5035.3	
631.86	4530.1	
632.05	5854.5	
632.24	5948	
632.42	4218.8	
632.61	4846.2	
632.8	6123.4	
632.99	5673.6	
633.18	4775.9	
633.37	5313.1	
633.56	6326.2	
633.75	6126.2	
633.93	4829.1	
634.12	4426.3	
634.31	7176.1	
634.5	6717.3	
634.69	4425	
634.88	5074.9	
635.07	6027.9	
635.25	6621.1	
635.44	5472.2	
635.63	5611.4	
635.82	5956.2	
636.01	5459.2	
636.2	5428.5	
636.39	4870.8	
636.57	7057.3	
636.76	6787	
636.95	4328.7	
637.14	5776	
637.33	6417.7	
637.52	7382.9	
637.7	4101.4	
637.89	5098.8	
638.08	5998.5	
638.27	7549.5	
638.46	5177.9	
638.65	5709.1	
638.83	7494.9	
639.02	5847.6	
639.21	5204.6	
639.4	5631.9	
639.59	6356.9	
639.78	5961	
639.96	4518.5	
640.15	4459.1	
640.34	6276.3	
640.53	6438.8	
640.72	4183.3	
640.91	4546.5	
641.09	5674.9	
641.28	7081.9	
641.47	4556	
641.66	5394.3	
641.85	6320.7	
642.03	6752.8	
642.22	5145.9	
642.41	4645.5	
642.6	5862	
642.79	5259.9	
642.97	4446.1	
643.16	5213.4	
643.35	5826.5	
643.54	5638.7	
643.73	4392.9	
643.91	5238.7	
644.1	5554.8	
644.29	6163	
644.48	4525.3	
644.67	4559.5	
644.85	5768.4	
645.04	6124.8	
645.23	4243.4	
645.42	4448.2	
645.6	5692.7	
645.79	6950.8	
645.98	4593.6	
646.17	3594.9	
646.36	5533.6	
646.54	6214.9	
646.73	5485.8	
646.92	4173.8	
647.11	5834.7	
647.29	6950.8	
647.48	4291.2	
647.67	4139.6	
647.86	7154.9	
648.05	7092.8	
648.23	4660.5	
648.42	6012.2	
648.61	6531.7	
648.8	6201.2	
648.98	4307.6	
649.17	4633.9	
649.36	5838.8	
649.55	5292	
649.73	4336.2	
649.92	5115.1	
650.11	5721.3	
650.3	6019.7	
650.48	4504.8	
650.67	4216.8	
650.86	6397.2	
651.05	5257.8	
651.23	4465.9	
651.42	4438.6	
651.61	5827.8	
651.79	5961	
651.98	4737	
652.17	4209.9	
652.36	6370.5	
652.54	5443.5	
652.73	4332.8	
652.92	4179.9	
653.11	6348	
653.29	6397.9	
653.48	3614	
653.67	4779.3	
653.85	6161	
654.04	7239.6	
654.23	4982	
654.42	4485.1	
654.6	5788.9	
654.79	6490	
654.98	3941	
655.16	4644.8	
655.35	5427.1	
655.54	5356.1	
655.73	4143	
655.91	4072.7	
656.1	6634.7	
656.29	5325.4	
656.47	3586	
656.66	5314.5	
656.85	5612.1	
657.03	5556.1	
657.22	4112.3	
657.41	4252.3	
657.59	5689.3	
657.78	5448.3	
657.97	3800.3	
658.16	4601.1	
658.34	6335	
658.53	6737.1	
658.72	5451	
658.9	6013.5	
659.09	5688.6	
659.28	5853.1	
659.46	4274.8	
659.65	4206.5	
659.84	5515.2	
660.02	6059.3	
660.21	4077.5	
660.4	4021.5	
660.58	6457.2	
660.77	5822.4	
660.96	4693.9	
661.14	3691.1	
661.33	6986.3	
661.52	6881.2	
661.7	3683.6	
661.89	7555	
662.08	5513.8	
662.26	5053	
662.45	3962.8	
662.64	4064.5	
662.82	6173.9	
663.01	5398.4	
663.2	4209.9	
663.38	4929.5	
663.57	6110.5	
663.75	5948.7	
663.94	4444.1	
664.13	5808	
664.31	5496.7	
664.5	6150.7	
664.69	4646.2	
664.87	5326.8	
665.06	5216.2	
665.25	5993.7	
665.43	5582.1	
665.62	5672.9	
665.8	6300.2	
665.99	5657.9	
666.18	4451.6	
666.36	4556	
666.55	6263.4	
666.74	6202.6	
666.92	4084.3	
667.11	5788.9	
667.29	5586.9	
667.48	6300.9	
667.67	5393.7	
667.85	4513	
668.04	5735	
668.22	5627.1	
668.41	4515.8	
668.6	4747.2	
668.78	5488.6	
668.97	5681.7	
669.15	4945.2	
669.34	3830.4	
669.53	5536.3	
669.71	5867.4	
669.9	4121.2	
670.08	4773.1	
670.27	5478.3	
670.46	6118.6	
670.64	4953.4	
670.83	5156.8	
671.01	5356.1	
671.2	6085.9	
671.38	4070	
671.57	3991.5	
671.76	6688.7	
671.94	7151.5	
672.13	3961.5	
672.31	5138.4	
672.5	6161.7	
672.69	5461.9	
672.87	4164.9	
673.06	4452.3	
673.24	5987.6	
673.43	5556.1	
673.61	4975.2	
673.8	4513.7	
673.98	6235.4	
674.17	6448.4	
674.36	5117.2	
674.54	4902.2	
674.73	6025.1	
674.91	6201.2	
675.1	4633.9	
675.28	4224.3	
675.47	5753.4	
675.65	6350.1	
675.84	4461.8	
676.03	4773.8	
676.21	5529.5	
676.4	5053	
676.58	5302.9	
676.77	4992.9	
676.95	7081.2	
677.14	5541.8	
677.32	4151.2	
677.51	3896.6	
677.69	6289.3	
677.88	5087.8	
678.06	4024.9	
678.25	4077.5	
678.44	5791	
678.62	5543.9	
678.81	3798.3	
678.99	4786.8	
679.18	6651.1	
679.36	6153.5	
679.55	4437.3	
679.73	5102.9	
679.92	6107.7	
680.1	5504.9	
680.29	5603.2	
680.47	4425.7	
680.66	5469.4	
680.84	6335.7	
681.03	3669.3	
681.21	4858.5	
681.4	5494	
681.58	5457.2	
681.77	4221.5	
681.95	4107.5	
682.14	6391.7	
682.32	6802	
682.51	5112.4	
682.69	3941	
682.88	5482.4	
683.06	6184.9	
683.25	4829.1	
683.43	5332.2	
683.62	5743.2	
683.8	6156.9	
683.99	5337	
684.17	4724.7	
684.36	7107.8	
684.54	5780.1	
684.73	3910.9	
684.91	4155.3	
685.1	6168.5	
685.28	5618.3	
685.46	4814.1	
685.65	4926	
685.83	6447.7	
686.02	5810.1	
686.2	4349.2	
686.39	4406.5	
686.57	5634.6	
686.76	7082.6	
686.94	4164.2	
687.13	4384.7	
687.31	6314.6	
687.5	5787.6	
687.68	3846.8	
687.86	5142.4	
688.05	7343.3	
688.23	5208	
688.42	5143.8	
688.6	4265.9	
688.79	5623.7	
688.97	5675.6	
689.16	4773.8	
689.34	3613.3	
689.52	6445.6	
689.71	6576	
689.89	5033.2	
690.08	4307.6	
690.26	5857.2	
690.45	5774.6	
690.63	5247.6	
690.81	4446.1	
691	5627.8	
691.18	5582.1	
691.37	4560.8	
691.55	6927.6	
691.74	5581.4	
691.92	7622.5	
692.1	4625.7	
692.29	4019.5	
692.47	5742.5	
692.66	5069.4	
692.84	4268.6	
693.02	4914.4	
693.21	5151.3	
693.39	5725.4	
693.58	4880.3	
693.76	4315.1	
693.94	6933.1	
694.13	6595.8	
694.31	4193.6	
694.5	5322	
694.68	5469.4	
694.86	5735.7	
695.05	4541	
695.23	4918.5	
695.42	6086.6	
695.6	8542.8	
695.78	5218.2	
695.97	4259.1	
696.15	6152.8	
696.34	5534.3	
696.52	4012.7	
696.7	4832.5	
696.89	5933.6	
697.07	5381.4	
697.25	4861.9	
697.44	6514.6	
697.62	5913.9	
697.81	6380.8	
697.99	4541	
698.17	5025	
698.36	5247.6	
698.54	5950	
698.72	4874.8	
698.91	3908.2	
699.09	5560.9	
699.28	5467.4	
699.46	4541.7	
699.64	4431.1	
699.83	5362.3	
700.01	6752.2	
700.19	5216.9	
700.38	3571.7	
700.56	6625.2	
700.74	5427.1	
700.93	3998.3	
701.11	4846.9	
701.29	6116.6	
701.48	7051.8	
701.66	4246.8	
701.84	4214.7	
702.03	5532.2	
702.21	6186.9	
702.39	3707.5	
702.58	4368.3	
702.76	5884.5	
702.94	6133.7	
703.13	3834.5	
703.31	6270.9	
703.49	5222.3	
703.68	6773.3	
703.86	4014.7	
704.04	4977.2	
704.23	5780.7	
704.41	6115.9	
704.59	4087.7	
704.78	5441.5	
704.96	6872.3	
705.14	6197.2	
705.33	3780.6	
705.51	4800.4	
705.69	5568.4	
705.87	6498.9	
706.06	5028.4	
706.24	3832.4	
706.42	5902.2	
706.61	6214.2	
706.79	5075.5	
706.97	3942.3	
707.16	5354.8	
707.34	5967.8	
707.52	5039.4	
707.7	4172.4	
707.89	5571.8	
708.07	5196.4	
708.25	4981.3	
708.44	5124.7	
708.62	5433.9	
708.8	6604.7	
708.98	5299.5	
709.17	4192.9	
709.35	5869.5	
709.53	5909.1	
709.72	3940.3	
709.9	4166.3	
710.08	6020.3	
710.26	6166.4	
710.45	5631.2	
710.63	4269.3	
710.81	5800.5	
710.99	5905.7	
711.18	4958.1	
711.36	4478.9	
711.54	5651.7	
711.72	6442.9	
711.91	4518.5	
712.09	3943.7	
712.27	5850.4	
712.45	6515.3	
712.64	4978.6	
712.82	3834.5	
713	5381.4	
713.18	5578	
713.37	3989.4	
713.55	5455.1	
713.73	6559	
713.91	5144.5	
714.1	4575.8	
714.28	4058.4	
714.46	6391.7	
714.64	5529.5	
714.83	3614	
715.01	4450.2	
715.19	5730.2	
715.37	5152.7	
715.55	4224.3	
715.74	4592.9	
715.92	6736.5	
716.1	4663.9	
716.28	5748.6	
716.47	4764.9	
716.65	5404.6	
716.83	5509.7	
717.01	4625	
717.19	4721.9	
717.38	7686.7	
717.56	5223.7	
717.74	4891.9	
717.92	3962.8	
718.1	6455.9	
718.29	5553.4	
718.47	3499.3	
718.65	4115.1	
718.83	6245.6	
719.01	6064	
719.2	3276.1	
719.38	4480.3	
719.56	5807.4	
719.74	7342	
719.92	3940.3	
720.11	5059.8	
720.29	5842.9	
720.47	4937.7	
720.65	3653.6	
720.83	4480.3	
721.02	5435.3	
721.2	5240.1	
721.38	4685.8	
721.56	3855.6	
721.74	4685.8	
721.92	4978.6	
722.11	5182.7	
722.29	4863.2	
722.47	6253.8	
722.65	5358.9	
722.83	3936.2	
723.01	4907.6	
723.2	5425.8	
723.38	5765.7	
723.56	3330.7	
723.74	4549.2	
723.92	4906.9	
724.1	6085.9	
724.29	3860.4	
724.47	5060.5	
724.65	5058.5	
724.83	4917.2	
725.01	3728.7	
725.19	4670.7	
725.37	5030.5	
725.56	5153.4	
725.74	3611.9	
725.92	3819.5	
726.1	4899.4	
726.28	5268.1	
726.46	4369.7	
726.64	4057.7	
726.83	5223.7	
727.01	5611.4	
727.19	3559.4	
727.37	4517.1	
727.55	5335.6	
727.73	5909.1	
727.91	3576.4	
728.09	3390.8	
728.28	5920.7	
728.46	6602.7	
728.64	4547.2	
728.82	4482.3	
729	6962.4	
729.18	6236.1	
729.36	3642.7	
729.54	6054.5	
729.72	7210.2	
729.91	5415.5	
730.09	5501.5	
730.27	4244.8	
730.45	5329.5	
730.63	6003.3	
730.81	4917.2	
730.99	3876.8	
731.17	6464.1	
731.35	4967	
731.53	4435.9	
731.71	4059.1	
731.9	6198.5	
732.08	6410.1	
732.26	4312.3	
732.44	3990.8	
732.62	6453.1	
732.8	5896.1	
732.98	4713.7	
733.16	3786.7	
733.34	5973.9	
733.52	4711.7	
733.7	4343.1	
733.88	4616.8	
734.07	5779.4	
734.25	5517.9	
734.43	3730.7	
734.61	5412.1	
734.79	7106.5	
734.97	5317.2	
735.15	3881.6	
735.33	4252.9	
735.51	5836	
735.69	5403.2	
735.87	5498.1	
736.05	4467.3	
736.23	5576.6	
736.41	5354.8	
736.59	4323.9	
736.77	4408.6	
736.95	6005.3	
737.13	5440.1	
737.32	3936.2	
737.5	4101.4	
737.68	6681.2	
737.86	5368.4	
738.04	3715.7	
738.22	5737.7	
738.4	5188.9	
738.58	5539.8	
738.76	4452.3	
738.94	3366.2	
739.12	5366.4	
739.3	5200.5	
739.48	5068.7	
739.66	4773.8	
739.84	5575.9	
740.02	5564.3	
740.2	3411.2	
740.38	3876.1	
740.56	6021.7	
740.74	4775.9	
740.92	4533.5	
741.1	4457.7	
741.28	5436	
741.46	5226.4	
741.64	4061.8	
741.82	4624.3	
742	5467.4	
742.18	5452.4	
742.36	4278.2	
742.54	3855.6	
742.72	6099.5	
742.9	4728.1	
743.08	4681	
743.26	3436.5	
743.44	6305.7	
743.62	6126.2	
743.8	4958.8	
743.98	3941	
744.16	5909.1	
744.34	5452.4	
744.52	4780	
744.7	4752.7	
744.88	6081.8	
745.06	5509.7	
745.24	4833.2	
745.42	5063.3	
745.6	6105	
745.78	5919.3	
745.96	3634.5	
746.14	4091.8	
746.32	6946.7	
746.5	6137.8	
746.68	4635.2	
746.86	4134.2	
747.03	6590.4	
747.21	4830.5	
747.39	4654.4	
747.57	4108.9	
747.75	5743.2	
747.93	6182.8	
748.11	4129.4	
748.29	3959.4	
748.47	7389.1	
748.65	5433.3	
748.83	4846.2	
749.01	4564.9	
749.19	6024.4	
749.37	5156.1	
749.55	4444.1	
749.73	4472.8	
749.91	5619.6	
750.09	5325.4	
750.26	4569	
750.44	3933.5	
750.62	5668.1	
750.8	5638.1	
750.98	3745.1	
751.16	4129.4	
751.34	5727.5	
751.52	5038.7	
751.7	4959.5	
751.88	3796.9	
752.06	6191.7	
752.24	6078.4	
752.42	3693.9	
752.59	4077.5	
752.77	5629.2	
752.95	6941.9	
753.13	4881.7	
753.31	4271.4	
753.49	5316.5	
753.67	5780.1	
753.85	4616.1	
754.03	4170.3	
754.21	6148.7	
754.38	6488	
754.56	4420.9	
754.74	3416	
754.92	5471.5	
755.1	6191	
755.28	3545	
755.46	3631.7	
755.64	7092.1	
755.82	7275.8	
755.99	4050.9	
756.17	4230.4	
756.35	4756.7	
756.53	6427.9	
756.71	3084.2	
756.89	4111.6	
757.07	6016.9	
757.25	5033.2	
757.42	4590.2	
757.6	5509	
757.78	5933.6	
757.96	4874.8	
758.14	4227.7	
758.32	3681.6	
758.5	4476.2	
758.67	5360.2	
758.85	3988.8	
759.03	4167.6	
759.21	5515.2	
759.39	4965	
759.57	3633.1	
759.75	4752.7	
759.92	6207.4	
760.1	5431.9	
760.28	5109	
760.46	5393.7	
760.64	5179.3	
760.82	4910.3	
760.99	4956.1	
761.17	4044.1	
761.35	6016.2	
761.53	4909.7	
761.71	4188.1	
761.89	4907.6	
762.06	5826.5	
762.24	5281	
762.42	4284.4	
762.6	4021.5	
762.78	5326.1	
762.96	5935	
763.13	4642.1	
763.31	4278.2	
763.49	6186.9	
763.67	5217.5	
763.85	5101.5	
764.02	5671.5	
764.2	6421.1	
764.38	5519.3	
764.56	4147.8	
764.74	5054.4	
764.91	6513.2	
765.09	5367.7	
765.27	3849.5	
765.45	3646.7	
765.63	6554.2	
765.8	6474.3	
765.98	3350.5	
766.16	3721.2	
766.34	4987.5	
766.52	4728.8	
766.69	4817.5	
766.87	3577.8	
767.05	5459.2	
767.23	6120	
767.41	3849.5	
767.58	4251.6	
767.76	6017.6	
767.94	6094.1	
768.12	3992.2	
768.29	4771.1	
768.47	5523.4	
768.65	6251.1	
768.83	3668.6	
769	4816.8	
769.18	5063.9	
769.36	5816.9	
769.54	4636.6	
769.72	3750.5	
769.89	6120.7	
770.07	6255.9	
770.25	4052.9	
770.43	5401.2	
770.6	6944.7	
770.78	7388.4	
770.96	4248.9	
771.14	4974.5	
771.31	5978.7	
771.49	5389.6	
771.67	3424.9	
771.85	3689.8	
772.02	4569.7	
772.2	5385.5	
772.38	4444.8	
772.55	3922.5	
772.73	5642.2	
772.91	5461.9	
773.09	4370.4	
773.26	4422.2	
773.44	5650.3	
773.62	5345.2	
773.8	3848.1	
773.97	3586	
774.15	5806	
774.33	5344.5	
774.5	3740.3	
774.68	4182	
774.86	5900.2	
775.04	5423	
775.21	3833.8	
775.39	3842.7	
775.57	5712.5	
775.74	6092.7	
775.92	3670.6	
776.1	3574.4	
776.27	5715.2	
776.45	6975.4	
776.63	3899.3	
776.81	3326.6	
776.98	5327.4	
777.16	6468.2	
777.34	4039.3	
777.51	4028.4	
777.69	5259.9	
777.87	5075.5	
778.04	4049.5	
778.22	4730.8	
778.4	5103.5	
778.57	5833.3	
778.75	3335.5	
778.93	3691.1	
779.1	4928.8	
779.28	4760.8	
779.46	3393.5	
779.64	3905.5	
779.81	6007.4	
779.99	6877.8	
780.17	4724.7	
780.34	4825	
780.52	5388.9	
780.69	5618.9	
780.87	4250.9	
781.05	3800.3	
781.22	5520.6	
781.4	5572.5	
781.58	3959.4	
781.75	3027.6	
781.93	5569.8	
782.11	4898.7	
782.28	4891.2	
782.46	3920.5	
782.64	4781.3	
782.81	5853.8	
782.99	4067.3	
783.17	4009.2	
783.34	5662	
783.52	4809.3	
783.69	4248.9	
783.87	5081.7	
784.05	4890.5	
784.22	4935.6	
784.4	5077.6	
784.58	4387.4	
784.75	5920	
784.93	4947.9	
785.1	3952.6	
785.28	4641.4	
785.46	5599.8	
785.63	4909.7	
785.81	3940.3	
785.99	3840.6	
786.16	5116.5	
786.34	5530.9	
786.51	3854.3	
786.69	4218.8	
786.87	4678.2	
787.04	5227.1	
787.22	3642	
787.39	4699.4	
787.57	4920.6	
787.75	6061.3	
787.92	4887.1	
788.1	4855.7	
788.27	4958.8	
788.45	4743.1	
788.63	4530.8	
788.8	3186	
788.98	5395.7	
789.15	4659.8	
789.33	3348.4	
789.5	4119.1	
789.68	5975.3	
789.86	6064	
790.03	4480.3	
790.21	3906.8	
790.38	5956.2	
790.56	5094	
790.73	3754.6	
790.91	3796.3	
791.09	5029.1	
791.26	5742.5	
791.44	3995.6	
791.61	3422.8	
791.79	4924.7	
791.96	5126.1	
792.14	3546.4	
792.32	3146.4	
792.49	4974.5	
792.67	5103.5	
792.84	3665.9	
793.02	3443.3	
793.19	5390.3	
793.37	6265.4	
793.54	3163.4	
793.72	3528	
793.89	6457.2	
794.07	5021.6	
794.25	4168.3	
794.42	3218.7	
794.6	6170.5	
794.77	5698.1	
794.95	4416.1	
795.12	3885	
795.3	5035.3	
795.47	5655.1	
795.65	4242.7	
795.82	4070	
796	4807.3	
796.17	6820.4	
796.35	3949.8	
796.52	4716.5	
796.7	5569.1	
796.87	5758.9	
797.05	4984.1	
797.22	4825	
797.4	5620.3	
797.57	6692.1	
797.75	4080.2	
797.92	3797.6	
798.1	5965.1	
798.27	5027.8	
798.45	3248.8	
798.62	3538.2	
798.8	5286.5	
798.97	5898.8	
799.15	4387.4	
799.32	4099.4	
799.5	4591.5	
799.67	5405.3	
799.85	4403.1	
800.02	3192.1	
800.2	4960.9	
800.37	5369.1	
800.55	4646.8	
800.72	3834.5	
800.9	5859.2	
801.07	6268.8	
801.25	5218.9	
801.42	4226.3	
801.6	5863.3	
801.77	5561.6	
801.95	3890.5	
802.12	3761.4	
802.29	5585.5	
802.47	5581.4	
802.64	4200.4	
802.82	3170.3	
802.99	4962.9	
803.17	5984.2	
803.34	4102.8	
803.52	3692.5	
803.69	6689.3	
803.87	4770.4	
804.04	4049.5	
804.21	4212.7	
804.39	6177.4	
804.56	5226.4	
804.74	3401.7	
804.91	4287.1	
805.09	5001.8	
805.26	5170.4	
805.44	3519.1	
805.61	3878.2	
805.78	5694	
805.96	5698.8	
806.13	4315.8	
806.31	4603.8	
806.48	4526.7	
806.66	5113.8	
806.83	4214	
807	4122.6	
807.18	5050.3	
807.35	5423	
807.53	4145.1	
807.7	3246	
807.87	6255.2	
808.05	5102.2	
808.22	4558.8	
808.4	3295.9	
808.57	5102.2	
808.74	4688.5	
808.92	3803.1	
809.09	4840.7	
809.27	4961.5	
809.44	5580.7	
809.61	3312.9	
809.79	3721.8	
809.96	6262	
810.14	5885.9	
810.31	3220.1	
810.48	4010.6	
810.66	5153.4	
810.83	5982.1	
811.01	3778.5	
811.18	4220.9	
811.35	5816.2	
811.53	4517.1	
811.7	4639.3	
811.87	4319.8	
812.05	5107.6	
812.22	4990.9	
812.39	3672	
812.57	3523.2	
812.74	5082.4	
812.92	6886	
813.09	3956	
813.26	4414.1	
813.44	6522.1	
813.61	4975.2	
813.78	3261.7	
813.96	4501.4	
814.13	5132.2	
814.3	4718.5	
814.48	4873.5	
814.65	4024.3	
814.82	6352.8	
815	4835.9	
815.17	4100.7	
815.34	5102.2	
815.52	4969.7	
815.69	4929.5	
815.87	4051.6	
816.04	3516.4	
816.21	5217.5	
816.38	4470.7	
816.56	3965.6	
816.73	3594.2	
816.9	6395.8	
817.08	5899.5	
817.25	3741.6	
817.42	4732.9	
817.6	4611.3	
817.77	5125.4	
817.94	4258.4	
818.12	3631.7	
818.29	4805.2	
818.46	7645.1	
818.64	3822.2	
818.81	3568.9	
818.98	4725.3	
819.16	7038.9	
819.33	4389.5	
819.5	4156.7	
819.67	5457.8	
819.85	6160.3	
820.02	4054.3	
820.19	4284.4	
820.37	5302.9	
820.54	4871.4	
820.71	4235.2	
820.88	5210	
821.06	5309.7	
821.23	4861.9	
821.4	4220.9	
821.58	4212.7	
821.75	5834.7	
821.92	5207.3	
822.09	3334.8	
822.27	3730.7	
822.44	5102.9	
822.61	5010	
822.79	3328.6	
822.96	6573.3	
823.13	5642.2	
823.3	4805.2	
823.48	3836.5	
823.65	3497.2	
823.82	5791.7	
823.99	4626.4	
824.17	4977.9	
824.34	3551.9	
824.51	6723.5	
824.68	5154.7	
824.86	3758	
825.03	4115.7	
825.2	5057.1	
825.37	6238.8	
825.55	3663.8	
825.72	4175.8	
825.89	6864.1	
826.06	6363	
826.24	4003.8	
826.41	4072	
826.58	6259.3	
826.75	5410.7	
826.92	3170.3	
827.1	3488.4	
827.27	8566	
827.44	6799.3	
827.61	3844.7	
827.79	4623.6	
827.96	4807.3	
828.13	5203.9	
828.3	3962.8	
828.47	3364.8	
828.65	5315.8	
828.82	5212.8	
828.99	5145.2	
829.16	4556	
829.34	5721.3	
829.51	5455.1	
829.68	4231.8	
829.85	4328.7	
830.02	5991	
830.2	5745.9	
830.37	3121.1	
830.54	5041.4	
830.71	6558.3	
830.88	5101.5	
831.05	3222.1	
831.23	3736.2	
831.4	6264.1	
831.57	7044.3	
831.74	3850.9	
831.91	3371.6	
832.09	5339.1	
832.26	5727.5	
832.43	3954.6	
832.6	4474.1	
832.77	5377.3	
832.94	6154.8	
833.12	3130	
833.29	3949.2	
833.46	4973.8	
833.63	7264.1	
833.8	4341.7	
833.97	4035.9	
834.15	5799.8	
834.32	5499.5	
834.49	4100.7	
834.66	4218.1	
834.83	5969.1	
835	4765.6	
835.17	3815.4	
835.35	3891.8	
835.52	5593	
835.69	5500.2	
835.86	4037.9	
836.03	3308.8	
836.2	5653.1	
836.37	5255.1	
836.55	3956	
836.72	3729.4	
836.89	5238	
837.06	5704.3	
837.23	4063.2	
837.4	4486.4	
837.57	6613.6	
837.75	7311.2	
837.92	3644.7	
838.09	3877.5	
838.26	5234.6	
838.43	5990.3	
838.6	4158.7	
838.77	3724.6	
838.94	6927.6	
839.11	6628.6	
839.29	3933.5	
839.46	3078.8	
839.63	5657.9	
839.8	5418.9	
839.97	3850.2	
840.14	3833.8	
840.31	5508.4	
840.48	5658.5	
840.65	3243.3	
840.82	3771.7	
841	5715.9	
841.17	5672.9	
841.34	3521.8	
841.51	3540.3	
841.68	5604.6	
841.85	5402.5	
842.02	3706.8	
842.19	3037.8	
842.36	5460.6	
842.53	5460.6	
842.7	3564.8	
842.87	4315.1	
843.05	7238.9	
843.22	5383.4	
843.39	3328.6	
843.56	3667.9	
843.73	5127.4	
843.9	5810.8	
844.07	5760.3	
844.24	4754	
844.41	8440.4	
844.58	4937	
844.75	3405.8	
844.92	3685.7	
845.09	5676.3	
845.26	5706.3	
845.43	3465.8	
845.6	3731.4	
845.77	5724.8	
845.94	5447.6	
846.12	3918.4	
846.29	4119.1	
846.46	5935	
846.63	5728.9	
846.8	3539.6	
846.97	4197	
847.14	6220.4	
847.31	5687.2	
847.48	4021.5	
847.65	4412.7	
847.82	6039.5	
847.99	5959.6	
848.16	4794.3	
848.33	4370.4	
848.5	5283.1	
848.67	6154.8	
848.84	3517	
849.01	3678.8	
849.18	5150	
849.35	4791.6	
849.52	4393.6	
849.69	3460.4	
849.86	5900.9	
850.03	6171.9	
850.2	3553.9	
850.37	4347.8	
850.54	6100.9	
850.71	5358.9	
850.88	4232.5	
851.05	3450.8	
851.22	5594.4	
851.39	6260.6	
851.56	3345	
851.73	4044.7	
851.9	5016.8	
852.07	6013.5	
852.24	3938.9	
852.41	3476.8	
852.58	5546.6	
852.75	5070.8	
852.92	4014	
853.09	3398.9	
853.26	5327.4	
853.43	6210.8	
853.6	3493.8	
853.77	3005.1	
853.94	6324.1	
854.11	5584.8	
854.28	5284.4	
854.44	3796.9	
854.61	6739.9	
854.78	5829.9	
854.95	3525.9	
855.12	4418.8	
855.29	4589.5	
855.46	6289.3	
855.63	3497.9	
855.8	4915.8	
855.97	5274.2	
856.14	6094.1	
856.31	4997	
856.48	3847.5	
856.65	5282.4	
856.82	4972.5	
856.99	3371.6	
857.16	3790.1	
857.33	6998.6	
857.49	5349.3	
857.66	3800.3	
857.83	4121.2	
858	5302.2	
858.17	5532.2	
858.34	3283.6	
858.51	3474	
858.68	6464.8	
858.85	6485.2	
859.02	4082.3	
859.19	4365.6	
859.36	4954.7	
859.52	5073.5	
859.69	3482.2	
859.86	4183.3	
860.03	5044.8	
860.2	6322.1	
860.37	3207.8	
860.54	3519.1	
860.71	5948	
860.88	6370.5	
861.05	4008.6	
861.21	4468.7	
861.38	6486.6	
861.55	4929.5	
861.72	3190.7	
861.89	3957.4	
862.06	6016.9	
862.23	6546	
862.4	3443.3	
862.56	3732.1	
862.73	5844.9	
862.9	5427.1	
863.07	4158.7	
863.24	3160	
863.41	4853.7	
863.58	5027.1	
863.75	3590.1	
863.91	4094.6	
864.08	6313.9	
864.25	5852.4	
864.42	4429.8	
864.59	4981.3	
864.76	6722.8	
864.93	5023	
865.09	3409.9	
865.26	3737.5	
865.43	6241.5	
865.6	6617.7	
865.77	3024.2	
865.94	3517.7	
866.1	6270.9	
866.27	6054.5	
866.44	5354.8	
866.61	3319.1	
866.78	5432.6	
866.95	5839.4	
867.11	3398.9	
867.28	3074.7	
867.45	6068.1	
867.62	5035.3	
867.79	4151.9	
867.96	3426.3	
868.12	5026.4	
868.29	6038.1	
868.46	3553.9	
868.63	4686.4	
868.8	6152.1	
868.97	5966.4	
869.13	3684.3	
869.3	3656.3	
869.47	5826.5	
869.64	6056.5	
869.81	3562.8	
869.97	3547.8	
870.14	5711.1	
870.31	6363	
870.48	3433.1	
870.65	4492.6	
870.81	5344.5	
870.98	5301.5	
871.15	3997	
871.32	3619.4	
871.48	5788.9	
871.65	6437.4	
871.82	3497.9	
871.99	3887.7	
872.16	6894.1	
872.32	6258.6	
872.49	3541.6	
872.66	3568.2	
872.83	6014.2	
872.99	5199.1	
873.16	4019.5	
873.33	3497.9	
873.5	5568.4	
873.67	5554.1	
873.83	3740.3	
874	4767.7	
874.17	5713.2	
874.34	6791.1	
874.5	4545.1	
874.67	4392.9	
874.84	6386.9	
875.01	5012.1	
875.17	4990.2	
875.34	3498.6	
875.51	5569.1	
875.68	6776.7	
875.84	4274.1	
876.01	5156.8	
876.18	5917.3	
876.34	5853.1	
876.51	3540.3	
876.68	3489.1	
876.85	5372.5	
877.01	6233.3	
877.18	5097.4	
877.35	3448.8	
877.52	5490.6	
877.68	4948.6	
877.85	3420.8	
878.02	3451.5	
878.18	5476.3	
878.35	5167	
878.52	2776.4	
878.69	3968.3	
878.85	5903.6	
879.02	5870.8	
879.19	5059.2	
879.35	3799	
879.52	5900.2	
879.69	6163.7	
879.86	2992.8	
880.02	3921.2	
880.19	5474.9	
880.36	6679.8	
880.52	4055	
880.69	4176.5	
880.86	6009.4	
881.02	6024.4	
881.19	3872	
881.36	3855.6	
881.52	5842.2	
881.69	5175.2	
881.86	3806.5	
882.02	3663.1	
882.19	6194.4	
882.36	7191.1	
882.52	3587.4	
882.69	4952	
882.86	5681.7	
883.02	5546.6	
883.19	4278.2	
883.36	4005.8	
883.52	6008.7	
883.69	6965.8	
883.86	3538.2	
884.02	3180.5	
884.19	6056.5	
884.36	5530.9	
884.52	4027.7	
884.69	3687.7	
884.86	5197.7	
885.02	6647.7	
885.19	3943	
885.36	4125.3	
885.52	5486.5	
885.69	5721.3	
885.86	5109.7	
886.02	4551.3	
886.19	5939.8	
886.35	5408	
886.52	3938.9	
886.69	5020.3	
886.85	5019.6	
887.02	6352.1	
887.19	6352.1	
887.35	6352.1	
887.52	6352.1	
887.68	6352.1	
887.85	6352.1	
888.02	6352.1	
888.18	6352.1	
888.35	6352.1	
888.51	6352.1	
888.68	6352.1	
888.85	6352.1	
889.01	6352.1	
889.18	6352.1	
889.35	6352.1	
889.51	6352.1	
889.68	6352.1	
889.84	6352.1	
890.01	6352.1	
890.17	6352.1	
890.34	6352.1	
890.51	6352.1	
890.67	6352.1	
890.84	6352.1	
891	6352.1	
891.17	6352.1	
891.34	6352.1	
891.5	6352.1	
891.67	6352.1	
891.83	6352.1	
892	6352.1	
892.16	6352.1	
892.33	6352.1	
892.5	6352.1	
892.66	6352.1	
892.83	6352.1	
892.99	6352.1	
893.16	6352.1	
893.32	6352.1	
893.49	6352.1	
893.65	6352.1	
893.82	6352.1	
893.99	6352.1	
894.15	6352.1	
894.32	6352.1	
894.48	6352.1	
894.65	6352.1	
894.81	6352.1	
894.98	6352.1	
895.14	6352.1	
895.31	6352.1	
895.47	6352.1	
895.64	6352.1	
895.81	6352.1	
895.97	6352.1	
896.14	6352.1	
896.3	6352.1	
896.47	6352.1	
896.63	6352.1	
896.8	6352.1	
896.96	6352.1	
897.13	6352.1	
897.29	6352.1	
897.46	6352.1	
897.62	6352.1	
897.79	6352.1	
897.95	6352.1	
898.12	6352.1	
898.28	6352.1	
898.45	6352.1	
898.61	6352.1	
898.78	6352.1	
898.94	6352.1	
899.11	6352.1	
899.27	6352.1	
899.44	6352.1	
899.6	6352.1	
899.77	6352.1	
899.93	6352.1	
900.1	6352.1	
900.26	6352.1	
900.43	6352.1	
900.59	6352.1	
900.76	6352.1	
900.92	6352.1	
901.09	6352.1	
901.25	6352.1	
901.42	6352.1	
901.58	6352.1	
901.75	6352.1	
901.91	6352.1	
902.07	6352.1	
902.24	6352.1	
902.4	6352.1	
902.57	6352.1	
902.73	6352.1	
902.9	6352.1	
903.06	6352.1	
903.23	6352.1	
903.39	6352.1	
903.56	6352.1	
903.72	6352.1	
903.88	6352.1	
904.05	6352.1	
904.21	6352.1	
904.38	6352.1	
904.54	6352.1	
904.71	6352.1	
904.87	6352.1	
905.03	6352.1	
905.2	6352.1	
905.36	6352.1	
905.53	6352.1	
905.69	6352.1	
905.86	6352.1	
906.02	6352.1	
906.18	6352.1	
906.35	6352.1	
906.51	6352.1	
906.68	6352.1	
906.84	6352.1	
907.01	6352.1	
907.17	6352.1	
907.33	6352.1	
907.5	6352.1	
907.66	6352.1	
907.83	6352.1	
907.99	6352.1	
908.15	6352.1	
908.32	6352.1	
908.48	6352.1	
908.65	6352.1	
908.81	6352.1	
908.97	6352.1	
909.14	6352.1	
909.3	6352.1	
909.47	6352.1	
909.63	6352.1	
909.79	6352.1	
909.96	6352.1	
910.12	6352.1	
910.28	6352.1	
910.45	6352.1	
910.61	6352.1	
910.78	6352.1	
910.94	6352.1	
911.1	6352.1	
911.27	6352.1	
911.43	6352.1	
911.59	6352.1	
911.76	6352.1	
911.92	6352.1	
912.08	6352.1	
912.25	6352.1	
912.41	6352.1	
912.57	6352.1	
912.74	6352.1	
912.9	6352.1	
913.07	6352.1	
913.23	6352.1	
913.39	6352.1	
913.56	6352.1	
913.72	6352.1	
913.88	6352.1	
914.05	6352.1	
914.21	6352.1	
914.37	6352.1	
914.54	6352.1	
914.7	6352.1	
914.86	6352.1	
915.03	6352.1	
915.19	6352.1	
