Wavelength	Intensities	
nm	a.u.	
179.22	1715	
179.44	1724.7	
179.65	1705.3	
179.86	1744.2	
180.08	1721.7	
180.29	3926.6	
180.51	3009.8	
180.72	4982	
180.94	5594.4	
181.15	2745.6	
181.37	2710.1	
181.58	4757.4	
181.79	5033.2	
182.01	2797.5	
182.22	2979.1	
182.44	5066.7	
182.65	4326.7	
182.87	3626.3	
183.08	3223.5	
183.29	5227.8	
183.51	4416.8	
183.72	2948.4	
183.94	4138.9	
184.15	4702.8	
184.37	4627.7	
184.58	2682.8	
184.79	3458.3	
185.01	4461.2	
185.22	5008.6	
185.44	3661.1	
185.65	3151.8	
185.86	4706.2	
186.08	4380.6	
186.29	2615.9	
186.51	2801.6	
186.72	4466.6	
186.94	5126.7	
187.15	3207.1	
187.36	3278.1	
187.58	6337.1	
187.79	4805.2	
188.01	3319.1	
188.22	5070.8	
188.43	5565.7	
188.65	4963.6	
188.86	2789.3	
189.08	3283.6	
189.29	4548.5	
189.5	4560.1	
189.72	3001.6	
189.93	3099.3	
190.15	5076.2	
190.36	5976.7	
190.57	3330	
190.79	3245.3	
191	5161.6	
191.22	5193	
191.43	3364.1	
191.64	2831.7	
191.86	5345.9	
192.07	5179.3	
192.29	2910.2	
192.5	2998.2	
192.71	5127.4	
192.93	4570.4	
193.14	3028.3	
193.35	3082.2	
193.57	4558.8	
193.78	5151.3	
194	2491.7	
194.21	2984.6	
194.42	4401.8	
194.64	4696.7	
194.85	3257	
195.07	3713	
195.28	4717.8	
195.49	4201.1	
195.71	3895.9	
195.92	2850.8	
196.13	4915.8	
196.35	4930.8	
196.56	4156.7	
196.78	3320.4	
196.99	5930.2	
197.2	5570.5	
197.42	3604.4	
197.63	3288.4	
197.84	4330.1	
198.06	4861.2	
198.27	3029.6	
198.48	3885	
198.7	4592.2	
198.91	4711	
199.13	3295.2	
199.34	3276.7	
199.55	5116.5	
199.77	4136.9	
199.98	2979.8	
200.19	3308.2	
200.41	4696	
200.62	4452.3	
200.83	3404.4	
201.05	3656.3	
201.26	4713.7	
201.47	4536.9	
201.69	2964.8	
201.9	2885.6	
202.11	4775.2	
202.33	5435.3	
202.54	3061	
202.76	3457.7	
202.97	4743.1	
203.18	4855.7	
203.4	3416	
203.61	3420.8	
203.82	4816.8	
204.04	4521.9	
204.25	3273.3	
204.46	3239.9	
204.68	4720.6	
204.89	4909	
205.1	3186	
205.32	2813.9	
205.53	5024.3	
205.74	5109.7	
205.96	2482.8	
206.17	3323.9	
206.38	4932.2	
206.6	5104.2	
206.81	3701.4	
207.02	3112.9	
207.24	4908.3	
207.45	5200.5	
207.66	3150.5	
207.88	2757.2	
208.09	4874.2	
208.3	4697.4	
208.52	2949.8	
208.73	3168.9	
208.94	4725.3	
209.15	5187.5	
209.37	3153.2	
209.58	3287.7	
209.79	5087.8	
210.01	4545.8	
210.22	2618.7	
210.43	2721.8	
210.65	4697.4	
210.86	5056.4	
211.07	3130.7	
211.29	2917.7	
211.5	4935.6	
211.71	4706.9	
211.93	2949.8	
212.14	2911.5	
212.35	4687.1	
212.56	4773.1	
212.78	3315	
212.99	2772.3	
213.2	5401.2	
213.42	4626.4	
213.63	2989.4	
213.84	3131.3	
214.06	4317.1	
214.27	4342.4	
214.48	3127.9	
214.69	3319.1	
214.91	5221	
215.12	5283.1	
215.33	3340.9	
215.55	3606.5	
215.76	5683.1	
215.97	4965.6	
216.18	3216	
216.4	3186.6	
216.61	4465.3	
216.82	5072.1	
217.04	2919.7	
217.25	3041.9	
217.46	5184.1	
217.67	5042.8	
217.89	2667.1	
218.1	2748.4	
218.31	4814.8	
218.53	4816.1	
218.74	3058.3	
218.95	2917.7	
219.16	4760.2	
219.38	5386.2	
219.59	2974.3	
219.8	3501.3	
220.01	5769.8	
220.23	4743.8	
220.44	3707.5	
220.65	2919.7	
220.87	4763.6	
221.08	5183.4	
221.29	2835.8	
221.5	3495.2	
221.72	6108.4	
221.93	4456.4	
222.14	3275.4	
222.35	3777.1	
222.57	4730.1	
222.78	5001.8	
222.99	3189.4	
223.2	3343	
223.42	4896.7	
223.63	5047.6	
223.84	2470.5	
224.05	2477.4	
224.27	5728.2	
224.48	5340.4	
224.69	3788.7	
224.9	3272	
225.12	4872.1	
225.33	4696.7	
225.54	2702	
225.75	2944.3	
225.97	4427.7	
226.18	4653	
226.39	3147	
226.6	2983.2	
226.82	4578.6	
227.03	4411.3	
227.24	3257.6	
227.45	2835.1	
227.67	5033.2	
227.88	5361.6	
228.09	3653.6	
228.3	3622.2	
228.52	4989.5	
228.73	4663.9	
228.94	3040.6	
229.15	2768.2	
229.36	4685.1	
229.58	4644.8	
229.79	3099.9	
230	3524.6	
230.21	5498.1	
230.43	4784.1	
230.64	3243.3	
230.85	3362.8	
231.06	5048.9	
231.28	5070.1	
231.49	2817.3	
231.7	3257	
231.91	4989.5	
232.12	4735.6	
232.34	2889.7	
232.55	3160	
232.76	5160.9	
232.97	4856.4	
233.18	2923.8	
233.4	3252.2	
233.61	4831.2	
233.82	4572.4	
234.03	3084.9	
234.25	3029.6	
234.46	6176.7	
234.67	4741	
234.88	3278.1	
235.09	3016	
235.31	4905.6	
235.52	4624.3	
235.73	3220.8	
235.94	2812.5	
236.15	4551.3	
236.37	5563	
236.58	2908.8	
236.79	3114.3	
237	4970.4	
237.21	4326.7	
237.43	3349.8	
237.64	2712.9	
237.85	7740	
238.06	4433.2	
238.27	3362.8	
238.48	2836.4	
238.7	4989.5	
238.91	4650.3	
239.12	3138.9	
239.33	3241.9	
239.54	4465.3	
239.76	4638	
239.97	3158	
240.18	3166.2	
240.39	5634.6	
240.6	4834.6	
240.82	3323.2	
241.03	2712.2	
241.24	4668	
241.45	5352	
241.66	2905.4	
241.87	3359.4	
242.09	5272.8	
242.3	5530.2	
242.51	3361.4	
242.72	3138.2	
242.93	5002.5	
243.14	4712.4	
243.36	3560.1	
243.57	3827.7	
243.78	5341.1	
243.99	4937	
244.2	3151.8	
244.41	2847.4	
244.63	4358.1	
244.84	4945.8	
245.05	3360.7	
245.26	3216	
245.47	4962.2	
245.68	5035.3	
245.9	4021.5	
246.11	3302.7	
246.32	4556.7	
246.53	4914.4	
246.74	4914.4	
246.95	2697.2	
247.16	4414.1	
247.38	4731.5	
247.59	2749.1	
247.8	3173	
248.01	4415.4	
248.22	4665.3	
248.43	2903.3	
248.64	3082.2	
248.86	4318.5	
249.07	4552	
249.28	2926.5	
249.49	3219.4	
249.7	5145.9	
249.91	5157.5	
250.12	2686.9	
250.34	2741.5	
250.55	4818.9	
250.76	4681	
250.97	3248.1	
251.18	3231.7	
251.39	5259.9	
251.6	4799.8	
251.81	3335.5	
252.03	3321.8	
252.24	4515.1	
252.45	5081	
252.66	2791.4	
252.87	3450.1	
253.08	4691.2	
253.29	5883.8	
253.5	2826.2	
253.72	3776.5	
253.93	4619.5	
254.14	5468.8	
254.35	3033	
254.56	3085.6	
254.77	4943.1	
254.98	4430.4	
255.19	3039.2	
255.41	3712.3	
255.62	4830.5	
255.83	5128.8	
256.04	3351.2	
256.25	3247.4	
256.46	5636.7	
256.67	4441.4	
256.88	3245.3	
257.09	3573.7	
257.31	4386.1	
257.52	4484.4	
257.73	3984	
257.94	2993.4	
258.15	4638	
258.36	4718.5	
258.57	3696.6	
258.78	2486.2	
258.99	5128.1	
259.2	4553.3	
259.41	2990	
259.63	3054.2	
259.84	5323.4	
260.05	5584.1	
260.26	3818.8	
260.47	2960	
260.68	5117.9	
260.89	4609.3	
261.1	3555.3	
261.31	2858.3	
261.52	5203.9	
261.73	5411.4	
261.95	3817.4	
262.16	3362.8	
262.37	5177.9	
262.58	5287.9	
262.79	3838.6	
263	3078.1	
263.21	4777.9	
263.42	4320.5	
263.63	3325.9	
263.84	3006.4	
264.05	5162.2	
264.26	5335.6	
264.47	3639.2	
264.69	3252.9	
264.9	5316.5	
265.11	4877.6	
265.32	2916.3	
265.53	3032.4	
265.74	4806.6	
265.95	4201.7	
266.16	3158	
266.37	3469.3	
266.58	4826.4	
266.79	4535.6	
267	2981.2	
267.21	2820.1	
267.42	4382	
267.63	4706.9	
267.84	3144.3	
268.06	2751.1	
268.27	5077.6	
268.48	5173.2	
268.69	3151.1	
268.9	3581.9	
269.11	5213.4	
269.32	4285.7	
269.53	3179.8	
269.74	2979.8	
269.95	4926.7	
270.16	4268	
270.37	3180.5	
270.58	3607.8	
270.79	4622.9	
271	5060.5	
271.21	3285.6	
271.42	3194.1	
271.63	4876.2	
271.84	4401.1	
272.05	2633.7	
272.26	2869.2	
272.47	4744.5	
272.68	4884.4	
272.89	3071.3	
273.11	3414	
273.32	4551.3	
273.53	5343.2	
273.74	3372.3	
273.95	3243.3	
274.16	5077.6	
274.37	4748.6	
274.58	3465.2	
274.79	2820.7	
275	4881.7	
275.21	5161.6	
275.42	4080.9	
275.63	3517.7	
275.84	4890.5	
276.05	5971.9	
276.26	3319.1	
276.47	3156.6	
276.68	4674.1	
276.89	5444.9	
277.1	3526.6	
277.31	2793.4	
277.52	4878.3	
277.73	5120.6	
277.94	2758.6	
278.15	3043.3	
278.36	4922	
278.57	4474.8	
278.78	3046	
278.99	3409.9	
279.2	4480.3	
279.41	4417.5	
279.62	3898	
279.83	2848	
280.04	5564.3	
280.25	4412.7	
280.46	3895.2	
280.67	3217.4	
280.88	4453	
281.09	5205.3	
281.3	3312.2	
281.51	4056.3	
281.72	4549.2	
281.93	5044.1	
282.14	3003.7	
282.35	3239.9	
282.56	5085.1	
282.77	5056.4	
282.98	3134.1	
283.19	3674.1	
283.4	6047.7	
283.61	4616.1	
283.82	2866.5	
284.03	3753.9	
284.24	4868	
284.45	5138.4	
284.66	3868.6	
284.87	3651.5	
285.08	5142.4	
285.29	5244.2	
285.5	2792.1	
285.71	3088.3	
285.92	5141.1	
286.12	5653.8	
286.33	3803.1	
286.54	3147.7	
286.75	5078.3	
286.96	4624.3	
287.17	2919	
287.38	3691.8	
287.59	4519.2	
287.8	4513	
288.01	3071.3	
288.22	3461.1	
288.43	4996.4	
288.64	4276.2	
288.85	3615.3	
289.06	3446	
289.27	5075.5	
289.48	5389.6	
289.69	3853.6	
289.9	3512.9	
290.11	5221	
290.32	4559.5	
290.53	3650.8	
290.74	3408.5	
290.94	5074.2	
291.15	5026.4	
291.36	2979.8	
291.57	3467.9	
291.78	4575.2	
291.99	4268.6	
292.2	2908.8	
292.41	3392.8	
292.62	5121.3	
292.83	4952	
293.04	4095.9	
293.25	2910.2	
293.46	4579.3	
293.67	5111.7	
293.88	2952.5	
294.09	2958.6	
294.29	4453	
294.5	4838	
294.71	3181.2	
294.92	3061.7	
295.13	4609.3	
295.34	5600.5	
295.55	2740.9	
295.76	2697.2	
295.97	5007.3	
296.18	5512.4	
296.39	2850.8	
296.6	3033	
296.81	4791.6	
297.01	5042.1	
297.22	3103.4	
297.43	3043.3	
297.64	4537.6	
297.85	4399.7	
298.06	2508.1	
298.27	2753.8	
298.48	4715.1	
298.69	4515.8	
298.9	3238.5	
299.11	2932.7	
299.31	4429.8	
299.52	4410.6	
299.73	3490.4	
299.94	3365.5	
300.15	4757.4	
300.36	4513.7	
300.57	3297.2	
300.78	3293.1	
300.99	4545.1	
301.2	4801.1	
301.4	3044.6	
301.61	3155.2	
301.82	4997.7	
302.03	5008.6	
302.24	3545.7	
302.45	2853.5	
302.66	4932.9	
302.87	5201.2	
303.08	3090.4	
303.29	3904.1	
303.49	4566.3	
303.7	4661.9	
303.91	2764.8	
304.12	3799	
304.33	4341	
304.54	4910.3	
304.75	2985.9	
304.96	2925.2	
305.16	4990.9	
305.37	5433.3	
305.58	2623.4	
305.79	2722.4	
306	4999.8	
306.21	4280.3	
306.42	3006.4	
306.63	4357.4	
306.83	4617.5	
307.04	5120.6	
307.25	3293.1	
307.46	3245.3	
307.67	4130.8	
307.88	4960.2	
308.09	3000.3	
308.29	3026.9	
308.5	4784.7	
308.71	5144.5	
308.92	3183.2	
309.13	2906.8	
309.34	4700.8	
309.55	4667.3	
309.75	3628.3	
309.96	3374.4	
310.17	4982.7	
310.38	4481.6	
310.59	3457	
310.8	2832.3	
311.01	4608.6	
311.21	4673.5	
311.42	2921.1	
311.63	2887	
311.84	4547.9	
312.05	4793.6	
312.26	3283.6	
312.46	3531.4	
312.67	4591.5	
312.88	4391.5	
313.09	2899.2	
313.3	2852.8	
313.51	5321.3	
313.71	5575.9	
313.92	2930.6	
314.13	3038.5	
314.34	4916.5	
314.55	4705.5	
314.76	3611.9	
314.96	3193.5	
315.17	4859.8	
315.38	5053	
315.59	2929.3	
315.8	2790.7	
316.01	5317.9	
316.21	5343.8	
316.42	2842.6	
316.63	3180.5	
316.84	4588.1	
317.05	5179.3	
317.26	3371.6	
317.46	3074.7	
317.67	4697.4	
317.88	4959.5	
318.09	3573	
318.3	2783.2	
318.5	4579.9	
318.71	4922	
318.92	4524	
319.13	3403	
319.34	5081	
319.54	5217.5	
319.75	2717	
319.96	2631.6	
320.17	5011.4	
320.38	5155.4	
320.58	2684.9	
320.79	3127.2	
321	5165.7	
321.21	5317.2	
321.42	3190.7	
321.62	2668.5	
321.83	4479.6	
322.04	4799.1	
322.25	3098.6	
322.46	2932	
322.66	4790.2	
322.87	4952	
323.08	3500	
323.29	2881.5	
323.5	5494.7	
323.7	4435.2	
323.91	3767.6	
324.12	3519.8	
324.33	4819.6	
324.53	4960.2	
324.74	3366.9	
324.95	3517.7	
325.16	4283	
325.37	4585.4	
325.57	2917.7	
325.78	2960.7	
325.99	4849.6	
326.2	4360.8	
326.4	4031.1	
326.61	2727.9	
326.82	4687.1	
327.03	4821.6	
327.24	3960.8	
327.44	3782.6	
327.65	4980.7	
327.86	4119.8	
328.07	3364.8	
328.27	2824.1	
328.48	5252.4	
328.69	4379.9	
328.9	3967.6	
329.1	3128.6	
329.31	4621.6	
329.52	5259.2	
329.73	2951.8	
329.93	3205.1	
330.14	4787.5	
330.35	4887.1	
330.56	4541.7	
330.76	3516.4	
330.97	4649.6	
331.18	4833.2	
331.39	3145.7	
331.59	2659.6	
331.8	5170.4	
332.01	5279	
332.22	2980.5	
332.42	3323.9	
332.63	4810	
332.84	4430.4	
333.05	3231.7	
333.25	2980.5	
333.46	4542.4	
333.67	4721.3	
333.88	3078.8	
334.08	3303.4	
334.29	5968.5	
334.5	5166.3	
334.7	2835.8	
334.91	3940.3	
335.12	4362.2	
335.33	4943.1	
335.53	3252.2	
335.74	4511	
335.95	4647.5	
336.16	4362.2	
336.36	3188.7	
336.57	3671.3	
336.78	4363.5	
336.98	5169.1	
337.19	3890.5	
337.4	3118.4	
337.61	5588.9	
337.81	4335.5	
338.02	2999.6	
338.23	3709.6	
338.43	5339.1	
338.64	4494.6	
338.85	2973	
339.05	3764.2	
339.26	5352.7	
339.47	4316.4	
339.68	2927.2	
339.88	4086.4	
340.09	4992.3	
340.3	5070.8	
340.5	3397.6	
340.71	2649.4	
340.92	4406.5	
341.13	5227.1	
341.33	2822.1	
341.54	3388	
341.75	4924	
341.95	4609.3	
342.16	3223.5	
342.37	3476.1	
342.57	4440	
342.78	4696	
342.99	3517	
343.19	2676.7	
343.4	5079.6	
343.61	4952	
343.81	3080.1	
344.02	2868.5	
344.23	5038.7	
344.43	5233.2	
344.64	3535.5	
344.85	3439.2	
345.06	4949.3	
345.26	5171.8	
345.47	3389.4	
345.68	3794.9	
345.88	4260.5	
346.09	5085.1	
346.3	3376.4	
346.5	2603	
346.71	4689.8	
346.92	4513.7	
347.12	2763.4	
347.33	3298.6	
347.54	5111.7	
347.74	5378.6	
347.95	3278.8	
348.16	2547.7	
348.36	4575.8	
348.57	4455.7	
348.78	3345	
348.98	3465.8	
349.19	4684.4	
349.39	4272.7	
349.6	2762	
349.81	3004.4	
350.01	4927.4	
350.22	4432.5	
350.43	3241.9	
350.63	3788.7	
350.84	4769	
351.05	4497.3	
351.25	2945	
351.46	2704.7	
351.67	5087.8	
351.87	4422.9	
352.08	3129.3	
352.29	3478.1	
352.49	5063.9	
352.7	5119.9	
352.9	2829.6	
353.11	3456.3	
353.32	5476.3	
353.52	4530.8	
353.73	2866.5	
353.94	3533.4	
354.14	4975.2	
354.35	4747.2	
354.55	2921.1	
354.76	3200.3	
354.97	4936.3	
355.17	4716.5	
355.38	2806.4	
355.59	3651.5	
355.79	4434.5	
356	4695.3	
356.2	3109.5	
356.41	2834.4	
356.62	4255	
356.82	4662.5	
357.03	3379.8	
357.24	3022.8	
357.44	4396.3	
357.65	4549.9	
357.85	3949.2	
358.06	3205.8	
358.27	4246.8	
358.47	4410	
358.68	2776.4	
358.88	3377.1	
359.09	4815.5	
359.3	5109.7	
359.5	3822.9	
359.71	3430.3	
359.91	5451.7	
360.12	4944.5	
360.33	3425.6	
360.53	3741	
360.74	4480.3	
360.94	4484.4	
361.15	3522.5	
361.36	2959.3	
361.56	5062.6	
361.77	4679.6	
361.97	3857	
362.18	3078.1	
362.38	5102.2	
362.59	4337.6	
362.8	2929.3	
363	2762.7	
363.21	4208.6	
363.41	4659.8	
363.62	3289.7	
363.83	3931.4	
364.03	4851	
364.24	5406.6	
364.44	4080.2	
364.65	3968.3	
364.85	4603.8	
365.06	4376.5	
365.27	3033	
365.47	3067.9	
365.68	5370.5	
365.88	4600.4	
366.09	3388	
366.29	3065.1	
366.5	4736.3	
366.71	5057.8	
366.91	4042	
367.12	3411.9	
367.32	5520.6	
367.53	4942.4	
367.73	3476.1	
367.94	4162.8	
368.14	4969.7	
368.35	5530.9	
368.56	3351.8	
368.76	2953.9	
368.97	5064.6	
369.17	6180.1	
369.38	3035.8	
369.58	3202.3	
369.79	4330.1	
369.99	5353.4	
370.2	4005.1	
370.4	3327.3	
370.61	4817.5	
370.82	5712.5	
371.02	3278.8	
371.23	2779.1	
371.43	4304.8	
371.64	5294	
371.84	3309.5	
372.05	4093.2	
372.25	6064.7	
372.46	5001.1	
372.66	3271.3	
372.87	3229.6	
373.07	5052.3	
373.28	6244.3	
373.48	3994.9	
373.69	3721.2	
373.9	4723.3	
374.1	4672.1	
374.31	3896.6	
374.51	3539.6	
374.72	5240.1	
374.92	4515.1	
375.13	4003.8	
375.33	3448.1	
375.54	4949.9	
375.74	4590.9	
375.95	3534.1	
376.15	4421.6	
376.36	5029.8	
376.56	4876.2	
376.77	3520.5	
376.97	3856.3	
377.18	5737	
377.38	5075.5	
377.59	4101.4	
377.79	3210.5	
378	4904.2	
378.2	5124.7	
378.41	3226.9	
378.61	3088.3	
378.82	5261.9	
379.02	4620.9	
379.23	3401.7	
379.43	4057.7	
379.64	5388.9	
379.84	5010	
380.05	3254.9	
380.25	3252.2	
380.46	5059.2	
380.66	4775.9	
380.87	4151.2	
381.07	4489.8	
381.28	5520	
381.48	5097.4	
381.69	3262.4	
381.89	3290.4	
382.1	4339.6	
382.3	5162.2	
382.51	4098	
382.71	4668	
382.91	5076.9	
383.12	5433.3	
383.32	3533.4	
383.53	3691.1	
383.73	4956.1	
383.94	4905.6	
384.14	3702	
384.35	3000.3	
384.55	4769.7	
384.76	5074.2	
384.96	3522.5	
385.17	3716.4	
385.37	5091.3	
385.58	4572.4	
385.78	3740.3	
385.98	2990	
386.19	4754	
386.39	5048.9	
386.6	3341.6	
386.8	3516.4	
387.01	5071.5	
387.21	5164.3	
387.42	3771.7	
387.62	4235.9	
387.83	4689.8	
388.03	4956.1	
388.23	3618.8	
388.44	4076.1	
388.64	4418.8	
388.85	4467.3	
389.05	3790.1	
389.26	4240	
389.46	5913.2	
389.67	5525.4	
389.87	3844	
390.07	3822.9	
390.28	4823.6	
390.48	4522.6	
390.69	3241.3	
390.89	3535.5	
391.1	4676.2	
391.3	5339.7	
391.5	4379.9	
391.71	4786.8	
391.91	5233.9	
392.12	5826.5	
392.32	4363.5	
392.53	3796.3	
392.73	4799.8	
392.93	4851.6	
393.14	3615.3	
393.34	4157.4	
393.55	5177.9	
393.75	4778.6	
393.95	3608.5	
394.16	3558	
394.36	4751.3	
394.57	5195.7	
394.77	3242.6	
394.98	3495.9	
395.18	4659.8	
395.38	4812.7	
395.59	4173.1	
395.79	3364.8	
396	4788.8	
396.2	5202.5	
396.4	4138.9	
396.61	3961.5	
396.81	5208	
397.02	4719.2	
397.22	4164.2	
397.42	4291.9	
397.63	5337.7	
397.83	4709	
398.04	3442	
398.24	3775.8	
398.44	5072.8	
398.65	4405.2	
398.85	3309.5	
399.05	3334.1	
399.26	4747.2	
399.46	5971.9	
399.67	3642.7	
399.87	3498.6	
400.07	5016.2	
400.28	5191.6	
400.48	3528	
400.69	4293.2	
400.89	5364.3	
401.09	5740.5	
401.3	3451.5	
401.5	4255	
401.7	5905	
401.91	6100.9	
402.11	3724.6	
402.32	3861.8	
402.52	5508.4	
402.72	5378	
402.93	4042.7	
403.13	3204.4	
403.33	5962.3	
403.54	4987.5	
403.74	3766.2	
403.94	4442	
404.15	5057.1	
404.35	5920	
404.56	3656.3	
404.76	4964.3	
404.96	5388.9	
405.17	5214.1	
405.37	4496	
405.57	4024.9	
405.78	5405.3	
405.98	5042.1	
406.18	3658.4	
406.39	4293.9	
406.59	5464.7	
406.79	5016.2	
407	3505.4	
407.2	3537.5	
407.4	5664	
407.61	5563.6	
407.81	3598.3	
408.01	5268.1	
408.22	4693.3	
408.42	6111.8	
408.62	4362.9	
408.83	4051.6	
409.03	5231.2	
409.23	5093.3	
409.44	4076.1	
409.64	4280.9	
409.84	5928.2	
410.05	5809.4	
410.25	4289.1	
410.45	4070.7	
410.66	5502.2	
410.86	7274.4	
411.06	4428.4	
411.27	4282.3	
411.47	7097.6	
411.67	5521.3	
411.88	4536.9	
412.08	4657.1	
412.28	6026.5	
412.49	6488.6	
412.69	4339	
412.89	4319.2	
413.09	6341.9	
413.3	6220.4	
413.5	4490.5	
413.7	4103.4	
413.91	5666.7	
414.11	6270.2	
414.31	4287.1	
414.52	4702.1	
414.72	6113.9	
414.92	6007.4	
415.12	4360.8	
415.33	4712.4	
415.53	6263.4	
415.73	6496.2	
415.94	4993.6	
416.14	4484.4	
416.34	5701.5	
416.55	5388.9	
416.75	5425.8	
416.95	4992.9	
417.15	6405.4	
417.36	6850.5	
417.56	5554.8	
417.76	4894	
417.97	6582.2	
418.17	6401.3	
418.37	4638	
418.57	4622.9	
418.78	6270.2	
418.98	5982.1	
419.18	5279.7	
419.38	5222.3	
419.59	6022.4	
419.79	5765	
419.99	4465.9	
420.2	4826.4	
420.4	6403.3	
420.6	6475.7	
420.8	4464.6	
421.01	4427	
421.21	6320	
421.41	6313.9	
421.61	4752.7	
421.82	4580.6	
422.02	6001.9	
422.22	6589	
422.42	5214.8	
422.63	4921.3	
422.83	5988.3	
423.03	6903.7	
423.23	4937	
423.44	4176.5	
423.64	5982.1	
423.84	5840.1	
424.04	4569.7	
424.25	4263.9	
424.45	6670.9	
424.65	6667.5	
424.85	4169.7	
425.06	4590.9	
425.26	6795.8	
425.46	5921.4	
425.66	4904.2	
425.87	4678.9	
426.07	6524.1	
426.27	6312.5	
426.47	4762.9	
426.67	4314.4	
426.88	6769.9	
427.08	6354.2	
427.28	5014.1	
427.48	4212	
427.69	5668.1	
427.89	6085.9	
428.09	4954.7	
428.29	4313	
428.5	6464.1	
428.7	6227.9	
428.9	4273.4	
429.1	4592.9	
429.3	6221	
429.51	6402	
429.71	4504.2	
429.91	5061.9	
430.11	6485.2	
430.31	6804.7	
430.52	4701.5	
430.72	4879.6	
430.92	6793.8	
431.12	6407.4	
431.32	4409.3	
431.53	4795.7	
431.73	5615.5	
431.93	6861.4	
432.13	4401.1	
432.33	4362.2	
432.54	6015.6	
432.74	6182.8	
432.94	4255.7	
433.14	5109	
433.34	6465.4	
433.55	6180.8	
433.75	5044.8	
433.95	6266.1	
434.15	6404	
434.35	6043.6	
434.56	4485.1	
434.76	4179.2	
434.96	6298.2	
435.16	6488.6	
435.36	4418.2	
435.56	5261.9	
435.77	6070.2	
435.97	6206.7	
436.17	5743.9	
436.37	5188.2	
436.57	6077	
436.78	5997.8	
436.98	5096.7	
437.18	5673.6	
437.38	6510.5	
437.58	6152.8	
437.78	5745.9	
437.99	4754.7	
438.19	6529.6	
438.39	7139.2	
438.59	4736.3	
438.79	4292.5	
438.99	7025.9	
439.2	6127.5	
439.4	4370.4	
439.6	4332.8	
439.8	6295.5	
440	7132.4	
440.2	5177.3	
440.4	5312.4	
440.61	6722.8	
440.81	7096.9	
441.01	4630.5	
441.21	5232.6	
441.41	7009.5	
441.61	6765.8	
441.81	5552	
442.02	6283.9	
442.22	7515.4	
442.42	6878.4	
442.62	4711.7	
442.82	4801.1	
443.02	7152.9	
443.22	6513.9	
443.43	5155.4	
443.63	4726	
443.83	6361.7	
444.03	6283.9	
444.23	5653.8	
444.43	5395	
444.63	6709.8	
444.83	7473.7	
445.04	4888.5	
445.24	5731.6	
445.44	6893.5	
445.64	6950.8	
445.84	5441.5	
446.04	5394.3	
446.24	6379.4	
446.44	7195.2	
446.65	4799.8	
446.85	5100.1	
447.05	6593.8	
447.25	7094.8	
447.45	5209.3	
447.65	4731.5	
447.85	6681.2	
448.05	6304.3	
448.25	5522.7	
448.46	5292.6	
448.66	6682.5	
448.86	6365.1	
449.06	4786.8	
449.26	5474.2	
449.46	6862.7	
449.66	6197.2	
449.86	5167	
450.06	5066	
450.26	6386.9	
450.47	6811.5	
450.67	5290.6	
450.87	5574.6	
451.07	6978.1	
451.27	6701	
451.47	4833.2	
451.67	5264.6	
451.87	6475.7	
452.07	7387	
452.27	5002.5	
452.47	4990.9	
452.67	6789.7	
452.88	7038.9	
453.08	4571.1	
453.28	5900.9	
453.48	7707.2	
453.68	6634.1	
453.88	4980.7	
454.08	5082.4	
454.28	7025.9	
454.48	6694.1	
454.68	5531.6	
454.88	5885.2	
455.08	7157.7	
455.28	6860	
455.48	4893.3	
455.68	5453.7	
455.89	7542	
456.09	7179.5	
456.29	5187.5	
456.49	5298.1	
456.69	7444.4	
456.89	6792.4	
457.09	5661.3	
457.29	5946.6	
457.49	7106.5	
457.69	7211.6	
457.89	5500.2	
458.09	5088.5	
458.29	6936.5	
458.49	7590.5	
458.69	5891.3	
458.89	5416.9	
459.09	7770.7	
459.29	7788.4	
459.49	5570.5	
459.69	6115.9	
459.9	7323.5	
460.1	7108.5	
460.3	5425.8	
460.5	5292	
460.7	7376.8	
460.9	7094.2	
461.1	5154.7	
461.3	6025.1	
461.5	7921.5	
461.7	7641	
461.9	5478.3	
462.1	5789.6	
462.3	7268.9	
462.5	7660.1	
462.7	5526.1	
462.9	5599.8	
463.1	8415.8	
463.3	8230.8	
463.5	5825.1	
463.7	6498.9	
463.9	7466.9	
464.1	7747.5	
464.3	5948.7	
464.5	6054.5	
464.7	7933.1	
464.9	7768.6	
465.1	7036.1	
465.3	6406.7	
465.5	8228.7	
465.7	8227.4	
465.9	6655.9	
466.1	6369.9	
466.3	8142	
466.5	8037.6	
466.7	7128.3	
466.9	6354.8	
467.1	8085.4	
467.3	8634.2	
467.5	7160.4	
467.7	6325.5	
467.9	8926.4	
468.1	9519.6	
468.3	6852.5	
468.5	7222.5	
468.7	8073.8	
468.9	8021.2	
469.1	6667.5	
469.3	7098.9	
469.5	9569.5	
469.7	7735.2	
469.9	6900.3	
470.1	6430.6	
470.3	8260.8	
470.5	8109.3	
470.7	7376.1	
470.9	6520.7	
471.1	8011	
471.3	8234.9	
471.5	6368.5	
471.69	7718.8	
471.89	7877.9	
472.09	7546.8	
472.29	6902.3	
472.49	7176.1	
472.69	7680.6	
472.89	8251.3	
473.09	6363	
473.29	6421.1	
473.49	7830.7	
473.69	7780.2	
473.89	7014.3	
474.09	6440.2	
474.29	8870.4	
474.49	8572.1	
474.69	6991.8	
474.89	6552.8	
475.09	7961.1	
475.29	7814.4	
475.49	6158.2	
475.69	6371.9	
475.88	8961.2	
476.08	8235.6	
476.28	6158.9	
476.48	6395.8	
476.68	8519.5	
476.88	8346.8	
477.08	6347.3	
477.28	6563.7	
477.48	7936.6	
477.68	8378.9	
477.88	6178	
478.08	6376.7	
478.28	8640.4	
478.48	8092.9	
478.67	6406.7	
478.87	6006	
479.07	8625.4	
479.27	8107.2	
479.47	6649.8	
479.67	6657.9	
479.87	8397.4	
480.07	8767.4	
480.27	6169.8	
480.47	7225.9	
480.67	8096.3	
480.87	8662.2	
481.06	6343.2	
481.26	6950.8	
481.46	8056	
481.66	8022.6	
481.86	6653.2	
482.06	7324.9	
482.26	7935.2	
482.46	8484.7	
482.66	6565.8	
482.86	6311.2	
483.05	8333.2	
483.25	7721.5	
483.45	8461.5	
483.65	6627.9	
483.85	7887.4	
484.05	8172.8	
484.25	6941.9	
484.45	7348.8	
484.65	8721.6	
484.84	8845.9	
485.04	6543.3	
485.24	6548.7	
485.44	9057.5	
485.64	7767.3	
485.84	6180.8	
486.04	7144	
486.24	8008.9	
486.44	8436.9	
486.63	6182.1	
486.83	6868.2	
487.03	8147.5	
487.23	8264.2	
487.43	6251.1	
487.63	7921.5	
487.83	8284.7	
488.02	8910.7	
488.22	6909.8	
488.42	7458.7	
488.62	8919.6	
488.82	8159.1	
489.02	6757.6	
489.22	6817	
489.41	8829.5	
489.61	8576.9	
489.81	6587.6	
490.01	6576.7	
490.21	8870.4	
490.41	9365.4	
490.61	6661.4	
490.8	6683.9	
491	8438.3	
491.2	8026	
491.4	7112.6	
491.6	6458.6	
491.8	8432.2	
491.99	8453.3	
492.19	6353.5	
492.39	6589.7	
492.59	8789.2	
492.79	8785.8	
492.99	7292.8	
493.18	6599.9	
493.38	8957.1	
493.58	9510.8	
493.78	7136.5	
493.98	6843.6	
494.18	8741.4	
494.37	8375.5	
494.57	7449.1	
494.77	7241.6	
494.97	9128.5	
495.17	9295.7	
495.37	7027.9	
495.56	7365.9	
495.76	9415.9	
495.96	9209.7	
496.16	8086.7	
496.36	7284.6	
496.55	9338.1	
496.75	8998.8	
496.95	7610.3	
497.15	7423.2	
497.35	9438.4	
497.54	9316.9	
497.74	7376.8	
497.94	8562.6	
498.14	9933.3	
498.34	9587.9	
498.53	7271.7	
498.73	7705.8	
498.93	8913.4	
499.13	9388.6	
499.33	7699	
499.52	8073.8	
499.72	9514.9	
499.92	9577.7	
500.12	7516.7	
500.32	7684.7	
500.51	9529.9	
500.71	9460.3	
500.91	8261.5	
501.11	7974.1	
501.31	9578.3	
501.5	9941.5	
501.7	8538	
501.9	7682.6	
502.1	9513.5	
502.29	9744.2	
502.49	8146.1	
502.69	8322.3	
502.89	9613.2	
503.09	9636.4	
503.28	7277.8	
503.48	7405.5	
503.68	9022	
503.88	8975.6	
504.07	8201.4	
504.27	7693.5	
504.47	9396.8	
504.67	9371.5	
504.86	8047.8	
505.06	7860.8	
505.26	9084.8	
505.46	10191	
505.65	7718.1	
505.85	7835.5	
506.05	9018.6	
506.25	9341.5	
506.44	7174.7	
506.64	7849.2	
506.84	8946.9	
507.04	9525.1	
507.23	7365.2	
507.43	7680.6	
507.63	10309	
507.83	9062.9	
508.02	7699	
508.22	7449.8	
508.42	10544	
508.62	8891.6	
508.81	7506.5	
509.01	8039	
509.21	8755.1	
509.4	8996.7	
509.6	7777.5	
509.8	7382.2	
510	9063.6	
510.19	10079	
510.39	7344	
510.59	7462.1	
510.79	8883.4	
510.98	9904.7	
511.18	7527.7	
511.38	7551.5	
511.57	9607	
511.77	9291	
511.97	7994.6	
512.17	7311.9	
512.36	9533.3	
512.56	9358.5	
512.76	7365.2	
512.95	7089.4	
513.15	9626.1	
513.35	8488.1	
513.55	8011	
513.74	7413.6	
513.94	9523.1	
514.14	9030.9	
514.33	8082.7	
514.53	7854	
514.73	9103.2	
514.92	9237.7	
515.12	7463.5	
515.32	7335.8	
515.51	9292.3	
515.71	9538.1	
515.91	8615.1	
516.11	7363.8	
516.3	10494	
516.5	9108	
516.7	7830.1	
516.89	8233.5	
517.09	9088.2	
517.29	9088.2	
517.48	8164.6	
517.68	7568.6	
517.88	8968.7	
518.07	9385.8	
518.27	8016.4	
518.47	7334.5	
518.66	9880.1	
518.86	8837.7	
519.06	7230	
519.25	7549.5	
519.45	9031.5	
519.65	10234	
519.84	8080.6	
520.04	8591.2	
520.24	10533	
520.43	9574.3	
520.63	7845.1	
520.83	7661.5	
521.02	9002.9	
521.22	9462.3	
521.42	7886	
521.61	8368.7	
521.81	9073.2	
522.01	9291.6	
522.2	7826.7	
522.4	7734.5	
522.6	9652.1	
522.79	8637.6	
522.99	7712.7	
523.18	7439.6	
523.38	9451.4	
523.58	9512.8	
523.77	8840.4	
523.97	7497.6	
524.17	10940	
524.36	10446	
524.56	8593.3	
524.76	8186.4	
524.95	9669.1	
525.15	9421.3	
525.34	8192.6	
525.54	8207.6	
525.74	10047	
525.93	9341.5	
526.13	9128.5	
526.33	8264.2	
526.52	10379	
526.72	9932	
526.91	9166.7	
527.11	8635.6	
527.31	10410	
527.5	10752	
527.7	8654.7	
527.89	7938.6	
528.09	9750.4	
528.29	10192	
528.48	8926.4	
528.68	8673.8	
528.87	10424	
529.07	10390	
529.27	8734.6	
529.46	8422.6	
529.66	10262	
529.85	10572	
530.05	8311.3	
530.25	8854.1	
530.44	11243	
530.64	10163	
530.83	8655.4	
531.03	8809.7	
531.23	10604	
531.42	10404	
531.62	9308	
531.81	8770.8	
532.01	10751	
532.21	11001	
532.4	8649.9	
532.6	8986.5	
532.79	11583	
532.99	10903	
533.18	9109.4	
533.38	9837.8	
533.58	10753	
533.77	11103	
533.97	9213.1	
534.16	9802.9	
534.36	11419	
534.55	10718	
534.75	9925.1	
534.95	9268.4	
535.14	11381	
535.34	10729	
535.53	8984.4	
535.73	10380	
535.92	11760	
536.12	10746	
536.31	9082.1	
536.51	9911.5	
536.71	11074	
536.9	10594	
537.1	9146.2	
537.29	9297.1	
537.49	11419	
537.68	10661	
537.88	9667.1	
538.07	8955.1	
538.27	10873	
538.46	11633	
538.66	8970.1	
538.86	9341.5	
539.05	10947	
539.25	11255	
539.44	9598.8	
539.64	9157.2	
539.83	10885	
540.03	11665	
540.22	9088.2	
540.42	9164.7	
540.61	11009	
540.81	11056	
541	9462.3	
541.2	9932.6	
541.39	10645	
541.59	10926	
541.78	9783.1	
541.98	9115.5	
542.18	10460	
542.37	10407	
542.57	9269.1	
542.76	9721	
542.96	10436	
543.15	10935	
543.35	9337.4	
543.54	8789.2	
543.74	10918	
543.93	10740	
544.13	9224.1	
544.32	9961.3	
544.52	10882	
544.71	10361	
544.91	8475.2	
545.1	9338.7	
545.3	10369	
545.49	10877	
545.69	8471.8	
545.88	8915.5	
546.08	11654	
546.27	11238	
546.47	9226.1	
546.66	8717.5	
546.86	11067	
547.05	11396	
547.24	9004.9	
547.44	8831.5	
547.63	10230	
547.83	11077	
548.02	9187.2	
548.22	9230.2	
548.41	10102	
548.61	11053	
548.8	8783.7	
549	8728.4	
549.19	10608	
549.39	10828	
549.58	8448.6	
549.78	8963.3	
549.97	10814	
550.17	10352	
550.36	9543.5	
550.55	10228	
550.75	10386	
550.94	10895	
551.14	8654	
551.33	8752.3	
551.53	9837.8	
551.72	10619	
551.92	8910.7	
552.11	8708	
552.31	10634	
552.5	10639	
552.69	9895.1	
552.89	8375.5	
553.08	10583	
553.28	10337	
553.47	8812.4	
553.67	9548.3	
553.86	10947	
554.06	9708.1	
554.25	8141.4	
554.44	8549.6	
554.64	11443	
554.83	11105	
555.03	8472.4	
555.22	8692.9	
555.42	10704	
555.61	10417	
555.8	8598.1	
556	8719.6	
556.19	9876	
556.39	10676	
556.58	8621.3	
556.78	8564.6	
556.97	10382	
557.16	10177	
557.36	9441.8	
557.55	8347.5	
557.75	9548.3	
557.94	10884	
558.13	8436.3	
558.33	8249.9	
558.52	10825	
558.72	9802.9	
558.91	8317.5	
559.1	8378.9	
559.3	9736.7	
559.49	9497.1	
559.69	7923.6	
559.88	8682.7	
560.07	10189	
560.27	10617	
560.46	8867	
560.66	8931.9	
560.85	10174	
561.04	9466.4	
561.24	8278.6	
561.43	8345.5	
561.63	9735.4	
561.82	9899.9	
562.01	9235.7	
562.21	8587.8	
562.4	10207	
562.59	10985	
562.79	8543.4	
562.98	8275.8	
563.18	10140	
563.37	11219	
563.56	8774.9	
563.76	8288.8	
563.95	9764.7	
564.14	9747.6	
564.34	8577.6	
564.53	8232.8	
564.73	10264	
564.92	10384	
565.11	8605.6	
565.31	8224.6	
565.5	10641	
565.69	9783.1	
565.89	8447.2	
566.08	8669.7	
566.27	10435	
566.47	10808	
566.66	9058.2	
566.85	8101.8	
567.05	10340	
567.24	9870.5	
567.44	8321.6	
567.63	9297.1	
567.82	10405	
568.02	10173	
568.21	8333.9	
568.4	8561.9	
568.6	10241	
568.79	10120	
568.98	8291.5	
569.18	8338	
569.37	10174	
569.56	11564	
569.76	8594	
569.95	9360.6	
570.14	10429	
570.34	10343	
570.53	8277.9	
570.72	8339.3	
570.91	10789	
571.11	10110	
571.3	8559.8	
571.49	9293.7	
571.69	10213	
571.88	9688.3	
572.07	9038.4	
572.27	8953.7	
572.46	9781.1	
572.65	10462	
572.85	8462.2	
573.04	8722.3	
573.23	10831	
573.43	10198	
573.62	8299.7	
573.81	8718.2	
574	10371	
574.2	10131	
574.39	8641.1	
574.58	8619.9	
574.78	10959	
574.97	10496	
575.16	9008.3	
575.36	9131.9	
575.55	10788	
575.74	10785	
575.93	8394.6	
576.13	9183.1	
576.32	10270	
576.51	10592	
576.71	8716.8	
576.9	9636.4	
577.09	11019	
577.28	10639	
577.48	9025.4	
577.67	8394.6	
577.86	10316	
578.05	10615	
578.25	8921.6	
578.44	8906.6	
578.63	10326	
578.83	11295	
579.02	8456.7	
579.21	9582.4	
579.4	10465	
579.6	10236	
579.79	8981.7	
579.98	10539	
580.17	10700	
580.37	10862	
580.56	8589.9	
580.75	9064.3	
580.94	11105	
581.14	10987	
581.33	9471.2	
581.52	8626	
581.71	10684	
581.91	11196	
582.1	8516.8	
582.29	8901.2	
582.48	10421	
582.68	10445	
582.87	9166.7	
583.06	9033.6	
583.25	10875	
583.45	10512	
583.64	9518.3	
583.83	9950.4	
584.02	10309	
584.21	10694	
584.41	9476.6	
584.6	8933.9	
584.79	10491	
584.98	10867	
585.18	8574.8	
585.37	8587.8	
585.56	10269	
585.75	10701	
585.94	8649.9	
586.14	9200.2	
586.33	11099	
586.52	10421	
586.71	8971.5	
586.91	8747.6	
587.1	9870.5	
587.29	10675	
587.48	8688.8	
587.67	8598.7	
587.87	10539	
588.06	10533	
588.25	9570.2	
588.44	9018.6	
588.63	10253	
588.83	10600	
589.02	8590.5	
589.21	8551	
589.4	10098	
589.59	9925.8	
589.78	7826	
589.98	7970	
590.17	9385.2	
590.36	9757.9	
590.55	7378.8	
590.74	7948.2	
590.94	10614	
591.13	9521.7	
591.32	7780.9	
591.51	7519.5	
591.7	9886.9	
591.89	9426.8	
592.09	7540.6	
592.28	7953.6	
592.47	8945.5	
592.66	10433	
592.85	7584.3	
593.05	7733.8	
593.24	9508	
593.43	10118	
593.62	7844.4	
593.81	8182.3	
594	9469.8	
594.19	9663	
594.39	7787.7	
594.58	7670.3	
594.77	9738.1	
594.96	10131	
595.15	7626	
595.34	8194.6	
595.54	9689.6	
595.73	9079.3	
595.92	7127.6	
596.11	8028.7	
596.3	9949.7	
596.49	9117.6	
596.68	7884.7	
596.88	8157.1	
597.07	9800.9	
597.26	8967.4	
597.45	7419.8	
597.64	8359.8	
597.83	9212.4	
598.02	9550.4	
598.22	7529.7	
598.41	7922.2	
598.6	9480.7	
598.79	9000.8	
598.98	7492.8	
599.17	8143.4	
599.36	9460.9	
599.55	10137	
599.74	8958.5	
599.94	8821.3	
600.13	9814.5	
600.32	9011.7	
600.51	7234.8	
600.7	7524.9	
600.89	10275	
601.08	10275	
601.27	7283.9	
601.47	7851.2	
601.66	9742.9	
601.85	10107	
602.04	7722.9	
602.23	7837.6	
602.42	9029.5	
602.61	9462.3	
602.8	7615.7	
602.99	7429.3	
603.18	9218.6	
603.37	9392	
603.57	7878.5	
603.76	8269	
603.95	9935.4	
604.14	9615.9	
604.33	7505.1	
604.52	7734.5	
604.71	9528.5	
604.9	9133.3	
605.09	8107.9	
605.28	8013.7	
605.47	9957.9	
605.66	9514.9	
605.86	7931.8	
606.05	7511.3	
606.24	9890.3	
606.43	8747.6	
606.62	7693.5	
606.81	8314.1	
607	9731.9	
607.19	9086.2	
607.38	7204.8	
607.57	7384.3	
607.76	8986.5	
607.95	8622.6	
608.14	7759.1	
608.33	8142	
608.52	8951.7	
608.72	9542.9	
608.91	7174.7	
609.1	7023.9	
609.29	9113.5	
609.48	8641.1	
609.67	7795.3	
609.86	7096.2	
610.05	8732.5	
610.24	9009	
610.43	7048.4	
610.62	6748.7	
610.81	9801.6	
611	9657.5	
611.19	7154.2	
611.38	7614.3	
611.57	9069.1	
611.76	10060	
611.95	7061.4	
612.14	6817	
612.33	8921.6	
612.52	8681.3	
612.71	7367.9	
612.9	6843.6	
613.09	8309.3	
613.28	10120	
613.47	7290.1	
613.66	7851.9	
613.85	9100.5	
614.04	8655.4	
614.24	7247.1	
614.43	6609.5	
614.62	9163.3	
614.81	9080.7	
615	7469.6	
615.19	7576.1	
615.38	8604.9	
615.57	8957.8	
615.76	7445	
615.95	8191.2	
616.14	9218.6	
616.33	8961.9	
616.52	7684.7	
616.71	7861.5	
616.9	9082.1	
617.09	8897.1	
617.28	7276.4	
617.47	8173.4	
617.66	8580.3	
617.85	8629.5	
618.04	7952.9	
618.22	7507.9	
618.41	8800.1	
618.6	9463.7	
618.79	7473	
618.98	7284.6	
619.17	9665.7	
619.36	8424.7	
619.55	7449.8	
619.74	7431.4	
619.93	9187.9	
620.12	8814.5	
620.31	7930.4	
620.5	7964.6	
620.69	9648.7	
620.88	9901.9	
621.07	8465.6	
621.26	7917.4	
621.45	9384.5	
621.64	9340.8	
621.83	7939.3	
622.02	7358.4	
622.21	9493	
622.4	9327.1	
622.59	8330.5	
622.78	8077.2	
622.97	9047.9	
623.16	9661	
623.35	7988.4	
623.54	7274.4	
623.72	9088.9	
623.91	9243.8	
624.1	8126.3	
624.29	7165.2	
624.48	10056	
624.67	9458.9	
624.86	7894.9	
625.05	7283.9	
625.24	10140	
625.43	9028.1	
625.62	9258.9	
625.81	7498.3	
626	9707.4	
626.19	9178.3	
626.38	8041.7	
626.56	7569.3	
626.75	9071.1	
626.94	9664.4	
627.13	8099	
627.32	7131	
627.51	9671.9	
627.7	10406	
627.89	7228	
628.08	8049.2	
628.27	8850.6	
628.46	9050.7	
628.65	7417.7	
628.83	7151.5	
629.02	9463	
629.21	8867	
629.4	7753.6	
629.59	7855.3	
629.78	8941.4	
629.97	9646.6	
630.16	7847.1	
630.35	7544.7	
630.54	9996.8	
630.72	9737.4	
630.91	7574.8	
631.1	7932.5	
631.29	9340.8	
631.48	9373.6	
631.67	8033.5	
631.86	7524.9	
632.05	9115.5	
632.24	9050.7	
632.42	7418.4	
632.61	7789.1	
632.8	9140.1	
632.99	8822	
633.18	7806.2	
633.37	8047.8	
633.56	9359.2	
633.75	9187.9	
633.93	7816.4	
634.12	7665.5	
634.31	9999.5	
634.5	9618.6	
634.69	7621.2	
634.88	7990.5	
635.07	9194	
635.25	9581.8	
635.44	8277.2	
635.63	8326.4	
635.82	9101.9	
636.01	8570.1	
636.2	8150.2	
636.39	7908.6	
636.57	9897.8	
636.76	9506	
636.95	7445	
637.14	8459.5	
637.33	9331.2	
637.52	10023	
637.7	7268.2	
637.89	8013.7	
638.08	9134.6	
638.27	10104	
638.46	8008.2	
638.65	8204.8	
638.83	10088	
639.02	8839	
639.21	7873.8	
639.4	8243.1	
639.59	9136.7	
639.78	8960.5	
639.96	7270.3	
640.15	7406.1	
640.34	9075.9	
640.53	9091.6	
640.72	7111.2	
640.91	7337.2	
641.09	8677.2	
641.28	9583.1	
641.47	7633.5	
641.66	7996.6	
641.85	9054.1	
642.03	9273.2	
642.22	7718.8	
642.41	7361.8	
642.6	8654.7	
642.79	8130.4	
642.97	7181.5	
643.16	7637.6	
643.35	8636.3	
643.54	8523	
643.73	7040.2	
643.91	7703.1	
644.1	8393.9	
644.29	8841.1	
644.48	7101.7	
644.67	7089.4	
644.85	8337.3	
645.04	8774.2	
645.23	6815	
645.42	7055.9	
645.6	8300.4	
645.79	9136.7	
645.98	6941.2	
646.17	6283.9	
646.36	8056.7	
646.54	8572.1	
646.73	7490.1	
646.92	6605.4	
647.11	8105.2	
647.29	8870.4	
647.48	6555.5	
647.67	6417.7	
647.86	8961.2	
648.05	8979	
648.23	6808.1	
648.42	7709.2	
648.61	8593.3	
648.8	8413.1	
648.98	6496.8	
649.17	6782.2	
649.36	8046.5	
649.55	7683.3	
649.73	6563.7	
649.92	7094.2	
650.11	7970	
650.3	8234.2	
650.48	6635.4	
650.67	6482.5	
650.86	8338	
651.05	7626.6	
651.23	6595.8	
651.42	6481.8	
651.61	8024.6	
651.79	7944.1	
651.98	6741.2	
652.17	6411.5	
652.36	8368	
652.54	7503.8	
652.73	6414.9	
652.92	6322.1	
653.11	8292.9	
653.29	8349.6	
653.48	5984.2	
653.67	6563.7	
653.85	8056.7	
654.04	8848.6	
654.23	6700.3	
654.42	6355.5	
654.6	7700.4	
654.79	8087.4	
654.98	5965.7	
655.16	6259.3	
655.35	7319.4	
655.54	7134.4	
655.73	5957.5	
655.91	5806.7	
656.1	7926.3	
656.29	7107.1	
656.47	5521.3	
656.66	6784.2	
656.85	7354.3	
657.03	7527.7	
657.22	5901.6	
657.41	6099.5	
657.59	7488.1	
657.78	7377.5	
657.97	5849.7	
658.16	6345.3	
658.34	7984.3	
658.53	8409	
658.72	7030	
658.9	7368.6	
659.09	7745.4	
659.28	7700.4	
659.46	6215.6	
659.65	6150.7	
659.84	7549.5	
660.02	7875.1	
660.21	6150.1	
660.4	5918.6	
660.58	8194.6	
660.77	7685.3	
660.96	6368.5	
661.14	5770.5	
661.33	8514.1	
661.52	8495.7	
661.7	5752.1	
661.89	8322.9	
662.08	7417.7	
662.26	7075	
662.45	5984.8	
662.64	6122.7	
662.82	7993.2	
663.01	7306.5	
663.2	5999.9	
663.38	6466.1	
663.57	7800.7	
663.75	7673.7	
663.94	6193.1	
664.13	7009.5	
664.31	7415	
664.5	7784.3	
664.69	6432	
664.87	6767.9	
665.06	7285.3	
665.25	7692.2	
665.43	6875.7	
665.62	6939.2	
665.8	7770.7	
665.99	7453.2	
666.18	6213.5	
666.36	6265.4	
666.55	7877.2	
666.74	7722.2	
666.92	5915.9	
667.11	7086.7	
667.29	7486	
667.48	7832.8	
667.67	6726.9	
667.85	6046.3	
668.04	7374.7	
668.22	7326.3	
668.41	6240.8	
668.6	6391.7	
668.78	7208.8	
668.97	7432.8	
669.15	6386.2	
669.34	5595.1	
669.53	7243.7	
669.71	7478.5	
669.9	5803.3	
670.08	6232	
670.27	7253.9	
670.46	7630	
670.64	6466.1	
670.83	6602.7	
671.01	7129.7	
671.2	7544.7	
671.38	5864	
671.57	5750	
671.76	8008.9	
671.94	8409	
672.13	5676.3	
672.31	6466.8	
672.5	7789.1	
672.69	7252.5	
672.87	5810.1	
673.06	6124.1	
673.24	7598.6	
673.43	7305.8	
673.61	6356.2	
673.8	6053.8	
673.98	7720.2	
674.17	7783.6	
674.36	6428.6	
674.54	6384.9	
674.73	7537.2	
674.91	7753.6	
675.1	6157.6	
675.28	5702.9	
675.47	7410.9	
675.65	7779.6	
675.84	6043.6	
676.03	6275	
676.21	7206.8	
676.4	6821.1	
676.58	6580.1	
676.77	6462	
676.95	8348.9	
677.14	7212.3	
677.32	5765	
677.51	5689.3	
677.69	7701	
677.88	7038.2	
678.06	5812.8	
678.25	5847	
678.44	7420.5	
678.62	7107.1	
678.81	5625.1	
678.99	6262.7	
679.18	8033.5	
679.36	7586.4	
679.55	6012.2	
679.73	6396.5	
679.92	7617.1	
680.1	7204.1	
680.29	6810.2	
680.47	5976.7	
680.66	7202.7	
680.84	7763.8	
681.03	5575.9	
681.21	6343.2	
681.4	7229.3	
681.58	7020.4	
681.77	5859.9	
681.95	5771.9	
682.14	7886.7	
682.32	8151.6	
682.51	6411.5	
682.69	5532.9	
682.88	7103	
683.06	7516	
683.25	6237.4	
683.43	6547.4	
683.62	7394.5	
683.8	7668.3	
683.99	6690	
684.17	6070.2	
684.36	8228.1	
684.54	7321.5	
684.73	5455.8	
684.91	5548.6	
685.1	7453.2	
685.28	6888	
685.46	6017.6	
685.65	5920	
685.83	7477.8	
686.02	7008.1	
686.2	5526.1	
686.39	5614.8	
686.57	6685.3	
686.76	7881.9	
686.94	5509	
687.13	5715.9	
687.31	7373.4	
687.5	7114	
687.68	5322	
687.86	6120.7	
688.05	8420.6	
688.23	6649.1	
688.42	6249.7	
688.6	5735.7	
688.79	7105.1	
688.97	7136.5	
689.16	6025.8	
689.34	5296	
689.52	7613.7	
689.71	7828.7	
689.89	6249	
690.08	5773.2	
690.26	7430	
690.45	7247.1	
690.63	6468.9	
690.81	5960.3	
691	7259.4	
691.18	7092.8	
691.37	6113.2	
691.55	7576.1	
691.74	7025.9	
691.92	8481.3	
692.1	6045.6	
692.29	5702.9	
692.47	7202	
692.66	6773.3	
692.84	5766.4	
693.02	6183.5	
693.21	6868.9	
693.39	7353.6	
693.58	6325.5	
693.76	5864.7	
693.94	8123.6	
694.13	7966.6	
694.31	5911.8	
694.5	6677.7	
694.68	7218.4	
694.86	7518.1	
695.05	6218.3	
695.23	6326.9	
695.42	7909.3	
695.6	9381.7	
695.78	6736.5	
695.97	6065.4	
696.15	7912.7	
696.34	7425.3	
696.52	5963.7	
696.7	6528.9	
696.89	7772.7	
697.07	7176.1	
697.25	6353.5	
697.44	7488.1	
697.62	7703.1	
697.81	7877.9	
697.99	6193.1	
698.17	6555.5	
698.36	7207.5	
698.54	7724.9	
698.72	6508.4	
698.91	5782.8	
699.09	7413.6	
699.28	7200	
699.46	6320.7	
699.64	6117.3	
699.83	7286.7	
700.01	8054.7	
700.19	6804	
700.38	5582.1	
700.56	8154.3	
700.74	7419.8	
700.93	5879.7	
701.11	6497.5	
701.29	7806.2	
701.48	8552.3	
701.66	6087.9	
701.84	6233.3	
702.03	7603.4	
702.21	8071.7	
702.39	5862	
702.58	6367.8	
702.76	7791.2	
702.94	7916.1	
703.13	5939.8	
703.31	7692.2	
703.49	7355.6	
703.68	8198	
703.86	6083.8	
704.04	6801.3	
704.23	7809.6	
704.41	8036.9	
704.59	6195.8	
704.78	6977.4	
704.96	8981	
705.14	8058.1	
705.33	6123.4	
705.51	6640.9	
705.69	7636.2	
705.87	8346.2	
706.06	6877.1	
706.24	6066.8	
706.42	7958.4	
706.61	8081.3	
706.79	6873	
706.97	6135	
707.16	7545.4	
707.34	7965.9	
707.52	6855.9	
707.7	6232	
707.89	7524.9	
708.07	7404.1	
708.25	6857.3	
708.44	7154.2	
708.62	7592.5	
708.8	8435.6	
708.98	7079.1	
709.17	6324.1	
709.35	7970.7	
709.53	7872.4	
709.72	6110.5	
709.9	6406	
710.08	8153.6	
710.26	8212.4	
710.45	7328.3	
710.63	6405.4	
710.81	7850.5	
710.99	7798	
711.18	6804.7	
711.36	6389	
711.54	7714.7	
711.72	8196.7	
711.91	6461.3	
712.09	6025.8	
712.27	7849.9	
712.45	8503.2	
712.64	6608.1	
712.82	5862.7	
713	7415.7	
713.18	7420.5	
713.37	5890.6	
713.55	6739.2	
713.73	8112.7	
713.91	6992.4	
714.1	6059.9	
714.28	5663.3	
714.46	7608.2	
714.64	6981.5	
714.83	5209.3	
715.01	5644.2	
715.19	6905.1	
715.37	6378.1	
715.55	5358.9	
715.74	5401.9	
715.92	7434.8	
716.1	5924.1	
716.28	6343.2	
716.47	5558.9	
716.65	6606.1	
716.83	6587	
717.01	5441.5	
717.19	5442.1	
717.38	8072.4	
717.56	6295.5	
717.74	5679.7	
717.92	5036.6	
718.1	7288.7	
718.29	6679.8	
718.47	4880.3	
718.65	5348.6	
718.83	7329.7	
719.01	7266.2	
719.2	4887.8	
719.38	5792.3	
719.56	7104.4	
719.74	8305.2	
719.92	5500.8	
720.11	6264.1	
720.29	7258.7	
720.47	6570.6	
720.65	5087.8	
720.83	5642.2	
721.02	6670.9	
721.2	6524.8	
721.38	5662	
721.56	5045.5	
721.74	6039.5	
721.92	6186.2	
722.11	5885.2	
722.29	5720.7	
722.47	7131.7	
722.65	6466.8	
722.83	5020.3	
723.01	5714.5	
723.2	6537.8	
723.38	6791.7	
723.56	4678.2	
723.74	5489.2	
723.92	6197.8	
724.1	7011.6	
724.29	5072.8	
724.47	5864.7	
724.65	6338.5	
724.83	6193.1	
725.01	4939	
725.19	5551.4	
725.37	6197.2	
725.56	6219	
725.74	4769	
725.92	5024.3	
726.1	6221	
726.28	6395.8	
726.46	5292	
726.64	5029.8	
726.83	6383.5	
727.01	6610.2	
727.19	4802.5	
727.37	5357.5	
727.55	6454.5	
727.73	6828.6	
727.91	4797.7	
728.09	4622.3	
728.28	6944	
728.46	7073	
728.64	5527.5	
728.82	5387.5	
729	7662.8	
729.18	7185.6	
729.36	4891.9	
729.54	6516.6	
729.72	7918.1	
729.91	6633.4	
730.09	6285.2	
730.27	5485.8	
730.45	6694.1	
730.63	7118.1	
730.81	5882.4	
730.99	5187.5	
731.17	7516.7	
731.35	6503.7	
731.53	5640.1	
731.71	5394.3	
731.9	7287.4	
732.08	7391.1	
732.26	5547.9	
732.44	5248.9	
732.62	7398.6	
732.8	7043.6	
732.98	5739.8	
733.16	5074.9	
733.34	7056.6	
733.52	6034.7	
733.7	5425.8	
733.88	5614.2	
734.07	6851.1	
734.25	6771.9	
734.43	5033.9	
734.61	6162.3	
734.79	7742.7	
734.97	6636.8	
735.15	5036.6	
735.33	5414.8	
735.51	6894.1	
735.69	6625.2	
735.87	6147.3	
736.05	5492	
736.23	6698.2	
736.41	6488.6	
736.59	5318.6	
736.77	5408.7	
736.95	7038.9	
737.13	6617	
737.32	5070.8	
737.5	5182.7	
737.68	7477.1	
737.86	6490	
738.04	4885.8	
738.22	6299.6	
738.4	6369.9	
738.58	6556.2	
738.76	5366.4	
738.94	4656.4	
739.12	6457.9	
739.3	6352.8	
739.48	5821	
739.66	5612.8	
739.84	6666.1	
740.02	6593.8	
740.2	4645.5	
740.38	4918.5	
740.56	6830	
740.74	5961	
740.92	5410.1	
741.1	5296.7	
741.28	6453.8	
741.46	6279.8	
741.64	4981.3	
741.82	5361.6	
742	6494.8	
742.18	6326.9	
742.36	5198.4	
742.54	4847.5	
742.72	6870.3	
742.9	5896.1	
743.08	5343.8	
743.26	4534.9	
743.44	6869.6	
743.62	6819.7	
743.8	5473.5	
743.98	4826.4	
744.16	6607.4	
744.34	6315.3	
744.52	5407.3	
744.7	5350.7	
744.88	6690	
745.06	6206	
745.24	5358.9	
745.42	5409.4	
745.6	6741.9	
745.78	6568.5	
745.96	4462.5	
746.14	4715.8	
746.32	7258	
746.5	6601.3	
746.68	5063.9	
746.86	4698.7	
747.03	6791.1	
747.21	5665.4	
747.39	5032.5	
747.57	4656.4	
747.75	6335.7	
747.93	6521.4	
748.11	4683	
748.29	4571.1	
748.47	7490.8	
748.65	6046.3	
748.83	5172.5	
749.01	5023	
749.19	6516.6	
749.37	5802.6	
749.55	4874.2	
749.73	4933.6	
749.91	6171.2	
750.09	5997.8	
750.26	4919.9	
750.44	4446.8	
750.62	6137.1	
750.8	6145.3	
750.98	4276.8	
751.16	4616.8	
751.34	6218.3	
751.52	5783.5	
751.7	5173.9	
751.88	4367.6	
752.06	6492.7	
752.24	6315.3	
752.42	4298	
752.59	4539	
752.77	6047	
752.95	6982.2	
753.13	5087.8	
753.31	4577.9	
753.49	5835.3	
753.67	6210.1	
753.85	4838.7	
754.03	4491.2	
754.21	6300.9	
754.38	6575.3	
754.56	4531.5	
754.74	3873.4	
754.92	5672.9	
755.1	6206	
755.28	3870	
755.46	3823.6	
755.64	6656.6	
755.82	6597.9	
755.99	3857.7	
756.17	3829	
756.35	4674.8	
756.53	5808	
756.71	3013.2	
756.89	3661.8	
757.07	5353.4	
757.25	4788.8	
757.42	4087.7	
757.6	4717.2	
757.78	5575.9	
757.96	4855.1	
758.14	3934.8	
758.32	3616.7	
758.5	4528.1	
758.67	5199.1	
758.85	3831.1	
759.03	3788.7	
759.21	5287.2	
759.39	4784.1	
759.57	3444.7	
759.75	4304.8	
759.92	5814.2	
760.1	5298.1	
760.28	4539.7	
760.46	4771.1	
760.64	5126.7	
760.82	4957.4	
760.99	4463.9	
761.17	3887	
761.35	5806	
761.53	4966.3	
761.71	4032.5	
761.89	4583.4	
762.06	5664.7	
762.24	5319.3	
762.42	4157.4	
762.6	3886.4	
762.78	5360.2	
762.96	5755.5	
763.13	4451.6	
763.31	4129.4	
763.49	5831.2	
763.67	5286.5	
763.85	4787.5	
764.02	5154.1	
764.2	6169.8	
764.38	5460.6	
764.56	4067.9	
764.74	4745.8	
764.91	6184.2	
765.09	5297.4	
765.27	3900	
765.45	3750.5	
765.63	6254.5	
765.8	6005.3	
765.98	3545.7	
766.16	3745.1	
766.34	5007.3	
766.52	4797	
766.69	4410.6	
766.87	3625.6	
767.05	5316.5	
767.23	5859.9	
767.41	3907.5	
767.58	4003.1	
767.76	5717.9	
767.94	5767.1	
768.12	3936.9	
768.29	4352.6	
768.47	5339.1	
768.65	5889.3	
768.83	3585.3	
769	4416.1	
769.18	5046.9	
769.36	5509.7	
769.54	4430.4	
769.72	3586	
769.89	5728.9	
770.07	5747.3	
770.25	3837.9	
770.43	4683	
770.6	6210.1	
770.78	6492.1	
770.96	3925.3	
771.14	4303.5	
771.31	5634.6	
771.49	5163.6	
771.67	3356.6	
771.85	3489.1	
772.02	4653.7	
772.2	5079.6	
772.38	4013.3	
772.55	3583.9	
772.73	5357.5	
772.91	5139	
773.09	3923.2	
773.26	4006.5	
773.44	5300.1	
773.62	5094	
773.8	3509.5	
773.97	3360.7	
774.15	5345.9	
774.33	5116.5	
774.5	3470.6	
774.68	3788.1	
774.86	5406.6	
775.04	4999.1	
775.21	3530.7	
775.39	3526.6	
775.57	5283.1	
775.74	5477.6	
775.92	3368.9	
776.1	3263.1	
776.27	5173.2	
776.45	6067.4	
776.63	3499.3	
776.81	3162.1	
776.98	4989.5	
777.16	5705	
777.34	3611.9	
777.51	3851.5	
777.69	4915.8	
777.87	4789.5	
778.04	3665.2	
778.22	4066.6	
778.4	4749.9	
778.57	5236	
778.75	3093.8	
778.93	3264.5	
779.1	4670.1	
779.28	4464.6	
779.46	3035.1	
779.64	3394.8	
779.81	5332.9	
779.99	5996.5	
780.17	4007.2	
780.34	4104.1	
780.52	4959.5	
780.69	5063.3	
780.87	3682.9	
781.05	3333.4	
781.22	5029.8	
781.4	5025.7	
781.58	3430.3	
781.75	2749.7	
781.93	4942.4	
782.11	4491.2	
782.28	4052.9	
782.46	3406.5	
782.64	4388.8	
782.81	5194.3	
782.99	3503.4	
783.17	3411.9	
783.34	4986.8	
783.52	4501.4	
783.69	3564.8	
783.87	4184.7	
784.05	4502.8	
784.22	4541	
784.4	4123.9	
784.58	3658.4	
784.75	5270.1	
784.93	4610.7	
785.1	3379.8	
785.28	3861.8	
785.46	5046.2	
785.63	4536.9	
785.81	3406.5	
785.99	3259	
786.16	4732.9	
786.34	4874.8	
786.51	3281.5	
786.69	3576.4	
786.87	4339	
787.04	4684.4	
787.22	3162.1	
787.39	3875.4	
787.57	4499.4	
787.75	5291.3	
787.92	4068.6	
788.1	3947.1	
788.27	4435.2	
788.45	4321.9	
788.63	3728	
788.8	2827.6	
788.98	4936.3	
789.15	4205.8	
789.33	2904.7	
789.5	3359.4	
789.68	5195.7	
789.86	5259.9	
790.03	3721.8	
790.21	3300.6	
790.38	5271.5	
790.56	4652.3	
790.73	3148.4	
790.91	3207.1	
791.09	4502.8	
791.26	5055.8	
791.44	3363.4	
791.61	2994.8	
791.79	4517.1	
791.96	4488.5	
792.14	3033	
792.32	2724.5	
792.49	4489.1	
792.67	4567.7	
792.84	3136.8	
793.02	2949.1	
793.19	4818.9	
793.37	5326.8	
793.54	2681.5	
793.72	3009.8	
793.89	5418.9	
794.07	4472.1	
794.25	3351.8	
794.42	2814.6	
794.6	5255.8	
794.77	4932.9	
794.95	3613.3	
795.12	3175	
795.3	4498	
795.47	4876.2	
795.65	3516.4	
795.82	3383.2	
796	4363.5	
796.17	5689.3	
796.35	3302	
796.52	3837.2	
796.7	4889.2	
796.87	4948.6	
797.05	3289	
797.22	3842.7	
797.4	4941.1	
797.57	5663.3	
797.75	3405.1	
797.92	3198.2	
798.1	5183.4	
798.27	4356.7	
798.45	2805	
798.62	2890.4	
798.8	4666.6	
798.97	5078.3	
799.15	3502	
799.32	3360	
799.5	4167.6	
799.67	4693.3	
799.85	3657.7	
800.02	2734	
800.2	4447.5	
800.37	4647.5	
800.55	3755.3	
800.72	3151.8	
800.9	5059.2	
801.07	5334.3	
801.25	4105.5	
801.42	3502.7	
801.6	5060.5	
801.77	4749.2	
801.95	3210.5	
802.12	3132.7	
802.29	4848.2	
802.47	4802.5	
802.64	3489.1	
802.82	2693.1	
802.99	4486.4	
803.17	5100.1	
803.34	3345	
803.52	3011.2	
803.69	5610.8	
803.87	4227	
804.04	3346.4	
804.21	3409.2	
804.39	5212.8	
804.56	4596.3	
804.74	2888.3	
804.91	3484.3	
805.09	4422.2	
805.26	4457.1	
805.44	2956.6	
805.61	3224.2	
805.78	4965.6	
805.96	4941.1	
806.13	3462.4	
806.31	3646.1	
806.48	4105.5	
806.66	4517.8	
806.83	3490.4	
807	3346.4	
807.18	4437.3	
807.35	4715.1	
807.53	3366.2	
807.7	2739.5	
807.87	5287.9	
808.05	4457.1	
808.22	3671.3	
808.4	2773.6	
808.57	4382	
808.74	4136.2	
808.92	3127.9	
809.09	3958	
809.27	4426.3	
809.44	4820.9	
809.61	2774.3	
809.79	3083.6	
809.96	5386.8	
810.14	4920.6	
810.31	2744.3	
810.48	3297.9	
810.66	4554	
810.83	5019.6	
811.01	3099.9	
811.18	3403	
811.35	5038.7	
811.53	3990.1	
811.7	3686.3	
811.87	3388.7	
812.05	4543.1	
812.22	4414.1	
812.39	3021.4	
812.57	2927.9	
812.74	4536.3	
812.92	5639.4	
813.09	3254.9	
813.26	3495.9	
813.44	5468.1	
813.61	4415.4	
813.78	2776.4	
813.96	3562.8	
814.13	4487.1	
814.3	4273.4	
814.48	3811.3	
814.65	3249.4	
814.82	5304.9	
815	4273.4	
815.17	3295.9	
815.34	3937.6	
815.52	4341.7	
815.69	4401.8	
815.87	3246	
816.04	3261.7	
816.21	4459.8	
816.38	4066.6	
816.56	3194.1	
816.73	2982.5	
816.9	5509	
817.08	4985.4	
817.25	3043.3	
817.42	3675.4	
817.6	4160.8	
817.77	4394.9	
817.94	3347.1	
818.12	3013.9	
818.29	4272.7	
818.46	6277	
818.64	3102	
818.81	2969.6	
818.98	4252.3	
819.16	5754.1	
819.33	3562.8	
819.5	3300	
819.67	4693.3	
819.85	5221	
820.02	3235.1	
820.19	3393.5	
820.37	4616.1	
820.54	4398.4	
820.71	3353.9	
820.88	4067.3	
821.06	4614.1	
821.23	4293.2	
821.4	3411.2	
821.58	3351.2	
821.75	4977.9	
821.92	4583.4	
822.09	2788	
822.27	2860.3	
822.44	4442.7	
822.61	4381.3	
822.79	2781.8	
822.96	5091.3	
823.13	4730.1	
823.3	4192.2	
823.48	3158.7	
823.65	2899.9	
823.82	5024.3	
823.99	4109.6	
824.17	3928	
824.34	2953.9	
824.51	5647.6	
824.68	4472.1	
824.86	3009.1	
825.03	3335.5	
825.2	4481.6	
825.37	5233.9	
825.55	3042.6	
825.72	3349.1	
825.89	5612.8	
826.06	5236	
826.24	3267.2	
826.41	3190.7	
826.58	5317.2	
826.75	4687.1	
826.92	2715.6	
827.1	2831	
827.27	6940.6	
827.44	5571.8	
827.61	3042.6	
827.79	3644	
827.96	4308.2	
828.13	4481	
828.3	3194.1	
828.47	2742.2	
828.65	4734.2	
828.82	4661.2	
828.99	4039.3	
829.16	3565.5	
829.34	4927.4	
829.51	4848.2	
829.68	3327.3	
829.85	3381.9	
830.02	5261.9	
830.2	4961.5	
830.37	2620.7	
830.54	3903.4	
830.71	5621.7	
830.88	4450.9	
831.05	2661.7	
831.23	3022.1	
831.4	5395.7	
831.57	5830.6	
831.74	3089.7	
831.91	2740.2	
832.09	4793.6	
832.26	4930.8	
832.43	3130	
832.6	3551.9	
832.77	4713.7	
832.94	5228.5	
833.12	2604.3	
833.29	3140.2	
833.46	4816.8	
833.63	6053.8	
833.8	3419.4	
833.97	3120.4	
834.15	5006.6	
834.32	4795	
834.49	3291.8	
834.66	3330.7	
834.83	5068.7	
835	4306.9	
835.17	3052.8	
835.35	3012.6	
835.52	4886.5	
835.69	4758.1	
835.86	3218.7	
836.03	2684.9	
836.2	4984.1	
836.37	4639.3	
836.55	3154.6	
836.72	2966.1	
836.89	4665.3	
837.06	5059.8	
837.23	3215.3	
837.4	3457	
837.57	5621.7	
837.75	5962.3	
837.92	2925.9	
838.09	3127.9	
838.26	4657.8	
838.43	5110.4	
838.6	3274.7	
838.77	3003	
838.94	5747.3	
839.11	5548.6	
839.29	3160.7	
839.46	2548.4	
839.63	5028.4	
839.8	4715.1	
839.97	3053.5	
840.14	3043.3	
840.31	4829.1	
840.48	5021.6	
840.65	2619.4	
840.82	3023.5	
841	4963.6	
841.17	4859.8	
841.34	2849.4	
841.51	2892.4	
841.68	4935.6	
841.85	4726.7	
842.02	2899.2	
842.19	2521.7	
842.36	4798.4	
842.53	4767.7	
842.7	2832.3	
842.87	3384.6	
843.05	6034	
843.22	4685.1	
843.39	2758.6	
843.56	2959.3	
843.73	4614.1	
843.9	5032.5	
844.07	4356.7	
844.24	3699.3	
844.41	6709.8	
844.58	4367	
844.75	2763.4	
844.92	3004.4	
845.09	4929.5	
845.26	4923.3	
845.43	2870.6	
845.6	2992.1	
845.77	4934.9	
845.94	4730.1	
846.12	3104.7	
846.29	3289	
846.46	5132.9	
846.63	4916.5	
846.8	2839.2	
846.97	3323.2	
847.14	5270.8	
847.31	4914.4	
847.48	3147	
847.65	3446	
847.82	5113.1	
847.99	5079.6	
848.16	3736.2	
848.33	3392.8	
848.5	4619.5	
848.67	5309.7	
848.84	2785.9	
849.01	2974.3	
849.18	4559.5	
849.35	4294.6	
849.52	3423.5	
849.69	2781.8	
849.86	5145.2	
850.03	5216.9	
850.2	2870.6	
850.37	3437.9	
850.54	5193.6	
850.71	4647.5	
850.88	3316.3	
851.05	2769.5	
851.22	4827.7	
851.39	5323.4	
851.56	2694.4	
851.73	3174.4	
851.9	4418.2	
852.07	5136.3	
852.24	3108.1	
852.41	2828.9	
852.58	4883.7	
852.75	4462.5	
852.92	3176.4	
853.09	2776.4	
853.26	4575.8	
853.43	5203.2	
853.6	2865.1	
853.77	2448	
853.94	5296.7	
854.11	4359.4	
854.28	4059.1	
854.44	3023.5	
854.61	5655.8	
854.78	5175.2	
854.95	2867.8	
855.12	3495.2	
855.29	4095.9	
855.46	5407.3	
855.63	2849.4	
855.8	3728	
855.97	4582	
856.14	5160.9	
856.31	3898	
856.48	3074.7	
856.65	4640.7	
856.82	4358.1	
856.99	2728.6	
857.16	3017.3	
857.33	5823.7	
857.49	4721.9	
857.66	3002.3	
857.83	3212.6	
858	4685.1	
858.17	4797	
858.34	2676	
858.51	2862.4	
858.68	5415.5	
858.85	5366.4	
859.02	3231.7	
859.19	3448.1	
859.36	4425.7	
859.52	4433.2	
859.69	2799.6	
859.86	3274.7	
860.03	4448.9	
860.2	5343.2	
860.37	2555.9	
860.54	2867.2	
860.71	5063.9	
860.88	5348.6	
861.05	3160	
861.21	3554.6	
861.38	5387.5	
861.55	4235.2	
861.72	2626.2	
861.89	3105.4	
862.06	5125.4	
862.23	5428.5	
862.4	2757.9	
862.56	2923.8	
862.73	4998.4	
862.9	4773.8	
863.07	3234.4	
863.24	2598.2	
863.41	4315.8	
863.58	4436.6	
863.75	2890.4	
863.91	3198.2	
864.08	5311.7	
864.25	5038.7	
864.42	3404.4	
864.59	3836.5	
864.76	5561.6	
864.93	4428.4	
865.09	2725.8	
865.26	3020.8	
865.43	5275.6	
865.6	5556.1	
865.77	2491.7	
865.94	2790.7	
866.1	5264	
866.27	5023.7	
866.44	4094.6	
866.61	2745.6	
866.78	4678.2	
866.95	4965.6	
867.11	2736.1	
867.28	2549	
867.45	5185.5	
867.62	4322.6	
867.79	3149.8	
867.96	2807.8	
868.12	4367	
868.29	5111	
868.46	2753.8	
868.63	3676.8	
868.8	5212.1	
868.97	5060.5	
869.13	2930	
869.3	2928.6	
869.47	4909	
869.64	5172.5	
869.81	2829.6	
869.97	2826.2	
870.14	4866.7	
870.31	5343.2	
870.48	2745	
870.65	3496.6	
870.81	4698.7	
870.98	4681.7	
871.15	3130.7	
871.32	2994.1	
871.48	4934.9	
871.65	5434.6	
871.82	2792.1	
871.99	3073.3	
872.16	5822.4	
872.32	5196.4	
872.49	2884.2	
872.66	2843.3	
872.83	5104.2	
872.99	4530.8	
873.16	3187.3	
873.33	2795.5	
873.5	4752	
873.67	4852.3	
873.83	2968.2	
874	3654.3	
874.17	4924	
874.34	5597.1	
874.5	3574.4	
874.67	3383.9	
874.84	5332.2	
875.01	4286.4	
875.17	3868.6	
875.34	2793.4	
875.51	4866.7	
875.68	5726.1	
875.84	3347.1	
876.01	4013.3	
876.18	5042.1	
876.34	4973.2	
876.51	2792.1	
876.68	2786.6	
876.85	4633.9	
877.01	5255.1	
877.18	3891.1	
877.35	2743.6	
877.52	4866	
877.68	4364.2	
877.85	2813.2	
878.02	2779.1	
878.18	4599.7	
878.35	4519.2	
878.52	2329.9	
878.69	3048.7	
878.85	5123.3	
879.02	4982	
879.19	3849.5	
879.35	2984.6	
879.52	5014.1	
879.69	5106.3	
879.86	2516.3	
880.02	3122.5	
880.19	4699.4	
880.36	5640.8	
880.52	3129.3	
880.69	3280.2	
880.86	5099.4	
881.02	5114.5	
881.19	3039.9	
881.36	3001.6	
881.52	5013.4	
881.69	4513.7	
881.86	3031.7	
882.02	2979.1	
882.19	5171.1	
882.36	5999.2	
882.52	2863.1	
882.69	3885.7	
882.86	4899.4	
883.02	4865.3	
883.19	3378.5	
883.36	3137.5	
883.52	5115.8	
883.69	5737.7	
883.86	2867.2	
884.02	2615.3	
884.19	5097.4	
884.36	4751.3	
884.52	3153.9	
884.69	3057.6	
884.86	4612.7	
885.02	5457.8	
885.19	3123.2	
885.36	3188	
885.52	4699.4	
885.69	4939	
885.86	3921.9	
886.02	3531.4	
886.19	5057.8	
886.35	4623.6	
886.52	3045.3	
886.69	3844.7	
886.85	4330.1	
887.02	5299.5	
887.19	5299.5	
887.35	5299.5	
887.52	5299.5	
887.68	5299.5	
887.85	5299.5	
888.02	5299.5	
888.18	5299.5	
888.35	5299.5	
888.51	5299.5	
888.68	5299.5	
888.85	5299.5	
889.01	5299.5	
889.18	5299.5	
889.35	5299.5	
889.51	5299.5	
889.68	5299.5	
889.84	5299.5	
890.01	5299.5	
890.17	5299.5	
890.34	5299.5	
890.51	5299.5	
890.67	5299.5	
890.84	5299.5	
891	5299.5	
891.17	5299.5	
891.34	5299.5	
891.5	5299.5	
891.67	5299.5	
891.83	5299.5	
892	5299.5	
892.16	5299.5	
892.33	5299.5	
892.5	5299.5	
892.66	5299.5	
892.83	5299.5	
892.99	5299.5	
893.16	5299.5	
893.32	5299.5	
893.49	5299.5	
893.65	5299.5	
893.82	5299.5	
893.99	5299.5	
894.15	5299.5	
894.32	5299.5	
894.48	5299.5	
894.65	5299.5	
894.81	5299.5	
894.98	5299.5	
895.14	5299.5	
895.31	5299.5	
895.47	5299.5	
895.64	5299.5	
895.81	5299.5	
895.97	5299.5	
896.14	5299.5	
896.3	5299.5	
896.47	5299.5	
896.63	5299.5	
896.8	5299.5	
896.96	5299.5	
897.13	5299.5	
897.29	5299.5	
897.46	5299.5	
897.62	5299.5	
897.79	5299.5	
897.95	5299.5	
898.12	5299.5	
898.28	5299.5	
898.45	5299.5	
898.61	5299.5	
898.78	5299.5	
898.94	5299.5	
899.11	5299.5	
899.27	5299.5	
899.44	5299.5	
899.6	5299.5	
899.77	5299.5	
899.93	5299.5	
900.1	5299.5	
900.26	5299.5	
900.43	5299.5	
900.59	5299.5	
900.76	5299.5	
900.92	5299.5	
901.09	5299.5	
901.25	5299.5	
901.42	5299.5	
901.58	5299.5	
901.75	5299.5	
901.91	5299.5	
902.07	5299.5	
902.24	5299.5	
902.4	5299.5	
902.57	5299.5	
902.73	5299.5	
902.9	5299.5	
903.06	5299.5	
903.23	5299.5	
903.39	5299.5	
903.56	5299.5	
903.72	5299.5	
903.88	5299.5	
904.05	5299.5	
904.21	5299.5	
904.38	5299.5	
904.54	5299.5	
904.71	5299.5	
904.87	5299.5	
905.03	5299.5	
905.2	5299.5	
905.36	5299.5	
905.53	5299.5	
905.69	5299.5	
905.86	5299.5	
906.02	5299.5	
906.18	5299.5	
906.35	5299.5	
906.51	5299.5	
906.68	5299.5	
906.84	5299.5	
907.01	5299.5	
907.17	5299.5	
907.33	5299.5	
907.5	5299.5	
907.66	5299.5	
907.83	5299.5	
907.99	5299.5	
908.15	5299.5	
908.32	5299.5	
908.48	5299.5	
908.65	5299.5	
908.81	5299.5	
908.97	5299.5	
909.14	5299.5	
909.3	5299.5	
909.47	5299.5	
909.63	5299.5	
909.79	5299.5	
909.96	5299.5	
910.12	5299.5	
910.28	5299.5	
910.45	5299.5	
910.61	5299.5	
910.78	5299.5	
910.94	5299.5	
911.1	5299.5	
911.27	5299.5	
911.43	5299.5	
911.59	5299.5	
911.76	5299.5	
911.92	5299.5	
912.08	5299.5	
912.25	5299.5	
912.41	5299.5	
912.57	5299.5	
912.74	5299.5	
912.9	5299.5	
913.07	5299.5	
913.23	5299.5	
913.39	5299.5	
913.56	5299.5	
913.72	5299.5	
913.88	5299.5	
914.05	5299.5	
914.21	5299.5	
914.37	5299.5	
914.54	5299.5	
914.7	5299.5	
914.86	5299.5	
915.03	5299.5	
915.19	5299.5	
