Wavelength	Intensities	
nm	a.u.	
179.22	1895.6	
179.44	1894.7	
179.65	1896.4	
179.86	1893	
180.08	1909.4	
180.29	4866.7	
180.51	3461.1	
180.72	5625.8	
180.94	6576	
181.15	3220.8	
181.37	3168.2	
181.58	5484.5	
181.79	5801.9	
182.01	3375.7	
182.22	3609.9	
182.44	5810.8	
182.65	4842.8	
182.87	4534.9	
183.08	4003.8	
183.29	6037.4	
183.51	4992.3	
183.72	3680.9	
183.94	5324.7	
184.15	5389.6	
184.37	5382.7	
184.58	3243.3	
184.79	4387.4	
185.01	4973.2	
185.22	5752.7	
185.44	4652.3	
185.65	3887.7	
185.86	5264	
186.08	4917.9	
186.29	3085.6	
186.51	3331.4	
186.72	5013.4	
186.94	5944.6	
187.15	3892.5	
187.36	4008.6	
187.58	7754.3	
187.79	5511.1	
188.01	4230.4	
188.22	6524.1	
188.43	6566.5	
188.65	5806	
188.86	3285.6	
189.08	4021.5	
189.29	5205.9	
189.5	5160.2	
189.72	3751.9	
189.93	3839.3	
190.15	5952.8	
190.36	7135.1	
190.57	4115.1	
190.79	3984	
191	6082.5	
191.22	6029.9	
191.43	4102.1	
191.64	3340.9	
191.86	6284.5	
192.07	5986.2	
192.29	3546.4	
192.5	3725.3	
192.71	6012.2	
192.93	5115.8	
193.14	3733.4	
193.35	3801	
193.57	5158.2	
193.78	5945.9	
194	3025.5	
194.21	3637.2	
194.42	4948.6	
194.64	5409.4	
194.85	3975.8	
195.07	4766.3	
195.28	5414.1	
195.49	4693.3	
195.71	4903.5	
195.92	3436.5	
196.13	5625.8	
196.35	5686.5	
196.56	5350.7	
196.78	3995.6	
196.99	7009.5	
197.2	6516.6	
197.42	4595	
197.63	4010.6	
197.84	4805.9	
198.06	5620.3	
198.27	3699.3	
198.48	4969.1	
198.7	5148.6	
198.91	5369.8	
199.13	3990.1	
199.34	4104.1	
199.55	5810.1	
199.77	4732.9	
199.98	3576.4	
200.19	4101.4	
200.41	5263.3	
200.62	4977.9	
200.83	4190.1	
201.05	4584	
201.26	5310.4	
201.47	5074.9	
201.69	3608.5	
201.9	3431	
202.11	5393	
202.33	6395.8	
202.54	3876.1	
202.76	4300.1	
202.97	5521.3	
203.18	5575.9	
203.4	4289.8	
203.61	4122.6	
203.82	5448.3	
204.04	5039.4	
204.25	4093.9	
204.46	4034.5	
204.68	5425.8	
204.89	5628.5	
205.1	3979.9	
205.32	3420.8	
205.53	5821.7	
205.74	5990.3	
205.96	2896.5	
206.17	4161.5	
206.38	5791.7	
206.6	5943.9	
206.81	4693.9	
207.02	3762.8	
207.24	5649.7	
207.45	6025.8	
207.66	3898	
207.88	3308.2	
208.09	5640.8	
208.3	5421.7	
208.52	3515.7	
208.73	3870.7	
208.94	5424.4	
209.15	6078.4	
209.37	3877.5	
209.58	4049.5	
209.79	5896.8	
210.01	5217.5	
210.22	3114.3	
210.43	3402.4	
210.65	5431.9	
210.86	5870.8	
211.07	3871.3	
211.29	3511.6	
211.5	5726.8	
211.71	5365	
211.93	3557.3	
212.14	3543.7	
212.35	5350	
212.56	5588.9	
212.78	4138.9	
212.99	3357.3	
213.2	6378.1	
213.42	5184.1	
213.63	3670	
213.84	3940.3	
214.06	4827.7	
214.27	4863.9	
214.48	3867.9	
214.69	4125.3	
214.91	6041.5	
215.12	6113.2	
215.33	4121.2	
215.55	4610.7	
215.76	6648.4	
215.97	5715.2	
216.18	4011.3	
216.4	3876.1	
216.61	5111.7	
216.82	5924.8	
217.04	3552.5	
217.25	3730.7	
217.46	6102.3	
217.67	5764.3	
217.89	3144.3	
218.1	3279.5	
218.31	5516.5	
218.53	5567.7	
218.74	3717.1	
218.95	3611.9	
219.16	5371.8	
219.38	6383.5	
219.59	3620.8	
219.8	4345.8	
220.01	6975.4	
220.23	5445.5	
220.44	4762.9	
220.65	3538.9	
220.87	5429.8	
221.08	6064	
221.29	3303.4	
221.5	4456.4	
221.72	7376.1	
221.93	5120.6	
222.14	4136.2	
222.35	4814.8	
222.57	5429.2	
222.78	5753.4	
222.99	3900.7	
223.2	4173.8	
223.42	5717.2	
223.63	5881.8	
223.84	3009.1	
224.05	2942.2	
224.27	6920.1	
224.48	6321.4	
224.69	4774.5	
224.9	4046.1	
225.12	5632.6	
225.33	5382.1	
225.54	3263.8	
225.75	3605.1	
225.97	5009.3	
226.18	5244.2	
226.39	3919.8	
226.6	3628.3	
226.82	5143.8	
227.03	4996.4	
227.24	4006.5	
227.45	3342.3	
227.67	5782.1	
227.88	6368.5	
228.09	4554.7	
228.3	4478.9	
228.52	5900.2	
228.73	5406	
228.94	3777.8	
229.15	3342.3	
229.36	5345.2	
229.58	5218.9	
229.79	3808.5	
230	4430.4	
230.21	6500.9	
230.43	5527.5	
230.64	4057.7	
230.85	4169.7	
231.06	5784.1	
231.28	5823.7	
231.49	3360.7	
231.7	3994.9	
231.91	5745.2	
232.12	5412.1	
232.34	3420.8	
232.55	3876.1	
232.76	6027.2	
232.97	5581.4	
233.18	3564.8	
233.4	4038.6	
233.61	5631.9	
233.82	5185.5	
234.03	3700.7	
234.25	3626.3	
234.46	7570	
234.67	5455.8	
234.88	4145.8	
235.09	3564.1	
235.31	5715.9	
235.52	5283.8	
235.73	4007.9	
235.94	3438.5	
236.15	5141.8	
236.37	6587	
236.58	3532.7	
236.79	3962.1	
237	5695.4	
237.21	4982.7	
237.43	4132.8	
237.64	3253.5	
237.85	9863	
238.06	5008	
238.27	4329.4	
238.48	3364.8	
238.7	5729.5	
238.91	5268.1	
239.12	3847.5	
239.33	3882.9	
239.54	5029.8	
239.76	5365	
239.97	3900.7	
240.18	3857.7	
240.39	6815.6	
240.6	5656.5	
240.82	4016.1	
241.03	3325.9	
241.24	5390.9	
241.45	6278.4	
241.66	3538.9	
241.87	4171	
242.09	6174.6	
242.3	6529.6	
242.51	4229.7	
242.72	3909.6	
242.93	5933.6	
243.14	5369.8	
243.36	4504.2	
243.57	4872.8	
243.78	6264.1	
243.99	5747.3	
244.2	3938.2	
244.41	3503.4	
244.63	5005.9	
244.84	5758.2	
245.05	4166.9	
245.26	3922.5	
245.47	5756.2	
245.68	5952.1	
245.9	5188.9	
246.11	4093.9	
246.32	5218.2	
246.53	5641.5	
246.74	6360.3	
246.95	3274	
247.16	4917.9	
247.38	5398.4	
247.59	3214.6	
247.8	3971.7	
248.01	5083.7	
248.22	5332.2	
248.43	3518.4	
248.64	3821.5	
248.86	4797.7	
249.07	5190.9	
249.28	3465.2	
249.49	3988.8	
249.7	5983.5	
249.91	6109.8	
250.12	3261	
250.34	3344.3	
250.55	5537.7	
250.76	5401.9	
250.97	4000.4	
251.18	4122.6	
251.39	6119.3	
251.6	5631.9	
251.81	4171	
252.03	4123.2	
252.24	5098.1	
252.45	5927.5	
252.66	3405.1	
252.87	4323.9	
253.08	5466	
253.29	7143.3	
253.5	3353.2	
253.72	4737.6	
253.93	5274.9	
254.14	6478.4	
254.35	3634.5	
254.56	3790.1	
254.77	5634.6	
254.98	5021.6	
255.19	3651.5	
255.41	4749.2	
255.62	5478.3	
255.83	6089.3	
256.04	4229.7	
256.25	4100.7	
256.46	6675	
256.67	5103.5	
256.88	3982.6	
257.09	4467.3	
257.31	5104.9	
257.52	5133.6	
257.73	5096.7	
257.94	3651.5	
258.15	5281.7	
258.36	5430.5	
258.57	4669.4	
258.78	2964.1	
258.99	5889.3	
259.2	5218.2	
259.41	3710.9	
259.63	3809.9	
259.84	6234	
260.05	6715.3	
260.26	4910.3	
260.47	3601.7	
260.68	5991.7	
260.89	5321.3	
261.1	4559.5	
261.31	3562.8	
261.52	6056.5	
261.73	6356.2	
261.95	4820.2	
262.16	4252.3	
262.37	6119.3	
262.58	6176	
262.79	4811.4	
263	3807.9	
263.21	5423	
263.42	4983.4	
263.63	3824.2	
263.84	3709.6	
264.05	6019.7	
264.26	6371.9	
264.47	4667.3	
264.69	4192.2	
264.9	6169.8	
265.11	5610.8	
265.32	3579.2	
265.53	3636.5	
265.74	5514.5	
265.95	4790.2	
266.16	3964.9	
266.37	4420.9	
266.58	5535.7	
266.79	5212.8	
267	3650.8	
267.21	3387.3	
267.42	4943.1	
267.63	5391.6	
267.84	3892.5	
268.06	3322.5	
268.27	5844.2	
268.48	6206.7	
268.69	3796.3	
268.9	4514.4	
269.11	6067.4	
269.32	4883.7	
269.53	3954.6	
269.74	3599	
269.95	5721.3	
270.16	4737.6	
270.37	3859.7	
270.58	4521.9	
270.79	5318.6	
271	5912.5	
271.21	4115.7	
271.42	3936.9	
271.63	5567.7	
271.84	5031.9	
272.05	3090.4	
272.26	3487	
272.47	5446.9	
272.68	5582.1	
272.89	3703.4	
273.11	4293.2	
273.32	5236	
273.53	6340.5	
273.74	4137.6	
273.95	4123.9	
274.16	6030.6	
274.37	5504.9	
274.58	4284.4	
274.79	3386	
275	5560.2	
275.21	6051.1	
275.42	5153.4	
275.63	4407.9	
275.84	5661.3	
276.05	7196.6	
276.26	4207.9	
276.47	3806.5	
276.68	5268.7	
276.89	6442.9	
277.1	4405.2	
277.31	3424.2	
277.52	5651.7	
277.73	5885.9	
277.94	3332.7	
278.15	3768.9	
278.36	5575.3	
278.57	5082.4	
278.78	3741	
278.99	4228.4	
279.2	5074.9	
279.41	5055.1	
279.62	4937.7	
279.83	3457	
280.04	6602.7	
280.25	4924	
280.46	4844.1	
280.67	3916.4	
280.88	5029.8	
281.09	6132.3	
281.3	4078.9	
281.51	5190.2	
281.72	5171.8	
281.93	5921.4	
282.14	3652.2	
282.35	3945.8	
282.56	5928.2	
282.77	5890	
282.98	3756.7	
283.19	4622.3	
283.4	7270.3	
283.61	5367.7	
283.82	3359.4	
284.03	4876.2	
284.24	5472.2	
284.45	6079.1	
284.66	4812	
284.87	4671.4	
285.08	5993	
285.29	6183.5	
285.5	3349.1	
285.71	3795.6	
285.92	5986.2	
286.12	6673	
286.33	4735.6	
286.54	3836.5	
286.75	5961.6	
286.96	5274.2	
287.17	3445.4	
287.38	4726.7	
287.59	5033.2	
287.8	5005.9	
288.01	3779.9	
288.22	4403.1	
288.43	5922.7	
288.64	4956.8	
288.85	4578.6	
289.06	4302.1	
289.27	5917.9	
289.48	6416.3	
289.69	4872.8	
289.9	4392.2	
290.11	6115.9	
290.32	5194.3	
290.53	4547.2	
290.74	4256.4	
290.94	5861.3	
291.15	5870.2	
291.36	3674.7	
291.57	4372.4	
291.78	5186.8	
291.99	4843.4	
292.2	3518.4	
292.41	4218.8	
292.62	5986.2	
292.83	5751.4	
293.04	5282.4	
293.25	3539.6	
293.46	5251.7	
293.67	5961.6	
293.88	3685.7	
294.09	3465.2	
294.29	4987.5	
294.5	5529.5	
294.71	3928.7	
294.92	3756.7	
295.13	5201.8	
295.34	6505.7	
295.55	3303.4	
295.76	3220.8	
295.97	5862	
296.18	6560.3	
296.39	3469.3	
296.6	3654.9	
296.81	5567.7	
297.01	5810.8	
297.22	3836.5	
297.43	3633.1	
297.64	5046.9	
297.85	5038	
298.06	3016.7	
298.27	3286.3	
298.48	5452.4	
298.69	5125.4	
298.9	3942.3	
299.11	3577.1	
299.31	4982	
299.52	4996.4	
299.73	4282.3	
299.94	4195.6	
300.15	5439.4	
300.36	5072.1	
300.57	4184	
300.78	4128.7	
300.99	5275.6	
301.2	5528.2	
301.4	3635.1	
301.61	3977.8	
301.82	5803.9	
302.03	5844.2	
302.24	4399.7	
302.45	3492.5	
302.66	5743.2	
302.87	6237.4	
303.08	3697.9	
303.29	4947.2	
303.49	5223	
303.7	5464	
303.91	3259.7	
304.12	4771.8	
304.33	4934.2	
304.54	5586.9	
304.75	3671.3	
304.96	3472	
305.16	5771.9	
305.37	6528.2	
305.58	3202.3	
305.79	3347.1	
306	5766.4	
306.21	4848.2	
306.42	3708.9	
306.63	5568.4	
306.83	5263.3	
307.04	6128.2	
307.25	4019.5	
307.46	4032.5	
307.67	4687.1	
307.88	5879	
308.09	3559.4	
308.29	3809.2	
308.5	5530.9	
308.71	6016.9	
308.92	3919.1	
309.13	3489.7	
309.34	5384.1	
309.55	5372.5	
309.75	4545.1	
309.96	4175.8	
310.17	5876.3	
310.38	5147.9	
310.59	4441.4	
310.8	3413.3	
311.01	5318.6	
311.21	5317.9	
311.42	3478.1	
311.63	3612.6	
311.84	5189.6	
312.05	5584.1	
312.26	4076.8	
312.46	4468.7	
312.67	5301.5	
312.88	5014.1	
313.09	3587.4	
313.3	3455.6	
313.51	6315.9	
313.71	6613.6	
313.92	3485.6	
314.13	3819.5	
314.34	5543.9	
314.55	5422.3	
314.76	4589.5	
314.96	3956	
315.17	5517.9	
315.38	5850.4	
315.59	3537.5	
315.8	3405.1	
316.01	6348.7	
316.21	6371.9	
316.42	3439.9	
316.63	3953.3	
316.84	5328.1	
317.05	6230.6	
317.26	4192.9	
317.46	3721.8	
317.67	5354.8	
317.88	5816.2	
318.09	4502.8	
318.3	3250.8	
318.5	5135.6	
318.71	5758.9	
318.92	5759.6	
319.13	4193.6	
319.34	5879.7	
319.54	6033.3	
319.75	3313.6	
319.96	3132.7	
320.17	5851.7	
320.38	5977.3	
320.58	3272	
320.79	3938.2	
321	5933	
321.21	6193.1	
321.42	3885	
321.62	3261	
321.83	5057.8	
322.04	5415.5	
322.25	3698.6	
322.46	3545.7	
322.66	5635.3	
322.87	5646.9	
323.08	4405.9	
323.29	3519.1	
323.5	6548.7	
323.7	4966.3	
323.91	4831.8	
324.12	4334.2	
324.33	5514.5	
324.53	5774.6	
324.74	4232.5	
324.95	4401.1	
325.16	4823.6	
325.37	5266	
325.57	3562.1	
325.78	3672.7	
325.99	5509	
326.2	4861.9	
326.4	5077.6	
326.61	3267.2	
326.82	5374.6	
327.03	5621.7	
327.24	5035.3	
327.44	4775.9	
327.65	5713.8	
327.86	4635.9	
328.07	4197.7	
328.27	3405.8	
328.48	6079.7	
328.69	4977.2	
328.9	5130.2	
329.1	3801	
329.31	5334.3	
329.52	6242.2	
329.73	3534.8	
329.93	4020.2	
330.14	5431.2	
330.35	5695.4	
330.56	5868.1	
330.76	4412.7	
330.97	5292	
331.18	5646.9	
331.39	3967.6	
331.59	3205.8	
331.8	6005.3	
332.01	6127.5	
332.22	3635.8	
332.42	4179.2	
332.63	5602.6	
332.84	5126.1	
333.05	3978.5	
333.25	3631.7	
333.46	5198.4	
333.67	5446.2	
333.88	3749.1	
334.08	4149.2	
334.29	7266.9	
334.5	6034.7	
334.7	3440.6	
334.91	5075.5	
335.12	4958.1	
335.33	5883.8	
335.53	3919.1	
335.74	5840.8	
335.95	5281.7	
336.16	5061.2	
336.36	3958	
336.57	4502.8	
336.78	4963.6	
336.98	6017.6	
337.19	4823.6	
337.4	3875.4	
337.61	6576	
337.81	4984.8	
338.02	3652.2	
338.23	4719.9	
338.43	6160.3	
338.64	5100.8	
338.85	3547.1	
339.05	4773.1	
339.26	6257.9	
339.47	4887.8	
339.68	3603.1	
339.88	5340.4	
340.09	5671.5	
340.3	5909.1	
340.5	4162.8	
340.71	3179.8	
340.92	4908.3	
341.13	6153.5	
341.33	3416.7	
341.54	4230.4	
341.75	5620.3	
341.95	5294.7	
342.16	3975.1	
342.37	4300.7	
342.57	5027.1	
342.78	5381.4	
342.99	4395.6	
343.19	3167.5	
343.4	5870.8	
343.61	5715.2	
343.81	3842.7	
344.02	3485	
344.23	5860.6	
344.43	6309.8	
344.64	4472.8	
344.85	4315.1	
345.06	5687.9	
345.26	6049	
345.47	4108.9	
345.68	4825.7	
345.88	4797	
346.09	5881.1	
346.3	4202.4	
346.5	3177.1	
346.71	5426.4	
346.92	5193.6	
347.12	3262.4	
347.33	4110.3	
347.54	6005.3	
347.74	6382.8	
347.95	4116.4	
348.16	3046.7	
348.36	5215.5	
348.57	4922.6	
348.78	4070.7	
348.98	4403.1	
349.19	5361.6	
349.39	4931.5	
349.6	3274.7	
349.81	3648.1	
350.01	5682.4	
350.22	5126.1	
350.43	3870	
350.63	4767	
350.84	5468.1	
351.05	5246.2	
351.25	3529.3	
351.46	3281.5	
351.67	5999.2	
351.87	5168.4	
352.08	3810.6	
352.29	4363.5	
352.49	5808	
352.7	6027.9	
352.9	3485.6	
353.11	4292.5	
353.32	6617	
353.52	5276.9	
353.73	3467.2	
353.94	4329.4	
354.14	5734.3	
354.35	5511.8	
354.55	3568.2	
354.76	3916.4	
354.97	5695.4	
355.17	5485.8	
355.38	3289	
355.59	4653	
355.79	5100.1	
356	5532.2	
356.2	3889.1	
356.41	3433.1	
356.62	4798.4	
356.82	5362.9	
357.03	4217.5	
357.24	3748.5	
357.44	5100.8	
357.65	5276.9	
357.85	5124.7	
358.06	3966.2	
358.27	4867.3	
358.47	5094.7	
358.68	3293.8	
358.88	4134.8	
359.09	5685.2	
359.3	6078.4	
359.5	4896	
359.71	4369	
359.91	6617.7	
360.12	5843.5	
360.33	4220.9	
360.53	4685.8	
360.74	5110.4	
360.94	5184.1	
361.15	4367	
361.36	3583.9	
361.56	5910.4	
361.77	5399.1	
361.97	4936.3	
362.18	3835.2	
362.38	5942.5	
362.59	4965.6	
362.8	3525.2	
363	3351.2	
363.21	4809.3	
363.41	5432.6	
363.62	4081.6	
363.83	5133.6	
364.03	5530.9	
364.24	6558.3	
364.44	5213.4	
364.65	5035.3	
364.85	5311.7	
365.06	5215.5	
365.27	3718.4	
365.47	3790.8	
365.68	6342.6	
365.88	5307	
366.09	4143	
366.29	3842.7	
366.5	5579.3	
366.71	6025.8	
366.91	5101.5	
367.12	4334.2	
367.32	6627.2	
367.53	5870.8	
367.73	4251.6	
367.94	5230.5	
368.14	5827.2	
368.35	6727.6	
368.56	4268	
368.76	3646.7	
368.97	5956.2	
369.17	7659.4	
369.38	3728.7	
369.58	4044.1	
369.79	4977.2	
369.99	6326.9	
370.2	5021.6	
370.4	4164.2	
370.61	5671.5	
370.82	6810.9	
371.02	4061.8	
371.23	3345.7	
371.43	4876.2	
371.64	6246.3	
371.84	4042	
372.05	5347.9	
372.25	7531.1	
372.46	5969.8	
372.66	4058.4	
372.87	4034.5	
373.07	6083.8	
373.28	7658.7	
373.48	5048.9	
373.69	4737.6	
373.9	5481.7	
374.1	5537.7	
374.31	5078.3	
374.51	4539.7	
374.72	6326.9	
374.92	5194.3	
375.13	5190.2	
375.33	4448.9	
375.54	5932.3	
375.74	5344.5	
375.95	4444.8	
376.15	5750.7	
376.36	5978.7	
376.56	5721.3	
376.77	4552	
376.97	4989.5	
377.18	6978.1	
377.38	6056.5	
377.59	5376.6	
377.79	3984.7	
378	5806.7	
378.2	6314.6	
378.41	4076.1	
378.61	4042.7	
378.82	6346.7	
379.02	5451.7	
379.23	4252.3	
379.43	5382.1	
379.64	6391.7	
379.84	6124.1	
380.05	4056.3	
380.25	4042	
380.46	6112.5	
380.66	5672.2	
380.87	5421	
381.07	5786.9	
381.28	6682.5	
381.48	6094.8	
381.69	4165.6	
381.89	4197.7	
382.1	5068	
382.3	6332.3	
382.51	5221.6	
382.71	6105.7	
382.91	6123.4	
383.12	6631.3	
383.32	4484.4	
383.53	4689.2	
383.73	5909.1	
383.94	5732.3	
384.14	4586.8	
384.35	3743.7	
384.55	5610.8	
384.76	6103.6	
384.96	4421.6	
385.17	4737	
385.37	6107.7	
385.58	5302.2	
385.78	4866.7	
385.98	3684.3	
386.19	5632.6	
386.39	5961	
386.6	4227.7	
386.8	4540.3	
387.01	6075	
387.21	6097.5	
387.42	4933.6	
387.62	5460.6	
387.83	5429.2	
388.03	6111.8	
388.23	4502.8	
388.44	5347.9	
388.64	5129.5	
388.85	5274.9	
389.05	4932.9	
389.26	5550.7	
389.46	6870.9	
389.67	6510.5	
389.87	4846.2	
390.07	4918.5	
390.28	5755.5	
390.48	5316.5	
390.69	4112.3	
390.89	4405.9	
391.1	5603.2	
391.3	6417	
391.5	5602.6	
391.71	6236.7	
391.91	6206	
392.12	7253.2	
392.32	5715.2	
392.53	4898.7	
392.73	5610.1	
392.93	5745.2	
393.14	4584	
393.34	5513.1	
393.55	6264.7	
393.75	5722.7	
393.95	4614.8	
394.16	4543.8	
394.36	5572.5	
394.57	6181.5	
394.77	4085	
394.98	4487.8	
395.18	5519.3	
395.38	5718.6	
395.59	5408.7	
395.79	4324.6	
396	5659.9	
396.2	6113.9	
396.4	5317.9	
396.61	5125.4	
396.81	6333	
397.02	5689.9	
397.22	5464.7	
397.42	5492	
397.63	6340.5	
397.83	5541.8	
398.04	4314.4	
398.24	4871.4	
398.44	6093.4	
398.65	5206.6	
398.85	4153.3	
399.05	4293.9	
399.26	5569.1	
399.46	7283.3	
399.67	4707.6	
399.87	4412.7	
400.07	5964.4	
400.28	6331	
400.48	4529.4	
400.69	5607.3	
400.89	6571.2	
401.09	6977.4	
401.3	4434.5	
401.5	5492	
401.7	7283.3	
401.91	7452.6	
402.11	4790.2	
402.32	4936.3	
402.52	6537.8	
402.72	6404	
402.93	5154.7	
403.13	3956.7	
403.33	7182.9	
403.54	5940.5	
403.74	4863.2	
403.94	5769.8	
404.15	6062	
404.35	7232.1	
404.56	4627.7	
404.76	6545.3	
404.96	6513.9	
405.17	6258.6	
405.37	5903.6	
405.57	5134.9	
405.78	6548	
405.98	6023.8	
406.18	4685.1	
406.39	5599.1	
406.59	6548.7	
406.79	6179.4	
407	4471.4	
407.2	4624.3	
407.4	6551.5	
407.61	6778.8	
407.81	4659.8	
408.01	6909.2	
408.22	5600.5	
408.42	7724.9	
408.62	5744.6	
408.83	5264.6	
409.03	6311.8	
409.23	6141.9	
409.44	5430.5	
409.64	5685.8	
409.84	7196.6	
410.05	7167.9	
410.25	5564.3	
410.45	5284.4	
410.66	6688	
410.86	9135.3	
411.06	5802.6	
411.27	5642.8	
411.47	8913.4	
411.67	6860	
411.88	5908.4	
412.08	6204	
412.28	7458.7	
412.49	8011.7	
412.69	5659.2	
412.89	5640.1	
413.09	7829.4	
413.3	7652.6	
413.5	5745.2	
413.7	5338.4	
413.91	6972	
414.11	7806.9	
414.31	5612.8	
414.52	6072.9	
414.72	7477.1	
414.92	7442.3	
415.12	5597.8	
415.33	6141.2	
415.53	7767.9	
415.73	8040.3	
415.94	6487.3	
416.14	5948.7	
416.34	6751.5	
416.55	6607.4	
416.75	7124.9	
416.95	6535.8	
417.15	7797.3	
417.36	8503.8	
417.56	7417.1	
417.76	6382.8	
417.97	8187.1	
418.17	7848.5	
418.37	5958.9	
418.57	6067.4	
418.78	7598.6	
418.98	7380.2	
419.18	6895.5	
419.38	6903	
419.59	7372	
419.79	6974.7	
419.99	5847.6	
420.2	6263.4	
420.4	7925.6	
420.6	7972.1	
420.8	5833.3	
421.01	5670.8	
421.21	7684	
421.41	7849.2	
421.61	6178	
421.82	5857.9	
422.02	7085.3	
422.22	8090.8	
422.42	6754.2	
422.63	6298.2	
422.83	7337.9	
423.03	8449.9	
423.23	6365.8	
423.44	5298.1	
423.64	7315.3	
423.84	7025.9	
424.04	5780.7	
424.25	5454.4	
424.45	8277.9	
424.65	8262.2	
424.85	5201.2	
425.06	5763	
425.26	8201.4	
425.46	7178.1	
425.66	6324.8	
425.87	5973.2	
426.07	7967.3	
426.27	7840.3	
426.47	6141.9	
426.67	5462.6	
426.88	8282	
427.08	7636.2	
427.28	6358.3	
427.48	5470.8	
427.69	6598.6	
427.89	7328.3	
428.09	6315.3	
428.29	5399.8	
428.5	8036.9	
428.7	7542	
428.9	5343.8	
429.1	5904.3	
429.3	7481.9	
429.51	7834.2	
429.71	5695.4	
429.91	6437.4	
430.11	7688.8	
430.31	8028	
430.52	5976.7	
430.72	6336.4	
430.92	8364.6	
431.12	7780.9	
431.32	5687.9	
431.53	6078.4	
431.73	6627.9	
431.93	8430.1	
432.13	5571.2	
432.33	5507	
432.54	7193.1	
432.74	7591.1	
432.94	5416.9	
433.14	6522.1	
433.34	7746.8	
433.55	7318.8	
433.75	6488	
433.95	8174.8	
434.15	7587.7	
434.35	7286	
434.56	5693.4	
434.76	5250.3	
434.96	7521.5	
435.16	7842.4	
435.36	5582.1	
435.56	6735.1	
435.77	7240.3	
435.97	7365.9	
436.17	7420.5	
436.37	6655.9	
436.57	7268.2	
436.78	7143.3	
436.98	8294.3	
437.18	7275.1	
437.38	7950.9	
437.58	7381.6	
437.78	7432.8	
437.99	5871.5	
438.19	7854	
438.39	8630.8	
438.59	5896.8	
438.79	5397.8	
438.99	8599.4	
439.2	7376.8	
439.4	5498.1	
439.6	5481.7	
439.8	7705.1	
440	8839.7	
440.2	6617	
440.4	6698.2	
440.61	8135.2	
440.81	8699.1	
441.01	5834	
441.21	6695.5	
441.41	8566	
441.61	8096.3	
441.81	6968.6	
442.02	8060.1	
442.22	9032.9	
442.42	8275.2	
442.62	5905	
442.82	5875.6	
443.02	8562.6	
443.22	7696.9	
443.43	6397.2	
443.63	5928.9	
443.83	7449.1	
444.03	7527.7	
444.23	7157	
444.43	6730.3	
444.63	7848.5	
444.83	9057.5	
445.04	5984.8	
445.24	7265.5	
445.44	8197.3	
445.64	8277.2	
445.84	6766.5	
446.04	6804	
446.24	7507.2	
446.44	8458.8	
446.65	5895.4	
446.85	6364.4	
447.05	7498.3	
447.25	8443.1	
447.45	6442.2	
447.65	5847	
447.85	7905.2	
448.05	7468.9	
448.25	6787.7	
448.46	6677.7	
448.66	7819.8	
448.86	7539.3	
449.06	5600.5	
449.26	6877.1	
449.46	8180.3	
449.66	7239.6	
449.86	6382.8	
450.06	6238.1	
450.26	7397.3	
450.47	8051.9	
450.67	6609.5	
450.87	7031.4	
451.07	8092.9	
451.27	7892.2	
451.47	5879	
451.67	6462	
451.87	7440.3	
452.07	8736	
452.27	6212.9	
452.47	6130.3	
452.67	7829.4	
452.88	8516.1	
453.08	5530.2	
453.28	7538.6	
453.48	9106.6	
453.68	7792.5	
453.88	6001.2	
454.08	6283.2	
454.28	8249.2	
454.48	7938.6	
454.68	6894.1	
454.88	7415.7	
455.08	8363.2	
455.28	8066.3	
455.48	5981.4	
455.68	6656.6	
455.89	9039.7	
456.09	8452.6	
456.29	6307.1	
456.49	6406.7	
456.69	8780.3	
456.89	7903.8	
457.09	6926.2	
457.29	7370	
457.49	8400.8	
457.69	8520.2	
457.89	6830	
458.09	6126.8	
458.29	8100.4	
458.49	8953	
458.69	7217	
458.89	6609.5	
459.09	9157.2	
459.29	9250.7	
459.49	6683.2	
459.69	7559.1	
459.9	8699.8	
460.1	8178.2	
460.3	6604.7	
460.5	6412.9	
460.7	8598.1	
460.9	8375.5	
461.1	6131.6	
461.3	7453.2	
461.5	9305.3	
461.7	8956.4	
461.9	6555.5	
462.1	7058	
462.3	8417.2	
462.5	9034.3	
462.7	6694.8	
462.9	6745.3	
463.1	10060	
463.3	9787.9	
463.5	6904.4	
463.7	7910.6	
463.9	8688.2	
464.1	9071.1	
464.3	7128.3	
464.5	7363.8	
464.7	9347.6	
464.9	9045.9	
465.1	8734.6	
465.3	7671.7	
465.5	9714.9	
465.7	9605	
465.9	7998	
466.1	7742.7	
466.3	9597.5	
466.5	9288.2	
466.7	8703.2	
466.9	7568.6	
467.1	9251.4	
467.3	10304	
467.5	8678.6	
467.7	7527.7	
467.9	10469	
468.1	11417	
468.3	8239.7	
468.5	8720.9	
468.7	9268.4	
468.9	9198.1	
469.1	7846.5	
469.3	8595.3	
469.5	11267	
469.7	8912.8	
469.9	8291.5	
470.1	7542.7	
470.3	9267.7	
470.5	9297.1	
470.7	8858.1	
470.9	7570	
471.1	9086.8	
471.3	9387.9	
471.5	7499.7	
471.69	9414.5	
471.89	8961.9	
472.09	8285.4	
472.29	8273.1	
472.49	8645.8	
472.69	8649.9	
472.89	9445.2	
473.09	7357.7	
473.29	7484.6	
473.49	8709.3	
473.69	8971.5	
473.89	8345.5	
474.09	7587	
474.29	10196	
474.49	9921	
474.69	8292.9	
474.89	7744.1	
475.09	9000.1	
475.29	8919.6	
475.49	7072.3	
475.69	7390.4	
475.88	10529	
476.08	9163.3	
476.28	7053.9	
476.48	7499.7	
476.68	9624.1	
476.88	9414.5	
477.08	7295.5	
477.28	7682.6	
477.48	8963.3	
477.68	9654.8	
477.88	7137.9	
478.08	7404.8	
478.28	10002	
478.48	9084.1	
478.67	7539.9	
478.87	6943.3	
479.07	9837.1	
479.27	9139.4	
479.47	7757.7	
479.67	7718.1	
479.87	9607	
480.07	10041	
480.27	7049.1	
480.47	8621.3	
480.67	9212.4	
480.87	9929.9	
481.06	7308.5	
481.26	8142	
481.46	9155.8	
481.66	9096.4	
481.86	7679.9	
482.06	8854.1	
482.26	8809.7	
482.46	9802.9	
482.66	7620.5	
482.86	7277.8	
483.05	9164	
483.25	8567.3	
483.45	10112	
483.65	7662.8	
483.85	8789.9	
484.05	9124.4	
484.25	8144.8	
484.45	8621.3	
484.65	10049	
484.84	10090	
485.04	7600	
485.24	7578.2	
485.44	10221	
485.64	8483.4	
485.84	6923.5	
486.04	8366	
486.24	8951.7	
486.44	9420	
486.63	6917.4	
486.83	7683.3	
487.03	8938.7	
487.23	9203.6	
487.43	6952.9	
487.63	9480	
487.83	9188.6	
488.02	10220	
488.22	8122.9	
488.42	8690.2	
488.62	10030	
488.82	8924.4	
489.02	7642.3	
489.22	7789.1	
489.41	9863	
489.61	9646.6	
489.81	7448.5	
490.01	7449.8	
490.21	9914.9	
490.41	10531	
490.61	7420.5	
490.8	7537.2	
491	9375.6	
491.2	8660.2	
491.4	8088.8	
491.6	7175.4	
491.8	9300.5	
491.99	9521.7	
492.19	7055.9	
492.39	7471	
492.59	9830.2	
492.79	9871.9	
492.99	8333.9	
493.18	7448.5	
493.38	9985.9	
493.58	10878	
493.78	8247.2	
493.98	7875.8	
494.18	9820	
494.37	9173.5	
494.57	8566.7	
494.77	8377.6	
494.97	10045	
495.17	10182	
495.37	8003.5	
495.56	8323.6	
495.76	10542	
495.96	10187	
496.16	9312.8	
496.36	8145.5	
496.55	10315	
496.75	9906.7	
496.95	8526.4	
497.15	8405.5	
497.35	10347	
497.54	10250	
497.74	8101.8	
497.94	9925.1	
498.14	11006	
498.34	10903	
498.53	7868.3	
498.73	8704.5	
498.93	9635.7	
499.13	10359	
499.33	8525	
499.52	9139.4	
499.72	10370	
499.92	10560	
500.12	8206.2	
500.32	8484.7	
500.51	10622	
500.71	10398	
500.91	9285.5	
501.11	8889.5	
501.31	10540	
501.5	10841	
501.7	9622	
501.9	8458.8	
502.1	10304	
502.29	10536	
502.49	9015.8	
502.69	9392.7	
502.89	10438	
503.09	10411	
503.28	7987.8	
503.48	8082	
503.68	9588.6	
503.88	9698.5	
504.07	8936.7	
504.27	8585.1	
504.47	10048	
504.67	10120	
504.86	8956.4	
505.06	8663.6	
505.26	9680.7	
505.46	11454	
505.65	8495.7	
505.85	8680	
506.05	9514.9	
506.25	9983.8	
506.44	7813	
506.64	8710	
506.84	9394	
507.04	10247	
507.23	7890.8	
507.43	8475.9	
507.63	11383	
507.83	9693.7	
508.02	8475.9	
508.22	8068.3	
508.42	11610	
508.62	9350.3	
508.81	8185.7	
509.01	8887.5	
509.21	9224.1	
509.4	9389.3	
509.6	8445.8	
509.8	7794.6	
510	9439.1	
510.19	10981	
510.39	7770	
510.59	7950.9	
510.79	9288.9	
510.98	10753	
511.18	7950.2	
511.38	8142.7	
511.57	10155	
511.77	9927.2	
511.97	8761.2	
512.17	7765.9	
512.36	10129	
512.56	10049	
512.76	7790.5	
512.95	7504.4	
513.15	10175	
513.35	8887.5	
513.55	8712.1	
513.74	7851.2	
513.94	10226	
514.14	9492.3	
514.33	8908	
514.53	8561.2	
514.73	9538.1	
514.92	9771.5	
515.12	8066.3	
515.32	7983.7	
515.51	9856.9	
515.71	10401	
515.91	9722.4	
516.11	7985.7	
516.3	11597	
516.5	9509.4	
516.7	8585.8	
516.89	9150.3	
517.09	9641.8	
517.29	9532.6	
517.48	8811.7	
517.68	8233.5	
517.88	9411.8	
518.07	9992.7	
518.27	8779.6	
518.47	7746.8	
518.66	10567	
518.86	9233.6	
519.06	7610.3	
519.25	8080.6	
519.45	9623.4	
519.65	10975	
519.84	8766.7	
520.04	9499.8	
520.24	11448	
520.43	10193	
520.63	8502.5	
520.83	8218.5	
521.02	9383.1	
521.22	10029	
521.42	8679.3	
521.61	9351.7	
521.81	9588.6	
522.01	9820	
522.2	8613.1	
522.4	8390.5	
522.6	10374	
522.79	9139.4	
522.99	8527.7	
523.18	7770.7	
523.38	10094	
523.58	10129	
523.77	9910.1	
523.97	7834.2	
524.17	12043	
524.36	11204	
524.56	9233.6	
524.76	8860.9	
524.95	10219	
525.15	9891	
525.34	8723	
525.54	8757.1	
525.74	10568	
525.93	9529.9	
526.13	10038	
526.33	8753	
526.52	10938	
526.72	10483	
526.91	10013	
527.11	9298.5	
527.31	11036	
527.5	11384	
527.7	9144.2	
527.89	8196.7	
528.09	9984.5	
528.29	10591	
528.48	9626.8	
528.68	9232.9	
528.87	10865	
529.07	10959	
529.27	9039.7	
529.46	8583	
529.66	10476	
529.85	10999	
530.05	8477.9	
530.25	9224.1	
530.44	12006	
530.64	10374	
530.83	8901.2	
531.03	9148.3	
531.23	10929	
531.42	10732	
531.62	9979.1	
531.81	9111.4	
532.01	11043	
532.21	11672	
532.4	8908	
532.6	9392.7	
532.79	12041	
532.99	11185	
533.18	9412.5	
533.38	10387	
533.58	10802	
533.77	11530	
533.97	9357.9	
534.16	10196	
534.36	11832	
534.55	10877	
534.75	10398	
534.95	9500.5	
535.14	11610	
535.34	10735	
535.53	9107.3	
535.73	11253	
535.92	12301	
536.12	10986	
536.31	9166	
536.51	10409	
536.71	11163	
536.9	10892	
537.1	9391.3	
537.29	9611.8	
537.49	11745	
537.68	10832	
537.88	9889	
538.07	9086.8	
538.27	11097	
538.46	12129	
538.66	8970.1	
538.86	9568.8	
539.05	11069	
539.25	11452	
539.44	9772.9	
539.64	9319.6	
539.83	10852	
540.03	11904	
540.22	9263.6	
540.42	9263.6	
540.61	11142	
540.81	11257	
541	9713.5	
541.2	10420	
541.39	10601	
541.59	11030	
541.78	10135	
541.98	9086.2	
542.18	10219	
542.37	10311	
542.57	9481.4	
542.76	9987.9	
542.96	10320	
543.15	11026	
543.35	9538.1	
543.54	8758.5	
543.74	11297	
543.93	10791	
544.13	9362.6	
544.32	10428	
544.52	11021	
544.71	10337	
544.91	8434.9	
545.1	9714.9	
545.3	10182	
545.49	11048	
545.69	8378.2	
545.88	9066.4	
546.08	12010	
546.27	11525	
546.47	9531.2	
546.66	8751	
546.86	11262	
547.05	11921	
547.24	9085.5	
547.44	8894.3	
547.63	10140	
547.83	11506	
548.02	9299.8	
548.22	9434.3	
548.41	9976.3	
548.61	11426	
548.8	8775.5	
549	8692.3	
549.19	10666	
549.39	10899	
549.58	8487.5	
549.78	9078.6	
549.97	10987	
550.17	10497	
550.36	9917.6	
550.55	10949	
550.75	10460	
550.94	11354	
551.14	8738	
551.33	9047.9	
551.53	9869.8	
551.72	10952	
551.92	9153.7	
552.11	8888.2	
552.31	10946	
552.5	10925	
552.69	10635	
552.89	8538	
553.08	10889	
553.28	10573	
553.47	8960.5	
553.67	10088	
553.86	11514	
554.06	9766.8	
554.25	8034.2	
554.44	8683.4	
554.64	12190	
554.83	11740	
555.03	8591.2	
555.22	9024	
555.42	10980	
555.61	10632	
555.8	8776.2	
556	9270.5	
556.19	9794.8	
556.39	11111	
556.58	8938	
556.78	8803.5	
556.97	10589	
557.16	10349	
557.36	10189	
557.55	8574.2	
557.75	9572.2	
557.94	11374	
558.13	8648.6	
558.33	8387.8	
558.52	11127	
558.72	10111	
558.91	8507.9	
559.1	8690.2	
559.3	9736.7	
559.49	9425.4	
559.69	7889.5	
559.88	9005.6	
560.07	10449	
560.27	10900	
560.46	9204.9	
560.66	9405.6	
560.85	10253	
561.04	9456.8	
561.24	8381.7	
561.43	8609.7	
561.63	9708.7	
561.82	9955.2	
562.01	9796.1	
562.21	8843.8	
562.4	10408	
562.59	11405	
562.79	8720.9	
562.98	8399.4	
563.18	10431	
563.37	11941	
563.56	9226.1	
563.76	8271.7	
563.95	9848.7	
564.14	9781.8	
564.34	8675.2	
564.53	8454	
564.73	10300	
564.92	10568	
565.11	8931.2	
565.31	8191.9	
565.5	10993	
565.69	9898.5	
565.89	8426	
566.08	8702.5	
566.27	10766	
566.47	11238	
566.66	9271.8	
566.85	8052.6	
567.05	10333	
567.24	9819.3	
567.44	8290.9	
567.63	9757.2	
567.82	10523	
568.02	10342	
568.21	8374.1	
568.4	8718.2	
568.6	10113	
568.79	10186	
568.98	8110.6	
569.18	8237.6	
569.37	10041	
569.56	12153	
569.76	8619.2	
569.95	9605	
570.14	10561	
570.34	10350	
570.53	8075.8	
570.72	7935.2	
570.91	10791	
571.11	9914.9	
571.3	8454	
571.49	9430.2	
571.69	9960.6	
571.88	9559.2	
572.07	8966	
572.27	8974.2	
572.46	9469.1	
572.65	10530	
572.85	8263.6	
573.04	8550.3	
573.23	10738	
573.43	9974.3	
573.62	8063.5	
573.81	8605.6	
574	10095	
574.2	9897.2	
574.39	8357.8	
574.58	8589.2	
574.78	10883	
574.97	10234	
575.16	8867	
575.36	9129.8	
575.55	10536	
575.74	10618	
575.93	7929.1	
576.13	9093	
576.32	9918.3	
576.51	10466	
576.71	8396	
576.9	9779.7	
577.09	10837	
577.28	10312	
577.48	8944.2	
577.67	7804.8	
577.86	9994.8	
578.05	10231	
578.25	8531.8	
578.44	8633.6	
578.63	10118	
578.83	11256	
579.02	7967.3	
579.21	9467.1	
579.4	10298	
579.6	9968.8	
579.79	8687.5	
579.98	10967	
580.17	10645	
580.37	10761	
580.56	8307.9	
580.75	8968.1	
580.94	11277	
581.14	11065	
581.33	9450	
581.52	8327.7	
581.71	10606	
581.91	11254	
582.1	8010.3	
582.29	8656.8	
582.48	10264	
582.68	10167	
582.87	9168.1	
583.06	8798.1	
583.25	10611	
583.45	10461	
583.64	9504.6	
583.83	10239	
584.02	10031	
584.21	10564	
584.41	9430.2	
584.6	8791.9	
584.79	10156	
584.98	11002	
585.18	8260.1	
585.37	8206.2	
585.56	9735.4	
585.75	10590	
585.94	8376.9	
586.14	9080.7	
586.33	11162	
586.52	10116	
586.71	8863.6	
586.91	8556.4	
587.1	9454.1	
587.29	10546	
587.48	8374.1	
587.67	8301.1	
587.87	10327	
588.06	10346	
588.25	9458.9	
588.44	8765.3	
588.63	9893.7	
588.83	10340	
589.02	8093.6	
589.21	7899	
589.4	9323	
589.59	9189.9	
589.78	6989	
589.98	7243.7	
590.17	8659.5	
590.36	9179.7	
590.55	6487.3	
590.74	7335.1	
590.94	10497	
591.13	9010.4	
591.32	7093.5	
591.51	6678.4	
591.7	9478	
591.89	9044.5	
592.09	6920.8	
592.28	7329.7	
592.47	8219.2	
592.66	10206	
592.85	6792.4	
593.05	7014.3	
593.24	8879.3	
593.43	9631.6	
593.62	7086	
593.81	7740.6	
594	8959.2	
594.19	9221.3	
594.39	7124.9	
594.58	7116	
594.77	9366.7	
594.96	9990.7	
595.15	7085.3	
595.34	7600.7	
595.54	9279.3	
595.73	8430.8	
595.92	6321.4	
596.11	7552.2	
596.3	9770.9	
596.49	8417.8	
596.68	7304.4	
596.88	7741.3	
597.07	9544.9	
597.26	8329.1	
597.45	6950.1	
597.64	8106.5	
597.83	8669.1	
598.02	9291.6	
598.22	7009.5	
598.41	7717.4	
598.6	9047.9	
598.79	8591.2	
598.98	7045	
599.17	8112.7	
599.36	9116.9	
599.55	10438	
599.74	9209.7	
599.94	9028.1	
600.13	9854.1	
600.32	8610.3	
600.51	6864.8	
600.7	7081.9	
600.89	10451	
601.08	10528	
601.27	7009.5	
601.47	7907.9	
601.66	9748.3	
601.85	10441	
602.04	7610.3	
602.23	7972.1	
602.42	8815.8	
602.61	9494.4	
602.8	7526.3	
602.99	7330.4	
603.18	9242.5	
603.37	9552.4	
603.57	8042.4	
603.76	8607.6	
603.95	10241	
604.14	9841.9	
604.33	7449.1	
604.52	7811	
604.71	9479.4	
604.9	9058.2	
605.09	8434.2	
605.28	8243.1	
605.47	10118	
605.66	9747.6	
605.86	8118.1	
606.05	7456.7	
606.24	10006	
606.43	8677.2	
606.62	7760.4	
606.81	8574.2	
607	9827.5	
607.19	9207	
607.38	7224.6	
607.57	7490.8	
607.76	8927.1	
607.95	8448.6	
608.14	7882.6	
608.33	8443.1	
608.52	9002.9	
608.72	9898.5	
608.91	7192.5	
609.1	7019.8	
609.29	9092.3	
609.48	8586.5	
609.67	8103.8	
609.86	7089.4	
610.05	8604.9	
610.24	9074.5	
610.43	6969.9	
610.62	6617.7	
610.81	10198	
611	10009	
611.19	7025.9	
611.38	7801.4	
611.57	9269.8	
611.76	10647	
611.95	6860.7	
612.14	6716	
612.33	9050.7	
612.52	8649.3	
612.71	7460.1	
612.9	6531.7	
613.09	8216.5	
613.28	10627	
613.47	7090.1	
613.66	8084	
613.85	9171.5	
614.04	8744.1	
614.24	7205.4	
614.43	6406.7	
614.62	9298.5	
614.81	9195.4	
615	7722.2	
615.19	7814.4	
615.38	8540.7	
615.57	8920.3	
615.76	7613	
615.95	8560.5	
616.14	9389.3	
616.33	9027.4	
616.52	7912.7	
616.71	8148.9	
616.9	9297.8	
617.09	9160.6	
617.28	7258	
617.47	8555	
617.66	8416.5	
617.85	8378.2	
618.04	8172.8	
618.22	7656	
618.41	8791.9	
618.6	9718.3	
618.79	7589.1	
618.98	7251.2	
619.17	10013	
619.36	8324.3	
619.55	7445.7	
619.74	7477.8	
619.93	9224.7	
620.12	8695	
620.31	8089.5	
620.5	8169.3	
620.69	9836.4	
620.88	10202	
621.07	8882.7	
621.26	7941.3	
621.45	9408.4	
621.64	9482.8	
621.83	7972.7	
622.02	7221.8	
622.21	9413.1	
622.4	9250.7	
622.59	8578.3	
622.78	8350.9	
622.97	8811.7	
623.16	9776.3	
623.35	7928.4	
623.54	7130.3	
623.72	8997.4	
623.91	9168.1	
624.1	8071.7	
624.29	6836.1	
624.48	10259	
624.67	9384.5	
624.86	8004.1	
625.05	7126.9	
625.24	10309	
625.43	8606.2	
625.62	9688.9	
625.81	7277.1	
626	9710.8	
626.19	8904.6	
626.38	8011.7	
626.56	7418.4	
626.75	8643.8	
626.94	9512.8	
627.13	7930.4	
627.32	6608.8	
627.51	9299.8	
627.7	10719	
627.89	6761.7	
628.08	7837.6	
628.27	8525.7	
628.46	8639	
628.65	7032.7	
628.83	6645.7	
629.02	9241.8	
629.21	8597.4	
629.4	7352.2	
629.59	7706.5	
629.78	8539.3	
629.97	9541.5	
630.16	7699	
630.35	7250.5	
630.54	9935.4	
630.72	9622.7	
630.91	7204.1	
631.1	7776.8	
631.29	9093.7	
631.48	9310.1	
631.67	7843.7	
631.86	7281.2	
632.05	8656.1	
632.24	8763.9	
632.42	6954.2	
632.61	7640.3	
632.8	8783.1	
632.99	8515.5	
633.18	7713.3	
633.37	7965.9	
633.56	9157.2	
633.75	8989.9	
633.93	7601.4	
634.12	7283.9	
634.31	9929.9	
634.5	9519.6	
634.69	7374.1	
634.88	7829.4	
635.07	8813.8	
635.25	9583.8	
635.44	8193.2	
635.63	8523.6	
635.82	8685.4	
636.01	8244.4	
636.2	8267	
636.39	7783	
636.57	9912.2	
636.76	9548.3	
636.95	7100.3	
637.14	8584.4	
637.33	9143.5	
637.52	10146	
637.7	6888.7	
637.89	7939.3	
638.08	8800.1	
638.27	10301	
638.46	7959.8	
638.65	8387.1	
638.83	10309	
639.02	8498.4	
639.21	7780.9	
639.4	8277.2	
639.59	9060.9	
639.78	8723.7	
639.96	7172	
640.15	7131.7	
640.34	8943.5	
640.53	9057.5	
640.72	6886	
640.91	7181.5	
641.09	8315.4	
641.28	9723.8	
641.47	7161.1	
641.66	7975.5	
641.85	9059.5	
642.03	9298.5	
642.22	7710.6	
642.41	7259.4	
642.6	8498.4	
642.79	7862.2	
642.97	6894.1	
643.16	7791.8	
643.35	8381.7	
643.54	8188.5	
643.73	6778.8	
643.91	7625.3	
644.1	7990.5	
644.29	8622.6	
644.48	6858.6	
644.67	6886	
644.85	8067.6	
645.04	8295.6	
645.23	6352.8	
645.42	6654.5	
645.6	7847.1	
645.79	8951.7	
645.98	6607.4	
646.17	5610.8	
646.36	7473	
646.54	8135.2	
646.73	7385	
646.92	6094.8	
647.11	7688.8	
647.29	8768	
647.48	6232	
647.67	6005.3	
647.86	8996	
648.05	9046.6	
648.23	6535.1	
648.42	7827.3	
648.61	8418.5	
648.8	8124.3	
648.98	6220.4	
649.17	6599.9	
649.36	7802.1	
649.55	7296.2	
649.73	6266.8	
649.92	7088.7	
650.11	7740	
650.3	8034.9	
650.48	6395.1	
650.67	6168.5	
650.86	8240.3	
651.05	7190.4	
651.23	6318	
651.42	6312.5	
651.61	7668.3	
651.79	7826.7	
651.98	6531.7	
652.17	6116.6	
652.36	8208.9	
652.54	7307.2	
652.73	6260	
652.92	6030.6	
653.11	8271.1	
653.29	8333.9	
653.48	5517.2	
653.67	6513.9	
653.85	7996.6	
654.04	9060.9	
654.23	6632.7	
654.42	6200.6	
654.6	7500.3	
654.79	8103.1	
654.98	5664	
655.16	6239.5	
655.35	7107.1	
655.54	6948.1	
655.73	5793.7	
655.91	5732.3	
656.1	8256	
656.29	7056.6	
656.47	5357.5	
656.66	7157.7	
656.85	7334.5	
657.03	7415	
657.22	5908.4	
657.41	5958.9	
657.59	7490.1	
657.78	7253.9	
657.97	5640.8	
658.16	6423.8	
658.34	8113.4	
658.53	8538	
658.72	7291.5	
658.9	7806.2	
659.09	7547.4	
659.28	7752.9	
659.46	6113.2	
659.65	6077	
659.84	7359.7	
660.02	7845.1	
660.21	5950.7	
660.4	5885.9	
660.58	8388.5	
660.77	7720.2	
660.96	6559	
661.14	5547.3	
661.33	8858.8	
661.52	8734.6	
661.7	5510.4	
661.89	9295	
662.08	7337.9	
662.26	6952.2	
662.45	5815.5	
662.64	5933.6	
662.82	8045.8	
663.01	7219.1	
663.2	6007.4	
663.38	6728.3	
663.57	7912.7	
663.75	7784.3	
663.94	6275.7	
664.13	7520.1	
664.31	7269.6	
664.5	8079.2	
664.69	6689.3	
664.87	7132.4	
665.06	7049.8	
665.25	7813.7	
665.43	7340.6	
665.62	7380.2	
665.8	8133.8	
665.99	7460.1	
666.18	6307.7	
666.36	6377.4	
666.55	8083.3	
666.74	8021.9	
666.92	5934.3	
667.11	7561.1	
667.29	7395.9	
667.48	8104.5	
667.67	7171.3	
667.85	6268.8	
668.04	7514.7	
668.22	7468.9	
668.41	6358.3	
668.6	6456.6	
668.78	7320.8	
668.97	7423.9	
669.15	6594.5	
669.34	5615.5	
669.53	7189.7	
669.71	7613.7	
669.9	5849	
670.08	6521.4	
670.27	7256	
670.46	7876.5	
670.64	6689.3	
670.83	6866.8	
671.01	7163.8	
671.2	7776.1	
671.38	5801.9	
671.57	5823.1	
671.76	8445.8	
671.94	9037	
672.13	5681.1	
672.31	6851.8	
672.5	7948.8	
672.69	7210.9	
672.87	5859.2	
673.06	6156.2	
673.24	7782.3	
673.43	7294.9	
673.61	6533.7	
673.8	6064	
673.98	7944.1	
674.17	8177.5	
674.36	6754.2	
674.54	6595.8	
674.73	7736.5	
674.91	7998.7	
675.1	6343.9	
675.28	5986.2	
675.47	7477.1	
675.65	8069.7	
675.84	6238.8	
676.03	6531.7	
676.21	7240.9	
676.4	6859.3	
676.58	7033.4	
676.77	6737.1	
676.95	8695.7	
677.14	7185.6	
677.32	5777.3	
677.51	5558.2	
677.69	7970.7	
677.88	6849.1	
678.06	5726.8	
678.25	5840.1	
678.44	7446.4	
678.62	7212.3	
678.81	5543.9	
678.99	6505	
679.18	8336.6	
679.36	7847.1	
679.55	6008.7	
679.73	6784.2	
679.92	7829.4	
680.1	7207.5	
680.29	7361.1	
680.47	6090.7	
680.66	7173.4	
680.84	8028	
681.03	5357.5	
681.21	6515.3	
681.4	7224.6	
681.58	7140.6	
681.77	5827.8	
681.95	5737.7	
682.14	8060.1	
682.32	8361.9	
682.51	6688.7	
682.69	5591	
682.88	7083.9	
683.06	7861.5	
683.25	6391.7	
683.43	6877.8	
683.62	7354.3	
683.8	7770	
683.99	6964.5	
684.17	6221	
684.36	8634.9	
684.54	7243	
684.73	5327.4	
684.91	5562.3	
685.1	7488.1	
685.28	6832.7	
685.46	6016.9	
685.65	6045.6	
685.83	7662.8	
686.02	7007.5	
686.2	5542.5	
686.39	5640.8	
686.57	6719.4	
686.76	8348.2	
686.94	5519.3	
687.13	5700.2	
687.31	7588.4	
687.5	7118.1	
687.68	5162.9	
687.86	6434	
688.05	8842.4	
688.23	6555.5	
688.42	6477.7	
688.6	5610.8	
688.79	6982.9	
688.97	7004.7	
689.16	6124.8	
689.34	4980.7	
689.52	7760.4	
689.71	7942	
689.89	6323.4	
690.08	5621.7	
690.26	7239.6	
690.45	7047.1	
690.63	6448.4	
690.81	5722	
691	6866.8	
691.18	6799.9	
691.37	5812.8	
691.55	8071.7	
691.74	6775.4	
691.92	8868.4	
692.1	5864	
692.29	5248.3	
692.47	7098.3	
692.66	6360.3	
692.84	5532.9	
693.02	6160.3	
693.21	6522.8	
693.39	7057.3	
693.58	6195.1	
693.76	5707	
693.94	8315.4	
694.13	8148.9	
694.31	5680.4	
694.5	6843.6	
694.68	6957.6	
694.86	7351.5	
695.05	6151.4	
695.23	6575.3	
695.42	7791.8	
695.6	10200	
695.78	6802	
695.97	5866.7	
696.15	7790.5	
696.34	7225.9	
696.52	5615.5	
696.7	6482.5	
696.89	7486.7	
697.07	6861.4	
697.25	6308.4	
697.44	7832.1	
697.62	7401.4	
697.81	7777.5	
697.99	6003.3	
698.17	6460	
698.36	6827.9	
698.54	7494.9	
698.72	6304.3	
698.91	5326.1	
699.09	7025.2	
699.28	6871.6	
699.46	6042.9	
699.64	5877	
699.83	6833.4	
700.01	8129.8	
700.19	6723.5	
700.38	5211.4	
700.56	8230.8	
700.74	7037.5	
700.93	5630.5	
701.11	6485.2	
701.29	7787.7	
701.48	8800.1	
701.66	5961	
701.84	6036	
702.03	7269.6	
702.21	7963.9	
702.39	5439.4	
702.58	6169.8	
702.76	7729	
702.94	7836.9	
703.13	5558.2	
703.31	8011.7	
703.49	6968.6	
703.68	7946.8	
703.86	5763	
704.04	6801.3	
704.23	7535.8	
704.41	7950.2	
704.59	5969.8	
704.78	7314	
704.96	8665.6	
705.14	8075.8	
705.33	5817.6	
705.51	6657.3	
705.69	7524.2	
705.87	8316.8	
706.06	6894.1	
706.24	5784.1	
706.42	7804.8	
706.61	8070.4	
706.79	7051.2	
706.97	5907.7	
707.16	7251.9	
707.34	7880.6	
707.52	6965.1	
707.7	6016.2	
707.89	7378.1	
708.07	7144.7	
708.25	7083.2	
708.44	7083.2	
708.62	7397.9	
708.8	8552.3	
708.98	7368.6	
709.17	6222.4	
709.35	7861.5	
709.53	7889.5	
709.72	5967.1	
709.9	6151.4	
710.08	8085.4	
710.26	8266.3	
710.45	7572.7	
710.63	6304.3	
710.81	7862.8	
710.99	7888.8	
711.18	6912.6	
711.36	6345.3	
711.54	7582.9	
711.72	8343.4	
711.91	6449.1	
712.09	5849	
712.27	7694.2	
712.45	8654	
712.64	6669.6	
712.82	5554.8	
713	7105.8	
713.18	7137.9	
713.37	5543.9	
713.55	6670.9	
713.73	8047.2	
713.91	6430.6	
714.1	5785.5	
714.28	5208.7	
714.46	7367.2	
714.64	6563.1	
714.83	4507.6	
715.01	5359.5	
715.19	6543.3	
715.37	5976.7	
715.55	5078.3	
715.74	5321.3	
715.92	7436.2	
716.1	5430.5	
716.28	6494.1	
716.47	5483.8	
716.65	6178.7	
716.83	6269.5	
717.01	5390.3	
717.19	5440.1	
717.38	8412.4	
717.56	6053.8	
717.74	5773.9	
717.92	4844.8	
718.1	7355.6	
718.29	6518	
718.47	4569.7	
718.65	5294.7	
718.83	7357.7	
719.01	7295.5	
719.2	4519.9	
719.38	5651	
719.56	7034.1	
719.74	8638.3	
719.92	5150.6	
720.11	6357.6	
720.29	7013.6	
720.47	6079.7	
720.65	4730.1	
720.83	5543.2	
721.02	6370.5	
721.2	6078.4	
721.38	5516.5	
721.56	4786.1	
721.74	5651.7	
721.92	5840.1	
722.11	6028.5	
722.29	5754.8	
722.47	7137.9	
722.65	6285.2	
722.83	4789.5	
723.01	5759.6	
723.2	6418.3	
723.38	6614.3	
723.56	4234.5	
723.74	5501.5	
723.92	5883.1	
724.1	7036.8	
724.29	4797.7	
724.47	5983.5	
724.65	5982.1	
724.83	5880.4	
725.01	4732.9	
725.19	5646.9	
725.37	5909.1	
725.56	6072.9	
725.74	4599.7	
725.92	4857.1	
726.1	5935	
726.28	6187.6	
726.46	5282.4	
726.64	4967.7	
726.83	6255.9	
727.01	6522.8	
727.19	4575.2	
727.37	5426.4	
727.55	6406	
727.73	6862.7	
727.91	4526.7	
728.09	4394.3	
728.28	6987	
728.46	7589.8	
728.64	5614.2	
728.82	5607.3	
729	8150.9	
729.18	7464.8	
729.36	4906.9	
729.54	7329.7	
729.72	8575.5	
729.91	6889.4	
730.09	6988.4	
730.27	5773.9	
730.45	6808.8	
730.63	7511.3	
730.81	6337.8	
730.99	5476.3	
731.17	8011	
731.35	6589	
731.53	5965.1	
731.71	5588.2	
731.9	7758.4	
732.08	7901.7	
732.26	5842.2	
732.44	5478.3	
732.62	7962.5	
732.8	7409.6	
732.98	6243.6	
733.16	5291.3	
733.34	7422.5	
733.52	6135	
733.7	5827.2	
733.88	6133.7	
734.07	7249.8	
734.25	7045.7	
734.43	5302.9	
734.61	6985.6	
734.79	8664.3	
734.97	7019.8	
735.15	5504.3	
735.33	5813.5	
735.51	7389.1	
735.69	7006.8	
735.87	7336.5	
736.05	6133	
736.23	7268.2	
736.41	7077.1	
736.59	6002.6	
736.77	6127.5	
736.95	7785	
737.13	7236.8	
737.32	5687.2	
737.5	5968.5	
737.68	8333.9	
737.86	7052.5	
738.04	5487.2	
738.22	7497.6	
738.4	6956.9	
738.58	7293.5	
738.76	6216.3	
738.94	5158.8	
739.12	7121.5	
739.3	7017.7	
739.48	6891.4	
739.66	6533	
739.84	7381.6	
740.02	7453.2	
740.2	5320.6	
740.38	5726.1	
740.56	7812.3	
740.74	6668.9	
740.92	6316.6	
741.1	6369.9	
741.28	7324.9	
741.46	7065.5	
741.64	5917.3	
741.82	6421.1	
742	7369.3	
742.18	7249.8	
742.36	6057.9	
742.54	5686.5	
742.72	7917.4	
742.9	6551.5	
743.08	6531.7	
743.26	5378	
743.44	8095.6	
743.62	7889.5	
743.8	6690	
743.98	5714.5	
744.16	7675.8	
744.34	7231.4	
744.52	6522.8	
744.7	6529.6	
744.88	7714.7	
745.06	7318.8	
745.24	6601.3	
745.42	6709.1	
745.6	7814.4	
745.78	7559.7	
745.96	5337	
746.14	5676.3	
746.32	8602.8	
746.5	7783	
746.68	6313.9	
746.86	5725.4	
747.03	8227.4	
747.21	6507.8	
747.39	6206	
747.57	5717.9	
747.75	7414.3	
747.93	7783.6	
748.11	5649	
748.29	5598.5	
748.47	9022.7	
748.65	7139.2	
748.83	6491.4	
749.01	6199.9	
749.19	7566.6	
749.37	6694.8	
749.55	5936.4	
749.73	5999.9	
749.91	7254.6	
750.09	6833.4	
750.26	6114.6	
750.44	5547.3	
750.62	7217	
750.8	7227.3	
750.98	5368.4	
751.16	5685.2	
751.34	7292.1	
751.52	6666.1	
751.7	6571.9	
751.88	5377.3	
752.06	7759.8	
752.24	7683.3	
752.42	5227.1	
752.59	5638.7	
752.77	7204.8	
752.95	8519.6	
753.13	6406	
753.31	5750	
753.49	6914.6	
753.67	7365.9	
753.85	6058.6	
754.03	5574.6	
754.21	7557.7	
754.38	7965.9	
754.56	5733.6	
754.74	4700.1	
754.92	6682.5	
755.1	7385	
755.28	4513.7	
755.46	4457.7	
755.64	7771.4	
755.82	7800.7	
755.99	4541	
756.17	4502.1	
756.35	5116.5	
756.53	6705.7	
756.71	3349.8	
756.89	4323.3	
757.07	6260.6	
757.25	5371.1	
757.42	4956.1	
757.6	5936.4	
757.78	6455.9	
757.96	5421.7	
758.14	4713.1	
758.32	4152.6	
758.5	4915.8	
758.67	5826.5	
758.85	4457.7	
759.03	4578.6	
759.21	6001.2	
759.39	5350.7	
759.57	4031.1	
759.75	5204.6	
759.92	6662	
760.1	5844.9	
760.28	5685.8	
760.46	5899.5	
760.64	5723.4	
760.82	5468.8	
760.99	5649.7	
761.17	4715.8	
761.35	6670.2	
761.53	5709.7	
761.71	4943.8	
761.89	5655.1	
762.06	6674.3	
762.24	6207.4	
762.42	5083.1	
762.6	4920.6	
762.78	6208.1	
762.96	6969.9	
763.13	5690.6	
763.31	5332.2	
763.49	7160.4	
763.67	6283.9	
763.85	6196.5	
764.02	6753.5	
764.2	7424.6	
764.38	6613.6	
764.56	5144.5	
764.74	6045.6	
764.91	7548.8	
765.09	6415.6	
765.27	4931.5	
765.45	4716.5	
765.63	7535.2	
765.8	7529	
765.98	4379.9	
766.16	4753.3	
766.34	6012.2	
766.52	5752.1	
766.69	5737	
766.87	4585.4	
767.05	6389.7	
767.23	7174	
767.41	4946.5	
767.58	5162.9	
767.76	6963.8	
767.94	7089.4	
768.12	5031.2	
768.29	5803.9	
768.47	6425.2	
768.65	7180.2	
768.83	4551.3	
769	5742.5	
769.18	6001.2	
769.36	6688.7	
769.54	5785.5	
769.72	4614.1	
769.89	6930.3	
770.07	7133.8	
770.25	4971.8	
770.43	6131.6	
770.6	7761.8	
770.78	8208.9	
770.96	5126.1	
771.14	5747.3	
771.31	6881.9	
771.49	6199.9	
771.67	4157.4	
771.85	4543.8	
772.02	5365.7	
772.2	6163	
772.38	5210.7	
772.55	4661.9	
772.73	6374.6	
772.91	6197.8	
773.09	5092.6	
773.26	5127.4	
773.44	6417.7	
773.62	6003.3	
773.8	4554	
773.97	4238.6	
774.15	6439.5	
774.33	5999.9	
774.5	4444.8	
774.68	4780	
774.86	6597.9	
775.04	6001.2	
775.21	4555.4	
775.39	4478.9	
775.57	6321.4	
775.74	6751.5	
775.92	4350.6	
776.1	4233.2	
776.27	6266.8	
776.45	7567.2	
776.63	4465.3	
776.81	3967.6	
776.98	5926.8	
777.16	7114.6	
777.34	4609.3	
777.51	4554.7	
777.69	5781.4	
777.87	5536.3	
778.04	4653.7	
778.22	5291.3	
778.4	5562.3	
778.57	6315.3	
778.75	3855.6	
778.93	4065.9	
779.1	5433.9	
779.28	5226.4	
779.46	3848.8	
779.64	4387.4	
779.81	6422.4	
779.99	7342	
780.17	5144.5	
780.34	5284.4	
780.52	5787.6	
780.69	6067.4	
780.87	4667.3	
781.05	4197.7	
781.22	5872.9	
781.4	5994.4	
781.58	4302.8	
781.75	3483.6	
781.93	5910.4	
782.11	5330.2	
782.28	5177.9	
782.46	4326	
782.64	5082.4	
782.81	6150.7	
782.99	4364.2	
783.17	4301.4	
783.34	5995.8	
783.52	5169.1	
783.69	4536.3	
783.87	5335	
784.05	5238.7	
784.22	5278.3	
784.4	5307.7	
784.58	4595.6	
784.75	6219	
784.93	5281.7	
785.1	4198.3	
785.28	4869.4	
785.46	5879	
785.63	5205.9	
785.81	4202.4	
785.99	4055	
786.16	5358.2	
786.34	5785.5	
786.51	4098	
786.69	4511	
786.87	4998.4	
787.04	5458.5	
787.22	3968.3	
787.39	4928.1	
787.57	5162.9	
787.75	6365.8	
787.92	5119.9	
788.1	5071.5	
788.27	5276.3	
788.45	4988.9	
788.63	4797	
788.8	3422.8	
788.98	5623.7	
789.15	4960.2	
789.33	3640.6	
789.5	4306.2	
789.68	6215.6	
789.86	6301.6	
790.03	4741	
790.21	4072	
790.38	6112.5	
790.56	5330.2	
790.73	3964.2	
790.91	4078.2	
791.09	5154.7	
791.26	5954.1	
791.44	4162.8	
791.61	3581.9	
791.79	5128.8	
791.96	5292.6	
792.14	3706.1	
792.32	3315	
792.49	5213.4	
792.67	5337.7	
792.84	3837.2	
793.02	3650.8	
793.19	5622.4	
793.37	6417.7	
793.54	3300	
793.72	3686.3	
793.89	6500.9	
794.07	5165.7	
794.25	4315.8	
794.42	3368.9	
794.6	6290.7	
794.77	5872.2	
794.95	4615.4	
795.12	3964.2	
795.3	5117.2	
795.47	5809.4	
795.65	4402.5	
795.82	4209.3	
796	4954	
796.17	6978.8	
796.35	4042	
796.52	4754	
796.7	5708.4	
796.87	5806	
797.05	5040.7	
797.22	4997	
797.4	5734.3	
797.57	6786.3	
797.75	4193.6	
797.92	3995.6	
798.1	6084.5	
798.27	5155.4	
798.45	3361.4	
798.62	3683.6	
798.8	5494.7	
798.97	5958.9	
799.15	4491.9	
799.32	4222.9	
799.5	4692.6	
799.67	5452.4	
799.85	4584	
800.02	3317	
800.2	5107	
800.37	5417.6	
800.55	4752.7	
800.72	3953.3	
800.9	5873.6	
801.07	6382.2	
801.25	5285.8	
801.42	4353.3	
801.6	5963.7	
801.77	5699.5	
801.95	3979.2	
802.12	3867.2	
802.29	5644.9	
802.47	5634	
802.64	4268.6	
802.82	3231	
802.99	5057.1	
803.17	6096.8	
803.34	4209.9	
803.52	3757.3	
803.69	6771.3	
803.87	4860.5	
804.04	4151.2	
804.21	4297.3	
804.39	6233.3	
804.56	5300.8	
804.74	3528	
804.91	4338.3	
805.09	5133.6	
805.26	5214.1	
805.44	3590.1	
805.61	3913	
805.78	5711.8	
805.96	5770.5	
806.13	4306.9	
806.31	4646.2	
806.48	4649.6	
806.66	5248.9	
806.83	4270.7	
807	4238.6	
807.18	5028.4	
807.35	5455.8	
807.53	4197	
807.7	3326.6	
807.87	6286.6	
808.05	5188.9	
808.22	4646.2	
808.4	3291.1	
808.57	5162.2	
808.74	4768.4	
808.92	3827.7	
809.09	4854.4	
809.27	5020.3	
809.44	5677	
809.61	3396.2	
809.79	3724.6	
809.96	6305.7	
810.14	5950	
810.31	3306.8	
810.48	4016.7	
810.66	5203.2	
810.83	5971.9	
811.01	3799	
811.18	4286.4	
811.35	5892	
811.53	4532.2	
811.7	4660.5	
811.87	4281.6	
812.05	5159.5	
812.22	5038	
812.39	3667.9	
812.57	3583.9	
812.74	5123.3	
812.92	6875.7	
813.09	3976.5	
813.26	4436.6	
813.44	6563.1	
813.61	5107	
813.78	3385.3	
813.96	4554.7	
814.13	5128.8	
814.3	4814.8	
814.48	4864.6	
814.65	4019.5	
814.82	6365.1	
815	4928.8	
815.17	4158.1	
815.34	5055.8	
815.52	5033.9	
815.69	5143.8	
815.87	4132.1	
816.04	3530	
816.21	5113.8	
816.38	4494.6	
816.56	3973.7	
816.73	3639.2	
816.9	6477	
817.08	5898.8	
817.25	3745.1	
817.42	4692.6	
817.6	4707.6	
817.77	5152	
817.94	4246.1	
818.12	3659.7	
818.29	4886.5	
818.46	7668.3	
818.64	3892.5	
818.81	3602.4	
818.98	4805.9	
819.16	7026.6	
819.33	4410	
819.5	4171	
819.67	5503.6	
819.85	6182.8	
820.02	4057	
820.19	4294.6	
820.37	5360.2	
820.54	4906.3	
820.71	4271.4	
820.88	5203.9	
821.06	5358.2	
821.23	4848.9	
821.4	4252.9	
821.58	4162.8	
821.75	5868.1	
821.92	5278.3	
822.09	3379.1	
822.27	3466.5	
822.44	5105.6	
822.61	4997	
822.79	3399.6	
822.96	6556.2	
823.13	5649	
823.3	4847.5	
823.48	3962.1	
823.65	3526.6	
823.82	5875.6	
823.99	4625.7	
824.17	5031.9	
824.34	3614.7	
824.51	6793.1	
824.68	5271.5	
824.86	3737.5	
825.03	4240	
825.2	5130.2	
825.37	6199.2	
825.55	3644.7	
825.72	4179.9	
825.89	6862.1	
826.06	6279.1	
826.24	4055.7	
826.41	4088.4	
826.58	6236.7	
826.75	5427.8	
826.92	3140.9	
827.1	3476.8	
827.27	8546.9	
827.44	6815	
827.61	3872	
827.79	4685.8	
827.96	4872.1	
828.13	5230.5	
828.3	4043.4	
828.47	3363.4	
828.65	5358.2	
828.82	5322.7	
828.99	5214.1	
829.16	4543.1	
829.34	5768.4	
829.51	5522	
829.68	4123.2	
829.85	4321.2	
830.02	6016.9	
830.2	5763	
830.37	3166.8	
830.54	5033.2	
830.71	6583.5	
830.88	5104.2	
831.05	3324.5	
831.23	3772.4	
831.4	6255.2	
831.57	7048.4	
831.74	3836.5	
831.91	3338.9	
832.09	5372.5	
832.26	5784.1	
832.43	4004.5	
832.6	4477.5	
832.77	5400.5	
832.94	6177.4	
833.12	3185.3	
833.29	3927.3	
833.46	5016.8	
833.63	7278.5	
833.8	4364.9	
833.97	4010.6	
834.15	5767.1	
834.32	5506.3	
834.49	4181.3	
834.66	4246.8	
834.83	6042.9	
835	4878.9	
835.17	3814.7	
835.35	3852.2	
835.52	5670.8	
835.69	5523.4	
835.86	4050.9	
836.03	3354.6	
836.2	5741.1	
836.37	5363.6	
836.55	4014	
836.72	3771	
836.89	5304.2	
837.06	5808.7	
837.23	4067.9	
837.4	4424.3	
837.57	6626.5	
837.75	7298.3	
837.92	3659.7	
838.09	3880.2	
838.26	5268.1	
838.43	6025.1	
838.6	4203.8	
838.77	3735.5	
838.94	6975.4	
839.11	6601.3	
839.29	3928.7	
839.46	3108.8	
839.63	5723.4	
839.8	5449	
839.97	3900	
840.14	3828.3	
840.31	5457.2	
840.48	5724.8	
840.65	3235.8	
840.82	3798.3	
841	5711.8	
841.17	5701.5	
841.34	3520.5	
841.51	3639.2	
841.68	5673.6	
841.85	5423	
842.02	3702	
842.19	3055.6	
842.36	5477.6	
842.53	5427.1	
842.7	3581.2	
842.87	4373.8	
843.05	7208.8	
843.22	5419.6	
843.39	3378.5	
843.56	3727.3	
843.73	5174.5	
843.9	5853.8	
844.07	5776	
844.24	4908.3	
844.41	8495.7	
844.58	4936.3	
844.75	3426.3	
844.92	3688.4	
845.09	5737.7	
845.26	5711.8	
845.43	3535.5	
845.6	3700	
845.77	5723.4	
845.94	5404.6	
846.12	3963.5	
846.29	4180.6	
846.46	5932.3	
846.63	5705	
846.8	3495.2	
846.97	4191.5	
847.14	6208.8	
847.31	5673.6	
847.48	3947.8	
847.65	4418.2	
847.82	6005.3	
847.99	6001.9	
848.16	4789.5	
848.33	4363.5	
848.5	5284.4	
848.67	6260	
848.84	3474.7	
849.01	3718.4	
849.18	5141.1	
849.35	4823	
849.52	4477.5	
849.69	3423.5	
849.86	5941.2	
850.03	6184.2	
850.2	3520.5	
850.37	4287.8	
850.54	6117.3	
850.71	5392.3	
850.88	4257.7	
851.05	3483.6	
851.22	5659.2	
851.39	6367.1	
851.56	3330	
851.73	4043.4	
851.9	4988.2	
852.07	5927.5	
852.24	3923.9	
852.41	3537.5	
852.58	5527.5	
852.75	5054.4	
852.92	3981.3	
853.09	3479.5	
853.26	5328.1	
853.43	6188.3	
853.6	3501.3	
853.77	3056.9	
853.94	6263.4	
854.11	5707	
854.28	5264.6	
854.44	3837.2	
854.61	6708.5	
854.78	5786.9	
854.95	3515	
855.12	4395.6	
855.29	4597.7	
855.46	6267.5	
855.63	3500	
855.8	4914.4	
855.97	5278.3	
856.14	6070.9	
856.31	5038	
856.48	3920.5	
856.65	5341.1	
856.82	4974.5	
856.99	3436.5	
857.16	3787.4	
857.33	6956.9	
857.49	5363.6	
857.66	3830.4	
857.83	4111	
858	5313.8	
858.17	5483.1	
858.34	3398.3	
858.51	3622.9	
858.68	6423.1	
858.85	6419	
859.02	4106.9	
859.19	4347.8	
859.36	4979.3	
859.52	5065.3	
859.69	3569.6	
859.86	4173.1	
860.03	5107.6	
860.2	6300.2	
860.37	3177.8	
860.54	3532.1	
860.71	5930.2	
860.88	6382.2	
861.05	3979.9	
861.21	4478.9	
861.38	6436.8	
861.55	4829.8	
861.72	3258.3	
861.89	3935.5	
862.06	6057.9	
862.23	6565.1	
862.4	3452.2	
862.56	3727.3	
862.73	5844.2	
862.9	5497.4	
863.07	4158.7	
863.24	3198.9	
863.41	4912.4	
863.58	5042.8	
863.75	3667.2	
863.91	4096.6	
864.08	6350.8	
864.25	5870.8	
864.42	4476.2	
864.59	5007.3	
864.76	6700.3	
864.93	5030.5	
865.09	3465.2	
865.26	3748.5	
865.43	6193.7	
865.6	6690.7	
865.77	3086.3	
865.94	3505.4	
866.1	6300.2	
866.27	6049	
866.44	5343.2	
866.61	3318.4	
866.78	5371.1	
866.95	5885.2	
867.11	3390.8	
867.28	3123.2	
867.45	6024.4	
867.62	5112.4	
867.79	4095.3	
867.96	3494.5	
868.12	5028.4	
868.29	6022.4	
868.46	3526.6	
868.63	4713.1	
868.8	6193.1	
868.97	5924.1	
869.13	3680.9	
869.3	3707.5	
869.47	5784.1	
869.64	6049	
869.81	3538.9	
869.97	3590.1	
870.14	5782.8	
870.31	6382.8	
870.48	3437.9	
870.65	4505.5	
870.81	5299.5	
870.98	5280.3	
871.15	3984	
871.32	3640.6	
871.48	5769.8	
871.65	6462	
871.82	3422.2	
871.99	3927.3	
872.16	6898.2	
872.32	6279.1	
872.49	3573.7	
872.66	3569.6	
872.83	6014.2	
872.99	5157.5	
873.16	4082.3	
873.33	3480.9	
873.5	5557.5	
873.67	5582.1	
873.83	3776.5	
874	4743.8	
874.17	5750	
874.34	6817	
874.5	4521.2	
874.67	4434.5	
874.84	6320	
875.01	5027.8	
875.17	5051	
875.34	3512.3	
875.51	5660.6	
875.68	6844.3	
875.84	4206.5	
876.01	5172.5	
876.18	5915.9	
876.34	5882.4	
876.51	3547.1	
876.68	3486.3	
876.85	5401.2	
877.01	6244.9	
877.18	5018.2	
877.35	3496.6	
877.52	5540.4	
877.68	5009.3	
877.85	3502	
878.02	3487	
878.18	5523.4	
878.35	5205.9	
878.52	2835.8	
878.69	3958	
878.85	5917.9	
879.02	5867.4	
879.19	5055.1	
879.35	3811.3	
879.52	5878.4	
879.69	6069.5	
879.86	3056.3	
880.02	3938.2	
880.19	5461.2	
880.36	6680.5	
880.52	4042	
880.69	4138.9	
880.86	6010.8	
881.02	6126.2	
881.19	3891.1	
881.36	3849.5	
881.52	5872.2	
881.69	5233.9	
881.86	3732.8	
882.02	3738.2	
882.19	6178.7	
882.36	7329	
882.52	3621.5	
882.69	4930.8	
882.86	5735.7	
883.02	5552	
883.19	4333.5	
883.36	4064.5	
883.52	6074.3	
883.69	6827.9	
883.86	3579.2	
884.02	3167.5	
884.19	6018.3	
884.36	5509	
884.52	4038.6	
884.69	3710.2	
884.86	5262.6	
885.02	6577.4	
885.19	3966.9	
885.36	4113	
885.52	5498.8	
885.69	5718.6	
885.86	5128.1	
886.02	4522.6	
886.19	5995.1	
886.35	5399.1	
886.52	3855	
886.69	4924	
886.85	5114.5	
887.02	6332.3	
887.19	6332.3	
887.35	6332.3	
887.52	6332.3	
887.68	6332.3	
887.85	6332.3	
888.02	6332.3	
888.18	6332.3	
888.35	6332.3	
888.51	6332.3	
888.68	6332.3	
888.85	6332.3	
889.01	6332.3	
889.18	6332.3	
889.35	6332.3	
889.51	6332.3	
889.68	6332.3	
889.84	6332.3	
890.01	6332.3	
890.17	6332.3	
890.34	6332.3	
890.51	6332.3	
890.67	6332.3	
890.84	6332.3	
891	6332.3	
891.17	6332.3	
891.34	6332.3	
891.5	6332.3	
891.67	6332.3	
891.83	6332.3	
892	6332.3	
892.16	6332.3	
892.33	6332.3	
892.5	6332.3	
892.66	6332.3	
892.83	6332.3	
892.99	6332.3	
893.16	6332.3	
893.32	6332.3	
893.49	6332.3	
893.65	6332.3	
893.82	6332.3	
893.99	6332.3	
894.15	6332.3	
894.32	6332.3	
894.48	6332.3	
894.65	6332.3	
894.81	6332.3	
894.98	6332.3	
895.14	6332.3	
895.31	6332.3	
895.47	6332.3	
895.64	6332.3	
895.81	6332.3	
895.97	6332.3	
896.14	6332.3	
896.3	6332.3	
896.47	6332.3	
896.63	6332.3	
896.8	6332.3	
896.96	6332.3	
897.13	6332.3	
897.29	6332.3	
897.46	6332.3	
897.62	6332.3	
897.79	6332.3	
897.95	6332.3	
898.12	6332.3	
898.28	6332.3	
898.45	6332.3	
898.61	6332.3	
898.78	6332.3	
898.94	6332.3	
899.11	6332.3	
899.27	6332.3	
899.44	6332.3	
899.6	6332.3	
899.77	6332.3	
899.93	6332.3	
900.1	6332.3	
900.26	6332.3	
900.43	6332.3	
900.59	6332.3	
900.76	6332.3	
900.92	6332.3	
901.09	6332.3	
901.25	6332.3	
901.42	6332.3	
901.58	6332.3	
901.75	6332.3	
901.91	6332.3	
902.07	6332.3	
902.24	6332.3	
902.4	6332.3	
902.57	6332.3	
902.73	6332.3	
902.9	6332.3	
903.06	6332.3	
903.23	6332.3	
903.39	6332.3	
903.56	6332.3	
903.72	6332.3	
903.88	6332.3	
904.05	6332.3	
904.21	6332.3	
904.38	6332.3	
904.54	6332.3	
904.71	6332.3	
904.87	6332.3	
905.03	6332.3	
905.2	6332.3	
905.36	6332.3	
905.53	6332.3	
905.69	6332.3	
905.86	6332.3	
906.02	6332.3	
906.18	6332.3	
906.35	6332.3	
906.51	6332.3	
906.68	6332.3	
906.84	6332.3	
907.01	6332.3	
907.17	6332.3	
907.33	6332.3	
907.5	6332.3	
907.66	6332.3	
907.83	6332.3	
907.99	6332.3	
908.15	6332.3	
908.32	6332.3	
908.48	6332.3	
908.65	6332.3	
908.81	6332.3	
908.97	6332.3	
909.14	6332.3	
909.3	6332.3	
909.47	6332.3	
909.63	6332.3	
909.79	6332.3	
909.96	6332.3	
910.12	6332.3	
910.28	6332.3	
910.45	6332.3	
910.61	6332.3	
910.78	6332.3	
910.94	6332.3	
911.1	6332.3	
911.27	6332.3	
911.43	6332.3	
911.59	6332.3	
911.76	6332.3	
911.92	6332.3	
912.08	6332.3	
912.25	6332.3	
912.41	6332.3	
912.57	6332.3	
912.74	6332.3	
912.9	6332.3	
913.07	6332.3	
913.23	6332.3	
913.39	6332.3	
913.56	6332.3	
913.72	6332.3	
913.88	6332.3	
914.05	6332.3	
914.21	6332.3	
914.37	6332.3	
914.54	6332.3	
914.7	6332.3	
914.86	6332.3	
915.03	6332.3	
915.19	6332.3	
