Wavelength	Intensities	
nm	a.u.	
179.22	1922.9	
179.44	1920.7	
179.65	1925.1	
179.86	1916.2	
180.08	1959.9	
180.29	5096	
180.51	3594.9	
180.72	5746.6	
180.94	6747.4	
181.15	3294.5	
181.37	3239.9	
181.58	5621	
181.79	5931.6	
182.01	3482.9	
182.22	3753.2	
182.44	5913.9	
182.65	4913.1	
182.87	4715.1	
183.08	4094.6	
183.29	6256.5	
183.51	5101.5	
183.72	3751.9	
183.94	5515.2	
184.15	5526.1	
184.37	5547.9	
184.58	3279.5	
184.79	4561.5	
185.01	5107	
185.22	5894.1	
185.44	4811.4	
185.65	4044.1	
185.86	5397.8	
186.08	4961.5	
186.29	3241.9	
186.51	3476.8	
186.72	5089.2	
186.94	6021.7	
187.15	4061.8	
187.36	4172.4	
187.58	8000	
187.79	5612.1	
188.01	4323.3	
188.22	6799.3	
188.43	6749.4	
188.65	5891.3	
188.86	3459	
189.08	4221.5	
189.29	5342.5	
189.5	5286.5	
189.72	3786	
189.93	3864.5	
190.15	6065.4	
190.36	7359	
190.57	4274.8	
190.79	4104.1	
191	6164.4	
191.22	6141.9	
191.43	4221.5	
191.64	3422.2	
191.86	6425.2	
192.07	6142.5	
192.29	3661.1	
192.5	3792.2	
192.71	6114.6	
192.93	5195	
193.14	3826.3	
193.35	3931.4	
193.57	5255.1	
193.78	6102.3	
194	3060.3	
194.21	3706.1	
194.42	5057.1	
194.64	5495.4	
194.85	4142.4	
195.07	4876.2	
195.28	5597.8	
195.49	4794.3	
195.71	5162.2	
195.92	3557.3	
196.13	5756.8	
196.35	5855.8	
196.56	5529.5	
196.78	4194.2	
196.99	7216.4	
197.2	6736.5	
197.42	4700.1	
197.63	4152.6	
197.84	4882.4	
198.06	5688.6	
198.27	3883.6	
198.48	5145.9	
198.7	5276.3	
198.91	5361.6	
199.13	4151.2	
199.34	4183.3	
199.55	5873.6	
199.77	4774.5	
199.98	3682.2	
200.19	4231.1	
200.41	5328.1	
200.62	5142.4	
200.83	4334.2	
201.05	4734.9	
201.26	5422.3	
201.47	5115.8	
201.69	3648.1	
201.9	3549.1	
202.11	5470.8	
202.33	6484.6	
202.54	3967.6	
202.76	4430.4	
202.97	5652.4	
203.18	5610.1	
203.4	4309.6	
203.61	4220.2	
203.82	5546.6	
204.04	5201.2	
204.25	4216.1	
204.46	4135.5	
204.68	5528.8	
204.89	5840.1	
205.1	4119.8	
205.32	3512.3	
205.53	5974.6	
205.74	6022.4	
205.96	2989.4	
206.17	4313	
206.38	5880.4	
206.6	6060.6	
206.81	4827.7	
207.02	3890.5	
207.24	5823.7	
207.45	6173.9	
207.66	3932.8	
207.88	3439.9	
208.09	5689.9	
208.3	5498.8	
208.52	3681.6	
208.73	4044.7	
208.94	5535.7	
209.15	6297.5	
209.37	3957.4	
209.58	4207.2	
209.79	6152.8	
210.01	5319.9	
210.22	3142.9	
210.43	3303.4	
210.65	5542.5	
210.86	5995.8	
211.07	4014	
211.29	3636.5	
211.5	5836	
211.71	5433.9	
211.93	3707.5	
212.14	3584.6	
212.35	5458.5	
212.56	5707	
212.78	4248.2	
212.99	3444.7	
213.2	6511.9	
213.42	5200.5	
213.63	3779.2	
213.84	4067.3	
214.06	4829.8	
214.27	4996.4	
214.48	3973.7	
214.69	4259.8	
214.91	6229.2	
215.12	6365.1	
215.33	4303.5	
215.55	4769.7	
215.76	6819.1	
215.97	5900.9	
216.18	4130.1	
216.4	4048.8	
216.61	5236.7	
216.82	6034	
217.04	3675.4	
217.25	3845.4	
217.46	6224.5	
217.67	5911.1	
217.89	3269.2	
218.1	3442	
218.31	5630.5	
218.53	5742.5	
218.74	3841.3	
218.95	3725.9	
219.16	5477	
219.38	6462.7	
219.59	3710.9	
219.8	4458.4	
220.01	7166.5	
220.23	5547.9	
220.44	4939.7	
220.65	3632.4	
220.87	5569.8	
221.08	6187.6	
221.29	3392.1	
221.5	4560.1	
221.72	7616.4	
221.93	5254.4	
222.14	4257.7	
222.35	4965.6	
222.57	5629.2	
222.78	5912.5	
222.99	3969.6	
223.2	4288.4	
223.42	5838.1	
223.63	5973.2	
223.84	3028.3	
224.05	3049.4	
224.27	7100.3	
224.48	6496.2	
224.69	4927.4	
224.9	4265.2	
225.12	5774.6	
225.33	5453.7	
225.54	3319.8	
225.75	3715	
225.97	5021.6	
226.18	5324	
226.39	4022.9	
226.6	3735.5	
226.82	5251.7	
227.03	5119.9	
227.24	4227	
227.45	3464.5	
227.67	5875.6	
227.88	6562.4	
228.09	4732.2	
228.3	4736.3	
228.52	6025.8	
228.73	5489.2	
228.94	3861.1	
229.15	3493.8	
229.36	5422.3	
229.58	5304.2	
229.79	3891.1	
230	4607.2	
230.21	6538.5	
230.43	5671.5	
230.64	4158.7	
230.85	4358.8	
231.06	5939.8	
231.28	5970.5	
231.49	3460.4	
231.7	4083	
231.91	5850.4	
232.12	5563	
232.34	3478.8	
232.55	4118.5	
232.76	6148.7	
232.97	5707	
233.18	3685.7	
233.4	4192.9	
233.61	5743.2	
233.82	5255.8	
234.03	3830.4	
234.25	3814	
234.46	7721.5	
234.67	5581.4	
234.88	4289.1	
235.09	3781.2	
235.31	5879	
235.52	5397.8	
235.73	4138.3	
235.94	3474	
236.15	5251	
236.37	6785.6	
236.58	3664.5	
236.79	4090.5	
237	5844.9	
237.21	5020.9	
237.43	4305.5	
237.64	3356.6	
237.85	10165	
238.06	5051.7	
238.27	4425.7	
238.48	3465.2	
238.7	5874.3	
238.91	5352	
239.12	4020.2	
239.33	4078.9	
239.54	5068.7	
239.76	5404.6	
239.97	4143.7	
240.18	4009.2	
240.39	6949.4	
240.6	5844.9	
240.82	4157.4	
241.03	3419.4	
241.24	5531.6	
241.45	6414.9	
241.66	3671.3	
241.87	4318.5	
242.09	6235.4	
242.3	6686.6	
242.51	4363.5	
242.72	4037.2	
242.93	5911.8	
243.14	5431.2	
243.36	4654.4	
243.57	5057.8	
243.78	6445.6	
243.99	5961.6	
244.2	4089.1	
244.41	3655.6	
244.63	5018.2	
244.84	5836.7	
245.05	4280.3	
245.26	4059.8	
245.47	5789.6	
245.68	6098.2	
245.9	5365	
246.11	4194.9	
246.32	5345.2	
246.53	5793.7	
246.74	6543.9	
246.95	3349.8	
247.16	4956.8	
247.38	5520	
247.59	3300.6	
247.8	4044.7	
248.01	5244.2	
248.22	5415.5	
248.43	3637.9	
248.64	3905.5	
248.86	4887.8	
249.07	5268.7	
249.28	3548.4	
249.49	4160.8	
249.7	6008.1	
249.91	6305	
250.12	3287	
250.34	3383.2	
250.55	5640.1	
250.76	5541.8	
250.97	4198.3	
251.18	4215.4	
251.39	6277	
251.6	5688.6	
251.81	4291.9	
252.03	4246.1	
252.24	5207.3	
252.45	6111.8	
252.66	3468.6	
252.87	4483.7	
253.08	5565.7	
253.29	7360.4	
253.5	3497.9	
253.72	4856.4	
253.93	5365	
254.14	6653.2	
254.35	3819.5	
254.56	3952.6	
254.77	5752.1	
254.98	5099.4	
255.19	3728.7	
255.41	4894.6	
255.62	5579.3	
255.83	6254.5	
256.04	4290.5	
256.25	4257.7	
256.46	6835.4	
256.67	5193	
256.88	4153.3	
257.09	4665.3	
257.31	5177.9	
257.52	5194.3	
257.73	5251	
257.94	3790.8	
258.15	5330.9	
258.36	5556.1	
258.57	4815.5	
258.78	3022.8	
258.99	6160.3	
259.2	5338.4	
259.41	3859.7	
259.63	3888.4	
259.84	6420.4	
260.05	6871.6	
260.26	5091.3	
260.47	3681.6	
260.68	6082.5	
260.89	5452.4	
261.1	4672.8	
261.31	3608.5	
261.52	6111.1	
261.73	6548	
261.95	4945.2	
262.16	4377.2	
262.37	6279.8	
262.58	6397.9	
262.79	4949.3	
263	3976.5	
263.21	5582.1	
263.42	5066	
263.63	3946.4	
263.84	3879.5	
264.05	6073.6	
264.26	6457.9	
264.47	4770.4	
264.69	4397.7	
264.9	6300.9	
265.11	5766.4	
265.32	3691.8	
265.53	3798.3	
265.74	5581.4	
265.95	4906.9	
266.16	4043.4	
266.37	4507.6	
266.58	5612.1	
266.79	5344.5	
267	3820.1	
267.21	3560.7	
267.42	5129.5	
267.63	5533.6	
267.84	4027	
268.06	3443.3	
268.27	6031.3	
268.48	6251.8	
268.69	3898	
268.9	4627	
269.11	6258.6	
269.32	4962.9	
269.53	4009.2	
269.74	3718.4	
269.95	5935.7	
270.16	4859.8	
270.37	4052.9	
270.58	4660.5	
270.79	5396.4	
271	6107.7	
271.21	4359.4	
271.42	4023.6	
271.63	5608	
271.84	5156.1	
272.05	3215.3	
272.26	3568.9	
272.47	5589.6	
272.68	5735.7	
272.89	3860.4	
273.11	4459.1	
273.32	5349.3	
273.53	6537.8	
273.74	4424.3	
273.95	4225.6	
274.16	6255.2	
274.37	5625.1	
274.58	4384	
274.79	3493.2	
275	5630.5	
275.21	6289.3	
275.42	5373.9	
275.63	4595.6	
275.84	5809.4	
276.05	7351.5	
276.26	4227	
276.47	4028.4	
276.68	5334.3	
276.89	6603.3	
277.1	4537.6	
277.31	3570.3	
277.52	5799.8	
277.73	5946.6	
277.94	3432.4	
278.15	3858.4	
278.36	5762.3	
278.57	5193	
278.78	3824.9	
278.99	4354.7	
279.2	5168.4	
279.41	5080.3	
279.62	5066	
279.83	3554.6	
280.04	6890.7	
280.25	4984.8	
280.46	5102.9	
280.67	4031.1	
280.88	5137	
281.09	6288.6	
281.3	4231.1	
281.51	5339.7	
281.72	6113.9	
281.93	6111.8	
282.14	3756.7	
282.35	4013.3	
282.56	6001.9	
282.77	5999.2	
282.98	3807.2	
283.19	4787.5	
283.4	7420.5	
283.61	5443.5	
283.82	3559.4	
284.03	5066.7	
284.24	5649.7	
284.45	6281.8	
284.66	5061.2	
284.87	4866.7	
285.08	6169.2	
285.29	6351.4	
285.5	3398.9	
285.71	3950.5	
285.92	6190.3	
286.12	6920.8	
286.33	4914.4	
286.54	3875.4	
286.75	6057.2	
286.96	5376.6	
287.17	3596.9	
287.38	4881	
287.59	5139.7	
287.8	5059.8	
288.01	3986	
288.22	4505.5	
288.43	6109.1	
288.64	5037.3	
288.85	4746.5	
289.06	4459.1	
289.27	5942.5	
289.48	6556.2	
289.69	4979.3	
289.9	4512.4	
290.11	6196.5	
290.32	5216.9	
290.53	4809.3	
290.74	4384	
290.94	5943.2	
291.15	6084.5	
291.36	3823.6	
291.57	4483	
291.78	5281.7	
291.99	4961.5	
292.2	3614.7	
292.41	4433.9	
292.62	6155.5	
292.83	5877.7	
293.04	5473.5	
293.25	3648.1	
293.46	5331.5	
293.67	6156.2	
293.88	3788.7	
294.09	3633.1	
294.29	5022.3	
294.5	5687.9	
294.71	4043.4	
294.92	3837.9	
295.13	5339.7	
295.34	6735.8	
295.55	3355.3	
295.76	3534.8	
295.97	5943.9	
296.18	6804.7	
296.39	3502	
296.6	3823.6	
296.81	5631.2	
297.01	5935.7	
297.22	3892.5	
297.43	3755.3	
297.64	5147.9	
297.85	5162.2	
298.06	3099.9	
298.27	3324.5	
298.48	5596.4	
298.69	5246.2	
298.9	4106.9	
299.11	3760.1	
299.31	5038	
299.52	5068	
299.73	4332.1	
299.94	4327.4	
300.15	5473.5	
300.36	5124.7	
300.57	4281.6	
300.78	4276.2	
300.99	5389.6	
301.2	5677.7	
301.4	3741	
301.61	4059.1	
301.82	5886.5	
302.03	5988.3	
302.24	4657.8	
302.45	3582.6	
302.66	5868.1	
302.87	6343.2	
303.08	3762.1	
303.29	5145.9	
303.49	5294	
303.7	5578	
303.91	3335.5	
304.12	4955.4	
304.33	5123.3	
304.54	5647.6	
304.75	3835.2	
304.96	3580.5	
305.16	5894.7	
305.37	6716	
305.58	3276.1	
305.79	3419.4	
306	5872.2	
306.21	4973.2	
306.42	3670	
306.63	5863.3	
306.83	5380.7	
307.04	6214.9	
307.25	4136.9	
307.46	4128.7	
307.67	4711	
307.88	6120	
308.09	3676.1	
308.29	3885.7	
308.5	5623	
308.71	6189	
308.92	3981.9	
309.13	3665.9	
309.34	5373.2	
309.55	5452.4	
309.75	4730.1	
309.96	4317.8	
310.17	6006.7	
310.38	5251.7	
310.59	4527.4	
310.8	3532.1	
311.01	5358.9	
311.21	5477.6	
311.42	3538.2	
311.63	3676.8	
311.84	5272.8	
312.05	5744.6	
312.26	4225.6	
312.46	4669.4	
312.67	5390.9	
312.88	5085.8	
313.09	3661.1	
313.3	3577.1	
313.51	6374	
313.71	6765.1	
313.92	3611.9	
314.13	3859.7	
314.34	5694.7	
314.55	5484.5	
314.76	4724.7	
314.96	4062.5	
315.17	5539.8	
315.38	6051.7	
315.59	3678.8	
315.8	3435.1	
316.01	6496.8	
316.21	6500.3	
316.42	3524.6	
316.63	4111.6	
316.84	5450.3	
317.05	6316.6	
317.26	4298.7	
317.46	3876.8	
317.67	5472.2	
317.88	5980.1	
318.09	4642.7	
318.3	3369.6	
318.5	5188.9	
318.71	5903.6	
318.92	5956.9	
319.13	4213.4	
319.34	6112.5	
319.54	6282.5	
319.75	3426.9	
319.96	3209.2	
320.17	5978.7	
320.38	6242.2	
320.58	3273.3	
320.79	3999.7	
321	6123.4	
321.21	6268.8	
321.42	3981.3	
321.62	3339.6	
321.83	5074.9	
322.04	5633.3	
322.25	3870.7	
322.46	3701.4	
322.66	5700.9	
322.87	5858.6	
323.08	4547.2	
323.29	3568.9	
323.5	6612.9	
323.7	5095.3	
323.91	4957.4	
324.12	4531.5	
324.33	5571.8	
324.53	5951.4	
324.74	4383.3	
324.95	4530.8	
325.16	4869.4	
325.37	5383.4	
325.57	3629.7	
325.78	3737.5	
325.99	5605.3	
326.2	5008	
326.4	5345.2	
326.61	3366.2	
326.82	5483.1	
327.03	5686.5	
327.24	5250.3	
327.44	5021.6	
327.65	5807.4	
327.86	4690.5	
328.07	4298.7	
328.27	3510.9	
328.48	6266.1	
328.69	5164.3	
328.9	5336.3	
329.1	3972.4	
329.31	5425.1	
329.52	6429.9	
329.73	3629.7	
329.93	4149.2	
330.14	5523.4	
330.35	5819	
330.56	6104.3	
330.76	4536.3	
330.97	5384.1	
331.18	5812.1	
331.39	4095.9	
331.59	3267.9	
331.8	6223.1	
332.01	6307.1	
332.22	3796.3	
332.42	4368.3	
332.63	5655.8	
332.84	5171.1	
333.05	4164.2	
333.25	3745.1	
333.46	5323.4	
333.67	5556.1	
333.88	3794.2	
334.08	4235.2	
334.29	7625.3	
334.5	6320.7	
334.7	3530	
334.91	5268.1	
335.12	5008.6	
335.33	6025.8	
335.53	4085	
335.74	6055.2	
335.95	5351.3	
336.16	5132.2	
336.36	4009.9	
336.57	4719.2	
336.78	5048.9	
336.98	6159.6	
337.19	5038	
337.4	3998.3	
337.61	6698.2	
337.81	5058.5	
338.02	3738.9	
338.23	4876.2	
338.43	6345.3	
338.64	5186.8	
338.85	3719.1	
339.05	4813.4	
339.26	6483.9	
339.47	4975.2	
339.68	3683.6	
339.88	5445.5	
340.09	5785.5	
340.3	6047	
340.5	4282.3	
340.71	3276.1	
340.92	5035.3	
341.13	6371.2	
341.33	3475.4	
341.54	4265.9	
341.75	5834.7	
341.95	5466	
342.16	4123.9	
342.37	4509.6	
342.57	5128.1	
342.78	5569.8	
342.99	4612.7	
343.19	3274	
343.4	6008.1	
343.61	5845.6	
343.81	3932.8	
344.02	3625.6	
344.23	6051.7	
344.43	6501.6	
344.64	4554.7	
344.85	4450.2	
345.06	5892.7	
345.26	6236.7	
345.47	4267.3	
345.68	4977.2	
345.88	4922	
346.09	6128.9	
346.3	4330.1	
346.5	3277.4	
346.71	5607.3	
346.92	5312.4	
347.12	3319.1	
347.33	4242	
347.54	6151.4	
347.74	6594.5	
347.95	4228.4	
348.16	3167.5	
348.36	5397.8	
348.57	5167	
348.78	4146.5	
348.98	4500.1	
349.19	5511.8	
349.39	5026.4	
349.6	3349.8	
349.81	3766.9	
350.01	5851.7	
350.22	5336.3	
350.43	4118.5	
350.63	4982.7	
350.84	5588.9	
351.05	5380	
351.25	3699.3	
351.46	3386	
351.67	6232	
351.87	5358.2	
352.08	4022.9	
352.29	4556.7	
352.49	6041.5	
352.7	6252.4	
352.9	3672	
353.11	4569.7	
353.32	6790.4	
353.52	5421.7	
353.73	3596.2	
353.94	4592.2	
354.14	5979.4	
354.35	5805.3	
354.55	3753.2	
354.76	4223.6	
354.97	5914.5	
355.17	5706.3	
355.38	3540.3	
355.59	4972.5	
355.79	5302.2	
356	5844.9	
356.2	4212	
356.41	3628.3	
356.62	4995.7	
356.82	5568.4	
357.03	4468.7	
357.24	4044.1	
357.44	5378	
357.65	5515.9	
357.85	5393.7	
358.06	4253.6	
358.27	5166.3	
358.47	5371.8	
358.68	3582.6	
358.88	4467.3	
359.09	6057.9	
359.3	6419.7	
359.5	5292	
359.71	4667.3	
359.91	6974	
360.12	6249.7	
360.33	4481.6	
360.53	5057.8	
360.74	5461.9	
360.94	5573.9	
361.15	4760.2	
361.36	3994.2	
361.56	6382.8	
361.77	5696.8	
361.97	5400.5	
362.18	4265.2	
362.38	6380.8	
362.59	5388.2	
362.8	3925.3	
363	3756.7	
363.21	5147.2	
363.41	5937.7	
363.62	4532.2	
363.83	5636	
364.03	6000.5	
364.24	7080.5	
364.44	5612.8	
364.65	5692.7	
364.85	5727.5	
365.06	5357.5	
365.27	4143	
365.47	4130.1	
365.68	6799.3	
365.88	5763.7	
366.09	4631.1	
366.29	4261.8	
366.5	6092.7	
366.71	6543.9	
366.91	5723.4	
367.12	4758.1	
367.32	7163.8	
367.53	6376.7	
367.73	4751.3	
367.94	5767.1	
368.14	6250.4	
368.35	7320.1	
368.56	4792.2	
368.76	4480.3	
368.97	6383.5	
369.17	8194.6	
369.38	4130.8	
369.58	4449.6	
369.79	5414.8	
369.99	6718	
370.2	5544.5	
370.4	4603.8	
370.61	6140.5	
370.82	7359.7	
371.02	4386.7	
371.23	3758	
371.43	5282.4	
371.64	6784.2	
371.84	4583.4	
372.05	5802.6	
372.25	8222.6	
372.46	6587	
372.66	4645.5	
372.87	4597	
373.07	6605.4	
373.28	8290.9	
373.48	5672.2	
373.69	5433.9	
373.9	6083.1	
374.1	6105	
374.31	5662	
374.51	5208	
374.72	7096.9	
374.92	5797.1	
375.13	6030.6	
375.33	5068	
375.54	6621.1	
375.74	5991	
375.95	5166.3	
376.15	6476.4	
376.36	6680.5	
376.56	6513.2	
376.77	5290.6	
376.97	5695.4	
377.18	7802.8	
377.38	6873	
377.59	6213.5	
377.79	4830.5	
378	6654.5	
378.2	7118.7	
378.41	4914.4	
378.61	4767.7	
378.82	7074.4	
379.02	6270.2	
379.23	5109	
379.43	6293.4	
379.64	7214.3	
379.84	6924.2	
380.05	4900.8	
380.25	4792.9	
380.46	6987	
380.66	6451.1	
380.87	6268.1	
381.07	6675.7	
381.28	7641	
381.48	6909.8	
381.69	4912.4	
381.89	4892.6	
382.1	5763.7	
382.3	7092.8	
382.51	6121.4	
382.71	6939.9	
382.91	6956.9	
383.12	7443	
383.32	5261.2	
383.53	5451.7	
383.73	6638.1	
383.94	6447.7	
384.14	5293.3	
384.35	4380.6	
384.55	6355.5	
384.76	6823.1	
384.96	5139	
385.17	5483.1	
385.37	6879.1	
385.58	6005.3	
385.78	5500.2	
385.98	4216.1	
386.19	6280.4	
386.39	6703.7	
386.6	4928.8	
386.8	5149.3	
387.01	6884.6	
387.21	6909.8	
387.42	5692	
387.62	6404	
387.83	6108.4	
388.03	6993.1	
388.23	5327.4	
388.44	6266.1	
388.64	5947.3	
388.85	6091.3	
389.05	5808.7	
389.26	6472.3	
389.46	8056.7	
389.67	7466.2	
389.87	5818.3	
390.07	5894.7	
390.28	6639.5	
390.48	6139.8	
390.69	4966.3	
390.89	5360.9	
391.1	6417.7	
391.3	7370.6	
391.5	6561	
391.71	7230	
391.91	7180.2	
392.12	8308.6	
392.32	6718.7	
392.53	5771.9	
392.73	6445	
392.93	6578.1	
393.14	5471.5	
393.34	6192.4	
393.55	6987	
393.75	6571.2	
393.95	5370.5	
394.16	5216.9	
394.36	6299.6	
394.57	7081.2	
394.77	4777.9	
394.98	5266	
395.18	6346	
395.38	6574	
395.59	6477	
395.79	5322	
396	6638.8	
396.2	7119.4	
396.4	6214.9	
396.61	6124.8	
396.81	7402.7	
397.02	6636.8	
397.22	6567.2	
397.42	6601.3	
397.63	7428	
397.83	6609.5	
398.04	5270.8	
398.24	5941.8	
398.44	7180.9	
398.65	6265.4	
398.85	5139	
399.05	5302.9	
399.26	6516	
399.46	8431.5	
399.67	5694	
399.87	5472.9	
400.07	7112.6	
400.28	7445	
400.48	5636.7	
400.69	6896.9	
400.89	7793.2	
401.09	8126.3	
401.3	5550	
401.5	6805.4	
401.7	8573.5	
401.91	8811.7	
402.11	5943.9	
402.32	6180.8	
402.52	7727	
402.72	7517.4	
402.93	6154.1	
403.13	4833.9	
403.33	8266.3	
403.54	6746.7	
403.74	5649	
403.94	6574.7	
404.15	6861.4	
404.35	8160.5	
404.56	5545.2	
404.76	7616.4	
404.96	7518.8	
405.17	7342.7	
405.37	6782.2	
405.57	6235.4	
405.78	7768.6	
405.98	7004.1	
406.18	5743.2	
406.39	6641.6	
406.59	7496.2	
406.79	7105.1	
407	5323.4	
407.2	5416.9	
407.4	7535.2	
407.61	7839.6	
407.81	5634	
408.01	8318.2	
408.22	6769.2	
408.42	9013.1	
408.62	7200	
408.83	6687.3	
409.03	7699	
409.23	7458	
409.44	6933.1	
409.64	7157	
409.84	8827.4	
410.05	8688.8	
410.25	7159.7	
410.45	6771.3	
410.66	8282.7	
410.86	10926	
411.06	7461.4	
411.27	7234.1	
411.47	10788	
411.67	8632.2	
411.88	7557.7	
412.08	7980.3	
412.28	9325.8	
412.49	9849.4	
412.69	7362.4	
412.89	7458	
413.09	9655.5	
413.3	9513.5	
413.5	7460.8	
413.7	7232.1	
413.91	8657.4	
414.11	9689.6	
414.31	7410.9	
414.52	7996	
414.72	9299.8	
414.92	9254.8	
415.12	7413.6	
415.33	7989.8	
415.53	9725.1	
415.73	9848.7	
415.94	8429.4	
416.14	7847.8	
416.34	8637.6	
416.55	8413.1	
416.75	9125.7	
416.95	8477.9	
417.15	9730.6	
417.36	10386	
417.56	9375.6	
417.76	8358.4	
417.97	10212	
418.17	9927.2	
418.37	7904.5	
418.57	8066.3	
418.78	9570.2	
418.98	9204.3	
419.18	8859.5	
419.38	8843.1	
419.59	9268.4	
419.79	8703.9	
419.99	7789.8	
420.2	8109.3	
420.4	9738.1	
420.6	9908.1	
420.8	7739.3	
421.01	7570	
421.21	9758.6	
421.41	9725.1	
421.61	8223.3	
421.82	7767.9	
422.02	9071.8	
422.22	9975.7	
422.42	8694.3	
422.63	8062.2	
422.83	9115.5	
423.03	10430	
423.23	8122.2	
423.44	7078.5	
423.64	9255.5	
423.84	8870.4	
424.04	7562.5	
424.25	7183.6	
424.45	10125	
424.65	10056	
424.85	6919.4	
425.06	7578.8	
425.26	9981.1	
425.46	8512	
425.66	8068.3	
425.87	7680.6	
426.07	9824.1	
426.27	9483.5	
426.47	7877.2	
426.67	7066.9	
426.88	9949	
427.08	9410.4	
427.28	8119.5	
427.48	6927.6	
427.69	8256	
427.89	8949.6	
428.09	8039	
428.29	7072.3	
428.5	9702.6	
428.7	9231.6	
428.9	7063.4	
429.1	7602.7	
429.3	9105.3	
429.51	9661	
429.71	7311.2	
429.91	8267	
430.11	9423.4	
430.31	9858.2	
430.52	7703.8	
430.72	8130.4	
430.92	10087	
431.12	9555.8	
431.32	7393.2	
431.53	7703.1	
431.73	8363.9	
431.93	10189	
432.13	7289.4	
432.33	7174.7	
432.54	8957.1	
432.74	9279.3	
432.94	7208.2	
433.14	8242.4	
433.34	9525.1	
433.55	9176.9	
433.75	8243.8	
433.95	10189	
434.15	9293.7	
434.35	9054.8	
434.56	7395.9	
434.76	6945.3	
434.96	9340.1	
435.16	9759.9	
435.36	7319.4	
435.56	8656.1	
435.77	9030.9	
435.97	9290.3	
436.17	9287.5	
436.37	8579.6	
436.57	9003.6	
436.78	9030.2	
436.98	10357	
437.18	9109.4	
437.38	9945.6	
437.58	9105.3	
437.78	9251.4	
437.99	7672.4	
438.19	9622	
438.39	11134	
438.59	7457.3	
438.79	7017.7	
438.99	10317	
439.2	9039.7	
439.4	7144.7	
439.6	7219.8	
439.8	9635	
440	10806	
440.2	8541.4	
440.4	8730.5	
440.61	10198	
440.81	10753	
441.01	7754.3	
441.21	8766	
441.41	10658	
441.61	10163	
441.81	9086.2	
442.02	10121	
442.22	11095	
442.42	10211	
442.62	7793.9	
442.82	7784.3	
443.02	10522	
443.22	9737.4	
443.43	8413.7	
443.63	7882.6	
443.83	9500.5	
444.03	9484.1	
444.23	9428.8	
444.43	8802.9	
444.63	9871.2	
444.83	11167	
445.04	8026	
445.24	9452.7	
445.44	10152	
445.64	10269	
445.84	8716.8	
446.04	8689.5	
446.24	9344.2	
446.44	10454	
446.65	7779.6	
446.85	8267.6	
447.05	9263	
447.25	10439	
447.45	8208.9	
447.65	7669.6	
447.85	9677.3	
448.05	9283.4	
448.25	8787.8	
448.46	8539.3	
448.66	9709.4	
448.86	9358.5	
449.06	7478.5	
449.26	8778.3	
449.46	10248	
449.66	9048.6	
449.86	8337.3	
450.06	8215.8	
450.26	9288.2	
450.47	9854.1	
450.67	8420.6	
450.87	8833.6	
451.07	9996.1	
451.27	9853.5	
451.47	7777.5	
451.67	8480	
451.87	9523.1	
452.07	10623	
452.27	8122.2	
452.47	7974.1	
452.67	9680.1	
452.88	10298	
453.08	7228	
453.28	9481.4	
453.48	11114	
453.68	9624.8	
453.88	7890.8	
454.08	8125.7	
454.28	10150	
454.48	9792	
454.68	8758.5	
454.88	9293	
455.08	10182	
455.28	10125	
455.48	7807.5	
455.68	8527.7	
455.89	10911	
456.09	10561	
456.29	8258.1	
456.49	8408.3	
456.69	10721	
456.89	9863	
457.09	8925	
457.29	9425.4	
457.49	10376	
457.69	10616	
457.89	8962.6	
458.09	8247.2	
458.29	10112	
458.49	11019	
458.69	9398.8	
458.89	8712.7	
459.09	11299	
459.29	11509	
459.49	8681.3	
459.69	9668.5	
459.9	10683	
460.1	10283	
460.3	8518.2	
460.5	8410.3	
460.7	10711	
460.9	10456	
461.1	8035.5	
461.3	9602.2	
461.5	11538	
461.7	11097	
461.9	8757.1	
462.1	9128.5	
462.3	10529	
462.5	11224	
462.7	8873.8	
462.9	8944.2	
463.1	12407	
463.3	12147	
463.5	9247.3	
463.7	10206	
463.9	11004	
464.1	11412	
464.3	9479.4	
464.5	9644.6	
464.7	11690	
464.9	11304	
465.1	11117	
465.3	10064	
465.5	11912	
465.7	12079	
465.9	10411	
466.1	9974.3	
466.3	11930	
466.5	11501	
466.7	11292	
466.9	9890.3	
467.1	11675	
467.3	12686	
467.5	11148	
467.7	9860.3	
467.9	12957	
468.1	13897	
468.3	10673	
468.5	11237	
468.7	11682	
468.9	11580	
469.1	10364	
469.3	11125	
469.5	13788	
469.7	11199	
469.9	10666	
470.1	10043	
470.3	11643	
470.5	11648	
470.7	11240	
470.9	9957.2	
471.1	11466	
471.3	11698	
471.5	9865.7	
471.69	11733	
471.89	11161	
472.09	10610	
472.29	10597	
472.49	10886	
472.69	10957	
472.89	11705	
473.09	9609.8	
473.29	9703.3	
473.49	10953	
473.69	11141	
473.89	10685	
474.09	9835.7	
474.29	12491	
474.49	12113	
474.69	10641	
474.89	9923.1	
475.09	11177	
475.29	11127	
475.49	9316.2	
475.69	9623.4	
475.88	12745	
476.08	11278	
476.28	9183.8	
476.48	9643.2	
476.68	11851	
476.88	11511	
477.08	9306.7	
477.28	9815.9	
477.48	10927	
477.68	11754	
477.88	9163.3	
478.08	9579	
478.28	12055	
478.48	11170	
478.67	9611.8	
478.87	9000.8	
479.07	11927	
479.27	11219	
479.47	9787.9	
479.67	9878.7	
479.87	11602	
480.07	12192	
480.27	9043.8	
480.47	10787	
480.67	11312	
480.87	12011	
481.06	9253.4	
481.26	10247	
481.46	11231	
481.66	11113	
481.86	9762	
482.06	10857	
482.26	10776	
482.46	11781	
482.66	9671.9	
482.86	9196.7	
483.05	11258	
483.25	10603	
483.45	12247	
483.65	9682.8	
483.85	10976	
484.05	11152	
484.25	10139	
484.45	10656	
484.65	12095	
484.84	12213	
485.04	9575.6	
485.24	9684.8	
485.44	12359	
485.64	10593	
485.84	9044.5	
486.04	10456	
486.24	11101	
486.44	11449	
486.63	8985.8	
486.83	9825.5	
487.03	10944	
487.23	11185	
487.43	9035	
487.63	11678	
487.83	11350	
488.02	12168	
488.22	10232	
488.42	10871	
488.62	12129	
488.82	11109	
489.02	9754.5	
489.22	9905.3	
489.41	11998	
489.61	11679	
489.81	9467.1	
490.01	9465	
490.21	12013	
490.41	12742	
490.61	9238.4	
490.8	9570.8	
491	11399	
491.2	10591	
491.4	10040	
491.6	9098.4	
491.8	11206	
491.99	11449	
492.19	8933.2	
492.39	9357.2	
492.59	11964	
492.79	12037	
492.99	10565	
493.18	9541.5	
493.38	12144	
493.58	12997	
493.78	10334	
493.98	9943.6	
494.18	11853	
494.37	11422	
494.57	10750	
494.77	10538	
494.97	12319	
495.17	12694	
495.37	10223	
495.56	10593	
495.76	12865	
495.96	12368	
496.16	11527	
496.36	10345	
496.55	12631	
496.75	12217	
496.95	10770	
497.15	10586	
497.35	12455	
497.54	12549	
497.74	10359	
497.94	12298	
498.14	13353	
498.34	13069	
498.53	10208	
498.73	11004	
498.93	11996	
499.13	12604	
499.33	10805	
499.52	11295	
499.72	12740	
499.92	12924	
500.12	10546	
500.32	10812	
500.51	12835	
500.71	12770	
500.91	11545	
501.11	11267	
501.31	12704	
501.5	13109	
501.7	11923	
501.9	10742	
502.1	12585	
502.29	12852	
502.49	11336	
502.69	11684	
502.89	12626	
503.09	12723	
503.28	10048	
503.48	10095	
503.68	11699	
503.88	11727	
504.07	11144	
504.27	10633	
504.47	12087	
504.67	12193	
504.86	11071	
505.06	10680	
505.26	11652	
505.46	13533	
505.65	10443	
505.85	10797	
506.05	11439	
506.25	12032	
506.44	9691	
506.64	10756	
506.84	11348	
507.04	12428	
507.23	9882.8	
507.43	10494	
507.63	13467	
507.83	11654	
508.02	10506	
508.22	10060	
508.42	13666	
508.62	11262	
508.81	10190	
509.01	10881	
509.21	11034	
509.4	11395	
509.6	10408	
509.8	9825.5	
510	11390	
510.19	13007	
510.39	9838.4	
510.59	9820.7	
510.79	11184	
510.98	12648	
511.18	9877.4	
511.38	9996.8	
511.57	11959	
511.77	11908	
511.97	10608	
512.17	9445.9	
512.36	11983	
512.56	11803	
512.76	9594.1	
512.95	9319.6	
513.15	12035	
513.35	10666	
513.55	10520	
513.74	9676.7	
513.94	12113	
514.14	11352	
514.33	10787	
514.53	10370	
514.73	11359	
514.92	11566	
515.12	9944.3	
515.32	9617.3	
515.51	11614	
515.71	12272	
515.91	11552	
516.11	9840.5	
516.3	13481	
516.5	11209	
516.7	10277	
516.89	11019	
517.09	11240	
517.29	11217	
517.48	10462	
517.68	10050	
517.88	10938	
518.07	11721	
518.27	10406	
518.47	9476.6	
518.66	12248	
518.86	10763	
519.06	9234.3	
519.25	9789.3	
519.45	11088	
519.65	12736	
519.84	10505	
520.04	11338	
520.24	13156	
520.43	11770	
520.63	10103	
520.83	9692.4	
521.02	10785	
521.22	11411	
521.42	10211	
521.61	10868	
521.81	11131	
522.01	11299	
522.2	10238	
522.4	9825.5	
522.6	11928	
522.79	10646	
522.99	10067	
523.18	9301.9	
523.38	11781	
523.58	11715	
523.77	11503	
523.97	9473.2	
524.17	13702	
524.36	12906	
524.56	11025	
524.76	10499	
524.95	11842	
525.15	11406	
525.34	10336	
525.54	10335	
525.74	12120	
525.93	11124	
526.13	11641	
526.33	10266	
526.52	12521	
526.72	12007	
526.91	11678	
527.11	10886	
527.31	12592	
527.5	13067	
527.7	10667	
527.89	9762	
528.09	11656	
528.29	12151	
528.48	11295	
528.68	10808	
528.87	12508	
529.07	12448	
529.27	10733	
529.46	10094	
529.66	11901	
529.85	12454	
530.05	9904	
530.25	10816	
530.44	13463	
530.64	11886	
530.83	10421	
531.03	10745	
531.23	12413	
531.42	12326	
531.62	11563	
531.81	10707	
532.01	12637	
532.21	13248	
532.4	10548	
532.6	10902	
532.79	13536	
532.99	12823	
533.18	11036	
533.38	11981	
533.58	12323	
533.77	13164	
533.97	10898	
534.16	11817	
534.36	13359	
534.55	12400	
534.75	12054	
534.95	10969	
535.14	13297	
535.34	12259	
535.53	10537	
535.73	12606	
535.92	13801	
536.12	12398	
536.31	10534	
536.51	11803	
536.71	12729	
536.9	12257	
537.1	10692	
537.29	10915	
537.49	13220	
537.68	12181	
537.88	11316	
538.07	10521	
538.27	12220	
538.46	13559	
538.66	10463	
538.86	10930	
539.05	12473	
539.25	12922	
539.44	11059	
539.64	10700	
539.83	12118	
540.03	13214	
540.22	10406	
540.42	10559	
540.61	12357	
540.81	12583	
541	11095	
541.2	11715	
541.39	11880	
541.59	12359	
541.78	11434	
541.98	10341	
542.18	11490	
542.37	11513	
542.57	10708	
542.76	11297	
542.96	11533	
543.15	12305	
543.35	10662	
543.54	9974.3	
543.74	12399	
543.93	12010	
544.13	10600	
544.32	11686	
544.52	12331	
544.71	11466	
544.91	9575.6	
545.1	10973	
545.3	11533	
545.49	12208	
545.69	9513.5	
545.88	10137	
546.08	13236	
546.27	12678	
546.47	10636	
546.66	9863	
546.86	12418	
547.05	13001	
547.24	10178	
547.44	9972.9	
547.63	11172	
547.83	12473	
548.02	10365	
548.22	10509	
548.41	10984	
548.61	12508	
548.8	9876	
549	9827.5	
549.19	11626	
549.39	11964	
549.58	9422.7	
549.78	10096	
549.97	11998	
550.17	11488	
550.36	10993	
550.55	12024	
550.75	11418	
550.94	12427	
551.14	9727.2	
551.33	10027	
551.53	10738	
551.72	11908	
551.92	10131	
552.11	9807	
552.31	11772	
552.5	11690	
552.69	11653	
552.89	9340.1	
553.08	11752	
553.28	11413	
553.47	9866.4	
553.67	11041	
553.86	12457	
554.06	10675	
554.25	8908.7	
554.44	9561.3	
554.64	13212	
554.83	12642	
555.03	9420	
555.22	9854.8	
555.42	11800	
555.61	11547	
555.8	9641.2	
556	9964.1	
556.19	10586	
556.39	11820	
556.58	9686.9	
556.78	9658.9	
556.97	11357	
557.16	11198	
557.36	10996	
557.55	9163.3	
557.75	10320	
557.94	12164	
558.13	9413.1	
558.33	9103.9	
558.52	11920	
558.72	10758	
558.91	9171.5	
559.1	9445.2	
559.3	10346	
559.49	10068	
559.69	8725	
559.88	9772.2	
560.07	11202	
560.27	11596	
560.46	9843.2	
560.66	10078	
560.85	11000	
561.04	10090	
561.24	9094.3	
561.43	9219.3	
561.63	10435	
561.82	10667	
562.01	10591	
562.21	9597.5	
562.4	11191	
562.59	12183	
562.79	9467.8	
562.98	9049.3	
563.18	11045	
563.37	12760	
563.56	9964.1	
563.76	8961.9	
563.95	10581	
564.14	10442	
564.34	9361.9	
564.53	9163.3	
564.73	11043	
564.92	11485	
565.11	9534.7	
565.31	8925.7	
565.5	11657	
565.69	10599	
565.89	9170.1	
566.08	9392.7	
566.27	11553	
566.47	11937	
566.66	10067	
566.85	8682.7	
567.05	11161	
567.24	10335	
567.44	9004.2	
567.63	10527	
567.82	11302	
568.02	11022	
568.21	8951.7	
568.4	9479.4	
568.6	10883	
568.79	10803	
568.98	8812.4	
569.18	9157.8	
569.37	10895	
569.56	13030	
569.76	9411.1	
569.95	10528	
570.14	11254	
570.34	11183	
570.53	8819.9	
570.72	8803.5	
570.91	11688	
571.11	10733	
571.3	9220	
571.49	10251	
571.69	10761	
571.88	10416	
572.07	9937.4	
572.27	9848.7	
572.46	10259	
572.65	11442	
572.85	8998.8	
573.04	9448.6	
573.23	11680	
573.43	10919	
573.62	8831.5	
573.81	9523.1	
574	10864	
574.2	10740	
574.39	9208.4	
574.58	9500.5	
574.78	11959	
574.97	11112	
575.16	9747	
575.36	9942.9	
575.55	11447	
575.74	11602	
575.93	8861.6	
576.13	9803.6	
576.32	10622	
576.51	11345	
576.71	9265	
576.9	10702	
577.09	11690	
577.28	11171	
577.48	9848	
577.67	8637.6	
577.86	10838	
578.05	11242	
578.25	9468.4	
578.44	9456.8	
578.63	11060	
578.83	12211	
579.02	8738.7	
579.21	10395	
579.4	11073	
579.6	10826	
579.79	9610.4	
579.98	11915	
580.17	11494	
580.37	11569	
580.56	9010.4	
580.75	9833.7	
580.94	12201	
581.14	11910	
581.33	10379	
581.52	9228.8	
581.71	11366	
581.91	12169	
582.1	8848.6	
582.29	9557.9	
582.48	11018	
582.68	11000	
582.87	10013	
583.06	9686.9	
583.25	11383	
583.45	11274	
583.64	10258	
583.83	11129	
584.02	10759	
584.21	11297	
584.41	10356	
584.6	9606.3	
584.79	11043	
584.98	11869	
585.18	8886.8	
585.37	8940.7	
585.56	10545	
585.75	11325	
585.94	9196.7	
586.14	9820	
586.33	11901	
586.52	10865	
586.71	9646.6	
586.91	9250	
587.1	10159	
587.29	11300	
587.48	9106.6	
587.67	8993.3	
587.87	11015	
588.06	11248	
588.25	10389	
588.44	9610.4	
588.63	10652	
588.83	11299	
589.02	8885.5	
589.21	8782.4	
589.4	10144	
589.59	9999.5	
589.78	7823.2	
589.98	7992.5	
590.17	9475.3	
590.36	10092	
590.55	7309.2	
590.74	8213.7	
590.94	11473	
591.13	9924.5	
591.32	8057.4	
591.51	7561.1	
591.7	10561	
591.89	9995.5	
592.09	7757.7	
592.28	8197.3	
592.47	9214.5	
592.66	11166	
592.85	7674.4	
593.05	7970.7	
593.24	9759.3	
593.43	10647	
593.62	7992.5	
593.81	8652	
594	9898.5	
594.19	10178	
594.39	7989.8	
594.58	7903.1	
594.77	10148	
594.96	10827	
595.15	7820.5	
595.34	8410.3	
595.54	10102	
595.73	9193.3	
595.92	7114	
596.11	8407.6	
596.3	10729	
596.49	9324.4	
596.68	8191.9	
596.88	8658.1	
597.07	10368	
597.26	9103.2	
597.45	7689.4	
597.64	8957.1	
597.83	9354.4	
598.02	10114	
598.22	7729	
598.41	8546.9	
598.6	9925.1	
598.79	9244.5	
598.98	7782.3	
599.17	8822	
599.36	9886.2	
599.55	11260	
599.74	9977.7	
599.94	9704.6	
600.13	10550	
600.32	9250	
600.51	7572.7	
600.7	7712	
600.89	11302	
601.08	11183	
601.27	7524.2	
601.47	8568	
601.66	10378	
601.85	11093	
602.04	8186.4	
602.23	8472.4	
602.42	9402.9	
602.61	10116	
602.8	8036.2	
602.99	7860.8	
603.18	9783.8	
603.37	10035	
603.57	8611	
603.76	9230.2	
603.95	10888	
604.14	10446	
604.33	8002.1	
604.52	8401.5	
604.71	9949.7	
604.9	9558.6	
605.09	8882.7	
605.28	8678.6	
605.47	10648	
605.66	10257	
605.86	8626	
606.05	8000.7	
606.24	10547	
606.43	8995.4	
606.62	8269.7	
606.81	9212.4	
607	10420	
607.19	9708.1	
607.38	7686.7	
607.57	8002.8	
607.76	9480	
607.95	8865	
608.14	8355	
608.33	8936	
608.52	9428.8	
608.72	10408	
608.91	7637.6	
609.1	7394.5	
609.29	9579	
609.48	8978.3	
609.67	8561.9	
609.86	7489.4	
610.05	9129.8	
610.24	9450.7	
610.43	7348.1	
610.62	6927.6	
610.81	10744	
611	10297	
611.19	7471.7	
611.38	8313.4	
611.57	9716.9	
611.76	11163	
611.95	7212.3	
612.14	7223.2	
612.33	9557.2	
612.52	8977.6	
612.71	7881.9	
612.9	6972	
613.09	8572.8	
613.28	11111	
613.47	7556.3	
613.66	8555.7	
613.85	9585.9	
614.04	9131.9	
614.24	7609.6	
614.43	6782.2	
614.62	9759.3	
614.81	9797.5	
615	8228.7	
615.19	8202.8	
615.38	9066.4	
615.57	9364.7	
615.76	8017.1	
615.95	8971.5	
616.14	9795.4	
616.33	9346.9	
616.52	8355	
616.71	8687.5	
616.9	9777.7	
617.09	9555.8	
617.28	7666.9	
617.47	9282.8	
617.66	8850.6	
617.85	8881.4	
618.04	8695.7	
618.22	8099.7	
618.41	9220	
618.6	10176	
618.79	8011.7	
618.98	7651.9	
619.17	10503	
619.36	8677.9	
619.55	7778.2	
619.74	7883.3	
619.93	9651.4	
620.12	9164	
620.31	8550.3	
620.5	8636.3	
620.69	10324	
620.88	10678	
621.07	9359.9	
621.26	8316.1	
621.45	9979.8	
621.64	9867.1	
621.83	8490.2	
622.02	7600.7	
622.21	9860.3	
622.4	9708.1	
622.59	9015.2	
622.78	8673.1	
622.97	9245.9	
623.16	10374	
623.35	8393.9	
623.54	7382.9	
623.72	9400.2	
623.91	9682.8	
624.1	8699.1	
624.29	7219.8	
624.48	10736	
624.67	9940.8	
624.86	8613.1	
625.05	7552.2	
625.24	10865	
625.43	9161.2	
625.62	10301	
625.81	7637.6	
626	10287	
626.19	9503.9	
626.38	8563.2	
626.56	7881.3	
626.75	9200.8	
626.94	9747.6	
627.13	8523.6	
627.32	7160.4	
627.51	9770.2	
627.7	11159	
627.89	7238.2	
628.08	8409.6	
628.27	8989.9	
628.46	9274.6	
628.65	7590.5	
628.83	7211.6	
629.02	9798.2	
629.21	9127.8	
629.4	8059.4	
629.59	8322.3	
629.78	9008.3	
629.97	10041	
630.16	8338.6	
630.35	7672.4	
630.54	10565	
630.72	10266	
630.91	7762.5	
631.1	8381.7	
631.29	9647.3	
631.48	9830.9	
631.67	8432.9	
631.86	7837.6	
632.05	9204.9	
632.24	9273.9	
632.42	7489.4	
632.61	8124.3	
632.8	9388.6	
632.99	8970.8	
633.18	8162.5	
633.37	8541.4	
633.56	9628.2	
633.75	9426.1	
633.93	8166.6	
634.12	7762.5	
634.31	10475	
634.5	10049	
634.69	7752.9	
634.88	8340.7	
635.07	9368.8	
635.25	10028	
635.44	8787.8	
635.63	8953.7	
635.82	9283.4	
636.01	8626	
636.2	8564.6	
636.39	8148.9	
636.57	10457	
636.76	9987.9	
636.95	7672.4	
637.14	9078.6	
637.33	9635	
637.52	10636	
637.7	7423.2	
637.89	8417.8	
638.08	9256.1	
638.27	10787	
638.46	8436.3	
638.65	8912.8	
638.83	10766	
639.02	9029.5	
639.21	8321.6	
639.4	8811.7	
639.59	9503.3	
639.78	9149	
639.96	7500.3	
640.15	7604.8	
640.34	9431.6	
640.53	9556.5	
640.72	7291.5	
640.91	7589.8	
641.09	8774.2	
641.28	10178	
641.47	7575.4	
641.66	8448.6	
641.85	9417.9	
642.03	9684.8	
642.22	8165.3	
642.41	7729	
642.6	8843.8	
642.79	8112	
642.97	7324.9	
643.16	8082	
643.35	8864.3	
643.54	8548.2	
643.73	7249.8	
643.91	8085.4	
644.1	8419.2	
644.29	9050.7	
644.48	7292.1	
644.67	7365.2	
644.85	8544.8	
645.04	8858.8	
645.23	6791.7	
645.42	7059.3	
645.6	8365.3	
645.79	9585.9	
645.98	7133.1	
646.17	6049.7	
646.36	8036.2	
646.54	8630.8	
646.73	7811.6	
646.92	6588.3	
647.11	8246.5	
647.29	9368.8	
647.48	6683.9	
647.67	6395.8	
647.86	9556.5	
648.05	9570.2	
648.23	7047.7	
648.42	8421.2	
648.61	8885.5	
648.8	8628.1	
648.98	6704.4	
649.17	7098.9	
649.36	8261.5	
649.55	7791.8	
649.73	6709.8	
649.92	7587.7	
650.11	8131.1	
650.3	8504.5	
650.48	6812.2	
650.67	6466.8	
650.86	8727.1	
651.05	7590.5	
651.23	6766.5	
651.42	6759	
651.61	8133.8	
651.79	8402.8	
651.98	7004.1	
652.17	6636.1	
652.36	8708.6	
652.54	7743.4	
652.73	6655.9	
652.92	6522.8	
653.11	8589.9	
653.29	8691.6	
653.48	5849	
653.67	6985.6	
653.85	8415.8	
654.04	9522.4	
654.23	7139.2	
654.42	6647.7	
654.6	7741.3	
654.79	8450.6	
654.98	5977.3	
655.16	6568.5	
655.35	7348.1	
655.54	7283.3	
655.73	6112.5	
655.91	6124.1	
656.1	8652.7	
656.29	7438.2	
656.47	5660.6	
656.66	7539.9	
656.85	7754.3	
657.03	7707.9	
657.22	6258.6	
657.41	6367.1	
657.59	7891.5	
657.78	7539.9	
657.97	5909.8	
658.16	6729.6	
658.34	8557.1	
658.53	8893	
658.72	7623.9	
658.9	8236.9	
659.09	7823.9	
659.28	7976.2	
659.46	6375.3	
659.65	6395.1	
659.84	7744.7	
660.02	8275.8	
660.21	6254.5	
660.4	6305.7	
660.58	8732.5	
660.77	7996.6	
660.96	6929	
661.14	5961	
661.33	9316.2	
661.52	9143.5	
661.7	5724.1	
661.89	9669.8	
662.08	7595.9	
662.26	7202	
662.45	6055.2	
662.64	6286.6	
662.82	8349.6	
663.01	7524.2	
663.2	6279.1	
663.38	7055.9	
663.57	8206.9	
663.75	8103.1	
663.94	6599.9	
664.13	7965.2	
664.31	7576.1	
664.5	8384.4	
664.69	6735.1	
664.87	7491.5	
665.06	7397.3	
665.25	8215.8	
665.43	7717.4	
665.62	7804.1	
665.8	8474.5	
665.99	7708.6	
666.18	6571.9	
666.36	6678.4	
666.55	8426	
666.74	8322.9	
666.92	6098.2	
667.11	7927	
667.29	7719.5	
667.48	8378.2	
667.67	7516.7	
667.85	6695.5	
668.04	7808.2	
668.22	7728.4	
668.41	6605.4	
668.6	6696.2	
668.78	7503.1	
668.97	7736.5	
669.15	6991.1	
669.34	5847	
669.53	7516.7	
669.71	8010.3	
669.9	6050.4	
670.08	6762.4	
670.27	7481.2	
670.46	8146.1	
670.64	6974	
670.83	7262.1	
671.01	7363.8	
671.2	8098.4	
671.38	6099.5	
671.57	6025.8	
671.76	8768	
671.94	9381.1	
672.13	5965.7	
672.31	7186.3	
672.5	8346.8	
672.69	7465.5	
672.87	6161	
673.06	6517.3	
673.24	8103.8	
673.43	7567.2	
673.61	6890	
673.8	6406.7	
673.98	8226.7	
674.17	8458.8	
674.36	7103	
674.54	6881.2	
674.73	8037.6	
674.91	8204.8	
675.1	6627.9	
675.28	6238.1	
675.47	7792.5	
675.65	8467	
675.84	6478.4	
676.03	6853.9	
676.21	7482.6	
676.4	7068.2	
676.58	7271	
676.77	7093.5	
676.95	9062.3	
677.14	7389.1	
677.32	6108.4	
677.51	5801.2	
677.69	8331.8	
677.88	7109.2	
678.06	5920.7	
678.25	6108.4	
678.44	7676.5	
678.62	7509.9	
678.81	5787.6	
678.99	6808.1	
679.18	8655.4	
679.36	8137.9	
679.55	6281.8	
679.73	7122.2	
679.92	8135.9	
680.1	7458	
680.29	7695.6	
680.47	6417	
680.66	7398.6	
680.84	8396.7	
681.03	5664	
681.21	6805.4	
681.4	7445	
681.58	7350.8	
681.77	6078.4	
681.95	6044.9	
682.14	8346.2	
682.32	8718.9	
682.51	7047.7	
682.69	5840.8	
682.88	7366.5	
683.06	8051.2	
683.25	6736.5	
683.43	7262.8	
683.62	7644.4	
683.8	8073.1	
683.99	7288.7	
684.17	6540.5	
684.36	8894.3	
684.54	7496.9	
684.73	5484.5	
684.91	5784.8	
685.1	7761.1	
685.28	7091.4	
685.46	6290	
685.65	6391.7	
685.83	8101.8	
686.02	7364.5	
686.2	5878.4	
686.39	6011.5	
686.57	7153.6	
686.76	8814.5	
686.94	5907.7	
687.13	6081.8	
687.31	7881.9	
687.5	7451.2	
687.68	5510.4	
687.86	6872.3	
688.05	9024.7	
688.23	6959	
688.42	6894.1	
688.6	5941.8	
688.79	7329.7	
688.97	7345.4	
689.16	6487.3	
689.34	5279	
689.52	8162.5	
689.71	8382.3	
689.89	6703	
690.08	5905.7	
690.26	7486	
690.45	7451.9	
690.63	6774	
690.81	5987.6	
691	7174	
691.18	7101.7	
691.37	6100.2	
691.55	8512.7	
691.74	7096.9	
691.92	9291.6	
692.1	6199.2	
692.29	5584.8	
692.47	7356.3	
692.66	6553.5	
692.84	5922	
693.02	6477.7	
693.21	6800.6	
693.39	7317.4	
693.58	6567.2	
693.76	6001.9	
693.94	8594.6	
694.13	8387.1	
694.31	5974.6	
694.5	7131	
694.68	7227.3	
694.86	7608.2	
695.05	6399.9	
695.23	6441.5	
695.42	8040.3	
695.6	10566	
695.78	6965.8	
695.97	5961.6	
696.15	7970.7	
696.34	7322.9	
696.52	5724.8	
696.7	6511.2	
696.89	7687.4	
697.07	7048.4	
697.25	6554.2	
697.44	8168	
697.62	7597.3	
697.81	7985	
697.99	6193.7	
698.17	6646.3	
698.36	6893.5	
698.54	7641	
698.72	6530.3	
698.91	5494	
699.09	7173.4	
699.28	7146.7	
699.46	6123.4	
699.64	6057.9	
699.83	7013.6	
700.01	8485.4	
700.19	6873.7	
700.38	5218.9	
700.56	8288.8	
700.74	7109.9	
700.93	5668.1	
701.11	6614.3	
701.29	7751.6	
701.48	8834.9	
701.66	5913.9	
701.84	5949.3	
702.03	7178.1	
702.21	7926.3	
702.39	5451.7	
702.58	6125.5	
702.76	7573.4	
702.94	7796.6	
703.13	5464	
703.31	8101.1	
703.49	6929.6	
703.68	8572.8	
703.86	5709.7	
704.04	6766.5	
704.23	7531.7	
704.41	7931.8	
704.59	5900.9	
704.78	7214.3	
704.96	8679.3	
705.14	7946.8	
705.33	5582.8	
705.51	6499.6	
705.69	7436.2	
705.87	8220.5	
706.06	6785.6	
706.24	5629.9	
706.42	7721.5	
706.61	7990.5	
706.79	6867.5	
706.97	5598.5	
707.16	7135.8	
707.34	7739.3	
707.52	6916	
707.7	5961.6	
707.89	7265.5	
708.07	6965.1	
708.25	6862.1	
708.44	6960.4	
708.62	7219.8	
708.8	8280.6	
708.98	7043	
709.17	5999.9	
709.35	7702.4	
709.53	7638.9	
709.72	5732.9	
709.9	5803.3	
710.08	7918.8	
710.26	7998.7	
710.45	7428	
710.63	6004.6	
710.81	7533.1	
710.99	7550.2	
711.18	6642.2	
711.36	6136.4	
711.54	7428.7	
711.72	8082.7	
711.91	6246.3	
712.09	5574.6	
712.27	7503.8	
712.45	8155	
712.64	6509.8	
712.82	5358.9	
713	6870.3	
713.18	6971.3	
713.37	5433.3	
713.55	6718	
713.73	7979.6	
713.91	6384.2	
714.1	5799.8	
714.28	5140.4	
714.46	7406.1	
714.64	6586.3	
714.83	4605.9	
715.01	5451	
715.19	6662.7	
715.37	6023.1	
715.55	5181.4	
715.74	5549.3	
715.92	7677.8	
716.1	5619.6	
716.28	6745.3	
716.47	5671.5	
716.65	6339.1	
716.83	6454.5	
717.01	5502.9	
717.19	5608.7	
717.38	8660.2	
717.56	6123.4	
717.74	5881.8	
717.92	4937.7	
718.1	7495.6	
718.29	6653.9	
718.47	4594.3	
718.65	5367	
718.83	7374.7	
719.01	7290.8	
719.2	4455	
719.38	5651.7	
719.56	6951.5	
719.74	8754.4	
719.92	5169.8	
720.11	6329.6	
720.29	6893.5	
720.47	6032.6	
720.65	4680.3	
720.83	5532.2	
721.02	6371.9	
721.2	6158.2	
721.38	5667.4	
721.56	4802.5	
721.74	5659.9	
721.92	5937.1	
722.11	6260.6	
722.29	5851.7	
722.47	7274.4	
722.65	6350.1	
722.83	4905.6	
723.01	5917.3	
723.2	6475.7	
723.38	6701.6	
723.56	4231.8	
723.74	5540.4	
723.92	5903.6	
724.1	7186.3	
724.29	4839.4	
724.47	6062.7	
724.65	5960.3	
724.83	5845.6	
725.01	4742.4	
725.19	5709.7	
725.37	6023.1	
725.56	6067.4	
725.74	4556.7	
725.92	4844.8	
726.1	5856.5	
726.28	6225.1	
726.46	5309	
726.64	5027.1	
726.83	6201.9	
727.01	6455.2	
727.19	4559.5	
727.37	5433.3	
727.55	6351.4	
727.73	6965.1	
727.91	4571.7	
728.09	4376.5	
728.28	6886	
728.46	7580.2	
728.64	5626.5	
728.82	5502.2	
729	8148.9	
729.18	7373.4	
729.36	4783.4	
729.54	7262.8	
729.72	8494.3	
729.91	6628.6	
730.09	6857.3	
730.27	5505.6	
730.45	6516	
730.63	7253.2	
730.81	6153.5	
730.99	5160.9	
731.17	7791.2	
731.35	6283.2	
731.53	5752.1	
731.71	5294	
731.9	7424.6	
732.08	7659.4	
732.26	5550.7	
732.44	5193.6	
732.62	7677.8	
732.8	7169.9	
732.98	5993.7	
733.16	4948.6	
733.34	7140.6	
733.52	5861.3	
733.7	5524.1	
733.88	5935.7	
734.07	6993.8	
734.25	6743.3	
734.43	4973.2	
734.61	6655.9	
734.79	8413.1	
734.97	6642.9	
735.15	5130.2	
735.33	5567.7	
735.51	7101	
735.69	6634.1	
735.87	6808.1	
736.05	5797.8	
736.23	6851.8	
736.41	6627.2	
736.59	5654.4	
736.77	5730.2	
736.95	7446.4	
737.13	6761.7	
737.32	5218.9	
737.5	5569.1	
737.68	8013.7	
737.86	6685.9	
738.04	5068	
738.22	7085.3	
738.4	6432.7	
738.58	6707.1	
738.76	5765	
738.94	4616.1	
739.12	6611.5	
739.3	6554.2	
739.48	6392.4	
739.66	6105	
739.84	6969.2	
740.02	6885.3	
740.2	4773.1	
740.38	5128.8	
740.56	7342.7	
740.74	6047.7	
740.92	5813.5	
741.1	5782.1	
741.28	6703	
741.46	6509.1	
741.64	5373.2	
741.82	5883.1	
742	6789	
742.18	6789	
742.36	5589.6	
742.54	5135.6	
742.72	7415	
742.9	6060.6	
743.08	6001.9	
743.26	4713.7	
743.44	7592.5	
743.62	7376.1	
743.8	6183.5	
743.98	5154.7	
744.16	7083.2	
744.34	6787	
744.52	6144.6	
744.7	6011.5	
744.88	7298.3	
745.06	6696.2	
745.24	6099.5	
745.42	6271.6	
745.6	7314.7	
745.78	6987.7	
745.96	4864.6	
746.14	5184.1	
746.32	8111.3	
746.5	7344.7	
746.68	5788.9	
746.86	5218.2	
747.03	7829.4	
747.21	6008.1	
747.39	5806	
747.57	5226.4	
747.75	6896.2	
747.93	7346.1	
748.11	5284.4	
748.29	5084.4	
748.47	8608.3	
748.65	6605.4	
748.83	5961	
749.01	5618.9	
749.19	7105.8	
749.37	6275.7	
749.55	5558.9	
749.73	5619.6	
749.91	6753.5	
750.09	6463.4	
750.26	5679.7	
750.44	5094.7	
750.62	6793.1	
750.8	6706.4	
750.98	4870.1	
751.16	5252.4	
751.34	6849.8	
751.52	6173.3	
751.7	6144.6	
751.88	4887.8	
752.06	7341.3	
752.24	7210.2	
752.42	4731.5	
752.59	5197.7	
752.77	6707.8	
752.95	8039.6	
753.13	6051.1	
753.31	5337.7	
753.49	6454.5	
753.67	6848.4	
753.85	5713.2	
754.03	5194.3	
754.21	7166.5	
754.38	7546.1	
754.56	5312.4	
754.74	4345.1	
754.92	6363	
755.1	7167.2	
755.28	4360.1	
755.46	4367.6	
755.64	7799.3	
755.82	7880.6	
755.99	4530.1	
756.17	4603.8	
756.35	5109	
756.53	6815	
756.71	3434.4	
756.89	4425.7	
757.07	6464.1	
757.25	5401.9	
757.42	5011.4	
757.6	6040.8	
757.78	6550.8	
757.96	5397.1	
758.14	4787.5	
758.32	4222.9	
758.5	4952	
758.67	5872.9	
758.85	4453.6	
759.03	4723.3	
759.21	6038.1	
759.39	5356.8	
759.57	4054.3	
759.75	5336.3	
759.92	6684.6	
760.1	5876.3	
760.28	5716.6	
760.46	6013.5	
760.64	5709.1	
760.82	5431.2	
760.99	5605.3	
761.17	4701.5	
761.35	6697.5	
761.53	5498.1	
761.71	4843.4	
761.89	5558.9	
762.06	6631.3	
762.24	5944.6	
762.42	5029.1	
762.6	4752.7	
762.78	5984.8	
762.96	6621.8	
763.13	5353.4	
763.31	5078.3	
763.49	6929.6	
763.67	5980.8	
763.85	6021	
764.02	6555.5	
764.2	7125.6	
764.38	6326.9	
764.56	4872.1	
764.74	5890	
764.91	7372	
765.09	6167.1	
765.27	4553.3	
765.45	4427.7	
765.63	7295.5	
765.8	7191.1	
765.98	4048.8	
766.16	4486.4	
766.34	5695.4	
766.52	5453.1	
766.69	5413.5	
766.87	4289.1	
767.05	6096.1	
767.23	6944.7	
767.41	4629.1	
767.58	4823.6	
767.76	6701	
767.94	6740.5	
768.12	4699.4	
768.29	5506.3	
768.47	6210.8	
768.65	6953.5	
768.83	4305.5	
769	5450.3	
769.18	5649	
769.36	6368.5	
769.54	5457.2	
769.72	4358.8	
769.89	6724.2	
770.07	6839.5	
770.25	4694.6	
770.43	6044.9	
770.6	7630.7	
770.78	7988.4	
770.96	4861.2	
771.14	5615.5	
771.31	6535.1	
771.49	5944.6	
771.67	3959.4	
771.85	4162.2	
772.02	5109	
772.2	5958.9	
772.38	4990.9	
772.55	4525.3	
772.73	6170.5	
772.91	5978.7	
773.09	4854.4	
773.26	4977.2	
773.44	6107	
773.62	5844.9	
773.8	4395.6	
773.97	4049.5	
774.15	6195.8	
774.33	5795.1	
774.5	4164.2	
774.68	4610.7	
774.86	6488.6	
775.04	5799.2	
775.21	4322.6	
775.39	4276.8	
775.57	6121.4	
775.74	6665.5	
775.92	4130.8	
776.1	4051.6	
776.27	6039.5	
776.45	7496.2	
776.63	4250.2	
776.81	3783.3	
776.98	5696.1	
777.16	6940.6	
777.34	4431.8	
777.51	4387.4	
777.69	5720.7	
777.87	5472.2	
778.04	4425	
778.22	5137	
778.4	5469.4	
778.57	6150.1	
778.75	3676.1	
778.93	3980.6	
779.1	5214.1	
779.28	5134.3	
779.46	3667.2	
779.64	4270	
779.81	6394.4	
779.99	7287.4	
780.17	5070.1	
780.34	5251.7	
780.52	5754.1	
780.69	5997.1	
780.87	4603.2	
781.05	4121.9	
781.22	5829.2	
781.4	5946.6	
781.58	4183.3	
781.75	3392.1	
781.93	5837.4	
782.11	5221	
782.28	5215.5	
782.46	4245.4	
782.64	4975.9	
782.81	6118	
782.99	4324.6	
783.17	4314.4	
783.34	5916.6	
783.52	5086.5	
783.69	4567	
783.87	5406	
784.05	5106.3	
784.22	5158.8	
784.4	5423.7	
784.58	4601.8	
784.75	6208.1	
784.93	5138.4	
785.1	4219.5	
785.28	4971.8	
785.46	5875.6	
785.63	5167.7	
785.81	4186.7	
785.99	4061.1	
786.16	5319.9	
786.34	5816.9	
786.51	4102.8	
786.69	4506.2	
786.87	4913.1	
787.04	5489.2	
787.22	3922.5	
787.39	4958.1	
787.57	5132.9	
787.75	6313.2	
787.92	5106.3	
788.1	5030.5	
788.27	5205.9	
788.45	4982	
788.63	4796.3	
788.8	3387.3	
788.98	5607.3	
789.15	4889.9	
789.33	3549.1	
789.5	4194.2	
789.68	6167.1	
789.86	6331	
790.03	4741.7	
790.21	4123.2	
790.38	6150.1	
790.56	5278.3	
790.73	3913	
790.91	3983.3	
791.09	5190.9	
791.26	5963	
791.44	4198.3	
791.61	3633.8	
791.79	5179.3	
791.96	5285.1	
792.14	3733.4	
792.32	3339.6	
792.49	5188.9	
792.67	5359.5	
792.84	3766.2	
793.02	3547.1	
793.19	5663.3	
793.37	6455.9	
793.54	3331.4	
793.72	3756	
793.89	6635.4	
794.07	5190.9	
794.25	4412.7	
794.42	3357.3	
794.6	6342.6	
794.77	5964.4	
794.95	4648.2	
795.12	4032.5	
795.3	5175.2	
795.47	5868.8	
795.65	4479.6	
795.82	4277.5	
796	4981.3	
796.17	7045	
796.35	4177.9	
796.52	4843.4	
796.7	5786.9	
796.87	5844.2	
797.05	5203.2	
797.22	4995	
797.4	5760.9	
797.57	6923.5	
797.75	4259.8	
797.92	4065.2	
798.1	6137.1	
798.27	5211.4	
798.45	3415.3	
798.62	3683.6	
798.8	5534.3	
798.97	6028.5	
799.15	4532.8	
799.32	4267.3	
799.5	4713.1	
799.67	5552.7	
799.85	4657.1	
800.02	3345	
800.2	5130.8	
800.37	5458.5	
800.55	4788.8	
800.72	3966.2	
800.9	6012.8	
801.07	6478.4	
801.25	5427.1	
801.42	4434.5	
801.6	6019	
801.77	5801.2	
801.95	3945.1	
802.12	3874.1	
802.29	5649.7	
802.47	5668.8	
802.64	4392.2	
802.82	3268.6	
802.99	5078.3	
803.17	6229.9	
803.34	4233.2	
803.52	3796.3	
803.69	6988.4	
803.87	4943.1	
804.04	4173.1	
804.21	4302.8	
804.39	6356.9	
804.56	5354.8	
804.74	3551.2	
804.91	4424.3	
805.09	5160.9	
805.26	5279	
805.44	3686.3	
805.61	4066.6	
805.78	5895.4	
805.96	5926.8	
806.13	4406.5	
806.31	4770.4	
806.48	4700.8	
806.66	5284.4	
806.83	4400.4	
807	4306.9	
807.18	5130.8	
807.35	5622.4	
807.53	3981.3	
807.7	3431.7	
807.87	6477.7	
808.05	5190.9	
808.22	4801.8	
808.4	3422.8	
808.57	5187.5	
808.74	4813.4	
808.92	3949.2	
809.09	5012.1	
809.27	4977.2	
809.44	5776.6	
809.61	3426.9	
809.79	3879.5	
809.96	6384.2	
810.14	5991.7	
810.31	3362.8	
810.48	4122.6	
810.66	5297.4	
810.83	6161	
811.01	3917.8	
811.18	4379.2	
811.35	6011.5	
811.53	4617.5	
811.7	4768.4	
811.87	4455.7	
812.05	5201.8	
812.22	5117.2	
812.39	3779.2	
812.57	3703.4	
812.74	5211.4	
812.92	7002	
813.09	4142.4	
813.26	4478.2	
813.44	6728.3	
813.61	5129.5	
813.78	3413.3	
813.96	4660.5	
814.13	5191.6	
814.3	4846.2	
814.48	5016.2	
814.65	4091.2	
814.82	6517.3	
815	4965.6	
815.17	4216.1	
815.34	5218.2	
815.52	5129.5	
815.69	5149.3	
815.87	4259.1	
816.04	4115.7	
816.21	5347.9	
816.38	4558.8	
816.56	4049.5	
816.73	3748.5	
816.9	6629.3	
817.08	6066.1	
817.25	3819.5	
817.42	4859.1	
817.6	4802.5	
817.77	5300.1	
817.94	4341	
818.12	3810.6	
818.29	4971.8	
818.46	7851.9	
818.64	3966.2	
818.81	3679.5	
818.98	4846.2	
819.16	7166.5	
819.33	4590.2	
819.5	4239.3	
819.67	5635.3	
819.85	6322.8	
820.02	4222.9	
820.19	4379.9	
820.37	5453.1	
820.54	5021.6	
820.71	4295.3	
820.88	5360.2	
821.06	5504.3	
821.23	4950.6	
821.4	4359.4	
821.58	4287.8	
821.75	5976	
821.92	5453.1	
822.09	3481.5	
822.27	3610.6	
822.44	5199.8	
822.61	5071.5	
822.79	3462.4	
822.96	6779.5	
823.13	5789.6	
823.3	4903.5	
823.48	4024.9	
823.65	3626.3	
823.82	5935.7	
823.99	4691.2	
824.17	5152	
824.34	3659.7	
824.51	6944.7	
824.68	5299.5	
824.86	3845.4	
825.03	4305.5	
825.2	5222.3	
825.37	6414.2	
825.55	3824.9	
825.72	4292.5	
825.89	7021.8	
826.06	6510.5	
826.24	4160.8	
826.41	4212	
826.58	6418.3	
826.75	5552.7	
826.92	3242.6	
827.1	3558.7	
827.27	8733.2	
827.44	6988.4	
827.61	3903.4	
827.79	4770.4	
827.96	4902.2	
828.13	5324.7	
828.3	4171.7	
828.47	3448.8	
828.65	5390.3	
828.82	5452.4	
828.99	5371.1	
829.16	4631.1	
829.34	5877	
829.51	5599.8	
829.68	4301.4	
829.85	4475.5	
830.02	6154.1	
830.2	5885.2	
830.37	3323.2	
830.54	5203.2	
830.71	6731.7	
830.88	5165.7	
831.05	3310.9	
831.23	3913	
831.4	6442.2	
831.57	7242.3	
831.74	3975.8	
831.91	3423.5	
832.09	5378.6	
832.26	5873.6	
832.43	4061.8	
832.6	4658.4	
832.77	5435.3	
832.94	6328.9	
833.12	3186.6	
833.29	4001	
833.46	5016.2	
833.63	7507.9	
833.8	4481.6	
833.97	4170.3	
834.15	5861.3	
834.32	5589.6	
834.49	4276.8	
834.66	4356	
834.83	6160.3	
835	4971.1	
835.17	3941.7	
835.35	3919.8	
835.52	5735.7	
835.69	5628.5	
835.86	4168.3	
836.03	3391.4	
836.2	5806.7	
836.37	5362.9	
836.55	4035.2	
836.72	3834.5	
836.89	5399.8	
837.06	5926.8	
837.23	4194.2	
837.4	4659.8	
837.57	6705	
837.75	7432.8	
837.92	3760.8	
838.09	3978.5	
838.26	5334.3	
838.43	6146.6	
838.6	4302.8	
838.77	3837.2	
838.94	7094.8	
839.11	6717.3	
839.29	4113.7	
839.46	3188.7	
839.63	5840.1	
839.8	5520	
839.97	3956.7	
840.14	3946.4	
840.31	5577.3	
840.48	5854.5	
840.65	3254.9	
840.82	3850.2	
841	5871.5	
841.17	5853.1	
841.34	3644.7	
841.51	3639.9	
841.68	5751.4	
841.85	5509.7	
842.02	3834.5	
842.19	3149.8	
842.36	5544.5	
842.53	5545.9	
842.7	3619.4	
842.87	4528.1	
843.05	7364.5	
843.22	5506.3	
843.39	3461.1	
843.56	3716.4	
843.73	5229.8	
843.9	5902.2	
844.07	5995.1	
844.24	4993.6	
844.41	8727.8	
844.58	5061.9	
844.75	3503.4	
844.92	3788.7	
845.09	5857.2	
845.26	5783.5	
845.43	3650.8	
845.6	3848.8	
845.77	5836	
845.94	5522.7	
846.12	4040	
846.29	4278.9	
846.46	6042.2	
846.63	5799.2	
846.8	3613.3	
846.97	4356.7	
847.14	6354.8	
847.31	5762.3	
847.48	4080.9	
847.65	4582.7	
847.82	6129.6	
847.99	6133.7	
848.16	4914.4	
848.33	4485.1	
848.5	5373.2	
848.67	6348.7	
848.84	3586	
849.01	3779.2	
849.18	5213.4	
849.35	4875.5	
849.52	4528.1	
849.69	3581.2	
849.86	6105	
850.03	6320.7	
850.2	3651.5	
850.37	4487.1	
850.54	6238.8	
850.71	5501.5	
850.88	4386.7	
851.05	3551.2	
851.22	5777.3	
851.39	6460	
851.56	3416	
851.73	4182	
851.9	5119.9	
852.07	6019.7	
852.24	4093.9	
852.41	3624.9	
852.58	5681.1	
852.75	5177.3	
852.92	4100.7	
853.09	3517.7	
853.26	5352	
853.43	6307.7	
853.6	3622.2	
853.77	3077.4	
853.94	6413.6	
854.11	5815.5	
854.28	5405.3	
854.44	3938.2	
854.61	6931	
854.78	6161.7	
854.95	3629	
855.12	4631.8	
855.29	4653.7	
855.46	6558.3	
855.63	3634.5	
855.8	5079	
855.97	5386.2	
856.14	6143.9	
856.31	5079.6	
856.48	3962.1	
856.65	5375.9	
856.82	5048.9	
856.99	3440.6	
857.16	3906.8	
857.33	7193.8	
857.49	5456.5	
857.66	3901.4	
857.83	4311	
858	5395	
858.17	5665.4	
858.34	3416.7	
858.51	3641.3	
858.68	6591	
858.85	6611.5	
859.02	4190.1	
859.19	4478.2	
859.36	5089.9	
859.52	5147.9	
859.69	3672.7	
859.86	4246.8	
860.03	5163.6	
860.2	6429.9	
860.37	3271.3	
860.54	3616.7	
860.71	6019.7	
860.88	6511.2	
861.05	4093.9	
861.21	4573.1	
861.38	6538.5	
861.55	4983.4	
861.72	3243.3	
861.89	4106.2	
862.06	6143.2	
862.23	6701	
862.4	3551.2	
862.56	3786	
862.73	5933	
862.9	5594.4	
863.07	4293.9	
863.24	3334.8	
863.41	4982.7	
863.58	5051	
863.75	3734.8	
863.91	4187.4	
864.08	6486.6	
864.25	5926.1	
864.42	4547.2	
864.59	5171.8	
864.76	6830.7	
864.93	5128.1	
865.09	3500	
865.26	3886.4	
865.43	6337.8	
865.6	6784.2	
865.77	3093.1	
865.94	3613.3	
866.1	6445	
866.27	6145.3	
866.44	5491.3	
866.61	3424.2	
866.78	5541.1	
866.95	5922	
867.11	3405.8	
867.28	3155.2	
867.45	6211.5	
867.62	5155.4	
867.79	4182.6	
867.96	3564.1	
868.12	5113.1	
868.29	6107.7	
868.46	3616	
868.63	4902.8	
868.8	6367.1	
868.97	6040.8	
869.13	3859.1	
869.3	3756	
869.47	5982.8	
869.64	6204.7	
869.81	3633.8	
869.97	3620.1	
870.14	5908.4	
870.31	6596.5	
870.48	3515.7	
870.65	4603.8	
870.81	5459.2	
870.98	5367	
871.15	4148.5	
871.32	3806.5	
871.48	5926.1	
871.65	6611.5	
871.82	3578.5	
871.99	3988.8	
872.16	7092.1	
872.32	6527.6	
872.49	3635.1	
872.66	3699.3	
872.83	6041.5	
872.99	5319.9	
873.16	4187.4	
873.33	3547.8	
873.5	5672.2	
873.67	5728.9	
873.83	3838.6	
874	4885.1	
874.17	5829.9	
874.34	7040.9	
874.5	4700.1	
874.67	4549.2	
874.84	6485.9	
875.01	5079	
875.17	5147.9	
875.34	3620.8	
875.51	5709.7	
875.68	6953.5	
875.84	4363.5	
876.01	5337	
876.18	5988.3	
876.34	5930.9	
876.51	3652.9	
876.68	3547.1	
876.85	5461.2	
877.01	6358.9	
877.18	5186.1	
877.35	3621.5	
877.52	5563.6	
877.68	5039.4	
877.85	3523.2	
878.02	3532.7	
878.18	5573.2	
878.35	5287.2	
878.52	2904	
878.69	4042.7	
878.85	6081.8	
879.02	6042.2	
879.19	5244.8	
879.35	3946.4	
879.52	6017.6	
879.69	6277.7	
879.86	3158.7	
880.02	4040	
880.19	5540.4	
880.36	6877.8	
880.52	4242	
880.69	4267.3	
880.86	6146.6	
881.02	6244.3	
881.19	3966.9	
881.36	3917.1	
881.52	6032	
881.69	5310.4	
881.86	3944.4	
882.02	3829	
882.19	6345.3	
882.36	7352.9	
882.52	3696.6	
882.69	5166.3	
882.86	5872.2	
883.02	5689.9	
883.19	4424.3	
883.36	4119.8	
883.52	6180.8	
883.69	7031.4	
883.86	3657	
884.02	3284.9	
884.19	6130.9	
884.36	5623.7	
884.52	4117.1	
884.69	3890.5	
884.86	5330.2	
885.02	6694.1	
885.19	4065.2	
885.36	4187.4	
885.52	5650.3	
885.69	5801.2	
885.86	5337.7	
886.02	4653.7	
886.19	6047	
886.35	5517.9	
886.52	3976.5	
886.69	5134.3	
886.85	5103.5	
887.02	6452.5	
887.19	6452.5	
887.35	6452.5	
887.52	6452.5	
887.68	6452.5	
887.85	6452.5	
888.02	6452.5	
888.18	6452.5	
888.35	6452.5	
888.51	6452.5	
888.68	6452.5	
888.85	6452.5	
889.01	6452.5	
889.18	6452.5	
889.35	6452.5	
889.51	6452.5	
889.68	6452.5	
889.84	6452.5	
890.01	6452.5	
890.17	6452.5	
890.34	6452.5	
890.51	6452.5	
890.67	6452.5	
890.84	6452.5	
891	6452.5	
891.17	6452.5	
891.34	6452.5	
891.5	6452.5	
891.67	6452.5	
891.83	6452.5	
892	6452.5	
892.16	6452.5	
892.33	6452.5	
892.5	6452.5	
892.66	6452.5	
892.83	6452.5	
892.99	6452.5	
893.16	6452.5	
893.32	6452.5	
893.49	6452.5	
893.65	6452.5	
893.82	6452.5	
893.99	6452.5	
894.15	6452.5	
894.32	6452.5	
894.48	6452.5	
894.65	6452.5	
894.81	6452.5	
894.98	6452.5	
895.14	6452.5	
895.31	6452.5	
895.47	6452.5	
895.64	6452.5	
895.81	6452.5	
895.97	6452.5	
896.14	6452.5	
896.3	6452.5	
896.47	6452.5	
896.63	6452.5	
896.8	6452.5	
896.96	6452.5	
897.13	6452.5	
897.29	6452.5	
897.46	6452.5	
897.62	6452.5	
897.79	6452.5	
897.95	6452.5	
898.12	6452.5	
898.28	6452.5	
898.45	6452.5	
898.61	6452.5	
898.78	6452.5	
898.94	6452.5	
899.11	6452.5	
899.27	6452.5	
899.44	6452.5	
899.6	6452.5	
899.77	6452.5	
899.93	6452.5	
900.1	6452.5	
900.26	6452.5	
900.43	6452.5	
900.59	6452.5	
900.76	6452.5	
900.92	6452.5	
901.09	6452.5	
901.25	6452.5	
901.42	6452.5	
901.58	6452.5	
901.75	6452.5	
901.91	6452.5	
902.07	6452.5	
902.24	6452.5	
902.4	6452.5	
902.57	6452.5	
902.73	6452.5	
902.9	6452.5	
903.06	6452.5	
903.23	6452.5	
903.39	6452.5	
903.56	6452.5	
903.72	6452.5	
903.88	6452.5	
904.05	6452.5	
904.21	6452.5	
904.38	6452.5	
904.54	6452.5	
904.71	6452.5	
904.87	6452.5	
905.03	6452.5	
905.2	6452.5	
905.36	6452.5	
905.53	6452.5	
905.69	6452.5	
905.86	6452.5	
906.02	6452.5	
906.18	6452.5	
906.35	6452.5	
906.51	6452.5	
906.68	6452.5	
906.84	6452.5	
907.01	6452.5	
907.17	6452.5	
907.33	6452.5	
907.5	6452.5	
907.66	6452.5	
907.83	6452.5	
907.99	6452.5	
908.15	6452.5	
908.32	6452.5	
908.48	6452.5	
908.65	6452.5	
908.81	6452.5	
908.97	6452.5	
909.14	6452.5	
909.3	6452.5	
909.47	6452.5	
909.63	6452.5	
909.79	6452.5	
909.96	6452.5	
910.12	6452.5	
910.28	6452.5	
910.45	6452.5	
910.61	6452.5	
910.78	6452.5	
910.94	6452.5	
911.1	6452.5	
911.27	6452.5	
911.43	6452.5	
911.59	6452.5	
911.76	6452.5	
911.92	6452.5	
912.08	6452.5	
912.25	6452.5	
912.41	6452.5	
912.57	6452.5	
912.74	6452.5	
912.9	6452.5	
913.07	6452.5	
913.23	6452.5	
913.39	6452.5	
913.56	6452.5	
913.72	6452.5	
913.88	6452.5	
914.05	6452.5	
914.21	6452.5	
914.37	6452.5	
914.54	6452.5	
914.7	6452.5	
914.86	6452.5	
915.03	6452.5	
915.19	6452.5	
