Wavelength	Intensities	
nm	a.u.	
179.22	1930.2	
179.44	1927.1	
179.65	1933.3	
179.86	1921	
180.08	1914.9	
180.29	4924	
180.51	3556	
180.72	5613.5	
180.94	6640.2	
181.15	3257	
181.37	3139.5	
181.58	5544.5	
181.79	5836.7	
182.01	3322.5	
182.22	3661.8	
182.44	5763.7	
182.65	4823	
182.87	4541	
183.08	3993.5	
183.29	6073.6	
183.51	5040.1	
183.72	3647.4	
183.94	5380	
184.15	5451.7	
184.37	5451	
184.58	3189.4	
184.79	4411.3	
185.01	4986.1	
185.22	5793.7	
185.44	4732.9	
185.65	3953.9	
185.86	5261.9	
186.08	4906.9	
186.29	3151.1	
186.51	3394.8	
186.72	5066	
186.94	5967.1	
187.15	3924.6	
187.36	4091.8	
187.58	7733.1	
187.79	5490.6	
188.01	4242	
188.22	6561.7	
188.43	6636.1	
188.65	5745.2	
188.86	3317	
189.08	4026.3	
189.29	5218.2	
189.5	5231.2	
189.72	3700.7	
189.93	3822.2	
190.15	6054.5	
190.36	7177.4	
190.57	4148.5	
190.79	4005.1	
191	6084.5	
191.22	5992.4	
191.43	4057.7	
191.64	3414	
191.86	6236.1	
192.07	6015.6	
192.29	3565.5	
192.5	3730	
192.71	6029.9	
192.93	5195	
193.14	3753.2	
193.35	3789.4	
193.57	5167	
193.78	6044.9	
194	2992.1	
194.21	3654.3	
194.42	4978.6	
194.64	5412.1	
194.85	3996.3	
195.07	4758.1	
195.28	5468.1	
195.49	4696.7	
195.71	4997	
195.92	3500	
196.13	5692.7	
196.35	5737	
196.56	5322.7	
196.78	4091.8	
196.99	7109.9	
197.2	6554.2	
197.42	4568.3	
197.63	4084.3	
197.84	4836.6	
198.06	5662.6	
198.27	3764.2	
198.48	5068.7	
198.7	5122	
198.91	5279.7	
199.13	4086.4	
199.34	4114.4	
199.55	5816.2	
199.77	4730.8	
199.98	3537.5	
200.19	4154.6	
200.41	5366.4	
200.62	5022.3	
200.83	4347.2	
201.05	4590.9	
201.26	5300.8	
201.47	5069.4	
201.69	3624.2	
201.9	3498.6	
202.11	5395	
202.33	6421.7	
202.54	3830.4	
202.76	4251.6	
202.97	5513.1	
203.18	5565.7	
203.4	4299.4	
203.61	4171.7	
203.82	5472.2	
204.04	5094.7	
204.25	4151.9	
204.46	4055	
204.68	5359.5	
204.89	5644.2	
205.1	3961.5	
205.32	3400.3	
205.53	5851	
205.74	6017.6	
205.96	2933.4	
206.17	4179.2	
206.38	5843.5	
206.6	5909.8	
206.81	4689.8	
207.02	3838.6	
207.24	5655.8	
207.45	6079.1	
207.66	3932.1	
207.88	3309.5	
208.09	5655.1	
208.3	5476.3	
208.52	3520.5	
208.73	3854.3	
208.94	5485.8	
209.15	6182.1	
209.37	3915	
209.58	4123.2	
209.79	5943.9	
210.01	5219.6	
210.22	3039.2	
210.43	3225.6	
210.65	5449	
210.86	5907	
211.07	3887.7	
211.29	3530	
211.5	5752.1	
211.71	5370.5	
211.93	3549.8	
212.14	3534.1	
212.35	5306.3	
212.56	5608	
212.78	4125.3	
212.99	3368.9	
213.2	6365.1	
213.42	5143.8	
213.63	3670	
213.84	3965.6	
214.06	4819.6	
214.27	4907.6	
214.48	3870.7	
214.69	4160.1	
214.91	6154.8	
215.12	6229.9	
215.33	4208.6	
215.55	4629.1	
215.76	6688.7	
215.97	5724.1	
216.18	4059.8	
216.4	3853.6	
216.61	5151.3	
216.82	5877.7	
217.04	3640.6	
217.25	3728.7	
217.46	6112.5	
217.67	5879.7	
217.89	3143.6	
218.1	3354.6	
218.31	5509	
218.53	5612.8	
218.74	3754.6	
218.95	3604.4	
219.16	5350	
219.38	6335	
219.59	3675.4	
219.8	4364.2	
220.01	7034.8	
220.23	5483.1	
220.44	4833.2	
220.65	3581.9	
220.87	5459.9	
221.08	6093.4	
221.29	3319.8	
221.5	4426.3	
221.72	7449.8	
221.93	5106.3	
222.14	4181.3	
222.35	4835.3	
222.57	5489.2	
222.78	5808	
222.99	3874.1	
223.2	4164.9	
223.42	5718.6	
223.63	5905	
223.84	3005.7	
224.05	3001	
224.27	6989	
224.48	6352.8	
224.69	4751.3	
224.9	4154	
225.12	5646.9	
225.33	5416.2	
225.54	3211.9	
225.75	3634.5	
225.97	4965	
226.18	5249.6	
226.39	3958	
226.6	3652.9	
226.82	5156.8	
227.03	4980.7	
227.24	4123.9	
227.45	3383.2	
227.67	5809.4	
227.88	6383.5	
228.09	4495.3	
228.3	4584	
228.52	5866.7	
228.73	5372.5	
228.94	3715.7	
229.15	3348.4	
229.36	5338.4	
229.58	5330.2	
229.79	3835.8	
230	4501.4	
230.21	6485.2	
230.43	5554.8	
230.64	4062.5	
230.85	4225.6	
231.06	5894.1	
231.28	5865.4	
231.49	3372.3	
231.7	3972.4	
231.91	5788.2	
232.12	5401.2	
232.34	3437.2	
232.55	3926.6	
232.76	6073.6	
232.97	5628.5	
233.18	3594.2	
233.4	4002.4	
233.61	5713.2	
233.82	5152	
234.03	3758	
234.25	3678.2	
234.46	7580.2	
234.67	5429.8	
234.88	4147.1	
235.09	3640.6	
235.31	5780.1	
235.52	5316.5	
235.73	4037.9	
235.94	3401	
236.15	5190.2	
236.37	6635.4	
236.58	3601.7	
236.79	3908.9	
237	5713.2	
237.21	4985.4	
237.43	4201.1	
237.64	3295.9	
237.85	9945.6	
238.06	5001.8	
238.27	4350.6	
238.48	3391.4	
238.7	5775.3	
238.91	5219.6	
239.12	3926.6	
239.33	3933.5	
239.54	5029.1	
239.76	5366.4	
239.97	3824.2	
240.18	3891.1	
240.39	6830.7	
240.6	5692.7	
240.82	4049.5	
241.03	3288.4	
241.24	5433.3	
241.45	6322.1	
241.66	3566.2	
241.87	4168.3	
242.09	6195.8	
242.3	6561.7	
242.51	4291.9	
242.72	3909.6	
242.93	5945.9	
243.14	5388.9	
243.36	4482.3	
243.57	4884.4	
243.78	6298.9	
243.99	5762.3	
244.2	3944.4	
244.41	3579.8	
244.63	4941.7	
244.84	5728.9	
245.05	4162.2	
245.26	3932.1	
245.47	5754.8	
245.68	6051.1	
245.9	5190.2	
246.11	4089.1	
246.32	5240.1	
246.53	5678.3	
246.74	6359.6	
246.95	3264.5	
247.16	4958.8	
247.38	5464	
247.59	3274.7	
247.8	3992.9	
248.01	5102.2	
248.22	5380	
248.43	3597.6	
248.64	3776.5	
248.86	4760.2	
249.07	5205.9	
249.28	3420.8	
249.49	4052.2	
249.7	5961	
249.91	6142.5	
250.12	3244	
250.34	3306.1	
250.55	5524.7	
250.76	5420.3	
250.97	4066.6	
251.18	4102.1	
251.39	6190.3	
251.6	5572.5	
251.81	4103.4	
252.03	4145.8	
252.24	5124	
252.45	5984.2	
252.66	3408.5	
252.87	4400.4	
253.08	5474.9	
253.29	7197.9	
253.5	3411.9	
253.72	4752	
253.93	5261.9	
254.14	6458.6	
254.35	3730	
254.56	3818.8	
254.77	5651.7	
254.98	5041.4	
255.19	3657	
255.41	4729.4	
255.62	5464.7	
255.83	6124.8	
256.04	4220.9	
256.25	4111	
256.46	6541.2	
256.67	5099.4	
256.88	4010.6	
257.09	4553.3	
257.31	5130.2	
257.52	5132.2	
257.73	5081.7	
257.94	3670	
258.15	5272.8	
258.36	5478.3	
258.57	4684.4	
258.78	3001.6	
258.99	5911.1	
259.2	5229.8	
259.41	3735.5	
259.63	3854.3	
259.84	6292	
260.05	6752.8	
260.26	4881.7	
260.47	3615.3	
260.68	6052.4	
260.89	5319.9	
261.1	4541.7	
261.31	3549.8	
261.52	6027.9	
261.73	6405.4	
261.95	4898.7	
262.16	4285.7	
262.37	6146.6	
262.58	6207.4	
262.79	4796.3	
263	3780.6	
263.21	5524.1	
263.42	4954.7	
263.63	3875.4	
263.84	3758	
264.05	6035.4	
264.26	6337.1	
264.47	4700.1	
264.69	4216.1	
264.9	6117.3	
265.11	5699.5	
265.32	3605.8	
265.53	3695.2	
265.74	5570.5	
265.95	4824.3	
266.16	4019.5	
266.37	4416.8	
266.58	5619.6	
266.79	5253.7	
267	3680.2	
267.21	3429.7	
267.42	5048.9	
267.63	5445.5	
267.84	3856.3	
268.06	3317.7	
268.27	5847.6	
268.48	6162.3	
268.69	3838.6	
268.9	4524	
269.11	6171.9	
269.32	4952	
269.53	3929.4	
269.74	3645.4	
269.95	5818.3	
270.16	4807.9	
270.37	3911.6	
270.58	4526	
270.79	5253.7	
271	5935	
271.21	4252.9	
271.42	3964.2	
271.63	5573.9	
271.84	5087.2	
272.05	3120.4	
272.26	3511.6	
272.47	5434.6	
272.68	5649.7	
272.89	3783.3	
273.11	4324.6	
273.32	5223.7	
273.53	6365.8	
273.74	4243.4	
273.95	4205.2	
274.16	6128.2	
274.37	5513.1	
274.58	4317.1	
274.79	3433.1	
275	5551.4	
275.21	6152.8	
275.42	5231.9	
275.63	4522.6	
275.84	5689.3	
276.05	7225.2	
276.26	4186.7	
276.47	3845.4	
276.68	5279	
276.89	6462	
277.1	4440.7	
277.31	3441.3	
277.52	5709.1	
277.73	5865.4	
277.94	3421.5	
278.15	3821.5	
278.36	5651.7	
278.57	5068.7	
278.78	3756	
278.99	4298	
279.2	5047.6	
279.41	4988.2	
279.62	4977.9	
279.83	3495.2	
280.04	6668.2	
280.25	4982	
280.46	4962.9	
280.67	3947.8	
280.88	5042.8	
281.09	6104.3	
281.3	4105.5	
281.51	5256.5	
281.72	5194.3	
281.93	5991	
282.14	3704.8	
282.35	3952.6	
282.56	5954.1	
282.77	5974.6	
282.98	3794.9	
283.19	4633.2	
283.4	7286	
283.61	5405.3	
283.82	3370.3	
284.03	4841.4	
284.24	5545.2	
284.45	6123.4	
284.66	4916.5	
284.87	4701.5	
285.08	6021.7	
285.29	6189	
285.5	3291.8	
285.71	3867.2	
285.92	6085.2	
286.12	6754.2	
286.33	4829.1	
286.54	3790.8	
286.75	5921.4	
286.96	5356.8	
287.17	3450.8	
287.38	4739	
287.59	5089.2	
287.8	5059.2	
288.01	3843.4	
288.22	4415.4	
288.43	5997.8	
288.64	5010.7	
288.85	4562.9	
289.06	4311	
289.27	5872.2	
289.48	6337.8	
289.69	4922	
289.9	4458.4	
290.11	6088.6	
290.32	5108.3	
290.53	4641.4	
290.74	4250.9	
290.94	5924.1	
291.15	5986.2	
291.36	3619.4	
291.57	4352.6	
291.78	5180	
291.99	4859.1	
292.2	3588.7	
292.41	4260.5	
292.62	6056.5	
292.83	5750	
293.04	5291.3	
293.25	3543.7	
293.46	5224.4	
293.67	6081.8	
293.88	3639.9	
294.09	3512.3	
294.29	5018.9	
294.5	5537.7	
294.71	3949.2	
294.92	3790.1	
295.13	5203.9	
295.34	6613.6	
295.55	3275.4	
295.76	3387.3	
295.97	5889.3	
296.18	6613.6	
296.39	3505.4	
296.6	3700.7	
296.81	5547.3	
297.01	5905.7	
297.22	3798.3	
297.43	3657.7	
297.64	5081.7	
297.85	5032.5	
298.06	3036.5	
298.27	3336.1	
298.48	5447.6	
298.69	5171.1	
298.9	3970.3	
299.11	3591.5	
299.31	4990.9	
299.52	4952	
299.73	4248.2	
299.94	4126	
300.15	5406	
300.36	5070.1	
300.57	4135.5	
300.78	4179.2	
300.99	5335	
301.2	5556.1	
301.4	3603.7	
301.61	3981.3	
301.82	5791	
302.03	5928.2	
302.24	4519.2	
302.45	3495.9	
302.66	5715.9	
302.87	6152.8	
303.08	3695.9	
303.29	5038	
303.49	5208.7	
303.7	5468.1	
303.91	3292.5	
304.12	4812.7	
304.33	4953.4	
304.54	5540.4	
304.75	3726.6	
304.96	3511.6	
305.16	5790.3	
305.37	6526.9	
305.58	3194.8	
305.79	3384.6	
306	5745.2	
306.21	4861.9	
306.42	3711.6	
306.63	5648.3	
306.83	5299.5	
307.04	6071.5	
307.25	4078.2	
307.46	4067.3	
307.67	4640	
307.88	5972.6	
308.09	3578.5	
308.29	3779.9	
308.5	5537	
308.71	6029.9	
308.92	3907.5	
309.13	3539.6	
309.34	5421.7	
309.55	5293.3	
309.75	4596.3	
309.96	4225.6	
310.17	5890	
310.38	5145.2	
310.59	4420.2	
310.8	3503.4	
311.01	5287.2	
311.21	5312.4	
311.42	3471.3	
311.63	3614.7	
311.84	5179.3	
312.05	5639.4	
312.26	4102.1	
312.46	4524.6	
312.67	5299.5	
312.88	5020.9	
313.09	3533.4	
313.3	3454.9	
313.51	6249	
313.71	6608.8	
313.92	3593.5	
314.13	3774.4	
314.34	5608	
314.55	5396.4	
314.76	4554	
314.96	4003.1	
315.17	5517.2	
315.38	5866.7	
315.59	3581.2	
315.8	3437.9	
316.01	6365.1	
316.21	6406	
316.42	3358.7	
316.63	3884.3	
316.84	5332.9	
317.05	6215.6	
317.26	4201.1	
317.46	3733.4	
317.67	5362.9	
317.88	5896.1	
318.09	4554.7	
318.3	3306.8	
318.5	5138.4	
318.71	5748	
318.92	5780.7	
319.13	4182.6	
319.34	5988.3	
319.54	6137.1	
319.75	3315.7	
319.96	3155.9	
320.17	5833.3	
320.38	6062.7	
320.58	3201.7	
320.79	3859.7	
321	6042.9	
321.21	6227.2	
321.42	3936.9	
321.62	3235.8	
321.83	5017.5	
322.04	5530.9	
322.25	3751.9	
322.46	3579.2	
322.66	5601.2	
322.87	5721.3	
323.08	4447.5	
323.29	3508.9	
323.5	6584.2	
323.7	4985.4	
323.91	4823	
324.12	4346.5	
324.33	5541.8	
324.53	5808.7	
324.74	4215.4	
324.95	4432.5	
325.16	4842.8	
325.37	5287.9	
325.57	3573.7	
325.78	3558.7	
325.99	5572.5	
326.2	4915.1	
326.4	5219.6	
326.61	3273.3	
326.82	5379.3	
327.03	5584.8	
327.24	5020.9	
327.44	4799.1	
327.65	5701.5	
327.86	4644.1	
328.07	4215.4	
328.27	3450.1	
328.48	6133.7	
328.69	5040.1	
328.9	5174.5	
329.1	3863.2	
329.31	5354.1	
329.52	6303	
329.73	3554.6	
329.93	4044.7	
330.14	5450.3	
330.35	5788.9	
330.56	5851.7	
330.76	4414.1	
330.97	5280.3	
331.18	5707	
331.39	3955.3	
331.59	3209.2	
331.8	6103.6	
332.01	6139.8	
332.22	3619.4	
332.42	4227.7	
332.63	5598.5	
332.84	5147.9	
333.05	4011.3	
333.25	3697.3	
333.46	5272.8	
333.67	5502.9	
333.88	3743	
334.08	4141.7	
334.29	7373.4	
334.5	6205.3	
334.7	3452.9	
334.91	5188.2	
335.12	5010.7	
335.33	5923.4	
335.53	3971.7	
335.74	5882.4	
335.95	5189.6	
336.16	5081.7	
336.36	3898.6	
336.57	4650.9	
336.78	5008.6	
336.98	6027.2	
337.19	4941.7	
337.4	3938.2	
337.61	6569.2	
337.81	5003.9	
338.02	3654.3	
338.23	4702.8	
338.43	6257.9	
338.64	5095.3	
338.85	3602.4	
339.05	4671.4	
339.26	6289.3	
339.47	4883.7	
339.68	3611.3	
339.88	5317.2	
340.09	5731.6	
340.3	5935.7	
340.5	4205.8	
340.71	3211.9	
340.92	4951.3	
341.13	6148.7	
341.33	3498.6	
341.54	4251.6	
341.75	5683.1	
341.95	5336.3	
342.16	4004.5	
342.37	4386.7	
342.57	5083.1	
342.78	5354.8	
342.99	4445.5	
343.19	3257.6	
343.4	5911.8	
343.61	5701.5	
343.81	3835.8	
344.02	3512.9	
344.23	5886.5	
344.43	6283.9	
344.64	4454.3	
344.85	4333.5	
345.06	5731.6	
345.26	6105	
345.47	4162.2	
345.68	4980	
345.88	4798.4	
346.09	5952.8	
346.3	4288.4	
346.5	3158.7	
346.71	5416.2	
346.92	5126.7	
347.12	3255.6	
347.33	4132.8	
347.54	6032.6	
347.74	6466.8	
347.95	4041.3	
348.16	3031.7	
348.36	5313.8	
348.57	4950.6	
348.78	4050.2	
348.98	4334.2	
349.19	5446.9	
349.39	4895.3	
349.6	3287.7	
349.81	3605.1	
350.01	5686.5	
350.22	5198.4	
350.43	3968.3	
350.63	4872.1	
350.84	5490.6	
351.05	5261.2	
351.25	3660.4	
351.46	3229.6	
351.67	6110.5	
351.87	5172.5	
352.08	3882.3	
352.29	4377.2	
352.49	5902.9	
352.7	5983.5	
352.9	3499.3	
353.11	4347.2	
353.32	6563.7	
353.52	5227.1	
353.73	3474.7	
353.94	4438.6	
354.14	5799.8	
354.35	5578	
354.55	3531.4	
354.76	3989.4	
354.97	5682.4	
355.17	5515.2	
355.38	3320.4	
355.59	4673.5	
355.79	5156.8	
356	5597.8	
356.2	3969.6	
356.41	3426.3	
356.62	4842.1	
356.82	5347.2	
357.03	4149.9	
357.24	3747.8	
357.44	5175.9	
357.65	5304.9	
357.85	5050.3	
358.06	3946.4	
358.27	4901.5	
358.47	5110.4	
358.68	3306.1	
358.88	4167.6	
359.09	5688.6	
359.3	6110.5	
359.5	4892.6	
359.71	4307.6	
359.91	6516.6	
360.12	5856.5	
360.33	4107.5	
360.53	4666	
360.74	5139	
360.94	5204.6	
361.15	4379.2	
361.36	3605.8	
361.56	5953.4	
361.77	5378	
361.97	4814.8	
362.18	3803.8	
362.38	5915.9	
362.59	4932.2	
362.8	3528.7	
363	3331.4	
363.21	4765.6	
363.41	5462.6	
363.62	4067.3	
363.83	5150	
364.03	5568.4	
364.24	6527.6	
364.44	5200.5	
364.65	5047.6	
364.85	5269.4	
365.06	5238.7	
365.27	3691.8	
365.47	3750.5	
365.68	6283.2	
365.88	5339.1	
366.09	4119.8	
366.29	3741.6	
366.5	5532.2	
366.71	6022.4	
366.91	5097.4	
367.12	4295.3	
367.32	6546.7	
367.53	5838.1	
367.73	4189.5	
367.94	5225.7	
368.14	5791	
368.35	6696.2	
368.56	4290.5	
368.76	3491.8	
368.97	5907.7	
369.17	7630	
369.38	3648.8	
369.58	3947.1	
369.79	4892.6	
369.99	6289.3	
370.2	4967	
370.4	4021.5	
370.61	5582.8	
370.82	6728.9	
371.02	3914.4	
371.23	3247.4	
371.43	4797	
371.64	6208.8	
371.84	3985.3	
372.05	5244.8	
372.25	7546.1	
372.46	5840.8	
372.66	3977.2	
372.87	3945.8	
373.07	5928.2	
373.28	7516	
373.48	4949.3	
373.69	4671.4	
373.9	5378	
374.1	5447.6	
374.31	4901.5	
374.51	4470.7	
374.72	6227.2	
374.92	5057.1	
375.13	5053.7	
375.33	4216.1	
375.54	5817.6	
375.74	5233.9	
375.95	4279.6	
376.15	5558.2	
376.36	5791	
376.56	5642.2	
376.77	4332.1	
376.97	4835.3	
377.18	6904.4	
377.38	5922.7	
377.59	5191.6	
377.79	3831.1	
378	5608.7	
378.2	6108.4	
378.41	3851.5	
378.61	3826.3	
378.82	6124.1	
379.02	5227.1	
379.23	4063.9	
379.43	5175.2	
379.64	6195.1	
379.84	5819	
380.05	3885.7	
380.25	3789.4	
380.46	5933.6	
380.66	5440.8	
380.87	5257.8	
381.07	5624.4	
381.28	6591	
381.48	5905.7	
381.69	3928.7	
381.89	3998.3	
382.1	4826.4	
382.3	6044.9	
382.51	5053.7	
382.71	5915.2	
382.91	5866.7	
383.12	6433.4	
383.32	4235.2	
383.53	4494.6	
383.73	5773.9	
383.94	5580.7	
384.14	4423.6	
384.35	3543.7	
384.55	5486.5	
384.76	5988.3	
384.96	4249.5	
385.17	4541	
385.37	5911.1	
385.58	5215.5	
385.78	4648.2	
385.98	3451.5	
386.19	5412.1	
386.39	5802.6	
386.6	4022.2	
386.8	4289.8	
387.01	5911.8	
387.21	5921.4	
387.42	4713.1	
387.62	5284.4	
387.83	5242.1	
388.03	5931.6	
388.23	4267.3	
388.44	5145.2	
388.64	4869.4	
388.85	5035.3	
389.05	4649.6	
389.26	5357.5	
389.46	6903	
389.67	6264.7	
389.87	4643.4	
390.07	4730.1	
390.28	5499.5	
390.48	5142.4	
390.69	3910.3	
390.89	4188.8	
391.1	5275.6	
391.3	6242.2	
391.5	5463.3	
391.71	6027.2	
391.91	5956.2	
392.12	6989	
392.32	5479	
392.53	4652.3	
392.73	5398.4	
392.93	5612.1	
393.14	4304.8	
393.34	5117.2	
393.55	6077.7	
393.75	5563	
393.95	4363.5	
394.16	4322.6	
394.36	5311.1	
394.57	5970.5	
394.77	3794.9	
394.98	4221.5	
395.18	5203.9	
395.38	5368.4	
395.59	5196.4	
395.79	3982.6	
396	5313.8	
396.2	5883.8	
396.4	4890.5	
396.61	4785.4	
396.81	6077.7	
397.02	5319.3	
397.22	5117.9	
397.42	5147.2	
397.63	5965.1	
397.83	5233.9	
398.04	3938.9	
398.24	4483.7	
398.44	5769.1	
398.65	4831.2	
398.85	3792.2	
399.05	3949.2	
399.26	5270.1	
399.46	6989	
399.67	4276.2	
399.87	4022.9	
400.07	5511.8	
400.28	5949.3	
400.48	4063.9	
400.69	5209.3	
400.89	6112.5	
401.09	6561.7	
401.3	3978.5	
401.5	5147.9	
401.7	6822.5	
401.91	7038.9	
402.11	4276.8	
402.32	4572.4	
402.52	6147.3	
402.72	6040.1	
402.93	4791.6	
403.13	3644	
403.33	6919.4	
403.54	5649	
403.74	4491.2	
403.94	5397.8	
404.15	5695.4	
404.35	6862.7	
404.56	4306.9	
404.76	6158.2	
404.96	6144.6	
405.17	5945.3	
405.37	5567.7	
405.57	4747.2	
405.78	6162.3	
405.98	5620.3	
406.18	4220.2	
406.39	5180	
406.59	6183.5	
406.79	5714.5	
407	4079.6	
407.2	4145.8	
407.4	6178.7	
407.61	6351.4	
407.81	4138.9	
408.01	6462	
408.22	5042.8	
408.42	7220.5	
408.62	5177.9	
408.83	4659.1	
409.03	5677.7	
409.23	5470.1	
409.44	4665.3	
409.64	5021.6	
409.84	6589	
410.05	6409.5	
410.25	4799.1	
410.45	4588.1	
410.66	5883.8	
410.86	8449.9	
411.06	4992.9	
411.27	4889.9	
411.47	8106.5	
411.67	6072.2	
411.88	5115.8	
412.08	5267.4	
412.28	6734.4	
412.49	7168.6	
412.69	4846.9	
412.89	4805.9	
413.09	7066.2	
413.3	6869.6	
413.5	4905.6	
413.7	4474.8	
413.91	6138.4	
414.11	6944.7	
414.31	4714.4	
414.52	5215.5	
414.72	6688.7	
414.92	6481.8	
415.12	4711	
415.33	5221	
415.53	6979.5	
415.73	7129	
415.94	5665.4	
416.14	5046.2	
416.34	5863.3	
416.55	5705	
416.75	6272.9	
416.95	5698.8	
417.15	6885.3	
417.36	7666.2	
417.56	6403.3	
417.76	5424.4	
417.97	7271	
418.17	6888	
418.37	5022.3	
418.57	5167	
418.78	6688	
418.98	6326.2	
419.18	5987.6	
419.38	5915.9	
419.59	6453.8	
419.79	5999.9	
419.99	4948.6	
420.2	5351.3	
420.4	6907.8	
420.6	7082.6	
420.8	4888.5	
421.01	4721.3	
421.21	6683.9	
421.41	6903	
421.61	5353.4	
421.82	5004.6	
422.02	6255.9	
422.22	7248.4	
422.42	5826.5	
422.63	5500.2	
422.83	6371.2	
423.03	7624.6	
423.23	5481.7	
423.44	4413.4	
423.64	6393.1	
423.84	6213.5	
424.04	4904.9	
424.25	4529.4	
424.45	7406.8	
424.65	7376.8	
424.85	4381.3	
425.06	4951.3	
425.26	7323.5	
425.46	6373.3	
425.66	5452.4	
425.87	5195.7	
426.07	7103	
426.27	6978.1	
426.47	5289.2	
426.67	4608.6	
426.88	7475.1	
427.08	6959	
427.28	5511.1	
427.48	4504.8	
427.69	5769.1	
427.89	6504.3	
428.09	5500.2	
428.29	4640.7	
428.5	7214.3	
428.7	6754.2	
428.9	4492.6	
429.1	5087.8	
429.3	6573.3	
429.51	6995.2	
429.71	4783.4	
429.91	5614.8	
430.11	6806.8	
430.31	7076.4	
430.52	5079	
430.72	5431.2	
430.92	7481.2	
431.12	6894.8	
431.32	4749.2	
431.53	5147.2	
431.73	5779.4	
431.93	7542	
432.13	4683	
432.33	4512.4	
432.54	6238.1	
432.74	6681.8	
432.94	4445.5	
433.14	5560.2	
433.34	6836.1	
433.55	6258.6	
433.75	5487.2	
433.95	7265.5	
434.15	6582.9	
434.35	6220.4	
434.56	4654.4	
434.76	4104.1	
434.96	6533	
435.16	6774	
435.36	4500.8	
435.56	5666	
435.77	6137.1	
435.97	6366.5	
436.17	6358.9	
436.37	5662	
436.57	6048.3	
436.78	5933	
436.98	7436.9	
437.18	6238.8	
437.38	6750.1	
437.58	6336.4	
437.78	6387.6	
437.99	4952.7	
438.19	6927.6	
438.39	7909.9	
438.59	4928.1	
438.79	4403.1	
438.99	7528.3	
439.2	6353.5	
439.4	4504.8	
439.6	4421.6	
439.8	6599.2	
440	7656.7	
440.2	5478.3	
440.4	5571.8	
440.61	7038.9	
440.81	7559.7	
441.01	4650.3	
441.21	5497.4	
441.41	7352.9	
441.61	7031.4	
441.81	5864.7	
442.02	6941.9	
442.22	7929.7	
442.42	7055.3	
442.62	4713.1	
442.82	4775.2	
443.02	7315.3	
443.22	6463.4	
443.43	5171.8	
443.63	4628.4	
443.83	6257.9	
444.03	6419	
444.23	5917.9	
444.43	5591	
444.63	6620.4	
444.83	7927	
445.04	4797	
445.24	6140.5	
445.44	7010.9	
445.64	7134.4	
445.84	5683.8	
446.04	5668.8	
446.24	6376.7	
446.44	7468.9	
446.65	4829.1	
446.85	5350.7	
447.05	6513.9	
447.25	7346.7	
447.45	5332.9	
447.65	4674.8	
447.85	6711.9	
448.05	6377.4	
448.25	5782.1	
448.46	5547.9	
448.66	6742.6	
448.86	6377.4	
449.06	4477.5	
449.26	5714.5	
449.46	7049.1	
449.66	6028.5	
449.86	5160.9	
450.06	5196.4	
450.26	6247.7	
450.47	6764.4	
450.67	5500.8	
450.87	5828.5	
451.07	6917.4	
451.27	6747.4	
451.47	4810.7	
451.67	5333.6	
451.87	6340.5	
452.07	7533.8	
452.27	4991.6	
452.47	4937.7	
452.67	6735.1	
452.88	7329	
453.08	4323.3	
453.28	6380.1	
453.48	7899	
453.68	6654.5	
453.88	4825.7	
454.08	5037.3	
454.28	6997.2	
454.48	6650.4	
454.68	5592.3	
454.88	6154.8	
455.08	7145.4	
455.28	6835.4	
455.48	4737.6	
455.68	5339.7	
455.89	7461.4	
456.09	7243.7	
456.29	5109	
456.49	5029.8	
456.69	7361.1	
456.89	6654.5	
457.09	5537	
457.29	5924.8	
457.49	6976.7	
457.69	7056.6	
457.89	5333.6	
458.09	4737	
458.29	6720.1	
458.49	7426.6	
458.69	5806	
458.89	5178.6	
459.09	7576.1	
459.29	7785	
459.49	5342.5	
459.69	6117.3	
459.9	7256	
460.1	6668.2	
460.3	5197.1	
460.5	5034.6	
460.7	7162.4	
460.9	6836.8	
461.1	4601.8	
461.3	5956.9	
461.5	7742	
461.7	7427.3	
461.9	4994.3	
462.1	5513.1	
462.3	6861.4	
462.5	7441.6	
462.7	5050.3	
462.9	5180.7	
463.1	8536.6	
463.3	8103.1	
463.5	5309.7	
463.7	6242.9	
463.9	6992.4	
464.1	7357.7	
464.3	5403.2	
464.5	5722.7	
464.7	7630.7	
464.9	7189.7	
465.1	7156.3	
465.3	6033.3	
465.5	8035.5	
465.7	7892.9	
465.9	6212.9	
466.1	6176	
466.3	7681.9	
466.5	7593.2	
466.7	6931	
466.9	5823.7	
467.1	7462.1	
467.3	8519.6	
467.5	6821.8	
467.7	5673.6	
467.9	8716.2	
468.1	9538.8	
468.3	6541.9	
468.5	6991.8	
468.7	7427.3	
468.9	7488.1	
469.1	5948	
469.3	6694.1	
469.5	9413.1	
469.7	6960.4	
469.9	6492.7	
470.1	5730.9	
470.3	7456.7	
470.5	7496.2	
470.7	7005.4	
470.9	5829.2	
471.1	7218.4	
471.3	7763.2	
471.5	5637.4	
471.69	7658	
471.89	7124.2	
472.09	6592.4	
472.29	6440.2	
472.49	6905.1	
472.69	6848.4	
472.89	7762.5	
473.09	5579.3	
473.29	5750.7	
473.49	7047.7	
473.69	7245	
473.89	6726.2	
474.09	5877	
474.29	8454	
474.49	8043.7	
474.69	6676.4	
474.89	5997.1	
475.09	7222.5	
475.29	7236.2	
475.49	5422.3	
475.69	5663.3	
475.88	8922.3	
476.08	7574.8	
476.28	5316.5	
476.48	5853.8	
476.68	7946.8	
476.88	7838.9	
477.08	5763	
477.28	6003.3	
477.48	7299	
477.68	8000	
477.88	5550	
478.08	5822.4	
478.28	8245.8	
478.48	7443.7	
478.67	5841.5	
478.87	5380	
479.07	8137.3	
479.27	7574.1	
479.47	6076.3	
479.67	6095.4	
479.87	7933.8	
480.07	8394.6	
480.27	5340.4	
480.47	6988.4	
480.67	7589.8	
480.87	8129.8	
481.06	5658.5	
481.26	6427.9	
481.46	7475.8	
481.66	7372	
481.86	6085.9	
482.06	7141.3	
482.26	7238.9	
482.46	8105.9	
482.66	5984.2	
482.86	5628.5	
483.05	7550.9	
483.25	6920.1	
483.45	8473.8	
483.65	5985.5	
483.85	7079.1	
484.05	7408.2	
484.25	6419	
484.45	6959.7	
484.65	8316.8	
484.84	8247.9	
485.04	5928.9	
485.24	5904.3	
485.44	8518.9	
485.64	6860	
485.84	5144.5	
486.04	6533.7	
486.24	7178.1	
486.44	7643.7	
486.63	5196.4	
486.83	5860.6	
487.03	7109.2	
487.23	7301	
487.43	5272.8	
487.63	7662.1	
487.83	7329	
488.02	8400.8	
488.22	6280.4	
488.42	6800.6	
488.62	8301.8	
488.82	7180.9	
489.02	5905	
489.22	5876.3	
489.41	8110.6	
489.61	7759.1	
489.81	5616.9	
490.01	5579.3	
490.21	8070.4	
490.41	8802.2	
490.61	5583.4	
490.8	5797.1	
491	7477.1	
491.2	6904.4	
491.4	6455.2	
491.6	5526.8	
491.8	7590.5	
491.99	7707.9	
492.19	5270.8	
492.39	5741.8	
492.59	8045.8	
492.79	8111.3	
492.99	6490	
493.18	5591.6	
493.38	8126.3	
493.58	8865	
493.78	6297.5	
493.98	5874.9	
494.18	7763.8	
494.37	7161.1	
494.57	6435.4	
494.77	6322.8	
494.97	7952.9	
495.17	8209.6	
495.37	5827.8	
495.56	6227.9	
495.76	8362.5	
495.96	8006.9	
496.16	7131	
496.36	6005.3	
496.55	8243.8	
496.75	7785.7	
496.95	6555.5	
497.15	6285.2	
497.35	8183.7	
497.54	8198.7	
497.74	6073.6	
497.94	7823.2	
498.14	8868.4	
498.34	8637	
498.53	5687.9	
498.73	6567.8	
498.93	7519.5	
499.13	8133.2	
499.33	6357.6	
499.52	6884.6	
499.72	8101.1	
499.92	8439.7	
500.12	6056.5	
500.32	6336.4	
500.51	8388.5	
500.71	8146.1	
500.91	7167.9	
501.11	6762.4	
501.31	8340	
501.5	8649.3	
501.7	7360.4	
501.9	6374.6	
502.1	8043.7	
502.29	8464.9	
502.49	6761	
502.69	7283.9	
502.89	8301.1	
503.09	8286.8	
503.28	5877	
503.48	5942.5	
503.68	7548.1	
503.88	7594.6	
504.07	6962.4	
504.27	6442.9	
504.47	7970.7	
504.67	8089.5	
504.86	6847.7	
505.06	6632	
505.26	7584.3	
505.46	9529.2	
505.65	6459.3	
505.85	6756.9	
506.05	7598.6	
506.25	8132.5	
506.44	5868.8	
506.64	6828.6	
506.84	7452.6	
507.04	8434.9	
507.23	6032.6	
507.43	6668.2	
507.63	9486.2	
507.83	7826	
508.02	6502.3	
508.22	6202.6	
508.42	9745.6	
508.62	7441	
508.81	6556.9	
509.01	7040.2	
509.21	7364.5	
509.4	7576.8	
509.6	6540.5	
509.8	5945.9	
510	7561.1	
510.19	9045.2	
510.39	5890.6	
510.59	6038.1	
510.79	7410.2	
510.98	8718.2	
511.18	6091.3	
511.38	6208.8	
511.57	8254.7	
511.77	8101.1	
511.97	6894.1	
512.17	5870.8	
512.36	8194.6	
512.56	8239.7	
512.76	5902.9	
512.95	5737	
513.15	8439	
513.35	6929	
513.55	6833.4	
513.74	5975.3	
513.94	8304.5	
514.14	7593.9	
514.33	7022.5	
514.53	6640.9	
514.73	7567.2	
514.92	7859.4	
515.12	6289.3	
515.32	6032	
515.51	7874.4	
515.71	8458.1	
515.91	7716.1	
516.11	6006	
516.3	9722.4	
516.5	7520.8	
516.7	6655.2	
516.89	7201.3	
517.09	7691.5	
517.29	7559.7	
517.48	7080.5	
517.68	6371.2	
517.88	7415.7	
518.07	8038.3	
518.27	6855.2	
518.47	5906.3	
518.66	8551	
518.86	7158.3	
519.06	5670.1	
519.25	6163.7	
519.45	7569.3	
519.65	9101.2	
519.84	6739.2	
520.04	7608.2	
520.24	9510.1	
520.43	8240.3	
520.63	6608.1	
520.83	6356.2	
521.02	7502.4	
521.22	8251.3	
521.42	6888.7	
521.61	7397.9	
521.81	7647.1	
522.01	7902.4	
522.2	6629.3	
522.4	6438.1	
522.6	8385.1	
522.79	7109.2	
522.99	6527.6	
523.18	5770.5	
523.38	7980.9	
523.58	7989.1	
523.77	7703.8	
523.97	5689.9	
524.17	9831.6	
524.36	9081.4	
524.56	7014.3	
524.76	6696.2	
524.95	7951.6	
525.15	7583.6	
525.34	6457.2	
525.54	6531.7	
525.74	8307.9	
525.93	7334.5	
526.13	7619.8	
526.33	6411.5	
526.52	8624.7	
526.72	8105.2	
526.91	7752.2	
527.11	6878.4	
527.31	8687.5	
527.5	9088.9	
527.7	6784.2	
527.89	5846.3	
528.09	7572	
528.29	8048.5	
528.48	7171.3	
528.68	6817.7	
528.87	8449.2	
529.07	8548.9	
529.27	6778.1	
529.46	6197.2	
529.66	8154.3	
529.85	8635.6	
530.05	6171.2	
530.25	6997.2	
530.44	9579.7	
530.64	8092.9	
530.83	6560.3	
531.03	6787	
531.23	8497	
531.42	8375.5	
531.62	7470.3	
531.81	6643.6	
532.01	8538.7	
532.21	9029.5	
532.4	6335.7	
532.6	6739.9	
532.79	9562.6	
532.99	8556.4	
533.18	6767.9	
533.38	7915.4	
533.58	8173.4	
533.77	8930.5	
533.97	6746.7	
534.16	7552.2	
534.36	9138.7	
534.55	8165.9	
534.75	7691.5	
534.95	6776.7	
535.14	9002.9	
535.34	8176.9	
535.53	6491.4	
535.73	8523.6	
535.92	9532.6	
536.12	8383	
536.31	6604	
536.51	7856.7	
536.71	8682	
536.9	8260.8	
537.1	6771.9	
537.29	6858	
537.49	9147.6	
537.68	8075.1	
537.88	7202	
538.07	6421.7	
538.27	8249.2	
538.46	9351.7	
538.66	6348	
538.86	6699.6	
539.05	8391.9	
539.25	8781.7	
539.44	7079.8	
539.64	6634.1	
539.83	8214.4	
540.03	9310.7	
540.22	6550.8	
540.42	6873.7	
540.61	8523	
540.81	8688.2	
541	7171.3	
541.2	7772.7	
541.39	8010.3	
541.59	8502.5	
541.78	7503.8	
541.98	6544.6	
542.18	7762.5	
542.37	7722.9	
542.57	6993.8	
542.76	7479.9	
542.96	7797.3	
543.15	8579.6	
543.35	7062.8	
543.54	6353.5	
543.74	8882.7	
543.93	8452.6	
544.13	6987.7	
544.32	8098.4	
544.52	8742.8	
544.71	7820.5	
544.91	6046.3	
545.1	7253.9	
545.3	7867.6	
545.49	8608.3	
545.69	6010.8	
545.88	6734.4	
546.08	9689.6	
546.27	9248.6	
546.47	7180.2	
546.66	6365.8	
546.86	8899.1	
547.05	9601.6	
547.24	6647.7	
547.44	6520	
547.63	7795.3	
547.83	8959.2	
548.02	6912.6	
548.22	7210.2	
548.41	7652.6	
548.61	9108	
548.8	6454.5	
549	6435.4	
549.19	8327.7	
549.39	8534.6	
549.58	6154.1	
549.78	6754.2	
549.97	8711.4	
550.17	8209.6	
550.36	7691.5	
550.55	8760.5	
550.75	8198	
550.94	9150.3	
551.14	6520	
551.33	6912.6	
551.53	7471	
551.72	8578.9	
551.92	6853.9	
552.11	6621.1	
552.31	8563.9	
552.5	8518.2	
552.69	8482.7	
552.89	6290	
553.08	8497	
553.28	8290.9	
553.47	6694.8	
553.67	7845.8	
553.86	9288.2	
554.06	7463.5	
554.25	5855.8	
554.44	6397.9	
554.64	9915.6	
554.83	9434.3	
555.03	6320.7	
555.22	6810.9	
555.42	8752.3	
555.61	8512.7	
555.8	6647	
556	6939.9	
556.19	7613	
556.39	8911.4	
556.58	6701	
556.78	6675.7	
556.97	8344.8	
557.16	8051.2	
557.36	7888.8	
557.55	6311.2	
557.75	7420.5	
557.94	9245.9	
558.13	6386.2	
558.33	6261.3	
558.52	9017.2	
558.72	7812.3	
558.91	6307.7	
559.1	6580.1	
559.3	7623.9	
559.49	7249.1	
559.69	5837.4	
559.88	6993.8	
560.07	8382.3	
560.27	8761.2	
560.46	7051.2	
560.66	7187	
560.85	8179.6	
561.04	7350.2	
561.24	6294.8	
561.43	6513.9	
561.63	7615.7	
561.82	7804.8	
562.01	7825.3	
562.21	6826.6	
562.4	8408.3	
562.59	9393.3	
562.79	6702.3	
562.98	6230.6	
563.18	8244.4	
563.37	9723.8	
563.56	7160.4	
563.76	6156.9	
563.95	7714	
564.14	7583.6	
564.34	6606.7	
564.53	6412.9	
564.73	8227.4	
564.92	8585.1	
565.11	6698.2	
565.31	6137.1	
565.5	8768.7	
565.69	7724.9	
565.89	6332.3	
566.08	6576	
566.27	8752.3	
566.47	9126.4	
566.66	7309.2	
566.85	5839.4	
567.05	8261.5	
567.24	7577.5	
567.44	6156.2	
567.63	7718.1	
567.82	8524.3	
568.02	8299.1	
568.21	6265.4	
568.4	6655.9	
568.6	8081.3	
568.79	8064.9	
568.98	6013.5	
569.18	6168.5	
569.37	8030.1	
569.56	10122	
569.76	6504.3	
569.95	7580.2	
570.14	8419.2	
570.34	8265.6	
570.53	6022.4	
570.72	6073.6	
570.91	8792.6	
571.11	7871.7	
571.3	6513.2	
571.49	7449.8	
571.69	7933.8	
571.88	7479.9	
572.07	7004.7	
572.27	7006.1	
572.46	7542	
572.65	8543.4	
572.85	6259.3	
573.04	6636.1	
573.23	8787.8	
573.43	8014.4	
573.62	6008.1	
573.81	6621.8	
574	8067.6	
574.2	7879.2	
574.39	6279.8	
574.58	6601.3	
574.78	8873.8	
574.97	8137.3	
575.16	6840.2	
575.36	7085.3	
575.55	8409.6	
575.74	8651.3	
575.93	5880.4	
576.13	6995.2	
576.32	7878.5	
576.51	8415.1	
576.71	6257.2	
576.9	7772.7	
577.09	8783.1	
577.28	8310	
577.48	6830	
577.67	5797.1	
577.86	7948.2	
578.05	8157.7	
578.25	6491.4	
578.44	6557.6	
578.63	7995.3	
578.83	9254.1	
579.02	5901.6	
579.21	7477.8	
579.4	8243.1	
579.6	7959.8	
579.79	6731	
579.98	8966	
580.17	8615.1	
580.37	8563.9	
580.56	6153.5	
580.75	6868.9	
580.94	9112.8	
581.14	8953	
581.33	7303.1	
581.52	6306.4	
581.71	8522.3	
581.91	9153.7	
582.1	5999.9	
582.29	6651.1	
582.48	8142	
582.68	8068.3	
582.87	7143.3	
583.06	6741.9	
583.25	8445.1	
583.45	8150.9	
583.64	7459.4	
583.83	8101.8	
584.02	7972.7	
584.21	8480.6	
584.41	7443.7	
584.6	6730.3	
584.79	8186.4	
584.98	9009	
585.18	6229.9	
585.37	6248.4	
585.56	7793.2	
585.75	8513.4	
585.94	6423.8	
586.14	7118.1	
586.33	9164.7	
586.52	8230.1	
586.71	6964.5	
586.91	6711.9	
587.1	7645.1	
587.29	8723.7	
587.48	6749.4	
587.67	6460	
587.87	8536.6	
588.06	8604.9	
588.25	7843	
588.44	7135.8	
588.63	8120.2	
588.83	8770.1	
589.02	6602	
589.21	6483.9	
589.4	7850.5	
589.59	7755.7	
589.78	5713.8	
589.98	6036	
590.17	7477.1	
590.36	7976.2	
590.55	5306.3	
590.74	6209.4	
590.94	9255.5	
591.13	7820.5	
591.32	5810.1	
591.51	5367.7	
591.7	8195.3	
591.89	7661.5	
592.09	5463.3	
592.28	6008.1	
592.47	6906.4	
592.66	8859.5	
592.85	5435.3	
593.05	5780.7	
593.24	7551.5	
593.43	8310.7	
593.62	5808	
593.81	6285.9	
594	7481.2	
594.19	7767.3	
594.39	5752.1	
594.58	5664.7	
594.77	7978.9	
594.96	8617.9	
595.15	5699.5	
595.34	6416.3	
595.54	8058.8	
595.73	7092.8	
595.92	5029.8	
596.11	6219.7	
596.3	8472.4	
596.49	7064.8	
596.68	5958.9	
596.88	6455.9	
597.07	8159.8	
597.26	6984.3	
597.45	5573.2	
597.64	6791.7	
597.83	7255.3	
598.02	7922.9	
598.22	5709.7	
598.41	6453.8	
598.6	7763.8	
598.79	7125.6	
598.98	5759.6	
599.17	6645	
599.36	7811.6	
599.55	9024	
599.74	7888.1	
599.94	7624.6	
600.13	8495.7	
600.32	7213.6	
600.51	5483.8	
600.7	5683.1	
600.89	9040.4	
601.08	9118.9	
601.27	5510.4	
601.47	6509.1	
601.66	8351.6	
601.85	9019.3	
602.04	6161	
602.23	6451.8	
602.42	7428	
602.61	8114.7	
602.8	6159.6	
602.99	5924.8	
603.18	7807.5	
603.37	8086.7	
603.57	6638.8	
603.76	7154.2	
603.95	8826.1	
604.14	8314.8	
604.33	5997.8	
604.52	6298.2	
604.71	8040.3	
604.9	7707.9	
605.09	7021.8	
605.28	6896.2	
605.47	8579.6	
605.66	8404.9	
605.86	6673	
606.05	6103.6	
606.24	8627.4	
606.43	7208.2	
606.62	6393.8	
606.81	7178.8	
607	8549.6	
607.19	7830.1	
607.38	5818.3	
607.57	6136.4	
607.76	7599.3	
607.95	7038.2	
608.14	6483.9	
608.33	7098.9	
608.52	7529.7	
608.72	8495.7	
608.91	5704.3	
609.1	5728.9	
609.29	7757	
609.48	7245	
609.67	6731	
609.86	5728.9	
610.05	7326.9	
610.24	7606.2	
610.43	5591	
610.62	5252.4	
610.81	8854.7	
611	8656.8	
611.19	5735	
611.38	6435.4	
611.57	8002.1	
611.76	9399.5	
611.95	5561.6	
612.14	5363.6	
612.33	7816.4	
612.52	7354.9	
612.71	6055.8	
612.9	5297.4	
613.09	6927.6	
613.28	9280.7	
613.47	5845.6	
613.66	6865.5	
613.85	7935.9	
614.04	7492.2	
614.24	5984.2	
614.43	5120.6	
614.62	8105.2	
614.81	7923.6	
615	6574	
615.19	6576	
615.38	7277.8	
615.57	7694.9	
615.76	6307.7	
615.95	7346.1	
616.14	8075.8	
616.33	7771.4	
616.52	6739.2	
616.71	6935.1	
616.9	8030.8	
617.09	7841	
617.28	5990.3	
617.47	7307.2	
617.66	7087.3	
617.85	7159.7	
618.04	6954.9	
618.22	6408.1	
618.41	7473	
618.6	8392.6	
618.79	6242.9	
618.98	5956.2	
619.17	8686.8	
619.36	6978.8	
619.55	6090.7	
619.74	6144.6	
619.93	7880.6	
620.12	7357	
620.31	6668.2	
620.5	6909.2	
620.69	8914.8	
620.88	8953	
621.07	7615.7	
621.26	6534.4	
621.45	8103.1	
621.64	8147.5	
621.83	6662	
622.02	5812.1	
622.21	8151.6	
622.4	7809.6	
622.59	7320.8	
622.78	6962.4	
622.97	7466.2	
623.16	8477.2	
623.35	6642.2	
623.54	5741.8	
623.72	7727.7	
623.91	7792.5	
624.1	6848.4	
624.29	5542.5	
624.48	8834.3	
624.67	8028.7	
624.86	6723.5	
625.05	5715.9	
625.24	9121	
625.43	7324.2	
625.62	8523	
625.81	5915.2	
626	8357.1	
626.19	7656.7	
626.38	6739.9	
626.56	6111.1	
626.75	7495.6	
626.94	8198.7	
627.13	6746.7	
627.32	5414.8	
627.51	8174.1	
627.7	9581.1	
627.89	5593.7	
628.08	6726.2	
628.27	7208.8	
628.46	7456	
628.65	5775.3	
628.83	5483.8	
629.02	8062.2	
629.21	7299	
629.4	6236.7	
629.59	6456.6	
629.78	7230	
629.97	8213.7	
630.16	6469.5	
630.35	6024.4	
630.54	8681.3	
630.72	8411	
630.91	5954.8	
631.1	6578.8	
631.29	7849.2	
631.48	8068.3	
631.67	6671.6	
631.86	6095.4	
632.05	7379.5	
632.24	7451.2	
632.42	5726.1	
632.61	6396.5	
632.8	7574.1	
632.99	7240.3	
633.18	6383.5	
633.37	6782.2	
633.56	7847.8	
633.75	7749.5	
633.93	6418.3	
634.12	6122.1	
634.31	8772.8	
634.5	8269	
634.69	6164.4	
634.88	6655.9	
635.07	7692.9	
635.25	8288.8	
635.44	7010.9	
635.63	7243.7	
635.82	7598	
636.01	7071.6	
636.2	6980.8	
636.39	6550.1	
636.57	8698.4	
636.76	8419.9	
636.95	5978	
637.14	7347.4	
637.33	8058.8	
637.52	8959.2	
637.7	5750.7	
637.89	6714.6	
638.08	7552.2	
638.27	9170.8	
638.46	6767.9	
638.65	7285.3	
638.83	9078.6	
639.02	7390.4	
639.21	6733	
639.4	7251.9	
639.59	8021.9	
639.78	7589.1	
639.96	5961	
640.15	5982.8	
640.34	7846.5	
640.53	8015.1	
640.72	5685.2	
640.91	6106.4	
641.09	7234.8	
641.28	8606.2	
641.47	6121.4	
641.66	6974.7	
641.85	7851.9	
642.03	8264.9	
642.22	6655.2	
642.41	6178	
642.6	7336.5	
642.79	6790.4	
642.97	5973.9	
643.16	6738.5	
643.35	7307.8	
643.54	7227.3	
643.73	5779.4	
643.91	6694.8	
644.1	6974	
644.29	7639.6	
644.48	5950.7	
644.67	6099.5	
644.85	7260	
645.04	7598	
645.23	5528.8	
645.42	5885.9	
645.6	7105.8	
645.79	8275.2	
645.98	5866.7	
646.17	4851	
646.36	6779.5	
646.54	7453.9	
646.73	6601.3	
646.92	5400.5	
647.11	6976.7	
647.29	8057.4	
647.48	5390.3	
647.67	5256.5	
647.86	8288.8	
648.05	8335.2	
648.23	5814.9	
648.42	7161.7	
648.61	7690.8	
648.8	7401.4	
648.98	5432.6	
649.17	5721.3	
649.36	6930.3	
649.55	6455.2	
649.73	5573.9	
649.92	6350.1	
650.11	6968.6	
650.3	7245.7	
650.48	5681.1	
650.67	5459.9	
650.86	7617.1	
651.05	6393.1	
651.23	5588.9	
651.42	5563	
651.61	6944	
651.79	7772.7	
651.98	5810.1	
652.17	5460.6	
652.36	7474.4	
652.54	6514.6	
652.73	5493.3	
652.92	5343.2	
653.11	7594.6	
653.29	7703.8	
653.48	4838.7	
653.67	5898.1	
653.85	7336.5	
654.04	8477.2	
654.23	6055.8	
654.42	5658.5	
654.6	6948.1	
654.79	7564.5	
654.98	5112.4	
655.16	5669.5	
655.35	6492.1	
655.54	6417.7	
655.73	5175.9	
655.91	5124	
656.1	7676.5	
656.29	6263.4	
656.47	4619.5	
656.66	6352.1	
656.85	6651.8	
657.03	6743.3	
657.22	5183.4	
657.41	5303.6	
657.59	6774	
657.78	6645	
657.97	4995	
658.16	5753.4	
658.34	7554.3	
658.53	7957	
658.72	6629.3	
658.9	7131.7	
659.09	6898.9	
659.28	7072.3	
659.46	5511.8	
659.65	5453.1	
659.84	6736.5	
660.02	7305.1	
660.21	5301.5	
660.4	5308.3	
660.58	7737.9	
660.77	7097.6	
660.96	5988.9	
661.14	4960.2	
661.33	8295.6	
661.52	8096.3	
661.7	4853	
661.89	8779.6	
662.08	6745.3	
662.26	6330.3	
662.45	5164.3	
662.64	5369.1	
662.82	7393.2	
663.01	6606.7	
663.2	5382.7	
663.38	6113.2	
663.57	7310.6	
663.75	7291.5	
663.94	5651	
664.13	6967.2	
664.31	6670.2	
664.5	7435.5	
664.69	6054.5	
664.87	6487.3	
665.06	6460	
665.25	7228	
665.43	6794.5	
665.62	6857.3	
665.8	7613.7	
665.99	6848.4	
666.18	5659.2	
666.36	5778.7	
666.55	7524.9	
666.74	7417.1	
666.92	5304.9	
667.11	7098.9	
667.29	6939.2	
667.48	7454.6	
667.67	6574.7	
667.85	5807.4	
668.04	6952.9	
668.22	6937.2	
668.41	5803.9	
668.6	5912.5	
668.78	6637.5	
668.97	6935.8	
669.15	6196.5	
669.34	5102.2	
669.53	6787	
669.71	7116.7	
669.9	5263.3	
670.08	5942.5	
670.27	6797.2	
670.46	7359.7	
670.64	6171.2	
670.83	6464.8	
671.01	6631.3	
671.2	7267.6	
671.38	5378.6	
671.57	5270.1	
671.76	7916.8	
671.94	8423.3	
672.13	5149.3	
672.31	6319.3	
672.5	7446.4	
672.69	6724.2	
672.87	5283.8	
673.06	5671.5	
673.24	7235.5	
673.43	6759	
673.61	6152.8	
673.8	5637.4	
673.98	7509.9	
674.17	7641.7	
674.36	6247	
674.54	6079.1	
674.73	7222.5	
674.91	7484.6	
675.1	5698.1	
675.28	5418.2	
675.47	6992.4	
675.65	7584.3	
675.84	5666	
676.03	6034.7	
676.21	6801.3	
676.4	6281.1	
676.58	6582.9	
676.77	6243.6	
676.95	8246.5	
677.14	6750.8	
677.32	5337	
677.51	5172.5	
677.69	7496.9	
677.88	6351.4	
678.06	5228.5	
678.25	5365	
678.44	6932.4	
678.62	6683.2	
678.81	4956.1	
678.99	6057.9	
679.18	7864.2	
679.36	7334.5	
679.55	5598.5	
679.73	6272.2	
679.92	7392.5	
680.1	6713.2	
680.29	6804.7	
680.47	5548.6	
680.66	6696.9	
680.84	7583.6	
681.03	4934.9	
681.21	5928.2	
681.4	6738.5	
681.58	6630.6	
681.77	5355.4	
681.95	5345.2	
682.14	7646.4	
682.32	7937.9	
682.51	6314.6	
682.69	5045.5	
682.88	6662	
683.06	7329	
683.25	5971.2	
683.43	6433.4	
683.62	6906.4	
683.8	7362.4	
683.99	6520	
684.17	5788.2	
684.36	8241	
684.54	6868.9	
684.73	5049.6	
684.91	5268.7	
685.1	7138.5	
685.28	6598.6	
685.46	5814.9	
685.65	5799.8	
685.83	7323.5	
686.02	6677.7	
686.2	5064.6	
686.39	5289.9	
686.57	6332.3	
686.76	8002.8	
686.94	5084.4	
687.13	5365.7	
687.31	7162.4	
687.5	6658.6	
687.68	4718.5	
687.86	5999.2	
688.05	8428.8	
688.23	6103.6	
688.42	6039.5	
688.6	5205.9	
688.79	6520.7	
688.97	6494.8	
689.16	5646.9	
689.34	4573.8	
689.52	7337.9	
689.71	7537.2	
689.89	5896.8	
690.08	5225.1	
690.26	6824.5	
690.45	6685.3	
690.63	6093.4	
690.81	5334.3	
691	6506.4	
691.18	6439.5	
691.37	5476.3	
691.55	7675.1	
691.74	6440.9	
691.92	8509.3	
692.1	5419.6	
692.29	4866.7	
692.47	6677.7	
692.66	5844.2	
692.84	5038.7	
693.02	5720	
693.21	6021.7	
693.39	6547.4	
693.58	5739.1	
693.76	5195.7	
693.94	7833.5	
694.13	7558.4	
694.31	5047.6	
694.5	6219	
694.68	6378.7	
694.86	6749.4	
695.05	5587.5	
695.23	5612.8	
695.42	7198.6	
695.6	9499.2	
695.78	6163.7	
695.97	5272.2	
696.15	7195.9	
696.34	6636.1	
696.52	5066	
696.7	5913.9	
696.89	6929.6	
697.07	6238.8	
697.25	5780.7	
697.44	7261.4	
697.62	6861.4	
697.81	7170.6	
697.99	5401.9	
698.17	5904.3	
698.36	6172.6	
698.54	6896.9	
698.72	5739.1	
698.91	4719.9	
699.09	6461.3	
699.28	6257.2	
699.46	5422.3	
699.64	5331.5	
699.83	6241.5	
700.01	7634.8	
700.19	6081.8	
700.38	4422.2	
700.56	7482.6	
700.74	6397.9	
700.93	4884.4	
701.11	5772.5	
701.29	6922.8	
701.48	8017.8	
701.66	5166.3	
701.84	5240.8	
702.03	6505.7	
702.21	7124.2	
702.39	4736.3	
702.58	5380	
702.76	6898.2	
702.94	7083.9	
703.13	4737	
703.31	7128.3	
703.49	6206.7	
703.68	7455.3	
703.86	4939.7	
704.04	5952.8	
704.23	6681.2	
704.41	7135.1	
704.59	5085.8	
704.78	6406	
704.96	7831.4	
705.14	7153.6	
705.33	4819.6	
705.51	5799.2	
705.69	6595.8	
705.87	7467.6	
706.06	6079.7	
706.24	4896	
706.42	6918	
706.61	7157	
706.79	6130.3	
706.97	4825	
707.16	6318	
707.34	6933.1	
707.52	6029.2	
707.7	5147.9	
707.89	6563.1	
708.07	6203.3	
708.25	6002.6	
708.44	6119.3	
708.62	6362.4	
708.8	7653.3	
708.98	6308.4	
709.17	5184.8	
709.35	6866.2	
709.53	6916	
709.72	4935.6	
709.9	5106.3	
710.08	7155.6	
710.26	7167.2	
710.45	6682.5	
710.63	5248.9	
710.81	6765.8	
710.99	6828.6	
711.18	5919.3	
711.36	5379.3	
711.54	6610.8	
711.72	7387	
711.91	5476.3	
712.09	4954.7	
712.27	6733.7	
712.45	7434.8	
712.64	5706.3	
712.82	4635.2	
713	6163	
713.18	6354.2	
713.37	4799.1	
713.55	6046.3	
713.73	7255.3	
713.91	5859.9	
714.1	5285.1	
714.28	4733.5	
714.46	6862.7	
714.64	6118	
714.83	4135.5	
715.01	4968.4	
715.19	6133	
715.37	5543.2	
715.55	4616.1	
715.74	5078.3	
715.92	7123.5	
716.1	5018.2	
716.28	6144.6	
716.47	5100.8	
716.65	5771.2	
716.83	5991	
717.01	5004.6	
717.19	5039.4	
717.38	8062.2	
717.56	5559.6	
717.74	5226.4	
717.92	4312.3	
718.1	6828.6	
718.29	5968.5	
718.47	3937.6	
718.65	4658.4	
718.83	6677.7	
719.01	6546.7	
719.2	3845.4	
719.38	4986.1	
719.56	6316.6	
719.74	7953.6	
719.92	4532.2	
720.11	5672.9	
720.29	6401.3	
720.47	5511.8	
720.65	4091.8	
720.83	5033.2	
721.02	5883.8	
721.2	5603.2	
721.38	5053.7	
721.56	4308.9	
721.74	5162.9	
721.92	5353.4	
722.11	5505.6	
722.29	5218.9	
722.47	6603.3	
722.65	5737.7	
722.83	4315.1	
723.01	5293.3	
723.2	5851.7	
723.38	6133.7	
723.56	3729.4	
723.74	4883.7	
723.92	5282.4	
724.1	6528.2	
724.29	4275.5	
724.47	5425.1	
724.65	5432.6	
724.83	5341.8	
725.01	4130.8	
725.19	5063.3	
725.37	5381.4	
725.56	5479.7	
725.74	4020.8	
725.92	4285.7	
726.1	5314.5	
726.28	5650.3	
726.46	4728.1	
726.64	4360.1	
726.83	5591.6	
727.01	5895.4	
727.19	3988.1	
727.37	4909.7	
727.55	5709.1	
727.73	6277	
727.91	3915	
728.09	3842.7	
728.28	6236.7	
728.46	6955.6	
728.64	4922.6	
728.82	4889.2	
729	7418.4	
729.18	6670.9	
729.36	4042	
729.54	6499.6	
729.72	7667.6	
729.91	5928.2	
730.09	6076.3	
730.27	4771.8	
730.45	5793.7	
730.63	6447	
730.81	5427.8	
730.99	4367.6	
731.17	7019.8	
731.35	5539.8	
731.53	5008.6	
731.71	4512.4	
731.9	6697.5	
732.08	6977.4	
732.26	4822.3	
732.44	4528.1	
732.62	6944.7	
732.8	6439.5	
732.98	5295.4	
733.16	4193.6	
733.34	6389.7	
733.52	5172.5	
733.7	4827.1	
733.88	5141.8	
734.07	6313.2	
734.25	5958.9	
734.43	4240	
734.61	5909.1	
734.79	7585	
734.97	5885.9	
735.15	4425.7	
735.33	4771.8	
735.51	6279.8	
735.69	5940.5	
735.87	5930.2	
736.05	5000.5	
736.23	6167.8	
736.41	5941.2	
736.59	4788.8	
736.77	4908.3	
736.95	6577.4	
737.13	5971.2	
737.32	4534.9	
737.5	4695.3	
737.68	7189.1	
737.86	5876.3	
738.04	4270.7	
738.22	6179.4	
738.4	5657.9	
738.58	6011.5	
738.76	4967.7	
738.94	3813.3	
739.12	5848.3	
739.3	5722.7	
739.48	5588.2	
739.66	5336.3	
739.84	6063.4	
740.02	6122.7	
740.2	3915.7	
740.38	4387.4	
740.56	6532.3	
740.74	5351.3	
740.92	5015.5	
741.1	4941.7	
741.28	5920	
741.46	5727.5	
741.64	4571.1	
741.82	5130.2	
742	6008.1	
742.18	5986.2	
742.36	4804.5	
742.54	4344.4	
742.72	6531	
742.9	5261.9	
743.08	5198.4	
743.26	3989.4	
743.44	6776	
743.62	6619.7	
743.8	5369.8	
743.98	4311.7	
744.16	6304.3	
744.34	6044.2	
744.52	5271.5	
744.7	5184.1	
744.88	6485.2	
745.06	5993	
745.24	5343.8	
745.42	5429.2	
745.6	6544.6	
745.78	6302.3	
745.96	4189.5	
746.14	4454.3	
746.32	7319.4	
746.5	6564.4	
746.68	5089.9	
746.86	4466.6	
747.03	7075	
747.21	5301.5	
747.39	5124.7	
747.57	4540.3	
747.75	6121.4	
747.93	6621.8	
748.11	4489.8	
748.29	4397.7	
748.47	7841.7	
748.65	5864.7	
748.83	5282.4	
749.01	4971.8	
749.19	6387.6	
749.37	5478.3	
749.55	4777.2	
749.73	4906.9	
749.91	5948	
750.09	5728.9	
750.26	4969.1	
750.44	4351.3	
750.62	6025.1	
750.8	6007.4	
750.98	4120.5	
751.16	4504.2	
751.34	6083.8	
751.52	5442.1	
751.7	5319.3	
751.88	4060.4	
752.06	6615.6	
752.24	6496.2	
752.42	4065.9	
752.59	4445.5	
752.77	5994.4	
752.95	7288	
753.13	5237.3	
753.31	4592.9	
753.49	5699.5	
753.67	6148.7	
753.85	4889.2	
754.03	4489.8	
754.21	6496.8	
754.38	6827.9	
754.56	4633.2	
754.74	3644	
754.92	5707	
755.1	6516.6	
755.28	3758	
755.46	3788.1	
755.64	7215.7	
755.82	7394.5	
755.99	4154	
756.17	4339	
756.35	4844.1	
756.53	6594.5	
756.71	3223.5	
756.89	4233.2	
757.07	6098.9	
757.25	5104.9	
757.42	4718.5	
757.6	5575.3	
757.78	6113.2	
757.96	4990.9	
758.14	4332.1	
758.32	3838.6	
758.5	4618.2	
758.67	5466.7	
758.85	4103.4	
759.03	4287.8	
759.21	5708.4	
759.39	5055.1	
759.57	3738.9	
759.75	4902.2	
759.92	6333	
760.1	5586.9	
760.28	5324	
760.46	5584.8	
760.64	5304.9	
760.82	5032.5	
760.99	4842.1	
761.17	4266.6	
761.35	6069.5	
761.53	5044.8	
761.71	4364.2	
761.89	5132.2	
762.06	5997.1	
762.24	5506.3	
762.42	4396.3	
762.6	4241.3	
762.78	5533.6	
762.96	6146.6	
763.13	4836.6	
763.31	4448.9	
763.49	6380.1	
763.67	5464	
763.85	5307.7	
764.02	5869.5	
764.2	6632	
764.38	5763.7	
764.56	4387.4	
764.74	5320.6	
764.91	6755.6	
765.09	5571.2	
765.27	4060.4	
765.45	3826.3	
765.63	6781.5	
765.8	6652.5	
765.98	3508.2	
766.16	3984	
766.34	5160.9	
766.52	4954.7	
766.69	4911.7	
766.87	3798.3	
767.05	5575.9	
767.23	6413.6	
767.41	4152.6	
767.58	4372.4	
767.76	6139.1	
767.94	6276.3	
768.12	4161.5	
768.29	4991.6	
768.47	5695.4	
768.65	6410.8	
768.83	3822.9	
769	5040.7	
769.18	5242.1	
769.36	5974.6	
769.54	4719.9	
769.72	3839.3	
769.89	6218.3	
770.07	6425.8	
770.25	4130.8	
770.43	5633.3	
770.6	7043	
770.78	7527	
770.96	4431.8	
771.14	5045.5	
771.31	6181.5	
771.49	5502.2	
771.67	3528	
771.85	3857	
772.02	4767.7	
772.2	5565	
772.38	4583.4	
772.55	4033.1	
772.73	5795.8	
772.91	5588.9	
773.09	4464.6	
773.26	4536.3	
773.44	5742.5	
773.62	5502.9	
773.8	3969.6	
773.97	3689.8	
774.15	5858.6	
774.33	5427.1	
774.5	3827.7	
774.68	4243.4	
774.86	6062.7	
775.04	5482.4	
775.21	4014	
775.39	3959.4	
775.57	5799.8	
775.74	6234.7	
775.92	3823.6	
776.1	3730	
776.27	5765.7	
776.45	7106.5	
776.63	4031.8	
776.81	3475.4	
776.98	5424.4	
777.16	6563.7	
777.34	4135.5	
777.51	4445.5	
777.69	5397.8	
777.87	5192.3	
778.04	4190.8	
778.22	4885.8	
778.4	5188.2	
778.57	5908.4	
778.75	3381.9	
778.93	3743	
779.1	5010	
779.28	4824.3	
779.46	3429	
779.64	3964.9	
779.81	6042.9	
779.99	7030	
780.17	4833.2	
780.34	5019.6	
780.52	5511.8	
780.69	5739.8	
780.87	4408.6	
781.05	3875.4	
781.22	5550.7	
781.4	5683.8	
781.58	3987.4	
781.75	3183.2	
781.93	5618.9	
782.11	5020.3	
782.28	4926.7	
782.46	3999	
782.64	4827.7	
782.81	5841.5	
782.99	4111	
783.17	4137.6	
783.34	5698.8	
783.52	4889.9	
783.69	4267.3	
783.87	5181.4	
784.05	5003.9	
784.22	4980	
784.4	5112.4	
784.58	4417.5	
784.75	5981.4	
784.93	5052.3	
785.1	4101.4	
785.28	4756.7	
785.46	5693.4	
785.63	4995.7	
785.81	4030.4	
785.99	3856.3	
786.16	5169.1	
786.34	5612.1	
786.51	3921.2	
786.69	4357.4	
786.87	4815.5	
787.04	5355.4	
787.22	3755.3	
787.39	4803.2	
787.57	5016.8	
787.75	6175.3	
787.92	4978.6	
788.1	4945.2	
788.27	5052.3	
788.45	4795	
788.63	4571.7	
788.8	3284.3	
788.98	5580.7	
789.15	4799.1	
789.33	3384.6	
789.5	4136.2	
789.68	6063.4	
789.86	6145.3	
790.03	4554	
790.21	3929.4	
790.38	5980.1	
790.56	5201.8	
790.73	3801	
790.91	3908.9	
791.09	5044.1	
791.26	5844.9	
791.44	4083	
791.61	3525.9	
791.79	4994.3	
791.96	5164.3	
792.14	3717.1	
792.32	3155.9	
792.49	5053	
792.67	5133.6	
792.84	3754.6	
793.02	3514.3	
793.19	5534.3	
793.37	6346	
793.54	3195.5	
793.72	3540.9	
793.89	6460	
794.07	5090.6	
794.25	4263.2	
794.42	3272.7	
794.6	6238.8	
794.77	5780.1	
794.95	4519.9	
795.12	3966.2	
795.3	5059.2	
795.47	5678.3	
795.65	4252.9	
795.82	4156	
796	4884.4	
796.17	6910.5	
796.35	3991.5	
796.52	4736.3	
796.7	5648.3	
796.87	5732.9	
797.05	4982.7	
797.22	4918.5	
797.4	5694	
797.57	6767.9	
797.75	4188.1	
797.92	3917.1	
798.1	5999.2	
798.27	5123.3	
798.45	3332	
798.62	3622.9	
798.8	5391.6	
798.97	5917.9	
799.15	4367	
799.32	4205.2	
799.5	4660.5	
799.67	5440.8	
799.85	4504.8	
800.02	3269.2	
800.2	5070.1	
800.37	5401.2	
800.55	4663.9	
800.72	3967.6	
800.9	5829.2	
801.07	6373.3	
801.25	5246.9	
801.42	4334.9	
801.6	5872.9	
801.77	5618.9	
801.95	3859.1	
802.12	3854.3	
802.29	5620.3	
802.47	5567.1	
802.64	4231.1	
802.82	3145.7	
802.99	5048.2	
803.17	6081.8	
803.34	4179.2	
803.52	3756	
803.69	6777.4	
803.87	4870.8	
804.04	4128	
804.21	4275.5	
804.39	6228.6	
804.56	5289.2	
804.74	3512.3	
804.91	4359.4	
805.09	5047.6	
805.26	5194.3	
805.44	3507.5	
805.61	3936.2	
805.78	5804.6	
805.96	5823.7	
806.13	4346.5	
806.31	4638	
806.48	4631.8	
806.66	5175.2	
806.83	4289.8	
807	4285	
807.18	5054.4	
807.35	5514.5	
807.53	4160.8	
807.7	3336.8	
807.87	6395.1	
808.05	5210.7	
808.22	4610	
808.4	3292.5	
808.57	5128.8	
808.74	4722.6	
808.92	3818.8	
809.09	4943.8	
809.27	5003.9	
809.44	5616.9	
809.61	3348.4	
809.79	3792.2	
809.96	6253.8	
810.14	5864	
810.31	3297.2	
810.48	4055	
810.66	5217.5	
810.83	5997.8	
811.01	3788.1	
811.18	4638.6	
811.35	5918.6	
811.53	4605.2	
811.7	4662.5	
811.87	4317.1	
812.05	5102.2	
812.22	5088.5	
812.39	3670.6	
812.57	3620.8	
812.74	5110.4	
812.92	7001.3	
813.09	4069.3	
813.26	4371	
813.44	6619	
813.61	5010.7	
813.78	3364.8	
813.96	4526	
814.13	5147.2	
814.3	4782	
814.48	4915.8	
814.65	4040.6	
814.82	6346	
815	4882.4	
815.17	4167.6	
815.34	5041.4	
815.52	5055.8	
815.69	5029.8	
815.87	4140.3	
816.04	3580.5	
816.21	5112.4	
816.38	4511.7	
816.56	4003.1	
816.73	3704.8	
816.9	6483.2	
817.08	5985.5	
817.25	3759.4	
817.42	4770.4	
817.6	4672.8	
817.77	5180.7	
817.94	4286.4	
818.12	3731.4	
818.29	4819.6	
818.46	7774.8	
818.64	3902.1	
818.81	3613.3	
818.98	4811.4	
819.16	7059.3	
819.33	4462.5	
819.5	4124.6	
819.67	5512.4	
819.85	6212.2	
820.02	4035.2	
820.19	4295.3	
820.37	5357.5	
820.54	4835.3	
820.71	4186	
820.88	5301.5	
821.06	5382.1	
821.23	4908.3	
821.4	4259.8	
821.58	4173.8	
821.75	5903.6	
821.92	5292.6	
822.09	3381.9	
822.27	3696.6	
822.44	5141.1	
822.61	4985.4	
822.79	3422.2	
822.96	6555.5	
823.13	5586.9	
823.3	4839.4	
823.48	3973.7	
823.65	3534.1	
823.82	5863.3	
823.99	4643.4	
824.17	4979.3	
824.34	3584.6	
824.51	6804.7	
824.68	5191.6	
824.86	3793.5	
825.03	4213.4	
825.2	5091.9	
825.37	6275.7	
825.55	3751.9	
825.72	4113	
825.89	6882.5	
826.06	6375.3	
826.24	4031.8	
826.41	4076.8	
826.58	6256.5	
826.75	5472.9	
826.92	3158.7	
827.1	3538.9	
827.27	8621.9	
827.44	6857.3	
827.61	3777.1	
827.79	4738.3	
827.96	4832.5	
828.13	5301.5	
828.3	4041.3	
828.47	3348.4	
828.65	5352.7	
828.82	5344.5	
828.99	5233.9	
829.16	4552.6	
829.34	5791.7	
829.51	5558.9	
829.68	4169	
829.85	4375.1	
830.02	6025.1	
830.2	5750.7	
830.37	3207.1	
830.54	5064.6	
830.71	6575.3	
830.88	5113.8	
831.05	3269.9	
831.23	3746.4	
831.4	6261.3	
831.57	7163.1	
831.74	3843.4	
831.91	3391.4	
832.09	5374.6	
832.26	5831.2	
832.43	3992.9	
832.6	4518.5	
832.77	5397.8	
832.94	6189	
833.12	3170.3	
833.29	3995.6	
833.46	5017.5	
833.63	7386.3	
833.8	4348.5	
833.97	4048.8	
834.15	5786.2	
834.32	5542.5	
834.49	4162.8	
834.66	4252.9	
834.83	6011.5	
835	4859.8	
835.17	3877.5	
835.35	3910.3	
835.52	5614.2	
835.69	5556.1	
835.86	4160.1	
836.03	3310.9	
836.2	5731.6	
836.37	5341.1	
836.55	3945.1	
836.72	3732.1	
836.89	5371.8	
837.06	5758.9	
837.23	4090.5	
837.4	4517.1	
837.57	6683.2	
837.75	7325.6	
837.92	3642.7	
838.09	3856.3	
838.26	5326.8	
838.43	6072.9	
838.6	4191.5	
838.77	3714.3	
838.94	6969.2	
839.11	6703	
839.29	3968.3	
839.46	3141.6	
839.63	5711.1	
839.8	5440.1	
839.97	3822.9	
840.14	3894.6	
840.31	5550	
840.48	5773.2	
840.65	3172.3	
840.82	3811.3	
841	5705.6	
841.17	5733.6	
841.34	3581.2	
841.51	3643.3	
841.68	5710.4	
841.85	5410.1	
842.02	3714.3	
842.19	3104.7	
842.36	5491.3	
842.53	5468.1	
842.7	3560.1	
842.87	4439.3	
843.05	7222.5	
843.22	5425.1	
843.39	3383.2	
843.56	3657	
843.73	5187.5	
843.9	5769.8	
844.07	5799.2	
844.24	4833.2	
844.41	8576.9	
844.58	5004.6	
844.75	3433.8	
844.92	3790.1	
845.09	5776.6	
845.26	5752.1	
845.43	3576.4	
845.6	3743	
845.77	5695.4	
845.94	5472.2	
846.12	3976.5	
846.29	4184.7	
846.46	5936.4	
846.63	5775.3	
846.8	3560.7	
846.97	4191.5	
847.14	6285.2	
847.31	5690.6	
847.48	3973.7	
847.65	4443.4	
847.82	6041.5	
847.99	6040.1	
848.16	4760.8	
848.33	4459.8	
848.5	5275.6	
848.67	6248.4	
848.84	3519.8	
849.01	3742.3	
849.18	5133.6	
849.35	4825.7	
849.52	4469.4	
849.69	3459.7	
849.86	5927.5	
850.03	6197.2	
850.2	3583.9	
850.37	4439.3	
850.54	6118	
850.71	5425.8	
850.88	4274.8	
851.05	3450.1	
851.22	5657.2	
851.39	6310.5	
851.56	3336.8	
851.73	4048.2	
851.9	5083.7	
852.07	5991	
852.24	3904.8	
852.41	3540.9	
852.58	5623.7	
852.75	5100.8	
852.92	3964.2	
853.09	3481.5	
853.26	5292.6	
853.43	6154.8	
853.6	3532.7	
853.77	2994.8	
853.94	6356.2	
854.11	5001.1	
854.28	5285.1	
854.44	3881.6	
854.61	6794.5	
854.78	5791.7	
854.95	3558	
855.12	4451.6	
855.29	4625	
855.46	6479.8	
855.63	3558.7	
855.8	4943.8	
855.97	5262.6	
856.14	6121.4	
856.31	5136.3	
856.48	3883.6	
856.65	5270.1	
856.82	5011.4	
856.99	3461.7	
857.16	3852.2	
857.33	6987	
857.49	5336.3	
857.66	3857	
857.83	4169	
858	5302.2	
858.17	5509.7	
858.34	3350.5	
858.51	3530.7	
858.68	6498.9	
858.85	6454.5	
859.02	4147.1	
859.19	4422.9	
859.36	4972.5	
859.52	5120.6	
859.69	3570.3	
859.86	4214.7	
860.03	5137.7	
860.2	6279.1	
860.37	3220.8	
860.54	3603.1	
860.71	5976	
860.88	6386.9	
861.05	3990.8	
861.21	4507.6	
861.38	6452.5	
861.55	4937	
861.72	3252.2	
861.89	4027	
862.06	6048.3	
862.23	6602.7	
862.4	3442	
862.56	3689.1	
862.73	5838.8	
862.9	5556.1	
863.07	4157.4	
863.24	3211.9	
863.41	4919.2	
863.58	5091.3	
863.75	3580.5	
863.91	4161.5	
864.08	6389	
864.25	5880.4	
864.42	4446.8	
864.59	4956.1	
864.76	6714.6	
864.93	5098.1	
865.09	3480.2	
865.26	3768.9	
865.43	6197.8	
865.6	6642.9	
865.77	3101.3	
865.94	3553.9	
866.1	6304.3	
866.27	6072.2	
866.44	5351.3	
866.61	3360	
866.78	5475.6	
866.95	5890.6	
867.11	3387.3	
867.28	3190.7	
867.45	6070.2	
867.62	5150.6	
867.79	4100.7	
867.96	3531.4	
868.12	5041.4	
868.29	6010.1	
868.46	3063.8	
868.63	4762.9	
868.8	6253.1	
868.97	5994.4	
869.13	3717.7	
869.3	3652.2	
869.47	5841.5	
869.64	6133.7	
869.81	3607.2	
869.97	3543	
870.14	5806.7	
870.31	6428.6	
870.48	3503.4	
870.65	4483	
870.81	5370.5	
870.98	5319.9	
871.15	4024.9	
871.32	3710.9	
871.48	5773.2	
871.65	6471.6	
871.82	3497.2	
871.99	3956	
872.16	6952.2	
872.32	6264.1	
872.49	3589.4	
872.66	3595.6	
872.83	5992.4	
872.99	5217.5	
873.16	4035.2	
873.33	3507.5	
873.5	5569.8	
873.67	5612.8	
873.83	3754.6	
874	4756.7	
874.17	5795.8	
874.34	6825.2	
874.5	4605.9	
874.67	4489.1	
874.84	6446.3	
875.01	4995.7	
875.17	5036	
875.34	3513.6	
875.51	5702.2	
875.68	6838.2	
875.84	4282.3	
876.01	5233.2	
876.18	5896.8	
876.34	5892	
876.51	3633.1	
876.68	3534.8	
876.85	5429.2	
877.01	6250.4	
877.18	5113.1	
877.35	3549.1	
877.52	5487.2	
877.68	4964.3	
877.85	3470.6	
878.02	3526.6	
878.18	5552	
878.35	5201.8	
878.52	2837.1	
878.69	4018.1	
878.85	5973.2	
879.02	5995.1	
879.19	5100.8	
879.35	3814.7	
879.52	5978	
879.69	6146.6	
879.86	3053.5	
880.02	3998.3	
880.19	5537.7	
880.36	6707.1	
880.52	4108.2	
880.69	4197.7	
880.86	5954.8	
881.02	6098.9	
881.19	3887	
881.36	3824.2	
881.52	5900.9	
881.69	5293.3	
881.86	3795.6	
882.02	3719.1	
882.19	6195.8	
882.36	7354.3	
882.52	3600.3	
882.69	5068	
882.86	5720.7	
883.02	5608	
883.19	4311.7	
883.36	4089.8	
883.52	5934.3	
883.69	6953.5	
883.86	3575.8	
884.02	3188.7	
884.19	6016.2	
884.36	5550	
884.52	4074.8	
884.69	3768.9	
884.86	5265.3	
885.02	6583.5	
885.19	4020.2	
885.36	4102.8	
885.52	5521.3	
885.69	5709.1	
885.86	5147.9	
886.02	4582.7	
886.19	5986.9	
886.35	5385.5	
886.52	3927.3	
886.69	5023	
886.85	5111	
887.02	6393.1	
887.19	6393.1	
887.35	6393.1	
887.52	6393.1	
887.68	6393.1	
887.85	6393.1	
888.02	6393.1	
888.18	6393.1	
888.35	6393.1	
888.51	6393.1	
888.68	6393.1	
888.85	6393.1	
889.01	6393.1	
889.18	6393.1	
889.35	6393.1	
889.51	6393.1	
889.68	6393.1	
889.84	6393.1	
890.01	6393.1	
890.17	6393.1	
890.34	6393.1	
890.51	6393.1	
890.67	6393.1	
890.84	6393.1	
891	6393.1	
891.17	6393.1	
891.34	6393.1	
891.5	6393.1	
891.67	6393.1	
891.83	6393.1	
892	6393.1	
892.16	6393.1	
892.33	6393.1	
892.5	6393.1	
892.66	6393.1	
892.83	6393.1	
892.99	6393.1	
893.16	6393.1	
893.32	6393.1	
893.49	6393.1	
893.65	6393.1	
893.82	6393.1	
893.99	6393.1	
894.15	6393.1	
894.32	6393.1	
894.48	6393.1	
894.65	6393.1	
894.81	6393.1	
894.98	6393.1	
895.14	6393.1	
895.31	6393.1	
895.47	6393.1	
895.64	6393.1	
895.81	6393.1	
895.97	6393.1	
896.14	6393.1	
896.3	6393.1	
896.47	6393.1	
896.63	6393.1	
896.8	6393.1	
896.96	6393.1	
897.13	6393.1	
897.29	6393.1	
897.46	6393.1	
897.62	6393.1	
897.79	6393.1	
897.95	6393.1	
898.12	6393.1	
898.28	6393.1	
898.45	6393.1	
898.61	6393.1	
898.78	6393.1	
898.94	6393.1	
899.11	6393.1	
899.27	6393.1	
899.44	6393.1	
899.6	6393.1	
899.77	6393.1	
899.93	6393.1	
900.1	6393.1	
900.26	6393.1	
900.43	6393.1	
900.59	6393.1	
900.76	6393.1	
900.92	6393.1	
901.09	6393.1	
901.25	6393.1	
901.42	6393.1	
901.58	6393.1	
901.75	6393.1	
901.91	6393.1	
902.07	6393.1	
902.24	6393.1	
902.4	6393.1	
902.57	6393.1	
902.73	6393.1	
902.9	6393.1	
903.06	6393.1	
903.23	6393.1	
903.39	6393.1	
903.56	6393.1	
903.72	6393.1	
903.88	6393.1	
904.05	6393.1	
904.21	6393.1	
904.38	6393.1	
904.54	6393.1	
904.71	6393.1	
904.87	6393.1	
905.03	6393.1	
905.2	6393.1	
905.36	6393.1	
905.53	6393.1	
905.69	6393.1	
905.86	6393.1	
906.02	6393.1	
906.18	6393.1	
906.35	6393.1	
906.51	6393.1	
906.68	6393.1	
906.84	6393.1	
907.01	6393.1	
907.17	6393.1	
907.33	6393.1	
907.5	6393.1	
907.66	6393.1	
907.83	6393.1	
907.99	6393.1	
908.15	6393.1	
908.32	6393.1	
908.48	6393.1	
908.65	6393.1	
908.81	6393.1	
908.97	6393.1	
909.14	6393.1	
909.3	6393.1	
909.47	6393.1	
909.63	6393.1	
909.79	6393.1	
909.96	6393.1	
910.12	6393.1	
910.28	6393.1	
910.45	6393.1	
910.61	6393.1	
910.78	6393.1	
910.94	6393.1	
911.1	6393.1	
911.27	6393.1	
911.43	6393.1	
911.59	6393.1	
911.76	6393.1	
911.92	6393.1	
912.08	6393.1	
912.25	6393.1	
912.41	6393.1	
912.57	6393.1	
912.74	6393.1	
912.9	6393.1	
913.07	6393.1	
913.23	6393.1	
913.39	6393.1	
913.56	6393.1	
913.72	6393.1	
913.88	6393.1	
914.05	6393.1	
914.21	6393.1	
914.37	6393.1	
914.54	6393.1	
914.7	6393.1	
914.86	6393.1	
915.03	6393.1	
915.19	6393.1	
