Wavelength	Intensities	
nm	a.u.	
179.22	1923.6	
179.44	1911.8	
179.65	1935.3	
179.86	1888.2	
180.08	1914.2	
180.29	4917.9	
180.51	3502.7	
180.72	5641.5	
180.94	6563.1	
181.15	3229.6	
181.37	3185.3	
181.58	5451	
181.79	5786.9	
182.01	3394.8	
182.22	3629.7	
182.44	5763.7	
182.65	4872.1	
182.87	4599.7	
183.08	4027	
183.29	6085.2	
183.51	4949.9	
183.72	3654.9	
183.94	5337	
184.15	5365.7	
184.37	5461.2	
184.58	3208.5	
184.79	4435.9	
185.01	4995.7	
185.22	5724.1	
185.44	4674.8	
185.65	3941	
185.86	5300.8	
186.08	4901.5	
186.29	3087.7	
186.51	3392.1	
186.72	5066	
186.94	5911.1	
187.15	3885.7	
187.36	3972.4	
187.58	7750.2	
187.79	5497.4	
188.01	4225.6	
188.22	6523.5	
188.43	6659.3	
188.65	5743.9	
188.86	3344.3	
189.08	4040.6	
189.29	5227.8	
189.5	5258.5	
189.72	3771	
189.93	3817.4	
190.15	5971.9	
190.36	7185	
190.57	4160.8	
190.79	3949.2	
191	5993	
191.22	5981.4	
191.43	4050.2	
191.64	3332.7	
191.86	6214.2	
192.07	6066.8	
192.29	3542.3	
192.5	3773.7	
192.71	6034	
192.93	5130.2	
193.14	3617.4	
193.35	3807.2	
193.57	5143.8	
193.78	5988.3	
194	2986.6	
194.21	3607.8	
194.42	4932.2	
194.64	5403.2	
194.85	3991.5	
195.07	4685.1	
195.28	5430.5	
195.49	4683	
195.71	4974.5	
195.92	3454.2	
196.13	5623.7	
196.35	5743.2	
196.56	5336.3	
196.78	4023.6	
196.99	7051.2	
197.2	6580.8	
197.42	4560.1	
197.63	4058.4	
197.84	4855.1	
198.06	5603.9	
198.27	3754.6	
198.48	4997.7	
198.7	5202.5	
198.91	5347.2	
199.13	4075.5	
199.34	4096.6	
199.55	5805.3	
199.77	4698	
199.98	3570.3	
200.19	4170.3	
200.41	5324	
200.62	4997	
200.83	4237.2	
201.05	4557.4	
201.26	5306.3	
201.47	5087.2	
201.69	3549.8	
201.9	3493.2	
202.11	5384.1	
202.33	6466.8	
202.54	3879.5	
202.76	4285.7	
202.97	5549.3	
203.18	5536.3	
203.4	4228.4	
203.61	4172.4	
203.82	5459.2	
204.04	5099.4	
204.25	4104.8	
204.46	3937.6	
204.68	5418.9	
204.89	5685.2	
205.1	3980.6	
205.32	3435.1	
205.53	5786.2	
205.74	5979.4	
205.96	2933.4	
206.17	4155.3	
206.38	5764.3	
206.6	5913.2	
206.81	4646.2	
207.02	3807.9	
207.24	5702.9	
207.45	6106.4	
207.66	3866.6	
207.88	3297.9	
208.09	5612.8	
208.3	5429.2	
208.52	3499.3	
208.73	3815.4	
208.94	5436.7	
209.15	6102.3	
209.37	3917.1	
209.58	4078.2	
209.79	5976	
210.01	5147.9	
210.22	3091.8	
210.43	3246	
210.65	5416.2	
210.86	5866.7	
211.07	3831.7	
211.29	3494.5	
211.5	5735.7	
211.71	5345.9	
211.93	3515.7	
212.14	3555.3	
212.35	5346.6	
212.56	5556.8	
212.78	4136.9	
212.99	3362.1	
213.2	6391.7	
213.42	5182.7	
213.63	3706.1	
213.84	3969	
214.06	4765.6	
214.27	4923.3	
214.48	3817.4	
214.69	4176.5	
214.91	6130.3	
215.12	6197.2	
215.33	4169.7	
215.55	4618.9	
215.76	6637.5	
215.97	5817.6	
216.18	4048.8	
216.4	3936.9	
216.61	5094	
216.82	5911.1	
217.04	3550.5	
217.25	3699.3	
217.46	6103.6	
217.67	5842.9	
217.89	3211.9	
218.1	3291.1	
218.31	5523.4	
218.53	5597.1	
218.74	3798.3	
218.95	3589.4	
219.16	5350.7	
219.38	6337.8	
219.59	3599.6	
219.8	4297.3	
220.01	6982.9	
220.23	5470.8	
220.44	4730.1	
220.65	3497.9	
220.87	5433.9	
221.08	6085.2	
221.29	3272	
221.5	4470	
221.72	7388.4	
221.93	5086.5	
222.14	4078.9	
222.35	4808.6	
222.57	5421.7	
222.78	5758.9	
222.99	3867.2	
223.2	4203.1	
223.42	5674.9	
223.63	5847	
223.84	3007.1	
224.05	2931.3	
224.27	7008.8	
224.48	6326.9	
224.69	4838.7	
224.9	4088.4	
225.12	5622.4	
225.33	5410.1	
225.54	3221.5	
225.75	3639.9	
225.97	4998.4	
226.18	5249.6	
226.39	3997.6	
226.6	3653.6	
226.82	5147.9	
227.03	5057.1	
227.24	4047.5	
227.45	3398.9	
227.67	5810.1	
227.88	6382.2	
228.09	4523.3	
228.3	4564.2	
228.52	5834	
228.73	5412.8	
228.94	3717.1	
229.15	3407.1	
229.36	5331.5	
229.58	5281.7	
229.79	3805.1	
230	4431.8	
230.21	6514.6	
230.43	5550.7	
230.64	4035.2	
230.85	4178.5	
231.06	5803.3	
231.28	5866.7	
231.49	3306.8	
231.7	3969.6	
231.91	5773.2	
232.12	5425.8	
232.34	3440.6	
232.55	3947.1	
232.76	5998.5	
232.97	5601.9	
233.18	3586.7	
233.4	4037.9	
233.61	5646.9	
233.82	5188.2	
234.03	3741.6	
234.25	3647.4	
234.46	7581.6	
234.67	5435.3	
234.88	4132.1	
235.09	3587.4	
235.31	5728.2	
235.52	5250.3	
235.73	3988.8	
235.94	3391.4	
236.15	5140.4	
236.37	6620.4	
236.58	3495.2	
236.79	3862.5	
237	5763.7	
237.21	4922	
237.43	4201.1	
237.64	3315.7	
237.85	9856.2	
238.06	4979.3	
238.27	4317.8	
238.48	3353.9	
238.7	5773.2	
238.91	5283.1	
239.12	3913.7	
239.33	3870	
239.54	5191.6	
239.76	5304.2	
239.97	3835.8	
240.18	3876.8	
240.39	6863.4	
240.6	5739.1	
240.82	4037.9	
241.03	3291.1	
241.24	5451.7	
241.45	6266.1	
241.66	3584.6	
241.87	4259.8	
242.09	6146	
242.3	6589	
242.51	4212	
242.72	3933.5	
242.93	5808	
243.14	5361.6	
243.36	4526	
243.57	4858.5	
243.78	6326.2	
243.99	5744.6	
244.2	3985.3	
244.41	3579.2	
244.63	4958.1	
244.84	5756.2	
245.05	4173.1	
245.26	3945.8	
245.47	5686.5	
245.68	5943.2	
245.9	5159.5	
246.11	4132.1	
246.32	5283.8	
246.53	5690.6	
246.74	6331.6	
246.95	3278.1	
247.16	4949.9	
247.38	5431.2	
247.59	3218.7	
247.8	3930.7	
248.01	5137	
248.22	5390.3	
248.43	3523.9	
248.64	3823.6	
248.86	4815.5	
249.07	5160.2	
249.28	3416.7	
249.49	3933.5	
249.7	5948.7	
249.91	6096.8	
250.12	3260.4	
250.34	3262.4	
250.55	5522.7	
250.76	5433.3	
250.97	4031.8	
251.18	4083	
251.39	6120	
251.6	5600.5	
251.81	4171.7	
252.03	4114.4	
252.24	5129.5	
252.45	5924.1	
252.66	3384.6	
252.87	4357.4	
253.08	5414.1	
253.29	7141.3	
253.5	3383.9	
253.72	4713.1	
253.93	5240.1	
254.14	6410.1	
254.35	3685.7	
254.56	3820.1	
254.77	5745.2	
254.98	4985.4	
255.19	3621.5	
255.41	4740.4	
255.62	5470.1	
255.83	6072.9	
256.04	4175.8	
256.25	4154.6	
256.46	6606.1	
256.67	5091.3	
256.88	4059.1	
257.09	4451.6	
257.31	5015.5	
257.52	5074.9	
257.73	5099.4	
257.94	3753.2	
258.15	5261.2	
258.36	5401.9	
258.57	4652.3	
258.78	2988.7	
258.99	5890	
259.2	5239.4	
259.41	3720.5	
259.63	3812	
259.84	6247	
260.05	6710.5	
260.26	4879.6	
260.47	3641.3	
260.68	5972.6	
260.89	5305.6	
261.1	4553.3	
261.31	3540.3	
261.52	6019.7	
261.73	6363	
261.95	4827.7	
262.16	4225	
262.37	6119.3	
262.58	6209.4	
262.79	4825	
263	3794.2	
263.21	5423	
263.42	4958.8	
263.63	3847.5	
263.84	3702	
264.05	5984.8	
264.26	6323.4	
264.47	4656.4	
264.69	4235.2	
264.9	6110.5	
265.11	5677	
265.32	3555.3	
265.53	3733.4	
265.74	5558.2	
265.95	4844.1	
266.16	3988.1	
266.37	4439.3	
266.58	5506.3	
266.79	5195	
267	3678.8	
267.21	3423.5	
267.42	5032.5	
267.63	5371.8	
267.84	3900	
268.06	3317	
268.27	5849	
268.48	6151.4	
268.69	3821.5	
268.9	4493.2	
269.11	6141.9	
269.32	4937	
269.53	3878.2	
269.74	3612.6	
269.95	5745.9	
270.16	4797.7	
270.37	3931.4	
270.58	4524	
270.79	5229.1	
271	5956.9	
271.21	4169.7	
271.42	3928.7	
271.63	5588.2	
271.84	5115.8	
272.05	3061.7	
272.26	3506.1	
272.47	5455.1	
272.68	5627.1	
272.89	3740.3	
273.11	4334.2	
273.32	5251.7	
273.53	6337.8	
273.74	4229.7	
273.95	4097.3	
274.16	6030.6	
274.37	5515.2	
274.58	4215.4	
274.79	3376.4	
275	5565.7	
275.21	6147.3	
275.42	5182	
275.63	4414.7	
275.84	5657.2	
276.05	7221.8	
276.26	4089.8	
276.47	3822.9	
276.68	5289.2	
276.89	6392.4	
277.1	4437.9	
277.31	3412.6	
277.52	5741.8	
277.73	5896.1	
277.94	3394.8	
278.15	3797.6	
278.36	5671.5	
278.57	5076.9	
278.78	3708.9	
278.99	4261.1	
279.2	5031.2	
279.41	4986.1	
279.62	4932.2	
279.83	3472.7	
280.04	6726.9	
280.25	4924.7	
280.46	4878.3	
280.67	3897.3	
280.88	5048.9	
281.09	6124.8	
281.3	4076.1	
281.51	5236.7	
281.72	5154.1	
281.93	5990.3	
282.14	3667.9	
282.35	3924.6	
282.56	5885.2	
282.77	5917.9	
282.98	3773.7	
283.19	4633.2	
283.4	7215.7	
283.61	5309	
283.82	3319.8	
284.03	4870.1	
284.24	5539.1	
284.45	6090.7	
284.66	4786.1	
284.87	4620.2	
285.08	5991	
285.29	6179.4	
285.5	3292.5	
285.71	3820.8	
285.92	6098.9	
286.12	6688.7	
286.33	4818.2	
286.54	3797.6	
286.75	5938.4	
286.96	5307.7	
287.17	3528.7	
287.38	4721.9	
287.59	5065.3	
287.8	4963.6	
288.01	3830.4	
288.22	4420.9	
288.43	5940.5	
288.64	4981.3	
288.85	4557.4	
289.06	4326.7	
289.27	5936.4	
289.48	6353.5	
289.69	4868	
289.9	4393.6	
290.11	6091.3	
290.32	5103.5	
290.53	4643.4	
290.74	4309.6	
290.94	5876.3	
291.15	5959.6	
291.36	3648.1	
291.57	4405.9	
291.78	5182	
291.99	4827.7	
292.2	3500.7	
292.41	4259.8	
292.62	6027.9	
292.83	5773.9	
293.04	5288.5	
293.25	3491.1	
293.46	5248.9	
293.67	6033.3	
293.88	3624.9	
294.09	3549.1	
294.29	4982.7	
294.5	5611.4	
294.71	4011.3	
294.92	3760.1	
295.13	5197.7	
295.34	6572.6	
295.55	3272.7	
295.76	3368.2	
295.97	5922	
296.18	6619.7	
296.39	3445.4	
296.6	3705.5	
296.81	5490.6	
297.01	5842.9	
297.22	3848.8	
297.43	3646.7	
297.64	5087.8	
297.85	5059.8	
298.06	3032.4	
298.27	3257.6	
298.48	5444.2	
298.69	5143.8	
298.9	3928.7	
299.11	3612.6	
299.31	4960.9	
299.52	4915.1	
299.73	4291.9	
299.94	4180.6	
300.15	5408.7	
300.36	5071.5	
300.57	4149.2	
300.78	4179.9	
300.99	5276.3	
301.2	5527.5	
301.4	3621.5	
301.61	4026.3	
301.82	5707.7	
302.03	5874.9	
302.24	4461.8	
302.45	3470.6	
302.66	5734.3	
302.87	6204.7	
303.08	3663.8	
303.29	4991.6	
303.49	5193.6	
303.7	5470.1	
303.91	3237.8	
304.12	4739	
304.33	4923.3	
304.54	5551.4	
304.75	3679.5	
304.96	3469.9	
305.16	5755.5	
305.37	6490.7	
305.58	3136.1	
305.79	3366.2	
306	5780.7	
306.21	4842.8	
306.42	3588	
306.63	5624.4	
306.83	5250.3	
307.04	6066.1	
307.25	4054.3	
307.46	4046.1	
307.67	4640	
307.88	5945.9	
308.09	3609.9	
308.29	3747.8	
308.5	5523.4	
308.71	6033.3	
308.92	3922.5	
309.13	3523.9	
309.34	5338.4	
309.55	5364.3	
309.75	4556	
309.96	4199.7	
310.17	5868.1	
310.38	5126.7	
310.59	4390.8	
310.8	4150.5	
311.01	5885.2	
311.21	5321.3	
311.42	3505.4	
311.63	3616.7	
311.84	5214.8	
312.05	5578.7	
312.26	4079.6	
312.46	4457.7	
312.67	5275.6	
312.88	4952	
313.09	3548.4	
313.3	3411.9	
313.51	6206.7	
313.71	6632	
313.92	3506.8	
314.13	3779.2	
314.34	5547.3	
314.55	5273.5	
314.76	4551.3	
314.96	4027.7	
315.17	5541.8	
315.38	5834.7	
315.59	3575.1	
315.8	3369.6	
316.01	6287.9	
316.21	6438.8	
316.42	3452.2	
316.63	4003.8	
316.84	5365	
317.05	6102.3	
317.26	4214.7	
317.46	3704.8	
317.67	5331.5	
317.88	5827.8	
318.09	4412.7	
318.3	3284.3	
318.5	5115.8	
318.71	5746.6	
318.92	5722	
319.13	4141.7	
319.34	5940.5	
319.54	6086.6	
319.75	3251.5	
319.96	3173	
320.17	5859.9	
320.38	5943.2	
320.58	3300	
320.79	3882.9	
321	6016.2	
321.21	6236.1	
321.42	3913	
321.62	3271.3	
321.83	5023	
322.04	5472.9	
322.25	3790.1	
322.46	3556.6	
322.66	5603.9	
322.87	5732.9	
323.08	4349.9	
323.29	3468.6	
323.5	6512.5	
323.7	5000.5	
323.91	4851.6	
324.12	4267.3	
324.33	5501.5	
324.53	5793	
324.74	4150.6	
324.95	4424.3	
325.16	4855.1	
325.37	5239.4	
325.57	3547.1	
325.78	3599	
325.99	5493.3	
326.2	4953.4	
326.4	5120.6	
326.61	3265.8	
326.82	5395	
327.03	5555.5	
327.24	5047.6	
327.44	4831.8	
327.65	5690.6	
327.86	4609.3	
328.07	4182.6	
328.27	3387.3	
328.48	6109.1	
328.69	5050.3	
328.9	5152	
329.1	3783.3	
329.31	5336.3	
329.52	6249	
329.73	3504.1	
329.93	3987.4	
330.14	5390.9	
330.35	5685.2	
330.56	5842.9	
330.76	4424.3	
330.97	5268.7	
331.18	5684.5	
331.39	3951.9	
331.59	3166.2	
331.8	6033.3	
332.01	6158.2	
332.22	3673.4	
332.42	4194.2	
332.63	5587.5	
332.84	5063.3	
333.05	3983.3	
333.25	3587.4	
333.46	5227.8	
333.67	5425.8	
333.88	3712.3	
334.08	4095.9	
334.29	7271.7	
334.5	6128.2	
334.7	3468.6	
334.91	5123.3	
335.12	4980	
335.33	5855.8	
335.53	3905.5	
335.74	5873.6	
335.95	5214.8	
336.16	5115.1	
336.36	3968.3	
336.57	4544.4	
336.78	4956.8	
336.98	5982.1	
337.19	4851	
337.4	3824.9	
337.61	6623.1	
337.81	4977.2	
338.02	3638.6	
338.23	4692.6	
338.43	6231.3	
338.64	5053.7	
338.85	3568.2	
339.05	4742.4	
339.26	6256.5	
339.47	4840	
339.68	3591.5	
339.88	5326.8	
340.09	5728.9	
340.3	5873.6	
340.5	4173.1	
340.71	3176.4	
340.92	4945.2	
341.13	6238.8	
341.33	3429.7	
341.54	4183.3	
341.75	5674.2	
341.95	5298.1	
342.16	4011.3	
342.37	4307.6	
342.57	4977.9	
342.78	5388.2	
342.99	4419.5	
343.19	3186.6	
343.4	5877	
343.61	5723.4	
343.81	3846.8	
344.02	3448.1	
344.23	5894.1	
344.43	6236.7	
344.64	4411.3	
344.85	4302.8	
345.06	5700.9	
345.26	6042.2	
345.47	4075.5	
345.68	4808.6	
345.88	4816.1	
346.09	5975.3	
346.3	4223.6	
346.5	3158.7	
346.71	5438	
346.92	5159.5	
347.12	3251.5	
347.33	4110.3	
347.54	5965.1	
347.74	6404	
347.95	4136.2	
348.16	3091.1	
348.36	5191.6	
348.57	4895.3	
348.78	4047.5	
348.98	4385.4	
349.19	5375.9	
349.39	4967	
349.6	3268.6	
349.81	3641.3	
350.01	5666	
350.22	5139	
350.43	3860.4	
350.63	4767.7	
350.84	5448.3	
351.05	5227.8	
351.25	3622.2	
351.46	3231.7	
351.67	6067.4	
351.87	5121.3	
352.08	3860.4	
352.29	4417.5	
352.49	5914.5	
352.7	6022.4	
352.9	3496.6	
353.11	4330.1	
353.32	6523.5	
353.52	5277.6	
353.73	3454.9	
353.94	4449.6	
354.14	5784.8	
354.35	5551.4	
354.55	3564.1	
354.76	3966.2	
354.97	5718.6	
355.17	5487.9	
355.38	3311.6	
355.59	4614.8	
355.79	5156.1	
356	5512.4	
356.2	3902.1	
356.41	3435.8	
356.62	4859.1	
356.82	5316.5	
357.03	4201.7	
357.24	3783.3	
357.44	5174.5	
357.65	5243.5	
357.85	5048.2	
358.06	3977.8	
358.27	4866	
358.47	5085.8	
358.68	3295.2	
358.88	4138.3	
359.09	5694	
359.3	6038.1	
359.5	4945.2	
359.71	4327.4	
359.91	6509.8	
360.12	5848.3	
360.33	4125.3	
360.53	4646.2	
360.74	5095.3	
360.94	5223.7	
361.15	4385.4	
361.36	3606.5	
361.56	5911.1	
361.77	5405.3	
361.97	4855.7	
362.18	3826.3	
362.38	5928.9	
362.59	4994.3	
362.8	3485.6	
363	3333.4	
363.21	4801.8	
363.41	5435.3	
363.62	4040.6	
363.83	5139.7	
364.03	5548.6	
364.24	6543.9	
364.44	5177.3	
364.65	5135.6	
364.85	5285.8	
365.06	5140.4	
365.27	3724.6	
365.47	3708.2	
365.68	6314.6	
365.88	5296	
366.09	4112.3	
366.29	3781.9	
366.5	5516.5	
366.71	5975.3	
366.91	5167.7	
367.12	4291.2	
367.32	6604.7	
367.53	5811.5	
367.73	4130.1	
367.94	5203.9	
368.14	5787.6	
368.35	6647	
368.56	4235.9	
368.76	3589.4	
368.97	5847	
369.17	7654.6	
369.38	3709.6	
369.58	3942.3	
369.79	4898.1	
369.99	6243.6	
370.2	5026.4	
370.4	4005.1	
370.61	5575.3	
370.82	6834.8	
371.02	3978.5	
371.23	3315	
371.43	4821.6	
371.64	6124.1	
371.84	3961.5	
372.05	5199.8	
372.25	7491.5	
372.46	5868.8	
372.66	3952.6	
372.87	3880.9	
373.07	5924.8	
373.28	7500.3	
373.48	4930.1	
373.69	4657.8	
373.9	5390.3	
374.1	5468.8	
374.31	4956.8	
374.51	4439.3	
374.72	6211.5	
374.92	5092.6	
375.13	5069.4	
375.33	4294.6	
375.54	5799.2	
375.74	5231.9	
375.95	4278.2	
376.15	5573.2	
376.36	5779.4	
376.56	5646.2	
376.77	4435.9	
376.97	4855.7	
377.18	6931.7	
377.38	5883.8	
377.59	5203.9	
377.79	3894.6	
378	5682.4	
378.2	6087.9	
378.41	3908.9	
378.61	3824.9	
378.82	6146.6	
379.02	5201.2	
379.23	4082.3	
379.43	5204.6	
379.64	6191	
379.84	5791	
380.05	3901.4	
380.25	3879.5	
380.46	5873.6	
380.66	5545.2	
380.87	5311.1	
381.07	5704.3	
381.28	6537.1	
381.48	5931.6	
381.69	3934.1	
381.89	3961.5	
382.1	4855.7	
382.3	6114.6	
382.51	5060.5	
382.71	5909.1	
382.91	5967.8	
383.12	6516	
383.32	4334.2	
383.53	4453.6	
383.73	5775.3	
383.94	5563	
384.14	4415.4	
384.35	3562.8	
384.55	5509	
384.76	5993	
384.96	4264.6	
385.17	4596.3	
385.37	5890.6	
385.58	5221.6	
385.78	4672.8	
385.98	3464.5	
386.19	5433.3	
386.39	5837.4	
386.6	3960.8	
386.8	4331.5	
387.01	5933	
387.21	5954.1	
387.42	4745.1	
387.62	5324	
387.83	5287.2	
388.03	5946.6	
388.23	4334.2	
388.44	5193	
388.64	4948.6	
388.85	5070.8	
389.05	4752.7	
389.26	5319.9	
389.46	6982.9	
389.67	6335.7	
389.87	4696.7	
390.07	4766.3	
390.28	5509	
390.48	5152.7	
390.69	3944.4	
390.89	4197	
391.1	5393	
391.3	6241.5	
391.5	5424.4	
391.71	6059.3	
391.91	6014.9	
392.12	7060.7	
392.32	5547.3	
392.53	4668	
392.73	5402.5	
392.93	5618.3	
393.14	4353.3	
393.34	5147.9	
393.55	6004	
393.75	5565	
393.95	4343.1	
394.16	4341.7	
394.36	5309.7	
394.57	6076.3	
394.77	3831.1	
394.98	4373.1	
395.18	5308.3	
395.38	5419.6	
395.59	5168.4	
395.79	4125.3	
396	5452.4	
396.2	5962.3	
396.4	5127.4	
396.61	4888.5	
396.81	6133.7	
397.02	5391.6	
397.22	5089.9	
397.42	5193.6	
397.63	6071.5	
397.83	5301.5	
398.04	4014.7	
398.24	4582.7	
398.44	5853.8	
398.65	4951.3	
398.85	3840.6	
399.05	3967.6	
399.26	5234.6	
399.46	7038.2	
399.67	4345.8	
399.87	4137.6	
400.07	5673.6	
400.28	5974.6	
400.48	4178.5	
400.69	5279	
400.89	6176.7	
401.09	6653.9	
401.3	4072	
401.5	5195.7	
401.7	6883.2	
401.91	7136.5	
402.11	4446.1	
402.32	4687.1	
402.52	6156.2	
402.72	6092.7	
402.93	4769	
403.13	3622.2	
403.33	6883.2	
403.54	5646.9	
403.74	4481.6	
403.94	5406	
404.15	5762.3	
404.35	6953.5	
404.56	4323.3	
404.76	6179.4	
404.96	6223.8	
405.17	5968.5	
405.37	5669.5	
405.57	4782	
405.78	6233.3	
405.98	5731.6	
406.18	4311	
406.39	5188.9	
406.59	6208.1	
406.79	5831.2	
407	4157.4	
407.2	4274.8	
407.4	6221.7	
407.61	6470.9	
407.81	4312.3	
408.01	6653.9	
408.22	5276.3	
408.42	7280.5	
408.62	5339.7	
408.83	4823	
409.03	5825.8	
409.23	5625.1	
409.44	4891.2	
409.64	5165	
409.84	6731.7	
410.05	6582.9	
410.25	4901.5	
410.45	4747.2	
410.66	6102.9	
410.86	8596	
411.06	5168.4	
411.27	5076.9	
411.47	8360.5	
411.67	6195.8	
411.88	5347.9	
412.08	5485.8	
412.28	6882.5	
412.49	7373.4	
412.69	4998.4	
412.89	5010.7	
413.09	7187.7	
413.3	7095.5	
413.5	5059.8	
413.7	4713.1	
413.91	6305.7	
414.11	7232.1	
414.31	4947.9	
414.52	5394.3	
414.72	6844.3	
414.92	6725.5	
415.12	4897.4	
415.33	5399.1	
415.53	7134.4	
415.73	7245.7	
415.94	5848.3	
416.14	5206.6	
416.34	6061.3	
416.55	5827.8	
416.75	6489.3	
416.95	5879.7	
417.15	7037.5	
417.36	7850.5	
417.56	6627.9	
417.76	5706.3	
417.97	7576.8	
418.17	7120.1	
418.37	5244.8	
418.57	5355.4	
418.78	6868.9	
418.98	6565.8	
419.18	6132.3	
419.38	6097.5	
419.59	6640.2	
419.79	6242.9	
419.99	5254.4	
420.2	5586.2	
420.4	7143.3	
420.6	7329.7	
420.8	5074.9	
421.01	4977.2	
421.21	6929.6	
421.41	7158.3	
421.61	5546.6	
421.82	5155.4	
422.02	6440.9	
422.22	7425.3	
422.42	6010.8	
422.63	5706.3	
422.83	6583.5	
423.03	7909.3	
423.23	5655.1	
423.44	4615.4	
423.64	6653.9	
423.84	6421.1	
424.04	5083.1	
424.25	4795	
424.45	7587.7	
424.65	7563.1	
424.85	4547.2	
425.06	5155.4	
425.26	7486	
425.46	6513.2	
425.66	5632.6	
425.87	5205.9	
426.07	7258.7	
426.27	7201.3	
426.47	5457.2	
426.67	4798.4	
426.88	7611.6	
427.08	7118.1	
427.28	5772.5	
427.48	4758.8	
427.69	5951.4	
427.89	6642.2	
428.09	5662	
428.29	4783.4	
428.5	7350.8	
428.7	6865.5	
428.9	4662.5	
429.1	5334.3	
429.3	6791.1	
429.51	7185.6	
429.71	5021.6	
429.91	5800.5	
430.11	7055.3	
430.31	7319.4	
430.52	5329.5	
430.72	5606	
430.92	7579.5	
431.12	7077.8	
431.32	4946.5	
431.53	5384.1	
431.73	6064	
431.93	7763.2	
432.13	4949.9	
432.33	4713.7	
432.54	6460	
432.74	6924.9	
432.94	4689.8	
433.14	5869.5	
433.34	6972.7	
433.55	6535.1	
433.75	5722.7	
433.95	7534.5	
434.15	6833.4	
434.35	6483.2	
434.56	4947.9	
434.76	4478.2	
434.96	6837.5	
435.16	7014.3	
435.36	4751.3	
435.56	5912.5	
435.77	6377.4	
435.97	6598.6	
436.17	6645.7	
436.37	5811.5	
436.57	6391.7	
436.78	6376.7	
436.98	7632.8	
437.18	6459.3	
437.38	7035.5	
437.58	6604	
437.78	6599.9	
437.99	5264.6	
438.19	7062.8	
438.39	7922.2	
438.59	5091.9	
438.79	4571.1	
438.99	7747.5	
439.2	6558.3	
439.4	4855.7	
439.6	4811.4	
439.8	6968.6	
440	8045.1	
440.2	5854.5	
440.4	5903.6	
440.61	7320.8	
440.81	7862.8	
441.01	4916.5	
441.21	5852.4	
441.41	7681.9	
441.61	7283.9	
441.81	6113.9	
442.02	7154.2	
442.22	8145.5	
442.42	7402.7	
442.62	4982.7	
442.82	5089.9	
443.02	7666.2	
443.22	6782.9	
443.43	5494	
443.63	4980.7	
443.83	6638.1	
444.03	6658.6	
444.23	6294.8	
444.43	5833.3	
444.63	6925.5	
444.83	8193.2	
445.04	5057.8	
445.24	6425.2	
445.44	7352.9	
445.64	7432.1	
445.84	5928.2	
446.04	5930.2	
446.24	6671.6	
446.44	7697.6	
446.65	5059.8	
446.85	5487.2	
447.05	7052.5	
447.25	7641.7	
447.45	5595.7	
447.65	4982	
447.85	6960.4	
448.05	6644.3	
448.25	6034	
448.46	5736.4	
448.66	7044.3	
448.86	6711.9	
449.06	4784.1	
449.26	6053.1	
449.46	7283.3	
449.66	6376.7	
449.86	5492	
450.06	5507.7	
450.26	6518.7	
450.47	7162.4	
450.67	5736.4	
450.87	6097.5	
451.07	7244.3	
451.27	7027.3	
451.47	4993.6	
451.67	5605.3	
451.87	6672.3	
452.07	7795.9	
452.27	5206.6	
452.47	5236	
452.67	7002	
452.88	7614.3	
453.08	4618.9	
453.28	6618.4	
453.48	8126.3	
453.68	6914.6	
453.88	5163.6	
454.08	5388.9	
454.28	7280.5	
454.48	6939.9	
454.68	6021	
454.88	6522.1	
455.08	7472.4	
455.28	7191.8	
455.48	5034.6	
455.68	5677.7	
455.89	7892.9	
456.09	7585.7	
456.29	5321.3	
456.49	5416.2	
456.69	7763.2	
456.89	7012.2	
457.09	6010.1	
457.29	6289.3	
457.49	7291.5	
457.69	7425.3	
457.89	5758.9	
458.09	5121.3	
458.29	7118.7	
458.49	7771.4	
458.69	6089.3	
458.89	5565	
459.09	8023.9	
459.29	8179.6	
459.49	5627.8	
459.69	6435.4	
459.9	7540.6	
460.1	7052.5	
460.3	5625.8	
460.5	5324.7	
460.7	7580.2	
460.9	7214.3	
461.1	4980	
461.3	6305	
461.5	8231.5	
461.7	7823.9	
461.9	5474.2	
462.1	5847	
462.3	7249.8	
462.5	7928.4	
462.7	5541.8	
462.9	5614.8	
463.1	8884.8	
463.3	8505.2	
463.5	5764.3	
463.7	6731.7	
463.9	7449.1	
464.1	7932.5	
464.3	5849.7	
464.5	6079.1	
464.7	8063.5	
464.9	7718.8	
465.1	7453.2	
465.3	6494.1	
465.5	8467	
465.7	8316.8	
465.9	6700.3	
466.1	6489.3	
466.3	8215.1	
466.5	8040.3	
466.7	7359	
466.9	6244.3	
467.1	7998	
467.3	8925.7	
467.5	7376.1	
467.7	6127.5	
467.9	9181.7	
468.1	10000	
468.3	7028.6	
468.5	7326.3	
468.7	7923.6	
468.9	7925	
469.1	6451.8	
469.3	7158.3	
469.5	9875.3	
469.7	7514	
469.9	6969.2	
470.1	6219	
470.3	7909.3	
470.5	7925.6	
470.7	7526.3	
470.9	6260.6	
471.1	7669.6	
471.3	8163.2	
471.5	6059.9	
471.69	8049.9	
471.89	7603.4	
472.09	7078.5	
472.29	6845.7	
472.49	7344	
472.69	7277.1	
472.89	8125	
473.09	5952.1	
473.29	6186.2	
473.49	7460.8	
473.69	7578.2	
473.89	7159	
474.09	6331.6	
474.29	8907.3	
474.49	8591.2	
474.69	7079.8	
474.89	6417.7	
475.09	7710.6	
475.29	7566.6	
475.49	5894.1	
475.69	6092.7	
475.88	9313.5	
476.08	7985.7	
476.28	5790.3	
476.48	6266.1	
476.68	8366.6	
476.88	8241	
477.08	6037.4	
477.28	6445.6	
477.48	7750.9	
477.68	8383	
477.88	5933	
478.08	6305.7	
478.28	8685.4	
478.48	7912	
478.67	6246.3	
478.87	5718.6	
479.07	8423.3	
479.27	7986.4	
479.47	6503	
479.67	6554.2	
479.87	8331.1	
480.07	8811	
480.27	5811.5	
480.47	7434.1	
480.67	7929.7	
480.87	8618.5	
481.06	5973.9	
481.26	6928.3	
481.46	7890.1	
481.66	7796.6	
481.86	6522.8	
482.06	7520.1	
482.26	7623.2	
482.46	8636.3	
482.66	6421.1	
482.86	5937.7	
483.05	7933.1	
483.25	7328.3	
483.45	8887.5	
483.65	6380.8	
483.85	7546.1	
484.05	7767.9	
484.25	6801.3	
484.45	7365.9	
484.65	8720.3	
484.84	8718.2	
485.04	6303	
485.24	6357.6	
485.44	8989.9	
485.64	7293.5	
485.84	5563	
486.04	7087.3	
486.24	7613.7	
486.44	8090.2	
486.63	5561.6	
486.83	6370.5	
487.03	7575.4	
487.23	7828.7	
487.43	5730.9	
487.63	8093.6	
487.83	7893.6	
488.02	8852.7	
488.22	6630	
488.42	7250.5	
488.62	8733.2	
488.82	7575.4	
489.02	6339.8	
489.22	6337.8	
489.41	8573.5	
489.61	8234.2	
489.81	6034	
490.01	6077.7	
490.21	8396.7	
490.41	9120.3	
490.61	5940.5	
490.8	6098.9	
491	7856.7	
491.2	7185	
491.4	6788.3	
491.6	5834	
491.8	7968	
491.99	8086.7	
492.19	5742.5	
492.39	6184.2	
492.59	8475.2	
492.79	8542.1	
492.99	7121.5	
493.18	6059.3	
493.38	8594	
493.58	9355.1	
493.78	6782.9	
493.98	6384.2	
494.18	8326.4	
494.37	7699	
494.57	6956.9	
494.77	6860	
494.97	8544.8	
495.17	8639.7	
495.37	6401.3	
495.56	6759	
495.76	8899.8	
495.96	8482	
496.16	7643.7	
496.36	6530.3	
496.55	8729.8	
496.75	8312	
496.95	6963.1	
497.15	6787.7	
497.35	8721.6	
497.54	8681.3	
497.74	6587	
497.94	8398	
498.14	9357.9	
498.34	9194.7	
498.53	6268.8	
498.73	7055.3	
498.93	8047.2	
499.13	8759.2	
499.33	6926.9	
499.52	7347.4	
499.72	8582.4	
499.92	8970.1	
500.12	6524.1	
500.32	6807.4	
500.51	8853.4	
500.71	8674.5	
500.91	7577.5	
501.11	7260	
501.31	8840.4	
501.5	9197.4	
501.7	7804.1	
501.9	6854.6	
502.1	8589.2	
502.29	8968.1	
502.49	7294.2	
502.69	7882.6	
502.89	8705.2	
503.09	8809	
503.28	6274.3	
503.48	6408.1	
503.68	8012.3	
503.88	8118.1	
504.07	7456	
504.27	6937.8	
504.47	8406.2	
504.67	8518.2	
504.86	7309.2	
505.06	7049.8	
505.26	8114.7	
505.46	9903.3	
505.65	6890	
505.85	7117.4	
506.05	8004.1	
506.25	8438.3	
506.44	6175.3	
506.64	7114	
506.84	7907.2	
507.04	8763.9	
507.23	6341.2	
507.43	6926.2	
507.63	9895.8	
507.83	8054	
508.02	6883.9	
508.22	6554.9	
508.42	10073	
508.62	7803.4	
508.81	6781.5	
509.01	7442.3	
509.21	7716.7	
509.4	7982.3	
509.6	6982.2	
509.8	6405.4	
510	8004.8	
510.19	9442.5	
510.39	6318	
510.59	6429.9	
510.79	7846.5	
510.98	9194	
511.18	6499.6	
511.38	6622.4	
511.57	8559.8	
511.77	8426	
511.97	7295.5	
512.17	6193.1	
512.36	8670.4	
512.56	8567.3	
512.76	6278.4	
512.95	6017.6	
513.15	8731.2	
513.35	7373.4	
513.55	7225.2	
513.74	6341.9	
513.94	8677.2	
514.14	8018.5	
514.33	7352.9	
514.53	7107.1	
514.73	8122.2	
514.92	8303.1	
515.12	6576.7	
515.32	6381.5	
515.51	8299.7	
515.71	8978.3	
515.91	8111.3	
516.11	6483.2	
516.3	10067	
516.5	7950.9	
516.7	7097.6	
516.89	7643.7	
517.09	8053.3	
517.29	7980.9	
517.48	7229.3	
517.68	6698.9	
517.88	7811.6	
518.07	8239.7	
518.27	7266.2	
518.47	6224.5	
518.66	9068.4	
518.86	7670.3	
519.06	6102.9	
519.25	6576	
519.45	7968.6	
519.65	9482.1	
519.84	7187.7	
520.04	7913.4	
520.24	9932	
520.43	8658.1	
520.63	6909.2	
520.83	6644.3	
521.02	7787.1	
521.22	8523	
521.42	7238.9	
521.61	7792.5	
521.81	8173.4	
522.01	8353.7	
522.2	6947.4	
522.4	6757.6	
522.6	8697.7	
522.79	7543.4	
522.99	6952.9	
523.18	6163.7	
523.38	8467	
523.58	8512	
523.77	8207.6	
523.97	6161	
524.17	10307	
524.36	9486.2	
524.56	7767.3	
524.76	7221.1	
524.95	8455.4	
525.15	8026.7	
525.34	6978.1	
525.54	6859.3	
525.74	8813.8	
525.93	7754.3	
526.13	8135.2	
526.33	6920.8	
526.52	9085.5	
526.72	8505.2	
526.91	8063.5	
527.11	7367.2	
527.31	9164.7	
527.5	9508.7	
527.7	7279.8	
527.89	6252.4	
528.09	8034.2	
528.29	8519.5	
528.48	7649.2	
528.68	7352.2	
528.87	8921	
529.07	9037.7	
529.27	7283.9	
529.46	6606.7	
529.66	8546.2	
529.85	8944.2	
530.05	6405.4	
530.25	7286.7	
530.44	9986.6	
530.64	8542.1	
530.83	6957.6	
531.03	7200	
531.23	8948.3	
531.42	8806.3	
531.62	8056	
531.81	7133.8	
532.01	9062.3	
532.21	9507.4	
532.4	6877.1	
532.6	7221.1	
532.79	9785.2	
532.99	9097.1	
533.18	7290.1	
533.38	8246.5	
533.58	8561.2	
533.77	9425.4	
533.97	7231.4	
534.16	8069	
534.36	9577	
534.55	8634.9	
534.75	8148.9	
534.95	7209.5	
535.14	9485.5	
535.34	8604.2	
535.53	6930.3	
535.73	8923	
535.92	10080	
536.12	8738	
536.31	7020.4	
536.51	8236.9	
536.71	9114.8	
536.9	8672.5	
537.1	7165.8	
537.29	7324.9	
537.49	9547.6	
537.68	8498.4	
537.88	7677.2	
538.07	6886	
538.27	8862.2	
538.46	9818	
538.66	6827.9	
538.86	7262.8	
539.05	8882	
539.25	9156.5	
539.44	7516.7	
539.64	7089.4	
539.83	8624.7	
540.03	9583.8	
540.22	6984.9	
540.42	7085.3	
540.61	8988.5	
540.81	9106.6	
541	7641	
541.2	8137.3	
541.39	8440.4	
541.59	8900.5	
541.78	7929.7	
541.98	6963.8	
542.18	8114.7	
542.37	8068.3	
542.57	7460.1	
542.76	7813	
542.96	8189.1	
543.15	8867	
543.35	7365.2	
543.54	6607.4	
543.74	9079.3	
543.93	8802.2	
544.13	7271.7	
544.32	8418.5	
544.52	8988.5	
544.71	8264.2	
544.91	6487.3	
545.1	7659.4	
545.3	8311.3	
545.49	9011.1	
545.69	6386.9	
545.88	7037.5	
546.08	9970.2	
546.27	9499.2	
546.47	7531.7	
546.66	6636.1	
546.86	9198.8	
547.05	9753.1	
547.24	6937.2	
547.44	6795.2	
547.63	8099.7	
547.83	9282.8	
548.02	7236.2	
548.22	7517.4	
548.41	8028	
548.61	9308	
548.8	6806.1	
549	6702.3	
549.19	8626	
549.39	8928.5	
549.58	6468.9	
549.78	7083.2	
549.97	8987.2	
550.17	8523.6	
550.36	8015.1	
550.55	8987.2	
550.75	8515.5	
550.94	9419.3	
551.14	6811.5	
551.33	7168.6	
551.53	7849.9	
551.72	8854.7	
551.92	7216.4	
552.11	6871.6	
552.31	8819.9	
552.5	9042.5	
552.69	8643.8	
552.89	6602.7	
553.08	8789.2	
553.28	8551.6	
553.47	6900.3	
553.67	8109.3	
553.86	9605.7	
554.06	7756.3	
554.25	6135	
554.44	6705	
554.64	10365	
554.83	9865.7	
555.03	6718	
555.22	7115.3	
555.42	9151	
555.61	8757.1	
555.8	6892.8	
556	7158.3	
556.19	7883.3	
556.39	9136	
556.58	6888	
556.78	6937.8	
556.97	8663.6	
557.16	8437.6	
557.36	8180.3	
557.55	6602.7	
557.75	7671.7	
557.94	9454.1	
558.13	6697.5	
558.33	6527.6	
558.52	9221.3	
558.72	8114.1	
558.91	6582.2	
559.1	6870.9	
559.3	7793.2	
559.49	7573.4	
559.69	6094.1	
559.88	7111.2	
560.07	8662.9	
560.27	9014.5	
560.46	7283.9	
560.66	7480.5	
560.85	8348.2	
561.04	7530.4	
561.24	6559.6	
561.43	6707.1	
561.63	7811	
561.82	8151.6	
562.01	8015.1	
562.21	7096.9	
562.4	8512.7	
562.59	9536	
562.79	6886.6	
562.98	6552.1	
563.18	8455.4	
563.37	9954.5	
563.56	7331.7	
563.76	6456.6	
563.95	7885.4	
564.14	7856.7	
564.34	6754.9	
564.53	6578.1	
564.73	8464.9	
564.92	8843.8	
565.11	6963.8	
565.31	6358.9	
565.5	9028.8	
565.69	7922.9	
565.89	6550.8	
566.08	6860	
566.27	8881.4	
566.47	9309.4	
566.66	7506.5	
566.85	6085.9	
567.05	8531.8	
567.24	7929.1	
567.44	6490.7	
567.63	7864.9	
567.82	8572.8	
568.02	8418.5	
568.21	6464.1	
568.4	6814.3	
568.6	8286.1	
568.79	8283.4	
568.98	6202.6	
569.18	6272.2	
569.37	8151.6	
569.56	10286	
569.76	6689.3	
569.95	7651.9	
570.14	8575.5	
570.34	8419.2	
570.53	6158.2	
570.72	6098.2	
570.91	8905.3	
571.11	8040.3	
571.3	6682.5	
571.49	7575.4	
571.69	8106.5	
571.88	7622.5	
572.07	7141.9	
572.27	7200.7	
572.46	7658.7	
572.65	8770.8	
572.85	6371.2	
573.04	6727.6	
573.23	8960.5	
573.43	8131.1	
573.62	6143.2	
573.81	6823.1	
574	8242.4	
574.2	7933.8	
574.39	6496.2	
574.58	6641.6	
574.78	8987.9	
574.97	8295	
575.16	7061.4	
575.36	7152.9	
575.55	8622.6	
575.74	8767.4	
575.93	6042.2	
576.13	7159.7	
576.32	8006.9	
576.51	8600.1	
576.71	6424.5	
576.9	8376.2	
577.09	8957.1	
577.28	8379.6	
577.48	7038.9	
577.67	6036	
577.86	8125	
578.05	8359.8	
578.25	6720.1	
578.44	6716.7	
578.63	8227.4	
578.83	9405	
579.02	6066.8	
579.21	7609.6	
579.4	8378.2	
579.6	8141.4	
579.79	6779.5	
579.98	9097.1	
580.17	8787.8	
580.37	8774.2	
580.56	6339.8	
580.75	7032.7	
580.94	9400.9	
581.14	9118.2	
581.33	7479.9	
581.52	6511.9	
581.71	8690.9	
581.91	9323	
582.1	6211.5	
582.29	6792.4	
582.48	8348.9	
582.68	8279.9	
582.87	7258	
583.06	6813.6	
583.25	8685.4	
583.45	7986.4	
583.64	7580.2	
583.83	8264.2	
584.02	8102.4	
584.21	8618.5	
584.41	7598.6	
584.6	6820.4	
584.79	8361.2	
584.98	9157.2	
585.18	6256.5	
585.37	6364.4	
585.56	7766.6	
585.75	8693.6	
585.94	6490	
586.14	7234.1	
586.33	9325.8	
586.52	8248.5	
586.71	6996.5	
586.91	6708.5	
587.1	7750.2	
587.29	8735.3	
587.48	6675	
587.67	6475.7	
587.87	8511.4	
588.06	8583	
588.25	7878.5	
588.44	7049.1	
588.63	8085.4	
588.83	8731.2	
589.02	6386.9	
589.21	6324.1	
589.4	7825.3	
589.59	7681.9	
589.78	5561.6	
589.98	5826.5	
590.17	7242.3	
590.36	7821.9	
590.55	5205.3	
590.74	6113.9	
590.94	9226.8	
591.13	7706.5	
591.32	5894.1	
591.51	5399.8	
591.7	8172.1	
591.89	7672.4	
592.09	5528.8	
592.28	6031.3	
592.47	6889.4	
592.66	8789.2	
592.85	5514.5	
593.05	5797.1	
593.24	7530.4	
593.43	8356.4	
593.62	5786.9	
593.81	6298.2	
594	7565.9	
594.19	7857.4	
594.39	5750	
594.58	5688.6	
594.77	7881.9	
594.96	8539.3	
595.15	5655.1	
595.34	6306.4	
595.54	7954.3	
595.73	7066.2	
595.92	5083.7	
596.11	6244.9	
596.3	8493.6	
596.49	7173.4	
596.68	5978	
596.88	6529.6	
597.07	8290.9	
597.26	7012.2	
597.45	5544.5	
597.64	6804	
597.83	7333.1	
598.02	7974.8	
598.22	5668.8	
598.41	6414.2	
598.6	7780.2	
598.79	7185	
598.98	5690.6	
599.17	6673	
599.36	7791.2	
599.55	9060.2	
599.74	7908.6	
599.94	7549.5	
600.13	8372.1	
600.32	7217.7	
600.51	5499.5	
600.7	5705	
600.89	9108	
601.08	9063.6	
601.27	5487.2	
601.47	6544.6	
601.66	8368.7	
601.85	9071.8	
602.04	6201.9	
602.23	6489.3	
602.42	7421.8	
602.61	8093.6	
602.8	6127.5	
602.99	5977.3	
603.18	7762.5	
603.37	8131.1	
603.57	6668.9	
603.76	7178.8	
603.95	8877.9	
604.14	8385.1	
604.33	6033.3	
604.52	6380.1	
604.71	8058.1	
604.9	7700.4	
605.09	6955.6	
605.28	6795.8	
605.47	8617.2	
605.66	8333.9	
605.86	6666.1	
606.05	6079.7	
606.24	8660.2	
606.43	7182.9	
606.62	6456.6	
606.81	7201.3	
607	8570.7	
607.19	7781.6	
607.38	5831.2	
607.57	6093.4	
607.76	7574.8	
607.95	6989	
608.14	6410.1	
608.33	7131.7	
608.52	7600.7	
608.72	8499.1	
608.91	5748	
609.1	5587.5	
609.29	7709.9	
609.48	7179.5	
609.67	6657.3	
609.86	5710.4	
610.05	7290.8	
610.24	7670.3	
610.43	5607.3	
610.62	5192.3	
610.81	8748.9	
611	8639.7	
611.19	5779.4	
611.38	6406.7	
611.57	7940	
611.76	9280.7	
611.95	5452.4	
612.14	5329.5	
612.33	7736.5	
612.52	7230.7	
612.71	6117.3	
612.9	5183.4	
613.09	6853.2	
613.28	9269.8	
613.47	5688.6	
613.66	6736.5	
613.85	7918.8	
614.04	7434.1	
614.24	5930.2	
614.43	5055.1	
614.62	8006.9	
614.81	7935.9	
615	6428.6	
615.19	6484.6	
615.38	7230.7	
615.57	7588.4	
615.76	6164.4	
615.95	7312.6	
616.14	8001.4	
616.33	7647.1	
616.52	6630.6	
616.71	6854.6	
616.9	7959.8	
617.09	7858.7	
617.28	5907.7	
617.47	7218.4	
617.66	7022.5	
617.85	7023.2	
618.04	6912.6	
618.22	6301.6	
618.41	7419.1	
618.6	8324.3	
618.79	6158.9	
618.98	5877.7	
619.17	8649.9	
619.36	6939.2	
619.55	5969.1	
619.74	6161	
619.93	7850.5	
620.12	7281.2	
620.31	6638.1	
620.5	6733.7	
620.69	8428.8	
620.88	8701.8	
621.07	7421.2	
621.26	6478.4	
621.45	8012.3	
621.64	8011.7	
621.83	6597.2	
622.02	5756.2	
622.21	8028	
622.4	7795.9	
622.59	7161.7	
622.78	6888	
622.97	7389.8	
623.16	8402.8	
623.35	6504.3	
623.54	5672.9	
623.72	7574.1	
623.91	7777.5	
624.1	6789.7	
624.29	5455.1	
624.48	8779	
624.67	8071	
624.86	6597.9	
625.05	5641.5	
625.24	8921.6	
625.43	7279.8	
625.62	8332.5	
625.81	5836.7	
626	8217.8	
626.19	7507.9	
626.38	6640.9	
626.56	6020.3	
626.75	7284.6	
626.94	8125.7	
627.13	6583.5	
627.32	5256.5	
627.51	7926.3	
627.7	9318.3	
627.89	5392.3	
628.08	6523.5	
628.27	7092.8	
628.46	7279.8	
628.65	5683.8	
628.83	5328.1	
629.02	7972.1	
629.21	7189.7	
629.4	6070.9	
629.59	6341.9	
629.78	7087.3	
629.97	8124.3	
630.16	6430.6	
630.35	5872.9	
630.54	8594	
630.72	8284	
630.91	5817.6	
631.1	6391.7	
631.29	7694.2	
631.48	7961.8	
631.67	6549.4	
631.86	6006	
632.05	7320.8	
632.24	7510.6	
632.42	5644.9	
632.61	6318	
632.8	7519.5	
632.99	7184.3	
633.18	6251.1	
633.37	6627.2	
633.56	7759.1	
633.75	7636.9	
633.93	6186.2	
634.12	5955.5	
634.31	8626	
634.5	8062.9	
634.69	5965.1	
634.88	6561	
635.07	7504.4	
635.25	8156.4	
635.44	6896.9	
635.63	7167.2	
635.82	7471.7	
636.01	6935.8	
636.2	6866.2	
636.39	6372.6	
636.57	8523.6	
636.76	8279.9	
636.95	5774.6	
637.14	7290.1	
637.33	7865.6	
637.52	8893	
637.7	5632.6	
637.89	6518	
638.08	7387	
638.27	8936	
638.46	6597.2	
638.65	7221.1	
638.83	8959.9	
639.02	7212.3	
639.21	6602.7	
639.4	7111.9	
639.59	7752.2	
639.78	7404.1	
639.96	5953.4	
640.15	5909.8	
640.34	7636.9	
640.53	7846.5	
640.72	5573.2	
640.91	5895.4	
641.09	7094.8	
641.28	8492.9	
641.47	5973.2	
641.66	6754.2	
641.85	7762.5	
642.03	8076.5	
642.22	6604.7	
642.41	6052.4	
642.6	7183.6	
642.79	6652.5	
642.97	5840.1	
643.16	6599.9	
643.35	7251.2	
643.54	7017.7	
643.73	5671.5	
643.91	6497.5	
644.1	6804.7	
644.29	7452.6	
644.48	5741.1	
644.67	5807.4	
644.85	6986.3	
645.04	7268.9	
645.23	5334.3	
645.42	5552.7	
645.6	6808.1	
645.79	8048.5	
645.98	5569.8	
646.17	4685.8	
646.36	6578.8	
646.54	7182.9	
646.73	6407.4	
646.92	5157.5	
647.11	6803.4	
647.29	7958.4	
647.48	5269.4	
647.67	5091.3	
647.86	8137.3	
648.05	8154.3	
648.23	5614.2	
648.42	7038.9	
648.61	7527	
648.8	7237.5	
648.98	5327.4	
649.17	5568.4	
649.36	6901	
649.55	6367.1	
649.73	5373.9	
649.92	6097.5	
650.11	6710.5	
650.3	7043	
650.48	5513.1	
650.67	5204.6	
650.86	7395.2	
651.05	6246.3	
651.23	5434.6	
651.42	5398.4	
651.61	6881.2	
651.79	7037.5	
651.98	5699.5	
652.17	5326.1	
652.36	7305.8	
652.54	6326.9	
652.73	5354.8	
652.92	5169.8	
653.11	7421.2	
653.29	7460.8	
653.48	4656.4	
653.67	5599.1	
653.85	7060	
654.04	8186.4	
654.23	5897.5	
654.42	5367	
654.6	6685.9	
654.79	7341.3	
654.98	4888.5	
655.16	5467.4	
655.35	6314.6	
655.54	6215.6	
655.73	4986.8	
655.91	4917.9	
656.1	7511.9	
656.29	6260	
656.47	4522.6	
656.66	6275	
656.85	6503	
657.03	6496.2	
657.22	5072.8	
657.41	5079	
657.59	6554.2	
657.78	6381.5	
657.97	4717.8	
658.16	5523.4	
658.34	7270.3	
658.53	7709.2	
658.72	6462	
658.9	6920.8	
659.09	6637.5	
659.28	6852.5	
659.46	5210	
659.65	5278.3	
659.84	6571.9	
660.02	7033.4	
660.21	5096.7	
660.4	5095.3	
660.58	7533.8	
660.77	6923.5	
660.96	5687.9	
661.14	4732.9	
661.33	8046.5	
661.52	7922.2	
661.7	4649.6	
661.89	8494.3	
662.08	6451.1	
662.26	6110.5	
662.45	5021.6	
662.64	5114.5	
662.82	7177.4	
663.01	6365.1	
663.2	5169.1	
663.38	5900.9	
663.57	7088.7	
663.75	7045.7	
663.94	5457.2	
664.13	6780.1	
664.31	6465.4	
664.5	7172	
664.69	5898.1	
664.87	6217.6	
665.06	6184.2	
665.25	7031.4	
665.43	6556.9	
665.62	6650.4	
665.8	7307.2	
665.99	6670.2	
666.18	5414.1	
666.36	5530.9	
666.55	7303.7	
666.74	7180.9	
666.92	5115.1	
667.11	6752.8	
667.29	6667.5	
667.48	7262.8	
667.67	6356.2	
667.85	5578	
668.04	6657.3	
668.22	6599.2	
668.41	5542.5	
668.6	5675.6	
668.78	6460	
668.97	6670.9	
669.15	5896.8	
669.34	4870.1	
669.53	6480.5	
669.71	6802.7	
669.9	5081.7	
670.08	5767.1	
670.27	6456.6	
670.46	7087.3	
670.64	5813.5	
670.83	6215.6	
671.01	6375.3	
671.2	7036.1	
671.38	5037.3	
671.57	5111.7	
671.76	7669	
671.94	8240.3	
672.13	4915.1	
672.31	6062.7	
672.5	7163.1	
672.69	6457.2	
672.87	5073.5	
673.06	5459.9	
673.24	6991.8	
673.43	6439.5	
673.61	5963	
673.8	5384.8	
673.98	7194.5	
674.17	7389.8	
674.36	6023.8	
674.54	5878.4	
674.73	7005.4	
674.91	7208.8	
675.1	5565.7	
675.28	5211.4	
675.47	6741.2	
675.65	7301.7	
675.84	5391.6	
676.03	5730.2	
676.21	6482.5	
676.4	6057.9	
676.58	6239.5	
676.77	5968.5	
676.95	7983	
677.14	6440.2	
677.32	5094	
677.51	4903.5	
677.69	7219.8	
677.88	6066.8	
678.06	4902.2	
678.25	5020.3	
678.44	6733.7	
678.62	6471.6	
678.81	4792.2	
678.99	5791.7	
679.18	7560.4	
679.36	7054.6	
679.55	5322	
679.73	5996.5	
679.92	7062.1	
680.1	6515.3	
680.29	6606.1	
680.47	5351.3	
680.66	6422.4	
680.84	7238.2	
681.03	4618.9	
681.21	5716.6	
681.4	6421.1	
681.58	6304.3	
681.77	5177.9	
681.95	4974.5	
682.14	7287.4	
682.32	7692.2	
682.51	6008.1	
682.69	4812.7	
682.88	6438.1	
683.06	7083.2	
683.25	5706.3	
683.43	6224.5	
683.62	6640.9	
683.8	7114	
683.99	6194.4	
684.17	5440.8	
684.36	7925.6	
684.54	6548	
684.73	4690.5	
684.91	4822.3	
685.1	6917.4	
685.28	6255.2	
685.46	5461.2	
685.65	5545.2	
685.83	7086.7	
686.02	6432	
686.2	4954	
686.39	5028.4	
686.57	6262.7	
686.76	7686	
686.94	4938.3	
687.13	5158.8	
687.31	6961.7	
687.5	6438.1	
687.68	4527.4	
687.86	5851	
688.05	8060.1	
688.23	5940.5	
688.42	5839.4	
688.6	5012.7	
688.79	6321.4	
688.97	6260	
689.16	5397.8	
689.34	4273.4	
689.52	7120.1	
689.71	7221.8	
689.89	5667.4	
690.08	4927.4	
690.26	6531	
690.45	6377.4	
690.63	5825.1	
690.81	5004.6	
691	6247.7	
691.18	6195.1	
691.37	5249.6	
691.55	7456.7	
691.74	6118	
691.92	8254.7	
692.1	5231.9	
692.29	4598.4	
692.47	6337.1	
692.66	5657.9	
692.84	4827.1	
693.02	5509	
693.21	5763.7	
693.39	6283.2	
693.58	5507.7	
693.76	4932.2	
693.94	7561.8	
694.13	7268.2	
694.31	4893.3	
694.5	5992.4	
694.68	6166.4	
694.86	6500.3	
695.05	5261.2	
695.23	5717.9	
695.42	6871.6	
695.6	9239.1	
695.78	5906.3	
695.97	4999.1	
696.15	6911.9	
696.34	6306.4	
696.52	4717.8	
696.7	5590.3	
696.89	6641.6	
697.07	6084.5	
697.25	5516.5	
697.44	7064.8	
697.62	6608.8	
697.81	6978.8	
697.99	5197.1	
698.17	5642.8	
698.36	5929.6	
698.54	6649.8	
698.72	5493.3	
698.91	4530.1	
699.09	6141.9	
699.28	6053.1	
699.46	5157.5	
699.64	5018.2	
699.83	5919.3	
700.01	7311.9	
700.19	5890	
700.38	4279.6	
700.56	7274.4	
700.74	6196.5	
700.93	4709.6	
701.11	5468.1	
701.29	6768.5	
701.48	7732.4	
701.66	4881.7	
701.84	4889.2	
702.03	6211.5	
702.21	6889.4	
702.39	4487.8	
702.58	5061.2	
702.76	6688.7	
702.94	6802.7	
703.13	4421.6	
703.31	6993.8	
703.49	5899.5	
703.68	6978.8	
703.86	4724	
704.04	5670.1	
704.23	6445	
704.41	6898.9	
704.59	4876.9	
704.78	6156.9	
704.96	7582.9	
705.14	6953.5	
705.33	4673.5	
705.51	5494	
705.69	6354.8	
705.87	7157	
706.06	5838.8	
706.24	4590.9	
706.42	6653.2	
706.61	6916.7	
706.79	5798.5	
706.97	4640.7	
707.16	6108.4	
707.34	6662.7	
707.52	5776.6	
707.7	4946.5	
707.89	6311.2	
708.07	5982.1	
708.25	5739.8	
708.44	5962.3	
708.62	6170.5	
708.8	7382.2	
708.98	6016.2	
709.17	5033.2	
709.35	6630	
709.53	6637.5	
709.72	4696.7	
709.9	4825.7	
710.08	6825.9	
710.26	6889.4	
710.45	6380.1	
710.63	4992.3	
710.81	6575.3	
710.99	6569.9	
711.18	5635.3	
711.36	5161.6	
711.54	6364.4	
711.72	7048.4	
711.91	5139	
712.09	4611.3	
712.27	6536.4	
712.45	7626	
712.64	5475.6	
712.82	4379.9	
713	5976.7	
713.18	6165.1	
713.37	4575.2	
713.55	5782.8	
713.73	7081.2	
713.91	5563	
714.1	5037.3	
714.28	4435.9	
714.46	6756.2	
714.64	5884.5	
714.83	3897.3	
715.01	4876.2	
715.19	5980.1	
715.37	5438	
715.55	4478.2	
715.74	4798.4	
715.92	7019.1	
716.1	4964.3	
716.28	5961.6	
716.47	4954.7	
716.65	5672.2	
716.83	5803.9	
717.01	4880.3	
717.19	5001.1	
717.38	7869	
717.56	5467.4	
717.74	5153.4	
717.92	4236.6	
718.1	6662.7	
718.29	5874.9	
718.47	3842.7	
718.65	4533.5	
718.83	6604	
719.01	6417.7	
719.2	3695.9	
719.38	4786.1	
719.56	6081.8	
719.74	7783.6	
719.92	4384.7	
720.11	5457.8	
720.29	6201.2	
720.47	5261.9	
720.65	3947.1	
720.83	4881.7	
721.02	5723.4	
721.2	5440.1	
721.38	4932.9	
721.56	4119.1	
721.74	4978.6	
721.92	5231.2	
722.11	5478.3	
722.29	5157.5	
722.47	6455.9	
722.65	5659.2	
722.83	4141.7	
723.01	5130.8	
723.2	5717.2	
723.38	6068.8	
723.56	3575.1	
723.74	4821.6	
723.92	5204.6	
724.1	6374.6	
724.29	4093.2	
724.47	5404.6	
724.65	5300.8	
724.83	5246.2	
725.01	4012	
725.19	4958.8	
725.37	5347.2	
725.56	5378.6	
725.74	3901.4	
725.92	4189.5	
726.1	5244.8	
726.28	5504.9	
726.46	4614.1	
726.64	4277.5	
726.83	5524.1	
727.01	5807.4	
727.19	3881.6	
727.37	4758.1	
727.55	5632.6	
727.73	6167.1	
727.91	3829.7	
728.09	3713	
728.28	6238.1	
728.46	6862.1	
728.64	4898.1	
728.82	4795.7	
729	7324.2	
729.18	6519.4	
729.36	4003.8	
729.54	6346.7	
729.72	7587	
729.91	5828.5	
730.09	5951.4	
730.27	4698.7	
730.45	5741.1	
730.63	6369.2	
730.81	5352	
730.99	4296	
731.17	6901	
731.35	5437.4	
731.53	4878.9	
731.71	4461.2	
731.9	6542.6	
732.08	6859.3	
732.26	4612	
732.44	4385.4	
732.62	6821.8	
732.8	6358.3	
732.98	5175.9	
733.16	4178.5	
733.34	6302.3	
733.52	5042.1	
733.7	4764.3	
733.88	5062.6	
734.07	6183.5	
734.25	5943.2	
734.43	4192.9	
734.61	5844.9	
734.79	7464.2	
734.97	5793.7	
735.15	4353.3	
735.33	4691.9	
735.51	6260	
735.69	5782.1	
735.87	5894.7	
736.05	4942.4	
736.23	6062.7	
736.41	5874.9	
736.59	4808.6	
736.77	4924.7	
736.95	6574	
737.13	5992.4	
737.32	4417.5	
737.5	4644.1	
737.68	7096.2	
737.86	5835.3	
738.04	4176.5	
738.22	6168.5	
738.4	5671.5	
738.58	5982.1	
738.76	4960.9	
738.94	3842	
739.12	5842.2	
739.3	5722	
739.48	5627.8	
739.66	5280.3	
739.84	6082.5	
740.02	6114.6	
740.2	3923.9	
740.38	4386.1	
740.56	6511.2	
740.74	5324	
740.92	5056.4	
741.1	4901.5	
741.28	5928.2	
741.46	5749.3	
741.64	4621.6	
741.82	5162.2	
742	5980.1	
742.18	5969.8	
742.36	4822.3	
742.54	4407.9	
742.72	6594.5	
742.9	5261.2	
743.08	5222.3	
743.26	3979.9	
743.44	6787.7	
743.62	6695.5	
743.8	5367.7	
743.98	4381.3	
744.16	6406.7	
744.34	5997.8	
744.52	5327.4	
744.7	5197.7	
744.88	6536.4	
745.06	6020.3	
745.24	5307.7	
745.42	5435.3	
745.6	6533.7	
745.78	6300.9	
745.96	4243.4	
746.14	4493.2	
746.32	7408.2	
746.5	6606.1	
746.68	5091.3	
746.86	4501.4	
747.03	7145.4	
747.21	5401.2	
747.39	5132.2	
747.57	4518.5	
747.75	6279.8	
747.93	6621.1	
748.11	4576.5	
748.29	4535.6	
748.47	7894.2	
748.65	5870.2	
748.83	5249.6	
749.01	4984.1	
749.19	6405.4	
749.37	5571.2	
749.55	4904.2	
749.73	4929.5	
749.91	6094.1	
750.09	5881.1	
750.26	5020.9	
750.44	4455	
750.62	6150.1	
750.8	6117.3	
750.98	4306.2	
751.16	4594.3	
751.34	6205.3	
751.52	5618.9	
751.7	5393	
751.88	4239.3	
752.06	6726.2	
752.24	6544.6	
752.42	4158.7	
752.59	4541	
752.77	6098.9	
752.95	7342.7	
753.13	5364.3	
753.31	4752.7	
753.49	5795.8	
753.67	6238.1	
753.85	5056.4	
754.03	4614.1	
754.21	6546.7	
754.38	6887.3	
754.56	4761.5	
754.74	3800.3	
754.92	5848.3	
755.1	6576	
755.28	3863.8	
755.46	3823.6	
755.64	7293.5	
755.82	7445.7	
755.99	4173.1	
756.17	4313.7	
756.35	4855.1	
756.53	6524.1	
756.71	3162.7	
756.89	4129.4	
757.07	6083.1	
757.25	5103.5	
757.42	4659.8	
757.6	5627.1	
757.78	6104.3	
757.96	5066.7	
758.14	4300.1	
758.32	3843.4	
758.5	4606.6	
758.67	5523.4	
758.85	4124.6	
759.03	4272.7	
759.21	5698.1	
759.39	5026.4	
759.57	3711.6	
759.75	4886.5	
759.92	6340.5	
760.1	5508.4	
760.28	5307.7	
760.46	5551.4	
760.64	5339.7	
760.82	5106.3	
760.99	5117.9	
761.17	4222.2	
761.35	6135	
761.53	5160.2	
761.71	4350.6	
761.89	5144.5	
762.06	6135	
762.24	5595.7	
762.42	4523.3	
762.6	4274.1	
762.78	5607.3	
762.96	6285.9	
763.13	4880.3	
763.31	4613.4	
763.49	6477	
763.67	5574.6	
763.85	5423.7	
764.02	6040.1	
764.2	6748.7	
764.38	5836.7	
764.56	4446.8	
764.74	5390.9	
764.91	6866.8	
765.09	5717.9	
765.27	4160.8	
765.45	3966.2	
765.63	6837.5	
765.8	6770.6	
765.98	3650.8	
766.16	4088.4	
766.34	5323.4	
766.52	5147.9	
766.69	5042.8	
766.87	3907.5	
767.05	5693.4	
767.23	6687.3	
767.41	4240.7	
767.58	4488.5	
767.76	6246.3	
767.94	6358.3	
768.12	4339	
768.29	5158.2	
768.47	5825.8	
768.65	6595.8	
768.83	3930.7	
769	5113.1	
769.18	5335	
769.36	6120.7	
769.54	5171.1	
769.72	3989.4	
769.89	6403.3	
770.07	6440.2	
770.25	4335.5	
770.43	5649.7	
770.6	7221.1	
770.78	7686	
770.96	4534.9	
771.14	4384.7	
771.31	6318.7	
771.49	5668.1	
771.67	3622.9	
771.85	3989.4	
772.02	4868.7	
772.2	5648.3	
772.38	4752.7	
772.55	4161.5	
772.73	5922.7	
772.91	5703.6	
773.09	4564.2	
773.26	4656.4	
773.44	5880.4	
773.62	5627.1	
773.8	4098.7	
773.97	3790.1	
774.15	5989.6	
774.33	5594.4	
774.5	3989.4	
774.68	4386.1	
774.86	6120	
775.04	5571.2	
775.21	4010.6	
775.39	4093.9	
775.57	5898.1	
775.74	6327.5	
775.92	3854.3	
776.1	3829	
776.27	5830.6	
776.45	7108.5	
776.63	4090.5	
776.81	3574.4	
776.98	5528.8	
777.16	6620.4	
777.34	4187.4	
777.51	4179.2	
777.69	5475.6	
777.87	5184.1	
778.04	4237.2	
778.22	4903.5	
778.4	5265.3	
778.57	6008.7	
778.75	3522.5	
778.93	3824.9	
779.1	5060.5	
779.28	4926	
779.46	3541.6	
779.64	4044.1	
779.81	6129.6	
779.99	7054.6	
780.17	4840	
780.34	5063.3	
780.52	5589.6	
780.69	5784.1	
780.87	4276.2	
781.05	3936.9	
781.22	5659.2	
781.4	5702.2	
781.58	4102.1	
781.75	3215.3	
781.93	5625.1	
782.11	5038	
782.28	4975.9	
782.46	4061.8	
782.64	4915.8	
782.81	5851	
782.99	4184.7	
783.17	4097.3	
783.34	5794.4	
783.52	4940.4	
783.69	4359.4	
783.87	5172.5	
784.05	4886.5	
784.22	5016.8	
784.4	5120.6	
784.58	4411.3	
784.75	5963.7	
784.93	5032.5	
785.1	4029.7	
785.28	4720.6	
785.46	5716.6	
785.63	5044.1	
785.81	4062.5	
785.99	3913	
786.16	5190.9	
786.34	5556.8	
786.51	3949.2	
786.69	4373.1	
786.87	4776.5	
787.04	5390.3	
787.22	3782.6	
787.39	4792.9	
787.57	5016.2	
787.75	6142.5	
787.92	4986.1	
788.1	4922.6	
788.27	5075.5	
788.45	4781.3	
788.63	4588.8	
788.8	3306.1	
788.98	5617.6	
789.15	4780	
789.33	3447.4	
789.5	4130.8	
789.68	6085.2	
789.86	6156.9	
790.03	4541	
790.21	3862.5	
790.38	5986.9	
790.56	5181.4	
790.73	3790.8	
790.91	3840.6	
791.09	5072.8	
791.26	5865.4	
791.44	4066.6	
791.61	3483.6	
791.79	5008	
791.96	5169.1	
792.14	3603.7	
792.32	3168.2	
792.49	5083.1	
792.67	5221.6	
792.84	3709.6	
793.02	3467.9	
793.19	5550.7	
793.37	6326.2	
793.54	3205.8	
793.72	3561.4	
793.89	6412.2	
794.07	5114.5	
794.25	4225.6	
794.42	3272	
794.6	6158.9	
794.77	5859.9	
794.95	4488.5	
795.12	3884.3	
795.3	5038	
795.47	5705.6	
795.65	4332.8	
795.82	4156.7	
796	4855.1	
796.17	6876.4	
796.35	3984	
796.52	4706.9	
796.7	5655.1	
796.87	5703.6	
797.05	4981.3	
797.22	4851	
797.4	5698.8	
797.57	6774	
797.75	4080.9	
797.92	3833.8	
798.1	6017.6	
798.27	5065.3	
798.45	3351.2	
798.62	3536.2	
798.8	5406.6	
798.97	5876.3	
799.15	4342.4	
799.32	4160.1	
799.5	4619.5	
799.67	5489.9	
799.85	4539.7	
800.02	3221.5	
800.2	4978.6	
800.37	5360.9	
800.55	4674.8	
800.72	3904.8	
800.9	5877	
801.07	6358.9	
801.25	5292	
801.42	4322.6	
801.6	5907.7	
801.77	5631.9	
801.95	4035.9	
802.12	3834.5	
802.29	5592.3	
802.47	5587.5	
802.64	4242.7	
802.82	3177.1	
802.99	5027.1	
803.17	6097.5	
803.34	4120.5	
803.52	3728.7	
803.69	6812.2	
803.87	4845.5	
804.04	4093.2	
804.21	4226.3	
804.39	6192.4	
804.56	5271.5	
804.74	3470.6	
804.91	4271.4	
805.09	5004.6	
805.26	5137.7	
805.44	3532.7	
805.61	3940.3	
805.78	5825.1	
805.96	5748.6	
806.13	4325.3	
806.31	4657.8	
806.48	4564.2	
806.66	5166.3	
806.83	4297.3	
807	4153.3	
807.18	4975.2	
807.35	5494	
807.53	4203.1	
807.7	3244	
807.87	6278.4	
808.05	5087.2	
808.22	4618.2	
808.4	3351.2	
808.57	5089.9	
808.74	4719.9	
808.92	3831.7	
809.09	4883	
809.27	4999.8	
809.44	5636	
809.61	3326.6	
809.79	3698.6	
809.96	6255.2	
810.14	5819.6	
810.31	3266.5	
810.48	4057	
810.66	5195	
810.83	5993	
811.01	3817.4	
811.18	4198.3	
811.35	5887.2	
811.53	4548.5	
811.7	4663.9	
811.87	4317.1	
812.05	5115.1	
812.22	5044.8	
812.39	3747.8	
812.57	3513.6	
812.74	5096	
812.92	6878.4	
813.09	4003.8	
813.26	4359.4	
813.44	6582.9	
813.61	5013.4	
813.78	3390.1	
813.96	4505.5	
814.13	5113.8	
814.3	4744.5	
814.48	4839.4	
814.65	4014	
814.82	6421.7	
815	4871.4	
815.17	4112.3	
815.34	5076.2	
815.52	4997	
815.69	5104.2	
815.87	4099.4	
816.04	3520.5	
816.21	5104.2	
816.38	4499.4	
816.56	3976.5	
816.73	3666.5	
816.9	6456.6	
817.08	5921.4	
817.25	3697.9	
817.42	4745.1	
817.6	4676.2	
817.77	5144.5	
817.94	4207.9	
818.12	3671.3	
818.29	4806.6	
818.46	7617.8	
818.64	3826.3	
818.81	3616	
818.98	4748.6	
819.16	7032.7	
819.33	4444.1	
819.5	4067.9	
819.67	5507.7	
819.85	6195.8	
820.02	4073.4	
820.19	4276.8	
820.37	5319.3	
820.54	4926	
820.71	4147.1	
820.88	5226.4	
821.06	5283.8	
821.23	4898.7	
821.4	4224.3	
821.58	4106.9	
821.75	5911.1	
821.92	5274.9	
822.09	3429.7	
822.27	3486.3	
822.44	5112.4	
822.61	4997	
822.79	3379.8	
822.96	6535.8	
823.13	5620.3	
823.3	4881.7	
823.48	3905.5	
823.65	3533.4	
823.82	5803.3	
823.99	4595	
824.17	4990.2	
824.34	3545.7	
824.51	6729.6	
824.68	5154.7	
824.86	3715	
825.03	4220.2	
825.2	5103.5	
825.37	6262	
825.55	3702.7	
825.72	4149.9	
825.89	6843.6	
826.06	6325.5	
826.24	4055	
826.41	4042.7	
826.58	6249.7	
826.75	5423.7	
826.92	3127.2	
827.1	3528.7	
827.27	8543.4	
827.44	6807.4	
827.61	3833.8	
827.79	4702.8	
827.96	4883	
828.13	5221	
828.3	3979.2	
828.47	3363.4	
828.65	5337.7	
828.82	5283.1	
828.99	5186.8	
829.16	4601.1	
829.34	5729.5	
829.51	5561.6	
829.68	4185.4	
829.85	4355.3	
830.02	6055.2	
830.2	5797.1	
830.37	3189.4	
830.54	5040.1	
830.71	6511.2	
830.88	5072.8	
831.05	3268.6	
831.23	3786	
831.4	6268.1	
831.57	7038.2	
831.74	3807.2	
831.91	3397.6	
832.09	5340.4	
832.26	5743.2	
832.43	3977.8	
832.6	4454.3	
832.77	5324.7	
832.94	6147.3	
833.12	3136.1	
833.29	3926	
833.46	5320.6	
833.63	7322.2	
833.8	4317.8	
833.97	4067.9	
834.15	5782.1	
834.32	5527.5	
834.49	4080.2	
834.66	4233.2	
834.83	5976.7	
835	4865.3	
835.17	3823.6	
835.35	3861.1	
835.52	5622.4	
835.69	5510.4	
835.86	3990.1	
836.03	3313.6	
836.2	5704.3	
836.37	5343.2	
836.55	3944.4	
836.72	3760.8	
836.89	5324.7	
837.06	5728.9	
837.23	4001	
837.4	4428.4	
837.57	6524.8	
837.75	7341.3	
837.92	3651.5	
838.09	3910.3	
838.26	5330.9	
838.43	6063.4	
838.6	4225	
838.77	3747.1	
838.94	6911.9	
839.11	6582.2	
839.29	3994.2	
839.46	3121.8	
839.63	5705	
839.8	5467.4	
839.97	3844.7	
840.14	3825.6	
840.31	5537.7	
840.48	5722	
840.65	3202.3	
840.82	3731.4	
841	5728.2	
841.17	5689.3	
841.34	3594.9	
841.51	3566.9	
841.68	5657.2	
841.85	5405.3	
842.02	3687.7	
842.19	3037.8	
842.36	5499.5	
842.53	5481.7	
842.7	3573.7	
842.87	4384	
843.05	7287.4	
843.22	5434.6	
843.39	3368.2	
843.56	3627	
843.73	5143.8	
843.9	5805.3	
844.07	5782.1	
844.24	4818.2	
844.41	8479.3	
844.58	4967	
844.75	3421.5	
844.92	3774.4	
845.09	5740.5	
845.26	5734.3	
845.43	3454.2	
845.6	3773.7	
845.77	5688.6	
845.94	5460.6	
846.12	3940.3	
846.29	4188.8	
846.46	5966.4	
846.63	5719.3	
846.8	3556	
846.97	4200.4	
847.14	6185.5	
847.31	5722	
847.48	4036.5	
847.65	4395.6	
847.82	6016.9	
847.99	5999.2	
848.16	4726	
848.33	4391.5	
848.5	5244.8	
848.67	6249	
848.84	3521.1	
849.01	3698.6	
849.18	5135.6	
849.35	4820.2	
849.52	4468	
849.69	3480.2	
849.86	5927.5	
850.03	6165.1	
850.2	3541.6	
850.37	4345.1	
850.54	6098.2	
850.71	5408	
850.88	4225	
851.05	3480.2	
851.22	5583.4	
851.39	6266.8	
851.56	3357.3	
851.73	4072.7	
851.9	5002.5	
852.07	5945.9	
852.24	3871.3	
852.41	3517.7	
852.58	5597.1	
852.75	5167.7	
852.92	4033.1	
853.09	3418.1	
853.26	5288.5	
853.43	6176.7	
853.6	3508.9	
853.77	3003.7	
853.94	6290	
854.11	5621	
854.28	5282.4	
854.44	3812	
854.61	6784.2	
854.78	5777.3	
854.95	3461.7	
855.12	4469.4	
855.29	4610	
855.46	6326.9	
855.63	3529.3	
855.8	4903.5	
855.97	5286.5	
856.14	6106.4	
856.31	5018.9	
856.48	3839.3	
856.65	5244.8	
856.82	4959.5	
856.99	3343.7	
857.16	3751.9	
857.33	6962.4	
857.49	5360.9	
857.66	3833.1	
857.83	4092.5	
858	5326.8	
858.17	5569.1	
858.34	3332	
858.51	3511.6	
858.68	6470.9	
858.85	6561	
859.02	4147.8	
859.19	4476.9	
859.36	4986.1	
859.52	5040.1	
859.69	3495.2	
859.86	4201.1	
860.03	5137	
860.2	6356.9	
860.37	3205.1	
860.54	3620.8	
860.71	5895.4	
860.88	6370.5	
861.05	3968.3	
861.21	4504.2	
861.38	6385.6	
861.55	4898.1	
861.72	3290.4	
861.89	3990.1	
862.06	6006.7	
862.23	6533	
862.4	3418.7	
862.56	3653.6	
862.73	5859.2	
862.9	5492	
863.07	4120.5	
863.24	3202.3	
863.41	4844.1	
863.58	5033.9	
863.75	3603.7	
863.91	4126	
864.08	6307.7	
864.25	5892	
864.42	4485.7	
864.59	4902.8	
864.76	6657.9	
864.93	5005.2	
865.09	3488.4	
865.26	3794.2	
865.43	6170.5	
865.6	6595.1	
865.77	3080.8	
865.94	3512.3	
866.1	6311.2	
866.27	6038.1	
866.44	5335.6	
866.61	3340.2	
866.78	5404.6	
866.95	5896.1	
867.11	3422.8	
867.28	3067.9	
867.45	6042.2	
867.62	5037.3	
867.79	4157.4	
867.96	3496.6	
868.12	5016.8	
868.29	5992.4	
868.46	3506.8	
868.63	4769.7	
868.8	6217	
868.97	5857.2	
869.13	3680.9	
869.3	3730.7	
869.47	5814.9	
869.64	5989.6	
869.81	3573.7	
869.97	3530	
870.14	5678.3	
870.31	6451.8	
870.48	3431	
870.65	4498	
870.81	5383.4	
870.98	5256.5	
871.15	3968.3	
871.32	3696.6	
871.48	5821.7	
871.65	6453.1	
871.82	3522.5	
871.99	3928.7	
872.16	6895.5	
872.32	6228.6	
872.49	3581.2	
872.66	3541.6	
872.83	5945.9	
872.99	5252.4	
873.16	4074.1	
873.33	3476.8	
873.5	5603.9	
873.67	5613.5	
873.83	3724.6	
874	4751.3	
874.17	5713.2	
874.34	6881.9	
874.5	4560.8	
874.67	4370.4	
874.84	6369.2	
875.01	4980.7	
875.17	5071.5	
875.34	3515.7	
875.51	5557.5	
875.68	6873.7	
875.84	4231.1	
876.01	5166.3	
876.18	5890	
876.34	5812.8	
876.51	3540.9	
876.68	3442	
876.85	5380.7	
877.01	6201.2	
877.18	5008.6	
877.35	3510.9	
877.52	5522.7	
877.68	4952	
877.85	3397.6	
878.02	3482.2	
878.18	5543.9	
878.35	5207.3	
878.52	2828.2	
878.69	3896.6	
878.85	5935.7	
879.02	5915.9	
879.19	5013.4	
879.35	3811.3	
879.52	5922.7	
879.69	6135	
879.86	3080.8	
880.02	3953.9	
880.19	5511.8	
880.36	6666.8	
880.52	4049.5	
880.69	4236.6	
880.86	6056.5	
881.02	6059.3	
881.19	3848.1	
881.36	3855.6	
881.52	5833.3	
881.69	5175.2	
881.86	3807.2	
882.02	3722.5	
882.19	6223.8	
882.36	7288.7	
882.52	3652.9	
882.69	5046.2	
882.86	5702.2	
883.02	5601.9	
883.19	4280.3	
883.36	4055.7	
883.52	6036	
883.69	6914.6	
883.86	3593.5	
884.02	3216.7	
884.19	5985.5	
884.36	5479	
884.52	3957.4	
884.69	3759.4	
884.86	5189.6	
885.02	6584.9	
885.19	3937.6	
885.36	4109.6	
885.52	5504.9	
885.69	5711.1	
885.86	5176.6	
886.02	4546.5	
886.19	5993	
886.35	5443.5	
886.52	3938.2	
886.69	4946.5	
886.85	5041.4	
887.02	6403.3	
887.19	6403.3	
887.35	6403.3	
887.52	6403.3	
887.68	6403.3	
887.85	6403.3	
888.02	6403.3	
888.18	6403.3	
888.35	6403.3	
888.51	6403.3	
888.68	6403.3	
888.85	6403.3	
889.01	6403.3	
889.18	6403.3	
889.35	6403.3	
889.51	6403.3	
889.68	6403.3	
889.84	6403.3	
890.01	6403.3	
890.17	6403.3	
890.34	6403.3	
890.51	6403.3	
890.67	6403.3	
890.84	6403.3	
891	6403.3	
891.17	6403.3	
891.34	6403.3	
891.5	6403.3	
891.67	6403.3	
891.83	6403.3	
892	6403.3	
892.16	6403.3	
892.33	6403.3	
892.5	6403.3	
892.66	6403.3	
892.83	6403.3	
892.99	6403.3	
893.16	6403.3	
893.32	6403.3	
893.49	6403.3	
893.65	6403.3	
893.82	6403.3	
893.99	6403.3	
894.15	6403.3	
894.32	6403.3	
894.48	6403.3	
894.65	6403.3	
894.81	6403.3	
894.98	6403.3	
895.14	6403.3	
895.31	6403.3	
895.47	6403.3	
895.64	6403.3	
895.81	6403.3	
895.97	6403.3	
896.14	6403.3	
896.3	6403.3	
896.47	6403.3	
896.63	6403.3	
896.8	6403.3	
896.96	6403.3	
897.13	6403.3	
897.29	6403.3	
897.46	6403.3	
897.62	6403.3	
897.79	6403.3	
897.95	6403.3	
898.12	6403.3	
898.28	6403.3	
898.45	6403.3	
898.61	6403.3	
898.78	6403.3	
898.94	6403.3	
899.11	6403.3	
899.27	6403.3	
899.44	6403.3	
899.6	6403.3	
899.77	6403.3	
899.93	6403.3	
900.1	6403.3	
900.26	6403.3	
900.43	6403.3	
900.59	6403.3	
900.76	6403.3	
900.92	6403.3	
901.09	6403.3	
901.25	6403.3	
901.42	6403.3	
901.58	6403.3	
901.75	6403.3	
901.91	6403.3	
902.07	6403.3	
902.24	6403.3	
902.4	6403.3	
902.57	6403.3	
902.73	6403.3	
902.9	6403.3	
903.06	6403.3	
903.23	6403.3	
903.39	6403.3	
903.56	6403.3	
903.72	6403.3	
903.88	6403.3	
904.05	6403.3	
904.21	6403.3	
904.38	6403.3	
904.54	6403.3	
904.71	6403.3	
904.87	6403.3	
905.03	6403.3	
905.2	6403.3	
905.36	6403.3	
905.53	6403.3	
905.69	6403.3	
905.86	6403.3	
906.02	6403.3	
906.18	6403.3	
906.35	6403.3	
906.51	6403.3	
906.68	6403.3	
906.84	6403.3	
907.01	6403.3	
907.17	6403.3	
907.33	6403.3	
907.5	6403.3	
907.66	6403.3	
907.83	6403.3	
907.99	6403.3	
908.15	6403.3	
908.32	6403.3	
908.48	6403.3	
908.65	6403.3	
908.81	6403.3	
908.97	6403.3	
909.14	6403.3	
909.3	6403.3	
909.47	6403.3	
909.63	6403.3	
909.79	6403.3	
909.96	6403.3	
910.12	6403.3	
910.28	6403.3	
910.45	6403.3	
910.61	6403.3	
910.78	6403.3	
910.94	6403.3	
911.1	6403.3	
911.27	6403.3	
911.43	6403.3	
911.59	6403.3	
911.76	6403.3	
911.92	6403.3	
912.08	6403.3	
912.25	6403.3	
912.41	6403.3	
912.57	6403.3	
912.74	6403.3	
912.9	6403.3	
913.07	6403.3	
913.23	6403.3	
913.39	6403.3	
913.56	6403.3	
913.72	6403.3	
913.88	6403.3	
914.05	6403.3	
914.21	6403.3	
914.37	6403.3	
914.54	6403.3	
914.7	6403.3	
914.86	6403.3	
915.03	6403.3	
915.19	6403.3	
