Wavelength	Intensities	
nm	a.u.	
179.22	1946.9	
179.44	1957.2	
179.65	1936.7	
179.86	1977.7	
180.08	1914.2	
180.29	4986.1	
180.51	3560.1	
180.72	5692.7	
180.94	6716	
181.15	3344.3	
181.37	3226.9	
181.58	5550.7	
181.79	5926.8	
182.01	3422.8	
182.22	3693.2	
182.44	5878.4	
182.65	4860.5	
182.87	4672.8	
183.08	4091.8	
183.29	6192.4	
183.51	5066.7	
183.72	3711.6	
183.94	5455.1	
184.15	5470.1	
184.37	5526.1	
184.58	3240.6	
184.79	4548.5	
185.01	5020.9	
185.22	5836.7	
185.44	4794.3	
185.65	3960.8	
185.86	5313.8	
186.08	4948.6	
186.29	3152.5	
186.51	3404.4	
186.72	5098.8	
186.94	6025.1	
187.15	3991.5	
187.36	4120.5	
187.58	7953.6	
187.79	5584.8	
188.01	4304.1	
188.22	6750.8	
188.43	6667.5	
188.65	5806.7	
188.86	3403	
189.08	4115.1	
189.29	5274.9	
189.5	5284.4	
189.72	3813.3	
189.93	3911.6	
190.15	6105	
190.36	7240.3	
190.57	4220.9	
190.79	4034.5	
191	6169.2	
191.22	6094.8	
191.43	4165.6	
191.64	3415.3	
191.86	6425.2	
192.07	6034.7	
192.29	3576.4	
192.5	3796.3	
192.71	6092.7	
192.93	5208.7	
193.14	3741.6	
193.35	3906.2	
193.57	5215.5	
193.78	6068.1	
194	3047.4	
194.21	3752.6	
194.42	4958.1	
194.64	5491.3	
194.85	4089.1	
195.07	4862.6	
195.28	5573.9	
195.49	4743.1	
195.71	5086.5	
195.92	3542.3	
196.13	5658.5	
196.35	5813.5	
196.56	5422.3	
196.78	4101.4	
196.99	7193.8	
197.2	6749.4	
197.42	4675.5	
197.63	4190.1	
197.84	4883.7	
198.06	5701.5	
198.27	3790.8	
198.48	5091.9	
198.7	5184.1	
198.91	5393.7	
199.13	4129.4	
199.34	4197.7	
199.55	5878.4	
199.77	4758.8	
199.98	3654.9	
200.19	4183.3	
200.41	5397.1	
200.62	5020.9	
200.83	4333.5	
201.05	4635.2	
201.26	5403.2	
201.47	5104.2	
201.69	3656.3	
201.9	3474.7	
202.11	5468.1	
202.33	6518.7	
202.54	3920.5	
202.76	4383.3	
202.97	5588.2	
203.18	5597.1	
203.4	4323.9	
203.61	4159.4	
203.82	5558.2	
204.04	5056.4	
204.25	4250.9	
204.46	4097.3	
204.68	5500.2	
204.89	5685.2	
205.1	4045.4	
205.32	3478.1	
205.53	5885.9	
205.74	6070.2	
205.96	2981.2	
206.17	4224.3	
206.38	5812.8	
206.6	6029.9	
206.81	4728.8	
207.02	3886.4	
207.24	5708.4	
207.45	6141.2	
207.66	3914.4	
207.88	3394.2	
208.09	5670.1	
208.3	5496.7	
208.52	3646.1	
208.73	4048.8	
208.94	5435.3	
209.15	6240.8	
209.37	3934.8	
209.58	4208.6	
209.79	6036	
210.01	5289.2	
210.22	3191.4	
210.43	3257	
210.65	5468.8	
210.86	5896.8	
211.07	3966.2	
211.29	3580.5	
211.5	5866.1	
211.71	5428.5	
211.93	3606.5	
212.14	3616.7	
212.35	5363.6	
212.56	5613.5	
212.78	4157.4	
212.99	3459	
213.2	6458.6	
213.42	5231.9	
213.63	3779.9	
213.84	4022.2	
214.06	4863.9	
214.27	4925.4	
214.48	3925.3	
214.69	4241.3	
214.91	6192.4	
215.12	6246.3	
215.33	4268.6	
215.55	4706.9	
215.76	6712.6	
215.97	5941.2	
216.18	4079.6	
216.4	4003.8	
216.61	5150.6	
216.82	6083.8	
217.04	3609.9	
217.25	3799	
217.46	6232.7	
217.67	5911.1	
217.89	3252.2	
218.1	3351.2	
218.31	5567.1	
218.53	5643.5	
218.74	3803.1	
218.95	3657	
219.16	5489.9	
219.38	6383.5	
219.59	3680.9	
219.8	4402.5	
220.01	7115.3	
220.23	5497.4	
220.44	4903.5	
220.65	3596.2	
220.87	5553.4	
221.08	6130.9	
221.29	3351.8	
221.5	4490.5	
221.72	7520.1	
221.93	5192.3	
222.14	4245.4	
222.35	4906.9	
222.57	5554.1	
222.78	5828.5	
222.99	3968.3	
223.2	4267.3	
223.42	5803.3	
223.63	5975.3	
223.84	3030.3	
224.05	2996.2	
224.27	7074.4	
224.48	6419.7	
224.69	4886.5	
224.9	4210.6	
225.12	5722	
225.33	5397.1	
225.54	3289	
225.75	3676.1	
225.97	4974.5	
226.18	5313.8	
226.39	4044.7	
226.6	3730.7	
226.82	5214.1	
227.03	5098.8	
227.24	4147.8	
227.45	3431.7	
227.67	5894.1	
227.88	6457.2	
228.09	4628.4	
228.3	4644.8	
228.52	5982.1	
228.73	5438.7	
228.94	3835.8	
229.15	3463.1	
229.36	5397.8	
229.58	5316.5	
229.79	3894.6	
230	4554	
230.21	6619	
230.43	5588.9	
230.64	4132.8	
230.85	4321.9	
231.06	5858.6	
231.28	5950	
231.49	3444.7	
231.7	3987.4	
231.91	5802.6	
232.12	5498.8	
232.34	3532.7	
232.55	4063.2	
232.76	6135	
232.97	5717.2	
233.18	3678.8	
233.4	4084.3	
233.61	5683.1	
233.82	5261.9	
234.03	3773	
234.25	3747.1	
234.46	7674.4	
234.67	5578.7	
234.88	4244.8	
235.09	3714.3	
235.31	5802.6	
235.52	5348.6	
235.73	4065.9	
235.94	3441.3	
236.15	5199.8	
236.37	6673.6	
236.58	3665.2	
236.79	3973.7	
237	5814.2	
237.21	4977.2	
237.43	4269.3	
237.64	3324.5	
237.85	10071	
238.06	5070.1	
238.27	4400.4	
238.48	3428.3	
238.7	5838.1	
238.91	5330.2	
239.12	3987.4	
239.33	3986	
239.54	5079	
239.76	5462.6	
239.97	3891.8	
240.18	3960.8	
240.39	6933.7	
240.6	5780.7	
240.82	4093.2	
241.03	3352.5	
241.24	5449.6	
241.45	6352.8	
241.66	3614	
241.87	4209.3	
242.09	6240.2	
242.3	6706.4	
242.51	4344.4	
242.72	3975.8	
242.93	6005.3	
243.14	5426.4	
243.36	4619.5	
243.57	4960.2	
243.78	6362.4	
243.99	5813.5	
244.2	4020.2	
244.41	3605.1	
244.63	5023.7	
244.84	5841.5	
245.05	4302.1	
245.26	3932.8	
245.47	5783.5	
245.68	6059.3	
245.9	5328.1	
246.11	4233.2	
246.32	5362.9	
246.53	5740.5	
246.74	6517.3	
246.95	3343	
247.16	4972.5	
247.38	5530.2	
247.59	3315	
247.8	4001	
248.01	5162.9	
248.22	5411.4	
248.43	3607.2	
248.64	3888.4	
248.86	4812.7	
249.07	5198.4	
249.28	3477.5	
249.49	4114.4	
249.7	6048.3	
249.91	6253.1	
250.12	3280.2	
250.34	3343.7	
250.55	5604.6	
250.76	5474.2	
250.97	4126	
251.18	4175.1	
251.39	6185.5	
251.6	5668.1	
251.81	4240	
252.03	4220.9	
252.24	5231.9	
252.45	5997.1	
252.66	3502	
252.87	4379.9	
253.08	5524.7	
253.29	7314.7	
253.5	3467.2	
253.72	4866	
253.93	5311.1	
254.14	6567.8	
254.35	3743.7	
254.56	3888.4	
254.77	5778.7	
254.98	5063.3	
255.19	3691.1	
255.41	4816.8	
255.62	5621.7	
255.83	6191	
256.04	4261.1	
256.25	4145.1	
256.46	6791.1	
256.67	5154.7	
256.88	4115.1	
257.09	4581.3	
257.31	5123.3	
257.52	5247.6	
257.73	5130.8	
257.94	3665.2	
258.15	5341.8	
258.36	5539.1	
258.57	4798.4	
258.78	3021.4	
258.99	5979.4	
259.2	5324.7	
259.41	3820.8	
259.63	3887.7	
259.84	6387.6	
260.05	6873	
260.26	5030.5	
260.47	3710.2	
260.68	6133	
260.89	5414.1	
261.1	4584	
261.31	3579.2	
261.52	6082.5	
261.73	6492.1	
261.95	4876.2	
262.16	4304.8	
262.37	6240.8	
262.58	6283.2	
262.79	4934.2	
263	3883.6	
263.21	5491.3	
263.42	5012.7	
263.63	3926	
263.84	3850.2	
264.05	6100.9	
264.26	6450.4	
264.47	4764.9	
264.69	4320.5	
264.9	6208.8	
265.11	5815.5	
265.32	3646.7	
265.53	3788.7	
265.74	5653.8	
265.95	4883	
266.16	4087.7	
266.37	4502.1	
266.58	5637.4	
266.79	5315.2	
267	3800.3	
267.21	3493.2	
267.42	5066.7	
267.63	5457.2	
267.84	4036.5	
268.06	3370.3	
268.27	5967.1	
268.48	6263.4	
268.69	3822.2	
268.9	4574.5	
269.11	6231.3	
269.32	4949.3	
269.53	3942.3	
269.74	3695.9	
269.95	5840.1	
270.16	4844.8	
270.37	3965.6	
270.58	4588.1	
270.79	5296	
271	6047.7	
271.21	4285	
271.42	4050.2	
271.63	5617.6	
271.84	5120.6	
272.05	3163.4	
272.26	3575.8	
272.47	5466.7	
272.68	5694.7	
272.89	3809.9	
273.11	4493.2	
273.32	5299.5	
273.53	6490	
273.74	4383.3	
273.95	4271.4	
274.16	6229.9	
274.37	5549.3	
274.58	4382	
274.79	3437.9	
275	5618.9	
275.21	6225.1	
275.42	5182	
275.63	4560.1	
275.84	5732.3	
276.05	7236.2	
276.26	4155.3	
276.47	3982.6	
276.68	5327.4	
276.89	6552.1	
277.1	4556.7	
277.31	3466.5	
277.52	5793	
277.73	5931.6	
277.94	3449.5	
278.15	3829.7	
278.36	5676.3	
278.57	5126.1	
278.78	3759.4	
278.99	4320.5	
279.2	5109	
279.41	5107.6	
279.62	4994.3	
279.83	3517	
280.04	6806.1	
280.25	4994.3	
280.46	4977.9	
280.67	3999	
280.88	5091.9	
281.09	6188.3	
281.3	4233.2	
281.51	5319.9	
281.72	5217.5	
281.93	6120.7	
282.14	3697.3	
282.35	3967.6	
282.56	6027.2	
282.77	6011.5	
282.98	3833.1	
283.19	4754.7	
283.4	7412.3	
283.61	5440.8	
283.82	3433.1	
284.03	4945.2	
284.24	5614.8	
284.45	6128.9	
284.66	4955.4	
284.87	4790.9	
285.08	6076.3	
285.29	6246.3	
285.5	3345.7	
285.71	3940.3	
285.92	6154.8	
286.12	6836.1	
286.33	4865.3	
286.54	3804.4	
286.75	6017.6	
286.96	5350	
287.17	3549.8	
287.38	4836.6	
287.59	5142.4	
287.8	5049.6	
288.01	3886.4	
288.22	4498.7	
288.43	6030.6	
288.64	4975.2	
288.85	4625.7	
289.06	4421.6	
289.27	5950.7	
289.48	6475.7	
289.69	4969.7	
289.9	4478.2	
290.11	6219.7	
290.32	5162.9	
290.53	4743.1	
290.74	4346.5	
290.94	5978.7	
291.15	6083.1	
291.36	3741.6	
291.57	4448.2	
291.78	5224.4	
291.99	4905.6	
292.2	3582.6	
292.41	4341.7	
292.62	6120.7	
292.83	5874.9	
293.04	5353.4	
293.25	3621.5	
293.46	5283.8	
293.67	6126.2	
293.88	3708.9	
294.09	3571.7	
294.29	5023.7	
294.5	5642.8	
294.71	4032.5	
294.92	3791.5	
295.13	5315.2	
295.34	6643.6	
295.55	3307.5	
295.76	3460.4	
295.97	5932.3	
296.18	6724.8	
296.39	3530.7	
296.6	3794.2	
296.81	5580.7	
297.01	5922	
297.22	3888.4	
297.43	3686.3	
297.64	5051.7	
297.85	5246.2	
298.06	3066.5	
298.27	3328.6	
298.48	5580.7	
298.69	5215.5	
298.9	4027.7	
299.11	3699.3	
299.31	4958.1	
299.52	5050.3	
299.73	4358.8	
299.94	4233.8	
300.15	5511.8	
300.36	5143.8	
300.57	4252.3	
300.78	4282.3	
300.99	5438.7	
301.2	5622.4	
301.4	3678.8	
301.61	4068.6	
301.82	5828.5	
302.03	5961	
302.24	4534.2	
302.45	3524.6	
302.66	5866.7	
302.87	6313.2	
303.08	3753.2	
303.29	5081	
303.49	5259.9	
303.7	5559.6	
303.91	3323.9	
304.12	4930.1	
304.33	5023	
304.54	5659.9	
304.75	3758	
304.96	3559.4	
305.16	5848.3	
305.37	6611.5	
305.58	3244	
305.79	3394.8	
306	5793	
306.21	4882.4	
306.42	3772.4	
306.63	5838.8	
306.83	5391.6	
307.04	6186.2	
307.25	4081.6	
307.46	4063.9	
307.67	4679.6	
307.88	6019.7	
308.09	3634.5	
308.29	3839.3	
308.5	5607.3	
308.71	6193.7	
308.92	3960.8	
309.13	3575.1	
309.34	5332.9	
309.55	5463.3	
309.75	4662.5	
309.96	4291.9	
310.17	5980.1	
310.38	5166.3	
310.59	4501.4	
310.8	4211.3	
311.01	5351.3	
311.21	5342.5	
311.42	3526.6	
311.63	3688.4	
311.84	5253	
312.05	5646.2	
312.26	4166.3	
312.46	4530.1	
312.67	5338.4	
312.88	5044.8	
313.09	3609.2	
313.3	3469.3	
313.51	6352.8	
313.71	6694.8	
313.92	3571	
314.13	3848.1	
314.34	5683.8	
314.55	5389.6	
314.76	4657.1	
314.96	4055	
315.17	5560.9	
315.38	5995.1	
315.59	3605.1	
315.8	3369.6	
316.01	6406	
316.21	6416.3	
316.42	3482.9	
316.63	3993.5	
316.84	5401.9	
317.05	6274.3	
317.26	4232.5	
317.46	3842	
317.67	5454.4	
317.88	5910.4	
318.09	4605.9	
318.3	3310.9	
318.5	5195.7	
318.71	5873.6	
318.92	5917.3	
319.13	4257	
319.34	6013.5	
319.54	6168.5	
319.75	3355.9	
319.96	3206.4	
320.17	5881.8	
320.38	6125.5	
320.58	3234.4	
320.79	3966.9	
321	6108.4	
321.21	6229.2	
321.42	4010.6	
321.62	3274	
321.83	5091.3	
322.04	5542.5	
322.25	3839.3	
322.46	3592.1	
322.66	5580.7	
322.87	5780.1	
323.08	4522.6	
323.29	3534.8	
323.5	6566.5	
323.7	5039.4	
323.91	4948.6	
324.12	4476.9	
324.33	5559.6	
324.53	5846.3	
324.74	4250.2	
324.95	4556	
325.16	4906.3	
325.37	5312.4	
325.57	3549.1	
325.78	3675.4	
325.99	5554.1	
326.2	5012.7	
326.4	5126.7	
326.61	3295.9	
326.82	5466.7	
327.03	5657.9	
327.24	5159.5	
327.44	4936.3	
327.65	5793	
327.86	4658.4	
328.07	4205.2	
328.27	3476.8	
328.48	6167.8	
328.69	5038	
328.9	5228.5	
329.1	3909.6	
329.31	5433.3	
329.52	6352.1	
329.73	3568.2	
329.93	4115.1	
330.14	5490.6	
330.35	5776.6	
330.56	5968.5	
330.76	4506.9	
330.97	5306.3	
331.18	5745.2	
331.39	4040.6	
331.59	3179.1	
331.8	6195.8	
332.01	6296.1	
332.22	3663.1	
332.42	4293.2	
332.63	5621.7	
332.84	5240.1	
333.05	4051.6	
333.25	3670.6	
333.46	5302.2	
333.67	5531.6	
333.88	3796.3	
334.08	4215.4	
334.29	8393.9	
334.5	6219.7	
334.7	3516.4	
334.91	5226.4	
335.12	5089.9	
335.33	5905.7	
335.53	3986.7	
335.74	5984.2	
335.95	5330.9	
336.16	5097.4	
336.36	4037.9	
336.57	4612.7	
336.78	4977.9	
336.98	6158.2	
337.19	5019.6	
337.4	3917.1	
337.61	6655.2	
337.81	4995	
338.02	3695.2	
338.23	4780.6	
338.43	6289.3	
338.64	5141.8	
338.85	3627	
339.05	4817.5	
339.26	6393.1	
339.47	4913.8	
339.68	3597.6	
339.88	5429.2	
340.09	5721.3	
340.3	6049	
340.5	4252.3	
340.71	3203	
340.92	4986.1	
341.13	6282.5	
341.33	3515.7	
341.54	4286.4	
341.75	5691.3	
341.95	5337.7	
342.16	4078.9	
342.37	4394.9	
342.57	5063.3	
342.78	5498.1	
342.99	4506.2	
343.19	3225.6	
343.4	5970.5	
343.61	5769.1	
343.81	3880.2	
344.02	3588	
344.23	5953.4	
344.43	6414.2	
344.64	4513	
344.85	4388.1	
345.06	5817.6	
345.26	6114.6	
345.47	4184	
345.68	4975.2	
345.88	4831.8	
346.09	5973.2	
346.3	4234.5	
346.5	3203	
346.71	5509.7	
346.92	5210	
347.12	3287	
347.33	4204.5	
347.54	6115.9	
347.74	6544.6	
347.95	4242.7	
348.16	3095.2	
348.36	5296.7	
348.57	5164.3	
348.78	4105.5	
348.98	4463.9	
349.19	5479	
349.39	4992.9	
349.6	3323.9	
349.81	3723.2	
350.01	5736.4	
350.22	5208.7	
350.43	3996.3	
350.63	4848.2	
350.84	5526.1	
351.05	5328.1	
351.25	3642.7	
351.46	3310.2	
351.67	6112.5	
351.87	5177.3	
352.08	3870	
352.29	4431.1	
352.49	5935.7	
352.7	5695.4	
352.9	3576.4	
353.11	4420.2	
353.32	6737.8	
353.52	5302.2	
353.73	3450.8	
353.94	4511.7	
354.14	5817.6	
354.35	5599.8	
354.55	3523.2	
354.76	4031.8	
354.97	5802.6	
355.17	5528.8	
355.38	3370.3	
355.59	4744.5	
355.79	5190.2	
356	5623.7	
356.2	4000.4	
356.41	3454.2	
356.62	4863.9	
356.82	5445.5	
357.03	4303.5	
357.24	3820.1	
357.44	5206.6	
357.65	5302.9	
357.85	5176.6	
358.06	4022.9	
358.27	4897.4	
358.47	5197.1	
358.68	3347.7	
358.88	4272.1	
359.09	5692.7	
359.3	6131.6	
359.5	4995	
359.71	4327.4	
359.91	6653.2	
360.12	5908.4	
360.33	4197	
360.53	4737	
360.74	5182	
360.94	5221	
361.15	4440.7	
361.36	3626.3	
361.56	6063.4	
361.77	5436.7	
361.97	4977.2	
362.18	3880.2	
362.38	6014.2	
362.59	5036.6	
362.8	3539.6	
363	3413.3	
363.21	4864.6	
363.41	5600.5	
363.62	4072.7	
363.83	5184.8	
364.03	5584.8	
364.24	6666.8	
364.44	5251	
364.65	5231.9	
364.85	5339.1	
365.06	5024.3	
365.27	3777.8	
365.47	3721.8	
365.68	6392.4	
365.88	5324	
366.09	4168.3	
366.29	3808.5	
366.5	5608	
366.71	6092.7	
366.91	5253	
367.12	4337.6	
367.32	6642.2	
367.53	5954.1	
367.73	4267.3	
367.94	5294	
368.14	5854.5	
368.35	6815	
368.56	4186	
368.76	3558	
368.97	5950	
369.17	7792.5	
369.38	3789.4	
369.58	4042	
369.79	4988.9	
369.99	6379.4	
370.2	5057.1	
370.4	4131.4	
370.61	5642.8	
370.82	6853.9	
371.02	3984.7	
371.23	3352.5	
371.43	4867.3	
371.64	6270.2	
371.84	4078.2	
372.05	5332.2	
372.25	7710.6	
372.46	6004	
372.66	3975.8	
372.87	4010.6	
373.07	6025.8	
373.28	7653.9	
373.48	5092.6	
373.69	4803.2	
373.9	5464.7	
374.1	5448.3	
374.31	5073.5	
374.51	4544.4	
374.72	6290.7	
374.92	5173.9	
375.13	5201.2	
375.33	4336.9	
375.54	5907	
375.74	5306.3	
375.95	4385.4	
376.15	5696.8	
376.36	5868.8	
376.56	5715.2	
376.77	4440.7	
376.97	4936.3	
377.18	6970.6	
377.38	5984.8	
377.59	5288.5	
377.79	3967.6	
378	5760.3	
378.2	6244.3	
378.41	4003.1	
378.61	3840.6	
378.82	6262	
379.02	5360.2	
379.23	4127.3	
379.43	5306.3	
379.64	6336.4	
379.84	5925.5	
380.05	4052.9	
380.25	3874.1	
380.46	6033.3	
380.66	5594.4	
380.87	5374.6	
381.07	5725.4	
381.28	6683.2	
381.48	6042.9	
381.69	4012.7	
381.89	4066.6	
382.1	4930.8	
382.3	6148	
382.51	5223	
382.71	6089.3	
382.91	6026.5	
383.12	6535.8	
383.32	4367.6	
383.53	4617.5	
383.73	5821	
383.94	5747.3	
384.14	4474.8	
384.35	3614	
384.55	5592.3	
384.76	6035.4	
384.96	4349.9	
385.17	4685.1	
385.37	5988.3	
385.58	5270.1	
385.78	4732.9	
385.98	3615.3	
386.19	5475.6	
386.39	5887.2	
386.6	4128.7	
386.8	4442.7	
387.01	6032	
387.21	6027.2	
387.42	4812	
387.62	5461.2	
387.83	5317.2	
388.03	6045.6	
388.23	4440	
388.44	5331.5	
388.64	4964.3	
388.85	5150	
389.05	4799.1	
389.26	5477.6	
389.46	6842.9	
389.67	6465.4	
389.87	4691.2	
390.07	4782.7	
390.28	5639.4	
390.48	5223.7	
390.69	3984.7	
390.89	4265.2	
391.1	5421	
391.3	6417	
391.5	5617.6	
391.71	6161.7	
391.91	6072.9	
392.12	7224.6	
392.32	5675.6	
392.53	4803.2	
392.73	5441.5	
392.93	5644.2	
393.14	4397	
393.34	5169.1	
393.55	6198.5	
393.75	5468.1	
393.95	4388.1	
394.16	4461.8	
394.36	5369.1	
394.57	6141.2	
394.77	3926	
394.98	4394.3	
395.18	5387.5	
395.38	5626.5	
395.59	5300.1	
395.79	4132.8	
396	5533.6	
396.2	5930.2	
396.4	5042.1	
396.61	4926	
396.81	6260.6	
397.02	5390.3	
397.22	5292.6	
397.42	5345.9	
397.63	6196.5	
397.83	5390.3	
398.04	4112.3	
398.24	4699.4	
398.44	5928.2	
398.65	5017.5	
398.85	3971	
399.05	4132.1	
399.26	5341.1	
399.46	7191.1	
399.67	4499.4	
399.87	4204.5	
400.07	5743.9	
400.28	6158.9	
400.48	4322.6	
400.69	5407.3	
400.89	6877.1	
401.09	6780.1	
401.3	4145.1	
401.5	5368.4	
401.7	7049.8	
401.91	7281.9	
402.11	4440	
402.32	4656.4	
402.52	6302.3	
402.72	6178	
402.93	4924	
403.13	3698.6	
403.33	7018.4	
403.54	5707.7	
403.74	4590.9	
403.94	5603.2	
404.15	5838.8	
404.35	7059.3	
404.56	4461.2	
404.76	6415.6	
404.96	6358.9	
405.17	6208.8	
405.37	5794.4	
405.57	4958.1	
405.78	6417	
405.98	5756.2	
406.18	4375.8	
406.39	5355.4	
406.59	6270.2	
406.79	5907	
407	4240	
407.2	4379.2	
407.4	6375.3	
407.61	6646.3	
407.81	4427	
408.01	6718.7	
408.22	5375.2	
408.42	7458	
408.62	5588.2	
408.83	4956.1	
409.03	5920.7	
409.23	5813.5	
409.44	4969.1	
409.64	5352	
409.84	6874.3	
410.05	6769.2	
410.25	5075.5	
410.45	5001.1	
410.66	6193.1	
410.86	8776.9	
411.06	5354.1	
411.27	5213.4	
411.47	8546.2	
411.67	6391.7	
411.88	5464.7	
412.08	5659.9	
412.28	7034.1	
412.49	7523.6	
412.69	5227.8	
412.89	5179.3	
413.09	7376.1	
413.3	7188.4	
413.5	5208.7	
413.7	4807.3	
413.91	6423.8	
414.11	7354.9	
414.31	5040.1	
414.52	5536.3	
414.72	6957.6	
414.92	6863.4	
415.12	5014.1	
415.33	5500.8	
415.53	7285.3	
415.73	7425.9	
415.94	6024.4	
416.14	5436.7	
416.34	6225.8	
416.55	5999.9	
416.75	6627.2	
416.95	6036	
417.15	7305.8	
417.36	8009.6	
417.56	6802.7	
417.76	5845.6	
417.97	7650.5	
418.17	7262.1	
418.37	5382.1	
418.57	5397.1	
418.78	7033.4	
418.98	6731	
419.18	6238.1	
419.38	6277.7	
419.59	6705.7	
419.79	6436.1	
419.99	5251	
420.2	5681.7	
420.4	7329.7	
420.6	7479.9	
420.8	5219.6	
421.01	5018.9	
421.21	7010.9	
421.41	7243.7	
421.61	5619.6	
421.82	5279.7	
422.02	6543.3	
422.22	7454.6	
422.42	6180.8	
422.63	5770.5	
422.83	6707.8	
423.03	7897	
423.23	5807.4	
423.44	4722.6	
423.64	6743.3	
423.84	6490	
424.04	5113.8	
424.25	4795	
424.45	7651.9	
424.65	7649.8	
424.85	4689.2	
425.06	5298.1	
425.26	7597.3	
425.46	6206	
425.66	5767.8	
425.87	5399.8	
426.07	7378.8	
426.27	7273	
426.47	5569.1	
426.67	4926.7	
426.88	7746.8	
427.08	7215	
427.28	5766.4	
427.48	4842.1	
427.69	6042.2	
427.89	6758.3	
428.09	5785.5	
428.29	4876.2	
428.5	7531.7	
428.7	7000	
428.9	4788.8	
429.1	5450.3	
429.3	6860	
429.51	7273	
429.71	5147.2	
429.91	5930.9	
430.11	7198.6	
430.31	7757	
430.52	5399.8	
430.72	5737.7	
430.92	7720.8	
431.12	7134.4	
431.32	5107	
431.53	5523.4	
431.73	6060.6	
431.93	7891.5	
432.13	5005.9	
432.33	4885.1	
432.54	6665.5	
432.74	6979.5	
432.94	4738.3	
433.14	5852.4	
433.34	7182.2	
433.55	6557.6	
433.75	5828.5	
433.95	7616.4	
434.15	6870.3	
434.35	6614.3	
434.56	4952.7	
434.76	4491.9	
434.96	6799.3	
435.16	7137.2	
435.36	4866.7	
435.56	5999.9	
435.77	6569.9	
435.97	6640.9	
436.17	6748.1	
436.37	5926.1	
436.57	6462.7	
436.78	6382.8	
436.98	5896.8	
437.18	6543.3	
437.38	7100.3	
437.58	6601.3	
437.78	6645	
437.99	5217.5	
438.19	7144.7	
438.39	8023.9	
438.59	5120.6	
438.79	4697.4	
438.99	7845.8	
439.2	6699.6	
439.4	4907.6	
439.6	4898.1	
439.8	7154.2	
440	8195.3	
440.2	5898.1	
440.4	6034	
440.61	7466.2	
440.81	8014.4	
441.01	5010.7	
441.21	5975.3	
441.41	7783.6	
441.61	7424.6	
441.81	6237.4	
442.02	7295.5	
442.22	8252.6	
442.42	7544.7	
442.62	5055.8	
442.82	5183.4	
443.02	7722.2	
443.22	6881.9	
443.43	5482.4	
443.63	5102.2	
443.83	6616.3	
444.03	6746.7	
444.23	6336.4	
444.43	5962.3	
444.63	6936.5	
444.83	8285.4	
445.04	5120.6	
445.24	6514.6	
445.44	7346.7	
445.64	7421.8	
445.84	6014.9	
446.04	5868.8	
446.24	6675	
446.44	7800.7	
446.65	5102.2	
446.85	5586.2	
447.05	6897.6	
447.25	7725.6	
447.45	5662	
447.65	4987.5	
447.85	7047.1	
448.05	6756.9	
448.25	6118.6	
448.46	5920.7	
448.66	6976.1	
448.86	6817	
449.06	4867.3	
449.26	6126.8	
449.46	7458	
449.66	6354.8	
449.86	5617.6	
450.06	5578.7	
450.26	6677.7	
450.47	7215	
450.67	5834	
450.87	6157.6	
451.07	7378.8	
451.27	7073.7	
451.47	5114.5	
451.67	5708.4	
451.87	6666.1	
452.07	7950.2	
452.27	5312.4	
452.47	5311.7	
452.67	7042.3	
452.88	7712.7	
453.08	4666	
453.28	6737.1	
453.48	8269	
453.68	6975.4	
453.88	5201.2	
454.08	5481.7	
454.28	7351.5	
454.48	7075	
454.68	6047.7	
454.88	6612.9	
455.08	7532.4	
455.28	7238.2	
455.48	5074.2	
455.68	5721.3	
455.89	8063.5	
456.09	7615	
456.29	5466.7	
456.49	5459.2	
456.69	7851.2	
456.89	7133.1	
457.09	5983.5	
457.29	6425.8	
457.49	7414.3	
457.69	7520.1	
457.89	5870.2	
458.09	5223.7	
458.29	7110.5	
458.49	7864.2	
458.69	6212.2	
458.89	5575.9	
459.09	8000	
459.29	8165.3	
459.49	5687.9	
459.69	6476.4	
459.9	7642.3	
460.1	7110.5	
460.3	5625.8	
460.5	5408	
460.7	7620.5	
460.9	7395.2	
461.1	4994.3	
461.3	6415.6	
461.5	8254	
461.7	7841.7	
461.9	5492.7	
462.1	5912.5	
462.3	7329.7	
462.5	7963.2	
462.7	5457.2	
462.9	5711.1	
463.1	9019.9	
463.3	8637.6	
463.5	5806.7	
463.7	6788.3	
463.9	7529	
464.1	7873.1	
464.3	5852.4	
464.5	6282.5	
464.7	8186.4	
464.9	7752.2	
465.1	7533.8	
465.3	6454.5	
465.5	8526.4	
465.7	8472.4	
465.9	6781.5	
466.1	6653.2	
466.3	8271.1	
466.5	8003.5	
466.7	7506.5	
466.9	6336.4	
467.1	8017.8	
467.3	9075.2	
467.5	7393.2	
467.7	6177.4	
467.9	9236.3	
468.1	10167	
468.3	7073	
468.5	7600	
468.7	7921.5	
468.9	7914.7	
469.1	6465.4	
469.3	7275.8	
469.5	9955.9	
469.7	7402.7	
469.9	7019.1	
470.1	6266.8	
470.3	7929.1	
470.5	7922.9	
470.7	7614.3	
470.9	6287.9	
471.1	7690.8	
471.3	8195.3	
471.5	6075	
471.69	8193.2	
471.89	7565.9	
472.09	7068.2	
472.29	6919.4	
472.49	7338.6	
472.69	7269.6	
472.89	8168	
473.09	5926.1	
473.29	6244.3	
473.49	7507.2	
473.69	7684.7	
473.89	7236.8	
474.09	6380.1	
474.29	9026.8	
474.49	8744.8	
474.69	7148.1	
474.89	6480.5	
475.09	7733.1	
475.29	7623.9	
475.49	5906.3	
475.69	6087.9	
475.88	9346.2	
476.08	8012.3	
476.28	5766.4	
476.48	6277.7	
476.68	8459.5	
476.88	8315.4	
477.08	6091.3	
477.28	6446.3	
477.48	7783	
477.68	8509.3	
477.88	5971.2	
478.08	6303.6	
478.28	8839.7	
478.48	7916.8	
478.67	6275.7	
478.87	5758.2	
479.07	8568	
479.27	8066.3	
479.47	6567.2	
479.67	6555.5	
479.87	8366.6	
480.07	9025.4	
480.27	5780.7	
480.47	7479.2	
480.67	8130.4	
480.87	8697	
481.06	6092	
481.26	6974	
481.46	7907.9	
481.66	7785	
481.86	6512.5	
482.06	7654.6	
482.26	7626	
482.46	8778.3	
482.66	6518	
482.86	6109.8	
483.05	8087.4	
483.25	7430.7	
483.45	9083.4	
483.65	6504.3	
483.85	7604.1	
484.05	7950.9	
484.25	6994.5	
484.45	7453.2	
484.65	8945.5	
484.84	8847.2	
485.04	6444.3	
485.24	6364.4	
485.44	9015.2	
485.64	7361.8	
485.84	5597.1	
486.04	7124.9	
486.24	7691.5	
486.44	8211.7	
486.63	5679	
486.83	6512.5	
487.03	7681.2	
487.23	7892.2	
487.43	5703.6	
487.63	8159.8	
487.83	7869.7	
488.02	8942.1	
488.22	6714.6	
488.42	7332.4	
488.62	8843.1	
488.82	7656	
489.02	6414.9	
489.22	6429.3	
489.41	8586.5	
489.61	8268.3	
489.81	6009.4	
490.01	6053.1	
490.21	8456.1	
490.41	9161.9	
490.61	5997.1	
490.8	6208.1	
491	7817.8	
491.2	7220.5	
491.4	6709.1	
491.6	5858.6	
491.8	7953.6	
491.99	8231.5	
492.19	5854.5	
492.39	6186.2	
492.59	8714.1	
492.79	8723	
492.99	7077.8	
493.18	6173.9	
493.38	8709.3	
493.58	9531.2	
493.78	6870.3	
493.98	6381.5	
494.18	8372.8	
494.37	7782.3	
494.57	7005.4	
494.77	6982.2	
494.97	8583.7	
495.17	8883.4	
495.37	6509.1	
495.56	6814.3	
495.76	8955.8	
495.96	8572.1	
496.16	7705.1	
496.36	6541.9	
496.55	8746.9	
496.75	8172.8	
496.95	7015	
497.15	6767.9	
497.35	8675.9	
497.54	8602.2	
497.74	6566.5	
497.94	8449.9	
498.14	9544.9	
498.34	9275.3	
498.53	6376.7	
498.73	7141.3	
498.93	8038.3	
499.13	8688.8	
499.33	6890	
499.52	7387.7	
499.72	8608.3	
499.92	8989.9	
500.12	6553.5	
500.32	6861.4	
500.51	8871.8	
500.71	8624	
500.91	7621.9	
501.11	7348.8	
501.31	8888.2	
501.5	9251.4	
501.7	7927.7	
501.9	6750.8	
502.1	8660.2	
502.29	9010.4	
502.49	7305.1	
502.69	7732.4	
502.89	8768.7	
503.09	8739.4	
503.28	6266.1	
503.48	6432.7	
503.68	8052.6	
503.88	8062.9	
504.07	7496.2	
504.27	7005.4	
504.47	8385.1	
504.67	8611.7	
504.86	7415	
505.06	7021.1	
505.26	8053.3	
505.46	9968.1	
505.65	6894.1	
505.85	7119.4	
506.05	7961.1	
506.25	8563.9	
506.44	6182.8	
506.64	7295.5	
506.84	7938.6	
507.04	8933.9	
507.23	6513.2	
507.43	7118.1	
507.63	10119	
507.83	8292.2	
508.02	7081.2	
508.22	6759	
508.42	10341	
508.62	7963.2	
508.81	6975.4	
509.01	7613.7	
509.21	7916.8	
509.4	8168	
509.6	7190.4	
509.8	6564.4	
510	8238.3	
510.19	9648	
510.39	6492.7	
510.59	6596.5	
510.79	7888.1	
510.98	9377.6	
511.18	6599.9	
511.38	6679.1	
511.57	8789.9	
511.77	8597.4	
511.97	7427.3	
512.17	6298.2	
512.36	8711.4	
512.56	8779.6	
512.76	6380.1	
512.95	6238.8	
513.15	8835.6	
513.35	7539.3	
513.55	7311.2	
513.74	6458.6	
513.94	8878.6	
514.14	8188.5	
514.33	7507.9	
514.53	7253.2	
514.73	8080.6	
514.92	8297.7	
515.12	6655.9	
515.32	6405.4	
515.51	8327.7	
515.71	8960.5	
515.91	8424	
516.11	6543.3	
516.3	10088	
516.5	7883.3	
516.7	7108.5	
516.89	7731.1	
517.09	8071	
517.29	7894.2	
517.48	7450.5	
517.68	6621.1	
517.88	7862.8	
518.07	8467.7	
518.27	7292.1	
518.47	6268.8	
518.66	9068.4	
518.86	7550.9	
519.06	6100.2	
519.25	6595.8	
519.45	8018.5	
519.65	9493	
519.84	7236.8	
520.04	7925.6	
520.24	9798.2	
520.43	8576.2	
520.63	6812.2	
520.83	6560.3	
521.02	7735.9	
521.22	8479.3	
521.42	7152.2	
521.61	7791.2	
521.81	8124.3	
522.01	8290.2	
522.2	7074.4	
522.4	6823.8	
522.6	8787.8	
522.79	7497.6	
522.99	6952.9	
523.18	6226.5	
523.38	8486.8	
523.58	8492.2	
523.77	8235.6	
523.97	6134.3	
524.17	10350	
524.36	9476	
524.56	7572.7	
524.76	7225.2	
524.95	8369.4	
525.15	8108.6	
525.34	6950.8	
525.54	6926.9	
525.74	8737.3	
525.93	7656.7	
526.13	8116.1	
526.33	6854.6	
526.52	9000.1	
526.72	8449.9	
526.91	8078.6	
527.11	7356.3	
527.31	9239.1	
527.5	9531.2	
527.7	7309.2	
527.89	6237.4	
528.09	7980.3	
528.29	8514.1	
528.48	7587	
528.68	7367.9	
528.87	8941.4	
529.07	9056.8	
529.27	7082.6	
529.46	6541.2	
529.66	8476.5	
529.85	8842.4	
530.05	6365.8	
530.25	7150.8	
530.44	9972.9	
530.64	8423.3	
530.83	6905.8	
531.03	7181.5	
531.23	8934.6	
531.42	8852.7	
531.62	8062.2	
531.81	7111.9	
532.01	9070.5	
532.21	9476.6	
532.4	6902.3	
532.6	7149.5	
532.79	9944.3	
532.99	9081.4	
533.18	7223.9	
533.38	8294.3	
533.58	8564.6	
533.77	9398.8	
533.97	7168.6	
534.16	7987.8	
534.36	9471.2	
534.55	8513.4	
534.75	8122.9	
534.95	7148.8	
535.14	9402.9	
535.34	8604.2	
535.53	6817	
535.73	8839.7	
535.92	9923.8	
536.12	8692.9	
536.31	6923.5	
536.51	8213.7	
536.71	9082.1	
536.9	8611	
537.1	7235.5	
537.29	7313.3	
537.49	9573.6	
537.68	8502.5	
537.88	7748.8	
538.07	6836.1	
538.27	8740.7	
538.46	9891.7	
538.66	6816.3	
538.86	7159	
539.05	8827.4	
539.25	9316.2	
539.44	7392.5	
539.64	7006.1	
539.83	8510.7	
540.03	9551	
540.22	6749.4	
540.42	7069.6	
540.61	8867.7	
540.81	8939.4	
541	7623.9	
541.2	8177.5	
541.39	8408.3	
541.59	8769.4	
541.78	7852.6	
541.98	6912.6	
542.18	7958.4	
542.37	7996	
542.57	7204.1	
542.76	7848.5	
542.96	8101.1	
543.15	8840.4	
543.35	7266.9	
543.54	6712.6	
543.74	9221.3	
543.93	8771.5	
544.13	7380.2	
544.32	8572.8	
544.52	9043.1	
544.71	8228.1	
544.91	6440.2	
545.1	7708.6	
545.3	8314.1	
545.49	9004.9	
545.69	6327.5	
545.88	6952.9	
546.08	9880.1	
546.27	9514.9	
546.47	7587	
546.66	6759.7	
546.86	9217.9	
547.05	9799.5	
547.24	6990.4	
547.44	6883.9	
547.63	8144.1	
547.83	9329.2	
548.02	7243	
548.22	7455.3	
548.41	7950.2	
548.61	9279.3	
548.8	6693.4	
549	6683.9	
549.19	8692.3	
549.39	8914.1	
549.58	6432.7	
549.78	6979.5	
549.97	9065	
550.17	8411	
550.36	7995.3	
550.55	9032.2	
550.75	8465.6	
550.94	9428.8	
551.14	6678.4	
551.33	7141.3	
551.53	7798.7	
551.72	8823.3	
551.92	7175.4	
552.11	6853.9	
552.31	8857.5	
552.5	8782.4	
552.69	8591.9	
552.89	6546	
553.08	8787.8	
553.28	8363.2	
553.47	6896.9	
553.67	8097	
553.86	9481.4	
554.06	7791.8	
554.25	6122.7	
554.44	6720.8	
554.64	10402	
554.83	9743.6	
555.03	6668.2	
555.22	7042.3	
555.42	9039.7	
555.61	8672.5	
555.8	6889.4	
556	7189.7	
556.19	7781.6	
556.39	9144.9	
556.58	6877.1	
556.78	6866.8	
556.97	8638.3	
557.16	8338.6	
557.36	8121.6	
557.55	6515.3	
557.75	7539.9	
557.94	9389.9	
558.13	6606.1	
558.33	6395.1	
558.52	9121.7	
558.72	8000	
558.91	6555.5	
559.1	6719.4	
559.3	7653.3	
559.49	7373.4	
559.69	5993.7	
559.88	7073.7	
560.07	8579.6	
560.27	9002.9	
560.46	7237.5	
560.66	7454.6	
560.85	8329.8	
561.04	7529	
561.24	6520	
561.43	6704.4	
561.63	7712	
561.82	8117.5	
562.01	7993.2	
562.21	7021.1	
562.4	8557.1	
562.59	9512.8	
562.79	6868.9	
562.98	6433.4	
563.18	8506.6	
563.37	9916.9	
563.56	7327.6	
563.76	6371.9	
563.95	7865.6	
564.14	7718.1	
564.34	6707.1	
564.53	6653.9	
564.73	8475.2	
564.92	8826.1	
565.11	7006.1	
565.31	6254.5	
565.5	9039.1	
565.69	7883.3	
565.89	6484.6	
566.08	6839.5	
566.27	8918.9	
566.47	9347.6	
566.66	7459.4	
566.85	6049	
567.05	8374.8	
567.24	7763.2	
567.44	6382.2	
567.63	7840.3	
567.82	8740.7	
568.02	8419.9	
568.21	6391.7	
568.4	6818.4	
568.6	8247.2	
568.79	8327.7	
568.98	6262	
569.18	6417	
569.37	8252.6	
569.56	10405	
569.76	6741.9	
569.95	7847.8	
570.14	8633.6	
570.34	8589.2	
570.53	6311.2	
570.72	6323.4	
570.91	9147.6	
571.11	8187.8	
571.3	6817	
571.49	7754.3	
571.69	8215.1	
571.88	7783.6	
572.07	7309.2	
572.27	7367.2	
572.46	7757.7	
572.65	8890.9	
572.85	6537.8	
573.04	7016.3	
573.23	9189.9	
573.43	8353	
573.62	6337.8	
573.81	6951.5	
574	8344.8	
574.2	8211	
574.39	6687.3	
574.58	6879.8	
574.78	9252	
574.97	8491.6	
575.16	7150.8	
575.36	7432.1	
575.55	8867.7	
575.74	9028.1	
575.93	6307.1	
576.13	7318.8	
576.32	8163.9	
576.51	8786.5	
576.71	6716	
576.9	8039.6	
577.09	9129.8	
577.28	8549.6	
577.48	7254.6	
577.67	6065.4	
577.86	8258.8	
578.05	8575.5	
578.25	6853.9	
578.44	6958.3	
578.63	8426	
578.83	9547.6	
579.02	6238.1	
579.21	7767.3	
579.4	8594.6	
579.6	8247.9	
579.79	6974.7	
579.98	9298.5	
580.17	8934.6	
580.37	8892.3	
580.56	6421.7	
580.75	7295.5	
580.94	9429.5	
581.14	9307.3	
581.33	7718.8	
581.52	6550.1	
581.71	8677.2	
581.91	9485.5	
582.1	6275.7	
582.29	6825.9	
582.48	8403.5	
582.68	8303.8	
582.87	7362.4	
583.06	6980.2	
583.25	8712.7	
583.45	8490.9	
583.64	7550.9	
583.83	8365.3	
584.02	8157.7	
584.21	8602.2	
584.41	7593.2	
584.6	6833.4	
584.79	8306.6	
584.98	9112.8	
585.18	6274.3	
585.37	6263.4	
585.56	7840.3	
585.75	8647.9	
585.94	6582.9	
586.14	7219.1	
586.33	9272.5	
586.52	8307.9	
586.71	7041.6	
586.91	6798.6	
587.1	7726.3	
587.29	8791.9	
587.48	6752.2	
587.67	6661.4	
587.87	8712.1	
588.06	8809.7	
588.25	8000	
588.44	7256.6	
588.63	8301.1	
588.83	8944.2	
589.02	6701	
589.21	6628.6	
589.4	8004.8	
589.59	7905.8	
589.78	5780.7	
589.98	6227.9	
590.17	7625.3	
590.36	8185.7	
590.55	5520.6	
590.74	6491.4	
590.94	9793.4	
591.13	8235.6	
591.32	6352.8	
591.51	5806	
591.7	8811.7	
591.89	8137.3	
592.09	5937.1	
592.28	6447	
592.47	7345.4	
592.66	9321.7	
592.85	5835.3	
593.05	6126.8	
593.24	8013	
593.43	8684.8	
593.62	6143.9	
593.81	6662.7	
594	7931.8	
594.19	8194.6	
594.39	6123.4	
594.58	6012.8	
594.77	8279.9	
594.96	8951.7	
595.15	5971.2	
595.34	6734.4	
595.54	8318.2	
595.73	7425.9	
595.92	5377.3	
596.11	6638.1	
596.3	8856.8	
596.49	7540.6	
596.68	6349.4	
596.88	6827.2	
597.07	8563.2	
597.26	7348.8	
597.45	5847.6	
597.64	7051.8	
597.83	7560.4	
598.02	8189.8	
598.22	5883.1	
598.41	6589	
598.6	7942.7	
598.79	7422.5	
598.98	5934.3	
599.17	6959	
599.36	8030.8	
599.55	9171.5	
599.74	8118.1	
599.94	7775.5	
600.13	8618.5	
600.32	7405.5	
600.51	5689.3	
600.7	5793.7	
600.89	9251.4	
601.08	9260.9	
601.27	5623	
601.47	6652.5	
601.66	8466.3	
601.85	9187.9	
602.04	6283.2	
602.23	6570.6	
602.42	7483.3	
602.61	8099	
602.8	6266.8	
602.99	6036.7	
603.18	7978.9	
603.37	8107.9	
603.57	6630	
603.76	7241.6	
603.95	8944.8	
604.14	8364.6	
604.33	6015.6	
604.52	6449.1	
604.71	8029.4	
604.9	7675.8	
605.09	6956.9	
605.28	6793.1	
605.47	8621.3	
605.66	8337.3	
605.86	6653.2	
606.05	5967.8	
606.24	8684.8	
606.43	7120.1	
606.62	6427.9	
606.81	7245.7	
607	8451.3	
607.19	7766.6	
607.38	5795.8	
607.57	6049	
607.76	7652.6	
607.95	6982.2	
608.14	6444.3	
608.33	7106.5	
608.52	7570	
608.72	8490.2	
608.91	5696.8	
609.1	5634.6	
609.29	7726.3	
609.48	7106.5	
609.67	6734.4	
609.86	5635.3	
610.05	7224.6	
610.24	7606.2	
610.43	5468.1	
610.62	5169.8	
610.81	8793.3	
611	8549.6	
611.19	5642.8	
611.38	6485.9	
611.57	7936.6	
611.76	9340.1	
611.95	5434.6	
612.14	5279.7	
612.33	7701	
612.52	7157	
612.71	6012.2	
612.9	5129.5	
613.09	6726.9	
613.28	9305.3	
613.47	5759.6	
613.66	6739.9	
613.85	7832.8	
614.04	7325.6	
614.24	5840.1	
614.43	5031.2	
614.62	7999.4	
614.81	7927	
615	6452.5	
615.19	6475.7	
615.38	7281.2	
615.57	7576.8	
615.76	6232	
615.95	7216.4	
616.14	7930.4	
616.33	7608.9	
616.52	6561	
616.71	6797.2	
616.9	7909.9	
617.09	7741.3	
617.28	5866.7	
617.47	7256	
617.66	6997.9	
617.85	7058	
618.04	6866.8	
618.22	6322.8	
618.41	7340.6	
618.6	8303.8	
618.79	6175.3	
618.98	5785.5	
619.17	8566.7	
619.36	6830	
619.55	5999.9	
619.74	6049	
619.93	7845.1	
620.12	7249.1	
620.31	6643.6	
620.5	6745.3	
620.69	8751	
620.88	8819.2	
621.07	7468.9	
621.26	6384.2	
621.45	7970	
621.64	7954.3	
621.83	6556.2	
622.02	5711.1	
622.21	7981.6	
622.4	7738.6	
622.59	7076.4	
622.78	6935.8	
622.97	7277.8	
623.16	8349.6	
623.35	6490	
623.54	5619.6	
623.72	7473	
623.91	7752.2	
624.1	6681.8	
624.29	5392.3	
624.48	8814.5	
624.67	8011.7	
624.86	6683.2	
625.05	5661.3	
625.24	8798.1	
625.43	7187.7	
625.62	8411.7	
625.81	5822.4	
626	8344.8	
626.19	7541.3	
626.38	6728.9	
626.56	6082.5	
626.75	7356.3	
626.94	8173.4	
627.13	6592.4	
627.32	5350	
627.51	8004.8	
627.7	9392.7	
627.89	5563	
628.08	6697.5	
628.27	7215.7	
628.46	7410.2	
628.65	5809.4	
628.83	5432.6	
629.02	8090.8	
629.21	7276.4	
629.4	6223.8	
629.59	6427.2	
629.78	7218.4	
629.97	8243.1	
630.16	6450.4	
630.35	5954.8	
630.54	8621.9	
630.72	8344.1	
630.91	5889.3	
631.1	6497.5	
631.29	7832.1	
631.48	7974.1	
631.67	6550.8	
631.86	6037.4	
632.05	7464.8	
632.24	7412.3	
632.42	5714.5	
632.61	6296.1	
632.8	7598.6	
632.99	7211.6	
633.18	6300.2	
633.37	6763.8	
633.56	7864.2	
633.75	7625.3	
633.93	6183.5	
634.12	5930.2	
634.31	8699.1	
634.5	8249.2	
634.69	6029.2	
634.88	6513.9	
635.07	7546.1	
635.25	8191.2	
635.44	7000	
635.63	7097.6	
635.82	7394.5	
636.01	6879.1	
636.2	6890	
636.39	6380.8	
636.57	8676.6	
636.76	8245.8	
636.95	5759.6	
637.14	7359.7	
637.33	7819.1	
637.52	8868.4	
637.7	5564.3	
637.89	6560.3	
638.08	7423.9	
638.27	8984.4	
638.46	6684.6	
638.65	7090.8	
638.83	8944.2	
639.02	7248.4	
639.21	6614.3	
639.4	7086.7	
639.59	7794.6	
639.78	7328.3	
639.96	5861.3	
640.15	5874.3	
640.34	7658	
640.53	7809.6	
640.72	5562.3	
640.91	5944.6	
641.09	6980.2	
641.28	8568	
641.47	5925.5	
641.66	6784.9	
641.85	7712.7	
642.03	7998	
642.22	6541.9	
642.41	5978	
642.6	7234.8	
642.79	6540.5	
642.97	5791.7	
643.16	6550.1	
643.35	7126.2	
643.54	6938.5	
643.73	5696.1	
643.91	6580.1	
644.1	6791.7	
644.29	7553.6	
644.48	5711.8	
644.67	5862	
644.85	7040.9	
645.04	7437.5	
645.23	5407.3	
645.42	5634	
645.6	6881.9	
645.79	8138.6	
645.98	5730.2	
646.17	4711.7	
646.36	6690.7	
646.54	7364.5	
646.73	6681.2	
646.92	5364.3	
647.11	7010.2	
647.29	8144.1	
647.48	5473.5	
647.67	5246.9	
647.86	8292.9	
648.05	8373.5	
648.23	5782.8	
648.42	7185.6	
648.61	7706.5	
648.8	7464.2	
648.98	5447.6	
649.17	5801.2	
649.36	6982.9	
649.55	6391.7	
649.73	5491.3	
649.92	6271.6	
650.11	6888.7	
650.3	7204.1	
650.48	5629.2	
650.67	5343.8	
650.86	7478.5	
651.05	6322.1	
651.23	5567.1	
651.42	5515.2	
651.61	7023.2	
651.79	7134.4	
651.98	5790.3	
652.17	5401.9	
652.36	7408.2	
652.54	6427.9	
652.73	5378	
652.92	5211.4	
653.11	7491.5	
653.29	7541.3	
653.48	4634.6	
653.67	5737.7	
653.85	7167.2	
654.04	8322.3	
654.23	5942.5	
654.42	5425.8	
654.6	6637.5	
654.79	7368.6	
654.98	4920.6	
655.16	5507.7	
655.35	6358.9	
655.54	6338.5	
655.73	5130.2	
655.91	4956.8	
656.1	7575.4	
656.29	6292.7	
656.47	4602.5	
656.66	6362.4	
656.85	6593.8	
657.03	6569.9	
657.22	5129.5	
657.41	5205.3	
657.59	6628.6	
657.78	6376	
657.97	4758.8	
658.16	5535	
658.34	7319.4	
658.53	7722.9	
658.72	6469.5	
658.9	7105.8	
659.09	6719.4	
659.28	6845	
659.46	5294	
659.65	5131.5	
659.84	6468.2	
660.02	7010.9	
660.21	5055.8	
660.4	5050.3	
660.58	7511.9	
660.77	6810.9	
660.96	5724.8	
661.14	4618.9	
661.33	7991.2	
661.52	7919.5	
661.7	4575.2	
661.89	8556.4	
662.08	6397.2	
662.26	6001.9	
662.45	4896	
662.64	4968.4	
662.82	7107.8	
663.01	6331.6	
663.2	5120.6	
663.38	5833.3	
663.57	7088	
663.75	6942.6	
663.94	5457.2	
664.13	6812.2	
664.31	6311.2	
664.5	7101.7	
664.69	5785.5	
664.87	6212.2	
665.06	6176	
665.25	6867.5	
665.43	6479.8	
665.62	6593.8	
665.8	7279.2	
665.99	6569.9	
666.18	5336.3	
666.36	5490.6	
666.55	7131.7	
666.74	7081.9	
666.92	5034.6	
667.11	6714.6	
667.29	6484.6	
667.48	7116	
667.67	6264.7	
667.85	5440.8	
668.04	6627.9	
668.22	6552.8	
668.41	5432.6	
668.6	5668.8	
668.78	6350.8	
668.97	6644.3	
669.15	5839.4	
669.34	4730.1	
669.53	6389.7	
669.71	6712.6	
669.9	4932.9	
670.08	5618.3	
670.27	6326.9	
670.46	6959	
670.64	5855.8	
670.83	6180.1	
671.01	6228.6	
671.2	6944	
671.38	4956.8	
671.57	4845.5	
671.76	7576.1	
671.94	8160.5	
672.13	4892.6	
672.31	5982.8	
672.5	7036.1	
672.69	6360.3	
672.87	5000.5	
673.06	5279.7	
673.24	6937.8	
673.43	6380.1	
673.61	5812.1	
673.8	5408.7	
673.98	7150.1	
674.17	7324.9	
674.36	5917.9	
674.54	5805.3	
674.73	6858	
674.91	7151.5	
675.1	5467.4	
675.28	5044.1	
675.47	6683.9	
675.65	7217	
675.84	5322.7	
676.03	5671.5	
676.21	6367.8	
676.4	5906.3	
676.58	6192.4	
676.77	5918.6	
676.95	7869.7	
677.14	6371.9	
677.32	4982.7	
677.51	4801.1	
677.69	7193.8	
677.88	5965.7	
678.06	4868	
678.25	4905.6	
678.44	6619	
678.62	6302.3	
678.81	4643.4	
678.99	5670.1	
679.18	7483.3	
679.36	7062.8	
679.55	5206.6	
679.73	5902.2	
679.92	7066.2	
680.1	6402.6	
680.29	6531.7	
680.47	5265.3	
680.66	6299.6	
680.84	7187.7	
681.03	4500.8	
681.21	5718.6	
681.4	6446.3	
681.58	6242.9	
681.77	5035.3	
681.95	4893.3	
682.14	7206.8	
682.32	7577.5	
682.51	6019	
682.69	4763.6	
682.88	6281.8	
683.06	6957.6	
683.25	5644.9	
683.43	6126.2	
683.62	6564.4	
683.8	7068.2	
683.99	6219	
684.17	5479	
684.36	7954.3	
684.54	6483.2	
684.73	4604.5	
684.91	4885.8	
685.1	6874.3	
685.28	6282.5	
685.46	5573.2	
685.65	5638.1	
685.83	7224.6	
686.02	6541.9	
686.2	5124.7	
686.39	5147.2	
686.57	6227.9	
686.76	7879.2	
686.94	4988.2	
687.13	5177.9	
687.31	7039.6	
687.5	6464.1	
687.68	4586.1	
687.86	5987.6	
688.05	8175.5	
688.23	6057.2	
688.42	5958.9	
688.6	5068.7	
688.79	6463.4	
688.97	6402	
689.16	5421.7	
689.34	4346.5	
689.52	7167.2	
689.71	7387.7	
689.89	5788.2	
690.08	4983.4	
690.26	6616.3	
690.45	6513.2	
690.63	6019.7	
690.81	5122.7	
691	6391	
691.18	6301.6	
691.37	5324	
691.55	7762.5	
691.74	6319.3	
691.92	8478.6	
692.1	5378.6	
692.29	4781.3	
692.47	6568.5	
692.66	5806.7	
692.84	4969.7	
693.02	5675.6	
693.21	5866.1	
693.39	6438.8	
693.58	5672.2	
693.76	5096.7	
693.94	7709.2	
694.13	7477.8	
694.31	4984.1	
694.5	6152.1	
694.68	6229.9	
694.86	6571.2	
695.05	5312.4	
695.23	5426.4	
695.42	6953.5	
695.6	9379	
695.78	5946.6	
695.97	5059.2	
696.15	6936.5	
696.34	6323.4	
696.52	4719.9	
696.7	5688.6	
696.89	6685.9	
697.07	6120.7	
697.25	5549.3	
697.44	7260.7	
697.62	6645.7	
697.81	7061.4	
697.99	5285.8	
698.17	5837.4	
698.36	6039.5	
698.54	6717.3	
698.72	5603.2	
698.91	4532.2	
699.09	6273.6	
699.28	6204	
699.46	5259.9	
699.64	5208	
699.83	6042.9	
700.01	7551.5	
700.19	5997.8	
700.38	4309.6	
700.56	7423.9	
700.74	6184.9	
700.93	4726	
701.11	5585.5	
701.29	6765.8	
701.48	7886.7	
701.66	4981.3	
701.84	4971.8	
702.03	6342.6	
702.21	7007.5	
702.39	4519.2	
702.58	5117.9	
702.76	6638.1	
702.94	6869.6	
703.13	4544.4	
703.31	7095.5	
703.49	5892	
703.68	7311.2	
703.86	4743.1	
704.04	5791	
704.23	6573.3	
704.41	6933.1	
704.59	4818.9	
704.78	6276.3	
704.96	7675.8	
705.14	6975.4	
705.33	4584.7	
705.51	5464	
705.69	6325.5	
705.87	7204.8	
706.06	5867.4	
706.24	4560.8	
706.42	6614.9	
706.61	6969.2	
706.79	5795.8	
706.97	4607.9	
707.16	6098.2	
707.34	6688.7	
707.52	5780.7	
707.7	4827.7	
707.89	6217.6	
708.07	5932.3	
708.25	5836	
708.44	5892	
708.62	6143.9	
708.8	7378.8	
708.98	6123.4	
709.17	4894.6	
709.35	6614.3	
709.53	6652.5	
709.72	4604.5	
709.9	4858.5	
710.08	6792.4	
710.26	6806.1	
710.45	6378.7	
710.63	5147.2	
710.81	6550.8	
710.99	6537.1	
711.18	5609.4	
711.36	5188.2	
711.54	6387.6	
711.72	7074.4	
711.91	5220.3	
712.09	4618.9	
712.27	6537.8	
712.45	7323.5	
712.64	5534.3	
712.82	4437.3	
713	6062.7	
713.18	6204	
713.37	4579.3	
713.55	6141.2	
713.73	7202	
713.91	5651.7	
714.1	5164.3	
714.28	4579.9	
714.46	6886	
714.64	6123.4	
714.83	4046.8	
715.01	4994.3	
715.19	6217	
715.37	5602.6	
715.55	4671.4	
715.74	5026.4	
715.92	7280.5	
716.1	5114.5	
716.28	6277	
716.47	5227.8	
716.65	5808	
716.83	6055.8	
717.01	5104.9	
717.19	5190.2	
717.38	8215.1	
717.56	5651	
717.74	5393.7	
717.92	4426.3	
718.1	6883.9	
718.29	6114.6	
718.47	3946.4	
718.65	4657.1	
718.83	6705.7	
719.01	6704.4	
719.2	3789.4	
719.38	4935.6	
719.56	6307.1	
719.74	7965.9	
719.92	4463.2	
720.11	5595.1	
720.29	6331	
720.47	5393	
720.65	4033.8	
720.83	5035.3	
721.02	5866.1	
721.2	5593.7	
721.38	5203.2	
721.56	4332.1	
721.74	5167	
721.92	5404.6	
722.11	5734.3	
722.29	5328.8	
722.47	6730.3	
722.65	5814.2	
722.83	4398.4	
723.01	5367	
723.2	5932.3	
723.38	6240.8	
723.56	3710.9	
723.74	5079	
723.92	5355.4	
724.1	6644.3	
724.29	4288.4	
724.47	5492.7	
724.65	5478.3	
724.83	5358.9	
725.01	4174.4	
725.19	5188.9	
725.37	5468.1	
725.56	5560.2	
725.74	4050.2	
725.92	4307.6	
726.1	5363.6	
726.28	5740.5	
726.46	4763.6	
726.64	4466.6	
726.83	5700.2	
727.01	5924.8	
727.19	3993.5	
727.37	4926.7	
727.55	5794.4	
727.73	6333.7	
727.91	3997	
728.09	3804.4	
728.28	6380.1	
728.46	7019.1	
728.64	5041.4	
728.82	4932.2	
729	7516	
729.18	6679.1	
729.36	4112.3	
729.54	6574.7	
729.72	7709.9	
729.91	5900.9	
730.09	6085.2	
730.27	4756.7	
730.45	5762.3	
730.63	6482.5	
730.81	5424.4	
730.99	4405.2	
731.17	7000.6	
731.35	5434.6	
731.53	4939	
731.71	4501.4	
731.9	6696.2	
732.08	6945.3	
732.26	4774.5	
732.44	4414.1	
732.62	6919.4	
732.8	6371.2	
732.98	5204.6	
733.16	4184	
733.34	6384.2	
733.52	5111.7	
733.7	4788.8	
733.88	5087.8	
734.07	6235.4	
734.25	5915.2	
734.43	4177.2	
734.61	5907	
734.79	7566.6	
734.97	5851	
735.15	4332.8	
735.33	4752	
735.51	6244.9	
735.69	5818.3	
735.87	5941.2	
736.05	4980	
736.23	6085.2	
736.41	5849	
736.59	4825.7	
736.77	4913.8	
736.95	6563.7	
737.13	5913.2	
737.32	4442	
737.5	4633.2	
737.68	7096.9	
737.86	5793.7	
738.04	4112.3	
738.22	6214.2	
738.4	5594.4	
738.58	5966.4	
738.76	4878.3	
738.94	3775.1	
739.12	5722	
739.3	5643.5	
739.48	5601.9	
739.66	5302.9	
739.84	6040.8	
740.02	6105	
740.2	3897.3	
740.38	4231.1	
740.56	6462	
740.74	5289.2	
740.92	4995	
741.1	4925.4	
741.28	5864.7	
741.46	5718.6	
741.64	4485.1	
741.82	5081.7	
742	5898.8	
742.18	5869.5	
742.36	4729.4	
742.54	4303.5	
742.72	6483.9	
742.9	5139.7	
743.08	5119.9	
743.26	3885	
743.44	6703.7	
743.62	6581.5	
743.8	5293.3	
743.98	4341.7	
744.16	6316.6	
744.34	5999.2	
744.52	5289.9	
744.7	5205.3	
744.88	6494.1	
745.06	5929.6	
745.24	5369.1	
745.42	5435.3	
745.6	6508.4	
745.78	6303	
745.96	4033.1	
746.14	4457.7	
746.32	7342	
746.5	6555.5	
746.68	4994.3	
746.86	4496.7	
747.03	7078.5	
747.21	5238.7	
747.39	5000.5	
747.57	4535.6	
747.75	6185.5	
747.93	6496.8	
748.11	4430.4	
748.29	4369.7	
748.47	7794.6	
748.65	5804.6	
748.83	5239.4	
749.01	4944.5	
749.19	6350.8	
749.37	5511.1	
749.55	4788.2	
749.73	4893.3	
749.91	6045.6	
750.09	5758.9	
750.26	4970.4	
750.44	4320.5	
750.62	6088.6	
750.8	6069.5	
750.98	4145.1	
751.16	4511.7	
751.34	6131.6	
751.52	5405.3	
751.7	5429.2	
751.88	4106.9	
752.06	6653.2	
752.24	6395.8	
752.42	4075.5	
752.59	4483.7	
752.77	6027.9	
752.95	7390.4	
753.13	5334.3	
753.31	4625.7	
753.49	5718.6	
753.67	6155.5	
753.85	4973.8	
754.03	4509.6	
754.21	6468.9	
754.38	6898.2	
754.56	4828.4	
754.74	3726.6	
754.92	5736.4	
755.1	6543.9	
755.28	3829.7	
755.46	3919.1	
755.64	7388.4	
755.82	7608.9	
755.99	4248.9	
756.17	4389.5	
756.35	4972.5	
756.53	6587	
756.71	3243.3	
756.89	4266.6	
757.07	6221	
757.25	5175.2	
757.42	4783.4	
757.6	5698.8	
757.78	6259.3	
757.96	5143.8	
758.14	4472.8	
758.32	3928.7	
758.5	4689.2	
758.67	5567.7	
758.85	4305.5	
759.03	4429.8	
759.21	5793.7	
759.39	5156.1	
759.57	3861.1	
759.75	5079	
759.92	6455.2	
760.1	5618.3	
760.28	5464.7	
760.46	5651.7	
760.64	5408.7	
760.82	5111.7	
760.99	5192.3	
761.17	4371.7	
761.35	6250.4	
761.53	5114.5	
761.71	4412	
761.89	5219.6	
762.06	6096.1	
762.24	5565.7	
762.42	4529.4	
762.6	4273.4	
762.78	5558.9	
762.96	6268.8	
763.13	4939.7	
763.31	4577.2	
763.49	6526.9	
763.67	5502.9	
763.85	5529.5	
764.02	6130.9	
764.2	6741.2	
764.38	5836	
764.56	4484.4	
764.74	5354.1	
764.91	6928.3	
765.09	5698.1	
765.27	4071.4	
765.45	3938.2	
765.63	6899.6	
765.8	6775.4	
765.98	3579.2	
766.16	3967.6	
766.34	5210	
766.52	5009.3	
766.69	4978.6	
766.87	3867.2	
767.05	5674.9	
767.23	6441.5	
767.41	4227	
767.58	4482.3	
767.76	6367.1	
767.94	6400.6	
768.12	4293.2	
768.29	5081.7	
768.47	5814.2	
768.65	6525.5	
768.83	3895.9	
769	5228.5	
769.18	5285.1	
769.36	6094.8	
769.54	5129.5	
769.72	3930.7	
769.89	6381.5	
770.07	6507.1	
770.25	4293.2	
770.43	5667.4	
770.6	7168.6	
770.78	7700.4	
770.96	4488.5	
771.14	5229.1	
771.31	6300.9	
771.49	5586.9	
771.67	3613.3	
771.85	3956	
772.02	4777.9	
772.2	5613.5	
772.38	4657.1	
772.55	4158.7	
772.73	5899.5	
772.91	5625.1	
773.09	4572.4	
773.26	4702.8	
773.44	5847	
773.62	5552.7	
773.8	3992.2	
773.97	3764.2	
774.15	5979.4	
774.33	5555.5	
774.5	3971.7	
774.68	4380.6	
774.86	6173.3	
775.04	5597.8	
775.21	4021.5	
775.39	4050.2	
775.57	5862	
775.74	6358.3	
775.92	3934.1	
776.1	3801	
776.27	5886.5	
776.45	7188.4	
776.63	4039.3	
776.81	3538.2	
776.98	5481.7	
777.16	6726.9	
777.34	4216.8	
777.51	4189.5	
777.69	5484.5	
777.87	5242.8	
778.04	4227.7	
778.22	4936.3	
778.4	5229.8	
778.57	5969.8	
778.75	3501.3	
778.93	3796.9	
779.1	5048.2	
779.28	4954	
779.46	3477.5	
779.64	4046.1	
779.81	6200.6	
779.99	7125.6	
780.17	4837.3	
780.34	5079	
780.52	5584.1	
780.69	5829.2	
780.87	4339	
781.05	3985.3	
781.22	5691.3	
781.4	5696.8	
781.58	4083.6	
781.75	3232.4	
781.93	5694.7	
782.11	5061.9	
782.28	5152.7	
782.46	4054.3	
782.64	4879.6	
782.81	5958.2	
782.99	4146.5	
783.17	4147.8	
783.34	5776	
783.52	4897.4	
783.69	4411.3	
783.87	5296.7	
784.05	5140.4	
784.22	5111.7	
784.4	5249.6	
784.58	4505.5	
784.75	6090.7	
784.93	5090.6	
785.1	4189.5	
785.28	4804.5	
785.46	5782.1	
785.63	5096.7	
785.81	4100	
785.99	3903.4	
786.16	5248.9	
786.34	5641.5	
786.51	3978.5	
786.69	4346.5	
786.87	4825	
787.04	5405.3	
787.22	3793.5	
787.39	4863.2	
787.57	5021.6	
787.75	6326.9	
787.92	5005.2	
788.1	4944.5	
788.27	5136.3	
788.45	4898.7	
788.63	4692.6	
788.8	3289	
788.98	5664.7	
789.15	4784.7	
789.33	3475.4	
789.5	4223.6	
789.68	6138.4	
789.86	6191	
790.03	4599.1	
790.21	3993.5	
790.38	6101.6	
790.56	5214.1	
790.73	3812.6	
790.91	3969	
791.09	5108.3	
791.26	5926.1	
791.44	4138.9	
791.61	3532.1	
791.79	5054.4	
791.96	5190.2	
792.14	3665.9	
792.32	3228.3	
792.49	5053	
792.67	5228.5	
792.84	3801.7	
793.02	3517.7	
793.19	5559.6	
793.37	6438.8	
793.54	3168.9	
793.72	3607.8	
793.89	6518.7	
794.07	5128.8	
794.25	4303.5	
794.42	3309.5	
794.6	6242.2	
794.77	5809.4	
794.95	4582.7	
795.12	4024.9	
795.3	5068.7	
795.47	5793	
795.65	4354	
795.82	4271.4	
796	4881	
796.17	7030.7	
796.35	4010.6	
796.52	4756.7	
796.7	5711.8	
796.87	5818.3	
797.05	5036.6	
797.22	4967.7	
797.4	5722.7	
797.57	6866.2	
797.75	4206.5	
797.92	3982.6	
798.1	6115.2	
798.27	5156.8	
798.45	3348.4	
798.62	3618.8	
798.8	5461.2	
798.97	5943.2	
799.15	4445.5	
799.32	4190.1	
799.5	4674.8	
799.67	5519.3	
799.85	4601.1	
800.02	3340.2	
800.2	5098.8	
800.37	5420.3	
800.55	4781.3	
800.72	3943	
800.9	5930.2	
801.07	6442.2	
801.25	5412.1	
801.42	4358.8	
801.6	6016.9	
801.77	5679	
801.95	4065.2	
802.12	3872.7	
802.29	5568.4	
802.47	5668.8	
802.64	4315.1	
802.82	3230.3	
802.99	5069.4	
803.17	6122.1	
803.34	4214	
803.52	3817.4	
803.69	6827.2	
803.87	4902.2	
804.04	4128.7	
804.21	4306.2	
804.39	6278.4	
804.56	5357.5	
804.74	3523.9	
804.91	4412	
805.09	5081.7	
805.26	5242.8	
805.44	3616.7	
805.61	3986.7	
805.78	5790.3	
805.96	5896.8	
806.13	4340.3	
806.31	4743.1	
806.48	4646.8	
806.66	5207.3	
806.83	4302.8	
807	4322.6	
807.18	5137	
807.35	5531.6	
807.53	4201.7	
807.7	3328.6	
807.87	6400.6	
808.05	5173.9	
808.22	4689.2	
808.4	3308.8	
808.57	5171.1	
808.74	4784.1	
808.92	3828.3	
809.09	4965.6	
809.27	5001.1	
809.44	5706.3	
809.61	3386.7	
809.79	3818.8	
809.96	6335.7	
810.14	5956.2	
810.31	3291.1	
810.48	4128.7	
810.66	5261.2	
810.83	6098.2	
811.01	3876.8	
811.18	4307.6	
811.35	5954.8	
811.53	4599.1	
811.7	4719.9	
811.87	4400.4	
812.05	5160.9	
812.22	5095.3	
812.39	3732.8	
812.57	3613.3	
812.74	5183.4	
812.92	6974.7	
813.09	4042	
813.26	4468	
813.44	6636.1	
813.61	5135.6	
813.78	3347.1	
813.96	4606.6	
814.13	5170.4	
814.3	4847.5	
814.48	5025.7	
814.65	4126.7	
814.82	6489.3	
815	4971.8	
815.17	4196.3	
815.34	5210	
815.52	5100.1	
815.69	5082.4	
815.87	4181.3	
816.04	3531.4	
816.21	5188.9	
816.38	4555.4	
816.56	4086.4	
816.73	3792.8	
816.9	6591	
817.08	6004.6	
817.25	3745.1	
817.42	4834.6	
817.6	4748.6	
817.77	5162.2	
817.94	4317.8	
818.12	3709.6	
818.29	4861.9	
818.46	7838.9	
818.64	3878.2	
818.81	3631	
818.98	4808.6	
819.16	7070.3	
819.33	4528.1	
819.5	4170.3	
819.67	5560.2	
819.85	6294.8	
820.02	4154.6	
820.19	4322.6	
820.37	5450.3	
820.54	4953.4	
820.71	4279.6	
820.88	5319.9	
821.06	5367.7	
821.23	4967.7	
821.4	4301.4	
821.58	4227	
821.75	5922	
821.92	5319.3	
822.09	3397.6	
822.27	3652.2	
822.44	5145.9	
822.61	5053.7	
822.79	3444	
822.96	6685.3	
823.13	5737.7	
823.3	4875.5	
823.48	4063.9	
823.65	3583.3	
823.82	5956.9	
823.99	4707.6	
824.17	5084.4	
824.34	3661.8	
824.51	6898.2	
824.68	5232.6	
824.86	3819.5	
825.03	4272.7	
825.2	5218.2	
825.37	6339.1	
825.55	3689.8	
825.72	4222.2	
825.89	6903	
826.06	6386.9	
826.24	4147.1	
826.41	4183.3	
826.58	6278.4	
826.75	5499.5	
826.92	3203	
827.1	3568.2	
827.27	8761.2	
827.44	6894.1	
827.61	3875.4	
827.79	4739	
827.96	4868	
828.13	5276.9	
828.3	4030.4	
828.47	3351.8	
828.65	5422.3	
828.82	5354.1	
828.99	5311.7	
829.16	4614.1	
829.34	5816.9	
829.51	5573.2	
829.68	4203.1	
829.85	4392.9	
830.02	6137.1	
830.2	5840.1	
830.37	3210.5	
830.54	5089.9	
830.71	6653.2	
830.88	5160.9	
831.05	3252.9	
831.23	3837.2	
831.4	6359.6	
831.57	7195.2	
831.74	3870.7	
831.91	3418.1	
832.09	5422.3	
832.26	5851.7	
832.43	4097.3	
832.6	4613.4	
832.77	5389.6	
832.94	6217	
833.12	3179.1	
833.29	3937.6	
833.46	4994.3	
833.63	7462.8	
833.8	4436.6	
833.97	4128	
834.15	5811.5	
834.32	5591	
834.49	4222.2	
834.66	4372.4	
834.83	6097.5	
835	4880.3	
835.17	3921.2	
835.35	3956.7	
835.52	5722	
835.69	5607.3	
835.86	4037.9	
836.03	3437.2	
836.2	5805.3	
836.37	5328.1	
836.55	4068.6	
836.72	3746.4	
836.89	5326.1	
837.06	5922.7	
837.23	4132.8	
837.4	4527.4	
837.57	6591.7	
837.75	7483.3	
837.92	3745.1	
838.09	3960.8	
838.26	5352	
838.43	6117.3	
838.6	4304.8	
838.77	3801	
838.94	7051.2	
839.11	6720.1	
839.29	4016.7	
839.46	3164.8	
839.63	5761.6	
839.8	5511.1	
839.97	3944.4	
840.14	3928	
840.31	5584.8	
840.48	5796.4	
840.65	3234.4	
840.82	3806.5	
841	5795.1	
841.17	5738.4	
841.34	3593.5	
841.51	3704.1	
841.68	5677	
841.85	5442.8	
842.02	3804.4	
842.19	3096.5	
842.36	5486.5	
842.53	5562.3	
842.7	3611.9	
842.87	4476.2	
843.05	7317.4	
843.22	5502.2	
843.39	3419.4	
843.56	3697.3	
843.73	5251	
843.9	5834.7	
844.07	5826.5	
844.24	4958.1	
844.41	8654.7	
844.58	4993.6	
844.75	3514.3	
844.92	3780.6	
845.09	5769.1	
845.26	5769.1	
845.43	3597.6	
845.6	3788.7	
845.77	5797.1	
845.94	5470.8	
846.12	3992.2	
846.29	4230.4	
846.46	5981.4	
846.63	5823.7	
846.8	3667.9	
846.97	4298.7	
847.14	6245.6	
847.31	5757.5	
847.48	4105.5	
847.65	4543.8	
847.82	6105	
847.99	6047	
848.16	4842.1	
848.33	4496	
848.5	5297.4	
848.67	6292.7	
848.84	3581.9	
849.01	3752.6	
849.18	5222.3	
849.35	4853	
849.52	4486.4	
849.69	3528.7	
849.86	5978.7	
850.03	6240.2	
850.2	3623.5	
850.37	4486.4	
850.54	6189	
850.71	5466	
850.88	4360.1	
851.05	3509.5	
851.22	5708.4	
851.39	6453.1	
851.56	3368.9	
851.73	4110.3	
851.9	5079	
852.07	6001.2	
852.24	4020.8	
852.41	3501.3	
852.58	5638.1	
852.75	5124.7	
852.92	4033.8	
853.09	3502	
853.26	5351.3	
853.43	6239.5	
853.6	3599	
853.77	3041.9	
853.94	6403.3	
854.11	5738.4	
854.28	5399.1	
854.44	3869.3	
854.61	6843.6	
854.78	6117.3	
854.95	3522.5	
855.12	4567.7	
855.29	4596.3	
855.46	6562.4	
855.63	3582.6	
855.8	4973.8	
855.97	5367.7	
856.14	6147.3	
856.31	5132.2	
856.48	3917.8	
856.65	5354.1	
856.82	5062.6	
856.99	3443.3	
857.16	3876.8	
857.33	7141.9	
857.49	5418.2	
857.66	3842	
857.83	4238.6	
858	5425.8	
858.17	5616.9	
858.34	3346.4	
858.51	3577.8	
858.68	6587.6	
858.85	6546.7	
859.02	4223.6	
859.19	4463.9	
859.36	5022.3	
859.52	5098.8	
859.69	3622.2	
859.86	4235.9	
860.03	5142.4	
860.2	6417.7	
860.37	3235.8	
860.54	3694.5	
860.71	6018.3	
860.88	6429.9	
861.05	4081.6	
861.21	4549.2	
861.38	6528.9	
861.55	4900.8	
861.72	3268.6	
861.89	4020.2	
862.06	6120	
862.23	6670.9	
862.4	3474	
862.56	3756	
862.73	5884.5	
862.9	5574.6	
863.07	4261.8	
863.24	3203.7	
863.41	4941.1	
863.58	5092.6	
863.75	3700.7	
863.91	4138.3	
864.08	6432	
864.25	5924.8	
864.42	4610	
864.59	5040.7	
864.76	6777.4	
864.93	5082.4	
865.09	3520.5	
865.26	3777.8	
865.43	6318	
865.6	6769.2	
865.77	3095.8	
865.94	3529.3	
866.1	6417.7	
866.27	6120.7	
866.44	5547.9	
866.61	3403.7	
866.78	5500.8	
866.95	5939.8	
867.11	3437.2	
867.28	3157.3	
867.45	6133.7	
867.62	5134.3	
867.79	4194.2	
867.96	3574.4	
868.12	5038	
868.29	6047	
868.46	3560.7	
868.63	4848.9	
868.8	6204	
868.97	6004	
869.13	3732.8	
869.3	3770.3	
869.47	5943.2	
869.64	6163.7	
869.81	3600.3	
869.97	3704.8	
870.14	5779.4	
870.31	6483.2	
870.48	3491.1	
870.65	4530.1	
870.81	5424.4	
870.98	5365.7	
871.15	4070	
871.32	3777.1	
871.48	5885.9	
871.65	6492.7	
871.82	3521.8	
871.99	3946.4	
872.16	6984.3	
872.32	6439.5	
872.49	3649.5	
872.66	3617.4	
872.83	6032	
872.99	5236	
873.16	4141	
873.33	3489.7	
873.5	5620.3	
873.67	5685.8	
873.83	3768.3	
874	4862.6	
874.17	5830.6	
874.34	6911.9	
874.5	4685.1	
874.67	4486.4	
874.84	6512.5	
875.01	5063.9	
875.17	5084.4	
875.34	3549.1	
875.51	5673.6	
875.68	6861.4	
875.84	4378.6	
876.01	5332.2	
876.18	5926.8	
876.34	5941.2	
876.51	3629	
876.68	3538.2	
876.85	5470.8	
877.01	6272.2	
877.18	5165	
877.35	3535.5	
877.52	5589.6	
877.68	4992.9	
877.85	3483.6	
878.02	3534.1	
878.18	5556.1	
878.35	5245.5	
878.52	2876.7	
878.69	4048.2	
878.85	6042.2	
879.02	6011.5	
879.19	5091.3	
879.35	3915	
879.52	6005.3	
879.69	6255.9	
879.86	3089.7	
880.02	4080.9	
880.19	5572.5	
880.36	6867.5	
880.52	4106.2	
880.69	4262.5	
880.86	6073.6	
881.02	6211.5	
881.19	3934.8	
881.36	3914.4	
881.52	5997.1	
881.69	5296.7	
881.86	3828.3	
882.02	3780.6	
882.19	6273.6	
882.36	7415	
882.52	3695.2	
882.69	5091.9	
882.86	5773.2	
883.02	5646.9	
883.19	4406.5	
883.36	4097.3	
883.52	6102.9	
883.69	7071	
883.86	3608.5	
884.02	3213.3	
884.19	6015.6	
884.36	5626.5	
884.52	4113.7	
884.69	3741	
884.86	5271.5	
885.02	6746	
885.19	4072.7	
885.36	4188.8	
885.52	5614.2	
885.69	5758.9	
885.86	5205.3	
886.02	4649.6	
886.19	6028.5	
886.35	5403.2	
886.52	3999.7	
886.69	5070.8	
886.85	5084.4	
887.02	6441.5	
887.19	6441.5	
887.35	6441.5	
887.52	6441.5	
887.68	6441.5	
887.85	6441.5	
888.02	6441.5	
888.18	6441.5	
888.35	6441.5	
888.51	6441.5	
888.68	6441.5	
888.85	6441.5	
889.01	6441.5	
889.18	6441.5	
889.35	6441.5	
889.51	6441.5	
889.68	6441.5	
889.84	6441.5	
890.01	6441.5	
890.17	6441.5	
890.34	6441.5	
890.51	6441.5	
890.67	6441.5	
890.84	6441.5	
891	6441.5	
891.17	6441.5	
891.34	6441.5	
891.5	6441.5	
891.67	6441.5	
891.83	6441.5	
892	6441.5	
892.16	6441.5	
892.33	6441.5	
892.5	6441.5	
892.66	6441.5	
892.83	6441.5	
892.99	6441.5	
893.16	6441.5	
893.32	6441.5	
893.49	6441.5	
893.65	6441.5	
893.82	6441.5	
893.99	6441.5	
894.15	6441.5	
894.32	6441.5	
894.48	6441.5	
894.65	6441.5	
894.81	6441.5	
894.98	6441.5	
895.14	6441.5	
895.31	6441.5	
895.47	6441.5	
895.64	6441.5	
895.81	6441.5	
895.97	6441.5	
896.14	6441.5	
896.3	6441.5	
896.47	6441.5	
896.63	6441.5	
896.8	6441.5	
896.96	6441.5	
897.13	6441.5	
897.29	6441.5	
897.46	6441.5	
897.62	6441.5	
897.79	6441.5	
897.95	6441.5	
898.12	6441.5	
898.28	6441.5	
898.45	6441.5	
898.61	6441.5	
898.78	6441.5	
898.94	6441.5	
899.11	6441.5	
899.27	6441.5	
899.44	6441.5	
899.6	6441.5	
899.77	6441.5	
899.93	6441.5	
900.1	6441.5	
900.26	6441.5	
900.43	6441.5	
900.59	6441.5	
900.76	6441.5	
900.92	6441.5	
901.09	6441.5	
901.25	6441.5	
901.42	6441.5	
901.58	6441.5	
901.75	6441.5	
901.91	6441.5	
902.07	6441.5	
902.24	6441.5	
902.4	6441.5	
902.57	6441.5	
902.73	6441.5	
902.9	6441.5	
903.06	6441.5	
903.23	6441.5	
903.39	6441.5	
903.56	6441.5	
903.72	6441.5	
903.88	6441.5	
904.05	6441.5	
904.21	6441.5	
904.38	6441.5	
904.54	6441.5	
904.71	6441.5	
904.87	6441.5	
905.03	6441.5	
905.2	6441.5	
905.36	6441.5	
905.53	6441.5	
905.69	6441.5	
905.86	6441.5	
906.02	6441.5	
906.18	6441.5	
906.35	6441.5	
906.51	6441.5	
906.68	6441.5	
906.84	6441.5	
907.01	6441.5	
907.17	6441.5	
907.33	6441.5	
907.5	6441.5	
907.66	6441.5	
907.83	6441.5	
907.99	6441.5	
908.15	6441.5	
908.32	6441.5	
908.48	6441.5	
908.65	6441.5	
908.81	6441.5	
908.97	6441.5	
909.14	6441.5	
909.3	6441.5	
909.47	6441.5	
909.63	6441.5	
909.79	6441.5	
909.96	6441.5	
910.12	6441.5	
910.28	6441.5	
910.45	6441.5	
910.61	6441.5	
910.78	6441.5	
910.94	6441.5	
911.1	6441.5	
911.27	6441.5	
911.43	6441.5	
911.59	6441.5	
911.76	6441.5	
911.92	6441.5	
912.08	6441.5	
912.25	6441.5	
912.41	6441.5	
912.57	6441.5	
912.74	6441.5	
912.9	6441.5	
913.07	6441.5	
913.23	6441.5	
913.39	6441.5	
913.56	6441.5	
913.72	6441.5	
913.88	6441.5	
914.05	6441.5	
914.21	6441.5	
914.37	6441.5	
914.54	6441.5	
914.7	6441.5	
914.86	6441.5	
915.03	6441.5	
915.19	6441.5	
