Wavelength	Intensities	
nm	a.u.	
179.22	1826.3	
179.44	1816.9	
179.65	1835.7	
179.86	1798.1	
180.08	1833.6	
180.29	4365.6	
180.51	3199.6	
180.72	5219.6	
180.94	5943.2	
181.15	2922.5	
181.37	2884.2	
181.58	5113.8	
181.79	5358.2	
182.01	3045.3	
182.22	3250.1	
182.44	5313.1	
182.65	4573.1	
182.87	4046.1	
183.08	3547.8	
183.29	5618.3	
183.51	4618.9	
183.72	3259	
183.94	4642.7	
184.15	5026.4	
184.37	4931.5	
184.58	2916.3	
184.79	3836.5	
185.01	4684.4	
185.22	5304.2	
185.44	4083.6	
185.65	3485.6	
185.86	4949.3	
186.08	4583.4	
186.29	2790.7	
186.51	3023.5	
186.72	4743.8	
186.94	5498.8	
187.15	3469.9	
187.36	3588	
187.58	6907.1	
187.79	5070.1	
188.01	3721.8	
188.22	5708.4	
188.43	6005.3	
188.65	5270.1	
188.86	3021.4	
189.08	3594.2	
189.29	4835.9	
189.5	4843.4	
189.72	3321.8	
189.93	3414	
190.15	5475.6	
190.36	6468.9	
190.57	3621.5	
190.79	3539.6	
191	5507	
191.22	5485.1	
191.43	3644.7	
191.64	3057.6	
191.86	5711.1	
192.07	5539.8	
192.29	3198.9	
192.5	3318.4	
192.71	5481.7	
192.93	4851	
193.14	3306.1	
193.35	3358	
193.57	4820.9	
193.78	5515.9	
194	2697.9	
194.21	3240.6	
194.42	4627	
194.64	5015.5	
194.85	3594.9	
195.07	4142.4	
195.28	4990.9	
195.49	4443.4	
195.71	4390.2	
195.92	3119.7	
196.13	5236.7	
196.35	5298.1	
196.56	4631.8	
196.78	3565.5	
196.99	6355.5	
197.2	5958.9	
197.42	3568.2	
197.63	3611.9	
197.84	4499.4	
198.06	5115.1	
198.27	3303.4	
198.48	4384	
198.7	4788.2	
198.91	4956.1	
199.13	3659.7	
199.34	3620.1	
199.55	5430.5	
199.77	4376.5	
199.98	3178.4	
200.19	3673.4	
200.41	4857.1	
200.62	4645.5	
200.83	3721.8	
201.05	4000.4	
201.26	4919.2	
201.47	4692.6	
201.69	3237.8	
201.9	3140.2	
202.11	5005.2	
202.33	5801.9	
202.54	3406.5	
202.76	3770.3	
202.97	5076.2	
203.18	5152	
203.4	3674.7	
203.61	3672.7	
203.82	5102.9	
204.04	4683	
204.25	3663.8	
204.46	3569.6	
204.68	5030.5	
204.89	5186.8	
205.1	3593.5	
205.32	3040.6	
205.53	5389.6	
205.74	5482.4	
205.96	2708.8	
206.17	3602.4	
206.38	5231.9	
206.6	5434.6	
206.81	4044.1	
207.02	3374.4	
207.24	5202.5	
207.45	5569.1	
207.66	3423.5	
207.88	2972.3	
208.09	5190.2	
208.3	5015.5	
208.52	3174.4	
208.73	3463.1	
208.94	5037.3	
209.15	5566.4	
209.37	3412.6	
209.58	3539.6	
209.79	5446.9	
210.01	4835.9	
210.22	2821.4	
210.43	2938.2	
210.65	4965	
210.86	5307.7	
211.07	3485	
211.29	3181.9	
211.5	5326.8	
211.71	4934.2	
211.93	3153.2	
212.14	3155.2	
212.35	5014.8	
212.56	5091.9	
212.78	3623.5	
212.99	3020.8	
213.2	5835.3	
213.42	4827.1	
213.63	3243.3	
213.84	3491.1	
214.06	4502.8	
214.27	4574.5	
214.48	3427.6	
214.69	3662.5	
214.91	5588.9	
215.12	5683.8	
215.33	3680.9	
215.55	4031.8	
215.76	6125.5	
215.97	5330.9	
216.18	3529.3	
216.4	3487	
216.61	4752.7	
216.82	5407.3	
217.04	3190.7	
217.25	3282.2	
217.46	5614.2	
217.67	5287.2	
217.89	2912.2	
218.1	3043.3	
218.31	5089.9	
218.53	5175.2	
218.74	3364.1	
218.95	3244	
219.16	4957.4	
219.38	5790.3	
219.59	3226.9	
219.8	3856.3	
220.01	6219.7	
220.23	5021.6	
220.44	4098	
220.65	3184.6	
220.87	5115.1	
221.08	5562.3	
221.29	2999.6	
221.5	3872.7	
221.72	6612.9	
221.93	4756.7	
222.14	3640.6	
222.35	4214.7	
222.57	5080.3	
222.78	5360.9	
222.99	3452.2	
223.2	3730.7	
223.42	5255.1	
223.63	5311.7	
223.84	2734	
224.05	2721.1	
224.27	6238.1	
224.48	5778.7	
224.69	4248.9	
224.9	3635.1	
225.12	5153.4	
225.33	4986.1	
225.54	2968.9	
225.75	3246	
225.97	4663.9	
226.18	4925.4	
226.39	3485	
226.6	3289.7	
226.82	4833.2	
227.03	4630.5	
227.24	3600.3	
227.45	3016	
227.67	5357.5	
227.88	5782.1	
228.09	4026.3	
228.3	4063.2	
228.52	5387.5	
228.73	4988.9	
228.94	3358	
229.15	3009.1	
229.36	5012.1	
229.58	4883.7	
229.79	3435.8	
230	3894.6	
230.21	5859.2	
230.43	5091.3	
230.64	3624.2	
230.85	3717.7	
231.06	5410.1	
231.28	5359.5	
231.49	3053.5	
231.7	3500.7	
231.91	5347.9	
232.12	5034.6	
232.34	3089	
232.55	3474.7	
232.76	5513.8	
232.97	5111	
233.18	3203	
233.4	3593.5	
233.61	5208	
233.82	4787.5	
234.03	3333.4	
234.25	3291.8	
234.46	6766.5	
234.67	5051.7	
234.88	3663.1	
235.09	3245.3	
235.31	5227.1	
235.52	4909.7	
235.73	3545	
235.94	3037.8	
236.15	4790.2	
236.37	6051.1	
236.58	3193.5	
236.79	3467.2	
237	5309.7	
237.21	4590.9	
237.43	3694.5	
237.64	2958.6	
237.85	8583	
238.06	4666	
238.27	3751.2	
238.48	3084.9	
238.7	5341.1	
238.91	4903.5	
239.12	3377.1	
239.33	3508.2	
239.54	4646.8	
239.76	4929.5	
239.97	3427.6	
240.18	3457	
240.39	6054.5	
240.6	5279	
240.82	3545.7	
241.03	3030.3	
241.24	4915.1	
241.45	5808.7	
241.66	3127.2	
241.87	3718.4	
242.09	5644.2	
242.3	5924.8	
242.51	3800.3	
242.72	3463.8	
242.93	5331.5	
243.14	4954.7	
243.36	3929.4	
243.57	4268.6	
243.78	5768.4	
243.99	5289.9	
244.2	3437.2	
244.41	3179.8	
244.63	4655.7	
244.84	5272.2	
245.05	3694.5	
245.26	3486.3	
245.47	5320.6	
245.68	5407.3	
245.9	4541	
246.11	3605.8	
246.32	4899.4	
246.53	5233.9	
246.74	5494.7	
246.95	2947	
247.16	4689.2	
247.38	4980	
247.59	2978.4	
247.8	3468.6	
248.01	4718.5	
248.22	4969.1	
248.43	3214.6	
248.64	3403.7	
248.86	4528.7	
249.07	4771.1	
249.28	3133.4	
249.49	3603.1	
249.7	5509.7	
249.91	5535	
250.12	2956.6	
250.34	2987.3	
250.55	5085.8	
250.76	5039.4	
250.97	3583.3	
251.18	3605.1	
251.39	5564.3	
251.6	5181.4	
251.81	3676.1	
252.03	3586.7	
252.24	4799.8	
252.45	5403.2	
252.66	3009.1	
252.87	3835.2	
253.08	4999.1	
253.29	6366.5	
253.5	3049.4	
253.72	4246.8	
253.93	4877.6	
254.14	5883.8	
254.35	3320.4	
254.56	3431.7	
254.77	5202.5	
254.98	4686.4	
255.19	3297.2	
255.41	4154	
255.62	5150	
255.83	5506.3	
256.04	3711.6	
256.25	3577.1	
256.46	6070.2	
256.67	4788.8	
256.88	3646.1	
257.09	3918.4	
257.31	4650.3	
257.52	4733.5	
257.73	4388.8	
257.94	3288.4	
258.15	4885.8	
258.36	5051.7	
258.57	4108.2	
258.78	2714.9	
258.99	5399.1	
259.2	4906.3	
259.41	3287.7	
259.63	3424.2	
259.84	5690.6	
260.05	6002.6	
260.26	4291.9	
260.47	3252.2	
260.68	5498.1	
260.89	4894	
261.1	3964.9	
261.31	3112.9	
261.52	5545.9	
261.73	5855.8	
261.95	4224.3	
262.16	3719.8	
262.37	5627.1	
262.58	5653.1	
262.79	4221.5	
263	3358.7	
263.21	5008.6	
263.42	4890.5	
263.63	3449.5	
263.84	3407.8	
264.05	5493.3	
264.26	5761.6	
264.47	4143	
264.69	3682.2	
264.9	5673.6	
265.11	5194.3	
265.32	3188.7	
265.53	3307.5	
265.74	5109	
265.95	4502.8	
266.16	3612.6	
266.37	3885	
266.58	5122	
266.79	4869.4	
267	3286.3	
267.21	3075.4	
267.42	4617.5	
267.63	5008.6	
267.84	3418.1	
268.06	3013.2	
268.27	5415.5	
268.48	5677	
268.69	3352.5	
268.9	3962.8	
269.11	5595.7	
269.32	4529.4	
269.53	3486.3	
269.74	3240.6	
269.95	5236	
270.16	4465.3	
270.37	3478.8	
270.58	3988.8	
270.79	4902.2	
271	5513.8	
271.21	3655.6	
271.42	3544.4	
271.63	5162.2	
271.84	4715.8	
272.05	2827.6	
272.26	3115	
272.47	5001.1	
272.68	5185.5	
272.89	3325.9	
273.11	3818.8	
273.32	4840	
273.53	5808.7	
273.74	3738.9	
273.95	3646.1	
274.16	5497.4	
274.37	5096.7	
274.58	3818.1	
274.79	3050.8	
275	5145.9	
275.21	5570.5	
275.42	4397	
275.63	3911.6	
275.84	5246.2	
276.05	6456.6	
276.26	3657	
276.47	3398.3	
276.68	4971.1	
276.89	5794.4	
277.1	3885.7	
277.31	3069.2	
277.52	5186.1	
277.73	5453.1	
277.94	3019.4	
278.15	3366.9	
278.36	5175.2	
278.57	4700.1	
278.78	3349.8	
278.99	3779.9	
279.2	4755.4	
279.41	4694.6	
279.62	4387.4	
279.83	3078.8	
280.04	6023.1	
280.25	4693.9	
280.46	4320.5	
280.67	3467.9	
280.88	4756.1	
281.09	5612.1	
281.3	3577.1	
281.51	4498	
281.72	4796.3	
281.93	5431.9	
282.14	3291.1	
282.35	3524.6	
282.56	5460.6	
282.77	5407.3	
282.98	3330.7	
283.19	4090.5	
283.4	6594.5	
283.61	4979.3	
283.82	3096.5	
284.03	4215.4	
284.24	5113.8	
284.45	5541.8	
284.66	4246.1	
284.87	4079.6	
285.08	5545.9	
285.29	5623	
285.5	2968.2	
285.71	3427.6	
285.92	5497.4	
286.12	6094.8	
286.33	4224.3	
286.54	3377.1	
286.75	5395.7	
286.96	4931.5	
287.17	3142.9	
287.38	4123.9	
287.59	4796.3	
287.8	4706.9	
288.01	3403.7	
288.22	3884.3	
288.43	5351.3	
288.64	4582	
288.85	4002.4	
289.06	3802.4	
289.27	5379.3	
289.48	5797.1	
289.69	4233.8	
289.9	3864.5	
290.11	5555.5	
290.32	4816.8	
290.53	4022.9	
290.74	3721.8	
290.94	5399.8	
291.15	5446.9	
291.36	3292.5	
291.57	3874.8	
291.78	4816.1	
291.99	4485.7	
292.2	3190.7	
292.41	3739.6	
292.62	5526.1	
292.83	5316.5	
293.04	4541	
293.25	3205.1	
293.46	4847.5	
293.67	5489.2	
293.88	3192.1	
294.09	3125.2	
294.29	4675.5	
294.5	5130.2	
294.71	3522.5	
294.92	3371	
295.13	4835.9	
295.34	6010.1	
295.55	2940.2	
295.76	2963.4	
295.97	5376.6	
296.18	6005.3	
296.39	3044	
296.6	3249.4	
296.81	5096	
297.01	5345.9	
297.22	3409.9	
297.43	3280.8	
297.64	4759.5	
297.85	4718.5	
298.06	2727.9	
298.27	2990.7	
298.48	5003.2	
298.69	4800.4	
298.9	3499.3	
299.11	3238.5	
299.31	4623.6	
299.52	4610	
299.73	3738.2	
299.94	3682.9	
300.15	4999.1	
300.36	4732.2	
300.57	3626.3	
300.78	3665.2	
300.99	4861.9	
301.2	5146.5	
301.4	3277.4	
301.61	3529.3	
301.82	5304.2	
302.03	5322.7	
302.24	3954.6	
302.45	3098.6	
302.66	5300.8	
302.87	5665.4	
303.08	3244	
303.29	4397.7	
303.49	4844.8	
303.7	5041.4	
303.91	2938.2	
304.12	4172.4	
304.33	4588.8	
304.54	5141.8	
304.75	3327.9	
304.96	3154.6	
305.16	5300.8	
305.37	5875.6	
305.58	2877.4	
305.79	3018.7	
306	5316.5	
306.21	4510.3	
306.42	3253.5	
306.63	4869.4	
306.83	4850.3	
307.04	5474.9	
307.25	3576.4	
307.46	3549.1	
307.67	4351.9	
307.88	5356.1	
308.09	3302.7	
308.29	3347.1	
308.5	5116.5	
308.71	5479.7	
308.92	3469.9	
309.13	3137.5	
309.34	4941.7	
309.55	4962.2	
309.75	4057.7	
309.96	3734.8	
310.17	5400.5	
310.38	4766.3	
310.59	3836.5	
310.8	3091.1	
311.01	4898.7	
311.21	4920.6	
311.42	3132.7	
311.63	3250.1	
311.84	4822.3	
312.05	5115.1	
312.26	3639.2	
312.46	3966.2	
312.67	4847.5	
312.88	4597	
313.09	3168.2	
313.3	3088.3	
313.51	5665.4	
313.71	6029.2	
313.92	3185.3	
314.13	3319.8	
314.34	5210.7	
314.55	4963.6	
314.76	4009.9	
314.96	3547.1	
315.17	5102.9	
315.38	5343.2	
315.59	3222.1	
315.8	3039.9	
316.01	5741.8	
316.21	5765.7	
316.42	3102.7	
316.63	3482.9	
316.84	4905.6	
317.05	5603.2	
317.26	3712.3	
317.46	3312.9	
317.67	4986.8	
317.88	5372.5	
318.09	3979.2	
318.3	2965.5	
318.5	4788.8	
318.71	5314.5	
318.92	5007.3	
319.13	3670	
319.34	5437.4	
319.54	5553.4	
319.75	3005.1	
319.96	2821.4	
320.17	5319.3	
320.38	5520	
320.58	2945	
320.79	3450.1	
321	5529.5	
321.21	5612.8	
321.42	3511.6	
321.62	2914.3	
321.83	4729.4	
322.04	5058.5	
322.25	3373.7	
322.46	3184.6	
322.66	5146.5	
322.87	5287.9	
323.08	3870	
323.29	3056.9	
323.5	5976.7	
323.7	4663.9	
323.91	4234.5	
324.12	3882.3	
324.33	5160.2	
324.53	5272.2	
324.74	3712.3	
324.95	3835.2	
325.16	4539	
325.37	4904.9	
325.57	3190.7	
325.78	3261	
325.99	5128.8	
326.2	4600.4	
326.4	4506.9	
326.61	2962.7	
326.82	4966.3	
327.03	5103.5	
327.24	4417.5	
327.44	4108.9	
327.65	5275.6	
327.86	4321.2	
328.07	3674.1	
328.27	3062.4	
328.48	5595.1	
328.69	4659.1	
328.9	4426.3	
329.1	3376.4	
329.31	4997	
329.52	5674.2	
329.73	3192.8	
329.93	3512.3	
330.14	5066.7	
330.35	5233.2	
330.56	5085.8	
330.76	3848.8	
330.97	4873.5	
331.18	5247.6	
331.39	3563.5	
331.59	2872.6	
331.8	5493.3	
332.01	5634.6	
332.22	3249.4	
332.42	3727.3	
332.63	5158.8	
332.84	4752.7	
333.05	3509.5	
333.25	3272.7	
333.46	4788.8	
333.67	5044.1	
333.88	3298.6	
334.08	3603.1	
334.29	6603.3	
334.5	5550.7	
334.7	3080.1	
334.91	4437.3	
335.12	4627	
335.33	5348.6	
335.53	3547.8	
335.74	5024.3	
335.95	4862.6	
336.16	4716.5	
336.36	3511.6	
336.57	3996.3	
336.78	4618.9	
336.98	5510.4	
337.19	4241.3	
337.4	3435.8	
337.61	5956.9	
337.81	4634.6	
338.02	3222.1	
338.23	4120.5	
338.43	5696.8	
338.64	4729.4	
338.85	3217.4	
339.05	4155.3	
339.26	5772.5	
339.47	4536.3	
339.68	3125.2	
339.88	4627.7	
340.09	5253	
340.3	5481	
340.5	3682.9	
340.71	2867.8	
340.92	4596.3	
341.13	5689.9	
341.33	3059.7	
341.54	3700.7	
341.75	5262.6	
341.95	4890.5	
342.16	3526.6	
342.37	3891.8	
342.57	4659.1	
342.78	4903.5	
342.99	3926	
343.19	2897.2	
343.4	5386.2	
343.61	5242.8	
343.81	3385.3	
344.02	3145.7	
344.23	5391.6	
344.43	5698.1	
344.64	3876.1	
344.85	3842	
345.06	5243.5	
345.26	5509	
345.47	3709.6	
345.68	4308.9	
345.88	4510.3	
346.09	5416.2	
346.3	3743	
346.5	2835.8	
346.71	4940.4	
346.92	4758.8	
347.12	2951.1	
347.33	3658.4	
347.54	5477	
347.74	5806	
347.95	3570.3	
348.16	2736.8	
348.36	4842.8	
348.57	4688.5	
348.78	3629.7	
348.98	3859.1	
349.19	4957.4	
349.39	4543.8	
349.6	2977.1	
349.81	3206.4	
350.01	5210.7	
350.22	4764.3	
350.43	3495.9	
350.63	4162.8	
350.84	5063.9	
351.05	4812.7	
351.25	3237.8	
351.46	2888.3	
351.67	5453.1	
351.87	4711	
352.08	3436.5	
352.29	3806.5	
352.49	5350.7	
352.7	5446.2	
352.9	3084.2	
353.11	3824.2	
353.32	5950	
353.52	4814.8	
353.73	3064.4	
353.94	3829.7	
354.14	5286.5	
354.35	5085.8	
354.55	3146.4	
354.76	3504.1	
354.97	5205.9	
355.17	5019.6	
355.38	3016	
355.59	4085.7	
355.79	4691.2	
356	5052.3	
356.2	3411.2	
356.41	3035.8	
356.62	4487.8	
356.82	4884.4	
357.03	3708.9	
357.24	3351.2	
357.44	4706.9	
357.65	4770.4	
357.85	4435.9	
358.06	3452.9	
358.27	4432.5	
358.47	4651.6	
358.68	2924.5	
358.88	3657.7	
359.09	5174.5	
359.3	5491.3	
359.5	4262.5	
359.71	3784.6	
359.91	5815.5	
360.12	5257.1	
360.33	3661.1	
360.53	4057	
360.74	4711	
360.94	4739.7	
361.15	3815.4	
361.36	3154.6	
361.56	5454.4	
361.77	4899.4	
361.97	4198.3	
362.18	3374.4	
362.38	5451.7	
362.59	4589.5	
362.8	3115.6	
363	2995.5	
363.21	4408.6	
363.41	4969.1	
363.62	3565.5	
363.83	4362.2	
364.03	5101.5	
364.24	5847.6	
364.44	4539	
364.65	4424.3	
364.85	4879.6	
365.06	4555.4	
365.27	3284.9	
365.47	3325.2	
365.68	5758.9	
365.88	4844.1	
366.09	3644	
366.29	3345	
366.5	5018.9	
366.71	5398.4	
366.91	4416.8	
367.12	3721.2	
367.32	5899.5	
367.53	5326.8	
367.73	3672.7	
367.94	4495.3	
368.14	5242.1	
368.35	5934.3	
368.56	3639.2	
368.76	3124.5	
368.97	5316.5	
369.17	6752.8	
369.38	3249.4	
369.58	3452.2	
369.79	4526	
369.99	5679.7	
370.2	4363.5	
370.4	3547.8	
370.61	5099.4	
370.82	6032.6	
371.02	3489.7	
371.23	2887.6	
371.43	4515.8	
371.64	5569.8	
371.84	3466.5	
372.05	4394.9	
372.25	6563.1	
372.46	5302.9	
372.66	3464.5	
372.87	3485	
373.07	5326.8	
373.28	6740.5	
373.48	4323.9	
373.69	4019.5	
373.9	4917.2	
374.1	4894.6	
374.31	4223.6	
374.51	3798.3	
374.72	5580	
374.92	4617.5	
375.13	4358.1	
375.33	3675.4	
375.54	5193	
375.74	4773.1	
375.95	3715.7	
376.15	4801.8	
376.36	5248.9	
376.56	5095.3	
376.77	3762.8	
376.97	4176.5	
377.18	6097.5	
377.38	5264	
377.59	4403.1	
377.79	3350.5	
378	5111	
378.2	5388.9	
378.41	3409.9	
378.61	3305.4	
378.82	5491.3	
379.02	4771.1	
379.23	3560.7	
379.43	4441.4	
379.64	5545.9	
379.84	5251	
380.05	3437.9	
380.25	3335.5	
380.46	5317.2	
380.66	5002.5	
380.87	4521.2	
381.07	4754.7	
381.28	5834.7	
381.48	5339.1	
381.69	3393.5	
381.89	3432.4	
382.1	4455	
382.3	5390.3	
382.51	4362.2	
382.71	5118.6	
382.91	5323.4	
383.12	5666	
383.32	3737.5	
383.53	3897.3	
383.73	5195	
383.94	5025.7	
384.14	3941	
384.35	3106.1	
384.55	4988.9	
384.76	5362.3	
384.96	3796.9	
385.17	4041.3	
385.37	5382.7	
385.58	4751.3	
385.78	4037.9	
385.98	3076.7	
386.19	4904.9	
386.39	5143.1	
386.6	3525.9	
386.8	3676.1	
387.01	5317.9	
387.21	5373.2	
387.42	4070	
387.62	4513.7	
387.83	4760.2	
388.03	5246.9	
388.23	3799.7	
388.44	4416.8	
388.64	4601.1	
388.85	4574.5	
389.05	4029.7	
389.26	4507.6	
389.46	6277.7	
389.67	5642.8	
389.87	4019.5	
390.07	4072	
390.28	5001.8	
390.48	4635.2	
390.69	3377.1	
390.89	3621.5	
391.1	4864.6	
391.3	5596.4	
391.5	4642.7	
391.71	5126.7	
391.91	5343.8	
392.12	6237.4	
392.32	4683	
392.53	4016.7	
392.73	4921.3	
392.93	4982.7	
393.14	3757.3	
393.34	4502.8	
393.55	5376.6	
393.75	5018.2	
393.95	3787.4	
394.16	3682.9	
394.36	4856.4	
394.57	5390.9	
394.77	3325.2	
394.98	3723.2	
395.18	4783.4	
395.38	4875.5	
395.59	4347.2	
395.79	3510.9	
396	4928.8	
396.2	5307.7	
396.4	4302.1	
396.61	4108.9	
396.81	5390.9	
397.02	4784.7	
397.22	4409.3	
397.42	4422.2	
397.63	5415.5	
397.83	4755.4	
398.04	3464.5	
398.24	3906.8	
398.44	5246.2	
398.65	4427	
398.85	3368.2	
399.05	3394.2	
399.26	4729.4	
399.46	6161	
399.67	3696.6	
399.87	3611.9	
400.07	4995.7	
400.28	5307.7	
400.48	3636.5	
400.69	4494.6	
400.89	5515.2	
401.09	5885.9	
401.3	3521.1	
401.5	4409.3	
401.7	6014.9	
401.91	6331.6	
402.11	3793.5	
402.32	3994.2	
402.52	5541.1	
402.72	5477.6	
402.93	4232.5	
403.13	3268.6	
403.33	6184.2	
403.54	5165.7	
403.74	3882.9	
403.94	4650.9	
404.15	5176.6	
404.35	6107.7	
404.56	3738.9	
404.76	5304.9	
404.96	5496.7	
405.17	5345.9	
405.37	4755.4	
405.57	4135.5	
405.78	5535	
405.98	5094.7	
406.18	3714.3	
406.39	4461.2	
406.59	5489.9	
406.79	5197.7	
407	3577.8	
407.2	3652.9	
407.4	5566.4	
407.61	5683.1	
407.81	3605.8	
408.01	5186.1	
408.22	4635.9	
408.42	6250.4	
408.62	4496	
408.83	4033.8	
409.03	5072.1	
409.23	4982.7	
409.44	4124.6	
409.64	4286.4	
409.84	5885.2	
410.05	5768.4	
410.25	4222.9	
410.45	4004.5	
410.66	5295.4	
410.86	7428	
411.06	4247.5	
411.27	4233.2	
411.47	7164.5	
411.67	5532.2	
411.88	4365.6	
412.08	4582	
412.28	5982.1	
412.49	6357.6	
412.69	4209.9	
412.89	4190.1	
413.09	6303.6	
413.3	6118	
413.5	4268.6	
413.7	3954.6	
413.91	5525.4	
414.11	6201.9	
414.31	4096.6	
414.52	4441.4	
414.72	5958.9	
414.92	5867.4	
415.12	4197.7	
415.33	4588.1	
415.53	6182.8	
415.73	6356.2	
415.94	4866	
416.14	4307.6	
416.34	5351.3	
416.55	5124	
416.75	5333.6	
416.95	4919.9	
417.15	6228.6	
417.36	6779.5	
417.56	5526.8	
417.76	4707.6	
417.97	6427.2	
418.17	6216.3	
418.37	4386.1	
418.57	4381.3	
418.78	6008.7	
418.98	5786.9	
419.18	5266	
419.38	5180.7	
419.59	5831.9	
419.79	5534.3	
419.99	4347.8	
420.2	4640	
420.4	6243.6	
420.6	6326.2	
420.8	4251.6	
421.01	4162.2	
421.21	6102.9	
421.41	6153.5	
421.61	4573.8	
421.82	4405.9	
422.02	5733.6	
422.22	6451.8	
422.42	4984.8	
422.63	4765.6	
422.83	5857.9	
423.03	6736.5	
423.23	4774.5	
423.44	3843.4	
423.64	5844.9	
423.84	5581.4	
424.04	4329.4	
424.25	4011.3	
424.45	6670.2	
424.65	6585.6	
424.85	3831.1	
425.06	4361.5	
425.26	6646.3	
425.46	5717.2	
425.66	4773.8	
425.87	4493.9	
426.07	6443.6	
426.27	6233.3	
426.47	4627	
426.67	4073.4	
426.88	6716	
427.08	6238.1	
427.28	4816.8	
427.48	4012	
427.69	5340.4	
427.89	5850.4	
428.09	4741	
428.29	4058.4	
428.5	6386.2	
428.7	6055.2	
428.9	3994.2	
429.1	4386.1	
429.3	5968.5	
429.51	6296.8	
429.71	4214.7	
429.91	4909.7	
430.11	6206.7	
430.31	6694.8	
430.52	4463.2	
430.72	4663.9	
430.92	6677.1	
431.12	6206	
431.32	4183.3	
431.53	4544.4	
431.73	5263.3	
431.93	6699.6	
432.13	4150.5	
432.33	3968.3	
432.54	5699.5	
432.74	5967.8	
432.94	3953.9	
433.14	4839.4	
433.34	6228.6	
433.55	5732.9	
433.75	4765.6	
433.95	6321.4	
434.15	6014.9	
434.35	5754.1	
434.56	4149.2	
434.76	3746.4	
434.96	5950	
435.16	6186.2	
435.36	4027	
435.56	5026.4	
435.77	5626.5	
435.97	5775.3	
436.17	5463.3	
436.37	4891.2	
436.57	5649	
436.78	5603.9	
436.98	5638.7	
437.18	5341.8	
437.38	6216.3	
437.58	5784.8	
437.78	5558.9	
437.99	4390.8	
438.19	6260.6	
438.39	7302.4	
438.59	4375.1	
438.79	3966.9	
438.99	6811.5	
439.2	5795.8	
439.4	4046.8	
439.6	3893.2	
439.8	6006	
440	6974	
440.2	4861.2	
440.4	4957.4	
440.61	6406	
440.81	6825.9	
441.01	4123.2	
441.21	4905.6	
441.41	6712.6	
441.61	6368.5	
441.81	5175.2	
442.02	6061.3	
442.22	7183.6	
442.42	6525.5	
442.62	4240	
442.82	4224.3	
443.02	6750.1	
443.22	5954.8	
443.43	4550.6	
443.63	4194.2	
443.83	5863.3	
444.03	5829.2	
444.23	5172.5	
444.43	4911	
444.63	6099.5	
444.83	7139.2	
445.04	4330.8	
445.24	5447.6	
445.44	6496.8	
445.64	6500.9	
445.84	5017.5	
446.04	5067.4	
446.24	5903.6	
446.44	6730.3	
446.65	4361.5	
446.85	4573.1	
447.05	5961.6	
447.25	6708.5	
447.45	4756.7	
447.65	4162.8	
447.85	6191	
448.05	5868.8	
448.25	5129.5	
448.46	4907.6	
448.66	6158.9	
448.86	5894.1	
449.06	4097.3	
449.26	4997	
449.46	6405.4	
449.66	5717.9	
449.86	4678.2	
450.06	4620.9	
450.26	5766.4	
450.47	6374.6	
450.67	4919.2	
450.87	5187.5	
451.07	6460.7	
451.27	6173.9	
451.47	4334.9	
451.67	4773.1	
451.87	5924.8	
452.07	6990.4	
452.27	4476.2	
452.47	4464.6	
452.67	6219.7	
452.88	6575.3	
453.08	3977.2	
453.28	5646.2	
453.48	7206.1	
453.68	6083.1	
453.88	4369	
454.08	4524	
454.28	6460	
454.48	6149.4	
454.68	4987.5	
454.88	5484.5	
455.08	6578.1	
455.28	6247.7	
455.48	4261.8	
455.68	4761.5	
455.89	6959	
456.09	6577.4	
456.29	4571.1	
456.49	4573.8	
456.69	6797.9	
456.89	6169.2	
457.09	4975.2	
457.29	5245.5	
457.49	6461.3	
457.69	6567.2	
457.89	4851	
458.09	4362.2	
458.29	6236.7	
458.49	6915.3	
458.69	5233.9	
458.89	4692.6	
459.09	6980.8	
459.29	7079.1	
459.49	4781.3	
459.69	5430.5	
459.9	6731.7	
460.1	6253.1	
460.3	4685.1	
460.5	4534.9	
460.7	6655.2	
460.9	6382.2	
461.1	4244.8	
461.3	5317.9	
461.5	7223.9	
461.7	6860.7	
461.9	4528.1	
462.1	4964.3	
462.3	6357.6	
462.5	6816.3	
462.7	4623.6	
462.9	4680.3	
463.1	7817.8	
463.3	7464.8	
463.5	4845.5	
463.7	5618.9	
463.9	6547.4	
464.1	6883.2	
464.3	4937	
464.5	5179.3	
464.7	7030.7	
464.9	6761.7	
465.1	6268.8	
465.3	5457.8	
465.5	7398.6	
465.7	7303.1	
465.9	5738.4	
466.1	5575.3	
466.3	7191.8	
466.5	7015.7	
466.7	6182.1	
466.9	5335	
467.1	7008.8	
467.3	7729	
467.5	6165.1	
467.7	5162.2	
467.9	7915.4	
468.1	8694.3	
468.3	5860.6	
468.5	6183.5	
468.7	6982.9	
468.9	6924.9	
469.1	5406	
469.3	6014.9	
469.5	8647.2	
469.7	6597.2	
469.9	5948.7	
470.1	5257.8	
470.3	7015	
470.5	7006.1	
470.7	6361.7	
470.9	5359.5	
471.1	6829.3	
471.3	7182.2	
471.5	5208.7	
471.69	6881.9	
471.89	6750.1	
472.09	6263.4	
472.29	5866.1	
472.49	6195.8	
472.69	6465.4	
472.89	7175.4	
473.09	5157.5	
473.29	5283.8	
473.49	6673	
473.69	6717.3	
473.89	6133.7	
474.09	5470.8	
474.29	7789.8	
474.49	7615	
474.69	6085.9	
474.89	5499.5	
475.09	6841.6	
475.29	6758.3	
475.49	5020.3	
475.69	5167	
475.88	8174.8	
476.08	7133.8	
476.28	4958.8	
476.48	5388.2	
476.68	7476.5	
476.88	7300.3	
477.08	5261.2	
477.28	5466.7	
477.48	6918	
477.68	7438.2	
477.88	5046.9	
478.08	5369.8	
478.28	7718.1	
478.48	7019.8	
478.67	5451.7	
478.87	4959.5	
479.07	7537.9	
479.27	7096.2	
479.47	5589.6	
479.67	5582.8	
479.87	7397.3	
480.07	7834.2	
480.27	5060.5	
480.47	6326.9	
480.67	7084.6	
480.87	7668.3	
481.06	5184.1	
481.26	5921.4	
481.46	7111.9	
481.66	6932.4	
481.86	5604.6	
482.06	6445.6	
482.26	6817	
482.46	7681.9	
482.66	5594.4	
482.86	5219.6	
483.05	7159	
483.25	6601.3	
483.45	7626.6	
483.65	5539.1	
483.85	6739.9	
484.05	7001.3	
484.25	5936.4	
484.45	6307.1	
484.65	7703.1	
484.84	7745.4	
485.04	5489.9	
485.24	5507.7	
485.44	7960.5	
485.64	6510.5	
485.84	4894.6	
486.04	6033.3	
486.24	6885.3	
486.44	7069.6	
486.63	4829.1	
486.83	5625.1	
487.03	6778.8	
487.23	7010.2	
487.43	4967.7	
487.63	6945.3	
487.83	7001.3	
488.02	7770.7	
488.22	5747.3	
488.42	6223.1	
488.62	7707.2	
488.82	6796.5	
489.02	5443.5	
489.22	5539.8	
489.41	7640.3	
489.61	7315.3	
489.81	5242.1	
490.01	5243.5	
490.21	7594.6	
490.41	8143.4	
490.61	5309.7	
490.8	5313.8	
491	7178.8	
491.2	6679.8	
491.4	5865.4	
491.6	5161.6	
491.8	7199.3	
491.99	7204.1	
492.19	5056.4	
492.39	5302.9	
492.59	7505.8	
492.79	7564.5	
492.99	6011.5	
493.18	5162.9	
493.38	7742	
493.58	8314.8	
493.78	5795.1	
493.98	5436	
494.18	7408.2	
494.37	6890.7	
494.57	5986.9	
494.77	5788.2	
494.97	7653.3	
495.17	7744.7	
495.37	5569.1	
495.56	5854.5	
495.76	7880.6	
495.96	7653.9	
496.16	6584.9	
496.36	5721.3	
496.55	7810.3	
496.75	7334.5	
496.95	6112.5	
497.15	5874.3	
497.35	7778.2	
497.54	7798	
497.74	5758.2	
497.94	7172	
498.14	8384.4	
498.34	8167.3	
498.53	5530.9	
498.73	6156.2	
498.93	7113.3	
499.13	7704.5	
499.33	6024.4	
499.52	6457.2	
499.72	7745.4	
499.92	7975.5	
500.12	5651.7	
500.32	6023.8	
500.51	7957.7	
500.71	7720.2	
500.91	6626.5	
501.11	6278.4	
501.31	7892.9	
501.5	8284	
501.7	6889.4	
501.9	6058.6	
502.1	7691.5	
502.29	8015.7	
502.49	6449.1	
502.69	6815	
502.89	7985.7	
503.09	7989.8	
503.28	5666	
503.48	5741.8	
503.68	7407.5	
503.88	7293.5	
504.07	6595.8	
504.27	6158.2	
504.47	7693.5	
504.67	7778.9	
504.86	6464.8	
505.06	6257.2	
505.26	7450.5	
505.46	8882.7	
505.65	6124.1	
505.85	6331.6	
506.05	7453.9	
506.25	7791.2	
506.44	5532.9	
506.64	6376	
506.84	7300.3	
507.04	8164.6	
507.23	5771.2	
507.43	6310.5	
507.63	8919.6	
507.83	7429.3	
508.02	6262	
508.22	5909.1	
508.42	9230.9	
508.62	7322.2	
508.81	6429.3	
509.01	6688.7	
509.21	7245	
509.4	7471	
509.6	6264.1	
509.8	5765.7	
510	7484	
510.19	8567.3	
510.39	5770.5	
510.59	5860.6	
510.79	7305.1	
510.98	8477.2	
511.18	5962.3	
511.38	5992.4	
511.57	8072.4	
511.77	7815.7	
511.97	6617	
512.17	5849.7	
512.36	8022.6	
512.56	7955.7	
512.76	5837.4	
512.95	5666	
513.15	8193.9	
513.35	6927.6	
513.55	6487.3	
513.74	5899.5	
513.94	8004.1	
514.14	7468.3	
514.33	6707.1	
514.53	6477	
514.73	7523.6	
514.92	7574.1	
515.12	5918.6	
515.32	5808	
515.51	7740	
515.71	8123.6	
515.91	7400	
516.11	5839.4	
516.3	9130.5	
516.5	7462.8	
516.7	6422.4	
516.89	6874.3	
517.09	7539.3	
517.29	7468.9	
517.48	6583.5	
517.68	6105.7	
517.88	7266.9	
518.07	7877.9	
518.27	6501.6	
518.47	5836	
518.66	8341.4	
518.86	7226.6	
519.06	5625.8	
519.25	6065.4	
519.45	7508.5	
519.65	8834.9	
519.84	6578.8	
520.04	7141.9	
520.24	9127.1	
520.43	8062.2	
520.63	6430.6	
520.83	6187.6	
521.02	7510.6	
521.22	7908.6	
521.42	6556.2	
521.61	7127.6	
521.81	7647.8	
522.01	7838.3	
522.2	6470.9	
522.4	6287.9	
522.6	8160.5	
522.79	7126.9	
522.99	6348.7	
523.18	5715.2	
523.38	7984.3	
523.58	7992.5	
523.77	7316	
523.97	5783.5	
524.17	9510.1	
524.36	8845.2	
524.56	7059.3	
524.76	6733	
524.95	7985	
525.15	7733.8	
525.34	6537.8	
525.54	6520.7	
525.74	8368	
525.93	7424.6	
526.13	7499.7	
526.33	6614.9	
526.52	8671.8	
526.72	8161.8	
526.91	7503.8	
527.11	6941.2	
527.31	8733.9	
527.5	9028.1	
527.7	6901.7	
527.89	6081.8	
528.09	7747.5	
528.29	8372.1	
528.48	7327.6	
528.68	6985.6	
528.87	8684.1	
529.07	8762.6	
529.27	6991.1	
529.46	6602	
529.66	8424.7	
529.85	8862.2	
530.05	6521.4	
530.25	7145.4	
530.44	9613.8	
530.64	8403.5	
530.83	6778.8	
531.03	7045.7	
531.23	8826.1	
531.42	8649.3	
531.62	7666.2	
531.81	6959.7	
532.01	8954.4	
532.21	9372.2	
532.4	6745.3	
532.6	7185	
532.79	9756.5	
532.99	9032.2	
533.18	7229.3	
533.38	8062.2	
533.58	8731.9	
533.77	9275.9	
533.97	7189.7	
534.16	7857.4	
534.36	9554.5	
534.55	8769.4	
534.75	8109.3	
534.95	7404.1	
535.14	9572.2	
535.34	8720.9	
535.53	6961.7	
535.73	8731.9	
535.92	9901.2	
536.12	8877.9	
536.31	7151.5	
536.51	8223.3	
536.71	9232.9	
536.9	8831.5	
537.1	7260.7	
537.29	7439.6	
537.49	9519.6	
537.68	8752.3	
537.88	7800	
538.07	7077.1	
538.27	8870.4	
538.46	9911.5	
538.66	7008.8	
538.86	7342.7	
539.05	9040.4	
539.25	9458.9	
539.44	7759.1	
539.64	7335.8	
539.83	8902.5	
540.03	9822.7	
540.22	7260	
540.42	7324.9	
540.61	9195.4	
540.81	9210.4	
541	7716.1	
541.2	8348.2	
541.39	8699.1	
541.59	9062.9	
541.78	8171.4	
541.98	7251.2	
542.18	8534.6	
542.37	8505.2	
542.57	7656	
542.76	8058.8	
542.96	8624	
543.15	9181	
543.35	7582.9	
543.54	7099.6	
543.74	9415.9	
543.93	9050.7	
544.13	7650.5	
544.32	8531.2	
544.52	9343.5	
544.71	8709.3	
544.91	6831.3	
545.1	7877.9	
545.3	8761.2	
545.49	9155.1	
545.69	6758.3	
545.88	7292.8	
546.08	10070	
546.27	9688.3	
546.47	7778.2	
546.66	7157	
546.86	9501.9	
547.05	9962.7	
547.24	7281.2	
547.44	7201.3	
547.63	8580.3	
547.83	9471.9	
548.02	7578.2	
548.22	7746.8	
548.41	8428.1	
548.61	9531.2	
548.8	7131	
549	7037.5	
549.19	8955.1	
549.39	9288.2	
549.58	6848.4	
549.78	7463.5	
549.97	9406.3	
550.17	8874.5	
550.36	8163.9	
550.55	8955.8	
550.75	8877.9	
550.94	9531.9	
551.14	7082.6	
551.33	7476.5	
551.53	8309.3	
551.72	9176.3	
551.92	7432.1	
552.11	7313.3	
552.31	9173.5	
552.5	9205.6	
552.69	8718.2	
552.89	6957.6	
553.08	9141.4	
553.28	8849.3	
553.47	7285.3	
553.67	8234.2	
553.86	9655.5	
554.06	8258.1	
554.25	6607.4	
554.44	7097.6	
554.64	10407	
554.83	9852.8	
555.03	7088	
555.22	7372.7	
555.42	9324.4	
555.61	9107.3	
555.8	7275.8	
556	7467.6	
556.19	8346.8	
556.39	9450.7	
556.58	7303.7	
556.78	7276.4	
556.97	8979	
557.16	8769.4	
557.36	8283.4	
557.55	6982.9	
557.75	8044.4	
557.94	9667.1	
558.13	7093.5	
558.33	6858	
558.52	9544.9	
558.72	8396.7	
558.91	7027.9	
559.1	7139.9	
559.3	8258.1	
559.49	8058.1	
559.69	6630.6	
559.88	7409.6	
560.07	8938	
560.27	9344.2	
560.46	7647.1	
560.66	7762.5	
560.85	8749.6	
561.04	8085.4	
561.24	6856.6	
561.43	7073	
561.63	8312.7	
561.82	8524.3	
562.01	8105.9	
562.21	7322.9	
562.4	8901.8	
562.59	9750.4	
562.79	7178.1	
562.98	6911.2	
563.18	8865.7	
563.37	10036	
563.56	7593.2	
563.76	6880.5	
563.95	8319.5	
564.14	8273.8	
564.34	7163.1	
564.53	6953.5	
564.73	8893	
564.92	9179	
565.11	7304.4	
565.31	6702.3	
565.5	9366	
565.69	8386.4	
565.89	6993.1	
566.08	7223.2	
566.27	9237	
566.47	9486.9	
566.66	7775.5	
566.85	6605.4	
567.05	8922.3	
567.24	8361.9	
567.44	6890.7	
567.63	8081.3	
567.82	9181	
568.02	8736	
568.21	6881.9	
568.4	7165.8	
568.6	8680.7	
568.79	8693.6	
568.98	6749.4	
569.18	6817	
569.37	8693.6	
569.56	10395	
569.76	7269.6	
569.95	7989.8	
570.14	9017.9	
570.34	8911.4	
570.53	6813.6	
570.72	6689.3	
570.91	9459.6	
571.11	8688.8	
571.3	7236.2	
571.49	8006.2	
571.69	8808.3	
571.88	8381.7	
572.07	7748.1	
572.27	7680.6	
572.46	8333.9	
572.65	9166.7	
572.85	7001.3	
573.04	7268.2	
573.23	9527.2	
573.43	8700.5	
573.62	6793.8	
573.81	7293.5	
574	8927.8	
574.2	8606.2	
574.39	7058.7	
574.58	7163.1	
574.78	9471.9	
574.97	8873.8	
575.16	7499	
575.36	7688.8	
575.55	9168.8	
575.74	9397.4	
575.93	6785.6	
576.13	7666.2	
576.32	8741.4	
576.51	9181	
576.71	7182.2	
576.9	8333.9	
577.09	9558.6	
577.28	8983.1	
577.48	7606.2	
577.67	6688	
577.86	8706.6	
578.05	8987.2	
578.25	7221.1	
578.44	7333.1	
578.63	8845.2	
578.83	9789.3	
579.02	6811.5	
579.21	8071.7	
579.4	9019.3	
579.6	8736	
579.79	7347.4	
579.98	9266.4	
580.17	9300.5	
580.37	9348.3	
580.56	6963.8	
580.75	7516.7	
580.94	9686.2	
581.14	9629.5	
581.33	7936.6	
581.52	6982.9	
581.71	9142.8	
581.91	9724.4	
582.1	6835.4	
582.29	7195.9	
582.48	8901.2	
582.68	8831.5	
582.87	7617.1	
583.06	7382.2	
583.25	9174.2	
583.45	8535.3	
583.64	7955.7	
583.83	8449.2	
584.02	8689.5	
584.21	9118.9	
584.41	7965.2	
584.6	7354.9	
584.79	8932.6	
584.98	9489.6	
585.18	6911.2	
585.37	6920.8	
585.56	8517.5	
585.75	9136.7	
585.94	7135.8	
586.14	7562.5	
586.33	9589.3	
586.52	8777.6	
586.71	7530.4	
586.91	7226.6	
587.1	8338	
587.29	9135.3	
587.48	7148.1	
587.67	7150.8	
587.87	9168.8	
588.06	8974.9	
588.25	8157.7	
588.44	7660.1	
588.63	8774.2	
588.83	9185.8	
589.02	7116.7	
589.21	7060	
589.4	8666.3	
589.59	8509.3	
589.78	6464.8	
589.98	6637.5	
590.17	8126.3	
590.36	8632.9	
590.55	6111.8	
590.74	6824.5	
590.94	9617.3	
591.13	8449.2	
591.32	6525.5	
591.51	6187.6	
591.7	8833.6	
591.89	8348.2	
592.09	6305	
592.28	6680.5	
592.47	7634.1	
592.66	9357.2	
592.85	6275	
593.05	6481.1	
593.24	8239	
593.43	8883.4	
593.62	6515.3	
593.81	7002.7	
594	8314.8	
594.19	8518.9	
594.39	6488	
594.58	6448.4	
594.77	8502.5	
594.96	9026.8	
595.15	6381.5	
595.34	6967.9	
595.54	8575.5	
595.73	7723.6	
595.92	5913.2	
596.11	6866.8	
596.3	8977.6	
596.49	7863.5	
596.68	6587.6	
596.88	7036.8	
597.07	8697.7	
597.26	7744.1	
597.45	6195.8	
597.64	7286.7	
597.83	7931.8	
598.02	8489.5	
598.22	6272.2	
598.41	6776.7	
598.6	8344.1	
598.79	7778.2	
598.98	6297.5	
599.17	7073.7	
599.36	8390.5	
599.55	9216.5	
599.74	8007.6	
599.94	7840.3	
600.13	8757.1	
600.32	7758.4	
600.51	6111.1	
600.7	6196.5	
600.89	9284.8	
601.08	9289.6	
601.27	6047	
601.47	6877.8	
601.66	8628.1	
601.85	9202.9	
602.04	6602	
602.23	6888.7	
602.42	7803.4	
602.61	8397.4	
602.8	6497.5	
602.99	6283.9	
603.18	8228.1	
603.37	8294.3	
603.57	6909.2	
603.76	7362.4	
603.95	8961.2	
604.14	8640.4	
604.33	6414.9	
604.52	6558.3	
604.71	8329.8	
604.9	7981.6	
605.09	7447.8	
605.28	6977.4	
605.47	8769.4	
605.66	8577.6	
605.86	6851.8	
606.05	6391	
606.24	8906.6	
606.43	7572.7	
606.62	6625.9	
606.81	7277.8	
607	8684.8	
607.19	8116.1	
607.38	6154.8	
607.57	6342.6	
607.76	7866.2	
607.95	7350.2	
608.14	6705.7	
608.33	7183.6	
608.52	7846.5	
608.72	8621.9	
608.91	6125.5	
609.1	5958.9	
609.29	7902.4	
609.48	7582.3	
609.67	6882.5	
609.86	6113.2	
610.05	7653.9	
610.24	7849.9	
610.43	5914.5	
610.62	5552.7	
610.81	8884.1	
611	8622.6	
611.19	5997.1	
611.38	6610.8	
611.57	8175.5	
611.76	9153.1	
611.95	5809.4	
612.14	5720.7	
612.33	7914	
612.52	7602.7	
612.71	6295.5	
612.9	5649	
613.09	7215.7	
613.28	9200.8	
613.47	6322.1	
613.66	6892.8	
613.85	8022.6	
614.04	7677.2	
614.24	6251.8	
614.43	5476.3	
614.62	8155.7	
614.81	8097.7	
615	6579.4	
615.19	6642.9	
615.38	7549.5	
615.57	7841	
615.76	6475.7	
615.95	7349.5	
616.14	8320.2	
616.33	7933.1	
616.52	6745.3	
616.71	6877.1	
616.9	8099.7	
617.09	7942	
617.28	6236.1	
617.47	7247.1	
617.66	7447.8	
617.85	7479.2	
618.04	6974.7	
618.22	6475	
618.41	7720.2	
618.6	8490.2	
618.79	6331	
618.98	6236.1	
619.17	8681.3	
619.36	7285.3	
619.55	6320.7	
619.74	6353.5	
619.93	8075.1	
620.12	7644.4	
620.31	6876.4	
620.5	6986.3	
620.69	8591.2	
620.88	8890.2	
621.07	7557.7	
621.26	6690	
621.45	8242.4	
621.64	8281.3	
621.83	6833.4	
622.02	6212.2	
622.21	8290.9	
622.4	8132.5	
622.59	7302.4	
622.78	7154.9	
622.97	7686	
623.16	8580.3	
623.35	6841.6	
623.54	6074.3	
623.72	7998	
623.91	8181	
624.1	7023.9	
624.29	5919.3	
624.48	9076.6	
624.67	8310.7	
624.86	6980.8	
625.05	6139.1	
625.24	9012.4	
625.43	7744.7	
625.62	8358.4	
625.81	6323.4	
626	8699.8	
626.19	8000	
626.38	6939.2	
626.56	6471.6	
626.75	7871.7	
626.94	8499.1	
627.13	6969.9	
627.32	5985.5	
627.51	8491.6	
627.7	9549	
627.89	6040.8	
628.08	7017	
628.27	7686.7	
628.46	7946.8	
628.65	6313.9	
628.83	5926.8	
629.02	8454.7	
629.21	7804.1	
629.4	6655.2	
629.59	6864.8	
629.78	7762.5	
629.97	8673.1	
630.16	6833.4	
630.35	6453.1	
630.54	8969.4	
630.72	8765.3	
630.91	6429.9	
631.1	6834.1	
631.29	8236.2	
631.48	8322.3	
631.67	6987	
631.86	6437.4	
632.05	7942.7	
632.24	7983.7	
632.42	6197.2	
632.61	6737.8	
632.8	8005.5	
632.99	7678.5	
633.18	6728.9	
633.37	7033.4	
633.56	8272.4	
633.75	8133.2	
633.93	6707.1	
634.12	6383.5	
634.31	8938.7	
634.5	8536.6	
634.69	6554.9	
634.88	6933.1	
635.07	8014.4	
635.25	8524.3	
635.44	7280.5	
635.63	7441	
635.82	7927	
636.01	7463.5	
636.2	7182.9	
636.39	6828.6	
636.57	8890.9	
636.76	8489.5	
636.95	6315.3	
637.14	7527.7	
637.33	8355	
637.52	9078	
637.7	6160.3	
637.89	7017	
638.08	7948.2	
638.27	9157.2	
638.46	6990.4	
638.65	7309.9	
638.83	9233.6	
639.02	7723.6	
639.21	6935.8	
639.4	7357	
639.59	8236.2	
639.78	7778.9	
639.96	6300.2	
640.15	6382.8	
640.34	8061.5	
640.53	8126.3	
640.72	6129.6	
640.91	6328.9	
641.09	7598.6	
641.28	8699.8	
641.47	6324.1	
641.66	7021.1	
641.85	8183.7	
642.03	8271.1	
642.22	6816.3	
642.41	6402.6	
642.6	7664.2	
642.79	7185	
642.97	6264.1	
643.16	6798.6	
643.35	7617.8	
643.54	7462.1	
643.73	6165.8	
643.91	6733	
644.1	7256.6	
644.29	7935.2	
644.48	6199.9	
644.67	6219.7	
644.85	7487.4	
645.04	7794.6	
645.23	5853.1	
645.42	6122.7	
645.6	7459.4	
645.79	8342.7	
645.98	6107.7	
646.17	5265.3	
646.36	7196.6	
646.54	7662.1	
646.73	6817.7	
646.92	5763	
647.11	7377.5	
647.29	8239	
647.48	5808.7	
647.67	5601.2	
647.86	8417.2	
648.05	8368	
648.23	6060.6	
648.42	7140.6	
648.61	7900.4	
648.8	7578.2	
648.98	5717.2	
649.17	6021	
649.36	7283.3	
649.55	6863.4	
649.73	5742.5	
649.92	6363	
650.11	7086.7	
650.3	7432.8	
650.48	5872.2	
650.67	5640.1	
650.86	7699	
651.05	6727.6	
651.23	5824.4	
651.42	5892	
651.61	7310.6	
651.79	7258.7	
651.98	5971.9	
652.17	5604.6	
652.36	7585.7	
652.54	6821.1	
652.73	5677.7	
652.92	5522	
653.11	7692.2	
653.29	7740.6	
653.48	5188.9	
653.67	5961.6	
653.85	7373.4	
654.04	8249.2	
654.23	6142.5	
654.42	5763	
654.6	7038.9	
654.79	7571.3	
654.98	5296.7	
655.16	5780.7	
655.35	6701.6	
655.54	6580.8	
655.73	5352	
655.91	5195.7	
656.1	7533.1	
656.29	6476.4	
656.47	4876.2	
656.66	6363	
656.85	6825.9	
657.03	6773.3	
657.22	5313.8	
657.41	5341.8	
657.59	6933.7	
657.78	6711.9	
657.97	5166.3	
658.16	5720.7	
658.34	7494.9	
658.53	7755.7	
658.72	6457.2	
658.9	6956.9	
659.09	7077.8	
659.28	7010.2	
659.46	5544.5	
659.65	5385.5	
659.84	6839.5	
660.02	7289.4	
660.21	5356.8	
660.4	5339.7	
660.58	7623.9	
660.77	7012.9	
660.96	5828.5	
661.14	5070.1	
661.33	8060.1	
661.52	7948.2	
661.7	5008	
661.89	8098.4	
662.08	6710.5	
662.26	6297.5	
662.45	5216.2	
662.64	5335.6	
662.82	7316.7	
663.01	6622.4	
663.2	5338.4	
663.38	5997.1	
663.57	7222.5	
663.75	7112.6	
663.94	5556.1	
664.13	6705.7	
664.31	6765.1	
664.5	7311.9	
664.69	5873.6	
664.87	6256.5	
665.06	6499.6	
665.25	7118.7	
665.43	6447.7	
665.62	6474.3	
665.8	7387.7	
665.99	6840.9	
666.18	5566.4	
666.36	5658.5	
666.55	7319.4	
666.74	7249.8	
666.92	5283.8	
667.11	6591.7	
667.29	6855.9	
667.48	7331.7	
667.67	6311.8	
667.85	5477	
668.04	6852.5	
668.22	6808.1	
668.41	5696.1	
668.6	5814.9	
668.78	6636.8	
668.97	6804	
669.15	5963.7	
669.34	5036	
669.53	6610.8	
669.71	6917.4	
669.9	5233.2	
670.08	5672.9	
670.27	6552.8	
670.46	7249.1	
670.64	5913.9	
670.83	6113.9	
671.01	6507.8	
671.2	6997.2	
671.38	5281.7	
671.57	5175.9	
671.76	7576.1	
671.94	8074.5	
672.13	5114.5	
672.31	6082.5	
672.5	7214.3	
672.69	6621.8	
672.87	5265.3	
673.06	5489.9	
673.24	7058.7	
673.43	6619	
673.61	5898.8	
673.8	5416.9	
673.98	7251.9	
674.17	7326.3	
674.36	5977.3	
674.54	5883.8	
674.73	6978.1	
674.91	7243.7	
675.1	5634	
675.28	5308.3	
675.47	6826.6	
675.65	7230	
675.84	5530.9	
676.03	5820.3	
676.21	6630	
676.4	6240.2	
676.58	6216.3	
676.77	6009.4	
676.95	7912.7	
677.14	6657.9	
677.32	5285.1	
677.51	5063.3	
677.69	7238.9	
677.88	6367.8	
678.06	5104.9	
678.25	5241.4	
678.44	6855.2	
678.62	6655.2	
678.81	5041.4	
678.99	5831.9	
679.18	7508.5	
679.36	7174	
679.55	5523.4	
679.73	5984.2	
679.92	7172	
680.1	6612.9	
680.29	6518	
680.47	5478.3	
680.66	6619.7	
680.84	7306.5	
681.03	4868.7	
681.21	5833.3	
681.4	6642.9	
681.58	6599.2	
681.77	5268.1	
681.95	5259.9	
682.14	7366.5	
682.32	7677.8	
682.51	6140.5	
682.69	5091.9	
682.88	6601.3	
683.06	7101	
683.25	5762.3	
683.43	6193.7	
683.62	6853.2	
683.8	7234.8	
683.99	6369.9	
684.17	5686.5	
684.36	7886.7	
684.54	6847	
684.73	5015.5	
684.91	5223.7	
685.1	7091.4	
685.28	6638.8	
685.46	5723.4	
685.65	5750.7	
685.83	7309.9	
686.02	6722.8	
686.2	5281.7	
686.39	5347.9	
686.57	6391	
686.76	7706.5	
686.94	5284.4	
687.13	5429.8	
687.31	7175.4	
687.5	6776.7	
687.68	4974.5	
687.86	6014.2	
688.05	8289.5	
688.23	6285.9	
688.42	6025.1	
688.6	5341.8	
688.79	6677.7	
688.97	6719.4	
689.16	5778	
689.34	4790.9	
689.52	7305.8	
689.71	7527.7	
689.89	6032.6	
690.08	5479.7	
690.26	7032	
690.45	6815	
690.63	6260	
690.81	5616.9	
691	6817.7	
691.18	6739.2	
691.37	5808.7	
691.55	7586.4	
691.74	6701	
691.92	8443.8	
692.1	5730.2	
692.29	5265.3	
692.47	6909.8	
692.66	6361.7	
692.84	5459.2	
693.02	5921.4	
693.21	6490	
693.39	6918	
693.58	6027.2	
693.76	5482.4	
693.94	7961.1	
694.13	7727	
694.31	5520.6	
694.5	6440.9	
694.68	6791.1	
694.86	7215	
695.05	5917.9	
695.23	6300.2	
695.42	7490.1	
695.6	9389.3	
695.78	6461.3	
695.97	5686.5	
696.15	7605.5	
696.34	7085.3	
696.52	5554.1	
696.7	6229.9	
696.89	7358.4	
697.07	6934.4	
697.25	6244.9	
697.44	7492.8	
697.62	7406.8	
697.81	7689.4	
697.99	5948	
698.17	6399.9	
698.36	6938.5	
698.54	7510.6	
698.72	6317.3	
698.91	5420.3	
699.09	7153.6	
699.28	7006.1	
699.46	6041.5	
699.64	5868.1	
699.83	6965.8	
700.01	7980.3	
700.19	6535.8	
700.38	5309.7	
700.56	7987.8	
700.74	7046.4	
700.93	5667.4	
701.11	6421.7	
701.29	7617.1	
701.48	8576.2	
701.66	5801.2	
701.84	5911.8	
702.03	7317.4	
702.21	7838.3	
702.39	5627.8	
702.58	6088.6	
702.76	7710.6	
702.94	7821.2	
703.13	5636	
703.31	7706.5	
703.49	7118.1	
703.68	8128.4	
703.86	5760.3	
704.04	6658.6	
704.23	7598.6	
704.41	7897	
704.59	5984.2	
704.78	7053.9	
704.96	8588.5	
705.14	8041.7	
705.33	5786.2	
705.51	6479.1	
705.69	7447.8	
705.87	8145.5	
706.06	6740.5	
706.24	5778	
706.42	7828	
706.61	8043.7	
706.79	6797.9	
706.97	5903.6	
707.16	7337.2	
707.34	7864.2	
707.52	6797.9	
707.7	5968.5	
707.89	7436.9	
708.07	7183.6	
708.25	6809.5	
708.44	6882.5	
708.62	7401.4	
708.8	8300.4	
708.98	7019.1	
709.17	6200.6	
709.35	7699	
709.53	7752.9	
709.72	5904.3	
709.9	6314.6	
710.08	8097.7	
710.26	8051.9	
710.45	7340.6	
710.63	6261.3	
710.81	7761.8	
710.99	7742	
711.18	6657.9	
711.36	6319.3	
711.54	7548.1	
711.72	8191.9	
711.91	6405.4	
712.09	6025.8	
712.27	7800.7	
712.45	8610.3	
712.64	6589	
712.82	5735.7	
713	7253.2	
713.18	7325.6	
713.37	5829.9	
713.55	6875	
713.73	8137.3	
713.91	6920.1	
714.1	6156.9	
714.28	5603.9	
714.46	7716.7	
714.64	6994.5	
714.83	5090.6	
715.01	5756.8	
715.19	7025.2	
715.37	6449.1	
715.55	5495.4	
715.74	5659.2	
715.92	7635.5	
716.1	5951.4	
716.28	6630	
716.47	5752.1	
716.65	6586.3	
716.83	6707.8	
717.01	5571.8	
717.19	5701.5	
717.38	8398	
717.56	6358.9	
717.74	5836	
717.92	5184.8	
718.1	7476.5	
718.29	6744	
718.47	4917.9	
718.65	5512.4	
718.83	7483.3	
719.01	7399.3	
719.2	4878.9	
719.38	5874.3	
719.56	7286	
719.74	8532.5	
719.92	5564.3	
720.11	6462	
720.29	7309.2	
720.47	6525.5	
720.65	5063.9	
720.83	5820.3	
721.02	6771.3	
721.2	6540.5	
721.38	5847.6	
721.56	5169.1	
721.74	6212.9	
721.92	6302.3	
722.11	6217.6	
722.29	5875.6	
722.47	7278.5	
722.65	6687.3	
722.83	5119.9	
723.01	5926.8	
723.2	6672.3	
723.38	6940.6	
723.56	4719.9	
723.74	5700.9	
723.92	6312.5	
724.1	7226.6	
724.29	5092.6	
724.47	6121.4	
724.65	6387.6	
724.83	6201.2	
725.01	5016.8	
725.19	5691.3	
725.37	6251.8	
725.56	6339.8	
725.74	4953.4	
725.92	5154.7	
726.1	6271.6	
726.28	6553.5	
726.46	5455.8	
726.64	5194.3	
726.83	6514.6	
727.01	6697.5	
727.19	4906.9	
727.37	5624.4	
727.55	6665.5	
727.73	6995.2	
727.91	4891.2	
728.09	4756.7	
728.28	7058.7	
728.46	7448.5	
728.64	5683.1	
728.82	5657.2	
729	8003.5	
729.18	7430.7	
729.36	4988.2	
729.54	6961.7	
729.72	8292.2	
729.91	6834.8	
730.09	6677.1	
730.27	5579.3	
730.45	6752.8	
730.63	7344	
730.81	6141.2	
730.99	5369.8	
731.17	7779.6	
731.35	6515.3	
731.53	5821.7	
731.71	5502.2	
731.9	7535.2	
732.08	7636.2	
732.26	5677	
732.44	5416.9	
732.62	7675.1	
732.8	7268.9	
732.98	5956.9	
733.16	5145.2	
733.34	7240.3	
733.52	6157.6	
733.7	5616.9	
733.88	5804.6	
734.07	7053.9	
734.25	6821.1	
734.43	5193.6	
734.61	6465.4	
734.79	8105.2	
734.97	6698.2	
735.15	5274.9	
735.33	5585.5	
735.51	7040.9	
735.69	6714.6	
735.87	6489.3	
736.05	5715.2	
736.23	6752.8	
736.41	6725.5	
736.59	5534.3	
736.77	5616.2	
736.95	7219.1	
737.13	6751.5	
737.32	5272.2	
737.5	5377.3	
737.68	7715.4	
737.86	6723.5	
738.04	5094.7	
738.22	6604	
738.4	6561.7	
738.58	6731	
738.76	5636	
738.94	4674.1	
739.12	6576	
739.3	6479.1	
739.48	5992.4	
739.66	5859.9	
739.84	6774.7	
740.02	6824.5	
740.2	4831.2	
740.38	5079	
740.56	7138.5	
740.74	6158.2	
740.92	5651.7	
741.1	5556.8	
741.28	6644.3	
741.46	6432.7	
741.64	5233.2	
741.82	5643.5	
742	6655.9	
742.18	6625.2	
742.36	5414.8	
742.54	5041.4	
742.72	7053.9	
742.9	6076.3	
743.08	5729.5	
743.26	4681.7	
743.44	7180.9	
743.62	7109.9	
743.8	5811.5	
743.98	4992.3	
744.16	6842.3	
744.34	6539.8	
744.52	5726.8	
744.7	5672.9	
744.88	6913.3	
745.06	6541.2	
745.24	5696.1	
745.42	5821	
745.6	6971.3	
745.78	6858	
745.96	4702.8	
746.14	4919.9	
746.32	7608.9	
746.5	6950.8	
746.68	5442.1	
746.86	4911	
747.03	7223.2	
747.21	5823.1	
747.39	5343.2	
747.57	4972.5	
747.75	6521.4	
747.93	6969.9	
748.11	4943.1	
748.29	4845.5	
748.47	7980.3	
748.65	6328.9	
748.83	5516.5	
749.01	5362.3	
749.19	6724.2	
749.37	6032	
749.55	5161.6	
749.73	5209.3	
749.91	6462	
750.09	6176.7	
750.26	5242.8	
750.44	4732.9	
750.62	6456.6	
750.8	6434.7	
750.98	4635.2	
751.16	4924	
751.34	6513.9	
751.52	5964.4	
751.7	5609.4	
751.88	4618.2	
752.06	6932.4	
752.24	6636.8	
752.42	4568.3	
752.59	4809.3	
752.77	6413.6	
752.95	7470.3	
753.13	5483.8	
753.31	4995	
753.49	6130.3	
753.67	6427.9	
753.85	5171.1	
754.03	4847.5	
754.21	6636.8	
754.38	6990.4	
754.56	4932.2	
754.74	4100.7	
754.92	5997.1	
755.1	6543.9	
755.28	4110.3	
755.46	4043.4	
755.64	7099.6	
755.82	7189.7	
755.99	4201.1	
756.17	4276.2	
756.35	5007.3	
756.53	6275	
756.71	3218	
756.89	4063.9	
757.07	5874.3	
757.25	5147.2	
757.42	4510.3	
757.6	5266.7	
757.78	6063.4	
757.96	5205.3	
758.14	4341.7	
758.32	3893.9	
758.5	4887.1	
758.67	5540.4	
758.85	4173.8	
759.03	4215.4	
759.21	5643.5	
759.39	5147.9	
759.57	3792.2	
759.75	4795.7	
759.92	6299.6	
760.1	5692	
760.28	5048.9	
760.46	5304.9	
760.64	5448.3	
760.82	5285.1	
760.99	4997	
761.17	4359.4	
761.35	6176.7	
761.53	5250.3	
761.71	4375.8	
761.89	5006.6	
762.06	6120	
762.24	5618.3	
762.42	4456.4	
762.6	4285.7	
762.78	5650.3	
762.96	6160.3	
763.13	4801.1	
763.31	4518.5	
763.49	6332.3	
763.67	5647.6	
763.85	5234.6	
764.02	5707.7	
764.2	6583.5	
764.38	5748.6	
764.56	4426.3	
764.74	5143.1	
764.91	6655.9	
765.09	5698.1	
765.27	4225	
765.45	3992.2	
765.63	6692.8	
765.8	6477.7	
765.98	3843.4	
766.16	4033.8	
766.34	5340.4	
766.52	5156.8	
766.69	4786.1	
766.87	3887	
767.05	5659.9	
767.23	6214.2	
767.41	4142.4	
767.58	4392.9	
767.76	6074.3	
767.94	6160.3	
768.12	4164.2	
768.29	4809.3	
768.47	5637.4	
768.65	6361	
768.83	3953.3	
769	4804.5	
769.18	5295.4	
769.36	5816.2	
769.54	4745.1	
769.72	3888.4	
769.89	6122.7	
770.07	6173.9	
770.25	4236.6	
770.43	5268.7	
770.6	6748.1	
770.78	7113.3	
770.96	4261.8	
771.14	4795	
771.31	5957.5	
771.49	5462.6	
771.67	3551.2	
771.85	3760.1	
772.02	4880.3	
772.2	5412.1	
772.38	4424.3	
772.55	3977.2	
772.73	5705.6	
772.91	5492	
773.09	4272.1	
773.26	4329.4	
773.44	5612.1	
773.62	5334.3	
773.8	3885	
773.97	3671.3	
774.15	5726.8	
774.33	5330.9	
774.5	3780.6	
774.68	4021.5	
774.86	5758.2	
775.04	5305.6	
775.21	3784.6	
775.39	3741	
775.57	5574.6	
775.74	5900.9	
775.92	3674.1	
776.1	3605.8	
776.27	5589.6	
776.45	6574.7	
776.63	3762.1	
776.81	3429.7	
776.98	5290.6	
777.16	6156.2	
777.34	3863.2	
777.51	4209.9	
777.69	5276.9	
777.87	5057.1	
778.04	3971	
778.22	4531.5	
778.4	5060.5	
778.57	5600.5	
778.75	3353.2	
778.93	3573.7	
779.1	4949.3	
779.28	4715.8	
779.46	3334.1	
779.64	3710.9	
779.81	5696.1	
779.99	6464.8	
780.17	4426.3	
780.34	4534.9	
780.52	5250.3	
780.69	5400.5	
780.87	3989.4	
781.05	3646.7	
781.22	5310.4	
781.4	5378.6	
781.58	3773.7	
781.75	3025.5	
781.93	5369.1	
782.11	4820.2	
782.28	4515.8	
782.46	3741.6	
782.64	4654.4	
782.81	5479.7	
782.99	3904.1	
783.17	3755.3	
783.34	5395	
783.52	4785.4	
783.69	3925.3	
783.87	4646.2	
784.05	4805.9	
784.22	4844.1	
784.4	4608.6	
784.58	4050.2	
784.75	5612.1	
784.93	4870.8	
785.1	3719.1	
785.28	4261.8	
785.46	5371.1	
785.63	4728.8	
785.81	3676.8	
785.99	3601	
786.16	4963.6	
786.34	5236	
786.51	3644.7	
786.69	3928.7	
786.87	4607.2	
787.04	5003.2	
787.22	3527.3	
787.39	4268.6	
787.57	4758.8	
787.75	5708.4	
787.92	4448.9	
788.1	4369.7	
788.27	4825	
788.45	4521.2	
788.63	4156.7	
788.8	3078.1	
788.98	5279	
789.15	4506.9	
789.33	3092.4	
789.5	3708.9	
789.68	5531.6	
789.86	5649	
790.03	3975.8	
790.21	3571	
790.38	5528.8	
790.56	4911.7	
790.73	3499.3	
790.91	3485	
791.09	4813.4	
791.26	5382.1	
791.44	3621.5	
791.61	3211.2	
791.79	4737	
791.96	4787.5	
792.14	3253.5	
792.32	2934.7	
792.49	4696	
792.67	4842.1	
792.84	3406.5	
793.02	3213.3	
793.19	5115.1	
793.37	5775.3	
793.54	2945	
793.72	3260.4	
793.89	5862.7	
794.07	4771.1	
794.25	3672.7	
794.42	3031	
794.6	5634	
794.77	5311.1	
794.95	3953.3	
795.12	3515	
795.3	4763.6	
795.47	5282.4	
795.65	3872.7	
795.82	3752.6	
796	4619.5	
796.17	6214.9	
796.35	3583.3	
796.52	4233.8	
796.7	5223	
796.87	5335	
797.05	3602.4	
797.22	4318.5	
797.4	5321.3	
797.57	6124.1	
797.75	3733.4	
797.92	3521.1	
798.1	5554.1	
798.27	4661.2	
798.45	3071.3	
798.62	3267.9	
798.8	5003.9	
798.97	5487.9	
799.15	3910.3	
799.32	3702.7	
799.5	4394.3	
799.67	5064.6	
799.85	3968.3	
800.02	2951.1	
800.2	4756.1	
800.37	4999.1	
800.55	4139.6	
800.72	3461.1	
800.9	5372.5	
801.07	5724.1	
801.25	4666	
801.42	3868.6	
801.6	5464.7	
801.77	5150	
801.95	3636.5	
802.12	3387.3	
802.29	5229.8	
802.47	5111.7	
802.64	3806.5	
802.82	2952.5	
802.99	4687.8	
803.17	5517.2	
803.34	3702	
803.52	3292.5	
803.69	6094.8	
803.87	4494.6	
804.04	3629.7	
804.21	3730	
804.39	5663.3	
804.56	4867.3	
804.74	3166.8	
804.91	3804.4	
805.09	4739.7	
805.26	4822.3	
805.44	3252.2	
805.61	3457.7	
805.78	5275.6	
805.96	5263.3	
806.13	3785.3	
806.31	4100	
806.48	4350.6	
806.66	4816.1	
806.83	3788.1	
807	3711.6	
807.18	4708.3	
807.35	5038.7	
807.53	3702.7	
807.7	3052.8	
807.87	5731.6	
808.05	4762.9	
808.22	4020.8	
808.4	3011.2	
808.57	4755.4	
808.74	4408.6	
808.92	3392.8	
809.09	4216.1	
809.27	4659.8	
809.44	5190.9	
809.61	3018	
809.79	3317.7	
809.96	5750	
810.14	5349.3	
810.31	2965.5	
810.48	3628.3	
810.66	4818.2	
810.83	5390.3	
811.01	3439.9	
811.18	3773.7	
811.35	5359.5	
811.53	4240.7	
811.7	4128	
811.87	3825.6	
812.05	4784.7	
812.22	4683	
812.39	3281.5	
812.57	3241.9	
812.74	4773.1	
812.92	6167.8	
813.09	3552.5	
813.26	3848.1	
813.44	5965.1	
813.61	4680.3	
813.78	2954.5	
813.96	3971.7	
814.13	4758.1	
814.3	4454.3	
814.48	4316.4	
814.65	3588	
814.82	5940.5	
815	4547.9	
815.17	3665.2	
815.34	4431.8	
815.52	4672.1	
815.69	4620.2	
815.87	3640.6	
816.04	3607.2	
816.21	4728.1	
816.38	4230.4	
816.56	3519.1	
816.73	3321.1	
816.9	5924.1	
817.08	5413.5	
817.25	3299.3	
817.42	4115.1	
817.6	4363.5	
817.77	4735.6	
817.94	3768.9	
818.12	3277.4	
818.29	4597.7	
818.46	6795.2	
818.64	3479.5	
818.81	3172.3	
818.98	4471.4	
819.16	6289.3	
819.33	3859.1	
819.5	3639.2	
819.67	5090.6	
819.85	5629.9	
820.02	3583.9	
820.19	3803.1	
820.37	4924	
820.54	4595	
820.71	3690.4	
820.88	4530.1	
821.06	4976.6	
821.23	4558.8	
821.4	3781.9	
821.58	3688.4	
821.75	5312.4	
821.92	4856.4	
822.09	3009.1	
822.27	3109.5	
822.44	4779.3	
822.61	4717.2	
822.79	3127.9	
822.96	5685.8	
823.13	5149.3	
823.3	4513	
823.48	3479.5	
823.65	3119.7	
823.82	5357.5	
823.99	4351.9	
824.17	4369	
824.34	3166.8	
824.51	6111.1	
824.68	4816.1	
824.86	3352.5	
825.03	3735.5	
825.2	4739	
825.37	5675.6	
825.55	3293.8	
825.72	3665.9	
825.89	6098.2	
826.06	5668.8	
826.24	3573.7	
826.41	3599.6	
826.58	5606	
826.75	4965.6	
826.92	2908.1	
827.1	3170.9	
827.27	7578.2	
827.44	6077	
827.61	3396.9	
827.79	4070.7	
827.96	4506.9	
828.13	4852.3	
828.3	3567.6	
828.47	3036.5	
828.65	5004.6	
828.82	4930.1	
828.99	4533.5	
829.16	3950.5	
829.34	5269.4	
829.51	5079	
829.68	3642	
829.85	3725.3	
830.02	5556.1	
830.2	5330.9	
830.37	2909.5	
830.54	4353.3	
830.71	5986.2	
830.88	4715.1	
831.05	2926.5	
831.23	3313.6	
831.4	5750.7	
831.57	6431.3	
831.74	3452.9	
831.91	3052.2	
832.09	5036.6	
832.26	5302.2	
832.43	3474	
832.6	3902.7	
832.77	4967	
832.94	5635.3	
833.12	2833	
833.29	3434.4	
833.46	5151.3	
833.63	6516.6	
833.8	3764.2	
833.97	3485.6	
834.15	5292.6	
834.32	5124.7	
834.49	3655.6	
834.66	3744.4	
834.83	5517.2	
835	4543.1	
835.17	3406.5	
835.35	3410.6	
835.52	5152.7	
835.69	5107	
835.86	3590.8	
836.03	2971.6	
836.2	5283.8	
836.37	4952.7	
836.55	3516.4	
836.72	3307.5	
836.89	4919.2	
837.06	5407.3	
837.23	3540.9	
837.4	3870	
837.57	5988.3	
837.75	6577.4	
837.92	3229.6	
838.09	3416	
838.26	4926.7	
838.43	5509.7	
838.6	3676.1	
838.77	3258.3	
838.94	6156.9	
839.11	5993.7	
839.29	3528.7	
839.46	2821.4	
839.63	5326.1	
839.8	5036.6	
839.97	3420.8	
840.14	3365.5	
840.31	5126.7	
840.48	5345.2	
840.65	2920.4	
840.82	3327.3	
841	5250.3	
841.17	5216.2	
841.34	3143.6	
841.51	3211.9	
841.68	5266.7	
841.85	4965.6	
842.02	3273.3	
842.19	2787.3	
842.36	5051	
842.53	5079	
842.7	3154.6	
842.87	3828.3	
843.05	6580.8	
843.22	4997	
843.39	3026.2	
843.56	3265.8	
843.73	4823	
843.9	5315.8	
844.07	5010	
844.24	4181.3	
844.41	7431.4	
844.58	4604.5	
844.75	3074	
844.92	3250.1	
845.09	5279.7	
845.26	5189.6	
845.43	3076	
845.6	3305.4	
845.77	5270.1	
845.94	5046.9	
846.12	3476.1	
846.29	3682.2	
846.46	5462.6	
846.63	5173.9	
846.8	3145.7	
846.97	3658.4	
847.14	5652.4	
847.31	5208	
847.48	3502.7	
847.65	3784.6	
847.82	5511.1	
847.99	5465.3	
848.16	4093.9	
848.33	3810.6	
848.5	4913.8	
848.67	5674.9	
848.84	3138.2	
849.01	3257.6	
849.18	4725.3	
849.35	4480.3	
849.52	3895.2	
849.69	3099.3	
849.86	5504.3	
850.03	5565	
850.2	3134.8	
850.37	3751.9	
850.54	5580	
850.71	4963.6	
850.88	3703.4	
851.05	3091.1	
851.22	5165.7	
851.39	5684.5	
851.56	2963.4	
851.73	3575.1	
851.9	4661.9	
852.07	5437.4	
852.24	3446	
852.41	3104.7	
852.58	5177.3	
852.75	4715.1	
852.92	3515	
853.09	3035.8	
853.26	4885.1	
853.43	5582.1	
853.6	3108.1	
853.77	2687.6	
853.94	5737.7	
854.11	5225.1	
854.28	4570.4	
854.44	3392.1	
854.61	6100.2	
854.78	5517.9	
854.95	3070.6	
855.12	3872.7	
855.29	4288.4	
855.46	6002.6	
855.63	3162.7	
855.8	4293.2	
855.97	4853	
856.14	5587.5	
856.31	4358.8	
856.48	3340.2	
856.65	4900.8	
856.82	4628.4	
856.99	2979.1	
857.16	3370.3	
857.33	6335	
857.49	4952	
857.66	3344.3	
857.83	3591.5	
858	4962.9	
858.17	5102.2	
858.34	2990	
858.51	3113.6	
858.68	5840.8	
858.85	5828.5	
859.02	3550.5	
859.19	3816	
859.36	4666	
859.52	4704.2	
859.69	3160.7	
859.86	3687.7	
860.03	4730.8	
860.2	5708.4	
860.37	2864.4	
860.54	3173.7	
860.71	5344.5	
860.88	5853.1	
861.05	3443.3	
861.21	3895.9	
861.38	5790.3	
861.55	4523.3	
861.72	2833	
861.89	3459.7	
862.06	5504.9	
862.23	5905	
862.4	3029.6	
862.56	3198.9	
862.73	5385.5	
862.9	5066.7	
863.07	3648.8	
863.24	2858.3	
863.41	4577.9	
863.58	4713.7	
863.75	3177.1	
863.91	3604.4	
864.08	5692.7	
864.25	5397.1	
864.42	3828.3	
864.59	4326.7	
864.76	6019.7	
864.93	4685.1	
865.09	3039.9	
865.26	3256.3	
865.43	5670.1	
865.6	5952.1	
865.77	2724.5	
865.94	3078.1	
866.1	5649	
866.27	5411.4	
866.44	4588.8	
866.61	2932.7	
866.78	4965	
866.95	5371.1	
867.11	3050.1	
867.28	2796.2	
867.45	5569.8	
867.62	4728.1	
867.79	3556	
867.96	3134.1	
868.12	4643.4	
868.29	5498.1	
868.46	2734.7	
868.63	4126	
868.8	5618.9	
868.97	5401.2	
869.13	3263.1	
869.3	3223.5	
869.47	5315.2	
869.64	5522	
869.81	3175.7	
869.97	3112.2	
870.14	5252.4	
870.31	5769.8	
870.48	3086.3	
870.65	3892.5	
870.81	4967	
870.98	4953.4	
871.15	3490.4	
871.32	3282.2	
871.48	5330.2	
871.65	5896.8	
871.82	3142.3	
871.99	3412.6	
872.16	6161.7	
872.32	5620.3	
872.49	3201.7	
872.66	3181.2	
872.83	5442.1	
872.99	4807.3	
873.16	3638.6	
873.33	3094.5	
873.5	5105.6	
873.67	5121.3	
873.83	3284.3	
874	4137.6	
874.17	5288.5	
874.34	6133.7	
874.5	3951.9	
874.67	3822.9	
874.84	5758.2	
875.01	4630.5	
875.17	4217.5	
875.34	3164.1	
875.51	5154.1	
875.68	6212.9	
875.84	3718.4	
876.01	4491.9	
876.18	5395	
876.34	5317.9	
876.51	3112.9	
876.68	3091.1	
876.85	4970.4	
877.01	5607.3	
877.18	4386.7	
877.35	3073.3	
877.52	5124	
877.68	4572.4	
877.85	3089	
878.02	3013.9	
878.18	5012.7	
878.35	4798.4	
878.52	2544.3	
878.69	3480.9	
878.85	5532.2	
879.02	5336.3	
879.19	4303.5	
879.35	3357.3	
879.52	5435.3	
879.69	5501.5	
879.86	2709.5	
880.02	3441.3	
880.19	5044.8	
880.36	6167.8	
880.52	3543.7	
880.69	3606.5	
880.86	5485.1	
881.02	5543.9	
881.19	3418.1	
881.36	3381.9	
881.52	5394.3	
881.69	4866	
881.86	3314.3	
882.02	3283.6	
882.19	5584.1	
882.36	6477.7	
882.52	3141.6	
882.69	4316.4	
882.86	5203.9	
883.02	5160.2	
883.19	3738.2	
883.36	3536.8	
883.52	5439.4	
883.69	6187.6	
883.86	3168.9	
884.02	2828.2	
884.19	5462.6	
884.36	5068	
884.52	3463.1	
884.69	3273.3	
884.86	4855.1	
885.02	5954.1	
885.19	3462.4	
885.36	3584.6	
885.52	5051.7	
885.69	5279	
885.86	4435.9	
886.02	3986.7	
886.19	5434.6	
886.35	4940.4	
886.52	3414	
886.69	4305.5	
886.85	4724.7	
887.02	5821	
887.19	5821	
887.35	5821	
887.52	5821	
887.68	5821	
887.85	5821	
888.02	5821	
888.18	5821	
888.35	5821	
888.51	5821	
888.68	5821	
888.85	5821	
889.01	5821	
889.18	5821	
889.35	5821	
889.51	5821	
889.68	5821	
889.84	5821	
890.01	5821	
890.17	5821	
890.34	5821	
890.51	5821	
890.67	5821	
890.84	5821	
891	5821	
891.17	5821	
891.34	5821	
891.5	5821	
891.67	5821	
891.83	5821	
892	5821	
892.16	5821	
892.33	5821	
892.5	5821	
892.66	5821	
892.83	5821	
892.99	5821	
893.16	5821	
893.32	5821	
893.49	5821	
893.65	5821	
893.82	5821	
893.99	5821	
894.15	5821	
894.32	5821	
894.48	5821	
894.65	5821	
894.81	5821	
894.98	5821	
895.14	5821	
895.31	5821	
895.47	5821	
895.64	5821	
895.81	5821	
895.97	5821	
896.14	5821	
896.3	5821	
896.47	5821	
896.63	5821	
896.8	5821	
896.96	5821	
897.13	5821	
897.29	5821	
897.46	5821	
897.62	5821	
897.79	5821	
897.95	5821	
898.12	5821	
898.28	5821	
898.45	5821	
898.61	5821	
898.78	5821	
898.94	5821	
899.11	5821	
899.27	5821	
899.44	5821	
899.6	5821	
899.77	5821	
899.93	5821	
900.1	5821	
900.26	5821	
900.43	5821	
900.59	5821	
900.76	5821	
900.92	5821	
901.09	5821	
901.25	5821	
901.42	5821	
901.58	5821	
901.75	5821	
901.91	5821	
902.07	5821	
902.24	5821	
902.4	5821	
902.57	5821	
902.73	5821	
902.9	5821	
903.06	5821	
903.23	5821	
903.39	5821	
903.56	5821	
903.72	5821	
903.88	5821	
904.05	5821	
904.21	5821	
904.38	5821	
904.54	5821	
904.71	5821	
904.87	5821	
905.03	5821	
905.2	5821	
905.36	5821	
905.53	5821	
905.69	5821	
905.86	5821	
906.02	5821	
906.18	5821	
906.35	5821	
906.51	5821	
906.68	5821	
906.84	5821	
907.01	5821	
907.17	5821	
907.33	5821	
907.5	5821	
907.66	5821	
907.83	5821	
907.99	5821	
908.15	5821	
908.32	5821	
908.48	5821	
908.65	5821	
908.81	5821	
908.97	5821	
909.14	5821	
909.3	5821	
909.47	5821	
909.63	5821	
909.79	5821	
909.96	5821	
910.12	5821	
910.28	5821	
910.45	5821	
910.61	5821	
910.78	5821	
910.94	5821	
911.1	5821	
911.27	5821	
911.43	5821	
911.59	5821	
911.76	5821	
911.92	5821	
912.08	5821	
912.25	5821	
912.41	5821	
912.57	5821	
912.74	5821	
912.9	5821	
913.07	5821	
913.23	5821	
913.39	5821	
913.56	5821	
913.72	5821	
913.88	5821	
914.05	5821	
914.21	5821	
914.37	5821	
914.54	5821	
914.7	5821	
914.86	5821	
915.03	5821	
915.19	5821	
