Wavelength	Intensities	
nm	a.u.	
179.22	1746.1	
179.44	1732.2	
179.65	1759.9	
179.86	1704.6	
180.08	1755.1	
180.29	4053.6	
180.51	3047.4	
180.72	5027.8	
180.94	5691.3	
181.15	2828.9	
181.37	2735.4	
181.58	4885.1	
181.79	5109	
182.01	2879.4	
182.22	3096.5	
182.44	5162.2	
182.65	4399	
182.87	3787.4	
183.08	3334.1	
183.29	5335.6	
183.51	4475.5	
183.72	3093.1	
183.94	4286.4	
184.15	4853	
184.37	4747.2	
184.58	2736.1	
184.79	3616.7	
185.01	4487.1	
185.22	5188.9	
185.44	3830.4	
185.65	3245.3	
185.86	4797.7	
186.08	4428.4	
186.29	2731.3	
186.51	2878.1	
186.72	4538.3	
186.94	5215.5	
187.15	3258.3	
187.36	3372.3	
187.58	6534.4	
187.79	4949.3	
188.01	3437.2	
188.22	5193.6	
188.43	5741.1	
188.65	5067.4	
188.86	2917.7	
189.08	3390.8	
189.29	4659.1	
189.5	4641.4	
189.72	3088.3	
189.93	3190.7	
190.15	5241.4	
190.36	6140.5	
190.57	3418.7	
190.79	3310.9	
191	5258.5	
191.22	5279.7	
191.43	3390.1	
191.64	2910.2	
191.86	5468.8	
192.07	5304.2	
192.29	3005.7	
192.5	3125.2	
192.71	5203.2	
192.93	4611.3	
193.14	3072.6	
193.35	3138.9	
193.57	4545.1	
193.78	5195.7	
194	2555.2	
194.21	3056.9	
194.42	4505.5	
194.64	4831.2	
194.85	3347.1	
195.07	3904.8	
195.28	4840	
195.49	4241.3	
195.71	3992.2	
195.92	2970.9	
196.13	5023	
196.35	5069.4	
196.56	4316.4	
196.78	3370.3	
196.99	5967.1	
197.2	5662.6	
197.42	3805.8	
197.63	3377.8	
197.84	4420.2	
198.06	5002.5	
198.27	3081.5	
198.48	4073.4	
198.7	4674.1	
198.91	4761.5	
199.13	3346.4	
199.34	3330.7	
199.55	5217.5	
199.77	4184	
199.98	3047.4	
200.19	3418.7	
200.41	4697.4	
200.62	4495.3	
200.83	3543	
201.05	3734.1	
201.26	4782	
201.47	4576.5	
201.69	3083.6	
201.9	2938.2	
202.11	4805.2	
202.33	5557.5	
202.54	3205.8	
202.76	3516.4	
202.97	4844.1	
203.18	4915.8	
203.4	3483.6	
203.61	3530	
203.82	4882.4	
204.04	4591.5	
204.25	3374.4	
204.46	3358.7	
204.68	4812	
204.89	5042.1	
205.1	3285.6	
205.32	2882.2	
205.53	5110.4	
205.74	5273.5	
205.96	2555.9	
206.17	3433.8	
206.38	5067.4	
206.6	5223	
206.81	3867.9	
207.02	3151.1	
207.24	5059.8	
207.45	5304.9	
207.66	3250.8	
207.88	2841.2	
208.09	4964.3	
208.3	4824.3	
208.52	3003.7	
208.73	3302	
208.94	4777.9	
209.15	5385.5	
209.37	3262.4	
209.58	3596.9	
209.79	5227.8	
210.01	4688.5	
210.22	2662.4	
210.43	2797.5	
210.65	4815.5	
210.86	5096	
211.07	3211.2	
211.29	2969.6	
211.5	5032.5	
211.71	4748.6	
211.93	3031	
212.14	2938.8	
212.35	4757.4	
212.56	4894.6	
212.78	3360.7	
212.99	2842.6	
213.2	5528.8	
213.42	4695.3	
213.63	3112.2	
213.84	3298.6	
214.06	4360.1	
214.27	4458.4	
214.48	3254.9	
214.69	3485.6	
214.91	5346.6	
215.12	5371.8	
215.33	3439.9	
215.55	3693.9	
215.76	5823.7	
215.97	5076.2	
216.18	3339.6	
216.4	3222.8	
216.61	4541.7	
216.82	5171.8	
217.04	3045.3	
217.25	3098.6	
217.46	5352.7	
217.67	5143.8	
217.89	2746.3	
218.1	2833	
218.31	4814.8	
218.53	4945.8	
218.74	3126.6	
218.95	3029.6	
219.16	4797.7	
219.38	5507.7	
219.59	3032.4	
219.8	3547.1	
220.01	5980.8	
220.23	4812.7	
220.44	3879.5	
220.65	2979.1	
220.87	4913.1	
221.08	5281	
221.29	2856.2	
221.5	3637.2	
221.72	6274.3	
221.93	4566.3	
222.14	3366.9	
222.35	3948.5	
222.57	4803.9	
222.78	5109	
222.99	3315	
223.2	3447.4	
223.42	5070.1	
223.63	5135.6	
223.84	2570.2	
224.05	2538.8	
224.27	5881.8	
224.48	5500.2	
224.69	3938.2	
224.9	3373.7	
225.12	4992.9	
225.33	4756.1	
225.54	2777	
225.75	3054.2	
225.97	4475.5	
226.18	4752	
226.39	3229	
226.6	3054.2	
226.82	4666	
227.03	4534.2	
227.24	3371	
227.45	2864.4	
227.67	5130.8	
227.88	5480.4	
228.09	3794.9	
228.3	3762.8	
228.52	5087.8	
228.73	4803.9	
228.94	3146.4	
229.15	2847.4	
229.36	4799.8	
229.58	4734.2	
229.79	3197.6	
230	3573.7	
230.21	5711.8	
230.43	4850.3	
230.64	3379.1	
230.85	3463.1	
231.06	5205.3	
231.28	5113.1	
231.49	2827.6	
231.7	3335.5	
231.91	5085.8	
232.12	4768.4	
232.34	2949.1	
232.55	3277.4	
232.76	5305.6	
232.97	4932.9	
233.18	2993.4	
233.4	3303.4	
233.61	4999.8	
233.82	4589.5	
234.03	3140.2	
234.25	3164.8	
234.46	6367.1	
234.67	4848.2	
234.88	3457.7	
235.09	3052.2	
235.31	4922	
235.52	4692.6	
235.73	3308.8	
235.94	2921.1	
236.15	4579.9	
236.37	5704.3	
236.58	2984.6	
236.79	3280.2	
237	5059.2	
237.21	4432.5	
237.43	3453.6	
237.64	2833.7	
237.85	8017.1	
238.06	4508.3	
238.27	3492.5	
238.48	2886.3	
238.7	5107	
238.91	4692.6	
239.12	3219.4	
239.33	3327.9	
239.54	4685.8	
239.76	4743.1	
239.97	3244	
240.18	3242.6	
240.39	5790.3	
240.6	4952.7	
240.82	3407.8	
241.03	2833	
241.24	4807.9	
241.45	5442.1	
241.66	2981.2	
241.87	3532.7	
242.09	5418.2	
242.3	5596.4	
242.51	3512.9	
242.72	3222.8	
242.93	5143.1	
243.14	4780	
243.36	3691.8	
243.57	3935.5	
243.78	5502.2	
243.99	5155.4	
244.2	3264.5	
244.41	3003.7	
244.63	4465.9	
244.84	5016.8	
245.05	3540.3	
245.26	3267.9	
245.47	5063.3	
245.68	5182.7	
245.9	4194.2	
246.11	3410.6	
246.32	4661.2	
246.53	5033.9	
246.74	5108.3	
246.95	2783.9	
247.16	4448.9	
247.38	4816.8	
247.59	2812.5	
247.8	3288.4	
248.01	4445.5	
248.22	4814.1	
248.43	3023.5	
248.64	3199.6	
248.86	4444.1	
249.07	4631.1	
249.28	2916.3	
249.49	3325.9	
249.7	5231.9	
249.91	5273.5	
250.12	2775	
250.34	2839.8	
250.55	4915.1	
250.76	4858.5	
250.97	3364.1	
251.18	3424.2	
251.39	5347.9	
251.6	4952.7	
251.81	3433.1	
252.03	3395.5	
252.24	4607.2	
252.45	5193	
252.66	2893.1	
252.87	3575.1	
253.08	4873.5	
253.29	6018.3	
253.5	2919	
253.72	3895.9	
253.93	4719.2	
254.14	5571.2	
254.35	3108.8	
254.56	3161.4	
254.77	4903.5	
254.98	4534.9	
255.19	3101.3	
255.41	3900	
255.62	4930.8	
255.83	5255.8	
256.04	3500	
256.25	3377.8	
256.46	5714.5	
256.67	4602.5	
256.88	3372.3	
257.09	3687	
257.31	4512.4	
257.52	4557.4	
257.73	4169	
257.94	3141.6	
258.15	4753.3	
258.36	4859.8	
258.57	3852.9	
258.78	2554.5	
258.99	5209.3	
259.2	4628.4	
259.41	3080.8	
259.63	3227.6	
259.84	5488.6	
260.05	5720	
260.26	3991.5	
260.47	3087.7	
260.68	5312.4	
260.89	4721.9	
261.1	3661.1	
261.31	2972.3	
261.52	5349.3	
261.73	5536.3	
261.95	3951.2	
262.16	3462.4	
262.37	5369.1	
262.58	5427.1	
262.79	3934.8	
263	3186.6	
263.21	4870.8	
263.42	4712.4	
263.63	3343.7	
263.84	3108.8	
264.05	5299.5	
264.26	5465.3	
264.47	3788.7	
264.69	3440.6	
264.9	5406.6	
265.11	4990.2	
265.32	3025.5	
265.53	3094.5	
265.74	4954.7	
265.95	4323.3	
266.16	3283.6	
266.37	3590.1	
266.58	4858.5	
266.79	4691.2	
267	3156.6	
267.21	2917	
267.42	4469.4	
267.63	4765.6	
267.84	3225.6	
268.06	2856.9	
268.27	5212.1	
268.48	5334.3	
268.69	3160	
268.9	3680.9	
269.11	5317.9	
269.32	4356.7	
269.53	3226.9	
269.74	3051.5	
269.95	4982	
270.16	4350.6	
270.37	3228.3	
270.58	3720.5	
270.79	4717.8	
271	5188.2	
271.21	3466.5	
271.42	3309.5	
271.63	4999.1	
271.84	4491.9	
272.05	2650.8	
272.26	2981.2	
272.47	4792.9	
272.68	4973.8	
272.89	3158.7	
273.11	3512.3	
273.32	4665.3	
273.53	5493.3	
273.74	3432.4	
273.95	3392.1	
274.16	5230.5	
274.37	4845.5	
274.58	3557.3	
274.79	2876.7	
275	4969.7	
275.21	5270.8	
275.42	4179.9	
275.63	3609.9	
275.84	4997.7	
276.05	6158.2	
276.26	3415.3	
276.47	3151.1	
276.68	4754	
276.89	5624.4	
277.1	3599	
277.31	2899.9	
277.52	4988.9	
277.73	5205.3	
277.94	2897.2	
278.15	3170.9	
278.36	4989.5	
278.57	4571.7	
278.78	3121.1	
278.99	3508.9	
279.2	4543.1	
279.41	4510.3	
279.62	4086.4	
279.83	2913.6	
280.04	5760.9	
280.25	4487.1	
280.46	4029	
280.67	3277.4	
280.88	4576.5	
281.09	5328.8	
281.3	3442	
281.51	4241.3	
281.72	4661.9	
281.93	5184.1	
282.14	3024.8	
282.35	3295.9	
282.56	5246.9	
282.77	5198.4	
282.98	3146.4	
283.19	3801	
283.4	6204.7	
283.61	4749.2	
283.82	2967.5	
284.03	3951.9	
284.24	5029.8	
284.45	5258.5	
284.66	3969.6	
284.87	3747.8	
285.08	5301.5	
285.29	5348.6	
285.5	2846.7	
285.71	3271.3	
285.92	5246.2	
286.12	5813.5	
286.33	3969.6	
286.54	3243.3	
286.75	5227.8	
286.96	4711	
287.17	2972.3	
287.38	3831.1	
287.59	4651.6	
287.8	4528.1	
288.01	3201	
288.22	3571	
288.43	5115.1	
288.64	4392.2	
288.85	3739.6	
289.06	3636.5	
289.27	5396.4	
289.48	5483.8	
289.69	3998.3	
289.9	3620.8	
290.11	5367.7	
290.32	4647.5	
290.53	3806.5	
290.74	3470.6	
290.94	5178.6	
291.15	5190.9	
291.36	3070.6	
291.57	3546.4	
291.78	4687.1	
291.99	4334.2	
292.2	2983.2	
292.41	3542.3	
292.62	5264	
292.83	5069.4	
293.04	4248.9	
293.25	3022.1	
293.46	4670.7	
293.67	5264.6	
293.88	3062.4	
294.09	3010.5	
294.29	4476.2	
294.5	4975.9	
294.71	3276.1	
294.92	3129.3	
295.13	4728.8	
295.34	5641.5	
295.55	2783.2	
295.76	2792.1	
295.97	5130.8	
296.18	5726.1	
296.39	2924.5	
296.6	3085.6	
296.81	4893.3	
297.01	5178.6	
297.22	3255.6	
297.43	3150.5	
297.64	4602.5	
297.85	4511	
298.06	2575	
298.27	2818	
298.48	4821.6	
298.69	4564.9	
298.9	3337.5	
299.11	3035.8	
299.31	4542.4	
299.52	4479.6	
299.73	3524.6	
299.94	3422.2	
300.15	4821.6	
300.36	4568.3	
300.57	3379.1	
300.78	3457.7	
300.99	4709.6	
301.2	4865.3	
301.4	3098.6	
301.61	3340.9	
301.82	5124.7	
302.03	5148.6	
302.24	3702	
302.45	2979.1	
302.66	5031.9	
302.87	5337.7	
303.08	3120.4	
303.29	4049.5	
303.49	4651.6	
303.7	4804.5	
303.91	2768.2	
304.12	3908.9	
304.33	4431.8	
304.54	4982	
304.75	3103.4	
304.96	3002.3	
305.16	5037.3	
305.37	5608.7	
305.58	2730.6	
305.79	2780.5	
306	5111.7	
306.21	4339	
306.42	3091.1	
306.63	4536.3	
306.83	4742.4	
307.04	5196.4	
307.25	3379.1	
307.46	3383.2	
307.67	4276.8	
307.88	5139	
308.09	3061	
308.29	3138.2	
308.5	4884.4	
308.71	5203.9	
308.92	3252.9	
309.13	2986.6	
309.34	4767.7	
309.55	4736.3	
309.75	3801	
309.96	3446	
310.17	5130.8	
310.38	4573.1	
310.59	3647.4	
310.8	2921.8	
311.01	4655.7	
311.21	4765.6	
311.42	2979.8	
311.63	3020.1	
311.84	4632.5	
312.05	4897.4	
312.26	3424.2	
312.46	3677.5	
312.67	4685.1	
312.88	4422.9	
313.09	3006.4	
313.3	2928.6	
313.51	5492	
313.71	5667.4	
313.92	3045.3	
314.13	3080.1	
314.34	4995	
314.55	4773.1	
314.76	3721.8	
314.96	3320.4	
315.17	4882.4	
315.38	5055.8	
315.59	3007.8	
315.8	2888.3	
316.01	5453.7	
316.21	5513.1	
316.42	2902	
316.63	3295.2	
316.84	4730.8	
317.05	5354.1	
317.26	3474.7	
317.46	3216.7	
317.67	4761.5	
317.88	5152.7	
318.09	3719.8	
318.3	2834.4	
318.5	4704.2	
318.71	5038.7	
318.92	4638	
319.13	3500.7	
319.34	5221.6	
319.54	5347.9	
319.75	2795.5	
319.96	2675.3	
320.17	5104.2	
320.38	5259.9	
320.58	2767.5	
320.79	3208.5	
321	5311.7	
321.21	5358.2	
321.42	3293.1	
321.62	2741.5	
321.83	4575.8	
322.04	4842.1	
322.25	3171.6	
322.46	3038.5	
322.66	4868	
322.87	5038	
323.08	3607.8	
323.29	2926.5	
323.5	5633.3	
323.7	4473.4	
323.91	3970.3	
324.12	3617.4	
324.33	4959.5	
324.53	5059.8	
324.74	3491.1	
324.95	3649.5	
325.16	4398.4	
325.37	4699.4	
325.57	3034.4	
325.78	3009.1	
325.99	4930.1	
326.2	4491.2	
326.4	4175.1	
326.61	2807.8	
326.82	4739	
327.03	4968.4	
327.24	4148.5	
327.44	3876.1	
327.65	5079	
327.86	4166.9	
328.07	3468.6	
328.27	2865.1	
328.48	5366.4	
328.69	4507.6	
328.9	4199	
329.1	3201.7	
329.31	4745.8	
329.52	5425.1	
329.73	3059	
329.93	3338.2	
330.14	4900.1	
330.35	5018.2	
330.56	4706.9	
330.76	3583.3	
330.97	4729.4	
331.18	4966.3	
331.39	3359.4	
331.59	2759.3	
331.8	5272.8	
332.01	5351.3	
332.22	3105.4	
332.42	3455.6	
332.63	4950.6	
332.84	4545.8	
333.05	3290.4	
333.25	3054.2	
333.46	4620.9	
333.67	4806.6	
333.88	3148.4	
334.08	3403	
334.29	6223.8	
334.5	5367.7	
334.7	2899.2	
334.91	4112.3	
335.12	4443.4	
335.33	5120.6	
335.53	3330.7	
335.74	4712.4	
335.95	4711	
336.16	4526.7	
336.36	3381.9	
336.57	3708.9	
336.78	4422.9	
336.98	5227.1	
337.19	3989.4	
337.4	3183.2	
337.61	5739.1	
337.81	4463.9	
338.02	3121.8	
338.23	3820.8	
338.43	5432.6	
338.64	4607.9	
338.85	3057.6	
339.05	3902.7	
339.26	5541.1	
339.47	4379.2	
339.68	3024.8	
339.88	4317.8	
340.09	5077.6	
340.3	5229.1	
340.5	3488.4	
340.71	2721.8	
340.92	4471.4	
341.13	5348.6	
341.33	2910.8	
341.54	3521.8	
341.75	5014.1	
341.95	4688.5	
342.16	3341.6	
342.37	3561.4	
342.57	4517.1	
342.78	4770.4	
342.99	3680.2	
343.19	2775	
343.4	5134.3	
343.61	5013.4	
343.81	3205.1	
344.02	2955.2	
344.23	5169.8	
344.43	5422.3	
344.64	3690.4	
344.85	3581.9	
345.06	5068	
345.26	5227.1	
345.47	3469.9	
345.68	3983.3	
345.88	4359.4	
346.09	5203.2	
346.3	3523.2	
346.5	2706.7	
346.71	4795	
346.92	4584	
347.12	2902.7	
347.33	3414.6	
347.54	5217.5	
347.74	5509	
347.95	3437.9	
348.16	2656.2	
348.36	4675.5	
348.57	4541	
348.78	3500	
348.98	3595.6	
349.19	4773.8	
349.39	4381.3	
349.6	2840.5	
349.81	3062.4	
350.01	5053.7	
350.22	4621.6	
350.43	3384.6	
350.63	3857.7	
350.84	4878.3	
351.05	4662.5	
351.25	3082.2	
351.46	2867.8	
351.67	5225.1	
351.87	4575.2	
352.08	3238.5	
352.29	3639.2	
352.49	5193	
352.7	5245.5	
352.9	2956.6	
353.11	3581.9	
353.32	5658.5	
353.52	4685.8	
353.73	3040.6	
353.94	3700.7	
354.14	5083.1	
354.35	4868.7	
354.55	3103.4	
354.76	3349.8	
354.97	5082.4	
355.17	4869.4	
355.38	2975	
355.59	3889.8	
355.79	4657.8	
356	4847.5	
356.2	3345.7	
356.41	3028.3	
356.62	4533.5	
356.82	4839.4	
357.03	3670	
357.24	3293.1	
357.44	4718.5	
357.65	4774.5	
357.85	4207.2	
358.06	3422.2	
358.27	4457.7	
358.47	4642.1	
358.68	3010.5	
358.88	3556.6	
359.09	5072.8	
359.3	5358.9	
359.5	4127.3	
359.71	3637.2	
359.91	5689.9	
360.12	5159.5	
360.33	3723.2	
360.53	3955.3	
360.74	4766.3	
360.94	4782	
361.15	3774.4	
361.36	3276.8	
361.56	5312.4	
361.77	4954	
361.97	4185.4	
362.18	3446.7	
362.38	5373.2	
362.59	4648.2	
362.8	3209.8	
363	3112.9	
363.21	4512.4	
363.41	5040.1	
363.62	3547.1	
363.83	4323.9	
364.03	5199.1	
364.24	5790.3	
364.44	4418.8	
364.65	4371	
364.85	4957.4	
365.06	4731.5	
365.27	3289	
365.47	3424.9	
365.68	5599.1	
365.88	4972.5	
366.09	3646.1	
366.29	3396.9	
366.5	5117.9	
366.71	5382.1	
366.91	4386.7	
367.12	3831.1	
367.32	5851.7	
367.53	5336.3	
367.73	3792.8	
367.94	4450.2	
368.14	5299.5	
368.35	5885.2	
368.56	3650.2	
368.76	3567.6	
368.97	5437.4	
369.17	6647	
369.38	3383.2	
369.58	3588.7	
369.79	4600.4	
369.99	5657.9	
370.2	4346.5	
370.4	3640.6	
370.61	5152	
370.82	6094.1	
371.02	3608.5	
371.23	3103.4	
371.43	4627	
371.64	5648.3	
371.84	3631	
372.05	4461.8	
372.25	6466.8	
372.46	5294.7	
372.66	3614	
372.87	3695.9	
373.07	5429.8	
373.28	6643.6	
373.48	4323.9	
373.69	4134.8	
373.9	5151.3	
374.1	5118.6	
374.31	4354	
374.51	4005.8	
374.72	5732.9	
374.92	4906.9	
375.13	4443.4	
375.33	3963.5	
375.54	5394.3	
375.74	5055.1	
375.95	3971	
376.15	4930.8	
376.36	5459.9	
376.56	5344.5	
376.77	4076.1	
376.97	4374.5	
377.18	6306.4	
377.38	5596.4	
377.59	4589.5	
377.79	3792.2	
378	5417.6	
378.2	5754.1	
378.41	3779.9	
378.61	3766.2	
378.82	5794.4	
379.02	5210.7	
379.23	3923.2	
379.43	4704.9	
379.64	5963	
379.84	5584.8	
380.05	3781.2	
380.25	3737.5	
380.46	5627.1	
380.66	5323.4	
380.87	4754.7	
381.07	4984.8	
381.28	6116.6	
381.48	5634.6	
381.69	3762.8	
381.89	3791.5	
382.1	4833.9	
382.3	5689.3	
382.51	4519.9	
382.71	5274.2	
382.91	5503.6	
383.12	5949.3	
383.32	3921.2	
383.53	4153.3	
383.73	5451.7	
383.94	5419.6	
384.14	4149.9	
384.35	3487	
384.55	5220.3	
384.76	5561.6	
384.96	3987.4	
385.17	4226.3	
385.37	5567.1	
385.58	4984.1	
385.78	4184.7	
385.98	3438.5	
386.19	5217.5	
386.39	5480.4	
386.6	3810.6	
386.8	3992.2	
387.01	5586.2	
387.21	5575.3	
387.42	4279.6	
387.62	4719.9	
387.83	5238	
388.03	5457.8	
388.23	4082.3	
388.44	4620.9	
388.64	5040.7	
388.85	5013.4	
389.05	4321.9	
389.26	4787.5	
389.46	6454.5	
389.67	6007.4	
389.87	4396.3	
390.07	4382	
390.28	5429.2	
390.48	5079.6	
390.69	3828.3	
390.89	4076.1	
391.1	5233.9	
391.3	5885.2	
391.5	4884.4	
391.71	5325.4	
391.91	5715.9	
392.12	6442.9	
392.32	4962.9	
392.53	4332.1	
392.73	5358.9	
392.93	5433.3	
393.14	4148.5	
393.34	4705.5	
393.55	5633.3	
393.75	5352.7	
393.95	4093.2	
394.16	4001.7	
394.36	5184.8	
394.57	5669.5	
394.77	3716.4	
394.98	3964.9	
395.18	5168.4	
395.38	5200.5	
395.59	4752	
395.79	3959.4	
396	5419.6	
396.2	5785.5	
396.4	4616.8	
396.61	4640	
396.81	5841.5	
397.02	5356.8	
397.22	4769.7	
397.42	4846.9	
397.63	5882.4	
397.83	5350.7	
398.04	4036.5	
398.24	4347.2	
398.44	5705.6	
398.65	4988.9	
398.85	3872.7	
399.05	3936.2	
399.26	5375.2	
399.46	6617.7	
399.67	4252.9	
399.87	4009.2	
400.07	5649.7	
400.28	5829.2	
400.48	4183.3	
400.69	5005.9	
400.89	6038.8	
401.09	6380.1	
401.3	4079.6	
401.5	4953.4	
401.7	6526.9	
401.91	6752.2	
402.11	4499.4	
402.32	4522.6	
402.52	6072.9	
402.72	5954.8	
402.93	4672.8	
403.13	3844	
403.33	6586.3	
403.54	5581.4	
403.74	4296	
403.94	4986.1	
404.15	5587.5	
404.35	6438.1	
404.56	4129.4	
404.76	5477.6	
404.96	5927.5	
405.17	5799.8	
405.37	4858.5	
405.57	4564.2	
405.78	6027.2	
405.98	5614.8	
406.18	4291.9	
406.39	4949.3	
406.59	5995.8	
406.79	5618.3	
407	4103.4	
407.2	4133.5	
407.4	6054.5	
407.61	6077	
407.81	4186	
408.01	5834	
408.22	5274.9	
408.42	6732.4	
408.62	5072.8	
408.83	4788.2	
409.03	5881.8	
409.23	5818.3	
409.44	4838	
409.64	5055.8	
409.84	6739.2	
410.05	6600.6	
410.25	5052.3	
410.45	4883.7	
410.66	6322.1	
410.86	8150.2	
411.06	5276.9	
411.27	5111.7	
411.47	7996	
411.67	6397.9	
411.88	5354.1	
412.08	5560.9	
412.28	6975.4	
412.49	7352.9	
412.69	5143.1	
412.89	5175.2	
413.09	7156.3	
413.3	7081.2	
413.5	5307.7	
413.7	5049.6	
413.91	6478.4	
414.11	7181.5	
414.31	5203.9	
414.52	5558.2	
414.72	6938.5	
414.92	6919.4	
415.12	5218.9	
415.33	5603.2	
415.53	7252.5	
415.73	7343.3	
415.94	5815.5	
416.14	5475.6	
416.34	6602.7	
416.55	6292.7	
416.75	6394.4	
416.95	5969.1	
417.15	7290.1	
417.36	7712	
417.56	6535.1	
417.76	5838.1	
417.97	7526.3	
418.17	7236.8	
418.37	5536.3	
418.57	5633.3	
418.78	7194.5	
418.98	6941.2	
419.18	6163	
419.38	6111.8	
419.59	6948.8	
419.79	6548	
419.99	5380	
420.2	5689.9	
420.4	7310.6	
420.6	7386.3	
420.8	5441.5	
421.01	5233.2	
421.21	7259.4	
421.41	7286.7	
421.61	5628.5	
421.82	5469.4	
422.02	6838.2	
422.22	7473	
422.42	6035.4	
422.63	5766.4	
422.83	6868.9	
423.03	7767.9	
423.23	5795.1	
423.44	4959.5	
423.64	6879.1	
423.84	6635.4	
424.04	5369.8	
424.25	5072.8	
424.45	7585	
424.65	7445.7	
424.85	4900.8	
425.06	5284.4	
425.26	7662.8	
425.46	6715.3	
425.66	5715.2	
425.87	5436	
426.07	7262.8	
426.27	7131	
426.47	5535.7	
426.67	5085.1	
426.88	7606.8	
427.08	7103.7	
427.28	5726.8	
427.48	5044.8	
427.69	6308.4	
427.89	6767.9	
428.09	5679.7	
428.29	5043.5	
428.5	7337.9	
428.7	7002.7	
428.9	4947.2	
429.1	5229.8	
429.3	6952.2	
429.51	7153.6	
429.71	5225.7	
429.91	5818.3	
430.11	7248.4	
430.31	7375.4	
430.52	5441.5	
430.72	5741.1	
430.92	7649.8	
431.12	7181.5	
431.32	5198.4	
431.53	5518.6	
431.73	6375.3	
431.93	7634.1	
432.13	5132.9	
432.33	5062.6	
432.54	6836.8	
432.74	7028.6	
432.94	5031.9	
433.14	5891.3	
433.34	7262.1	
433.55	6896.9	
433.75	5801.9	
433.95	7187	
434.15	7041.6	
434.35	6737.1	
434.56	5192.3	
434.76	4989.5	
434.96	7046.4	
435.16	7264.1	
435.36	5155.4	
435.56	6007.4	
435.77	6774	
435.97	6929.6	
436.17	6591.7	
436.37	5930.2	
436.57	6800.6	
436.78	6774.7	
436.98	5930.9	
437.18	6450.4	
437.38	7175.4	
437.58	6911.9	
437.78	6564.4	
437.99	5535.7	
438.19	7249.8	
438.39	7907.2	
438.59	5459.9	
438.79	5081.7	
438.99	7698.3	
439.2	6774.7	
439.4	4994.3	
439.6	5045.5	
439.8	7043	
440	8004.8	
440.2	5972.6	
440.4	6025.1	
440.61	7529.7	
440.81	7952.9	
441.01	5418.9	
441.21	6148.7	
441.41	7950.9	
441.61	7492.8	
441.81	6303	
442.02	7086	
442.22	8176.9	
442.42	7615	
442.62	5478.3	
442.82	5433.9	
443.02	7899.7	
443.22	7268.2	
443.43	5828.5	
443.63	5490.6	
443.83	7150.8	
444.03	7092.1	
444.23	6392.4	
444.43	6123.4	
444.63	7461.4	
444.83	8244.4	
445.04	5692.7	
445.24	6516	
445.44	7740	
445.64	7707.2	
445.84	6108.4	
446.04	6177.4	
446.24	7103.7	
446.44	7834.8	
446.65	5532.9	
446.85	5817.6	
447.05	7356.3	
447.25	7802.8	
447.45	5862.7	
447.65	5373.2	
447.85	7365.2	
448.05	7027.3	
448.25	6225.1	
448.46	5969.1	
448.66	7346.1	
448.86	7052.5	
449.06	5291.3	
449.26	6198.5	
449.46	7577.5	
449.66	6917.4	
449.86	5870.8	
450.06	5783.5	
450.26	6995.2	
450.47	7467.6	
450.67	6004.6	
450.87	6206.7	
451.07	7624.6	
451.27	7389.8	
451.47	5461.2	
451.67	5949.3	
451.87	7184.3	
452.07	8012.3	
452.27	5747.3	
452.47	5726.8	
452.67	7425.3	
452.88	7726.3	
453.08	5173.9	
453.28	6727.6	
453.48	8337.3	
453.68	7251.9	
453.88	5649.7	
454.08	5786.9	
454.28	7645.7	
454.48	7358.4	
454.68	6156.2	
454.88	6539.8	
455.08	7798.7	
455.28	7621.9	
455.48	5555.5	
455.68	6151.4	
455.89	8236.2	
456.09	7883.3	
456.29	5888.6	
456.49	5950	
456.69	8129.1	
456.89	7505.8	
457.09	6258.6	
457.29	6609.5	
457.49	7864.9	
457.69	7887.4	
457.89	6328.9	
458.09	5752.7	
458.29	7737.2	
458.49	8277.2	
458.69	6576.7	
458.89	6180.8	
459.09	8522.3	
459.29	8509.3	
459.49	6169.8	
459.69	6887.3	
459.9	8047.2	
460.1	7745.4	
460.3	6042.9	
460.5	5847	
460.7	8114.7	
460.9	7766.6	
461.1	5735	
461.3	6703	
461.5	8622.6	
461.7	8316.8	
461.9	6194.4	
462.1	6406.7	
462.3	7987.1	
462.5	8301.8	
462.7	6213.5	
462.9	6273.6	
463.1	9164	
463.3	8921.6	
463.5	6435.4	
463.7	7202.7	
463.9	8236.2	
464.1	8408.3	
464.3	6639.5	
464.5	6763.8	
464.7	8757.1	
464.9	8523.6	
465.1	7827.3	
465.3	7079.8	
465.5	9026.8	
465.7	8920.3	
465.9	7296.9	
466.1	7042.3	
466.3	8830.8	
466.5	8667	
466.7	7838.3	
466.9	6930.3	
467.1	8705.9	
467.3	9398.1	
467.5	7852.6	
467.7	6985.6	
467.9	9561.3	
468.1	10335	
468.3	7496.9	
468.5	7952.3	
468.7	8748.2	
468.9	8600.8	
469.1	7227.3	
469.3	7748.1	
469.5	10174	
469.7	8364.6	
469.9	7608.2	
470.1	7113.3	
470.3	8707.3	
470.5	8805.6	
470.7	7951.6	
470.9	7117.4	
471.1	8550.3	
471.3	8819.9	
471.5	6931.7	
471.69	8381	
471.89	8491.6	
472.09	8058.8	
472.29	7552.2	
472.49	7794.6	
472.69	8245.1	
472.89	8794.7	
473.09	6896.9	
473.29	6946.7	
473.49	8353.7	
473.69	8301.1	
473.89	7630.7	
474.09	7011.6	
474.29	9338.7	
474.49	9054.8	
474.69	7515.4	
474.89	7049.8	
475.09	8405.5	
475.29	8388.5	
475.49	6580.1	
475.69	6844.3	
475.88	9541.5	
476.08	8757.8	
476.28	6555.5	
476.48	6849.1	
476.68	8937.3	
476.88	8795.3	
477.08	6688	
477.28	7032.7	
477.48	8337.3	
477.68	8907.3	
477.88	6609.5	
478.08	6920.1	
478.28	9265	
478.48	8512.7	
478.67	6980.8	
478.87	6452.5	
479.07	9217.2	
479.27	8570.1	
479.47	7164.5	
479.67	7085.3	
479.87	8852.7	
480.07	9196.7	
480.27	6546.7	
480.47	7684	
480.67	8602.8	
480.87	9129.2	
481.06	6759	
481.26	7429.3	
481.46	8527.7	
481.66	8507.9	
481.86	7141.3	
482.06	7858.1	
482.26	8307.9	
482.46	9178.3	
482.66	6974.7	
482.86	6671.6	
483.05	8600.1	
483.25	8080.6	
483.45	8968.1	
483.65	6992.4	
483.85	8381.7	
484.05	8572.8	
484.25	7402	
484.45	7823.9	
484.65	9130.5	
484.84	9211.1	
485.04	6972	
485.24	7118.7	
485.44	9516.9	
485.64	8134.5	
485.84	6554.2	
486.04	7662.1	
486.24	8490.9	
486.44	8775.5	
486.63	6486.6	
486.83	7190.4	
487.03	8445.1	
487.23	8654	
487.43	6623.8	
487.63	8400.1	
487.83	8634.2	
488.02	9400.9	
488.22	7357.7	
488.42	7873.1	
488.62	9400.2	
488.82	8553.7	
489.02	7164.5	
489.22	7201.3	
489.41	9204.3	
489.61	9008.3	
489.81	6966.5	
490.01	7038.9	
490.21	9161.9	
490.41	9811.1	
490.61	6959.7	
490.8	7146.7	
491	8845.2	
491.2	8315.4	
491.4	7490.1	
491.6	6818.4	
491.8	8812.4	
491.99	8819.9	
492.19	6697.5	
492.39	6916	
492.59	9186.5	
492.79	9193.3	
492.99	7698.3	
493.18	7036.8	
493.38	9395.4	
493.58	10012	
493.78	7643	
493.98	7269.6	
494.18	9137.4	
494.37	8750.3	
494.57	7757.7	
494.77	7752.2	
494.97	9397.4	
495.17	9639.8	
495.37	7547.4	
495.56	7820.5	
495.76	9830.2	
495.96	9562.6	
496.16	8587.1	
496.36	7737.2	
496.55	9760.6	
496.75	9349	
496.95	7968.6	
497.15	7832.1	
497.35	9759.9	
497.54	9673.9	
497.74	7694.2	
497.94	9009	
498.14	10275	
498.34	9985.2	
498.53	7490.8	
498.73	8166.6	
498.93	9301.2	
499.13	9684.2	
499.33	8005.5	
499.52	8228.1	
499.72	9828.9	
499.92	9989.3	
500.12	7724.3	
500.32	7974.8	
500.51	10017	
500.71	9804.3	
500.91	8484.7	
501.11	8272.4	
501.31	9888.3	
501.5	10169	
501.7	8838.4	
501.9	7975.5	
502.1	9715.6	
502.29	9994.1	
502.49	8396.7	
502.69	8652	
502.89	9919	
503.09	9878	
503.28	7537.2	
503.48	7653.9	
503.68	9258.2	
503.88	9222	
504.07	8264.9	
504.27	7989.1	
504.47	9545.6	
504.67	9609.1	
504.86	8310	
505.06	8043.1	
505.26	9268.4	
505.46	10520	
505.65	7860.8	
505.85	8064.9	
506.05	9149.6	
506.25	9462.3	
506.44	7390.4	
506.64	7953.6	
506.84	9039.7	
507.04	9751.1	
507.23	7491.5	
507.43	7793.9	
507.63	10562	
507.83	9090.9	
508.02	7847.1	
508.22	7511.3	
508.42	10525	
508.62	8899.1	
508.81	7890.1	
509.01	8094.3	
509.21	8828.1	
509.4	9143.5	
509.6	7785.7	
509.8	7417.1	
510	8995.4	
510.19	10143	
510.39	7395.2	
510.59	7464.8	
510.79	8923	
510.98	9985.9	
511.18	7531.1	
511.38	7624.6	
511.57	9661	
511.77	9405.6	
511.97	8046.5	
512.17	7350.8	
512.36	9589.3	
512.56	9521.7	
512.76	7344	
512.95	7146.7	
513.15	9708.1	
513.35	8613.1	
513.55	8148.2	
513.74	7404.8	
513.94	9616.6	
514.14	9069.1	
514.33	8182.3	
514.53	7970	
514.73	9162.6	
514.92	9402.2	
515.12	7512.6	
515.32	7439.6	
515.51	9249.3	
515.71	9700.5	
515.91	8836.3	
516.11	7521.5	
516.3	10735	
516.5	9097.1	
516.7	7884.7	
516.89	8472.4	
517.09	9185.1	
517.29	9151.7	
517.48	8213.7	
517.68	7733.8	
517.88	8897.7	
518.07	9493.7	
518.27	8099.7	
518.47	7301.7	
518.66	9857.6	
518.86	8856.8	
519.06	7199.3	
519.25	7615	
519.45	9086.8	
519.65	10213	
519.84	8173.4	
520.04	8767.4	
520.24	10563	
520.43	9657.5	
520.63	7795.3	
520.83	7629.4	
521.02	8998.8	
521.22	9490.3	
521.42	7980.3	
521.61	8531.2	
521.81	9175.6	
522.01	9321.7	
522.2	7989.8	
522.4	7750.2	
522.6	9702.6	
522.79	8768	
522.99	7817.1	
523.18	7509.9	
523.38	9558.6	
523.58	9663.7	
523.77	8916.9	
523.97	7529	
524.17	11151	
524.36	10402	
524.56	8639	
524.76	8335.9	
524.95	9641.8	
525.15	9408.4	
525.34	8258.8	
525.54	8196	
525.74	9987.3	
525.93	9346.2	
526.13	9174.9	
526.33	8288.1	
526.52	10369	
526.72	9907.4	
526.91	9243.2	
527.11	8602.2	
527.31	10344	
527.5	10711	
527.7	8667.7	
527.89	7871	
528.09	9680.1	
528.29	10128	
528.48	8925.7	
528.68	8666.3	
528.87	10355	
529.07	10348	
529.27	8535.9	
529.46	8267	
529.66	10199	
529.85	10411	
530.05	8130.4	
530.25	8739.4	
530.44	11172	
530.64	9997.5	
530.83	8447.9	
531.03	8568	
531.23	10469	
531.42	10314	
531.62	9213.1	
531.81	8563.9	
532.01	10619	
532.21	10910	
532.4	8564.6	
532.6	8858.8	
532.79	11363	
532.99	10774	
533.18	8885.5	
533.38	9713.5	
533.58	10425	
533.77	10925	
533.97	8957.1	
534.16	9518.3	
534.36	11275	
534.55	10506	
534.75	9654.8	
534.95	8986.5	
535.14	11203	
535.34	10446	
535.53	8740	
535.73	10193	
535.92	11485	
536.12	10468	
536.31	8834.3	
536.51	9706.7	
536.71	10769	
536.9	10471	
537.1	8832.2	
537.29	8986.5	
537.49	11151	
537.68	10426	
537.88	9310.7	
538.07	8693.6	
538.27	10644	
538.46	11393	
538.66	8656.8	
538.86	9095	
539.05	10681	
539.25	11073	
539.44	9252.7	
539.64	8882.7	
539.83	10556	
540.03	11183	
540.22	8738.7	
540.42	8828.8	
540.61	10600	
540.81	10767	
541	9151.7	
541.2	9640.5	
541.39	10272	
541.59	10585	
541.78	9470.5	
541.98	8733.9	
542.18	10018	
542.37	9956.5	
542.57	8904.6	
542.76	9337.4	
542.96	10004	
543.15	10423	
543.35	8907.3	
543.54	8456.1	
543.74	10630	
543.93	10308	
544.13	8729.1	
544.32	9659.6	
544.52	10527	
544.71	9900.6	
544.91	8056.7	
545.1	8956.4	
545.3	10011	
545.49	10433	
545.69	8081.3	
545.88	8556.4	
546.08	11194	
546.27	10776	
546.47	8921.6	
546.66	8342.7	
546.86	10571	
547.05	10986	
547.24	8473.8	
547.44	8421.2	
547.63	9783.1	
547.83	10618	
548.02	8699.8	
548.22	8860.2	
548.41	9592.7	
548.61	10746	
548.8	8317.5	
549	8320.2	
549.19	10114	
549.39	10450	
549.58	8033.5	
549.78	8566.7	
549.97	10446	
550.17	9985.9	
550.36	9233.6	
550.55	9908.1	
550.75	9981.1	
550.94	10743	
551.14	8216.5	
551.33	8490.9	
551.53	9490.3	
551.72	10260	
551.92	8473.1	
552.11	8381	
552.31	10289	
552.5	10359	
552.69	9555.1	
552.89	8041.7	
553.08	10135	
553.28	9996.8	
553.47	8318.8	
553.67	9291.6	
553.86	10663	
554.06	9336	
554.25	7776.8	
554.44	8181	
554.64	11248	
554.83	10860	
555.03	8198.7	
555.22	8469.7	
555.42	10322	
555.61	10064	
555.8	8297.7	
556	8473.1	
556.19	9457.5	
556.39	10391	
556.58	8290.9	
556.78	8275.2	
556.97	9968.1	
557.16	9775	
557.36	9222	
557.55	8028.7	
557.75	9283.4	
557.94	10707	
558.13	8110.6	
558.33	7873.1	
558.52	10380	
558.72	9518.3	
558.91	7931.8	
559.1	8179.6	
559.3	9302.6	
559.49	9054.1	
559.69	7627.3	
559.88	8427.4	
560.07	9929.9	
560.27	10251	
560.46	8541.4	
560.66	8657.4	
560.85	9761.3	
561.04	9060.9	
561.24	7890.1	
561.43	8026.7	
561.63	9263.6	
561.82	9510.8	
562.01	8959.9	
562.21	8255.4	
562.4	9875.3	
562.59	10661	
562.79	8141.4	
562.98	7952.9	
563.18	9766.1	
563.37	10940	
563.56	8585.8	
563.76	7939.3	
563.95	9458.2	
564.14	9379.7	
564.34	8191.9	
564.53	8003.5	
564.73	9780.4	
564.92	10049	
565.11	8277.9	
565.31	7792.5	
565.5	10284	
565.69	9453.4	
565.89	8073.1	
566.08	8231.5	
566.27	10140	
566.47	10506	
566.66	8662.9	
566.85	7637.6	
567.05	9879.4	
567.24	9426.1	
567.44	7979.6	
567.63	8960.5	
567.82	10110	
568.02	9811.8	
568.21	7896.3	
568.4	8187.1	
568.6	9727.9	
568.79	9648.7	
568.98	7830.7	
569.18	7929.1	
569.37	9727.2	
569.56	11219	
569.76	8268.3	
569.95	8969.4	
570.14	10051	
570.34	9829.6	
570.53	7793.9	
570.72	7785	
570.91	10404	
571.11	9574.9	
571.3	8055.3	
571.49	8755.7	
571.69	9790	
571.88	9305.3	
572.07	8506.6	
572.27	8558.5	
572.46	9258.2	
572.65	10024	
572.85	7932.5	
573.04	8179.6	
573.23	10344	
573.43	9699.2	
573.62	7776.1	
573.81	8266.3	
574	9841.9	
574.2	9598.8	
574.39	8180.3	
574.58	8243.1	
574.78	10439	
574.97	9949.7	
575.16	8522.3	
575.36	8628.8	
575.55	10133	
575.74	10312	
575.93	7735.9	
576.13	8697.7	
576.32	9662.3	
576.51	10175	
576.71	8137.9	
576.9	9103.9	
577.09	10414	
577.28	10064	
577.48	8454.7	
577.67	7733.1	
577.86	9781.1	
578.05	10047	
578.25	8305.9	
578.44	8221.2	
578.63	9826.8	
578.83	10801	
579.02	7858.7	
579.21	8949.6	
579.4	9937.4	
579.6	9759.9	
579.79	8315.4	
579.98	10079	
580.17	10204	
580.37	10348	
580.56	8041.7	
580.75	8567.3	
580.94	10566	
581.14	10525	
581.33	8979.7	
581.52	8200.7	
581.71	10148	
581.91	10768	
582.1	8010.3	
582.29	8360.5	
582.48	9919.7	
582.68	9911.5	
582.87	8822.6	
583.06	8499.8	
583.25	10289	
583.45	9792	
583.64	9054.8	
583.83	9658.9	
584.02	9912.2	
584.21	10256	
584.41	8987.9	
584.6	8553.7	
584.79	10022	
584.98	10679	
585.18	8010.3	
585.37	7973.4	
585.56	9810.5	
585.75	10340	
585.94	8198.7	
586.14	8770.1	
586.33	10636	
586.52	9893.1	
586.71	8574.8	
586.91	8336.6	
587.1	9409.1	
587.29	10140	
587.48	8133.8	
587.67	8024.6	
587.87	10023	
588.06	9990.7	
588.25	9075.9	
588.44	8457.4	
588.63	9686.2	
588.83	10004	
589.02	8039.6	
589.21	7791.8	
589.4	9323	
589.59	9231.6	
589.78	7018.4	
589.98	7215.7	
590.17	8741.4	
590.36	9026.1	
590.55	6630	
590.74	7240.9	
590.94	9993.4	
591.13	8894.3	
591.32	7089.4	
591.51	6727.6	
591.7	9217.9	
591.89	8933.2	
592.09	6918.7	
592.28	7239.6	
592.47	8355	
592.66	9822.7	
592.85	6916	
593.05	7121.5	
593.24	8802.9	
593.43	9441.1	
593.62	7206.8	
593.81	7528.3	
594	8920.3	
594.19	9133.3	
594.39	7193.1	
594.58	7093.5	
594.77	9198.1	
594.96	9584.5	
595.15	7048.4	
595.34	7501.7	
595.54	9051.3	
595.73	8353.7	
595.92	6485.2	
596.11	7341.3	
596.3	9469.8	
596.49	8548.2	
596.68	7235.5	
596.88	7557.7	
597.07	9389.3	
597.26	8448.6	
597.45	6892.8	
597.64	7864.2	
597.83	8648.6	
598.02	9111.4	
598.22	6864.1	
598.41	7520.1	
598.6	8998.1	
598.79	8567.3	
598.98	7026.6	
599.17	7704.5	
599.36	9074.5	
599.55	9725.1	
599.74	8568.7	
599.94	8381	
600.13	9458.9	
600.32	8460.8	
600.51	6759.7	
600.7	6968.6	
600.89	9865.7	
601.08	10012	
601.27	6950.8	
601.47	7555.6	
601.66	9363.3	
601.85	9903.3	
602.04	7393.2	
602.23	7472.4	
602.42	8671.8	
602.61	9178.3	
602.8	7262.1	
602.99	7115.3	
603.18	8971.5	
603.37	9091.6	
603.57	7611.6	
603.76	8068.3	
603.95	9714.2	
604.14	9299.8	
604.33	7348.1	
604.52	7478.5	
604.71	9289.6	
604.9	8809.7	
605.09	7974.1	
605.28	7690.8	
605.47	9580.4	
605.66	9282.8	
605.86	7675.8	
606.05	7279.2	
606.24	9574.9	
606.43	8395.3	
606.62	7462.1	
606.81	7988.4	
607	9435	
607.19	8897.1	
607.38	6981.5	
607.57	7193.1	
607.76	8812.4	
607.95	8299.7	
608.14	7549.5	
608.33	8030.1	
608.52	8690.2	
608.72	9327.1	
608.91	6875.7	
609.1	6898.2	
609.29	8731.2	
609.48	8393.9	
609.67	7606.8	
609.86	6916.7	
610.05	8525	
610.24	8720.9	
610.43	6775.4	
610.62	6496.2	
610.81	9585.2	
611	9402.9	
611.19	6792.4	
611.38	7430.7	
611.57	8929.1	
611.76	9921	
611.95	6763.8	
612.14	6606.7	
612.33	8690.2	
612.52	8504.5	
612.71	7092.1	
612.9	6446.3	
613.09	8167.3	
613.28	9900.6	
613.47	7015.7	
613.66	7539.9	
613.85	8881.4	
614.04	8490.2	
614.24	6980.2	
614.43	6354.2	
614.62	8979.7	
614.81	8875.2	
615	7328.3	
615.19	7381.6	
615.38	8415.8	
615.57	8729.1	
615.76	7275.8	
615.95	7999.4	
616.14	9049.3	
616.33	8675.9	
616.52	7528.3	
616.71	7691.5	
616.9	8944.8	
617.09	8797.4	
617.28	7014.3	
617.47	7854	
617.66	8316.1	
617.85	8316.1	
618.04	7692.2	
618.22	7357	
618.41	8610.3	
618.6	9263.6	
618.79	7229.3	
618.98	7051.2	
619.17	9530.6	
619.36	8278.6	
619.55	7184.3	
619.74	7258.7	
619.93	8950.3	
620.12	8557.1	
620.31	7629.4	
620.5	7790.5	
620.69	9482.8	
620.88	9797.5	
621.07	8311.3	
621.26	7593.2	
621.45	9192	
621.64	9119.6	
621.83	7723.6	
622.02	7086.7	
622.21	9252.7	
622.4	9072.5	
622.59	8129.1	
622.78	7988.4	
622.97	8677.9	
623.16	9556.5	
623.35	7679.2	
623.54	6989	
623.72	8903.2	
623.91	9013.1	
624.1	7895.6	
624.29	6880.5	
624.48	9781.1	
624.67	9205.6	
624.86	7755.7	
625.05	7139.2	
625.24	9891	
625.43	8637	
625.62	8867.7	
625.81	7178.8	
626	9370.8	
626.19	8882.7	
626.38	7766.6	
626.56	7291.5	
626.75	8624.7	
626.94	9334.6	
627.13	7818.5	
627.32	6718.7	
627.51	9149	
627.7	10111	
627.89	6776.7	
628.08	7699.7	
628.27	8520.9	
628.46	8668.4	
628.65	7065.5	
628.83	6785.6	
629.02	9174.2	
629.21	8568.7	
629.4	7350.2	
629.59	7565.2	
629.78	8527.1	
629.97	9189.9	
630.16	7544	
630.35	7213.6	
630.54	9645.9	
630.72	9387.2	
630.91	7218.4	
631.1	7543.4	
631.29	9005.6	
631.48	9009.7	
631.67	7697.6	
631.86	7203.4	
632.05	8804.2	
632.24	8775.5	
632.42	6973.3	
632.61	7517.4	
632.8	8704.5	
632.99	8456.7	
633.18	7459.4	
633.37	7735.9	
633.56	9009.7	
633.75	8821.3	
633.93	7563.8	
634.12	7333.8	
634.31	9686.9	
634.5	9345.6	
634.69	7275.1	
634.88	7529.7	
635.07	8884.1	
635.25	9344.2	
635.44	7972.1	
635.63	8176.9	
635.82	8734.6	
636.01	8256	
636.2	7836.9	
636.39	7599.3	
636.57	9609.8	
636.76	9253.4	
636.95	7047.1	
637.14	8117.5	
637.33	9045.2	
637.52	9680.7	
637.7	6996.5	
637.89	7721.5	
638.08	8738.7	
638.27	9785.9	
638.46	7661.5	
638.65	7987.1	
638.83	9768.8	
639.02	8585.8	
639.21	7678.5	
639.4	8011	
639.59	8821.3	
639.78	8590.5	
639.96	6961	
640.15	7029.3	
640.34	8871.8	
640.53	8852	
640.72	6836.1	
640.91	7045	
641.09	8387.1	
641.28	9396.1	
641.47	7071.6	
641.66	7716.7	
641.85	8804.2	
642.03	8933.2	
642.22	7488.7	
642.41	6995.2	
642.6	8400.1	
642.79	7881.3	
642.97	6850.5	
643.16	7465.5	
643.35	8393.3	
643.54	8181.6	
643.73	6782.9	
643.91	7325.6	
644.1	8026.7	
644.29	8520.2	
644.48	6695.5	
644.67	6834.8	
644.85	8056.7	
645.04	8292.9	
645.23	6398.5	
645.42	6632.7	
645.6	7890.1	
645.79	8758.5	
645.98	6469.5	
646.17	5739.1	
646.36	7565.2	
646.54	7994.6	
646.73	6987.7	
646.92	6107	
647.11	7645.8	
647.29	8417.8	
647.48	6117.3	
647.67	6018.3	
647.86	8659.5	
648.05	8583.7	
648.23	6429.3	
648.42	7419.8	
648.61	8170	
648.8	8006.9	
648.98	6134.3	
649.17	6371.9	
649.36	7696.3	
649.55	7325.6	
649.73	6255.9	
649.92	6808.1	
650.11	7567.2	
650.3	7915.4	
650.48	6256.5	
650.67	6055.8	
650.86	8031.5	
651.05	7165.8	
651.23	6275.7	
651.42	6155.5	
651.61	7701.7	
651.79	7589.8	
651.98	6408.8	
652.17	6123.4	
652.36	7938.6	
652.54	7260.7	
652.73	6148	
652.92	6003.3	
653.11	7961.8	
653.29	8045.8	
653.48	5537	
653.67	6301.6	
653.85	7790.5	
654.04	8546.9	
654.23	6378.7	
654.42	6024.4	
654.6	7372	
654.79	7870.3	
654.98	5610.1	
655.16	6126.8	
655.35	7081.9	
655.54	6845.7	
655.73	5608.7	
655.91	5540.4	
656.1	7700.4	
656.29	6892.1	
656.47	5304.9	
656.66	6623.8	
656.85	7245	
657.03	7178.1	
657.22	5776	
657.41	5903.6	
657.59	7377.5	
657.78	7144	
657.97	5596.4	
658.16	6122.1	
658.34	7822.6	
658.53	8183	
658.72	6811.5	
658.9	7223.9	
659.09	7490.1	
659.28	7507.9	
659.46	6013.5	
659.65	5853.8	
659.84	7147.4	
660.02	7798	
660.21	5957.5	
660.4	5746.6	
660.58	7998.7	
660.77	7501.7	
660.96	6341.9	
661.14	5462.6	
661.33	8469.7	
661.52	8341.4	
661.7	5498.8	
661.89	8167.3	
662.08	7299.6	
662.26	6842.3	
662.45	5674.9	
662.64	5821	
662.82	7715.4	
663.01	7109.9	
663.2	5881.1	
663.38	6335.7	
663.57	7707.9	
663.75	7565.2	
663.94	6023.1	
664.13	6924.2	
664.31	7126.9	
664.5	7761.8	
664.69	6135	
664.87	6642.2	
665.06	6984.9	
665.25	7484.6	
665.43	6780.8	
665.62	6879.1	
665.8	7785	
665.99	7294.2	
666.18	6067.4	
666.36	6029.9	
666.55	7778.2	
666.74	7636.9	
666.92	5765	
667.11	6982.2	
667.29	7345.4	
667.48	7670.3	
667.67	6649.1	
667.85	5952.8	
668.04	7220.5	
668.22	7312.6	
668.41	6023.8	
668.6	6258.6	
668.78	7120.1	
668.97	7292.8	
669.15	6305	
669.34	5476.3	
669.53	7167.9	
669.71	7307.8	
669.9	5714.5	
670.08	6122.7	
670.27	7114.6	
670.46	7535.2	
670.64	6382.2	
670.83	6490	
671.01	6965.8	
671.2	7434.8	
671.38	5704.3	
671.57	5590.3	
671.76	8027.4	
671.94	8353.7	
672.13	5598.5	
672.31	6434.7	
672.5	7724.3	
672.69	7190.4	
672.87	5742.5	
673.06	5931.6	
673.24	7550.2	
673.43	7221.1	
673.61	6184.2	
673.8	5915.9	
673.98	7623.9	
674.17	7710.6	
674.36	6378.7	
674.54	6352.1	
674.73	7393.2	
674.91	7688.1	
675.1	6010.8	
675.28	5719.3	
675.47	7261.4	
675.65	7666.2	
675.84	5941.2	
676.03	6223.1	
676.21	7157	
676.4	6734.4	
676.58	6584.9	
676.77	6344.6	
676.95	8327.7	
677.14	7124.2	
677.32	5630.5	
677.51	5578	
677.69	7728.4	
677.88	6836.1	
678.06	5548.6	
678.25	5759.6	
678.44	7338.6	
678.62	7047.1	
678.81	5477	
678.99	6182.1	
679.18	7920.9	
679.36	7486	
679.55	5903.6	
679.73	6337.8	
679.92	7461.4	
680.1	7107.1	
680.29	6862.1	
680.47	5944.6	
680.66	7080.5	
680.84	7750.9	
681.03	5330.9	
681.21	6208.1	
681.4	7127.6	
681.58	6978.1	
681.77	5709.7	
681.95	5642.8	
682.14	7795.9	
682.32	7972.1	
682.51	6341.2	
682.69	5397.8	
682.88	6959	
683.06	7386.3	
683.25	6150.7	
683.43	6508.4	
683.62	7297.6	
683.8	7531.1	
683.99	6528.2	
684.17	6009.4	
684.36	8000.7	
684.54	7130.3	
684.73	5352.7	
684.91	5425.1	
685.1	7168.6	
685.28	6666.8	
685.46	5672.9	
685.65	5730.2	
685.83	7230.7	
686.02	6739.9	
686.2	5353.4	
686.39	5401.2	
686.57	6520.7	
686.76	7770	
686.94	5412.8	
687.13	5539.1	
687.31	7158.3	
687.5	6911.9	
687.68	5076.2	
687.86	6010.8	
688.05	8144.1	
688.23	6470.2	
688.42	6014.2	
688.6	5471.5	
688.79	6796.5	
688.97	6911.9	
689.16	5872.2	
689.34	4964.3	
689.52	7438.9	
689.71	7647.8	
689.89	6041.5	
690.08	5495.4	
690.26	7100.3	
690.45	6932.4	
690.63	6090	
690.81	5628.5	
691	6883.9	
691.18	6745.3	
691.37	5701.5	
691.55	7307.2	
691.74	6678.4	
691.92	8331.8	
692.1	5613.5	
692.29	5227.1	
692.47	6909.8	
692.66	6425.2	
692.84	5422.3	
693.02	5864	
693.21	6461.3	
693.39	6961.7	
693.58	5980.8	
693.76	5514.5	
693.94	7911.3	
694.13	7790.5	
694.31	5573.2	
694.5	6434	
694.68	6896.9	
694.86	7174	
695.05	5978.7	
695.23	6032.6	
695.42	7548.1	
695.6	9189.2	
695.78	6425.8	
695.97	5677.7	
696.15	7589.1	
696.34	7087.3	
696.52	5547.9	
696.7	6186.2	
696.89	7332.4	
697.07	6809.5	
697.25	6047.7	
697.44	7141.3	
697.62	7228	
697.81	7430.7	
697.99	5825.1	
698.17	6197.8	
698.36	6723.5	
698.54	7360.4	
698.72	6090	
698.91	5326.1	
699.09	7006.1	
699.28	6832.7	
699.46	5906.3	
699.64	5733.6	
699.83	6865.5	
700.01	7738.6	
700.19	6385.6	
700.38	5218.9	
700.56	7712.7	
700.74	6935.1	
700.93	5433.9	
701.11	6223.8	
701.29	7486.7	
701.48	8273.1	
701.66	5668.1	
701.84	5814.9	
702.03	7058	
702.21	7640.3	
702.39	5511.8	
702.58	5943.9	
702.76	7459.4	
702.94	7533.8	
703.13	5393.7	
703.31	7339.2	
703.49	6987	
703.68	7593.2	
703.86	5575.9	
704.04	6381.5	
704.23	7389.8	
704.41	7601.4	
704.59	5802.6	
704.78	6589.7	
704.96	8586.5	
705.14	7648.5	
705.33	5603.9	
705.51	6255.2	
705.69	7208.2	
705.87	7852.6	
706.06	6429.3	
706.24	5554.8	
706.42	7537.2	
706.61	7681.9	
706.79	6494.1	
706.97	5562.3	
707.16	7154.9	
707.34	7455.3	
707.52	6439.5	
707.7	5780.7	
707.89	7203.4	
708.07	6941.9	
708.25	6430.6	
708.44	6588.3	
708.62	7145.4	
708.8	8028.7	
708.98	6593.8	
709.17	5943.9	
709.35	7442.3	
709.53	7530.4	
709.72	5648.3	
709.9	6036	
710.08	7709.9	
710.26	7670.3	
710.45	6944.7	
710.63	5892	
710.81	7400	
710.99	7420.5	
711.18	6365.8	
711.36	6013.5	
711.54	7251.2	
711.72	7818.5	
711.91	6016.2	
712.09	5637.4	
712.27	7338.6	
712.45	7746.1	
712.64	6137.8	
712.82	5385.5	
713	6890.7	
713.18	7011.6	
713.37	5457.2	
713.55	6341.9	
713.73	7606.8	
713.91	6373.3	
714.1	5528.2	
714.28	5086.5	
714.46	7078.5	
714.64	6522.1	
714.83	4627	
715.01	5171.1	
715.19	6518	
715.37	5871.5	
715.55	4878.9	
715.74	5077.6	
715.92	7077.8	
716.1	5547.9	
716.28	5926.8	
716.47	5259.2	
716.65	6075	
716.83	6243.6	
717.01	5020.3	
717.19	5121.3	
717.38	7690.1	
717.56	5894.1	
717.74	5233.9	
717.92	4603.8	
718.1	6886.6	
718.29	6285.9	
718.47	4437.9	
718.65	4992.3	
718.83	6898.9	
719.01	6886	
719.2	4481	
719.38	5329.5	
719.56	6773.3	
719.74	7948.2	
719.92	5097.4	
720.11	5828.5	
720.29	6737.8	
720.47	6069.5	
720.65	4607.2	
720.83	5246.2	
721.02	6251.8	
721.2	6031.3	
721.38	5226.4	
721.56	4603.8	
721.74	5655.8	
721.92	5758.9	
722.11	5582.8	
722.29	5369.1	
722.47	6750.8	
722.65	6102.9	
722.83	4620.2	
723.01	5279.7	
723.2	6120.7	
723.38	6386.9	
723.56	4283.7	
723.74	5086.5	
723.92	5792.3	
724.1	6647	
724.29	4672.1	
724.47	5488.6	
724.65	5888.6	
724.83	5750.7	
725.01	4510.3	
725.19	5191.6	
725.37	5804.6	
725.56	5876.3	
725.74	4407.9	
725.92	4543.8	
726.1	5745.2	
726.28	6016.2	
726.46	4934.2	
726.64	4709	
726.83	5980.8	
727.01	6146	
727.19	4394.9	
727.37	5026.4	
727.55	6110.5	
727.73	6479.1	
727.91	4414.1	
728.09	4307.6	
728.28	6498.2	
728.46	6843.6	
728.64	5205.9	
728.82	5159.5	
729	7344.7	
729.18	6845	
729.36	4504.8	
729.54	6362.4	
729.72	7661.5	
729.91	6326.2	
730.09	6126.8	
730.27	5087.8	
730.45	6325.5	
730.63	6795.8	
730.81	5572.5	
730.99	4863.2	
731.17	7273	
731.35	6141.2	
731.53	5315.8	
731.71	4971.8	
731.9	7025.9	
732.08	7072.3	
732.26	5195.7	
732.44	4939.7	
732.62	7197.9	
732.8	6741.2	
732.98	5559.6	
733.16	4786.1	
733.34	6756.9	
733.52	5738.4	
733.7	5106.3	
733.88	5360.2	
734.07	6593.8	
734.25	6453.1	
734.43	4746.5	
734.61	5904.3	
734.79	7572.7	
734.97	6334.4	
735.15	4857.1	
735.33	5119.2	
735.51	6564.4	
735.69	6451.1	
735.87	5965.1	
736.05	5283.8	
736.23	6485.2	
736.41	6315.3	
736.59	5059.2	
736.77	5212.8	
736.95	6866.2	
737.13	6360.3	
737.32	4883.7	
737.5	4998.4	
737.68	7344.7	
737.86	6246.3	
738.04	4792.9	
738.22	6109.1	
738.4	6171.9	
738.58	6421.1	
738.76	5204.6	
738.94	4399	
739.12	6301.6	
739.3	6146	
739.48	5692	
739.66	5452.4	
739.84	6455.9	
740.02	6518.7	
740.2	4541	
740.38	4721.9	
740.56	6761.7	
740.74	5791	
740.92	5260.5	
741.1	5162.2	
741.28	6305.7	
741.46	6072.9	
741.64	4915.1	
741.82	5240.8	
742	6343.2	
742.18	6299.6	
742.36	5018.2	
742.54	4683	
742.72	6823.8	
742.9	5691.3	
743.08	5301.5	
743.26	4367.6	
743.44	6856.6	
743.62	6704.4	
743.8	5428.5	
743.98	4685.1	
744.16	6538.5	
744.34	6214.2	
744.52	5309	
744.7	5283.1	
744.88	6644.3	
745.06	6146	
745.24	5313.1	
745.42	5423.7	
745.6	6665.5	
745.78	6457.2	
745.96	4394.3	
746.14	4616.1	
746.32	7234.1	
746.5	6574	
746.68	5081	
746.86	4672.8	
747.03	6825.9	
747.21	5610.8	
747.39	5059.8	
747.57	4579.3	
747.75	6269.5	
747.93	6567.8	
748.11	4575.8	
748.29	4515.1	
748.47	7555	
748.65	6018.3	
748.83	5145.9	
749.01	5007.3	
749.19	6425.2	
749.37	5717.2	
749.55	4817.5	
749.73	4969.7	
749.91	6153.5	
750.09	5936.4	
750.26	4909.7	
750.44	4459.1	
750.62	6211.5	
750.8	6070.2	
750.98	4369.7	
751.16	4644.8	
751.34	6264.7	
751.52	5663.3	
751.7	5261.9	
751.88	4294.6	
752.06	6559.6	
752.24	6326.9	
752.42	4266.6	
752.59	4592.2	
752.77	6079.1	
752.95	7004.7	
753.13	5132.2	
753.31	4610.7	
753.49	5890	
753.67	6120	
753.85	4853	
754.03	4532.2	
754.21	6424.5	
754.38	6642.2	
754.56	4635.2	
754.74	3844	
754.92	5660.6	
755.1	6204.7	
755.28	3801.7	
755.46	3779.2	
755.64	6718.7	
755.82	6707.8	
755.99	3879.5	
756.17	3929.4	
756.35	4657.8	
756.53	5837.4	
756.71	2950.4	
756.89	3676.1	
757.07	5480.4	
757.25	4769	
757.42	4057.7	
757.6	4792.2	
757.78	5625.8	
757.96	4812	
758.14	3954.6	
758.32	3622.2	
758.5	4484.4	
758.67	5072.8	
758.85	3704.8	
759.03	3891.1	
759.21	5270.8	
759.39	4802.5	
759.57	3515	
759.75	4375.1	
759.92	5798.5	
760.1	5311.1	
760.28	4609.3	
760.46	4838.7	
760.64	5077.6	
760.82	4924	
760.99	4374.5	
761.17	3921.9	
761.35	5750	
761.53	4970.4	
761.71	4078.2	
761.89	4586.8	
762.06	5778	
762.24	5317.2	
762.42	4159.4	
762.6	3972.4	
762.78	5354.1	
762.96	5891.3	
763.13	4506.9	
763.31	4153.3	
763.49	5978	
763.67	5373.9	
763.85	4902.2	
764.02	5333.6	
764.2	6251.1	
764.38	5530.9	
764.56	4121.9	
764.74	4768.4	
764.91	6263.4	
765.09	5363.6	
765.27	3961.5	
765.45	3705.5	
765.63	6340.5	
765.8	6199.2	
765.98	3571.7	
766.16	3742.3	
766.34	5022.3	
766.52	4833.2	
766.69	4469.4	
766.87	3627	
767.05	5380.7	
767.23	6016.2	
767.41	3879.5	
767.58	4091.8	
767.76	5874.3	
767.94	5840.1	
768.12	3920.5	
768.29	4426.3	
768.47	5388.2	
768.65	5991.7	
768.83	3639.2	
769	4491.9	
769.18	5128.8	
769.36	5632.6	
769.54	4442	
769.72	3639.9	
769.89	5847	
770.07	5872.2	
770.25	3923.2	
770.43	4876.9	
770.6	6466.8	
770.78	6726.9	
770.96	4003.8	
771.14	4489.8	
771.31	5788.9	
771.49	5268.1	
771.67	3302	
771.85	3534.1	
772.02	4612.7	
772.2	5134.9	
772.38	4203.1	
772.55	3730.7	
772.73	5408.7	
772.91	5224.4	
773.09	4044.7	
773.26	4067.3	
773.44	5399.8	
773.62	5144.5	
773.8	3610.6	
773.97	3376.4	
774.15	5405.3	
774.33	5112.4	
774.5	3528.7	
774.68	3825.6	
774.86	5542.5	
775.04	5163.6	
775.21	3572.3	
775.39	3493.8	
775.57	5370.5	
775.74	5619.6	
775.92	3438.5	
776.1	3366.2	
776.27	5248.3	
776.45	6234.7	
776.63	3577.1	
776.81	3198.2	
776.98	4990.2	
777.16	5785.5	
777.34	3640.6	
777.51	3796.3	
777.69	4980.7	
777.87	4764.9	
778.04	3718.4	
778.22	4169.7	
778.4	4799.1	
778.57	5296	
778.75	3104	
778.93	3336.8	
779.1	4659.1	
779.28	4511	
779.46	3113.6	
779.64	3526.6	
779.81	5463.3	
779.99	6084.5	
780.17	4101.4	
780.34	4128	
780.52	4989.5	
780.69	5109	
780.87	3670	
781.05	3365.5	
781.22	5062.6	
781.4	5157.5	
781.58	3498.6	
781.75	2841.9	
781.93	5162.2	
782.11	4603.8	
782.28	4224.3	
782.46	3480.9	
782.64	4434.5	
782.81	5210	
782.99	3579.8	
783.17	3540.3	
783.34	5067.4	
783.52	4540.3	
783.69	3637.2	
783.87	4308.2	
784.05	4620.9	
784.22	4590.2	
784.4	4323.3	
784.58	3685.7	
784.75	5297.4	
784.93	4666	
785.1	3478.1	
785.28	3865.2	
785.46	5074.9	
785.63	4586.8	
785.81	3435.8	
785.99	3334.8	
786.16	4749.2	
786.34	5055.8	
786.51	3352.5	
786.69	3685.7	
786.87	4371	
787.04	4790.9	
787.22	3255.6	
787.39	3996.3	
787.57	4599.7	
787.75	5370.5	
787.92	4169.7	
788.1	4084.3	
788.27	4580.6	
788.45	4379.9	
788.63	3850.2	
788.8	2877.4	
788.98	5008.6	
789.15	4295.3	
789.33	2906.8	
789.5	3461.7	
789.68	5291.3	
789.86	5374.6	
790.03	3758.7	
790.21	3304.1	
790.38	5315.2	
790.56	4657.1	
790.73	3275.4	
790.91	3209.8	
791.09	4538.3	
791.26	5085.8	
791.44	3474.7	
791.61	2984.6	
791.79	4567.7	
791.96	4579.3	
792.14	3014.6	
792.32	2775.7	
792.49	4541.7	
792.67	4610	
792.84	3239.9	
793.02	2991.4	
793.19	4963.6	
793.37	5453.1	
793.54	2710.8	
793.72	3033	
793.89	5509	
794.07	4512.4	
794.25	3530	
794.42	2852.8	
794.6	5372.5	
794.77	5059.8	
794.95	3710.9	
795.12	3261	
795.3	4594.3	
795.47	4996.4	
795.65	3605.1	
795.82	3482.9	
796	4422.9	
796.17	5842.9	
796.35	3344.3	
796.52	3904.1	
796.7	4992.3	
796.87	5091.3	
797.05	3361.4	
797.22	4033.1	
797.4	5076.2	
797.57	5768.4	
797.75	3497.2	
797.92	3302	
798.1	5352.7	
798.27	4472.8	
798.45	2901.3	
798.62	2990.7	
798.8	4816.8	
798.97	5185.5	
799.15	3657	
799.32	3434.4	
799.5	4257.7	
799.67	4787.5	
799.85	3739.6	
800.02	2788.7	
800.2	4524	
800.37	4735.6	
800.55	3885	
800.72	3269.2	
800.9	5171.8	
801.07	5482.4	
801.25	4248.2	
801.42	3525.2	
801.6	5234.6	
801.77	4854.4	
801.95	3297.2	
802.12	3173.7	
802.29	4960.2	
802.47	4898.7	
802.64	3544.4	
802.82	2709.5	
802.99	4514.4	
803.17	5236.7	
803.34	3476.8	
803.52	3151.1	
803.69	5816.9	
803.87	4302.8	
804.04	3448.1	
804.21	3445.4	
804.39	5389.6	
804.56	4637.3	
804.74	2972.3	
804.91	3561.4	
805.09	4547.2	
805.26	4611.3	
805.44	3063.8	
805.61	3241.3	
805.78	5069.4	
805.96	5076.2	
806.13	3523.2	
806.31	3779.9	
806.48	4163.5	
806.66	4541	
806.83	3588.7	
807	3448.1	
807.18	4535.6	
807.35	4811.4	
807.53	3429	
807.7	2861.7	
807.87	5431.2	
808.05	4551.3	
808.22	3772.4	
808.4	2846	
808.57	4459.1	
808.74	4216.1	
808.92	3190.7	
809.09	3956	
809.27	4483	
809.44	4897.4	
809.61	2843.9	
809.79	3153.2	
809.96	5487.2	
810.14	5078.3	
810.31	2760	
810.48	3346.4	
810.66	4585.4	
810.83	5145.2	
811.01	3224.2	
811.18	3504.1	
811.35	5120.6	
811.53	4071.4	
811.7	3790.1	
811.87	3558	
812.05	4592.2	
812.22	4489.8	
812.39	3128.6	
812.57	3011.9	
812.74	4583.4	
812.92	5791.7	
813.09	3363.4	
813.26	3580.5	
813.44	5613.5	
813.61	4404.5	
813.78	2814.6	
813.96	3663.8	
814.13	4541.7	
814.3	4289.1	
814.48	4031.8	
814.65	3345.7	
814.82	5410.1	
815	4283	
815.17	3414	
815.34	4109.6	
815.52	4476.9	
815.69	4443.4	
815.87	3334.1	
816.04	3315.7	
816.21	4532.8	
816.38	4123.9	
816.56	3264.5	
816.73	3116.3	
816.9	5595.7	
817.08	5049.6	
817.25	3145.7	
817.42	3816	
817.6	4141	
817.77	4507.6	
817.94	3475.4	
818.12	3054.9	
818.29	4315.1	
818.46	6262.7	
818.64	3213.9	
818.81	3052.2	
818.98	4293.9	
819.16	5964.4	
819.33	3691.1	
819.5	3409.2	
819.67	4797.7	
819.85	5332.2	
820.02	3387.3	
820.19	3534.8	
820.37	4671.4	
820.54	4435.2	
820.71	3491.1	
820.88	4185.4	
821.06	4683.7	
821.23	4309.6	
821.4	3475.4	
821.58	3461.7	
821.75	5029.8	
821.92	4631.8	
822.09	2845.3	
822.27	2930.6	
822.44	4540.3	
822.61	4453	
822.79	2914.9	
822.96	5263.3	
823.13	4856.4	
823.3	4277.5	
823.48	3237.8	
823.65	2959.3	
823.82	5022.3	
823.99	4187.4	
824.17	4091.2	
824.34	2988	
824.51	5828.5	
824.68	4596.3	
824.86	3150.5	
825.03	3491.1	
825.2	4605.9	
825.37	5344.5	
825.55	3097.2	
825.72	3415.3	
825.89	5791	
826.06	5454.4	
826.24	3265.1	
826.41	3325.9	
826.58	5412.8	
826.75	4730.1	
826.92	2725.2	
827.1	2935.4	
827.27	7109.2	
827.44	5760.3	
827.61	3167.5	
827.79	3789.4	
827.96	4351.9	
828.13	4556.7	
828.3	3321.1	
828.47	2798.2	
828.65	4788.2	
828.82	4759.5	
828.99	4134.2	
829.16	3660.4	
829.34	5100.8	
829.51	4865.3	
829.68	3383.2	
829.85	3496.6	
830.02	5371.8	
830.2	5115.8	
830.37	2725.8	
830.54	4029	
830.71	5637.4	
830.88	4575.2	
831.05	2745	
831.23	3067.9	
831.4	5444.2	
831.57	6017.6	
831.74	3172.3	
831.91	2798.2	
832.09	4836.6	
832.26	5076.2	
832.43	3225.6	
832.6	3663.8	
832.77	4787.5	
832.94	5340.4	
833.12	2670.6	
833.29	3197.6	
833.46	4890.5	
833.63	6139.1	
833.8	3460.4	
833.97	3295.2	
834.15	5126.1	
834.32	4870.8	
834.49	3398.9	
834.66	3426.9	
834.83	5220.3	
835	4364.2	
835.17	3180.5	
835.35	3197.6	
835.52	5013.4	
835.69	4905.6	
835.86	3282.9	
836.03	2740.9	
836.2	5044.1	
836.37	4795	
836.55	3205.1	
836.72	3082.2	
836.89	4747.2	
837.06	5109.7	
837.23	3309.5	
837.4	3557.3	
837.57	5675.6	
837.75	6199.2	
837.92	2985.9	
838.09	3197.6	
838.26	4717.8	
838.43	5244.2	
838.6	3401.7	
838.77	3067.2	
838.94	5866.1	
839.11	5719.3	
839.29	3234.4	
839.46	2610.5	
839.63	5084.4	
839.8	4750.6	
839.97	3179.1	
840.14	3177.1	
840.31	4933.6	
840.48	5119.2	
840.65	2699.9	
840.82	3076	
841	5070.8	
841.17	4899.4	
841.34	2923.8	
841.51	3036.5	
841.68	4975.2	
841.85	4777.2	
842.02	3054.9	
842.19	2564.1	
842.36	4878.3	
842.53	4915.1	
842.7	2953.2	
842.87	3560.1	
843.05	6140.5	
843.22	4776.5	
843.39	2807.1	
843.56	3033	
843.73	4700.1	
843.9	5153.4	
844.07	4562.2	
844.24	3799.7	
844.41	6940.6	
844.58	4440	
844.75	2843.9	
844.92	3028.3	
845.09	5023.7	
845.26	4988.2	
845.43	2912.9	
845.6	3111.5	
845.77	5046.2	
845.94	4866	
846.12	3252.9	
846.29	3340.9	
846.46	5278.3	
846.63	4980.7	
846.8	2867.2	
846.97	3465.2	
847.14	5437.4	
847.31	4975.9	
847.48	3276.8	
847.65	3564.8	
847.82	5195.7	
847.99	5191.6	
848.16	3827	
848.33	3568.2	
848.5	4649.6	
848.67	5450.3	
848.84	2901.3	
849.01	3005.7	
849.18	4616.8	
849.35	4367.6	
849.52	3566.2	
849.69	2841.9	
849.86	5228.5	
850.03	5264.6	
850.2	2887	
850.37	3459	
850.54	5305.6	
850.71	4752	
850.88	3426.9	
851.05	2866.5	
851.22	4914.4	
851.39	5459.2	
851.56	2737.5	
851.73	3292.5	
851.9	4453.6	
852.07	5180	
852.24	3241.3	
852.41	2903.3	
852.58	4960.2	
852.75	4517.1	
852.92	3229.6	
853.09	2806.4	
853.26	4697.4	
853.43	5352.7	
853.6	2877.4	
853.77	2571.6	
853.94	5485.1	
854.11	4496	
854.28	4194.9	
854.44	3138.2	
854.61	5806	
854.78	5255.1	
854.95	2855.6	
855.12	3584.6	
855.29	4140.3	
855.46	5664.7	
855.63	2917	
855.8	3932.1	
855.97	4670.7	
856.14	5288.5	
856.31	4014.7	
856.48	3166.8	
856.65	4721.3	
856.82	4421.6	
856.99	2753.2	
857.16	3130	
857.33	5942.5	
857.49	4735.6	
857.66	3140.9	
857.83	3287.7	
858	4756.7	
858.17	4949.9	
858.34	2788.7	
858.51	2908.1	
858.68	5511.8	
858.85	5532.9	
859.02	3356.6	
859.19	3545	
859.36	4472.8	
859.52	4448.9	
859.69	2963.4	
859.86	3403.7	
860.03	4527.4	
860.2	5375.2	
860.37	2697.2	
860.54	2919	
860.71	5199.1	
860.88	5492	
861.05	3258.3	
861.21	3618.8	
861.38	5497.4	
861.55	4345.1	
861.72	2695.1	
861.89	3231.7	
862.06	5199.8	
862.23	5571.2	
862.4	2866.5	
862.56	2983.9	
862.73	5081.7	
862.9	4869.4	
863.07	3348.4	
863.24	2628.9	
863.41	4377.9	
863.58	4539.7	
863.75	2942.2	
863.91	3319.8	
864.08	5445.5	
864.25	5119.2	
864.42	3623.5	
864.59	3934.8	
864.76	5709.1	
864.93	4472.8	
865.09	2796.8	
865.26	3085.6	
865.43	5434.6	
865.6	5675.6	
865.77	2561.3	
865.94	2936.1	
866.1	5419.6	
866.27	5134.9	
866.44	4222.2	
866.61	2828.2	
866.78	4782	
866.95	5127.4	
867.11	2822.1	
867.28	2627.5	
867.45	5339.7	
867.62	4500.1	
867.79	3265.8	
867.96	2905.4	
868.12	4481	
868.29	5199.8	
868.46	2894.5	
868.63	3828.3	
868.8	5277.6	
868.97	5172.5	
869.13	3050.8	
869.3	2992.1	
869.47	5059.8	
869.64	5283.1	
869.81	2906.8	
869.97	2947.7	
870.14	4960.9	
870.31	5507.7	
870.48	2835.8	
870.65	3652.9	
870.81	4743.1	
870.98	4755.4	
871.15	3253.5	
871.32	3056.3	
871.48	5125.4	
871.65	5520.6	
871.82	2912.2	
871.99	3177.1	
872.16	5831.9	
872.32	5373.9	
872.49	2965.5	
872.66	2932	
872.83	5165	
872.99	4607.9	
873.16	3324.5	
873.33	2873.3	
873.5	4913.8	
873.67	4952	
873.83	3088.3	
874	3804.4	
874.17	5058.5	
874.34	5749.3	
874.5	3670.6	
874.67	3530.7	
874.84	5438.7	
875.01	4405.2	
875.17	3945.8	
875.34	2866.5	
875.51	4912.4	
875.68	5855.8	
875.84	3447.4	
876.01	4093.2	
876.18	5190.9	
876.34	5022.3	
876.51	2877.4	
876.68	2903.3	
876.85	4734.9	
877.01	5418.2	
877.18	4074.8	
877.35	2893.1	
877.52	4937	
877.68	4459.1	
877.85	2919	
878.02	2844.6	
878.18	4758.1	
878.35	4627.7	
878.52	2377	
878.69	3226.2	
878.85	5238	
879.02	5147.2	
879.19	4022.9	
879.35	3115.6	
879.52	5094	
879.69	5231.9	
879.86	2519.7	
880.02	3244.7	
880.19	4813.4	
880.36	5752.7	
880.52	3302.7	
880.69	3390.1	
880.86	5231.9	
881.02	5240.8	
881.19	3229	
881.36	3158.7	
881.52	5139.7	
881.69	4620.2	
881.86	3146.4	
882.02	3010.5	
882.19	5349.3	
882.36	6219	
882.52	2998.9	
882.69	4052.9	
882.86	4971.8	
883.02	4933.6	
883.19	3467.2	
883.36	3270.6	
883.52	5173.2	
883.69	5875.6	
883.86	2948.4	
884.02	2648	
884.19	5173.9	
884.36	4868.7	
884.52	3243.3	
884.69	3076.7	
884.86	4641.4	
885.02	5623	
885.19	3175.7	
885.36	3344.3	
885.52	4820.9	
885.69	5035.3	
885.86	4127.3	
886.02	3603.1	
886.19	5238	
886.35	4681.7	
886.52	3182.5	
886.69	3936.2	
886.85	4506.9	
887.02	5492	
887.19	5492	
887.35	5492	
887.52	5492	
887.68	5492	
887.85	5492	
888.02	5492	
888.18	5492	
888.35	5492	
888.51	5492	
888.68	5492	
888.85	5492	
889.01	5492	
889.18	5492	
889.35	5492	
889.51	5492	
889.68	5492	
889.84	5492	
890.01	5492	
890.17	5492	
890.34	5492	
890.51	5492	
890.67	5492	
890.84	5492	
891	5492	
891.17	5492	
891.34	5492	
891.5	5492	
891.67	5492	
891.83	5492	
892	5492	
892.16	5492	
892.33	5492	
892.5	5492	
892.66	5492	
892.83	5492	
892.99	5492	
893.16	5492	
893.32	5492	
893.49	5492	
893.65	5492	
893.82	5492	
893.99	5492	
894.15	5492	
894.32	5492	
894.48	5492	
894.65	5492	
894.81	5492	
894.98	5492	
895.14	5492	
895.31	5492	
895.47	5492	
895.64	5492	
895.81	5492	
895.97	5492	
896.14	5492	
896.3	5492	
896.47	5492	
896.63	5492	
896.8	5492	
896.96	5492	
897.13	5492	
897.29	5492	
897.46	5492	
897.62	5492	
897.79	5492	
897.95	5492	
898.12	5492	
898.28	5492	
898.45	5492	
898.61	5492	
898.78	5492	
898.94	5492	
899.11	5492	
899.27	5492	
899.44	5492	
899.6	5492	
899.77	5492	
899.93	5492	
900.1	5492	
900.26	5492	
900.43	5492	
900.59	5492	
900.76	5492	
900.92	5492	
901.09	5492	
901.25	5492	
901.42	5492	
901.58	5492	
901.75	5492	
901.91	5492	
902.07	5492	
902.24	5492	
902.4	5492	
902.57	5492	
902.73	5492	
902.9	5492	
903.06	5492	
903.23	5492	
903.39	5492	
903.56	5492	
903.72	5492	
903.88	5492	
904.05	5492	
904.21	5492	
904.38	5492	
904.54	5492	
904.71	5492	
904.87	5492	
905.03	5492	
905.2	5492	
905.36	5492	
905.53	5492	
905.69	5492	
905.86	5492	
906.02	5492	
906.18	5492	
906.35	5492	
906.51	5492	
906.68	5492	
906.84	5492	
907.01	5492	
907.17	5492	
907.33	5492	
907.5	5492	
907.66	5492	
907.83	5492	
907.99	5492	
908.15	5492	
908.32	5492	
908.48	5492	
908.65	5492	
908.81	5492	
908.97	5492	
909.14	5492	
909.3	5492	
909.47	5492	
909.63	5492	
909.79	5492	
909.96	5492	
910.12	5492	
910.28	5492	
910.45	5492	
910.61	5492	
910.78	5492	
910.94	5492	
911.1	5492	
911.27	5492	
911.43	5492	
911.59	5492	
911.76	5492	
911.92	5492	
912.08	5492	
912.25	5492	
912.41	5492	
912.57	5492	
912.74	5492	
912.9	5492	
913.07	5492	
913.23	5492	
913.39	5492	
913.56	5492	
913.72	5492	
913.88	5492	
914.05	5492	
914.21	5492	
914.37	5492	
914.54	5492	
914.7	5492	
914.86	5492	
915.03	5492	
915.19	5492	
