Wavelength	Intensities	
nm	a.u.	
179.22	1609.5	
179.44	1608.7	
179.65	1610.4	
179.86	1607	
180.08	1599.5	
180.29	3685.7	
180.51	2820.1	
180.72	4759.5	
180.94	5250.3	
181.15	2577	
181.37	2560	
181.58	4557.4	
181.79	4721.3	
182.01	2653.5	
182.22	2779.1	
182.44	4756.1	
182.65	4139.6	
182.87	3382.6	
183.08	3009.8	
183.29	4959.5	
183.51	4246.8	
183.72	2742.2	
183.94	3801.7	
184.15	4478.2	
184.37	4403.8	
184.58	2548.4	
184.79	3216	
185.01	4306.9	
185.22	4777.2	
185.44	3347.1	
185.65	2913.6	
185.86	4509.6	
186.08	4218.8	
186.29	2443.9	
186.51	2617.3	
186.72	4296.6	
186.94	4859.1	
187.15	2981.2	
187.36	3042.6	
187.58	5909.1	
187.79	4583.4	
188.01	3022.8	
188.22	4548.5	
188.43	5286.5	
188.65	4782.7	
188.86	2639.1	
189.08	3091.8	
189.29	4356	
189.5	4321.2	
189.72	2802.3	
189.93	2857.6	
190.15	4872.1	
190.36	5525.4	
190.57	3053.5	
190.79	2923.1	
191	4880.3	
191.22	4923.3	
191.43	3053.5	
191.64	2656.2	
191.86	5018.9	
192.07	4911.7	
192.29	2745	
192.5	2833.7	
192.71	4933.6	
192.93	4379.9	
193.14	2745	
193.35	2887	
193.57	4360.1	
193.78	4904.2	
194	2312.8	
194.21	2770.9	
194.42	4219.5	
194.64	4530.1	
194.85	2957.9	
195.07	3426.3	
195.28	4532.8	
195.49	4074.1	
195.71	3599	
195.92	2678.7	
196.13	4642.1	
196.35	4654.4	
196.56	3727.3	
196.78	3027.6	
196.99	5617.6	
197.2	5193.6	
197.42	3308.8	
197.63	3065.8	
197.84	4197	
198.06	4677.6	
198.27	2791.4	
198.48	3536.2	
198.7	4350.6	
198.91	4545.8	
199.13	3052.8	
199.34	3035.8	
199.55	4857.1	
199.77	3984.7	
199.98	2730.6	
200.19	3046	
200.41	4429.1	
200.62	4283.7	
200.83	3134.1	
201.05	3272	
201.26	4461.8	
201.47	4283.7	
201.69	2769.5	
201.9	2648.7	
202.11	4562.9	
202.33	5193.6	
202.54	2848	
202.76	3118.4	
202.97	4470	
203.18	4625	
203.4	3112.9	
203.61	3193.5	
203.82	4569	
204.04	4261.8	
204.25	3069.9	
204.46	2964.8	
204.68	4523.3	
204.89	4715.1	
205.1	2984.6	
205.32	2583.2	
205.53	4758.8	
205.74	4867.3	
205.96	2332.6	
206.17	3082.9	
206.38	4743.1	
206.6	4825	
206.81	3420.1	
207.02	2850.8	
207.24	4670.1	
207.45	4888.5	
207.66	2948.4	
207.88	2573.6	
208.09	4655	
208.3	4496	
208.52	2728.6	
208.73	2955.9	
208.94	4512.4	
209.15	4932.2	
209.37	2903.3	
209.58	3035.1	
209.79	4827.7	
210.01	4379.2	
210.22	2476	
210.43	2501.9	
210.65	4453	
210.86	4775.9	
211.07	2867.2	
211.29	2740.2	
211.5	4698	
211.71	4481.6	
211.93	2726.5	
212.14	2738.8	
212.35	4505.5	
212.56	4506.9	
212.78	3027.6	
212.99	2560	
213.2	5098.8	
213.42	4397.7	
213.63	2840.5	
213.84	2861.7	
214.06	4122.6	
214.27	4149.9	
214.48	2890.4	
214.69	3087.7	
214.91	4962.2	
215.12	4973.8	
215.33	3069.2	
215.55	3260.4	
215.76	5255.1	
215.97	4740.4	
216.18	2979.1	
216.4	2972.3	
216.61	4319.2	
216.82	4836.6	
217.04	2745	
217.25	2807.1	
217.46	4956.1	
217.67	4764.3	
217.89	2523.8	
218.1	2541.5	
218.31	4521.9	
218.53	4631.8	
218.74	2912.2	
218.95	2762.7	
219.16	4489.8	
219.38	5154.1	
219.59	2788.7	
219.8	3178.4	
220.01	5445.5	
220.23	4536.9	
220.44	3416.7	
220.65	2672.6	
220.87	4570.4	
221.08	4980	
221.29	2624.1	
221.5	3231.7	
221.72	5728.2	
221.93	4274.8	
222.14	3037.1	
222.35	3474	
222.57	4487.8	
222.78	4868	
222.99	2953.9	
223.2	3101.3	
223.42	4664.6	
223.63	4782.7	
223.84	2303.3	
224.05	2380.4	
224.27	5341.8	
224.48	5066.7	
224.69	3495.2	
224.9	3080.8	
225.12	4592.2	
225.33	4491.9	
225.54	2525.1	
225.75	2763.4	
225.97	4255.7	
226.18	4473.4	
226.39	2907.4	
226.6	2748.4	
226.82	4357.4	
227.03	4225	
227.24	2984.6	
227.45	2611.2	
227.67	4839.4	
227.88	5038.7	
228.09	3409.9	
228.3	3272.7	
228.52	4728.1	
228.73	4466.6	
228.94	2838.5	
229.15	2562.7	
229.36	4472.8	
229.58	4499.4	
229.79	2906.1	
230	3230.3	
230.21	5256.5	
230.43	4571.1	
230.64	3034.4	
230.85	3115	
231.06	4864.6	
231.28	4810.7	
231.49	2556.5	
231.7	2990.7	
231.91	4789.5	
232.12	4511.7	
232.34	2727.2	
232.55	2927.9	
232.76	4887.8	
232.97	4584.7	
233.18	2699.9	
233.4	2967.5	
233.61	4653	
233.82	4366.3	
234.03	2891	
234.25	2826.9	
234.46	5829.2	
234.67	4555.4	
234.88	3091.8	
235.09	2790.7	
235.31	4627.7	
235.52	4429.1	
235.73	3004.4	
235.94	2641.2	
236.15	4314.4	
236.37	5283.1	
236.58	2717	
236.79	2907.4	
237	4697.4	
237.21	4171.7	
237.43	3078.8	
237.64	2567.5	
237.85	7101.7	
238.06	4207.2	
238.27	3073.3	
238.48	2602.3	
238.7	4797	
238.91	4371	
239.12	2913.6	
239.33	3007.1	
239.54	4251.6	
239.76	4441.4	
239.97	2950.4	
240.18	2957.3	
240.39	5302.9	
240.6	4607.9	
240.82	3082.9	
241.03	2579.1	
241.24	4487.1	
241.45	5025.7	
241.66	2758.6	
241.87	3102.7	
242.09	5043.5	
242.3	5206.6	
242.51	3175.7	
242.72	2945.7	
242.93	4769.7	
243.14	4443.4	
243.36	3315.7	
243.57	3490.4	
243.78	5104.9	
243.99	4780.6	
244.2	2894.5	
244.41	2688.3	
244.63	4170.3	
244.84	4611.3	
245.05	3088.3	
245.26	2902	
245.47	4745.1	
245.68	4797.7	
245.9	3676.1	
246.11	3087	
246.32	4400.4	
246.53	4641.4	
246.74	4432.5	
246.95	2585.9	
247.16	4297.3	
247.38	4545.8	
247.59	2535.4	
247.8	2944.3	
248.01	4158.1	
248.22	4519.2	
248.43	2699.9	
248.64	2908.1	
248.86	4172.4	
249.07	4343.7	
249.28	2668.5	
249.49	3038.5	
249.7	4852.3	
249.91	4895.3	
250.12	2568.8	
250.34	2591.4	
250.55	4549.2	
250.76	4485.7	
250.97	3026.2	
251.18	3024.8	
251.39	4916.5	
251.6	4610	
251.81	3062.4	
252.03	2988.7	
252.24	4346.5	
252.45	4845.5	
252.66	2667.1	
252.87	3108.1	
253.08	4504.2	
253.29	5559.6	
253.5	2619.4	
253.72	3460.4	
253.93	4448.2	
254.14	5139.7	
254.35	2835.8	
254.56	2869.9	
254.77	4650.9	
254.98	4237.9	
255.19	2837.8	
255.41	3438.5	
255.62	4615.4	
255.83	4909.7	
256.04	3137.5	
256.25	3007.8	
256.46	5213.4	
256.67	4313.7	
256.88	3010.5	
257.09	3315	
257.31	4170.3	
257.52	4193.6	
257.73	3677.5	
257.94	2807.8	
258.15	4483	
258.36	4425.7	
258.57	3336.8	
258.78	2375.6	
258.99	4851.6	
259.2	4379.9	
259.41	2796.8	
259.63	2911.5	
259.84	5016.2	
260.05	5236.7	
260.26	3519.8	
260.47	2811.9	
260.68	4836.6	
260.89	4386.7	
261.1	3338.2	
261.31	2722.4	
261.52	5010.7	
261.73	5107	
261.95	3502.7	
262.16	3103.4	
262.37	4941.7	
262.58	5038	
262.79	3574.4	
263	2805	
263.21	4582.7	
263.42	4089.1	
263.63	3062.4	
263.84	2841.2	
264.05	4895.3	
264.26	5073.5	
264.47	3405.1	
264.69	3100.6	
264.9	5036.6	
265.11	4555.4	
265.32	2748.4	
265.53	2776.4	
265.74	4600.4	
265.95	4095.9	
266.16	2941.6	
266.37	3191.4	
266.58	4663.9	
266.79	4302.8	
267	2764.1	
267.21	2648	
267.42	4212.7	
267.63	4493.2	
267.84	2906.1	
268.06	2569.5	
268.27	4847.5	
268.48	4907.6	
268.69	2934.1	
268.9	3264.5	
269.11	4971.1	
269.32	4112.3	
269.53	2897.2	
269.74	2739.5	
269.95	4603.2	
270.16	4128.7	
270.37	2952.5	
270.58	3321.8	
270.79	4485.1	
271	4831.2	
271.21	3004.4	
271.42	2979.8	
271.63	4620.9	
271.84	4172.4	
272.05	2463.7	
272.26	2691	
272.47	4530.1	
272.68	4623.6	
272.89	2869.9	
273.11	3147.7	
273.32	4360.8	
273.53	5058.5	
273.74	3082.9	
273.95	2988	
274.16	4803.2	
274.37	4528.7	
274.58	3198.9	
274.79	2628.9	
275	4630.5	
275.21	4870.8	
275.42	3748.5	
275.63	3119.1	
275.84	4742.4	
276.05	5588.2	
276.26	3055.6	
276.47	2889.7	
276.68	4478.9	
276.89	5161.6	
277.1	3197.6	
277.31	2671.9	
277.52	4635.9	
277.73	4922	
277.94	2547.7	
278.15	2831.7	
278.36	4638	
278.57	4282.3	
278.78	2862.4	
278.99	3110.9	
279.2	4367.6	
279.41	4275.5	
279.62	3599.6	
279.83	2694.4	
280.04	5282.4	
280.25	4240.7	
280.46	3562.8	
280.67	2930	
280.88	4287.8	
281.09	4926	
281.3	3063.8	
281.51	3701.4	
281.72	4341.7	
281.93	4805.2	
282.14	2799.6	
282.35	2970.9	
282.56	4891.2	
282.77	4775.2	
282.98	2897.9	
283.19	3358.7	
283.4	5687.9	
283.61	4489.1	
283.82	2702.6	
284.03	3504.1	
284.24	4713.7	
284.45	4894	
284.66	3570.3	
284.87	3386.7	
285.08	4881.7	
285.29	4965	
285.5	2612.5	
285.71	2882.2	
285.92	4846.2	
286.12	5242.8	
286.33	3462.4	
286.54	2915.6	
286.75	4787.5	
286.96	4407.2	
287.17	2666.5	
287.38	3392.8	
287.59	4355.3	
287.8	4355.3	
288.01	2854.9	
288.22	3192.8	
288.43	4690.5	
288.64	4121.9	
288.85	3363.4	
289.06	3202.3	
289.27	4857.8	
289.48	5006.6	
289.69	3561.4	
289.9	3191.4	
290.11	4945.8	
290.32	4388.1	
290.53	3364.8	
290.74	3087	
290.94	4733.5	
291.15	4820.2	
291.36	2823.5	
291.57	3237.8	
291.78	4427.7	
291.99	4123.2	
292.2	2738.8	
292.41	3186	
292.62	4802.5	
292.83	4709.6	
293.04	3697.3	
293.25	2807.8	
293.46	4414.7	
293.67	4840	
293.88	2765.4	
294.09	2695.1	
294.29	4238.6	
294.5	4620.9	
294.71	2955.2	
294.92	2832.3	
295.13	4407.2	
295.34	5289.2	
295.55	2600.2	
295.76	2521	
295.97	4777.9	
296.18	5220.3	
296.39	2628.9	
296.6	2762	
296.81	4552.6	
297.01	4821.6	
297.22	2917	
297.43	2805.7	
297.64	4382.7	
297.85	4203.1	
298.06	2421.4	
298.27	2523.8	
298.48	4468.7	
298.69	4325.3	
298.9	2998.9	
299.11	2735.4	
299.31	4235.2	
299.52	4271.4	
299.73	3140.2	
299.94	3056.9	
300.15	4506.9	
300.36	4317.1	
300.57	3115.6	
300.78	3003.7	
300.99	4405.9	
301.2	4572.4	
301.4	2850.8	
301.61	2959.3	
301.82	4683.7	
302.03	4866.7	
302.24	3278.8	
302.45	2657.6	
302.66	4686.4	
302.87	4838	
303.08	2788	
303.29	3601	
303.49	4417.5	
303.7	4445.5	
303.91	2547	
304.12	3461.1	
304.33	4156.7	
304.54	4656.4	
304.75	2779.8	
304.96	2705.4	
305.16	4722.6	
305.37	5184.1	
305.58	2516.3	
305.79	2514.9	
306	4733.5	
306.21	4122.6	
306.42	2807.1	
306.63	4004.5	
306.83	4418.2	
307.04	4782	
307.25	3016	
307.46	3014.6	
307.67	4092.5	
307.88	4695.3	
308.09	2843.3	
308.29	2835.8	
308.5	4571.7	
308.71	4816.1	
308.92	2941.6	
309.13	2691	
309.34	4483	
309.55	4467.3	
309.75	3372.3	
309.96	3049.4	
310.17	4799.8	
310.38	4346.5	
310.59	3211.9	
310.8	2642.6	
311.01	4390.2	
311.21	4454.3	
311.42	2706	
311.63	2755.2	
311.84	4354.7	
312.05	4542.4	
312.26	3038.5	
312.46	3257.6	
312.67	4402.5	
312.88	4184.7	
313.09	2706	
313.3	2698.5	
313.51	5067.4	
313.71	5192.3	
313.92	2754.5	
314.13	2792.1	
314.34	4626.4	
314.55	4540.3	
314.76	3244	
314.96	2899.9	
315.17	4674.8	
315.38	4636.6	
315.59	2703.3	
315.8	2638.5	
316.01	5025	
316.21	5119.2	
316.42	2661	
316.63	2907.4	
316.84	4398.4	
317.05	4898.7	
317.26	3097.9	
317.46	2840.5	
317.67	4467.3	
317.88	4762.2	
318.09	3295.9	
318.3	2560.6	
318.5	4367	
318.71	4644.8	
318.92	4037.9	
319.13	3141.6	
319.34	4849.6	
319.54	4918.5	
319.75	2547.7	
319.96	2458.2	
320.17	4689.2	
320.38	4839.4	
320.58	2528.6	
320.79	2940.2	
321	4884.4	
321.21	4975.2	
321.42	3003	
321.62	2553.1	
321.83	4282.3	
322.04	4528.7	
322.25	2891	
322.46	2665.1	
322.66	4624.3	
322.87	4697.4	
323.08	3244	
323.29	2641.2	
323.5	5162.2	
323.7	4201.1	
323.91	3498.6	
324.12	3198.2	
324.33	4635.2	
324.53	4676.2	
324.74	3070.6	
324.95	3140.2	
325.16	4157.4	
325.37	4379.2	
325.57	2669.2	
325.78	2763.4	
325.99	4648.9	
326.2	4132.1	
326.4	3676.8	
326.61	2567.5	
326.82	4453	
327.03	4600.4	
327.24	3668.6	
327.44	3433.1	
327.65	4726.7	
327.86	3977.8	
328.07	3080.8	
328.27	2646	
328.48	4982.7	
328.69	4213.4	
328.9	3660.4	
329.1	2813.9	
329.31	4418.2	
329.52	5014.1	
329.73	2760.7	
329.93	2921.8	
330.14	4614.8	
330.35	4631.1	
330.56	4149.2	
330.76	3203.7	
330.97	4414.1	
331.18	4564.2	
331.39	3011.2	
331.59	2534.7	
331.8	4898.7	
332.01	4916.5	
332.22	2804.4	
332.42	3095.2	
332.63	4631.1	
332.84	4257.7	
333.05	2968.2	
333.25	2753.8	
333.46	4319.2	
333.67	4494.6	
333.88	2854.2	
334.08	3021.4	
334.29	5655.1	
334.5	4820.2	
334.7	2711.5	
334.91	3588	
335.12	4186.7	
335.33	4724	
335.53	2962	
335.74	4112.3	
335.95	4437.9	
336.16	4194.9	
336.36	2943.6	
336.57	3281.5	
336.78	4135.5	
336.98	4885.1	
337.19	3499.3	
337.4	2882.2	
337.61	5307	
337.81	4205.8	
338.02	2798.2	
338.23	3350.5	
338.43	4977.9	
338.64	4306.9	
338.85	2736.8	
339.05	3419.4	
339.26	5091.9	
339.47	4126.7	
339.68	2691.7	
339.88	3751.9	
340.09	4762.9	
340.3	4834.6	
340.5	3119.1	
340.71	2523.8	
340.92	4207.2	
341.13	4977.9	
341.33	2605.7	
341.54	3113.6	
341.75	4657.8	
341.95	4375.8	
342.16	3004.4	
342.37	3211.2	
342.57	4239.3	
342.78	4448.2	
342.99	3239.2	
343.19	2542.2	
343.4	4803.9	
343.61	4637.3	
343.81	2862.4	
344.02	2599.6	
344.23	4734.9	
344.43	4975.2	
344.64	3252.9	
344.85	3144.3	
345.06	4670.7	
345.26	4901.5	
345.47	3106.1	
345.68	3571.7	
345.88	4123.2	
346.09	4783.4	
346.3	3123.2	
346.5	2437.1	
346.71	4446.8	
346.92	4334.2	
347.12	2594.8	
347.33	3091.8	
347.54	4825.7	
347.74	5063.9	
347.95	3065.1	
348.16	2426.8	
348.36	4369	
348.57	4233.2	
348.78	3105.4	
348.98	3271.3	
349.19	4412.7	
349.39	4110.3	
349.6	2608.4	
349.81	2808.4	
350.01	4714.4	
350.22	4299.4	
350.43	2985.9	
350.63	3467.2	
350.84	4513	
351.05	4308.9	
351.25	2762.7	
351.46	2559.3	
351.67	4812.7	
351.87	4240	
352.08	2888.3	
352.29	3218.7	
352.49	4803.9	
352.7	4552	
352.9	2621.4	
353.11	3154.6	
353.32	5225.1	
353.52	4298	
353.73	2635.7	
353.94	3250.1	
354.14	4665.3	
354.35	4423.6	
354.55	2736.8	
354.76	2970.9	
354.97	4624.3	
355.17	4450.2	
355.38	2640.5	
355.59	3388.7	
355.79	4289.1	
356	4437.9	
356.2	2940.9	
356.41	2668.5	
356.62	4145.8	
356.82	4414.7	
357.03	3208.5	
357.24	2863.1	
357.44	4240	
357.65	4385.4	
357.85	3547.8	
358.06	2967.5	
358.27	4045.4	
358.47	4200.4	
358.68	2557.9	
358.88	3086.3	
359.09	4548.5	
359.3	4750.6	
359.5	3506.1	
359.71	3186	
359.91	5094.7	
360.12	4566.3	
360.33	3136.1	
360.53	3393.5	
360.74	4268	
360.94	4229.7	
361.15	3271.3	
361.36	2712.9	
361.56	4788.8	
361.77	4455	
361.97	3474	
362.18	2893.8	
362.38	4746.5	
362.59	4216.1	
362.8	2690.3	
363	2594.1	
363.21	4007.9	
363.41	4484.4	
363.62	2989.4	
363.83	3586	
364.03	4614.8	
364.24	5048.2	
364.44	3779.2	
364.65	3615.3	
364.85	4393.6	
365.06	4190.8	
365.27	2850.8	
365.47	2893.8	
365.68	4979.3	
365.88	4402.5	
366.09	3074	
366.29	2820.7	
366.5	4502.1	
366.71	4763.6	
366.91	3583.9	
367.12	3211.2	
367.32	5212.1	
367.53	4684.4	
367.73	3245.3	
367.94	3758.7	
368.14	4681.7	
368.35	5070.1	
368.56	3177.1	
368.76	3008.5	
368.97	4823	
369.17	5734.3	
369.38	2803.7	
369.58	3000.3	
369.79	4081.6	
369.99	5005.2	
370.2	3678.8	
370.4	3026.9	
370.61	4504.2	
370.82	5396.4	
371.02	3005.7	
371.23	2587.3	
371.43	4134.2	
371.64	4951.3	
371.84	3054.9	
372.05	3707.5	
372.25	5668.1	
372.46	4604.5	
372.66	2939.5	
372.87	2937.5	
373.07	4724	
373.28	5784.8	
373.48	3609.9	
373.69	3360	
373.9	4473.4	
374.1	4435.9	
374.31	3523.2	
374.51	3226.2	
374.72	4930.1	
374.92	4184	
375.13	3679.5	
375.33	3207.1	
375.54	4663.2	
375.74	4307.6	
375.95	3190.7	
376.15	3928.7	
376.36	4657.1	
376.56	4627.7	
376.77	3211.2	
376.97	3458.3	
377.18	5395.7	
377.38	4717.8	
377.59	3704.8	
377.79	2930.6	
378	4571.7	
378.2	4792.9	
378.41	2968.9	
378.61	2870.6	
378.82	4901.5	
379.02	4371.7	
379.23	3053.5	
379.43	3699.3	
379.64	5006.6	
379.84	4656.4	
380.05	3012.6	
380.25	2872.6	
380.46	4739.7	
380.66	4495.3	
380.87	3752.6	
381.07	4072.7	
381.28	5170.4	
381.48	4773.1	
381.69	2981.8	
381.89	2987.3	
382.1	4100	
382.3	4780	
382.51	3694.5	
382.71	4210.6	
382.91	4646.8	
383.12	5081.7	
383.32	3188.7	
383.53	3315	
383.73	4640	
383.94	4561.5	
384.14	3321.8	
384.35	2762	
384.55	4417.5	
384.76	4734.9	
384.96	3205.1	
385.17	3382.6	
385.37	4742.4	
385.58	4271.4	
385.78	3379.1	
385.98	2751.1	
386.19	4492.6	
386.39	4687.1	
386.6	3064.4	
386.8	3141.6	
387.01	4738.3	
387.21	4831.8	
387.42	3456.3	
387.62	3768.3	
387.83	4387.4	
388.03	4563.6	
388.23	3302	
388.44	3699.3	
388.64	4148.5	
388.85	4180.6	
389.05	3427.6	
389.26	3792.2	
389.46	5513.8	
389.67	5051	
389.87	3497.9	
390.07	3431	
390.28	4491.2	
390.48	4179.2	
390.69	2910.2	
390.89	3184.6	
391.1	4453	
391.3	4945.2	
391.5	3926	
391.71	4224.3	
391.91	4858.5	
392.12	5283.8	
392.32	3936.2	
392.53	3411.2	
392.73	4473.4	
392.93	4539	
393.14	3295.9	
393.34	3899.3	
393.55	4838.7	
393.75	4556	
393.95	3233.7	
394.16	3239.9	
394.36	4382.7	
394.57	4879.6	
394.77	2934.7	
394.98	3163.4	
395.18	4377.9	
395.38	4403.8	
395.59	3732.1	
395.79	3071.3	
396	4483.7	
396.2	4786.8	
396.4	3625.6	
396.61	3563.5	
396.81	4780	
397.02	4386.7	
397.22	3715.7	
397.42	3730	
397.63	4939.7	
397.83	4362.9	
398.04	3093.8	
398.24	3338.2	
398.44	4721.9	
398.65	4072	
398.85	2957.9	
399.05	3026.9	
399.26	4422.9	
399.46	5433.9	
399.67	3249.4	
399.87	3080.1	
400.07	4556.7	
400.28	4773.1	
400.48	3152.5	
400.69	3794.2	
400.89	4900.8	
401.09	5262.6	
401.3	3057.6	
401.5	3723.2	
401.7	5309	
401.91	5552	
402.11	3355.9	
402.32	3472.7	
402.52	5001.1	
402.72	4903.5	
402.93	3595.6	
403.13	2853.5	
403.33	5515.2	
403.54	4618.2	
403.74	3429.7	
403.94	3973.7	
404.15	4724	
404.35	5444.9	
404.56	3268.6	
404.76	4405.2	
404.96	5033.2	
405.17	4843.4	
405.37	3915.7	
405.57	3540.3	
405.78	5019.6	
405.98	4647.5	
406.18	3285.6	
406.39	3779.9	
406.59	5010	
406.79	4620.9	
407	3117.7	
407.2	3194.1	
407.4	5273.5	
407.61	5113.8	
407.81	3222.1	
408.01	4328.7	
408.22	4232.5	
408.42	5525.4	
408.62	3900.7	
408.83	3525.9	
409.03	4706.2	
409.23	4595	
409.44	3590.1	
409.64	3640.6	
409.84	5341.8	
410.05	5233.2	
410.25	3697.9	
410.45	3526.6	
410.66	4922	
410.86	6464.1	
411.06	3815.4	
411.27	3729.4	
411.47	6306.4	
411.67	5012.7	
411.88	3827.7	
412.08	3968.3	
412.28	5365	
412.49	5720	
412.69	3739.6	
412.89	3783.3	
413.09	5648.3	
413.3	5538.4	
413.5	3794.9	
413.7	3556	
413.91	5104.9	
414.11	5612.1	
414.31	3694.5	
414.52	3949.2	
414.72	5466	
414.92	5345.9	
415.12	3696.6	
415.33	4053.6	
415.53	5625.8	
415.73	5682.4	
415.94	4233.2	
416.14	3852.9	
416.34	5034.6	
416.55	4899.4	
416.75	4716.5	
416.95	4330.8	
417.15	5773.2	
417.36	6071.5	
417.56	4791.6	
417.76	4169	
417.97	5830.6	
418.17	5622.4	
418.37	3938.2	
418.57	3942.3	
418.78	5625.8	
418.98	5313.1	
419.18	4572.4	
419.38	4474.1	
419.59	5309	
419.79	5129.5	
419.99	3921.2	
420.2	4059.1	
420.4	5755.5	
420.6	5722.7	
420.8	3850.9	
421.01	3818.8	
421.21	5621	
421.41	5610.8	
421.61	4091.2	
421.82	3934.1	
422.02	5296	
422.22	5949.3	
422.42	4390.2	
422.63	4216.8	
422.83	5396.4	
423.03	6157.6	
423.23	4219.5	
423.44	3566.2	
423.64	5395	
423.84	5134.9	
424.04	3897.3	
424.25	3673.4	
424.45	5980.8	
424.65	5904.3	
424.85	3558	
425.06	3887	
425.26	6120.7	
425.46	5321.3	
425.66	4215.4	
425.87	4033.1	
426.07	5753.4	
426.27	5693.4	
426.47	4165.6	
426.67	3654.3	
426.88	6053.8	
427.08	5689.9	
427.28	4333.5	
427.48	3666.5	
427.69	5086.5	
427.89	5426.4	
428.09	4188.1	
428.29	3763.5	
428.5	5812.1	
428.7	5606.7	
428.9	3661.8	
429.1	3973.7	
429.3	5547.9	
429.51	5754.8	
429.71	3879.5	
429.91	4416.1	
430.11	5797.8	
430.31	6016.9	
430.52	4007.2	
430.72	4271.4	
430.92	6086.6	
431.12	5724.1	
431.32	3806.5	
431.53	4166.3	
431.73	5081.7	
431.93	6096.8	
432.13	3817.4	
432.33	3732.8	
432.54	5422.3	
432.74	5573.2	
432.94	3694.5	
433.14	4356.7	
433.34	5896.1	
433.55	5437.4	
433.75	4304.8	
433.95	5479	
434.15	5692	
434.35	5395	
434.56	3846.1	
434.76	3528.7	
434.96	5569.1	
435.16	5786.9	
435.36	3736.2	
435.56	4506.9	
435.77	5427.8	
435.97	5536.3	
436.17	4937	
436.37	4486.4	
436.57	5393.7	
436.78	5328.1	
436.98	5606.7	
437.18	4851	
437.38	5734.3	
437.58	5496.1	
437.78	4944.5	
437.99	4084.3	
438.19	5975.3	
438.39	6412.2	
438.59	4100	
438.79	3727.3	
438.99	6299.6	
439.2	5473.5	
439.4	3827	
439.6	3801.7	
439.8	5689.9	
440	6358.3	
440.2	4421.6	
440.4	4584.7	
440.61	6081.8	
440.81	6251.8	
441.01	3933.5	
441.21	4493.9	
441.41	6341.9	
441.61	5976	
441.81	4681.7	
442.02	5300.1	
442.22	6601.3	
442.42	6092.7	
442.62	4089.8	
442.82	4118.5	
443.02	6384.2	
443.22	5765.7	
443.43	4405.9	
443.63	4047.5	
443.83	5643.5	
444.03	5585.5	
444.23	4821.6	
444.43	4589.5	
444.63	5934.3	
444.83	6639.5	
445.04	4278.2	
445.24	4983.4	
445.44	6146	
445.64	6132.3	
445.84	4709	
446.04	4743.8	
446.24	5744.6	
446.44	6373.3	
446.65	4141	
446.85	4365.6	
447.05	5743.2	
447.25	6339.8	
447.45	4491.9	
447.65	4030.4	
447.85	6079.1	
448.05	5695.4	
448.25	4652.3	
448.46	4616.1	
448.66	5940.5	
448.86	5704.3	
449.06	4088.4	
449.26	4700.1	
449.46	6223.1	
449.66	5625.8	
449.86	4425.7	
450.06	4414.1	
450.26	5722	
450.47	6107.7	
450.67	4653.7	
450.87	4864.6	
451.07	6320.7	
451.27	5987.6	
451.47	4202.4	
451.67	4709.6	
451.87	5797.8	
452.07	6575.3	
452.27	4394.9	
452.47	4319.2	
452.67	6064	
452.88	6324.1	
453.08	3966.9	
453.28	5212.8	
453.48	6932.4	
453.68	5984.8	
453.88	4268	
454.08	4435.9	
454.28	6242.2	
454.48	6034	
454.68	4789.5	
454.88	5010.7	
455.08	6442.2	
455.28	6079.7	
455.48	4268	
455.68	4717.8	
455.89	6652.5	
456.09	6423.8	
456.29	4507.6	
456.49	4562.9	
456.69	6658.6	
456.89	6072.9	
457.09	4874.2	
457.29	5045.5	
457.49	6309.1	
457.69	6444.3	
457.89	4801.1	
458.09	4347.8	
458.29	6250.4	
458.49	6738.5	
458.69	5048.2	
458.89	4551.3	
459.09	6870.3	
459.29	6872.3	
459.49	4731.5	
459.69	5205.3	
459.9	6559.6	
460.1	6286.6	
460.3	4681.7	
460.5	4519.9	
460.7	6580.1	
460.9	6271.6	
461.1	4395.6	
461.3	5150.6	
461.5	7051.2	
461.7	6759.7	
461.9	4687.1	
462.1	4917.2	
462.3	6488.6	
462.5	6790.4	
462.7	4760.2	
462.9	4791.6	
463.1	7500.3	
463.3	7278.5	
463.5	4932.2	
463.7	5511.8	
463.9	6630.6	
464.1	6862.7	
464.3	5076.9	
464.5	5161.6	
464.7	7077.8	
464.9	6804	
465.1	6014.2	
465.3	5460.6	
465.5	7307.8	
465.7	7312.6	
465.9	5658.5	
466.1	5456.5	
466.3	7089.4	
466.5	7075.7	
466.7	6120.7	
466.9	5365	
467.1	7210.2	
467.3	7619.8	
467.5	6148.7	
467.7	5361.6	
467.9	7845.1	
468.1	8370	
468.3	5772.5	
468.5	6130.9	
468.7	7015.7	
468.9	6984.9	
469.1	5601.2	
469.3	6019.7	
469.5	8404.2	
469.7	6896.9	
469.9	5908.4	
470.1	5414.1	
470.3	7247.8	
470.5	7202.7	
470.7	6318	
470.9	5602.6	
471.1	7062.1	
471.3	7304.4	
471.5	5404.6	
471.69	6603.3	
471.89	7027.9	
472.09	6627.2	
472.29	5907	
472.49	6118	
472.69	6836.1	
472.89	7279.2	
473.09	5406.6	
473.29	5516.5	
473.49	6907.8	
473.69	6911.9	
473.89	6055.2	
474.09	5443.5	
474.29	7802.8	
474.49	7546.1	
474.69	6006.7	
474.89	5597.8	
475.09	6994.5	
475.29	6976.7	
475.49	5392.3	
475.69	5476.3	
475.88	8062.2	
476.08	7271	
476.28	5265.3	
476.48	5425.1	
476.68	7593.2	
476.88	7348.8	
477.08	5506.3	
477.28	5546.6	
477.48	7060	
477.68	7409.6	
477.88	5291.3	
478.08	5499.5	
478.28	7720.8	
478.48	7129	
478.67	5530.2	
478.87	5216.9	
479.07	7570.7	
479.27	7171.3	
479.47	5653.8	
479.67	5780.1	
479.87	7445.7	
480.07	7699	
480.27	5278.3	
480.47	6246.3	
480.67	7223.2	
480.87	7642.3	
481.06	5420.3	
481.26	5946.6	
481.46	7252.5	
481.66	7128.3	
481.86	5783.5	
482.06	6322.1	
482.26	7060.7	
482.46	7603.4	
482.66	5704.3	
482.86	5368.4	
483.05	7417.1	
483.25	6890.7	
483.45	7277.8	
483.65	5683.1	
483.85	6922.1	
484.05	7131	
484.25	5911.1	
484.45	6254.5	
484.65	7708.6	
484.84	7688.8	
485.04	5680.4	
485.24	5674.9	
485.44	8030.1	
485.64	6888.7	
485.84	5313.1	
486.04	6047	
486.24	7234.1	
486.44	7306.5	
486.63	5305.6	
486.83	5801.9	
487.03	7141.9	
487.23	7243.7	
487.43	5397.1	
487.63	6735.8	
487.83	7355.6	
488.02	7747.5	
488.22	5990.3	
488.42	6361.7	
488.62	7895.6	
488.82	7144	
489.02	5720	
489.22	5735.7	
489.41	7774.1	
489.61	7585	
489.81	5641.5	
490.01	5640.8	
490.21	7858.7	
490.41	8190.5	
490.61	5598.5	
490.8	5648.3	
491	7537.2	
491.2	7038.2	
491.4	6100.2	
491.6	5629.9	
491.8	7555.6	
491.99	7441.6	
492.19	5420.3	
492.39	5646.2	
492.59	7799.3	
492.79	7790.5	
492.99	6161.7	
493.18	5573.9	
493.38	7841.7	
493.58	8359.1	
493.78	6029.9	
493.98	5772.5	
494.18	7667.6	
494.37	7327.6	
494.57	6299.6	
494.77	6133.7	
494.97	7963.2	
495.17	8050.6	
495.37	6012.2	
495.56	6265.4	
495.76	8185	
495.96	8036.9	
496.16	6841.6	
496.36	6239.5	
496.55	8292.9	
496.75	7889.5	
496.95	6454.5	
497.15	6323.4	
497.35	8208.9	
497.54	8225.3	
497.74	6312.5	
497.94	7467.6	
498.14	8714.1	
498.34	8482	
498.53	6030.6	
498.73	6559	
498.93	7781.6	
499.13	8189.1	
499.33	6483.9	
499.52	6761	
499.72	8310.7	
499.92	8360.5	
500.12	6300.2	
500.32	6498.9	
500.51	8456.1	
500.71	8224	
500.91	7035.5	
501.11	6734.4	
501.31	8461.5	
501.5	8628.8	
501.7	7248.4	
501.9	6622.4	
502.1	8290.9	
502.29	8547.5	
502.49	6759	
502.69	7128.3	
502.89	8407.6	
503.09	8391.2	
503.28	6215.6	
503.48	6387.6	
503.68	8034.9	
503.88	7884.7	
504.07	6883.9	
504.27	6597.2	
504.47	8180.3	
504.67	8256.7	
504.86	6836.1	
505.06	6654.5	
505.26	8068.3	
505.46	9031.5	
505.65	6571.2	
505.85	6691.4	
506.05	8092.2	
506.25	8376.2	
506.44	6133.7	
506.64	6719.4	
506.84	7896.3	
507.04	8369.4	
507.23	6313.2	
507.43	6659.3	
507.63	9096.4	
507.83	7903.8	
508.02	6619	
508.22	6375.3	
508.42	9306.7	
508.62	7884	
508.81	6407.4	
509.01	6954.2	
509.21	7859.4	
509.4	8087.4	
509.6	6721.4	
509.8	6336.4	
510	8021.2	
510.19	8710.7	
510.39	6222.4	
510.59	6397.9	
510.79	7972.1	
510.98	8752.3	
511.18	6520	
511.38	6573.3	
511.57	8520.9	
511.77	8199.4	
511.97	6938.5	
512.17	6358.9	
512.36	8574.2	
512.56	8315.4	
512.76	6322.1	
512.95	6150.7	
513.15	8690.9	
513.35	7573.4	
513.55	6898.2	
513.74	6379.4	
513.94	8467	
514.14	8053.3	
514.33	6974	
514.53	6855.2	
514.73	8229.4	
514.92	8232.2	
515.12	6484.6	
515.32	6457.2	
515.51	8376.9	
515.71	8466.3	
515.91	7616.4	
516.11	6513.9	
516.3	9359.2	
516.5	8122.2	
516.7	6876.4	
516.89	7179.5	
517.09	8161.2	
517.29	8206.9	
517.48	7169.3	
517.68	6670.9	
517.88	8036.2	
518.07	8437.6	
518.27	7025.2	
518.47	6411.5	
518.66	8815.1	
518.86	8014.4	
519.06	6369.2	
519.25	6621.1	
519.45	8137.9	
519.65	9184.5	
519.84	6989	
520.04	7439.6	
520.24	9365.4	
520.43	8611.7	
520.63	6861.4	
520.83	6806.1	
521.02	8248.5	
521.22	8591.9	
521.42	7105.1	
521.61	7451.2	
521.81	8390.5	
522.01	8502.5	
522.2	6974.7	
522.4	6842.3	
522.6	8839	
522.79	7909.3	
522.99	7004.1	
523.18	6541.2	
523.38	8649.3	
523.58	8706.6	
523.77	7845.8	
523.97	6584.9	
524.17	9923.1	
524.36	9405	
524.56	7650.5	
524.76	7370.6	
524.95	8752.3	
525.15	8615.1	
525.34	7273	
525.54	7316.7	
525.74	9179	
525.93	8484.7	
526.13	8152.3	
526.33	7375.4	
526.52	9530.6	
526.72	9121.7	
526.91	8213	
527.11	7805.5	
527.31	9407.7	
527.5	9758.6	
527.7	7795.3	
527.89	7114	
528.09	8899.1	
528.29	9252.7	
528.48	8085.4	
528.68	7849.2	
528.87	9630.9	
529.07	9591.3	
529.27	7838.9	
529.46	7587.7	
529.66	9528.5	
529.85	9646.6	
530.05	7520.8	
530.25	8037.6	
530.44	10411	
530.64	9353.8	
530.83	7924.3	
531.03	8008.2	
531.23	9830.2	
531.42	9607.7	
531.62	8514.8	
531.81	7952.9	
532.01	9971.6	
532.21	10038	
532.4	7934.5	
532.6	8141.4	
532.79	10593	
532.99	10061	
533.18	8323.6	
533.38	8925	
533.58	9945.6	
533.77	10249	
533.97	8412.4	
534.16	8869.1	
534.36	10574	
534.55	9940.2	
534.75	8942.1	
534.95	8422.6	
535.14	10559	
535.34	10007	
535.53	8197.3	
535.73	9484.1	
535.92	10914	
536.12	9970.9	
536.31	8478.6	
536.51	9202.9	
536.71	10301	
536.9	10054	
537.1	8391.9	
537.29	8528.4	
537.49	10606	
537.68	10032	
537.88	8845.9	
538.07	8230.1	
538.27	10210	
538.46	10783	
538.66	8206.2	
538.86	8528.4	
539.05	10246	
539.25	10508	
539.44	8940.1	
539.64	8492.2	
539.83	10221	
540.03	10804	
540.22	8438.3	
540.42	8521.6	
540.61	10279	
540.81	10352	
541	8728.4	
541.2	9233.6	
541.39	9934.7	
541.59	10219	
541.78	8981.7	
541.98	8396.7	
542.18	9848	
542.37	9844.6	
542.57	8687.5	
542.76	9088.2	
542.96	9848.7	
543.15	10215	
543.35	8721.6	
543.54	8228.7	
543.74	10139	
543.93	10052	
544.13	8600.1	
544.32	9192	
544.52	10307	
544.71	9790.7	
544.91	8070.4	
545.1	8732.5	
545.3	9779.1	
545.49	10167	
545.69	7889.5	
545.88	8340	
546.08	10783	
546.27	10512	
546.47	8686.1	
546.66	8204.2	
546.86	10339	
547.05	10715	
547.24	8295.6	
547.44	8281.3	
547.63	9685.5	
547.83	10280	
548.02	8505.2	
548.22	8559.8	
548.41	9486.2	
548.61	10354	
548.8	8196.7	
549	8101.1	
549.19	9988.6	
549.39	10169	
549.58	8001.4	
549.78	8325	
549.97	10127	
550.17	9872.6	
550.36	8826.1	
550.55	9412.5	
550.75	9765.4	
550.94	10420	
551.14	8080.6	
551.33	8245.8	
551.53	9439.1	
551.72	10069	
551.92	8256.7	
552.11	8196	
552.31	10130	
552.5	9985.9	
552.69	9273.2	
552.89	7987.1	
553.08	10015	
553.28	9813.2	
553.47	8110	
553.67	8759.8	
553.86	10376	
554.06	9234.3	
554.25	7688.1	
554.44	8008.9	
554.64	10834	
554.83	10614	
555.03	7981.6	
555.22	8181	
555.42	10142	
555.61	9940.8	
555.8	8178.2	
556	8316.8	
556.19	9359.9	
556.39	10066	
556.58	8159.1	
556.78	8121.6	
556.97	9783.1	
557.16	9662.3	
557.36	8894.3	
557.55	7913.4	
557.75	9182.4	
557.94	10408	
558.13	7869	
558.33	7759.8	
558.52	10159	
558.72	9426.1	
558.91	7841.7	
559.1	8030.1	
559.3	9244.5	
559.49	9009.7	
559.69	7800.7	
559.88	8135.2	
560.07	9813.2	
560.27	9957.2	
560.46	8267.6	
560.66	8397.4	
560.85	9611.8	
561.04	9022.7	
561.24	7675.8	
561.43	7826	
561.63	9172.2	
561.82	9354.4	
562.01	8691.6	
562.21	7951.6	
562.4	9646.6	
562.59	10290	
562.79	7902.4	
562.98	7757	
563.18	9558.6	
563.37	10438	
563.56	8300.4	
563.76	7780.2	
563.95	9344.9	
564.14	9260.9	
564.34	7990.5	
564.53	7774.1	
564.73	9684.8	
564.92	9850	
565.11	8171.4	
565.31	7636.9	
565.5	10041	
565.69	9213.1	
565.89	7785	
566.08	8047.2	
566.27	9889.6	
566.47	10167	
566.66	8503.8	
566.85	7582.3	
567.05	9726.5	
567.24	9302.6	
567.44	7830.7	
567.63	8644.5	
567.82	9927.9	
568.02	9624.8	
568.21	7733.8	
568.4	8118.1	
568.6	9637.7	
568.79	9521.7	
568.98	7817.1	
569.18	7795.9	
569.37	9609.1	
569.56	10821	
569.76	8087.4	
569.95	8759.2	
570.14	9839.1	
570.34	9740.1	
570.53	7822.6	
570.72	7763.8	
570.91	10224	
571.11	9594.7	
571.3	8075.8	
571.49	8627.4	
571.69	9653.4	
571.88	9181.7	
572.07	8312	
572.27	8249.2	
572.46	9370.8	
572.65	9876	
572.85	7845.8	
573.04	8129.8	
573.23	10081	
573.43	9655.5	
573.62	7744.7	
573.81	8128.4	
574	9748.3	
574.2	9448.6	
574.39	7944.1	
574.58	8124.3	
574.78	10180	
574.97	9731.3	
575.16	8402.1	
575.36	8527.1	
575.55	10120	
575.74	10128	
575.93	7801.4	
576.13	8536.6	
576.32	9678.7	
576.51	9940.2	
576.71	8118.1	
576.9	8973.5	
577.09	10327	
577.28	9883.5	
577.48	8410.3	
577.67	7847.1	
577.86	9722.4	
578.05	9884.2	
578.25	8220.5	
578.44	8273.1	
578.63	9715.6	
578.83	10492	
579.02	7873.1	
579.21	8731.2	
579.4	9955.9	
579.6	9757.9	
579.79	8291.5	
579.98	9635.7	
580.17	10036	
580.37	10238	
580.56	7873.8	
580.75	8396	
580.94	10283	
581.14	10373	
581.33	8666.3	
581.52	8051.9	
581.71	9880.8	
581.91	10439	
582.1	7927	
582.29	8186.4	
582.48	9837.1	
582.68	9822.1	
582.87	8550.3	
583.06	8309.3	
583.25	10106	
583.45	9599.5	
583.64	8733.2	
583.83	9176.9	
584.02	9877.4	
584.21	10101	
584.41	8624.7	
584.6	8239.7	
584.79	9852.1	
584.98	10264	
585.18	7947.5	
585.37	7994.6	
585.56	9638.4	
585.75	10072	
585.94	8088.8	
586.14	8548.2	
586.33	10348	
586.52	9828.2	
586.71	8305.2	
586.91	8149.6	
587.1	9356.5	
587.29	9966.1	
587.48	8024.6	
587.67	8034.9	
587.87	9897.8	
588.06	9758.6	
588.25	8754.4	
588.44	8336.6	
588.63	9579.7	
588.83	9959.3	
589.02	8102.4	
589.21	7788.4	
589.4	9467.1	
589.59	9336	
589.78	7309.2	
589.98	7454.6	
590.17	8961.2	
590.36	9303.9	
590.55	6980.8	
590.74	7430.7	
590.94	9932.6	
591.13	8980.3	
591.32	7296.2	
591.51	6908.5	
591.7	9287.5	
591.89	8935.3	
592.09	7019.8	
592.28	7250.5	
592.47	8446.5	
592.66	9828.9	
592.85	7114.6	
593.05	7229.3	
593.24	8902.5	
593.43	9577	
593.62	7365.9	
593.81	7647.8	
594	9053.4	
594.19	9154.4	
594.39	7164.5	
594.58	7083.2	
594.77	9207.7	
594.96	9551	
595.15	7141.3	
595.34	7462.1	
595.54	9011.1	
595.73	8519.5	
595.92	6761.7	
596.11	7433.4	
596.3	9395.4	
596.49	8684.8	
596.68	7230.7	
596.88	7541.3	
597.07	9154.4	
597.26	8501.8	
597.45	6990.4	
597.64	7714	
597.83	8607.6	
598.02	9118.9	
598.22	7019.8	
598.41	7393.8	
598.6	8922.3	
598.79	8480	
598.98	7051.2	
599.17	7616.4	
599.36	9023.4	
599.55	9663.7	
599.74	8260.1	
599.94	8239	
600.13	9330.5	
600.32	8568	
600.51	6823.8	
600.7	6993.8	
600.89	9602.9	
601.08	9726.5	
601.27	6847.7	
601.47	7408.9	
601.66	9082.7	
601.85	9562.6	
602.04	7273.7	
602.23	7425.9	
602.42	8616.5	
602.61	8982.4	
602.8	7171.3	
602.99	7011.6	
603.18	8850	
603.37	8993.3	
603.57	7417.7	
603.76	7814.4	
603.95	9359.9	
604.14	9070.5	
604.33	7052.5	
604.52	7275.1	
604.71	8939.4	
604.9	8659.5	
605.09	7593.2	
605.28	7477.1	
605.47	9346.2	
605.66	8960.5	
605.86	7524.9	
606.05	7107.1	
606.24	9377	
606.43	8348.9	
606.62	7266.9	
606.81	7823.2	
607	9200.2	
607.19	8729.1	
607.38	6928.3	
607.57	7036.8	
607.76	8646.5	
607.95	8215.8	
608.14	7379.5	
608.33	7660.8	
608.52	8484.1	
608.72	9158.5	
608.91	6746	
609.1	6704.4	
609.29	8626	
609.48	8256.7	
609.67	7353.6	
609.86	6733	
610.05	8455.4	
610.24	8555.7	
610.43	6779.5	
610.62	6506.4	
610.81	9294.4	
611	9115.5	
611.19	6821.1	
611.38	7182.9	
611.57	8721.6	
611.76	9501.2	
611.95	6641.6	
612.14	6537.8	
612.33	8504.5	
612.52	8292.9	
612.71	6918.7	
612.9	6468.9	
613.09	8006.9	
613.28	9600.9	
613.47	6830.7	
613.66	7378.8	
613.85	8720.9	
614.04	8277.2	
614.24	6838.9	
614.43	6287.9	
614.62	8753	
614.81	8656.8	
615	7051.8	
615.19	7081.2	
615.38	8302.5	
615.57	8518.9	
615.76	7103	
615.95	7701	
616.14	8804.9	
616.33	8573.5	
616.52	7262.1	
616.71	7395.2	
616.9	8770.8	
617.09	8639	
617.28	6815.6	
617.47	7561.8	
617.66	8176.9	
617.85	8183	
618.04	7395.9	
618.22	7015	
618.41	8409.6	
618.6	9026.8	
618.79	7071.6	
618.98	6931.7	
619.17	9275.3	
619.36	8070.4	
619.55	7002.7	
619.74	7113.3	
619.93	8753	
620.12	8404.9	
620.31	7434.1	
620.5	7632.1	
620.69	9091.6	
620.88	9434.3	
621.07	8066.3	
621.26	7451.9	
621.45	8931.9	
621.64	8959.2	
621.83	7488.1	
622.02	6958.3	
622.21	9036.3	
622.4	8895	
622.59	7856	
622.78	7836.9	
622.97	8668.4	
623.16	9253.4	
623.35	7579.5	
623.54	6969.2	
623.72	8806.3	
623.91	8880.7	
624.1	7791.8	
624.29	6798.6	
624.48	9590	
624.67	9110.7	
624.86	7658.7	
625.05	7077.8	
625.24	9677.3	
625.43	8712.1	
625.62	8734.6	
625.81	7161.1	
626	9253.4	
626.19	8833.6	
626.38	7570	
626.56	7305.8	
626.75	8761.9	
626.94	9144.9	
627.13	7634.1	
627.32	6808.1	
627.51	9230.2	
627.7	9840.5	
627.89	6879.1	
628.08	7580.9	
628.27	8665.6	
628.46	8752.3	
628.65	7155.6	
628.83	6838.2	
629.02	9149	
629.21	8681.3	
629.4	7402	
629.59	7585.7	
629.78	8609.7	
629.97	9236.3	
630.16	7592.5	
630.35	7217	
630.54	9681.4	
630.72	9344.9	
630.91	7254.6	
631.1	7539.3	
631.29	8964.6	
631.48	9058.2	
631.67	7667.6	
631.86	7260.7	
632.05	8804.2	
632.24	8824	
632.42	7106.5	
632.61	7409.6	
632.8	8784.4	
632.99	8547.5	
633.18	7488.1	
633.37	7694.9	
633.56	9071.8	
633.75	8940.1	
633.93	7503.8	
634.12	7309.2	
634.31	9546.3	
634.5	9310.7	
634.69	7314.7	
634.88	7606.2	
635.07	8905.3	
635.25	9291	
635.44	7872.4	
635.63	7970.7	
635.82	8758.5	
636.01	8322.3	
636.2	7791.2	
636.39	7500.3	
636.57	9579.7	
636.76	9273.2	
636.95	7157	
637.14	7980.3	
637.33	9076.6	
637.52	9605.7	
637.7	7091.4	
637.89	7804.1	
638.08	8800.1	
638.27	9618.6	
638.46	7654.6	
638.65	7894.9	
638.83	9650.7	
639.02	8569.4	
639.21	7658.7	
639.4	7841.7	
639.59	8848.6	
639.78	8659.5	
639.96	6985.6	
640.15	7135.1	
640.34	8891.6	
640.53	8860.9	
640.72	6868.9	
640.91	7132.4	
641.09	8375.5	
641.28	9181.7	
641.47	7083.2	
641.66	7550.2	
641.85	8794	
642.03	8891.6	
642.22	7421.8	
642.41	7081.9	
642.6	8333.9	
642.79	8146.1	
642.97	6925.5	
643.16	7338.6	
643.35	8402.8	
643.54	8293.6	
643.73	6860	
643.91	7344.7	
644.1	8116.1	
644.29	8585.1	
644.48	6796.5	
644.67	6790.4	
644.85	8108.6	
645.04	8426.7	
645.23	6585.6	
645.42	6741.9	
645.6	8075.8	
645.79	8830.2	
645.98	6611.5	
646.17	5960.3	
646.36	7836.9	
646.54	8149.6	
646.73	7083.2	
646.92	6425.8	
647.11	7910.6	
647.29	8525	
647.48	6410.8	
647.67	6152.8	
647.86	8665.6	
648.05	8665.6	
648.23	6495.5	
648.42	7322.2	
648.61	8292.2	
648.8	8139.3	
648.98	6329.6	
649.17	6436.8	
649.36	7786.4	
649.55	7454.6	
649.73	6276.3	
649.92	6748.7	
650.11	7712.7	
650.3	7934.5	
650.48	6337.8	
650.67	6158.9	
650.86	8118.8	
651.05	7402	
651.23	6350.8	
651.42	6322.1	
651.61	7776.1	
651.79	7644.4	
651.98	6501.6	
652.17	6180.8	
652.36	7977.5	
652.54	7366.5	
652.73	6224.5	
652.92	6089.3	
653.11	7958.4	
653.29	8073.1	
653.48	5723.4	
653.67	6381.5	
653.85	7789.8	
654.04	8428.8	
654.23	6454.5	
654.42	6134.3	
654.6	7406.1	
654.79	7909.9	
654.98	5800.5	
655.16	6130.3	
655.35	7175.4	
655.54	6989.7	
655.73	5664	
655.91	5695.4	
656.1	7632.1	
656.29	6972	
656.47	5450.3	
656.66	6517.3	
656.85	7187	
657.03	7228.6	
657.22	5807.4	
657.41	5765.7	
657.59	7191.8	
657.78	7163.1	
657.97	5606.7	
658.16	6047.7	
658.34	7742	
658.53	8061.5	
658.72	6664.8	
658.9	6977.4	
659.09	7454.6	
659.28	7539.3	
659.46	5941.8	
659.65	5892.7	
659.84	7272.3	
660.02	7696.9	
660.21	5885.2	
660.4	5813.5	
660.58	7898.3	
660.77	7420.5	
660.96	6221	
661.14	5558.9	
661.33	8166.6	
661.52	8100.4	
661.7	5541.8	
661.89	7766.6	
662.08	7337.9	
662.26	6849.8	
662.45	5712.5	
662.64	5810.1	
662.82	7667.6	
663.01	7063.4	
663.2	5766.4	
663.38	6197.2	
663.57	7487.4	
663.75	7493.5	
663.94	5991	
664.13	6702.3	
664.31	7190.4	
664.5	7576.1	
664.69	6076.3	
664.87	6462	
665.06	6967.9	
665.25	7419.8	
665.43	6578.8	
665.62	6598.6	
665.8	7576.8	
665.99	7235.5	
666.18	5954.8	
666.36	5984.2	
666.55	7588.4	
666.74	7470.3	
666.92	5705.6	
667.11	6744	
667.29	7230	
667.48	7613.7	
667.67	6445	
667.85	5788.2	
668.04	7133.8	
668.22	7074.4	
668.41	5970.5	
668.6	6116.6	
668.78	7007.5	
668.97	7205.4	
669.15	6121.4	
669.34	5500.2	
669.53	6993.1	
669.71	7245	
669.9	5630.5	
670.08	6014.2	
670.27	6932.4	
670.46	7419.1	
670.64	6186.9	
670.83	6350.8	
671.01	6933.7	
671.2	7247.8	
671.38	5719.3	
671.57	5591.6	
671.76	7740.6	
671.94	8043.1	
672.13	5520	
672.31	6165.8	
672.5	7536.5	
672.69	7045.7	
672.87	5637.4	
673.06	5864	
673.24	7387	
673.43	7137.2	
673.61	6098.9	
673.8	5783.5	
673.98	7400.7	
674.17	7540.6	
674.36	6177.4	
674.54	6141.9	
674.73	7232.7	
674.91	7487.4	
675.1	5886.5	
675.28	5621	
675.47	7219.1	
675.65	7499.7	
675.84	5829.9	
676.03	6053.8	
676.21	7053.2	
676.4	6636.8	
676.58	6314.6	
676.77	6199.9	
676.95	8079.2	
677.14	7064.1	
677.32	5523.4	
677.51	5518.6	
677.69	7498.3	
677.88	6855.2	
678.06	5512.4	
678.25	5573.9	
678.44	7204.8	
678.62	6978.8	
678.81	5509.7	
678.99	6004	
679.18	7688.1	
679.36	7462.1	
679.55	5850.4	
679.73	6189	
679.92	7361.1	
680.1	7086.7	
680.29	6600.6	
680.47	5749.3	
680.66	7060.7	
680.84	7574.8	
681.03	5427.1	
681.21	6209.4	
681.4	7106.5	
681.58	6958.3	
681.77	5662.6	
681.95	5667.4	
682.14	7602.1	
682.32	7828	
682.51	6236.7	
682.69	5440.1	
682.88	7019.8	
683.06	7290.8	
683.25	6019.7	
683.43	6268.8	
683.62	7221.1	
683.8	7430.7	
683.99	6406	
684.17	5937.7	
684.36	8058.1	
684.54	7130.3	
684.73	5462.6	
684.91	5464	
685.1	7320.8	
685.28	6891.4	
685.46	5797.8	
685.65	5884.5	
685.83	7264.1	
686.02	6901.7	
686.2	5415.5	
686.39	5459.2	
686.57	6688.7	
686.76	7595.2	
686.94	5447.6	
687.13	5580	
687.31	7182.2	
687.5	6957.6	
687.68	5216.9	
687.86	5979.4	
688.05	8058.8	
688.23	6584.2	
688.42	6099.5	
688.6	5659.9	
688.79	6901	
688.97	6968.6	
689.16	5954.8	
689.34	5179.3	
689.52	7394.5	
689.71	7657.4	
689.89	6092.7	
690.08	5649.7	
690.26	7324.9	
690.45	7023.9	
690.63	6256.5	
690.81	5799.8	
691	7256	
691.18	7068.2	
691.37	6012.2	
691.55	7424.6	
691.74	7121.5	
691.92	8335.2	
692.1	5991.7	
692.29	5612.8	
692.47	7236.8	
692.66	6812.2	
692.84	5818.3	
693.02	6062.7	
693.21	6842.3	
693.39	7292.1	
693.58	6184.2	
693.76	5819.6	
693.94	8079.9	
694.13	7935.2	
694.31	5986.9	
694.5	6586.3	
694.68	7212.3	
694.86	7589.8	
695.05	6320.7	
695.23	6499.6	
695.42	7817.8	
695.6	9164	
695.78	6697.5	
695.97	6091.3	
696.15	7948.2	
696.34	7520.8	
696.52	6098.9	
696.7	6628.6	
696.89	7920.2	
697.07	7434.8	
697.25	6550.1	
697.44	7428.7	
697.62	7769.3	
697.81	7892.2	
697.99	6341.9	
698.17	6697.5	
698.36	7389.8	
698.54	7858.1	
698.72	6640.9	
698.91	5924.1	
699.09	7591.8	
699.28	7423.2	
699.46	6356.2	
699.64	6234	
699.83	7558.4	
700.01	8097.7	
700.19	6870.9	
700.38	5786.2	
700.56	8226.7	
700.74	7630.7	
700.93	6072.9	
701.11	6701.6	
701.29	8003.5	
701.48	8744.8	
701.66	6326.2	
701.84	6445	
702.03	7825.3	
702.21	8289.5	
702.39	6198.5	
702.58	6612.2	
702.76	8128.4	
702.94	8247.9	
703.13	6171.2	
703.31	7770	
703.49	7769.3	
703.68	8751.7	
703.86	6417	
704.04	7034.8	
704.23	8115.4	
704.41	8318.2	
704.59	6550.1	
704.78	7257.3	
704.96	9259.5	
705.14	8341.4	
705.33	6451.1	
705.51	6890	
705.69	7953.6	
705.87	8578.3	
706.06	7152.2	
706.24	6449.1	
706.42	8342.7	
706.61	8410.3	
706.79	7216.4	
706.97	6447	
707.16	7960.5	
707.34	8270.4	
707.52	7081.9	
707.7	6537.8	
707.89	7968.6	
708.07	7810.3	
708.25	7280.5	
708.44	7311.2	
708.62	7944.1	
708.8	8723	
708.98	7399.3	
709.17	6782.2	
709.35	8309.3	
709.53	8344.1	
709.72	6569.2	
709.9	6658.6	
710.08	8529.8	
710.26	8581	
710.45	7584.3	
710.63	6731	
710.81	8230.1	
710.99	8200.7	
711.18	7197.2	
711.36	6749.4	
711.54	8170.7	
711.72	8538	
711.91	6871.6	
712.09	6597.9	
712.27	8267	
712.45	8494.3	
712.64	7000.6	
712.82	6308.4	
713	7821.9	
713.18	7854	
713.37	6322.1	
713.55	7073.7	
713.73	8381	
713.91	7476.5	
714.1	6417.7	
714.28	6024.4	
714.46	7829.4	
714.64	7335.1	
714.83	5457.2	
715.01	5828.5	
715.19	7198.6	
715.37	6516.6	
715.55	5514.5	
715.74	5638.7	
715.92	7527.7	
716.1	6180.8	
716.28	6350.1	
716.47	5730.9	
716.65	6740.5	
716.83	6645.7	
717.01	5555.5	
717.19	5530.2	
717.38	8092.9	
717.56	6528.9	
717.74	5803.9	
717.92	5227.8	
718.1	7359.7	
718.29	6811.5	
718.47	5081.7	
718.65	5547.3	
718.83	7488.7	
719.01	7445	
719.2	5285.1	
719.38	5990.3	
719.56	7433.4	
719.74	8420.6	
719.92	5948.7	
720.11	6434.7	
720.29	7479.9	
720.47	6933.7	
720.65	5418.9	
720.83	5881.8	
721.02	6968.6	
721.2	6806.1	
721.38	5795.1	
721.56	5340.4	
721.74	6421.7	
721.92	6439.5	
722.11	6033.3	
722.29	5825.1	
722.47	7258	
722.65	6668.2	
722.83	5236	
723.01	5735.7	
723.2	6793.8	
723.38	6978.1	
723.56	4922.6	
723.74	5611.4	
723.92	6442.9	
724.1	7210.9	
724.29	5256.5	
724.47	5961	
724.65	6614.9	
724.83	6455.9	
725.01	5156.1	
725.19	5709.1	
725.37	6406	
725.56	6384.9	
725.74	5121.3	
725.92	5264	
726.1	6478.4	
726.28	6733.7	
726.46	5513.8	
726.64	5266	
726.83	6776	
727.01	6732.4	
727.19	5113.8	
727.37	5624.4	
727.55	6858.6	
727.73	7031.4	
727.91	5013.4	
728.09	4958.1	
728.28	7086	
728.46	7247.8	
728.64	5700.9	
728.82	5609.4	
729	7722.2	
729.18	7375.4	
729.36	5212.8	
729.54	6589.7	
729.72	8081.3	
729.91	7043.6	
730.09	6505.7	
730.27	5788.9	
730.45	6987	
730.63	7360.4	
730.81	6127.5	
730.99	5655.1	
731.17	7880.6	
731.35	6836.8	
731.53	5898.2	
731.71	5614.8	
731.9	7581.6	
732.08	7571.3	
732.26	5849	
732.44	5518.6	
732.62	7674.4	
732.8	7284.6	
732.98	6036.7	
733.16	5424.4	
733.34	7306.5	
733.52	6432	
733.7	5644.9	
733.88	5758.2	
734.07	7162.4	
734.25	7039.6	
734.43	5371.1	
734.61	6243.6	
734.79	7969.3	
734.97	6970.6	
735.15	5361.6	
735.33	5665.4	
735.51	7186.3	
735.69	6886.6	
735.87	6294.1	
736.05	5715.9	
736.23	7047.1	
736.41	6830.7	
736.59	5596.4	
736.77	5658.5	
736.95	7301	
737.13	6756.2	
737.32	5356.1	
737.5	5540.4	
737.68	7741.3	
737.86	6799.3	
738.04	5283.8	
738.22	6408.8	
738.4	6728.9	
738.58	6895.5	
738.76	5580	
738.94	4962.2	
739.12	6687.3	
739.3	6646.3	
739.48	5983.5	
739.66	5773.9	
739.84	6901	
740.02	6839.5	
740.2	5044.1	
740.38	5193	
740.56	7118.7	
740.74	6289.3	
740.92	5613.5	
741.1	5453.7	
741.28	6689.3	
741.46	6483.2	
741.64	5183.4	
741.82	5610.1	
742	6690	
742.18	6672.3	
742.36	5375.9	
742.54	5048.9	
742.72	7038.9	
742.9	6077	
743.08	5560.2	
743.26	4771.1	
743.44	7050.5	
743.62	6876.4	
743.8	5629.2	
743.98	5031.9	
744.16	6729.6	
744.34	6505.7	
744.52	5457.2	
744.7	5414.1	
744.88	6825.2	
745.06	6371.2	
745.24	5451.7	
745.42	5560.9	
745.6	6808.8	
745.78	6724.2	
745.96	4682.3	
746.14	4839.4	
746.32	7248.4	
746.5	6606.7	
746.68	5091.3	
746.86	4808.6	
747.03	6810.2	
747.21	5840.1	
747.39	5171.1	
747.57	4719.2	
747.75	6455.9	
747.93	6602.7	
748.11	4770.4	
748.29	4777.2	
748.47	7447.8	
748.65	6102.3	
748.83	5242.8	
749.01	5003.9	
749.19	6543.9	
749.37	5964.4	
749.55	4969.1	
749.73	4984.1	
749.91	6326.2	
750.09	6188.3	
750.26	4962.9	
750.44	4593.6	
750.62	6268.1	
750.8	6229.2	
750.98	4504.8	
751.16	4704.9	
751.34	6333.7	
751.52	5863.3	
751.7	5208.7	
751.88	4468	
752.06	6552.8	
752.24	6353.5	
752.42	4426.3	
752.59	4651.6	
752.77	6118	
752.95	6977.4	
753.13	5139.7	
753.31	4710.3	
753.49	5973.2	
753.67	6266.8	
753.85	4813.4	
754.03	4580.6	
754.21	6390.3	
754.38	6572.6	
754.56	4537.6	
754.74	3953.9	
754.92	5657.9	
755.1	6075	
755.28	3852.2	
755.46	3802.4	
755.64	6420.4	
755.82	6412.2	
755.99	3744.4	
756.17	3700	
756.35	4622.3	
756.53	5501.5	
756.71	2891.7	
756.89	3762.1	
757.07	5127.4	
757.25	4668.7	
757.42	3838.6	
757.6	4426.3	
757.78	5349.3	
757.96	4812.7	
758.14	3691.8	
758.32	3459.7	
758.5	4491.2	
758.67	5016.2	
758.85	3641.3	
759.03	3701.4	
759.21	5169.8	
759.39	4813.4	
759.57	3332	
759.75	4091.8	
759.92	5631.2	
760.1	5165.7	
760.28	4376.5	
760.46	4533.5	
760.64	5087.8	
760.82	4953.4	
760.99	4304.1	
761.17	3840.6	
761.35	5609.4	
761.53	4924.7	
761.71	4042.7	
761.89	4345.1	
762.06	5649	
762.24	5273.5	
762.42	4069.3	
762.6	3936.9	
762.78	5272.2	
762.96	5715.9	
763.13	4360.1	
763.31	4102.1	
763.49	5786.9	
763.67	5343.2	
763.85	4689.8	
764.02	4960.9	
764.2	6020.3	
764.38	5429.2	
764.56	4067.3	
764.74	4571.7	
764.91	6044.2	
765.09	5332.2	
765.27	3848.1	
765.45	3718.4	
765.63	6130.9	
765.8	5849.7	
765.98	3560.7	
766.16	3657.7	
766.34	5069.4	
766.52	4870.1	
766.69	4269.3	
766.87	3541.6	
767.05	5317.9	
767.23	5736.4	
767.41	3789.4	
767.58	3883.6	
767.76	5614.2	
767.94	5677	
768.12	3844	
768.29	4248.2	
768.47	5220.3	
768.65	5700.2	
768.83	3510.2	
769	4199.7	
769.18	4987.5	
769.36	5357.5	
769.54	4225.6	
769.72	3547.1	
769.89	5619.6	
770.07	5576.6	
770.25	3742.3	
770.43	4533.5	
770.6	6029.9	
770.78	6308.4	
770.96	3840.6	
771.14	4164.2	
771.31	5596.4	
771.49	5080.3	
771.67	3300.6	
771.85	3446.7	
772.02	4626.4	
772.2	5013.4	
772.38	3864.5	
772.55	3551.2	
772.73	5287.9	
772.91	5064.6	
773.09	3820.1	
773.26	3824.2	
773.44	5196.4	
773.62	4947.2	
773.8	3454.9	
773.97	3283.6	
774.15	5206.6	
774.33	4979.3	
774.5	3392.8	
774.68	3562.1	
774.86	4974.5	
775.04	4926.7	
775.21	3371	
775.39	3310.2	
775.57	5108.3	
775.74	5283.1	
775.92	3301.3	
776.1	3153.2	
776.27	5022.3	
776.45	5754.8	
776.63	3323.9	
776.81	3132	
776.98	4851	
777.16	5452.4	
777.34	3459.7	
777.51	3693.2	
777.69	4868	
777.87	4646.2	
778.04	3517	
778.22	3808.5	
778.4	4660.5	
778.57	5065.3	
778.75	3002.3	
778.93	3176.4	
779.1	4576.5	
779.28	4373.8	
779.46	2927.2	
779.64	3272	
779.81	5272.2	
779.99	5694	
780.17	3749.1	
780.34	3823.6	
780.52	4843.4	
780.69	4915.1	
780.87	3444	
781.05	3160	
781.22	4889.2	
781.4	4803.9	
781.58	3240.6	
781.75	2737.5	
781.93	4844.1	
782.11	4321.9	
782.28	3813.3	
782.46	3261.7	
782.64	4268	
782.81	4948.6	
782.99	3366.9	
783.17	3237.2	
783.34	4814.1	
783.52	4375.1	
783.69	3325.9	
783.87	3902.7	
784.05	4491.9	
784.22	4411.3	
784.4	3860.4	
784.58	3423.5	
784.75	5063.9	
784.93	4487.1	
785.1	3151.8	
785.28	3605.1	
785.46	4910.3	
785.63	4322.6	
785.81	3211.9	
785.99	3074	
786.16	4580.6	
786.34	4714.4	
786.51	3082.9	
786.69	3408.5	
786.87	4201.1	
787.04	4528.1	
787.22	3019.4	
787.39	3595.6	
787.57	4402.5	
787.75	5102.2	
787.92	3777.8	
788.1	3671.3	
788.27	4358.8	
788.45	4149.2	
788.63	3452.9	
788.8	2693.8	
788.98	4777.2	
789.15	4070	
789.33	2874.7	
789.5	3177.1	
789.68	4974.5	
789.86	5056.4	
790.03	3515	
790.21	3035.1	
790.38	5068.7	
790.56	4414.7	
790.73	3025.5	
790.91	2956.6	
791.09	4343.7	
791.26	4798.4	
791.44	3196.2	
791.61	2777.7	
791.79	4347.2	
791.96	4367.6	
792.14	2863.1	
792.32	2628.9	
792.49	4337.6	
792.67	4407.2	
792.84	2945.7	
793.02	2745.6	
793.19	4701.5	
793.37	5081	
793.54	2628.2	
793.72	2764.8	
793.89	5113.8	
794.07	4358.1	
794.25	3234.4	
794.42	2669.2	
794.6	4975.2	
794.77	4704.2	
794.95	3285.6	
795.12	3009.8	
795.3	4368.3	
795.47	4678.2	
795.65	3364.1	
795.82	3102.7	
796	4187.4	
796.17	5348.6	
796.35	3117	
796.52	3572.3	
796.7	4680.3	
796.87	4681	
797.05	3082.2	
797.22	3599.6	
797.4	4762.9	
797.57	5348.6	
797.75	3194.1	
797.92	2981.8	
798.1	4941.7	
798.27	4151.9	
798.45	2676	
798.62	2769.5	
798.8	4508.3	
798.97	4823	
799.15	3263.8	
799.32	3177.8	
799.5	4013.3	
799.67	4428.4	
799.85	3323.9	
800.02	2616.6	
800.2	4313	
800.37	4424.3	
800.55	3442	
800.72	2924.5	
800.9	4857.8	
801.07	5074.2	
801.25	3844.7	
801.42	3233.7	
801.6	4859.1	
801.77	4503.5	
801.95	3057.6	
802.12	2938.8	
802.29	4615.4	
802.47	4457.1	
802.64	3265.8	
802.82	2555.9	
802.99	4331.5	
803.17	4868	
803.34	3143.6	
803.52	2865.8	
803.69	5252.4	
803.87	4070	
804.04	3160	
804.21	3188	
804.39	5000.5	
804.56	4340.3	
804.74	2753.8	
804.91	3222.1	
805.09	4265.9	
805.26	4298.7	
805.44	2775.7	
805.61	2994.1	
805.78	4724.7	
805.96	4666	
806.13	3160.7	
806.31	3371	
806.48	3997.6	
806.66	4252.3	
806.83	3225.6	
807	3117.7	
807.18	4336.9	
807.35	4468.7	
807.53	3134.8	
807.7	2646.7	
807.87	4961.5	
808.05	4231.8	
808.22	3358.7	
808.4	2635.1	
808.57	4185.4	
808.74	4041.3	
808.92	2888.3	
809.09	3463.1	
809.27	4269.3	
809.44	4552	
809.61	2615.3	
809.79	2835.1	
809.96	5137	
810.14	4704.2	
810.31	2570.2	
810.48	3099.9	
810.66	4242.7	
810.83	4685.8	
811.01	2904.7	
811.18	3164.8	
811.35	4721.9	
811.53	3850.9	
811.7	3355.9	
811.87	3174.4	
812.05	4327.4	
812.22	4209.9	
812.39	2822.8	
812.57	2745.6	
812.74	4266.6	
812.92	5314.5	
813.09	3038.5	
813.26	3125.2	
813.44	5156.8	
813.61	4203.1	
813.78	2595.5	
813.96	3268.6	
814.13	4321.2	
814.3	4090.5	
814.48	3560.1	
814.65	2947	
814.82	5090.6	
815	4023.6	
815.17	3037.1	
815.34	3588.7	
815.52	4261.8	
815.69	4216.8	
815.87	2962	
816.04	2995.5	
816.21	4272.1	
816.38	3931.4	
816.56	3013.2	
816.73	2832.3	
816.9	5168.4	
817.08	4730.8	
817.25	2848.7	
817.42	3343	
817.6	3972.4	
817.77	4207.2	
817.94	3050.1	
818.12	2751.8	
818.29	4099.4	
818.46	5650.3	
818.64	2990.7	
818.81	2718.3	
818.98	4100	
819.16	5373.2	
819.33	3252.9	
819.5	3051.5	
819.67	4541.7	
819.85	4945.2	
820.02	3025.5	
820.19	3136.8	
820.37	4420.2	
820.54	4165.6	
820.71	3106.1	
820.88	3740.3	
821.06	4399.7	
821.23	4092.5	
821.4	3087.7	
821.58	3036.5	
821.75	4676.9	
821.92	4386.1	
822.09	2610.5	
822.27	2699.9	
822.44	4246.1	
822.61	4206.5	
822.79	2618.7	
822.96	4616.8	
823.13	4486.4	
823.3	3989.4	
823.48	2937.5	
823.65	2663	
823.82	4702.8	
823.99	3976.5	
824.17	3629	
824.34	2689	
824.51	5260.5	
824.68	4299.4	
824.86	2840.5	
825.03	3076	
825.2	4283	
825.37	4941.7	
825.55	2880.1	
825.72	3036.5	
825.89	5210	
826.06	4923.3	
826.24	2995.5	
826.41	2978.4	
826.58	5011.4	
826.75	4360.8	
826.92	2512.9	
827.1	2704.7	
827.27	6435.4	
827.44	5177.3	
827.61	2889	
827.79	3347.7	
827.96	4108.2	
828.13	4245.4	
828.3	3012.6	
828.47	2530.6	
828.65	4540.3	
828.82	4403.8	
828.99	3629	
829.16	3259.7	
829.34	4721.9	
829.51	4592.2	
829.68	3067.9	
829.85	3069.9	
830.02	5056.4	
830.2	4717.2	
830.37	2460.3	
830.54	3539.6	
830.71	5188.9	
830.88	4255.7	
831.05	2441.2	
831.23	2809.1	
831.4	5139	
831.57	5484.5	
831.74	2874	
831.91	2551.1	
832.09	4631.1	
832.26	4752	
832.43	2898.6	
832.6	3218.7	
832.77	4487.8	
832.94	4981.3	
833.12	2400.2	
833.29	2850.1	
833.46	4212	
833.63	5575.9	
833.8	3112.9	
833.97	2878.1	
834.15	4754.7	
834.32	4625	
834.49	3011.2	
834.66	3120.4	
834.83	4780.6	
835	4145.8	
835.17	2842.6	
835.35	2789.3	
835.52	4715.1	
835.69	4590.9	
835.86	2955.2	
836.03	2448	
836.2	4771.1	
836.37	4443.4	
836.55	2853.5	
836.72	2782.5	
836.89	4473.4	
837.06	4821.6	
837.23	2940.9	
837.4	3132.7	
837.57	5257.1	
837.75	5634	
837.92	2702	
838.09	2834.4	
838.26	4448.9	
838.43	4823.6	
838.6	3013.2	
838.77	2775.7	
838.94	5363.6	
839.11	5266	
839.29	2938.2	
839.46	2350.4	
839.63	4803.9	
839.8	4498.7	
839.97	2815.3	
840.14	2766.8	
840.31	4637.3	
840.48	4771.1	
840.65	2432.3	
840.82	2751.8	
841	4685.8	
841.17	4602.5	
841.34	2632.3	
841.51	2743.6	
841.68	4674.1	
841.85	4458.4	
842.02	2732	
842.19	2333.3	
842.36	4606.6	
842.53	4582.7	
842.7	2639.8	
842.87	3053.5	
843.05	5600.5	
843.22	4484.4	
843.39	2538.1	
843.56	2757.2	
843.73	4414.1	
843.9	4800.4	
844.07	4051.6	
844.24	3369.6	
844.41	6265.4	
844.58	4192.9	
844.75	2620	
844.92	2700.6	
845.09	4706.9	
845.26	4637.3	
845.43	2590	
845.6	2767.5	
845.77	4709	
845.94	4550.6	
846.12	2834.4	
846.29	3026.9	
846.46	4906.9	
846.63	4627	
846.8	2658.3	
846.97	3031.7	
847.14	4979.3	
847.31	4669.4	
847.48	2901.3	
847.65	3115	
847.82	4866.7	
847.99	4740.4	
848.16	3342.3	
848.33	3095.8	
848.5	4347.2	
848.67	4977.2	
848.84	2555.9	
849.01	2730.6	
849.18	4354.7	
849.35	4074.1	
849.52	3151.8	
849.69	2561.3	
849.86	4821.6	
850.03	4902.2	
850.2	2594.8	
850.37	3089	
850.54	4887.8	
850.71	4422.2	
850.88	3075.4	
851.05	2607.1	
851.22	4601.1	
851.39	5035.3	
851.56	2485.6	
851.73	2953.2	
851.9	4199	
852.07	4849.6	
852.24	2852.1	
852.41	2527.9	
852.58	4597.7	
852.75	4270	
852.92	2893.8	
853.09	2590	
853.26	4337.6	
853.43	4965	
853.6	2658.9	
853.77	2285.5	
853.94	5043.5	
854.11	4187.4	
854.28	3693.9	
854.44	2788	
854.61	5318.6	
854.78	4898.7	
854.95	2595.5	
855.12	3125.9	
855.29	3917.8	
855.46	5157.5	
855.63	2597.5	
855.8	3406.5	
855.97	4363.5	
856.14	4909	
856.31	3519.8	
856.48	2826.2	
856.65	4438.6	
856.82	4217.5	
856.99	2556.5	
857.16	2782.5	
857.33	5419.6	
857.49	4478.9	
857.66	2765.4	
857.83	2931.3	
858	4498	
858.17	4601.1	
858.34	2471.9	
858.51	2615.9	
858.68	5047.6	
858.85	5070.8	
859.02	2944.3	
859.19	3103.4	
859.36	4216.1	
859.52	4222.2	
859.69	2607.7	
859.86	2955.2	
860.03	4205.8	
860.2	5031.9	
860.37	2473.9	
860.54	2648.7	
860.71	4831.2	
860.88	5061.9	
861.05	2865.8	
861.21	3142.3	
861.38	5014.1	
861.55	4032.5	
861.72	2419.3	
861.89	2815.3	
862.06	4835.9	
862.23	5107.6	
862.4	2562.7	
862.56	2704	
862.73	4760.2	
862.9	4558.8	
863.07	2927.9	
863.24	2452.8	
863.41	4170.3	
863.58	4217.5	
863.75	2667.8	
863.91	2993.4	
864.08	4908.3	
864.25	4823	
864.42	3164.1	
864.59	3472.7	
864.76	5258.5	
864.93	4248.9	
865.09	2582.5	
865.26	2802.3	
865.43	4981.3	
865.6	5217.5	
865.77	2343.6	
865.94	2546.3	
866.1	5009.3	
866.27	4689.8	
866.44	3735.5	
866.61	2589.3	
866.78	4463.2	
866.95	4737.6	
867.11	2536.1	
867.28	2393.4	
867.45	4906.9	
867.62	4204.5	
867.79	3019.4	
867.96	2610.5	
868.12	4156	
868.29	4787.5	
868.46	2596.8	
868.63	3335.5	
868.8	4847.5	
868.97	4736.3	
869.13	2717.7	
869.3	2722.4	
869.47	4651.6	
869.64	4848.2	
869.81	2604.3	
869.97	2641.9	
870.14	4596.3	
870.31	5038	
870.48	2571.6	
870.65	3158	
870.81	4473.4	
870.98	4463.9	
871.15	2846	
871.32	2700.6	
871.48	4683	
871.65	5127.4	
871.82	2574.3	
871.99	2784.6	
872.16	5397.1	
872.32	5051.7	
872.49	2643.2	
872.66	2642.6	
872.83	4843.4	
872.99	4330.1	
873.16	2953.9	
873.33	2572.2	
873.5	4526	
873.67	4610	
873.83	2750.4	
874	3377.8	
874.17	4679.6	
874.34	5286.5	
874.5	3302	
874.67	3132.7	
874.84	4976.6	
875.01	4040	
875.17	3478.1	
875.34	2562.7	
875.51	4599.1	
875.68	5445.5	
875.84	3102.7	
876.01	3568.2	
876.18	4762.9	
876.34	4697.4	
876.51	2575	
876.68	2603.7	
876.85	4416.1	
877.01	4996.4	
877.18	3548.4	
877.35	2553.1	
877.52	4694.6	
877.68	4171	
877.85	2620.7	
878.02	2572.9	
878.18	4397.7	
878.35	4340.3	
878.52	2196.1	
878.69	3020.1	
878.85	4950.6	
879.02	4802.5	
879.19	3517	
879.35	2784.6	
879.52	4768.4	
879.69	4771.8	
879.86	2330.6	
880.02	2864.4	
880.19	4532.8	
880.36	5322	
880.52	2856.9	
880.69	3027.6	
880.86	4809.3	
881.02	4878.9	
881.19	2818.7	
881.36	2776.4	
881.52	4775.9	
881.69	4255.7	
881.86	2812.5	
882.02	2732	
882.19	4862.6	
882.36	5560.9	
882.52	2644.6	
882.69	3517.7	
882.86	4593.6	
883.02	4586.1	
883.19	3136.8	
883.36	2891.7	
883.52	4881.7	
883.69	5346.6	
883.86	2613.2	
884.02	2459.6	
884.19	4797.7	
884.36	4528.7	
884.52	2918.4	
884.69	2765.4	
884.86	4399.7	
885.02	5134.3	
885.19	2832.3	
885.36	2917.7	
885.52	4485.1	
885.69	4663.2	
885.86	3631	
886.02	3174.4	
886.19	4807.9	
886.35	4332.8	
886.52	2848.7	
886.69	3465.8	
886.85	4183.3	
887.02	5008.6	
887.19	5008.6	
887.35	5008.6	
887.52	5008.6	
887.68	5008.6	
887.85	5008.6	
888.02	5008.6	
888.18	5008.6	
888.35	5008.6	
888.51	5008.6	
888.68	5008.6	
888.85	5008.6	
889.01	5008.6	
889.18	5008.6	
889.35	5008.6	
889.51	5008.6	
889.68	5008.6	
889.84	5008.6	
890.01	5008.6	
890.17	5008.6	
890.34	5008.6	
890.51	5008.6	
890.67	5008.6	
890.84	5008.6	
891	5008.6	
891.17	5008.6	
891.34	5008.6	
891.5	5008.6	
891.67	5008.6	
891.83	5008.6	
892	5008.6	
892.16	5008.6	
892.33	5008.6	
892.5	5008.6	
892.66	5008.6	
892.83	5008.6	
892.99	5008.6	
893.16	5008.6	
893.32	5008.6	
893.49	5008.6	
893.65	5008.6	
893.82	5008.6	
893.99	5008.6	
894.15	5008.6	
894.32	5008.6	
894.48	5008.6	
894.65	5008.6	
894.81	5008.6	
894.98	5008.6	
895.14	5008.6	
895.31	5008.6	
895.47	5008.6	
895.64	5008.6	
895.81	5008.6	
895.97	5008.6	
896.14	5008.6	
896.3	5008.6	
896.47	5008.6	
896.63	5008.6	
896.8	5008.6	
896.96	5008.6	
897.13	5008.6	
897.29	5008.6	
897.46	5008.6	
897.62	5008.6	
897.79	5008.6	
897.95	5008.6	
898.12	5008.6	
898.28	5008.6	
898.45	5008.6	
898.61	5008.6	
898.78	5008.6	
898.94	5008.6	
899.11	5008.6	
899.27	5008.6	
899.44	5008.6	
899.6	5008.6	
899.77	5008.6	
899.93	5008.6	
900.1	5008.6	
900.26	5008.6	
900.43	5008.6	
900.59	5008.6	
900.76	5008.6	
900.92	5008.6	
901.09	5008.6	
901.25	5008.6	
901.42	5008.6	
901.58	5008.6	
901.75	5008.6	
901.91	5008.6	
902.07	5008.6	
902.24	5008.6	
902.4	5008.6	
902.57	5008.6	
902.73	5008.6	
902.9	5008.6	
903.06	5008.6	
903.23	5008.6	
903.39	5008.6	
903.56	5008.6	
903.72	5008.6	
903.88	5008.6	
904.05	5008.6	
904.21	5008.6	
904.38	5008.6	
904.54	5008.6	
904.71	5008.6	
904.87	5008.6	
905.03	5008.6	
905.2	5008.6	
905.36	5008.6	
905.53	5008.6	
905.69	5008.6	
905.86	5008.6	
906.02	5008.6	
906.18	5008.6	
906.35	5008.6	
906.51	5008.6	
906.68	5008.6	
906.84	5008.6	
907.01	5008.6	
907.17	5008.6	
907.33	5008.6	
907.5	5008.6	
907.66	5008.6	
907.83	5008.6	
907.99	5008.6	
908.15	5008.6	
908.32	5008.6	
908.48	5008.6	
908.65	5008.6	
908.81	5008.6	
908.97	5008.6	
909.14	5008.6	
909.3	5008.6	
909.47	5008.6	
909.63	5008.6	
909.79	5008.6	
909.96	5008.6	
910.12	5008.6	
910.28	5008.6	
910.45	5008.6	
910.61	5008.6	
910.78	5008.6	
910.94	5008.6	
911.1	5008.6	
911.27	5008.6	
911.43	5008.6	
911.59	5008.6	
911.76	5008.6	
911.92	5008.6	
912.08	5008.6	
912.25	5008.6	
912.41	5008.6	
912.57	5008.6	
912.74	5008.6	
912.9	5008.6	
913.07	5008.6	
913.23	5008.6	
913.39	5008.6	
913.56	5008.6	
913.72	5008.6	
913.88	5008.6	
914.05	5008.6	
914.21	5008.6	
914.37	5008.6	
914.54	5008.6	
914.7	5008.6	
914.86	5008.6	
915.03	5008.6	
915.19	5008.6	
