Wavelength	Intensities	
nm	a.u.	
179.22	1911.1	
179.44	1903.2	
179.65	1918.9	
179.86	1887.5	
180.08	1929.2	
180.29	4960.2	
180.51	3477.5	
180.72	5639.4	
180.94	6630.6	
181.15	3250.1	
181.37	3179.1	
181.58	5508.4	
181.79	5859.2	
182.01	3362.8	
182.22	3661.8	
182.44	5872.2	
182.65	4867.3	
182.87	4596.3	
183.08	4001	
183.29	6084.5	
183.51	5005.9	
183.72	3639.9	
183.94	5410.7	
184.15	5406	
184.37	5426.4	
184.58	3235.1	
184.79	4444.1	
185.01	5016.2	
185.22	5775.3	
185.44	4700.1	
185.65	3974.4	
185.86	5298.1	
186.08	4890.5	
186.29	3072.6	
186.51	3338.2	
186.72	5043.5	
186.94	5914.5	
187.15	3873.4	
187.36	4113	
187.58	7750.9	
187.79	5499.5	
188.01	4292.5	
188.22	6552.8	
188.43	6732.4	
188.65	5754.1	
188.86	3370.3	
189.08	4005.1	
189.29	5265.3	
189.5	5216.2	
189.72	3730.7	
189.93	3839.9	
190.15	5958.9	
190.36	7204.1	
190.57	4145.1	
190.79	4074.1	
191	6120.7	
191.22	6009.4	
191.43	4162.8	
191.64	3400.3	
191.86	6334.4	
192.07	6042.2	
192.29	3537.5	
192.5	3756	
192.71	6017.6	
192.93	5169.8	
193.14	3706.1	
193.35	3779.2	
193.57	5196.4	
193.78	6075	
194	3029.6	
194.21	3714.3	
194.42	4939	
194.64	5451	
194.85	4022.9	
195.07	4743.1	
195.28	5509	
195.49	4713.7	
195.71	5023.7	
195.92	3492.5	
196.13	5620.3	
196.35	5718.6	
196.56	5386.2	
196.78	4061.8	
196.99	7011.6	
197.2	6627.2	
197.42	4636.6	
197.63	4085.7	
197.84	4807.3	
198.06	5674.9	
198.27	3739.6	
198.48	4985.4	
198.7	5186.1	
198.91	5335	
199.13	4060.4	
199.34	4126.7	
199.55	5843.5	
199.77	4674.8	
199.98	3594.2	
200.19	4187.4	
200.41	5294	
200.62	5013.4	
200.83	4308.2	
201.05	4573.1	
201.26	5368.4	
201.47	5027.1	
201.69	3604.4	
201.9	3472.7	
202.11	5408.7	
202.33	6444.3	
202.54	3882.9	
202.76	4238.6	
202.97	5498.8	
203.18	5567.1	
203.4	4242	
203.61	4145.1	
203.82	5474.2	
204.04	5158.2	
204.25	4160.1	
204.46	4001.7	
204.68	5419.6	
204.89	5644.2	
205.1	4028.4	
205.32	3400.3	
205.53	5809.4	
205.74	5983.5	
205.96	3001	
206.17	4199.7	
206.38	5836.7	
206.6	5900.9	
206.81	4678.2	
207.02	3784	
207.24	5692	
207.45	6092	
207.66	3857.7	
207.88	3270.6	
208.09	5639.4	
208.3	5415.5	
208.52	3549.1	
208.73	3902.7	
208.94	5428.5	
209.15	6166.4	
209.37	3873.4	
209.58	4043.4	
209.79	6002.6	
210.01	5222.3	
210.22	3059.7	
210.43	3245.3	
210.65	5486.5	
210.86	5894.7	
211.07	3873.4	
211.29	3544.4	
211.5	5754.8	
211.71	5403.2	
211.93	3510.2	
212.14	3546.4	
212.35	5391.6	
212.56	5622.4	
212.78	4074.8	
212.99	3364.8	
213.2	6460.7	
213.42	5161.6	
213.63	3779.2	
213.84	3981.9	
214.06	4824.3	
214.27	4857.1	
214.48	3873.4	
214.69	4186	
214.91	6103.6	
215.12	6268.1	
215.33	4187.4	
215.55	4647.5	
215.76	6701.6	
215.97	5835.3	
216.18	4065.9	
216.4	3872.7	
216.61	5078.3	
216.82	5993	
217.04	3571.7	
217.25	3732.1	
217.46	6077.7	
217.67	5773.9	
217.89	3252.9	
218.1	3284.3	
218.31	5537	
218.53	5589.6	
218.74	3768.3	
218.95	3650.8	
219.16	5272.8	
219.38	6375.3	
219.59	3720.5	
219.8	4323.9	
220.01	7080.5	
220.23	5488.6	
220.44	4823	
220.65	3508.2	
220.87	5477	
221.08	6100.2	
221.29	3327.9	
221.5	4496.7	
221.72	7393.2	
221.93	5179.3	
222.14	4132.8	
222.35	4844.8	
222.57	5431.9	
222.78	5847	
222.99	3897.3	
223.2	4214.7	
223.42	5791.7	
223.63	5937.7	
223.84	3011.9	
224.05	2973.7	
224.27	6910.5	
224.48	6281.1	
224.69	4853	
224.9	4095.3	
225.12	5634	
225.33	5382.1	
225.54	3287.7	
225.75	3648.8	
225.97	4987.5	
226.18	5237.3	
226.39	3979.9	
226.6	3611.9	
226.82	5128.1	
227.03	5085.8	
227.24	4155.3	
227.45	3415.3	
227.67	5758.9	
227.88	6443.6	
228.09	4569.7	
228.3	4587.4	
228.52	5949.3	
228.73	5327.4	
228.94	3776.5	
229.15	3372.3	
229.36	5311.7	
229.58	5236.7	
229.79	3826.3	
230	4498.7	
230.21	6513.2	
230.43	5530.2	
230.64	4088.4	
230.85	4250.2	
231.06	5867.4	
231.28	5889.3	
231.49	3282.2	
231.7	3981.3	
231.91	5733.6	
232.12	5493.3	
232.34	3465.2	
232.55	3968.3	
232.76	6139.1	
232.97	5609.4	
233.18	3599.6	
233.4	3997.6	
233.61	5680.4	
233.82	5180.7	
234.03	3816	
234.25	3644	
234.46	7566.6	
234.67	5442.1	
234.88	4241.3	
235.09	3595.6	
235.31	5817.6	
235.52	5367.7	
235.73	4035.2	
235.94	3439.9	
236.15	5190.2	
236.37	6605.4	
236.58	3590.1	
236.79	3945.8	
237	5751.4	
237.21	4970.4	
237.43	4214.7	
237.64	3300	
237.85	9878.7	
238.06	4997	
238.27	4280.3	
238.48	3470.6	
238.7	5796.4	
238.91	5326.1	
239.12	3900	
239.33	3907.5	
239.54	5018.9	
239.76	5304.2	
239.97	3902.7	
240.18	3870	
240.39	6874.3	
240.6	5741.8	
240.82	4073.4	
241.03	3345	
241.24	5433.3	
241.45	6324.1	
241.66	3573	
241.87	4237.2	
242.09	6158.2	
242.3	6504.3	
242.51	4246.1	
242.72	3968.3	
242.93	5890	
243.14	5394.3	
243.36	4554.7	
243.57	4896	
243.78	6268.1	
243.99	5643.5	
244.2	3912.3	
244.41	3517	
244.63	4972.5	
244.84	5815.5	
245.05	4212	
245.26	3908.2	
245.47	5743.9	
245.68	6035.4	
245.9	5279.7	
246.11	4138.9	
246.32	5257.8	
246.53	5761.6	
246.74	6406	
246.95	3308.8	
247.16	4915.1	
247.38	5457.2	
247.59	3263.8	
247.8	3911.6	
248.01	5217.5	
248.22	5419.6	
248.43	3508.9	
248.64	3820.8	
248.86	4803.2	
249.07	5187.5	
249.28	3467.9	
249.49	4035.2	
249.7	5948	
249.91	6106.4	
250.12	3284.9	
250.34	3279.5	
250.55	5556.1	
250.76	5438	
250.97	4040.6	
251.18	4074.8	
251.39	6150.7	
251.6	5631.9	
251.81	4192.2	
252.03	4126.7	
252.24	5184.8	
252.45	5956.2	
252.66	3399.6	
252.87	4344.4	
253.08	5469.4	
253.29	7163.1	
253.5	3436.5	
253.72	4808.6	
253.93	5315.8	
254.14	6466.1	
254.35	3714.3	
254.56	3863.2	
254.77	5724.1	
254.98	5029.8	
255.19	3685	
255.41	4805.2	
255.62	5538.4	
255.83	6094.1	
256.04	4231.1	
256.25	4125.3	
256.46	6520.7	
256.67	5109.7	
256.88	4034.5	
257.09	4508.3	
257.31	5114.5	
257.52	5122	
257.73	5087.8	
257.94	3727.3	
258.15	5285.1	
258.36	5481	
258.57	4712.4	
258.78	3002.3	
258.99	5919.3	
259.2	5286.5	
259.41	3770.3	
259.63	3845.4	
259.84	6325.5	
260.05	6773.3	
260.26	4967	
260.47	3633.8	
260.68	6042.9	
260.89	5384.1	
261.1	4500.1	
261.31	3592.8	
261.52	6062.7	
261.73	6442.9	
261.95	4813.4	
262.16	4300.1	
262.37	6201.9	
262.58	6272.9	
262.79	4828.4	
263	3841.3	
263.21	5554.8	
263.42	4898.1	
263.63	3900	
263.84	3807.9	
264.05	6044.2	
264.26	6402.6	
264.47	4685.1	
264.69	4250.2	
264.9	6158.9	
265.11	5666	
265.32	3617.4	
265.53	3730	
265.74	5569.1	
265.95	4848.9	
266.16	3986.7	
266.37	4372.4	
266.58	5597.1	
266.79	5266.7	
267	3700	
267.21	3476.1	
267.42	5037.3	
267.63	5420.3	
267.84	3948.5	
268.06	3327.3	
268.27	5842.2	
268.48	6233.3	
268.69	3814	
268.9	4573.8	
269.11	6181.5	
269.32	4909.7	
269.53	3928.7	
269.74	3648.8	
269.95	5786.2	
270.16	4835.9	
270.37	3912.3	
270.58	4522.6	
270.79	5316.5	
271	5985.5	
271.21	4140.3	
271.42	3981.3	
271.63	5569.8	
271.84	5082.4	
272.05	3089.7	
272.26	3550.5	
272.47	5416.9	
272.68	5649.7	
272.89	3721.2	
273.11	4305.5	
273.32	5296.7	
273.53	6406	
273.74	4201.1	
273.95	4098.7	
274.16	6069.5	
274.37	5524.1	
274.58	4236.6	
274.79	3441.3	
275	5484.5	
275.21	6128.2	
275.42	5111.7	
275.63	4456.4	
275.84	5668.1	
276.05	7132.4	
276.26	4130.1	
276.47	3893.9	
276.68	5285.8	
276.89	6460.7	
277.1	4460.5	
277.31	3454.9	
277.52	5753.4	
277.73	5866.7	
277.94	3429.7	
278.15	3760.8	
278.36	5653.1	
278.57	5076.9	
278.78	3725.9	
278.99	4235.2	
279.2	5099.4	
279.41	5002.5	
279.62	4943.1	
279.83	3437.2	
280.04	6696.2	
280.25	4934.2	
280.46	4930.8	
280.67	3949.2	
280.88	5088.5	
281.09	6092	
281.3	4124.6	
281.51	5259.2	
281.72	5134.3	
281.93	5978	
282.14	3644	
282.35	3964.2	
282.56	5925.5	
282.77	5911.8	
282.98	3784.6	
283.19	4704.2	
283.4	7329.7	
283.61	5419.6	
283.82	3366.9	
284.03	4887.1	
284.24	5580	
284.45	6072.2	
284.66	4922	
284.87	4711.7	
285.08	6033.3	
285.29	6205.3	
285.5	3337.5	
285.71	3855	
285.92	6100.2	
286.12	6754.9	
286.33	4840.7	
286.54	3784.6	
286.75	5968.5	
286.96	5365.7	
287.17	3465.8	
287.38	4750.6	
287.59	5130.2	
287.8	5009.3	
288.01	3876.1	
288.22	4464.6	
288.43	5968.5	
288.64	4967.7	
288.85	4543.1	
289.06	4322.6	
289.27	5883.1	
289.48	6396.5	
289.69	4909	
289.9	4418.2	
290.11	6089.3	
290.32	5176.6	
290.53	4659.8	
290.74	4256.4	
290.94	5945.9	
291.15	5948	
291.36	3721.2	
291.57	4429.8	
291.78	5187.5	
291.99	4867.3	
292.2	3548.4	
292.41	4216.8	
292.62	6019	
292.83	5788.9	
293.04	5243.5	
293.25	3551.9	
293.46	5276.9	
293.67	6101.6	
293.88	3691.1	
294.09	3530.7	
294.29	5038.7	
294.5	5603.9	
294.71	3996.3	
294.92	3765.5	
295.13	5236.7	
295.34	6599.9	
295.55	3380.5	
295.76	3337.5	
295.97	5857.9	
296.18	6676.4	
296.39	3499.3	
296.6	3767.6	
296.81	5616.2	
297.01	5887.9	
297.22	3766.2	
297.43	3592.8	
297.64	5048.2	
297.85	5070.1	
298.06	3029.6	
298.27	3298.6	
298.48	5481	
298.69	5104.2	
298.9	4037.2	
299.11	3532.7	
299.31	4982.7	
299.52	4982.7	
299.73	4296.6	
299.94	4190.8	
300.15	5449.6	
300.36	5082.4	
300.57	4234.5	
300.78	4134.8	
300.99	5337	
301.2	5599.8	
301.4	3627.6	
301.61	3977.8	
301.82	5694	
302.03	5846.3	
302.24	4518.5	
302.45	3522.5	
302.66	5761.6	
302.87	6197.2	
303.08	3673.4	
303.29	5088.5	
303.49	5203.9	
303.7	5483.8	
303.91	3276.8	
304.12	4753.3	
304.33	4955.4	
304.54	5603.2	
304.75	3712.3	
304.96	3533.4	
305.16	5780.1	
305.37	6578.1	
305.58	3239.9	
305.79	3364.8	
306	5836.7	
306.21	4848.2	
306.42	3669.3	
306.63	5642.8	
306.83	5292	
307.04	6038.8	
307.25	4115.1	
307.46	3987.4	
307.67	4685.8	
307.88	5941.8	
308.09	3592.8	
308.29	3785.3	
308.5	5517.9	
308.71	6105	
308.92	3958.7	
309.13	3567.6	
309.34	5440.1	
309.55	5356.8	
309.75	4634.6	
309.96	4252.3	
310.17	5890	
310.38	5172.5	
310.59	4448.9	
310.8	3476.1	
311.01	6543.3	
311.21	5347.2	
311.42	3500	
311.63	3611.9	
311.84	5227.8	
312.05	5577.3	
312.26	4089.1	
312.46	4528.7	
312.67	5291.3	
312.88	4922.6	
313.09	3573.7	
313.3	3467.2	
313.51	6283.2	
313.71	6687.3	
313.92	3529.3	
314.13	3776.5	
314.34	5591.6	
314.55	5411.4	
314.76	4603.8	
314.96	4018.8	
315.17	5567.1	
315.38	5958.2	
315.59	3585.3	
315.8	3413.3	
316.01	6429.9	
316.21	6395.1	
316.42	3459	
316.63	3938.9	
316.84	5334.3	
317.05	6217.6	
317.26	4231.1	
317.46	3757.3	
317.67	5414.1	
317.88	5827.8	
318.09	4520.5	
318.3	3282.9	
318.5	5233.2	
318.71	5777.3	
318.92	5844.9	
319.13	4155.3	
319.34	5958.2	
319.54	6176	
319.75	3311.6	
319.96	3140.9	
320.17	5859.2	
320.38	6049	
320.58	3264.5	
320.79	3888.4	
321	6067.4	
321.21	6191	
321.42	4001	
321.62	3278.1	
321.83	5046.2	
322.04	5479	
322.25	3696.6	
322.46	3569.6	
322.66	5595.1	
322.87	5739.8	
323.08	4489.8	
323.29	3562.1	
323.5	6533	
323.7	4984.8	
323.91	4866.7	
324.12	4375.1	
324.33	5495.4	
324.53	5787.6	
324.74	4255.7	
324.95	4435.9	
325.16	4877.6	
325.37	5304.2	
325.57	3590.8	
325.78	3631.7	
325.99	5552.7	
326.2	4953.4	
326.4	5218.9	
326.61	3284.9	
326.82	5425.8	
327.03	5622.4	
327.24	5100.1	
327.44	4869.4	
327.65	5670.8	
327.86	4623.6	
328.07	4229.7	
328.27	3420.8	
328.48	6161	
328.69	5068.7	
328.9	5150.6	
329.1	3835.8	
329.31	5362.9	
329.52	6311.8	
329.73	3577.8	
329.93	4050.2	
330.14	5481.7	
330.35	5709.1	
330.56	5928.9	
330.76	4485.7	
330.97	5286.5	
331.18	5643.5	
331.39	3986	
331.59	3173.7	
331.8	6083.1	
332.01	6227.9	
332.22	3687	
332.42	4248.9	
332.63	5625.8	
332.84	5145.2	
333.05	4012.7	
333.25	3645.4	
333.46	5272.2	
333.67	5472.9	
333.88	3745.7	
334.08	4151.2	
334.29	7323.5	
334.5	6137.8	
334.7	3490.4	
334.91	5105.6	
335.12	4990.2	
335.33	5917.3	
335.53	3928.7	
335.74	5907.7	
335.95	5255.8	
336.16	5113.1	
336.36	4039.3	
336.57	4544.4	
336.78	4954	
336.98	6105.7	
337.19	4902.2	
337.4	3900.7	
337.61	6611.5	
337.81	4965	
338.02	3643.3	
338.23	4728.8	
338.43	6241.5	
338.64	5092.6	
338.85	3589.4	
339.05	4776.5	
339.26	6363	
339.47	4887.8	
339.68	3524.6	
339.88	5323.4	
340.09	5689.9	
340.3	5997.1	
340.5	4224.3	
340.71	3224.9	
340.92	4916.5	
341.13	6198.5	
341.33	3458.3	
341.54	4220.9	
341.75	5647.6	
341.95	5326.1	
342.16	4023.6	
342.37	4376.5	
342.57	5031.2	
342.78	5436	
342.99	4486.4	
343.19	3239.2	
343.4	5882.4	
343.61	5731.6	
343.81	3830.4	
344.02	3510.2	
344.23	5939.8	
344.43	6303.6	
344.64	4389.5	
344.85	4335.5	
345.06	5698.1	
345.26	6077	
345.47	4114.4	
345.68	4845.5	
345.88	4833.2	
346.09	5942.5	
346.3	4212	
346.5	3209.8	
346.71	5461.9	
346.92	5173.9	
347.12	3242.6	
347.33	4199.7	
347.54	6034	
347.74	6456.6	
347.95	4070	
348.16	3085.6	
348.36	5267.4	
348.57	5027.1	
348.78	4065.2	
348.98	4423.6	
349.19	5472.2	
349.39	4944.5	
349.6	3289.7	
349.81	3686.3	
350.01	5761.6	
350.22	5228.5	
350.43	4007.9	
350.63	4771.8	
350.84	5472.9	
351.05	5260.5	
351.25	3601	
351.46	3210.5	
351.67	6042.9	
351.87	5165	
352.08	3823.6	
352.29	4325.3	
352.49	5978.7	
352.7	6021	
352.9	3504.8	
353.11	4372.4	
353.32	6679.8	
353.52	5281	
353.73	3423.5	
353.94	4379.2	
354.14	5752.7	
354.35	5558.2	
354.55	3498.6	
354.76	3962.8	
354.97	5684.5	
355.17	5522	
355.38	3362.8	
355.59	4649.6	
355.79	5083.1	
356	5581.4	
356.2	3941	
356.41	3444	
356.62	4848.2	
356.82	5367	
357.03	4175.8	
357.24	3771.7	
357.44	5233.2	
357.65	5252.4	
357.85	5048.9	
358.06	3932.1	
358.27	4870.1	
358.47	5111	
358.68	3311.6	
358.88	4143.7	
359.09	5628.5	
359.3	6036	
359.5	4879.6	
359.71	4272.1	
359.91	6518.7	
360.12	5857.9	
360.33	4149.2	
360.53	4693.3	
360.74	5173.2	
360.94	5218.9	
361.15	4393.6	
361.36	3572.3	
361.56	5892.7	
361.77	5341.1	
361.97	4855.1	
362.18	3796.3	
362.38	5967.8	
362.59	4984.1	
362.8	3538.2	
363	3340.2	
363.21	4874.8	
363.41	5466.7	
363.62	4078.2	
363.83	5095.3	
364.03	5574.6	
364.24	6582.2	
364.44	5188.9	
364.65	5204.6	
364.85	5356.1	
365.06	5179.3	
365.27	3776.5	
365.47	3702.7	
365.68	6242.2	
365.88	5333.6	
366.09	4094.6	
366.29	3854.3	
366.5	5557.5	
366.71	6039.5	
366.91	5090.6	
367.12	4300.7	
367.32	6537.8	
367.53	5857.2	
367.73	4271.4	
367.94	5172.5	
368.14	5807.4	
368.35	6678.4	
368.56	4274.1	
368.76	3544.4	
368.97	5907	
369.17	7594.6	
369.38	3667.9	
369.58	3981.9	
369.79	4928.8	
369.99	6270.9	
370.2	5039.4	
370.4	4112.3	
370.61	5606	
370.82	6846.4	
371.02	3962.8	
371.23	3238.5	
371.43	4795	
371.64	6172.6	
371.84	4006.5	
372.05	5250.3	
372.25	7550.9	
372.46	5892	
372.66	3986	
372.87	3928.7	
373.07	5932.3	
373.28	7570	
373.48	5025	
373.69	4681	
373.9	5463.3	
374.1	5515.9	
374.31	4904.9	
374.51	4508.9	
374.72	6319.3	
374.92	5093.3	
375.13	5086.5	
375.33	4318.5	
375.54	5822.4	
375.74	5227.1	
375.95	4364.9	
376.15	5565	
376.36	5803.9	
376.56	5658.5	
376.77	4388.8	
376.97	4829.8	
377.18	6890	
377.38	5916.6	
377.59	5205.9	
377.79	3852.9	
378	5659.9	
378.2	6151.4	
378.41	3995.6	
378.61	3842.7	
378.82	6163	
379.02	5238	
379.23	4094.6	
379.43	5233.9	
379.64	6227.2	
379.84	5889.3	
380.05	3910.3	
380.25	3908.9	
380.46	6004.6	
380.66	5582.8	
380.87	5306.3	
381.07	5718.6	
381.28	6700.3	
381.48	5984.8	
381.69	3998.3	
381.89	4018.8	
382.1	4912.4	
382.3	6167.8	
382.51	5186.8	
382.71	6088.6	
382.91	6005.3	
383.12	6546	
383.32	4328	
383.53	4584.7	
383.73	5872.2	
383.94	5608.7	
384.14	4472.1	
384.35	3650.2	
384.55	5498.1	
384.76	6024.4	
384.96	4356	
385.17	4657.8	
385.37	6011.5	
385.58	5241.4	
385.78	4676.2	
385.98	3510.9	
386.19	5454.4	
386.39	5862.7	
386.6	4105.5	
386.8	4313	
387.01	6021.7	
387.21	6020.3	
387.42	4773.8	
387.62	5368.4	
387.83	5235.3	
388.03	5982.8	
388.23	4350.6	
388.44	5231.2	
388.64	4955.4	
388.85	5059.2	
389.05	4686.4	
389.26	5286.5	
389.46	6953.5	
389.67	6393.8	
389.87	4760.2	
390.07	4805.9	
390.28	5554.8	
390.48	5156.8	
390.69	3944.4	
390.89	4272.7	
391.1	5395.7	
391.3	6302.3	
391.5	5471.5	
391.71	6064	
391.91	5997.8	
392.12	7067.5	
392.32	5540.4	
392.53	4850.3	
392.73	5454.4	
392.93	5623	
393.14	4359.4	
393.34	5211.4	
393.55	6123.4	
393.75	5561.6	
393.95	4403.8	
394.16	4419.5	
394.36	5409.4	
394.57	6083.1	
394.77	3855.6	
394.98	4367	
395.18	5354.1	
395.38	5416.2	
395.59	5185.5	
395.79	4067.9	
396	5474.2	
396.2	5973.9	
396.4	4904.9	
396.61	4879.6	
396.81	6155.5	
397.02	5373.9	
397.22	5235.3	
397.42	5233.9	
397.63	6141.2	
397.83	5267.4	
398.04	4067.3	
398.24	4603.8	
398.44	5908.4	
398.65	4946.5	
398.85	3900.7	
399.05	4024.9	
399.26	5236	
399.46	7008.8	
399.67	4435.9	
399.87	4089.1	
400.07	5620.3	
400.28	6051.1	
400.48	4182.6	
400.69	5279.7	
400.89	6255.9	
401.09	6664.1	
401.3	4074.8	
401.5	5309.7	
401.7	6879.8	
401.91	7167.9	
402.11	4429.8	
402.32	4627.7	
402.52	6307.1	
402.72	6106.4	
402.93	4952	
403.13	3704.1	
403.33	6995.2	
403.54	5742.5	
403.74	4605.2	
403.94	5490.6	
404.15	5811.5	
404.35	6988.4	
404.56	4369.7	
404.76	6260	
404.96	6191	
405.17	5986.9	
405.37	5665.4	
405.57	4844.1	
405.78	6277	
405.98	5646.9	
406.18	4332.1	
406.39	5296.7	
406.59	6238.1	
406.79	5880.4	
407	4200.4	
407.2	4278.2	
407.4	6207.4	
407.61	6492.1	
407.81	4270.7	
408.01	6679.8	
408.22	5124	
408.42	7301.7	
408.62	5295.4	
408.83	4814.1	
409.03	5784.1	
409.23	5621.7	
409.44	4879.6	
409.64	5099.4	
409.84	6733	
410.05	6617	
410.25	4962.9	
410.45	4704.2	
410.66	6127.5	
410.86	8535.9	
411.06	5138.4	
411.27	5053.7	
411.47	8247.2	
411.67	6216.3	
411.88	5317.2	
412.08	5501.5	
412.28	6900.3	
412.49	7389.8	
412.69	5008	
412.89	5052.3	
413.09	7285.3	
413.3	7029.3	
413.5	5091.9	
413.7	4693.9	
413.91	6315.3	
414.11	7202.7	
414.31	4889.9	
414.52	5380	
414.72	6850.5	
414.92	6748.1	
415.12	5003.2	
415.33	5493.3	
415.53	7123.5	
415.73	7294.9	
415.94	5789.6	
416.14	5288.5	
416.34	6120	
416.55	5730.9	
416.75	6475	
416.95	5870.2	
417.15	7066.9	
417.36	7839.6	
417.56	6611.5	
417.76	5711.1	
417.97	7490.8	
418.17	7131	
418.37	5239.4	
418.57	5344.5	
418.78	6973.3	
418.98	6593.8	
419.18	6175.3	
419.38	6234	
419.59	6645.7	
419.79	6293.4	
419.99	5201.2	
420.2	5547.9	
420.4	7248.4	
420.6	7352.2	
420.8	5039.4	
421.01	5014.1	
421.21	6911.9	
421.41	7148.8	
421.61	5525.4	
421.82	5156.1	
422.02	6468.9	
422.22	7458.7	
422.42	5966.4	
422.63	5704.3	
422.83	6563.7	
423.03	7805.5	
423.23	5687.9	
423.44	4548.5	
423.64	6693.4	
423.84	6468.2	
424.04	5054.4	
424.25	4754.7	
424.45	7628	
424.65	7578.2	
424.85	4572.4	
425.06	5141.1	
425.26	7613	
425.46	6609.5	
425.66	5696.1	
425.87	5328.8	
426.07	7304.4	
426.27	7204.1	
426.47	5513.8	
426.67	4877.6	
426.88	7718.1	
427.08	7098.9	
427.28	5737	
427.48	4732.9	
427.69	5952.8	
427.89	6642.9	
428.09	5708.4	
428.29	4775.2	
428.5	7357	
428.7	6885.3	
428.9	4719.9	
429.1	5384.8	
429.3	6787.7	
429.51	7176.8	
429.71	5040.1	
429.91	5829.2	
430.11	7081.2	
430.31	7303.7	
430.52	5299.5	
430.72	5623	
430.92	7667.6	
431.12	7096.2	
431.32	5031.2	
431.53	5425.8	
431.73	5961.6	
431.93	7813	
432.13	4915.8	
432.33	4728.1	
432.54	6518	
432.74	6835.4	
432.94	4728.8	
433.14	5792.3	
433.34	6989.7	
433.55	6512.5	
433.75	5623	
433.95	7496.9	
434.15	6740.5	
434.35	6470.2	
434.56	4863.9	
434.76	4390.2	
434.96	6792.4	
435.16	6986.3	
435.36	4713.1	
435.56	5913.2	
435.77	6361	
435.97	6657.9	
436.17	6588.3	
436.37	5840.1	
436.57	6395.8	
436.78	6210.1	
436.98	5715.9	
437.18	6434	
437.38	7102.4	
437.58	6546	
437.78	6608.1	
437.99	5263.3	
438.19	7138.5	
438.39	8021.9	
438.59	5171.8	
438.79	4615.4	
438.99	7905.2	
439.2	6661.4	
439.4	4819.6	
439.6	4682.3	
439.8	6893.5	
440	8004.8	
440.2	5766.4	
440.4	5875.6	
440.61	7270.3	
440.81	7832.1	
441.01	4919.2	
441.21	5814.9	
441.41	7656	
441.61	7319.4	
441.81	6163.7	
442.02	7258	
442.22	8249.2	
442.42	7458	
442.62	5015.5	
442.82	5122	
443.02	7642.3	
443.22	6731	
443.43	5459.9	
443.63	4962.2	
443.83	6568.5	
444.03	6612.9	
444.23	6255.9	
444.43	5855.8	
444.63	6903	
444.83	8194.6	
445.04	5058.5	
445.24	6449.7	
445.44	7367.2	
445.64	7520.1	
445.84	5894.1	
446.04	5981.4	
446.24	6690	
446.44	7795.9	
446.65	5157.5	
446.85	5537	
447.05	6825.2	
447.25	7602.7	
447.45	5613.5	
447.65	4932.2	
447.85	6976.7	
448.05	6589	
448.25	6102.9	
448.46	5750.7	
448.66	7022.5	
448.86	6708.5	
449.06	4798.4	
449.26	5948	
449.46	7378.1	
449.66	6362.4	
449.86	5502.2	
450.06	5472.2	
450.26	6556.2	
450.47	7136.5	
450.67	5762.3	
450.87	6083.8	
451.07	7219.8	
451.27	7015	
451.47	5056.4	
451.67	5634.6	
451.87	6632	
452.07	7804.8	
452.27	5296	
452.47	5239.4	
452.67	7058	
452.88	7669	
453.08	4586.8	
453.28	6621.8	
453.48	8267.6	
453.68	7007.5	
453.88	5175.9	
454.08	5463.3	
454.28	7365.2	
454.48	7012.9	
454.68	6035.4	
454.88	6610.2	
455.08	7450.5	
455.28	7143.3	
455.48	5055.8	
455.68	5722.7	
455.89	8028.7	
456.09	7591.8	
456.29	5379.3	
456.49	5478.3	
456.69	7727.7	
456.89	7212.3	
457.09	5923.4	
457.29	6265.4	
457.49	7316	
457.69	7454.6	
457.89	5719.3	
458.09	5122.7	
458.29	7105.1	
458.49	7846.5	
458.69	6145.3	
458.89	5556.8	
459.09	8026.7	
459.29	8144.8	
459.49	5707	
459.69	6619.7	
459.9	7612.3	
460.1	7120.1	
460.3	5614.8	
460.5	5429.2	
460.7	7619.1	
460.9	7285.3	
461.1	5004.6	
461.3	6358.9	
461.5	8223.3	
461.7	7776.1	
461.9	5462.6	
462.1	5952.8	
462.3	7294.2	
462.5	7925	
462.7	5426.4	
462.9	5606.7	
463.1	8936	
463.3	8534.6	
463.5	5778.7	
463.7	6711.2	
463.9	7466.2	
464.1	7888.1	
464.3	5840.8	
464.5	6152.1	
464.7	8125	
464.9	7791.8	
465.1	7496.9	
465.3	6482.5	
465.5	8449.9	
465.7	8461.5	
465.9	6735.1	
466.1	6653.9	
466.3	8288.1	
466.5	8066.3	
466.7	7396.6	
466.9	6348	
467.1	8011.7	
467.3	9019.9	
467.5	7380.9	
467.7	6137.8	
467.9	9172.2	
468.1	10056	
468.3	6997.9	
468.5	7476.5	
468.7	7961.8	
468.9	7891.5	
469.1	6458.6	
469.3	7204.8	
469.5	10045	
469.7	7484.6	
469.9	7062.8	
470.1	6238.8	
470.3	7945.4	
470.5	7948.8	
470.7	7581.6	
470.9	6364.4	
471.1	7758.4	
471.3	8260.8	
471.5	6190.3	
471.69	8204.8	
471.89	7580.9	
472.09	7144.7	
472.29	7049.8	
472.49	7350.2	
472.69	7405.5	
472.89	8236.2	
473.09	6027.2	
473.29	6229.2	
473.49	7549.5	
473.69	7761.8	
473.89	7260	
474.09	6490.7	
474.29	9017.2	
474.49	8727.1	
474.69	7178.8	
474.89	6580.1	
475.09	7717.4	
475.29	7726.3	
475.49	5962.3	
475.69	6186.2	
475.88	9432.9	
476.08	8017.1	
476.28	5900.2	
476.48	6321.4	
476.68	8548.2	
476.88	8370	
477.08	6208.1	
477.28	6556.9	
477.48	7946.1	
477.68	8581	
477.88	6025.8	
478.08	6335.7	
478.28	8806.9	
478.48	7989.8	
478.67	6345.3	
478.87	5850.4	
479.07	8699.1	
479.27	8108.6	
479.47	6763.1	
479.67	6607.4	
479.87	8524.3	
480.07	9035	
480.27	5887.2	
480.47	7574.8	
480.67	8104.5	
480.87	8808.3	
481.06	6170.5	
481.26	7004.1	
481.46	8114.1	
481.66	8045.1	
481.86	6718.7	
482.06	7761.1	
482.26	7854	
482.46	8896.4	
482.66	6625.9	
482.86	6243.6	
483.05	8128.4	
483.25	7542	
483.45	9126.4	
483.65	6610.2	
483.85	7737.9	
484.05	8036.9	
484.25	7025.2	
484.45	7524.9	
484.65	9026.8	
484.84	8850.6	
485.04	6514.6	
485.24	6500.3	
485.44	9157.2	
485.64	7459.4	
485.84	5750	
486.04	7260.7	
486.24	7854	
486.44	8281.3	
486.63	5787.6	
486.83	6540.5	
487.03	7724.9	
487.23	7945.4	
487.43	5937.7	
487.63	8375.5	
487.83	7997.3	
488.02	9088.9	
488.22	6895.5	
488.42	7484.6	
488.62	8908.7	
488.82	7824.6	
489.02	6500.9	
489.22	6562.4	
489.41	8725.7	
489.61	8399.4	
489.81	6310.5	
490.01	6271.6	
490.21	8646.5	
490.41	9401.5	
490.61	6236.1	
490.8	6376	
491	8148.9	
491.2	7480.5	
491.4	7046.4	
491.6	6136.4	
491.8	8239.7	
491.99	8439	
492.19	5995.8	
492.39	6393.1	
492.59	8806.9	
492.79	8792.6	
492.99	7170.6	
493.18	6273.6	
493.38	8843.8	
493.58	9654.8	
493.78	6999.3	
493.98	6684.6	
494.18	8583.7	
494.37	7947.5	
494.57	7264.1	
494.77	7166.5	
494.97	8749.6	
495.17	9064.3	
495.37	6592.4	
495.56	7015	
495.76	9130.5	
495.96	8862.2	
496.16	7910.6	
496.36	6844.3	
496.55	8990.6	
496.75	8504.5	
496.95	7273	
497.15	7110.5	
497.35	9045.9	
497.54	8998.1	
497.74	6946	
497.94	8763.9	
498.14	9632.3	
498.34	9571.5	
498.53	6595.1	
498.73	7402	
498.93	8439.7	
499.13	8969.4	
499.33	7154.2	
499.52	7657.4	
499.72	8910	
499.92	9301.9	
500.12	6755.6	
500.32	7161.7	
500.51	9209	
500.71	8950.3	
500.91	7911.3	
501.11	7559.1	
501.31	9146.2	
501.5	9598.8	
501.7	8331.1	
501.9	7117.4	
502.1	8915.5	
502.29	9327.1	
502.49	7739.3	
502.69	8196.7	
502.89	9175.6	
503.09	9119.6	
503.28	6655.2	
503.48	6835.4	
503.68	8375.5	
503.88	8332.5	
504.07	7807.5	
504.27	7299.6	
504.47	8771.5	
504.67	8832.2	
504.86	7703.1	
505.06	7438.2	
505.26	8484.7	
505.46	10312	
505.65	7325.6	
505.85	7557	
506.05	8381.7	
506.25	8825.4	
506.44	6630.6	
506.64	7645.8	
506.84	8319.5	
507.04	9265	
507.23	6852.5	
507.43	7462.8	
507.63	10311	
507.83	8510.7	
508.02	7378.8	
508.22	6954.2	
508.42	10715	
508.62	8412.4	
508.81	7297.6	
509.01	7961.1	
509.21	8173.4	
509.4	8481.3	
509.6	7515.4	
509.8	6802.7	
510	8501.8	
510.19	9919.7	
510.39	6892.1	
510.59	6880.5	
510.79	8257.4	
510.98	9695.8	
511.18	6912.6	
511.38	7116	
511.57	9099.8	
511.77	8949.6	
511.97	7928.4	
512.17	6762.4	
512.36	9180.4	
512.56	9097.8	
512.76	6784.9	
512.95	6594.5	
513.15	9251.4	
513.35	7859.4	
513.55	7820.5	
513.74	6886.6	
513.94	9203.6	
514.14	8572.1	
514.33	7849.2	
514.53	7603.4	
514.73	8536.6	
514.92	8701.8	
515.12	7149.5	
515.32	6847	
515.51	8800.8	
515.71	9448	
515.91	8699.1	
516.11	6953.5	
516.3	10572	
516.5	8395.3	
516.7	7539.9	
516.89	8166.6	
517.09	8653.4	
517.29	8363.2	
517.48	7929.1	
517.68	7208.8	
517.88	8300.4	
518.07	8904.6	
518.27	7763.2	
518.47	6755.6	
518.66	9459.6	
518.86	8137.9	
519.06	6612.9	
519.25	7111.2	
519.45	8424.7	
519.65	9928.6	
519.84	7632.1	
520.04	8319.5	
520.24	10372	
520.43	9060.9	
520.63	7396.6	
520.83	7206.1	
521.02	8364.6	
521.22	9089.6	
521.42	7759.8	
521.61	8305.9	
521.81	8599.4	
522.01	8850.6	
522.2	7610.3	
522.4	7450.5	
522.6	9357.9	
522.79	8081.3	
522.99	7505.1	
523.18	6819.1	
523.38	9002.2	
523.58	9040.4	
523.77	8794.7	
523.97	6779.5	
524.17	10886	
524.36	10010	
524.56	8249.2	
524.76	7763.2	
524.95	9074.5	
525.15	8719.6	
525.34	7524.9	
525.54	7591.8	
525.74	9387.2	
525.93	8417.2	
526.13	8802.9	
526.33	7487.4	
526.52	9734.7	
526.72	9135.3	
526.91	8772.8	
527.11	8119.5	
527.31	9777.7	
527.5	10241	
527.7	7915.4	
527.89	6941.9	
528.09	8677.2	
528.29	9276.6	
528.48	8356.4	
528.68	7949.5	
528.87	9618.6	
529.07	9691	
529.27	7808.2	
529.46	7408.2	
529.66	9207.7	
529.85	9605.7	
530.05	7201.3	
530.25	8011.7	
530.44	10651	
530.64	9189.2	
530.83	7721.5	
531.03	7985	
531.23	9673.9	
531.42	9480.7	
531.62	8808.3	
531.81	7875.1	
532.01	9761.3	
532.21	10256	
532.4	7587	
532.6	7894.9	
532.79	10656	
532.99	9882.8	
533.18	7974.8	
533.38	9024	
533.58	9358.5	
533.77	10157	
533.97	7952.9	
534.16	8794.7	
534.36	10398	
534.55	9354.4	
534.75	8921.6	
534.95	7878.5	
535.14	10179	
535.34	9393.3	
535.53	7716.7	
535.73	9731.3	
535.92	10808	
536.12	9633	
536.31	7843	
536.51	9002.9	
536.71	9993.4	
536.9	9418.6	
537.1	7989.8	
537.29	8122.9	
537.49	10350	
537.68	9387.2	
537.88	8531.8	
538.07	7673.7	
538.27	9612.5	
538.46	10744	
538.66	7533.8	
538.86	8034.9	
539.05	9585.2	
539.25	10071	
539.44	8275.8	
539.64	7975.5	
539.83	9523.1	
540.03	10522	
540.22	7786.4	
540.42	7935.9	
540.61	9850.7	
540.81	9927.9	
541	8424	
541.2	9086.2	
541.39	9200.2	
541.59	9640.5	
541.78	8671.8	
541.98	7830.7	
542.18	8905.3	
542.37	8873.2	
542.57	8267.6	
542.76	8626.7	
542.96	9037.7	
543.15	9755.2	
543.35	8228.7	
543.54	7486.7	
543.74	10017	
543.93	9588.6	
544.13	8223.3	
544.32	9387.2	
544.52	9933.3	
544.71	9097.1	
544.91	7237.5	
545.1	8523	
545.3	9136.7	
545.49	9869.2	
545.69	7265.5	
545.88	7857.4	
546.08	10891	
546.27	10373	
546.47	8381	
546.66	7597.3	
546.86	10149	
547.05	10734	
547.24	7842.4	
547.44	7716.1	
547.63	8914.1	
547.83	10114	
548.02	8192.6	
548.22	8342.7	
548.41	8806.9	
548.61	10242	
548.8	7632.8	
549	7724.3	
549.19	9517.6	
549.39	9815.9	
549.58	7399.3	
549.78	8010.3	
549.97	9858.9	
550.17	9390.6	
550.36	8815.8	
550.55	9957.2	
550.75	9313.5	
550.94	10293	
551.14	7585.7	
551.33	8097.7	
551.53	8766.7	
551.72	9770.2	
551.92	8150.9	
552.11	7836.2	
552.31	9697.8	
552.5	9868.5	
552.69	9542.2	
552.89	7395.9	
553.08	9759.3	
553.28	9481.4	
553.47	7872.4	
553.67	9062.9	
553.86	10388	
554.06	8676.6	
554.25	6940.6	
554.44	7695.6	
554.64	11217	
554.83	10622	
555.03	7617.1	
555.22	7987.1	
555.42	9880.8	
555.61	9721.7	
555.8	7819.8	
556	8118.1	
556.19	8710	
556.39	10108	
556.58	7864.2	
556.78	7876.5	
556.97	9485.5	
557.16	9291.6	
557.36	9132.6	
557.55	7493.5	
557.75	8564.6	
557.94	10386	
558.13	7550.9	
558.33	7308.5	
558.52	10158	
558.72	8983.8	
558.91	7481.9	
559.1	7749.5	
559.3	8682.7	
559.49	8504.5	
559.69	6995.9	
559.88	8025.3	
560.07	9596.1	
560.27	9993.4	
560.46	8157.1	
560.66	8398.7	
560.85	9338.1	
561.04	8539.3	
561.24	7427.3	
561.43	7630.7	
561.63	8756.4	
561.82	9131.2	
562.01	8987.9	
562.21	7930.4	
562.4	9559.2	
562.59	10573	
562.79	7931.1	
562.98	7492.2	
563.18	9563.3	
563.37	10865	
563.56	8445.8	
563.76	7458.7	
563.95	8893	
564.14	8923.7	
564.34	7782.3	
564.53	7704.5	
564.73	9527.2	
564.92	9908.1	
565.11	7941.3	
565.31	7294.9	
565.5	10101	
565.69	9054.8	
565.89	7576.8	
566.08	7920.9	
566.27	9976.3	
566.47	10479	
566.66	8580.3	
566.85	7159.7	
567.05	9519	
567.24	8908.7	
567.44	7567.2	
567.63	8995.4	
567.82	9848.7	
568.02	9531.2	
568.21	7524.2	
568.4	7942	
568.6	9332.6	
568.79	9443.2	
568.98	7369.3	
569.18	7507.2	
569.37	9268.4	
569.56	11441	
569.76	7845.8	
569.95	8873.8	
570.14	9807	
570.34	9673.9	
570.53	7316.7	
570.72	7412.3	
570.91	10326	
571.11	9284.1	
571.3	7920.2	
571.49	8838.4	
571.69	9337.4	
571.88	8913.4	
572.07	8488.8	
572.27	8391.9	
572.46	8931.9	
572.65	10071	
572.85	7701	
573.04	8066.9	
573.23	10271	
573.43	9496.4	
573.62	7535.2	
573.81	8135.9	
574	9590.6	
574.2	9305.3	
574.39	7838.9	
574.58	8099.7	
574.78	10363	
574.97	9632.3	
575.16	8383	
575.36	8554.4	
575.55	9979.8	
575.74	10199	
575.93	7460.8	
576.13	8600.1	
576.32	9401.5	
576.51	10119	
576.71	7912.7	
576.9	9387.9	
577.09	10355	
577.28	9925.1	
577.48	8469	
577.67	7357	
577.86	9505.3	
578.05	9754.5	
578.25	8089.5	
578.44	8203.5	
578.63	9646.6	
578.83	10871	
579.02	7448.5	
579.21	9062.9	
579.4	9757.9	
579.6	9550.4	
579.79	8260.8	
579.98	10548	
580.17	10217	
580.37	10347	
580.56	7729.7	
580.75	8632.2	
580.94	10837	
581.14	10658	
581.33	9103.9	
581.52	7877.2	
581.71	10191	
581.91	10831	
582.1	7587	
582.29	8205.5	
582.48	9705.3	
582.68	9790.7	
582.87	8789.2	
583.06	8355	
583.25	10151	
583.45	9983.2	
583.64	9090.3	
583.83	9953.8	
584.02	9695.8	
584.21	10053	
584.41	9111.4	
584.6	8392.6	
584.79	9798.8	
584.98	10603	
585.18	7860.8	
585.37	7816.4	
585.56	9256.1	
585.75	10157	
585.94	7984.3	
586.14	8734.6	
586.33	10791	
586.52	9825.5	
586.71	8600.8	
586.91	8132.5	
587.1	9150.3	
587.29	10342	
587.48	8049.9	
587.67	8013	
587.87	10004	
588.06	10057	
588.25	9298.5	
588.44	8483.4	
588.63	9493.7	
588.83	10157	
589.02	7923.6	
589.21	7669	
589.4	9123	
589.59	9073.2	
589.78	6982.2	
589.98	7244.3	
590.17	8630.1	
590.36	9288.2	
590.55	6593.1	
590.74	7492.8	
590.94	10719	
591.13	9243.8	
591.32	7274.4	
591.51	6733.7	
591.7	9667.1	
591.89	9073.2	
592.09	6916	
592.28	7404.8	
592.47	8198.7	
592.66	10335	
592.85	6967.2	
593.05	7167.9	
593.24	9019.3	
593.43	9756.5	
593.62	7282.6	
593.81	7813.7	
594	8926.4	
594.19	9305.3	
594.39	7188.4	
594.58	7063.4	
594.77	9309.4	
594.96	9914.2	
595.15	7060	
595.34	7793.9	
595.54	9477.3	
595.73	8499.8	
595.92	6571.2	
596.11	7646.4	
596.3	9996.1	
596.49	8600.8	
596.68	7363.8	
596.88	7936.6	
597.07	9629.5	
597.26	8387.8	
597.45	6946	
597.64	8225.3	
597.83	8758.5	
598.02	9363.3	
598.22	7120.1	
598.41	7872.4	
598.6	9219.3	
598.79	8712.7	
598.98	7066.9	
599.17	8134.5	
599.36	9281.4	
599.55	10494	
599.74	9403.6	
599.94	9045.2	
600.13	9910.1	
600.32	8658.8	
600.51	7007.5	
600.7	7133.1	
600.89	10516	
601.08	10669	
601.27	6946.7	
601.47	7965.2	
601.66	9727.9	
601.85	10514	
602.04	7688.1	
602.23	7952.9	
602.42	8869.1	
602.61	9608.4	
602.8	7661.5	
602.99	7406.8	
603.18	9273.9	
603.37	9529.9	
603.57	8069.7	
603.76	8752.3	
603.95	10297	
604.14	9794.1	
604.33	7419.1	
604.52	7828	
604.71	9473.9	
604.9	9102.5	
605.09	8344.8	
605.28	8259.5	
605.47	10194	
605.66	9813.2	
605.86	8094.3	
606.05	7522.2	
606.24	10117	
606.43	8690.9	
606.62	7885.4	
606.81	8598.1	
607	9937.4	
607.19	9321.7	
607.38	7293.5	
607.57	7547.4	
607.76	9147.6	
607.95	8473.1	
608.14	7851.9	
608.33	8500.4	
608.52	9000.8	
608.72	9924.5	
608.91	7252.5	
609.1	7164.5	
609.29	9188.6	
609.48	8643.8	
609.67	8154.3	
609.86	7189.1	
610.05	8637	
610.24	9167.4	
610.43	7031.4	
610.62	6701.6	
610.81	10241	
611	10058	
611.19	7150.1	
611.38	7930.4	
611.57	9441.1	
611.76	10772	
611.95	6946	
612.14	6755.6	
612.33	9305.3	
612.52	8609	
612.71	7613	
612.9	6780.8	
613.09	8350.9	
613.28	10813	
613.47	7239.6	
613.66	8293.6	
613.85	9370.8	
614.04	8957.1	
614.24	7425.9	
614.43	6604.7	
614.62	9550.4	
614.81	9474.6	
615	7999.4	
615.19	7934.5	
615.38	8803.5	
615.57	9028.1	
615.76	7824.6	
615.95	8835.6	
616.14	9611.8	
616.33	9321.7	
616.52	8227.4	
616.71	8528.4	
616.9	9469.1	
617.09	9400.9	
617.28	7516.7	
617.47	8886.8	
617.66	8727.1	
617.85	8774.9	
618.04	8553	
618.22	7998.7	
618.41	9095.7	
618.6	9945.6	
618.79	7886	
618.98	7635.5	
619.17	10319	
619.36	8638.3	
619.55	7799.3	
619.74	7794.6	
619.93	9579	
620.12	9022.7	
620.31	8370	
620.5	8600.8	
620.69	10241	
620.88	10585	
621.07	9308	
621.26	8309.3	
621.45	9817.3	
621.64	9844.6	
621.83	8414.4	
622.02	7515.4	
622.21	9951.1	
622.4	9585.2	
622.59	8952.4	
622.78	8704.5	
622.97	9179.7	
623.16	10165	
623.35	8301.8	
623.54	7432.8	
623.72	9418.6	
623.91	9556.5	
624.1	8628.1	
624.29	7253.9	
624.48	10657	
624.67	9812.5	
624.86	8503.2	
625.05	7544.7	
625.24	10843	
625.43	9110	
625.62	10277	
625.81	7756.3	
626	10264	
626.19	9476.6	
626.38	8478.6	
626.56	7976.8	
626.75	9304.6	
626.94	9944.9	
627.13	8544.1	
627.32	7219.8	
627.51	9880.1	
627.7	11319	
627.89	7351.5	
628.08	8486.8	
628.27	9039.7	
628.46	9260.9	
628.65	7562.5	
628.83	7271.7	
629.02	9863	
629.21	9186.5	
629.4	8044.4	
629.59	8279.3	
629.78	9092.3	
629.97	10142	
630.16	8327.7	
630.35	7786.4	
630.54	10522	
630.72	10286	
630.91	7802.8	
631.1	8402.8	
631.29	9794.1	
631.48	9897.2	
631.67	8507.9	
631.86	7996.6	
632.05	9346.9	
632.24	9443.9	
632.42	7608.9	
632.61	8243.1	
632.8	9458.9	
632.99	9176.9	
633.18	8232.2	
633.37	8627.4	
633.56	9851.4	
633.75	9604.3	
633.93	8242.4	
634.12	7925.6	
634.31	10547	
634.5	10148	
634.69	7973.4	
634.88	8424.7	
635.07	9553.1	
635.25	10115	
635.44	9004.2	
635.63	9235	
635.82	9308	
636.01	8927.8	
636.2	8884.1	
636.39	8438.3	
636.57	10598	
636.76	10275	
636.95	7759.1	
637.14	9235.7	
637.33	9960	
637.52	10868	
637.7	7602.7	
637.89	8531.2	
638.08	9506.7	
638.27	10987	
638.46	8612.4	
638.65	9179.7	
638.83	10943	
639.02	9299.1	
639.21	8553	
639.4	9060.2	
639.59	9744.9	
639.78	9450	
639.96	7804.8	
640.15	7867.6	
640.34	9665	
640.53	9819.3	
640.72	7520.1	
640.91	7870.3	
641.09	8991.3	
641.28	10436	
641.47	7880.6	
641.66	8708.6	
641.85	9757.2	
642.03	9985.9	
642.22	8469	
642.41	7942	
642.6	9173.5	
642.79	8503.2	
642.97	7658	
643.16	8466.3	
643.35	9047.2	
643.54	8902.5	
643.73	7591.1	
643.91	8368	
644.1	8721.6	
644.29	9339.4	
644.48	7581.6	
644.67	7588.4	
644.85	8768.7	
645.04	9131.9	
645.23	7127.6	
645.42	7466.9	
645.6	8611.7	
645.79	9789.3	
645.98	7368.6	
646.17	6335	
646.36	8255.4	
646.54	8914.8	
646.73	8154.3	
646.92	6849.1	
647.11	8462.2	
647.29	9525.1	
647.48	6969.9	
647.67	6773.3	
647.86	9758.6	
648.05	9913.5	
648.23	7256	
648.42	8696.4	
648.61	9304.6	
648.8	9013.1	
648.98	7090.8	
649.17	7350.8	
649.36	8566.7	
649.55	8051.2	
649.73	7031.4	
649.92	7807.5	
650.11	8480.6	
650.3	8755.1	
650.48	7182.9	
650.67	6985.6	
650.86	9232.2	
651.05	8039	
651.23	7197.9	
651.42	7198.6	
651.61	8583	
651.79	8686.1	
651.98	7419.8	
652.17	6929.6	
652.36	9010.4	
652.54	8070.4	
652.73	6953.5	
652.92	6779.5	
653.11	8895	
653.29	9123.7	
653.48	6177.4	
653.67	7253.2	
653.85	8706.6	
654.04	9816.6	
654.23	7344.7	
654.42	6885.3	
654.6	8131.8	
654.79	8843.8	
654.98	6408.8	
655.16	7009.5	
655.35	7801.4	
655.54	7798	
655.73	6495.5	
655.91	6556.9	
656.1	9012.4	
656.29	7873.8	
656.47	6148.7	
656.66	7906.5	
656.85	8163.2	
657.03	8219.2	
657.22	6711.2	
657.41	6804	
657.59	8289.5	
657.78	8066.9	
657.97	6329.6	
658.16	7163.1	
658.34	8939.4	
658.53	9452.1	
658.72	8092.2	
658.9	8686.8	
659.09	8365.3	
659.28	8605.6	
659.46	6886.6	
659.65	6900.3	
659.84	8237.6	
660.02	8799.4	
660.21	6723.5	
660.4	6758.3	
660.58	9228.8	
660.77	8625.4	
660.96	7373.4	
661.14	6408.8	
661.33	9741.5	
661.52	9620	
661.7	6367.8	
661.89	10082	
662.08	8163.9	
662.26	7806.9	
662.45	6595.1	
662.64	6753.5	
662.82	8944.8	
663.01	8075.8	
663.2	6807.4	
663.38	7584.3	
663.57	8791.9	
663.75	8675.2	
663.94	7083.9	
664.13	8376.9	
664.31	8068.3	
664.5	8893.6	
664.69	7471	
664.87	8008.2	
665.06	7764.5	
665.25	8710.7	
665.43	8202.8	
665.62	8241	
665.8	9104.6	
665.99	8301.1	
666.18	7075.7	
666.36	7290.1	
666.55	8961.9	
666.74	8877.3	
666.92	6775.4	
667.11	8403.5	
667.29	8273.1	
667.48	8843.1	
667.67	8094.3	
667.85	7090.8	
668.04	8420.6	
668.22	8355	
668.41	7124.2	
668.6	7381.6	
668.78	8131.8	
668.97	8364.6	
669.15	7564.5	
669.34	6544.6	
669.53	8103.1	
669.71	8436.3	
669.9	6649.1	
670.08	7326.3	
670.27	8164.6	
670.46	8734.6	
670.64	7529	
670.83	7849.9	
671.01	8098.4	
671.2	8659.5	
671.38	6776.7	
671.57	6728.9	
671.76	9273.2	
671.94	9904.7	
672.13	6551.5	
672.31	7750.2	
672.5	8913.4	
672.69	8161.8	
672.87	6845.7	
673.06	7193.8	
673.24	8639.7	
673.43	8228.1	
673.61	7516	
673.8	7068.2	
673.98	8968.1	
674.17	9145.5	
674.36	7673.7	
674.54	7513.3	
674.73	8720.3	
674.91	8847.2	
675.1	7282.6	
675.28	6857.3	
675.47	8419.2	
675.65	8994.7	
675.84	7073.7	
676.03	7481.9	
676.21	8247.9	
676.4	7690.1	
676.58	7935.9	
676.77	7723.6	
676.95	9745.6	
677.14	8110	
677.32	6789.7	
677.51	6578.8	
677.69	8994.7	
677.88	7795.3	
678.06	6662.7	
678.25	6853.2	
678.44	8430.1	
678.62	8215.8	
678.81	6461.3	
678.99	7552.2	
679.18	9253.4	
679.36	8841.1	
679.55	7003.4	
679.73	7773.4	
679.92	8787.8	
680.1	8239.7	
680.29	8307.9	
680.47	7057.3	
680.66	8181.6	
680.84	8974.9	
681.03	6382.2	
681.21	7462.1	
681.4	8177.5	
681.58	8115.4	
681.77	6833.4	
681.95	6705	
682.14	9112.1	
682.32	9437	
682.51	7750.9	
682.69	6503	
682.88	8152.3	
683.06	8715.5	
683.25	7439.6	
683.43	7836.2	
683.62	8325	
683.8	8706.6	
683.99	7774.8	
684.17	6975.4	
684.36	9494.4	
684.54	7976.2	
684.73	6043.6	
684.91	6303	
685.1	8307.2	
685.28	7746.1	
685.46	6883.2	
685.65	7010.2	
685.83	8480.6	
686.02	7938.6	
686.2	6315.9	
686.39	6487.3	
686.57	7763.8	
686.76	9286.2	
686.94	6410.1	
687.13	6636.1	
687.31	8427.4	
687.5	7989.1	
687.68	6060.6	
687.86	7320.8	
688.05	9632.3	
688.23	7498.3	
688.42	7448.5	
688.6	6589	
688.79	7908.6	
688.97	7993.9	
689.16	7096.2	
689.34	5846.3	
689.52	8703.9	
689.71	8944.8	
689.89	7321.5	
690.08	6541.9	
690.26	8165.3	
690.45	8008.9	
690.63	7305.8	
690.81	6635.4	
691	7762.5	
691.18	7690.1	
691.37	6785.6	
691.55	8973.5	
691.74	7632.1	
691.92	9785.9	
692.1	6782.2	
692.29	6206.7	
692.47	7901.7	
692.66	7240.9	
692.84	6377.4	
693.02	7133.1	
693.21	7387	
693.39	7899.7	
693.58	7179.5	
693.76	6578.1	
693.94	9272.5	
694.13	9090.3	
694.31	6608.1	
694.5	7716.1	
694.68	7852.6	
694.86	8193.9	
695.05	7047.1	
695.23	7078.5	
695.42	8636.3	
695.6	11049	
695.78	7647.1	
695.97	6692.8	
696.15	8579.6	
696.34	7856.7	
696.52	6427.2	
696.7	7250.5	
696.89	8269	
697.07	7661.5	
697.25	7038.9	
697.44	8700.5	
697.62	8206.9	
697.81	8498.4	
697.99	6720.8	
698.17	7245.7	
698.36	7414.3	
698.54	8215.1	
698.72	7129.7	
698.91	6100.9	
699.09	7737.9	
699.28	7636.2	
699.46	6729.6	
699.64	6595.1	
699.83	7495.6	
700.01	8953.7	
700.19	7457.3	
700.38	5885.9	
700.56	8907.3	
700.74	7742	
700.93	6326.9	
701.11	7171.3	
701.29	8365.3	
701.48	9436.4	
701.66	6612.2	
701.84	6546.7	
702.03	7898.3	
702.21	8647.2	
702.39	6092.7	
702.58	6786.3	
702.76	8263.6	
702.94	8452.6	
703.13	6189	
703.31	8637.6	
703.49	7617.1	
703.68	8889.5	
703.86	6331.6	
704.04	7330.4	
704.23	8155	
704.41	8521.6	
704.59	6509.1	
704.78	7774.8	
704.96	9310.1	
705.14	8590.5	
705.33	6214.9	
705.51	7108.5	
705.69	7916.8	
705.87	8820.6	
706.06	7425.9	
706.24	6298.2	
706.42	8211.7	
706.61	8596.7	
706.79	7526.3	
706.97	6260	
707.16	7759.1	
707.34	8419.9	
707.52	7505.8	
707.7	6518	
707.89	8011.7	
708.07	7556.3	
708.25	7384.3	
708.44	7527.7	
708.62	7810.3	
708.8	8983.8	
708.98	7619.8	
709.17	6596.5	
709.35	8322.3	
709.53	8251.9	
709.72	6296.8	
709.9	6446.3	
710.08	8500.4	
710.26	8503.2	
710.45	7907.9	
710.63	6556.2	
710.81	8063.5	
710.99	8103.1	
711.18	7207.5	
711.36	6734.4	
711.54	7866.2	
711.72	8532.5	
711.91	6657.9	
712.09	6087.9	
712.27	8049.2	
712.45	8555.7	
712.64	6801.3	
712.82	5703.6	
713	7283.3	
713.18	7415	
713.37	5886.5	
713.55	7013.6	
713.73	8154.3	
713.91	6627.2	
714.1	6068.1	
714.28	5443.5	
714.46	7645.8	
714.64	6821.8	
714.83	4805.2	
715.01	5655.8	
715.19	6893.5	
715.37	6289.3	
715.55	5367	
715.74	5647.6	
715.92	7834.8	
716.1	5757.5	
716.28	6781.5	
716.47	5773.9	
716.65	6472.9	
716.83	6578.1	
717.01	5634	
717.19	5778	
717.38	8753	
717.56	6337.1	
717.74	6051.7	
717.92	5115.1	
718.1	7646.4	
718.29	6909.8	
718.47	4860.5	
718.65	5514.5	
718.83	7631.4	
719.01	7527.7	
719.2	4745.8	
719.38	5836.7	
719.56	7244.3	
719.74	8842.4	
719.92	5354.1	
720.11	6419.7	
720.29	7163.1	
720.47	6240.8	
720.65	4900.8	
720.83	5726.1	
721.02	6558.3	
721.2	6305	
721.38	5777.3	
721.56	4997	
721.74	5767.1	
721.92	6002.6	
722.11	6322.8	
722.29	5934.3	
722.47	7303.7	
722.65	6539.8	
722.83	4984.1	
723.01	6036.7	
723.2	6616.3	
723.38	6840.2	
723.56	4422.2	
723.74	5680.4	
723.92	6062	
724.1	7253.9	
724.29	4955.4	
724.47	6163	
724.65	6064.7	
724.83	6037.4	
725.01	4837.3	
725.19	5795.1	
725.37	6082.5	
725.56	6158.9	
725.74	4672.1	
725.92	5032.5	
726.1	5996.5	
726.28	6392.4	
726.46	5437.4	
726.64	5124.7	
726.83	6255.2	
727.01	6601.3	
727.19	4566.3	
727.37	5546.6	
727.55	6453.8	
727.73	7032.7	
727.91	4713.7	
728.09	4486.4	
728.28	7042.3	
728.46	7727.7	
728.64	5728.2	
728.82	5739.1	
729	8271.1	
729.18	7484.6	
729.36	4942.4	
729.54	7408.2	
729.72	8533.9	
729.91	6778.8	
730.09	7057.3	
730.27	5678.3	
730.45	6759.7	
730.63	7409.6	
730.81	6333.7	
730.99	5296.7	
731.17	7889.5	
731.35	6495.5	
731.53	5904.3	
731.71	5467.4	
731.9	7644.4	
732.08	7837.6	
732.26	5777.3	
732.44	5389.6	
732.62	7868.3	
732.8	7342.7	
732.98	6220.4	
733.16	5184.8	
733.34	7322.2	
733.52	6027.9	
733.7	5790.3	
733.88	6093.4	
734.07	7217.7	
734.25	6909.8	
734.43	5188.9	
734.61	6792.4	
734.79	8564.6	
734.97	6847.7	
735.15	5384.1	
735.33	5646.9	
735.51	7229.3	
735.69	6819.1	
735.87	7204.1	
736.05	5885.2	
736.23	7069.6	
736.41	6916.7	
736.59	5829.2	
736.77	5889.3	
736.95	7495.6	
737.13	7010.9	
737.32	5435.3	
737.5	5679	
737.68	8118.1	
737.86	6823.8	
738.04	5208.7	
738.22	7163.8	
738.4	6653.2	
738.58	7006.1	
738.76	5956.2	
738.94	4760.2	
739.12	6761	
739.3	6673.6	
739.48	6579.4	
739.66	6295.5	
739.84	7162.4	
740.02	7163.1	
740.2	4925.4	
740.38	5243.5	
740.56	7461.4	
740.74	6254.5	
740.92	6004	
741.1	5912.5	
741.28	6937.2	
741.46	6735.8	
741.64	5570.5	
741.82	6059.9	
742	6974	
742.18	6888	
742.36	5823.7	
742.54	5339.1	
742.72	7468.9	
742.9	6167.1	
743.08	6189	
743.26	4932.2	
743.44	7692.2	
743.62	7545.4	
743.8	6272.2	
743.98	5302.9	
744.16	7275.1	
744.34	6888	
744.52	6252.4	
744.7	6204.7	
744.88	7390.4	
745.06	6889.4	
745.24	6239.5	
745.42	6447.7	
745.6	7544	
745.78	7225.2	
745.96	5005.2	
746.14	5354.8	
746.32	8264.2	
746.5	7453.2	
746.68	5937.1	
746.86	5440.8	
747.03	7980.9	
747.21	6158.2	
747.39	5945.9	
747.57	5350.7	
747.75	7109.9	
747.93	7539.9	
748.11	5419.6	
748.29	5299.5	
748.47	8779	
748.65	6711.9	
748.83	6169.8	
749.01	5815.5	
749.19	7359.7	
749.37	6483.2	
749.55	5696.8	
749.73	5857.2	
749.91	6842.3	
750.09	6601.3	
750.26	5913.2	
750.44	5249.6	
750.62	7039.6	
750.8	6910.5	
750.98	5038.7	
751.16	5420.3	
751.34	7059.3	
751.52	6358.9	
751.7	6214.9	
751.88	4973.2	
752.06	7462.1	
752.24	7230.7	
752.42	5031.2	
752.59	5307.7	
752.77	6897.6	
752.95	8188.5	
753.13	6214.2	
753.31	5466.7	
753.49	6562.4	
753.67	7045.7	
753.85	5752.1	
754.03	5279	
754.21	7338.6	
754.38	7659.4	
754.56	5476.3	
754.74	4490.5	
754.92	6520	
755.1	7135.8	
755.28	4378.6	
755.46	4323.3	
755.64	7733.8	
755.82	7715.4	
755.99	4450.2	
756.17	4544.4	
756.35	4952.7	
756.53	6688.7	
756.71	3317	
756.89	4283.7	
757.07	6277	
757.25	5397.1	
757.42	4964.3	
757.6	5909.8	
757.78	6485.2	
757.96	5404.6	
758.14	4687.8	
758.32	4126.7	
758.5	4900.1	
758.67	5717.2	
758.85	4452.3	
759.03	4603.2	
759.21	5935.7	
759.39	5382.7	
759.57	3998.3	
759.75	5266.7	
759.92	6644.3	
760.1	5871.5	
760.28	5685.8	
760.46	5925.5	
760.64	5706.3	
760.82	5432.6	
760.99	5421	
761.17	4709.6	
761.35	6707.8	
761.53	5620.3	
761.71	4930.8	
761.89	5653.1	
762.06	6574	
762.24	6066.8	
762.42	4997	
762.6	4767	
762.78	6111.8	
762.96	6108.4	
763.13	5476.3	
763.31	5172.5	
763.49	7109.2	
763.67	6122.1	
763.85	5971.2	
764.02	6646.3	
764.2	7342.7	
764.38	6514.6	
764.56	4957.4	
764.74	5969.8	
764.91	7439.6	
765.09	6245.6	
765.27	4660.5	
765.45	4481	
765.63	7425.3	
765.8	7297.6	
765.98	4185.4	
766.16	4558.8	
766.34	5801.9	
766.52	5602.6	
766.69	5661.3	
766.87	4385.4	
767.05	6140.5	
767.23	7017.7	
767.41	4690.5	
767.58	4932.9	
767.76	6731.7	
767.94	6906.4	
768.12	4742.4	
768.29	5649	
768.47	6269.5	
768.65	7004.1	
768.83	4415.4	
769	5655.1	
769.18	5763	
769.36	6586.3	
769.54	5306.3	
769.72	4421.6	
769.89	6836.8	
770.07	6997.9	
770.25	4704.9	
770.43	6107	
770.6	7601.4	
770.78	8029.4	
770.96	4975.9	
771.14	5594.4	
771.31	6683.2	
771.49	6020.3	
771.67	4059.1	
771.85	4291.2	
772.02	5153.4	
772.2	6022.4	
772.38	5103.5	
772.55	4547.9	
772.73	6262	
772.91	6030.6	
773.09	4968.4	
773.26	4971.8	
773.44	6288.6	
773.62	5956.9	
773.8	4321.9	
773.97	4129.4	
774.15	6301.6	
774.33	5902.2	
774.5	4288.4	
774.68	4697.4	
774.86	6511.2	
775.04	5926.1	
775.21	4369	
775.39	4378.6	
775.57	6170.5	
775.74	6640.9	
775.92	4151.2	
776.1	4100	
776.27	6121.4	
776.45	7462.1	
776.63	4332.8	
776.81	3897.3	
776.98	5729.5	
777.16	6945.3	
777.34	4572.4	
777.51	4453.6	
777.69	5715.9	
777.87	5532.9	
778.04	4487.8	
778.22	5175.9	
778.4	5545.2	
778.57	6260.6	
778.75	3691.8	
778.93	4024.9	
779.1	5258.5	
779.28	5176.6	
779.46	3717.1	
779.64	4299.4	
779.81	6355.5	
779.99	7260	
780.17	5057.8	
780.34	5288.5	
780.52	5732.3	
780.69	6027.9	
780.87	4627	
781.05	4117.1	
781.22	5801.9	
781.4	5933.6	
781.58	4212	
781.75	3334.8	
781.93	5833.3	
782.11	5206.6	
782.28	5193.6	
782.46	4239.3	
782.64	5051	
782.81	6081.1	
782.99	4341	
783.17	4230.4	
783.34	5875.6	
783.52	5080.3	
783.69	4499.4	
783.87	5322.7	
784.05	5102.2	
784.22	5140.4	
784.4	5316.5	
784.58	4566.3	
784.75	6135	
784.93	5190.2	
785.1	4187.4	
785.28	4885.8	
785.46	5795.8	
785.63	5154.7	
785.81	4194.2	
785.99	4048.2	
786.16	5341.8	
786.34	5662	
786.51	4154.6	
786.69	4444.1	
786.87	4922.6	
787.04	5455.1	
787.22	3902.7	
787.39	4951.3	
787.57	5096	
787.75	6292.7	
787.92	5066.7	
788.1	5023	
788.27	5139.7	
788.45	4906.3	
788.63	4736.3	
788.8	3387.3	
788.98	5558.9	
789.15	4880.3	
789.33	3553.9	
789.5	4239.3	
789.68	6135	
789.86	6210.1	
790.03	4705.5	
790.21	4040.6	
790.38	6151.4	
790.56	5295.4	
790.73	3897.3	
790.91	3970.3	
791.09	5120.6	
791.26	5993	
791.44	4186	
791.61	3568.9	
791.79	5134.3	
791.96	5202.5	
792.14	3698.6	
792.32	3229	
792.49	5147.9	
792.67	5221	
792.84	3807.2	
793.02	3573.7	
793.19	5605.3	
793.37	6350.8	
793.54	3249.4	
793.72	3647.4	
793.89	6533.7	
794.07	5150	
794.25	4326	
794.42	3360	
794.6	6268.8	
794.77	5910.4	
794.95	4518.5	
795.12	3997.6	
795.3	5104.2	
795.47	5755.5	
795.65	4369.7	
795.82	4128	
796	4939	
796.17	6900.3	
796.35	4019.5	
796.52	4777.9	
796.7	5671.5	
796.87	5788.9	
797.05	5068	
797.22	4965.6	
797.4	5752.7	
797.57	6795.2	
797.75	4216.1	
797.92	3928	
798.1	6068.8	
798.27	5114.5	
798.45	3358.7	
798.62	3601.7	
798.8	5430.5	
798.97	5970.5	
799.15	4454.3	
799.32	4161.5	
799.5	4685.1	
799.67	5506.3	
799.85	4532.8	
800.02	3301.3	
800.2	5096.7	
800.37	5462.6	
800.55	4734.2	
800.72	3953.3	
800.9	5909.1	
801.07	6384.9	
801.25	5315.8	
801.42	4372.4	
801.6	5980.8	
801.77	5694	
801.95	3893.9	
802.12	3848.8	
802.29	5684.5	
802.47	5647.6	
802.64	4315.8	
802.82	3158.7	
802.99	5096	
803.17	6078.4	
803.34	4202.4	
803.52	3828.3	
803.69	6774.7	
803.87	4816.1	
804.04	4185.4	
804.21	4286.4	
804.39	6208.8	
804.56	5242.8	
804.74	3543	
804.91	4371	
805.09	5131.5	
805.26	5188.9	
805.44	3624.2	
805.61	3975.1	
805.78	5829.9	
805.96	5797.8	
806.13	4374.5	
806.31	4657.1	
806.48	4650.3	
806.66	5169.1	
806.83	4308.2	
807	4147.8	
807.18	5085.8	
807.35	5479.7	
807.53	4197.7	
807.7	3336.1	
807.87	6270.9	
808.05	5171.8	
808.22	4619.5	
808.4	3330	
808.57	5165.7	
808.74	4743.1	
808.92	3836.5	
809.09	4906.3	
809.27	5012.7	
809.44	5676.3	
809.61	3339.6	
809.79	3783.3	
809.96	6326.9	
810.14	5975.3	
810.31	3246.7	
810.48	4080.9	
810.66	5251.7	
810.83	5976.7	
811.01	3874.8	
811.18	4588.8	
811.35	5885.9	
811.53	4546.5	
811.7	4666	
811.87	4401.1	
812.05	5139	
812.22	5049.6	
812.39	3680.2	
812.57	3594.9	
812.74	5118.6	
812.92	6894.8	
813.09	4065.2	
813.26	4441.4	
813.44	6656.6	
813.61	5081.7	
813.78	3303.4	
813.96	4530.1	
814.13	5175.9	
814.3	4787.5	
814.48	4941.7	
814.65	4024.9	
814.82	6478.4	
815	4915.1	
815.17	4123.2	
815.34	5105.6	
815.52	5071.5	
815.69	5076.9	
815.87	4149.9	
816.04	3514.3	
816.21	5147.2	
816.38	4547.2	
816.56	3968.3	
816.73	3718.4	
816.9	6533	
817.08	5914.5	
817.25	3748.5	
817.42	4767.7	
817.6	4715.8	
817.77	5145.9	
817.94	4228.4	
818.12	3659	
818.29	4878.3	
818.46	7734.5	
818.64	3836.5	
818.81	3606.5	
818.98	4790.9	
819.16	7010.9	
819.33	4472.8	
819.5	4213.4	
819.67	5527.5	
819.85	6240.2	
820.02	4102.1	
820.19	4372.4	
820.37	5390.9	
820.54	4941.1	
820.71	4307.6	
820.88	5296	
821.06	5434.6	
821.23	4884.4	
821.4	4237.9	
821.58	4190.8	
821.75	5846.3	
821.92	5263.3	
822.09	3418.7	
822.27	3479.5	
822.44	5147.2	
822.61	5078.3	
822.79	3354.6	
822.96	6586.3	
823.13	5722	
823.3	4849.6	
823.48	3980.6	
823.65	3500.7	
823.82	5864	
823.99	4675.5	
824.17	4983.4	
824.34	3590.8	
824.51	6823.1	
824.68	5175.2	
824.86	3797.6	
825.03	4220.9	
825.2	5127.4	
825.37	6281.1	
825.55	3700	
825.72	4255	
825.89	6876.4	
826.06	6370.5	
826.24	4055	
826.41	4110.3	
826.58	6275	
826.75	5457.2	
826.92	3154.6	
827.1	3547.8	
827.27	8607.6	
827.44	6817	
827.61	3881.6	
827.79	4726	
827.96	4885.8	
828.13	5231.2	
828.3	4022.9	
828.47	3407.8	
828.65	5378	
828.82	5342.5	
828.99	5296.7	
829.16	4568.3	
829.34	5836.7	
829.51	5566.4	
829.68	4143	
829.85	4385.4	
830.02	6075	
830.2	5819	
830.37	3243.3	
830.54	5053	
830.71	6608.1	
830.88	5089.9	
831.05	3248.8	
831.23	3772.4	
831.4	6293.4	
831.57	7102.4	
831.74	3844	
831.91	3381.9	
832.09	5366.4	
832.26	5768.4	
832.43	4024.9	
832.6	4472.8	
832.77	5388.2	
832.94	6100.2	
833.12	3161.4	
833.29	4037.2	
833.46	4973.2	
833.63	7320.1	
833.8	4360.1	
833.97	4052.9	
834.15	5817.6	
834.32	5517.2	
834.49	4123.9	
834.66	4295.3	
834.83	6047	
835	4853	
835.17	3874.1	
835.35	3874.1	
835.52	5695.4	
835.69	5562.3	
835.86	4124.6	
836.03	3358	
836.2	5719.3	
836.37	5383.4	
836.55	4024.9	
836.72	3763.5	
836.89	5221	
837.06	5755.5	
837.23	4154	
837.4	4508.9	
837.57	6591.7	
837.75	7337.9	
837.92	3650.8	
838.09	3897.3	
838.26	5341.8	
838.43	6062	
838.6	4186.7	
838.77	3750.5	
838.94	7025.2	
839.11	6656.6	
839.29	3974.4	
839.46	3136.8	
839.63	5726.1	
839.8	5533.6	
839.97	3887	
840.14	3859.1	
840.31	5548.6	
840.48	5716.6	
840.65	3182.5	
840.82	3773.7	
841	5741.1	
841.17	5699.5	
841.34	3586.7	
841.51	3642.7	
841.68	5684.5	
841.85	5448.3	
842.02	3757.3	
842.19	3038.5	
842.36	5484.5	
842.53	5517.9	
842.7	3591.5	
842.87	4388.8	
843.05	7297.6	
843.22	5399.1	
843.39	3379.1	
843.56	3646.7	
843.73	5164.3	
843.9	5816.9	
844.07	5807.4	
844.24	4902.2	
844.41	8567.3	
844.58	4914.4	
844.75	3460.4	
844.92	3755.3	
845.09	5752.7	
845.26	5767.8	
845.43	3486.3	
845.6	3762.1	
845.77	5756.2	
845.94	5440.1	
846.12	3943	
846.29	4221.5	
846.46	5959.6	
846.63	5771.2	
846.8	3573.7	
846.97	4223.6	
847.14	6189.6	
847.31	5695.4	
847.48	4036.5	
847.65	4483.7	
847.82	6007.4	
847.99	5974.6	
848.16	4795	
848.33	4433.2	
848.5	5353.4	
848.67	6219	
848.84	3545	
849.01	3653.6	
849.18	5174.5	
849.35	4842.1	
849.52	4443.4	
849.69	3538.9	
849.86	5948.7	
850.03	6194.4	
850.2	3545.7	
850.37	4442.7	
850.54	6090	
850.71	5403.2	
850.88	4266.6	
851.05	3576.4	
851.22	5576.6	
851.39	6374.6	
851.56	3339.6	
851.73	4120.5	
851.9	5004.6	
852.07	5984.8	
852.24	3935.5	
852.41	3499.3	
852.58	5579.3	
852.75	5109	
852.92	4018.8	
853.09	3456.3	
853.26	5333.6	
853.43	6209.4	
853.6	3510.9	
853.77	3033.7	
853.94	6374.6	
854.11	5078.3	
854.28	5298.8	
854.44	3830.4	
854.61	6781.5	
854.78	5821.7	
854.95	3519.8	
855.12	4479.6	
855.29	4587.4	
855.46	6295.5	
855.63	3571.7	
855.8	4947.9	
855.97	5327.4	
856.14	6033.3	
856.31	5059.2	
856.48	3910.3	
856.65	5262.6	
856.82	4960.2	
856.99	3414	
857.16	3837.9	
857.33	7028.6	
857.49	5390.3	
857.66	3817.4	
857.83	4159.4	
858	5343.2	
858.17	5526.1	
858.34	3327.3	
858.51	3540.9	
858.68	6459.3	
858.85	6503	
859.02	4166.3	
859.19	4380.6	
859.36	5016.8	
859.52	5085.8	
859.69	3631.7	
859.86	4174.4	
860.03	5070.1	
860.2	6346	
860.37	3178.4	
860.54	3614	
860.71	5986.9	
860.88	6448.4	
861.05	4028.4	
861.21	4450.9	
861.38	6520	
861.55	4906.3	
861.72	3259.7	
861.89	3953.3	
862.06	6110.5	
862.23	6546.7	
862.4	3436.5	
862.56	3688.4	
862.73	5828.5	
862.9	5470.8	
863.07	4164.2	
863.24	3230.3	
863.41	4947.9	
863.58	5023	
863.75	3620.1	
863.91	4111	
864.08	6384.9	
864.25	5885.9	
864.42	4450.9	
864.59	4975.9	
864.76	6624.5	
864.93	5080.3	
865.09	3501.3	
865.26	3812	
865.43	6202.6	
865.6	6655.2	
865.77	3057.6	
865.94	3530.7	
866.1	6281.8	
866.27	6040.8	
866.44	5388.9	
866.61	3417.4	
866.78	5479.7	
866.95	5867.4	
867.11	3462.4	
867.28	3140.2	
867.45	6110.5	
867.62	5089.9	
867.79	4126	
867.96	3513.6	
868.12	5005.2	
868.29	6063.4	
868.46	3098.6	
868.63	4732.9	
868.8	6198.5	
868.97	5958.2	
869.13	3691.1	
869.3	3714.3	
869.47	5853.1	
869.64	6073.6	
869.81	3611.3	
869.97	3618.1	
870.14	5745.9	
870.31	6466.8	
870.48	3424.2	
870.65	4515.1	
870.81	5416.2	
870.98	5327.4	
871.15	3996.3	
871.32	3733.4	
871.48	5823.7	
871.65	6550.8	
871.82	3515	
871.99	3880.2	
872.16	6988.4	
872.32	6248.4	
872.49	3526.6	
872.66	3612.6	
872.83	6016.2	
872.99	5274.9	
873.16	4103.4	
873.33	3493.2	
873.5	5516.5	
873.67	5575.3	
873.83	3682.9	
874	4749.9	
874.17	5763	
874.34	6814.3	
874.5	4576.5	
874.67	4367.6	
874.84	6371.2	
875.01	5008.6	
875.17	4941.1	
875.34	3536.2	
875.51	5674.2	
875.68	6812.2	
875.84	4303.5	
876.01	5238.7	
876.18	5933.6	
876.34	5872.9	
876.51	3594.9	
876.68	3479.5	
876.85	5446.9	
877.01	6223.1	
877.18	5113.1	
877.35	3549.1	
877.52	5538.4	
877.68	4904.2	
877.85	3448.8	
878.02	3519.8	
878.18	5443.5	
878.35	5271.5	
878.52	2874	
878.69	3956.7	
878.85	5945.3	
879.02	5963	
879.19	5044.8	
879.35	3839.3	
879.52	5885.2	
879.69	6118	
879.86	3063.1	
880.02	3975.1	
880.19	5489.2	
880.36	6703.7	
880.52	4093.9	
880.69	4216.1	
880.86	6027.2	
881.02	6093.4	
881.19	3859.7	
881.36	3855	
881.52	5881.1	
881.69	5202.5	
881.86	3863.2	
882.02	3717.7	
882.19	6200.6	
882.36	7185.6	
882.52	3639.2	
882.69	5032.5	
882.86	5662.6	
883.02	5584.1	
883.19	4311	
883.36	4132.8	
883.52	6063.4	
883.69	6924.2	
883.86	3591.5	
884.02	3163.4	
884.19	6015.6	
884.36	5567.1	
884.52	4056.3	
884.69	3757.3	
884.86	5289.2	
885.02	6598.6	
885.19	3981.9	
885.36	4093.2	
885.52	5532.2	
885.69	5666	
885.86	5165	
886.02	4610	
886.19	5928.2	
886.35	5461.2	
886.52	3895.2	
886.69	4980.7	
886.85	5100.8	
887.02	6418.3	
887.19	6418.3	
887.35	6418.3	
887.52	6418.3	
887.68	6418.3	
887.85	6418.3	
888.02	6418.3	
888.18	6418.3	
888.35	6418.3	
888.51	6418.3	
888.68	6418.3	
888.85	6418.3	
889.01	6418.3	
889.18	6418.3	
889.35	6418.3	
889.51	6418.3	
889.68	6418.3	
889.84	6418.3	
890.01	6418.3	
890.17	6418.3	
890.34	6418.3	
890.51	6418.3	
890.67	6418.3	
890.84	6418.3	
891	6418.3	
891.17	6418.3	
891.34	6418.3	
891.5	6418.3	
891.67	6418.3	
891.83	6418.3	
892	6418.3	
892.16	6418.3	
892.33	6418.3	
892.5	6418.3	
892.66	6418.3	
892.83	6418.3	
892.99	6418.3	
893.16	6418.3	
893.32	6418.3	
893.49	6418.3	
893.65	6418.3	
893.82	6418.3	
893.99	6418.3	
894.15	6418.3	
894.32	6418.3	
894.48	6418.3	
894.65	6418.3	
894.81	6418.3	
894.98	6418.3	
895.14	6418.3	
895.31	6418.3	
895.47	6418.3	
895.64	6418.3	
895.81	6418.3	
895.97	6418.3	
896.14	6418.3	
896.3	6418.3	
896.47	6418.3	
896.63	6418.3	
896.8	6418.3	
896.96	6418.3	
897.13	6418.3	
897.29	6418.3	
897.46	6418.3	
897.62	6418.3	
897.79	6418.3	
897.95	6418.3	
898.12	6418.3	
898.28	6418.3	
898.45	6418.3	
898.61	6418.3	
898.78	6418.3	
898.94	6418.3	
899.11	6418.3	
899.27	6418.3	
899.44	6418.3	
899.6	6418.3	
899.77	6418.3	
899.93	6418.3	
900.1	6418.3	
900.26	6418.3	
900.43	6418.3	
900.59	6418.3	
900.76	6418.3	
900.92	6418.3	
901.09	6418.3	
901.25	6418.3	
901.42	6418.3	
901.58	6418.3	
901.75	6418.3	
901.91	6418.3	
902.07	6418.3	
902.24	6418.3	
902.4	6418.3	
902.57	6418.3	
902.73	6418.3	
902.9	6418.3	
903.06	6418.3	
903.23	6418.3	
903.39	6418.3	
903.56	6418.3	
903.72	6418.3	
903.88	6418.3	
904.05	6418.3	
904.21	6418.3	
904.38	6418.3	
904.54	6418.3	
904.71	6418.3	
904.87	6418.3	
905.03	6418.3	
905.2	6418.3	
905.36	6418.3	
905.53	6418.3	
905.69	6418.3	
905.86	6418.3	
906.02	6418.3	
906.18	6418.3	
906.35	6418.3	
906.51	6418.3	
906.68	6418.3	
906.84	6418.3	
907.01	6418.3	
907.17	6418.3	
907.33	6418.3	
907.5	6418.3	
907.66	6418.3	
907.83	6418.3	
907.99	6418.3	
908.15	6418.3	
908.32	6418.3	
908.48	6418.3	
908.65	6418.3	
908.81	6418.3	
908.97	6418.3	
909.14	6418.3	
909.3	6418.3	
909.47	6418.3	
909.63	6418.3	
909.79	6418.3	
909.96	6418.3	
910.12	6418.3	
910.28	6418.3	
910.45	6418.3	
910.61	6418.3	
910.78	6418.3	
910.94	6418.3	
911.1	6418.3	
911.27	6418.3	
911.43	6418.3	
911.59	6418.3	
911.76	6418.3	
911.92	6418.3	
912.08	6418.3	
912.25	6418.3	
912.41	6418.3	
912.57	6418.3	
912.74	6418.3	
912.9	6418.3	
913.07	6418.3	
913.23	6418.3	
913.39	6418.3	
913.56	6418.3	
913.72	6418.3	
913.88	6418.3	
914.05	6418.3	
914.21	6418.3	
914.37	6418.3	
914.54	6418.3	
914.7	6418.3	
914.86	6418.3	
915.03	6418.3	
915.19	6418.3	
