Wavelength	Intensities	
nm	a.u.	
179.22	1875.3	
179.44	1880	
179.65	1870.5	
179.86	1889.6	
180.08	1914.2	
180.29	4886.5	
180.51	3508.9	
180.72	5743.9	
180.94	6650.4	
181.15	3256.3	
181.37	3205.8	
181.58	5520	
181.79	5790.3	
182.01	3403	
182.22	3685.7	
182.44	5835.3	
182.65	4851.6	
182.87	4601.8	
183.08	4046.8	
183.29	6103.6	
183.51	4998.4	
183.72	3693.2	
183.94	5319.9	
184.15	5330.9	
184.37	5417.6	
184.58	3203	
184.79	4397.7	
185.01	5058.5	
185.22	5754.8	
185.44	4739.7	
185.65	3908.9	
185.86	5304.2	
186.08	4890.5	
186.29	3097.9	
186.51	3350.5	
186.72	5051.7	
186.94	5944.6	
187.15	3958.7	
187.36	4050.9	
187.58	7735.2	
187.79	5556.1	
188.01	4219.5	
188.22	6596.5	
188.43	6676.4	
188.65	5748	
188.86	3332	
189.08	4070.7	
189.29	5186.8	
189.5	5210	
189.72	3696.6	
189.93	3822.2	
190.15	5926.8	
190.36	7188.4	
190.57	4102.1	
190.79	3987.4	
191	6059.9	
191.22	5993	
191.43	4108.9	
191.64	3355.3	
191.86	6193.1	
192.07	6014.2	
192.29	3538.2	
192.5	3731.4	
192.71	6006.7	
192.93	5131.5	
193.14	3704.8	
193.35	3818.8	
193.57	5212.1	
193.78	6033.3	
194	2975	
194.21	3650.8	
194.42	4934.2	
194.64	5394.3	
194.85	4026.3	
195.07	4730.1	
195.28	5461.2	
195.49	4685.1	
195.71	5029.1	
195.92	3506.1	
196.13	5610.1	
196.35	5760.9	
196.56	5305.6	
196.78	4034.5	
196.99	7120.8	
197.2	6548	
197.42	4639.3	
197.63	4107.5	
197.84	4800.4	
198.06	5619.6	
198.27	3753.2	
198.48	4967	
198.7	5152.7	
198.91	5304.9	
199.13	4033.8	
199.34	4085	
199.55	5789.6	
199.77	4686.4	
199.98	3544.4	
200.19	4113	
200.41	5266	
200.62	4989.5	
200.83	4182	
201.05	4534.2	
201.26	5337.7	
201.47	5047.6	
201.69	3596.9	
201.9	3473.4	
202.11	5358.9	
202.33	6421.1	
202.54	3885	
202.76	4296	
202.97	5513.8	
203.18	5531.6	
203.4	4245.4	
203.61	4169	
203.82	5470.8	
204.04	5071.5	
204.25	4095.3	
204.46	4012	
204.68	5404.6	
204.89	5640.1	
205.1	3934.8	
205.32	3492.5	
205.53	5866.1	
205.74	5964.4	
205.96	2954.5	
206.17	4233.8	
206.38	5812.1	
206.6	5939.8	
206.81	4658.4	
207.02	3832.4	
207.24	5638.1	
207.45	6060.6	
207.66	3899.3	
207.88	3293.8	
208.09	5568.4	
208.3	5431.2	
208.52	3538.9	
208.73	3888.4	
208.94	5438	
209.15	6124.8	
209.37	3879.5	
209.58	4074.8	
209.79	5939.1	
210.01	5194.3	
210.22	3142.3	
210.43	3247.4	
210.65	5444.2	
210.86	5850.4	
211.07	3923.9	
211.29	3561.4	
211.5	5778.7	
211.71	5398.4	
211.93	3534.1	
212.14	3547.1	
212.35	5329.5	
212.56	5606.7	
212.78	4165.6	
212.99	3366.9	
213.2	6439.5	
213.42	5171.1	
213.63	3657	
213.84	3962.1	
214.06	4782.7	
214.27	4942.4	
214.48	3878.9	
214.69	4112.3	
214.91	6102.9	
215.12	6227.2	
215.33	4128.7	
215.55	4628.4	
215.76	6706.4	
215.97	5819	
216.18	4000.4	
216.4	3938.2	
216.61	5104.9	
216.82	5955.5	
217.04	3603.1	
217.25	3680.2	
217.46	6113.2	
217.67	5814.9	
217.89	3224.2	
218.1	3376.4	
218.31	5521.3	
218.53	5569.1	
218.74	3736.2	
218.95	3620.8	
219.16	5383.4	
219.38	6350.8	
219.59	3687.7	
219.8	4341	
220.01	7068.2	
220.23	5442.1	
220.44	4802.5	
220.65	3556.6	
220.87	5540.4	
221.08	6072.9	
221.29	3268.6	
221.5	4463.2	
221.72	7460.8	
221.93	5177.3	
222.14	4121.2	
222.35	4829.8	
222.57	5469.4	
222.78	5760.9	
222.99	3872.7	
223.2	4207.9	
223.42	5743.2	
223.63	5922	
223.84	3002.3	
224.05	2948.4	
224.27	6907.1	
224.48	6287.3	
224.69	4868.7	
224.9	4045.4	
225.12	5597.8	
225.33	5373.2	
225.54	3231.7	
225.75	3655.6	
225.97	4969.1	
226.18	5272.8	
226.39	3889.1	
226.6	3677.5	
226.82	5169.1	
227.03	5022.3	
227.24	4117.1	
227.45	3388	
227.67	5831.2	
227.88	6364.4	
228.09	4542.4	
228.3	4544.4	
228.52	5833.3	
228.73	5423	
228.94	3814.7	
229.15	3319.8	
229.36	5332.2	
229.58	5244.2	
229.79	3836.5	
230	4457.1	
230.21	6399.2	
230.43	5507.7	
230.64	4009.2	
230.85	4272.7	
231.06	5885.2	
231.28	5863.3	
231.49	3379.1	
231.7	4004.5	
231.91	5758.2	
232.12	5524.1	
232.34	3424.9	
232.55	3958	
232.76	6068.8	
232.97	5626.5	
233.18	3597.6	
233.4	3951.2	
233.61	5648.3	
233.82	5162.9	
234.03	3767.6	
234.25	3704.8	
234.46	7612.3	
234.67	5435.3	
234.88	4156.7	
235.09	3620.8	
235.31	5749.3	
235.52	5380	
235.73	4064.5	
235.94	3477.5	
236.15	5158.8	
236.37	6565.1	
236.58	3596.2	
236.79	3918.4	
237	5714.5	
237.21	4922.6	
237.43	4220.9	
237.64	3308.2	
237.85	9891	
238.06	4995	
238.27	4249.5	
238.48	3448.1	
238.7	5743.2	
238.91	5265.3	
239.12	3908.2	
239.33	3958	
239.54	5009.3	
239.76	5329.5	
239.97	3875.4	
240.18	3869.3	
240.39	6817	
240.6	5736.4	
240.82	4059.1	
241.03	3295.2	
241.24	5387.5	
241.45	6354.8	
241.66	3547.1	
241.87	4283.7	
242.09	6096.8	
242.3	6565.1	
242.51	4192.9	
242.72	4003.8	
242.93	5903.6	
243.14	5399.1	
243.36	4507.6	
243.57	4868.7	
243.78	6309.8	
243.99	5816.9	
244.2	3964.2	
244.41	3536.2	
244.63	4934.9	
244.84	5742.5	
245.05	4216.8	
245.26	3930.7	
245.47	5689.3	
245.68	5944.6	
245.9	5203.2	
246.11	4030.4	
246.32	5284.4	
246.53	5703.6	
246.74	6382.2	
246.95	3274.7	
247.16	4941.1	
247.38	5397.8	
247.59	3270.6	
247.8	3939.6	
248.01	5145.9	
248.22	5375.9	
248.43	3521.8	
248.64	3842	
248.86	4827.1	
249.07	5241.4	
249.28	3429	
249.49	4016.1	
249.7	5969.8	
249.91	6128.9	
250.12	3271.3	
250.34	3338.2	
250.55	5511.1	
250.76	5422.3	
250.97	4083.6	
251.18	4146.5	
251.39	6124.8	
251.6	5644.2	
251.81	4105.5	
252.03	4109.6	
252.24	5108.3	
252.45	5995.1	
252.66	3381.9	
252.87	4336.2	
253.08	5492.7	
253.29	7218.4	
253.5	3409.9	
253.72	4786.8	
253.93	5259.2	
254.14	6527.6	
254.35	3707.5	
254.56	3856.3	
254.77	5736.4	
254.98	5008	
255.19	3654.3	
255.41	4755.4	
255.62	5493.3	
255.83	6092	
256.04	4228.4	
256.25	4124.6	
256.46	6767.2	
256.67	5072.1	
256.88	3976.5	
257.09	4500.1	
257.31	5091.3	
257.52	5098.1	
257.73	5070.8	
257.94	3689.8	
258.15	5259.9	
258.36	5442.8	
258.57	4661.9	
258.78	2899.9	
258.99	5927.5	
259.2	5281	
259.41	3700.7	
259.63	3836.5	
259.84	6223.8	
260.05	6821.8	
260.26	4926	
260.47	3601	
260.68	5971.2	
260.89	5327.4	
261.1	4517.8	
261.31	3534.1	
261.52	6019	
261.73	6323.4	
261.95	4856.4	
262.16	4224.3	
262.37	6210.8	
262.58	6190.3	
262.79	4769	
263	3764.8	
263.21	5496.7	
263.42	4959.5	
263.63	3880.2	
263.84	3762.1	
264.05	5982.1	
264.26	6472.9	
264.47	4681.7	
264.69	4259.1	
264.9	6174.6	
265.11	5654.4	
265.32	3601	
265.53	3694.5	
265.74	5571.8	
265.95	4786.8	
266.16	4034.5	
266.37	4416.1	
266.58	5585.5	
266.79	5304.2	
267	3729.4	
267.21	3450.8	
267.42	4991.6	
267.63	5442.8	
267.84	3953.3	
268.06	3347.7	
268.27	5852.4	
268.48	6195.1	
268.69	3795.6	
268.9	4500.8	
269.11	6112.5	
269.32	4911	
269.53	3920.5	
269.74	3620.8	
269.95	5800.5	
270.16	4780.6	
270.37	3887	
270.58	4544.4	
270.79	5265.3	
271	6034.7	
271.21	4199.7	
271.42	3948.5	
271.63	5603.2	
271.84	5072.1	
272.05	3081.5	
272.26	3523.2	
272.47	5465.3	
272.68	5692	
272.89	3751.9	
273.11	4315.1	
273.32	5235.3	
273.53	6406	
273.74	4274.1	
273.95	4186	
274.16	6052.4	
274.37	5556.1	
274.58	4304.1	
274.79	3364.1	
275	5524.7	
275.21	6133.7	
275.42	5132.9	
275.63	4427	
275.84	5766.4	
276.05	7153.6	
276.26	4124.6	
276.47	3843.4	
276.68	5269.4	
276.89	6486.6	
277.1	4464.6	
277.31	3424.9	
277.52	5671.5	
277.73	5890	
277.94	3386.7	
278.15	3777.8	
278.36	5633.3	
278.57	5056.4	
278.78	3745.1	
278.99	4255	
279.2	5020.9	
279.41	5018.2	
279.62	5027.8	
279.83	3489.7	
280.04	6701	
280.25	4921.3	
280.46	4953.4	
280.67	3928.7	
280.88	5020.9	
281.09	6100.2	
281.3	4117.1	
281.51	5210	
281.72	5928.2	
281.93	5967.1	
282.14	3647.4	
282.35	3917.1	
282.56	5961	
282.77	5879	
282.98	3758.7	
283.19	4678.2	
283.4	7353.6	
283.61	5374.6	
283.82	3401	
284.03	4926	
284.24	5555.5	
284.45	6135.7	
284.66	4894	
284.87	4680.3	
285.08	5995.1	
285.29	6193.7	
285.5	3316.3	
285.71	3861.1	
285.92	6107	
286.12	6721.4	
286.33	4782.7	
286.54	3760.8	
286.75	5948	
286.96	5250.3	
287.17	3502	
287.38	4755.4	
287.59	5046.2	
287.8	5014.1	
288.01	3828.3	
288.22	4423.6	
288.43	5913.9	
288.64	4965	
288.85	4532.2	
289.06	4360.8	
289.27	5907.7	
289.48	6402	
289.69	4898.7	
289.9	4430.4	
290.11	6114.6	
290.32	5162.2	
290.53	4649.6	
290.74	4194.9	
290.94	5872.2	
291.15	5921.4	
291.36	3698.6	
291.57	4407.9	
291.78	5188.2	
291.99	4854.4	
292.2	3511.6	
292.41	4255	
292.62	6007.4	
292.83	5806	
293.04	5272.8	
293.25	3554.6	
293.46	5240.8	
293.67	6057.9	
293.88	3698.6	
294.09	3509.5	
294.29	4984.8	
294.5	5581.4	
294.71	3937.6	
294.92	3725.3	
295.13	5246.2	
295.34	6604.7	
295.55	3297.9	
295.76	3388	
295.97	5846.3	
296.18	6620.4	
296.39	3474	
296.6	3684.3	
296.81	5574.6	
297.01	5896.1	
297.22	3838.6	
297.43	3635.8	
297.64	5112.4	
297.85	5064.6	
298.06	3049.4	
298.27	3296.5	
298.48	5489.9	
298.69	5138.4	
298.9	3994.2	
299.11	3586.7	
299.31	4981.3	
299.52	4952.7	
299.73	4311	
299.94	4188.1	
300.15	5453.7	
300.36	5049.6	
300.57	4198.3	
300.78	4171.7	
300.99	5356.1	
301.2	5575.3	
301.4	3627	
301.61	3986.7	
301.82	5735	
302.03	5923.4	
302.24	4529.4	
302.45	3459	
302.66	5761.6	
302.87	6163	
303.08	3686.3	
303.29	5040.7	
303.49	5158.2	
303.7	5507	
303.91	3232.4	
304.12	4756.7	
304.33	4928.8	
304.54	5645.6	
304.75	3698.6	
304.96	3485	
305.16	5793	
305.37	6462.7	
305.58	3166.8	
305.79	3344.3	
306	5798.5	
306.21	4840.7	
306.42	3702	
306.63	5610.8	
306.83	5265.3	
307.04	6062.7	
307.25	4053.6	
307.46	3986.7	
307.67	4691.9	
307.88	5862	
308.09	3635.8	
308.29	3740.3	
308.5	5507	
308.71	6073.6	
308.92	3914.4	
309.13	3607.8	
309.34	5375.2	
309.55	5343.2	
309.75	4576.5	
309.96	4193.6	
310.17	5884.5	
310.38	5109.7	
310.59	4382.7	
310.8	3443.3	
311.01	5248.3	
311.21	5290.6	
311.42	3475.4	
311.63	3627.6	
311.84	5209.3	
312.05	5565	
312.26	4124.6	
312.46	4429.8	
312.67	5293.3	
312.88	5016.2	
313.09	3525.2	
313.3	3452.2	
313.51	6229.2	
313.71	6638.1	
313.92	3510.9	
314.13	3714.3	
314.34	5598.5	
314.55	5381.4	
314.76	4607.2	
314.96	3947.8	
315.17	5525.4	
315.38	5984.2	
315.59	3539.6	
315.8	3389.4	
316.01	6350.8	
316.21	6384.2	
316.42	3409.2	
316.63	3943.7	
316.84	5325.4	
317.05	6203.3	
317.26	4198.3	
317.46	3756.7	
317.67	5358.9	
317.88	5908.4	
318.09	4525.3	
318.3	3269.2	
318.5	5153.4	
318.71	5832.6	
318.92	5763.7	
319.13	4177.2	
319.34	5962.3	
319.54	6102.3	
319.75	3319.1	
319.96	3172.3	
320.17	5797.1	
320.38	6036.7	
320.58	3196.2	
320.79	3870.7	
321	6051.7	
321.21	6227.2	
321.42	3946.4	
321.62	3208.5	
321.83	5098.1	
322.04	5501.5	
322.25	3749.8	
322.46	3630.4	
322.66	5507	
322.87	5644.2	
323.08	4420.2	
323.29	3508.9	
323.5	6548	
323.7	5031.2	
323.91	4892.6	
324.12	4332.1	
324.33	5502.9	
324.53	5716.6	
324.74	4158.1	
324.95	4407.9	
325.16	4829.8	
325.37	5238.7	
325.57	3525.9	
325.78	3657	
325.99	5485.1	
326.2	4986.1	
326.4	5222.3	
326.61	3301.3	
326.82	5381.4	
327.03	5569.1	
327.24	5092.6	
327.44	4816.8	
327.65	5743.9	
327.86	4601.8	
328.07	4186.7	
328.27	3379.1	
328.48	6116.6	
328.69	4960.2	
328.9	5095.3	
329.1	3859.7	
329.31	5337.7	
329.52	6300.2	
329.73	3566.9	
329.93	4029.7	
330.14	5450.3	
330.35	5711.8	
330.56	5945.9	
330.76	4408.6	
330.97	5266.7	
331.18	5653.1	
331.39	3981.3	
331.59	3173.7	
331.8	6031.3	
332.01	6195.1	
332.22	3705.5	
332.42	4211.3	
332.63	5544.5	
332.84	5152.7	
333.05	4029	
333.25	3640.6	
333.46	5249.6	
333.67	5460.6	
333.88	3728.7	
334.08	4115.1	
334.29	7296.2	
334.5	6193.7	
334.7	3437.2	
334.91	5081	
335.12	5018.2	
335.33	5901.6	
335.53	3994.2	
335.74	5883.1	
335.95	5220.3	
336.16	5048.2	
336.36	3965.6	
336.57	4590.2	
336.78	4954	
336.98	6080.4	
337.19	4853.7	
337.4	3901.4	
337.61	6610.2	
337.81	4928.1	
338.02	3633.8	
338.23	4681.7	
338.43	6204	
338.64	5100.1	
338.85	3599.6	
339.05	4775.2	
339.26	6311.2	
339.47	4883	
339.68	3508.2	
339.88	5323.4	
340.09	5683.8	
340.3	5912.5	
340.5	4164.2	
340.71	3181.9	
340.92	4934.2	
341.13	6184.2	
341.33	3420.8	
341.54	4227	
341.75	5697.4	
341.95	5324	
342.16	4043.4	
342.37	4358.8	
342.57	4997	
342.78	5352	
342.99	4455	
343.19	3222.8	
343.4	5874.3	
343.61	5717.9	
343.81	3855.6	
344.02	3531.4	
344.23	5821.7	
344.43	6256.5	
344.64	4463.9	
344.85	4352.6	
345.06	5745.2	
345.26	6086.6	
345.47	4100.7	
345.68	4844.8	
345.88	4804.5	
346.09	5926.8	
346.3	4202.4	
346.5	3162.1	
346.71	5461.2	
346.92	5171.8	
347.12	3272	
347.33	4128	
347.54	5992.4	
347.74	6422.4	
347.95	4140.3	
348.16	3037.8	
348.36	5242.1	
348.57	4941.1	
348.78	4024.9	
348.98	4339.6	
349.19	5384.1	
349.39	4926.7	
349.6	3250.1	
349.81	3615.3	
350.01	5692.7	
350.22	5115.1	
350.43	3953.3	
350.63	4781.3	
350.84	5494	
351.05	5151.3	
351.25	3590.8	
351.46	3243.3	
351.67	6068.1	
351.87	5117.2	
352.08	3839.9	
352.29	4333.5	
352.49	5920.7	
352.7	6040.8	
352.9	3460.4	
353.11	4358.1	
353.32	6585.6	
353.52	5276.3	
353.73	3437.9	
353.94	4343.7	
354.14	5705	
354.35	5587.5	
354.55	3495.2	
354.76	3921.2	
354.97	5678.3	
355.17	5421.7	
355.38	3345.7	
355.59	4686.4	
355.79	5087.8	
356	5445.5	
356.2	3862.5	
356.41	3369.6	
356.62	4823	
356.82	5328.8	
357.03	4215.4	
357.24	3724.6	
357.44	5128.1	
357.65	5248.3	
357.85	5033.9	
358.06	3957.4	
358.27	4825	
358.47	5043.5	
358.68	3229	
358.88	4157.4	
359.09	5591	
359.3	6031.3	
359.5	4853.7	
359.71	4285	
359.91	6521.4	
360.12	5795.8	
360.33	4121.2	
360.53	4558.8	
360.74	5081	
360.94	5099.4	
361.15	4255.7	
361.36	3509.5	
361.56	5885.2	
361.77	5246.2	
361.97	4817.5	
362.18	3753.9	
362.38	5930.2	
362.59	4924.7	
362.8	3376.4	
363	3237.8	
363.21	4719.2	
363.41	5356.8	
363.62	3958	
363.83	5033.2	
364.03	5416.2	
364.24	6408.1	
364.44	5116.5	
364.65	5079	
364.85	5227.1	
365.06	5103.5	
365.27	3556	
365.47	3616.7	
365.68	6135	
365.88	5185.5	
366.09	4044.7	
366.29	3707.5	
366.5	5434.6	
366.71	5937.1	
366.91	5043.5	
367.12	4130.8	
367.32	6458.6	
367.53	5657.9	
367.73	4141.7	
367.94	5096.7	
368.14	5646.9	
368.35	6604.7	
368.56	4121.2	
368.76	3422.2	
368.97	5854.5	
369.17	7453.2	
369.38	3591.5	
369.58	3883.6	
369.79	4811.4	
369.99	6154.1	
370.2	4889.9	
370.4	3934.8	
370.61	5430.5	
370.82	6658.6	
371.02	3801.7	
371.23	3128.6	
371.43	4679.6	
371.64	6025.1	
371.84	3834.5	
372.05	5092.6	
372.25	7411.6	
372.46	5793.7	
372.66	3801.7	
372.87	3779.9	
373.07	5823.1	
373.28	7419.8	
373.48	4918.5	
373.69	4493.2	
373.9	5258.5	
374.1	5338.4	
374.31	4785.4	
374.51	4318.5	
374.72	6006.7	
374.92	4880.3	
375.13	4896.7	
375.33	4042	
375.54	5673.6	
375.74	5014.8	
375.95	4111	
376.15	5392.3	
376.36	5533.6	
376.56	5418.9	
376.77	4175.8	
376.97	4564.2	
377.18	6649.1	
377.38	5618.9	
377.59	4951.3	
377.79	3588.7	
378	5438	
378.2	5853.8	
378.41	3745.1	
378.61	3574.4	
378.82	5958.9	
379.02	4982.7	
379.23	3824.9	
379.43	5022.3	
379.64	5956.2	
379.84	5593.7	
380.05	3684.3	
380.25	3583.3	
380.46	5662.6	
380.66	5266	
380.87	5037.3	
381.07	5380.7	
381.28	6318	
381.48	5700.9	
381.69	3681.6	
381.89	3790.1	
382.1	4644.1	
382.3	5992.4	
382.51	4846.2	
382.71	5722.7	
382.91	5716.6	
383.12	6255.9	
383.32	4046.8	
383.53	4291.2	
383.73	5564.3	
383.94	5374.6	
384.14	4297.3	
384.35	3352.5	
384.55	5289.2	
384.76	5750.7	
384.96	4098	
385.17	4418.2	
385.37	5750.7	
385.58	4947.2	
385.78	4458.4	
385.98	3299.3	
386.19	5228.5	
386.39	5535.7	
386.6	3849.5	
386.8	4054.3	
387.01	5680.4	
387.21	5742.5	
387.42	4539	
387.62	5100.8	
387.83	5017.5	
388.03	5729.5	
388.23	4074.8	
388.44	4975.2	
388.64	4709.6	
388.85	4808.6	
389.05	4442.7	
389.26	5026.4	
389.46	6739.2	
389.67	6090	
389.87	4420.2	
390.07	4472.8	
390.28	5311.7	
390.48	4863.9	
390.69	3633.8	
390.89	3941.7	
391.1	5045.5	
391.3	5988.9	
391.5	5120.6	
391.71	5821.7	
391.91	5681.1	
392.12	6772.6	
392.32	5226.4	
392.53	4402.5	
392.73	5169.8	
392.93	5336.3	
393.14	4099.4	
393.34	4880.3	
393.55	5779.4	
393.75	5337	
393.95	4126.7	
394.16	4106.2	
394.36	5030.5	
394.57	5753.4	
394.77	3542.3	
394.98	3956	
395.18	4938.3	
395.38	5185.5	
395.59	4867.3	
395.79	3792.2	
396	5089.9	
396.2	5545.9	
396.4	4632.5	
396.61	4498	
396.81	5806.7	
397.02	4987.5	
397.22	4801.1	
397.42	4845.5	
397.63	5730.9	
397.83	4881	
398.04	3657	
398.24	4166.9	
398.44	5502.2	
398.65	4515.8	
398.85	3470.6	
399.05	3672	
399.26	4820.2	
399.46	6642.2	
399.67	3932.8	
399.87	3749.1	
400.07	5210.7	
400.28	5565.7	
400.48	3779.9	
400.69	4841.4	
400.89	5793.7	
401.09	6208.8	
401.3	3591.5	
401.5	4799.8	
401.7	6489.3	
401.91	6743.3	
402.11	3988.8	
402.32	4270	
402.52	5838.8	
402.72	5752.1	
402.93	4439.3	
403.13	3285.6	
403.33	6639.5	
403.54	5329.5	
403.74	4232.5	
403.94	5058.5	
404.15	5453.1	
404.35	6572.6	
404.56	3970.3	
404.76	5791.7	
404.96	5841.5	
405.17	5604.6	
405.37	5233.9	
405.57	4351.9	
405.78	5809.4	
405.98	5332.9	
406.18	3981.9	
406.39	4900.8	
406.59	5843.5	
406.79	5436.7	
407	3702	
407.2	3892.5	
407.4	5876.3	
407.61	5993.7	
407.81	3810.6	
408.01	5724.1	
408.22	4784.1	
408.42	6830	
408.62	4839.4	
408.83	4250.9	
409.03	5257.1	
409.23	4990.9	
409.44	4289.8	
409.64	4572.4	
409.84	6119.3	
410.05	6023.1	
410.25	4371.7	
410.45	4084.3	
410.66	5367	
410.86	8001.4	
411.06	4400.4	
411.27	4324.6	
411.47	7550.2	
411.67	5542.5	
411.88	4591.5	
412.08	4716.5	
412.28	6212.9	
412.49	6660.7	
412.69	4197	
412.89	4285.7	
413.09	6432	
413.3	6285.9	
413.5	4391.5	
413.7	3906.8	
413.91	5519.3	
414.11	6415.6	
414.31	4095.9	
414.52	4547.2	
414.72	6045.6	
414.92	5917.9	
415.12	4114.4	
415.33	4678.9	
415.53	6256.5	
415.73	6555.5	
415.94	5054.4	
416.14	4442	
416.34	5275.6	
416.55	5044.8	
416.75	5668.1	
416.95	5009.3	
417.15	6292.7	
417.36	7027.3	
417.56	5833.3	
417.76	4810	
417.97	6662.7	
418.17	6261.3	
418.37	4343.1	
418.57	4474.1	
418.78	6073.6	
418.98	5774.6	
419.18	5315.2	
419.38	5287.9	
419.59	5801.2	
419.79	5463.3	
419.99	4298.7	
420.2	4777.9	
420.4	6281.1	
420.6	6450.4	
420.8	4221.5	
421.01	4107.5	
421.21	6062.7	
421.41	6236.1	
421.61	4680.3	
421.82	4399	
422.02	5545.9	
422.22	6653.2	
422.42	5218.2	
422.63	4898.7	
422.83	5765	
423.03	6937.2	
423.23	4881	
423.44	3771.7	
423.64	5838.8	
423.84	5643.5	
424.04	4218.8	
424.25	3908.9	
424.45	6774	
424.65	6796.5	
424.85	3743.7	
425.06	4334.9	
425.26	6776	
425.46	5748	
425.66	4870.8	
425.87	4519.2	
426.07	6532.3	
426.27	6398.5	
426.47	4700.8	
426.67	4059.1	
426.88	6847.7	
427.08	6324.1	
427.28	4932.9	
427.48	3969.6	
427.69	5214.8	
427.89	5894.7	
428.09	4848.2	
428.29	4077.5	
428.5	6572.6	
428.7	6157.6	
428.9	3874.1	
429.1	4528.7	
429.3	5971.2	
429.51	6403.3	
429.71	4312.3	
429.91	5010	
430.11	6262	
430.31	6445	
430.52	4558.1	
430.72	4756.7	
430.92	6851.8	
431.12	6272.9	
431.32	4134.8	
431.53	4591.5	
431.73	5122.7	
431.93	6974	
432.13	4046.8	
432.33	3904.8	
432.54	5662	
432.74	6007.4	
432.94	3816.7	
433.14	4931.5	
433.34	6152.8	
433.55	5561.6	
433.75	4893.3	
433.95	6611.5	
434.15	5935.7	
434.35	5598.5	
434.56	4070	
434.76	3511.6	
434.96	5855.8	
435.16	6119.3	
435.36	3867.2	
435.56	5038	
435.77	5479.7	
435.97	5609.4	
436.17	5733.6	
436.37	4864.6	
436.57	5416.2	
436.78	5332.2	
436.98	6810.2	
437.18	5520	
437.38	6102.3	
437.58	5662.6	
437.78	5633.3	
437.99	4309.6	
438.19	6260.6	
438.39	7012.2	
438.59	4273.4	
438.79	3743.7	
438.99	6907.8	
439.2	5674.9	
439.4	3900	
439.6	3836.5	
439.8	5958.9	
440	7045	
440.2	4840.7	
440.4	4922.6	
440.61	6324.1	
440.81	6822.5	
441.01	3872.7	
441.21	4829.8	
441.41	6549.4	
441.61	6287.3	
441.81	5160.9	
442.02	6139.8	
442.22	7140.6	
442.42	6356.2	
442.62	3943	
442.82	3997.6	
443.02	6703.7	
443.22	5670.8	
443.43	4441.4	
443.63	3923.9	
443.83	5542.5	
444.03	5634.6	
444.23	5158.2	
444.43	4750.6	
444.63	5853.1	
444.83	7074.4	
445.04	4037.9	
445.24	5361.6	
445.44	6307.1	
445.64	6341.2	
445.84	4882.4	
446.04	4825	
446.24	5627.1	
446.44	6673.6	
446.65	4078.9	
446.85	4440	
447.05	6059.9	
447.25	6619.7	
447.45	4508.3	
447.65	3936.9	
447.85	5999.2	
448.05	5640.1	
448.25	5005.2	
448.46	4772.4	
448.66	5951.4	
448.86	5661.3	
449.06	3697.3	
449.26	5018.2	
449.46	6249	
449.66	5359.5	
449.86	4428.4	
450.06	4409.3	
450.26	5498.1	
450.47	6079.7	
450.67	4685.1	
450.87	5026.4	
451.07	6154.8	
451.27	5961	
451.47	3930.7	
451.67	4538.3	
451.87	5517.2	
452.07	6782.2	
452.27	4134.8	
452.47	4197.7	
452.67	5894.1	
452.88	6531.7	
453.08	3564.8	
453.28	5685.8	
453.48	7066.9	
453.68	5829.2	
453.88	4019.5	
454.08	4315.1	
454.28	6177.4	
454.48	5874.3	
454.68	4876.2	
454.88	5409.4	
455.08	6303.6	
455.28	5958.2	
455.48	3952.6	
455.68	4487.8	
455.89	6732.4	
456.09	6374.6	
456.29	4220.9	
456.49	4190.1	
456.69	6526.9	
456.89	5834.7	
457.09	4724	
457.29	5048.9	
457.49	6111.1	
457.69	6216.3	
457.89	4471.4	
458.09	3887.7	
458.29	5806	
458.49	6550.1	
458.69	4885.8	
458.89	4306.2	
459.09	6699.6	
459.29	6873.7	
459.49	4418.2	
459.69	5149.3	
459.9	6309.8	
460.1	5707	
460.3	4308.9	
460.5	4054.3	
460.7	6205.3	
460.9	5948	
461.1	3676.1	
461.3	4971.8	
461.5	6828.6	
461.7	6478.4	
461.9	4028.4	
462.1	4577.9	
462.3	5814.9	
462.5	6432	
462.7	3994.9	
462.9	4104.1	
463.1	7458.7	
463.3	7015	
463.5	4323.3	
463.7	5160.2	
463.9	5969.8	
464.1	6333	
464.3	4307.6	
464.5	4642.7	
464.7	6523.5	
464.9	6141.9	
465.1	5924.1	
465.3	4938.3	
465.5	6965.8	
465.7	6804.7	
465.9	5156.1	
466.1	5067.4	
466.3	6617.7	
466.5	6466.1	
466.7	5817.6	
466.9	4817.5	
467.1	6346.7	
467.3	7293.5	
467.5	5634	
467.7	4573.8	
467.9	7526.3	
468.1	8342.1	
468.3	5352.7	
468.5	5771.9	
468.7	6266.1	
468.9	6258.6	
469.1	4771.8	
469.3	5483.8	
469.5	8247.2	
469.7	5793.7	
469.9	5416.9	
470.1	4547.2	
470.3	6238.1	
470.5	6272.9	
470.7	5853.8	
470.9	4681.7	
471.1	5952.8	
471.3	6571.2	
471.5	4407.2	
471.69	6440.2	
471.89	5949.3	
472.09	5500.2	
472.29	5249.6	
472.49	5782.1	
472.69	5715.2	
472.89	6602.7	
473.09	4402.5	
473.29	4584.7	
473.49	5851	
473.69	6128.9	
473.89	5586.9	
474.09	4762.2	
474.29	7319.4	
474.49	7044.3	
474.69	5540.4	
474.89	4894	
475.09	6151.4	
475.29	6031.3	
475.49	4317.8	
475.69	4559.5	
475.88	7826.7	
476.08	6350.1	
476.28	4190.1	
476.48	4825	
476.68	6870.9	
476.88	6699.6	
477.08	4605.9	
477.28	4927.4	
477.48	6253.8	
477.68	6956.9	
477.88	4386.7	
478.08	4734.9	
478.28	7134.4	
478.48	6347.3	
478.67	4764.9	
478.87	4241.3	
479.07	6978.8	
479.27	6477.7	
479.47	5063.3	
479.67	4956.8	
479.87	6852.5	
480.07	7339.9	
480.27	4174.4	
480.47	5923.4	
480.67	6498.2	
480.87	7077.8	
481.06	4495.3	
481.26	5369.1	
481.46	6317.3	
481.66	6311.2	
481.86	4948.6	
482.06	6072.9	
482.26	6069.5	
482.46	7087.3	
482.66	4971.1	
482.86	4502.1	
483.05	6417	
483.25	5901.6	
483.45	7438.9	
483.65	4875.5	
483.85	6029.2	
484.05	6333	
484.25	5328.1	
484.45	5757.5	
484.65	7242.3	
484.84	7124.2	
485.04	4754.7	
485.24	4745.8	
485.44	7414.3	
485.64	5662.6	
485.84	3996.3	
486.04	5414.1	
486.24	6038.8	
486.44	6483.9	
486.63	3990.1	
486.83	4733.5	
487.03	5835.3	
487.23	6099.5	
487.43	4042.7	
487.63	6400.6	
487.83	6115.9	
488.02	7240.9	
488.22	4981.3	
488.42	5593	
488.62	7166.5	
488.82	5924.8	
489.02	4661.2	
489.22	4618.9	
489.41	6876.4	
489.61	6503.7	
489.81	4376.5	
490.01	4369	
490.21	6753.5	
490.41	7378.1	
490.61	4295.3	
490.8	4547.2	
491	6253.1	
491.2	5633.3	
491.4	5215.5	
491.6	4186	
491.8	6276.3	
491.99	6474.3	
492.19	4100	
492.39	4464.6	
492.59	6835.4	
492.79	6860	
492.99	5313.8	
493.18	4372.4	
493.38	6945.3	
493.58	7589.1	
493.78	4988.2	
493.98	4616.8	
494.18	6507.8	
494.37	5904.3	
494.57	5092.6	
494.77	5006.6	
494.97	6592.4	
495.17	6802.7	
495.37	4523.3	
495.56	4862.6	
495.76	6961.7	
495.96	6583.5	
496.16	5672.9	
496.36	4579.3	
496.55	6757.6	
496.75	6229.2	
496.95	4986.8	
497.15	4812.7	
497.35	6772.6	
497.54	6697.5	
497.74	4599.7	
497.94	6380.1	
498.14	7405.5	
498.34	7199.3	
498.53	4256.4	
498.73	5141.1	
498.93	6072.2	
499.13	6645	
499.33	4831.8	
499.52	5443.5	
499.72	6451.1	
499.92	6985.6	
500.12	4458.4	
500.32	4803.2	
500.51	6811.5	
500.71	6622.4	
500.91	5597.1	
501.11	5173.2	
501.31	6735.1	
501.5	7246.4	
501.7	5881.1	
501.9	4739	
502.1	6538.5	
502.29	6905.8	
502.49	5238.7	
502.69	5784.8	
502.89	6791.1	
503.09	6726.2	
503.28	4383.3	
503.48	4552	
503.68	6013.5	
503.88	6105.7	
504.07	5507	
504.27	4981.3	
504.47	6448.4	
504.67	6693.4	
504.86	5404.6	
505.06	5100.1	
505.26	6204.7	
505.46	8004.8	
505.65	4967	
505.85	5253	
506.05	6156.2	
506.25	6641.6	
506.44	4359.4	
506.64	5422.3	
506.84	6121.4	
507.04	7072.3	
507.23	4607.9	
507.43	5214.8	
507.63	8133.2	
507.83	6325.5	
508.02	5173.9	
508.22	4863.9	
508.42	8381	
508.62	6171.2	
508.81	5167.7	
509.01	5615.5	
509.21	5997.8	
509.4	6266.1	
509.6	5253	
509.8	4591.5	
510	6320	
510.19	7732.4	
510.39	4560.8	
510.59	4730.8	
510.79	6021	
510.98	7361.1	
511.18	4749.9	
511.38	4797.7	
511.57	6943.3	
511.77	6701	
511.97	5564.3	
512.17	4508.3	
512.36	6872.3	
512.56	6881.9	
512.76	4614.8	
512.95	4376.5	
513.15	7066.9	
513.35	5579.3	
513.55	5525.4	
513.74	4674.8	
513.94	6969.9	
514.14	6347.3	
514.33	5485.8	
514.53	5371.1	
514.73	6201.9	
514.92	6481.1	
515.12	4749.2	
515.32	4586.1	
515.51	6577.4	
515.71	7102.4	
515.91	6303	
516.11	4584.7	
516.3	8163.9	
516.5	6137.8	
516.7	5222.3	
516.89	5808	
517.09	6285.2	
517.29	6130.9	
517.48	5440.1	
517.68	4896.7	
517.88	5918.6	
518.07	6633.4	
518.27	5352	
518.47	4403.8	
518.66	7176.1	
518.86	5728.9	
519.06	4207.9	
519.25	4741.7	
519.45	6096.8	
519.65	7600.7	
519.84	5399.8	
520.04	6075	
520.24	7996	
520.43	6793.1	
520.63	5080.3	
520.83	4872.8	
521.02	5995.1	
521.22	6667.5	
521.42	5380.7	
521.61	5951.4	
521.81	6221	
522.01	6411.5	
522.2	5164.3	
522.4	5010	
522.6	6933.1	
522.79	5651.7	
522.99	5075.5	
523.18	4328	
523.38	6477.7	
523.58	6492.7	
523.77	6196.5	
523.97	4225.6	
524.17	8366	
524.36	7460.8	
524.56	5526.1	
524.76	5206.6	
524.95	6414.2	
525.15	5988.3	
525.34	4872.1	
525.54	4870.8	
525.74	6682.5	
525.93	5671.5	
526.13	6105.7	
526.33	4768.4	
526.52	7045.7	
526.72	6371.2	
526.91	6027.9	
527.11	5195.7	
527.31	6898.9	
527.5	7334.5	
527.7	5059.8	
527.89	4098.7	
528.09	5807.4	
528.29	6325.5	
528.48	5526.8	
528.68	5162.9	
528.87	6739.9	
529.07	6872.3	
529.27	5055.8	
529.46	4554.7	
529.66	6445.6	
529.85	6822.5	
530.05	4387.4	
530.25	5193.6	
530.44	7763.2	
530.64	6422.4	
530.83	4828.4	
531.03	4999.8	
531.23	6735.8	
531.42	6683.2	
531.62	5745.2	
531.81	4916.5	
532.01	6835.4	
532.21	7253.9	
532.4	4614.1	
532.6	4949.3	
532.79	7589.1	
532.99	6703.7	
533.18	4912.4	
533.38	5984.8	
533.58	6244.3	
533.77	7070.3	
533.97	4771.8	
534.16	5696.8	
534.36	7306.5	
534.55	6244.3	
534.75	5801.9	
534.95	4923.3	
535.14	7032.7	
535.34	6234.7	
535.53	4597.7	
535.73	6664.8	
535.92	7601.4	
536.12	6528.2	
536.31	4688.5	
536.51	5928.9	
536.71	6831.3	
536.9	6356.9	
537.1	4899.4	
537.29	4965.6	
537.49	7208.2	
537.68	6239.5	
537.88	5314.5	
538.07	4577.9	
538.27	6436.8	
538.46	7462.8	
538.66	4411.3	
538.86	4865.3	
539.05	6507.1	
539.25	6935.8	
539.44	5175.9	
539.64	4810.7	
539.83	6335.7	
540.03	7380.2	
540.22	4655.7	
540.42	4870.8	
540.61	6703.7	
540.81	6648.4	
541	5425.8	
541.2	5877.7	
541.39	6185.5	
541.59	6552.1	
541.78	5634.6	
541.98	4788.2	
542.18	5825.1	
542.37	5903.6	
542.57	5199.8	
542.76	5628.5	
542.96	6014.9	
543.15	6858.6	
543.35	5195.7	
543.54	4564.9	
543.74	7059.3	
543.93	6645.7	
544.13	5276.3	
544.32	6394.4	
544.52	6976.7	
544.71	6227.9	
544.91	4373.8	
545.1	5658.5	
545.3	6210.1	
545.49	6910.5	
545.69	4291.2	
545.88	4937.7	
546.08	7878.5	
546.27	7474.4	
546.47	5474.9	
546.66	4750.6	
546.86	7197.2	
547.05	7847.1	
547.24	4975.9	
547.44	4780.6	
547.63	6091.3	
547.83	7284.6	
548.02	5223	
548.22	5504.9	
548.41	5935.7	
548.61	7305.8	
548.8	4814.8	
549	4746.5	
549.19	6668.9	
549.39	6863.4	
549.58	4504.8	
549.78	5094.7	
549.97	7089.4	
550.17	6584.9	
550.36	6032.6	
550.55	7017	
550.75	6522.1	
550.94	7503.1	
551.14	4768.4	
551.33	5220.3	
551.53	5864	
551.72	6847	
551.92	5137	
552.11	5010.7	
552.31	6894.8	
552.5	7075	
552.69	6768.5	
552.89	4614.1	
553.08	6866.2	
553.28	6659.3	
553.47	5009.3	
553.67	6154.8	
553.86	7589.8	
554.06	5913.9	
554.25	4162.2	
554.44	4813.4	
554.64	8461.5	
554.83	7878.5	
555.03	4777.9	
555.22	5200.5	
555.42	7114	
555.61	6870.9	
555.8	5019.6	
556	5312.4	
556.19	5913.2	
556.39	7301	
556.58	5069.4	
556.78	5052.3	
556.97	6755.6	
557.16	6358.9	
557.36	6367.8	
557.55	4642.7	
557.75	5795.1	
557.94	7499.7	
558.13	4807.3	
558.33	4563.6	
558.52	7348.8	
558.72	6253.1	
558.91	4650.9	
559.1	4975.9	
559.3	5940.5	
559.49	5644.2	
559.69	4186.7	
559.88	5377.3	
560.07	6776	
560.27	7127.6	
560.46	5572.5	
560.66	5678.3	
560.85	6517.3	
561.04	5732.9	
561.24	4640.7	
561.43	4963.6	
561.63	6012.8	
561.82	6327.5	
562.01	6253.1	
562.21	5141.8	
562.4	6735.1	
562.59	7686	
562.79	5063.3	
562.98	4657.8	
563.18	6636.1	
563.37	8079.9	
563.56	5581.4	
563.76	4560.8	
563.95	6113.9	
564.14	6010.1	
564.34	4903.5	
564.53	4777.2	
564.73	6555.5	
564.92	6929	
565.11	5079	
565.31	4419.5	
565.5	7148.1	
565.69	6057.2	
565.89	4749.9	
566.08	4968.4	
566.27	7025.2	
566.47	7395.9	
566.66	5662.6	
566.85	4265.9	
567.05	6549.4	
567.24	5984.8	
567.44	4554.7	
567.63	5978.7	
567.82	6845.7	
568.02	6584.2	
568.21	4639.3	
568.4	5022.3	
568.6	6421.7	
568.79	6463.4	
568.98	4428.4	
569.18	4541	
569.37	6318.7	
569.56	8426	
569.76	4896	
569.95	5878.4	
570.14	6872.3	
570.34	6630.6	
570.53	4418.2	
570.72	4416.8	
570.91	7281.9	
571.11	6279.8	
571.3	4955.4	
571.49	5862	
571.69	6322.8	
571.88	5902.2	
572.07	5446.2	
572.27	5464.7	
572.46	5865.4	
572.65	7008.1	
572.85	4627.7	
573.04	4924	
573.23	7196.6	
573.43	6403.3	
573.62	4422.9	
573.81	5016.2	
574	6358.9	
574.2	6190.3	
574.39	4730.1	
574.58	4870.8	
574.78	7176.8	
574.97	6375.3	
575.16	5143.8	
575.36	5400.5	
575.55	6779.5	
575.74	6967.2	
575.93	4300.7	
576.13	5318.6	
576.32	6249.7	
576.51	6721.4	
576.71	4747.2	
576.9	6134.3	
577.09	7105.1	
577.28	6684.6	
577.48	5205.3	
577.67	4190.8	
577.86	6281.8	
578.05	6568.5	
578.25	4788.2	
578.44	4904.2	
578.63	6386.2	
578.83	7563.1	
579.02	4222.2	
579.21	5714.5	
579.4	6623.8	
579.6	6157.6	
579.79	4981.3	
579.98	7142.6	
580.17	6956.3	
580.37	6954.2	
580.56	4422.9	
580.75	5211.4	
580.94	7423.2	
581.14	7201.3	
581.33	5550.7	
581.52	4547.2	
581.71	6679.8	
581.91	7391.1	
582.1	4151.9	
582.29	4850.3	
582.48	6304.3	
582.68	6233.3	
582.87	5318.6	
583.06	4972.5	
583.25	6625.2	
583.45	6514.6	
583.64	5584.8	
583.83	6337.1	
584.02	6202.6	
584.21	6592.4	
584.41	5660.6	
584.6	4831.8	
584.79	6333	
584.98	7164.5	
585.18	4270.7	
585.37	4333.5	
585.56	5870.8	
585.75	6675.7	
585.94	4541	
586.14	5302.9	
586.33	7346.7	
586.52	6333.7	
586.71	5111.7	
586.91	4863.2	
587.1	5814.9	
587.29	6852.5	
587.48	4860.5	
587.67	4741	
587.87	6715.3	
588.06	6873	
588.25	6124.1	
588.44	5453.7	
588.63	6492.7	
588.83	7085.3	
589.02	4883	
589.21	4844.1	
589.4	6352.1	
589.59	6153.5	
589.78	4153.3	
589.98	4463.9	
590.17	5990.3	
590.36	6576.7	
590.55	3956	
590.74	4941.1	
590.94	7923.6	
591.13	6520	
591.32	4581.3	
591.51	4121.9	
591.7	6981.5	
591.89	6349.4	
592.09	4230.4	
592.28	4744.5	
592.47	5709.7	
592.66	7521.5	
592.85	4180.6	
593.05	4444.1	
593.24	6272.9	
593.43	7023.2	
593.62	4456.4	
593.81	5020.3	
594	6236.7	
594.19	6440.9	
594.39	4380.6	
594.58	4387.4	
594.77	6590.4	
594.96	7247.1	
595.15	4345.8	
595.34	5007.3	
595.54	6707.1	
595.73	5840.1	
595.92	3764.2	
596.11	4948.6	
596.3	7191.8	
596.49	5870.8	
596.68	4734.2	
596.88	5134.3	
597.07	6909.2	
597.26	5657.2	
597.45	4217.5	
597.64	5442.1	
597.83	5910.4	
598.02	6574.7	
598.22	4289.8	
598.41	4977.2	
598.6	6387.6	
598.79	5787.6	
598.98	4367.6	
599.17	5283.1	
599.36	6397.2	
599.55	7563.8	
599.74	6405.4	
599.94	6163.7	
600.13	6942.6	
600.32	5802.6	
600.51	4090.5	
600.7	4189.5	
600.89	7645.7	
601.08	7593.2	
601.27	4036.5	
601.47	5003.2	
601.66	6963.1	
601.85	7544	
602.04	4704.2	
602.23	4999.8	
602.42	5930.9	
602.61	6520	
602.8	4691.2	
602.99	4485.1	
603.18	6261.3	
603.37	6546.7	
603.57	5144.5	
603.76	5662	
603.95	7353.6	
604.14	6855.2	
604.33	4535.6	
604.52	4851	
604.71	6488.6	
604.9	6083.8	
605.09	5449.6	
605.28	5315.8	
605.47	7100.3	
605.66	6734.4	
605.86	5088.5	
606.05	4505.5	
606.24	7178.8	
606.43	5578	
606.62	4878.3	
606.81	5617.6	
607	6974.7	
607.19	6300.9	
607.38	4344.4	
607.57	4561.5	
607.76	6081.8	
607.95	5537	
608.14	4990.9	
608.33	5586.2	
608.52	6045.6	
608.72	6957.6	
608.91	4261.1	
609.1	4091.2	
609.29	6187.6	
609.48	5647.6	
609.67	5320.6	
609.86	4265.9	
610.05	5846.3	
610.24	6161	
610.43	4064.5	
610.62	3768.3	
610.81	7343.3	
611	6948.1	
611.19	4192.2	
611.38	5039.4	
611.57	6394.4	
611.76	7847.8	
611.95	3998.3	
612.14	3891.8	
612.33	6283.2	
612.52	5750.7	
612.71	4567.7	
612.9	3717.1	
613.09	5321.3	
613.28	7755.7	
613.47	4284.4	
613.66	5268.1	
613.85	6381.5	
614.04	5891.3	
614.24	4383.3	
614.43	3676.8	
614.62	6547.4	
614.81	6434	
615	4952	
615.19	4975.9	
615.38	5793	
615.57	6088.6	
615.76	4798.4	
615.95	5726.8	
616.14	6479.8	
616.33	6180.1	
616.52	5118.6	
616.71	5476.3	
616.9	6452.5	
617.09	6235.4	
617.28	4405.9	
617.47	5720	
617.66	5523.4	
617.85	5578.7	
618.04	5382.7	
618.22	4844.1	
618.41	5854.5	
618.6	6678.4	
618.79	4713.7	
618.98	4319.2	
619.17	7005.4	
619.36	5380	
619.55	4484.4	
619.74	4508.9	
619.93	6324.1	
620.12	5685.8	
620.31	5068	
620.5	5208.7	
620.69	6866.2	
620.88	7169.3	
621.07	5881.1	
621.26	4876.9	
621.45	6358.3	
621.64	6424.5	
621.83	4998.4	
622.02	4178.5	
622.21	6460	
622.4	6182.1	
622.59	5528.8	
622.78	5313.8	
622.97	5713.8	
623.16	6833.4	
623.35	4860.5	
623.54	4082.3	
623.72	5922	
623.91	6153.5	
624.1	5153.4	
624.29	3861.8	
624.48	7260.7	
624.67	6469.5	
624.86	5059.8	
625.05	4031.8	
625.24	7327.6	
625.43	5627.1	
625.62	6781.5	
625.81	4232.5	
626	6681.2	
626.19	5943.2	
626.38	5069.4	
626.56	4477.5	
626.75	5799.8	
626.94	6533.7	
627.13	5051	
627.32	3779.9	
627.51	6475	
627.7	7925.6	
627.89	3990.1	
628.08	5165.7	
628.27	5683.1	
628.46	5925.5	
628.65	4315.8	
628.83	3863.2	
629.02	6503.7	
629.21	5698.1	
629.4	4674.8	
629.59	4892.6	
629.78	5670.1	
629.97	6653.2	
630.16	4896.7	
630.35	4395.6	
630.54	7045	
630.72	6824.5	
630.91	4323.9	
631.1	4977.2	
631.29	6287.9	
631.48	6479.1	
631.67	5051.7	
631.86	4540.3	
632.05	5793.7	
632.24	5946.6	
632.42	4156.7	
632.61	4690.5	
632.8	6029.9	
632.99	5700.9	
633.18	4724	
633.37	5204.6	
633.56	6237.4	
633.75	6043.6	
633.93	4745.8	
634.12	4401.1	
634.31	7009.5	
634.5	6647.7	
634.69	4412.7	
634.88	5051	
635.07	5988.9	
635.25	6645	
635.44	5403.2	
635.63	5564.3	
635.82	5881.8	
636.01	5376.6	
636.2	5365.7	
636.39	4830.5	
636.57	7075.7	
636.76	6718	
636.95	4274.8	
637.14	5720.7	
637.33	6372.6	
637.52	7350.2	
637.7	4071.4	
637.89	5059.2	
638.08	5938.4	
638.27	7509.9	
638.46	5174.5	
638.65	5664.7	
638.83	7467.6	
639.02	5753.4	
639.21	5115.1	
639.4	5550	
639.59	6320.7	
639.78	5886.5	
639.96	4381.3	
640.15	4383.3	
640.34	6180.8	
640.53	6337.1	
640.72	4111.6	
640.91	4456.4	
641.09	5653.8	
641.28	7046.4	
641.47	4505.5	
641.66	5349.3	
641.85	6382.8	
642.03	6616.3	
642.22	5148.6	
642.41	4633.9	
642.6	5757.5	
642.79	5187.5	
642.97	4390.2	
643.16	5178.6	
643.35	5826.5	
643.54	5603.9	
643.73	4292.5	
643.91	5250.3	
644.1	5476.3	
644.29	6073.6	
644.48	4458.4	
644.67	4503.5	
644.85	5802.6	
645.04	6094.1	
645.23	4059.8	
645.42	4409.3	
645.6	5606	
645.79	6852.5	
645.98	4504.8	
646.17	3528.7	
646.36	5501.5	
646.54	6103.6	
646.73	5405.3	
646.92	4160.8	
647.11	5758.9	
647.29	6842.3	
647.48	4241.3	
647.67	4071.4	
647.86	7133.8	
648.05	7117.4	
648.23	4629.1	
648.42	5900.9	
648.61	6415.6	
648.8	6181.5	
648.98	4222.9	
649.17	4545.8	
649.36	5745.9	
649.55	5244.2	
649.73	4278.9	
649.92	5038.7	
650.11	5631.9	
650.3	6006.7	
650.48	4487.8	
650.67	4115.1	
650.86	6330.3	
651.05	5224.4	
651.23	4425.7	
651.42	4399	
651.61	5787.6	
651.79	5912.5	
651.98	4586.8	
652.17	4261.8	
652.36	6264.7	
652.54	5342.5	
652.73	4246.1	
652.92	4076.1	
653.11	6297.5	
653.29	6353.5	
653.48	3528	
653.67	4687.8	
653.85	6171.2	
654.04	7247.8	
654.23	4883.7	
654.42	4435.9	
654.6	5741.1	
654.79	6365.8	
654.98	3988.1	
655.16	4522.6	
655.35	5388.9	
655.54	5277.6	
655.73	4072.7	
655.91	3921.9	
656.1	6535.1	
656.29	5263.3	
656.47	3601	
656.66	5346.6	
656.85	5540.4	
657.03	5517.2	
657.22	4046.8	
657.41	4161.5	
657.59	5606	
657.78	5335	
657.97	3702.7	
658.16	4525.3	
658.34	6244.3	
658.53	6632.7	
658.72	5422.3	
658.9	5907	
659.09	5610.1	
659.28	5739.8	
659.46	4136.9	
659.65	4116.4	
659.84	5515.9	
660.02	5958.9	
660.21	3994.2	
660.4	3953.9	
660.58	6490.7	
660.77	5780.1	
660.96	4562.2	
661.14	3654.9	
661.33	6935.8	
661.52	6804	
661.7	3565.5	
661.89	7360.4	
662.08	5477.6	
662.26	5013.4	
662.45	3918.4	
662.64	4044.1	
662.82	6119.3	
663.01	5346.6	
663.2	4107.5	
663.38	4821.6	
663.57	6036	
663.75	5928.9	
663.94	4384.7	
664.13	5712.5	
664.31	5376.6	
664.5	6101.6	
664.69	4602.5	
664.87	5250.3	
665.06	5161.6	
665.25	5945.3	
665.43	5393	
665.62	5546.6	
665.8	6245.6	
665.99	5511.8	
666.18	4420.2	
666.36	4547.2	
666.55	6248.4	
666.74	6151.4	
666.92	4022.2	
667.11	5743.2	
667.29	5600.5	
667.48	6199.2	
667.67	5319.3	
667.85	4488.5	
668.04	5639.4	
668.22	5631.9	
668.41	4534.9	
668.6	4642.1	
668.78	5439.4	
668.97	5649	
669.15	4911.7	
669.34	3786.7	
669.53	5441.5	
669.71	5787.6	
669.9	4074.8	
670.08	4704.9	
670.27	5380.7	
670.46	6022.4	
670.64	4909	
670.83	5128.1	
671.01	5252.4	
671.2	6029.2	
671.38	4058.4	
671.57	4037.2	
671.76	6587	
671.94	7124.9	
672.13	3915	
672.31	5072.1	
672.5	6154.8	
672.69	5451	
672.87	4088.4	
673.06	4395.6	
673.24	5965.1	
673.43	5442.1	
673.61	4899.4	
673.8	4400.4	
673.98	6227.2	
674.17	6377.4	
674.36	4956.8	
674.54	4826.4	
674.73	5922.7	
674.91	6222.4	
675.1	4526.7	
675.28	4132.8	
675.47	5659.9	
675.65	6233.3	
675.84	4326.7	
676.03	4675.5	
676.21	5496.7	
676.4	4953.4	
676.58	5197.1	
676.77	4899.4	
676.95	6995.2	
677.14	5402.5	
677.32	4096.6	
677.51	3827.7	
677.69	6229.9	
677.88	5023.7	
678.06	3928.7	
678.25	4062.5	
678.44	5751.4	
678.62	5420.3	
678.81	3761.4	
678.99	4717.8	
679.18	6607.4	
679.36	6089.3	
679.55	4318.5	
679.73	5001.8	
679.92	6090.7	
680.1	5412.8	
680.29	5621	
680.47	4361.5	
680.66	5421	
680.84	6291.4	
681.03	3661.1	
681.21	4674.1	
681.4	5457.8	
681.58	5366.4	
681.77	4113	
681.95	4038.6	
682.14	6343.2	
682.32	6782.2	
682.51	5008	
682.69	3822.2	
682.88	5408.7	
683.06	6195.1	
683.25	4743.1	
683.43	5255.1	
683.62	5705.6	
683.8	6128.9	
683.99	5294.7	
684.17	4666.6	
684.36	7137.2	
684.54	5680.4	
684.73	3827	
684.91	4090.5	
685.1	6141.9	
685.28	5509.7	
685.46	4773.8	
685.65	4826.4	
685.83	6424.5	
686.02	5743.9	
686.2	4206.5	
686.39	4385.4	
686.57	5567.7	
686.76	7004.1	
686.94	4194.9	
687.13	4400.4	
687.31	6175.3	
687.5	5643.5	
687.68	3737.5	
687.86	5093.3	
688.05	7330.4	
688.23	5092.6	
688.42	5092.6	
688.6	4175.1	
688.79	5563.6	
688.97	5546.6	
689.16	4608.6	
689.34	3489.7	
689.52	6304.3	
689.71	6552.1	
689.89	4883	
690.08	4182	
690.26	5790.3	
690.45	5714.5	
690.63	5130.2	
690.81	4323.9	
691	5556.1	
691.18	5423.7	
691.37	4513.7	
691.55	6810.2	
691.74	5418.9	
691.92	7524.2	
692.1	4548.5	
692.29	3929.4	
692.47	5723.4	
692.66	4993.6	
692.84	4097.3	
693.02	4855.7	
693.21	5138.4	
693.39	5638.7	
693.58	4762.9	
693.76	4216.8	
693.94	6804	
694.13	6535.8	
694.31	4110.3	
694.5	5210	
694.68	5371.1	
694.86	5663.3	
695.05	4442	
695.23	4947.2	
695.42	6024.4	
695.6	8381	
695.78	5065.3	
695.97	4195.6	
696.15	6033.3	
696.34	5471.5	
696.52	3884.3	
696.7	4782.7	
696.89	5895.4	
697.07	5362.9	
697.25	4740.4	
697.44	6273.6	
697.62	5863.3	
697.81	6244.9	
697.99	4477.5	
698.17	4911.7	
698.36	5224.4	
698.54	5954.8	
698.72	4797.7	
698.91	3649.5	
699.09	5480.4	
699.28	5362.9	
699.46	4440	
699.64	4325.3	
699.83	5243.5	
700.01	6615.6	
700.19	5080.3	
700.38	3480.9	
700.56	6435.4	
700.74	5399.1	
700.93	3846.1	
701.11	4744.5	
701.29	5958.9	
701.48	6962.4	
701.66	4047.5	
701.84	4116.4	
702.03	5457.8	
702.21	6077.7	
702.39	3646.7	
702.58	4278.9	
702.76	5827.8	
702.94	5976	
703.13	3672	
703.31	6225.1	
703.49	5177.3	
703.68	6672.3	
703.86	3847.5	
704.04	4921.3	
704.23	5713.2	
704.41	6069.5	
704.59	4050.2	
704.78	5365	
704.96	6765.1	
705.14	6093.4	
705.33	3776.5	
705.51	4721.9	
705.69	5513.1	
705.87	6430.6	
706.06	4982.7	
706.24	3708.9	
706.42	5745.2	
706.61	6102.3	
706.79	4966.3	
706.97	3859.1	
707.16	5286.5	
707.34	5914.5	
707.52	4980	
707.7	4044.1	
707.89	5527.5	
708.07	5077.6	
708.25	4945.8	
708.44	5087.8	
708.62	5366.4	
708.8	6497.5	
708.98	5335	
709.17	4133.5	
709.35	5780.7	
709.53	5797.8	
709.72	3893.2	
709.9	4018.8	
710.08	6036	
710.26	6084.5	
710.45	5530.9	
710.63	4155.3	
710.81	5791	
710.99	5739.1	
711.18	4884.4	
711.36	4348.5	
711.54	5565.7	
711.72	6337.1	
711.91	4460.5	
712.09	3855.6	
712.27	5903.6	
712.45	6556.9	
712.64	4832.5	
712.82	3749.8	
713	5288.5	
713.18	5541.1	
713.37	4001.7	
713.55	5310.4	
713.73	6476.4	
713.91	5044.1	
714.1	4530.1	
714.28	4056.3	
714.46	6292.7	
714.64	5468.8	
714.83	3523.2	
715.01	4422.2	
715.19	5671.5	
715.37	5061.9	
715.55	4212	
715.74	4537.6	
715.92	6649.8	
716.1	4638	
716.28	5693.4	
716.47	4757.4	
716.65	5367.7	
716.83	5439.4	
717.01	4483.7	
717.19	4665.3	
717.38	7599.3	
717.56	5091.3	
717.74	4810.7	
717.92	3897.3	
718.1	6391	
718.29	5496.1	
718.47	3486.3	
718.65	4080.9	
718.83	6113.9	
719.01	6047.7	
719.2	3209.8	
719.38	4367.6	
719.56	5694	
719.74	7305.8	
719.92	3876.1	
720.11	5066.7	
720.29	5776	
720.47	4962.2	
720.65	3566.2	
720.83	4514.4	
721.02	5369.1	
721.2	5098.1	
721.38	4573.8	
721.56	3821.5	
721.74	4674.1	
721.92	4907.6	
722.11	5094.7	
722.29	4820.9	
722.47	6188.3	
722.65	5320.6	
722.83	3876.8	
723.01	4832.5	
723.2	5403.2	
723.38	5632.6	
723.56	3208.5	
723.74	4565.6	
723.92	4889.9	
724.1	6118.6	
724.29	3797.6	
724.47	5044.1	
724.65	4983.4	
724.83	4838	
725.01	3658.4	
725.19	4566.3	
725.37	4982	
725.56	5070.1	
725.74	3528	
725.92	3769.6	
726.1	4872.1	
726.28	5258.5	
726.46	4280.9	
726.64	3975.1	
726.83	5174.5	
727.01	5472.2	
727.19	3537.5	
727.37	4438.6	
727.55	5339.7	
727.73	5812.1	
727.91	3495.2	
728.09	3373.7	
728.28	5858.6	
728.46	6494.1	
728.64	4549.9	
728.82	4369.7	
729	6966.5	
729.18	6169.8	
729.36	3601.7	
729.54	5968.5	
729.72	7173.4	
729.91	5370.5	
730.09	5589.6	
730.27	4210.6	
730.45	5220.3	
730.63	5949.3	
730.81	4834.6	
730.99	3867.9	
731.17	6408.8	
731.35	4987.5	
731.53	4403.8	
731.71	3982.6	
731.9	6156.2	
732.08	6366.5	
732.26	4284.4	
732.44	3914.4	
732.62	6445.6	
732.8	5859.2	
732.98	4717.8	
733.16	3760.8	
733.34	5898.1	
733.52	4665.3	
733.7	4280.9	
733.88	4522.6	
734.07	5752.7	
734.25	5518.6	
734.43	3728.7	
734.61	5310.4	
734.79	6990.4	
734.97	5335	
735.15	3829.7	
735.33	4202.4	
735.51	5787.6	
735.69	5430.5	
735.87	5705.6	
736.05	4449.6	
736.23	5552.7	
736.41	5324.7	
736.59	4278.2	
736.77	4402.5	
736.95	6057.9	
737.13	5479	
737.32	3904.8	
737.5	4110.3	
737.68	6623.1	
737.86	5271.5	
738.04	3710.2	
738.22	5726.8	
738.4	5180	
738.58	5469.4	
738.76	4436.6	
738.94	3302.7	
739.12	5275.6	
739.3	5176.6	
739.48	5033.9	
739.66	4773.8	
739.84	5550.7	
740.02	5489.2	
740.2	3425.6	
740.38	3859.7	
740.56	6008.1	
740.74	4760.2	
740.92	4491.2	
741.1	4439.3	
741.28	5356.1	
741.46	5222.3	
741.64	4024.3	
741.82	4607.2	
742	5455.8	
742.18	5436	
742.36	4278.9	
742.54	3813.3	
742.72	6039.5	
742.9	4747.2	
743.08	4737	
743.26	3451.5	
743.44	6253.1	
743.62	6038.1	
743.8	4829.1	
743.98	3885	
744.16	5797.8	
744.34	5545.9	
744.52	4770.4	
744.7	4696	
744.88	5975.3	
745.06	5427.1	
745.24	4844.1	
745.42	4975.2	
745.6	6084.5	
745.78	5829.9	
745.96	3652.2	
746.14	3999.7	
746.32	6861.4	
746.5	6069.5	
746.68	4592.9	
746.86	4052.9	
747.03	6535.1	
747.21	4818.9	
747.39	4620.2	
747.57	3980.6	
747.75	5740.5	
747.93	6152.1	
748.11	4046.8	
748.29	3986	
748.47	7407.5	
748.65	5493.3	
748.83	4811.4	
749.01	4454.3	
749.19	5961	
749.37	5080.3	
749.55	4414.7	
749.73	4455	
749.91	5614.8	
750.09	5346.6	
750.26	4513	
750.44	3910.9	
750.62	5664	
750.8	5651.7	
750.98	3740.3	
751.16	4065.2	
751.34	5710.4	
751.52	5010.7	
751.7	5003.9	
751.88	3666.5	
752.06	6229.2	
752.24	5998.5	
752.42	3656.3	
752.59	4056.3	
752.77	5601.9	
752.95	6894.8	
753.13	4815.5	
753.31	4203.8	
753.49	5297.4	
753.67	5752.7	
753.85	4554	
754.03	4157.4	
754.21	6092.7	
754.38	6445.6	
754.56	4323.3	
754.74	3376.4	
754.92	5377.3	
755.1	6140.5	
755.28	3524.6	
755.46	3590.1	
755.64	7065.5	
755.82	7298.3	
755.99	3994.2	
756.17	4199.7	
756.35	4730.8	
756.53	6434	
756.71	3086.3	
756.89	4063.2	
757.07	6028.5	
757.25	5040.1	
757.42	4575.8	
757.6	5432.6	
757.78	5929.6	
757.96	4891.9	
758.14	4186.7	
758.32	3672	
758.5	4460.5	
758.67	5314.5	
758.85	4043.4	
759.03	4148.5	
759.21	5578	
759.39	4949.9	
759.57	3598.3	
759.75	4786.8	
759.92	6149.4	
760.1	5395.7	
760.28	5190.2	
760.46	5461.9	
760.64	5132.2	
760.82	4801.1	
760.99	4929.5	
761.17	4017.4	
761.35	5909.8	
761.53	4835.9	
761.71	4148.5	
761.89	4861.9	
762.06	5786.9	
762.24	5266.7	
762.42	4145.8	
762.6	3960.8	
762.78	5251.7	
762.96	5911.8	
763.13	4517.8	
763.31	4183.3	
763.49	6139.8	
763.67	5194.3	
763.85	5061.9	
764.02	5715.9	
764.2	6348	
764.38	5503.6	
764.56	4104.1	
764.74	5018.9	
764.91	6492.7	
765.09	5330.2	
765.27	3834.5	
765.45	3607.8	
765.63	6525.5	
765.8	6425.8	
765.98	3295.9	
766.16	3671.3	
766.34	4924	
766.52	4678.2	
766.69	4668	
766.87	3494.5	
767.05	5345.2	
767.23	6126.8	
767.41	3893.9	
767.58	4154.6	
767.76	5961	
767.94	6068.8	
768.12	3998.3	
768.29	4777.9	
768.47	5507.7	
768.65	6175.3	
768.83	3566.9	
769	4825.7	
769.18	4972.5	
769.36	5856.5	
769.54	4637.3	
769.72	3653.6	
769.89	6110.5	
770.07	6228.6	
770.25	4003.8	
770.43	5358.9	
770.6	6886.6	
770.78	7278.5	
770.96	4189.5	
771.14	4911	
771.31	6031.3	
771.49	5317.2	
771.67	3358.7	
771.85	3624.9	
772.02	4565.6	
772.2	5416.9	
772.38	4356	
772.55	3861.1	
772.73	5661.3	
772.91	5374.6	
773.09	4347.2	
773.26	4386.7	
773.44	5568.4	
773.62	5369.8	
773.8	3743	
773.97	3510.9	
774.15	5724.8	
774.33	5340.4	
774.5	3695.2	
774.68	4106.2	
774.86	5944.6	
775.04	5359.5	
775.21	3788.1	
775.39	3816	
775.57	5622.4	
775.74	6083.1	
775.92	3696.6	
776.1	3571	
776.27	5630.5	
776.45	6886	
776.63	3833.8	
776.81	3367.5	
776.98	5280.3	
777.16	6453.1	
777.34	3985.3	
777.51	3975.8	
777.69	5274.9	
777.87	5048.2	
778.04	4004.5	
778.22	4741	
778.4	5082.4	
778.57	5812.8	
778.75	3268.6	
778.93	3663.1	
779.1	4886.5	
779.28	4791.6	
779.46	3339.6	
779.64	3902.1	
779.81	5914.5	
779.99	6941.9	
780.17	4705.5	
780.34	4861.2	
780.52	5402.5	
780.69	5569.8	
780.87	4230.4	
781.05	3761.4	
781.22	5502.2	
781.4	5543.9	
781.58	3868.6	
781.75	3069.2	
781.93	5549.3	
782.11	4851	
782.28	4849.6	
782.46	3921.2	
782.64	4733.5	
782.81	5803.9	
782.99	3992.9	
783.17	3994.9	
783.34	5608	
783.52	4777.9	
783.69	4218.8	
783.87	5082.4	
784.05	4995	
784.22	4967	
784.4	5067.4	
784.58	4278.9	
784.75	5864.7	
784.93	4930.1	
785.1	3955.3	
785.28	4637.3	
785.46	5635.3	
785.63	4889.2	
785.81	3949.2	
785.99	3754.6	
786.16	5099.4	
786.34	5498.8	
786.51	3903.4	
786.69	4188.1	
786.87	4739	
787.04	5238	
787.22	3660.4	
787.39	4771.8	
787.57	4947.2	
787.75	6102.3	
787.92	4828.4	
788.1	4849.6	
788.27	4992.3	
788.45	4810	
788.63	4513.7	
788.8	3163.4	
788.98	5367.7	
789.15	4735.6	
789.33	3364.8	
789.5	4062.5	
789.68	5956.2	
789.86	6012.8	
790.03	4529.4	
790.21	3872	
790.38	5930.9	
790.56	5084.4	
790.73	3736.2	
790.91	3743	
791.09	5009.3	
791.26	5827.2	
791.44	3902.1	
791.61	3425.6	
791.79	4948.6	
791.96	5051.7	
792.14	3550.5	
792.32	3093.8	
792.49	5009.3	
792.67	5089.9	
792.84	3622.9	
793.02	3414	
793.19	5454.4	
793.37	6247.7	
793.54	3136.1	
793.72	3443.3	
793.89	6354.8	
794.07	4976.6	
794.25	4166.3	
794.42	3233.1	
794.6	6120	
794.77	5681.7	
794.95	4414.1	
795.12	3825.6	
795.3	4985.4	
795.47	5745.2	
795.65	4234.5	
795.82	4030.4	
796	4795.7	
796.17	6924.2	
796.35	3948.5	
796.52	4674.8	
796.7	5578.7	
796.87	5628.5	
797.05	4914.4	
797.22	4820.2	
797.4	5633.3	
797.57	6724.8	
797.75	4076.1	
797.92	3775.1	
798.1	6011.5	
798.27	5002.5	
798.45	3282.2	
798.62	3522.5	
798.8	5332.9	
798.97	5844.2	
799.15	4345.8	
799.32	4132.8	
799.5	4567	
799.67	5427.1	
799.85	4425.7	
800.02	3208.5	
800.2	4987.5	
800.37	5297.4	
800.55	4630.5	
800.72	3863.2	
800.9	5840.8	
801.07	6240.8	
801.25	5251	
801.42	4220.9	
801.6	5860.6	
801.77	5554.8	
801.95	3992.2	
802.12	3736.2	
802.29	5552	
802.47	5540.4	
802.64	4275.5	
802.82	3121.1	
802.99	4975.9	
803.17	5997.1	
803.34	4096.6	
803.52	3631	
803.69	6759	
803.87	4814.8	
804.04	4080.9	
804.21	4166.9	
804.39	6169.8	
804.56	5160.9	
804.74	3418.7	
804.91	4311	
805.09	5018.9	
805.26	5187.5	
805.44	3512.9	
805.61	3917.8	
805.78	5723.4	
805.96	5709.1	
806.13	4276.2	
806.31	4632.5	
806.48	4561.5	
806.66	5141.8	
806.83	4211.3	
807	4126	
807.18	5027.1	
807.35	5408.7	
807.53	4158.1	
807.7	3335.5	
807.87	6182.8	
808.05	5139	
808.22	4589.5	
808.4	3333.4	
808.57	5111.7	
808.74	4704.2	
808.92	3775.8	
809.09	4866	
809.27	4920.6	
809.44	5618.9	
809.61	3350.5	
809.79	3678.2	
809.96	6264.1	
810.14	5881.8	
810.31	3270.6	
810.48	4021.5	
810.66	5189.6	
810.83	6000.5	
811.01	3829.7	
811.18	4273.4	
811.35	5817.6	
811.53	4514.4	
811.7	4634.6	
811.87	4191.5	
812.05	5085.1	
812.22	5018.2	
812.39	3631	
812.57	3566.9	
812.74	5166.3	
812.92	6864.1	
813.09	3972.4	
813.26	4398.4	
813.44	6574	
813.61	4992.3	
813.78	3333.4	
813.96	4442	
814.13	5085.1	
814.3	4763.6	
814.48	4830.5	
814.65	3988.1	
814.82	6348.7	
815	4925.4	
815.17	4060.4	
815.34	5027.8	
815.52	5005.9	
815.69	4982.7	
815.87	4148.5	
816.04	3531.4	
816.21	5132.9	
816.38	4442	
816.56	3911.6	
816.73	3637.9	
816.9	6502.3	
817.08	5856.5	
817.25	3743	
817.42	4701.5	
817.6	4646.8	
817.77	5118.6	
817.94	4224.3	
818.12	3667.2	
818.29	4806.6	
818.46	7740.6	
818.64	3844.7	
818.81	3578.5	
818.98	4781.3	
819.16	7017	
819.33	4437.9	
819.5	4119.1	
819.67	5464	
819.85	6191.7	
820.02	4031.1	
820.19	4274.8	
820.37	5300.1	
820.54	4898.1	
820.71	4190.1	
820.88	5198.4	
821.06	5343.2	
821.23	4886.5	
821.4	4199	
821.58	4104.1	
821.75	5812.1	
821.92	5330.2	
822.09	3310.9	
822.27	3449.5	
822.44	5122.7	
822.61	5018.2	
822.79	3363.4	
822.96	6511.2	
823.13	5666	
823.3	4836.6	
823.48	3872	
823.65	3517	
823.82	5849.7	
823.99	4670.7	
824.17	4990.2	
824.34	3565.5	
824.51	6692.1	
824.68	5200.5	
824.86	3741.6	
825.03	4184.7	
825.2	5077.6	
825.37	6262	
825.55	3682.9	
825.72	4124.6	
825.89	6793.1	
826.06	6338.5	
826.24	3979.9	
826.41	4037.2	
826.58	6283.9	
826.75	5416.9	
826.92	3126.6	
827.1	3509.5	
827.27	8534.6	
827.44	6755.6	
827.61	3794.9	
827.79	4618.9	
827.96	4802.5	
828.13	5211.4	
828.3	4008.6	
828.47	3364.8	
828.65	5315.2	
828.82	5285.1	
828.99	5143.1	
829.16	4558.1	
829.34	5728.2	
829.51	5484.5	
829.68	4177.2	
829.85	4300.1	
830.02	5980.1	
830.2	5773.9	
830.37	3191.4	
830.54	5005.9	
830.71	6539.8	
830.88	5086.5	
831.05	3234.4	
831.23	3760.1	
831.4	6207.4	
831.57	7066.2	
831.74	3793.5	
831.91	3375.1	
832.09	5372.5	
832.26	5735	
832.43	3982.6	
832.6	4504.2	
832.77	5352.7	
832.94	6144.6	
833.12	3074.7	
833.29	3979.9	
833.46	5499.5	
833.63	7278.5	
833.8	4331.5	
833.97	4032.5	
834.15	5724.1	
834.32	5492	
834.49	4132.8	
834.66	4290.5	
834.83	5947.3	
835	4816.1	
835.17	3805.8	
835.35	3821.5	
835.52	5655.8	
835.69	5560.9	
835.86	4063.9	
836.03	3259.7	
836.2	5649	
836.37	5297.4	
836.55	3988.8	
836.72	3796.9	
836.89	5324.7	
837.06	5722.7	
837.23	4102.1	
837.4	4434.5	
837.57	6627.9	
837.75	7295.5	
837.92	3605.1	
838.09	3876.1	
838.26	5225.7	
838.43	5974.6	
838.6	4116.4	
838.77	3754.6	
838.94	6908.5	
839.11	6662	
839.29	4016.7	
839.46	3128.6	
839.63	5672.2	
839.8	5462.6	
839.97	3855.6	
840.14	3863.2	
840.31	5485.1	
840.48	5730.2	
840.65	3205.1	
840.82	3795.6	
841	5693.4	
841.17	5687.9	
841.34	3514.3	
841.51	3622.9	
841.68	5610.1	
841.85	5365.7	
842.02	3693.2	
842.19	3004.4	
842.36	5429.8	
842.53	5477	
842.7	3532.1	
842.87	4365.6	
843.05	7258.7	
843.22	5368.4	
843.39	3355.3	
843.56	3623.5	
843.73	5152.7	
843.9	5749.3	
844.07	5797.8	
844.24	4755.4	
844.41	8565.3	
844.58	4894.6	
844.75	3382.6	
844.92	3753.9	
845.09	5689.3	
845.26	5691.3	
845.43	3501.3	
845.6	3760.8	
845.77	5750.7	
845.94	5429.2	
846.12	3942.3	
846.29	4171.7	
846.46	5945.3	
846.63	5726.8	
846.8	3616	
846.97	4169.7	
847.14	6193.1	
847.31	5622.4	
847.48	3985.3	
847.65	4360.1	
847.82	5975.3	
847.99	5917.9	
848.16	4748.6	
848.33	4345.8	
848.5	5209.3	
848.67	6215.6	
848.84	3478.1	
849.01	3654.9	
849.18	5131.5	
849.35	4737.6	
849.52	4431.8	
849.69	3450.8	
849.86	5886.5	
850.03	6178.7	
850.2	3532.7	
850.37	4443.4	
850.54	6158.2	
850.71	5349.3	
850.88	4270.7	
851.05	3489.1	
851.22	5638.1	
851.39	6313.2	
851.56	3284.3	
851.73	4004.5	
851.9	4991.6	
852.07	5910.4	
852.24	3933.5	
852.41	3536.8	
852.58	5552	
852.75	5087.2	
852.92	3975.8	
853.09	3406.5	
853.26	5301.5	
853.43	6185.5	
853.6	3435.8	
853.77	3005.7	
853.94	6292	
854.11	5616.9	
854.28	5248.3	
854.44	3745.7	
854.61	6741.9	
854.78	5762.3	
854.95	3545	
855.12	4455.7	
855.29	4587.4	
855.46	6374	
855.63	3497.2	
855.8	4932.2	
855.97	5254.4	
856.14	6077	
856.31	5031.9	
856.48	3878.9	
856.65	5240.1	
856.82	4992.3	
856.99	3335.5	
857.16	3764.2	
857.33	6977.4	
857.49	5329.5	
857.66	3799	
857.83	4104.1	
858	5357.5	
858.17	5534.3	
858.34	3323.2	
858.51	3467.9	
858.68	6412.2	
858.85	6419	
859.02	4066.6	
859.19	4306.2	
859.36	4973.8	
859.52	5041.4	
859.69	3583.3	
859.86	4126	
860.03	5096.7	
860.2	6317.3	
860.37	3167.5	
860.54	3537.5	
860.71	5935.7	
860.88	6427.2	
861.05	3960.1	
861.21	4431.8	
861.38	6369.2	
861.55	4885.8	
861.72	3231	
861.89	3904.8	
862.06	6081.8	
862.23	6566.5	
862.4	3426.9	
862.56	3709.6	
862.73	5868.8	
862.9	5505.6	
863.07	4181.3	
863.24	3180.5	
863.41	4833.9	
863.58	4986.1	
863.75	3623.5	
863.91	4078.9	
864.08	6344.6	
864.25	5893.4	
864.42	4432.5	
864.59	4954	
864.76	6657.3	
864.93	4946.5	
865.09	3462.4	
865.26	3731.4	
865.43	6199.2	
865.6	6551.5	
865.77	3030.3	
865.94	3491.8	
866.1	6253.8	
866.27	5999.2	
866.44	5377.3	
866.61	3306.8	
866.78	5406.6	
866.95	5881.1	
867.11	3394.8	
867.28	3120.4	
867.45	6026.5	
867.62	5043.5	
867.79	4121.2	
867.96	3495.9	
868.12	4987.5	
868.29	6012.8	
868.46	3526.6	
868.63	4725.3	
868.8	6135.7	
868.97	5915.2	
869.13	3679.5	
869.3	3666.5	
869.47	5858.6	
869.64	6010.8	
869.81	3563.5	
869.97	3542.3	
870.14	5751.4	
870.31	6403.3	
870.48	3434.4	
870.65	4526	
870.81	5312.4	
870.98	5296	
871.15	4047.5	
871.32	3627.6	
871.48	5795.1	
871.65	6472.3	
871.82	3504.1	
871.99	3846.1	
872.16	6905.1	
872.32	6209.4	
872.49	3473.4	
872.66	3551.2	
872.83	6006	
872.99	5216.2	
873.16	4044.7	
873.33	3480.9	
873.5	5615.5	
873.67	5582.1	
873.83	3702	
874	4708.3	
874.17	5797.8	
874.34	6829.3	
874.5	4573.1	
874.67	4451.6	
874.84	6448.4	
875.01	5020.3	
875.17	5036.6	
875.34	3514.3	
875.51	5621.7	
875.68	6807.4	
875.84	4264.6	
876.01	5251.7	
876.18	5928.2	
876.34	5842.2	
876.51	3574.4	
876.68	3433.8	
876.85	5356.1	
877.01	6219	
877.18	5035.3	
877.35	3524.6	
877.52	5504.3	
877.68	4933.6	
877.85	3442.6	
878.02	3526.6	
878.18	5496.1	
878.35	5208	
878.52	2781.1	
878.69	3936.9	
878.85	5946.6	
879.02	5907.7	
879.19	5072.1	
879.35	3792.8	
879.52	5895.4	
879.69	6140.5	
879.86	3014.6	
880.02	3946.4	
880.19	5433.9	
880.36	6627.2	
880.52	4046.8	
880.69	4177.9	
880.86	5997.1	
881.02	6088.6	
881.19	3833.1	
881.36	3889.1	
881.52	5849	
881.69	5213.4	
881.86	3810.6	
882.02	3675.4	
882.19	6100.2	
882.36	7244.3	
882.52	3611.9	
882.69	4992.9	
882.86	5717.2	
883.02	5535	
883.19	4369.7	
883.36	4052.2	
883.52	5997.1	
883.69	6948.1	
883.86	3568.2	
884.02	3193.5	
884.19	5994.4	
884.36	5550.7	
884.52	4009.9	
884.69	3728.7	
884.86	5257.8	
885.02	6688.7	
885.19	3915	
885.36	4120.5	
885.52	5523.4	
885.69	5707.7	
885.86	5132.2	
886.02	4471.4	
886.19	5986.9	
886.35	5487.2	
886.52	3882.3	
886.69	4979.3	
886.85	5055.1	
887.02	6357.6	
887.19	6357.6	
887.35	6357.6	
887.52	6357.6	
887.68	6357.6	
887.85	6357.6	
888.02	6357.6	
888.18	6357.6	
888.35	6357.6	
888.51	6357.6	
888.68	6357.6	
888.85	6357.6	
889.01	6357.6	
889.18	6357.6	
889.35	6357.6	
889.51	6357.6	
889.68	6357.6	
889.84	6357.6	
890.01	6357.6	
890.17	6357.6	
890.34	6357.6	
890.51	6357.6	
890.67	6357.6	
890.84	6357.6	
891	6357.6	
891.17	6357.6	
891.34	6357.6	
891.5	6357.6	
891.67	6357.6	
891.83	6357.6	
892	6357.6	
892.16	6357.6	
892.33	6357.6	
892.5	6357.6	
892.66	6357.6	
892.83	6357.6	
892.99	6357.6	
893.16	6357.6	
893.32	6357.6	
893.49	6357.6	
893.65	6357.6	
893.82	6357.6	
893.99	6357.6	
894.15	6357.6	
894.32	6357.6	
894.48	6357.6	
894.65	6357.6	
894.81	6357.6	
894.98	6357.6	
895.14	6357.6	
895.31	6357.6	
895.47	6357.6	
895.64	6357.6	
895.81	6357.6	
895.97	6357.6	
896.14	6357.6	
896.3	6357.6	
896.47	6357.6	
896.63	6357.6	
896.8	6357.6	
896.96	6357.6	
897.13	6357.6	
897.29	6357.6	
897.46	6357.6	
897.62	6357.6	
897.79	6357.6	
897.95	6357.6	
898.12	6357.6	
898.28	6357.6	
898.45	6357.6	
898.61	6357.6	
898.78	6357.6	
898.94	6357.6	
899.11	6357.6	
899.27	6357.6	
899.44	6357.6	
899.6	6357.6	
899.77	6357.6	
899.93	6357.6	
900.1	6357.6	
900.26	6357.6	
900.43	6357.6	
900.59	6357.6	
900.76	6357.6	
900.92	6357.6	
901.09	6357.6	
901.25	6357.6	
901.42	6357.6	
901.58	6357.6	
901.75	6357.6	
901.91	6357.6	
902.07	6357.6	
902.24	6357.6	
902.4	6357.6	
902.57	6357.6	
902.73	6357.6	
902.9	6357.6	
903.06	6357.6	
903.23	6357.6	
903.39	6357.6	
903.56	6357.6	
903.72	6357.6	
903.88	6357.6	
904.05	6357.6	
904.21	6357.6	
904.38	6357.6	
904.54	6357.6	
904.71	6357.6	
904.87	6357.6	
905.03	6357.6	
905.2	6357.6	
905.36	6357.6	
905.53	6357.6	
905.69	6357.6	
905.86	6357.6	
906.02	6357.6	
906.18	6357.6	
906.35	6357.6	
906.51	6357.6	
906.68	6357.6	
906.84	6357.6	
907.01	6357.6	
907.17	6357.6	
907.33	6357.6	
907.5	6357.6	
907.66	6357.6	
907.83	6357.6	
907.99	6357.6	
908.15	6357.6	
908.32	6357.6	
908.48	6357.6	
908.65	6357.6	
908.81	6357.6	
908.97	6357.6	
909.14	6357.6	
909.3	6357.6	
909.47	6357.6	
909.63	6357.6	
909.79	6357.6	
909.96	6357.6	
910.12	6357.6	
910.28	6357.6	
910.45	6357.6	
910.61	6357.6	
910.78	6357.6	
910.94	6357.6	
911.1	6357.6	
911.27	6357.6	
911.43	6357.6	
911.59	6357.6	
911.76	6357.6	
911.92	6357.6	
912.08	6357.6	
912.25	6357.6	
912.41	6357.6	
912.57	6357.6	
912.74	6357.6	
912.9	6357.6	
913.07	6357.6	
913.23	6357.6	
913.39	6357.6	
913.56	6357.6	
913.72	6357.6	
913.88	6357.6	
914.05	6357.6	
914.21	6357.6	
914.37	6357.6	
914.54	6357.6	
914.7	6357.6	
914.86	6357.6	
915.03	6357.6	
915.19	6357.6	
