Wavelength	Intensities	
nm	a.u.	
179.22	1710.4	
179.44	1703.9	
179.65	1716.9	
179.86	1690.9	
180.08	1688.9	
180.29	3930.1	
180.51	3048.1	
180.72	4974.5	
180.94	5553.4	
181.15	2779.1	
181.37	2721.1	
181.58	4859.1	
181.79	5027.1	
182.01	2804.4	
182.22	3039.2	
182.44	5023.7	
182.65	4367.6	
182.87	3659	
183.08	3235.8	
183.29	5326.8	
183.51	4438.6	
183.72	2995.5	
183.94	4135.5	
184.15	4752	
184.37	4702.1	
184.58	2684.9	
184.79	3461.1	
185.01	4487.8	
185.22	5055.1	
185.44	3674.1	
185.65	3237.2	
185.86	4736.3	
186.08	4432.5	
186.29	2652.8	
186.51	2808.4	
186.72	4504.8	
186.94	5122	
187.15	3226.9	
187.36	3281.5	
187.58	6380.8	
187.79	4840	
188.01	3399.6	
188.22	5095.3	
188.43	5652.4	
188.65	4990.2	
188.86	2824.8	
189.08	3318.4	
189.29	4614.1	
189.5	4588.8	
189.72	3078.1	
189.93	3112.9	
190.15	5195	
190.36	5993	
190.57	3265.8	
190.79	3194.1	
191	5162.9	
191.22	5124.7	
191.43	3342.3	
191.64	2834.4	
191.86	5394.3	
192.07	5155.4	
192.29	2920.4	
192.5	3047.4	
192.71	5119.2	
192.93	4572.4	
193.14	3076	
193.35	3070.6	
193.57	4635.9	
193.78	5103.5	
194	2503.3	
194.21	2990	
194.42	4375.1	
194.64	4744.5	
194.85	3302.7	
195.07	3779.2	
195.28	4709	
195.49	4293.2	
195.71	3930.7	
195.92	2822.8	
196.13	4958.8	
196.35	4962.2	
196.56	4134.2	
196.78	3287.7	
196.99	5961	
197.2	5566.4	
197.42	3677.5	
197.63	3302.7	
197.84	4333.5	
198.06	4915.8	
198.27	3083.6	
198.48	3879.5	
198.7	4558.1	
198.91	4736.3	
199.13	3353.9	
199.34	3321.1	
199.55	5147.2	
199.77	4139.6	
199.98	2961.4	
200.19	3330	
200.41	4723.3	
200.62	4410	
200.83	3417.4	
201.05	3599	
201.26	4748.6	
201.47	4515.1	
201.69	2992.1	
201.9	2897.9	
202.11	4770.4	
202.33	5494	
202.54	3085.6	
202.76	3454.2	
202.97	4816.8	
203.18	4817.5	
203.4	3428.3	
203.61	3431.7	
203.82	4828.4	
204.04	4502.8	
204.25	3303.4	
204.46	3254.2	
204.68	4797.7	
204.89	4935.6	
205.1	3214.6	
205.32	2837.8	
205.53	5039.4	
205.74	5199.1	
205.96	2501.3	
206.17	3400.3	
206.38	4995	
206.6	5107	
206.81	3756	
207.02	3080.8	
207.24	4923.3	
207.45	5263.3	
207.66	3151.1	
207.88	2811.2	
208.09	4904.9	
208.3	4741	
208.52	2947.7	
208.73	3229.6	
208.94	4791.6	
209.15	5247.6	
209.37	3145.7	
209.58	3527.3	
209.79	5121.3	
210.01	4633.2	
210.22	2622.1	
210.43	2720.4	
210.65	4711.7	
210.86	5023.7	
211.07	3163.4	
211.29	2941.6	
211.5	4987.5	
211.71	4673.5	
211.93	2973.7	
212.14	2960	
212.35	4688.5	
212.56	4732.9	
212.78	3330	
212.99	2773.6	
213.2	5371.8	
213.42	4578.6	
213.63	3041.2	
213.84	3163.4	
214.06	4320.5	
214.27	4398.4	
214.48	3150.5	
214.69	3390.8	
214.91	5276.9	
215.12	5245.5	
215.33	3388.7	
215.55	3650.2	
215.76	5657.2	
215.97	5027.1	
216.18	3195.5	
216.4	3263.1	
216.61	4491.2	
216.82	5096	
217.04	2952.5	
217.25	3041.2	
217.46	5171.8	
217.67	5044.1	
217.89	2687.6	
218.1	2777.7	
218.31	4781.3	
218.53	4881	
218.74	3110.9	
218.95	3017.3	
219.16	4747.2	
219.38	5483.1	
219.59	2995.5	
219.8	3457	
220.01	5887.9	
220.23	4746.5	
220.44	3784.6	
220.65	2888.3	
220.87	4842.8	
221.08	5188.9	
221.29	2805.7	
221.5	3558	
221.72	6195.8	
221.93	4508.3	
222.14	3295.9	
222.35	3906.8	
222.57	4754	
222.78	5046.2	
222.99	3182.5	
223.2	3375.1	
223.42	4937	
223.63	5067.4	
223.84	2528.6	
224.05	2512.2	
224.27	5790.3	
224.48	5343.8	
224.69	3842	
224.9	3294.5	
225.12	4932.9	
225.33	4738.3	
225.54	2736.1	
225.75	2953.2	
225.97	4430.4	
226.18	4670.1	
226.39	3165.5	
226.6	2973	
226.82	4595	
227.03	4480.3	
227.24	3291.8	
227.45	2801.6	
227.67	5118.6	
227.88	5425.1	
228.09	3643.3	
228.3	3609.9	
228.52	5052.3	
228.73	4698.7	
228.94	3064.4	
229.15	2790	
229.36	4731.5	
229.58	4681.7	
229.79	3097.9	
230	3540.3	
230.21	5556.1	
230.43	4756.1	
230.64	3326.6	
230.85	3386	
231.06	5095.3	
231.28	5128.1	
231.49	2770.9	
231.7	3197.6	
231.91	5009.3	
232.12	4742.4	
232.34	2893.8	
232.55	3196.9	
232.76	5227.1	
232.97	4906.3	
233.18	2887.6	
233.4	3282.2	
233.61	4913.1	
233.82	4556.7	
234.03	3070.6	
234.25	3082.2	
234.46	6312.5	
234.67	4769.7	
234.88	3366.2	
235.09	2977.7	
235.31	4889.2	
235.52	4678.2	
235.73	3226.9	
235.94	2770.9	
236.15	4552	
236.37	5604.6	
236.58	2993.4	
236.79	3111.5	
237	4972.5	
237.21	4349.2	
237.43	3407.8	
237.64	2743.6	
237.85	7781.6	
238.06	4401.8	
238.27	3360.7	
238.48	2826.2	
238.7	4994.3	
238.91	4660.5	
239.12	3170.9	
239.33	3222.8	
239.54	4465.3	
239.76	4625	
239.97	3087	
240.18	3128.6	
240.39	5686.5	
240.6	4887.1	
240.82	3318.4	
241.03	2758.6	
241.24	4687.8	
241.45	5294	
241.66	2895.1	
241.87	3404.4	
242.09	5382.1	
242.3	5594.4	
242.51	3433.1	
242.72	3190.7	
242.93	5043.5	
243.14	4726.7	
243.36	3678.2	
243.57	3861.1	
243.78	5365.7	
243.99	5013.4	
244.2	3164.8	
244.41	2897.9	
244.63	4440	
244.84	5041.4	
245.05	3333.4	
245.26	3183.9	
245.47	4992.3	
245.68	5117.9	
245.9	4022.2	
246.11	3304.1	
246.32	4521.9	
246.53	4900.1	
246.74	4951.3	
246.95	2753.8	
247.16	4424.3	
247.38	4726	
247.59	2747	
247.8	3234.4	
248.01	4440.7	
248.22	4734.2	
248.43	2915.6	
248.64	3118.4	
248.86	4335.5	
249.07	4582.7	
249.28	2875.3	
249.49	3331.4	
249.7	5117.2	
249.91	5184.1	
250.12	2779.1	
250.34	2781.1	
250.55	4846.2	
250.76	4789.5	
250.97	3287	
251.18	3299.3	
251.39	5218.2	
251.6	4914.4	
251.81	3335.5	
252.03	3353.2	
252.24	4554.7	
252.45	5096	
252.66	2788.7	
252.87	3462.4	
253.08	4773.1	
253.29	5851.7	
253.5	2834.4	
253.72	3821.5	
253.93	4689.2	
254.14	5437.4	
254.35	3049.4	
254.56	3123.8	
254.77	4975.9	
254.98	4401.8	
255.19	3019.4	
255.41	3775.8	
255.62	4871.4	
255.83	5184.1	
256.04	3372.3	
256.25	3248.8	
256.46	5666	
256.67	4552	
256.88	3265.1	
257.09	3633.8	
257.31	4422.2	
257.52	4528.1	
257.73	4059.1	
257.94	3074.7	
258.15	4662.5	
258.36	4746.5	
258.57	3833.8	
258.78	2491	
258.99	5112.4	
259.2	4599.7	
259.41	3044.6	
259.63	3103.4	
259.84	5357.5	
260.05	5616.9	
260.26	3839.3	
260.47	2980.5	
260.68	5154.7	
260.89	4648.2	
261.1	3598.3	
261.31	2897.2	
261.52	5238	
261.73	5424.4	
261.95	3892.5	
262.16	3359.4	
262.37	5277.6	
262.58	5328.8	
262.79	3793.5	
263	3067.9	
263.21	4747.2	
263.42	4641.4	
263.63	3312.9	
263.84	3064.4	
264.05	5111.7	
264.26	5337.7	
264.47	3695.9	
264.69	3316.3	
264.9	5323.4	
265.11	4878.9	
265.32	2968.9	
265.53	3022.8	
265.74	4844.8	
265.95	4298	
266.16	3216	
266.37	3501.3	
266.58	4874.8	
266.79	4602.5	
267	3058.3	
267.21	2845.3	
267.42	4412.7	
267.63	4724.7	
267.84	3226.9	
268.06	2782.5	
268.27	5137	
268.48	5306.3	
268.69	3136.8	
268.9	3631	
269.11	5243.5	
269.32	4293.9	
269.53	3138.9	
269.74	2979.1	
269.95	4951.3	
270.16	4321.9	
270.37	3204.4	
270.58	3648.1	
270.79	4660.5	
271	5118.6	
271.21	3298.6	
271.42	3222.1	
271.63	4897.4	
271.84	4433.9	
272.05	2635.1	
272.26	2904.7	
272.47	4781.3	
272.68	4870.1	
272.89	3061	
273.11	3485.6	
273.32	4579.3	
273.53	5345.2	
273.74	3361.4	
273.95	3340.2	
274.16	5112.4	
274.37	4761.5	
274.58	3480.2	
274.79	2827.6	
275	4899.4	
275.21	5234.6	
275.42	4129.4	
275.63	3474	
275.84	4980	
276.05	5952.8	
276.26	3333.4	
276.47	3093.8	
276.68	4653	
276.89	5524.7	
277.1	3522.5	
277.31	2848	
277.52	4939	
277.73	5173.2	
277.94	2813.2	
278.15	3091.8	
278.36	4899.4	
278.57	4489.1	
278.78	3028.3	
278.99	3433.1	
279.2	4530.1	
279.41	4472.8	
279.62	3934.1	
279.83	2918.4	
280.04	5668.8	
280.25	4479.6	
280.46	3911.6	
280.67	3168.9	
280.88	4492.6	
281.09	5239.4	
281.3	3325.9	
281.51	4120.5	
281.72	4530.8	
281.93	5162.9	
282.14	3026.9	
282.35	3237.8	
282.56	5154.1	
282.77	5085.1	
282.98	3108.8	
283.19	3685	
283.4	6004	
283.61	4646.2	
283.82	2881.5	
284.03	3855	
284.24	4916.5	
284.45	5123.3	
284.66	3884.3	
284.87	3652.2	
285.08	5192.3	
285.29	5296	
285.5	2792.7	
285.71	3087	
285.92	5258.5	
286.12	5717.2	
286.33	3843.4	
286.54	3130.7	
286.75	5091.3	
286.96	4677.6	
287.17	2946.3	
287.38	3728	
287.59	4500.1	
287.8	4485.1	
288.01	3153.2	
288.22	3465.2	
288.43	5031.2	
288.64	4307.6	
288.85	3644	
289.06	3451.5	
289.27	5155.4	
289.48	5389.6	
289.69	3859.1	
289.9	3514.3	
290.11	5232.6	
290.32	4539.7	
290.53	3681.6	
290.74	3327.9	
290.94	5073.5	
291.15	5080.3	
291.36	2951.8	
291.57	3517	
291.78	4614.8	
291.99	4288.4	
292.2	2925.9	
292.41	3414.6	
292.62	5170.4	
292.83	5006.6	
293.04	4162.8	
293.25	2983.2	
293.46	4562.9	
293.67	5128.1	
293.88	2981.2	
294.09	2925.2	
294.29	4403.8	
294.5	4872.1	
294.71	3218	
294.92	3040.6	
295.13	4622.9	
295.34	5597.8	
295.55	2769.5	
295.76	2717.7	
295.97	5054.4	
296.18	5563	
296.39	2856.9	
296.6	3077.4	
296.81	4845.5	
297.01	5032.5	
297.22	3143.6	
297.43	3024.8	
297.64	4556.7	
297.85	4430.4	
298.06	2568.8	
298.27	2773.6	
298.48	4739.7	
298.69	4564.2	
298.9	3222.1	
299.11	2905.4	
299.31	4403.1	
299.52	4414.1	
299.73	3472.7	
299.94	3433.8	
300.15	4771.1	
300.36	4538.3	
300.57	3362.8	
300.78	3309.5	
300.99	4626.4	
301.2	4772.4	
301.4	3032.4	
301.61	3226.9	
301.82	5015.5	
302.03	5070.1	
302.24	3617.4	
302.45	2911.5	
302.66	4996.4	
302.87	5231.2	
303.08	3003.7	
303.29	3919.8	
303.49	4584	
303.7	4805.2	
303.91	2732	
304.12	3791.5	
304.33	4372.4	
304.54	4863.9	
304.75	3005.7	
304.96	2893.1	
305.16	4993.6	
305.37	5489.9	
305.58	2683.5	
305.79	2727.2	
306	5008.6	
306.21	4314.4	
306.42	3018	
306.63	4342.4	
306.83	4679.6	
307.04	5074.9	
307.25	3294.5	
307.46	3238.5	
307.67	4237.9	
307.88	4986.1	
308.09	3045.3	
308.29	3082.2	
308.5	4827.7	
308.71	5127.4	
308.92	3120.4	
309.13	2897.2	
309.34	4730.8	
309.55	4667.3	
309.75	3723.9	
309.96	3345	
310.17	5018.2	
310.38	4478.2	
310.59	3534.8	
310.8	2829.6	
311.01	4663.9	
311.21	4713.1	
311.42	2901.3	
311.63	2992.8	
311.84	4595	
312.05	4857.1	
312.26	3386	
312.46	3559.4	
312.67	4636.6	
312.88	4367	
313.09	2927.9	
313.3	2975	
313.51	5345.2	
313.71	5584.1	
313.92	2916.3	
314.13	3064.4	
314.34	4902.8	
314.55	4760.8	
314.76	3636.5	
314.96	3262.4	
315.17	4891.2	
315.38	4958.8	
315.59	2990.7	
315.8	2767.5	
316.01	5341.8	
316.21	5439.4	
316.42	2881.5	
316.63	3224.2	
316.84	4610	
317.05	5268.7	
317.26	3386.7	
317.46	3050.1	
317.67	4702.1	
317.88	5044.1	
318.09	3616	
318.3	2733.4	
318.5	4595.6	
318.71	4924	
318.92	4478.9	
319.13	3429.7	
319.34	5109	
319.54	5203.2	
319.75	2737.5	
319.96	2626.2	
320.17	4988.9	
320.38	5184.8	
320.58	2697.2	
320.79	3169.6	
321	5187.5	
321.21	5272.8	
321.42	3244.7	
321.62	2730.6	
321.83	4514.4	
322.04	4773.8	
322.25	3110.9	
322.46	2921.1	
322.66	4785.4	
322.87	4988.2	
323.08	3524.6	
323.29	2861	
323.5	5543.9	
323.7	4448.2	
323.91	3808.5	
324.12	3515.7	
324.33	4846.9	
324.53	5019.6	
324.74	3391.4	
324.95	3513.6	
325.16	4340.3	
325.37	4587.4	
325.57	2926.5	
325.78	2970.9	
325.99	4885.1	
326.2	4368.3	
326.4	4063.2	
326.61	2722.4	
326.82	4715.1	
327.03	4820.2	
327.24	4042	
327.44	3777.8	
327.65	4962.9	
327.86	4170.3	
328.07	3354.6	
328.27	2838.5	
328.48	5273.5	
328.69	4446.8	
328.9	4030.4	
329.1	3084.9	
329.31	4717.8	
329.52	5334.3	
329.73	3015.3	
329.93	3177.8	
330.14	4818.9	
330.35	4952	
330.56	4595.6	
330.76	3514.3	
330.97	4631.1	
331.18	4823	
331.39	3195.5	
331.59	2682.2	
331.8	5148.6	
332.01	5281.7	
332.22	2996.2	
332.42	3388	
332.63	4833.9	
332.84	4519.9	
333.05	3233.7	
333.25	2983.9	
333.46	4566.3	
333.67	4773.1	
333.88	3054.2	
334.08	3265.8	
334.29	6031.3	
334.5	5281.7	
334.7	2910.2	
334.91	4020.2	
335.12	4373.8	
335.33	5008.6	
335.53	3248.1	
335.74	4517.8	
335.95	4596.3	
336.16	4427	
336.36	3213.9	
336.57	3589.4	
336.78	4380.6	
336.98	5195	
337.19	3915.7	
337.4	3160.7	
337.61	5634	
337.81	4388.8	
338.02	3015.3	
338.23	3770.3	
338.43	5298.8	
338.64	4497.3	
338.85	2973	
339.05	3779.9	
339.26	5391.6	
339.47	4338.3	
339.68	2950.4	
339.88	4233.8	
340.09	4980.7	
340.3	5094	
340.5	3344.3	
340.71	2650.1	
340.92	4411.3	
341.13	5275.6	
341.33	2828.2	
341.54	3403	
341.75	4898.1	
341.95	4558.1	
342.16	3235.1	
342.37	3480.9	
342.57	4421.6	
342.78	4674.1	
342.99	3573	
343.19	2728.6	
343.4	5040.1	
343.61	4930.8	
343.81	3148.4	
344.02	2910.8	
344.23	5070.1	
344.43	5329.5	
344.64	3575.1	
344.85	3430.3	
345.06	4982	
345.26	5206.6	
345.47	3358.7	
345.68	3809.9	
345.88	4315.8	
346.09	5104.9	
346.3	3402.4	
346.5	2611.2	
346.71	4693.3	
346.92	4478.2	
347.12	2777.7	
347.33	3330.7	
347.54	5093.3	
347.74	5414.1	
347.95	3305.4	
348.16	2564.1	
348.36	4558.8	
348.57	4432.5	
348.78	3357.3	
348.98	3528.7	
349.19	4660.5	
349.39	4322.6	
349.6	2775	
349.81	3017.3	
350.01	4939	
350.22	4528.1	
350.43	3282.9	
350.63	3816	
350.84	4717.8	
351.05	4559.5	
351.25	2934.7	
351.46	2759.3	
351.67	5090.6	
351.87	4431.1	
352.08	3109.5	
352.29	3512.3	
352.49	5104.9	
352.7	5088.5	
352.9	2876	
353.11	3480.2	
353.32	5499.5	
353.52	4583.4	
353.73	2862.4	
353.94	3518.4	
354.14	4949.9	
354.35	4750.6	
354.55	2962.7	
354.76	3213.9	
354.97	4914.4	
355.17	4709	
355.38	2804.4	
355.59	3700	
355.79	4483.7	
356	4711.7	
356.2	3203.7	
356.41	2846	
356.62	4329.4	
356.82	4631.8	
357.03	3428.3	
357.24	3084.9	
357.44	4461.2	
357.65	4527.4	
357.85	3978.5	
358.06	3260.4	
358.27	4245.4	
358.47	4394.9	
358.68	2796.2	
358.88	3386	
359.09	4841.4	
359.3	5108.3	
359.5	3859.1	
359.71	3458.3	
359.91	5369.1	
360.12	4910.3	
360.33	3413.3	
360.53	3721.2	
360.74	4480.3	
360.94	4461.2	
361.15	3526.6	
361.36	2935.4	
361.56	5108.3	
361.77	4687.8	
361.97	3851.5	
362.18	3173	
362.38	5122	
362.59	4341	
362.8	2877.4	
363	2798.9	
363.21	4177.9	
363.41	4724	
363.62	3302.7	
363.83	3949.2	
364.03	4854.4	
364.24	5366.4	
364.44	4087.1	
364.65	4080.2	
364.85	4611.3	
365.06	4351.3	
365.27	3039.2	
365.47	3063.1	
365.68	5379.3	
365.88	4615.4	
366.09	3335.5	
366.29	3083.6	
366.5	4743.8	
366.71	5101.5	
366.91	3965.6	
367.12	3487	
367.32	5536.3	
367.53	4958.1	
367.73	3453.6	
367.94	4127.3	
368.14	5010	
368.35	5472.2	
368.56	3389.4	
368.76	2914.9	
368.97	5155.4	
369.17	6229.2	
369.38	3012.6	
369.58	3175.7	
369.79	4299.4	
369.99	5355.4	
370.2	3998.3	
370.4	3327.3	
370.61	4802.5	
370.82	5779.4	
371.02	3273.3	
371.23	2744.3	
371.43	4303.5	
371.64	5287.9	
371.84	3250.8	
372.05	4044.7	
372.25	6099.5	
372.46	4937.7	
372.66	3244	
372.87	3207.1	
373.07	4988.2	
373.28	6273.6	
373.48	3900	
373.69	3678.8	
373.9	4667.3	
374.1	4664.6	
374.31	3915.7	
374.51	3566.9	
374.72	5204.6	
374.92	4459.8	
375.13	3998.3	
375.33	3423.5	
375.54	4929.5	
375.74	4563.6	
375.95	3516.4	
376.15	4458.4	
376.36	5000.5	
376.56	4821.6	
376.77	3522.5	
376.97	3806.5	
377.18	5750	
377.38	5012.7	
377.59	4054.3	
377.79	3172.3	
378	4805.9	
378.2	5153.4	
378.41	3229	
378.61	3089.7	
378.82	5208.7	
379.02	4538.3	
379.23	3336.1	
379.43	4104.1	
379.64	5347.2	
379.84	5004.6	
380.05	3168.9	
380.25	3147.7	
380.46	5115.1	
380.66	4793.6	
380.87	4198.3	
381.07	4455.7	
381.28	5613.5	
381.48	5031.9	
381.69	3266.5	
381.89	3252.2	
382.1	4281.6	
382.3	5170.4	
382.51	4012.7	
382.71	4732.9	
382.91	5063.9	
383.12	5461.9	
383.32	3502	
383.53	3683.6	
383.73	4938.3	
383.94	4823.6	
384.14	3669.3	
384.35	2960.7	
384.55	4728.8	
384.76	5014.8	
384.96	3567.6	
385.17	3790.1	
385.37	5088.5	
385.58	4524.6	
385.78	3715.7	
385.98	2930	
386.19	4717.8	
386.39	5005.2	
386.6	3253.5	
386.8	3491.8	
387.01	5071.5	
387.21	5145.9	
387.42	3849.5	
387.62	4197	
387.83	4622.3	
388.03	4963.6	
388.23	3528	
388.44	4059.8	
388.64	4338.3	
388.85	4390.8	
389.05	3796.9	
389.26	4145.1	
389.46	5907.7	
389.67	5403.9	
389.87	3779.2	
390.07	3781.2	
390.28	4807.9	
390.48	4429.8	
390.69	3199.6	
390.89	3482.2	
391.1	4653.7	
391.3	5313.8	
391.5	4344.4	
391.71	4710.3	
391.91	5137.7	
392.12	5767.8	
392.32	4404.5	
392.53	3891.8	
392.73	4758.1	
392.93	4795.7	
393.14	3523.2	
393.34	4377.2	
393.55	5132.2	
393.75	4778.6	
393.95	3590.8	
394.16	3426.3	
394.36	4664.6	
394.57	5162.2	
394.77	3139.5	
394.98	3459.7	
395.18	4614.8	
395.38	4770.4	
395.59	4113	
395.79	3340.2	
396	4816.1	
396.2	5113.1	
396.4	3960.8	
396.61	3891.8	
396.81	5214.1	
397.02	4648.2	
397.22	4186	
397.42	4144.4	
397.63	5223.7	
397.83	4612.7	
398.04	3319.1	
398.24	3704.8	
398.44	5098.1	
398.65	4258.4	
398.85	3202.3	
399.05	3306.8	
399.26	4614.1	
399.46	5920.7	
399.67	3558.7	
399.87	3363.4	
400.07	4918.5	
400.28	5163.6	
400.48	3445.4	
400.69	4209.3	
400.89	5270.1	
401.09	5697.4	
401.3	3399.6	
401.5	4194.9	
401.7	5772.5	
401.91	5984.8	
402.11	3666.5	
402.32	3826.3	
402.52	5392.3	
402.72	5205.9	
402.93	4002.4	
403.13	3031	
403.33	5948	
403.54	4870.8	
403.74	3738.2	
403.94	4351.3	
404.15	4995	
404.35	5887.2	
404.56	3555.3	
404.76	4895.3	
404.96	5345.9	
405.17	5170.4	
405.37	4685.1	
405.57	3969	
405.78	5348.6	
405.98	4980	
406.18	3581.2	
406.39	4167.6	
406.59	5384.8	
406.79	4939	
407	3360.7	
407.2	3475.4	
407.4	5411.4	
407.61	5452.4	
407.81	3495.9	
408.01	5280.3	
408.22	4558.1	
408.42	5938.4	
408.62	4288.4	
408.83	3925.3	
409.03	4932.9	
409.23	4905.6	
409.44	3960.1	
409.64	4141.7	
409.84	5795.1	
410.05	5691.3	
410.25	4134.8	
410.45	3964.9	
410.66	5298.1	
410.86	7146	
411.06	4277.5	
411.27	4197.7	
411.47	6961.7	
411.67	5485.1	
411.88	4285.7	
412.08	4450.2	
412.28	5869.5	
412.49	6268.1	
412.69	4149.9	
412.89	4184	
413.09	6270.2	
413.3	6037.4	
413.5	4291.9	
413.7	3983.3	
413.91	5592.3	
414.11	6128.2	
414.31	4115.1	
414.52	4410.6	
414.72	5950.7	
414.92	5878.4	
415.12	4083.6	
415.33	4543.8	
415.53	6198.5	
415.73	6215.6	
415.94	4780	
416.14	4347.2	
416.34	5397.8	
416.55	5201.8	
416.75	5238.7	
416.95	4837.3	
417.15	6208.8	
417.36	6642.9	
417.56	5430.5	
417.76	4758.1	
417.97	6411.5	
418.17	6187.6	
418.37	4445.5	
418.57	4462.5	
418.78	6088.6	
418.98	5799.2	
419.18	5113.1	
419.38	5044.8	
419.59	5748.6	
419.79	5542.5	
419.99	4387.4	
420.2	4646.2	
420.4	6173.3	
420.6	6283.9	
420.8	4275.5	
421.01	4195.6	
421.21	6100.9	
421.41	6153.5	
421.61	4610.7	
421.82	4419.5	
422.02	5715.9	
422.22	6384.9	
422.42	4977.9	
422.63	4691.2	
422.83	5819.6	
423.03	6778.1	
423.23	4782.7	
423.44	3924.6	
423.64	5831.9	
423.84	5614.8	
424.04	4273.4	
424.25	4066.6	
424.45	6516	
424.65	6528.2	
424.85	3962.8	
425.06	4401.1	
425.26	6573.3	
425.46	5747.3	
425.66	4745.1	
425.87	4511	
426.07	6348	
426.27	6240.8	
426.47	4599.7	
426.67	4127.3	
426.88	6655.9	
427.08	6204.7	
427.28	4781.3	
427.48	4080.2	
427.69	5421.7	
427.89	5804.6	
428.09	4669.4	
428.29	4132.1	
428.5	6324.1	
428.7	6083.1	
428.9	4027	
429.1	4413.4	
429.3	5935	
429.51	6193.1	
429.71	4361.5	
429.91	4969.7	
430.11	6292.7	
430.31	6406	
430.52	4520.5	
430.72	4786.8	
430.92	6646.3	
431.12	6192.4	
431.32	4278.9	
431.53	4584	
431.73	5399.8	
431.93	6659.3	
432.13	4229.1	
432.33	4102.8	
432.54	5887.9	
432.74	6008.7	
432.94	4071.4	
433.14	4943.8	
433.34	6254.5	
433.55	5847	
433.75	4908.3	
433.95	6122.1	
434.15	6110.5	
434.35	5801.2	
434.56	4261.8	
434.76	3934.1	
434.96	6063.4	
435.16	6243.6	
435.36	4177.2	
435.56	5040.7	
435.77	5804.6	
435.97	5958.9	
436.17	5538.4	
436.37	4936.3	
436.57	5760.3	
436.78	5767.1	
436.98	6265.4	
437.18	5424.4	
437.38	6214.9	
437.58	5887.9	
437.78	5555.5	
437.99	4504.2	
438.19	6418.3	
438.39	7408.2	
438.59	4503.5	
438.79	4053.6	
438.99	6881.9	
439.2	5909.8	
439.4	4154	
439.6	4141.7	
439.8	6155.5	
440	6931	
440.2	4983.4	
440.4	5033.2	
440.61	6541.2	
440.81	6862.7	
441.01	4352.6	
441.21	5025.7	
441.41	6924.9	
441.61	6477	
441.81	5238	
442.02	5958.9	
442.22	7232.1	
442.42	6636.1	
442.62	4492.6	
442.82	4434.5	
443.02	6851.1	
443.22	6260.6	
443.43	4844.8	
443.63	4417.5	
443.83	5997.8	
444.03	6089.3	
444.23	5407.3	
444.43	5085.1	
444.63	6366.5	
444.83	7245.7	
445.04	4644.8	
445.24	5551.4	
445.44	6640.2	
445.64	6739.2	
445.84	5197.7	
446.04	5150.6	
446.24	6139.8	
446.44	6868.2	
446.65	4530.8	
446.85	4829.8	
447.05	6162.3	
447.25	6842.9	
447.45	4939.7	
447.65	4454.3	
447.85	6334.4	
448.05	6100.9	
448.25	5257.8	
448.46	5107.6	
448.66	6399.9	
448.86	6107	
449.06	4382.7	
449.26	5232.6	
449.46	6574	
449.66	5965.7	
449.86	4864.6	
450.06	4883	
450.26	6042.2	
450.47	6535.1	
450.67	5102.2	
450.87	5365.7	
451.07	6651.8	
451.27	6445	
451.47	4521.9	
451.67	4977.2	
451.87	6242.9	
452.07	7024.5	
452.27	4719.2	
452.47	4681	
452.67	6509.1	
452.88	6736.5	
453.08	4248.2	
453.28	5683.8	
453.48	7374.7	
453.68	6350.8	
453.88	4693.9	
454.08	4841.4	
454.28	6703	
454.48	6367.1	
454.68	5265.3	
454.88	5545.9	
455.08	6827.9	
455.28	6606.7	
455.48	4658.4	
455.68	5120.6	
455.89	7225.9	
456.09	6903.7	
456.29	4884.4	
456.49	4959.5	
456.69	7047.7	
456.89	6433.4	
457.09	5385.5	
457.29	5600.5	
457.49	6782.9	
457.69	6897.6	
457.89	5251	
458.09	4716.5	
458.29	6631.3	
458.49	7214.3	
458.69	5500.8	
458.89	5093.3	
459.09	7312.6	
459.29	7417.1	
459.49	5177.9	
459.69	5820.3	
459.9	7018.4	
460.1	6682.5	
460.3	5023.7	
460.5	4900.1	
460.7	7025.9	
460.9	6784.2	
461.1	4696.7	
461.3	5684.5	
461.5	7587	
461.7	7238.9	
461.9	5086.5	
462.1	5350.7	
462.3	6935.8	
462.5	7281.9	
462.7	5115.1	
462.9	5222.3	
463.1	8067.6	
463.3	7843.7	
463.5	5367	
463.7	6115.9	
463.9	7129.7	
464.1	7349.5	
464.3	5524.7	
464.5	5683.1	
464.7	7528.3	
464.9	7317.4	
465.1	6639.5	
465.3	5919.3	
465.5	7856	
465.7	7824.6	
465.9	6218.3	
466.1	5977.3	
466.3	7649.8	
466.5	7523.6	
466.7	6709.8	
466.9	5819	
467.1	7613	
467.3	8271.1	
467.5	6731	
467.7	5803.3	
467.9	8482	
468.1	9120.3	
468.3	6381.5	
468.5	6820.4	
468.7	7591.1	
468.9	7503.1	
469.1	6068.8	
469.3	6639.5	
469.5	9031.5	
469.7	7308.5	
469.9	6373.3	
470.1	5958.2	
470.3	7659.4	
470.5	7695.6	
470.7	6898.2	
470.9	5981.4	
471.1	7478.5	
471.3	7802.8	
471.5	5929.6	
471.69	7153.6	
471.89	7386.3	
472.09	6977.4	
472.29	6393.8	
472.49	6711.9	
472.69	7172.7	
472.89	7781.6	
473.09	5820.3	
473.29	5860.6	
473.49	7348.8	
473.69	7354.3	
473.89	6579.4	
474.09	5941.8	
474.29	8369.4	
474.49	8054	
474.69	6599.9	
474.89	6079.7	
475.09	7447.1	
475.29	7363.8	
475.49	5646.9	
475.69	5864	
475.88	8548.2	
476.08	7747.5	
476.28	5678.3	
476.48	5859.9	
476.68	8026.7	
476.88	7815	
477.08	5954.8	
477.28	6038.1	
477.48	7445.7	
477.68	7869.7	
477.88	5582.1	
478.08	5917.3	
478.28	8242.4	
478.48	7529.7	
478.67	6038.8	
478.87	5564.3	
479.07	8061.5	
479.27	7686.7	
479.47	6141.9	
479.67	6162.3	
479.87	7935.2	
480.07	8222.6	
480.27	5588.9	
480.47	6710.5	
480.67	7632.1	
480.87	8091.5	
481.06	5873.6	
481.26	6474.3	
481.46	7642.3	
481.66	7507.2	
481.86	6145.3	
482.06	6911.2	
482.26	7421.8	
482.46	8198.7	
482.66	6068.1	
482.86	5804.6	
483.05	7834.2	
483.25	7223.2	
483.45	7957	
483.65	6115.2	
483.85	7310.6	
484.05	7676.5	
484.25	6522.8	
484.45	6720.8	
484.65	8233.5	
484.84	8234.9	
485.04	6034	
485.24	6100.2	
485.44	8503.2	
485.64	7214.3	
485.84	5614.2	
486.04	6533	
486.24	7507.9	
486.44	7803.4	
486.63	5579.3	
486.83	6231.3	
487.03	7511.9	
487.23	7653.3	
487.43	5708.4	
487.63	7376.1	
487.83	7699.7	
488.02	8381.7	
488.22	6419	
488.42	6862.7	
488.62	8307.9	
488.82	7580.9	
489.02	6182.8	
489.22	6251.1	
489.41	8258.8	
489.61	8060.1	
489.81	5996.5	
490.01	6058.6	
490.21	8295	
490.41	8829.5	
490.61	6036.7	
490.8	6130.3	
491	7894.2	
491.2	7350.8	
491.4	6486.6	
491.6	5840.1	
491.8	7827.3	
491.99	7884	
492.19	5737	
492.39	5985.5	
492.59	8225.3	
492.79	8254.7	
492.99	6735.1	
493.18	5984.2	
493.38	8380.3	
493.58	8869.8	
493.78	6610.8	
493.98	6271.6	
494.18	8168	
494.37	7693.5	
494.57	6842.9	
494.77	6675	
494.97	8393.3	
495.17	8493.6	
495.37	6402	
495.56	6636.1	
495.76	8796.7	
495.96	8530.5	
496.16	7511.9	
496.36	6649.8	
496.55	8688.2	
496.75	8295.6	
496.95	6933.1	
497.15	6870.3	
497.35	8651.3	
497.54	8602.8	
497.74	6689.3	
497.94	7919.5	
498.14	9195.4	
498.34	9071.8	
498.53	6376	
498.73	7071	
498.93	8153.6	
499.13	8729.1	
499.33	6969.2	
499.52	7202	
499.72	8685.4	
499.92	8873.8	
500.12	6731	
500.32	6978.8	
500.51	8886.1	
500.71	8710.7	
500.91	7501	
501.11	7210.2	
501.31	8899.1	
501.5	9173.5	
501.7	7776.8	
501.9	7073.7	
502.1	8782.4	
502.29	8987.9	
502.49	7354.9	
502.69	7712	
502.89	8954.4	
503.09	8910	
503.28	6537.8	
503.48	6707.8	
503.68	8404.2	
503.88	8313.4	
504.07	7430	
504.27	7015	
504.47	8666.3	
504.67	8687.5	
504.86	7316	
505.06	7141.9	
505.26	8376.9	
505.46	9582.4	
505.65	7047.1	
505.85	7180.9	
506.05	8334.6	
506.25	8704.5	
506.44	6489.3	
506.64	7164.5	
506.84	8160.5	
507.04	8802.2	
507.23	6696.2	
507.43	7098.9	
507.63	9650	
507.83	8370	
508.02	7039.6	
508.22	6801.3	
508.42	9928.6	
508.62	8241	
508.81	6916	
509.01	7418.4	
509.21	8178.9	
509.4	8407.6	
509.6	7200.7	
509.8	6666.1	
510	8310	
510.19	9413.1	
510.39	6649.1	
510.59	6688	
510.79	8322.3	
510.98	9309.4	
511.18	6818.4	
511.38	6956.3	
511.57	8953	
511.77	8676.6	
511.97	7316	
512.17	6720.8	
512.36	8905.3	
512.56	8718.9	
512.76	6627.9	
512.95	6459.3	
513.15	8916.9	
513.35	7847.1	
513.55	7369.3	
513.74	6703.7	
513.94	8846.5	
514.14	8385.7	
514.33	7481.9	
514.53	7248.4	
514.73	8343.4	
514.92	8544.8	
515.12	6834.8	
515.32	6659.3	
515.51	8602.2	
515.71	8991.3	
515.91	7964.6	
516.11	6702.3	
516.3	9912.9	
516.5	8350.3	
516.7	7228	
516.89	7684	
517.09	8374.1	
517.29	8443.1	
517.48	7603.4	
517.68	7039.6	
517.88	8290.9	
518.07	8746.2	
518.27	7371.3	
518.47	6732.4	
518.66	9099.8	
518.86	8180.3	
519.06	6540.5	
519.25	6837.5	
519.45	8454	
519.65	9473.9	
519.84	7419.8	
520.04	7911.3	
520.24	9861.7	
520.43	8908.7	
520.63	7212.9	
520.83	7064.8	
521.02	8346.8	
521.22	8812.4	
521.42	7344	
521.61	7735.9	
521.81	8441	
522.01	8610.3	
522.2	7239.6	
522.4	7085.3	
522.6	9037	
522.79	8019.8	
522.99	7199.3	
523.18	6754.9	
523.38	8828.8	
523.58	8876.6	
523.77	8185.7	
523.97	6840.9	
524.17	10154	
524.36	9721	
524.56	7947.5	
524.76	7624.6	
524.95	8972.8	
525.15	8710	
525.34	7447.1	
525.54	7490.8	
525.74	9384.5	
525.93	8604.2	
526.13	8482.7	
526.33	7540.6	
526.52	9724.4	
526.72	9295	
526.91	8477.2	
527.11	7931.1	
527.31	9673.2	
527.5	10024	
527.7	7914.7	
527.89	7268.2	
528.09	8914.1	
528.29	9430.2	
528.48	8275.2	
528.68	8000	
528.87	9697.1	
529.07	9748.3	
529.27	7970	
529.46	7656	
529.66	9639.8	
529.85	9885.5	
530.05	7546.1	
530.25	8133.2	
530.44	10551	
530.64	9334.6	
530.83	7870.3	
531.03	8043.7	
531.23	9891	
531.42	9650.7	
531.62	8582.4	
531.81	8077.9	
532.01	9964.7	
532.21	10159	
532.4	7979.6	
532.6	8215.1	
532.79	10688	
532.99	10117	
533.18	8374.8	
533.38	9047.9	
533.58	9811.1	
533.77	10396	
533.97	8397.4	
534.16	8957.1	
534.36	10622	
534.55	9931.3	
534.75	9108.7	
534.95	8417.2	
535.14	10602	
535.34	9858.9	
535.53	8217.8	
535.73	9669.1	
535.92	11055	
536.12	10013	
536.31	8394.6	
536.51	9217.2	
536.71	10350	
536.9	9830.2	
537.1	8374.8	
537.29	8490.9	
537.49	10611	
537.68	9859.6	
537.88	8828.1	
538.07	8153.6	
538.27	10108	
538.46	10849	
538.66	8098.4	
538.86	8531.2	
539.05	10148	
539.25	10462	
539.44	8736.6	
539.64	8438.3	
539.83	10131	
540.03	10798	
540.22	8336.6	
540.42	8452.6	
540.61	10275	
540.81	10321	
541	8751	
541.2	9276.6	
541.39	9839.1	
541.59	10178	
541.78	9041.1	
541.98	8390.5	
542.18	9624.1	
542.37	9619.3	
542.57	8640.4	
542.76	8946.9	
542.96	9682.1	
543.15	10202	
543.35	8616.5	
543.54	8106.5	
543.74	10315	
543.93	9977	
544.13	8458.1	
544.32	9359.2	
544.52	10173	
544.71	9637.1	
544.91	7832.1	
545.1	8747.6	
545.3	9710.8	
545.49	10066	
545.69	7763.2	
545.88	8325	
546.08	10873	
546.27	10459	
546.47	8537.3	
546.66	8101.1	
546.86	10368	
547.05	10725	
547.24	8245.1	
547.44	8187.1	
547.63	9537.4	
547.83	10274	
548.02	8503.2	
548.22	8545.5	
548.41	9429.5	
548.61	10380	
548.8	8019.2	
549	8103.8	
549.19	9925.8	
549.39	10249	
549.58	7907.2	
549.78	8357.8	
549.97	10085	
550.17	9677.3	
550.36	8906.6	
550.55	9559.9	
550.75	9754.5	
550.94	10438	
551.14	7998.7	
551.33	8195.3	
551.53	9224.1	
551.72	9954.5	
551.92	8211.7	
552.11	8064.9	
552.31	10077	
552.5	9936.7	
552.69	9294.4	
552.89	7847.1	
553.08	10001	
553.28	9742.2	
553.47	8067.6	
553.67	8915.5	
553.86	10387	
554.06	9166.7	
554.25	7436.2	
554.44	7867.6	
554.64	10899	
554.83	10559	
555.03	7828.7	
555.22	8171.4	
555.42	10043	
555.61	9807.7	
555.8	8073.8	
556	8227.4	
556.19	9196.7	
556.39	10119	
556.58	8060.8	
556.78	8010.3	
556.97	9858.9	
557.16	9531.9	
557.36	8949.6	
557.55	7726.3	
557.75	9030.9	
557.94	10478	
558.13	7860.1	
558.33	7631.4	
558.52	10156	
558.72	9249.3	
558.91	7765.2	
559.1	7954.3	
559.3	9078	
559.49	8860.2	
559.69	7432.8	
559.88	8174.1	
560.07	9656.9	
560.27	10021	
560.46	8234.2	
560.66	8421.2	
560.85	9628.2	
561.04	8843.8	
561.24	7634.8	
561.43	7737.2	
561.63	9088.2	
561.82	9247.9	
562.01	8673.1	
562.21	8036.9	
562.4	9592.7	
562.59	10105	
562.79	7960.5	
562.98	7638.9	
563.18	9557.9	
563.37	10646	
563.56	8269	
563.76	7684	
563.95	9194.7	
564.14	9172.9	
564.34	8056.7	
564.53	7789.8	
564.73	9637.7	
564.92	9846.6	
565.11	8019.2	
565.31	7538.6	
565.5	10034	
565.69	9171.5	
565.89	7695.6	
566.08	7927	
566.27	9953.1	
566.47	10231	
566.66	8477.2	
566.85	7479.2	
567.05	9611.1	
567.24	9242.5	
567.44	7667.6	
567.63	8792.6	
567.82	9846.6	
568.02	9572.2	
568.21	7699.7	
568.4	8050.6	
568.6	9602.2	
568.79	9475.3	
568.98	7609.6	
569.18	7671.7	
569.37	9585.9	
569.56	10992	
569.76	7985.7	
569.95	8762.6	
570.14	9817.3	
570.34	9695.8	
570.53	7703.1	
570.72	7660.1	
570.91	10174	
571.11	9525.8	
571.3	8075.8	
571.49	8697	
571.69	9604.3	
571.88	9099.8	
572.07	8375.5	
572.27	8432.9	
572.46	9114.8	
572.65	9886.2	
572.85	7761.1	
573.04	7955	
573.23	10189	
573.43	9684.2	
573.62	7696.3	
573.81	8190.5	
574	9691	
574.2	9422	
574.39	7960.5	
574.58	8131.1	
574.78	10178	
574.97	9693.7	
575.16	8372.8	
575.36	8449.2	
575.55	10133	
575.74	10062	
575.93	7734.5	
576.13	8409.6	
576.32	9627.5	
576.51	9974.3	
576.71	8162.5	
576.9	9089.6	
577.09	10329	
577.28	9917.6	
577.48	8318.8	
577.67	7705.8	
577.86	9652.8	
578.05	9924.5	
578.25	8196	
578.44	8229.4	
578.63	9711.5	
578.83	10686	
579.02	7656.7	
579.21	8845.9	
579.4	9792.7	
579.6	9676.7	
579.79	8234.2	
579.98	9777	
580.17	10099	
580.37	10239	
580.56	7793.2	
580.75	8406.2	
580.94	10423	
581.14	10385	
581.33	8697.7	
581.52	8060.1	
581.71	9966.1	
581.91	10621	
582.1	7772	
582.29	8191.2	
582.48	9630.2	
582.68	9786.6	
582.87	8440.4	
583.06	8189.1	
583.25	10017	
583.45	9838.4	
583.64	8738	
583.83	9228.1	
584.02	9671.2	
584.21	10043	
584.41	8744.8	
584.6	8249.9	
584.79	9868.5	
584.98	10262	
585.18	7835.5	
585.37	7810.3	
585.56	9514.9	
585.75	9948.3	
585.94	7950.2	
586.14	8522.3	
586.33	10361	
586.52	9718.3	
586.71	8333.2	
586.91	8107.2	
587.1	9207	
587.29	9962.7	
587.48	7931.8	
587.67	7970	
587.87	9927.2	
588.06	9827.5	
588.25	8889.5	
588.44	8399.4	
588.63	9603.6	
588.83	9993.4	
589.02	7885.4	
589.21	7891.5	
589.4	9325.1	
589.59	9325.8	
589.78	7299	
589.98	7453.9	
590.17	8918.2	
590.36	9217.9	
590.55	6821.1	
590.74	7468.3	
590.94	10032	
591.13	9093	
591.32	7291.5	
591.51	6958.3	
591.7	9290.3	
591.89	9042.5	
592.09	6976.7	
592.28	7344.7	
592.47	8488.8	
592.66	9836.4	
592.85	7019.8	
593.05	7212.9	
593.24	8960.5	
593.43	9551	
593.62	7211.6	
593.81	7522.9	
594	8955.8	
594.19	9170.8	
594.39	7206.8	
594.58	7055.9	
594.77	9268.4	
594.96	9677.3	
595.15	7030.7	
595.34	7569.3	
595.54	9207.7	
595.73	8537.3	
595.92	6666.8	
596.11	7397.9	
596.3	9422	
596.49	8534.6	
596.68	7258.7	
596.88	7579.5	
597.07	9286.2	
597.26	8443.1	
597.45	6877.8	
597.64	7826.7	
597.83	8621.9	
598.02	9107.3	
598.22	6901.7	
598.41	7488.7	
598.6	8912.1	
598.79	8482	
598.98	7012.9	
599.17	7595.9	
599.36	8964.6	
599.55	9708.7	
599.74	8473.1	
599.94	8298.4	
600.13	9422	
600.32	8424	
600.51	6812.2	
600.7	6850.5	
600.89	9672.6	
601.08	9783.1	
601.27	6717.3	
601.47	7441.6	
601.66	9216.5	
601.85	9669.1	
602.04	7275.8	
602.23	7303.1	
602.42	8464.3	
602.61	9013.1	
602.8	7138.5	
602.99	6937.2	
603.18	8739.4	
603.37	8913.4	
603.57	7317.4	
603.76	7763.8	
603.95	9400.9	
604.14	9020.6	
604.33	6997.9	
604.52	7238.9	
604.71	8944.2	
604.9	8567.3	
605.09	7689.4	
605.28	7537.9	
605.47	9377.6	
605.66	9013.8	
605.86	7446.4	
606.05	6974	
606.24	9366	
606.43	8183.7	
606.62	7206.1	
606.81	7723.6	
607	9138.7	
607.19	8673.8	
607.38	6764.4	
607.57	6954.9	
607.76	8516.1	
607.95	8067.6	
608.14	7299	
608.33	7699	
608.52	8402.8	
608.72	9121.7	
608.91	6660	
609.1	6595.8	
609.29	8626.7	
609.48	8163.2	
609.67	7361.8	
609.86	6658.6	
610.05	8269	
610.24	8430.1	
610.43	6534.4	
610.62	6204.7	
610.81	9304.6	
611	9235	
611.19	6680.5	
611.38	7177.4	
611.57	8742.8	
611.76	9587.2	
611.95	6527.6	
612.14	6360.3	
612.33	8562.6	
612.52	8135.9	
612.71	6819.7	
612.9	6335.7	
613.09	7890.1	
613.28	9575.6	
613.47	6724.2	
613.66	7378.8	
613.85	8550.3	
614.04	8185.7	
614.24	6711.9	
614.43	6138.4	
614.62	8741.4	
614.81	8606.2	
615	7054.6	
615.19	7120.8	
615.38	8082	
615.57	8514.1	
615.76	7030	
615.95	7656	
616.14	8713.4	
616.33	8411.7	
616.52	7257.3	
616.71	7357	
616.9	8691.6	
617.09	8458.8	
617.28	6804.7	
617.47	7634.1	
617.66	8044.4	
617.85	7994.6	
618.04	7471	
618.22	7030	
618.41	8359.1	
618.6	9031.5	
618.79	7056.6	
618.98	6831.3	
619.17	9134.6	
619.36	7963.2	
619.55	6959	
619.74	6920.8	
619.93	8801.5	
620.12	8363.9	
620.31	7346.7	
620.5	7466.9	
620.69	9129.2	
620.88	9477.3	
621.07	8057.4	
621.26	7295.5	
621.45	8841.8	
621.64	8856.1	
621.83	7397.3	
622.02	6804.7	
622.21	8921.6	
622.4	8748.9	
622.59	7818.5	
622.78	7615	
622.97	8403.5	
623.16	9148.3	
623.35	7376.1	
623.54	6679.8	
623.72	8658.8	
623.91	8716.8	
624.1	7471.7	
624.29	6619.7	
624.48	9497.8	
624.67	8978.3	
624.86	7558.4	
625.05	6904.4	
625.24	9644.6	
625.43	8329.1	
625.62	8707.3	
625.81	6920.1	
626	9155.1	
626.19	8670.4	
626.38	7555.6	
626.56	7161.7	
626.75	8600.8	
626.94	9081.4	
627.13	7628.7	
627.32	6665.5	
627.51	9068.4	
627.7	9940.2	
627.89	6712.6	
628.08	7544	
628.27	8374.8	
628.46	8574.2	
628.65	6966.5	
628.83	6632.7	
629.02	9002.9	
629.21	8369.4	
629.4	7272.3	
629.59	7346.7	
629.78	8391.2	
629.97	9011.7	
630.16	7453.9	
630.35	7034.8	
630.54	9449.3	
630.72	9247.3	
630.91	7045	
631.1	7413.6	
631.29	8760.5	
631.48	8858.1	
631.67	7551.5	
631.86	7157	
632.05	8600.1	
632.24	8617.9	
632.42	6803.4	
632.61	7362.4	
632.8	8719.6	
632.99	8248.5	
633.18	7299	
633.37	7600	
633.56	8802.2	
633.75	8787.8	
633.93	7324.9	
634.12	7101	
634.31	9428.8	
634.5	9105.3	
634.69	7169.3	
634.88	7485.3	
635.07	8636.3	
635.25	9118.2	
635.44	7854	
635.63	7968.6	
635.82	8553	
636.01	8087.4	
636.2	7694.2	
636.39	7356.3	
636.57	9444.5	
636.76	9131.2	
636.95	6987.7	
637.14	7906.5	
637.33	8847.2	
637.52	9519	
637.7	6748.7	
637.89	7464.2	
638.08	8632.2	
638.27	9583.1	
638.46	7528.3	
638.65	7799.3	
638.83	9646.6	
639.02	8399.4	
639.21	7451.9	
639.4	7676.5	
639.59	8712.1	
639.78	8512	
639.96	6883.2	
640.15	6860	
640.34	8596.7	
640.53	8606.9	
640.72	6662.7	
640.91	6961.7	
641.09	8062.9	
641.28	9146.9	
641.47	6830	
641.66	7445.7	
641.85	8577.6	
642.03	8750.3	
642.22	7231.4	
642.41	6894.1	
642.6	8193.2	
642.79	7755.7	
642.97	6745.3	
643.16	7291.5	
643.35	8215.8	
643.54	8036.9	
643.73	6609.5	
643.91	7184.3	
644.1	7885.4	
644.29	8376.9	
644.48	6593.1	
644.67	6625.2	
644.85	7867.6	
645.04	8228.7	
645.23	6335	
645.42	6531.7	
645.6	7856	
645.79	8584.4	
645.98	6485.9	
646.17	5733.6	
646.36	7588.4	
646.54	7967.3	
646.73	7041.6	
646.92	6191	
647.11	7652.6	
647.29	8486.1	
647.48	6214.2	
647.67	5981.4	
647.86	8576.2	
648.05	8630.8	
648.23	6425.2	
648.42	7336.5	
648.61	8154.3	
648.8	7961.1	
648.98	6088.6	
649.17	6329.6	
649.36	7567.2	
649.55	7258	
649.73	6133	
649.92	6653.9	
650.11	7564.5	
650.3	7839.6	
650.48	6193.1	
650.67	6027.2	
650.86	8033.5	
651.05	7101.7	
651.23	6237.4	
651.42	6089.3	
651.61	7612.3	
651.79	7557.7	
651.98	6356.2	
652.17	5969.1	
652.36	7928.4	
652.54	7226.6	
652.73	6082.5	
652.92	5941.2	
653.11	7906.5	
653.29	8037.6	
653.48	5530.2	
653.67	6253.1	
653.85	7616.4	
654.04	8445.1	
654.23	6319.3	
654.42	6019.7	
654.6	7330.4	
654.79	7739.3	
654.98	5614.8	
655.16	6034.7	
655.35	6946.7	
655.54	6776	
655.73	5549.3	
655.91	5488.6	
656.1	7653.3	
656.29	6744	
656.47	5203.9	
656.66	6526.2	
656.85	7096.2	
657.03	7087.3	
657.22	5593	
657.41	5703.6	
657.59	7144.7	
657.78	7040.2	
657.97	5365	
658.16	5941.2	
658.34	7696.9	
658.53	7909.3	
658.72	6651.8	
658.9	6896.9	
659.09	7278.5	
659.28	7277.1	
659.46	5747.3	
659.65	5729.5	
659.84	7079.8	
660.02	7520.1	
660.21	5758.2	
660.4	5556.1	
660.58	7832.8	
660.77	7290.1	
660.96	6085.2	
661.14	5319.3	
661.33	8189.8	
661.52	8054	
661.7	5365.7	
661.89	7875.1	
662.08	6975.4	
662.26	6653.2	
662.45	5541.1	
662.64	5651.7	
662.82	7552.9	
663.01	6873	
663.2	5597.8	
663.38	6087.9	
663.57	7389.1	
663.75	7403.4	
663.94	5825.1	
664.13	6706.4	
664.31	6948.8	
664.5	7485.3	
664.69	5884.5	
664.87	6387.6	
665.06	6726.2	
665.25	7286	
665.43	6547.4	
665.62	6608.1	
665.8	7539.3	
665.99	6978.8	
666.18	5749.3	
666.36	5927.5	
666.55	7506.5	
666.74	7405.5	
666.92	5622.4	
667.11	6752.2	
667.29	7083.9	
667.48	7436.9	
667.67	6481.8	
667.85	5709.7	
668.04	6993.1	
668.22	6959.7	
668.41	5786.2	
668.6	5961	
668.78	6888	
668.97	7010.2	
669.15	6051.7	
669.34	5263.3	
669.53	6899.6	
669.71	7080.5	
669.9	5403.2	
670.08	5936.4	
670.27	6763.8	
670.46	7281.2	
670.64	6094.8	
670.83	6217.6	
671.01	6718	
671.2	7125.6	
671.38	5409.4	
671.57	5366.4	
671.76	7622.5	
671.94	8093.6	
672.13	5373.9	
672.31	6145.3	
672.5	7446.4	
672.69	6763.1	
672.87	5524.7	
673.06	5775.3	
673.24	7285.3	
673.43	6890	
673.61	6024.4	
673.8	5651	
673.98	7360.4	
674.17	7432.1	
674.36	6094.1	
674.54	6020.3	
674.73	7109.2	
674.91	7374.7	
675.1	5797.1	
675.28	5458.5	
675.47	7073	
675.65	7348.1	
675.84	5679.7	
676.03	5973.9	
676.21	6851.1	
676.4	6444.3	
676.58	6213.5	
676.77	6083.8	
676.95	8014.4	
677.14	6756.9	
677.32	5406	
677.51	5272.2	
677.69	7481.9	
677.88	6561	
678.06	5433.9	
678.25	5441.5	
678.44	6993.1	
678.62	6792.4	
678.81	5228.5	
678.99	5898.1	
679.18	7610.9	
679.36	7356.3	
679.55	5609.4	
679.73	6176.7	
679.92	7309.2	
680.1	6871.6	
680.29	6524.8	
680.47	5615.5	
680.66	6850.5	
680.84	7444.4	
681.03	5201.8	
681.21	6006	
681.4	6907.1	
681.58	6703.7	
681.77	5549.3	
681.95	5413.5	
682.14	7548.1	
682.32	7669	
682.51	6120.7	
682.69	5257.1	
682.88	6815.6	
683.06	7198.6	
683.25	5834	
683.43	6234.7	
683.62	7073.7	
683.8	7349.5	
683.99	6375.3	
684.17	5851.7	
684.36	8009.6	
684.54	6972.7	
684.73	5259.9	
684.91	5322	
685.1	7167.2	
685.28	6703.7	
685.46	5751.4	
685.65	5836.7	
685.83	7181.5	
686.02	6799.9	
686.2	5359.5	
686.39	5372.5	
686.57	6528.2	
686.76	7664.9	
686.94	5354.1	
687.13	5407.3	
687.31	7179.5	
687.5	6907.8	
687.68	5071.5	
687.86	5872.2	
688.05	8285.4	
688.23	6473.6	
688.42	6049.7	
688.6	5468.1	
688.79	6842.3	
688.97	6794.5	
689.16	5862	
689.34	5033.2	
689.52	7410.9	
689.71	7617.1	
689.89	6099.5	
690.08	5614.8	
690.26	7191.8	
690.45	7000	
690.63	6258.6	
690.81	5717.9	
691	7029.3	
691.18	6978.1	
691.37	5810.1	
691.55	7410.9	
691.74	6860.7	
691.92	8351.6	
692.1	5883.1	
692.29	5404.6	
692.47	7096.9	
692.66	6582.2	
692.84	5530.9	
693.02	5974.6	
693.21	6703	
693.39	7158.3	
693.58	6148.7	
693.76	5694	
693.94	7955.7	
694.13	7824.6	
694.31	5753.4	
694.5	6523.5	
694.68	7007.5	
694.86	7339.9	
695.05	5986.2	
695.23	6140.5	
695.42	7654.6	
695.6	9318.9	
695.78	6606.1	
695.97	5925.5	
696.15	7763.2	
696.34	7231.4	
696.52	5799.8	
696.7	6397.9	
696.89	7546.1	
697.07	7074.4	
697.25	6346	
697.44	7410.9	
697.62	7561.1	
697.81	7741.3	
697.99	6122.1	
698.17	6506.4	
698.36	7105.8	
698.54	7636.9	
698.72	6363.7	
698.91	5597.8	
699.09	7325.6	
699.28	7210.9	
699.46	6147.3	
699.64	6076.3	
699.83	7211.6	
700.01	7956.4	
700.19	6675.7	
700.38	5599.8	
700.56	7963.9	
700.74	7354.3	
700.93	5840.1	
701.11	6418.3	
701.29	7727.7	
701.48	8539.3	
701.66	6083.1	
701.84	6115.9	
702.03	7493.5	
702.21	8037.6	
702.39	5859.9	
702.58	6313.2	
702.76	7860.8	
702.94	8023.3	
703.13	5886.5	
703.31	7660.1	
703.49	7466.2	
703.68	8148.9	
703.86	5988.3	
704.04	6787.7	
704.23	7825.3	
704.41	8119.5	
704.59	6181.5	
704.78	7076.4	
704.96	8958.5	
705.14	8114.1	
705.33	6092.7	
705.51	6630	
705.69	7681.2	
705.87	8301.8	
706.06	6808.1	
706.24	6045.6	
706.42	7955.7	
706.61	8163.2	
706.79	6993.8	
706.97	6070.9	
707.16	7548.1	
707.34	8006.2	
707.52	6806.1	
707.7	6232	
707.89	7631.4	
708.07	7468.9	
708.25	6909.8	
708.44	7005.4	
708.62	7700.4	
708.8	8448.6	
708.98	7152.9	
709.17	6330.3	
709.35	7916.8	
709.53	7927	
709.72	6191	
709.9	6494.8	
710.08	8170.7	
710.26	8208.9	
710.45	7326.9	
710.63	6454.5	
710.81	7938.6	
710.99	7922.9	
711.18	6908.5	
711.36	6490	
711.54	7765.2	
711.72	8320.9	
711.91	6534.4	
712.09	6139.1	
712.27	7897.7	
712.45	8387.1	
712.64	6713.9	
712.82	5902.9	
713	7485.3	
713.18	7509.9	
713.37	6013.5	
713.55	6906.4	
713.73	8193.2	
713.91	7124.9	
714.1	6264.7	
714.28	5763.7	
714.46	7830.1	
714.64	7062.8	
714.83	5276.3	
715.01	5797.1	
715.19	7088.7	
715.37	6475	
715.55	5447.6	
715.74	5731.6	
715.92	7651.9	
716.1	6110.5	
716.28	6516	
716.47	5712.5	
716.65	6615.6	
716.83	6707.1	
717.01	5552	
717.19	5693.4	
717.38	8236.9	
717.56	6478.4	
717.74	5697.4	
717.92	5130.8	
718.1	7419.8	
718.29	6842.3	
718.47	4954.7	
718.65	5494.7	
718.83	7503.1	
719.01	7430	
719.2	5033.2	
719.38	5872.2	
719.56	7297.6	
719.74	8432.9	
719.92	5601.2	
720.11	6376	
720.29	7319.4	
720.47	6642.2	
720.65	5264.6	
720.83	5813.5	
721.02	6859.3	
721.2	6630.6	
721.38	5839.4	
721.56	5149.3	
721.74	6219	
721.92	6333.7	
722.11	6049.7	
722.29	5861.3	
722.47	7313.3	
722.65	6612.9	
722.83	5254.4	
723.01	5828.5	
723.2	6698.9	
723.38	6904.4	
723.56	4783.4	
723.74	5670.8	
723.92	6320.7	
724.1	7243	
724.29	5126.7	
724.47	6057.2	
724.65	6499.6	
724.83	6333	
725.01	5094.7	
725.19	5691.3	
725.37	6332.3	
725.56	6350.8	
725.74	4924.7	
725.92	5173.9	
726.1	6433.4	
726.28	6576.7	
726.46	5469.4	
726.64	5289.2	
726.83	6649.1	
727.01	6771.9	
727.19	4993.6	
727.37	5567.7	
727.55	6716	
727.73	7002.7	
727.91	4919.2	
728.09	4870.8	
728.28	7037.5	
728.46	7343.3	
728.64	5595.1	
728.82	5582.1	
729	7770.7	
729.18	7354.3	
729.36	5077.6	
729.54	6810.9	
729.72	8080.6	
729.91	6942.6	
730.09	6614.9	
730.27	5649.7	
730.45	6953.5	
730.63	7185.6	
730.81	6106.4	
730.99	5387.5	
731.17	7726.3	
731.35	6665.5	
731.53	5783.5	
731.71	5513.1	
731.9	7481.9	
732.08	7522.2	
732.26	5677.7	
732.44	5402.5	
732.62	7591.8	
732.8	7234.8	
732.98	5984.2	
733.16	5303.6	
733.34	7176.1	
733.52	6242.9	
733.7	5556.8	
733.88	5756.2	
734.07	7069.6	
734.25	6924.2	
734.43	5173.9	
734.61	6260.6	
734.79	7966.6	
734.97	6810.9	
735.15	5294	
735.33	5539.8	
735.51	7002.7	
735.69	6802	
735.87	6303.6	
736.05	5648.3	
736.23	6949.4	
736.41	6641.6	
736.59	5464	
736.77	5575.3	
736.95	7223.9	
737.13	6745.3	
737.32	5307.7	
737.5	5410.7	
737.68	7589.1	
737.86	6673	
738.04	5085.8	
738.22	6524.1	
738.4	6514.6	
738.58	6748.1	
738.76	5552.7	
738.94	4791.6	
739.12	6669.6	
739.3	6546.7	
739.48	5906.3	
739.66	5759.6	
739.84	6866.2	
740.02	6846.4	
740.2	4823	
740.38	5124	
740.56	7030	
740.74	6143.9	
740.92	5565	
741.1	5477	
741.28	6600.6	
741.46	6410.8	
741.64	5142.4	
741.82	5575.3	
742	6634.7	
742.18	6500.9	
742.36	5334.3	
742.54	5032.5	
742.72	7051.8	
742.9	5965.7	
743.08	5539.8	
743.26	4635.2	
743.44	6969.9	
743.62	6959.7	
743.8	5656.5	
743.98	4967.7	
744.16	6728.9	
744.34	6525.5	
744.52	5510.4	
744.7	5458.5	
744.88	6785.6	
745.06	6472.9	
745.24	5477.6	
745.42	5568.4	
745.6	6887.3	
745.78	6651.8	
745.96	4618.2	
746.14	4851	
746.32	7365.9	
746.5	6724.8	
746.68	5292.6	
746.86	4838.7	
747.03	7029.3	
747.21	5841.5	
747.39	5218.9	
747.57	4848.9	
747.75	6423.8	
747.93	6640.9	
748.11	4784.1	
748.29	4665.3	
748.47	7658.7	
748.65	6170.5	
748.83	5314.5	
749.01	5104.9	
749.19	6569.2	
749.37	5894.7	
749.55	4993.6	
749.73	5031.2	
749.91	6375.3	
750.09	6119.3	
750.26	5039.4	
750.44	4530.1	
750.62	6354.8	
750.8	6277.7	
750.98	4569	
751.16	4782	
751.34	6359.6	
751.52	5865.4	
751.7	5349.3	
751.88	4488.5	
752.06	6625.9	
752.24	6440.2	
752.42	4450.9	
752.59	4678.2	
752.77	6194.4	
752.95	7173.4	
753.13	5215.5	
753.31	4749.9	
753.49	5965.1	
753.67	6197.8	
753.85	4926.7	
754.03	4642.7	
754.21	6480.5	
754.38	6685.9	
754.56	4693.9	
754.74	3949.8	
754.92	5820.3	
755.1	6264.1	
755.28	3940.3	
755.46	3951.2	
755.64	6759	
755.82	6767.9	
755.99	3936.9	
756.17	3977.2	
756.35	4756.7	
756.53	5872.9	
756.71	3007.1	
756.89	3677.5	
757.07	5466.7	
757.25	4874.8	
757.42	4113.7	
757.6	4790.2	
757.78	5646.2	
757.96	4962.9	
758.14	3967.6	
758.32	3674.7	
758.5	4562.2	
758.67	5238.7	
758.85	3846.1	
759.03	3936.2	
759.21	5399.8	
759.39	4931.5	
759.57	3504.8	
759.75	4415.4	
759.92	5909.8	
760.1	5345.9	
760.28	4698	
760.46	4956.1	
760.64	5184.1	
760.82	5102.9	
760.99	4612.7	
761.17	4004.5	
761.35	5869.5	
761.53	5082.4	
761.71	4181.3	
761.89	4636.6	
762.06	5793	
762.24	5384.1	
762.42	4238.6	
762.6	4019.5	
762.78	5431.2	
762.96	5890	
763.13	4515.8	
763.31	4238.6	
763.49	5980.1	
763.67	5448.3	
763.85	4863.2	
764.02	5281	
764.2	6221	
764.38	5504.3	
764.56	4154.6	
764.74	4784.7	
764.91	6327.5	
765.09	5459.2	
765.27	3979.9	
765.45	3785.3	
765.63	6330.3	
765.8	6183.5	
765.98	3627	
766.16	3765.5	
766.34	5135.6	
766.52	4959.5	
766.69	4485.1	
766.87	3728	
767.05	5442.8	
767.23	6056.5	
767.41	3943	
767.58	4123.9	
767.76	5759.6	
767.94	5898.8	
768.12	3969.6	
768.29	4503.5	
768.47	5354.1	
768.65	5982.8	
768.83	3663.1	
769	4502.8	
769.18	5034.6	
769.36	5662.6	
769.54	4491.9	
769.72	3642	
769.89	5840.1	
770.07	5844.2	
770.25	3895.9	
770.43	4862.6	
770.6	6448.4	
770.78	6664.8	
770.96	3999.7	
771.14	4443.4	
771.31	5669.5	
771.49	5208.7	
771.67	3484.3	
771.85	3560.7	
772.02	4649.6	
772.2	5221	
772.38	4079.6	
772.55	3657.7	
772.73	5390.3	
772.91	5199.1	
773.09	4006.5	
773.26	4117.8	
773.44	5352	
773.62	5132.9	
773.8	3611.3	
773.97	3386	
774.15	5392.3	
774.33	5098.1	
774.5	3513.6	
774.68	3824.9	
774.86	5516.5	
775.04	5108.3	
775.21	3615.3	
775.39	3570.3	
775.57	5286.5	
775.74	5482.4	
775.92	3421.5	
776.1	3308.2	
776.27	5253	
776.45	6206.7	
776.63	3523.2	
776.81	3168.9	
776.98	5001.1	
777.16	5720	
777.34	3623.5	
777.51	3872	
777.69	4987.5	
777.87	4812	
778.04	3680.9	
778.22	4062.5	
778.4	4804.5	
778.57	5352	
778.75	3106.8	
778.93	3316.3	
779.1	4698	
779.28	4506.9	
779.46	3064.4	
779.64	3465.8	
779.81	5410.1	
779.99	6054.5	
780.17	4053.6	
780.34	4128	
780.52	4939	
780.69	5144.5	
780.87	3769.6	
781.05	3376.4	
781.22	5046.9	
781.4	5061.9	
781.58	3496.6	
781.75	2834.4	
781.93	5076.9	
782.11	4551.3	
782.28	4125.3	
782.46	3459	
782.64	4498	
782.81	5171.1	
782.99	3538.9	
783.17	3433.8	
783.34	5084.4	
783.52	4512.4	
783.69	3579.8	
783.87	4200.4	
784.05	4530.1	
784.22	4581.3	
784.4	4215.4	
784.58	3681.6	
784.75	5345.9	
784.93	4651.6	
785.1	3460.4	
785.28	3936.9	
785.46	5102.2	
785.63	4567.7	
785.81	3487.7	
785.99	3299.3	
786.16	4747.2	
786.34	5020.9	
786.51	3317.7	
786.69	3663.1	
786.87	4312.3	
787.04	4766.3	
787.22	3205.8	
787.39	3936.9	
787.57	4573.1	
787.75	5391.6	
787.92	4050.9	
788.1	4035.2	
788.27	4541.7	
788.45	4373.8	
788.63	3811.3	
788.8	2847.4	
788.98	4902.8	
789.15	4283.7	
789.33	2957.3	
789.5	3416	
789.68	5255.8	
789.86	5298.8	
790.03	3715	
790.21	3258.3	
790.38	5281	
790.56	4666.6	
790.73	3230.3	
790.91	3214.6	
791.09	4555.4	
791.26	5072.8	
791.44	3386.7	
791.61	2968.2	
791.79	4547.9	
791.96	4553.3	
792.14	3067.9	
792.32	2753.8	
792.49	4558.8	
792.67	4633.2	
792.84	3158	
793.02	2955.9	
793.19	4885.1	
793.37	5408	
793.54	2813.9	
793.72	3030.3	
793.89	5422.3	
794.07	4539	
794.25	3392.1	
794.42	2828.9	
794.6	5305.6	
794.77	4967.7	
794.95	3671.3	
795.12	3252.2	
795.3	4478.2	
795.47	4995	
795.65	3515.7	
795.82	3427.6	
796	4345.8	
796.17	5771.9	
796.35	3278.8	
796.52	3877.5	
796.7	4945.2	
796.87	4955.4	
797.05	3326.6	
797.22	3877.5	
797.4	4980	
797.57	5738.4	
797.75	3467.9	
797.92	3253.5	
798.1	5230.5	
798.27	4453.6	
798.45	2774.3	
798.62	2964.8	
798.8	4731.5	
798.97	5066	
799.15	3596.9	
799.32	3422.2	
799.5	4199.7	
799.67	4722.6	
799.85	3637.9	
800.02	2773.6	
800.2	4467.3	
800.37	4663.2	
800.55	3743.7	
800.72	3241.3	
800.9	5020.9	
801.07	5433.3	
801.25	4273.4	
801.42	3502	
801.6	5109.7	
801.77	4754.7	
801.95	3251.5	
802.12	3125.9	
802.29	4911.7	
802.47	4797	
802.64	3489.7	
802.82	2730.6	
802.99	4475.5	
803.17	5152.7	
803.34	3438.5	
803.52	3091.8	
803.69	5631.2	
803.87	4244.8	
804.04	3350.5	
804.21	3429.7	
804.39	5334.3	
804.56	4600.4	
804.74	2904	
804.91	3538.2	
805.09	4433.2	
805.26	4504.8	
805.44	2971.6	
805.61	3219.4	
805.78	5043.5	
805.96	4929.5	
806.13	3463.1	
806.31	3654.3	
806.48	4106.9	
806.66	4501.4	
806.83	3500	
807	3361.4	
807.18	4467.3	
807.35	4777.2	
807.53	3345	
807.7	2788.7	
807.87	5307.7	
808.05	4478.9	
808.22	3624.9	
808.4	2782.5	
808.57	4414.1	
808.74	4222.2	
808.92	3177.1	
809.09	3873.4	
809.27	4448.9	
809.44	4807.3	
809.61	2745.6	
809.79	3031.7	
809.96	5443.5	
810.14	5023.7	
810.31	2729.9	
810.48	3278.8	
810.66	4506.2	
810.83	5040.1	
811.01	3183.9	
811.18	3433.1	
811.35	5002.5	
811.53	4050.9	
811.7	3739.6	
811.87	3478.8	
812.05	4577.2	
812.22	4442.7	
812.39	3072	
812.57	2962.7	
812.74	4537.6	
812.92	5718.6	
813.09	3301.3	
813.26	3478.8	
813.44	5542.5	
813.61	4362.2	
813.78	2777	
813.96	3598.3	
814.13	4538.3	
814.3	4255	
814.48	3853.6	
814.65	3186	
814.82	5303.6	
815	4242.7	
815.17	3335.5	
815.34	4015.4	
815.52	4444.8	
815.69	4394.9	
815.87	3259.7	
816.04	3262.4	
816.21	4472.1	
816.38	4070	
816.56	3284.9	
816.73	3003.7	
816.9	5530.2	
817.08	5023.7	
817.25	3061.7	
817.42	3719.8	
817.6	4157.4	
817.77	4447.5	
817.94	3367.5	
818.12	2992.8	
818.29	4275.5	
818.46	6231.3	
818.64	3204.4	
818.81	2951.8	
818.98	4272.7	
819.16	5789.6	
819.33	3562.1	
819.5	3280.2	
819.67	4776.5	
819.85	5257.1	
820.02	3314.3	
820.19	3444	
820.37	4649.6	
820.54	4357.4	
820.71	3421.5	
820.88	4115.1	
821.06	4587.4	
821.23	4287.1	
821.4	3376.4	
821.58	3371	
821.75	5020.3	
821.92	4569.7	
822.09	2809.1	
822.27	3010.5	
822.44	4490.5	
822.61	4384.7	
822.79	2813.2	
822.96	5072.8	
823.13	4802.5	
823.3	4222.9	
823.48	3164.1	
823.65	2863.1	
823.82	5081	
823.99	4163.5	
824.17	4011.3	
824.34	2960	
824.51	5638.7	
824.68	4539.7	
824.86	3056.3	
825.03	3363.4	
825.2	4463.9	
825.37	5253.7	
825.55	3069.2	
825.72	3276.8	
825.89	5692	
826.06	5350.7	
826.24	3274.7	
826.41	3297.9	
826.58	5322	
826.75	4671.4	
826.92	2714.2	
827.1	2878.1	
827.27	6961	
827.44	5657.2	
827.61	3134.1	
827.79	3721.8	
827.96	4332.8	
828.13	4470.7	
828.3	3300.6	
828.47	2805	
828.65	4724	
828.82	4674.1	
828.99	4062.5	
829.16	3558	
829.34	4992.3	
829.51	4789.5	
829.68	3359.4	
829.85	3396.2	
830.02	5278.3	
830.2	4964.3	
830.37	2707.4	
830.54	3933.5	
830.71	5576.6	
830.88	4490.5	
831.05	2644.6	
831.23	3028.9	
831.4	5412.1	
831.57	5872.2	
831.74	3086.3	
831.91	2763.4	
832.09	4772.4	
832.26	4975.2	
832.43	3127.9	
832.6	3587.4	
832.77	4709	
832.94	5264	
833.12	2583.2	
833.29	3130	
833.46	4803.9	
833.63	6096.1	
833.8	3473.4	
833.97	3220.1	
834.15	5069.4	
834.32	4857.1	
834.49	3304.7	
834.66	3351.2	
834.83	5094.7	
835	4280.3	
835.17	3065.1	
835.35	3084.9	
835.52	5011.4	
835.69	4812.7	
835.86	3307.5	
836.03	2737.5	
836.2	4971.1	
836.37	4703.5	
836.55	3137.5	
836.72	2955.2	
836.89	4670.1	
837.06	5048.2	
837.23	3268.6	
837.4	3465.2	
837.57	5638.7	
837.75	6088.6	
837.92	2909.5	
838.09	3108.8	
838.26	4679.6	
838.43	5148.6	
838.6	3299.3	
838.77	2966.8	
838.94	5814.9	
839.11	5687.9	
839.29	3166.2	
839.46	2566.8	
839.63	5044.8	
839.8	4771.8	
839.97	3084.2	
840.14	3089.7	
840.31	4844.1	
840.48	5040.1	
840.65	2644.6	
840.82	3084.9	
841	4960.9	
841.17	4896.7	
841.34	2860.3	
841.51	2943.6	
841.68	4943.8	
841.85	4692.6	
842.02	2945.7	
842.19	2514.9	
842.36	4789.5	
842.53	4789.5	
842.7	2760	
842.87	3429	
843.05	6055.8	
843.22	4663.2	
843.39	2729.3	
843.56	2986.6	
843.73	4582.7	
843.9	5088.5	
844.07	4446.1	
844.24	3774.4	
844.41	6780.1	
844.58	4394.9	
844.75	2767.5	
844.92	2952.5	
845.09	4970.4	
845.26	4896	
845.43	2837.8	
845.6	3022.1	
845.77	5014.1	
845.94	4753.3	
846.12	3139.5	
846.29	3283.6	
846.46	5137.7	
846.63	4982	
846.8	2860.3	
846.97	3310.9	
847.14	5377.3	
847.31	4921.3	
847.48	3209.2	
847.65	3452.9	
847.82	5127.4	
847.99	5154.1	
848.16	3743	
848.33	3457	
848.5	4654.4	
848.67	5308.3	
848.84	2860.3	
849.01	2954.5	
849.18	4528.7	
849.35	4283	
849.52	3513.6	
849.69	2771.6	
849.86	5147.9	
850.03	5183.4	
850.2	2861.7	
850.37	3420.1	
850.54	5171.1	
850.71	4649.6	
850.88	3342.3	
851.05	2792.1	
851.22	4851	
851.39	5348.6	
851.56	2744.3	
851.73	3241.3	
851.9	4433.9	
852.07	5112.4	
852.24	3186.6	
852.41	2826.2	
852.58	4811.4	
852.75	4480.3	
852.92	3151.8	
853.09	2809.1	
853.26	4622.9	
853.43	5303.6	
853.6	2812.5	
853.77	2453.5	
853.94	5347.2	
854.11	4370.4	
854.28	4106.2	
854.44	3082.2	
854.61	5714.5	
854.78	5180	
854.95	2768.9	
855.12	3442	
855.29	4114.4	
855.46	5439.4	
855.63	2844.6	
855.8	3901.4	
855.97	4581.3	
856.14	5158.2	
856.31	3901.4	
856.48	3076	
856.65	4631.1	
856.82	4361.5	
856.99	2768.2	
857.16	3080.8	
857.33	5857.2	
857.49	4663.2	
857.66	3039.2	
857.83	3224.9	
858	4704.9	
858.17	4862.6	
858.34	2669.9	
858.51	2891.7	
858.68	5384.1	
858.85	5414.1	
859.02	3272.7	
859.19	3400.3	
859.36	4400.4	
859.52	4440.7	
859.69	2811.9	
859.86	3299.3	
860.03	4466.6	
860.2	5328.8	
860.37	2626.2	
860.54	2904	
860.71	5083.1	
860.88	5477	
861.05	3121.8	
861.21	3555.3	
861.38	5431.9	
861.55	4263.9	
861.72	2676	
861.89	3189.4	
862.06	5138.4	
862.23	5444.9	
862.4	2763.4	
862.56	2955.9	
862.73	4998.4	
862.9	4792.2	
863.07	3251.5	
863.24	2649.4	
863.41	4391.5	
863.58	4471.4	
863.75	2898.6	
863.91	3313.6	
864.08	5353.4	
864.25	5095.3	
864.42	3452.9	
864.59	3882.9	
864.76	5621	
864.93	4388.8	
865.09	2772.9	
865.26	3029.6	
865.43	5305.6	
865.6	5565.7	
865.77	2506.7	
865.94	2766.1	
866.1	5301.5	
866.27	5033.2	
866.44	4115.7	
866.61	2783.9	
866.78	4713.7	
866.95	5016.8	
867.11	2805	
867.28	2536.8	
867.45	5232.6	
867.62	4432.5	
867.79	3239.2	
867.96	2771.6	
868.12	4392.2	
868.29	5107.6	
868.46	2846.7	
868.63	3697.3	
868.8	5220.3	
868.97	5052.3	
869.13	2931.3	
869.3	2925.9	
869.47	4984.1	
869.64	5158.2	
869.81	2841.9	
869.97	2833	
870.14	4929.5	
870.31	5431.2	
870.48	2746.3	
870.65	3511.6	
870.81	4705.5	
870.98	4674.1	
871.15	3196.9	
871.32	2891	
871.48	5014.8	
871.65	5449.6	
871.82	2775	
871.99	3073.3	
872.16	5773.9	
872.32	5284.4	
872.49	2878.1	
872.66	2836.4	
872.83	5079	
872.99	4566.3	
873.16	3225.6	
873.33	2809.1	
873.5	4829.1	
873.67	4831.8	
873.83	3031.7	
874	3725.9	
874.17	4912.4	
874.34	5643.5	
874.5	3605.1	
874.67	3415.3	
874.84	5348.6	
875.01	4343.1	
875.17	3842.7	
875.34	2857.6	
875.51	4862.6	
875.68	5750	
875.84	3400.3	
876.01	3990.8	
876.18	5111.7	
876.34	4990.2	
876.51	2826.9	
876.68	2805.7	
876.85	4645.5	
877.01	5389.6	
877.18	3930.1	
877.35	2799.6	
877.52	4915.1	
877.68	4392.9	
877.85	2790	
878.02	2789.3	
878.18	4668	
878.35	4523.3	
878.52	2333.3	
878.69	3165.5	
878.85	5169.8	
879.02	5057.1	
879.19	3890.5	
879.35	3044.6	
879.52	5070.8	
879.69	5236	
879.86	2533.3	
880.02	3149.1	
880.19	4786.8	
880.36	5666.7	
880.52	3170.9	
880.69	3301.3	
880.86	5115.8	
881.02	5139	
881.19	3130	
881.36	3031.7	
881.52	5056.4	
881.69	4494.6	
881.86	3044.6	
882.02	2991.4	
882.19	5257.1	
882.36	6022.4	
882.52	2941.6	
882.69	3922.5	
882.86	4866	
883.02	4902.2	
883.19	3390.8	
883.36	3186	
883.52	5154.7	
883.69	5685.2	
883.86	2917.7	
884.02	2638.5	
884.19	5089.9	
884.36	4811.4	
884.52	3179.8	
884.69	3006.4	
884.86	4595.6	
885.02	5479	
885.19	3143.6	
885.36	3231	
885.52	4739.7	
885.69	4928.1	
885.86	3985.3	
886.02	3574.4	
886.19	5122	
886.35	4632.5	
886.52	3138.2	
886.69	3850.9	
886.85	4424.3	
887.02	5322	
887.19	5322	
887.35	5322	
887.52	5322	
887.68	5322	
887.85	5322	
888.02	5322	
888.18	5322	
888.35	5322	
888.51	5322	
888.68	5322	
888.85	5322	
889.01	5322	
889.18	5322	
889.35	5322	
889.51	5322	
889.68	5322	
889.84	5322	
890.01	5322	
890.17	5322	
890.34	5322	
890.51	5322	
890.67	5322	
890.84	5322	
891	5322	
891.17	5322	
891.34	5322	
891.5	5322	
891.67	5322	
891.83	5322	
892	5322	
892.16	5322	
892.33	5322	
892.5	5322	
892.66	5322	
892.83	5322	
892.99	5322	
893.16	5322	
893.32	5322	
893.49	5322	
893.65	5322	
893.82	5322	
893.99	5322	
894.15	5322	
894.32	5322	
894.48	5322	
894.65	5322	
894.81	5322	
894.98	5322	
895.14	5322	
895.31	5322	
895.47	5322	
895.64	5322	
895.81	5322	
895.97	5322	
896.14	5322	
896.3	5322	
896.47	5322	
896.63	5322	
896.8	5322	
896.96	5322	
897.13	5322	
897.29	5322	
897.46	5322	
897.62	5322	
897.79	5322	
897.95	5322	
898.12	5322	
898.28	5322	
898.45	5322	
898.61	5322	
898.78	5322	
898.94	5322	
899.11	5322	
899.27	5322	
899.44	5322	
899.6	5322	
899.77	5322	
899.93	5322	
900.1	5322	
900.26	5322	
900.43	5322	
900.59	5322	
900.76	5322	
900.92	5322	
901.09	5322	
901.25	5322	
901.42	5322	
901.58	5322	
901.75	5322	
901.91	5322	
902.07	5322	
902.24	5322	
902.4	5322	
902.57	5322	
902.73	5322	
902.9	5322	
903.06	5322	
903.23	5322	
903.39	5322	
903.56	5322	
903.72	5322	
903.88	5322	
904.05	5322	
904.21	5322	
904.38	5322	
904.54	5322	
904.71	5322	
904.87	5322	
905.03	5322	
905.2	5322	
905.36	5322	
905.53	5322	
905.69	5322	
905.86	5322	
906.02	5322	
906.18	5322	
906.35	5322	
906.51	5322	
906.68	5322	
906.84	5322	
907.01	5322	
907.17	5322	
907.33	5322	
907.5	5322	
907.66	5322	
907.83	5322	
907.99	5322	
908.15	5322	
908.32	5322	
908.48	5322	
908.65	5322	
908.81	5322	
908.97	5322	
909.14	5322	
909.3	5322	
909.47	5322	
909.63	5322	
909.79	5322	
909.96	5322	
910.12	5322	
910.28	5322	
910.45	5322	
910.61	5322	
910.78	5322	
910.94	5322	
911.1	5322	
911.27	5322	
911.43	5322	
911.59	5322	
911.76	5322	
911.92	5322	
912.08	5322	
912.25	5322	
912.41	5322	
912.57	5322	
912.74	5322	
912.9	5322	
913.07	5322	
913.23	5322	
913.39	5322	
913.56	5322	
913.72	5322	
913.88	5322	
914.05	5322	
914.21	5322	
914.37	5322	
914.54	5322	
914.7	5322	
914.86	5322	
915.03	5322	
915.19	5322	
