Wavelength	Intensities	
nm	a.u.	
179.22	1694.9	
179.44	1692.6	
179.65	1697.1	
179.86	1688.2	
180.08	1701.9	
180.29	3981.3	
180.51	3093.1	
180.72	5007.3	
180.94	5602.6	
181.15	2729.9	
181.37	2753.8	
181.58	4835.3	
181.79	5013.4	
182.01	2807.1	
182.22	3038.5	
182.44	5032.5	
182.65	4306.9	
182.87	3678.2	
183.08	3263.1	
183.29	5292	
183.51	4405.2	
183.72	3031	
183.94	4162.2	
184.15	4773.8	
184.37	4681	
184.58	2680.8	
184.79	3538.2	
185.01	4436.6	
185.22	5019.6	
185.44	3663.8	
185.65	3131.3	
185.86	4683	
186.08	4409.3	
186.29	2643.9	
186.51	2789.3	
186.72	4506.9	
186.94	5198.4	
187.15	3160	
187.36	3279.5	
187.58	6397.2	
187.79	4855.7	
188.01	3386.7	
188.22	5049.6	
188.43	5585.5	
188.65	4982.7	
188.86	2837.8	
189.08	3296.5	
189.29	4602.5	
189.5	4592.2	
189.72	3027.6	
189.93	3094.5	
190.15	5150	
190.36	5982.1	
190.57	3356.6	
190.79	3170.9	
191	5182	
191.22	5166.3	
191.43	3344.3	
191.64	2801.6	
191.86	5357.5	
192.07	5193	
192.29	2957.3	
192.5	3045.3	
192.71	5160.9	
192.93	4587.4	
193.14	3018.7	
193.35	3074	
193.57	4518.5	
193.78	5227.8	
194	2484.2	
194.21	2999.6	
194.42	4438.6	
194.64	4777.2	
194.85	3223.5	
195.07	3736.9	
195.28	4744.5	
195.49	4244.8	
195.71	3910.3	
195.92	2860.3	
196.13	4864.6	
196.35	4921.3	
196.56	4138.9	
196.78	3269.2	
196.99	5970.5	
197.2	5579.3	
197.42	3639.9	
197.63	3297.2	
197.84	4304.1	
198.06	4934.2	
198.27	3046.7	
198.48	3929.4	
198.7	4548.5	
198.91	4741.7	
199.13	3289.7	
199.34	3276.1	
199.55	5154.1	
199.77	4145.8	
199.98	2955.2	
200.19	3330.7	
200.41	4725.3	
200.62	4481	
200.83	3381.2	
201.05	3588	
201.26	4712.4	
201.47	4513	
201.69	2981.8	
201.9	2876	
202.11	4752.7	
202.33	5469.4	
202.54	3050.1	
202.76	3469.3	
202.97	4749.2	
203.18	4887.1	
203.4	3386	
203.61	3360.7	
203.82	4795.7	
204.04	4520.5	
204.25	3271.3	
204.46	3239.2	
204.68	4749.9	
204.89	4910.3	
205.1	3222.1	
205.32	2811.9	
205.53	4997	
205.74	5136.3	
205.96	2469.9	
206.17	3319.1	
206.38	5014.1	
206.6	5068.7	
206.81	3744.4	
207.02	3089	
207.24	4935.6	
207.45	5237.3	
207.66	3175	
207.88	2769.5	
208.09	4847.5	
208.3	4725.3	
208.52	2908.1	
208.73	3233.7	
208.94	4715.8	
209.15	5279	
209.37	3166.8	
209.58	3568.2	
209.79	5174.5	
210.01	4603.8	
210.22	2602.3	
210.43	2732.7	
210.65	4713.1	
210.86	5012.1	
211.07	3095.8	
211.29	2904.7	
211.5	4951.3	
211.71	4705.5	
211.93	2965.5	
212.14	2973.7	
212.35	4709	
212.56	4775.9	
212.78	3308.2	
212.99	2751.8	
213.2	5397.8	
213.42	4584.7	
213.63	2997.5	
213.84	3173.7	
214.06	4347.8	
214.27	4404.5	
214.48	3149.1	
214.69	3321.8	
214.91	5222.3	
215.12	5292.6	
215.33	3353.9	
215.55	3656.3	
215.76	5703.6	
215.97	4935.6	
216.18	3209.2	
216.4	3152.5	
216.61	4489.1	
216.82	5064.6	
217.04	2980.5	
217.25	3010.5	
217.46	5167	
217.67	5026.4	
217.89	2672.6	
218.1	2775.7	
218.31	4758.1	
218.53	4866	
218.74	3114.3	
218.95	2950.4	
219.16	4700.8	
219.38	5414.8	
219.59	3018	
219.8	3530.7	
220.01	5823.7	
220.23	4744.5	
220.44	3775.1	
220.65	2883.5	
220.87	4756.7	
221.08	5215.5	
221.29	2784.6	
221.5	3533.4	
221.72	6136.4	
221.93	4521.2	
222.14	3300.6	
222.35	3848.8	
222.57	4827.1	
222.78	5033.2	
222.99	3209.2	
223.2	3349.1	
223.42	4977.2	
223.63	5017.5	
223.84	2478.7	
224.05	2511.5	
224.27	5816.2	
224.48	5358.2	
224.69	3881.6	
224.9	3274.7	
225.12	4889.9	
225.33	4708.3	
225.54	2704.7	
225.75	2991.4	
225.97	4453	
226.18	4686.4	
226.39	3192.1	
226.6	2988	
226.82	4554	
227.03	4453	
227.24	3283.6	
227.45	2793.4	
227.67	5038.7	
227.88	5299.5	
228.09	3689.8	
228.3	3594.9	
228.52	5048.9	
228.73	4683	
228.94	3082.9	
229.15	2804.4	
229.36	4695.3	
229.58	4638.6	
229.79	3155.9	
230	3578.5	
230.21	5566.4	
230.43	4763.6	
230.64	3254.9	
230.85	3347.1	
231.06	5092.6	
231.28	5057.8	
231.49	2745	
231.7	3235.8	
231.91	5012.7	
232.12	4764.3	
232.34	2925.9	
232.55	3246	
232.76	5175.2	
232.97	4860.5	
233.18	2919.7	
233.4	3226.2	
233.61	4852.3	
233.82	4543.1	
234.03	3060.3	
234.25	3037.8	
234.46	6327.5	
234.67	4784.7	
234.88	3358.7	
235.09	2990.7	
235.31	4900.8	
235.52	4571.7	
235.73	3278.8	
235.94	2795.5	
236.15	4524	
236.37	5622.4	
236.58	2916.3	
236.79	3225.6	
237	4948.6	
237.21	4384.7	
237.43	3414.6	
237.64	2679.4	
237.85	7710.6	
238.06	4418.8	
238.27	3422.2	
238.48	2814.6	
238.7	5026.4	
238.91	4605.2	
239.12	3140.2	
239.33	3224.2	
239.54	4556	
239.76	4647.5	
239.97	3154.6	
240.18	3140.2	
240.39	5631.9	
240.6	4861.2	
240.82	3310.9	
241.03	2732	
241.24	4712.4	
241.45	5299.5	
241.66	2910.8	
241.87	3417.4	
242.09	5302.9	
242.3	5487.2	
242.51	3429	
242.72	3166.2	
242.93	5045.5	
243.14	4741.7	
243.36	3652.2	
243.57	3852.9	
243.78	5329.5	
243.99	4990.2	
244.2	3166.8	
244.41	2895.8	
244.63	4406.5	
244.84	4926	
245.05	3362.8	
245.26	3123.2	
245.47	5027.8	
245.68	5108.3	
245.9	3994.9	
246.11	3315	
246.32	4589.5	
246.53	4886.5	
246.74	4973.8	
246.95	2723.1	
247.16	4418.8	
247.38	4756.7	
247.59	2757.9	
247.8	3122.5	
248.01	4377.9	
248.22	4723.3	
248.43	2864.4	
248.64	3142.9	
248.86	4346.5	
249.07	4577.2	
249.28	2831.7	
249.49	3240.6	
249.7	5094	
249.91	5222.3	
250.12	2745.6	
250.34	2796.2	
250.55	4878.3	
250.76	4737.6	
250.97	3262.4	
251.18	3356.6	
251.39	5189.6	
251.6	4872.1	
251.81	3334.1	
252.03	3289	
252.24	4597	
252.45	5089.2	
252.66	2816	
252.87	3494.5	
253.08	4767.7	
253.29	5892	
253.5	2906.8	
253.72	3742.3	
253.93	4718.5	
254.14	5455.8	
254.35	3020.1	
254.56	3123.2	
254.77	4908.3	
254.98	4398.4	
255.19	3027.6	
255.41	3764.8	
255.62	4861.9	
255.83	5218.2	
256.04	3386	
256.25	3300.6	
256.46	5636.7	
256.67	4492.6	
256.88	3255.6	
257.09	3551.2	
257.31	4416.8	
257.52	4513	
257.73	4024.9	
257.94	3013.9	
258.15	4685.1	
258.36	4727.4	
258.57	3707.5	
258.78	2471.2	
258.99	5078.3	
259.2	4622.3	
259.41	3030.3	
259.63	3132	
259.84	5423.7	
260.05	5632.6	
260.26	3858.4	
260.47	2959.3	
260.68	5150	
260.89	4681.7	
261.1	3581.2	
261.31	2966.8	
261.52	5197.7	
261.73	5420.3	
261.95	3885.7	
262.16	3398.3	
262.37	5257.8	
262.58	5322	
262.79	3822.9	
263	3094.5	
263.21	4752.7	
263.42	4294.6	
263.63	3290.4	
263.84	3110.2	
264.05	5126.1	
264.26	5385.5	
264.47	3683.6	
264.69	3312.2	
264.9	5311.7	
265.11	4831.8	
265.32	3008.5	
265.53	2942.9	
265.74	4867.3	
265.95	4268.6	
266.16	3262.4	
266.37	3550.5	
266.58	4865.3	
266.79	4560.1	
267	3024.2	
267.21	2848.7	
267.42	4363.5	
267.63	4721.3	
267.84	3165.5	
268.06	2742.2	
268.27	5150.6	
268.48	5206.6	
268.69	3104	
268.9	3560.1	
269.11	5222.3	
269.32	4276.8	
269.53	3151.8	
269.74	2957.9	
269.95	4967.7	
270.16	4323.3	
270.37	3220.1	
270.58	3586	
270.79	4629.8	
271	5159.5	
271.21	3371.6	
271.42	3220.1	
271.63	4906.9	
271.84	4407.9	
272.05	2592	
272.26	2908.8	
272.47	4723.3	
272.68	4835.9	
272.89	3087.7	
273.11	3490.4	
273.32	4563.6	
273.53	5378	
273.74	3390.1	
273.95	3312.9	
274.16	5151.3	
274.37	4771.8	
274.58	3450.8	
274.79	2897.9	
275	4877.6	
275.21	5185.5	
275.42	4089.8	
275.63	3483.6	
275.84	4939	
276.05	6001.9	
276.26	3323.2	
276.47	3140.2	
276.68	4643.4	
276.89	5512.4	
277.1	3521.8	
277.31	2830.3	
277.52	4926	
277.73	5132.2	
277.94	2766.8	
278.15	3025.5	
278.36	4861.2	
278.57	4504.2	
278.78	3068.5	
278.99	3386.7	
279.2	4515.8	
279.41	4460.5	
279.62	3945.8	
279.83	2872.6	
280.04	5594.4	
280.25	4414.1	
280.46	3890.5	
280.67	3175.7	
280.88	4466.6	
281.09	5216.2	
281.3	3287.7	
281.51	4106.2	
281.72	4578.6	
281.93	5095.3	
282.14	3063.8	
282.35	3226.9	
282.56	5169.8	
282.77	5066.7	
282.98	3098.6	
283.19	3697.3	
283.4	6079.1	
283.61	4685.8	
283.82	2895.8	
284.03	3873.4	
284.24	4924.7	
284.45	5177.9	
284.66	3923.9	
284.87	3651.5	
285.08	5193.6	
285.29	5326.1	
285.5	2805.7	
285.71	3156.6	
285.92	5153.4	
286.12	5636.7	
286.33	3772.4	
286.54	3117.7	
286.75	5084.4	
286.96	4707.6	
287.17	2947	
287.38	3726.6	
287.59	4509.6	
287.8	4497.3	
288.01	3116.3	
288.22	3489.7	
288.43	5042.1	
288.64	4298.7	
288.85	3648.8	
289.06	3522.5	
289.27	5067.4	
289.48	5369.1	
289.69	3879.5	
289.9	3543	
290.11	5259.9	
290.32	4519.9	
290.53	3653.6	
290.74	3402.4	
290.94	5066	
291.15	5076.9	
291.36	3058.3	
291.57	3496.6	
291.78	4582	
291.99	4225.6	
292.2	2934.7	
292.41	3437.9	
292.62	5162.9	
292.83	4951.3	
293.04	4162.2	
293.25	2888.3	
293.46	4616.8	
293.67	5182.7	
293.88	2993.4	
294.09	2880.1	
294.29	4481.6	
294.5	4801.8	
294.71	3181.9	
294.92	3091.1	
295.13	4563.6	
295.34	5637.4	
295.55	2678.7	
295.76	2736.8	
295.97	5042.8	
296.18	5546.6	
296.39	2862.4	
296.6	3016.7	
296.81	4820.9	
297.01	5066.7	
297.22	3139.5	
297.43	3009.1	
297.64	4550.6	
297.85	4414.7	
298.06	2564.7	
298.27	2770.2	
298.48	4752	
298.69	4504.2	
298.9	3250.1	
299.11	2922.5	
299.31	4404.5	
299.52	4435.9	
299.73	3471.3	
299.94	3353.9	
300.15	4727.4	
300.36	4520.5	
300.57	3340.9	
300.78	3351.2	
300.99	4642.7	
301.2	4788.8	
301.4	3002.3	
301.61	3193.5	
301.82	5001.8	
302.03	4998.4	
302.24	3512.9	
302.45	2882.2	
302.66	4988.2	
302.87	5245.5	
303.08	2990	
303.29	4000.4	
303.49	4621.6	
303.7	4693.3	
303.91	2766.1	
304.12	3796.3	
304.33	4375.8	
304.54	4830.5	
304.75	3008.5	
304.96	2884.2	
305.16	4948.6	
305.37	5504.3	
305.58	2687.6	
305.79	2739.5	
306	5037.3	
306.21	4329.4	
306.42	2993.4	
306.63	4378.6	
306.83	4666.6	
307.04	5023	
307.25	3287	
307.46	3293.8	
307.67	4274.8	
307.88	4978.6	
308.09	2964.8	
308.29	3056.9	
308.5	4778.6	
308.71	5173.2	
308.92	3152.5	
309.13	2930.6	
309.34	4739.7	
309.55	4705.5	
309.75	3665.2	
309.96	3366.9	
310.17	5040.7	
310.38	4483.7	
310.59	3515	
310.8	2860.3	
311.01	4651.6	
311.21	4690.5	
311.42	2931.3	
311.63	3024.2	
311.84	4645.5	
312.05	4799.1	
312.26	3347.1	
312.46	3560.1	
312.67	4563.6	
312.88	4407.9	
313.09	2906.1	
313.3	2853.5	
313.51	5345.9	
313.71	5610.1	
313.92	2945	
314.13	3041.9	
314.34	4929.5	
314.55	4766.3	
314.76	3658.4	
314.96	3168.2	
315.17	4866.7	
315.38	4962.2	
315.59	2962.7	
315.8	2824.8	
316.01	5328.1	
316.21	5386.8	
316.42	2849.4	
316.63	3201	
316.84	4604.5	
317.05	5191.6	
317.26	3387.3	
317.46	3089	
317.67	4698.7	
317.88	5005.2	
318.09	3623.5	
318.3	2708.1	
318.5	4617.5	
318.71	4996.4	
318.92	4455	
319.13	3341.6	
319.34	5047.6	
319.54	5218.2	
319.75	2760	
319.96	2665.1	
320.17	5005.2	
320.38	5152	
320.58	2720.4	
320.79	3190.1	
321	5091.9	
321.21	5235.3	
321.42	3244.7	
321.62	2720.4	
321.83	4496	
322.04	4732.2	
322.25	3084.2	
322.46	2930	
322.66	4836.6	
322.87	4970.4	
323.08	3465.2	
323.29	2850.1	
323.5	5583.4	
323.7	4425.7	
323.91	3804.4	
324.12	3450.8	
324.33	4827.7	
324.53	5004.6	
324.74	3396.2	
324.95	3521.8	
325.16	4314.4	
325.37	4605.9	
325.57	2934.7	
325.78	2997.5	
325.99	4852.3	
326.2	4303.5	
326.4	3908.9	
326.61	2758.6	
326.82	4732.9	
327.03	4855.1	
327.24	4016.1	
327.44	3749.8	
327.65	4980.7	
327.86	4136.9	
328.07	3366.2	
328.27	2839.2	
328.48	5265.3	
328.69	4437.3	
328.9	4020.8	
329.1	3032.4	
329.31	4672.8	
329.52	5350.7	
329.73	2938.8	
329.93	3220.1	
330.14	4827.1	
330.35	4861.2	
330.56	4584	
330.76	3515.7	
330.97	4651.6	
331.18	4822.3	
331.39	3210.5	
331.59	2663.7	
331.8	5119.2	
332.01	5249.6	
332.22	2969.6	
332.42	3380.5	
332.63	4785.4	
332.84	4468.7	
333.05	3201.7	
333.25	2969.6	
333.46	4507.6	
333.67	4724	
333.88	3047.4	
334.08	3310.2	
334.29	6019.7	
334.5	5203.2	
334.7	2866.5	
334.91	4062.5	
335.12	4390.8	
335.33	5027.8	
335.53	3232.4	
335.74	4498	
335.95	4587.4	
336.16	4386.7	
336.36	3182.5	
336.57	3646.1	
336.78	4396.3	
336.98	5175.2	
337.19	3874.8	
337.4	3159.3	
337.61	5618.9	
337.81	4347.8	
338.02	3012.6	
338.23	3727.3	
338.43	5352.7	
338.64	4596.3	
338.85	3000.3	
339.05	3817.4	
339.26	5399.1	
339.47	4343.7	
339.68	2939.5	
339.88	4216.1	
340.09	4979.3	
340.3	5039.4	
340.5	3362.8	
340.71	2671.9	
340.92	4405.9	
341.13	5229.1	
341.33	2848	
341.54	3345	
341.75	4928.8	
341.95	4612	
342.16	3289	
342.37	3480.9	
342.57	4391.5	
342.78	4708.3	
342.99	3569.6	
343.19	2706.7	
343.4	4992.3	
343.61	4911	
343.81	3187.3	
344.02	2864.4	
344.23	5053.7	
344.43	5291.3	
344.64	3527.3	
344.85	3455.6	
345.06	4990.2	
345.26	5111	
345.47	3366.9	
345.68	3779.2	
345.88	4299.4	
346.09	5096	
346.3	3351.2	
346.5	2649.4	
346.71	4658.4	
346.92	4528.1	
347.12	2816.6	
347.33	3293.8	
347.54	5102.9	
347.74	5398.4	
347.95	3277.4	
348.16	2554.5	
348.36	4541	
348.57	4451.6	
348.78	3372.3	
348.98	3484.3	
349.19	4618.9	
349.39	4336.2	
349.6	2760.7	
349.81	2945.7	
350.01	4959.5	
350.22	4509.6	
350.43	3253.5	
350.63	3725.9	
350.84	4747.9	
351.05	4506.2	
351.25	2994.8	
351.46	2738.1	
351.67	5085.1	
351.87	4429.8	
352.08	3128.6	
352.29	3464.5	
352.49	5055.8	
352.7	5058.5	
352.9	2859.6	
353.11	3433.1	
353.32	5552.7	
353.52	4597.7	
353.73	2870.6	
353.94	3492.5	
354.14	4917.2	
354.35	4741	
354.55	2898.6	
354.76	3241.3	
354.97	4934.9	
355.17	4653.7	
355.38	2796.8	
355.59	3704.8	
355.79	4480.3	
356	4660.5	
356.2	3153.9	
356.41	2840.5	
356.62	4327.4	
356.82	4659.8	
357.03	3385.3	
357.24	3055.6	
357.44	4441.4	
357.65	4571.7	
357.85	3993.5	
358.06	3241.3	
358.27	4289.1	
358.47	4394.9	
358.68	2741.5	
358.88	3393.5	
359.09	4885.8	
359.3	5120.6	
359.5	3830.4	
359.71	3424.9	
359.91	5383.4	
360.12	4955.4	
360.33	3395.5	
360.53	3680.9	
360.74	4481	
360.94	4488.5	
361.15	3517.7	
361.36	2946.3	
361.56	5076.2	
361.77	4699.4	
361.97	3846.8	
362.18	3135.4	
362.38	5101.5	
362.59	4339	
362.8	2930.6	
363	2839.8	
363.21	4291.2	
363.41	4717.2	
363.62	3274.7	
363.83	3953.3	
364.03	4849.6	
364.24	5427.8	
364.44	4119.1	
364.65	4067.3	
364.85	4612.7	
365.06	4410	
365.27	3010.5	
365.47	3095.2	
365.68	5347.9	
365.88	4595	
366.09	3351.8	
366.29	3093.8	
366.5	4774.5	
366.71	5055.1	
366.91	4026.3	
367.12	3494.5	
367.32	5511.8	
367.53	4988.2	
367.73	3480.2	
367.94	4188.1	
368.14	5001.8	
368.35	5534.3	
368.56	3380.5	
368.76	3241.3	
368.97	5090.6	
369.17	6160.3	
369.38	3069.2	
369.58	3264.5	
369.79	4283.7	
369.99	5300.8	
370.2	3989.4	
370.4	3298.6	
370.61	4812	
370.82	5719.3	
371.02	3252.2	
371.23	2777	
371.43	4296	
371.64	5251.7	
371.84	3250.1	
372.05	4081.6	
372.25	6058.6	
372.46	4980.7	
372.66	3205.8	
372.87	3229	
373.07	5067.4	
373.28	6296.1	
373.48	3924.6	
373.69	3741.6	
373.9	4678.9	
374.1	4680.3	
374.31	3934.8	
374.51	3525.9	
374.72	5229.1	
374.92	4468.7	
375.13	4017.4	
375.33	3414	
375.54	4937.7	
375.74	4592.2	
375.95	3480.2	
376.15	4341.7	
376.36	4982	
376.56	4832.5	
376.77	3538.2	
376.97	3788.1	
377.18	5738.4	
377.38	5035.3	
377.59	4045.4	
377.79	3233.1	
378	4884.4	
378.2	5134.3	
378.41	3183.9	
378.61	3181.2	
378.82	5227.8	
379.02	4625	
379.23	3301.3	
379.43	4140.3	
379.64	5337.7	
379.84	5007.3	
380.05	3261	
380.25	3128.6	
380.46	4997	
380.66	4773.1	
380.87	4144.4	
381.07	4401.8	
381.28	5548.6	
381.48	5063.9	
381.69	3228.3	
381.89	3279.5	
382.1	4315.1	
382.3	5115.8	
382.51	4031.1	
382.71	4637.3	
382.91	4992.9	
383.12	5427.8	
383.32	3500.7	
383.53	3626.3	
383.73	4924	
383.94	4822.3	
384.14	3646.7	
384.35	3000.3	
384.55	4710.3	
384.76	5020.3	
384.96	3469.9	
385.17	3691.8	
385.37	5051	
385.58	4511.7	
385.78	3723.2	
385.98	2930.6	
386.19	4676.9	
386.39	4924	
386.6	3340.2	
386.8	3450.8	
387.01	5020.9	
387.21	5069.4	
387.42	3719.8	
387.62	4162.8	
387.83	4561.5	
388.03	4890.5	
388.23	3528	
388.44	4076.1	
388.64	4368.3	
388.85	4431.8	
389.05	3698.6	
389.26	4097.3	
389.46	5851.7	
389.67	5319.9	
389.87	3712.3	
390.07	3717.1	
390.28	4767	
390.48	4447.5	
390.69	3158	
390.89	3342.3	
391.1	4659.8	
391.3	5231.9	
391.5	4270	
391.71	4667.3	
391.91	5098.1	
392.12	5737.7	
392.32	4341	
392.53	3796.3	
392.73	4672.1	
392.93	4749.2	
393.14	3486.3	
393.34	4037.2	
393.55	5107.6	
393.75	4752.7	
393.95	3499.3	
394.16	3458.3	
394.36	4602.5	
394.57	5052.3	
394.77	3130.7	
394.98	3368.2	
395.18	4543.1	
395.38	4636.6	
395.59	4042.7	
395.79	3313.6	
396	4701.5	
396.2	5018.2	
396.4	3852.2	
396.61	3849.5	
396.81	5123.3	
397.02	4583.4	
397.22	4007.9	
397.42	4051.6	
397.63	5195	
397.83	4579.3	
398.04	3244	
398.24	3562.1	
398.44	4971.8	
398.65	4267.3	
398.85	3128.6	
399.05	3147.7	
399.26	4557.4	
399.46	5760.3	
399.67	3461.1	
399.87	3302.7	
400.07	4851	
400.28	5028.4	
400.48	3328.6	
400.69	4093.2	
400.89	5137	
401.09	5537.7	
401.3	3277.4	
401.5	4064.5	
401.7	5585.5	
401.91	5804.6	
402.11	3532.1	
402.32	3672.7	
402.52	5253	
402.72	5154.7	
402.93	3905.5	
403.13	3020.1	
403.33	5795.1	
403.54	4838	
403.74	3626.3	
403.94	4308.9	
404.15	4841.4	
404.35	5758.9	
404.56	3447.4	
404.76	4726.7	
404.96	5165.7	
405.17	5049.6	
405.37	4239.3	
405.57	3747.1	
405.78	5210	
405.98	4782.7	
406.18	3458.3	
406.39	4070.7	
406.59	5204.6	
406.79	4872.1	
407	3320.4	
407.2	3352.5	
407.4	5270.1	
407.61	5298.8	
407.81	3372.3	
408.01	4737.6	
408.22	4388.8	
408.42	5795.1	
408.62	4094.6	
408.83	3696.6	
409.03	4923.3	
409.23	4748.6	
409.44	3671.3	
409.64	3920.5	
409.84	5481	
410.05	5412.1	
410.25	3835.8	
410.45	3654.9	
410.66	5086.5	
410.86	6845.7	
411.06	3948.5	
411.27	3853.6	
411.47	6582.2	
411.67	5109	
411.88	4014.7	
412.08	4090.5	
412.28	5584.1	
412.49	5916.6	
412.69	3809.9	
412.89	3824.2	
413.09	5733.6	
413.3	5646.9	
413.5	3917.8	
413.7	3631	
413.91	5194.3	
414.11	5657.9	
414.31	3750.5	
414.52	4029	
414.72	5552.7	
414.92	5428.5	
415.12	3742.3	
415.33	4045.4	
415.53	5720.7	
415.73	5812.1	
415.94	4357.4	
416.14	3924.6	
416.34	5018.9	
416.55	4839.4	
416.75	4859.8	
416.95	4343.1	
417.15	5776.6	
417.36	6172.6	
417.56	4972.5	
417.76	4173.1	
417.97	5916.6	
418.17	5651.7	
418.37	4024.3	
418.57	4027.7	
418.78	5621	
418.98	5347.2	
419.18	4631.8	
419.38	4524.6	
419.59	5321.3	
419.79	5065.3	
419.99	3891.1	
420.2	4198.3	
420.4	5749.3	
420.6	5800.5	
420.8	3785.3	
421.01	3715.7	
421.21	5606	
421.41	5640.8	
421.61	4042	
421.82	3848.1	
422.02	5281.7	
422.22	5976.7	
422.42	4461.2	
422.63	4258.4	
422.83	5285.1	
423.03	6188.3	
423.23	4229.7	
423.44	3518.4	
423.64	5328.8	
423.84	5125.4	
424.04	3879.5	
424.25	3621.5	
424.45	6058.6	
424.65	5976.7	
424.85	3458.3	
425.06	3892.5	
425.26	6113.9	
425.46	5274.2	
425.66	4197.7	
425.87	3977.2	
426.07	5881.1	
426.27	5660.6	
426.47	4095.3	
426.67	3616.7	
426.88	6105.7	
427.08	5662.6	
427.28	4253.6	
427.48	3580.5	
427.69	4885.1	
427.89	5439.4	
428.09	4188.8	
428.29	3619.4	
428.5	5803.3	
428.7	5483.1	
428.9	3491.1	
429.1	3877.5	
429.3	5443.5	
429.51	5635.3	
429.71	3796.9	
429.91	4343.7	
430.11	5709.1	
430.31	5765.7	
430.52	4012.7	
430.72	4134.8	
430.92	6079.1	
431.12	5629.2	
431.32	3685.7	
431.53	4019.5	
431.73	4859.1	
431.93	6000.5	
432.13	3713.6	
432.33	3606.5	
432.54	5281	
432.74	5444.9	
432.94	3514.3	
433.14	4265.2	
433.34	5699.5	
433.55	5298.1	
433.75	4229.7	
433.95	5459.2	
434.15	5427.1	
434.35	5165.7	
434.56	3654.9	
434.76	3310.2	
434.96	5406	
435.16	5565.7	
435.36	3531.4	
435.56	4362.2	
435.77	5172.5	
435.97	5339.7	
436.17	4805.2	
436.37	4250.2	
436.57	5100.8	
436.78	5036	
436.98	4952.7	
437.18	4735.6	
437.38	5497.4	
437.58	5228.5	
437.78	4825.7	
437.99	3850.9	
438.19	5652.4	
438.39	6693.4	
438.59	3829	
438.79	3504.8	
438.99	6197.2	
439.2	5255.8	
439.4	3476.8	
439.6	3542.3	
439.8	5449.6	
440	6224.5	
440.2	4285	
440.4	4274.8	
440.61	5758.2	
440.81	6046.3	
441.01	3572.3	
441.21	4216.1	
441.41	6014.9	
441.61	5681.7	
441.81	4467.3	
442.02	5111	
442.22	6341.9	
442.42	5761.6	
442.62	3627.6	
442.82	3718.4	
443.02	6041.5	
443.22	5378.6	
443.43	3979.9	
443.63	3555.3	
443.83	5239.4	
444.03	5224.4	
444.23	4481.6	
444.43	4186	
444.63	5448.3	
444.83	6292	
445.04	3742.3	
445.24	4558.8	
445.44	5771.2	
445.64	5823.7	
445.84	4245.4	
446.04	4285.7	
446.24	5256.5	
446.44	5997.8	
446.65	3756	
446.85	3999	
447.05	5569.1	
447.25	5980.1	
447.45	4147.1	
447.65	3620.1	
447.85	5575.3	
448.05	5202.5	
448.25	4299.4	
448.46	4189.5	
448.66	5505.6	
448.86	5261.9	
449.06	3555.3	
449.26	4367	
449.46	5730.2	
449.66	5152	
449.86	4008.6	
450.06	3927.3	
450.26	5262.6	
450.47	5670.1	
450.67	4243.4	
450.87	4386.7	
451.07	5821	
451.27	5535.7	
451.47	3703.4	
451.67	4098.7	
451.87	5263.3	
452.07	6127.5	
452.27	3820.8	
452.47	3822.2	
452.67	5585.5	
452.88	5773.2	
453.08	3389.4	
453.28	4780	
453.48	6402.6	
453.68	5445.5	
453.88	3747.8	
454.08	3898.6	
454.28	5786.2	
454.48	5438	
454.68	4302.8	
454.88	4622.3	
455.08	5842.2	
455.28	5573.2	
455.48	3618.8	
455.68	4134.2	
455.89	6092.7	
456.09	5847.6	
456.29	3807.9	
456.49	3897.3	
456.69	6065.4	
456.89	5495.4	
457.09	4277.5	
457.29	4489.8	
457.49	5677	
457.69	5774.6	
457.89	4063.2	
458.09	3667.9	
458.29	5494	
458.49	6055.8	
458.69	4321.2	
458.89	3911.6	
459.09	6148	
459.29	6219.7	
459.49	3994.9	
459.69	4561.5	
459.9	5864	
460.1	5472.9	
460.3	3963.5	
460.5	3775.8	
460.7	5845.6	
460.9	5453.7	
461.1	3514.3	
461.3	4453.6	
461.5	6323.4	
461.7	5956.9	
461.9	3749.8	
462.1	4124.6	
462.3	5575.9	
462.5	5928.2	
462.7	3882.3	
462.9	3882.3	
463.1	6689.3	
463.3	6392.4	
463.5	4045.4	
463.7	4616.8	
463.9	5751.4	
464.1	5972.6	
464.3	4080.2	
464.5	4247.5	
464.7	6107	
464.9	5857.2	
465.1	5171.8	
465.3	4467.3	
465.5	6364.4	
465.7	6293.4	
465.9	4618.2	
466.1	4569	
466.3	6126.2	
466.5	6094.1	
466.7	5107.6	
466.9	4354.7	
467.1	6161	
467.3	6717.3	
467.5	5137.7	
467.7	4265.2	
467.9	6858	
468.1	7372.7	
468.3	4796.3	
468.5	5114.5	
468.7	5934.3	
468.9	5922.7	
469.1	4462.5	
469.3	4991.6	
469.5	7351.5	
469.7	5630.5	
469.9	4774.5	
470.1	4242.7	
470.3	6045.6	
470.5	6057.2	
470.7	5273.5	
470.9	4380.6	
471.1	5783.5	
471.3	6270.2	
471.5	4203.1	
471.69	5580.7	
471.89	5854.5	
472.09	5424.4	
472.29	4784.7	
472.49	5104.2	
472.69	5543.9	
472.89	6150.1	
473.09	4124.6	
473.29	4291.2	
473.49	5768.4	
473.69	5751.4	
473.89	4945.2	
474.09	4409.3	
474.29	6779.5	
474.49	6421.7	
474.69	4977.9	
474.89	4498	
475.09	5844.2	
475.29	5796.4	
475.49	4130.8	
475.69	4229.1	
475.88	6969.9	
476.08	6130.9	
476.28	4024.3	
476.48	4364.9	
476.68	6509.1	
476.88	6273.6	
477.08	4304.8	
477.28	4521.9	
477.48	6004	
477.68	6374	
477.88	4162.2	
478.08	4349.9	
478.28	6589.7	
478.48	6008.1	
478.67	4453.6	
478.87	3992.9	
479.07	6395.1	
479.27	6098.2	
479.47	4578.6	
479.67	4597.7	
479.87	6276.3	
480.07	6738.5	
480.27	4050.9	
480.47	5268.1	
480.67	6096.8	
480.87	6597.2	
481.06	4281.6	
481.26	4861.9	
481.46	6104.3	
481.66	6037.4	
481.86	4638.6	
482.06	5280.3	
482.26	5818.3	
482.46	6517.3	
482.66	4567	
482.86	4216.8	
483.05	6169.8	
483.25	5750.7	
483.45	6310.5	
483.65	4506.9	
483.85	5728.2	
484.05	5971.2	
484.25	4893.3	
484.45	5104.9	
484.65	6563.1	
484.84	6556.9	
485.04	4516.5	
485.24	4427	
485.44	6901	
485.64	5589.6	
485.84	3999.7	
486.04	4865.3	
486.24	5868.8	
486.44	6146	
486.63	3947.1	
486.83	4476.9	
487.03	5725.4	
487.23	5898.8	
487.43	3999	
487.63	5666	
487.83	5957.5	
488.02	6593.8	
488.22	4698	
488.42	5075.5	
488.62	6616.3	
488.82	5719.3	
489.02	4429.1	
489.22	4362.2	
489.41	6419	
489.61	6171.2	
489.81	4173.8	
490.01	4169.7	
490.21	6384.2	
490.41	6892.8	
490.61	4207.9	
490.8	4275.5	
491	6034	
491.2	5665.4	
491.4	4801.1	
491.6	4186	
491.8	6161	
491.99	6211.5	
492.19	4033.8	
492.39	4255.7	
492.59	6515.3	
492.79	6616.3	
492.99	4819.6	
493.18	4181.3	
493.38	6593.1	
493.58	6949.4	
493.78	4640	
493.98	4339.6	
494.18	6225.8	
494.37	5801.2	
494.57	4818.2	
494.77	4718.5	
494.97	6386.9	
495.17	6531	
495.37	4377.9	
495.56	4605.9	
495.76	6687.3	
495.96	6462	
496.16	5356.1	
496.36	4461.2	
496.55	6503.7	
496.75	6128.2	
496.95	4737.6	
497.15	4715.1	
497.35	6660.7	
497.54	6417.7	
497.74	4524	
497.94	5810.8	
498.14	7006.8	
498.34	6790.4	
498.53	4322.6	
498.73	4833.2	
498.93	6010.8	
499.13	6364.4	
499.33	4713.1	
499.52	5115.1	
499.72	6496.2	
499.92	6580.8	
500.12	4402.5	
500.32	4611.3	
500.51	6621.1	
500.71	6417.7	
500.91	5284.4	
501.11	4891.9	
501.31	6533	
501.5	6945.3	
501.7	5470.8	
501.9	4689.2	
502.1	6291.4	
502.29	6670.2	
502.49	5079.6	
502.69	5377.3	
502.89	6502.3	
503.09	6626.5	
503.28	4388.1	
503.48	4455.7	
503.68	6124.1	
503.88	6038.1	
504.07	5119.9	
504.27	4867.3	
504.47	6369.2	
504.67	6460	
504.86	5128.8	
505.06	4875.5	
505.26	6192.4	
505.46	7388.4	
505.65	4751.3	
505.85	5038.7	
506.05	6115.9	
506.25	6550.1	
506.44	4410	
506.64	5057.1	
506.84	6122.7	
507.04	6690.7	
507.23	4513	
507.43	4913.1	
507.63	7550.9	
507.83	6151.4	
508.02	5001.8	
508.22	4610.7	
508.42	7679.2	
508.62	6111.8	
508.81	4818.9	
509.01	5270.8	
509.21	6058.6	
509.4	6270.9	
509.6	5016.8	
509.8	4507.6	
510	6185.5	
510.19	7204.8	
510.39	4481	
510.59	4527.4	
510.79	6065.4	
510.98	7069.6	
511.18	4696	
511.38	4693.3	
511.57	6756.9	
511.77	6466.1	
511.97	5221	
512.17	4565.6	
512.36	6677.1	
512.56	6522.8	
512.76	4560.1	
512.95	4360.8	
513.15	6822.5	
513.35	5711.8	
513.55	5063.9	
513.74	4554	
513.94	6720.8	
514.14	6192.4	
514.33	5268.7	
514.53	5076.9	
514.73	6267.5	
514.92	6370.5	
515.12	4592.9	
515.32	4535.6	
515.51	6434.7	
515.71	6749.4	
515.91	5900.2	
516.11	4485.1	
516.3	7650.5	
516.5	6167.1	
516.7	5005.9	
516.89	5375.9	
517.09	6253.1	
517.29	6163	
517.48	5264	
517.68	4794.3	
517.88	6011.5	
518.07	6537.1	
518.27	5152.7	
518.47	4461.8	
518.66	6886	
518.86	5907.7	
519.06	4347.2	
519.25	4668.7	
519.45	6203.3	
519.65	7233.4	
519.84	5159.5	
520.04	5640.8	
520.24	7511.3	
520.43	6620.4	
520.63	5013.4	
520.83	4770.4	
521.02	6141.2	
521.22	6528.2	
521.42	5175.2	
521.61	5617.6	
521.81	6264.7	
522.01	6491.4	
522.2	5094	
522.4	4923.3	
522.6	6780.1	
522.79	5831.2	
522.99	4899.4	
523.18	4367	
523.38	6590.4	
523.58	6464.1	
523.77	5704.3	
523.97	4337.6	
524.17	7814.4	
524.36	7212.3	
524.56	5324	
524.76	4997.7	
524.95	6389.7	
525.15	6236.7	
525.34	4904.2	
525.54	4887.8	
525.74	6776	
525.93	5999.9	
526.13	5700.2	
526.33	4882.4	
526.52	6924.2	
526.72	6533	
526.91	5795.1	
527.11	5181.4	
527.31	6931.7	
527.5	7200.7	
527.7	5140.4	
527.89	4420.9	
528.09	6173.9	
528.29	6507.1	
528.48	5475.6	
528.68	5277.6	
528.87	6873.7	
529.07	6915.3	
529.27	5131.5	
529.46	4895.3	
529.66	6628.6	
529.85	6901	
530.05	4726.7	
530.25	5233.2	
530.44	7648.5	
530.64	6544.6	
530.83	5013.4	
531.03	5158.8	
531.23	7004.1	
531.42	6770.6	
531.62	5709.1	
531.81	5079	
532.01	7014.3	
532.21	7262.1	
532.4	4911.7	
532.6	5102.2	
532.79	7619.8	
532.99	6896.9	
533.18	5129.5	
533.38	5872.2	
533.58	6621.1	
533.77	7178.8	
533.97	5239.4	
534.16	5804.6	
534.36	7391.1	
534.55	6626.5	
534.75	6070.9	
534.95	5205.9	
535.14	7239.6	
535.34	6628.6	
535.53	4986.8	
535.73	6392.4	
535.92	7696.9	
536.12	6740.5	
536.31	5045.5	
536.51	5971.9	
536.71	7131.7	
536.9	6717.3	
537.1	5197.1	
537.29	5313.8	
537.49	7388.4	
537.68	6685.9	
537.88	5540.4	
538.07	4900.1	
538.27	6753.5	
538.46	7540.6	
538.66	4904.9	
538.86	5189.6	
539.05	6839.5	
539.25	7146.7	
539.44	5418.9	
539.64	5119.2	
539.83	6816.3	
540.03	7565.9	
540.22	5027.8	
540.42	5137.7	
540.61	7053.9	
540.81	7040.9	
541	5543.2	
541.2	6014.9	
541.39	6703	
541.59	6851.1	
541.78	5722.7	
541.98	5145.2	
542.18	6393.1	
542.37	6335	
542.57	5373.9	
542.76	5786.9	
542.96	6597.9	
543.15	6967.9	
543.35	5464.7	
543.54	5013.4	
543.74	7138.5	
543.93	6847	
544.13	5444.9	
544.32	6147.3	
544.52	7183.6	
544.71	6613.6	
544.91	4767	
545.1	5718.6	
545.3	6701.6	
545.49	7032.7	
545.69	4789.5	
545.88	5278.3	
546.08	7724.9	
546.27	7367.2	
546.47	5584.1	
546.66	5089.2	
546.86	7228.6	
547.05	7632.8	
547.24	5169.8	
547.44	5101.5	
547.63	6559.6	
547.83	7281.2	
548.02	5338.4	
548.22	5556.8	
548.41	6306.4	
548.61	7334.5	
548.8	5076.2	
549	5081	
549.19	6910.5	
549.39	7172.7	
549.58	4897.4	
549.78	5335	
549.97	7142.6	
550.17	6741.2	
550.36	5986.2	
550.55	6630	
550.75	6766.5	
550.94	7499.7	
551.14	5113.8	
551.33	5357.5	
551.53	6339.1	
551.72	7055.9	
551.92	5339.7	
552.11	5149.3	
552.31	7094.2	
552.5	7092.1	
552.69	6393.8	
552.89	4934.9	
553.08	7039.6	
553.28	6819.1	
553.47	5216.9	
553.67	6014.9	
553.86	7527	
554.06	6270.9	
554.25	4698	
554.44	5026.4	
554.64	8129.1	
554.83	7755.7	
555.03	5072.1	
555.22	5341.1	
555.42	7307.8	
555.61	7009.5	
555.8	5210	
556	5404.6	
556.19	6367.1	
556.39	7302.4	
556.58	5248.9	
556.78	5337	
556.97	7025.9	
557.16	6748.1	
557.36	6137.8	
557.55	5016.2	
557.75	6242.2	
557.94	7589.1	
558.13	5122	
558.33	4851	
558.52	7372.7	
558.72	6455.9	
558.91	4991.6	
559.1	5155.4	
559.3	6354.2	
559.49	6160.3	
559.69	4713.7	
559.88	5421.7	
560.07	6926.9	
560.27	7229.3	
560.46	5561.6	
560.66	5722.7	
560.85	6875.7	
561.04	6166.4	
561.24	4952	
561.43	5139.7	
561.63	6403.3	
561.82	6626.5	
562.01	5992.4	
562.21	5289.9	
562.4	6908.5	
562.59	7501	
562.79	5276.3	
562.98	4993.6	
563.18	6845.7	
563.37	7935.2	
563.56	5526.8	
563.76	4960.2	
563.95	6444.3	
564.14	6451.1	
564.34	5304.9	
564.53	5032.5	
564.73	6929.6	
564.92	7035.5	
565.11	5328.8	
565.31	4862.6	
565.5	7366.5	
565.69	6485.2	
565.89	5087.2	
566.08	5214.1	
566.27	7132.4	
566.47	7428.7	
566.66	5748.6	
566.85	4757.4	
567.05	7008.1	
567.24	6512.5	
567.44	4953.4	
567.63	6025.8	
567.82	7125.6	
568.02	6796.5	
568.21	4969.1	
568.4	5257.1	
568.6	6800.6	
568.79	6807.4	
568.98	4870.8	
569.18	4988.9	
569.37	6711.9	
569.56	8163.9	
569.76	5245.5	
569.95	5941.8	
570.14	7062.8	
570.34	6934.4	
570.53	4883.7	
570.72	4894	
570.91	7376.1	
571.11	6748.7	
571.3	5261.2	
571.49	6004	
571.69	6756.2	
571.88	6434.7	
572.07	5640.8	
572.27	5600.5	
572.46	6363	
572.65	7100.3	
572.85	5090.6	
573.04	5324	
573.23	7316	
573.43	6815	
573.62	4902.8	
573.81	5374.6	
574	6840.2	
574.2	6629.3	
574.39	5122	
574.58	5216.2	
574.78	7394.5	
574.97	6901	
575.16	5532.2	
575.36	5655.1	
575.55	7202	
575.74	7305.1	
575.93	4842.8	
576.13	5668.8	
576.32	6714.6	
576.51	7178.8	
576.71	5257.1	
576.9	6189.6	
577.09	7404.1	
577.28	7007.5	
577.48	5481	
577.67	4803.9	
577.86	6802.7	
578.05	6900.3	
578.25	5298.8	
578.44	5374.6	
578.63	6877.8	
578.83	7724.3	
579.02	4922.6	
579.21	5995.8	
579.4	6996.5	
579.6	6765.1	
579.79	5407.3	
579.98	7007.5	
580.17	7237.5	
580.37	7389.8	
580.56	5070.8	
580.75	5575.9	
580.94	7533.8	
581.14	7494.2	
581.33	5825.8	
581.52	5145.2	
581.71	7111.2	
581.91	7632.1	
582.1	4894	
582.29	5357.5	
582.48	6836.1	
582.68	6817	
582.87	5716.6	
583.06	5414.8	
583.25	7235.5	
583.45	6778.1	
583.64	5926.1	
583.83	6391.7	
584.02	6823.1	
584.21	7108.5	
584.41	5902.9	
584.6	5400.5	
584.79	6890.7	
584.98	7460.1	
585.18	4983.4	
585.37	4987.5	
585.56	6647.7	
585.75	7157.7	
585.94	5268.1	
586.14	5638.1	
586.33	7624.6	
586.52	6890.7	
586.71	5561.6	
586.91	5350.7	
587.1	6563.7	
587.29	7308.5	
587.48	5396.4	
587.67	5276.9	
587.87	7126.9	
588.06	7137.2	
588.25	6189	
588.44	5736.4	
588.63	7019.8	
588.83	7275.8	
589.02	5378.6	
589.21	5205.3	
589.4	6879.8	
589.59	6788.3	
589.78	4754	
589.98	4918.5	
590.17	6516	
590.36	6758.3	
590.55	4537.6	
590.74	5177.9	
590.94	7757	
591.13	6784.9	
591.32	5032.5	
591.51	4639.3	
591.7	6997.2	
591.89	6780.1	
592.09	4677.6	
592.28	5048.9	
592.47	6119.3	
592.66	7586.4	
592.85	4701.5	
593.05	4859.1	
593.24	6565.8	
593.43	7213.6	
593.62	4990.9	
593.81	5193.6	
594	6645.7	
594.19	6777.4	
594.39	4851.6	
594.58	4816.1	
594.77	6931	
594.96	7282.6	
595.15	4810.7	
595.34	5382.1	
595.54	6959	
595.73	6294.8	
595.92	4397.7	
596.11	5142.4	
596.3	7259.4	
596.49	6337.8	
596.68	5076.9	
596.88	5311.1	
597.07	7049.1	
597.26	6198.5	
597.45	4747.9	
597.64	5557.5	
597.83	6414.9	
598.02	6829.3	
598.22	4784.1	
598.41	5344.5	
598.6	6718	
598.79	6328.9	
598.98	4789.5	
599.17	5493.3	
599.36	6787.7	
599.55	7546.1	
599.74	6277	
599.94	6092	
600.13	7147.4	
600.32	6309.8	
600.51	4645.5	
600.7	4760.8	
600.89	7604.8	
601.08	7610.3	
601.27	4515.1	
601.47	5184.1	
601.66	7053.2	
601.85	7496.2	
602.04	5115.1	
602.23	5201.8	
602.42	6357.6	
602.61	6806.8	
602.8	4952	
602.99	4849.6	
603.18	6617	
603.37	6799.3	
603.57	5297.4	
603.76	5666.7	
603.95	7373.4	
604.14	6900.3	
604.33	5027.8	
604.52	5112.4	
604.71	6885.3	
604.9	6447	
605.09	5616.2	
605.28	5402.5	
605.47	7314.7	
605.66	6937.2	
605.86	5347.9	
606.05	4932.9	
606.24	7289.4	
606.43	6146	
606.62	5188.9	
606.81	5714.5	
607	7081.2	
607.19	6660.7	
607.38	4672.1	
607.57	4896	
607.76	6404.7	
607.95	6023.8	
608.14	5236	
608.33	5644.2	
608.52	6476.4	
608.72	7071.6	
608.91	4642.1	
609.1	4629.8	
609.29	6579.4	
609.48	6214.9	
609.67	5329.5	
609.86	4709	
610.05	6234	
610.24	6442.2	
610.43	4547.2	
610.62	4352.6	
610.81	7338.6	
611	7164.5	
611.19	4726.7	
611.38	5218.2	
611.57	6778.8	
611.76	7641	
611.95	4575.8	
612.14	4422.2	
612.33	6548	
612.52	6242.2	
612.71	4947.9	
612.9	4403.1	
613.09	6005.3	
613.28	7727	
613.47	4885.1	
613.66	5360.9	
613.85	6594.5	
614.04	6315.9	
614.24	4854.4	
614.43	4224.3	
614.62	6800.6	
614.81	6720.8	
615	5160.2	
615.19	5197.1	
615.38	6281.8	
615.57	6447	
615.76	5093.3	
615.95	5816.2	
616.14	6773.3	
616.33	6565.1	
616.52	5397.1	
616.71	5449	
616.9	6764.4	
617.09	6579.4	
617.28	4927.4	
617.47	5653.1	
617.66	6105	
617.85	6125.5	
618.04	5524.1	
618.22	5154.1	
618.41	6385.6	
618.6	6989.7	
618.79	5010.7	
618.98	4870.1	
619.17	7219.8	
619.36	5933	
619.55	4975.9	
619.74	4971.8	
619.93	6744.6	
620.12	6268.1	
620.31	5416.2	
620.5	5439.4	
620.69	7058	
620.88	7365.2	
621.07	5952.8	
621.26	5331.5	
621.45	6871.6	
621.64	6760.3	
621.83	5334.3	
622.02	4784.1	
622.21	6987	
622.4	6704.4	
622.59	5797.1	
622.78	5572.5	
622.97	6428.6	
623.16	7089.4	
623.35	5373.2	
623.54	4734.9	
623.72	6567.8	
623.91	6670.2	
624.1	5539.8	
624.29	4536.9	
624.48	7475.8	
624.67	6951.5	
624.86	5373.2	
625.05	4760.8	
625.24	7542	
625.43	6386.2	
625.62	6655.2	
625.81	4948.6	
626	7094.2	
626.19	6577.4	
626.38	5498.1	
626.56	5095.3	
626.75	6437.4	
626.94	6988.4	
627.13	5460.6	
627.32	4576.5	
627.51	6945.3	
627.7	7903.8	
627.89	4676.2	
628.08	5567.1	
628.27	6391.7	
628.46	6548.7	
628.65	4930.8	
628.83	4622.9	
629.02	6984.3	
629.21	6296.8	
629.4	5266	
629.59	5383.4	
629.78	6404	
629.97	7079.1	
630.16	5371.8	
630.35	5022.3	
630.54	7515.4	
630.72	7231.4	
630.91	5009.3	
631.1	5384.8	
631.29	6798.6	
631.48	6846.4	
631.67	5508.4	
631.86	5096	
632.05	6537.1	
632.24	6603.3	
632.42	4823.6	
632.61	5228.5	
632.8	6693.4	
632.99	6351.4	
633.18	5289.9	
633.37	5620.3	
633.56	6827.9	
633.75	6726.9	
633.93	5345.9	
634.12	5023	
634.31	7468.9	
634.5	7088	
634.69	5069.4	
634.88	5498.8	
635.07	6733	
635.25	7126.9	
635.44	5809.4	
635.63	5919.3	
635.82	6548.7	
636.01	6087.9	
636.2	5717.9	
636.39	5373.2	
636.57	7382.9	
636.76	7101.7	
636.95	5015.5	
637.14	5913.2	
637.33	6825.9	
637.52	7490.8	
637.7	4742.4	
637.89	5618.3	
638.08	6633.4	
638.27	7630	
638.46	5580.7	
638.65	5858.6	
638.83	7623.9	
639.02	6523.5	
639.21	5649	
639.4	5869.5	
639.59	6840.9	
639.78	6530.3	
639.96	4976.6	
640.15	4964.3	
640.34	6721.4	
640.53	6799.3	
640.72	4829.8	
640.91	5119.2	
641.09	6380.1	
641.28	7277.8	
641.47	5051.7	
641.66	5669.5	
641.85	6907.8	
642.03	7044.3	
642.22	5416.2	
642.41	5127.4	
642.6	6425.8	
642.79	5986.2	
642.97	5025.7	
643.16	5422.3	
643.35	6365.1	
643.54	6240.8	
643.73	4870.8	
643.91	5537.7	
644.1	6165.1	
644.29	6675.7	
644.48	5002.5	
644.67	5011.4	
644.85	6242.9	
645.04	6567.2	
645.23	4701.5	
645.42	4960.9	
645.6	6270.9	
645.79	7099.6	
645.98	4900.8	
646.17	4242.7	
646.36	6087.2	
646.54	6461.3	
646.73	5527.5	
646.92	4657.8	
647.11	6169.8	
647.29	6995.9	
647.48	4630.5	
647.67	4531.5	
647.86	7159	
648.05	7155.6	
648.23	4928.1	
648.42	5853.1	
648.61	6690.7	
648.8	6454.5	
648.98	4663.9	
649.17	4896	
649.36	6219	
649.55	5824.4	
649.73	4763.6	
649.92	5258.5	
650.11	6064	
650.3	6364.4	
650.48	4838.7	
650.67	4646.8	
650.86	6582.2	
651.05	5769.1	
651.23	4754.7	
651.42	4781.3	
651.61	6158.2	
651.79	6212.9	
651.98	4916.5	
652.17	4545.8	
652.36	6535.8	
652.54	5782.1	
652.73	4681	
652.92	4522.6	
653.11	6545.3	
653.29	6613.6	
653.48	4193.6	
653.67	4814.8	
653.85	6373.3	
654.04	7127.6	
654.23	5012.7	
654.42	4744.5	
654.6	6032.6	
654.79	6512.5	
654.98	4377.2	
655.16	4801.8	
655.35	5776	
655.54	5619.6	
655.73	4468.7	
655.91	4294.6	
656.1	6570.6	
656.29	5617.6	
656.47	4083	
656.66	5224.4	
656.85	5883.8	
657.03	5885.2	
657.22	4375.8	
657.41	4420.2	
657.59	5945.9	
657.78	5740.5	
657.97	4144.4	
658.16	4681.7	
658.34	6449.7	
658.53	6688.7	
658.72	5517.2	
658.9	5758.9	
659.09	6101.6	
659.28	6105	
659.46	4547.2	
659.65	4461.2	
659.84	5851.7	
660.02	6354.8	
660.21	4541.7	
660.4	4373.1	
660.58	6557.6	
660.77	6080.4	
660.96	4909	
661.14	4121.9	
661.33	6963.1	
661.52	6889.4	
661.7	4105.5	
661.89	6634.7	
662.08	5854.5	
662.26	5513.1	
662.45	4412	
662.64	4484.4	
662.82	6388.3	
663.01	5743.9	
663.2	4519.2	
663.38	4984.1	
663.57	6267.5	
663.75	6163	
663.94	4677.6	
664.13	5502.2	
664.31	5872.2	
664.5	6280.4	
664.69	4969.7	
664.87	5219.6	
665.06	5597.8	
665.25	6157.6	
665.43	5443.5	
665.62	5437.4	
665.8	6374	
665.99	5875.6	
666.18	4614.8	
666.36	4789.5	
666.55	6422.4	
666.74	6327.5	
666.92	4404.5	
667.11	5664.7	
667.29	5946.6	
667.48	6363.7	
667.67	5300.8	
667.85	4659.8	
668.04	5847	
668.22	5898.1	
668.41	4749.2	
668.6	4934.2	
668.78	5767.8	
668.97	5930.2	
669.15	5053	
669.34	4241.3	
669.53	5806.7	
669.71	6062	
669.9	4345.8	
670.08	4875.5	
670.27	5691.3	
670.46	6252.4	
670.64	5067.4	
670.83	5188.9	
671.01	5662	
671.2	6081.8	
671.38	4471.4	
671.57	4334.9	
671.76	6602.7	
671.94	6982.9	
672.13	4304.8	
672.31	5169.8	
672.5	6336.4	
672.69	5778	
672.87	4471.4	
673.06	4613.4	
673.24	6199.2	
673.43	5864.7	
673.61	4876.2	
673.8	4640.7	
673.98	6331.6	
674.17	6436.8	
674.36	5063.3	
674.54	5009.3	
674.73	6044.9	
674.91	6337.1	
675.1	4718.5	
675.28	4368.3	
675.47	5911.1	
675.65	6416.3	
675.84	4639.3	
676.03	4887.1	
676.21	5934.3	
676.4	5505.6	
676.58	5255.8	
676.77	5007.3	
676.95	6984.9	
677.14	5786.2	
677.32	4430.4	
677.51	4284.4	
677.69	6383.5	
677.88	5575.9	
678.06	4370.4	
678.25	4454.3	
678.44	6044.9	
678.62	5832.6	
678.81	4283.7	
678.99	4905.6	
679.18	6603.3	
679.36	6292.7	
679.55	4655.7	
679.73	5114.5	
679.92	6235.4	
680.1	5793.7	
680.29	5504.9	
680.47	4593.6	
680.66	5831.2	
680.84	6375.3	
681.03	4188.8	
681.21	4903.5	
681.4	5900.2	
681.58	5776.6	
681.77	4519.9	
681.95	4376.5	
682.14	6479.8	
682.32	6651.8	
682.51	5091.9	
682.69	4304.8	
682.88	5831.9	
683.06	6219.7	
683.25	4837.3	
683.43	5225.1	
683.62	6021.7	
683.8	6352.8	
683.99	5324.7	
684.17	4807.3	
684.36	6966.5	
684.54	5993.7	
684.73	4255	
684.91	4422.9	
685.1	6305	
685.28	5776.6	
685.46	4809.3	
685.65	4846.9	
685.83	6355.5	
686.02	5860.6	
686.2	4470	
686.39	4544.4	
686.57	5595.7	
686.76	6763.1	
686.94	4422.2	
687.13	4500.1	
687.31	6243.6	
687.5	5941.2	
687.68	4136.9	
687.86	5096	
688.05	7181.5	
688.23	5521.3	
688.42	5049.6	
688.6	4451.6	
688.79	5847	
688.97	5854.5	
689.16	4814.8	
689.34	4044.7	
689.52	6275.7	
689.71	6604	
689.89	5036	
690.08	4528.1	
690.26	6085.9	
690.45	5922	
690.63	5100.1	
690.81	4674.1	
691	5950	
691.18	5854.5	
691.37	4780.6	
691.55	6257.2	
691.74	5803.9	
691.92	7313.3	
692.1	4702.1	
692.29	4373.8	
692.47	6042.9	
692.66	5509	
692.84	4507.6	
693.02	4866	
693.21	5546.6	
693.39	6007.4	
693.58	4967.7	
693.76	4526.7	
693.94	6812.9	
694.13	6670.2	
694.31	4552	
694.5	5317.2	
694.68	5840.1	
694.86	6109.8	
695.05	4831.8	
695.23	4825	
695.42	6384.2	
695.6	7960.5	
695.78	5324.7	
695.97	4729.4	
696.15	6472.9	
696.34	5943.9	
696.52	4447.5	
696.7	5090.6	
696.89	6166.4	
697.07	5765	
697.25	5002.5	
697.44	6116.6	
697.62	6256.5	
697.81	6421.7	
697.99	4872.1	
698.17	5128.1	
698.36	5771.2	
698.54	6303	
698.72	5081.7	
698.91	4317.1	
699.09	5963	
699.28	5820.3	
699.46	4814.8	
699.64	4758.8	
699.83	5795.8	
700.01	6715.3	
700.19	5320.6	
700.38	4141.7	
700.56	6691.4	
700.74	5859.2	
700.93	4416.1	
701.11	5104.9	
701.29	6271.6	
701.48	7118.7	
701.66	4557.4	
701.84	4668	
702.03	6067.4	
702.21	6507.8	
702.39	4405.2	
702.58	4754.7	
702.76	6375.3	
702.94	6404	
703.13	4336.2	
703.31	6124.1	
703.49	5857.9	
703.68	6757.6	
703.86	4489.8	
704.04	5214.8	
704.23	6275	
704.41	6521.4	
704.59	4661.9	
704.78	5365.7	
704.96	7410.9	
705.14	6386.9	
705.33	4444.1	
705.51	5074.2	
705.69	6016.9	
705.87	6686.6	
706.06	5187.5	
706.24	4457.1	
706.42	6354.8	
706.61	6422.4	
706.79	5297.4	
706.97	4423.6	
707.16	5915.2	
707.34	6282.5	
707.52	5313.8	
707.7	4627.7	
707.89	5960.3	
708.07	5790.3	
708.25	5324	
708.44	5380.7	
708.62	5914.5	
708.8	6735.1	
708.98	5466	
709.17	4760.2	
709.35	6215.6	
709.53	6320	
709.72	4457.1	
709.9	4793.6	
710.08	6500.9	
710.26	6530.3	
710.45	5710.4	
710.63	4720.6	
710.81	6113.2	
710.99	6244.3	
711.18	5214.1	
711.36	4820.9	
711.54	6090	
711.72	6625.2	
711.91	4894.6	
712.09	4472.8	
712.27	6268.1	
712.45	7011.6	
712.64	5128.8	
712.82	4302.8	
713	5806	
713.18	5957.5	
713.37	4414.1	
713.55	5302.2	
713.73	6509.8	
713.91	5638.7	
714.1	4668.7	
714.28	4364.2	
714.46	6263.4	
714.64	5698.1	
714.83	3947.1	
715.01	4532.8	
715.19	5799.2	
715.37	5297.4	
715.55	4272.7	
715.74	4474.8	
715.92	6425.2	
716.1	4935.6	
716.28	5292	
716.47	4628.4	
716.65	5578.7	
716.83	5505.6	
717.01	4468	
717.19	4459.8	
717.38	7040.9	
717.56	5352.7	
717.74	4665.3	
717.92	3938.2	
718.1	6223.8	
718.29	5529.5	
718.47	3726.6	
718.65	4231.8	
718.83	6163	
719.01	6094.1	
719.2	3659.7	
719.38	4515.8	
719.56	5827.2	
719.74	6976.1	
719.92	4195.6	
720.11	4982.7	
720.29	5963	
720.47	5293.3	
720.65	3891.8	
720.83	4457.7	
721.02	5515.9	
721.2	5410.7	
721.38	4565.6	
721.56	3984.7	
721.74	5027.1	
721.92	5080.3	
722.11	4788.8	
722.29	4601.1	
722.47	6037.4	
722.65	5425.8	
722.83	3962.1	
723.01	4628.4	
723.2	5462.6	
723.38	5728.9	
723.56	3598.3	
723.74	4431.8	
723.92	5146.5	
724.1	5939.1	
724.29	3923.9	
724.47	4736.3	
724.65	5236.7	
724.83	5031.9	
725.01	3848.1	
725.19	4446.1	
725.37	5160.9	
725.56	5158.2	
725.74	3734.8	
725.92	3943.7	
726.1	5038.7	
726.28	5392.3	
726.46	4193.6	
726.64	4011.3	
726.83	5438	
727.01	5501.5	
727.19	3719.1	
727.37	4268	
727.55	5453.1	
727.73	5780.1	
727.91	3726.6	
728.09	3583.9	
728.28	5810.8	
728.46	6021.7	
728.64	4332.8	
728.82	4345.8	
729	6528.9	
729.18	6098.9	
729.36	3730.7	
729.54	5479.7	
729.72	6761	
729.91	5474.9	
730.09	5195	
730.27	4203.1	
730.45	5421.7	
730.63	5872.2	
730.81	4678.2	
730.99	3969	
731.17	6286.6	
731.35	5227.1	
731.53	4257.7	
731.71	4082.3	
731.9	6059.9	
732.08	6129.6	
732.26	4296.6	
732.44	4038.6	
732.62	6178	
732.8	5769.8	
732.98	4543.1	
733.16	3904.1	
733.34	5766.4	
733.52	4904.2	
733.7	4266.6	
733.88	4401.8	
734.07	5716.6	
734.25	5543.2	
734.43	3826.3	
734.61	4948.6	
734.79	6590.4	
734.97	5453.1	
735.15	3912.3	
735.33	4232.5	
735.51	5672.2	
735.69	5417.6	
735.87	4951.3	
736.05	4240.7	
736.23	5573.9	
736.41	5337	
736.59	4134.8	
736.77	4265.9	
736.95	5781.4	
737.13	5371.8	
737.32	3926.6	
737.5	4070.7	
737.68	6308.4	
737.86	5293.3	
738.04	3791.5	
738.22	5171.8	
738.4	5179.3	
738.58	5545.9	
738.76	4296.6	
738.94	3488.4	
739.12	5322.7	
739.3	5214.8	
739.48	4659.1	
739.66	4490.5	
739.84	5520	
740.02	5438	
740.2	3551.9	
740.38	3741.6	
740.56	5737	
740.74	4904.9	
740.92	4302.8	
741.1	4182	
741.28	5285.1	
741.46	5192.3	
741.64	3942.3	
741.82	4330.8	
742	5377.3	
742.18	5236	
742.36	4048.2	
742.54	3800.3	
742.72	5808.7	
742.9	4862.6	
743.08	4382.7	
743.26	3440.6	
743.44	5864	
743.62	5770.5	
743.8	4491.2	
743.98	3793.5	
744.16	5504.9	
744.34	5310.4	
744.52	4351.3	
744.7	4351.9	
744.88	5692	
745.06	5331.5	
745.24	4403.1	
745.42	4472.1	
745.6	5791.7	
745.78	5634.6	
745.96	3561.4	
746.14	3780.6	
746.32	6364.4	
746.5	5651	
746.68	4173.8	
746.86	3787.4	
747.03	5971.2	
747.21	4825.7	
747.39	4200.4	
747.57	3827.7	
747.75	5399.1	
747.93	5689.3	
748.11	3794.9	
748.29	3698.6	
748.47	6612.2	
748.65	5235.3	
748.83	4307.6	
749.01	4075.5	
749.19	5525.4	
749.37	4932.9	
749.55	3999.7	
749.73	4080.9	
749.91	5403.9	
750.09	5106.3	
750.26	4061.1	
750.44	3564.8	
750.62	5323.4	
750.8	5324	
750.98	3551.9	
751.16	3785.3	
751.34	5491.3	
751.52	4932.2	
751.7	4421.6	
751.88	3553.2	
752.06	5754.8	
752.24	5504.3	
752.42	3486.3	
752.59	3719.1	
752.77	5309	
752.95	6276.3	
753.13	4276.2	
753.31	3828.3	
753.49	5125.4	
753.67	5350	
753.85	4082.3	
754.03	3694.5	
754.21	5625.1	
754.38	5927.5	
754.56	3848.1	
754.74	3212.6	
754.92	5026.4	
755.1	5511.1	
755.28	3204.4	
755.46	3274.7	
755.64	6174.6	
755.82	6255.9	
755.99	3493.8	
756.17	3494.5	
756.35	4351.9	
756.53	5530.2	
756.71	2722.4	
756.89	3444	
757.07	5185.5	
757.25	4534.2	
757.42	3803.1	
757.6	4522.6	
757.78	5283.8	
757.96	4500.8	
758.14	3579.8	
758.32	3265.8	
758.5	4213.4	
758.67	4835.3	
758.85	3398.3	
759.03	3498.6	
759.21	4992.3	
759.39	4499.4	
759.57	3108.1	
759.75	3941.7	
759.92	5433.3	
760.1	4957.4	
760.28	4220.9	
760.46	4384	
760.64	4719.2	
760.82	4529.4	
760.99	4102.8	
761.17	3508.9	
761.35	5364.3	
761.53	4495.3	
761.71	3577.8	
761.89	4139.6	
762.06	5279.7	
762.24	4814.1	
762.42	3693.9	
762.6	3483.6	
762.78	4851.6	
762.96	5299.5	
763.13	4011.3	
763.31	3657	
763.49	5454.4	
763.67	4818.2	
763.85	4242	
764.02	4694.6	
764.2	5669.5	
764.38	4953.4	
764.56	3635.1	
764.74	4255	
764.91	5697.4	
765.09	4875.5	
765.27	3417.4	
765.45	3151.1	
765.63	5783.5	
765.8	5587.5	
765.98	3037.8	
766.16	3263.1	
766.34	4525.3	
766.52	4445.5	
766.69	3973.1	
766.87	3178.4	
767.05	4928.1	
767.23	5724.1	
767.41	3433.1	
767.58	3562.1	
767.76	5289.2	
767.94	5332.9	
768.12	3504.8	
768.29	3973.1	
768.47	4885.8	
768.65	5487.2	
768.83	3219.4	
769	3974.4	
769.18	4644.1	
769.36	5159.5	
769.54	4083.6	
769.72	3186	
769.89	5384.1	
770.07	5426.4	
770.25	3491.8	
770.43	4381.3	
770.6	5983.5	
770.78	6213.5	
770.96	3655.6	
771.14	4091.2	
771.31	5345.9	
771.49	4853.7	
771.67	2961.4	
771.85	3193.5	
772.02	4246.1	
772.2	4838.7	
772.38	3651.5	
772.55	3323.2	
772.73	5056.4	
772.91	4856.4	
773.09	3625.6	
773.26	3694.5	
773.44	4985.4	
773.62	4831.8	
773.8	3282.2	
773.97	3117.7	
774.15	5125.4	
774.33	4768.4	
774.5	3216	
774.68	3454.9	
774.86	5085.1	
775.04	4837.3	
775.21	3280.8	
775.39	3250.1	
775.57	5030.5	
775.74	5233.2	
775.92	3098.6	
776.1	3038.5	
776.27	4941.7	
776.45	5933	
776.63	3338.2	
776.81	2912.9	
776.98	4732.2	
777.16	5505.6	
777.34	3396.9	
777.51	3568.9	
777.69	4797	
777.87	4544.4	
778.04	3501.3	
778.22	3870.7	
778.4	4532.8	
778.57	5073.5	
778.75	2876.7	
778.93	3124.5	
779.1	4491.2	
779.28	4303.5	
779.46	2848	
779.64	3263.8	
779.81	5186.8	
779.99	5774.6	
780.17	3816.7	
780.34	3909.6	
780.52	4810	
780.69	4935.6	
780.87	3538.2	
781.05	3146.4	
781.22	4848.2	
781.4	4909.7	
781.58	3343	
781.75	2665.1	
781.93	4898.1	
782.11	4349.9	
782.28	3913	
782.46	3273.3	
782.64	4305.5	
782.81	4996.4	
782.99	3328.6	
783.17	3317	
783.34	4881	
783.52	4375.1	
783.69	3390.8	
783.87	4082.3	
784.05	4618.9	
784.22	4431.1	
784.4	4048.8	
784.58	3540.9	
784.75	5171.1	
784.93	4497.3	
785.1	3250.8	
785.28	3725.3	
785.46	4904.9	
785.63	4364.9	
785.81	3345	
785.99	3168.2	
786.16	4629.1	
786.34	4881	
786.51	3207.1	
786.69	3515.7	
786.87	4201.7	
787.04	4638.6	
787.22	3099.3	
787.39	3760.1	
787.57	4429.8	
787.75	5266.7	
787.92	3906.8	
788.1	3818.8	
788.27	4351.3	
788.45	4202.4	
788.63	3685	
788.8	2736.8	
788.98	4752.7	
789.15	4157.4	
789.33	2850.1	
789.5	3226.9	
789.68	5149.3	
789.86	5190.2	
790.03	3624.9	
790.21	3196.9	
790.38	5175.9	
790.56	4541.7	
790.73	3112.2	
790.91	3104.7	
791.09	4451.6	
791.26	4940.4	
791.44	3315	
791.61	2898.6	
791.79	4448.9	
791.96	4475.5	
792.14	2955.2	
792.32	2641.9	
792.49	4405.2	
792.67	4546.5	
792.84	2989.4	
793.02	2833.7	
793.19	5092.6	
793.37	5331.5	
793.54	2697.2	
793.72	2939.5	
793.89	5364.3	
794.07	4468	
794.25	3295.9	
794.42	2739.5	
794.6	5246.2	
794.77	4879.6	
794.95	3584.6	
795.12	3136.8	
795.3	4475.5	
795.47	4902.2	
795.65	3437.2	
795.82	3364.8	
796	4300.1	
796.17	5699.5	
796.35	3235.8	
796.52	3774.4	
796.7	4846.9	
796.87	4915.1	
797.05	3252.2	
797.22	3818.8	
797.4	4926.7	
797.57	5614.2	
797.75	3368.9	
797.92	3141.6	
798.1	5108.3	
798.27	4321.2	
798.45	2757.9	
798.62	2914.3	
798.8	4642.1	
798.97	5012.7	
799.15	3501.3	
799.32	3286.3	
799.5	4167.6	
799.67	4623.6	
799.85	3622.2	
800.02	2691	
800.2	4396.3	
800.37	4593.6	
800.55	3682.2	
800.72	3134.1	
800.9	5033.9	
801.07	5299.5	
801.25	4153.3	
801.42	3484.3	
801.6	5038.7	
801.77	4727.4	
801.95	3258.3	
802.12	3107.5	
802.29	4840.7	
802.47	4794.3	
802.64	3444.7	
802.82	2699.9	
802.99	4431.1	
803.17	5126.7	
803.34	3392.8	
803.52	3015.3	
803.69	5606	
803.87	4202.4	
804.04	3299.3	
804.21	3413.3	
804.39	5264.6	
804.56	4554.7	
804.74	2863.1	
804.91	3402.4	
805.09	4407.2	
805.26	4452.3	
805.44	2903.3	
805.61	3151.1	
805.78	4971.1	
805.96	4869.4	
806.13	3433.8	
806.31	3653.6	
806.48	4075.5	
806.66	4461.8	
806.83	3457.7	
807	3359.4	
807.18	4464.6	
807.35	4732.9	
807.53	3322.5	
807.7	2764.8	
807.87	5309.7	
808.05	4453	
808.22	3618.8	
808.4	2748.4	
808.57	4411.3	
808.74	4172.4	
808.92	3060.3	
809.09	3889.1	
809.27	4412	
809.44	4812.7	
809.61	2741.5	
809.79	2994.1	
809.96	5435.3	
810.14	4911.7	
810.31	2726.5	
810.48	3281.5	
810.66	4519.9	
810.83	5010	
811.01	3107.5	
811.18	3433.8	
811.35	5006.6	
811.53	4016.7	
811.7	3654.9	
811.87	3398.3	
812.05	4506.2	
812.22	4347.2	
812.39	2994.1	
812.57	2923.1	
812.74	4559.5	
812.92	5663.3	
813.09	3319.8	
813.26	3469.3	
813.44	5476.3	
813.61	4387.4	
813.78	2722.4	
813.96	3543	
814.13	4503.5	
814.3	4271.4	
814.48	3867.9	
814.65	3237.2	
814.82	5273.5	
815	4243.4	
815.17	3270.6	
815.34	3904.8	
815.52	4354.7	
815.69	4323.3	
815.87	3215.3	
816.04	3266.5	
816.21	4472.8	
816.38	4052.9	
816.56	3185.3	
816.73	3042.6	
816.9	5468.1	
817.08	4962.9	
817.25	3048.7	
817.42	3676.8	
817.6	4150.6	
817.77	4431.8	
817.94	3383.9	
818.12	2975	
818.29	4283.7	
818.46	6172.6	
818.64	3198.9	
818.81	2938.8	
818.98	4220.2	
819.16	5787.6	
819.33	3489.7	
819.5	3306.1	
819.67	4703.5	
819.85	5156.1	
820.02	3218.7	
820.19	3435.8	
820.37	4631.8	
820.54	4389.5	
820.71	3366.9	
820.88	4074.8	
821.06	4599.7	
821.23	4244.8	
821.4	3394.8	
821.58	3345.7	
821.75	4949.9	
821.92	4547.2	
822.09	2794.1	
822.27	2854.9	
822.44	4490.5	
822.61	4323.3	
822.79	2738.1	
822.96	5040.1	
823.13	4752.7	
823.3	4175.8	
823.48	3157.3	
823.65	2855.6	
823.82	5019.6	
823.99	4163.5	
824.17	3982.6	
824.34	2955.2	
824.51	5693.4	
824.68	4511	
824.86	3039.9	
825.03	3390.1	
825.2	4457.7	
825.37	5231.2	
825.55	3044	
825.72	3278.8	
825.89	5654.4	
826.06	5257.1	
826.24	3275.4	
826.41	3193.5	
826.58	5286.5	
826.75	4610	
826.92	2663	
827.1	2884.2	
827.27	6967.9	
827.44	5603.2	
827.61	3113.6	
827.79	3685	
827.96	4327.4	
828.13	4449.6	
828.3	3235.1	
828.47	2765.4	
828.65	4746.5	
828.82	4668.7	
828.99	4008.6	
829.16	3518.4	
829.34	4950.6	
829.51	4828.4	
829.68	3254.9	
829.85	3349.8	
830.02	5263.3	
830.2	4982.7	
830.37	2626.9	
830.54	3927.3	
830.71	5565.7	
830.88	4502.1	
831.05	2626.9	
831.23	3020.8	
831.4	5392.3	
831.57	5808	
831.74	3063.8	
831.91	2754.5	
832.09	4787.5	
832.26	4980	
832.43	3143.6	
832.6	3515.7	
832.77	4693.9	
832.94	5295.4	
833.12	2613.9	
833.29	3148.4	
833.46	4785.4	
833.63	6022.4	
833.8	3462.4	
833.97	3171.6	
834.15	5043.5	
834.32	4881.7	
834.49	3273.3	
834.66	3320.4	
834.83	5072.1	
835	4281.6	
835.17	3104.7	
835.35	3054.2	
835.52	4883	
835.69	4788.2	
835.86	3224.2	
836.03	2646	
836.2	4965.6	
836.37	4642.7	
836.55	3166.2	
836.72	2975	
836.89	4653.7	
837.06	5082.4	
837.23	3221.5	
837.4	3448.1	
837.57	5588.2	
837.75	5991.7	
837.92	2869.9	
838.09	3035.8	
838.26	4678.2	
838.43	5079	
838.6	3293.8	
838.77	2989.4	
838.94	5754.1	
839.11	5620.3	
839.29	3149.8	
839.46	2551.1	
839.63	4998.4	
839.8	4709.6	
839.97	3061.7	
840.14	3007.1	
840.31	4831.8	
840.48	4991.6	
840.65	2594.1	
840.82	3024.8	
841	4981.3	
841.17	4844.1	
841.34	2826.2	
841.51	2891.7	
841.68	4891.2	
841.85	4717.8	
842.02	2955.2	
842.19	2510.1	
842.36	4737	
842.53	4773.1	
842.7	2890.4	
842.87	3395.5	
843.05	6011.5	
843.22	4657.1	
843.39	2696.5	
843.56	3004.4	
843.73	4560.1	
843.9	5072.1	
844.07	4429.1	
844.24	3709.6	
844.41	6741.2	
844.58	4307.6	
844.75	2779.1	
844.92	2981.8	
845.09	4972.5	
845.26	4931.5	
845.43	2854.9	
845.6	3028.9	
845.77	4969.1	
845.94	4732.2	
846.12	3217.4	
846.29	3273.3	
846.46	5147.2	
846.63	4949.9	
846.8	2875.3	
846.97	3330	
847.14	5282.4	
847.31	4904.2	
847.48	3218.7	
847.65	3420.8	
847.82	5122.7	
847.99	5091.9	
848.16	3645.4	
848.33	3435.8	
848.5	4630.5	
848.67	5272.2	
848.84	2856.9	
849.01	2975.7	
849.18	4494.6	
849.35	4276.8	
849.52	3467.2	
849.69	2779.8	
849.86	5128.8	
850.03	5188.2	
850.2	2815.3	
850.37	3402.4	
850.54	5157.5	
850.71	4679.6	
850.88	3341.6	
851.05	2809.8	
851.22	4891.9	
851.39	5287.2	
851.56	2704	
851.73	3192.1	
851.9	4431.8	
852.07	5087.2	
852.24	3134.1	
852.41	2818.7	
852.58	4821.6	
852.75	4485.7	
852.92	3163.4	
853.09	2762	
853.26	4575.2	
853.43	5270.8	
853.6	2843.3	
853.77	2497.8	
853.94	5338.4	
854.11	4418.8	
854.28	4091.2	
854.44	3053.5	
854.61	5599.1	
854.78	5202.5	
854.95	2776.4	
855.12	3480.2	
855.29	4090.5	
855.46	5405.3	
855.63	2835.8	
855.8	3813.3	
855.97	4564.2	
856.14	5261.9	
856.31	3860.4	
856.48	3086.3	
856.65	4655.7	
856.82	4362.9	
856.99	2712.9	
857.16	3050.8	
857.33	5793	
857.49	4678.9	
857.66	3013.2	
857.83	3213.9	
858	4692.6	
858.17	4831.8	
858.34	2663	
858.51	2828.2	
858.68	5397.1	
858.85	5426.4	
859.02	3235.1	
859.19	3370.3	
859.36	4409.3	
859.52	4371.7	
859.69	2847.4	
859.86	3334.1	
860.03	4423.6	
860.2	5344.5	
860.37	2639.1	
860.54	2824.8	
860.71	5107.6	
860.88	5362.3	
861.05	3147	
861.21	3474	
861.38	5299.5	
861.55	4272.1	
861.72	2629.6	
861.89	3153.2	
862.06	5183.4	
862.23	5484.5	
862.4	2778.4	
862.56	2951.8	
862.73	4985.4	
862.9	4820.9	
863.07	3252.2	
863.24	2595.5	
863.41	4364.2	
863.58	4443.4	
863.75	2796.2	
863.91	3269.9	
864.08	5321.3	
864.25	5014.1	
864.42	3446.7	
864.59	3941.7	
864.76	5608.7	
864.93	4342.4	
865.09	2757.9	
865.26	3028.3	
865.43	5323.4	
865.6	5541.8	
865.77	2493.7	
865.94	2795.5	
866.1	5314.5	
866.27	5046.2	
866.44	4133.5	
866.61	2714.2	
866.78	4702.1	
866.95	4993.6	
867.11	2809.8	
867.28	2521	
867.45	5254.4	
867.62	4401.8	
867.79	3172.3	
867.96	2819.4	
868.12	4360.8	
868.29	5062.6	
868.46	2887	
868.63	3661.8	
868.8	5238	
868.97	5062.6	
869.13	2893.8	
869.3	2992.1	
869.47	4976.6	
869.64	5149.3	
869.81	2839.2	
869.97	2859	
870.14	4898.7	
870.31	5401.2	
870.48	2817.3	
870.65	3480.9	
870.81	4676.9	
870.98	4689.8	
871.15	3183.9	
871.32	2924.5	
871.48	5000.5	
871.65	5449.6	
871.82	2802.3	
871.99	3127.2	
872.16	5769.1	
872.32	5268.1	
872.49	2899.2	
872.66	2810.5	
872.83	5104.2	
872.99	4483	
873.16	3158.7	
873.33	2772.9	
873.5	4800.4	
873.67	4874.2	
873.83	2968.2	
874	3670.6	
874.17	4980	
874.34	5582.8	
874.5	3523.2	
874.67	3430.3	
874.84	5406.6	
875.01	4317.1	
875.17	3897.3	
875.34	2820.1	
875.51	4841.4	
875.68	5720	
875.84	3372.3	
876.01	4030.4	
876.18	5060.5	
876.34	5062.6	
876.51	2805.7	
876.68	2788.7	
876.85	4646.8	
877.01	5298.1	
877.18	3963.5	
877.35	2745.6	
877.52	4882.4	
877.68	4362.2	
877.85	2781.8	
878.02	2779.8	
878.18	4700.8	
878.35	4581.3	
878.52	2289.6	
878.69	3107.5	
878.85	5081.7	
879.02	4971.8	
879.19	3890.5	
879.35	2970.2	
879.52	5055.8	
879.69	5192.3	
879.86	2508.8	
880.02	3110.9	
880.19	4746.5	
880.36	5615.5	
880.52	3185.3	
880.69	3292.5	
880.86	5098.1	
881.02	5122.7	
881.19	3089.7	
881.36	3031.7	
881.52	5048.2	
881.69	4526.7	
881.86	3041.9	
882.02	2954.5	
882.19	5259.9	
882.36	5986.2	
882.52	2912.2	
882.69	3853.6	
882.86	4844.8	
883.02	4839.4	
883.19	3347.1	
883.36	3201.7	
883.52	5124.7	
883.69	5766.4	
883.86	2892.4	
884.02	2655.5	
884.19	5059.2	
884.36	4822.3	
884.52	3121.1	
884.69	3026.9	
884.86	4599.1	
885.02	5566.4	
885.19	3088.3	
885.36	3227.6	
885.52	4735.6	
885.69	4933.6	
885.86	4006.5	
886.02	3536.2	
886.19	5121.3	
886.35	4621.6	
886.52	3110.2	
886.69	3855	
886.85	4375.1	
887.02	5329.5	
887.19	5329.5	
887.35	5329.5	
887.52	5329.5	
887.68	5329.5	
887.85	5329.5	
888.02	5329.5	
888.18	5329.5	
888.35	5329.5	
888.51	5329.5	
888.68	5329.5	
888.85	5329.5	
889.01	5329.5	
889.18	5329.5	
889.35	5329.5	
889.51	5329.5	
889.68	5329.5	
889.84	5329.5	
890.01	5329.5	
890.17	5329.5	
890.34	5329.5	
890.51	5329.5	
890.67	5329.5	
890.84	5329.5	
891	5329.5	
891.17	5329.5	
891.34	5329.5	
891.5	5329.5	
891.67	5329.5	
891.83	5329.5	
892	5329.5	
892.16	5329.5	
892.33	5329.5	
892.5	5329.5	
892.66	5329.5	
892.83	5329.5	
892.99	5329.5	
893.16	5329.5	
893.32	5329.5	
893.49	5329.5	
893.65	5329.5	
893.82	5329.5	
893.99	5329.5	
894.15	5329.5	
894.32	5329.5	
894.48	5329.5	
894.65	5329.5	
894.81	5329.5	
894.98	5329.5	
895.14	5329.5	
895.31	5329.5	
895.47	5329.5	
895.64	5329.5	
895.81	5329.5	
895.97	5329.5	
896.14	5329.5	
896.3	5329.5	
896.47	5329.5	
896.63	5329.5	
896.8	5329.5	
896.96	5329.5	
897.13	5329.5	
897.29	5329.5	
897.46	5329.5	
897.62	5329.5	
897.79	5329.5	
897.95	5329.5	
898.12	5329.5	
898.28	5329.5	
898.45	5329.5	
898.61	5329.5	
898.78	5329.5	
898.94	5329.5	
899.11	5329.5	
899.27	5329.5	
899.44	5329.5	
899.6	5329.5	
899.77	5329.5	
899.93	5329.5	
900.1	5329.5	
900.26	5329.5	
900.43	5329.5	
900.59	5329.5	
900.76	5329.5	
900.92	5329.5	
901.09	5329.5	
901.25	5329.5	
901.42	5329.5	
901.58	5329.5	
901.75	5329.5	
901.91	5329.5	
902.07	5329.5	
902.24	5329.5	
902.4	5329.5	
902.57	5329.5	
902.73	5329.5	
902.9	5329.5	
903.06	5329.5	
903.23	5329.5	
903.39	5329.5	
903.56	5329.5	
903.72	5329.5	
903.88	5329.5	
904.05	5329.5	
904.21	5329.5	
904.38	5329.5	
904.54	5329.5	
904.71	5329.5	
904.87	5329.5	
905.03	5329.5	
905.2	5329.5	
905.36	5329.5	
905.53	5329.5	
905.69	5329.5	
905.86	5329.5	
906.02	5329.5	
906.18	5329.5	
906.35	5329.5	
906.51	5329.5	
906.68	5329.5	
906.84	5329.5	
907.01	5329.5	
907.17	5329.5	
907.33	5329.5	
907.5	5329.5	
907.66	5329.5	
907.83	5329.5	
907.99	5329.5	
908.15	5329.5	
908.32	5329.5	
908.48	5329.5	
908.65	5329.5	
908.81	5329.5	
908.97	5329.5	
909.14	5329.5	
909.3	5329.5	
909.47	5329.5	
909.63	5329.5	
909.79	5329.5	
909.96	5329.5	
910.12	5329.5	
910.28	5329.5	
910.45	5329.5	
910.61	5329.5	
910.78	5329.5	
910.94	5329.5	
911.1	5329.5	
911.27	5329.5	
911.43	5329.5	
911.59	5329.5	
911.76	5329.5	
911.92	5329.5	
912.08	5329.5	
912.25	5329.5	
912.41	5329.5	
912.57	5329.5	
912.74	5329.5	
912.9	5329.5	
913.07	5329.5	
913.23	5329.5	
913.39	5329.5	
913.56	5329.5	
913.72	5329.5	
913.88	5329.5	
914.05	5329.5	
914.21	5329.5	
914.37	5329.5	
914.54	5329.5	
914.7	5329.5	
914.86	5329.5	
915.03	5329.5	
915.19	5329.5	
