Wavelength	Intensities	
nm	a.u.	
179.22	1656.1	
179.44	1654.8	
179.65	1657.5	
179.86	1652	
180.08	1659.5	
180.29	3742.3	
180.51	2927.9	
180.72	4784.7	
180.94	5390.9	
181.15	2611.2	
181.37	2551.1	
181.58	4646.8	
181.79	4827.7	
182.01	2695.1	
182.22	2847.4	
182.44	4881	
182.65	4257	
182.87	3515.7	
183.08	3086.3	
183.29	5113.1	
183.51	4313	
183.72	2856.2	
183.94	3872	
184.15	4614.1	
184.37	4502.1	
184.58	2550.4	
184.79	3276.1	
185.01	4356	
185.22	4889.2	
185.44	3416	
185.65	2985.3	
185.86	4608.6	
186.08	4248.2	
186.29	2538.8	
186.51	2646	
186.72	4372.4	
186.94	4948.6	
187.15	3102.7	
187.36	3080.1	
187.58	6104.3	
187.79	4687.1	
188.01	3150.5	
188.22	4711.7	
188.43	5399.1	
188.65	4767	
188.86	2732.7	
189.08	3167.5	
189.29	4394.9	
189.5	4414.1	
189.72	2829.6	
189.93	2932	
190.15	4976.6	
190.36	5635.3	
190.57	3129.3	
190.79	2995.5	
191	4937.7	
191.22	4956.1	
191.43	3158.7	
191.64	2676	
191.86	5158.8	
192.07	5014.1	
192.29	2784.6	
192.5	2895.8	
192.71	4945.8	
192.93	4457.1	
193.14	2837.1	
193.35	2934.1	
193.57	4453.6	
193.78	4974.5	
194	2371.5	
194.21	2819.4	
194.42	4251.6	
194.64	4603.8	
194.85	3080.1	
195.07	3488.4	
195.28	4543.1	
195.49	4106.9	
195.71	3665.2	
195.92	2743.6	
196.13	4748.6	
196.35	4756.7	
196.56	3931.4	
196.78	3055.6	
196.99	5702.2	
197.2	5302.2	
197.42	3389.4	
197.63	3124.5	
197.84	4235.9	
198.06	4741	
198.27	2911.5	
198.48	3682.9	
198.7	4461.8	
198.91	4546.5	
199.13	3115	
199.34	3111.5	
199.55	4987.5	
199.77	4008.6	
199.98	2774.3	
200.19	3190.7	
200.41	4557.4	
200.62	4281.6	
200.83	3148.4	
201.05	3420.8	
201.26	4566.3	
201.47	4390.8	
201.69	2812.5	
201.9	2744.3	
202.11	4591.5	
202.33	5252.4	
202.54	2919	
202.76	3252.9	
202.97	4647.5	
203.18	4663.9	
203.4	3212.6	
203.61	3241.9	
203.82	4635.9	
204.04	4375.1	
204.25	3115	
204.46	3110.2	
204.68	4579.3	
204.89	4738.3	
205.1	3005.7	
205.32	2709.5	
205.53	4881	
205.74	4935.6	
205.96	2424.8	
206.17	3213.3	
206.38	4772.4	
206.6	4855.1	
206.81	3474	
207.02	2927.2	
207.24	4772.4	
207.45	5079.6	
207.66	2979.1	
207.88	2624.1	
208.09	4711	
208.3	4609.3	
208.52	2744.3	
208.73	2987.3	
208.94	4539.7	
209.15	5021.6	
209.37	3018.7	
209.58	3101.3	
209.79	4940.4	
210.01	4451.6	
210.22	2452.8	
210.43	2608.4	
210.65	4511.7	
210.86	4821.6	
211.07	2990	
211.29	2788	
211.5	4741	
211.71	4564.9	
211.93	2788.7	
212.14	2781.8	
212.35	4553.3	
212.56	4622.3	
212.78	3117.7	
212.99	2590	
213.2	5208	
213.42	4463.9	
213.63	2860.3	
213.84	3034.4	
214.06	4188.8	
214.27	4201.1	
214.48	2962.7	
214.69	3145	
214.91	5045.5	
215.12	5092.6	
215.33	3158	
215.55	3403.7	
215.76	5446.9	
215.97	4805.2	
216.18	3052.2	
216.4	3049.4	
216.61	4389.5	
216.82	4884.4	
217.04	2831	
217.25	2907.4	
217.46	4987.5	
217.67	4833.9	
217.89	2534.7	
218.1	2612.5	
218.31	4616.1	
218.53	4699.4	
218.74	2915.6	
218.95	2852.1	
219.16	4567	
219.38	5241.4	
219.59	2841.9	
219.8	3266.5	
220.01	5505.6	
220.23	4593.6	
220.44	3493.8	
220.65	2736.8	
220.87	4618.2	
221.08	5058.5	
221.29	2679.4	
221.5	3358	
221.72	5816.9	
221.93	4325.3	
222.14	3084.9	
222.35	3581.9	
222.57	4620.2	
222.78	4856.4	
222.99	2989.4	
223.2	3167.5	
223.42	4763.6	
223.63	4840.7	
223.84	2375.6	
224.05	2383.8	
224.27	5468.1	
224.48	5187.5	
224.69	3633.1	
224.9	3114.3	
225.12	4675.5	
225.33	4508.9	
225.54	2609.8	
225.75	2813.2	
225.97	4280.3	
226.18	4503.5	
226.39	2915.6	
226.6	2816.6	
226.82	4446.8	
227.03	4270.7	
227.24	3105.4	
227.45	2658.9	
227.67	4876.9	
227.88	5149.3	
228.09	3420.1	
228.3	3395.5	
228.52	4842.8	
228.73	4518.5	
228.94	2912.9	
229.15	2677.4	
229.36	4574.5	
229.58	4560.8	
229.79	2939.5	
230	3340.2	
230.21	5313.8	
230.43	4569.7	
230.64	3102	
230.85	3149.8	
231.06	4934.2	
231.28	4911.7	
231.49	2661	
231.7	3081.5	
231.91	4842.1	
232.12	4524	
232.34	2719.7	
232.55	3004.4	
232.76	4985.4	
232.97	4668	
233.18	2743.6	
233.4	3100.6	
233.61	4675.5	
233.82	4335.5	
234.03	2928.6	
234.25	2892.4	
234.46	6044.9	
234.67	4564.9	
234.88	3208.5	
235.09	2848.7	
235.31	4668	
235.52	4526	
235.73	3061	
235.94	2678.7	
236.15	4412.7	
236.37	5347.9	
236.58	2770.2	
236.79	2970.9	
237	4771.8	
237.21	4246.8	
237.43	3180.5	
237.64	2601.6	
237.85	7307.8	
238.06	4268	
238.27	3172.3	
238.48	2657.6	
238.7	4814.1	
238.91	4491.2	
239.12	2936.1	
239.33	3067.2	
239.54	4345.1	
239.76	4496.7	
239.97	2940.9	
240.18	2979.8	
240.39	5352.7	
240.6	4669.4	
240.82	3094.5	
241.03	2648	
241.24	4549.9	
241.45	5182.7	
241.66	2770.2	
241.87	3257.6	
242.09	5129.5	
242.3	5289.2	
242.51	3226.2	
242.72	3032.4	
242.93	4851	
243.14	4558.8	
243.36	3362.8	
243.57	3673.4	
243.78	5119.9	
243.99	4828.4	
244.2	2977.1	
244.41	2738.8	
244.63	4261.8	
244.84	4701.5	
245.05	3136.8	
245.26	2982.5	
245.47	4807.3	
245.68	4911.7	
245.9	3763.5	
246.11	3125.9	
246.32	4443.4	
246.53	4767.7	
246.74	4607.2	
246.95	2615.3	
247.16	4292.5	
247.38	4539	
247.59	2599.6	
247.8	3037.1	
248.01	4292.5	
248.22	4544.4	
248.43	2761.3	
248.64	2942.9	
248.86	4283	
249.07	4418.2	
249.28	2717.7	
249.49	3125.9	
249.7	4960.2	
249.91	4969.1	
250.12	2620.7	
250.34	2674	
250.55	4678.9	
250.76	4582.7	
250.97	3033.7	
251.18	3131.3	
251.39	4965.6	
251.6	4657.1	
251.81	3091.8	
252.03	3137.5	
252.24	4415.4	
252.45	4851.6	
252.66	2663.7	
252.87	3256.3	
253.08	4610.7	
253.29	5747.3	
253.5	2704	
253.72	3527.3	
253.93	4515.8	
254.14	5173.2	
254.35	2861	
254.56	2981.2	
254.77	4720.6	
254.98	4369	
255.19	2905.4	
255.41	3520.5	
255.62	4708.3	
255.83	5049.6	
256.04	3146.4	
256.25	3054.2	
256.46	5345.9	
256.67	4379.9	
256.88	3022.1	
257.09	3422.2	
257.31	4284.4	
257.52	4358.1	
257.73	3758.7	
257.94	2859.6	
258.15	4511	
258.36	4503.5	
258.57	3493.8	
258.78	2389.3	
258.99	4929.5	
259.2	4433.9	
259.41	2853.5	
259.63	3017.3	
259.84	5110.4	
260.05	5372.5	
260.26	3642.7	
260.47	2826.2	
260.68	4976.6	
260.89	4498.7	
261.1	3399.6	
261.31	2741.5	
261.52	5018.2	
261.73	5174.5	
261.95	3564.8	
262.16	3196.9	
262.37	5000.5	
262.58	5067.4	
262.79	3560.1	
263	2887	
263.21	4560.1	
263.42	4153.3	
263.63	3147	
263.84	2893.1	
264.05	4965	
264.26	5075.5	
264.47	3512.3	
264.69	3169.6	
264.9	5093.3	
265.11	4675.5	
265.32	2824.1	
265.53	2851.5	
265.74	4652.3	
265.95	4179.9	
266.16	3042.6	
266.37	3345.7	
266.58	4702.1	
266.79	4401.1	
267	2849.4	
267.21	2712.9	
267.42	4240	
267.63	4601.1	
267.84	2936.8	
268.06	2609.1	
268.27	4933.6	
268.48	4986.8	
268.69	2951.1	
268.9	3345	
269.11	5078.3	
269.32	4188.1	
269.53	2976.4	
269.74	2842.6	
269.95	4701.5	
270.16	4183.3	
270.37	3054.2	
270.58	3431.7	
270.79	4515.1	
271	4887.8	
271.21	3176.4	
271.42	2976.4	
271.63	4767.7	
271.84	4244.8	
272.05	2518.3	
272.26	2748.4	
272.47	4617.5	
272.68	4683.7	
272.89	2954.5	
273.11	3267.2	
273.32	4386.1	
273.53	5199.8	
273.74	3153.2	
273.95	3124.5	
274.16	4878.9	
274.37	4519.9	
274.58	3318.4	
274.79	2752.5	
275	4721.9	
275.21	4971.1	
275.42	3854.3	
275.63	3297.2	
275.84	4824.3	
276.05	5748	
276.26	3121.1	
276.47	2971.6	
276.68	4556.7	
276.89	5276.9	
277.1	3296.5	
277.31	2675.3	
277.52	4740.4	
277.73	5044.8	
277.94	2667.8	
278.15	2903.3	
278.36	4756.1	
278.57	4305.5	
278.78	2862.4	
278.99	3221.5	
279.2	4369.7	
279.41	4305.5	
279.62	3663.8	
279.83	2732.7	
280.04	5373.2	
280.25	4332.1	
280.46	3671.3	
280.67	2998.2	
280.88	4375.8	
281.09	5053.7	
281.3	3117	
281.51	3815.4	
281.72	4420.2	
281.93	4897.4	
282.14	2858.3	
282.35	3070.6	
282.56	4975.9	
282.77	4912.4	
282.98	2920.4	
283.19	3452.2	
283.4	5752.7	
283.61	4504.2	
283.82	2749.1	
284.03	3535.5	
284.24	4741.7	
284.45	4982.7	
284.66	3670.6	
284.87	3461.7	
285.08	5016.2	
285.29	5050.3	
285.5	2666.5	
285.71	2934.1	
285.92	4941.7	
286.12	5418.2	
286.33	3590.8	
286.54	2992.8	
286.75	4868	
286.96	4487.8	
287.17	2796.2	
287.38	3424.2	
287.59	4375.8	
287.8	4383.3	
288.01	2983.2	
288.22	3245.3	
288.43	4728.8	
288.64	4200.4	
288.85	3355.9	
289.06	3261.7	
289.27	4891.2	
289.48	5180.7	
289.69	3669.3	
289.9	3308.8	
290.11	5035.3	
290.32	4408.6	
290.53	3425.6	
290.74	3160.7	
290.94	4864.6	
291.15	4894.6	
291.36	2940.2	
291.57	3278.8	
291.78	4463.9	
291.99	4158.7	
292.2	2776.4	
292.41	3173.7	
292.62	4954	
292.83	4775.2	
293.04	3816	
293.25	2837.1	
293.46	4493.2	
293.67	4964.3	
293.88	2815.3	
294.09	2759.3	
294.29	4317.8	
294.5	4656.4	
294.71	3056.9	
294.92	2937.5	
295.13	4495.3	
295.34	5394.3	
295.55	2647.3	
295.76	2586.6	
295.97	4858.5	
296.18	5273.5	
296.39	2706.7	
296.6	2833	
296.81	4671.4	
297.01	4869.4	
297.22	2904	
297.43	2889	
297.64	4418.8	
297.85	4276.8	
298.06	2420	
298.27	2605	
298.48	4569	
298.69	4393.6	
298.9	3054.9	
299.11	2762.7	
299.31	4269.3	
299.52	4250.9	
299.73	3212.6	
299.94	3161.4	
300.15	4619.5	
300.36	4367	
300.57	3174.4	
300.78	3101.3	
300.99	4455	
301.2	4623.6	
301.4	2882.9	
301.61	3023.5	
301.82	4814.8	
302.03	4869.4	
302.24	3334.1	
302.45	2720.4	
302.66	4792.2	
302.87	4999.8	
303.08	2867.8	
303.29	3715.7	
303.49	4427	
303.7	4610.7	
303.91	2612.5	
304.12	3534.1	
304.33	4240.7	
304.54	4743.8	
304.75	2894.5	
304.96	2717	
305.16	4773.8	
305.37	5195	
305.58	2533.3	
305.79	2628.2	
306	4840.7	
306.21	4094.6	
306.42	2945	
306.63	4106.9	
306.83	4448.9	
307.04	4823	
307.25	3115	
307.46	3035.8	
307.67	4103.4	
307.88	4853.7	
308.09	2889.7	
308.29	2876	
308.5	4659.1	
308.71	4958.8	
308.92	2997.5	
309.13	2735.4	
309.34	4579.9	
309.55	4559.5	
309.75	3495.9	
309.96	3212.6	
310.17	4880.3	
310.38	4349.2	
310.59	3239.2	
310.8	2684.9	
311.01	4433.9	
311.21	4518.5	
311.42	2779.1	
311.63	2833	
311.84	4465.3	
312.05	4608.6	
312.26	3144.3	
312.46	3398.9	
312.67	4459.8	
312.88	4262.5	
313.09	2738.1	
313.3	2722.4	
313.51	5075.5	
313.71	5348.6	
313.92	2741.5	
314.13	2871.3	
314.34	4710.3	
314.55	4582.7	
314.76	3394.8	
314.96	3050.8	
315.17	4721.9	
315.38	4801.8	
315.59	2785.9	
315.8	2714.2	
316.01	5055.1	
316.21	5223.7	
316.42	2730.6	
316.63	3054.9	
316.84	4491.2	
317.05	4972.5	
317.26	3262.4	
317.46	2964.8	
317.67	4594.3	
317.88	4816.8	
318.09	3414	
318.3	2605	
318.5	4478.9	
318.71	4769.7	
318.92	4257	
319.13	3165.5	
319.34	4913.1	
319.54	5040.7	
319.75	2600.9	
319.96	2576.3	
320.17	4784.7	
320.38	4939.7	
320.58	2594.8	
320.79	3005.7	
321	4981.3	
321.21	5034.6	
321.42	3105.4	
321.62	2606.4	
321.83	4364.2	
322.04	4538.3	
322.25	2942.2	
322.46	2794.8	
322.66	4582.7	
322.87	4854.4	
323.08	3337.5	
323.29	2745	
323.5	5302.9	
323.7	4227	
323.91	3597.6	
324.12	3287.7	
324.33	4651.6	
324.53	4784.7	
324.74	3149.8	
324.95	3321.8	
325.16	4226.3	
325.37	4446.8	
325.57	2793.4	
325.78	2837.8	
325.99	4696.7	
326.2	4259.8	
326.4	3779.2	
326.61	2631.6	
326.82	4471.4	
327.03	4640.7	
327.24	3711.6	
327.44	3562.8	
327.65	4798.4	
327.86	4004.5	
328.07	3160	
328.27	2700.6	
328.48	5085.8	
328.69	4239.3	
328.9	3797.6	
329.1	2876.7	
329.31	4558.8	
329.52	5081	
329.73	2835.8	
329.93	3039.2	
330.14	4618.2	
330.35	4724.7	
330.56	4299.4	
330.76	3319.8	
330.97	4470.7	
331.18	4679.6	
331.39	3073.3	
331.59	2529.9	
331.8	4992.9	
332.01	5066	
332.22	2803	
332.42	3151.1	
332.63	4664.6	
332.84	4341.7	
333.05	3078.8	
333.25	2811.9	
333.46	4390.8	
333.67	4547.2	
333.88	2913.6	
334.08	3097.2	
334.29	5757.5	
334.5	4952	
334.7	2753.2	
334.91	3730.7	
335.12	4264.6	
335.33	4786.1	
335.53	3052.2	
335.74	4179.9	
335.95	4533.5	
336.16	4268.6	
336.36	2980.5	
336.57	3412.6	
336.78	4261.8	
336.98	4924	
337.19	3644	
337.4	2974.3	
337.61	5325.4	
337.81	4230.4	
338.02	2846.7	
338.23	3463.8	
338.43	5126.7	
338.64	4335.5	
338.85	2868.5	
339.05	3507.5	
339.26	5178.6	
339.47	4172.4	
339.68	2795.5	
339.88	3846.1	
340.09	4842.8	
340.3	4909.7	
340.5	3178.4	
340.71	2595.5	
340.92	4293.2	
341.13	4986.8	
341.33	2648	
341.54	3222.1	
341.75	4734.9	
341.95	4460.5	
342.16	3067.2	
342.37	3270.6	
342.57	4309.6	
342.78	4493.9	
342.99	3342.3	
343.19	2572.9	
343.4	4868.7	
343.61	4805.2	
343.81	2951.8	
344.02	2717.7	
344.23	4898.7	
344.43	5081.7	
344.64	3390.1	
344.85	3307.5	
345.06	4822.3	
345.26	4969.7	
345.47	3170.3	
345.68	3656.3	
345.88	4208.6	
346.09	4885.8	
346.3	3209.2	
346.5	2512.2	
346.71	4441.4	
346.92	4353.3	
347.12	2693.8	
347.33	3093.1	
347.54	4919.2	
347.74	5137	
347.95	3104.7	
348.16	2444.6	
348.36	4396.3	
348.57	4317.1	
348.78	3183.2	
348.98	3274.7	
349.19	4591.5	
349.39	4188.1	
349.6	2645.3	
349.81	2775.7	
350.01	4776.5	
350.22	4377.9	
350.43	3058.3	
350.63	3568.9	
350.84	4622.9	
351.05	4363.5	
351.25	2792.1	
351.46	2575.7	
351.67	4922	
351.87	4349.2	
352.08	2920.4	
352.29	3278.1	
352.49	4882.4	
352.7	4629.1	
352.9	2717	
353.11	3229.6	
353.32	5299.5	
353.52	4427.7	
353.73	2719.7	
353.94	3355.3	
354.14	4739.7	
354.35	4552.6	
354.55	2781.1	
354.76	3083.6	
354.97	4743.8	
355.17	4507.6	
355.38	2744.3	
355.59	3480.2	
355.79	4370.4	
356	4496	
356.2	2992.8	
356.41	2702.6	
356.62	4168.3	
356.82	4498.7	
357.03	3199.6	
357.24	2909.5	
357.44	4296	
357.65	4400.4	
357.85	3741	
358.06	3046.7	
358.27	4125.3	
358.47	4248.9	
358.68	2639.8	
358.88	3149.1	
359.09	4667.3	
359.3	4882.4	
359.5	3644.7	
359.71	3262.4	
359.91	5177.9	
360.12	4708.3	
360.33	3212.6	
360.53	3528	
360.74	4329.4	
360.94	4338.3	
361.15	3311.6	
361.36	2828.9	
361.56	4882.4	
361.77	4552	
361.97	3613.3	
362.18	2991.4	
362.38	4953.4	
362.59	4202.4	
362.8	2766.1	
363	2727.2	
363.21	4095.3	
363.41	4561.5	
363.62	3079.5	
363.83	3696.6	
364.03	4702.1	
364.24	5126.1	
364.44	3838.6	
364.65	3784.6	
364.85	4498	
365.06	4246.1	
365.27	2819.4	
365.47	2940.2	
365.68	5120.6	
365.88	4461.8	
366.09	3177.8	
366.29	2856.2	
366.5	4551.3	
366.71	4874.8	
366.91	3723.9	
367.12	3236.5	
367.32	5306.3	
367.53	4754	
367.73	3253.5	
367.94	3839.9	
368.14	4795	
368.35	5238	
368.56	3193.5	
368.76	2817.3	
368.97	4882.4	
369.17	5874.3	
369.38	2867.2	
369.58	3071.3	
369.79	4160.8	
369.99	5091.9	
370.2	3800.3	
370.4	3075.4	
370.61	4577.2	
370.82	5431.2	
371.02	3072.6	
371.23	2631.6	
371.43	4179.9	
371.64	4984.8	
371.84	3091.8	
372.05	3815.4	
372.25	5770.5	
372.46	4711	
372.66	3036.5	
372.87	3039.2	
373.07	4846.9	
373.28	5929.6	
373.48	3670	
373.69	3466.5	
373.9	4553.3	
374.1	4548.5	
374.31	3734.8	
374.51	3353.9	
374.72	4948.6	
374.92	4274.1	
375.13	3717.1	
375.33	3222.1	
375.54	4726.7	
375.74	4415.4	
375.95	3261	
376.15	4031.1	
376.36	4772.4	
376.56	4611.3	
376.77	3327.3	
376.97	3545.7	
377.18	5538.4	
377.38	4838.7	
377.59	3711.6	
377.79	3035.1	
378	4631.1	
378.2	4837.3	
378.41	3007.1	
378.61	2947	
378.82	5023	
379.02	4397.7	
379.23	3175.7	
379.43	3792.2	
379.64	5100.1	
379.84	4728.8	
380.05	2997.5	
380.25	2978.4	
380.46	4812.7	
380.66	4583.4	
380.87	3884.3	
381.07	4126.7	
381.28	5265.3	
381.48	4779.3	
381.69	3005.1	
381.89	3081.5	
382.1	4192.2	
382.3	4820.2	
382.51	3783.3	
382.71	4319.8	
382.91	4803.2	
383.12	5114.5	
383.32	3215.3	
383.53	3418.1	
383.73	4760.8	
383.94	4597.7	
384.14	3416	
384.35	2796.2	
384.55	4524	
384.76	4787.5	
384.96	3332.7	
385.17	3443.3	
385.37	4801.8	
385.58	4317.8	
385.78	3512.9	
385.98	2783.2	
386.19	4526.7	
386.39	4756.7	
386.6	3061.7	
386.8	3254.9	
387.01	4764.9	
387.21	4864.6	
387.42	3497.2	
387.62	3848.8	
387.83	4438.6	
388.03	4641.4	
388.23	3321.8	
388.44	3791.5	
388.64	4166.3	
388.85	4201.7	
389.05	3486.3	
389.26	3889.1	
389.46	5602.6	
389.67	5093.3	
389.87	3461.7	
390.07	3529.3	
390.28	4505.5	
390.48	4304.8	
390.69	2960	
390.89	3164.8	
391.1	4465.9	
391.3	4949.3	
391.5	3951.2	
391.71	4372.4	
391.91	4864.6	
392.12	5366.4	
392.32	3950.5	
392.53	3457	
392.73	4515.8	
392.93	4571.1	
393.14	3304.7	
393.34	3782.6	
393.55	4846.2	
393.75	4512.4	
393.95	3331.4	
394.16	3201.7	
394.36	4455	
394.57	4842.8	
394.77	2948.4	
394.98	3147	
395.18	4401.1	
395.38	4532.2	
395.59	3809.9	
395.79	3080.8	
396	4522.6	
396.2	4769	
396.4	3605.1	
396.61	3572.3	
396.81	4861.9	
397.02	4378.6	
397.22	3706.8	
397.42	3782.6	
397.63	4892.6	
397.83	4334.9	
398.04	3020.1	
398.24	3349.8	
398.44	4770.4	
398.65	4051.6	
398.85	2932	
399.05	2934.7	
399.26	4401.8	
399.46	5438	
399.67	3283.6	
399.87	3072.6	
400.07	4638.6	
400.28	4683.7	
400.48	3105.4	
400.69	3807.2	
400.89	5189.6	
401.09	5254.4	
401.3	3009.8	
401.5	3771	
401.7	5312.4	
401.91	5445.5	
402.11	3362.1	
402.32	3452.2	
402.52	5014.1	
402.72	4904.9	
402.93	3620.1	
403.13	2851.5	
403.33	5445.5	
403.54	4592.9	
403.74	3393.5	
403.94	3956	
404.15	4706.2	
404.35	5445.5	
404.56	3297.2	
404.76	4412.7	
404.96	4965.6	
405.17	4803.2	
405.37	3786.7	
405.57	3529.3	
405.78	4978.6	
405.98	4620.9	
406.18	3263.1	
406.39	3752.6	
406.59	4967.7	
406.79	4601.1	
407	3093.8	
407.2	3149.8	
407.4	5213.4	
407.61	5038	
407.81	3190.7	
408.01	4380.6	
408.22	4164.2	
408.42	5479.7	
408.62	3834.5	
408.83	3431	
409.03	4678.2	
409.23	4569.7	
409.44	3452.9	
409.64	3610.6	
409.84	5208	
410.05	5118.6	
410.25	3548.4	
410.45	3407.8	
410.66	4788.8	
410.86	6403.3	
411.06	3594.2	
411.27	3605.1	
411.47	6216.3	
411.67	4858.5	
411.88	3677.5	
412.08	3813.3	
412.28	5253	
412.49	5591	
412.69	3541.6	
412.89	3573	
413.09	5444.9	
413.3	5286.5	
413.5	3629.7	
413.7	3357.3	
413.91	4871.4	
414.11	5415.5	
414.31	3510.9	
414.52	3758.7	
414.72	5236.7	
414.92	5120.6	
415.12	3463.8	
415.33	3828.3	
415.53	5407.3	
415.73	5502.2	
415.94	4048.8	
416.14	3624.9	
416.34	4822.3	
416.55	4589.5	
416.75	4451.6	
416.95	4036.5	
417.15	5423.7	
417.36	5866.7	
417.56	4588.1	
417.76	3855.6	
417.97	5575.3	
418.17	5375.2	
418.37	3665.2	
418.57	3675.4	
418.78	5299.5	
418.98	5106.3	
419.18	4231.1	
419.38	4261.1	
419.59	5018.9	
419.79	4818.2	
419.99	3618.8	
420.2	3801	
420.4	5423.7	
420.6	5554.8	
420.8	3527.3	
421.01	3389.4	
421.21	5320.6	
421.41	5341.8	
421.61	3772.4	
421.82	3614.7	
422.02	5005.2	
422.22	5603.9	
422.42	4109.6	
422.63	3906.2	
422.83	4956.1	
423.03	5831.9	
423.23	3964.9	
423.44	3246	
423.64	5059.2	
423.84	4849.6	
424.04	3574.4	
424.25	3321.1	
424.45	5698.8	
424.65	5618.9	
424.85	3214.6	
425.06	3641.3	
425.26	5830.6	
425.46	5013.4	
425.66	3877.5	
425.87	3741	
426.07	5557.5	
426.27	5341.8	
426.47	3730	
426.67	3390.8	
426.88	5793	
427.08	5387.5	
427.28	3928.7	
427.48	3380.5	
427.69	4754	
427.89	5071.5	
428.09	3848.8	
428.29	3353.9	
428.5	5510.4	
428.7	5259.9	
428.9	3310.2	
429.1	3660.4	
429.3	5259.9	
429.51	5361.6	
429.71	3557.3	
429.91	4028.4	
430.11	5427.1	
430.31	5512.4	
430.52	3652.2	
430.72	3824.2	
430.92	5757.5	
431.12	5370.5	
431.32	3458.3	
431.53	3734.8	
431.73	4690.5	
431.93	5667.4	
432.13	3367.5	
432.33	3271.3	
432.54	5018.2	
432.74	5089.2	
432.94	3211.9	
433.14	4016.7	
433.34	5433.9	
433.55	5033.9	
433.75	3901.4	
433.95	5006.6	
434.15	5216.2	
434.35	4956.8	
434.56	3398.9	
434.76	3041.9	
434.96	5098.1	
435.16	5300.1	
435.36	3290.4	
435.56	4002.4	
435.77	4902.8	
435.97	5008	
436.17	4481	
436.37	3953.9	
436.57	4891.2	
436.78	4751.3	
436.98	3875.4	
437.18	4433.9	
437.38	5275.6	
437.58	4979.3	
437.78	4429.8	
437.99	3566.9	
438.19	5403.2	
438.39	5887.9	
438.59	3556.6	
438.79	3213.3	
438.99	5801.2	
439.2	4981.3	
439.4	3237.8	
439.6	3274.7	
439.8	5186.8	
440	5810.8	
440.2	3924.6	
440.4	3899.3	
440.61	5449.6	
440.81	5765.7	
441.01	3330.7	
441.21	3896.6	
441.41	5692	
441.61	5408	
441.81	4143	
442.02	4728.8	
442.22	6012.2	
442.42	5500.8	
442.62	3395.5	
442.82	3495.9	
443.02	5712.5	
443.22	5069.4	
443.43	3670	
443.63	3308.8	
443.83	4991.6	
444.03	4943.1	
444.23	4162.8	
444.43	3876.1	
444.63	5212.8	
444.83	5978	
445.04	3504.1	
445.24	4250.2	
445.44	5443.5	
445.64	5474.2	
445.84	4021.5	
446.04	4046.1	
446.24	5059.2	
446.44	5680.4	
446.65	3432.4	
446.85	3686.3	
447.05	5292	
447.25	5704.3	
447.45	3791.5	
447.65	3404.4	
447.85	5287.9	
448.05	5037.3	
448.25	3971	
448.46	3921.2	
448.66	5296	
448.86	5030.5	
449.06	3306.8	
449.26	4030.4	
449.46	5438	
449.66	4895.3	
449.86	3703.4	
450.06	3635.8	
450.26	4956.1	
450.47	5322.7	
450.67	3954.6	
450.87	4076.1	
451.07	5539.1	
451.27	5245.5	
451.47	3474.7	
451.67	3947.1	
451.87	5039.4	
452.07	5849	
452.27	3562.8	
452.47	3564.8	
452.67	5322.7	
452.88	5529.5	
453.08	3164.1	
453.28	4470.7	
453.48	6014.2	
453.68	5205.3	
453.88	3493.8	
454.08	3567.6	
454.28	5457.2	
454.48	5253	
454.68	4012.7	
454.88	4281.6	
455.08	5563.6	
455.28	5231.9	
455.48	3360.7	
455.68	3829.7	
455.89	5816.9	
456.09	5528.2	
456.29	3566.2	
456.49	3675.4	
456.69	5729.5	
456.89	5162.2	
457.09	3893.2	
457.29	4134.8	
457.49	5409.4	
457.69	5451.7	
457.89	3803.1	
458.09	3364.1	
458.29	5214.8	
458.49	5735	
458.69	4047.5	
458.89	3609.2	
459.09	5795.8	
459.29	5899.5	
459.49	3735.5	
459.69	4300.7	
459.9	5519.3	
460.1	5156.1	
460.3	3717.1	
460.5	3536.2	
460.7	5605.3	
460.9	5216.2	
461.1	3331.4	
461.3	4044.7	
461.5	5926.1	
461.7	5653.8	
461.9	3540.3	
462.1	3822.9	
462.3	5307.7	
462.5	5746.6	
462.7	3571	
462.9	3653.6	
463.1	6327.5	
463.3	6111.8	
463.5	3737.5	
463.7	4368.3	
463.9	5403.9	
464.1	5609.4	
464.3	3786	
464.5	3975.1	
464.7	5821.7	
464.9	5550	
465.1	4775.9	
465.3	4173.1	
465.5	5996.5	
465.7	5981.4	
465.9	4304.1	
466.1	4214.7	
466.3	5752.7	
466.5	5788.2	
466.7	4719.9	
466.9	4074.8	
467.1	5849.7	
467.3	6399.2	
467.5	4689.2	
467.7	3937.6	
467.9	6490.7	
468.1	6973.3	
468.3	4526	
468.5	4739	
468.7	5629.9	
468.9	5639.4	
469.1	4117.8	
469.3	4594.3	
469.5	6875.7	
469.7	5378	
469.9	4521.2	
470.1	3886.4	
470.3	5727.5	
470.5	5715.2	
470.7	4755.4	
470.9	4105.5	
471.1	5473.5	
471.3	5903.6	
471.5	3894.6	
471.69	5201.8	
471.89	5537.7	
472.09	5173.2	
472.29	4416.1	
472.49	4780.6	
472.69	5316.5	
472.89	5782.8	
473.09	3889.8	
473.29	4024.3	
473.49	5498.1	
473.69	5458.5	
473.89	4577.2	
474.09	4058.4	
474.29	6303	
474.49	6090.7	
474.69	4536.3	
474.89	4144.4	
475.09	5554.8	
475.29	5465.3	
475.49	3855	
475.69	3928	
475.88	6696.9	
476.08	5842.2	
476.28	3769.6	
476.48	4029	
476.68	6148	
476.88	5943.2	
477.08	4015.4	
477.28	4240.7	
477.48	5750	
477.68	6051.7	
477.88	3831.7	
478.08	4020.2	
478.28	6247	
478.48	5647.6	
478.67	4111	
478.87	3752.6	
479.07	6075	
479.27	5769.8	
479.47	4173.1	
479.67	4211.3	
479.87	6101.6	
480.07	6270.9	
480.27	3760.1	
480.47	4783.4	
480.67	5728.2	
480.87	6174.6	
481.06	3929.4	
481.26	4516.5	
481.46	5839.4	
481.66	5661.3	
481.86	4414.7	
482.06	4852.3	
482.26	5625.8	
482.46	6137.1	
482.66	4221.5	
482.86	3904.8	
483.05	5926.1	
483.25	5370.5	
483.45	5878.4	
483.65	4173.8	
483.85	5449.6	
484.05	5642.8	
484.25	4451.6	
484.45	4726	
484.65	6194.4	
484.84	6178	
485.04	4151.9	
485.24	4087.7	
485.44	6542.6	
485.64	5357.5	
485.84	3657.7	
486.04	4614.1	
486.24	5580.7	
486.44	5751.4	
486.63	3639.2	
486.83	4202.4	
487.03	5548.6	
487.23	5588.2	
487.43	3715.7	
487.63	5205.3	
487.83	5702.9	
488.02	6104.3	
488.22	4290.5	
488.42	4674.8	
488.62	6266.1	
488.82	5498.1	
489.02	4095.9	
489.22	4048.8	
489.41	6141.2	
489.61	5925.5	
489.81	3938.9	
490.01	3963.5	
490.21	6080.4	
490.41	6559	
490.61	3894.6	
490.8	3972.4	
491	5758.2	
491.2	5411.4	
491.4	4377.9	
491.6	3876.1	
491.8	5844.2	
491.99	5900.2	
492.19	3766.2	
492.39	3992.9	
492.59	6071.5	
492.79	6218.3	
492.99	4538.3	
493.18	3929.4	
493.38	6244.9	
493.58	6613.6	
493.78	4337.6	
493.98	4043.4	
494.18	5939.8	
494.37	5532.9	
494.57	4441.4	
494.77	4354.7	
494.97	6059.3	
495.17	6171.2	
495.37	4037.9	
495.56	4365.6	
495.76	6326.2	
495.96	6034.7	
496.16	4922	
496.36	4222.9	
496.55	6235.4	
496.75	5806	
496.95	4490.5	
497.15	4329.4	
497.35	6229.9	
497.54	6105.7	
497.74	4233.8	
497.94	5480.4	
498.14	6653.2	
498.34	6436.8	
498.53	4001	
498.73	4541.7	
498.93	5675.6	
499.13	6127.5	
499.33	4392.2	
499.52	4671.4	
499.72	6133.7	
499.92	6216.3	
500.12	4165.6	
500.32	4336.9	
500.51	6254.5	
500.71	6090	
500.91	4856.4	
501.11	4617.5	
501.31	6209.4	
501.5	6512.5	
501.7	5063.3	
501.9	4438.6	
502.1	6047	
502.29	6358.3	
502.49	4682.3	
502.69	4997.7	
502.89	6300.2	
503.09	6271.6	
503.28	4073.4	
503.48	4208.6	
503.68	5827.2	
503.88	5736.4	
504.07	4820.2	
504.27	4481	
504.47	5977.3	
504.67	6152.1	
504.86	4799.1	
505.06	4521.2	
505.26	5926.8	
505.46	6977.4	
505.65	4469.4	
505.85	4743.1	
506.05	5878.4	
506.25	6305.7	
506.44	4119.8	
506.64	4708.3	
506.84	5818.3	
507.04	6393.8	
507.23	4250.2	
507.43	4588.1	
507.63	7035.5	
507.83	5932.3	
508.02	4665.3	
508.22	4376.5	
508.42	7324.9	
508.62	5795.1	
508.81	4541	
509.01	4877.6	
509.21	5681.7	
509.4	6006.7	
509.6	4730.8	
509.8	4250.2	
510	5952.1	
510.19	6756.2	
510.39	4195.6	
510.59	4239.3	
510.79	5808.7	
510.98	6655.2	
511.18	4384.7	
511.38	4328	
511.57	6443.6	
511.77	6135	
511.97	4845.5	
512.17	4326.7	
512.36	6399.2	
512.56	6288.6	
512.76	4165.6	
512.95	4118.5	
513.15	6552.1	
513.35	5453.7	
513.55	4772.4	
513.74	4227	
513.94	6434	
514.14	5928.2	
514.33	4896	
514.53	4642.7	
514.73	6012.2	
514.92	6060.6	
515.12	4302.1	
515.32	4184	
515.51	6162.3	
515.71	6343.2	
515.91	5483.8	
516.11	4257.7	
516.3	7159.7	
516.5	5838.8	
516.7	4723.3	
516.89	5029.8	
517.09	5958.9	
517.29	5956.2	
517.48	4974.5	
517.68	4437.3	
517.88	5752.1	
518.07	6145.3	
518.27	4793.6	
518.47	4182	
518.66	6537.1	
518.86	5720.7	
519.06	4173.1	
519.25	4365.6	
519.45	5840.1	
519.65	6755.6	
519.84	4868.7	
520.04	5281	
520.24	7161.7	
520.43	6266.8	
520.63	4661.2	
520.83	4470.7	
521.02	5892.7	
521.22	6260.6	
521.42	4792.2	
521.61	5226.4	
521.81	6003.3	
522.01	6217	
522.2	4693.3	
522.4	4556	
522.6	6391	
522.79	5556.8	
522.99	4615.4	
523.18	4152.6	
523.38	6273.6	
523.58	6187.6	
523.77	5290.6	
523.97	4043.4	
524.17	7380.2	
524.36	6870.9	
524.56	4988.9	
524.76	4799.1	
524.95	6123.4	
525.15	5935.7	
525.34	4659.8	
525.54	4633.2	
525.74	6392.4	
525.93	5654.4	
526.13	5350	
526.33	4583.4	
526.52	6666.8	
526.72	6153.5	
526.91	5409.4	
527.11	4865.3	
527.31	6565.8	
527.5	6815	
527.7	4827.7	
527.89	4218.1	
528.09	5954.8	
528.29	6277.7	
528.48	5163.6	
528.68	4838	
528.87	6552.1	
529.07	6604.7	
529.27	4813.4	
529.46	4521.2	
529.66	6389.7	
529.85	6659.3	
530.05	4405.9	
530.25	4924.7	
530.44	7236.2	
530.64	6291.4	
530.83	4719.2	
531.03	4876.2	
531.23	6752.2	
531.42	6416.3	
531.62	5392.3	
531.81	4815.5	
532.01	6784.2	
532.21	6888.7	
532.4	4640	
532.6	4824.3	
532.79	7141.9	
532.99	6654.5	
533.18	4932.2	
533.38	5552.7	
533.58	6347.3	
533.77	6765.8	
533.97	4785.4	
534.16	5400.5	
534.36	6985.6	
534.55	6347.3	
534.75	5497.4	
534.95	4891.2	
535.14	6883.9	
535.34	6346.7	
535.53	4669.4	
535.73	5943.2	
535.92	7247.1	
536.12	6451.8	
536.31	4796.3	
536.51	5527.5	
536.71	6811.5	
536.9	6464.1	
537.1	4897.4	
537.29	4975.9	
537.49	6999.3	
537.68	6357.6	
537.88	5244.2	
538.07	4696	
538.27	6529.6	
538.46	7172	
538.66	4623.6	
538.86	4921.3	
539.05	6664.1	
539.25	6823.8	
539.44	5056.4	
539.64	4908.3	
539.83	6445	
540.03	7103	
540.22	4760.2	
540.42	4868.7	
540.61	6675	
540.81	6775.4	
541	5242.1	
541.2	5569.8	
541.39	6389.7	
541.59	6550.1	
541.78	5425.1	
541.98	4839.4	
542.18	6158.9	
542.37	6128.9	
542.57	5086.5	
542.76	5453.7	
542.96	6252.4	
543.15	6616.3	
543.35	5070.8	
543.54	4672.8	
543.74	6749.4	
543.93	6513.2	
544.13	5093.3	
544.32	5894.1	
544.52	6824.5	
544.71	6308.4	
544.91	4530.8	
545.1	5378	
545.3	6317.3	
545.49	6720.8	
545.69	4605.2	
545.88	4977.9	
546.08	7401.4	
546.27	7064.8	
546.47	5247.6	
546.66	4797	
546.86	6869.6	
547.05	7226.6	
547.24	4907.6	
547.44	4760.8	
547.63	6296.1	
547.83	6908.5	
548.02	5116.5	
548.22	5233.2	
548.41	6120.7	
548.61	7040.2	
548.8	4778.6	
549	4752	
549.19	6578.1	
549.39	6869.6	
549.58	4558.8	
549.78	4986.8	
549.97	6886	
550.17	6503.7	
550.36	5590.3	
550.55	6220.4	
550.75	6443.6	
550.94	7110.5	
551.14	4795.7	
551.33	5102.2	
551.53	6055.2	
551.72	6703.7	
551.92	5092.6	
552.11	4915.1	
552.31	6892.1	
552.5	6769.2	
552.69	6057.9	
552.89	4689.2	
553.08	6730.3	
553.28	6555.5	
553.47	4900.8	
553.67	5603.2	
553.86	7169.9	
554.06	6039.5	
554.25	4437.9	
554.44	4777.9	
554.64	7642.3	
554.83	7364.5	
555.03	4794.3	
555.22	5031.2	
555.42	6957.6	
555.61	6696.9	
555.8	4899.4	
556	5041.4	
556.19	6260.6	
556.39	6939.2	
556.58	4942.4	
556.78	4968.4	
556.97	6674.3	
557.16	6453.8	
557.36	5756.8	
557.55	4672.1	
557.75	6001.9	
557.94	7221.1	
558.13	4780	
558.33	4593.6	
558.52	6991.1	
558.72	6168.5	
558.91	4741	
559.1	4868	
559.3	6080.4	
559.49	5893.4	
559.69	4652.3	
559.88	5000.5	
560.07	6577.4	
560.27	6975.4	
560.46	5229.8	
560.66	5289.2	
560.85	6603.3	
561.04	6029.9	
561.24	4682.3	
561.43	4788.2	
561.63	6150.7	
561.82	6412.2	
562.01	5559.6	
562.21	5048.2	
562.4	6664.1	
562.59	7156.3	
562.79	4934.9	
562.98	4668.7	
563.18	6559.6	
563.37	7537.9	
563.56	5167	
563.76	4715.1	
563.95	6225.8	
564.14	6234	
564.34	4967.7	
564.53	4718.5	
564.73	6606.1	
564.92	6747.4	
565.11	5033.9	
565.31	4583.4	
565.5	7034.1	
565.69	6206.7	
565.89	4833.2	
566.08	4911	
566.27	6859.3	
566.47	7136.5	
566.66	5397.1	
566.85	4570.4	
567.05	6623.8	
567.24	6261.3	
567.44	4704.2	
567.63	5645.6	
567.82	6775.4	
568.02	6604.7	
568.21	4741	
568.4	4975.9	
568.6	6555.5	
568.79	6486.6	
568.98	4704.9	
569.18	4743.1	
569.37	6492.7	
569.56	7811.6	
569.76	4947.9	
569.95	5584.1	
570.14	6721.4	
570.34	6595.1	
570.53	4760.8	
570.72	4644.1	
570.91	7088.7	
571.11	6516.6	
571.3	5010.7	
571.49	5636.7	
571.69	6609.5	
571.88	6254.5	
572.07	5253	
572.27	5292.6	
572.46	6188.3	
572.65	6767.9	
572.85	4842.8	
573.04	5047.6	
573.23	7019.8	
573.43	6613.6	
573.62	4685.8	
573.81	5034.6	
574	6657.9	
574.2	6427.9	
574.39	4889.9	
574.58	5074.2	
574.78	7131	
574.97	6611.5	
575.16	5285.1	
575.36	5321.3	
575.55	6897.6	
575.74	6992.4	
575.93	4667.3	
576.13	5254.4	
576.32	6544.6	
576.51	6790.4	
576.71	5007.3	
576.9	5898.8	
577.09	7179.5	
577.28	6712.6	
577.48	5226.4	
577.67	4552.6	
577.86	6512.5	
578.05	6785.6	
578.25	5011.4	
578.44	5115.1	
578.63	6566.5	
578.83	7361.8	
579.02	4699.4	
579.21	5730.2	
579.4	6690.7	
579.6	6556.2	
579.79	5144.5	
579.98	6606.1	
580.17	6899.6	
580.37	7107.8	
580.56	4806.6	
580.75	5304.9	
580.94	7098.3	
581.14	7290.1	
581.33	5552	
581.52	4955.4	
581.71	6851.1	
581.91	7339.2	
582.1	4659.1	
582.29	5078.3	
582.48	6636.8	
582.68	6647.7	
582.87	5451.7	
583.06	5251	
583.25	6948.8	
583.45	6474.3	
583.64	5655.8	
583.83	5997.8	
584.02	6619.7	
584.21	6870.3	
584.41	5542.5	
584.6	5078.3	
584.79	6682.5	
584.98	7066.2	
585.18	4769.7	
585.37	4777.2	
585.56	6511.2	
585.75	6901.7	
585.94	5003.2	
586.14	5421.7	
586.33	7235.5	
586.52	6591.7	
586.71	5289.9	
586.91	5132.2	
587.1	6343.9	
587.29	6964.5	
587.48	5094	
587.67	4952.7	
587.87	6870.3	
588.06	6797.2	
588.25	5945.9	
588.44	5397.8	
588.63	6655.9	
588.83	7060.7	
589.02	5126.7	
589.21	4922.6	
589.4	6580.8	
589.59	6498.2	
589.78	4568.3	
589.98	4677.6	
590.17	6307.1	
590.36	6556.9	
590.55	4289.1	
590.74	4921.3	
590.94	7372	
591.13	6520	
591.32	4778.6	
591.51	4433.2	
591.7	6716	
591.89	6404.7	
592.09	4491.2	
592.28	4832.5	
592.47	5882.4	
592.66	7233.4	
592.85	4493.9	
593.05	4674.8	
593.24	6350.1	
593.43	6961.7	
593.62	4774.5	
593.81	5040.7	
594	6460.7	
594.19	6547.4	
594.39	4625	
594.58	4588.8	
594.77	6638.1	
594.96	6971.3	
595.15	4666	
595.34	5098.1	
595.54	6575.3	
595.73	6076.3	
595.92	4235.9	
596.11	4919.9	
596.3	6978.1	
596.49	6178.7	
596.68	4829.1	
596.88	5061.9	
597.07	6771.9	
597.26	6021	
597.45	4549.9	
597.64	5296.7	
597.83	6228.6	
598.02	6673.6	
598.22	4602.5	
598.41	4996.4	
598.6	6552.8	
598.79	6080.4	
598.98	4663.9	
599.17	5213.4	
599.36	6554.9	
599.55	7139.9	
599.74	5923.4	
599.94	5800.5	
600.13	6817.7	
600.32	6113.2	
600.51	4415.4	
600.7	4526.7	
600.89	7188.4	
601.08	7301.7	
601.27	4398.4	
601.47	4924	
601.66	6779.5	
601.85	7193.1	
602.04	4891.9	
602.23	5044.1	
602.42	6199.2	
602.61	6639.5	
602.8	4743.1	
602.99	4681	
603.18	6438.8	
603.37	6545.3	
603.57	5012.7	
603.76	5444.9	
603.95	7075.7	
604.14	6709.1	
604.33	4721.3	
604.52	4875.5	
604.71	6630	
604.9	6200.6	
605.09	5286.5	
605.28	5199.1	
605.47	7005.4	
605.66	6666.8	
605.86	5088.5	
606.05	4747.2	
606.24	6979.5	
606.43	5919.3	
606.62	4985.4	
606.81	5366.4	
607	6792.4	
607.19	6373.3	
607.38	4551.3	
607.57	4683.7	
607.76	6184.9	
607.95	5926.8	
608.14	5042.1	
608.33	5475.6	
608.52	6187.6	
608.72	6793.1	
608.91	4491.9	
609.1	4440	
609.29	6291.4	
609.48	6053.1	
609.67	5104.2	
609.86	4496.7	
610.05	6096.8	
610.24	6290.7	
610.43	4466.6	
610.62	4205.8	
610.81	7044.3	
611	6865.5	
611.19	4474.8	
611.38	5057.1	
611.57	6524.8	
611.76	7256	
611.95	4364.9	
612.14	4302.1	
612.33	6295.5	
612.52	6062.7	
612.71	4709	
612.9	4216.1	
613.09	5828.5	
613.28	7343.3	
613.47	4556	
613.66	5186.8	
613.85	6492.1	
614.04	6027.9	
614.24	4590.2	
614.43	4100	
614.62	6539.8	
614.81	6493.4	
615	4951.3	
615.19	4935.6	
615.38	6056.5	
615.57	6329.6	
615.76	4868.7	
615.95	5530.9	
616.14	6623.8	
616.33	6337.1	
616.52	5092.6	
616.71	5204.6	
616.9	6486.6	
617.09	6405.4	
617.28	4689.8	
617.47	5467.4	
617.66	5973.2	
617.85	5967.8	
618.04	5217.5	
618.22	4919.9	
618.41	6191	
618.6	6854.6	
618.79	4877.6	
618.98	4586.8	
619.17	7035.5	
619.36	5787.6	
619.55	4769.7	
619.74	4752.7	
619.93	6449.1	
620.12	6063.4	
620.31	5130.2	
620.5	5233.9	
620.69	6832	
620.88	7098.3	
621.07	5661.3	
621.26	5122	
621.45	6604.7	
621.64	6552.1	
621.83	5217.5	
622.02	4577.2	
622.21	6685.9	
622.4	6475.7	
622.59	5515.9	
622.78	5343.8	
622.97	6264.7	
623.16	6874.3	
623.35	5208	
623.54	4598.4	
623.72	6415.6	
623.91	6413.6	
624.1	5328.1	
624.29	4470	
624.48	7165.8	
624.67	6735.8	
624.86	5253	
625.05	4616.8	
625.24	7292.1	
625.43	6308.4	
625.62	6241.5	
625.81	4725.3	
626	6868.2	
626.19	6470.2	
626.38	5257.8	
626.56	4979.3	
626.75	6264.7	
626.94	6827.2	
627.13	5378.6	
627.32	4405.9	
627.51	6738.5	
627.7	7478.5	
627.89	4558.1	
628.08	5350	
628.27	6178	
628.46	6429.3	
628.65	4756.7	
628.83	4517.1	
629.02	6734.4	
629.21	6196.5	
629.4	5025	
629.59	5180.7	
629.78	6152.8	
629.97	6828.6	
630.16	5257.1	
630.35	4840.7	
630.54	7235.5	
630.72	6923.5	
630.91	4840.7	
631.1	5210	
631.29	6593.1	
631.48	6666.1	
631.67	5291.3	
631.86	4890.5	
632.05	6379.4	
632.24	6370.5	
632.42	4739	
632.61	4993.6	
632.8	6436.1	
632.99	6126.2	
633.18	5085.8	
633.37	5342.5	
633.56	6649.8	
633.75	6509.1	
633.93	5135.6	
634.12	4924.7	
634.31	7195.9	
634.5	6877.1	
634.69	4943.1	
634.88	5309.7	
635.07	6455.2	
635.25	6853.9	
635.44	5486.5	
635.63	5623	
635.82	6421.1	
636.01	5879.7	
636.2	5485.1	
636.39	5177.9	
636.57	7228.6	
636.76	6817.7	
636.95	4749.2	
637.14	5782.8	
637.33	6698.9	
637.52	7240.3	
637.7	4691.9	
637.89	5358.2	
638.08	6389.7	
638.27	7364.5	
638.46	5319.9	
638.65	5629.9	
638.83	7404.8	
639.02	6270.2	
639.21	5321.3	
639.4	5633.3	
639.59	6614.3	
639.78	6404	
639.96	4815.5	
640.15	4943.8	
640.34	6553.5	
640.53	6535.1	
640.72	4730.8	
640.91	4857.8	
641.09	6189	
641.28	7075	
641.47	4825	
641.66	5507	
641.85	6605.4	
642.03	6808.8	
642.22	5225.1	
642.41	4990.9	
642.6	6206.7	
642.79	5816.9	
642.97	4801.1	
643.16	5236.7	
643.35	6199.9	
643.54	6159.6	
643.73	4758.1	
643.91	5254.4	
644.1	6081.8	
644.29	6511.2	
644.48	4836.6	
644.67	4865.3	
644.85	6027.2	
645.04	6450.4	
645.23	4600.4	
645.42	4838	
645.6	6099.5	
645.79	6845	
645.98	4760.8	
646.17	4132.8	
646.36	5877.7	
646.54	6297.5	
646.73	5259.2	
646.92	4465.3	
647.11	5997.8	
647.29	6688.7	
647.48	4521.2	
647.67	4378.6	
647.86	6892.1	
648.05	6883.2	
648.23	4736.3	
648.42	5554.1	
648.61	6472.3	
648.8	6328.2	
648.98	4463.2	
649.17	4749.2	
649.36	6036.7	
649.55	5683.8	
649.73	4534.9	
649.92	5061.9	
650.11	5928.2	
650.3	6107	
650.48	4604.5	
650.67	4454.3	
650.86	6362.4	
651.05	5614.2	
651.23	4607.9	
651.42	4527.4	
651.61	6034.7	
651.79	6025.1	
651.98	4661.9	
652.17	4451.6	
652.36	6325.5	
652.54	5692.7	
652.73	4528.7	
652.92	4422.2	
653.11	6409.5	
653.29	6354.2	
653.48	4078.9	
653.67	4674.1	
653.85	6165.8	
654.04	6810.9	
654.23	4885.8	
654.42	4578.6	
654.6	5844.9	
654.79	6397.9	
654.98	4221.5	
655.16	4666.6	
655.35	5739.8	
655.54	5492.7	
655.73	4252.3	
655.91	4159.4	
656.1	6171.2	
656.29	5390.3	
656.47	3917.1	
656.66	5051	
656.85	5764.3	
657.03	5720	
657.22	4205.8	
657.41	4347.8	
657.59	5825.8	
657.78	5554.1	
657.97	4072	
658.16	4537.6	
658.34	6316.6	
658.53	6488.6	
658.72	5139	
658.9	5493.3	
659.09	5986.9	
659.28	5963	
659.46	4415.4	
659.65	4328	
659.84	5675.6	
660.02	6147.3	
660.21	4487.8	
660.4	4248.9	
660.58	6337.1	
660.77	5994.4	
660.96	4657.8	
661.14	4052.9	
661.33	6765.1	
661.52	6634.7	
661.7	4099.4	
661.89	6309.1	
662.08	5701.5	
662.26	5433.9	
662.45	4218.1	
662.64	4330.8	
662.82	6192.4	
663.01	5621.7	
663.2	4305.5	
663.38	4798.4	
663.57	6115.9	
663.75	6010.8	
663.94	4514.4	
664.13	5298.1	
664.31	5688.6	
664.5	6172.6	
664.69	4685.1	
664.87	4987.5	
665.06	5582.8	
665.25	6030.6	
665.43	5220.3	
665.62	5203.9	
665.8	6120.7	
665.99	5803.3	
666.18	4519.2	
666.36	4514.4	
666.55	6216.3	
666.74	6139.8	
666.92	4372.4	
667.11	5313.8	
667.29	5826.5	
667.48	6186.9	
667.67	5076.9	
667.85	4412.7	
668.04	5780.1	
668.22	5814.9	
668.41	4619.5	
668.6	4790.9	
668.78	5649.7	
668.97	5749.3	
669.15	4863.2	
669.34	4169	
669.53	5710.4	
669.71	5913.2	
669.9	4181.3	
670.08	4606.6	
670.27	5595.1	
670.46	6059.9	
670.64	4763.6	
670.83	5004.6	
671.01	5552.7	
671.2	5971.9	
671.38	4272.7	
671.57	4223.6	
671.76	6486.6	
671.94	6761	
672.13	4166.3	
672.31	4869.4	
672.5	6167.1	
672.69	5730.9	
672.87	4283.7	
673.06	4523.3	
673.24	6077.7	
673.43	5727.5	
673.61	4803.2	
673.8	4512.4	
673.98	6110.5	
674.17	6247.7	
674.36	4874.2	
674.54	4760.2	
674.73	5894.1	
674.91	6225.8	
675.1	4554.7	
675.28	4261.8	
675.47	5836.7	
675.65	6161.7	
675.84	4491.2	
676.03	4693.3	
676.21	5741.8	
676.4	5317.2	
676.58	4962.9	
676.77	4853	
676.95	6713.9	
677.14	5641.5	
677.32	4242	
677.51	4182.6	
677.69	6219.7	
677.88	5586.9	
678.06	4216.1	
678.25	4353.3	
678.44	5793	
678.62	5674.9	
678.81	4132.1	
678.99	4683.7	
679.18	6363	
679.36	6074.3	
679.55	4476.2	
679.73	4874.2	
679.92	6032	
680.1	5730.9	
680.29	5270.1	
680.47	4430.4	
680.66	5758.9	
680.84	6177.4	
681.03	4073.4	
681.21	4830.5	
681.4	5634	
681.58	5661.3	
681.77	4323.9	
681.95	4326.7	
682.14	6284.5	
682.32	6431.3	
682.51	4894.6	
682.69	4188.8	
682.88	5674.2	
683.06	6049.7	
683.25	4716.5	
683.43	5010	
683.62	5964.4	
683.8	6183.5	
683.99	5085.8	
684.17	4639.3	
684.36	6750.8	
684.54	5814.2	
684.73	4160.1	
684.91	4276.2	
685.1	6105.7	
685.28	5618.9	
685.46	4693.3	
685.65	4658.4	
685.83	6109.8	
686.02	5779.4	
686.2	4264.6	
686.39	4302.1	
686.57	5399.8	
686.76	6503	
686.94	4273.4	
687.13	4336.9	
687.31	6008.1	
687.5	5724.1	
687.68	4020.8	
687.86	4644.8	
688.05	6969.2	
688.23	5388.9	
688.42	4770.4	
688.6	4308.9	
688.79	5707.7	
688.97	5674.9	
689.16	4609.3	
689.34	3897.3	
689.52	6169.8	
689.71	6313.2	
689.89	4786.8	
690.08	4360.8	
690.26	5932.3	
690.45	5710.4	
690.63	4900.1	
690.81	4586.8	
691	5870.2	
691.18	5612.1	
691.37	4620.9	
691.55	5983.5	
691.74	5614.2	
691.92	6905.8	
692.1	4571.7	
692.29	4195.6	
692.47	5794.4	
692.66	5425.8	
692.84	4423.6	
693.02	4706.2	
693.21	5444.9	
693.39	5866.7	
693.58	4777.9	
693.76	4340.3	
693.94	6522.1	
694.13	6397.2	
694.31	4371.7	
694.5	5095.3	
694.68	5664	
694.86	5929.6	
695.05	4593.6	
695.23	4682.3	
695.42	6146.6	
695.6	7609.6	
695.78	5079	
695.97	4463.9	
696.15	6310.5	
696.34	5875.6	
696.52	4369.7	
696.7	4943.8	
696.89	6074.3	
697.07	5629.9	
697.25	4801.1	
697.44	5736.4	
697.62	6046.3	
697.81	6158.9	
697.99	4678.2	
698.17	4868	
698.36	5771.2	
698.54	6108.4	
698.72	4851	
698.91	4184.7	
699.09	5827.8	
699.28	5694.7	
699.46	4644.8	
699.64	4525.3	
699.83	5740.5	
700.01	6403.3	
700.19	5087.2	
700.38	4014.7	
700.56	6448.4	
700.74	5752.1	
700.93	4255.7	
701.11	4846.2	
701.29	6140.5	
701.48	6868.9	
701.66	4453.6	
701.84	4534.2	
702.03	5881.8	
702.21	6273.6	
702.39	4192.9	
702.58	4604.5	
702.76	6173.3	
702.94	6133	
703.13	4165.6	
703.31	5746.6	
703.49	5709.7	
703.68	6386.9	
703.86	4346.5	
704.04	4977.9	
704.23	6049	
704.41	6266.8	
704.59	4493.9	
704.78	5255.8	
704.96	7126.9	
705.14	6307.1	
705.33	4302.1	
705.51	4872.8	
705.69	5875.6	
705.87	6367.8	
706.06	5012.7	
706.24	4290.5	
706.42	6133	
706.61	6252.4	
706.79	5003.9	
706.97	4217.5	
707.16	5806.7	
707.34	6127.5	
707.52	5020.3	
707.7	4366.3	
707.89	5782.8	
708.07	5657.9	
708.25	5040.7	
708.44	5337	
708.62	5743.9	
708.8	6602.7	
708.98	5187.5	
709.17	4491.9	
709.35	6044.2	
709.53	6123.4	
709.72	4317.1	
709.9	4446.1	
710.08	6292.7	
710.26	6298.2	
710.45	5400.5	
710.63	4499.4	
710.81	5956.9	
710.99	6016.9	
711.18	4948.6	
711.36	4650.9	
711.54	5858.6	
711.72	6364.4	
711.91	4642.1	
712.09	4318.5	
712.27	6085.9	
712.45	6402	
712.64	4829.1	
712.82	4216.8	
713	5639.4	
713.18	5742.5	
713.37	4249.5	
713.55	5035.3	
713.73	6365.1	
713.91	5419.6	
714.1	4521.2	
714.28	4077.5	
714.46	6068.1	
714.64	5544.5	
714.83	3803.1	
715.01	4314.4	
715.19	5660.6	
715.37	5111.7	
715.55	4002.4	
715.74	4222.9	
715.92	6078.4	
716.1	4741.7	
716.28	4993.6	
716.47	4291.9	
716.65	5322.7	
716.83	5265.3	
717.01	4166.3	
717.19	4225.6	
717.38	6713.9	
717.56	5091.9	
717.74	4338.3	
717.92	3797.6	
718.1	5933	
718.29	5343.2	
718.47	3516.4	
718.65	3962.8	
718.83	5812.8	
719.01	5849	
719.2	3553.2	
719.38	4166.9	
719.56	5616.9	
719.74	6586.3	
719.92	4007.9	
720.11	4627	
720.29	5711.8	
720.47	5134.3	
720.65	3724.6	
720.83	4242.7	
721.02	5347.9	
721.2	5252.4	
721.38	4329.4	
721.56	3715.7	
721.74	4874.2	
721.92	4868.7	
722.11	4547.2	
722.29	4338.3	
722.47	5786.2	
722.65	5186.1	
722.83	3785.3	
723.01	4388.8	
723.2	5213.4	
723.38	5537.7	
723.56	3462.4	
723.74	4160.1	
723.92	4943.1	
724.1	5694	
724.29	3675.4	
724.47	4480.3	
724.65	5131.5	
724.83	4910.3	
725.01	3700	
725.19	4190.8	
725.37	4961.5	
725.56	4899.4	
725.74	3514.3	
725.92	3736.2	
726.1	4919.2	
726.28	5145.2	
726.46	3992.2	
726.64	3784.6	
726.83	5167.7	
727.01	5307	
727.19	3515	
727.37	4115.7	
727.55	5293.3	
727.73	5548.6	
727.91	3501.3	
728.09	3386.7	
728.28	5618.9	
728.46	5712.5	
728.64	4134.8	
728.82	4088.4	
729	6217.6	
729.18	5803.9	
729.36	3560.1	
729.54	5087.8	
729.72	6394.4	
729.91	5281.7	
730.09	4861.9	
730.27	4094.6	
730.45	5288.5	
730.63	5586.9	
730.81	4429.1	
730.99	3781.2	
731.17	6066.8	
731.35	4967	
731.53	4046.1	
731.71	3875.4	
731.9	5834	
732.08	5884.5	
732.26	4035.9	
732.44	3786	
732.62	5898.2	
732.8	5627.8	
732.98	4304.1	
733.16	3715.7	
733.34	5606	
733.52	4736.3	
733.7	4028.4	
733.88	4129.4	
734.07	5467.4	
734.25	5325.4	
734.43	3687	
734.61	4562.2	
734.79	6272.2	
734.97	5274.9	
735.15	3729.4	
735.33	3944.4	
735.51	5468.1	
735.69	5253	
735.87	4677.6	
736.05	4115.7	
736.23	5322	
736.41	5099.4	
736.59	3874.8	
736.77	4067.3	
736.95	5651.7	
737.13	5150.6	
737.32	3736.9	
737.5	3839.3	
737.68	6107	
737.86	5183.4	
738.04	3598.3	
738.22	4881.7	
738.4	5086.5	
738.58	5286.5	
738.76	4014	
738.94	3338.2	
739.12	5175.9	
739.3	5063.9	
739.48	4338.3	
739.66	4164.2	
739.84	5257.8	
740.02	5205.9	
740.2	3334.1	
740.38	3626.3	
740.56	5522	
740.74	4650.3	
740.92	4074.8	
741.1	3965.6	
741.28	5166.3	
741.46	5008	
741.64	3777.1	
741.82	4130.8	
742	5154.7	
742.18	5070.8	
742.36	3833.1	
742.54	3637.2	
742.72	5631.2	
742.9	4718.5	
743.08	4107.5	
743.26	3343	
743.44	5612.1	
743.62	5561.6	
743.8	4256.4	
743.98	3624.9	
744.16	5263.3	
744.34	5126.7	
744.52	4143	
744.7	4155.3	
744.88	5451.7	
745.06	5107	
745.24	4147.8	
745.42	4228.4	
745.6	5531.6	
745.78	5389.6	
745.96	3388.7	
746.14	3575.1	
746.32	6030.6	
746.5	5437.4	
746.68	3893.9	
746.86	3562.1	
747.03	5709.1	
747.21	4647.5	
747.39	3984.7	
747.57	3573.7	
747.75	5205.9	
747.93	5445.5	
748.11	3553.2	
748.29	3499.3	
748.47	6321.4	
748.65	5022.3	
748.83	4055.7	
749.01	3832.4	
749.19	5375.9	
749.37	4748.6	
749.55	3792.2	
749.73	3848.1	
749.91	5114.5	
750.09	4958.1	
750.26	3874.1	
750.44	3423.5	
750.62	5104.2	
750.8	5116.5	
750.98	3392.8	
751.16	3617.4	
751.34	5227.1	
751.52	4709	
751.7	4117.8	
751.88	3342.3	
752.06	5523.4	
752.24	5331.5	
752.42	3367.5	
752.59	3586.7	
752.77	5064.6	
752.95	5953.4	
753.13	4078.2	
753.31	3667.2	
753.49	4800.4	
753.67	5204.6	
753.85	3860.4	
754.03	3537.5	
754.21	5354.8	
754.38	5580.7	
754.56	3577.8	
754.74	3008.5	
754.92	4816.8	
755.1	5313.1	
755.28	3009.8	
755.46	3052.8	
755.64	5890.6	
755.82	5929.6	
755.99	3330	
756.17	3344.3	
756.35	4278.9	
756.53	5240.8	
756.71	2590	
756.89	3241.3	
757.07	4971.1	
757.25	4389.5	
757.42	3577.8	
757.6	4145.8	
757.78	5031.2	
757.96	4367	
758.14	3376.4	
758.32	3037.1	
758.5	4044.1	
758.67	4676.2	
758.85	3278.8	
759.03	3287	
759.21	4754.7	
759.39	4364.2	
759.57	2960.7	
759.75	3708.9	
759.92	5252.4	
760.1	4791.6	
760.28	3923.9	
760.46	4119.8	
760.64	4629.1	
760.82	4498	
760.99	3837.9	
761.17	3315.7	
761.35	5177.3	
761.53	4362.9	
761.71	3468.6	
761.89	3791.5	
762.06	5026.4	
762.24	4673.5	
762.42	3418.1	
762.6	3248.8	
762.78	4702.1	
762.96	4675.5	
763.13	3683.6	
763.31	3469.3	
763.49	5104.2	
763.67	4637.3	
763.85	4042	
764.02	4351.3	
764.2	5384.8	
764.38	4762.2	
764.56	3373	
764.74	4005.1	
764.91	5395	
765.09	4679.6	
765.27	3203.7	
765.45	2982.5	
765.63	5564.3	
765.8	5324	
765.98	2937.5	
766.16	3106.8	
766.34	4452.3	
766.52	4249.5	
766.69	3663.8	
766.87	3035.8	
767.05	4736.3	
767.23	5315.2	
767.41	3193.5	
767.58	3413.3	
767.76	5156.8	
767.94	5089.2	
768.12	3237.8	
768.29	3698.6	
768.47	4690.5	
768.65	5279	
768.83	2981.2	
769	3755.3	
769.18	4487.1	
769.36	4878.9	
769.54	3792.8	
769.72	3061.7	
769.89	5173.2	
770.07	5144.5	
770.25	3334.8	
770.43	4152.6	
770.6	5681.1	
770.78	5929.6	
770.96	3401.7	
771.14	3756.7	
771.31	5154.7	
771.49	4674.1	
771.67	2863.7	
771.85	2944.3	
772.02	4171	
772.2	4616.1	
772.38	3592.8	
772.55	3129.3	
772.73	4882.4	
772.91	4707.6	
773.09	3426.3	
773.26	3500	
773.44	4816.1	
773.62	4610	
773.8	3168.9	
773.97	2942.2	
774.15	4812	
774.33	4639.3	
774.5	3089	
774.68	3252.9	
774.86	4953.4	
775.04	4671.4	
775.21	3068.5	
775.39	3039.2	
775.57	4906.9	
775.74	5010	
775.92	2979.8	
776.1	2874	
776.27	4737	
776.45	5603.9	
776.63	3155.2	
776.81	2829.6	
776.98	4581.3	
777.16	5223	
777.34	3172.3	
777.51	3389.4	
777.69	4605.2	
777.87	4410	
778.04	3322.5	
778.22	3616.7	
778.4	4422.2	
778.57	4871.4	
778.75	2719	
778.93	2913.6	
779.1	4341	
779.28	4167.6	
779.46	2733.4	
779.64	3074.7	
779.81	4997.7	
779.99	5539.8	
780.17	3589.4	
780.34	3659.7	
780.52	4607.2	
780.69	4741	
780.87	3330	
781.05	3019.4	
781.22	4701.5	
781.4	4678.9	
781.58	3133.4	
781.75	2523.1	
781.93	4718.5	
782.11	4253.6	
782.28	3697.3	
782.46	3108.8	
782.64	4138.9	
782.81	4846.2	
782.99	3219.4	
783.17	3141.6	
783.34	4682.3	
783.52	4303.5	
783.69	3195.5	
783.87	3847.5	
784.05	4398.4	
784.22	4274.8	
784.4	3814.7	
784.58	3335.5	
784.75	4988.2	
784.93	4394.9	
785.1	3092.4	
785.28	3489.7	
785.46	4761.5	
785.63	4300.1	
785.81	3107.5	
785.99	2962	
786.16	4469.4	
786.34	4644.8	
786.51	3039.2	
786.69	3330	
786.87	4095.9	
787.04	4465.3	
787.22	2930	
787.39	3556.6	
787.57	4297.3	
787.75	4989.5	
787.92	3697.9	
788.1	3617.4	
788.27	4291.9	
788.45	4040	
788.63	3437.2	
788.8	2552.5	
788.98	4559.5	
789.15	3979.9	
789.33	2770.2	
789.5	3080.1	
789.68	4927.4	
789.86	4997.7	
790.03	3364.1	
790.21	2994.1	
790.38	4976.6	
790.56	4392.9	
790.73	2991.4	
790.91	2952.5	
791.09	4331.5	
791.26	4780.6	
791.44	3179.8	
791.61	2730.6	
791.79	4270.7	
791.96	4242	
792.14	2801.6	
792.32	2525.8	
792.49	4285	
792.67	4384	
792.84	2859.6	
793.02	2698.5	
793.19	4650.3	
793.37	5008.6	
793.54	2541.5	
793.72	2747	
793.89	5156.1	
794.07	4242	
794.25	3196.9	
794.42	2594.8	
794.6	4993.6	
794.77	4681	
794.95	3366.2	
795.12	2936.1	
795.3	4291.9	
795.47	4657.8	
795.65	3252.9	
795.82	3104.7	
796	4188.8	
796.17	5347.9	
796.35	3001.6	
796.52	3551.2	
796.7	4675.5	
796.87	4710.3	
797.05	3057.6	
797.22	3603.7	
797.4	4743.8	
797.57	5361.6	
797.75	3177.8	
797.92	2955.9	
798.1	4917.9	
798.27	4144.4	
798.45	2672.6	
798.62	2787.3	
798.8	4498.7	
798.97	4788.2	
799.15	3284.3	
799.32	3166.8	
799.5	3974.4	
799.67	4514.4	
799.85	3343.7	
800.02	2574.3	
800.2	4281.6	
800.37	4463.2	
800.55	3454.2	
800.72	2994.8	
800.9	4858.5	
801.07	5085.8	
801.25	3850.2	
801.42	3267.9	
801.6	4902.2	
801.77	4507.6	
801.95	3011.9	
802.12	2883.5	
802.29	4605.9	
802.47	4552.6	
802.64	3237.2	
802.82	2544.9	
802.99	4270.7	
803.17	4911.7	
803.34	3183.9	
803.52	2849.4	
803.69	5331.5	
803.87	4036.5	
804.04	3136.1	
804.21	3152.5	
804.39	5033.9	
804.56	4369.7	
804.74	2714.9	
804.91	3231	
805.09	4302.1	
805.26	4343.1	
805.44	2821.4	
805.61	2994.1	
805.78	4752	
805.96	4709	
806.13	3192.1	
806.31	3435.8	
806.48	3932.1	
806.66	4313.7	
806.83	3230.3	
807	3134.1	
807.18	4287.8	
807.35	4519.2	
807.53	2988.7	
807.7	2636.4	
807.87	5098.1	
808.05	4283	
808.22	3396.9	
808.4	2611.8	
808.57	4179.9	
808.74	3994.2	
808.92	2905.4	
809.09	3581.2	
809.27	4261.1	
809.44	4635.2	
809.61	2626.2	
809.79	2867.2	
809.96	5164.3	
810.14	4752	
810.31	2602.3	
810.48	3088.3	
810.66	4270.7	
810.83	4762.2	
811.01	2916.3	
811.18	3215.3	
811.35	4775.9	
811.53	3850.9	
811.7	3444	
811.87	3280.2	
812.05	4412	
812.22	4283	
812.39	2825.5	
812.57	2782.5	
812.74	4361.5	
812.92	5362.3	
813.09	3070.6	
813.26	3201.7	
813.44	5221	
813.61	4226.3	
813.78	2615.3	
813.96	3416	
814.13	4339	
814.3	4123.2	
814.48	3554.6	
814.65	3069.9	
814.82	5045.5	
815	4089.8	
815.17	3095.2	
815.34	3715	
815.52	4238.6	
815.69	4188.1	
815.87	3067.2	
816.04	2983.9	
816.21	4291.2	
816.38	3905.5	
816.56	2998.9	
816.73	2863.7	
816.9	5288.5	
817.08	4768.4	
817.25	2891.7	
817.42	3438.5	
817.6	3975.1	
817.77	4257.7	
817.94	3196.2	
818.12	2770.9	
818.29	4132.1	
818.46	5803.3	
818.64	2968.9	
818.81	2729.9	
818.98	4089.8	
819.16	5539.1	
819.33	3308.8	
819.5	3103.4	
819.67	4585.4	
819.85	5005.9	
820.02	3086.3	
820.19	3242.6	
820.37	4420.2	
820.54	4237.2	
820.71	3188	
820.88	3855	
821.06	4468.7	
821.23	4188.1	
821.4	3201	
821.58	3130.7	
821.75	4740.4	
821.92	4406.5	
822.09	2620	
822.27	2779.8	
822.44	4347.8	
822.61	4233.8	
822.79	2646.7	
822.96	4688.5	
823.13	4565.6	
823.3	4050.9	
823.48	2969.6	
823.65	2719	
823.82	4828.4	
823.99	4016.1	
824.17	3701.4	
824.34	2772.9	
824.51	5412.1	
824.68	4334.2	
824.86	2869.2	
825.03	3157.3	
825.2	4279.6	
825.37	4989.5	
825.55	2894.5	
825.72	3060.3	
825.89	5315.2	
826.06	5058.5	
826.24	2985.3	
826.41	3033.7	
826.58	5079	
826.75	4512.4	
826.92	2533.3	
827.1	2714.2	
827.27	6589	
827.44	5317.9	
827.61	2936.1	
827.79	3439.2	
827.96	4145.8	
828.13	4293.2	
828.3	3075.4	
828.47	2598.2	
828.65	4563.6	
828.82	4495.3	
828.99	3696.6	
829.16	3335.5	
829.34	4776.5	
829.51	4648.9	
829.68	3074	
829.85	3189.4	
830.02	5052.3	
830.2	4776.5	
830.37	2494.4	
830.54	3614.7	
830.71	5328.1	
830.88	4338.3	
831.05	2521	
831.23	2784.6	
831.4	5162.2	
831.57	5583.4	
831.74	2909.5	
831.91	2573.6	
832.09	4670.7	
832.26	4750.6	
832.43	2925.9	
832.6	3275.4	
832.77	4580.6	
832.94	5042.1	
833.12	2445.3	
833.29	2938.8	
833.46	4612	
833.63	5716.6	
833.8	3219.4	
833.97	2954.5	
834.15	4833.9	
834.32	4730.1	
834.49	3112.9	
834.66	3123.2	
834.83	4881.7	
835	4142.4	
835.17	2861.7	
835.35	2891.7	
835.52	4746.5	
835.69	4621.6	
835.86	3026.9	
836.03	2504	
836.2	4791.6	
836.37	4503.5	
836.55	2957.9	
836.72	2823.5	
836.89	4479.6	
837.06	4879.6	
837.23	3022.1	
837.4	3234.4	
837.57	5309	
837.75	5748	
837.92	2734	
838.09	2940.2	
838.26	4492.6	
838.43	4946.5	
838.6	3115.6	
838.77	2795.5	
838.94	5464	
839.11	5311.7	
839.29	2988.7	
839.46	2423.4	
839.63	4848.2	
839.8	4611.3	
839.97	2947	
840.14	2827.6	
840.31	4670.1	
840.48	4777.9	
840.65	2471.2	
840.82	2886.3	
841	4774.5	
841.17	4655.7	
841.34	2654.2	
841.51	2719	
841.68	4711	
841.85	4576.5	
842.02	2805	
842.19	2398.9	
842.36	4639.3	
842.53	4609.3	
842.7	2734.7	
842.87	3153.9	
843.05	5688.6	
843.22	4510.3	
843.39	2643.9	
843.56	2834.4	
843.73	4435.2	
843.9	4857.8	
844.07	4106.2	
844.24	3455.6	
844.41	6372.6	
844.58	4196.3	
844.75	2603.7	
844.92	2816	
845.09	4720.6	
845.26	4708.3	
845.43	2702	
845.6	2879.4	
845.77	4803.2	
845.94	4587.4	
846.12	2930.6	
846.29	3066.5	
846.46	4966.3	
846.63	4737	
846.8	2676	
846.97	3119.1	
847.14	5085.8	
847.31	4734.2	
847.48	2992.1	
847.65	3259	
847.82	4923.3	
847.99	4861.2	
848.16	3422.2	
848.33	3194.8	
848.5	4430.4	
848.67	5079.6	
848.84	2646	
849.01	2772.3	
849.18	4430.4	
849.35	4160.8	
849.52	3270.6	
849.69	2635.7	
849.86	4911.7	
850.03	4976.6	
850.2	2668.5	
850.37	3170.3	
850.54	4978.6	
850.71	4537.6	
850.88	3193.5	
851.05	2677.4	
851.22	4664.6	
851.39	5053.7	
851.56	2521	
851.73	3033	
851.9	4240.7	
852.07	4946.5	
852.24	2986.6	
852.41	2623.4	
852.58	4696.7	
852.75	4310.3	
852.92	2939.5	
853.09	2596.1	
853.26	4369	
853.43	4985.4	
853.6	2705.4	
853.77	2310.1	
853.94	5107	
854.11	4253.6	
854.28	3778.5	
854.44	2874	
854.61	5399.1	
854.78	4963.6	
854.95	2688.3	
855.12	3233.1	
855.29	3997.6	
855.46	5122.7	
855.63	2691	
855.8	3540.9	
855.97	4441.4	
856.14	4983.4	
856.31	3626.3	
856.48	2898.6	
856.65	4472.1	
856.82	4207.2	
856.99	2558.6	
857.16	2825.5	
857.33	5508.4	
857.49	4508.3	
857.66	2814.6	
857.83	3020.1	
858	4557.4	
858.17	4687.1	
858.34	2551.1	
858.51	2678.7	
858.68	5143.8	
858.85	5206.6	
859.02	3011.2	
859.19	3222.8	
859.36	4291.9	
859.52	4192.9	
859.69	2646.7	
859.86	3067.9	
860.03	4345.8	
860.2	5107	
860.37	2471.2	
860.54	2738.8	
860.71	4833.2	
860.88	5136.3	
861.05	2940.9	
861.21	3304.7	
861.38	5125.4	
861.55	4149.9	
861.72	2465.1	
861.89	2917	
862.06	4911.7	
862.23	5188.9	
862.4	2587.3	
862.56	2738.8	
862.73	4786.8	
862.9	4569	
863.07	3046.7	
863.24	2470.5	
863.41	4262.5	
863.58	4244.8	
863.75	2721.8	
863.91	3063.1	
864.08	5054.4	
864.25	4794.3	
864.42	3268.6	
864.59	3624.9	
864.76	5324.7	
864.93	4265.9	
865.09	2550.4	
865.26	2840.5	
865.43	5038.7	
865.6	5358.2	
865.77	2351.8	
865.94	2648.7	
866.1	5038	
866.27	4801.8	
866.44	3792.8	
866.61	2566.1	
866.78	4554	
866.95	4798.4	
867.11	2604.3	
867.28	2426.2	
867.45	4969.1	
867.62	4298	
867.79	2991.4	
867.96	2640.5	
868.12	4236.6	
868.29	4866.7	
868.46	2651.4	
868.63	3467.9	
868.8	5003.9	
868.97	4832.5	
869.13	2780.5	
869.3	2775	
869.47	4729.4	
869.64	4947.2	
869.81	2663	
869.97	2668.5	
870.14	4695.3	
870.31	5203.9	
870.48	2579.1	
870.65	3261	
870.81	4529.4	
870.98	4519.9	
871.15	2977.7	
871.32	2683.5	
871.48	4746.5	
871.65	5139.7	
871.82	2592	
871.99	2865.8	
872.16	5466.7	
872.32	5060.5	
872.49	2699.2	
872.66	2682.8	
872.83	4874.8	
872.99	4379.9	
873.16	3024.8	
873.33	2623.4	
873.5	4630.5	
873.67	4637.3	
873.83	2752.5	
874	3456.3	
874.17	4757.4	
874.34	5351.3	
874.5	3342.3	
874.67	3223.5	
874.84	5033.2	
875.01	4095.9	
875.17	3553.2	
875.34	2650.8	
875.51	4682.3	
875.68	5466.7	
875.84	3158.7	
876.01	3706.8	
876.18	4885.8	
876.34	4861.9	
876.51	2674.6	
876.68	2607.7	
876.85	4532.8	
877.01	5105.6	
877.18	3651.5	
877.35	2610.5	
877.52	4721.9	
877.68	4261.8	
877.85	2641.2	
878.02	2609.8	
878.18	4516.5	
878.35	4408.6	
878.52	2202.2	
878.69	3055.6	
878.85	4956.8	
879.02	4788.8	
879.19	3680.9	
879.35	2871.3	
879.52	4909	
879.69	4909	
879.86	2448	
880.02	2960	
880.19	4586.1	
880.36	5330.9	
880.52	3033.7	
880.69	3152.5	
880.86	4938.3	
881.02	4919.9	
881.19	2875.3	
881.36	2859.6	
881.52	4777.2	
881.69	4373.8	
881.86	2856.9	
882.02	2841.2	
882.19	5071.5	
882.36	5687.9	
882.52	2726.5	
882.69	3629.7	
882.86	4725.3	
883.02	4713.1	
883.19	3175.7	
883.36	2983.9	
883.52	4966.3	
883.69	5477.6	
883.86	2702	
884.02	2538.1	
884.19	4872.1	
884.36	4639.3	
884.52	3032.4	
884.69	2867.2	
884.86	4462.5	
885.02	5240.8	
885.19	2906.1	
885.36	2981.2	
885.52	4474.1	
885.69	4724	
885.86	3644.7	
886.02	3323.2	
886.19	4926	
886.35	4407.2	
886.52	2898.6	
886.69	3569.6	
886.85	4268.6	
887.02	5068	
887.19	5068	
887.35	5068	
887.52	5068	
887.68	5068	
887.85	5068	
888.02	5068	
888.18	5068	
888.35	5068	
888.51	5068	
888.68	5068	
888.85	5068	
889.01	5068	
889.18	5068	
889.35	5068	
889.51	5068	
889.68	5068	
889.84	5068	
890.01	5068	
890.17	5068	
890.34	5068	
890.51	5068	
890.67	5068	
890.84	5068	
891	5068	
891.17	5068	
891.34	5068	
891.5	5068	
891.67	5068	
891.83	5068	
892	5068	
892.16	5068	
892.33	5068	
892.5	5068	
892.66	5068	
892.83	5068	
892.99	5068	
893.16	5068	
893.32	5068	
893.49	5068	
893.65	5068	
893.82	5068	
893.99	5068	
894.15	5068	
894.32	5068	
894.48	5068	
894.65	5068	
894.81	5068	
894.98	5068	
895.14	5068	
895.31	5068	
895.47	5068	
895.64	5068	
895.81	5068	
895.97	5068	
896.14	5068	
896.3	5068	
896.47	5068	
896.63	5068	
896.8	5068	
896.96	5068	
897.13	5068	
897.29	5068	
897.46	5068	
897.62	5068	
897.79	5068	
897.95	5068	
898.12	5068	
898.28	5068	
898.45	5068	
898.61	5068	
898.78	5068	
898.94	5068	
899.11	5068	
899.27	5068	
899.44	5068	
899.6	5068	
899.77	5068	
899.93	5068	
900.1	5068	
900.26	5068	
900.43	5068	
900.59	5068	
900.76	5068	
900.92	5068	
901.09	5068	
901.25	5068	
901.42	5068	
901.58	5068	
901.75	5068	
901.91	5068	
902.07	5068	
902.24	5068	
902.4	5068	
902.57	5068	
902.73	5068	
902.9	5068	
903.06	5068	
903.23	5068	
903.39	5068	
903.56	5068	
903.72	5068	
903.88	5068	
904.05	5068	
904.21	5068	
904.38	5068	
904.54	5068	
904.71	5068	
904.87	5068	
905.03	5068	
905.2	5068	
905.36	5068	
905.53	5068	
905.69	5068	
905.86	5068	
906.02	5068	
906.18	5068	
906.35	5068	
906.51	5068	
906.68	5068	
906.84	5068	
907.01	5068	
907.17	5068	
907.33	5068	
907.5	5068	
907.66	5068	
907.83	5068	
907.99	5068	
908.15	5068	
908.32	5068	
908.48	5068	
908.65	5068	
908.81	5068	
908.97	5068	
909.14	5068	
909.3	5068	
909.47	5068	
909.63	5068	
909.79	5068	
909.96	5068	
910.12	5068	
910.28	5068	
910.45	5068	
910.61	5068	
910.78	5068	
910.94	5068	
911.1	5068	
911.27	5068	
911.43	5068	
911.59	5068	
911.76	5068	
911.92	5068	
912.08	5068	
912.25	5068	
912.41	5068	
912.57	5068	
912.74	5068	
912.9	5068	
913.07	5068	
913.23	5068	
913.39	5068	
913.56	5068	
913.72	5068	
913.88	5068	
914.05	5068	
914.21	5068	
914.37	5068	
914.54	5068	
914.7	5068	
914.86	5068	
915.03	5068	
915.19	5068	
