Wavelength	Intensities	
nm	a.u.	
179.22	1745.6	
179.44	1732.6	
179.65	1758.5	
179.86	1706.6	
180.08	1742.1	
180.29	4113	
180.51	3067.9	
180.72	5070.1	
180.94	5799.2	
181.15	2805.7	
181.37	2822.1	
181.58	4952.7	
181.79	5152.7	
182.01	2904.7	
182.22	3102.7	
182.44	5171.8	
182.65	4446.8	
182.87	3830.4	
183.08	3437.9	
183.29	5406	
183.51	4521.9	
183.72	3134.8	
183.94	4432.5	
184.15	4859.8	
184.37	4842.8	
184.58	2805.7	
184.79	3682.2	
185.01	4538.3	
185.22	5160.2	
185.44	3816.7	
185.65	3274.7	
185.86	4871.4	
186.08	4459.1	
186.29	2695.1	
186.51	2923.8	
186.72	4554	
186.94	5294.7	
187.15	3281.5	
187.36	3409.2	
187.58	6648.4	
187.79	4922	
188.01	3527.3	
188.22	5290.6	
188.43	5842.9	
188.65	5133.6	
188.86	2915.6	
189.08	3407.8	
189.29	4642.1	
189.5	4657.1	
189.72	3170.3	
189.93	3216.7	
190.15	5298.8	
190.36	6180.8	
190.57	3488.4	
190.79	3360.7	
191	5366.4	
191.22	5312.4	
191.43	3482.9	
191.64	2945.7	
191.86	5545.2	
192.07	5314.5	
192.29	3014.6	
192.5	3142.3	
192.71	5314.5	
192.93	4668.7	
193.14	3163.4	
193.35	3225.6	
193.57	4650.9	
193.78	5331.5	
194	2611.8	
194.21	3041.9	
194.42	4483.7	
194.64	4889.2	
194.85	3407.1	
195.07	3954.6	
195.28	4813.4	
195.49	4296.6	
195.71	4138.9	
195.92	2923.8	
196.13	5039.4	
196.35	5099.4	
196.56	4335.5	
196.78	3429	
196.99	6138.4	
197.2	5783.5	
197.42	3796.9	
197.63	3434.4	
197.84	4364.9	
198.06	5067.4	
198.27	3160	
198.48	4122.6	
198.7	4686.4	
198.91	4840.7	
199.13	3430.3	
199.34	3438.5	
199.55	5237.3	
199.77	4245.4	
199.98	3089.7	
200.19	3453.6	
200.41	4867.3	
200.62	4530.1	
200.83	3540.3	
201.05	3750.5	
201.26	4852.3	
201.47	4614.1	
201.69	3070.6	
201.9	2971.6	
202.11	4877.6	
202.33	5662.6	
202.54	3261	
202.76	3649.5	
202.97	4936.3	
203.18	4995.7	
203.4	3560.1	
203.61	3564.1	
203.82	4939.7	
204.04	4583.4	
204.25	3481.5	
204.46	3334.1	
204.68	4846.9	
204.89	5047.6	
205.1	3311.6	
205.32	2925.9	
205.53	5138.4	
205.74	5306.3	
205.96	2544.9	
206.17	3459	
206.38	5171.8	
206.6	5224.4	
206.81	3905.5	
207.02	3203	
207.24	5046.9	
207.45	5412.8	
207.66	3265.8	
207.88	2890.4	
208.09	5061.9	
208.3	4828.4	
208.52	3048.1	
208.73	3350.5	
208.94	4841.4	
209.15	5425.1	
209.37	3247.4	
209.58	3686.3	
209.79	5288.5	
210.01	4715.8	
210.22	2719.7	
210.43	2835.8	
210.65	4832.5	
210.86	5130.8	
211.07	3281.5	
211.29	3011.2	
211.5	5126.1	
211.71	4820.2	
211.93	3091.1	
212.14	3038.5	
212.35	4813.4	
212.56	4952.7	
212.78	3416.7	
212.99	2878.8	
213.2	5597.1	
213.42	4734.9	
213.63	3160.7	
213.84	3327.3	
214.06	4372.4	
214.27	4460.5	
214.48	3291.8	
214.69	3477.5	
214.91	5383.4	
215.12	5457.2	
215.33	3520.5	
215.55	3826.3	
215.76	5837.4	
215.97	5153.4	
216.18	3384.6	
216.4	3315.7	
216.61	4573.1	
216.82	5222.3	
217.04	3074.7	
217.25	3183.9	
217.46	5310.4	
217.67	5175.2	
217.89	2786.6	
218.1	2846.7	
218.31	4937	
218.53	5001.1	
218.74	3233.7	
218.95	3112.9	
219.16	4855.7	
219.38	5603.9	
219.59	3139.5	
219.8	3657	
220.01	6113.2	
220.23	4892.6	
220.44	3984.7	
220.65	3034.4	
220.87	4934.9	
221.08	5294	
221.29	2898.6	
221.5	3705.5	
221.72	6318.7	
221.93	4622.9	
222.14	3473.4	
222.35	4008.6	
222.57	4911.7	
222.78	5166.3	
222.99	3341.6	
223.2	3459.7	
223.42	5127.4	
223.63	5221.6	
223.84	2560.6	
224.05	2632.3	
224.27	6033.3	
224.48	5603.2	
224.69	4013.3	
224.9	3493.2	
225.12	4976.6	
225.33	4845.5	
225.54	2811.2	
225.75	3099.9	
225.97	4578.6	
226.18	4799.1	
226.39	3329.3	
226.6	3120.4	
226.82	4691.9	
227.03	4581.3	
227.24	3452.2	
227.45	2950.4	
227.67	5160.2	
227.88	5554.1	
228.09	3839.3	
228.3	3786	
228.52	5218.9	
228.73	4758.1	
228.94	3244.7	
229.15	2904	
229.36	4796.3	
229.58	4786.1	
229.79	3271.3	
230	3702.7	
230.21	5672.2	
230.43	4915.8	
230.64	3418.7	
230.85	3554.6	
231.06	5237.3	
231.28	5205.9	
231.49	2896.5	
231.7	3359.4	
231.91	5146.5	
232.12	4881.7	
232.34	2998.2	
232.55	3306.1	
232.76	5374.6	
232.97	4979.3	
233.18	3016.7	
233.4	3366.2	
233.61	4960.2	
233.82	4645.5	
234.03	3186	
234.25	3181.9	
234.46	6534.4	
234.67	4861.9	
234.88	3523.2	
235.09	3093.8	
235.31	5027.8	
235.52	4769.7	
235.73	3430.3	
235.94	2971.6	
236.15	4628.4	
236.37	5713.2	
236.58	3057.6	
236.79	3322.5	
237	5118.6	
237.21	4456.4	
237.43	3519.8	
237.64	2830.3	
237.85	8142.7	
238.06	4618.2	
238.27	3562.1	
238.48	2916.3	
238.7	5132.2	
238.91	4754.7	
239.12	3297.9	
239.33	3368.2	
239.54	4696.7	
239.76	4844.8	
239.97	3226.9	
240.18	3293.8	
240.39	5874.3	
240.6	5045.5	
240.82	3482.2	
241.03	2897.2	
241.24	4887.1	
241.45	5577.3	
241.66	3041.9	
241.87	3565.5	
242.09	5471.5	
242.3	5684.5	
242.51	3604.4	
242.72	3341.6	
242.93	5253	
243.14	4837.3	
243.36	3767.6	
243.57	4091.8	
243.78	5580	
243.99	5144.5	
244.2	3272	
244.41	3011.9	
244.63	4546.5	
244.84	5062.6	
245.05	3505.4	
245.26	3324.5	
245.47	5175.9	
245.68	5257.1	
245.9	4265.9	
246.11	3493.2	
246.32	4689.8	
246.53	5094.7	
246.74	5193.6	
246.95	2844.6	
247.16	4500.1	
247.38	4885.1	
247.59	2812.5	
247.8	3347.7	
248.01	4543.8	
248.22	4851	
248.43	3007.8	
248.64	3244	
248.86	4418.8	
249.07	4740.4	
249.28	3015.3	
249.49	3403	
249.7	5323.4	
249.91	5341.1	
250.12	2798.2	
250.34	2817.3	
250.55	4968.4	
250.76	4878.3	
250.97	3425.6	
251.18	3452.2	
251.39	5302.2	
251.6	5055.1	
251.81	3519.8	
252.03	3487	
252.24	4672.1	
252.45	5216.2	
252.66	2930	
252.87	3596.9	
253.08	4928.8	
253.29	6149.4	
253.5	2925.9	
253.72	4040.6	
253.93	4777.2	
254.14	5696.1	
254.35	3193.5	
254.56	3265.1	
254.77	5027.8	
254.98	4558.8	
255.19	3183.9	
255.41	3969.6	
255.62	4958.8	
255.83	5310.4	
256.04	3558	
256.25	3413.3	
256.46	5821.7	
256.67	4643.4	
256.88	3379.8	
257.09	3762.8	
257.31	4599.1	
257.52	4614.8	
257.73	4186	
257.94	3155.9	
258.15	4773.8	
258.36	4866	
258.57	3912.3	
258.78	2574.3	
258.99	5276.3	
259.2	4785.4	
259.41	3163.4	
259.63	3308.8	
259.84	5530.2	
260.05	5810.8	
260.26	4044.1	
260.47	3092.4	
260.68	5375.9	
260.89	4753.3	
261.1	3699.3	
261.31	3024.8	
261.52	5386.8	
261.73	5649.7	
261.95	4046.8	
262.16	3521.8	
262.37	5412.8	
262.58	5502.2	
262.79	3979.2	
263	3222.1	
263.21	4902.8	
263.42	4712.4	
263.63	3477.5	
263.84	3194.1	
264.05	5295.4	
264.26	5565	
264.47	3906.8	
264.69	3497.2	
264.9	5433.9	
265.11	5079	
265.32	3072	
265.53	3117.7	
265.74	4997	
265.95	4416.8	
266.16	3355.3	
266.37	3689.1	
266.58	5016.2	
266.79	4674.1	
267	3126.6	
267.21	2951.1	
267.42	4532.2	
267.63	4907.6	
267.84	3300.6	
268.06	2896.5	
268.27	5229.1	
268.48	5432.6	
268.69	3295.9	
268.9	3797.6	
269.11	5384.8	
269.32	4414.1	
269.53	3358	
269.74	3088.3	
269.95	5097.4	
270.16	4415.4	
270.37	3303.4	
270.58	3812	
270.79	4779.3	
271	5277.6	
271.21	3485	
271.42	3348.4	
271.63	4986.1	
271.84	4545.1	
272.05	2701.3	
272.26	3032.4	
272.47	4892.6	
272.68	5082.4	
272.89	3255.6	
273.11	3616	
273.32	4685.1	
273.53	5567.7	
273.74	3530.7	
273.95	3498.6	
274.16	5290.6	
274.37	4868	
274.58	3584.6	
274.79	2940.2	
275	4947.2	
275.21	5376.6	
275.42	4316.4	
275.63	3661.1	
275.84	5113.8	
276.05	6177.4	
276.26	3442	
276.47	3281.5	
276.68	4792.2	
276.89	5729.5	
277.1	3679.5	
277.31	2947.7	
277.52	5046.9	
277.73	5330.2	
277.94	2904	
278.15	3194.1	
278.36	5049.6	
278.57	4630.5	
278.78	3133.4	
278.99	3583.3	
279.2	4594.3	
279.41	4546.5	
279.62	4129.4	
279.83	2957.9	
280.04	5847.6	
280.25	4498	
280.46	4090.5	
280.67	3346.4	
280.88	4588.8	
281.09	5408	
281.3	3505.4	
281.51	4326	
281.72	4666	
281.93	5248.3	
282.14	3136.8	
282.35	3362.8	
282.56	5317.2	
282.77	5227.1	
282.98	3252.2	
283.19	3889.8	
283.4	6318	
283.61	4830.5	
283.82	2980.5	
284.03	3975.8	
284.24	4986.8	
284.45	5303.6	
284.66	4034.5	
284.87	3852.2	
285.08	5380	
285.29	5492.7	
285.5	2876	
285.71	3240.6	
285.92	5348.6	
286.12	5830.6	
286.33	4024.3	
286.54	3257.6	
286.75	5268.7	
286.96	4780	
287.17	3001.6	
287.38	3887	
287.59	4669.4	
287.8	4586.1	
288.01	3284.3	
288.22	3685	
288.43	5219.6	
288.64	4448.2	
288.85	3815.4	
289.06	3609.2	
289.27	5238.7	
289.48	5590.3	
289.69	4051.6	
289.9	3775.1	
290.11	5453.1	
290.32	4664.6	
290.53	3831.7	
290.74	3552.5	
290.94	5238	
291.15	5269.4	
291.36	3140.9	
291.57	3638.6	
291.78	4726.7	
291.99	4408.6	
292.2	3041.2	
292.41	3609.2	
292.62	5317.9	
292.83	5111	
293.04	4340.3	
293.25	3095.2	
293.46	4720.6	
293.67	5322	
293.88	3080.1	
294.09	3064.4	
294.29	4528.7	
294.5	4981.3	
294.71	3355.9	
294.92	3204.4	
295.13	4745.1	
295.34	5746.6	
295.55	2882.2	
295.76	2824.8	
295.97	5173.2	
296.18	5777.3	
296.39	2957.9	
296.6	3117.7	
296.81	4933.6	
297.01	5212.1	
297.22	3242.6	
297.43	3117.7	
297.64	4678.2	
297.85	4569.7	
298.06	2698.5	
298.27	2825.5	
298.48	4879.6	
298.69	4682.3	
298.9	3354.6	
299.11	3062.4	
299.31	4493.9	
299.52	4564.2	
299.73	3637.2	
299.94	3530	
300.15	4891.2	
300.36	4571.1	
300.57	3504.1	
300.78	3519.8	
300.99	4781.3	
301.2	4918.5	
301.4	3113.6	
301.61	3362.8	
301.82	5154.1	
302.03	5157.5	
302.24	3775.1	
302.45	3009.1	
302.66	5096.7	
302.87	5358.2	
303.08	3149.1	
303.29	4169.7	
303.49	4718.5	
303.7	4877.6	
303.91	2814.6	
304.12	3971	
304.33	4436.6	
304.54	4952.7	
304.75	3179.8	
304.96	3018	
305.16	5122.7	
305.37	5696.1	
305.58	2800.9	
305.79	2871.3	
306	5111	
306.21	4415.4	
306.42	3081.5	
306.63	4599.7	
306.83	4734.9	
307.04	5257.1	
307.25	3407.8	
307.46	3383.9	
307.67	4263.2	
307.88	5190.9	
308.09	3125.2	
308.29	3191.4	
308.5	4960.2	
308.71	5357.5	
308.92	3387.3	
309.13	3042.6	
309.34	4833.9	
309.55	4824.3	
309.75	3804.4	
309.96	3496.6	
310.17	5253	
310.38	4610.7	
310.59	3633.1	
310.8	2991.4	
311.01	5683.8	
311.21	4784.7	
311.42	3011.2	
311.63	3096.5	
311.84	4733.5	
312.05	4948.6	
312.26	3427.6	
312.46	3691.1	
312.67	4797.7	
312.88	4436.6	
313.09	3035.8	
313.3	2943.6	
313.51	5447.6	
313.71	5788.9	
313.92	3013.9	
314.13	3161.4	
314.34	5091.9	
314.55	4784.1	
314.76	3776.5	
314.96	3381.2	
315.17	5027.1	
315.38	5108.3	
315.59	3081.5	
315.8	2913.6	
316.01	5537.7	
316.21	5601.9	
316.42	2998.2	
316.63	3361.4	
316.84	4760.8	
317.05	5368.4	
317.26	3588	
317.46	3209.2	
317.67	4851	
317.88	5203.9	
318.09	3849.5	
318.3	2805	
318.5	4707.6	
318.71	5068	
318.92	4683.7	
319.13	3519.1	
319.34	5240.8	
319.54	5376.6	
319.75	2869.2	
319.96	2717.7	
320.17	5179.3	
320.38	5257.1	
320.58	2828.2	
320.79	3282.2	
321	5318.6	
321.21	5376.6	
321.42	3351.8	
321.62	2772.3	
321.83	4598.4	
322.04	4878.3	
322.25	3258.3	
322.46	3078.8	
322.66	4954.7	
322.87	5111.7	
323.08	3665.9	
323.29	3022.1	
323.5	5724.8	
323.7	4579.3	
323.91	4085	
324.12	3672	
324.33	4962.9	
324.53	5130.8	
324.74	3550.5	
324.95	3670	
325.16	4401.1	
325.37	4737	
325.57	2990	
325.78	3108.1	
325.99	4943.8	
326.2	4445.5	
326.4	4280.3	
326.61	2811.2	
326.82	4833.9	
327.03	4917.9	
327.24	4183.3	
327.44	3953.9	
327.65	5151.3	
327.86	4252.3	
328.07	3591.5	
328.27	2955.2	
328.48	5471.5	
328.69	4491.9	
328.9	4283	
329.1	3286.3	
329.31	4791.6	
329.52	5501.5	
329.73	3081.5	
329.93	3429	
330.14	4894	
330.35	5074.9	
330.56	4792.2	
330.76	3706.1	
330.97	4762.9	
331.18	4999.8	
331.39	3361.4	
331.59	2788	
331.8	5343.8	
332.01	5409.4	
332.22	3167.5	
332.42	3532.1	
332.63	4984.1	
332.84	4593.6	
333.05	3414	
333.25	3142.9	
333.46	4676.9	
333.67	4874.8	
333.88	3136.1	
334.08	3463.8	
334.29	6300.9	
334.5	5365	
334.7	2957.3	
334.91	4203.1	
335.12	4535.6	
335.33	5208.7	
335.53	3332.7	
335.74	4811.4	
335.95	4719.9	
336.16	4577.9	
336.36	3368.2	
336.57	3786.7	
336.78	4485.7	
336.98	5271.5	
337.19	4028.4	
337.4	3304.1	
337.61	5791.7	
337.81	4510.3	
338.02	3102.7	
338.23	3867.9	
338.43	5485.1	
338.64	4649.6	
338.85	3095.8	
339.05	3933.5	
339.26	5546.6	
339.47	4419.5	
339.68	3121.1	
339.88	4317.1	
340.09	5135.6	
340.3	5232.6	
340.5	3472.7	
340.71	2761.3	
340.92	4486.4	
341.13	5430.5	
341.33	2906.8	
341.54	3552.5	
341.75	5063.9	
341.95	4779.3	
342.16	3441.3	
342.37	3629.7	
342.57	4505.5	
342.78	4842.1	
342.99	3671.3	
343.19	2768.2	
343.4	5218.9	
343.61	5025.7	
343.81	3250.1	
344.02	2978.4	
344.23	5170.4	
344.43	5513.8	
344.64	3697.3	
344.85	3644.7	
345.06	5102.9	
345.26	5359.5	
345.47	3525.2	
345.68	4034.5	
345.88	4429.8	
346.09	5210.7	
346.3	3609.9	
346.5	2772.3	
346.71	4863.9	
346.92	4659.8	
347.12	2846.7	
347.33	3431	
347.54	5286.5	
347.74	5592.3	
347.95	3498.6	
348.16	2674	
348.36	4715.1	
348.57	4544.4	
348.78	3496.6	
348.98	3633.1	
349.19	4765.6	
349.39	4400.4	
349.6	2850.1	
349.81	3115.6	
350.01	5143.1	
350.22	4644.1	
350.43	3443.3	
350.63	4013.3	
350.84	4859.1	
351.05	4640.7	
351.25	3117	
351.46	2826.2	
351.67	5324.7	
351.87	4622.9	
352.08	3288.4	
352.29	3672.7	
352.49	5217.5	
352.7	5296	
352.9	2978.4	
353.11	3637.2	
353.32	5726.1	
353.52	4748.6	
353.73	2937.5	
353.94	3691.8	
354.14	5108.3	
354.35	4874.2	
354.55	3110.2	
354.76	3360.7	
354.97	5040.1	
355.17	4884.4	
355.38	2906.1	
355.59	3831.7	
355.79	4610	
356	4819.6	
356.2	3287	
356.41	2939.5	
356.62	4414.1	
356.82	4775.9	
357.03	3586	
357.24	3178.4	
357.44	4577.9	
357.65	4721.3	
357.85	4113.7	
358.06	3385.3	
358.27	4396.3	
358.47	4479.6	
358.68	2833.7	
358.88	3540.3	
359.09	5023	
359.3	5278.3	
359.5	4098	
359.71	3648.8	
359.91	5625.1	
360.12	5121.3	
360.33	3522.5	
360.53	3866.6	
360.74	4624.3	
360.94	4674.1	
361.15	3663.8	
361.36	3089.7	
361.56	5195	
361.77	4804.5	
361.97	4064.5	
362.18	3196.9	
362.38	5298.8	
362.59	4509.6	
362.8	3031.7	
363	2868.5	
363.21	4315.8	
363.41	4845.5	
363.62	3382.6	
363.83	4199.7	
364.03	4969.1	
364.24	5597.8	
364.44	4315.1	
364.65	4162.2	
364.85	4773.1	
365.06	4475.5	
365.27	3128.6	
365.47	3207.1	
365.68	5482.4	
365.88	4713.1	
366.09	3474.7	
366.29	3177.8	
366.5	4937	
366.71	5247.6	
366.91	4192.2	
367.12	3613.3	
367.32	5715.9	
367.53	5147.9	
367.73	3594.2	
367.94	4292.5	
368.14	5097.4	
368.35	5704.3	
368.56	3532.7	
368.76	3355.3	
368.97	5221.6	
369.17	6455.2	
369.38	3146.4	
369.58	3348.4	
369.79	4451.6	
369.99	5509.7	
370.2	4194.9	
370.4	3437.9	
370.61	4934.2	
370.82	5873.6	
371.02	3383.2	
371.23	2850.1	
371.43	4377.9	
371.64	5502.2	
371.84	3347.7	
372.05	4254.3	
372.25	6375.3	
372.46	5174.5	
372.66	3337.5	
372.87	3345	
373.07	5235.3	
373.28	6514.6	
373.48	4107.5	
373.69	3898.6	
373.9	4823	
374.1	4849.6	
374.31	4089.1	
374.51	3751.9	
374.72	5447.6	
374.92	4541	
375.13	4212	
375.33	3561.4	
375.54	5076.2	
375.74	4661.9	
375.95	3654.3	
376.15	4601.8	
376.36	5164.3	
376.56	4956.8	
376.77	3627.6	
376.97	3913	
377.18	5923.4	
377.38	5139	
377.59	4228.4	
377.79	3307.5	
378	5001.1	
378.2	5266	
378.41	3332.7	
378.61	3257.6	
378.82	5321.3	
379.02	4780	
379.23	3482.9	
379.43	4299.4	
379.64	5454.4	
379.84	5129.5	
380.05	3336.8	
380.25	3272	
380.46	5243.5	
380.66	4924	
380.87	4297.3	
381.07	4632.5	
381.28	5711.8	
381.48	5187.5	
381.69	3365.5	
381.89	3442	
382.1	4414.1	
382.3	5307.7	
382.51	4207.9	
382.71	4882.4	
382.91	5233.2	
383.12	5549.3	
383.32	3634.5	
383.53	3773	
383.73	5087.2	
383.94	4965.6	
384.14	3806.5	
384.35	3024.2	
384.55	4913.1	
384.76	5227.1	
384.96	3681.6	
385.17	3921.9	
385.37	5290.6	
385.58	4627	
385.78	3855.6	
385.98	2994.8	
386.19	4851	
386.39	5141.1	
386.6	3503.4	
386.8	3671.3	
387.01	5182	
387.21	5263.3	
387.42	3953.3	
387.62	4311.7	
387.83	4673.5	
388.03	5121.3	
388.23	3682.2	
388.44	4282.3	
388.64	4496.7	
388.85	4549.9	
389.05	3927.3	
389.26	4385.4	
389.46	6079.1	
389.67	5565.7	
389.87	3889.8	
390.07	3945.8	
390.28	4941.1	
390.48	4624.3	
390.69	3342.3	
390.89	3590.8	
391.1	4807.3	
391.3	5480.4	
391.5	4516.5	
391.71	4973.2	
391.91	5322	
392.12	5973.9	
392.32	4594.3	
392.53	3937.6	
392.73	4862.6	
392.93	4954	
393.14	3693.2	
393.34	4595	
393.55	5296	
393.75	4954.7	
393.95	3741.6	
394.16	3676.8	
394.36	4819.6	
394.57	5273.5	
394.77	3284.9	
394.98	3633.1	
395.18	4683	
395.38	4939.7	
395.59	4256.4	
395.79	3468.6	
396	4875.5	
396.2	5253	
396.4	4119.1	
396.61	4062.5	
396.81	5317.9	
397.02	4782	
397.22	4280.9	
397.42	4351.3	
397.63	5389.6	
397.83	4771.8	
398.04	3450.8	
398.24	3822.2	
398.44	5161.6	
398.65	4426.3	
398.85	3340.9	
399.05	3422.2	
399.26	4814.1	
399.46	6092.7	
399.67	3731.4	
399.87	3470.6	
400.07	4979.3	
400.28	5261.9	
400.48	3608.5	
400.69	4367.6	
400.89	5386.2	
401.09	5781.4	
401.3	3478.8	
401.5	4347.8	
401.7	5943.2	
401.91	6080.4	
402.11	3805.8	
402.32	3962.1	
402.52	5550.7	
402.72	5468.8	
402.93	4166.3	
403.13	3278.1	
403.33	6158.9	
403.54	5097.4	
403.74	3867.9	
403.94	4612	
404.15	5169.8	
404.35	6085.2	
404.56	3718.4	
404.76	5022.3	
404.96	5417.6	
405.17	5267.4	
405.37	4675.5	
405.57	4071.4	
405.78	5502.2	
405.98	5081	
406.18	3713	
406.39	4453.6	
406.59	5470.1	
406.79	5125.4	
407	3531.4	
407.2	3683.6	
407.4	5583.4	
407.61	5631.2	
407.81	3654.3	
408.01	5485.8	
408.22	4595	
408.42	6154.8	
408.62	4416.1	
408.83	4063.9	
409.03	5137	
409.23	5038	
409.44	4081.6	
409.64	4293.2	
409.84	5887.9	
410.05	5732.3	
410.25	4191.5	
410.45	3945.1	
410.66	5367	
410.86	7370	
411.06	4323.3	
411.27	4259.1	
411.47	7088.7	
411.67	5546.6	
411.88	4393.6	
412.08	4616.8	
412.28	6025.8	
412.49	6356.9	
412.69	4219.5	
412.89	4287.8	
413.09	6262	
413.3	6115.9	
413.5	4382.7	
413.7	4077.5	
413.91	5601.9	
414.11	6206.7	
414.31	4251.6	
414.52	4509.6	
414.72	6022.4	
414.92	5915.2	
415.12	4222.9	
415.33	4636.6	
415.53	6214.2	
415.73	6399.9	
415.94	4893.3	
416.14	4471.4	
416.34	5494.7	
416.55	5343.2	
416.75	5406.6	
416.95	4931.5	
417.15	6285.2	
417.36	6814.3	
417.56	5474.9	
417.76	4780.6	
417.97	6520.7	
418.17	6284.5	
418.37	4565.6	
418.57	4478.9	
418.78	6171.2	
418.98	5906.3	
419.18	5238	
419.38	5178.6	
419.59	5922.7	
419.79	5640.8	
419.99	4479.6	
420.2	4744.5	
420.4	6369.2	
420.6	6413.6	
420.8	4409.3	
421.01	4299.4	
421.21	6182.8	
421.41	6223.1	
421.61	4730.1	
421.82	4466.6	
422.02	5970.5	
422.22	6637.5	
422.42	5131.5	
422.63	4898.7	
422.83	5881.8	
423.03	6853.2	
423.23	4868	
423.44	4045.4	
423.64	5970.5	
423.84	5778.7	
424.04	4542.4	
424.25	4170.3	
424.45	6683.9	
424.65	6641.6	
424.85	4088.4	
425.06	4504.8	
425.26	6797.2	
425.46	5878.4	
425.66	4842.8	
425.87	4582	
426.07	6470.2	
426.27	6332.3	
426.47	4751.3	
426.67	4243.4	
426.88	6804	
427.08	6377.4	
427.28	4938.3	
427.48	4144.4	
427.69	5581.4	
427.89	6016.9	
428.09	4820.2	
428.29	4268.6	
428.5	6471.6	
428.7	6240.2	
428.9	4142.4	
429.1	4556.7	
429.3	6191.7	
429.51	6335.7	
429.71	4449.6	
429.91	5078.3	
430.11	6361	
430.31	6476.4	
430.52	4667.3	
430.72	4850.3	
430.92	6810.9	
431.12	6397.9	
431.32	4387.4	
431.53	4732.2	
431.73	5552	
431.93	6855.9	
432.13	4358.1	
432.33	4224.3	
432.54	5939.1	
432.74	6206	
432.94	4218.8	
433.14	5004.6	
433.34	6420.4	
433.55	5963	
433.75	4927.4	
433.95	6283.2	
434.15	6255.2	
434.35	5954.8	
434.56	4385.4	
434.76	4008.6	
434.96	6154.1	
435.16	6378.1	
435.36	4256.4	
435.56	5174.5	
435.77	5969.8	
435.97	6072.2	
436.17	5716.6	
436.37	5068.7	
436.57	5940.5	
436.78	5841.5	
436.98	6512.5	
437.18	5571.8	
437.38	6515.3	
437.58	6097.5	
437.78	5700.9	
437.99	4670.7	
438.19	6535.1	
438.39	7567.2	
438.59	4689.8	
438.79	4268.6	
438.99	7057.3	
439.2	6081.8	
439.4	4244.8	
439.6	4257.7	
439.8	6193.7	
440	7063.4	
440.2	4946.5	
440.4	5162.2	
440.61	6627.2	
440.81	6964.5	
441.01	4504.8	
441.21	5207.3	
441.41	6942.6	
441.61	6654.5	
441.81	5471.5	
442.02	6244.3	
442.22	7365.9	
442.42	6733	
442.62	4586.8	
442.82	4623.6	
443.02	7025.9	
443.22	6354.2	
443.43	4894	
443.63	4640.7	
443.83	6135	
444.03	6161.7	
444.23	5524.1	
444.43	5213.4	
444.63	6477	
444.83	7389.1	
445.04	4757.4	
445.24	5700.2	
445.44	6780.1	
445.64	6850.5	
445.84	5317.2	
446.04	5332.9	
446.24	6253.1	
446.44	7043.6	
446.65	4685.8	
446.85	5003.2	
447.05	6548	
447.25	6990.4	
447.45	5093.3	
447.65	4605.2	
447.85	6590.4	
448.05	6210.1	
448.25	5323.4	
448.46	5181.4	
448.66	6585.6	
448.86	6264.7	
449.06	4585.4	
449.26	5380	
449.46	6767.9	
449.66	6129.6	
449.86	4955.4	
450.06	4984.1	
450.26	6283.9	
450.47	6673.6	
450.67	5152.7	
450.87	5467.4	
451.07	6829.3	
451.27	6582.9	
451.47	4622.3	
451.67	5109.7	
451.87	6402.6	
452.07	7295.5	
452.27	4894	
452.47	4858.5	
452.67	6653.2	
452.88	6849.1	
453.08	4401.8	
453.28	5864.7	
453.48	7506.5	
453.68	6531	
453.88	4849.6	
454.08	4997	
454.28	6882.5	
454.48	6573.3	
454.68	5380.7	
454.88	5785.5	
455.08	6963.1	
455.28	6627.2	
455.48	4743.1	
455.68	5225.7	
455.89	7353.6	
456.09	7111.9	
456.29	5028.4	
456.49	5173.9	
456.69	7225.2	
456.89	6589.7	
457.09	5438.7	
457.29	5728.2	
457.49	6900.3	
457.69	6974.7	
457.89	5341.8	
458.09	4879.6	
458.29	6808.1	
458.49	7306.5	
458.69	5668.8	
458.89	5220.3	
459.09	7574.1	
459.29	7585	
459.49	5357.5	
459.69	5950	
459.9	7145.4	
460.1	6813.6	
460.3	5284.4	
460.5	5037.3	
460.7	7180.9	
460.9	6836.8	
461.1	4880.3	
461.3	5833.3	
461.5	7748.8	
461.7	7402	
461.9	5188.9	
462.1	5593.7	
462.3	7032.7	
462.5	7407.5	
462.7	5224.4	
462.9	5337.7	
463.1	8234.9	
463.3	8013	
463.5	5506.3	
463.7	6288.6	
463.9	7177.4	
464.1	7513.3	
464.3	5620.3	
464.5	5776	
464.7	7752.9	
464.9	7389.8	
465.1	6825.2	
465.3	6070.2	
465.5	8059.4	
465.7	8039	
465.9	6325.5	
466.1	6180.8	
466.3	7755.7	
466.5	7806.9	
466.7	6942.6	
466.9	6013.5	
467.1	7785.7	
467.3	8398	
467.5	6922.1	
467.7	5934.3	
467.9	8620.6	
468.1	9273.9	
468.3	6550.8	
468.5	6875.7	
468.7	7681.2	
468.9	7751.6	
469.1	6226.5	
469.3	6890.7	
469.5	9366.7	
469.7	7399.3	
469.9	6655.9	
470.1	6111.8	
470.3	7858.7	
470.5	7806.2	
470.7	7118.7	
470.9	6246.3	
471.1	7647.1	
471.3	7985.7	
471.5	6022.4	
471.69	7607.5	
471.89	7547.4	
472.09	7223.2	
472.29	6654.5	
472.49	6995.9	
472.69	7399.3	
472.89	8008.2	
473.09	5960.3	
473.29	6145.3	
473.49	7484	
473.69	7587	
473.89	6919.4	
474.09	6176.7	
474.29	8593.3	
474.49	8342.7	
474.69	6853.9	
474.89	6376.7	
475.09	7691.5	
475.29	7645.1	
475.49	5938.4	
475.69	6083.1	
475.88	8821.3	
476.08	7937.2	
476.28	5788.9	
476.48	6104.3	
476.68	8241	
476.88	8052.6	
477.08	6115.9	
477.28	6264.1	
477.48	7718.1	
477.68	8122.2	
477.88	5909.8	
478.08	6113.9	
478.28	8492.2	
478.48	7836.9	
478.67	6257.2	
478.87	5748	
479.07	8314.1	
479.27	7848.5	
479.47	6395.8	
479.67	6374	
479.87	8231.5	
480.07	8632.2	
480.27	5944.6	
480.47	7021.1	
480.67	7918.1	
480.87	8437.6	
481.06	6031.3	
481.26	6788.3	
481.46	7974.8	
481.66	7871	
481.86	6469.5	
482.06	7123.5	
482.26	7710.6	
482.46	8426.7	
482.66	6408.1	
482.86	6063.4	
483.05	8045.1	
483.25	7568.6	
483.45	8253.3	
483.65	6402.6	
483.85	7570	
484.05	7852.6	
484.25	6707.1	
484.45	7064.8	
484.65	8582.4	
484.84	8668.4	
485.04	6391.7	
485.24	6320	
485.44	8841.1	
485.64	7548.1	
485.84	5881.8	
486.04	6930.3	
486.24	7749.5	
486.44	8060.1	
486.63	5800.5	
486.83	6503.7	
487.03	7759.8	
487.23	7887.4	
487.43	5940.5	
487.63	7729.7	
487.83	7987.8	
488.02	8664.3	
488.22	6713.2	
488.42	7246.4	
488.62	8638.3	
488.82	7789.1	
489.02	6458.6	
489.22	6464.8	
489.41	8628.1	
489.61	8316.8	
489.81	6289.3	
490.01	6313.9	
490.21	8563.2	
490.41	9080	
490.61	6275.7	
490.8	6367.1	
491	8240.3	
491.2	7677.8	
491.4	6847	
491.6	6260.6	
491.8	8279.3	
491.99	8189.8	
492.19	6064.7	
492.39	6323.4	
492.59	8508.6	
492.79	8507.9	
492.99	6973.3	
493.18	6255.2	
493.38	8668.4	
493.58	9153.7	
493.78	6880.5	
493.98	6539.2	
494.18	8449.9	
494.37	8045.8	
494.57	7120.1	
494.77	6973.3	
494.97	8673.8	
495.17	8983.8	
495.37	6652.5	
495.56	7015	
495.76	9063.6	
495.96	8841.1	
496.16	7816.4	
496.36	6951.5	
496.55	9069.1	
496.75	8619.2	
496.95	7342.7	
497.15	7178.8	
497.35	9050.7	
497.54	9026.8	
497.74	7090.1	
497.94	8583	
498.14	9579	
498.34	9493.7	
498.53	6805.4	
498.73	7410.2	
498.93	8450.6	
499.13	9002.9	
499.33	7296.2	
499.52	7590.5	
499.72	9122.3	
499.92	9254.8	
500.12	7008.1	
500.32	7268.2	
500.51	9309.4	
500.71	9194.7	
500.91	7845.8	
501.11	7552.9	
501.31	9312.8	
501.5	9570.8	
501.7	8186.4	
501.9	7434.1	
502.1	9080	
502.29	9394.7	
502.49	7830.7	
502.69	8092.9	
502.89	9318.3	
503.09	9321	
503.28	6977.4	
503.48	7137.2	
503.68	8745.5	
503.88	8703.2	
504.07	7905.2	
504.27	7342.7	
504.47	9111.4	
504.67	9040.4	
504.86	7792.5	
505.06	7538.6	
505.26	8744.8	
505.46	10180	
505.65	7425.9	
505.85	7618.4	
506.05	8742.1	
506.25	9114.1	
506.44	6911.9	
506.64	7651.2	
506.84	8632.2	
507.04	9359.9	
507.23	7054.6	
507.43	7521.5	
507.63	10016	
507.83	8738	
508.02	7529	
508.22	7144.7	
508.42	10350	
508.62	8557.1	
508.81	7651.9	
509.01	7848.5	
509.21	8492.9	
509.4	8819.9	
509.6	7656	
509.8	6989	
510	8684.1	
510.19	9879.4	
510.39	7029.3	
510.59	7144	
510.79	8699.8	
510.98	9600.2	
511.18	7208.8	
511.38	7314	
511.57	9393.4	
511.77	9069.8	
511.97	7845.8	
512.17	7149.5	
512.36	9293.7	
512.56	9069.1	
512.76	7078.5	
512.95	6858.6	
513.15	9402.9	
513.35	8238.3	
513.55	7710.6	
513.74	7103	
513.94	9358.5	
514.14	8798.8	
514.33	7912	
514.53	7630.7	
514.73	8798.1	
514.92	8957.8	
515.12	7264.8	
515.32	7073	
515.51	8991.3	
515.71	9419.3	
515.91	8572.1	
516.11	7094.2	
516.3	10386	
516.5	8761.2	
516.7	7628	
516.89	8088.1	
517.09	8917.5	
517.29	8858.1	
517.48	7922.2	
517.68	7464.2	
517.88	8654	
518.07	9179.7	
518.27	7907.2	
518.47	7112.6	
518.66	9546.3	
518.86	8526.4	
519.06	6932.4	
519.25	7387.7	
519.45	8805.6	
519.65	10012	
519.84	7909.9	
520.04	8381	
520.24	10316	
520.43	9356.5	
520.63	7719.5	
520.83	7559.1	
521.02	8833.6	
521.22	9316.9	
521.42	7851.2	
521.61	8383	
521.81	8964	
522.01	9138	
522.2	7714.7	
522.4	7541.3	
522.6	9454.1	
522.79	8430.1	
522.99	7605.5	
523.18	7183.6	
523.38	9182.4	
523.58	9290.3	
523.77	8653.4	
523.97	7135.1	
524.17	10728	
524.36	10148	
524.56	8161.8	
524.76	7987.8	
524.95	9389.3	
525.15	9076.6	
525.34	7879.9	
525.54	7970	
525.74	9806.4	
525.93	9043.1	
526.13	8993.3	
526.33	8064.2	
526.52	10095	
526.72	9766.8	
526.91	9083.4	
527.11	8522.3	
527.31	10071	
527.5	10484	
527.7	8356.4	
527.89	7731.8	
528.09	9342.2	
528.29	9846.6	
528.48	8679.3	
528.68	8356.4	
528.87	10143	
529.07	10231	
529.27	8399.4	
529.46	8197.3	
529.66	9975	
529.85	10373	
530.05	8161.8	
530.25	8644.5	
530.44	11145	
530.64	9987.3	
530.83	8405.5	
531.03	8517.5	
531.23	10391	
531.42	10167	
531.62	9047.2	
531.81	8546.2	
532.01	10493	
532.21	10744	
532.4	8421.2	
532.6	8657.4	
532.79	11234	
532.99	10621	
533.18	8852	
533.38	9693	
533.58	10309	
533.77	10856	
533.97	8858.8	
534.16	9471.2	
534.36	11182	
534.55	10371	
534.75	9676.7	
534.95	8972.2	
535.14	11151	
535.34	10440	
535.53	8705.9	
535.73	10278	
535.92	11578	
536.12	10518	
536.31	8882	
536.51	9738.1	
536.71	10753	
536.9	10523	
537.1	8865	
537.29	8951.7	
537.49	11138	
537.68	10352	
537.88	9351	
538.07	8662.9	
538.27	10580	
538.46	11465	
538.66	8630.8	
538.86	8969.4	
539.05	10658	
539.25	11012	
539.44	9331.9	
539.64	9000.1	
539.83	10688	
540.03	11402	
540.22	8959.9	
540.42	8918.9	
540.61	10799	
540.81	10920	
541	9257.5	
541.2	9791.3	
541.39	10441	
541.59	10772	
541.78	9536.7	
541.98	8816.5	
542.18	10174	
542.37	10138	
542.57	9237	
542.76	9591.3	
542.96	10215	
543.15	10748	
543.35	9213.8	
543.54	8596	
543.74	10860	
543.93	10641	
544.13	9061.6	
544.32	9921.7	
544.52	10753	
544.71	10173	
544.91	8430.1	
545.1	9309.4	
545.3	10322	
545.49	10694	
545.69	8292.2	
545.88	8740	
546.08	11501	
546.27	11157	
546.47	9247.9	
546.66	8583	
546.86	10836	
547.05	11348	
547.24	8737.3	
547.44	8757.1	
547.63	10041	
547.83	10904	
548.02	9022	
548.22	9118.9	
548.41	9989.3	
548.61	10942	
548.8	8588.5	
549	8667	
549.19	10502	
549.39	10662	
549.58	8368	
549.78	8847.9	
549.97	10693	
550.17	10233	
550.36	9495.1	
550.55	10280	
550.75	10295	
550.94	10947	
551.14	8490.2	
551.33	8805.6	
551.53	9824.8	
551.72	10469	
551.92	8809	
552.11	8623.3	
552.31	10660	
552.5	10540	
552.69	9942.2	
552.89	8295	
553.08	10552	
553.28	10363	
553.47	8656.1	
553.67	9564	
553.86	10933	
554.06	9687.6	
554.25	7987.1	
554.44	8331.8	
554.64	11660	
554.83	11135	
555.03	8439	
555.22	8778.3	
555.42	10629	
555.61	10473	
555.8	8594.6	
556	8761.9	
556.19	9779.1	
556.39	10696	
556.58	8626.7	
556.78	8564.6	
556.97	10374	
557.16	10042	
557.36	9541.5	
557.55	8395.3	
557.75	9564	
557.94	10998	
558.13	8371.4	
558.33	8252.6	
558.52	10822	
558.72	9912.9	
558.91	8314.1	
559.1	8467	
559.3	9637.7	
559.49	9500.5	
559.69	7974.8	
559.88	8778.3	
560.07	10255	
560.27	10587	
560.46	8891.6	
560.66	8917.5	
560.85	10144	
561.04	9368.1	
561.24	8311.3	
561.43	8443.8	
561.63	9706.7	
561.82	9916.9	
562.01	9303.9	
562.21	8555	
562.4	10181	
562.59	10997	
562.79	8394.6	
562.98	8189.8	
563.18	10133	
563.37	11411	
563.56	8817.9	
563.76	8170	
563.95	9843.2	
564.14	9688.9	
564.34	8586.5	
564.53	8355.7	
564.73	10266	
564.92	10508	
565.11	8736.6	
565.31	8237.6	
565.5	10656	
565.69	9737.4	
565.89	8426.7	
566.08	8645.8	
566.27	10559	
566.47	10921	
566.66	9181	
566.85	8115.4	
567.05	10329	
567.24	9863.7	
567.44	8362.5	
567.63	9359.2	
567.82	10430	
568.02	10344	
568.21	8445.8	
568.4	8682.7	
568.6	10212	
568.79	10146	
568.98	8322.3	
569.18	8413.7	
569.37	10108	
569.56	11756	
569.76	8698.4	
569.95	9602.2	
570.14	10529	
570.34	10403	
570.53	8362.5	
570.72	8347.5	
570.91	10855	
571.11	10254	
571.3	8786.5	
571.49	9521	
571.69	10377	
571.88	9852.8	
572.07	9115.5	
572.27	9135.3	
572.46	9871.9	
572.65	10610	
572.85	8652	
573.04	8798.8	
573.23	10877	
573.43	10265	
573.62	8389.2	
573.81	8895.7	
574	10514	
574.2	10185	
574.39	8699.1	
574.58	8810.4	
574.78	11241	
574.97	10536	
575.16	9189.9	
575.36	9277.3	
575.55	10901	
575.74	10940	
575.93	8385.7	
576.13	9503.9	
576.32	10432	
576.51	10879	
576.71	8886.8	
576.9	9958.6	
577.09	11157	
577.28	10679	
577.48	9141.4	
577.67	8419.9	
577.86	10416	
578.05	10706	
578.25	8972.8	
578.44	9052.7	
578.63	10582	
578.83	11555	
579.02	8574.8	
579.21	9780.4	
579.4	10673	
579.6	10617	
579.79	9145.5	
579.98	10839	
580.17	11060	
580.37	11130	
580.56	8694.3	
580.75	9295	
580.94	11340	
581.14	11245	
581.33	9605.7	
581.52	8786.5	
581.71	10776	
581.91	11443	
582.1	8684.8	
582.29	9010.4	
582.48	10617	
582.68	10597	
582.87	9466.4	
583.06	9157.2	
583.25	10942	
583.45	10696	
583.64	9707.4	
583.83	10167	
584.02	10648	
584.21	10933	
584.41	9642.5	
584.6	9155.1	
584.79	10654	
584.98	11269	
585.18	8686.8	
585.37	8692.9	
585.56	10412	
585.75	11079	
585.94	8791.2	
586.14	9458.9	
586.33	11508	
586.52	10727	
586.71	9280	
586.91	9017.2	
587.1	10163	
587.29	11014	
587.48	8943.5	
587.67	8850	
587.87	10877	
588.06	10854	
588.25	9915.6	
588.44	9377.6	
588.63	10527	
588.83	10998	
589.02	8951.7	
589.21	8768.7	
589.4	10395	
589.59	10335	
589.78	8188.5	
589.98	8338.6	
590.17	9776.3	
590.36	10278	
590.55	7803.4	
590.74	8390.5	
590.94	11205	
591.13	10044	
591.32	8141.4	
591.51	7716.7	
591.7	10171	
591.89	9966.8	
592.09	7761.1	
592.28	8239.7	
592.47	9222	
592.66	10882	
592.85	7907.2	
593.05	8113.4	
593.24	9816.6	
593.43	10592	
593.62	8140	
593.81	8504.5	
594	9896.5	
594.19	10033	
594.39	8009.6	
594.58	7975.5	
594.77	10185	
594.96	10561	
595.15	8034.2	
595.34	8602.8	
595.54	10113	
595.73	9463.7	
595.92	7482.6	
596.11	8410.3	
596.3	10383	
596.49	9381.7	
596.68	8174.8	
596.88	8396	
597.07	10183	
597.26	9409.7	
597.45	7812.3	
597.64	8729.8	
597.83	9519	
598.02	10045	
598.22	7924.3	
598.41	8390.5	
598.6	9920.4	
598.79	9375.6	
598.98	7849.9	
599.17	8595.3	
599.36	9912.9	
599.55	10615	
599.74	9413.1	
599.94	9276.6	
600.13	10337	
600.32	9304.6	
600.51	7679.9	
600.7	7690.1	
600.89	10662	
601.08	10804	
601.27	7605.5	
601.47	8237.6	
601.66	10161	
601.85	10642	
602.04	8151.6	
602.23	8126.3	
602.42	9461.6	
602.61	9984.5	
602.8	7951.6	
602.99	7844.4	
603.18	9639.1	
603.37	9807.7	
603.57	8338	
603.76	8781	
603.95	10440	
604.14	10058	
604.33	7922.2	
604.52	8095.6	
604.71	9972.2	
604.9	9521	
605.09	8630.8	
605.28	8481.3	
605.47	10243	
605.66	9990.7	
605.86	8349.6	
606.05	7985.7	
606.24	10267	
606.43	9058.2	
606.62	8145.5	
606.81	8742.8	
607	10118	
607.19	9653.4	
607.38	7651.2	
607.57	7818.5	
607.76	9433.6	
607.95	8896.4	
608.14	8274.5	
608.33	8681.3	
608.52	9395.4	
608.72	10121	
608.91	7561.8	
609.1	7448.5	
609.29	9498.5	
609.48	9045.9	
609.67	8256	
609.86	7501	
610.05	9134.6	
610.24	9422	
610.43	7488.1	
610.62	7180.9	
610.81	10247	
611	10152	
611.19	7547.4	
611.38	8230.8	
611.57	9727.2	
611.76	10588	
611.95	7389.1	
612.14	7297.6	
612.33	9409.1	
612.52	9101.9	
612.71	7831.4	
612.9	7185.6	
613.09	8902.5	
613.28	10618	
613.47	7688.8	
613.66	8289.5	
613.85	9591.3	
614.04	9140.1	
614.24	7675.8	
614.43	7073.7	
614.62	9662.3	
614.81	9625.5	
615	8009.6	
615.19	8040.3	
615.38	9026.8	
615.57	9364.7	
615.76	8051.9	
615.95	8705.2	
616.14	9784.5	
616.33	9423.4	
616.52	8251.3	
616.71	8368.7	
616.9	9711.5	
617.09	9585.9	
617.28	7712.7	
617.47	8678.6	
617.66	8943.5	
617.85	8890.9	
618.04	8472.4	
618.22	7969.3	
618.41	9199.5	
618.6	10094	
618.79	7927.7	
618.98	7825.3	
619.17	10206	
619.36	8812.4	
619.55	7978.2	
619.74	8053.3	
619.93	9727.2	
620.12	9233.6	
620.31	8346.8	
620.5	8596.7	
620.69	10122	
620.88	10470	
621.07	9021.3	
621.26	8355	
621.45	9998.9	
621.64	9998.9	
621.83	8492.9	
622.02	7794.6	
622.21	10010	
622.4	9858.2	
622.59	8962.6	
622.78	8768.7	
622.97	9567.4	
623.16	10292	
623.35	8461.5	
623.54	7858.1	
623.72	9594.1	
623.91	9741.5	
624.1	8710	
624.29	7663.5	
624.48	10598	
624.67	10026	
624.86	8560.5	
625.05	7873.1	
625.24	10682	
625.43	9536.7	
625.62	9951.1	
625.81	8090.8	
626	10318	
626.19	9893.1	
626.38	8723.7	
626.56	8237.6	
626.75	9616.6	
626.94	10173	
627.13	8636.3	
627.32	7744.1	
627.51	10154	
627.7	11088	
627.89	7841.7	
628.08	8817.9	
628.27	9520.3	
628.46	9678	
628.65	8034.9	
628.83	7799.3	
629.02	10060	
629.21	9586.5	
629.4	8327.7	
629.59	8603.5	
629.78	9479.4	
629.97	10231	
630.16	8637	
630.35	8089.5	
630.54	10647	
630.72	10365	
630.91	8092.9	
631.1	8535.3	
631.29	9919	
631.48	10084	
631.67	8766.7	
631.86	8201.4	
632.05	9769.5	
632.24	9678.7	
632.42	7946.1	
632.61	8398.7	
632.8	9794.8	
632.99	9452.7	
633.18	8475.9	
633.37	8764.6	
633.56	10003	
633.75	9858.2	
633.93	8489.5	
634.12	8219.9	
634.31	10645	
634.5	10356	
634.69	8285.4	
634.88	8597.4	
635.07	9837.8	
635.25	10286	
635.44	8954.4	
635.63	9118.9	
635.82	9746.3	
636.01	9254.1	
636.2	8857.5	
636.39	8501.1	
636.57	10664	
636.76	10196	
636.95	8102.4	
637.14	9145.5	
637.33	10099	
637.52	10675	
637.7	7811	
637.89	8707.3	
638.08	9727.2	
638.27	10845	
638.46	8647.2	
638.65	9082.7	
638.83	10783	
639.02	9574.3	
639.21	8639.7	
639.4	8946.9	
639.59	9912.2	
639.78	9655.5	
639.96	7984.3	
640.15	8074.5	
640.34	9839.8	
640.53	9841.9	
640.72	7814.4	
640.91	7922.9	
641.09	9276.6	
641.28	10364	
641.47	8059.4	
641.66	8641.7	
641.85	9811.8	
642.03	9985.9	
642.22	8417.8	
642.41	8118.1	
642.6	9337.4	
642.79	8847.9	
642.97	7827.3	
643.16	8462.2	
643.35	9430.2	
643.54	9174.2	
643.73	7831.4	
643.91	8422.6	
644.1	9039.1	
644.29	9574.9	
644.48	7866.2	
644.67	7903.8	
644.85	9138	
645.04	9540.8	
645.23	7490.1	
645.42	7768.6	
645.6	9058.8	
645.79	9917.6	
645.98	7536.5	
646.17	6814.3	
646.36	8759.8	
646.54	9153.1	
646.73	8204.2	
646.92	7298.3	
647.11	8871.8	
647.29	9643.2	
647.48	7356.3	
647.67	7132.4	
647.86	9837.1	
648.05	9833	
648.23	7581.6	
648.42	8528.4	
648.61	9350.3	
648.8	9176.3	
648.98	7257.3	
649.17	7548.8	
649.36	8723	
649.55	8382.3	
649.73	7264.8	
649.92	7848.5	
650.11	8577.6	
650.3	8989.9	
650.48	7419.8	
650.67	7316	
650.86	9155.1	
651.05	8315.4	
651.23	7244.3	
651.42	7300.3	
651.61	8690.2	
651.79	8785.8	
651.98	7511.9	
652.17	7038.2	
652.36	9030.2	
652.54	8340	
652.73	7127.6	
652.92	7029.3	
653.11	9060.9	
653.29	9121	
653.48	6674.3	
653.67	7357	
653.85	8946.9	
654.04	9777.7	
654.23	7505.8	
654.42	7204.8	
654.6	8424	
654.79	9003.6	
654.98	6685.9	
655.16	7087.3	
655.35	8118.1	
655.54	7889.5	
655.73	6634.7	
655.91	6453.1	
656.1	8746.9	
656.29	7810.3	
656.47	6260.6	
656.66	7543.4	
656.85	8071.7	
657.03	8125	
657.22	6646.3	
657.41	6812.9	
657.59	8191.2	
657.78	8089.5	
657.97	6486.6	
658.16	7064.1	
658.34	8817.2	
658.53	9082.7	
658.72	7773.4	
658.9	8161.2	
659.09	8445.1	
659.28	8481.3	
659.46	6859.3	
659.65	6873	
659.84	8253.3	
660.02	8732.5	
660.21	6859.3	
660.4	6779.5	
660.58	8996.7	
660.77	8406.9	
660.96	7267.6	
661.14	6471.6	
661.33	9291	
661.52	9260.9	
661.7	6454.5	
661.89	9258.2	
662.08	8142	
662.26	7851.2	
662.45	6740.5	
662.64	6817.7	
662.82	8680.7	
663.01	8083.3	
663.2	6756.2	
663.38	7273.7	
663.57	8636.3	
663.75	8520.9	
663.94	7015.7	
664.13	7976.2	
664.31	8145.5	
664.5	8651.3	
664.69	7240.3	
664.87	7610.3	
665.06	8003.5	
665.25	8545.5	
665.43	7875.1	
665.62	7912.7	
665.8	8656.1	
665.99	8118.1	
666.18	6934.4	
666.36	7050.5	
666.55	8685.4	
666.74	8653.4	
666.92	6673	
667.11	7864.2	
667.29	8235.6	
667.48	8672.5	
667.67	7560.4	
667.85	6832.7	
668.04	8153.6	
668.22	8178.2	
668.41	6961	
668.6	7152.2	
668.78	8006.2	
668.97	8189.1	
669.15	7266.2	
669.34	6416.3	
669.53	8038.3	
669.71	8275.8	
669.9	6629.3	
670.08	7111.9	
670.27	7987.1	
670.46	8596	
670.64	7268.2	
670.83	7563.1	
671.01	7933.1	
671.2	8314.8	
671.38	6633.4	
671.57	6610.2	
671.76	8873.2	
671.94	9364	
672.13	6499.6	
672.31	7361.1	
672.5	8630.1	
672.69	8098.4	
672.87	6692.1	
673.06	6890	
673.24	8494.3	
673.43	8083.3	
673.61	7161.1	
673.8	6857.3	
673.98	8568.7	
674.17	8684.8	
674.36	7350.8	
674.54	7163.8	
674.73	8348.9	
674.91	8634.2	
675.1	6966.5	
675.28	6643.6	
675.47	8243.1	
675.65	8745.5	
675.84	6830	
676.03	7188.4	
676.21	8003.5	
676.4	7594.6	
676.58	7490.1	
676.77	7311.2	
676.95	9297.8	
677.14	7973.4	
677.32	6563.7	
677.51	6477.7	
677.69	8711.4	
677.88	7761.8	
678.06	6559	
678.25	6634.1	
678.44	8270.4	
678.62	8011	
678.81	6471.6	
678.99	7150.8	
679.18	8903.2	
679.36	8529.8	
679.55	6803.4	
679.73	7425.9	
679.92	8473.1	
680.1	8065.6	
680.29	7854	
680.47	6806.8	
680.66	8027.4	
680.84	8617.9	
681.03	6362.4	
681.21	7167.9	
681.4	8063.5	
681.58	7886	
681.77	6607.4	
681.95	6617	
682.14	8720.9	
682.32	8958.5	
682.51	7390.4	
682.69	6521.4	
682.88	7959.1	
683.06	8436.3	
683.25	7144.7	
683.43	7510.6	
683.62	8231.5	
683.8	8490.9	
683.99	7644.4	
684.17	7055.3	
684.36	9240.4	
684.54	8173.4	
684.73	6393.8	
684.91	6582.9	
685.1	8394.6	
685.28	7879.2	
685.46	6993.1	
685.65	7034.1	
685.83	8430.8	
686.02	7963.9	
686.2	6315.3	
686.39	6413.6	
686.57	7636.9	
686.76	8793.3	
686.94	6336.4	
687.13	6535.8	
687.31	8219.2	
687.5	7948.2	
687.68	6130.3	
687.86	7115.3	
688.05	9271.2	
688.23	7535.2	
688.42	7165.8	
688.6	6553.5	
688.79	8002.8	
688.97	7890.1	
689.16	6866.2	
689.34	5993	
689.52	8491.6	
689.71	8689.5	
689.89	7131	
690.08	6559	
690.26	8311.3	
690.45	8112	
690.63	7335.8	
690.81	6764.4	
691	8142	
691.18	8012.3	
691.37	6900.3	
691.55	8562.6	
691.74	7887.4	
691.92	9511.4	
692.1	6900.3	
692.29	6498.2	
692.47	8068.3	
692.66	7570	
692.84	6573.3	
693.02	7001.3	
693.21	7683.3	
693.39	8045.8	
693.58	7117.4	
693.76	6646.3	
693.94	8978.3	
694.13	8797.4	
694.31	6724.2	
694.5	7531.7	
694.68	7987.8	
694.86	8363.9	
695.05	7076.4	
695.23	7365.9	
695.42	8675.2	
695.6	10501	
695.78	7566.6	
695.97	6844.3	
696.15	8763.3	
696.34	8226	
696.52	6741.2	
696.7	7391.8	
696.89	8569.4	
697.07	8057.4	
697.25	7348.8	
697.44	8419.9	
697.62	8503.8	
697.81	8699.1	
697.99	7036.8	
698.17	7360.4	
698.36	8017.8	
698.54	8492.2	
698.72	7324.9	
698.91	6498.2	
699.09	8191.2	
699.28	8046.5	
699.46	7089.4	
699.64	6898.2	
699.83	8030.8	
700.01	8921.6	
700.19	7615	
700.38	6275	
700.56	8861.6	
700.74	8075.8	
700.93	6598.6	
701.11	7325.6	
701.29	8496.3	
701.48	9358.5	
701.66	6826.6	
701.84	6939.9	
702.03	8247.2	
702.21	8872.5	
702.39	6524.1	
702.58	7075.7	
702.76	8583.7	
702.94	8727.8	
703.13	6562.4	
703.31	8530.5	
703.49	8122.9	
703.68	8908.7	
703.86	6696.2	
704.04	7488.1	
704.23	8489.5	
704.41	8778.3	
704.59	6937.2	
704.78	7727.7	
704.96	9432.9	
705.14	8792.6	
705.33	6766.5	
705.51	7377.5	
705.69	8303.1	
705.87	8979	
706.06	7543.4	
706.24	6673	
706.42	8647.2	
706.61	8823.3	
706.79	7546.8	
706.97	6637.5	
707.16	8224	
707.34	8590.5	
707.52	7462.1	
707.7	6826.6	
707.89	8236.9	
708.07	7957.7	
708.25	7511.9	
708.44	7678.5	
708.62	8137.3	
708.8	9038.4	
708.98	7735.2	
709.17	6970.6	
709.35	8467.7	
709.53	8533.2	
709.72	6663.4	
709.9	7004.1	
710.08	8647.2	
710.26	8647.9	
710.45	7868.3	
710.63	6949.4	
710.81	8322.9	
710.99	8415.1	
711.18	7344.7	
711.36	6908.5	
711.54	8211.7	
711.72	8758.5	
711.91	6918	
712.09	6541.9	
712.27	8268.3	
712.45	8745.5	
712.64	7109.9	
712.82	6228.6	
713	7772	
713.18	7972.7	
713.37	6393.1	
713.55	7342.7	
713.73	8514.8	
713.91	7428.7	
714.1	6604	
714.28	6115.2	
714.46	8174.1	
714.64	7421.8	
714.83	5601.9	
715.01	6086.6	
715.19	7346.7	
715.37	6761.7	
715.55	5694.7	
715.74	5984.8	
715.92	7860.8	
716.1	6285.2	
716.28	6752.8	
716.47	5939.8	
716.65	6827.2	
716.83	6967.9	
717.01	5806.7	
717.19	5828.5	
717.38	8506.6	
717.56	6649.8	
717.74	6014.2	
717.92	5338.4	
718.1	7544.7	
718.29	6896.2	
718.47	5097.4	
718.65	5658.5	
718.83	7577.5	
719.01	7522.2	
719.2	5153.4	
719.38	5992.4	
719.56	7383.6	
719.74	8601.5	
719.92	5790.3	
720.11	6565.8	
720.29	7415	
720.47	6779.5	
720.65	5336.3	
720.83	5943.2	
721.02	6926.9	
721.2	6753.5	
721.38	5958.2	
721.56	5326.1	
721.74	6229.2	
721.92	6327.5	
722.11	6272.2	
722.29	5994.4	
722.47	7346.1	
722.65	6727.6	
722.83	5259.9	
723.01	5963.7	
723.2	6760.3	
723.38	6996.5	
723.56	4767	
723.74	5758.2	
723.92	6296.1	
724.1	7283.9	
724.29	5199.1	
724.47	6094.8	
724.65	6449.1	
724.83	6366.5	
725.01	5092.6	
725.19	5772.5	
725.37	6356.2	
725.56	6354.8	
725.74	4906.9	
725.92	5146.5	
726.1	6350.1	
726.28	6549.4	
726.46	5436	
726.64	5293.3	
726.83	6555.5	
727.01	6765.1	
727.19	4946.5	
727.37	5598.5	
727.55	6620.4	
727.73	7046.4	
727.91	4836.6	
728.09	4715.1	
728.28	7037.5	
728.46	7276.4	
728.64	5629.2	
728.82	5646.2	
729	7894.2	
729.18	7271.7	
729.36	5007.3	
729.54	6702.3	
729.72	8108.6	
729.91	6726.2	
730.09	6501.6	
730.27	5570.5	
730.45	6692.1	
730.63	7120.1	
730.81	5990.3	
730.99	5233.2	
731.17	7616.4	
731.35	6460	
731.53	5645.6	
731.71	5313.8	
731.9	7303.1	
732.08	7518.8	
732.26	5513.8	
732.44	5307	
732.62	7488.7	
732.8	7090.1	
732.98	5862	
733.16	5010.7	
733.34	7021.8	
733.52	6059.3	
733.7	5415.5	
733.88	5668.8	
734.07	6913.3	
734.25	6733	
734.43	5074.2	
734.61	6255.2	
734.79	7824.6	
734.97	6633.4	
735.15	5170.4	
735.33	5446.2	
735.51	6833.4	
735.69	6610.8	
735.87	6135.7	
736.05	5461.9	
736.23	6778.1	
736.41	6477.7	
736.59	5341.8	
736.77	5371.8	
736.95	7019.1	
737.13	6546	
737.32	4975.2	
737.5	5223.7	
737.68	7401.4	
737.86	6409.5	
738.04	4851.6	
738.22	6212.9	
738.4	6248.4	
738.58	6488	
738.76	5333.6	
738.94	4474.8	
739.12	6409.5	
739.3	6244.3	
739.48	5820.3	
739.66	5549.3	
739.84	6599.9	
740.02	6550.1	
740.2	4498	
740.38	4786.1	
740.56	6808.8	
740.74	5876.3	
740.92	5318.6	
741.1	5272.2	
741.28	6350.8	
741.46	6162.3	
741.64	4944.5	
741.82	5397.8	
742	6341.2	
742.18	6235.4	
742.36	5037.3	
742.54	4728.8	
742.72	6788.3	
742.9	5733.6	
743.08	5274.2	
743.26	4369.7	
743.44	6818.4	
743.62	6767.9	
743.8	5472.9	
743.98	4709	
744.16	6569.2	
744.34	6171.9	
744.52	5297.4	
744.7	5283.8	
744.88	6646.3	
745.06	6064	
745.24	5378.6	
745.42	5407.3	
745.6	6654.5	
745.78	6453.1	
745.96	4422.9	
746.14	4591.5	
746.32	7230.7	
746.5	6546	
746.68	5047.6	
746.86	4598.4	
747.03	6846.4	
747.21	5542.5	
747.39	4954.7	
747.57	4599.1	
747.75	6229.9	
747.93	6516	
748.11	4598.4	
748.29	4453	
748.47	7596.6	
748.65	5972.6	
748.83	5187.5	
749.01	4899.4	
749.19	6410.1	
749.37	5706.3	
749.55	4797.7	
749.73	4930.8	
749.91	6117.3	
750.09	5948.7	
750.26	4864.6	
750.44	4376.5	
750.62	6158.9	
750.8	6025.8	
750.98	4269.3	
751.16	4611.3	
751.34	6161	
751.52	5654.4	
751.7	5162.9	
751.88	4321.2	
752.06	6548	
752.24	6292	
752.42	4201.1	
752.59	4450.2	
752.77	6056.5	
752.95	7066.9	
753.13	5028.4	
753.31	4670.7	
753.49	5777.3	
753.67	6090	
753.85	4814.1	
754.03	4413.4	
754.21	6309.8	
754.38	6533.7	
754.56	4578.6	
754.74	3821.5	
754.92	5591.6	
755.1	6158.9	
755.28	3730.7	
755.46	3798.3	
755.64	6737.1	
755.82	6849.1	
755.99	3846.8	
756.17	3997	
756.35	4697.4	
756.53	5942.5	
756.71	3061.7	
756.89	3777.1	
757.07	5560.9	
757.25	4895.3	
757.42	4190.1	
757.6	4883	
757.78	5689.9	
757.96	4962.2	
758.14	4007.2	
758.32	3659	
758.5	4545.1	
758.67	5184.8	
758.85	3863.2	
759.03	3938.2	
759.21	5420.3	
759.39	4848.2	
759.57	3562.1	
759.75	4456.4	
759.92	5955.5	
760.1	5423.7	
760.28	4768.4	
760.46	4941.7	
760.64	5208	
760.82	5065.3	
760.99	4446.1	
761.17	3957.4	
761.35	5899.5	
761.53	5023.7	
761.71	4094.6	
761.89	4629.8	
762.06	5670.8	
762.24	5331.5	
762.42	4185.4	
762.6	3958.7	
762.78	5373.2	
762.96	5828.5	
763.13	4421.6	
763.31	4207.2	
763.49	5982.8	
763.67	5348.6	
763.85	4817.5	
764.02	5326.1	
764.2	6197.2	
764.38	5522	
764.56	4121.2	
764.74	4788.2	
764.91	6243.6	
765.09	5344.5	
765.27	3915	
765.45	3691.8	
765.63	6298.2	
765.8	6166.4	
765.98	3491.8	
766.16	3756.7	
766.34	4999.8	
766.52	4856.4	
766.69	4515.8	
766.87	3562.8	
767.05	5427.8	
767.23	5939.1	
767.41	3907.5	
767.58	4038.6	
767.76	5762.3	
767.94	5832.6	
768.12	3882.3	
768.29	4431.1	
768.47	5343.2	
768.65	5948.7	
768.83	3577.1	
769	4530.8	
769.18	4997.7	
769.36	5547.3	
769.54	4457.1	
769.72	3632.4	
769.89	5849.7	
770.07	5858.6	
770.25	3955.3	
770.43	4899.4	
770.6	6484.6	
770.78	6704.4	
770.96	4051.6	
771.14	4496.7	
771.31	5799.2	
771.49	5169.8	
771.67	3349.8	
771.85	3564.8	
772.02	4614.1	
772.2	5113.8	
772.38	4126	
772.55	3698.6	
772.73	5498.1	
772.91	5309.7	
773.09	4004.5	
773.26	4114.4	
773.44	5364.3	
773.62	5079	
773.8	3611.9	
773.97	3426.9	
774.15	5423	
774.33	5165	
774.5	3528	
774.68	3822.9	
774.86	5498.8	
775.04	5104.2	
775.21	3614	
775.39	3558	
775.57	5332.2	
775.74	5649	
775.92	3505.4	
776.1	3311.6	
776.27	5332.2	
776.45	6285.2	
776.63	3623.5	
776.81	3226.2	
776.98	5046.9	
777.16	5899.5	
777.34	3674.7	
777.51	3950.5	
777.69	4980	
777.87	4836.6	
778.04	3724.6	
778.22	4236.6	
778.4	4892.6	
778.57	5398.4	
778.75	3127.9	
778.93	3352.5	
779.1	4730.8	
779.28	4548.5	
779.46	3138.9	
779.64	3521.1	
779.81	5535	
779.99	6186.2	
780.17	4111	
780.34	4255	
780.52	5067.4	
780.69	5167	
780.87	3790.8	
781.05	3437.9	
781.22	5117.2	
781.4	5185.5	
781.58	3599.6	
781.75	2877.4	
781.93	5145.2	
782.11	4564.2	
782.28	4237.2	
782.46	3546.4	
782.64	4517.8	
782.81	5236	
782.99	3615.3	
783.17	3526.6	
783.34	5131.5	
783.52	4620.9	
783.69	3695.2	
783.87	4380.6	
784.05	4670.7	
784.22	4649.6	
784.4	4351.9	
784.58	3801	
784.75	5434.6	
784.93	4707.6	
785.1	3543	
785.28	4043.4	
785.46	5131.5	
785.63	4616.1	
785.81	3521.8	
785.99	3328.6	
786.16	4831.8	
786.34	4948.6	
786.51	3360	
786.69	3717.7	
786.87	4382	
787.04	4784.1	
787.22	3285.6	
787.39	4071.4	
787.57	4644.1	
787.75	5437.4	
787.92	4198.3	
788.1	4100.7	
788.27	4634.6	
788.45	4413.4	
788.63	3970.3	
788.8	2892.4	
788.98	5068	
789.15	4375.1	
789.33	3000.3	
789.5	3549.1	
789.68	5401.2	
789.86	5447.6	
790.03	3822.9	
790.21	3409.9	
790.38	5360.9	
790.56	4801.1	
790.73	3334.1	
790.91	3253.5	
791.09	4601.8	
791.26	5207.3	
791.44	3568.9	
791.61	2990.7	
791.79	4619.5	
791.96	4635.9	
792.14	3130	
792.32	2829.6	
792.49	4585.4	
792.67	4729.4	
792.84	3235.8	
793.02	3035.1	
793.19	4975.2	
793.37	5509.7	
793.54	2828.9	
793.72	3099.9	
793.89	5591.6	
794.07	4605.2	
794.25	3534.1	
794.42	2885.6	
794.6	5461.2	
794.77	5119.2	
794.95	3758.7	
795.12	3358	
795.3	4633.9	
795.47	5060.5	
795.65	3699.3	
795.82	3482.2	
796	4527.4	
796.17	5935.7	
796.35	3431	
796.52	4012	
796.7	5044.8	
796.87	5130.2	
797.05	3407.1	
797.22	4117.8	
797.4	5117.9	
797.57	5877.7	
797.75	3561.4	
797.92	3264.5	
798.1	5360.2	
798.27	4503.5	
798.45	2907.4	
798.62	3117	
798.8	4869.4	
798.97	5184.1	
799.15	3723.2	
799.32	3513.6	
799.5	4191.5	
799.67	4832.5	
799.85	3775.1	
800.02	2854.9	
800.2	4602.5	
800.37	4774.5	
800.55	3960.1	
800.72	3300.6	
800.9	5202.5	
801.07	5525.4	
801.25	4367	
801.42	3654.3	
801.6	5279	
801.77	4956.8	
801.95	3424.2	
802.12	3206.4	
802.29	4999.8	
802.47	4909	
802.64	3622.9	
802.82	2838.5	
802.99	4525.3	
803.17	5365	
803.34	3445.4	
803.52	3218.7	
803.69	5905.7	
803.87	4383.3	
804.04	3466.5	
804.21	3567.6	
804.39	5481.7	
804.56	4696.7	
804.74	3049.4	
804.91	3652.2	
805.09	4577.2	
805.26	4593.6	
805.44	3102.7	
805.61	3355.9	
805.78	5095.3	
805.96	5135.6	
806.13	3587.4	
806.31	3845.4	
806.48	4197.7	
806.66	4614.8	
806.83	3595.6	
807	3494.5	
807.18	4565.6	
807.35	4859.8	
807.53	3500	
807.7	2893.8	
807.87	5435.3	
808.05	4582.7	
808.22	3850.2	
808.4	2846.7	
808.57	4588.1	
808.74	4294.6	
808.92	3275.4	
809.09	4108.2	
809.27	4521.9	
809.44	4988.2	
809.61	2888.3	
809.79	3173	
809.96	5537.7	
810.14	5113.1	
810.31	2852.8	
810.48	3482.2	
810.66	4666.6	
810.83	5233.9	
811.01	3243.3	
811.18	3598.3	
811.35	5126.7	
811.53	4132.1	
811.7	3935.5	
811.87	3640.6	
812.05	4657.8	
812.22	4529.4	
812.39	3177.1	
812.57	3087.7	
812.74	4633.2	
812.92	5954.1	
813.09	3442.6	
813.26	3667.2	
813.44	5719.3	
813.61	4534.2	
813.78	2893.1	
813.96	3740.3	
814.13	4614.8	
814.3	4385.4	
814.48	4039.3	
814.65	3382.6	
814.82	5509	
815	4368.3	
815.17	3495.9	
815.34	4160.1	
815.52	4569	
815.69	4508.9	
815.87	3484.3	
816.04	3364.1	
816.21	4573.1	
816.38	4159.4	
816.56	3332.7	
816.73	3170.9	
816.9	5702.9	
817.08	5210.7	
817.25	3140.9	
817.42	3895.9	
817.6	4269.3	
817.77	4573.1	
817.94	3547.8	
818.12	3122.5	
818.29	4363.5	
818.46	6449.1	
818.64	3256.3	
818.81	3033	
818.98	4319.2	
819.16	6069.5	
819.33	3741.6	
819.5	3493.2	
819.67	4934.2	
819.85	5431.2	
820.02	3449.5	
820.19	3576.4	
820.37	4846.2	
820.54	4521.9	
820.71	3532.7	
820.88	4313.7	
821.06	4803.2	
821.23	4404.5	
821.4	3530.7	
821.58	3515.7	
821.75	5150.6	
821.92	4717.2	
822.09	2858.3	
822.27	2989.4	
822.44	4601.8	
822.61	4515.8	
822.79	2890.4	
822.96	5379.3	
823.13	4907.6	
823.3	4351.9	
823.48	3274	
823.65	3016.7	
823.82	5141.1	
823.99	4300.7	
824.17	4113	
824.34	3018.7	
824.51	5880.4	
824.68	4614.1	
824.86	3194.8	
825.03	3547.8	
825.2	4575.2	
825.37	5453.1	
825.55	3144.3	
825.72	3508.9	
825.89	5824.4	
826.06	5507.7	
826.24	3370.3	
826.41	3390.1	
826.58	5522.7	
826.75	4795	
826.92	2767.5	
827.1	2996.2	
827.27	7273.7	
827.44	5786.9	
827.61	3215.3	
827.79	3845.4	
827.96	4406.5	
828.13	4653.7	
828.3	3431.7	
828.47	2880.1	
828.65	4813.4	
828.82	4791.6	
828.99	4174.4	
829.16	3771.7	
829.34	5173.2	
829.51	4986.8	
829.68	3495.2	
829.85	3543	
830.02	5444.9	
830.2	5116.5	
830.37	2676.7	
830.54	4115.7	
830.71	5730.2	
830.88	4591.5	
831.05	2710.1	
831.23	3147.7	
831.4	5547.3	
831.57	6077	
831.74	3198.9	
831.91	2832.3	
832.09	4893.3	
832.26	5166.3	
832.43	3319.1	
832.6	3705.5	
832.77	4811.4	
832.94	5451	
833.12	2663	
833.29	3264.5	
833.46	4539	
833.63	6268.8	
833.8	3573	
833.97	3327.3	
834.15	5137	
834.32	4963.6	
834.49	3486.3	
834.66	3502.7	
834.83	5212.8	
835	4440.7	
835.17	3211.2	
835.35	3153.2	
835.52	5041.4	
835.69	5020.3	
835.86	3402.4	
836.03	2757.9	
836.2	5111	
836.37	4769.7	
836.55	3291.8	
836.72	3123.2	
836.89	4735.6	
837.06	5168.4	
837.23	3362.8	
837.4	3691.1	
837.57	5768.4	
837.75	6272.9	
837.92	3069.9	
838.09	3189.4	
838.26	4768.4	
838.43	5285.8	
838.6	3446	
838.77	3117	
838.94	5990.3	
839.11	5778	
839.29	3366.2	
839.46	2621.4	
839.63	5132.9	
839.8	4823.6	
839.97	3241.3	
840.14	3179.1	
840.31	5002.5	
840.48	5180.7	
840.65	2732	
840.82	3194.8	
841	5090.6	
841.17	5008.6	
841.34	2947.7	
841.51	3067.9	
841.68	5077.6	
841.85	4831.2	
842.02	3121.8	
842.19	2618	
842.36	4941.1	
842.53	4945.8	
842.7	3046	
842.87	3517	
843.05	6229.9	
843.22	4823.6	
843.39	2834.4	
843.56	3063.1	
843.73	4721.9	
843.9	5223.7	
844.07	4715.1	
844.24	3947.8	
844.41	6990.4	
844.58	4533.5	
844.75	2915.6	
844.92	3133.4	
845.09	5079.6	
845.26	5100.8	
845.43	2924.5	
845.6	3116.3	
845.77	5095.3	
845.94	4976.6	
846.12	3222.1	
846.29	3437.2	
846.46	5305.6	
846.63	5032.5	
846.8	2949.1	
846.97	3513.6	
847.14	5537.7	
847.31	5063.9	
847.48	3277.4	
847.65	3646.7	
847.82	5255.8	
847.99	5270.8	
848.16	3896.6	
848.33	3590.8	
848.5	4756.7	
848.67	5442.1	
848.84	2947.7	
849.01	3104	
849.18	4728.8	
849.35	4429.1	
849.52	3637.2	
849.69	2908.1	
849.86	5272.8	
850.03	5423	
850.2	2984.6	
850.37	3558	
850.54	5347.2	
850.71	4780	
850.88	3549.8	
851.05	2930.6	
851.22	4958.1	
851.39	5516.5	
851.56	2835.1	
851.73	3333.4	
851.9	4505.5	
852.07	5269.4	
852.24	3290.4	
852.41	2923.1	
852.58	5023.7	
852.75	4579.3	
852.92	3299.3	
853.09	2925.2	
853.26	4728.8	
853.43	5416.2	
853.6	2981.8	
853.77	2533.3	
853.94	5593.7	
854.11	4493.9	
854.28	4257.7	
854.44	3211.9	
854.61	5853.1	
854.78	5292.6	
854.95	2959.3	
855.12	3642.7	
855.29	4159.4	
855.46	5636	
855.63	3001	
855.8	3956.7	
855.97	4701.5	
856.14	5340.4	
856.31	4138.3	
856.48	3186.6	
856.65	4746.5	
856.82	4464.6	
856.99	2827.6	
857.16	3216	
857.33	6041.5	
857.49	4871.4	
857.66	3147.7	
857.83	3342.3	
858	4777.2	
858.17	4962.9	
858.34	2792.1	
858.51	2934.1	
858.68	5629.9	
858.85	5608.7	
859.02	3387.3	
859.19	3579.2	
859.36	4576.5	
859.52	4506.2	
859.69	2947.7	
859.86	3450.1	
860.03	4556	
860.2	5510.4	
860.37	2741.5	
860.54	2988.7	
860.71	5238.7	
860.88	5540.4	
861.05	3270.6	
861.21	3709.6	
861.38	5573.2	
861.55	4386.7	
861.72	2766.1	
861.89	3295.2	
862.06	5283.1	
862.23	5670.1	
862.4	2899.2	
862.56	3083.6	
862.73	5197.1	
862.9	4879.6	
863.07	3387.3	
863.24	2713.6	
863.41	4453	
863.58	4505.5	
863.75	2988.7	
863.91	3361.4	
864.08	5465.3	
864.25	5160.9	
864.42	3642	
864.59	4063.2	
864.76	5839.4	
864.93	4562.2	
865.09	2817.3	
865.26	3160.7	
865.43	5503.6	
865.6	5773.9	
865.77	2603	
865.94	2975.7	
866.1	5451	
866.27	5221	
866.44	4328	
866.61	2835.8	
866.78	4799.1	
866.95	5193.6	
867.11	2904	
867.28	2633.7	
867.45	5333.6	
867.62	4616.1	
867.79	3335.5	
867.96	2962.7	
868.12	4529.4	
868.29	5303.6	
868.46	2950.4	
868.63	3878.9	
868.8	5366.4	
868.97	5182	
869.13	3109.5	
869.3	3108.8	
869.47	5135.6	
869.64	5307.7	
869.81	2988	
869.97	2904.7	
870.14	5014.1	
870.31	5559.6	
870.48	2887	
870.65	3642	
870.81	4790.9	
870.98	4821.6	
871.15	3379.1	
871.32	3108.1	
871.48	5131.5	
871.65	5621.7	
871.82	2926.5	
871.99	3270.6	
872.16	5963.7	
872.32	5421	
872.49	2966.8	
872.66	2993.4	
872.83	5278.3	
872.99	4721.3	
873.16	3357.3	
873.33	2911.5	
873.5	4947.9	
873.67	4969.7	
873.83	3179.1	
874	3862.5	
874.17	5108.3	
874.34	5847	
874.5	3714.3	
874.67	3670.6	
874.84	5581.4	
875.01	4398.4	
875.17	4089.1	
875.34	2941.6	
875.51	5008	
875.68	5905	
875.84	3530.7	
876.01	4244.1	
876.18	5222.3	
876.34	5192.3	
876.51	3018	
876.68	2922.5	
876.85	4734.2	
877.01	5471.5	
877.18	4076.8	
877.35	2930	
877.52	4947.9	
877.68	4417.5	
877.85	2909.5	
878.02	2887.6	
878.18	4891.2	
878.35	4711	
878.52	2420.7	
878.69	3268.6	
878.85	5284.4	
879.02	5157.5	
879.19	4112.3	
879.35	3155.2	
879.52	5194.3	
879.69	5332.9	
879.86	2593.4	
880.02	3315	
880.19	4882.4	
880.36	5879.7	
880.52	3390.1	
880.69	3463.1	
880.86	5333.6	
881.02	5328.1	
881.19	3293.8	
881.36	3199.6	
881.52	5203.9	
881.69	4713.1	
881.86	3190.1	
882.02	3138.2	
882.19	5408	
882.36	6254.5	
882.52	2983.9	
882.69	4027.7	
882.86	5036.6	
883.02	4997.7	
883.19	3491.8	
883.36	3309.5	
883.52	5326.1	
883.69	5923.4	
883.86	2977.1	
884.02	2710.8	
884.19	5188.2	
884.36	4876.2	
884.52	3297.9	
884.69	3095.8	
884.86	4691.9	
885.02	5709.7	
885.19	3292.5	
885.36	3345	
885.52	4883.7	
885.69	5057.1	
885.86	4229.1	
886.02	3741	
886.19	5265.3	
886.35	4749.9	
886.52	3273.3	
886.69	4055	
886.85	4524	
887.02	5504.9	
887.19	5504.9	
887.35	5504.9	
887.52	5504.9	
887.68	5504.9	
887.85	5504.9	
888.02	5504.9	
888.18	5504.9	
888.35	5504.9	
888.51	5504.9	
888.68	5504.9	
888.85	5504.9	
889.01	5504.9	
889.18	5504.9	
889.35	5504.9	
889.51	5504.9	
889.68	5504.9	
889.84	5504.9	
890.01	5504.9	
890.17	5504.9	
890.34	5504.9	
890.51	5504.9	
890.67	5504.9	
890.84	5504.9	
891	5504.9	
891.17	5504.9	
891.34	5504.9	
891.5	5504.9	
891.67	5504.9	
891.83	5504.9	
892	5504.9	
892.16	5504.9	
892.33	5504.9	
892.5	5504.9	
892.66	5504.9	
892.83	5504.9	
892.99	5504.9	
893.16	5504.9	
893.32	5504.9	
893.49	5504.9	
893.65	5504.9	
893.82	5504.9	
893.99	5504.9	
894.15	5504.9	
894.32	5504.9	
894.48	5504.9	
894.65	5504.9	
894.81	5504.9	
894.98	5504.9	
895.14	5504.9	
895.31	5504.9	
895.47	5504.9	
895.64	5504.9	
895.81	5504.9	
895.97	5504.9	
896.14	5504.9	
896.3	5504.9	
896.47	5504.9	
896.63	5504.9	
896.8	5504.9	
896.96	5504.9	
897.13	5504.9	
897.29	5504.9	
897.46	5504.9	
897.62	5504.9	
897.79	5504.9	
897.95	5504.9	
898.12	5504.9	
898.28	5504.9	
898.45	5504.9	
898.61	5504.9	
898.78	5504.9	
898.94	5504.9	
899.11	5504.9	
899.27	5504.9	
899.44	5504.9	
899.6	5504.9	
899.77	5504.9	
899.93	5504.9	
900.1	5504.9	
900.26	5504.9	
900.43	5504.9	
900.59	5504.9	
900.76	5504.9	
900.92	5504.9	
901.09	5504.9	
901.25	5504.9	
901.42	5504.9	
901.58	5504.9	
901.75	5504.9	
901.91	5504.9	
902.07	5504.9	
902.24	5504.9	
902.4	5504.9	
902.57	5504.9	
902.73	5504.9	
902.9	5504.9	
903.06	5504.9	
903.23	5504.9	
903.39	5504.9	
903.56	5504.9	
903.72	5504.9	
903.88	5504.9	
904.05	5504.9	
904.21	5504.9	
904.38	5504.9	
904.54	5504.9	
904.71	5504.9	
904.87	5504.9	
905.03	5504.9	
905.2	5504.9	
905.36	5504.9	
905.53	5504.9	
905.69	5504.9	
905.86	5504.9	
906.02	5504.9	
906.18	5504.9	
906.35	5504.9	
906.51	5504.9	
906.68	5504.9	
906.84	5504.9	
907.01	5504.9	
907.17	5504.9	
907.33	5504.9	
907.5	5504.9	
907.66	5504.9	
907.83	5504.9	
907.99	5504.9	
908.15	5504.9	
908.32	5504.9	
908.48	5504.9	
908.65	5504.9	
908.81	5504.9	
908.97	5504.9	
909.14	5504.9	
909.3	5504.9	
909.47	5504.9	
909.63	5504.9	
909.79	5504.9	
909.96	5504.9	
910.12	5504.9	
910.28	5504.9	
910.45	5504.9	
910.61	5504.9	
910.78	5504.9	
910.94	5504.9	
911.1	5504.9	
911.27	5504.9	
911.43	5504.9	
911.59	5504.9	
911.76	5504.9	
911.92	5504.9	
912.08	5504.9	
912.25	5504.9	
912.41	5504.9	
912.57	5504.9	
912.74	5504.9	
912.9	5504.9	
913.07	5504.9	
913.23	5504.9	
913.39	5504.9	
913.56	5504.9	
913.72	5504.9	
913.88	5504.9	
914.05	5504.9	
914.21	5504.9	
914.37	5504.9	
914.54	5504.9	
914.7	5504.9	
914.86	5504.9	
915.03	5504.9	
915.19	5504.9	
