Wavelength	Intensities	
nm	a.u.	
179.22	1896.8	
179.44	1899.8	
179.65	1893.7	
179.86	1906	
180.08	1949.7	
180.29	4932.9	
180.51	3497.2	
180.72	5659.2	
180.94	6635.4	
181.15	3268.6	
181.37	3194.1	
181.58	5470.1	
181.79	5865.4	
182.01	3398.3	
182.22	3681.6	
182.44	5880.4	
182.65	4853.7	
182.87	4670.1	
183.08	3997	
183.29	6081.1	
183.51	4980.7	
183.72	3721.2	
183.94	5417.6	
184.15	5426.4	
184.37	5412.8	
184.58	3272	
184.79	4428.4	
185.01	5026.4	
185.22	5805.3	
185.44	4713.1	
185.65	3984	
185.86	5250.3	
186.08	4866.7	
186.29	3162.7	
186.51	3364.8	
186.72	5040.7	
186.94	5969.8	
187.15	3936.9	
187.36	4045.4	
187.58	7754.3	
187.79	5553.4	
188.01	4173.8	
188.22	6559.6	
188.43	6635.4	
188.65	5741.1	
188.86	3374.4	
189.08	4034.5	
189.29	5239.4	
189.5	5244.2	
189.72	3731.4	
189.93	3839.3	
190.15	6002.6	
190.36	7187.7	
190.57	4118.5	
190.79	4020.8	
191	6146.6	
191.22	6018.3	
191.43	4091.2	
191.64	3373.7	
191.86	6309.1	
192.07	5975.3	
192.29	3562.8	
192.5	3730	
192.71	5960.3	
192.93	5179.3	
193.14	3668.6	
193.35	3871.3	
193.57	5283.1	
193.78	5980.1	
194	2958.6	
194.21	3685	
194.42	4954.7	
194.64	5463.3	
194.85	4085.7	
195.07	4700.8	
195.28	5406.6	
195.49	4745.1	
195.71	5039.4	
195.92	3476.1	
196.13	5601.9	
196.35	5716.6	
196.56	5360.2	
196.78	4031.1	
196.99	7062.1	
197.2	6674.3	
197.42	4597	
197.63	4106.9	
197.84	4838	
198.06	5616.9	
198.27	3716.4	
198.48	5104.2	
198.7	5257.8	
198.91	5319.9	
199.13	4039.3	
199.34	4102.1	
199.55	5838.8	
199.77	4742.4	
199.98	3611.3	
200.19	4141	
200.41	5324.7	
200.62	5022.3	
200.83	4280.3	
201.05	4511	
201.26	5366.4	
201.47	5073.5	
201.69	3652.9	
201.9	3430.3	
202.11	5360.2	
202.33	6425.8	
202.54	3876.8	
202.76	4281.6	
202.97	5573.2	
203.18	5537.7	
203.4	4209.9	
203.61	4210.6	
203.82	5455.8	
204.04	5096.7	
204.25	4153.3	
204.46	4046.1	
204.68	5459.2	
204.89	5662	
205.1	4027	
205.32	3437.9	
205.53	5789.6	
205.74	6000.5	
205.96	2968.9	
206.17	4175.8	
206.38	5843.5	
206.6	5986.2	
206.81	4687.1	
207.02	3786.7	
207.24	5673.6	
207.45	6105.7	
207.66	3895.2	
207.88	3332.7	
208.09	5627.8	
208.3	5386.8	
208.52	3573.7	
208.73	3896.6	
208.94	5426.4	
209.15	6141.2	
209.37	3852.2	
209.58	4053.6	
209.79	5923.4	
210.01	5193	
210.22	3056.9	
210.43	3250.8	
210.65	5410.7	
210.86	5863.3	
211.07	3883.6	
211.29	3564.8	
211.5	5743.9	
211.71	5359.5	
211.93	3567.6	
212.14	3551.2	
212.35	5370.5	
212.56	5591.6	
212.78	4064.5	
212.99	3373	
213.2	6424.5	
213.42	5210	
213.63	3713.6	
213.84	3992.9	
214.06	4845.5	
214.27	4919.9	
214.48	3913.7	
214.69	4113.7	
214.91	6117.3	
215.12	6227.9	
215.33	4207.9	
215.55	4643.4	
215.76	6707.8	
215.97	5778.7	
216.18	4050.2	
216.4	3908.2	
216.61	5091.3	
216.82	5961	
217.04	3568.9	
217.25	3734.8	
217.46	6059.9	
217.67	5918.6	
217.89	3181.2	
218.1	3327.9	
218.31	5522.7	
218.53	5661.3	
218.74	3745.1	
218.95	3645.4	
219.16	5397.8	
219.38	6374.6	
219.59	3653.6	
219.8	4379.9	
220.01	7039.6	
220.23	5520	
220.44	4828.4	
220.65	3553.9	
220.87	5474.2	
221.08	6118.6	
221.29	3297.9	
221.5	4417.5	
221.72	7400.7	
221.93	5168.4	
222.14	4182.6	
222.35	4855.7	
222.57	5564.3	
222.78	5798.5	
222.99	3913.7	
223.2	4242.7	
223.42	5775.3	
223.63	5883.1	
223.84	3000.3	
224.05	2927.9	
224.27	6963.8	
224.48	6362.4	
224.69	4880.3	
224.9	4115.7	
225.12	5651	
225.33	5394.3	
225.54	3305.4	
225.75	3659.7	
225.97	4994.3	
226.18	5249.6	
226.39	3966.2	
226.6	3635.8	
226.82	5253	
227.03	5056.4	
227.24	4085.7	
227.45	3377.8	
227.67	5778.7	
227.88	6417	
228.09	4550.6	
228.3	4569	
228.52	5846.3	
228.73	5390.9	
228.94	3803.1	
229.15	3376.4	
229.36	5378	
229.58	5332.2	
229.79	3827.7	
230	4496	
230.21	6520	
230.43	5508.4	
230.64	4048.2	
230.85	4251.6	
231.06	5803.3	
231.28	5855.1	
231.49	3327.3	
231.7	4009.2	
231.91	5795.8	
232.12	5477	
232.34	3480.2	
232.55	3988.1	
232.76	6081.1	
232.97	5593	
233.18	3594.9	
233.4	4059.1	
233.61	5678.3	
233.82	5206.6	
234.03	3670	
234.25	3703.4	
234.46	7619.1	
234.67	5507.7	
234.88	4207.2	
235.09	3639.2	
235.31	5726.1	
235.52	5398.4	
235.73	4037.9	
235.94	3452.9	
236.15	5113.1	
236.37	6576	
236.58	3618.1	
236.79	3913.7	
237	5730.2	
237.21	4932.9	
237.43	4206.5	
237.64	3284.9	
237.85	9929.9	
238.06	5008.6	
238.27	4248.9	
238.48	3437.2	
238.7	5781.4	
238.91	5274.9	
239.12	3885	
239.33	3986	
239.54	5048.2	
239.76	5334.3	
239.97	3845.4	
240.18	3911.6	
240.39	6791.7	
240.6	5678.3	
240.82	4051.6	
241.03	3267.9	
241.24	5419.6	
241.45	6351.4	
241.66	3544.4	
241.87	4198.3	
242.09	6195.8	
242.3	6538.5	
242.51	4245.4	
242.72	3980.6	
242.93	5948.7	
243.14	5390.9	
243.36	4498.7	
243.57	4929.5	
243.78	6311.2	
243.99	5864	
244.2	3972.4	
244.41	3550.5	
244.63	4924	
244.84	5703.6	
245.05	4154.6	
245.26	3936.2	
245.47	5726.8	
245.68	5958.9	
245.9	5246.2	
246.11	4139.6	
246.32	5255.8	
246.53	5681.1	
246.74	6349.4	
246.95	3269.2	
247.16	4920.6	
247.38	5376.6	
247.59	3291.1	
247.8	3920.5	
248.01	5094	
248.22	5383.4	
248.43	3573	
248.64	3831.1	
248.86	4832.5	
249.07	5129.5	
249.28	3435.1	
249.49	4040	
249.7	5996.5	
249.91	6163	
250.12	3259.7	
250.34	3302	
250.55	5520	
250.76	5424.4	
250.97	4038.6	
251.18	4110.3	
251.39	6191	
251.6	5536.3	
251.81	4126	
252.03	4156	
252.24	5130.8	
252.45	5967.1	
252.66	3414	
252.87	4326.7	
253.08	5464	
253.29	7223.2	
253.5	3433.8	
253.72	4814.1	
253.93	5233.2	
254.14	6489.3	
254.35	3749.1	
254.56	3821.5	
254.77	5640.1	
254.98	5075.5	
255.19	3650.8	
255.41	4795	
255.62	5544.5	
255.83	6085.2	
256.04	4202.4	
256.25	4111.6	
256.46	6507.1	
256.67	5123.3	
256.88	4029.7	
257.09	4557.4	
257.31	5108.3	
257.52	5124	
257.73	5042.8	
257.94	3756	
258.15	5272.8	
258.36	5480.4	
258.57	4701.5	
258.78	3004.4	
258.99	5958.2	
259.2	5199.1	
259.41	3713	
259.63	3813.3	
259.84	6291.4	
260.05	6793.8	
260.26	4960.9	
260.47	3618.1	
260.68	6016.2	
260.89	5349.3	
261.1	4534.2	
261.31	3564.8	
261.52	6053.1	
261.73	6422.4	
261.95	4894.6	
262.16	4276.2	
262.37	6210.1	
262.58	6264.7	
262.79	4812.7	
263	3814.7	
263.21	5524.1	
263.42	4946.5	
263.63	3864.5	
263.84	3726.6	
264.05	5958.9	
264.26	6406	
264.47	4677.6	
264.69	4229.1	
264.9	6214.9	
265.11	5624.4	
265.32	3648.8	
265.53	3706.8	
265.74	5597.8	
265.95	4829.1	
266.16	4020.2	
266.37	4465.3	
266.58	5596.4	
266.79	5253.7	
267	3687	
267.21	3458.3	
267.42	4924.7	
267.63	5436	
267.84	3902.7	
268.06	3340.2	
268.27	5812.1	
268.48	6154.1	
268.69	3849.5	
268.9	4524	
269.11	6153.5	
269.32	4942.4	
269.53	3879.5	
269.74	3662.5	
269.95	5771.2	
270.16	4784.7	
270.37	3866.6	
270.58	4561.5	
270.79	5248.9	
271	5933	
271.21	4269.3	
271.42	3922.5	
271.63	5630.5	
271.84	5053	
272.05	3158.7	
272.26	3535.5	
272.47	5432.6	
272.68	5668.8	
272.89	3719.1	
273.11	4335.5	
273.32	5229.8	
273.53	6378.1	
273.74	4276.2	
273.95	4212	
274.16	6092.7	
274.37	5546.6	
274.58	4289.1	
274.79	3414	
275	5567.1	
275.21	6165.8	
275.42	5155.4	
275.63	4460.5	
275.84	5674.9	
276.05	7197.2	
276.26	4164.2	
276.47	3904.1	
276.68	5254.4	
276.89	6440.2	
277.1	4408.6	
277.31	3441.3	
277.52	5718.6	
277.73	5834.7	
277.94	3348.4	
278.15	3803.1	
278.36	5696.1	
278.57	5091.9	
278.78	3693.2	
278.99	4197.7	
279.2	4971.8	
279.41	5040.1	
279.62	4976.6	
279.83	3547.1	
280.04	6678.4	
280.25	4966.3	
280.46	4932.9	
280.67	3902.7	
280.88	5105.6	
281.09	6176.7	
281.3	4125.3	
281.51	5239.4	
281.72	5147.2	
281.93	5932.3	
282.14	3648.1	
282.35	3981.9	
282.56	5905.7	
282.77	5887.9	
282.98	3723.9	
283.19	4668.7	
283.4	7359.7	
283.61	5354.8	
283.82	3357.3	
284.03	4852.3	
284.24	5525.4	
284.45	6135	
284.66	4883	
284.87	4644.1	
285.08	5998.5	
285.29	6220.4	
285.5	3261	
285.71	3865.9	
285.92	6064.7	
286.12	6730.3	
286.33	4828.4	
286.54	3846.1	
286.75	6006	
286.96	5279.7	
287.17	3490.4	
287.38	4825.7	
287.59	5117.9	
287.8	4994.3	
288.01	3863.2	
288.22	4427.7	
288.43	5965.1	
288.64	4964.3	
288.85	4586.8	
289.06	4363.5	
289.27	5959.6	
289.48	6326.2	
289.69	4837.3	
289.9	4370.4	
290.11	6130.3	
290.32	5154.1	
290.53	4683.7	
290.74	4276.2	
290.94	5859.2	
291.15	5988.9	
291.36	3676.1	
291.57	4436.6	
291.78	5203.2	
291.99	4851.6	
292.2	3558	
292.41	4287.8	
292.62	6050.4	
292.83	5713.8	
293.04	5348.6	
293.25	3568.9	
293.46	5225.7	
293.67	6088.6	
293.88	3659	
294.09	3539.6	
294.29	5010.7	
294.5	5612.1	
294.71	3951.9	
294.92	3794.2	
295.13	5241.4	
295.34	6615.6	
295.55	3308.8	
295.76	3398.3	
295.97	5841.5	
296.18	6689.3	
296.39	3530.7	
296.6	3684.3	
296.81	5571.8	
297.01	5908.4	
297.22	3829	
297.43	3616	
297.64	5119.2	
297.85	5099.4	
298.06	3017.3	
298.27	3336.8	
298.48	5498.8	
298.69	5132.9	
298.9	3979.2	
299.11	3662.5	
299.31	4978.6	
299.52	4932.2	
299.73	4312.3	
299.94	4166.9	
300.15	5386.8	
300.36	5060.5	
300.57	4218.8	
300.78	4192.9	
300.99	5350.7	
301.2	5532.2	
301.4	3674.7	
301.61	3998.3	
301.82	5802.6	
302.03	5902.2	
302.24	4487.1	
302.45	3497.2	
302.66	5821.7	
302.87	6147.3	
303.08	3678.8	
303.29	5070.1	
303.49	5218.2	
303.7	5463.3	
303.91	3326.6	
304.12	4826.4	
304.33	4885.1	
304.54	5551.4	
304.75	3730.7	
304.96	3469.9	
305.16	5777.3	
305.37	6531	
305.58	3226.9	
305.79	3297.9	
306	5808.7	
306.21	4879.6	
306.42	3689.8	
306.63	5644.9	
306.83	5332.9	
307.04	5988.9	
307.25	4119.8	
307.46	4064.5	
307.67	4674.1	
307.88	5902.9	
308.09	3598.3	
308.29	3713.6	
308.5	5520	
308.71	6051.1	
308.92	3993.5	
309.13	3551.9	
309.34	5398.4	
309.55	5371.8	
309.75	4579.3	
309.96	4220.2	
310.17	5916.6	
310.38	5143.8	
310.59	4441.4	
310.8	3462.4	
311.01	5297.4	
311.21	5320.6	
311.42	3534.8	
311.63	3663.1	
311.84	5209.3	
312.05	5592.3	
312.26	4078.2	
312.46	4476.9	
312.67	5251	
312.88	5014.1	
313.09	3504.1	
313.3	3433.1	
313.51	6340.5	
313.71	6644.3	
313.92	3564.1	
314.13	3773	
314.34	5638.1	
314.55	5396.4	
314.76	4584	
314.96	4061.1	
315.17	5533.6	
315.38	5864.7	
315.59	3577.8	
315.8	3365.5	
316.01	6382.2	
316.21	6363.7	
316.42	3444	
316.63	3924.6	
316.84	5329.5	
317.05	6147.3	
317.26	4264.6	
317.46	3792.8	
317.67	5376.6	
317.88	5855.1	
318.09	4483	
318.3	3281.5	
318.5	5117.9	
318.71	5795.8	
318.92	5819	
319.13	4166.3	
319.34	5986.9	
319.54	6094.8	
319.75	3346.4	
319.96	3171.6	
320.17	5872.9	
320.38	6063.4	
320.58	3191.4	
320.79	3933.5	
321	6045.6	
321.21	6162.3	
321.42	3919.8	
321.62	3304.1	
321.83	5069.4	
322.04	5511.1	
322.25	3773.7	
322.46	3580.5	
322.66	5592.3	
322.87	5749.3	
323.08	4422.9	
323.29	3493.8	
323.5	6568.5	
323.7	4947.9	
323.91	4865.3	
324.12	4354.7	
324.33	5532.9	
324.53	5826.5	
324.74	4229.7	
324.95	4409.3	
325.16	4855.7	
325.37	5247.6	
325.57	3582.6	
325.78	3660.4	
325.99	5457.2	
326.2	4940.4	
326.4	5171.8	
326.61	3299.3	
326.82	5411.4	
327.03	5594.4	
327.24	5046.2	
327.44	4852.3	
327.65	5759.6	
327.86	4607.9	
328.07	4177.9	
328.27	3424.2	
328.48	6136.4	
328.69	4995	
328.9	5140.4	
329.1	3851.5	
329.31	5337	
329.52	6264.1	
329.73	3598.3	
329.93	4035.9	
330.14	5480.4	
330.35	5744.6	
330.56	5806	
330.76	4427.7	
330.97	5280.3	
331.18	5711.1	
331.39	4017.4	
331.59	3220.1	
331.8	6043.6	
332.01	6233.3	
332.22	3672.7	
332.42	4214	
332.63	5573.2	
332.84	5128.8	
333.05	3994.2	
333.25	3571.7	
333.46	5246.2	
333.67	5485.8	
333.88	3768.3	
334.08	4197	
334.29	8160.5	
334.5	6242.9	
334.7	3556	
334.91	5113.1	
335.12	5083.1	
335.33	5864	
335.53	3966.9	
335.74	5915.9	
335.95	5191.6	
336.16	5079	
336.36	3930.7	
336.57	4579.9	
336.78	5002.5	
336.98	6087.9	
337.19	4894.6	
337.4	3815.4	
337.61	6612.9	
337.81	4952	
338.02	3607.8	
338.23	4720.6	
338.43	6269.5	
338.64	5073.5	
338.85	3582.6	
339.05	4707.6	
339.26	6345.3	
339.47	4934.2	
339.68	3585.3	
339.88	5301.5	
340.09	5673.6	
340.3	5965.7	
340.5	4210.6	
340.71	3233.1	
340.92	4956.8	
341.13	6160.3	
341.33	3446	
341.54	4232.5	
341.75	5677.7	
341.95	5317.9	
342.16	4036.5	
342.37	4402.5	
342.57	5058.5	
342.78	5402.5	
342.99	4513.7	
343.19	3235.1	
343.4	5902.2	
343.61	5694	
343.81	3802.4	
344.02	3514.3	
344.23	5874.3	
344.43	6297.5	
344.64	4446.8	
344.85	4349.9	
345.06	5745.9	
345.26	6062	
345.47	4125.3	
345.68	4858.5	
345.88	4807.9	
346.09	5956.2	
346.3	4212	
346.5	3151.1	
346.71	5478.3	
346.92	5205.9	
347.12	3269.2	
347.33	4085.7	
347.54	6079.7	
347.74	6455.2	
347.95	4128.7	
348.16	3056.3	
348.36	5268.1	
348.57	4983.4	
348.78	4041.3	
348.98	4392.2	
349.19	5417.6	
349.39	4928.1	
349.6	3250.8	
349.81	3704.1	
350.01	5671.5	
350.22	5129.5	
350.43	3920.5	
350.63	4797.7	
350.84	5525.4	
351.05	5276.9	
351.25	3629	
351.46	3261.7	
351.67	6014.2	
351.87	5180.7	
352.08	3903.4	
352.29	4369.7	
352.49	5924.8	
352.7	5614.2	
352.9	3452.9	
353.11	4338.3	
353.32	6663.4	
353.52	5272.2	
353.73	3440.6	
353.94	4397	
354.14	5743.2	
354.35	5631.9	
354.55	3586	
354.76	3954.6	
354.97	5728.2	
355.17	5530.9	
355.38	3334.1	
355.59	4702.1	
355.79	5159.5	
356	5574.6	
356.2	3949.8	
356.41	3455.6	
356.62	4825.7	
356.82	5380.7	
357.03	4244.1	
357.24	3852.9	
357.44	5153.4	
357.65	5276.3	
357.85	5100.8	
358.06	3977.2	
358.27	4955.4	
358.47	5105.6	
358.68	3302.7	
358.88	4220.9	
359.09	5689.9	
359.3	6118.6	
359.5	4904.2	
359.71	4372.4	
359.91	6522.8	
360.12	5892.7	
360.33	4176.5	
360.53	4710.3	
360.74	5146.5	
360.94	5187.5	
361.15	4433.9	
361.36	3616	
361.56	6007.4	
361.77	5389.6	
361.97	4890.5	
362.18	3859.1	
362.38	5968.5	
362.59	4994.3	
362.8	3546.4	
363	3364.8	
363.21	4868	
363.41	5518.6	
363.62	4141	
363.83	5063.3	
364.03	5599.8	
364.24	6649.8	
364.44	5233.2	
364.65	5196.4	
364.85	5362.9	
365.06	5227.8	
365.27	3695.2	
365.47	3784	
365.68	6375.3	
365.88	5332.9	
366.09	4162.2	
366.29	3838.6	
366.5	5626.5	
366.71	6021	
366.91	5137	
367.12	4313.7	
367.32	6632.7	
367.53	5909.8	
367.73	4244.1	
367.94	5220.3	
368.14	5834	
368.35	6844.3	
368.56	4269.3	
368.76	3647.4	
368.97	5899.5	
369.17	7642.3	
369.38	3707.5	
369.58	3999.7	
369.79	4955.4	
369.99	6270.2	
370.2	5053	
370.4	4119.8	
370.61	5631.9	
370.82	6821.1	
371.02	3990.8	
371.23	3242.6	
371.43	4833.9	
371.64	6200.6	
371.84	3994.2	
372.05	5256.5	
372.25	7573.4	
372.46	5982.8	
372.66	4008.6	
372.87	3968.3	
373.07	5958.2	
373.28	7606.8	
373.48	4985.4	
373.69	4756.1	
373.9	5453.1	
374.1	5435.3	
374.31	4919.9	
374.51	4505.5	
374.72	6321.4	
374.92	5130.8	
375.13	5131.5	
375.33	4331.5	
375.54	5857.9	
375.74	5294.7	
375.95	4416.8	
376.15	5661.3	
376.36	5834	
376.56	5674.9	
376.77	4365.6	
376.97	4870.8	
377.18	6941.2	
377.38	5962.3	
377.59	5167	
377.79	3908.2	
378	5726.8	
378.2	6152.1	
378.41	3992.2	
378.61	3822.9	
378.82	6208.1	
379.02	5271.5	
379.23	4161.5	
379.43	5264.6	
379.64	6307.7	
379.84	5897.5	
380.05	3981.3	
380.25	3917.1	
380.46	5950	
380.66	5612.8	
380.87	5393	
381.07	5721.3	
381.28	6664.1	
381.48	6028.5	
381.69	4003.1	
381.89	4037.9	
382.1	4938.3	
382.3	6236.1	
382.51	5156.1	
382.71	6080.4	
382.91	6021	
383.12	6582.2	
383.32	4378.6	
383.53	4603.2	
383.73	5844.2	
383.94	5689.9	
384.14	4483	
384.35	3659.7	
384.55	5549.3	
384.76	6111.1	
384.96	4408.6	
385.17	4662.5	
385.37	5967.1	
385.58	5282.4	
385.78	4727.4	
385.98	3540.9	
386.19	5481.7	
386.39	5874.9	
386.6	4138.3	
386.8	4416.8	
387.01	6036.7	
387.21	6008.7	
387.42	4849.6	
387.62	5437.4	
387.83	5304.2	
388.03	6014.9	
388.23	4362.9	
388.44	5255.8	
388.64	5021.6	
388.85	5105.6	
389.05	4831.2	
389.26	5390.9	
389.46	7082.6	
389.67	6462.7	
389.87	4767	
390.07	4835.9	
390.28	5694.7	
390.48	5231.2	
390.69	3985.3	
390.89	4277.5	
391.1	5449	
391.3	6323.4	
391.5	5475.6	
391.71	6136.4	
391.91	6045.6	
392.12	7205.4	
392.32	5644.9	
392.53	4827.7	
392.73	5464.7	
392.93	5744.6	
393.14	4438.6	
393.34	5264.6	
393.55	6212.9	
393.75	5688.6	
393.95	4498	
394.16	4402.5	
394.36	5380.7	
394.57	6077	
394.77	3867.9	
394.98	4273.4	
395.18	5354.1	
395.38	5624.4	
395.59	5264	
395.79	4192.2	
396	5497.4	
396.2	6059.9	
396.4	5031.2	
396.61	4953.4	
396.81	6232.7	
397.02	5418.9	
397.22	5253	
397.42	5292.6	
397.63	6214.9	
397.83	5377.3	
398.04	4150.6	
398.24	4665.3	
398.44	5999.9	
398.65	5014.1	
398.85	3976.5	
399.05	4029	
399.26	5351.3	
399.46	7071	
399.67	4487.8	
399.87	4160.1	
400.07	5718.6	
400.28	6102.9	
400.48	4294.6	
400.69	5403.2	
400.89	6335.7	
401.09	6745.3	
401.3	4143	
401.5	5336.3	
401.7	6987.7	
401.91	7343.3	
402.11	4552	
402.32	4835.9	
402.52	6349.4	
402.72	6287.9	
402.93	4996.4	
403.13	3818.8	
403.33	7165.2	
403.54	5801.9	
403.74	4696	
403.94	5573.2	
404.15	5876.3	
404.35	6967.2	
404.56	4411.3	
404.76	6271.6	
404.96	6192.4	
405.17	6027.2	
405.37	5784.1	
405.57	4959.5	
405.78	6412.2	
405.98	5773.9	
406.18	4456.4	
406.39	5395.7	
406.59	6331	
406.79	5941.2	
407	4219.5	
407.2	4359.4	
407.4	6304.3	
407.61	6503.7	
407.81	4242	
408.01	6503	
408.22	5201.8	
408.42	7309.2	
408.62	5440.8	
408.83	4926.7	
409.03	5913.2	
409.23	5734.3	
409.44	4995.7	
409.64	5267.4	
409.84	6886.6	
410.05	6727.6	
410.25	5137.7	
410.45	4895.3	
410.66	6188.3	
410.86	8731.2	
411.06	5349.3	
411.27	5197.1	
411.47	8535.3	
411.67	6416.3	
411.88	5478.3	
412.08	5664.7	
412.28	7070.3	
412.49	7657.4	
412.69	5186.8	
412.89	5223	
413.09	7387	
413.3	7260	
413.5	5299.5	
413.7	4896	
413.91	6479.1	
414.11	7343.3	
414.31	5098.1	
414.52	5577.3	
414.72	6999.3	
414.92	6937.2	
415.12	5235.3	
415.33	5663.3	
415.53	7357.7	
415.73	7454.6	
415.94	6098.2	
416.14	5491.3	
416.34	6268.8	
416.55	6029.2	
416.75	6692.8	
416.95	6077.7	
417.15	7385.7	
417.36	8060.1	
417.56	6904.4	
417.76	5933	
417.97	7744.1	
418.17	7344.7	
418.37	5487.2	
418.57	5565	
418.78	7206.8	
418.98	6875	
419.18	6487.3	
419.38	6352.8	
419.59	6897.6	
419.79	6509.1	
419.99	5421.7	
420.2	5797.8	
420.4	7378.1	
420.6	7617.8	
420.8	5346.6	
421.01	5133.6	
421.21	7108.5	
421.41	7471	
421.61	5816.9	
421.82	5442.8	
422.02	6713.2	
422.22	7737.9	
422.42	6276.3	
422.63	5903.6	
422.83	6875	
423.03	8130.4	
423.23	5934.3	
423.44	4869.4	
423.64	7000.6	
423.84	6623.8	
424.04	5337.7	
424.25	4975.9	
424.45	7860.1	
424.65	7811	
424.85	4821.6	
425.06	5367.7	
425.26	7718.8	
425.46	6733.7	
425.66	5899.5	
425.87	5606	
426.07	7616.4	
426.27	7456	
426.47	5732.9	
426.67	5085.1	
426.88	7950.9	
427.08	7392.5	
427.28	6024.4	
427.48	5007.3	
427.69	6218.3	
427.89	6880.5	
428.09	5969.8	
428.29	5023.7	
428.5	7675.1	
428.7	7110.5	
428.9	4981.3	
429.1	5530.9	
429.3	6972	
429.51	7453.2	
429.71	5272.2	
429.91	6023.1	
430.11	7291.5	
430.31	7908.6	
430.52	5614.2	
430.72	5896.1	
430.92	7957.7	
431.12	7397.9	
431.32	5306.3	
431.53	5694.7	
431.73	6257.2	
431.93	8049.9	
432.13	5140.4	
432.33	5061.2	
432.54	6752.2	
432.74	7122.2	
432.94	5048.9	
433.14	6057.2	
433.34	7320.1	
433.55	6834.1	
433.75	5996.5	
433.95	7873.8	
434.15	7125.6	
434.35	6748.7	
434.56	5233.2	
434.76	4761.5	
434.96	7050.5	
435.16	7380.2	
435.36	4998.4	
435.56	6259.3	
435.77	6761.7	
435.97	6955.6	
436.17	6923.5	
436.37	6148.7	
436.57	6757.6	
436.78	6573.3	
436.98	8041.7	
437.18	6743.3	
437.38	7490.1	
437.58	6932.4	
437.78	6959.7	
437.99	5541.8	
438.19	7446.4	
438.39	9025.4	
438.59	5504.3	
438.79	4948.6	
438.99	8106.5	
439.2	6962.4	
439.4	5059.2	
439.6	4961.5	
439.8	7206.1	
440	8229.4	
440.2	6084.5	
440.4	6268.8	
440.61	7703.1	
440.81	8250.6	
441.01	5307	
441.21	6236.1	
441.41	8140	
441.61	7664.2	
441.81	6548.7	
442.02	7595.9	
442.22	8541.4	
442.42	7757	
442.62	5313.1	
442.82	5356.8	
443.02	8083.3	
443.22	7138.5	
443.43	5866.1	
443.63	5371.1	
443.83	6944.7	
444.03	6996.5	
444.23	6612.9	
444.43	6238.1	
444.63	7353.6	
444.83	8654	
445.04	5401.2	
445.24	6875.7	
445.44	7748.1	
445.64	7902.4	
445.84	6336.4	
446.04	6363.7	
446.24	7063.4	
446.44	8176.2	
446.65	5442.8	
446.85	5918.6	
447.05	7205.4	
447.25	8002.8	
447.45	5978	
447.65	5308.3	
447.85	7356.3	
448.05	7032	
448.25	6455.9	
448.46	6128.2	
448.66	7368.6	
448.86	7064.8	
449.06	5141.8	
449.26	6412.9	
449.46	7671	
449.66	6752.2	
449.86	5832.6	
450.06	5843.5	
450.26	6978.8	
450.47	7558.4	
450.67	6116.6	
450.87	6497.5	
451.07	7603.4	
451.27	7380.9	
451.47	5410.7	
451.67	5993	
451.87	7019.1	
452.07	8224	
452.27	5644.2	
452.47	5709.1	
452.67	7416.4	
452.88	8062.9	
453.08	5053	
453.28	7134.4	
453.48	8613.8	
453.68	7357	
453.88	5582.8	
454.08	5791	
454.28	7696.9	
454.48	7404.1	
454.68	6391	
454.88	6860.7	
455.08	7845.1	
455.28	7590.5	
455.48	5368.4	
455.68	6047.7	
455.89	8422.6	
456.09	7940	
456.29	5857.2	
456.49	5853.8	
456.69	8189.8	
456.89	7353.6	
457.09	6393.1	
457.29	6685.3	
457.49	7783.6	
457.69	7890.1	
457.89	6321.4	
458.09	5565.7	
458.29	7655.3	
458.49	8298.4	
458.69	6615.6	
458.89	6046.3	
459.09	8601.5	
459.29	8742.1	
459.49	6184.2	
459.69	6992.4	
459.9	8136.6	
460.1	7604.8	
460.3	6037.4	
460.5	5879.7	
460.7	8075.8	
460.9	7761.8	
461.1	5474.2	
461.3	6852.5	
461.5	8707.3	
461.7	8348.2	
461.9	6036.7	
462.1	6387.6	
462.3	7808.2	
462.5	8465.6	
462.7	5991.7	
462.9	6142.5	
463.1	9401.5	
463.3	9129.2	
463.5	6302.3	
463.7	7349.5	
463.9	8074.5	
464.1	8459.5	
464.3	6475.7	
464.5	6765.8	
464.7	8781	
464.9	8318.2	
465.1	8082.6	
465.3	7103.7	
465.5	9082.1	
465.7	9011.1	
465.9	7363.1	
466.1	7172.7	
466.3	8876.6	
466.5	8635.6	
466.7	8105.9	
466.9	6911.2	
467.1	8570.1	
467.3	9507.4	
467.5	8026.7	
467.7	6879.1	
467.9	9800.9	
468.1	10663	
468.3	7589.8	
468.5	8074.5	
468.7	8605.6	
468.9	8512.7	
469.1	7169.9	
469.3	7907.2	
469.5	10669	
469.7	8213.7	
469.9	7580.9	
470.1	6907.8	
470.3	8598.7	
470.5	8616.5	
470.7	8224.6	
470.9	6974	
471.1	8340.7	
471.3	8761.9	
471.5	6782.9	
471.69	8858.1	
471.89	8247.9	
472.09	7786.4	
472.29	7653.3	
472.49	7971.4	
472.69	8073.1	
472.89	8897.7	
473.09	6711.2	
473.29	6851.8	
473.49	8189.8	
473.69	8423.3	
473.89	7787.1	
474.09	7019.1	
474.29	9662.3	
474.49	9318.3	
474.69	7869	
474.89	7178.8	
475.09	8390.5	
475.29	8270.4	
475.49	6531	
475.69	6811.5	
475.88	10070	
476.08	8627.4	
476.28	6465.4	
476.48	6997.2	
476.68	9099.1	
476.88	8966	
477.08	6760.3	
477.28	7050.5	
477.48	8411.7	
477.68	9062.9	
477.88	6525.5	
478.08	6847.7	
478.28	9348.3	
478.48	8546.2	
478.67	6983.6	
478.87	6431.3	
479.07	9269.1	
479.27	8649.9	
479.47	7184.3	
479.67	7161.1	
479.87	8940.1	
480.07	9506	
480.27	6445.6	
480.47	8111.3	
480.67	8626	
480.87	9372.9	
481.06	6655.2	
481.26	7464.2	
481.46	8543.4	
481.66	8561.9	
481.86	7141.9	
482.06	8208.9	
482.26	8294.3	
482.46	9306.7	
482.66	7088	
482.86	6606.1	
483.05	8575.5	
483.25	7948.2	
483.45	9559.2	
483.65	7061.4	
483.85	8229.4	
484.05	8462.9	
484.25	7507.2	
484.45	8064.2	
484.65	9450	
484.84	9424.8	
485.04	7019.1	
485.24	6995.9	
485.44	9626.1	
485.64	7892.9	
485.84	6272.9	
486.04	7776.8	
486.24	8432.9	
486.44	8764.6	
486.63	6335	
486.83	7107.8	
487.03	8170	
487.23	8553.7	
487.43	6408.8	
487.63	8766.7	
487.83	8587.1	
488.02	9671.2	
488.22	7488.1	
488.42	8125	
488.62	9447.3	
488.82	8374.8	
489.02	7137.2	
489.22	7074.4	
489.41	9356.5	
489.61	9045.9	
489.81	6832	
490.01	6901	
490.21	9288.2	
490.41	9966.8	
490.61	6797.2	
490.8	6978.1	
491	8781	
491.2	8075.8	
491.4	7664.9	
491.6	6663.4	
491.8	8620.6	
491.99	8970.8	
492.19	6407.4	
492.39	6795.2	
492.59	9146.9	
492.79	9285.5	
492.99	7649.2	
493.18	6772.6	
493.38	9303.9	
493.58	10137	
493.78	7551.5	
493.98	7114	
494.18	9189.9	
494.37	8578.9	
494.57	7829.4	
494.77	7780.2	
494.97	9336.7	
495.17	9685.5	
495.37	7204.8	
495.56	7621.9	
495.76	9796.8	
495.96	9486.9	
496.16	8575.5	
496.36	7486.7	
496.55	9656.2	
496.75	9308	
496.95	7965.2	
497.15	7758.4	
497.35	9651.4	
497.54	9576.3	
497.74	7497.6	
497.94	9180.4	
498.14	10383	
498.34	10160	
498.53	7191.1	
498.73	8095.6	
498.93	8946.2	
499.13	9717.6	
499.33	7824.6	
499.52	8435.6	
499.72	9551	
499.92	9928.6	
500.12	7589.1	
500.32	7853.3	
500.51	9837.1	
500.71	9665.7	
500.91	8659.5	
501.11	8245.8	
501.31	9829.6	
501.5	10086	
501.7	8892.3	
501.9	7833.5	
502.1	9581.1	
502.29	9957.2	
502.49	8277.9	
502.69	8763.9	
502.89	9956.5	
503.09	9824.8	
503.28	7311.9	
503.48	7434.1	
503.68	9012.4	
503.88	9067	
504.07	8419.9	
504.27	7935.2	
504.47	9425.4	
504.67	9574.3	
504.86	8314.1	
505.06	8082	
505.26	9100.5	
505.46	10947	
505.65	7880.6	
505.85	8077.2	
506.05	9023.4	
506.25	9496.4	
506.44	7187	
506.64	8197.3	
506.84	8850.6	
507.04	9744.9	
507.23	7342	
507.43	7976.2	
507.63	10920	
507.83	9104.6	
508.02	7873.1	
508.22	7571.3	
508.42	11153	
508.62	8714.8	
508.81	7725.6	
509.01	8304.5	
509.21	8568.7	
509.4	8873.2	
509.6	7827.3	
509.8	7182.9	
510	8853.4	
510.19	10363	
510.39	7236.2	
510.59	7393.2	
510.79	8781	
510.98	10024	
511.18	7465.5	
511.38	7554.3	
511.57	9589.3	
511.77	9474.6	
511.97	8182.3	
512.17	7185.6	
512.36	9564.7	
512.56	9535.3	
512.76	7212.3	
512.95	7014.3	
513.15	9747	
513.35	8213.7	
513.55	8122.9	
513.74	7318.8	
513.94	9600.9	
514.14	9061.6	
514.33	8347.5	
514.53	8144.8	
514.73	8973.5	
514.92	9193.3	
515.12	7473.7	
515.32	7320.1	
515.51	9263.6	
515.71	9768.8	
515.91	9118.9	
516.11	7328.3	
516.3	11149	
516.5	8968.7	
516.7	8019.2	
516.89	8556.4	
517.09	9136	
517.29	8917.5	
517.48	8288.1	
517.68	7770	
517.88	8758.5	
518.07	9404.3	
518.27	8149.6	
518.47	7223.9	
518.66	10076	
518.86	8565.3	
519.06	7024.5	
519.25	7535.2	
519.45	8918.9	
519.65	10517	
519.84	8169.3	
520.04	8878.6	
520.24	10966	
520.43	9682.1	
520.63	7908.6	
520.83	7679.9	
521.02	8820.6	
521.22	9581.1	
521.42	8151.6	
521.61	8753.7	
521.81	8928.5	
522.01	9220	
522.2	8030.1	
522.4	7738.6	
522.6	9700.5	
522.79	8424.7	
522.99	7849.2	
523.18	7194.5	
523.38	9400.2	
523.58	9491.7	
523.77	9180.4	
523.97	7234.1	
524.17	11345	
524.36	10476	
524.56	8518.2	
524.76	8208.9	
524.95	9458.9	
525.15	9231.6	
525.34	8080.6	
525.54	7982.3	
525.74	9869.2	
525.93	8926.4	
526.13	9330.5	
526.33	8085.4	
526.52	10292	
526.72	9753.1	
526.91	9318.3	
527.11	8503.8	
527.31	10311	
527.5	10727	
527.7	8510	
527.89	7460.8	
528.09	9183.8	
528.29	9799.5	
528.48	8856.1	
528.68	8422.6	
528.87	10101	
529.07	10168	
529.27	8400.1	
529.46	7971.4	
529.66	9824.1	
529.85	10221	
530.05	7791.2	
530.25	8616.5	
530.44	11247	
530.64	9792	
530.83	8192.6	
531.03	8333.2	
531.23	10083	
531.42	10102	
531.62	9166	
531.81	8294.3	
532.01	10205	
532.21	10786	
532.4	8137.9	
532.6	8511.4	
532.79	11172	
532.99	10477	
533.18	8652.7	
533.38	9661.6	
533.58	10028	
533.77	10653	
533.97	8499.1	
534.16	9328.5	
534.36	10916	
534.55	10013	
534.75	9491	
534.95	8631.5	
535.14	10838	
535.34	10017	
535.53	8284.7	
535.73	10291	
535.92	11424	
536.12	10150	
536.31	8285.4	
536.51	9573.6	
536.71	10306	
536.9	9995.5	
537.1	8529.8	
537.29	8656.8	
537.49	11033	
537.68	9919.7	
537.88	9106	
538.07	8234.2	
538.27	10124	
538.46	11197	
538.66	8082.6	
538.86	8510.7	
539.05	10155	
539.25	10671	
539.44	8901.8	
539.64	8513.4	
539.83	10062	
540.03	11124	
540.22	8469.7	
540.42	8514.8	
540.61	10316	
540.81	10467	
541	8824	
541.2	9596.1	
541.39	9809.8	
541.59	10228	
541.78	9227.5	
541.98	8449.9	
542.18	9532.6	
542.37	9465	
542.57	8695.7	
542.76	9294.4	
542.96	9571.5	
543.15	10357	
543.35	8744.1	
543.54	8168.7	
543.74	10570	
543.93	10012	
544.13	8671.1	
544.32	9821.4	
544.52	10321	
544.71	9625.5	
544.91	7697.6	
545.1	8973.5	
545.3	9567.4	
545.49	10266	
545.69	7675.8	
545.88	8250.6	
546.08	11228	
546.27	10854	
546.47	8804.9	
546.66	8084.7	
546.86	10504	
547.05	11187	
547.24	8265.6	
547.44	8228.7	
547.63	9338.1	
547.83	10532	
548.02	8579.6	
548.22	8688.2	
548.41	9172.9	
548.61	10574	
548.8	8056.7	
549	8079.2	
549.19	9854.1	
549.39	10200	
549.58	7701.7	
549.78	8382.3	
549.97	10270	
550.17	9760.6	
550.36	9279.3	
550.55	10167	
550.75	9796.1	
550.94	10717	
551.14	7935.2	
551.33	8428.8	
551.53	9105.3	
551.72	10162	
551.92	8522.3	
552.11	8169.3	
552.31	10169	
552.5	10233	
552.69	9867.8	
552.89	7793.2	
553.08	10212	
553.28	9838.4	
553.47	8190.5	
553.67	9468.4	
553.86	10922	
554.06	9022	
554.25	7277.1	
554.44	7926.3	
554.64	11621	
554.83	11073	
555.03	7929.7	
555.22	8361.9	
555.42	10273	
555.61	10097	
555.8	8130.4	
556	8520.9	
556.19	9088.2	
556.39	10393	
556.58	8269	
556.78	8127.7	
556.97	9936.1	
557.16	9669.1	
557.36	9564.7	
557.55	7798.7	
557.75	8942.1	
557.94	10728	
558.13	7904.5	
558.33	7724.3	
558.52	10494	
558.72	9310.1	
558.91	7779.6	
559.1	8038.3	
559.3	9017.9	
559.49	8781	
559.69	7305.8	
559.88	8330.5	
560.07	9863	
560.27	10211	
560.46	8628.1	
560.66	8744.8	
560.85	9595.4	
561.04	8822.6	
561.24	7759.1	
561.43	7961.8	
561.63	9125.7	
561.82	9383.8	
562.01	9231.6	
562.21	8255.4	
562.4	9745.6	
562.59	10686	
562.79	8113.4	
562.98	7660.8	
563.18	9658.9	
563.37	11180	
563.56	8599.4	
563.76	7681.9	
563.95	9211.1	
564.14	9077.3	
564.34	7961.1	
564.53	7795.3	
564.73	9669.8	
564.92	9994.1	
565.11	8226.7	
565.31	7641	
565.5	10341	
565.69	9217.9	
565.89	7723.6	
566.08	8141.4	
566.27	10121	
566.47	10617	
566.66	8661.5	
566.85	7362.4	
567.05	9715.6	
567.24	9105.3	
567.44	7726.3	
567.63	9072.5	
567.82	9978.4	
568.02	9716.9	
568.21	7691.5	
568.4	8082	
568.6	9529.2	
568.79	9601.6	
568.98	7397.9	
569.18	7763.2	
569.37	9506.7	
569.56	11533	
569.76	7991.9	
569.95	8997.4	
570.14	9885.5	
570.34	9789.3	
570.53	7430.7	
570.72	7441	
570.91	10275	
571.11	9296.4	
571.3	7925.6	
571.49	8820.6	
571.69	9316.9	
571.88	8916.9	
572.07	8409.6	
572.27	8448.6	
572.46	8838.4	
572.65	10010	
572.85	7606.8	
573.04	8004.1	
573.23	10163	
573.43	9413.8	
573.62	7421.2	
573.81	8019.8	
574	9469.8	
574.2	9307.3	
574.39	7770.7	
574.58	7947.5	
574.78	10344	
574.97	9491.7	
575.16	8232.2	
575.36	8352.3	
575.55	9945.6	
575.74	10060	
575.93	7342	
576.13	8375.5	
576.32	9222	
576.51	9871.2	
576.71	7741.3	
576.9	9129.2	
577.09	10223	
577.28	9748.3	
577.48	8364.6	
577.67	7271.7	
577.86	9304.6	
578.05	9712.2	
578.25	7982.3	
578.44	8075.8	
578.63	9460.3	
578.83	10643	
579.02	7418.4	
579.21	8882.7	
579.4	9699.2	
579.6	9426.1	
579.79	8169.3	
579.98	10413	
580.17	10055	
580.37	10127	
580.56	7516	
580.75	8352.3	
580.94	10691	
581.14	10576	
581.33	8811	
581.52	7751.6	
581.71	10002	
581.91	10681	
582.1	7516.7	
582.29	8183	
582.48	9693	
582.68	9594.7	
582.87	8623.3	
583.06	8217.1	
583.25	10053	
583.45	9866.4	
583.64	8965.3	
583.83	9729.2	
584.02	9531.9	
584.21	10005	
584.41	8879.3	
584.6	8226	
584.79	9861	
584.98	10485	
585.18	7615.7	
585.37	7715.4	
585.56	9273.2	
585.75	10090	
585.94	7972.7	
586.14	8639.7	
586.33	10642	
586.52	9596.1	
586.71	8385.1	
586.91	8125	
587.1	9132.6	
587.29	10105	
587.48	8047.8	
587.67	7912.7	
587.87	9906	
588.06	9977	
588.25	9251.4	
588.44	8491.6	
588.63	9501.2	
588.83	10107	
589.02	7828.7	
589.21	7699	
589.4	9200.8	
589.59	8950.3	
589.78	6817	
589.98	7044.3	
590.17	8473.8	
590.36	8974.9	
590.55	6296.8	
590.74	7111.2	
590.94	10254	
591.13	8753.7	
591.32	6852.5	
591.51	6302.3	
591.7	9179	
591.89	8670.4	
592.09	6479.8	
592.28	6976.1	
592.47	7924.3	
592.66	9929.2	
592.85	6507.8	
593.05	6825.2	
593.24	8609	
593.43	9402.2	
593.62	6879.8	
593.81	7354.3	
594	8625.4	
594.19	8914.8	
594.39	6891.4	
594.58	6812.2	
594.77	9120.3	
594.96	9693.7	
595.15	6825.9	
595.34	7497.6	
595.54	9148.3	
595.73	8110.6	
595.92	6155.5	
596.11	7264.1	
596.3	9531.2	
596.49	8266.3	
596.68	7038.2	
596.88	7514.7	
597.07	9347.6	
597.26	8069.7	
597.45	6666.8	
597.64	7861.5	
597.83	8424.7	
598.02	9055.4	
598.22	6751.5	
598.41	7486	
598.6	8952.4	
598.79	8335.2	
598.98	6802	
599.17	7744.7	
599.36	8828.1	
599.55	10136	
599.74	8982.4	
599.94	8735.3	
600.13	9555.1	
600.32	8344.1	
600.51	6600.6	
600.7	6769.9	
600.89	10278	
601.08	10169	
601.27	6561.7	
601.47	7564.5	
601.66	9512.8	
601.85	10150	
602.04	7331.7	
602.23	7523.6	
602.42	8498.4	
602.61	9241.1	
602.8	7358.4	
602.99	7090.8	
603.18	8948.9	
603.37	9093.7	
603.57	7753.6	
603.76	8376.2	
603.95	9985.2	
604.14	9532.6	
604.33	7197.9	
604.52	7548.1	
604.71	9173.5	
604.9	8806.3	
605.09	8119.5	
605.28	8040.3	
605.47	9780.4	
605.66	9422	
605.86	7882.6	
606.05	7236.8	
606.24	9790.7	
606.43	8248.5	
606.62	7616.4	
606.81	8333.2	
607	9705.3	
607.19	8929.8	
607.38	6991.8	
607.57	7189.7	
607.76	8775.5	
607.95	8219.9	
608.14	7627.3	
608.33	8315.4	
608.52	8814.5	
608.72	9626.1	
608.91	6907.8	
609.1	6771.3	
609.29	8813.1	
609.48	8382.3	
609.67	7839.6	
609.86	6952.2	
610.05	8355.7	
610.24	8762.6	
610.43	6727.6	
610.62	6333.7	
610.81	9894.4	
611	9648	
611.19	6818.4	
611.38	7528.3	
611.57	9030.2	
611.76	10432	
611.95	6639.5	
612.14	6457.9	
612.33	8895	
612.52	8361.2	
612.71	7191.8	
612.9	6365.8	
613.09	8022.6	
613.28	10379	
613.47	6870.9	
613.66	7966.6	
613.85	9047.2	
614.04	8547.5	
614.24	6938.5	
614.43	6180.1	
614.62	9125.7	
614.81	9065	
615	7570.7	
615.19	7619.8	
615.38	8396	
615.57	8814.5	
615.76	7491.5	
615.95	8409	
616.14	9109.4	
616.33	8808.3	
616.52	7829.4	
616.71	8061.5	
616.9	9063.6	
617.09	8994	
617.28	7105.1	
617.47	8426.7	
617.66	8167.3	
617.85	8219.9	
618.04	8067.6	
618.22	7500.3	
618.41	8529.1	
618.6	9527.2	
618.79	7324.9	
618.98	7165.2	
619.17	9822.7	
619.36	8116.8	
619.55	7281.2	
619.74	7236.2	
619.93	9088.2	
620.12	8512.7	
620.31	7911.3	
620.5	7999.4	
620.69	10039	
620.88	9964.1	
621.07	8731.9	
621.26	7727	
621.45	9245.2	
621.64	9313.5	
621.83	7844.4	
622.02	7019.8	
622.21	9273.2	
622.4	9002.2	
622.59	8385.7	
622.78	8168.7	
622.97	8697.7	
623.16	9682.1	
623.35	7678.5	
623.54	6926.2	
623.72	8899.1	
623.91	8953	
624.1	8001.4	
624.29	6695.5	
624.48	10122	
624.67	9420	
624.86	7938.6	
625.05	6999.3	
625.24	10187	
625.43	8540.7	
625.62	9656.9	
625.81	7120.8	
626	9608.4	
626.19	8742.1	
626.38	7871	
626.56	7341.3	
626.75	8671.8	
626.94	9492.3	
627.13	7894.2	
627.32	6618.4	
627.51	9247.9	
627.7	10588	
627.89	6637.5	
628.08	7764.5	
628.27	8292.9	
628.46	8548.9	
628.65	6871.6	
628.83	6447	
629.02	9112.1	
629.21	8464.9	
629.4	7285.3	
629.59	7548.1	
629.78	8430.8	
629.97	9381.7	
630.16	7607.5	
630.35	7018.4	
630.54	9790	
630.72	9535.3	
630.91	7169.3	
631.1	7757	
631.29	9031.5	
631.48	9237.7	
631.67	7701.7	
631.86	7156.3	
632.05	8559.8	
632.24	8605.6	
632.42	6851.1	
632.61	7503.8	
632.8	8787.2	
632.99	8333.2	
633.18	7512.6	
633.37	8020.5	
633.56	8927.1	
633.75	8867.7	
633.93	7475.8	
634.12	7169.3	
634.31	9833	
634.5	9427.5	
634.69	7231.4	
634.88	7741.3	
635.07	8779.6	
635.25	9432.9	
635.44	8260.8	
635.63	8407.6	
635.82	8701.8	
636.01	8210.3	
636.2	8114.1	
636.39	7676.5	
636.57	9886.9	
636.76	9588.6	
636.95	7012.9	
637.14	8546.2	
637.33	9273.9	
637.52	10125	
637.7	6853.2	
637.89	7894.9	
638.08	8805.6	
638.27	10315	
638.46	7905.8	
638.65	8479.3	
638.83	10242	
639.02	8566	
639.21	7817.8	
639.4	8291.5	
639.59	9042.5	
639.78	8620.6	
639.96	7042.3	
640.15	7043.6	
640.34	8966	
640.53	9068.4	
640.72	6761.7	
640.91	7166.5	
641.09	8306.6	
641.28	9781.8	
641.47	7109.2	
641.66	7998	
641.85	8974.2	
642.03	9245.2	
642.22	7714	
642.41	7250.5	
642.6	8411	
642.79	7889.5	
642.97	6992.4	
643.16	7840.3	
643.35	8411.7	
643.54	8159.8	
643.73	6875.7	
643.91	7724.9	
644.1	7945.4	
644.29	8589.9	
644.48	7053.2	
644.67	6989	
644.85	8267.6	
645.04	8467.7	
645.23	6453.8	
645.42	6774.7	
645.6	7984.3	
645.79	9159.9	
645.98	6660	
646.17	5713.2	
646.36	7596.6	
646.54	8198	
646.73	7475.8	
646.92	6146	
647.11	7724.3	
647.29	8867	
647.48	6204.7	
647.67	6038.8	
647.86	9136.7	
648.05	9056.1	
648.23	6625.2	
648.42	7951.6	
648.61	8441.7	
648.8	8185	
648.98	6214.2	
649.17	6588.3	
649.36	7834.8	
649.55	7296.2	
649.73	6361.7	
649.92	7165.2	
650.11	7736.5	
650.3	8089.5	
650.48	6516	
650.67	6196.5	
650.86	8391.9	
651.05	7247.8	
651.23	6429.3	
651.42	6326.2	
651.61	7805.5	
651.79	7915.4	
651.98	6694.8	
652.17	6215.6	
652.36	8272.4	
652.54	7307.8	
652.73	6320	
652.92	6201.9	
653.11	8254	
653.29	8387.8	
653.48	5662.6	
653.67	6668.9	
653.85	8100.4	
654.04	9229.5	
654.23	6783.6	
654.42	6319.3	
654.6	7570	
654.79	8212.4	
654.98	5781.4	
655.16	6362.4	
655.35	7138.5	
655.54	7126.2	
655.73	5837.4	
655.91	5803.3	
656.1	8303.8	
656.29	7024.5	
656.47	5420.3	
656.66	7098.9	
656.85	7373.4	
657.03	7514.7	
657.22	6014.2	
657.41	6130.9	
657.59	7558.4	
657.78	7364.5	
657.97	5703.6	
658.16	6505.7	
658.34	8347.5	
658.53	8673.1	
658.72	7449.1	
658.9	7866.2	
659.09	7679.2	
659.28	7787.1	
659.46	6247.7	
659.65	6193.1	
659.84	7506.5	
660.02	8076.5	
660.21	6075	
660.4	6086.6	
660.58	8513.4	
660.77	7931.1	
660.96	6698.2	
661.14	5704.3	
661.33	9009.7	
661.52	8883.4	
661.7	5714.5	
661.89	9587.2	
662.08	7419.1	
662.26	7059.3	
662.45	5977.3	
662.64	6111.1	
662.82	8191.2	
663.01	7422.5	
663.2	6127.5	
663.38	6929	
663.57	8183.7	
663.75	7985	
663.94	6508.4	
664.13	7735.2	
664.31	7417.7	
664.5	8156.4	
664.69	6900.3	
664.87	7343.3	
665.06	7144	
665.25	8038.3	
665.43	7538.6	
665.62	7561.8	
665.8	8301.1	
665.99	7643	
666.18	6462.7	
666.36	6621.8	
666.55	8267.6	
666.74	8189.1	
666.92	6065.4	
667.11	7763.8	
667.29	7578.2	
667.48	8305.9	
667.67	7361.8	
667.85	6476.4	
668.04	7679.9	
668.22	7701.7	
668.41	6543.3	
668.6	6720.8	
668.78	7445.7	
668.97	7686.7	
669.15	6946	
669.34	5780.1	
669.53	7456	
669.71	7820.5	
669.9	6015.6	
670.08	6800.6	
670.27	7408.9	
670.46	8008.2	
670.64	6890	
670.83	7236.2	
671.01	7365.9	
671.2	8021.9	
671.38	6062.7	
671.57	5985.5	
671.76	8617.9	
671.94	9194.7	
672.13	5978.7	
672.31	7019.8	
672.5	8152.3	
672.69	7431.4	
672.87	6126.8	
673.06	6369.9	
673.24	8006.2	
673.43	7473.7	
673.61	6897.6	
673.8	6453.1	
673.98	8185.7	
674.17	8338	
674.36	7018.4	
674.54	6821.1	
674.73	7876.5	
674.91	8228.1	
675.1	6538.5	
675.28	6124.1	
675.47	7679.2	
675.65	8355	
675.84	6368.5	
676.03	6727.6	
676.21	7481.9	
676.4	7049.8	
676.58	7196.6	
676.77	6907.8	
676.95	8988.5	
677.14	7378.8	
677.32	6113.9	
677.51	5827.2	
677.69	8213	
677.88	7060.7	
678.06	5937.7	
678.25	6008.1	
678.44	7795.9	
678.62	7441	
678.81	5763	
678.99	6823.1	
679.18	8611.7	
679.36	8082.7	
679.55	6365.1	
679.73	6966.5	
679.92	8140.7	
680.1	7503.8	
680.29	7592.5	
680.47	6358.9	
680.66	7425.9	
680.84	8385.1	
681.03	5674.2	
681.21	6929.6	
681.4	7484.6	
681.58	7298.3	
681.77	6092	
681.95	5956.2	
682.14	8318.8	
682.32	8658.1	
682.51	7002.7	
682.69	5756.8	
682.88	7415	
683.06	8079.2	
683.25	6606.1	
683.43	7163.1	
683.62	7688.8	
683.8	8061.5	
683.99	7256.6	
684.17	6518.7	
684.36	8904.6	
684.54	7532.4	
684.73	5617.6	
684.91	5813.5	
685.1	7756.3	
685.28	7090.8	
685.46	6275.7	
685.65	6204.7	
685.83	7837.6	
686.02	7161.7	
686.2	5635.3	
686.39	5778.7	
686.57	6821.8	
686.76	8504.5	
686.94	5690.6	
687.13	5856.5	
687.31	7761.8	
687.5	7218.4	
687.68	5382.7	
687.86	6640.9	
688.05	9030.9	
688.23	6694.1	
688.42	6663.4	
688.6	5760.9	
688.79	7179.5	
688.97	7175.4	
689.16	6219	
689.34	5154.1	
689.52	7973.4	
689.71	8073.8	
689.89	6506.4	
690.08	5751.4	
690.26	7465.5	
690.45	7293.5	
690.63	6698.2	
690.81	6016.2	
691	7087.3	
691.18	7077.8	
691.37	6028.5	
691.55	8314.8	
691.74	6931	
691.92	9093	
692.1	6041.5	
692.29	5461.2	
692.47	7159	
692.66	6535.8	
692.84	5621	
693.02	6347.3	
693.21	6606.7	
693.39	7164.5	
693.58	6400.6	
693.76	5768.4	
693.94	8451.3	
694.13	8207.6	
694.31	5788.2	
694.5	6955.6	
694.68	7142.6	
694.86	7448.5	
695.05	6242.2	
695.23	6728.9	
695.42	7872.4	
695.6	10185	
695.78	6941.9	
695.97	6019	
696.15	7863.5	
696.34	7366.5	
696.52	5747.3	
696.7	6551.5	
696.89	7571.3	
697.07	7026.6	
697.25	6307.7	
697.44	8096.3	
697.62	7448.5	
697.81	7933.8	
697.99	6125.5	
698.17	6597.9	
698.36	6822.5	
698.54	7533.1	
698.72	6416.3	
698.91	5375.9	
699.09	7151.5	
699.28	7103	
699.46	6128.9	
699.64	5942.5	
699.83	6909.8	
700.01	8159.8	
700.19	6786.3	
700.38	5165	
700.56	8238.3	
700.74	7073	
700.93	5644.2	
701.11	6504.3	
701.29	7686	
701.48	8806.9	
701.66	5877.7	
701.84	5962.3	
702.03	7313.3	
702.21	7959.1	
702.39	5487.9	
702.58	6195.1	
702.76	7626	
702.94	7789.8	
703.13	5545.2	
703.31	8043.1	
703.49	6927.6	
703.68	7883.3	
703.86	5677.7	
704.04	6647.7	
704.23	7507.9	
704.41	7970.7	
704.59	5870.2	
704.78	7136.5	
704.96	8556.4	
705.14	8027.4	
705.33	5721.3	
705.51	6518.7	
705.69	7415	
705.87	8215.8	
706.06	6824.5	
706.24	5633.3	
706.42	7746.8	
706.61	8094.3	
706.79	6928.3	
706.97	5705	
707.16	7197.2	
707.34	7717.4	
707.52	6819.1	
707.7	5860.6	
707.89	7393.2	
708.07	6978.1	
708.25	6780.8	
708.44	6954.2	
708.62	7264.8	
708.8	8435.6	
708.98	7169.9	
709.17	6054.5	
709.35	7735.9	
709.53	7714.7	
709.72	5746.6	
709.9	5979.4	
710.08	7935.9	
710.26	7931.1	
710.45	7418.4	
710.63	6113.2	
710.81	7636.9	
710.99	7623.9	
711.18	6683.9	
711.36	6216.3	
711.54	7374.7	
711.72	8264.2	
711.91	6324.1	
712.09	5589.6	
712.27	7548.1	
712.45	8312.7	
712.64	6454.5	
712.82	5412.1	
713	6851.1	
713.18	7127.6	
713.37	5483.1	
713.55	6733	
713.73	7920.2	
713.91	6455.2	
714.1	5784.1	
714.28	5242.1	
714.46	7395.2	
714.64	6527.6	
714.83	4513.7	
715.01	5412.1	
715.19	6466.8	
715.37	5937.7	
715.55	5029.1	
715.74	5345.9	
715.92	7476.5	
716.1	5483.8	
716.28	6521.4	
716.47	5516.5	
716.65	6212.2	
716.83	6331	
717.01	5412.1	
717.19	5400.5	
717.38	8474.5	
717.56	5963	
717.74	5705	
717.92	4736.3	
718.1	7311.2	
718.29	6471.6	
718.47	4412.7	
718.65	5141.1	
718.83	7217	
719.01	7212.9	
719.2	4399	
719.38	5550	
719.56	6893.5	
719.74	8558.5	
719.92	5027.8	
720.11	6191.7	
720.29	6952.9	
720.47	6005.3	
720.65	4619.5	
720.83	5500.2	
721.02	6335.1	
721.2	6043.6	
721.38	5489.2	
721.56	4757.4	
721.74	5560.9	
721.92	5775.3	
722.11	5977.3	
722.29	5694.7	
722.47	7120.1	
722.65	6247.7	
722.83	4773.8	
723.01	5749.3	
723.2	6291.4	
723.38	6621.1	
723.56	4218.1	
723.74	5412.1	
723.92	5792.3	
724.1	6911.9	
724.29	4717.2	
724.47	5885.2	
724.65	5812.1	
724.83	5714.5	
725.01	4549.2	
725.19	5477	
725.37	5882.4	
725.56	5951.4	
725.74	4461.8	
725.92	4756.1	
726.1	5758.9	
726.28	6163.7	
726.46	5114.5	
726.64	4865.3	
726.83	6068.1	
727.01	6474.3	
727.19	4397	
727.37	5260.5	
727.55	6165.1	
727.73	6783.6	
727.91	4454.3	
728.09	4248.9	
728.28	6777.4	
728.46	7482.6	
728.64	5475.6	
728.82	5466	
729	7903.8	
729.18	7173.4	
729.36	4612.7	
729.54	7092.1	
729.72	8349.6	
729.91	6538.5	
730.09	6700.3	
730.27	5401.2	
730.45	6383.5	
730.63	7126.9	
730.81	6032.6	
730.99	5060.5	
731.17	7707.9	
731.35	6177.4	
731.53	5732.3	
731.71	5223.7	
731.9	7361.8	
732.08	7575.4	
732.26	5473.5	
732.44	5144.5	
732.62	7606.2	
732.8	7033.4	
732.98	5846.3	
733.16	4937.7	
733.34	7055.9	
733.52	5832.6	
733.7	5466	
733.88	5719.3	
734.07	6882.5	
734.25	6666.8	
734.43	4959.5	
734.61	6626.5	
734.79	8327	
734.97	6582.2	
735.15	5075.5	
735.33	5442.1	
735.51	7000.6	
735.69	6596.5	
735.87	6687.3	
736.05	5703.6	
736.23	6875.7	
736.41	6600.6	
736.59	5490.6	
736.77	5668.8	
736.95	7323.5	
737.13	6746.7	
737.32	5271.5	
737.5	5378.6	
737.68	7909.9	
737.86	6604	
738.04	4960.9	
738.22	6934.4	
738.4	6386.2	
738.58	6731	
738.76	5724.8	
738.94	4591.5	
739.12	6583.5	
739.3	6423.8	
739.48	6353.5	
739.66	6075.6	
739.84	6844.3	
740.02	6819.7	
740.2	4752	
740.38	5150.6	
740.56	7279.8	
740.74	6082.5	
740.92	5768.4	
741.1	5752.1	
741.28	6705.7	
741.46	6510.5	
741.64	5315.2	
741.82	5949.3	
742	6631.3	
742.18	6692.1	
742.36	5571.8	
742.54	5145.9	
742.72	7334.5	
742.9	5945.9	
743.08	5933.6	
743.26	4670.7	
743.44	7571.3	
743.62	7354.9	
743.8	6217	
743.98	5130.2	
744.16	7029.3	
744.34	6701.6	
744.52	6013.5	
744.7	5965.7	
744.88	7243	
745.06	6672.3	
745.24	5961	
745.42	6149.4	
745.6	7331.7	
745.78	7015	
745.96	4780.6	
746.14	5095.3	
746.32	8069.7	
746.5	7296.9	
746.68	5733.6	
746.86	5188.9	
747.03	7718.8	
747.21	5987.6	
747.39	5703.6	
747.57	5174.5	
747.75	6830	
747.93	7228	
748.11	5134.9	
748.29	5072.1	
748.47	8381	
748.65	6485.9	
748.83	5883.8	
749.01	5644.2	
749.19	7026.6	
749.37	6170.5	
749.55	5412.1	
749.73	5550.7	
749.91	6695.5	
750.09	6367.1	
750.26	5558.9	
750.44	4975.2	
750.62	6731.7	
750.8	6735.8	
750.98	4846.2	
751.16	5132.9	
751.34	6731.7	
751.52	6052.4	
751.7	6004	
751.88	4773.8	
752.06	7200	
752.24	7111.2	
752.42	4723.3	
752.59	5040.7	
752.77	6591.7	
752.95	7946.1	
753.13	5851.7	
753.31	5184.8	
753.49	6282.5	
753.67	6780.1	
753.85	5553.4	
754.03	5065.3	
754.21	6994.5	
754.38	7454.6	
754.56	5303.6	
754.74	4215.4	
754.92	6272.2	
755.1	6997.9	
755.28	4261.1	
755.46	4237.9	
755.64	7617.8	
755.82	7709.2	
755.99	4416.1	
756.17	4448.2	
756.35	5000.5	
756.53	6638.8	
756.71	3278.8	
756.89	4298	
757.07	6201.2	
757.25	5217.5	
757.42	4810.7	
757.6	5793.7	
757.78	6243.6	
757.96	5225.7	
758.14	4506.9	
758.32	3998.3	
758.5	4782.7	
758.67	5707.7	
758.85	4382	
759.03	4493.9	
759.21	5855.1	
759.39	5188.9	
759.57	3935.5	
759.75	5127.4	
759.92	6550.1	
760.1	5687.2	
760.28	5522	
760.46	5798.5	
760.64	5528.8	
760.82	5233.9	
760.99	5421.7	
761.17	4473.4	
761.35	6412.2	
761.53	5403.9	
761.71	4651.6	
761.89	5401.2	
762.06	6294.8	
762.24	5782.8	
762.42	4756.7	
762.6	4563.6	
762.78	5810.1	
762.96	6481.8	
763.13	5168.4	
763.31	4883.7	
763.49	6776.7	
763.67	5853.1	
763.85	5784.1	
764.02	6412.9	
764.2	7010.9	
764.38	6208.8	
764.56	4734.2	
764.74	5692.7	
764.91	7153.6	
765.09	5962.3	
765.27	4411.3	
765.45	4243.4	
765.63	7124.9	
765.8	7056.6	
765.98	3928.7	
766.16	4347.2	
766.34	5443.5	
766.52	5300.1	
766.69	5295.4	
766.87	4164.9	
767.05	5973.2	
767.23	6745.3	
767.41	4472.1	
767.58	4749.9	
767.76	6538.5	
767.94	6616.3	
768.12	4531.5	
768.29	5318.6	
768.47	6068.1	
768.65	6789	
768.83	4120.5	
769	5409.4	
769.18	5552	
769.36	6313.9	
769.54	5164.3	
769.72	4152.6	
769.89	6587	
770.07	6733.7	
770.25	4517.1	
770.43	5831.9	
770.6	7355.6	
770.78	7797.3	
770.96	4762.9	
771.14	5335.6	
771.31	6536.4	
771.49	5797.8	
771.67	3846.8	
771.85	4043.4	
772.02	5000.5	
772.2	5850.4	
772.38	4876.2	
772.55	4317.1	
772.73	6088.6	
772.91	5866.7	
773.09	4749.9	
773.26	4851	
773.44	6059.3	
773.62	5750	
773.8	4204.5	
773.97	3931.4	
774.15	6115.9	
774.33	5657.9	
774.5	4048.2	
774.68	4480.3	
774.86	6277.7	
775.04	5700.2	
775.21	4209.9	
775.39	4216.8	
775.57	6014.2	
775.74	6408.1	
775.92	3963.5	
776.1	3906.8	
776.27	5948.7	
776.45	7256.6	
776.63	4142.4	
776.81	3638.6	
776.98	5560.9	
777.16	6764.4	
777.34	4347.8	
777.51	4637.3	
777.69	5601.2	
777.87	5342.5	
778.04	4317.8	
778.22	5052.3	
778.4	5384.8	
778.57	6071.5	
778.75	3572.3	
778.93	3916.4	
779.1	5126.1	
779.28	5021.6	
779.46	3611.9	
779.64	4093.2	
779.81	6163.7	
779.99	7135.8	
780.17	4947.9	
780.34	5119.9	
780.52	5619.6	
780.69	5825.1	
780.87	4450.9	
781.05	3937.6	
781.22	5666	
781.4	5729.5	
781.58	4128.7	
781.75	3227.6	
781.93	5758.2	
782.11	5097.4	
782.28	5102.2	
782.46	4134.8	
782.64	4907.6	
782.81	5935	
782.99	4256.4	
783.17	4275.5	
783.34	5799.2	
783.52	5023	
783.69	4356	
783.87	5269.4	
784.05	5061.2	
784.22	5076.9	
784.4	5245.5	
784.58	4508.3	
784.75	6060.6	
784.93	5074.2	
785.1	4118.5	
785.28	4790.9	
785.46	5758.9	
785.63	5063.3	
785.81	4108.9	
785.99	3929.4	
786.16	5220.3	
786.34	5662.6	
786.51	4003.8	
786.69	4429.8	
786.87	4831.2	
787.04	5346.6	
787.22	3825.6	
787.39	4807.9	
787.57	5095.3	
787.75	6193.1	
787.92	5029.1	
788.1	4999.8	
788.27	5111.7	
788.45	4880.3	
788.63	4663.2	
788.8	3332	
788.98	5653.1	
789.15	4826.4	
789.33	3470.6	
789.5	4150.5	
789.68	6060.6	
789.86	6226.5	
790.03	4584.7	
790.21	4033.1	
790.38	6032.6	
790.56	5160.2	
790.73	3843.4	
790.91	3908.2	
791.09	5118.6	
791.26	5915.9	
791.44	4140.3	
791.61	3542.3	
791.79	5093.3	
791.96	5206.6	
792.14	3702.7	
792.32	3175.7	
792.49	5087.2	
792.67	5266	
792.84	3738.2	
793.02	3538.9	
793.19	5590.3	
793.37	6302.3	
793.54	3211.9	
793.72	3556	
793.89	6535.1	
794.07	5161.6	
794.25	4232.5	
794.42	3392.8	
794.6	6190.3	
794.77	5875.6	
794.95	4465.9	
795.12	3922.5	
795.3	5070.8	
795.47	5814.2	
795.65	4327.4	
795.82	4190.8	
796	4902.8	
796.17	6872.3	
796.35	4012.7	
796.52	4724	
796.7	5632.6	
796.87	5729.5	
797.05	5019.6	
797.22	4906.3	
797.4	5704.3	
797.57	6780.8	
797.75	4162.2	
797.92	3965.6	
798.1	6049.7	
798.27	5078.3	
798.45	3345.7	
798.62	3627	
798.8	5458.5	
798.97	5891.3	
799.15	4362.9	
799.32	4136.2	
799.5	4653	
799.67	5468.1	
799.85	4588.8	
800.02	3287.7	
800.2	5014.8	
800.37	5408	
800.55	4706.9	
800.72	3918.4	
800.9	5895.4	
801.07	6358.9	
801.25	5273.5	
801.42	4319.2	
801.6	6059.9	
801.77	5650.3	
801.95	3876.8	
802.12	3816.7	
802.29	5655.1	
802.47	5588.9	
802.64	4325.3	
802.82	3237.8	
802.99	5090.6	
803.17	6122.1	
803.34	4167.6	
803.52	3724.6	
803.69	6767.9	
803.87	4869.4	
804.04	4166.3	
804.21	4248.9	
804.39	6222.4	
804.56	5244.8	
804.74	3530.7	
804.91	4340.3	
805.09	5100.1	
805.26	5233.9	
805.44	3599	
805.61	3900.7	
805.78	5808.7	
805.96	5814.2	
806.13	4315.1	
806.31	4670.7	
806.48	4600.4	
806.66	5156.8	
806.83	4276.2	
807	4202.4	
807.18	5055.1	
807.35	5534.3	
807.53	4180.6	
807.7	3333.4	
807.87	6371.2	
808.05	5067.4	
808.22	4625	
808.4	3347.7	
808.57	5137	
808.74	4720.6	
808.92	3805.8	
809.09	4920.6	
809.27	4935.6	
809.44	5631.9	
809.61	3400.3	
809.79	3736.2	
809.96	6291.4	
810.14	5886.5	
810.31	3302.7	
810.48	4031.1	
810.66	5238	
810.83	6061.3	
811.01	3865.9	
811.18	4584.7	
811.35	5916.6	
811.53	4618.9	
811.7	4650.9	
811.87	4352.6	
812.05	5146.5	
812.22	5009.3	
812.39	3688.4	
812.57	3579.2	
812.74	5145.9	
812.92	6861.4	
813.09	3978.5	
813.26	4446.1	
813.44	6624.5	
813.61	5053	
813.78	3282.2	
813.96	4528.7	
814.13	5146.5	
814.3	4780	
814.48	4892.6	
814.65	4089.1	
814.82	6418.3	
815	4938.3	
815.17	4186.7	
815.34	4994.3	
815.52	5025	
815.69	5073.5	
815.87	4060.4	
816.04	3525.2	
816.21	5157.5	
816.38	4499.4	
816.56	3984	
816.73	3739.6	
816.9	6509.8	
817.08	5950.7	
817.25	3723.9	
817.42	4696.7	
817.6	4653	
817.77	5182	
817.94	4230.4	
818.12	3685.7	
818.29	4859.1	
818.46	7698.3	
818.64	3829	
818.81	3620.1	
818.98	4795.7	
819.16	7062.8	
819.33	4487.1	
819.5	4144.4	
819.67	5562.3	
819.85	6167.1	
820.02	4082.3	
820.19	4356	
820.37	5399.8	
820.54	4924	
820.71	4176.5	
820.88	5248.3	
821.06	5333.6	
821.23	4939	
821.4	4228.4	
821.58	4166.3	
821.75	5878.4	
821.92	5268.7	
822.09	3357.3	
822.27	3493.2	
822.44	5194.3	
822.61	5068.7	
822.79	3361.4	
822.96	6619.7	
823.13	5732.3	
823.3	4863.9	
823.48	3947.8	
823.65	3553.9	
823.82	5887.9	
823.99	4664.6	
824.17	4996.4	
824.34	3576.4	
824.51	6795.2	
824.68	5180.7	
824.86	3710.9	
825.03	4253.6	
825.2	5121.3	
825.37	6261.3	
825.55	3687	
825.72	4157.4	
825.89	6858.6	
826.06	6350.1	
826.24	4069.3	
826.41	4132.1	
826.58	6247	
826.75	5415.5	
826.92	3140.2	
827.1	3566.9	
827.27	8682.7	
827.44	6795.2	
827.61	3823.6	
827.79	4638.6	
827.96	4846.9	
828.13	5233.2	
828.3	4042.7	
828.47	3398.3	
828.65	5356.8	
828.82	5325.4	
828.99	5148.6	
829.16	4579.9	
829.34	5717.2	
829.51	5524.1	
829.68	4162.8	
829.85	4289.8	
830.02	6044.9	
830.2	5844.2	
830.37	3209.2	
830.54	5110.4	
830.71	6511.2	
830.88	5107.6	
831.05	3276.1	
831.23	3799	
831.4	6290	
831.57	7139.9	
831.74	3861.1	
831.91	3347.7	
832.09	5378	
832.26	5740.5	
832.43	3984.7	
832.6	4513.7	
832.77	5393.7	
832.94	6160.3	
833.12	3113.6	
833.29	3959.4	
833.46	5054.4	
833.63	7408.9	
833.8	4373.8	
833.97	3979.9	
834.15	5773.2	
834.32	5535.7	
834.49	4164.9	
834.66	4266.6	
834.83	6027.9	
835	4848.9	
835.17	3840.6	
835.35	3885.7	
835.52	5693.4	
835.69	5595.1	
835.86	4083.6	
836.03	3367.5	
836.2	5733.6	
836.37	5373.9	
836.55	4027	
836.72	3777.1	
836.89	5312.4	
837.06	5811.5	
837.23	4115.1	
837.4	4461.2	
837.57	6598.6	
837.75	7389.1	
837.92	3609.2	
838.09	3918.4	
838.26	5330.9	
838.43	6099.5	
838.6	4192.2	
838.77	3790.8	
838.94	6933.7	
839.11	6673.6	
839.29	3994.9	
839.46	3190.7	
839.63	5754.8	
839.8	5496.7	
839.97	3940.3	
840.14	3820.8	
840.31	5486.5	
840.48	5760.3	
840.65	3239.2	
840.82	3828.3	
841	5777.3	
841.17	5683.8	
841.34	3604.4	
841.51	3649.5	
841.68	5675.6	
841.85	5418.2	
842.02	3736.9	
842.19	3046.7	
842.36	5560.2	
842.53	5456.5	
842.7	3573	
842.87	4419.5	
843.05	7215.7	
843.22	5408.7	
843.39	3371.6	
843.56	3660.4	
843.73	5212.8	
843.9	5794.4	
844.07	5782.8	
844.24	4883	
844.41	8592.6	
844.58	4954	
844.75	3429.7	
844.92	3814.7	
845.09	5797.8	
845.26	5727.5	
845.43	3566.9	
845.6	3752.6	
845.77	5739.8	
845.94	5480.4	
846.12	3951.9	
846.29	4166.9	
846.46	5952.8	
846.63	5765.7	
846.8	3534.1	
846.97	4250.2	
847.14	6251.1	
847.31	5687.9	
847.48	3997.6	
847.65	4346.5	
847.82	6035.4	
847.99	5970.5	
848.16	4789.5	
848.33	4437.3	
848.5	5236	
848.67	6275.7	
848.84	3509.5	
849.01	3677.5	
849.18	5144.5	
849.35	4825	
849.52	4437.9	
849.69	3469.3	
849.86	5949.3	
850.03	6180.1	
850.2	3616	
850.37	4380.6	
850.54	6075	
850.71	5429.8	
850.88	4281.6	
851.05	3488.4	
851.22	5621.7	
851.39	6300.9	
851.56	3406.5	
851.73	4146.5	
851.9	5018.9	
852.07	5950	
852.24	3990.1	
852.41	3552.5	
852.58	5565.7	
852.75	5101.5	
852.92	4034.5	
853.09	3456.3	
853.26	5367.7	
853.43	6184.2	
853.6	3497.9	
853.77	2969.6	
853.94	6327.5	
854.11	5004.6	
854.28	5272.2	
854.44	3837.9	
854.61	6724.2	
854.78	5874.3	
854.95	3607.2	
855.12	4475.5	
855.29	4640	
855.46	6552.8	
855.63	3485.6	
855.8	4943.1	
855.97	5314.5	
856.14	6068.8	
856.31	5066.7	
856.48	3846.8	
856.65	5281.7	
856.82	4953.4	
856.99	3369.6	
857.16	3809.9	
857.33	7012.9	
857.49	5385.5	
857.66	3848.1	
857.83	4178.5	
858	5328.8	
858.17	5571.8	
858.34	3345.7	
858.51	3526.6	
858.68	6458.6	
858.85	6532.3	
859.02	4116.4	
859.19	4386.7	
859.36	5027.1	
859.52	5097.4	
859.69	3552.5	
859.86	4175.1	
860.03	5108.3	
860.2	6352.8	
860.37	3211.2	
860.54	3584.6	
860.71	5947.3	
860.88	6385.6	
861.05	3979.9	
861.21	4498.7	
861.38	6441.5	
861.55	4921.3	
861.72	3205.1	
861.89	3999.7	
862.06	6072.9	
862.23	6561.7	
862.4	3459	
862.56	3661.1	
862.73	5844.2	
862.9	5528.2	
863.07	4176.5	
863.24	3237.2	
863.41	4855.7	
863.58	5076.2	
863.75	3604.4	
863.91	4089.8	
864.08	6406	
864.25	5941.8	
864.42	4461.2	
864.59	4885.8	
864.76	6658.6	
864.93	5036.6	
865.09	3499.3	
865.26	3784	
865.43	6244.9	
865.6	6663.4	
865.77	3081.5	
865.94	3517	
866.1	6300.9	
866.27	6068.1	
866.44	5350	
866.61	3354.6	
866.78	5461.2	
866.95	5855.8	
867.11	3389.4	
867.28	3172.3	
867.45	6109.1	
867.62	5143.8	
867.79	4135.5	
867.96	3512.9	
868.12	4986.1	
868.29	5986.2	
868.46	3031.7	
868.63	4745.1	
868.8	6224.5	
868.97	5921.4	
869.13	3694.5	
869.3	3745.7	
869.47	5894.1	
869.64	6115.2	
869.81	3588.7	
869.97	3523.2	
870.14	5719.3	
870.31	6476.4	
870.48	3509.5	
870.65	4457.7	
870.81	5343.8	
870.98	5337.7	
871.15	4017.4	
871.32	3666.5	
871.48	5840.1	
871.65	6436.1	
871.82	3538.9	
871.99	3910.9	
872.16	6871.6	
872.32	6227.2	
872.49	3552.5	
872.66	3560.1	
872.83	5949.3	
872.99	5261.9	
873.16	4070.7	
873.33	3519.8	
873.5	5554.1	
873.67	5593	
873.83	3698.6	
874	4760.8	
874.17	5778.7	
874.34	6799.9	
874.5	4600.4	
874.67	4433.2	
874.84	6456.6	
875.01	5001.1	
875.17	5041.4	
875.34	3505.4	
875.51	5746.6	
875.68	6880.5	
875.84	4322.6	
876.01	5211.4	
876.18	5954.8	
876.34	5854.5	
876.51	3549.8	
876.68	3504.1	
876.85	5478.3	
877.01	6244.9	
877.18	5122	
877.35	3495.2	
877.52	5520	
877.68	4949.3	
877.85	3500.7	
878.02	3427.6	
878.18	5545.9	
878.35	5205.3	
878.52	2826.9	
878.69	4016.7	
878.85	5962.3	
879.02	5933	
879.19	5008	
879.35	3833.8	
879.52	5868.1	
879.69	6128.2	
879.86	3041.9	
880.02	4023.6	
880.19	5509.7	
880.36	6732.4	
880.52	4076.1	
880.69	4203.1	
880.86	6053.8	
881.02	6019	
881.19	3905.5	
881.36	3889.1	
881.52	5922	
881.69	5233.9	
881.86	3827	
882.02	3759.4	
882.19	6271.6	
882.36	7262.8	
882.52	3576.4	
882.69	4941.1	
882.86	5704.3	
883.02	5595.1	
883.19	4328	
883.36	4088.4	
883.52	6049.7	
883.69	6882.5	
883.86	3618.8	
884.02	3237.8	
884.19	5965.7	
884.36	5527.5	
884.52	4059.1	
884.69	3762.1	
884.86	5227.1	
885.02	6630.6	
885.19	4001	
885.36	4116.4	
885.52	5477	
885.69	5699.5	
885.86	5134.3	
886.02	4512.4	
886.19	6027.2	
886.35	5385.5	
886.52	3942.3	
886.69	5037.3	
886.85	5070.8	
887.02	6404	
887.19	6404	
887.35	6404	
887.52	6404	
887.68	6404	
887.85	6404	
888.02	6404	
888.18	6404	
888.35	6404	
888.51	6404	
888.68	6404	
888.85	6404	
889.01	6404	
889.18	6404	
889.35	6404	
889.51	6404	
889.68	6404	
889.84	6404	
890.01	6404	
890.17	6404	
890.34	6404	
890.51	6404	
890.67	6404	
890.84	6404	
891	6404	
891.17	6404	
891.34	6404	
891.5	6404	
891.67	6404	
891.83	6404	
892	6404	
892.16	6404	
892.33	6404	
892.5	6404	
892.66	6404	
892.83	6404	
892.99	6404	
893.16	6404	
893.32	6404	
893.49	6404	
893.65	6404	
893.82	6404	
893.99	6404	
894.15	6404	
894.32	6404	
894.48	6404	
894.65	6404	
894.81	6404	
894.98	6404	
895.14	6404	
895.31	6404	
895.47	6404	
895.64	6404	
895.81	6404	
895.97	6404	
896.14	6404	
896.3	6404	
896.47	6404	
896.63	6404	
896.8	6404	
896.96	6404	
897.13	6404	
897.29	6404	
897.46	6404	
897.62	6404	
897.79	6404	
897.95	6404	
898.12	6404	
898.28	6404	
898.45	6404	
898.61	6404	
898.78	6404	
898.94	6404	
899.11	6404	
899.27	6404	
899.44	6404	
899.6	6404	
899.77	6404	
899.93	6404	
900.1	6404	
900.26	6404	
900.43	6404	
900.59	6404	
900.76	6404	
900.92	6404	
901.09	6404	
901.25	6404	
901.42	6404	
901.58	6404	
901.75	6404	
901.91	6404	
902.07	6404	
902.24	6404	
902.4	6404	
902.57	6404	
902.73	6404	
902.9	6404	
903.06	6404	
903.23	6404	
903.39	6404	
903.56	6404	
903.72	6404	
903.88	6404	
904.05	6404	
904.21	6404	
904.38	6404	
904.54	6404	
904.71	6404	
904.87	6404	
905.03	6404	
905.2	6404	
905.36	6404	
905.53	6404	
905.69	6404	
905.86	6404	
906.02	6404	
906.18	6404	
906.35	6404	
906.51	6404	
906.68	6404	
906.84	6404	
907.01	6404	
907.17	6404	
907.33	6404	
907.5	6404	
907.66	6404	
907.83	6404	
907.99	6404	
908.15	6404	
908.32	6404	
908.48	6404	
908.65	6404	
908.81	6404	
908.97	6404	
909.14	6404	
909.3	6404	
909.47	6404	
909.63	6404	
909.79	6404	
909.96	6404	
910.12	6404	
910.28	6404	
910.45	6404	
910.61	6404	
910.78	6404	
910.94	6404	
911.1	6404	
911.27	6404	
911.43	6404	
911.59	6404	
911.76	6404	
911.92	6404	
912.08	6404	
912.25	6404	
912.41	6404	
912.57	6404	
912.74	6404	
912.9	6404	
913.07	6404	
913.23	6404	
913.39	6404	
913.56	6404	
913.72	6404	
913.88	6404	
914.05	6404	
914.21	6404	
914.37	6404	
914.54	6404	
914.7	6404	
914.86	6404	
915.03	6404	
915.19	6404	
