Wavelength	Intensities	
nm	a.u.	
179.22	1891.8	
179.44	1892	
179.65	1891.6	
179.86	1892.3	
180.08	1910.8	
180.29	4914.4	
180.51	3502.7	
180.72	5664.7	
180.94	6550.8	
181.15	3201	
181.37	3130.7	
181.58	5491.3	
181.79	5763.7	
182.01	3310.9	
182.22	3606.5	
182.44	5722.7	
182.65	4808.6	
182.87	4493.9	
183.08	3981.3	
183.29	6025.1	
183.51	4975.2	
183.72	3596.9	
183.94	5308.3	
184.15	5369.1	
184.37	5398.4	
184.58	3224.9	
184.79	4300.7	
185.01	4951.3	
185.22	5693.4	
185.44	4567	
185.65	3899.3	
185.86	5268.7	
186.08	4876.9	
186.29	3090.4	
186.51	3312.9	
186.72	5010.7	
186.94	5894.1	
187.15	3820.1	
187.36	3970.3	
187.58	7674.4	
187.79	5453.1	
188.01	4114.4	
188.22	6521.4	
188.43	6545.3	
188.65	5691.3	
188.86	3350.5	
189.08	3971.7	
189.29	5113.8	
189.5	5183.4	
189.72	3717.7	
189.93	3738.9	
190.15	5968.5	
190.36	7060	
190.57	3932.8	
190.79	3958.7	
191	6019.7	
191.22	5930.9	
191.43	4087.1	
191.64	3277.4	
191.86	6101.6	
192.07	5913.2	
192.29	3533.4	
192.5	3688.4	
192.71	5897.5	
192.93	5104.2	
193.14	3687	
193.35	3708.9	
193.57	5161.6	
193.78	5936.4	
194	2936.8	
194.21	3610.6	
194.42	4865.3	
194.64	5409.4	
194.85	3966.2	
195.07	4695.3	
195.28	5490.6	
195.49	4690.5	
195.71	4932.9	
195.92	3403.7	
196.13	5554.8	
196.35	5672.9	
196.56	5230.5	
196.78	3986.7	
196.99	7036.8	
197.2	6532.3	
197.42	4554.7	
197.63	4018.1	
197.84	4831.8	
198.06	5528.8	
198.27	3652.2	
198.48	4913.1	
198.7	5156.1	
198.91	5269.4	
199.13	4028.4	
199.34	4055.7	
199.55	5797.1	
199.77	4616.1	
199.98	3495.2	
200.19	4037.9	
200.41	5308.3	
200.62	4993.6	
200.83	4140.3	
201.05	4548.5	
201.26	5295.4	
201.47	5042.1	
201.69	3605.1	
201.9	3366.2	
202.11	5359.5	
202.33	6338.5	
202.54	3777.1	
202.76	4205.8	
202.97	5461.9	
203.18	5495.4	
203.4	4203.1	
203.61	4132.1	
203.82	5396.4	
204.04	5061.9	
204.25	4067.9	
204.46	3921.2	
204.68	5431.2	
204.89	5606	
205.1	3943.7	
205.32	3415.3	
205.53	5835.3	
205.74	5912.5	
205.96	2874	
206.17	4095.9	
206.38	5709.7	
206.6	5908.4	
206.81	4566.3	
207.02	3728	
207.24	5635.3	
207.45	5959.6	
207.66	3850.2	
207.88	3264.5	
208.09	5575.9	
208.3	5370.5	
208.52	3476.1	
208.73	3907.5	
208.94	5386.2	
209.15	6096.8	
209.37	3820.8	
209.58	4003.1	
209.79	5902.9	
210.01	5175.2	
210.22	3052.8	
210.43	3172.3	
210.65	5341.8	
210.86	5760.9	
211.07	3882.9	
211.29	3506.8	
211.5	5759.6	
211.71	5285.1	
211.93	3548.4	
212.14	3531.4	
212.35	5296.7	
212.56	5557.5	
212.78	4052.2	
212.99	3358	
213.2	6311.2	
213.42	5126.1	
213.63	3634.5	
213.84	3899.3	
214.06	4784.7	
214.27	4828.4	
214.48	3805.1	
214.69	4043.4	
214.91	6039.5	
215.12	6175.3	
215.33	4121.2	
215.55	4521.9	
215.76	6588.3	
215.97	5726.8	
216.18	3988.8	
216.4	3872.7	
216.61	5088.5	
216.82	5895.4	
217.04	3552.5	
217.25	3684.3	
217.46	6041.5	
217.67	5742.5	
217.89	3153.2	
218.1	3342.3	
218.31	5444.9	
218.53	5542.5	
218.74	3694.5	
218.95	3568.9	
219.16	5315.8	
219.38	6260.6	
219.59	3594.2	
219.8	4345.8	
220.01	6933.1	
220.23	5363.6	
220.44	4666.6	
220.65	3482.9	
220.87	5431.9	
221.08	6015.6	
221.29	3259	
221.5	4390.8	
221.72	7368.6	
221.93	5091.9	
222.14	4067.9	
222.35	4780	
222.57	5375.9	
222.78	5760.9	
222.99	3849.5	
223.2	4191.5	
223.42	5661.3	
223.63	5746.6	
223.84	2949.1	
224.05	3006.4	
224.27	6873.7	
224.48	6249.7	
224.69	4768.4	
224.9	3977.2	
225.12	5588.2	
225.33	5347.2	
225.54	3248.8	
225.75	3585.3	
225.97	4969.7	
226.18	5241.4	
226.39	3889.1	
226.6	3599.6	
226.82	5167	
227.03	4968.4	
227.24	4012.7	
227.45	3396.2	
227.67	5760.3	
227.88	6281.1	
228.09	4545.8	
228.3	4543.8	
228.52	5803.9	
228.73	5339.7	
228.94	3773.7	
229.15	3284.3	
229.36	5223.7	
229.58	5242.8	
229.79	3828.3	
230	4442.7	
230.21	6397.2	
230.43	5461.9	
230.64	4004.5	
230.85	4222.9	
231.06	5816.2	
231.28	5803.9	
231.49	3321.8	
231.7	3927.3	
231.91	5662.6	
232.12	5353.4	
232.34	3383.2	
232.55	3902.7	
232.76	5982.1	
232.97	5565.7	
233.18	3499.3	
233.4	3994.9	
233.61	5551.4	
233.82	5182.7	
234.03	3672	
234.25	3657	
234.46	7481.9	
234.67	5451.7	
234.88	4108.9	
235.09	3565.5	
235.31	5649.7	
235.52	5281	
235.73	3996.3	
235.94	3358.7	
236.15	5102.2	
236.37	6543.9	
236.58	3536.2	
236.79	3822.9	
237	5656.5	
237.21	4905.6	
237.43	4143.7	
237.64	3236.5	
237.85	9796.8	
238.06	4965	
238.27	4177.2	
238.48	3426.9	
238.7	5659.9	
238.91	5265.3	
239.12	3816.7	
239.33	3919.1	
239.54	4973.2	
239.76	5298.1	
239.97	3850.9	
240.18	3848.1	
240.39	6657.3	
240.6	5660.6	
240.82	4044.1	
241.03	3267.2	
241.24	5319.3	
241.45	6228.6	
241.66	3453.6	
241.87	4138.3	
242.09	6149.4	
242.3	6508.4	
242.51	4241.3	
242.72	3848.8	
242.93	5857.2	
243.14	5397.8	
243.36	4482.3	
243.57	4830.5	
243.78	6228.6	
243.99	5728.9	
244.2	3855	
244.41	3532.1	
244.63	4977.9	
244.84	5707.7	
245.05	4119.1	
245.26	3880.2	
245.47	5629.2	
245.68	5945.9	
245.9	5155.4	
246.11	4103.4	
246.32	5197.1	
246.53	5610.8	
246.74	6156.9	
246.95	3244.7	
247.16	4874.2	
247.38	5359.5	
247.59	3209.2	
247.8	3902.7	
248.01	5082.4	
248.22	5335.6	
248.43	3467.9	
248.64	3760.1	
248.86	4737	
249.07	5145.9	
249.28	3362.1	
249.49	4003.8	
249.7	5918.6	
249.91	6023.8	
250.12	3232.4	
250.34	3297.9	
250.55	5484.5	
250.76	5393	
250.97	4033.8	
251.18	4044.7	
251.39	6117.3	
251.6	5565.7	
251.81	4095.3	
252.03	4059.8	
252.24	5137	
252.45	5905	
252.66	3336.8	
252.87	4261.8	
253.08	5381.4	
253.29	7062.1	
253.5	3401	
253.72	4644.8	
253.93	5253	
254.14	6411.5	
254.35	3613.3	
254.56	3807.2	
254.77	5621	
254.98	4994.3	
255.19	3644	
255.41	4676.2	
255.62	5500.2	
255.83	5999.2	
256.04	4180.6	
256.25	4009.2	
256.46	6677.7	
256.67	5038.7	
256.88	3985.3	
257.09	4387.4	
257.31	5046.2	
257.52	5089.9	
257.73	5023	
257.94	3633.1	
258.15	5199.1	
258.36	5357.5	
258.57	4613.4	
258.78	2894.5	
258.99	5843.5	
259.2	5216.2	
259.41	3661.8	
259.63	3816	
259.84	6256.5	
260.05	6684.6	
260.26	4848.2	
260.47	3575.1	
260.68	5976.7	
260.89	5306.3	
261.1	4487.1	
261.31	3534.1	
261.52	5973.2	
261.73	6358.9	
261.95	4765.6	
262.16	4160.8	
262.37	6101.6	
262.58	6172.6	
262.79	4747.2	
263	3799	
263.21	5427.8	
263.42	4919.9	
263.63	3795.6	
263.84	3734.8	
264.05	5971.2	
264.26	6294.1	
264.47	4619.5	
264.69	4123.9	
264.9	6093.4	
265.11	5555.5	
265.32	3620.8	
265.53	3663.1	
265.74	5489.9	
265.95	4778.6	
266.16	3951.9	
266.37	4405.9	
266.58	5532.9	
266.79	5232.6	
267	3625.6	
267.21	3412.6	
267.42	4975.9	
267.63	5365	
267.84	3835.2	
268.06	3302.7	
268.27	5819.6	
268.48	6116.6	
268.69	3753.2	
268.9	4445.5	
269.11	6096.8	
269.32	4894	
269.53	3876.8	
269.74	3573	
269.95	5705.6	
270.16	4782.7	
270.37	3915	
270.58	4488.5	
270.79	5221	
271	5910.4	
271.21	4143	
271.42	3904.8	
271.63	5572.5	
271.84	5030.5	
272.05	3044.6	
272.26	3443.3	
272.47	5398.4	
272.68	5631.9	
272.89	3724.6	
273.11	4299.4	
273.32	5244.2	
273.53	6305.7	
273.74	4198.3	
273.95	4066.6	
274.16	6015.6	
274.37	5468.1	
274.58	4253.6	
274.79	3361.4	
275	5526.8	
275.21	6028.5	
275.42	5046.2	
275.63	4410	
275.84	5638.7	
276.05	7093.5	
276.26	4114.4	
276.47	3790.8	
276.68	5244.2	
276.89	6360.3	
277.1	4381.3	
277.31	3390.8	
277.52	5654.4	
277.73	5782.1	
277.94	3345	
278.15	3710.2	
278.36	5568.4	
278.57	5008.6	
278.78	3664.5	
278.99	4219.5	
279.2	5006.6	
279.41	4951.3	
279.62	4874.2	
279.83	3509.5	
280.04	6632	
280.25	4973.8	
280.46	4885.1	
280.67	3847.5	
280.88	5057.1	
281.09	6039.5	
281.3	4074.1	
281.51	5137.7	
281.72	5876.3	
281.93	5915.2	
282.14	3555.3	
282.35	3855	
282.56	5878.4	
282.77	5856.5	
282.98	3781.9	
283.19	4610	
283.4	7174	
283.61	5302.9	
283.82	3420.1	
284.03	4802.5	
284.24	5470.1	
284.45	5945.3	
284.66	4801.1	
284.87	4665.3	
285.08	5977.3	
285.29	6098.9	
285.5	3282.9	
285.71	3801.7	
285.92	6016.9	
286.12	6689.3	
286.33	4807.9	
286.54	3789.4	
286.75	5898.1	
286.96	5239.4	
287.17	3437.9	
287.38	4727.4	
287.59	5023.7	
287.8	4938.3	
288.01	3814	
288.22	4371	
288.43	5971.9	
288.64	4887.8	
288.85	4474.8	
289.06	4298	
289.27	5878.4	
289.48	6352.1	
289.69	4832.5	
289.9	4353.3	
290.11	6057.9	
290.32	5070.1	
290.53	4551.3	
290.74	4200.4	
290.94	5855.8	
291.15	5873.6	
291.36	3654.3	
291.57	4272.7	
291.78	5166.3	
291.99	4788.2	
292.2	3474	
292.41	4203.1	
292.62	5928.9	
292.83	5735.7	
293.04	5101.5	
293.25	3517.7	
293.46	5226.4	
293.67	6002.6	
293.88	3647.4	
294.09	3477.5	
294.29	4958.8	
294.5	5536.3	
294.71	3882.3	
294.92	3691.8	
295.13	5100.8	
295.34	6486.6	
295.55	3194.8	
295.76	3556.6	
295.97	5842.9	
296.18	6560.3	
296.39	3453.6	
296.6	3621.5	
296.81	5495.4	
297.01	5782.8	
297.22	3736.2	
297.43	3607.2	
297.64	5072.8	
297.85	5051	
298.06	3024.2	
298.27	3323.9	
298.48	5410.7	
298.69	5102.9	
298.9	3955.3	
299.11	3515.7	
299.31	4945.2	
299.52	5005.9	
299.73	4234.5	
299.94	4099.4	
300.15	5381.4	
300.36	5029.1	
300.57	4108.9	
300.78	4110.3	
300.99	5246.2	
301.2	5552	
301.4	3613.3	
301.61	3943.7	
301.82	5700.9	
302.03	5823.1	
302.24	4354	
302.45	3437.2	
302.66	5749.3	
302.87	6167.1	
303.08	3592.8	
303.29	5010.7	
303.49	5166.3	
303.7	5414.1	
303.91	3260.4	
304.12	4727.4	
304.33	4885.8	
304.54	5560.9	
304.75	3650.8	
304.96	3476.8	
305.16	5730.9	
305.37	6508.4	
305.58	3183.2	
305.79	3312.2	
306	5672.2	
306.21	4822.3	
306.42	3572.3	
306.63	5502.9	
306.83	5261.2	
307.04	5944.6	
307.25	4007.9	
307.46	3979.9	
307.67	4597	
307.88	5835.3	
308.09	3519.1	
308.29	3721.2	
308.5	5446.2	
308.71	5983.5	
308.92	3895.9	
309.13	3529.3	
309.34	5248.3	
309.55	5335.6	
309.75	4490.5	
309.96	4169.7	
310.17	5848.3	
310.38	5085.8	
310.59	4332.8	
310.8	3390.8	
311.01	6315.9	
311.21	5251	
311.42	3418.7	
311.63	3560.7	
311.84	5125.4	
312.05	5477	
312.26	4055.7	
312.46	4431.8	
312.67	5229.1	
312.88	4940.4	
313.09	3509.5	
313.3	3424.9	
313.51	6148	
313.71	6611.5	
313.92	3457	
314.13	3701.4	
314.34	5618.9	
314.55	5330.2	
314.76	4532.2	
314.96	3929.4	
315.17	5447.6	
315.38	5789.6	
315.59	3521.1	
315.8	3338.2	
316.01	6286.6	
316.21	6266.8	
316.42	3376.4	
316.63	3920.5	
316.84	5267.4	
317.05	6066.8	
317.26	4188.1	
317.46	3726.6	
317.67	5326.8	
317.88	5763.7	
318.09	4480.3	
318.3	3286.3	
318.5	5135.6	
318.71	5709.7	
318.92	5734.3	
319.13	4182	
319.34	5910.4	
319.54	5998.5	
319.75	3261.7	
319.96	3154.6	
320.17	5766.4	
320.38	6010.8	
320.58	3201	
320.79	3862.5	
321	5964.4	
321.21	6081.8	
321.42	3881.6	
321.62	3189.4	
321.83	5021.6	
322.04	5414.8	
322.25	3701.4	
322.46	3532.7	
322.66	5468.8	
322.87	5694.7	
323.08	4377.2	
323.29	3475.4	
323.5	6485.9	
323.7	4969.7	
323.91	4818.2	
324.12	4403.1	
324.33	5421.7	
324.53	5783.5	
324.74	4162.8	
324.95	4319.2	
325.16	4765.6	
325.37	5190.9	
325.57	3539.6	
325.78	3565.5	
325.99	5504.3	
326.2	4867.3	
326.4	5168.4	
326.61	3275.4	
326.82	5344.5	
327.03	5508.4	
327.24	5036.6	
327.44	4700.1	
327.65	5659.2	
327.86	4558.8	
328.07	4141	
328.27	3387.3	
328.48	6092.7	
328.69	4997	
328.9	5064.6	
329.1	3763.5	
329.31	5264	
329.52	6244.9	
329.73	3541.6	
329.93	3985.3	
330.14	5439.4	
330.35	5616.2	
330.56	5786.2	
330.76	4383.3	
330.97	5216.9	
331.18	5653.8	
331.39	3901.4	
331.59	3119.7	
331.8	5917.3	
332.01	6057.9	
332.22	3635.1	
332.42	4095.3	
332.63	5548.6	
332.84	5094.7	
333.05	3954.6	
333.25	3555.3	
333.46	5173.9	
333.67	5447.6	
333.88	3694.5	
334.08	4069.3	
334.29	7223.2	
334.5	6117.3	
334.7	3431	
334.91	5043.5	
335.12	4959.5	
335.33	5866.1	
335.53	3913	
335.74	5786.9	
335.95	5202.5	
336.16	5040.7	
336.36	3921.2	
336.57	4504.2	
336.78	4945.2	
336.98	6012.2	
337.19	4808.6	
337.4	3827.7	
337.61	6534.4	
337.81	4969.7	
338.02	3637.2	
338.23	4684.4	
338.43	6229.2	
338.64	5102.9	
338.85	3552.5	
339.05	4614.1	
339.26	6230.6	
339.47	4827.7	
339.68	3559.4	
339.88	5276.3	
340.09	5642.8	
340.3	5872.2	
340.5	4176.5	
340.71	3144.3	
340.92	4853	
341.13	6133.7	
341.33	3394.2	
341.54	4201.1	
341.75	5666.7	
341.95	5286.5	
342.16	4007.9	
342.37	4298.7	
342.57	4985.4	
342.78	5409.4	
342.99	4470	
343.19	3209.8	
343.4	5804.6	
343.61	5689.3	
343.81	3772.4	
344.02	3491.8	
344.23	5823.7	
344.43	6240.8	
344.64	4414.1	
344.85	4276.8	
345.06	5647.6	
345.26	5948.7	
345.47	4056.3	
345.68	4807.3	
345.88	4796.3	
346.09	5887.2	
346.3	4148.5	
346.5	3142.3	
346.71	5405.3	
346.92	5171.8	
347.12	3231.7	
347.33	4122.6	
347.54	5986.9	
347.74	6346.7	
347.95	4106.9	
348.16	3003.7	
348.36	5228.5	
348.57	5033.2	
348.78	4050.2	
348.98	4298	
349.19	5393	
349.39	4955.4	
349.6	3267.9	
349.81	3613.3	
350.01	5668.8	
350.22	5163.6	
350.43	3941	
350.63	4707.6	
350.84	5469.4	
351.05	5188.9	
351.25	3594.9	
351.46	3242.6	
351.67	5956.2	
351.87	5097.4	
352.08	3858.4	
352.29	4349.2	
352.49	5915.2	
352.7	5962.3	
352.9	3516.4	
353.11	4327.4	
353.32	6576	
353.52	5233.2	
353.73	3448.8	
353.94	4410.6	
354.14	5710.4	
354.35	5571.2	
354.55	3528.7	
354.76	3932.1	
354.97	5662.6	
355.17	5474.9	
355.38	3349.1	
355.59	4601.8	
355.79	5100.1	
356	5510.4	
356.2	3901.4	
356.41	3452.2	
356.62	4852.3	
356.82	5356.8	
357.03	4166.3	
357.24	3835.8	
357.44	5152	
357.65	5237.3	
357.85	5054.4	
358.06	3957.4	
358.27	4901.5	
358.47	5122	
358.68	3391.4	
358.88	4205.2	
359.09	5650.3	
359.3	6112.5	
359.5	4879.6	
359.71	4367	
359.91	6460	
360.12	5795.1	
360.33	4167.6	
360.53	4683.7	
360.74	5169.8	
360.94	5246.9	
361.15	4422.9	
361.36	3668.6	
361.56	5915.2	
361.77	5387.5	
361.97	4846.2	
362.18	3874.1	
362.38	5928.9	
362.59	5044.1	
362.8	3558.7	
363	3392.8	
363.21	4836.6	
363.41	5545.9	
363.62	4116.4	
363.83	5059.2	
364.03	5623	
364.24	6576.7	
364.44	5166.3	
364.65	5196.4	
364.85	5337	
365.06	5024.3	
365.27	3747.1	
365.47	3775.1	
365.68	6386.2	
365.88	5360.2	
366.09	4121.2	
366.29	3842	
366.5	5540.4	
366.71	6001.9	
366.91	5179.3	
367.12	4311.7	
367.32	6552.1	
367.53	5837.4	
367.73	4246.1	
367.94	5255.1	
368.14	5793	
368.35	6754.9	
368.56	4209.3	
368.76	3636.5	
368.97	5989.6	
369.17	7641	
369.38	3771	
369.58	3968.3	
369.79	4985.4	
369.99	6215.6	
370.2	5040.7	
370.4	4123.2	
370.61	5592.3	
370.82	6806.8	
371.02	4022.9	
371.23	3355.9	
371.43	4913.8	
371.64	6246.3	
371.84	4089.8	
372.05	5238.7	
372.25	7555.6	
372.46	5974.6	
372.66	4055.7	
372.87	4044.1	
373.07	6066.1	
373.28	7555.6	
373.48	5023	
373.69	4856.4	
373.9	5537	
374.1	5561.6	
374.31	4998.4	
374.51	4588.1	
374.72	6275	
374.92	5225.1	
375.13	5167	
375.33	4386.7	
375.54	5910.4	
375.74	5393	
375.95	4455.7	
376.15	5683.8	
376.36	5952.8	
376.56	5737	
376.77	4483	
376.97	4939	
377.18	6952.9	
377.38	6004.6	
377.59	5356.1	
377.79	4020.2	
378	5784.8	
378.2	6219	
378.41	4055	
378.61	4011.3	
378.82	6251.1	
379.02	5443.5	
379.23	4265.9	
379.43	5285.1	
379.64	6350.1	
379.84	6056.5	
380.05	4110.3	
380.25	4033.1	
380.46	6090	
380.66	5728.2	
380.87	5423.7	
381.07	5792.3	
381.28	6709.8	
381.48	6130.9	
381.69	4070.7	
381.89	4055.7	
382.1	5083.7	
382.3	6197.2	
382.51	5237.3	
382.71	6115.2	
382.91	6101.6	
383.12	6629.3	
383.32	4462.5	
383.53	4674.1	
383.73	5864.7	
383.94	5741.1	
384.14	4586.8	
384.35	3750.5	
384.55	5646.2	
384.76	6027.9	
384.96	4465.3	
385.17	4756.1	
385.37	6079.1	
385.58	5431.2	
385.78	4728.8	
385.98	3657.7	
386.19	5598.5	
386.39	5964.4	
386.6	4199	
386.8	4448.9	
387.01	6084.5	
387.21	6057.9	
387.42	4936.3	
387.62	5456.5	
387.83	5428.5	
388.03	6062.7	
388.23	4493.9	
388.44	5347.9	
388.64	5175.9	
388.85	5305.6	
389.05	4881.7	
389.26	5500.2	
389.46	7074.4	
389.67	6520	
389.87	4812.7	
390.07	4937	
390.28	5785.5	
390.48	5371.8	
390.69	4126.7	
390.89	4403.1	
391.1	5526.8	
391.3	6497.5	
391.5	5593	
391.71	6236.7	
391.91	6148.7	
392.12	7253.2	
392.32	5670.1	
392.53	4971.1	
392.73	5582.1	
392.93	5802.6	
393.14	4536.9	
393.34	5332.2	
393.55	6264.1	
393.75	5795.1	
393.95	4513	
394.16	4478.9	
394.36	5582.1	
394.57	6169.8	
394.77	4025.6	
394.98	4448.9	
395.18	5520	
395.38	5750.7	
395.59	5303.6	
395.79	4317.8	
396	5686.5	
396.2	6176	
396.4	5141.8	
396.61	5087.8	
396.81	6357.6	
397.02	5603.9	
397.22	5323.4	
397.42	5489.2	
397.63	6335.1	
397.83	5509.7	
398.04	4273.4	
398.24	4797.7	
398.44	6098.9	
398.65	5193	
398.85	4105.5	
399.05	4235.2	
399.26	5541.1	
399.46	7178.8	
399.67	4599.7	
399.87	4374.5	
400.07	5839.4	
400.28	6284.5	
400.48	4463.2	
400.69	5517.9	
400.89	6539.8	
401.09	6914.6	
401.3	4300.7	
401.5	5444.2	
401.7	7115.3	
401.91	7318.1	
402.11	4678.2	
402.32	4912.4	
402.52	6492.7	
402.72	6446.3	
402.93	5073.5	
403.13	3953.3	
403.33	7171.3	
403.54	5907	
403.74	4716.5	
403.94	5655.1	
404.15	5965.7	
404.35	7167.2	
404.56	4566.3	
404.76	6447	
404.96	6468.9	
405.17	6257.9	
405.37	5853.1	
405.57	5097.4	
405.78	6549.4	
405.98	5913.9	
406.18	4616.1	
406.39	5500.8	
406.59	6523.5	
406.79	6041.5	
407	4410	
407.2	4521.2	
407.4	6445.6	
407.61	6731.7	
407.81	4530.8	
408.01	6638.1	
408.22	5593.7	
408.42	7589.8	
408.62	5673.6	
408.83	5176.6	
409.03	6188.3	
409.23	6015.6	
409.44	5279.7	
409.64	5545.9	
409.84	7057.3	
410.05	7062.8	
410.25	5410.7	
410.45	5199.8	
410.66	6509.8	
410.86	8961.9	
411.06	5668.1	
411.27	5526.1	
411.47	8799.4	
411.67	6799.9	
411.88	5706.3	
412.08	6007.4	
412.28	7341.3	
412.49	7845.1	
412.69	5471.5	
412.89	5510.4	
413.09	7729.7	
413.3	7623.9	
413.5	5610.8	
413.7	5221.6	
413.91	6799.9	
414.11	7737.9	
414.31	5482.4	
414.52	5832.6	
414.72	7386.3	
414.92	7348.8	
415.12	5421	
415.33	5998.5	
415.53	7634.8	
415.73	7909.3	
415.94	6339.1	
416.14	5803.3	
416.34	6718.7	
416.55	6419	
416.75	6967.2	
416.95	6399.2	
417.15	7630	
417.36	8402.8	
417.56	7228	
417.76	6257.9	
417.97	8054.7	
418.17	7729.7	
418.37	5902.9	
418.57	5832.6	
418.78	7520.8	
418.98	7090.8	
419.18	6756.2	
419.38	6713.9	
419.59	7147.4	
419.79	6817.7	
419.99	5753.4	
420.2	6145.3	
420.4	7752.2	
420.6	7971.4	
420.8	5729.5	
421.01	5590.3	
421.21	7515.4	
421.41	7677.8	
421.61	6145.3	
421.82	5799.8	
422.02	7082.6	
422.22	8004.8	
422.42	6548	
422.63	6182.1	
422.83	7218.4	
423.03	8353	
423.23	6298.2	
423.44	5241.4	
423.64	7235.5	
423.84	6939.9	
424.04	5673.6	
424.25	5347.2	
424.45	8140	
424.65	8048.5	
424.85	5165.7	
425.06	5805.3	
425.26	8118.1	
425.46	6598.6	
425.66	6262.7	
425.87	5851.7	
426.07	7921.5	
426.27	7805.5	
426.47	6049	
426.67	5431.9	
426.88	8221.2	
427.08	7657.4	
427.28	6209.4	
427.48	5388.9	
427.69	6566.5	
427.89	7186.3	
428.09	6249	
428.29	5393.7	
428.5	7950.2	
428.7	7479.2	
428.9	5272.8	
429.1	5779.4	
429.3	7345.4	
429.51	7798	
429.71	5616.2	
429.91	6488	
430.11	7681.2	
430.31	8312	
430.52	5938.4	
430.72	6262.7	
430.92	8256	
431.12	7633.5	
431.32	5625.1	
431.53	6057.2	
431.73	6649.8	
431.93	8348.2	
432.13	5524.7	
432.33	5454.4	
432.54	7145.4	
432.74	7517.4	
432.94	5326.8	
433.14	6451.1	
433.34	7694.2	
433.55	7191.1	
433.75	6370.5	
433.95	8163.2	
434.15	7479.2	
434.35	7139.9	
434.56	5530.9	
434.76	5162.2	
434.96	7464.2	
435.16	7742	
435.36	5478.3	
435.56	6592.4	
435.77	7141.9	
435.97	7271.7	
436.17	7332.4	
436.37	6595.1	
436.57	7137.2	
436.78	7051.8	
436.98	8365.3	
437.18	7145.4	
437.38	7866.2	
437.58	7326.9	
437.78	7247.1	
437.99	5846.3	
438.19	7789.8	
438.39	8525.7	
438.59	5805.3	
438.79	5385.5	
438.99	8485.4	
439.2	7232.7	
439.4	5494	
439.6	5451	
439.8	7605.5	
440	8753.7	
440.2	6606.1	
440.4	6747.4	
440.61	8099	
440.81	8574.2	
441.01	5782.8	
441.21	6684.6	
441.41	8462.2	
441.61	8054.7	
441.81	6898.9	
442.02	8036.2	
442.22	8971.5	
442.42	8186.4	
442.62	5830.6	
442.82	5840.8	
443.02	8489.5	
443.22	7623.2	
443.43	6348	
443.63	5892	
443.83	7413	
444.03	7473	
444.23	7153.6	
444.43	6653.2	
444.63	7745.4	
444.83	9008.3	
445.04	6046.3	
445.24	7295.5	
445.44	8163.2	
445.64	8298.4	
445.84	6778.1	
446.04	6722.1	
446.24	7427.3	
446.44	8500.4	
446.65	5913.2	
446.85	6334.4	
447.05	7471.7	
447.25	8452	
447.45	6446.3	
447.65	5812.8	
447.85	7849.2	
448.05	7447.1	
448.25	6880.5	
448.46	6660	
448.66	7756.3	
448.86	7572.7	
449.06	5589.6	
449.26	6818.4	
449.46	8290.9	
449.66	7227.3	
449.86	6358.9	
450.06	6368.5	
450.26	7492.8	
450.47	8051.9	
450.67	6574	
450.87	6924.2	
451.07	8159.8	
451.27	7925.6	
451.47	5907.7	
451.67	6453.1	
451.87	7587	
452.07	8708	
452.27	6153.5	
452.47	6184.2	
452.67	7888.8	
452.88	8337.3	
453.08	5514.5	
453.28	7618.4	
453.48	9043.1	
453.68	7777.5	
453.88	6065.4	
454.08	6294.8	
454.28	8304.5	
454.48	7897.7	
454.68	6881.9	
454.88	7337.2	
455.08	8378.2	
455.28	8131.8	
455.48	5933	
455.68	6621.8	
455.89	8890.9	
456.09	8609.7	
456.29	6361.7	
456.49	6404.7	
456.69	8707.3	
456.89	7952.3	
457.09	7040.9	
457.29	7322.2	
457.49	8388.5	
457.69	8637	
457.89	6879.8	
458.09	6212.2	
458.29	8079.9	
458.49	8916.2	
458.69	7172.7	
458.89	6622.4	
459.09	9146.9	
459.29	9303.9	
459.49	6774	
459.69	7537.9	
459.9	8695	
460.1	8191.9	
460.3	6664.1	
460.5	6567.2	
460.7	8694.3	
460.9	8378.9	
461.1	6115.2	
461.3	7505.8	
461.5	9430.9	
461.7	8990.6	
461.9	6655.9	
462.1	7133.1	
462.3	8478.6	
462.5	9003.6	
462.7	6634.7	
462.9	6777.4	
463.1	10176	
463.3	9820.7	
463.5	7088	
463.7	7989.1	
463.9	8750.3	
464.1	9179.7	
464.3	7148.1	
464.5	7430	
464.7	9402.2	
464.9	9101.2	
465.1	8789.2	
465.3	7789.8	
465.5	9801.6	
465.7	9720.3	
465.9	8090.2	
466.1	7701	
466.3	9622.7	
466.5	9305.3	
466.7	8839	
466.9	7621.9	
467.1	9365.4	
467.3	10329	
467.5	8777.6	
467.7	7648.5	
467.9	10645	
468.1	11389	
468.3	8405.5	
468.5	8889.5	
468.7	9358.5	
468.9	9338.7	
469.1	7946.8	
469.3	8718.2	
469.5	11478	
469.7	9035	
469.9	8392.6	
470.1	7756.3	
470.3	9417.2	
470.5	9377	
470.7	9003.6	
470.9	7752.9	
471.1	9142.8	
471.3	9604.3	
471.5	7585.7	
471.69	9508.7	
471.89	9086.8	
472.09	8525.7	
472.29	8385.1	
472.49	8772.8	
472.69	8742.1	
472.89	9704.6	
473.09	7520.8	
473.29	7576.8	
473.49	8987.9	
473.69	9089.6	
473.89	8558.5	
474.09	7763.8	
474.29	10449	
474.49	10056	
474.69	8512	
474.89	7902.4	
475.09	9141.4	
475.29	9090.9	
475.49	7357.7	
475.69	7546.8	
475.88	10600	
476.08	9351	
476.28	7275.8	
476.48	7655.3	
476.68	9754.5	
476.88	9643.9	
477.08	7490.1	
477.28	7864.9	
477.48	9099.1	
477.68	9760.6	
477.88	7332.4	
478.08	7745.4	
478.28	10159	
478.48	9260.2	
478.67	7809.6	
478.87	7220.5	
479.07	9867.8	
479.27	9303.2	
479.47	7996.6	
479.67	8010.3	
479.87	9728.5	
480.07	10333	
480.27	7221.8	
480.47	8851.3	
480.67	9431.6	
480.87	10056	
481.06	7511.3	
481.26	8360.5	
481.46	9461.6	
481.66	9282.8	
481.86	8036.9	
482.06	8936	
482.26	9107.3	
482.46	9891	
482.66	7882.6	
482.86	7524.9	
483.05	9519.6	
483.25	8908	
483.45	10447	
483.65	7936.6	
483.85	9153.1	
484.05	9380.4	
484.25	8450.6	
484.45	8907.3	
484.65	10278	
484.84	10309	
485.04	7935.9	
485.24	7947.5	
485.44	10524	
485.64	8888.9	
485.84	7210.9	
486.04	8652	
486.24	9246.6	
486.44	9672.6	
486.63	7210.2	
486.83	8019.8	
487.03	9161.2	
487.23	9512.1	
487.43	7311.2	
487.63	9716.9	
487.83	9485.5	
488.02	10480	
488.22	8378.9	
488.42	9074.5	
488.62	10312	
488.82	9295	
489.02	8027.4	
489.22	8046.5	
489.41	10150	
489.61	9863	
489.81	7723.6	
490.01	7831.4	
490.21	10091	
490.41	10826	
490.61	7746.1	
490.8	7901.7	
491	9693.7	
491.2	8981	
491.4	8452.6	
491.6	7548.1	
491.8	9551.7	
491.99	9792.7	
492.19	7417.7	
492.39	7793.2	
492.59	10187	
492.79	10312	
492.99	8715.5	
493.18	7866.2	
493.38	10404	
493.58	11202	
493.78	8636.3	
493.98	8118.8	
494.18	10043	
494.37	9571.5	
494.57	8936	
494.77	8665.6	
494.97	10421	
495.17	10720	
495.37	8401.5	
495.56	8630.1	
495.76	10941	
495.96	10596	
496.16	9551.7	
496.36	8622.6	
496.55	10767	
496.75	10307	
496.95	8854.7	
497.15	8797.4	
497.35	10699	
497.54	10717	
497.74	8579.6	
497.94	10331	
498.14	11467	
498.34	11273	
498.53	8346.8	
498.73	9132.6	
498.93	10129	
499.13	10791	
499.33	9004.9	
499.52	9590.6	
499.72	10819	
499.92	11121	
500.12	8673.8	
500.32	8918.9	
500.51	11002	
500.71	10795	
500.91	9686.2	
501.11	9337.4	
501.31	10866	
501.5	11431	
501.7	9995.5	
501.9	8901.8	
502.1	10700	
502.29	11028	
502.49	9525.8	
502.69	9910.1	
502.89	10944	
503.09	10944	
503.28	8344.1	
503.48	8651.3	
503.68	10155	
503.88	10216	
504.07	9587.9	
504.27	8968.7	
504.47	10552	
504.67	10733	
504.86	9441.8	
505.06	9113.5	
505.26	10215	
505.46	12016	
505.65	8971.5	
505.85	9185.1	
506.05	10018	
506.25	10587	
506.44	8305.9	
506.64	9159.2	
506.84	9977.7	
507.04	10976	
507.23	8415.8	
507.43	9052	
507.63	11955	
507.83	10168	
508.02	9067	
508.22	8656.1	
508.42	12279	
508.62	9954.5	
508.81	8964	
509.01	9544.2	
509.21	9891	
509.4	10115	
509.6	9175.6	
509.8	8592.6	
510	10234	
510.19	11631	
510.39	8530.5	
510.59	8654	
510.79	10066	
510.98	11482	
511.18	8673.8	
511.38	8701.8	
511.57	10841	
511.77	10694	
511.97	9408.4	
512.17	8292.2	
512.36	10756	
512.56	10797	
512.76	8405.5	
512.95	8266.3	
513.15	10884	
513.35	9487.6	
513.55	9346.2	
513.74	8513.4	
513.94	10828	
514.14	10205	
514.33	9496.4	
514.53	9228.8	
514.73	10201	
514.92	10394	
515.12	8643.1	
515.32	8531.2	
515.51	10432	
515.71	11142	
515.91	10294	
516.11	8576.2	
516.3	12124	
516.5	10053	
516.7	9099.8	
516.89	9743.6	
517.09	10180	
517.29	10049	
517.48	9439.1	
517.68	8823.3	
517.88	9851.4	
518.07	10596	
518.27	9276.6	
518.47	8458.1	
518.66	11095	
518.86	9655.5	
519.06	8265.6	
519.25	8700.5	
519.45	10081	
519.65	11618	
519.84	9332.6	
520.04	10053	
520.24	11980	
520.43	10689	
520.63	8909.3	
520.83	8893	
521.02	9920.4	
521.22	10582	
521.42	9176.9	
521.61	9836.4	
521.81	10088	
522.01	10439	
522.2	9128.5	
522.4	8955.8	
522.6	10932	
522.79	9636.4	
522.99	9058.8	
523.18	8351.6	
523.38	10712	
523.58	10723	
523.77	10412	
523.97	8477.2	
524.17	12681	
524.36	11717	
524.56	9798.8	
524.76	9420.7	
524.95	10710	
525.15	10356	
525.34	9334.6	
525.54	9353.8	
525.74	11198	
525.93	10122	
526.13	10532	
526.33	9379.7	
526.52	11566	
526.72	11036	
526.91	10636	
527.11	9889.6	
527.31	11643	
527.5	11996	
527.7	9777.7	
527.89	8821.3	
528.09	10603	
528.29	11189	
528.48	10217	
528.68	9880.1	
528.87	11484	
529.07	11651	
529.27	9682.1	
529.46	9263	
529.66	11100	
529.85	11525	
530.05	9029.5	
530.25	9920.4	
530.44	12497	
530.64	10996	
530.83	9544.9	
531.03	9831.6	
531.23	11504	
531.42	11482	
531.62	10656	
531.81	9785.9	
532.01	11833	
532.21	12150	
532.4	9716.9	
532.6	9990	
532.79	12816	
532.99	11940	
533.18	10081	
533.38	11068	
533.58	11498	
533.77	12216	
533.97	10157	
534.16	10933	
534.36	12431	
534.55	11526	
534.75	11265	
534.95	10230	
535.14	12330	
535.34	11564	
535.53	9830.9	
535.73	11681	
535.92	12859	
536.12	11625	
536.31	9848	
536.51	11121	
536.71	11923	
536.9	11516	
537.1	9884.9	
537.29	10119	
537.49	12452	
537.68	11414	
537.88	10588	
538.07	9775.6	
538.27	11669	
538.46	12837	
538.66	9581.8	
538.86	10105	
539.05	11811	
539.25	12252	
539.44	10472	
539.64	9952.4	
539.83	11570	
540.03	12490	
540.22	9835	
540.42	9859.6	
540.61	11814	
540.81	11824	
541	10412	
541.2	10976	
541.39	11344	
541.59	11659	
541.78	10754	
541.98	9862.3	
542.18	11014	
542.37	10974	
542.57	10101	
542.76	10738	
542.96	10931	
543.15	11681	
543.35	10131	
543.54	9401.5	
543.74	11902	
543.93	11521	
544.13	10056	
544.32	11220	
544.52	11746	
544.71	11052	
544.91	9118.2	
545.1	10398	
545.3	11073	
545.49	11686	
545.69	9138.7	
545.88	9729.9	
546.08	12638	
546.27	12213	
546.47	10188	
546.66	9476.6	
546.86	11964	
547.05	12501	
547.24	9789.3	
547.44	9581.8	
547.63	10749	
547.83	11943	
548.02	9987.3	
548.22	10101	
548.41	10614	
548.61	12039	
548.8	9468.4	
549	9389.9	
549.19	11265	
549.39	11583	
549.58	9084.8	
549.78	9652.8	
549.97	11602	
550.17	11252	
550.36	10557	
550.55	11576	
550.75	11102	
550.94	11914	
551.14	9276.6	
551.33	9640.5	
551.53	10533	
551.72	11441	
551.92	9680.1	
552.11	9478	
552.31	11521	
552.5	11513	
552.69	11157	
552.89	9023.4	
553.08	11421	
553.28	11101	
553.47	9527.2	
553.67	10670	
553.86	12002	
554.06	10341	
554.25	8626	
554.44	9251.4	
554.64	12826	
554.83	12278	
555.03	9160.6	
555.22	9576.3	
555.42	11570	
555.61	11185	
555.8	9368.1	
556	9656.9	
556.19	10369	
556.39	11738	
556.58	9454.1	
556.78	9421.3	
556.97	11268	
557.16	10903	
557.36	10616	
557.55	9054.8	
557.75	10000	
557.94	11935	
558.13	9140.1	
558.33	8892.3	
558.52	11744	
558.72	10553	
558.91	9017.9	
559.1	9304.6	
559.3	10302	
559.49	9874.6	
559.69	8576.2	
559.88	9521	
560.07	11061	
560.27	11464	
560.46	9772.2	
560.66	9772.2	
560.85	10875	
561.04	9904.7	
561.24	8975.6	
561.43	9067.7	
561.63	10352	
561.82	10564	
562.01	10383	
562.21	9301.9	
562.4	11009	
562.59	11966	
562.79	9355.8	
562.98	8975.6	
563.18	10991	
563.37	12492	
563.56	9933.3	
563.76	8916.2	
563.95	10467	
564.14	10402	
564.34	9344.2	
564.53	9104.6	
564.73	10974	
564.92	11336	
565.11	9506.7	
565.31	8951.7	
565.5	11717	
565.69	10527	
565.89	9123.7	
566.08	9328.5	
566.27	11491	
566.47	11949	
566.66	9999.5	
566.85	8718.2	
567.05	10948	
567.24	10406	
567.44	9104.6	
567.63	10490	
567.82	11292	
568.02	11049	
568.21	9105.3	
568.4	9548.3	
568.6	10915	
568.79	10904	
568.98	8873.2	
569.18	9110	
569.37	10862	
569.56	12983	
569.76	9475.3	
569.95	10391	
570.14	11324	
570.34	11202	
570.53	9021.3	
570.72	8895.7	
570.91	11815	
571.11	10957	
571.3	9440.5	
571.49	10446	
571.69	10933	
571.88	10512	
572.07	10034	
572.27	10153	
572.46	10556	
572.65	11607	
572.85	9252.7	
573.04	9551.7	
573.23	11886	
573.43	10962	
573.62	8976.2	
573.81	9754.5	
574	11168	
574.2	11016	
574.39	9420	
574.58	9665.7	
574.78	12045	
574.97	11395	
575.16	10006	
575.36	10223	
575.55	11580	
575.74	11879	
575.93	9114.8	
576.13	10247	
576.32	11041	
576.51	11618	
576.71	9556.5	
576.9	10978	
577.09	12013	
577.28	11479	
577.48	10006	
577.67	9037.7	
577.86	11155	
578.05	11624	
578.25	9700.5	
578.44	9926.5	
578.63	11305	
578.83	12562	
579.02	9135.3	
579.21	10728	
579.4	11512	
579.6	11191	
579.79	9943.6	
579.98	11995	
580.17	11855	
580.37	11940	
580.56	9368.1	
580.75	10172	
580.94	12434	
581.14	12219	
581.33	10631	
581.52	9647.3	
581.71	11789	
581.91	12529	
582.1	9286.9	
582.29	9768.8	
582.48	11408	
582.68	11326	
582.87	10300	
583.06	9916.9	
583.25	11633	
583.45	11275	
583.64	10650	
583.83	11339	
584.02	11197	
584.21	11623	
584.41	10548	
584.6	9917.6	
584.79	11367	
584.98	12194	
585.18	9327.8	
585.37	9331.2	
585.56	10898	
585.75	11795	
585.94	9543.5	
586.14	10311	
586.33	12168	
586.52	11325	
586.71	9985.2	
586.91	9727.2	
587.1	10634	
587.29	11699	
587.48	9546.3	
587.67	9513.5	
587.87	11516	
588.06	11622	
588.25	10864	
588.44	10062	
588.63	11068	
588.83	11723	
589.02	9417.2	
589.21	9295.7	
589.4	10770	
589.59	10626	
589.78	8467.7	
589.98	8817.2	
590.17	10086	
590.36	10723	
590.55	7965.9	
590.74	8850	
590.94	12100	
591.13	10662	
591.32	8738	
591.51	8316.1	
591.7	11090	
591.89	10640	
592.09	8426.7	
592.28	8846.5	
592.47	9855.5	
592.66	11809	
592.85	8497.7	
593.05	8625.4	
593.24	10454	
593.43	11124	
593.62	8681.3	
593.81	9170.1	
594	10447	
594.19	10684	
594.39	8574.2	
594.58	8609	
594.77	10773	
594.96	11372	
595.15	8476.5	
595.34	9074.5	
595.54	10793	
595.73	9820	
595.92	7815	
596.11	8971.5	
596.3	11308	
596.49	9964.1	
596.68	8689.5	
596.88	9220.6	
597.07	11015	
597.26	9846	
597.45	8211	
597.64	9584.5	
597.83	10110	
598.02	10584	
598.22	8385.7	
598.41	8989.2	
598.6	10414	
598.79	9874.6	
598.98	8379.6	
599.17	9327.8	
599.36	10461	
599.55	11595	
599.74	10411	
599.94	10180	
600.13	10916	
600.32	9681.4	
600.51	8120.2	
600.7	8260.8	
600.89	11626	
601.08	11654	
601.27	8019.8	
601.47	8995.4	
601.66	10847	
601.85	11462	
602.04	8686.1	
602.23	8805.6	
602.42	9853.5	
602.61	10522	
602.8	8573.5	
602.99	8387.1	
603.18	10221	
603.37	10509	
603.57	8987.2	
603.76	9562.6	
603.95	11233	
604.14	10790	
604.33	8507.9	
604.52	8764.6	
604.71	10411	
604.9	10038	
605.09	9377	
605.28	9183.8	
605.47	10945	
605.66	10709	
605.86	9073.2	
606.05	8421.9	
606.24	11044	
606.43	9501.2	
606.62	8744.1	
606.81	9492.3	
607	10872	
607.19	10111	
607.38	8093.6	
607.57	8320.2	
607.76	9941.5	
607.95	9458.9	
608.14	8812.4	
608.33	9467.8	
608.52	9953.8	
608.72	10749	
608.91	8058.8	
609.1	7899	
609.29	9978.4	
609.48	9446.6	
609.67	9023.4	
609.86	7984.3	
610.05	9506	
610.24	9966.8	
610.43	7845.8	
610.62	7450.5	
610.81	11052	
611	10828	
611.19	7936.6	
611.38	8753	
611.57	10241	
611.76	11548	
611.95	7750.9	
612.14	7652.6	
612.33	9966.8	
612.52	9507.4	
612.71	8291.5	
612.9	7481.9	
613.09	9176.3	
613.28	11362	
613.47	8024.6	
613.66	9001.5	
613.85	10188	
614.04	9654.1	
614.24	8137.9	
614.43	7328.3	
614.62	10321	
614.81	10202	
615	8657.4	
615.19	8726.4	
615.38	9476.6	
615.57	9959.3	
615.76	8523	
615.95	9411.1	
616.14	10271	
616.33	9887.6	
616.52	8838.4	
616.71	9084.8	
616.9	10279	
617.09	10076	
617.28	8262.2	
617.47	9492.3	
617.66	9333.3	
617.85	9407.7	
618.04	9171.5	
618.22	8708	
618.41	9699.2	
618.6	10601	
618.79	8662.9	
618.98	8210.3	
619.17	11006	
619.36	9246.6	
619.55	8382.3	
619.74	8374.8	
619.93	10294	
620.12	9656.9	
620.31	8985.1	
620.5	9264.3	
620.69	11247	
620.88	11295	
621.07	9951.1	
621.26	8826.1	
621.45	10511	
621.64	10550	
621.83	9118.2	
622.02	8122.9	
622.21	10598	
622.4	10391	
622.59	9701.9	
622.78	9335.3	
622.97	9972.9	
623.16	10918	
623.35	8942.8	
623.54	8105.9	
623.72	10113	
623.91	10211	
624.1	9270.5	
624.29	7874.4	
624.48	11424	
624.67	10529	
624.86	9323.7	
625.05	8251.3	
625.24	11440	
625.43	9785.2	
625.62	10862	
625.81	8533.2	
626	10875	
626.19	10204	
626.38	9260.2	
626.56	8664.3	
626.75	10018	
626.94	10785	
627.13	9155.8	
627.32	7948.8	
627.51	10562	
627.7	11966	
627.89	8064.9	
628.08	9217.2	
628.27	9841.9	
628.46	10053	
628.65	8422.6	
628.83	8060.8	
629.02	10634	
629.21	9895.8	
629.4	8809	
629.59	9113.5	
629.78	9804.3	
629.97	10792	
630.16	9039.7	
630.35	8681.3	
630.54	11249	
630.72	11001	
630.91	8500.4	
631.1	9092.3	
631.29	10466	
631.48	10585	
631.67	9141.4	
631.86	8643.1	
632.05	10096	
632.24	10042	
632.42	8312.7	
632.61	8974.2	
632.8	10175	
632.99	9858.2	
633.18	8842.4	
633.37	9219.3	
633.56	10395	
633.75	10214	
633.93	8910.7	
634.12	8585.1	
634.31	11139	
634.5	10870	
634.69	8616.5	
634.88	8998.8	
635.07	10206	
635.25	10806	
635.44	9541.5	
635.63	9660.3	
635.82	9975.7	
636.01	9511.4	
636.2	9458.2	
636.39	8925.7	
636.57	11088	
636.76	10817	
636.95	8363.9	
637.14	9767.4	
637.33	10460	
637.52	11529	
637.7	8111.3	
637.89	9072.5	
638.08	9982.5	
638.27	11353	
638.46	9129.2	
638.65	9648	
638.83	11381	
639.02	9820.7	
639.21	9074.5	
639.4	9552.4	
639.59	10333	
639.78	9824.8	
639.96	8372.8	
640.15	8320.2	
640.34	10109	
640.53	10221	
640.72	7991.2	
640.91	8335.9	
641.09	9465	
641.28	10895	
641.47	8198.7	
641.66	9177.6	
641.85	10170	
642.03	10378	
642.22	8944.2	
642.41	8458.8	
642.6	9602.9	
642.79	8904.6	
642.97	8136.6	
643.16	8845.2	
643.35	9562.6	
643.54	9336.7	
643.73	7991.2	
643.91	8803.5	
644.1	9161.9	
644.29	9807	
644.48	8043.1	
644.67	8131.1	
644.85	9291	
645.04	9548.3	
645.23	7621.2	
645.42	7904.5	
645.6	9110.7	
645.79	10324	
645.98	7830.7	
646.17	6870.9	
646.36	8918.9	
646.54	9445.9	
646.73	8593.3	
646.92	7458	
647.11	9068.4	
647.29	10169	
647.48	7497.6	
647.67	7198.6	
647.86	10392	
648.05	10371	
648.23	7842.4	
648.42	9116.9	
648.61	9663	
648.8	9364.7	
648.98	7380.2	
649.17	7825.3	
649.36	8961.9	
649.55	8558.5	
649.73	7499.7	
649.92	8325	
650.11	8893.6	
650.3	9213.8	
650.48	7615.7	
650.67	7340.6	
650.86	9437.7	
651.05	8349.6	
651.23	7450.5	
651.42	7503.1	
651.61	8855.4	
651.79	9061.6	
651.98	7778.9	
652.17	7303.7	
652.36	9324.4	
652.54	8375.5	
652.73	7334.5	
652.92	7120.8	
653.11	9247.9	
653.29	9415.2	
653.48	6540.5	
653.67	7568.6	
653.85	9079.3	
654.04	10051	
654.23	7720.8	
654.42	7206.8	
654.6	8542.8	
654.79	9079.3	
654.98	6657.9	
655.16	7083.2	
655.35	8112	
655.54	7944.1	
655.73	6652.5	
655.91	6614.9	
656.1	9247.3	
656.29	8007.6	
656.47	6337.8	
656.66	8076.5	
656.85	8343.4	
657.03	8301.1	
657.22	6908.5	
657.41	7052.5	
657.59	8441	
657.78	8204.8	
657.97	6716	
658.16	7281.2	
658.34	9107.3	
658.53	9367.4	
658.72	8198.7	
658.9	8774.2	
659.09	8506.6	
659.28	8651.3	
659.46	7019.8	
659.65	7056.6	
659.84	8331.1	
660.02	8845.9	
660.21	6886	
660.4	6888.7	
660.58	9320.3	
660.77	8637.6	
660.96	7504.4	
661.14	6504.3	
661.33	9821.4	
661.52	9676	
661.7	6417	
661.89	10075	
662.08	8234.2	
662.26	7807.5	
662.45	6729.6	
662.64	6842.3	
662.82	8957.8	
663.01	8267.6	
663.2	6848.4	
663.38	7623.9	
663.57	8838.4	
663.75	8655.4	
663.94	7202.7	
664.13	8446.5	
664.31	8161.8	
664.5	8900.5	
664.69	7370.6	
664.87	8025.3	
665.06	7912.7	
665.25	8636.3	
665.43	8206.9	
665.62	8234.9	
665.8	9047.2	
665.99	8348.9	
666.18	7081.9	
666.36	7222.5	
666.55	9004.2	
666.74	8954.4	
666.92	6719.4	
667.11	8411	
667.29	8260.1	
667.48	8940.7	
667.67	8034.2	
667.85	6989.7	
668.04	8288.8	
668.22	8236.9	
668.41	7153.6	
668.6	7303.1	
668.78	8189.8	
668.97	8338	
669.15	7539.3	
669.34	6503.7	
669.53	8106.5	
669.71	8414.4	
669.9	6718.7	
670.08	7293.5	
670.27	8033.5	
670.46	8658.1	
670.64	7458	
670.83	7723.6	
671.01	8028	
671.2	8560.5	
671.38	6716	
671.57	6642.2	
671.76	9288.2	
671.94	9830.9	
672.13	6543.9	
672.31	7614.3	
672.5	8845.9	
672.69	8103.1	
672.87	6778.8	
673.06	7059.3	
673.24	8550.3	
673.43	8102.4	
673.61	7443.7	
673.8	7045.7	
673.98	8792.6	
674.17	8967.4	
674.36	7615.7	
674.54	7473.7	
674.73	8549.6	
674.91	8777.6	
675.1	7105.8	
675.28	6830.7	
675.47	8331.1	
675.65	8869.8	
675.84	6984.3	
676.03	7406.1	
676.21	8058.1	
676.4	7680.6	
676.58	7854.6	
676.77	7576.1	
676.95	9498.5	
677.14	8011.7	
677.32	6729.6	
677.51	6522.1	
677.69	8815.8	
677.88	7726.3	
678.06	6562.4	
678.25	6664.8	
678.44	8322.9	
678.62	8084	
678.81	6355.5	
678.99	7317.4	
679.18	9151.7	
679.36	8738.7	
679.55	6992.4	
679.73	7521.5	
679.92	8690.9	
680.1	8088.1	
680.29	8230.1	
680.47	6954.2	
680.66	8047.2	
680.84	8842.4	
681.03	6254.5	
681.21	7321.5	
681.4	8049.9	
681.58	7856	
681.77	6679.1	
681.95	6619	
682.14	8953.7	
682.32	9226.8	
682.51	7617.8	
682.69	6419	
682.88	8016.4	
683.06	8638.3	
683.25	7195.2	
683.43	7717.4	
683.62	8268.3	
683.8	8671.1	
683.99	7877.9	
684.17	7042.3	
684.36	9457.5	
684.54	8085.4	
684.73	6210.8	
684.91	6386.2	
685.1	8332.5	
685.28	7733.1	
685.46	6906.4	
685.65	6980.2	
685.83	8673.8	
686.02	7936.6	
686.2	6520.7	
686.39	6649.1	
686.57	7649.2	
686.76	9275.9	
686.94	6494.1	
687.13	6741.9	
687.31	8503.8	
687.5	8008.9	
687.68	6096.8	
687.86	7443	
688.05	9788.6	
688.23	7501	
688.42	7440.3	
688.6	6591.7	
688.79	7943.4	
688.97	7897	
689.16	7048.4	
689.34	5954.1	
689.52	8748.2	
689.71	8874.5	
689.89	7339.2	
690.08	6523.5	
690.26	8221.2	
690.45	8051.2	
690.63	7559.7	
690.81	6766.5	
691	7837.6	
691.18	7895.6	
691.37	6791.1	
691.55	9104.6	
691.74	7835.5	
691.92	9846.6	
692.1	6820.4	
692.29	6339.1	
692.47	8064.2	
692.66	7382.9	
692.84	6511.2	
693.02	7074.4	
693.21	7485.3	
693.39	8102.4	
693.58	7219.8	
693.76	6530.3	
693.94	9202.9	
694.13	9078	
694.31	6685.3	
694.5	7701.7	
694.68	7893.6	
694.86	8277.2	
695.05	6974	
695.23	7466.2	
695.42	8600.8	
695.6	10886	
695.78	7565.2	
695.97	6617.7	
696.15	8677.9	
696.34	7932.5	
696.52	6372.6	
696.7	7247.8	
696.89	8331.8	
697.07	7735.2	
697.25	7126.2	
697.44	8697	
697.62	8321.6	
697.81	8634.2	
697.99	6858	
698.17	7371.3	
698.36	7649.2	
698.54	8343.4	
698.72	7202.7	
698.91	6191	
699.09	7895.6	
699.28	7785.7	
699.46	6869.6	
699.64	6648.4	
699.83	7673.7	
700.01	8899.1	
700.19	7440.3	
700.38	5911.1	
700.56	8985.1	
700.74	7814.4	
700.93	6352.1	
701.11	7191.1	
701.29	8452	
701.48	9531.9	
701.66	6583.5	
701.84	6556.2	
702.03	7908.6	
702.21	8554.4	
702.39	6089.3	
702.58	6827.2	
702.76	8325.7	
702.94	8439	
703.13	6192.4	
703.31	8722.3	
703.49	7609.6	
703.68	8597.4	
703.86	6367.1	
704.04	7328.3	
704.23	8083.3	
704.41	8580.3	
704.59	6488	
704.78	7830.1	
704.96	9188.6	
705.14	8611.7	
705.33	6422.4	
705.51	7180.2	
705.69	8062.2	
705.87	8822	
706.06	7451.9	
706.24	6253.8	
706.42	8228.1	
706.61	8593.3	
706.79	7443	
706.97	6270.2	
707.16	7753.6	
707.34	8310	
707.52	7358.4	
707.7	6451.8	
707.89	7825.3	
708.07	7559.1	
708.25	7315.3	
708.44	7496.9	
708.62	7875.8	
708.8	8869.1	
708.98	7615	
709.17	6553.5	
709.35	8273.8	
709.53	8225.3	
709.72	6251.8	
709.9	6720.1	
710.08	8398.7	
710.26	8436.9	
710.45	7884	
710.63	6580.1	
710.81	8078.6	
710.99	8156.4	
711.18	7318.8	
711.36	6675.7	
711.54	7869.7	
711.72	8678.6	
711.91	6738.5	
712.09	6172.6	
712.27	8102.4	
712.45	9119.6	
712.64	6919.4	
712.82	5953.4	
713	7404.8	
713.18	7546.8	
713.37	6025.1	
713.55	7258	
713.73	8413.7	
713.91	6966.5	
714.1	6334.4	
714.28	5717.9	
714.46	7991.2	
714.64	7123.5	
714.83	5221	
715.01	5994.4	
715.19	7236.2	
715.37	6628.6	
715.55	5649.7	
715.74	5922.7	
715.92	8127	
716.1	6073.6	
716.28	7098.9	
716.47	6093.4	
716.65	6791.1	
716.83	6936.5	
717.01	6031.3	
717.19	6025.8	
717.38	9009	
717.56	6653.9	
717.74	6375.3	
717.92	5356.8	
718.1	7847.1	
718.29	7157.7	
718.47	5068	
718.65	5765.7	
718.83	7786.4	
719.01	7749.5	
719.2	4915.8	
719.38	6126.2	
719.56	7440.3	
719.74	9009	
719.92	5641.5	
720.11	6688.7	
720.29	7421.2	
720.47	6494.1	
720.65	5141.1	
720.83	5997.1	
721.02	6868.2	
721.2	6587	
721.38	6145.3	
721.56	5247.6	
721.74	6232	
721.92	6303.6	
722.11	6509.1	
722.29	6314.6	
722.47	7686	
722.65	6747.4	
722.83	5283.1	
723.01	6268.1	
723.2	6830	
723.38	7060.7	
723.56	4681	
723.74	5964.4	
723.92	6376.7	
724.1	7535.2	
724.29	5214.1	
724.47	6379.4	
724.65	6353.5	
724.83	6358.9	
725.01	5102.9	
725.19	6043.6	
725.37	6433.4	
725.56	6475.7	
725.74	4954	
725.92	5212.1	
726.1	6257.9	
726.28	6576	
726.46	5606	
726.64	5418.9	
726.83	6532.3	
727.01	6797.2	
727.19	4918.5	
727.37	5793	
727.55	6756.9	
727.73	7227.3	
727.91	4954.7	
728.09	4764.9	
728.28	7264.8	
728.46	7864.2	
728.64	5915.2	
728.82	5855.8	
729	8446.5	
729.18	7688.8	
729.36	5129.5	
729.54	7439.6	
729.72	8584.4	
729.91	6909.2	
730.09	7086.7	
730.27	5797.1	
730.45	6805.4	
730.63	7497.6	
730.81	6453.1	
730.99	5489.9	
731.17	8045.1	
731.35	6552.8	
731.53	5980.1	
731.71	5597.8	
731.9	7608.9	
732.08	7888.8	
732.26	5822.4	
732.44	5550.7	
732.62	7896.3	
732.8	7438.9	
732.98	6290	
733.16	5311.7	
733.34	7403.4	
733.52	6195.1	
733.7	5887.2	
733.88	6085.9	
734.07	7353.6	
734.25	7009.5	
734.43	5232.6	
734.61	6845.7	
734.79	8538.7	
734.97	6907.8	
735.15	5387.5	
735.33	5759.6	
735.51	7362.4	
735.69	6938.5	
735.87	7214.3	
736.05	6011.5	
736.23	7111.9	
736.41	6894.8	
736.59	5816.2	
736.77	5944.6	
736.95	7629.4	
737.13	6991.1	
737.32	5414.8	
737.5	5666.7	
737.68	8082	
737.86	6844.3	
738.04	5225.7	
738.22	7175.4	
738.4	6633.4	
738.58	6963.8	
738.76	5940.5	
738.94	4820.9	
739.12	6790.4	
739.3	6718.7	
739.48	6463.4	
739.66	6282.5	
739.84	7091.4	
740.02	7039.6	
740.2	4954.7	
740.38	5336.3	
740.56	7428.7	
740.74	6249.7	
740.92	6023.1	
741.1	5909.8	
741.28	6895.5	
741.46	6727.6	
741.64	5534.3	
741.82	6032	
742	7003.4	
742.18	6830.7	
742.36	5735	
742.54	5257.8	
742.72	7488.7	
742.9	6178.7	
743.08	6135	
743.26	4925.4	
743.44	7574.8	
743.62	7432.1	
743.8	6249.7	
743.98	5375.2	
744.16	7249.1	
744.34	6873	
744.52	6175.3	
744.7	6150.7	
744.88	7382.2	
745.06	6790.4	
745.24	6231.3	
745.42	6269.5	
745.6	7404.8	
745.78	7165.8	
745.96	5008.6	
746.14	5279.7	
746.32	8224.6	
746.5	7419.8	
746.68	5915.9	
746.86	5341.8	
747.03	7908.6	
747.21	6129.6	
747.39	5872.2	
747.57	5313.8	
747.75	6989.7	
747.93	7463.5	
748.11	5384.1	
748.29	5272.2	
748.47	8656.1	
748.65	6769.9	
748.83	6094.1	
749.01	5768.4	
749.19	7281.9	
749.37	6380.1	
749.55	5688.6	
749.73	5794.4	
749.91	6916.7	
750.09	6602	
750.26	5777.3	
750.44	5171.1	
750.62	6854.6	
750.8	6941.9	
750.98	5005.2	
751.16	5359.5	
751.34	6978.1	
751.52	6301.6	
751.7	6165.1	
751.88	4977.2	
752.06	7547.4	
752.24	7333.8	
752.42	4962.2	
752.59	5279.7	
752.77	6892.8	
752.95	8188.5	
753.13	6101.6	
753.31	5499.5	
753.49	6573.3	
753.67	7012.2	
753.85	5752.7	
754.03	5376.6	
754.21	7246.4	
754.38	7652.6	
754.56	5426.4	
754.74	4499.4	
754.92	6496.2	
755.1	7169.3	
755.28	4528.7	
755.46	4434.5	
755.64	7774.8	
755.82	7870.3	
755.99	4585.4	
756.17	4690.5	
756.35	5218.2	
756.53	6774	
756.71	3456.3	
756.89	4456.4	
757.07	6380.1	
757.25	5444.2	
757.42	5073.5	
757.6	5992.4	
757.78	6524.1	
757.96	5584.1	
758.14	4841.4	
758.32	4316.4	
758.5	5084.4	
758.67	5899.5	
758.85	4607.2	
759.03	4786.8	
759.21	6100.9	
759.39	5556.1	
759.57	4145.8	
759.75	5319.3	
759.92	6759.7	
760.1	6008.7	
760.28	5857.2	
760.46	6006	
760.64	5859.9	
760.82	5565	
760.99	5598.5	
761.17	4813.4	
761.35	6716	
761.53	5696.8	
761.71	4914.4	
761.89	5700.9	
762.06	6636.1	
762.24	6128.2	
762.42	5063.9	
762.6	4795.7	
762.78	6152.1	
762.96	6831.3	
763.13	5472.2	
763.31	5143.8	
763.49	7003.4	
763.67	6097.5	
763.85	6010.1	
764.02	6668.2	
764.2	7232.1	
764.38	6423.1	
764.56	5023	
764.74	5907	
764.91	7417.1	
765.09	6221	
765.27	4743.1	
765.45	4494.6	
765.63	7415	
765.8	7262.1	
765.98	4214	
766.16	4585.4	
766.34	5713.2	
766.52	5566.4	
766.69	5449.6	
766.87	4312.3	
767.05	6219	
767.23	6996.5	
767.41	4677.6	
767.58	4952.7	
767.76	6710.5	
767.94	6788.3	
768.12	4790.2	
768.29	5505.6	
768.47	6247	
768.65	6989	
768.83	4430.4	
769	5583.4	
769.18	5768.4	
769.36	6526.9	
769.54	5530.9	
769.72	4366.3	
769.89	6758.3	
770.07	6856.6	
770.25	4699.4	
770.43	5946.6	
770.6	7532.4	
770.78	7961.1	
770.96	4889.2	
771.14	5542.5	
771.31	6664.8	
771.49	5984.8	
771.67	4007.9	
771.85	4275.5	
772.02	5170.4	
772.2	5942.5	
772.38	5007.3	
772.55	4524	
772.73	6254.5	
772.91	5984.2	
773.09	4926.7	
773.26	4937	
773.44	6186.2	
773.62	5715.9	
773.8	4331.5	
773.97	4067.3	
774.15	6201.2	
774.33	5802.6	
774.5	4237.9	
774.68	4601.1	
774.86	6406.7	
775.04	5885.9	
775.21	4273.4	
775.39	4285	
775.57	6143.2	
775.74	6477	
775.92	4126	
776.1	4025.6	
776.27	6051.1	
776.45	7318.1	
776.63	4271.4	
776.81	3857.7	
776.98	5704.3	
777.16	6821.1	
777.34	4418.2	
777.51	4744.5	
777.69	5694	
777.87	5474.2	
778.04	4446.8	
778.22	5108.3	
778.4	5482.4	
778.57	6205.3	
778.75	3700.7	
778.93	3969.6	
779.1	5245.5	
779.28	5089.2	
779.46	3692.5	
779.64	4186.7	
779.81	6291.4	
779.99	7232.1	
780.17	5027.8	
780.34	5180	
780.52	5712.5	
780.69	5951.4	
780.87	4465.9	
781.05	4051.6	
781.22	5700.2	
781.4	5806.7	
781.58	4207.2	
781.75	3366.9	
781.93	5801.2	
782.11	5159.5	
782.28	5088.5	
782.46	4154	
782.64	5018.9	
782.81	5970.5	
782.99	4302.1	
783.17	4221.5	
783.34	5918.6	
783.52	5031.9	
783.69	4483.7	
783.87	5281.7	
784.05	5119.2	
784.22	5140.4	
784.4	5222.3	
784.58	4481	
784.75	6082.5	
784.93	5161.6	
785.1	4099.4	
785.28	4853.7	
785.46	5835.3	
785.63	5184.1	
785.81	4182.6	
785.99	4010.6	
786.16	5289.9	
786.34	5652.4	
786.51	4003.8	
786.69	4393.6	
786.87	4882.4	
787.04	5430.5	
787.22	3829	
787.39	4812	
787.57	5111.7	
787.75	6268.8	
787.92	4995	
788.1	4987.5	
788.27	5096	
788.45	4898.7	
788.63	4671.4	
788.8	3316.3	
788.98	5539.8	
789.15	4823.6	
789.33	3478.1	
789.5	4171	
789.68	6090.7	
789.86	6191	
790.03	4584.7	
790.21	4029	
790.38	5997.8	
790.56	5257.8	
790.73	3876.1	
790.91	3892.5	
791.09	5111.7	
791.26	5909.8	
791.44	4102.1	
791.61	3536.8	
791.79	5110.4	
791.96	5155.4	
792.14	3669.3	
792.32	3198.2	
792.49	5118.6	
792.67	5191.6	
792.84	3762.1	
793.02	3538.9	
793.19	5579.3	
793.37	6301.6	
793.54	3238.5	
793.72	3591.5	
793.89	6391.7	
794.07	5102.9	
794.25	4271.4	
794.42	3310.9	
794.6	6241.5	
794.77	5815.5	
794.95	4539.7	
795.12	3875.4	
795.3	5056.4	
795.47	5665.4	
795.65	4261.1	
795.82	4196.3	
796	4949.9	
796.17	6931.7	
796.35	3997.6	
796.52	4721.9	
796.7	5652.4	
796.87	5765	
797.05	4898.1	
797.22	4917.9	
797.4	5677.7	
797.57	6735.8	
797.75	4127.3	
797.92	3879.5	
798.1	5994.4	
798.27	5038.7	
798.45	3345	
798.62	3615.3	
798.8	5421	
798.97	5917.9	
799.15	4371.7	
799.32	4154.6	
799.5	4619.5	
799.67	5406	
799.85	4511.7	
800.02	3176.4	
800.2	5018.2	
800.37	5315.8	
800.55	4627	
800.72	3891.8	
800.9	5803.3	
801.07	6296.8	
801.25	5238.7	
801.42	4285.7	
801.6	5910.4	
801.77	5594.4	
801.95	3949.8	
802.12	3810.6	
802.29	5609.4	
802.47	5607.3	
802.64	4207.2	
802.82	3141.6	
802.99	5014.8	
803.17	6056.5	
803.34	4107.5	
803.52	3716.4	
803.69	6797.9	
803.87	4818.9	
804.04	4133.5	
804.21	4172.4	
804.39	6128.9	
804.56	5248.3	
804.74	3505.4	
804.91	4255.7	
805.09	5040.1	
805.26	5181.4	
805.44	3537.5	
805.61	3923.9	
805.78	5709.1	
805.96	5813.5	
806.13	4270	
806.31	4611.3	
806.48	4592.2	
806.66	5134.9	
806.83	4240	
807	4175.8	
807.18	5068	
807.35	5492.7	
807.53	4096.6	
807.7	3291.8	
807.87	6280.4	
808.05	5043.5	
808.22	4614.1	
808.4	3274	
808.57	5106.3	
808.74	4752	
808.92	3763.5	
809.09	4762.2	
809.27	4916.5	
809.44	5606	
809.61	3320.4	
809.79	3698.6	
809.96	6266.8	
810.14	5822.4	
810.31	3239.9	
810.48	4014.7	
810.66	5201.2	
810.83	5968.5	
811.01	3735.5	
811.18	4252.9	
811.35	5921.4	
811.53	4491.2	
811.7	4648.9	
811.87	4243.4	
812.05	5048.2	
812.22	5053	
812.39	3661.1	
812.57	3509.5	
812.74	5126.1	
812.92	6855.2	
813.09	3985.3	
813.26	4298	
813.44	6498.9	
813.61	4950.6	
813.78	3345.7	
813.96	4408.6	
814.13	5131.5	
814.3	4744.5	
814.48	4844.1	
814.65	4020.8	
814.82	6331	
815	4861.2	
815.17	4044.1	
815.34	5007.3	
815.52	5029.1	
815.69	5062.6	
815.87	4019.5	
816.04	3490.4	
816.21	5107.6	
816.38	4493.2	
816.56	3850.9	
816.73	3643.3	
816.9	6445.6	
817.08	5792.3	
817.25	3706.1	
817.42	4722.6	
817.6	4659.8	
817.77	5135.6	
817.94	4140.3	
818.12	3680.2	
818.29	4840.7	
818.46	7569.3	
818.64	3839.9	
818.81	3583.3	
818.98	4746.5	
819.16	6976.7	
819.33	4403.8	
819.5	4111.6	
819.67	5442.8	
819.85	6161	
820.02	4011.3	
820.19	4278.2	
820.37	5343.8	
820.54	4840.7	
820.71	4136.9	
820.88	5113.1	
821.06	5393	
821.23	4857.8	
821.4	4251.6	
821.58	4128	
821.75	5825.1	
821.92	5255.8	
822.09	3294.5	
822.27	3455.6	
822.44	5119.2	
822.61	4990.9	
822.79	3351.8	
822.96	6410.8	
823.13	5547.3	
823.3	4786.8	
823.48	3892.5	
823.65	3517.7	
823.82	5818.3	
823.99	4633.2	
824.17	4977.9	
824.34	3588.7	
824.51	6699.6	
824.68	5149.3	
824.86	3758.7	
825.03	4154.6	
825.2	5113.8	
825.37	6189.6	
825.55	3633.8	
825.72	4073.4	
825.89	6759	
826.06	6279.8	
826.24	4003.1	
826.41	4057	
826.58	6225.1	
826.75	5354.8	
826.92	3164.1	
827.1	3474	
827.27	8525	
827.44	6767.9	
827.61	3780.6	
827.79	4614.1	
827.96	4836.6	
828.13	5221.6	
828.3	3953.9	
828.47	3339.6	
828.65	5382.7	
828.82	5268.7	
828.99	5142.4	
829.16	4539	
829.34	5728.9	
829.51	5433.3	
829.68	4093.9	
829.85	4274.1	
830.02	6010.1	
830.2	5704.3	
830.37	3171.6	
830.54	4934.2	
830.71	6550.1	
830.88	5115.8	
831.05	3210.5	
831.23	3689.1	
831.4	6265.4	
831.57	7048.4	
831.74	3715.7	
831.91	3348.4	
832.09	5279.7	
832.26	5724.1	
832.43	3947.8	
832.6	4420.2	
832.77	5329.5	
832.94	6128.9	
833.12	3131.3	
833.29	3891.1	
833.46	4942.4	
833.63	7237.5	
833.8	4309.6	
833.97	3947.8	
834.15	5684.5	
834.32	5506.3	
834.49	4119.8	
834.66	4222.2	
834.83	5900.2	
835	4828.4	
835.17	3792.2	
835.35	3855.6	
835.52	5614.8	
835.69	5508.4	
835.86	4005.8	
836.03	3290.4	
836.2	5687.9	
836.37	5283.8	
836.55	3919.8	
836.72	3712.3	
836.89	5260.5	
837.06	5758.2	
837.23	4001	
837.4	4354	
837.57	6528.9	
837.75	7213.6	
837.92	3601.7	
838.09	3839.3	
838.26	5264.6	
838.43	5950	
838.6	4134.2	
838.77	3673.4	
838.94	6926.2	
839.11	6582.2	
839.29	3945.1	
839.46	3108.8	
839.63	5735.7	
839.8	5403.9	
839.97	3861.8	
840.14	3803.8	
840.31	5434.6	
840.48	5716.6	
840.65	3143.6	
840.82	3898.6	
841	5704.3	
841.17	5707	
841.34	3514.3	
841.51	3566.2	
841.68	5570.5	
841.85	5319.3	
842.02	3644	
842.19	3011.9	
842.36	5430.5	
842.53	5380.7	
842.7	3497.9	
842.87	4282.3	
843.05	7152.2	
843.22	5401.9	
843.39	3368.2	
843.56	3609.9	
843.73	5156.8	
843.9	5703.6	
844.07	5684.5	
844.24	4743.1	
844.41	8428.8	
844.58	4917.9	
844.75	3371	
844.92	3673.4	
845.09	5661.3	
845.26	5683.1	
845.43	3461.7	
845.6	3691.1	
845.77	5695.4	
845.94	5406	
846.12	3867.9	
846.29	4106.2	
846.46	5858.6	
846.63	5648.3	
846.8	3487	
846.97	4160.8	
847.14	6143.9	
847.31	5625.8	
847.48	3972.4	
847.65	4383.3	
847.82	5967.8	
847.99	5915.9	
848.16	4673.5	
848.33	4275.5	
848.5	5201.8	
848.67	6154.8	
848.84	3394.8	
849.01	3665.2	
849.18	5074.9	
849.35	4771.8	
849.52	4360.1	
849.69	3447.4	
849.86	5842.2	
850.03	6067.4	
850.2	3506.8	
850.37	4267.3	
850.54	6080.4	
850.71	5335.6	
850.88	4252.3	
851.05	3452.9	
851.22	5552	
851.39	6240.2	
851.56	3289.7	
851.73	4035.2	
851.9	4997	
852.07	5918.6	
852.24	3837.2	
852.41	3447.4	
852.58	5567.7	
852.75	5010.7	
852.92	3900	
853.09	3379.1	
853.26	5238	
853.43	6128.9	
853.6	3476.8	
853.77	2983.9	
853.94	6227.9	
854.11	4949.9	
854.28	5203.9	
854.44	3767.6	
854.61	6729.6	
854.78	5986.9	
854.95	3458.3	
855.12	4371.7	
855.29	4540.3	
855.46	6553.5	
855.63	3481.5	
855.8	4851.6	
855.97	5240.8	
856.14	5960.3	
856.31	5005.2	
856.48	3793.5	
856.65	5231.9	
856.82	4965.6	
856.99	3333.4	
857.16	3727.3	
857.33	6968.6	
857.49	5307.7	
857.66	3778.5	
857.83	4061.1	
858	5250.3	
858.17	5550	
858.34	3298.6	
858.51	3501.3	
858.68	6356.2	
858.85	6363	
859.02	4076.8	
859.19	4334.2	
859.36	4972.5	
859.52	5044.1	
859.69	3545.7	
859.86	4152.6	
860.03	5070.1	
860.2	6295.5	
860.37	3097.2	
860.54	3549.8	
860.71	5898.8	
860.88	6300.9	
861.05	3879.5	
861.21	4455	
861.38	6374	
861.55	4830.5	
861.72	3195.5	
861.89	3905.5	
862.06	5950.7	
862.23	6475	
862.4	3392.1	
862.56	3630.4	
862.73	5784.1	
862.9	5471.5	
863.07	4118.5	
863.24	3139.5	
863.41	4837.3	
863.58	4984.8	
863.75	3573	
863.91	4012	
864.08	6337.8	
864.25	5859.2	
864.42	4456.4	
864.59	4912.4	
864.76	6590.4	
864.93	4981.3	
865.09	3351.8	
865.26	3746.4	
865.43	6178.7	
865.6	6531.7	
865.77	3051.5	
865.94	3462.4	
866.1	6163	
866.27	5939.8	
866.44	5247.6	
866.61	3366.9	
866.78	5339.1	
866.95	5781.4	
867.11	3365.5	
867.28	3091.8	
867.45	5974.6	
867.62	5011.4	
867.79	4009.9	
867.96	3476.1	
868.12	4991.6	
868.29	5997.1	
868.46	3017.3	
868.63	4644.1	
868.8	6146.6	
868.97	5840.1	
869.13	3602.4	
869.3	3682.9	
869.47	5792.3	
869.64	5943.2	
869.81	3479.5	
869.97	3545.7	
870.14	5696.8	
870.31	6298.9	
870.48	3488.4	
870.65	4412	
870.81	5257.1	
870.98	5259.9	
871.15	3962.1	
871.32	3636.5	
871.48	5734.3	
871.65	6399.9	
871.82	3433.1	
871.99	3864.5	
872.16	6839.5	
872.32	6182.1	
872.49	3554.6	
872.66	3490.4	
872.83	5909.8	
872.99	5199.1	
873.16	4036.5	
873.33	3489.7	
873.5	5491.3	
873.67	5536.3	
873.83	3661.1	
874	4689.8	
874.17	5664	
874.34	6737.8	
874.5	4487.1	
874.67	4435.2	
874.84	6326.2	
875.01	4949.9	
875.17	4924.7	
875.34	3489.7	
875.51	5609.4	
875.68	6765.1	
875.84	4240.7	
876.01	5119.2	
876.18	5824.4	
876.34	5819.6	
876.51	3503.4	
876.68	3375.7	
876.85	5333.6	
877.01	6094.8	
877.18	5042.1	
877.35	3474.7	
877.52	5477	
877.68	4842.8	
877.85	3431.7	
878.02	3452.2	
878.18	5395	
878.35	5162.9	
878.52	2751.8	
878.69	3908.9	
878.85	5897.5	
879.02	5847.6	
879.19	4941.1	
879.35	3777.8	
879.52	5844.2	
879.69	6105.7	
879.86	2996.2	
880.02	3874.8	
880.19	5388.2	
880.36	6742.6	
880.52	4019.5	
880.69	4162.8	
880.86	5961	
881.02	6046.3	
881.19	3788.1	
881.36	3792.8	
881.52	5861.3	
881.69	5181.4	
881.86	3733.4	
882.02	3665.9	
882.19	6120	
882.36	7189.1	
882.52	3590.1	
882.69	4919.9	
882.86	5685.8	
883.02	5556.8	
883.19	4249.5	
883.36	3960.1	
883.52	5969.1	
883.69	6817	
883.86	3534.8	
884.02	3149.8	
884.19	5951.4	
884.36	5463.3	
884.52	3958	
884.69	3654.9	
884.86	5219.6	
885.02	6455.9	
885.19	3903.4	
885.36	3999	
885.52	5419.6	
885.69	5605.3	
885.86	5040.1	
886.02	4462.5	
886.19	5905.7	
886.35	5410.7	
886.52	3867.9	
886.69	4894	
886.85	5069.4	
887.02	6274.3	
887.19	6274.3	
887.35	6274.3	
887.52	6274.3	
887.68	6274.3	
887.85	6274.3	
888.02	6274.3	
888.18	6274.3	
888.35	6274.3	
888.51	6274.3	
888.68	6274.3	
888.85	6274.3	
889.01	6274.3	
889.18	6274.3	
889.35	6274.3	
889.51	6274.3	
889.68	6274.3	
889.84	6274.3	
890.01	6274.3	
890.17	6274.3	
890.34	6274.3	
890.51	6274.3	
890.67	6274.3	
890.84	6274.3	
891	6274.3	
891.17	6274.3	
891.34	6274.3	
891.5	6274.3	
891.67	6274.3	
891.83	6274.3	
892	6274.3	
892.16	6274.3	
892.33	6274.3	
892.5	6274.3	
892.66	6274.3	
892.83	6274.3	
892.99	6274.3	
893.16	6274.3	
893.32	6274.3	
893.49	6274.3	
893.65	6274.3	
893.82	6274.3	
893.99	6274.3	
894.15	6274.3	
894.32	6274.3	
894.48	6274.3	
894.65	6274.3	
894.81	6274.3	
894.98	6274.3	
895.14	6274.3	
895.31	6274.3	
895.47	6274.3	
895.64	6274.3	
895.81	6274.3	
895.97	6274.3	
896.14	6274.3	
896.3	6274.3	
896.47	6274.3	
896.63	6274.3	
896.8	6274.3	
896.96	6274.3	
897.13	6274.3	
897.29	6274.3	
897.46	6274.3	
897.62	6274.3	
897.79	6274.3	
897.95	6274.3	
898.12	6274.3	
898.28	6274.3	
898.45	6274.3	
898.61	6274.3	
898.78	6274.3	
898.94	6274.3	
899.11	6274.3	
899.27	6274.3	
899.44	6274.3	
899.6	6274.3	
899.77	6274.3	
899.93	6274.3	
900.1	6274.3	
900.26	6274.3	
900.43	6274.3	
900.59	6274.3	
900.76	6274.3	
900.92	6274.3	
901.09	6274.3	
901.25	6274.3	
901.42	6274.3	
901.58	6274.3	
901.75	6274.3	
901.91	6274.3	
902.07	6274.3	
902.24	6274.3	
902.4	6274.3	
902.57	6274.3	
902.73	6274.3	
902.9	6274.3	
903.06	6274.3	
903.23	6274.3	
903.39	6274.3	
903.56	6274.3	
903.72	6274.3	
903.88	6274.3	
904.05	6274.3	
904.21	6274.3	
904.38	6274.3	
904.54	6274.3	
904.71	6274.3	
904.87	6274.3	
905.03	6274.3	
905.2	6274.3	
905.36	6274.3	
905.53	6274.3	
905.69	6274.3	
905.86	6274.3	
906.02	6274.3	
906.18	6274.3	
906.35	6274.3	
906.51	6274.3	
906.68	6274.3	
906.84	6274.3	
907.01	6274.3	
907.17	6274.3	
907.33	6274.3	
907.5	6274.3	
907.66	6274.3	
907.83	6274.3	
907.99	6274.3	
908.15	6274.3	
908.32	6274.3	
908.48	6274.3	
908.65	6274.3	
908.81	6274.3	
908.97	6274.3	
909.14	6274.3	
909.3	6274.3	
909.47	6274.3	
909.63	6274.3	
909.79	6274.3	
909.96	6274.3	
910.12	6274.3	
910.28	6274.3	
910.45	6274.3	
910.61	6274.3	
910.78	6274.3	
910.94	6274.3	
911.1	6274.3	
911.27	6274.3	
911.43	6274.3	
911.59	6274.3	
911.76	6274.3	
911.92	6274.3	
912.08	6274.3	
912.25	6274.3	
912.41	6274.3	
912.57	6274.3	
912.74	6274.3	
912.9	6274.3	
913.07	6274.3	
913.23	6274.3	
913.39	6274.3	
913.56	6274.3	
913.72	6274.3	
913.88	6274.3	
914.05	6274.3	
914.21	6274.3	
914.37	6274.3	
914.54	6274.3	
914.7	6274.3	
914.86	6274.3	
915.03	6274.3	
915.19	6274.3	
