Wavelength	Intensities	
nm	a.u.	
179.22	1913.1	
179.44	1919.6	
179.65	1906.7	
179.86	1932.6	
180.08	1893.7	
180.29	4988.2	
180.51	3530.7	
180.72	5686.5	
180.94	6630.6	
181.15	3256.3	
181.37	3179.1	
181.58	5543.2	
181.79	5912.5	
182.01	3412.6	
182.22	3674.7	
182.44	5784.8	
182.65	4889.2	
182.87	4601.8	
183.08	4035.9	
183.29	6145.3	
183.51	5074.9	
183.72	3690.4	
183.94	5374.6	
184.15	5371.1	
184.37	5464	
184.58	3249.4	
184.79	4462.5	
185.01	5040.7	
185.22	5801.2	
185.44	4758.8	
185.65	3901.4	
185.86	5343.8	
186.08	4948.6	
186.29	3105.4	
186.51	3407.8	
186.72	5126.1	
186.94	5916.6	
187.15	3943	
187.36	4059.1	
187.58	7871	
187.79	5595.7	
188.01	4267.3	
188.22	6596.5	
188.43	6661.4	
188.65	5783.5	
188.86	3347.7	
189.08	4094.6	
189.29	5283.1	
189.5	5263.3	
189.72	3786	
189.93	3818.8	
190.15	6049	
190.36	7136.5	
190.57	4144.4	
190.79	4049.5	
191	6124.8	
191.22	6051.7	
191.43	4104.1	
191.64	3389.4	
191.86	6393.8	
192.07	6045.6	
192.29	3546.4	
192.5	3761.4	
192.71	6080.4	
192.93	5129.5	
193.14	3700	
193.35	3818.8	
193.57	5216.2	
193.78	6008.7	
194	3020.8	
194.21	3696.6	
194.42	5019.6	
194.64	5509.7	
194.85	4100	
195.07	4742.4	
195.28	5494.7	
195.49	4696.7	
195.71	4999.1	
195.92	3500.7	
196.13	5671.5	
196.35	5767.1	
196.56	5401.9	
196.78	4091.2	
196.99	7145.4	
197.2	6660.7	
197.42	4688.5	
197.63	4127.3	
197.84	4893.3	
198.06	5601.9	
198.27	3713.6	
198.48	4999.8	
198.7	5202.5	
198.91	5310.4	
199.13	4108.9	
199.34	4154.6	
199.55	5871.5	
199.77	4726	
199.98	3636.5	
200.19	4151.9	
200.41	5293.3	
200.62	5071.5	
200.83	4321.9	
201.05	4586.1	
201.26	5355.4	
201.47	5113.8	
201.69	3620.8	
201.9	3478.8	
202.11	5429.8	
202.33	6469.5	
202.54	3934.1	
202.76	4366.3	
202.97	5575.9	
203.18	5513.1	
203.4	4288.4	
203.61	4096.6	
203.82	5530.9	
204.04	5096.7	
204.25	4203.8	
204.46	4092.5	
204.68	5469.4	
204.89	5739.8	
205.1	4012	
205.32	3469.9	
205.53	5852.4	
205.74	6032	
205.96	3035.8	
206.17	4205.8	
206.38	5825.8	
206.6	5956.9	
206.81	4676.9	
207.02	3803.8	
207.24	5739.1	
207.45	6148.7	
207.66	3888.4	
207.88	3300.6	
208.09	5667.4	
208.3	5453.7	
208.52	3574.4	
208.73	4016.7	
208.94	5470.8	
209.15	6232.7	
209.37	3914.4	
209.58	4117.8	
209.79	5954.1	
210.01	5278.3	
210.22	3171.6	
210.43	3251.5	
210.65	5458.5	
210.86	5885.2	
211.07	3958.7	
211.29	3589.4	
211.5	5816.9	
211.71	5386.2	
211.93	3566.9	
212.14	3600.3	
212.35	5334.3	
212.56	5613.5	
212.78	4126	
212.99	3377.1	
213.2	6489.3	
213.42	5192.3	
213.63	3718.4	
213.84	4023.6	
214.06	4869.4	
214.27	4928.1	
214.48	3924.6	
214.69	4244.1	
214.91	6132.3	
215.12	6248.4	
215.33	4296.6	
215.55	4708.3	
215.76	6745.3	
215.97	5889.3	
216.18	4074.1	
216.4	3970.3	
216.61	5150	
216.82	6030.6	
217.04	3616.7	
217.25	3782.6	
217.46	6157.6	
217.67	5857.2	
217.89	3198.2	
218.1	3330.7	
218.31	5558.9	
218.53	5621.7	
218.74	3731.4	
218.95	3741	
219.16	5397.8	
219.38	6327.5	
219.59	3672.7	
219.8	4381.3	
220.01	7091.4	
220.23	5453.7	
220.44	4896.7	
220.65	3592.8	
220.87	5532.2	
221.08	6098.9	
221.29	3370.3	
221.5	4444.1	
221.72	7536.5	
221.93	5125.4	
222.14	4151.2	
222.35	4829.1	
222.57	5565.7	
222.78	5812.8	
222.99	3971.7	
223.2	4225.6	
223.42	5761.6	
223.63	5932.3	
223.84	3046.7	
224.05	3093.8	
224.27	7079.8	
224.48	6388.3	
224.69	5109.7	
224.9	4182	
225.12	5646.9	
225.33	5393	
225.54	3322.5	
225.75	3665.9	
225.97	4985.4	
226.18	5304.9	
226.39	3941	
226.6	3686.3	
226.82	5166.3	
227.03	5046.9	
227.24	4113.7	
227.45	3393.5	
227.67	5839.4	
227.88	6438.1	
228.09	4614.8	
228.3	4615.4	
228.52	5932.3	
228.73	5392.3	
228.94	3792.2	
229.15	3418.1	
229.36	5345.2	
229.58	5277.6	
229.79	3838.6	
230	4534.2	
230.21	6528.2	
230.43	5599.1	
230.64	4147.1	
230.85	4296.6	
231.06	5895.4	
231.28	5889.3	
231.49	3381.2	
231.7	4021.5	
231.91	5829.9	
232.12	5511.8	
232.34	3484.3	
232.55	4009.9	
232.76	6127.5	
232.97	5681.1	
233.18	3638.6	
233.4	4065.9	
233.61	5697.4	
233.82	5208.7	
234.03	3768.3	
234.25	3688.4	
234.46	7603.4	
234.67	5517.2	
234.88	4190.1	
235.09	3658.4	
235.31	5869.5	
235.52	5308.3	
235.73	4037.9	
235.94	3473.4	
236.15	5201.8	
236.37	6606.7	
236.58	3604.4	
236.79	3953.9	
237	5786.9	
237.21	4951.3	
237.43	4240.7	
237.64	3323.9	
237.85	9950.4	
238.06	5043.5	
238.27	4323.3	
238.48	3438.5	
238.7	5781.4	
238.91	5309	
239.12	3925.3	
239.33	3985.3	
239.54	5088.5	
239.76	5385.5	
239.97	3876.1	
240.18	3935.5	
240.39	6868.2	
240.6	5753.4	
240.82	4069.3	
241.03	3416	
241.24	5477	
241.45	6333	
241.66	3566.9	
241.87	4277.5	
242.09	6150.7	
242.3	6624.5	
242.51	4293.9	
242.72	3951.2	
242.93	5914.5	
243.14	5402.5	
243.36	4530.8	
243.57	4910.3	
243.78	6368.5	
243.99	5866.1	
244.2	3977.2	
244.41	3614.7	
244.63	4986.1	
244.84	5849	
245.05	4237.2	
245.26	4014	
245.47	5781.4	
245.68	6055.2	
245.9	5244.2	
246.11	4181.3	
246.32	5317.9	
246.53	5692.7	
246.74	6417.7	
246.95	3315.7	
247.16	4936.3	
247.38	5482.4	
247.59	3251.5	
247.8	3992.9	
248.01	5167.7	
248.22	5352.7	
248.43	3624.9	
248.64	3819.5	
248.86	4866.7	
249.07	5225.7	
249.28	3470.6	
249.49	4109.6	
249.7	6010.1	
249.91	6149.4	
250.12	3303.4	
250.34	3368.2	
250.55	5582.8	
250.76	5429.2	
250.97	4102.8	
251.18	4137.6	
251.39	6213.5	
251.6	5609.4	
251.81	4211.3	
252.03	4153.3	
252.24	5206.6	
252.45	6042.9	
252.66	3448.1	
252.87	4376.5	
253.08	5478.3	
253.29	7266.2	
253.5	3435.8	
253.72	4863.2	
253.93	5307.7	
254.14	6496.2	
254.35	3781.2	
254.56	3886.4	
254.77	5725.4	
254.98	5102.2	
255.19	3715	
255.41	4850.3	
255.62	5590.3	
255.83	6175.3	
256.04	4274.1	
256.25	4173.8	
256.46	6740.5	
256.67	5152	
256.88	4098	
257.09	4530.1	
257.31	5111	
257.52	5151.3	
257.73	5096.7	
257.94	3781.9	
258.15	5304.9	
258.36	5544.5	
258.57	4774.5	
258.78	2996.9	
258.99	5976.7	
259.2	5289.9	
259.41	3792.8	
259.63	3875.4	
259.84	6309.1	
260.05	6802	
260.26	4985.4	
260.47	3674.7	
260.68	6062.7	
260.89	5376.6	
261.1	4563.6	
261.31	3613.3	
261.52	6025.8	
261.73	6494.8	
261.95	4852.3	
262.16	4285.7	
262.37	6158.9	
262.58	6310.5	
262.79	4928.8	
263	3845.4	
263.21	5574.6	
263.42	4955.4	
263.63	3839.3	
263.84	3827.7	
264.05	6029.9	
264.26	6434	
264.47	4741.7	
264.69	4290.5	
264.9	6191	
265.11	5724.8	
265.32	3670.6	
265.53	3725.9	
265.74	5581.4	
265.95	4855.1	
266.16	4002.4	
266.37	4496	
266.58	5608.7	
266.79	5285.1	
267	3738.9	
267.21	3502.7	
267.42	5035.3	
267.63	5483.1	
267.84	3882.3	
268.06	3325.9	
268.27	5904.3	
268.48	6251.1	
268.69	3852.9	
268.9	4556.7	
269.11	6247.7	
269.32	4915.1	
269.53	3921.2	
269.74	3686.3	
269.95	5831.9	
270.16	4822.3	
270.37	3943	
270.58	4633.2	
270.79	5298.8	
271	6011.5	
271.21	4217.5	
271.42	3986	
271.63	5588.2	
271.84	5132.9	
272.05	3127.9	
272.26	3567.6	
272.47	5482.4	
272.68	5683.1	
272.89	3771	
273.11	4391.5	
273.32	5296	
273.53	6420.4	
273.74	4303.5	
273.95	4147.1	
274.16	6096.8	
274.37	5569.8	
274.58	4317.1	
274.79	3431	
275	5627.8	
275.21	6216.3	
275.42	5225.1	
275.63	4476.2	
275.84	5760.9	
276.05	7238.2	
276.26	4171	
276.47	3901.4	
276.68	5351.3	
276.89	6567.8	
277.1	4410	
277.31	3498.6	
277.52	5756.2	
277.73	5940.5	
277.94	3433.8	
278.15	3844	
278.36	5683.1	
278.57	5128.8	
278.78	3811.3	
278.99	4339	
279.2	5109.7	
279.41	5020.9	
279.62	5049.6	
279.83	3529.3	
280.04	6672.3	
280.25	4978.6	
280.46	4933.6	
280.67	3947.8	
280.88	5149.3	
281.09	6212.2	
281.3	4164.2	
281.51	5287.2	
281.72	5201.2	
281.93	6037.4	
282.14	3680.2	
282.35	3935.5	
282.56	5981.4	
282.77	5958.9	
282.98	3857.7	
283.19	4670.1	
283.4	7352.2	
283.61	5432.6	
283.82	3463.8	
284.03	4889.2	
284.24	5596.4	
284.45	6049	
284.66	4941.1	
284.87	4671.4	
285.08	6046.3	
285.29	6230.6	
285.5	3319.1	
285.71	3879.5	
285.92	6133	
286.12	6771.9	
286.33	4816.1	
286.54	3839.3	
286.75	5960.3	
286.96	5317.9	
287.17	3519.8	
287.38	4783.4	
287.59	5128.8	
287.8	5021.6	
288.01	3917.8	
288.22	4493.9	
288.43	6030.6	
288.64	5003.2	
288.85	4629.8	
289.06	4360.8	
289.27	5918.6	
289.48	6430.6	
289.69	4945.8	
289.9	4535.6	
290.11	6128.9	
290.32	5199.1	
290.53	4733.5	
290.74	4283.7	
290.94	5933.6	
291.15	5997.1	
291.36	3689.8	
291.57	4436.6	
291.78	5194.3	
291.99	4897.4	
292.2	3521.8	
292.41	4326.7	
292.62	6018.3	
292.83	5829.9	
293.04	5308.3	
293.25	3618.1	
293.46	5256.5	
293.67	6091.3	
293.88	3678.2	
294.09	3524.6	
294.29	5007.3	
294.5	5666	
294.71	4048.8	
294.92	3748.5	
295.13	5229.8	
295.34	6634.1	
295.55	3326.6	
295.76	3435.1	
295.97	5881.8	
296.18	6745.3	
296.39	3510.9	
296.6	3695.2	
296.81	5572.5	
297.01	5878.4	
297.22	3916.4	
297.43	3710.2	
297.64	5115.1	
297.85	5121.3	
298.06	3069.2	
298.27	3334.1	
298.48	5570.5	
298.69	5192.3	
298.9	4072	
299.11	3654.9	
299.31	4971.1	
299.52	5056.4	
299.73	4287.1	
299.94	4190.8	
300.15	5539.8	
300.36	5082.4	
300.57	4159.4	
300.78	4259.1	
300.99	5398.4	
301.2	5586.2	
301.4	3661.1	
301.61	3997	
301.82	5808	
302.03	5905.7	
302.24	4537.6	
302.45	3519.1	
302.66	5772.5	
302.87	6314.6	
303.08	3728.7	
303.29	5070.8	
303.49	5239.4	
303.7	5534.3	
303.91	3298.6	
304.12	4806.6	
304.33	5016.8	
304.54	5636.7	
304.75	3719.1	
304.96	3533.4	
305.16	5850.4	
305.37	6557.6	
305.58	3208.5	
305.79	3381.9	
306	5801.9	
306.21	4905.6	
306.42	3718.4	
306.63	5687.2	
306.83	5325.4	
307.04	6073.6	
307.25	4061.8	
307.46	4121.2	
307.67	4668.7	
307.88	5936.4	
308.09	3639.2	
308.29	3803.1	
308.5	5569.1	
308.71	6133	
308.92	3940.3	
309.13	3570.3	
309.34	5337	
309.55	5426.4	
309.75	4664.6	
309.96	4199.7	
310.17	5930.9	
310.38	5184.1	
310.59	4479.6	
310.8	3504.1	
311.01	5334.3	
311.21	5339.1	
311.42	3442	
311.63	3663.8	
311.84	5221	
312.05	5658.5	
312.26	4128	
312.46	4569.7	
312.67	5277.6	
312.88	5018.9	
313.09	3598.3	
313.3	3502.7	
313.51	6340.5	
313.71	6667.5	
313.92	3573	
314.13	3817.4	
314.34	5638.7	
314.55	5381.4	
314.76	4594.3	
314.96	4033.1	
315.17	5544.5	
315.38	5997.1	
315.59	3648.8	
315.8	3429.7	
316.01	6374	
316.21	6383.5	
316.42	3480.2	
316.63	4000.4	
316.84	5317.9	
317.05	6207.4	
317.26	4220.2	
317.46	3816	
317.67	5415.5	
317.88	5902.9	
318.09	4592.2	
318.3	3349.1	
318.5	5156.1	
318.71	5816.2	
318.92	5831.2	
319.13	4243.4	
319.34	6004	
319.54	6137.8	
319.75	3325.2	
319.96	3155.9	
320.17	5869.5	
320.38	6097.5	
320.58	3229.6	
320.79	3905.5	
321	6068.8	
321.21	6146.6	
321.42	3945.1	
321.62	3256.3	
321.83	5124	
322.04	5489.9	
322.25	3781.2	
322.46	3617.4	
322.66	5634	
322.87	5789.6	
323.08	4425.7	
323.29	3519.1	
323.5	6535.1	
323.7	5066	
323.91	4960.9	
324.12	4435.9	
324.33	5530.9	
324.53	5825.8	
324.74	4235.2	
324.95	4432.5	
325.16	4848.9	
325.37	5326.1	
325.57	3603.7	
325.78	3721.8	
325.99	5560.2	
326.2	4973.2	
326.4	5152.7	
326.61	3301.3	
326.82	5459.9	
327.03	5618.9	
327.24	5107	
327.44	4801.8	
327.65	5756.8	
327.86	4627	
328.07	4260.5	
328.27	3478.1	
328.48	6234	
328.69	5098.8	
328.9	5205.9	
329.1	3835.8	
329.31	5397.1	
329.52	6328.9	
329.73	3615.3	
329.93	4067.3	
330.14	5452.4	
330.35	5779.4	
330.56	5927.5	
330.76	4427.7	
330.97	5335	
331.18	5725.4	
331.39	4060.4	
331.59	3228.3	
331.8	6022.4	
332.01	6192.4	
332.22	3682.2	
332.42	4295.3	
332.63	5646.9	
332.84	5236	
333.05	4081.6	
333.25	3622.2	
333.46	5272.8	
333.67	5474.9	
333.88	3762.1	
334.08	4145.1	
334.29	7289.4	
334.5	6168.5	
334.7	3510.2	
334.91	5147.2	
335.12	5051	
335.33	5938.4	
335.53	3898	
335.74	5948	
335.95	5244.8	
336.16	5128.8	
336.36	3966.9	
336.57	4573.1	
336.78	4973.2	
336.98	6044.9	
337.19	4885.1	
337.4	3892.5	
337.61	6676.4	
337.81	4952	
338.02	3669.3	
338.23	4738.3	
338.43	6292.7	
338.64	5116.5	
338.85	3608.5	
339.05	4780	
339.26	6321.4	
339.47	4918.5	
339.68	3592.8	
339.88	5337	
340.09	5729.5	
340.3	5986.2	
340.5	4254.3	
340.71	3259	
340.92	4951.3	
341.13	6233.3	
341.33	3433.8	
341.54	4283.7	
341.75	5770.5	
341.95	5360.9	
342.16	4051.6	
342.37	4422.2	
342.57	5027.1	
342.78	5483.8	
342.99	4552.6	
343.19	3244	
343.4	5921.4	
343.61	5720	
343.81	3850.2	
344.02	3548.4	
344.23	5914.5	
344.43	6326.2	
344.64	4470	
344.85	4429.8	
345.06	5743.9	
345.26	6102.9	
345.47	4150.6	
345.68	4878.9	
345.88	4825	
346.09	6009.4	
346.3	4280.9	
346.5	3222.8	
346.71	5538.4	
346.92	5193	
347.12	3287.7	
347.33	4167.6	
347.54	6021.7	
347.74	6483.2	
347.95	4149.9	
348.16	3028.9	
348.36	5338.4	
348.57	4982	
348.78	4110.3	
348.98	4476.9	
349.19	5434.6	
349.39	4990.2	
349.6	3273.3	
349.81	3651.5	
350.01	5752.7	
350.22	5197.1	
350.43	3934.8	
350.63	4833.9	
350.84	5522.7	
351.05	5270.8	
351.25	3661.8	
351.46	3288.4	
351.67	6062.7	
351.87	5186.1	
352.08	3910.9	
352.29	4461.2	
352.49	5977.3	
352.7	6090.7	
352.9	3531.4	
353.11	4405.2	
353.32	6593.1	
353.52	5258.5	
353.73	3454.9	
353.94	4496	
354.14	5758.2	
354.35	5580.7	
354.55	3545	
354.76	4031.1	
354.97	5763	
355.17	5560.2	
355.38	3346.4	
355.59	4655.7	
355.79	5164.3	
356	5566.4	
356.2	4022.2	
356.41	3433.8	
356.62	4856.4	
356.82	5400.5	
357.03	4270.7	
357.24	3806.5	
357.44	5124.7	
357.65	5304.9	
357.85	5104.2	
358.06	3981.9	
358.27	4932.2	
358.47	5117.2	
358.68	3354.6	
358.88	4242	
359.09	5752.1	
359.3	6094.8	
359.5	4934.9	
359.71	4363.5	
359.91	6596.5	
360.12	5898.1	
360.33	4160.8	
360.53	4687.8	
360.74	5219.6	
360.94	5236.7	
361.15	4467.3	
361.36	3638.6	
361.56	6009.4	
361.77	5421.7	
361.97	4965.6	
362.18	3848.8	
362.38	6002.6	
362.59	5027.8	
362.8	3585.3	
363	3392.1	
363.21	4818.2	
363.41	5509.7	
363.62	4111.6	
363.83	5165.7	
364.03	5575.9	
364.24	6583.5	
364.44	5255.8	
364.65	5156.1	
364.85	5326.8	
365.06	4952	
365.27	3775.1	
365.47	3777.8	
365.68	6449.7	
365.88	5298.8	
366.09	4178.5	
366.29	3848.8	
366.5	5568.4	
366.71	6083.1	
366.91	5159.5	
367.12	4252.3	
367.32	6570.6	
367.53	5886.5	
367.73	4312.3	
367.94	5237.3	
368.14	5827.2	
368.35	6776	
368.56	4258.4	
368.76	3564.1	
368.97	5912.5	
369.17	7647.8	
369.38	3708.2	
369.58	3953.3	
369.79	4972.5	
369.99	6298.9	
370.2	5048.2	
370.4	4104.1	
370.61	5580	
370.82	6881.9	
371.02	3960.8	
371.23	3329.3	
371.43	4814.8	
371.64	6282.5	
371.84	4033.1	
372.05	5298.8	
372.25	7609.6	
372.46	5964.4	
372.66	3990.1	
372.87	3971	
373.07	5984.2	
373.28	7616.4	
373.48	5074.2	
373.69	4722.6	
373.9	5431.9	
374.1	5515.9	
374.31	5038	
374.51	4477.5	
374.72	6345.3	
374.92	5114.5	
375.13	5136.3	
375.33	4351.9	
375.54	5854.5	
375.74	5248.3	
375.95	4359.4	
376.15	5614.8	
376.36	5832.6	
376.56	5709.7	
376.77	4396.3	
376.97	4875.5	
377.18	6993.8	
377.38	5917.3	
377.59	5179.3	
377.79	3922.5	
378	5670.8	
378.2	6102.9	
378.41	3954.6	
378.61	3834.5	
378.82	6165.8	
379.02	5315.8	
379.23	4138.3	
379.43	5264	
379.64	6245.6	
379.84	5923.4	
380.05	3908.9	
380.25	3858.4	
380.46	5997.8	
380.66	5577.3	
380.87	5310.4	
381.07	5738.4	
381.28	6640.9	
381.48	6031.3	
381.69	4040	
381.89	3980.6	
382.1	4975.9	
382.3	6158.2	
382.51	5141.8	
382.71	6111.1	
382.91	6024.4	
383.12	6561.7	
383.32	4360.8	
383.53	4630.5	
383.73	5851	
383.94	5670.8	
384.14	4492.6	
384.35	3644	
384.55	5654.4	
384.76	5998.5	
384.96	4371.7	
385.17	4709.6	
385.37	6094.8	
385.58	5319.3	
385.78	4650.9	
385.98	3558.7	
386.19	5616.2	
386.39	5903.6	
386.6	4212	
386.8	4355.3	
387.01	6027.9	
387.21	6010.1	
387.42	4873.5	
387.62	5366.4	
387.83	5283.8	
388.03	6029.2	
388.23	4395.6	
388.44	5257.1	
388.64	5061.9	
388.85	5144.5	
389.05	4789.5	
389.26	5458.5	
389.46	7058	
389.67	6457.2	
389.87	4700.1	
390.07	4859.8	
390.28	5654.4	
390.48	5238.7	
390.69	4037.2	
390.89	4308.9	
391.1	5420.3	
391.3	6296.1	
391.5	5487.2	
391.71	6161	
391.91	6146.6	
392.12	7184.3	
392.32	5611.4	
392.53	4773.1	
392.73	5465.3	
392.93	5611.4	
393.14	4486.4	
393.34	5332.9	
393.55	6184.2	
393.75	5679.7	
393.95	4422.9	
394.16	4392.2	
394.36	5390.9	
394.57	6130.3	
394.77	3886.4	
394.98	4401.1	
395.18	5309	
395.38	5423	
395.59	5291.3	
395.79	4156.7	
396	5460.6	
396.2	6009.4	
396.4	5020.9	
396.61	5026.4	
396.81	6239.5	
397.02	5444.2	
397.22	5294.7	
397.42	5373.2	
397.63	6169.8	
397.83	5322.7	
398.04	4072	
398.24	4633.2	
398.44	5944.6	
398.65	4967.7	
398.85	3925.3	
399.05	4113	
399.26	5325.4	
399.46	7148.8	
399.67	4497.3	
399.87	4201.7	
400.07	5698.8	
400.28	6098.9	
400.48	4247.5	
400.69	5300.1	
400.89	6309.1	
401.09	6763.1	
401.3	4080.9	
401.5	5365	
401.7	7019.1	
401.91	7320.1	
402.11	4490.5	
402.32	4764.3	
402.52	6371.9	
402.72	6287.9	
402.93	5010.7	
403.13	3836.5	
403.33	7161.7	
403.54	5880.4	
403.74	4739.7	
403.94	5575.3	
404.15	5864	
404.35	7083.2	
404.56	4446.8	
404.76	6388.3	
404.96	6315.3	
405.17	6117.3	
405.37	5767.8	
405.57	4886.5	
405.78	6311.8	
405.98	5817.6	
406.18	5246.2	
406.39	5482.4	
406.59	6348	
406.79	5986.2	
407	4257.7	
407.2	4412	
407.4	6335.7	
407.61	6606.1	
407.81	4328.7	
408.01	6832.7	
408.22	5283.1	
408.42	7323.5	
408.62	5479.7	
408.83	4906.9	
409.03	5875.6	
409.23	5682.4	
409.44	4983.4	
409.64	5288.5	
409.84	6892.1	
410.05	6745.3	
410.25	5138.4	
410.45	4907.6	
410.66	6163	
410.86	8727.8	
411.06	5381.4	
411.27	5253	
411.47	8516.8	
411.67	6356.9	
411.88	5436	
412.08	5740.5	
412.28	7129	
412.49	7565.9	
412.69	5181.4	
412.89	5189.6	
413.09	7428	
413.3	7230.7	
413.5	5267.4	
413.7	4880.3	
413.91	6498.9	
414.11	7385	
414.31	5095.3	
414.52	5630.5	
414.72	7066.9	
414.92	6919.4	
415.12	5195.7	
415.33	5664	
415.53	7346.7	
415.73	7629.4	
415.94	6075	
416.14	5474.9	
416.34	6315.9	
416.55	6171.2	
416.75	6729.6	
416.95	6062	
417.15	7320.8	
417.36	8121.6	
417.56	6919.4	
417.76	5958.9	
417.97	7799.3	
418.17	7484.6	
418.37	5507	
418.57	5551.4	
418.78	7163.1	
418.98	6919.4	
419.18	6615.6	
419.38	6427.9	
419.59	6880.5	
419.79	6558.3	
419.99	5548.6	
420.2	5892	
420.4	7368.6	
420.6	7645.1	
420.8	5471.5	
421.01	5197.7	
421.21	7269.6	
421.41	7466.2	
421.61	5851	
421.82	5509	
422.02	6843.6	
422.22	7739.3	
422.42	6398.5	
422.63	5973.9	
422.83	6864.1	
423.03	8191.9	
423.23	5994.4	
423.44	4943.1	
423.64	7064.8	
423.84	6748.1	
424.04	5512.4	
424.25	5110.4	
424.45	7942.7	
424.65	7890.1	
424.85	4846.9	
425.06	5484.5	
425.26	7907.2	
425.46	6385.6	
425.66	6028.5	
425.87	5674.2	
426.07	7737.2	
426.27	7548.8	
426.47	5902.2	
426.67	5149.3	
426.88	8116.1	
427.08	7527.7	
427.28	6069.5	
427.48	5096	
427.69	6310.5	
427.89	7008.8	
428.09	6133	
428.29	5225.7	
428.5	7695.6	
428.7	7335.8	
428.9	4981.3	
429.1	5570.5	
429.3	7158.3	
429.51	7606.2	
429.71	5370.5	
429.91	6201.9	
430.11	7436.9	
430.31	7669.6	
430.52	5711.8	
430.72	6152.8	
430.92	8161.2	
431.12	7521.5	
431.32	5425.8	
431.53	5775.3	
431.73	6415.6	
431.93	8186.4	
432.13	5357.5	
432.33	5132.9	
432.54	6851.8	
432.74	7300.3	
432.94	5117.9	
433.14	6224.5	
433.34	7496.2	
433.55	7007.5	
433.75	6152.1	
433.95	8047.2	
434.15	7236.8	
434.35	6946.7	
434.56	5397.8	
434.76	4934.9	
434.96	7240.3	
435.16	7587.7	
435.36	5255.8	
435.56	6414.2	
435.77	6936.5	
435.97	7150.8	
436.17	7129	
436.37	6367.1	
436.57	6943.3	
436.78	6820.4	
436.98	6956.3	
437.18	6972	
437.38	7733.1	
437.58	7190.4	
437.78	7153.6	
437.99	5744.6	
438.19	7730.4	
438.39	9174.2	
438.59	5694	
438.79	5154.7	
438.99	8439	
439.2	7144	
439.4	5277.6	
439.6	5195	
439.8	7441	
440	8562.6	
440.2	6264.7	
440.4	6468.2	
440.61	7841	
440.81	8475.2	
441.01	5487.9	
441.21	6418.3	
441.41	8353.7	
441.61	7869.7	
441.81	6753.5	
442.02	7858.1	
442.22	8889.5	
442.42	8033.5	
442.62	5612.8	
442.82	5641.5	
443.02	8335.9	
443.22	7451.2	
443.43	6161	
443.63	5639.4	
443.83	7210.2	
444.03	7297.6	
444.23	6956.3	
444.43	6532.3	
444.63	7688.1	
444.83	8901.2	
445.04	5848.3	
445.24	7221.1	
445.44	8119.5	
445.64	8247.9	
445.84	6679.1	
446.04	6660	
446.24	7397.9	
446.44	8464.3	
446.65	5856.5	
446.85	6275.7	
447.05	7751.6	
447.25	8431.5	
447.45	6318.7	
447.65	5720	
447.85	7725.6	
448.05	7359	
448.25	6782.2	
448.46	6556.2	
448.66	7809.6	
448.86	7501.7	
449.06	5494.7	
449.26	6842.3	
449.46	8173.4	
449.66	7145.4	
449.86	6280.4	
450.06	6266.1	
450.26	7317.4	
450.47	8044.4	
450.67	6537.1	
450.87	6851.8	
451.07	8038.3	
451.27	7831.4	
451.47	5757.5	
451.67	6511.2	
451.87	7528.3	
452.07	8712.1	
452.27	6119.3	
452.47	6061.3	
452.67	7828.7	
452.88	8368	
453.08	5455.1	
453.28	7617.8	
453.48	9140.1	
453.68	7815.7	
453.88	6032.6	
454.08	6244.9	
454.28	8247.2	
454.48	7817.1	
454.68	6748.1	
454.88	7299	
455.08	8350.9	
455.28	8118.8	
455.48	5863.3	
455.68	6545.3	
455.89	8815.8	
456.09	8475.9	
456.29	6403.3	
456.49	6430.6	
456.69	8761.9	
456.89	8206.9	
457.09	6860	
457.29	7299	
457.49	8416.5	
457.69	8430.1	
457.89	6758.3	
458.09	6078.4	
458.29	8016.4	
458.49	8795.3	
458.69	7190.4	
458.89	6639.5	
459.09	9170.1	
459.29	9318.9	
459.49	6831.3	
459.69	7657.4	
459.9	8804.9	
460.1	8180.3	
460.3	6621.1	
460.5	6427.2	
460.7	8737.3	
460.9	8391.9	
461.1	6111.8	
461.3	7487.4	
461.5	9402.2	
461.7	8957.8	
461.9	6590.4	
462.1	7044.3	
462.3	8486.1	
462.5	9100.5	
462.7	6649.1	
462.9	6777.4	
463.1	10221	
463.3	9851.4	
463.5	6925.5	
463.7	8008.2	
463.9	8770.1	
464.1	9093.7	
464.3	7240.9	
464.5	7444.4	
464.7	9413.8	
464.9	9135.3	
465.1	8931.2	
465.3	7877.2	
465.5	9834.3	
465.7	9818.6	
465.9	8198.7	
466.1	7890.1	
466.3	9681.4	
466.5	9468.4	
466.7	8989.9	
466.9	7742	
467.1	9388.6	
467.3	10380	
467.5	8891.6	
467.7	7724.3	
467.9	10691	
468.1	11671	
468.3	8584.4	
468.5	9033.6	
468.7	9522.4	
468.9	9416.6	
469.1	8124.3	
469.3	8858.8	
469.5	11560	
469.7	9092.3	
469.9	8613.8	
470.1	7864.2	
470.3	9649.3	
470.5	9600.2	
470.7	9303.9	
470.9	7916.8	
471.1	9310.7	
471.3	9860.3	
471.5	7756.3	
471.69	9850.7	
471.89	9151	
472.09	8740	
472.29	8664.3	
472.49	8985.1	
472.69	9000.1	
472.89	9877.4	
473.09	7697.6	
473.29	7818.5	
473.49	9203.6	
473.69	9374.9	
473.89	8919.6	
474.09	7976.2	
474.29	10596	
474.49	10354	
474.69	8882.7	
474.89	8178.9	
475.09	9415.2	
475.29	9450.7	
475.49	7624.6	
475.69	7901.1	
475.88	10929	
476.08	9670.5	
476.28	7527	
476.48	7927.7	
476.68	10204	
476.88	10008	
477.08	7795.9	
477.28	8176.9	
477.48	9411.1	
477.68	10131	
477.88	7617.8	
478.08	7944.8	
478.28	10462	
478.48	9529.2	
478.67	8013	
478.87	7457.3	
479.07	10383	
479.27	9725.1	
479.47	8325.7	
479.67	8285.4	
479.87	10096	
480.07	10765	
480.27	7556.3	
480.47	9281.4	
480.67	9738.8	
480.87	10445	
481.06	7827.3	
481.26	8748.9	
481.46	9785.9	
481.66	9740.8	
481.86	8424	
482.06	9411.8	
482.26	9512.1	
482.46	10559	
482.66	8327	
482.86	7955.7	
483.05	9893.1	
483.25	9252.7	
483.45	10865	
483.65	8317.5	
483.85	9576.3	
484.05	9824.1	
484.25	8890.2	
484.45	9408.4	
484.65	10682	
484.84	10738	
485.04	8337.3	
485.24	8402.8	
485.44	10913	
485.64	9314.8	
485.84	7617.8	
486.04	9164.7	
486.24	9697.8	
486.44	10221	
486.63	7663.5	
486.83	8578.9	
487.03	9688.9	
487.23	10036	
487.43	7853.3	
487.63	10174	
487.83	9912.2	
488.02	10966	
488.22	8953.7	
488.42	9540.1	
488.62	10946	
488.82	9899.9	
489.02	8494.3	
489.22	8659.5	
489.41	10746	
489.61	10500	
489.81	8387.8	
490.01	8392.6	
490.21	10811	
490.41	11513	
490.61	8440.4	
490.8	8576.2	
491	10368	
491.2	9620	
491.4	9170.8	
491.6	8208.9	
491.8	10362	
491.99	10523	
492.19	7991.9	
492.39	8452	
492.59	10830	
492.79	10819	
492.99	9231.6	
493.18	8302.5	
493.38	10904	
493.58	11828	
493.78	9189.9	
493.98	8770.8	
494.18	10725	
494.37	10223	
494.57	9652.8	
494.77	9333.3	
494.97	11121	
495.17	11376	
495.37	9090.9	
495.56	9379	
495.76	11608	
495.96	11266	
496.16	10490	
496.36	9321	
496.55	11635	
496.75	11336	
496.95	9885.5	
497.15	9603.6	
497.35	11622	
497.54	11650	
497.74	9411.1	
497.94	11262	
498.14	12342	
498.34	12105	
498.53	9157.2	
498.73	10053	
498.93	10961	
499.13	11698	
499.33	9896.5	
499.52	10370	
499.72	11729	
499.92	11808	
500.12	9544.2	
500.32	9924.5	
500.51	12026	
500.71	11752	
500.91	10764	
501.11	10314	
501.31	11994	
501.5	12310	
501.7	11052	
501.9	10113	
502.1	11757	
502.29	12116	
502.49	10593	
502.69	11015	
502.89	12067	
503.09	12082	
503.28	9549.7	
503.48	9692.4	
503.68	11130	
503.88	11318	
504.07	10619	
504.27	10099	
504.47	11586	
504.67	11740	
504.86	10524	
505.06	10298	
505.26	11288	
505.46	13129	
505.65	10070	
505.85	10349	
506.05	11095	
506.25	11607	
506.44	9381.7	
506.64	10318	
506.84	11015	
507.04	12028	
507.23	9517.6	
507.43	10225	
507.63	13118	
507.83	11327	
508.02	10133	
508.22	9740.8	
508.42	13472	
508.62	11168	
508.81	10096	
509.01	10787	
509.21	10957	
509.4	11255	
509.6	10339	
509.8	9647.3	
510	11262	
510.19	12830	
510.39	9643.9	
510.59	9688.9	
510.79	11141	
510.98	12520	
511.18	9781.8	
511.38	10028	
511.57	11935	
511.77	11830	
511.97	10593	
512.17	9546.3	
512.36	12066	
512.56	11924	
512.76	9555.8	
512.95	9398.1	
513.15	12078	
513.35	10688	
513.55	10566	
513.74	9702.6	
513.94	12006	
514.14	11434	
514.33	10692	
514.53	10561	
514.73	11455	
514.92	11687	
515.12	9975.7	
515.32	9674.6	
515.51	11733	
515.71	12339	
515.91	11460	
516.11	9838.4	
516.3	13538	
516.5	11422	
516.7	10467	
516.89	11096	
517.09	11550	
517.29	11413	
517.48	10783	
517.68	10150	
517.88	11337	
518.07	11708	
518.27	10660	
518.47	9663.7	
518.66	12505	
518.86	11046	
519.06	9431.6	
519.25	9996.8	
519.45	11489	
519.65	12995	
519.84	10672	
520.04	11447	
520.24	13426	
520.43	12267	
520.63	10589	
520.83	10182	
521.02	11436	
521.22	12153	
521.42	10709	
521.61	11358	
521.81	11627	
522.01	11723	
522.2	10516	
522.4	10228	
522.6	12288	
522.79	11092	
522.99	10478	
523.18	9683.5	
523.38	12020	
523.58	12100	
523.77	11985	
523.97	9906.7	
524.17	14113	
524.36	13314	
524.56	11380	
524.76	11004	
524.95	12448	
525.15	12052	
525.34	10905	
525.54	10899	
525.74	13037	
525.93	11915	
526.13	12295	
526.33	11094	
526.52	13277	
526.72	12816	
526.91	12519	
527.11	11717	
527.31	13374	
527.5	13992	
527.7	11571	
527.89	10615	
528.09	12227	
528.29	13011	
528.48	11961	
528.68	11671	
528.87	13358	
529.07	13373	
529.27	11672	
529.46	11275	
529.66	13267	
529.85	13776	
530.05	11281	
530.25	11927	
530.44	14677	
530.64	13067	
530.83	11471	
531.03	11744	
531.23	13416	
531.42	13420	
531.62	12622	
531.81	11615	
532.01	13713	
532.21	14249	
532.4	11637	
532.6	11989	
532.79	14781	
532.99	14095	
533.18	12232	
533.38	13222	
533.58	13584	
533.77	14472	
533.97	12261	
534.16	13143	
534.36	14740	
534.55	13713	
534.75	13269	
534.95	12479	
535.14	14691	
535.34	13882	
535.53	12134	
535.73	14263	
535.92	15455	
536.12	14192	
536.31	12227	
536.51	13478	
536.71	14156	
536.9	13919	
537.1	12377	
537.29	12434	
537.49	14766	
537.68	13817	
537.88	12871	
538.07	12156	
538.27	14094	
538.46	15122	
538.66	12160	
538.86	12635	
539.05	14083	
539.25	14595	
539.44	13090	
539.64	12583	
539.83	14149	
540.03	15204	
540.22	12480	
540.42	12455	
540.61	14260	
540.81	14485	
541	12888	
541.2	13605	
541.39	13775	
541.59	14276	
541.78	13262	
541.98	12226	
542.18	13487	
542.37	13512	
542.57	12639	
542.76	13392	
542.96	13541	
543.15	14288	
543.35	12742	
543.54	12096	
543.74	14493	
543.93	14020	
544.13	12472	
544.32	13701	
544.52	14195	
544.71	13388	
544.91	11611	
545.1	12891	
545.3	13562	
545.49	14291	
545.69	11562	
545.88	12185	
546.08	15228	
546.27	14909	
546.47	12752	
546.66	11955	
546.86	14370	
547.05	15147	
547.24	12190	
547.44	12011	
547.63	13269	
547.83	14536	
548.02	12590	
548.22	12700	
548.41	13217	
548.61	14528	
548.8	12052	
549	12114	
549.19	13860	
549.39	14106	
549.58	11697	
549.78	12274	
549.97	14216	
550.17	13686	
550.36	13179	
550.55	14314	
550.75	13637	
550.94	14595	
551.14	11824	
551.33	12187	
551.53	12964	
551.72	14118	
551.92	12364	
552.11	11998	
552.31	14042	
552.5	14109	
552.69	13734	
552.89	11678	
553.08	13956	
553.28	13678	
553.47	12144	
553.67	13146	
553.86	14797	
554.06	12907	
554.25	11076	
554.44	11831	
554.64	15399	
554.83	14926	
555.03	11714	
555.22	12140	
555.42	14174	
555.61	13913	
555.8	11972	
556	12263	
556.19	12944	
556.39	14350	
556.58	12073	
556.78	11914	
556.97	13747	
557.16	13429	
557.36	13254	
557.55	11764	
557.75	12659	
557.94	14560	
558.13	11787	
558.33	11533	
558.52	14460	
558.72	13124	
558.91	11711	
559.1	11899	
559.3	12893	
559.49	12578	
559.69	11184	
559.88	12250	
560.07	13753	
560.27	14150	
560.46	12410	
560.66	12626	
560.85	13424	
561.04	12641	
561.24	11647	
561.43	11750	
561.63	12941	
561.82	13242	
562.01	13155	
562.21	12222	
562.4	13586	
562.59	14771	
562.79	11875	
562.98	11604	
563.18	13658	
563.37	15201	
563.56	12603	
563.76	11673	
563.95	13101	
564.14	13046	
564.34	12117	
564.53	11739	
564.73	13681	
564.92	14159	
565.11	12170	
565.31	11694	
565.5	14418	
565.69	13326	
565.89	11879	
566.08	12269	
566.27	14270	
566.47	14911	
566.66	13008	
566.85	11551	
567.05	13983	
567.24	13215	
567.44	11968	
567.63	13296	
567.82	14283	
568.02	13998	
568.21	11960	
568.4	12429	
568.6	13876	
568.79	13929	
568.98	11858	
569.18	12170	
569.37	13914	
569.56	16053	
569.76	12549	
569.95	13617	
570.14	14339	
570.34	14473	
570.53	12040	
570.72	12125	
570.91	14891	
571.11	13988	
571.3	12641	
571.49	13540	
571.69	14074	
571.88	13601	
572.07	13376	
572.27	13222	
572.46	13723	
572.65	14907	
572.85	12516	
573.04	13008	
573.23	15038	
573.43	14292	
573.62	12168	
573.81	13033	
574	14265	
574.2	14293	
574.39	12682	
574.58	12962	
574.78	15419	
574.97	14740	
575.16	13384	
575.36	13649	
575.55	15168	
575.74	15173	
575.93	12498	
576.13	13711	
576.32	14524	
576.51	15225	
576.71	13104	
576.9	14509	
577.09	15522	
577.28	14867	
577.48	13546	
577.67	12592	
577.86	14576	
578.05	15011	
578.25	13252	
578.44	13230	
578.63	14855	
578.83	16185	
579.02	12672	
579.21	14420	
579.4	15042	
579.6	14805	
579.79	13459	
579.98	15801	
580.17	15356	
580.37	15565	
580.56	12864	
580.75	13694	
580.94	15970	
581.14	15768	
581.33	14283	
581.52	13097	
581.71	15432	
581.91	16128	
582.1	12778	
582.29	13411	
582.48	14995	
582.68	14988	
582.87	14072	
583.06	13607	
583.25	15380	
583.45	15221	
583.64	14458	
583.83	15096	
584.02	14944	
584.21	15398	
584.41	14265	
584.6	13631	
584.79	15092	
584.98	16016	
585.18	13044	
585.37	13059	
585.56	14792	
585.75	15538	
585.94	13182	
586.14	14103	
586.33	16147	
586.52	15199	
586.71	13898	
586.91	13598	
587.1	14515	
587.29	15566	
587.48	13321	
587.67	13197	
587.87	15320	
588.06	15273	
588.25	14610	
588.44	13810	
588.63	14757	
588.83	15627	
589.02	13270	
589.21	13188	
589.4	14562	
589.59	14401	
589.78	12179	
589.98	12521	
590.17	13773	
590.36	14454	
590.55	11594	
590.74	12242	
590.94	15439	
591.13	13908	
591.32	11845	
591.51	11398	
591.7	14321	
591.89	13886	
592.09	11717	
592.28	12299	
592.47	13297	
592.66	15278	
592.85	11949	
593.05	12226	
593.24	13835	
593.43	14778	
593.62	12166	
593.81	12618	
594	13883	
594.19	14343	
594.39	12148	
594.58	11996	
594.77	14362	
594.96	14937	
595.15	11989	
595.34	12639	
595.54	14328	
595.73	13330	
595.92	11287	
596.11	12367	
596.3	14692	
596.49	13280	
596.68	12027	
596.88	12682	
597.07	14397	
597.26	13188	
597.45	11604	
597.64	13019	
597.83	13515	
598.02	14247	
598.22	11753	
598.41	12426	
598.6	13777	
598.79	13269	
598.98	11724	
599.17	12782	
599.36	13970	
599.55	15130	
599.74	13943	
599.94	13715	
600.13	14428	
600.32	13218	
600.51	11577	
600.7	11728	
600.89	15063	
601.08	15235	
601.27	11505	
601.47	12566	
601.66	14347	
601.85	14985	
602.04	12108	
602.23	12140	
602.42	13379	
602.61	14058	
602.8	11989	
602.99	11820	
603.18	13667	
603.37	13956	
603.57	12351	
603.76	12930	
603.95	14574	
604.14	14229	
604.33	11832	
604.52	12262	
604.71	13945	
604.9	13577	
605.09	12863	
605.28	12794	
605.47	14600	
605.66	14192	
605.86	12587	
606.05	11852	
606.24	14532	
606.43	13163	
606.62	12226	
606.81	13044	
607	14417	
607.19	13756	
607.38	11663	
607.57	11890	
607.76	13326	
607.95	12874	
608.14	12349	
608.33	12942	
608.52	13388	
608.72	14384	
608.91	11554	
609.1	11426	
609.29	13525	
609.48	12942	
609.67	12382	
609.86	11401	
610.05	12992	
610.24	13421	
610.43	11388	
610.62	10918	
610.81	14440	
611	14420	
611.19	11500	
611.38	12209	
611.57	13667	
611.76	15096	
611.95	11279	
612.14	10923	
612.33	13603	
612.52	13062	
612.71	11794	
612.9	10911	
613.09	12576	
613.28	15004	
613.47	11488	
613.66	12491	
613.85	13632	
614.04	13145	
614.24	11665	
614.43	10760	
614.62	13721	
614.81	13701	
615	12135	
615.19	12357	
615.38	12899	
615.57	13367	
615.76	12088	
615.95	13063	
616.14	13941	
616.33	13448	
616.52	12401	
616.71	12762	
616.9	13831	
617.09	13712	
617.28	11817	
617.47	13306	
617.66	12945	
617.85	12901	
618.04	12818	
618.22	12187	
618.41	13387	
618.6	14508	
618.79	12204	
618.98	12042	
619.17	14902	
619.36	13209	
619.55	12213	
619.74	12184	
619.93	13963	
620.12	13523	
620.31	12968	
620.5	13044	
620.69	14844	
620.88	15229	
621.07	13858	
621.26	12865	
621.45	14458	
621.64	14481	
621.83	12998	
622.02	12111	
622.21	14433	
622.4	14308	
622.59	13568	
622.78	13414	
622.97	13936	
623.16	15052	
623.35	12899	
623.54	12243	
623.72	14170	
623.91	14377	
624.1	13474	
624.29	11955	
624.48	15571	
624.67	14663	
624.86	13276	
625.05	12413	
625.24	15575	
625.43	13897	
625.62	15042	
625.81	12594	
626	14919	
626.19	14341	
626.38	13409	
626.56	12846	
626.75	14173	
626.94	14955	
627.13	13497	
627.32	12112	
627.51	14906	
627.7	16434	
627.89	12227	
628.08	13606	
628.27	13978	
628.46	14104	
628.65	12443	
628.83	12085	
629.02	14635	
629.21	13981	
629.4	12968	
629.59	13183	
629.78	14003	
629.97	15026	
630.16	13323	
630.35	12682	
630.54	15357	
630.72	15253	
630.91	12659	
631.1	13151	
631.29	14513	
631.48	14836	
631.67	13315	
631.86	12609	
632.05	14050	
632.24	14188	
632.42	12311	
632.61	12903	
632.8	14374	
632.99	13911	
633.18	13119	
633.37	13512	
633.56	14647	
633.75	14415	
633.93	12947	
634.12	12664	
634.31	15229	
634.5	15080	
634.69	12768	
634.88	13267	
635.07	14233	
635.25	14913	
635.44	13746	
635.63	13943	
635.82	14163	
636.01	13461	
636.2	13500	
636.39	13076	
636.57	15211	
636.76	14829	
636.95	12418	
637.14	13774	
637.33	14528	
637.52	15647	
637.7	12159	
637.89	13303	
638.08	14246	
638.27	15709	
638.46	13355	
638.65	13737	
638.83	15604	
639.02	13906	
639.21	13164	
639.4	13702	
639.59	14334	
639.78	13882	
639.96	12323	
640.15	12241	
640.34	14203	
640.53	14287	
640.72	11909	
640.91	12360	
641.09	13486	
641.28	14900	
641.47	12306	
641.66	13162	
641.85	14168	
642.03	14341	
642.22	12852	
642.41	12332	
642.6	13545	
642.79	12990	
642.97	12069	
643.16	12878	
643.35	13471	
643.54	13246	
643.73	11977	
643.91	12653	
644.1	13044	
644.29	13766	
644.48	11922	
644.67	12047	
644.85	13259	
645.04	13637	
645.23	11517	
645.42	11891	
645.6	12910	
645.79	14063	
645.98	11508	
646.17	10540	
646.36	12340	
646.54	13073	
646.73	12221	
646.92	11002	
647.11	12630	
647.29	13809	
647.48	11194	
647.67	11081	
647.86	14009	
648.05	14152	
648.23	11439	
648.42	12801	
648.61	13217	
648.8	13121	
648.98	10970	
649.17	11307	
649.36	12534	
649.55	11957	
649.73	10854	
649.92	11909	
650.11	12585	
650.3	12908	
650.48	11206	
650.67	11021	
650.86	13114	
651.05	11944	
651.23	11106	
651.42	11063	
651.61	12405	
651.79	12538	
651.98	11214	
652.17	10892	
652.36	12933	
652.54	12075	
652.73	10907	
652.92	10700	
653.11	12964	
653.29	12934	
653.48	10147	
653.67	11183	
653.85	12729	
654.04	13707	
654.23	11243	
654.42	10874	
654.6	11945	
654.79	12643	
654.98	10131	
655.16	10569	
655.35	11273	
655.54	11185	
655.73	9806.4	
655.91	9716.9	
656.1	12203	
656.29	11004	
656.47	9265.7	
656.66	11133	
656.85	11415	
657.03	11473	
657.22	10069	
657.41	10219	
657.59	11824	
657.78	11629	
657.97	9974.3	
658.16	10809	
658.34	12531	
658.53	12997	
658.72	11540	
658.9	12131	
659.09	11991	
659.28	12069	
659.46	10446	
659.65	10506	
659.84	11925	
660.02	12310	
660.21	10480	
660.4	10297	
660.58	12848	
660.77	12188	
660.96	10875	
661.14	10048	
661.33	13275	
661.52	13145	
661.7	9910.1	
661.89	13852	
662.08	11774	
662.26	11372	
662.45	10183	
662.64	10200	
662.82	12456	
663.01	11675	
663.2	10252	
663.38	11060	
663.57	12206	
663.75	12278	
663.94	10712	
664.13	11865	
664.31	11606	
664.5	12405	
664.69	10971	
664.87	11540	
665.06	11454	
665.25	12234	
665.43	11627	
665.62	11841	
665.8	12432	
665.99	11781	
666.18	10628	
666.36	10714	
666.55	12368	
666.74	12395	
666.92	10079	
667.11	11898	
667.29	11660	
667.48	12430	
667.67	11434	
667.85	10473	
668.04	11815	
668.22	11794	
668.41	10555	
668.6	10818	
668.78	11554	
668.97	11706	
669.15	10976	
669.34	9773.6	
669.53	11588	
669.71	11938	
669.9	10009	
670.08	10732	
670.27	11597	
670.46	12151	
670.64	11016	
670.83	11222	
671.01	11423	
671.2	12088	
671.38	10105	
671.57	10023	
671.76	12659	
671.94	13250	
672.13	9970.9	
672.31	11135	
672.5	12351	
672.69	11648	
672.87	10205	
673.06	10420	
673.24	11995	
673.43	11616	
673.61	10825	
673.8	10450	
673.98	12148	
674.17	12419	
674.36	11052	
674.54	10999	
674.73	11897	
674.91	12193	
675.1	10686	
675.28	10261	
675.47	11733	
675.65	12381	
675.84	10448	
676.03	10871	
676.21	11528	
676.4	11140	
676.58	11318	
676.77	11080	
676.95	13073	
677.14	11620	
677.32	10095	
677.51	9986.6	
677.69	12283	
677.88	11066	
678.06	10049	
678.25	10028	
678.44	11962	
678.62	11581	
678.81	9774.3	
678.99	10819	
679.18	12661	
679.36	12219	
679.55	10400	
679.73	11034	
679.92	12162	
680.1	11430	
680.29	11635	
680.47	10391	
680.66	11391	
680.84	12316	
681.03	9766.1	
681.21	10991	
681.4	11496	
681.58	11502	
681.77	10204	
681.95	10019	
682.14	12402	
682.32	12764	
682.51	11142	
682.69	9815.2	
682.88	11343	
683.06	12030	
683.25	10748	
683.43	11143	
683.62	11561	
683.8	12174	
683.99	11264	
684.17	10646	
684.36	12965	
684.54	11528	
684.73	9538.8	
684.91	9837.1	
685.1	11847	
685.28	10981	
685.46	9998.2	
685.65	10158	
685.83	11476	
686.02	10862	
686.2	9213.8	
686.39	9496.4	
686.57	10508	
686.76	12348	
686.94	9585.2	
687.13	9707.4	
687.31	11574	
687.5	11164	
687.68	9191.3	
687.86	10550	
688.05	12983	
688.23	10605	
688.42	10628	
688.6	9727.2	
688.79	11172	
688.97	11041	
689.16	10258	
689.34	9085.5	
689.52	12039	
689.71	12149	
689.89	10534	
690.08	9881.4	
690.26	11555	
690.45	11411	
690.63	10873	
690.81	10163	
691	11239	
691.18	11296	
691.37	10163	
691.55	12388	
691.74	11137	
691.92	13129	
692.1	10185	
692.29	9538.1	
692.47	11280	
692.66	10522	
692.84	9723.1	
693.02	10402	
693.21	10722	
693.39	11262	
693.58	10431	
693.76	9899.2	
693.94	12502	
694.13	12349	
694.31	9988.6	
694.5	11073	
694.68	11140	
694.86	11687	
695.05	10436	
695.23	10879	
695.42	12208	
695.6	14600	
695.78	11133	
695.97	10237	
696.15	12287	
696.34	11597	
696.52	9885.5	
696.7	10876	
696.89	11934	
697.07	11305	
697.25	10650	
697.44	12327	
697.62	11725	
697.81	12184	
697.99	10313	
698.17	10857	
698.36	10996	
698.54	11705	
698.72	10604	
698.91	9590	
699.09	11245	
699.28	11056	
699.46	10251	
699.64	10135	
699.83	10988	
700.01	12336	
700.19	10900	
700.38	9270.5	
700.56	12285	
700.74	11191	
700.93	9714.9	
701.11	10525	
701.29	11789	
701.48	12983	
701.66	9932.6	
701.84	10181	
702.03	11366	
702.21	12032	
702.39	9514.9	
702.58	10314	
702.76	11813	
702.94	11979	
703.13	9605.7	
703.31	12228	
703.49	11163	
703.68	12402	
703.86	9739.5	
704.04	10914	
704.23	11480	
704.41	11975	
704.59	10028	
704.78	11121	
704.96	12860	
705.14	12127	
705.33	9700.5	
705.51	10555	
705.69	11376	
705.87	12242	
706.06	10831	
706.24	9648	
706.42	11741	
706.61	12009	
706.79	10904	
706.97	9665	
707.16	11193	
707.34	11673	
707.52	10757	
707.7	9905.3	
707.89	11262	
708.07	11000	
708.25	10815	
708.44	11034	
708.62	11279	
708.8	12350	
708.98	10936	
709.17	9955.2	
709.35	11590	
709.53	11516	
709.72	9566.7	
709.9	10088	
710.08	11832	
710.26	11723	
710.45	11205	
710.63	9850	
710.81	11448	
710.99	11321	
711.18	10451	
711.36	9947	
711.54	11177	
711.72	11901	
711.91	10051	
712.09	9238.4	
712.27	11247	
712.45	12289	
712.64	10136	
712.82	8966.7	
713	10415	
713.18	10566	
713.37	9035	
713.55	10266	
713.73	11459	
713.91	10019	
714.1	9235	
714.28	8574.8	
714.46	10825	
714.64	9845.3	
714.83	7679.9	
715.01	8394.6	
715.19	9554.5	
715.37	8791.9	
715.55	7886.7	
715.74	8057.4	
715.92	10260	
716.1	8256	
716.28	9172.9	
716.47	8259.5	
716.65	8789.9	
716.83	8952.4	
717.01	7862.8	
717.19	7946.8	
717.38	11060	
717.56	8483.4	
717.74	8198	
717.92	7277.8	
718.1	9780.4	
718.29	8901.8	
718.47	6950.8	
718.65	7722.2	
718.83	9837.1	
719.01	10019	
719.2	7163.1	
719.38	8387.8	
719.56	9719	
719.74	11386	
719.92	7913.4	
720.11	9089.6	
720.29	9752.4	
720.47	8772.1	
720.65	7266.2	
720.83	8174.1	
721.02	8880	
721.2	8492.2	
721.38	8036.2	
721.56	7224.6	
721.74	8015.7	
721.92	8281.3	
722.11	8392.6	
722.29	8011.7	
722.47	9450	
722.65	8590.5	
722.83	7031.4	
723.01	8052.6	
723.2	8667.7	
723.38	8937.3	
723.56	6490.7	
723.74	7642.3	
723.92	8092.2	
724.1	9241.1	
724.29	7092.1	
724.47	8241.7	
724.65	8259.5	
724.83	8060.1	
725.01	6792.4	
725.19	7754.3	
725.37	7985.7	
725.56	8217.8	
725.74	6551.5	
725.92	6991.1	
726.1	8059.4	
726.28	8334.6	
726.46	7363.1	
726.64	6974	
726.83	8232.2	
727.01	8518.9	
727.19	6538.5	
727.37	7456	
727.55	8430.8	
727.73	8846.5	
727.91	6518.7	
728.09	6363.7	
728.28	8985.8	
728.46	9449.3	
728.64	7539.3	
728.82	7421.2	
729	10043	
729.18	9214.5	
729.36	6583.5	
729.54	8994	
729.72	10318	
729.91	8575.5	
730.09	8678.6	
730.27	7457.3	
730.45	8419.9	
730.63	9154.4	
730.81	8090.8	
730.99	7025.9	
731.17	9635.7	
731.35	8227.4	
731.53	7659.4	
731.71	7250.5	
731.9	9366	
732.08	9566.7	
732.26	7427.3	
732.44	7055.9	
732.62	9471.2	
732.8	9115.5	
732.98	7850.5	
733.16	6759	
733.34	8934.6	
733.52	7636.2	
733.7	7260	
733.88	7511.3	
734.07	8678.6	
734.25	8420.6	
734.43	6676.4	
734.61	8348.2	
734.79	10061	
734.97	8317.5	
735.15	6828.6	
735.33	7230.7	
735.51	8635.6	
735.69	8331.8	
735.87	8499.8	
736.05	7299.6	
736.23	8396.7	
736.41	8111.3	
736.59	7004.1	
736.77	7226.6	
736.95	8925	
737.13	8206.9	
737.32	6649.1	
737.5	6916.7	
737.68	9429.5	
737.86	8082.6	
738.04	6326.9	
738.22	8320.2	
738.4	7715.4	
738.58	8073.1	
738.76	6984.9	
738.94	5896.8	
739.12	7855.3	
739.3	7737.9	
739.48	7649.2	
739.66	7301	
739.84	8184.4	
740.02	8165.3	
740.2	5957.5	
740.38	6310.5	
740.56	8550.3	
740.74	7337.2	
740.92	7109.9	
741.1	6877.8	
741.28	7862.2	
741.46	7647.1	
741.64	6460.7	
741.82	7017.7	
742	7875.1	
742.18	7847.1	
742.36	6645	
742.54	6191.7	
742.72	8374.1	
742.9	7008.8	
743.08	7040.2	
743.26	5681.1	
743.44	8550.3	
743.62	8348.2	
743.8	7092.1	
743.98	6056.5	
744.16	8030.8	
744.34	7638.2	
744.52	6925.5	
744.7	6849.8	
744.88	8114.1	
745.06	7601.4	
745.24	6909.8	
745.42	7012.9	
745.6	8161.8	
745.78	7866.9	
745.96	5609.4	
746.14	5935	
746.32	8882.7	
746.5	7993.2	
746.68	6439.5	
746.86	5954.1	
747.03	8453.3	
747.21	6673	
747.39	6470.9	
747.57	5927.5	
747.75	7595.9	
747.93	7972.1	
748.11	5843.5	
748.29	5812.8	
748.47	9208.4	
748.65	7214.3	
748.83	6577.4	
749.01	6277	
749.19	7685.3	
749.37	6804	
749.55	6130.9	
749.73	6103.6	
749.91	7297.6	
750.09	7032.7	
750.26	6212.9	
750.44	5568.4	
750.62	7365.2	
750.8	7300.3	
750.98	5445.5	
751.16	5704.3	
751.34	7363.1	
751.52	6669.6	
751.7	6500.9	
751.88	5343.8	
752.06	7825.3	
752.24	7634.1	
752.42	5313.8	
752.59	5661.3	
752.77	7141.9	
752.95	8443.8	
753.13	6422.4	
753.31	5695.4	
753.49	6862.7	
753.67	7329	
753.85	6008.7	
754.03	5591	
754.21	7542	
754.38	7832.1	
754.56	5702.2	
754.74	4606.6	
754.92	6563.7	
755.1	7382.2	
755.28	4586.8	
755.46	4614.8	
755.64	8028	
755.82	8262.9	
755.99	4839.4	
756.17	4954.7	
756.35	5408	
756.53	7083.9	
756.71	3616.7	
756.89	4592.2	
757.07	6577.4	
757.25	5659.9	
757.42	5258.5	
757.6	6122.1	
757.78	6666.1	
757.96	5597.8	
758.14	4883	
758.32	4456.4	
758.5	5086.5	
758.67	6049.7	
758.85	4702.1	
759.03	4814.1	
759.21	6274.3	
759.39	5672.2	
759.57	4330.8	
759.75	5541.8	
759.92	6925.5	
760.1	6111.8	
760.28	5905.7	
760.46	6178	
760.64	5882.4	
760.82	5661.3	
760.99	5512.4	
761.17	4809.3	
761.35	6755.6	
761.53	5701.5	
761.71	5019.6	
761.89	5778	
762.06	6654.5	
762.24	6098.2	
762.42	5102.9	
762.6	4906.3	
762.78	6122.1	
762.96	6797.9	
763.13	5464.7	
763.31	5164.3	
763.49	7006.8	
763.67	6073.6	
763.85	5956.9	
764.02	6668.2	
764.2	7286.7	
764.38	6366.5	
764.56	5000.5	
764.74	5907.7	
764.91	7422.5	
765.09	6141.2	
765.27	4582.7	
765.45	4418.8	
765.63	7397.3	
765.8	7232.7	
765.98	4154	
766.16	4491.2	
766.34	5677.7	
766.52	5502.9	
766.69	5493.3	
766.87	4306.2	
767.05	6086.6	
767.23	6873.7	
767.41	4684.4	
767.58	4860.5	
767.76	6639.5	
767.94	6744	
768.12	4665.3	
768.29	5406	
768.47	6195.8	
768.65	6981.5	
768.83	4298.7	
769	5580.7	
769.18	5743.9	
769.36	6466.1	
769.54	5500.2	
769.72	4370.4	
769.89	6701	
770.07	6886.6	
770.25	4620.9	
770.43	5920.7	
770.6	7553.6	
770.78	7957.7	
770.96	4861.9	
771.14	5492	
771.31	6569.9	
771.49	5840.1	
771.67	3938.9	
771.85	4297.3	
772.02	5083.7	
772.2	5924.1	
772.38	5033.9	
772.55	4515.1	
772.73	6212.2	
772.91	6021.7	
773.09	4874.8	
773.26	4941.1	
773.44	6183.5	
773.62	5732.3	
773.8	4326	
773.97	4072.7	
774.15	6225.1	
774.33	5812.1	
774.5	4225.6	
774.68	4629.8	
774.86	6408.1	
775.04	5805.3	
775.21	4336.9	
775.39	4205.2	
775.57	6031.3	
775.74	6573.3	
775.92	4155.3	
776.1	3969	
776.27	6067.4	
776.45	7359.7	
776.63	4317.8	
776.81	3744.4	
776.98	5722.7	
777.16	6839.5	
777.34	4452.3	
777.51	4726	
777.69	5638.1	
777.87	5454.4	
778.04	4476.2	
778.22	5156.8	
778.4	5517.2	
778.57	6183.5	
778.75	3654.9	
778.93	3978.5	
779.1	5228.5	
779.28	5096	
779.46	3701.4	
779.64	4178.5	
779.81	6337.8	
779.99	7292.1	
780.17	5052.3	
780.34	5208	
780.52	5732.9	
780.69	5971.2	
780.87	4569.7	
781.05	4113	
781.22	5823.7	
781.4	5941.2	
781.58	4211.3	
781.75	3388	
781.93	5753.4	
782.11	5214.8	
782.28	5205.3	
782.46	4257.7	
782.64	5034.6	
782.81	5986.2	
782.99	4311	
783.17	4259.1	
783.34	5902.2	
783.52	5130.8	
783.69	4519.2	
783.87	5442.1	
784.05	5123.3	
784.22	5190.9	
784.4	5342.5	
784.58	4629.8	
784.75	6164.4	
784.93	5205.3	
785.1	4279.6	
785.28	4902.2	
785.46	5922.7	
785.63	5166.3	
785.81	4186	
785.99	4038.6	
786.16	5395.7	
786.34	5747.3	
786.51	4126.7	
786.69	4539.7	
786.87	4894.6	
787.04	5503.6	
787.22	3932.1	
787.39	4979.3	
787.57	5160.9	
787.75	6357.6	
787.92	5187.5	
788.1	5112.4	
788.27	5253	
788.45	4966.3	
788.63	4820.9	
788.8	3442.6	
788.98	5767.1	
789.15	4911	
789.33	3494.5	
789.5	4305.5	
789.68	6197.2	
789.86	6304.3	
790.03	4690.5	
790.21	4167.6	
790.38	6100.2	
790.56	5397.8	
790.73	3940.3	
790.91	4015.4	
791.09	5251.7	
791.26	6033.3	
791.44	4210.6	
791.61	3663.1	
791.79	5148.6	
791.96	5261.2	
792.14	3802.4	
792.32	3298.6	
792.49	5175.2	
792.67	5282.4	
792.84	3833.1	
793.02	3567.6	
793.19	5656.5	
793.37	6494.1	
793.54	3292.5	
793.72	3663.8	
793.89	6590.4	
794.07	5203.9	
794.25	4360.8	
794.42	3475.4	
794.6	6351.4	
794.77	5897.5	
794.95	4565.6	
795.12	4024.3	
795.3	5188.2	
795.47	5883.8	
795.65	4465.9	
795.82	4246.8	
796	5009.3	
796.17	6984.9	
796.35	4145.1	
796.52	4859.1	
796.7	5722	
796.87	5896.8	
797.05	5115.8	
797.22	5063.3	
797.4	5812.1	
797.57	6918	
797.75	4228.4	
797.92	4032.5	
798.1	6130.9	
798.27	5174.5	
798.45	3420.8	
798.62	3689.1	
798.8	5532.2	
798.97	6069.5	
799.15	4532.2	
799.32	4204.5	
799.5	4736.3	
799.67	5564.3	
799.85	4668.7	
800.02	3375.1	
800.2	5090.6	
800.37	5449	
800.55	4837.3	
800.72	3952.6	
800.9	5974.6	
801.07	6535.1	
801.25	5416.2	
801.42	4437.9	
801.6	6063.4	
801.77	5754.8	
801.95	4124.6	
802.12	3907.5	
802.29	5717.9	
802.47	5668.1	
802.64	4348.5	
802.82	3239.9	
802.99	5058.5	
803.17	6229.2	
803.34	4246.8	
803.52	3831.7	
803.69	6861.4	
803.87	4837.3	
804.04	4230.4	
804.21	4283	
804.39	6311.8	
804.56	5361.6	
804.74	3547.8	
804.91	4415.4	
805.09	5168.4	
805.26	5301.5	
805.44	3634.5	
805.61	4033.8	
805.78	5834.7	
805.96	5877.7	
806.13	4416.1	
806.31	4726	
806.48	4662.5	
806.66	5358.2	
806.83	4382	
807	4268.6	
807.18	5057.1	
807.35	5591	
807.53	4238.6	
807.7	3382.6	
807.87	6384.2	
808.05	5143.8	
808.22	4744.5	
808.4	3383.2	
808.57	5191.6	
808.74	4841.4	
808.92	3859.1	
809.09	4919.2	
809.27	5012.1	
809.44	5703.6	
809.61	3417.4	
809.79	3831.7	
809.96	6338.5	
810.14	5948.7	
810.31	3334.8	
810.48	4079.6	
810.66	5239.4	
810.83	6133	
811.01	3908.9	
811.18	4359.4	
811.35	5894.7	
811.53	4571.7	
811.7	4726	
811.87	4474.1	
812.05	5122.7	
812.22	5080.3	
812.39	3759.4	
812.57	3652.2	
812.74	5150.6	
812.92	7038.2	
813.09	4065.2	
813.26	4457.1	
813.44	6643.6	
813.61	5122.7	
813.78	3418.1	
813.96	4588.1	
814.13	5212.1	
814.3	4862.6	
814.48	4941.1	
814.65	4083.6	
814.82	6512.5	
815	4927.4	
815.17	4171.7	
815.34	5144.5	
815.52	5101.5	
815.69	5113.1	
815.87	4190.8	
816.04	3566.9	
816.21	5246.9	
816.38	4537.6	
816.56	4067.9	
816.73	3766.9	
816.9	6524.8	
817.08	6007.4	
817.25	3771	
817.42	4786.8	
817.6	4751.3	
817.77	5225.1	
817.94	4305.5	
818.12	3735.5	
818.29	4924.7	
818.46	7750.2	
818.64	3874.1	
818.81	3666.5	
818.98	4835.9	
819.16	7068.9	
819.33	4512.4	
819.5	4201.7	
819.67	5545.2	
819.85	6264.1	
820.02	4050.2	
820.19	4388.1	
820.37	5399.8	
820.54	4976.6	
820.71	4231.8	
820.88	5233.2	
821.06	5434.6	
821.23	4939	
821.4	4274.1	
821.58	4216.8	
821.75	5941.8	
821.92	5330.2	
822.09	3436.5	
822.27	3476.1	
822.44	5185.5	
822.61	5047.6	
822.79	3439.9	
822.96	6630.6	
823.13	5675.6	
823.3	4890.5	
823.48	3975.1	
823.65	3596.2	
823.82	5929.6	
823.99	4722.6	
824.17	5114.5	
824.34	3643.3	
824.51	6852.5	
824.68	5254.4	
824.86	3745.7	
825.03	4239.3	
825.2	5208.7	
825.37	6294.1	
825.55	3739.6	
825.72	4192.2	
825.89	6949.4	
826.06	6451.1	
826.24	4098	
826.41	4169	
826.58	6262	
826.75	5528.2	
826.92	3214.6	
827.1	3549.1	
827.27	8676.6	
827.44	6903	
827.61	3915.7	
827.79	4747.2	
827.96	4937.7	
828.13	5304.2	
828.3	4026.3	
828.47	3430.3	
828.65	5395	
828.82	5350	
828.99	5305.6	
829.16	4623.6	
829.34	5803.9	
829.51	5578	
829.68	4260.5	
829.85	4476.9	
830.02	6080.4	
830.2	5813.5	
830.37	3178.4	
830.54	5094	
830.71	6587.6	
830.88	5168.4	
831.05	3271.3	
831.23	3825.6	
831.4	6332.3	
831.57	7152.2	
831.74	3953.3	
831.91	3409.2	
832.09	5425.8	
832.26	5837.4	
832.43	4034.5	
832.6	4573.8	
832.77	5459.2	
832.94	6182.1	
833.12	3185.3	
833.29	3937.6	
833.46	5541.1	
833.63	7371.3	
833.8	4355.3	
833.97	4087.7	
834.15	5874.9	
834.32	5573.9	
834.49	4164.9	
834.66	4278.2	
834.83	6101.6	
835	4908.3	
835.17	3843.4	
835.35	3837.9	
835.52	5713.8	
835.69	5541.1	
835.86	4079.6	
836.03	3424.9	
836.2	5722	
836.37	5364.3	
836.55	3997.6	
836.72	3757.3	
836.89	5350	
837.06	5840.1	
837.23	4111	
837.4	4478.2	
837.57	6699.6	
837.75	7357.7	
837.92	3677.5	
838.09	3909.6	
838.26	5350	
838.43	6086.6	
838.6	4207.9	
838.77	3813.3	
838.94	7090.8	
839.11	6610.8	
839.29	4055.7	
839.46	3189.4	
839.63	5709.7	
839.8	5498.1	
839.97	3927.3	
840.14	3966.9	
840.31	5497.4	
840.48	5770.5	
840.65	3211.2	
840.82	3971	
841	5816.9	
841.17	5752.7	
841.34	3618.8	
841.51	3643.3	
841.68	5699.5	
841.85	5441.5	
842.02	3784	
842.19	3100.6	
842.36	5497.4	
842.53	5526.8	
842.7	3621.5	
842.87	4486.4	
843.05	7378.1	
843.22	5503.6	
843.39	3377.8	
843.56	3736.2	
843.73	5197.1	
843.9	5877.7	
844.07	5909.1	
844.24	4952.7	
844.41	8575.5	
844.58	5003.2	
844.75	3510.9	
844.92	3788.1	
845.09	5790.3	
845.26	5728.9	
845.43	3631	
845.6	3805.1	
845.77	5814.2	
845.94	5476.3	
846.12	3992.2	
846.29	4175.8	
846.46	6009.4	
846.63	5748	
846.8	3577.1	
846.97	4257.7	
847.14	6217.6	
847.31	5698.1	
847.48	4077.5	
847.65	4442	
847.82	6073.6	
847.99	5992.4	
848.16	4827.1	
848.33	4461.8	
848.5	5345.2	
848.67	6232.7	
848.84	3544.4	
849.01	3742.3	
849.18	5172.5	
849.35	4840.7	
849.52	4488.5	
849.69	3536.8	
849.86	5942.5	
850.03	6227.9	
850.2	3591.5	
850.37	4389.5	
850.54	6138.4	
850.71	5462.6	
850.88	4308.9	
851.05	3538.2	
851.22	5735.7	
851.39	6335	
851.56	3364.8	
851.73	4130.8	
851.9	5018.2	
852.07	5987.6	
852.24	3944.4	
852.41	3562.8	
852.58	5582.1	
852.75	5159.5	
852.92	4064.5	
853.09	3524.6	
853.26	5325.4	
853.43	6253.1	
853.6	3507.5	
853.77	3052.8	
853.94	6414.2	
854.11	5672.9	
854.28	5327.4	
854.44	3877.5	
854.61	6799.3	
854.78	6158.9	
854.95	3532.1	
855.12	4502.1	
855.29	4629.8	
855.46	6318	
855.63	3537.5	
855.8	4946.5	
855.97	5350	
856.14	6059.3	
856.31	5119.2	
856.48	3863.8	
856.65	5294.7	
856.82	5008	
856.99	3442	
857.16	3835.8	
857.33	7086	
857.49	5445.5	
857.66	3843.4	
857.83	4182.6	
858	5322.7	
858.17	5589.6	
858.34	3362.8	
858.51	3512.3	
858.68	6440.9	
858.85	6483.9	
859.02	4169.7	
859.19	4438.6	
859.36	5026.4	
859.52	5103.5	
859.69	3644.7	
859.86	4193.6	
860.03	5105.6	
860.2	6370.5	
860.37	3208.5	
860.54	3638.6	
860.71	5967.8	
860.88	6465.4	
861.05	4019.5	
861.21	4534.2	
861.38	6491.4	
861.55	4898.1	
861.72	3232.4	
861.89	4005.8	
862.06	6098.2	
862.23	6639.5	
862.4	3527.3	
862.56	3743.7	
862.73	5872.2	
862.9	5549.3	
863.07	4211.3	
863.24	3254.9	
863.41	4941.1	
863.58	5020.3	
863.75	3622.9	
863.91	4141	
864.08	6409.5	
864.25	5921.4	
864.42	4567	
864.59	5023.7	
864.76	6776.7	
864.93	5068.7	
865.09	3445.4	
865.26	3820.1	
865.43	6232	
865.6	6679.8	
865.77	3107.5	
865.94	3517	
866.1	6317.3	
866.27	6079.7	
866.44	5416.2	
866.61	3329.3	
866.78	5472.2	
866.95	5873.6	
867.11	3423.5	
867.28	3175	
867.45	6093.4	
867.62	5113.1	
867.79	4145.1	
867.96	3530.7	
868.12	5078.3	
868.29	6094.8	
868.46	3088.3	
868.63	4758.1	
868.8	6219.7	
868.97	5937.1	
869.13	3685.7	
869.3	3756	
869.47	5915.2	
869.64	6136.4	
869.81	3633.1	
869.97	3563.5	
870.14	5804.6	
870.31	6479.8	
870.48	3585.3	
870.65	4523.3	
870.81	5341.1	
870.98	5355.4	
871.15	4061.1	
871.32	3721.8	
871.48	5844.9	
871.65	6524.1	
871.82	3572.3	
871.99	3936.9	
872.16	7018.4	
872.32	6354.2	
872.49	3577.1	
872.66	3631	
872.83	6018.3	
872.99	5248.3	
873.16	4080.9	
873.33	3535.5	
873.5	5582.8	
873.67	5682.4	
873.83	3709.6	
874	4741	
874.17	5795.8	
874.34	6834.1	
874.5	4588.8	
874.67	4508.3	
874.84	6424.5	
875.01	5042.8	
875.17	5102.9	
875.34	3547.1	
875.51	5667.4	
875.68	6845	
875.84	4296.6	
876.01	5289.2	
876.18	6002.6	
876.34	5887.9	
876.51	3593.5	
876.68	3445.4	
876.85	5386.8	
877.01	6277	
877.18	5171.8	
877.35	3562.8	
877.52	5522	
877.68	4957.4	
877.85	3482.2	
878.02	3515	
878.18	5565	
878.35	5242.8	
878.52	2847.4	
878.69	4040	
878.85	6021	
879.02	5956.2	
879.19	5100.1	
879.35	3861.8	
879.52	5905	
879.69	6185.5	
879.86	3046	
880.02	3982.6	
880.19	5518.6	
880.36	6764.4	
880.52	4110.3	
880.69	4215.4	
880.86	6105	
881.02	6195.1	
881.19	3963.5	
881.36	3865.2	
881.52	5933	
881.69	5265.3	
881.86	3824.9	
882.02	3715	
882.19	6223.1	
882.36	7376.8	
882.52	3654.3	
882.69	5033.9	
882.86	5754.1	
883.02	5623	
883.19	4370.4	
883.36	4123.2	
883.52	6117.3	
883.69	6880.5	
883.86	3649.5	
884.02	3225.6	
884.19	6040.8	
884.36	5587.5	
884.52	4085	
884.69	3748.5	
884.86	5224.4	
885.02	6593.1	
885.19	3981.3	
885.36	3908.9	
885.52	5551.4	
885.69	5706.3	
885.86	5249.6	
886.02	4599.7	
886.19	6068.1	
886.35	5517.9	
886.52	3912.3	
886.69	5115.8	
886.85	5124	
887.02	6432.7	
887.19	6432.7	
887.35	6432.7	
887.52	6432.7	
887.68	6432.7	
887.85	6432.7	
888.02	6432.7	
888.18	6432.7	
888.35	6432.7	
888.51	6432.7	
888.68	6432.7	
888.85	6432.7	
889.01	6432.7	
889.18	6432.7	
889.35	6432.7	
889.51	6432.7	
889.68	6432.7	
889.84	6432.7	
890.01	6432.7	
890.17	6432.7	
890.34	6432.7	
890.51	6432.7	
890.67	6432.7	
890.84	6432.7	
891	6432.7	
891.17	6432.7	
891.34	6432.7	
891.5	6432.7	
891.67	6432.7	
891.83	6432.7	
892	6432.7	
892.16	6432.7	
892.33	6432.7	
892.5	6432.7	
892.66	6432.7	
892.83	6432.7	
892.99	6432.7	
893.16	6432.7	
893.32	6432.7	
893.49	6432.7	
893.65	6432.7	
893.82	6432.7	
893.99	6432.7	
894.15	6432.7	
894.32	6432.7	
894.48	6432.7	
894.65	6432.7	
894.81	6432.7	
894.98	6432.7	
895.14	6432.7	
895.31	6432.7	
895.47	6432.7	
895.64	6432.7	
895.81	6432.7	
895.97	6432.7	
896.14	6432.7	
896.3	6432.7	
896.47	6432.7	
896.63	6432.7	
896.8	6432.7	
896.96	6432.7	
897.13	6432.7	
897.29	6432.7	
897.46	6432.7	
897.62	6432.7	
897.79	6432.7	
897.95	6432.7	
898.12	6432.7	
898.28	6432.7	
898.45	6432.7	
898.61	6432.7	
898.78	6432.7	
898.94	6432.7	
899.11	6432.7	
899.27	6432.7	
899.44	6432.7	
899.6	6432.7	
899.77	6432.7	
899.93	6432.7	
900.1	6432.7	
900.26	6432.7	
900.43	6432.7	
900.59	6432.7	
900.76	6432.7	
900.92	6432.7	
901.09	6432.7	
901.25	6432.7	
901.42	6432.7	
901.58	6432.7	
901.75	6432.7	
901.91	6432.7	
902.07	6432.7	
902.24	6432.7	
902.4	6432.7	
902.57	6432.7	
902.73	6432.7	
902.9	6432.7	
903.06	6432.7	
903.23	6432.7	
903.39	6432.7	
903.56	6432.7	
903.72	6432.7	
903.88	6432.7	
904.05	6432.7	
904.21	6432.7	
904.38	6432.7	
904.54	6432.7	
904.71	6432.7	
904.87	6432.7	
905.03	6432.7	
905.2	6432.7	
905.36	6432.7	
905.53	6432.7	
905.69	6432.7	
905.86	6432.7	
906.02	6432.7	
906.18	6432.7	
906.35	6432.7	
906.51	6432.7	
906.68	6432.7	
906.84	6432.7	
907.01	6432.7	
907.17	6432.7	
907.33	6432.7	
907.5	6432.7	
907.66	6432.7	
907.83	6432.7	
907.99	6432.7	
908.15	6432.7	
908.32	6432.7	
908.48	6432.7	
908.65	6432.7	
908.81	6432.7	
908.97	6432.7	
909.14	6432.7	
909.3	6432.7	
909.47	6432.7	
909.63	6432.7	
909.79	6432.7	
909.96	6432.7	
910.12	6432.7	
910.28	6432.7	
910.45	6432.7	
910.61	6432.7	
910.78	6432.7	
910.94	6432.7	
911.1	6432.7	
911.27	6432.7	
911.43	6432.7	
911.59	6432.7	
911.76	6432.7	
911.92	6432.7	
912.08	6432.7	
912.25	6432.7	
912.41	6432.7	
912.57	6432.7	
912.74	6432.7	
912.9	6432.7	
913.07	6432.7	
913.23	6432.7	
913.39	6432.7	
913.56	6432.7	
913.72	6432.7	
913.88	6432.7	
914.05	6432.7	
914.21	6432.7	
914.37	6432.7	
914.54	6432.7	
914.7	6432.7	
914.86	6432.7	
915.03	6432.7	
915.19	6432.7	
