Wavelength	Intensities	
nm	a.u.	
179.22	1875.3	
179.44	1884.8	
179.65	1865.7	
179.86	1903.9	
180.08	1893.7	
180.29	4741	
180.51	3465.2	
180.72	5571.8	
180.94	6460	
181.15	3187.3	
181.37	3160	
181.58	5404.6	
181.79	5755.5	
182.01	3329.3	
182.22	3536.8	
182.44	5674.9	
182.65	4752	
182.87	4474.1	
183.08	3934.8	
183.29	6016.2	
183.51	4977.2	
183.72	3588	
183.94	5227.1	
184.15	5333.6	
184.37	5393	
184.58	3108.1	
184.79	4379.9	
185.01	5040.7	
185.22	5736.4	
185.44	4627	
185.65	3838.6	
185.86	5274.9	
186.08	4882.4	
186.29	3119.7	
186.51	3353.9	
186.72	5033.9	
186.94	5943.2	
187.15	3844	
187.36	3969	
187.58	7657.4	
187.79	5489.9	
188.01	4169	
188.22	6445	
188.43	6602.7	
188.65	5715.2	
188.86	3319.8	
189.08	3979.9	
189.29	5208	
189.5	5199.1	
189.72	3691.8	
189.93	3792.8	
190.15	5920.7	
190.36	7040.9	
190.57	4091.2	
190.79	3893.9	
191	6002.6	
191.22	5970.5	
191.43	4074.8	
191.64	3320.4	
191.86	6160.3	
192.07	5920	
192.29	3508.2	
192.5	3698.6	
192.71	5955.5	
192.93	5098.8	
193.14	3639.2	
193.35	3730	
193.57	5141.1	
193.78	5928.2	
194	3012.6	
194.21	3583.3	
194.42	4941.7	
194.64	5384.1	
194.85	4003.8	
195.07	4691.9	
195.28	5474.9	
195.49	4722.6	
195.71	4895.3	
195.92	3438.5	
196.13	5547.9	
196.35	5666	
196.56	5268.1	
196.78	4014	
196.99	6935.1	
197.2	6580.8	
197.42	4579.3	
197.63	4032.5	
197.84	4831.2	
198.06	5528.8	
198.27	3753.2	
198.48	4854.4	
198.7	5223	
198.91	5272.8	
199.13	3987.4	
199.34	3970.3	
199.55	5769.8	
199.77	4674.8	
199.98	3547.8	
200.19	4047.5	
200.41	5236	
200.62	4954	
200.83	4171.7	
201.05	4517.1	
201.26	5250.3	
201.47	5030.5	
201.69	3521.1	
201.9	3445.4	
202.11	5333.6	
202.33	6322.1	
202.54	3791.5	
202.76	4257.7	
202.97	5539.8	
203.18	5494.7	
203.4	4261.1	
203.61	4093.9	
203.82	5435.3	
204.04	5010.7	
204.25	4113	
204.46	3953.3	
204.68	5379.3	
204.89	5588.9	
205.1	3882.9	
205.32	3467.9	
205.53	5756.8	
205.74	5929.6	
205.96	2947.7	
206.17	4113.7	
206.38	5722.7	
206.6	5896.1	
206.81	4625.7	
207.02	3742.3	
207.24	5567.1	
207.45	6062	
207.66	3799	
207.88	3287	
208.09	5571.8	
208.3	5351.3	
208.52	3456.3	
208.73	3794.2	
208.94	5362.9	
209.15	6108.4	
209.37	3828.3	
209.58	4020.8	
209.79	5906.3	
210.01	5173.9	
210.22	3043.3	
210.43	3209.8	
210.65	5337	
210.86	5806	
211.07	3835.2	
211.29	3545	
211.5	5675.6	
211.71	5324.7	
211.93	3502	
212.14	3521.8	
212.35	5300.1	
212.56	5536.3	
212.78	4059.1	
212.99	3362.1	
213.2	6305	
213.42	5160.9	
213.63	3671.3	
213.84	3904.8	
214.06	4754	
214.27	4893.3	
214.48	3781.9	
214.69	4048.2	
214.91	6032.6	
215.12	6087.2	
215.33	4113.7	
215.55	4594.3	
215.76	6601.3	
215.97	5701.5	
216.18	3964.2	
216.4	3837.2	
216.61	5045.5	
216.82	5893.4	
217.04	3529.3	
217.25	3677.5	
217.46	6012.8	
217.67	5777.3	
217.89	3130.7	
218.1	3260.4	
218.31	5495.4	
218.53	5620.3	
218.74	3756	
218.95	3603.1	
219.16	5300.8	
219.38	6251.1	
219.59	3594.9	
219.8	4318.5	
220.01	6941.9	
220.23	5350.7	
220.44	4732.9	
220.65	3479.5	
220.87	5437.4	
221.08	6038.1	
221.29	3213.9	
221.5	4326	
221.72	7350.2	
221.93	5121.3	
222.14	4054.3	
222.35	4741	
222.57	5378.6	
222.78	5732.9	
222.99	3863.2	
223.2	4115.7	
223.42	5685.2	
223.63	5882.4	
223.84	2996.2	
224.05	2926.5	
224.27	6808.1	
224.48	6247.7	
224.69	4789.5	
224.9	4051.6	
225.12	5576.6	
225.33	5347.2	
225.54	3208.5	
225.75	3646.7	
225.97	5000.5	
226.18	5210	
226.39	3890.5	
226.6	3601.7	
226.82	5157.5	
227.03	5005.9	
227.24	4056.3	
227.45	3359.4	
227.67	5745.9	
227.88	6280.4	
228.09	4491.9	
228.3	4528.1	
228.52	5804.6	
228.73	5391.6	
228.94	3703.4	
229.15	3366.2	
229.36	5365.7	
229.58	5173.9	
229.79	3809.9	
230	4463.2	
230.21	6376	
230.43	5499.5	
230.64	4019.5	
230.85	4233.8	
231.06	5695.4	
231.28	5795.8	
231.49	3323.2	
231.7	3923.9	
231.91	5721.3	
232.12	5449	
232.34	3426.3	
232.55	3891.1	
232.76	6019.7	
232.97	5573.9	
233.18	3504.8	
233.4	3919.8	
233.61	5615.5	
233.82	5123.3	
234.03	3771.7	
234.25	3642	
234.46	7462.1	
234.67	5446.2	
234.88	4085	
235.09	3544.4	
235.31	5693.4	
235.52	5266	
235.73	4012	
235.94	3363.4	
236.15	5116.5	
236.37	6502.3	
236.58	3512.3	
236.79	3866.6	
237	5691.3	
237.21	4902.2	
237.43	4134.2	
237.64	3272	
237.85	9691.7	
238.06	4937.7	
238.27	4235.2	
238.48	3337.5	
238.7	5711.8	
238.91	5248.9	
239.12	3831.7	
239.33	3852.2	
239.54	4973.2	
239.76	5332.2	
239.97	3815.4	
240.18	3804.4	
240.39	6698.2	
240.6	5707.7	
240.82	3989.4	
241.03	3249.4	
241.24	5403.9	
241.45	6236.1	
241.66	3467.9	
241.87	4127.3	
242.09	6137.1	
242.3	6524.8	
242.51	4239.3	
242.72	3847.5	
242.93	5796.4	
243.14	5259.2	
243.36	4465.9	
243.57	4793.6	
243.78	6270.2	
243.99	5797.8	
244.2	3892.5	
244.41	3493.2	
244.63	4937.7	
244.84	5696.1	
245.05	4134.2	
245.26	3886.4	
245.47	5686.5	
245.68	5971.2	
245.9	5147.2	
246.11	4042.7	
246.32	5301.5	
246.53	5641.5	
246.74	6207.4	
246.95	3254.9	
247.16	4905.6	
247.38	5418.2	
247.59	3212.6	
247.8	3882.3	
248.01	5055.1	
248.22	5324	
248.43	3517.7	
248.64	3770.3	
248.86	4797	
249.07	5149.3	
249.28	3391.4	
249.49	3965.6	
249.7	5917.9	
249.91	6100.9	
250.12	3309.5	
250.34	3316.3	
250.55	5466	
250.76	5343.2	
250.97	3958.7	
251.18	4057.7	
251.39	6093.4	
251.6	5530.2	
251.81	4095.3	
252.03	4110.3	
252.24	5132.9	
252.45	5847.6	
252.66	3377.8	
252.87	4269.3	
253.08	5393	
253.29	7034.1	
253.5	3360.7	
253.72	4668.7	
253.93	5230.5	
254.14	6369.2	
254.35	3678.8	
254.56	3814	
254.77	5656.5	
254.98	4975.9	
255.19	3693.2	
255.41	4640.7	
255.62	5499.5	
255.83	6001.2	
256.04	4105.5	
256.25	4012.7	
256.46	6669.6	
256.67	5100.1	
256.88	3963.5	
257.09	4478.9	
257.31	5032.5	
257.52	5120.6	
257.73	4996.4	
257.94	3669.3	
258.15	5281.7	
258.36	5468.8	
258.57	4677.6	
258.78	2927.9	
258.99	5874.9	
259.2	5257.8	
259.41	3691.1	
259.63	3807.2	
259.84	6243.6	
260.05	6686.6	
260.26	4802.5	
260.47	3623.5	
260.68	6004	
260.89	5312.4	
261.1	4420.2	
261.31	3506.8	
261.52	6000.5	
261.73	6307.7	
261.95	4786.1	
262.16	4147.8	
262.37	6077	
262.58	6204	
262.79	4778.6	
263	3748.5	
263.21	5347.2	
263.42	4960.9	
263.63	3824.2	
263.84	3703.4	
264.05	5932.3	
264.26	6309.1	
264.47	4617.5	
264.69	4118.5	
264.9	6139.1	
265.11	5606	
265.32	3557.3	
265.53	3743.7	
265.74	5515.2	
265.95	4792.2	
266.16	3896.6	
266.37	4334.9	
266.58	5509	
266.79	5226.4	
267	3629	
267.21	3390.1	
267.42	4923.3	
267.63	5389.6	
267.84	3819.5	
268.06	3303.4	
268.27	5782.1	
268.48	6098.2	
268.69	3764.2	
268.9	4453.6	
269.11	6062	
269.32	4872.8	
269.53	3873.4	
269.74	3612.6	
269.95	5754.1	
270.16	4743.8	
270.37	3846.8	
270.58	4437.3	
270.79	5242.1	
271	5880.4	
271.21	4156	
271.42	3882.3	
271.63	5537	
271.84	5027.1	
272.05	3052.8	
272.26	3538.2	
272.47	5442.1	
272.68	5599.1	
272.89	3729.4	
273.11	4325.3	
273.32	5174.5	
273.53	6300.9	
273.74	4113	
273.95	4096.6	
274.16	6020.3	
274.37	5470.1	
274.58	4229.7	
274.79	3340.9	
275	5479	
275.21	6112.5	
275.42	5117.2	
275.63	4315.1	
275.84	5582.1	
276.05	7055.9	
276.26	4073.4	
276.47	3842.7	
276.68	5250.3	
276.89	6397.2	
277.1	4426.3	
277.31	3462.4	
277.52	5623.7	
277.73	5788.9	
277.94	3352.5	
278.15	3738.9	
278.36	5591.6	
278.57	5061.9	
278.78	3707.5	
278.99	4130.8	
279.2	4983.4	
279.41	5033.2	
279.62	4905.6	
279.83	3436.5	
280.04	6559	
280.25	4916.5	
280.46	4883.7	
280.67	3843.4	
280.88	5023	
281.09	6016.9	
281.3	4042	
281.51	5110.4	
281.72	5128.8	
281.93	5895.4	
282.14	3649.5	
282.35	3907.5	
282.56	5892.7	
282.77	5893.4	
282.98	3736.9	
283.19	4540.3	
283.4	7232.7	
283.61	5283.1	
283.82	3347.1	
284.03	4765.6	
284.24	5538.4	
284.45	5945.3	
284.66	4775.2	
284.87	4578.6	
285.08	5899.5	
285.29	6113.9	
285.5	3267.2	
285.71	3812	
285.92	6001.9	
286.12	6640.9	
286.33	4719.2	
286.54	3738.2	
286.75	5928.2	
286.96	5285.1	
287.17	3460.4	
287.38	4739	
287.59	5042.8	
287.8	5021.6	
288.01	3837.9	
288.22	4382	
288.43	5471.5	
288.64	4958.8	
288.85	4496	
289.06	4269.3	
289.27	5800.5	
289.48	6337.1	
289.69	4732.2	
289.9	4303.5	
290.11	6064	
290.32	5077.6	
290.53	4508.3	
290.74	4257	
290.94	5845.6	
291.15	5851	
291.36	3751.2	
291.57	4327.4	
291.78	5130.8	
291.99	4838.7	
292.2	3493.2	
292.41	4194.9	
292.62	5958.9	
292.83	5769.1	
293.04	5160.9	
293.25	3496.6	
293.46	5227.1	
293.67	5952.8	
293.88	3644	
294.09	3473.4	
294.29	4948.6	
294.5	5524.7	
294.71	3934.1	
294.92	3690.4	
295.13	5207.3	
295.34	6458.6	
295.55	3241.3	
295.76	3400.3	
295.97	5797.1	
296.18	6548	
296.39	3446.7	
296.6	3633.1	
296.81	5517.9	
297.01	5797.1	
297.22	3790.8	
297.43	3609.2	
297.64	5051.7	
297.85	5016.8	
298.06	3005.1	
298.27	3248.8	
298.48	5385.5	
298.69	5145.2	
298.9	3926	
299.11	3622.2	
299.31	4947.9	
299.52	4970.4	
299.73	4214.7	
299.94	4104.1	
300.15	5393.7	
300.36	5014.1	
300.57	4119.8	
300.78	4138.3	
300.99	5287.9	
301.2	5530.9	
301.4	3618.8	
301.61	3914.4	
301.82	5731.6	
302.03	5808.7	
302.24	4433.2	
302.45	3458.3	
302.66	5646.2	
302.87	6108.4	
303.08	3650.2	
303.29	5033.9	
303.49	5203.9	
303.7	5382.7	
303.91	3243.3	
304.12	4710.3	
304.33	4917.9	
304.54	5551.4	
304.75	3706.8	
304.96	3491.1	
305.16	5784.8	
305.37	6447.7	
305.58	3165.5	
305.79	3307.5	
306	5712.5	
306.21	4758.1	
306.42	3595.6	
306.63	5524.1	
306.83	5274.9	
307.04	5960.3	
307.25	4027	
307.46	4024.3	
307.67	4607.9	
307.88	5808	
308.09	3558	
308.29	3757.3	
308.5	5502.2	
308.71	6050.4	
308.92	3868.6	
309.13	3525.2	
309.34	5373.9	
309.55	5343.2	
309.75	4498.7	
309.96	4192.2	
310.17	5810.1	
310.38	5109.7	
310.59	4336.9	
310.8	4077.5	
311.01	5218.2	
311.21	5344.5	
311.42	3469.9	
311.63	3581.2	
311.84	5154.7	
312.05	5573.9	
312.26	4046.8	
312.46	4453	
312.67	5240.1	
312.88	4992.9	
313.09	3515.7	
313.3	3497.2	
313.51	6257.9	
313.71	6570.6	
313.92	3475.4	
314.13	3654.3	
314.34	5586.9	
314.55	5347.2	
314.76	4468.7	
314.96	3904.1	
315.17	5481	
315.38	5894.7	
315.59	3549.1	
315.8	3354.6	
316.01	6367.8	
316.21	6355.5	
316.42	3406.5	
316.63	3852.2	
316.84	5263.3	
317.05	6043.6	
317.26	4126	
317.46	3750.5	
317.67	5332.9	
317.88	5825.1	
318.09	4089.8	
318.3	3310.9	
318.5	5137	
318.71	5750.7	
318.92	5726.1	
319.13	4133.5	
319.34	5877	
319.54	6077.7	
319.75	3253.5	
319.96	3144.3	
320.17	5782.1	
320.38	6022.4	
320.58	3198.2	
320.79	3865.2	
321	5954.1	
321.21	6138.4	
321.42	3917.1	
321.62	3241.3	
321.83	5010.7	
322.04	5441.5	
322.25	3738.2	
322.46	3574.4	
322.66	5586.2	
322.87	5707.7	
323.08	4343.1	
323.29	3465.2	
323.5	6476.4	
323.7	4980.7	
323.91	4845.5	
324.12	4329.4	
324.33	5447.6	
324.53	5754.8	
324.74	4170.3	
324.95	4368.3	
325.16	4757.4	
325.37	5243.5	
325.57	3521.8	
325.78	3577.8	
325.99	5509	
326.2	4904.2	
326.4	5087.8	
326.61	3277.4	
326.82	5409.4	
327.03	5520	
327.24	5002.5	
327.44	4670.7	
327.65	5711.8	
327.86	4612.7	
328.07	4141.7	
328.27	3424.2	
328.48	6094.1	
328.69	5001.8	
328.9	5113.8	
329.1	3849.5	
329.31	5274.2	
329.52	6253.8	
329.73	3521.1	
329.93	3983.3	
330.14	5341.8	
330.35	5679.7	
330.56	5763	
330.76	4429.1	
330.97	5219.6	
331.18	5733.6	
331.39	3953.3	
331.59	3192.8	
331.8	6007.4	
332.01	6127.5	
332.22	3616.7	
332.42	4146.5	
332.63	5514.5	
332.84	5076.9	
333.05	3956.7	
333.25	3614.7	
333.46	5150.6	
333.67	5425.8	
333.88	3621.5	
334.08	4091.2	
334.29	7181.5	
334.5	6132.3	
334.7	3435.8	
334.91	4965	
335.12	4992.3	
335.33	5867.4	
335.53	3885.7	
335.74	5781.4	
335.95	5206.6	
336.16	5055.8	
336.36	3890.5	
336.57	4514.4	
336.78	4948.6	
336.98	6009.4	
337.19	4830.5	
337.4	3828.3	
337.61	6544.6	
337.81	4947.2	
338.02	3638.6	
338.23	4659.1	
338.43	6207.4	
338.64	5096.7	
338.85	3541.6	
339.05	4691.2	
339.26	6287.3	
339.47	4866	
339.68	3547.1	
339.88	5289.2	
340.09	5692.7	
340.3	5844.9	
340.5	4114.4	
340.71	3215.3	
340.92	4878.3	
341.13	6109.1	
341.33	3426.9	
341.54	4168.3	
341.75	5699.5	
341.95	5216.9	
342.16	3987.4	
342.37	4273.4	
342.57	4989.5	
342.78	5354.8	
342.99	4388.1	
343.19	3179.1	
343.4	5836.7	
343.61	5681.7	
343.81	3847.5	
344.02	3467.9	
344.23	5806.7	
344.43	6250.4	
344.64	4422.9	
344.85	4342.4	
345.06	5679	
345.26	6012.2	
345.47	4154	
345.68	4826.4	
345.88	4782	
346.09	5903.6	
346.3	4157.4	
346.5	3164.8	
346.71	5436.7	
346.92	5125.4	
347.12	3258.3	
347.33	4083	
347.54	6051.7	
347.74	6384.2	
347.95	3996.3	
348.16	3024.8	
348.36	5225.1	
348.57	4920.6	
348.78	4001	
348.98	4409.3	
349.19	5433.3	
349.39	4907.6	
349.6	3280.8	
349.81	3647.4	
350.01	5660.6	
350.22	5085.8	
350.43	3925.3	
350.63	4687.1	
350.84	5440.1	
351.05	5229.1	
351.25	3631	
351.46	3218	
351.67	6053.1	
351.87	5104.2	
352.08	3817.4	
352.29	4372.4	
352.49	5926.1	
352.7	5994.4	
352.9	3521.1	
353.11	4339.6	
353.32	6518.7	
353.52	5250.3	
353.73	3408.5	
353.94	4372.4	
354.14	5732.9	
354.35	5551.4	
354.55	3597.6	
354.76	3930.7	
354.97	5739.1	
355.17	5503.6	
355.38	3350.5	
355.59	4683.7	
355.79	5162.2	
356	5596.4	
356.2	3902.7	
356.41	3410.6	
356.62	4928.1	
356.82	5425.8	
357.03	4247.5	
357.24	3794.9	
357.44	5199.8	
357.65	5315.2	
357.85	5110.4	
358.06	4034.5	
358.27	4951.3	
358.47	5157.5	
358.68	3396.2	
358.88	4190.1	
359.09	5769.8	
359.3	6141.9	
359.5	4928.1	
359.71	4426.3	
359.91	6597.9	
360.12	5984.8	
360.33	4232.5	
360.53	4769.7	
360.74	5261.9	
360.94	5277.6	
361.15	4560.8	
361.36	3754.6	
361.56	6045.6	
361.77	5512.4	
361.97	4995.7	
362.18	3910.9	
362.38	6120	
362.59	5184.8	
362.8	3697.3	
363	3532.7	
363.21	4977.2	
363.41	5631.2	
363.62	4237.9	
363.83	5379.3	
364.03	5707	
364.24	6775.4	
364.44	5431.9	
364.65	5366.4	
364.85	5536.3	
365.06	5365	
365.27	3916.4	
365.47	3875.4	
365.68	6541.9	
365.88	5517.9	
366.09	4390.8	
366.29	4022.2	
366.5	5885.9	
366.71	6208.1	
366.91	5336.3	
367.12	4533.5	
367.32	6908.5	
367.53	6095.4	
367.73	4549.2	
367.94	5496.1	
368.14	6023.8	
368.35	6992.4	
368.56	4502.8	
368.76	3875.4	
368.97	6190.3	
369.17	7830.7	
369.38	3944.4	
369.58	4296.6	
369.79	5208.7	
369.99	6577.4	
370.2	5388.2	
370.4	4453	
370.61	5911.1	
370.82	7107.1	
371.02	4319.8	
371.23	3609.2	
371.43	5185.5	
371.64	6551.5	
371.84	4349.2	
372.05	5649	
372.25	7907.2	
372.46	6327.5	
372.66	4429.8	
372.87	4347.2	
373.07	6399.2	
373.28	8095.6	
373.48	5528.2	
373.69	5172.5	
373.9	5961.6	
374.1	5918.6	
374.31	5516.5	
374.51	4991.6	
374.72	6878.4	
374.92	5646.9	
375.13	5795.8	
375.33	4936.3	
375.54	6536.4	
375.74	5907	
375.95	5053.7	
376.15	6368.5	
376.36	6562.4	
376.56	6414.2	
376.77	5171.1	
376.97	5602.6	
377.18	7715.4	
377.38	6703	
377.59	6020.3	
377.79	4799.8	
378	6556.9	
378.2	7055.3	
378.41	4871.4	
378.61	4730.8	
378.82	7129.7	
379.02	6263.4	
379.23	5037.3	
379.43	6135.7	
379.64	7161.7	
379.84	6810.9	
380.05	4914.4	
380.25	4786.8	
380.46	6941.9	
380.66	6495.5	
380.87	6209.4	
381.07	6490	
381.28	7607.5	
381.48	6879.8	
381.69	4850.3	
381.89	4937	
382.1	5898.2	
382.3	7012.2	
382.51	5969.8	
382.71	6873.7	
382.91	6876.4	
383.12	7430	
383.32	5193.6	
383.53	5381.4	
383.73	6676.4	
383.94	6485.2	
384.14	5223.7	
384.35	4364.9	
384.55	6287.3	
384.76	6839.5	
384.96	5180.7	
385.17	5436.7	
385.37	6754.9	
385.58	6118.6	
385.78	5477.6	
385.98	4361.5	
386.19	6307.7	
386.39	6769.9	
386.6	4952	
386.8	5215.5	
387.01	6903.7	
387.21	6894.8	
387.42	5615.5	
387.62	6346.7	
387.83	6223.8	
388.03	6995.2	
388.23	5493.3	
388.44	6253.8	
388.64	5929.6	
388.85	6165.1	
389.05	5809.4	
389.26	6514.6	
389.46	8155.7	
389.67	7492.8	
389.87	5795.8	
390.07	5872.2	
390.28	6723.5	
390.48	6382.2	
390.69	5131.5	
390.89	5414.8	
391.1	6559.6	
391.3	7512.6	
391.5	6629.3	
391.71	7260	
391.91	7196.6	
392.12	8303.1	
392.32	6661.4	
392.53	5891.3	
392.73	6544.6	
392.93	6786.3	
393.14	5571.2	
393.34	6294.1	
393.55	7215	
393.75	6730.3	
393.95	5502.2	
394.16	5449	
394.36	6511.9	
394.57	7220.5	
394.77	5130.2	
394.98	5500.8	
395.18	6688.7	
395.38	6941.9	
395.59	6567.8	
395.79	5515.9	
396	6942.6	
396.2	7431.4	
396.4	6507.8	
396.61	6442.9	
396.81	7683.3	
397.02	6980.2	
397.22	6906.4	
397.42	6849.8	
397.63	7768.6	
397.83	6979.5	
398.04	5659.2	
398.24	6397.2	
398.44	7546.1	
398.65	6699.6	
398.85	5661.3	
399.05	5830.6	
399.26	7165.8	
399.46	8903.2	
399.67	6405.4	
399.87	6027.2	
400.07	7619.8	
400.28	8133.2	
400.48	6198.5	
400.69	7352.9	
400.89	8424.7	
401.09	8741.4	
401.3	6240.2	
401.5	7359	
401.7	9067	
401.91	9306	
402.11	6522.1	
402.32	6647.7	
402.52	8285.4	
402.72	8123.6	
402.93	6701.6	
403.13	5440.1	
403.33	8794	
403.54	7320.1	
403.74	6294.8	
403.94	7141.3	
404.15	7475.1	
404.35	8790.6	
404.56	6193.1	
404.76	8145.5	
404.96	8192.6	
405.17	7985	
405.37	7380.9	
405.57	6887.3	
405.78	8395.3	
405.98	7600.7	
406.18	6429.3	
406.39	7306.5	
406.59	8224.6	
406.79	7871.7	
407	6189	
407.2	6412.9	
407.4	8389.2	
407.61	8680.7	
407.81	6548.7	
408.01	8912.8	
408.22	7795.9	
408.42	9955.2	
408.62	8261.5	
408.83	7792.5	
409.03	8989.9	
409.23	8755.7	
409.44	8129.1	
409.64	8373.5	
409.84	10180	
410.05	10150	
410.25	8566	
410.45	8176.9	
410.66	9932	
410.86	12320	
411.06	9174.9	
411.27	8845.9	
411.47	12368	
411.67	10318	
411.88	9194.7	
412.08	9743.6	
412.28	10977	
412.49	11555	
412.69	9265	
412.89	9322.4	
413.09	11366	
413.3	11392	
413.5	9536.7	
413.7	9155.8	
413.91	10570	
414.11	11581	
414.31	9462.3	
414.52	10012	
414.72	11181	
414.92	11363	
415.12	9481.4	
415.33	10034	
415.53	11802	
415.73	11959	
415.94	10523	
416.14	9937.4	
416.34	10951	
416.55	10576	
416.75	11201	
416.95	10701	
417.15	12121	
417.36	12646	
417.56	11725	
417.76	10860	
417.97	12468	
418.17	12375	
418.37	10155	
418.57	10404	
418.78	11909	
418.98	11444	
419.18	11232	
419.38	11101	
419.59	11616	
419.79	11120	
419.99	10170	
420.2	10656	
420.4	12230	
420.6	12280	
420.8	10260	
421.01	9982.5	
421.21	12129	
421.41	12217	
421.61	10622	
421.82	10322	
422.02	11622	
422.22	12480	
422.42	11162	
422.63	10365	
422.83	11713	
423.03	12920	
423.23	10544	
423.44	9581.1	
423.64	11671	
423.84	11275	
424.04	10109	
424.25	9587.9	
424.45	12471	
424.65	12446	
424.85	9426.1	
425.06	10072	
425.26	12437	
425.46	11481	
425.66	10410	
425.87	10144	
426.07	12089	
426.27	11916	
426.47	10297	
426.67	9497.1	
426.88	12291	
427.08	11920	
427.28	10660	
427.48	9564.7	
427.69	10682	
427.89	11412	
428.09	10546	
428.29	9680.7	
428.5	12202	
428.7	11743	
428.9	9778.4	
429.1	10201	
429.3	11783	
429.51	12198	
429.71	9856.9	
429.91	10849	
430.11	12237	
430.31	12468	
430.52	10361	
430.72	10838	
430.92	12848	
431.12	12342	
431.32	10266	
431.53	10519	
431.73	11411	
431.93	13054	
432.13	10153	
432.33	10149	
432.54	11774	
432.74	12415	
432.94	10325	
433.14	11174	
433.34	12480	
433.55	12190	
433.75	11296	
433.95	13289	
434.15	12424	
434.35	12418	
434.56	10547	
434.76	10273	
434.96	12448	
435.16	13028	
435.36	10675	
435.56	11947	
435.77	12522	
435.97	12660	
436.17	12787	
436.37	11960	
436.57	12556	
436.78	12706	
436.98	13596	
437.18	12425	
437.38	13526	
437.58	12581	
437.78	12433	
437.99	10910	
438.19	12791	
438.39	14367	
438.59	10965	
438.79	10512	
438.99	13770	
439.2	12714	
439.4	10759	
439.6	10832	
439.8	13218	
440	14400	
440.2	12289	
440.4	12480	
440.61	13951	
440.81	14544	
441.01	11730	
441.21	12822	
441.41	14675	
441.61	13976	
441.81	13192	
442.02	14169	
442.22	15085	
442.42	14446	
442.62	12067	
442.82	11863	
443.02	14723	
443.22	14086	
443.43	12710	
443.63	12263	
443.83	13739	
444.03	13964	
444.23	13760	
444.43	13096	
444.63	14341	
444.83	15319	
445.04	12572	
445.24	13806	
445.44	14280	
445.64	14622	
445.84	12779	
446.04	13095	
446.24	13627	
446.44	14685	
446.65	12054	
446.85	12606	
447.05	13519	
447.25	14698	
447.45	12491	
447.65	11998	
447.85	13989	
448.05	13379	
448.25	13308	
448.46	12960	
448.66	14119	
448.86	13703	
449.06	11987	
449.26	13254	
449.46	14831	
449.66	13513	
449.86	13067	
450.06	12826	
450.26	13951	
450.47	14578	
450.67	12880	
450.87	13476	
451.07	14523	
451.27	14626	
451.47	12334	
451.67	13300	
451.87	14326	
452.07	15059	
452.27	12859	
452.47	12618	
452.67	14240	
452.88	15145	
453.08	11816	
453.28	14189	
453.48	15963	
453.68	14263	
453.88	12895	
454.08	13222	
454.28	15375	
454.48	14882	
454.68	13777	
454.88	14133	
455.08	15362	
455.28	15592	
455.48	12796	
455.68	14053	
455.89	16109	
456.09	16025	
456.29	13642	
456.49	14079	
456.69	16287	
456.89	15570	
457.09	14588	
457.29	15314	
457.49	16167	
457.69	16457	
457.89	14977	
458.09	14130	
458.29	16298	
458.49	16889	
458.69	15493	
458.89	14773	
459.09	17460	
459.29	17314	
459.49	14734	
459.69	15723	
459.9	16855	
460.1	16821	
460.3	14677	
460.5	14609	
460.7	17120	
460.9	16907	
461.1	14603	
461.3	16115	
461.5	18245	
461.7	17685	
461.9	15728	
462.1	15844	
462.3	17645	
462.5	18331	
462.7	15917	
462.9	16376	
463.1	19480	
463.3	19582	
463.5	16452	
463.7	18028	
463.9	18402	
464.1	18819	
464.3	17402	
464.5	17249	
464.7	19304	
464.9	19455	
465.1	18895	
465.3	17903	
465.5	19683	
465.7	19927	
465.9	18423	
466.1	17660	
466.3	20185	
466.5	19631	
466.7	19635	
466.9	17960	
467.1	20037	
467.3	20909	
467.5	19661	
467.7	18486	
467.9	21255	
468.1	22341	
468.3	19144	
468.5	19904	
468.7	20524	
468.9	20101	
469.1	19032	
469.3	20033	
469.5	22580	
469.7	20210	
469.9	19263	
470.1	18899	
470.3	20483	
470.5	20460	
470.7	20120	
470.9	18757	
471.1	20433	
471.3	20274	
471.5	18848	
471.69	20570	
471.89	19950	
472.09	19398	
472.29	19584	
472.49	19254	
472.69	19757	
472.89	20480	
473.09	18714	
473.29	18193	
473.49	19891	
473.69	19689	
473.89	19488	
474.09	18465	
474.29	20957	
474.49	20733	
474.69	19426	
474.89	18595	
475.09	19913	
475.29	19891	
475.49	17907	
475.69	18344	
475.88	21042	
476.08	20033	
476.28	17787	
476.48	17951	
476.68	20151	
476.88	20008	
477.08	17886	
477.28	18389	
477.48	19240	
477.68	20065	
477.88	17974	
478.08	18168	
478.28	20762	
478.48	19653	
478.67	18311	
478.87	17400	
479.07	20868	
479.27	19669	
479.47	18318	
479.67	18465	
479.87	20249	
480.07	21032	
480.27	17837	
480.47	19368	
480.67	19897	
480.87	20753	
481.06	18122	
481.26	18851	
481.46	20068	
481.66	19997	
481.86	18510	
482.06	19662	
482.26	19688	
482.46	20581	
482.66	18518	
482.86	18280	
483.05	20326	
483.25	19739	
483.45	21191	
483.65	18781	
483.85	20069	
484.05	20288	
484.25	19178	
484.45	20167	
484.65	21245	
484.84	21719	
485.04	18966	
485.24	19019	
485.44	21814	
485.64	20154	
485.84	18818	
486.04	20116	
486.24	20837	
486.44	21213	
486.63	18749	
486.83	19901	
487.03	21070	
487.23	21623	
487.43	19087	
487.63	21738	
487.83	21454	
488.02	22546	
488.22	20620	
488.42	21174	
488.62	22431	
488.82	21450	
489.02	20113	
489.22	20457	
489.41	22220	
489.61	22339	
489.81	19931	
490.01	19983	
490.21	22254	
490.41	22972	
490.61	19811	
490.8	19833	
491	21803	
491.2	20757	
491.4	20308	
491.6	19596	
491.8	21659	
491.99	21557	
492.19	19493	
492.39	19979	
492.59	22617	
492.79	22822	
492.99	21184	
493.18	20548	
493.38	23018	
493.58	24369	
493.78	21710	
493.98	21399	
494.18	23458	
494.37	23314	
494.57	22776	
494.77	22479	
494.97	24434	
495.17	24847	
495.37	22667	
495.56	22733	
495.76	25293	
495.96	24953	
496.16	23872	
496.36	23008	
496.55	25207	
496.75	24866	
496.95	23404	
497.15	23182	
497.35	25039	
497.54	25576	
497.74	23317	
497.94	24884	
498.14	26252	
498.34	26183	
498.53	23339	
498.73	24017	
498.93	25106	
499.13	25896	
499.33	24342	
499.52	24618	
499.72	26348	
499.92	26119	
500.12	24081	
500.32	24331	
500.51	26203	
500.71	26529	
500.91	25118	
501.11	24860	
501.31	26445	
501.5	26750	
501.7	25550	
501.9	24524	
502.1	25811	
502.29	26324	
502.49	24881	
502.69	24970	
502.89	26029	
503.09	26210	
503.28	23320	
503.48	23452	
503.68	24921	
503.88	24989	
504.07	24333	
504.27	23603	
504.47	25410	
504.67	25066	
504.86	24012	
505.06	23605	
505.26	24556	
505.46	26333	
505.65	23283	
505.85	23255	
506.05	24113	
506.25	24761	
506.44	22319	
506.64	22795	
506.84	23821	
507.04	24536	
507.23	22148	
507.43	22495	
507.63	25245	
507.83	23713	
508.02	22409	
508.22	21880	
508.42	25507	
508.62	23355	
508.81	21995	
509.01	22883	
509.21	22965	
509.4	23548	
509.6	22533	
509.8	21930	
510	23543	
510.19	25115	
510.39	21989	
510.59	22205	
510.79	23617	
510.98	25066	
511.18	22199	
511.38	22324	
511.57	24104	
511.77	24089	
511.97	22868	
512.17	21655	
512.36	24408	
512.56	24170	
512.76	21936	
512.95	21668	
513.15	24612	
513.35	23141	
513.55	23028	
513.74	22212	
513.94	24439	
514.14	23986	
514.33	23313	
514.53	23162	
514.73	23924	
514.92	24477	
515.12	22760	
515.32	22690	
515.51	24576	
515.71	25264	
515.91	24494	
516.11	22850	
516.3	26574	
516.5	24417	
516.7	23489	
516.89	24062	
517.09	24494	
517.29	24510	
517.48	23853	
517.68	23034	
517.88	24443	
518.07	24985	
518.27	23715	
518.47	22756	
518.66	25507	
518.86	24335	
519.06	22652	
519.25	23157	
519.45	24547	
519.65	26257	
519.84	23685	
520.04	24470	
520.24	26291	
520.43	24774	
520.63	23006	
520.83	22869	
521.02	24122	
521.22	24490	
521.42	23266	
521.61	23793	
521.81	24316	
522.01	24454	
522.2	23582	
522.4	23256	
522.6	25374	
522.79	24436	
522.99	23743	
523.18	23313	
523.38	25815	
523.58	26075	
523.77	25746	
523.97	24085	
524.17	28198	
524.36	27413	
524.56	25841	
524.76	25448	
524.95	26925	
525.15	26391	
525.34	25497	
525.54	25413	
525.74	27428	
525.93	26358	
526.13	26964	
526.33	25873	
526.52	27978	
526.72	27799	
526.91	27288	
527.11	26753	
527.31	28521	
527.5	28975	
527.7	26738	
527.89	26001	
528.09	27643	
528.29	28779	
528.48	27223	
528.68	26955	
528.87	28721	
529.07	28316	
529.27	26465	
529.46	25976	
529.66	27713	
529.85	28130	
530.05	25707	
530.25	26538	
530.44	29524	
530.64	27698	
530.83	26549	
531.03	27212	
531.23	28843	
531.42	28722	
531.62	28274	
531.81	27305	
532.01	29642	
532.21	30296	
532.4	27753	
532.6	28323	
532.79	30851	
532.99	30180	
533.18	28573	
533.38	29416	
533.58	30082	
533.77	30609	
533.97	28878	
534.16	29752	
534.36	31193	
534.55	30325	
534.75	29700	
534.95	28858	
535.14	31081	
535.34	30041	
535.53	28297	
535.73	30236	
535.92	31522	
536.12	30138	
536.31	28381	
536.51	29638	
536.71	30387	
536.9	29904	
537.1	28546	
537.29	28893	
537.49	30582	
537.68	29991	
537.88	29248	
538.07	28369	
538.27	30548	
538.46	31533	
538.66	28566	
538.86	29128	
539.05	30548	
539.25	30858	
539.44	29361	
539.64	28687	
539.83	29946	
540.03	31077	
540.22	28473	
540.42	28258	
540.61	29790	
540.81	30338	
541	28596	
541.2	29494	
541.39	29262	
541.59	29909	
541.78	29023	
541.98	27611	
542.18	28821	
542.37	28916	
542.57	27669	
542.76	28480	
542.96	28334	
543.15	28900	
543.35	27129	
543.54	26519	
543.74	28607	
543.93	28324	
544.13	26845	
544.32	27889	
544.52	28361	
544.71	27619	
544.91	25763	
545.1	27078	
545.3	27633	
545.49	28510	
545.69	25662	
545.88	26264	
546.08	29294	
546.27	28644	
546.47	26734	
546.66	26161	
546.86	28456	
547.05	29136	
547.24	26176	
547.44	26210	
547.63	27269	
547.83	28450	
548.02	26557	
548.22	26478	
548.41	26841	
548.61	28219	
548.8	25781	
549	25625	
549.19	27136	
549.39	27770	
549.58	24961	
549.78	25677	
549.97	27694	
550.17	26946	
550.36	26512	
550.55	27448	
550.75	27071	
550.94	27878	
551.14	25365	
551.33	25504	
551.53	26561	
551.72	27529	
551.92	25574	
552.11	25366	
552.31	27458	
552.5	27505	
552.69	27061	
552.89	24805	
553.08	27230	
553.28	26806	
553.47	25354	
553.67	26307	
553.86	27782	
554.06	26116	
554.25	24158	
554.44	24998	
554.64	28267	
554.83	27863	
555.03	24932	
555.22	25288	
555.42	27135	
555.61	26917	
555.8	24858	
556	25230	
556.19	26133	
556.39	26985	
556.58	25098	
556.78	24916	
556.97	26809	
557.16	26447	
557.36	26228	
557.55	24681	
557.75	25523	
557.94	27504	
558.13	24412	
558.33	24520	
558.52	27182	
558.72	25942	
558.91	24328	
559.1	24433	
559.3	25543	
559.49	24846	
559.69	23722	
559.88	24637	
560.07	26144	
560.27	26495	
560.46	24836	
560.66	24795	
560.85	25840	
561.04	24863	
561.24	24021	
561.43	23846	
561.63	25270	
561.82	25476	
562.01	25419	
562.21	24481	
562.4	25946	
562.59	27158	
562.79	24385	
562.98	24260	
563.18	26105	
563.37	27558	
563.56	24933	
563.76	24218	
563.95	25639	
564.14	25647	
564.34	24752	
564.53	24389	
564.73	26181	
564.92	26680	
565.11	24866	
565.31	24313	
565.5	27049	
565.69	25606	
565.89	24499	
566.08	24730	
566.27	26667	
566.47	27356	
566.66	25414	
566.85	24194	
567.05	26408	
567.24	25773	
567.44	24385	
567.63	25845	
567.82	26445	
568.02	26329	
568.21	24469	
568.4	24919	
568.6	26495	
568.79	26330	
568.98	24143	
569.18	24378	
569.37	26368	
569.56	28093	
569.76	24603	
569.95	25531	
570.14	26092	
570.34	26188	
570.53	23735	
570.72	23665	
570.91	26397	
571.11	25413	
571.3	24018	
571.49	24944	
571.69	25629	
571.88	25148	
572.07	24871	
572.27	24636	
572.46	25165	
572.65	26300	
572.85	24148	
573.04	24679	
573.23	26921	
573.43	25914	
573.62	24249	
573.81	24874	
574	26372	
574.2	26015	
574.39	24774	
574.58	24815	
574.78	27583	
574.97	26766	
575.16	25345	
575.36	25637	
575.55	27202	
575.74	27224	
575.93	24338	
576.13	25808	
576.32	26294	
576.51	27244	
576.71	24903	
576.9	26484	
577.09	27385	
577.28	26966	
577.48	25578	
577.67	24595	
577.86	26586	
578.05	27183	
578.25	25340	
578.44	25490	
578.63	26824	
578.83	28364	
579.02	24737	
579.21	26628	
579.4	27149	
579.6	27086	
579.79	25707	
579.98	27942	
580.17	27758	
580.37	27723	
580.56	25320	
580.75	26299	
580.94	28395	
581.14	28068	
581.33	27028	
581.52	25798	
581.71	28108	
581.91	28706	
582.1	25707	
582.29	26211	
582.48	27970	
582.68	28048	
582.87	26702	
583.06	26514	
583.25	28289	
583.45	28115	
583.64	27321	
583.83	28282	
584.02	27717	
584.21	28384	
584.41	26953	
584.6	26490	
584.79	27955	
584.98	28936	
585.18	25943	
585.37	26028	
585.56	27436	
585.75	28265	
585.94	25729	
586.14	26485	
586.33	28193	
586.52	27465	
586.71	25859	
586.91	25596	
587.1	26203	
587.29	27171	
587.48	24649	
587.67	24914	
587.87	26639	
588.06	26293	
588.25	25391	
588.44	24333	
588.63	25045	
588.83	25135	
589.02	22474	
589.21	21998	
589.4	23003	
589.59	22676	
589.78	19891	
589.98	19907	
590.17	20973	
590.36	21545	
590.55	18601	
590.74	19137	
590.94	22545	
591.13	21007	
591.32	19133	
591.51	18782	
591.7	21566	
591.89	21156	
592.09	18827	
592.28	19385	
592.47	20377	
592.66	22523	
592.85	19260	
593.05	19683	
593.24	21435	
593.43	22321	
593.62	19998	
593.81	20479	
594	21874	
594.19	21939	
594.39	19856	
594.58	19669	
594.77	21953	
594.96	22257	
595.15	19371	
595.34	20060	
595.54	21471	
595.73	20676	
595.92	18769	
596.11	19871	
596.3	22282	
596.49	21145	
596.68	19863	
596.88	20452	
597.07	22352	
597.26	21001	
597.45	19415	
597.64	20986	
597.83	21515	
598.02	22332	
598.22	19787	
598.41	20568	
598.6	22075	
598.79	21563	
598.98	19962	
599.17	21134	
599.36	22283	
599.55	23400	
599.74	22327	
599.94	22352	
600.13	23229	
600.32	21848	
600.51	20450	
600.7	20626	
600.89	23894	
601.08	24047	
601.27	20605	
601.47	21525	
601.66	23198	
601.85	23864	
602.04	21373	
602.23	21494	
602.42	22456	
602.61	23256	
602.8	21214	
602.99	21113	
603.18	23102	
603.37	23283	
603.57	21820	
603.76	22438	
603.95	24195	
604.14	23778	
604.33	21562	
604.52	21895	
604.71	23625	
604.9	23037	
605.09	22291	
605.28	22093	
605.47	24176	
605.66	23775	
605.86	22220	
606.05	21633	
606.24	23911	
606.43	22445	
606.62	21704	
606.81	22370	
607	23814	
607.19	23236	
607.38	21140	
607.57	21282	
607.76	22864	
607.95	22192	
608.14	21711	
608.33	22167	
608.52	22774	
608.72	23673	
608.91	20729	
609.1	20715	
609.29	22680	
609.48	22040	
609.67	21510	
609.86	20515	
610.05	22078	
610.24	22545	
610.43	20494	
610.62	20147	
610.81	23502	
611	23449	
611.19	20551	
611.38	21215	
611.57	22808	
611.76	24072	
611.95	20265	
612.14	19902	
612.33	22457	
612.52	21959	
612.71	20862	
612.9	20015	
613.09	21650	
613.28	23956	
613.47	20341	
613.66	21485	
613.85	22506	
614.04	22061	
614.24	20510	
614.43	19682	
614.62	22767	
614.81	22526	
615	20975	
615.19	21209	
615.38	21939	
615.57	22181	
615.76	21042	
615.95	21926	
616.14	22717	
616.33	22296	
616.52	21308	
616.71	21687	
616.9	22748	
617.09	22735	
617.28	20852	
617.47	22148	
617.66	22091	
617.85	22192	
618.04	21992	
618.22	21508	
618.41	22744	
618.6	23590	
618.79	21636	
618.98	21379	
619.17	24132	
619.36	22506	
619.55	21591	
619.74	21676	
619.93	23558	
620.12	23014	
620.31	22343	
620.5	22615	
620.69	24249	
620.88	24625	
621.07	23206	
621.26	22358	
621.45	23910	
621.64	24054	
621.83	22521	
622.02	21678	
622.21	23812	
622.4	23814	
622.59	23042	
622.78	22875	
622.97	23288	
623.16	24445	
623.35	22370	
623.54	21513	
623.72	23737	
623.91	23585	
624.1	22636	
624.29	21479	
624.48	24925	
624.67	23961	
624.86	22528	
625.05	21736	
625.24	24830	
625.43	23093	
625.62	24252	
625.81	21821	
626	23978	
626.19	23431	
626.38	22513	
626.56	21595	
626.75	22750	
626.94	23635	
627.13	21613	
627.32	20446	
627.51	23032	
627.7	24354	
627.89	20290	
628.08	21430	
628.27	22148	
628.46	22294	
628.65	20622	
628.83	20306	
629.02	22801	
629.21	22279	
629.4	21332	
629.59	21532	
629.78	22427	
629.97	23305	
630.16	21786	
630.35	21266	
630.54	23755	
630.72	23278	
630.91	21074	
631.1	21615	
631.29	23053	
631.48	23145	
631.67	21738	
631.86	21070	
632.05	22849	
632.24	22685	
632.42	20719	
632.61	21506	
632.8	22664	
632.99	22472	
633.18	21704	
633.37	21928	
633.56	23083	
633.75	22972	
633.93	21709	
634.12	21473	
634.31	23933	
634.5	23678	
634.69	21406	
634.88	21855	
635.07	23055	
635.25	23474	
635.44	22293	
635.63	22664	
635.82	22810	
636.01	22182	
636.2	22169	
636.39	21844	
636.57	23984	
636.76	23400	
636.95	21211	
637.14	22405	
637.33	23216	
637.52	24111	
637.7	20813	
637.89	21834	
638.08	22859	
638.27	24152	
638.46	21792	
638.65	22009	
638.83	23863	
639.02	22242	
639.21	21444	
639.4	21887	
639.59	22684	
639.78	22218	
639.96	20487	
640.15	20499	
640.34	22354	
640.53	22474	
640.72	20237	
640.91	20523	
641.09	21734	
641.28	22958	
641.47	20667	
641.66	21216	
641.85	22154	
642.03	22331	
642.22	20747	
642.41	20181	
642.6	21569	
642.79	20758	
642.97	19724	
643.16	20757	
643.35	21264	
643.54	20691	
643.73	19325	
643.91	19899	
644.1	20103	
644.29	20904	
644.48	18683	
644.67	18422	
644.85	19696	
645.04	19669	
645.23	17463	
645.42	17817	
645.6	18572	
645.79	19555	
645.98	16897	
646.17	15862	
646.36	17567	
646.54	18135	
646.73	17059	
646.92	15735	
647.11	17248	
647.29	18327	
647.48	15848	
647.67	15517	
647.86	18591	
648.05	18914	
648.23	16525	
648.42	17650	
648.61	18410	
648.8	18292	
648.98	16341	
649.17	16903	
649.36	17919	
649.55	17719	
649.73	16209	
649.92	17131	
650.11	17782	
650.3	17894	
650.48	16192	
650.67	15948	
650.86	18202	
651.05	17040	
651.23	16176	
651.42	16219	
651.61	17732	
651.79	17654	
651.98	16517	
652.17	16159	
652.36	18049	
652.54	17136	
652.73	16107	
652.92	15747	
653.11	17877	
653.29	17763	
653.48	14985	
653.67	15873	
653.85	17326	
654.04	18221	
654.23	15635	
654.42	15053	
654.6	16116	
654.79	16599	
654.98	14215	
655.16	14706	
655.35	15628	
655.54	15617	
655.73	14478	
655.91	14403	
656.1	17059	
656.29	16080	
656.47	14459	
656.66	16152	
656.85	16571	
657.03	16664	
657.22	15187	
657.41	15524	
657.59	16940	
657.78	16769	
657.97	15076	
658.16	15950	
658.34	17625	
658.53	18113	
658.72	16888	
658.9	17414	
659.09	17323	
659.28	17439	
659.46	15907	
659.65	15980	
659.84	17182	
660.02	17826	
660.21	15771	
660.4	15681	
660.58	18261	
660.77	17510	
660.96	16432	
661.14	15315	
661.33	18733	
661.52	18569	
661.7	15347	
661.89	19116	
662.08	17077	
662.26	16665	
662.45	15457	
662.64	15711	
662.82	17792	
663.01	17047	
663.2	15522	
663.38	16375	
663.57	17485	
663.75	17456	
663.94	16016	
664.13	17157	
664.31	16823	
664.5	17647	
664.69	16036	
664.87	16662	
665.06	16539	
665.25	17507	
665.43	16790	
665.62	16811	
665.8	17615	
665.99	16869	
666.18	15747	
666.36	15941	
666.55	17565	
666.74	17391	
666.92	15308	
667.11	16751	
667.29	16853	
667.48	17442	
667.67	16504	
667.85	15582	
668.04	16925	
668.22	16965	
668.41	15674	
668.6	15802	
668.78	16567	
668.97	16969	
669.15	15908	
669.34	14866	
669.53	16580	
669.71	16939	
669.9	14949	
670.08	15721	
670.27	16611	
670.46	17142	
670.64	15752	
670.83	16298	
671.01	16477	
671.2	16846	
671.38	15130	
671.57	14887	
671.76	17574	
671.94	18211	
672.13	14829	
672.31	15831	
672.5	17288	
672.69	16315	
672.87	15079	
673.06	15459	
673.24	17008	
673.43	16532	
673.61	15655	
673.8	15371	
673.98	17048	
674.17	17206	
674.36	15841	
674.54	15702	
674.73	16707	
674.91	16978	
675.1	15421	
675.28	14915	
675.47	16638	
675.65	17285	
675.84	15258	
676.03	15595	
676.21	16307	
676.4	15862	
676.58	15927	
676.77	15778	
676.95	17672	
677.14	16221	
677.32	14831	
677.51	14532	
677.69	16915	
677.88	15867	
678.06	14621	
678.25	14805	
678.44	16660	
678.62	16191	
678.81	14485	
678.99	15583	
679.18	17218	
679.36	16879	
679.55	14999	
679.73	15672	
679.92	16657	
680.1	16182	
680.29	16332	
680.47	14954	
680.66	15900	
680.84	16838	
681.03	14259	
681.21	15308	
681.4	15993	
681.58	15970	
681.77	14501	
681.95	14410	
682.14	16814	
682.32	17015	
682.51	15393	
682.69	14072	
682.88	15728	
683.06	16285	
683.25	14854	
683.43	15332	
683.62	15821	
683.8	16027	
683.99	14937	
684.17	13829	
684.36	16059	
684.54	14472	
684.73	12110	
684.91	12216	
685.1	13904	
685.28	13305	
685.46	12331	
685.65	12344	
685.83	13951	
686.02	13330	
686.2	11944	
686.39	12162	
686.57	13450	
686.76	14895	
686.94	12202	
687.13	12518	
687.31	14078	
687.5	13854	
687.68	11817	
687.86	13231	
688.05	15575	
688.23	13361	
688.42	13302	
688.6	12714	
688.79	13930	
688.97	13864	
689.16	12998	
689.34	11894	
689.52	14696	
689.71	14627	
689.89	13074	
690.08	12058	
690.26	13784	
690.45	13616	
690.63	12665	
690.81	12007	
691	13018	
691.18	12926	
691.37	11893	
691.55	13948	
691.74	12667	
691.92	14668	
692.1	11928	
692.29	11212	
692.47	13092	
692.66	12402	
692.84	11611	
693.02	12304	
693.21	12900	
693.39	13387	
693.58	12731	
693.76	12341	
693.94	14900	
694.13	15018	
694.31	12672	
694.5	13939	
694.68	14150	
694.86	14528	
695.05	13458	
695.23	13578	
695.42	15003	
695.6	17324	
695.78	13887	
695.97	12784	
696.15	14692	
696.34	13960	
696.52	12180	
696.7	12983	
696.89	13930	
697.07	13306	
697.25	12674	
697.44	14108	
697.62	13548	
697.81	13889	
697.99	12074	
698.17	12485	
698.36	12736	
698.54	13491	
698.72	12346	
698.91	11300	
699.09	13149	
699.28	12968	
699.46	12086	
699.64	11886	
699.83	12997	
700.01	14248	
700.19	12897	
700.38	11503	
700.56	14514	
700.74	13567	
700.93	12079	
701.11	13069	
701.29	14211	
701.48	15457	
701.66	12609	
701.84	12675	
702.03	13921	
702.21	14671	
702.39	12041	
702.58	12686	
702.76	14296	
702.94	14355	
703.13	11956	
703.31	14448	
703.49	13583	
703.68	14789	
703.86	12149	
704.04	13337	
704.23	14021	
704.41	14491	
704.59	12353	
704.78	13590	
704.96	15356	
705.14	14630	
705.33	12325	
705.51	13027	
705.69	14090	
705.87	14891	
706.06	13488	
706.24	12213	
706.42	14444	
706.61	14831	
706.79	13386	
706.97	12438	
707.16	13807	
707.34	14437	
707.52	13367	
707.7	12560	
707.89	13915	
708.07	13633	
708.25	13468	
708.44	13770	
708.62	13944	
708.8	15002	
708.98	13800	
709.17	12755	
709.35	14303	
709.53	14295	
709.72	12417	
709.9	12407	
710.08	14484	
710.26	14427	
710.45	13766	
710.63	12564	
710.81	13966	
710.99	13907	
711.18	12974	
711.36	12239	
711.54	13459	
711.72	14011	
711.91	12032	
712.09	11435	
712.27	13592	
712.45	13667	
712.64	11863	
712.82	10629	
713	11823	
713.18	11858	
713.37	9962.7	
713.55	10851	
713.73	11813	
713.91	10095	
714.1	9187.2	
714.28	8264.2	
714.46	10376	
714.64	9416.6	
714.83	7212.3	
715.01	7976.8	
715.19	9126.4	
715.37	8348.2	
715.55	7403.4	
715.74	7647.1	
715.92	9731.3	
716.1	7681.9	
716.28	8660.9	
716.47	7588.4	
716.65	8374.8	
716.83	8610.3	
717.01	7493.5	
717.19	7596.6	
717.38	10736	
717.56	8405.5	
717.74	8240.3	
717.92	7521.5	
718.1	10125	
718.29	9488.9	
718.47	7634.1	
718.65	8423.3	
718.83	10677	
719.01	10711	
719.2	8056.7	
719.38	9123	
719.56	10398	
719.74	11892	
719.92	8420.6	
720.11	9235.7	
720.29	9960.6	
720.47	8936.7	
720.65	7402	
720.83	8127	
721.02	8850	
721.2	8645.8	
721.38	8054	
721.56	7165.8	
721.74	8024.6	
721.92	8238.3	
722.11	8406.9	
722.29	8086.1	
722.47	9480.7	
722.65	8636.3	
722.83	7142.6	
723.01	8027.4	
723.2	8678.6	
723.38	9044.5	
723.56	6609.5	
723.74	7713.3	
723.92	8092.9	
724.1	9344.2	
724.29	7046.4	
724.47	8282	
724.65	8290.2	
724.83	8244.4	
725.01	6998.6	
725.19	7864.2	
725.37	8267.6	
725.56	8371.4	
725.74	6888	
725.92	7205.4	
726.1	8303.1	
726.28	8520.2	
726.46	7575.4	
726.64	7198.6	
726.83	8491.6	
727.01	8736	
727.19	6833.4	
727.37	7635.5	
727.55	8703.2	
727.73	9217.2	
727.91	6855.9	
728.09	6709.8	
728.28	9424.8	
728.46	10083	
728.64	8188.5	
728.82	8234.2	
729	10978	
729.18	10319	
729.36	7856.7	
729.54	10217	
729.72	11594	
729.91	9947.7	
730.09	10163	
730.27	8957.8	
730.45	10075	
730.63	10897	
730.81	9727.2	
730.99	8821.3	
731.17	11481	
731.35	9824.1	
731.53	9310.1	
731.71	8884.1	
731.9	11013	
732.08	11009	
732.26	8966	
732.44	8587.8	
732.62	11056	
732.8	10565	
732.98	9296.4	
733.16	8316.8	
733.34	10544	
733.52	9222.7	
733.7	8858.8	
733.88	9209	
734.07	10406	
734.25	10225	
734.43	8516.1	
734.61	10165	
734.79	11843	
734.97	10222	
735.15	8653.4	
735.33	9084.1	
735.51	10645	
735.69	10245	
735.87	10135	
736.05	9346.9	
736.23	10457	
736.41	10361	
736.59	9209	
736.77	9473.2	
736.95	11150	
737.13	10563	
737.32	9144.2	
737.5	9286.9	
737.68	11748	
737.86	10568	
738.04	8848.6	
738.22	10755	
738.4	10321	
738.58	10553	
738.76	9537.4	
738.94	8473.8	
739.12	10486	
739.3	10466	
739.48	10309	
739.66	10124	
739.84	10922	
740.02	10940	
740.2	8737.3	
740.38	9136	
740.56	11381	
740.74	10111	
740.92	9785.2	
741.1	9652.8	
741.28	10615	
741.46	10398	
741.64	9312.1	
741.82	9832.3	
742	10711	
742.18	10632	
742.36	9435.7	
742.54	9014.5	
742.72	11140	
742.9	9839.1	
743.08	9774.3	
743.26	8579.6	
743.44	11363	
743.62	11165	
743.8	9840.5	
743.98	8928.5	
744.16	10721	
744.34	10522	
744.52	9680.7	
744.7	9548.3	
744.88	10856	
745.06	10301	
745.24	9628.9	
745.42	9743.6	
745.6	10943	
745.78	10651	
745.96	8324.3	
746.14	8613.1	
746.32	11478	
746.5	10686	
746.68	9178.3	
746.86	8729.8	
747.03	11127	
747.21	9365.4	
747.39	9073.9	
747.57	8615.8	
747.75	10257	
747.93	10712	
748.11	8627.4	
748.29	8585.8	
748.47	11905	
748.65	9902.6	
748.83	9278.7	
749.01	9064.3	
749.19	10491	
749.37	9720.3	
749.55	8840.4	
749.73	8883.4	
749.91	10163	
750.09	9818	
750.26	8969.4	
750.44	8357.1	
750.62	10099	
750.8	10107	
750.98	8236.9	
751.16	8514.1	
751.34	10128	
751.52	9424.8	
751.7	9290.3	
751.88	8192.6	
752.06	10550	
752.24	10355	
752.42	8060.8	
752.59	8352.3	
752.77	9964.1	
752.95	11273	
753.13	9214.5	
753.31	8617.9	
753.49	9578.3	
753.67	10076	
753.85	8791.2	
754.03	8260.8	
754.21	10167	
754.38	10446	
754.56	8157.7	
754.74	7154.9	
754.92	9013.8	
755.1	9503.3	
755.28	6391.7	
755.46	6034	
755.64	8987.2	
755.82	8783.7	
755.99	5257.8	
756.17	5156.1	
756.35	5587.5	
756.53	7051.2	
756.71	3805.8	
756.89	4730.1	
757.07	6782.2	
757.25	5877	
757.42	5614.8	
757.6	6675	
757.78	7396.6	
757.96	6475.7	
758.14	5639.4	
758.32	5087.2	
758.5	5732.3	
758.67	6866.2	
758.85	5133.6	
759.03	5280.3	
759.21	6651.8	
759.39	6064	
759.57	4775.2	
759.75	6012.2	
759.92	7372.7	
760.1	6746.7	
760.28	6561.7	
760.46	6903	
760.64	6772.6	
760.82	6591	
760.99	6744.6	
761.17	5954.8	
761.35	7977.5	
761.53	7023.9	
761.71	6339.1	
761.89	7152.2	
762.06	8166.6	
762.24	7729	
762.42	6760.3	
762.6	6554.9	
762.78	8018.5	
762.96	8577.6	
763.13	7443.7	
763.31	7233.4	
763.49	8973.5	
763.67	8208.9	
763.85	8107.9	
764.02	8742.1	
764.2	9468.4	
764.38	8601.5	
764.56	7158.3	
764.74	7971.4	
764.91	9485.5	
765.09	8360.5	
765.27	6895.5	
765.45	6646.3	
765.63	9555.1	
765.8	9517.6	
765.98	6277.7	
766.16	6679.1	
766.34	7950.9	
766.52	7573.4	
766.69	7613.7	
766.87	6369.2	
767.05	8288.8	
767.23	9118.9	
767.41	6678.4	
767.58	6888	
767.76	8754.4	
767.94	8806.9	
768.12	6752.8	
768.29	7451.9	
768.47	8147.5	
768.65	8948.9	
768.83	6296.1	
769	7456	
769.18	7619.1	
769.36	8340.7	
769.54	7255.3	
769.72	6193.1	
769.89	8531.8	
770.07	8750.3	
770.25	6473.6	
770.43	7714	
770.6	9209	
770.78	9747	
770.96	6589	
771.14	6802.7	
771.31	8305.2	
771.49	7578.8	
771.67	5671.5	
771.85	5873.6	
772.02	6798.6	
772.2	7634.1	
772.38	6646.3	
772.55	6082.5	
772.73	7774.1	
772.91	7593.9	
773.09	6288.6	
773.26	6465.4	
773.44	7557	
773.62	7321.5	
773.8	5803.3	
773.97	5483.8	
774.15	7553.6	
774.33	7227.3	
774.5	5544.5	
774.68	5963.7	
774.86	7764.5	
775.04	7218.4	
775.21	5649	
775.39	5547.9	
775.57	7440.3	
775.74	7768.6	
775.92	5429.2	
776.1	5277.6	
776.27	7262.1	
776.45	8591.2	
776.63	5513.8	
776.81	4949.3	
776.98	6875	
777.16	7915.4	
777.34	5565.7	
777.51	5541.8	
777.69	6697.5	
777.87	6655.2	
778.04	5515.9	
778.22	6135.7	
778.4	6546.7	
778.57	7193.1	
778.75	4689.8	
778.93	4963.6	
779.1	6234	
779.28	6115.2	
779.46	4635.2	
779.64	5210	
779.81	7249.8	
779.99	8108.6	
780.17	5935	
780.34	6026.5	
780.52	6635.4	
780.69	6732.4	
780.87	5376.6	
781.05	4852.3	
781.22	6540.5	
781.4	6640.2	
781.58	5029.1	
781.75	4107.5	
781.93	6494.1	
782.11	5878.4	
782.28	5737.7	
782.46	4901.5	
782.64	5705.6	
782.81	6724.2	
782.99	4937	
783.17	4861.9	
783.34	6498.9	
783.52	5674.2	
783.69	4985.4	
783.87	5833.3	
784.05	5598.5	
784.22	5683.8	
784.4	5812.8	
784.58	5079.6	
784.75	6524.8	
784.93	5758.9	
785.1	4705.5	
785.28	5337	
785.46	6256.5	
785.63	5565	
785.81	4640.7	
785.99	4515.8	
786.16	5763.7	
786.34	6159.6	
786.51	4498	
786.69	4880.3	
786.87	5297.4	
787.04	5878.4	
787.22	4298	
787.39	5290.6	
787.57	5501.5	
787.75	6622.4	
787.92	5407.3	
788.1	5403.2	
788.27	5600.5	
788.45	5341.1	
788.63	5053.7	
788.8	3781.2	
788.98	5887.2	
789.15	5224.4	
789.33	3907.5	
789.5	4530.8	
789.68	6449.7	
789.86	6614.9	
790.03	4967.7	
790.21	4349.9	
790.38	6418.3	
790.56	5573.9	
790.73	4215.4	
790.91	4204.5	
791.09	5449.6	
791.26	6163.7	
791.44	4410	
791.61	3831.7	
791.79	5449.6	
791.96	5388.2	
792.14	3971	
792.32	3504.8	
792.49	5358.9	
792.67	5575.3	
792.84	4001.7	
793.02	3789.4	
793.19	5835.3	
793.37	6546	
793.54	3543.7	
793.72	3958.7	
793.89	6734.4	
794.07	5339.1	
794.25	4485.1	
794.42	3574.4	
794.6	6462.7	
794.77	6053.1	
794.95	4752	
795.12	4100.7	
795.3	5326.1	
795.47	5927.5	
795.65	4517.1	
795.82	4431.1	
796	5107	
796.17	7116.7	
796.35	4246.8	
796.52	4878.9	
796.7	5819	
796.87	5921.4	
797.05	5121.3	
797.22	5093.3	
797.4	5883.1	
797.57	6872.3	
797.75	4276.2	
797.92	4085.7	
798.1	6213.5	
798.27	5203.9	
798.45	3519.8	
798.62	3742.3	
798.8	5504.9	
798.97	6075	
799.15	4504.2	
799.32	4318.5	
799.5	4814.1	
799.67	5691.3	
799.85	4678.9	
800.02	3448.1	
800.2	5189.6	
800.37	5588.9	
800.55	4812	
800.72	4038.6	
800.9	6017.6	
801.07	6384.2	
801.25	5382.7	
801.42	4453.6	
801.6	6046.3	
801.77	5810.1	
801.95	4113.7	
802.12	3907.5	
802.29	5743.2	
802.47	5758.2	
802.64	4403.1	
802.82	3333.4	
802.99	5137	
803.17	6214.9	
803.34	4270	
803.52	3851.5	
803.69	6845	
803.87	4987.5	
804.04	4217.5	
804.21	4358.1	
804.39	6311.8	
804.56	5380.7	
804.74	3615.3	
804.91	4358.8	
805.09	5206.6	
805.26	5246.2	
805.44	3646.7	
805.61	3983.3	
805.78	5833.3	
805.96	5857.9	
806.13	4362.9	
806.31	4686.4	
806.48	4720.6	
806.66	5227.1	
806.83	4361.5	
807	4229.1	
807.18	5109.7	
807.35	5468.8	
807.53	4198.3	
807.7	3366.2	
807.87	6328.2	
808.05	5196.4	
808.22	4618.9	
808.4	3353.2	
808.57	5149.3	
808.74	4799.8	
808.92	3823.6	
809.09	4825	
809.27	5027.1	
809.44	5643.5	
809.61	3392.1	
809.79	3793.5	
809.96	6260.6	
810.14	5883.1	
810.31	3257	
810.48	4029	
810.66	5228.5	
810.83	5996.5	
811.01	3845.4	
811.18	4293.9	
811.35	5930.2	
811.53	4616.8	
811.7	4612.7	
811.87	4307.6	
812.05	5161.6	
812.22	5074.2	
812.39	3710.2	
812.57	3596.9	
812.74	5103.5	
812.92	6877.8	
813.09	4074.1	
813.26	4369	
813.44	6553.5	
813.61	5020.9	
813.78	3367.5	
813.96	4493.2	
814.13	5139.7	
814.3	4823	
814.48	4859.1	
814.65	4072.7	
814.82	6427.2	
815	4936.3	
815.17	4121.2	
815.34	5027.1	
815.52	5064.6	
815.69	5070.8	
815.87	4119.8	
816.04	3561.4	
816.21	5180	
816.38	4539.7	
816.56	4010.6	
816.73	3693.2	
816.9	6466.8	
817.08	5902.9	
817.25	3675.4	
817.42	4671.4	
817.6	4711	
817.77	5186.8	
817.94	4241.3	
818.12	3688.4	
818.29	4903.5	
818.46	7631.4	
818.64	3852.2	
818.81	3616	
818.98	4783.4	
819.16	6987	
819.33	4448.2	
819.5	4143	
819.67	5536.3	
819.85	6171.2	
820.02	4082.3	
820.19	4302.8	
820.37	5348.6	
820.54	4925.4	
820.71	4284.4	
820.88	5203.9	
821.06	5365	
821.23	4894	
821.4	4293.9	
821.58	4121.2	
821.75	5832.6	
821.92	5252.4	
822.09	3403.7	
822.27	3676.1	
822.44	5132.9	
822.61	5087.8	
822.79	3376.4	
822.96	6451.1	
823.13	5593	
823.3	4880.3	
823.48	4009.2	
823.65	3546.4	
823.82	5800.5	
823.99	4700.1	
824.17	4952.7	
824.34	3566.9	
824.51	6761	
824.68	5179.3	
824.86	3753.2	
825.03	4240	
825.2	5148.6	
825.37	6240.8	
825.55	3691.8	
825.72	4133.5	
825.89	6775.4	
826.06	6360.3	
826.24	4019.5	
826.41	4033.8	
826.58	6208.1	
826.75	5444.9	
826.92	3162.1	
827.1	3547.8	
827.27	8483.4	
827.44	6698.9	
827.61	3837.2	
827.79	4632.5	
827.96	4889.2	
828.13	5267.4	
828.3	4005.1	
828.47	3408.5	
828.65	5385.5	
828.82	5261.9	
828.99	5184.8	
829.16	4484.4	
829.34	5735.7	
829.51	5540.4	
829.68	4175.1	
829.85	4264.6	
830.02	6055.2	
830.2	5729.5	
830.37	3186.6	
830.54	5022.3	
830.71	6543.3	
830.88	5099.4	
831.05	3234.4	
831.23	3704.8	
831.4	6239.5	
831.57	7002	
831.74	3826.3	
831.91	3423.5	
832.09	5431.2	
832.26	5733.6	
832.43	3944.4	
832.6	4435.9	
832.77	5393.7	
832.94	6128.2	
833.12	3155.9	
833.29	3906.8	
833.46	5010.7	
833.63	7234.8	
833.8	4307.6	
833.97	4026.3	
834.15	5782.1	
834.32	5461.2	
834.49	4082.3	
834.66	4257.7	
834.83	6005.3	
835	4895.3	
835.17	3847.5	
835.35	3827.7	
835.52	5653.8	
835.69	5516.5	
835.86	4061.8	
836.03	3367.5	
836.2	5724.8	
836.37	5311.7	
836.55	3980.6	
836.72	3716.4	
836.89	5270.8	
837.06	5760.3	
837.23	3981.3	
837.4	4425.7	
837.57	6562.4	
837.75	7248.4	
837.92	3660.4	
838.09	3846.8	
838.26	5331.5	
838.43	6039.5	
838.6	4190.8	
838.77	3737.5	
838.94	6892.8	
839.11	6563.1	
839.29	4007.9	
839.46	3136.8	
839.63	5696.1	
839.8	5422.3	
839.97	3896.6	
840.14	3900	
840.31	5495.4	
840.48	5743.2	
840.65	3170.9	
840.82	3765.5	
841	5705	
841.17	5683.8	
841.34	3576.4	
841.51	3610.6	
841.68	5651.7	
841.85	5401.9	
842.02	3695.2	
842.19	3031.7	
842.36	5469.4	
842.53	5441.5	
842.7	3530	
842.87	4361.5	
843.05	7191.1	
843.22	5397.1	
843.39	3382.6	
843.56	3654.9	
843.73	5143.1	
843.9	5754.1	
844.07	5748	
844.24	4793.6	
844.41	8342.1	
844.58	4933.6	
844.75	3439.9	
844.92	3706.8	
845.09	5720	
845.26	5715.2	
845.43	3548.4	
845.6	3725.9	
845.77	5700.2	
845.94	5442.1	
846.12	3898.6	
846.29	4181.3	
846.46	5925.5	
846.63	5711.8	
846.8	3512.3	
846.97	4226.3	
847.14	6180.1	
847.31	5726.8	
847.48	3976.5	
847.65	4369.7	
847.82	6013.5	
847.99	5913.2	
848.16	4727.4	
848.33	4354	
848.5	5204.6	
848.67	6210.8	
848.84	3543	
849.01	3658.4	
849.18	5098.8	
849.35	4803.2	
849.52	4446.1	
849.69	3508.9	
849.86	5934.3	
850.03	6164.4	
850.2	3598.3	
850.37	4358.8	
850.54	6131.6	
850.71	5358.9	
850.88	4257	
851.05	3423.5	
851.22	5614.8	
851.39	6288.6	
851.56	3366.9	
851.73	4040	
851.9	4992.3	
852.07	5869.5	
852.24	3941.7	
852.41	3484.3	
852.58	5564.3	
852.75	5111	
852.92	3921.2	
853.09	3462.4	
853.26	5292.6	
853.43	6151.4	
853.6	3494.5	
853.77	3005.7	
853.94	6224.5	
854.11	5653.1	
854.28	5194.3	
854.44	3802.4	
854.61	6724.8	
854.78	5766.4	
854.95	3551.2	
855.12	4468	
855.29	4596.3	
855.46	6331.6	
855.63	3523.2	
855.8	4921.3	
855.97	5249.6	
856.14	6053.8	
856.31	4935.6	
856.48	3832.4	
856.65	5253.7	
856.82	4981.3	
856.99	3369.6	
857.16	3822.2	
857.33	6938.5	
857.49	5348.6	
857.66	3849.5	
857.83	4108.2	
858	5321.3	
858.17	5504.9	
858.34	3295.2	
858.51	3468.6	
858.68	6364.4	
858.85	6439.5	
859.02	4073.4	
859.19	4292.5	
859.36	4984.8	
859.52	5065.3	
859.69	3551.2	
859.86	4128.7	
860.03	5074.2	
860.2	6275.7	
860.37	3168.2	
860.54	3542.3	
860.71	5901.6	
860.88	6334.4	
861.05	3960.8	
861.21	4384.7	
861.38	6322.1	
861.55	4875.5	
861.72	3266.5	
861.89	3947.8	
862.06	6015.6	
862.23	6445.6	
862.4	3421.5	
862.56	3608.5	
862.73	5739.1	
862.9	5486.5	
863.07	4130.1	
863.24	3179.8	
863.41	4878.9	
863.58	5014.8	
863.75	3583.3	
863.91	4033.8	
864.08	6298.2	
864.25	5848.3	
864.42	4382	
864.59	4835.3	
864.76	6651.8	
864.93	5036.6	
865.09	3462.4	
865.26	3737.5	
865.43	6180.1	
865.6	6582.9	
865.77	3044.6	
865.94	3493.8	
866.1	6243.6	
866.27	5996.5	
866.44	5287.9	
866.61	3359.4	
866.78	5375.2	
866.95	5834.7	
867.11	3394.8	
867.28	3075.4	
867.45	6029.9	
867.62	5154.7	
867.79	4058.4	
867.96	3474.7	
868.12	5010	
868.29	5939.1	
868.46	3543.7	
868.63	4726	
868.8	6159.6	
868.97	5898.2	
869.13	3682.9	
869.3	3736.2	
869.47	5839.4	
869.64	6022.4	
869.81	3506.1	
869.97	3525.9	
870.14	5728.2	
870.31	6377.4	
870.48	3423.5	
870.65	4394.3	
870.81	5384.8	
870.98	5295.4	
871.15	4016.7	
871.32	3664.5	
871.48	5781.4	
871.65	6399.9	
871.82	3450.1	
871.99	3876.8	
872.16	6894.1	
872.32	6181.5	
872.49	3538.2	
872.66	3559.4	
872.83	5938.4	
872.99	5182.7	
873.16	4010.6	
873.33	3486.3	
873.5	5550.7	
873.67	5611.4	
873.83	3702.7	
874	4677.6	
874.17	5680.4	
874.34	6745.3	
874.5	4579.9	
874.67	4424.3	
874.84	6335.1	
875.01	4928.1	
875.17	4957.4	
875.34	3508.9	
875.51	5579.3	
875.68	6745.3	
875.84	4221.5	
876.01	5134.3	
876.18	5883.8	
876.34	5878.4	
876.51	3535.5	
876.68	3422.2	
876.85	5347.9	
877.01	6211.5	
877.18	4929.5	
877.35	3501.3	
877.52	5472.9	
877.68	4960.2	
877.85	3404.4	
878.02	3467.9	
878.18	5477.6	
878.35	5156.8	
878.52	2770.9	
878.69	3903.4	
878.85	5924.8	
879.02	5855.1	
879.19	4948.6	
879.35	3779.9	
879.52	5857.2	
879.69	6094.8	
879.86	3043.3	
880.02	3953.3	
880.19	5427.1	
880.36	6627.2	
880.52	4024.9	
880.69	4078.2	
880.86	5991.7	
881.02	6047.7	
881.19	3872.7	
881.36	3764.8	
881.52	5855.8	
881.69	5234.6	
881.86	3768.9	
882.02	3707.5	
882.19	6097.5	
882.36	7195.2	
882.52	3565.5	
882.69	4854.4	
882.86	5708.4	
883.02	5603.2	
883.19	4265.2	
883.36	4011.3	
883.52	5962.3	
883.69	6771.9	
883.86	3504.1	
884.02	3185.3	
884.19	5971.9	
884.36	5516.5	
884.52	3985.3	
884.69	3683.6	
884.86	5261.2	
885.02	6552.1	
885.19	3969.6	
885.36	4068.6	
885.52	5517.9	
885.69	5661.3	
885.86	5065.3	
886.02	4453.6	
886.19	5883.8	
886.35	5413.5	
886.52	3860.4	
886.69	4905.6	
886.85	5053	
887.02	6285.2	
887.19	6285.2	
887.35	6285.2	
887.52	6285.2	
887.68	6285.2	
887.85	6285.2	
888.02	6285.2	
888.18	6285.2	
888.35	6285.2	
888.51	6285.2	
888.68	6285.2	
888.85	6285.2	
889.01	6285.2	
889.18	6285.2	
889.35	6285.2	
889.51	6285.2	
889.68	6285.2	
889.84	6285.2	
890.01	6285.2	
890.17	6285.2	
890.34	6285.2	
890.51	6285.2	
890.67	6285.2	
890.84	6285.2	
891	6285.2	
891.17	6285.2	
891.34	6285.2	
891.5	6285.2	
891.67	6285.2	
891.83	6285.2	
892	6285.2	
892.16	6285.2	
892.33	6285.2	
892.5	6285.2	
892.66	6285.2	
892.83	6285.2	
892.99	6285.2	
893.16	6285.2	
893.32	6285.2	
893.49	6285.2	
893.65	6285.2	
893.82	6285.2	
893.99	6285.2	
894.15	6285.2	
894.32	6285.2	
894.48	6285.2	
894.65	6285.2	
894.81	6285.2	
894.98	6285.2	
895.14	6285.2	
895.31	6285.2	
895.47	6285.2	
895.64	6285.2	
895.81	6285.2	
895.97	6285.2	
896.14	6285.2	
896.3	6285.2	
896.47	6285.2	
896.63	6285.2	
896.8	6285.2	
896.96	6285.2	
897.13	6285.2	
897.29	6285.2	
897.46	6285.2	
897.62	6285.2	
897.79	6285.2	
897.95	6285.2	
898.12	6285.2	
898.28	6285.2	
898.45	6285.2	
898.61	6285.2	
898.78	6285.2	
898.94	6285.2	
899.11	6285.2	
899.27	6285.2	
899.44	6285.2	
899.6	6285.2	
899.77	6285.2	
899.93	6285.2	
900.1	6285.2	
900.26	6285.2	
900.43	6285.2	
900.59	6285.2	
900.76	6285.2	
900.92	6285.2	
901.09	6285.2	
901.25	6285.2	
901.42	6285.2	
901.58	6285.2	
901.75	6285.2	
901.91	6285.2	
902.07	6285.2	
902.24	6285.2	
902.4	6285.2	
902.57	6285.2	
902.73	6285.2	
902.9	6285.2	
903.06	6285.2	
903.23	6285.2	
903.39	6285.2	
903.56	6285.2	
903.72	6285.2	
903.88	6285.2	
904.05	6285.2	
904.21	6285.2	
904.38	6285.2	
904.54	6285.2	
904.71	6285.2	
904.87	6285.2	
905.03	6285.2	
905.2	6285.2	
905.36	6285.2	
905.53	6285.2	
905.69	6285.2	
905.86	6285.2	
906.02	6285.2	
906.18	6285.2	
906.35	6285.2	
906.51	6285.2	
906.68	6285.2	
906.84	6285.2	
907.01	6285.2	
907.17	6285.2	
907.33	6285.2	
907.5	6285.2	
907.66	6285.2	
907.83	6285.2	
907.99	6285.2	
908.15	6285.2	
908.32	6285.2	
908.48	6285.2	
908.65	6285.2	
908.81	6285.2	
908.97	6285.2	
909.14	6285.2	
909.3	6285.2	
909.47	6285.2	
909.63	6285.2	
909.79	6285.2	
909.96	6285.2	
910.12	6285.2	
910.28	6285.2	
910.45	6285.2	
910.61	6285.2	
910.78	6285.2	
910.94	6285.2	
911.1	6285.2	
911.27	6285.2	
911.43	6285.2	
911.59	6285.2	
911.76	6285.2	
911.92	6285.2	
912.08	6285.2	
912.25	6285.2	
912.41	6285.2	
912.57	6285.2	
912.74	6285.2	
912.9	6285.2	
913.07	6285.2	
913.23	6285.2	
913.39	6285.2	
913.56	6285.2	
913.72	6285.2	
913.88	6285.2	
914.05	6285.2	
914.21	6285.2	
914.37	6285.2	
914.54	6285.2	
914.7	6285.2	
914.86	6285.2	
915.03	6285.2	
915.19	6285.2	
