Wavelength	Intensities	
nm	a.u.	
179.22	1934.6	
179.44	1921	
179.65	1948.3	
179.86	1893.7	
180.08	1922.4	
180.29	4938.3	
180.51	3500.7	
180.72	5623	
180.94	6673.6	
181.15	3296.5	
181.37	3147.7	
181.58	5481	
181.79	5800.5	
182.01	3379.1	
182.22	3590.1	
182.44	5798.5	
182.65	4838	
182.87	4553.3	
183.08	3964.2	
183.29	6079.1	
183.51	4957.4	
183.72	3665.2	
183.94	5337.7	
184.15	5380.7	
184.37	5474.2	
184.58	3167.5	
184.79	4396.3	
185.01	5031.9	
185.22	5746.6	
185.44	4678.9	
185.65	3853.6	
185.86	5292.6	
186.08	4910.3	
186.29	3108.8	
186.51	3363.4	
186.72	4984.8	
186.94	5944.6	
187.15	3949.8	
187.36	4076.8	
187.58	7752.2	
187.79	5466.7	
188.01	4222.9	
188.22	6586.3	
188.43	6667.5	
188.65	5707.7	
188.86	3375.1	
189.08	4018.1	
189.29	5199.8	
189.5	5228.5	
189.72	3719.8	
189.93	3827.7	
190.15	5948.7	
190.36	7116	
190.57	4160.8	
190.79	3964.2	
191	6053.8	
191.22	6032	
191.43	4087.7	
191.64	3358	
191.86	6215.6	
192.07	5954.1	
192.29	3485.6	
192.5	3757.3	
192.71	6005.3	
192.93	5118.6	
193.14	3728.7	
193.35	3799	
193.57	5178.6	
193.78	6002.6	
194	2938.8	
194.21	3691.8	
194.42	4971.1	
194.64	5450.3	
194.85	4023.6	
195.07	4727.4	
195.28	5502.2	
195.49	4711.7	
195.71	5002.5	
195.92	3424.9	
196.13	5594.4	
196.35	5653.8	
196.56	5297.4	
196.78	4021.5	
196.99	6995.9	
197.2	6638.1	
197.42	4582.7	
197.63	4071.4	
197.84	4840	
198.06	5638.1	
198.27	3729.4	
198.48	4973.2	
198.7	5225.7	
198.91	5330.9	
199.13	4081.6	
199.34	4095.3	
199.55	5821.7	
199.77	4695.3	
199.98	3599	
200.19	4175.8	
200.41	5254.4	
200.62	5030.5	
200.83	4276.2	
201.05	4554.7	
201.26	5332.9	
201.47	5039.4	
201.69	3602.4	
201.9	3448.1	
202.11	5402.5	
202.33	6410.8	
202.54	3858.4	
202.76	4303.5	
202.97	5492	
203.18	5547.3	
203.4	4208.6	
203.61	4117.1	
203.82	5448.3	
204.04	5040.1	
204.25	4117.8	
204.46	4035.9	
204.68	5411.4	
204.89	5687.9	
205.1	3997.6	
205.32	3466.5	
205.53	5878.4	
205.74	5958.9	
205.96	2977.7	
206.17	4184.7	
206.38	5804.6	
206.6	5953.4	
206.81	4652.3	
207.02	3820.1	
207.24	5642.8	
207.45	6081.1	
207.66	3870.7	
207.88	3323.9	
208.09	5588.9	
208.3	5369.8	
208.52	3578.5	
208.73	3947.8	
208.94	5408.7	
209.15	6134.3	
209.37	3855	
209.58	4117.8	
209.79	5975.3	
210.01	5242.8	
210.22	3140.2	
210.43	3211.9	
210.65	5425.8	
210.86	5838.1	
211.07	3848.8	
211.29	3549.8	
211.5	5832.6	
211.71	5389.6	
211.93	3551.2	
212.14	3517	
212.35	5336.3	
212.56	5586.2	
212.78	4109.6	
212.99	3374.4	
213.2	6447	
213.42	5181.4	
213.63	3632.4	
213.84	3938.9	
214.06	4782.7	
214.27	4923.3	
214.48	3862.5	
214.69	4105.5	
214.91	6076.3	
215.12	6217	
215.33	4146.5	
215.55	4569.7	
215.76	6675.7	
215.97	5787.6	
216.18	4020.8	
216.4	3964.2	
216.61	5093.3	
216.82	5878.4	
217.04	3616	
217.25	3711.6	
217.46	6109.8	
217.67	5821	
217.89	3158.7	
218.1	3336.8	
218.31	5513.1	
218.53	5651.7	
218.74	3763.5	
218.95	3624.2	
219.16	5416.2	
219.38	6311.2	
219.59	3624.2	
219.8	4382.7	
220.01	7028.6	
220.23	5418.2	
220.44	4811.4	
220.65	3564.1	
220.87	5412.1	
221.08	5993	
221.29	3290.4	
221.5	4423.6	
221.72	7415	
221.93	5136.3	
222.14	4129.4	
222.35	4863.9	
222.57	5422.3	
222.78	5774.6	
222.99	3913.7	
223.2	4200.4	
223.42	5742.5	
223.63	5815.5	
223.84	3003	
224.05	2942.9	
224.27	6987	
224.48	6300.9	
224.69	4859.1	
224.9	4079.6	
225.12	5665.4	
225.33	5384.1	
225.54	3235.8	
225.75	3674.1	
225.97	5021.6	
226.18	5272.2	
226.39	3936.9	
226.6	3612.6	
226.82	5219.6	
227.03	5040.7	
227.24	4111.6	
227.45	3394.2	
227.67	5840.1	
227.88	6341.2	
228.09	4543.1	
228.3	4542.4	
228.52	5863.3	
228.73	5406.6	
228.94	3751.2	
229.15	3403.7	
229.36	5317.9	
229.58	5249.6	
229.79	3768.9	
230	4504.8	
230.21	6470.2	
230.43	5539.8	
230.64	4048.2	
230.85	4240.7	
231.06	5830.6	
231.28	5854.5	
231.49	3386.7	
231.7	3895.9	
231.91	5764.3	
232.12	5475.6	
232.34	3451.5	
232.55	3963.5	
232.76	6049	
232.97	5582.8	
233.18	3575.8	
233.4	4064.5	
233.61	5705.6	
233.82	5209.3	
234.03	3732.8	
234.25	3676.1	
234.46	7516.7	
234.67	5486.5	
234.88	4199.7	
235.09	3601	
235.31	5757.5	
235.52	5285.8	
235.73	4052.2	
235.94	3431.7	
236.15	5137.7	
236.37	6623.1	
236.58	3550.5	
236.79	3933.5	
237	5775.3	
237.21	4898.1	
237.43	4216.1	
237.64	3233.7	
237.85	9872.6	
238.06	4997.7	
238.27	4211.3	
238.48	3379.1	
238.7	5730.9	
238.91	5332.2	
239.12	3926	
239.33	4009.2	
239.54	5030.5	
239.76	5349.3	
239.97	3851.5	
240.18	3882.9	
240.39	6748.7	
240.6	5709.1	
240.82	4063.2	
241.03	3292.5	
241.24	5426.4	
241.45	6292.7	
241.66	3560.7	
241.87	4250.2	
242.09	6117.3	
242.3	6556.2	
242.51	4259.8	
242.72	3884.3	
242.93	5877	
243.14	5371.8	
243.36	4486.4	
243.57	4878.9	
243.78	6275.7	
243.99	5792.3	
244.2	3923.9	
244.41	3577.8	
244.63	4986.8	
244.84	5732.9	
245.05	4194.9	
245.26	3904.1	
245.47	5722.7	
245.68	6023.8	
245.9	5233.9	
246.11	4134.2	
246.32	5221.6	
246.53	5655.8	
246.74	6278.4	
246.95	3289.7	
247.16	4900.1	
247.38	5444.9	
247.59	3261	
247.8	3872	
248.01	5070.1	
248.22	5352	
248.43	3561.4	
248.64	3808.5	
248.86	4841.4	
249.07	5178.6	
249.28	3393.5	
249.49	4022.2	
249.7	5993.7	
249.91	6079.7	
250.12	3288.4	
250.34	3303.4	
250.55	5518.6	
250.76	5424.4	
250.97	4005.8	
251.18	4116.4	
251.39	6122.1	
251.6	5667.4	
251.81	4129.4	
252.03	4078.2	
252.24	5210.7	
252.45	5953.4	
252.66	3383.2	
252.87	4327.4	
253.08	5436	
253.29	7139.9	
253.5	3404.4	
253.72	4801.8	
253.93	5247.6	
254.14	6449.1	
254.35	3725.9	
254.56	3830.4	
254.77	5650.3	
254.98	5044.8	
255.19	3616.7	
255.41	4741	
255.62	5563.6	
255.83	6040.8	
256.04	4246.8	
256.25	4123.9	
256.46	6710.5	
256.67	5082.4	
256.88	3988.8	
257.09	4465.3	
257.31	5087.8	
257.52	5137.7	
257.73	5067.4	
257.94	3706.8	
258.15	5193.6	
258.36	5487.9	
258.57	4665.3	
258.78	2957.3	
258.99	5938.4	
259.2	5276.3	
259.41	3766.2	
259.63	3799.7	
259.84	6244.9	
260.05	6785.6	
260.26	4955.4	
260.47	3581.2	
260.68	6047	
260.89	5302.9	
261.1	4547.2	
261.31	3564.1	
261.52	6029.2	
261.73	6468.2	
261.95	4811.4	
262.16	4177.9	
262.37	6168.5	
262.58	6273.6	
262.79	4869.4	
263	3762.1	
263.21	5461.2	
263.42	4973.2	
263.63	3865.2	
263.84	3704.1	
264.05	5999.9	
264.26	6383.5	
264.47	4672.8	
264.69	4192.9	
264.9	6109.1	
265.11	5588.2	
265.32	3589.4	
265.53	3735.5	
265.74	5516.5	
265.95	4801.1	
266.16	3948.5	
266.37	4456.4	
266.58	5504.3	
266.79	5219.6	
267	3686.3	
267.21	3393.5	
267.42	4984.1	
267.63	5498.8	
267.84	3903.4	
268.06	3345	
268.27	5846.3	
268.48	6190.3	
268.69	3832.4	
268.9	4496.7	
269.11	6094.1	
269.32	4859.8	
269.53	3937.6	
269.74	3629.7	
269.95	5711.1	
270.16	4756.7	
270.37	3898.6	
270.58	4466.6	
270.79	5300.8	
271	5913.2	
271.21	4171	
271.42	3928	
271.63	5574.6	
271.84	5051	
272.05	3091.1	
272.26	3533.4	
272.47	5499.5	
272.68	5619.6	
272.89	3751.9	
273.11	4362.9	
273.32	5216.9	
273.53	6380.1	
273.74	4210.6	
273.95	4143	
274.16	6065.4	
274.37	5481	
274.58	4309.6	
274.79	3392.1	
275	5591.6	
275.21	6111.1	
275.42	5162.2	
275.63	4375.1	
275.84	5643.5	
276.05	7150.1	
276.26	4149.2	
276.47	3906.8	
276.68	5272.2	
276.89	6432	
277.1	4450.9	
277.31	3493.2	
277.52	5742.5	
277.73	5904.3	
277.94	3381.2	
278.15	3807.9	
278.36	5661.3	
278.57	5107.6	
278.78	3762.1	
278.99	4235.2	
279.2	5023.7	
279.41	5001.1	
279.62	4873.5	
279.83	3424.9	
280.04	6619	
280.25	5030.5	
280.46	4894	
280.67	3912.3	
280.88	5016.8	
281.09	6067.4	
281.3	4183.3	
281.51	5219.6	
281.72	5907	
281.93	5995.8	
282.14	3680.2	
282.35	3904.1	
282.56	5908.4	
282.77	5897.5	
282.98	3760.8	
283.19	4600.4	
283.4	7278.5	
283.61	5393.7	
283.82	3446	
284.03	4868	
284.24	5550	
284.45	6062.7	
284.66	4835.9	
284.87	4659.1	
285.08	6003.3	
285.29	6182.8	
285.5	3327.9	
285.71	3860.4	
285.92	6044.9	
286.12	6667.5	
286.33	4812	
286.54	3786.7	
286.75	5862	
286.96	5325.4	
287.17	3437.9	
287.38	4755.4	
287.59	5114.5	
287.8	4997.7	
288.01	3828.3	
288.22	4408.6	
288.43	5972.6	
288.64	4975.9	
288.85	4517.1	
289.06	4349.9	
289.27	5876.3	
289.48	6399.9	
289.69	4829.8	
289.9	4360.1	
290.11	6097.5	
290.32	5122.7	
290.53	4625	
290.74	4222.2	
290.94	5908.4	
291.15	5956.2	
291.36	3747.1	
291.57	4374.5	
291.78	5234.6	
291.99	4873.5	
292.2	3537.5	
292.41	4239.3	
292.62	5988.3	
292.83	5802.6	
293.04	5243.5	
293.25	3532.7	
293.46	5239.4	
293.67	6055.8	
293.88	3673.4	
294.09	3521.1	
294.29	4971.1	
294.5	5603.2	
294.71	3953.9	
294.92	3774.4	
295.13	5213.4	
295.34	6509.8	
295.55	3256.3	
295.76	3415.3	
295.97	5893.4	
296.18	6566.5	
296.39	3460.4	
296.6	3696.6	
296.81	5580	
297.01	5892	
297.22	3842	
297.43	3667.2	
297.64	5082.4	
297.85	5084.4	
298.06	3047.4	
298.27	3336.8	
298.48	5469.4	
298.69	5139	
298.9	3919.1	
299.11	3631	
299.31	4957.4	
299.52	4984.8	
299.73	4285	
299.94	4136.2	
300.15	5440.1	
300.36	5089.9	
300.57	4205.8	
300.78	4182.6	
300.99	5292.6	
301.2	5560.2	
301.4	3615.3	
301.61	3971.7	
301.82	5816.9	
302.03	5834	
302.24	4433.2	
302.45	3464.5	
302.66	5752.7	
302.87	6170.5	
303.08	3689.8	
303.29	5000.5	
303.49	5212.1	
303.7	5466.7	
303.91	3302	
304.12	4744.5	
304.33	4993.6	
304.54	5592.3	
304.75	3667.9	
304.96	3534.8	
305.16	5773.2	
305.37	6546	
305.58	3226.9	
305.79	3295.9	
306	5724.1	
306.21	4855.7	
306.42	3678.8	
306.63	5566.4	
306.83	5274.9	
307.04	6121.4	
307.25	4014	
307.46	4036.5	
307.67	4618.2	
307.88	5818.3	
308.09	3565.5	
308.29	3698.6	
308.5	5513.8	
308.71	6042.9	
308.92	3913.7	
309.13	3523.2	
309.34	5275.6	
309.55	5350.7	
309.75	4597	
309.96	4215.4	
310.17	5893.4	
310.38	5096	
310.59	4418.2	
310.8	3478.8	
311.01	5997.8	
311.21	5326.8	
311.42	3467.2	
311.63	3603.7	
311.84	5188.9	
312.05	5615.5	
312.26	4049.5	
312.46	4459.8	
312.67	5293.3	
312.88	4962.9	
313.09	3525.2	
313.3	3505.4	
313.51	6244.3	
313.71	6591	
313.92	3580.5	
314.13	3767.6	
314.34	5621	
314.55	5367.7	
314.76	4581.3	
314.96	3967.6	
315.17	5535	
315.38	6020.3	
315.59	3514.3	
315.8	3386	
316.01	6381.5	
316.21	6303.6	
316.42	3417.4	
316.63	3919.1	
316.84	5305.6	
317.05	6179.4	
317.26	4173.1	
317.46	3728.7	
317.67	5347.9	
317.88	5833.3	
318.09	4498.7	
318.3	3272	
318.5	5164.3	
318.71	5775.3	
318.92	5797.8	
319.13	4151.2	
319.34	5997.1	
319.54	6030.6	
319.75	3329.3	
319.96	3179.1	
320.17	5839.4	
320.38	6041.5	
320.58	3262.4	
320.79	3913.7	
321	6019.7	
321.21	6097.5	
321.42	3936.2	
321.62	3198.2	
321.83	5048.9	
322.04	5550	
322.25	3781.9	
322.46	3594.9	
322.66	5567.1	
322.87	5700.9	
323.08	4382	
323.29	3450.1	
323.5	6553.5	
323.7	4975.9	
323.91	4893.3	
324.12	4313	
324.33	5575.9	
324.53	5738.4	
324.74	4203.8	
324.95	4446.1	
325.16	4904.2	
325.37	5242.8	
325.57	3586.7	
325.78	3660.4	
325.99	5500.2	
326.2	4891.2	
326.4	5165.7	
326.61	3308.8	
326.82	5399.8	
327.03	5547.9	
327.24	5016.2	
327.44	4790.9	
327.65	5741.1	
327.86	4642.1	
328.07	4136.9	
328.27	3388.7	
328.48	6140.5	
328.69	5014.1	
328.9	5131.5	
329.1	3812	
329.31	5271.5	
329.52	6272.9	
329.73	3549.8	
329.93	4007.9	
330.14	5469.4	
330.35	5688.6	
330.56	5866.7	
330.76	4457.1	
330.97	5262.6	
331.18	5625.1	
331.39	3936.2	
331.59	3218	
331.8	6057.9	
332.01	6167.1	
332.22	3670	
332.42	4197.7	
332.63	5563	
332.84	5188.9	
333.05	4001	
333.25	3646.1	
333.46	5213.4	
333.67	5431.9	
333.88	3724.6	
334.08	4143	
334.29	7309.2	
334.5	6114.6	
334.7	3449.5	
334.91	5124	
335.12	5042.1	
335.33	5852.4	
335.53	3981.3	
335.74	5844.2	
335.95	5260.5	
336.16	5080.3	
336.36	3928	
336.57	4516.5	
336.78	4974.5	
336.98	6012.2	
337.19	4847.5	
337.4	3833.8	
337.61	6562.4	
337.81	4999.8	
338.02	3634.5	
338.23	4757.4	
338.43	6251.8	
338.64	5131.5	
338.85	3531.4	
339.05	4689.8	
339.26	6349.4	
339.47	4896	
339.68	3602.4	
339.88	5286.5	
340.09	5725.4	
340.3	5927.5	
340.5	4227.7	
340.71	3172.3	
340.92	4975.2	
341.13	6154.8	
341.33	3439.9	
341.54	4233.2	
341.75	5631.9	
341.95	5289.2	
342.16	4020.2	
342.37	4332.1	
342.57	4987.5	
342.78	5449.6	
342.99	4413.4	
343.19	3168.9	
343.4	5861.3	
343.61	5664	
343.81	3847.5	
344.02	3494.5	
344.23	5849.7	
344.43	6343.2	
344.64	4405.2	
344.85	4348.5	
345.06	5721.3	
345.26	6085.9	
345.47	4117.1	
345.68	4822.3	
345.88	4843.4	
346.09	5886.5	
346.3	4156	
346.5	3180.5	
346.71	5439.4	
346.92	5143.8	
347.12	3187.3	
347.33	4041.3	
347.54	6029.2	
347.74	6384.9	
347.95	4154.6	
348.16	3023.5	
348.36	5245.5	
348.57	4960.2	
348.78	4028.4	
348.98	4405.9	
349.19	5389.6	
349.39	4855.7	
349.6	3221.5	
349.81	3675.4	
350.01	5664	
350.22	5150.6	
350.43	3925.3	
350.63	4738.3	
350.84	5461.9	
351.05	5251	
351.25	3640.6	
351.46	3207.8	
351.67	5939.1	
351.87	5152.7	
352.08	3837.9	
352.29	4411.3	
352.49	5943.9	
352.7	5993	
352.9	3474.7	
353.11	4287.1	
353.32	6529.6	
353.52	5294.7	
353.73	3425.6	
353.94	4403.1	
354.14	5729.5	
354.35	5565	
354.55	3551.9	
354.76	3942.3	
354.97	5730.9	
355.17	5462.6	
355.38	3309.5	
355.59	4672.1	
355.79	5176.6	
356	5580.7	
356.2	3885	
356.41	3456.3	
356.62	4788.8	
356.82	5332.2	
357.03	4204.5	
357.24	3785.3	
357.44	5151.3	
357.65	5223	
357.85	5075.5	
358.06	3964.2	
358.27	4801.8	
358.47	5033.2	
358.68	3283.6	
358.88	4169	
359.09	5726.8	
359.3	6075.6	
359.5	4941.1	
359.71	4287.8	
359.91	6480.5	
360.12	5838.1	
360.33	4158.7	
360.53	4572.4	
360.74	5109	
360.94	5150	
361.15	4354.7	
361.36	3528.7	
361.56	5932.3	
361.77	5319.3	
361.97	4820.2	
362.18	3784	
362.38	5923.4	
362.59	4996.4	
362.8	3498.6	
363	3390.1	
363.21	4829.1	
363.41	5562.3	
363.62	4061.1	
363.83	5081.7	
364.03	5511.1	
364.24	6523.5	
364.44	5183.4	
364.65	5168.4	
364.85	5276.9	
365.06	4868	
365.27	3659.7	
365.47	3702.7	
365.68	6319.3	
365.88	5281	
366.09	4095.9	
366.29	3765.5	
366.5	5554.8	
366.71	5958.2	
366.91	4988.9	
367.12	4255	
367.32	6537.1	
367.53	5770.5	
367.73	4171.7	
367.94	5148.6	
368.14	5790.3	
368.35	6702.3	
368.56	4205.2	
368.76	3545	
368.97	5866.1	
369.17	7591.8	
369.38	3680.2	
369.58	3921.9	
369.79	4879.6	
369.99	6310.5	
370.2	4960.9	
370.4	4030.4	
370.61	5550.7	
370.82	6724.8	
371.02	3901.4	
371.23	3235.1	
371.43	4805.9	
371.64	6171.9	
371.84	3917.8	
372.05	5202.5	
372.25	7543.4	
372.46	5919.3	
372.66	3943	
372.87	3909.6	
373.07	5890.6	
373.28	7493.5	
373.48	4954	
373.69	4566.3	
373.9	5370.5	
374.1	5413.5	
374.31	4889.9	
374.51	4401.8	
374.72	6150.1	
374.92	4998.4	
375.13	5013.4	
375.33	4211.3	
375.54	5707.7	
375.74	5151.3	
375.95	4287.1	
376.15	5513.8	
376.36	5732.9	
376.56	5615.5	
376.77	4386.7	
376.97	4768.4	
377.18	6801.3	
377.38	5812.8	
377.59	5101.5	
377.79	3816	
378	5641.5	
378.2	6055.2	
378.41	3915	
378.61	3759.4	
378.82	6104.3	
379.02	5190.2	
379.23	4003.1	
379.43	5168.4	
379.64	6150.1	
379.84	5796.4	
380.05	3870	
380.25	3806.5	
380.46	5918.6	
380.66	5421	
380.87	5262.6	
381.07	5591	
381.28	6602.7	
381.48	5932.3	
381.69	3886.4	
381.89	3934.8	
382.1	4872.1	
382.3	6115.9	
382.51	5016.2	
382.71	5920.7	
382.91	5923.4	
383.12	6389.7	
383.32	4251.6	
383.53	4496	
383.73	5694.7	
383.94	5580.7	
384.14	4447.5	
384.35	3554.6	
384.55	5530.9	
384.76	5965.1	
384.96	4269.3	
385.17	4633.9	
385.37	6001.2	
385.58	5227.1	
385.78	4691.2	
385.98	3503.4	
386.19	5416.9	
386.39	5818.3	
386.6	4037.2	
386.8	4351.9	
387.01	5866.1	
387.21	5951.4	
387.42	4715.1	
387.62	5325.4	
387.83	5241.4	
388.03	5926.8	
388.23	4316.4	
388.44	5101.5	
388.64	4958.8	
388.85	5020.3	
389.05	4639.3	
389.26	5315.2	
389.46	6635.4	
389.67	6303	
389.87	4607.2	
390.07	4758.1	
390.28	5518.6	
390.48	5097.4	
390.69	3872	
390.89	4166.9	
391.1	5304.2	
391.3	6285.2	
391.5	5426.4	
391.71	5989.6	
391.91	5992.4	
392.12	7064.1	
392.32	5482.4	
392.53	4699.4	
392.73	5400.5	
392.93	5579.3	
393.14	4394.3	
393.34	5170.4	
393.55	6152.1	
393.75	5551.4	
393.95	4308.2	
394.16	4307.6	
394.36	5302.9	
394.57	6004	
394.77	3835.2	
394.98	4228.4	
395.18	5233.2	
395.38	5322.7	
395.59	5132.9	
395.79	4108.9	
396	5317.9	
396.2	5859.2	
396.4	4952.7	
396.61	4872.1	
396.81	6139.8	
397.02	5311.7	
397.22	5126.1	
397.42	5197.1	
397.63	6033.3	
397.83	5293.3	
398.04	4015.4	
398.24	4563.6	
398.44	5929.6	
398.65	4890.5	
398.85	3833.8	
399.05	3992.2	
399.26	5186.8	
399.46	6998.6	
399.67	4361.5	
399.87	4099.4	
400.07	5609.4	
400.28	6002.6	
400.48	4180.6	
400.69	5261.2	
400.89	6650.4	
401.09	6642.9	
401.3	4018.8	
401.5	5199.1	
401.7	6848.4	
401.91	7102.4	
402.11	4363.5	
402.32	4612	
402.52	6218.3	
402.72	6135	
402.93	4827.7	
403.13	3718.4	
403.33	6903	
403.54	5660.6	
403.74	4586.8	
403.94	5463.3	
404.15	5767.8	
404.35	6991.1	
404.56	4349.2	
404.76	6235.4	
404.96	6189.6	
405.17	6010.8	
405.37	5651	
405.57	4807.3	
405.78	6221.7	
405.98	5671.5	
406.18	4335.5	
406.39	5302.9	
406.59	6190.3	
406.79	5882.4	
407	4210.6	
407.2	4267.3	
407.4	6225.8	
407.61	6495.5	
407.81	4321.9	
408.01	6577.4	
408.22	5276.3	
408.42	7290.8	
408.62	5395	
408.83	4741	
409.03	5806.7	
409.23	5683.8	
409.44	4896.7	
409.64	5195.7	
409.84	6784.2	
410.05	6561.7	
410.25	4969.7	
410.45	4747.2	
410.66	6091.3	
410.86	8587.8	
411.06	5128.8	
411.27	5043.5	
411.47	8331.1	
411.67	6260.6	
411.88	5300.1	
412.08	5511.8	
412.28	6909.8	
412.49	7456.7	
412.69	4976.6	
412.89	5037.3	
413.09	7251.2	
413.3	7111.2	
413.5	5127.4	
413.7	4737	
413.91	6343.9	
414.11	7256.6	
414.31	4967.7	
414.52	5425.8	
414.72	6939.2	
414.92	6795.2	
415.12	4944.5	
415.33	5479	
415.53	7143.3	
415.73	7403.4	
415.94	5909.1	
416.14	5341.8	
416.34	6180.8	
416.55	5836.7	
416.75	6460.7	
416.95	5883.8	
417.15	7133.8	
417.36	7919.5	
417.56	6800.6	
417.76	5747.3	
417.97	7543.4	
418.17	7148.8	
418.37	5333.6	
418.57	5336.3	
418.78	7017	
418.98	6684.6	
419.18	6311.2	
419.38	6261.3	
419.59	6731	
419.79	6427.9	
419.99	5304.9	
420.2	5634	
420.4	7247.8	
420.6	7451.2	
420.8	5191.6	
421.01	5074.2	
421.21	7033.4	
421.41	7268.2	
421.61	5537.7	
421.82	5275.6	
422.02	6526.9	
422.22	7541.3	
422.42	6181.5	
422.63	5707.7	
422.83	6725.5	
423.03	7912	
423.23	5789.6	
423.44	4739.7	
423.64	6756.2	
423.84	6494.1	
424.04	5216.9	
424.25	4876.2	
424.45	7649.2	
424.65	7785	
424.85	4669.4	
425.06	5371.1	
425.26	7640.3	
425.46	6137.8	
425.66	5805.3	
425.87	5476.3	
426.07	7441.6	
426.27	7283.3	
426.47	5682.4	
426.67	4969.7	
426.88	7791.8	
427.08	7212.3	
427.28	5938.4	
427.48	4939.7	
427.69	6118	
427.89	6802.7	
428.09	5815.5	
428.29	5038	
428.5	7548.8	
428.7	7033.4	
428.9	4880.3	
429.1	5393.7	
429.3	6922.1	
429.51	7423.9	
429.71	5187.5	
429.91	5941.2	
430.11	7257.3	
430.31	7758.4	
430.52	5510.4	
430.72	5802.6	
430.92	7825.3	
431.12	7285.3	
431.32	5154.1	
431.53	5543.9	
431.73	6195.8	
431.93	7937.9	
432.13	5167	
432.33	5018.9	
432.54	6709.1	
432.74	7041.6	
432.94	4860.5	
433.14	5934.3	
433.34	7188.4	
433.55	6708.5	
433.75	5955.5	
433.95	7718.8	
434.15	7098.9	
434.35	6718	
434.56	5160.2	
434.76	4651.6	
434.96	6905.8	
435.16	7213.6	
435.36	4982	
435.56	6117.3	
435.77	6683.9	
435.97	6843.6	
436.17	6875	
436.37	6089.3	
436.57	6677.1	
436.78	6552.8	
436.98	7273.7	
437.18	6708.5	
437.38	7365.2	
437.58	6766.5	
437.78	6890	
437.99	5449.6	
438.19	7449.1	
438.39	8149.6	
438.59	5372.5	
438.79	4878.9	
438.99	8028	
439.2	6918	
439.4	5072.1	
439.6	5109	
439.8	7200.7	
440	8327	
440.2	6152.8	
440.4	6204	
440.61	7552.2	
440.81	8187.1	
441.01	5238	
441.21	6196.5	
441.41	8034.9	
441.61	7610.3	
441.81	6421.7	
442.02	7536.5	
442.22	8457.4	
442.42	7667.6	
442.62	5337.7	
442.82	5426.4	
443.02	8057.4	
443.22	7206.1	
443.43	5814.2	
443.63	5348.6	
443.83	6956.3	
444.03	6961.7	
444.23	6621.1	
444.43	6232	
444.63	7378.1	
444.83	8521.6	
445.04	5367	
445.24	6804	
445.44	7698.3	
445.64	7829.4	
445.84	6247	
446.04	6312.5	
446.24	7053.2	
446.44	8037.6	
446.65	5487.2	
446.85	5914.5	
447.05	7379.5	
447.25	8006.9	
447.45	5979.4	
447.65	5352.7	
447.85	7397.3	
448.05	7069.6	
448.25	6390.3	
448.46	6189	
448.66	7420.5	
448.86	6997.9	
449.06	5233.9	
449.26	6472.3	
449.46	7800	
449.66	6799.3	
449.86	5963.7	
450.06	5926.8	
450.26	7013.6	
450.47	7657.4	
450.67	6206.7	
450.87	6474.3	
451.07	7660.8	
451.27	7482.6	
451.47	5458.5	
451.67	6101.6	
451.87	7150.1	
452.07	8256.7	
452.27	5733.6	
452.47	5689.9	
452.67	7436.2	
452.88	7968.6	
453.08	5037.3	
453.28	7179.5	
453.48	8638.3	
453.68	7422.5	
453.88	5662.6	
454.08	5884.5	
454.28	7836.2	
454.48	7490.8	
454.68	6539.2	
454.88	6936.5	
455.08	7897	
455.28	7644.4	
455.48	5459.2	
455.68	6192.4	
455.89	8447.2	
456.09	8129.1	
456.29	5894.1	
456.49	6028.5	
456.69	8330.5	
456.89	7527.7	
457.09	6544.6	
457.29	6863.4	
457.49	7832.8	
457.69	8031.5	
457.89	6284.5	
458.09	5709.1	
458.29	7616.4	
458.49	8372.1	
458.69	6705.7	
458.89	6146	
459.09	8665.6	
459.29	8794.7	
459.49	6262.7	
459.69	7048.4	
459.9	8220.5	
460.1	7780.9	
460.3	6179.4	
460.5	5941.2	
460.7	8240.3	
460.9	7924.3	
461.1	5662.6	
461.3	6950.1	
461.5	8882	
461.7	8548.2	
461.9	6064	
462.1	6596.5	
462.3	7980.3	
462.5	8546.9	
462.7	6181.5	
462.9	6239.5	
463.1	9619.3	
463.3	9388.6	
463.5	6404.7	
463.7	7402	
463.9	8192.6	
464.1	8642.4	
464.3	6649.8	
464.5	6856.6	
464.7	8925	
464.9	8555.7	
465.1	8347.5	
465.3	7301.7	
465.5	9173.5	
465.7	9243.8	
465.9	7562.5	
466.1	7343.3	
466.3	9080.7	
466.5	8861.6	
466.7	8297.7	
466.9	7159	
467.1	8849.3	
467.3	9746.3	
467.5	8312.7	
467.7	7103	
467.9	9952.4	
468.1	10973	
468.3	7858.7	
468.5	8295.6	
468.7	8790.6	
468.9	8881.4	
469.1	7393.8	
469.3	8110	
469.5	10844	
469.7	8412.4	
469.9	7868.3	
470.1	7100.3	
470.3	8874.5	
470.5	8766	
470.7	8438.3	
470.9	7268.2	
471.1	8650.6	
471.3	9015.8	
471.5	7038.2	
471.69	9113.5	
471.89	8507.9	
472.09	8115.4	
472.29	7950.2	
472.49	8261.5	
472.69	8299.7	
472.89	9122.3	
473.09	6969.9	
473.29	7072.3	
473.49	8418.5	
473.69	8626	
473.89	8088.8	
474.09	7227.3	
474.29	9803.6	
474.49	9555.8	
474.69	8077.2	
474.89	7433.4	
475.09	8599.4	
475.29	8631.5	
475.49	6838.9	
475.69	7111.9	
475.88	10229	
476.08	8860.9	
476.28	6617.7	
476.48	7211.6	
476.68	9413.1	
476.88	9237.7	
477.08	7092.1	
477.28	7427.3	
477.48	8716.2	
477.68	9450	
477.88	6901	
478.08	7285.3	
478.28	9831.6	
478.48	8901.8	
478.67	7278.5	
478.87	6786.3	
479.07	9544.9	
479.27	8961.2	
479.47	7633.5	
479.67	7599.3	
479.87	9301.9	
480.07	9979.8	
480.27	6864.1	
480.47	8447.9	
480.67	9130.5	
480.87	9648	
481.06	7099.6	
481.26	8009.6	
481.46	8971.5	
481.66	8946.2	
481.86	7548.1	
482.06	8590.5	
482.26	8760.5	
482.46	9650	
482.66	7477.8	
482.86	7108.5	
483.05	9065	
483.25	8473.1	
483.45	10111	
483.65	7509.2	
483.85	8626	
484.05	8972.2	
484.25	8004.8	
484.45	8541.4	
484.65	9813.9	
484.84	9890.3	
485.04	7484	
485.24	7499	
485.44	10150	
485.64	8447.9	
485.84	6839.5	
486.04	8165.9	
486.24	8861.6	
486.44	9239.1	
486.63	6790.4	
486.83	7719.5	
487.03	8738	
487.23	8977.6	
487.43	6875.7	
487.63	9481.4	
487.83	9134.6	
488.02	10065	
488.22	7974.8	
488.42	8590.5	
488.62	9947.7	
488.82	8936	
489.02	7571.3	
489.22	7626	
489.41	9829.6	
489.61	9516.2	
489.81	7333.1	
490.01	7347.4	
490.21	9770.2	
490.41	10402	
490.61	7288.7	
490.8	7344.7	
491	9227.5	
491.2	8445.1	
491.4	8081.3	
491.6	7062.1	
491.8	9247.3	
491.99	9520.3	
492.19	7038.2	
492.39	7511.9	
492.59	9813.2	
492.79	9901.9	
492.99	8318.8	
493.18	7400	
493.38	9983.8	
493.58	10767	
493.78	8187.8	
493.98	7754.3	
494.18	9706	
494.37	9215.9	
494.57	8455.4	
494.77	8263.6	
494.97	10004	
495.17	10354	
495.37	7979.6	
495.56	8251.9	
495.76	10456	
495.96	10092	
496.16	9150.3	
496.36	8137.9	
496.55	10338	
496.75	9859.6	
496.95	8488.8	
497.15	8354.3	
497.35	10258	
497.54	10239	
497.74	8350.9	
497.94	9906.7	
498.14	10956	
498.34	10892	
498.53	7899	
498.73	8812.4	
498.93	9805.7	
499.13	10276	
499.33	8630.1	
499.52	9176.3	
499.72	10395	
499.92	10695	
500.12	8217.8	
500.32	8542.1	
500.51	10704	
500.71	10426	
500.91	9268.4	
501.11	9000.8	
501.31	10533	
501.5	11013	
501.7	9644.6	
501.9	8652	
502.1	10292	
502.29	10644	
502.49	9058.2	
502.69	9449.3	
502.89	10550	
503.09	10509	
503.28	8042.4	
503.48	8138.6	
503.68	9766.1	
503.88	9894.4	
504.07	9157.8	
504.27	8656.1	
504.47	10148	
504.67	10244	
504.86	9064.3	
505.06	8677.2	
505.26	9789.3	
505.46	11675	
505.65	8611.7	
505.85	8908	
506.05	9762	
506.25	10203	
506.44	7928.4	
506.64	9022	
506.84	9740.8	
507.04	10634	
507.23	8247.2	
507.43	8843.1	
507.63	11834	
507.83	9954.5	
508.02	8717.5	
508.22	8313.4	
508.42	12036	
508.62	9802.3	
508.81	8645.2	
509.01	9302.6	
509.21	9550.4	
509.4	9988.6	
509.6	8866.3	
509.8	8302.5	
510	9876	
510.19	11404	
510.39	8307.9	
510.59	8386.4	
510.79	9828.9	
510.98	11049	
511.18	8407.6	
511.38	8561.9	
511.57	10627	
511.77	10519	
511.97	9192.6	
512.17	8155.7	
512.36	10543	
512.56	10480	
512.76	8278.6	
512.95	7909.9	
513.15	10829	
513.35	9302.6	
513.55	9206.3	
513.74	8285.4	
513.94	10729	
514.14	9927.9	
514.33	9334.6	
514.53	9037.7	
514.73	10006	
514.92	10208	
515.12	8488.1	
515.32	8365.3	
515.51	10350	
515.71	10933	
515.91	10169	
516.11	8566	
516.3	12162	
516.5	9884.9	
516.7	8925	
516.89	9582.4	
517.09	10059	
517.29	9975.7	
517.48	9393.4	
517.68	8776.2	
517.88	9922.4	
518.07	10370	
518.27	9340.1	
518.47	8282.7	
518.66	11143	
518.86	9695.8	
519.06	8217.8	
519.25	8677.9	
519.45	10032	
519.65	11665	
519.84	9364.7	
520.04	10025	
520.24	11931	
520.43	10743	
520.63	8954.4	
520.83	8796	
521.02	9973.6	
521.22	10616	
521.42	9293	
521.61	9999.5	
521.81	10272	
522.01	10464	
522.2	9215.2	
522.4	9099.8	
522.6	11017	
522.79	9839.1	
522.99	9153.1	
523.18	8554.4	
523.38	10852	
523.58	10893	
523.77	10621	
523.97	8617.2	
524.17	12844	
524.36	11940	
524.56	10081	
524.76	9701.2	
524.95	11087	
525.15	10685	
525.34	9517.6	
525.54	9564.7	
525.74	11383	
525.93	10419	
526.13	10789	
526.33	9566.7	
526.52	11863	
526.72	11307	
526.91	11006	
527.11	10332	
527.31	12075	
527.5	12506	
527.7	10221	
527.89	9281.4	
528.09	10989	
528.29	11671	
528.48	10712	
528.68	10301	
528.87	12000	
529.07	11918	
529.27	10221	
529.46	9648	
529.66	11480	
529.85	11992	
530.05	9555.1	
530.25	10395	
530.44	13069	
530.64	11627	
530.83	10166	
531.03	10391	
531.23	12207	
531.42	12094	
531.62	11263	
531.81	10441	
532.01	12361	
532.21	12969	
532.4	10153	
532.6	10797	
532.79	13323	
532.99	12676	
533.18	10718	
533.38	11719	
533.58	12223	
533.77	13000	
533.97	10836	
534.16	11738	
534.36	13289	
534.55	12382	
534.75	11974	
534.95	11016	
535.14	13138	
535.34	12379	
535.53	10552	
535.73	12610	
535.92	13687	
536.12	12497	
536.31	10729	
536.51	12034	
536.71	12851	
536.9	12444	
537.1	10817	
537.29	11121	
537.49	13241	
537.68	12370	
537.88	11499	
538.07	10618	
538.27	12651	
538.46	13796	
538.66	10726	
538.86	11066	
539.05	12699	
539.25	13173	
539.44	11415	
539.64	10945	
539.83	12522	
540.03	13588	
540.22	10919	
540.42	10939	
540.61	12880	
540.81	12975	
541	11439	
541.2	11923	
541.39	12438	
541.59	12715	
541.78	11701	
541.98	10860	
542.18	11952	
542.37	11962	
542.57	11162	
542.76	11809	
542.96	12027	
543.15	12802	
543.35	11219	
543.54	10624	
543.74	13071	
543.93	12605	
544.13	11057	
544.32	12280	
544.52	12831	
544.71	12097	
544.91	10356	
545.1	11475	
545.3	12106	
545.49	12809	
545.69	10105	
545.88	10852	
546.08	13770	
546.27	13298	
546.47	11383	
546.66	10617	
546.86	13000	
547.05	13689	
547.24	10836	
547.44	10751	
547.63	11895	
547.83	13149	
548.02	11066	
548.22	11433	
548.41	11784	
548.61	13090	
548.8	10555	
549	10532	
549.19	12430	
549.39	12779	
549.58	10333	
549.78	10855	
549.97	12773	
550.17	12295	
550.36	11688	
550.55	12783	
550.75	12204	
550.94	13223	
551.14	10395	
551.33	10796	
551.53	11569	
551.72	12539	
551.92	10865	
552.11	10610	
552.31	12592	
552.5	12714	
552.69	12379	
552.89	10217	
553.08	12600	
553.28	12178	
553.47	10699	
553.67	11812	
553.86	13168	
554.06	11433	
554.25	9783.8	
554.44	10391	
554.64	13971	
554.83	13435	
555.03	10273	
555.22	10785	
555.42	12764	
555.61	12286	
555.8	10655	
556	10813	
556.19	11613	
556.39	12945	
556.58	10593	
556.78	10602	
556.97	12274	
557.16	12011	
557.36	11899	
557.55	10216	
557.75	11250	
557.94	13244	
558.13	10346	
558.33	10183	
558.52	12820	
558.72	11686	
558.91	10177	
559.1	10332	
559.3	11355	
559.49	11122	
559.69	9719.7	
559.88	10812	
560.07	12269	
560.27	12595	
560.46	10890	
560.66	11071	
560.85	11996	
561.04	11032	
561.24	10150	
561.43	10307	
561.63	11391	
561.82	11697	
562.01	11594	
562.21	10503	
562.4	12138	
562.59	13198	
562.79	10438	
562.98	10205	
563.18	12073	
563.37	13581	
563.56	11084	
563.76	10028	
563.95	11563	
564.14	11605	
564.34	10450	
564.53	10107	
564.73	12052	
564.92	12544	
565.11	10714	
565.31	10032	
565.5	12719	
565.69	11672	
565.89	10230	
566.08	10479	
566.27	12609	
566.47	13160	
566.66	11225	
566.85	9909.4	
567.05	12341	
567.24	11637	
567.44	10181	
567.63	11683	
567.82	12373	
568.02	12205	
568.21	10099	
568.4	10557	
568.6	12041	
568.79	12068	
568.98	10079	
569.18	10281	
569.37	12042	
569.56	14175	
569.76	10693	
569.95	11564	
570.14	12422	
570.34	12448	
570.53	10150	
570.72	10122	
570.91	12919	
571.11	11977	
571.3	10623	
571.49	11538	
571.69	12101	
571.88	11527	
572.07	11194	
572.27	11084	
572.46	11574	
572.65	12656	
572.85	10326	
573.04	10766	
573.23	13053	
573.43	12113	
573.62	10231	
573.81	10844	
574	12245	
574.2	12028	
574.39	10544	
574.58	10744	
574.78	13221	
574.97	12405	
575.16	11177	
575.36	11271	
575.55	12822	
575.74	12920	
575.93	10191	
576.13	11438	
576.32	12142	
576.51	12651	
576.71	10570	
576.9	12054	
577.09	13065	
577.28	12614	
577.48	11156	
577.67	9992.7	
577.86	12202	
578.05	12541	
578.25	10874	
578.44	10819	
578.63	12338	
578.83	13599	
579.02	10090	
579.21	11775	
579.4	12540	
579.6	12248	
579.79	10965	
579.98	13209	
580.17	12805	
580.37	12997	
580.56	10426	
580.75	11211	
580.94	13491	
581.14	13203	
581.33	11643	
581.52	10554	
581.71	12692	
581.91	13477	
582.1	10235	
582.29	10739	
582.48	12377	
582.68	12353	
582.87	11329	
583.06	10936	
583.25	12777	
583.45	12049	
583.64	11642	
583.83	12489	
584.02	12057	
584.21	12641	
584.41	11600	
584.6	10858	
584.79	12323	
584.98	13142	
585.18	10333	
585.37	10259	
585.56	11817	
585.75	12783	
585.94	10420	
586.14	11253	
586.33	13278	
586.52	12185	
586.71	11005	
586.91	10705	
587.1	11537	
587.29	12570	
587.48	10600	
587.67	10527	
587.87	12458	
588.06	12570	
588.25	11771	
588.44	11084	
588.63	12067	
588.83	12662	
589.02	10336	
589.21	10180	
589.4	11718	
589.59	11491	
589.78	9419.3	
589.98	9638.4	
590.17	10937	
590.36	11688	
590.55	8893.6	
590.74	9699.9	
590.94	12874	
591.13	11579	
591.32	9511.4	
591.51	9132.6	
591.7	12026	
591.89	11469	
592.09	9203.6	
592.28	9781.8	
592.47	10685	
592.66	12619	
592.85	9260.9	
593.05	9504.6	
593.24	11298	
593.43	12113	
593.62	9620.7	
593.81	10144	
594	11313	
594.19	11501	
594.39	9429.5	
594.58	9367.4	
594.77	11629	
594.96	12114	
595.15	9277.3	
595.34	9963.4	
595.54	11589	
595.73	10708	
595.92	8641.7	
596.11	9790	
596.3	12190	
596.49	10763	
596.68	9537.4	
596.88	10027	
597.07	11763	
597.26	10598	
597.45	9055.4	
597.64	10323	
597.83	10803	
598.02	11448	
598.22	9069.1	
598.41	9805.7	
598.6	11312	
598.79	10658	
598.98	9109.4	
599.17	10096	
599.36	11203	
599.55	12420	
599.74	11204	
599.94	10919	
600.13	11799	
600.32	10601	
600.51	8926.4	
600.7	9016.5	
600.89	12436	
601.08	12392	
601.27	8667	
601.47	9781.1	
601.66	11769	
601.85	12245	
602.04	9491	
602.23	9882.8	
602.42	10567	
602.61	11322	
602.8	9363.3	
602.99	9215.9	
603.18	11021	
603.37	11290	
603.57	9846.6	
603.76	10333	
603.95	12025	
604.14	11572	
604.33	9220	
604.52	9567.4	
604.71	11228	
604.9	10860	
605.09	10139	
605.28	9975.7	
605.47	11693	
605.66	11486	
605.86	9777.7	
606.05	9242.5	
606.24	11710	
606.43	10396	
606.62	9629.5	
606.81	10271	
607	11667	
607.19	10996	
607.38	8901.2	
607.57	9094.3	
607.76	10654	
607.95	10152	
608.14	9564	
608.33	10140	
608.52	10589	
608.72	11626	
608.91	8738.7	
609.1	8697.7	
609.29	10670	
609.48	10256	
609.67	9696.4	
609.86	8853.4	
610.05	10313	
610.24	10682	
610.43	8521.6	
610.62	8208.9	
610.81	11863	
611	11614	
611.19	8669.1	
611.38	9431.6	
611.57	10929	
611.76	12202	
611.95	8589.2	
612.14	8303.1	
612.33	10780	
612.52	10349	
612.71	9016.5	
612.9	8221.9	
613.09	9820.7	
613.28	12332	
613.47	8787.8	
613.66	9701.2	
613.85	10876	
614.04	10377	
614.24	8861.6	
614.43	7996.6	
614.62	11070	
614.81	10895	
615	9374.9	
615.19	9408.4	
615.38	10220	
615.57	10623	
615.76	9211.8	
615.95	10311	
616.14	10916	
616.33	10613	
616.52	9555.1	
616.71	9843.2	
616.9	10950	
617.09	10922	
617.28	8915.5	
617.47	10223	
617.66	10085	
617.85	10081	
618.04	9966.8	
618.22	9387.2	
618.41	10570	
618.6	11457	
618.79	9248.6	
618.98	9062.9	
619.17	11735	
619.36	10082	
619.55	9180.4	
619.74	9261.6	
619.93	11139	
620.12	10406	
620.31	9813.2	
620.5	9944.3	
620.69	11756	
620.88	12164	
621.07	10674	
621.26	9785.9	
621.45	11289	
621.64	11334	
621.83	9858.9	
622.02	9046.6	
622.21	11288	
622.4	11120	
622.59	10385	
622.78	10188	
622.97	10649	
623.16	11733	
623.35	9818.6	
623.54	8899.8	
623.72	10861	
623.91	11032	
624.1	10081	
624.29	8662.2	
624.48	12199	
624.67	11350	
624.86	9983.8	
625.05	9062.3	
625.24	12336	
625.43	10696	
625.62	11811	
625.81	9243.8	
626	11850	
626.19	10987	
626.38	10129	
626.56	9441.8	
626.75	10788	
626.94	11585	
627.13	10057	
627.32	8809	
627.51	11491	
627.7	12785	
627.89	8791.2	
628.08	10040	
628.27	10627	
628.46	10935	
628.65	9189.9	
628.83	8907.3	
629.02	11486	
629.21	10716	
629.4	9692.4	
629.59	9878	
629.78	10684	
629.97	11649	
630.16	9919	
630.35	9319.6	
630.54	12111	
630.72	11757	
630.91	9298.5	
631.1	9928.6	
631.29	11162	
631.48	11447	
631.67	10034	
631.86	9380.4	
632.05	10888	
632.24	10857	
632.42	9045.2	
632.61	9809.1	
632.8	10996	
632.99	10608	
633.18	9665	
633.37	10163	
633.56	11235	
633.75	11002	
633.93	9609.1	
634.12	9353.1	
634.31	11976	
634.5	11624	
634.69	9392.7	
634.88	9970.2	
635.07	10978	
635.25	11566	
635.44	10358	
635.63	10610	
635.82	10703	
636.01	10254	
636.2	10240	
636.39	9818.6	
636.57	11884	
636.76	11671	
636.95	9274.6	
637.14	10685	
637.33	11181	
637.52	12338	
637.7	8938.7	
637.89	9904	
638.08	10851	
638.27	12330	
638.46	9868.5	
638.65	10427	
638.83	12201	
639.02	10591	
639.21	9852.8	
639.4	10392	
639.59	11017	
639.78	10662	
639.96	8989.2	
640.15	9096.4	
640.34	10791	
640.53	10996	
640.72	8675.9	
640.91	9107.3	
641.09	10246	
641.28	11665	
641.47	9024.7	
641.66	9985.2	
641.85	10854	
642.03	11178	
642.22	9661.6	
642.41	9071.8	
642.6	10379	
642.79	9719.7	
642.97	8860.9	
643.16	9625.5	
643.35	10241	
643.54	10017	
643.73	8761.9	
643.91	9488.2	
644.1	9856.2	
644.29	10590	
644.48	8842.4	
644.67	8809	
644.85	9988.6	
645.04	10355	
645.23	8251.9	
645.42	8587.8	
645.6	9691	
645.79	11046	
645.98	8632.9	
646.17	7520.1	
646.36	9449.3	
646.54	10085	
646.73	9216.5	
646.92	8097.7	
647.11	9656.2	
647.29	10667	
647.48	8135.2	
647.67	7854.6	
647.86	10906	
648.05	10978	
648.23	8426	
648.42	9766.1	
648.61	10326	
648.8	10028	
648.98	8148.2	
649.17	8413.7	
649.36	9699.2	
649.55	9155.1	
649.73	8161.2	
649.92	8974.9	
650.11	9456.2	
650.3	9806.4	
650.48	8246.5	
650.67	8029.4	
650.86	10138	
651.05	9041.1	
651.23	8142	
651.42	8174.8	
651.61	9501.2	
651.79	9602.9	
651.98	8354.3	
652.17	7958.4	
652.36	9927.9	
652.54	9071.8	
652.73	7919.5	
652.92	7712.7	
653.11	9994.1	
653.29	9962	
653.48	7152.9	
653.67	8200.7	
653.85	9764	
654.04	10681	
654.23	8271.1	
654.42	7803.4	
654.6	8946.9	
654.79	9686.9	
654.98	7179.5	
655.16	7732.4	
655.35	8566	
655.54	8513.4	
655.73	7296.9	
655.91	7248.4	
656.1	9749	
656.29	8549.6	
656.47	6812.9	
656.66	8677.9	
656.85	8871.1	
657.03	8920.3	
657.22	7423.9	
657.41	7495.6	
657.59	8983.8	
657.78	8807.6	
657.97	7250.5	
658.16	7939.3	
658.34	9616.6	
658.53	10114	
658.72	8940.1	
658.9	9336	
659.09	9067.7	
659.28	9254.8	
659.46	7623.2	
659.65	7484.6	
659.84	8953.7	
660.02	9405	
660.21	7391.8	
660.4	7430.7	
660.58	9848	
660.77	9183.1	
660.96	8035.5	
661.14	7050.5	
661.33	10362	
661.52	10288	
661.7	6901.7	
661.89	10739	
662.08	8729.1	
662.26	8331.1	
662.45	7221.8	
662.64	7389.8	
662.82	9435	
663.01	8748.2	
663.2	7443.7	
663.38	8112.7	
663.57	9325.8	
663.75	9154.4	
663.94	7692.9	
664.13	8993.3	
664.31	8663.6	
664.5	9454.8	
664.69	8104.5	
664.87	8526.4	
665.06	8418.5	
665.25	9150.3	
665.43	8708	
665.62	8814.5	
665.8	9543.5	
665.99	8754.4	
666.18	7670.3	
666.36	7805.5	
666.55	9452.1	
666.74	9428.2	
666.92	7246.4	
667.11	8880	
667.29	8753	
667.48	9424.1	
667.67	8630.1	
667.85	7528.3	
668.04	8831.5	
668.22	8880.7	
668.41	7641	
668.6	7840.3	
668.78	8577.6	
668.97	8811.7	
669.15	8058.1	
669.34	6948.8	
669.53	8626	
669.71	8974.2	
669.9	7127.6	
670.08	7822.6	
670.27	8652	
670.46	9157.2	
670.64	8109.3	
670.83	8262.2	
671.01	8459.5	
671.2	9160.6	
671.38	7217	
671.57	7141.9	
671.76	9800.9	
671.94	10419	
672.13	7033.4	
672.31	8097.7	
672.5	9406.3	
672.69	8600.8	
672.87	7199.3	
673.06	7506.5	
673.24	9140.8	
673.43	8648.6	
673.61	7956.4	
673.8	7545.4	
673.98	9321	
674.17	9544.9	
674.36	8139.3	
674.54	8019.8	
674.73	9147.6	
674.91	9343.5	
675.1	7662.8	
675.28	7245.7	
675.47	8854.1	
675.65	9422.7	
675.84	7548.1	
676.03	7890.1	
676.21	8581	
676.4	8179.6	
676.58	8323.6	
676.77	8041	
676.95	10129	
677.14	8482.7	
677.32	7200	
677.51	6941.9	
677.69	9420	
677.88	8281.3	
678.06	7025.2	
678.25	7216.4	
678.44	8957.1	
678.62	8637.6	
678.81	6957.6	
678.99	7968	
679.18	9645.9	
679.36	9299.1	
679.55	7460.8	
679.73	8155.7	
679.92	9192	
680.1	8662.9	
680.29	8738.7	
680.47	7558.4	
680.66	8619.2	
680.84	9433.6	
681.03	6797.9	
681.21	8112	
681.4	8632.2	
681.58	8609.7	
681.77	7288.7	
681.95	7229.3	
682.14	9401.5	
682.32	9823.4	
682.51	8277.2	
682.69	6914.6	
682.88	8511.4	
683.06	9110.7	
683.25	7876.5	
683.43	8338	
683.62	8822.6	
683.8	9341.5	
683.99	8427.4	
684.17	7593.2	
684.36	10002	
684.54	8632.2	
684.73	6720.8	
684.91	6991.1	
685.1	9030.9	
685.28	8375.5	
685.46	7548.8	
685.65	7565.2	
685.83	9273.2	
686.02	8546.2	
686.2	7127.6	
686.39	7230.7	
686.57	8222.6	
686.76	9870.5	
686.94	7081.2	
687.13	7314	
687.31	9122.3	
687.5	8647.2	
687.68	6741.2	
687.86	8106.5	
688.05	10455	
688.23	8152.3	
688.42	8181	
688.6	7384.3	
688.79	8675.2	
688.97	8708	
689.16	7786.4	
689.34	6632.7	
689.52	9485.5	
689.71	9697.8	
689.89	7993.2	
690.08	7337.9	
690.26	8944.2	
690.45	8797.4	
690.63	8189.1	
690.81	7505.1	
691	8655.4	
691.18	8697	
691.37	7643.7	
691.55	9923.1	
691.74	8628.8	
691.92	10699	
692.1	7776.1	
692.29	7086	
692.47	8841.8	
692.66	8215.1	
692.84	7456	
693.02	7879.2	
693.21	8425.3	
693.39	8825.4	
693.58	8127.7	
693.76	7542	
693.94	10191	
694.13	10019	
694.31	7600	
694.5	8751	
694.68	8927.8	
694.86	9241.1	
695.05	7941.3	
695.23	8475.9	
695.42	9743.6	
695.6	12114	
695.78	8709.3	
695.97	7619.8	
696.15	9738.8	
696.34	9109.4	
696.52	7538.6	
696.7	8352.3	
696.89	9503.9	
697.07	8875.2	
697.25	8250.6	
697.44	9863	
697.62	9452.1	
697.81	9929.9	
697.99	8051.2	
698.17	8528.4	
698.36	8799.4	
698.54	9626.1	
698.72	8424	
698.91	7420.5	
699.09	9125.7	
699.28	9043.1	
699.46	8061.5	
699.64	7998	
699.83	8967.4	
700.01	10241	
700.19	8845.9	
700.38	7321.5	
700.56	10355	
700.74	9196.7	
700.93	7735.2	
701.11	8539.3	
701.29	9776.3	
701.48	10854	
701.66	7951.6	
701.84	8072.4	
702.03	9367.4	
702.21	10070	
702.39	7731.8	
702.58	8293.6	
702.76	9785.2	
702.94	10021	
703.13	7790.5	
703.31	10211	
703.49	9190.6	
703.68	10526	
703.86	7922.9	
704.04	8851.3	
704.23	9730.6	
704.41	10129	
704.59	8064.9	
704.78	9385.2	
704.96	10826	
705.14	10317	
705.33	7941.3	
705.51	8678.6	
705.69	9589.3	
705.87	10546	
706.06	9125.1	
706.24	7843.7	
706.42	10027	
706.61	10238	
706.79	9205.6	
706.97	7917.4	
707.16	9469.8	
707.34	10094	
707.52	9118.9	
707.7	8271.7	
707.89	9631.6	
708.07	9368.8	
708.25	9078.6	
708.44	9712.2	
708.62	9645.9	
708.8	10765	
708.98	9411.1	
709.17	8388.5	
709.35	9992.7	
709.53	10019	
709.72	8067.6	
709.9	8508.6	
710.08	10284	
710.26	10359	
710.45	9806.4	
710.63	8446.5	
710.81	9944.9	
710.99	10036	
711.18	9086.8	
711.36	8439	
711.54	9736	
711.72	10519	
711.91	8629.5	
712.09	8001.4	
712.27	9841.2	
712.45	10541	
712.64	8840.4	
712.82	7818.5	
713	9260.9	
713.18	9386.5	
713.37	7781.6	
713.55	8973.5	
713.73	10195	
713.91	8604.9	
714.1	7950.9	
714.28	7317.4	
714.46	9518.3	
714.64	8697.7	
714.83	6670.2	
715.01	7496.2	
715.19	8646.5	
715.37	7972.1	
715.55	6976.7	
715.74	7385.7	
715.92	9499.2	
716.1	7371.3	
716.28	8465.6	
716.47	7385	
716.65	8068.3	
716.83	8193.9	
717.01	7248.4	
717.19	7285.3	
717.38	10421	
717.56	7987.1	
717.74	7579.5	
717.92	6779.5	
718.1	9273.2	
718.29	8516.1	
718.47	6507.8	
718.65	7293.5	
718.83	9434.3	
719.01	9370.8	
719.2	6593.1	
719.38	7751.6	
719.56	9065.7	
719.74	10643	
719.92	7144	
720.11	8168	
720.29	9047.9	
720.47	8187.1	
720.65	6716	
720.83	7488.7	
721.02	8258.1	
721.2	8114.1	
721.38	7473.7	
721.56	6825.2	
721.74	7559.1	
721.92	7742.7	
722.11	7932.5	
722.29	7745.4	
722.47	8989.2	
722.65	8215.8	
722.83	6683.2	
723.01	7642.3	
723.2	8204.2	
723.38	8470.4	
723.56	6170.5	
723.74	7305.8	
723.92	7778.2	
724.1	8961.2	
724.29	6666.8	
724.47	7880.6	
724.65	7851.2	
724.83	7645.1	
725.01	6526.2	
725.19	7477.8	
725.37	7757.7	
725.56	7839.6	
725.74	6448.4	
725.92	6648.4	
726.1	7740.6	
726.28	7985	
726.46	7106.5	
726.64	6721.4	
726.83	8008.2	
727.01	8241	
727.19	6346.7	
727.37	7267.6	
727.55	8175.5	
727.73	8714.8	
727.91	6322.8	
728.09	6233.3	
728.28	8720.3	
728.46	9267.7	
728.64	7385.7	
728.82	7303.7	
729	9914.2	
729.18	9112.8	
729.36	6591	
729.54	8933.2	
729.72	10274	
729.91	8486.1	
730.09	8683.4	
730.27	7418.4	
730.45	8333.9	
730.63	9113.5	
730.81	8039.6	
730.99	7064.8	
731.17	9655.5	
731.35	8181.6	
731.53	7634.8	
731.71	7169.3	
731.9	9366	
732.08	9529.9	
732.26	7351.5	
732.44	7060.7	
732.62	9529.2	
732.8	9093	
732.98	7773.4	
733.16	6811.5	
733.34	9039.1	
733.52	7746.8	
733.7	7286.7	
733.88	7585.7	
734.07	8803.5	
734.25	8505.9	
734.43	6772.6	
734.61	8466.3	
734.79	10135	
734.97	8391.9	
735.15	6955.6	
735.33	7301	
735.51	8768	
735.69	8464.9	
735.87	8414.4	
736.05	7430	
736.23	8548.2	
736.41	8340	
736.59	7256	
736.77	7369.3	
736.95	9068.4	
737.13	8366	
737.32	6886	
737.5	7116.7	
737.68	9581.1	
737.86	8196	
738.04	6698.9	
738.22	8603.5	
738.4	8059.4	
738.58	8370	
738.76	7376.1	
738.94	6182.1	
739.12	8148.9	
739.3	7968	
739.48	7897	
739.66	7617.1	
739.84	8500.4	
740.02	8436.9	
740.2	6336.4	
740.38	6606.1	
740.56	8811	
740.74	7720.2	
740.92	7318.8	
741.1	7217.7	
741.28	8170	
741.46	8035.5	
741.64	6889.4	
741.82	7358.4	
742	8264.2	
742.18	8198.7	
742.36	7058	
742.54	6545.3	
742.72	8774.9	
742.9	7408.9	
743.08	7369.3	
743.26	6138.4	
743.44	8913.4	
743.62	8682.7	
743.8	7470.3	
743.98	6548.7	
744.16	8443.8	
744.34	8075.8	
744.52	7435.5	
744.7	7273.7	
744.88	8481.3	
745.06	8030.1	
745.24	7354.3	
745.42	7435.5	
745.6	8597.4	
745.78	8298.4	
745.96	6128.9	
746.14	6339.1	
746.32	9232.9	
746.5	8614.4	
746.68	6969.2	
746.86	6445	
747.03	8969.4	
747.21	7163.1	
747.39	6967.9	
747.57	6398.5	
747.75	8071.7	
747.93	8429.4	
748.11	6349.4	
748.29	6243.6	
748.47	9575.6	
748.65	7774.8	
748.83	7107.1	
749.01	6757.6	
749.19	8247.2	
749.37	7456	
749.55	6578.1	
749.73	6819.7	
749.91	7899	
750.09	7536.5	
750.26	6704.4	
750.44	6109.8	
750.62	7901.1	
750.8	7883.3	
750.98	5948.7	
751.16	6348	
751.34	7933.8	
751.52	7255.3	
751.7	7120.1	
751.88	5921.4	
752.06	8454.7	
752.24	8185	
752.42	5823.7	
752.59	6212.9	
752.77	7780.2	
752.95	9037	
753.13	7038.9	
753.31	6361.7	
753.49	7428.7	
753.67	7952.3	
753.85	6586.3	
754.03	6222.4	
754.21	8137.3	
754.38	8489.5	
754.56	6337.1	
754.74	5249.6	
754.92	7303.1	
755.1	7899	
755.28	5149.3	
755.46	5165.7	
755.64	8307.2	
755.82	8399.4	
755.99	5080.3	
756.17	5117.2	
756.35	5539.1	
756.53	7144	
756.71	3831.1	
756.89	4771.1	
757.07	6759.7	
757.25	5851.7	
757.42	5426.4	
757.6	6436.1	
757.78	6950.8	
757.96	5973.9	
758.14	5227.8	
758.32	4775.9	
758.5	5575.3	
758.67	6318.7	
758.85	5161.6	
759.03	5156.1	
759.21	6584.9	
759.39	5958.2	
759.57	4591.5	
759.75	5846.3	
759.92	7185	
760.1	6497.5	
760.28	6227.9	
760.46	6547.4	
760.64	6286.6	
760.82	6075.6	
760.99	6252.4	
761.17	5330.2	
761.35	7275.1	
761.53	6226.5	
761.71	5467.4	
761.89	6203.3	
762.06	7249.1	
762.24	6602.7	
762.42	5642.8	
762.6	5349.3	
762.78	6753.5	
762.96	7397.3	
763.13	6007.4	
763.31	5717.9	
763.49	7598.6	
763.67	6612.9	
763.85	6605.4	
764.02	7096.2	
764.2	7823.9	
764.38	6941.2	
764.56	5525.4	
764.74	6499.6	
764.91	7976.2	
765.09	6807.4	
765.27	5225.1	
765.45	4999.8	
765.63	7931.8	
765.8	7837.6	
765.98	4667.3	
766.16	5071.5	
766.34	6230.6	
766.52	6070.2	
766.69	6006	
766.87	4854.4	
767.05	6659.3	
767.23	7458	
767.41	5186.1	
767.58	5436	
767.76	7176.1	
767.94	7325.6	
768.12	5242.8	
768.29	5943.2	
768.47	6701	
768.65	7499	
768.83	4776.5	
769	6012.2	
769.18	6195.1	
769.36	6931.7	
769.54	5935.7	
769.72	4798.4	
769.89	7247.8	
770.07	7295.5	
770.25	5111.7	
770.43	6359.6	
770.6	7913.4	
770.78	8372.1	
770.96	5332.2	
771.14	5124.7	
771.31	7026.6	
771.49	6363	
771.67	4380.6	
771.85	4670.1	
772.02	5608.7	
772.2	6288.6	
772.38	5473.5	
772.55	4846.9	
772.73	6591.7	
772.91	6305.7	
773.09	5216.9	
773.26	5360.2	
773.44	6478.4	
773.62	6076.3	
773.8	4700.8	
773.97	4424.3	
774.15	6528.2	
774.33	6182.1	
774.5	4546.5	
774.68	4894.6	
774.86	6704.4	
775.04	6128.2	
775.21	4561.5	
775.39	4607.2	
775.57	6409.5	
775.74	6859.3	
775.92	4420.9	
776.1	4321.2	
776.27	6411.5	
776.45	7641.7	
776.63	4553.3	
776.81	4100	
776.98	5963.7	
777.16	7067.5	
777.34	4711	
777.51	4990.9	
777.69	5924.8	
777.87	5674.9	
778.04	4694.6	
778.22	5366.4	
778.4	5673.6	
778.57	6436.8	
778.75	3876.8	
778.93	4244.8	
779.1	5431.2	
779.28	5322.7	
779.46	3967.6	
779.64	4450.9	
779.81	6505.7	
779.99	7490.8	
780.17	5199.8	
780.34	5387.5	
780.52	5923.4	
780.69	6105	
780.87	4682.3	
781.05	4290.5	
781.22	5918.6	
781.4	6049.7	
781.58	4392.2	
781.75	3543	
781.93	5989.6	
782.11	5304.2	
782.28	5380	
782.46	4341	
782.64	5169.1	
782.81	6116.6	
782.99	4422.9	
783.17	4365.6	
783.34	6075.6	
783.52	5176.6	
783.69	4610.7	
783.87	5492.7	
784.05	5288.5	
784.22	5365	
784.4	5418.9	
784.58	4737.6	
784.75	6283.2	
784.93	5337	
785.1	4321.2	
785.28	4911.7	
785.46	6010.1	
785.63	5266.7	
785.81	4362.9	
785.99	4183.3	
786.16	5457.2	
786.34	5873.6	
786.51	4182.6	
786.69	4602.5	
786.87	5050.3	
787.04	5613.5	
787.22	3979.9	
787.39	4952.7	
787.57	5245.5	
787.75	6439.5	
787.92	5143.1	
788.1	5146.5	
788.27	5251	
788.45	5035.3	
788.63	4790.2	
788.8	3454.9	
788.98	5652.4	
789.15	4912.4	
789.33	3569.6	
789.5	4281.6	
789.68	6259.3	
789.86	6299.6	
790.03	4693.3	
790.21	4173.8	
790.38	6185.5	
790.56	5349.3	
790.73	4010.6	
790.91	4031.1	
791.09	5212.1	
791.26	5956.9	
791.44	4278.2	
791.61	3650.2	
791.79	5156.8	
791.96	5247.6	
792.14	3781.2	
792.32	3360	
792.49	5225.1	
792.67	5371.1	
792.84	3823.6	
793.02	3588.7	
793.19	5666	
793.37	6482.5	
793.54	3357.3	
793.72	3717.7	
793.89	6547.4	
794.07	5199.8	
794.25	4341.7	
794.42	3425.6	
794.6	6296.1	
794.77	5962.3	
794.95	4642.1	
795.12	4060.4	
795.3	5222.3	
795.47	5842.9	
795.65	4405.2	
795.82	4280.3	
796	4958.8	
796.17	6949.4	
796.35	4150.6	
796.52	4809.3	
796.7	5697.4	
796.87	5855.1	
797.05	5063.3	
797.22	5035.3	
797.4	5778	
797.57	6933.7	
797.75	4229.7	
797.92	3996.3	
798.1	6129.6	
798.27	5174.5	
798.45	3443.3	
798.62	3660.4	
798.8	5480.4	
798.97	6025.1	
799.15	4454.3	
799.32	4257.7	
799.5	4706.9	
799.67	5513.1	
799.85	4638	
800.02	3379.8	
800.2	5131.5	
800.37	5479	
800.55	4820.2	
800.72	3998.3	
800.9	5917.3	
801.07	6425.2	
801.25	5330.9	
801.42	4391.5	
801.6	5986.2	
801.77	5689.3	
801.95	3958	
802.12	3833.8	
802.29	5685.2	
802.47	5692.7	
802.64	4326	
802.82	3215.3	
802.99	5110.4	
803.17	6100.2	
803.34	4235.2	
803.52	3773.7	
803.69	6830.7	
803.87	4853	
804.04	4125.3	
804.21	4279.6	
804.39	6232	
804.56	5324.7	
804.74	3534.8	
804.91	4397	
805.09	5145.9	
805.26	5233.2	
805.44	3660.4	
805.61	4037.9	
805.78	5876.3	
805.96	5892.7	
806.13	4396.3	
806.31	4713.1	
806.48	4729.4	
806.66	5197.7	
806.83	4287.1	
807	4268.6	
807.18	5089.2	
807.35	5545.9	
807.53	4239.3	
807.7	3368.9	
807.87	6323.4	
808.05	5182.7	
808.22	4657.8	
808.4	3390.1	
808.57	5161.6	
808.74	4775.9	
808.92	3857	
809.09	4932.2	
809.27	5014.1	
809.44	5639.4	
809.61	3409.9	
809.79	3758.7	
809.96	6330.3	
810.14	5951.4	
810.31	3316.3	
810.48	4037.9	
810.66	5229.8	
810.83	5993.7	
811.01	3854.3	
811.18	4250.2	
811.35	5875.6	
811.53	4575.8	
811.7	4674.1	
811.87	4356	
812.05	5125.4	
812.22	5052.3	
812.39	3766.9	
812.57	3656.3	
812.74	5159.5	
812.92	6910.5	
813.09	4037.9	
813.26	4406.5	
813.44	6629.3	
813.61	5047.6	
813.78	3409.2	
813.96	4503.5	
814.13	5170.4	
814.3	4791.6	
814.48	4881.7	
814.65	4033.1	
814.82	6447.7	
815	4956.8	
815.17	4139.6	
815.34	5086.5	
815.52	5042.8	
815.69	5079.6	
815.87	4144.4	
816.04	3582.6	
816.21	5143.8	
816.38	4545.1	
816.56	4010.6	
816.73	3758	
816.9	6545.3	
817.08	5900.9	
817.25	3767.6	
817.42	4763.6	
817.6	4704.2	
817.77	5203.2	
817.94	4233.2	
818.12	3718.4	
818.29	4844.1	
818.46	7645.8	
818.64	3879.5	
818.81	3589.4	
818.98	4789.5	
819.16	7061.4	
819.33	4423.6	
819.5	4211.3	
819.67	5513.1	
819.85	6199.2	
820.02	4059.8	
820.19	4360.8	
820.37	5373.9	
820.54	4908.3	
820.71	4279.6	
820.88	5234.6	
821.06	5389.6	
821.23	4926.7	
821.4	4270	
821.58	4171.7	
821.75	5885.2	
821.92	5281.7	
822.09	3396.9	
822.27	3571	
822.44	5209.3	
822.61	5074.9	
822.79	3465.2	
822.96	6542.6	
823.13	5615.5	
823.3	4870.8	
823.48	3938.2	
823.65	3534.1	
823.82	5847.6	
823.99	4689.2	
824.17	4971.1	
824.34	3608.5	
824.51	6679.1	
824.68	5203.9	
824.86	3782.6	
825.03	4275.5	
825.2	5147.2	
825.37	6285.9	
825.55	3740.3	
825.72	4136.9	
825.89	6799.3	
826.06	6424.5	
826.24	4036.5	
826.41	4092.5	
826.58	6273.6	
826.75	5504.9	
826.92	3238.5	
827.1	3514.3	
827.27	8617.2	
827.44	6820.4	
827.61	3862.5	
827.79	4686.4	
827.96	4879.6	
828.13	5271.5	
828.3	4044.1	
828.47	3396.9	
828.65	5397.8	
828.82	5302.9	
828.99	5216.2	
829.16	4579.3	
829.34	5805.3	
829.51	5535	
829.68	4210.6	
829.85	4359.4	
830.02	6094.8	
830.2	5704.3	
830.37	3217.4	
830.54	5022.3	
830.71	6608.8	
830.88	5114.5	
831.05	3239.2	
831.23	3799.7	
831.4	6247.7	
831.57	7088	
831.74	3872.7	
831.91	3414.6	
832.09	5330.2	
832.26	5817.6	
832.43	4007.9	
832.6	4524.6	
832.77	5412.1	
832.94	6160.3	
833.12	3193.5	
833.29	3917.8	
833.46	5571.8	
833.63	7283.9	
833.8	4277.5	
833.97	4039.3	
834.15	5829.2	
834.32	5575.9	
834.49	4079.6	
834.66	4255.7	
834.83	5978.7	
835	4891.2	
835.17	3860.4	
835.35	3872	
835.52	5623.7	
835.69	5569.1	
835.86	4158.7	
836.03	3379.8	
836.2	5717.2	
836.37	5292.6	
836.55	4058.4	
836.72	3792.8	
836.89	5333.6	
837.06	5871.5	
837.23	4042	
837.4	4442	
837.57	6569.9	
837.75	7316.7	
837.92	3648.1	
838.09	3883.6	
838.26	5253.7	
838.43	6051.1	
838.6	4184.7	
838.77	3752.6	
838.94	6997.9	
839.11	6653.2	
839.29	4016.7	
839.46	3155.9	
839.63	5681.1	
839.8	5479	
839.97	3880.2	
840.14	3818.1	
840.31	5513.1	
840.48	5730.9	
840.65	3200.3	
840.82	3913	
841	5688.6	
841.17	5687.9	
841.34	3627	
841.51	3650.8	
841.68	5636.7	
841.85	5404.6	
842.02	3698.6	
842.19	3095.2	
842.36	5499.5	
842.53	5500.2	
842.7	3568.2	
842.87	4326	
843.05	7166.5	
843.22	5416.9	
843.39	3381.9	
843.56	3597.6	
843.73	5157.5	
843.9	5784.1	
844.07	5866.1	
844.24	4866.7	
844.41	8452	
844.58	5009.3	
844.75	3370.3	
844.92	3745.1	
845.09	5720	
845.26	5689.3	
845.43	3536.2	
845.6	3707.5	
845.77	5790.3	
845.94	5445.5	
846.12	3908.9	
846.29	4156	
846.46	5941.8	
846.63	5743.9	
846.8	3557.3	
846.97	4247.5	
847.14	6201.9	
847.31	5615.5	
847.48	3985.3	
847.65	4394.3	
847.82	6038.1	
847.99	5973.2	
848.16	4726	
848.33	4445.5	
848.5	5307	
848.67	6182.8	
848.84	3507.5	
849.01	3666.5	
849.18	5140.4	
849.35	4758.8	
849.52	4451.6	
849.69	3478.8	
849.86	5901.6	
850.03	6185.5	
850.2	3560.1	
850.37	4362.2	
850.54	6129.6	
850.71	5366.4	
850.88	4252.3	
851.05	3480.9	
851.22	5591	
851.39	6306.4	
851.56	3332.7	
851.73	4103.4	
851.9	5051	
852.07	5989.6	
852.24	3929.4	
852.41	3469.3	
852.58	5569.8	
852.75	5071.5	
852.92	3911.6	
853.09	3472	
853.26	5281.7	
853.43	6190.3	
853.6	3573	
853.77	3010.5	
853.94	6293.4	
854.11	5640.1	
854.28	5322	
854.44	3829.7	
854.61	6756.9	
854.78	6112.5	
854.95	3536.2	
855.12	4507.6	
855.29	4595.6	
855.46	6520.7	
855.63	3495.9	
855.8	4904.2	
855.97	5252.4	
856.14	6100.9	
856.31	5061.9	
856.48	3844.7	
856.65	5285.1	
856.82	4982	
856.99	3382.6	
857.16	3794.2	
857.33	7018.4	
857.49	5358.9	
857.66	3807.2	
857.83	4055	
858	5307.7	
858.17	5553.4	
858.34	3276.8	
858.51	3519.1	
858.68	6494.1	
858.85	6481.1	
859.02	4067.9	
859.19	4353.3	
859.36	5027.1	
859.52	5005.9	
859.69	3499.3	
859.86	4205.2	
860.03	5079	
860.2	6339.8	
860.37	3211.9	
860.54	3577.8	
860.71	5922.7	
860.88	6363.7	
861.05	3931.4	
861.21	4467.3	
861.38	6384.2	
861.55	4897.4	
861.72	3236.5	
861.89	3962.8	
862.06	5978	
862.23	6521.4	
862.4	3403	
862.56	3643.3	
862.73	5847	
862.9	5458.5	
863.07	4145.1	
863.24	3168.9	
863.41	4875.5	
863.58	5011.4	
863.75	3588	
863.91	4111	
864.08	6298.9	
864.25	5854.5	
864.42	4446.8	
864.59	4924	
864.76	6640.9	
864.93	5048.2	
865.09	3430.3	
865.26	3739.6	
865.43	6178.7	
865.6	6591.7	
865.77	3041.2	
865.94	3465.2	
866.1	6232	
866.27	5974.6	
866.44	5320.6	
866.61	3334.8	
866.78	5399.1	
866.95	5847	
867.11	3418.1	
867.28	3120.4	
867.45	6059.9	
867.62	5097.4	
867.79	4107.5	
867.96	3483.6	
868.12	5070.1	
868.29	5984.2	
868.46	3081.5	
868.63	4720.6	
868.8	6221	
868.97	5915.9	
869.13	3725.3	
869.3	3670	
869.47	5828.5	
869.64	6073.6	
869.81	3581.2	
869.97	3603.7	
870.14	5764.3	
870.31	6424.5	
870.48	3502.7	
870.65	4457.7	
870.81	5307	
870.98	5345.9	
871.15	4031.8	
871.32	3672.7	
871.48	5788.9	
871.65	6488.6	
871.82	3508.2	
871.99	3880.2	
872.16	6952.2	
872.32	6201.9	
872.49	3543	
872.66	3597.6	
872.83	5941.2	
872.99	5209.3	
873.16	4061.8	
873.33	3504.8	
873.5	5514.5	
873.67	5614.2	
873.83	3750.5	
874	4738.3	
874.17	5733.6	
874.34	6877.1	
874.5	4590.2	
874.67	4407.9	
874.84	6376	
875.01	5021.6	
875.17	4997	
875.34	3504.1	
875.51	5678.3	
875.68	6773.3	
875.84	4283	
876.01	5192.3	
876.18	5920.7	
876.34	5836.7	
876.51	3534.8	
876.68	3466.5	
876.85	5386.8	
877.01	6173.3	
877.18	5103.5	
877.35	3474.7	
877.52	5485.1	
877.68	4939	
877.85	3402.4	
878.02	3469.3	
878.18	5470.8	
878.35	5224.4	
878.52	2803.7	
878.69	3961.5	
878.85	5922.7	
879.02	5900.9	
879.19	4995	
879.35	3807.9	
879.52	5841.5	
879.69	6120.7	
879.86	3060.3	
880.02	3949.8	
880.19	5503.6	
880.36	6741.2	
880.52	4062.5	
880.69	4207.2	
880.86	6024.4	
881.02	6048.3	
881.19	3891.8	
881.36	3851.5	
881.52	5872.9	
881.69	5211.4	
881.86	3786	
882.02	3685	
882.19	6167.8	
882.36	7263.5	
882.52	3613.3	
882.69	4939	
882.86	5667.4	
883.02	5618.3	
883.19	4349.9	
883.36	4027.7	
883.52	6046.3	
883.69	6816.3	
883.86	3525.2	
884.02	3189.4	
884.19	5935	
884.36	5465.3	
884.52	4015.4	
884.69	3708.9	
884.86	5220.3	
885.02	6570.6	
885.19	4004.5	
885.36	4100	
885.52	5465.3	
885.69	5680.4	
885.86	5103.5	
886.02	4489.8	
886.19	5963.7	
886.35	5429.2	
886.52	3847.5	
886.69	4889.2	
886.85	5102.2	
887.02	6386.9	
887.19	6386.9	
887.35	6386.9	
887.52	6386.9	
887.68	6386.9	
887.85	6386.9	
888.02	6386.9	
888.18	6386.9	
888.35	6386.9	
888.51	6386.9	
888.68	6386.9	
888.85	6386.9	
889.01	6386.9	
889.18	6386.9	
889.35	6386.9	
889.51	6386.9	
889.68	6386.9	
889.84	6386.9	
890.01	6386.9	
890.17	6386.9	
890.34	6386.9	
890.51	6386.9	
890.67	6386.9	
890.84	6386.9	
891	6386.9	
891.17	6386.9	
891.34	6386.9	
891.5	6386.9	
891.67	6386.9	
891.83	6386.9	
892	6386.9	
892.16	6386.9	
892.33	6386.9	
892.5	6386.9	
892.66	6386.9	
892.83	6386.9	
892.99	6386.9	
893.16	6386.9	
893.32	6386.9	
893.49	6386.9	
893.65	6386.9	
893.82	6386.9	
893.99	6386.9	
894.15	6386.9	
894.32	6386.9	
894.48	6386.9	
894.65	6386.9	
894.81	6386.9	
894.98	6386.9	
895.14	6386.9	
895.31	6386.9	
895.47	6386.9	
895.64	6386.9	
895.81	6386.9	
895.97	6386.9	
896.14	6386.9	
896.3	6386.9	
896.47	6386.9	
896.63	6386.9	
896.8	6386.9	
896.96	6386.9	
897.13	6386.9	
897.29	6386.9	
897.46	6386.9	
897.62	6386.9	
897.79	6386.9	
897.95	6386.9	
898.12	6386.9	
898.28	6386.9	
898.45	6386.9	
898.61	6386.9	
898.78	6386.9	
898.94	6386.9	
899.11	6386.9	
899.27	6386.9	
899.44	6386.9	
899.6	6386.9	
899.77	6386.9	
899.93	6386.9	
900.1	6386.9	
900.26	6386.9	
900.43	6386.9	
900.59	6386.9	
900.76	6386.9	
900.92	6386.9	
901.09	6386.9	
901.25	6386.9	
901.42	6386.9	
901.58	6386.9	
901.75	6386.9	
901.91	6386.9	
902.07	6386.9	
902.24	6386.9	
902.4	6386.9	
902.57	6386.9	
902.73	6386.9	
902.9	6386.9	
903.06	6386.9	
903.23	6386.9	
903.39	6386.9	
903.56	6386.9	
903.72	6386.9	
903.88	6386.9	
904.05	6386.9	
904.21	6386.9	
904.38	6386.9	
904.54	6386.9	
904.71	6386.9	
904.87	6386.9	
905.03	6386.9	
905.2	6386.9	
905.36	6386.9	
905.53	6386.9	
905.69	6386.9	
905.86	6386.9	
906.02	6386.9	
906.18	6386.9	
906.35	6386.9	
906.51	6386.9	
906.68	6386.9	
906.84	6386.9	
907.01	6386.9	
907.17	6386.9	
907.33	6386.9	
907.5	6386.9	
907.66	6386.9	
907.83	6386.9	
907.99	6386.9	
908.15	6386.9	
908.32	6386.9	
908.48	6386.9	
908.65	6386.9	
908.81	6386.9	
908.97	6386.9	
909.14	6386.9	
909.3	6386.9	
909.47	6386.9	
909.63	6386.9	
909.79	6386.9	
909.96	6386.9	
910.12	6386.9	
910.28	6386.9	
910.45	6386.9	
910.61	6386.9	
910.78	6386.9	
910.94	6386.9	
911.1	6386.9	
911.27	6386.9	
911.43	6386.9	
911.59	6386.9	
911.76	6386.9	
911.92	6386.9	
912.08	6386.9	
912.25	6386.9	
912.41	6386.9	
912.57	6386.9	
912.74	6386.9	
912.9	6386.9	
913.07	6386.9	
913.23	6386.9	
913.39	6386.9	
913.56	6386.9	
913.72	6386.9	
913.88	6386.9	
914.05	6386.9	
914.21	6386.9	
914.37	6386.9	
914.54	6386.9	
914.7	6386.9	
914.86	6386.9	
915.03	6386.9	
915.19	6386.9	
