Wavelength	Intensities	
nm	a.u.	
179.22	1846.8	
179.44	1850.3	
179.65	1843.2	
179.86	1857.5	
180.08	1833.6	
180.29	4569.7	
180.51	3334.1	
180.72	5413.5	
180.94	6264.1	
181.15	3091.1	
181.37	3011.2	
181.58	5266	
181.79	5539.1	
182.01	3192.1	
182.22	3396.2	
182.44	5509	
182.65	4674.1	
182.87	4287.8	
183.08	3727.3	
183.29	5772.5	
183.51	4792.2	
183.72	3445.4	
183.94	4962.9	
184.15	5185.5	
184.37	5206.6	
184.58	3041.2	
184.79	4074.1	
185.01	4776.5	
185.22	5565.7	
185.44	4345.1	
185.65	3556	
185.86	5084.4	
186.08	4740.4	
186.29	2960.7	
186.51	3216.7	
186.72	4891.2	
186.94	5642.8	
187.15	3613.3	
187.36	3816	
187.58	7311.9	
187.79	5311.7	
188.01	3936.2	
188.22	6039.5	
188.43	6337.1	
188.65	5507.7	
188.86	3159.3	
189.08	3791.5	
189.29	5027.8	
189.5	5025	
189.72	3519.8	
189.93	3525.9	
190.15	5652.4	
190.36	6738.5	
190.57	3847.5	
190.79	3725.9	
191	5761.6	
191.22	5769.1	
191.43	3831.1	
191.64	3192.8	
191.86	5920.7	
192.07	5666.7	
192.29	3347.1	
192.5	3525.2	
192.71	5732.3	
192.93	4942.4	
193.14	3467.9	
193.35	3553.9	
193.57	5033.2	
193.78	5684.5	
194	2816.6	
194.21	3390.1	
194.42	4749.9	
194.64	5210.7	
194.85	3795.6	
195.07	4443.4	
195.28	5213.4	
195.49	4528.1	
195.71	4622.9	
195.92	3280.8	
196.13	5370.5	
196.35	5487.9	
196.56	4945.8	
196.78	3765.5	
196.99	6658.6	
197.2	6266.8	
197.42	4231.1	
197.63	3819.5	
197.84	4686.4	
198.06	5360.9	
198.27	3516.4	
198.48	4603.8	
198.7	4985.4	
198.91	5102.9	
199.13	3802.4	
199.34	3835.8	
199.55	5584.8	
199.77	4497.3	
199.98	3372.3	
200.19	3879.5	
200.41	5116.5	
200.62	4808.6	
200.83	3926	
201.05	4201.1	
201.26	5097.4	
201.47	4928.1	
201.69	3431.7	
201.9	3332	
202.11	5145.9	
202.33	6090.7	
202.54	3592.8	
202.76	3971	
202.97	5267.4	
203.18	5343.8	
203.4	3928	
203.61	3865.2	
203.82	5324	
204.04	4906.3	
204.25	3864.5	
204.46	3833.1	
204.68	5161.6	
204.89	5403.2	
205.1	3799.7	
205.32	3233.1	
205.53	5591	
205.74	5760.3	
205.96	2749.1	
206.17	3895.9	
206.38	5479	
206.6	5685.2	
206.81	4304.1	
207.02	3537.5	
207.24	5423	
207.45	5745.9	
207.66	3633.8	
207.88	3119.1	
208.09	5410.1	
208.3	5213.4	
208.52	3320.4	
208.73	3702	
208.94	5216.9	
209.15	5865.4	
209.37	3679.5	
209.58	3822.2	
209.79	5716.6	
210.01	5027.1	
210.22	2942.2	
210.43	3110.9	
210.65	5181.4	
210.86	5585.5	
211.07	3586.7	
211.29	3310.2	
211.5	5502.9	
211.71	5118.6	
211.93	3386	
212.14	3322.5	
212.35	5145.2	
212.56	5268.1	
212.78	3844.7	
212.99	3160.7	
213.2	6086.6	
213.42	4983.4	
213.63	3431	
213.84	3670	
214.06	4661.2	
214.27	4747.2	
214.48	3650.8	
214.69	3818.8	
214.91	5819.6	
215.12	5828.5	
215.33	3870.7	
215.55	4241.3	
215.76	6342.6	
215.97	5539.1	
216.18	3745.1	
216.4	3697.3	
216.61	4893.3	
216.82	5615.5	
217.04	3360.7	
217.25	3519.1	
217.46	5808	
217.67	5545.9	
217.89	3022.1	
218.1	3091.8	
218.31	5274.2	
218.53	5410.7	
218.74	3519.8	
218.95	3435.8	
219.16	5182.7	
219.38	5989.6	
219.59	3405.1	
219.8	4063.9	
220.01	6642.2	
220.23	5246.2	
220.44	4447.5	
220.65	3310.2	
220.87	5247.6	
221.08	5730.2	
221.29	3108.8	
221.5	4099.4	
221.72	6971.3	
221.93	4954	
222.14	3831.7	
222.35	4493.9	
222.57	5236.7	
222.78	5540.4	
222.99	3674.1	
223.2	3900.7	
223.42	5442.1	
223.63	5585.5	
223.84	2803	
224.05	2835.8	
224.27	6576.7	
224.48	6012.2	
224.69	4517.1	
224.9	3752.6	
225.12	5398.4	
225.33	5100.1	
225.54	3044	
225.75	3401	
225.97	4796.3	
226.18	5162.2	
226.39	3678.2	
226.6	3420.1	
226.82	4967	
227.03	4797.7	
227.24	3846.1	
227.45	3193.5	
227.67	5556.8	
227.88	6049	
228.09	4236.6	
228.3	4280.9	
228.52	5589.6	
228.73	5170.4	
228.94	3531.4	
229.15	3137.5	
229.36	5120.6	
229.58	5051.7	
229.79	3586	
230	4096.6	
230.21	6137.8	
230.43	5259.9	
230.64	3728	
230.85	3935.5	
231.06	5584.1	
231.28	5642.2	
231.49	3188	
231.7	3702.7	
231.91	5492.7	
232.12	5255.1	
232.34	3244	
232.55	3670	
232.76	5807.4	
232.97	5380.7	
233.18	3368.9	
233.4	3791.5	
233.61	5397.1	
233.82	4954.7	
234.03	3549.8	
234.25	3445.4	
234.46	7135.8	
234.67	5182.7	
234.88	3891.8	
235.09	3381.2	
235.31	5439.4	
235.52	5043.5	
235.73	3802.4	
235.94	3197.6	
236.15	4981.3	
236.37	6284.5	
236.58	3375.1	
236.79	3734.1	
237	5522.7	
237.21	4743.8	
237.43	3913.7	
237.64	3115.6	
237.85	9184.5	
238.06	4821.6	
238.27	3998.3	
238.48	3186.6	
238.7	5553.4	
238.91	5012.7	
239.12	3637.2	
239.33	3677.5	
239.54	4832.5	
239.76	5117.9	
239.97	3637.9	
240.18	3692.5	
240.39	6380.1	
240.6	5394.3	
240.82	3857	
241.03	3163.4	
241.24	5182	
241.45	5960.3	
241.66	3355.3	
241.87	3987.4	
242.09	5795.8	
242.3	6259.3	
242.51	3975.1	
242.72	3659.7	
242.93	5543.9	
243.14	5150	
243.36	4151.2	
243.57	4558.8	
243.78	6029.9	
243.99	5527.5	
244.2	3693.9	
244.41	3297.9	
244.63	4797.7	
244.84	5434.6	
245.05	3972.4	
245.26	3629	
245.47	5485.1	
245.68	5701.5	
245.9	4739.7	
246.11	3769.6	
246.32	4956.1	
246.53	5356.1	
246.74	5855.1	
246.95	3064.4	
247.16	4706.9	
247.38	5240.8	
247.59	3108.1	
247.8	3666.5	
248.01	4894.6	
248.22	5167	
248.43	3409.2	
248.64	3623.5	
248.86	4639.3	
249.07	4975.9	
249.28	3220.8	
249.49	3695.2	
249.7	5737	
249.91	5802.6	
250.12	3085.6	
250.34	3140.9	
250.55	5291.3	
250.76	5193	
250.97	3780.6	
251.18	3799.7	
251.39	5851.7	
251.6	5385.5	
251.81	3881.6	
252.03	3792.8	
252.24	4943.1	
252.45	5685.8	
252.66	3230.3	
252.87	4042	
253.08	5240.1	
253.29	6768.5	
253.5	3174.4	
253.72	4465.3	
253.93	5071.5	
254.14	6146.6	
254.35	3534.1	
254.56	3583.3	
254.77	5420.3	
254.98	4827.7	
255.19	3414	
255.41	4409.3	
255.62	5311.7	
255.83	5757.5	
256.04	3905.5	
256.25	3838.6	
256.46	6333.7	
256.67	4923.3	
256.88	3771.7	
257.09	4106.9	
257.31	4881.7	
257.52	4906.3	
257.73	4674.1	
257.94	3490.4	
258.15	5057.8	
258.36	5165.7	
258.57	4341	
258.78	2784.6	
258.99	5613.5	
259.2	5036	
259.41	3499.3	
259.63	3596.2	
259.84	5922	
260.05	6340.5	
260.26	4547.2	
260.47	3402.4	
260.68	5725.4	
260.89	5119.2	
261.1	4220.9	
261.31	3342.3	
261.52	5758.2	
261.73	6105.7	
261.95	4407.2	
262.16	3943.7	
262.37	5827.8	
262.58	5938.4	
262.79	4481.6	
263	3519.8	
263.21	5218.2	
263.42	5171.8	
263.63	3565.5	
263.84	3592.1	
264.05	5724.8	
264.26	6098.9	
264.47	4332.1	
264.69	3942.3	
264.9	5851	
265.11	5390.9	
265.32	3426.9	
265.53	3472.7	
265.74	5274.9	
265.95	4685.8	
266.16	3713.7	
266.37	4000.4	
266.58	5294	
266.79	5022.3	
267	3390.8	
267.21	3219.4	
267.42	4760.8	
267.63	5218.9	
267.84	3574.4	
268.06	3142.3	
268.27	5613.5	
268.48	5842.2	
268.69	3573.7	
268.9	4211.3	
269.11	5819	
269.32	4761.5	
269.53	3680.9	
269.74	3465.2	
269.95	5446.2	
270.16	4564.2	
270.37	3664.5	
270.58	4206.5	
270.79	5055.1	
271	5682.4	
271.21	3928	
271.42	3693.9	
271.63	5340.4	
271.84	4863.9	
272.05	2955.9	
272.26	3308.2	
272.47	5194.3	
272.68	5412.1	
272.89	3488.4	
273.11	3976.5	
273.32	4990.9	
273.53	5982.1	
273.74	3902.7	
273.95	3873.4	
274.16	5793	
274.37	5239.4	
274.58	3985.3	
274.79	3232.4	
275	5315.2	
275.21	5824.4	
275.42	4842.8	
275.63	4094.6	
275.84	5425.1	
276.05	6750.8	
276.26	3856.3	
276.47	3615.3	
276.68	5132.2	
276.89	6140.5	
277.1	4072.7	
277.31	3239.2	
277.52	5420.3	
277.73	5632.6	
277.94	3213.9	
278.15	3526.6	
278.36	5425.1	
278.57	4837.3	
278.78	3526.6	
278.99	3913	
279.2	4859.8	
279.41	4835.9	
279.62	4610.7	
279.83	3213.3	
280.04	6285.2	
280.25	4763.6	
280.46	4563.6	
280.67	3657.7	
280.88	4844.1	
281.09	5831.9	
281.3	3812.6	
281.51	4848.2	
281.72	4948.6	
281.93	5694.7	
282.14	3446.7	
282.35	3724.6	
282.56	5648.3	
282.77	5618.3	
282.98	3601	
283.19	4287.1	
283.4	6860.7	
283.61	5112.4	
283.82	3314.3	
284.03	4485.7	
284.24	5282.4	
284.45	5786.9	
284.66	4523.3	
284.87	4397.7	
285.08	5773.2	
285.29	5819.6	
285.5	3146.4	
285.71	3603.7	
285.92	5794.4	
286.12	6380.1	
286.33	4418.2	
286.54	3596.9	
286.75	5642.8	
286.96	5077.6	
287.17	3263.8	
287.38	4420.9	
287.59	4868.7	
287.8	4820.2	
288.01	3569.6	
288.22	4143	
288.43	5586.9	
288.64	4702.1	
288.85	4193.6	
289.06	4046.8	
289.27	5575.9	
289.48	6046.3	
289.69	4496	
289.9	4085	
290.11	5827.2	
290.32	5027.1	
290.53	4304.8	
290.74	3963.5	
290.94	5603.9	
291.15	5652.4	
291.36	3513.6	
291.57	4121.9	
291.78	5024.3	
291.99	4727.4	
292.2	3323.2	
292.41	3970.3	
292.62	5737	
292.83	5537	
293.04	4853.7	
293.25	3330	
293.46	4999.8	
293.67	5700.9	
293.88	3461.7	
294.09	3267.9	
294.29	4795.7	
294.5	5364.3	
294.71	3717.7	
294.92	3462.4	
295.13	5023	
295.34	6206	
295.55	3135.4	
295.76	3209.2	
295.97	5571.2	
296.18	6198.5	
296.39	3290.4	
296.6	3464.5	
296.81	5249.6	
297.01	5555.5	
297.22	3570.3	
297.43	3457.7	
297.64	4915.1	
297.85	4827.1	
298.06	2848	
298.27	3130.7	
298.48	5231.2	
298.69	4932.2	
298.9	3697.9	
299.11	3386	
299.31	4745.1	
299.52	4814.8	
299.73	3971.7	
299.94	3891.1	
300.15	5250.3	
300.36	4859.1	
300.57	3910.9	
300.78	3953.9	
300.99	5113.8	
301.2	5319.9	
301.4	3472	
301.61	3736.2	
301.82	5556.1	
302.03	5599.1	
302.24	4141.7	
302.45	3285.6	
302.66	5440.1	
302.87	5917.9	
303.08	3473.4	
303.29	4713.7	
303.49	5024.3	
303.7	5199.1	
303.91	3079.5	
304.12	4406.5	
304.33	4754.7	
304.54	5319.9	
304.75	3519.8	
304.96	3292.5	
305.16	5515.2	
305.37	6132.3	
305.58	3035.8	
305.79	3104.7	
306	5447.6	
306.21	4646.8	
306.42	3361.4	
306.63	5251.7	
306.83	5102.9	
307.04	5752.1	
307.25	3747.8	
307.46	3753.2	
307.67	4539	
307.88	5607.3	
308.09	3437.2	
308.29	3562.1	
308.5	5257.8	
308.71	5747.3	
308.92	3655.6	
309.13	3336.1	
309.34	5047.6	
309.55	5114.5	
309.75	4228.4	
309.96	3898	
310.17	5539.1	
310.38	4924	
310.59	4093.9	
310.8	3203	
311.01	5068	
311.21	5091.3	
311.42	3311.6	
311.63	3428.3	
311.84	5014.8	
312.05	5308.3	
312.26	3859.7	
312.46	4175.1	
312.67	5063.3	
312.88	4780.6	
313.09	3318.4	
313.3	3315	
313.51	5926.1	
313.71	6276.3	
313.92	3312.9	
314.13	3519.1	
314.34	5380	
314.55	5100.1	
314.76	4280.3	
314.96	3722.5	
315.17	5289.2	
315.38	5585.5	
315.59	3326.6	
315.8	3205.8	
316.01	5965.1	
316.21	6079.1	
316.42	3220.1	
316.63	3670.6	
316.84	5143.1	
317.05	5817.6	
317.26	3922.5	
317.46	3489.1	
317.67	5092.6	
317.88	5535.7	
318.09	4235.2	
318.3	3123.8	
318.5	4977.9	
318.71	5497.4	
318.92	5361.6	
319.13	3885.7	
319.34	5715.9	
319.54	5791.7	
319.75	3130.7	
319.96	2917.7	
320.17	5511.8	
320.38	5732.3	
320.58	3024.8	
320.79	3648.8	
321	5782.1	
321.21	5862.7	
321.42	3692.5	
321.62	3055.6	
321.83	4844.1	
322.04	5159.5	
322.25	3553.9	
322.46	3398.9	
322.66	5350.7	
322.87	5468.8	
323.08	4082.3	
323.29	3245.3	
323.5	6167.8	
323.7	4798.4	
323.91	4496.7	
324.12	4078.2	
324.33	5310.4	
324.53	5459.2	
324.74	3888.4	
324.95	4052.9	
325.16	4640	
325.37	5040.7	
325.57	3343.7	
325.78	3391.4	
325.99	5259.9	
326.2	4733.5	
326.4	4808.6	
326.61	3092.4	
326.82	5138.4	
327.03	5309	
327.24	4717.2	
327.44	4421.6	
327.65	5445.5	
327.86	4446.8	
328.07	3926.6	
328.27	3216	
328.48	5833.3	
328.69	4812.7	
328.9	4764.9	
329.1	3549.1	
329.31	5096.7	
329.52	5962.3	
329.73	3366.2	
329.93	3755.3	
330.14	5226.4	
330.35	5413.5	
330.56	5352	
330.76	4124.6	
330.97	5051.7	
331.18	5370.5	
331.39	3711.6	
331.59	3019.4	
331.8	5723.4	
332.01	5873.6	
332.22	3471.3	
332.42	3943	
332.63	5298.8	
332.84	4918.5	
333.05	3757.3	
333.25	3385.3	
333.46	5007.3	
333.67	5206.6	
333.88	3541.6	
334.08	3925.3	
334.29	6798.6	
334.5	5753.4	
334.7	3221.5	
334.91	4710.3	
335.12	4736.3	
335.33	5524.1	
335.53	3666.5	
335.74	5466.7	
335.95	4999.8	
336.16	4878.3	
336.36	3663.1	
336.57	4263.9	
336.78	4768.4	
336.98	5736.4	
337.19	4492.6	
337.4	3610.6	
337.61	6318.7	
337.81	4826.4	
338.02	3435.8	
338.23	4445.5	
338.43	5973.9	
338.64	4902.2	
338.85	3353.2	
339.05	4341.7	
339.26	6010.8	
339.47	4691.2	
339.68	3371.6	
339.88	4931.5	
340.09	5475.6	
340.3	5624.4	
340.5	3865.9	
340.71	3022.8	
340.92	4712.4	
341.13	5926.1	
341.33	3246.7	
341.54	3947.8	
341.75	5468.1	
341.95	5090.6	
342.16	3784	
342.37	4084.3	
342.57	4791.6	
342.78	5240.8	
342.99	4182.6	
343.19	3026.2	
343.4	5528.2	
343.61	5420.3	
343.81	3549.1	
344.02	3280.8	
344.23	5613.5	
344.43	5972.6	
344.64	4137.6	
344.85	4070	
345.06	5434.6	
345.26	5790.3	
345.47	3834.5	
345.68	4474.1	
345.88	4621.6	
346.09	5683.8	
346.3	3956.7	
346.5	2988	
346.71	5185.5	
346.92	4923.3	
347.12	3090.4	
347.33	3827.7	
347.54	5669.5	
347.74	6113.9	
347.95	3807.2	
348.16	2925.9	
348.36	4999.8	
348.57	4816.1	
348.78	3749.1	
348.98	4094.6	
349.19	5185.5	
349.39	4672.8	
349.6	3101.3	
349.81	3372.3	
350.01	5502.9	
350.22	4960.9	
350.43	3701.4	
350.63	4445.5	
350.84	5271.5	
351.05	5031.2	
351.25	3369.6	
351.46	3059.7	
351.67	5603.9	
351.87	4903.5	
352.08	3520.5	
352.29	4048.2	
352.49	5689.9	
352.7	5745.9	
352.9	3263.8	
353.11	4003.8	
353.32	6150.7	
353.52	5012.7	
353.73	3209.2	
353.94	4066.6	
354.14	5473.5	
354.35	5294.7	
354.55	3301.3	
354.76	3663.8	
354.97	5402.5	
355.17	5195.7	
355.38	3120.4	
355.59	4291.2	
355.79	4872.8	
356	5267.4	
356.2	3629	
356.41	3186	
356.62	4702.1	
356.82	5115.8	
357.03	3930.7	
357.24	3578.5	
357.44	4814.1	
357.65	4990.9	
357.85	4691.2	
358.06	3665.9	
358.27	4640.7	
358.47	4843.4	
358.68	3087	
358.88	3876.1	
359.09	5407.3	
359.3	5628.5	
359.5	4513	
359.71	3986.7	
359.91	6087.2	
360.12	5520.6	
360.33	3859.7	
360.53	4358.1	
360.74	4887.8	
360.94	4929.5	
361.15	4043.4	
361.36	3320.4	
361.56	5606.7	
361.77	5070.1	
361.97	4506.2	
362.18	3545.7	
362.38	5638.7	
362.59	4732.2	
362.8	3324.5	
363	3130	
363.21	4590.2	
363.41	5126.7	
363.62	3784.6	
363.83	4641.4	
364.03	5249.6	
364.24	6123.4	
364.44	4735.6	
364.65	4691.9	
364.85	5071.5	
365.06	4693.3	
365.27	3384.6	
365.47	3463.1	
365.68	5918.6	
365.88	5028.4	
366.09	3813.3	
366.29	3510.9	
366.5	5266	
366.71	5589.6	
366.91	4637.3	
367.12	3938.2	
367.32	6141.2	
367.53	5455.1	
367.73	3859.7	
367.94	4719.2	
368.14	5474.9	
368.35	6203.3	
368.56	3910.3	
368.76	3628.3	
368.97	5601.9	
369.17	7086	
369.38	3441.3	
369.58	3610.6	
369.79	4671.4	
369.99	5894.1	
370.2	4568.3	
370.4	3745.7	
370.61	5255.1	
370.82	6315.9	
371.02	3667.9	
371.23	3056.9	
371.43	4588.8	
371.64	5735	
371.84	3704.1	
372.05	4777.9	
372.25	6995.9	
372.46	5512.4	
372.66	3616.7	
372.87	3617.4	
373.07	5536.3	
373.28	7060	
373.48	4597.7	
373.69	4276.8	
373.9	5088.5	
374.1	5075.5	
374.31	4485.1	
374.51	4070.7	
374.72	5799.2	
374.92	4759.5	
375.13	4685.1	
375.33	3888.4	
375.54	5409.4	
375.74	4943.8	
375.95	3983.3	
376.15	5041.4	
376.36	5444.2	
376.56	5238.7	
376.77	3999.7	
376.97	4397.7	
377.18	6392.4	
377.38	5472.2	
377.59	4678.9	
377.79	3606.5	
378	5255.8	
378.2	5674.9	
378.41	3608.5	
378.61	3479.5	
378.82	5745.2	
379.02	4906.9	
379.23	3749.1	
379.43	4710.3	
379.64	5816.2	
379.84	5461.9	
380.05	3541.6	
380.25	3518.4	
380.46	5510.4	
380.66	5186.8	
380.87	4766.3	
381.07	5159.5	
381.28	6130.3	
381.48	5524.7	
381.69	3683.6	
381.89	3693.9	
382.1	4586.1	
382.3	5701.5	
382.51	4677.6	
382.71	5413.5	
382.91	5558.9	
383.12	6081.8	
383.32	3986	
383.53	4163.5	
383.73	5424.4	
383.94	5212.8	
384.14	4100.7	
384.35	3326.6	
384.55	5226.4	
384.76	5610.8	
384.96	3941.7	
385.17	4258.4	
385.37	5561.6	
385.58	4914.4	
385.78	4307.6	
385.98	3231.7	
386.19	5114.5	
386.39	5481	
386.6	3715.7	
386.8	3947.8	
387.01	5542.5	
387.21	5569.1	
387.42	4361.5	
387.62	4854.4	
387.83	4937.7	
388.03	5461.9	
388.23	3962.8	
388.44	4698	
388.64	4622.9	
388.85	4780	
389.05	4276.2	
389.26	4855.7	
389.46	6530.3	
389.67	5954.1	
389.87	4242.7	
390.07	4330.1	
390.28	5208	
390.48	4877.6	
390.69	3581.2	
390.89	3880.9	
391.1	4998.4	
391.3	5887.2	
391.5	4996.4	
391.71	5482.4	
391.91	5588.9	
392.12	6496.8	
392.32	4962.2	
392.53	4253.6	
392.73	5119.2	
392.93	5279.7	
393.14	4050.2	
393.34	4698	
393.55	5664.7	
393.75	5162.9	
393.95	4021.5	
394.16	3922.5	
394.36	5046.9	
394.57	5694.7	
394.77	3489.1	
394.98	3931.4	
395.18	4952.7	
395.38	5012.1	
395.59	4669.4	
395.79	3764.8	
396	5078.3	
396.2	5516.5	
396.4	4459.1	
396.61	4361.5	
396.81	5693.4	
397.02	5012.7	
397.22	4675.5	
397.42	4743.8	
397.63	5697.4	
397.83	4960.9	
398.04	3675.4	
398.24	4115.1	
398.44	5467.4	
398.65	5034.6	
398.85	3506.1	
399.05	3651.5	
399.26	4887.8	
399.46	6477.7	
399.67	3939.6	
399.87	3728.7	
400.07	5253	
400.28	5525.4	
400.48	3775.8	
400.69	4706.2	
400.89	6169.8	
401.09	6167.8	
401.3	3642.7	
401.5	4747.9	
401.7	6308.4	
401.91	6571.2	
402.11	4018.8	
402.32	4242.7	
402.52	5837.4	
402.72	5745.2	
402.93	4521.9	
403.13	3414	
403.33	6524.8	
403.54	5373.2	
403.74	4231.8	
403.94	4955.4	
404.15	5384.8	
404.35	6446.3	
404.56	4006.5	
404.76	5591.6	
404.96	5805.3	
405.17	5560.9	
405.37	5030.5	
405.57	4388.1	
405.78	5815.5	
405.98	5369.8	
406.18	3965.6	
406.39	4747.9	
406.59	5834	
406.79	5444.2	
407	3735.5	
407.2	3908.2	
407.4	5804.6	
407.61	5869.5	
407.81	3816	
408.01	5737.7	
408.22	4821.6	
408.42	6575.3	
408.62	4734.9	
408.83	4281.6	
409.03	5371.8	
409.23	5193	
409.44	4296	
409.64	4608.6	
409.84	6192.4	
410.05	6079.1	
410.25	4457.1	
410.45	4196.3	
410.66	5566.4	
410.86	7810.3	
411.06	4610.7	
411.27	4477.5	
411.47	7643	
411.67	5760.3	
411.88	4729.4	
412.08	4937.7	
412.28	6290.7	
412.49	6693.4	
412.69	4472.8	
412.89	4434.5	
413.09	6634.7	
413.3	6387.6	
413.5	4588.8	
413.7	4283.7	
413.91	5816.9	
414.11	6579.4	
414.31	4364.2	
414.52	4742.4	
414.72	6334.4	
414.92	6161	
415.12	4362.9	
415.33	4897.4	
415.53	6469.5	
415.73	6691.4	
415.94	5193	
416.14	4741.7	
416.34	5634	
416.55	5345.9	
416.75	5776.6	
416.95	5277.6	
417.15	6517.3	
417.36	7181.5	
417.56	5898.8	
417.76	5085.8	
417.97	6827.2	
418.17	6524.1	
418.37	4745.8	
418.57	4740.4	
418.78	6366.5	
418.98	6120.7	
419.18	5565.7	
419.38	5481.7	
419.59	6156.9	
419.79	5761.6	
419.99	4700.8	
420.2	5064.6	
420.4	6534.4	
420.6	6670.2	
420.8	4597.7	
421.01	4436.6	
421.21	6408.1	
421.41	6551.5	
421.61	4980	
421.82	4625.7	
422.02	5961	
422.22	6836.8	
422.42	5406.6	
422.63	5167.7	
422.83	6061.3	
423.03	7223.9	
423.23	5143.8	
423.44	4152.6	
423.64	6107.7	
423.84	5843.5	
424.04	4589.5	
424.25	4251.6	
424.45	7033.4	
424.65	6969.2	
424.85	4079.6	
425.06	4632.5	
425.26	7068.9	
425.46	6001.2	
425.66	5082.4	
425.87	4881	
426.07	6767.2	
426.27	6638.8	
426.47	4933.6	
426.67	4335.5	
426.88	7072.3	
427.08	6632.7	
427.28	5177.9	
427.48	4345.8	
427.69	5557.5	
427.89	6196.5	
428.09	5109.7	
428.29	4332.1	
428.5	6712.6	
428.7	6378.7	
428.9	4247.5	
429.1	4668	
429.3	6272.2	
429.51	6661.4	
429.71	4534.2	
429.91	5276.3	
430.11	6559.6	
430.31	6768.5	
430.52	4874.2	
430.72	5070.8	
430.92	7083.2	
431.12	6558.3	
431.32	4477.5	
431.53	4941.7	
431.73	5562.3	
431.93	7131	
432.13	4483.7	
432.33	4284.4	
432.54	6033.3	
432.74	6388.3	
432.94	4248.9	
433.14	5188.2	
433.34	6522.1	
433.55	6012.2	
433.75	5156.8	
433.95	6724.2	
434.15	6302.3	
434.35	6064.7	
434.56	4490.5	
434.76	3997	
434.96	6290.7	
435.16	6509.1	
435.36	4332.8	
435.56	5350	
435.77	5981.4	
435.97	6151.4	
436.17	5994.4	
436.37	5311.1	
436.57	5906.3	
436.78	5879.7	
436.98	5245.5	
437.18	5869.5	
437.38	6526.2	
437.58	6182.8	
437.78	5973.9	
437.99	4780	
438.19	6623.1	
438.39	7362.4	
438.59	4706.2	
438.79	4235.9	
438.99	7226.6	
439.2	6096.8	
439.4	4331.5	
439.6	4245.4	
439.8	6446.3	
440	7324.2	
440.2	5178.6	
440.4	5279.7	
440.61	6719.4	
440.81	7268.2	
441.01	4461.2	
441.21	5260.5	
441.41	7111.2	
441.61	6692.8	
441.81	5592.3	
442.02	6539.8	
442.22	7542	
442.42	6920.8	
442.62	4567.7	
442.82	4562.2	
443.02	7108.5	
443.22	6303	
443.43	5008.6	
443.63	4540.3	
443.83	6086.6	
444.03	6121.4	
444.23	5651	
444.43	5338.4	
444.63	6457.9	
444.83	7554.3	
445.04	4638.6	
445.24	5838.8	
445.44	6849.8	
445.64	6968.6	
445.84	5399.8	
446.04	5420.3	
446.24	6182.1	
446.44	7221.8	
446.65	4653.7	
446.85	5010.7	
447.05	6249	
447.25	7116.7	
447.45	5085.8	
447.65	4528.1	
447.85	6534.4	
448.05	6197.8	
448.25	5449.6	
448.46	5296.7	
448.66	6479.8	
448.86	6285.9	
449.06	4396.3	
449.26	5476.3	
449.46	6768.5	
449.66	5960.3	
449.86	5004.6	
450.06	5033.2	
450.26	6110.5	
450.47	6673.6	
450.67	5188.9	
450.87	5562.3	
451.07	6760.3	
451.27	6565.8	
451.47	4668.7	
451.67	5096	
451.87	6237.4	
452.07	7352.9	
452.27	4789.5	
452.47	4851.6	
452.67	6532.3	
452.88	7019.1	
453.08	4253.6	
453.28	6038.8	
453.48	7608.9	
453.68	6425.2	
453.88	4747.9	
454.08	4949.9	
454.28	6820.4	
454.48	6505.7	
454.68	5387.5	
454.88	5904.3	
455.08	6918	
455.28	6640.2	
455.48	4597.7	
455.68	5185.5	
455.89	7365.2	
456.09	7027.3	
456.29	4921.3	
456.49	4975.2	
456.69	7220.5	
456.89	6551.5	
457.09	5452.4	
457.29	5718.6	
457.49	6813.6	
457.69	6918.7	
457.89	5207.3	
458.09	4668.7	
458.29	6572.6	
458.49	7388.4	
458.69	5629.2	
458.89	5128.1	
459.09	7532.4	
459.29	7562.5	
459.49	5240.1	
459.69	5902.9	
459.9	7131.7	
460.1	6546	
460.3	5110.4	
460.5	5001.8	
460.7	7073	
460.9	6759.7	
461.1	4633.2	
461.3	5736.4	
461.5	7598	
461.7	7244.3	
461.9	4898.1	
462.1	5393.7	
462.3	6739.9	
462.5	7313.3	
462.7	5001.1	
462.9	5101.5	
463.1	8244.4	
463.3	7917.4	
463.5	5244.2	
463.7	6159.6	
463.9	6929	
464.1	7383.6	
464.3	5322	
464.5	5644.9	
464.7	7580.9	
464.9	7217.7	
465.1	6781.5	
465.3	5934.3	
465.5	7881.3	
465.7	7819.8	
465.9	6130.9	
466.1	5999.9	
466.3	7631.4	
466.5	7477.1	
466.7	6697.5	
466.9	5792.3	
467.1	7531.1	
467.3	8325.7	
467.5	6746	
467.7	5639.4	
467.9	8555	
468.1	9410.4	
468.3	6362.4	
468.5	6759	
468.7	7432.8	
468.9	7367.2	
469.1	5935.7	
469.3	6632.7	
469.5	9229.5	
469.7	7037.5	
469.9	6451.1	
470.1	5810.1	
470.3	7490.8	
470.5	7473.7	
470.7	6964.5	
470.9	5844.2	
471.1	7262.1	
471.3	7692.2	
471.5	5735.7	
471.69	7451.2	
471.89	7206.1	
472.09	6750.8	
472.29	6380.1	
472.49	6797.2	
472.69	6849.8	
472.89	7665.5	
473.09	5579.3	
473.29	5737	
473.49	7083.2	
473.69	7197.2	
473.89	6582.9	
474.09	5935.7	
474.29	8438.3	
474.49	8053.3	
474.69	6492.7	
474.89	5985.5	
475.09	7337.2	
475.29	7288.7	
475.49	5481.7	
475.69	5700.2	
475.88	8767.4	
476.08	7521.5	
476.28	5444.9	
476.48	5958.9	
476.68	8000	
476.88	7825.3	
477.08	5741.8	
477.28	5969.8	
477.48	7301.7	
477.68	7952.9	
477.88	5513.8	
478.08	5830.6	
478.28	8210.3	
478.48	7443	
478.67	5861.3	
478.87	5436.7	
479.07	8019.2	
479.27	7476.5	
479.47	6067.4	
479.67	6113.9	
479.87	7935.9	
480.07	8426	
480.27	5394.3	
480.47	6959	
480.67	7628.7	
480.87	8173.4	
481.06	5707	
481.26	6435.4	
481.46	7553.6	
481.66	7470.3	
481.86	6003.3	
482.06	7068.9	
482.26	7293.5	
482.46	8268.3	
482.66	6113.9	
482.86	5685.2	
483.05	7589.8	
483.25	6984.3	
483.45	8306.6	
483.65	6059.3	
483.85	7204.8	
484.05	7507.9	
484.25	6456.6	
484.45	6926.2	
484.65	8340.7	
484.84	8239	
485.04	5939.8	
485.24	5902.9	
485.44	8558.5	
485.64	7025.9	
485.84	5259.9	
486.04	6620.4	
486.24	7324.2	
486.44	7703.1	
486.63	5257.8	
486.83	6001.2	
487.03	7276.4	
487.23	7431.4	
487.43	5388.9	
487.63	7584.3	
487.83	7421.8	
488.02	8274.5	
488.22	6130.3	
488.42	6866.2	
488.62	8328.4	
488.82	7217	
489.02	5980.1	
489.22	5976	
489.41	8157.1	
489.61	7811	
489.81	5767.1	
490.01	5775.3	
490.21	8083.3	
490.41	8693.6	
490.61	5803.3	
490.8	5797.1	
491	7664.2	
491.2	7146.7	
491.4	6442.2	
491.6	5603.9	
491.8	7626.6	
491.99	7723.6	
492.19	5443.5	
492.39	5795.8	
492.59	8067.6	
492.79	8141.4	
492.99	6560.3	
493.18	5733.6	
493.38	8174.8	
493.58	8766.7	
493.78	6331.6	
493.98	5922	
494.18	7913.4	
494.37	7332.4	
494.57	6522.8	
494.77	6552.8	
494.97	8152.3	
495.17	8409.6	
495.37	6031.3	
495.56	6429.3	
495.76	8554.4	
495.96	8172.1	
496.16	7261.4	
496.36	6294.1	
496.55	8370.7	
496.75	7879.2	
496.95	6579.4	
497.15	6467.5	
497.35	8359.8	
497.54	8264.2	
497.74	6283.9	
497.94	7978.9	
498.14	8985.8	
498.34	8789.9	
498.53	5974.6	
498.73	6767.2	
498.93	7757.7	
499.13	8400.1	
499.33	6589	
499.52	7092.1	
499.72	8272.4	
499.92	8625.4	
500.12	6264.1	
500.32	6458.6	
500.51	8568	
500.71	8258.1	
500.91	7299.6	
501.11	6808.1	
501.31	8505.2	
501.5	8914.1	
501.7	7549.5	
501.9	6583.5	
502.1	8377.6	
502.29	8730.5	
502.49	7003.4	
502.69	7506.5	
502.89	8596	
503.09	8606.2	
503.28	6073.6	
503.48	6315.3	
503.68	7897.7	
503.88	7858.7	
504.07	7206.1	
504.27	6752.8	
504.47	8233.5	
504.67	8374.1	
504.86	6991.8	
505.06	6780.8	
505.26	7974.1	
505.46	9596.8	
505.65	6715.3	
505.85	6941.9	
506.05	7920.2	
506.25	8374.8	
506.44	6054.5	
506.64	7015.7	
506.84	7836.9	
507.04	8680	
507.23	6352.8	
507.43	6934.4	
507.63	9634.3	
507.83	8059.4	
508.02	6860.7	
508.22	6493.4	
508.42	9939.5	
508.62	7813	
508.81	6727.6	
509.01	7283.3	
509.21	7756.3	
509.4	7963.2	
509.6	6935.8	
509.8	6374.6	
510	7972.7	
510.19	9330.5	
510.39	6318.7	
510.59	6393.1	
510.79	7752.2	
510.98	9129.8	
511.18	6475.7	
511.38	6589	
511.57	8656.8	
511.77	8444.5	
511.97	7165.2	
512.17	6262.7	
512.36	8641.7	
512.56	8531.2	
512.76	6351.4	
512.95	6173.3	
513.15	8755.7	
513.35	7468.9	
513.55	7169.9	
513.74	6442.2	
513.94	8694.3	
514.14	8053.3	
514.33	7264.1	
514.53	7025.2	
514.73	8023.9	
514.92	8219.9	
515.12	6552.8	
515.32	6323.4	
515.51	8263.6	
515.71	8720.3	
515.91	8079.9	
516.11	6414.9	
516.3	9838.4	
516.5	7934.5	
516.7	6995.2	
516.89	7599.3	
517.09	8105.2	
517.29	7975.5	
517.48	7305.1	
517.68	6744	
517.88	7838.3	
518.07	8363.2	
518.27	7182.9	
518.47	6212.9	
518.66	9039.7	
518.86	7700.4	
519.06	6110.5	
519.25	6632	
519.45	8001.4	
519.65	9409.7	
519.84	7230.7	
520.04	7892.2	
520.24	9807.7	
520.43	8635.6	
520.63	7017	
520.83	6708.5	
521.02	7999.4	
521.22	8626	
521.42	7126.2	
521.61	7702.4	
521.81	8177.5	
522.01	8341.4	
522.2	7063.4	
522.4	6898.9	
522.6	8802.9	
522.79	7693.5	
522.99	6888	
523.18	6313.2	
523.38	8473.8	
523.58	8473.1	
523.77	8153	
523.97	6321.4	
524.17	10236	
524.36	9503.9	
524.56	7473	
524.76	7241.6	
524.95	8558.5	
525.15	8301.8	
525.34	7058.7	
525.54	7042.3	
525.74	8994.7	
525.93	8029.4	
526.13	8293.6	
526.33	7157	
526.52	9333.3	
526.72	8771.5	
526.91	8325.7	
527.11	7632.8	
527.31	9385.8	
527.5	9715.6	
527.7	7511.3	
527.89	6556.2	
528.09	8474.5	
528.29	8890.9	
528.48	7877.2	
528.68	7571.3	
528.87	9215.2	
529.07	9373.6	
529.27	7636.9	
529.46	7214.3	
529.66	9114.1	
529.85	9407.7	
530.05	7094.2	
530.25	7778.2	
530.44	10340	
530.64	8953.7	
530.83	7471	
531.03	7716.1	
531.23	9437.7	
531.42	9278	
531.62	8284	
531.81	7548.1	
532.01	9492.3	
532.21	9968.8	
532.4	7333.8	
532.6	7813.7	
532.79	10402	
532.99	9579.7	
533.18	7845.1	
533.38	8722.3	
533.58	9256.8	
533.77	10077	
533.97	7868.3	
534.16	8665.6	
534.36	10130	
534.55	9398.8	
534.75	8718.9	
534.95	7999.4	
535.14	10208	
535.34	9387.9	
535.53	7694.2	
535.73	9581.1	
535.92	10714	
536.12	9624.8	
536.31	7785	
536.51	8901.8	
536.71	9862.3	
536.9	9407	
537.1	7876.5	
537.29	8060.8	
537.49	10247	
537.68	9407	
537.88	8417.8	
538.07	7684.7	
538.27	9607	
538.46	10582	
538.66	7640.3	
538.86	8010.3	
539.05	9609.1	
539.25	10096	
539.44	8352.3	
539.64	8022.6	
539.83	9514.9	
540.03	10445	
540.22	7918.8	
540.42	7993.2	
540.61	9768.1	
540.81	9938.1	
541	8479.3	
541.2	9007.6	
541.39	9340.8	
541.59	9701.2	
541.78	8796.7	
541.98	7955	
542.18	9176.9	
542.37	9140.1	
542.57	8256.7	
542.76	8819.9	
542.96	9082.7	
543.15	9849.4	
543.35	8250.6	
543.54	7706.5	
543.74	10124	
543.93	9705.3	
544.13	8272.4	
544.32	9291	
544.52	10069	
544.71	9140.8	
544.91	7486	
545.1	8554.4	
545.3	9295.7	
545.49	9853.5	
545.69	7376.1	
545.88	7906.5	
546.08	10851	
546.27	10400	
546.47	8434.2	
546.66	7737.9	
546.86	10087	
547.05	10783	
547.24	7986.4	
547.44	7872.4	
547.63	9146.2	
547.83	10169	
548.02	8240.3	
548.22	8299.1	
548.41	9035	
548.61	10233	
548.8	7853.3	
549	7611.6	
549.19	9594.7	
549.39	10051	
549.58	7484	
549.78	8017.8	
549.97	9922.4	
550.17	9478	
550.36	8836.3	
550.55	9776.3	
550.75	9546.3	
550.94	10324	
551.14	7656.7	
551.33	8034.9	
551.53	8849.3	
551.72	9843.9	
551.92	8118.8	
552.11	7942.7	
552.31	9925.1	
552.5	9843.2	
552.69	9487.6	
552.89	7575.4	
553.08	9738.8	
553.28	9559.9	
553.47	7940.7	
553.67	8901.8	
553.86	10297	
554.06	8798.8	
554.25	7110.5	
554.44	7664.9	
554.64	11062	
554.83	10585	
555.03	7759.1	
555.22	7999.4	
555.42	9926.5	
555.61	9624.8	
555.8	7768.6	
556	8150.9	
556.19	8926.4	
556.39	10068	
556.58	7909.3	
556.78	7860.1	
556.97	9580.4	
557.16	9310.1	
557.36	8946.2	
557.55	7531.7	
557.75	8703.2	
557.94	10331	
558.13	7601.4	
558.33	7488.1	
558.52	10144	
558.72	9071.1	
558.91	7495.6	
559.1	7736.5	
559.3	8743.5	
559.49	8535.3	
559.69	7180.9	
559.88	8097	
560.07	9635.7	
560.27	9884.2	
560.46	8258.1	
560.66	8350.9	
560.85	9405	
561.04	8550.3	
561.24	7517.4	
561.43	7662.8	
561.63	8919.6	
561.82	9088.9	
562.01	8823.3	
562.21	7973.4	
562.4	9622	
562.59	10450	
562.79	7797.3	
562.98	7441.6	
563.18	9421.3	
563.37	10707	
563.56	8258.8	
563.76	7378.1	
563.95	8909.3	
564.14	8880.7	
564.34	7823.9	
564.53	7321.5	
564.73	9506	
564.92	9772.9	
565.11	7858.1	
565.31	7332.4	
565.5	9938.1	
565.69	8976.9	
565.89	7576.1	
566.08	7838.9	
566.27	9799.5	
566.47	10294	
566.66	8420.6	
566.85	7199.3	
567.05	9487.6	
567.24	8981.7	
567.44	7498.3	
567.63	8830.2	
567.82	9831.6	
568.02	9471.2	
568.21	7492.2	
568.4	7912	
568.6	9353.1	
568.79	9299.8	
568.98	7343.3	
569.18	7600	
569.37	9373.6	
569.56	11120	
569.76	7912.7	
569.95	8739.4	
570.14	9730.6	
570.34	9590.6	
570.53	7382.9	
570.72	7410.9	
570.91	10087	
571.11	9227.5	
571.3	7863.5	
571.49	8684.8	
571.69	9326.4	
571.88	8959.9	
572.07	8340	
572.27	8309.3	
572.46	8895	
572.65	9880.8	
572.85	7648.5	
573.04	7903.8	
573.23	10094	
573.43	9441.1	
573.62	7400	
573.81	7897.7	
574	9434.3	
574.2	9256.1	
574.39	7705.1	
574.58	7892.2	
574.78	10236	
574.97	9538.1	
575.16	8212.4	
575.36	8376.9	
575.55	9923.8	
575.74	10069	
575.93	7421.2	
576.13	8422.6	
576.32	9344.9	
576.51	9917.6	
576.71	7833.5	
576.9	9693	
577.09	10193	
577.28	9706	
577.48	8230.8	
577.67	7309.9	
577.86	9390.6	
578.05	9729.9	
578.25	7927	
578.44	8097.7	
578.63	9611.8	
578.83	10546	
579.02	7468.9	
579.21	8849.3	
579.4	9724.4	
579.6	9423.4	
579.79	8155.7	
579.98	10163	
580.17	9973.6	
580.37	10085	
580.56	7594.6	
580.75	8323.6	
580.94	10390	
581.14	10264	
581.33	8690.9	
581.52	7795.3	
581.71	9853.5	
581.91	10496	
582.1	7459.4	
582.29	7996	
582.48	9577	
582.68	9453.4	
582.87	8390.5	
583.06	8060.8	
583.25	9764.7	
583.45	9674.6	
583.64	8734.6	
583.83	9340.8	
584.02	9436.4	
584.21	9783.1	
584.41	8554.4	
584.6	8007.6	
584.79	9579	
584.98	10172	
585.18	7456.7	
585.37	7471.7	
585.56	9149	
585.75	9877.4	
585.94	7761.1	
586.14	8314.1	
586.33	10429	
586.52	9443.9	
586.71	8131.1	
586.91	7996.6	
587.1	8921	
587.29	9866.4	
587.48	7770	
587.67	7770.7	
587.87	9801.6	
588.06	9708.7	
588.25	9064.3	
588.44	8307.2	
588.63	9415.9	
588.83	10053	
589.02	7785.7	
589.21	7716.1	
589.4	9239.8	
589.59	9088.9	
589.78	7027.3	
589.98	7263.5	
590.17	8723	
590.36	9166.7	
590.55	6701.6	
590.74	7391.8	
590.94	10433	
591.13	9125.7	
591.32	7208.8	
591.51	6840.9	
591.7	9471.2	
591.89	8942.8	
592.09	6859.3	
592.28	7320.8	
592.47	8357.8	
592.66	10073	
592.85	6868.9	
593.05	7073.7	
593.24	8873.8	
593.43	9603.6	
593.62	7139.9	
593.81	7602.1	
594	8914.1	
594.19	9106.6	
594.39	6998.6	
594.58	6954.9	
594.77	9210.4	
594.96	9666.4	
595.15	6967.9	
595.34	7629.4	
595.54	9196.1	
595.73	8325.7	
595.92	6393.8	
596.11	7482.6	
596.3	9738.1	
596.49	8495	
596.68	7180.2	
596.88	7682.6	
597.07	9332.6	
597.26	8358.4	
597.45	6785.6	
597.64	7923.6	
597.83	8508.6	
598.02	9109.4	
598.22	6873.7	
598.41	7464.2	
598.6	8892.3	
598.79	8366.6	
598.98	6882.5	
599.17	7692.2	
599.36	8856.1	
599.55	9975.7	
599.74	8811.7	
599.94	8430.1	
600.13	9424.8	
600.32	8301.1	
600.51	6628.6	
600.7	6705	
600.89	9983.2	
601.08	10098	
601.27	6561.7	
601.47	7486	
601.66	9250.7	
601.85	9876.7	
602.04	7169.3	
602.23	7292.1	
602.42	8439	
602.61	9017.9	
602.8	7083.9	
602.99	6858.6	
603.18	8730.5	
603.37	8959.2	
603.57	7488.1	
603.76	8006.2	
603.95	9557.9	
604.14	9199.5	
604.33	6911.2	
604.52	7341.3	
604.71	8919.6	
604.9	8567.3	
605.09	8084	
605.28	7646.4	
605.47	9465	
605.66	9139.4	
605.86	7479.2	
606.05	6967.2	
606.24	9495.7	
606.43	8106.5	
606.62	7322.2	
606.81	8039.6	
607	9274.6	
607.19	8601.5	
607.38	6655.2	
607.57	7033.4	
607.76	8484.1	
607.95	8030.1	
608.14	7259.4	
608.33	7908.6	
608.52	8460.8	
608.72	9233.6	
608.91	6623.8	
609.1	6535.8	
609.29	8533.2	
609.48	8068.3	
609.67	7447.1	
609.86	6646.3	
610.05	8197.3	
610.24	8493.6	
610.43	6455.9	
610.62	6140.5	
610.81	9465	
611	9251.4	
611.19	6561	
611.38	7288	
611.57	8727.1	
611.76	9885.5	
611.95	6429.3	
612.14	6257.9	
612.33	8548.2	
612.52	8090.8	
612.71	6848.4	
612.9	6158.9	
613.09	7708.6	
613.28	9932	
613.47	6724.2	
613.66	7488.7	
613.85	8632.9	
614.04	8191.9	
614.24	6629.3	
614.43	5993	
614.62	8891.6	
614.81	8688.2	
615	7201.3	
615.19	7236.8	
615.38	8112	
615.57	8385.1	
615.76	7159	
615.95	7964.6	
616.14	8782.4	
616.33	8432.9	
616.52	7354.9	
616.71	7608.2	
616.9	8684.1	
617.09	8584.4	
617.28	6759.7	
617.47	7979.6	
617.66	7873.1	
617.85	7949.5	
618.04	7520.1	
618.22	7129	
618.41	8236.9	
618.6	9138.7	
618.79	6982.9	
618.98	6763.8	
619.17	9332.6	
619.36	7859.4	
619.55	6880.5	
619.74	6847	
619.93	8690.9	
620.12	8208.9	
620.31	7464.8	
620.5	7582.3	
620.69	9223.4	
620.88	9584.5	
621.07	8261.5	
621.26	7370.6	
621.45	8927.1	
621.64	9004.2	
621.83	7438.2	
622.02	6649.8	
622.21	8966	
622.4	8736	
622.59	7934.5	
622.78	7783.6	
622.97	8363.9	
623.16	9291.6	
623.35	7448.5	
623.54	6725.5	
623.72	8637	
623.91	8701.8	
624.1	7630.7	
624.29	6494.1	
624.48	9674.6	
624.67	8946.9	
624.86	7584.3	
625.05	6764.4	
625.24	9827.5	
625.43	8298.4	
625.62	9144.2	
625.81	6906.4	
626	9289.6	
626.19	8634.2	
626.38	7703.1	
626.56	7085.3	
626.75	8372.1	
626.94	9082.7	
627.13	7619.8	
627.32	6564.4	
627.51	9022	
627.7	10230	
627.89	6476.4	
628.08	7680.6	
628.27	8331.1	
628.46	8469.7	
628.65	6840.2	
628.83	6722.8	
629.02	9048.6	
629.21	8366	
629.4	7320.8	
629.59	7417.7	
629.78	8318.8	
629.97	9227.5	
630.16	7494.2	
630.35	6969.9	
630.54	9683.5	
630.72	9453.4	
630.91	7043.6	
631.1	7540.6	
631.29	8949.6	
631.48	9009	
631.67	7673.1	
631.86	7074.4	
632.05	8546.9	
632.24	8583	
632.42	6808.1	
632.61	7370	
632.8	8583	
632.99	8281.3	
633.18	7412.3	
633.37	7746.1	
633.56	8841.1	
633.75	8717.5	
633.93	7355.6	
634.12	6987	
634.31	9656.2	
634.5	9274.6	
634.69	7091.4	
634.88	7585	
635.07	8645.8	
635.25	9165.3	
635.44	8019.8	
635.63	8135.9	
635.82	8521.6	
636.01	8082.6	
636.2	7879.9	
636.39	7440.3	
636.57	9590.6	
636.76	9260.9	
636.95	6961.7	
637.14	8229.4	
637.33	8993.3	
637.52	9717.6	
637.7	6730.3	
637.89	7573.4	
638.08	8493.6	
638.27	9919.7	
638.46	7591.8	
638.65	8039.6	
638.83	9829.6	
639.02	8406.2	
639.21	7567.2	
639.4	7922.2	
639.59	8776.9	
639.78	8409	
639.96	6870.3	
640.15	6892.1	
640.34	8633.6	
640.53	8729.1	
640.72	6595.1	
640.91	6894.8	
641.09	8125	
641.28	9443.9	
641.47	6922.1	
641.66	7656.7	
641.85	8710	
642.03	8899.8	
642.22	7460.8	
642.41	6967.9	
642.6	8181	
642.79	7698.3	
642.97	6762.4	
643.16	7389.1	
643.35	8189.1	
643.54	8019.8	
643.73	6640.2	
643.91	7492.2	
644.1	7886.7	
644.29	8462.2	
644.48	6830.7	
644.67	6805.4	
644.85	7993.9	
645.04	8375.5	
645.23	6395.1	
645.42	6642.2	
645.6	8015.1	
645.79	8925.7	
645.98	6610.8	
646.17	5773.2	
646.36	7633.5	
646.54	8241.7	
646.73	7388.4	
646.92	6224.5	
647.11	7815	
647.29	8843.1	
647.48	6299.6	
647.67	6126.2	
647.86	9025.4	
648.05	9030.2	
648.23	6597.2	
648.42	7825.3	
648.61	8454	
648.8	8196.7	
648.98	6282.5	
649.17	6527.6	
649.36	7804.1	
649.55	7332.4	
649.73	6257.2	
649.92	6996.5	
650.11	7727	
650.3	8082.7	
650.48	6429.9	
650.67	6178.7	
650.86	8165.9	
651.05	7193.8	
651.23	6305	
651.42	6324.8	
651.61	7731.8	
651.79	7841	
651.98	6535.8	
652.17	6130.3	
652.36	8147.5	
652.54	7283.3	
652.73	6264.1	
652.92	5982.8	
653.11	8224.6	
653.29	8263.6	
653.48	5560.2	
653.67	6537.1	
653.85	7977.5	
654.04	8925.7	
654.23	6608.8	
654.42	6289.3	
654.6	7477.8	
654.79	8123.6	
654.98	5750.7	
655.16	6253.8	
655.35	7112.6	
655.54	7069.6	
655.73	5760.9	
655.91	5650.3	
656.1	7993.2	
656.29	6915.3	
656.47	5289.9	
656.66	6843.6	
656.85	7296.9	
657.03	7191.8	
657.22	5697.4	
657.41	5801.2	
657.59	7333.8	
657.78	7114	
657.97	5534.3	
658.16	6197.2	
658.34	7983.7	
658.53	8308.6	
658.72	7116.7	
658.9	7507.9	
659.09	7432.1	
659.28	7543.4	
659.46	5907	
659.65	5828.5	
659.84	7161.7	
660.02	7747.5	
660.21	5799.8	
660.4	5746.6	
660.58	8115.4	
660.77	7577.5	
660.96	6325.5	
661.14	5517.9	
661.33	8625.4	
661.52	8468.4	
661.7	5401.2	
661.89	8862.9	
662.08	7225.2	
662.26	6736.5	
662.45	5738.4	
662.64	5805.3	
662.82	7768.6	
663.01	7081.9	
663.2	5752.7	
663.38	6511.9	
663.57	7702.4	
663.75	7578.2	
663.94	6090.7	
664.13	7200.7	
664.31	7139.2	
664.5	7775.5	
664.69	6246.3	
664.87	6754.2	
665.06	6962.4	
665.25	7577.5	
665.43	6993.8	
665.62	7106.5	
665.8	7873.1	
665.99	7277.8	
666.18	6055.2	
666.36	6145.3	
666.55	7819.1	
666.74	7724.3	
666.92	5694.7	
667.11	7192.5	
667.29	7315.3	
667.48	7755	
667.67	6798.6	
667.85	5941.8	
668.04	7286.7	
668.22	7283.3	
668.41	6115.9	
668.6	6308.4	
668.78	7067.5	
668.97	7245	
669.15	6459.3	
669.34	5496.7	
669.53	7090.8	
669.71	7422.5	
669.9	5619.6	
670.08	6237.4	
670.27	7006.8	
670.46	7608.9	
670.64	6457.9	
670.83	6663.4	
671.01	6930.3	
671.2	7579.5	
671.38	5700.9	
671.57	5641.5	
671.76	8101.1	
671.94	8684.8	
672.13	5502.2	
672.31	6536.4	
672.5	7722.9	
672.69	7073	
672.87	5701.5	
673.06	5975.3	
673.24	7532.4	
673.43	7088	
673.61	6329.6	
673.8	5945.9	
673.98	7711.3	
674.17	7837.6	
674.36	6494.1	
674.54	6370.5	
674.73	7486	
674.91	7742	
675.1	6128.9	
675.28	5713.2	
675.47	7323.5	
675.65	7768.6	
675.84	5881.1	
676.03	6283.9	
676.21	7143.3	
676.4	6604.7	
676.58	6661.4	
676.77	6421.1	
676.95	8423.3	
677.14	7130.3	
677.32	5594.4	
677.51	5492.7	
677.69	7780.2	
677.88	6768.5	
678.06	5595.1	
678.25	5699.5	
678.44	7322.9	
678.62	7032	
678.81	5406.6	
678.99	6322.8	
679.18	8041.7	
679.36	7566.6	
679.55	6004	
679.73	6548	
679.92	7638.2	
680.1	7074.4	
680.29	7139.9	
680.47	5965.7	
680.66	7020.4	
680.84	7830.1	
681.03	5325.4	
681.21	6307.1	
681.4	7037.5	
681.58	6931	
681.77	5704.3	
681.95	5708.4	
682.14	7898.3	
682.32	8208.9	
682.51	6546	
682.69	5461.9	
682.88	7014.3	
683.06	7587	
683.25	6269.5	
683.43	6625.2	
683.62	7337.2	
683.8	7679.9	
683.99	6776.7	
684.17	6152.8	
684.36	8480.6	
684.54	7285.3	
684.73	5419.6	
684.91	5656.5	
685.1	7578.8	
685.28	7025.2	
685.46	6139.1	
685.65	6170.5	
685.83	7784.3	
686.02	7116	
686.2	5578	
686.39	5756.2	
686.57	6950.8	
686.76	8269	
686.94	5710.4	
687.13	5765	
687.31	7538.6	
687.5	7166.5	
687.68	5274.2	
687.86	6479.8	
688.05	8881.4	
688.23	6718	
688.42	6550.1	
688.6	5808.7	
688.79	7163.8	
688.97	7138.5	
689.16	6178	
689.34	5172.5	
689.52	7891.5	
689.71	8095.6	
689.89	6537.1	
690.08	5862.7	
690.26	7456.7	
690.45	7367.9	
690.63	6671.6	
690.81	6015.6	
691	7231.4	
691.18	7149.5	
691.37	6172.6	
691.55	8229.4	
691.74	7195.9	
691.92	9060.2	
692.1	6228.6	
692.29	5706.3	
692.47	7372	
692.66	6793.8	
692.84	5943.2	
693.02	6412.9	
693.21	6882.5	
693.39	7382.9	
693.58	6581.5	
693.76	5971.9	
693.94	8531.2	
694.13	8292.9	
694.31	6032	
694.5	6977.4	
694.68	7232.1	
694.86	7587	
695.05	6380.1	
695.23	6493.4	
695.42	7991.9	
695.6	10210	
695.78	7037.5	
695.97	6133	
696.15	8165.3	
696.34	7559.1	
696.52	5991.7	
696.7	6808.1	
696.89	7830.1	
697.07	7387	
697.25	6725.5	
697.44	8090.8	
697.62	7858.7	
697.81	8210.3	
697.99	6550.1	
698.17	6894.8	
698.36	7380.2	
698.54	7942	
698.72	6848.4	
698.91	5872.9	
699.09	7672.4	
699.28	7441.6	
699.46	6506.4	
699.64	6373.3	
699.83	7374.7	
700.01	8602.2	
700.19	7188.4	
700.38	5702.9	
700.56	8541.4	
700.74	7548.1	
700.93	6152.8	
701.11	6944.7	
701.29	8099.7	
701.48	9151.7	
701.66	6376.7	
701.84	6408.8	
702.03	7740.6	
702.21	8318.2	
702.39	6062	
702.58	6647	
702.76	8172.8	
702.94	8327	
703.13	6094.8	
703.31	8359.1	
703.49	7539.9	
703.68	8970.1	
703.86	6277	
704.04	7174	
704.23	8030.1	
704.41	8432.9	
704.59	6457.2	
704.78	7571.3	
704.96	9031.5	
705.14	8506.6	
705.33	6287.9	
705.51	6972.7	
705.69	7983	
705.87	8649.3	
706.06	7300.3	
706.24	6247.7	
706.42	8237.6	
706.61	8566	
706.79	7380.9	
706.97	6246.3	
707.16	7821.2	
707.34	8366	
707.52	7339.9	
707.7	6582.9	
707.89	7917.4	
708.07	7644.4	
708.25	7350.8	
708.44	7842.4	
708.62	7945.4	
708.8	8893.6	
708.98	7613	
709.17	6714.6	
709.35	8357.8	
709.53	8381	
709.72	6379.4	
709.9	6853.9	
710.08	8589.2	
710.26	8669.1	
710.45	7925	
710.63	6629.3	
710.81	8215.8	
710.99	8213.7	
711.18	7247.8	
711.36	6804	
711.54	8079.2	
711.72	8861.6	
711.91	6935.1	
712.09	6346.7	
712.27	8232.8	
712.45	9153.1	
712.64	7141.9	
712.82	6194.4	
713	7722.9	
713.18	7856.7	
713.37	6278.4	
713.55	7423.2	
713.73	8619.9	
713.91	7331.7	
714.1	6580.1	
714.28	6034	
714.46	8208.3	
714.64	7404.1	
714.83	5479.7	
715.01	6176	
715.19	7413	
715.37	6790.4	
715.55	5840.1	
715.74	6057.9	
715.92	8220.5	
716.1	6385.6	
716.28	7128.3	
716.47	6211.5	
716.65	6961	
716.83	7062.1	
717.01	6074.3	
717.19	6136.4	
717.38	8974.2	
717.56	6803.4	
717.74	6285.9	
717.92	5474.2	
718.1	7843.7	
718.29	7204.8	
718.47	5177.9	
718.65	5806.7	
718.83	7923.6	
719.01	7787.7	
719.2	5259.2	
719.38	6176.7	
719.56	7676.5	
719.74	9121.7	
719.92	5909.1	
720.11	6860.7	
720.29	7631.4	
720.47	6899.6	
720.65	5435.3	
720.83	6235.4	
721.02	7177.4	
721.2	6969.2	
721.38	6202.6	
721.56	5487.2	
721.74	6354.2	
721.92	6554.9	
722.11	6645.7	
722.29	6313.2	
722.47	7742.7	
722.65	6956.9	
722.83	5524.1	
723.01	6273.6	
723.2	6973.3	
723.38	7229.3	
723.56	5031.2	
723.74	6022.4	
723.92	6604	
724.1	7658.7	
724.29	5451	
724.47	6501.6	
724.65	6567.2	
724.83	6541.9	
725.01	5292.6	
725.19	6156.9	
725.37	6599.2	
725.56	6630.6	
725.74	5173.9	
725.92	5445.5	
726.1	6538.5	
726.28	6912.6	
726.46	5832.6	
726.64	5530.2	
726.83	6810.2	
727.01	6958.3	
727.19	5233.2	
727.37	5953.4	
727.55	6967.2	
727.73	7395.9	
727.91	5074.9	
728.09	5037.3	
728.28	7387	
728.46	7856	
728.64	6023.8	
728.82	5933.6	
729	8458.8	
729.18	7624.6	
729.36	5217.5	
729.54	7436.2	
729.72	8626	
729.91	7111.9	
730.09	7084.6	
730.27	5968.5	
730.45	7048.4	
730.63	7556.3	
730.81	6455.9	
730.99	5661.3	
731.17	8103.1	
731.35	6750.8	
731.53	6158.2	
731.71	5778.7	
731.9	7809.6	
732.08	7951.6	
732.26	5952.8	
732.44	5699.5	
732.62	8069	
732.8	7528.3	
732.98	6369.9	
733.16	5453.7	
733.34	7438.2	
733.52	6384.2	
733.7	5901.6	
733.88	6208.8	
734.07	7309.9	
734.25	7076.4	
734.43	5413.5	
734.61	6900.3	
734.79	8587.8	
734.97	6981.5	
735.15	5530.9	
735.33	5858.6	
735.51	7288.7	
735.69	7000.6	
735.87	6828.6	
736.05	5977.3	
736.23	7156.3	
736.41	6870.9	
736.59	5823.7	
736.77	5981.4	
736.95	7557.7	
737.13	7003.4	
737.32	5449	
737.5	5719.3	
737.68	7990.5	
737.86	6881.2	
738.04	5221.6	
738.22	7026.6	
738.4	6693.4	
738.58	6912.6	
738.76	5830.6	
738.94	4901.5	
739.12	6776	
739.3	6710.5	
739.48	6410.1	
739.66	6111.8	
739.84	7012.9	
740.02	6918	
740.2	4958.8	
740.38	5225.1	
740.56	7352.2	
740.74	6272.9	
740.92	5829.2	
741.1	5732.3	
741.28	6802	
741.46	6664.8	
741.64	5378	
741.82	5930.9	
742	6802	
742.18	6832	
742.36	5642.8	
742.54	5182.7	
742.72	7293.5	
742.9	6114.6	
743.08	6027.9	
743.26	4872.8	
743.44	7435.5	
743.62	7303.1	
743.8	6094.8	
743.98	5192.3	
744.16	7050.5	
744.34	6699.6	
744.52	5896.8	
744.7	5813.5	
744.88	7167.2	
745.06	6688.7	
745.24	5868.8	
745.42	6010.1	
745.6	7186.3	
745.78	6726.2	
745.96	4824.3	
746.14	5155.4	
746.32	7916.8	
746.5	7093.5	
746.68	5615.5	
746.86	5087.2	
747.03	7561.8	
747.21	5939.1	
747.39	5554.8	
747.57	5112.4	
747.75	6794.5	
747.93	7105.8	
748.11	5052.3	
748.29	5003.9	
748.47	8197.3	
748.65	6482.5	
748.83	5716.6	
749.01	5542.5	
749.19	6891.4	
749.37	6139.8	
749.55	5380	
749.73	5446.2	
749.91	6597.9	
750.09	6320.7	
750.26	5429.2	
750.44	4888.5	
750.62	6603.3	
750.8	6593.8	
750.98	4684.4	
751.16	5055.1	
751.34	6696.2	
751.52	6064.7	
751.7	5768.4	
751.88	4753.3	
752.06	7072.3	
752.24	6936.5	
752.42	4622.9	
752.59	4977.9	
752.77	6513.9	
752.95	7648.5	
753.13	5714.5	
753.31	5137.7	
753.49	6257.9	
753.67	6679.8	
753.85	5323.4	
754.03	4876.2	
754.21	6919.4	
754.38	7155.6	
754.56	5012.7	
754.74	4219.5	
754.92	6080.4	
755.1	6744.6	
755.28	4151.2	
755.46	4188.8	
755.64	7391.1	
755.82	7470.3	
755.99	4351.9	
756.17	4439.3	
756.35	5093.3	
756.53	6556.2	
756.71	3409.9	
756.89	4235.2	
757.07	6126.2	
757.25	5277.6	
757.42	4739	
757.6	5597.8	
757.78	6191	
757.96	5356.8	
758.14	4494.6	
758.32	4051.6	
758.5	4923.3	
758.67	5635.3	
758.85	4300.1	
759.03	4487.1	
759.21	5874.3	
759.39	5317.9	
759.57	3912.3	
759.75	5015.5	
759.92	6460	
760.1	5770.5	
760.28	5334.3	
760.46	5613.5	
760.64	5592.3	
760.82	5395	
760.99	5236	
761.17	4498.7	
761.35	6324.8	
761.53	5447.6	
761.71	4569.7	
761.89	5236.7	
762.06	6194.4	
762.24	5771.2	
762.42	4686.4	
762.6	4483	
762.78	5769.8	
762.96	6417.7	
763.13	5033.9	
763.31	4748.6	
763.49	6548.7	
763.67	5739.8	
763.85	5489.2	
764.02	6017.6	
764.2	6817.7	
764.38	5961.6	
764.56	4540.3	
764.74	5401.9	
764.91	6879.1	
765.09	5928.9	
765.27	4276.2	
765.45	4115.1	
765.63	6933.7	
765.8	6793.8	
765.98	3820.8	
766.16	4178.5	
766.34	5406	
766.52	5291.3	
766.69	5056.4	
766.87	4033.1	
767.05	5798.5	
767.23	6528.9	
767.41	4220.9	
767.58	4574.5	
767.76	6317.3	
767.94	6384.9	
768.12	4368.3	
768.29	4995.7	
768.47	5825.1	
768.65	6509.8	
768.83	4010.6	
769	5107	
769.18	5415.5	
769.36	6057.2	
769.54	4963.6	
769.72	4029.7	
769.89	6329.6	
770.07	6339.1	
770.25	4314.4	
770.43	5584.8	
770.6	7118.7	
770.78	7419.1	
770.96	4524.6	
771.14	5081.7	
771.31	6215.6	
771.49	5582.8	
771.67	3752.6	
771.85	3932.1	
772.02	4911	
772.2	5646.2	
772.38	4696.7	
772.55	4147.8	
772.73	5859.2	
772.91	5661.3	
773.09	4512.4	
773.26	4578.6	
773.44	5833.3	
773.62	5563.6	
773.8	4043.4	
773.97	3755.3	
774.15	5940.5	
774.33	5564.3	
774.5	3935.5	
774.68	4298	
774.86	6026.5	
775.04	5540.4	
775.21	4014.7	
775.39	4011.3	
775.57	5810.1	
775.74	6141.9	
775.92	3848.1	
776.1	3708.9	
776.27	5751.4	
776.45	6937.2	
776.63	4016.7	
776.81	3566.2	
776.98	5421	
777.16	6453.1	
777.34	4175.1	
777.51	4386.7	
777.69	5374.6	
777.87	5248.3	
778.04	4134.2	
778.22	4768.4	
778.4	5253	
778.57	5864.7	
778.75	3472	
778.93	3739.6	
779.1	5057.1	
779.28	4947.9	
779.46	3452.2	
779.64	3989.4	
779.81	5944.6	
779.99	6796.5	
780.17	4678.9	
780.34	4801.1	
780.52	5500.8	
780.69	5593	
780.87	4214.7	
781.05	3827	
781.22	5464	
781.4	5565	
781.58	3990.8	
781.75	3174.4	
781.93	5555.5	
782.11	4990.2	
782.28	4718.5	
782.46	3923.2	
782.64	4857.1	
782.81	5663.3	
782.99	4027.7	
783.17	3968.3	
783.34	5593.7	
783.52	4894	
783.69	4141	
783.87	4938.3	
784.05	4963.6	
784.22	4970.4	
784.4	4922	
784.58	4199	
784.75	5847.6	
784.93	5031.9	
785.1	3956	
785.28	4512.4	
785.46	5616.9	
785.63	4911	
785.81	3915.7	
785.99	3764.2	
786.16	5100.8	
786.34	5523.4	
786.51	3786	
786.69	4284.4	
786.87	4676.9	
787.04	5212.8	
787.22	3660.4	
787.39	4554	
787.57	4896	
787.75	6008.7	
787.92	4733.5	
788.1	4672.8	
788.27	5010	
788.45	4715.1	
788.63	4482.3	
788.8	3232.4	
788.98	5429.8	
789.15	4631.8	
789.33	3413.3	
789.5	3934.8	
789.68	5840.8	
789.86	5957.5	
790.03	4319.8	
790.21	3806.5	
790.38	5798.5	
790.56	5120.6	
790.73	3665.9	
790.91	3704.1	
791.09	4962.9	
791.26	5654.4	
791.44	3905.5	
791.61	3411.2	
791.79	4971.8	
791.96	4985.4	
792.14	3489.1	
792.32	3106.1	
792.49	4897.4	
792.67	5057.8	
792.84	3568.9	
793.02	3389.4	
793.19	5372.5	
793.37	6117.3	
793.54	3153.9	
793.72	3427.6	
793.89	6092	
794.07	5021.6	
794.25	3913.7	
794.42	3179.8	
794.6	5912.5	
794.77	5518.6	
794.95	4257.7	
795.12	3724.6	
795.3	4884.4	
795.47	5499.5	
795.65	4128.7	
795.82	3953.3	
796	4786.8	
796.17	6511.9	
796.35	3829	
796.52	4478.9	
796.7	5414.1	
796.87	5543.9	
797.05	4696	
797.22	4566.3	
797.4	5558.9	
797.57	6410.1	
797.75	3951.9	
797.92	3756	
798.1	5810.1	
798.27	4884.4	
798.45	3170.9	
798.62	3430.3	
798.8	5225.7	
798.97	5656.5	
799.15	4193.6	
799.32	3962.1	
799.5	4541	
799.67	5324	
799.85	4259.8	
800.02	3115	
800.2	4941.7	
800.37	5182	
800.55	4429.8	
800.72	3647.4	
800.9	5642.2	
801.07	6019.7	
801.25	4967.7	
801.42	4125.3	
801.6	5706.3	
801.77	5362.3	
801.95	3726.6	
802.12	3575.1	
802.29	5422.3	
802.47	5330.2	
802.64	4027	
802.82	3099.9	
802.99	4866.7	
803.17	5842.2	
803.34	3932.8	
803.52	3560.1	
803.69	6418.3	
803.87	4672.1	
804.04	3874.1	
804.21	4044.7	
804.39	5917.3	
804.56	5020.3	
804.74	3388.7	
804.91	4095.3	
805.09	4906.3	
805.26	5012.7	
805.44	3450.8	
805.61	3731.4	
805.78	5500.2	
805.96	5574.6	
806.13	4064.5	
806.31	4330.1	
806.48	4456.4	
806.66	4974.5	
806.83	4044.1	
807	3971.7	
807.18	4870.8	
807.35	5247.6	
807.53	3732.1	
807.7	3178.4	
807.87	5963.7	
808.05	4950.6	
808.22	4289.1	
808.4	3160.7	
808.57	4902.8	
808.74	4595	
808.92	3581.2	
809.09	4551.3	
809.27	4831.8	
809.44	5401.9	
809.61	3209.8	
809.79	3579.2	
809.96	5996.5	
810.14	5596.4	
810.31	3173	
810.48	3791.5	
810.66	5045.5	
810.83	5713.8	
811.01	3603.1	
811.18	3990.8	
811.35	5609.4	
811.53	4418.2	
811.7	4346.5	
811.87	4073.4	
812.05	4960.9	
812.22	4842.1	
812.39	3551.9	
812.57	3387.3	
812.74	4951.3	
812.92	6540.5	
813.09	3790.1	
813.26	4158.7	
813.44	6257.2	
813.61	4808.6	
813.78	3205.8	
813.96	4212.7	
814.13	4919.2	
814.3	4632.5	
814.48	4595.6	
814.65	3789.4	
814.82	6329.6	
815	4732.2	
815.17	3988.1	
815.34	4732.9	
815.52	4838	
815.69	4860.5	
815.87	3847.5	
816.04	3375.1	
816.21	4962.9	
816.38	4386.7	
816.56	3745.7	
816.73	3466.5	
816.9	6229.9	
817.08	5625.1	
817.25	3587.4	
817.42	4369	
817.6	4523.3	
817.77	4910.3	
817.94	3958.7	
818.12	3485	
818.29	4736.3	
818.46	7122.8	
818.64	3638.6	
818.81	3374.4	
818.98	4640.7	
819.16	6619	
819.33	4207.9	
819.5	3941.7	
819.67	5291.3	
819.85	5895.4	
820.02	3841.3	
820.19	3981.9	
820.37	5148.6	
820.54	4725.3	
820.71	3945.1	
820.88	4874.8	
821.06	5122.7	
821.23	4743.8	
821.4	3951.2	
821.58	3912.3	
821.75	5614.2	
821.92	5026.4	
822.09	3196.9	
822.27	3261.7	
822.44	4943.1	
822.61	4874.2	
822.79	3225.6	
822.96	6083.8	
823.13	5340.4	
823.3	4631.8	
823.48	3685.7	
823.65	3321.8	
823.82	5629.2	
823.99	4527.4	
824.17	4605.9	
824.34	3442	
824.51	6414.2	
824.68	5024.3	
824.86	3588	
825.03	3965.6	
825.2	4917.9	
825.37	5962.3	
825.55	3508.9	
825.72	3888.4	
825.89	6425.2	
826.06	6031.3	
826.24	3822.9	
826.41	3799.7	
826.58	5911.1	
826.75	5144.5	
826.92	3034.4	
827.1	3323.9	
827.27	8073.1	
827.44	6440.2	
827.61	3595.6	
827.79	4356	
827.96	4657.8	
828.13	5053.7	
828.3	3756	
828.47	3209.2	
828.65	5168.4	
828.82	5113.8	
828.99	4864.6	
829.16	4210.6	
829.34	5587.5	
829.51	5306.3	
829.68	3906.8	
829.85	4020.2	
830.02	5793.7	
830.2	5535.7	
830.37	2998.9	
830.54	4631.8	
830.71	6240.8	
830.88	4913.8	
831.05	3035.8	
831.23	3510.2	
831.4	5990.3	
831.57	6696.2	
831.74	3626.3	
831.91	3249.4	
832.09	5173.2	
832.26	5554.8	
832.43	3668.6	
832.6	4178.5	
832.77	5217.5	
832.94	5887.9	
833.12	3015.3	
833.29	3657	
833.46	4911.7	
833.63	6912.6	
833.8	4028.4	
833.97	3696.6	
834.15	5532.9	
834.32	5309	
834.49	3881.6	
834.66	3947.1	
834.83	5696.1	
835	4681.7	
835.17	3622.2	
835.35	3579.2	
835.52	5453.1	
835.69	5343.2	
835.86	3837.9	
836.03	3148.4	
836.2	5436.7	
836.37	5128.8	
836.55	3709.6	
836.72	3555.3	
836.89	5111	
837.06	5571.8	
837.23	3827.7	
837.4	4089.8	
837.57	6292.7	
837.75	6875	
837.92	3413.3	
838.09	3599.6	
838.26	5080.3	
838.43	5821.7	
838.6	3902.1	
838.77	3448.1	
838.94	6550.1	
839.11	6286.6	
839.29	3738.9	
839.46	2985.3	
839.63	5475.6	
839.8	5240.8	
839.97	3631	
840.14	3666.5	
840.31	5290.6	
840.48	5504.3	
840.65	3056.9	
840.82	3542.3	
841	5448.3	
841.17	5465.3	
841.34	3298.6	
841.51	3422.2	
841.68	5436	
841.85	5217.5	
842.02	3504.1	
842.19	2880.8	
842.36	5266	
842.53	5271.5	
842.7	3375.7	
842.87	4106.2	
843.05	6787	
843.22	5231.2	
843.39	3172.3	
843.56	3467.9	
843.73	4967	
843.9	5548.6	
844.07	5392.3	
844.24	4456.4	
844.41	7881.9	
844.58	4773.1	
844.75	3190.7	
844.92	3515.7	
845.09	5494	
845.26	5524.1	
845.43	3278.8	
845.6	3566.2	
845.77	5522.7	
845.94	5233.2	
846.12	3644	
846.29	3892.5	
846.46	5701.5	
846.63	5486.5	
846.8	3315	
846.97	3962.8	
847.14	5900.2	
847.31	5457.2	
847.48	3777.1	
847.65	4098.7	
847.82	5765	
847.99	5724.8	
848.16	4451.6	
848.33	4105.5	
848.5	5066.7	
848.67	5946.6	
848.84	3345	
849.01	3475.4	
849.18	4970.4	
849.35	4698	
849.52	4127.3	
849.69	3257.6	
849.86	5666.7	
850.03	5826.5	
850.2	3328.6	
850.37	4006.5	
850.54	5833.3	
850.71	5161.6	
850.88	3996.3	
851.05	3262.4	
851.22	5417.6	
851.39	5997.8	
851.56	3114.3	
851.73	3846.1	
851.9	4797.7	
852.07	5701.5	
852.24	3673.4	
852.41	3291.1	
852.58	5368.4	
852.75	4878.9	
852.92	3670	
853.09	3215.3	
853.26	5109.7	
853.43	5878.4	
853.6	3274	
853.77	2863.1	
853.94	5988.3	
854.11	5409.4	
854.28	4748.6	
854.44	3517	
854.61	6406	
854.78	5756.2	
854.95	3283.6	
855.12	4175.8	
855.29	4475.5	
855.46	6301.6	
855.63	3274.7	
855.8	4506.9	
855.97	5081.7	
856.14	5841.5	
856.31	4679.6	
856.48	3633.8	
856.65	5128.1	
856.82	4799.1	
856.99	3214.6	
857.16	3562.8	
857.33	6586.3	
857.49	5199.8	
857.66	3611.3	
857.83	3812	
858	5107.6	
858.17	5309.7	
858.34	3132.7	
858.51	3304.7	
858.68	6095.4	
858.85	6163.7	
859.02	3824.2	
859.19	4108.2	
859.36	4827.1	
859.52	4815.5	
859.69	3373.7	
859.86	3918.4	
860.03	4876.2	
860.2	5941.2	
860.37	3059.7	
860.54	3328.6	
860.71	5645.6	
860.88	6087.2	
861.05	3673.4	
861.21	4173.1	
861.38	6087.9	
861.55	4734.2	
861.72	3028.9	
861.89	3644.7	
862.06	5731.6	
862.23	6133	
862.4	3232.4	
862.56	3406.5	
862.73	5528.8	
862.9	5283.8	
863.07	3848.8	
863.24	3012.6	
863.41	4711.7	
863.58	4869.4	
863.75	3351.2	
863.91	3796.9	
864.08	6038.8	
864.25	5651	
864.42	4139.6	
864.59	4642.1	
864.76	6331	
864.93	4857.1	
865.09	3224.2	
865.26	3517	
865.43	5902.9	
865.6	6258.6	
865.77	2929.3	
865.94	3274	
866.1	5902.9	
866.27	5754.8	
866.44	4931.5	
866.61	3150.5	
866.78	5189.6	
866.95	5614.2	
867.11	3198.9	
867.28	2953.2	
867.45	5742.5	
867.62	4891.2	
867.79	3768.3	
867.96	3277.4	
868.12	4816.1	
868.29	5715.9	
868.46	2852.1	
868.63	4334.2	
868.8	5864	
868.97	5613.5	
869.13	3476.8	
869.3	3459	
869.47	5511.1	
869.64	5741.1	
869.81	3337.5	
869.97	3291.8	
870.14	5414.1	
870.31	6062	
870.48	3180.5	
870.65	4164.9	
870.81	5157.5	
870.98	5213.4	
871.15	3740.3	
871.32	3388.7	
871.48	5617.6	
871.65	6098.2	
871.82	3304.7	
871.99	3590.8	
872.16	6518.7	
872.32	5954.1	
872.49	3357.3	
872.66	3335.5	
872.83	5679.7	
872.99	4997.7	
873.16	3784	
873.33	3248.1	
873.5	5341.1	
873.67	5361.6	
873.83	3482.9	
874	4397.7	
874.17	5472.9	
874.34	6427.9	
874.5	4277.5	
874.67	4080.2	
874.84	6126.2	
875.01	4790.2	
875.17	4684.4	
875.34	3290.4	
875.51	5358.2	
875.68	6451.8	
875.84	3966.2	
876.01	4866	
876.18	5576.6	
876.34	5568.4	
876.51	3268.6	
876.68	3231.7	
876.85	5167	
877.01	5916.6	
877.18	4672.1	
877.35	3233.1	
877.52	5312.4	
877.68	4756.7	
877.85	3209.8	
878.02	3277.4	
878.18	5271.5	
878.35	5001.1	
878.52	2680.8	
878.69	3699.3	
878.85	5708.4	
879.02	5643.5	
879.19	4661.2	
879.35	3553.2	
879.52	5606	
879.69	5813.5	
879.86	2870.6	
880.02	3633.8	
880.19	5219.6	
880.36	6385.6	
880.52	3818.8	
880.69	3906.8	
880.86	5739.8	
881.02	5788.2	
881.19	3646.7	
881.36	3584.6	
881.52	5579.3	
881.69	5047.6	
881.86	3590.8	
882.02	3490.4	
882.19	5866.1	
882.36	6883.9	
882.52	3373.7	
882.69	4615.4	
882.86	5480.4	
883.02	5342.5	
883.19	4020.2	
883.36	3781.9	
883.52	5697.4	
883.69	6550.8	
883.86	3375.7	
884.02	2998.9	
884.19	5696.1	
884.36	5285.1	
884.52	3717.1	
884.69	3547.8	
884.86	5040.1	
885.02	6244.3	
885.19	3705.5	
885.36	3784.6	
885.52	5271.5	
885.69	5426.4	
885.86	4723.3	
886.02	4163.5	
886.19	5664	
886.35	5136.3	
886.52	3638.6	
886.69	4594.3	
886.85	4891.2	
887.02	6000.5	
887.19	6000.5	
887.35	6000.5	
887.52	6000.5	
887.68	6000.5	
887.85	6000.5	
888.02	6000.5	
888.18	6000.5	
888.35	6000.5	
888.51	6000.5	
888.68	6000.5	
888.85	6000.5	
889.01	6000.5	
889.18	6000.5	
889.35	6000.5	
889.51	6000.5	
889.68	6000.5	
889.84	6000.5	
890.01	6000.5	
890.17	6000.5	
890.34	6000.5	
890.51	6000.5	
890.67	6000.5	
890.84	6000.5	
891	6000.5	
891.17	6000.5	
891.34	6000.5	
891.5	6000.5	
891.67	6000.5	
891.83	6000.5	
892	6000.5	
892.16	6000.5	
892.33	6000.5	
892.5	6000.5	
892.66	6000.5	
892.83	6000.5	
892.99	6000.5	
893.16	6000.5	
893.32	6000.5	
893.49	6000.5	
893.65	6000.5	
893.82	6000.5	
893.99	6000.5	
894.15	6000.5	
894.32	6000.5	
894.48	6000.5	
894.65	6000.5	
894.81	6000.5	
894.98	6000.5	
895.14	6000.5	
895.31	6000.5	
895.47	6000.5	
895.64	6000.5	
895.81	6000.5	
895.97	6000.5	
896.14	6000.5	
896.3	6000.5	
896.47	6000.5	
896.63	6000.5	
896.8	6000.5	
896.96	6000.5	
897.13	6000.5	
897.29	6000.5	
897.46	6000.5	
897.62	6000.5	
897.79	6000.5	
897.95	6000.5	
898.12	6000.5	
898.28	6000.5	
898.45	6000.5	
898.61	6000.5	
898.78	6000.5	
898.94	6000.5	
899.11	6000.5	
899.27	6000.5	
899.44	6000.5	
899.6	6000.5	
899.77	6000.5	
899.93	6000.5	
900.1	6000.5	
900.26	6000.5	
900.43	6000.5	
900.59	6000.5	
900.76	6000.5	
900.92	6000.5	
901.09	6000.5	
901.25	6000.5	
901.42	6000.5	
901.58	6000.5	
901.75	6000.5	
901.91	6000.5	
902.07	6000.5	
902.24	6000.5	
902.4	6000.5	
902.57	6000.5	
902.73	6000.5	
902.9	6000.5	
903.06	6000.5	
903.23	6000.5	
903.39	6000.5	
903.56	6000.5	
903.72	6000.5	
903.88	6000.5	
904.05	6000.5	
904.21	6000.5	
904.38	6000.5	
904.54	6000.5	
904.71	6000.5	
904.87	6000.5	
905.03	6000.5	
905.2	6000.5	
905.36	6000.5	
905.53	6000.5	
905.69	6000.5	
905.86	6000.5	
906.02	6000.5	
906.18	6000.5	
906.35	6000.5	
906.51	6000.5	
906.68	6000.5	
906.84	6000.5	
907.01	6000.5	
907.17	6000.5	
907.33	6000.5	
907.5	6000.5	
907.66	6000.5	
907.83	6000.5	
907.99	6000.5	
908.15	6000.5	
908.32	6000.5	
908.48	6000.5	
908.65	6000.5	
908.81	6000.5	
908.97	6000.5	
909.14	6000.5	
909.3	6000.5	
909.47	6000.5	
909.63	6000.5	
909.79	6000.5	
909.96	6000.5	
910.12	6000.5	
910.28	6000.5	
910.45	6000.5	
910.61	6000.5	
910.78	6000.5	
910.94	6000.5	
911.1	6000.5	
911.27	6000.5	
911.43	6000.5	
911.59	6000.5	
911.76	6000.5	
911.92	6000.5	
912.08	6000.5	
912.25	6000.5	
912.41	6000.5	
912.57	6000.5	
912.74	6000.5	
912.9	6000.5	
913.07	6000.5	
913.23	6000.5	
913.39	6000.5	
913.56	6000.5	
913.72	6000.5	
913.88	6000.5	
914.05	6000.5	
914.21	6000.5	
914.37	6000.5	
914.54	6000.5	
914.7	6000.5	
914.86	6000.5	
915.03	6000.5	
915.19	6000.5	
