Wavelength	Intensities	
nm	a.u.	
179.22	1879.2	
179.44	1877	
179.65	1881.4	
179.86	1872.5	
180.08	1871.8	
180.29	4760.8	
180.51	3431	
180.72	5568.4	
180.94	6492.7	
181.15	3216	
181.37	3089.7	
181.58	5414.1	
181.79	5711.8	
182.01	3342.3	
182.22	3530.7	
182.44	5666.7	
182.65	4803.2	
182.87	4424.3	
183.08	3952.6	
183.29	5991.7	
183.51	4926	
183.72	3621.5	
183.94	5241.4	
184.15	5347.2	
184.37	5327.4	
184.58	3204.4	
184.79	4332.1	
185.01	4976.6	
185.22	5694.7	
185.44	4621.6	
185.65	3865.2	
185.86	5273.5	
186.08	4818.2	
186.29	3104	
186.51	3382.6	
186.72	4954	
186.94	5838.8	
187.15	3810.6	
187.36	3983.3	
187.58	7639.6	
187.79	5421.7	
188.01	4149.9	
188.22	6419.7	
188.43	6564.4	
188.65	5638.7	
188.86	3300	
189.08	3951.2	
189.29	5146.5	
189.5	5177.9	
189.72	3683.6	
189.93	3749.8	
190.15	5898.1	
190.36	7068.9	
190.57	4042	
190.79	3942.3	
191	5961	
191.22	5906.3	
191.43	4033.8	
191.64	3338.9	
191.86	6210.8	
192.07	5922	
192.29	3522.5	
192.5	3704.1	
192.71	5896.1	
192.93	5158.8	
193.14	3621.5	
193.35	3764.2	
193.57	5162.9	
193.78	5937.1	
194	2962.7	
194.21	3556	
194.42	4943.1	
194.64	5365.7	
194.85	3965.6	
195.07	4660.5	
195.28	5375.2	
195.49	4687.1	
195.71	4922	
195.92	3391.4	
196.13	5551.4	
196.35	5740.5	
196.56	5195.7	
196.78	4027.7	
196.99	6968.6	
197.2	6535.1	
197.42	4497.3	
197.63	4052.9	
197.84	4801.8	
198.06	5518.6	
198.27	3640.6	
198.48	4934.2	
198.7	5102.2	
198.91	5247.6	
199.13	4039.3	
199.34	3984	
199.55	5788.2	
199.77	4660.5	
199.98	3540.3	
200.19	4063.9	
200.41	5284.4	
200.62	4958.8	
200.83	4199	
201.05	4443.4	
201.26	5306.3	
201.47	4981.3	
201.69	3548.4	
201.9	3412.6	
202.11	5350.7	
202.33	6338.5	
202.54	3787.4	
202.76	4219.5	
202.97	5498.1	
203.18	5457.8	
203.4	4132.8	
203.61	4024.9	
203.82	5463.3	
204.04	5019.6	
204.25	4068.6	
204.46	3915.7	
204.68	5410.1	
204.89	5552.7	
205.1	3917.1	
205.32	3362.8	
205.53	5786.9	
205.74	5911.1	
205.96	2864.4	
206.17	4080.9	
206.38	5784.8	
206.6	5777.3	
206.81	4622.9	
207.02	3751.9	
207.24	5582.8	
207.45	6059.9	
207.66	3852.9	
207.88	3273.3	
208.09	5533.6	
208.3	5388.9	
208.52	3539.6	
208.73	3817.4	
208.94	5377.3	
209.15	6073.6	
209.37	3826.3	
209.58	4038.6	
209.79	5880.4	
210.01	5159.5	
210.22	3108.8	
210.43	3211.9	
210.65	5342.5	
210.86	5739.1	
211.07	3834.5	
211.29	3469.3	
211.5	5662	
211.71	5317.2	
211.93	3426.3	
212.14	3499.3	
212.35	5289.2	
212.56	5567.1	
212.78	4046.1	
212.99	3257	
213.2	6379.4	
213.42	5117.2	
213.63	3607.2	
213.84	3871.3	
214.06	4805.9	
214.27	4887.8	
214.48	3758.7	
214.69	4035.2	
214.91	6010.1	
215.12	6105	
215.33	4095.3	
215.55	4517.1	
215.76	6641.6	
215.97	5738.4	
216.18	3953.3	
216.4	3842.7	
216.61	5063.3	
216.82	5829.2	
217.04	3563.5	
217.25	3645.4	
217.46	5969.1	
217.67	5780.1	
217.89	3145.7	
218.1	3316.3	
218.31	5497.4	
218.53	5568.4	
218.74	3695.9	
218.95	3588.7	
219.16	5308.3	
219.38	6219.7	
219.59	3626.3	
219.8	4270	
220.01	6949.4	
220.23	5337	
220.44	4658.4	
220.65	3515	
220.87	5445.5	
221.08	6032	
221.29	3283.6	
221.5	4318.5	
221.72	7347.4	
221.93	5102.2	
222.14	4005.8	
222.35	4692.6	
222.57	5354.1	
222.78	5730.2	
222.99	3838.6	
223.2	4099.4	
223.42	5629.2	
223.63	5803.9	
223.84	2997.5	
224.05	2930	
224.27	6827.9	
224.48	6248.4	
224.69	4718.5	
224.9	4003.1	
225.12	5533.6	
225.33	5306.3	
225.54	3239.2	
225.75	3594.2	
225.97	4929.5	
226.18	5209.3	
226.39	3872	
226.6	3611.9	
226.82	5108.3	
227.03	4979.3	
227.24	4016.7	
227.45	3372.3	
227.67	5727.5	
227.88	6283.9	
228.09	4488.5	
228.3	4491.2	
228.52	5806.7	
228.73	5360.2	
228.94	3754.6	
229.15	3331.4	
229.36	5236	
229.58	5208.7	
229.79	3775.1	
230	4388.1	
230.21	6384.2	
230.43	5473.5	
230.64	3942.3	
230.85	4148.5	
231.06	5774.6	
231.28	5781.4	
231.49	3349.1	
231.7	3903.4	
231.91	5670.1	
232.12	5390.3	
232.34	3386	
232.55	3881.6	
232.76	5961	
232.97	5543.2	
233.18	3476.8	
233.4	3916.4	
233.61	5560.2	
233.82	5079.6	
234.03	3661.8	
234.25	3603.1	
234.46	7354.3	
234.67	5408	
234.88	4087.7	
235.09	3540.9	
235.31	5687.2	
235.52	5276.9	
235.73	4034.5	
235.94	3346.4	
236.15	5118.6	
236.37	6505.7	
236.58	3556.6	
236.79	3889.1	
237	5658.5	
237.21	4913.1	
237.43	4170.3	
237.64	3265.1	
237.85	9591.3	
238.06	4947.9	
238.27	4149.9	
238.48	3394.8	
238.7	5688.6	
238.91	5253	
239.12	3858.4	
239.33	3839.9	
239.54	4993.6	
239.76	5330.9	
239.97	3823.6	
240.18	3799	
240.39	6653.2	
240.6	5634	
240.82	4001.7	
241.03	3247.4	
241.24	5388.9	
241.45	6253.8	
241.66	3451.5	
241.87	4167.6	
242.09	6113.2	
242.3	6449.7	
242.51	4169.7	
242.72	3902.7	
242.93	5799.2	
243.14	5305.6	
243.36	4457.7	
243.57	4794.3	
243.78	6210.1	
243.99	5730.9	
244.2	3837.2	
244.41	3482.9	
244.63	4987.5	
244.84	5634.6	
245.05	4107.5	
245.26	3833.8	
245.47	5640.8	
245.68	5954.1	
245.9	5124	
246.11	3975.8	
246.32	5149.3	
246.53	5653.1	
246.74	6168.5	
246.95	3238.5	
247.16	4885.1	
247.38	5375.2	
247.59	3225.6	
247.8	3853.6	
248.01	5029.1	
248.22	5300.1	
248.43	3493.8	
248.64	3749.1	
248.86	4790.9	
249.07	5120.6	
249.28	3398.3	
249.49	3940.3	
249.7	5859.2	
249.91	6044.9	
250.12	3201.7	
250.34	3257	
250.55	5493.3	
250.76	5367	
250.97	4005.8	
251.18	4082.3	
251.39	6072.2	
251.6	5576.6	
251.81	4055	
252.03	4041.3	
252.24	5084.4	
252.45	5884.5	
252.66	3353.2	
252.87	4274.8	
253.08	5380	
253.29	7049.1	
253.5	3315	
253.72	4695.3	
253.93	5160.9	
254.14	6350.1	
254.35	3662.5	
254.56	3753.9	
254.77	5625.1	
254.98	4990.2	
255.19	3628.3	
255.41	4658.4	
255.62	5453.7	
255.83	5948.7	
256.04	4130.1	
256.25	4001	
256.46	6599.2	
256.67	5046.9	
256.88	3953.9	
257.09	4412.7	
257.31	5130.2	
257.52	5059.8	
257.73	4968.4	
257.94	3596.9	
258.15	5187.5	
258.36	5418.9	
258.57	4591.5	
258.78	2962	
258.99	5829.9	
259.2	5206.6	
259.41	3673.4	
259.63	3765.5	
259.84	6179.4	
260.05	6700.3	
260.26	4812.7	
260.47	3588.7	
260.68	5965.7	
260.89	5322.7	
261.1	4402.5	
261.31	3500.7	
261.52	5908.4	
261.73	6292.7	
261.95	4702.1	
262.16	4184	
262.37	6086.6	
262.58	6167.8	
262.79	4671.4	
263	3764.2	
263.21	5356.1	
263.42	4906.3	
263.63	3787.4	
263.84	3717.7	
264.05	5945.9	
264.26	6285.9	
264.47	4647.5	
264.69	4150.5	
264.9	6012.2	
265.11	5551.4	
265.32	3565.5	
265.53	3665.9	
265.74	5489.2	
265.95	4835.9	
266.16	3848.1	
266.37	4271.4	
266.58	5440.1	
266.79	5212.8	
267	3662.5	
267.21	3407.1	
267.42	4958.8	
267.63	5401.2	
267.84	3880.2	
268.06	3306.8	
268.27	5824.4	
268.48	6045.6	
268.69	3686.3	
268.9	4459.8	
269.11	6073.6	
269.32	4871.4	
269.53	3840.6	
269.74	3568.2	
269.95	5691.3	
270.16	4797	
270.37	3843.4	
270.58	4444.1	
270.79	5258.5	
271	5913.9	
271.21	4057	
271.42	3844	
271.63	5458.5	
271.84	5000.5	
272.05	3103.4	
272.26	3435.8	
272.47	5386.8	
272.68	5570.5	
272.89	3697.9	
273.11	4310.3	
273.32	5188.2	
273.53	6386.9	
273.74	4156	
273.95	4044.1	
274.16	5915.9	
274.37	5472.9	
274.58	4215.4	
274.79	3411.2	
275	5496.1	
275.21	6050.4	
275.42	5048.9	
275.63	4302.1	
275.84	5633.3	
276.05	7070.3	
276.26	3988.1	
276.47	3773	
276.68	5270.8	
276.89	6363	
277.1	4358.1	
277.31	3438.5	
277.52	5616.2	
277.73	5823.1	
277.94	3364.1	
278.15	3751.2	
278.36	5638.7	
278.57	5061.2	
278.78	3654.9	
278.99	4147.1	
279.2	4984.8	
279.41	4985.4	
279.62	4829.8	
279.83	3419.4	
280.04	6578.1	
280.25	4915.1	
280.46	4767	
280.67	3840.6	
280.88	4992.3	
281.09	6077.7	
281.3	4061.1	
281.51	5103.5	
281.72	5878.4	
281.93	5885.2	
282.14	3661.8	
282.35	3911.6	
282.56	5848.3	
282.77	5870.8	
282.98	3704.1	
283.19	4540.3	
283.4	7116	
283.61	5347.2	
283.82	3293.1	
284.03	4751.3	
284.24	5514.5	
284.45	5976	
284.66	4792.2	
284.87	4590.9	
285.08	5948	
285.29	6079.7	
285.5	3309.5	
285.71	3756	
285.92	5982.8	
286.12	6651.1	
286.33	4769	
286.54	3763.5	
286.75	5853.8	
286.96	5283.8	
287.17	3434.4	
287.38	4655.7	
287.59	5033.2	
287.8	4986.1	
288.01	3812.6	
288.22	4310.3	
288.43	5865.4	
288.64	4885.8	
288.85	4536.9	
289.06	4244.8	
289.27	5810.8	
289.48	6259.3	
289.69	4769.7	
289.9	4317.1	
290.11	6007.4	
290.32	5129.5	
290.53	4504.2	
290.74	4182	
290.94	5775.3	
291.15	6035.4	
291.36	3635.8	
291.57	4329.4	
291.78	5124	
291.99	4816.1	
292.2	3546.4	
292.41	4207.9	
292.62	5917.3	
292.83	5732.3	
293.04	5179.3	
293.25	3517.7	
293.46	5161.6	
293.67	6016.2	
293.88	3600.3	
294.09	3470.6	
294.29	4907.6	
294.5	5481.7	
294.71	3827	
294.92	3665.9	
295.13	5223.7	
295.34	6498.9	
295.55	3239.2	
295.76	3340.9	
295.97	5801.9	
296.18	6554.9	
296.39	3472	
296.6	3605.8	
296.81	5532.2	
297.01	5788.9	
297.22	3765.5	
297.43	3592.1	
297.64	5044.8	
297.85	5011.4	
298.06	2974.3	
298.27	3283.6	
298.48	5473.5	
298.69	5086.5	
298.9	3874.8	
299.11	3528	
299.31	4937	
299.52	4980.7	
299.73	4238.6	
299.94	4126	
300.15	5396.4	
300.36	5011.4	
300.57	4137.6	
300.78	4107.5	
300.99	5238.7	
301.2	5489.2	
301.4	3573	
301.61	3843.4	
301.82	5732.9	
302.03	5827.8	
302.24	4355.3	
302.45	3416.7	
302.66	5682.4	
302.87	6116.6	
303.08	3657.7	
303.29	4954	
303.49	5124.7	
303.7	5420.3	
303.91	3211.9	
304.12	4715.8	
304.33	4872.1	
304.54	5528.8	
304.75	3644	
304.96	3489.1	
305.16	5721.3	
305.37	6356.2	
305.58	3139.5	
305.79	3343	
306	5671.5	
306.21	4825	
306.42	3676.1	
306.63	5567.7	
306.83	5238	
307.04	6016.9	
307.25	3923.9	
307.46	3941.7	
307.67	4617.5	
307.88	5819	
308.09	3512.9	
308.29	3749.8	
308.5	5468.8	
308.71	5969.8	
308.92	3870	
309.13	3503.4	
309.34	5309.7	
309.55	5289.9	
309.75	4476.2	
309.96	4086.4	
310.17	5827.8	
310.38	5098.8	
310.59	4334.9	
310.8	4114.4	
311.01	5223.7	
311.21	5264.6	
311.42	3412.6	
311.63	3621.5	
311.84	5158.8	
312.05	5532.2	
312.26	4002.4	
312.46	4459.8	
312.67	5200.5	
312.88	4914.4	
313.09	3525.9	
313.3	3406.5	
313.51	6167.8	
313.71	6569.9	
313.92	3533.4	
314.13	3715	
314.34	5549.3	
314.55	5354.8	
314.76	4514.4	
314.96	3944.4	
315.17	5483.8	
315.38	5789.6	
315.59	3508.2	
315.8	3321.8	
316.01	6212.9	
316.21	6275.7	
316.42	3400.3	
316.63	3881.6	
316.84	5306.3	
317.05	6071.5	
317.26	4108.2	
317.46	3741	
317.67	5306.3	
317.88	5745.2	
318.09	4453	
318.3	3282.2	
318.5	5107	
318.71	5708.4	
318.92	5554.1	
319.13	4085.7	
319.34	5856.5	
319.54	6032	
319.75	3312.2	
319.96	3140.9	
320.17	5810.1	
320.38	5950	
320.58	3130.7	
320.79	3870.7	
321	5954.1	
321.21	6116.6	
321.42	3842	
321.62	3248.8	
321.83	5005.9	
322.04	5398.4	
322.25	3664.5	
322.46	3552.5	
322.66	5493.3	
322.87	5632.6	
323.08	4379.2	
323.29	3480.2	
323.5	6483.9	
323.7	4947.9	
323.91	4736.3	
324.12	4263.2	
324.33	5454.4	
324.53	5692	
324.74	4115.7	
324.95	4317.1	
325.16	4845.5	
325.37	5211.4	
325.57	3547.8	
325.78	3599.6	
325.99	5447.6	
326.2	4878.3	
326.4	5119.9	
326.61	3258.3	
326.82	5335.6	
327.03	5496.7	
327.24	4986.1	
327.44	4717.2	
327.65	5653.8	
327.86	4642.1	
328.07	4080.9	
328.27	3367.5	
328.48	6103.6	
328.69	4994.3	
328.9	4994.3	
329.1	3729.4	
329.31	5256.5	
329.52	6197.2	
329.73	3564.8	
329.93	3969	
330.14	5359.5	
330.35	5636	
330.56	5717.9	
330.76	4321.2	
330.97	5273.5	
331.18	5563.6	
331.39	3903.4	
331.59	3186	
331.8	5915.9	
332.01	6111.1	
332.22	3633.8	
332.42	4127.3	
332.63	5513.8	
332.84	5096.7	
333.05	3916.4	
333.25	3568.9	
333.46	5139	
333.67	5387.5	
333.88	3696.6	
334.08	4072	
334.29	7203.4	
334.5	6051.1	
334.7	3356.6	
334.91	4979.3	
335.12	4924	
335.33	5824.4	
335.53	3900.7	
335.74	5752.7	
335.95	5168.4	
336.16	5008	
336.36	3878.9	
336.57	4459.1	
336.78	4894	
336.98	5982.1	
337.19	4879.6	
337.4	3779.9	
337.61	6511.2	
337.81	4967	
338.02	3531.4	
338.23	4605.9	
338.43	6133.7	
338.64	5083.7	
338.85	3525.9	
339.05	4625.7	
339.26	6204.7	
339.47	4854.4	
339.68	3545.7	
339.88	5240.8	
340.09	5627.8	
340.3	5823.7	
340.5	4204.5	
340.71	3161.4	
340.92	4919.2	
341.13	6120	
341.33	3442.6	
341.54	4174.4	
341.75	5597.8	
341.95	5326.1	
342.16	4009.2	
342.37	4211.3	
342.57	4973.2	
342.78	5350.7	
342.99	4352.6	
343.19	3173.7	
343.4	5791	
343.61	5633.3	
343.81	3810.6	
344.02	3450.1	
344.23	5818.3	
344.43	6270.9	
344.64	4365.6	
344.85	4207.2	
345.06	5634	
345.26	5990.3	
345.47	4085	
345.68	4783.4	
345.88	4806.6	
346.09	5873.6	
346.3	4118.5	
346.5	3117.7	
346.71	5398.4	
346.92	5020.9	
347.12	3222.1	
347.33	4027.7	
347.54	6002.6	
347.74	6303	
347.95	4070.7	
348.16	2989.4	
348.36	5212.1	
348.57	4949.3	
348.78	4024.9	
348.98	4304.1	
349.19	5416.9	
349.39	4866	
349.6	3259	
349.81	3610.6	
350.01	5632.6	
350.22	5041.4	
350.43	3925.3	
350.63	4672.1	
350.84	5452.4	
351.05	5192.3	
351.25	3595.6	
351.46	3265.8	
351.67	5977.3	
351.87	5088.5	
352.08	3773	
352.29	4328.7	
352.49	5840.1	
352.7	5952.1	
352.9	3461.1	
353.11	4314.4	
353.32	6517.3	
353.52	5256.5	
353.73	3423.5	
353.94	4349.9	
354.14	5649.7	
354.35	5532.9	
354.55	3507.5	
354.76	3882.3	
354.97	5666.7	
355.17	5443.5	
355.38	3355.9	
355.59	4651.6	
355.79	5106.3	
356	5445.5	
356.2	3887	
356.41	3397.6	
356.62	4872.1	
356.82	5368.4	
357.03	4155.3	
357.24	3779.9	
357.44	5128.8	
357.65	5282.4	
357.85	4947.2	
358.06	3917.8	
358.27	4883	
358.47	5083.1	
358.68	3314.3	
358.88	4148.5	
359.09	5633.3	
359.3	6046.3	
359.5	4890.5	
359.71	4304.8	
359.91	6460	
360.12	5786.2	
360.33	4158.7	
360.53	4605.9	
360.74	5198.4	
360.94	5182	
361.15	4364.2	
361.36	3590.1	
361.56	5949.3	
361.77	5368.4	
361.97	4818.9	
362.18	3846.1	
362.38	5975.3	
362.59	5073.5	
362.8	3527.3	
363	3400.3	
363.21	4846.2	
363.41	5492	
363.62	4134.2	
363.83	5137	
364.03	5556.1	
364.24	6530.3	
364.44	5204.6	
364.65	5201.2	
364.85	5346.6	
365.06	5242.1	
365.27	3736.2	
365.47	3679.5	
365.68	6337.8	
365.88	5281	
366.09	4154.6	
366.29	3873.4	
366.5	5621.7	
366.71	6034.7	
366.91	5060.5	
367.12	4290.5	
367.32	6651.1	
367.53	5887.2	
367.73	4255	
367.94	5222.3	
368.14	5791.7	
368.35	6680.5	
368.56	4286.4	
368.76	4022.2	
368.97	5917.3	
369.17	7523.6	
369.38	3712.3	
369.58	3988.8	
369.79	4978.6	
369.99	6272.9	
370.2	5001.8	
370.4	4100.7	
370.61	5623	
370.82	6866.8	
371.02	4042	
371.23	3390.8	
371.43	4932.9	
371.64	6233.3	
371.84	4088.4	
372.05	5202.5	
372.25	7516.7	
372.46	5968.5	
372.66	4104.8	
372.87	4048.8	
373.07	6050.4	
373.28	7608.9	
373.48	5044.1	
373.69	4761.5	
373.9	5494.7	
374.1	5578.7	
374.31	5068	
374.51	4578.6	
374.72	6388.3	
374.92	5268.7	
375.13	5274.2	
375.33	4419.5	
375.54	6034	
375.74	5406	
375.95	4533.5	
376.15	5727.5	
376.36	6044.9	
376.56	5826.5	
376.77	4577.9	
376.97	5064.6	
377.18	7104.4	
377.38	6134.3	
377.59	5361.6	
377.79	4112.3	
378	5930.2	
378.2	6386.9	
378.41	4205.2	
378.61	4100	
378.82	6421.1	
379.02	5513.8	
379.23	4318.5	
379.43	5478.3	
379.64	6425.8	
379.84	6126.8	
380.05	4147.1	
380.25	4164.2	
380.46	6184.2	
380.66	5745.9	
380.87	5552.7	
381.07	5879.7	
381.28	6845	
381.48	6198.5	
381.69	4229.1	
381.89	4265.2	
382.1	5128.1	
382.3	6365.1	
382.51	5296.7	
382.71	6139.1	
382.91	6203.3	
383.12	6703	
383.32	4577.9	
383.53	4782.7	
383.73	6015.6	
383.94	5855.8	
384.14	4704.9	
384.35	3837.9	
384.55	5812.8	
384.76	6221	
384.96	4532.8	
385.17	4872.8	
385.37	6155.5	
385.58	5462.6	
385.78	4896	
385.98	3805.8	
386.19	5690.6	
386.39	6118	
386.6	4358.8	
386.8	4642.7	
387.01	6180.1	
387.21	6264.1	
387.42	5071.5	
387.62	5628.5	
387.83	5625.1	
388.03	6305	
388.23	4766.3	
388.44	5542.5	
388.64	5304.2	
388.85	5450.3	
389.05	5094.7	
389.26	5722.7	
389.46	7271.7	
389.67	6762.4	
389.87	5074.2	
390.07	5216.9	
390.28	5960.3	
390.48	5575.9	
390.69	4397	
390.89	4616.1	
391.1	5759.6	
391.3	6744	
391.5	5894.1	
391.71	6505	
391.91	6389	
392.12	7439.6	
392.32	5915.9	
392.53	5097.4	
392.73	5855.1	
392.93	6036.7	
393.14	4784.7	
393.34	5535.7	
393.55	6326.9	
393.75	6028.5	
393.95	4800.4	
394.16	4696.7	
394.36	5769.1	
394.57	6531	
394.77	4324.6	
394.98	4720.6	
395.18	5820.3	
395.38	5942.5	
395.59	5701.5	
395.79	4588.8	
396	5978.7	
396.2	6463.4	
396.4	5488.6	
396.61	5447.6	
396.81	6675	
397.02	6023.8	
397.22	5754.1	
397.42	5812.8	
397.63	6787.7	
397.83	5926.1	
398.04	4641.4	
398.24	5328.1	
398.44	6461.3	
398.65	5621.7	
398.85	4595	
399.05	4733.5	
399.26	6074.3	
399.46	7683.3	
399.67	5125.4	
399.87	4784.1	
400.07	6440.2	
400.28	6796.5	
400.48	5020.9	
400.69	6017.6	
400.89	7068.2	
401.09	7448.5	
401.3	4948.6	
401.5	6033.3	
401.7	7798	
401.91	7946.8	
402.11	5225.7	
402.32	5326.1	
402.52	6964.5	
402.72	6776	
402.93	5522	
403.13	4321.9	
403.33	7608.9	
403.54	6309.8	
403.74	5156.1	
403.94	6044.2	
404.15	6490.7	
404.35	7663.5	
404.56	5098.8	
404.76	6915.3	
404.96	7011.6	
405.17	6812.9	
405.37	6398.5	
405.57	5638.1	
405.78	7124.9	
405.98	6496.8	
406.18	5174.5	
406.39	6049.7	
406.59	6932.4	
406.79	6559.6	
407	4941.7	
407.2	5090.6	
407.4	7061.4	
407.61	7370.6	
407.81	5298.1	
408.01	7363.1	
408.22	6292	
408.42	8304.5	
408.62	6548.7	
408.83	6075.6	
409.03	7134.4	
409.23	7031.4	
409.44	6220.4	
409.64	6526.9	
409.84	8148.2	
410.05	8054.7	
410.25	6395.1	
410.45	6137.1	
410.66	7747.5	
410.86	10086	
411.06	6850.5	
411.27	6695.5	
411.47	10036	
411.67	8083.3	
411.88	6931.7	
412.08	7262.8	
412.28	8662.9	
412.49	9131.9	
412.69	6799.9	
412.89	6887.3	
413.09	8979	
413.3	8956.4	
413.5	6908.5	
413.7	6612.9	
413.91	8099.7	
414.11	9049.3	
414.31	6919.4	
414.52	7441	
414.72	8680.7	
414.92	8850.6	
415.12	6868.9	
415.33	7492.8	
415.53	9127.1	
415.73	9359.2	
415.94	7826.7	
416.14	7339.2	
416.34	8274.5	
416.55	8013	
416.75	8486.8	
416.95	8000.7	
417.15	9303.2	
417.36	9983.2	
417.56	8925.7	
417.76	7903.1	
417.97	9652.8	
418.17	9445.2	
418.37	7459.4	
418.57	7625.3	
418.78	9151	
418.98	8799.4	
419.18	8372.1	
419.38	8354.3	
419.59	8912.8	
419.79	8487.5	
419.99	7528.3	
420.2	7871	
420.4	9456.8	
420.6	9710.1	
420.8	7563.1	
421.01	7388.4	
421.21	9324.4	
421.41	9551.7	
421.61	7897.7	
421.82	7557	
422.02	8847.9	
422.22	9719.7	
422.42	8405.5	
422.63	7865.6	
422.83	8939.4	
423.03	10162	
423.23	8017.1	
423.44	6983.6	
423.64	8926.4	
423.84	8788.5	
424.04	7447.8	
424.25	7165.2	
424.45	9844.6	
424.65	9863	
424.85	6936.5	
425.06	7506.5	
425.26	9977	
425.46	8927.1	
425.66	7827.3	
425.87	7623.2	
426.07	9607	
426.27	9412.5	
426.47	7699	
426.67	7021.1	
426.88	9833	
427.08	9368.8	
427.28	8086.7	
427.48	7121.5	
427.69	8308.6	
427.89	9022.7	
428.09	8085.4	
428.29	7106.5	
428.5	9708.7	
428.7	9197.4	
428.9	7163.1	
429.1	7621.2	
429.3	9241.8	
429.51	9619.3	
429.71	7424.6	
429.91	8355	
430.11	9675.3	
430.31	9880.1	
430.52	7839.6	
430.72	8189.8	
430.92	10195	
431.12	9634.3	
431.32	7582.9	
431.53	7903.1	
431.73	8706.6	
431.93	10374	
432.13	7531.7	
432.33	7531.1	
432.54	9159.9	
432.74	9631.6	
432.94	7561.1	
433.14	8624	
433.34	9755.8	
433.55	9476	
433.75	8535.9	
433.95	10394	
434.15	9635.7	
434.35	9461.6	
434.56	7815.7	
434.76	7394.5	
434.96	9709.4	
435.16	10173	
435.36	7789.8	
435.56	9023.4	
435.77	9594.1	
435.97	9761.3	
436.17	9791.3	
436.37	9013.8	
436.57	9668.5	
436.78	9521	
436.98	9759.9	
437.18	9484.8	
437.38	10258	
437.58	9634.3	
437.78	9501.9	
437.99	8135.2	
438.19	10008	
438.39	11555	
438.59	8033.5	
438.79	7595.9	
438.99	10871	
439.2	9846.6	
439.4	8028	
439.6	7993.2	
439.8	10371	
440	11492	
440.2	9165.3	
440.4	9361.3	
440.61	10972	
440.81	11508	
441.01	8597.4	
441.21	9512.1	
441.41	11411	
441.61	10823	
441.81	9766.1	
442.02	10840	
442.22	11806	
442.42	10994	
442.62	8833.6	
442.82	8699.1	
443.02	11541	
443.22	10775	
443.43	9340.8	
443.63	8862.2	
443.83	10509	
444.03	10619	
444.23	10253	
444.43	9749	
444.63	11028	
444.83	11942	
445.04	9099.8	
445.24	10316	
445.44	11028	
445.64	11207	
445.84	9546.3	
446.04	9691.7	
446.24	10423	
446.44	11481	
446.65	8775.5	
446.85	9353.8	
447.05	10475	
447.25	11490	
447.45	9395.4	
447.65	8756.4	
447.85	10860	
448.05	10453	
448.25	10032	
448.46	9782.5	
448.66	10956	
448.86	10558	
449.06	8830.2	
449.26	9929.2	
449.46	11513	
449.66	10334	
449.86	9650	
450.06	9426.8	
450.26	10632	
450.47	11340	
450.67	9765.4	
450.87	10202	
451.07	11292	
451.27	11299	
451.47	9097.8	
451.67	9923.8	
451.87	10908	
452.07	11871	
452.27	9625.5	
452.47	9265.7	
452.67	11031	
452.88	11873	
453.08	8665	
453.28	10830	
453.48	12624	
453.68	11119	
453.88	9438.4	
454.08	9758.6	
454.28	11799	
454.48	11449	
454.68	10391	
454.88	10976	
455.08	11895	
455.28	11963	
455.48	9451.4	
455.68	10309	
455.89	12660	
456.09	12316	
456.29	10069	
456.49	10351	
456.69	12789	
456.89	11772	
457.09	10776	
457.29	11444	
457.49	12403	
457.69	12603	
457.89	11118	
458.09	10264	
458.29	12413	
458.49	13050	
458.69	11432	
458.89	10871	
459.09	13410	
459.29	13537	
459.49	10906	
459.69	11684	
459.9	12878	
460.1	12604	
460.3	10763	
460.5	10811	
460.7	13055	
460.9	12815	
461.1	10465	
461.3	11901	
461.5	13898	
461.7	13469	
461.9	11358	
462.1	11559	
462.3	13252	
462.5	13908	
462.7	11523	
462.9	11669	
463.1	14938	
463.3	14889	
463.5	12004	
463.7	13310	
463.9	13826	
464.1	14231	
464.3	12590	
464.5	12502	
464.7	14562	
464.9	14524	
465.1	14063	
465.3	13076	
465.5	14946	
465.7	15053	
465.9	13571	
466.1	12957	
466.3	15098	
466.5	14685	
466.7	14539	
466.9	13261	
467.1	14928	
467.3	15987	
467.5	14639	
467.7	13517	
467.9	16245	
468.1	17218	
468.3	14132	
468.5	14762	
468.7	15292	
468.9	15138	
469.1	13835	
469.3	14645	
469.5	17231	
469.7	14860	
469.9	14106	
470.1	13602	
470.3	15358	
470.5	15214	
470.7	14971	
470.9	13470	
471.1	15250	
471.3	15319	
471.5	13433	
471.69	15317	
471.89	14994	
472.09	14280	
472.29	14374	
472.49	14394	
472.69	14716	
472.89	15401	
473.09	13381	
473.29	13252	
473.49	14820	
473.69	14836	
473.89	14328	
474.09	13623	
474.29	16154	
474.49	15776	
474.69	14493	
474.89	13700	
475.09	15001	
475.29	14837	
475.49	12998	
475.69	13482	
475.88	16367	
476.08	15221	
476.28	13001	
476.48	13155	
476.68	15453	
476.88	15234	
477.08	13132	
477.28	13621	
477.48	14781	
477.68	15498	
477.88	13140	
478.08	13492	
478.28	15930	
478.48	14954	
478.67	13642	
478.87	12794	
479.07	16019	
479.27	15106	
479.47	13679	
479.67	13868	
479.87	15588	
480.07	16290	
480.27	13140	
480.47	14720	
480.67	15189	
480.87	16086	
481.06	13278	
481.26	14259	
481.46	15328	
481.66	15279	
481.86	13939	
482.06	14895	
482.26	14958	
482.46	15931	
482.66	13917	
482.86	13668	
483.05	15725	
483.25	15134	
483.45	16376	
483.65	14010	
483.85	15118	
484.05	15578	
484.25	14496	
484.45	15167	
484.65	16528	
484.84	16667	
485.04	14158	
485.24	14298	
485.44	16941	
485.64	15305	
485.84	13666	
486.04	15220	
486.24	15762	
486.44	16219	
486.63	13774	
486.83	14810	
487.03	15973	
487.23	16386	
487.43	13918	
487.63	16574	
487.83	16298	
488.02	17365	
488.22	15356	
488.42	15898	
488.62	17108	
488.82	16171	
489.02	14825	
489.22	15027	
489.41	17118	
489.61	16855	
489.81	14660	
490.01	14734	
490.21	16939	
490.41	17676	
490.61	14532	
490.8	14665	
491	16378	
491.2	15474	
491.4	15060	
491.6	14382	
491.8	16373	
491.99	16550	
492.19	14192	
492.39	14709	
492.59	17522	
492.79	17522	
492.99	16133	
493.18	15268	
493.38	17757	
493.58	18921	
493.78	16182	
493.98	15780	
494.18	17787	
494.37	17642	
494.57	16893	
494.77	16741	
494.97	18593	
495.17	18930	
495.37	16640	
495.56	16962	
495.76	19241	
495.96	18809	
496.16	17929	
496.36	16927	
496.55	19113	
496.75	18621	
496.95	17293	
497.15	17124	
497.35	19075	
497.54	19172	
497.74	17100	
497.94	18777	
498.14	19937	
498.34	19798	
498.53	17258	
498.73	17889	
498.93	19135	
499.13	19480	
499.33	17897	
499.52	18477	
499.72	19806	
499.92	19843	
500.12	17671	
500.32	17877	
500.51	19787	
500.71	19939	
500.91	18659	
501.11	18297	
501.31	19933	
501.5	20241	
501.7	18898	
501.9	17923	
502.1	19514	
502.29	20026	
502.49	18539	
502.69	18670	
502.89	19585	
503.09	19670	
503.28	17191	
503.48	17060	
503.68	18822	
503.88	19034	
504.07	18122	
504.27	17646	
504.47	19267	
504.67	19058	
504.86	17854	
505.06	17616	
505.26	18535	
505.46	20347	
505.65	17419	
505.85	17449	
506.05	18393	
506.25	18819	
506.44	16470	
506.64	17272	
506.84	18186	
507.04	19143	
507.23	16751	
507.43	17351	
507.63	20086	
507.83	18460	
508.02	17290	
508.22	16851	
508.42	20490	
508.62	18216	
508.81	16935	
509.01	17780	
509.21	17912	
509.4	18470	
509.6	17492	
509.8	16903	
510	18492	
510.19	20070	
510.39	16765	
510.59	16898	
510.79	18463	
510.98	19891	
511.18	16831	
511.38	16975	
511.57	19040	
511.77	18984	
511.97	17436	
512.17	16491	
512.36	19010	
512.56	18813	
512.76	16607	
512.95	16597	
513.15	19332	
513.35	17881	
513.55	17627	
513.74	16976	
513.94	19128	
514.14	18707	
514.33	17897	
514.53	17603	
514.73	18469	
514.92	18941	
515.12	17279	
515.32	17037	
515.51	19259	
515.71	19684	
515.91	18846	
516.11	17166	
516.3	20817	
516.5	18648	
516.7	17721	
516.89	18300	
517.09	18767	
517.29	18748	
517.48	18089	
517.68	17391	
517.88	18533	
518.07	19054	
518.27	17955	
518.47	17044	
518.66	19789	
518.86	18444	
519.06	16801	
519.25	17539	
519.45	18983	
519.65	20425	
519.84	17824	
520.04	18682	
520.24	20402	
520.43	19198	
520.63	17290	
520.83	17017	
521.02	18243	
521.22	18949	
521.42	17481	
521.61	18137	
521.81	18632	
522.01	18927	
522.2	17645	
522.4	17545	
522.6	19719	
522.79	18572	
522.99	18081	
523.18	17587	
523.38	19971	
523.58	20011	
523.77	19828	
523.97	17899	
524.17	22070	
524.36	21281	
524.56	19418	
524.76	19084	
524.95	20584	
525.15	20143	
525.34	18938	
525.54	19126	
525.74	21122	
525.93	19994	
526.13	20426	
526.33	19427	
526.52	21444	
526.72	21098	
526.91	20762	
527.11	20170	
527.31	21739	
527.5	22373	
527.7	20262	
527.89	19418	
528.09	21103	
528.29	21944	
528.48	20781	
528.68	20250	
528.87	22103	
529.07	21854	
529.27	19883	
529.46	19028	
529.66	21016	
529.85	21500	
530.05	19031	
530.25	19852	
530.44	22787	
530.64	21285	
530.83	19882	
531.03	20245	
531.23	22197	
531.42	22006	
531.62	21495	
531.81	20590	
532.01	22881	
532.21	23331	
532.4	20873	
532.6	21361	
532.79	23844	
532.99	23306	
533.18	21416	
533.38	22291	
533.58	22957	
533.77	23462	
533.97	21613	
534.16	22372	
534.36	24008	
534.55	23128	
534.75	22416	
534.95	21534	
535.14	23735	
535.34	22747	
535.53	20866	
535.73	22704	
535.92	24174	
536.12	22798	
536.31	21037	
536.51	22423	
536.71	23182	
536.9	22848	
537.1	21281	
537.29	21564	
537.49	23726	
537.68	22752	
537.88	22122	
538.07	21363	
538.27	23354	
538.46	24420	
538.66	21342	
538.86	21813	
539.05	23260	
539.25	23561	
539.44	22069	
539.64	21256	
539.83	22822	
540.03	23801	
540.22	21207	
540.42	20915	
540.61	22889	
540.81	23277	
541	21537	
541.2	22398	
541.39	22481	
541.59	22814	
541.78	21928	
541.98	20788	
542.18	21842	
542.37	21815	
542.57	20917	
542.76	21603	
542.96	21501	
543.15	22314	
543.35	20676	
543.54	20162	
543.74	22386	
543.93	22119	
544.13	20530	
544.32	21734	
544.52	22362	
544.71	21532	
544.91	19663	
545.1	20802	
545.3	21650	
545.49	22481	
545.69	19609	
545.88	20195	
546.08	23035	
546.27	22702	
546.47	20663	
546.66	19849	
546.86	22253	
547.05	22878	
547.24	20075	
547.44	20213	
547.63	21092	
547.83	22413	
548.02	20306	
548.22	20354	
548.41	20869	
548.61	22011	
548.8	19736	
549	19557	
549.19	21289	
549.39	21808	
549.58	19237	
549.78	19762	
549.97	21658	
550.17	21005	
550.36	20280	
550.55	21550	
550.75	21141	
550.94	21863	
551.14	19191	
551.33	19667	
551.53	20672	
551.72	21528	
551.92	19674	
552.11	19516	
552.31	21403	
552.5	21533	
552.69	21050	
552.89	18865	
553.08	21184	
553.28	20949	
553.47	19303	
553.67	20511	
553.86	21864	
554.06	20103	
554.25	18433	
554.44	19119	
554.64	22526	
554.83	22085	
555.03	18815	
555.22	19389	
555.42	21282	
555.61	20866	
555.8	19083	
556	19271	
556.19	20101	
556.39	21384	
556.58	19171	
556.78	19037	
556.97	20823	
557.16	20732	
557.36	20259	
557.55	18796	
557.75	19624	
557.94	21704	
558.13	18636	
558.33	18639	
558.52	21324	
558.72	20161	
558.91	18514	
559.1	18697	
559.3	19777	
559.49	19443	
559.69	18045	
559.88	18843	
560.07	20603	
560.27	20909	
560.46	19089	
560.66	19293	
560.85	20185	
561.04	19306	
561.24	18252	
561.43	18310	
561.63	19609	
561.82	19982	
562.01	19839	
562.21	18945	
562.4	20346	
562.59	21812	
562.79	19009	
562.98	18553	
563.18	20588	
563.37	22071	
563.56	19349	
563.76	18718	
563.95	19942	
564.14	20043	
564.34	19084	
564.53	18772	
564.73	20637	
564.92	21263	
565.11	19454	
565.31	18599	
565.5	21414	
565.69	20356	
565.89	18854	
566.08	19296	
566.27	21229	
566.47	21739	
566.66	19863	
566.85	18664	
567.05	20921	
567.24	20325	
567.44	18818	
567.63	20327	
567.82	21134	
568.02	20886	
568.21	18993	
568.4	19437	
568.6	20990	
568.79	21040	
568.98	18903	
569.18	19172	
569.37	21058	
569.56	23026	
569.76	19625	
569.95	20401	
570.14	21130	
570.34	21383	
570.53	18893	
570.72	18965	
570.91	21865	
571.11	20977	
571.3	19480	
571.49	20426	
571.69	21186	
571.88	20626	
572.07	20090	
572.27	20030	
572.46	20550	
572.65	21705	
572.85	19503	
573.04	19891	
573.23	22362	
573.43	21310	
573.62	19672	
573.81	20292	
574	21719	
574.2	21446	
574.39	20236	
574.58	20278	
574.78	22904	
574.97	22044	
575.16	20857	
575.36	21052	
575.55	22517	
575.74	22532	
575.93	19843	
576.13	21176	
576.32	21797	
576.51	22732	
576.71	20296	
576.9	21679	
577.09	22852	
577.28	22403	
577.48	21009	
577.67	19883	
577.86	22160	
578.05	22511	
578.25	20573	
578.44	20699	
578.63	22165	
578.83	23478	
579.02	20036	
579.21	21677	
579.4	22446	
579.6	22128	
579.79	20880	
579.98	23084	
580.17	22878	
580.37	23006	
580.56	20551	
580.75	21404	
580.94	23404	
581.14	23217	
581.33	21960	
581.52	20676	
581.71	23096	
581.91	23457	
582.1	20525	
582.29	20964	
582.48	22700	
582.68	22703	
582.87	21475	
583.06	21250	
583.25	23113	
583.45	22949	
583.64	22038	
583.83	22844	
584.02	22304	
584.21	22952	
584.41	21741	
584.6	21280	
584.79	22744	
584.98	23479	
585.18	20693	
585.37	20611	
585.56	22209	
585.75	22982	
585.94	20646	
586.14	21334	
586.33	23119	
586.52	22208	
586.71	20844	
586.91	20632	
587.1	21521	
587.29	22463	
587.48	20144	
587.67	20302	
587.87	22192	
588.06	22146	
588.25	21298	
588.44	20570	
588.63	21519	
588.83	21967	
589.02	19478	
589.21	19106	
589.4	20184	
589.59	20123	
589.78	17587	
589.98	17809	
590.17	19086	
590.36	19689	
590.55	16913	
590.74	17743	
590.94	20964	
591.13	19556	
591.32	17695	
591.51	17398	
591.7	20222	
591.89	19966	
592.09	17572	
592.28	18060	
592.47	19036	
592.66	20919	
592.85	17611	
593.05	17920	
593.24	19531	
593.43	20364	
593.62	18144	
593.81	18531	
594	19835	
594.19	20023	
594.39	17813	
594.58	17734	
594.77	19686	
594.96	20330	
595.15	17492	
595.34	18047	
595.54	19642	
595.73	18802	
595.92	16810	
596.11	17818	
596.3	20277	
596.49	19090	
596.68	17740	
596.88	18256	
597.07	19930	
597.26	18776	
597.45	17232	
597.64	18559	
597.83	19169	
598.02	19740	
598.22	17365	
598.41	17997	
598.6	19342	
598.79	18832	
598.98	17380	
599.17	18343	
599.36	19496	
599.55	20602	
599.74	19367	
599.94	19185	
600.13	19813	
600.32	18675	
600.51	16971	
600.7	17224	
600.89	20547	
601.08	20479	
601.27	17085	
601.47	18090	
601.66	19627	
601.85	20232	
602.04	17656	
602.23	17836	
602.42	18739	
602.61	19478	
602.8	17424	
602.99	17197	
603.18	19163	
603.37	19462	
603.57	17885	
603.76	18494	
603.95	20204	
604.14	19624	
604.33	17364	
604.52	17832	
604.71	19577	
604.9	19016	
605.09	18224	
605.28	18031	
605.47	20117	
605.66	19437	
605.86	18021	
606.05	17361	
606.24	19791	
606.43	18340	
606.62	17646	
606.81	18349	
607	19641	
607.19	19084	
607.38	16971	
607.57	17318	
607.76	18675	
607.95	18316	
608.14	17518	
608.33	17948	
608.52	18568	
608.72	19611	
608.91	16817	
609.1	16640	
609.29	18779	
609.48	18221	
609.67	17670	
609.86	16651	
610.05	18163	
610.24	18416	
610.43	16771	
610.62	16135	
610.81	19714	
611	19439	
611.19	16659	
611.38	17247	
611.57	18898	
611.76	20119	
611.95	16388	
612.14	16163	
612.33	18573	
612.52	18080	
612.71	16894	
612.9	15883	
613.09	17779	
613.28	20136	
613.47	16408	
613.66	17522	
613.85	18740	
614.04	18047	
614.24	16704	
614.43	15979	
614.62	18911	
614.81	18818	
615	17347	
615.19	17356	
615.38	18012	
615.57	18505	
615.76	17062	
615.95	18109	
616.14	18968	
616.33	18524	
616.52	17484	
616.71	17834	
616.9	18828	
617.09	18923	
617.28	17107	
617.47	18167	
617.66	18293	
617.85	18411	
618.04	18208	
618.22	17671	
618.41	18828	
618.6	20011	
618.79	17744	
618.98	17467	
619.17	20179	
619.36	18557	
619.55	17789	
619.74	17789	
619.93	19714	
620.12	19346	
620.31	18350	
620.5	18672	
620.69	20423	
620.88	20814	
621.07	19431	
621.26	18420	
621.45	19953	
621.64	20043	
621.83	18644	
622.02	17938	
622.21	20142	
622.4	19912	
622.59	19214	
622.78	19112	
622.97	19473	
623.16	20594	
623.35	18630	
623.54	17941	
623.72	19855	
623.91	20037	
624.1	18976	
624.29	17522	
624.48	21026	
624.67	20250	
624.86	18912	
625.05	18003	
625.24	21061	
625.43	19492	
625.62	20733	
625.81	18176	
626	20643	
626.19	19960	
626.38	19101	
626.56	18413	
626.75	19618	
626.94	20535	
627.13	18759	
627.32	17416	
627.51	20101	
627.7	21603	
627.89	17735	
628.08	18917	
628.27	19457	
628.46	19696	
628.65	17953	
628.83	17780	
629.02	20135	
629.21	19446	
629.4	18508	
629.59	18533	
629.78	19446	
629.97	20493	
630.16	18805	
630.35	18096	
630.54	20719	
630.72	20513	
630.91	18179	
631.1	18651	
631.29	20067	
631.48	20398	
631.67	18779	
631.86	18228	
632.05	19791	
632.24	19785	
632.42	17860	
632.61	18450	
632.8	19683	
632.99	19383	
633.18	18604	
633.37	18731	
633.56	19872	
633.75	19941	
633.93	18508	
634.12	18179	
634.31	20891	
634.5	20505	
634.69	18331	
634.88	18553	
635.07	19858	
635.25	20351	
635.44	19028	
635.63	19511	
635.82	19573	
636.01	19042	
636.2	18954	
636.39	18492	
636.57	20736	
636.76	20211	
636.95	18002	
637.14	19160	
637.33	20125	
637.52	20964	
637.7	17628	
637.89	18561	
638.08	19505	
638.27	20826	
638.46	18459	
638.65	18804	
638.83	20668	
639.02	19065	
639.21	18200	
639.4	18772	
639.59	19522	
639.78	18991	
639.96	17539	
640.15	17447	
640.34	19155	
640.53	19354	
640.72	16907	
640.91	17210	
641.09	18444	
641.28	19880	
641.47	17357	
641.66	18331	
641.85	19322	
642.03	19342	
642.22	17793	
642.41	17359	
642.6	18637	
642.79	17911	
642.97	16918	
643.16	17740	
643.35	18381	
643.54	18060	
643.73	16626	
643.91	17331	
644.1	17676	
644.29	18335	
644.48	16450	
644.67	16520	
644.85	17407	
645.04	17827	
645.23	15636	
645.42	16072	
645.6	17017	
645.79	18173	
645.98	15659	
646.17	14734	
646.36	16531	
646.54	16984	
646.73	16027	
646.92	14880	
647.11	16468	
647.29	17528	
647.48	14924	
647.67	14555	
647.86	17492	
648.05	17789	
648.23	15210	
648.42	16485	
648.61	17126	
648.8	16987	
648.98	14879	
649.17	15352	
649.36	16584	
649.55	16080	
649.73	14840	
649.92	15683	
650.11	16427	
650.3	16549	
650.48	14844	
650.67	14527	
650.86	16749	
651.05	15661	
651.23	14851	
651.42	14771	
651.61	16252	
651.79	16215	
651.98	15146	
652.17	14675	
652.36	16483	
652.54	15660	
652.73	14517	
652.92	14212	
653.11	16303	
653.29	16337	
653.48	13448	
653.67	14386	
653.85	15788	
654.04	16774	
654.23	14123	
654.42	13504	
654.6	14691	
654.79	15113	
654.98	12762	
655.16	13362	
655.35	14212	
655.54	14292	
655.73	13108	
655.91	13132	
656.1	15664	
656.29	14648	
656.47	12929	
656.66	14660	
656.85	14954	
657.03	15203	
657.22	13560	
657.41	13753	
657.59	15183	
657.78	14991	
657.97	13304	
658.16	14081	
658.34	15711	
658.53	16253	
658.72	14931	
658.9	15476	
659.09	15268	
659.28	15412	
659.46	14001	
659.65	13906	
659.84	15130	
660.02	15722	
660.21	13564	
660.4	13614	
660.58	16069	
660.77	15359	
660.96	14203	
661.14	13158	
661.33	16438	
661.52	16466	
661.7	13173	
661.89	16776	
662.08	14878	
662.26	14403	
662.45	13205	
662.64	13407	
662.82	15612	
663.01	14854	
663.2	13345	
663.38	14212	
663.57	15410	
663.75	15198	
663.94	13785	
664.13	14967	
664.31	14733	
664.5	15234	
664.69	14029	
664.87	14475	
665.06	14422	
665.25	15239	
665.43	14576	
665.62	14538	
665.8	15504	
665.99	14726	
666.18	13528	
666.36	13676	
666.55	15413	
666.74	15369	
666.92	13164	
667.11	14667	
667.29	14747	
667.48	15285	
667.67	14213	
667.85	13452	
668.04	14754	
668.22	14766	
668.41	13467	
668.6	13682	
668.78	14424	
668.97	14648	
669.15	13831	
669.34	12625	
669.53	14371	
669.71	14917	
669.9	12945	
670.08	13445	
670.27	14481	
670.46	14835	
670.64	13852	
670.83	14044	
671.01	14313	
671.2	14677	
671.38	13100	
671.57	12835	
671.76	15512	
671.94	16087	
672.13	12821	
672.31	13766	
672.5	15188	
672.69	14463	
672.87	12956	
673.06	13280	
673.24	14888	
673.43	14461	
673.61	13654	
673.8	13142	
673.98	14900	
674.17	15226	
674.36	13859	
674.54	13602	
674.73	14747	
674.91	15029	
675.1	13375	
675.28	12934	
675.47	14554	
675.65	15170	
675.84	13090	
676.03	13562	
676.21	14296	
676.4	13953	
676.58	13935	
676.77	13725	
676.95	15636	
677.14	14195	
677.32	12779	
677.51	12559	
677.69	15075	
677.88	13893	
678.06	12751	
678.25	12740	
678.44	14556	
678.62	14145	
678.81	12505	
678.99	13519	
679.18	15324	
679.36	14892	
679.55	13135	
679.73	13818	
679.92	14798	
680.1	14351	
680.29	14373	
680.47	12984	
680.66	14169	
680.84	15110	
681.03	12381	
681.21	13503	
681.4	14251	
681.58	14084	
681.77	12833	
681.95	12748	
682.14	14965	
682.32	15356	
682.51	13576	
682.69	12481	
682.88	14019	
683.06	14549	
683.25	13237	
683.43	13591	
683.62	14160	
683.8	14471	
683.99	13387	
684.17	12526	
684.36	14782	
684.54	13166	
684.73	11080	
684.91	11242	
685.1	13037	
685.28	12499	
685.46	11620	
685.65	11996	
685.83	13568	
686.02	13047	
686.2	11413	
686.39	11693	
686.57	13084	
686.76	14469	
686.94	11656	
687.13	11870	
687.31	13581	
687.5	13256	
687.68	11355	
687.86	12728	
688.05	15141	
688.23	12849	
688.42	12713	
688.6	12134	
688.79	13486	
688.97	13409	
689.16	12562	
689.34	11404	
689.52	14274	
689.71	14345	
689.89	12807	
690.08	11970	
690.26	13608	
690.45	13489	
690.63	12709	
690.81	12067	
691	13217	
691.18	13184	
691.37	12045	
691.55	14207	
691.74	13042	
691.92	15071	
692.1	12045	
692.29	11516	
692.47	13293	
692.66	12691	
692.84	11720	
693.02	12468	
693.21	13050	
693.39	13431	
693.58	12704	
693.76	12207	
693.94	14892	
694.13	14777	
694.31	12316	
694.5	13579	
694.68	13613	
694.86	14022	
695.05	12771	
695.23	12906	
695.42	14394	
695.6	16658	
695.78	13437	
695.97	12284	
696.15	14225	
696.34	13695	
696.52	11989	
696.7	12791	
696.89	13861	
697.07	13289	
697.25	12520	
697.44	14171	
697.62	13632	
697.81	14003	
697.99	12221	
698.17	12636	
698.36	13022	
698.54	13670	
698.72	12480	
698.91	11567	
699.09	13259	
699.28	13065	
699.46	12246	
699.64	11892	
699.83	13016	
700.01	14165	
700.19	12930	
700.38	11369	
700.56	14288	
700.74	13386	
700.93	11961	
701.11	12733	
701.29	13879	
701.48	15068	
701.66	12239	
701.84	12089	
702.03	13515	
702.21	14330	
702.39	11680	
702.58	12334	
702.76	13873	
702.94	14021	
703.13	11706	
703.31	14214	
703.49	13180	
703.68	14775	
703.86	11787	
704.04	12961	
704.23	13696	
704.41	14186	
704.59	11979	
704.78	13097	
704.96	14795	
705.14	14046	
705.33	11934	
705.51	12585	
705.69	13543	
705.87	14330	
706.06	12904	
706.24	11656	
706.42	13798	
706.61	14106	
706.79	12880	
706.97	11936	
707.16	13241	
707.34	13753	
707.52	12746	
707.7	11886	
707.89	13314	
708.07	12953	
708.25	12697	
708.44	13063	
708.62	13123	
708.8	14280	
708.98	12943	
709.17	11944	
709.35	13617	
709.53	13663	
709.72	11581	
709.9	11664	
710.08	13689	
710.26	13819	
710.45	13087	
710.63	11707	
710.81	13263	
710.99	13247	
711.18	12264	
711.36	11666	
711.54	12973	
711.72	13560	
711.91	11579	
712.09	10978	
712.27	12914	
712.45	13452	
712.64	11533	
712.82	10552	
713	11804	
713.18	11889	
713.37	10167	
713.55	11131	
713.73	12262	
713.91	10474	
714.1	9772.2	
714.28	8942.8	
714.46	11237	
714.64	10336	
714.83	8188.5	
715.01	8921	
715.19	10063	
715.37	9394	
715.55	8475.9	
715.74	8744.1	
715.92	10875	
716.1	8791.9	
716.28	9733.3	
716.47	8733.9	
716.65	9415.2	
716.83	9601.6	
717.01	8650.6	
717.19	8718.9	
717.38	11845	
717.56	9490.3	
717.74	9277.3	
717.92	8491.6	
718.1	11015	
718.29	10451	
718.47	8537.3	
718.65	9218.6	
718.83	11420	
719.01	11433	
719.2	8451.3	
719.38	9704	
719.56	10834	
719.74	12373	
719.92	8885.5	
720.11	9862.3	
720.29	10452	
720.47	9595.4	
720.65	8114.7	
720.83	8839.7	
721.02	9731.9	
721.2	9403.6	
721.38	8771.5	
721.56	8003.5	
721.74	8957.1	
721.92	9043.1	
722.11	9258.2	
722.29	9012.4	
722.47	10381	
722.65	9442.5	
722.83	8008.2	
723.01	8935.3	
723.2	9617.3	
723.38	9890.3	
723.56	7448.5	
723.74	8550.3	
723.92	9071.8	
724.1	10209	
724.29	7947.5	
724.47	9098.4	
724.65	9068.4	
724.83	8998.8	
725.01	7876.5	
725.19	8830.8	
725.37	9082.7	
725.56	9254.1	
725.74	7615	
725.92	7879.9	
726.1	8951.7	
726.28	9228.1	
726.46	8316.1	
726.64	8009.6	
726.83	9318.9	
727.01	9551.7	
727.19	7582.9	
727.37	8480.6	
727.55	9506	
727.73	9916.3	
727.91	7623.2	
728.09	7522.2	
728.28	10032	
728.46	10662	
728.64	8854.1	
728.82	8860.2	
729	11353	
729.18	10612	
729.36	8208.3	
729.54	10555	
729.72	11931	
729.91	10161	
730.09	10245	
730.27	9061.6	
730.45	10106	
730.63	10955	
730.81	9782.5	
730.99	8769.4	
731.17	11366	
731.35	9873.3	
731.53	9349	
731.71	8858.8	
731.9	11060	
732.08	11131	
732.26	9020.6	
732.44	8757.8	
732.62	11179	
732.8	10738	
732.98	9581.8	
733.16	8468.4	
733.34	10625	
733.52	9357.9	
733.7	9054.1	
733.88	9372.9	
734.07	10447	
734.25	10282	
734.43	8525	
734.61	10127	
734.79	11777	
734.97	10159	
735.15	8623.3	
735.33	9007	
735.51	10468	
735.69	10024	
735.87	9994.8	
736.05	9200.8	
736.23	10297	
736.41	10120	
736.59	8998.1	
736.77	9144.2	
736.95	10925	
737.13	10251	
737.32	8755.1	
737.5	8933.2	
737.68	11456	
737.86	10130	
738.04	8497.7	
738.22	10356	
738.4	9813.9	
738.58	10104	
738.76	9069.8	
738.94	8025.3	
739.12	10105	
739.3	10030	
739.48	9808.4	
739.66	9637.1	
739.84	10350	
740.02	10474	
740.2	8189.8	
740.38	8519.5	
740.56	10781	
740.74	9433.6	
740.92	9196.7	
741.1	8965.3	
741.28	10062	
741.46	9905.3	
741.64	8688.2	
741.82	9224.1	
742	10052	
742.18	10113	
742.36	8904.6	
742.54	8434.9	
742.72	10619	
742.9	9310.1	
743.08	9240.4	
743.26	7957.7	
743.44	10841	
743.62	10694	
743.8	9253.4	
743.98	8406.2	
744.16	10333	
744.34	9977	
744.52	9091.6	
744.7	9132.6	
744.88	10344	
745.06	9807.7	
745.24	9139.4	
745.42	9238.4	
745.6	10305	
745.78	10067	
745.96	7860.8	
746.14	8174.8	
746.32	11087	
746.5	10263	
746.68	8745.5	
746.86	8158.4	
747.03	10714	
747.21	8938	
747.39	8638.3	
747.57	8125	
747.75	9847.3	
747.93	10269	
748.11	8125	
748.29	8163.9	
748.47	11413	
748.65	9531.2	
748.83	8963.3	
749.01	8717.5	
749.19	10094	
749.37	9308	
749.55	8452.6	
749.73	8523	
749.91	9839.1	
750.09	9426.1	
750.26	8591.2	
750.44	8012.3	
750.62	9895.1	
750.8	9792	
750.98	7920.2	
751.16	8099	
751.34	9835	
751.52	9069.1	
751.7	8997.4	
751.88	7881.3	
752.06	10321	
752.24	10178	
752.42	7811.6	
752.59	8153	
752.77	9708.7	
752.95	11087	
753.13	8920.3	
753.31	8299.1	
753.49	9325.1	
753.67	9901.9	
753.85	8505.2	
754.03	8105.9	
754.21	9979.1	
754.38	10297	
754.56	8157.1	
754.74	7013.6	
754.92	8874.5	
755.1	9505.3	
755.28	6499.6	
755.46	6088.6	
755.64	9080	
755.82	9075.9	
755.99	5501.5	
756.17	5438	
756.35	5795.1	
756.53	7344.7	
756.71	4003.1	
756.89	5016.2	
757.07	6981.5	
757.25	6292.7	
757.42	6012.8	
757.6	7129	
757.78	7815.7	
757.96	6937.2	
758.14	6120	
758.32	5586.9	
758.5	6263.4	
758.67	7068.9	
758.85	5659.2	
759.03	5776	
759.21	7219.1	
759.39	6605.4	
759.57	5259.9	
759.75	6516.6	
759.92	7932.5	
760.1	7358.4	
760.28	7083.2	
760.46	7380.2	
760.64	7303.7	
760.82	7039.6	
760.99	7212.9	
761.17	6466.1	
761.35	8489.5	
761.53	7402	
761.71	6782.9	
761.89	7613.7	
762.06	8467.7	
762.24	8082	
762.42	7057.3	
762.6	6916	
762.78	8201.4	
762.96	8979.7	
763.13	7589.8	
763.31	7343.3	
763.49	9245.9	
763.67	8312.7	
763.85	8260.8	
764.02	8800.1	
764.2	9516.9	
764.38	8671.8	
764.56	7241.6	
764.74	8022.6	
764.91	9613.2	
765.09	8471.8	
765.27	6857.3	
765.45	6672.3	
765.63	9567.4	
765.8	9466.4	
765.98	6441.5	
766.16	6774.7	
766.34	7883.3	
766.52	7651.2	
766.69	7643.7	
766.87	6436.1	
767.05	8332.5	
767.23	8985.8	
767.41	6793.8	
767.58	6976.7	
767.76	8684.1	
767.94	8905.3	
768.12	6768.5	
768.29	7515.4	
768.47	8231.5	
768.65	8916.2	
768.83	6262.7	
769	7387.7	
769.18	7681.2	
769.36	8372.8	
769.54	7367.9	
769.72	6201.9	
769.89	8542.1	
770.07	8728.4	
770.25	6520	
770.43	7740.6	
770.6	9269.1	
770.78	9686.9	
770.96	6563.7	
771.14	7220.5	
771.31	8308.6	
771.49	7631.4	
771.67	5659.2	
771.85	5924.8	
772.02	6919.4	
772.2	7609.6	
772.38	6662.7	
772.55	6122.1	
772.73	7793.2	
772.91	7516.7	
773.09	6389	
773.26	6462.7	
773.44	7688.1	
773.62	7359	
773.8	5834	
773.97	5538.4	
774.15	7664.9	
774.33	7288.7	
774.5	5673.6	
774.68	6058.6	
774.86	7759.8	
775.04	7184.3	
775.21	5664	
775.39	5647.6	
775.57	7443	
775.74	7776.1	
775.92	5449	
776.1	5289.9	
776.27	7294.9	
776.45	8569.4	
776.63	5429.2	
776.81	4949.3	
776.98	6936.5	
777.16	7971.4	
777.34	5606.7	
777.51	5578	
777.69	6740.5	
777.87	6666.8	
778.04	5556.8	
778.22	6236.1	
778.4	6503.7	
778.57	7247.8	
778.75	4749.2	
778.93	4980	
779.1	6300.9	
779.28	6096.8	
779.46	4730.8	
779.64	5225.7	
779.81	7210.9	
779.99	8139.3	
780.17	5978.7	
780.34	6108.4	
780.52	6638.8	
780.69	6852.5	
780.87	5474.2	
781.05	4974.5	
781.22	6584.9	
781.4	6666.8	
781.58	5035.3	
781.75	4159.4	
781.93	6570.6	
782.11	5961	
782.28	5763	
782.46	4929.5	
782.64	5784.1	
782.81	6763.8	
782.99	4985.4	
783.17	5002.5	
783.34	6625.2	
783.52	5725.4	
783.69	5087.8	
783.87	5953.4	
784.05	5862	
784.22	5825.8	
784.4	5859.2	
784.58	5161.6	
784.75	6677.1	
784.93	5757.5	
785.1	4799.8	
785.28	5416.9	
785.46	6394.4	
785.63	5692.7	
785.81	4652.3	
785.99	4536.9	
786.16	5866.7	
786.34	6291.4	
786.51	4571.1	
786.69	4920.6	
786.87	5409.4	
787.04	5953.4	
787.22	4358.1	
787.39	5384.8	
787.57	5610.1	
787.75	6705	
787.92	5452.4	
788.1	5414.8	
788.27	5655.8	
788.45	5378.6	
788.63	5162.2	
788.8	3792.8	
788.98	6057.2	
789.15	5267.4	
789.33	3947.1	
789.5	4591.5	
789.68	6524.8	
789.86	6610.2	
790.03	5013.4	
790.21	4400.4	
790.38	6390.3	
790.56	5640.1	
790.73	4255	
790.91	4287.1	
791.09	5446.2	
791.26	6180.8	
791.44	4463.2	
791.61	3835.2	
791.79	5474.9	
791.96	5531.6	
792.14	3997	
792.32	3535.5	
792.49	5411.4	
792.67	5599.8	
792.84	4081.6	
793.02	3835.8	
793.19	5946.6	
793.37	6647	
793.54	3481.5	
793.72	3919.1	
793.89	6734.4	
794.07	5400.5	
794.25	4582	
794.42	3607.2	
794.6	6487.3	
794.77	6047	
794.95	4767	
795.12	4247.5	
795.3	5355.4	
795.47	5965.7	
795.65	4518.5	
795.82	4367	
796	5233.2	
796.17	7119.4	
796.35	4286.4	
796.52	4938.3	
796.7	5873.6	
796.87	5935.7	
797.05	5173.9	
797.22	5067.4	
797.4	5888.6	
797.57	6937.2	
797.75	4365.6	
797.92	4137.6	
798.1	6306.4	
798.27	5250.3	
798.45	3561.4	
798.62	3877.5	
798.8	5659.9	
798.97	6176	
799.15	4560.8	
799.32	4337.6	
799.5	4785.4	
799.67	5664.7	
799.85	4676.9	
800.02	3482.9	
800.2	5289.9	
800.37	5611.4	
800.55	4834.6	
800.72	4113	
800.9	5993.7	
801.07	6516	
801.25	5317.9	
801.42	4462.5	
801.6	6081.1	
801.77	5777.3	
801.95	4158.7	
802.12	3945.1	
802.29	5788.9	
802.47	5765.7	
802.64	4444.1	
802.82	3337.5	
802.99	5205.3	
803.17	6166.4	
803.34	4268.6	
803.52	3848.8	
803.69	6841.6	
803.87	4959.5	
804.04	4222.9	
804.21	4340.3	
804.39	6328.2	
804.56	5339.1	
804.74	3629.7	
804.91	4457.7	
805.09	5212.1	
805.26	5279.7	
805.44	3704.8	
805.61	3978.5	
805.78	5808.7	
805.96	5851.7	
806.13	4427.7	
806.31	4728.1	
806.48	4711	
806.66	5297.4	
806.83	4346.5	
807	4287.8	
807.18	5173.9	
807.35	5507	
807.53	4231.8	
807.7	3430.3	
807.87	6369.2	
808.05	5132.9	
808.22	4636.6	
808.4	3347.1	
808.57	5181.4	
808.74	4839.4	
808.92	3825.6	
809.09	4922.6	
809.27	5070.8	
809.44	5679	
809.61	3416.7	
809.79	3807.2	
809.96	6300.9	
810.14	5906.3	
810.31	3270.6	
810.48	4059.1	
810.66	5292	
810.83	6051.1	
811.01	3862.5	
811.18	4304.8	
811.35	5870.8	
811.53	4584	
811.7	4636.6	
811.87	4351.9	
812.05	5160.9	
812.22	5077.6	
812.39	3747.1	
812.57	3616	
812.74	5183.4	
812.92	6854.6	
813.09	4057	
813.26	4394.3	
813.44	6546.7	
813.61	5113.8	
813.78	3381.2	
813.96	4511.7	
814.13	5181.4	
814.3	4832.5	
814.48	4876.2	
814.65	4117.1	
814.82	6391	
815	4971.1	
815.17	4135.5	
815.34	5066.7	
815.52	5104.2	
815.69	5075.5	
815.87	4120.5	
816.04	3618.8	
816.21	5180	
816.38	4595	
816.56	3941.7	
816.73	3723.9	
816.9	6457.2	
817.08	5924.1	
817.25	3803.8	
817.42	4660.5	
817.6	4696	
817.77	5189.6	
817.94	4270.7	
818.12	3725.9	
818.29	4944.5	
818.46	7591.8	
818.64	3882.3	
818.81	3609.9	
818.98	4833.2	
819.16	6957.6	
819.33	4442.7	
819.5	4164.2	
819.67	5584.8	
819.85	6169.2	
820.02	4026.3	
820.19	4299.4	
820.37	5361.6	
820.54	4981.3	
820.71	4206.5	
820.88	5195.7	
821.06	5445.5	
821.23	4972.5	
821.4	4245.4	
821.58	4155.3	
821.75	5881.1	
821.92	5347.2	
822.09	3405.8	
822.27	3672	
822.44	5219.6	
822.61	5055.1	
822.79	3424.2	
822.96	6477.7	
823.13	5650.3	
823.3	4909	
823.48	3934.1	
823.65	3568.9	
823.82	5934.3	
823.99	4716.5	
824.17	4981.3	
824.34	3564.8	
824.51	6805.4	
824.68	5208.7	
824.86	3766.2	
825.03	4184	
825.2	5156.1	
825.37	6208.8	
825.55	3739.6	
825.72	4127.3	
825.89	6844.3	
826.06	6372.6	
826.24	4049.5	
826.41	4071.4	
826.58	6250.4	
826.75	5467.4	
826.92	3222.8	
827.1	3561.4	
827.27	8468.4	
827.44	6738.5	
827.61	3851.5	
827.79	4684.4	
827.96	4921.3	
828.13	5255.8	
828.3	4004.5	
828.47	3364.8	
828.65	5367	
828.82	5385.5	
828.99	5154.7	
829.16	4513	
829.34	5710.4	
829.51	5542.5	
829.68	4067.3	
829.85	4359.4	
830.02	6014.2	
830.2	5836.7	
830.37	3224.9	
830.54	5053	
830.71	6582.9	
830.88	5140.4	
831.05	3316.3	
831.23	3786	
831.4	6288.6	
831.57	7109.2	
831.74	3833.8	
831.91	3404.4	
832.09	5378	
832.26	5755.5	
832.43	3973.7	
832.6	4498	
832.77	5366.4	
832.94	6142.5	
833.12	3179.1	
833.29	3943	
833.46	5088.5	
833.63	7264.1	
833.8	4362.9	
833.97	4013.3	
834.15	5801.9	
834.32	5565	
834.49	4105.5	
834.66	4258.4	
834.83	6031.3	
835	4891.2	
835.17	3871.3	
835.35	3811.3	
835.52	5680.4	
835.69	5565	
835.86	4033.1	
836.03	3355.3	
836.2	5690.6	
836.37	5311.1	
836.55	3973.1	
836.72	3772.4	
836.89	5279	
837.06	5806	
837.23	4011.3	
837.4	4404.5	
837.57	6626.5	
837.75	7228.6	
837.92	3670	
838.09	3873.4	
838.26	5358.2	
838.43	6125.5	
838.6	4172.4	
838.77	3732.8	
838.94	6731	
839.11	6621.1	
839.29	4017.4	
839.46	3168.9	
839.63	5698.8	
839.8	5461.9	
839.97	3842.7	
840.14	3858.4	
840.31	5529.5	
840.48	5754.8	
840.65	3238.5	
840.82	3788.7	
841	5743.2	
841.17	5636	
841.34	3573	
841.51	3643.3	
841.68	5595.7	
841.85	5370.5	
842.02	3736.2	
842.19	3116.3	
842.36	5487.2	
842.53	5461.2	
842.7	3573.7	
842.87	4343.1	
843.05	7206.1	
843.22	5393	
843.39	3381.2	
843.56	3799.7	
843.73	5213.4	
843.9	5842.2	
844.07	5726.8	
844.24	4820.9	
844.41	8317.5	
844.58	4950.6	
844.75	3426.3	
844.92	3778.5	
845.09	5674.2	
845.26	5713.2	
845.43	3489.1	
845.6	3714.3	
845.77	5761.6	
845.94	5401.9	
846.12	3953.9	
846.29	4148.5	
846.46	5885.9	
846.63	5649.7	
846.8	3493.8	
846.97	4233.2	
847.14	6202.6	
847.31	5657.2	
847.48	4022.2	
847.65	4403.8	
847.82	6006	
847.99	5978.7	
848.16	4756.1	
848.33	4343.7	
848.5	5288.5	
848.67	6172.6	
848.84	3525.2	
849.01	3707.5	
849.18	5147.9	
849.35	4818.9	
849.52	4435.2	
849.69	3478.8	
849.86	5892.7	
850.03	6161	
850.2	3536.2	
850.37	4317.8	
850.54	6012.8	
850.71	5340.4	
850.88	4317.1	
851.05	3442	
851.22	5563.6	
851.39	6238.1	
851.56	3312.9	
851.73	4073.4	
851.9	5017.5	
852.07	5899.5	
852.24	3900	
852.41	3482.9	
852.58	5493.3	
852.75	5147.2	
852.92	3975.8	
853.09	3440.6	
853.26	5317.2	
853.43	6142.5	
853.6	3538.9	
853.77	3087.7	
853.94	6317.3	
854.11	5663.3	
854.28	5229.8	
854.44	3802.4	
854.61	6653.2	
854.78	5813.5	
854.95	3512.9	
855.12	4458.4	
855.29	4683.7	
855.46	6410.8	
855.63	3479.5	
855.8	4859.8	
855.97	5284.4	
856.14	6007.4	
856.31	4995.7	
856.48	3900.7	
856.65	5272.2	
856.82	4979.3	
856.99	3402.4	
857.16	3788.1	
857.33	6962.4	
857.49	5383.4	
857.66	3833.1	
857.83	4006.5	
858	5342.5	
858.17	5503.6	
858.34	3359.4	
858.51	3493.2	
858.68	6432.7	
858.85	6395.1	
859.02	4085	
859.19	4360.1	
859.36	5029.1	
859.52	5053	
859.69	3523.2	
859.86	4154.6	
860.03	5155.4	
860.2	6253.1	
860.37	3184.6	
860.54	3607.8	
860.71	5940.5	
860.88	6356.9	
861.05	3963.5	
861.21	4417.5	
861.38	6403.3	
861.55	4864.6	
861.72	3216.7	
861.89	3956	
862.06	6070.9	
862.23	6452.5	
862.4	3403.7	
862.56	3669.3	
862.73	5832.6	
862.9	5502.2	
863.07	4132.8	
863.24	3117.7	
863.41	4941.1	
863.58	5033.2	
863.75	3626.3	
863.91	4109.6	
864.08	6262.7	
864.25	5859.2	
864.42	4360.8	
864.59	4868	
864.76	6592.4	
864.93	5030.5	
865.09	3471.3	
865.26	3771.7	
865.43	6201.2	
865.6	6563.7	
865.77	3059.7	
865.94	3494.5	
866.1	6260.6	
866.27	5965.7	
866.44	5262.6	
866.61	3348.4	
866.78	5433.3	
866.95	5823.7	
867.11	3398.3	
867.28	3135.4	
867.45	6002.6	
867.62	5126.1	
867.79	4104.8	
867.96	3455.6	
868.12	5077.6	
868.29	5973.9	
868.46	3520.5	
868.63	4663.9	
868.8	6094.1	
868.97	5904.3	
869.13	3689.1	
869.3	3646.7	
869.47	5821.7	
869.64	6047.7	
869.81	3557.3	
869.97	3543	
870.14	5619.6	
870.31	6403.3	
870.48	3416.7	
870.65	4437.9	
870.81	5319.3	
870.98	5281	
871.15	3962.8	
871.32	3664.5	
871.48	5817.6	
871.65	6391.7	
871.82	3445.4	
871.99	3870.7	
872.16	6903	
872.32	6192.4	
872.49	3530.7	
872.66	3568.2	
872.83	5925.5	
872.99	5219.6	
873.16	4033.8	
873.33	3469.9	
873.5	5573.9	
873.67	5570.5	
873.83	3687.7	
874	4689.8	
874.17	5683.8	
874.34	6771.3	
874.5	4545.1	
874.67	4333.5	
874.84	6326.2	
875.01	4950.6	
875.17	4909	
875.34	3505.4	
875.51	5644.2	
875.68	6723.5	
875.84	4254.3	
876.01	5169.1	
876.18	5800.5	
876.34	5826.5	
876.51	3583.3	
876.68	3402.4	
876.85	5394.3	
877.01	6085.2	
877.18	5024.3	
877.35	3523.9	
877.52	5516.5	
877.68	4912.4	
877.85	3450.8	
878.02	3493.8	
878.18	5427.1	
878.35	5182	
878.52	2819.4	
878.69	3951.2	
878.85	5867.4	
879.02	5897.5	
879.19	4950.6	
879.35	3803.8	
879.52	5880.4	
879.69	6086.6	
879.86	3049.4	
880.02	3952.6	
880.19	5397.1	
880.36	6698.2	
880.52	4071.4	
880.69	4177.9	
880.86	5994.4	
881.02	6036.7	
881.19	3865.2	
881.36	3817.4	
881.52	5839.4	
881.69	5143.1	
881.86	3791.5	
882.02	3735.5	
882.19	6140.5	
882.36	7193.1	
882.52	3572.3	
882.69	4989.5	
882.86	5683.8	
883.02	5635.3	
883.19	4351.3	
883.36	3953.3	
883.52	5958.2	
883.69	6864.8	
883.86	3528	
884.02	3189.4	
884.19	5959.6	
884.36	5476.3	
884.52	3973.1	
884.69	3741.6	
884.86	5251.7	
885.02	6550.1	
885.19	3928.7	
885.36	4103.4	
885.52	5462.6	
885.69	5633.3	
885.86	5059.8	
886.02	4506.9	
886.19	5943.2	
886.35	5431.9	
886.52	3889.8	
886.69	4901.5	
886.85	4967	
887.02	6278.4	
887.19	6278.4	
887.35	6278.4	
887.52	6278.4	
887.68	6278.4	
887.85	6278.4	
888.02	6278.4	
888.18	6278.4	
888.35	6278.4	
888.51	6278.4	
888.68	6278.4	
888.85	6278.4	
889.01	6278.4	
889.18	6278.4	
889.35	6278.4	
889.51	6278.4	
889.68	6278.4	
889.84	6278.4	
890.01	6278.4	
890.17	6278.4	
890.34	6278.4	
890.51	6278.4	
890.67	6278.4	
890.84	6278.4	
891	6278.4	
891.17	6278.4	
891.34	6278.4	
891.5	6278.4	
891.67	6278.4	
891.83	6278.4	
892	6278.4	
892.16	6278.4	
892.33	6278.4	
892.5	6278.4	
892.66	6278.4	
892.83	6278.4	
892.99	6278.4	
893.16	6278.4	
893.32	6278.4	
893.49	6278.4	
893.65	6278.4	
893.82	6278.4	
893.99	6278.4	
894.15	6278.4	
894.32	6278.4	
894.48	6278.4	
894.65	6278.4	
894.81	6278.4	
894.98	6278.4	
895.14	6278.4	
895.31	6278.4	
895.47	6278.4	
895.64	6278.4	
895.81	6278.4	
895.97	6278.4	
896.14	6278.4	
896.3	6278.4	
896.47	6278.4	
896.63	6278.4	
896.8	6278.4	
896.96	6278.4	
897.13	6278.4	
897.29	6278.4	
897.46	6278.4	
897.62	6278.4	
897.79	6278.4	
897.95	6278.4	
898.12	6278.4	
898.28	6278.4	
898.45	6278.4	
898.61	6278.4	
898.78	6278.4	
898.94	6278.4	
899.11	6278.4	
899.27	6278.4	
899.44	6278.4	
899.6	6278.4	
899.77	6278.4	
899.93	6278.4	
900.1	6278.4	
900.26	6278.4	
900.43	6278.4	
900.59	6278.4	
900.76	6278.4	
900.92	6278.4	
901.09	6278.4	
901.25	6278.4	
901.42	6278.4	
901.58	6278.4	
901.75	6278.4	
901.91	6278.4	
902.07	6278.4	
902.24	6278.4	
902.4	6278.4	
902.57	6278.4	
902.73	6278.4	
902.9	6278.4	
903.06	6278.4	
903.23	6278.4	
903.39	6278.4	
903.56	6278.4	
903.72	6278.4	
903.88	6278.4	
904.05	6278.4	
904.21	6278.4	
904.38	6278.4	
904.54	6278.4	
904.71	6278.4	
904.87	6278.4	
905.03	6278.4	
905.2	6278.4	
905.36	6278.4	
905.53	6278.4	
905.69	6278.4	
905.86	6278.4	
906.02	6278.4	
906.18	6278.4	
906.35	6278.4	
906.51	6278.4	
906.68	6278.4	
906.84	6278.4	
907.01	6278.4	
907.17	6278.4	
907.33	6278.4	
907.5	6278.4	
907.66	6278.4	
907.83	6278.4	
907.99	6278.4	
908.15	6278.4	
908.32	6278.4	
908.48	6278.4	
908.65	6278.4	
908.81	6278.4	
908.97	6278.4	
909.14	6278.4	
909.3	6278.4	
909.47	6278.4	
909.63	6278.4	
909.79	6278.4	
909.96	6278.4	
910.12	6278.4	
910.28	6278.4	
910.45	6278.4	
910.61	6278.4	
910.78	6278.4	
910.94	6278.4	
911.1	6278.4	
911.27	6278.4	
911.43	6278.4	
911.59	6278.4	
911.76	6278.4	
911.92	6278.4	
912.08	6278.4	
912.25	6278.4	
912.41	6278.4	
912.57	6278.4	
912.74	6278.4	
912.9	6278.4	
913.07	6278.4	
913.23	6278.4	
913.39	6278.4	
913.56	6278.4	
913.72	6278.4	
913.88	6278.4	
914.05	6278.4	
914.21	6278.4	
914.37	6278.4	
914.54	6278.4	
914.7	6278.4	
914.86	6278.4	
915.03	6278.4	
915.19	6278.4	
