Wavelength	Intensities	
nm	a.u.	
179.22	1879.4	
179.44	1884.1	
179.65	1874.6	
179.86	1893.7	
180.08	1863.7	
180.29	4767.7	
180.51	3403.7	
180.72	5565.7	
180.94	6415.6	
181.15	3158	
181.37	3081.5	
181.58	5359.5	
181.79	5659.9	
182.01	3235.1	
182.22	3519.1	
182.44	5687.9	
182.65	4732.9	
182.87	4388.8	
183.08	3908.2	
183.29	5838.8	
183.51	4874.2	
183.72	3535.5	
183.94	5140.4	
184.15	5294.7	
184.37	5259.9	
184.58	3105.4	
184.79	4212.7	
185.01	4891.9	
185.22	5543.9	
185.44	4493.2	
185.65	3758.7	
185.86	5258.5	
186.08	4807.9	
186.29	3077.4	
186.51	3257	
186.72	4961.5	
186.94	5834.7	
187.15	3807.2	
187.36	3947.8	
187.58	7456.7	
187.79	5369.8	
188.01	4070.7	
188.22	6343.9	
188.43	6479.8	
188.65	5614.2	
188.86	3267.9	
189.08	3917.1	
189.29	5079	
189.5	5119.9	
189.72	3632.4	
189.93	3678.2	
190.15	5785.5	
190.36	6892.8	
190.57	3988.8	
190.79	3857.7	
191	5873.6	
191.22	5852.4	
191.43	4028.4	
191.64	3244	
191.86	6072.9	
192.07	5894.1	
192.29	3422.8	
192.5	3562.1	
192.71	5810.8	
192.93	5032.5	
193.14	3553.9	
193.35	3676.1	
193.57	5066	
193.78	5825.8	
194	2884.2	
194.21	3512.3	
194.42	4856.4	
194.64	5328.1	
194.85	3880.9	
195.07	4573.8	
195.28	5321.3	
195.49	4614.1	
195.71	4749.2	
195.92	3355.3	
196.13	5486.5	
196.35	5666	
196.56	5102.2	
196.78	3928.7	
196.99	6862.1	
197.2	6462	
197.42	4413.4	
197.63	3968.3	
197.84	4741	
198.06	5484.5	
198.27	3594.9	
198.48	4838.7	
198.7	5050.3	
198.91	5247.6	
199.13	3943	
199.34	3947.1	
199.55	5713.8	
199.77	4588.8	
199.98	3533.4	
200.19	3933.5	
200.41	5239.4	
200.62	4907.6	
200.83	4113.7	
201.05	4389.5	
201.26	5200.5	
201.47	4969.7	
201.69	3508.2	
201.9	3334.8	
202.11	5285.1	
202.33	6292	
202.54	3704.8	
202.76	4164.2	
202.97	5429.8	
203.18	5429.2	
203.4	4121.2	
203.61	4033.1	
203.82	5304.9	
204.04	4977.2	
204.25	3950.5	
204.46	3900	
204.68	5307.7	
204.89	5538.4	
205.1	3820.8	
205.32	3340.9	
205.53	5726.1	
205.74	5794.4	
205.96	2879.4	
206.17	4037.2	
206.38	5640.1	
206.6	5758.9	
206.81	4497.3	
207.02	3695.2	
207.24	5542.5	
207.45	5885.9	
207.66	3732.1	
207.88	3239.2	
208.09	5545.9	
208.3	5328.1	
208.52	3425.6	
208.73	3825.6	
208.94	5327.4	
209.15	6036.7	
209.37	3763.5	
209.58	3879.5	
209.79	5793	
210.01	5116.5	
210.22	3028.3	
210.43	3168.2	
210.65	5273.5	
210.86	5693.4	
211.07	3730.7	
211.29	3444	
211.5	5653.1	
211.71	5257.8	
211.93	3443.3	
212.14	3467.2	
212.35	5217.5	
212.56	5460.6	
212.78	3914.4	
212.99	3254.2	
213.2	6242.9	
213.42	5062.6	
213.63	3554.6	
213.84	3760.8	
214.06	4739.7	
214.27	4797	
214.48	3690.4	
214.69	3918.4	
214.91	5977.3	
215.12	6068.8	
215.33	4070	
215.55	4377.9	
215.76	6488.6	
215.97	5601.2	
216.18	3872.7	
216.4	3795.6	
216.61	4970.4	
216.82	5763	
217.04	3429.7	
217.25	3606.5	
217.46	5898.1	
217.67	5681.1	
217.89	3108.1	
218.1	3226.2	
218.31	5455.8	
218.53	5444.9	
218.74	3632.4	
218.95	3543.7	
219.16	5268.1	
219.38	6200.6	
219.59	3510.9	
219.8	4187.4	
220.01	6761.7	
220.23	5313.8	
220.44	4639.3	
220.65	3463.8	
220.87	5350.7	
221.08	5848.3	
221.29	3202.3	
221.5	4303.5	
221.72	7209.5	
221.93	5001.8	
222.14	3989.4	
222.35	4657.8	
222.57	5304.9	
222.78	5639.4	
222.99	3753.9	
223.2	4067.3	
223.42	5612.1	
223.63	5773.9	
223.84	2917	
224.05	2927.2	
224.27	6765.1	
224.48	6121.4	
224.69	4658.4	
224.9	3945.1	
225.12	5525.4	
225.33	5233.2	
225.54	3159.3	
225.75	3503.4	
225.97	4926	
226.18	5122	
226.39	3824.2	
226.6	3508.9	
226.82	5031.9	
227.03	4878.3	
227.24	3947.8	
227.45	3238.5	
227.67	5570.5	
227.88	6158.9	
228.09	4385.4	
228.3	4437.3	
228.52	5680.4	
228.73	5236.7	
228.94	3661.1	
229.15	3280.8	
229.36	5225.7	
229.58	5141.1	
229.79	3740.3	
230	4273.4	
230.21	6300.2	
230.43	5417.6	
230.64	3870	
230.85	4061.1	
231.06	5728.2	
231.28	5743.9	
231.49	3250.8	
231.7	3827	
231.91	5582.1	
232.12	5366.4	
232.34	3358	
232.55	3811.3	
232.76	5938.4	
232.97	5466.7	
233.18	3497.2	
233.4	3883.6	
233.61	5538.4	
233.82	5008	
234.03	3632.4	
234.25	3566.2	
234.46	7344.7	
234.67	5354.1	
234.88	4022.9	
235.09	3578.5	
235.31	5624.4	
235.52	5182	
235.73	3878.9	
235.94	3360.7	
236.15	5037.3	
236.37	6365.1	
236.58	3500	
236.79	3765.5	
237	5554.8	
237.21	4849.6	
237.43	4036.5	
237.64	3168.9	
237.85	9489.6	
238.06	4884.4	
238.27	4071.4	
238.48	3295.9	
238.7	5652.4	
238.91	5150	
239.12	3754.6	
239.33	3783.3	
239.54	5004.6	
239.76	5225.1	
239.97	3754.6	
240.18	3695.2	
240.39	6645.7	
240.6	5560.9	
240.82	3920.5	
241.03	3201.7	
241.24	5287.2	
241.45	6092.7	
241.66	3431.7	
241.87	4091.8	
242.09	5983.5	
242.3	6290	
242.51	4111	
242.72	3814	
242.93	5758.9	
243.14	5294	
243.36	4425	
243.57	4806.6	
243.78	6143.2	
243.99	5675.6	
244.2	3759.4	
244.41	3508.2	
244.63	4831.8	
244.84	5597.1	
245.05	4061.8	
245.26	3848.8	
245.47	5572.5	
245.68	5842.2	
245.9	5042.8	
246.11	4017.4	
246.32	5116.5	
246.53	5558.2	
246.74	6129.6	
246.95	3136.8	
247.16	4831.2	
247.38	5259.9	
247.59	3154.6	
247.8	3771.7	
248.01	4946.5	
248.22	5266.7	
248.43	3417.4	
248.64	3654.3	
248.86	4706.9	
249.07	5051.7	
249.28	3357.3	
249.49	3930.1	
249.7	5846.3	
249.91	5933.6	
250.12	3162.1	
250.34	3211.9	
250.55	5375.9	
250.76	5308.3	
250.97	3932.1	
251.18	3921.2	
251.39	5973.9	
251.6	5462.6	
251.81	3990.8	
252.03	3979.2	
252.24	5041.4	
252.45	5770.5	
252.66	3312.9	
252.87	4176.5	
253.08	5298.8	
253.29	6941.2	
253.5	3308.2	
253.72	4590.9	
253.93	5138.4	
254.14	6281.1	
254.35	3590.8	
254.56	3725.9	
254.77	5586.9	
254.98	4931.5	
255.19	3549.1	
255.41	4560.1	
255.62	5427.8	
255.83	5879	
256.04	4050.9	
256.25	3971.7	
256.46	6554.2	
256.67	5041.4	
256.88	3871.3	
257.09	4334.2	
257.31	4949.9	
257.52	4982.7	
257.73	4909	
257.94	3579.8	
258.15	5134.9	
258.36	5336.3	
258.57	4564.9	
258.78	2843.9	
258.99	5809.4	
259.2	5132.2	
259.41	3629	
259.63	3680.9	
259.84	6118	
260.05	6582.9	
260.26	4710.3	
260.47	3528	
260.68	5845.6	
260.89	5238	
261.1	4323.9	
261.31	3414	
261.52	5890	
261.73	6290.7	
261.95	4640.7	
262.16	4068.6	
262.37	5963.7	
262.58	6075.6	
262.79	4651.6	
263	3672	
263.21	5408.7	
263.42	5197.7	
263.63	3760.1	
263.84	3656.3	
264.05	5844.2	
264.26	6197.2	
264.47	4475.5	
264.69	4131.4	
264.9	5966.4	
265.11	5532.9	
265.32	3506.1	
265.53	3541.6	
265.74	5433.3	
265.95	4720.6	
266.16	3813.3	
266.37	4235.2	
266.58	5455.1	
266.79	5068.7	
267	3536.2	
267.21	3300	
267.42	4915.1	
267.63	5262.6	
267.84	3765.5	
268.06	3211.9	
268.27	5741.8	
268.48	6036.7	
268.69	3657	
268.9	4291.9	
269.11	5972.6	
269.32	4807.3	
269.53	3794.9	
269.74	3527.3	
269.95	5624.4	
270.16	4676.9	
270.37	3779.2	
270.58	4331.5	
270.79	5145.2	
271	5788.9	
271.21	4082.3	
271.42	3805.8	
271.63	5459.2	
271.84	5003.9	
272.05	3036.5	
272.26	3403	
272.47	5330.9	
272.68	5537	
272.89	3599	
273.11	4201.7	
273.32	5085.8	
273.53	6205.3	
273.74	4073.4	
273.95	3923.2	
274.16	5913.2	
274.37	5386.2	
274.58	4117.8	
274.79	3334.8	
275	5425.8	
275.21	5984.8	
275.42	5029.8	
275.63	4251.6	
275.84	5535.7	
276.05	7010.2	
276.26	3981.9	
276.47	3700	
276.68	5165	
276.89	6235.4	
277.1	4220.9	
277.31	3338.9	
277.52	5597.1	
277.73	5764.3	
277.94	3202.3	
278.15	3689.8	
278.36	5484.5	
278.57	4999.1	
278.78	3670.6	
278.99	4099.4	
279.2	4959.5	
279.41	4915.1	
279.62	4769.7	
279.83	3398.9	
280.04	6482.5	
280.25	4914.4	
280.46	4709	
280.67	3768.9	
280.88	4959.5	
281.09	5925.5	
281.3	3927.3	
281.51	5149.3	
281.72	5014.1	
281.93	5748.6	
282.14	3528	
282.35	3846.8	
282.56	5778.7	
282.77	5784.1	
282.98	3621.5	
283.19	4490.5	
283.4	7021.8	
283.61	5289.2	
283.82	3364.8	
284.03	4680.3	
284.24	5442.8	
284.45	5904.3	
284.66	4682.3	
284.87	4561.5	
285.08	5868.8	
285.29	6035.4	
285.5	3194.1	
285.71	3762.1	
285.92	5905.7	
286.12	6537.8	
286.33	4616.1	
286.54	3689.1	
286.75	5798.5	
286.96	5205.9	
287.17	3334.1	
287.38	4587.4	
287.59	4957.4	
287.8	4921.3	
288.01	3661.1	
288.22	4218.1	
288.43	5528.8	
288.64	4831.2	
288.85	4387.4	
289.06	4178.5	
289.27	5726.1	
289.48	6177.4	
289.69	4653.7	
289.9	4246.1	
290.11	5906.3	
290.32	5054.4	
290.53	4503.5	
290.74	4103.4	
290.94	5778	
291.15	5822.4	
291.36	3615.3	
291.57	4213.4	
291.78	5081.7	
291.99	4786.8	
292.2	3450.8	
292.41	4171	
292.62	5928.2	
292.83	5664	
293.04	5068.7	
293.25	3466.5	
293.46	5119.2	
293.67	5871.5	
293.88	3502.7	
294.09	3421.5	
294.29	4853	
294.5	5438	
294.71	3829	
294.92	3646.1	
295.13	5117.2	
295.34	6406	
295.55	3179.1	
295.76	3290.4	
295.97	5712.5	
296.18	6429.9	
296.39	3355.9	
296.6	3565.5	
296.81	5457.2	
297.01	5720.7	
297.22	3682.9	
297.43	3547.8	
297.64	4995.7	
297.85	4956.8	
298.06	2962	
298.27	3226.9	
298.48	5365	
298.69	5012.1	
298.9	3823.6	
299.11	3483.6	
299.31	4881	
299.52	4861.2	
299.73	4150.6	
299.94	4020.8	
300.15	5291.3	
300.36	5016.2	
300.57	4072.7	
300.78	4044.7	
300.99	5173.9	
301.2	5454.4	
301.4	3516.4	
301.61	3847.5	
301.82	5575.9	
302.03	5743.2	
302.24	4310.3	
302.45	3349.1	
302.66	5626.5	
302.87	6023.8	
303.08	3561.4	
303.29	4847.5	
303.49	5094.7	
303.7	5374.6	
303.91	3168.2	
304.12	4645.5	
304.33	4848.2	
304.54	5431.9	
304.75	3533.4	
304.96	3392.8	
305.16	5609.4	
305.37	6382.8	
305.58	3139.5	
305.79	3274	
306	5669.5	
306.21	4784.1	
306.42	3541.6	
306.63	5440.8	
306.83	5195.7	
307.04	5952.1	
307.25	3904.8	
307.46	3864.5	
307.67	4594.3	
307.88	5756.2	
308.09	3512.9	
308.29	3616	
308.5	5365	
308.71	5859.2	
308.92	3784	
309.13	3409.2	
309.34	5130.8	
309.55	5280.3	
309.75	4423.6	
309.96	4065.9	
310.17	5664.7	
310.38	5032.5	
310.59	4251.6	
310.8	3327.9	
311.01	5156.1	
311.21	5159.5	
311.42	3357.3	
311.63	3517.7	
311.84	5108.3	
312.05	5442.8	
312.26	3908.2	
312.46	4314.4	
312.67	5178.6	
312.88	4830.5	
313.09	3396.2	
313.3	3360.7	
313.51	6094.1	
313.71	6423.8	
313.92	3454.2	
314.13	3599	
314.34	5538.4	
314.55	5244.2	
314.76	4453.6	
314.96	3813.3	
315.17	5398.4	
315.38	5649.7	
315.59	3422.8	
315.8	3325.2	
316.01	6124.8	
316.21	6195.1	
316.42	3315	
316.63	3784	
316.84	5178.6	
317.05	5976	
317.26	4059.8	
317.46	3603.1	
317.67	5276.9	
317.88	5685.2	
318.09	4268.6	
318.3	3216.7	
318.5	4980.7	
318.71	5618.9	
318.92	5568.4	
319.13	4003.1	
319.34	5773.9	
319.54	5959.6	
319.75	3222.8	
319.96	3073.3	
320.17	5665.4	
320.38	5856.5	
320.58	3106.1	
320.79	3704.1	
321	5894.1	
321.21	5962.3	
321.42	3766.9	
321.62	3156.6	
321.83	4999.1	
322.04	5337	
322.25	3608.5	
322.46	3436.5	
322.66	5402.5	
322.87	5576.6	
323.08	4220.9	
323.29	3377.8	
323.5	6307.1	
323.7	4905.6	
323.91	4669.4	
324.12	4203.1	
324.33	5345.2	
324.53	5634	
324.74	4042.7	
324.95	4298	
325.16	4761.5	
325.37	5141.8	
325.57	3487	
325.78	3475.4	
325.99	5370.5	
326.2	4840.7	
326.4	4980	
326.61	3209.2	
326.82	5273.5	
327.03	5435.3	
327.24	4869.4	
327.44	4525.3	
327.65	5588.9	
327.86	4506.9	
328.07	3996.3	
328.27	3265.8	
328.48	5997.1	
328.69	4896	
328.9	4981.3	
329.1	3682.9	
329.31	5199.8	
329.52	6157.6	
329.73	3456.3	
329.93	3919.1	
330.14	5307	
330.35	5539.1	
330.56	5620.3	
330.76	4265.2	
330.97	5173.9	
331.18	5509	
331.39	3842.7	
331.59	3122.5	
331.8	5887.9	
332.01	6026.5	
332.22	3562.8	
332.42	4083	
332.63	5454.4	
332.84	4973.2	
333.05	3873.4	
333.25	3513.6	
333.46	5122	
333.67	5322	
333.88	3575.1	
334.08	3960.8	
334.29	7107.8	
334.5	5976.7	
334.7	3339.6	
334.91	4932.9	
335.12	4911.7	
335.33	5722.7	
335.53	3839.3	
335.74	5674.2	
335.95	5093.3	
336.16	4922.6	
336.36	3852.2	
336.57	4410	
336.78	4870.1	
336.98	5905	
337.19	4691.2	
337.4	3777.1	
337.61	6406	
337.81	4828.4	
338.02	3480.2	
338.23	4506.2	
338.43	6057.9	
338.64	4906.9	
338.85	3423.5	
339.05	4545.8	
339.26	6193.1	
339.47	4749.2	
339.68	3454.9	
339.88	5069.4	
340.09	5585.5	
340.3	5758.9	
340.5	4063.9	
340.71	3102.7	
340.92	4846.2	
341.13	6098.2	
341.33	3305.4	
341.54	4025.6	
341.75	5539.8	
341.95	5156.8	
342.16	3870.7	
342.37	4132.1	
342.57	4913.1	
342.78	5253.7	
342.99	4335.5	
343.19	3052.8	
343.4	5680.4	
343.61	5568.4	
343.81	3677.5	
344.02	3401.7	
344.23	5713.8	
344.43	6154.8	
344.64	4291.9	
344.85	4163.5	
345.06	5610.8	
345.26	5926.8	
345.47	3973.1	
345.68	4706.9	
345.88	4690.5	
346.09	5758.9	
346.3	4120.5	
346.5	3106.8	
346.71	5334.3	
346.92	4995.7	
347.12	3158.7	
347.33	3986.7	
347.54	5896.1	
347.74	6204.7	
347.95	3904.1	
348.16	2958.6	
348.36	5093.3	
348.57	4933.6	
348.78	3930.1	
348.98	4239.3	
349.19	5292	
349.39	4779.3	
349.6	3190.1	
349.81	3510.2	
350.01	5579.3	
350.22	5055.1	
350.43	3828.3	
350.63	4611.3	
350.84	5350.7	
351.05	5098.8	
351.25	3418.1	
351.46	3123.2	
351.67	5862	
351.87	5027.1	
352.08	3685	
352.29	4160.1	
352.49	5777.3	
352.7	5392.3	
352.9	3383.9	
353.11	4201.1	
353.32	6365.1	
353.52	5113.1	
353.73	3361.4	
353.94	4266.6	
354.14	5580	
354.35	5390.3	
354.55	3414.6	
354.76	3774.4	
354.97	5519.3	
355.17	5302.9	
355.38	3225.6	
355.59	4425	
355.79	4949.3	
356	5371.1	
356.2	3702	
356.41	3263.1	
356.62	4713.7	
356.82	5212.1	
357.03	4045.4	
357.24	3613.3	
357.44	5014.1	
357.65	5084.4	
357.85	4857.1	
358.06	3830.4	
358.27	4730.1	
358.47	4926	
358.68	3119.7	
358.88	4011.3	
359.09	5526.8	
359.3	5837.4	
359.5	4687.8	
359.71	4120.5	
359.91	6307.7	
360.12	5627.8	
360.33	3979.9	
360.53	4459.1	
360.74	5003.9	
360.94	5012.1	
361.15	4196.3	
361.36	3412.6	
361.56	5710.4	
361.77	5202.5	
361.97	4597.7	
362.18	3663.8	
362.38	5739.8	
362.59	4829.8	
362.8	3340.9	
363	3191.4	
363.21	4597	
363.41	5259.2	
363.62	3839.3	
363.83	4865.3	
364.03	5313.8	
364.24	6309.1	
364.44	4954	
364.65	4906.9	
364.85	5170.4	
365.06	4773.1	
365.27	3510.9	
365.47	3548.4	
365.68	6112.5	
365.88	5079	
366.09	3874.8	
366.29	3568.2	
366.5	5391.6	
366.71	5707.7	
366.91	4878.3	
367.12	4065.2	
367.32	6352.8	
367.53	5586.9	
367.73	3990.1	
367.94	4888.5	
368.14	5545.9	
368.35	6402	
368.56	3997	
368.76	3351.2	
368.97	5676.3	
369.17	7267.6	
369.38	3497.2	
369.58	3753.2	
369.79	4721.3	
369.99	6021.7	
370.2	4768.4	
370.4	3848.8	
370.61	5386.8	
370.82	6451.1	
371.02	3745.1	
371.23	3062.4	
371.43	4599.1	
371.64	5922	
371.84	3720.5	
372.05	4895.3	
372.25	7248.4	
372.46	5612.8	
372.66	3704.8	
372.87	3658.4	
373.07	5631.9	
373.28	7208.8	
373.48	4715.8	
373.69	4462.5	
373.9	5166.3	
374.1	5159.5	
374.31	4668.7	
374.51	4160.8	
374.72	5945.3	
374.92	4844.8	
375.13	4719.9	
375.33	3942.3	
375.54	5512.4	
375.74	4934.2	
375.95	4035.9	
376.15	5162.2	
376.36	5497.4	
376.56	5314.5	
376.77	4070.7	
376.97	4470.7	
377.18	6531	
377.38	5564.3	
377.59	4846.2	
377.79	3577.1	
378	5317.9	
378.2	5811.5	
378.41	3599	
378.61	3474.7	
378.82	5863.3	
379.02	4898.1	
379.23	3749.1	
379.43	4824.3	
379.64	5862.7	
379.84	5538.4	
380.05	3605.1	
380.25	3572.3	
380.46	5610.8	
380.66	5224.4	
380.87	4894.6	
381.07	5180.7	
381.28	6247	
381.48	5576.6	
381.69	3681.6	
381.89	3721.2	
382.1	4615.4	
382.3	5764.3	
382.51	4726	
382.71	5619.6	
382.91	5631.9	
383.12	6111.1	
383.32	4037.2	
383.53	4197.7	
383.73	5504.3	
383.94	5296	
384.14	4113.7	
384.35	3329.3	
384.55	5210	
384.76	5685.8	
384.96	4040.6	
385.17	4341	
385.37	5672.9	
385.58	4975.9	
385.78	4334.9	
385.98	3237.2	
386.19	5171.8	
386.39	5537.7	
386.6	3706.1	
386.8	4002.4	
387.01	5632.6	
387.21	5670.1	
387.42	4435.2	
387.62	4907.6	
387.83	4968.4	
388.03	5564.3	
388.23	4036.5	
388.44	4745.1	
388.64	4642.7	
388.85	4771.1	
389.05	4336.9	
389.26	4868	
389.46	6565.1	
389.67	6004.6	
389.87	4334.9	
390.07	4424.3	
390.28	5272.2	
390.48	4900.1	
390.69	3586	
390.89	3832.4	
391.1	5074.9	
391.3	5907.7	
391.5	5063.3	
391.71	5598.5	
391.91	5599.1	
392.12	6640.2	
392.32	5098.1	
392.53	4367	
392.73	5078.3	
392.93	5305.6	
393.14	4063.2	
393.34	4792.9	
393.55	5801.9	
393.75	5221.6	
393.95	4067.3	
394.16	3951.2	
394.36	4999.1	
394.57	5669.5	
394.77	3541.6	
394.98	3940.3	
395.18	4943.8	
395.38	5048.2	
395.59	4757.4	
395.79	3744.4	
396	5094	
396.2	5553.4	
396.4	4516.5	
396.61	4403.1	
396.81	5756.8	
397.02	5000.5	
397.22	4756.1	
397.42	4809.3	
397.63	5741.8	
397.83	4904.9	
398.04	3606.5	
398.24	4119.1	
398.44	5461.9	
398.65	4597	
398.85	3510.2	
399.05	3620.1	
399.26	4928.8	
399.46	6554.9	
399.67	3957.4	
399.87	3705.5	
400.07	5154.7	
400.28	5599.8	
400.48	3758.7	
400.69	4784.1	
400.89	5804.6	
401.09	6213.5	
401.3	3699.3	
401.5	4823.6	
401.7	6389.7	
401.91	6650.4	
402.11	4020.2	
402.32	4300.1	
402.52	5853.1	
402.72	5742.5	
402.93	4470	
403.13	3405.1	
403.33	6538.5	
403.54	5324	
403.74	4091.2	
403.94	4949.3	
404.15	5369.8	
404.35	6569.2	
404.56	3958.7	
404.76	5684.5	
404.96	5779.4	
405.17	5601.2	
405.37	5181.4	
405.57	4424.3	
405.78	5802.6	
405.98	5285.8	
406.18	3946.4	
406.39	4802.5	
406.59	5808	
406.79	5428.5	
407	3783.3	
407.2	3870	
407.4	5831.9	
407.61	5982.1	
407.81	3820.8	
408.01	6157.6	
408.22	4778.6	
408.42	6635.4	
408.62	4804.5	
408.83	4281.6	
409.03	5350	
409.23	5144.5	
409.44	4315.1	
409.64	4556.7	
409.84	6124.1	
410.05	6027.9	
410.25	4382.7	
410.45	4201.7	
410.66	5494	
410.86	7890.8	
411.06	4590.9	
411.27	4465.9	
411.47	7621.9	
411.67	5681.1	
411.88	4665.3	
412.08	4898.7	
412.28	6146	
412.49	6730.3	
412.69	4389.5	
412.89	4370.4	
413.09	6523.5	
413.3	6378.7	
413.5	4444.1	
413.7	4031.1	
413.91	5666.7	
414.11	6521.4	
414.31	4321.9	
414.52	4700.8	
414.72	6103.6	
414.92	6034.7	
415.12	4267.3	
415.33	4733.5	
415.53	6464.1	
415.73	6559.6	
415.94	5132.2	
416.14	4534.2	
416.34	5446.9	
416.55	5228.5	
416.75	5708.4	
416.95	5102.9	
417.15	6419	
417.36	7155.6	
417.56	5842.2	
417.76	4923.3	
417.97	6693.4	
418.17	6396.5	
418.37	4577.9	
418.57	4628.4	
418.78	6228.6	
418.98	5932.3	
419.18	5482.4	
419.38	5330.2	
419.59	5933	
419.79	5571.8	
419.99	4461.8	
420.2	4837.3	
420.4	6381.5	
420.6	6605.4	
420.8	4427	
421.01	4328.7	
421.21	6225.1	
421.41	6419	
421.61	4883.7	
421.82	4484.4	
422.02	5822.4	
422.22	6759.7	
422.42	5328.1	
422.63	4990.9	
422.83	5956.9	
423.03	7060.7	
423.23	4975.9	
423.44	4009.2	
423.64	5997.8	
423.84	5789.6	
424.04	4513	
424.25	4098	
424.45	6883.9	
424.65	6918	
424.85	3959.4	
425.06	4534.9	
425.26	6937.8	
425.46	5479.7	
425.66	5027.1	
425.87	4691.9	
426.07	6597.9	
426.27	6484.6	
426.47	4848.9	
426.67	4243.4	
426.88	7004.7	
427.08	6475	
427.28	5094.7	
427.48	4153.3	
427.69	5459.2	
427.89	6041.5	
428.09	5061.9	
428.29	4219.5	
428.5	6743.3	
428.7	6313.2	
428.9	4057.7	
429.1	4605.2	
429.3	6130.3	
429.51	6530.3	
429.71	4427.7	
429.91	5182.7	
430.11	6417.7	
430.31	6675	
430.52	4674.1	
430.72	5043.5	
430.92	7021.8	
431.12	6525.5	
431.32	4374.5	
431.53	4761.5	
431.73	5409.4	
431.93	7050.5	
432.13	4379.9	
432.33	4218.8	
432.54	5831.9	
432.74	6229.9	
432.94	4131.4	
433.14	5101.5	
433.34	6394.4	
433.55	5913.9	
433.75	5055.8	
433.95	6720.8	
434.15	6163.7	
434.35	5836.7	
434.56	4318.5	
434.76	3843.4	
434.96	6122.7	
435.16	6314.6	
435.36	4158.1	
435.56	5221.6	
435.77	5760.3	
435.97	5905	
436.17	5953.4	
436.37	5197.7	
436.57	5804.6	
436.78	5666	
436.98	6909.8	
437.18	5765	
437.38	6417	
437.58	6034.7	
437.78	5916.6	
437.99	4558.1	
438.19	6532.3	
438.39	7196.6	
438.59	4573.8	
438.79	4076.8	
438.99	7126.9	
439.2	5987.6	
439.4	4214	
439.6	4086.4	
439.8	6299.6	
440	7277.1	
440.2	5056.4	
440.4	5259.2	
440.61	6605.4	
440.81	7212.9	
441.01	4319.2	
441.21	5157.5	
441.41	6987.7	
441.61	6647.7	
441.81	5419.6	
442.02	6421.1	
442.22	7429.3	
442.42	6731	
442.62	4384.7	
442.82	4429.1	
443.02	6947.4	
443.22	6090.7	
443.43	4827.1	
443.63	4326.7	
443.83	5910.4	
444.03	5968.5	
444.23	5595.1	
444.43	5190.2	
444.63	6231.3	
444.83	7425.9	
445.04	4389.5	
445.24	5685.8	
445.44	6721.4	
445.64	6727.6	
445.84	5197.1	
446.04	5245.5	
446.24	6072.9	
446.44	7060	
446.65	4504.8	
446.85	4859.8	
447.05	6379.4	
447.25	7053.9	
447.45	4974.5	
447.65	4342.4	
447.85	6387.6	
448.05	5988.3	
448.25	5324	
448.46	5132.9	
448.66	6313.2	
448.86	6051.1	
449.06	4185.4	
449.26	5362.3	
449.46	6721.4	
449.66	5801.9	
449.86	4824.3	
450.06	4835.9	
450.26	5921.4	
450.47	6498.9	
450.67	5154.7	
450.87	5449	
451.07	6602.7	
451.27	6401.3	
451.47	4405.2	
451.67	4922	
451.87	6011.5	
452.07	7203.4	
452.27	4633.2	
452.47	4649.6	
452.67	6457.2	
452.88	6771.3	
453.08	4023.6	
453.28	6015.6	
453.48	7517.4	
453.68	6373.3	
453.88	4541	
454.08	4741.7	
454.28	6683.9	
454.48	6327.5	
454.68	5297.4	
454.88	5752.7	
455.08	6832	
455.28	6407.4	
455.48	4450.9	
455.68	4965.6	
455.89	7215.7	
456.09	6848.4	
456.29	4767	
456.49	4828.4	
456.69	7021.1	
456.89	6296.1	
457.09	5280.3	
457.29	5541.8	
457.49	6708.5	
457.69	6773.3	
457.89	5053.7	
458.09	4513.7	
458.29	6358.9	
458.49	7090.8	
458.69	5438	
458.89	4831.8	
459.09	7273	
459.29	7408.2	
459.49	4951.3	
459.69	5765	
459.9	6948.1	
460.1	6371.2	
460.3	4891.2	
460.5	4659.8	
460.7	6857.3	
460.9	6531	
461.1	4314.4	
461.3	5555.5	
461.5	7502.4	
461.7	7103.7	
461.9	4690.5	
462.1	5064.6	
462.3	6578.8	
462.5	7108.5	
462.7	4676.2	
462.9	4904.2	
463.1	8122.2	
463.3	7810.3	
463.5	5033.9	
463.7	5902.2	
463.9	6755.6	
464.1	7144	
464.3	5065.3	
464.5	5373.9	
464.7	7407.5	
464.9	6877.1	
465.1	6633.4	
465.3	5651	
465.5	7644.4	
465.7	7593.2	
465.9	5913.9	
466.1	5742.5	
466.3	7304.4	
466.5	7260	
466.7	6623.8	
466.9	5511.1	
467.1	7198.6	
467.3	8088.1	
467.5	6492.1	
467.7	5393.7	
467.9	8355	
468.1	9176.3	
468.3	6311.2	
468.5	6614.9	
468.7	7135.1	
468.9	7113.3	
469.1	5624.4	
469.3	6348.7	
469.5	9060.2	
469.7	6720.1	
469.9	6148.7	
470.1	5494.7	
470.3	7253.9	
470.5	7200.7	
470.7	6668.9	
470.9	5522.7	
471.1	6959	
471.3	7417.7	
471.5	5322	
471.69	7326.9	
471.89	6926.2	
472.09	6440.9	
472.29	6135.7	
472.49	6571.2	
472.69	6679.8	
472.89	7380.9	
473.09	5307	
473.29	5482.4	
473.49	6799.9	
473.69	6932.4	
473.89	6322.8	
474.09	5685.2	
474.29	8146.8	
474.49	7918.1	
474.69	6446.3	
474.89	5739.1	
475.09	6963.8	
475.29	6936.5	
475.49	5184.8	
475.69	5396.4	
475.88	8576.9	
476.08	7247.8	
476.28	5135.6	
476.48	5579.3	
476.68	7735.2	
476.88	7568.6	
477.08	5517.9	
477.28	5736.4	
477.48	7094.8	
477.68	7759.1	
477.88	5274.9	
478.08	5636.7	
478.28	8071	
478.48	7208.2	
478.67	5707.7	
478.87	5162.9	
479.07	7880.6	
479.27	7351.5	
479.47	5928.9	
479.67	5800.5	
479.87	7669	
480.07	8208.3	
480.27	5096	
480.47	6761.7	
480.67	7411.6	
480.87	8030.1	
481.06	5471.5	
481.26	6293.4	
481.46	7272.3	
481.66	7247.1	
481.86	5925.5	
482.06	6850.5	
482.26	7057.3	
482.46	7991.2	
482.66	5823.7	
482.86	5461.2	
483.05	7360.4	
483.25	6781.5	
483.45	8148.9	
483.65	5771.2	
483.85	6940.6	
484.05	7220.5	
484.25	6244.3	
484.45	6629.3	
484.65	8115.4	
484.84	8114.1	
485.04	5750	
485.24	5624.4	
485.44	8344.1	
485.64	6694.1	
485.84	5091.3	
486.04	6361.7	
486.24	7099.6	
486.44	7389.1	
486.63	5009.3	
486.83	5803.9	
487.03	6987	
487.23	7095.5	
487.43	5111.7	
487.63	7425.9	
487.83	7281.9	
488.02	8181.6	
488.22	6026.5	
488.42	6579.4	
488.62	8026.7	
488.82	7027.3	
489.02	5682.4	
489.22	5758.2	
489.41	8043.7	
489.61	7531.7	
489.81	5444.2	
490.01	5525.4	
490.21	7835.5	
490.41	8452	
490.61	5426.4	
490.8	5588.2	
491	7333.8	
491.2	6815	
491.4	6066.8	
491.6	5311.1	
491.8	7239.6	
491.99	7587.7	
492.19	5179.3	
492.39	5556.8	
492.59	7940	
492.79	8062.2	
492.99	6353.5	
493.18	5412.8	
493.38	8006.9	
493.58	8637	
493.78	6053.1	
493.98	5735	
494.18	7704.5	
494.37	7109.2	
494.57	6337.1	
494.77	6196.5	
494.97	7806.9	
495.17	8062.9	
495.37	5770.5	
495.56	6128.2	
495.76	8249.2	
495.96	7960.5	
496.16	6995.9	
496.36	5924.8	
496.55	8181.6	
496.75	7576.8	
496.95	6297.5	
497.15	6115.2	
497.35	8028.7	
497.54	8017.8	
497.74	6029.2	
497.94	7453.9	
498.14	8787.2	
498.34	8563.9	
498.53	5668.1	
498.73	6457.9	
498.93	7424.6	
499.13	8018.5	
499.33	6244.9	
499.52	6767.2	
499.72	7947.5	
499.92	8327	
500.12	5949.3	
500.32	6152.8	
500.51	8328.4	
500.71	8022.6	
500.91	6998.6	
501.11	6642.2	
501.31	8200.7	
501.5	8635.6	
501.7	7191.8	
501.9	6342.6	
502.1	8107.2	
502.29	8290.9	
502.49	6775.4	
502.69	7240.9	
502.89	8257.4	
503.09	8237.6	
503.28	5778	
503.48	6002.6	
503.68	7525.6	
503.88	7559.1	
504.07	6894.8	
504.27	6492.1	
504.47	7911.3	
504.67	8037.6	
504.86	6801.3	
505.06	6573.3	
505.26	7699.7	
505.46	9390.6	
505.65	6421.1	
505.85	6629.3	
506.05	7648.5	
506.25	8026	
506.44	5823.1	
506.64	6745.3	
506.84	7490.1	
507.04	8578.9	
507.23	6064	
507.43	6606.7	
507.63	9406.3	
507.83	7864.2	
508.02	6590.4	
508.22	6236.7	
508.42	9735.4	
508.62	7528.3	
508.81	6455.2	
509.01	7026.6	
509.21	7448.5	
509.4	7699.7	
509.6	6700.3	
509.8	6087.9	
510	7724.9	
510.19	9085.5	
510.39	6072.2	
510.59	6214.9	
510.79	7516	
510.98	8912.8	
511.18	6213.5	
511.38	6290	
511.57	8340	
511.77	8257.4	
511.97	6929.6	
512.17	5993.7	
512.36	8292.2	
512.56	8338.6	
512.76	6029.2	
512.95	5954.1	
513.15	8555	
513.35	7096.9	
513.55	7055.3	
513.74	6123.4	
513.94	8433.5	
514.14	7775.5	
514.33	6980.2	
514.53	6711.9	
514.73	7800	
514.92	7978.9	
515.12	6240.8	
515.32	6026.5	
515.51	8039	
515.71	8519.5	
515.91	7710.6	
516.11	6195.1	
516.3	9705.3	
516.5	7691.5	
516.7	6798.6	
516.89	7322.2	
517.09	7814.4	
517.29	7643.7	
517.48	7073.7	
517.68	6447.7	
517.88	7503.8	
518.07	8201.4	
518.27	6926.2	
518.47	6042.2	
518.66	8775.5	
518.86	7423.2	
519.06	5851	
519.25	6315.9	
519.45	7801.4	
519.65	9170.1	
519.84	6954.9	
520.04	7595.2	
520.24	9525.1	
520.43	8327.7	
520.63	6749.4	
520.83	6430.6	
521.02	7590.5	
521.22	8262.2	
521.42	6998.6	
521.61	7432.1	
521.81	7838.9	
522.01	8038.3	
522.2	6860	
522.4	6622.4	
522.6	8557.8	
522.79	7292.8	
522.99	6701.6	
523.18	5969.8	
523.38	8280.6	
523.58	8271.1	
523.77	7891.5	
523.97	6047	
524.17	10049	
524.36	9186.5	
524.56	7322.2	
524.76	7078.5	
524.95	8252.6	
525.15	7985	
525.34	6865.5	
525.54	6838.2	
525.74	8614.4	
525.93	7705.8	
526.13	7963.9	
526.33	6782.9	
526.52	8953	
526.72	8403.5	
526.91	8023.3	
527.11	7287.4	
527.31	9055.4	
527.5	9409.1	
527.7	7248.4	
527.89	6266.8	
528.09	8087.4	
528.29	8555.7	
528.48	7604.8	
528.68	7298.3	
528.87	8928.5	
529.07	9028.1	
529.27	7139.2	
529.46	6810.9	
529.66	8598.7	
529.85	9013.1	
530.05	6651.1	
530.25	7480.5	
530.44	9914.9	
530.64	8568	
530.83	7062.1	
531.03	7295.5	
531.23	8953	
531.42	8918.2	
531.62	7983.7	
531.81	7318.1	
532.01	9091.6	
532.21	9652.8	
532.4	7037.5	
532.6	7361.1	
532.79	9987.9	
532.99	9265.7	
533.18	7422.5	
533.38	8412.4	
533.58	8748.2	
533.77	9568.1	
533.97	7364.5	
534.16	8219.2	
534.36	9858.2	
534.55	8946.2	
534.75	8310	
534.95	7468.9	
535.14	9703.3	
535.34	8818.6	
535.53	7060	
535.73	9078.6	
535.92	10189	
536.12	9052	
536.31	7181.5	
536.51	8413.7	
536.71	9329.9	
536.9	8942.1	
537.1	7412.3	
537.29	7591.8	
537.49	9822.1	
537.68	8888.9	
537.88	7987.1	
538.07	7169.3	
538.27	9106.6	
538.46	10072	
538.66	7093.5	
538.86	7509.2	
539.05	9121	
539.25	9589.3	
539.44	7909.9	
539.64	7410.9	
539.83	9036.3	
540.03	9926.5	
540.22	7331	
540.42	7498.3	
540.61	9336	
540.81	9340.8	
541	8046.5	
541.2	8557.8	
541.39	8891.6	
541.59	9316.2	
541.78	8257.4	
541.98	7386.3	
542.18	8542.8	
542.37	8548.9	
542.57	7670.3	
542.76	8211	
542.96	8628.8	
543.15	9355.8	
543.35	7783	
543.54	7156.3	
543.74	9654.1	
543.93	9152.4	
544.13	7710.6	
544.32	8806.9	
544.52	9510.8	
544.71	8877.9	
544.91	6940.6	
545.1	8172.1	
545.3	8797.4	
545.49	9406.3	
545.69	6930.3	
545.88	7483.3	
546.08	10405	
546.27	10014	
546.47	8043.1	
546.66	7236.8	
546.86	9637.1	
547.05	10270	
547.24	7570.7	
547.44	7406.1	
547.63	8597.4	
547.83	9809.8	
548.02	7695.6	
548.22	7942	
548.41	8488.8	
548.61	9842.5	
548.8	7286	
549	7196.6	
549.19	9153.1	
549.39	9539.4	
549.58	7047.1	
549.78	7572	
549.97	9508.7	
550.17	8899.1	
550.36	8431.5	
550.55	9362.6	
550.75	9054.1	
550.94	9999.5	
551.14	7174.7	
551.33	7638.9	
551.53	8331.1	
551.72	9413.1	
551.92	7684.7	
552.11	7440.3	
552.31	9419.3	
552.5	9473.9	
552.69	9088.9	
552.89	7139.9	
553.08	9301.2	
553.28	9046.6	
553.47	7451.2	
553.67	8511.4	
553.86	10066	
554.06	8350.9	
554.25	6598.6	
554.44	7243.7	
554.64	10693	
554.83	10262	
555.03	7279.8	
555.22	7537.9	
555.42	9606.3	
555.61	9284.1	
555.8	7419.8	
556	7664.9	
556.19	8474.5	
556.39	9797.5	
556.58	7516.7	
556.78	7511.9	
556.97	9211.8	
557.16	8921	
557.36	8649.3	
557.55	7073	
557.75	8261.5	
557.94	10027	
558.13	7330.4	
558.33	7075.7	
558.52	9724.4	
558.72	8594	
558.91	7155.6	
559.1	7345.4	
559.3	8353.7	
559.49	8102.4	
559.69	6726.9	
559.88	7666.9	
560.07	9183.1	
560.27	9634.3	
560.46	7893.6	
560.66	7968.6	
560.85	8960.5	
561.04	8179.6	
561.24	7129	
561.43	7229.3	
561.63	8441.7	
561.82	8720.9	
562.01	8517.5	
562.21	7616.4	
562.4	9207	
562.59	10121	
562.79	7505.8	
562.98	7066.9	
563.18	9040.4	
563.37	10563	
563.56	7942	
563.76	6965.1	
563.95	8589.9	
564.14	8496.3	
564.34	7410.9	
564.53	7204.1	
564.73	9082.7	
564.92	9460.3	
565.11	7536.5	
565.31	6855.2	
565.5	9654.1	
565.69	8614.4	
565.89	7180.9	
566.08	7434.8	
566.27	9555.1	
566.47	9917.6	
566.66	8056	
566.85	6781.5	
567.05	9128.5	
567.24	8523	
567.44	7090.8	
567.63	8397.4	
567.82	9303.2	
568.02	9116.9	
568.21	7165.2	
568.4	7499.7	
568.6	8955.1	
568.79	9057.5	
568.98	7002	
569.18	7124.9	
569.37	8927.1	
569.56	10862	
569.76	7520.8	
569.95	8487.5	
570.14	9383.1	
570.34	9217.9	
570.53	7021.8	
570.72	7024.5	
570.91	9796.1	
571.11	8920.3	
571.3	7628.7	
571.49	8451.3	
571.69	9006.3	
571.88	8561.9	
572.07	8024.6	
572.27	8071	
572.46	8497	
572.65	9534	
572.85	7264.1	
573.04	7622.5	
573.23	9824.8	
573.43	9086.2	
573.62	7040.2	
573.81	7586.4	
574	9159.2	
574.2	8828.8	
574.39	7383.6	
574.58	7590.5	
574.78	10043	
574.97	9193.3	
575.16	7940	
575.36	8070.4	
575.55	9656.2	
575.74	9717.6	
575.93	7088.7	
576.13	8188.5	
576.32	9063.6	
576.51	9536.7	
576.71	7548.8	
576.9	8780.3	
577.09	9904	
577.28	9350.3	
577.48	7905.2	
577.67	6969.2	
577.86	9015.2	
578.05	9476	
578.25	7579.5	
578.44	7681.2	
578.63	9057.5	
578.83	10360	
579.02	7068.2	
579.21	8502.5	
579.4	9352.4	
579.6	9099.8	
579.79	7829.4	
579.98	9863	
580.17	9682.8	
580.37	9888.3	
580.56	7258.7	
580.75	8019.2	
580.94	10177	
581.14	9994.1	
581.33	8424	
581.52	7461.4	
581.71	9452.7	
581.91	10295	
582.1	7096.9	
582.29	7692.2	
582.48	9216.5	
582.68	9080.7	
582.87	8188.5	
583.06	7732.4	
583.25	9555.8	
583.45	9188.6	
583.64	8521.6	
583.83	9045.2	
584.02	9020.6	
584.21	9456.8	
584.41	8377.6	
584.6	7776.1	
584.79	9282.1	
584.98	10034	
585.18	7307.8	
585.37	7243.7	
585.56	8756.4	
585.75	9519	
585.94	7384.3	
586.14	8039.6	
586.33	10144	
586.52	9166	
586.71	7863.5	
586.91	7610.3	
587.1	8623.3	
587.29	9719	
587.48	7626	
587.67	7486	
587.87	9383.1	
588.06	9609.1	
588.25	8763.3	
588.44	8075.1	
588.63	9082.7	
588.83	9725.1	
589.02	7492.2	
589.21	7370.6	
589.4	8921.6	
589.59	8846.5	
589.78	6766.5	
589.98	6939.2	
590.17	8443.8	
590.36	8890.2	
590.55	6336.4	
590.74	7212.3	
590.94	10284	
591.13	8826.7	
591.32	7018.4	
591.51	6607.4	
591.7	9249.3	
591.89	8758.5	
592.09	6675.7	
592.28	7120.1	
592.47	8172.1	
592.66	9961.3	
592.85	6632.7	
593.05	6913.3	
593.24	8684.1	
593.43	9493	
593.62	6995.2	
593.81	7479.9	
594	8761.2	
594.19	8935.3	
594.39	6925.5	
594.58	6825.2	
594.77	9082.7	
594.96	9514.9	
595.15	6828.6	
595.34	7453.9	
595.54	9148.3	
595.73	8224	
595.92	6198.5	
596.11	7268.2	
596.3	9525.1	
596.49	8197.3	
596.68	7059.3	
596.88	7515.4	
597.07	9264.3	
597.26	8094.9	
597.45	6625.9	
597.64	7730.4	
597.83	8284	
598.02	8942.1	
598.22	6705	
598.41	7443.7	
598.6	8808.3	
598.79	8263.6	
598.98	6648.4	
599.17	7632.8	
599.36	8795.3	
599.55	9867.8	
599.74	8624.7	
599.94	8475.2	
600.13	9234.3	
600.32	8184.4	
600.51	6457.9	
600.7	6597.9	
600.89	9891	
601.08	9984.5	
601.27	6399.2	
601.47	7444.4	
601.66	9146.2	
601.85	9797.5	
602.04	7105.8	
602.23	7336.5	
602.42	8283.4	
602.61	8959.9	
602.8	6883.9	
602.99	6760.3	
603.18	8528.4	
603.37	8837	
603.57	7304.4	
603.76	7958.4	
603.95	9563.3	
604.14	9155.1	
604.33	6832	
604.52	7095.5	
604.71	8768.7	
604.9	8456.1	
605.09	7958.4	
605.28	7542.7	
605.47	9375.6	
605.66	9022.7	
605.86	7376.8	
606.05	6898.9	
606.24	9401.5	
606.43	7930.4	
606.62	7168.6	
606.81	7822.6	
607	9282.8	
607.19	8507.3	
607.38	6581.5	
607.57	6826.6	
607.76	8313.4	
607.95	7836.9	
608.14	7258.7	
608.33	7734.5	
608.52	8340.7	
608.72	9119.6	
608.91	6498.9	
609.1	6343.9	
609.29	8427.4	
609.48	8019.8	
609.67	7368.6	
609.86	6449.1	
610.05	8013	
610.24	8410.3	
610.43	6298.2	
610.62	6008.1	
610.81	9482.1	
611	9241.1	
611.19	6456.6	
611.38	7199.3	
611.57	8599.4	
611.76	9926.5	
611.95	6254.5	
612.14	6128.2	
612.33	8472.4	
612.52	7980.9	
612.71	6756.9	
612.9	6068.1	
613.09	7580.2	
613.28	9880.1	
613.47	6501.6	
613.66	7421.2	
613.85	8621.3	
614.04	8128.4	
614.24	6575.3	
614.43	5849	
614.62	8703.9	
614.81	8669.7	
615	7075.7	
615.19	7134.4	
615.38	8026	
615.57	8363.9	
615.76	7012.2	
615.95	7960.5	
616.14	8667.7	
616.33	8415.1	
616.52	7398.6	
616.71	7526.3	
616.9	8688.2	
617.09	8464.3	
617.28	6630.6	
617.47	7901.7	
617.66	7808.9	
617.85	7856.7	
618.04	7571.3	
618.22	7140.6	
618.41	8122.2	
618.6	9163.3	
618.79	7037.5	
618.98	6648.4	
619.17	9325.8	
619.36	7712.7	
619.55	6778.1	
619.74	6797.2	
619.93	8719.6	
620.12	8127	
620.31	7448.5	
620.5	7528.3	
620.69	9600.2	
620.88	9568.8	
621.07	8228.7	
621.26	7250.5	
621.45	8911.4	
621.64	8851.3	
621.83	7401.4	
622.02	6611.5	
622.21	8915.5	
622.4	8683.4	
622.59	7920.9	
622.78	7621.2	
622.97	8271.7	
623.16	9254.1	
623.35	7292.8	
623.54	6533.7	
623.72	8491.6	
623.91	8700.5	
624.1	7553.6	
624.29	6292.7	
624.48	9712.8	
624.67	8966.7	
624.86	7621.9	
625.05	6636.8	
625.24	9806.4	
625.43	8198	
625.62	9168.8	
625.81	6884.6	
626	9211.1	
626.19	8492.9	
626.38	7647.8	
626.56	7092.8	
626.75	8391.2	
626.94	9103.9	
627.13	7573.4	
627.32	6456.6	
627.51	9022.7	
627.7	10205	
627.89	6350.1	
628.08	7623.2	
628.27	8243.8	
628.46	8498.4	
628.65	6770.6	
628.83	6451.1	
629.02	9038.4	
629.21	8355	
629.4	7189.1	
629.59	7359.7	
629.78	8193.9	
629.97	9202.9	
630.16	7453.2	
630.35	6924.9	
630.54	9607	
630.72	9306	
630.91	6916	
631.1	7494.2	
631.29	8763.9	
631.48	8987.2	
631.67	7564.5	
631.86	7087.3	
632.05	8470.4	
632.24	8497	
632.42	6680.5	
632.61	7357	
632.8	8553	
632.99	8198.7	
633.18	7324.2	
633.37	7646.4	
633.56	8781	
633.75	8581	
633.93	7255.3	
634.12	6981.5	
634.31	9585.9	
634.5	9192.6	
634.69	6993.1	
634.88	7595.2	
635.07	8573.5	
635.25	9125.7	
635.44	7944.1	
635.63	8124.3	
635.82	8387.8	
636.01	7967.3	
636.2	7816.4	
636.39	7449.1	
636.57	9534	
636.76	9192	
636.95	6759.7	
637.14	8219.2	
637.33	8951.7	
637.52	9833.7	
637.7	6591	
637.89	7549.5	
638.08	8577.6	
638.27	9850	
638.46	7621.9	
638.65	8023.3	
638.83	9876.7	
639.02	8210.3	
639.21	7465.5	
639.4	7946.8	
639.59	8778.3	
639.78	8376.2	
639.96	6878.4	
640.15	6898.9	
640.34	8531.2	
640.53	8751	
640.72	6535.8	
640.91	6840.2	
641.09	8049.2	
641.28	9356.5	
641.47	6872.3	
641.66	7686.7	
641.85	8750.3	
642.03	8971.5	
642.22	7425.9	
642.41	6898.2	
642.6	8070.4	
642.79	7524.2	
642.97	6740.5	
643.16	7443	
643.35	8135.2	
643.54	7948.2	
643.73	6589	
643.91	7394.5	
644.1	7830.7	
644.29	8346.8	
644.48	6775.4	
644.67	6783.6	
644.85	7993.9	
645.04	8261.5	
645.23	6307.1	
645.42	6573.3	
645.6	7883.3	
645.79	9008.3	
645.98	6670.2	
646.17	5644.9	
646.36	7536.5	
646.54	8170	
646.73	7319.4	
646.92	6186.2	
647.11	7757	
647.29	8803.5	
647.48	6312.5	
647.67	5978	
647.86	9054.8	
648.05	9094.3	
648.23	6602.7	
648.42	7831.4	
648.61	8396.7	
648.8	8211.7	
648.98	6216.3	
649.17	6500.9	
649.36	7746.8	
649.55	7277.1	
649.73	6290	
649.92	6987	
650.11	7677.2	
650.3	7931.1	
650.48	6418.3	
650.67	6208.8	
650.86	8249.9	
651.05	7176.1	
651.23	6407.4	
651.42	6275.7	
651.61	7679.9	
651.79	7813.7	
651.98	6499.6	
652.17	6182.1	
652.36	8192.6	
652.54	7294.2	
652.73	6189	
652.92	6037.4	
653.11	8142	
653.29	8186.4	
653.48	5498.1	
653.67	6481.1	
653.85	7900.4	
654.04	8979	
654.23	6638.8	
654.42	6150.7	
654.6	7450.5	
654.79	8060.1	
654.98	5632.6	
655.16	6256.5	
655.35	7043.6	
655.54	6990.4	
655.73	5748	
655.91	5650.3	
656.1	8094.3	
656.29	6924.9	
656.47	5287.9	
656.66	6907.8	
656.85	7267.6	
657.03	7294.2	
657.22	5846.3	
657.41	5945.3	
657.59	7362.4	
657.78	7105.8	
657.97	5510.4	
658.16	6227.9	
658.34	7993.2	
658.53	8430.1	
658.72	7124.2	
658.9	7576.1	
659.09	7405.5	
659.28	7505.1	
659.46	5978.7	
659.65	5892	
659.84	7299.6	
660.02	7730.4	
660.21	5760.9	
660.4	5792.3	
660.58	8186.4	
660.77	7574.1	
660.96	6417.7	
661.14	5386.2	
661.33	8660.9	
661.52	8568	
661.7	5310.4	
661.89	8939.4	
662.08	7151.5	
662.26	6742.6	
662.45	5637.4	
662.64	5842.9	
662.82	7757	
663.01	7043	
663.2	5770.5	
663.38	6527.6	
663.57	7690.8	
663.75	7679.2	
663.94	5990.3	
664.13	7385	
664.31	7097.6	
664.5	7851.2	
664.69	6294.8	
664.87	6858	
665.06	6823.1	
665.25	7630	
665.43	7092.1	
665.62	7163.1	
665.8	7854.6	
665.99	7240.9	
666.18	6085.9	
666.36	6204.7	
666.55	7893.6	
666.74	7808.9	
666.92	5660.6	
667.11	7251.2	
667.29	7250.5	
667.48	7854	
667.67	6838.9	
667.85	5965.7	
668.04	7305.8	
668.22	7361.8	
668.41	6169.8	
668.6	6339.1	
668.78	7084.6	
668.97	7249.8	
669.15	6503.7	
669.34	5412.1	
669.53	7095.5	
669.71	7469.6	
669.9	5625.1	
670.08	6302.3	
670.27	7047.1	
670.46	7593.2	
670.64	6534.4	
670.83	6681.2	
671.01	6979.5	
671.2	7555	
671.38	5752.7	
671.57	5608	
671.76	8196.7	
671.94	8698.4	
672.13	5469.4	
672.31	6681.2	
672.5	7709.2	
672.69	7057.3	
672.87	5790.3	
673.06	5964.4	
673.24	7613.7	
673.43	7060.7	
673.61	6498.2	
673.8	5970.5	
673.98	7733.8	
674.17	7862.8	
674.36	6543.9	
674.54	6397.9	
674.73	7560.4	
674.91	7719.5	
675.1	6131.6	
675.28	5724.8	
675.47	7314.7	
675.65	7858.1	
675.84	6041.5	
676.03	6253.1	
676.21	7106.5	
676.4	6680.5	
676.58	6733.7	
676.77	6512.5	
676.95	8638.3	
677.14	7062.1	
677.32	5668.8	
677.51	5532.2	
677.69	7849.9	
677.88	6752.2	
678.06	5586.9	
678.25	5639.4	
678.44	7348.1	
678.62	7124.9	
678.81	5393	
678.99	6382.8	
679.18	8108.6	
679.36	7746.8	
679.55	5933.6	
679.73	6521.4	
679.92	7694.9	
680.1	7074.4	
680.29	7163.1	
680.47	6030.6	
680.66	7028.6	
680.84	7877.9	
681.03	5234.6	
681.21	6331.6	
681.4	7054.6	
681.58	7008.8	
681.77	5828.5	
681.95	5680.4	
682.14	7905.8	
682.32	8324.3	
682.51	6687.3	
682.69	5478.3	
682.88	7002	
683.06	7720.2	
683.25	6361	
683.43	6795.2	
683.62	7295.5	
683.8	7753.6	
683.99	6889.4	
684.17	6191.7	
684.36	8586.5	
684.54	7297.6	
684.73	5461.9	
684.91	5596.4	
685.1	7582.3	
685.28	6976.7	
685.46	6198.5	
685.65	6288.6	
685.83	7837.6	
686.02	7175.4	
686.2	5694.7	
686.39	5849	
686.57	6873.7	
686.76	8529.1	
686.94	5851.7	
687.13	5881.8	
687.31	7761.1	
687.5	7239.6	
687.68	5406.6	
687.86	6554.9	
688.05	8931.2	
688.23	6793.8	
688.42	6652.5	
688.6	5788.9	
688.79	7216.4	
688.97	7215.7	
689.16	6290	
689.34	5221.6	
689.52	7959.1	
689.71	8165.3	
689.89	6540.5	
690.08	5886.5	
690.26	7528.3	
690.45	7325.6	
690.63	6758.3	
690.81	6068.1	
691	7244.3	
691.18	7134.4	
691.37	6162.3	
691.55	8383	
691.74	7197.2	
691.92	9215.9	
692.1	6179.4	
692.29	5717.9	
692.47	7464.2	
692.66	6750.1	
692.84	5962.3	
693.02	6465.4	
693.21	6857.3	
693.39	7393.8	
693.58	6608.1	
693.76	6027.9	
693.94	8574.2	
694.13	8443.1	
694.31	6019	
694.5	7077.8	
694.68	7289.4	
694.86	7597.3	
695.05	6439.5	
695.23	6463.4	
695.42	8011	
695.6	10221	
695.78	7008.8	
695.97	6199.9	
696.15	8131.1	
696.34	7538.6	
696.52	6000.5	
696.7	6839.5	
696.89	7889.5	
697.07	7384.3	
697.25	6701.6	
697.44	8187.8	
697.62	7935.2	
697.81	8204.2	
697.99	6429.9	
698.17	6898.2	
698.36	7248.4	
698.54	7943.4	
698.72	6830.7	
698.91	5830.6	
699.09	7604.8	
699.28	7430.7	
699.46	6429.9	
699.64	6333	
699.83	7334.5	
700.01	8604.9	
700.19	7165.8	
700.38	5668.1	
700.56	8665	
700.74	7530.4	
700.93	6049.7	
701.11	6901.7	
701.29	8097.7	
701.48	9086.2	
701.66	6333	
701.84	6393.1	
702.03	7714	
702.21	8337.3	
702.39	5919.3	
702.58	6625.2	
702.76	8146.1	
702.94	8298.4	
703.13	5935.7	
703.31	8366	
703.49	7496.9	
703.68	8880	
703.86	6287.3	
704.04	7177.4	
704.23	8029.4	
704.41	8348.9	
704.59	6350.8	
704.78	7522.2	
704.96	9142.8	
705.14	8452	
705.33	6196.5	
705.51	6965.8	
705.69	7810.3	
705.87	8723.7	
706.06	7212.9	
706.24	6135.7	
706.42	8177.5	
706.61	8475.9	
706.79	7316.7	
706.97	6265.4	
707.16	7666.9	
707.34	8269	
707.52	7265.5	
707.7	6477	
707.89	7879.2	
708.07	7501.7	
708.25	7339.2	
708.44	7645.1	
708.62	7764.5	
708.8	8888.2	
708.98	7621.9	
709.17	6526.9	
709.35	8170.7	
709.53	8284.7	
709.72	6287.9	
709.9	6870.3	
710.08	8432.2	
710.26	8410.3	
710.45	7961.8	
710.63	6598.6	
710.81	8057.4	
710.99	8234.9	
711.18	7262.1	
711.36	6816.3	
711.54	8049.9	
711.72	8662.9	
711.91	6788.3	
712.09	6262	
712.27	8169.3	
712.45	8752.3	
712.64	7062.8	
712.82	6064	
713	7582.9	
713.18	7727	
713.37	6183.5	
713.55	7401.4	
713.73	8614.4	
713.91	7163.8	
714.1	6488.6	
714.28	5935.7	
714.46	8120.9	
714.64	7335.1	
714.83	5350	
715.01	6254.5	
715.19	7333.8	
715.37	6746	
715.55	5811.5	
715.74	6182.8	
715.92	8230.1	
716.1	6342.6	
716.28	7221.1	
716.47	6238.1	
716.65	7064.1	
716.83	6959.7	
717.01	6086.6	
717.19	6134.3	
717.38	9050.7	
717.56	6727.6	
717.74	6462	
717.92	5489.2	
718.1	8018.5	
718.29	7312.6	
718.47	5240.8	
718.65	5932.3	
718.83	7952.3	
719.01	7934.5	
719.2	5202.5	
719.38	6346	
719.56	7636.2	
719.74	9272.5	
719.92	5884.5	
720.11	6875.7	
720.29	7685.3	
720.47	6739.9	
720.65	5407.3	
720.83	6253.1	
721.02	7195.9	
721.2	6888	
721.38	6234	
721.56	5512.4	
721.74	6393.1	
721.92	6609.5	
722.11	6726.2	
722.29	6373.3	
722.47	7842.4	
722.65	6931.7	
722.83	5468.1	
723.01	6425.2	
723.2	7089.4	
723.38	7348.1	
723.56	5067.4	
723.74	6164.4	
723.92	6602	
724.1	7703.8	
724.29	5431.9	
724.47	6675.7	
724.65	6655.2	
724.83	6635.4	
725.01	5400.5	
725.19	6162.3	
725.37	6664.1	
725.56	6744	
725.74	5244.2	
725.92	5461.9	
726.1	6610.2	
726.28	6884.6	
726.46	5987.6	
726.64	5621.7	
726.83	6846.4	
727.01	7127.6	
727.19	5210.7	
727.37	6102.3	
727.55	7057.3	
727.73	7474.4	
727.91	5186.1	
728.09	5089.2	
728.28	7561.1	
728.46	8015.7	
728.64	6195.1	
728.82	6215.6	
729	8632.9	
729.18	7932.5	
729.36	5399.8	
729.54	7642.3	
729.72	8923	
729.91	7296.9	
730.09	7287.4	
730.27	6008.1	
730.45	7078.5	
730.63	7841.7	
730.81	6715.3	
730.99	5791.7	
731.17	8288.1	
731.35	6927.6	
731.53	6301.6	
731.71	5971.2	
731.9	8051.9	
732.08	8183	
732.26	6226.5	
732.44	5786.2	
732.62	8238.3	
732.8	7789.1	
732.98	6541.2	
733.16	5612.1	
733.34	7816.4	
733.52	6513.9	
733.7	6109.1	
733.88	6418.3	
734.07	7545.4	
734.25	7338.6	
734.43	5579.3	
734.61	7135.8	
734.79	8756.4	
734.97	7171.3	
735.15	5748.6	
735.33	6040.1	
735.51	7526.3	
735.69	7190.4	
735.87	7147.4	
736.05	6194.4	
736.23	7394.5	
736.41	7124.9	
736.59	6047	
736.77	6174.6	
736.95	7864.9	
737.13	7204.1	
737.32	5701.5	
737.5	5957.5	
737.68	8454	
737.86	7133.1	
738.04	5633.3	
738.22	7369.3	
738.4	6864.1	
738.58	7221.1	
738.76	6155.5	
738.94	5058.5	
739.12	7038.9	
739.3	6919.4	
739.48	6781.5	
739.66	6462.7	
739.84	7340.6	
740.02	7270.3	
740.2	5200.5	
740.38	5581.4	
740.56	7723.6	
740.74	6528.2	
740.92	6164.4	
741.1	6047.7	
741.28	7068.2	
741.46	6948.1	
741.64	5701.5	
741.82	6221	
742	7172.7	
742.18	7057.3	
742.36	5872.9	
742.54	5520	
742.72	7653.3	
742.9	6374.6	
743.08	6332.3	
743.26	5087.8	
743.44	7846.5	
743.62	7665.5	
743.8	6447	
743.98	5500.2	
744.16	7355.6	
744.34	7129.7	
744.52	6363.7	
744.7	6214.2	
744.88	7479.2	
745.06	7060.7	
745.24	6337.8	
745.42	6381.5	
745.6	7524.2	
745.78	7392.5	
745.96	5194.3	
746.14	5388.9	
746.32	8264.9	
746.5	7511.3	
746.68	6023.8	
746.86	5503.6	
747.03	7919.5	
747.21	6215.6	
747.39	5943.2	
747.57	5500.2	
747.75	7127.6	
747.93	7499.7	
748.11	5439.4	
748.29	5292.6	
748.47	8673.8	
748.65	6864.8	
748.83	6122.7	
749.01	5931.6	
749.19	7361.1	
749.37	6505.7	
749.55	5769.1	
749.73	5772.5	
749.91	6959.7	
750.09	6710.5	
750.26	5821	
750.44	5309	
750.62	7023.9	
750.8	7014.3	
750.98	5071.5	
751.16	5487.9	
751.34	7033.4	
751.52	6412.9	
751.7	6249	
751.88	5137.7	
752.06	7504.4	
752.24	7281.2	
752.42	5046.9	
752.59	5353.4	
752.77	6908.5	
752.95	8162.5	
753.13	6143.2	
753.31	5465.3	
753.49	6595.8	
753.67	7075.7	
753.85	5796.4	
754.03	5395	
754.21	7316.7	
754.38	7634.8	
754.56	5471.5	
754.74	4534.2	
754.92	6519.4	
755.1	7149.5	
755.28	4492.6	
755.46	4469.4	
755.64	7737.9	
755.82	7821.9	
755.99	4631.8	
756.17	4710.3	
756.35	5196.4	
756.53	6774.7	
756.71	3434.4	
756.89	4468.7	
757.07	6346	
757.25	5505.6	
757.42	5046.2	
757.6	5879.7	
757.78	6531	
757.96	5478.3	
758.14	4804.5	
758.32	4321.9	
758.5	5101.5	
758.67	5854.5	
758.85	4585.4	
759.03	4760.8	
759.21	6133.7	
759.39	5520	
759.57	4195.6	
759.75	5386.8	
759.92	6712.6	
760.1	6034.7	
760.28	5767.1	
760.46	5964.4	
760.64	5826.5	
760.82	5591	
760.99	5599.8	
761.17	4756.1	
761.35	6670.9	
761.53	5614.2	
761.71	4984.1	
761.89	5625.1	
762.06	6546.7	
762.24	6074.3	
762.42	4967	
762.6	4845.5	
762.78	6155.5	
762.96	6774	
763.13	5457.2	
763.31	5016.2	
763.49	6969.9	
763.67	6027.9	
763.85	5899.5	
764.02	6538.5	
764.2	7132.4	
764.38	6351.4	
764.56	4922	
764.74	5847.6	
764.91	7252.5	
765.09	6179.4	
765.27	4614.1	
765.45	4463.2	
765.63	7292.1	
765.8	7098.9	
765.98	4144.4	
766.16	4510.3	
766.34	5657.9	
766.52	5498.1	
766.69	5414.1	
766.87	4334.2	
767.05	6150.1	
767.23	6853.9	
767.41	4574.5	
767.58	4856.4	
767.76	6736.5	
767.94	6750.8	
768.12	4719.2	
768.29	5356.1	
768.47	6172.6	
768.65	6930.3	
768.83	4287.8	
769	5469.4	
769.18	5608.7	
769.36	6471.6	
769.54	5464	
769.72	4330.8	
769.89	6647.7	
770.07	6842.3	
770.25	4584.7	
770.43	5855.1	
770.6	7373.4	
770.78	7826.7	
770.96	4848.2	
771.14	5393.7	
771.31	6484.6	
771.49	5919.3	
771.67	3878.2	
771.85	4253.6	
772.02	5068	
772.2	5877.7	
772.38	4861.9	
772.55	4405.2	
772.73	6118.6	
772.91	5912.5	
773.09	4741.7	
773.26	4872.1	
773.44	6130.9	
773.62	5773.9	
773.8	4325.3	
773.97	4058.4	
774.15	6192.4	
774.33	5724.8	
774.5	4170.3	
774.68	4548.5	
774.86	6290	
775.04	5810.8	
775.21	4194.9	
775.39	4243.4	
775.57	6025.8	
775.74	6421.7	
775.92	4042.7	
776.1	4001.7	
776.27	5988.9	
776.45	7189.7	
776.63	4222.9	
776.81	3762.1	
776.98	5689.3	
777.16	6696.9	
777.34	4311	
777.51	4644.8	
777.69	5614.2	
777.87	5401.2	
778.04	4307.6	
778.22	4974.5	
778.4	5429.8	
778.57	6098.9	
778.75	3667.9	
778.93	3975.1	
779.1	5138.4	
779.28	5079.6	
779.46	3667.2	
779.64	4154.6	
779.81	6200.6	
779.99	7026.6	
780.17	4838	
780.34	5037.3	
780.52	5632.6	
780.69	5872.9	
780.87	4489.8	
781.05	4035.2	
781.22	5688.6	
781.4	5786.2	
781.58	4152.6	
781.75	3268.6	
781.93	5751.4	
782.11	5119.9	
782.28	4949.9	
782.46	4072	
782.64	4977.9	
782.81	5863.3	
782.99	4237.9	
783.17	4169	
783.34	5788.9	
783.52	4977.9	
783.69	4354.7	
783.87	5197.1	
784.05	5186.1	
784.22	5095.3	
784.4	5098.8	
784.58	4426.3	
784.75	5981.4	
784.93	5101.5	
785.1	4077.5	
785.28	4762.9	
785.46	5740.5	
785.63	5055.1	
785.81	4024.3	
785.99	3910.3	
786.16	5251.7	
786.34	5534.3	
786.51	3850.2	
786.69	4305.5	
786.87	4862.6	
787.04	5326.1	
787.22	3717.1	
787.39	4796.3	
787.57	5010.7	
787.75	6110.5	
787.92	4859.1	
788.1	4877.6	
788.27	5093.3	
788.45	4838.7	
788.63	4579.9	
788.8	3277.4	
788.98	5419.6	
789.15	4778.6	
789.33	3435.8	
789.5	4009.9	
789.68	6007.4	
789.86	6092	
790.03	4512.4	
790.21	3984	
790.38	5950	
790.56	5186.8	
790.73	3798.3	
790.91	3803.1	
791.09	5042.8	
791.26	5803.3	
791.44	4024.3	
791.61	3504.1	
791.79	5045.5	
791.96	5064.6	
792.14	3557.3	
792.32	3173	
792.49	5003.9	
792.67	5157.5	
792.84	3636.5	
793.02	3465.2	
793.19	5489.9	
793.37	6212.2	
793.54	3178.4	
793.72	3530	
793.89	6438.1	
794.07	5036	
794.25	4149.2	
794.42	3291.1	
794.6	6054.5	
794.77	5708.4	
794.95	4429.1	
795.12	3795.6	
795.3	5038	
795.47	5585.5	
795.65	4260.5	
795.82	4060.4	
796	4825.7	
796.17	6674.3	
796.35	3951.9	
796.52	4660.5	
796.7	5603.9	
796.87	5646.9	
797.05	4834.6	
797.22	4820.2	
797.4	5598.5	
797.57	6618.4	
797.75	4039.3	
797.92	3832.4	
798.1	5926.1	
798.27	4976.6	
798.45	3244.7	
798.62	3474.7	
798.8	5354.8	
798.97	5819	
799.15	4213.4	
799.32	4058.4	
799.5	4591.5	
799.67	5388.9	
799.85	4416.8	
800.02	3209.8	
800.2	4931.5	
800.37	5319.9	
800.55	4589.5	
800.72	3792.2	
800.9	5747.3	
801.07	6208.8	
801.25	5128.1	
801.42	4171.7	
801.6	5769.1	
801.77	5471.5	
801.95	3776.5	
802.12	3732.8	
802.29	5495.4	
802.47	5582.1	
802.64	4143.7	
802.82	3168.9	
802.99	4926.7	
803.17	5923.4	
803.34	4074.8	
803.52	3685	
803.69	6578.8	
803.87	4764.3	
804.04	3986	
804.21	4108.9	
804.39	6088.6	
804.56	5199.1	
804.74	3370.3	
804.91	4187.4	
805.09	4957.4	
805.26	5128.8	
805.44	3482.9	
805.61	3812.6	
805.78	5640.8	
805.96	5700.9	
806.13	4190.1	
806.31	4497.3	
806.48	4569.7	
806.66	5078.3	
806.83	4153.3	
807	4047.5	
807.18	4996.4	
807.35	5329.5	
807.53	4058.4	
807.7	3200.3	
807.87	6081.8	
808.05	5000.5	
808.22	4468.7	
808.4	3260.4	
808.57	5038.7	
808.74	4676.2	
808.92	3694.5	
809.09	4745.1	
809.27	4878.9	
809.44	5553.4	
809.61	3322.5	
809.79	3631	
809.96	6148.7	
810.14	5737	
810.31	3125.9	
810.48	3878.9	
810.66	5076.2	
810.83	5882.4	
811.01	3700	
811.18	4194.2	
811.35	5687.9	
811.53	4510.3	
811.7	4502.8	
811.87	4124.6	
812.05	4996.4	
812.22	4960.2	
812.39	3588	
812.57	3521.8	
812.74	5072.8	
812.92	6725.5	
813.09	3878.2	
813.26	4258.4	
813.44	6416.3	
813.61	4953.4	
813.78	3248.8	
813.96	4405.2	
814.13	5031.2	
814.3	4667.3	
814.48	4678.2	
814.65	3923.2	
814.82	6228.6	
815	4851	
815.17	4019.5	
815.34	4873.5	
815.52	4885.8	
815.69	4964.3	
815.87	3943	
816.04	3414	
816.21	5032.5	
816.38	4372.4	
816.56	3858.4	
816.73	3606.5	
816.9	6345.3	
817.08	5784.1	
817.25	3636.5	
817.42	4536.9	
817.6	4584	
817.77	5022.3	
817.94	4054.3	
818.12	3551.2	
818.29	4801.8	
818.46	7435.5	
818.64	3746.4	
818.81	3498.6	
818.98	4704.9	
819.16	6825.9	
819.33	4289.1	
819.5	3964.2	
819.67	5446.9	
819.85	6049	
820.02	3910.3	
820.19	4149.9	
820.37	5225.7	
820.54	4769.7	
820.71	4040	
820.88	5052.3	
821.06	5229.8	
821.23	4812	
821.4	4123.9	
821.58	4035.9	
821.75	5748.6	
821.92	5148.6	
822.09	3295.2	
822.27	3351.8	
822.44	5059.8	
822.61	4944.5	
822.79	3317	
822.96	6300.9	
823.13	5436.7	
823.3	4715.1	
823.48	3852.2	
823.65	3444	
823.82	5713.8	
823.99	4592.2	
824.17	4836.6	
824.34	3471.3	
824.51	6593.1	
824.68	5068	
824.86	3603.1	
825.03	4116.4	
825.2	4999.1	
825.37	6151.4	
825.55	3589.4	
825.72	3988.1	
825.89	6647.7	
826.06	6156.9	
826.24	3934.1	
826.41	3915.7	
826.58	6138.4	
826.75	5309	
826.92	3107.5	
827.1	3452.2	
827.27	8286.1	
827.44	6642.2	
827.61	3695.9	
827.79	4429.8	
827.96	4795.7	
828.13	5141.8	
828.3	3843.4	
828.47	3278.8	
828.65	5300.1	
828.82	5203.2	
828.99	5044.1	
829.16	4354.7	
829.34	5637.4	
829.51	5437.4	
829.68	4030.4	
829.85	4173.1	
830.02	5938.4	
830.2	5601.9	
830.37	3071.3	
830.54	4841.4	
830.71	6446.3	
830.88	5027.8	
831.05	3211.9	
831.23	3674.1	
831.4	6068.8	
831.57	6851.1	
831.74	3732.1	
831.91	3254.9	
832.09	5241.4	
832.26	5627.8	
832.43	3827	
832.6	4311.7	
832.77	5211.4	
832.94	6038.1	
833.12	3063.8	
833.29	3807.9	
833.46	4908.3	
833.63	7067.5	
833.8	4184.7	
833.97	3887	
834.15	5677	
834.32	5384.1	
834.49	4013.3	
834.66	4156.7	
834.83	5874.3	
835	4718.5	
835.17	3650.2	
835.35	3728.7	
835.52	5535.7	
835.69	5398.4	
835.86	3908.9	
836.03	3223.5	
836.2	5620.3	
836.37	5186.1	
836.55	3859.1	
836.72	3568.9	
836.89	5180.7	
837.06	5677.7	
837.23	3928	
837.4	4285.7	
837.57	6473.6	
837.75	7115.3	
837.92	3526.6	
838.09	3747.1	
838.26	5180	
838.43	5871.5	
838.6	4017.4	
838.77	3658.4	
838.94	6711.2	
839.11	6449.7	
839.29	3872	
839.46	3005.7	
839.63	5549.3	
839.8	5396.4	
839.97	3748.5	
840.14	3761.4	
840.31	5386.8	
840.48	5578.7	
840.65	3060.3	
840.82	3819.5	
841	5535	
841.17	5588.9	
841.34	3417.4	
841.51	3431	
841.68	5545.9	
841.85	5299.5	
842.02	3556	
842.19	2948.4	
842.36	5424.4	
842.53	5355.4	
842.7	3446	
842.87	4181.3	
843.05	7069.6	
843.22	5281	
843.39	3263.1	
843.56	3557.3	
843.73	5091.9	
843.9	5660.6	
844.07	5569.1	
844.24	4666.6	
844.41	8153	
844.58	4889.2	
844.75	3330	
844.92	3634.5	
845.09	5645.6	
845.26	5616.2	
845.43	3430.3	
845.6	3642.7	
845.77	5583.4	
845.94	5289.2	
846.12	3738.9	
846.29	3902.7	
846.46	5812.1	
846.63	5565	
846.8	3461.7	
846.97	4067.3	
847.14	6092.7	
847.31	5512.4	
847.48	3874.8	
847.65	4259.8	
847.82	5926.8	
847.99	5842.2	
848.16	4527.4	
848.33	4250.2	
848.5	5117.2	
848.67	6074.3	
848.84	3390.8	
849.01	3533.4	
849.18	5087.8	
849.35	4698	
849.52	4330.8	
849.69	3380.5	
849.86	5700.9	
850.03	5970.5	
850.2	3422.8	
850.37	4184	
850.54	5941.8	
850.71	5261.9	
850.88	4050.9	
851.05	3336.1	
851.22	5490.6	
851.39	6140.5	
851.56	3230.3	
851.73	3944.4	
851.9	4900.1	
852.07	5790.3	
852.24	3816	
852.41	3357.3	
852.58	5485.1	
852.75	4957.4	
852.92	3818.1	
853.09	3349.1	
853.26	5136.3	
853.43	5997.1	
853.6	3439.2	
853.77	2893.1	
853.94	6187.6	
854.11	4883	
854.28	5047.6	
854.44	3706.8	
854.61	6571.9	
854.78	5983.5	
854.95	3388	
855.12	4297.3	
855.29	4531.5	
855.46	6295.5	
855.63	3396.2	
855.8	4706.9	
855.97	5107.6	
856.14	5939.8	
856.31	4774.5	
856.48	3746.4	
856.65	5155.4	
856.82	4857.8	
856.99	3302	
857.16	3654.3	
857.33	6739.9	
857.49	5235.3	
857.66	3716.4	
857.83	3984.7	
858	5186.1	
858.17	5461.2	
858.34	3183.9	
858.51	3386	
858.68	6251.1	
858.85	6326.9	
859.02	3959.4	
859.19	4216.1	
859.36	4902.8	
859.52	4962.2	
859.69	3442.6	
859.86	4065.9	
860.03	4975.2	
860.2	6129.6	
860.37	3104.7	
860.54	3471.3	
860.71	5758.9	
860.88	6228.6	
861.05	3824.9	
861.21	4333.5	
861.38	6225.8	
861.55	4776.5	
861.72	3065.1	
861.89	3865.2	
862.06	5908.4	
862.23	6354.2	
862.4	3306.1	
862.56	3515	
862.73	5760.3	
862.9	5385.5	
863.07	3955.3	
863.24	3077.4	
863.41	4767	
863.58	4886.5	
863.75	3452.9	
863.91	3915.7	
864.08	6169.8	
864.25	5728.9	
864.42	4291.2	
864.59	4774.5	
864.76	6491.4	
864.93	4963.6	
865.09	3366.9	
865.26	3654.9	
865.43	6077.7	
865.6	6457.2	
865.77	3004.4	
865.94	3367.5	
866.1	6097.5	
866.27	5864	
866.44	5141.8	
866.61	3205.8	
866.78	5334.3	
866.95	5762.3	
867.11	3323.2	
867.28	2991.4	
867.45	5934.3	
867.62	4977.2	
867.79	3938.9	
867.96	3368.2	
868.12	4934.9	
868.29	5887.9	
868.46	2938.8	
868.63	4506.9	
868.8	6010.1	
868.97	5735.7	
869.13	3561.4	
869.3	3561.4	
869.47	5685.2	
869.64	5860.6	
869.81	3405.1	
869.97	3448.8	
870.14	5554.1	
870.31	6275.7	
870.48	3280.8	
870.65	4349.2	
870.81	5235.3	
870.98	5292.6	
871.15	3850.9	
871.32	3504.1	
871.48	5702.9	
871.65	6288.6	
871.82	3438.5	
871.99	3730.7	
872.16	6731.7	
872.32	6191.7	
872.49	3411.2	
872.66	3499.3	
872.83	5745.2	
872.99	5152	
873.16	3938.2	
873.33	3365.5	
873.5	5481.7	
873.67	5431.2	
873.83	3595.6	
874	4527.4	
874.17	5555.5	
874.34	6561.7	
874.5	4406.5	
874.67	4298	
874.84	6203.3	
875.01	4878.3	
875.17	4823	
875.34	3360	
875.51	5532.2	
875.68	6580.1	
875.84	4083	
876.01	4975.9	
876.18	5769.1	
876.34	5724.1	
876.51	3435.8	
876.68	3376.4	
876.85	5261.2	
877.01	6019	
877.18	4910.3	
877.35	3455.6	
877.52	5375.2	
877.68	4831.8	
877.85	3333.4	
878.02	3358.7	
878.18	5393.7	
878.35	5047.6	
878.52	2715.6	
878.69	3793.5	
878.85	5831.2	
879.02	5707	
879.19	4815.5	
879.35	3713	
879.52	5724.1	
879.69	5997.1	
879.86	2960.7	
880.02	3858.4	
880.19	5333.6	
880.36	6545.3	
880.52	3894.6	
880.69	4025.6	
880.86	5865.4	
881.02	5939.8	
881.19	3756	
881.36	3679.5	
881.52	5786.9	
881.69	5099.4	
881.86	3659	
882.02	3581.9	
882.19	6008.7	
882.36	7043	
882.52	3506.1	
882.69	4782	
882.86	5549.3	
883.02	5442.8	
883.19	4142.4	
883.36	3928	
883.52	5868.8	
883.69	6712.6	
883.86	3435.1	
884.02	3102	
884.19	5840.8	
884.36	5375.9	
884.52	3906.2	
884.69	3592.8	
884.86	5080.3	
885.02	6341.9	
885.19	3876.1	
885.36	3992.9	
885.52	5343.2	
885.69	5562.3	
885.86	4889.9	
886.02	4360.8	
886.19	5825.1	
886.35	5259.2	
886.52	3713.7	
886.69	4799.1	
886.85	4947.2	
887.02	6228.6	
887.19	6228.6	
887.35	6228.6	
887.52	6228.6	
887.68	6228.6	
887.85	6228.6	
888.02	6228.6	
888.18	6228.6	
888.35	6228.6	
888.51	6228.6	
888.68	6228.6	
888.85	6228.6	
889.01	6228.6	
889.18	6228.6	
889.35	6228.6	
889.51	6228.6	
889.68	6228.6	
889.84	6228.6	
890.01	6228.6	
890.17	6228.6	
890.34	6228.6	
890.51	6228.6	
890.67	6228.6	
890.84	6228.6	
891	6228.6	
891.17	6228.6	
891.34	6228.6	
891.5	6228.6	
891.67	6228.6	
891.83	6228.6	
892	6228.6	
892.16	6228.6	
892.33	6228.6	
892.5	6228.6	
892.66	6228.6	
892.83	6228.6	
892.99	6228.6	
893.16	6228.6	
893.32	6228.6	
893.49	6228.6	
893.65	6228.6	
893.82	6228.6	
893.99	6228.6	
894.15	6228.6	
894.32	6228.6	
894.48	6228.6	
894.65	6228.6	
894.81	6228.6	
894.98	6228.6	
895.14	6228.6	
895.31	6228.6	
895.47	6228.6	
895.64	6228.6	
895.81	6228.6	
895.97	6228.6	
896.14	6228.6	
896.3	6228.6	
896.47	6228.6	
896.63	6228.6	
896.8	6228.6	
896.96	6228.6	
897.13	6228.6	
897.29	6228.6	
897.46	6228.6	
897.62	6228.6	
897.79	6228.6	
897.95	6228.6	
898.12	6228.6	
898.28	6228.6	
898.45	6228.6	
898.61	6228.6	
898.78	6228.6	
898.94	6228.6	
899.11	6228.6	
899.27	6228.6	
899.44	6228.6	
899.6	6228.6	
899.77	6228.6	
899.93	6228.6	
900.1	6228.6	
900.26	6228.6	
900.43	6228.6	
900.59	6228.6	
900.76	6228.6	
900.92	6228.6	
901.09	6228.6	
901.25	6228.6	
901.42	6228.6	
901.58	6228.6	
901.75	6228.6	
901.91	6228.6	
902.07	6228.6	
902.24	6228.6	
902.4	6228.6	
902.57	6228.6	
902.73	6228.6	
902.9	6228.6	
903.06	6228.6	
903.23	6228.6	
903.39	6228.6	
903.56	6228.6	
903.72	6228.6	
903.88	6228.6	
904.05	6228.6	
904.21	6228.6	
904.38	6228.6	
904.54	6228.6	
904.71	6228.6	
904.87	6228.6	
905.03	6228.6	
905.2	6228.6	
905.36	6228.6	
905.53	6228.6	
905.69	6228.6	
905.86	6228.6	
906.02	6228.6	
906.18	6228.6	
906.35	6228.6	
906.51	6228.6	
906.68	6228.6	
906.84	6228.6	
907.01	6228.6	
907.17	6228.6	
907.33	6228.6	
907.5	6228.6	
907.66	6228.6	
907.83	6228.6	
907.99	6228.6	
908.15	6228.6	
908.32	6228.6	
908.48	6228.6	
908.65	6228.6	
908.81	6228.6	
908.97	6228.6	
909.14	6228.6	
909.3	6228.6	
909.47	6228.6	
909.63	6228.6	
909.79	6228.6	
909.96	6228.6	
910.12	6228.6	
910.28	6228.6	
910.45	6228.6	
910.61	6228.6	
910.78	6228.6	
910.94	6228.6	
911.1	6228.6	
911.27	6228.6	
911.43	6228.6	
911.59	6228.6	
911.76	6228.6	
911.92	6228.6	
912.08	6228.6	
912.25	6228.6	
912.41	6228.6	
912.57	6228.6	
912.74	6228.6	
912.9	6228.6	
913.07	6228.6	
913.23	6228.6	
913.39	6228.6	
913.56	6228.6	
913.72	6228.6	
913.88	6228.6	
914.05	6228.6	
914.21	6228.6	
914.37	6228.6	
914.54	6228.6	
914.7	6228.6	
914.86	6228.6	
915.03	6228.6	
915.19	6228.6	
