Wavelength	Intensities	
nm	a.u.	
179.22	1765.9	
179.44	1766.4	
179.65	1765.3	
179.86	1767.4	
180.08	1783.1	
180.29	4362.9	
180.51	3190.1	
180.72	5160.2	
180.94	5975.3	
181.15	2888.3	
181.37	2884.2	
181.58	5085.1	
181.79	5292.6	
182.01	3019.4	
182.22	3230.3	
182.44	5321.3	
182.65	4536.3	
182.87	3986.7	
183.08	3556	
183.29	5571.8	
183.51	4590.2	
183.72	3237.2	
183.94	4603.8	
184.15	4993.6	
184.37	4974.5	
184.58	2856.9	
184.79	3790.8	
185.01	4640	
185.22	5252.4	
185.44	4005.1	
185.65	3407.8	
185.86	4909	
186.08	4489.8	
186.29	2800.3	
186.51	3009.8	
186.72	4667.3	
186.94	5397.1	
187.15	3439.9	
187.36	3537.5	
187.58	6868.9	
187.79	5079	
188.01	3734.1	
188.22	5599.8	
188.43	6016.2	
188.65	5283.8	
188.86	2989.4	
189.08	3507.5	
189.29	4770.4	
189.5	4810	
189.72	3328.6	
189.93	3319.8	
190.15	5384.1	
190.36	6391	
190.57	3595.6	
190.79	3505.4	
191	5557.5	
191.22	5468.8	
191.43	3630.4	
191.64	2991.4	
191.86	5649	
192.07	5394.3	
192.29	3129.3	
192.5	3260.4	
192.71	5472.2	
192.93	4741	
193.14	3263.1	
193.35	3306.1	
193.57	4777.9	
193.78	5427.8	
194	2712.9	
194.21	3226.2	
194.42	4625.7	
194.64	5003.2	
194.85	3484.3	
195.07	4117.8	
195.28	4973.2	
195.49	4401.8	
195.71	4242	
195.92	3063.1	
196.13	5223.7	
196.35	5242.1	
196.56	4540.3	
196.78	3545	
196.99	6307.1	
197.2	5928.2	
197.42	3995.6	
197.63	3581.2	
197.84	4502.1	
198.06	5147.9	
198.27	3327.9	
198.48	4278.2	
198.7	4782	
198.91	4958.8	
199.13	3550.5	
199.34	3530	
199.55	5395	
199.77	4320.5	
199.98	3215.3	
200.19	3612.6	
200.41	4858.5	
200.62	4636.6	
200.83	3727.3	
201.05	3983.3	
201.26	4937.7	
201.47	4643.4	
201.69	3186	
201.9	3125.9	
202.11	4951.3	
202.33	5859.9	
202.54	3360	
202.76	3817.4	
202.97	4992.9	
203.18	5132.9	
203.4	3669.3	
203.61	3686.3	
203.82	5054.4	
204.04	4733.5	
204.25	3517.7	
204.46	3490.4	
204.68	4972.5	
204.89	5199.8	
205.1	3485.6	
205.32	3074	
205.53	5294	
205.74	5394.3	
205.96	2647.3	
206.17	3604.4	
206.38	5272.2	
206.6	5411.4	
206.81	4115.1	
207.02	3338.2	
207.24	5190.9	
207.45	5529.5	
207.66	3460.4	
207.88	2977.1	
208.09	5128.8	
208.3	4935.6	
208.52	3183.2	
208.73	3467.9	
208.94	4950.6	
209.15	5545.9	
209.37	3413.3	
209.58	3809.9	
209.79	5407.3	
210.01	4844.1	
210.22	2777	
210.43	2881.5	
210.65	4950.6	
210.86	5229.1	
211.07	3380.5	
211.29	3127.2	
211.5	5225.1	
211.71	4929.5	
211.93	3151.8	
212.14	3120.4	
212.35	4921.3	
212.56	5085.1	
212.78	3580.5	
212.99	2948.4	
213.2	5773.9	
213.42	4801.1	
213.63	3308.8	
213.84	3410.6	
214.06	4456.4	
214.27	4531.5	
214.48	3401.7	
214.69	3627	
214.91	5529.5	
215.12	5601.2	
215.33	3631	
215.55	3936.2	
215.76	5991.7	
215.97	5224.4	
216.18	3524.6	
216.4	3446	
216.61	4670.7	
216.82	5359.5	
217.04	3165.5	
217.25	3282.2	
217.46	5484.5	
217.67	5314.5	
217.89	2888.3	
218.1	2962	
218.31	4997	
218.53	5117.9	
218.74	3314.3	
218.95	3194.1	
219.16	4931.5	
219.38	5713.8	
219.59	3182.5	
219.8	3713.6	
220.01	6238.8	
220.23	5010	
220.44	4104.8	
220.65	3109.5	
220.87	5039.4	
221.08	5453.7	
221.29	2970.9	
221.5	3858.4	
221.72	6615.6	
221.93	4766.3	
222.14	3547.1	
222.35	4128	
222.57	4957.4	
222.78	5274.2	
222.99	3393.5	
223.2	3668.6	
223.42	5214.1	
223.63	5292.6	
223.84	2648.7	
224.05	2723.8	
224.27	6169.2	
224.48	5733.6	
224.69	4228.4	
224.9	3547.8	
225.12	5151.3	
225.33	4990.9	
225.54	2872.6	
225.75	3225.6	
225.97	4601.8	
226.18	4857.1	
226.39	3414	
226.6	3243.3	
226.82	4752	
227.03	4567	
227.24	3575.8	
227.45	3001	
227.67	5307	
227.88	5685.8	
228.09	4003.8	
228.3	3983.3	
228.52	5259.2	
228.73	4935.6	
228.94	3325.9	
229.15	2971.6	
229.36	4894.6	
229.58	4866.7	
229.79	3396.9	
230	3883.6	
230.21	5778.7	
230.43	5011.4	
230.64	3538.9	
230.85	3698.6	
231.06	5347.2	
231.28	5333.6	
231.49	2951.8	
231.7	3420.8	
231.91	5257.8	
232.12	4939.7	
232.34	3084.2	
232.55	3433.1	
232.76	5519.3	
232.97	5126.1	
233.18	3174.4	
233.4	3571.7	
233.61	5141.1	
233.82	4774.5	
234.03	3270.6	
234.25	3287.7	
234.46	6713.2	
234.67	4981.3	
234.88	3620.1	
235.09	3199.6	
235.31	5220.3	
235.52	4829.1	
235.73	3549.1	
235.94	2981.8	
236.15	4723.3	
236.37	5911.8	
236.58	3141.6	
236.79	3414	
237	5214.1	
237.21	4560.8	
237.43	3701.4	
237.64	2923.1	
237.85	8514.1	
238.06	4627	
238.27	3680.2	
238.48	3041.2	
238.7	5234.6	
238.91	4887.8	
239.12	3385.3	
239.33	3491.1	
239.54	4699.4	
239.76	4870.1	
239.97	3410.6	
240.18	3432.4	
240.39	6035.4	
240.6	5189.6	
240.82	3536.2	
241.03	2951.8	
241.24	4958.1	
241.45	5752.7	
241.66	3129.3	
241.87	3696.6	
242.09	5556.8	
242.3	5868.8	
242.51	3757.3	
242.72	3446.7	
242.93	5375.2	
243.14	4961.5	
243.36	3955.3	
243.57	4189.5	
243.78	5700.2	
243.99	5249.6	
244.2	3394.8	
244.41	3090.4	
244.63	4561.5	
244.84	5216.2	
245.05	3611.3	
245.26	3413.3	
245.47	5229.1	
245.68	5385.5	
245.9	4460.5	
246.11	3568.2	
246.32	4818.9	
246.53	5152	
246.74	5430.5	
246.95	2940.9	
247.16	4571.7	
247.38	4963.6	
247.59	2930.6	
247.8	3434.4	
248.01	4730.8	
248.22	4956.8	
248.43	3123.2	
248.64	3342.3	
248.86	4478.2	
249.07	4795	
249.28	3056.3	
249.49	3501.3	
249.7	5403.2	
249.91	5537.7	
250.12	2915.6	
250.34	2990	
250.55	5119.9	
250.76	5000.5	
250.97	3520.5	
251.18	3566.9	
251.39	5484.5	
251.6	5082.4	
251.81	3596.9	
252.03	3545.7	
252.24	4767	
252.45	5379.3	
252.66	2973	
252.87	3728.7	
253.08	4909.7	
253.29	6303.6	
253.5	3059.7	
253.72	4160.8	
253.93	4878.3	
254.14	5799.2	
254.35	3272	
254.56	3337.5	
254.77	5149.3	
254.98	4601.8	
255.19	3270.6	
255.41	4100.7	
255.62	5080.3	
255.83	5502.2	
256.04	3637.2	
256.25	3538.2	
256.46	6012.2	
256.67	4696	
256.88	3538.9	
257.09	3885.7	
257.31	4642.1	
257.52	4669.4	
257.73	4431.8	
257.94	3219.4	
258.15	4908.3	
258.36	4963.6	
258.57	4044.7	
258.78	2626.2	
258.99	5373.9	
259.2	4788.2	
259.41	3340.2	
259.63	3394.2	
259.84	5658.5	
260.05	5980.1	
260.26	4209.3	
260.47	3229	
260.68	5416.2	
260.89	4908.3	
261.1	3921.2	
261.31	3135.4	
261.52	5453.1	
261.73	5735	
261.95	4152.6	
262.16	3666.5	
262.37	5547.9	
262.58	5655.8	
262.79	4166.3	
263	3339.6	
263.21	4975.2	
263.42	4891.9	
263.63	3367.5	
263.84	3350.5	
264.05	5384.1	
264.26	5702.9	
264.47	4014.7	
264.69	3627.6	
264.9	5621.7	
265.11	5098.8	
265.32	3137.5	
265.53	3226.2	
265.74	5081.7	
265.95	4458.4	
266.16	3501.3	
266.37	3773.7	
266.58	5117.9	
266.79	4849.6	
267	3229.6	
267.21	3032.4	
267.42	4603.8	
267.63	4930.1	
267.84	3430.3	
268.06	2960	
268.27	5369.1	
268.48	5539.1	
268.69	3365.5	
268.9	3917.1	
269.11	5621.7	
269.32	4465.3	
269.53	3351.2	
269.74	3223.5	
269.95	5199.1	
270.16	4470.7	
270.37	3456.3	
270.58	3952.6	
270.79	4889.9	
271	5406.6	
271.21	3648.8	
271.42	3447.4	
271.63	5131.5	
271.84	4606.6	
272.05	2793.4	
272.26	3110.9	
272.47	4995.7	
272.68	5145.9	
272.89	3290.4	
273.11	3791.5	
273.32	4812	
273.53	5681.7	
273.74	3644	
273.95	3622.9	
274.16	5456.5	
274.37	5072.8	
274.58	3846.8	
274.79	3060.3	
275	5121.3	
275.21	5500.2	
275.42	4461.2	
275.63	3770.3	
275.84	5252.4	
276.05	6352.8	
276.26	3576.4	
276.47	3379.8	
276.68	4843.4	
276.89	5776	
277.1	3821.5	
277.31	3033.7	
277.52	5145.2	
277.73	5398.4	
277.94	3016	
278.15	3326.6	
278.36	5136.3	
278.57	4672.8	
278.78	3295.2	
278.99	3680.9	
279.2	4666.6	
279.41	4683.7	
279.62	4291.2	
279.83	3048.1	
280.04	5954.1	
280.25	4595	
280.46	4279.6	
280.67	3441.3	
280.88	4684.4	
281.09	5545.9	
281.3	3618.8	
281.51	4481.6	
281.72	4686.4	
281.93	5361.6	
282.14	3260.4	
282.35	3502.7	
282.56	5427.1	
282.77	5311.1	
282.98	3325.9	
283.19	4048.2	
283.4	6530.3	
283.61	4971.8	
283.82	3127.9	
284.03	4186	
284.24	5102.2	
284.45	5497.4	
284.66	4245.4	
284.87	4026.3	
285.08	5477.6	
285.29	5586.2	
285.5	2992.8	
285.71	3368.9	
285.92	5462.6	
286.12	5997.1	
286.33	4111.6	
286.54	3384.6	
286.75	5402.5	
286.96	4898.7	
287.17	3140.9	
287.38	4009.9	
287.59	4739.7	
287.8	4653.7	
288.01	3371	
288.22	3768.9	
288.43	5328.1	
288.64	4556.7	
288.85	3930.1	
289.06	3780.6	
289.27	5354.8	
289.48	5769.8	
289.69	4208.6	
289.9	3844.7	
290.11	5526.8	
290.32	4773.1	
290.53	4012.7	
290.74	3676.1	
290.94	5371.8	
291.15	5393.7	
291.36	3240.6	
291.57	3804.4	
291.78	4761.5	
291.99	4456.4	
292.2	3117.7	
292.41	3676.8	
292.62	5457.8	
292.83	5255.1	
293.04	4503.5	
293.25	3151.8	
293.46	4872.8	
293.67	5521.3	
293.88	3236.5	
294.09	3108.8	
294.29	4637.3	
294.5	5087.8	
294.71	3411.2	
294.92	3300.6	
295.13	4771.8	
295.34	5890.6	
295.55	2922.5	
295.76	2871.9	
295.97	5302.2	
296.18	5931.6	
296.39	3105.4	
296.6	3241.9	
296.81	5094	
297.01	5332.2	
297.22	3372.3	
297.43	3246	
297.64	4720.6	
297.85	4664.6	
298.06	2725.2	
298.27	2940.9	
298.48	4974.5	
298.69	4717.8	
298.9	3495.9	
299.11	3134.8	
299.31	4596.3	
299.52	4623.6	
299.73	3753.9	
299.94	3629	
300.15	4985.4	
300.36	4726	
300.57	3590.8	
300.78	3635.8	
300.99	4882.4	
301.2	5087.2	
301.4	3232.4	
301.61	3519.8	
301.82	5258.5	
302.03	5335.6	
302.24	3875.4	
302.45	3042.6	
302.66	5264.6	
302.87	5537.7	
303.08	3249.4	
303.29	4340.3	
303.49	4798.4	
303.7	4987.5	
303.91	2898.6	
304.12	4130.8	
304.33	4524	
304.54	5098.8	
304.75	3276.8	
304.96	3166.8	
305.16	5233.2	
305.37	5862	
305.58	2867.2	
305.79	2921.1	
306	5281.7	
306.21	4497.3	
306.42	3190.1	
306.63	4869.4	
306.83	4883.7	
307.04	5441.5	
307.25	3508.9	
307.46	3465.8	
307.67	4348.5	
307.88	5287.9	
308.09	3186.6	
308.29	3265.1	
308.5	5033.2	
308.71	5455.8	
308.92	3429	
309.13	3216.7	
309.34	4899.4	
309.55	4934.2	
309.75	3968.3	
309.96	3641.3	
310.17	5331.5	
310.38	4745.8	
310.59	3834.5	
310.8	3052.8	
311.01	4893.3	
311.21	4880.3	
311.42	3121.8	
311.63	3226.9	
311.84	4792.9	
312.05	5037.3	
312.26	3637.9	
312.46	3893.9	
312.67	4909	
312.88	4545.8	
313.09	3104.7	
313.3	3033	
313.51	5608.7	
313.71	5958.2	
313.92	3082.9	
314.13	3248.8	
314.34	5188.2	
314.55	4930.8	
314.76	3893.9	
314.96	3495.2	
315.17	5132.2	
315.38	5230.5	
315.59	3179.1	
315.8	2994.8	
316.01	5716.6	
316.21	5762.3	
316.42	3002.3	
316.63	3468.6	
316.84	4878.3	
317.05	5529.5	
317.26	3679.5	
317.46	3306.1	
317.67	4932.9	
317.88	5295.4	
318.09	3880.9	
318.3	2882.2	
318.5	4744.5	
318.71	5257.8	
318.92	4900.8	
319.13	3677.5	
319.34	5430.5	
319.54	5501.5	
319.75	2960.7	
319.96	2815.3	
320.17	5244.8	
320.38	5466.7	
320.58	2895.1	
320.79	3394.8	
321	5481	
321.21	5592.3	
321.42	3448.1	
321.62	2880.8	
321.83	4692.6	
322.04	5045.5	
322.25	3300	
322.46	3176.4	
322.66	5094.7	
322.87	5174.5	
323.08	3793.5	
323.29	3036.5	
323.5	5930.2	
323.7	4557.4	
323.91	4158.7	
324.12	3794.9	
324.33	5079	
324.53	5259.2	
324.74	3628.3	
324.95	3800.3	
325.16	4500.1	
325.37	4817.5	
325.57	3175.7	
325.78	3201	
325.99	5066	
326.2	4559.5	
326.4	4328	
326.61	2955.2	
326.82	4865.3	
327.03	5072.1	
327.24	4392.9	
327.44	4059.8	
327.65	5242.1	
327.86	4300.7	
328.07	3608.5	
328.27	3049.4	
328.48	5588.9	
328.69	4647.5	
328.9	4483	
329.1	3368.2	
329.31	4906.9	
329.52	5614.2	
329.73	3147.7	
329.93	3447.4	
330.14	5072.8	
330.35	5163.6	
330.56	4990.9	
330.76	3814.7	
330.97	4853.7	
331.18	5127.4	
331.39	3477.5	
331.59	2851.5	
331.8	5406.6	
332.01	5593	
332.22	3220.1	
332.42	3636.5	
332.63	5056.4	
332.84	4687.8	
333.05	3527.3	
333.25	3194.8	
333.46	4760.2	
333.67	4957.4	
333.88	3241.9	
334.08	3553.2	
334.29	6434	
334.5	5489.9	
334.7	3056.9	
334.91	4364.9	
335.12	4642.7	
335.33	5297.4	
335.53	3466.5	
335.74	4977.2	
335.95	4864.6	
336.16	4638.6	
336.36	3433.1	
336.57	3900	
336.78	4619.5	
336.98	5415.5	
337.19	4253.6	
337.4	3359.4	
337.61	5930.9	
337.81	4577.2	
338.02	3236.5	
338.23	4049.5	
338.43	5547.9	
338.64	4716.5	
338.85	3173.7	
339.05	4080.2	
339.26	5691.3	
339.47	4535.6	
339.68	3155.9	
339.88	4528.1	
340.09	5196.4	
340.3	5406.6	
340.5	3657.7	
340.71	2863.1	
340.92	4561.5	
341.13	5541.1	
341.33	3018	
341.54	3642	
341.75	5199.8	
341.95	4850.3	
342.16	3516.4	
342.37	3795.6	
342.57	4602.5	
342.78	4903.5	
342.99	3865.2	
343.19	2841.9	
343.4	5373.9	
343.61	5190.9	
343.81	3360.7	
344.02	3074	
344.23	5352	
344.43	5623	
344.64	3857	
344.85	3766.9	
345.06	5245.5	
345.26	5482.4	
345.47	3629.7	
345.68	4154	
345.88	4396.3	
346.09	5326.1	
346.3	3715.7	
346.5	2805	
346.71	4961.5	
346.92	4743.1	
347.12	2973	
347.33	3601	
347.54	5444.2	
347.74	5767.1	
347.95	3580.5	
348.16	2768.2	
348.36	4855.7	
348.57	4687.1	
348.78	3634.5	
348.98	3755.3	
349.19	4944.5	
349.39	4489.8	
349.6	2940.2	
349.81	3198.9	
350.01	5195	
350.22	4752	
350.43	3474.7	
350.63	4108.2	
350.84	4965.6	
351.05	4778.6	
351.25	3143.6	
351.46	2925.2	
351.67	5450.3	
351.87	4763.6	
352.08	3364.8	
352.29	3757.3	
352.49	5351.3	
352.7	5030.5	
352.9	3001	
353.11	3759.4	
353.32	5869.5	
353.52	4775.2	
353.73	3052.2	
353.94	3837.2	
354.14	5272.8	
354.35	5034.6	
354.55	3169.6	
354.76	3463.1	
354.97	5162.9	
355.17	4980	
355.38	2959.3	
355.59	4059.8	
355.79	4655	
356	4990.2	
356.2	3401	
356.41	3043.3	
356.62	4457.7	
356.82	4906.3	
357.03	3647.4	
357.24	3270.6	
357.44	4703.5	
357.65	4841.4	
357.85	4373.8	
358.06	3467.2	
358.27	4446.8	
358.47	4625	
358.68	2927.2	
358.88	3624.2	
359.09	5151.3	
359.3	5436.7	
359.5	4190.8	
359.71	3792.2	
359.91	5834.7	
360.12	5237.3	
360.33	3636.5	
360.53	4020.8	
360.74	4725.3	
360.94	4737	
361.15	3779.2	
361.36	3188.7	
361.56	5369.8	
361.77	4896.7	
361.97	4183.3	
362.18	3400.3	
362.38	5329.5	
362.59	4576.5	
362.8	3084.2	
363	3002.3	
363.21	4435.9	
363.41	4928.1	
363.62	3527.3	
363.83	4302.1	
364.03	5064.6	
364.24	5768.4	
364.44	4430.4	
364.65	4410	
364.85	4861.2	
365.06	4537.6	
365.27	3246.7	
365.47	3270.6	
365.68	5732.3	
365.88	4770.4	
366.09	3551.2	
366.29	3320.4	
366.5	4950.6	
366.71	5402.5	
366.91	4374.5	
367.12	3781.2	
367.32	5885.9	
367.53	5238.7	
367.73	3685.7	
367.94	4537.6	
368.14	5243.5	
368.35	5898.1	
368.56	3672.7	
368.76	3442.6	
368.97	5304.9	
369.17	6679.1	
369.38	3219.4	
369.58	3416.7	
369.79	4518.5	
369.99	5608	
370.2	4272.1	
370.4	3536.8	
370.61	5057.8	
370.82	6086.6	
371.02	3493.2	
371.23	2921.1	
371.43	4471.4	
371.64	5563	
371.84	3515.7	
372.05	4433.2	
372.25	6548.7	
372.46	5242.1	
372.66	3503.4	
372.87	3407.8	
373.07	5334.3	
373.28	6652.5	
373.48	4296.6	
373.69	4030.4	
373.9	4892.6	
374.1	4893.3	
374.31	4176.5	
374.51	3865.2	
374.72	5526.1	
374.92	4622.3	
375.13	4299.4	
375.33	3694.5	
375.54	5165	
375.74	4691.9	
375.95	3697.9	
376.15	4749.2	
376.36	5170.4	
376.56	5045.5	
376.77	3700	
376.97	4112.3	
377.18	6112.5	
377.38	5271.5	
377.59	4332.1	
377.79	3327.9	
378	5117.9	
378.2	5408	
378.41	3370.3	
378.61	3331.4	
378.82	5472.9	
379.02	4731.5	
379.23	3557.3	
379.43	4385.4	
379.64	5620.3	
379.84	5200.5	
380.05	3397.6	
380.25	3310.9	
380.46	5292	
380.66	4938.3	
380.87	4488.5	
381.07	4703.5	
381.28	5771.9	
381.48	5270.1	
381.69	3402.4	
381.89	3419.4	
382.1	4444.8	
382.3	5431.9	
382.51	4240.7	
382.71	5113.8	
382.91	5311.1	
383.12	5751.4	
383.32	3695.9	
383.53	3886.4	
383.73	5198.4	
383.94	5030.5	
384.14	3818.8	
384.35	3107.5	
384.55	4945.2	
384.76	5258.5	
384.96	3721.2	
385.17	3990.1	
385.37	5350	
385.58	4726.7	
385.78	3974.4	
385.98	3040.6	
386.19	4853	
386.39	5226.4	
386.6	3512.9	
386.8	3663.8	
387.01	5267.4	
387.21	5347.9	
387.42	4042.7	
387.62	4485.1	
387.83	4709	
388.03	5190.9	
388.23	3710.9	
388.44	4390.2	
388.64	4384.7	
388.85	4555.4	
389.05	3994.2	
389.26	4485.7	
389.46	6186.2	
389.67	5604.6	
389.87	3979.2	
390.07	4001.7	
390.28	4946.5	
390.48	4594.3	
390.69	3349.1	
390.89	3564.1	
391.1	4777.2	
391.3	5490.6	
391.5	4598.4	
391.71	5094.7	
391.91	5300.8	
392.12	6055.8	
392.32	4665.3	
392.53	3954.6	
392.73	4846.2	
392.93	4977.2	
393.14	3734.8	
393.34	4482.3	
393.55	5330.2	
393.75	4957.4	
393.95	3734.8	
394.16	3696.6	
394.36	4808.6	
394.57	5322.7	
394.77	3327.3	
394.98	3638.6	
395.18	4701.5	
395.38	4885.8	
395.59	4287.1	
395.79	3433.8	
396	4798.4	
396.2	5283.8	
396.4	4085.7	
396.61	4039.3	
396.81	5281.7	
397.02	4796.3	
397.22	4319.2	
397.42	4426.3	
397.63	5337.7	
397.83	4700.1	
398.04	3412.6	
398.24	3863.2	
398.44	5171.8	
398.65	4354	
398.85	3278.1	
399.05	3319.1	
399.26	4712.4	
399.46	6092	
399.67	3650.2	
399.87	3386.7	
400.07	4971.1	
400.28	5241.4	
400.48	3538.9	
400.69	4330.1	
400.89	5403.9	
401.09	5757.5	
401.3	3396.2	
401.5	4279.6	
401.7	5963.7	
401.91	6180.8	
402.11	3714.3	
402.32	3867.9	
402.52	5430.5	
402.72	5346.6	
402.93	4128	
403.13	3132.7	
403.33	6143.9	
403.54	5055.1	
403.74	3837.9	
403.94	4541.7	
404.15	5114.5	
404.35	6033.3	
404.56	3632.4	
404.76	5143.1	
404.96	5365.7	
405.17	5263.3	
405.37	4625.7	
405.57	4042.7	
405.78	5438	
405.98	5035.3	
406.18	3674.1	
406.39	4386.7	
406.59	5418.2	
406.79	5063.3	
407	3427.6	
407.2	3549.8	
407.4	5466	
407.61	5619.6	
407.81	3491.1	
408.01	5325.4	
408.22	4513	
408.42	6108.4	
408.62	4351.9	
408.83	3908.9	
409.03	4945.2	
409.23	4816.8	
409.44	3962.1	
409.64	4203.1	
409.84	5751.4	
410.05	5558.9	
410.25	4022.2	
410.45	3789.4	
410.66	5216.9	
410.86	7203.4	
411.06	4139.6	
411.27	4012.7	
411.47	6981.5	
411.67	5283.1	
411.88	4218.8	
412.08	4381.3	
412.28	5792.3	
412.49	6263.4	
412.69	3990.1	
412.89	4043.4	
413.09	5996.5	
413.3	5965.7	
413.5	4076.8	
413.7	3741	
413.91	5332.9	
414.11	6021	
414.31	3886.4	
414.52	4250.9	
414.72	5811.5	
414.92	5569.1	
415.12	3887.7	
415.33	4339.6	
415.53	5929.6	
415.73	6095.4	
415.94	4599.1	
416.14	4138.9	
416.34	5150.6	
416.55	4956.8	
416.75	5148.6	
416.95	4636.6	
417.15	5977.3	
417.36	6561	
417.56	5326.8	
417.76	4484.4	
417.97	6200.6	
418.17	5907.7	
418.37	4174.4	
418.57	4143	
418.78	5799.8	
418.98	5537	
419.18	4898.1	
419.38	4861.2	
419.59	5481.7	
419.79	5270.8	
419.99	4118.5	
420.2	4369.7	
420.4	5984.8	
420.6	6113.2	
420.8	3935.5	
421.01	3854.3	
421.21	5799.2	
421.41	5830.6	
421.61	4357.4	
421.82	4065.9	
422.02	5401.2	
422.22	6195.8	
422.42	4735.6	
422.63	4545.8	
422.83	5515.2	
423.03	6483.2	
423.23	4459.1	
423.44	3579.2	
423.64	5491.3	
423.84	5269.4	
424.04	4025.6	
424.25	3768.9	
424.45	6327.5	
424.65	6319.3	
424.85	3595.6	
425.06	4098	
425.26	6404.7	
425.46	5444.2	
425.66	4519.9	
425.87	4217.5	
426.07	6155.5	
426.27	5917.3	
426.47	4363.5	
426.67	3803.1	
426.88	6412.9	
427.08	5888.6	
427.28	4571.7	
427.48	3743	
427.69	5081	
427.89	5601.2	
428.09	4487.8	
428.29	3718.4	
428.5	6079.1	
428.7	5769.8	
428.9	3676.8	
429.1	4106.9	
429.3	5717.2	
429.51	5963.7	
429.71	4024.9	
429.91	4624.3	
430.11	5970.5	
430.31	6069.5	
430.52	4145.1	
430.72	4391.5	
430.92	6327.5	
431.12	5922	
431.32	3897.3	
431.53	4225.6	
431.73	4994.3	
431.93	6451.8	
432.13	3797.6	
432.33	3672	
432.54	5420.3	
432.74	5646.9	
432.94	3654.9	
433.14	4617.5	
433.34	5924.8	
433.55	5497.4	
433.75	4454.3	
433.95	5862.7	
434.15	5627.1	
434.35	5493.3	
434.56	3803.8	
434.76	3381.9	
434.96	5621	
435.16	5765	
435.36	3686.3	
435.56	4621.6	
435.77	5281.7	
435.97	5388.9	
436.17	5148.6	
436.37	4552.6	
436.57	5321.3	
436.78	5212.1	
436.98	6013.5	
437.18	5044.1	
437.38	5845.6	
437.58	5459.9	
437.78	5211.4	
437.99	3980.6	
438.19	5873.6	
438.39	7090.8	
438.59	4017.4	
438.79	3606.5	
438.99	6429.9	
439.2	5447.6	
439.4	3693.2	
439.6	3638.6	
439.8	5679	
440	6457.2	
440.2	4442	
440.4	4539.7	
440.61	5938.4	
440.81	6399.9	
441.01	3738.9	
441.21	4460.5	
441.41	6242.2	
441.61	5952.8	
441.81	4714.4	
442.02	5538.4	
442.22	6593.1	
442.42	6013.5	
442.62	3760.8	
442.82	3798.3	
443.02	6308.4	
443.22	5460.6	
443.43	4132.1	
443.63	3806.5	
443.83	5377.3	
444.03	5382.7	
444.23	4751.3	
444.43	4389.5	
444.63	5647.6	
444.83	6657.9	
445.04	3731.4	
445.24	4936.3	
445.44	6006	
445.64	6016.2	
445.84	4577.9	
446.04	4534.2	
446.24	5418.2	
446.44	6283.9	
446.65	3880.9	
446.85	4169	
447.05	5551.4	
447.25	6266.8	
447.45	4297.3	
447.65	3710.9	
447.85	5724.1	
448.05	5427.1	
448.25	4631.8	
448.46	4453.6	
448.66	5717.2	
448.86	5413.5	
449.06	3625.6	
449.26	4564.2	
449.46	5977.3	
449.66	5254.4	
449.86	4158.1	
450.06	4103.4	
450.26	5370.5	
450.47	5849	
450.67	4391.5	
450.87	4683	
451.07	5924.8	
451.27	5666	
451.47	3830.4	
451.67	4300.7	
451.87	5398.4	
452.07	6369.2	
452.27	3945.8	
452.47	4001	
452.67	5724.1	
452.88	6081.1	
453.08	3506.1	
453.28	5056.4	
453.48	6739.2	
453.68	5662	
453.88	3865.2	
454.08	4057	
454.28	5965.1	
454.48	5655.8	
454.68	4541.7	
454.88	4928.8	
455.08	6059.3	
455.28	5763.7	
455.48	3788.1	
455.68	4298	
455.89	6387.6	
456.09	6080.4	
456.29	4053.6	
456.49	4056.3	
456.69	6325.5	
456.89	5776.6	
457.09	4465.9	
457.29	4717.2	
457.49	5856.5	
457.69	5890.6	
457.89	4276.8	
458.09	3723.2	
458.29	5614.2	
458.49	6249.7	
458.69	4596.3	
458.89	4110.3	
459.09	6376	
459.29	6496.2	
459.49	4150.5	
459.69	4875.5	
459.9	6060.6	
460.1	5627.8	
460.3	4135.5	
460.5	3879.5	
460.7	5963	
460.9	5685.2	
461.1	3586	
461.3	4668	
461.5	6488	
461.7	6163	
461.9	3881.6	
462.1	4311	
462.3	5741.1	
462.5	6223.8	
462.7	3979.2	
462.9	3969.6	
463.1	6957.6	
463.3	6659.3	
463.5	4158.7	
463.7	4930.8	
463.9	5900.9	
464.1	6146	
464.3	4175.8	
464.5	4451.6	
464.7	6313.2	
464.9	5941.8	
465.1	5544.5	
465.3	4701.5	
465.5	6602.7	
465.7	6535.8	
465.9	4869.4	
466.1	4788.8	
466.3	6299.6	
466.5	6261.3	
466.7	5360.9	
466.9	4470.7	
467.1	6201.2	
467.3	6954.9	
467.5	5309	
467.7	4436.6	
467.9	7189.7	
468.1	7821.9	
468.3	5048.9	
468.5	5355.4	
468.7	6117.3	
468.9	6081.8	
469.1	4631.8	
469.3	5108.3	
469.5	7783	
469.7	5735.7	
469.9	5045.5	
470.1	4400.4	
470.3	6190.3	
470.5	6115.9	
470.7	5542.5	
470.9	4505.5	
471.1	5939.1	
471.3	6398.5	
471.5	4321.9	
471.69	5929.6	
471.89	5929.6	
472.09	5515.9	
472.29	5009.3	
472.49	5411.4	
472.69	5599.8	
472.89	6268.1	
473.09	4304.1	
473.29	4425	
473.49	5798.5	
473.69	5980.1	
473.89	5181.4	
474.09	4498	
474.29	6949.4	
474.49	6682.5	
474.69	5177.9	
474.89	4614.1	
475.09	5954.8	
475.29	5896.8	
475.49	4220.2	
475.69	4397	
475.88	7330.4	
476.08	6311.8	
476.28	4088.4	
476.48	4491.2	
476.68	6650.4	
476.88	6484.6	
477.08	4442	
477.28	4586.1	
477.48	6111.8	
477.68	6535.1	
477.88	4229.7	
478.08	4549.2	
478.28	6799.3	
478.48	6153.5	
478.67	4562.9	
478.87	4147.1	
479.07	6619.7	
479.27	6230.6	
479.47	4704.2	
479.67	4721.3	
479.87	6509.8	
480.07	6972.7	
480.27	4153.3	
480.47	5486.5	
480.67	6281.1	
480.87	6761	
481.06	4341	
481.26	5062.6	
481.46	6173.9	
481.66	6156.2	
481.86	4743.8	
482.06	5568.4	
482.26	5915.2	
482.46	6677.7	
482.66	4622.3	
482.86	4300.7	
483.05	6261.3	
483.25	5709.7	
483.45	6709.8	
483.65	4650.9	
483.85	5816.2	
484.05	6076.3	
484.25	5041.4	
484.45	5341.1	
484.65	6763.8	
484.84	6715.3	
485.04	4599.7	
485.24	4511	
485.44	7083.9	
485.64	5629.9	
485.84	3976.5	
486.04	5059.2	
486.24	5856.5	
486.44	6244.9	
486.63	3889.8	
486.83	4578.6	
487.03	5780.1	
487.23	5957.5	
487.43	3994.2	
487.63	5889.3	
487.83	6029.9	
488.02	6832.7	
488.22	4737	
488.42	5289.2	
488.62	6701	
488.82	5816.9	
489.02	4487.8	
489.22	4482.3	
489.41	6583.5	
489.61	6272.9	
489.81	4203.8	
490.01	4222.2	
490.21	6579.4	
490.41	7135.8	
490.61	4286.4	
490.8	4300.7	
491	6152.8	
491.2	5646.9	
491.4	4891.2	
491.6	4128	
491.8	6136.4	
491.99	6223.1	
492.19	4004.5	
492.39	4308.2	
492.59	6531	
492.79	6575.3	
492.99	4896	
493.18	4162.8	
493.38	6641.6	
493.58	7076.4	
493.78	4770.4	
493.98	4435.2	
494.18	6328.9	
494.37	5796.4	
494.57	4861.9	
494.77	4777.9	
494.97	6389	
495.17	6558.3	
495.37	4364.2	
495.56	4672.8	
495.76	6766.5	
495.96	6395.1	
496.16	5414.8	
496.36	4487.1	
496.55	6618.4	
496.75	6120	
496.95	4922	
497.15	4717.2	
497.35	6535.1	
497.54	6436.1	
497.74	4554.7	
497.94	5943.2	
498.14	7076.4	
498.34	6844.3	
498.53	4192.9	
498.73	4876.9	
498.93	5997.8	
499.13	6511.2	
499.33	4746.5	
499.52	5247.6	
499.72	6398.5	
499.92	6720.8	
500.12	4416.1	
500.32	4629.8	
500.51	6647.7	
500.71	6382.8	
500.91	5252.4	
501.11	4988.2	
501.31	6627.2	
501.5	6929.6	
501.7	5563	
501.9	4670.7	
502.1	6408.8	
502.29	6707.8	
502.49	5045.5	
502.69	5423.7	
502.89	6654.5	
503.09	6630	
503.28	4317.1	
503.48	4495.3	
503.68	6091.3	
503.88	6061.3	
504.07	5280.3	
504.27	4848.2	
504.47	6380.8	
504.67	6475	
504.86	5231.2	
505.06	4960.9	
505.26	6137.1	
505.46	7556.3	
505.65	4874.8	
505.85	5128.8	
506.05	6140.5	
506.25	6532.3	
506.44	4339.6	
506.64	5143.8	
506.84	6065.4	
507.04	6849.1	
507.23	4500.8	
507.43	4999.8	
507.63	7655.3	
507.83	6186.2	
508.02	4991.6	
508.22	4637.3	
508.42	7873.8	
508.62	5954.1	
508.81	4870.1	
509.01	5390.3	
509.21	5978	
509.4	6227.2	
509.6	5008	
509.8	4474.1	
510	6176.7	
510.19	7312.6	
510.39	4530.1	
510.59	4500.8	
510.79	6026.5	
510.98	7173.4	
511.18	4558.1	
511.38	4684.4	
511.57	6784.2	
511.77	6533.7	
511.97	5259.9	
512.17	4560.1	
512.36	6673	
512.56	6654.5	
512.76	4451.6	
512.95	4291.2	
513.15	6807.4	
513.35	5616.9	
513.55	5192.3	
513.74	4521.9	
513.94	6728.9	
514.14	6193.7	
514.33	5203.9	
514.53	4993.6	
514.73	6165.8	
514.92	6361.7	
515.12	4584.7	
515.32	4375.8	
515.51	6392.4	
515.71	6783.6	
515.91	6016.2	
516.11	4489.1	
516.3	7779.6	
516.5	5995.1	
516.7	5001.8	
516.89	5465.3	
517.09	6184.9	
517.29	6143.9	
517.48	5269.4	
517.68	4654.4	
517.88	5941.2	
518.07	6420.4	
518.27	5122.7	
518.47	4335.5	
518.66	6965.1	
518.86	5746.6	
519.06	4197	
519.25	4577.9	
519.45	6137.1	
519.65	7224.6	
519.84	5089.9	
520.04	5672.9	
520.24	7617.8	
520.43	6618.4	
520.63	4937	
520.83	4687.8	
521.02	5989.6	
521.22	6563.7	
521.42	5173.9	
521.61	5608.7	
521.81	6222.4	
522.01	6393.1	
522.2	4967	
522.4	4827.1	
522.6	6681.8	
522.79	5627.8	
522.99	4838	
523.18	4188.1	
523.38	6391.7	
523.58	6377.4	
523.77	5716.6	
523.97	4156	
524.17	7924.3	
524.36	7206.1	
524.56	5390.9	
524.76	4939.7	
524.95	6281.8	
525.15	6058.6	
525.34	4790.9	
525.54	4790.2	
525.74	6524.8	
525.93	5735	
526.13	5750	
526.33	4704.9	
526.52	6926.9	
526.72	6343.2	
526.91	5695.4	
527.11	5072.1	
527.31	6860.7	
527.5	7085.3	
527.7	5014.8	
527.89	4212.7	
528.09	5946.6	
528.29	6319.3	
528.48	5330.2	
528.68	5034.6	
528.87	6718	
529.07	6694.8	
529.27	4937	
529.46	4628.4	
529.66	6479.8	
529.85	6735.1	
530.05	4486.4	
530.25	5169.1	
530.44	7680.6	
530.64	6359.6	
530.83	4880.3	
531.03	4930.1	
531.23	6679.1	
531.42	6597.9	
531.62	5523.4	
531.81	4839.4	
532.01	6738.5	
532.21	7050.5	
532.4	4653	
532.6	4917.9	
532.79	7572	
532.99	6745.3	
533.18	4982.7	
533.38	5854.5	
533.58	6361.7	
533.77	7056.6	
533.97	4888.5	
534.16	5559.6	
534.36	7162.4	
534.55	6391	
534.75	5726.8	
534.95	4974.5	
535.14	7015.7	
535.34	6350.8	
535.53	4751.3	
535.73	6310.5	
535.92	7512.6	
536.12	6546	
536.31	4848.9	
536.51	5816.2	
536.71	6861.4	
536.9	6476.4	
537.1	4961.5	
537.29	5033.2	
537.49	7152.2	
537.68	6345.3	
537.88	5332.9	
538.07	4616.8	
538.27	6552.8	
538.46	7430	
538.66	4560.8	
538.86	4876.9	
539.05	6632	
539.25	6905.1	
539.44	5210	
539.64	4924	
539.83	6475	
540.03	7301.7	
540.22	4805.2	
540.42	4949.3	
540.61	6808.8	
540.81	6685.9	
541	5287.2	
541.2	5812.8	
541.39	6307.7	
541.59	6590.4	
541.78	5530.2	
541.98	4833.9	
542.18	6165.1	
542.37	6076.3	
542.57	5132.9	
542.76	5565.7	
542.96	6270.2	
543.15	6745.3	
543.35	5263.3	
543.54	4699.4	
543.74	7002.7	
543.93	6611.5	
544.13	5218.2	
544.32	6154.1	
544.52	7020.4	
544.71	6253.8	
544.91	4524	
545.1	5553.4	
545.3	6398.5	
545.49	6815	
545.69	4421.6	
545.88	5061.2	
546.08	7684.7	
546.27	7332.4	
546.47	5389.6	
546.66	4749.9	
546.86	7040.2	
547.05	7631.4	
547.24	4959.5	
547.44	4869.4	
547.63	6307.7	
547.83	7101.7	
548.02	5195.7	
548.22	5332.2	
548.41	6089.3	
548.61	7175.4	
548.8	4876.2	
549	4843.4	
549.19	6730.3	
549.39	7005.4	
549.58	4601.8	
549.78	5027.1	
549.97	7027.9	
550.17	6599.2	
550.36	5836	
550.55	6692.1	
550.75	6554.2	
550.94	7335.1	
551.14	4812	
551.33	5210.7	
551.53	5939.8	
551.72	6849.1	
551.92	5130.8	
552.11	4922.6	
552.31	6886.6	
552.5	6897.6	
552.69	6282.5	
552.89	4656.4	
553.08	6877.8	
553.28	6619	
553.47	5044.1	
553.67	6000.5	
553.86	7342.7	
554.06	5976	
554.25	4336.2	
554.44	4724.7	
554.64	8029.4	
554.83	7572.7	
555.03	4802.5	
555.22	5148.6	
555.42	7150.8	
555.61	6772.6	
555.8	5016.8	
556	5184.1	
556.19	6118.6	
556.39	7207.5	
556.58	4987.5	
556.78	5060.5	
556.97	6763.1	
557.16	6451.8	
557.36	5965.1	
557.55	4713.7	
557.75	5923.4	
557.94	7412.3	
558.13	4816.1	
558.33	4632.5	
558.52	7172	
558.72	6212.9	
558.91	4734.9	
559.1	4916.5	
559.3	6014.9	
559.49	5834.7	
559.69	4362.2	
559.88	5211.4	
560.07	6638.1	
560.27	7047.7	
560.46	5330.9	
560.66	5465.3	
560.85	6595.8	
561.04	5848.3	
561.24	4738.3	
561.43	4894.6	
561.63	6032	
561.82	6389	
562.01	5889.3	
562.21	5171.1	
562.4	6644.3	
562.59	7395.2	
562.79	5033.2	
562.98	4688.5	
563.18	6535.1	
563.37	7763.8	
563.56	5315.8	
563.76	4626.4	
563.95	6200.6	
564.14	6083.1	
564.34	4947.2	
564.53	4797.7	
564.73	6620.4	
564.92	6826.6	
565.11	5050.3	
565.31	4478.9	
565.5	7092.1	
565.69	6128.9	
565.89	4723.3	
566.08	4932.9	
566.27	6978.8	
566.47	7311.2	
566.66	5500.2	
566.85	4360.1	
567.05	6617.7	
567.24	6154.8	
567.44	4607.9	
567.63	5725.4	
567.82	6789	
568.02	6574	
568.21	4619.5	
568.4	4961.5	
568.6	6475	
568.79	6406	
568.98	4487.8	
569.18	4593.6	
569.37	6365.8	
569.56	8036.2	
569.76	4971.8	
569.95	5700.9	
570.14	6771.9	
570.34	6524.1	
570.53	4508.3	
570.72	4471.4	
570.91	7139.9	
571.11	6397.2	
571.3	4980	
571.49	5728.9	
571.69	6494.1	
571.88	6023.1	
572.07	5300.1	
572.27	5420.3	
572.46	5991	
572.65	6924.2	
572.85	4762.9	
573.04	5001.8	
573.23	7059.3	
573.43	6479.1	
573.62	4469.4	
573.81	5044.8	
574	6420.4	
574.2	6298.9	
574.39	4716.5	
574.58	4933.6	
574.78	7109.2	
574.97	6496.2	
575.16	5169.1	
575.36	5274.2	
575.55	6849.8	
575.74	6964.5	
575.93	4393.6	
576.13	5162.2	
576.32	6279.1	
576.51	6730.3	
576.71	4814.8	
576.9	5909.8	
577.09	7046.4	
577.28	6655.2	
577.48	5224.4	
577.67	4310.3	
577.86	6319.3	
578.05	6553.5	
578.25	4889.9	
578.44	4988.2	
578.63	6423.8	
578.83	7410.9	
579.02	4464.6	
579.21	5629.2	
579.4	6518	
579.6	6348.7	
579.79	5009.3	
579.98	6870.9	
580.17	6862.7	
580.37	6902.3	
580.56	4607.9	
580.75	5193.6	
580.94	7230	
581.14	7211.6	
581.33	5464	
581.52	4747.2	
581.71	6709.1	
581.91	7271	
582.1	4366.3	
582.29	4910.3	
582.48	6407.4	
582.68	6337.1	
582.87	5359.5	
583.06	4965	
583.25	6789	
583.45	6511.9	
583.64	5516.5	
583.83	6022.4	
584.02	6332.3	
584.21	6684.6	
584.41	5464.7	
584.6	4904.2	
584.79	6536.4	
584.98	6969.9	
585.18	4493.9	
585.37	4557.4	
585.56	6110.5	
585.75	6743.3	
585.94	4745.1	
586.14	5293.3	
586.33	7287.4	
586.52	6417.7	
586.71	5096.7	
586.91	4868	
587.1	5935	
587.29	6843.6	
587.48	4882.4	
587.67	4781.3	
587.87	6784.9	
588.06	6769.9	
588.25	5905	
588.44	5356.1	
588.63	6528.2	
588.83	6923.5	
589.02	4923.3	
589.21	4870.1	
589.4	6446.3	
589.59	6376	
589.78	4288.4	
589.98	4659.1	
590.17	6124.1	
590.36	6536.4	
590.55	4076.1	
590.74	4814.1	
590.94	7717.4	
591.13	6457.9	
591.32	4607.9	
591.51	4246.8	
591.7	6769.9	
591.89	6364.4	
592.09	4302.8	
592.28	4657.1	
592.47	5677.7	
592.66	7327.6	
592.85	4249.5	
593.05	4530.1	
593.24	6224.5	
593.43	6861.4	
593.62	4518.5	
593.81	4984.1	
594	6287.9	
594.19	6380.8	
594.39	4465.3	
594.58	4410	
594.77	6550.1	
594.96	7053.9	
595.15	4407.2	
595.34	4964.3	
595.54	6600.6	
595.73	5857.2	
595.92	3906.8	
596.11	4852.3	
596.3	7000	
596.49	5910.4	
596.68	4638	
596.88	4990.2	
597.07	6749.4	
597.26	5711.1	
597.45	4317.8	
597.64	5230.5	
597.83	6039.5	
598.02	6557.6	
598.22	4358.1	
598.41	4915.1	
598.6	6328.9	
598.79	5853.1	
598.98	4339	
599.17	5137	
599.36	6406	
599.55	7342.7	
599.74	6077.7	
599.94	5840.1	
600.13	6791.1	
600.32	5829.9	
600.51	4156	
600.7	4282.3	
600.89	7338.6	
601.08	7374.7	
601.27	4160.1	
601.47	4910.3	
601.66	6776.7	
601.85	7201.3	
602.04	4688.5	
602.23	4743.8	
602.42	6014.9	
602.61	6485.2	
602.8	4631.1	
602.99	4457.7	
603.18	6254.5	
603.37	6463.4	
603.57	4898.1	
603.76	5438	
603.95	7079.1	
604.14	6659.3	
604.33	4489.1	
604.52	4732.2	
604.71	6420.4	
604.9	6046.3	
605.09	5524.7	
605.28	5131.5	
605.47	6853.9	
605.66	6651.1	
605.86	4941.7	
606.05	4556	
606.24	6907.1	
606.43	5698.1	
606.62	4807.9	
606.81	5480.4	
607	6797.2	
607.19	6152.1	
607.38	4278.9	
607.57	4480.3	
607.76	5991.7	
607.95	5557.5	
608.14	4900.8	
608.33	5426.4	
608.52	6034.7	
608.72	6737.1	
608.91	4253.6	
609.1	4130.8	
609.29	6100.2	
609.48	5709.1	
609.67	5066.7	
609.86	4227.7	
610.05	5881.8	
610.24	6116.6	
610.43	4155.3	
610.62	3827	
610.81	7063.4	
611	6837.5	
611.19	4261.1	
611.38	4849.6	
611.57	6309.8	
611.76	7476.5	
611.95	4077.5	
612.14	4017.4	
612.33	6159.6	
612.52	5853.1	
612.71	4521.2	
612.9	3865.9	
613.09	5452.4	
613.28	7349.5	
613.47	4506.2	
613.66	5106.3	
613.85	6220.4	
614.04	5875.6	
614.24	4359.4	
614.43	3734.1	
614.62	6382.2	
614.81	6371.2	
615	4858.5	
615.19	4819.6	
615.38	5807.4	
615.57	6094.8	
615.76	4728.8	
615.95	5470.1	
616.14	6437.4	
616.33	6120.7	
616.52	4986.1	
616.71	5130.8	
616.9	6397.2	
617.09	6201.2	
617.28	4453.6	
617.47	5406	
617.66	5655.8	
617.85	5621.7	
618.04	5165	
618.22	4726	
618.41	5980.1	
618.6	6539.8	
618.79	4645.5	
618.98	4330.8	
619.17	6810.2	
619.36	5400.5	
619.55	4467.3	
619.74	4452.3	
619.93	6227.2	
620.12	5695.4	
620.31	4956.8	
620.5	4984.1	
620.69	6675.7	
620.88	6984.3	
621.07	5558.9	
621.26	4825.7	
621.45	6338.5	
621.64	6395.1	
621.83	4965	
622.02	4170.3	
622.21	6287.3	
622.4	6170.5	
622.59	5337.7	
622.78	5137	
622.97	5869.5	
623.16	6677.7	
623.35	4892.6	
623.54	4120.5	
623.72	6019	
623.91	6079.1	
624.1	5031.2	
624.29	3977.2	
624.48	6984.3	
624.67	6368.5	
624.86	4929.5	
625.05	4159.4	
625.24	7100.3	
625.43	5816.2	
625.62	6393.8	
625.81	4299.4	
626	6580.8	
626.19	5991	
626.38	4977.9	
626.56	4554.7	
626.75	5890	
626.94	6445	
627.13	5048.9	
627.32	3951.9	
627.51	6393.1	
627.7	7448.5	
627.89	3973.1	
628.08	5046.9	
628.27	5834	
628.46	5916.6	
628.65	4386.1	
628.83	3936.9	
629.02	6460	
629.21	5834	
629.4	4709	
629.59	4864.6	
629.78	5767.1	
629.97	6652.5	
630.16	4806.6	
630.35	4453.6	
630.54	6901.7	
630.72	6698.9	
630.91	4415.4	
631.1	4876.2	
631.29	6272.9	
631.48	6404.7	
631.67	5039.4	
631.86	4494.6	
632.05	5902.2	
632.24	5953.4	
632.42	4274.8	
632.61	4744.5	
632.8	6044.9	
632.99	5647.6	
633.18	4711	
633.37	5070.8	
633.56	6200.6	
633.75	6089.3	
633.93	4769.7	
634.12	4504.2	
634.31	6937.8	
634.5	6562.4	
634.69	4491.9	
634.88	5001.1	
635.07	6100.9	
635.25	6639.5	
635.44	5274.9	
635.63	5442.1	
635.82	5924.8	
636.01	5476.3	
636.2	5166.3	
636.39	4834.6	
636.57	6983.6	
636.76	6577.4	
636.95	4322.6	
637.14	5566.4	
637.33	6352.1	
637.52	7023.2	
637.7	4225	
637.89	5073.5	
638.08	5953.4	
638.27	7176.1	
638.46	5021.6	
638.65	5442.8	
638.83	7265.5	
639.02	5881.8	
639.21	5023.7	
639.4	5418.2	
639.59	6279.8	
639.78	5941.2	
639.96	4358.8	
640.15	4457.7	
640.34	6236.1	
640.53	6292	
640.72	4221.5	
640.91	4560.1	
641.09	5722	
641.28	6746	
641.47	4442	
641.66	5169.8	
641.85	6229.9	
642.03	6533.7	
642.22	5010.7	
642.41	4600.4	
642.6	5737	
642.79	5292.6	
642.97	4388.8	
643.16	4994.3	
643.35	5835.3	
643.54	5739.8	
643.73	4356.7	
643.91	5071.5	
644.1	5647.6	
644.29	6076.3	
644.48	4516.5	
644.67	4489.8	
644.85	5786.9	
645.04	6092	
645.23	4117.1	
645.42	4375.8	
645.6	5742.5	
645.79	6654.5	
645.98	4450.2	
646.17	3689.8	
646.36	5532.9	
646.54	6071.5	
646.73	5197.7	
646.92	4192.9	
647.11	5718.6	
647.29	6588.3	
647.48	4139.6	
647.67	4003.8	
647.86	6845.7	
648.05	6808.1	
648.23	4472.8	
648.42	5591	
648.61	6324.8	
648.8	6032.6	
648.98	4215.4	
649.17	4437.9	
649.36	5765.7	
649.55	5324.7	
649.73	4212	
649.92	4838	
650.11	5639.4	
650.3	5909.1	
650.48	4367.6	
650.67	4182.6	
650.86	6172.6	
651.05	5226.4	
651.23	4284.4	
651.42	4311	
651.61	5717.9	
651.79	5720	
651.98	4465.9	
652.17	4182.6	
652.36	6110.5	
652.54	5326.1	
652.73	4222.2	
652.92	4119.8	
653.11	6096.1	
653.29	6209.4	
653.48	3685	
653.67	4525.3	
653.85	5976	
654.04	6866.2	
654.23	4687.1	
654.42	4287.8	
654.6	5650.3	
654.79	6221	
654.98	3976.5	
655.16	4410	
655.35	5331.5	
655.54	5231.9	
655.73	3991.5	
655.91	3923.2	
656.1	6221	
656.29	5103.5	
656.47	3602.4	
656.66	4965	
656.85	5473.5	
657.03	5427.8	
657.22	3990.1	
657.41	4008.6	
657.59	5540.4	
657.78	5341.8	
657.97	3734.1	
658.16	4341.7	
658.34	6059.9	
658.53	6415.6	
658.72	4994.3	
658.9	5504.3	
659.09	5700.2	
659.28	5642.2	
659.46	4040.6	
659.65	4046.1	
659.84	5427.8	
660.02	5853.1	
660.21	3911.6	
660.4	3930.7	
660.58	6231.3	
660.77	5676.3	
660.96	4444.8	
661.14	3643.3	
661.33	6682.5	
661.52	6494.1	
661.7	3680.2	
661.89	6631.3	
662.08	5410.7	
662.26	4979.3	
662.45	3900	
662.64	4010.6	
662.82	6000.5	
663.01	5276.3	
663.2	4042.7	
663.38	4611.3	
663.57	5906.3	
663.75	5736.4	
663.94	4264.6	
664.13	5272.8	
664.31	5378.6	
664.5	5920.7	
664.69	4627.7	
664.87	4913.1	
665.06	5190.2	
665.25	5782.8	
665.43	5154.7	
665.62	5199.8	
665.8	6043.6	
665.99	5509.7	
666.18	4250.9	
666.36	4333.5	
666.55	6086.6	
666.74	5987.6	
666.92	3943	
667.11	5327.4	
667.29	5569.8	
667.48	6044.2	
667.67	4990.2	
667.85	4184.7	
668.04	5558.2	
668.22	5515.9	
668.41	4336.9	
668.6	4511	
668.78	5356.1	
668.97	5532.9	
669.15	4702.1	
669.34	3758	
669.53	5386.8	
669.71	5696.8	
669.9	3927.3	
670.08	4423.6	
670.27	5272.8	
670.46	5871.5	
670.64	4636.6	
670.83	4878.9	
671.01	5174.5	
671.2	5800.5	
671.38	4009.9	
671.57	3915.7	
671.76	6285.9	
671.94	6852.5	
672.13	3839.3	
672.31	4795	
672.5	5943.9	
672.69	5319.3	
672.87	3974.4	
673.06	4231.1	
673.24	5789.6	
673.43	5363.6	
673.61	4579.3	
673.8	4217.5	
673.98	5950	
674.17	6054.5	
674.36	4771.8	
674.54	4605.2	
674.73	5728.2	
674.91	6044.2	
675.1	4358.1	
675.28	4091.8	
675.47	5599.1	
675.65	5972.6	
675.84	4285.7	
676.03	4477.5	
676.21	5405.3	
676.4	4947.2	
676.58	4911	
676.77	4695.3	
676.95	6660.7	
677.14	5378.6	
677.32	3901.4	
677.51	3825.6	
677.69	5978	
677.88	5134.3	
678.06	3838.6	
678.25	4000.4	
678.44	5591.6	
678.62	5317.9	
678.81	3753.2	
678.99	4529.4	
679.18	6246.3	
679.36	5870.8	
679.55	4205.2	
679.73	4777.9	
679.92	5869.5	
680.1	5382.1	
680.29	5221	
680.47	4214	
680.66	5338.4	
680.84	6070.2	
681.03	3676.1	
681.21	4693.9	
681.4	5402.5	
681.58	5252.4	
681.77	4006.5	
681.95	4023.6	
682.14	6116.6	
682.32	6363	
682.51	4775.2	
682.69	3858.4	
682.88	5371.8	
683.06	5820.3	
683.25	4486.4	
683.43	4908.3	
683.62	5613.5	
683.8	6013.5	
683.99	5010.7	
684.17	4374.5	
684.36	6651.8	
684.54	5617.6	
684.73	3873.4	
684.91	3991.5	
685.1	5926.8	
685.28	5433.9	
685.46	4607.2	
685.65	4597.7	
685.83	6092.7	
686.02	5564.3	
686.2	4095.3	
686.39	4117.8	
686.57	5181.4	
686.76	6500.3	
686.94	3990.8	
687.13	4196.3	
687.31	5893.4	
687.5	5556.1	
687.68	3686.3	
687.86	4777.9	
688.05	7011.6	
688.23	5068	
688.42	4775.9	
688.6	4057	
688.79	5542.5	
688.97	5466	
689.16	4431.1	
689.34	3457	
689.52	6115.9	
689.71	6249.7	
689.89	4604.5	
690.08	4100.7	
690.26	5614.8	
690.45	5481	
690.63	4740.4	
690.81	4278.9	
691	5436.7	
691.18	5411.4	
691.37	4319.2	
691.55	6189	
691.74	5360.2	
691.92	6997.9	
692.1	4308.9	
692.29	3923.9	
692.47	5532.9	
692.66	4966.3	
692.84	4076.8	
693.02	4464.6	
693.21	5067.4	
693.39	5498.1	
693.58	4549.2	
693.76	4034.5	
693.94	6391.7	
694.13	6285.9	
694.31	4030.4	
694.5	4889.2	
694.68	5233.2	
694.86	5523.4	
695.05	4325.3	
695.23	4380.6	
695.42	5857.2	
695.6	7772	
695.78	4821.6	
695.97	4049.5	
696.15	5912.5	
696.34	5422.3	
696.52	3930.1	
696.7	4602.5	
696.89	5720	
697.07	5225.1	
697.25	4470.7	
697.44	5767.1	
697.62	5735	
697.81	6031.3	
697.99	4280.3	
698.17	4666.6	
698.36	5240.1	
698.54	5743.2	
698.72	4600.4	
698.91	3751.2	
699.09	5439.4	
699.28	5305.6	
699.46	4342.4	
699.64	4130.1	
699.83	5236.7	
700.01	6252.4	
700.19	4857.1	
700.38	3530	
700.56	6210.8	
700.74	5304.9	
700.93	3801	
701.11	4549.9	
701.29	5741.8	
701.48	6608.1	
701.66	4029.7	
701.84	4091.2	
702.03	5389.6	
702.21	5982.1	
702.39	3707.5	
702.58	4184	
702.76	5739.1	
702.94	5829.9	
703.13	3745.7	
703.31	5706.3	
703.49	5187.5	
703.68	6436.8	
703.86	3900.7	
704.04	4695.3	
704.23	5584.1	
704.41	5945.3	
704.59	4012.7	
704.78	5036	
704.96	6586.3	
705.14	5963	
705.33	3865.2	
705.51	4551.3	
705.69	5451.7	
705.87	6173.3	
706.06	4704.9	
706.24	3805.1	
706.42	5771.2	
706.61	5912.5	
706.79	4851.6	
706.97	3749.8	
707.16	5291.3	
707.34	5737	
707.52	4751.3	
707.7	3969.6	
707.89	5336.3	
708.07	5097.4	
708.25	4726	
708.44	4839.4	
708.62	5344.5	
708.8	6277.7	
708.98	4952.7	
709.17	4113.7	
709.35	5717.2	
709.53	5717.2	
709.72	3845.4	
709.9	4250.9	
710.08	5927.5	
710.26	5923.4	
710.45	5221	
710.63	4160.1	
710.81	5640.1	
710.99	5697.4	
711.18	4678.2	
711.36	4307.6	
711.54	5513.1	
711.72	6165.1	
711.91	4382	
712.09	3891.8	
712.27	5720	
712.45	6240.8	
712.64	4576.5	
712.82	3771	
713	5308.3	
713.18	5456.5	
713.37	3900	
713.55	4989.5	
713.73	6275	
713.91	5085.8	
714.1	4332.1	
714.28	3938.2	
714.46	6001.2	
714.64	5434.6	
714.83	3530	
715.01	4165.6	
715.19	5479.7	
715.37	4926	
715.55	3920.5	
715.74	4190.8	
715.92	6276.3	
716.1	4521.9	
716.28	5162.9	
716.47	4358.1	
716.65	5177.9	
716.83	5307	
717.01	4192.9	
717.19	4255.7	
717.38	6926.9	
717.56	4967.7	
717.74	4356	
717.92	3659.7	
718.1	6000.5	
718.29	5247.6	
718.47	3322.5	
718.65	3803.1	
718.83	5829.9	
719.01	5696.8	
719.2	3173	
719.38	4115.1	
719.56	5428.5	
719.74	6746	
719.92	3794.9	
720.11	4663.2	
720.29	5641.5	
720.47	4911.7	
720.65	3451.5	
720.83	4198.3	
721.02	5237.3	
721.2	4984.8	
721.38	4301.4	
721.56	3579.8	
721.74	4592.2	
721.92	4777.2	
722.11	4693.3	
722.29	4444.1	
722.47	5808	
722.65	5095.3	
722.83	3639.2	
723.01	4448.2	
723.2	5164.3	
723.38	5397.8	
723.56	3163.4	
723.74	4158.1	
723.92	4770.4	
724.1	5737	
724.29	3568.2	
724.47	4609.3	
724.65	4891.2	
724.83	4674.8	
725.01	3521.1	
725.19	4233.8	
725.37	4822.3	
725.56	4819.6	
725.74	3425.6	
725.92	3578.5	
726.1	4741	
726.28	5029.8	
726.46	3986.7	
726.64	3801.7	
726.83	5076.9	
727.01	5241.4	
727.19	3411.9	
727.37	4061.8	
727.55	5185.5	
727.73	5618.3	
727.91	3373	
728.09	3255.6	
728.28	5560.9	
728.46	5882.4	
728.64	4071.4	
728.82	4123.2	
729	6440.2	
729.18	5741.1	
729.36	3404.4	
729.54	5327.4	
729.72	6621.8	
729.91	5156.1	
730.09	4965.6	
730.27	3977.2	
730.45	5099.4	
730.63	5547.9	
730.81	4505.5	
730.99	3639.9	
731.17	6072.2	
731.35	4886.5	
731.53	4091.8	
731.71	3781.2	
731.9	5843.5	
732.08	5905	
732.26	3923.2	
732.44	3690.4	
732.62	5985.5	
732.8	5500.2	
732.98	4342.4	
733.16	3515.7	
733.34	5557.5	
733.52	4521.2	
733.7	3955.3	
733.88	4105.5	
734.07	5439.4	
734.25	5233.9	
734.43	3491.8	
734.61	4801.1	
734.79	6463.4	
734.97	5152.7	
735.15	3671.3	
735.33	3908.9	
735.51	5454.4	
735.69	5171.1	
735.87	4850.3	
736.05	4116.4	
736.23	5285.1	
736.41	5068.7	
736.59	3964.2	
736.77	3996.3	
736.95	5610.8	
737.13	5185.5	
737.32	3683.6	
737.5	3821.5	
737.68	6135	
737.86	5082.4	
738.04	3486.3	
738.22	5126.7	
738.4	4941.1	
738.58	5208.7	
738.76	4013.3	
738.94	3193.5	
739.12	5061.2	
739.3	4904.9	
739.48	4505.5	
739.66	4313	
739.84	5210	
740.02	5154.1	
740.2	3165.5	
740.38	3521.1	
740.56	5531.6	
740.74	4532.8	
740.92	4130.8	
741.1	3960.8	
741.28	5091.9	
741.46	4842.8	
741.64	3715	
741.82	4155.3	
742	5107.6	
742.18	5039.4	
742.36	3882.9	
742.54	3550.5	
742.72	5655.8	
742.9	4527.4	
743.08	4217.5	
743.26	3228.3	
743.44	5734.3	
743.62	5624.4	
743.8	4402.5	
743.98	3509.5	
744.16	5404.6	
744.34	5154.7	
744.52	4341.7	
744.7	4195.6	
744.88	5528.2	
745.06	5117.2	
745.24	4284.4	
745.42	4363.5	
745.6	5637.4	
745.78	5414.1	
745.96	3334.8	
746.14	3594.9	
746.32	6268.1	
746.5	5577.3	
746.68	4109.6	
746.86	3597.6	
747.03	5945.9	
747.21	4604.5	
747.39	4028.4	
747.57	3617.4	
747.75	5290.6	
747.93	5609.4	
748.11	3605.8	
748.29	3534.8	
748.47	6663.4	
748.65	5025	
748.83	4238.6	
749.01	3997.6	
749.19	5441.5	
749.37	4756.1	
749.55	3945.8	
749.73	3969.6	
749.91	5205.9	
750.09	5012.7	
750.26	4070.7	
750.44	3507.5	
750.62	5204.6	
750.8	5161.6	
750.98	3366.2	
751.16	3679.5	
751.34	5292.6	
751.52	4678.2	
751.7	4352.6	
751.88	3336.1	
752.06	5698.1	
752.24	5471.5	
752.42	3338.2	
752.59	3633.8	
752.77	5120.6	
752.95	6238.8	
753.13	4293.9	
753.31	3766.9	
753.49	4869.4	
753.67	5254.4	
753.85	3990.1	
754.03	3574.4	
754.21	5515.9	
754.38	5862	
754.56	3844.7	
754.74	3045.3	
754.92	4928.1	
755.1	5580.7	
755.28	3126.6	
755.46	3174.4	
755.64	6345.3	
755.82	6494.1	
755.99	3562.1	
756.17	3637.9	
756.35	4461.2	
756.53	5763	
756.71	2803	
756.89	3559.4	
757.07	5431.2	
757.25	4666	
757.42	4003.1	
757.6	4732.9	
757.78	5400.5	
757.96	4491.9	
758.14	3639.2	
758.32	3220.1	
758.5	4207.2	
758.67	4941.1	
758.85	3523.9	
759.03	3656.3	
759.21	5043.5	
759.39	4560.1	
759.57	3171.6	
759.75	4129.4	
759.92	5671.5	
760.1	4973.2	
760.28	4459.1	
760.46	4639.3	
760.64	4717.2	
760.82	4534.2	
760.99	4026.3	
761.17	3508.9	
761.35	5416.9	
761.53	4547.2	
761.71	3631.7	
761.89	4212.7	
762.06	5301.5	
762.24	4891.9	
762.42	3708.9	
762.6	3572.3	
762.78	4853	
762.96	5403.9	
763.13	3971	
763.31	3730	
763.49	5530.2	
763.67	4760.2	
763.85	4379.2	
764.02	4846.2	
764.2	5700.9	
764.38	4953.4	
764.56	3596.2	
764.74	4384.7	
764.91	5842.2	
765.09	4816.8	
765.27	3375.7	
765.45	3194.8	
765.63	5831.9	
765.8	5684.5	
765.98	2951.1	
766.16	3194.8	
766.34	4531.5	
766.52	4367.6	
766.69	4094.6	
766.87	3090.4	
767.05	4924.7	
767.23	5560.9	
767.41	3410.6	
767.58	3654.3	
767.76	5368.4	
767.94	5421	
768.12	3472.7	
768.29	4077.5	
768.47	4982	
768.65	5563	
768.83	3178.4	
769	4109.6	
769.18	4635.9	
769.36	5159.5	
769.54	4155.3	
769.72	3253.5	
769.89	5512.4	
770.07	5591.6	
770.25	3543	
770.43	4610.7	
770.6	6154.8	
770.78	6428.6	
770.96	3729.4	
771.14	4235.9	
771.31	5408	
771.49	4845.5	
771.67	2989.4	
771.85	3188.7	
772.02	4244.1	
772.2	4851.6	
772.38	3794.9	
772.55	3420.1	
772.73	5152	
772.91	4880.3	
773.09	3796.9	
773.26	3802.4	
773.44	5139.7	
773.62	4851	
773.8	3371.6	
773.97	3157.3	
774.15	5216.9	
774.33	4844.1	
774.5	3289.7	
774.68	3581.2	
774.86	5329.5	
775.04	4913.1	
775.21	3348.4	
775.39	3363.4	
775.57	5160.9	
775.74	5420.3	
775.92	3191.4	
776.1	3115.6	
776.27	5102.9	
776.45	6109.8	
776.63	3356.6	
776.81	2964.8	
776.98	4832.5	
777.16	5770.5	
777.34	3500.7	
777.51	3807.9	
777.69	4846.9	
777.87	4635.2	
778.04	3542.3	
778.22	4073.4	
778.4	4730.1	
778.57	5257.8	
778.75	2927.9	
778.93	3219.4	
779.1	4485.1	
779.28	4394.9	
779.46	2917.7	
779.64	3349.1	
779.81	5479.7	
779.99	6072.9	
780.17	4008.6	
780.34	4218.8	
780.52	5003.2	
780.69	5113.1	
780.87	3710.2	
781.05	3266.5	
781.22	4967.7	
781.4	5068.7	
781.58	3488.4	
781.75	2679.4	
781.93	5106.3	
782.11	4453	
782.28	4158.1	
782.46	3410.6	
782.64	4382	
782.81	5203.2	
782.99	3508.9	
783.17	3476.1	
783.34	5085.8	
783.52	4447.5	
783.69	3667.9	
783.87	4382	
784.05	4571.7	
784.22	4513	
784.4	4328	
784.58	3809.2	
784.75	5357.5	
784.93	4621.6	
785.1	3530	
785.28	4026.3	
785.46	5158.2	
785.63	4496.7	
785.81	3429.7	
785.99	3349.8	
786.16	4719.9	
786.34	4947.9	
786.51	3373.7	
786.69	3666.5	
786.87	4382	
787.04	4801.1	
787.22	3274	
787.39	4033.8	
787.57	4581.3	
787.75	5466	
787.92	4228.4	
788.1	4194.9	
788.27	4589.5	
788.45	4376.5	
788.63	3929.4	
788.8	2875.3	
788.98	4914.4	
789.15	4328	
789.33	2979.8	
789.5	3500.7	
789.68	5419.6	
789.86	5471.5	
790.03	3917.1	
790.21	3399.6	
790.38	5397.8	
790.56	4689.8	
790.73	3308.8	
790.91	3297.2	
791.09	4576.5	
791.26	5265.3	
791.44	3537.5	
791.61	3005.7	
791.79	4559.5	
791.96	4643.4	
792.14	3132	
792.32	2823.5	
792.49	4598.4	
792.67	4720.6	
792.84	3213.9	
793.02	3035.8	
793.19	4997.7	
793.37	5559.6	
793.54	2765.4	
793.72	3105.4	
793.89	5647.6	
794.07	4582.7	
794.25	3501.3	
794.42	2840.5	
794.6	5489.2	
794.77	5126.1	
794.95	3839.9	
795.12	3347.1	
795.3	4636.6	
795.47	5126.1	
795.65	3663.1	
795.82	3594.9	
796	4463.2	
796.17	6098.2	
796.35	3480.9	
796.52	4099.4	
796.7	5059.2	
796.87	5141.8	
797.05	3435.8	
797.22	4163.5	
797.4	5144.5	
797.57	5975.3	
797.75	3549.8	
797.92	3391.4	
798.1	5402.5	
798.27	4509.6	
798.45	2927.2	
798.62	3102	
798.8	4869.4	
798.97	5261.2	
799.15	3784	
799.32	3616.7	
799.5	4264.6	
799.67	4911	
799.85	3874.1	
800.02	2883.5	
800.2	4559.5	
800.37	4802.5	
800.55	4020.2	
800.72	3377.1	
800.9	5276.3	
801.07	5608	
801.25	4511	
801.42	3665.2	
801.6	5322	
801.77	4989.5	
801.95	3435.1	
802.12	3295.2	
802.29	5026.4	
802.47	4984.8	
802.64	3664.5	
802.82	2783.9	
802.99	4584	
803.17	5394.3	
803.34	3566.2	
803.52	3209.2	
803.69	5951.4	
803.87	4395.6	
804.04	3587.4	
804.21	3615.3	
804.39	5580.7	
804.56	4739	
804.74	3031.7	
804.91	3675.4	
805.09	4602.5	
805.26	4640.7	
805.44	3085.6	
805.61	3435.8	
805.78	5217.5	
805.96	5205.3	
806.13	3695.9	
806.31	3915.7	
806.48	4237.2	
806.66	4701.5	
806.83	3680.2	
807	3610.6	
807.18	4625.7	
807.35	4945.2	
807.53	3580.5	
807.7	2944.3	
807.87	5578.7	
808.05	4667.3	
808.22	3937.6	
808.4	2851.5	
808.57	4638	
808.74	4362.9	
808.92	3289	
809.09	4227	
809.27	4614.8	
809.44	5059.8	
809.61	2957.3	
809.79	3212.6	
809.96	5707.7	
810.14	5287.9	
810.31	2884.2	
810.48	3487.7	
810.66	4681	
810.83	5326.8	
811.01	3330	
811.18	3648.8	
811.35	5284.4	
811.53	4187.4	
811.7	3964.2	
811.87	3742.3	
812.05	4668	
812.22	4582.7	
812.39	3261	
812.57	3069.2	
812.74	4694.6	
812.92	6031.3	
813.09	3532.7	
813.26	3802.4	
813.44	5882.4	
813.61	4539.7	
813.78	2938.8	
813.96	3874.8	
814.13	4711.7	
814.3	4402.5	
814.48	4195.6	
814.65	3452.9	
814.82	5864.7	
815	4457.1	
815.17	3605.8	
815.34	4382.7	
815.52	4560.8	
815.69	4611.3	
815.87	3534.8	
816.04	3491.1	
816.21	4712.4	
816.38	4175.1	
816.56	3409.9	
816.73	3234.4	
816.9	5827.8	
817.08	5326.1	
817.25	3282.2	
817.42	4057	
817.6	4209.9	
817.77	4642.7	
817.94	3631.7	
818.12	3170.9	
818.29	4416.1	
818.46	6761	
818.64	3328.6	
818.81	3137.5	
818.98	4440	
819.16	6244.9	
819.33	3863.2	
819.5	3579.8	
819.67	4936.3	
819.85	5580	
820.02	3547.8	
820.19	3731.4	
820.37	4863.9	
820.54	4575.2	
820.71	3653.6	
820.88	4435.9	
821.06	4857.8	
821.23	4543.8	
821.4	3689.8	
821.58	3592.1	
821.75	5244.8	
821.92	4826.4	
822.09	2942.2	
822.27	3160	
822.44	4692.6	
822.61	4586.8	
822.79	2980.5	
822.96	5554.1	
823.13	4979.3	
823.3	4367	
823.48	3371	
823.65	3061.7	
823.82	5281	
823.99	4303.5	
824.17	4351.9	
824.34	3090.4	
824.51	5978	
824.68	4687.8	
824.86	3242.6	
825.03	3585.3	
825.2	4664.6	
825.37	5563.6	
825.55	3216	
825.72	3562.1	
825.89	6019	
826.06	5623	
826.24	3492.5	
826.41	3572.3	
826.58	5648.3	
826.75	4871.4	
826.92	2794.8	
827.1	3074.7	
827.27	7502.4	
827.44	5945.3	
827.61	3297.9	
827.79	3985.3	
827.96	4467.3	
828.13	4759.5	
828.3	3485	
828.47	2934.7	
828.65	4906.9	
828.82	4843.4	
828.99	4403.8	
829.16	3901.4	
829.34	5287.2	
829.51	5008	
829.68	3558	
829.85	3647.4	
830.02	5549.3	
830.2	5251	
830.37	2808.4	
830.54	4231.8	
830.71	5911.1	
830.88	4640	
831.05	2764.1	
831.23	3279.5	
831.4	5703.6	
831.57	6242.9	
831.74	3291.8	
831.91	2949.1	
832.09	4939	
832.26	5217.5	
832.43	3401.7	
832.6	3834.5	
832.77	4942.4	
832.94	5530.2	
833.12	2766.1	
833.29	3391.4	
833.46	5014.8	
833.63	6425.2	
833.8	3735.5	
833.97	3444	
834.15	5251	
834.32	5036.6	
834.49	3599.6	
834.66	3696.6	
834.83	5349.3	
835	4470.7	
835.17	3285.6	
835.35	3338.9	
835.52	5210.7	
835.69	5018.2	
835.86	3442.6	
836.03	2925.9	
836.2	5223	
836.37	4810.7	
836.55	3466.5	
836.72	3220.8	
836.89	4846.9	
837.06	5270.1	
837.23	3440.6	
837.4	3788.1	
837.57	5887.2	
837.75	6412.2	
837.92	3180.5	
838.09	3362.8	
838.26	4811.4	
838.43	5388.2	
838.6	3592.1	
838.77	3211.9	
838.94	6102.3	
839.11	5949.3	
839.29	3405.1	
839.46	2747.7	
839.63	5222.3	
839.8	4943.1	
839.97	3315	
840.14	3338.2	
840.31	5049.6	
840.48	5255.1	
840.65	2788.7	
840.82	3312.9	
841	5199.1	
841.17	5130.8	
841.34	3031	
841.51	3120.4	
841.68	5175.9	
841.85	4834.6	
842.02	3181.9	
842.19	2692.4	
842.36	4983.4	
842.53	5021.6	
842.7	3123.2	
842.87	3710.2	
843.05	6390.3	
843.22	4986.8	
843.39	2948.4	
843.56	3137.5	
843.73	4789.5	
843.9	5272.2	
844.07	4958.1	
844.24	4084.3	
844.41	7301	
844.58	4569	
844.75	3003	
844.92	3192.1	
845.09	5203.2	
845.26	5157.5	
845.43	3059	
845.6	3209.8	
845.77	5212.1	
845.94	5011.4	
846.12	3396.2	
846.29	3585.3	
846.46	5398.4	
846.63	5144.5	
846.8	3097.9	
846.97	3616	
847.14	5604.6	
847.31	5197.1	
847.48	3449.5	
847.65	3697.9	
847.82	5432.6	
847.99	5421.7	
848.16	4020.2	
848.33	3783.3	
848.5	4825.7	
848.67	5630.5	
848.84	3025.5	
849.01	3179.8	
849.18	4734.2	
849.35	4437.3	
849.52	3793.5	
849.69	2996.2	
849.86	5380	
850.03	5601.2	
850.2	3107.5	
850.37	3644.7	
850.54	5498.1	
850.71	4872.8	
850.88	3660.4	
851.05	2996.2	
851.22	5147.2	
851.39	5575.9	
851.56	2922.5	
851.73	3488.4	
851.9	4640.7	
852.07	5389.6	
852.24	3364.8	
852.41	3039.9	
852.58	5082.4	
852.75	4665.3	
852.92	3456.3	
853.09	3067.9	
853.26	4866	
853.43	5552.7	
853.6	3067.2	
853.77	2652.1	
853.94	5618.3	
854.11	5132.2	
854.28	4467.3	
854.44	3304.1	
854.61	6006	
854.78	5489.2	
854.95	3023.5	
855.12	3773.7	
855.29	4184	
855.46	5768.4	
855.63	3054.9	
855.8	4164.2	
855.97	4859.8	
856.14	5451.7	
856.31	4277.5	
856.48	3324.5	
856.65	4835.9	
856.82	4548.5	
856.99	2947.7	
857.16	3259	
857.33	6161.7	
857.49	4888.5	
857.66	3297.2	
857.83	3478.1	
858	4915.1	
858.17	5100.1	
858.34	2880.8	
858.51	3093.8	
858.68	5780.1	
858.85	5793	
859.02	3517.7	
859.19	3789.4	
859.36	4607.9	
859.52	4601.1	
859.69	3066.5	
859.86	3611.3	
860.03	4670.1	
860.2	5678.3	
860.37	2770.9	
860.54	3123.8	
860.71	5376.6	
860.88	5721.3	
861.05	3361.4	
861.21	3872	
861.38	5753.4	
861.55	4509.6	
861.72	2846	
861.89	3445.4	
862.06	5366.4	
862.23	5840.1	
862.4	2966.1	
862.56	3209.8	
862.73	5228.5	
862.9	5039.4	
863.07	3529.3	
863.24	2764.1	
863.41	4538.3	
863.58	4613.4	
863.75	3123.2	
863.91	3504.1	
864.08	5702.9	
864.25	5299.5	
864.42	3808.5	
864.59	4213.4	
864.76	5933	
864.93	4624.3	
865.09	3024.2	
865.26	3279.5	
865.43	5619.6	
865.6	5908.4	
865.77	2717.7	
865.94	3048.1	
866.1	5586.2	
866.27	5363.6	
866.44	4543.1	
866.61	2878.8	
866.78	4930.1	
866.95	5287.2	
867.11	2995.5	
867.28	2699.2	
867.45	5535.7	
867.62	4646.2	
867.79	3515.7	
867.96	3077.4	
868.12	4566.3	
868.29	5354.1	
868.46	2706.7	
868.63	4100.7	
868.8	5513.1	
868.97	5256.5	
869.13	3196.9	
869.3	3201	
869.47	5252.4	
869.64	5426.4	
869.81	3129.3	
869.97	3064.4	
870.14	5190.9	
870.31	5739.8	
870.48	2971.6	
870.65	3820.1	
870.81	4927.4	
870.98	4968.4	
871.15	3479.5	
871.32	3115.6	
871.48	5278.3	
871.65	5779.4	
871.82	3022.1	
871.99	3373.7	
872.16	6141.9	
872.32	5614.2	
872.49	3122.5	
872.66	3070.6	
872.83	5369.1	
872.99	4763.6	
873.16	3478.1	
873.33	3032.4	
873.5	5076.9	
873.67	5110.4	
873.83	3218.7	
874	4073.4	
874.17	5214.8	
874.34	6050.4	
874.5	3980.6	
874.67	3792.8	
874.84	5683.8	
875.01	4570.4	
875.17	4176.5	
875.34	3021.4	
875.51	5063.9	
875.68	6180.8	
875.84	3690.4	
876.01	4385.4	
876.18	5383.4	
876.34	5276.9	
876.51	3089.7	
876.68	3010.5	
876.85	4892.6	
877.01	5600.5	
877.18	4358.1	
877.35	3018.7	
877.52	5117.9	
877.68	4563.6	
877.85	3047.4	
878.02	3030.3	
878.18	4932.9	
878.35	4769.7	
878.52	2465.8	
878.69	3433.8	
878.85	5444.9	
879.02	5312.4	
879.19	4304.1	
879.35	3277.4	
879.52	5330.2	
879.69	5501.5	
879.86	2669.2	
880.02	3386.7	
880.19	4940.4	
880.36	6010.8	
880.52	3498.6	
880.69	3561.4	
880.86	5405.3	
881.02	5448.3	
881.19	3375.7	
881.36	3312.9	
881.52	5352.7	
881.69	4764.3	
881.86	3222.8	
882.02	3204.4	
882.19	5568.4	
882.36	6446.3	
882.52	3099.3	
882.69	4332.1	
882.86	5115.1	
883.02	5067.4	
883.19	3695.9	
883.36	3467.2	
883.52	5430.5	
883.69	6164.4	
883.86	3073.3	
884.02	2798.2	
884.19	5358.2	
884.36	5038	
884.52	3458.3	
884.69	3234.4	
884.86	4767	
885.02	5878.4	
885.19	3460.4	
885.36	3493.2	
885.52	5005.9	
885.69	5160.2	
885.86	4319.8	
886.02	3881.6	
886.19	5387.5	
886.35	4807.3	
886.52	3363.4	
886.69	4218.8	
886.85	4600.4	
887.02	5681.7	
887.19	5681.7	
887.35	5681.7	
887.52	5681.7	
887.68	5681.7	
887.85	5681.7	
888.02	5681.7	
888.18	5681.7	
888.35	5681.7	
888.51	5681.7	
888.68	5681.7	
888.85	5681.7	
889.01	5681.7	
889.18	5681.7	
889.35	5681.7	
889.51	5681.7	
889.68	5681.7	
889.84	5681.7	
890.01	5681.7	
890.17	5681.7	
890.34	5681.7	
890.51	5681.7	
890.67	5681.7	
890.84	5681.7	
891	5681.7	
891.17	5681.7	
891.34	5681.7	
891.5	5681.7	
891.67	5681.7	
891.83	5681.7	
892	5681.7	
892.16	5681.7	
892.33	5681.7	
892.5	5681.7	
892.66	5681.7	
892.83	5681.7	
892.99	5681.7	
893.16	5681.7	
893.32	5681.7	
893.49	5681.7	
893.65	5681.7	
893.82	5681.7	
893.99	5681.7	
894.15	5681.7	
894.32	5681.7	
894.48	5681.7	
894.65	5681.7	
894.81	5681.7	
894.98	5681.7	
895.14	5681.7	
895.31	5681.7	
895.47	5681.7	
895.64	5681.7	
895.81	5681.7	
895.97	5681.7	
896.14	5681.7	
896.3	5681.7	
896.47	5681.7	
896.63	5681.7	
896.8	5681.7	
896.96	5681.7	
897.13	5681.7	
897.29	5681.7	
897.46	5681.7	
897.62	5681.7	
897.79	5681.7	
897.95	5681.7	
898.12	5681.7	
898.28	5681.7	
898.45	5681.7	
898.61	5681.7	
898.78	5681.7	
898.94	5681.7	
899.11	5681.7	
899.27	5681.7	
899.44	5681.7	
899.6	5681.7	
899.77	5681.7	
899.93	5681.7	
900.1	5681.7	
900.26	5681.7	
900.43	5681.7	
900.59	5681.7	
900.76	5681.7	
900.92	5681.7	
901.09	5681.7	
901.25	5681.7	
901.42	5681.7	
901.58	5681.7	
901.75	5681.7	
901.91	5681.7	
902.07	5681.7	
902.24	5681.7	
902.4	5681.7	
902.57	5681.7	
902.73	5681.7	
902.9	5681.7	
903.06	5681.7	
903.23	5681.7	
903.39	5681.7	
903.56	5681.7	
903.72	5681.7	
903.88	5681.7	
904.05	5681.7	
904.21	5681.7	
904.38	5681.7	
904.54	5681.7	
904.71	5681.7	
904.87	5681.7	
905.03	5681.7	
905.2	5681.7	
905.36	5681.7	
905.53	5681.7	
905.69	5681.7	
905.86	5681.7	
906.02	5681.7	
906.18	5681.7	
906.35	5681.7	
906.51	5681.7	
906.68	5681.7	
906.84	5681.7	
907.01	5681.7	
907.17	5681.7	
907.33	5681.7	
907.5	5681.7	
907.66	5681.7	
907.83	5681.7	
907.99	5681.7	
908.15	5681.7	
908.32	5681.7	
908.48	5681.7	
908.65	5681.7	
908.81	5681.7	
908.97	5681.7	
909.14	5681.7	
909.3	5681.7	
909.47	5681.7	
909.63	5681.7	
909.79	5681.7	
909.96	5681.7	
910.12	5681.7	
910.28	5681.7	
910.45	5681.7	
910.61	5681.7	
910.78	5681.7	
910.94	5681.7	
911.1	5681.7	
911.27	5681.7	
911.43	5681.7	
911.59	5681.7	
911.76	5681.7	
911.92	5681.7	
912.08	5681.7	
912.25	5681.7	
912.41	5681.7	
912.57	5681.7	
912.74	5681.7	
912.9	5681.7	
913.07	5681.7	
913.23	5681.7	
913.39	5681.7	
913.56	5681.7	
913.72	5681.7	
913.88	5681.7	
914.05	5681.7	
914.21	5681.7	
914.37	5681.7	
914.54	5681.7	
914.7	5681.7	
914.86	5681.7	
915.03	5681.7	
915.19	5681.7	
