Wavelength	Intensities	
nm	a.u.	
179.22	1677.1	
179.44	1666	
179.65	1688.2	
179.86	1643.8	
180.08	1667.7	
180.29	3821.5	
180.51	3013.2	
180.72	4950.6	
180.94	5455.1	
181.15	2648	
181.37	2620.7	
181.58	4702.8	
181.79	4937	
182.01	2764.8	
182.22	2916.3	
182.44	4951.3	
182.65	4274.1	
182.87	3584.6	
183.08	3162.7	
183.29	5130.2	
183.51	4335.5	
183.72	2902.7	
183.94	4075.5	
184.15	4661.2	
184.37	4612	
184.58	2664.4	
184.79	3383.2	
185.01	4411.3	
185.22	4915.1	
185.44	3579.2	
185.65	3145.7	
185.86	4647.5	
186.08	4302.8	
186.29	2540.2	
186.51	2730.6	
186.72	4403.8	
186.94	5018.2	
187.15	3113.6	
187.36	3178.4	
187.58	6239.5	
187.79	4755.4	
188.01	3257	
188.22	4853.7	
188.43	5499.5	
188.65	4910.3	
188.86	2749.1	
189.08	3186.6	
189.29	4532.8	
189.5	4515.8	
189.72	2954.5	
189.93	3034.4	
190.15	5070.1	
190.36	5790.3	
190.57	3192.8	
190.79	3048.7	
191	5053.7	
191.22	5065.3	
191.43	3263.8	
191.64	2785.9	
191.86	5205.9	
192.07	5041.4	
192.29	2828.2	
192.5	2951.8	
192.71	5068	
192.93	4472.8	
193.14	2942.2	
193.35	3005.7	
193.57	4479.6	
193.78	5066	
194	2456.2	
194.21	2930.6	
194.42	4326.7	
194.64	4646.2	
194.85	3183.9	
195.07	3648.1	
195.28	4631.1	
195.49	4195.6	
195.71	3829	
195.92	2798.2	
196.13	4838	
196.35	4841.4	
196.56	3969	
196.78	3172.3	
196.99	5797.8	
197.2	5443.5	
197.42	3556.6	
197.63	3196.9	
197.84	4272.7	
198.06	4797	
198.27	2960	
198.48	3861.1	
198.7	4467.3	
198.91	4670.7	
199.13	3187.3	
199.34	3177.8	
199.55	5055.1	
199.77	4074.8	
199.98	2864.4	
200.19	3220.1	
200.41	4539	
200.62	4367.6	
200.83	3297.9	
201.05	3545.7	
201.26	4640.7	
201.47	4446.1	
201.69	2846.7	
201.9	2816	
202.11	4682.3	
202.33	5328.8	
202.54	3075.4	
202.76	3399.6	
202.97	4702.1	
203.18	4791.6	
203.4	3295.2	
203.61	3283.6	
203.82	4743.1	
204.04	4453	
204.25	3206.4	
204.46	3136.8	
204.68	4676.2	
204.89	4807.9	
205.1	3136.1	
205.32	2726.5	
205.53	4928.8	
205.74	5035.3	
205.96	2450.7	
206.17	3216.7	
206.38	4916.5	
206.6	4976.6	
206.81	3614.7	
207.02	3014.6	
207.24	4795	
207.45	5107.6	
207.66	3130	
207.88	2727.9	
208.09	4747.9	
208.3	4648.9	
208.52	2846.7	
208.73	3114.3	
208.94	4667.3	
209.15	5194.3	
209.37	3076	
209.58	3163.4	
209.79	5042.1	
210.01	4531.5	
210.22	2537.4	
210.43	2597.5	
210.65	4600.4	
210.86	4910.3	
211.07	3076.7	
211.29	2859	
211.5	4872.1	
211.71	4590.2	
211.93	2867.2	
212.14	2812.5	
212.35	4596.3	
212.56	4657.8	
212.78	3240.6	
212.99	2664.4	
213.2	5331.5	
213.42	4533.5	
213.63	2965.5	
213.84	3030.3	
214.06	4228.4	
214.27	4274.1	
214.48	3048.7	
214.69	3267.2	
214.91	5143.1	
215.12	5186.8	
215.33	3294.5	
215.55	3471.3	
215.76	5527.5	
215.97	4885.8	
216.18	3147.7	
216.4	3139.5	
216.61	4394.9	
216.82	4965	
217.04	2896.5	
217.25	2909.5	
217.46	5113.1	
217.67	4892.6	
217.89	2639.1	
218.1	2690.3	
218.31	4683.7	
218.53	4809.3	
218.74	3003.7	
218.95	2878.1	
219.16	4611.3	
219.38	5327.4	
219.59	2893.8	
219.8	3339.6	
220.01	5720.7	
220.23	4726	
220.44	3605.8	
220.65	2831.7	
220.87	4739	
221.08	5085.1	
221.29	2704	
221.5	3394.2	
221.72	6020.3	
221.93	4450.9	
222.14	3215.3	
222.35	3683.6	
222.57	4588.8	
222.78	5020.3	
222.99	3093.1	
223.2	3310.2	
223.42	4863.9	
223.63	4914.4	
223.84	2421.4	
224.05	2450.1	
224.27	5656.5	
224.48	5315.8	
224.69	3808.5	
224.9	3216	
225.12	4807.9	
225.33	4562.2	
225.54	2642.6	
225.75	2880.8	
225.97	4358.8	
226.18	4626.4	
226.39	3054.2	
226.6	2887	
226.82	4536.9	
227.03	4323.9	
227.24	3213.3	
227.45	2754.5	
227.67	4965.6	
227.88	5272.2	
228.09	3577.8	
228.3	3479.5	
228.52	4951.3	
228.73	4615.4	
228.94	3054.9	
229.15	2706	
229.36	4598.4	
229.58	4629.8	
229.79	3095.2	
230	3393.5	
230.21	5446.9	
230.43	4652.3	
230.64	3169.6	
230.85	3250.1	
231.06	5012.7	
231.28	5001.8	
231.49	2719.7	
231.7	3131.3	
231.91	4928.8	
232.12	4662.5	
232.34	2811.9	
232.55	3123.8	
232.76	5094.7	
232.97	4769	
233.18	2808.4	
233.4	3181.2	
233.61	4799.1	
233.82	4448.2	
234.03	3004.4	
234.25	2953.2	
234.46	6145.3	
234.67	4660.5	
234.88	3222.1	
235.09	2960	
235.31	4780.6	
235.52	4504.8	
235.73	3183.9	
235.94	2747	
236.15	4513.7	
236.37	5422.3	
236.58	2857.6	
236.79	3054.2	
237	4864.6	
237.21	4265.9	
237.43	3330	
237.64	2682.8	
237.85	7518.8	
238.06	4375.8	
238.27	3247.4	
238.48	2760	
238.7	4941.7	
238.91	4541.7	
239.12	3039.9	
239.33	3138.9	
239.54	4414.7	
239.76	4567.7	
239.97	3106.8	
240.18	3077.4	
240.39	5537.7	
240.6	4814.8	
240.82	3257	
241.03	2710.8	
241.24	4603.2	
241.45	5180.7	
241.66	2833.7	
241.87	3306.8	
242.09	5173.2	
242.3	5403.2	
242.51	3362.1	
242.72	3037.8	
242.93	4938.3	
243.14	4601.8	
243.36	3563.5	
243.57	3758.7	
243.78	5233.2	
243.99	4869.4	
244.2	3121.8	
244.41	2772.9	
244.63	4334.9	
244.84	4866	
245.05	3315.7	
245.26	3082.2	
245.47	4873.5	
245.68	4992.3	
245.9	3939.6	
246.11	3268.6	
246.32	4506.2	
246.53	4840.7	
246.74	4764.9	
246.95	2672.6	
247.16	4399	
247.38	4706.9	
247.59	2687.6	
247.8	3127.2	
248.01	4364.9	
248.22	4648.2	
248.43	2848.7	
248.64	3061.7	
248.86	4298	
249.07	4477.5	
249.28	2865.1	
249.49	3179.8	
249.7	5040.7	
249.91	5059.2	
250.12	2702.6	
250.34	2717.7	
250.55	4765.6	
250.76	4676.2	
250.97	3188.7	
251.18	3225.6	
251.39	5088.5	
251.6	4779.3	
251.81	3207.1	
252.03	3206.4	
252.24	4456.4	
252.45	4944.5	
252.66	2690.3	
252.87	3280.8	
253.08	4673.5	
253.29	5790.3	
253.5	2774.3	
253.72	3710.2	
253.93	4620.9	
254.14	5369.8	
254.35	2985.3	
254.56	3028.3	
254.77	4816.1	
254.98	4388.8	
255.19	2974.3	
255.41	3654.9	
255.62	4784.1	
255.83	5081.7	
256.04	3376.4	
256.25	3153.2	
256.46	5522	
256.67	4440	
256.88	3220.1	
257.09	3485.6	
257.31	4339.6	
257.52	4423.6	
257.73	3908.2	
257.94	2997.5	
258.15	4592.9	
258.36	4592.2	
258.57	3643.3	
258.78	2430.9	
258.99	5023.7	
259.2	4584.7	
259.41	2951.1	
259.63	3049.4	
259.84	5267.4	
260.05	5526.8	
260.26	3715.7	
260.47	2885.6	
260.68	5017.5	
260.89	4567	
261.1	3465.2	
261.31	2804.4	
261.52	5127.4	
261.73	5349.3	
261.95	3730	
262.16	3270.6	
262.37	5138.4	
262.58	5193.6	
262.79	3696.6	
263	2982.5	
263.21	4658.4	
263.42	4227.7	
263.63	3198.9	
263.84	2985.3	
264.05	5045.5	
264.26	5259.9	
264.47	3596.9	
264.69	3215.3	
264.9	5176.6	
265.11	4752.7	
265.32	2881.5	
265.53	2896.5	
265.74	4754	
265.95	4188.8	
266.16	3117	
266.37	3399.6	
266.58	4749.9	
266.79	4511	
267	2905.4	
267.21	2798.9	
267.42	4328	
267.63	4659.1	
267.84	3026.9	
268.06	2725.8	
268.27	4999.1	
268.48	5128.1	
268.69	3059	
268.9	3475.4	
269.11	5160.9	
269.32	4250.2	
269.53	3081.5	
269.74	2902	
269.95	4800.4	
270.16	4148.5	
270.37	3090.4	
270.58	3550.5	
270.79	4580.6	
271	5001.1	
271.21	3274	
271.42	3117.7	
271.63	4820.2	
271.84	4311.7	
272.05	2590	
272.26	2831.7	
272.47	4618.9	
272.68	4790.9	
272.89	3034.4	
273.11	3351.2	
273.32	4486.4	
273.53	5325.4	
273.74	3276.8	
273.95	3212.6	
274.16	4996.4	
274.37	4661.2	
274.58	3390.8	
274.79	2712.2	
275	4784.1	
275.21	5061.2	
275.42	3906.8	
275.63	3328.6	
275.84	4883	
276.05	5830.6	
276.26	3211.2	
276.47	3056.9	
276.68	4535.6	
276.89	5370.5	
277.1	3399.6	
277.31	2759.3	
277.52	4820.2	
277.73	4987.5	
277.94	2662.4	
278.15	2978.4	
278.36	4746.5	
278.57	4395.6	
278.78	2969.6	
278.99	3274.7	
279.2	4493.2	
279.41	4343.7	
279.62	3762.8	
279.83	2796.8	
280.04	5541.8	
280.25	4379.2	
280.46	3755.3	
280.67	3078.1	
280.88	4439.3	
281.09	5087.2	
281.3	3211.2	
281.51	3954.6	
281.72	4457.1	
281.93	5008	
282.14	2938.2	
282.35	3115	
282.56	5050.3	
282.77	5020.3	
282.98	3031.7	
283.19	3564.8	
283.4	5913.9	
283.61	4644.8	
283.82	2800.9	
284.03	3655.6	
284.24	4842.1	
284.45	5070.1	
284.66	3756.7	
284.87	3514.3	
285.08	5109	
285.29	5144.5	
285.5	2733.4	
285.71	3030.3	
285.92	5016.8	
286.12	5537	
286.33	3699.3	
286.54	3054.9	
286.75	4992.9	
286.96	4639.3	
287.17	2852.1	
287.38	3596.9	
287.59	4441.4	
287.8	4444.8	
288.01	3031	
288.22	3444.7	
288.43	4903.5	
288.64	4271.4	
288.85	3566.9	
289.06	3365.5	
289.27	4957.4	
289.48	5290.6	
289.69	3741	
289.9	3466.5	
290.11	5183.4	
290.32	4496	
290.53	3551.2	
290.74	3300.6	
290.94	5024.3	
291.15	5001.1	
291.36	2887.6	
291.57	3376.4	
291.78	4528.7	
291.99	4186.7	
292.2	2839.8	
292.41	3293.8	
292.62	5057.8	
292.83	4878.3	
293.04	3986	
293.25	2899.9	
293.46	4564.9	
293.67	5013.4	
293.88	2847.4	
294.09	2848.7	
294.29	4356.7	
294.5	4734.2	
294.71	3125.2	
294.92	2977.1	
295.13	4539	
295.34	5453.1	
295.55	2686.9	
295.76	2641.9	
295.97	4975.2	
296.18	5399.8	
296.39	2791.4	
296.6	2927.2	
296.81	4697.4	
297.01	4932.2	
297.22	3050.8	
297.43	2972.3	
297.64	4453	
297.85	4351.3	
298.06	2499.2	
298.27	2615.9	
298.48	4616.1	
298.69	4494.6	
298.9	3181.2	
299.11	2882.9	
299.31	4367	
299.52	4317.1	
299.73	3325.2	
299.94	3288.4	
300.15	4645.5	
300.36	4461.8	
300.57	3294.5	
300.78	3217.4	
300.99	4610	
301.2	4728.1	
301.4	2930.6	
301.61	3105.4	
301.82	4874.2	
302.03	4916.5	
302.24	3466.5	
302.45	2781.1	
302.66	4873.5	
302.87	5090.6	
303.08	2943.6	
303.29	3871.3	
303.49	4532.8	
303.7	4648.9	
303.91	2669.2	
304.12	3655.6	
304.33	4351.9	
304.54	4750.6	
304.75	2968.2	
304.96	2820.1	
305.16	4915.8	
305.37	5381.4	
305.58	2607.1	
305.79	2686.3	
306	4934.2	
306.21	4179.2	
306.42	2969.6	
306.63	4242.7	
306.83	4550.6	
307.04	4965	
307.25	3136.8	
307.46	3181.2	
307.67	4130.8	
307.88	4851.6	
308.09	2889	
308.29	2989.4	
308.5	4696	
308.71	5015.5	
308.92	3080.8	
309.13	2837.8	
309.34	4578.6	
309.55	4609.3	
309.75	3613.3	
309.96	3282.2	
310.17	4893.3	
310.38	4464.6	
310.59	3355.9	
310.8	2836.4	
311.01	4563.6	
311.21	4555.4	
311.42	2841.9	
311.63	2853.5	
311.84	4551.3	
312.05	4689.8	
312.26	3223.5	
312.46	3479.5	
312.67	4525.3	
312.88	4316.4	
313.09	2831	
313.3	2781.8	
313.51	5196.4	
313.71	5494.7	
313.92	2826.9	
314.13	2979.8	
314.34	4869.4	
314.55	4634.6	
314.76	3504.8	
314.96	3106.1	
315.17	4788.8	
315.38	4800.4	
315.59	2860.3	
315.8	2727.2	
316.01	5165.7	
316.21	5283.8	
316.42	2766.1	
316.63	3105.4	
316.84	4571.7	
317.05	5123.3	
317.26	3313.6	
317.46	3024.2	
317.67	4657.1	
317.88	4953.4	
318.09	3514.3	
318.3	2682.2	
318.5	4492.6	
318.71	4818.9	
318.92	4388.1	
319.13	3283.6	
319.34	5036	
319.54	5123.3	
319.75	2686.3	
319.96	2554.5	
320.17	4898.7	
320.38	5030.5	
320.58	2656.9	
320.79	3022.1	
321	5046.2	
321.21	5092.6	
321.42	3140.9	
321.62	2647.3	
321.83	4423.6	
322.04	4700.1	
322.25	3040.6	
322.46	2873.3	
322.66	4702.8	
322.87	4831.2	
323.08	3409.2	
323.29	2762	
323.5	5383.4	
323.7	4355.3	
323.91	3711.6	
324.12	3384.6	
324.33	4760.2	
324.53	4894.6	
324.74	3300.6	
324.95	3383.9	
325.16	4310.3	
325.37	4576.5	
325.57	2911.5	
325.78	2899.9	
325.99	4790.2	
326.2	4319.2	
326.4	3882.3	
326.61	2699.2	
326.82	4600.4	
327.03	4763.6	
327.24	3876.8	
327.44	3670.6	
327.65	4872.1	
327.86	4107.5	
328.07	3300	
328.27	2760	
328.48	5193	
328.69	4386.1	
328.9	3898.6	
329.1	2984.6	
329.31	4584	
329.52	5246.2	
329.73	2914.9	
329.93	3132	
330.14	4718.5	
330.35	4789.5	
330.56	4451.6	
330.76	3377.1	
330.97	4494.6	
331.18	4745.1	
331.39	3136.1	
331.59	2594.8	
331.8	5081	
332.01	5195.7	
332.22	2941.6	
332.42	3295.9	
332.63	4766.3	
332.84	4396.3	
333.05	3168.2	
333.25	2914.3	
333.46	4474.1	
333.67	4648.9	
333.88	2964.8	
334.08	3235.8	
334.29	5894.7	
334.5	5062.6	
334.7	2817.3	
334.91	3839.9	
335.12	4286.4	
335.33	4937	
335.53	3138.9	
335.74	4410	
335.95	4573.1	
336.16	4365.6	
336.36	3076.7	
336.57	3545.7	
336.78	4285.7	
336.98	5066.7	
337.19	3742.3	
337.4	3046	
337.61	5535	
337.81	4305.5	
338.02	2911.5	
338.23	3617.4	
338.43	5218.2	
338.64	4425	
338.85	2897.2	
339.05	3696.6	
339.26	5339.7	
339.47	4228.4	
339.68	2860.3	
339.88	4027	
340.09	4915.1	
340.3	5062.6	
340.5	3261.7	
340.71	2596.1	
340.92	4342.4	
341.13	5179.3	
341.33	2755.2	
341.54	3275.4	
341.75	4852.3	
341.95	4560.8	
342.16	3155.2	
342.37	3369.6	
342.57	4376.5	
342.78	4627	
342.99	3468.6	
343.19	2607.1	
343.4	4992.9	
343.61	4815.5	
343.81	3031.7	
344.02	2783.9	
344.23	4965.6	
344.43	5174.5	
344.64	3519.1	
344.85	3417.4	
345.06	4865.3	
345.26	5104.2	
345.47	3289.7	
345.68	3761.4	
345.88	4265.2	
346.09	5001.1	
346.3	3371.6	
346.5	2613.2	
346.71	4610.7	
346.92	4422.9	
347.12	2713.6	
347.33	3267.9	
347.54	5068.7	
347.74	5292.6	
347.95	3276.8	
348.16	2540.2	
348.36	4573.1	
348.57	4394.3	
348.78	3264.5	
348.98	3520.5	
349.19	4659.8	
349.39	4277.5	
349.6	2740.9	
349.81	2938.8	
350.01	4943.8	
350.22	4504.2	
350.43	3220.1	
350.63	3659.7	
350.84	4739.7	
351.05	4482.3	
351.25	2911.5	
351.46	2684.9	
351.67	5073.5	
351.87	4374.5	
352.08	3063.8	
352.29	3454.2	
352.49	5028.4	
352.7	5048.9	
352.9	2857.6	
353.11	3525.2	
353.32	5471.5	
353.52	4554.7	
353.73	2854.2	
353.94	3514.3	
354.14	4967	
354.35	4770.4	
354.55	2914.9	
354.76	3209.2	
354.97	4895.3	
355.17	4719.9	
355.38	2803.7	
355.59	3872	
355.79	4479.6	
356	4706.9	
356.2	3196.9	
356.41	2914.9	
356.62	4379.9	
356.82	4736.3	
357.03	3484.3	
357.24	3149.1	
357.44	4475.5	
357.65	4603.2	
357.85	4083	
358.06	3332	
358.27	4344.4	
358.47	4463.2	
358.68	2854.2	
358.88	3498.6	
359.09	4967.7	
359.3	5189.6	
359.5	3992.2	
359.71	3627	
359.91	5534.3	
360.12	5126.7	
360.33	3519.1	
360.53	3842.7	
360.74	4644.8	
360.94	4700.8	
361.15	3691.1	
361.36	3109.5	
361.56	5269.4	
361.77	4861.2	
361.97	4039.3	
362.18	3326.6	
362.38	5301.5	
362.59	4573.8	
362.8	3099.9	
363	3034.4	
363.21	4446.1	
363.41	4942.4	
363.62	3486.3	
363.83	4175.1	
364.03	5070.8	
364.24	5644.2	
364.44	4388.1	
364.65	4298	
364.85	4855.7	
365.06	4554	
365.27	3302	
365.47	3380.5	
365.68	5565.7	
365.88	4903.5	
366.09	3615.3	
366.29	3352.5	
366.5	5060.5	
366.71	5326.8	
366.91	4290.5	
367.12	3741	
367.32	5851	
367.53	5269.4	
367.73	3805.1	
367.94	4464.6	
368.14	5289.2	
368.35	5856.5	
368.56	3704.1	
368.76	3196.2	
368.97	5421	
369.17	6533	
369.38	3286.3	
369.58	3512.3	
369.79	4583.4	
369.99	5613.5	
370.2	4262.5	
370.4	3547.1	
370.61	5095.3	
370.82	5999.9	
371.02	3517	
371.23	2968.2	
371.43	4586.1	
371.64	5597.8	
371.84	3642	
372.05	4418.8	
372.25	6476.4	
372.46	5374.6	
372.66	3672	
372.87	3593.5	
373.07	5414.1	
373.28	6638.8	
373.48	4336.2	
373.69	4167.6	
373.9	5089.9	
374.1	5052.3	
374.31	4325.3	
374.51	3986.7	
374.72	5720.7	
374.92	4977.2	
375.13	4532.8	
375.33	3937.6	
375.54	5450.3	
375.74	5070.1	
375.95	4119.1	
376.15	4966.3	
376.36	5539.8	
376.56	5451.7	
376.77	4131.4	
376.97	4491.2	
377.18	6432	
377.38	5713.2	
377.59	4653.7	
377.79	3865.9	
378	5509.7	
378.2	5870.8	
378.41	3956.7	
378.61	3870	
378.82	5982.1	
379.02	5343.8	
379.23	4093.2	
379.43	4920.6	
379.64	6109.8	
379.84	5794.4	
380.05	3957.4	
380.25	3879.5	
380.46	5858.6	
380.66	5532.2	
380.87	4823	
381.07	5167	
381.28	6294.8	
381.48	5711.1	
381.69	3882.3	
381.89	4031.1	
382.1	4983.4	
382.3	5859.2	
382.51	4744.5	
382.71	5339.1	
382.91	5678.3	
383.12	6025.1	
383.32	4169	
383.53	4249.5	
383.73	5504.3	
383.94	5450.3	
384.14	4292.5	
384.35	3586.7	
384.55	5313.8	
384.76	5672.2	
384.96	4129.4	
385.17	4260.5	
385.37	5651	
385.58	4996.4	
385.78	4230.4	
385.98	3459	
386.19	5229.8	
386.39	5547.9	
386.6	3902.7	
386.8	3981.9	
387.01	5655.8	
387.21	5696.1	
387.42	4397	
387.62	4777.2	
387.83	5209.3	
388.03	5595.1	
388.23	4265.9	
388.44	4722.6	
388.64	5068.7	
388.85	5165	
389.05	4511.7	
389.26	4900.8	
389.46	6715.3	
389.67	6219	
389.87	4607.2	
390.07	4565.6	
390.28	5571.2	
390.48	5227.8	
390.69	3994.9	
390.89	4246.1	
391.1	5414.1	
391.3	6072.2	
391.5	5043.5	
391.71	5505.6	
391.91	5992.4	
392.12	6571.9	
392.32	5178.6	
392.53	4558.1	
392.73	5530.9	
392.93	5608.7	
393.14	4339.6	
393.34	4882.4	
393.55	6006	
393.75	5524.1	
393.95	4235.9	
394.16	4098	
394.36	5387.5	
394.57	5773.2	
394.77	3827.7	
394.98	4094.6	
395.18	5275.6	
395.38	5472.2	
395.59	4875.5	
395.79	4203.8	
396	5596.4	
396.2	5967.8	
396.4	4923.3	
396.61	4896	
396.81	6083.8	
397.02	5481	
397.22	5143.8	
397.42	5119.9	
397.63	6246.3	
397.83	5601.9	
398.04	4200.4	
398.24	4700.8	
398.44	6008.1	
398.65	5324.7	
398.85	4203.1	
399.05	4272.1	
399.26	5609.4	
399.46	6886.6	
399.67	4541	
399.87	4370.4	
400.07	5877	
400.28	6187.6	
400.48	4520.5	
400.69	5302.2	
400.89	6415.6	
401.09	6765.1	
401.3	4539.7	
401.5	5321.3	
401.7	6996.5	
401.91	7150.1	
402.11	4830.5	
402.32	4895.3	
402.52	6533	
402.72	6333	
402.93	5135.6	
403.13	4078.2	
403.33	6874.3	
403.54	5798.5	
403.74	4627	
403.94	5124.7	
404.15	5780.7	
404.35	6584.2	
404.56	4323.9	
404.76	5627.1	
404.96	6143.2	
405.17	5916.6	
405.37	5266.7	
405.57	4829.1	
405.78	6378.7	
405.98	5898.8	
406.18	4640.7	
406.39	5203.9	
406.59	6391.7	
406.79	5973.9	
407	4425.7	
407.2	4377.2	
407.4	6500.3	
407.61	6386.2	
407.81	4391.5	
408.01	5819.6	
408.22	5524.1	
408.42	7059.3	
408.62	5507.7	
408.83	5127.4	
409.03	6367.8	
409.23	6347.3	
409.44	5392.3	
409.64	5484.5	
409.84	7200.7	
410.05	7219.1	
410.25	5666	
410.45	5418.9	
410.66	7016.3	
410.86	8624.7	
411.06	5854.5	
411.27	5734.3	
411.47	8652.7	
411.67	7117.4	
411.88	5900.2	
412.08	6298.2	
412.28	7643	
412.49	7966.6	
412.69	5909.8	
412.89	5979.4	
413.09	7905.8	
413.3	7819.8	
413.5	6041.5	
413.7	5808	
413.91	7316.7	
414.11	7976.2	
414.31	5988.9	
414.52	6366.5	
414.72	7803.4	
414.92	7739.3	
415.12	5922.7	
415.33	6416.3	
415.53	7996.6	
415.73	8117.5	
415.94	6668.2	
416.14	6276.3	
416.34	7387.7	
416.55	7087.3	
416.75	7075.7	
416.95	6679.1	
417.15	8050.6	
417.36	8486.1	
417.56	7370	
417.76	6604.7	
417.97	8339.3	
418.17	8200.1	
418.37	6419.7	
418.57	6491.4	
418.78	8090.2	
418.98	7763.2	
419.18	7157.7	
419.38	6984.9	
419.59	7837.6	
419.79	7476.5	
419.99	6324.8	
420.2	6445.6	
420.4	8061.5	
420.6	8110.6	
420.8	6209.4	
421.01	6108.4	
421.21	8040.3	
421.41	8103.1	
421.61	6603.3	
421.82	6315.9	
422.02	7771.4	
422.22	8315.4	
422.42	6855.2	
422.63	6421.7	
422.83	7606.2	
423.03	8518.9	
423.23	6555.5	
423.44	5748.6	
423.64	7708.6	
423.84	7354.9	
424.04	6139.1	
424.25	5827.8	
424.45	8323.6	
424.65	8122.2	
424.85	5725.4	
425.06	6140.5	
425.26	8319.5	
425.46	7518.1	
425.66	6424.5	
425.87	6221.7	
426.07	8025.3	
426.27	7761.1	
426.47	6286.6	
426.67	5821.7	
426.88	8262.9	
427.08	7821.2	
427.28	6460	
427.48	5658.5	
427.69	6998.6	
427.89	7421.2	
428.09	6275	
428.29	5672.2	
428.5	7908.6	
428.7	7690.1	
428.9	5720.7	
429.1	6001.9	
429.3	7552.2	
429.51	7802.1	
429.71	5805.3	
429.91	6505.7	
430.11	7926.3	
430.31	8060.1	
430.52	6149.4	
430.72	6402.6	
430.92	8340.7	
431.12	7868.3	
431.32	5996.5	
431.53	6188.3	
431.73	7136.5	
431.93	8251.9	
432.13	5711.1	
432.33	5748	
432.54	7539.3	
432.74	7598.6	
432.94	5836.7	
433.14	6519.4	
433.34	7968.6	
433.55	7596.6	
433.75	6577.4	
433.95	7831.4	
434.15	7849.2	
434.35	7570	
434.56	6010.1	
434.76	5671.5	
434.96	7780.9	
435.16	8067.6	
435.36	5909.8	
435.56	6754.9	
435.77	7696.9	
435.97	7742.7	
436.17	7280.5	
436.37	6734.4	
436.57	7603.4	
436.78	7633.5	
436.98	6701.6	
437.18	7182.2	
437.38	8127.7	
437.58	7661.5	
437.78	7287.4	
437.99	6238.1	
438.19	8079.9	
438.39	8710.7	
438.59	6180.1	
438.79	5784.8	
438.99	8473.8	
439.2	7569.3	
439.4	5702.9	
439.6	5682.4	
439.8	7773.4	
440	8586.5	
440.2	6678.4	
440.4	6711.2	
440.61	8294.3	
440.81	8757.8	
441.01	6187.6	
441.21	7000	
441.41	8897.1	
441.61	8329.1	
441.81	7234.8	
442.02	7786.4	
442.22	9097.1	
442.42	8498.4	
442.62	6318.7	
442.82	6356.2	
443.02	8783.1	
443.22	8054	
443.43	6704.4	
443.63	6360.3	
443.83	8022.6	
444.03	8004.1	
444.23	7262.8	
444.43	6980.2	
444.63	8402.8	
444.83	9066.4	
445.04	6587.6	
445.24	7487.4	
445.44	8456.1	
445.64	8589.2	
445.84	6941.9	
446.04	6956.9	
446.24	7991.2	
446.44	8613.8	
446.65	6231.3	
446.85	6625.2	
447.05	7957	
447.25	8525.7	
447.45	6570.6	
447.65	6212.9	
447.85	8161.8	
448.05	7639.6	
448.25	6962.4	
448.46	6744.6	
448.66	8105.9	
448.86	7786.4	
449.06	6121.4	
449.26	6930.3	
449.46	8380.3	
449.66	7686.7	
449.86	6641.6	
450.06	6582.2	
450.26	7935.9	
450.47	8262.9	
450.67	6856.6	
450.87	7055.9	
451.07	8404.9	
451.27	8107.9	
451.47	6217	
451.67	6933.7	
451.87	7944.1	
452.07	8612.4	
452.27	6523.5	
452.47	6349.4	
452.67	8222.6	
452.88	8494.3	
453.08	5958.9	
453.28	7378.8	
453.48	9106.6	
453.68	7976.8	
453.88	6381.5	
454.08	6460	
454.28	8325	
454.48	8107.2	
454.68	6883.9	
454.88	7277.8	
455.08	8516.1	
455.28	8338	
455.48	6273.6	
455.68	6823.8	
455.89	8916.9	
456.09	8729.1	
456.29	6640.9	
456.49	6769.9	
456.69	8873.2	
456.89	8191.9	
457.09	7087.3	
457.29	7410.9	
457.49	8596.7	
457.69	8700.5	
457.89	7114	
458.09	6526.2	
458.29	8437.6	
458.49	9068.4	
458.69	7372	
458.89	6922.1	
459.09	9241.8	
459.29	9289.6	
459.49	6979.5	
459.69	7610.3	
459.9	8815.1	
460.1	8616.5	
460.3	6898.9	
460.5	6722.8	
460.7	8854.1	
460.9	8619.9	
461.1	6526.2	
461.3	7462.1	
461.5	9374.2	
461.7	9009.7	
461.9	7047.1	
462.1	7333.8	
462.3	8832.2	
462.5	9196.7	
462.7	7019.1	
462.9	7218.4	
463.1	10024	
463.3	9796.1	
463.5	7322.2	
463.7	8126.3	
463.9	9089.6	
464.1	9383.8	
464.3	7632.8	
464.5	7746.1	
464.7	9581.8	
464.9	9448.6	
465.1	8718.2	
465.3	7990.5	
465.5	9815.2	
465.7	9873.3	
465.9	8299.1	
466.1	7943.4	
466.3	9753.1	
466.5	9456.2	
466.7	8727.1	
466.9	7832.8	
467.1	9726.5	
467.3	10220	
467.5	8716.2	
467.7	7845.8	
467.9	10482	
468.1	11041	
468.3	8398.7	
468.5	8781	
468.7	9582.4	
468.9	9597.5	
469.1	8206.9	
469.3	8624.7	
469.5	11049	
469.7	9454.1	
469.9	8428.8	
470.1	8066.3	
470.3	9757.9	
470.5	9620	
470.7	8867	
470.9	7992.5	
471.1	9493	
471.3	9605	
471.5	7915.4	
471.69	9170.8	
471.89	9398.1	
472.09	8910	
472.29	8426	
472.49	8469	
472.69	9131.2	
472.89	9639.1	
473.09	7707.2	
473.29	7819.8	
473.49	9306	
473.69	9179	
473.89	8364.6	
474.09	7913.4	
474.29	10113	
474.49	9908.1	
474.69	8292.9	
474.89	7832.8	
475.09	9296.4	
475.29	9213.1	
475.49	7425.9	
475.69	7749.5	
475.88	10260	
476.08	9506	
476.28	7348.1	
476.48	7501.7	
476.68	9742.9	
476.88	9443.2	
477.08	7509.2	
477.28	7823.2	
477.48	9100.5	
477.68	9467.8	
477.88	7299.6	
478.08	7552.9	
478.28	9817.3	
478.48	9156.5	
478.67	7666.2	
478.87	7092.8	
479.07	9703.3	
479.27	9176.3	
479.47	7737.2	
479.67	7694.9	
479.87	9549.7	
480.07	9829.6	
480.27	7175.4	
480.47	8277.2	
480.67	9181	
480.87	9736	
481.06	7419.8	
481.26	8064.9	
481.46	9283.4	
481.66	9135.3	
481.86	7724.9	
482.06	8341.4	
482.26	8941.4	
482.46	9577.7	
482.66	7550.2	
482.86	7383.6	
483.05	9320.3	
483.25	8805.6	
483.45	9338.7	
483.65	7565.2	
483.85	8830.2	
484.05	9056.8	
484.25	8006.2	
484.45	8340.7	
484.65	9639.1	
484.84	9873.3	
485.04	7563.1	
485.24	7652.6	
485.44	10056	
485.64	8791.9	
485.84	7182.2	
486.04	8167.3	
486.24	9114.8	
486.44	9327.8	
486.63	7120.1	
486.83	7785.7	
487.03	9146.2	
487.23	9188.6	
487.43	7228.6	
487.63	8939.4	
487.83	9280.7	
488.02	9957.9	
488.22	8011	
488.42	8439	
488.62	9923.8	
488.82	9225.4	
489.02	7641	
489.22	7851.2	
489.41	9691	
489.61	9682.8	
489.81	7584.3	
490.01	7576.8	
490.21	9865.7	
490.41	10281	
490.61	7678.5	
490.8	7606.8	
491	9489.6	
491.2	8979.7	
491.4	8005.5	
491.6	7324.9	
491.8	9393.3	
491.99	9346.2	
492.19	7240.9	
492.39	7494.2	
492.59	9679.4	
492.79	9706.7	
492.99	8071.7	
493.18	7538.6	
493.38	9817.3	
493.58	10405	
493.78	8050.6	
493.98	7756.3	
494.18	9712.2	
494.37	9364	
494.57	8413.7	
494.77	8168	
494.97	9918.3	
495.17	10140	
495.37	8016.4	
495.56	8319.5	
495.76	10384	
495.96	10174	
496.16	9125.7	
496.36	8308.6	
496.55	10406	
496.75	9949.7	
496.95	8552.3	
497.15	8541.4	
497.35	10235	
497.54	10211	
497.74	8346.2	
497.94	9465.7	
498.14	10787	
498.34	10510	
498.53	8122.2	
498.73	8637	
498.93	9780.4	
499.13	10325	
499.33	8552.3	
499.52	8919.6	
499.72	10452	
499.92	10442	
500.12	8441	
500.32	8555	
500.51	10471	
500.71	10363	
500.91	9040.4	
501.11	8811.7	
501.31	10501	
501.5	10799	
501.7	9252.7	
501.9	8527.1	
502.1	10280	
502.29	10575	
502.49	8811.7	
502.69	9062.3	
502.89	10387	
503.09	10416	
503.28	8126.3	
503.48	8185	
503.68	9813.2	
503.88	9712.8	
504.07	8883.4	
504.27	8419.2	
504.47	9960.6	
504.67	10004	
504.86	8729.1	
505.06	8410.3	
505.26	9682.8	
505.46	10978	
505.65	8302.5	
505.85	8417.2	
506.05	9679.4	
506.25	9958.6	
506.44	7774.8	
506.64	8288.8	
506.84	9486.9	
507.04	9995.5	
507.23	7902.4	
507.43	8205.5	
507.63	10843	
507.83	9493.7	
508.02	8313.4	
508.22	7898.3	
508.42	11009	
508.62	9275.3	
508.81	7987.8	
509.01	8441.7	
509.21	9114.8	
509.4	9409.7	
509.6	8182.3	
509.8	7821.9	
510	9346.2	
510.19	10324	
510.39	7651.9	
510.59	7804.8	
510.79	9417.9	
510.98	10314	
511.18	7860.8	
511.38	7972.7	
511.57	10004	
511.77	9561.3	
511.97	8282	
512.17	7692.2	
512.36	9809.8	
512.56	9688.9	
512.76	7628	
512.95	7402.7	
513.15	9952.4	
513.35	8836.3	
513.55	8219.9	
513.74	7643.7	
513.94	9747	
514.14	9387.2	
514.33	8282	
514.53	8137.9	
514.73	9409.1	
514.92	9450.7	
515.12	7748.1	
515.32	7653.9	
515.51	9476.6	
515.71	9825.5	
515.91	9017.2	
516.11	7637.6	
516.3	10662	
516.5	9290.3	
516.7	8215.8	
516.89	8499.1	
517.09	9373.6	
517.29	9372.2	
517.48	8295	
517.68	7894.9	
517.88	9092.3	
518.07	9659.6	
518.27	8178.9	
518.47	7597.3	
518.66	9994.1	
518.86	8970.1	
519.06	7352.9	
519.25	7685.3	
519.45	9121.7	
519.65	10295	
519.84	8212.4	
520.04	8741.4	
520.24	10620	
520.43	9706	
520.63	7990.5	
520.83	7778.2	
521.02	9139.4	
521.22	9583.1	
521.42	8043.1	
521.61	8387.8	
521.81	9228.1	
522.01	9324.4	
522.2	7905.2	
522.4	7719.5	
522.6	9695.1	
522.79	8781.7	
522.99	7804.1	
523.18	7409.6	
523.38	9554.5	
523.58	9508	
523.77	8819.9	
523.97	7400.7	
524.17	10748	
524.36	10359	
524.56	8641.7	
524.76	8165.9	
524.95	9663	
525.15	9420.7	
525.34	8094.3	
525.54	8191.2	
525.74	10025	
525.93	9340.1	
526.13	8992.6	
526.33	8199.4	
526.52	10324	
526.72	9840.5	
526.91	9013.1	
527.11	8442.4	
527.31	10117	
527.5	10482	
527.7	8537.3	
527.89	7819.1	
528.09	9660.3	
528.29	9965.4	
528.48	8772.8	
528.68	8434.2	
528.87	10179	
529.07	10331	
529.27	8391.9	
529.46	8254.7	
529.66	9934.7	
529.85	10335	
530.05	8088.8	
530.25	8546.9	
530.44	10927	
530.64	9837.8	
530.83	8201.4	
531.03	8531.8	
531.23	10279	
531.42	10058	
531.62	8951.7	
531.81	8329.1	
532.01	10395	
532.21	10616	
532.4	8316.8	
532.6	8562.6	
532.79	11118	
532.99	10500	
533.18	8666.3	
533.38	9322.4	
533.58	10154	
533.77	10657	
533.97	8656.1	
534.16	9317.6	
534.36	10972	
534.55	10272	
534.75	9398.8	
534.95	8778.3	
535.14	10862	
535.34	10202	
535.53	8542.1	
535.73	9832.3	
535.92	11162	
536.12	10258	
536.31	8572.8	
536.51	9432.3	
536.71	10584	
536.9	10153	
537.1	8600.8	
537.29	8696.4	
537.49	10838	
537.68	10075	
537.88	9041.1	
538.07	8434.2	
538.27	10314	
538.46	10918	
538.66	8366	
538.86	8685.4	
539.05	10315	
539.25	10644	
539.44	8893	
539.64	8586.5	
539.83	10277	
540.03	10870	
540.22	8473.1	
540.42	8475.9	
540.61	10344	
540.81	10379	
541	8736.6	
541.2	9287.5	
541.39	9895.8	
541.59	10133	
541.78	9070.5	
541.98	8372.1	
542.18	9749	
542.37	9738.8	
542.57	8627.4	
542.76	8992.6	
542.96	9684.2	
543.15	10066	
543.35	8600.1	
543.54	8146.8	
543.74	10177	
543.93	10007	
544.13	8416.5	
544.32	9221.3	
544.52	10195	
544.71	9607.7	
544.91	7850.5	
545.1	8598.1	
545.3	9650.7	
545.49	10015	
545.69	7765.9	
545.88	8227.4	
546.08	10733	
546.27	10343	
546.47	8452	
546.66	7946.1	
546.86	10147	
547.05	10513	
547.24	8051.9	
547.44	8045.1	
547.63	9491.7	
547.83	10164	
548.02	8281.3	
548.22	8466.3	
548.41	9189.2	
548.61	10080	
548.8	7868.3	
549	7854.6	
549.19	9759.3	
549.39	9990	
549.58	7684.7	
549.78	8039	
549.97	9908.1	
550.17	9534	
550.36	8639.7	
550.55	9358.5	
550.75	9491.7	
550.94	10103	
551.14	7832.1	
551.33	7972.1	
551.53	9038.4	
551.72	9767.4	
551.92	8004.8	
552.11	7910.6	
552.31	9810.5	
552.5	9727.9	
552.69	9043.8	
552.89	7547.4	
553.08	9671.2	
553.28	9427.5	
553.47	7876.5	
553.67	8602.2	
553.86	10137	
554.06	8895	
554.25	7235.5	
554.44	7593.9	
554.64	10603	
554.83	10360	
555.03	7616.4	
555.22	7833.5	
555.42	9838.4	
555.61	9581.1	
555.8	7673.1	
556	7852.6	
556.19	8886.1	
556.39	9848.7	
556.58	7662.1	
556.78	7755	
556.97	9439.8	
557.16	9189.9	
557.36	8637	
557.55	7486	
557.75	8667	
557.94	10089	
558.13	7564.5	
558.33	7390.4	
558.52	9847.3	
558.72	8950.3	
558.91	7437.5	
559.1	7538.6	
559.3	8719.6	
559.49	8600.1	
559.69	7055.9	
559.88	7675.1	
560.07	9392	
560.27	9695.1	
560.46	7935.2	
560.66	8077.9	
560.85	9211.1	
561.04	8558.5	
561.24	7387.7	
561.43	7449.8	
561.63	8726.4	
561.82	8953.7	
562.01	8249.2	
562.21	7621.9	
562.4	9234.3	
562.59	9871.2	
562.79	7507.9	
562.98	7339.9	
563.18	9192.6	
563.37	10253	
563.56	7933.1	
563.76	7316.7	
563.95	8886.8	
564.14	8803.5	
564.34	7535.8	
564.53	7364.5	
564.73	9207	
564.92	9347.6	
565.11	7658.7	
565.31	7263.5	
565.5	9607.7	
565.69	8770.8	
565.89	7494.2	
566.08	7527	
566.27	9415.9	
566.47	9770.9	
566.66	8106.5	
566.85	7098.9	
567.05	9298.5	
567.24	8932.6	
567.44	7350.2	
567.63	8230.8	
567.82	9496.4	
568.02	9149.6	
568.21	7286	
568.4	7574.1	
568.6	9148.3	
568.79	9037.7	
568.98	7320.1	
569.18	7307.8	
569.37	9204.9	
569.56	10536	
569.76	7602.7	
569.95	8320.2	
570.14	9376.3	
570.34	9237	
570.53	7247.1	
570.72	7229.3	
570.91	9663	
571.11	9107.3	
571.3	7499	
571.49	8205.5	
571.69	9139.4	
571.88	8719.6	
572.07	7854	
572.27	7858.1	
572.46	8718.2	
572.65	9372.2	
572.85	7432.1	
573.04	7559.1	
573.23	9722.4	
573.43	9145.5	
573.62	7233.4	
573.81	7686	
574	9149.6	
574.2	9021.3	
574.39	7419.8	
574.58	7641	
574.78	9789.3	
574.97	9299.1	
575.16	7886.7	
575.36	7896.3	
575.55	9608.4	
575.74	9616.6	
575.93	7271	
576.13	8028.7	
576.32	9163.3	
576.51	9517.6	
576.71	7578.8	
576.9	8473.8	
577.09	9733.3	
577.28	9346.9	
577.48	7871.7	
577.67	7215.7	
577.86	9209.7	
578.05	9424.1	
578.25	7670.3	
578.44	7786.4	
578.63	9235.7	
578.83	10036	
579.02	7258.7	
579.21	8318.2	
579.4	9398.8	
579.6	9060.9	
579.79	7666.2	
579.98	9238.4	
580.17	9709.4	
580.37	9760.6	
580.56	7386.3	
580.75	7880.6	
580.94	9874.6	
581.14	9970.2	
581.33	8239	
581.52	7518.8	
581.71	9506	
581.91	10023	
582.1	7415.7	
582.29	7685.3	
582.48	9307.3	
582.68	9247.9	
582.87	8135.2	
583.06	7770	
583.25	9615.2	
583.45	9276.6	
583.64	8187.1	
583.83	8832.2	
584.02	9280.7	
584.21	9545.6	
584.41	8265.6	
584.6	7742	
584.79	9359.9	
584.98	9911.5	
585.18	7546.1	
585.37	7483.3	
585.56	9084.8	
585.75	9579.7	
585.94	7617.8	
586.14	8089.5	
586.33	9945.6	
586.52	9227.5	
586.71	7890.1	
586.91	7740	
587.1	8742.1	
587.29	9540.8	
587.48	7567.9	
587.67	7432.1	
587.87	9400.9	
588.06	9338.7	
588.25	8394.6	
588.44	7888.1	
588.63	9120.3	
588.83	9471.9	
589.02	7459.4	
589.21	7361.1	
589.4	8927.8	
589.59	8811.7	
589.78	6746	
589.98	6859.3	
590.17	8261.5	
590.36	8703.9	
590.55	6251.8	
590.74	6797.9	
590.94	9452.1	
591.13	8453.3	
591.32	6717.3	
591.51	6371.9	
591.7	8730.5	
591.89	8414.4	
592.09	6462	
592.28	6874.3	
592.47	7935.9	
592.66	9325.8	
592.85	6507.1	
593.05	6726.2	
593.24	8344.8	
593.43	8989.9	
593.62	6703.7	
593.81	6994.5	
594	8419.2	
594.19	8575.5	
594.39	6676.4	
594.58	6606.1	
594.77	8695.7	
594.96	9015.2	
595.15	6644.3	
595.34	7051.8	
595.54	8636.3	
595.73	7976.2	
595.92	6096.8	
596.11	6838.9	
596.3	8961.2	
596.49	8096.3	
596.68	6750.1	
596.88	7062.1	
597.07	8708.6	
597.26	7945.4	
597.45	6439.5	
597.64	7198.6	
597.83	8099.7	
598.02	8591.9	
598.22	6432.7	
598.41	6959.7	
598.6	8592.6	
598.79	7961.1	
598.98	6495.5	
599.17	7148.1	
599.36	8426.7	
599.55	9211.1	
599.74	7884.7	
599.94	7820.5	
600.13	8840.4	
600.32	7969.3	
600.51	6189.6	
600.7	6415.6	
600.89	9254.8	
601.08	9287.5	
601.27	6350.1	
601.47	6963.1	
601.66	8701.8	
601.85	9135.3	
602.04	6739.9	
602.23	6948.8	
602.42	8134.5	
602.61	8473.1	
602.8	6642.9	
602.99	6513.9	
603.18	8320.2	
603.37	8472.4	
603.57	6926.2	
603.76	7378.8	
603.95	9018.6	
604.14	8650.6	
604.33	6549.4	
604.52	6887.3	
604.71	8467.7	
604.9	8099.7	
605.09	7271.7	
605.28	7017	
605.47	8822	
605.66	8540.7	
605.86	7002.7	
606.05	6535.1	
606.24	8905.3	
606.43	7767.3	
606.62	6798.6	
606.81	7277.8	
607	8680	
607.19	8206.2	
607.38	6382.8	
607.57	6492.7	
607.76	8045.8	
607.95	7675.1	
608.14	6808.8	
608.33	7247.1	
608.52	8005.5	
608.72	8641.7	
608.91	6243.6	
609.1	6244.3	
609.29	8142.7	
609.48	7734.5	
609.67	6950.8	
609.86	6216.3	
610.05	7860.1	
610.24	8009.6	
610.43	6159.6	
610.62	5894.1	
610.81	8775.5	
611	8602.2	
611.19	6229.2	
611.38	6825.2	
611.57	8295	
611.76	9073.9	
611.95	6154.1	
612.14	6066.1	
612.33	8159.1	
612.52	7835.5	
612.71	6518.7	
612.9	5941.2	
613.09	7503.1	
613.28	9153.1	
613.47	6373.3	
613.66	6918.7	
613.85	8230.8	
614.04	7724.9	
614.24	6307.1	
614.43	5733.6	
614.62	8248.5	
614.81	8180.3	
615	6666.1	
615.19	6712.6	
615.38	7741.3	
615.57	8021.9	
615.76	6627.9	
615.95	7334.5	
616.14	8296.3	
616.33	8081.3	
616.52	6857.3	
616.71	6941.2	
616.9	8311.3	
617.09	8055.3	
617.28	6337.8	
617.47	7135.8	
617.66	7614.3	
617.85	7666.2	
618.04	7036.8	
618.22	6556.9	
618.41	7879.9	
618.6	8595.3	
618.79	6578.1	
618.98	6395.1	
619.17	8718.2	
619.36	7501	
619.55	6560.3	
619.74	6539.8	
619.93	8236.2	
620.12	7846.5	
620.31	6854.6	
620.5	7030	
620.69	8693.6	
620.88	8931.2	
621.07	7468.9	
621.26	6802	
621.45	8384.4	
621.64	8400.8	
621.83	7025.9	
622.02	6383.5	
622.21	8460.8	
622.4	8280.6	
622.59	7305.1	
622.78	7247.1	
622.97	8048.5	
623.16	8714.1	
623.35	6938.5	
623.54	6244.9	
623.72	8124.3	
623.91	8227.4	
624.1	7143.3	
624.29	6097.5	
624.48	9037.7	
624.67	8503.2	
624.86	6989	
625.05	6272.2	
625.24	9123.7	
625.43	8007.6	
625.62	8124.3	
625.81	6550.8	
626	8624	
626.19	8146.8	
626.38	6993.8	
626.56	6651.8	
626.75	7992.5	
626.94	8535.3	
627.13	7053.2	
627.32	6183.5	
627.51	8480	
627.7	9308	
627.89	6213.5	
628.08	6930.3	
628.27	7806.2	
628.46	7969.3	
628.65	6392.4	
628.83	6171.9	
629.02	8353	
629.21	7840.3	
629.4	6704.4	
629.59	6830.7	
629.78	7833.5	
629.97	8546.2	
630.16	6890	
630.35	6464.1	
630.54	8936.7	
630.72	8692.3	
630.91	6515.3	
631.1	6875.7	
631.29	8310	
631.48	8398	
631.67	6994.5	
631.86	6496.8	
632.05	8071.7	
632.24	8093.6	
632.42	6331	
632.61	6706.4	
632.8	8096.3	
632.99	7827.3	
633.18	6879.1	
633.37	6966.5	
633.56	8308.6	
633.75	8142.7	
633.93	6784.9	
634.12	6619	
634.31	8940.7	
634.5	8585.1	
634.69	6592.4	
634.88	6892.1	
635.07	8128.4	
635.25	8574.2	
635.44	7139.2	
635.63	7359.7	
635.82	8030.8	
636.01	7595.9	
636.2	7135.1	
636.39	6768.5	
636.57	8808.3	
636.76	8469.7	
636.95	6470.9	
637.14	7283.9	
637.33	8350.3	
637.52	8875.9	
637.7	6244.3	
637.89	6976.1	
638.08	8043.1	
638.27	9070.5	
638.46	6969.2	
638.65	7256.6	
638.83	9066.4	
639.02	7946.1	
639.21	6909.2	
639.4	7258	
639.59	8153	
639.78	7942.7	
639.96	6362.4	
640.15	6435.4	
640.34	8072.4	
640.53	8192.6	
640.72	6270.9	
640.91	6339.8	
641.09	7650.5	
641.28	8628.1	
641.47	6439.5	
641.66	6963.1	
641.85	8117.5	
642.03	8329.8	
642.22	6709.8	
642.41	6490.7	
642.6	7722.9	
642.79	7320.8	
642.97	6260	
643.16	6685.9	
643.35	7728.4	
643.54	7567.9	
643.73	6163	
643.91	6743.3	
644.1	7487.4	
644.29	7837.6	
644.48	6174.6	
644.67	6278.4	
644.85	7505.8	
645.04	7850.5	
645.23	5923.4	
645.42	6090	
645.6	7375.4	
645.79	8213	
645.98	5978	
646.17	5319.9	
646.36	7205.4	
646.54	7521.5	
646.73	6510.5	
646.92	5724.1	
647.11	7210.9	
647.29	7947.5	
647.48	5717.2	
647.67	5580.7	
647.86	8183	
648.05	8116.1	
648.23	5802.6	
648.42	6834.1	
648.61	7742	
648.8	7523.6	
648.98	5690.6	
649.17	5883.8	
649.36	7210.2	
649.55	6877.8	
649.73	5702.2	
649.92	6281.1	
650.11	7061.4	
650.3	7405.5	
650.48	5771.9	
650.67	5725.4	
650.86	7641.7	
651.05	6747.4	
651.23	5685.2	
651.42	5637.4	
651.61	7139.2	
651.79	7065.5	
651.98	5894.7	
652.17	5621.7	
652.36	7593.2	
652.54	6778.1	
652.73	5647.6	
652.92	5655.8	
653.11	7509.2	
653.29	7496.9	
653.48	5196.4	
653.67	5825.8	
653.85	7279.8	
654.04	7999.4	
654.23	5904.3	
654.42	5575.9	
654.6	6935.8	
654.79	7335.1	
654.98	5198.4	
655.16	5647.6	
655.35	6554.2	
655.54	6445.6	
655.73	5197.1	
655.91	5076.2	
656.1	7251.9	
656.29	6428.6	
656.47	4936.3	
656.66	6129.6	
656.85	6823.8	
657.03	6746.7	
657.22	5324.7	
657.41	5413.5	
657.59	6806.1	
657.78	6723.5	
657.97	5180.7	
658.16	5572.5	
658.34	7362.4	
658.53	7580.9	
658.72	6214.9	
658.9	6604	
659.09	6976.7	
659.28	7038.9	
659.46	5474.2	
659.65	5389.6	
659.84	6737.8	
660.02	7236.8	
660.21	5510.4	
660.4	5270.1	
660.58	7488.7	
660.77	6995.2	
660.96	5857.9	
661.14	5038.7	
661.33	7875.1	
661.52	7730.4	
661.7	5061.9	
661.89	7539.9	
662.08	6732.4	
662.26	6345.3	
662.45	5315.2	
662.64	5328.8	
662.82	7294.2	
663.01	6677.1	
663.2	5350.7	
663.38	5839.4	
663.57	7081.9	
663.75	7073.7	
663.94	5517.9	
664.13	6356.9	
664.31	6722.1	
664.5	7094.8	
664.69	5847.6	
664.87	6072.2	
665.06	6608.8	
665.25	7062.8	
665.43	6229.2	
665.62	6226.5	
665.8	7227.3	
665.99	6718.7	
666.18	5485.8	
666.36	5514.5	
666.55	7242.3	
666.74	7090.8	
666.92	5356.1	
667.11	6424.5	
667.29	6800.6	
667.48	7115.3	
667.67	6152.1	
667.85	5468.8	
668.04	6801.3	
668.22	6689.3	
668.41	5584.8	
668.6	5756.8	
668.78	6637.5	
668.97	6821.8	
669.15	5784.1	
669.34	5030.5	
669.53	6648.4	
669.71	6911.9	
669.9	5227.1	
670.08	5654.4	
670.27	6562.4	
670.46	7073	
670.64	5772.5	
670.83	6001.2	
671.01	6490	
671.2	6913.3	
671.38	5277.6	
671.57	5212.1	
671.76	7455.3	
671.94	7742.7	
672.13	5126.1	
672.31	5883.8	
672.5	7192.5	
672.69	6642.9	
672.87	5241.4	
673.06	5522	
673.24	7011.6	
673.43	6619.7	
673.61	5722	
673.8	5390.3	
673.98	7047.1	
674.17	7166.5	
674.36	5888.6	
674.54	5745.9	
674.73	6836.1	
674.91	7143.3	
675.1	5481	
675.28	5290.6	
675.47	6756.2	
675.65	7141.3	
675.84	5511.1	
676.03	5695.4	
676.21	6683.2	
676.4	6262.7	
676.58	5922	
676.77	5734.3	
676.95	7643.7	
677.14	6625.9	
677.32	5152	
677.51	5051	
677.69	7155.6	
677.88	6378.1	
678.06	5160.9	
678.25	5261.9	
678.44	6739.9	
678.62	6580.1	
678.81	4995.7	
678.99	5631.9	
679.18	7398.6	
679.36	7027.9	
679.55	5348.6	
679.73	5772.5	
679.92	6997.9	
680.1	6599.2	
680.29	6201.2	
680.47	5365.7	
680.66	6566.5	
680.84	7180.2	
681.03	4971.1	
681.21	5686.5	
681.4	6568.5	
681.58	6494.8	
681.77	5236.7	
681.95	5160.2	
682.14	7139.2	
682.32	7302.4	
682.51	5924.1	
682.69	4956.8	
682.88	6552.8	
683.06	6886.6	
683.25	5570.5	
683.43	5883.8	
683.62	6708.5	
683.8	6999.3	
683.99	6012.2	
684.17	5479.7	
684.36	7545.4	
684.54	6599.2	
684.73	4964.3	
684.91	4997	
685.1	6863.4	
685.28	6308.4	
685.46	5319.9	
685.65	5279	
685.83	6774	
686.02	6324.8	
686.2	4902.2	
686.39	4992.3	
686.57	6092	
686.76	7277.1	
686.94	5056.4	
687.13	5072.8	
687.31	6691.4	
687.5	6489.3	
687.68	4669.4	
687.86	5442.1	
688.05	7626	
688.23	5973.9	
688.42	5550.7	
688.6	5062.6	
688.79	6379.4	
688.97	6348	
689.16	5363.6	
689.34	4633.9	
689.52	6907.8	
689.71	7147.4	
689.89	5532.9	
690.08	5106.3	
690.26	6649.1	
690.45	6436.8	
690.63	5621	
690.81	5096	
691	6499.6	
691.18	6372.6	
691.37	5253.7	
691.55	6745.3	
691.74	6327.5	
691.92	7664.9	
692.1	5259.9	
692.29	4806.6	
692.47	6544.6	
692.66	6072.2	
692.84	5010.7	
693.02	5412.8	
693.21	6070.9	
693.39	6490.7	
693.58	5559.6	
693.76	5048.2	
693.94	7288.7	
694.13	7118.7	
694.31	5014.1	
694.5	5814.9	
694.68	6346	
694.86	6768.5	
695.05	5394.3	
695.23	5423	
695.42	6903	
695.6	8450.6	
695.78	5823.7	
695.97	5069.4	
696.15	6967.2	
696.34	6472.3	
696.52	4982	
696.7	5537.7	
696.89	6812.9	
697.07	6275	
697.25	5441.5	
697.44	6502.3	
697.62	6713.9	
697.81	6927.6	
697.99	5222.3	
698.17	5552	
698.36	6327.5	
698.54	6638.1	
698.72	5434.6	
698.91	4774.5	
699.09	6425.8	
699.28	6294.8	
699.46	5285.1	
699.64	5145.2	
699.83	6324.8	
700.01	7030.7	
700.19	5758.2	
700.38	4606.6	
700.56	7093.5	
700.74	6319.3	
700.93	4895.3	
701.11	5487.9	
701.29	6669.6	
701.48	7484	
701.66	5055.8	
701.84	5124	
702.03	6451.8	
702.21	6939.9	
702.39	4813.4	
702.58	5212.1	
702.76	6834.8	
702.94	6823.8	
703.13	4788.2	
703.31	6470.9	
703.49	6284.5	
703.68	7305.8	
703.86	4906.9	
704.04	5618.9	
704.23	6645.7	
704.41	6921.5	
704.59	5113.1	
704.78	5798.5	
704.96	7804.8	
705.14	6850.5	
705.33	4868.7	
705.51	5457.8	
705.69	6445	
705.87	7012.9	
706.06	5617.6	
706.24	4810	
706.42	6672.3	
706.61	6935.1	
706.79	5629.9	
706.97	4848.9	
707.16	6262.7	
707.34	6748.7	
707.52	5627.8	
707.7	4966.3	
707.89	6386.2	
708.07	6191.7	
708.25	5620.3	
708.44	5695.4	
708.62	6357.6	
708.8	7073.7	
708.98	5811.5	
709.17	5069.4	
709.35	6639.5	
709.53	6570.6	
709.72	4833.2	
709.9	4992.9	
710.08	6812.2	
710.26	6880.5	
710.45	5973.2	
710.63	5102.2	
710.81	6545.3	
710.99	6525.5	
711.18	5459.2	
711.36	5145.2	
711.54	6454.5	
711.72	6948.8	
711.91	5220.3	
712.09	4814.1	
712.27	6569.2	
712.45	6920.8	
712.64	5369.8	
712.82	4596.3	
713	6176	
713.18	6221.7	
713.37	4701.5	
713.55	5520.6	
713.73	6756.9	
713.91	5862.7	
714.1	4853.7	
714.28	4556.7	
714.46	6479.8	
714.64	5875.6	
714.83	4100.7	
715.01	4625.7	
715.19	5944.6	
715.37	5390.3	
715.55	4345.8	
715.74	4565.6	
715.92	6449.1	
716.1	5003.9	
716.28	5375.9	
716.47	4601.8	
716.65	5608.7	
716.83	5551.4	
717.01	4478.9	
717.19	4512.4	
717.38	7136.5	
717.56	5357.5	
717.74	4631.1	
717.92	4098.7	
718.1	6281.8	
718.29	5714.5	
718.47	3832.4	
718.65	4333.5	
718.83	6279.1	
719.01	6206.7	
719.2	3834.5	
719.38	4601.8	
719.56	5995.8	
719.74	7066.2	
719.92	4403.1	
720.11	5075.5	
720.29	6109.1	
720.47	5401.2	
720.65	3999.7	
720.83	4567	
721.02	5634.6	
721.2	5465.3	
721.38	4595	
721.56	4079.6	
721.74	5040.1	
721.92	5217.5	
722.11	4911	
722.29	4719.9	
722.47	6009.4	
722.65	5529.5	
722.83	4065.9	
723.01	4679.6	
723.2	5560.2	
723.38	5801.2	
723.56	3632.4	
723.74	4462.5	
723.92	5199.1	
724.1	5964.4	
724.29	3921.9	
724.47	4799.1	
724.65	5301.5	
724.83	5125.4	
725.01	3952.6	
725.19	4500.1	
725.37	5205.3	
725.56	5200.5	
725.74	3814.7	
725.92	4000.4	
726.1	5185.5	
726.28	5388.9	
726.46	4308.9	
726.64	4090.5	
726.83	5507	
727.01	5561.6	
727.19	3808.5	
727.37	4403.8	
727.55	5465.3	
727.73	5808	
727.91	3771.7	
728.09	3690.4	
728.28	5905.7	
728.46	5995.8	
728.64	4463.2	
728.82	4415.4	
729	6564.4	
729.18	6111.1	
729.36	3852.2	
729.54	5461.9	
729.72	6821.8	
729.91	5595.7	
730.09	5219.6	
730.27	4390.8	
730.45	5644.9	
730.63	5954.1	
730.81	4853.7	
730.99	4073.4	
731.17	6439.5	
731.35	5390.3	
731.53	4532.8	
731.71	4228.4	
731.9	6206	
732.08	6300.9	
732.26	4455.7	
732.44	4169	
732.62	6326.2	
732.8	5955.5	
732.98	4695.3	
733.16	4014.7	
733.34	6007.4	
733.52	4983.4	
733.7	4296.6	
733.88	4528.7	
734.07	5867.4	
734.25	5662.6	
734.43	3980.6	
734.61	5026.4	
734.79	6732.4	
734.97	5613.5	
735.15	4122.6	
735.33	4314.4	
735.51	5870.8	
735.69	5637.4	
735.87	5078.3	
736.05	4454.3	
736.23	5826.5	
736.41	5457.8	
736.59	4360.8	
736.77	4411.3	
736.95	6001.2	
737.13	5572.5	
737.32	4106.9	
737.5	4265.9	
737.68	6414.2	
737.86	5514.5	
738.04	3914.4	
738.22	5278.3	
738.4	5419.6	
738.58	5639.4	
738.76	4428.4	
738.94	3627.6	
739.12	5445.5	
739.3	5421	
739.48	4835.3	
739.66	4638	
739.84	5634	
740.02	5647.6	
740.2	3749.8	
740.38	3909.6	
740.56	5913.2	
740.74	5081.7	
740.92	4466.6	
741.1	4354	
741.28	5481	
741.46	5335	
741.64	4138.9	
741.82	4478.2	
742	5581.4	
742.18	5423.7	
742.36	4250.2	
742.54	3996.3	
742.72	5945.3	
742.9	5000.5	
743.08	4549.9	
743.26	3657	
743.44	5999.9	
743.62	5896.1	
743.8	4638.6	
743.98	3889.8	
744.16	5713.8	
744.34	5535.7	
744.52	4485.1	
744.7	4498.7	
744.88	5814.2	
745.06	5440.8	
745.24	4545.8	
745.42	4544.4	
745.6	5891.3	
745.78	5723.4	
745.96	3703.4	
746.14	3906.2	
746.32	6370.5	
746.5	5839.4	
746.68	4280.9	
746.86	3902.1	
747.03	6034.7	
747.21	4970.4	
747.39	4308.2	
747.57	3912.3	
747.75	5537	
747.93	5780.1	
748.11	3892.5	
748.29	3803.1	
748.47	6741.2	
748.65	5365	
748.83	4403.8	
749.01	4154	
749.19	5717.2	
749.37	5091.3	
749.55	4115.1	
749.73	4169.7	
749.91	5455.1	
750.09	5329.5	
750.26	4246.1	
750.44	3760.1	
750.62	5481	
750.8	5398.4	
750.98	3693.9	
751.16	3883.6	
751.34	5526.8	
751.52	5046.9	
751.7	4425.7	
751.88	3674.1	
752.06	5890	
752.24	5604.6	
752.42	3589.4	
752.59	3931.4	
752.77	5438.7	
752.95	6260	
753.13	4448.2	
753.31	3959.4	
753.49	5175.9	
753.67	5477	
753.85	4134.8	
754.03	3855.6	
754.21	5700.9	
754.38	5891.3	
754.56	3958.7	
754.74	3318.4	
754.92	5076.9	
755.1	5533.6	
755.28	3263.1	
755.46	3282.9	
755.64	6104.3	
755.82	6252.4	
755.99	3411.2	
756.17	3469.3	
756.35	4380.6	
756.53	5511.1	
756.71	2680.8	
756.89	3343.7	
757.07	5117.2	
757.25	4468.7	
757.42	3748.5	
757.6	4394.3	
757.78	5176.6	
757.96	4539.7	
758.14	3545.7	
758.32	3138.9	
758.5	4173.8	
758.67	4808.6	
758.85	3401.7	
759.03	3497.9	
759.21	4958.8	
759.39	4475.5	
759.57	3130.7	
759.75	3833.8	
759.92	5442.1	
760.1	4959.5	
760.28	4145.1	
760.46	4321.9	
760.64	4751.3	
760.82	4588.1	
760.99	4043.4	
761.17	3491.8	
761.35	5328.1	
761.53	4526	
761.71	3585.3	
761.89	4077.5	
762.06	5228.5	
762.24	4843.4	
762.42	3676.8	
762.6	3437.9	
762.78	4807.3	
762.96	5234.6	
763.13	3924.6	
763.31	3643.3	
763.49	5351.3	
763.67	4808.6	
763.85	4248.2	
764.02	4641.4	
764.2	5621	
764.38	4972.5	
764.56	3569.6	
764.74	4248.2	
764.91	5706.3	
765.09	4844.8	
765.27	3353.2	
765.45	3241.9	
765.63	5744.6	
765.8	5554.8	
765.98	3123.2	
766.16	3270.6	
766.34	4596.3	
766.52	4376.5	
766.69	3971.7	
766.87	3186	
767.05	4874.8	
767.23	5418.9	
767.41	3360.7	
767.58	3587.4	
767.76	5326.8	
767.94	5359.5	
768.12	3430.3	
768.29	3934.8	
768.47	4950.6	
768.65	5477.6	
768.83	3150.5	
769	4005.8	
769.18	4607.2	
769.36	5136.3	
769.54	3977.8	
769.72	3224.2	
769.89	5412.1	
770.07	5394.3	
770.25	3481.5	
770.43	4373.8	
770.6	5925.5	
770.78	6119.3	
770.96	3554.6	
771.14	4028.4	
771.31	5309	
771.49	4817.5	
771.67	2978.4	
771.85	3112.9	
772.02	4283	
772.2	4763.6	
772.38	3657.7	
772.55	3267.2	
772.73	5041.4	
772.91	4875.5	
773.09	3609.9	
773.26	3685	
773.44	5005.9	
773.62	4698.7	
773.8	3269.2	
773.97	3115	
774.15	5015.5	
774.33	4787.5	
774.5	3196.9	
774.68	3412.6	
774.86	5115.8	
775.04	4810.7	
775.21	3223.5	
775.39	3205.1	
775.57	4962.2	
775.74	5166.3	
775.92	3082.2	
776.1	3007.8	
776.27	4971.8	
776.45	5796.4	
776.63	3207.8	
776.81	2907.4	
776.98	4719.2	
777.16	5361.6	
777.34	3320.4	
777.51	3476.8	
777.69	4669.4	
777.87	4504.2	
778.04	3433.8	
778.22	3723.9	
778.4	4549.2	
778.57	4983.4	
778.75	2823.5	
778.93	3014.6	
779.1	4441.4	
779.28	4319.2	
779.46	2822.1	
779.64	3157.3	
779.81	5123.3	
779.99	5778.7	
780.17	3712.3	
780.34	3817.4	
780.52	4714.4	
780.69	4839.4	
780.87	3428.3	
781.05	3093.1	
781.22	4802.5	
781.4	4823.6	
781.58	3216	
781.75	2622.8	
781.93	4810.7	
782.11	4299.4	
782.28	3838.6	
782.46	3212.6	
782.64	4186	
782.81	4956.8	
782.99	3312.9	
783.17	3224.9	
783.34	4769	
783.52	4416.1	
783.69	3277.4	
783.87	3933.5	
784.05	4423.6	
784.22	4385.4	
784.4	4001.7	
784.58	3384.6	
784.75	5081.7	
784.93	4448.9	
785.1	3158	
785.28	3650.8	
785.46	4863.2	
785.63	4336.2	
785.81	3269.2	
785.99	3053.5	
786.16	4524	
786.34	4842.8	
786.51	3102	
786.69	3404.4	
786.87	4186	
787.04	4539.7	
787.22	3001	
787.39	3701.4	
787.57	4369	
787.75	5112.4	
787.92	3908.9	
788.1	3715	
788.27	4367.6	
788.45	4131.4	
788.63	3622.9	
788.8	2667.1	
788.98	4775.2	
789.15	4062.5	
789.33	2820.1	
789.5	3246.7	
789.68	5016.2	
789.86	5116.5	
790.03	3450.1	
790.21	3101.3	
790.38	5083.1	
790.56	4508.9	
790.73	3019.4	
790.91	3030.3	
791.09	4339.6	
791.26	4884.4	
791.44	3222.8	
791.61	2817.3	
791.79	4352.6	
791.96	4378.6	
792.14	2868.5	
792.32	2575.7	
792.49	4326.7	
792.67	4477.5	
792.84	2964.1	
793.02	2816.6	
793.19	4717.2	
793.37	5200.5	
793.54	2603.7	
793.72	2805	
793.89	5181.4	
794.07	4334.9	
794.25	3164.8	
794.42	2646	
794.6	5190.9	
794.77	4798.4	
794.95	3476.1	
795.12	3074.7	
795.3	4387.4	
795.47	4714.4	
795.65	3379.1	
795.82	3246.7	
796	4269.3	
796.17	5510.4	
796.35	3115.6	
796.52	3682.2	
796.7	4734.2	
796.87	4824.3	
797.05	3095.2	
797.22	3726.6	
797.4	4812.7	
797.57	5508.4	
797.75	3244.7	
797.92	3072.6	
798.1	5099.4	
798.27	4215.4	
798.45	2686.3	
798.62	2878.1	
798.8	4618.2	
798.97	4930.1	
799.15	3398.3	
799.32	3213.9	
799.5	4076.1	
799.67	4552	
799.85	3482.2	
800.02	2639.8	
800.2	4258.4	
800.37	4476.9	
800.55	3564.1	
800.72	3087.7	
800.9	4913.1	
801.07	5238.7	
801.25	3926	
801.42	3360	
801.6	4940.4	
801.77	4596.3	
801.95	3063.1	
802.12	3007.8	
802.29	4745.8	
802.47	4640.7	
802.64	3329.3	
802.82	2607.1	
802.99	4318.5	
803.17	5009.3	
803.34	3270.6	
803.52	2938.2	
803.69	5481	
803.87	4136.9	
804.04	3233.7	
804.21	3309.5	
804.39	5159.5	
804.56	4395.6	
804.74	2771.6	
804.91	3317.7	
805.09	4366.3	
805.26	4392.2	
805.44	2862.4	
805.61	3067.9	
805.78	4942.4	
805.96	4806.6	
806.13	3319.1	
806.31	3525.2	
806.48	3970.3	
806.66	4385.4	
806.83	3345	
807	3263.1	
807.18	4377.2	
807.35	4589.5	
807.53	3043.3	
807.7	2720.4	
807.87	5238.7	
808.05	4388.8	
808.22	3528.7	
808.4	2691	
808.57	4257.7	
808.74	4115.7	
808.92	3045.3	
809.09	3691.8	
809.27	4371.7	
809.44	4671.4	
809.61	2706.7	
809.79	2964.1	
809.96	5256.5	
810.14	4879.6	
810.31	2633	
810.48	3196.9	
810.66	4405.2	
810.83	4909	
811.01	3027.6	
811.18	3321.1	
811.35	4900.8	
811.53	3948.5	
811.7	3585.3	
811.87	3304.7	
812.05	4425	
812.22	4317.8	
812.39	2881.5	
812.57	2839.2	
812.74	4488.5	
812.92	5523.4	
813.09	3221.5	
813.26	3345	
813.44	5360.2	
813.61	4286.4	
813.78	2667.1	
813.96	3465.8	
814.13	4422.2	
814.3	4202.4	
814.48	3733.4	
814.65	3170.3	
814.82	5186.1	
815	4094.6	
815.17	3213.3	
815.34	3828.3	
815.52	4318.5	
815.69	4235.2	
815.87	3123.2	
816.04	3144.3	
816.21	4377.9	
816.38	4008.6	
816.56	3087.7	
816.73	2954.5	
816.9	5390.9	
817.08	4840.7	
817.25	2914.9	
817.42	3604.4	
817.6	4091.2	
817.77	4302.8	
817.94	3265.1	
818.12	2932	
818.29	4223.6	
818.46	5950	
818.64	3052.8	
818.81	2846.7	
818.98	4163.5	
819.16	5655.1	
819.33	3392.1	
819.5	3203.7	
819.67	4644.1	
819.85	5111	
820.02	3112.9	
820.19	3345	
820.37	4572.4	
820.54	4270	
820.71	3258.3	
820.88	3938.9	
821.06	4516.5	
821.23	4187.4	
821.4	3274.7	
821.58	3224.2	
821.75	4851	
821.92	4511.7	
822.09	2704	
822.27	2764.1	
822.44	4435.2	
822.61	4321.9	
822.79	2682.8	
822.96	4844.8	
823.13	4614.1	
823.3	4106.9	
823.48	3019.4	
823.65	2745.6	
823.82	4877.6	
823.99	4057.7	
824.17	3802.4	
824.34	2812.5	
824.51	5515.9	
824.68	4410	
824.86	2923.8	
825.03	3302	
825.2	4394.9	
825.37	5074.9	
825.55	2964.1	
825.72	3214.6	
825.89	5470.1	
826.06	5141.8	
826.24	3128.6	
826.41	3115.6	
826.58	5174.5	
826.75	4555.4	
826.92	2578.4	
827.1	2803	
827.27	6753.5	
827.44	5428.5	
827.61	2944.3	
827.79	3510.9	
827.96	4233.2	
828.13	4401.1	
828.3	3178.4	
828.47	2689.7	
828.65	4642.7	
828.82	4581.3	
828.99	3828.3	
829.16	3375.1	
829.34	4895.3	
829.51	4696	
829.68	3170.9	
829.85	3288.4	
830.02	5203.9	
830.2	4924.7	
830.37	2594.1	
830.54	3745.1	
830.71	5439.4	
830.88	4415.4	
831.05	2524.5	
831.23	2921.8	
831.4	5263.3	
831.57	5700.9	
831.74	3003	
831.91	2681.5	
832.09	4707.6	
832.26	4924	
832.43	2999.6	
832.6	3402.4	
832.77	4630.5	
832.94	5190.2	
833.12	2564.7	
833.29	3003	
833.46	4665.3	
833.63	5864.7	
833.8	3311.6	
833.97	3016	
834.15	4915.8	
834.32	4715.1	
834.49	3166.8	
834.66	3255.6	
834.83	4959.5	
835	4228.4	
835.17	2961.4	
835.35	2942.9	
835.52	4775.2	
835.69	4721.3	
835.86	3114.3	
836.03	2605	
836.2	4874.2	
836.37	4592.9	
836.55	2983.2	
836.72	2895.8	
836.89	4542.4	
837.06	4982.7	
837.23	3080.1	
837.4	3350.5	
837.57	5438	
837.75	5922	
837.92	2836.4	
838.09	2988.7	
838.26	4577.9	
838.43	5044.1	
838.6	3160.7	
838.77	2893.1	
838.94	5591.6	
839.11	5451	
839.29	3102	
839.46	2477.4	
839.63	4947.2	
839.8	4668	
839.97	2969.6	
840.14	2938.8	
840.31	4742.4	
840.48	4830.5	
840.65	2525.1	
840.82	2986.6	
841	4884.4	
841.17	4747.9	
841.34	2728.6	
841.51	2828.9	
841.68	4859.8	
841.85	4614.8	
842.02	2853.5	
842.19	2435.7	
842.36	4755.4	
842.53	4694.6	
842.7	2751.1	
842.87	3293.8	
843.05	5872.2	
843.22	4580.6	
843.39	2638.5	
843.56	2831	
843.73	4542.4	
843.9	4979.3	
844.07	4250.9	
844.24	3562.8	
844.41	6550.8	
844.58	4330.8	
844.75	2712.2	
844.92	2876.7	
845.09	4839.4	
845.26	4888.5	
845.43	2777.7	
845.6	2908.8	
845.77	4862.6	
845.94	4698.7	
846.12	3060.3	
846.29	3158.7	
846.46	5051.7	
846.63	4829.8	
846.8	2787.3	
846.97	3232.4	
847.14	5161.6	
847.31	4798.4	
847.48	3071.3	
847.65	3327.3	
847.82	5002.5	
847.99	4990.2	
848.16	3574.4	
848.33	3301.3	
848.5	4534.2	
848.67	5195	
848.84	2719.7	
849.01	2865.1	
849.18	4440	
849.35	4185.4	
849.52	3336.1	
849.69	2755.2	
849.86	5029.1	
850.03	5098.8	
850.2	2731.3	
850.37	3287	
850.54	5053	
850.71	4547.2	
850.88	3236.5	
851.05	2682.8	
851.22	4740.4	
851.39	5264	
851.56	2557.9	
851.73	3078.8	
851.9	4341	
852.07	4996.4	
852.24	3044	
852.41	2689	
852.58	4799.8	
852.75	4386.7	
852.92	3061.7	
853.09	2667.8	
853.26	4548.5	
853.43	5104.9	
853.6	2749.1	
853.77	2353.8	
853.94	5188.9	
854.11	4320.5	
854.28	3875.4	
854.44	2968.2	
854.61	5485.1	
854.78	5066.7	
854.95	2769.5	
855.12	3396.2	
855.29	4009.2	
855.46	5426.4	
855.63	2755.2	
855.8	3651.5	
855.97	4538.3	
856.14	5081.7	
856.31	3755.3	
856.48	2960.7	
856.65	4567	
856.82	4277.5	
856.99	2682.2	
857.16	2970.2	
857.33	5713.2	
857.49	4576.5	
857.66	2962	
857.83	3130.7	
858	4636.6	
858.17	4780.6	
858.34	2639.1	
858.51	2805	
858.68	5258.5	
858.85	5262.6	
859.02	3065.1	
859.19	3336.8	
859.36	4342.4	
859.52	4347.2	
859.69	2756.6	
859.86	3147.7	
860.03	4341.7	
860.2	5247.6	
860.37	2564.7	
860.54	2725.8	
860.71	4978.6	
860.88	5245.5	
861.05	3020.8	
861.21	3400.3	
861.38	5273.5	
861.55	4255.7	
861.72	2582.5	
861.89	3048.1	
862.06	5031.9	
862.23	5341.8	
862.4	2633	
862.56	2842.6	
862.73	4926	
862.9	4656.4	
863.07	3147	
863.24	2560.6	
863.41	4272.1	
863.58	4345.1	
863.75	2738.8	
863.91	3140.2	
864.08	5100.1	
864.25	4918.5	
864.42	3390.8	
864.59	3751.2	
864.76	5447.6	
864.93	4361.5	
865.09	2724.5	
865.26	2908.8	
865.43	5163.6	
865.6	5435.3	
865.77	2480.8	
865.94	2712.2	
866.1	5136.3	
866.27	4878.3	
866.44	3977.8	
866.61	2665.1	
866.78	4646.2	
866.95	4930.8	
867.11	2708.1	
867.28	2465.8	
867.45	5110.4	
867.62	4339	
867.79	3220.1	
867.96	2755.2	
868.12	4328	
868.29	4963.6	
868.46	2757.9	
868.63	3591.5	
868.8	5039.4	
868.97	4966.3	
869.13	2863.1	
869.3	2826.2	
869.47	4829.1	
869.64	5073.5	
869.81	2747.7	
869.97	2730.6	
870.14	4746.5	
870.31	5306.3	
870.48	2704.7	
870.65	3388	
870.81	4579.3	
870.98	4621.6	
871.15	3075.4	
871.32	2887.6	
871.48	4928.1	
871.65	5295.4	
871.82	2720.4	
871.99	3005.7	
872.16	5614.8	
872.32	5117.9	
872.49	2827.6	
872.66	2781.8	
872.83	5003.2	
872.99	4430.4	
873.16	3171.6	
873.33	2706	
873.5	4739.7	
873.67	4758.8	
873.83	2850.8	
874	3506.1	
874.17	4820.9	
874.34	5466.7	
874.5	3527.3	
874.67	3332	
874.84	5239.4	
875.01	4232.5	
875.17	3723.2	
875.34	2758.6	
875.51	4773.8	
875.68	5625.1	
875.84	3291.1	
876.01	3792.2	
876.18	4945.8	
876.34	4890.5	
876.51	2717	
876.68	2700.6	
876.85	4537.6	
877.01	5184.1	
877.18	3839.3	
877.35	2698.5	
877.52	4812	
877.68	4308.9	
877.85	2738.8	
878.02	2717	
878.18	4651.6	
878.35	4496	
878.52	2250.7	
878.69	3048.1	
878.85	5078.3	
879.02	4925.4	
879.19	3781.9	
879.35	2949.1	
879.52	4982.7	
879.69	5023	
879.86	2462.3	
880.02	3091.8	
880.19	4704.2	
880.36	5485.8	
880.52	3139.5	
880.69	3236.5	
880.86	5006.6	
881.02	5018.9	
881.19	3018	
881.36	2947.7	
881.52	4928.8	
881.69	4436.6	
881.86	2932	
882.02	2872.6	
882.19	5070.1	
882.36	5887.2	
882.52	2803	
882.69	3729.4	
882.86	4815.5	
883.02	4753.3	
883.19	3259.7	
883.36	3079.5	
883.52	5044.8	
883.69	5602.6	
883.86	2762	
884.02	2538.8	
884.19	4993.6	
884.36	4767	
884.52	3045.3	
884.69	2934.7	
884.86	4560.1	
885.02	5380.7	
885.19	3043.3	
885.36	3115.6	
885.52	4635.9	
885.69	4845.5	
885.86	3839.3	
886.02	3469.3	
886.19	5003.2	
886.35	4505.5	
886.52	3001.6	
886.69	3746.4	
886.85	4365.6	
887.02	5204.6	
887.19	5204.6	
887.35	5204.6	
887.52	5204.6	
887.68	5204.6	
887.85	5204.6	
888.02	5204.6	
888.18	5204.6	
888.35	5204.6	
888.51	5204.6	
888.68	5204.6	
888.85	5204.6	
889.01	5204.6	
889.18	5204.6	
889.35	5204.6	
889.51	5204.6	
889.68	5204.6	
889.84	5204.6	
890.01	5204.6	
890.17	5204.6	
890.34	5204.6	
890.51	5204.6	
890.67	5204.6	
890.84	5204.6	
891	5204.6	
891.17	5204.6	
891.34	5204.6	
891.5	5204.6	
891.67	5204.6	
891.83	5204.6	
892	5204.6	
892.16	5204.6	
892.33	5204.6	
892.5	5204.6	
892.66	5204.6	
892.83	5204.6	
892.99	5204.6	
893.16	5204.6	
893.32	5204.6	
893.49	5204.6	
893.65	5204.6	
893.82	5204.6	
893.99	5204.6	
894.15	5204.6	
894.32	5204.6	
894.48	5204.6	
894.65	5204.6	
894.81	5204.6	
894.98	5204.6	
895.14	5204.6	
895.31	5204.6	
895.47	5204.6	
895.64	5204.6	
895.81	5204.6	
895.97	5204.6	
896.14	5204.6	
896.3	5204.6	
896.47	5204.6	
896.63	5204.6	
896.8	5204.6	
896.96	5204.6	
897.13	5204.6	
897.29	5204.6	
897.46	5204.6	
897.62	5204.6	
897.79	5204.6	
897.95	5204.6	
898.12	5204.6	
898.28	5204.6	
898.45	5204.6	
898.61	5204.6	
898.78	5204.6	
898.94	5204.6	
899.11	5204.6	
899.27	5204.6	
899.44	5204.6	
899.6	5204.6	
899.77	5204.6	
899.93	5204.6	
900.1	5204.6	
900.26	5204.6	
900.43	5204.6	
900.59	5204.6	
900.76	5204.6	
900.92	5204.6	
901.09	5204.6	
901.25	5204.6	
901.42	5204.6	
901.58	5204.6	
901.75	5204.6	
901.91	5204.6	
902.07	5204.6	
902.24	5204.6	
902.4	5204.6	
902.57	5204.6	
902.73	5204.6	
902.9	5204.6	
903.06	5204.6	
903.23	5204.6	
903.39	5204.6	
903.56	5204.6	
903.72	5204.6	
903.88	5204.6	
904.05	5204.6	
904.21	5204.6	
904.38	5204.6	
904.54	5204.6	
904.71	5204.6	
904.87	5204.6	
905.03	5204.6	
905.2	5204.6	
905.36	5204.6	
905.53	5204.6	
905.69	5204.6	
905.86	5204.6	
906.02	5204.6	
906.18	5204.6	
906.35	5204.6	
906.51	5204.6	
906.68	5204.6	
906.84	5204.6	
907.01	5204.6	
907.17	5204.6	
907.33	5204.6	
907.5	5204.6	
907.66	5204.6	
907.83	5204.6	
907.99	5204.6	
908.15	5204.6	
908.32	5204.6	
908.48	5204.6	
908.65	5204.6	
908.81	5204.6	
908.97	5204.6	
909.14	5204.6	
909.3	5204.6	
909.47	5204.6	
909.63	5204.6	
909.79	5204.6	
909.96	5204.6	
910.12	5204.6	
910.28	5204.6	
910.45	5204.6	
910.61	5204.6	
910.78	5204.6	
910.94	5204.6	
911.1	5204.6	
911.27	5204.6	
911.43	5204.6	
911.59	5204.6	
911.76	5204.6	
911.92	5204.6	
912.08	5204.6	
912.25	5204.6	
912.41	5204.6	
912.57	5204.6	
912.74	5204.6	
912.9	5204.6	
913.07	5204.6	
913.23	5204.6	
913.39	5204.6	
913.56	5204.6	
913.72	5204.6	
913.88	5204.6	
914.05	5204.6	
914.21	5204.6	
914.37	5204.6	
914.54	5204.6	
914.7	5204.6	
914.86	5204.6	
915.03	5204.6	
915.19	5204.6	
