Wavelength	Intensities	
nm	a.u.	
179.22	1918.4	
179.44	1916.6	
179.65	1920.3	
179.86	1912.8	
180.08	1942.8	
180.29	5057.8	
180.51	3644	
180.72	5742.5	
180.94	6845.7	
181.15	3381.2	
181.37	3291.1	
181.58	5623	
181.79	5940.5	
182.01	3459	
182.22	3745.1	
182.44	5887.2	
182.65	4937	
182.87	4638	
183.08	4121.9	
183.29	6296.8	
183.51	5150.6	
183.72	3804.4	
183.94	5564.3	
184.15	5515.9	
184.37	5566.4	
184.58	3275.4	
184.79	4535.6	
185.01	5117.2	
185.22	5845.6	
185.44	4930.8	
185.65	4042.7	
185.86	5423.7	
186.08	4998.4	
186.29	3209.2	
186.51	3474.7	
186.72	5093.3	
186.94	6079.7	
187.15	4104.1	
187.36	4169	
187.58	8036.9	
187.79	5672.9	
188.01	4389.5	
188.22	6806.8	
188.43	6845.7	
188.65	5866.7	
188.86	3461.1	
189.08	4213.4	
189.29	5285.8	
189.5	5347.9	
189.72	3812.6	
189.93	3964.9	
190.15	6128.2	
190.36	7324.9	
190.57	4245.4	
190.79	4126.7	
191	6225.1	
191.22	6171.9	
191.43	4283.7	
191.64	3480.9	
191.86	6426.5	
192.07	6133	
192.29	3642.7	
192.5	3913.7	
192.71	6149.4	
192.93	5268.1	
193.14	3810.6	
193.35	3926	
193.57	5321.3	
193.78	6130.9	
194	3068.5	
194.21	3807.2	
194.42	5070.1	
194.64	5556.1	
194.85	4156	
195.07	4879.6	
195.28	5579.3	
195.49	4770.4	
195.71	5137.7	
195.92	3538.2	
196.13	5750.7	
196.35	5830.6	
196.56	5548.6	
196.78	4193.6	
196.99	7223.2	
197.2	6838.2	
197.42	4705.5	
197.63	4218.1	
197.84	4952	
198.06	5713.2	
198.27	3847.5	
198.48	5229.8	
198.7	5304.9	
198.91	5443.5	
199.13	4199.7	
199.34	4201.7	
199.55	5936.4	
199.77	4807.3	
199.98	3676.1	
200.19	4287.8	
200.41	5391.6	
200.62	5119.2	
200.83	4345.1	
201.05	4700.8	
201.26	5439.4	
201.47	5109.7	
201.69	3760.1	
201.9	3560.1	
202.11	5522.7	
202.33	6631.3	
202.54	3975.1	
202.76	4422.9	
202.97	5653.1	
203.18	5634.6	
203.4	4397.7	
203.61	4275.5	
203.82	5612.8	
204.04	5219.6	
204.25	4225	
204.46	4149.2	
204.68	5526.1	
204.89	5853.8	
205.1	4123.2	
205.32	3540.3	
205.53	6025.8	
205.74	6131.6	
205.96	3054.2	
206.17	4289.1	
206.38	5950.7	
206.6	6106.4	
206.81	4840.7	
207.02	3936.2	
207.24	5776	
207.45	6215.6	
207.66	3995.6	
207.88	3396.2	
208.09	5759.6	
208.3	5517.2	
208.52	3617.4	
208.73	4099.4	
208.94	5524.7	
209.15	6350.1	
209.37	4031.8	
209.58	4240.7	
209.79	6137.1	
210.01	5310.4	
210.22	3160	
210.43	3457.7	
210.65	5569.1	
210.86	6012.8	
211.07	4009.2	
211.29	3654.3	
211.5	5952.1	
211.71	5420.3	
211.93	3659	
212.14	3686.3	
212.35	5474.2	
212.56	5668.1	
212.78	4217.5	
212.99	3492.5	
213.2	6584.2	
213.42	5270.1	
213.63	3863.8	
213.84	4120.5	
214.06	4883.7	
214.27	4997	
214.48	3980.6	
214.69	4315.8	
214.91	6226.5	
215.12	6356.9	
215.33	4364.9	
215.55	4786.1	
215.76	6874.3	
215.97	5987.6	
216.18	4201.1	
216.4	4020.2	
216.61	5226.4	
216.82	6048.3	
217.04	3683.6	
217.25	3879.5	
217.46	6248.4	
217.67	5997.1	
217.89	3265.1	
218.1	3423.5	
218.31	5655.1	
218.53	5755.5	
218.74	3825.6	
218.95	3695.9	
219.16	5492.7	
219.38	6552.1	
219.59	3798.3	
219.8	4556	
220.01	7254.6	
220.23	5610.1	
220.44	4914.4	
220.65	3671.3	
220.87	5559.6	
221.08	6187.6	
221.29	3435.1	
221.5	4577.9	
221.72	7683.3	
221.93	5293.3	
222.14	4233.2	
222.35	5007.3	
222.57	5653.8	
222.78	5921.4	
222.99	4028.4	
223.2	4351.3	
223.42	5875.6	
223.63	6095.4	
223.84	3078.1	
224.05	3070.6	
224.27	7190.4	
224.48	6498.9	
224.69	4967	
224.9	4298	
225.12	5744.6	
225.33	5500.8	
225.54	3375.7	
225.75	3816	
225.97	5073.5	
226.18	5418.9	
226.39	4076.8	
226.6	3788.1	
226.82	5282.4	
227.03	5184.8	
227.24	4180.6	
227.45	3486.3	
227.67	5935	
227.88	6599.9	
228.09	4733.5	
228.3	4797	
228.52	5961	
228.73	5487.2	
228.94	3915	
229.15	3427.6	
229.36	5438	
229.58	5358.9	
229.79	3969.6	
230	4654.4	
230.21	6636.1	
230.43	5599.8	
230.64	4210.6	
230.85	4396.3	
231.06	6004	
231.28	6018.3	
231.49	3484.3	
231.7	4077.5	
231.91	5898.2	
232.12	5594.4	
232.34	3534.1	
232.55	4115.1	
232.76	6233.3	
232.97	5754.8	
233.18	3649.5	
233.4	4158.7	
233.61	5862	
233.82	5298.1	
234.03	3863.8	
234.25	3792.8	
234.46	7780.9	
234.67	5569.1	
234.88	4296.6	
235.09	3718.4	
235.31	5959.6	
235.52	5431.9	
235.73	4144.4	
235.94	3540.3	
236.15	5310.4	
236.37	6789.7	
236.58	3722.5	
236.79	4010.6	
237	5898.1	
237.21	5046.9	
237.43	4393.6	
237.64	3456.3	
237.85	10297	
238.06	5111.7	
238.27	4466.6	
238.48	3545.7	
238.7	5844.9	
238.91	5372.5	
239.12	4020.8	
239.33	4072.7	
239.54	5102.9	
239.76	5479.7	
239.97	3988.1	
240.18	4044.1	
240.39	6989	
240.6	5838.1	
240.82	4122.6	
241.03	3429	
241.24	5585.5	
241.45	6503	
241.66	3711.6	
241.87	4339	
242.09	6337.1	
242.3	6755.6	
242.51	4424.3	
242.72	4105.5	
242.93	5993	
243.14	5518.6	
243.36	4701.5	
243.57	5086.5	
243.78	6448.4	
243.99	5773.2	
244.2	4067.9	
244.41	3652.9	
244.63	5085.8	
244.84	5913.9	
245.05	4351.9	
245.26	4078.2	
245.47	5846.3	
245.68	6157.6	
245.9	5391.6	
246.11	4270.7	
246.32	5423	
246.53	5841.5	
246.74	6583.5	
246.95	3431.7	
247.16	5015.5	
247.38	5566.4	
247.59	3353.2	
247.8	4078.2	
248.01	5246.9	
248.22	5435.3	
248.43	3662.5	
248.64	3967.6	
248.86	4859.1	
249.07	5282.4	
249.28	3537.5	
249.49	4159.4	
249.7	6105.7	
249.91	6283.9	
250.12	3368.9	
250.34	3409.2	
250.55	5681.1	
250.76	5543.2	
250.97	4197.7	
251.18	4266.6	
251.39	6299.6	
251.6	5737	
251.81	4263.2	
252.03	4303.5	
252.24	5274.2	
252.45	6130.9	
252.66	3479.5	
252.87	4498	
253.08	5608.7	
253.29	7388.4	
253.5	3502	
253.72	4959.5	
253.93	5350	
254.14	6564.4	
254.35	3781.2	
254.56	3965.6	
254.77	5838.8	
254.98	5172.5	
255.19	3733.4	
255.41	4980	
255.62	5624.4	
255.83	6232	
256.04	4347.8	
256.25	4261.1	
256.46	6862.1	
256.67	5241.4	
256.88	4147.8	
257.09	4681	
257.31	5151.3	
257.52	5239.4	
257.73	5322	
257.94	3831.7	
258.15	5360.9	
258.36	5537.7	
258.57	4924	
258.78	3016.7	
258.99	6094.1	
259.2	5347.9	
259.41	3835.2	
259.63	3994.2	
259.84	6445	
260.05	6965.1	
260.26	5089.9	
260.47	3810.6	
260.68	6177.4	
260.89	5500.2	
261.1	4700.1	
261.31	3671.3	
261.52	6124.8	
261.73	6556.9	
261.95	4962.2	
262.16	4349.2	
262.37	6300.9	
262.58	6460	
262.79	5010.7	
263	3940.3	
263.21	5561.6	
263.42	5031.9	
263.63	3950.5	
263.84	3825.6	
264.05	6143.2	
264.26	6492.7	
264.47	4842.1	
264.69	4375.8	
264.9	6324.8	
265.11	5758.9	
265.32	3709.6	
265.53	3877.5	
265.74	5712.5	
265.95	4926.7	
266.16	4204.5	
266.37	4597	
266.58	5674.2	
266.79	5414.1	
267	3826.3	
267.21	3519.8	
267.42	5091.3	
267.63	5520.6	
267.84	4046.8	
268.06	3445.4	
268.27	6005.3	
268.48	6318.7	
268.69	3913.7	
268.9	4701.5	
269.11	6206	
269.32	5046.2	
269.53	4041.3	
269.74	3730.7	
269.95	5891.3	
270.16	4912.4	
270.37	4036.5	
270.58	4714.4	
270.79	5405.3	
271	6150.7	
271.21	4310.3	
271.42	4061.1	
271.63	5689.9	
271.84	5217.5	
272.05	3198.2	
272.26	3635.1	
272.47	5600.5	
272.68	5785.5	
272.89	3837.9	
273.11	4517.1	
273.32	5388.2	
273.53	6541.2	
273.74	4364.2	
273.95	4266.6	
274.16	6214.2	
274.37	5602.6	
274.58	4394.9	
274.79	3581.9	
275	5647.6	
275.21	6267.5	
275.42	5354.8	
275.63	4563.6	
275.84	5810.8	
276.05	7434.1	
276.26	4248.2	
276.47	4001.7	
276.68	5362.9	
276.89	6580.1	
277.1	4597	
277.31	3571	
277.52	5899.5	
277.73	5974.6	
277.94	3515.7	
278.15	3932.1	
278.36	5769.1	
278.57	5162.2	
278.78	3828.3	
278.99	4369	
279.2	5156.8	
279.41	5080.3	
279.62	5103.5	
279.83	3591.5	
280.04	6800.6	
280.25	5051.7	
280.46	5104.9	
280.67	4107.5	
280.88	5048.9	
281.09	6248.4	
281.3	4289.1	
281.51	5457.2	
281.72	5297.4	
281.93	6057.9	
282.14	3751.9	
282.35	4083.6	
282.56	6100.9	
282.77	6077.7	
282.98	3899.3	
283.19	4811.4	
283.4	7544.7	
283.61	5457.2	
283.82	3558.7	
284.03	5076.2	
284.24	5621.7	
284.45	6266.8	
284.66	5039.4	
284.87	4854.4	
285.08	6141.9	
285.29	6294.1	
285.5	3429.7	
285.71	3979.2	
285.92	6223.1	
286.12	6926.9	
286.33	4964.3	
286.54	3930.1	
286.75	6086.6	
286.96	5457.8	
287.17	3598.3	
287.38	4952	
287.59	5150	
287.8	5091.3	
288.01	3970.3	
288.22	4692.6	
288.43	6165.1	
288.64	5083.7	
288.85	4751.3	
289.06	4474.1	
289.27	6068.8	
289.48	6534.4	
289.69	5007.3	
289.9	4559.5	
290.11	6278.4	
290.32	5248.9	
290.53	4795	
290.74	4452.3	
290.94	6075.6	
291.15	6092	
291.36	3860.4	
291.57	4546.5	
291.78	5288.5	
291.99	4959.5	
292.2	3658.4	
292.41	4435.9	
292.62	6199.9	
292.83	5928.2	
293.04	5504.3	
293.25	3673.4	
293.46	5302.9	
293.67	6176	
293.88	3777.8	
294.09	3670.6	
294.29	5089.9	
294.5	5729.5	
294.71	4095.9	
294.92	3902.1	
295.13	5330.2	
295.34	6722.1	
295.55	3371.6	
295.76	3674.7	
295.97	6014.2	
296.18	6810.9	
296.39	3588.7	
296.6	3829	
296.81	5689.9	
297.01	6100.2	
297.22	3941.7	
297.43	3801.7	
297.64	5221	
297.85	5188.9	
298.06	3140.2	
298.27	3351.8	
298.48	5582.8	
298.69	5278.3	
298.9	4114.4	
299.11	3751.2	
299.31	5027.1	
299.52	5074.9	
299.73	4435.9	
299.94	4306.9	
300.15	5584.1	
300.36	5114.5	
300.57	4298.7	
300.78	4322.6	
300.99	5498.1	
301.2	5706.3	
301.4	3813.3	
301.61	4085	
301.82	5902.9	
302.03	6014.9	
302.24	4695.3	
302.45	3644	
302.66	5952.8	
302.87	6388.3	
303.08	3742.3	
303.29	5265.3	
303.49	5244.8	
303.7	5594.4	
303.91	3356.6	
304.12	4932.2	
304.33	5038	
304.54	5782.1	
304.75	3848.1	
304.96	3633.8	
305.16	5973.2	
305.37	6692.8	
305.58	3320.4	
305.79	3420.8	
306	5900.9	
306.21	4934.9	
306.42	3734.8	
306.63	5883.1	
306.83	5424.4	
307.04	6222.4	
307.25	4197.7	
307.46	4201.1	
307.67	4735.6	
307.88	6092.7	
308.09	3681.6	
308.29	3875.4	
308.5	5677	
308.71	6171.9	
308.92	4142.4	
309.13	3680.9	
309.34	5395	
309.55	5470.8	
309.75	4718.5	
309.96	4306.9	
310.17	6017.6	
310.38	5319.9	
310.59	4645.5	
310.8	4272.1	
311.01	5431.2	
311.21	5468.1	
311.42	3616	
311.63	3705.5	
311.84	5337.7	
312.05	5756.8	
312.26	4216.8	
312.46	4636.6	
312.67	5393	
312.88	5089.2	
313.09	3705.5	
313.3	3515	
313.51	6455.2	
313.71	6849.1	
313.92	3672	
314.13	3911.6	
314.34	5800.5	
314.55	5429.8	
314.76	4751.3	
314.96	4080.2	
315.17	5651.7	
315.38	6036	
315.59	3676.1	
315.8	3497.9	
316.01	6548.7	
316.21	6524.1	
316.42	3515.7	
316.63	4055	
316.84	5438.7	
317.05	6395.1	
317.26	4343.7	
317.46	3915	
317.67	5539.8	
317.88	6016.2	
318.09	4716.5	
318.3	3404.4	
318.5	5279	
318.71	5954.1	
318.92	6049.7	
319.13	4309.6	
319.34	6087.9	
319.54	6256.5	
319.75	3396.9	
319.96	3251.5	
320.17	6010.8	
320.38	6169.8	
320.58	3280.2	
320.79	4015.4	
321	6226.5	
321.21	6262.7	
321.42	4080.9	
321.62	3360	
321.83	5152.7	
322.04	5597.8	
322.25	3846.1	
322.46	3676.1	
322.66	5696.8	
322.87	5852.4	
323.08	4574.5	
323.29	3628.3	
323.5	6706.4	
323.7	5145.2	
323.91	5074.2	
324.12	4528.1	
324.33	5681.1	
324.53	5919.3	
324.74	4361.5	
324.95	4584	
325.16	4913.8	
325.37	5372.5	
325.57	3706.1	
325.78	3722.5	
325.99	5650.3	
326.2	5072.1	
326.4	5433.3	
326.61	3352.5	
326.82	5505.6	
327.03	5688.6	
327.24	5225.1	
327.44	5035.3	
327.65	5803.9	
327.86	4717.8	
328.07	4362.2	
328.27	3548.4	
328.48	6303	
328.69	5173.9	
328.9	5339.1	
329.1	3965.6	
329.31	5451	
329.52	6464.8	
329.73	3675.4	
329.93	4159.4	
330.14	5571.8	
330.35	5873.6	
330.56	6064.7	
330.76	4548.5	
330.97	5371.8	
331.18	5796.4	
331.39	4105.5	
331.59	3273.3	
331.8	6231.3	
332.01	6444.3	
332.22	3779.9	
332.42	4320.5	
332.63	5767.1	
332.84	5322.7	
333.05	4128	
333.25	3758.7	
333.46	5365.7	
333.67	5631.2	
333.88	3755.3	
334.08	4287.8	
334.29	7504.4	
334.5	6343.2	
334.7	3535.5	
334.91	5258.5	
335.12	5116.5	
335.33	6051.7	
335.53	4025.6	
335.74	6154.1	
335.95	5350.7	
336.16	5193	
336.36	4151.2	
336.57	4780	
336.78	5089.2	
336.98	6238.1	
337.19	5055.1	
337.4	4052.2	
337.61	6705.7	
337.81	5081.7	
338.02	3697.3	
338.23	4909.7	
338.43	6382.8	
338.64	5233.9	
338.85	3705.5	
339.05	4893.3	
339.26	6455.2	
339.47	4926.7	
339.68	3740.3	
339.88	5498.8	
340.09	5846.3	
340.3	6075	
340.5	4277.5	
340.71	3338.9	
340.92	4978.6	
341.13	6392.4	
341.33	3547.1	
341.54	4346.5	
341.75	5856.5	
341.95	5440.1	
342.16	4161.5	
342.37	4524.6	
342.57	5143.1	
342.78	5525.4	
342.99	4564.9	
343.19	3257.6	
343.4	6002.6	
343.61	5832.6	
343.81	4009.9	
344.02	3704.1	
344.23	6032.6	
344.43	6450.4	
344.64	4620.9	
344.85	4485.1	
345.06	5864.7	
345.26	6208.8	
345.47	4284.4	
345.68	5041.4	
345.88	4928.1	
346.09	6066.8	
346.3	4398.4	
346.5	3275.4	
346.71	5572.5	
346.92	5249.6	
347.12	3373.7	
347.33	4292.5	
347.54	6170.5	
347.74	6649.8	
347.95	4237.2	
348.16	3145.7	
348.36	5392.3	
348.57	5188.2	
348.78	4229.7	
348.98	4619.5	
349.19	5586.9	
349.39	5062.6	
349.6	3396.2	
349.81	3818.8	
350.01	5833.3	
350.22	5338.4	
350.43	4133.5	
350.63	4990.9	
350.84	5685.2	
351.05	5454.4	
351.25	3730	
351.46	3366.2	
351.67	6229.2	
351.87	5255.1	
352.08	3977.8	
352.29	4553.3	
352.49	6089.3	
352.7	5728.9	
352.9	3652.9	
353.11	4560.8	
353.32	6806.1	
353.52	5421	
353.73	3539.6	
353.94	4613.4	
354.14	5934.3	
354.35	5808	
354.55	3706.8	
354.76	4133.5	
354.97	5888.6	
355.17	5651	
355.38	3503.4	
355.59	4922	
355.79	5312.4	
356	5754.8	
356.2	4137.6	
356.41	3563.5	
356.62	4995	
356.82	5543.2	
357.03	4358.8	
357.24	3945.8	
357.44	5366.4	
357.65	5472.2	
357.85	5409.4	
358.06	4177.2	
358.27	5096.7	
358.47	5258.5	
358.68	3486.3	
358.88	4403.8	
359.09	5943.2	
359.3	6335	
359.5	5139.7	
359.71	4534.2	
359.91	6767.9	
360.12	6163.7	
360.33	4431.8	
360.53	4915.1	
360.74	5388.9	
360.94	5440.1	
361.15	4673.5	
361.36	3872.7	
361.56	6234	
361.77	5636	
361.97	5208.7	
362.18	4034.5	
362.38	6219	
362.59	5232.6	
362.8	3755.3	
363	3583.9	
363.21	5039.4	
363.41	5729.5	
363.62	4313.7	
363.83	5462.6	
364.03	5808	
364.24	6866.8	
364.44	5536.3	
364.65	5444.2	
364.85	5570.5	
365.06	5192.3	
365.27	4008.6	
365.47	4072.7	
365.68	6646.3	
365.88	5532.9	
366.09	4390.8	
366.29	4104.1	
366.5	5875.6	
366.71	6358.9	
366.91	5475.6	
367.12	4573.8	
367.32	6984.3	
367.53	6159.6	
367.73	4536.9	
367.94	5604.6	
368.14	6105.7	
368.35	7044.3	
368.56	4515.1	
368.76	3889.1	
368.97	6247.7	
369.17	8082.6	
369.38	3984	
369.58	4269.3	
369.79	5255.1	
369.99	6642.9	
370.2	5340.4	
370.4	4439.3	
370.61	5920	
370.82	7215	
371.02	4305.5	
371.23	3575.1	
371.43	5126.7	
371.64	6591.7	
371.84	4388.8	
372.05	5748	
372.25	7981.6	
372.46	6360.3	
372.66	4373.1	
372.87	4276.8	
373.07	6394.4	
373.28	8088.1	
373.48	5526.1	
373.69	5124.7	
373.9	5765.7	
374.1	5892.7	
374.31	5410.7	
374.51	4973.8	
374.72	6765.1	
374.92	5548.6	
375.13	5640.8	
375.33	4784.1	
375.54	6370.5	
375.74	5735.7	
375.95	4866	
376.15	6194.4	
376.36	6373.3	
376.56	6118	
376.77	4936.3	
376.97	5447.6	
377.18	7520.8	
377.38	6497.5	
377.59	5874.3	
377.79	4384	
378	6289.3	
378.2	6720.1	
378.41	4491.2	
378.61	4422.9	
378.82	6750.1	
379.02	5839.4	
379.23	4702.8	
379.43	5911.1	
379.64	6803.4	
379.84	6466.1	
380.05	4443.4	
380.25	4439.3	
380.46	6629.3	
380.66	6120.7	
380.87	5863.3	
381.07	6306.4	
381.28	7285.3	
381.48	6614.3	
381.69	4571.1	
381.89	4543.8	
382.1	5397.1	
382.3	6813.6	
382.51	5757.5	
382.71	6657.9	
382.91	6555.5	
383.12	7185.6	
383.32	4903.5	
383.53	5102.2	
383.73	6342.6	
383.94	6212.2	
384.14	5033.2	
384.35	4033.1	
384.55	6004	
384.76	6530.3	
384.96	4844.1	
385.17	5226.4	
385.37	6462.7	
385.58	5791.7	
385.78	5267.4	
385.98	3985.3	
386.19	5965.1	
386.39	6385.6	
386.6	4652.3	
386.8	4929.5	
387.01	6579.4	
387.21	6517.3	
387.42	5343.2	
387.62	5928.9	
387.83	5803.9	
388.03	6660	
388.23	4950.6	
388.44	5901.6	
388.64	5470.8	
388.85	5679	
389.05	5395	
389.26	6098.9	
389.46	7397.3	
389.67	7134.4	
389.87	5356.8	
390.07	5504.9	
390.28	6336.4	
390.48	5762.3	
390.69	4613.4	
390.89	4960.2	
391.1	5984.8	
391.3	6980.8	
391.5	6244.9	
391.71	6854.6	
391.91	6688.7	
392.12	7823.2	
392.32	6294.8	
392.53	5454.4	
392.73	6041.5	
392.93	6308.4	
393.14	5037.3	
393.34	5851.7	
393.55	6800.6	
393.75	6175.3	
393.95	5010.7	
394.16	4967	
394.36	5973.9	
394.57	6737.1	
394.77	4515.1	
394.98	4999.1	
395.18	5969.1	
395.38	6158.2	
395.59	6074.3	
395.79	4836.6	
396	6176	
396.2	6689.3	
396.4	5715.9	
396.61	5634	
396.81	6993.1	
397.02	6139.8	
397.22	6096.1	
397.42	6091.3	
397.63	6997.9	
397.83	6137.8	
398.04	4788.8	
398.24	5519.3	
398.44	6666.1	
398.65	5717.9	
398.85	4711.7	
399.05	4884.4	
399.26	6167.8	
399.46	8007.6	
399.67	5322	
399.87	5012.7	
400.07	6524.1	
400.28	6926.9	
400.48	5088.5	
400.69	6278.4	
400.89	7756.3	
401.09	7618.4	
401.3	5019.6	
401.5	6320	
401.7	7989.1	
401.91	8240.3	
402.11	5431.9	
402.32	5684.5	
402.52	7177.4	
402.72	7049.8	
402.93	5827.2	
403.13	4521.9	
403.33	7886.7	
403.54	6486.6	
403.74	5419.6	
403.94	6367.1	
404.15	6604.7	
404.35	7929.7	
404.56	5251.7	
404.76	7223.2	
404.96	7102.4	
405.17	6893.5	
405.37	6599.2	
405.57	5737	
405.78	7285.3	
405.98	6509.8	
406.18	6017.6	
406.39	6294.1	
406.59	7073	
406.79	6828.6	
407	5076.9	
407.2	5190.9	
407.4	7217.7	
407.61	7502.4	
407.81	5301.5	
408.01	7634.8	
408.22	6199.2	
408.42	8436.3	
408.62	6624.5	
408.83	6030.6	
409.03	7019.8	
409.23	6752.2	
409.44	6107	
409.64	6468.2	
409.84	8176.2	
410.05	8012.3	
410.25	6397.9	
410.45	6177.4	
410.66	7570	
410.86	10138	
411.06	6710.5	
411.27	6561.7	
411.47	9996.1	
411.67	7845.8	
411.88	6794.5	
412.08	7200.7	
412.28	8504.5	
412.49	9136.7	
412.69	6705.7	
412.89	6686.6	
413.09	8898.4	
413.3	8758.5	
413.5	6830.7	
413.7	6437.4	
413.91	7985	
414.11	8929.8	
414.31	6651.1	
414.52	7079.1	
414.72	8570.7	
414.92	8533.9	
415.12	6676.4	
415.33	7271.7	
415.53	8897.1	
415.73	9121.7	
415.94	7653.3	
416.14	7130.3	
416.34	7952.3	
416.55	7569.3	
416.75	8316.1	
416.95	7747.5	
417.15	9037.7	
417.36	9699.2	
417.56	8668.4	
417.76	7563.8	
417.97	9497.1	
418.17	9149.6	
418.37	7082.6	
418.57	7307.8	
418.78	8810.4	
418.98	8511.4	
419.18	8164.6	
419.38	8062.9	
419.59	8471.1	
419.79	8041.7	
419.99	7099.6	
420.2	7534.5	
420.4	9100.5	
420.6	9220.6	
420.8	7005.4	
421.01	6843.6	
421.21	8914.8	
421.41	9158.5	
421.61	7436.2	
421.82	7087.3	
422.02	8346.2	
422.22	9342.8	
422.42	8034.9	
422.63	7370.6	
422.83	8543.4	
423.03	9809.8	
423.23	7529	
423.44	6467.5	
423.64	8491.6	
423.84	8212.4	
424.04	6926.9	
424.25	6557.6	
424.45	9501.2	
424.65	9388.6	
424.85	6312.5	
425.06	6869.6	
425.26	9398.8	
425.46	7902.4	
425.66	7453.9	
425.87	7096.9	
426.07	9075.9	
426.27	8946.9	
426.47	7317.4	
426.67	6488	
426.88	9487.6	
427.08	8889.5	
427.28	7532.4	
427.48	6507.1	
427.69	7567.9	
427.89	8473.1	
428.09	7448.5	
428.29	6496.8	
428.5	9120.3	
428.7	8643.1	
428.9	6476.4	
429.1	7118.1	
429.3	8634.9	
429.51	9219.3	
429.71	6754.2	
429.91	7718.8	
430.11	8904.6	
430.31	9204.3	
430.52	7130.3	
430.72	7519.5	
430.92	9600.2	
431.12	9002.9	
431.32	6845	
431.53	7275.1	
431.73	7810.3	
431.93	9762.7	
432.13	6791.7	
432.33	6610.2	
432.54	8361.9	
432.74	8880	
432.94	6601.3	
433.14	7755	
433.34	8957.1	
433.55	8487.5	
433.75	7817.8	
433.95	9644.6	
434.15	8759.8	
434.35	8543.4	
434.56	6838.2	
434.76	6417	
434.96	8791.2	
435.16	9032.9	
435.36	6774.7	
435.56	8030.8	
435.77	8492.2	
435.97	8660.9	
436.17	8856.1	
436.37	7972.7	
436.57	8478.6	
436.78	8441	
436.98	8282	
437.18	8590.5	
437.38	9254.1	
437.58	8722.3	
437.78	8772.1	
437.99	7187	
438.19	9127.1	
438.39	10017	
438.59	7139.2	
438.79	6506.4	
438.99	9856.9	
439.2	8604.9	
439.4	6698.9	
439.6	6739.2	
439.8	9028.8	
440	10256	
440.2	7893.6	
440.4	8118.8	
440.61	9559.9	
440.81	10025	
441.01	7159.7	
441.21	8205.5	
441.41	10062	
441.61	9624.1	
441.81	8449.2	
442.02	9602.9	
442.22	10641	
442.42	9682.8	
442.62	7305.8	
442.82	7309.9	
443.02	10099	
443.22	9155.1	
443.43	7842.4	
443.63	7342.7	
443.83	8899.1	
444.03	8938.7	
444.23	8828.8	
444.43	8248.5	
444.63	9327.8	
444.83	10600	
445.04	7466.2	
445.24	8815.1	
445.44	9657.5	
445.64	9879.4	
445.84	8219.2	
446.04	8274.5	
446.24	8890.9	
446.44	10086	
446.65	7324.2	
446.85	7854.6	
447.05	9146.9	
447.25	9960	
447.45	7887.4	
447.65	7210.9	
447.85	9212.4	
448.05	8798.8	
448.25	8309.3	
448.46	8103.8	
448.66	9370.1	
448.86	8942.8	
449.06	6974.7	
449.26	8353	
449.46	9755.8	
449.66	8680.7	
449.86	7841	
450.06	7899.7	
450.26	8805.6	
450.47	9486.2	
450.67	8036.9	
450.87	8463.6	
451.07	9574.3	
451.27	9387.2	
451.47	7269.6	
451.67	8047.8	
451.87	9133.3	
452.07	10283	
452.27	7645.8	
452.47	7572.7	
452.67	9376.3	
452.88	9876	
453.08	6868.9	
453.28	9189.2	
453.48	10698	
453.68	9280	
453.88	7567.9	
454.08	7821.9	
454.28	9694.4	
454.48	9439.1	
454.68	8417.8	
454.88	8971.5	
455.08	9818.6	
455.28	9750.4	
455.48	7370	
455.68	8127	
455.89	10513	
456.09	10159	
456.29	7911.3	
456.49	8086.7	
456.69	10427	
456.89	9538.1	
457.09	8576.2	
457.29	8967.4	
457.49	9972.9	
457.69	10221	
457.89	8413.1	
458.09	7795.3	
458.29	9812.5	
458.49	10623	
458.69	8972.8	
458.89	8422.6	
459.09	10914	
459.29	11086	
459.49	8498.4	
459.69	9372.2	
459.9	10385	
460.1	10019	
460.3	8195.3	
460.5	8107.2	
460.7	10441	
460.9	10114	
461.1	7735.9	
461.3	9187.2	
461.5	11230	
461.7	10796	
461.9	8392.6	
462.1	8802.2	
462.3	10281	
462.5	10929	
462.7	8474.5	
462.9	8580.3	
463.1	12107	
463.3	11808	
463.5	8728.4	
463.7	10039	
463.9	10581	
464.1	11024	
464.3	9047.9	
464.5	9390.6	
464.7	11335	
464.9	11136	
465.1	10922	
465.3	9764.7	
465.5	11706	
465.7	11785	
465.9	10148	
466.1	9912.2	
466.3	11701	
466.5	11262	
466.7	11009	
466.9	9582.4	
467.1	11375	
467.3	12378	
467.5	10895	
467.7	9667.1	
467.9	12687	
468.1	13682	
468.3	10486	
468.5	11034	
468.7	11499	
468.9	11363	
469.1	10047	
469.3	10860	
469.5	13551	
469.7	11040	
469.9	10457	
470.1	9823.4	
470.3	11460	
470.5	11489	
470.7	11213	
470.9	9894.4	
471.1	11314	
471.3	11614	
471.5	9586.5	
471.69	11745	
471.89	10959	
472.09	10532	
472.29	10512	
472.49	10769	
472.69	10824	
472.89	11749	
473.09	9570.2	
473.29	9605	
473.49	10933	
473.69	11174	
473.89	10589	
474.09	9684.2	
474.29	12452	
474.49	12060	
474.69	10594	
474.89	9833	
475.09	11048	
475.29	10969	
475.49	9202.9	
475.69	9522.4	
475.88	12583	
476.08	11368	
476.28	9176.3	
476.48	9604.3	
476.68	11854	
476.88	11645	
477.08	9422.7	
477.28	9720.3	
477.48	10940	
477.68	11772	
477.88	9215.2	
478.08	9592	
478.28	12165	
478.48	11207	
478.67	9576.3	
478.87	9032.2	
479.07	11847	
479.27	11265	
479.47	9867.1	
479.67	9847.3	
479.87	11682	
480.07	12275	
480.27	9071.8	
480.47	10809	
480.67	11320	
480.87	12074	
481.06	9340.8	
481.26	10214	
481.46	11320	
481.66	11116	
481.86	9885.5	
482.06	10996	
482.26	10952	
482.46	12094	
482.66	9798.2	
482.86	9383.1	
483.05	11383	
483.25	10702	
483.45	12450	
483.65	9827.5	
483.85	10858	
484.05	11282	
484.25	10326	
484.45	10973	
484.65	12235	
484.84	12290	
485.04	9776.3	
485.24	9831.6	
485.44	12569	
485.64	10813	
485.84	9016.5	
486.04	10632	
486.24	11060	
486.44	11594	
486.63	9115.5	
486.83	10062	
487.03	11237	
487.23	11582	
487.43	9232.2	
487.63	11783	
487.83	11339	
488.02	12458	
488.22	10423	
488.42	11117	
488.62	12439	
488.82	11258	
489.02	9938.8	
489.22	10127	
489.41	12206	
489.61	11961	
489.81	9796.8	
490.01	9775.6	
490.21	12190	
490.41	12892	
490.61	9539.4	
490.8	9815.9	
491	11699	
491.2	10838	
491.4	10443	
491.6	9465	
491.8	11538	
491.99	11778	
492.19	9362.6	
492.39	9742.2	
492.59	12119	
492.79	12252	
492.99	10677	
493.18	9759.3	
493.38	12362	
493.58	13296	
493.78	10615	
493.98	10307	
494.18	12208	
494.37	11632	
494.57	11039	
494.77	10947	
494.97	12631	
495.17	12975	
495.37	10505	
495.56	10814	
495.76	13203	
495.96	12770	
496.16	11915	
496.36	10785	
496.55	13081	
496.75	12524	
496.95	11256	
497.15	11120	
497.35	12880	
497.54	12940	
497.74	10862	
497.94	12811	
498.14	13762	
498.34	13571	
498.53	10629	
498.73	11393	
498.93	12534	
499.13	13127	
499.33	11376	
499.52	11852	
499.72	13006	
499.92	13286	
500.12	10956	
500.32	11215	
500.51	13453	
500.71	13220	
500.91	12009	
501.11	11766	
501.31	13222	
501.5	13693	
501.7	12496	
501.9	11404	
502.1	13005	
502.29	13427	
502.49	11845	
502.69	12248	
502.89	13182	
503.09	13289	
503.28	10601	
503.48	10708	
503.68	12183	
503.88	12321	
504.07	11818	
504.27	11275	
504.47	12738	
504.67	12781	
504.86	11744	
505.06	11344	
505.26	12276	
505.46	14377	
505.65	11069	
505.85	11361	
506.05	12138	
506.25	12628	
506.44	10291	
506.64	11320	
506.84	11991	
507.04	13067	
507.23	10501	
507.43	11088	
507.63	14141	
507.83	12246	
508.02	11007	
508.22	10626	
508.42	14345	
508.62	12013	
508.81	10901	
509.01	11643	
509.21	11802	
509.4	12141	
509.6	11107	
509.8	10487	
510	12108	
510.19	13706	
510.39	10575	
510.59	10481	
510.79	11868	
510.98	13460	
511.18	10531	
511.38	10649	
511.57	12809	
511.77	12742	
511.97	11382	
512.17	10413	
512.36	12780	
512.56	12757	
512.76	10346	
512.95	10202	
513.15	12850	
513.35	11365	
513.55	11295	
513.74	10310	
513.94	12811	
514.14	12045	
514.33	11462	
514.53	11299	
514.73	11925	
514.92	12342	
515.12	10644	
515.32	10452	
515.51	12431	
515.71	13099	
515.91	12176	
516.11	10485	
516.3	14279	
516.5	12011	
516.7	11144	
516.89	11815	
517.09	12091	
517.29	11993	
517.48	11527	
517.68	10795	
517.88	11764	
518.07	12529	
518.27	11381	
518.47	10271	
518.66	13189	
518.86	11660	
519.06	10065	
519.25	10466	
519.45	11915	
519.65	13693	
519.84	11383	
520.04	12181	
520.24	13980	
520.43	12598	
520.63	10898	
520.83	10632	
521.02	11680	
521.22	12520	
521.42	11047	
521.61	11773	
521.81	12114	
522.01	12213	
522.2	11028	
522.4	10774	
522.6	12813	
522.79	11537	
522.99	10932	
523.18	10271	
523.38	12504	
523.58	12633	
523.77	12450	
523.97	10316	
524.17	14678	
524.36	13764	
524.56	11822	
524.76	11535	
524.95	12798	
525.15	12364	
525.34	11389	
525.54	11385	
525.74	13151	
525.93	12159	
526.13	12631	
526.33	11346	
526.52	13605	
526.72	13053	
526.91	12766	
527.11	11994	
527.31	13851	
527.5	14179	
527.7	11931	
527.89	10834	
528.09	12590	
528.29	13278	
528.48	12341	
528.68	11871	
528.87	13671	
529.07	13664	
529.27	11875	
529.46	11327	
529.66	13179	
529.85	13691	
530.05	11119	
530.25	11992	
530.44	14805	
530.64	13183	
530.83	11629	
531.03	12022	
531.23	13619	
531.42	13470	
531.62	12677	
531.81	11875	
532.01	13768	
532.21	14472	
532.4	11725	
532.6	12258	
532.79	14926	
532.99	14160	
533.18	12192	
533.38	13267	
533.58	13663	
533.77	14444	
533.97	12295	
534.16	13194	
534.36	14801	
534.55	13753	
534.75	13219	
534.95	12244	
535.14	14676	
535.34	13669	
535.53	11895	
535.73	14132	
535.92	15189	
536.12	13784	
536.31	12066	
536.51	13291	
536.71	14092	
536.9	13638	
537.1	12148	
537.29	12342	
537.49	14552	
537.68	13444	
537.88	12735	
538.07	11757	
538.27	13811	
538.46	14885	
538.66	11789	
538.86	12192	
539.05	13895	
539.25	14407	
539.44	12593	
539.64	12182	
539.83	13701	
540.03	14830	
540.22	12130	
540.42	12081	
540.61	13915	
540.81	14025	
541	12462	
541.2	13308	
541.39	13318	
541.59	13712	
541.78	12860	
541.98	11979	
542.18	12938	
542.37	12921	
542.57	12152	
542.76	12818	
542.96	12992	
543.15	13731	
543.35	12116	
543.54	11416	
543.74	13931	
543.93	13527	
544.13	11971	
544.32	13225	
544.52	13737	
544.71	12992	
544.91	11112	
545.1	12414	
545.3	12964	
545.49	13734	
545.69	11041	
545.88	11603	
546.08	14613	
546.27	14244	
546.47	12204	
546.66	11402	
546.86	13842	
547.05	14515	
547.24	11570	
547.44	11428	
547.63	12700	
547.83	13989	
548.02	11867	
548.22	12074	
548.41	12551	
548.61	13839	
548.8	11324	
549	11195	
549.19	13027	
549.39	13508	
549.58	10929	
549.78	11595	
549.97	13509	
550.17	12833	
550.36	12427	
550.55	13579	
550.75	12835	
550.94	13833	
551.14	11136	
551.33	11425	
551.53	12171	
551.72	13237	
551.92	11467	
552.11	11161	
552.31	13246	
552.5	13357	
552.69	13026	
552.89	10896	
553.08	13193	
553.28	12867	
553.47	11254	
553.67	12461	
553.86	13744	
554.06	12036	
554.25	10258	
554.44	11022	
554.64	14550	
554.83	14093	
555.03	10893	
555.22	11292	
555.42	13257	
555.61	13016	
555.8	10981	
556	11301	
556.19	12000	
556.39	13325	
556.58	11179	
556.78	11051	
556.97	12809	
557.16	12607	
557.36	12511	
557.55	10645	
557.75	11699	
557.94	13502	
558.13	10781	
558.33	10586	
558.52	13278	
558.72	12243	
558.91	10616	
559.1	10864	
559.3	11792	
559.49	11484	
559.69	10186	
559.88	11285	
560.07	12672	
560.27	13162	
560.46	11431	
560.66	11476	
560.85	12444	
561.04	11510	
561.24	10440	
561.43	10674	
561.63	11804	
561.82	12108	
562.01	12015	
562.21	11086	
562.4	12639	
562.59	13708	
562.79	10934	
562.98	10444	
563.18	12540	
563.37	14131	
563.56	11568	
563.76	10365	
563.95	11950	
564.14	11866	
564.34	10870	
564.53	10596	
564.73	12540	
564.92	12938	
565.11	11084	
565.31	10338	
565.5	13164	
565.69	12039	
565.89	10656	
566.08	10964	
566.27	13063	
566.47	13466	
566.66	11561	
566.85	10284	
567.05	12611	
567.24	12003	
567.44	10525	
567.63	12015	
567.82	12843	
568.02	12585	
568.21	10593	
568.4	11039	
568.6	12494	
568.79	12443	
568.98	10426	
569.18	10655	
569.37	12483	
569.56	14684	
569.76	11070	
569.95	12102	
570.14	12876	
570.34	12867	
570.53	10502	
570.72	10325	
570.91	13307	
571.11	12392	
571.3	10914	
571.49	11941	
571.69	12434	
571.88	11854	
572.07	11635	
572.27	11503	
572.46	11971	
572.65	13130	
572.85	10790	
573.04	11089	
573.23	13336	
573.43	12637	
573.62	10451	
573.81	11153	
574	12690	
574.2	12392	
574.39	10892	
574.58	11249	
574.78	13599	
574.97	12859	
575.16	11498	
575.36	11733	
575.55	13290	
575.74	13465	
575.93	10521	
576.13	11961	
576.32	12512	
576.51	13186	
576.71	11043	
576.9	12507	
577.09	13520	
577.28	13054	
577.48	11499	
577.67	10533	
577.86	12678	
578.05	13012	
578.25	11162	
578.44	11298	
578.63	12849	
578.83	14119	
579.02	10574	
579.21	12312	
579.4	12973	
579.6	12667	
579.79	11505	
579.98	13934	
580.17	13476	
580.37	13487	
580.56	10799	
580.75	11687	
580.94	14058	
581.14	13875	
581.33	12240	
581.52	10980	
581.71	13235	
581.91	13846	
582.1	10633	
582.29	11269	
582.48	12892	
582.68	12809	
582.87	11932	
583.06	11531	
583.25	13232	
583.45	12541	
583.64	12321	
583.83	12928	
584.02	12620	
584.21	13174	
584.41	12206	
584.6	11396	
584.79	12893	
584.98	13796	
585.18	10700	
585.37	10750	
585.56	12317	
585.75	13191	
585.94	10958	
586.14	11821	
586.33	13796	
586.52	12796	
586.71	11437	
586.91	11139	
587.1	12099	
587.29	13122	
587.48	10929	
587.67	10863	
587.87	13000	
588.06	13063	
588.25	12327	
588.44	11552	
588.63	12485	
588.83	13138	
589.02	10867	
589.21	10746	
589.4	12120	
589.59	11945	
589.78	9622.7	
589.98	9987.3	
590.17	11342	
590.36	11961	
590.55	9113.5	
590.74	9950.4	
590.94	13286	
591.13	11721	
591.32	9691.7	
591.51	9282.1	
591.7	12225	
591.89	11598	
592.09	9469.1	
592.28	9998.2	
592.47	10903	
592.66	12914	
592.85	9395.4	
593.05	9678.7	
593.24	11458	
593.43	12309	
593.62	9793.4	
593.81	10450	
594	11585	
594.19	11839	
594.39	9684.8	
594.58	9663.7	
594.77	11931	
594.96	12532	
595.15	9576.3	
595.34	10260	
595.54	11895	
595.73	10847	
595.92	8853.4	
596.11	10030	
596.3	12366	
596.49	10946	
596.68	9733.3	
596.88	10271	
597.07	12070	
597.26	10800	
597.45	9267.1	
597.64	10664	
597.83	11153	
598.02	11800	
598.22	9411.8	
598.41	10102	
598.6	11545	
598.79	10988	
598.98	9450	
599.17	10465	
599.36	11445	
599.55	12790	
599.74	11579	
599.94	11354	
600.13	12088	
600.32	10815	
600.51	9126.4	
600.7	9280.7	
600.89	12772	
601.08	12856	
601.27	9041.1	
601.47	10116	
601.66	11985	
601.85	12710	
602.04	9857.6	
602.23	10255	
602.42	10836	
602.61	11530	
602.8	9677.3	
602.99	9440.5	
603.18	11303	
603.37	11600	
603.57	10148	
603.76	10744	
603.95	12430	
604.14	11858	
604.33	9581.8	
604.52	9886.9	
604.71	11561	
604.9	11144	
605.09	10524	
605.28	10346	
605.47	12218	
605.66	11892	
605.86	10118	
606.05	9529.2	
606.24	12125	
606.43	10636	
606.62	9817.3	
606.81	10792	
607	11973	
607.19	11236	
607.38	9170.1	
607.57	9453.4	
607.76	11018	
607.95	10412	
608.14	9916.9	
608.33	10522	
608.52	10971	
608.72	11940	
608.91	8954.4	
609.1	9037	
609.29	11031	
609.48	10589	
609.67	10063	
609.86	8977.6	
610.05	10598	
610.24	10998	
610.43	8856.8	
610.62	8529.1	
610.81	12063	
611	11944	
611.19	9105.3	
611.38	9760.6	
611.57	11268	
611.76	12696	
611.95	8737.3	
612.14	8531.2	
612.33	11032	
612.52	10512	
612.71	9267.1	
612.9	8379.6	
613.09	10109	
613.28	12664	
613.47	8944.2	
613.66	10084	
613.85	11099	
614.04	10666	
614.24	9096.4	
614.43	8240.3	
614.62	11247	
614.81	11200	
615	9721	
615.19	9822.7	
615.38	10458	
615.57	10895	
615.76	9538.8	
615.95	10622	
616.14	11314	
616.33	10961	
616.52	9977	
616.71	10161	
616.9	11239	
617.09	11173	
617.28	9174.2	
617.47	10800	
617.66	10324	
617.85	10320	
618.04	10265	
618.22	9623.4	
618.41	10781	
618.6	11677	
618.79	9542.2	
618.98	9156.5	
619.17	12147	
619.36	10267	
619.55	9500.5	
619.74	9521.7	
619.93	11358	
620.12	10761	
620.31	10051	
620.5	10309	
620.69	11889	
620.88	12383	
621.07	10996	
621.26	10003	
621.45	11610	
621.64	11484	
621.83	10120	
622.02	9227.5	
622.21	11642	
622.4	11350	
622.59	10643	
622.78	10395	
622.97	10894	
623.16	11832	
623.35	10052	
623.54	9166	
623.72	11146	
623.91	11360	
624.1	10331	
624.29	8894.3	
624.48	12519	
624.67	11606	
624.86	10283	
625.05	9241.8	
625.24	12579	
625.43	10842	
625.62	12127	
625.81	9445.2	
626	11958	
626.19	11292	
626.38	10404	
626.56	9574.3	
626.75	11007	
626.94	11539	
627.13	10286	
627.32	8873.2	
627.51	11675	
627.7	13028	
627.89	8857.5	
628.08	10226	
628.27	10671	
628.46	11039	
628.65	9286.9	
628.83	8915.5	
629.02	11530	
629.21	10849	
629.4	9701.2	
629.59	10036	
629.78	10796	
629.97	11807	
630.16	10074	
630.35	9454.1	
630.54	12255	
630.72	11979	
630.91	9353.1	
631.1	9994.8	
631.29	11413	
631.48	11617	
631.67	10113	
631.86	9542.9	
632.05	10879	
632.24	10998	
632.42	9079.3	
632.61	9841.9	
632.8	11110	
632.99	10629	
633.18	9871.2	
633.37	10262	
633.56	11391	
633.75	11108	
633.93	9744.9	
634.12	9445.2	
634.31	12119	
634.5	11807	
634.69	9486.2	
634.88	10036	
635.07	11047	
635.25	11703	
635.44	10421	
635.63	10777	
635.82	10972	
636.01	10316	
636.2	10445	
636.39	9865.7	
636.57	12017	
636.76	11723	
636.95	9318.9	
637.14	10773	
637.33	11323	
637.52	12285	
637.7	9049.3	
637.89	10029	
638.08	10875	
638.27	12481	
638.46	10077	
638.65	10661	
638.83	12439	
639.02	10600	
639.21	9976.3	
639.4	10499	
639.59	11237	
639.78	10619	
639.96	9168.8	
640.15	9308	
640.34	11043	
640.53	11189	
640.72	8826.1	
640.91	9161.2	
641.09	10355	
641.28	11792	
641.47	9213.1	
641.66	10032	
641.85	11055	
642.03	11308	
642.22	9788.6	
642.41	9265.7	
642.6	10477	
642.79	9861.7	
642.97	8948.9	
643.16	9788.6	
643.35	10375	
643.54	10112	
643.73	8826.1	
643.91	9753.1	
644.1	9970.2	
644.29	10570	
644.48	8810.4	
644.67	8964	
644.85	10136	
645.04	10466	
645.23	8467.7	
645.42	8727.8	
645.6	9905.3	
645.79	11157	
645.98	8591.9	
646.17	7535.2	
646.36	9586.5	
646.54	10172	
646.73	9321	
646.92	8071.7	
647.11	9663	
647.29	10841	
647.48	8180.3	
647.67	7928.4	
647.86	10991	
648.05	11253	
648.23	8475.9	
648.42	9935.4	
648.61	10379	
648.8	10056	
648.98	8014.4	
649.17	8361.9	
649.36	9555.1	
649.55	9110.7	
649.73	8133.8	
649.92	8930.5	
650.11	9497.1	
650.3	9945.6	
650.48	8268.3	
650.67	7972.1	
650.86	10189	
651.05	9042.5	
651.23	8178.2	
651.42	8157.7	
651.61	9609.8	
651.79	9639.8	
651.98	8396	
652.17	7918.8	
652.36	10077	
652.54	9088.9	
652.73	8107.2	
652.92	7829.4	
653.11	10058	
653.29	10096	
653.48	7211.6	
653.67	8262.2	
653.85	9820.7	
654.04	10942	
654.23	8430.1	
654.42	7877.2	
654.6	9106	
654.79	9828.9	
654.98	7324.9	
655.16	7876.5	
655.35	8696.4	
655.54	8548.2	
655.73	7256	
655.91	7180.9	
656.1	9830.9	
656.29	8480	
656.47	6831.3	
656.66	8660.9	
656.85	8841.8	
657.03	8929.1	
657.22	7434.8	
657.41	7621.2	
657.59	9078	
657.78	8906.6	
657.97	7061.4	
658.16	8003.5	
658.34	9780.4	
658.53	10236	
658.72	8987.9	
658.9	9601.6	
659.09	9245.9	
659.28	9280	
659.46	7694.9	
659.65	7658	
659.84	8981.7	
660.02	9542.2	
660.21	7550.9	
660.4	7466.2	
660.58	10008	
660.77	9387.2	
660.96	8049.2	
661.14	7148.8	
661.33	10542	
661.52	10373	
661.7	7009.5	
661.89	11111	
662.08	8927.1	
662.26	8438.3	
662.45	7303.7	
662.64	7591.8	
662.82	9590	
663.01	8765.3	
663.2	7466.9	
663.38	8302.5	
663.57	9529.9	
663.75	9380.4	
663.94	7839.6	
664.13	9181.7	
664.31	8842.4	
664.5	9669.8	
664.69	8010.3	
664.87	8766.7	
665.06	8495	
665.25	9345.6	
665.43	8882.7	
665.62	8970.8	
665.8	9731.3	
665.99	8886.1	
666.18	7818.5	
666.36	7922.9	
666.55	9627.5	
666.74	9530.6	
666.92	7351.5	
667.11	9110	
667.29	8854.1	
667.48	9626.8	
667.67	8731.2	
667.85	7849.2	
668.04	8952.4	
668.22	9026.8	
668.41	7744.7	
668.6	7969.3	
668.78	8690.2	
668.97	8973.5	
669.15	8115.4	
669.34	7067.5	
669.53	8762.6	
669.71	9183.8	
669.9	7300.3	
670.08	7897	
670.27	8720.9	
670.46	9359.2	
670.64	8186.4	
670.83	8458.8	
671.01	8563.9	
671.2	9212.4	
671.38	7337.9	
671.57	7250.5	
671.76	9852.1	
671.94	10576	
672.13	7190.4	
672.31	8237.6	
672.5	9542.2	
672.69	8770.8	
672.87	7363.8	
673.06	7694.2	
673.24	9329.9	
673.43	8789.2	
673.61	8150.2	
673.8	7665.5	
673.98	9424.8	
674.17	9779.1	
674.36	8320.2	
674.54	8131.8	
674.73	9136.7	
674.91	9525.8	
675.1	7851.2	
675.28	7407.5	
675.47	8870.4	
675.65	9587.2	
675.84	7604.1	
676.03	7945.4	
676.21	8698.4	
676.4	8292.9	
676.58	8517.5	
676.77	8224.6	
676.95	10210	
677.14	8625.4	
677.32	7317.4	
677.51	6993.1	
677.69	9458.9	
677.88	8254.7	
678.06	7042.3	
678.25	7224.6	
678.44	8903.2	
678.62	8611	
678.81	6979.5	
678.99	7997.3	
679.18	9775.6	
679.36	9370.8	
679.55	7563.1	
679.73	8322.9	
679.92	9354.4	
680.1	8744.1	
680.29	8862.2	
680.47	7554.3	
680.66	8579.6	
680.84	9492.3	
681.03	6795.2	
681.21	8057.4	
681.4	8619.9	
681.58	8497.7	
681.77	7249.1	
681.95	7194.5	
682.14	9503.3	
682.32	9894.4	
682.51	8299.7	
682.69	6974	
682.88	8492.2	
683.06	9243.8	
683.25	7914	
683.43	8428.1	
683.62	8858.8	
683.8	9269.1	
683.99	8480.6	
684.17	7662.8	
684.36	10156	
684.54	8639.7	
684.73	6749.4	
684.91	6993.1	
685.1	8935.3	
685.28	8205.5	
685.46	7436.9	
685.65	7481.2	
685.83	9084.1	
686.02	8364.6	
686.2	6928.3	
686.39	7003.4	
686.57	8097	
686.76	9782.5	
686.94	6911.2	
687.13	7084.6	
687.31	8933.2	
687.5	8457.4	
687.68	6501.6	
687.86	7878.5	
688.05	10170	
688.23	7946.8	
688.42	7855.3	
688.6	7083.2	
688.79	8462.9	
688.97	8370	
689.16	7554.3	
689.34	6390.3	
689.52	9198.8	
689.71	9418.6	
689.89	7849.9	
690.08	7064.1	
690.26	8707.3	
690.45	8619.2	
690.63	7962.5	
690.81	7211.6	
691	8340.7	
691.18	8319.5	
691.37	7324.2	
691.55	9651.4	
691.74	8247.2	
691.92	10449	
692.1	7320.8	
692.29	6704.4	
692.47	8589.2	
692.66	7662.8	
692.84	6877.1	
693.02	7539.9	
693.21	7901.7	
693.39	8391.2	
693.58	7681.2	
693.76	7045	
693.94	9714.2	
694.13	9510.8	
694.31	7016.3	
694.5	8189.8	
694.68	8322.9	
694.86	8621.9	
695.05	7469.6	
695.23	7980.3	
695.42	9111.4	
695.6	11607	
695.78	8142.7	
695.97	7159.7	
696.15	9126.4	
696.34	8501.8	
696.52	6895.5	
696.7	7736.5	
696.89	8871.1	
697.07	8235.6	
697.25	7726.3	
697.44	9396.1	
697.62	8660.9	
697.81	9083.4	
697.99	7286	
698.17	7959.8	
698.36	8017.1	
698.54	8772.1	
698.72	7622.5	
698.91	6508.4	
699.09	8284.7	
699.28	8167.3	
699.46	7212.3	
699.64	7197.9	
699.83	8104.5	
700.01	9518.3	
700.19	8002.8	
700.38	6342.6	
700.56	9409.7	
700.74	8228.1	
700.93	6769.9	
701.11	7711.3	
701.29	8833.6	
701.48	9929.2	
701.66	7012.9	
701.84	7011.6	
702.03	8353.7	
702.21	9075.9	
702.39	6545.3	
702.58	7209.5	
702.76	8757.1	
702.94	8895.7	
703.13	6595.1	
703.31	9204.3	
703.49	8026	
703.68	9300.5	
703.86	6731	
704.04	7823.2	
704.23	8615.8	
704.41	8981	
704.59	6946.7	
704.78	8206.9	
704.96	9839.1	
705.14	9110.7	
705.33	6761	
705.51	7669	
705.69	8372.8	
705.87	9302.6	
706.06	7959.8	
706.24	6664.1	
706.42	8766.7	
706.61	9039.1	
706.79	7970	
706.97	6677.7	
707.16	8154.3	
707.34	8844.5	
707.52	7890.1	
707.7	6973.3	
707.89	8329.8	
708.07	8003.5	
708.25	7849.9	
708.44	8047.8	
708.62	8180.3	
708.8	9441.8	
708.98	8169.3	
709.17	6975.4	
709.35	8679.3	
709.53	8628.8	
709.72	6665.5	
709.9	6893.5	
710.08	8800.1	
710.26	9027.4	
710.45	8407.6	
710.63	6946	
710.81	8464.3	
710.99	8617.9	
711.18	7645.1	
711.36	7075	
711.54	8310.7	
711.72	9112.1	
711.91	7208.8	
712.09	6463.4	
712.27	8512.7	
712.45	9508.7	
712.64	7474.4	
712.82	6305	
713	7790.5	
713.18	8001.4	
713.37	6366.5	
713.55	7650.5	
713.73	8966.7	
713.91	7326.9	
714.1	6697.5	
714.28	6111.8	
714.46	8366.6	
714.64	7473	
714.83	5341.1	
715.01	6294.1	
715.19	7499.7	
715.37	6787.7	
715.55	5907	
715.74	6148	
715.92	8325.7	
716.1	6309.1	
716.28	7392.5	
716.47	6307.1	
716.65	6956.9	
716.83	7121.5	
717.01	6234.7	
717.19	6287.9	
717.38	9273.9	
717.56	6741.9	
717.74	6516.6	
717.92	5510.4	
718.1	8148.9	
718.29	7232.1	
718.47	5234.6	
718.65	6042.9	
718.83	8085.4	
719.01	7974.8	
719.2	5137	
719.38	6327.5	
719.56	7664.2	
719.74	9430.9	
719.92	5855.8	
720.11	6948.8	
720.29	7649.2	
720.47	6706.4	
720.65	5417.6	
720.83	6285.2	
721.02	7000	
721.2	6817	
721.38	6287.9	
721.56	5452.4	
721.74	6234	
721.92	6447.7	
722.11	6749.4	
722.29	6425.2	
722.47	7846.5	
722.65	6913.9	
722.83	5449	
723.01	6490	
723.2	7045.7	
723.38	7231.4	
723.56	4843.4	
723.74	6070.9	
723.92	6440.2	
724.1	7705.8	
724.29	5399.8	
724.47	6692.1	
724.65	6562.4	
724.83	6472.9	
725.01	5244.2	
725.19	6224.5	
725.37	6472.9	
725.56	6664.1	
725.74	5088.5	
725.92	5371.8	
726.1	6482.5	
726.28	6778.1	
726.46	5821.7	
726.64	5534.3	
726.83	6718	
727.01	6978.1	
727.19	5016.2	
727.37	5962.3	
727.55	6793.1	
727.73	7385.7	
727.91	5089.2	
728.09	4855.7	
728.28	7412.3	
728.46	8040.3	
728.64	6180.8	
728.82	6041.5	
729	8623.3	
729.18	7752.2	
729.36	5137.7	
729.54	7792.5	
729.72	8892.3	
729.91	7050.5	
730.09	7308.5	
730.27	5992.4	
730.45	6942.6	
730.63	7686.7	
730.81	6657.9	
730.99	5591	
731.17	8189.8	
731.35	6733	
731.53	6217	
731.71	5744.6	
731.9	7980.9	
732.08	8169.3	
732.26	5992.4	
732.44	5619.6	
732.62	8219.9	
732.8	7630	
732.98	6442.2	
733.16	5423	
733.34	7589.8	
733.52	6264.1	
733.7	5905	
733.88	6169.8	
734.07	7407.5	
734.25	7165.8	
734.43	5380	
734.61	7103	
734.79	8776.2	
734.97	7023.9	
735.15	5532.2	
735.33	5866.1	
735.51	7453.2	
735.69	7008.1	
735.87	7062.1	
736.05	6172.6	
736.23	7201.3	
736.41	6994.5	
736.59	5903.6	
736.77	6001.9	
736.95	7737.2	
737.13	7089.4	
737.32	5515.9	
737.5	5749.3	
737.68	8308.6	
737.86	6884.6	
738.04	5284.4	
738.22	7326.9	
738.4	6719.4	
738.58	7049.8	
738.76	6021	
738.94	4859.8	
739.12	6898.2	
739.3	6701	
739.48	6689.3	
739.66	6408.8	
739.84	7135.8	
740.02	7137.9	
740.2	4956.8	
740.38	5313.8	
740.56	7413	
740.74	6382.8	
740.92	6098.9	
741.1	6003.3	
741.28	6930.3	
741.46	6758.3	
741.64	5552.7	
741.82	6169.2	
742	6940.6	
742.18	7018.4	
742.36	5758.9	
742.54	5287.2	
742.72	7598	
742.9	6137.1	
743.08	6217.6	
743.26	4874.8	
743.44	7781.6	
743.62	7503.1	
743.8	6376	
743.98	5311.7	
744.16	7230.7	
744.34	6890	
744.52	6174.6	
744.7	6038.8	
744.88	7373.4	
745.06	6833.4	
745.24	6264.1	
745.42	6378.7	
745.6	7498.3	
745.78	7191.8	
745.96	4958.1	
746.14	5262.6	
746.32	8319.5	
746.5	7445	
746.68	5917.9	
746.86	5297.4	
747.03	7958.4	
747.21	6075	
747.39	5840.1	
747.57	5366.4	
747.75	6984.3	
747.93	7458.7	
748.11	5354.1	
748.29	5296	
748.47	8708	
748.65	6730.3	
748.83	6093.4	
749.01	5805.3	
749.19	7145.4	
749.37	6295.5	
749.55	5586.2	
749.73	5773.2	
749.91	6770.6	
750.09	6532.3	
750.26	5748	
750.44	5127.4	
750.62	6886.6	
750.8	6830	
750.98	4923.3	
751.16	5279	
751.34	6902.3	
751.52	6186.9	
751.7	6158.9	
751.88	4892.6	
752.06	7400	
752.24	7235.5	
752.42	4798.4	
752.59	5193	
752.77	6740.5	
752.95	8175.5	
753.13	6064.7	
753.31	5366.4	
753.49	6432.7	
753.67	7010.9	
753.85	5660.6	
754.03	5240.8	
754.21	7202	
754.38	7598	
754.56	5462.6	
754.74	4345.1	
754.92	6351.4	
755.1	7137.2	
755.28	4407.9	
755.46	4366.3	
755.64	7830.7	
755.82	7996	
755.99	4577.9	
756.17	4702.1	
756.35	5198.4	
756.53	6956.3	
756.71	3461.1	
756.89	4540.3	
757.07	6521.4	
757.25	5423	
757.42	5161.6	
757.6	6120.7	
757.78	6633.4	
757.96	5428.5	
758.14	4855.7	
758.32	4286.4	
758.5	5028.4	
758.67	5890.6	
758.85	4633.9	
759.03	4743.8	
759.21	6079.7	
759.39	5533.6	
759.57	4121.9	
759.75	5411.4	
759.92	6813.6	
760.1	5939.1	
760.28	5754.1	
760.46	6081.1	
760.64	5770.5	
760.82	5475.6	
760.99	5408.7	
761.17	4734.9	
761.35	6611.5	
761.53	5588.2	
761.71	4852.3	
761.89	5582.8	
762.06	6541.9	
762.24	6049.7	
762.42	4947.9	
762.6	4777.9	
762.78	5997.1	
762.96	6782.2	
763.13	5427.1	
763.31	5033.9	
763.49	6978.1	
763.67	5976	
763.85	5956.9	
764.02	6578.1	
764.2	7215.7	
764.38	6371.9	
764.56	4907.6	
764.74	5837.4	
764.91	7312.6	
765.09	6145.3	
765.27	4541.7	
765.45	4323.3	
765.63	7329	
765.8	7187.7	
765.98	4002.4	
766.16	4390.8	
766.34	5634	
766.52	5459.9	
766.69	5501.5	
766.87	4273.4	
767.05	6102.9	
767.23	6950.8	
767.41	4586.1	
767.58	4838	
767.76	6673	
767.94	6771.3	
768.12	4644.1	
768.29	5511.1	
768.47	6154.8	
768.65	6962.4	
768.83	4283.7	
769	5547.3	
769.18	5617.6	
769.36	6503.7	
769.54	5495.4	
769.72	4225.6	
769.89	6679.1	
770.07	6835.4	
770.25	4599.7	
770.43	6004.6	
770.6	7494.9	
770.78	8060.1	
770.96	4831.2	
771.14	5513.8	
771.31	6593.8	
771.49	5938.4	
771.67	3903.4	
771.85	4250.2	
772.02	5087.2	
772.2	5983.5	
772.38	4995	
772.55	4447.5	
772.73	6191.7	
772.91	5948.7	
773.09	4823.6	
773.26	4959.5	
773.44	6139.1	
773.62	5837.4	
773.8	4315.8	
773.97	4076.8	
774.15	6226.5	
774.33	5800.5	
774.5	4222.9	
774.68	4610	
774.86	6478.4	
775.04	5808.7	
775.21	4305.5	
775.39	4305.5	
775.57	6087.2	
775.74	6589.7	
775.92	4097.3	
776.1	4007.9	
776.27	6119.3	
776.45	7458	
776.63	4321.9	
776.81	3747.1	
776.98	5658.5	
777.16	6906.4	
777.34	4424.3	
777.51	4807.3	
777.69	5684.5	
777.87	5459.2	
778.04	4457.7	
778.22	5147.2	
778.4	5472.9	
778.57	6171.2	
778.75	3686.3	
778.93	4003.8	
779.1	5219.6	
779.28	5150	
779.46	3710.9	
779.64	4214	
779.81	6394.4	
779.99	7270.3	
780.17	5134.9	
780.34	5173.9	
780.52	5716.6	
780.69	6002.6	
780.87	4588.1	
781.05	4080.2	
781.22	5862.7	
781.4	5878.4	
781.58	4296	
781.75	3301.3	
781.93	5854.5	
782.11	5228.5	
782.28	5214.1	
782.46	4222.2	
782.64	5072.1	
782.81	6103.6	
782.99	4305.5	
783.17	4300.1	
783.34	5982.8	
783.52	5117.9	
783.69	4569	
783.87	5427.8	
784.05	5234.6	
784.22	5238	
784.4	5404.6	
784.58	4631.8	
784.75	6238.1	
784.93	5206.6	
785.1	4262.5	
785.28	4999.1	
785.46	5958.9	
785.63	5203.2	
785.81	4233.8	
785.99	4087.7	
786.16	5336.3	
786.34	5870.2	
786.51	4148.5	
786.69	4573.1	
786.87	4935.6	
787.04	5556.8	
787.22	3983.3	
787.39	5072.1	
787.57	5100.1	
787.75	6436.8	
787.92	5200.5	
788.1	5107.6	
788.27	5231.2	
788.45	5001.8	
788.63	4709	
788.8	3452.2	
788.98	5610.8	
789.15	4910.3	
789.33	3601	
789.5	4337.6	
789.68	6184.2	
789.86	6401.3	
790.03	4700.8	
790.21	4147.1	
790.38	6212.9	
790.56	5343.8	
790.73	3946.4	
790.91	4037.9	
791.09	5253.7	
791.26	6019	
791.44	4250.9	
791.61	3633.1	
791.79	5201.2	
791.96	5330.2	
792.14	3781.9	
792.32	3321.1	
792.49	5261.9	
792.67	5347.2	
792.84	3889.8	
793.02	3635.1	
793.19	5924.8	
793.37	6514.6	
793.54	3300.6	
793.72	3689.8	
793.89	6675.7	
794.07	5298.1	
794.25	4417.5	
794.42	3433.8	
794.6	6440.2	
794.77	5995.8	
794.95	4681.7	
795.12	4067.3	
795.3	5229.1	
795.47	5900.9	
795.65	4526.7	
795.82	4338.3	
796	4993.6	
796.17	7142.6	
796.35	4126	
796.52	4970.4	
796.7	5786.9	
796.87	5902.2	
797.05	5171.8	
797.22	5102.2	
797.4	5860.6	
797.57	6915.3	
797.75	4310.3	
797.92	4040	
798.1	6164.4	
798.27	5231.2	
798.45	3376.4	
798.62	3698.6	
798.8	5572.5	
798.97	6017.6	
799.15	4569	
799.32	4351.9	
799.5	4740.4	
799.67	5641.5	
799.85	4677.6	
800.02	3394.2	
800.2	5139.7	
800.37	5520	
800.55	4915.8	
800.72	4030.4	
800.9	6025.1	
801.07	6550.8	
801.25	5466.7	
801.42	4449.6	
801.6	6170.5	
801.77	5814.2	
801.95	4119.8	
802.12	3943	
802.29	5689.3	
802.47	5668.8	
802.64	4390.2	
802.82	3321.1	
802.99	5115.1	
803.17	6249.7	
803.34	4285	
803.52	3893.9	
803.69	7039.6	
803.87	4967.7	
804.04	4226.3	
804.21	4428.4	
804.39	6387.6	
804.56	5438	
804.74	3619.4	
804.91	4498	
805.09	5158.8	
805.26	5350	
805.44	3664.5	
805.61	4054.3	
805.78	5922.7	
805.96	5970.5	
806.13	4442	
806.31	4857.1	
806.48	4687.1	
806.66	5357.5	
806.83	4356	
807	4390.2	
807.18	5110.4	
807.35	5677.7	
807.53	4319.2	
807.7	3399.6	
807.87	6466.8	
808.05	5243.5	
808.22	4749.2	
808.4	3412.6	
808.57	5271.5	
808.74	4816.1	
808.92	3949.2	
809.09	5111	
809.27	5066	
809.44	5765.7	
809.61	3486.3	
809.79	3845.4	
809.96	6416.3	
810.14	6043.6	
810.31	3368.9	
810.48	4131.4	
810.66	5350.7	
810.83	6196.5	
811.01	3928	
811.18	4414.7	
811.35	5994.4	
811.53	4623.6	
811.7	4797	
811.87	4470.7	
812.05	5218.9	
812.22	5106.3	
812.39	3803.1	
812.57	3699.3	
812.74	5247.6	
812.92	7092.1	
813.09	4159.4	
813.26	4513.7	
813.44	6821.1	
813.61	5147.2	
813.78	3434.4	
813.96	4647.5	
814.13	5225.7	
814.3	4903.5	
814.48	5112.4	
814.65	4124.6	
814.82	6518.7	
815	5125.4	
815.17	4252.9	
815.34	5264	
815.52	5184.8	
815.69	5189.6	
815.87	4222.2	
816.04	4167.6	
816.21	5248.9	
816.38	4595.6	
816.56	4116.4	
816.73	3724.6	
816.9	6664.1	
817.08	6053.8	
817.25	3810.6	
817.42	4911.7	
817.6	4797.7	
817.77	5261.2	
817.94	4402.5	
818.12	3785.3	
818.29	4953.4	
818.46	7987.8	
818.64	3976.5	
818.81	3767.6	
818.98	4837.3	
819.16	7223.9	
819.33	4563.6	
819.5	4202.4	
819.67	5668.8	
819.85	6397.2	
820.02	4200.4	
820.19	4397.7	
820.37	5485.1	
820.54	5030.5	
820.71	4328	
820.88	5464	
821.06	5541.1	
821.23	5018.2	
821.4	4338.3	
821.58	4326	
821.75	6051.1	
821.92	5440.8	
822.09	3508.2	
822.27	3593.5	
822.44	5236.7	
822.61	5196.4	
822.79	3488.4	
822.96	6886.6	
823.13	5752.7	
823.3	5014.8	
823.48	4062.5	
823.65	3634.5	
823.82	5976	
823.99	4743.1	
824.17	5203.9	
824.34	3683.6	
824.51	6987.7	
824.68	5339.7	
824.86	3875.4	
825.03	4392.9	
825.2	5282.4	
825.37	6419	
825.55	3835.2	
825.72	4285	
825.89	7101	
826.06	6546	
826.24	4212.7	
826.41	4219.5	
826.58	6367.1	
826.75	5571.2	
826.92	3265.1	
827.1	3616.7	
827.27	8806.9	
827.44	7019.1	
827.61	3994.2	
827.79	4842.1	
827.96	4889.9	
828.13	5393.7	
828.3	4170.3	
828.47	3479.5	
828.65	5410.1	
828.82	5410.7	
828.99	5399.8	
829.16	4682.3	
829.34	5853.1	
829.51	5632.6	
829.68	4245.4	
829.85	4461.2	
830.02	6166.4	
830.2	5914.5	
830.37	3257	
830.54	5272.2	
830.71	6770.6	
830.88	5215.5	
831.05	3387.3	
831.23	3926	
831.4	6435.4	
831.57	7273	
831.74	4007.2	
831.91	3523.2	
832.09	5410.1	
832.26	5809.4	
832.43	4176.5	
832.6	4659.1	
832.77	5537	
832.94	6304.3	
833.12	3296.5	
833.29	4093.2	
833.46	5091.3	
833.63	7546.1	
833.8	4534.2	
833.97	4195.6	
834.15	5887.9	
834.32	5657.9	
834.49	4273.4	
834.66	4384.7	
834.83	6106.4	
835	4954.7	
835.17	3935.5	
835.35	4037.9	
835.52	5748	
835.69	5641.5	
835.86	4197	
836.03	3458.3	
836.2	5797.1	
836.37	5469.4	
836.55	4113.7	
836.72	3880.2	
836.89	5446.2	
837.06	6001.9	
837.23	4277.5	
837.4	4622.3	
837.57	6733	
837.75	7630.7	
837.92	3829	
838.09	4001	
838.26	5430.5	
838.43	6240.8	
838.6	4372.4	
838.77	3928	
838.94	7139.9	
839.11	6838.9	
839.29	4138.3	
839.46	3228.3	
839.63	5842.2	
839.8	5547.3	
839.97	4042	
840.14	3981.3	
840.31	5672.2	
840.48	5879	
840.65	3302	
840.82	3894.6	
841	5894.7	
841.17	5855.1	
841.34	3681.6	
841.51	3770.3	
841.68	5800.5	
841.85	5487.2	
842.02	3779.9	
842.19	3147.7	
842.36	5563.6	
842.53	5566.4	
842.7	3636.5	
842.87	4558.1	
843.05	7421.8	
843.22	5532.9	
843.39	3493.2	
843.56	3843.4	
843.73	5271.5	
843.9	5886.5	
844.07	6075	
844.24	5026.4	
844.41	8739.4	
844.58	5052.3	
844.75	3543	
844.92	3868.6	
845.09	5847	
845.26	5864	
845.43	3590.1	
845.6	3840.6	
845.77	5838.1	
845.94	5527.5	
846.12	4055.7	
846.29	4308.9	
846.46	6002.6	
846.63	5884.5	
846.8	3662.5	
846.97	4360.1	
847.14	6342.6	
847.31	5781.4	
847.48	4160.8	
847.65	4534.2	
847.82	6176.7	
847.99	6123.4	
848.16	4969.1	
848.33	4572.4	
848.5	5373.2	
848.67	6380.1	
848.84	3620.8	
849.01	3805.8	
849.18	5234.6	
849.35	4891.2	
849.52	4602.5	
849.69	3623.5	
849.86	6082.5	
850.03	6325.5	
850.2	3642	
850.37	4530.1	
850.54	6263.4	
850.71	5549.3	
850.88	4405.2	
851.05	3641.3	
851.22	5737.7	
851.39	6481.1	
851.56	3506.1	
851.73	4226.3	
851.9	5059.8	
852.07	6089.3	
852.24	4035.9	
852.41	3654.9	
852.58	5735	
852.75	5205.3	
852.92	4145.1	
853.09	3590.1	
853.26	5468.8	
853.43	6357.6	
853.6	3616	
853.77	3106.8	
853.94	6447.7	
854.11	5758.9	
854.28	5481	
854.44	3930.7	
854.61	6927.6	
854.78	6139.1	
854.95	3618.8	
855.12	4626.4	
855.29	4691.9	
855.46	6642.9	
855.63	3621.5	
855.8	5109	
855.97	5397.8	
856.14	6176	
856.31	5218.2	
856.48	4038.6	
856.65	5433.3	
856.82	5126.1	
856.99	3503.4	
857.16	3928.7	
857.33	7187	
857.49	5524.7	
857.66	3986.7	
857.83	4226.3	
858	5425.8	
858.17	5735.7	
858.34	3444.7	
858.51	3667.2	
858.68	6581.5	
858.85	6700.3	
859.02	4230.4	
859.19	4536.9	
859.36	5035.3	
859.52	5154.1	
859.69	3661.1	
859.86	4373.1	
860.03	5183.4	
860.2	6457.2	
860.37	3283.6	
860.54	3648.8	
860.71	6143.9	
860.88	6543.3	
861.05	4143	
861.21	4641.4	
861.38	6580.8	
861.55	5040.1	
861.72	3259	
861.89	4072.7	
862.06	6192.4	
862.23	6689.3	
862.4	3549.8	
862.56	3831.1	
862.73	6007.4	
862.9	5625.8	
863.07	4280.3	
863.24	3588.7	
863.41	4988.9	
863.58	5094.7	
863.75	3746.4	
863.91	4288.4	
864.08	6548.7	
864.25	6060.6	
864.42	4691.2	
864.59	5212.1	
864.76	6875	
864.93	5160.2	
865.09	3575.8	
865.26	3881.6	
865.43	6395.1	
865.6	6842.9	
865.77	3157.3	
865.94	3635.8	
866.1	6457.9	
866.27	6223.1	
866.44	5559.6	
866.61	3428.3	
866.78	5569.1	
866.95	6007.4	
867.11	3480.9	
867.28	3211.2	
867.45	6194.4	
867.62	5199.8	
867.79	4263.9	
867.96	3635.1	
868.12	5113.8	
868.29	6130.3	
868.46	3677.5	
868.63	4941.7	
868.8	6304.3	
868.97	6066.8	
869.13	3777.8	
869.3	3822.9	
869.47	5921.4	
869.64	6183.5	
869.81	3708.9	
869.97	3648.8	
870.14	5896.1	
870.31	6573.3	
870.48	3564.1	
870.65	4626.4	
870.81	5445.5	
870.98	5419.6	
871.15	4182	
871.32	3865.2	
871.48	5989.6	
871.65	6683.2	
871.82	3631	
871.99	4010.6	
872.16	7163.1	
872.32	6543.9	
872.49	3676.1	
872.66	3696.6	
872.83	6100.9	
872.99	5389.6	
873.16	4192.9	
873.33	3612.6	
873.5	5709.7	
873.67	5767.8	
873.83	3820.8	
874	4932.2	
874.17	5854.5	
874.34	7017.7	
874.5	4717.2	
874.67	4562.9	
874.84	6565.1	
875.01	5085.1	
875.17	5179.3	
875.34	3652.2	
875.51	5771.9	
875.68	6989.7	
875.84	4425.7	
876.01	5432.6	
876.18	6051.7	
876.34	6019.7	
876.51	3725.9	
876.68	3504.8	
876.85	5508.4	
877.01	6346	
877.18	5253.7	
877.35	3613.3	
877.52	5679.7	
877.68	5032.5	
877.85	3543	
878.02	3515	
878.18	5679	
878.35	5354.8	
878.52	2894.5	
878.69	4066.6	
878.85	6074.3	
879.02	6037.4	
879.19	5212.8	
879.35	3940.3	
879.52	6054.5	
879.69	6250.4	
879.86	3143.6	
880.02	4048.8	
880.19	5588.9	
880.36	6944	
880.52	4186.7	
880.69	4378.6	
880.86	6162.3	
881.02	6236.1	
881.19	4009.9	
881.36	4009.2	
881.52	5997.8	
881.69	5286.5	
881.86	3994.2	
882.02	3852.9	
882.19	6337.8	
882.36	7453.2	
882.52	3741	
882.69	5181.4	
882.86	5875.6	
883.02	5717.9	
883.19	4483.7	
883.36	4158.7	
883.52	6188.3	
883.69	7139.2	
883.86	3648.1	
884.02	3255.6	
884.19	6154.1	
884.36	5602.6	
884.52	4171	
884.69	3877.5	
884.86	5388.2	
885.02	6806.8	
885.19	4137.6	
885.36	4223.6	
885.52	5664.7	
885.69	5754.1	
885.86	5332.9	
886.02	4711.7	
886.19	6121.4	
886.35	5531.6	
886.52	4025.6	
886.69	5098.1	
886.85	5197.7	
887.02	6524.1	
887.19	6524.1	
887.35	6524.1	
887.52	6524.1	
887.68	6524.1	
887.85	6524.1	
888.02	6524.1	
888.18	6524.1	
888.35	6524.1	
888.51	6524.1	
888.68	6524.1	
888.85	6524.1	
889.01	6524.1	
889.18	6524.1	
889.35	6524.1	
889.51	6524.1	
889.68	6524.1	
889.84	6524.1	
890.01	6524.1	
890.17	6524.1	
890.34	6524.1	
890.51	6524.1	
890.67	6524.1	
890.84	6524.1	
891	6524.1	
891.17	6524.1	
891.34	6524.1	
891.5	6524.1	
891.67	6524.1	
891.83	6524.1	
892	6524.1	
892.16	6524.1	
892.33	6524.1	
892.5	6524.1	
892.66	6524.1	
892.83	6524.1	
892.99	6524.1	
893.16	6524.1	
893.32	6524.1	
893.49	6524.1	
893.65	6524.1	
893.82	6524.1	
893.99	6524.1	
894.15	6524.1	
894.32	6524.1	
894.48	6524.1	
894.65	6524.1	
894.81	6524.1	
894.98	6524.1	
895.14	6524.1	
895.31	6524.1	
895.47	6524.1	
895.64	6524.1	
895.81	6524.1	
895.97	6524.1	
896.14	6524.1	
896.3	6524.1	
896.47	6524.1	
896.63	6524.1	
896.8	6524.1	
896.96	6524.1	
897.13	6524.1	
897.29	6524.1	
897.46	6524.1	
897.62	6524.1	
897.79	6524.1	
897.95	6524.1	
898.12	6524.1	
898.28	6524.1	
898.45	6524.1	
898.61	6524.1	
898.78	6524.1	
898.94	6524.1	
899.11	6524.1	
899.27	6524.1	
899.44	6524.1	
899.6	6524.1	
899.77	6524.1	
899.93	6524.1	
900.1	6524.1	
900.26	6524.1	
900.43	6524.1	
900.59	6524.1	
900.76	6524.1	
900.92	6524.1	
901.09	6524.1	
901.25	6524.1	
901.42	6524.1	
901.58	6524.1	
901.75	6524.1	
901.91	6524.1	
902.07	6524.1	
902.24	6524.1	
902.4	6524.1	
902.57	6524.1	
902.73	6524.1	
902.9	6524.1	
903.06	6524.1	
903.23	6524.1	
903.39	6524.1	
903.56	6524.1	
903.72	6524.1	
903.88	6524.1	
904.05	6524.1	
904.21	6524.1	
904.38	6524.1	
904.54	6524.1	
904.71	6524.1	
904.87	6524.1	
905.03	6524.1	
905.2	6524.1	
905.36	6524.1	
905.53	6524.1	
905.69	6524.1	
905.86	6524.1	
906.02	6524.1	
906.18	6524.1	
906.35	6524.1	
906.51	6524.1	
906.68	6524.1	
906.84	6524.1	
907.01	6524.1	
907.17	6524.1	
907.33	6524.1	
907.5	6524.1	
907.66	6524.1	
907.83	6524.1	
907.99	6524.1	
908.15	6524.1	
908.32	6524.1	
908.48	6524.1	
908.65	6524.1	
908.81	6524.1	
908.97	6524.1	
909.14	6524.1	
909.3	6524.1	
909.47	6524.1	
909.63	6524.1	
909.79	6524.1	
909.96	6524.1	
910.12	6524.1	
910.28	6524.1	
910.45	6524.1	
910.61	6524.1	
910.78	6524.1	
910.94	6524.1	
911.1	6524.1	
911.27	6524.1	
911.43	6524.1	
911.59	6524.1	
911.76	6524.1	
911.92	6524.1	
912.08	6524.1	
912.25	6524.1	
912.41	6524.1	
912.57	6524.1	
912.74	6524.1	
912.9	6524.1	
913.07	6524.1	
913.23	6524.1	
913.39	6524.1	
913.56	6524.1	
913.72	6524.1	
913.88	6524.1	
914.05	6524.1	
914.21	6524.1	
914.37	6524.1	
914.54	6524.1	
914.7	6524.1	
914.86	6524.1	
915.03	6524.1	
915.19	6524.1	
