Wavelength	Intensities	
nm	a.u.	
179.22	1911.1	
179.44	1910.1	
179.65	1912.1	
179.86	1908	
180.08	1920.3	
180.29	4969.1	
180.51	3476.1	
180.72	5639.4	
180.94	6696.2	
181.15	3259	
181.37	3163.4	
181.58	5526.8	
181.79	5864.7	
182.01	3359.4	
182.22	3619.4	
182.44	5821	
182.65	4790.2	
182.87	4520.5	
183.08	4008.6	
183.29	6085.2	
183.51	4977.2	
183.72	3672.7	
183.94	5332.9	
184.15	5365	
184.37	5443.5	
184.58	3145.7	
184.79	4420.9	
185.01	4976.6	
185.22	5789.6	
185.44	4678.9	
185.65	3937.6	
185.86	5332.2	
186.08	4863.9	
186.29	3132.7	
186.51	3355.3	
186.72	4997	
186.94	5919.3	
187.15	3856.3	
187.36	4024.3	
187.58	7791.8	
187.79	5489.2	
188.01	4237.9	
188.22	6655.2	
188.43	6598.6	
188.65	5720	
188.86	3398.3	
189.08	4061.8	
189.29	5251.7	
189.5	5241.4	
189.72	3746.4	
189.93	3829	
190.15	5988.9	
190.36	7228.6	
190.57	4149.2	
190.79	4001	
191	6113.9	
191.22	5983.5	
191.43	4076.1	
191.64	3356.6	
191.86	6234	
192.07	6023.1	
192.29	3534.1	
192.5	3753.9	
192.71	5977.3	
192.93	5190.2	
193.14	3716.4	
193.35	3769.6	
193.57	5165.7	
193.78	5958.9	
194	3005.1	
194.21	3666.5	
194.42	4894.6	
194.64	5433.3	
194.85	4052.2	
195.07	4693.3	
195.28	5481	
195.49	4691.9	
195.71	5044.8	
195.92	3512.3	
196.13	5550	
196.35	5739.1	
196.56	5354.1	
196.78	4014	
196.99	7148.8	
197.2	6621.8	
197.42	4571.7	
197.63	4083	
197.84	4841.4	
198.06	5610.8	
198.27	3695.9	
198.48	5021.6	
198.7	5159.5	
198.91	5313.1	
199.13	4033.8	
199.34	4102.1	
199.55	5836.7	
199.77	4687.8	
199.98	3546.4	
200.19	4122.6	
200.41	5347.9	
200.62	5037.3	
200.83	4288.4	
201.05	4555.4	
201.26	5331.5	
201.47	5102.2	
201.69	3609.2	
201.9	3492.5	
202.11	5360.2	
202.33	6393.1	
202.54	3873.4	
202.76	4364.9	
202.97	5584.1	
203.18	5512.4	
203.4	4253.6	
203.61	4126	
203.82	5478.3	
204.04	5087.8	
204.25	4134.2	
204.46	3988.1	
204.68	5431.2	
204.89	5612.8	
205.1	3940.3	
205.32	3418.7	
205.53	5857.2	
205.74	6009.4	
205.96	2942.2	
206.17	4180.6	
206.38	5709.1	
206.6	5921.4	
206.81	4697.4	
207.02	3842	
207.24	5636.7	
207.45	6064.7	
207.66	3923.2	
207.88	3321.1	
208.09	5638.7	
208.3	5436.7	
208.52	3515.7	
208.73	3851.5	
208.94	5427.1	
209.15	6139.8	
209.37	3819.5	
209.58	4078.9	
209.79	5995.8	
210.01	5261.2	
210.22	3109.5	
210.43	3287	
210.65	5453.7	
210.86	5837.4	
211.07	3905.5	
211.29	3541.6	
211.5	5811.5	
211.71	5383.4	
211.93	3500.7	
212.14	3536.8	
212.35	5358.9	
212.56	5570.5	
212.78	4108.2	
212.99	3387.3	
213.2	6468.9	
213.42	5173.2	
213.63	3640.6	
213.84	3919.1	
214.06	4805.2	
214.27	4887.8	
214.48	3918.4	
214.69	4157.4	
214.91	6132.3	
215.12	6161	
215.33	4204.5	
215.55	4633.2	
215.76	6686.6	
215.97	5768.4	
216.18	3995.6	
216.4	3869.3	
216.61	5063.9	
216.82	5986.9	
217.04	3552.5	
217.25	3691.1	
217.46	6069.5	
217.67	5825.8	
217.89	3167.5	
218.1	3308.2	
218.31	5538.4	
218.53	5517.2	
218.74	3756	
218.95	3693.9	
219.16	5436	
219.38	6358.3	
219.59	3645.4	
219.8	4399	
220.01	7044.3	
220.23	5438.7	
220.44	4848.2	
220.65	3534.1	
220.87	5473.5	
221.08	6066.1	
221.29	3330	
221.5	4457.1	
221.72	7533.1	
221.93	5172.5	
222.14	4097.3	
222.35	4863.2	
222.57	5436.7	
222.78	5774.6	
222.99	3932.8	
223.2	4186	
223.42	5734.3	
223.63	5917.9	
223.84	2988	
224.05	2989.4	
224.27	6920.1	
224.48	6368.5	
224.69	4808.6	
224.9	4088.4	
225.12	5642.8	
225.33	5371.8	
225.54	3224.9	
225.75	3690.4	
225.97	4995.7	
226.18	5243.5	
226.39	3949.8	
226.6	3675.4	
226.82	5162.9	
227.03	5027.1	
227.24	4035.2	
227.45	3365.5	
227.67	5776.6	
227.88	6412.9	
228.09	4460.5	
228.3	4573.8	
228.52	5845.6	
228.73	5426.4	
228.94	3794.2	
229.15	3332	
229.36	5315.8	
229.58	5294.7	
229.79	3878.2	
230	4421.6	
230.21	6474.3	
230.43	5483.1	
230.64	4082.3	
230.85	4289.1	
231.06	5867.4	
231.28	5813.5	
231.49	3373.7	
231.7	3969.6	
231.91	5754.1	
232.12	5496.1	
232.34	3426.9	
232.55	3945.8	
232.76	6013.5	
232.97	5552.7	
233.18	3583.9	
233.4	4013.3	
233.61	5709.1	
233.82	5097.4	
234.03	3771	
234.25	3672.7	
234.46	7557	
234.67	5455.1	
234.88	4173.8	
235.09	3626.3	
235.31	5763.7	
235.52	5276.9	
235.73	4042	
235.94	3444	
236.15	5152	
236.37	6591.7	
236.58	3537.5	
236.79	3923.9	
237	5771.9	
237.21	4935.6	
237.43	4164.9	
237.64	3278.8	
237.85	9921	
238.06	4967	
238.27	4279.6	
238.48	3381.2	
238.7	5801.9	
238.91	5285.1	
239.12	3878.2	
239.33	3933.5	
239.54	5011.4	
239.76	5336.3	
239.97	3893.2	
240.18	3898	
240.39	6824.5	
240.6	5742.5	
240.82	4067.3	
241.03	3273.3	
241.24	5408.7	
241.45	6238.8	
241.66	3570.3	
241.87	4241.3	
242.09	6165.1	
242.3	6521.4	
242.51	4244.1	
242.72	3915	
242.93	5883.8	
243.14	5362.9	
243.36	4541.7	
243.57	4878.9	
243.78	6294.8	
243.99	5733.6	
244.2	3974.4	
244.41	3558.7	
244.63	4985.4	
244.84	5731.6	
245.05	4233.8	
245.26	3915	
245.47	5705	
245.68	6021	
245.9	5242.1	
246.11	4079.6	
246.32	5300.8	
246.53	5665.4	
246.74	6391	
246.95	3269.9	
247.16	4911	
247.38	5412.8	
247.59	3247.4	
247.8	3921.9	
248.01	5141.1	
248.22	5352	
248.43	3549.1	
248.64	3815.4	
248.86	4774.5	
249.07	5161.6	
249.28	3525.2	
249.49	3970.3	
249.7	5939.1	
249.91	6115.9	
250.12	3313.6	
250.34	3330.7	
250.55	5541.8	
250.76	5368.4	
250.97	4016.1	
251.18	4072	
251.39	6108.4	
251.6	5633.3	
251.81	4140.3	
252.03	4141.7	
252.24	5118.6	
252.45	6061.3	
252.66	3360	
252.87	4328.7	
253.08	5442.1	
253.29	7180.9	
253.5	3427.6	
253.72	4795.7	
253.93	5269.4	
254.14	6469.5	
254.35	3700.7	
254.56	3801.7	
254.77	5635.3	
254.98	4997	
255.19	3703.4	
255.41	4732.2	
255.62	5498.8	
255.83	6081.8	
256.04	4191.5	
256.25	4099.4	
256.46	6693.4	
256.67	5126.7	
256.88	4045.4	
257.09	4528.7	
257.31	5129.5	
257.52	5140.4	
257.73	5096.7	
257.94	3720.5	
258.15	5260.5	
258.36	5486.5	
258.57	4700.8	
258.78	2958.6	
258.99	5847	
259.2	5240.8	
259.41	3751.9	
259.63	3816.7	
259.84	6285.2	
260.05	6759	
260.26	4927.4	
260.47	3624.2	
260.68	6012.8	
260.89	5332.2	
261.1	4504.8	
261.31	3580.5	
261.52	6021.7	
261.73	6446.3	
261.95	4809.3	
262.16	4244.8	
262.37	6170.5	
262.58	6231.3	
262.79	4840.7	
263	3779.9	
263.21	5424.4	
263.42	4902.2	
263.63	3853.6	
263.84	3769.6	
264.05	5984.8	
264.26	6400.6	
264.47	4685.1	
264.69	4252.3	
264.9	6111.1	
265.11	5613.5	
265.32	3635.8	
265.53	3732.8	
265.74	5633.3	
265.95	4803.9	
266.16	3948.5	
266.37	4387.4	
266.58	5561.6	
266.79	5258.5	
267	3709.6	
267.21	3409.9	
267.42	4999.1	
267.63	5400.5	
267.84	3900.7	
268.06	3334.1	
268.27	5856.5	
268.48	6179.4	
268.69	3808.5	
268.9	4520.5	
269.11	6124.8	
269.32	4907.6	
269.53	3885.7	
269.74	3603.1	
269.95	5791.7	
270.16	4812.7	
270.37	3923.2	
270.58	4521.2	
270.79	5272.2	
271	5965.1	
271.21	4205.2	
271.42	3916.4	
271.63	5576.6	
271.84	5099.4	
272.05	3116.3	
272.26	3502	
272.47	5488.6	
272.68	5669.5	
272.89	3689.8	
273.11	4359.4	
273.32	5321.3	
273.53	6457.9	
273.74	4249.5	
273.95	4160.1	
274.16	6108.4	
274.37	5445.5	
274.58	4291.2	
274.79	3396.9	
275	5613.5	
275.21	6149.4	
275.42	5229.8	
275.63	4432.5	
275.84	5698.1	
276.05	7154.2	
276.26	4121.2	
276.47	3852.2	
276.68	5274.2	
276.89	6444.3	
277.1	4416.1	
277.31	3433.8	
277.52	5705	
277.73	5868.8	
277.94	3371.6	
278.15	3794.9	
278.36	5627.8	
278.57	5099.4	
278.78	3781.9	
278.99	4278.9	
279.2	5082.4	
279.41	5019.6	
279.62	4940.4	
279.83	3402.4	
280.04	6656.6	
280.25	4984.1	
280.46	4885.1	
280.67	3966.9	
280.88	5056.4	
281.09	6107.7	
281.3	4134.8	
281.51	5242.8	
281.72	5147.2	
281.93	5900.2	
282.14	3644.7	
282.35	3941	
282.56	5902.9	
282.77	5940.5	
282.98	3758	
283.19	4638.6	
283.4	7289.4	
283.61	5389.6	
283.82	3437.2	
284.03	4922	
284.24	5558.2	
284.45	6074.3	
284.66	4876.9	
284.87	4672.8	
285.08	5985.5	
285.29	6165.1	
285.5	3333.4	
285.71	3864.5	
285.92	6137.1	
286.12	6764.4	
286.33	4824.3	
286.54	3787.4	
286.75	5996.5	
286.96	5247.6	
287.17	3450.1	
287.38	4692.6	
287.59	5073.5	
287.8	5042.8	
288.01	3824.9	
288.22	4402.5	
288.43	6006.7	
288.64	4949.9	
288.85	4548.5	
289.06	4359.4	
289.27	5871.5	
289.48	6438.8	
289.69	4853.7	
289.9	4455	
290.11	6123.4	
290.32	5132.2	
290.53	4628.4	
290.74	4271.4	
290.94	5868.1	
291.15	5941.2	
291.36	3758	
291.57	4462.5	
291.78	5158.8	
291.99	4853	
292.2	3508.2	
292.41	4247.5	
292.62	5988.3	
292.83	5838.8	
293.04	5218.2	
293.25	3543	
293.46	5226.4	
293.67	6074.3	
293.88	3715.7	
294.09	3538.2	
294.29	4980.7	
294.5	5608	
294.71	3897.3	
294.92	3709.6	
295.13	5196.4	
295.34	6597.9	
295.55	3326.6	
295.76	3408.5	
295.97	5856.5	
296.18	6645.7	
296.39	3523.2	
296.6	3654.3	
296.81	5571.8	
297.01	5862.7	
297.22	3856.3	
297.43	3713	
297.64	5083.1	
297.85	5092.6	
298.06	3048.1	
298.27	3276.1	
298.48	5533.6	
298.69	5143.1	
298.9	3975.1	
299.11	3639.2	
299.31	4958.8	
299.52	4980	
299.73	4255.7	
299.94	4151.2	
300.15	5470.1	
300.36	5074.9	
300.57	4238.6	
300.78	4171.7	
300.99	5299.5	
301.2	5547.9	
301.4	3579.8	
301.61	3995.6	
301.82	5785.5	
302.03	5896.8	
302.24	4462.5	
302.45	3472.7	
302.66	5722	
302.87	6226.5	
303.08	3639.9	
303.29	5042.1	
303.49	5212.1	
303.7	5516.5	
303.91	3263.1	
304.12	4831.8	
304.33	4968.4	
304.54	5606.7	
304.75	3686.3	
304.96	3513.6	
305.16	5789.6	
305.37	6473.6	
305.58	3168.9	
305.79	3343	
306	5713.8	
306.21	4847.5	
306.42	3689.8	
306.63	5648.3	
306.83	5335.6	
307.04	6101.6	
307.25	4111	
307.46	4090.5	
307.67	4631.1	
307.88	5915.2	
308.09	3590.1	
308.29	3747.8	
308.5	5494	
308.71	6064	
308.92	4018.1	
309.13	3511.6	
309.34	5403.9	
309.55	5399.1	
309.75	4627.7	
309.96	4244.8	
310.17	5879.7	
310.38	5123.3	
310.59	4390.2	
310.8	3469.9	
311.01	5254.4	
311.21	5307	
311.42	3493.2	
311.63	3618.8	
311.84	5216.9	
312.05	5604.6	
312.26	4032.5	
312.46	4462.5	
312.67	5314.5	
312.88	4943.1	
313.09	3581.2	
313.3	3469.9	
313.51	6277	
313.71	6586.3	
313.92	3517	
314.13	3753.9	
314.34	5586.2	
314.55	5332.9	
314.76	4580.6	
314.96	3985.3	
315.17	5485.8	
315.38	6000.5	
315.59	3543.7	
315.8	3397.6	
316.01	6308.4	
316.21	6336.4	
316.42	3436.5	
316.63	3990.1	
316.84	5272.8	
317.05	6146.6	
317.26	4210.6	
317.46	3744.4	
317.67	5383.4	
317.88	5822.4	
318.09	4474.1	
318.3	3300	
318.5	5140.4	
318.71	5838.8	
318.92	5799.2	
319.13	4205.2	
319.34	5952.8	
319.54	6127.5	
319.75	3235.8	
319.96	3170.3	
320.17	5862.7	
320.38	6005.3	
320.58	3233.7	
320.79	3900	
321	6019	
321.21	6193.1	
321.42	3936.9	
321.62	3209.2	
321.83	5040.7	
322.04	5459.2	
322.25	3775.8	
322.46	3539.6	
322.66	5558.2	
322.87	5700.2	
323.08	4438.6	
323.29	3530.7	
323.5	6550.8	
323.7	4971.1	
323.91	4895.3	
324.12	4367	
324.33	5468.1	
324.53	5842.9	
324.74	4134.2	
324.95	4362.2	
325.16	4815.5	
325.37	5216.9	
325.57	3539.6	
325.78	3599	
325.99	5526.8	
326.2	4950.6	
326.4	5027.1	
326.61	3271.3	
326.82	5380.7	
327.03	5586.2	
327.24	5066.7	
327.44	4805.2	
327.65	5694.7	
327.86	4611.3	
328.07	4205.2	
328.27	3401.7	
328.48	6121.4	
328.69	5054.4	
328.9	5162.2	
329.1	3851.5	
329.31	5369.8	
329.52	6315.9	
329.73	3531.4	
329.93	4005.8	
330.14	5489.9	
330.35	5707	
330.56	5922.7	
330.76	4353.3	
330.97	5200.5	
331.18	5631.2	
331.39	3939.6	
331.59	3199.6	
331.8	6002.6	
332.01	6197.2	
332.22	3638.6	
332.42	4240.7	
332.63	5593.7	
332.84	5073.5	
333.05	3964.2	
333.25	3618.8	
333.46	5253	
333.67	5502.9	
333.88	3705.5	
334.08	4117.8	
334.29	7322.2	
334.5	6161	
334.7	3440.6	
334.91	5107	
335.12	5005.9	
335.33	5913.9	
335.53	3928.7	
335.74	5879	
335.95	5246.9	
336.16	5031.2	
336.36	3936.2	
336.57	4621.6	
336.78	4935.6	
336.98	6041.5	
337.19	4859.1	
337.4	3894.6	
337.61	6641.6	
337.81	5018.9	
338.02	3564.8	
338.23	4724	
338.43	6249	
338.64	5086.5	
338.85	3573.7	
339.05	4681.7	
339.26	6323.4	
339.47	4866	
339.68	3616.7	
339.88	5289.2	
340.09	5675.6	
340.3	5978	
340.5	4188.1	
340.71	3216	
340.92	4956.1	
341.13	6247.7	
341.33	3489.1	
341.54	4226.3	
341.75	5731.6	
341.95	5303.6	
342.16	3975.8	
342.37	4347.2	
342.57	5067.4	
342.78	5418.9	
342.99	4450.9	
343.19	3226.9	
343.4	5872.2	
343.61	5748	
343.81	3790.1	
344.02	3480.2	
344.23	5868.1	
344.43	6322.8	
344.64	4378.6	
344.85	4325.3	
345.06	5704.3	
345.26	6082.5	
345.47	4091.8	
345.68	4827.1	
345.88	4781.3	
346.09	5890	
346.3	4197	
346.5	3175.7	
346.71	5469.4	
346.92	5162.2	
347.12	3257	
347.33	4095.9	
347.54	6068.8	
347.74	6374.6	
347.95	4119.8	
348.16	3021.4	
348.36	5236	
348.57	4919.9	
348.78	4074.1	
348.98	4376.5	
349.19	5463.3	
349.39	4931.5	
349.6	3241.9	
349.81	3603.1	
350.01	5689.9	
350.22	5199.1	
350.43	3861.1	
350.63	4760.2	
350.84	5494	
351.05	5240.8	
351.25	3555.3	
351.46	3251.5	
351.67	6068.1	
351.87	5104.9	
352.08	3806.5	
352.29	4370.4	
352.49	5853.8	
352.7	5586.9	
352.9	3459.7	
353.11	4314.4	
353.32	6612.2	
353.52	5261.9	
353.73	3396.2	
353.94	4379.2	
354.14	5755.5	
354.35	5559.6	
354.55	3471.3	
354.76	3947.1	
354.97	5679	
355.17	5471.5	
355.38	3277.4	
355.59	4700.8	
355.79	5115.1	
356	5530.9	
356.2	3929.4	
356.41	3394.2	
356.62	4841.4	
356.82	5353.4	
357.03	4154	
357.24	3763.5	
357.44	5098.1	
357.65	5240.1	
357.85	5072.1	
358.06	3938.9	
358.27	4812.7	
358.47	5046.9	
358.68	3258.3	
358.88	4204.5	
359.09	5679	
359.3	6040.1	
359.5	4828.4	
359.71	4317.8	
359.91	6571.2	
360.12	5802.6	
360.33	4111	
360.53	4628.4	
360.74	5109.7	
360.94	5118.6	
361.15	4334.9	
361.36	3552.5	
361.56	5896.1	
361.77	5317.9	
361.97	4838.7	
362.18	3770.3	
362.38	5857.9	
362.59	4941.1	
362.8	3448.1	
363	3282.2	
363.21	4760.2	
363.41	5402.5	
363.62	4007.2	
363.83	5013.4	
364.03	5459.2	
364.24	6486.6	
364.44	5084.4	
364.65	5090.6	
364.85	5240.1	
365.06	5119.9	
365.27	3619.4	
365.47	3674.1	
365.68	6249.7	
365.88	5178.6	
366.09	4054.3	
366.29	3686.3	
366.5	5470.1	
366.71	5941.8	
366.91	4996.4	
367.12	4139.6	
367.32	6505	
367.53	5750	
367.73	4080.9	
367.94	5017.5	
368.14	5638.7	
368.35	6635.4	
368.56	4153.3	
368.76	3438.5	
368.97	5800.5	
369.17	7584.3	
369.38	3590.1	
369.58	3893.2	
369.79	4816.1	
369.99	6164.4	
370.2	4911	
370.4	3993.5	
370.61	5519.3	
370.82	6737.1	
371.02	3867.2	
371.23	3226.9	
371.43	4741.7	
371.64	6111.1	
371.84	3867.9	
372.05	5075.5	
372.25	7367.2	
372.46	5767.1	
372.66	3850.2	
372.87	3826.3	
373.07	5859.2	
373.28	7455.3	
373.48	4868.7	
373.69	4524.6	
373.9	5296.7	
374.1	5292.6	
374.31	4761.5	
374.51	4263.9	
374.72	6105	
374.92	4961.5	
375.13	4931.5	
375.33	4098	
375.54	5656.5	
375.74	5035.3	
375.95	4126	
376.15	5425.1	
376.36	5621.7	
376.56	5513.8	
376.77	4212.7	
376.97	4663.2	
377.18	6683.2	
377.38	5710.4	
377.59	4952	
377.79	3672	
378	5498.1	
378.2	5975.3	
378.41	3753.9	
378.61	3659.7	
378.82	5963	
379.02	5044.8	
379.23	3833.8	
379.43	5032.5	
379.64	6045.6	
379.84	5624.4	
380.05	3660.4	
380.25	3650.2	
380.46	5810.1	
380.66	5321.3	
380.87	5025.7	
381.07	5444.9	
381.28	6318	
381.48	5756.2	
381.69	3769.6	
381.89	3818.1	
382.1	4752.7	
382.3	5924.8	
382.51	4919.2	
382.71	5762.3	
382.91	5784.8	
383.12	6305	
383.32	4116.4	
383.53	4368.3	
383.73	5606	
383.94	5461.2	
384.14	4283	
384.35	3469.3	
384.55	5287.9	
384.76	5824.4	
384.96	4137.6	
385.17	4449.6	
385.37	5743.2	
385.58	5014.8	
385.78	4463.9	
385.98	3379.8	
386.19	5321.3	
386.39	5621.7	
386.6	3866.6	
386.8	4113	
387.01	5810.8	
387.21	5806.7	
387.42	4546.5	
387.62	5085.1	
387.83	5082.4	
388.03	5730.9	
388.23	4151.9	
388.44	5014.1	
388.64	4752.7	
388.85	4901.5	
389.05	4499.4	
389.26	5154.1	
389.46	6753.5	
389.67	6128.9	
389.87	4475.5	
390.07	4534.2	
390.28	5338.4	
390.48	4942.4	
390.69	3714.3	
390.89	3977.8	
391.1	5101.5	
391.3	6040.1	
391.5	5217.5	
391.71	5799.2	
391.91	5727.5	
392.12	6884.6	
392.32	5284.4	
392.53	4463.2	
392.73	5201.2	
392.93	5397.1	
393.14	4176.5	
393.34	4887.8	
393.55	5799.8	
393.75	5362.3	
393.95	4211.3	
394.16	4126	
394.36	5099.4	
394.57	5855.1	
394.77	3616	
394.98	4050.9	
395.18	5132.9	
395.38	5141.8	
395.59	4906.3	
395.79	3866.6	
396	5158.8	
396.2	5615.5	
396.4	4638	
396.61	4603.8	
396.81	5909.1	
397.02	5107	
397.22	4900.1	
397.42	4966.3	
397.63	5797.1	
397.83	5051.7	
398.04	3781.2	
398.24	4186.7	
398.44	5597.8	
398.65	4728.8	
398.85	3621.5	
399.05	3736.9	
399.26	4975.2	
399.46	6713.9	
399.67	4105.5	
399.87	3784.6	
400.07	5348.6	
400.28	5773.2	
400.48	3874.8	
400.69	4864.6	
400.89	5814.2	
401.09	6269.5	
401.3	3693.2	
401.5	4887.1	
401.7	6518	
401.91	6797.9	
402.11	4056.3	
402.32	4371.7	
402.52	5875.6	
402.72	5828.5	
402.93	4528.7	
403.13	3401	
403.33	6677.1	
403.54	5416.2	
403.74	4268.6	
403.94	5167	
404.15	5532.9	
404.35	6695.5	
404.56	4012	
404.76	5984.8	
404.96	5861.3	
405.17	5728.9	
405.37	5458.5	
405.57	4547.2	
405.78	5851.7	
405.98	5399.8	
406.18	4029.7	
406.39	4951.3	
406.59	5920	
406.79	5583.4	
407	3855.6	
407.2	4022.2	
407.4	5972.6	
407.61	6158.2	
407.81	3919.8	
408.01	5933.6	
408.22	4773.1	
408.42	6865.5	
408.62	4874.8	
408.83	4350.6	
409.03	5255.1	
409.23	5180	
409.44	4394.3	
409.64	4711	
409.84	6171.9	
410.05	6106.4	
410.25	4493.2	
410.45	4272.1	
410.66	5554.8	
410.86	8042.4	
411.06	4597.7	
411.27	4498.7	
411.47	7713.3	
411.67	5719.3	
411.88	4703.5	
412.08	4885.8	
412.28	6279.1	
412.49	6735.1	
412.69	4384	
412.89	4436.6	
413.09	6608.8	
413.3	6404.7	
413.5	4564.9	
413.7	4109.6	
413.91	5713.2	
414.11	6569.2	
414.31	4219.5	
414.52	4721.3	
414.72	6146	
414.92	6013.5	
415.12	4292.5	
415.33	4828.4	
415.53	6367.1	
415.73	6645.7	
415.94	5207.3	
416.14	4592.9	
416.34	5475.6	
416.55	5297.4	
416.75	5808.7	
416.95	5185.5	
417.15	6384.9	
417.36	7180.9	
417.56	5948.7	
417.76	4969.7	
417.97	6809.5	
418.17	6436.1	
418.37	4603.8	
418.57	4616.8	
418.78	6216.3	
418.98	5905	
419.18	5497.4	
419.38	5457.8	
419.59	5932.3	
419.79	5539.1	
419.99	4497.3	
420.2	4934.9	
420.4	6473.6	
420.6	6680.5	
420.8	4376.5	
421.01	4244.8	
421.21	6193.7	
421.41	6476.4	
421.61	4849.6	
421.82	4556	
422.02	5753.4	
422.22	6767.2	
422.42	5328.1	
422.63	5048.2	
422.83	5934.3	
423.03	7135.8	
423.23	5017.5	
423.44	3992.9	
423.64	6029.2	
423.84	5810.1	
424.04	4413.4	
424.25	4158.7	
424.45	6976.7	
424.65	6928.3	
424.85	3947.8	
425.06	4504.8	
425.26	6905.1	
425.46	5911.1	
425.66	5013.4	
425.87	4702.1	
426.07	6650.4	
426.27	6556.9	
426.47	4792.2	
426.67	4202.4	
426.88	7046.4	
427.08	6450.4	
427.28	5077.6	
427.48	4159.4	
427.69	5433.9	
427.89	6053.1	
428.09	5102.9	
428.29	4225.6	
428.5	6747.4	
428.7	6238.8	
428.9	4072	
429.1	4642.7	
429.3	6150.7	
429.51	6507.8	
429.71	4416.1	
429.91	5211.4	
430.11	6447	
430.31	6703	
430.52	4660.5	
430.72	4960.2	
430.92	7036.8	
431.12	6525.5	
431.32	4370.4	
431.53	4780.6	
431.73	5364.3	
431.93	7068.9	
432.13	4282.3	
432.33	4113.7	
432.54	5843.5	
432.74	6195.8	
432.94	4053.6	
433.14	5098.8	
433.34	6405.4	
433.55	5825.8	
433.75	5038	
433.95	6797.9	
434.15	6137.1	
434.35	5757.5	
434.56	4242	
434.76	3682.2	
434.96	6091.3	
435.16	6337.8	
435.36	4087.7	
435.56	5201.2	
435.77	5674.2	
435.97	5822.4	
436.17	5943.9	
436.37	5082.4	
436.57	5650.3	
436.78	5528.2	
436.98	5689.9	
437.18	5733.6	
437.38	6279.8	
437.58	5909.8	
437.78	5904.3	
437.99	4530.8	
438.19	6397.9	
438.39	7956.4	
438.59	4416.8	
438.79	3936.2	
438.99	7065.5	
439.2	5920	
439.4	4111.6	
439.6	4036.5	
439.8	6211.5	
440	7258	
440.2	5032.5	
440.4	5197.7	
440.61	6511.2	
440.81	7086	
441.01	4132.8	
441.21	5072.1	
441.41	6852.5	
441.61	6492.1	
441.81	5324.7	
442.02	6336.4	
442.22	7423.9	
442.42	6610.2	
442.62	4214.7	
442.82	4313	
443.02	6879.8	
443.22	5972.6	
443.43	4614.8	
443.63	4210.6	
443.83	5756.2	
444.03	5847	
444.23	5354.1	
444.43	5042.8	
444.63	6087.2	
444.83	7389.1	
445.04	4252.9	
445.24	5597.1	
445.44	6520.7	
445.64	6602	
445.84	5147.9	
446.04	5140.4	
446.24	5866.7	
446.44	6916.7	
446.65	4351.3	
446.85	4678.2	
447.05	6070.2	
447.25	6784.2	
447.45	4822.3	
447.65	4133.5	
447.85	6182.1	
448.05	5918.6	
448.25	5231.9	
448.46	5020.9	
448.66	6206	
448.86	5831.9	
449.06	4020.8	
449.26	5214.8	
449.46	6581.5	
449.66	5595.7	
449.86	4623.6	
450.06	4637.3	
450.26	5743.2	
450.47	6344.6	
450.67	4960.2	
450.87	5246.2	
451.07	6423.1	
451.27	6197.8	
451.47	4245.4	
451.67	4852.3	
451.87	5882.4	
452.07	7096.2	
452.27	4431.1	
452.47	4499.4	
452.67	6220.4	
452.88	6714.6	
453.08	3889.8	
453.28	5829.2	
453.48	7344.7	
453.68	6210.1	
453.88	4349.9	
454.08	4581.3	
454.28	6451.1	
454.48	6139.1	
454.68	5134.3	
454.88	5683.1	
455.08	6598.6	
455.28	6326.2	
455.48	4227.7	
455.68	4820.2	
455.89	7041.6	
456.09	6645.7	
456.29	4491.2	
456.49	4611.3	
456.69	6857.3	
456.89	6144.6	
457.09	5045.5	
457.29	5415.5	
457.49	6337.8	
457.69	6509.1	
457.89	4842.8	
458.09	4246.1	
458.29	6171.2	
458.49	6862.7	
458.69	5229.1	
458.89	4597.7	
459.09	7076.4	
459.29	7199.3	
459.49	4762.9	
459.69	5477.6	
459.9	6622.4	
460.1	6063.4	
460.3	4601.1	
460.5	4433.2	
460.7	6597.9	
460.9	6214.9	
461.1	4061.1	
461.3	5356.8	
461.5	7130.3	
461.7	6808.1	
461.9	4377.9	
462.1	4881	
462.3	6230.6	
462.5	6860	
462.7	4491.9	
462.9	4538.3	
463.1	7821.2	
463.3	7394.5	
463.5	4675.5	
463.7	5607.3	
463.9	6358.9	
464.1	6731	
464.3	4661.9	
464.5	5041.4	
464.7	6926.9	
464.9	6525.5	
465.1	6317.3	
465.3	5285.8	
465.5	7350.2	
465.7	7228.6	
465.9	5532.9	
466.1	5450.3	
466.3	7006.8	
466.5	6869.6	
466.7	6195.1	
466.9	5063.3	
467.1	6804.7	
467.3	7642.3	
467.5	6124.1	
467.7	5021.6	
467.9	7914	
468.1	8746.9	
468.3	5772.5	
468.5	6203.3	
468.7	6673	
468.9	6673	
469.1	5191.6	
469.3	5996.5	
469.5	8725	
469.7	6162.3	
469.9	5777.3	
470.1	4943.1	
470.3	6698.9	
470.5	6685.3	
470.7	6223.8	
470.9	5099.4	
471.1	6384.9	
471.3	7053.2	
471.5	4808.6	
471.69	6840.2	
471.89	6372.6	
472.09	5883.1	
472.29	5591.6	
472.49	6140.5	
472.69	6078.4	
472.89	6966.5	
473.09	4762.9	
473.29	5059.2	
473.49	6263.4	
473.69	6527.6	
473.89	5898.1	
474.09	5141.8	
474.29	7759.1	
474.49	7441.6	
474.69	5844.9	
474.89	5251.7	
475.09	6492.1	
475.29	6476.4	
475.49	4675.5	
475.69	4906.9	
475.88	8187.8	
476.08	6785.6	
476.28	4582	
476.48	5228.5	
476.68	7348.1	
476.88	7060.7	
477.08	4994.3	
477.28	5260.5	
477.48	6638.1	
477.68	7385	
477.88	4809.3	
478.08	5129.5	
478.28	7593.2	
478.48	6782.2	
478.67	5176.6	
478.87	4643.4	
479.07	7328.3	
479.27	6881.2	
479.47	5444.9	
479.67	5354.1	
479.87	7233.4	
480.07	7736.5	
480.27	4631.8	
480.47	6243.6	
480.67	6946.7	
480.87	7503.1	
481.06	4969.1	
481.26	5715.9	
481.46	6761	
481.66	6753.5	
481.86	5358.2	
482.06	6397.2	
482.26	6475	
482.46	7554.3	
482.66	5371.8	
482.86	4952.7	
483.05	6881.9	
483.25	6306.4	
483.45	7808.2	
483.65	5296.7	
483.85	6397.9	
484.05	6763.8	
484.25	5825.1	
484.45	6210.8	
484.65	7613	
484.84	7564.5	
485.04	5209.3	
485.24	5213.4	
485.44	7851.2	
485.64	6143.9	
485.84	4399.7	
486.04	5854.5	
486.24	6509.1	
486.44	6949.4	
486.63	4397	
486.83	5063.3	
487.03	6403.3	
487.23	6532.3	
487.43	4542.4	
487.63	6854.6	
487.83	6640.9	
488.02	7690.8	
488.22	5436.7	
488.42	6040.8	
488.62	7605.5	
488.82	6384.2	
489.02	5115.8	
489.22	5170.4	
489.41	7345.4	
489.61	6998.6	
489.81	4891.9	
490.01	4850.3	
490.21	7234.1	
490.41	7917.4	
490.61	4754	
490.8	4967	
491	6724.8	
491.2	6087.2	
491.4	5612.8	
491.6	4753.3	
491.8	6784.9	
491.99	7000.6	
492.19	4612	
492.39	4961.5	
492.59	7262.8	
492.79	7372	
492.99	5828.5	
493.18	4793.6	
493.38	7391.8	
493.58	8093.6	
493.78	5581.4	
493.98	5161.6	
494.18	7063.4	
494.37	6462.7	
494.57	5683.8	
494.77	5520.6	
494.97	7138.5	
495.17	7361.8	
495.37	5071.5	
495.56	5399.1	
495.76	7557	
495.96	7164.5	
496.16	6296.1	
496.36	5215.5	
496.55	7314.7	
496.75	6836.8	
496.95	5461.9	
497.15	5406.6	
497.35	7301.7	
497.54	7288	
497.74	5177.9	
497.94	6692.1	
498.14	8002.1	
498.34	7748.8	
498.53	4847.5	
498.73	5672.9	
498.93	6581.5	
499.13	7253.9	
499.33	5446.9	
499.52	5907.7	
499.72	7132.4	
499.92	7541.3	
500.12	5084.4	
500.32	5387.5	
500.51	7419.8	
500.71	7193.8	
500.91	6152.8	
501.11	5838.1	
501.31	7357.7	
501.5	7831.4	
501.7	6471.6	
501.9	5380.7	
502.1	7182.2	
502.29	7473.7	
502.49	5855.1	
502.69	6408.8	
502.89	7393.2	
503.09	7341.3	
503.28	4970.4	
503.48	5092.6	
503.68	6614.3	
503.88	6713.2	
504.07	6054.5	
504.27	5585.5	
504.47	6980.2	
504.67	7190.4	
504.86	5937.1	
505.06	5759.6	
505.26	6752.8	
505.46	8607.6	
505.65	5575.3	
505.85	5892	
506.05	6763.8	
506.25	7244.3	
506.44	4945.8	
506.64	6020.3	
506.84	6711.2	
507.04	7593.2	
507.23	5226.4	
507.43	5803.9	
507.63	8726.4	
507.83	6937.2	
508.02	5760.3	
508.22	5403.9	
508.42	8902.5	
508.62	6659.3	
508.81	5618.9	
509.01	6231.3	
509.21	6624.5	
509.4	6907.8	
509.6	5877	
509.8	5206.6	
510	6809.5	
510.19	8395.3	
510.39	5219.6	
510.59	5173.9	
510.79	6611.5	
510.98	7997.3	
511.18	5293.3	
511.38	5438	
511.57	7396.6	
511.77	7185	
511.97	6111.1	
512.17	5110.4	
512.36	7502.4	
512.56	7410.9	
512.76	5184.8	
512.95	5009.3	
513.15	7602.1	
513.35	6186.9	
513.55	6029.2	
513.74	5203.9	
513.94	7497.6	
514.14	6860.7	
514.33	6189.6	
514.53	5899.5	
514.73	6870.3	
514.92	7048.4	
515.12	5393	
515.32	5213.4	
515.51	7104.4	
515.71	7753.6	
515.91	6950.1	
516.11	5158.2	
516.3	8769.4	
516.5	6797.9	
516.7	5829.2	
516.89	6398.5	
517.09	6853.9	
517.29	6793.1	
517.48	6124.8	
517.68	5490.6	
517.88	6599.9	
518.07	7157	
518.27	6032	
518.47	5000.5	
518.66	7845.1	
518.86	6389.7	
519.06	4895.3	
519.25	5454.4	
519.45	6805.4	
519.65	8110	
519.84	5894.1	
520.04	6608.8	
520.24	8607.6	
520.43	7355.6	
520.63	5690.6	
520.83	5421.7	
521.02	6640.9	
521.22	7303.1	
521.42	6059.3	
521.61	6546	
521.81	6903	
522.01	7097.6	
522.2	5891.3	
522.4	5685.8	
522.6	7585	
522.79	6382.8	
522.99	5747.3	
523.18	4958.8	
523.38	7144.7	
523.58	7178.1	
523.77	7007.5	
523.97	4885.8	
524.17	9029.5	
524.36	8178.2	
524.56	6390.3	
524.76	5946.6	
524.95	7101.7	
525.15	6797.9	
525.34	5651	
525.54	5626.5	
525.74	7422.5	
525.93	6412.2	
526.13	6812.2	
526.33	5566.4	
526.52	7749.5	
526.72	7194.5	
526.91	6780.8	
527.11	6091.3	
527.31	7681.2	
527.5	8245.1	
527.7	5963	
527.89	4958.1	
528.09	6664.1	
528.29	7304.4	
528.48	6367.1	
528.68	5966.4	
528.87	7578.2	
529.07	7647.1	
529.27	5866.1	
529.46	5297.4	
529.66	7206.8	
529.85	7672.4	
530.05	5174.5	
530.25	5981.4	
530.44	8558.5	
530.64	7172.7	
530.83	5603.9	
531.03	5859.2	
531.23	7548.1	
531.42	7539.9	
531.62	6609.5	
531.81	5801.9	
532.01	7692.2	
532.21	8186.4	
532.4	5438.7	
532.6	5864.7	
532.79	8596	
532.99	7653.9	
533.18	5831.9	
533.38	6908.5	
533.58	7148.1	
533.77	7953.6	
533.97	5800.5	
534.16	6604.7	
534.36	8202.8	
534.55	7206.8	
534.75	6747.4	
534.95	5774.6	
535.14	7996	
535.34	7193.1	
535.53	5470.8	
535.73	7471	
535.92	8569.4	
536.12	7340.6	
536.31	5556.1	
536.51	6812.9	
536.71	7665.5	
536.9	7319.4	
537.1	5740.5	
537.29	5959.6	
537.49	8150.9	
537.68	7230.7	
537.88	6334.4	
538.07	5496.1	
538.27	7370	
538.46	8414.4	
538.66	5405.3	
538.86	5831.9	
539.05	7495.6	
539.25	7854	
539.44	6085.2	
539.64	5695.4	
539.83	7329	
540.03	8266.3	
540.22	5567.7	
540.42	5823.1	
540.61	7659.4	
540.81	7638.9	
541	6328.9	
541.2	6868.2	
541.39	7114.6	
541.59	7516.7	
541.78	6526.2	
541.98	5622.4	
542.18	6767.9	
542.37	6807.4	
542.57	6021	
542.76	6477.7	
542.96	6858	
543.15	7684	
543.35	6109.1	
543.54	5532.2	
543.74	7925	
543.93	7510.6	
544.13	6118	
544.32	7357.7	
544.52	7818.5	
544.71	7040.2	
544.91	5223.7	
545.1	6504.3	
545.3	7073	
545.49	7826	
545.69	5161.6	
545.88	5855.8	
546.08	8681.3	
546.27	8330.5	
546.47	6367.8	
546.66	5569.8	
546.86	8063.5	
547.05	8703.9	
547.24	5836.7	
547.44	5681.1	
547.63	6948.1	
547.83	8113.4	
548.02	6082.5	
548.22	6354.8	
548.41	6795.2	
548.61	8190.5	
548.8	5685.2	
549	5615.5	
549.19	7548.1	
549.39	7805.5	
549.58	5291.3	
549.78	5969.8	
549.97	7843.7	
550.17	7400	
550.36	6845	
550.55	7866.9	
550.75	7369.3	
550.94	8411	
551.14	5633.3	
551.33	6148	
551.53	6737.8	
551.72	7716.7	
551.92	6089.3	
552.11	5829.9	
552.31	7742	
552.5	7916.1	
552.69	7613.7	
552.89	5407.3	
553.08	7780.9	
553.28	7522.9	
553.47	5921.4	
553.67	7098.9	
553.86	8514.8	
554.06	6711.9	
554.25	5021.6	
554.44	5684.5	
554.64	9304.6	
554.83	8699.8	
555.03	5603.9	
555.22	6087.9	
555.42	8003.5	
555.61	7745.4	
555.8	5863.3	
556	6131.6	
556.19	6777.4	
556.39	8094.9	
556.58	5968.5	
556.78	5954.8	
556.97	7656.7	
557.16	7298.3	
557.36	7165.8	
557.55	5524.1	
557.75	6636.8	
557.94	8383	
558.13	5702.9	
558.33	5428.5	
558.52	8178.2	
558.72	7094.8	
558.91	5554.8	
559.1	5842.2	
559.3	6773.3	
559.49	6541.2	
559.69	5052.3	
559.88	6117.3	
560.07	7597.3	
560.27	8030.1	
560.46	6342.6	
560.66	6498.2	
560.85	7372.7	
561.04	6629.3	
561.24	5508.4	
561.43	5854.5	
561.63	6920.8	
561.82	7172	
562.01	6886	
562.21	6107	
562.4	7657.4	
562.59	8570.1	
562.79	5971.9	
562.98	5526.1	
563.18	7493.5	
563.37	9012.4	
563.56	6372.6	
563.76	5461.9	
563.95	6947.4	
564.14	6877.8	
564.34	5840.1	
564.53	5681.1	
564.73	7479.9	
564.92	7846.5	
565.11	6005.3	
565.31	5343.8	
565.5	8070.4	
565.69	6938.5	
565.89	5655.1	
566.08	5819.6	
566.27	7929.1	
566.47	8282.7	
566.66	6551.5	
566.85	5074.9	
567.05	7467.6	
567.24	6845.7	
567.44	5424.4	
567.63	6880.5	
567.82	7739.3	
568.02	7410.2	
568.21	5524.7	
568.4	5867.4	
568.6	7279.8	
568.79	7351.5	
568.98	5262.6	
569.18	5513.1	
569.37	7189.7	
569.56	9215.9	
569.76	5794.4	
569.95	6804	
570.14	7662.1	
570.34	7519.5	
570.53	5282.4	
570.72	5227.1	
570.91	8047.2	
571.11	7106.5	
571.3	5822.4	
571.49	6748.7	
571.69	7276.4	
571.88	6799.9	
572.07	6284.5	
572.27	6309.1	
572.46	6788.3	
572.65	7807.5	
572.85	5511.8	
573.04	5928.9	
573.23	7927.7	
573.43	7377.5	
573.62	5247.6	
573.81	5926.1	
574	7372.7	
574.2	7127.6	
574.39	5608	
574.58	5750.7	
574.78	8140	
574.97	7401.4	
575.16	6051.7	
575.36	6290.7	
575.55	7711.3	
575.74	7911.3	
575.93	5193	
576.13	6215.6	
576.32	7151.5	
576.51	7654.6	
576.71	5589.6	
576.9	6997.2	
577.09	8039.6	
577.28	7455.3	
577.48	6136.4	
577.67	5088.5	
577.86	7206.8	
578.05	7518.1	
578.25	5773.9	
578.44	5842.2	
578.63	7232.1	
578.83	8514.1	
579.02	5190.9	
579.21	6667.5	
579.4	7494.9	
579.6	7204.8	
579.79	5872.9	
579.98	8185.7	
580.17	7809.6	
580.37	7922.2	
580.56	5350	
580.75	6153.5	
580.94	8359.1	
581.14	8221.2	
581.33	6610.2	
581.52	5613.5	
581.71	7728.4	
581.91	8395.3	
582.1	5234.6	
582.29	5888.6	
582.48	7384.3	
582.68	7249.8	
582.87	6236.1	
583.06	5931.6	
583.25	7706.5	
583.45	7064.1	
583.64	6638.8	
583.83	7339.2	
584.02	7129.7	
584.21	7615.7	
584.41	6587	
584.6	5867.4	
584.79	7330.4	
584.98	8086.1	
585.18	5259.2	
585.37	5308.3	
585.56	6866.8	
585.75	7696.9	
585.94	5605.3	
586.14	6279.1	
586.33	8372.8	
586.52	7236.8	
586.71	6035.4	
586.91	5685.8	
587.1	6750.1	
587.29	7803.4	
587.48	5819.6	
587.67	5575.3	
587.87	7615	
588.06	7781.6	
588.25	7035.5	
588.44	6320.7	
588.63	7299.6	
588.83	7943.4	
589.02	5737.7	
589.21	5597.8	
589.4	7088.7	
589.59	6901.7	
589.78	4892.6	
589.98	5166.3	
590.17	6630	
590.36	7250.5	
590.55	4606.6	
590.74	5568.4	
590.94	8696.4	
591.13	7222.5	
591.32	5315.8	
591.51	4880.3	
591.7	7722.9	
591.89	7087.3	
592.09	4923.3	
592.28	5493.3	
592.47	6318.7	
592.66	8226	
592.85	4880.3	
593.05	5128.1	
593.24	7014.3	
593.43	7692.9	
593.62	5208.7	
593.81	5804.6	
594	6988.4	
594.19	7193.1	
594.39	5133.6	
594.58	5081.7	
594.77	7312.6	
594.96	7961.1	
595.15	5102.2	
595.34	5754.1	
595.54	7385	
595.73	6481.1	
595.92	4444.1	
596.11	5627.1	
596.3	7875.8	
596.49	6576	
596.68	5394.3	
596.88	5900.9	
597.07	7660.1	
597.26	6443.6	
597.45	4954	
597.64	6195.1	
597.83	6712.6	
598.02	7361.1	
598.22	5046.2	
598.41	5825.1	
598.6	7144.7	
598.79	6563.7	
598.98	5092.6	
599.17	6092.7	
599.36	7185.6	
599.55	8372.8	
599.74	7239.6	
599.94	6950.1	
600.13	7783	
600.32	6528.9	
600.51	4911	
600.7	5057.8	
600.89	8494.3	
601.08	8464.9	
601.27	4859.8	
601.47	5841.5	
601.66	7688.1	
601.85	8371.4	
602.04	5465.3	
602.23	5636.7	
602.42	6737.8	
602.61	7437.5	
602.8	5516.5	
602.99	5196.4	
603.18	7032	
603.37	7342	
603.57	5986.9	
603.76	6540.5	
603.95	8183	
604.14	7688.8	
604.33	5335.6	
604.52	5683.8	
604.71	7335.8	
604.9	6935.1	
605.09	6263.4	
605.28	6164.4	
605.47	7916.1	
605.66	7578.2	
605.86	5975.3	
606.05	5305.6	
606.24	7857.4	
606.43	6517.3	
606.62	5735.7	
606.81	6431.3	
607	7815.7	
607.19	7096.2	
607.38	5102.2	
607.57	5362.3	
607.76	6868.9	
607.95	6367.1	
608.14	5761.6	
608.33	6349.4	
608.52	6819.1	
608.72	7806.2	
608.91	4965	
609.1	4932.2	
609.29	6964.5	
609.48	6548.7	
609.67	6009.4	
609.86	5033.2	
610.05	6607.4	
610.24	6944.7	
610.43	4866	
610.62	4538.3	
610.81	8152.3	
611	7892.2	
611.19	5070.8	
611.38	5878.4	
611.57	7311.2	
611.76	8570.1	
611.95	4812.7	
612.14	4676.9	
612.33	7115.3	
612.52	6626.5	
612.71	5324	
612.9	4524	
613.09	6249	
613.28	8549.6	
613.47	5081.7	
613.66	6047.7	
613.85	7195.9	
614.04	6739.9	
614.24	5202.5	
614.43	4425.7	
614.62	7313.3	
614.81	7281.9	
615	5823.1	
615.19	5775.3	
615.38	6574.7	
615.57	6864.1	
615.76	5601.2	
615.95	6582.2	
616.14	7385.7	
616.33	7021.8	
616.52	5991.7	
616.71	6299.6	
616.9	7252.5	
617.09	7099.6	
617.28	5308.3	
617.47	6524.8	
617.66	6359.6	
617.85	6464.1	
618.04	6149.4	
618.22	5652.4	
618.41	6746	
618.6	7591.8	
618.79	5526.1	
618.98	5184.8	
619.17	7854	
619.36	6289.3	
619.55	5337.7	
619.74	5428.5	
619.93	7166.5	
620.12	6580.8	
620.31	5907	
620.5	6094.8	
620.69	7747.5	
620.88	8056	
621.07	6814.3	
621.26	5780.7	
621.45	7337.2	
621.64	7387.7	
621.83	5866.7	
622.02	5014.8	
622.21	7395.9	
622.4	7024.5	
622.59	6445.6	
622.78	6205.3	
622.97	6700.3	
623.16	7709.2	
623.35	5792.3	
623.54	5008	
623.72	6870.3	
623.91	7004.1	
624.1	6032.6	
624.29	4691.9	
624.48	8131.1	
624.67	7378.1	
624.86	5922	
625.05	4984.8	
625.24	8127	
625.43	6509.1	
625.62	7776.1	
625.81	5122.7	
626	7676.5	
626.19	6882.5	
626.38	5991	
626.56	5436	
626.75	6645.7	
626.94	7395.2	
627.13	5967.1	
627.32	4664.6	
627.51	7328.3	
627.7	8796.7	
627.89	4786.1	
628.08	5985.5	
628.27	6471.6	
628.46	6808.1	
628.65	5102.9	
628.83	4736.3	
629.02	7387	
629.21	6644.3	
629.4	5581.4	
629.59	5713.2	
629.78	6582.9	
629.97	7540.6	
630.16	5851	
630.35	5214.1	
630.54	8032.8	
630.72	7746.8	
630.91	5239.4	
631.1	5840.1	
631.29	7154.2	
631.48	7352.9	
631.67	5943.2	
631.86	5342.5	
632.05	6727.6	
632.24	6759	
632.42	5010.7	
632.61	5695.4	
632.8	7002.7	
632.99	6573.3	
633.18	5659.2	
633.37	6083.8	
633.56	7124.9	
633.75	7049.8	
633.93	5672.2	
634.12	5274.9	
634.31	7992.5	
634.5	7570.7	
634.69	5308.3	
634.88	5946.6	
635.07	6860	
635.25	7519.5	
635.44	6378.7	
635.63	6485.2	
635.82	6800.6	
636.01	6260	
636.2	6297.5	
636.39	5762.3	
636.57	7929.7	
636.76	7685.3	
636.95	5221.6	
637.14	6563.1	
637.33	7281.9	
637.52	8168.7	
637.7	4962.2	
637.89	5991	
638.08	6866.2	
638.27	8382.3	
638.46	6010.1	
638.65	6562.4	
638.83	8310.7	
639.02	6713.9	
639.21	6024.4	
639.4	6397.9	
639.59	7262.1	
639.78	6797.2	
639.96	5261.2	
640.15	5298.1	
640.34	7008.8	
640.53	7271	
640.72	4961.5	
640.91	5337.7	
641.09	6560.3	
641.28	7977.5	
641.47	5339.1	
641.66	6170.5	
641.85	7190.4	
642.03	7490.1	
642.22	6033.3	
642.41	5472.9	
642.6	6640.2	
642.79	6067.4	
642.97	5225.7	
643.16	6057.9	
643.35	6616.3	
643.54	6470.9	
643.73	5183.4	
643.91	6065.4	
644.1	6309.1	
644.29	6875	
644.48	5263.3	
644.67	5285.8	
644.85	6492.1	
645.04	6820.4	
645.23	4882.4	
645.42	5145.2	
645.6	6328.9	
645.79	7645.8	
645.98	5190.9	
646.17	4259.8	
646.36	6118	
646.54	6759	
646.73	6117.3	
646.92	4856.4	
647.11	6398.5	
647.29	7583.6	
647.48	4886.5	
647.67	4631.8	
647.86	7765.9	
648.05	7778.2	
648.23	5225.1	
648.42	6560.3	
648.61	7097.6	
648.8	6909.2	
648.98	4947.2	
649.17	5257.1	
649.36	6495.5	
649.55	5941.2	
649.73	4971.1	
649.92	5681.7	
650.11	6337.8	
650.3	6726.9	
650.48	5098.1	
650.67	4810.7	
650.86	6922.8	
651.05	5891.3	
651.23	5111	
651.42	5033.9	
651.61	6412.2	
651.79	6574.7	
651.98	5273.5	
652.17	4900.1	
652.36	6928.3	
652.54	5994.4	
652.73	4902.8	
652.92	4797	
653.11	7004.7	
653.29	7009.5	
653.48	4222.9	
653.67	5265.3	
653.85	6728.3	
654.04	7661.5	
654.23	5514.5	
654.42	5023	
654.6	6295.5	
654.79	6910.5	
654.98	4517.8	
655.16	5121.3	
655.35	6006.7	
655.54	5946.6	
655.73	4732.2	
655.91	4538.3	
656.1	7120.8	
656.29	5870.2	
656.47	4190.8	
656.66	6029.2	
656.85	6255.9	
657.03	6175.3	
657.22	4666.6	
657.41	4764.3	
657.59	6243.6	
657.78	6031.3	
657.97	4379.9	
658.16	5156.8	
658.34	6929.6	
658.53	7361.8	
658.72	6064	
658.9	6590.4	
659.09	6248.4	
659.28	6456.6	
659.46	4874.2	
659.65	4829.1	
659.84	6083.1	
660.02	6746	
660.21	4686.4	
660.4	4655.7	
660.58	7111.9	
660.77	6403.3	
660.96	5279.7	
661.14	4302.8	
661.33	7696.9	
661.52	7504.4	
661.7	4232.5	
661.89	8145.5	
662.08	6127.5	
662.26	5651	
662.45	4609.3	
662.64	4698	
662.82	6716	
663.01	6014.2	
663.2	4735.6	
663.38	5506.3	
663.57	6658.6	
663.75	6548	
663.94	5087.8	
664.13	6394.4	
664.31	6060.6	
664.5	6784.9	
664.69	5188.2	
664.87	5905.7	
665.06	5863.3	
665.25	6569.2	
665.43	6101.6	
665.62	6186.9	
665.8	6916.7	
665.99	6193.7	
666.18	5049.6	
666.36	5186.8	
666.55	6922.1	
666.74	6821.8	
666.92	4709	
667.11	6354.8	
667.29	6260	
667.48	6865.5	
667.67	5893.4	
667.85	5087.2	
668.04	6255.2	
668.22	6325.5	
668.41	5162.9	
668.6	5266.7	
668.78	6020.3	
668.97	6274.3	
669.15	5451.7	
669.34	4435.9	
669.53	6098.2	
669.71	6459.3	
669.9	4668.7	
670.08	5275.6	
670.27	6022.4	
670.46	6668.9	
670.64	5483.1	
670.83	5842.2	
671.01	5995.8	
671.2	6644.3	
671.38	4667.3	
671.57	4576.5	
671.76	7286	
671.94	7851.9	
672.13	4513	
672.31	5652.4	
672.5	6747.4	
672.69	6109.1	
672.87	4709	
673.06	5026.4	
673.24	6665.5	
673.43	6137.1	
673.61	5441.5	
673.8	5019.6	
673.98	6750.1	
674.17	7004.7	
674.36	5614.8	
674.54	5477	
674.73	6636.8	
674.91	6815.6	
675.1	5217.5	
675.28	4782	
675.47	6293.4	
675.65	6832.7	
675.84	5010.7	
676.03	5362.9	
676.21	6096.1	
676.4	5610.1	
676.58	5815.5	
676.77	5587.5	
676.95	7582.9	
677.14	6066.1	
677.32	4695.3	
677.51	4447.5	
677.69	6851.1	
677.88	5767.8	
678.06	4648.9	
678.25	4676.9	
678.44	6337.8	
678.62	6040.1	
678.81	4422.9	
678.99	5414.1	
679.18	7202	
679.36	6706.4	
679.55	4951.3	
679.73	5597.8	
679.92	6697.5	
680.1	6088.6	
680.29	6207.4	
680.47	4932.9	
680.66	6045.6	
680.84	6965.8	
681.03	4289.8	
681.21	5450.3	
681.4	6124.1	
681.58	5928.2	
681.77	4761.5	
681.95	4627	
682.14	7028.6	
682.32	7288.7	
682.51	5648.3	
682.69	4476.9	
682.88	6012.2	
683.06	6767.9	
683.25	5388.2	
683.43	5804.6	
683.62	6328.9	
683.8	6692.8	
683.99	5845.6	
684.17	5113.1	
684.36	7598	
684.54	6121.4	
684.73	4356.7	
684.91	4532.2	
685.1	6559	
685.28	5887.2	
685.46	5307.7	
685.65	5325.4	
685.83	6856.6	
686.02	6311.8	
686.2	4705.5	
686.39	4901.5	
686.57	5847.6	
686.76	7556.3	
686.94	4700.1	
687.13	4887.1	
687.31	6690.7	
687.5	6268.8	
687.68	4293.9	
687.86	5646.2	
688.05	7845.1	
688.23	5664.7	
688.42	5644.2	
688.6	4762.9	
688.79	6044.9	
688.97	6080.4	
689.16	5112.4	
689.34	4099.4	
689.52	6907.1	
689.71	7014.3	
689.89	5407.3	
690.08	4709.6	
690.26	6346.7	
690.45	6199.2	
690.63	5628.5	
690.81	4822.3	
691	6018.3	
691.18	5995.1	
691.37	5032.5	
691.55	7273	
691.74	6016.2	
691.92	8046.5	
692.1	5075.5	
692.29	4443.4	
692.47	6300.2	
692.66	5472.9	
692.84	4680.3	
693.02	5395	
693.21	5634.6	
693.39	6127.5	
693.58	5311.7	
693.76	4805.9	
693.94	7362.4	
694.13	7165.2	
694.31	4704.2	
694.5	5806	
694.68	6017.6	
694.86	6315.3	
695.05	5147.9	
695.23	5456.5	
695.42	6628.6	
695.6	9056.8	
695.78	5689.3	
695.97	4756.1	
696.15	6716	
696.34	6063.4	
696.52	4478.2	
696.7	5384.8	
696.89	6450.4	
697.07	5907.7	
697.25	5307	
697.44	6898.9	
697.62	6367.1	
697.81	6850.5	
697.99	4997.7	
698.17	5497.4	
698.36	5792.3	
698.54	6476.4	
698.72	5324	
698.91	4287.1	
699.09	6042.9	
699.28	5931.6	
699.46	5064.6	
699.64	4876.2	
699.83	5872.9	
700.01	7144	
700.19	5758.9	
700.38	4073.4	
700.56	7178.8	
700.74	5976	
700.93	4510.3	
701.11	5376.6	
701.29	6549.4	
701.48	7663.5	
701.66	4725.3	
701.84	4792.2	
702.03	6064.7	
702.21	6654.5	
702.39	4356.7	
702.58	4919.2	
702.76	6425.2	
702.94	6523.5	
703.13	4308.2	
703.31	6764.4	
703.49	5754.1	
703.68	6733	
703.86	4519.2	
704.04	5462.6	
704.23	6366.5	
704.41	6665.5	
704.59	4711.7	
704.78	6003.3	
704.96	7397.3	
705.14	6746.7	
705.33	4412	
705.51	5376.6	
705.69	6141.2	
705.87	7004.1	
706.06	5646.2	
706.24	4478.2	
706.42	6509.8	
706.61	6776.7	
706.79	5681.7	
706.97	4522.6	
707.16	5913.2	
707.34	6539.8	
707.52	5667.4	
707.7	4702.1	
707.89	6216.3	
708.07	5788.2	
708.25	5615.5	
708.44	5741.8	
708.62	6125.5	
708.8	7212.9	
708.98	5859.2	
709.17	4813.4	
709.35	6470.2	
709.53	6557.6	
709.72	4549.9	
709.9	4679.6	
710.08	6646.3	
710.26	6797.2	
710.45	6208.1	
710.63	4838	
710.81	6380.1	
710.99	6384.2	
711.18	5481	
711.36	4971.1	
711.54	6203.3	
711.72	7027.9	
711.91	5057.8	
712.09	4491.9	
712.27	6530.3	
712.45	7548.1	
712.64	5401.2	
712.82	4336.2	
713	5828.5	
713.18	6026.5	
713.37	4461.8	
713.55	5780.7	
713.73	6965.8	
713.91	5471.5	
714.1	4795	
714.28	4356.7	
714.46	6630	
714.64	5831.2	
714.83	3915	
715.01	4759.5	
715.19	5939.1	
715.37	5375.9	
715.55	4487.8	
715.74	4852.3	
715.92	6960.4	
716.1	4941.1	
716.28	5961	
716.47	4995	
716.65	5704.3	
716.83	5799.2	
717.01	4826.4	
717.19	4967	
717.38	7935.9	
717.56	5466	
717.74	5171.1	
717.92	4223.6	
718.1	6792.4	
718.29	5962.3	
718.47	3880.9	
718.65	4564.9	
718.83	6627.9	
719.01	6458.6	
719.2	3710.2	
719.38	4810.7	
719.56	6157.6	
719.74	7707.2	
719.92	4384	
720.11	5416.2	
720.29	6200.6	
720.47	5295.4	
720.65	3926	
720.83	4803.9	
721.02	5732.9	
721.2	5475.6	
721.38	4921.3	
721.56	4130.1	
721.74	4976.6	
721.92	5250.3	
722.11	5470.1	
722.29	5117.2	
722.47	6481.8	
722.65	5692.7	
722.83	4203.1	
723.01	5210	
723.2	5704.3	
723.38	6032.6	
723.56	3614.7	
723.74	4823	
723.92	5229.1	
724.1	6405.4	
724.29	4133.5	
724.47	5428.5	
724.65	5343.8	
724.83	5304.9	
725.01	4035.9	
725.19	5030.5	
725.37	5339.7	
725.56	5386.8	
725.74	3861.1	
725.92	4184.7	
726.1	5205.9	
726.28	5560.9	
726.46	4660.5	
726.64	4325.3	
726.83	5560.9	
727.01	5776	
727.19	3891.8	
727.37	4749.9	
727.55	5683.8	
727.73	6120.7	
727.91	3875.4	
728.09	3710.2	
728.28	6276.3	
728.46	6883.9	
728.64	4878.9	
728.82	4797	
729	7418.4	
729.18	6581.5	
729.36	3979.2	
729.54	6478.4	
729.72	7723.6	
729.91	5850.4	
730.09	6016.9	
730.27	4629.8	
730.45	5725.4	
730.63	6493.4	
730.81	5394.3	
730.99	4307.6	
731.17	6920.1	
731.35	5472.2	
731.53	4857.8	
731.71	4470	
731.9	6677.1	
732.08	6876.4	
732.26	4760.2	
732.44	4399.7	
732.62	6904.4	
732.8	6322.1	
732.98	5201.2	
733.16	4197.7	
733.34	6418.3	
733.52	5172.5	
733.7	4760.2	
733.88	5051	
734.07	6300.9	
734.25	6008.1	
734.43	4214.7	
734.61	5911.8	
734.79	7563.1	
734.97	5923.4	
735.15	4345.1	
735.33	4790.2	
735.51	6312.5	
735.69	5902.2	
735.87	5914.5	
736.05	5070.8	
736.23	6150.7	
736.41	5877	
736.59	4810.7	
736.77	4940.4	
736.95	6511.2	
737.13	5964.4	
737.32	4453	
737.5	4742.4	
737.68	7107.1	
737.86	5939.8	
738.04	4307.6	
738.22	6292.7	
738.4	5739.8	
738.58	6048.3	
738.76	4961.5	
738.94	3870.7	
739.12	5829.2	
739.3	5738.4	
739.48	5657.2	
739.66	5356.1	
739.84	6164.4	
740.02	6091.3	
740.2	3945.8	
740.38	4393.6	
740.56	6530.3	
740.74	5383.4	
740.92	5052.3	
741.1	5010.7	
741.28	6041.5	
741.46	5800.5	
741.64	4600.4	
741.82	5148.6	
742	6009.4	
742.18	6023.8	
742.36	4885.1	
742.54	4361.5	
742.72	6663.4	
742.9	5348.6	
743.08	5281.7	
743.26	4016.7	
743.44	6867.5	
743.62	6669.6	
743.8	5413.5	
743.98	4471.4	
744.16	6386.2	
744.34	6063.4	
744.52	5367.7	
744.7	5289.2	
744.88	6530.3	
745.06	6066.8	
745.24	5498.1	
745.42	5508.4	
745.6	6667.5	
745.78	6342.6	
745.96	4176.5	
746.14	4500.8	
746.32	7472.4	
746.5	6700.3	
746.68	5192.3	
746.86	4621.6	
747.03	7094.2	
747.21	5380	
747.39	5084.4	
747.57	4640.7	
747.75	6244.9	
747.93	6680.5	
748.11	4592.9	
748.29	4482.3	
748.47	7890.8	
748.65	5965.1	
748.83	5316.5	
749.01	5046.2	
749.19	6467.5	
749.37	5647.6	
749.55	4960.2	
749.73	5016.2	
749.91	6115.2	
750.09	5932.3	
750.26	5126.7	
750.44	4451.6	
750.62	6227.2	
750.8	6162.3	
750.98	4302.8	
751.16	4720.6	
751.34	6268.8	
751.52	5531.6	
751.7	5426.4	
751.88	4248.2	
752.06	6717.3	
752.24	6560.3	
752.42	4271.4	
752.59	4644.8	
752.77	6129.6	
752.95	7499.7	
753.13	5386.8	
753.31	4697.4	
753.49	5816.2	
753.67	6286.6	
753.85	5052.3	
754.03	4633.2	
754.21	6564.4	
754.38	6984.9	
754.56	4845.5	
754.74	3862.5	
754.92	5871.5	
755.1	6613.6	
755.28	3909.6	
755.46	3928.7	
755.64	7339.2	
755.82	7506.5	
755.99	4207.9	
756.17	4324.6	
756.35	4855.1	
756.53	6533	
756.71	3151.1	
756.89	4227.7	
757.07	6125.5	
757.25	5161.6	
757.42	4777.9	
757.6	5628.5	
757.78	6178	
757.96	5065.3	
758.14	4377.2	
758.32	3865.9	
758.5	4617.5	
758.67	5468.1	
758.85	4242	
759.03	4366.3	
759.21	5711.8	
759.39	5055.1	
759.57	3738.9	
759.75	4962.9	
759.92	6372.6	
760.1	5536.3	
760.28	5403.9	
760.46	5563.6	
760.64	5369.8	
760.82	5128.8	
760.99	4958.1	
761.17	4330.8	
761.35	6218.3	
761.53	5170.4	
761.71	4435.9	
761.89	5216.2	
762.06	6028.5	
762.24	5655.1	
762.42	4536.3	
762.6	4339	
762.78	5601.9	
762.96	6314.6	
763.13	4975.9	
763.31	4603.8	
763.49	6441.5	
763.67	5595.7	
763.85	5481	
764.02	6159.6	
764.2	6751.5	
764.38	5968.5	
764.56	4516.5	
764.74	5511.8	
764.91	6926.9	
765.09	5717.9	
765.27	4199.7	
765.45	4040.6	
765.63	6922.8	
765.8	6802	
765.98	3717.7	
766.16	4162.2	
766.34	5326.1	
766.52	5154.7	
766.69	5091.3	
766.87	3967.6	
767.05	5749.3	
767.23	6622.4	
767.41	4256.4	
767.58	4491.9	
767.76	6317.3	
767.94	6362.4	
768.12	4377.2	
768.29	5198.4	
768.47	5866.7	
768.65	6634.7	
768.83	3986.7	
769	5187.5	
769.18	5352.7	
769.36	6124.1	
769.54	5156.1	
769.72	4047.5	
769.89	6412.2	
770.07	6537.1	
770.25	4342.4	
770.43	5674.2	
770.6	7210.2	
770.78	7623.2	
770.96	4508.9	
771.14	5259.2	
771.31	6358.3	
771.49	5646.2	
771.67	3681.6	
771.85	3939.6	
772.02	4887.8	
772.2	5679.7	
772.38	4705.5	
772.55	4192.2	
772.73	5966.4	
772.91	5719.3	
773.09	4561.5	
773.26	4691.2	
773.44	5881.8	
773.62	5659.2	
773.8	4089.8	
773.97	3807.2	
774.15	5955.5	
774.33	5613.5	
774.5	4033.1	
774.68	4375.8	
774.86	6153.5	
775.04	5605.3	
775.21	4055	
775.39	4119.1	
775.57	5834.7	
775.74	6318.7	
775.92	3920.5	
776.1	3749.1	
776.27	5887.9	
776.45	7234.8	
776.63	4076.8	
776.81	3631.7	
776.98	5503.6	
777.16	6622.4	
777.34	4177.9	
777.51	4214.7	
777.69	5452.4	
777.87	5277.6	
778.04	4203.1	
778.22	4904.9	
778.4	5318.6	
778.57	5986.2	
778.75	3481.5	
778.93	3822.2	
779.1	5100.1	
779.28	4959.5	
779.46	3521.8	
779.64	4003.8	
779.81	6095.4	
779.99	7083.9	
780.17	4846.2	
780.34	5031.9	
780.52	5562.3	
780.69	5797.1	
780.87	4373.1	
781.05	3930.7	
781.22	5619.6	
781.4	5715.9	
781.58	4124.6	
781.75	3218.7	
781.93	5700.9	
782.11	5036	
782.28	5020.3	
782.46	4035.2	
782.64	4872.8	
782.81	5868.1	
782.99	4161.5	
783.17	4093.9	
783.34	5720.7	
783.52	4940.4	
783.69	4312.3	
783.87	5209.3	
784.05	5029.1	
784.22	5065.3	
784.4	5174.5	
784.58	4432.5	
784.75	5980.8	
784.93	5065.3	
785.1	4093.2	
785.28	4743.1	
785.46	5705.6	
785.63	5052.3	
785.81	4078.2	
785.99	3933.5	
786.16	5205.9	
786.34	5599.1	
786.51	3898	
786.69	4339.6	
786.87	4848.9	
787.04	5370.5	
787.22	3725.3	
787.39	4814.1	
787.57	4977.2	
787.75	6231.3	
787.92	4967.7	
788.1	4972.5	
788.27	5066.7	
788.45	4835.3	
788.63	4618.2	
788.8	3261.7	
788.98	5597.1	
789.15	4760.2	
789.33	3413.3	
789.5	4160.1	
789.68	5988.9	
789.86	6085.9	
790.03	4587.4	
790.21	3917.1	
790.38	5997.8	
790.56	5173.2	
790.73	3775.8	
790.91	3842	
791.09	5034.6	
791.26	5853.8	
791.44	4047.5	
791.61	3491.8	
791.79	5040.7	
791.96	5122	
792.14	3620.8	
792.32	3170.9	
792.49	5096.7	
792.67	5179.3	
792.84	3681.6	
793.02	3467.9	
793.19	5517.9	
793.37	6214.9	
793.54	3168.2	
793.72	3544.4	
793.89	6429.3	
794.07	5080.3	
794.25	4192.9	
794.42	3234.4	
794.6	6110.5	
794.77	5786.9	
794.95	4563.6	
795.12	3852.9	
795.3	5027.8	
795.47	5698.1	
795.65	4313.7	
795.82	4143	
796	4884.4	
796.17	6851.1	
796.35	3985.3	
796.52	4756.1	
796.7	5655.1	
796.87	5679	
797.05	4951.3	
797.22	4886.5	
797.4	5689.3	
797.57	6703	
797.75	4108.2	
797.92	3893.2	
798.1	6003.3	
798.27	5044.8	
798.45	3310.9	
798.62	3562.8	
798.8	5342.5	
798.97	5928.2	
799.15	4358.8	
799.32	4099.4	
799.5	4564.2	
799.67	5435.3	
799.85	4526	
800.02	3194.8	
800.2	4966.3	
800.37	5406.6	
800.55	4696	
800.72	3857.7	
800.9	5815.5	
801.07	6309.1	
801.25	5275.6	
801.42	4265.9	
801.6	5853.8	
801.77	5600.5	
801.95	3962.8	
802.12	3766.2	
802.29	5623	
802.47	5630.5	
802.64	4197.7	
802.82	3169.6	
802.99	4980.7	
803.17	6099.5	
803.34	4179.9	
803.52	3665.9	
803.69	6717.3	
803.87	4756.7	
804.04	4092.5	
804.21	4206.5	
804.39	6134.3	
804.56	5217.5	
804.74	3494.5	
804.91	4287.8	
805.09	5072.8	
805.26	5164.3	
805.44	3433.1	
805.61	3931.4	
805.78	5796.4	
805.96	5795.1	
806.13	4250.2	
806.31	4607.2	
806.48	4577.2	
806.66	5115.8	
806.83	4285.7	
807	4225	
807.18	5019.6	
807.35	5466	
807.53	4138.3	
807.7	3360	
807.87	6270.9	
808.05	5089.9	
808.22	4591.5	
808.4	3364.8	
808.57	5106.3	
808.74	4731.5	
808.92	3796.9	
809.09	4827.7	
809.27	4926	
809.44	5593.7	
809.61	3275.4	
809.79	3746.4	
809.96	6244.3	
810.14	5812.8	
810.31	3207.1	
810.48	4043.4	
810.66	5216.9	
810.83	5965.7	
811.01	3773	
811.18	4220.2	
811.35	5877	
811.53	4497.3	
811.7	4589.5	
811.87	4316.4	
812.05	5083.7	
812.22	5013.4	
812.39	3658.4	
812.57	3574.4	
812.74	5103.5	
812.92	6844.3	
813.09	3947.1	
813.26	4446.1	
813.44	6587.6	
813.61	5025	
813.78	3292.5	
813.96	4468	
814.13	5062.6	
814.3	4698.7	
814.48	4844.1	
814.65	3997.6	
814.82	6357.6	
815	4853.7	
815.17	4111.6	
815.34	4997.7	
815.52	4996.4	
815.69	5034.6	
815.87	4054.3	
816.04	3474	
816.21	5150	
816.38	4486.4	
816.56	3945.1	
816.73	3663.8	
816.9	6522.8	
817.08	5922.7	
817.25	3720.5	
817.42	4757.4	
817.6	4649.6	
817.77	5160.2	
817.94	4184.7	
818.12	3668.6	
818.29	4834.6	
818.46	7656.7	
818.64	3823.6	
818.81	3610.6	
818.98	4782	
819.16	6968.6	
819.33	4459.8	
819.5	4108.2	
819.67	5458.5	
819.85	6181.5	
820.02	4008.6	
820.19	4289.1	
820.37	5302.9	
820.54	4846.2	
820.71	4225.6	
820.88	5281	
821.06	5316.5	
821.23	4863.2	
821.4	4225.6	
821.58	4166.9	
821.75	5887.2	
821.92	5271.5	
822.09	3373	
822.27	3463.1	
822.44	5137	
822.61	5053.7	
822.79	3344.3	
822.96	6541.2	
823.13	5722.7	
823.3	4819.6	
823.48	3927.3	
823.65	3476.8	
823.82	5831.2	
823.99	4677.6	
824.17	4980	
824.34	3542.3	
824.51	6741.9	
824.68	5188.9	
824.86	3795.6	
825.03	4188.1	
825.2	5063.9	
825.37	6238.8	
825.55	3685.7	
825.72	4144.4	
825.89	6806.1	
826.06	6372.6	
826.24	4048.2	
826.41	4057	
826.58	6279.8	
826.75	5470.1	
826.92	3168.2	
827.1	3508.9	
827.27	8567.3	
827.44	6790.4	
827.61	3768.3	
827.79	4670.7	
827.96	4840.7	
828.13	5177.3	
828.3	3900.7	
828.47	3319.8	
828.65	5377.3	
828.82	5319.9	
828.99	5211.4	
829.16	4539.7	
829.34	5730.2	
829.51	5543.2	
829.68	4138.3	
829.85	4296.6	
830.02	6069.5	
830.2	5782.1	
830.37	3155.9	
830.54	4988.2	
830.71	6609.5	
830.88	5104.9	
831.05	3248.8	
831.23	3759.4	
831.4	6307.7	
831.57	7077.8	
831.74	3841.3	
831.91	3362.8	
832.09	5302.2	
832.26	5718.6	
832.43	3939.6	
832.6	4515.8	
832.77	5409.4	
832.94	6081.8	
833.12	3130.7	
833.29	3938.2	
833.46	4959.5	
833.63	7382.9	
833.8	4403.1	
833.97	4009.2	
834.15	5778.7	
834.32	5491.3	
834.49	4138.3	
834.66	4236.6	
834.83	6014.2	
835	4828.4	
835.17	3789.4	
835.35	3870.7	
835.52	5635.3	
835.69	5531.6	
835.86	4054.3	
836.03	3353.2	
836.2	5667.4	
836.37	5296.7	
836.55	4016.7	
836.72	3711.6	
836.89	5275.6	
837.06	5778.7	
837.23	4040.6	
837.4	4428.4	
837.57	6573.3	
837.75	7308.5	
837.92	3680.9	
838.09	3838.6	
838.26	5266.7	
838.43	6070.2	
838.6	4199	
838.77	3739.6	
838.94	6963.1	
839.11	6609.5	
839.29	3976.5	
839.46	3149.1	
839.63	5690.6	
839.8	5402.5	
839.97	3817.4	
840.14	3844	
840.31	5490.6	
840.48	5762.3	
840.65	3205.1	
840.82	3781.2	
841	5727.5	
841.17	5683.1	
841.34	3504.1	
841.51	3646.1	
841.68	5639.4	
841.85	5363.6	
842.02	3667.9	
842.19	3018.7	
842.36	5464	
842.53	5455.1	
842.7	3327.9	
842.87	4366.3	
843.05	7202.7	
843.22	5384.8	
843.39	3321.1	
843.56	3598.3	
843.73	5199.8	
843.9	5816.2	
844.07	5814.9	
844.24	4774.5	
844.41	8514.1	
844.58	4943.8	
844.75	3466.5	
844.92	3758.7	
845.09	5765.7	
845.26	5779.4	
845.43	3512.3	
845.6	3728.7	
845.77	5725.4	
845.94	5468.1	
846.12	3917.8	
846.29	4176.5	
846.46	5905.7	
846.63	5759.6	
846.8	3568.9	
846.97	4236.6	
847.14	6169.8	
847.31	5666.7	
847.48	3959.4	
847.65	4380.6	
847.82	6004	
847.99	5973.2	
848.16	4719.2	
848.33	4417.5	
848.5	5269.4	
848.67	6264.7	
848.84	3535.5	
849.01	3721.2	
849.18	5093.3	
849.35	4768.4	
849.52	4431.8	
849.69	3474.7	
849.86	5925.5	
850.03	6154.8	
850.2	3592.1	
850.37	4341	
850.54	6103.6	
850.71	5343.2	
850.88	4216.8	
851.05	3442.6	
851.22	5638.1	
851.39	6274.3	
851.56	3311.6	
851.73	4046.8	
851.9	5004.6	
852.07	5952.1	
852.24	3908.9	
852.41	3426.9	
852.58	5553.4	
852.75	5084.4	
852.92	3960.8	
853.09	3384.6	
853.26	5332.9	
853.43	6127.5	
853.6	3503.4	
853.77	3041.2	
853.94	6292.7	
854.11	5610.1	
854.28	5326.8	
854.44	3828.3	
854.61	6785.6	
854.78	5781.4	
854.95	3508.2	
855.12	4482.3	
855.29	4588.1	
855.46	6441.5	
855.63	3505.4	
855.8	4885.8	
855.97	5290.6	
856.14	6076.3	
856.31	5038.7	
856.48	3804.4	
856.65	5277.6	
856.82	4934.9	
856.99	3381.9	
857.16	3829.7	
857.33	6920.1	
857.49	5370.5	
857.66	3840.6	
857.83	4147.8	
858	5322	
858.17	5487.9	
858.34	3343	
858.51	3502	
858.68	6397.2	
858.85	6423.1	
859.02	4123.2	
859.19	4383.3	
859.36	4950.6	
859.52	4996.4	
859.69	3514.3	
859.86	4179.2	
860.03	5085.8	
860.2	6334.4	
860.37	3192.8	
860.54	3582.6	
860.71	5975.3	
860.88	6397.9	
861.05	3918.4	
861.21	4429.1	
861.38	6453.1	
861.55	4893.3	
861.72	3186.6	
861.89	3971	
862.06	5982.1	
862.23	6490	
862.4	3457	
862.56	3673.4	
862.73	5803.9	
862.9	5478.3	
863.07	4125.3	
863.24	3192.1	
863.41	4886.5	
863.58	5015.5	
863.75	3638.6	
863.91	4095.9	
864.08	6333	
864.25	5886.5	
864.42	4417.5	
864.59	4986.1	
864.76	6670.2	
864.93	5007.3	
865.09	3435.1	
865.26	3826.3	
865.43	6238.8	
865.6	6609.5	
865.77	3085.6	
865.94	3486.3	
866.1	6218.3	
866.27	6025.1	
866.44	5316.5	
866.61	3336.8	
866.78	5442.1	
866.95	5848.3	
867.11	3389.4	
867.28	3082.2	
867.45	6044.9	
867.62	5180	
867.79	4073.4	
867.96	3457	
868.12	5004.6	
868.29	6018.3	
868.46	3494.5	
868.63	4734.2	
868.8	6163.7	
868.97	5965.7	
869.13	3747.1	
869.3	3624.9	
869.47	5750	
869.64	6021	
869.81	3543	
869.97	3532.7	
870.14	5752.7	
870.31	6475	
870.48	3411.9	
870.65	4506.2	
870.81	5330.9	
870.98	5324	
871.15	4037.9	
871.32	3679.5	
871.48	5893.4	
871.65	6455.2	
871.82	3498.6	
871.99	3893.2	
872.16	6909.2	
872.32	6272.9	
872.49	3507.5	
872.66	3576.4	
872.83	5962.3	
872.99	5218.2	
873.16	4050.9	
873.33	3502.7	
873.5	5558.9	
873.67	5602.6	
873.83	3679.5	
874	4760.8	
874.17	5748.6	
874.34	6892.1	
874.5	4569	
874.67	4368.3	
874.84	6279.8	
875.01	5025	
875.17	4967.7	
875.34	3491.1	
875.51	5647.6	
875.68	6821.1	
875.84	4247.5	
876.01	5301.5	
876.18	5851	
876.34	5834	
876.51	3588	
876.68	3392.1	
876.85	5422.3	
877.01	6197.8	
877.18	5049.6	
877.35	3506.8	
877.52	5537	
877.68	4924.7	
877.85	3425.6	
878.02	3460.4	
878.18	5457.8	
878.35	5179.3	
878.52	2775	
878.69	3928	
878.85	5952.1	
879.02	5927.5	
879.19	5091.3	
879.35	3795.6	
879.52	5885.9	
879.69	6080.4	
879.86	3023.5	
880.02	3976.5	
880.19	5448.3	
880.36	6690.7	
880.52	4005.1	
880.69	4210.6	
880.86	5913.9	
881.02	6066.8	
881.19	3905.5	
881.36	3853.6	
881.52	5844.2	
881.69	5170.4	
881.86	3760.8	
882.02	3665.2	
882.19	6225.1	
882.36	7254.6	
882.52	3602.4	
882.69	4924.7	
882.86	5693.4	
883.02	5564.3	
883.19	4298	
883.36	4063.2	
883.52	6021	
883.69	6916	
883.86	3587.4	
884.02	3164.8	
884.19	5939.1	
884.36	5535	
884.52	4004.5	
884.69	3729.4	
884.86	5207.3	
885.02	6618.4	
885.19	3895.9	
885.36	4078.2	
885.52	5537.7	
885.69	5690.6	
885.86	5136.3	
886.02	4544.4	
886.19	6016.9	
886.35	5367.7	
886.52	3872.7	
886.69	5050.3	
886.85	5091.3	
887.02	6354.8	
887.19	6354.8	
887.35	6354.8	
887.52	6354.8	
887.68	6354.8	
887.85	6354.8	
888.02	6354.8	
888.18	6354.8	
888.35	6354.8	
888.51	6354.8	
888.68	6354.8	
888.85	6354.8	
889.01	6354.8	
889.18	6354.8	
889.35	6354.8	
889.51	6354.8	
889.68	6354.8	
889.84	6354.8	
890.01	6354.8	
890.17	6354.8	
890.34	6354.8	
890.51	6354.8	
890.67	6354.8	
890.84	6354.8	
891	6354.8	
891.17	6354.8	
891.34	6354.8	
891.5	6354.8	
891.67	6354.8	
891.83	6354.8	
892	6354.8	
892.16	6354.8	
892.33	6354.8	
892.5	6354.8	
892.66	6354.8	
892.83	6354.8	
892.99	6354.8	
893.16	6354.8	
893.32	6354.8	
893.49	6354.8	
893.65	6354.8	
893.82	6354.8	
893.99	6354.8	
894.15	6354.8	
894.32	6354.8	
894.48	6354.8	
894.65	6354.8	
894.81	6354.8	
894.98	6354.8	
895.14	6354.8	
895.31	6354.8	
895.47	6354.8	
895.64	6354.8	
895.81	6354.8	
895.97	6354.8	
896.14	6354.8	
896.3	6354.8	
896.47	6354.8	
896.63	6354.8	
896.8	6354.8	
896.96	6354.8	
897.13	6354.8	
897.29	6354.8	
897.46	6354.8	
897.62	6354.8	
897.79	6354.8	
897.95	6354.8	
898.12	6354.8	
898.28	6354.8	
898.45	6354.8	
898.61	6354.8	
898.78	6354.8	
898.94	6354.8	
899.11	6354.8	
899.27	6354.8	
899.44	6354.8	
899.6	6354.8	
899.77	6354.8	
899.93	6354.8	
900.1	6354.8	
900.26	6354.8	
900.43	6354.8	
900.59	6354.8	
900.76	6354.8	
900.92	6354.8	
901.09	6354.8	
901.25	6354.8	
901.42	6354.8	
901.58	6354.8	
901.75	6354.8	
901.91	6354.8	
902.07	6354.8	
902.24	6354.8	
902.4	6354.8	
902.57	6354.8	
902.73	6354.8	
902.9	6354.8	
903.06	6354.8	
903.23	6354.8	
903.39	6354.8	
903.56	6354.8	
903.72	6354.8	
903.88	6354.8	
904.05	6354.8	
904.21	6354.8	
904.38	6354.8	
904.54	6354.8	
904.71	6354.8	
904.87	6354.8	
905.03	6354.8	
905.2	6354.8	
905.36	6354.8	
905.53	6354.8	
905.69	6354.8	
905.86	6354.8	
906.02	6354.8	
906.18	6354.8	
906.35	6354.8	
906.51	6354.8	
906.68	6354.8	
906.84	6354.8	
907.01	6354.8	
907.17	6354.8	
907.33	6354.8	
907.5	6354.8	
907.66	6354.8	
907.83	6354.8	
907.99	6354.8	
908.15	6354.8	
908.32	6354.8	
908.48	6354.8	
908.65	6354.8	
908.81	6354.8	
908.97	6354.8	
909.14	6354.8	
909.3	6354.8	
909.47	6354.8	
909.63	6354.8	
909.79	6354.8	
909.96	6354.8	
910.12	6354.8	
910.28	6354.8	
910.45	6354.8	
910.61	6354.8	
910.78	6354.8	
910.94	6354.8	
911.1	6354.8	
911.27	6354.8	
911.43	6354.8	
911.59	6354.8	
911.76	6354.8	
911.92	6354.8	
912.08	6354.8	
912.25	6354.8	
912.41	6354.8	
912.57	6354.8	
912.74	6354.8	
912.9	6354.8	
913.07	6354.8	
913.23	6354.8	
913.39	6354.8	
913.56	6354.8	
913.72	6354.8	
913.88	6354.8	
914.05	6354.8	
914.21	6354.8	
914.37	6354.8	
914.54	6354.8	
914.7	6354.8	
914.86	6354.8	
915.03	6354.8	
915.19	6354.8	
