Wavelength	Intensities	
nm	a.u.	
179.22	1774.4	
179.44	1769.1	
179.65	1779.7	
179.86	1758.5	
180.08	1779	
180.29	4369.7	
180.51	3205.8	
180.72	5208.7	
180.94	5945.9	
181.15	2917	
181.37	2884.2	
181.58	5089.9	
181.79	5324.7	
182.01	3020.1	
182.22	3202.3	
182.44	5372.5	
182.65	4526	
182.87	3987.4	
183.08	3479.5	
183.29	5603.9	
183.51	4625.7	
183.72	3266.5	
183.94	4680.3	
184.15	5022.3	
184.37	4948.6	
184.58	2924.5	
184.79	3911.6	
185.01	4666.6	
185.22	5271.5	
185.44	4085	
185.65	3500	
185.86	4967.7	
186.08	4587.4	
186.29	2824.8	
186.51	3022.8	
186.72	4695.3	
186.94	5421	
187.15	3448.8	
187.36	3585.3	
187.58	6889.4	
187.79	5100.8	
188.01	3672	
188.22	5636	
188.43	6031.3	
188.65	5251.7	
188.86	3007.1	
189.08	3626.3	
189.29	4851.6	
189.5	4883	
189.72	3220.1	
189.93	3411.9	
190.15	5477	
190.36	6453.8	
190.57	3624.2	
190.79	3508.9	
191	5518.6	
191.22	5535	
191.43	3727.3	
191.64	3062.4	
191.86	5668.1	
192.07	5470.1	
192.29	3205.1	
192.5	3281.5	
192.71	5545.2	
192.93	4799.8	
193.14	3304.1	
193.35	3340.2	
193.57	4838	
193.78	5504.3	
194	2685.6	
194.21	3289.7	
194.42	4637.3	
194.64	5057.8	
194.85	3543	
195.07	4124.6	
195.28	5093.3	
195.49	4406.5	
195.71	4306.9	
195.92	3127.9	
196.13	5240.8	
196.35	5292	
196.56	4566.3	
196.78	3610.6	
196.99	6408.8	
197.2	5983.5	
197.42	4040.6	
197.63	3603.7	
197.84	4579.9	
198.06	5167	
198.27	3351.8	
198.48	4321.2	
198.7	4784.7	
198.91	5016.2	
199.13	3565.5	
199.34	3664.5	
199.55	5434.6	
199.77	4316.4	
199.98	3191.4	
200.19	3629.7	
200.41	4975.2	
200.62	4698.7	
200.83	3689.8	
201.05	3998.3	
201.26	4952.7	
201.47	4771.1	
201.69	3210.5	
201.9	3102.7	
202.11	5027.8	
202.33	5823.7	
202.54	3393.5	
202.76	3834.5	
202.97	5083.7	
203.18	5197.1	
203.4	3781.9	
203.61	3702.7	
203.82	5085.8	
204.04	4763.6	
204.25	3634.5	
204.46	3515	
204.68	4927.4	
204.89	5226.4	
205.1	3478.8	
205.32	3078.8	
205.53	5365.7	
205.74	5472.2	
205.96	2649.4	
206.17	3705.5	
206.38	5340.4	
206.6	5451	
206.81	4053.6	
207.02	3358	
207.24	5207.3	
207.45	5530.2	
207.66	3446.7	
207.88	2984.6	
208.09	5205.9	
208.3	5004.6	
208.52	3156.6	
208.73	3487	
208.94	5018.9	
209.15	5584.1	
209.37	3452.9	
209.58	3879.5	
209.79	5473.5	
210.01	4815.5	
210.22	2822.1	
210.43	2933.4	
210.65	5015.5	
210.86	5332.2	
211.07	3474	
211.29	3181.2	
211.5	5203.9	
211.71	5003.2	
211.93	3168.2	
212.14	3198.2	
212.35	4908.3	
212.56	5117.2	
212.78	3624.9	
212.99	2967.5	
213.2	5872.2	
213.42	4831.8	
213.63	3262.4	
213.84	3543.7	
214.06	4481.6	
214.27	4575.8	
214.48	3405.1	
214.69	3678.2	
214.91	5634.6	
215.12	5619.6	
215.33	3645.4	
215.55	4062.5	
215.76	6041.5	
215.97	5319.9	
216.18	3540.3	
216.4	3470.6	
216.61	4713.7	
216.82	5429.8	
217.04	3199.6	
217.25	3328.6	
217.46	5560.2	
217.67	5362.3	
217.89	2884.9	
218.1	2979.8	
218.31	5087.2	
218.53	5128.8	
218.74	3326.6	
218.95	3248.1	
219.16	4966.3	
219.38	5791.7	
219.59	3234.4	
219.8	3840.6	
220.01	6324.1	
220.23	5031.9	
220.44	4172.4	
220.65	3135.4	
220.87	5060.5	
221.08	5577.3	
221.29	2997.5	
221.5	3946.4	
221.72	6617.7	
221.93	4777.9	
222.14	3614	
222.35	4226.3	
222.57	5107	
222.78	5313.1	
222.99	3430.3	
223.2	3701.4	
223.42	5266.7	
223.63	5369.1	
223.84	2687.6	
224.05	2732	
224.27	6222.4	
224.48	5726.1	
224.69	4326.7	
224.9	3689.8	
225.12	5224.4	
225.33	4978.6	
225.54	2936.1	
225.75	3332	
225.97	4668	
226.18	4891.2	
226.39	3493.2	
226.6	3259.7	
226.82	4831.8	
227.03	4670.7	
227.24	3583.3	
227.45	3038.5	
227.67	5356.1	
227.88	5819.6	
228.09	4032.5	
228.3	4016.7	
228.52	5412.1	
228.73	4952.7	
228.94	3385.3	
229.15	3064.4	
229.36	4955.4	
229.58	4941.1	
229.79	3446.7	
230	3921.2	
230.21	5880.4	
230.43	5086.5	
230.64	3621.5	
230.85	3691.1	
231.06	5424.4	
231.28	5373.9	
231.49	2970.2	
231.7	3552.5	
231.91	5273.5	
232.12	5016.2	
232.34	3126.6	
232.55	3485.6	
232.76	5524.7	
232.97	5147.9	
233.18	3188.7	
233.4	3486.3	
233.61	5203.9	
233.82	4812.7	
234.03	3305.4	
234.25	3339.6	
234.46	6724.2	
234.67	5025.7	
234.88	3654.3	
235.09	3271.3	
235.31	5260.5	
235.52	4839.4	
235.73	3611.3	
235.94	3022.8	
236.15	4752.7	
236.37	5937.1	
236.58	3210.5	
236.79	3507.5	
237	5284.4	
237.21	4562.9	
237.43	3657.7	
237.64	2952.5	
237.85	8603.5	
238.06	4614.1	
238.27	3733.4	
238.48	3091.1	
238.7	5272.2	
238.91	4865.3	
239.12	3428.3	
239.33	3479.5	
239.54	4833.9	
239.76	4947.9	
239.97	3425.6	
240.18	3493.8	
240.39	6167.1	
240.6	5255.1	
240.82	3627.6	
241.03	2960.7	
241.24	4990.2	
241.45	5729.5	
241.66	3201	
241.87	3694.5	
242.09	5575.3	
242.3	5928.9	
242.51	3775.1	
242.72	3495.9	
242.93	5399.1	
243.14	5014.8	
243.36	3984	
243.57	4276.8	
243.78	5727.5	
243.99	5295.4	
244.2	3462.4	
244.41	3203.7	
244.63	4623.6	
244.84	5305.6	
245.05	3710.2	
245.26	3511.6	
245.47	5307.7	
245.68	5385.5	
245.9	4519.2	
246.11	3685	
246.32	4872.8	
246.53	5263.3	
246.74	5494.7	
246.95	2945.7	
247.16	4585.4	
247.38	5034.6	
247.59	2931.3	
247.8	3467.2	
248.01	4693.9	
248.22	4950.6	
248.43	3188.7	
248.64	3352.5	
248.86	4457.1	
249.07	4921.3	
249.28	3056.9	
249.49	3571.7	
249.7	5393	
249.91	5541.8	
250.12	2922.5	
250.34	2991.4	
250.55	5150	
250.76	5064.6	
250.97	3586	
251.18	3596.9	
251.39	5566.4	
251.6	5208	
251.81	3627.6	
252.03	3668.6	
252.24	4806.6	
252.45	5385.5	
252.66	3046.7	
252.87	3748.5	
253.08	5042.1	
253.29	6354.8	
253.5	3067.9	
253.72	4219.5	
253.93	4916.5	
254.14	5857.2	
254.35	3300	
254.56	3370.3	
254.77	5228.5	
254.98	4636.6	
255.19	3247.4	
255.41	4135.5	
255.62	5158.2	
255.83	5603.9	
256.04	3717.1	
256.25	3633.8	
256.46	6033.3	
256.67	4771.8	
256.88	3577.8	
257.09	3895.2	
257.31	4757.4	
257.52	4743.8	
257.73	4421.6	
257.94	3283.6	
258.15	4956.8	
258.36	5053	
258.57	4108.9	
258.78	2662.4	
258.99	5429.8	
259.2	4864.6	
259.41	3324.5	
259.63	3443.3	
259.84	5752.1	
260.05	6093.4	
260.26	4253.6	
260.47	3229.6	
260.68	5502.2	
260.89	4991.6	
261.1	3930.7	
261.31	3152.5	
261.52	5577.3	
261.73	5851	
261.95	4255.7	
262.16	3743.7	
262.37	5569.8	
262.58	5700.9	
262.79	4267.3	
263	3332	
263.21	5005.9	
263.42	4929.5	
263.63	3416.7	
263.84	3391.4	
264.05	5426.4	
264.26	5737	
264.47	4074.1	
264.69	3707.5	
264.9	5618.3	
265.11	5186.1	
265.32	3189.4	
265.53	3300.6	
265.74	5153.4	
265.95	4521.9	
266.16	3525.9	
266.37	3902.1	
266.58	5139	
266.79	4849.6	
267	3290.4	
267.21	3089.7	
267.42	4674.8	
267.63	5001.8	
267.84	3411.2	
268.06	3026.2	
268.27	5420.3	
268.48	5640.1	
268.69	3377.8	
268.9	3974.4	
269.11	5617.6	
269.32	4527.4	
269.53	3490.4	
269.74	3255.6	
269.95	5221.6	
270.16	4476.2	
270.37	3457	
270.58	3999.7	
270.79	4860.5	
271	5480.4	
271.21	3661.8	
271.42	3488.4	
271.63	5164.3	
271.84	4666	
272.05	2841.2	
272.26	3113.6	
272.47	5056.4	
272.68	5196.4	
272.89	3383.9	
273.11	3833.8	
273.32	4846.2	
273.53	5780.7	
273.74	3682.2	
273.95	3622.9	
274.16	5525.4	
274.37	5068.7	
274.58	3870	
274.79	2979.8	
275	5127.4	
275.21	5587.5	
275.42	4433.2	
275.63	3906.8	
275.84	5247.6	
276.05	6441.5	
276.26	3636.5	
276.47	3431.7	
276.68	4914.4	
276.89	5859.2	
277.1	3916.4	
277.31	3052.8	
277.52	5229.1	
277.73	5438.7	
277.94	3030.3	
278.15	3328.6	
278.36	5221	
278.57	4752.7	
278.78	3300	
278.99	3706.8	
279.2	4744.5	
279.41	4674.8	
279.62	4339.6	
279.83	3162.7	
280.04	6023.8	
280.25	4693.3	
280.46	4285.7	
280.67	3500	
280.88	4700.8	
281.09	5527.5	
281.3	3606.5	
281.51	4530.1	
281.72	4780	
281.93	5449.6	
282.14	3247.4	
282.35	3506.1	
282.56	5453.1	
282.77	5401.2	
282.98	3332	
283.19	4059.8	
283.4	6515.3	
283.61	4950.6	
283.82	3123.2	
284.03	4252.3	
284.24	5180	
284.45	5479	
284.66	4276.2	
284.87	4113.7	
285.08	5483.8	
285.29	5631.2	
285.5	2988.7	
285.71	3429	
285.92	5509	
286.12	6143.2	
286.33	4170.3	
286.54	3407.8	
286.75	5359.5	
286.96	4902.2	
287.17	3111.5	
287.38	4078.2	
287.59	4748.6	
287.8	4701.5	
288.01	3462.4	
288.22	3865.9	
288.43	5465.3	
288.64	4579.3	
288.85	4012.7	
289.06	3829.7	
289.27	5383.4	
289.48	5823.7	
289.69	4306.9	
289.9	3870	
290.11	5588.2	
290.32	4812.7	
290.53	4011.3	
290.74	3728	
290.94	5403.9	
291.15	5482.4	
291.36	3330	
291.57	3829	
291.78	4835.3	
291.99	4523.3	
292.2	3206.4	
292.41	3767.6	
292.62	5540.4	
292.83	5315.2	
293.04	4591.5	
293.25	3189.4	
293.46	4874.8	
293.67	5546.6	
293.88	3246	
294.09	3191.4	
294.29	4676.9	
294.5	5184.8	
294.71	3448.8	
294.92	3335.5	
295.13	4879.6	
295.34	5946.6	
295.55	2942.2	
295.76	3022.1	
295.97	5364.3	
296.18	6006	
296.39	3145.7	
296.6	3308.8	
296.81	5119.2	
297.01	5406	
297.22	3388	
297.43	3295.2	
297.64	4786.1	
297.85	4715.8	
298.06	2725.8	
298.27	3002.3	
298.48	5046.9	
298.69	4824.3	
298.9	3509.5	
299.11	3197.6	
299.31	4670.1	
299.52	4682.3	
299.73	3777.8	
299.94	3665.9	
300.15	5016.2	
300.36	4758.1	
300.57	3706.1	
300.78	3701.4	
300.99	4916.5	
301.2	5152.7	
301.4	3310.2	
301.61	3583.9	
301.82	5373.9	
302.03	5366.4	
302.24	3953.3	
302.45	3120.4	
302.66	5304.9	
302.87	5639.4	
303.08	3263.8	
303.29	4401.8	
303.49	4857.1	
303.7	4982.7	
303.91	2927.2	
304.12	4194.9	
304.33	4653.7	
304.54	5161.6	
304.75	3262.4	
304.96	3171.6	
305.16	5348.6	
305.37	5905	
305.58	2911.5	
305.79	3011.9	
306	5283.1	
306.21	4502.8	
306.42	3278.8	
306.63	4922	
306.83	4912.4	
307.04	5521.3	
307.25	3568.2	
307.46	3614	
307.67	4389.5	
307.88	5356.1	
308.09	3267.2	
308.29	3403	
308.5	5094.7	
308.71	5495.4	
308.92	3516.4	
309.13	3129.3	
309.34	4976.6	
309.55	5001.8	
309.75	4072	
309.96	3645.4	
310.17	5360.9	
310.38	4725.3	
310.59	3913.7	
310.8	3095.2	
311.01	4862.6	
311.21	4948.6	
311.42	3158.7	
311.63	3239.2	
311.84	4821.6	
312.05	5123.3	
312.26	3583.3	
312.46	3941	
312.67	4889.9	
312.88	4627	
313.09	3135.4	
313.3	3081.5	
313.51	5720	
313.71	5948.7	
313.92	3190.7	
314.13	3364.8	
314.34	5197.1	
314.55	4944.5	
314.76	4032.5	
314.96	3505.4	
315.17	5137	
315.38	5266.7	
315.59	3188.7	
315.8	3079.5	
316.01	5758.2	
316.21	5816.9	
316.42	3131.3	
316.63	3442	
316.84	4964.3	
317.05	5613.5	
317.26	3721.8	
317.46	3343	
317.67	4898.7	
317.88	5374.6	
318.09	4004.5	
318.3	2978.4	
318.5	4797	
318.71	5298.1	
318.92	4955.4	
319.13	3710.9	
319.34	5485.8	
319.54	5567.1	
319.75	3012.6	
319.96	2880.8	
320.17	5314.5	
320.38	5500.8	
320.58	2887	
320.79	3444.7	
321	5505.6	
321.21	5564.3	
321.42	3510.2	
321.62	2932.7	
321.83	4714.4	
322.04	5077.6	
322.25	3352.5	
322.46	3165.5	
322.66	5182	
322.87	5333.6	
323.08	3872.7	
323.29	3095.8	
323.5	5977.3	
323.7	4640.7	
323.91	4276.2	
324.12	3827	
324.33	5154.1	
324.53	5256.5	
324.74	3666.5	
324.95	3863.8	
325.16	4521.2	
325.37	4927.4	
325.57	3165.5	
325.78	3239.2	
325.99	5091.9	
326.2	4594.3	
326.4	4429.1	
326.61	2989.4	
326.82	4975.9	
327.03	5133.6	
327.24	4435.9	
327.44	4156	
327.65	5244.8	
327.86	4373.1	
328.07	3701.4	
328.27	3093.8	
328.48	5647.6	
328.69	4635.9	
328.9	4589.5	
329.1	3401.7	
329.31	4931.5	
329.52	5687.9	
329.73	3211.9	
329.93	3546.4	
330.14	5087.8	
330.35	5248.9	
330.56	5123.3	
330.76	3908.9	
330.97	4923.3	
331.18	5137	
331.39	3569.6	
331.59	2954.5	
331.8	5526.8	
332.01	5660.6	
332.22	3284.9	
332.42	3703.4	
332.63	5098.8	
332.84	4778.6	
333.05	3547.1	
333.25	3236.5	
333.46	4823	
333.67	5106.3	
333.88	3338.9	
334.08	3614	
334.29	6550.1	
334.5	5552.7	
334.7	3095.2	
334.91	4443.4	
335.12	4695.3	
335.33	5313.1	
335.53	3560.7	
335.74	5119.2	
335.95	4833.2	
336.16	4705.5	
336.36	3598.3	
336.57	4003.8	
336.78	4597	
336.98	5654.4	
337.19	4287.1	
337.4	3471.3	
337.61	6006	
337.81	4631.8	
338.02	3274	
338.23	4125.3	
338.43	5711.1	
338.64	4736.3	
338.85	3213.9	
339.05	4145.1	
339.26	5752.1	
339.47	4554.7	
339.68	3212.6	
339.88	4637.3	
340.09	5269.4	
340.3	5467.4	
340.5	3717.1	
340.71	2901.3	
340.92	4625.7	
341.13	5639.4	
341.33	3086.3	
341.54	3771.7	
341.75	5210.7	
341.95	4948.6	
342.16	3588.7	
342.37	3829	
342.57	4655.7	
342.78	4960.2	
342.99	3969	
343.19	2940.9	
343.4	5375.9	
343.61	5239.4	
343.81	3422.2	
344.02	3091.1	
344.23	5371.1	
344.43	5758.2	
344.64	3943.7	
344.85	3776.5	
345.06	5202.5	
345.26	5568.4	
345.47	3722.5	
345.68	4247.5	
345.88	4515.1	
346.09	5462.6	
346.3	3746.4	
346.5	2878.1	
346.71	5049.6	
346.92	4792.2	
347.12	2977.1	
347.33	3620.8	
347.54	5494.7	
347.74	5826.5	
347.95	3621.5	
348.16	2749.7	
348.36	4925.4	
348.57	4701.5	
348.78	3668.6	
348.98	3878.9	
349.19	4952.7	
349.39	4530.8	
349.6	2990.7	
349.81	3300	
350.01	5277.6	
350.22	4823	
350.43	3549.8	
350.63	4263.9	
350.84	5094	
351.05	4869.4	
351.25	3259.7	
351.46	2955.9	
351.67	5545.2	
351.87	4818.2	
352.08	3459	
352.29	3915.7	
352.49	5454.4	
352.7	5519.3	
352.9	3158	
353.11	3896.6	
353.32	6047.7	
353.52	4938.3	
353.73	3142.3	
353.94	3928.7	
354.14	5351.3	
354.35	5127.4	
354.55	3280.8	
354.76	3572.3	
354.97	5322	
355.17	5124.7	
355.38	3139.5	
355.59	4172.4	
355.79	4835.9	
356	5182.7	
356.2	3612.6	
356.41	3229.6	
356.62	4664.6	
356.82	5107.6	
357.03	3890.5	
357.24	3475.4	
357.44	4926.7	
357.65	5014.8	
357.85	4504.8	
358.06	3671.3	
358.27	4696	
358.47	4853	
358.68	3149.8	
358.88	3900	
359.09	5450.3	
359.3	5678.3	
359.5	4524.6	
359.71	4072.7	
359.91	6115.2	
360.12	5521.3	
360.33	3936.9	
360.53	4343.7	
360.74	4989.5	
360.94	5007.3	
361.15	4111.6	
361.36	3457.7	
361.56	5673.6	
361.77	5229.8	
361.97	4581.3	
362.18	3669.3	
362.38	5784.1	
362.59	4980.7	
362.8	3444.7	
363	3305.4	
363.21	4777.2	
363.41	5382.7	
363.62	3953.3	
363.83	4827.1	
364.03	5521.3	
364.24	6250.4	
364.44	4904.9	
364.65	4982	
364.85	5339.1	
365.06	4988.9	
365.27	3674.7	
365.47	3734.1	
365.68	6214.2	
365.88	5316.5	
366.09	4146.5	
366.29	3789.4	
366.5	5528.2	
366.71	5937.1	
366.91	4984.1	
367.12	4285.7	
367.32	6472.3	
367.53	5831.2	
367.73	4267.3	
367.94	5128.8	
368.14	5824.4	
368.35	6618.4	
368.56	4336.2	
368.76	4043.4	
368.97	5963.7	
369.17	7357	
369.38	3803.1	
369.58	4109.6	
369.79	5069.4	
369.99	6292.7	
370.2	5043.5	
370.4	4212	
370.61	5632.6	
370.82	6732.4	
371.02	4123.2	
371.23	3510.2	
371.43	5082.4	
371.64	6218.3	
371.84	4187.4	
372.05	5185.5	
372.25	7387	
372.46	5989.6	
372.66	4268.6	
372.87	4164.2	
373.07	6143.9	
373.28	7533.8	
373.48	5154.1	
373.69	4929.5	
373.9	5817.6	
374.1	5801.9	
374.31	5099.4	
374.51	4767.7	
374.72	6588.3	
374.92	5587.5	
375.13	5436.7	
375.33	4670.7	
375.54	6292	
375.74	5843.5	
375.95	4865.3	
376.15	5935.7	
376.36	6381.5	
376.56	6211.5	
376.77	4962.2	
376.97	5302.2	
377.18	7346.7	
377.38	6551.5	
377.59	5743.9	
377.79	4694.6	
378	6392.4	
378.2	6840.9	
378.41	4772.4	
378.61	4713.1	
378.82	6937.8	
379.02	6225.1	
379.23	5029.1	
379.43	5926.1	
379.64	7022.5	
379.84	6724.2	
380.05	4839.4	
380.25	4756.7	
380.46	6778.1	
380.66	6384.2	
380.87	5966.4	
381.07	6277	
381.28	7338.6	
381.48	6746.7	
381.69	4816.8	
381.89	4835.3	
382.1	5821.7	
382.3	6894.8	
382.51	5777.3	
382.71	6591	
382.91	6747.4	
383.12	7177.4	
383.32	5134.9	
383.53	5241.4	
383.73	6571.2	
383.94	6439.5	
384.14	5214.8	
384.35	4431.8	
384.55	6262	
384.76	6656.6	
384.96	5012.1	
385.17	5242.8	
385.37	6698.2	
385.58	5935	
385.78	5254.4	
385.98	4300.7	
386.19	6130.9	
386.39	6461.3	
386.6	4821.6	
386.8	4959.5	
387.01	6671.6	
387.21	6677.7	
387.42	5346.6	
387.62	5897.5	
387.83	6152.1	
388.03	6599.2	
388.23	5143.8	
388.44	5855.8	
388.64	5936.4	
388.85	6089.3	
389.05	5569.1	
389.26	6142.5	
389.46	7546.8	
389.67	7287.4	
389.87	5606	
390.07	5588.2	
390.28	6584.9	
390.48	6154.1	
390.69	5001.1	
390.89	5262.6	
391.1	6395.8	
391.3	7228	
391.5	6302.3	
391.71	6705.7	
391.91	6998.6	
392.12	7850.5	
392.32	6367.8	
392.53	5722	
392.73	6552.1	
392.93	6651.8	
393.14	5418.2	
393.34	6071.5	
393.55	6995.2	
393.75	6604.7	
393.95	5313.8	
394.16	5226.4	
394.36	6339.1	
394.57	6944.7	
394.77	4872.1	
394.98	5137	
395.18	6353.5	
395.38	6571.2	
395.59	6085.2	
395.79	5202.5	
396	6607.4	
396.2	7111.2	
396.4	6167.8	
396.61	6109.8	
396.81	7351.5	
397.02	6756.9	
397.22	6449.1	
397.42	6518.7	
397.63	7501	
397.83	6858.6	
398.04	5429.8	
398.24	6014.9	
398.44	7203.4	
398.65	6570.6	
398.85	5476.3	
399.05	5513.1	
399.26	6917.4	
399.46	8411	
399.67	5902.2	
399.87	5723.4	
400.07	7283.9	
400.28	7623.2	
400.48	5910.4	
400.69	6821.1	
400.89	7884	
401.09	8141.4	
401.3	5893.4	
401.5	6777.4	
401.7	8607.6	
401.91	8866.3	
402.11	6385.6	
402.32	6407.4	
402.52	8173.4	
402.72	7897.7	
402.93	6721.4	
403.13	5562.3	
403.33	8552.3	
403.54	7256.6	
403.74	6087.2	
403.94	6744	
404.15	7245	
404.35	8280.6	
404.56	5783.5	
404.76	7375.4	
404.96	7653.3	
405.17	7365.9	
405.37	6891.4	
405.57	6400.6	
405.78	7974.1	
405.98	7271.7	
406.18	6169.2	
406.39	6907.1	
406.59	7894.2	
406.79	7518.1	
407	5881.1	
407.2	5854.5	
407.4	7819.8	
407.61	8097.7	
407.81	5981.4	
408.01	7772.7	
408.22	7056.6	
408.42	8815.8	
408.62	7293.5	
408.83	6889.4	
409.03	8056.7	
409.23	7995.3	
409.44	7212.3	
409.64	7567.2	
409.84	9321.7	
410.05	9306.7	
410.25	7741.3	
410.45	7466.9	
410.66	9208.4	
410.86	11253	
411.06	8251.9	
411.27	7987.1	
411.47	11326	
411.67	9600.9	
411.88	8342.1	
412.08	8851.3	
412.28	10238	
412.49	10649	
412.69	8569.4	
412.89	8586.5	
413.09	10470	
413.3	10467	
413.5	8691.6	
413.7	8404.9	
413.91	10007	
414.11	10731	
414.31	8612.4	
414.52	9220.6	
414.72	10477	
414.92	10669	
415.12	8666.3	
415.33	9272.5	
415.53	10922	
415.73	11061	
415.94	9495.1	
416.14	9002.9	
416.34	10124	
416.55	9886.9	
416.75	10025	
416.95	9726.5	
417.15	10991	
417.36	11479	
417.56	10465	
417.76	9694.4	
417.97	11479	
418.17	11112	
418.37	9215.9	
418.57	9453.4	
418.78	11030	
418.98	10708	
419.18	10270	
419.38	10072	
419.59	10763	
419.79	10314	
419.99	9310.7	
420.2	9487.6	
420.4	11064	
420.6	11104	
420.8	9185.1	
421.01	8902.5	
421.21	10994	
421.41	11105	
421.61	9478	
421.82	9267.7	
422.02	10742	
422.22	11402	
422.42	10034	
422.63	9374.9	
422.83	10718	
423.03	11816	
423.23	9425.4	
423.44	8600.1	
423.64	10653	
423.84	10212	
424.04	8996	
424.25	8637	
424.45	11266	
424.65	11208	
424.85	8393.3	
425.06	8866.3	
425.26	11271	
425.46	10384	
425.66	9212.4	
425.87	9125.7	
426.07	10905	
426.27	10667	
426.47	9169.4	
426.67	8506.6	
426.88	11124	
427.08	10702	
427.28	9474.6	
427.48	8365.3	
427.69	9630.2	
427.89	10273	
428.09	9174.2	
428.29	8488.1	
428.5	10867	
428.7	10551	
428.9	8513.4	
429.1	8825.4	
429.3	10318	
429.51	10714	
429.71	8546.9	
429.91	9372.2	
430.11	10854	
430.31	11146	
430.52	9013.1	
430.72	9299.1	
430.92	11381	
431.12	10913	
431.32	8815.8	
431.53	9084.8	
431.73	10022	
431.93	11409	
432.13	8774.2	
432.33	8759.8	
432.54	10355	
432.74	10770	
432.94	8810.4	
433.14	9562	
433.34	10978	
433.55	10768	
433.75	9635	
433.95	11283	
434.15	10795	
434.35	10762	
434.56	9050.7	
434.76	8834.3	
434.96	10917	
435.16	11268	
435.36	9067.7	
435.56	10093	
435.77	10868	
435.97	11046	
436.17	10851	
436.37	10193	
436.57	10825	
436.78	11032	
436.98	11471	
437.18	10551	
437.38	11801	
437.58	11024	
437.78	10761	
437.99	9634.3	
438.19	11481	
438.39	12721	
438.59	9420.7	
438.79	8964.6	
438.99	11866	
439.2	10748	
439.4	8809.7	
439.6	8923.7	
439.8	11088	
440	12039	
440.2	10032	
440.4	9998.9	
440.61	11586	
440.81	12191	
441.01	9515.5	
441.21	10445	
441.41	12499	
441.61	11925	
441.81	10959	
442.02	11756	
442.22	12803	
442.42	12214	
442.62	9920.4	
442.82	9835.7	
443.02	12627	
443.22	11942	
443.43	10303	
443.63	9998.2	
443.83	11433	
444.03	11439	
444.23	11166	
444.43	10781	
444.63	12092	
444.83	13015	
445.04	10331	
445.24	11357	
445.44	12165	
445.64	12425	
445.84	10628	
446.04	10869	
446.24	11515	
446.44	12404	
446.65	9799.5	
446.85	10446	
447.05	11363	
447.25	12294	
447.45	10273	
447.65	9701.2	
447.85	11638	
448.05	11065	
448.25	10551	
448.46	10416	
448.66	11647	
448.86	11289	
449.06	9658.9	
449.26	10552	
449.46	12199	
449.66	11140	
449.86	10379	
450.06	10253	
450.26	11368	
450.47	11998	
450.67	10321	
450.87	10708	
451.07	12086	
451.27	11796	
451.47	9807	
451.67	10560	
451.87	11714	
452.07	12437	
452.27	10313	
452.47	10191	
452.67	11822	
452.88	12375	
453.08	9462.3	
453.28	11303	
453.48	13082	
453.68	11569	
453.88	10195	
454.08	10284	
454.28	12269	
454.48	11936	
454.68	10722	
454.88	11152	
455.08	12272	
455.28	12375	
455.48	9944.3	
455.68	10766	
455.89	12987	
456.09	12768	
456.29	10463	
456.49	10786	
456.69	13101	
456.89	12248	
457.09	11181	
457.29	11616	
457.49	12734	
457.69	13033	
457.89	11402	
458.09	10721	
458.29	12767	
458.49	13313	
458.69	11845	
458.89	11370	
459.09	13908	
459.29	13884	
459.49	11468	
459.69	12298	
459.9	13379	
460.1	13166	
460.3	11141	
460.5	11218	
460.7	13282	
460.9	13190	
461.1	10893	
461.3	12245	
461.5	14171	
461.7	13755	
461.9	11733	
462.1	11805	
462.3	13524	
462.5	13994	
462.7	11863	
462.9	11938	
463.1	15015	
463.3	15025	
463.5	12105	
463.7	13280	
463.9	14022	
464.1	14465	
464.3	12824	
464.5	12721	
464.7	14912	
464.9	14791	
465.1	14093	
465.3	13347	
465.5	15156	
465.7	15322	
465.9	13794	
466.1	13083	
466.3	15327	
466.5	14864	
466.7	14492	
466.9	13388	
467.1	15068	
467.3	15898	
467.5	14496	
467.7	13526	
467.9	16028	
468.1	16901	
468.3	14047	
468.5	14604	
468.7	15272	
468.9	15098	
469.1	13939	
469.3	14678	
469.5	17090	
469.7	15125	
469.9	14143	
470.1	13998	
470.3	15422	
470.5	15528	
470.7	14832	
470.9	13788	
471.1	15436	
471.3	15203	
471.5	13704	
471.69	15136	
471.89	15019	
472.09	14504	
472.29	14448	
472.49	14169	
472.69	14912	
472.89	15367	
473.09	13503	
473.29	13212	
473.49	14891	
473.69	14739	
473.89	14129	
474.09	13404	
474.29	15854	
474.49	15334	
474.69	14283	
474.89	13439	
475.09	14814	
475.29	14738	
475.49	12910	
475.69	13317	
475.88	15910	
476.08	15051	
476.28	12839	
476.48	12996	
476.68	15176	
476.88	14827	
477.08	12848	
477.28	13360	
477.48	14239	
477.68	14910	
477.88	12648	
478.08	12788	
478.28	15277	
478.48	14374	
478.67	12987	
478.87	12266	
479.07	15307	
479.27	14510	
479.47	13064	
479.67	13280	
479.87	14937	
480.07	15414	
480.27	12473	
480.47	13829	
480.67	14626	
480.87	15240	
481.06	12812	
481.26	13414	
481.46	14689	
481.66	14625	
481.86	13176	
482.06	14064	
482.26	14324	
482.46	15238	
482.66	13083	
482.86	12780	
483.05	14822	
483.25	14109	
483.45	15118	
483.65	12996	
483.85	14392	
484.05	14631	
484.25	13457	
484.45	14055	
484.65	15188	
484.84	15634	
485.04	13052	
485.24	13162	
485.44	15737	
485.64	14332	
485.84	12685	
486.04	14009	
486.24	14706	
486.44	15121	
486.63	12760	
486.83	13577	
487.03	14828	
487.23	15220	
487.43	12919	
487.63	15048	
487.83	15176	
488.02	16090	
488.22	14006	
488.42	14598	
488.62	15873	
488.82	15029	
489.02	13700	
489.22	13926	
489.41	15890	
489.61	15758	
489.81	13506	
490.01	13674	
490.21	16009	
490.41	16576	
490.61	13652	
490.8	13768	
491	15577	
491.2	14803	
491.4	14100	
491.6	13417	
491.8	15449	
491.99	15223	
492.19	13155	
492.39	13384	
492.59	15761	
492.79	15783	
492.99	14033	
493.18	13466	
493.38	15920	
493.58	16793	
493.78	14242	
493.98	13957	
494.18	15809	
494.37	15597	
494.57	14882	
494.77	14711	
494.97	16504	
495.17	16888	
495.37	14653	
495.56	15079	
495.76	17206	
495.96	16867	
496.16	15926	
496.36	15266	
496.55	17240	
496.75	16931	
496.95	15698	
497.15	15429	
497.35	17266	
497.54	17305	
497.74	15300	
497.94	16727	
498.14	18033	
498.34	17662	
498.53	15145	
498.73	15767	
498.93	16875	
499.13	17380	
499.33	15797	
499.52	15958	
499.72	17679	
499.92	17647	
500.12	15583	
500.32	15820	
500.51	17848	
500.71	17759	
500.91	16390	
501.11	16173	
501.31	17922	
501.5	18052	
501.7	16748	
501.9	15948	
502.1	17524	
502.29	17844	
502.49	16330	
502.69	16580	
502.89	17700	
503.09	17821	
503.28	15135	
503.48	15337	
503.68	16827	
503.88	16968	
504.07	16077	
504.27	15539	
504.47	17233	
504.67	17230	
504.86	15835	
505.06	15354	
505.26	16636	
505.46	18203	
505.65	15440	
505.85	15446	
506.05	16460	
506.25	16838	
506.44	14604	
506.64	15222	
506.84	16145	
507.04	16748	
507.23	14452	
507.43	14942	
507.63	17665	
507.83	16184	
508.02	14711	
508.22	14420	
508.42	17860	
508.62	15846	
508.81	14771	
509.01	15175	
509.21	15545	
509.4	15870	
509.6	14684	
509.8	14188	
510	15797	
510.19	17019	
510.39	13951	
510.59	14277	
510.79	15578	
510.98	16851	
511.18	14420	
511.38	14582	
511.57	16487	
511.77	16399	
511.97	14912	
512.17	14050	
512.36	16413	
512.56	16234	
512.76	14042	
512.95	13821	
513.15	16446	
513.35	15198	
513.55	14743	
513.74	14074	
513.94	16312	
514.14	15722	
514.33	14807	
514.53	14724	
514.73	15780	
514.92	16018	
515.12	14350	
515.32	14179	
515.51	16111	
515.71	16485	
515.91	15569	
516.11	14313	
516.3	17696	
516.5	15947	
516.7	14945	
516.89	15290	
517.09	16054	
517.29	15960	
517.48	15186	
517.68	14502	
517.88	15814	
518.07	16423	
518.27	14982	
518.47	14173	
518.66	16632	
518.86	15455	
519.06	13859	
519.25	14185	
519.45	15728	
519.65	17218	
519.84	14887	
520.04	15511	
520.24	17502	
520.43	16334	
520.63	14676	
520.83	14337	
521.02	15739	
521.22	16180	
521.42	14771	
521.61	15196	
521.81	15640	
522.01	15812	
522.2	14577	
522.4	14197	
522.6	16265	
522.79	15065	
522.99	14277	
523.18	13947	
523.38	16201	
523.58	16219	
523.77	15827	
523.97	14132	
524.17	17995	
524.36	17280	
524.56	15357	
524.76	15313	
524.95	16694	
525.15	16459	
525.34	15156	
525.54	15487	
525.74	17216	
525.93	16539	
526.13	16678	
526.33	15555	
526.52	17811	
526.72	17237	
526.91	16817	
527.11	16035	
527.31	17674	
527.5	18185	
527.7	16046	
527.89	15186	
528.09	16997	
528.29	17600	
528.48	16303	
528.68	15995	
528.87	17875	
529.07	17823	
529.27	16075	
529.46	15817	
529.66	17767	
529.85	18201	
530.05	15785	
530.25	16477	
530.44	19018	
530.64	17406	
530.83	16023	
531.03	16284	
531.23	18103	
531.42	17741	
531.62	16812	
531.81	16157	
532.01	18195	
532.21	18603	
532.4	16103	
532.6	16552	
532.79	19056	
532.99	18693	
533.18	16891	
533.38	17692	
533.58	18419	
533.77	19109	
533.97	17003	
534.16	17701	
534.36	19463	
534.55	18651	
534.75	17860	
534.95	17251	
535.14	19521	
535.34	18648	
535.53	16872	
535.73	18602	
535.92	19990	
536.12	18606	
536.31	16987	
536.51	18041	
536.71	18776	
536.9	18437	
537.1	17058	
537.29	17156	
537.49	19170	
537.68	18342	
537.88	17324	
538.07	16610	
538.27	18638	
538.46	19553	
538.66	16709	
538.86	17152	
539.05	18580	
539.25	18991	
539.44	17545	
539.64	16825	
539.83	18513	
540.03	19439	
540.22	16907	
540.42	16743	
540.61	18606	
540.81	18817	
541	17101	
541.2	17888	
541.39	18138	
541.59	18549	
541.78	17489	
541.98	16635	
542.18	17813	
542.37	17813	
542.57	16698	
542.76	17436	
542.96	17719	
543.15	18142	
543.35	16662	
543.54	16026	
543.74	18155	
543.93	18006	
544.13	16312	
544.32	17098	
544.52	17905	
544.71	17207	
544.91	15311	
545.1	16320	
545.3	17221	
545.49	17814	
545.69	15266	
545.88	15593	
546.08	18673	
546.27	18091	
546.47	16152	
546.66	15399	
546.86	17815	
547.05	18267	
547.24	15602	
547.44	15565	
547.63	16756	
547.83	17877	
548.02	15890	
548.22	15940	
548.41	16602	
548.61	17665	
548.8	15332	
549	15339	
549.19	17165	
549.39	17505	
549.58	14928	
549.78	15563	
549.97	17447	
550.17	16970	
550.36	16071	
550.55	16917	
550.75	16769	
550.94	17550	
551.14	14948	
551.33	15147	
551.53	16230	
551.72	17101	
551.92	15171	
552.11	15132	
552.31	16933	
552.5	16933	
552.69	16497	
552.89	14662	
553.08	16950	
553.28	16612	
553.47	15083	
553.67	15909	
553.86	17324	
554.06	15921	
554.25	14364	
554.44	14826	
554.64	17984	
554.83	17449	
555.03	14816	
555.22	14995	
555.42	16881	
555.61	16566	
555.8	14777	
556	14934	
556.19	15939	
556.39	16892	
556.58	14752	
556.78	14761	
556.97	16452	
557.16	16251	
557.36	15644	
557.55	14304	
557.75	15448	
557.94	17148	
558.13	14429	
558.33	14247	
558.52	16927	
558.72	15786	
558.91	14365	
559.1	14363	
559.3	15585	
559.49	15269	
559.69	13867	
559.88	14672	
560.07	16154	
560.27	16567	
560.46	14838	
560.66	14870	
560.85	15970	
561.04	15195	
561.24	13984	
561.43	14050	
561.63	15474	
561.82	15482	
562.01	15187	
562.21	14351	
562.4	15881	
562.59	16840	
562.79	14195	
562.98	13982	
563.18	15863	
563.37	17266	
563.56	14585	
563.76	14007	
563.95	15508	
564.14	15403	
564.34	14294	
564.53	14075	
564.73	15937	
564.92	16281	
565.11	14437	
565.31	13982	
565.5	16536	
565.69	15536	
565.89	14228	
566.08	14349	
566.27	16249	
566.47	16789	
566.66	14937	
566.85	13909	
567.05	16089	
567.24	15599	
567.44	14166	
567.63	15248	
567.82	16397	
568.02	15972	
568.21	14070	
568.4	14498	
568.6	15993	
568.79	15968	
568.98	13999	
569.18	14229	
569.37	16034	
569.56	17561	
569.76	14526	
569.95	15248	
570.14	16188	
570.34	16191	
570.53	13842	
570.72	13915	
570.91	16448	
571.11	15794	
571.3	14196	
571.49	14896	
571.69	15825	
571.88	15332	
572.07	14567	
572.27	14561	
572.46	15205	
572.65	16215	
572.85	14013	
573.04	14307	
573.23	16445	
573.43	15810	
573.62	13977	
573.81	14526	
574	15933	
574.2	15815	
574.39	14440	
574.58	14296	
574.78	16733	
574.97	16165	
575.16	14764	
575.36	15028	
575.55	16567	
575.74	16708	
575.93	14023	
576.13	15111	
576.32	15899	
576.51	16623	
576.71	14482	
576.9	15758	
577.09	16853	
577.28	16346	
577.48	14829	
577.67	14114	
577.86	16067	
578.05	16435	
578.25	14553	
578.44	14703	
578.63	16316	
578.83	17258	
579.02	14145	
579.21	15614	
579.4	16381	
579.6	16244	
579.79	14861	
579.98	16713	
580.17	16730	
580.37	16953	
580.56	14307	
580.75	14988	
580.94	17126	
581.14	17002	
581.33	15468	
581.52	14478	
581.71	16576	
581.91	17163	
582.1	14316	
582.29	14821	
582.48	16287	
582.68	16436	
582.87	15322	
583.06	14874	
583.25	16653	
583.45	16169	
583.64	15511	
583.83	16284	
584.02	16363	
584.21	16943	
584.41	15511	
584.6	15044	
584.79	16462	
584.98	17187	
585.18	14635	
585.37	14534	
585.56	16006	
585.75	16892	
585.94	14669	
586.14	15173	
586.33	17156	
586.52	16386	
586.71	14835	
586.91	14680	
587.1	15638	
587.29	16644	
587.48	14337	
587.67	14380	
587.87	16211	
588.06	16101	
588.25	15197	
588.44	14553	
588.63	15614	
588.83	16174	
589.02	13891	
589.21	13711	
589.4	15172	
589.59	15036	
589.78	12635	
589.98	12796	
590.17	14163	
590.36	14592	
590.55	11751	
590.74	12131	
590.94	15147	
591.13	13742	
591.32	11848	
591.51	11372	
591.7	14009	
591.89	13636	
592.09	11555	
592.28	11861	
592.47	12991	
592.66	14655	
592.85	11616	
593.05	11886	
593.24	13567	
593.43	14304	
593.62	11995	
593.81	12288	
594	13656	
594.19	13889	
594.39	11811	
594.58	11926	
594.77	14035	
594.96	14521	
595.15	11779	
595.34	12291	
595.54	13814	
595.73	13188	
595.92	11261	
596.11	12115	
596.3	14274	
596.49	13097	
596.68	11864	
596.88	12401	
597.07	14039	
597.26	13075	
597.45	11467	
597.64	12613	
597.83	13380	
598.02	13938	
598.22	11733	
598.41	12184	
598.6	13801	
598.79	13203	
598.98	11639	
599.17	12686	
599.36	13858	
599.55	14706	
599.74	13465	
599.94	13273	
600.13	14195	
600.32	13377	
600.51	11529	
600.7	11782	
600.89	14780	
601.08	14893	
601.27	11603	
601.47	12313	
601.66	14302	
601.85	14831	
602.04	12302	
602.23	12322	
602.42	13521	
602.61	13973	
602.8	12213	
602.99	11906	
603.18	13814	
603.37	13911	
603.57	12413	
603.76	12899	
603.95	14513	
604.14	14172	
604.33	12085	
604.52	12301	
604.71	13956	
604.9	13714	
605.09	13138	
605.28	12714	
605.47	14500	
605.66	14120	
605.86	12626	
606.05	12060	
606.24	14499	
606.43	13159	
606.62	12284	
606.81	12949	
607	14415	
607.19	13688	
607.38	11747	
607.57	11940	
607.76	13502	
607.95	12971	
608.14	12251	
608.33	12759	
608.52	13351	
608.72	14308	
608.91	11546	
609.1	11566	
609.29	13467	
609.48	13027	
609.67	12224	
609.86	11470	
610.05	13119	
610.24	13325	
610.43	11445	
610.62	10965	
610.81	14142	
611	14123	
611.19	11456	
611.38	12028	
611.57	13573	
611.76	14648	
611.95	11264	
612.14	11090	
612.33	13351	
612.52	12871	
612.71	11618	
612.9	11026	
613.09	12581	
613.28	14635	
613.47	11462	
613.66	12181	
613.85	13449	
614.04	12997	
614.24	11434	
614.43	10879	
614.62	13385	
614.81	13439	
615	11827	
615.19	11988	
615.38	12830	
615.57	13123	
615.76	11703	
615.95	12497	
616.14	13547	
616.33	13192	
616.52	11897	
616.71	12300	
616.9	13375	
617.09	13308	
617.28	11497	
617.47	12497	
617.66	12686	
617.85	12790	
618.04	12162	
618.22	11811	
618.41	13138	
618.6	13849	
618.79	11721	
618.98	11599	
619.17	14154	
619.36	12742	
619.55	11858	
619.74	11775	
619.93	13525	
620.12	13117	
620.31	12276	
620.5	12347	
620.69	14083	
620.88	14567	
621.07	12906	
621.26	12353	
621.45	13854	
621.64	13956	
621.83	12488	
622.02	11749	
622.21	13900	
622.4	13722	
622.59	12841	
622.78	12734	
622.97	13393	
623.16	14283	
623.35	12357	
623.54	11548	
623.72	13549	
623.91	13614	
624.1	12597	
624.29	11488	
624.48	14642	
624.67	13892	
624.86	12631	
625.05	11688	
625.24	14690	
625.43	13295	
625.62	13837	
625.81	11832	
626	14095	
626.19	13543	
626.38	12601	
626.56	11865	
626.75	13282	
626.94	13977	
627.13	12400	
627.32	11241	
627.51	13777	
627.7	14822	
627.89	11367	
628.08	12235	
628.27	13011	
628.46	13178	
628.65	11359	
628.83	11215	
629.02	13607	
629.21	12902	
629.4	11728	
629.59	11974	
629.78	13032	
629.97	13797	
630.16	12074	
630.35	11592	
630.54	14218	
630.72	13966	
630.91	11742	
631.1	12031	
631.29	13530	
631.48	13617	
631.67	12127	
631.86	11600	
632.05	13261	
632.24	13160	
632.42	11335	
632.61	11944	
632.8	13289	
632.99	12827	
633.18	11974	
633.37	12230	
633.56	13502	
633.75	13320	
633.93	11914	
634.12	11693	
634.31	14244	
634.5	13852	
634.69	11750	
634.88	12069	
635.07	13269	
635.25	13673	
635.44	12439	
635.63	12640	
635.82	13122	
636.01	12667	
636.2	12349	
636.39	11921	
636.57	14119	
636.76	13756	
636.95	11461	
637.14	12717	
637.33	13490	
637.52	14213	
637.7	11284	
637.89	12168	
638.08	13317	
638.27	14304	
638.46	12273	
638.65	12428	
638.83	14267	
639.02	12873	
639.21	12119	
639.4	12364	
639.59	13327	
639.78	12899	
639.96	11301	
640.15	11403	
640.34	13116	
640.53	13158	
640.72	11071	
640.91	11249	
641.09	12543	
641.28	13722	
641.47	11303	
641.66	11875	
641.85	13162	
642.03	13119	
642.22	11621	
642.41	11205	
642.6	12475	
642.79	11968	
642.97	10898	
643.16	11571	
643.35	12477	
643.54	12215	
643.73	10758	
643.91	11514	
644.1	11995	
644.29	12652	
644.48	10703	
644.67	10706	
644.85	11979	
645.04	12308	
645.23	10295	
645.42	10530	
645.6	11731	
645.79	12563	
645.98	10126	
646.17	9293.7	
646.36	11094	
646.54	11525	
646.73	10633	
646.92	9574.3	
647.11	11013	
647.29	12000	
647.48	9607.7	
647.67	9286.2	
647.86	12127	
648.05	12127	
648.23	9723.8	
648.42	10715	
648.61	11496	
648.8	11309	
648.98	9357.9	
649.17	9612.5	
649.36	10870	
649.55	10640	
649.73	9540.1	
649.92	10150	
650.11	10947	
650.3	11288	
650.48	9594.7	
650.67	9460.3	
650.86	11467	
651.05	10490	
651.23	9564	
651.42	9507.4	
651.61	10858	
651.79	10918	
651.98	9667.8	
652.17	9339.4	
652.36	11170	
652.54	10475	
652.73	9422	
652.92	9157.2	
653.11	11226	
653.29	11340	
653.48	8660.9	
653.67	9590	
653.85	10951	
654.04	11973	
654.23	9618.6	
654.42	9271.8	
654.6	10502	
654.79	10992	
654.98	8564.6	
655.16	9087.5	
655.35	9955.2	
655.54	9824.8	
655.73	8462.2	
655.91	8328.4	
656.1	10718	
656.29	9674.6	
656.47	8079.9	
656.66	9509.4	
656.85	10008	
657.03	10134	
657.22	8561.9	
657.41	8862.9	
657.59	10220	
657.78	10188	
657.97	8588.5	
658.16	9204.9	
658.34	10817	
658.53	11362	
658.72	9976.3	
658.9	10357	
659.09	10561	
659.28	10590	
659.46	8989.9	
659.65	8985.8	
659.84	10281	
660.02	10930	
660.21	8903.2	
660.4	8852	
660.58	11200	
660.77	10641	
660.96	9457.5	
661.14	8640.4	
661.33	11614	
661.52	11559	
661.7	8566	
661.89	11645	
662.08	10210	
662.26	9927.9	
662.45	8774.2	
662.64	8927.8	
662.82	10919	
663.01	10238	
663.2	8823.3	
663.38	9558.6	
663.57	10672	
663.75	10690	
663.94	9108.7	
664.13	10167	
664.31	10192	
664.5	10796	
664.69	9437.7	
664.87	9678	
665.06	9920.4	
665.25	10647	
665.43	9980.4	
665.62	9997.5	
665.8	10910	
665.99	10243	
666.18	9057.5	
666.36	9228.1	
666.55	10763	
666.74	10647	
666.92	8677.2	
667.11	9961.3	
667.29	10292	
667.48	10684	
667.67	9732.6	
667.85	8823.3	
668.04	10197	
668.22	10266	
668.41	9106.6	
668.6	9158.5	
668.78	10036	
668.97	10233	
669.15	9309.4	
669.34	8319.5	
669.53	9957.2	
669.71	10312	
669.9	8575.5	
670.08	9124.4	
670.27	10067	
670.46	10542	
670.64	9279.3	
670.83	9557.2	
671.01	9854.8	
671.2	10331	
671.38	8599.4	
671.57	8525.7	
671.76	10868	
671.94	11424	
672.13	8483.4	
672.31	9263.6	
672.5	10647	
672.69	9932.6	
672.87	8638.3	
673.06	8880	
673.24	10397	
673.43	9945.6	
673.61	9057.5	
673.8	8759.2	
673.98	10440	
674.17	10587	
674.36	9297.8	
674.54	9095	
674.73	10259	
674.91	10522	
675.1	8963.3	
675.28	8521.6	
675.47	10083	
675.65	10547	
675.84	8779.6	
676.03	9102.5	
676.21	9930.6	
676.4	9546.3	
676.58	9475.3	
676.77	9250	
676.95	11240	
677.14	9934.7	
677.32	8432.9	
677.51	8262.2	
677.69	10479	
677.88	9621.4	
678.06	8445.8	
678.25	8493.6	
678.44	10133	
678.62	9869.2	
678.81	8271.1	
678.99	9054.8	
679.18	10741	
679.36	10416	
679.55	8631.5	
679.73	9234.3	
679.92	10334	
680.1	9739.5	
680.29	9672.6	
680.47	8626.7	
680.66	9714.2	
680.84	10437	
681.03	8019.8	
681.21	8962.6	
681.4	9814.5	
681.58	9725.1	
681.77	8312	
681.95	8338.6	
682.14	10553	
682.32	10859	
682.51	9166	
682.69	8084	
682.88	9621.4	
683.06	10093	
683.25	8859.5	
683.43	9183.1	
683.62	9927.9	
683.8	10180	
683.99	9275.9	
684.17	8631.5	
684.36	10892	
684.54	9618.6	
684.73	7875.1	
684.91	7905.2	
685.1	9676	
685.28	9058.2	
685.46	8155.7	
685.65	8092.2	
685.83	9688.3	
686.02	8954.4	
686.2	7486	
686.39	7603.4	
686.57	8619.2	
686.76	10011	
686.94	7490.1	
687.13	7598	
687.31	9377.6	
687.5	9067	
687.68	7210.9	
687.86	8262.9	
688.05	10561	
688.23	8668.4	
688.42	8297	
688.6	7735.9	
688.79	9042.5	
688.97	8995.4	
689.16	8035.5	
689.34	7129	
689.52	9730.6	
689.71	9864.4	
689.89	8313.4	
690.08	7613.7	
690.26	9304.6	
690.45	9132.6	
690.63	8443.1	
690.81	7878.5	
691	9047.2	
691.18	8898.4	
691.37	7720.2	
691.55	9698.5	
691.74	8774.2	
691.92	10318	
692.1	7724.3	
692.29	7216.4	
692.47	8895.7	
692.66	8216.5	
692.84	7318.8	
693.02	7775.5	
693.21	8310	
693.39	8830.8	
693.58	7886.7	
693.76	7505.1	
693.94	9893.7	
694.13	9798.8	
694.31	7632.8	
694.5	8503.2	
694.68	8914.1	
694.86	9268.4	
695.05	8064.2	
695.23	8178.9	
695.42	9721	
695.6	11620	
695.78	8632.9	
695.97	7936.6	
696.15	9783.1	
696.34	9234.3	
696.52	7667.6	
696.7	8206.2	
696.89	9426.8	
697.07	8858.1	
697.25	8005.5	
697.44	9436.4	
697.62	9286.9	
697.81	9510.1	
697.99	7741.3	
698.17	8139.3	
698.36	8568.7	
698.54	9156.5	
698.72	7909.3	
698.91	7117.4	
699.09	8877.9	
699.28	8637.6	
699.46	7651.2	
699.64	7516.7	
699.83	8671.1	
700.01	9583.1	
700.19	8266.3	
700.38	6946.7	
700.56	9572.9	
700.74	8731.9	
700.93	7228	
701.11	8010.3	
701.29	9315.5	
701.48	10257	
701.66	7565.2	
701.84	7587	
702.03	8962.6	
702.21	9656.9	
702.39	7374.7	
702.58	7920.2	
702.76	9428.2	
702.94	9372.2	
703.13	7320.8	
703.31	9447.3	
703.49	8832.2	
703.68	9639.1	
703.86	7430	
704.04	8298.4	
704.23	9220.6	
704.41	9503.9	
704.59	7555	
704.78	8505.9	
704.96	10163	
705.14	9426.8	
705.33	7448.5	
705.51	8083.3	
705.69	9020.6	
705.87	9820	
706.06	8294.3	
706.24	7398.6	
706.42	9245.2	
706.61	9604.3	
706.79	8374.8	
706.97	7327.6	
707.16	8842.4	
707.34	9310.7	
707.52	8280.6	
707.7	7559.1	
707.89	9039.7	
708.07	8640.4	
708.25	8282.7	
708.44	8374.1	
708.62	8844.5	
708.8	9794.1	
708.98	8507.3	
709.17	7614.3	
709.35	9198.8	
709.53	9188.6	
709.72	7347.4	
709.9	7752.9	
710.08	9434.3	
710.26	9437	
710.45	8665	
710.63	7538.6	
710.81	9002.2	
710.99	9043.8	
711.18	7994.6	
711.36	7591.1	
711.54	8908.7	
711.72	9507.4	
711.91	7575.4	
712.09	7032.7	
712.27	8895	
712.45	9390.6	
712.64	7586.4	
712.82	6671.6	
713	8181.6	
713.18	8363.9	
713.37	6718.7	
713.55	7720.8	
713.73	8838.4	
713.91	7642.3	
714.1	6761.7	
714.28	6184.2	
714.46	8221.9	
714.64	7401.4	
714.83	5373.2	
715.01	5984.8	
715.19	7166.5	
715.37	6582.9	
715.55	5527.5	
715.74	5778	
715.92	7743.4	
716.1	6130.9	
716.28	6786.3	
716.47	5840.1	
716.65	6653.2	
716.83	6691.4	
717.01	5694.7	
717.19	5683.1	
717.38	8497	
717.56	6405.4	
717.74	5944.6	
717.92	5141.8	
718.1	7507.9	
718.29	6817.7	
718.47	5001.8	
718.65	5659.2	
718.83	7732.4	
719.01	7647.8	
719.2	5177.9	
719.38	6124.1	
719.56	7540.6	
719.74	8929.1	
719.92	5883.8	
720.11	6780.1	
720.29	7581.6	
720.47	6752.8	
720.65	5367.7	
720.83	6007.4	
721.02	6894.1	
721.2	6618.4	
721.38	5798.5	
721.56	5227.8	
721.74	6137.1	
721.92	6217	
722.11	6136.4	
722.29	5965.7	
722.47	7375.4	
722.65	6645	
722.83	5231.9	
723.01	5989.6	
723.2	6736.5	
723.38	6922.8	
723.56	4621.6	
723.74	5710.4	
723.92	6251.1	
724.1	7231.4	
724.29	5139	
724.47	6121.4	
724.65	6293.4	
724.83	6215.6	
725.01	5003.2	
725.19	5703.6	
725.37	6260.6	
725.56	6361.7	
725.74	4917.2	
725.92	5110.4	
726.1	6279.8	
726.28	6554.2	
726.46	5425.8	
726.64	5190.2	
726.83	6511.9	
727.01	6652.5	
727.19	4920.6	
727.37	5576.6	
727.55	6588.3	
727.73	6980.8	
727.91	4848.9	
728.09	4720.6	
728.28	7074.4	
728.46	7413.6	
728.64	5649	
728.82	5628.5	
729	8082	
729.18	7509.2	
729.36	5109	
729.54	7073	
729.72	8372.8	
729.91	7019.8	
730.09	6900.3	
730.27	5923.4	
730.45	6928.3	
730.63	7477.1	
730.81	6360.3	
730.99	5608.7	
731.17	8043.1	
731.35	6789.7	
731.53	6068.8	
731.71	5767.8	
731.9	7776.1	
732.08	7916.8	
732.26	5915.9	
732.44	5573.9	
732.62	7923.6	
732.8	7535.2	
732.98	6248.4	
733.16	5433.3	
733.34	7439.6	
733.52	6354.8	
733.7	5799.8	
733.88	6040.1	
734.07	7283.3	
734.25	7118.1	
734.43	5369.1	
734.61	6692.1	
734.79	8372.1	
734.97	7045	
735.15	5469.4	
735.33	5773.2	
735.51	7344.7	
735.69	6986.3	
735.87	6709.8	
736.05	5990.3	
736.23	7168.6	
736.41	6930.3	
736.59	5749.3	
736.77	5840.1	
736.95	7522.2	
737.13	7088	
737.32	5489.2	
737.5	5844.9	
737.68	8034.2	
737.86	6991.8	
738.04	5363.6	
738.22	7024.5	
738.4	6825.9	
738.58	7165.2	
738.76	5935.7	
738.94	5074.2	
739.12	7032.7	
739.3	6823.1	
739.48	6460.7	
739.66	6202.6	
739.84	7172	
740.02	7144	
740.2	5101.5	
740.38	5388.9	
740.56	7460.1	
740.74	6405.4	
740.92	5998.5	
741.1	5894.7	
741.28	6910.5	
741.46	6713.9	
741.64	5522.7	
741.82	5950	
742	6904.4	
742.18	6893.5	
742.36	5696.8	
742.54	5342.5	
742.72	7387.7	
742.9	6276.3	
743.08	6016.2	
743.26	4953.4	
743.44	7540.6	
743.62	7387	
743.8	6024.4	
743.98	5282.4	
744.16	7093.5	
744.34	6786.3	
744.52	5943.2	
744.7	5906.3	
744.88	7106.5	
745.06	6748.1	
745.24	5937.1	
745.42	6090.7	
745.6	7219.1	
745.78	7096.2	
745.96	4985.4	
746.14	5186.1	
746.32	7860.8	
746.5	7217	
746.68	5577.3	
746.86	5165.7	
747.03	7479.2	
747.21	6089.3	
747.39	5609.4	
747.57	5087.8	
747.75	6815	
747.93	7107.8	
748.11	5138.4	
748.29	5068	
748.47	8165.9	
748.65	6548.7	
748.83	5728.9	
749.01	5524.1	
749.19	6925.5	
749.37	6158.9	
749.55	5317.2	
749.73	5406.6	
749.91	6707.8	
750.09	6391	
750.26	5507.7	
750.44	4900.8	
750.62	6637.5	
750.8	6565.8	
750.98	4797	
751.16	5079.6	
751.34	6693.4	
751.52	6130.3	
751.7	5755.5	
751.88	4772.4	
752.06	7105.1	
752.24	6836.8	
752.42	4732.9	
752.59	4992.9	
752.77	6496.8	
752.95	7604.8	
753.13	5680.4	
753.31	5126.1	
753.49	6268.1	
753.67	6670.9	
753.85	5331.5	
754.03	4883.7	
754.21	6817.7	
754.38	7041.6	
754.56	5004.6	
754.74	4143.7	
754.92	6010.8	
755.1	6710.5	
755.28	4100.7	
755.46	4093.2	
755.64	7179.5	
755.82	7153.6	
755.99	4148.5	
756.17	4188.1	
756.35	4842.1	
756.53	6131.6	
756.71	3147.7	
756.89	3979.2	
757.07	5767.1	
757.25	4992.9	
757.42	4477.5	
757.6	5213.4	
757.78	5910.4	
757.96	5167	
758.14	4205.8	
758.32	3831.1	
758.5	4691.9	
758.67	5476.3	
758.85	4056.3	
759.03	4115.7	
759.21	5591.6	
759.39	5069.4	
759.57	3704.1	
759.75	4653	
759.92	6053.1	
760.1	5614.2	
760.28	4955.4	
760.46	5243.5	
760.64	5404.6	
760.82	5157.5	
760.99	4900.1	
761.17	4177.9	
761.35	6072.9	
761.53	5210.7	
761.71	4356	
761.89	5020.9	
762.06	6024.4	
762.24	5634	
762.42	4545.8	
762.6	4310.3	
762.78	5633.3	
762.96	6152.8	
763.13	4820.2	
763.31	4559.5	
763.49	6299.6	
763.67	5593	
763.85	5282.4	
764.02	5725.4	
764.2	6576.7	
764.38	5837.4	
764.56	4458.4	
764.74	5249.6	
764.91	6679.8	
765.09	5724.8	
765.27	4222.9	
765.45	3976.5	
765.63	6690	
765.8	6466.1	
765.98	3753.9	
766.16	4102.8	
766.34	5336.3	
766.52	5122.7	
766.69	4905.6	
766.87	3890.5	
767.05	5656.5	
767.23	6352.8	
767.41	4153.3	
767.58	4388.1	
767.76	6157.6	
767.94	6251.1	
768.12	4189.5	
768.29	4835.9	
768.47	5715.2	
768.65	6306.4	
768.83	3829.7	
769	4887.1	
769.18	5262.6	
769.36	5923.4	
769.54	4882.4	
769.72	3864.5	
769.89	6180.8	
770.07	6279.8	
770.25	4201.7	
770.43	5233.9	
770.6	6805.4	
770.78	7076.4	
770.96	4354.7	
771.14	4880.3	
771.31	6065.4	
771.49	5484.5	
771.67	3601.7	
771.85	3710.9	
772.02	4879.6	
772.2	5468.1	
772.38	4326.7	
772.55	3975.1	
772.73	5715.9	
772.91	5524.1	
773.09	4289.8	
773.26	4408.6	
773.44	5641.5	
773.62	5354.8	
773.8	3880.9	
773.97	3616.7	
774.15	5673.6	
774.33	5419.6	
774.5	3795.6	
774.68	4063.2	
774.86	5838.8	
775.04	5332.9	
775.21	3829	
775.39	3836.5	
775.57	5610.8	
775.74	5862	
775.92	3630.4	
776.1	3551.2	
776.27	5574.6	
776.45	6552.1	
776.63	3792.2	
776.81	3425.6	
776.98	5253	
777.16	6134.3	
777.34	3945.1	
777.51	4151.2	
777.69	5279	
777.87	5060.5	
778.04	3966.2	
778.22	4459.8	
778.4	5057.8	
778.57	5569.1	
778.75	3273.3	
778.93	3558.7	
779.1	4881.7	
779.28	4754.7	
779.46	3356.6	
779.64	3731.4	
779.81	5783.5	
779.99	6475	
780.17	4379.2	
780.34	4511	
780.52	5263.3	
780.69	5359.5	
780.87	4035.2	
781.05	3621.5	
781.22	5303.6	
781.4	5425.8	
781.58	3661.8	
781.75	3010.5	
781.93	5347.2	
782.11	4788.2	
782.28	4534.9	
782.46	3719.8	
782.64	4659.1	
782.81	5466	
782.99	3793.5	
783.17	3765.5	
783.34	5305.6	
783.52	4704.2	
783.69	3947.1	
783.87	4648.9	
784.05	4769.7	
784.22	4731.5	
784.4	4615.4	
784.58	4024.9	
784.75	5605.3	
784.93	4835.3	
785.1	3674.7	
785.28	4280.9	
785.46	5312.4	
785.63	4761.5	
785.81	3678.2	
785.99	3577.1	
786.16	4947.9	
786.34	5223	
786.51	3581.9	
786.69	3915.7	
786.87	4573.1	
787.04	5035.3	
787.22	3468.6	
787.39	4257	
787.57	4756.7	
787.75	5722	
787.92	4437.9	
788.1	4400.4	
788.27	4744.5	
788.45	4574.5	
788.63	4118.5	
788.8	2979.1	
788.98	5201.8	
789.15	4447.5	
789.33	3240.6	
789.5	3715	
789.68	5559.6	
789.86	5666.7	
790.03	4041.3	
790.21	3596.9	
790.38	5560.9	
790.56	4906.3	
790.73	3443.3	
790.91	3511.6	
791.09	4748.6	
791.26	5362.3	
791.44	3678.8	
791.61	3184.6	
791.79	4732.2	
791.96	4801.8	
792.14	3310.2	
792.32	2898.6	
792.49	4773.8	
792.67	4812	
792.84	3392.1	
793.02	3188	
793.19	5147.2	
793.37	5750.7	
793.54	2936.1	
793.72	3236.5	
793.89	5854.5	
794.07	4725.3	
794.25	3655.6	
794.42	2981.8	
794.6	5606.7	
794.77	5316.5	
794.95	4001	
795.12	3462.4	
795.3	4772.4	
795.47	5276.3	
795.65	3930.7	
795.82	3691.1	
796	4582	
796.17	6191.7	
796.35	3627	
796.52	4255.7	
796.7	5196.4	
796.87	5309	
797.05	3558.7	
797.22	4340.3	
797.4	5287.2	
797.57	6147.3	
797.75	3715.7	
797.92	3476.1	
798.1	5543.2	
798.27	4647.5	
798.45	3008.5	
798.62	3221.5	
798.8	5001.1	
798.97	5465.3	
799.15	3900.7	
799.32	3725.3	
799.5	4330.1	
799.67	5079.6	
799.85	3989.4	
800.02	2942.2	
800.2	4702.8	
800.37	4997	
800.55	4076.8	
800.72	3504.8	
800.9	5388.2	
801.07	5778.7	
801.25	4604.5	
801.42	3842	
801.6	5462.6	
801.77	5070.8	
801.95	3545.7	
802.12	3388.7	
802.29	5181.4	
802.47	5109	
802.64	3872.7	
802.82	2888.3	
802.99	4714.4	
803.17	5531.6	
803.34	3753.2	
803.52	3362.1	
803.69	6027.9	
803.87	4480.3	
804.04	3654.3	
804.21	3730.7	
804.39	5683.1	
804.56	4864.6	
804.74	3153.9	
804.91	3766.9	
805.09	4700.1	
805.26	4827.1	
805.44	3159.3	
805.61	3482.2	
805.78	5324	
805.96	5334.3	
806.13	3762.8	
806.31	4091.8	
806.48	4321.2	
806.66	4787.5	
806.83	3774.4	
807	3750.5	
807.18	4700.8	
807.35	5091.3	
807.53	3658.4	
807.7	3017.3	
807.87	5653.8	
808.05	4706.2	
808.22	4046.1	
808.4	2977.7	
808.57	4693.3	
808.74	4429.1	
808.92	3412.6	
809.09	4253.6	
809.27	4664.6	
809.44	5124.7	
809.61	3018.7	
809.79	3378.5	
809.96	5740.5	
810.14	5326.1	
810.31	2968.9	
810.48	3596.2	
810.66	4775.9	
810.83	5427.1	
811.01	3436.5	
811.18	3734.1	
811.35	5345.2	
811.53	4228.4	
811.7	4007.9	
811.87	3829.7	
812.05	4786.1	
812.22	4676.2	
812.39	3289	
812.57	3203.7	
812.74	4760.2	
812.92	6146.6	
813.09	3571	
813.26	3841.3	
813.44	5909.1	
813.61	4653	
813.78	2965.5	
813.96	3907.5	
814.13	4749.2	
814.3	4508.3	
814.48	4272.1	
814.65	3504.1	
814.82	5894.1	
815	4535.6	
815.17	3622.2	
815.34	4384	
815.52	4663.9	
815.69	4646.2	
815.87	3608.5	
816.04	3541.6	
816.21	4696	
816.38	4265.2	
816.56	3488.4	
816.73	3272	
816.9	5897.5	
817.08	5354.1	
817.25	3295.2	
817.42	4087.1	
817.6	4353.3	
817.77	4737	
817.94	3688.4	
818.12	3236.5	
818.29	4506.2	
818.46	6737.8	
818.64	3383.2	
818.81	3213.3	
818.98	4462.5	
819.16	6251.1	
819.33	3895.9	
819.5	3672.7	
819.67	5015.5	
819.85	5583.4	
820.02	3592.8	
820.19	3809.9	
820.37	4941.7	
820.54	4584	
820.71	3733.4	
820.88	4522.6	
821.06	4941.7	
821.23	4448.9	
821.4	3740.3	
821.58	3676.8	
821.75	5355.4	
821.92	4870.8	
822.09	3052.2	
822.27	3077.4	
822.44	4739.7	
822.61	4614.1	
822.79	3027.6	
822.96	5672.2	
823.13	5137.7	
823.3	4472.8	
823.48	3464.5	
823.65	3134.8	
823.82	5388.2	
823.99	4358.8	
824.17	4362.2	
824.34	3209.2	
824.51	6087.9	
824.68	4806.6	
824.86	3361.4	
825.03	3646.1	
825.2	4697.4	
825.37	5617.6	
825.55	3317	
825.72	3646.1	
825.89	6138.4	
826.06	5771.9	
826.24	3560.1	
826.41	3614	
826.58	5722	
826.75	4978.6	
826.92	2863.7	
827.1	3162.1	
827.27	7630.7	
827.44	6075	
827.61	3413.3	
827.79	4015.4	
827.96	4508.9	
828.13	4765.6	
828.3	3540.3	
828.47	3030.3	
828.65	4958.8	
828.82	4884.4	
828.99	4494.6	
829.16	3897.3	
829.34	5291.3	
829.51	5079.6	
829.68	3581.9	
829.85	3801	
830.02	5595.1	
830.2	5298.8	
830.37	2854.9	
830.54	4367.6	
830.71	5972.6	
830.88	4760.2	
831.05	2874.7	
831.23	3332.7	
831.4	5751.4	
831.57	6320	
831.74	3386	
831.91	2964.1	
832.09	4980.7	
832.26	5264	
832.43	3540.9	
832.6	3975.8	
832.77	5005.2	
832.94	5599.1	
833.12	2790.7	
833.29	3470.6	
833.46	4622.9	
833.63	6582.2	
833.8	3734.1	
833.97	3482.9	
834.15	5341.1	
834.32	5075.5	
834.49	3657.7	
834.66	3751.9	
834.83	5495.4	
835	4537.6	
835.17	3420.8	
835.35	3398.9	
835.52	5216.2	
835.69	5068	
835.86	3577.1	
836.03	2921.1	
836.2	5278.3	
836.37	4995.7	
836.55	3465.2	
836.72	3237.8	
836.89	4886.5	
837.06	5412.1	
837.23	3503.4	
837.4	3860.4	
837.57	5963	
837.75	6584.2	
837.92	3182.5	
838.09	3386	
838.26	4883	
838.43	5505.6	
838.6	3717.1	
838.77	3319.8	
838.94	6186.9	
839.11	5997.8	
839.29	3508.9	
839.46	2770.2	
839.63	5304.2	
839.8	5050.3	
839.97	3396.9	
840.14	3403.7	
840.31	5122.7	
840.48	5310.4	
840.65	2815.3	
840.82	3360.7	
841	5229.1	
841.17	5184.1	
841.34	3140.9	
841.51	3170.9	
841.68	5205.3	
841.85	4937.7	
842.02	3280.8	
842.19	2696.5	
842.36	5066.7	
842.53	5042.8	
842.7	3168.2	
842.87	3835.2	
843.05	6522.8	
843.22	5010.7	
843.39	2989.4	
843.56	3292.5	
843.73	4857.8	
843.9	5350	
844.07	4992.9	
844.24	4136.2	
844.41	7409.6	
844.58	4600.4	
844.75	3037.1	
844.92	3328.6	
845.09	5287.2	
845.26	5253.7	
845.43	3127.2	
845.6	3282.2	
845.77	5242.8	
845.94	5005.9	
846.12	3419.4	
846.29	3622.2	
846.46	5427.1	
846.63	5247.6	
846.8	3127.9	
846.97	3652.2	
847.14	5681.1	
847.31	5229.1	
847.48	3449.5	
847.65	3855.6	
847.82	5487.2	
847.99	5429.8	
848.16	4102.1	
848.33	3796.9	
848.5	4871.4	
848.67	5664	
848.84	3103.4	
849.01	3254.2	
849.18	4777.9	
849.35	4465.3	
849.52	3894.6	
849.69	3088.3	
849.86	5393.7	
850.03	5588.2	
850.2	3161.4	
850.37	3777.8	
850.54	5546.6	
850.71	4932.2	
850.88	3671.3	
851.05	3080.1	
851.22	5181.4	
851.39	5718.6	
851.56	2932	
851.73	3591.5	
851.9	4620.2	
852.07	5511.1	
852.24	3424.9	
852.41	3127.9	
852.58	5147.9	
852.75	4721.3	
852.92	3483.6	
853.09	3040.6	
853.26	4904.9	
853.43	5654.4	
853.6	3095.8	
853.77	2707.4	
853.94	5734.3	
854.11	5171.1	
854.28	4573.1	
854.44	3358.7	
854.61	6118	
854.78	5452.4	
854.95	3075.4	
855.12	3831.1	
855.29	4297.3	
855.46	5936.4	
855.63	3078.8	
855.8	4265.2	
855.97	4836.6	
856.14	5534.3	
856.31	4345.1	
856.48	3338.2	
856.65	4913.1	
856.82	4600.4	
856.99	2998.9	
857.16	3328.6	
857.33	6304.3	
857.49	4896	
857.66	3364.8	
857.83	3575.1	
858	4902.2	
858.17	5102.9	
858.34	2921.1	
858.51	3134.1	
858.68	5786.2	
858.85	5833.3	
859.02	3634.5	
859.19	3818.8	
859.36	4677.6	
859.52	4715.1	
859.69	3119.1	
859.86	3592.1	
860.03	4678.9	
860.2	5707	
860.37	2831	
860.54	3172.3	
860.71	5395.7	
860.88	5756.8	
861.05	3491.1	
861.21	3865.9	
861.38	5792.3	
861.55	4494.6	
861.72	2895.8	
861.89	3448.8	
862.06	5441.5	
862.23	5899.5	
862.4	3018.7	
862.56	3192.8	
862.73	5322	
862.9	5058.5	
863.07	3616.7	
863.24	2848.7	
863.41	4561.5	
863.58	4668.7	
863.75	3173.7	
863.91	3591.5	
864.08	5696.8	
864.25	5404.6	
864.42	3874.1	
864.59	4319.8	
864.76	6041.5	
864.93	4701.5	
865.09	3060.3	
865.26	3345.7	
865.43	5674.9	
865.6	5972.6	
865.77	2736.1	
865.94	3082.2	
866.1	5660.6	
866.27	5402.5	
866.44	4587.4	
866.61	2949.1	
866.78	4997	
866.95	5328.1	
867.11	3005.7	
867.28	2816	
867.45	5530.9	
867.62	4697.4	
867.79	3576.4	
867.96	3048.7	
868.12	4661.2	
868.29	5475.6	
868.46	2701.3	
868.63	4067.9	
868.8	5522	
868.97	5405.3	
869.13	3222.1	
869.3	3246.7	
869.47	5284.4	
869.64	5565	
869.81	3161.4	
869.97	3095.8	
870.14	5243.5	
870.31	5791.7	
870.48	3035.8	
870.65	3857	
870.81	4939	
870.98	4982.7	
871.15	3521.1	
871.32	3260.4	
871.48	5268.7	
871.65	5859.2	
871.82	3063.8	
871.99	3435.8	
872.16	6207.4	
872.32	5631.9	
872.49	3140.9	
872.66	3126.6	
872.83	5482.4	
872.99	4791.6	
873.16	3562.1	
873.33	3097.9	
873.5	5087.2	
873.67	5143.1	
873.83	3284.9	
874	4143	
874.17	5199.8	
874.34	6075	
874.5	3979.9	
874.67	3876.8	
874.84	5718.6	
875.01	4609.3	
875.17	4329.4	
875.34	3044.6	
875.51	5169.8	
875.68	6155.5	
875.84	3719.8	
876.01	4488.5	
876.18	5373.2	
876.34	5335.6	
876.51	3117.7	
876.68	3013.2	
876.85	4941.1	
877.01	5614.2	
877.18	4277.5	
877.35	3038.5	
877.52	5104.9	
877.68	4558.1	
877.85	3072	
878.02	3059.7	
878.18	5043.5	
878.35	4788.8	
878.52	2534	
878.69	3446.7	
878.85	5492.7	
879.02	5346.6	
879.19	4329.4	
879.35	3300.6	
879.52	5349.3	
879.69	5554.1	
879.86	2723.1	
880.02	3459.7	
880.19	5003.9	
880.36	6090.7	
880.52	3507.5	
880.69	3687	
880.86	5478.3	
881.02	5537	
881.19	3423.5	
881.36	3337.5	
881.52	5338.4	
881.69	4800.4	
881.86	3340.9	
882.02	3291.8	
882.19	5644.2	
882.36	6550.1	
882.52	3211.2	
882.69	4336.2	
882.86	5225.1	
883.02	5139.7	
883.19	3716.4	
883.36	3495.9	
883.52	5511.8	
883.69	6130.9	
883.86	3142.9	
884.02	2865.1	
884.19	5435.3	
884.36	5054.4	
884.52	3433.1	
884.69	3310.9	
884.86	4867.3	
885.02	5943.2	
885.19	3468.6	
885.36	3516.4	
885.52	5013.4	
885.69	5204.6	
885.86	4491.9	
886.02	3910.9	
886.19	5487.2	
886.35	4966.3	
886.52	3410.6	
886.69	4292.5	
886.85	4646.8	
887.02	5789.6	
887.19	5789.6	
887.35	5789.6	
887.52	5789.6	
887.68	5789.6	
887.85	5789.6	
888.02	5789.6	
888.18	5789.6	
888.35	5789.6	
888.51	5789.6	
888.68	5789.6	
888.85	5789.6	
889.01	5789.6	
889.18	5789.6	
889.35	5789.6	
889.51	5789.6	
889.68	5789.6	
889.84	5789.6	
890.01	5789.6	
890.17	5789.6	
890.34	5789.6	
890.51	5789.6	
890.67	5789.6	
890.84	5789.6	
891	5789.6	
891.17	5789.6	
891.34	5789.6	
891.5	5789.6	
891.67	5789.6	
891.83	5789.6	
892	5789.6	
892.16	5789.6	
892.33	5789.6	
892.5	5789.6	
892.66	5789.6	
892.83	5789.6	
892.99	5789.6	
893.16	5789.6	
893.32	5789.6	
893.49	5789.6	
893.65	5789.6	
893.82	5789.6	
893.99	5789.6	
894.15	5789.6	
894.32	5789.6	
894.48	5789.6	
894.65	5789.6	
894.81	5789.6	
894.98	5789.6	
895.14	5789.6	
895.31	5789.6	
895.47	5789.6	
895.64	5789.6	
895.81	5789.6	
895.97	5789.6	
896.14	5789.6	
896.3	5789.6	
896.47	5789.6	
896.63	5789.6	
896.8	5789.6	
896.96	5789.6	
897.13	5789.6	
897.29	5789.6	
897.46	5789.6	
897.62	5789.6	
897.79	5789.6	
897.95	5789.6	
898.12	5789.6	
898.28	5789.6	
898.45	5789.6	
898.61	5789.6	
898.78	5789.6	
898.94	5789.6	
899.11	5789.6	
899.27	5789.6	
899.44	5789.6	
899.6	5789.6	
899.77	5789.6	
899.93	5789.6	
900.1	5789.6	
900.26	5789.6	
900.43	5789.6	
900.59	5789.6	
900.76	5789.6	
900.92	5789.6	
901.09	5789.6	
901.25	5789.6	
901.42	5789.6	
901.58	5789.6	
901.75	5789.6	
901.91	5789.6	
902.07	5789.6	
902.24	5789.6	
902.4	5789.6	
902.57	5789.6	
902.73	5789.6	
902.9	5789.6	
903.06	5789.6	
903.23	5789.6	
903.39	5789.6	
903.56	5789.6	
903.72	5789.6	
903.88	5789.6	
904.05	5789.6	
904.21	5789.6	
904.38	5789.6	
904.54	5789.6	
904.71	5789.6	
904.87	5789.6	
905.03	5789.6	
905.2	5789.6	
905.36	5789.6	
905.53	5789.6	
905.69	5789.6	
905.86	5789.6	
906.02	5789.6	
906.18	5789.6	
906.35	5789.6	
906.51	5789.6	
906.68	5789.6	
906.84	5789.6	
907.01	5789.6	
907.17	5789.6	
907.33	5789.6	
907.5	5789.6	
907.66	5789.6	
907.83	5789.6	
907.99	5789.6	
908.15	5789.6	
908.32	5789.6	
908.48	5789.6	
908.65	5789.6	
908.81	5789.6	
908.97	5789.6	
909.14	5789.6	
909.3	5789.6	
909.47	5789.6	
909.63	5789.6	
909.79	5789.6	
909.96	5789.6	
910.12	5789.6	
910.28	5789.6	
910.45	5789.6	
910.61	5789.6	
910.78	5789.6	
910.94	5789.6	
911.1	5789.6	
911.27	5789.6	
911.43	5789.6	
911.59	5789.6	
911.76	5789.6	
911.92	5789.6	
912.08	5789.6	
912.25	5789.6	
912.41	5789.6	
912.57	5789.6	
912.74	5789.6	
912.9	5789.6	
913.07	5789.6	
913.23	5789.6	
913.39	5789.6	
913.56	5789.6	
913.72	5789.6	
913.88	5789.6	
914.05	5789.6	
914.21	5789.6	
914.37	5789.6	
914.54	5789.6	
914.7	5789.6	
914.86	5789.6	
915.03	5789.6	
915.19	5789.6	
