Wavelength	Intensities	
nm	a.u.	
179.22	1938.1	
179.44	1943.5	
179.65	1932.6	
179.86	1954.4	
180.08	1943.5	
180.29	5068	
180.51	3566.9	
180.72	5722.7	
180.94	6693.4	
181.15	3297.9	
181.37	3199.6	
181.58	5605.3	
181.79	5897.5	
182.01	3460.4	
182.22	3742.3	
182.44	5845.6	
182.65	4896.7	
182.87	4683	
183.08	4088.4	
183.29	6189	
183.51	5055.8	
183.72	3780.6	
183.94	5448.3	
184.15	5502.9	
184.37	5523.4	
184.58	3282.9	
184.79	4572.4	
185.01	5059.8	
185.22	5900.9	
185.44	4816.1	
185.65	3984.7	
185.86	5368.4	
186.08	4951.3	
186.29	3132	
186.51	3433.1	
186.72	5086.5	
186.94	5997.1	
187.15	3973.1	
187.36	4141.7	
187.58	7983.7	
187.79	5565	
188.01	4297.3	
188.22	6673.6	
188.43	6778.1	
188.65	5871.5	
188.86	3390.1	
189.08	4138.3	
189.29	5259.9	
189.5	5272.2	
189.72	3822.9	
189.93	3904.8	
190.15	6089.3	
190.36	7266.2	
190.57	4265.2	
190.79	4065.2	
191	6157.6	
191.22	6124.8	
191.43	4160.8	
191.64	3433.1	
191.86	6406.7	
192.07	6114.6	
192.29	3586.7	
192.5	3850.9	
192.71	6070.9	
192.93	5224.4	
193.14	3785.3	
193.35	3900.7	
193.57	5205.9	
193.78	6057.9	
194	3054.9	
194.21	3680.9	
194.42	5036.6	
194.64	5483.8	
194.85	4098.7	
195.07	4855.1	
195.28	5531.6	
195.49	4727.4	
195.71	5107	
195.92	3523.9	
196.13	5739.1	
196.35	5843.5	
196.56	5465.3	
196.78	4113.7	
196.99	7120.1	
197.2	6746	
197.42	4712.4	
197.63	4219.5	
197.84	4917.2	
198.06	5762.3	
198.27	3785.3	
198.48	5102.2	
198.7	5210	
198.91	5347.2	
199.13	4179.2	
199.34	4094.6	
199.55	5890.6	
199.77	4741.7	
199.98	3659.7	
200.19	4155.3	
200.41	5309	
200.62	5076.9	
200.83	4332.1	
201.05	4664.6	
201.26	5414.1	
201.47	5167.7	
201.69	3702	
201.9	3518.4	
202.11	5524.7	
202.33	6545.3	
202.54	3918.4	
202.76	4410.6	
202.97	5552.7	
203.18	5618.9	
203.4	4322.6	
203.61	4255	
203.82	5550	
204.04	5197.1	
204.25	4230.4	
204.46	4168.3	
204.68	5549.3	
204.89	5706.3	
205.1	4079.6	
205.32	3531.4	
205.53	5995.8	
205.74	6037.4	
205.96	3007.1	
206.17	4237.9	
206.38	5892	
206.6	6053.1	
206.81	4799.8	
207.02	3913	
207.24	5715.2	
207.45	6180.1	
207.66	4020.8	
207.88	3429	
208.09	5627.8	
208.3	5503.6	
208.52	3591.5	
208.73	4063.2	
208.94	5471.5	
209.15	6251.8	
209.37	3969	
209.58	4171	
209.79	6038.8	
210.01	5256.5	
210.22	3151.8	
210.43	3313.6	
210.65	5492.7	
210.86	5890.6	
211.07	3967.6	
211.29	3627.6	
211.5	5859.2	
211.71	5413.5	
211.93	3616.7	
212.14	3655.6	
212.35	5365.7	
212.56	5665.4	
212.78	4220.9	
212.99	3411.2	
213.2	6506.4	
213.42	5307.7	
213.63	3749.8	
213.84	4055.7	
214.06	4871.4	
214.27	4908.3	
214.48	3928	
214.69	4216.8	
214.91	6163.7	
215.12	6308.4	
215.33	4314.4	
215.55	4691.9	
215.76	6755.6	
215.97	5866.7	
216.18	4122.6	
216.4	4006.5	
216.61	5205.9	
216.82	5996.5	
217.04	3623.5	
217.25	3851.5	
217.46	6210.1	
217.67	5927.5	
217.89	3282.9	
218.1	3344.3	
218.31	5595.1	
218.53	5639.4	
218.74	3831.1	
218.95	3685	
219.16	5452.4	
219.38	6474.3	
219.59	3708.9	
219.8	4447.5	
220.01	7120.8	
220.23	5552.7	
220.44	4879.6	
220.65	3638.6	
220.87	5550.7	
221.08	6126.8	
221.29	3306.8	
221.5	4532.2	
221.72	7587.7	
221.93	5196.4	
222.14	4182.6	
222.35	4922	
222.57	5496.1	
222.78	5868.8	
222.99	3978.5	
223.2	4277.5	
223.42	5866.7	
223.63	5956.2	
223.84	3031.7	
224.05	2988	
224.27	7078.5	
224.48	6479.1	
224.69	4948.6	
224.9	4177.9	
225.12	5689.9	
225.33	5464.7	
225.54	3308.8	
225.75	3661.1	
225.97	5016.8	
226.18	5293.3	
226.39	3994.2	
226.6	3818.1	
226.82	5264	
227.03	5088.5	
227.24	4251.6	
227.45	3436.5	
227.67	5897.5	
227.88	6539.8	
228.09	4743.8	
228.3	4744.5	
228.52	5917.3	
228.73	5466.7	
228.94	3817.4	
229.15	3457	
229.36	5434.6	
229.58	5313.1	
229.79	3901.4	
230	4572.4	
230.21	6548	
230.43	5626.5	
230.64	4069.3	
230.85	4319.8	
231.06	5924.1	
231.28	5914.5	
231.49	3378.5	
231.7	4002.4	
231.91	5853.8	
232.12	5563.6	
232.34	3516.4	
232.55	4014.7	
232.76	6102.9	
232.97	5696.8	
233.18	3678.8	
233.4	4120.5	
233.61	5655.8	
233.82	5287.9	
234.03	3797.6	
234.25	3724.6	
234.46	7770	
234.67	5595.1	
234.88	4268.6	
235.09	3667.2	
235.31	5853.1	
235.52	5336.3	
235.73	4112.3	
235.94	3452.9	
236.15	5160.9	
236.37	6713.2	
236.58	3611.3	
236.79	4008.6	
237	5835.3	
237.21	5033.2	
237.43	4265.2	
237.64	3395.5	
237.85	10163	
238.06	5060.5	
238.27	4351.3	
238.48	3504.1	
238.7	5828.5	
238.91	5393.7	
239.12	3964.9	
239.33	4018.8	
239.54	5108.3	
239.76	5362.3	
239.97	3921.9	
240.18	3994.2	
240.39	6982.9	
240.6	5801.2	
240.82	4114.4	
241.03	3337.5	
241.24	5558.9	
241.45	6358.9	
241.66	3637.9	
241.87	4265.9	
242.09	6274.3	
242.3	6583.5	
242.51	4287.1	
242.72	4027.7	
242.93	5982.1	
243.14	5460.6	
243.36	4642.1	
243.57	4995	
243.78	6374	
243.99	5883.8	
244.2	4014	
244.41	3629	
244.63	5013.4	
244.84	5797.8	
245.05	4257	
245.26	3998.3	
245.47	5827.8	
245.68	6111.8	
245.9	5373.9	
246.11	4252.9	
246.32	5388.9	
246.53	5824.4	
246.74	6522.8	
246.95	3312.2	
247.16	5029.1	
247.38	5517.2	
247.59	3316.3	
247.8	4012.7	
248.01	5171.1	
248.22	5421.7	
248.43	3576.4	
248.64	3861.1	
248.86	4861.2	
249.07	5248.3	
249.28	3503.4	
249.49	4084.3	
249.7	6125.5	
249.91	6244.9	
250.12	3266.5	
250.34	3395.5	
250.55	5569.8	
250.76	5489.9	
250.97	4147.8	
251.18	4171.7	
251.39	6258.6	
251.6	5713.2	
251.81	4257	
252.03	4220.2	
252.24	5231.2	
252.45	6036.7	
252.66	3423.5	
252.87	4450.2	
253.08	5567.7	
253.29	7354.3	
253.5	3543.7	
253.72	4847.5	
253.93	5349.3	
254.14	6531	
254.35	3771	
254.56	3910.9	
254.77	5812.1	
254.98	5075.5	
255.19	3741	
255.41	4865.3	
255.62	5597.8	
255.83	6199.2	
256.04	4278.2	
256.25	4252.9	
256.46	6802	
256.67	5197.1	
256.88	4123.2	
257.09	4556	
257.31	5148.6	
257.52	5182	
257.73	5208.7	
257.94	3731.4	
258.15	5373.2	
258.36	5563.6	
258.57	4792.9	
258.78	3045.3	
258.99	6072.2	
259.2	5359.5	
259.41	3879.5	
259.63	3946.4	
259.84	6353.5	
260.05	6875.7	
260.26	5036.6	
260.47	3709.6	
260.68	6093.4	
260.89	5385.5	
261.1	4604.5	
261.31	3652.2	
261.52	6069.5	
261.73	6521.4	
261.95	4930.8	
262.16	4299.4	
262.37	6242.2	
262.58	6319.3	
262.79	4967.7	
263	3918.4	
263.21	5509	
263.42	5022.3	
263.63	3949.8	
263.84	3865.9	
264.05	6122.1	
264.26	6438.1	
264.47	4717.8	
264.69	4319.8	
264.9	6244.3	
265.11	5700.9	
265.32	3693.2	
265.53	3773.7	
265.74	5616.9	
265.95	4906.3	
266.16	4060.4	
266.37	4544.4	
266.58	5615.5	
266.79	5322.7	
267	3794.9	
267.21	3495.2	
267.42	5077.6	
267.63	5511.1	
267.84	4020.2	
268.06	3374.4	
268.27	5995.1	
268.48	6311.2	
268.69	3874.1	
268.9	4687.8	
269.11	6223.1	
269.32	5061.2	
269.53	4003.1	
269.74	3685.7	
269.95	5885.2	
270.16	4825	
270.37	4012.7	
270.58	4628.4	
270.79	5322.7	
271	6082.5	
271.21	4300.7	
271.42	4085.7	
271.63	5659.2	
271.84	5199.8	
272.05	3175.7	
272.26	3576.4	
272.47	5571.8	
272.68	5812.1	
272.89	3832.4	
273.11	4398.4	
273.32	5298.1	
273.53	6515.3	
273.74	4317.8	
273.95	4225	
274.16	6227.2	
274.37	5603.9	
274.58	4379.9	
274.79	3485.6	
275	5616.9	
275.21	6305.7	
275.42	5261.9	
275.63	4547.2	
275.84	5761.6	
276.05	7342	
276.26	4222.9	
276.47	4037.2	
276.68	5347.2	
276.89	6540.5	
277.1	4521.9	
277.31	3515.7	
277.52	5781.4	
277.73	5955.5	
277.94	3459.7	
278.15	3911.6	
278.36	5747.3	
278.57	5138.4	
278.78	3803.1	
278.99	4371.7	
279.2	5154.7	
279.41	5080.3	
279.62	5067.4	
279.83	3558	
280.04	6814.3	
280.25	5052.3	
280.46	5076.2	
280.67	4026.3	
280.88	5131.5	
281.09	6243.6	
281.3	4172.4	
281.51	5367	
281.72	5218.2	
281.93	6030.6	
282.14	3730.7	
282.35	4005.8	
282.56	6079.1	
282.77	6001.2	
282.98	3818.1	
283.19	4706.9	
283.4	7443.7	
283.61	5450.3	
283.82	3552.5	
284.03	4954	
284.24	5578.7	
284.45	6126.2	
284.66	4982.7	
284.87	4746.5	
285.08	6123.4	
285.29	6303	
285.5	3409.9	
285.71	3898.6	
285.92	6141.9	
286.12	6817.7	
286.33	4902.2	
286.54	3869.3	
286.75	6042.2	
286.96	5374.6	
287.17	3590.1	
287.38	4898.7	
287.59	5138.4	
287.8	5086.5	
288.01	3949.8	
288.22	4539	
288.43	5656.5	
288.64	5024.3	
288.85	4622.9	
289.06	4450.9	
289.27	5975.3	
289.48	6479.1	
289.69	5001.8	
289.9	4474.1	
290.11	6176	
290.32	5188.2	
290.53	4719.9	
290.74	4358.1	
290.94	5977.3	
291.15	5999.2	
291.36	3801	
291.57	4528.1	
291.78	5261.9	
291.99	4911	
292.2	3568.2	
292.41	4375.8	
292.62	6095.4	
292.83	5895.4	
293.04	5425.8	
293.25	3639.9	
293.46	5289.2	
293.67	6172.6	
293.88	3743.7	
294.09	3615.3	
294.29	5008.6	
294.5	5741.8	
294.71	4018.8	
294.92	3863.8	
295.13	5279	
295.34	6716.7	
295.55	3379.8	
295.76	3459.7	
295.97	5961.6	
296.18	6754.9	
296.39	3615.3	
296.6	3719.1	
296.81	5694	
297.01	6027.9	
297.22	4009.2	
297.43	3737.5	
297.64	5140.4	
297.85	5169.1	
298.06	3130	
298.27	3347.7	
298.48	5519.3	
298.69	5243.5	
298.9	4018.8	
299.11	3616.7	
299.31	4961.5	
299.52	5029.8	
299.73	4350.6	
299.94	4276.2	
300.15	5506.3	
300.36	5107.6	
300.57	4332.1	
300.78	4252.3	
300.99	5354.8	
301.2	5654.4	
301.4	3676.8	
301.61	4099.4	
301.82	5823.1	
302.03	5981.4	
302.24	4548.5	
302.45	3565.5	
302.66	5860.6	
302.87	6406	
303.08	3733.4	
303.29	5169.8	
303.49	5298.8	
303.7	5591.6	
303.91	3314.3	
304.12	4955.4	
304.33	5014.8	
304.54	5649	
304.75	3793.5	
304.96	3579.8	
305.16	5822.4	
305.37	6679.8	
305.58	3277.4	
305.79	3458.3	
306	5839.4	
306.21	4913.1	
306.42	3791.5	
306.63	5773.2	
306.83	5413.5	
307.04	6201.9	
307.25	4150.5	
307.46	4089.1	
307.67	4700.1	
307.88	6081.8	
308.09	3666.5	
308.29	3846.8	
308.5	5591.6	
308.71	6191	
308.92	4005.1	
309.13	3562.8	
309.34	5352.7	
309.55	5428.5	
309.75	4648.9	
309.96	4345.8	
310.17	6044.9	
310.38	5201.8	
310.59	4518.5	
310.8	3530	
311.01	5349.3	
311.21	5379.3	
311.42	3599.6	
311.63	3704.8	
311.84	5275.6	
312.05	5698.8	
312.26	4238.6	
312.46	4592.9	
312.67	5283.8	
312.88	5055.1	
313.09	3614	
313.3	3521.1	
313.51	6337.1	
313.71	6734.4	
313.92	3595.6	
314.13	3836.5	
314.34	5750.7	
314.55	5435.3	
314.76	4659.8	
314.96	4075.5	
315.17	5575.3	
315.38	5945.3	
315.59	3630.4	
315.8	3495.2	
316.01	6532.3	
316.21	6529.6	
316.42	3479.5	
316.63	3981.3	
316.84	5406	
317.05	6333	
317.26	4267.3	
317.46	3837.2	
317.67	5461.2	
317.88	5926.8	
318.09	4586.1	
318.3	3422.8	
318.5	5218.2	
318.71	5847.6	
318.92	5930.9	
319.13	4261.8	
319.34	6049	
319.54	6229.9	
319.75	3362.1	
319.96	3188	
320.17	5963	
320.38	6152.1	
320.58	3286.3	
320.79	3930.7	
321	6196.5	
321.21	6192.4	
321.42	4048.8	
321.62	3310.2	
321.83	5123.3	
322.04	5552	
322.25	3857.7	
322.46	3665.9	
322.66	5702.9	
322.87	5843.5	
323.08	4490.5	
323.29	3584.6	
323.5	6609.5	
323.7	5113.1	
323.91	5035.3	
324.12	4517.1	
324.33	5627.8	
324.53	5869.5	
324.74	4283.7	
324.95	4577.2	
325.16	4816.1	
325.37	5381.4	
325.57	3627	
325.78	3686.3	
325.99	5583.4	
326.2	5034.6	
326.4	5211.4	
326.61	3327.9	
326.82	5467.4	
327.03	5685.2	
327.24	5210	
327.44	4838	
327.65	5830.6	
327.86	4684.4	
328.07	4267.3	
328.27	3523.2	
328.48	6281.1	
328.69	5126.7	
328.9	5248.3	
329.1	3916.4	
329.31	5352.7	
329.52	6437.4	
329.73	3644	
329.93	4124.6	
330.14	5523.4	
330.35	5821	
330.56	5991	
330.76	4495.3	
330.97	5328.8	
331.18	5792.3	
331.39	4103.4	
331.59	3292.5	
331.8	6147.3	
332.01	6328.2	
332.22	3734.1	
332.42	4282.3	
332.63	5683.1	
332.84	5216.9	
333.05	4078.9	
333.25	3716.4	
333.46	5316.5	
333.67	5543.9	
333.88	3753.2	
334.08	4268	
334.29	7393.2	
334.5	6224.5	
334.7	3563.5	
334.91	5243.5	
335.12	5066	
335.33	5978.7	
335.53	4034.5	
335.74	6038.1	
335.95	5274.2	
336.16	5178.6	
336.36	4017.4	
336.57	4661.9	
336.78	5012.1	
336.98	6100.9	
337.19	4980	
337.4	3954.6	
337.61	6773.3	
337.81	5043.5	
338.02	3670	
338.23	4868.7	
338.43	6378.1	
338.64	5200.5	
338.85	3724.6	
339.05	4855.1	
339.26	6440.9	
339.47	4904.9	
339.68	3624.9	
339.88	5443.5	
340.09	5818.3	
340.3	6070.9	
340.5	4265.2	
340.71	3280.8	
340.92	4965.6	
341.13	6351.4	
341.33	3536.8	
341.54	4354.7	
341.75	5807.4	
341.95	5420.3	
342.16	4149.9	
342.37	4504.8	
342.57	5137.7	
342.78	5555.5	
342.99	4601.1	
343.19	3242.6	
343.4	5942.5	
343.61	5826.5	
343.81	3898.6	
344.02	3598.3	
344.23	5960.3	
344.43	6466.1	
344.64	4590.9	
344.85	4443.4	
345.06	5840.1	
345.26	6241.5	
345.47	4237.9	
345.68	5052.3	
345.88	4874.8	
346.09	6087.9	
346.3	4306.2	
346.5	3244.7	
346.71	5575.9	
346.92	5253	
347.12	3325.9	
347.33	4196.3	
347.54	6181.5	
347.74	6558.3	
347.95	4246.8	
348.16	3158.7	
348.36	5327.4	
348.57	5172.5	
348.78	4179.2	
348.98	4515.1	
349.19	5474.9	
349.39	5035.3	
349.6	3375.7	
349.81	3818.1	
350.01	5859.2	
350.22	5309	
350.43	4045.4	
350.63	4933.6	
350.84	5610.8	
351.05	5396.4	
351.25	3718.4	
351.46	3385.3	
351.67	6156.2	
351.87	5276.9	
352.08	3988.1	
352.29	4515.1	
352.49	6040.1	
352.7	5812.8	
352.9	3682.9	
353.11	4521.9	
353.32	6752.8	
353.52	5406	
353.73	3573	
353.94	4614.8	
354.14	5923.4	
354.35	5782.8	
354.55	3723.2	
354.76	4121.9	
354.97	5874.3	
355.17	5643.5	
355.38	3512.9	
355.59	4917.2	
355.79	5321.3	
356	5780.7	
356.2	4102.1	
356.41	3640.6	
356.62	5057.1	
356.82	5599.8	
357.03	4476.9	
357.24	4029.7	
357.44	5414.8	
357.65	5489.2	
357.85	5352.7	
358.06	4227.7	
358.27	5100.1	
358.47	5350.7	
358.68	3487.7	
358.88	4496	
359.09	5982.1	
359.3	6397.2	
359.5	5214.1	
359.71	4663.9	
359.91	6838.2	
360.12	6232	
360.33	4451.6	
360.53	5042.1	
360.74	5463.3	
360.94	5545.9	
361.15	4700.8	
361.36	3866.6	
361.56	6260	
361.77	5708.4	
361.97	5234.6	
362.18	4073.4	
362.38	6324.8	
362.59	5302.2	
362.8	3894.6	
363	3690.4	
363.21	5180.7	
363.41	5909.1	
363.62	4450.2	
363.83	5541.8	
364.03	5944.6	
364.24	7000	
364.44	5657.9	
364.65	5632.6	
364.85	5741.8	
365.06	5326.8	
365.27	4107.5	
365.47	4156	
365.68	6791.1	
365.88	5654.4	
366.09	4556.7	
366.29	4168.3	
366.5	6008.1	
366.71	6475	
366.91	5672.9	
367.12	4786.8	
367.32	7150.8	
367.53	6281.1	
367.73	4688.5	
367.94	5698.1	
368.14	6212.2	
368.35	7214.3	
368.56	4668.7	
368.76	4033.8	
368.97	6318.7	
369.17	8187.8	
369.38	4143	
369.58	4384	
369.79	5337.7	
369.99	6791.7	
370.2	5456.5	
370.4	4519.2	
370.61	6091.3	
370.82	7284.6	
371.02	4451.6	
371.23	3713.6	
371.43	5254.4	
371.64	6735.8	
371.84	4500.1	
372.05	5812.1	
372.25	8195.3	
372.46	6517.3	
372.66	4526	
372.87	4522.6	
373.07	6552.1	
373.28	8247.9	
373.48	5584.1	
373.69	5347.9	
373.9	5940.5	
374.1	6062	
374.31	5595.7	
374.51	5151.3	
374.72	6956.9	
374.92	5732.3	
375.13	5842.9	
375.33	4941.1	
375.54	6620.4	
375.74	5892	
375.95	5113.8	
376.15	6389.7	
376.36	6559.6	
376.56	6378.1	
376.77	5215.5	
376.97	5658.5	
377.18	7786.4	
377.38	6762.4	
377.59	6124.8	
377.79	4755.4	
378	6526.2	
378.2	7057.3	
378.41	4827.7	
378.61	4735.6	
378.82	7034.8	
379.02	6137.1	
379.23	4995	
379.43	6251.1	
379.64	7027.3	
379.84	6834.1	
380.05	4740.4	
380.25	4680.3	
380.46	6878.4	
380.66	6393.8	
380.87	6116.6	
381.07	6522.8	
381.28	7499	
381.48	6890.7	
381.69	4782.7	
381.89	4788.8	
382.1	5621.7	
382.3	6983.6	
382.51	5870.8	
382.71	6971.3	
382.91	6884.6	
383.12	7421.2	
383.32	5134.3	
383.53	5366.4	
383.73	6603.3	
383.94	6440.2	
384.14	5217.5	
384.35	4311	
384.55	6286.6	
384.76	6764.4	
384.96	5039.4	
385.17	5341.1	
385.37	6642.2	
385.58	5949.3	
385.78	5395.7	
385.98	4267.3	
386.19	6208.8	
386.39	6635.4	
386.6	4916.5	
386.8	5105.6	
387.01	6795.8	
387.21	6858	
387.42	5606.7	
387.62	6238.1	
387.83	6102.9	
388.03	6874.3	
388.23	5201.8	
388.44	6097.5	
388.64	5795.1	
388.85	6002.6	
389.05	5739.1	
389.26	6445	
389.46	8064.9	
389.67	7407.5	
389.87	5693.4	
390.07	5784.8	
390.28	6509.1	
390.48	6083.1	
390.69	4881	
390.89	5261.9	
391.1	6292	
391.3	7309.9	
391.5	6470.2	
391.71	7167.9	
391.91	7015	
392.12	8196	
392.32	6563.7	
392.53	5722.7	
392.73	6313.9	
392.93	6533.7	
393.14	5429.2	
393.34	6440.2	
393.55	7089.4	
393.75	6507.1	
393.95	5259.9	
394.16	5279	
394.36	6214.9	
394.57	6932.4	
394.77	4767	
394.98	5232.6	
395.18	6236.1	
395.38	6459.3	
395.59	6311.8	
395.79	5203.9	
396	6554.2	
396.2	7051.2	
396.4	6121.4	
396.61	6049	
396.81	7322.9	
397.02	6539.8	
397.22	6448.4	
397.42	6470.2	
397.63	7293.5	
397.83	6540.5	
398.04	5152	
398.24	5822.4	
398.44	7046.4	
398.65	6035.4	
398.85	5025.7	
399.05	5192.3	
399.26	6506.4	
399.46	8356.4	
399.67	5622.4	
399.87	5324	
400.07	6928.3	
400.28	7329	
400.48	5567.7	
400.69	6679.8	
400.89	8233.5	
401.09	8026.7	
401.3	5439.4	
401.5	6709.8	
401.7	8453.3	
401.91	8599.4	
402.11	5796.4	
402.32	6078.4	
402.52	7605.5	
402.72	7460.1	
402.93	6115.2	
403.13	4772.4	
403.33	8058.8	
403.54	6662	
403.74	5667.4	
403.94	6517.3	
404.15	6756.2	
404.35	8049.9	
404.56	5466.7	
404.76	7481.2	
404.96	7434.1	
405.17	7250.5	
405.37	6834.1	
405.57	6167.8	
405.78	7548.8	
405.98	6974.7	
406.18	5653.8	
406.39	6564.4	
406.59	7522.9	
406.79	7048.4	
407	5296.7	
407.2	5439.4	
407.4	7382.9	
407.61	7724.3	
407.81	5549.3	
408.01	7853.3	
408.22	6618.4	
408.42	8805.6	
408.62	7092.8	
408.83	6468.9	
409.03	7457.3	
409.23	7311.2	
409.44	6649.1	
409.64	6982.9	
409.84	8621.9	
410.05	8581.7	
410.25	6871.6	
410.45	6681.2	
410.66	8180.3	
410.86	10712	
411.06	7309.9	
411.27	7091.4	
411.47	10616	
411.67	8482.7	
411.88	7370.6	
412.08	7805.5	
412.28	9118.2	
412.49	9649.3	
412.69	7191.1	
412.89	7269.6	
413.09	9452.7	
413.3	9297.1	
413.5	7403.4	
413.7	6988.4	
413.91	8522.3	
414.11	9498.5	
414.31	7310.6	
414.52	7879.9	
414.72	9095.7	
414.92	9189.9	
415.12	7337.9	
415.33	7841	
415.53	9653.4	
415.73	9771.5	
415.94	8271.7	
416.14	7616.4	
416.34	8458.1	
416.55	8216.5	
416.75	8978.3	
416.95	8282.7	
417.15	9620.7	
417.36	10327	
417.56	9304.6	
417.76	8228.1	
417.97	9990	
418.17	9792	
418.37	7727	
418.57	7885.4	
418.78	9529.2	
418.98	9082.1	
419.18	8716.8	
419.38	8678.6	
419.59	9053.4	
419.79	8555	
419.99	7602.1	
420.2	8077.2	
420.4	9669.1	
420.6	9810.5	
420.8	7654.6	
421.01	7443.7	
421.21	9456.2	
421.41	9725.1	
421.61	7980.3	
421.82	7688.8	
422.02	8942.1	
422.22	9837.8	
422.42	8549.6	
422.63	7978.9	
422.83	9090.3	
423.03	10241	
423.23	8042.4	
423.44	6956.9	
423.64	9158.5	
423.84	8796	
424.04	7400.7	
424.25	7062.8	
424.45	10055	
424.65	9927.9	
424.85	6772.6	
425.06	7463.5	
425.26	9832.3	
425.46	8339.3	
425.66	7950.9	
425.87	7635.5	
426.07	9598.1	
426.27	9503.9	
426.47	7749.5	
426.67	7037.5	
426.88	9927.9	
427.08	9255.5	
427.28	8000	
427.48	6932.4	
427.69	8056	
427.89	8890.2	
428.09	7905.2	
428.29	6985.6	
428.5	9608.4	
428.7	9082.7	
428.9	6969.9	
429.1	7434.1	
429.3	8998.1	
429.51	9564.7	
429.71	7236.2	
429.91	8160.5	
430.11	9371.5	
430.31	9769.5	
430.52	7651.2	
430.72	7952.9	
430.92	9997.5	
431.12	9383.1	
431.32	7274.4	
431.53	7607.5	
431.73	8255.4	
431.93	10069	
432.13	7179.5	
432.33	7136.5	
432.54	8829.5	
432.74	9297.1	
432.94	7079.1	
433.14	8282	
433.34	9365.4	
433.55	9048.6	
433.75	8162.5	
433.95	10101	
434.15	9237	
434.35	8844.5	
434.56	7245.7	
434.76	6939.2	
434.96	9254.1	
435.16	9611.1	
435.36	7192.5	
435.56	8468.4	
435.77	9013.1	
435.97	9067	
436.17	9259.5	
436.37	8454	
436.57	8880.7	
436.78	9037	
436.98	10240	
437.18	9084.1	
437.38	9813.9	
437.58	9109.4	
437.78	9089.6	
437.99	7653.9	
438.19	9524.4	
438.39	10365	
438.59	7488.1	
438.79	6920.1	
438.99	10167	
439.2	8966.7	
439.4	7113.3	
439.6	7101.7	
439.8	9466.4	
440	10690	
440.2	8434.9	
440.4	8669.1	
440.61	10083	
440.81	10758	
441.01	7666.9	
441.21	8661.5	
441.41	10578	
441.61	10047	
441.81	8930.5	
442.02	10045	
442.22	11016	
442.42	10124	
442.62	7717.4	
442.82	7679.9	
443.02	10398	
443.22	9671.2	
443.43	8327.7	
443.63	7811.6	
443.83	9377	
444.03	9441.1	
444.23	9273.9	
444.43	8753	
444.63	9856.2	
444.83	11146	
445.04	7902.4	
445.24	9482.8	
445.44	9996.8	
445.64	10187	
445.84	8574.2	
446.04	8624	
446.24	9282.1	
446.44	10406	
446.65	7677.2	
446.85	8176.2	
447.05	9727.2	
447.25	10457	
447.45	8239.7	
447.65	7583.6	
447.85	9702.6	
448.05	9220.6	
448.25	8834.3	
448.46	8557.1	
448.66	9650	
448.86	9359.2	
449.06	7519.5	
449.26	8681.3	
449.46	10096	
449.66	9069.1	
449.86	8322.3	
450.06	8177.5	
450.26	9247.9	
450.47	10021	
450.67	8369.4	
450.87	8912.8	
451.07	9977.7	
451.27	9785.2	
451.47	7766.6	
451.67	8438.3	
451.87	9392	
452.07	10589	
452.27	8098.4	
452.47	7884.7	
452.67	9770.9	
452.88	10303	
453.08	7234.1	
453.28	9434.3	
453.48	11068	
453.68	9570.2	
453.88	7946.1	
454.08	8129.8	
454.28	10162	
454.48	9730.6	
454.68	8835.6	
454.88	9307.3	
455.08	10198	
455.28	10107	
455.48	7662.1	
455.68	8542.1	
455.89	10825	
456.09	10370	
456.29	8269.7	
456.49	8382.3	
456.69	10810	
456.89	9828.9	
457.09	9005.6	
457.29	9390.6	
457.49	10405	
457.69	10577	
457.89	8940.7	
458.09	8236.2	
458.29	10256	
458.49	11017	
458.69	9314.8	
458.89	8736	
459.09	11297	
459.29	11381	
459.49	8819.9	
459.69	9699.2	
459.9	10768	
460.1	10302	
460.3	8507.3	
460.5	8434.9	
460.7	10723	
460.9	10487	
461.1	8026.7	
461.3	9556.5	
461.5	11522	
461.7	11088	
461.9	8808.3	
462.1	9230.2	
462.3	10690	
462.5	11200	
462.7	8789.9	
462.9	9017.9	
463.1	12351	
463.3	12125	
463.5	9192.6	
463.7	10361	
463.9	10939	
464.1	11346	
464.3	9531.2	
464.5	9762	
464.7	11691	
464.9	11457	
465.1	11028	
465.3	10037	
465.5	11995	
465.7	12080	
465.9	10359	
466.1	10075	
466.3	12000	
466.5	11578	
466.7	11318	
466.9	9916.3	
467.1	11713	
467.3	12727	
467.5	11267	
467.7	10023	
467.9	12964	
468.1	13916	
468.3	10811	
468.5	11262	
468.7	11806	
468.9	11606	
469.1	10421	
469.3	11025	
469.5	13875	
469.7	11357	
469.9	10816	
470.1	10223	
470.3	11680	
470.5	11801	
470.7	11333	
470.9	10137	
471.1	11529	
471.3	11785	
471.5	9884.2	
471.69	11929	
471.89	11291	
472.09	10748	
472.29	10722	
472.49	10975	
472.69	11021	
472.89	11944	
473.09	9756.5	
473.29	9757.2	
473.49	11129	
473.69	11091	
473.89	10755	
474.09	9896.5	
474.29	12519	
474.49	12280	
474.69	10748	
474.89	10054	
475.09	11244	
475.29	11310	
475.49	9331.2	
475.69	9639.8	
475.88	12816	
476.08	11444	
476.28	9280.7	
476.48	9583.1	
476.68	11759	
476.88	11672	
477.08	9448	
477.28	9830.2	
477.48	11161	
477.68	11809	
477.88	9384.5	
478.08	9686.2	
478.28	12247	
478.48	11300	
478.67	9781.8	
478.87	9041.1	
479.07	11985	
479.27	11242	
479.47	9997.5	
479.67	9961.3	
479.87	11829	
480.07	12463	
480.27	9153.7	
480.47	10912	
480.67	11394	
480.87	12100	
481.06	9331.2	
481.26	10358	
481.46	11273	
481.66	11222	
481.86	9908.1	
482.06	10934	
482.26	11022	
482.46	12005	
482.66	9807.7	
482.86	9433.6	
483.05	11349	
483.25	10675	
483.45	12465	
483.65	9916.3	
483.85	11071	
484.05	11368	
484.25	10342	
484.45	10895	
484.65	12193	
484.84	12343	
485.04	9719	
485.24	9759.3	
485.44	12550	
485.64	10787	
485.84	9219.3	
486.04	10603	
486.24	11192	
486.44	11613	
486.63	9129.2	
486.83	9991.4	
487.03	11204	
487.23	11510	
487.43	9235	
487.63	11933	
487.83	11458	
488.02	12507	
488.22	10394	
488.42	10965	
488.62	12412	
488.82	11275	
489.02	10080	
489.22	10066	
489.41	12179	
489.61	11805	
489.81	9777.7	
490.01	9682.8	
490.21	12084	
490.41	12803	
490.61	9709.4	
490.8	9897.2	
491	11547	
491.2	10893	
491.4	10427	
491.6	9315.5	
491.8	11385	
491.99	11582	
492.19	9181.7	
492.39	9674.6	
492.59	12088	
492.79	12240	
492.99	10626	
493.18	9865.1	
493.38	12372	
493.58	13347	
493.78	10655	
493.98	10116	
494.18	12133	
494.37	11494	
494.57	11075	
494.77	10965	
494.97	12592	
495.17	12833	
495.37	10494	
495.56	10879	
495.76	13026	
495.96	12727	
496.16	11900	
496.36	10836	
496.55	12904	
496.75	12493	
496.95	11701	
497.15	10862	
497.35	12737	
497.54	12856	
497.74	10756	
497.94	12612	
498.14	13704	
498.34	13406	
498.53	10530	
498.73	11335	
498.93	12194	
499.13	12875	
499.33	11141	
499.52	11546	
499.72	12934	
499.92	13360	
500.12	10865	
500.32	11187	
500.51	13227	
500.71	12951	
500.91	11992	
501.11	11437	
501.31	13131	
501.5	13463	
501.7	12184	
501.9	11039	
502.1	12729	
502.29	13181	
502.49	11627	
502.69	11972	
502.89	12960	
503.09	12986	
503.28	10414	
503.48	10427	
503.68	12048	
503.88	12072	
504.07	11580	
504.27	10953	
504.47	12549	
504.67	12621	
504.86	11388	
505.06	11101	
505.26	12159	
505.46	13908	
505.65	10843	
505.85	11135	
506.05	11741	
506.25	12402	
506.44	10015	
506.64	11101	
506.84	11772	
507.04	12753	
507.23	10251	
507.43	10779	
507.63	13885	
507.83	11971	
508.02	10847	
508.22	10371	
508.42	14072	
508.62	11607	
508.81	10569	
509.01	11191	
509.21	11409	
509.4	11779	
509.6	10864	
509.8	10173	
510	11770	
510.19	13383	
510.39	10109	
510.59	10219	
510.79	11630	
510.98	13101	
511.18	10229	
511.38	10520	
511.57	12458	
511.77	12293	
511.97	11062	
512.17	10004	
512.36	12448	
512.56	12209	
512.76	9966.8	
512.95	9708.1	
513.15	12499	
513.35	11127	
513.55	11038	
513.74	10016	
513.94	12564	
514.14	11742	
514.33	11041	
514.53	10744	
514.73	11721	
514.92	11934	
515.12	10262	
515.32	10096	
515.51	12019	
515.71	12734	
515.91	11865	
516.11	10158	
516.3	13844	
516.5	11544	
516.7	10609	
516.89	11278	
517.09	11729	
517.29	11672	
517.48	11200	
517.68	10392	
517.88	11474	
518.07	12026	
518.27	10826	
518.47	9934	
518.66	12674	
518.86	11157	
519.06	9606.3	
519.25	10180	
519.45	11554	
519.65	13241	
519.84	10938	
520.04	11627	
520.24	13609	
520.43	12160	
520.63	10428	
520.83	10242	
521.02	11256	
521.22	11952	
521.42	10658	
521.61	11232	
521.81	11518	
522.01	11761	
522.2	10524	
522.4	10378	
522.6	12325	
522.79	11107	
522.99	10505	
523.18	9737.4	
523.38	12093	
523.58	12201	
523.77	11951	
523.97	9878	
524.17	14184	
524.36	13320	
524.56	11462	
524.76	11077	
524.95	12276	
525.15	11886	
525.34	10784	
525.54	10845	
525.74	12656	
525.93	11567	
526.13	12103	
526.33	10898	
526.52	13067	
526.72	12530	
526.91	12153	
527.11	11314	
527.31	13108	
527.5	13750	
527.7	11452	
527.89	10335	
528.09	12127	
528.29	12768	
528.48	11856	
528.68	11433	
528.87	13072	
529.07	12997	
529.27	11196	
529.46	10661	
529.66	12614	
529.85	13076	
530.05	10497	
530.25	11293	
530.44	14016	
530.64	12521	
530.83	10854	
531.03	11210	
531.23	12994	
531.42	13012	
531.62	12203	
531.81	11323	
532.01	13257	
532.21	13973	
532.4	11157	
532.6	11567	
532.79	14401	
532.99	13512	
533.18	11675	
533.38	12657	
533.58	13005	
533.77	13783	
533.97	11585	
534.16	12409	
534.36	14108	
534.55	13087	
534.75	12745	
534.95	11714	
535.14	13958	
535.34	13019	
535.53	11260	
535.73	13298	
535.92	14427	
536.12	13072	
536.31	11305	
536.51	12583	
536.71	13360	
536.9	12930	
537.1	11411	
537.29	11748	
537.49	13870	
537.68	12912	
537.88	12052	
538.07	11207	
538.27	13174	
538.46	14283	
538.66	11023	
538.86	11683	
539.05	13210	
539.25	13579	
539.44	11798	
539.64	11389	
539.83	12794	
540.03	14035	
540.22	11206	
540.42	11352	
540.61	13046	
540.81	13281	
541	11744	
541.2	12515	
541.39	12676	
541.59	12996	
541.78	12209	
541.98	10947	
542.18	12320	
542.37	12329	
542.57	11373	
542.76	12039	
542.96	12189	
543.15	12909	
543.35	11343	
543.54	10706	
543.74	13182	
543.93	12813	
544.13	11294	
544.32	12512	
544.52	12962	
544.71	12241	
544.91	10294	
545.1	11655	
545.3	12237	
545.49	12987	
545.69	10324	
545.88	10948	
546.08	13851	
546.27	13407	
546.47	11443	
546.66	10636	
546.86	13089	
547.05	13783	
547.24	10871	
547.44	10760	
547.63	11834	
547.83	13143	
548.02	11110	
548.22	11303	
548.41	11682	
548.61	13107	
548.8	10522	
549	10468	
549.19	12377	
549.39	12702	
549.58	10130	
549.78	10750	
549.97	12742	
550.17	12206	
550.36	11615	
550.55	12713	
550.75	12052	
550.94	13068	
551.14	10274	
551.33	10643	
551.53	11565	
551.72	12525	
551.92	10832	
552.11	10474	
552.31	12458	
552.5	12381	
552.69	12223	
552.89	10057	
553.08	12496	
553.28	12121	
553.47	10447	
553.67	11732	
553.86	13022	
554.06	11217	
554.25	9571.5	
554.44	10230	
554.64	13821	
554.83	13376	
555.03	10226	
555.22	10595	
555.42	12514	
555.61	12205	
555.8	10291	
556	10707	
556.19	11186	
556.39	12662	
556.58	10419	
556.78	10258	
556.97	12182	
557.16	11822	
557.36	11585	
557.55	9942.9	
557.75	11048	
557.94	12858	
558.13	10040	
558.33	9814.5	
558.52	12562	
558.72	11409	
558.91	9922.4	
559.1	10167	
559.3	11077	
559.49	10779	
559.69	9330.5	
559.88	10450	
560.07	11920	
560.27	12372	
560.46	10694	
560.66	10803	
560.85	11744	
561.04	10862	
561.24	9820	
561.43	9898.5	
561.63	11049	
561.82	11339	
562.01	11267	
562.21	10196	
562.4	11854	
562.59	12908	
562.79	10083	
562.98	9839.1	
563.18	11705	
563.37	13389	
563.56	10670	
563.76	9746.3	
563.95	11213	
564.14	11114	
564.34	10089	
564.53	9770.2	
564.73	11806	
564.92	12170	
565.11	10292	
565.31	9615.2	
565.5	12456	
565.69	11296	
565.89	9884.9	
566.08	10080	
566.27	12261	
566.47	12749	
566.66	10906	
566.85	9430.2	
567.05	11895	
567.24	11084	
567.44	9800.2	
567.63	11250	
567.82	12065	
568.02	11814	
568.21	9736	
568.4	10222	
568.6	11689	
568.79	11720	
568.98	9583.8	
569.18	9847.3	
569.37	11653	
569.56	13830	
569.76	10126	
569.95	11241	
570.14	12063	
570.34	11903	
570.53	9678	
570.72	9608.4	
570.91	12473	
571.11	11541	
571.3	10086	
571.49	11144	
571.69	11613	
571.88	11105	
572.07	10835	
572.27	10737	
572.46	11224	
572.65	12287	
572.85	9900.6	
573.04	10254	
573.23	12569	
573.43	11759	
573.62	9671.2	
573.81	10391	
574	11654	
574.2	11736	
574.39	10013	
574.58	10237	
574.78	12742	
574.97	11916	
575.16	10606	
575.36	10890	
575.55	12343	
575.74	12460	
575.93	9675.3	
576.13	10851	
576.32	11621	
576.51	12315	
576.71	10258	
576.9	11604	
577.09	12636	
577.28	12108	
577.48	10544	
577.67	9617.3	
577.86	11672	
578.05	12076	
578.25	10266	
578.44	10454	
578.63	11802	
578.83	13113	
579.02	9711.5	
579.21	11349	
579.4	12177	
579.6	11700	
579.79	10552	
579.98	12786	
580.17	12517	
580.37	12549	
580.56	9815.2	
580.75	10746	
580.94	13042	
581.14	12800	
581.33	11303	
581.52	10027	
581.71	12360	
581.91	13012	
582.1	9751.7	
582.29	10451	
582.48	12022	
582.68	11795	
582.87	10827	
583.06	10547	
583.25	12312	
583.45	11691	
583.64	11139	
583.83	12042	
584.02	11644	
584.21	12285	
584.41	11238	
584.6	10418	
584.79	11880	
584.98	12810	
585.18	9803.6	
585.37	9966.8	
585.56	11457	
585.75	12422	
585.94	10034	
586.14	10799	
586.33	12961	
586.52	11849	
586.71	10469	
586.91	10218	
587.1	11184	
587.29	12299	
587.48	10108	
587.67	9940.2	
587.87	12080	
588.06	12056	
588.25	11329	
588.44	10495	
588.63	11549	
588.83	12196	
589.02	9895.1	
589.21	9635.7	
589.4	11067	
589.59	10954	
589.78	8617.2	
589.98	8871.8	
590.17	10307	
590.36	11001	
590.55	8166.6	
590.74	9009	
590.94	12236	
591.13	10810	
591.32	8850	
591.51	8505.2	
591.7	11369	
591.89	10804	
592.09	8561.9	
592.28	9030.2	
592.47	9962	
592.66	12002	
592.85	8599.4	
593.05	8805.6	
593.24	10568	
593.43	11383	
593.62	8921.6	
593.81	9434.3	
594	10572	
594.19	11032	
594.39	8830.2	
594.58	8723	
594.77	10925	
594.96	11679	
595.15	8620.6	
595.34	9344.2	
595.54	10961	
595.73	10041	
595.92	7961.1	
596.11	9186.5	
596.3	11465	
596.49	10118	
596.68	8954.4	
596.88	9543.5	
597.07	11282	
597.26	10008	
597.45	8447.2	
597.64	9880.8	
597.83	10236	
598.02	10957	
598.22	8578.3	
598.41	9286.2	
598.6	10725	
598.79	10148	
598.98	8649.3	
599.17	9628.9	
599.36	10686	
599.55	12019	
599.74	10820	
599.94	10540	
600.13	11306	
600.32	10008	
600.51	8391.2	
600.7	8621.3	
600.89	11981	
601.08	11972	
601.27	8325	
601.47	9310.1	
601.66	11167	
601.85	11994	
602.04	8937.3	
602.23	9282.8	
602.42	10311	
602.61	10905	
602.8	8878.6	
602.99	8720.9	
603.18	10514	
603.37	10832	
603.57	9264.3	
603.76	9977	
603.95	11666	
604.14	11108	
604.33	8741.4	
604.52	9032.2	
604.71	10808	
604.9	10450	
605.09	9792.7	
605.28	9505.3	
605.47	11416	
605.66	11101	
605.86	9392	
606.05	8743.5	
606.24	11241	
606.43	9777.7	
606.62	9036.3	
606.81	9908.8	
607	11148	
607.19	10498	
607.38	8516.1	
607.57	8723	
607.76	10262	
607.95	9691	
608.14	9164	
608.33	9807.7	
608.52	10101	
608.72	11083	
608.91	8271.7	
609.1	8182.3	
609.29	10324	
609.48	9805.7	
609.67	9334.6	
609.86	8211	
610.05	9848	
610.24	10244	
610.43	8075.8	
610.62	7718.1	
610.81	11403	
611	11157	
611.19	8214.4	
611.38	9003.6	
611.57	10486	
611.76	11881	
611.95	7983	
612.14	7880.6	
612.33	10340	
612.52	9780.4	
612.71	8610.3	
612.9	7737.2	
613.09	9396.8	
613.28	11966	
613.47	8287.4	
613.66	9282.8	
613.85	10330	
614.04	9864.4	
614.24	8405.5	
614.43	7473	
614.62	10560	
614.81	10440	
615	8905.9	
615.19	9017.2	
615.38	9673.2	
615.57	10075	
615.76	8755.7	
615.95	9852.8	
616.14	10528	
616.33	10173	
616.52	9154.4	
616.71	9392	
616.9	10583	
617.09	10376	
617.28	8471.1	
617.47	9914.2	
617.66	9602.9	
617.85	9651.4	
618.04	9450	
618.22	8839.7	
618.41	9955.9	
618.6	10921	
618.79	8796.7	
618.98	8454	
619.17	11291	
619.36	9513.5	
619.55	8649.9	
619.74	8630.8	
619.93	10441	
620.12	9994.1	
620.31	9333.3	
620.5	9489.6	
620.69	11056	
620.88	11536	
621.07	10255	
621.26	9222.7	
621.45	10705	
621.64	10731	
621.83	9306	
622.02	8477.2	
622.21	10753	
622.4	10488	
622.59	9852.8	
622.78	9505.3	
622.97	10023	
623.16	11180	
623.35	9244.5	
623.54	8337.3	
623.72	10279	
623.91	10590	
624.1	9559.9	
624.29	8098.4	
624.48	11535	
624.67	10799	
624.86	9355.8	
625.05	8297.7	
625.24	11641	
625.43	9937.4	
625.62	11226	
625.81	8543.4	
626	11075	
626.19	10322	
626.38	9424.1	
626.56	8816.5	
626.75	10200	
626.94	10895	
627.13	9396.8	
627.32	8049.9	
627.51	10783	
627.7	12250	
627.89	8161.2	
628.08	9377.6	
628.27	9862.3	
628.46	10066	
628.65	8350.3	
628.83	8206.2	
629.02	10738	
629.21	9965.4	
629.4	8885.5	
629.59	9108	
629.78	9890.3	
629.97	10988	
630.16	9215.9	
630.35	8591.2	
630.54	11292	
630.72	11135	
630.91	8749.6	
631.1	9150.3	
631.29	10502	
631.48	10722	
631.67	9203.6	
631.86	8681.3	
632.05	10054	
632.24	10217	
632.42	8340.7	
632.61	9027.4	
632.8	10315	
632.99	9886.9	
633.18	9067.7	
633.37	9497.8	
633.56	10485	
633.75	10256	
633.93	8929.8	
634.12	8727.8	
634.31	11440	
634.5	10957	
634.69	8725	
634.88	9187.9	
635.07	10309	
635.25	10826	
635.44	9637.1	
635.63	9897.8	
635.82	10011	
636.01	9577	
636.2	9542.9	
636.39	9041.1	
636.57	11347	
636.76	10979	
636.95	8385.7	
637.14	9970.2	
637.33	10585	
637.52	11633	
637.7	8219.2	
637.89	9168.8	
638.08	10134	
638.27	11623	
638.46	9288.2	
638.65	9752.4	
638.83	11565	
639.02	9893.1	
639.21	9058.2	
639.4	9648	
639.59	10401	
639.78	9923.1	
639.96	8398	
640.15	8407.6	
640.34	10149	
640.53	10377	
640.72	8054	
640.91	8419.9	
641.09	9678	
641.28	10989	
641.47	8421.9	
641.66	9330.5	
641.85	10271	
642.03	10540	
642.22	9056.8	
642.41	8399.4	
642.6	9681.4	
642.79	9019.9	
642.97	8271.1	
643.16	8918.2	
643.35	9536.7	
643.54	9402.9	
643.73	8058.1	
643.91	8873.8	
644.1	9194	
644.29	9859.6	
644.48	8137.3	
644.67	8137.3	
644.85	9400.2	
645.04	9613.2	
645.23	7589.8	
645.42	7912	
645.6	9032.2	
645.79	10426	
645.98	7877.9	
646.17	6804	
646.36	8816.5	
646.54	9443.2	
646.73	8581.7	
646.92	7365.9	
647.11	8970.8	
647.29	10082	
647.48	7378.8	
647.67	7223.9	
647.86	10340	
648.05	10357	
648.23	7813	
648.42	9071.8	
648.61	9736.7	
648.8	9411.8	
648.98	7389.1	
649.17	7799.3	
649.36	8926.4	
649.55	8475.9	
649.73	7444.4	
649.92	8307.2	
650.11	8918.2	
650.3	9222	
650.48	7529.7	
650.67	7419.8	
650.86	9398.1	
651.05	8226.7	
651.23	7531.7	
651.42	7408.2	
651.61	8856.1	
651.79	9056.8	
651.98	7747.5	
652.17	7351.5	
652.36	9340.1	
652.54	8321.6	
652.73	7225.9	
652.92	7150.8	
653.11	9398.1	
653.29	9394	
653.48	6597.9	
653.67	7645.1	
653.85	9038.4	
654.04	10135	
654.23	7767.9	
654.42	7249.1	
654.6	8386.4	
654.79	9110	
654.98	6568.5	
655.16	7137.2	
655.35	8023.3	
655.54	7918.8	
655.73	6697.5	
655.91	6701	
656.1	9190.6	
656.29	8019.2	
656.47	6267.5	
656.66	8084.7	
656.85	8398	
657.03	8395.3	
657.22	6900.3	
657.41	6964.5	
657.59	8453.3	
657.78	8247.2	
657.97	6515.3	
658.16	7398.6	
658.34	9106	
658.53	9648.7	
658.72	8278.6	
658.9	8935.3	
659.09	8547.5	
659.28	8583	
659.46	7016.3	
659.65	7068.9	
659.84	8382.3	
660.02	8846.5	
660.21	6907.1	
660.4	6908.5	
660.58	9329.9	
660.77	8725.7	
660.96	7547.4	
661.14	6525.5	
661.33	9850	
661.52	9796.1	
661.7	6457.2	
661.89	10404	
662.08	8221.9	
662.26	7858.1	
662.45	6756.9	
662.64	6866.2	
662.82	8953	
663.01	8184.4	
663.2	6904.4	
663.38	7708.6	
663.57	8961.9	
663.75	8783.1	
663.94	7198.6	
664.13	8576.9	
664.31	8183	
664.5	8989.2	
664.69	7321.5	
664.87	8101.1	
665.06	7938.6	
665.25	8714.8	
665.43	8202.1	
665.62	8337.3	
665.8	8997.4	
665.99	8307.2	
666.18	7089.4	
666.36	7291.5	
666.55	9044.5	
666.74	8970.8	
666.92	6771.3	
667.11	8529.8	
667.29	8321.6	
667.48	9039.1	
667.67	8088.8	
667.85	6946.7	
668.04	8346.8	
668.22	8403.5	
668.41	7190.4	
668.6	7400.7	
668.78	8153	
668.97	8330.5	
669.15	7566.6	
669.34	6485.9	
669.53	8110	
669.71	8523	
669.9	6646.3	
670.08	7429.3	
670.27	8172.1	
670.46	8696.4	
670.64	7555.6	
670.83	7858.7	
671.01	7940	
671.2	8678.6	
671.38	6692.1	
671.57	6634.1	
671.76	9346.2	
671.94	9885.5	
672.13	6543.3	
672.31	7740	
672.5	8846.5	
672.69	8060.1	
672.87	6769.2	
673.06	6965.1	
673.24	8708	
673.43	8196	
673.61	7578.8	
673.8	7042.3	
673.98	8881.4	
674.17	9074.5	
674.36	7688.1	
674.54	7486.7	
674.73	8607.6	
674.91	8841.8	
675.1	7179.5	
675.28	6735.8	
675.47	8286.1	
675.65	9022.7	
675.84	7019.1	
676.03	7484	
676.21	8082.6	
676.4	7623.2	
676.58	7832.1	
676.77	7662.1	
676.95	9682.8	
677.14	8046.5	
677.32	6696.2	
677.51	6457.2	
677.69	8819.9	
677.88	7654.6	
678.06	6511.9	
678.25	6754.2	
678.44	8385.1	
678.62	8131.8	
678.81	6351.4	
678.99	7273.7	
679.18	9235	
679.36	8754.4	
679.55	6976.7	
679.73	7645.8	
679.92	8697.7	
680.1	8119.5	
680.29	8347.5	
680.47	6918.7	
680.66	7988.4	
680.84	8916.9	
681.03	6239.5	
681.21	7204.1	
681.4	8073.8	
681.58	7994.6	
681.77	6707.8	
681.95	6649.1	
682.14	9011.1	
682.32	9311.4	
682.51	7559.7	
682.69	6412.9	
682.88	7915.4	
683.06	8667.7	
683.25	7256	
683.43	7746.1	
683.62	8264.2	
683.8	8649.3	
683.99	7915.4	
684.17	7086.7	
684.36	9491	
684.54	8049.9	
684.73	6133	
684.91	6295.5	
685.1	8226.7	
685.28	7598	
685.46	6854.6	
685.65	6948.8	
685.83	8585.8	
686.02	7933.8	
686.2	6403.3	
686.39	6489.3	
686.57	7728.4	
686.76	9346.9	
686.94	6397.2	
687.13	6576	
687.31	8454	
687.5	7919.5	
687.68	5997.8	
687.86	7366.5	
688.05	9712.2	
688.23	7361.8	
688.42	7417.7	
688.6	6492.1	
688.79	8047.2	
688.97	7787.7	
689.16	7015	
689.34	5840.8	
689.52	8624	
689.71	8879.3	
689.89	7176.1	
690.08	6477.7	
690.26	8116.8	
690.45	7927.7	
690.63	7379.5	
690.81	6600.6	
691	7701.7	
691.18	7718.1	
691.37	6708.5	
691.55	9008.3	
691.74	7660.8	
691.92	9828.2	
692.1	6752.8	
692.29	6034	
692.47	7891.5	
692.66	7146.7	
692.84	6367.8	
693.02	6973.3	
693.21	7314	
693.39	7828.7	
693.58	6993.8	
693.76	6517.3	
693.94	9102.5	
694.13	8918.9	
694.31	6511.9	
694.5	7641	
694.68	7748.1	
694.86	8039.6	
695.05	6920.1	
695.23	7352.2	
695.42	8462.2	
695.6	10954	
695.78	7534.5	
695.97	6623.1	
696.15	8494.3	
696.34	7791.2	
696.52	6307.7	
696.7	7092.1	
696.89	8161.8	
697.07	7584.3	
697.25	7066.9	
697.44	8648.6	
697.62	8165.9	
697.81	8449.2	
697.99	6739.9	
698.17	7243	
698.36	7404.8	
698.54	8135.9	
698.72	6958.3	
698.91	5997.8	
699.09	7768.6	
699.28	7520.8	
699.46	6651.1	
699.64	6475.7	
699.83	7426.6	
700.01	8798.8	
700.19	7374.7	
700.38	5700.9	
700.56	8735.3	
700.74	7641	
700.93	6231.3	
701.11	7063.4	
701.29	8279.9	
701.48	9383.1	
701.66	6393.8	
701.84	6433.4	
702.03	7779.6	
702.21	8476.5	
702.39	5988.9	
702.58	6555.5	
702.76	8151.6	
702.94	8322.9	
703.13	5969.1	
703.31	8447.9	
703.49	7427.3	
703.68	9002.9	
703.86	6144.6	
704.04	7209.5	
704.23	8020.5	
704.41	8428.8	
704.59	6324.8	
704.78	7711.3	
704.96	9116.9	
705.14	8544.1	
705.33	6025.8	
705.51	7026.6	
705.69	7740.6	
705.87	8720.9	
706.06	7307.2	
706.24	6070.2	
706.42	8142	
706.61	8420.6	
706.79	7390.4	
706.97	6047	
707.16	7511.9	
707.34	8110.6	
707.52	7217.7	
707.7	6344.6	
707.89	7659.4	
708.07	7398.6	
708.25	7279.2	
708.44	7400	
708.62	7638.9	
708.8	8873.8	
708.98	7490.8	
709.17	6415.6	
709.35	8060.8	
709.53	8082	
709.72	6118	
709.9	6531	
710.08	8286.1	
710.26	8366.6	
710.45	7779.6	
710.63	6423.1	
710.81	7948.2	
710.99	7940.7	
711.18	7120.8	
711.36	6514.6	
711.54	7721.5	
711.72	8503.2	
711.91	6544.6	
712.09	5899.5	
712.27	7848.5	
712.45	8531.8	
712.64	6724.2	
712.82	5723.4	
713	7229.3	
713.18	7438.2	
713.37	5799.8	
713.55	7081.9	
713.73	8224.6	
713.91	6713.9	
714.1	6008.1	
714.28	5444.9	
714.46	7744.7	
714.64	6929	
714.83	4903.5	
715.01	5737.7	
715.19	6888.7	
715.37	6362.4	
715.55	5446.9	
715.74	5819	
715.92	7970.7	
716.1	5876.3	
716.28	6957.6	
716.47	5856.5	
716.65	6619	
716.83	6678.4	
717.01	5714.5	
717.19	5825.1	
717.38	8920.3	
717.56	6325.5	
717.74	6048.3	
717.92	5160.2	
718.1	7680.6	
718.29	6829.3	
718.47	4781.3	
718.65	5610.1	
718.83	7632.8	
719.01	7597.3	
719.2	4788.2	
719.38	5916.6	
719.56	7268.2	
719.74	8901.2	
719.92	5388.2	
720.11	6470.9	
720.29	7241.6	
720.47	6298.2	
720.65	4916.5	
720.83	5799.2	
721.02	6595.8	
721.2	6378.1	
721.38	5896.1	
721.56	5052.3	
721.74	5836	
721.92	6147.3	
722.11	6346	
722.29	6079.7	
722.47	7477.8	
722.65	6496.8	
722.83	5123.3	
723.01	6105.7	
723.2	6644.3	
723.38	6912.6	
723.56	4450.9	
723.74	5793	
723.92	6107.7	
724.1	7378.1	
724.29	4998.4	
724.47	6249.7	
724.65	6110.5	
724.83	6067.4	
725.01	4847.5	
725.19	5918.6	
725.37	6165.1	
725.56	6273.6	
725.74	4696.7	
725.92	4989.5	
726.1	6021	
726.28	6397.2	
726.46	5449	
726.64	5178.6	
726.83	6321.4	
727.01	6675	
727.19	4657.1	
727.37	5640.1	
727.55	6524.8	
727.73	7000	
727.91	4700.8	
728.09	4495.3	
728.28	7118.1	
728.46	7703.8	
728.64	5781.4	
728.82	5679.7	
729	8314.8	
729.18	7510.6	
729.36	4871.4	
729.54	7472.4	
729.72	8613.8	
729.91	6793.8	
730.09	6948.1	
730.27	5591	
730.45	6600.6	
730.63	7407.5	
730.81	6298.9	
730.99	5319.9	
731.17	7937.9	
731.35	6417	
731.53	5916.6	
731.71	5504.3	
731.9	7651.2	
732.08	7847.1	
732.26	5725.4	
732.44	5386.8	
732.62	7866.9	
732.8	7361.8	
732.98	6186.2	
733.16	5114.5	
733.34	7341.3	
733.52	6102.3	
733.7	5640.8	
733.88	5992.4	
734.07	7132.4	
734.25	6922.8	
734.43	5100.8	
734.61	6856.6	
734.79	8553	
734.97	6782.2	
735.15	5283.1	
735.33	5629.2	
735.51	7133.8	
735.69	6782.2	
735.87	7200	
736.05	5851	
736.23	6911.9	
736.41	6752.2	
736.59	5685.8	
736.77	5831.9	
736.95	7488.7	
737.13	6946.7	
737.32	5296	
737.5	5672.9	
737.68	8126.3	
737.86	6701.6	
738.04	5074.9	
738.22	7116	
738.4	6539.8	
738.58	6821.1	
738.76	5887.9	
738.94	4700.1	
739.12	6721.4	
739.3	6562.4	
739.48	6526.9	
739.66	6204.7	
739.84	7016.3	
740.02	6978.1	
740.2	4790.9	
740.38	5233.9	
740.56	7396.6	
740.74	6165.8	
740.92	5930.9	
741.1	5857.9	
741.28	6802	
741.46	6600.6	
741.64	5464	
741.82	6021.7	
742	6811.5	
742.18	6777.4	
742.36	5668.8	
742.54	5220.3	
742.72	7451.2	
742.9	6037.4	
743.08	6157.6	
743.26	4797	
743.44	7717.4	
743.62	7451.9	
743.8	6252.4	
743.98	5168.4	
744.16	7117.4	
744.34	6876.4	
744.52	6118.6	
744.7	6115.2	
744.88	7292.8	
745.06	6744.6	
745.24	6117.3	
745.42	6365.8	
745.6	7283.3	
745.78	7205.4	
745.96	4887.1	
746.14	5231.9	
746.32	8145.5	
746.5	7440.3	
746.68	5820.3	
746.86	5330.9	
747.03	7880.6	
747.21	5964.4	
747.39	5869.5	
747.57	5209.3	
747.75	6917.4	
747.93	7394.5	
748.11	5296	
748.29	5155.4	
748.47	8645.2	
748.65	6643.6	
748.83	6012.2	
749.01	5748.6	
749.19	7180.9	
749.37	6296.1	
749.55	5624.4	
749.73	5521.3	
749.91	6866.2	
750.09	6473.6	
750.26	5685.8	
750.44	5073.5	
750.62	6872.3	
750.8	6794.5	
750.98	4958.1	
751.16	5303.6	
751.34	6896.2	
751.52	6144.6	
751.7	6133	
751.88	4905.6	
752.06	7382.9	
752.24	7149.5	
752.42	4849.6	
752.59	5236.7	
752.77	6857.3	
752.95	8088.8	
753.13	5995.1	
753.31	5394.3	
753.49	6466.8	
753.67	6964.5	
753.85	5638.1	
754.03	5233.9	
754.21	7194.5	
754.38	7490.8	
754.56	5393.7	
754.74	4374.5	
754.92	6408.8	
755.1	7152.9	
755.28	4364.9	
755.46	4373.8	
755.64	7836.2	
755.82	7959.1	
755.99	4560.8	
756.17	4704.2	
756.35	5147.9	
756.53	6807.4	
756.71	3431	
756.89	4410	
757.07	6376.7	
757.25	5389.6	
757.42	5085.1	
757.6	5909.1	
757.78	6503.7	
757.96	5389.6	
758.14	4785.4	
758.32	4292.5	
758.5	5041.4	
758.67	5824.4	
758.85	4534.9	
759.03	4677.6	
759.21	6075	
759.39	5405.3	
759.57	4102.8	
759.75	5415.5	
759.92	6647	
760.1	5954.1	
760.28	5755.5	
760.46	5988.3	
760.64	5776	
760.82	5481.7	
760.99	5606.7	
761.17	4738.3	
761.35	6632	
761.53	5558.9	
761.71	4861.2	
761.89	5578	
762.06	6521.4	
762.24	5922.7	
762.42	5002.5	
762.6	4696.7	
762.78	5993	
762.96	6744	
763.13	5394.3	
763.31	5042.1	
763.49	6849.1	
763.67	5982.1	
763.85	5922.7	
764.02	6563.1	
764.2	7200	
764.38	6308.4	
764.56	4877.6	
764.74	5833.3	
764.91	7331	
765.09	6140.5	
765.27	4567	
765.45	4372.4	
765.63	7341.3	
765.8	7268.2	
765.98	4071.4	
766.16	4403.8	
766.34	5652.4	
766.52	5438.7	
766.69	5500.2	
766.87	4262.5	
767.05	6161.7	
767.23	6875	
767.41	4550.6	
767.58	4914.4	
767.76	6716	
767.94	6713.2	
768.12	4713.1	
768.29	5552.7	
768.47	6154.1	
768.65	6993.8	
768.83	4282.3	
769	5477	
769.18	5679.7	
769.36	6495.5	
769.54	5483.8	
769.72	4272.1	
769.89	6686.6	
770.07	6858.6	
770.25	4649.6	
770.43	6005.3	
770.6	7544.7	
770.78	8066.3	
770.96	4855.7	
771.14	5549.3	
771.31	6625.2	
771.49	5918.6	
771.67	3937.6	
771.85	4205.8	
772.02	5073.5	
772.2	5950	
772.38	4976.6	
772.55	4444.1	
772.73	6227.2	
772.91	5967.1	
773.09	4835.3	
773.26	4967.7	
773.44	6210.8	
773.62	5741.8	
773.8	4245.4	
773.97	4012.7	
774.15	6253.1	
774.33	5815.5	
774.5	4192.9	
774.68	4589.5	
774.86	6392.4	
775.04	5834	
775.21	4273.4	
775.39	4285.7	
775.57	6089.3	
775.74	6531	
775.92	4127.3	
776.1	4011.3	
776.27	6080.4	
776.45	7441.6	
776.63	4324.6	
776.81	3760.8	
776.98	5673.6	
777.16	6836.1	
777.34	4389.5	
777.51	4719.9	
777.69	5643.5	
777.87	5425.1	
778.04	4440	
778.22	5123.3	
778.4	5534.3	
778.57	6128.9	
778.75	3663.1	
778.93	3971.7	
779.1	5154.1	
779.28	5104.9	
779.46	3688.4	
779.64	4214	
779.81	6257.2	
779.99	7281.2	
780.17	5015.5	
780.34	5243.5	
780.52	5803.3	
780.69	5937.7	
780.87	4470	
781.05	4098.7	
781.22	5775.3	
781.4	5905	
781.58	4176.5	
781.75	3299.3	
781.93	5786.2	
782.11	5184.8	
782.28	5218.2	
782.46	4233.8	
782.64	5018.2	
782.81	6034	
782.99	4270	
783.17	4229.1	
783.34	5902.9	
783.52	5076.9	
783.69	4525.3	
783.87	5369.8	
784.05	5075.5	
784.22	5208	
784.4	5349.3	
784.58	4552	
784.75	6155.5	
784.93	5211.4	
785.1	4195.6	
785.28	4941.7	
785.46	5847.6	
785.63	5157.5	
785.81	4190.1	
785.99	4032.5	
786.16	5294.7	
786.34	5721.3	
786.51	4091.2	
786.69	4489.1	
786.87	4912.4	
787.04	5479	
787.22	3919.1	
787.39	4957.4	
787.57	5114.5	
787.75	6360.3	
787.92	5093.3	
788.1	5091.3	
788.27	5216.9	
788.45	4956.8	
788.63	4776.5	
788.8	3377.8	
788.98	5612.1	
789.15	4836.6	
789.33	3528	
789.5	4216.1	
789.68	6171.2	
789.86	6241.5	
790.03	4712.4	
790.21	4080.2	
790.38	6147.3	
790.56	5281.7	
790.73	3891.1	
790.91	3930.1	
791.09	5128.8	
791.26	5991.7	
791.44	4179.9	
791.61	3592.1	
791.79	5122	
791.96	5243.5	
792.14	3717.7	
792.32	3270.6	
792.49	5175.9	
792.67	5313.8	
792.84	3822.2	
793.02	3539.6	
793.19	5976.7	
793.37	6475	
793.54	3332	
793.72	3689.8	
793.89	6636.1	
794.07	5182	
794.25	4339.6	
794.42	3378.5	
794.6	6316.6	
794.77	5926.1	
794.95	4635.2	
795.12	3991.5	
795.3	5195.7	
795.47	5821.7	
795.65	4461.2	
795.82	4252.9	
796	5001.8	
796.17	7025.9	
796.35	4083	
796.52	4864.6	
796.7	5733.6	
796.87	5851	
797.05	5202.5	
797.22	5074.2	
797.4	5838.1	
797.57	6883.9	
797.75	4216.1	
797.92	4001.7	
798.1	6161	
798.27	5186.8	
798.45	3448.1	
798.62	3678.8	
798.8	5508.4	
798.97	6001.2	
799.15	4453.6	
799.32	4261.8	
799.5	4679.6	
799.67	5553.4	
799.85	4618.9	
800.02	3345.7	
800.2	5055.1	
800.37	5470.1	
800.55	4825	
800.72	3996.3	
800.9	5978.7	
801.07	6428.6	
801.25	5442.1	
801.42	4399	
801.6	5983.5	
801.77	5791.7	
801.95	4071.4	
802.12	3906.8	
802.29	5723.4	
802.47	5644.9	
802.64	4364.2	
802.82	3275.4	
802.99	5063.3	
803.17	6208.8	
803.34	4246.8	
803.52	3764.8	
803.69	6920.1	
803.87	4891.2	
804.04	4164.9	
804.21	4306.2	
804.39	6270.9	
804.56	5313.1	
804.74	3519.8	
804.91	4453	
805.09	5123.3	
805.26	5276.3	
805.44	3648.8	
805.61	4038.6	
805.78	5847	
805.96	5890.6	
806.13	4403.1	
806.31	4734.9	
806.48	4663.9	
806.66	5224.4	
806.83	4355.3	
807	4299.4	
807.18	5106.3	
807.35	5576.6	
807.53	4331.5	
807.7	3379.1	
807.87	6451.1	
808.05	5188.9	
808.22	4702.8	
808.4	3362.1	
808.57	5176.6	
808.74	4817.5	
808.92	3876.8	
809.09	5008.6	
809.27	5042.1	
809.44	5774.6	
809.61	3406.5	
809.79	3803.1	
809.96	6414.9	
810.14	6021.7	
810.31	3331.4	
810.48	4115.1	
810.66	5314.5	
810.83	6072.2	
811.01	3941.7	
811.18	4375.8	
811.35	5971.9	
811.53	4603.8	
811.7	4735.6	
811.87	4485.7	
812.05	5188.2	
812.22	5075.5	
812.39	3745.1	
812.57	3644	
812.74	5227.8	
812.92	7004.1	
813.09	4132.1	
813.26	4521.2	
813.44	6717.3	
813.61	5186.1	
813.78	3379.1	
813.96	4542.4	
814.13	5200.5	
814.3	4788.8	
814.48	5005.2	
814.65	4125.3	
814.82	6477	
815	5001.1	
815.17	4235.2	
815.34	5243.5	
815.52	5089.9	
815.69	5123.3	
815.87	4203.8	
816.04	3590.8	
816.21	5259.2	
816.38	4537.6	
816.56	4072	
816.73	3783.3	
816.9	6562.4	
817.08	6019.7	
817.25	3827	
817.42	4851	
817.6	4729.4	
817.77	5208.7	
817.94	4354	
818.12	3765.5	
818.29	4896.7	
818.46	7821.9	
818.64	3904.8	
818.81	3658.4	
818.98	4816.1	
819.16	7168.6	
819.33	4508.3	
819.5	4218.1	
819.67	5627.8	
819.85	6282.5	
820.02	4130.1	
820.19	4401.1	
820.37	5440.1	
820.54	4997	
820.71	4293.2	
820.88	5335	
821.06	5419.6	
821.23	4906.9	
821.4	4283	
821.58	4289.8	
821.75	6015.6	
821.92	5281	
822.09	3435.1	
822.27	3637.9	
822.44	5192.3	
822.61	5054.4	
822.79	3479.5	
822.96	6704.4	
823.13	5739.1	
823.3	4870.1	
823.48	4025.6	
823.65	3659.7	
823.82	5943.9	
823.99	4715.8	
824.17	5165.7	
824.34	3652.9	
824.51	6912.6	
824.68	5224.4	
824.86	3790.1	
825.03	4290.5	
825.2	5203.9	
825.37	6365.8	
825.55	3780.6	
825.72	4262.5	
825.89	6959	
826.06	6452.5	
826.24	4134.2	
826.41	4118.5	
826.58	6351.4	
826.75	5527.5	
826.92	3279.5	
827.1	3582.6	
827.27	8771.5	
827.44	6894.8	
827.61	3867.9	
827.79	4864.6	
827.96	4958.8	
828.13	5330.2	
828.3	4059.1	
828.47	3456.3	
828.65	5461.9	
828.82	5304.9	
828.99	5375.2	
829.16	4687.8	
829.34	5842.2	
829.51	5558.2	
829.68	4229.7	
829.85	4484.4	
830.02	6130.9	
830.2	5898.2	
830.37	3280.8	
830.54	5147.9	
830.71	6675	
830.88	5132.2	
831.05	3376.4	
831.23	3841.3	
831.4	6356.2	
831.57	7187	
831.74	3873.4	
831.91	3480.2	
832.09	5472.2	
832.26	5783.5	
832.43	3995.6	
832.6	4595.6	
832.77	5393.7	
832.94	6307.1	
833.12	3216.7	
833.29	4017.4	
833.46	5053	
833.63	7492.8	
833.8	4455	
833.97	4076.1	
834.15	5808.7	
834.32	5595.7	
834.49	4268	
834.66	4378.6	
834.83	6066.8	
835	4911	
835.17	3889.8	
835.35	3956	
835.52	5756.8	
835.69	5615.5	
835.86	4197.7	
836.03	3450.8	
836.2	5724.8	
836.37	5394.3	
836.55	4090.5	
836.72	3888.4	
836.89	5411.4	
837.06	5922.7	
837.23	4162.2	
837.4	4583.4	
837.57	6746.7	
837.75	7467.6	
837.92	3698.6	
838.09	3953.3	
838.26	5352	
838.43	6156.2	
838.6	4255	
838.77	3847.5	
838.94	7016.3	
839.11	6758.3	
839.29	4061.8	
839.46	3168.9	
839.63	5827.2	
839.8	5517.9	
839.97	3928.7	
840.14	3951.2	
840.31	5597.8	
840.48	5905.7	
840.65	3265.8	
840.82	4055	
841	5805.3	
841.17	5751.4	
841.34	3685.7	
841.51	3692.5	
841.68	5685.8	
841.85	5477.6	
842.02	3786	
842.19	3087	
842.36	5558.9	
842.53	5535	
842.7	3646.1	
842.87	4495.3	
843.05	7428	
843.22	5466.7	
843.39	3419.4	
843.56	3788.1	
843.73	5209.3	
843.9	5866.7	
844.07	5935	
844.24	4954.7	
844.41	8665.6	
844.58	5037.3	
844.75	3476.1	
844.92	3851.5	
845.09	5819.6	
845.26	5840.8	
845.43	3607.2	
845.6	3798.3	
845.77	5825.1	
845.94	5527.5	
846.12	4018.1	
846.29	4231.1	
846.46	6040.1	
846.63	5822.4	
846.8	3603.7	
846.97	4295.3	
847.14	6359.6	
847.31	5736.4	
847.48	4078.2	
847.65	4520.5	
847.82	6146.6	
847.99	6061.3	
848.16	4887.1	
848.33	4498.7	
848.5	5324.7	
848.67	6320.7	
848.84	3571.7	
849.01	3796.9	
849.18	5189.6	
849.35	4873.5	
849.52	4548.5	
849.69	3620.1	
849.86	5983.5	
850.03	6272.9	
850.2	3632.4	
850.37	4460.5	
850.54	6217	
850.71	5514.5	
850.88	4337.6	
851.05	3594.9	
851.22	5681.7	
851.39	6417.7	
851.56	3416.7	
851.73	4154	
851.9	5036.6	
852.07	6053.1	
852.24	3966.9	
852.41	3568.9	
852.58	5543.9	
852.75	5218.9	
852.92	4091.2	
853.09	3543	
853.26	5343.2	
853.43	6227.2	
853.6	3604.4	
853.77	3038.5	
853.94	6390.3	
854.11	5765	
854.28	5450.3	
854.44	3878.9	
854.61	6861.4	
854.78	6167.8	
854.95	3586	
855.12	4519.9	
855.29	4666	
855.46	6621.1	
855.63	3581.2	
855.8	4994.3	
855.97	5358.9	
856.14	6173.3	
856.31	5167	
856.48	3980.6	
856.65	5338.4	
856.82	5040.7	
856.99	3455.6	
857.16	3941	
857.33	7145.4	
857.49	5427.1	
857.66	3891.8	
857.83	4190.8	
858	5388.9	
858.17	5646.2	
858.34	3411.9	
858.51	3603.7	
858.68	6508.4	
858.85	6541.2	
859.02	4186	
859.19	4472.1	
859.36	5040.7	
859.52	5121.3	
859.69	3639.2	
859.86	4296.6	
860.03	5132.9	
860.2	6426.5	
860.37	3247.4	
860.54	3709.6	
860.71	6021.7	
860.88	6481.8	
861.05	4007.9	
861.21	4634.6	
861.38	6539.2	
861.55	4907.6	
861.72	3241.9	
861.89	4106.2	
862.06	6187.6	
862.23	6726.9	
862.4	3481.5	
862.56	3763.5	
862.73	5939.1	
862.9	5586.2	
863.07	4289.1	
863.24	3250.8	
863.41	5065.3	
863.58	5051	
863.75	3705.5	
863.91	4133.5	
864.08	6464.8	
864.25	5955.5	
864.42	4569.7	
864.59	5046.9	
864.76	6798.6	
864.93	5113.1	
865.09	3520.5	
865.26	3827.7	
865.43	6286.6	
865.6	6707.1	
865.77	3117	
865.94	3582.6	
866.1	6359.6	
866.27	6141.9	
866.44	5487.9	
866.61	3375.1	
866.78	5508.4	
866.95	5986.2	
867.11	3469.9	
867.28	3155.9	
867.45	6159.6	
867.62	5208	
867.79	4190.8	
867.96	3566.2	
868.12	5152.7	
868.29	6123.4	
868.46	3137.5	
868.63	4851	
868.8	6341.9	
868.97	6019.7	
869.13	3759.4	
869.3	3753.2	
869.47	5978.7	
869.64	6120.7	
869.81	3658.4	
869.97	3637.2	
870.14	5834	
870.31	6581.5	
870.48	3617.4	
870.65	4541	
870.81	5449.6	
870.98	5413.5	
871.15	4100.7	
871.32	3760.1	
871.48	5899.5	
871.65	6595.8	
871.82	3564.8	
871.99	3948.5	
872.16	7068.9	
872.32	6347.3	
872.49	3607.8	
872.66	3633.1	
872.83	6021.7	
872.99	5255.8	
873.16	4179.2	
873.33	3567.6	
873.5	5640.1	
873.67	5717.9	
873.83	3773.7	
874	4881	
874.17	5778	
874.34	7045.7	
874.5	4700.1	
874.67	4524	
874.84	6496.2	
875.01	5111.7	
875.17	5102.9	
875.34	3600.3	
875.51	5687.2	
875.68	6931.7	
875.84	4334.2	
876.01	5354.8	
876.18	6004.6	
876.34	5873.6	
876.51	3614	
876.68	3503.4	
876.85	5433.9	
877.01	6293.4	
877.18	5187.5	
877.35	3571	
877.52	5601.9	
877.68	4988.2	
877.85	3506.1	
878.02	3467.9	
878.18	5547.3	
878.35	5219.6	
878.52	2858.3	
878.69	4090.5	
878.85	6100.2	
879.02	5976	
879.19	5197.7	
879.35	3934.8	
879.52	6004	
879.69	6259.3	
879.86	3107.5	
880.02	4032.5	
880.19	5575.9	
880.36	6824.5	
880.52	4108.9	
880.69	4274.1	
880.86	6072.2	
881.02	6215.6	
881.19	4003.1	
881.36	3993.5	
881.52	5974.6	
881.69	5303.6	
881.86	3846.8	
882.02	3788.7	
882.19	6303	
882.36	7394.5	
882.52	3661.1	
882.69	5146.5	
882.86	5774.6	
883.02	5685.8	
883.19	4328	
883.36	4130.1	
883.52	6087.9	
883.69	7037.5	
883.86	3641.3	
884.02	3256.3	
884.19	6147.3	
884.36	5579.3	
884.52	4092.5	
884.69	3805.8	
884.86	5332.9	
885.02	6800.6	
885.19	4089.1	
885.36	4145.1	
885.52	5603.9	
885.69	5728.2	
885.86	5239.4	
886.02	4659.1	
886.19	6042.9	
886.35	5511.8	
886.52	3943.7	
886.69	5096	
886.85	5127.4	
887.02	6414.9	
887.19	6414.9	
887.35	6414.9	
887.52	6414.9	
887.68	6414.9	
887.85	6414.9	
888.02	6414.9	
888.18	6414.9	
888.35	6414.9	
888.51	6414.9	
888.68	6414.9	
888.85	6414.9	
889.01	6414.9	
889.18	6414.9	
889.35	6414.9	
889.51	6414.9	
889.68	6414.9	
889.84	6414.9	
890.01	6414.9	
890.17	6414.9	
890.34	6414.9	
890.51	6414.9	
890.67	6414.9	
890.84	6414.9	
891	6414.9	
891.17	6414.9	
891.34	6414.9	
891.5	6414.9	
891.67	6414.9	
891.83	6414.9	
892	6414.9	
892.16	6414.9	
892.33	6414.9	
892.5	6414.9	
892.66	6414.9	
892.83	6414.9	
892.99	6414.9	
893.16	6414.9	
893.32	6414.9	
893.49	6414.9	
893.65	6414.9	
893.82	6414.9	
893.99	6414.9	
894.15	6414.9	
894.32	6414.9	
894.48	6414.9	
894.65	6414.9	
894.81	6414.9	
894.98	6414.9	
895.14	6414.9	
895.31	6414.9	
895.47	6414.9	
895.64	6414.9	
895.81	6414.9	
895.97	6414.9	
896.14	6414.9	
896.3	6414.9	
896.47	6414.9	
896.63	6414.9	
896.8	6414.9	
896.96	6414.9	
897.13	6414.9	
897.29	6414.9	
897.46	6414.9	
897.62	6414.9	
897.79	6414.9	
897.95	6414.9	
898.12	6414.9	
898.28	6414.9	
898.45	6414.9	
898.61	6414.9	
898.78	6414.9	
898.94	6414.9	
899.11	6414.9	
899.27	6414.9	
899.44	6414.9	
899.6	6414.9	
899.77	6414.9	
899.93	6414.9	
900.1	6414.9	
900.26	6414.9	
900.43	6414.9	
900.59	6414.9	
900.76	6414.9	
900.92	6414.9	
901.09	6414.9	
901.25	6414.9	
901.42	6414.9	
901.58	6414.9	
901.75	6414.9	
901.91	6414.9	
902.07	6414.9	
902.24	6414.9	
902.4	6414.9	
902.57	6414.9	
902.73	6414.9	
902.9	6414.9	
903.06	6414.9	
903.23	6414.9	
903.39	6414.9	
903.56	6414.9	
903.72	6414.9	
903.88	6414.9	
904.05	6414.9	
904.21	6414.9	
904.38	6414.9	
904.54	6414.9	
904.71	6414.9	
904.87	6414.9	
905.03	6414.9	
905.2	6414.9	
905.36	6414.9	
905.53	6414.9	
905.69	6414.9	
905.86	6414.9	
906.02	6414.9	
906.18	6414.9	
906.35	6414.9	
906.51	6414.9	
906.68	6414.9	
906.84	6414.9	
907.01	6414.9	
907.17	6414.9	
907.33	6414.9	
907.5	6414.9	
907.66	6414.9	
907.83	6414.9	
907.99	6414.9	
908.15	6414.9	
908.32	6414.9	
908.48	6414.9	
908.65	6414.9	
908.81	6414.9	
908.97	6414.9	
909.14	6414.9	
909.3	6414.9	
909.47	6414.9	
909.63	6414.9	
909.79	6414.9	
909.96	6414.9	
910.12	6414.9	
910.28	6414.9	
910.45	6414.9	
910.61	6414.9	
910.78	6414.9	
910.94	6414.9	
911.1	6414.9	
911.27	6414.9	
911.43	6414.9	
911.59	6414.9	
911.76	6414.9	
911.92	6414.9	
912.08	6414.9	
912.25	6414.9	
912.41	6414.9	
912.57	6414.9	
912.74	6414.9	
912.9	6414.9	
913.07	6414.9	
913.23	6414.9	
913.39	6414.9	
913.56	6414.9	
913.72	6414.9	
913.88	6414.9	
914.05	6414.9	
914.21	6414.9	
914.37	6414.9	
914.54	6414.9	
914.7	6414.9	
914.86	6414.9	
915.03	6414.9	
915.19	6414.9	
