Wavelength	Intensities	
nm	a.u.	
179.22	1900.5	
179.44	1910.8	
179.65	1890.3	
179.86	1931.2	
180.08	1898.5	
180.29	4928.1	
180.51	3510.2	
180.72	5671.5	
180.94	6610.2	
181.15	3280.8	
181.37	3204.4	
181.58	5515.9	
181.79	5769.8	
182.01	3352.5	
182.22	3659.7	
182.44	5846.3	
182.65	4887.8	
182.87	4578.6	
183.08	3971.7	
183.29	6109.8	
183.51	4993.6	
183.72	3650.2	
183.94	5398.4	
184.15	5418.2	
184.37	5471.5	
184.58	3191.4	
184.79	4448.9	
185.01	5038.7	
185.22	5757.5	
185.44	4702.8	
185.65	3908.9	
185.86	5289.2	
186.08	4876.2	
186.29	3138.9	
186.51	3340.2	
186.72	5057.1	
186.94	5977.3	
187.15	3881.6	
187.36	4052.2	
187.58	7740.6	
187.79	5474.9	
188.01	4282.3	
188.22	6602	
188.43	6699.6	
188.65	5774.6	
188.86	3355.3	
189.08	3997.6	
189.29	5252.4	
189.5	5242.8	
189.72	3720.5	
189.93	3879.5	
190.15	6000.5	
190.36	7174	
190.57	4136.9	
190.79	3958	
191	6045.6	
191.22	6029.2	
191.43	4109.6	
191.64	3306.1	
191.86	6249.7	
192.07	6090.7	
192.29	3547.8	
192.5	3779.2	
192.71	6021.7	
192.93	5122	
193.14	3698.6	
193.35	3812.6	
193.57	5219.6	
193.78	5950.7	
194	3054.2	
194.21	3661.8	
194.42	4984.8	
194.64	5455.1	
194.85	4041.3	
195.07	4707.6	
195.28	5454.4	
195.49	4702.8	
195.71	4970.4	
195.92	3482.2	
196.13	5688.6	
196.35	5713.8	
196.56	5368.4	
196.78	4048.8	
196.99	7083.2	
197.2	6608.1	
197.42	4651.6	
197.63	4133.5	
197.84	4784.7	
198.06	5631.9	
198.27	3753.2	
198.48	5027.8	
198.7	5188.2	
198.91	5321.3	
199.13	4078.2	
199.34	4050.2	
199.55	5847.6	
199.77	4729.4	
199.98	3591.5	
200.19	4108.9	
200.41	5292.6	
200.62	5001.8	
200.83	4304.1	
201.05	4569.7	
201.26	5306.3	
201.47	5023.7	
201.69	3618.8	
201.9	3454.9	
202.11	5414.1	
202.33	6402	
202.54	3828.3	
202.76	4311	
202.97	5506.3	
203.18	5591.6	
203.4	4311	
203.61	4116.4	
203.82	5451	
204.04	5057.8	
204.25	4098	
204.46	4044.1	
204.68	5441.5	
204.89	5691.3	
205.1	3997.6	
205.32	3445.4	
205.53	5804.6	
205.74	5946.6	
205.96	2946.3	
206.17	4197	
206.38	5787.6	
206.6	5924.1	
206.81	4630.5	
207.02	3802.4	
207.24	5655.1	
207.45	6111.1	
207.66	3900	
207.88	3374.4	
208.09	5647.6	
208.3	5446.9	
208.52	3545	
208.73	3881.6	
208.94	5459.9	
209.15	6148	
209.37	3891.8	
209.58	4065.9	
209.79	5953.4	
210.01	5201.2	
210.22	3149.1	
210.43	3272.7	
210.65	5432.6	
210.86	5840.8	
211.07	3908.9	
211.29	3597.6	
211.5	5720	
211.71	5324.7	
211.93	3540.9	
212.14	3577.8	
212.35	5341.8	
212.56	5600.5	
212.78	4098.7	
212.99	3352.5	
213.2	6357.6	
213.42	5126.1	
213.63	3713	
213.84	3976.5	
214.06	4785.4	
214.27	4885.8	
214.48	3885.7	
214.69	4143.7	
214.91	6084.5	
215.12	6219	
215.33	4173.1	
215.55	4685.8	
215.76	6731.7	
215.97	5822.4	
216.18	4005.8	
216.4	3905.5	
216.61	5109	
216.82	5945.9	
217.04	3489.7	
217.25	3785.3	
217.46	6075	
217.67	5801.2	
217.89	3213.9	
218.1	3291.1	
218.31	5496.7	
218.53	5625.1	
218.74	3786	
218.95	3621.5	
219.16	5344.5	
219.38	6381.5	
219.59	3674.1	
219.8	4376.5	
220.01	7047.7	
220.23	5412.1	
220.44	4797	
220.65	3580.5	
220.87	5495.4	
221.08	6019	
221.29	3300.6	
221.5	4486.4	
221.72	7444.4	
221.93	5147.9	
222.14	4130.1	
222.35	4863.9	
222.57	5425.1	
222.78	5747.3	
222.99	3892.5	
223.2	4248.2	
223.42	5742.5	
223.63	5906.3	
223.84	3013.9	
224.05	2976.4	
224.27	6983.6	
224.48	6348	
224.69	4805.2	
224.9	4130.8	
225.12	5622.4	
225.33	5464	
225.54	3231.7	
225.75	3621.5	
225.97	4990.9	
226.18	5260.5	
226.39	3934.8	
226.6	3673.4	
226.82	5139.7	
227.03	5065.3	
227.24	4048.8	
227.45	3343	
227.67	5813.5	
227.88	6368.5	
228.09	4541	
228.3	4559.5	
228.52	5851.7	
228.73	5322	
228.94	3802.4	
229.15	3332	
229.36	5306.3	
229.58	5213.4	
229.79	3802.4	
230	4422.9	
230.21	6503.7	
230.43	5503.6	
230.64	4087.7	
230.85	4178.5	
231.06	5855.8	
231.28	5915.9	
231.49	3346.4	
231.7	3946.4	
231.91	5725.4	
232.12	5477	
232.34	3435.1	
232.55	4038.6	
232.76	6038.8	
232.97	5662.6	
233.18	3554.6	
233.4	4046.1	
233.61	5631.9	
233.82	5284.4	
234.03	3739.6	
234.25	3736.9	
234.46	7619.1	
234.67	5430.5	
234.88	4130.1	
235.09	3638.6	
235.31	5787.6	
235.52	5311.1	
235.73	4106.9	
235.94	3392.8	
236.15	5152	
236.37	6617	
236.58	3561.4	
236.79	3921.2	
237	5816.9	
237.21	4966.3	
237.43	4212.7	
237.64	3289.7	
237.85	9942.9	
238.06	5031.2	
238.27	4300.1	
238.48	3431	
238.7	5767.1	
238.91	5264	
239.12	3903.4	
239.33	3954.6	
239.54	5096.7	
239.76	5354.1	
239.97	3833.1	
240.18	3921.2	
240.39	6799.3	
240.6	5679	
240.82	4072	
241.03	3359.4	
241.24	5453.1	
241.45	6297.5	
241.66	3599	
241.87	4220.9	
242.09	6186.9	
242.3	6544.6	
242.51	4309.6	
242.72	3916.4	
242.93	5936.4	
243.14	5438.7	
243.36	4558.1	
243.57	4907.6	
243.78	6313.9	
243.99	5651	
244.2	3923.2	
244.41	3538.2	
244.63	4997	
244.84	5726.8	
245.05	4171.7	
245.26	3878.9	
245.47	5674.2	
245.68	5976	
245.9	5244.2	
246.11	4068.6	
246.32	5233.9	
246.53	5681.7	
246.74	6339.1	
246.95	3314.3	
247.16	4896	
247.38	5386.2	
247.59	3278.8	
247.8	3957.4	
248.01	5122.7	
248.22	5349.3	
248.43	3567.6	
248.64	3836.5	
248.86	4810.7	
249.07	5216.2	
249.28	3450.8	
249.49	4018.1	
249.7	5963	
249.91	6102.9	
250.12	3213.9	
250.34	3346.4	
250.55	5518.6	
250.76	5445.5	
250.97	4042.7	
251.18	4109.6	
251.39	6139.1	
251.6	5599.8	
251.81	4192.2	
252.03	4103.4	
252.24	5142.4	
252.45	5920.7	
252.66	3428.3	
252.87	4388.1	
253.08	5461.2	
253.29	7184.3	
253.5	3394.8	
253.72	4820.9	
253.93	5290.6	
254.14	6477	
254.35	3705.5	
254.56	3819.5	
254.77	5681.7	
254.98	5041.4	
255.19	3601	
255.41	4715.1	
255.62	5526.8	
255.83	6145.3	
256.04	4199	
256.25	4166.9	
256.46	6691.4	
256.67	5125.4	
256.88	4010.6	
257.09	4534.2	
257.31	5083.7	
257.52	5146.5	
257.73	5127.4	
257.94	3740.3	
258.15	5250.3	
258.36	5444.9	
258.57	4660.5	
258.78	2938.2	
258.99	5997.8	
259.2	5240.8	
259.41	3750.5	
259.63	3809.9	
259.84	6288.6	
260.05	6779.5	
260.26	4923.3	
260.47	3609.9	
260.68	6044.9	
260.89	5390.9	
261.1	4446.1	
261.31	3517	
261.52	5998.5	
261.73	6364.4	
261.95	4818.9	
262.16	4201.7	
262.37	6180.1	
262.58	6238.8	
262.79	4821.6	
263	3846.1	
263.21	5427.1	
263.42	4966.3	
263.63	3798.3	
263.84	3779.2	
264.05	5934.3	
264.26	6347.3	
264.47	4608.6	
264.69	4245.4	
264.9	6176.7	
265.11	5625.8	
265.32	3596.9	
265.53	3727.3	
265.74	5610.8	
265.95	4827.7	
266.16	3981.9	
266.37	4463.2	
266.58	5558.2	
266.79	5204.6	
267	3689.8	
267.21	3427.6	
267.42	5063.9	
267.63	5411.4	
267.84	3930.1	
268.06	3371	
268.27	5834	
268.48	6158.2	
268.69	3820.1	
268.9	4554.7	
269.11	6129.6	
269.32	4833.2	
269.53	3975.1	
269.74	3633.1	
269.95	5813.5	
270.16	4785.4	
270.37	3966.9	
270.58	4534.9	
270.79	5295.4	
271	5948.7	
271.21	4188.8	
271.42	3986.7	
271.63	5563.6	
271.84	5044.1	
272.05	3151.1	
272.26	3520.5	
272.47	5461.2	
272.68	5705	
272.89	3746.4	
273.11	4357.4	
273.32	5246.2	
273.53	6432.7	
273.74	4223.6	
273.95	4113	
274.16	6070.9	
274.37	5504.9	
274.58	4306.2	
274.79	3396.9	
275	5555.5	
275.21	6178	
275.42	5130.2	
275.63	4392.2	
275.84	5653.1	
276.05	7243.7	
276.26	4149.9	
276.47	3799.7	
276.68	5292	
276.89	6412.2	
277.1	4414.1	
277.31	3437.2	
277.52	5659.2	
277.73	5877.7	
277.94	3370.3	
278.15	3768.9	
278.36	5602.6	
278.57	5053	
278.78	3737.5	
278.99	4264.6	
279.2	5073.5	
279.41	4996.4	
279.62	4919.2	
279.83	3472.7	
280.04	6681.2	
280.25	4948.6	
280.46	4905.6	
280.67	3938.9	
280.88	5018.2	
281.09	6044.9	
281.3	4158.7	
281.51	5186.8	
281.72	5948.7	
281.93	5947.3	
282.14	3658.4	
282.35	3937.6	
282.56	5881.8	
282.77	5943.9	
282.98	3747.8	
283.19	4685.1	
283.4	7335.8	
283.61	5374.6	
283.82	3429.7	
284.03	4867.3	
284.24	5558.9	
284.45	6080.4	
284.66	4902.8	
284.87	4632.5	
285.08	6019	
285.29	6158.2	
285.5	3336.8	
285.71	3905.5	
285.92	6146	
286.12	6772.6	
286.33	4848.9	
286.54	3829.7	
286.75	5885.9	
286.96	5343.8	
287.17	3465.8	
287.38	4775.2	
287.59	5087.2	
287.8	4991.6	
288.01	3897.3	
288.22	4447.5	
288.43	5999.9	
288.64	4971.1	
288.85	4506.2	
289.06	4330.1	
289.27	6019	
289.48	6350.1	
289.69	4823	
289.9	4391.5	
290.11	6087.9	
290.32	5137.7	
290.53	4619.5	
290.74	4253.6	
290.94	5857.9	
291.15	5993	
291.36	3693.2	
291.57	4418.2	
291.78	5200.5	
291.99	4886.5	
292.2	3492.5	
292.41	4260.5	
292.62	6033.3	
292.83	5810.1	
293.04	5282.4	
293.25	3549.8	
293.46	5233.9	
293.67	6059.9	
293.88	3708.9	
294.09	3500.7	
294.29	4963.6	
294.5	5554.1	
294.71	4000.4	
294.92	3790.1	
295.13	5191.6	
295.34	6561.7	
295.55	3314.3	
295.76	3441.3	
295.97	5885.9	
296.18	6634.1	
296.39	3521.1	
296.6	3693.2	
296.81	5539.8	
297.01	5839.4	
297.22	3849.5	
297.43	3642	
297.64	4985.4	
297.85	5074.9	
298.06	3031	
298.27	3327.9	
298.48	5545.9	
298.69	5198.4	
298.9	3934.8	
299.11	3615.3	
299.31	4980.7	
299.52	4923.3	
299.73	4263.2	
299.94	4146.5	
300.15	5433.3	
300.36	5027.8	
300.57	4243.4	
300.78	4136.2	
300.99	5253.7	
301.2	5565	
301.4	3666.5	
301.61	3988.8	
301.82	5782.8	
302.03	5911.1	
302.24	4554	
302.45	3436.5	
302.66	5731.6	
302.87	6249	
303.08	3713	
303.29	5030.5	
303.49	5221	
303.7	5446.2	
303.91	3269.9	
304.12	4781.3	
304.33	4932.9	
304.54	5512.4	
304.75	3722.5	
304.96	3533.4	
305.16	5788.9	
305.37	6565.8	
305.58	3195.5	
305.79	3329.3	
306	5773.2	
306.21	4812	
306.42	3729.4	
306.63	5601.2	
306.83	5224.4	
307.04	6052.4	
307.25	4035.2	
307.46	4031.1	
307.67	4640.7	
307.88	5908.4	
308.09	3536.8	
308.29	3806.5	
308.5	5539.1	
308.71	6047	
308.92	3921.9	
309.13	3491.8	
309.34	5415.5	
309.55	5337.7	
309.75	4625	
309.96	4198.3	
310.17	5896.8	
310.38	5130.8	
310.59	4451.6	
310.8	3419.4	
311.01	5696.1	
311.21	5328.1	
311.42	3476.1	
311.63	3578.5	
311.84	5167.7	
312.05	5600.5	
312.26	4031.8	
312.46	4441.4	
312.67	5279	
312.88	4982.7	
313.09	3553.2	
313.3	3455.6	
313.51	6238.8	
313.71	6583.5	
313.92	3528	
314.13	3768.9	
314.34	5625.1	
314.55	5368.4	
314.76	4628.4	
314.96	3945.8	
315.17	5504.9	
315.38	5978	
315.59	3530	
315.8	3377.8	
316.01	6298.2	
316.21	6356.2	
316.42	3362.8	
316.63	3964.2	
316.84	5306.3	
317.05	6118	
317.26	4173.8	
317.46	3772.4	
317.67	5388.2	
317.88	5837.4	
318.09	4550.6	
318.3	3362.8	
318.5	5156.1	
318.71	5809.4	
318.92	5772.5	
319.13	4215.4	
319.34	5958.9	
319.54	6155.5	
319.75	3311.6	
319.96	3159.3	
320.17	5831.2	
320.38	6040.1	
320.58	3226.2	
320.79	3864.5	
321	6049	
321.21	6260.6	
321.42	3923.2	
321.62	3294.5	
321.83	5040.7	
322.04	5449	
322.25	3766.2	
322.46	3559.4	
322.66	5525.4	
322.87	5737.7	
323.08	4389.5	
323.29	3489.7	
323.5	6511.9	
323.7	5021.6	
323.91	4856.4	
324.12	4373.1	
324.33	5498.8	
324.53	5761.6	
324.74	4179.2	
324.95	4379.9	
325.16	4810.7	
325.37	5248.9	
325.57	3586	
325.78	3663.1	
325.99	5502.9	
326.2	4982.7	
326.4	5190.2	
326.61	3305.4	
326.82	5382.7	
327.03	5550.7	
327.24	5059.8	
327.44	4838	
327.65	5701.5	
327.86	4614.8	
328.07	4160.8	
328.27	3447.4	
328.48	6205.3	
328.69	5062.6	
328.9	5186.1	
329.1	3837.9	
329.31	5287.2	
329.52	6324.1	
329.73	3577.1	
329.93	4033.8	
330.14	5423	
330.35	5698.8	
330.56	5884.5	
330.76	4433.2	
330.97	5238	
331.18	5681.1	
331.39	3994.9	
331.59	3197.6	
331.8	6034	
332.01	6164.4	
332.22	3633.1	
332.42	4212	
332.63	5589.6	
332.84	5102.2	
333.05	3995.6	
333.25	3594.2	
333.46	5211.4	
333.67	5433.9	
333.88	3706.1	
334.08	4162.2	
334.29	7324.2	
334.5	6130.9	
334.7	3506.1	
334.91	5102.9	
335.12	4967.7	
335.33	5839.4	
335.53	3885	
335.74	5849.7	
335.95	5184.1	
336.16	5033.9	
336.36	3931.4	
336.57	4486.4	
336.78	4970.4	
336.98	6075.6	
337.19	4821.6	
337.4	3908.2	
337.61	6602.7	
337.81	4989.5	
338.02	3652.2	
338.23	4710.3	
338.43	6245.6	
338.64	5081.7	
338.85	3604.4	
339.05	4667.3	
339.26	6338.5	
339.47	4880.3	
339.68	3545.7	
339.88	5282.4	
340.09	5683.8	
340.3	5956.2	
340.5	4136.2	
340.71	3164.1	
340.92	4874.8	
341.13	6204	
341.33	3500	
341.54	4217.5	
341.75	5664.7	
341.95	5288.5	
342.16	4009.2	
342.37	4342.4	
342.57	5025	
342.78	5427.1	
342.99	4435.9	
343.19	3159.3	
343.4	5840.8	
343.61	5705	
343.81	3778.5	
344.02	3505.4	
344.23	5835.3	
344.43	6334.4	
344.64	4422.9	
344.85	4274.1	
345.06	5752.1	
345.26	6087.9	
345.47	4126	
345.68	4818.9	
345.88	4784.1	
346.09	5979.4	
346.3	4207.2	
346.5	3119.1	
346.71	5487.9	
346.92	5166.3	
347.12	3239.9	
347.33	4157.4	
347.54	5997.1	
347.74	6402	
347.95	4203.1	
348.16	3022.1	
348.36	5215.5	
348.57	4892.6	
348.78	4021.5	
348.98	4412	
349.19	5371.1	
349.39	4915.1	
349.6	3242.6	
349.81	3646.1	
350.01	5700.9	
350.22	5152.7	
350.43	4016.7	
350.63	4835.3	
350.84	5496.7	
351.05	5231.2	
351.25	3577.1	
351.46	3226.2	
351.67	6111.8	
351.87	5157.5	
352.08	3789.4	
352.29	4388.1	
352.49	5862.7	
352.7	6011.5	
352.9	3487.7	
353.11	4364.2	
353.32	6588.3	
353.52	5231.2	
353.73	3394.2	
353.94	4400.4	
354.14	5769.8	
354.35	5573.2	
354.55	3550.5	
354.76	3926	
354.97	5689.3	
355.17	5485.1	
355.38	3328.6	
355.59	4715.1	
355.79	5096	
356	5545.9	
356.2	3889.8	
356.41	3403	
356.62	4812	
356.82	5337.7	
357.03	4172.4	
357.24	3759.4	
357.44	5132.2	
357.65	5242.8	
357.85	5070.1	
358.06	3923.2	
358.27	4837.3	
358.47	5035.3	
358.68	3253.5	
358.88	4225.6	
359.09	5629.2	
359.3	6039.5	
359.5	4909.7	
359.71	4322.6	
359.91	6520.7	
360.12	5798.5	
360.33	4055.7	
360.53	4644.8	
360.74	5145.2	
360.94	5179.3	
361.15	4379.9	
361.36	3567.6	
361.56	5886.5	
361.77	5313.8	
361.97	4870.1	
362.18	3794.2	
362.38	5896.8	
362.59	4971.1	
362.8	3500.7	
363	3324.5	
363.21	4798.4	
363.41	5476.3	
363.62	4048.2	
363.83	5084.4	
364.03	5582.1	
364.24	6490.7	
364.44	5159.5	
364.65	5019.6	
364.85	5236.7	
365.06	5168.4	
365.27	3691.1	
365.47	3704.8	
365.68	6214.2	
365.88	5239.4	
366.09	4089.8	
366.29	3763.5	
366.5	5438	
366.71	5988.3	
366.91	5070.1	
367.12	4180.6	
367.32	6491.4	
367.53	5795.1	
367.73	4140.3	
367.94	5205.3	
368.14	5750	
368.35	6724.2	
368.56	4244.8	
368.76	3504.1	
368.97	5814.9	
369.17	7627.3	
369.38	3668.6	
369.58	3952.6	
369.79	4891.9	
369.99	6182.1	
370.2	4995.7	
370.4	4048.2	
370.61	5576.6	
370.82	6763.1	
371.02	3956.7	
371.23	3303.4	
371.43	4764.3	
371.64	6158.2	
371.84	3981.3	
372.05	5154.1	
372.25	7453.2	
372.46	5889.3	
372.66	3906.2	
372.87	3859.1	
373.07	5900.2	
373.28	7462.8	
373.48	4973.8	
373.69	4622.9	
373.9	5381.4	
374.1	5425.8	
374.31	4850.3	
374.51	4392.2	
374.72	6178.7	
374.92	5005.9	
375.13	5037.3	
375.33	4218.1	
375.54	5696.8	
375.74	5165	
375.95	4305.5	
376.15	5510.4	
376.36	5739.8	
376.56	5537.7	
376.77	4291.9	
376.97	4785.4	
377.18	6769.2	
377.38	5798.5	
377.59	5094	
377.79	3758.7	
378	5557.5	
378.2	6040.1	
378.41	3903.4	
378.61	3747.1	
378.82	6106.4	
379.02	5129.5	
379.23	3997.6	
379.43	5107.6	
379.64	6154.1	
379.84	5760.3	
380.05	3802.4	
380.25	3783.3	
380.46	5883.1	
380.66	5466.7	
380.87	5183.4	
381.07	5558.2	
381.28	6506.4	
381.48	5909.1	
381.69	3837.9	
381.89	3902.1	
382.1	4785.4	
382.3	6095.4	
382.51	5008	
382.71	5885.9	
382.91	5901.6	
383.12	6378.7	
383.32	4205.2	
383.53	4490.5	
383.73	5763	
383.94	5524.7	
384.14	4353.3	
384.35	3467.2	
384.55	5449	
384.76	5924.1	
384.96	4242	
385.17	4575.2	
385.37	5883.8	
385.58	5165.7	
385.78	4580.6	
385.98	3411.9	
386.19	5416.2	
386.39	5709.1	
386.6	3990.8	
386.8	4286.4	
387.01	5896.8	
387.21	5859.9	
387.42	4632.5	
387.62	5223.7	
387.83	5212.1	
388.03	5858.6	
388.23	4308.9	
388.44	5098.1	
388.64	4971.8	
388.85	4928.8	
389.05	4595.6	
389.26	5257.8	
389.46	6883.2	
389.67	6265.4	
389.87	4560.1	
390.07	4665.3	
390.28	5512.4	
390.48	5111	
390.69	3771	
390.89	4172.4	
391.1	5257.8	
391.3	6193.7	
391.5	5362.3	
391.71	5988.9	
391.91	5924.8	
392.12	6994.5	
392.32	5406.6	
392.53	4568.3	
392.73	5401.2	
392.93	5547.3	
393.14	4274.1	
393.34	5055.1	
393.55	5944.6	
393.75	5508.4	
393.95	4280.3	
394.16	4242	
394.36	5201.2	
394.57	5980.1	
394.77	3710.2	
394.98	4207.9	
395.18	5255.8	
395.38	5328.1	
395.59	5074.2	
395.79	4001	
396	5368.4	
396.2	5871.5	
396.4	4852.3	
396.61	4775.9	
396.81	6029.9	
397.02	5295.4	
397.22	5037.3	
397.42	5159.5	
397.63	6001.9	
397.83	5221.6	
398.04	3966.9	
398.24	4479.6	
398.44	5752.1	
398.65	4819.6	
398.85	3818.1	
399.05	3928.7	
399.26	5117.2	
399.46	6860	
399.67	4339.6	
399.87	4014	
400.07	5586.2	
400.28	5895.4	
400.48	4070	
400.69	5129.5	
400.89	6130.9	
401.09	6490	
401.3	3953.9	
401.5	5141.8	
401.7	6795.8	
401.91	7043.6	
402.11	4299.4	
402.32	4528.1	
402.52	6141.9	
402.72	6048.3	
402.93	4790.9	
403.13	3573.7	
403.33	6862.1	
403.54	5582.8	
403.74	4496.7	
403.94	5362.3	
404.15	5666	
404.35	6884.6	
404.56	4205.2	
404.76	6096.1	
404.96	6158.9	
405.17	5915.2	
405.37	5881.8	
405.57	4723.3	
405.78	6163	
405.98	5625.8	
406.18	4176.5	
406.39	5166.3	
406.59	6116.6	
406.79	5770.5	
407	4026.3	
407.2	4183.3	
407.4	6166.4	
407.61	6363.7	
407.81	4194.2	
408.01	6554.9	
408.22	5074.9	
408.42	7205.4	
408.62	5276.9	
408.83	4666	
409.03	5657.9	
409.23	5526.1	
409.44	4734.9	
409.64	5025	
409.84	6578.8	
410.05	6494.8	
410.25	4829.8	
410.45	4578.6	
410.66	5916.6	
410.86	8485.4	
411.06	5030.5	
411.27	4873.5	
411.47	8133.8	
411.67	6101.6	
411.88	5129.5	
412.08	5341.8	
412.28	6768.5	
412.49	7263.5	
412.69	4840.7	
412.89	4919.2	
413.09	6997.9	
413.3	6911.9	
413.5	4942.4	
413.7	4562.2	
413.91	6178	
414.11	6981.5	
414.31	4753.3	
414.52	5178.6	
414.72	6651.1	
414.92	6534.4	
415.12	4704.9	
415.33	5333.6	
415.53	6961.7	
415.73	7185	
415.94	5664	
416.14	5073.5	
416.34	5924.8	
416.55	5596.4	
416.75	6247	
416.95	5681.7	
417.15	6939.2	
417.36	7667.6	
417.56	6480.5	
417.76	5504.3	
417.97	7322.9	
418.17	7006.8	
418.37	5048.9	
418.57	5132.9	
418.78	6739.2	
418.98	6427.2	
419.18	6046.3	
419.38	5907	
419.59	6490.7	
419.79	6086.6	
419.99	4995.7	
420.2	5442.8	
420.4	7000.6	
420.6	7143.3	
420.8	4908.3	
421.01	4792.9	
421.21	6734.4	
421.41	7030.7	
421.61	5360.2	
421.82	4998.4	
422.02	6270.9	
422.22	7239.6	
422.42	5850.4	
422.63	5600.5	
422.83	6406.7	
423.03	7565.2	
423.23	5460.6	
423.44	4439.3	
423.64	6495.5	
423.84	6272.9	
424.04	4969.7	
424.25	4549.2	
424.45	7511.3	
424.65	7417.7	
424.85	4360.8	
425.06	5027.8	
425.26	7397.3	
425.46	6377.4	
425.66	5515.2	
425.87	5222.3	
426.07	7150.1	
426.27	7032.7	
426.47	5327.4	
426.67	4605.9	
426.88	7570	
427.08	6957.6	
427.28	5505.6	
427.48	4659.1	
427.69	5817.6	
427.89	6558.3	
428.09	5516.5	
428.29	4686.4	
428.5	7274.4	
428.7	6705	
428.9	4528.1	
429.1	5193	
429.3	6612.9	
429.51	7160.4	
429.71	4926.7	
429.91	5631.2	
430.11	6963.8	
430.31	7180.9	
430.52	5191.6	
430.72	5459.9	
430.92	7537.9	
431.12	6932.4	
431.32	4874.2	
431.53	5304.2	
431.73	5763.7	
431.93	7677.8	
432.13	4774.5	
432.33	4584	
432.54	6362.4	
432.74	6788.3	
432.94	4538.3	
433.14	5659.9	
433.34	6931.7	
433.55	6337.8	
433.75	5627.1	
433.95	7266.9	
434.15	6612.9	
434.35	6292.7	
434.56	4743.1	
434.76	4291.2	
434.96	6586.3	
435.16	6789.7	
435.36	4603.8	
435.56	5770.5	
435.77	6263.4	
435.97	6436.1	
436.17	6509.8	
436.37	5688.6	
436.57	6270.9	
436.78	6135.7	
436.98	7552.9	
437.18	6303.6	
437.38	6906.4	
437.58	6380.8	
437.78	6405.4	
437.99	4975.2	
438.19	6962.4	
438.39	8488.8	
438.59	4972.5	
438.79	4481.6	
438.99	7600.7	
439.2	6438.1	
439.4	4664.6	
439.6	4601.1	
439.8	6809.5	
440	7879.9	
440.2	5660.6	
440.4	5712.5	
440.61	7189.7	
440.81	7714.7	
441.01	4831.2	
441.21	5729.5	
441.41	7492.2	
441.61	7146	
441.81	5974.6	
442.02	7059.3	
442.22	8056	
442.42	7262.1	
442.62	4801.8	
442.82	4922	
443.02	7527	
443.22	6693.4	
443.43	5305.6	
443.63	4805.9	
443.83	6410.1	
444.03	6548	
444.23	6071.5	
444.43	5646.9	
444.63	6761	
444.83	8035.5	
445.04	4982.7	
445.24	6260.6	
445.44	7173.4	
445.64	7187.7	
445.84	5752.1	
446.04	5672.2	
446.24	6496.2	
446.44	7522.9	
446.65	4960.9	
446.85	5327.4	
447.05	6980.8	
447.25	7465.5	
447.45	5457.2	
447.65	4758.8	
447.85	6858.6	
448.05	6438.1	
448.25	5937.1	
448.46	5695.4	
448.66	6831.3	
448.86	6522.1	
449.06	4684.4	
449.26	5816.2	
449.46	7201.3	
449.66	6259.3	
449.86	5434.6	
450.06	5326.1	
450.26	6423.8	
450.47	7053.2	
450.67	5646.9	
450.87	5956.9	
451.07	7068.2	
451.27	6893.5	
451.47	4895.3	
451.67	5460.6	
451.87	6520.7	
452.07	7727.7	
452.27	5150.6	
452.47	5145.9	
452.67	6836.8	
452.88	7494.9	
453.08	4433.2	
453.28	6520	
453.48	8034.9	
453.68	6778.1	
453.88	4967	
454.08	5220.3	
454.28	7187	
454.48	6875.7	
454.68	5810.8	
454.88	6335	
455.08	7293.5	
455.28	6990.4	
455.48	4910.3	
455.68	5537.7	
455.89	7764.5	
456.09	7440.3	
456.29	5216.9	
456.49	5331.5	
456.69	7567.2	
456.89	6851.1	
457.09	5812.1	
457.29	6117.3	
457.49	7205.4	
457.69	7290.8	
457.89	5512.4	
458.09	4993.6	
458.29	6897.6	
458.49	7666.9	
458.69	6025.8	
458.89	5360.2	
459.09	7876.5	
459.29	8007.6	
459.49	5520	
459.69	6242.9	
459.9	7484.6	
460.1	6845.7	
460.3	5421.7	
460.5	5154.7	
460.7	7397.3	
460.9	7065.5	
461.1	4832.5	
461.3	6167.8	
461.5	8006.2	
461.7	7628	
461.9	5238.7	
462.1	5698.8	
462.3	7107.8	
462.5	7622.5	
462.7	5239.4	
462.9	5379.3	
463.1	8839	
463.3	8418.5	
463.5	5631.9	
463.7	6583.5	
463.9	7252.5	
464.1	7671	
464.3	5620.3	
464.5	5969.1	
464.7	7995.3	
464.9	7574.1	
465.1	7349.5	
465.3	6313.2	
465.5	8204.8	
465.7	8184.4	
465.9	6533.7	
466.1	6393.1	
466.3	7980.9	
466.5	7871	
466.7	7206.8	
466.9	6081.1	
467.1	7747.5	
467.3	8772.8	
467.5	7177.4	
467.7	5988.9	
467.9	8964.6	
468.1	9815.9	
468.3	6905.8	
468.5	7233.4	
468.7	7707.2	
468.9	7765.9	
469.1	6358.3	
469.3	7011.6	
469.5	9719	
469.7	7168.6	
469.9	6781.5	
470.1	6011.5	
470.3	7658.7	
470.5	7767.3	
470.7	7327.6	
470.9	6137.1	
471.1	7520.1	
471.3	7876.5	
471.5	5903.6	
471.69	7874.4	
471.89	7410.9	
472.09	6892.1	
472.29	6804.7	
472.49	7175.4	
472.69	7065.5	
472.89	8044.4	
473.09	5895.4	
473.29	5968.5	
473.49	7277.8	
473.69	7524.9	
473.89	7036.8	
474.09	6180.8	
474.29	8758.5	
474.49	8492.9	
474.69	7025.9	
474.89	6304.3	
475.09	7482.6	
475.29	7502.4	
475.49	5774.6	
475.69	5946.6	
475.88	9142.1	
476.08	7772	
476.28	5566.4	
476.48	6210.8	
476.68	8201.4	
476.88	8097.7	
477.08	5982.1	
477.28	6317.3	
477.48	7589.1	
477.68	8215.8	
477.88	5825.1	
478.08	6140.5	
478.28	8555	
478.48	7770	
478.67	6118	
478.87	5629.2	
479.07	8441	
479.27	7771.4	
479.47	6432.7	
479.67	6391	
479.87	8176.9	
480.07	8781	
480.27	5606	
480.47	7281.9	
480.67	7847.8	
480.87	8511.4	
481.06	5900.9	
481.26	6828.6	
481.46	7774.1	
481.66	7680.6	
481.86	6421.7	
482.06	7448.5	
482.26	7483.3	
482.46	8364.6	
482.66	6266.8	
482.86	5914.5	
483.05	7836.9	
483.25	7334.5	
483.45	8855.4	
483.65	6275	
483.85	7406.8	
484.05	7763.8	
484.25	6769.9	
484.45	7212.9	
484.65	8632.2	
484.84	8613.8	
485.04	6212.9	
485.24	6222.4	
485.44	8807.6	
485.64	7137.2	
485.84	5511.8	
486.04	6956.3	
486.24	7541.3	
486.44	7893.6	
486.63	5486.5	
486.83	6281.1	
487.03	7380.9	
487.23	7673.1	
487.43	5599.8	
487.63	8019.8	
487.83	7753.6	
488.02	8726.4	
488.22	6507.8	
488.42	7219.1	
488.62	8626.7	
488.82	7540.6	
489.02	6214.2	
489.22	6255.2	
489.41	8469.7	
489.61	8049.2	
489.81	5933.6	
490.01	5917.3	
490.21	8267.6	
490.41	8929.8	
490.61	5799.2	
490.8	6038.1	
491	7783	
491.2	7139.2	
491.4	6644.3	
491.6	5748	
491.8	7760.4	
491.99	8043.7	
492.19	5633.3	
492.39	6027.9	
492.59	8359.8	
492.79	8449.9	
492.99	6890	
493.18	5862	
493.38	8507.3	
493.58	9296.4	
493.78	6702.3	
493.98	6257.2	
494.18	8171.4	
494.37	7675.1	
494.57	6847	
494.77	6819.7	
494.97	8338.6	
495.17	8633.6	
495.37	6290.7	
495.56	6593.8	
495.76	8768	
495.96	8415.8	
496.16	7507.2	
496.36	6374	
496.55	8551	
496.75	8049.2	
496.95	6816.3	
497.15	6622.4	
497.35	8522.3	
497.54	8546.2	
497.74	6447	
497.94	8207.6	
498.14	9314.2	
498.34	9012.4	
498.53	6122.1	
498.73	6993.1	
498.93	7882.6	
499.13	8510	
499.33	6679.1	
499.52	7390.4	
499.72	8464.3	
499.92	8814.5	
500.12	6407.4	
500.32	6678.4	
500.51	8745.5	
500.71	8479.3	
500.91	7498.3	
501.11	7098.9	
501.31	8650.6	
501.5	9076.6	
501.7	7757.7	
501.9	6763.8	
502.1	8466.3	
502.29	8794.7	
502.49	7113.3	
502.69	7638.9	
502.89	8600.1	
503.09	8565.3	
503.28	6153.5	
503.48	6267.5	
503.68	7889.5	
503.88	7843.7	
504.07	7260.7	
504.27	6800.6	
504.47	8268.3	
504.67	8439.7	
504.86	7182.9	
505.06	6924.9	
505.26	7951.6	
505.46	9834.3	
505.65	6625.2	
505.85	7040.2	
506.05	7916.8	
506.25	8452	
506.44	6033.3	
506.64	7063.4	
506.84	7795.3	
507.04	8710.7	
507.23	6336.4	
507.43	6978.8	
507.63	9865.1	
507.83	8028.7	
508.02	6866.2	
508.22	6543.3	
508.42	10090	
508.62	7806.2	
508.81	6762.4	
509.01	7369.3	
509.21	7755.7	
509.4	7935.9	
509.6	7086.7	
509.8	6266.8	
510	7968.6	
510.19	9443.9	
510.39	6296.8	
510.59	6424.5	
510.79	7813	
510.98	9226.8	
511.18	6409.5	
511.38	6556.2	
511.57	8657.4	
511.77	8477.9	
511.97	7248.4	
512.17	6144.6	
512.36	8571.4	
512.56	8591.9	
512.76	6326.2	
512.95	6002.6	
513.15	8764.6	
513.35	7374.1	
513.55	7264.8	
513.74	6266.8	
513.94	8700.5	
514.14	8019.2	
514.33	7305.1	
514.53	7086.7	
514.73	7974.1	
514.92	8219.9	
515.12	6523.5	
515.32	6313.9	
515.51	8339.3	
515.71	8882.7	
515.91	8198.7	
516.11	6320.7	
516.3	10006	
516.5	7831.4	
516.7	7010.2	
516.89	7518.8	
517.09	7985.7	
517.29	7809.6	
517.48	7223.9	
517.68	6567.2	
517.88	7746.8	
518.07	8327	
518.27	7158.3	
518.47	6138.4	
518.66	8922.3	
518.86	7521.5	
519.06	5986.9	
519.25	6397.9	
519.45	7878.5	
519.65	9378.3	
519.84	7083.2	
520.04	7779.6	
520.24	9757.2	
520.43	8445.8	
520.63	6847.7	
520.83	6457.2	
521.02	7662.8	
521.22	8445.8	
521.42	7120.1	
521.61	7684.7	
521.81	7945.4	
522.01	8188.5	
522.2	6994.5	
522.4	6688	
522.6	8605.6	
522.79	7447.8	
522.99	6835.4	
523.18	6128.2	
523.38	8429.4	
523.58	8359.1	
523.77	8124.3	
523.97	6130.3	
524.17	10221	
524.36	9395.4	
524.56	7511.3	
524.76	7071.6	
524.95	8351.6	
525.15	7864.9	
525.34	6797.2	
525.54	6787	
525.74	8629.5	
525.93	7614.3	
526.13	8017.1	
526.33	6750.1	
526.52	8985.1	
526.72	8424	
526.91	8025.3	
527.11	7259.4	
527.31	8971.5	
527.5	9413.8	
527.7	7118.7	
527.89	6118	
528.09	7821.9	
528.29	8436.9	
528.48	7671	
528.68	7147.4	
528.87	8864.3	
529.07	8896.4	
529.27	7116	
529.46	6503	
529.66	8402.8	
529.85	8964.6	
530.05	6349.4	
530.25	7201.3	
530.44	9835	
530.64	8369.4	
530.83	6784.2	
531.03	7116.7	
531.23	8784.4	
531.42	8717.5	
531.62	7911.3	
531.81	7105.1	
532.01	8973.5	
532.21	9414.5	
532.4	6703.7	
532.6	7150.1	
532.79	9994.8	
532.99	8897.7	
533.18	7150.1	
533.38	8105.2	
533.58	8598.7	
533.77	9246.6	
533.97	7139.2	
534.16	7885.4	
534.36	9534.7	
534.55	8477.9	
534.75	8114.7	
534.95	7130.3	
535.14	9305.3	
535.34	8450.6	
535.53	6802.7	
535.73	8802.9	
535.92	9830.9	
536.12	8665	
536.31	6886.6	
536.51	8125.7	
536.71	8976.9	
536.9	8513.4	
537.1	7024.5	
537.29	7168.6	
537.49	9559.2	
537.68	8458.1	
537.88	7522.9	
538.07	6763.8	
538.27	8690.9	
538.46	9719.7	
538.66	6716.7	
538.86	7139.9	
539.05	8766	
539.25	9140.8	
539.44	7404.1	
539.64	6996.5	
539.83	8581	
540.03	9593.4	
540.22	6849.8	
540.42	7031.4	
540.61	8839.7	
540.81	8968.7	
541	7537.2	
541.2	8117.5	
541.39	8350.9	
541.59	8690.2	
541.78	7772	
541.98	6879.1	
542.18	7941.3	
542.37	7989.1	
542.57	7298.3	
542.76	7750.2	
542.96	8004.1	
543.15	8828.1	
543.35	7266.9	
543.54	6586.3	
543.74	9153.1	
543.93	8667	
544.13	7325.6	
544.32	8408.3	
544.52	9095.7	
544.71	8222.6	
544.91	6367.8	
545.1	7688.8	
545.3	8204.2	
545.49	8968.7	
545.69	6346	
545.88	6936.5	
546.08	9964.1	
546.27	9512.1	
546.47	7549.5	
546.66	6735.1	
546.86	9154.4	
547.05	9705.3	
547.24	6972.7	
547.44	6870.9	
547.63	8008.9	
547.83	9258.9	
548.02	7137.2	
548.22	7431.4	
548.41	7931.8	
548.61	9271.2	
548.8	6732.4	
549	6706.4	
549.19	8600.1	
549.39	8852	
549.58	6376.7	
549.78	7045	
549.97	8899.8	
550.17	8477.2	
550.36	7937.2	
550.55	8931.2	
550.75	8525.7	
550.94	9365.4	
551.14	6587	
551.33	7118.1	
551.53	7787.1	
551.72	8821.3	
551.92	7142.6	
552.11	6868.9	
552.31	8781.7	
552.5	8940.7	
552.69	8583.7	
552.89	6430.6	
553.08	8773.5	
553.28	8523	
553.47	6828.6	
553.67	8090.8	
553.86	9490.3	
554.06	7774.8	
554.25	6029.2	
554.44	6657.9	
554.64	10298	
554.83	9765.4	
555.03	6646.3	
555.22	7076.4	
555.42	9050	
555.61	8632.2	
555.8	6827.2	
556	7175.4	
556.19	7782.3	
556.39	9133.3	
556.58	6886	
556.78	6864.1	
556.97	8609	
557.16	8240.3	
557.36	8139.3	
557.55	6470.2	
557.75	7557.7	
557.94	9377	
558.13	6624.5	
558.33	6328.9	
558.52	9111.4	
558.72	7985	
558.91	6455.2	
559.1	6705.7	
559.3	7752.2	
559.49	7352.9	
559.69	6060.6	
559.88	7117.4	
560.07	8604.9	
560.27	8893.6	
560.46	7244.3	
560.66	7387.7	
560.85	8383.7	
561.04	7557.7	
561.24	6444.3	
561.43	6703	
561.63	7770.7	
561.82	8062.2	
562.01	7981.6	
562.21	6985.6	
562.4	8495	
562.59	9566.1	
562.79	6780.8	
562.98	6490	
563.18	8462.9	
563.37	9852.1	
563.56	7311.9	
563.76	6406	
563.95	7847.8	
564.14	7795.9	
564.34	6730.3	
564.53	6594.5	
564.73	8428.8	
564.92	8811	
565.11	6888.7	
565.31	6339.8	
565.5	8991.9	
565.69	7940	
565.89	6556.9	
566.08	6726.9	
566.27	8859.5	
566.47	9273.2	
566.66	7454.6	
566.85	6079.1	
567.05	8399.4	
567.24	7847.8	
567.44	6356.9	
567.63	7802.8	
567.82	8622.6	
568.02	8441	
568.21	6353.5	
568.4	6833.4	
568.6	8297.7	
568.79	8333.2	
568.98	6208.8	
569.18	6429.9	
569.37	8192.6	
569.56	10296	
569.76	6752.8	
569.95	7726.3	
570.14	8625.4	
570.34	8528.4	
570.53	6276.3	
570.72	6248.4	
570.91	9043.8	
571.11	8155	
571.3	6802.7	
571.49	7761.1	
571.69	8227.4	
571.88	7748.1	
572.07	7274.4	
572.27	7280.5	
572.46	7746.1	
572.65	8867.7	
572.85	6485.2	
573.04	6905.8	
573.23	9009.7	
573.43	8352.3	
573.62	6263.4	
573.81	6961	
574	8327	
574.2	8142.7	
574.39	6640.9	
574.58	6825.2	
574.78	9099.1	
574.97	8380.3	
575.16	7131.7	
575.36	7313.3	
575.55	8796.7	
575.74	8890.2	
575.93	6180.1	
576.13	7350.2	
576.32	8137.3	
576.51	8671.1	
576.71	6599.2	
576.9	8075.1	
577.09	9049.3	
577.28	8559.8	
577.48	7212.3	
577.67	6105	
577.86	8288.8	
578.05	8506.6	
578.25	6759.7	
578.44	6902.3	
578.63	8321.6	
578.83	9564.7	
579.02	6116.6	
579.21	7662.1	
579.4	8472.4	
579.6	8153.6	
579.79	7004.7	
579.98	9192.6	
580.17	8916.9	
580.37	8966.7	
580.56	6446.3	
580.75	7234.1	
580.94	9439.1	
581.14	9255.5	
581.33	7606.2	
581.52	6608.1	
581.71	8717.5	
581.91	9460.3	
582.1	6197.8	
582.29	6877.1	
582.48	8385.1	
582.68	8267.6	
582.87	7352.2	
583.06	6966.5	
583.25	8705.2	
583.45	8150.9	
583.64	7614.3	
583.83	8374.1	
584.02	8200.1	
584.21	8587.8	
584.41	7603.4	
584.6	6797.2	
584.79	8325	
584.98	9193.3	
585.18	6332.3	
585.37	6291.4	
585.56	7955.7	
585.75	8673.8	
585.94	6585.6	
586.14	7207.5	
586.33	9339.4	
586.52	8281.3	
586.71	7032	
586.91	6860	
587.1	7735.9	
587.29	8930.5	
587.48	6735.1	
587.67	6632	
587.87	8619.2	
588.06	8686.8	
588.25	7993.2	
588.44	7278.5	
588.63	8344.8	
588.83	8888.2	
589.02	6613.6	
589.21	6546.7	
589.4	7992.5	
589.59	7861.5	
589.78	5793	
589.98	6058.6	
590.17	7465.5	
590.36	8064.9	
590.55	5431.2	
590.74	6426.5	
590.94	9528.5	
591.13	8049.9	
591.32	6202.6	
591.51	5673.6	
591.7	8542.8	
591.89	8039.6	
592.09	5856.5	
592.28	6199.9	
592.47	7245.7	
592.66	9161.2	
592.85	5771.2	
593.05	5966.4	
593.24	7826.7	
593.43	8584.4	
593.62	6148	
593.81	6572.6	
594	7793.9	
594.19	8133.2	
594.39	6093.4	
594.58	5933	
594.77	8148.9	
594.96	8843.8	
595.15	5907	
595.34	6589	
595.54	8324.3	
595.73	7304.4	
595.92	5345.2	
596.11	6507.1	
596.3	8740.7	
596.49	7462.8	
596.68	6169.8	
596.88	6715.3	
597.07	8507.9	
597.26	7330.4	
597.45	5844.2	
597.64	7083.9	
597.83	7509.2	
598.02	8188.5	
598.22	5794.4	
598.41	6565.8	
598.6	7936.6	
598.79	7421.8	
598.98	5905	
599.17	6877.8	
599.36	7920.9	
599.55	9226.8	
599.74	7983	
599.94	7767.3	
600.13	8548.9	
600.32	7376.1	
600.51	5667.4	
600.7	5791.7	
600.89	9173.5	
601.08	9260.9	
601.27	5679	
601.47	6662	
601.66	8482.7	
601.85	9120.3	
602.04	6356.2	
602.23	6675.7	
602.42	7518.1	
602.61	8189.8	
602.8	6253.1	
602.99	6092	
603.18	7843	
603.37	8114.1	
603.57	6709.8	
603.76	7238.9	
603.95	8899.1	
604.14	8508.6	
604.33	6038.1	
604.52	6428.6	
604.71	8056	
604.9	7750.9	
605.09	6929.6	
605.28	6842.3	
605.47	8684.8	
605.66	8391.9	
605.86	6653.2	
606.05	6094.1	
606.24	8712.1	
606.43	7297.6	
606.62	6429.3	
606.81	7262.8	
607	8598.1	
607.19	7875.8	
607.38	5870.8	
607.57	6161.7	
607.76	7675.1	
607.95	7128.3	
608.14	6528.2	
608.33	7150.8	
608.52	7664.2	
608.72	8428.1	
608.91	5791.7	
609.1	5650.3	
609.29	7737.9	
609.48	7273	
609.67	6664.1	
609.86	5739.8	
610.05	7256.6	
610.24	7707.2	
610.43	5649.7	
610.62	5248.9	
610.81	8840.4	
611	8605.6	
611.19	5749.3	
611.38	6506.4	
611.57	7901.1	
611.76	9270.5	
611.95	5515.9	
612.14	5362.3	
612.33	7688.1	
612.52	7256	
612.71	6120.7	
612.9	5209.3	
613.09	6978.8	
613.28	9239.1	
613.47	5821.7	
613.66	6888	
613.85	7830.1	
614.04	7423.9	
614.24	5972.6	
614.43	5062.6	
614.62	7976.2	
614.81	7991.9	
615	6595.8	
615.19	6521.4	
615.38	7313.3	
615.57	7682.6	
615.76	6334.4	
615.95	7318.8	
616.14	7985.7	
616.33	7666.2	
616.52	6640.9	
616.71	6941.2	
616.9	8099	
617.09	7845.8	
617.28	6064	
617.47	7275.1	
617.66	7143.3	
617.85	7083.9	
618.04	6896.2	
618.22	6354.2	
618.41	7462.1	
618.6	8397.4	
618.79	6216.3	
618.98	5922.7	
619.17	8673.8	
619.36	7026.6	
619.55	6077	
619.74	6184.9	
619.93	7914.7	
620.12	7384.3	
620.31	6617.7	
620.5	6821.1	
620.69	8486.8	
620.88	8858.8	
621.07	7542.7	
621.26	6576.7	
621.45	8099.7	
621.64	8131.8	
621.83	6598.6	
622.02	5853.8	
622.21	8127.7	
622.4	7918.8	
622.59	7210.2	
622.78	6904.4	
622.97	7434.8	
623.16	8519.6	
623.35	6535.1	
623.54	5726.8	
623.72	7661.5	
623.91	7821.2	
624.1	6821.1	
624.29	5503.6	
624.48	8822.6	
624.67	8067.6	
624.86	6662	
625.05	5724.8	
625.24	8915.5	
625.43	7313.3	
625.62	8533.2	
625.81	5968.5	
626	8405.5	
626.19	7593.9	
626.38	6653.9	
626.56	6178	
626.75	7464.2	
626.94	8165.3	
627.13	6701.6	
627.32	5398.4	
627.51	8101.8	
627.7	9460.9	
627.89	5642.8	
628.08	6748.1	
628.27	7380.2	
628.46	7580.2	
628.65	5795.8	
628.83	5606	
629.02	8075.1	
629.21	7342.7	
629.4	6293.4	
629.59	6503	
629.78	7292.8	
629.97	8271.7	
630.16	6534.4	
630.35	5978.7	
630.54	8645.8	
630.72	8413.7	
630.91	5977.3	
631.1	6578.8	
631.29	7915.4	
631.48	8117.5	
631.67	6761	
631.86	6150.1	
632.05	7457.3	
632.24	7560.4	
632.42	5825.8	
632.61	6449.1	
632.8	7724.3	
632.99	7258	
633.18	6401.3	
633.37	6801.3	
633.56	7960.5	
633.75	7729.7	
633.93	6381.5	
634.12	6161	
634.31	8703.2	
634.5	8373.5	
634.69	6149.4	
634.88	6565.1	
635.07	7727.7	
635.25	8338	
635.44	7060.7	
635.63	7266.2	
635.82	7480.5	
636.01	7094.2	
636.2	7015.7	
636.39	6549.4	
636.57	8672.5	
636.76	8381	
636.95	5896.1	
637.14	7387.7	
637.33	7967.3	
637.52	8996.7	
637.7	5649.7	
637.89	6687.3	
638.08	7571.3	
638.27	9127.8	
638.46	6759.7	
638.65	7204.1	
638.83	8991.3	
639.02	7442.3	
639.21	6623.1	
639.4	7240.9	
639.59	7946.1	
639.78	7496.2	
639.96	6033.3	
640.15	6016.9	
640.34	7768.6	
640.53	7951.6	
640.72	5717.9	
640.91	6096.1	
641.09	7149.5	
641.28	8607.6	
641.47	5951.4	
641.66	6824.5	
641.85	7857.4	
642.03	8137.3	
642.22	6621.8	
642.41	6141.2	
642.6	7284.6	
642.79	6728.3	
642.97	5877.7	
643.16	6652.5	
643.35	7241.6	
643.54	7094.8	
643.73	5748	
643.91	6714.6	
644.1	7030	
644.29	7586.4	
644.48	5815.5	
644.67	5991	
644.85	7227.3	
645.04	7519.5	
645.23	5560.9	
645.42	5781.4	
645.6	7025.2	
645.79	8209.6	
645.98	5763	
646.17	4824.3	
646.36	6812.9	
646.54	7455.3	
646.73	6623.1	
646.92	5404.6	
647.11	6941.2	
647.29	8058.1	
647.48	5507.7	
647.67	5322.7	
647.86	8312.7	
648.05	8346.8	
648.23	5883.8	
648.42	7210.9	
648.61	7723.6	
648.8	7352.2	
648.98	5511.1	
649.17	5834.7	
649.36	7031.4	
649.55	6468.9	
649.73	5513.8	
649.92	6347.3	
650.11	6892.8	
650.3	7209.5	
650.48	5592.3	
650.67	5415.5	
650.86	7607.5	
651.05	6446.3	
651.23	5692	
651.42	5605.3	
651.61	6944	
651.79	7192.5	
651.98	5824.4	
652.17	5446.2	
652.36	7428.7	
652.54	6515.3	
652.73	5497.4	
652.92	5292	
653.11	7551.5	
653.29	7499	
653.48	4739	
653.67	5794.4	
653.85	7234.8	
654.04	8327	
654.23	6005.3	
654.42	5495.4	
654.6	6739.2	
654.79	7434.8	
654.98	4992.3	
655.16	5559.6	
655.35	6438.8	
655.54	6406.7	
655.73	5122.7	
655.91	5098.8	
656.1	7664.9	
656.29	6298.9	
656.47	4658.4	
656.66	6384.2	
656.85	6615.6	
657.03	6660.7	
657.22	5169.8	
657.41	5242.8	
657.59	6802.7	
657.78	6484.6	
657.97	4861.2	
658.16	5656.5	
658.34	7388.4	
658.53	7817.1	
658.72	6574	
658.9	7087.3	
659.09	6787.7	
659.28	6862.1	
659.46	5413.5	
659.65	5281	
659.84	6584.2	
660.02	7180.9	
660.21	5137	
660.4	5191.6	
660.58	7605.5	
660.77	6978.8	
660.96	5811.5	
661.14	4801.1	
661.33	8133.8	
661.52	7972.1	
661.7	4698.7	
661.89	8602.8	
662.08	6548	
662.26	6140.5	
662.45	4991.6	
662.64	5156.1	
662.82	7227.3	
663.01	6434	
663.2	5179.3	
663.38	5941.2	
663.57	7159	
663.75	7045.7	
663.94	5533.6	
664.13	6817	
664.31	6507.8	
664.5	7300.3	
664.69	5723.4	
664.87	6354.2	
665.06	6274.3	
665.25	7068.2	
665.43	6636.1	
665.62	6656.6	
665.8	7361.8	
665.99	6634.7	
666.18	5560.2	
666.36	5597.1	
666.55	7371.3	
666.74	7264.8	
666.92	5176.6	
667.11	6849.8	
667.29	6697.5	
667.48	7283.9	
667.67	6388.3	
667.85	5550	
668.04	6747.4	
668.22	6682.5	
668.41	5591	
668.6	5655.8	
668.78	6476.4	
668.97	6740.5	
669.15	5913.2	
669.34	4864.6	
669.53	6522.1	
669.71	6879.8	
669.9	5089.2	
670.08	5716.6	
670.27	6498.2	
670.46	7103	
670.64	5995.8	
670.83	6205.3	
671.01	6382.8	
671.2	7065.5	
671.38	5171.1	
671.57	5141.8	
671.76	7649.2	
671.94	8279.3	
672.13	4949.3	
672.31	6053.1	
672.5	7254.6	
672.69	6475.7	
672.87	5168.4	
673.06	5442.8	
673.24	7028.6	
673.43	6507.1	
673.61	5952.1	
673.8	5398.4	
673.98	7256	
674.17	7413	
674.36	6040.8	
674.54	5864	
674.73	7008.8	
674.91	7184.3	
675.1	5588.9	
675.28	5205.9	
675.47	6793.8	
675.65	7275.8	
675.84	5456.5	
676.03	5753.4	
676.21	6543.3	
676.4	6059.3	
676.58	6270.2	
676.77	6022.4	
676.95	8031.5	
677.14	6490.7	
677.32	5132.9	
677.51	4811.4	
677.69	7281.2	
677.88	6102.3	
678.06	5037.3	
678.25	5100.8	
678.44	6750.8	
678.62	6470.9	
678.81	4748.6	
678.99	5825.1	
679.18	7600	
679.36	7072.3	
679.55	5399.1	
679.73	6074.3	
679.92	7061.4	
680.1	6469.5	
680.29	6753.5	
680.47	5401.2	
680.66	6374	
680.84	7342.7	
681.03	4670.7	
681.21	5812.8	
681.4	6505.7	
681.58	6337.8	
681.77	5177.9	
681.95	5076.9	
682.14	7378.8	
682.32	7718.1	
682.51	5993.7	
682.69	4859.8	
682.88	6412.2	
683.06	7175.4	
683.25	5808	
683.43	6191	
683.62	6713.2	
683.8	7125.6	
683.99	6245.6	
684.17	5555.5	
684.36	7966.6	
684.54	6580.1	
684.73	4690.5	
684.91	5016.8	
685.1	6913.9	
685.28	6309.1	
685.46	5545.9	
685.65	5685.2	
685.83	7169.9	
686.02	6508.4	
686.2	5051.7	
686.39	5225.1	
686.57	6369.2	
686.76	7908.6	
686.94	5113.1	
687.13	5226.4	
687.31	7085.3	
687.5	6572.6	
687.68	4606.6	
687.86	5963.7	
688.05	8181	
688.23	6021.7	
688.42	6020.3	
688.6	5059.2	
688.79	6412.9	
688.97	6446.3	
689.16	5573.2	
689.34	4364.2	
689.52	7211.6	
689.71	7441	
689.89	5836.7	
690.08	5043.5	
690.26	6724.8	
690.45	6525.5	
690.63	5953.4	
690.81	5240.1	
691	6400.6	
691.18	6354.8	
691.37	5304.9	
691.55	7545.4	
691.74	6286.6	
691.92	8422.6	
692.1	5393.7	
692.29	4780	
692.47	6576.7	
692.66	5824.4	
692.84	5001.1	
693.02	5682.4	
693.21	5988.9	
693.39	6511.9	
693.58	5728.2	
693.76	5055.8	
693.94	7750.9	
694.13	7500.3	
694.31	5057.1	
694.5	6169.8	
694.68	6309.8	
694.86	6655.9	
695.05	5423.7	
695.23	5857.9	
695.42	6976.1	
695.6	9424.1	
695.78	6091.3	
695.97	5124.7	
696.15	7063.4	
696.34	6381.5	
696.52	4826.4	
696.7	5712.5	
696.89	6821.1	
697.07	6195.1	
697.25	5638.7	
697.44	7242.3	
697.62	6739.2	
697.81	7165.2	
697.99	5330.2	
698.17	5811.5	
698.36	6108.4	
698.54	6793.1	
698.72	5637.4	
698.91	4616.8	
699.09	6319.3	
699.28	6209.4	
699.46	5352.7	
699.64	5165	
699.83	6130.9	
700.01	7453.2	
700.19	6122.7	
700.38	4376.5	
700.56	7462.1	
700.74	6267.5	
700.93	4826.4	
701.11	5634	
701.29	6820.4	
701.48	7887.4	
701.66	5055.8	
701.84	5051.7	
702.03	6363	
702.21	7065.5	
702.39	4595	
702.58	5184.8	
702.76	6751.5	
702.94	6936.5	
703.13	4602.5	
703.31	7126.2	
703.49	5993	
703.68	7443.7	
703.86	4818.9	
704.04	5814.9	
704.23	6601.3	
704.41	7045.7	
704.59	4990.2	
704.78	6343.2	
704.96	7740.6	
705.14	7036.1	
705.33	4758.1	
705.51	5623	
705.69	6424.5	
705.87	7352.9	
706.06	5918.6	
706.24	4684.4	
706.42	6794.5	
706.61	7057.3	
706.79	5939.8	
706.97	4719.2	
707.16	6184.2	
707.34	6863.4	
707.52	5875.6	
707.7	5033.2	
707.89	6451.8	
708.07	6036	
708.25	5821.7	
708.44	5980.8	
708.62	6283.2	
708.8	7484	
708.98	6171.2	
709.17	5066.7	
709.35	6757.6	
709.53	6707.8	
709.72	4784.1	
709.9	4971.1	
710.08	6940.6	
710.26	6988.4	
710.45	6503	
710.63	5257.1	
710.81	6647	
710.99	6677.1	
711.18	5770.5	
711.36	5189.6	
711.54	6425.2	
711.72	7219.1	
711.91	5311.7	
712.09	4680.3	
712.27	6650.4	
712.45	7254.6	
712.64	5594.4	
712.82	4545.8	
713	6070.2	
713.18	6242.2	
713.37	4640.7	
713.55	5885.2	
713.73	7142.6	
713.91	5684.5	
714.1	5070.8	
714.28	4501.4	
714.46	6808.1	
714.64	6083.1	
714.83	3977.8	
715.01	4945.8	
715.19	6209.4	
715.37	5603.2	
715.55	4668.7	
715.74	5003.9	
715.92	7185.6	
716.1	5072.8	
716.28	6170.5	
716.47	5158.2	
716.65	5821.7	
716.83	5915.2	
717.01	4995	
717.19	5091.9	
717.38	8057.4	
717.56	5530.2	
717.74	5312.4	
717.92	4322.6	
718.1	6857.3	
718.29	6042.2	
718.47	3986.7	
718.65	4712.4	
718.83	6794.5	
719.01	6616.3	
719.2	3822.2	
719.38	4988.9	
719.56	6270.2	
719.74	7919.5	
719.92	4448.9	
720.11	5612.1	
720.29	6329.6	
720.47	5412.8	
720.65	4078.2	
720.83	4943.1	
721.02	5795.8	
721.2	5565	
721.38	5036	
721.56	4269.3	
721.74	5130.8	
721.92	5369.1	
722.11	5597.1	
722.29	5192.3	
722.47	6638.8	
722.65	5726.8	
722.83	4348.5	
723.01	5270.8	
723.2	5849.7	
723.38	6168.5	
723.56	3745.7	
723.74	4921.3	
723.92	5307.7	
724.1	6564.4	
724.29	4254.3	
724.47	5459.2	
724.65	5373.2	
724.83	5358.9	
725.01	4130.1	
725.19	5055.1	
725.37	5440.8	
725.56	5489.2	
725.74	4018.8	
725.92	4268.6	
726.1	5309	
726.28	5676.3	
726.46	4674.1	
726.64	4470	
726.83	5595.1	
727.01	5940.5	
727.19	4005.8	
727.37	4823.6	
727.55	5763.7	
727.73	6280.4	
727.91	3936.2	
728.09	3786	
728.28	6384.9	
728.46	7058.7	
728.64	5003.9	
728.82	4870.8	
729	7449.8	
729.18	6728.9	
729.36	4102.8	
729.54	6537.8	
729.72	7789.8	
729.91	5912.5	
730.09	6053.1	
730.27	4749.9	
730.45	5786.9	
730.63	6414.2	
730.81	5416.9	
730.99	4387.4	
731.17	6993.8	
731.35	5528.2	
731.53	4984.1	
731.71	4568.3	
731.9	6722.8	
732.08	6976.7	
732.26	4878.3	
732.44	4446.1	
732.62	6904.4	
732.8	6393.8	
732.98	5196.4	
733.16	4229.7	
733.34	6423.8	
733.52	5254.4	
733.7	4805.2	
733.88	5136.3	
734.07	6322.8	
734.25	6005.3	
734.43	4263.2	
734.61	5963	
734.79	7527.7	
734.97	5890.6	
735.15	4458.4	
735.33	4837.3	
735.51	6385.6	
735.69	5896.1	
735.87	5930.9	
736.05	4935.6	
736.23	6138.4	
736.41	5960.3	
736.59	4887.1	
736.77	4985.4	
736.95	6622.4	
737.13	6034	
737.32	4552	
737.5	4741	
737.68	7202.7	
737.86	5909.1	
738.04	4231.1	
738.22	6320	
738.4	5721.3	
738.58	6023.8	
738.76	5002.5	
738.94	3861.8	
739.12	5920.7	
739.3	5767.1	
739.48	5634.6	
739.66	5343.2	
739.84	6209.4	
740.02	6129.6	
740.2	3987.4	
740.38	4343.7	
740.56	6595.8	
740.74	5403.9	
740.92	5072.8	
741.1	5001.8	
741.28	5930.9	
741.46	5884.5	
741.64	4549.9	
741.82	5162.2	
742	5986.9	
742.18	6005.3	
742.36	4844.8	
742.54	4431.1	
742.72	6588.3	
742.9	5213.4	
743.08	5234.6	
743.26	3986	
743.44	6864.1	
743.62	6692.1	
743.8	5486.5	
743.98	4440	
744.16	6339.8	
744.34	6029.9	
744.52	5348.6	
744.7	5240.8	
744.88	6435.4	
745.06	6034.7	
745.24	5361.6	
745.42	5562.3	
745.6	6618.4	
745.78	6432.7	
745.96	4123.2	
746.14	4472.8	
746.32	7397.3	
746.5	6614.3	
746.68	5145.2	
746.86	4571.7	
747.03	7088.7	
747.21	5324	
747.39	5072.1	
747.57	4507.6	
747.75	6186.9	
747.93	6647	
748.11	4511.7	
748.29	4462.5	
748.47	7838.9	
748.65	5944.6	
748.83	5314.5	
749.01	4956.1	
749.19	6447	
749.37	5614.8	
749.55	4904.9	
749.73	4973.8	
749.91	6099.5	
750.09	5820.3	
750.26	4981.3	
750.44	4350.6	
750.62	6176	
750.8	6150.1	
750.98	4260.5	
751.16	4631.1	
751.34	6195.8	
751.52	5494.7	
751.7	5472.2	
751.88	4185.4	
752.06	6715.3	
752.24	6477	
752.42	4231.1	
752.59	4586.8	
752.77	6131.6	
752.95	7456	
753.13	5390.9	
753.31	4689.2	
753.49	5732.9	
753.67	6234.7	
753.85	5051	
754.03	4597.7	
754.21	6520.7	
754.38	6913.9	
754.56	4782.7	
754.74	3799.7	
754.92	5819.6	
755.1	6552.1	
755.28	3839.9	
755.46	3878.2	
755.64	7330.4	
755.82	7395.2	
755.99	4185.4	
756.17	4328	
756.35	4781.3	
756.53	6541.2	
756.71	3164.8	
756.89	4213.4	
757.07	6102.3	
757.25	5114.5	
757.42	4651.6	
757.6	5661.3	
757.78	6146	
757.96	5088.5	
758.14	4379.9	
758.32	3837.2	
758.5	4626.4	
758.67	5548.6	
758.85	4225	
759.03	4327.4	
759.21	5690.6	
759.39	5121.3	
759.57	3754.6	
759.75	4988.2	
759.92	6335	
760.1	5518.6	
760.28	5326.1	
760.46	5517.2	
760.64	5375.2	
760.82	5068	
760.99	5171.8	
761.17	4296	
761.35	6169.2	
761.53	5118.6	
761.71	4436.6	
761.89	5203.2	
762.06	6105.7	
762.24	5552	
762.42	4476.9	
762.6	4283	
762.78	5586.2	
762.96	6290	
763.13	4969.7	
763.31	4555.4	
763.49	6461.3	
763.67	5485.8	
763.85	5444.2	
764.02	6071.5	
764.2	6774.7	
764.38	5842.2	
764.56	4489.1	
764.74	5410.1	
764.91	6910.5	
765.09	5692	
765.27	4129.4	
765.45	3962.8	
765.63	6826.6	
765.8	6773.3	
765.98	3645.4	
766.16	4016.7	
766.34	5272.2	
766.52	5070.8	
766.69	4991.6	
766.87	3812	
767.05	5693.4	
767.23	6537.8	
767.41	4182	
767.58	4433.2	
767.76	6270.2	
767.94	6409.5	
768.12	4314.4	
768.29	5083.7	
768.47	5753.4	
768.65	6537.1	
768.83	3891.1	
769	5118.6	
769.18	5311.1	
769.36	6079.1	
769.54	4898.7	
769.72	3897.3	
769.89	6295.5	
770.07	6490.7	
770.25	4234.5	
770.43	5657.2	
770.6	7113.3	
770.78	7543.4	
770.96	4445.5	
771.14	5168.4	
771.31	6258.6	
771.49	5592.3	
771.67	3615.3	
771.85	3883.6	
772.02	4838.7	
772.2	5590.3	
772.38	4739	
772.55	4142.4	
772.73	5920	
772.91	5686.5	
773.09	4588.8	
773.26	4645.5	
773.44	5845.6	
773.62	5588.9	
773.8	4056.3	
773.97	3724.6	
774.15	5911.8	
774.33	5524.1	
774.5	3952.6	
774.68	4339.6	
774.86	6059.9	
775.04	5571.2	
775.21	4065.9	
775.39	4046.1	
775.57	5847.6	
775.74	6321.4	
775.92	3919.8	
776.1	3763.5	
776.27	5807.4	
776.45	7132.4	
776.63	3988.8	
776.81	3527.3	
776.98	5492	
777.16	6638.1	
777.34	4250.2	
777.51	4144.4	
777.69	5431.2	
777.87	5181.4	
778.04	4202.4	
778.22	4831.8	
778.4	5257.1	
778.57	5978.7	
778.75	3446	
778.93	3743.7	
779.1	5053.7	
779.28	4952	
779.46	3519.1	
779.64	4065.9	
779.81	6109.1	
779.99	7109.9	
780.17	4845.5	
780.34	5008.6	
780.52	5500.8	
780.69	5752.1	
780.87	4349.9	
781.05	3882.3	
781.22	5507	
781.4	5718.6	
781.58	4006.5	
781.75	3170.9	
781.93	5619.6	
782.11	5001.1	
782.28	4995.7	
782.46	4030.4	
782.64	4887.8	
782.81	5889.3	
782.99	4117.8	
783.17	4144.4	
783.34	5727.5	
783.52	4917.9	
783.69	4354.7	
783.87	5160.2	
784.05	5016.8	
784.22	4997.7	
784.4	5141.1	
784.58	4407.9	
784.75	5969.1	
784.93	5100.1	
785.1	4012	
785.28	4725.3	
785.46	5717.9	
785.63	4986.8	
785.81	4007.9	
785.99	3910.9	
786.16	5261.9	
786.34	5738.4	
786.51	3953.3	
786.69	4323.3	
786.87	4775.2	
787.04	5304.9	
787.22	3785.3	
787.39	4795.7	
787.57	4945.2	
787.75	6147.3	
787.92	4904.2	
788.1	4889.2	
788.27	5014.8	
788.45	4790.9	
788.63	4588.1	
788.8	3312.2	
788.98	5578	
789.15	4728.1	
789.33	3429.7	
789.5	4087.1	
789.68	6023.8	
789.86	6115.2	
790.03	4603.8	
790.21	3950.5	
790.38	5979.4	
790.56	5190.2	
790.73	3773.7	
790.91	3846.8	
791.09	5051.7	
791.26	5894.1	
791.44	4057	
791.61	3473.4	
791.79	5005.2	
791.96	5128.8	
792.14	3584.6	
792.32	3128.6	
792.49	5081.7	
792.67	5189.6	
792.84	3679.5	
793.02	3475.4	
793.19	5507.7	
793.37	6286.6	
793.54	3204.4	
793.72	3581.2	
793.89	6410.1	
794.07	5098.8	
794.25	4187.4	
794.42	3285.6	
794.6	6106.4	
794.77	5814.9	
794.95	4505.5	
795.12	3854.3	
795.3	5028.4	
795.47	5643.5	
795.65	4298	
795.82	4166.9	
796	4851	
796.17	6893.5	
796.35	3947.1	
796.52	4716.5	
796.7	5618.3	
796.87	5698.1	
797.05	4944.5	
797.22	4827.7	
797.4	5649.7	
797.57	6778.1	
797.75	4121.9	
797.92	3803.8	
798.1	5959.6	
798.27	5010.7	
798.45	3252.2	
798.62	3566.2	
798.8	5371.8	
798.97	5949.3	
799.15	4338.3	
799.32	4145.8	
799.5	4629.8	
799.67	5462.6	
799.85	4487.1	
800.02	3276.1	
800.2	4956.8	
800.37	5343.8	
800.55	4635.2	
800.72	3847.5	
800.9	5864.7	
801.07	6364.4	
801.25	5240.1	
801.42	4248.2	
801.6	5912.5	
801.77	5610.8	
801.95	3958.7	
802.12	3762.8	
802.29	5571.2	
802.47	5569.8	
802.64	4198.3	
802.82	3166.8	
802.99	4990.9	
803.17	6066.1	
803.34	4141	
803.52	3695.9	
803.69	6751.5	
803.87	4760.8	
804.04	4044.1	
804.21	4237.9	
804.39	6163.7	
804.56	5287.2	
804.74	3489.1	
804.91	4269.3	
805.09	5027.1	
805.26	5190.9	
805.44	3584.6	
805.61	3871.3	
805.78	5808.7	
805.96	5769.1	
806.13	4274.8	
806.31	4577.2	
806.48	4599.1	
806.66	5139	
806.83	4297.3	
807	4189.5	
807.18	5060.5	
807.35	5485.8	
807.53	4145.8	
807.7	3285.6	
807.87	6291.4	
808.05	5079	
808.22	4644.1	
808.4	3315.7	
808.57	5073.5	
808.74	4687.8	
808.92	3826.3	
809.09	4855.1	
809.27	4934.2	
809.44	5660.6	
809.61	3355.9	
809.79	3756	
809.96	6184.2	
810.14	5853.8	
810.31	3258.3	
810.48	3999	
810.66	5183.4	
810.83	5943.2	
811.01	3805.8	
811.18	4281.6	
811.35	5842.2	
811.53	4501.4	
811.7	4638	
811.87	4349.2	
812.05	5129.5	
812.22	5044.8	
812.39	3723.9	
812.57	3639.2	
812.74	5105.6	
812.92	6849.8	
813.09	3991.5	
813.26	4357.4	
813.44	6578.1	
813.61	5068.7	
813.78	3330	
813.96	4485.1	
814.13	5083.1	
814.3	4778.6	
814.48	4842.8	
814.65	4057	
814.82	6369.2	
815	4922	
815.17	4093.2	
815.34	5072.8	
815.52	5052.3	
815.69	5048.2	
815.87	4089.1	
816.04	3549.1	
816.21	5124.7	
816.38	4495.3	
816.56	3947.8	
816.73	3669.3	
816.9	6464.8	
817.08	5943.2	
817.25	3712.3	
817.42	4716.5	
817.6	4689.2	
817.77	5167.7	
817.94	4210.6	
818.12	3634.5	
818.29	4831.2	
818.46	7751.6	
818.64	3789.4	
818.81	3628.3	
818.98	4777.2	
819.16	6952.9	
819.33	4476.2	
819.5	4094.6	
819.67	5487.2	
819.85	6184.9	
820.02	4058.4	
820.19	4283.7	
820.37	5311.1	
820.54	4920.6	
820.71	4157.4	
820.88	5152	
821.06	5324.7	
821.23	4850.3	
821.4	4189.5	
821.58	4138.3	
821.75	5892	
821.92	5256.5	
822.09	3342.3	
822.27	3438.5	
822.44	5119.9	
822.61	4997	
822.79	3410.6	
822.96	6532.3	
823.13	5637.4	
823.3	4900.8	
823.48	3902.1	
823.65	3534.1	
823.82	5832.6	
823.99	4635.2	
824.17	5021.6	
824.34	3568.2	
824.51	6688	
824.68	5156.1	
824.86	3720.5	
825.03	4207.2	
825.2	5085.1	
825.37	6219.7	
825.55	3660.4	
825.72	4101.4	
825.89	6872.3	
826.06	6386.2	
826.24	4066.6	
826.41	4070.7	
826.58	6274.3	
826.75	5488.6	
826.92	3163.4	
827.1	3498.6	
827.27	8599.4	
827.44	6784.9	
827.61	3805.1	
827.79	4631.8	
827.96	4829.1	
828.13	5197.7	
828.3	3990.1	
828.47	3349.1	
828.65	5318.6	
828.82	5347.9	
828.99	5194.3	
829.16	4503.5	
829.34	5785.5	
829.51	5479	
829.68	4123.9	
829.85	4350.6	
830.02	5995.8	
830.2	5754.8	
830.37	3216.7	
830.54	4988.2	
830.71	6627.2	
830.88	5083.1	
831.05	3209.2	
831.23	3758	
831.4	6236.7	
831.57	7034.1	
831.74	3829.7	
831.91	3407.1	
832.09	5325.4	
832.26	5635.3	
832.43	3970.3	
832.6	4532.8	
832.77	5347.2	
832.94	6118	
833.12	3148.4	
833.29	3936.9	
833.46	5564.3	
833.63	7340.6	
833.8	4362.2	
833.97	3992.2	
834.15	5764.3	
834.32	5512.4	
834.49	4103.4	
834.66	4302.1	
834.83	6004.6	
835	4848.9	
835.17	3805.1	
835.35	3859.7	
835.52	5575.9	
835.69	5503.6	
835.86	4031.8	
836.03	3274	
836.2	5609.4	
836.37	5288.5	
836.55	3986	
836.72	3722.5	
836.89	5296	
837.06	5677	
837.23	4103.4	
837.4	4475.5	
837.57	6606.7	
837.75	7341.3	
837.92	3631.7	
838.09	3853.6	
838.26	5293.3	
838.43	6008.1	
838.6	4173.8	
838.77	3708.9	
838.94	6873.7	
839.11	6629.3	
839.29	3953.9	
839.46	3121.1	
839.63	5685.8	
839.8	5373.9	
839.97	3915.7	
840.14	3894.6	
840.31	5480.4	
840.48	5760.9	
840.65	3163.4	
840.82	3829	
841	5765.7	
841.17	5691.3	
841.34	3570.3	
841.51	3621.5	
841.68	5603.2	
841.85	5386.2	
842.02	3710.2	
842.19	3027.6	
842.36	5436	
842.53	5452.4	
842.7	3545.7	
842.87	4310.3	
843.05	7227.3	
843.22	5414.8	
843.39	3358.7	
843.56	3629	
843.73	5143.1	
843.9	5758.2	
844.07	5843.5	
844.24	4838.7	
844.41	8502.5	
844.58	4986.1	
844.75	3359.4	
844.92	3786	
845.09	5662.6	
845.26	5704.3	
845.43	3447.4	
845.6	3702	
845.77	5796.4	
845.94	5395.7	
846.12	3915	
846.29	4176.5	
846.46	6002.6	
846.63	5726.8	
846.8	3596.9	
846.97	4210.6	
847.14	6178.7	
847.31	5705	
847.48	4001	
847.65	4422.2	
847.82	6048.3	
847.99	5956.9	
848.16	4767	
848.33	4373.8	
848.5	5351.3	
848.67	6199.9	
848.84	3550.5	
849.01	3687	
849.18	5066.7	
849.35	4807.9	
849.52	4429.1	
849.69	3452.9	
849.86	5874.3	
850.03	6165.8	
850.2	3540.9	
850.37	4343.1	
850.54	6102.3	
850.71	5378.6	
850.88	4286.4	
851.05	3477.5	
851.22	5665.4	
851.39	6270.9	
851.56	3334.1	
851.73	4067.3	
851.9	4967.7	
852.07	5981.4	
852.24	3945.8	
852.41	3540.9	
852.58	5603.2	
852.75	5049.6	
852.92	3950.5	
853.09	3441.3	
853.26	5309	
853.43	6186.2	
853.6	3530.7	
853.77	2970.9	
853.94	6245.6	
854.11	5675.6	
854.28	5308.3	
854.44	3823.6	
854.61	6676.4	
854.78	5803.9	
854.95	3520.5	
855.12	4376.5	
855.29	4577.9	
855.46	6335.1	
855.63	3513.6	
855.8	4876.9	
855.97	5242.1	
856.14	6038.8	
856.31	5018.2	
856.48	3808.5	
856.65	5248.3	
856.82	4924	
856.99	3310.9	
857.16	3816	
857.33	6970.6	
857.49	5391.6	
857.66	3818.8	
857.83	4115.7	
858	5338.4	
858.17	5535.7	
858.34	3276.1	
858.51	3563.5	
858.68	6453.8	
858.85	6436.1	
859.02	4102.1	
859.19	4347.8	
859.36	5008.6	
859.52	5057.1	
859.69	3528	
859.86	4142.4	
860.03	5052.3	
860.2	6318	
860.37	3241.3	
860.54	3511.6	
860.71	5903.6	
860.88	6398.5	
861.05	4053.6	
861.21	4441.4	
861.38	6381.5	
861.55	4911	
861.72	3196.9	
861.89	3906.8	
862.06	6036	
862.23	6535.8	
862.4	3450.1	
862.56	3717.1	
862.73	5823.1	
862.9	5506.3	
863.07	4156	
863.24	3198.9	
863.41	4891.9	
863.58	4995	
863.75	3587.4	
863.91	4084.3	
864.08	6352.8	
864.25	5879	
864.42	4405.2	
864.59	4919.2	
864.76	6688	
864.93	5001.8	
865.09	3434.4	
865.26	3762.8	
865.43	6270.9	
865.6	6629.3	
865.77	3044	
865.94	3476.1	
866.1	6262	
866.27	6011.5	
866.44	5331.5	
866.61	3332	
866.78	5385.5	
866.95	5887.9	
867.11	3375.1	
867.28	3102.7	
867.45	6047	
867.62	5163.6	
867.79	4086.4	
867.96	3490.4	
868.12	5074.9	
868.29	5992.4	
868.46	3448.8	
868.63	4769.7	
868.8	6170.5	
868.97	5981.4	
869.13	3659.7	
869.3	3658.4	
869.47	5828.5	
869.64	6025.8	
869.81	3606.5	
869.97	3563.5	
870.14	5705	
870.31	6408.1	
870.48	3449.5	
870.65	4494.6	
870.81	5367	
870.98	5282.4	
871.15	4046.8	
871.32	3587.4	
871.48	5824.4	
871.65	6473.6	
871.82	3513.6	
871.99	3887.7	
872.16	6978.8	
872.32	6278.4	
872.49	3586	
872.66	3607.8	
872.83	5939.1	
872.99	5223	
873.16	4034.5	
873.33	3480.2	
873.5	5558.2	
873.67	5630.5	
873.83	3689.1	
874	4711	
874.17	5719.3	
874.34	6769.2	
874.5	4532.8	
874.67	4419.5	
874.84	6352.1	
875.01	5022.3	
875.17	5000.5	
875.34	3525.2	
875.51	5580.7	
875.68	6790.4	
875.84	4185.4	
876.01	5253	
876.18	5926.8	
876.34	5858.6	
876.51	3515.7	
876.68	3440.6	
876.85	5345.2	
877.01	6164.4	
877.18	5083.7	
877.35	3488.4	
877.52	5507	
877.68	4900.1	
877.85	3433.8	
878.02	3430.3	
878.18	5449	
878.35	5205.3	
878.52	2829.6	
878.69	4006.5	
878.85	5968.5	
879.02	5936.4	
879.19	5050.3	
879.35	3851.5	
879.52	5837.4	
879.69	6154.1	
879.86	2967.5	
880.02	3918.4	
880.19	5454.4	
880.36	6701	
880.52	4064.5	
880.69	4225.6	
880.86	5967.8	
881.02	6125.5	
881.19	3855	
881.36	3771	
881.52	5898.8	
881.69	5192.3	
881.86	3753.9	
882.02	3736.2	
882.19	6170.5	
882.36	7267.6	
882.52	3599.6	
882.69	5023.7	
882.86	5679	
883.02	5607.3	
883.19	4305.5	
883.36	4024.3	
883.52	6037.4	
883.69	6903	
883.86	3605.8	
884.02	3233.1	
884.19	5973.2	
884.36	5504.3	
884.52	3984.7	
884.69	3750.5	
884.86	5214.8	
885.02	6580.8	
885.19	3938.9	
885.36	4030.4	
885.52	5446.2	
885.69	5671.5	
885.86	5100.8	
886.02	4491.2	
886.19	5954.8	
886.35	5264	
886.52	3928	
886.69	4943.1	
886.85	5071.5	
887.02	6339.8	
887.19	6339.8	
887.35	6339.8	
887.52	6339.8	
887.68	6339.8	
887.85	6339.8	
888.02	6339.8	
888.18	6339.8	
888.35	6339.8	
888.51	6339.8	
888.68	6339.8	
888.85	6339.8	
889.01	6339.8	
889.18	6339.8	
889.35	6339.8	
889.51	6339.8	
889.68	6339.8	
889.84	6339.8	
890.01	6339.8	
890.17	6339.8	
890.34	6339.8	
890.51	6339.8	
890.67	6339.8	
890.84	6339.8	
891	6339.8	
891.17	6339.8	
891.34	6339.8	
891.5	6339.8	
891.67	6339.8	
891.83	6339.8	
892	6339.8	
892.16	6339.8	
892.33	6339.8	
892.5	6339.8	
892.66	6339.8	
892.83	6339.8	
892.99	6339.8	
893.16	6339.8	
893.32	6339.8	
893.49	6339.8	
893.65	6339.8	
893.82	6339.8	
893.99	6339.8	
894.15	6339.8	
894.32	6339.8	
894.48	6339.8	
894.65	6339.8	
894.81	6339.8	
894.98	6339.8	
895.14	6339.8	
895.31	6339.8	
895.47	6339.8	
895.64	6339.8	
895.81	6339.8	
895.97	6339.8	
896.14	6339.8	
896.3	6339.8	
896.47	6339.8	
896.63	6339.8	
896.8	6339.8	
896.96	6339.8	
897.13	6339.8	
897.29	6339.8	
897.46	6339.8	
897.62	6339.8	
897.79	6339.8	
897.95	6339.8	
898.12	6339.8	
898.28	6339.8	
898.45	6339.8	
898.61	6339.8	
898.78	6339.8	
898.94	6339.8	
899.11	6339.8	
899.27	6339.8	
899.44	6339.8	
899.6	6339.8	
899.77	6339.8	
899.93	6339.8	
900.1	6339.8	
900.26	6339.8	
900.43	6339.8	
900.59	6339.8	
900.76	6339.8	
900.92	6339.8	
901.09	6339.8	
901.25	6339.8	
901.42	6339.8	
901.58	6339.8	
901.75	6339.8	
901.91	6339.8	
902.07	6339.8	
902.24	6339.8	
902.4	6339.8	
902.57	6339.8	
902.73	6339.8	
902.9	6339.8	
903.06	6339.8	
903.23	6339.8	
903.39	6339.8	
903.56	6339.8	
903.72	6339.8	
903.88	6339.8	
904.05	6339.8	
904.21	6339.8	
904.38	6339.8	
904.54	6339.8	
904.71	6339.8	
904.87	6339.8	
905.03	6339.8	
905.2	6339.8	
905.36	6339.8	
905.53	6339.8	
905.69	6339.8	
905.86	6339.8	
906.02	6339.8	
906.18	6339.8	
906.35	6339.8	
906.51	6339.8	
906.68	6339.8	
906.84	6339.8	
907.01	6339.8	
907.17	6339.8	
907.33	6339.8	
907.5	6339.8	
907.66	6339.8	
907.83	6339.8	
907.99	6339.8	
908.15	6339.8	
908.32	6339.8	
908.48	6339.8	
908.65	6339.8	
908.81	6339.8	
908.97	6339.8	
909.14	6339.8	
909.3	6339.8	
909.47	6339.8	
909.63	6339.8	
909.79	6339.8	
909.96	6339.8	
910.12	6339.8	
910.28	6339.8	
910.45	6339.8	
910.61	6339.8	
910.78	6339.8	
910.94	6339.8	
911.1	6339.8	
911.27	6339.8	
911.43	6339.8	
911.59	6339.8	
911.76	6339.8	
911.92	6339.8	
912.08	6339.8	
912.25	6339.8	
912.41	6339.8	
912.57	6339.8	
912.74	6339.8	
912.9	6339.8	
913.07	6339.8	
913.23	6339.8	
913.39	6339.8	
913.56	6339.8	
913.72	6339.8	
913.88	6339.8	
914.05	6339.8	
914.21	6339.8	
914.37	6339.8	
914.54	6339.8	
914.7	6339.8	
914.86	6339.8	
915.03	6339.8	
915.19	6339.8	
