Wavelength	Intensities	
nm	a.u.	
179.22	1656.5	
179.44	1654.8	
179.65	1658.2	
179.86	1651.3	
180.08	1632.2	
180.29	3804.4	
180.51	2940.9	
180.72	4889.9	
180.94	5392.3	
181.15	2698.5	
181.37	2632.3	
181.58	4741	
181.79	4904.9	
182.01	2764.1	
182.22	2850.1	
182.44	4925.4	
182.65	4210.6	
182.87	3514.3	
183.08	3213.9	
183.29	5095.3	
183.51	4321.2	
183.72	2910.8	
183.94	4022.9	
184.15	4630.5	
184.37	4540.3	
184.58	2583.2	
184.79	3340.2	
185.01	4365.6	
185.22	4947.9	
185.44	3535.5	
185.65	3056.9	
185.86	4624.3	
186.08	4283	
186.29	2558.6	
186.51	2714.2	
186.72	4427.7	
186.94	5038	
187.15	3076	
187.36	3072	
187.58	6252.4	
187.79	4714.4	
188.01	3217.4	
188.22	4865.3	
188.43	5505.6	
188.65	4915.8	
188.86	2717	
189.08	3146.4	
189.29	4440.7	
189.5	4523.3	
189.72	2925.9	
189.93	2977.7	
190.15	5007.3	
190.36	5752.1	
190.57	3195.5	
190.79	3064.4	
191	5046.2	
191.22	5027.1	
191.43	3213.3	
191.64	2801.6	
191.86	5207.3	
192.07	5001.8	
192.29	2831.7	
192.5	2874.7	
192.71	5062.6	
192.93	4452.3	
193.14	2916.3	
193.35	3031.7	
193.57	4455.7	
193.78	5008.6	
194	2446	
194.21	2883.5	
194.42	4322.6	
194.64	4620.9	
194.85	3120.4	
195.07	3607.8	
195.28	4651.6	
195.49	4158.1	
195.71	3725.3	
195.92	2762	
196.13	4846.9	
196.35	4840.7	
196.56	3958	
196.78	3149.8	
196.99	5694.7	
197.2	5387.5	
197.42	3491.8	
197.63	3190.1	
197.84	4270.7	
198.06	4772.4	
198.27	2934.1	
198.48	3731.4	
198.7	4440	
198.91	4607.9	
199.13	3200.3	
199.34	3162.1	
199.55	5015.5	
199.77	4044.1	
199.98	2816	
200.19	3245.3	
200.41	4610.7	
200.62	4320.5	
200.83	3248.1	
201.05	3470.6	
201.26	4614.8	
201.47	4432.5	
201.69	2896.5	
201.9	2770.2	
202.11	4635.9	
202.33	5309.7	
202.54	3028.3	
202.76	3316.3	
202.97	4700.1	
203.18	4767	
203.4	3252.2	
203.61	3271.3	
203.82	4650.9	
204.04	4424.3	
204.25	3175	
204.46	3094.5	
204.68	4678.2	
204.89	4838.7	
205.1	3122.5	
205.32	2747	
205.53	4866	
205.74	5055.1	
205.96	2409.1	
206.17	3203	
206.38	4848.2	
206.6	4971.8	
206.81	3593.5	
207.02	3006.4	
207.24	4797.7	
207.45	5126.7	
207.66	3033	
207.88	2685.6	
208.09	4752	
208.3	4622.3	
208.52	2851.5	
208.73	3095.2	
208.94	4622.9	
209.15	5086.5	
209.37	3038.5	
209.58	3130.7	
209.79	5072.1	
210.01	4491.9	
210.22	2514.2	
210.43	2661	
210.65	4569.7	
210.86	4863.9	
211.07	2988.7	
211.29	2839.2	
211.5	4796.3	
211.71	4607.2	
211.93	2858.3	
212.14	2823.5	
212.35	4622.9	
212.56	4644.8	
212.78	3171.6	
212.99	2673.3	
213.2	5309.7	
213.42	4472.8	
213.63	2888.3	
213.84	3096.5	
214.06	4257.7	
214.27	4267.3	
214.48	3032.4	
214.69	3216	
214.91	5152	
215.12	5186.1	
215.33	3236.5	
215.55	3446.7	
215.76	5490.6	
215.97	4881.7	
216.18	3039.9	
216.4	3053.5	
216.61	4392.2	
216.82	4945.2	
217.04	2838.5	
217.25	2953.2	
217.46	5044.8	
217.67	4873.5	
217.89	2578.4	
218.1	2696.5	
218.31	4655.7	
218.53	4789.5	
218.74	2990	
218.95	2863.1	
219.16	4587.4	
219.38	5238	
219.59	2936.1	
219.8	3319.8	
220.01	5666	
220.23	4643.4	
220.44	3613.3	
220.65	2818	
220.87	4668.7	
221.08	5093.3	
221.29	2704	
221.5	3429.7	
221.72	5902.9	
221.93	4404.5	
222.14	3216	
222.35	3635.1	
222.57	4631.8	
222.78	4938.3	
222.99	3093.1	
223.2	3235.1	
223.42	4810	
223.63	4933.6	
223.84	2453.5	
224.05	2470.5	
224.27	5584.1	
224.48	5192.3	
224.69	3685.7	
224.9	3196.2	
225.12	4764.3	
225.33	4584	
225.54	2656.9	
225.75	2921.1	
225.97	4357.4	
226.18	4575.2	
226.39	3040.6	
226.6	2860.3	
226.82	4504.2	
227.03	4308.2	
227.24	3139.5	
227.45	2758.6	
227.67	4980	
227.88	5245.5	
228.09	3508.2	
228.3	3505.4	
228.52	4859.8	
228.73	4604.5	
228.94	2928.6	
229.15	2689	
229.36	4578.6	
229.58	4543.1	
229.79	2979.8	
230	3403	
230.21	5424.4	
230.43	4697.4	
230.64	3094.5	
230.85	3261.7	
231.06	4990.9	
231.28	4947.9	
231.49	2675.3	
231.7	3117.7	
231.91	4871.4	
232.12	4635.2	
232.34	2808.4	
232.55	3031	
232.76	5089.9	
232.97	4760.2	
233.18	2817.3	
233.4	3194.8	
233.61	4713.1	
233.82	4504.2	
234.03	2966.1	
234.25	2938.2	
234.46	5998.5	
234.67	4677.6	
234.88	3210.5	
235.09	2859.6	
235.31	4754.7	
235.52	4549.2	
235.73	3093.8	
235.94	2725.8	
236.15	4460.5	
236.37	5397.8	
236.58	2869.2	
236.79	3085.6	
237	4846.9	
237.21	4242.7	
237.43	3205.1	
237.64	2607.7	
237.85	7488.7	
238.06	4379.2	
238.27	3229.6	
238.48	2712.2	
238.7	4876.2	
238.91	4550.6	
239.12	3014.6	
239.33	3109.5	
239.54	4401.1	
239.76	4517.8	
239.97	3044.6	
240.18	3029.6	
240.39	5492.7	
240.6	4728.1	
240.82	3196.2	
241.03	2678.7	
241.24	4607.9	
241.45	5201.2	
241.66	2830.3	
241.87	3265.8	
242.09	5158.2	
242.3	5365	
242.51	3277.4	
242.72	3029.6	
242.93	4949.3	
243.14	4630.5	
243.36	3465.8	
243.57	3714.3	
243.78	5244.8	
243.99	4851.6	
244.2	3055.6	
244.41	2850.1	
244.63	4298	
244.84	4816.1	
245.05	3263.8	
245.26	3024.2	
245.47	4902.2	
245.68	4934.9	
245.9	3903.4	
246.11	3188	
246.32	4441.4	
246.53	4824.3	
246.74	4728.8	
246.95	2670.6	
247.16	4386.1	
247.38	4656.4	
247.59	2601.6	
247.8	3095.8	
248.01	4360.1	
248.22	4622.3	
248.43	2788.7	
248.64	3010.5	
248.86	4295.3	
249.07	4489.1	
249.28	2737.5	
249.49	3141.6	
249.7	5034.6	
249.91	5023.7	
250.12	2659.6	
250.34	2697.9	
250.55	4742.4	
250.76	4676.9	
250.97	3148.4	
251.18	3157.3	
251.39	5031.2	
251.6	4731.5	
251.81	3210.5	
252.03	3192.8	
252.24	4437.9	
252.45	4919.2	
252.66	2737.5	
252.87	3276.1	
253.08	4659.8	
253.29	5717.2	
253.5	2745	
253.72	3600.3	
253.93	4558.1	
254.14	5280.3	
254.35	2947	
254.56	3005.1	
254.77	4801.8	
254.98	4334.9	
255.19	2887	
255.41	3581.9	
255.62	4805.9	
255.83	5054.4	
256.04	3233.7	
256.25	3160.7	
256.46	5456.5	
256.67	4407.9	
256.88	3145.7	
257.09	3472	
257.31	4356	
257.52	4364.2	
257.73	3863.8	
257.94	2902	
258.15	4601.8	
258.36	4637.3	
258.57	3549.8	
258.78	2421.4	
258.99	4998.4	
259.2	4476.2	
259.41	2952.5	
259.63	3047.4	
259.84	5259.2	
260.05	5450.3	
260.26	3691.1	
260.47	2896.5	
260.68	5076.2	
260.89	4530.8	
261.1	3452.9	
261.31	2852.8	
261.52	5119.2	
261.73	5261.9	
261.95	3746.4	
262.16	3256.3	
262.37	5088.5	
262.58	5133.6	
262.79	3680.2	
263	2992.8	
263.21	4646.2	
263.42	4220.2	
263.63	3230.3	
263.84	3011.9	
264.05	5009.3	
264.26	5186.1	
264.47	3566.2	
264.69	3145	
264.9	5184.8	
265.11	4797.7	
265.32	2828.2	
265.53	2820.1	
265.74	4709.6	
265.95	4239.3	
266.16	3121.1	
266.37	3333.4	
266.58	4740.4	
266.79	4445.5	
267	2910.8	
267.21	2710.1	
267.42	4316.4	
267.63	4657.1	
267.84	2979.8	
268.06	2663.7	
268.27	4992.9	
268.48	5083.1	
268.69	3015.3	
268.9	3418.7	
269.11	5104.2	
269.32	4192.2	
269.53	3019.4	
269.74	2868.5	
269.95	4753.3	
270.16	4228.4	
270.37	3093.8	
270.58	3514.3	
270.79	4538.3	
271	4949.3	
271.21	3265.8	
271.42	3096.5	
271.63	4812	
271.84	4297.3	
272.05	2529.9	
272.26	2825.5	
272.47	4649.6	
272.68	4744.5	
272.89	3031	
273.11	3347.7	
273.32	4477.5	
273.53	5204.6	
273.74	3178.4	
273.95	3212.6	
274.16	4993.6	
274.37	4687.1	
274.58	3307.5	
274.79	2757.2	
275	4785.4	
275.21	5113.8	
275.42	3890.5	
275.63	3403	
275.84	4799.1	
276.05	5852.4	
276.26	3194.1	
276.47	3022.1	
276.68	4579.3	
276.89	5274.9	
277.1	3384.6	
277.31	2717	
277.52	4797	
277.73	5038.7	
277.94	2706.7	
278.15	2959.3	
278.36	4804.5	
278.57	4392.2	
278.78	2971.6	
278.99	3274.7	
279.2	4485.1	
279.41	4348.5	
279.62	3730	
279.83	2795.5	
280.04	5507	
280.25	4339	
280.46	3762.1	
280.67	3056.9	
280.88	4433.9	
281.09	5160.9	
281.3	3187.3	
281.51	3948.5	
281.72	4379.9	
281.93	4934.2	
282.14	2907.4	
282.35	3145	
282.56	5057.8	
282.77	4956.1	
282.98	2998.9	
283.19	3475.4	
283.4	5872.9	
283.61	4574.5	
283.82	2781.1	
284.03	3677.5	
284.24	4797.7	
284.45	5024.3	
284.66	3709.6	
284.87	3519.8	
285.08	5083.1	
285.29	5150	
285.5	2690.3	
285.71	2962.7	
285.92	5037.3	
286.12	5515.2	
286.33	3682.2	
286.54	3005.7	
286.75	4937.7	
286.96	4544.4	
287.17	2824.8	
287.38	3589.4	
287.59	4426.3	
287.8	4455	
288.01	2966.8	
288.22	3293.1	
288.43	4791.6	
288.64	4197.7	
288.85	3479.5	
289.06	3325.9	
289.27	4921.3	
289.48	5203.2	
289.69	3721.8	
289.9	3379.1	
290.11	5136.3	
290.32	4439.3	
290.53	3513.6	
290.74	3235.8	
290.94	4909	
291.15	4932.2	
291.36	2913.6	
291.57	3368.9	
291.78	4508.9	
291.99	4209.3	
292.2	2843.9	
292.41	3267.9	
292.62	5020.9	
292.83	4891.2	
293.04	3960.1	
293.25	2889.7	
293.46	4548.5	
293.67	4997	
293.88	2878.8	
294.09	2841.9	
294.29	4361.5	
294.5	4753.3	
294.71	3069.2	
294.92	2959.3	
295.13	4511.7	
295.34	5417.6	
295.55	2658.9	
295.76	2615.9	
295.97	4948.6	
296.18	5392.3	
296.39	2766.1	
296.6	2889	
296.81	4628.4	
297.01	4960.2	
297.22	3027.6	
297.43	2919	
297.64	4427.7	
297.85	4357.4	
298.06	2519	
298.27	2667.1	
298.48	4624.3	
298.69	4410	
298.9	3094.5	
299.11	2876	
299.31	4308.2	
299.52	4333.5	
299.73	3293.8	
299.94	3274.7	
300.15	4703.5	
300.36	4428.4	
300.57	3189.4	
300.78	3222.1	
300.99	4526.7	
301.2	4704.2	
301.4	2936.8	
301.61	3111.5	
301.82	4889.2	
302.03	4961.5	
302.24	3388.7	
302.45	2772.9	
302.66	4856.4	
302.87	5029.1	
303.08	2897.9	
303.29	3793.5	
303.49	4509.6	
303.7	4571.1	
303.91	2609.1	
304.12	3606.5	
304.33	4181.3	
304.54	4756.7	
304.75	2875.3	
304.96	2808.4	
305.16	4848.2	
305.37	5373.9	
305.58	2609.8	
305.79	2618.7	
306	4838.7	
306.21	4217.5	
306.42	2904	
306.63	4188.8	
306.83	4472.1	
307.04	4885.1	
307.25	3165.5	
307.46	3151.8	
307.67	4155.3	
307.88	4858.5	
308.09	2909.5	
308.29	2958.6	
308.5	4678.9	
308.71	5000.5	
308.92	3075.4	
309.13	2786.6	
309.34	4595.6	
309.55	4515.8	
309.75	3537.5	
309.96	3222.8	
310.17	4904.2	
310.38	4410.6	
310.59	3390.8	
310.8	2698.5	
311.01	4508.9	
311.21	4614.8	
311.42	2835.8	
311.63	2856.9	
311.84	4493.2	
312.05	4672.8	
312.26	3228.3	
312.46	3467.2	
312.67	4515.1	
312.88	4313.7	
313.09	2807.1	
313.3	2805	
313.51	5225.1	
313.71	5405.3	
313.92	2819.4	
314.13	2910.8	
314.34	4798.4	
314.55	4643.4	
314.76	3518.4	
314.96	3134.8	
315.17	4811.4	
315.38	4804.5	
315.59	2833.7	
315.8	2720.4	
316.01	5126.1	
316.21	5245.5	
316.42	2776.4	
316.63	3089.7	
316.84	4548.5	
317.05	5059.8	
317.26	3308.2	
317.46	2980.5	
317.67	4626.4	
317.88	4938.3	
318.09	3435.8	
318.3	2626.9	
318.5	4536.3	
318.71	4807.9	
318.92	4319.2	
319.13	3250.8	
319.34	5003.9	
319.54	5034.6	
319.75	2680.1	
319.96	2561.3	
320.17	4870.1	
320.38	4990.9	
320.58	2620	
320.79	3073.3	
321	5083.1	
321.21	5085.8	
321.42	3091.8	
321.62	2622.1	
321.83	4394.3	
322.04	4698.7	
322.25	2985.9	
322.46	2821.4	
322.66	4741	
322.87	4810.7	
323.08	3370.3	
323.29	2767.5	
323.5	5415.5	
323.7	4345.1	
323.91	3671.3	
324.12	3327.3	
324.33	4694.6	
324.53	4894.6	
324.74	3202.3	
324.95	3427.6	
325.16	4262.5	
325.37	4502.8	
325.57	2809.1	
325.78	2931.3	
325.99	4752	
326.2	4272.1	
326.4	3763.5	
326.61	2656.9	
326.82	4543.1	
327.03	4727.4	
327.24	3859.1	
327.44	3645.4	
327.65	4878.3	
327.86	4083	
328.07	3216.7	
328.27	2721.1	
328.48	5183.4	
328.69	4285	
328.9	3840.6	
329.1	2970.9	
329.31	4608.6	
329.52	5158.2	
329.73	2854.2	
329.93	3091.1	
330.14	4687.1	
330.35	4741.7	
330.56	4384	
330.76	3376.4	
330.97	4562.2	
331.18	4668.7	
331.39	3149.1	
331.59	2567.5	
331.8	5046.2	
332.01	5092.6	
332.22	2897.2	
332.42	3228.3	
332.63	4717.8	
332.84	4423.6	
333.05	3166.8	
333.25	2897.9	
333.46	4488.5	
333.67	4567.7	
333.88	2981.2	
334.08	3194.8	
334.29	5867.4	
334.5	5072.8	
334.7	2813.9	
334.91	3847.5	
335.12	4270.7	
335.33	4834.6	
335.53	3093.1	
335.74	4270.7	
335.95	4535.6	
336.16	4238.6	
336.36	3063.8	
336.57	3474	
336.78	4314.4	
336.98	5022.3	
337.19	3731.4	
337.4	3075.4	
337.61	5460.6	
337.81	4263.9	
338.02	2874	
338.23	3539.6	
338.43	5152	
338.64	4416.1	
338.85	2807.8	
339.05	3652.2	
339.26	5252.4	
339.47	4218.8	
339.68	2867.8	
339.88	4025.6	
340.09	4889.9	
340.3	4994.3	
340.5	3244.7	
340.71	2605	
340.92	4314.4	
341.13	5102.9	
341.33	2709.5	
341.54	3278.1	
341.75	4777.2	
341.95	4468.7	
342.16	3158	
342.37	3327.3	
342.57	4333.5	
342.78	4547.2	
342.99	3360	
343.19	2597.5	
343.4	4929.5	
343.61	4752	
343.81	3047.4	
344.02	2765.4	
344.23	4922.6	
344.43	5152	
344.64	3472.7	
344.85	3355.3	
345.06	4842.1	
345.26	5029.1	
345.47	3221.5	
345.68	3695.2	
345.88	4236.6	
346.09	4947.9	
346.3	3281.5	
346.5	2554.5	
346.71	4517.8	
346.92	4435.2	
347.12	2685.6	
347.33	3224.9	
347.54	5026.4	
347.74	5261.2	
347.95	3206.4	
348.16	2502.6	
348.36	4470	
348.57	4331.5	
348.78	3224.2	
348.98	3373	
349.19	4596.3	
349.39	4229.7	
349.6	2704.7	
349.81	2910.2	
350.01	4870.8	
350.22	4420.2	
350.43	3151.8	
350.63	3625.6	
350.84	4570.4	
351.05	4427.7	
351.25	2830.3	
351.46	2611.8	
351.67	4928.8	
351.87	4375.8	
352.08	3006.4	
352.29	3324.5	
352.49	4893.3	
352.7	4641.4	
352.9	2726.5	
353.11	3393.5	
353.32	5341.8	
353.52	4493.9	
353.73	2773.6	
353.94	3413.3	
354.14	4805.2	
354.35	4616.1	
354.55	2876	
354.76	3069.9	
354.97	4782	
355.17	4551.3	
355.38	2704	
355.59	3537.5	
355.79	4367	
356	4539	
356.2	3038.5	
356.41	2726.5	
356.62	4223.6	
356.82	4565.6	
357.03	3264.5	
357.24	2954.5	
357.44	4343.1	
357.65	4481.6	
357.85	3764.2	
358.06	3112.2	
358.27	4175.8	
358.47	4299.4	
358.68	2646.7	
358.88	3215.3	
359.09	4749.2	
359.3	4950.6	
359.5	3673.4	
359.71	3295.9	
359.91	5228.5	
360.12	4707.6	
360.33	3242.6	
360.53	3568.2	
360.74	4334.9	
360.94	4419.5	
361.15	3356.6	
361.36	2848	
361.56	4943.1	
361.77	4569	
361.97	3713	
362.18	3021.4	
362.38	4938.3	
362.59	4239.3	
362.8	2777	
363	2693.8	
363.21	4095.3	
363.41	4533.5	
363.62	3189.4	
363.83	3820.1	
364.03	4707.6	
364.24	5237.3	
364.44	3916.4	
364.65	3907.5	
364.85	4481.6	
365.06	4252.9	
365.27	2924.5	
365.47	2907.4	
365.68	5156.8	
365.88	4428.4	
366.09	3186.6	
366.29	2957.9	
366.5	4635.9	
366.71	4926	
366.91	3848.8	
367.12	3321.1	
367.32	5403.9	
367.53	4851	
367.73	3333.4	
367.94	3955.3	
368.14	4833.9	
368.35	5318.6	
368.56	3257	
368.76	2828.9	
368.97	4973.8	
369.17	6001.2	
369.38	2923.1	
369.58	3091.8	
369.79	4214.7	
369.99	5152.7	
370.2	3768.9	
370.4	3155.9	
370.61	4623.6	
370.82	5578.7	
371.02	3121.1	
371.23	2646.7	
371.43	4205.8	
371.64	5174.5	
371.84	3138.9	
372.05	3910.9	
372.25	5894.7	
372.46	4859.1	
372.66	3078.8	
372.87	3078.1	
373.07	4861.2	
373.28	5998.5	
373.48	3762.1	
373.69	3568.9	
373.9	4546.5	
374.1	4545.8	
374.31	3784	
374.51	3348.4	
374.72	5103.5	
374.92	4326.7	
375.13	3821.5	
375.33	3285.6	
375.54	4760.2	
375.74	4436.6	
375.95	3405.1	
376.15	4113.7	
376.36	4873.5	
376.56	4708.3	
376.77	3394.2	
376.97	3691.8	
377.18	5609.4	
377.38	4896.7	
377.59	3852.9	
377.79	3072.6	
378	4699.4	
378.2	4957.4	
378.41	3143.6	
378.61	2968.2	
378.82	5082.4	
379.02	4487.1	
379.23	3215.3	
379.43	3934.8	
379.64	5186.8	
379.84	4876.9	
380.05	3107.5	
380.25	3046.7	
380.46	4940.4	
380.66	4598.4	
380.87	3971.7	
381.07	4194.2	
381.28	5281	
381.48	4884.4	
381.69	3105.4	
381.89	3122.5	
382.1	4231.8	
382.3	4996.4	
382.51	3820.1	
382.71	4422.9	
382.91	4887.1	
383.12	5267.4	
383.32	3339.6	
383.53	3501.3	
383.73	4794.3	
383.94	4670.1	
384.14	3576.4	
384.35	2826.2	
384.55	4575.8	
384.76	4917.9	
384.96	3378.5	
385.17	3607.8	
385.37	4922.6	
385.58	4361.5	
385.78	3520.5	
385.98	2812.5	
386.19	4564.2	
386.39	4835.3	
386.6	3198.2	
386.8	3388	
387.01	4880.3	
387.21	4969.7	
387.42	3594.2	
387.62	4003.1	
387.83	4476.2	
388.03	4756.7	
388.23	3444	
388.44	3843.4	
388.64	4364.9	
388.85	4275.5	
389.05	3517.7	
389.26	3977.8	
389.46	5757.5	
389.67	5176.6	
389.87	3618.8	
390.07	3725.3	
390.28	4643.4	
390.48	4351.9	
390.69	3025.5	
390.89	3254.2	
391.1	4582.7	
391.3	5163.6	
391.5	4113.7	
391.71	4488.5	
391.91	5037.3	
392.12	5571.2	
392.32	4224.3	
392.53	3622.9	
392.73	4685.8	
392.93	4659.8	
393.14	3420.1	
393.34	4006.5	
393.55	5013.4	
393.75	4630.5	
393.95	3427.6	
394.16	3350.5	
394.36	4524.6	
394.57	4972.5	
394.77	3027.6	
394.98	3332.7	
395.18	4481.6	
395.38	4605.9	
395.59	3971	
395.79	3192.8	
396	4599.1	
396.2	5005.2	
396.4	3822.9	
396.61	3800.3	
396.81	5083.1	
397.02	4465.9	
397.22	3987.4	
397.42	3992.9	
397.63	5128.1	
397.83	4506.2	
398.04	3170.3	
398.24	3547.1	
398.44	4926	
398.65	4164.2	
398.85	3104	
399.05	3120.4	
399.26	4554.7	
399.46	5704.3	
399.67	3439.2	
399.87	3265.8	
400.07	4780	
400.28	4958.8	
400.48	3269.2	
400.69	4022.2	
400.89	5063.3	
401.09	5422.3	
401.3	3303.4	
401.5	4049.5	
401.7	5577.3	
401.91	5806	
402.11	3526.6	
402.32	3646.7	
402.52	5274.9	
402.72	5108.3	
402.93	3775.8	
403.13	2977.1	
403.33	5785.5	
403.54	4756.7	
403.74	3597.6	
403.94	4215.4	
404.15	4923.3	
404.35	5701.5	
404.56	3459	
404.76	4616.1	
404.96	5185.5	
405.17	5022.3	
405.37	4186.7	
405.57	3795.6	
405.78	5268.1	
405.98	4836.6	
406.18	3442	
406.39	4073.4	
406.59	5150	
406.79	4850.3	
407	3250.8	
407.2	3331.4	
407.4	5400.5	
407.61	5343.2	
407.81	3418.1	
408.01	4643.4	
408.22	4414.7	
408.42	5795.8	
408.62	4158.1	
408.83	3781.2	
409.03	4913.1	
409.23	4819.6	
409.44	3802.4	
409.64	4021.5	
409.84	5599.1	
410.05	5529.5	
410.25	3882.3	
410.45	3766.2	
410.66	5186.1	
410.86	6860.7	
411.06	4109.6	
411.27	3992.2	
411.47	6690	
411.67	5302.2	
411.88	4200.4	
412.08	4307.6	
412.28	5742.5	
412.49	6070.2	
412.69	4056.3	
412.89	4026.3	
413.09	5939.8	
413.3	5911.8	
413.5	4092.5	
413.7	3865.2	
413.91	5419.6	
414.11	5952.1	
414.31	3971	
414.52	4261.1	
414.72	5754.8	
414.92	5699.5	
415.12	3983.3	
415.33	4375.1	
415.53	5919.3	
415.73	6089.3	
415.94	4577.9	
416.14	4180.6	
416.34	5313.8	
416.55	5014.8	
416.75	4997.7	
416.95	4579.9	
417.15	6003.3	
417.36	6447	
417.56	5188.2	
417.76	4568.3	
417.97	6249.7	
418.17	6038.1	
418.37	4210.6	
418.57	4300.7	
418.78	5928.9	
418.98	5651.7	
419.18	4996.4	
419.38	4911.7	
419.59	5618.3	
419.79	5385.5	
419.99	4152.6	
420.2	4403.1	
420.4	6016.9	
420.6	6075.6	
420.8	4160.8	
421.01	4027	
421.21	5911.8	
421.41	5907.7	
421.61	4384.7	
421.82	4189.5	
422.02	5700.2	
422.22	6237.4	
422.42	4706.2	
422.63	4545.1	
422.83	5606	
423.03	6535.1	
423.23	4498.7	
423.44	3822.2	
423.64	5662	
423.84	5461.9	
424.04	4175.1	
424.25	3948.5	
424.45	6297.5	
424.65	6292	
424.85	3753.9	
425.06	4152.6	
425.26	6420.4	
425.46	5593.7	
425.66	4549.2	
425.87	4350.6	
426.07	6108.4	
426.27	6000.5	
426.47	4398.4	
426.67	3971	
426.88	6449.1	
427.08	6020.3	
427.28	4638	
427.48	3902.1	
427.69	5259.9	
427.89	5726.1	
428.09	4613.4	
428.29	3961.5	
428.5	6147.3	
428.7	5901.6	
428.9	3851.5	
429.1	4191.5	
429.3	5855.8	
429.51	6041.5	
429.71	4169	
429.91	4683	
430.11	6094.1	
430.31	6150.1	
430.52	4360.1	
430.72	4513.7	
430.92	6504.3	
431.12	6057.2	
431.32	4072.7	
431.53	4450.9	
431.73	5333.6	
431.93	6488	
432.13	4089.1	
432.33	3992.9	
432.54	5732.3	
432.74	5860.6	
432.94	3920.5	
433.14	4596.3	
433.34	6163.7	
433.55	5758.2	
433.75	4711.7	
433.95	5831.2	
434.15	5967.1	
434.35	5696.8	
434.56	4100	
434.76	3745.1	
434.96	5898.1	
435.16	6105	
435.36	4034.5	
435.56	4870.8	
435.77	5679.7	
435.97	5821	
436.17	5285.1	
436.37	4737.6	
436.57	5649	
436.78	5574.6	
436.98	5411.4	
437.18	5193.6	
437.38	6154.1	
437.58	5819	
437.78	5265.3	
437.99	4422.2	
438.19	6113.9	
438.39	6717.3	
438.59	4353.3	
438.79	3874.8	
438.99	6616.3	
439.2	5772.5	
439.4	3941.7	
439.6	3978.5	
439.8	5917.9	
440	6732.4	
440.2	4745.8	
440.4	4817.5	
440.61	6326.9	
440.81	6690.7	
441.01	4293.2	
441.21	4812.7	
441.41	6683.9	
441.61	6343.2	
441.81	5072.8	
442.02	5700.2	
442.22	6950.8	
442.42	6433.4	
442.62	4384	
442.82	4354	
443.02	6791.7	
443.22	6067.4	
443.43	4612	
443.63	4280.9	
443.83	5834.7	
444.03	5877.7	
444.23	5240.1	
444.43	4854.4	
444.63	6232	
444.83	6961.7	
445.04	4478.9	
445.24	5270.8	
445.44	6452.5	
445.64	6450.4	
445.84	4943.1	
446.04	5013.4	
446.24	5915.9	
446.44	6675.7	
446.65	4339.6	
446.85	4724.7	
447.05	6154.1	
447.25	6617.7	
447.45	4752	
447.65	4264.6	
447.85	6246.3	
448.05	5889.3	
448.25	5031.9	
448.46	4838	
448.66	6277.7	
448.86	5938.4	
449.06	4259.8	
449.26	4986.1	
449.46	6449.7	
449.66	5793.7	
449.86	4721.3	
450.06	4655.7	
450.26	5946.6	
450.47	6356.9	
450.67	4937.7	
450.87	5143.8	
451.07	6573.3	
451.27	6242.2	
451.47	4414.1	
451.67	5019.6	
451.87	6038.8	
452.07	6858	
452.27	4571.7	
452.47	4554.7	
452.67	6324.8	
452.88	6559.6	
453.08	4158.7	
453.28	5515.9	
453.48	7144.7	
453.68	6157.6	
453.88	4602.5	
454.08	4691.2	
454.28	6591.7	
454.48	6285.2	
454.68	5039.4	
454.88	5369.1	
455.08	6714.6	
455.28	6332.3	
455.48	4492.6	
455.68	4898.7	
455.89	7057.3	
456.09	6715.3	
456.29	4730.8	
456.49	4809.3	
456.69	6942.6	
456.89	6389	
457.09	5153.4	
457.29	5414.8	
457.49	6640.2	
457.69	6649.8	
457.89	5043.5	
458.09	4603.2	
458.29	6451.8	
458.49	7025.9	
458.69	5370.5	
458.89	4934.9	
459.09	7135.1	
459.29	7219.1	
459.49	4975.2	
459.69	5601.2	
459.9	6840.2	
460.1	6541.2	
460.3	4912.4	
460.5	4774.5	
460.7	6831.3	
460.9	6544.6	
461.1	4607.9	
461.3	5477.6	
461.5	7337.2	
461.7	7012.9	
461.9	4952	
462.1	5193.6	
462.3	6680.5	
462.5	7093.5	
462.7	4951.3	
462.9	5037.3	
463.1	7886.7	
463.3	7612.3	
463.5	5196.4	
463.7	5887.9	
463.9	6911.9	
464.1	7174.7	
464.3	5294	
464.5	5479.7	
464.7	7352.9	
464.9	7098.3	
465.1	6400.6	
465.3	5795.8	
465.5	7632.8	
465.7	7518.1	
465.9	6024.4	
466.1	5780.1	
466.3	7498.3	
466.5	7352.2	
466.7	6384.9	
466.9	5704.3	
467.1	7533.1	
467.3	8059.4	
467.5	6406.7	
467.7	5703.6	
467.9	8128.4	
468.1	8812.4	
468.3	6152.8	
468.5	6457.2	
468.7	7391.8	
468.9	7324.2	
469.1	5967.8	
469.3	6432.7	
469.5	8766	
469.7	7075.7	
469.9	6279.1	
470.1	5770.5	
470.3	7574.1	
470.5	7464.8	
470.7	6732.4	
470.9	5817.6	
471.1	7331	
471.3	7611.6	
471.5	5768.4	
471.69	6960.4	
471.89	7272.3	
472.09	6834.1	
472.29	6233.3	
472.49	6456.6	
472.69	7032.7	
472.89	7595.2	
473.09	5630.5	
473.29	5688.6	
473.49	7175.4	
473.69	7107.8	
473.89	6324.1	
474.09	5816.2	
474.29	8174.1	
474.49	7881.9	
474.69	6301.6	
474.89	5888.6	
475.09	7257.3	
475.29	7168.6	
475.49	5580.7	
475.69	5646.2	
475.88	8371.4	
476.08	7524.2	
476.28	5508.4	
476.48	5649	
476.68	7864.2	
476.88	7574.1	
477.08	5682.4	
477.28	5889.3	
477.48	7333.1	
477.68	7684	
477.88	5471.5	
478.08	5768.4	
478.28	7971.4	
478.48	7472.4	
478.67	5776.6	
478.87	5393	
479.07	7818.5	
479.27	7403.4	
479.47	5895.4	
479.67	5942.5	
479.87	7752.2	
480.07	8086.1	
480.27	5451	
480.47	6516	
480.67	7491.5	
480.87	7948.2	
481.06	5668.8	
481.26	6290.7	
481.46	7556.3	
481.66	7343.3	
481.86	6005.3	
482.06	6630.6	
482.26	7318.8	
482.46	7841	
482.66	5949.3	
482.86	5692	
483.05	7580.2	
483.25	7103.7	
483.45	7664.9	
483.65	5857.2	
483.85	7226.6	
484.05	7417.7	
484.25	6257.2	
484.45	6558.3	
484.65	7935.9	
484.84	8026.7	
485.04	5951.4	
485.24	5889.3	
485.44	8310.7	
485.64	7071	
485.84	5523.4	
486.04	6389	
486.24	7466.9	
486.44	7627.3	
486.63	5425.8	
486.83	6096.1	
487.03	7315.3	
487.23	7542.7	
487.43	5565.7	
487.63	7139.2	
487.83	7560.4	
488.02	8096.3	
488.22	6214.2	
488.42	6654.5	
488.62	8215.8	
488.82	7385	
489.02	6083.1	
489.22	6017.6	
489.41	8091.5	
489.61	8004.1	
489.81	5844.9	
490.01	5901.6	
490.21	8155.7	
490.41	8578.3	
490.61	5906.3	
490.8	5968.5	
491	7778.2	
491.2	7251.2	
491.4	6324.8	
491.6	5765	
491.8	7787.1	
491.99	7626	
492.19	5613.5	
492.39	5829.9	
492.59	7981.6	
492.79	8135.9	
492.99	6500.3	
493.18	5825.1	
493.38	8204.8	
493.58	8645.8	
493.78	6362.4	
493.98	6053.1	
494.18	7995.3	
494.37	7598	
494.57	6598.6	
494.77	6495.5	
494.97	8211.7	
495.17	8307.2	
495.37	6248.4	
495.56	6504.3	
495.76	8535.3	
495.96	8363.2	
496.16	7275.1	
496.36	6428.6	
496.55	8482	
496.75	8073.8	
496.95	6723.5	
497.15	6698.9	
497.35	8566	
497.54	8471.1	
497.74	6577.4	
497.94	7721.5	
498.14	9001.5	
498.34	8798.1	
498.53	6302.3	
498.73	6931.7	
498.93	8094.3	
499.13	8580.3	
499.33	6815	
499.52	7021.1	
499.72	8630.1	
499.92	8686.1	
500.12	6660.7	
500.32	6893.5	
500.51	8722.3	
500.71	8612.4	
500.91	7316.7	
501.11	7171.3	
501.31	8639	
501.5	9081.4	
501.7	7563.1	
501.9	6883.9	
502.1	8527.7	
502.29	8816.5	
502.49	7201.3	
502.69	7419.1	
502.89	8683.4	
503.09	8710	
503.28	6455.2	
503.48	6595.1	
503.68	8278.6	
503.88	8114.7	
504.07	7224.6	
504.27	6841.6	
504.47	8496.3	
504.67	8520.2	
504.86	7180.2	
505.06	6919.4	
505.26	8278.6	
505.46	9456.8	
505.65	6750.8	
505.85	6968.6	
506.05	8209.6	
506.25	8495.7	
506.44	6389.7	
506.64	6896.2	
506.84	8082	
507.04	8630.8	
507.23	6453.8	
507.43	6946	
507.63	9413.1	
507.83	8121.6	
508.02	6893.5	
508.22	6654.5	
508.42	9599.5	
508.62	8067.6	
508.81	6813.6	
509.01	7178.8	
509.21	7963.9	
509.4	8236.9	
509.6	6867.5	
509.8	6538.5	
510	8225.3	
510.19	9074.5	
510.39	6507.1	
510.59	6511.2	
510.79	8153.6	
510.98	8983.8	
511.18	6745.3	
511.38	6707.1	
511.57	8694.3	
511.77	8469	
511.97	7138.5	
512.17	6545.3	
512.36	8649.9	
512.56	8527.1	
512.76	6460	
512.95	6381.5	
513.15	8786.5	
513.35	7750.2	
513.55	7029.3	
513.74	6510.5	
513.94	8753.7	
514.14	8236.2	
514.33	7237.5	
514.53	6984.3	
514.73	8254.7	
514.92	8317.5	
515.12	6645.7	
515.32	6546	
515.51	8432.9	
515.71	8748.2	
515.91	7729	
516.11	6688.7	
516.3	9547.6	
516.5	8186.4	
516.7	7068.9	
516.89	7412.3	
517.09	8348.2	
517.29	8301.8	
517.48	7431.4	
517.68	6744	
517.88	8147.5	
518.07	8571.4	
518.27	7238.9	
518.47	6488	
518.66	8976.9	
518.86	8125.7	
519.06	6485.9	
519.25	6737.1	
519.45	8189.8	
519.65	9290.3	
519.84	7215	
520.04	7702.4	
520.24	9681.4	
520.43	8695.7	
520.63	7095.5	
520.83	6958.3	
521.02	8267	
521.22	8697.7	
521.42	7232.1	
521.61	7587.7	
521.81	8385.7	
522.01	8533.2	
522.2	7192.5	
522.4	6838.2	
522.6	8937.3	
522.79	7918.1	
522.99	7027.9	
523.18	6591.7	
523.38	8759.8	
523.58	8659.5	
523.77	7924.3	
523.97	6623.1	
524.17	10003	
524.36	9560.6	
524.56	7709.2	
524.76	7404.1	
524.95	8801.5	
525.15	8488.8	
525.34	7301	
525.54	7411.6	
525.74	9196.7	
525.93	8535.3	
526.13	8213	
526.33	7408.9	
526.52	9470.5	
526.72	9106	
526.91	8310.7	
527.11	7753.6	
527.31	9499.8	
527.5	9779.1	
527.7	7761.1	
527.89	7136.5	
528.09	8873.8	
528.29	9280.7	
528.48	8101.8	
528.68	7828	
528.87	9542.9	
529.07	9532.6	
529.27	7829.4	
529.46	7639.6	
529.66	9424.8	
529.85	9701.2	
530.05	7531.7	
530.25	8112	
530.44	10386	
530.64	9291.6	
530.83	7801.4	
531.03	7905.2	
531.23	9823.4	
531.42	9567.4	
531.62	8427.4	
531.81	7892.9	
532.01	9857.6	
532.21	10092	
532.4	7790.5	
532.6	8181	
532.79	10594	
532.99	9962	
533.18	8268.3	
533.38	8856.1	
533.58	9727.9	
533.77	10243	
533.97	8339.3	
534.16	8834.3	
534.36	10466	
534.55	9736	
534.75	8987.9	
534.95	8310	
535.14	10489	
535.34	9831.6	
535.53	8105.2	
535.73	9373.6	
535.92	10873	
536.12	9793.4	
536.31	8241	
536.51	9001.5	
536.71	10253	
536.9	9805	
537.1	8254	
537.29	8464.9	
537.49	10406	
537.68	9835	
537.88	8797.4	
538.07	7986.4	
538.27	10044	
538.46	10570	
538.66	8045.8	
538.86	8410.3	
539.05	10084	
539.25	10327	
539.44	8746.2	
539.64	8314.8	
539.83	10051	
540.03	10598	
540.22	8264.9	
540.42	8258.1	
540.61	10017	
540.81	10162	
541	8571.4	
541.2	9040.4	
541.39	9813.9	
541.59	10049	
541.78	8925.7	
541.98	8199.4	
542.18	9542.9	
542.37	9571.5	
542.57	8463.6	
542.76	8923	
542.96	9602.9	
543.15	10021	
543.35	8456.1	
543.54	7976.8	
543.74	10045	
543.93	9878.7	
544.13	8464.9	
544.32	9080.7	
544.52	10043	
544.71	9570.2	
544.91	7774.1	
545.1	8616.5	
545.3	9529.9	
545.49	9872.6	
545.69	7662.8	
545.88	8126.3	
546.08	10737	
546.27	10321	
546.47	8468.4	
546.66	7914.7	
546.86	10118	
547.05	10433	
547.24	8157.7	
547.44	8062.2	
547.63	9495.1	
547.83	10197	
548.02	8284.7	
548.22	8412.4	
548.41	9266.4	
548.61	10202	
548.8	7978.2	
549	7926.3	
549.19	9730.6	
549.39	10107	
549.58	7820.5	
549.78	8127.7	
549.97	9972.2	
550.17	9498.5	
550.36	8634.9	
550.55	9303.2	
550.75	9555.8	
550.94	10220	
551.14	7810.3	
551.33	8095.6	
551.53	9052.7	
551.72	9813.2	
551.92	8181.6	
552.11	7896.3	
552.31	9910.8	
552.5	9864.4	
552.69	9149	
552.89	7702.4	
553.08	9871.2	
553.28	9631.6	
553.47	7959.1	
553.67	8817.9	
553.86	10217	
554.06	9008.3	
554.25	7417.1	
554.44	7801.4	
554.64	10703	
554.83	10385	
555.03	7780.2	
555.22	7956.4	
555.42	9925.8	
555.61	9706	
555.8	7875.1	
556	8047.2	
556.19	9116.2	
556.39	9930.6	
556.58	7845.8	
556.78	7948.8	
556.97	9635.7	
557.16	9411.1	
557.36	8720.3	
557.55	7614.3	
557.75	8890.2	
557.94	10145	
558.13	7662.8	
558.33	7545.4	
558.52	10032	
558.72	9130.5	
558.91	7615	
559.1	7756.3	
559.3	9056.1	
559.49	8815.1	
559.69	7303.1	
559.88	8008.2	
560.07	9452.7	
560.27	9915.6	
560.46	8150.9	
560.66	8247.2	
560.85	9379.7	
561.04	8745.5	
561.24	7527.7	
561.43	7555	
561.63	8998.1	
561.82	9204.3	
562.01	8572.1	
562.21	7793.9	
562.4	9384.5	
562.59	10096	
562.79	7824.6	
562.98	7477.8	
563.18	9382.4	
563.37	10339	
563.56	8020.5	
563.76	7554.3	
563.95	9111.4	
564.14	9040.4	
564.34	7783	
564.53	7595.2	
564.73	9497.8	
564.92	9587.2	
565.11	7920.9	
565.31	7533.8	
565.5	9917.6	
565.69	9043.1	
565.89	7678.5	
566.08	7916.1	
566.27	9744.9	
566.47	10021	
566.66	8236.9	
566.85	7370.6	
567.05	9558.6	
567.24	9095	
567.44	7564.5	
567.63	8435.6	
567.82	9613.8	
568.02	9362.6	
568.21	7535.2	
568.4	7862.8	
568.6	9316.9	
568.79	9260.2	
568.98	7487.4	
569.18	7514	
569.37	9387.9	
569.56	10701	
569.76	7815.7	
569.95	8520.2	
570.14	9574.3	
570.34	9591.3	
570.53	7565.2	
570.72	7501	
570.91	9947.7	
571.11	9449.3	
571.3	7845.8	
571.49	8565.3	
571.69	9409.1	
571.88	9035.6	
572.07	8229.4	
572.27	8170	
572.46	9022	
572.65	9735.4	
572.85	7821.2	
573.04	7889.5	
573.23	9946.3	
573.43	9417.9	
573.62	7585.7	
573.81	7976.8	
574	9585.9	
574.2	9254.8	
574.39	7813	
574.58	7899.7	
574.78	10036	
574.97	9519.6	
575.16	8167.3	
575.36	8241.7	
575.55	9970.2	
575.74	9968.1	
575.93	7463.5	
576.13	8447.2	
576.32	9313.5	
576.51	9883.5	
576.71	8066.3	
576.9	8852	
577.09	10104	
577.28	9694.4	
577.48	8174.1	
577.67	7512.6	
577.86	9479.4	
578.05	9749	
578.25	7954.3	
578.44	7991.9	
578.63	9533.3	
578.83	10462	
579.02	7605.5	
579.21	8677.2	
579.4	9676.7	
579.6	9524.4	
579.79	8006.2	
579.98	9617.3	
580.17	9838.4	
580.37	10030	
580.56	7681.2	
580.75	8159.8	
580.94	10087	
581.14	10154	
581.33	8467	
581.52	7845.8	
581.71	9824.8	
581.91	10294	
582.1	7663.5	
582.29	7911.3	
582.48	9604.3	
582.68	9558.6	
582.87	8263.6	
583.06	8075.1	
583.25	9861	
583.45	9290.3	
583.64	8623.3	
583.83	8967.4	
584.02	9571.5	
584.21	9787.2	
584.41	8417.8	
584.6	8024.6	
584.79	9590.6	
584.98	10011	
585.18	7742	
585.37	7696.9	
585.56	9361.3	
585.75	9891.7	
585.94	7798	
586.14	8357.1	
586.33	10273	
586.52	9539.4	
586.71	8243.1	
586.91	7914.7	
587.1	9042.5	
587.29	9918.3	
587.48	7843.7	
587.67	7789.8	
587.87	9798.2	
588.06	9555.1	
588.25	8710	
588.44	8191.2	
588.63	9357.9	
588.83	9708.7	
589.02	7804.1	
589.21	7619.1	
589.4	9210.4	
589.59	9115.5	
589.78	7099.6	
589.98	7247.1	
590.17	8787.2	
590.36	9069.1	
590.55	6751.5	
590.74	7245	
590.94	9867.8	
591.13	8834.3	
591.32	7056.6	
591.51	6766.5	
591.7	9097.8	
591.89	8814.5	
592.09	6821.1	
592.28	7165.8	
592.47	8188.5	
592.66	9714.2	
592.85	6888.7	
593.05	7083.9	
593.24	8802.9	
593.43	9337.4	
593.62	7051.2	
593.81	7406.8	
594	8804.9	
594.19	8946.2	
594.39	7013.6	
594.58	7017.7	
594.77	9062.3	
594.96	9319.6	
595.15	6942.6	
595.34	7455.3	
595.54	8884.1	
595.73	8428.1	
595.92	6512.5	
596.11	7188.4	
596.3	9216.5	
596.49	8426.7	
596.68	6990.4	
596.88	7381.6	
597.07	8993.3	
597.26	8279.9	
597.45	6730.3	
597.64	7623.9	
597.83	8421.2	
598.02	8841.1	
598.22	6709.1	
598.41	7258	
598.6	8727.1	
598.79	8318.8	
598.98	6834.1	
599.17	7555.6	
599.36	8756.4	
599.55	9431.6	
599.74	8212.4	
599.94	8078.6	
600.13	9163.3	
600.32	8234.9	
600.51	6673.6	
600.7	6689.3	
600.89	9583.8	
601.08	9528.5	
601.27	6565.8	
601.47	7233.4	
601.66	8934.6	
601.85	9428.8	
602.04	7003.4	
602.23	7180.9	
602.42	8402.8	
602.61	8800.1	
602.8	6983.6	
602.99	6813.6	
603.18	8535.3	
603.37	8741.4	
603.57	7139.2	
603.76	7558.4	
603.95	9270.5	
604.14	8776.9	
604.33	6864.8	
604.52	7073.7	
604.71	8741.4	
604.9	8349.6	
605.09	7346.7	
605.28	7280.5	
605.47	9187.9	
605.66	8862.2	
605.86	7303.7	
606.05	6871.6	
606.24	9120.3	
606.43	8088.8	
606.62	7124.9	
606.81	7604.8	
607	9035.6	
607.19	8401.5	
607.38	6690.7	
607.57	6812.9	
607.76	8249.9	
607.95	7969.3	
608.14	7064.8	
608.33	7419.1	
608.52	8333.9	
608.72	9050.7	
608.91	6524.8	
609.1	6503	
609.29	8486.1	
609.48	7973.4	
609.67	7088.7	
609.86	6516.6	
610.05	8086.1	
610.24	8347.5	
610.43	6432.7	
610.62	6151.4	
610.81	9107.3	
611	8938	
611.19	6511.9	
611.38	6969.9	
611.57	8458.1	
611.76	9338.7	
611.95	6379.4	
612.14	6238.8	
612.33	8338	
612.52	8010.3	
612.71	6715.3	
612.9	6196.5	
613.09	7821.9	
613.28	9391.3	
613.47	6610.2	
613.66	7100.3	
613.85	8449.2	
614.04	7968	
614.24	6580.1	
614.43	6057.9	
614.62	8609	
614.81	8501.1	
615	6935.8	
615.19	6873.7	
615.38	8035.5	
615.57	8277.9	
615.76	6870.9	
615.95	7556.3	
616.14	8568.7	
616.33	8293.6	
616.52	7049.1	
616.71	7116	
616.9	8494.3	
617.09	8426.7	
617.28	6632.7	
617.47	7432.8	
617.66	7880.6	
617.85	7888.1	
618.04	7233.4	
618.22	6842.3	
618.41	8148.9	
618.6	8774.2	
618.79	6814.3	
618.98	6686.6	
619.17	8974.2	
619.36	7787.7	
619.55	6789	
619.74	6748.1	
619.93	8512	
620.12	8045.1	
620.31	7182.9	
620.5	7279.2	
620.69	8918.2	
620.88	9147.6	
621.07	7767.3	
621.26	7156.3	
621.45	8693.6	
621.64	8736	
621.83	7273.7	
622.02	6632	
622.21	8753.7	
622.4	8639	
622.59	7574.1	
622.78	7388.4	
622.97	8318.8	
623.16	8888.2	
623.35	7262.1	
623.54	6669.6	
623.72	8439	
623.91	8488.8	
624.1	7415	
624.29	6534.4	
624.48	9336	
624.67	8750.3	
624.86	7294.9	
625.05	6680.5	
625.24	9427.5	
625.43	8245.8	
625.62	8449.9	
625.81	6810.9	
626	8940.1	
626.19	8442.4	
626.38	7341.3	
626.56	6928.3	
626.75	8399.4	
626.94	8796.7	
627.13	7372	
627.32	6477	
627.51	8845.2	
627.7	9585.9	
627.89	6591	
628.08	7340.6	
628.27	8236.9	
628.46	8383.7	
628.65	6731.7	
628.83	6548.7	
629.02	8834.3	
629.21	8269	
629.4	7060.7	
629.59	7146	
629.78	8263.6	
629.97	8824.7	
630.16	7204.8	
630.35	6813.6	
630.54	9293	
630.72	8978.3	
630.91	6811.5	
631.1	7210.2	
631.29	8538.7	
631.48	8649.3	
631.67	7314	
631.86	6871.6	
632.05	8426	
632.24	8464.9	
632.42	6688.7	
632.61	7101	
632.8	8381.7	
632.99	8183	
633.18	7124.9	
633.37	7308.5	
633.56	8621.9	
633.75	8525.7	
633.93	7165.2	
634.12	6894.8	
634.31	9255.5	
634.5	8873.2	
634.69	6947.4	
634.88	7243	
635.07	8493.6	
635.25	8863.6	
635.44	7484.6	
635.63	7706.5	
635.82	8427.4	
636.01	7838.9	
636.2	7442.3	
636.39	7118.7	
636.57	9238.4	
636.76	8703.2	
636.95	6799.9	
637.14	7576.8	
637.33	8684.8	
637.52	9207.7	
637.7	6534.4	
637.89	7368.6	
638.08	8327	
638.27	9267.1	
638.46	7337.9	
638.65	7519.5	
638.83	9318.9	
639.02	8214.4	
639.21	7237.5	
639.4	7491.5	
639.59	8492.9	
639.78	8303.8	
639.96	6635.4	
640.15	6640.9	
640.34	8463.6	
640.53	8501.8	
640.72	6510.5	
640.91	6727.6	
641.09	7918.8	
641.28	8871.8	
641.47	6696.2	
641.66	7282.6	
641.85	8454	
642.03	8529.8	
642.22	7041.6	
642.41	6696.2	
642.6	8031.5	
642.79	7638.9	
642.97	6598.6	
643.16	6940.6	
643.35	8006.2	
643.54	7785	
643.73	6480.5	
643.91	6981.5	
644.1	7634.8	
644.29	8095.6	
644.48	6507.1	
644.67	6438.1	
644.85	7787.1	
645.04	8093.6	
645.23	6202.6	
645.42	6385.6	
645.6	7719.5	
645.79	8482.7	
645.98	6328.9	
646.17	5608	
646.36	7505.8	
646.54	7783.6	
646.73	6776	
646.92	6048.3	
647.11	7532.4	
647.29	8211	
647.48	6030.6	
647.67	5846.3	
647.86	8391.9	
648.05	8337.3	
648.23	6186.9	
648.42	7154.2	
648.61	7931.1	
648.8	7842.4	
648.98	5945.3	
649.17	6182.1	
649.36	7370	
649.55	7174	
649.73	5989.6	
649.92	6476.4	
650.11	7361.8	
650.3	7669.6	
650.48	5977.3	
650.67	5868.1	
650.86	7805.5	
651.05	7033.4	
651.23	5984.2	
651.42	5967.8	
651.61	7439.6	
651.79	7386.3	
651.98	6168.5	
652.17	5839.4	
652.36	7647.8	
652.54	7025.2	
652.73	5846.3	
652.92	5773.9	
653.11	7656	
653.29	7758.4	
653.48	5373.2	
653.67	6072.2	
653.85	7471	
654.04	8277.9	
654.23	6097.5	
654.42	5823.7	
654.6	7083.2	
654.79	7572	
654.98	5431.9	
655.16	5823.7	
655.35	6798.6	
655.54	6618.4	
655.73	5423.7	
655.91	5222.3	
656.1	7380.9	
656.29	6609.5	
656.47	5018.9	
656.66	6250.4	
656.85	6923.5	
657.03	6888	
657.22	5478.3	
657.41	5506.3	
657.59	7008.8	
657.78	6919.4	
657.97	5281	
658.16	5759.6	
658.34	7458	
658.53	7722.2	
658.72	6386.9	
658.9	6734.4	
659.09	7213.6	
659.28	7161.1	
659.46	5541.1	
659.65	5550.7	
659.84	6885.3	
660.02	7363.1	
660.21	5596.4	
660.4	5457.2	
660.58	7577.5	
660.77	7155.6	
660.96	5926.1	
661.14	5214.8	
661.33	7935.9	
661.52	7856	
661.7	5160.9	
661.89	7572.7	
662.08	6801.3	
662.26	6451.8	
662.45	5300.1	
662.64	5533.6	
662.82	7389.8	
663.01	6795.2	
663.2	5521.3	
663.38	5985.5	
663.57	7259.4	
663.75	7131.7	
663.94	5668.1	
664.13	6546	
664.31	6844.3	
664.5	7322.2	
664.69	5884.5	
664.87	6203.3	
665.06	6665.5	
665.25	7154.9	
665.43	6294.8	
665.62	6405.4	
665.8	7271.7	
665.99	6914.6	
666.18	5711.1	
666.36	5670.8	
666.55	7317.4	
666.74	7231.4	
666.92	5425.1	
667.11	6445.6	
667.29	6926.2	
667.48	7281.9	
667.67	6144.6	
667.85	5596.4	
668.04	6822.5	
668.22	6830	
668.41	5709.1	
668.6	5842.2	
668.78	6735.8	
668.97	6872.3	
669.15	5917.9	
669.34	5083.7	
669.53	6727.6	
669.71	6982.9	
669.9	5350.7	
670.08	5706.3	
670.27	6649.1	
670.46	7150.8	
670.64	5916.6	
670.83	6025.8	
671.01	6541.2	
671.2	6962.4	
671.38	5331.5	
671.57	5248.3	
671.76	7501.7	
671.94	7874.4	
672.13	5264	
672.31	5979.4	
672.5	7232.1	
672.69	6747.4	
672.87	5376.6	
673.06	5522.7	
673.24	7070.3	
673.43	6802	
673.61	5849	
673.8	5543.9	
673.98	7148.1	
674.17	7218.4	
674.36	5969.1	
674.54	5885.9	
674.73	6903.7	
674.91	7221.1	
675.1	5601.2	
675.28	5308.3	
675.47	6804	
675.65	7169.9	
675.84	5491.3	
676.03	5793	
676.21	6720.1	
676.4	6295.5	
676.58	6039.5	
676.77	5959.6	
676.95	7763.8	
677.14	6638.1	
677.32	5213.4	
677.51	5134.9	
677.69	7251.9	
677.88	6487.3	
678.06	5185.5	
678.25	5334.3	
678.44	6837.5	
678.62	6599.2	
678.81	5133.6	
678.99	5763.7	
679.18	7394.5	
679.36	7031.4	
679.55	5491.3	
679.73	5917.9	
679.92	7117.4	
680.1	6679.8	
680.29	6294.1	
680.47	5453.1	
680.66	6701.6	
680.84	7251.9	
681.03	5115.1	
681.21	5836.7	
681.4	6677.7	
681.58	6625.9	
681.77	5341.8	
681.95	5303.6	
682.14	7308.5	
682.32	7482.6	
682.51	5999.9	
682.69	5126.1	
682.88	6640.2	
683.06	6995.9	
683.25	5756.2	
683.43	6034	
683.62	6876.4	
683.8	7184.3	
683.99	6131.6	
684.17	5557.5	
684.36	7719.5	
684.54	6760.3	
684.73	5122	
684.91	5140.4	
685.1	6937.2	
685.28	6494.1	
685.46	5558.9	
685.65	5436.7	
685.83	7073	
686.02	6546.7	
686.2	5111.7	
686.39	5166.3	
686.57	6278.4	
686.76	7456	
686.94	5165.7	
687.13	5208.7	
687.31	6917.4	
687.5	6640.2	
687.68	4904.2	
687.86	5800.5	
688.05	7926.3	
688.23	6313.9	
688.42	5693.4	
688.6	5262.6	
688.79	6645.7	
688.97	6612.9	
689.16	5579.3	
689.34	4873.5	
689.52	7152.9	
689.71	7347.4	
689.89	5783.5	
690.08	5322.7	
690.26	6965.8	
690.45	6729.6	
690.63	5939.8	
690.81	5500.8	
691	6892.1	
691.18	6729.6	
691.37	5502.2	
691.55	7096.2	
691.74	6664.1	
691.92	8055.3	
692.1	5593	
692.29	5266.7	
692.47	6853.9	
692.66	6405.4	
692.84	5360.9	
693.02	5757.5	
693.21	6538.5	
693.39	6924.9	
693.58	5816.9	
693.76	5414.1	
693.94	7704.5	
694.13	7545.4	
694.31	5513.8	
694.5	6332.3	
694.68	6683.9	
694.86	7121.5	
695.05	5841.5	
695.23	5879	
695.42	7419.1	
695.6	9037	
695.78	6335.1	
695.97	5751.4	
696.15	7553.6	
696.34	7025.9	
696.52	5515.2	
696.7	6156.9	
696.89	7253.9	
697.07	6810.9	
697.25	6052.4	
697.44	7023.9	
697.62	7304.4	
697.81	7511.3	
697.99	5918.6	
698.17	6244.3	
698.36	6916	
698.54	7340.6	
698.72	6196.5	
698.91	5464	
699.09	7106.5	
699.28	6940.6	
699.46	5994.4	
699.64	5778	
699.83	6969.2	
700.01	7664.9	
700.19	6473.6	
700.38	5359.5	
700.56	7794.6	
700.74	7047.1	
700.93	5617.6	
701.11	6259.3	
701.29	7555.6	
701.48	8268.3	
701.66	5843.5	
701.84	5967.8	
702.03	7365.9	
702.21	7838.9	
702.39	5643.5	
702.58	6072.9	
702.76	7638.9	
702.94	7694.2	
703.13	5656.5	
703.31	7350.2	
703.49	7192.5	
703.68	8298.4	
703.86	5861.3	
704.04	6552.8	
704.23	7512.6	
704.41	7774.1	
704.59	6051.1	
704.78	6775.4	
704.96	8701.8	
705.14	7856	
705.33	5793.7	
705.51	6357.6	
705.69	7477.8	
705.87	8133.2	
706.06	6650.4	
706.24	5843.5	
706.42	7772	
706.61	7879.9	
706.79	6597.2	
706.97	5890	
707.16	7347.4	
707.34	7783.6	
707.52	6675	
707.7	6139.8	
707.89	7454.6	
708.07	7276.4	
708.25	6629.3	
708.44	6821.1	
708.62	7431.4	
708.8	8153.6	
708.98	6814.3	
709.17	6093.4	
709.35	7761.1	
709.53	7743.4	
709.72	6038.8	
709.9	6037.4	
710.08	8018.5	
710.26	7919.5	
710.45	7104.4	
710.63	6141.9	
710.81	7699	
710.99	7704.5	
711.18	6601.3	
711.36	6262	
711.54	7551.5	
711.72	8072.4	
711.91	6358.3	
712.09	5914.5	
712.27	7692.9	
712.45	8402.1	
712.64	6427.2	
712.82	5781.4	
713	7312.6	
713.18	7422.5	
713.37	5758.9	
713.55	6550.1	
713.73	7968.6	
713.91	6852.5	
714.1	5909.1	
714.28	5576.6	
714.46	7509.2	
714.64	6890	
714.83	5065.3	
715.01	5511.8	
715.19	6846.4	
715.37	6295.5	
715.55	5222.3	
715.74	5408.7	
715.92	7317.4	
716.1	5884.5	
716.28	6184.9	
716.47	5502.2	
716.65	6481.8	
716.83	6479.8	
717.01	5324.7	
717.19	5390.9	
717.38	7826	
717.56	6184.9	
717.74	5521.3	
717.92	4919.2	
718.1	7028.6	
718.29	6651.8	
718.47	4737	
718.65	5223	
718.83	7177.4	
719.01	7101	
719.2	4844.1	
719.38	5710.4	
719.56	7086.7	
719.74	8090.2	
719.92	5350.7	
720.11	6121.4	
720.29	7160.4	
720.47	6518	
720.65	5002.5	
720.83	5617.6	
721.02	6624.5	
721.2	6505.7	
721.38	5500.8	
721.56	5004.6	
721.74	6097.5	
721.92	6092	
722.11	5827.8	
722.29	5615.5	
722.47	7095.5	
722.65	6391.7	
722.83	4981.3	
723.01	5545.9	
723.2	6442.2	
723.38	6707.8	
723.56	4582.7	
723.74	5397.1	
723.92	6127.5	
724.1	6961.7	
724.29	4921.3	
724.47	5773.2	
724.65	6313.9	
724.83	6102.3	
725.01	4848.2	
725.19	5406.6	
725.37	6136.4	
725.56	6197.2	
725.74	4819.6	
725.92	4986.1	
726.1	6176.7	
726.28	6441.5	
726.46	5182	
726.64	5027.8	
726.83	6397.2	
727.01	6525.5	
727.19	4751.3	
727.37	5404.6	
727.55	6510.5	
727.73	6869.6	
727.91	4739.7	
728.09	4696	
728.28	6812.9	
728.46	6894.1	
728.64	5451	
728.82	5369.1	
729	7533.8	
729.18	7107.1	
729.36	4818.2	
729.54	6440.2	
729.72	7804.8	
729.91	6680.5	
730.09	6232	
730.27	5405.3	
730.45	6653.2	
730.63	7049.8	
730.81	5844.9	
730.99	5245.5	
731.17	7549.5	
731.35	6485.9	
731.53	5575.3	
731.71	5280.3	
731.9	7249.1	
732.08	7318.8	
732.26	5487.2	
732.44	5186.8	
732.62	7357	
732.8	7084.6	
732.98	5690.6	
733.16	5079	
733.34	7014.3	
733.52	6066.8	
733.7	5379.3	
733.88	5581.4	
734.07	6819.1	
734.25	6666.8	
734.43	5079	
734.61	6085.2	
734.79	7761.8	
734.97	6611.5	
735.15	5056.4	
735.33	5301.5	
735.51	6913.9	
735.69	6590.4	
735.87	5984.8	
736.05	5376.6	
736.23	6735.8	
736.41	6496.8	
736.59	5247.6	
736.77	5344.5	
736.95	7062.8	
737.13	6595.8	
737.32	5046.2	
737.5	5221	
737.68	7408.2	
737.86	6486.6	
738.04	4948.6	
738.22	6230.6	
738.4	6340.5	
738.58	6583.5	
738.76	5336.3	
738.94	4597	
739.12	6420.4	
739.3	6391	
739.48	5752.7	
739.66	5473.5	
739.84	6652.5	
740.02	6539.8	
740.2	4734.2	
740.38	4807.3	
740.56	6859.3	
740.74	5913.2	
740.92	5371.1	
741.1	5187.5	
741.28	6401.3	
741.46	6201.2	
741.64	4989.5	
741.82	5277.6	
742	6458.6	
742.18	6279.8	
742.36	5145.2	
742.54	4824.3	
742.72	6811.5	
742.9	5862	
743.08	5319.9	
743.26	4498	
743.44	6863.4	
743.62	6660.7	
743.8	5454.4	
743.98	4784.7	
744.16	6524.1	
744.34	6275	
744.52	5359.5	
744.7	5270.1	
744.88	6545.3	
745.06	6181.5	
745.24	5268.1	
745.42	5319.3	
745.6	6637.5	
745.78	6486.6	
745.96	4483	
746.14	4654.4	
746.32	7135.8	
746.5	6374	
746.68	4996.4	
746.86	4599.1	
747.03	6704.4	
747.21	5606.7	
747.39	4986.1	
747.57	4556	
747.75	6150.7	
747.93	6442.9	
748.11	4612	
748.29	4564.9	
748.47	7394.5	
748.65	5980.8	
748.83	5026.4	
749.01	4848.2	
749.19	6376.7	
749.37	5741.8	
749.55	4764.3	
749.73	4858.5	
749.91	6173.3	
750.09	5935	
750.26	4906.9	
750.44	4418.2	
750.62	6052.4	
750.8	6012.2	
750.98	4438.6	
751.16	4536.3	
751.34	6142.5	
751.52	5720.7	
751.7	5094.7	
751.88	4241.3	
752.06	6468.9	
752.24	6216.3	
752.42	4246.8	
752.59	4461.8	
752.77	6072.9	
752.95	6902.3	
753.13	4967.7	
753.31	4632.5	
753.49	5824.4	
753.67	6051.1	
753.85	4756.1	
754.03	4415.4	
754.21	6275	
754.38	6487.3	
754.56	4514.4	
754.74	3806.5	
754.92	5638.7	
755.1	5940.5	
755.28	3725.3	
755.46	3691.1	
755.64	6516	
755.82	6509.1	
755.99	3828.3	
756.17	3748.5	
756.35	4595	
756.53	5623	
756.71	2911.5	
756.89	3519.8	
757.07	5279.7	
757.25	4718.5	
757.42	3945.8	
757.6	4534.9	
757.78	5479	
757.96	4737.6	
758.14	3749.8	
758.32	3460.4	
758.5	4439.3	
758.67	5117.2	
758.85	3639.9	
759.03	3737.5	
759.21	5150.6	
759.39	4758.8	
759.57	3375.7	
759.75	4156	
759.92	5674.2	
760.1	5276.3	
760.28	4384.7	
760.46	4639.3	
760.64	5098.1	
760.82	4942.4	
760.99	4347.2	
761.17	3812.6	
761.35	5632.6	
761.53	4876.9	
761.71	3960.8	
761.89	4391.5	
762.06	5630.5	
762.24	5192.3	
762.42	4076.8	
762.6	3915.7	
762.78	5273.5	
762.96	5682.4	
763.13	4280.3	
763.31	4029.7	
763.49	5753.4	
763.67	5215.5	
763.85	4702.1	
764.02	5005.2	
764.2	6010.1	
764.38	5327.4	
764.56	4007.2	
764.74	4614.1	
764.91	6036	
765.09	5211.4	
765.27	3783.3	
765.45	3649.5	
765.63	6098.9	
765.8	5909.1	
765.98	3466.5	
766.16	3705.5	
766.34	4929.5	
766.52	4801.1	
766.69	4239.3	
766.87	3507.5	
767.05	5285.8	
767.23	5726.8	
767.41	3736.9	
767.58	3934.8	
767.76	5595.7	
767.94	5689.3	
768.12	3758.7	
768.29	4233.2	
768.47	5216.2	
768.65	5721.3	
768.83	3538.2	
769	4256.4	
769.18	4929.5	
769.36	5378.6	
769.54	4287.8	
769.72	3489.1	
769.89	5633.3	
770.07	5626.5	
770.25	3745.1	
770.43	4625	
770.6	6141.9	
770.78	6393.1	
770.96	3830.4	
771.14	4254.3	
771.31	5583.4	
771.49	5054.4	
771.67	3263.1	
771.85	3347.1	
772.02	4545.8	
772.2	5029.8	
772.38	3925.3	
772.55	3527.3	
772.73	5251	
772.91	5040.7	
773.09	3810.6	
773.26	3883.6	
773.44	5193	
773.62	4986.8	
773.8	3484.3	
773.97	3325.2	
774.15	5255.1	
774.33	5018.2	
774.5	3382.6	
774.68	3657.7	
774.86	5327.4	
775.04	4947.2	
775.21	3424.2	
775.39	3379.8	
775.57	5083.1	
775.74	5386.2	
775.92	3258.3	
776.1	3175	
776.27	5143.8	
776.45	5974.6	
776.63	3375.1	
776.81	3123.8	
776.98	4841.4	
777.16	5588.2	
777.34	3453.6	
777.51	3736.2	
777.69	4881	
777.87	4666	
778.04	3614.7	
778.22	3885.7	
778.4	4661.9	
778.57	5167.7	
778.75	3027.6	
778.93	3199.6	
779.1	4575.8	
779.28	4392.9	
779.46	3017.3	
779.64	3284.3	
779.81	5231.9	
779.99	5849.7	
780.17	3876.8	
780.34	3916.4	
780.52	4858.5	
780.69	5051.7	
780.87	3510.2	
781.05	3192.8	
781.22	4945.2	
781.4	4925.4	
781.58	3343	
781.75	2736.1	
781.93	4915.8	
782.11	4443.4	
782.28	3915.7	
782.46	3301.3	
782.64	4375.1	
782.81	5007.3	
782.99	3444.7	
783.17	3320.4	
783.34	4930.8	
783.52	4424.3	
783.69	3429.7	
783.87	4027	
784.05	4533.5	
784.22	4505.5	
784.4	3999.7	
784.58	3540.9	
784.75	5157.5	
784.93	4595	
785.1	3348.4	
785.28	3689.8	
785.46	4917.2	
785.63	4433.9	
785.81	3325.2	
785.99	3136.1	
786.16	4640.7	
786.34	4829.8	
786.51	3199.6	
786.69	3504.1	
786.87	4280.3	
787.04	4575.2	
787.22	3069.9	
787.39	3776.5	
787.57	4463.2	
787.75	5208.7	
787.92	3908.2	
788.1	3796.9	
788.27	4382	
788.45	4205.2	
788.63	3627	
788.8	2726.5	
788.98	4823	
789.15	4124.6	
789.33	2882.9	
789.5	3271.3	
789.68	5038	
789.86	5124	
790.03	3532.1	
790.21	3138.2	
790.38	5104.9	
790.56	4560.8	
790.73	3089.7	
790.91	3039.9	
791.09	4427.7	
791.26	4941.1	
791.44	3306.8	
791.61	2939.5	
791.79	4474.8	
791.96	4404.5	
792.14	2945.7	
792.32	2639.1	
792.49	4435.2	
792.67	4504.2	
792.84	3020.8	
793.02	2829.6	
793.19	4731.5	
793.37	5235.3	
793.54	2629.6	
793.72	2912.9	
793.89	5259.2	
794.07	4386.1	
794.25	3315.7	
794.42	2753.8	
794.6	5158.8	
794.77	4813.4	
794.95	3520.5	
795.12	3078.8	
795.3	4440.7	
795.47	4797	
795.65	3371	
795.82	3220.1	
796	4272.1	
796.17	5541.1	
796.35	3158.7	
796.52	3622.9	
796.7	4825	
796.87	4807.3	
797.05	3136.1	
797.22	3740.3	
797.4	4874.2	
797.57	5485.1	
797.75	3327.9	
797.92	3099.9	
798.1	5085.1	
798.27	4218.8	
798.45	2755.9	
798.62	2897.2	
798.8	4631.1	
798.97	4999.1	
799.15	3377.8	
799.32	3256.3	
799.5	4108.2	
799.67	4569.7	
799.85	3495.9	
800.02	2665.1	
800.2	4377.9	
800.37	4539	
800.55	3593.5	
800.72	3123.2	
800.9	4925.4	
801.07	5177.3	
801.25	4060.4	
801.42	3340.2	
801.6	5021.6	
801.77	4620.9	
801.95	3104.7	
802.12	3011.9	
802.29	4782	
802.47	4674.1	
802.64	3422.8	
802.82	2659.6	
802.99	4359.4	
803.17	5023.7	
803.34	3260.4	
803.52	2977.1	
803.69	5472.2	
803.87	4216.8	
804.04	3287	
804.21	3230.3	
804.39	5181.4	
804.56	4486.4	
804.74	2792.7	
804.91	3309.5	
805.09	4351.9	
805.26	4341	
805.44	2871.3	
805.61	3063.1	
805.78	4872.8	
805.96	4809.3	
806.13	3336.1	
806.31	3585.3	
806.48	3994.9	
806.66	4349.2	
806.83	3390.8	
807	3303.4	
807.18	4394.9	
807.35	4610.7	
807.53	3152.5	
807.7	2721.1	
807.87	5160.9	
808.05	4360.1	
808.22	3547.8	
808.4	2685.6	
808.57	4300.1	
808.74	4088.4	
808.92	3014.6	
809.09	3680.2	
809.27	4401.1	
809.44	4737	
809.61	2689	
809.79	2953.9	
809.96	5254.4	
810.14	4828.4	
810.31	2620.7	
810.48	3162.7	
810.66	4405.2	
810.83	4891.2	
811.01	3018.7	
811.18	3298.6	
811.35	4908.3	
811.53	3915	
811.7	3519.8	
811.87	3343	
812.05	4418.2	
812.22	4342.4	
812.39	2959.3	
812.57	2801.6	
812.74	4457.7	
812.92	5560.2	
813.09	3176.4	
813.26	3367.5	
813.44	5315.2	
813.61	4302.1	
813.78	2661	
813.96	3420.8	
814.13	4408.6	
814.3	4170.3	
814.48	3703.4	
814.65	3148.4	
814.82	5186.8	
815	4147.1	
815.17	3189.4	
815.34	3791.5	
815.52	4366.3	
815.69	4272.1	
815.87	3215.3	
816.04	3159.3	
816.21	4341.7	
816.38	3984	
816.56	3102	
816.73	2988.7	
816.9	5360.2	
817.08	4867.3	
817.25	2947.7	
817.42	3566.2	
817.6	4074.8	
817.77	4327.4	
817.94	3226.9	
818.12	2830.3	
818.29	4173.8	
818.46	5938.4	
818.64	3039.2	
818.81	2871.9	
818.98	4160.1	
819.16	5586.2	
819.33	3358.7	
819.5	3196.9	
819.67	4596.3	
819.85	5100.8	
820.02	3188.7	
820.19	3350.5	
820.37	4534.9	
820.54	4285	
820.71	3278.8	
820.88	3938.9	
821.06	4525.3	
821.23	4178.5	
821.4	3276.1	
821.58	3244	
821.75	4849.6	
821.92	4450.2	
822.09	2758.6	
822.27	2884.9	
822.44	4353.3	
822.61	4288.4	
822.79	2672.6	
822.96	4851.6	
823.13	4605.2	
823.3	4153.3	
823.48	3058.3	
823.65	2772.3	
823.82	4878.3	
823.99	4055.7	
824.17	3792.8	
824.34	2826.2	
824.51	5507.7	
824.68	4367	
824.86	2965.5	
825.03	3226.2	
825.2	4382.7	
825.37	5076.9	
825.55	2917.7	
825.72	3173.7	
825.89	5496.7	
826.06	5138.4	
826.24	3141.6	
826.41	3123.2	
826.58	5208	
826.75	4569	
826.92	2606.4	
827.1	2847.4	
827.27	6625.2	
827.44	5411.4	
827.61	2977.1	
827.79	3555.3	
827.96	4276.8	
828.13	4359.4	
828.3	3096.5	
828.47	2690.3	
828.65	4614.8	
828.82	4543.1	
828.99	3848.8	
829.16	3414	
829.34	4912.4	
829.51	4715.8	
829.68	3125.9	
829.85	3201	
830.02	5143.1	
830.2	4918.5	
830.37	2564.1	
830.54	3693.2	
830.71	5412.8	
830.88	4394.3	
831.05	2524.5	
831.23	2927.9	
831.4	5335.6	
831.57	5649.7	
831.74	2933.4	
831.91	2676	
832.09	4678.9	
832.26	4883	
832.43	3013.2	
832.6	3337.5	
832.77	4658.4	
832.94	5128.1	
833.12	2502.6	
833.29	2962	
833.46	4311	
833.63	5810.1	
833.8	3321.1	
833.97	3002.3	
834.15	4943.1	
834.32	4708.3	
834.49	3233.1	
834.66	3194.8	
834.83	4936.3	
835	4235.2	
835.17	2969.6	
835.35	2927.2	
835.52	4799.8	
835.69	4689.2	
835.86	3093.1	
836.03	2602.3	
836.2	4864.6	
836.37	4536.3	
836.55	3024.2	
836.72	2876	
836.89	4560.8	
837.06	4906.9	
837.23	3047.4	
837.4	3283.6	
837.57	5459.9	
837.75	5872.2	
837.92	2805.7	
838.09	2975	
838.26	4595	
838.43	4995	
838.6	3182.5	
838.77	2867.8	
838.94	5573.2	
839.11	5446.2	
839.29	3076.7	
839.46	2416.6	
839.63	4869.4	
839.8	4605.9	
839.97	2942.9	
840.14	2908.1	
840.31	4737	
840.48	4820.9	
840.65	2501.9	
840.82	2933.4	
841	4883	
841.17	4719.9	
841.34	2729.9	
841.51	2848.7	
841.68	4844.8	
841.85	4595	
842.02	2822.8	
842.19	2427.5	
842.36	4762.2	
842.53	4713.1	
842.7	2850.8	
842.87	3274	
843.05	5860.6	
843.22	4556.7	
843.39	2635.7	
843.56	2807.1	
843.73	4478.2	
843.9	4932.9	
844.07	4196.3	
844.24	3530.7	
844.41	6527.6	
844.58	4301.4	
844.75	2686.9	
844.92	2923.1	
845.09	4843.4	
845.26	4756.1	
845.43	2745	
845.6	2883.5	
845.77	4840.7	
845.94	4671.4	
846.12	3064.4	
846.29	3119.1	
846.46	5061.9	
846.63	4803.9	
846.8	2695.1	
846.97	3170.9	
847.14	5122	
847.31	4805.2	
847.48	3089.7	
847.65	3276.1	
847.82	5005.9	
847.99	4960.9	
848.16	3513.6	
848.33	3322.5	
848.5	4473.4	
848.67	5113.8	
848.84	2694.4	
849.01	2848.7	
849.18	4474.1	
849.35	4199.7	
849.52	3300	
849.69	2682.8	
849.86	5009.3	
850.03	5051.7	
850.2	2717.7	
850.37	3265.1	
850.54	5028.4	
850.71	4586.1	
850.88	3241.9	
851.05	2715.6	
851.22	4699.4	
851.39	5121.3	
851.56	2624.8	
851.73	3104.7	
851.9	4331.5	
852.07	5003.9	
852.24	3005.1	
852.41	2747.7	
852.58	4737.6	
852.75	4371.7	
852.92	3004.4	
853.09	2685.6	
853.26	4509.6	
853.43	5129.5	
853.6	2699.2	
853.77	2347	
853.94	5242.8	
854.11	4334.9	
854.28	3853.6	
854.44	2953.2	
854.61	5496.1	
854.78	4999.1	
854.95	2719.7	
855.12	3373	
855.29	4031.1	
855.46	5174.5	
855.63	2718.3	
855.8	3640.6	
855.97	4442	
856.14	5053.7	
856.31	3677.5	
856.48	2899.2	
856.65	4577.2	
856.82	4263.9	
856.99	2646.7	
857.16	2895.1	
857.33	5631.2	
857.49	4610.7	
857.66	2915.6	
857.83	3084.2	
858	4601.8	
858.17	4712.4	
858.34	2631	
858.51	2726.5	
858.68	5292	
858.85	5209.3	
859.02	3121.1	
859.19	3256.3	
859.36	4341	
859.52	4360.8	
859.69	2755.2	
859.86	3144.3	
860.03	4327.4	
860.2	5179.3	
860.37	2517	
860.54	2757.9	
860.71	4974.5	
860.88	5239.4	
861.05	3018.7	
861.21	3362.8	
861.38	5223.7	
861.55	4154	
861.72	2532	
861.89	3005.1	
862.06	5059.2	
862.23	5314.5	
862.4	2615.3	
862.56	2796.2	
862.73	4881.7	
862.9	4642.7	
863.07	3123.2	
863.24	2526.5	
863.41	4261.8	
863.58	4336.2	
863.75	2760	
863.91	3150.5	
864.08	5102.9	
864.25	4932.9	
864.42	3338.2	
864.59	3650.8	
864.76	5437.4	
864.93	4336.2	
865.09	2596.1	
865.26	2897.9	
865.43	5179.3	
865.6	5424.4	
865.77	2410.5	
865.94	2665.1	
866.1	5147.2	
866.27	4914.4	
866.44	3926	
866.61	2658.9	
866.78	4567	
866.95	4898.7	
867.11	2691	
867.28	2467.8	
867.45	5069.4	
867.62	4336.9	
867.79	3119.7	
867.96	2705.4	
868.12	4242.7	
868.29	4925.4	
868.46	2693.8	
868.63	3528.7	
868.8	5008	
868.97	4906.9	
869.13	2864.4	
869.3	2835.1	
869.47	4828.4	
869.64	4986.1	
869.81	2768.9	
869.97	2760.7	
870.14	4741.7	
870.31	5212.1	
870.48	2656.9	
870.65	3367.5	
870.81	4587.4	
870.98	4605.2	
871.15	3050.8	
871.32	2826.2	
871.48	4840.7	
871.65	5236	
871.82	2669.2	
871.99	2979.1	
872.16	5595.7	
872.32	5061.9	
872.49	2766.8	
872.66	2763.4	
872.83	5001.8	
872.99	4414.1	
873.16	3087	
873.33	2736.1	
873.5	4640.7	
873.67	4736.3	
873.83	2880.1	
874	3567.6	
874.17	4807.9	
874.34	5431.2	
874.5	3413.3	
874.67	3274.7	
874.84	5150.6	
875.01	4145.1	
875.17	3663.8	
875.34	2688.3	
875.51	4727.4	
875.68	5541.8	
875.84	3239.9	
876.01	3853.6	
876.18	4955.4	
876.34	4900.8	
876.51	2751.8	
876.68	2658.3	
876.85	4504.2	
877.01	5159.5	
877.18	3773	
877.35	2693.1	
877.52	4742.4	
877.68	4287.8	
877.85	2680.8	
878.02	2680.8	
878.18	4557.4	
878.35	4458.4	
878.52	2264.4	
878.69	3212.6	
878.85	5082.4	
879.02	4932.9	
879.19	3732.8	
879.35	2878.1	
879.52	4895.3	
879.69	4952	
879.86	2437.8	
880.02	3038.5	
880.19	4620.2	
880.36	5388.2	
880.52	3073.3	
880.69	3141.6	
880.86	4980	
881.02	5040.7	
881.19	2963.4	
881.36	2909.5	
881.52	4952	
881.69	4406.5	
881.86	2896.5	
882.02	2813.9	
882.19	5117.2	
882.36	5820.3	
882.52	2838.5	
882.69	3698.6	
882.86	4759.5	
883.02	4734.2	
883.19	3230.3	
883.36	3080.1	
883.52	5005.2	
883.69	5529.5	
883.86	2754.5	
884.02	2529.9	
884.19	4951.3	
884.36	4689.8	
884.52	2998.2	
884.69	2935.4	
884.86	4515.8	
885.02	5336.3	
885.19	3009.1	
885.36	3081.5	
885.52	4569	
885.69	4759.5	
885.86	3794.2	
886.02	3381.2	
886.19	4999.1	
886.35	4457.7	
886.52	2957.3	
886.69	3619.4	
886.85	4347.2	
887.02	5193	
887.19	5193	
887.35	5193	
887.52	5193	
887.68	5193	
887.85	5193	
888.02	5193	
888.18	5193	
888.35	5193	
888.51	5193	
888.68	5193	
888.85	5193	
889.01	5193	
889.18	5193	
889.35	5193	
889.51	5193	
889.68	5193	
889.84	5193	
890.01	5193	
890.17	5193	
890.34	5193	
890.51	5193	
890.67	5193	
890.84	5193	
891	5193	
891.17	5193	
891.34	5193	
891.5	5193	
891.67	5193	
891.83	5193	
892	5193	
892.16	5193	
892.33	5193	
892.5	5193	
892.66	5193	
892.83	5193	
892.99	5193	
893.16	5193	
893.32	5193	
893.49	5193	
893.65	5193	
893.82	5193	
893.99	5193	
894.15	5193	
894.32	5193	
894.48	5193	
894.65	5193	
894.81	5193	
894.98	5193	
895.14	5193	
895.31	5193	
895.47	5193	
895.64	5193	
895.81	5193	
895.97	5193	
896.14	5193	
896.3	5193	
896.47	5193	
896.63	5193	
896.8	5193	
896.96	5193	
897.13	5193	
897.29	5193	
897.46	5193	
897.62	5193	
897.79	5193	
897.95	5193	
898.12	5193	
898.28	5193	
898.45	5193	
898.61	5193	
898.78	5193	
898.94	5193	
899.11	5193	
899.27	5193	
899.44	5193	
899.6	5193	
899.77	5193	
899.93	5193	
900.1	5193	
900.26	5193	
900.43	5193	
900.59	5193	
900.76	5193	
900.92	5193	
901.09	5193	
901.25	5193	
901.42	5193	
901.58	5193	
901.75	5193	
901.91	5193	
902.07	5193	
902.24	5193	
902.4	5193	
902.57	5193	
902.73	5193	
902.9	5193	
903.06	5193	
903.23	5193	
903.39	5193	
903.56	5193	
903.72	5193	
903.88	5193	
904.05	5193	
904.21	5193	
904.38	5193	
904.54	5193	
904.71	5193	
904.87	5193	
905.03	5193	
905.2	5193	
905.36	5193	
905.53	5193	
905.69	5193	
905.86	5193	
906.02	5193	
906.18	5193	
906.35	5193	
906.51	5193	
906.68	5193	
906.84	5193	
907.01	5193	
907.17	5193	
907.33	5193	
907.5	5193	
907.66	5193	
907.83	5193	
907.99	5193	
908.15	5193	
908.32	5193	
908.48	5193	
908.65	5193	
908.81	5193	
908.97	5193	
909.14	5193	
909.3	5193	
909.47	5193	
909.63	5193	
909.79	5193	
909.96	5193	
910.12	5193	
910.28	5193	
910.45	5193	
910.61	5193	
910.78	5193	
910.94	5193	
911.1	5193	
911.27	5193	
911.43	5193	
911.59	5193	
911.76	5193	
911.92	5193	
912.08	5193	
912.25	5193	
912.41	5193	
912.57	5193	
912.74	5193	
912.9	5193	
913.07	5193	
913.23	5193	
913.39	5193	
913.56	5193	
913.72	5193	
913.88	5193	
914.05	5193	
914.21	5193	
914.37	5193	
914.54	5193	
914.7	5193	
914.86	5193	
915.03	5193	
915.19	5193	
