Wavelength	Intensities	
nm	a.u.	
179.22	1914.2	
179.44	1909.4	
179.65	1918.9	
179.86	1899.8	
180.08	1916.2	
180.29	5087.2	
180.51	3628.3	
180.72	5728.9	
180.94	6771.9	
181.15	3322.5	
181.37	3259	
181.58	5617.6	
181.79	5933.6	
182.01	3500	
182.22	3724.6	
182.44	5915.2	
182.65	4908.3	
182.87	4672.1	
183.08	4111.6	
183.29	6171.9	
183.51	5109	
183.72	3786.7	
183.94	5526.8	
184.15	5541.1	
184.37	5583.4	
184.58	3303.4	
184.79	4534.2	
185.01	5096	
185.22	5849	
185.44	4831.2	
185.65	4052.2	
185.86	5367.7	
186.08	4969.7	
186.29	3216	
186.51	3425.6	
186.72	5135.6	
186.94	6029.9	
187.15	4012	
187.36	4087.1	
187.58	7890.8	
187.79	5595.1	
188.01	4327.4	
188.22	6723.5	
188.43	6803.4	
188.65	5895.4	
188.86	3419.4	
189.08	4111	
189.29	5328.1	
189.5	5302.2	
189.72	3855.6	
189.93	3948.5	
190.15	6062.7	
190.36	7351.5	
190.57	4235.9	
190.79	4046.8	
191	6178.7	
191.22	6131.6	
191.43	4246.8	
191.64	3442	
191.86	6408.1	
192.07	6133	
192.29	3608.5	
192.5	3811.3	
192.71	6113.2	
192.93	5258.5	
193.14	3773	
193.35	3943.7	
193.57	5259.9	
193.78	6055.2	
194	3011.9	
194.21	3734.8	
194.42	5019.6	
194.64	5515.9	
194.85	4125.3	
195.07	4836.6	
195.28	5553.4	
195.49	4771.8	
195.71	5182.7	
195.92	3595.6	
196.13	5723.4	
196.35	5820.3	
196.56	5532.2	
196.78	4117.8	
196.99	7268.9	
197.2	6736.5	
197.42	4807.3	
197.63	4118.5	
197.84	4924.7	
198.06	5743.9	
198.27	3861.1	
198.48	5144.5	
198.7	5307	
198.91	5439.4	
199.13	4169	
199.34	4206.5	
199.55	5899.5	
199.77	4815.5	
199.98	3684.3	
200.19	4220.9	
200.41	5299.5	
200.62	5104.2	
200.83	4406.5	
201.05	4663.2	
201.26	5413.5	
201.47	5100.1	
201.69	3680.2	
201.9	3549.8	
202.11	5473.5	
202.33	6485.9	
202.54	3953.3	
202.76	4393.6	
202.97	5624.4	
203.18	5592.3	
203.4	4337.6	
203.61	4273.4	
203.82	5521.3	
204.04	5146.5	
204.25	4209.9	
204.46	4068.6	
204.68	5509.7	
204.89	5754.8	
205.1	4052.2	
205.32	3562.8	
205.53	5939.1	
205.74	6137.8	
205.96	2980.5	
206.17	4303.5	
206.38	5936.4	
206.6	6041.5	
206.81	4795.7	
207.02	3876.1	
207.24	5801.2	
207.45	6140.5	
207.66	3992.9	
207.88	3369.6	
208.09	5702.9	
208.3	5495.4	
208.52	3653.6	
208.73	3939.6	
208.94	5497.4	
209.15	6215.6	
209.37	4035.9	
209.58	4245.4	
209.79	6057.2	
210.01	5290.6	
210.22	3149.8	
210.43	3383.2	
210.65	5526.8	
210.86	5982.1	
211.07	3974.4	
211.29	3575.1	
211.5	5885.9	
211.71	5422.3	
211.93	3579.2	
212.14	3616	
212.35	5424.4	
212.56	5682.4	
212.78	4223.6	
212.99	3401	
213.2	6603.3	
213.42	5289.9	
213.63	3769.6	
213.84	4078.2	
214.06	4836.6	
214.27	4988.2	
214.48	3915	
214.69	4235.9	
214.91	6220.4	
215.12	6303	
215.33	4328.7	
215.55	4734.9	
215.76	6785.6	
215.97	5993	
216.18	4097.3	
216.4	4024.9	
216.61	5251	
216.82	5995.1	
217.04	3629	
217.25	3814.7	
217.46	6206	
217.67	5935.7	
217.89	3201	
218.1	3416	
218.31	5639.4	
218.53	5678.3	
218.74	3888.4	
218.95	3714.3	
219.16	5431.2	
219.38	6448.4	
219.59	3761.4	
219.8	4522.6	
220.01	7208.2	
220.23	5509	
220.44	4915.1	
220.65	3617.4	
220.87	5568.4	
221.08	6097.5	
221.29	3390.1	
221.5	4564.9	
221.72	7595.2	
221.93	5234.6	
222.14	4227	
222.35	4982.7	
222.57	5525.4	
222.78	5843.5	
222.99	3981.9	
223.2	4256.4	
223.42	5824.4	
223.63	5994.4	
223.84	3050.8	
224.05	2972.3	
224.27	7067.5	
224.48	6496.2	
224.69	4966.3	
224.9	4202.4	
225.12	5741.8	
225.33	5480.4	
225.54	3313.6	
225.75	3687	
225.97	5042.1	
226.18	5387.5	
226.39	4032.5	
226.6	3766.9	
226.82	5239.4	
227.03	5180	
227.24	4210.6	
227.45	3462.4	
227.67	5950	
227.88	6490.7	
228.09	4591.5	
228.3	4674.1	
228.52	5958.9	
228.73	5528.2	
228.94	3896.6	
229.15	3435.8	
229.36	5375.2	
229.58	5318.6	
229.79	3896.6	
230	4566.3	
230.21	6557.6	
230.43	5589.6	
230.64	4193.6	
230.85	4289.8	
231.06	5890.6	
231.28	5931.6	
231.49	3459	
231.7	4024.3	
231.91	5905	
232.12	5568.4	
232.34	3488.4	
232.55	4040.6	
232.76	6210.1	
232.97	5658.5	
233.18	3675.4	
233.4	4128.7	
233.61	5749.3	
233.82	5262.6	
234.03	3865.2	
234.25	3760.8	
234.46	7755.7	
234.67	5587.5	
234.88	4263.9	
235.09	3672	
235.31	5859.9	
235.52	5485.1	
235.73	4123.9	
235.94	3528.7	
236.15	5168.4	
236.37	6752.2	
236.58	3664.5	
236.79	4045.4	
237	5818.3	
237.21	5021.6	
237.43	4314.4	
237.64	3372.3	
237.85	10167	
238.06	5083.1	
238.27	4405.2	
238.48	3433.1	
238.7	5868.8	
238.91	5361.6	
239.12	3976.5	
239.33	4003.8	
239.54	5116.5	
239.76	5474.9	
239.97	4022.2	
240.18	3966.2	
240.39	6918.7	
240.6	5844.2	
240.82	4095.3	
241.03	3355.9	
241.24	5477.6	
241.45	6452.5	
241.66	3583.9	
241.87	4328.7	
242.09	6221	
242.3	6634.7	
242.51	4378.6	
242.72	4064.5	
242.93	6067.4	
243.14	5428.5	
243.36	4601.1	
243.57	5015.5	
243.78	6451.8	
243.99	5804.6	
244.2	4016.1	
244.41	3638.6	
244.63	5059.2	
244.84	5876.3	
245.05	4288.4	
245.26	4032.5	
245.47	5791	
245.68	6081.8	
245.9	5353.4	
246.11	4215.4	
246.32	5357.5	
246.53	5768.4	
246.74	6595.8	
246.95	3375.7	
247.16	5025	
247.38	5562.3	
247.59	3318.4	
247.8	4046.1	
248.01	5173.9	
248.22	5453.1	
248.43	3599	
248.64	3854.3	
248.86	4842.8	
249.07	5209.3	
249.28	3528.7	
249.49	4129.4	
249.7	6089.3	
249.91	6252.4	
250.12	3315	
250.34	3325.9	
250.55	5614.8	
250.76	5540.4	
250.97	4151.2	
251.18	4220.9	
251.39	6287.3	
251.6	5767.8	
251.81	4225.6	
252.03	4242.7	
252.24	5223.7	
252.45	6048.3	
252.66	3461.1	
252.87	4416.1	
253.08	5508.4	
253.29	7366.5	
253.5	3422.8	
253.72	4868	
253.93	5388.2	
254.14	6584.9	
254.35	3755.3	
254.56	3943.7	
254.77	5843.5	
254.98	5128.8	
255.19	3790.1	
255.41	4855.1	
255.62	5601.2	
255.83	6281.1	
256.04	4336.2	
256.25	4279.6	
256.46	6634.7	
256.67	5204.6	
256.88	4135.5	
257.09	4653	
257.31	5210	
257.52	5166.3	
257.73	5249.6	
257.94	3779.2	
258.15	5377.3	
258.36	5552	
258.57	4805.9	
258.78	2974.3	
258.99	5982.8	
259.2	5322.7	
259.41	3841.3	
259.63	3923.9	
259.84	6427.9	
260.05	6895.5	
260.26	5098.1	
260.47	3692.5	
260.68	6164.4	
260.89	5396.4	
261.1	4669.4	
261.31	3636.5	
261.52	6128.2	
261.73	6507.8	
261.95	4943.8	
262.16	4309.6	
262.37	6250.4	
262.58	6379.4	
262.79	4879.6	
263	3915.7	
263.21	5522.7	
263.42	4987.5	
263.63	3984	
263.84	3860.4	
264.05	6099.5	
264.26	6542.6	
264.47	4798.4	
264.69	4192.2	
264.9	6170.5	
265.11	5746.6	
265.32	3682.2	
265.53	3801.7	
265.74	5646.9	
265.95	4951.3	
266.16	4102.1	
266.37	4511	
266.58	5674.2	
266.79	5306.3	
267	3792.8	
267.21	3492.5	
267.42	5069.4	
267.63	5500.2	
267.84	4006.5	
268.06	3398.9	
268.27	6068.1	
268.48	6260.6	
268.69	3919.1	
268.9	4635.2	
269.11	6249.7	
269.32	4930.1	
269.53	4017.4	
269.74	3622.9	
269.95	5915.2	
270.16	4833.9	
270.37	4072	
270.58	4665.3	
270.79	5306.3	
271	6048.3	
271.21	4307.6	
271.42	4042	
271.63	5614.8	
271.84	5153.4	
272.05	3158	
272.26	3618.1	
272.47	5535.7	
272.68	5788.9	
272.89	3807.9	
273.11	4449.6	
273.32	5333.6	
273.53	6538.5	
273.74	4377.2	
273.95	4223.6	
274.16	6256.5	
274.37	5562.3	
274.58	4364.9	
274.79	3516.4	
275	5634.6	
275.21	6281.1	
275.42	5296	
275.63	4560.8	
275.84	5769.1	
276.05	7366.5	
276.26	4238.6	
276.47	3926	
276.68	5324	
276.89	6634.7	
277.1	4530.8	
277.31	3512.9	
277.52	5817.6	
277.73	5985.5	
277.94	3430.3	
278.15	3839.9	
278.36	5750	
278.57	5195	
278.78	3806.5	
278.99	4428.4	
279.2	5162.2	
279.41	5072.1	
279.62	5097.4	
279.83	3530	
280.04	6848.4	
280.25	4993.6	
280.46	4992.3	
280.67	4054.3	
280.88	5133.6	
281.09	6232.7	
281.3	4246.8	
281.51	5416.2	
281.72	5219.6	
281.93	6079.1	
282.14	3663.1	
282.35	4033.8	
282.56	6048.3	
282.77	6002.6	
282.98	3843.4	
283.19	4708.3	
283.4	7471	
283.61	5511.1	
283.82	3444	
284.03	5016.2	
284.24	5569.8	
284.45	6224.5	
284.66	5055.8	
284.87	4777.9	
285.08	6099.5	
285.29	6231.3	
285.5	3395.5	
285.71	3992.9	
285.92	6171.9	
286.12	6888	
286.33	4919.2	
286.54	3897.3	
286.75	6059.3	
286.96	5383.4	
287.17	3585.3	
287.38	4892.6	
287.59	5143.1	
287.8	5046.2	
288.01	3977.8	
288.22	4539	
288.43	5705.6	
288.64	5096.7	
288.85	4691.9	
289.06	4450.2	
289.27	5886.5	
289.48	6546.7	
289.69	4956.8	
289.9	4515.8	
290.11	6197.8	
290.32	5268.1	
290.53	4734.9	
290.74	4427	
290.94	6081.1	
291.15	6031.3	
291.36	3779.9	
291.57	4517.1	
291.78	5251	
291.99	4901.5	
292.2	3599.6	
292.41	4354.7	
292.62	6093.4	
292.83	5933.6	
293.04	5440.8	
293.25	3659	
293.46	5356.8	
293.67	6238.1	
293.88	3737.5	
294.09	3605.1	
294.29	5061.9	
294.5	5666	
294.71	4034.5	
294.92	3838.6	
295.13	5315.2	
295.34	6670.2	
295.55	3353.9	
295.76	3616.7	
295.97	5913.9	
296.18	6831.3	
296.39	3530.7	
296.6	3810.6	
296.81	5634.6	
297.01	5926.1	
297.22	3922.5	
297.43	3741.6	
297.64	5089.9	
297.85	5133.6	
298.06	3082.9	
298.27	3352.5	
298.48	5631.2	
298.69	5230.5	
298.9	4024.9	
299.11	3723.9	
299.31	5061.2	
299.52	5016.2	
299.73	4356.7	
299.94	4268.6	
300.15	5474.9	
300.36	5085.8	
300.57	4257	
300.78	4293.9	
300.99	5427.8	
301.2	5691.3	
301.4	3746.4	
301.61	4070.7	
301.82	5901.6	
302.03	5984.2	
302.24	4569.7	
302.45	3542.3	
302.66	5841.5	
302.87	6344.6	
303.08	3796.9	
303.29	5134.9	
303.49	5281.7	
303.7	5610.1	
303.91	3295.2	
304.12	4919.9	
304.33	4971.1	
304.54	5690.6	
304.75	3809.2	
304.96	3585.3	
305.16	5825.1	
305.37	6704.4	
305.58	3289	
305.79	3434.4	
306	5910.4	
306.21	4892.6	
306.42	3711.6	
306.63	5765.7	
306.83	5358.2	
307.04	6192.4	
307.25	4151.2	
307.46	4115.7	
307.67	4720.6	
307.88	6004.6	
308.09	3622.9	
308.29	3844.7	
308.5	5629.2	
308.71	6168.5	
308.92	4022.2	
309.13	3634.5	
309.34	5440.1	
309.55	5465.3	
309.75	4731.5	
309.96	4342.4	
310.17	5983.5	
310.38	5242.8	
310.59	4570.4	
310.8	4230.4	
311.01	6268.1	
311.21	5456.5	
311.42	3489.7	
311.63	3760.1	
311.84	5240.1	
312.05	5671.5	
312.26	4220.2	
312.46	4652.3	
312.67	5353.4	
312.88	5061.2	
313.09	3605.1	
313.3	3551.9	
313.51	6348.7	
313.71	6797.9	
313.92	3642	
314.13	3827.7	
314.34	5697.4	
314.55	5347.9	
314.76	4693.3	
314.96	4102.8	
315.17	5541.8	
315.38	5963	
315.59	3651.5	
315.8	3471.3	
316.01	6518	
316.21	6502.3	
316.42	3489.1	
316.63	4003.8	
316.84	5469.4	
317.05	6270.9	
317.26	4270.7	
317.46	3832.4	
317.67	5468.8	
317.88	5983.5	
318.09	4651.6	
318.3	3375.7	
318.5	5221	
318.71	5855.1	
318.92	5935	
319.13	4250.2	
319.34	6060.6	
319.54	6141.2	
319.75	3381.9	
319.96	3216.7	
320.17	5895.4	
320.38	6119.3	
320.58	3297.2	
320.79	3973.7	
321	6168.5	
321.21	6366.5	
321.42	3979.9	
321.62	3301.3	
321.83	5107.6	
322.04	5529.5	
322.25	3838.6	
322.46	3692.5	
322.66	5632.6	
322.87	5789.6	
323.08	4502.8	
323.29	3530.7	
323.5	6623.8	
323.7	5117.2	
323.91	5005.9	
324.12	4510.3	
324.33	5583.4	
324.53	5907	
324.74	4268.6	
324.95	4476.2	
325.16	4815.5	
325.37	5358.2	
325.57	3635.8	
325.78	3733.4	
325.99	5541.8	
326.2	5029.1	
326.4	5388.2	
326.61	3341.6	
326.82	5482.4	
327.03	5622.4	
327.24	5190.9	
327.44	5048.9	
327.65	5776	
327.86	4646.2	
328.07	4296	
328.27	3480.2	
328.48	6257.9	
328.69	5089.9	
328.9	5336.3	
329.1	3863.2	
329.31	5472.2	
329.52	6381.5	
329.73	3633.1	
329.93	4127.3	
330.14	5527.5	
330.35	5832.6	
330.56	6018.3	
330.76	4475.5	
330.97	5302.9	
331.18	5790.3	
331.39	4048.8	
331.59	3281.5	
331.8	6151.4	
332.01	6321.4	
332.22	3740.3	
332.42	4312.3	
332.63	5621.7	
332.84	5238	
333.05	4078.2	
333.25	3722.5	
333.46	5253.7	
333.67	5599.1	
333.88	3794.2	
334.08	4290.5	
334.29	7488.1	
334.5	6221.7	
334.7	3547.1	
334.91	5227.1	
335.12	5101.5	
335.33	6038.1	
335.53	4080.2	
335.74	6030.6	
335.95	5279	
336.16	5149.3	
336.36	4088.4	
336.57	4685.1	
336.78	5051.7	
336.98	6151.4	
337.19	5000.5	
337.4	3956	
337.61	6751.5	
337.81	5016.8	
338.02	3706.1	
338.23	4818.9	
338.43	6310.5	
338.64	5188.9	
338.85	3674.7	
339.05	4804.5	
339.26	6448.4	
339.47	4928.8	
339.68	3648.1	
339.88	5529.5	
340.09	5796.4	
340.3	6045.6	
340.5	4326.7	
340.71	3235.1	
340.92	4961.5	
341.13	6322.1	
341.33	3557.3	
341.54	4294.6	
341.75	5737	
341.95	5363.6	
342.16	4062.5	
342.37	4449.6	
342.57	5104.9	
342.78	5513.1	
342.99	4602.5	
343.19	3251.5	
343.4	5968.5	
343.61	5778	
343.81	3889.1	
344.02	3635.1	
344.23	5988.9	
344.43	6386.9	
344.64	4565.6	
344.85	4369	
345.06	5828.5	
345.26	6152.8	
345.47	4212.7	
345.68	5023	
345.88	4875.5	
346.09	6059.3	
346.3	4321.2	
346.5	3239.2	
346.71	5595.7	
346.92	5231.2	
347.12	3312.9	
347.33	4246.8	
347.54	6089.3	
347.74	6569.2	
347.95	4190.1	
348.16	3109.5	
348.36	5367	
348.57	5043.5	
348.78	4169	
348.98	4494.6	
349.19	5396.4	
349.39	4995.7	
349.6	3321.1	
349.81	3678.2	
350.01	5726.1	
350.22	5244.8	
350.43	3987.4	
350.63	4893.3	
350.84	5623.7	
351.05	5261.9	
351.25	3691.1	
351.46	3324.5	
351.67	6154.1	
351.87	5205.9	
352.08	3889.8	
352.29	4500.1	
352.49	5982.1	
352.7	5646.9	
352.9	3547.1	
353.11	4450.2	
353.32	6737.8	
353.52	5303.6	
353.73	3464.5	
353.94	4481	
354.14	5823.1	
354.35	5683.8	
354.55	3562.8	
354.76	4037.9	
354.97	5772.5	
355.17	5556.8	
355.38	3373.7	
355.59	4745.8	
355.79	5200.5	
356	5675.6	
356.2	4027.7	
356.41	3420.8	
356.62	4935.6	
356.82	5395.7	
357.03	4270.7	
357.24	3846.8	
357.44	5275.6	
357.65	5309.7	
357.85	5186.1	
358.06	3984	
358.27	4901.5	
358.47	5155.4	
358.68	3304.1	
358.88	4230.4	
359.09	5796.4	
359.3	6165.1	
359.5	4990.9	
359.71	4379.9	
359.91	6602.7	
360.12	5957.5	
360.33	4190.1	
360.53	4766.3	
360.74	5146.5	
360.94	5208.7	
361.15	4503.5	
361.36	3606.5	
361.56	6016.2	
361.77	5404.6	
361.97	4995.7	
362.18	3887.7	
362.38	5966.4	
362.59	5027.1	
362.8	3515	
363	3434.4	
363.21	4731.5	
363.41	5547.3	
363.62	4150.6	
363.83	5225.1	
364.03	5555.5	
364.24	6638.1	
364.44	5221	
364.65	5204.6	
364.85	5356.8	
365.06	5166.3	
365.27	3719.1	
365.47	3768.9	
365.68	6428.6	
365.88	5269.4	
366.09	4164.9	
366.29	3861.8	
366.5	5578	
366.71	6046.3	
366.91	5106.3	
367.12	4337.6	
367.32	6700.3	
367.53	5908.4	
367.73	4244.8	
367.94	5277.6	
368.14	5845.6	
368.35	6845.7	
368.56	4248.9	
368.76	3547.8	
368.97	5872.2	
369.17	7776.8	
369.38	3739.6	
369.58	3929.4	
369.79	5003.9	
369.99	6313.2	
370.2	5059.8	
370.4	4048.2	
370.61	5628.5	
370.82	6916	
371.02	3995.6	
371.23	3289	
371.43	4837.3	
371.64	6242.9	
371.84	3969	
372.05	5233.2	
372.25	7596.6	
372.46	5998.5	
372.66	4001	
372.87	3985.3	
373.07	5941.8	
373.28	7674.4	
373.48	5097.4	
373.69	4710.3	
373.9	5369.1	
374.1	5474.9	
374.31	4924.7	
374.51	4532.2	
374.72	6282.5	
374.92	5025.7	
375.13	5119.9	
375.33	4289.1	
375.54	5877.7	
375.74	5176.6	
375.95	4360.8	
376.15	5603.2	
376.36	5791.7	
376.56	5622.4	
376.77	4410	
376.97	4897.4	
377.18	6948.1	
377.38	5900.9	
377.59	5312.4	
377.79	3830.4	
378	5674.9	
378.2	6109.1	
378.41	3850.2	
378.61	3809.9	
378.82	6126.8	
379.02	5164.3	
379.23	4035.2	
379.43	5319.9	
379.64	6186.2	
379.84	5881.1	
380.05	3904.8	
380.25	3780.6	
380.46	5959.6	
380.66	5487.9	
380.87	5317.2	
381.07	5678.3	
381.28	6553.5	
381.48	5916.6	
381.69	3923.2	
381.89	3976.5	
382.1	4780	
382.3	6170.5	
382.51	5098.1	
382.71	6047	
382.91	5952.1	
383.12	6552.1	
383.32	4318.5	
383.53	4531.5	
383.73	5806	
383.94	5543.2	
384.14	4413.4	
384.35	3553.9	
384.55	5479.7	
384.76	5997.8	
384.96	4292.5	
385.17	4648.9	
385.37	5926.1	
385.58	5204.6	
385.78	4688.5	
385.98	3454.9	
386.19	5452.4	
386.39	5828.5	
386.6	4052.9	
386.8	4356.7	
387.01	5945.9	
387.21	5985.5	
387.42	4728.8	
387.62	5356.1	
387.83	5205.9	
388.03	5996.5	
388.23	4319.8	
388.44	5172.5	
388.64	4820.2	
388.85	4983.4	
389.05	4657.1	
389.26	5313.1	
389.46	7011.6	
389.67	6343.9	
389.87	4602.5	
390.07	4800.4	
390.28	5494	
390.48	5089.9	
390.69	3868.6	
390.89	4216.8	
391.1	5296	
391.3	6344.6	
391.5	5464	
391.71	6090	
391.91	5952.8	
392.12	7068.2	
392.32	5545.2	
392.53	4699.4	
392.73	5347.2	
392.93	5573.2	
393.14	4328	
393.34	5232.6	
393.55	6065.4	
393.75	5585.5	
393.95	4356.7	
394.16	4304.8	
394.36	5287.2	
394.57	6014.9	
394.77	3780.6	
394.98	4304.1	
395.18	5218.2	
395.38	5330.2	
395.59	5205.3	
395.79	4054.3	
396	5363.6	
396.2	5852.4	
396.4	4885.1	
396.61	4831.2	
396.81	6042.2	
397.02	5279.7	
397.22	5178.6	
397.42	5167.7	
397.63	6036.7	
397.83	5173.2	
398.04	3953.9	
398.24	4500.1	
398.44	5796.4	
398.65	4855.1	
398.85	3820.1	
399.05	3956	
399.26	5201.8	
399.46	6971.3	
399.67	4268.6	
399.87	4018.8	
400.07	5556.1	
400.28	5913.9	
400.48	4102.8	
400.69	5264	
400.89	6167.8	
401.09	6610.8	
401.3	3947.1	
401.5	5177.9	
401.7	6827.9	
401.91	7144	
402.11	4276.8	
402.32	4504.2	
402.52	6125.5	
402.72	6094.8	
402.93	4760.8	
403.13	3628.3	
403.33	7000.6	
403.54	5647.6	
403.74	4526.7	
403.94	5477.6	
404.15	5709.1	
404.35	6963.8	
404.56	4255.7	
404.76	6236.1	
404.96	6165.1	
405.17	5904.3	
405.37	5642.2	
405.57	4769.7	
405.78	6116.6	
405.98	5588.9	
406.18	4307.6	
406.39	5216.2	
406.59	6107	
406.79	5787.6	
407	3988.8	
407.2	4294.6	
407.4	6180.8	
407.61	6426.5	
407.81	4192.2	
408.01	6242.9	
408.22	5114.5	
408.42	7263.5	
408.62	5279.7	
408.83	4656.4	
409.03	5710.4	
409.23	5451.7	
409.44	4728.1	
409.64	4941.7	
409.84	6574	
410.05	6427.2	
410.25	4776.5	
410.45	4590.2	
410.66	5851	
410.86	8473.8	
411.06	4967	
411.27	4856.4	
411.47	8249.9	
411.67	6102.9	
411.88	5083.1	
412.08	5370.5	
412.28	6630.6	
412.49	7253.9	
412.69	4784.1	
412.89	4820.2	
413.09	7026.6	
413.3	6786.3	
413.5	4844.1	
413.7	4440	
413.91	6038.8	
414.11	6961.7	
414.31	4701.5	
414.52	5099.4	
414.72	6582.2	
414.92	6487.3	
415.12	4648.9	
415.33	5196.4	
415.53	6882.5	
415.73	7035.5	
415.94	5610.8	
416.14	4997	
416.34	5789.6	
416.55	5610.8	
416.75	6260	
416.95	5514.5	
417.15	6835.4	
417.36	7655.3	
417.56	6349.4	
417.76	5422.3	
417.97	7168.6	
418.17	6834.8	
418.37	4982	
418.57	4958.1	
418.78	6583.5	
418.98	6366.5	
419.18	5876.3	
419.38	5889.3	
419.59	6331.6	
419.79	5912.5	
419.99	4919.2	
420.2	5350.7	
420.4	6816.3	
420.6	7077.8	
420.8	4818.9	
421.01	4644.1	
421.21	6611.5	
421.41	6935.1	
421.61	5242.1	
421.82	4866.7	
422.02	6105	
422.22	7122.8	
422.42	5760.9	
422.63	5407.3	
422.83	6285.2	
423.03	7517.4	
423.23	5436.7	
423.44	4317.1	
423.64	6424.5	
423.84	6139.1	
424.04	4803.2	
424.25	4526.7	
424.45	7407.5	
424.65	7282.6	
424.85	4290.5	
425.06	4893.3	
425.26	7224.6	
425.46	6150.7	
425.66	5416.2	
425.87	4982	
426.07	7032	
426.27	6972.7	
426.47	5186.8	
426.67	4549.2	
426.88	7468.3	
427.08	6791.1	
427.28	5418.9	
427.48	4498	
427.69	5741.1	
427.89	6356.9	
428.09	5463.3	
428.29	4534.9	
428.5	7068.9	
428.7	6616.3	
428.9	4320.5	
429.1	5037.3	
429.3	6470.9	
429.51	6907.8	
429.71	4704.9	
429.91	5595.1	
430.11	6774	
430.31	7077.8	
430.52	5088.5	
430.72	5325.4	
430.92	7365.2	
431.12	6826.6	
431.32	4689.2	
431.53	5151.3	
431.73	5651	
431.93	7478.5	
432.13	4671.4	
432.33	4415.4	
432.54	6180.1	
432.74	6477	
432.94	4378.6	
433.14	5535.7	
433.34	6721.4	
433.55	6079.7	
433.75	5427.8	
433.95	7240.3	
434.15	6440.2	
434.35	6163	
434.56	4561.5	
434.76	3981.3	
434.96	6453.8	
435.16	6700.3	
435.36	4393.6	
435.56	5574.6	
435.77	6044.9	
435.97	6249.7	
436.17	6398.5	
436.37	5456.5	
436.57	6016.9	
436.78	5849	
436.98	7410.2	
437.18	6072.2	
437.38	6660	
437.58	6189.6	
437.78	6190.3	
437.99	4863.9	
438.19	6765.1	
438.39	8312.7	
438.59	4799.8	
438.79	4319.8	
438.99	7464.2	
439.2	6163.7	
439.4	4464.6	
439.6	4373.1	
439.8	6556.9	
440	7702.4	
440.2	5442.8	
440.4	5552	
440.61	6835.4	
440.81	7491.5	
441.01	4481	
441.21	5471.5	
441.41	7303.7	
441.61	6896.2	
441.81	5806.7	
442.02	6842.3	
442.22	7848.5	
442.42	6979.5	
442.62	4532.2	
442.82	4690.5	
443.02	7243	
443.22	6324.1	
443.43	4998.4	
443.63	4562.9	
443.83	6105.7	
444.03	6277	
444.23	5821	
444.43	5380.7	
444.63	6427.9	
444.83	7665.5	
445.04	4644.1	
445.24	6008.1	
445.44	6883.2	
445.64	7001.3	
445.84	5491.3	
446.04	5550	
446.24	6212.2	
446.44	7346.7	
446.65	4740.4	
446.85	5067.4	
447.05	6657.9	
447.25	7230	
447.45	5150.6	
447.65	4545.8	
447.85	6539.2	
448.05	6205.3	
448.25	5658.5	
448.46	5284.4	
448.66	6652.5	
448.86	6268.8	
449.06	4296	
449.26	5638.7	
449.46	6919.4	
449.66	5904.3	
449.86	5011.4	
450.06	4994.3	
450.26	6080.4	
450.47	6708.5	
450.67	5352	
450.87	5755.5	
451.07	6759	
451.27	6579.4	
451.47	4641.4	
451.67	5111	
451.87	6176	
452.07	7460.1	
452.27	4773.1	
452.47	4758.1	
452.67	6535.8	
452.88	7229.3	
453.08	4200.4	
453.28	6262.7	
453.48	7771.4	
453.68	6474.3	
453.88	4669.4	
454.08	4913.1	
454.28	6920.1	
454.48	6475	
454.68	5541.1	
454.88	6092	
455.08	7030	
455.28	6577.4	
455.48	4530.1	
455.68	5213.4	
455.89	7386.3	
456.09	7098.3	
456.29	4882.4	
456.49	4906.9	
456.69	7231.4	
456.89	6408.8	
457.09	5479.7	
457.29	5733.6	
457.49	6800.6	
457.69	6916	
457.89	5177.3	
458.09	4585.4	
458.29	6421.7	
458.49	7281.9	
458.69	5569.8	
458.89	4995	
459.09	7464.2	
459.29	7643.7	
459.49	5087.2	
459.69	5945.3	
459.9	6983.6	
460.1	6448.4	
460.3	4984.1	
460.5	4762.9	
460.7	6950.8	
460.9	6705	
461.1	4382.7	
461.3	5778.7	
461.5	7629.4	
461.7	7198.6	
461.9	4736.3	
462.1	5315.8	
462.3	6668.9	
462.5	7208.8	
462.7	4824.3	
462.9	4911.7	
463.1	8312	
463.3	7804.8	
463.5	5122	
463.7	6044.9	
463.9	6784.2	
464.1	7213.6	
464.3	5199.8	
464.5	5494	
464.7	7393.8	
464.9	6980.2	
465.1	6803.4	
465.3	5707	
465.5	7820.5	
465.7	7742.7	
465.9	6006.7	
466.1	5907.7	
466.3	7458.7	
466.5	7328.3	
466.7	6692.8	
466.9	5567.1	
467.1	7212.9	
467.3	8172.8	
467.5	6625.9	
467.7	5373.9	
467.9	8415.8	
468.1	9336.7	
468.3	6307.7	
468.5	6791.1	
468.7	7152.9	
468.9	7154.2	
469.1	5713.8	
469.3	6469.5	
469.5	9243.8	
469.7	6681.2	
469.9	6274.3	
470.1	5382.7	
470.3	7164.5	
470.5	7127.6	
470.7	6767.2	
470.9	5537.7	
471.1	6879.8	
471.3	7458	
471.5	5256.5	
471.69	7395.9	
471.89	6791.1	
472.09	6313.9	
472.29	6281.1	
472.49	6694.1	
472.69	6419	
472.89	7458.7	
473.09	5296	
473.29	5455.1	
473.49	6737.8	
473.69	6967.9	
473.89	6407.4	
474.09	5625.1	
474.29	8207.6	
474.49	7935.9	
474.69	6429.3	
474.89	5749.3	
475.09	6944.7	
475.29	6863.4	
475.49	5097.4	
475.69	5333.6	
475.88	8643.8	
476.08	7146.7	
476.28	5044.8	
476.48	5603.9	
476.68	7774.8	
476.88	7649.8	
477.08	5429.2	
477.28	5799.8	
477.48	7149.5	
477.68	7901.7	
477.88	5246.9	
478.08	5586.2	
478.28	8083.3	
478.48	7184.3	
478.67	5644.2	
478.87	5089.2	
479.07	7830.1	
479.27	7370.6	
479.47	5965.7	
479.67	5796.4	
479.87	7613.7	
480.07	8191.2	
480.27	5087.2	
480.47	6803.4	
480.67	7350.8	
480.87	8000	
481.06	5319.9	
481.26	6234	
481.46	7231.4	
481.66	7149.5	
481.86	5783.5	
482.06	6898.9	
482.26	6946.7	
482.46	8021.2	
482.66	5760.3	
482.86	5380	
483.05	7207.5	
483.25	6690.7	
483.45	8382.3	
483.65	5733.6	
483.85	6799.9	
484.05	7169.3	
484.25	6229.9	
484.45	6676.4	
484.65	8128.4	
484.84	8045.8	
485.04	5664	
485.24	5592.3	
485.44	8288.1	
485.64	6546.7	
485.84	4820.2	
486.04	6353.5	
486.24	6873.7	
486.44	7421.8	
486.63	4833.9	
486.83	5585.5	
487.03	6773.3	
487.23	6969.9	
487.43	4955.4	
487.63	7409.6	
487.83	7076.4	
488.02	8147.5	
488.22	5910.4	
488.42	6576	
488.62	7973.4	
488.82	6828.6	
489.02	5582.8	
489.22	5526.1	
489.41	7844.4	
489.61	7379.5	
489.81	5262.6	
490.01	5268.1	
490.21	7654.6	
490.41	8325.7	
490.61	5196.4	
490.8	5316.5	
491	7194.5	
491.2	6481.1	
491.4	6044.2	
491.6	5088.5	
491.8	7248.4	
491.99	7382.2	
492.19	4984.8	
492.39	5397.1	
492.59	7763.2	
492.79	7733.8	
492.99	6279.8	
493.18	5294.7	
493.38	7767.3	
493.58	8546.9	
493.78	5975.3	
493.98	5553.4	
494.18	7578.2	
494.37	6937.2	
494.57	6117.3	
494.77	6021	
494.97	7571.3	
495.17	7793.9	
495.37	5486.5	
495.56	5853.1	
495.76	8104.5	
495.96	7641.7	
496.16	6849.1	
496.36	5618.9	
496.55	7801.4	
496.75	7327.6	
496.95	6076.3	
497.15	5917.3	
497.35	7756.3	
497.54	7763.2	
497.74	5696.8	
497.94	7373.4	
498.14	8456.1	
498.34	8340.7	
498.53	5307	
498.73	6128.2	
498.93	7122.8	
499.13	7709.2	
499.33	5913.9	
499.52	6469.5	
499.72	7663.5	
499.92	8013.7	
500.12	5567.7	
500.32	5849	
500.51	7875.1	
500.71	7696.9	
500.91	6750.1	
501.11	6318	
501.31	7777.5	
501.5	8386.4	
501.7	6933.1	
501.9	5849.7	
502.1	7590.5	
502.29	7965.2	
502.49	6319.3	
502.69	6904.4	
502.89	7891.5	
503.09	7839.6	
503.28	5470.1	
503.48	5496.7	
503.68	7034.1	
503.88	7120.1	
504.07	6531	
504.27	6078.4	
504.47	7482.6	
504.67	7734.5	
504.86	6527.6	
505.06	6092	
505.26	7188.4	
505.46	9166	
505.65	5963	
505.85	6369.9	
506.05	7182.2	
506.25	7689.4	
506.44	5332.2	
506.64	6346.7	
506.84	7133.1	
507.04	8103.1	
507.23	5577.3	
507.43	6240.2	
507.63	9275.3	
507.83	7301	
508.02	6195.8	
508.22	5866.7	
508.42	9386.5	
508.62	7089.4	
508.81	6156.2	
509.01	6734.4	
509.21	7013.6	
509.4	7243	
509.6	6328.2	
509.8	5696.8	
510	7310.6	
510.19	8806.9	
510.39	5595.1	
510.59	5633.3	
510.79	7025.2	
510.98	8484.7	
511.18	5750.7	
511.38	5821.7	
511.57	7847.8	
511.77	7788.4	
511.97	6621.8	
512.17	5551.4	
512.36	7906.5	
512.56	7891.5	
512.76	5607.3	
512.95	5326.1	
513.15	7984.3	
513.35	6609.5	
513.55	6496.8	
513.74	5640.8	
513.94	7948.2	
514.14	7247.1	
514.33	6539.8	
514.53	6270.2	
514.73	7206.8	
514.92	7481.9	
515.12	5739.8	
515.32	5590.3	
515.51	7503.8	
515.71	8088.8	
515.91	7368.6	
516.11	5624.4	
516.3	9307.3	
516.5	7026.6	
516.7	6138.4	
516.89	6848.4	
517.09	7286	
517.29	7094.8	
517.48	6460	
517.68	5954.1	
517.88	6934.4	
518.07	7619.8	
518.27	6478.4	
518.47	5384.1	
518.66	8185	
518.86	6708.5	
519.06	5287.9	
519.25	5705.6	
519.45	7098.9	
519.65	8684.8	
519.84	6358.9	
520.04	7114	
520.24	9019.9	
520.43	7750.2	
520.63	6122.7	
520.83	5855.1	
521.02	6982.2	
521.22	7661.5	
521.42	6423.8	
521.61	7044.3	
521.81	7180.9	
522.01	7349.5	
522.2	6236.7	
522.4	6002.6	
522.6	7845.1	
522.79	6673	
522.99	6105	
523.18	5296	
523.38	7590.5	
523.58	7546.1	
523.77	7373.4	
523.97	5238.7	
524.17	9432.9	
524.36	8606.2	
524.56	6604	
524.76	6186.9	
524.95	7496.2	
525.15	7122.2	
525.34	5936.4	
525.54	5909.8	
525.74	7761.1	
525.93	6629.3	
526.13	7275.8	
526.33	5898.8	
526.52	8073.8	
526.72	7549.5	
526.91	7120.1	
527.11	6374	
527.31	8208.9	
527.5	8600.1	
527.7	6224.5	
527.89	5218.9	
528.09	6897.6	
528.29	7506.5	
528.48	6624.5	
528.68	6300.2	
528.87	7929.7	
529.07	7952.3	
529.27	6173.9	
529.46	5718.6	
529.66	7527	
529.85	8013.7	
530.05	5473.5	
530.25	6322.1	
530.44	9106	
530.64	7462.8	
530.83	5914.5	
531.03	6202.6	
531.23	7955	
531.42	7836.2	
531.62	6989	
531.81	6119.3	
532.01	8015.1	
532.21	8519.5	
532.4	5774.6	
532.6	6135	
532.79	9068.4	
532.99	7966.6	
533.18	6095.4	
533.38	7146.7	
533.58	7493.5	
533.77	8336.6	
533.97	5971.2	
534.16	6931	
534.36	8424	
534.55	7435.5	
534.75	7068.2	
534.95	6092.7	
535.14	8320.9	
535.34	7497.6	
535.53	5731.6	
535.73	7862.8	
535.92	8852.7	
536.12	7740	
536.31	5889.3	
536.51	7155.6	
536.71	7999.4	
536.9	7514	
537.1	6152.1	
537.29	6166.4	
537.49	8430.1	
537.68	7444.4	
537.88	6620.4	
538.07	5801.2	
538.27	7646.4	
538.46	8756.4	
538.66	5485.8	
538.86	6143.2	
539.05	7598.6	
539.25	8155.7	
539.44	6376.7	
539.64	6022.4	
539.83	7538.6	
540.03	8676.6	
540.22	5808	
540.42	6043.6	
540.61	7905.2	
540.81	7918.1	
541	6540.5	
541.2	7120.1	
541.39	7392.5	
541.59	7858.7	
541.78	6771.3	
541.98	5913.2	
542.18	6978.1	
542.37	7055.3	
542.57	6399.2	
542.76	6864.8	
542.96	7074.4	
543.15	7979.6	
543.35	6382.2	
543.54	5705.6	
543.74	8267.6	
543.93	7803.4	
544.13	6408.1	
544.32	7473	
544.52	8036.2	
544.71	7318.8	
544.91	5425.8	
545.1	6846.4	
545.3	7345.4	
545.49	8047.8	
545.69	5432.6	
545.88	6063.4	
546.08	9050	
546.27	8553.7	
546.47	6599.2	
546.66	5862	
546.86	8267.6	
547.05	8994	
547.24	6159.6	
547.44	5929.6	
547.63	7174	
547.83	8387.8	
548.02	6314.6	
548.22	6630	
548.41	6974	
548.61	8449.2	
548.8	5913.2	
549	5855.1	
549.19	7735.2	
549.39	8045.8	
549.58	5586.9	
549.78	6195.8	
549.97	8165.9	
550.17	7598	
550.36	7118.1	
550.55	8216.5	
550.75	7660.1	
550.94	8618.5	
551.14	5850.4	
551.33	6278.4	
551.53	6935.1	
551.72	7968.6	
551.92	6318	
552.11	6000.5	
552.31	8009.6	
552.5	8058.1	
552.69	7817.8	
552.89	5668.1	
553.08	7920.2	
553.28	7655.3	
553.47	6073.6	
553.67	7335.1	
553.86	8720.9	
554.06	6897.6	
554.25	5183.4	
554.44	5874.9	
554.64	9531.9	
554.83	8903.2	
555.03	5801.2	
555.22	6226.5	
555.42	8201.4	
555.61	7879.2	
555.8	5982.1	
556	6380.1	
556.19	6984.3	
556.39	8248.5	
556.58	6138.4	
556.78	6095.4	
556.97	7841.7	
557.16	7460.1	
557.36	7361.1	
557.55	5694.7	
557.75	6808.1	
557.94	8527.1	
558.13	5849	
558.33	5560.2	
558.52	8380.3	
558.72	7210.2	
558.91	5738.4	
559.1	5941.2	
559.3	6887.3	
559.49	6623.1	
559.69	5203.2	
559.88	6284.5	
560.07	7811	
560.27	8275.2	
560.46	6471.6	
560.66	6694.8	
560.85	7582.3	
561.04	6761.7	
561.24	5707.7	
561.43	5947.3	
561.63	6993.8	
561.82	7255.3	
562.01	7274.4	
562.21	6238.8	
562.4	7730.4	
562.59	8708.6	
562.79	6141.2	
562.98	5701.5	
563.18	7664.2	
563.37	9193.3	
563.56	6556.2	
563.76	5540.4	
563.95	7051.2	
564.14	6969.2	
564.34	5945.3	
564.53	5786.2	
564.73	7588.4	
564.92	7937.9	
565.11	6130.9	
565.31	5536.3	
565.5	8220.5	
565.69	7095.5	
565.89	5770.5	
566.08	5959.6	
566.27	8080.6	
566.47	8486.8	
566.66	6731	
566.85	5294	
567.05	7604.8	
567.24	6984.9	
567.44	5618.3	
567.63	7144	
567.82	7912.7	
568.02	7666.2	
568.21	5573.9	
568.4	6120	
568.6	7441	
568.79	7531.7	
568.98	5406.6	
569.18	5648.3	
569.37	7395.2	
569.56	9562	
569.76	5992.4	
569.95	6978.8	
570.14	7864.2	
570.34	7729.7	
570.53	5490.6	
570.72	5466.7	
570.91	8292.2	
571.11	7296.9	
571.3	5956.9	
571.49	6952.2	
571.69	7417.1	
571.88	6979.5	
572.07	6521.4	
572.27	6612.2	
572.46	6976.7	
572.65	8088.8	
572.85	5662	
573.04	6059.3	
573.23	8284	
573.43	7496.2	
573.62	5383.4	
573.81	6114.6	
574	7466.2	
574.2	7264.1	
574.39	5843.5	
574.58	5956.9	
574.78	8357.8	
574.97	7488.1	
575.16	6350.8	
575.36	6559	
575.55	7921.5	
575.74	8093.6	
575.93	5443.5	
576.13	6451.1	
576.32	7269.6	
576.51	7941.3	
576.71	5898.1	
576.9	7200.7	
577.09	8343.4	
577.28	7738.6	
577.48	6341.9	
577.67	5230.5	
577.86	7321.5	
578.05	7774.1	
578.25	5988.3	
578.44	6035.4	
578.63	7474.4	
578.83	8789.9	
579.02	5317.2	
579.21	6960.4	
579.4	7662.8	
579.6	7330.4	
579.79	6195.8	
579.98	8484.1	
580.17	8056.7	
580.37	8148.9	
580.56	5591	
580.75	6333.7	
580.94	8590.5	
581.14	8442.4	
581.33	6778.8	
581.52	5704.3	
581.71	7961.8	
581.91	8652.7	
582.1	5302.9	
582.29	6010.1	
582.48	7595.9	
582.68	7423.2	
582.87	6533	
583.06	6217.6	
583.25	7869.7	
583.45	7763.2	
583.64	6795.8	
583.83	7559.1	
584.02	7367.2	
584.21	7793.9	
584.41	6792.4	
584.6	6077	
584.79	7530.4	
584.98	8346.2	
585.18	5457.8	
585.37	5474.2	
585.56	7073.7	
585.75	7946.8	
585.94	5738.4	
586.14	6429.9	
586.33	8602.8	
586.52	7470.3	
586.71	6276.3	
586.91	6075	
587.1	6930.3	
587.29	8063.5	
587.48	6005.3	
587.67	5840.1	
587.87	7876.5	
588.06	7975.5	
588.25	7310.6	
588.44	6613.6	
588.63	7585	
588.83	8159.8	
589.02	5916.6	
589.21	5884.5	
589.4	7371.3	
589.59	7189.1	
589.78	5198.4	
589.98	5440.8	
590.17	6994.5	
590.36	7561.1	
590.55	4934.2	
590.74	5847.6	
590.94	9120.3	
591.13	7496.9	
591.32	5586.2	
591.51	5109	
591.7	8005.5	
591.89	7361.8	
592.09	5230.5	
592.28	5699.5	
592.47	6651.8	
592.66	8571.4	
592.85	5186.1	
593.05	5459.9	
593.24	7271.7	
593.43	8011	
593.62	5513.1	
593.81	5930.9	
594	7228.6	
594.19	7507.9	
594.39	5424.4	
594.58	5287.2	
594.77	7627.3	
594.96	8251.3	
595.15	5237.3	
595.34	6070.2	
595.54	7733.8	
595.73	6824.5	
595.92	4747.2	
596.11	5964.4	
596.3	8278.6	
596.49	6806.8	
596.68	5700.9	
596.88	6220.4	
597.07	7935.2	
597.26	6595.1	
597.45	5197.7	
597.64	6465.4	
597.83	6894.1	
598.02	7650.5	
598.22	5279	
598.41	6099.5	
598.6	7350.2	
598.79	6808.8	
598.98	5310.4	
599.17	6309.8	
599.36	7389.1	
599.55	8634.2	
599.74	7501.7	
599.94	7301.7	
600.13	7908.6	
600.32	6746	
600.51	5055.8	
600.7	5263.3	
600.89	8755.7	
601.08	8753.7	
601.27	5019.6	
601.47	6030.6	
601.66	7901.7	
601.85	8627.4	
602.04	5767.1	
602.23	6053.8	
602.42	6901	
602.61	7617.1	
602.8	5668.8	
602.99	5395	
603.18	7250.5	
603.37	7558.4	
603.57	6141.2	
603.76	6620.4	
603.95	8329.1	
604.14	7845.8	
604.33	5539.1	
604.52	5884.5	
604.71	7509.2	
604.9	7156.3	
605.09	6428.6	
605.28	6245.6	
605.47	8076.5	
605.66	7793.9	
605.86	6077.7	
606.05	5439.4	
606.24	8156.4	
606.43	6565.8	
606.62	5837.4	
606.81	6625.2	
607	8036.9	
607.19	7263.5	
607.38	5226.4	
607.57	5532.9	
607.76	7021.1	
607.95	6447	
608.14	6010.1	
608.33	6614.9	
608.52	7049.1	
608.72	7995.3	
608.91	5217.5	
609.1	5162.9	
609.29	7126.2	
609.48	6586.3	
609.67	6218.3	
609.86	5162.9	
610.05	6787	
610.24	7097.6	
610.43	5036	
610.62	4684.4	
610.81	8390.5	
611	8019.8	
611.19	5209.3	
611.38	5893.4	
611.57	7397.3	
611.76	8837	
611.95	4977.2	
612.14	4816.1	
612.33	7259.4	
612.52	6776.7	
612.71	5597.8	
612.9	4726	
613.09	6387.6	
613.28	8885.5	
613.47	5272.8	
613.66	6326.2	
613.85	7367.9	
614.04	6874.3	
614.24	5392.3	
614.43	4551.3	
614.62	7496.9	
614.81	7504.4	
615	6051.1	
615.19	5991	
615.38	6794.5	
615.57	7086	
615.76	5761.6	
615.95	6851.8	
616.14	7606.8	
616.33	7144.7	
616.52	6156.9	
616.71	6451.1	
616.9	7431.4	
617.09	7286.7	
617.28	5427.1	
617.47	6810.2	
617.66	6563.1	
617.85	6589	
618.04	6397.9	
618.22	5820.3	
618.41	6883.2	
618.6	7798.7	
618.79	5685.8	
618.98	5372.5	
619.17	8183	
619.36	6434	
619.55	5526.1	
619.74	5601.9	
619.93	7328.3	
620.12	6702.3	
620.31	6102.9	
620.5	6270.9	
620.69	7963.2	
620.88	8354.3	
621.07	7020.4	
621.26	5946.6	
621.45	7454.6	
621.64	7503.8	
621.83	6111.8	
622.02	5244.2	
622.21	7575.4	
622.4	7345.4	
622.59	6702.3	
622.78	6436.1	
622.97	6806.1	
623.16	7915.4	
623.35	5997.1	
623.54	5159.5	
623.72	7105.1	
623.91	7148.8	
624.1	6197.8	
624.29	4889.9	
624.48	8387.8	
624.67	7559.7	
624.86	6097.5	
625.05	5165	
625.24	8436.9	
625.43	6789	
625.62	8002.1	
625.81	5341.8	
626	7849.9	
626.19	7063.4	
626.38	6283.2	
626.56	5644.9	
626.75	6839.5	
626.94	7646.4	
627.13	6254.5	
627.32	4832.5	
627.51	7608.9	
627.7	9171.5	
627.89	5038	
628.08	6219	
628.27	6726.9	
628.46	6993.1	
628.65	5290.6	
628.83	4992.9	
629.02	7531.7	
629.21	6847.7	
629.4	5740.5	
629.59	6016.9	
629.78	6772.6	
629.97	7801.4	
630.16	6096.8	
630.35	5507	
630.54	8219.9	
630.72	7933.8	
630.91	5444.2	
631.1	6062	
631.29	7449.8	
631.48	7594.6	
631.67	6200.6	
631.86	5696.1	
632.05	6898.9	
632.24	7086	
632.42	5218.9	
632.61	5980.1	
632.8	7103.7	
632.99	6740.5	
633.18	5889.3	
633.37	6256.5	
633.56	7460.8	
633.75	7266.9	
633.93	5904.3	
634.12	5535.7	
634.31	8217.1	
634.5	7851.9	
634.69	5625.1	
634.88	6130.9	
635.07	7153.6	
635.25	7786.4	
635.44	6567.8	
635.63	6840.9	
635.82	6977.4	
636.01	6548	
636.2	6517.3	
636.39	5992.4	
636.57	8197.3	
636.76	7873.1	
636.95	5446.9	
637.14	6963.1	
637.33	7506.5	
637.52	8520.9	
637.7	5230.5	
637.89	6180.8	
638.08	7120.8	
638.27	8587.8	
638.46	6303	
638.65	6726.2	
638.83	8593.3	
639.02	6862.7	
639.21	6195.1	
639.4	6749.4	
639.59	7471	
639.78	7040.9	
639.96	5490.6	
640.15	5503.6	
640.34	7349.5	
640.53	7502.4	
640.72	5197.1	
640.91	5642.2	
641.09	6689.3	
641.28	8144.8	
641.47	5544.5	
641.66	6437.4	
641.85	7486.7	
642.03	7770	
642.22	6219.7	
642.41	5629.9	
642.6	6916.7	
642.79	6255.2	
642.97	5504.3	
643.16	6294.1	
643.35	6827.9	
643.54	6692.8	
643.73	5314.5	
643.91	6293.4	
644.1	6480.5	
644.29	7160.4	
644.48	5500.8	
644.67	5565	
644.85	6870.3	
645.04	7075	
645.23	5114.5	
645.42	5413.5	
645.6	6645.7	
645.79	7892.2	
645.98	5511.8	
646.17	4483	
646.36	6354.8	
646.54	7094.2	
646.73	6404	
646.92	5024.3	
647.11	6662	
647.29	7832.8	
647.48	5175.9	
647.67	4943.1	
647.86	8090.8	
648.05	8077.2	
648.23	5507	
648.42	6931	
648.61	7486.7	
648.8	7132.4	
648.98	5259.9	
649.17	5578	
649.36	6741.2	
649.55	6193.1	
649.73	5210.7	
649.92	6012.2	
650.11	6547.4	
650.3	6982.2	
650.48	5313.8	
650.67	5049.6	
650.86	7290.1	
651.05	6134.3	
651.23	5370.5	
651.42	5287.9	
651.61	6644.3	
651.79	6852.5	
651.98	5534.3	
652.17	5152.7	
652.36	7197.9	
652.54	6243.6	
652.73	5211.4	
652.92	4935.6	
653.11	7260	
653.29	7337.2	
653.48	4460.5	
653.67	5560.2	
653.85	7018.4	
654.04	8179.6	
654.23	5825.1	
654.42	5265.3	
654.6	6562.4	
654.79	7272.3	
654.98	4811.4	
655.16	5388.9	
655.35	6197.2	
655.54	6163.7	
655.73	4924.7	
655.91	4892.6	
656.1	7345.4	
656.29	6118	
656.47	4443.4	
656.66	6208.8	
656.85	6394.4	
657.03	6477.7	
657.22	4902.2	
657.41	5037.3	
657.59	6488	
657.78	6325.5	
657.97	4603.8	
658.16	5489.2	
658.34	7154.9	
658.53	7628	
658.72	6277	
658.9	6893.5	
659.09	6507.8	
659.28	6671.6	
659.46	5138.4	
659.65	5063.3	
659.84	6356.2	
660.02	6904.4	
660.21	4989.5	
660.4	4926.7	
660.58	7410.2	
660.77	6688	
660.96	5557.5	
661.14	4529.4	
661.33	7862.2	
661.52	7853.3	
661.7	4459.8	
661.89	8492.9	
662.08	6356.9	
662.26	5939.8	
662.45	4874.8	
662.64	4954	
662.82	7021.1	
663.01	6255.9	
663.2	4990.2	
663.38	5728.2	
663.57	7006.8	
663.75	6765.1	
663.94	5288.5	
664.13	6726.9	
664.31	6317.3	
664.5	7053.2	
664.69	5509.7	
664.87	6167.1	
665.06	6006.7	
665.25	6810.9	
665.43	6379.4	
665.62	6543.3	
665.8	7237.5	
665.99	6445.6	
666.18	5263.3	
666.36	5523.4	
666.55	7131	
666.74	7119.4	
666.92	4971.8	
667.11	6662	
667.29	6412.2	
667.48	7132.4	
667.67	6294.1	
667.85	5332.9	
668.04	6528.2	
668.22	6518	
668.41	5444.9	
668.6	5551.4	
668.78	6319.3	
668.97	6550.1	
669.15	5838.1	
669.34	4743.8	
669.53	6283.2	
669.71	6656.6	
669.9	4885.8	
670.08	5551.4	
670.27	6269.5	
670.46	6993.1	
670.64	5846.3	
670.83	6027.9	
671.01	6261.3	
671.2	6844.3	
671.38	4927.4	
671.57	4838	
671.76	7527	
671.94	8131.1	
672.13	4811.4	
672.31	5925.5	
672.5	7070.3	
672.69	6317.3	
672.87	4971.1	
673.06	5328.8	
673.24	6929	
673.43	6373.3	
673.61	5820.3	
673.8	5298.1	
673.98	7114	
674.17	7303.1	
674.36	5885.2	
674.54	5759.6	
674.73	6840.2	
674.91	7046.4	
675.1	5434.6	
675.28	5030.5	
675.47	6621.1	
675.65	7205.4	
675.84	5288.5	
676.03	5660.6	
676.21	6421.1	
676.4	5868.1	
676.58	6134.3	
676.77	5877.7	
676.95	7930.4	
677.14	6337.8	
677.32	4968.4	
677.51	4711	
677.69	7091.4	
677.88	5959.6	
678.06	4800.4	
678.25	4969.1	
678.44	6610.8	
678.62	6391	
678.81	4662.5	
678.99	5679	
679.18	7476.5	
679.36	7057.3	
679.55	5242.8	
679.73	5950.7	
679.92	6934.4	
680.1	6337.1	
680.29	6461.3	
680.47	5328.8	
680.66	6292.7	
680.84	7210.2	
681.03	4543.1	
681.21	5677	
681.4	6338.5	
681.58	6240.2	
681.77	5014.1	
681.95	4863.2	
682.14	7212.9	
682.32	7596.6	
682.51	5937.1	
682.69	4699.4	
682.88	6287.3	
683.06	7023.2	
683.25	5614.8	
683.43	6150.1	
683.62	6530.3	
683.8	6978.8	
683.99	6130.3	
684.17	5472.9	
684.36	7888.1	
684.54	6477.7	
684.73	4601.8	
684.91	4889.9	
685.1	6874.3	
685.28	6277.7	
685.46	5442.8	
685.65	5547.9	
685.83	7108.5	
686.02	6486.6	
686.2	4958.8	
686.39	5039.4	
686.57	6059.3	
686.76	7849.9	
686.94	4971.1	
687.13	5109.7	
687.31	7015	
687.5	6408.1	
687.68	4508.9	
687.86	5813.5	
688.05	8051.9	
688.23	5937.1	
688.42	5894.1	
688.6	4962.2	
688.79	6310.5	
688.97	6376.7	
689.16	5462.6	
689.34	4280.9	
689.52	7043.6	
689.71	7281.9	
689.89	5711.1	
690.08	4954	
690.26	6545.3	
690.45	6436.8	
690.63	5917.3	
690.81	5114.5	
691	6315.3	
691.18	6200.6	
691.37	5268.1	
691.55	7634.1	
691.74	6171.9	
691.92	8438.3	
692.1	5337.7	
692.29	4653.7	
692.47	6447.7	
692.66	5670.1	
692.84	4891.2	
693.02	5613.5	
693.21	5868.8	
693.39	6419	
693.58	5572.5	
693.76	4947.2	
693.94	7691.5	
694.13	7384.3	
694.31	4893.3	
694.5	6051.1	
694.68	6164.4	
694.86	6506.4	
695.05	5318.6	
695.23	5467.4	
695.42	6926.9	
695.6	9299.1	
695.78	5953.4	
695.97	4956.1	
696.15	6916.7	
696.34	6222.4	
696.52	4682.3	
696.7	5652.4	
696.89	6692.8	
697.07	6106.4	
697.25	5545.2	
697.44	7292.8	
697.62	6576.7	
697.81	7014.3	
697.99	5227.8	
698.17	5712.5	
698.36	5920.7	
698.54	6721.4	
698.72	5613.5	
698.91	4510.3	
699.09	6271.6	
699.28	6147.3	
699.46	5280.3	
699.64	5054.4	
699.83	6068.1	
700.01	7501.7	
700.19	5945.3	
700.38	4290.5	
700.56	7325.6	
700.74	6169.8	
700.93	4715.1	
701.11	5556.8	
701.29	6809.5	
701.48	7794.6	
701.66	4927.4	
701.84	5003.2	
702.03	6226.5	
702.21	6880.5	
702.39	4520.5	
702.58	5125.4	
702.76	6627.2	
702.94	6806.1	
703.13	4495.3	
703.31	7068.2	
703.49	5914.5	
703.68	7535.8	
703.86	4685.1	
704.04	5741.1	
704.23	6504.3	
704.41	6912.6	
704.59	4827.1	
704.78	6174.6	
704.96	7658.7	
705.14	6907.1	
705.33	4591.5	
705.51	5498.8	
705.69	6373.3	
705.87	7204.1	
706.06	5778	
706.24	4566.3	
706.42	6682.5	
706.61	6869.6	
706.79	5859.9	
706.97	4570.4	
707.16	6048.3	
707.34	6703.7	
707.52	5770.5	
707.7	4837.3	
707.89	6301.6	
708.07	5881.1	
708.25	5751.4	
708.44	5870.2	
708.62	6151.4	
708.8	7383.6	
708.98	6115.2	
709.17	4896	
709.35	6615.6	
709.53	6595.8	
709.72	4552	
709.9	4836.6	
710.08	6847	
710.26	6916.7	
710.45	6412.9	
710.63	4949.9	
710.81	6486.6	
710.99	6578.8	
711.18	5624.4	
711.36	5087.8	
711.54	6338.5	
711.72	7073.7	
711.91	5235.3	
712.09	4543.8	
712.27	6522.1	
712.45	7224.6	
712.64	5532.2	
712.82	4360.1	
713	5922	
713.18	6094.8	
713.37	4631.8	
713.55	5926.1	
713.73	7051.8	
713.91	5640.8	
714.1	5102.2	
714.28	4543.8	
714.46	6812.9	
714.64	5960.3	
714.83	3993.5	
715.01	4892.6	
715.19	6103.6	
715.37	5629.2	
715.55	4664.6	
715.74	4950.6	
715.92	7191.1	
716.1	5063.3	
716.28	6225.8	
716.47	5116.5	
716.65	5808	
716.83	5974.6	
717.01	4989.5	
717.19	5057.8	
717.38	8135.9	
717.56	5570.5	
717.74	5285.1	
717.92	4355.3	
718.1	6879.1	
718.29	5957.5	
718.47	3925.3	
718.65	4593.6	
718.83	6617.7	
719.01	6539.8	
719.2	3676.1	
719.38	4881	
719.56	6214.2	
719.74	7896.3	
719.92	4394.3	
720.11	5621	
720.29	6264.1	
720.47	5414.1	
720.65	4012	
720.83	4956.1	
721.02	5792.3	
721.2	5526.1	
721.38	5072.8	
721.56	4295.3	
721.74	5064.6	
721.92	5302.9	
722.11	5597.8	
722.29	5272.2	
722.47	6649.8	
722.65	5810.1	
722.83	4317.8	
723.01	5350.7	
723.2	5851	
723.38	6096.8	
723.56	3667.2	
723.74	4915.1	
723.92	5274.2	
724.1	6488.6	
724.29	4245.4	
724.47	5429.8	
724.65	5301.5	
724.83	5285.8	
725.01	4109.6	
725.19	5072.8	
725.37	5382.7	
725.56	5427.1	
725.74	3978.5	
725.92	4187.4	
726.1	5268.7	
726.28	5649	
726.46	4674.1	
726.64	4419.5	
726.83	5628.5	
727.01	5890.6	
727.19	3955.3	
727.37	4809.3	
727.55	5734.3	
727.73	6283.2	
727.91	3900.7	
728.09	3753.9	
728.28	6278.4	
728.46	6996.5	
728.64	4944.5	
728.82	4894.6	
729	7459.4	
729.18	6649.1	
729.36	3976.5	
729.54	6506.4	
729.72	7727	
729.91	5788.2	
730.09	5999.9	
730.27	4672.1	
730.45	5656.5	
730.63	6402	
730.81	5339.7	
730.99	4272.7	
731.17	6890	
731.35	5433.3	
731.53	4958.1	
731.71	4433.9	
731.9	6681.2	
732.08	6867.5	
732.26	4780	
732.44	4388.1	
732.62	6866.8	
732.8	6354.2	
732.98	5244.2	
733.16	4162.8	
733.34	6380.8	
733.52	5180.7	
733.7	4753.3	
733.88	5076.2	
734.07	6262.7	
734.25	5941.2	
734.43	4163.5	
734.61	5864.7	
734.79	7487.4	
734.97	5868.8	
735.15	4302.1	
735.33	4751.3	
735.51	6151.4	
735.69	5788.9	
735.87	5915.9	
736.05	4975.9	
736.23	6061.3	
736.41	5817.6	
736.59	4721.3	
736.77	4889.9	
736.95	6578.1	
737.13	5883.1	
737.32	4410	
737.5	4639.3	
737.68	7139.2	
737.86	5851.7	
738.04	4152.6	
738.22	6238.8	
738.4	5649	
738.58	5883.1	
738.76	4878.9	
738.94	3786.7	
739.12	5782.1	
739.3	5640.8	
739.48	5598.5	
739.66	5258.5	
739.84	6018.3	
740.02	5985.5	
740.2	3885.7	
740.38	4283	
740.56	6444.3	
740.74	5286.5	
740.92	4947.2	
741.1	4907.6	
741.28	5819	
741.46	5692.7	
741.64	4513.7	
741.82	5091.3	
742	5843.5	
742.18	5887.9	
742.36	4672.1	
742.54	4316.4	
742.72	6497.5	
742.9	5205.9	
743.08	5230.5	
743.26	3908.9	
743.44	6754.2	
743.62	6701.6	
743.8	5335.6	
743.98	4289.8	
744.16	6328.9	
744.34	5900.2	
744.52	5294.7	
744.7	5134.3	
744.88	6410.8	
745.06	5908.4	
745.24	5307.7	
745.42	5427.1	
745.6	6469.5	
745.78	6278.4	
745.96	4080.2	
746.14	4437.3	
746.32	7385.7	
746.5	6520.7	
746.68	5095.3	
746.86	4505.5	
747.03	7055.3	
747.21	5221	
747.39	5057.8	
747.57	4506.9	
747.75	6178.7	
747.93	6567.8	
748.11	4420.2	
748.29	4384.7	
748.47	7830.7	
748.65	5895.4	
748.83	5201.8	
749.01	4977.2	
749.19	6363.7	
749.37	5532.9	
749.55	4779.3	
749.73	4952	
749.91	6013.5	
750.09	5769.1	
750.26	5005.9	
750.44	4326	
750.62	6085.2	
750.8	6062.7	
750.98	4155.3	
751.16	4511.7	
751.34	6148	
751.52	5450.3	
751.7	5412.8	
751.88	4157.4	
752.06	6671.6	
752.24	6421.7	
752.42	4121.9	
752.59	4438.6	
752.77	5986.2	
752.95	7324.9	
753.13	5268.7	
753.31	4602.5	
753.49	5675.6	
753.67	6238.8	
753.85	4984.1	
754.03	4487.8	
754.21	6565.1	
754.38	6873	
754.56	4752.7	
754.74	3690.4	
754.92	5797.8	
755.1	6547.4	
755.28	3838.6	
755.46	3833.1	
755.64	7438.9	
755.82	7510.6	
755.99	4189.5	
756.17	4376.5	
756.35	4922	
756.53	6608.1	
756.71	3241.9	
756.89	4214	
757.07	6249.7	
757.25	5179.3	
757.42	4788.2	
757.6	5735	
757.78	6148	
757.96	5117.2	
758.14	4372.4	
758.32	3846.8	
758.5	4563.6	
758.67	5535	
758.85	4285	
759.03	4354	
759.21	5724.8	
759.39	5096	
759.57	3760.8	
759.75	5038.7	
759.92	6390.3	
760.1	5558.9	
760.28	5392.3	
760.46	5606	
760.64	5274.9	
760.82	5065.3	
760.99	5240.8	
761.17	4347.2	
761.35	6276.3	
761.53	5157.5	
761.71	4409.3	
761.89	5144.5	
762.06	6118	
762.24	5595.7	
762.42	4535.6	
762.6	4291.9	
762.78	5516.5	
762.96	6284.5	
763.13	4902.2	
763.31	4625.7	
763.49	6432	
763.67	5539.8	
763.85	5494.7	
764.02	6113.2	
764.2	6660	
764.38	5900.2	
764.56	4459.8	
764.74	5389.6	
764.91	6886.6	
765.09	5656.5	
765.27	4041.3	
765.45	3944.4	
765.63	6856.6	
765.8	6755.6	
765.98	3635.8	
766.16	3976.5	
766.34	5227.1	
766.52	5062.6	
766.69	4983.4	
766.87	3831.1	
767.05	5628.5	
767.23	6519.4	
767.41	4188.8	
767.58	4444.1	
767.76	6328.9	
767.94	6416.3	
768.12	4280.3	
768.29	5089.9	
768.47	5801.9	
768.65	6587.6	
768.83	3887	
769	5154.7	
769.18	5291.3	
769.36	6072.9	
769.54	4937	
769.72	3943	
769.89	6372.6	
770.07	6534.4	
770.25	4296	
770.43	5664	
770.6	7211.6	
770.78	7737.2	
770.96	4478.2	
771.14	5224.4	
771.31	6307.7	
771.49	5590.3	
771.67	3614.7	
771.85	3871.3	
772.02	4810	
772.2	5616.2	
772.38	4756.7	
772.55	4204.5	
772.73	5936.4	
772.91	5689.3	
773.09	4540.3	
773.26	4647.5	
773.44	5908.4	
773.62	5659.9	
773.8	4076.8	
773.97	3697.3	
774.15	6001.2	
774.33	5524.1	
774.5	3969	
774.68	4414.7	
774.86	6156.9	
775.04	5639.4	
775.21	3987.4	
775.39	4073.4	
775.57	5864.7	
775.74	6367.1	
775.92	3930.1	
776.1	3837.9	
776.27	5928.2	
776.45	7262.8	
776.63	4087.7	
776.81	3586.7	
776.98	5456.5	
777.16	6692.8	
777.34	4249.5	
777.51	4607.2	
777.69	5517.9	
777.87	5193	
778.04	4254.3	
778.22	4988.2	
778.4	5269.4	
778.57	6023.1	
778.75	3497.9	
778.93	3850.9	
779.1	5052.3	
779.28	4921.3	
779.46	3568.9	
779.64	4118.5	
779.81	6182.1	
779.99	7146	
780.17	4968.4	
780.34	5079.6	
780.52	5569.1	
780.69	5803.9	
780.87	4458.4	
781.05	3962.8	
781.22	5637.4	
781.4	5782.1	
781.58	4125.3	
781.75	3222.8	
781.93	5685.8	
782.11	5035.3	
782.28	5104.9	
782.46	4083	
782.64	4905.6	
782.81	5837.4	
782.99	4197.7	
783.17	4171.7	
783.34	5809.4	
783.52	4970.4	
783.69	4442.7	
783.87	5259.2	
784.05	5152.7	
784.22	5060.5	
784.4	5289.2	
784.58	4483.7	
784.75	6090	
784.93	5086.5	
785.1	4110.3	
785.28	4926.7	
785.46	5777.3	
785.63	5115.1	
785.81	4095.9	
785.99	3981.9	
786.16	5257.8	
786.34	5746.6	
786.51	3973.1	
786.69	4435.2	
786.87	4819.6	
787.04	5392.3	
787.22	3432.4	
787.39	4916.5	
787.57	5077.6	
787.75	6234	
787.92	5087.8	
788.1	5005.9	
788.27	5176.6	
788.45	4851.6	
788.63	4654.4	
788.8	3334.8	
788.98	5480.4	
789.15	4892.6	
789.33	3520.5	
789.5	4237.9	
789.68	6145.3	
789.86	6204.7	
790.03	4448.2	
790.21	4026.3	
790.38	6087.9	
790.56	5240.8	
790.73	3910.9	
790.91	3892.5	
791.09	5180.7	
791.26	5911.1	
791.44	4205.2	
791.61	3520.5	
791.79	5177.3	
791.96	5173.9	
792.14	3739.6	
792.32	3221.5	
792.49	5188.9	
792.67	5278.3	
792.84	3723.2	
793.02	3540.3	
793.19	5631.2	
793.37	6427.2	
793.54	3332	
793.72	3650.8	
793.89	6595.1	
794.07	5192.3	
794.25	4349.9	
794.42	3306.1	
794.6	6287.9	
794.77	5862.7	
794.95	4581.3	
795.12	3984	
795.3	5102.9	
795.47	5858.6	
795.65	4343.1	
795.82	4214.7	
796	4950.6	
796.17	6998.6	
796.35	4085.7	
796.52	4853	
796.7	5722	
796.87	5793.7	
797.05	5122	
797.22	4988.2	
797.4	5807.4	
797.57	6883.9	
797.75	4250.2	
797.92	3947.8	
798.1	6173.9	
798.27	5163.6	
798.45	3362.8	
798.62	3673.4	
798.8	5429.8	
798.97	6008.7	
799.15	4438.6	
799.32	4269.3	
799.5	4668	
799.67	5550	
799.85	4557.4	
800.02	3303.4	
800.2	5047.6	
800.37	5524.7	
800.55	4810.7	
800.72	3991.5	
800.9	5994.4	
801.07	6447	
801.25	5386.2	
801.42	4398.4	
801.6	5964.4	
801.77	5720	
801.95	3949.8	
802.12	3884.3	
802.29	5764.3	
802.47	5655.1	
802.64	4334.2	
802.82	3246	
802.99	5072.8	
803.17	6207.4	
803.34	4283.7	
803.52	3805.8	
803.69	6901	
803.87	4839.4	
804.04	4212.7	
804.21	4360.8	
804.39	6272.9	
804.56	5324.7	
804.74	3576.4	
804.91	4425.7	
805.09	5171.8	
805.26	5296	
805.44	3579.2	
805.61	4080.9	
805.78	5792.3	
805.96	5857.2	
806.13	4363.5	
806.31	4759.5	
806.48	4627	
806.66	5237.3	
806.83	4302.8	
807	4289.8	
807.18	5053.7	
807.35	5578	
807.53	4234.5	
807.7	3401.7	
807.87	6459.3	
808.05	5150.6	
808.22	4759.5	
808.4	3405.1	
808.57	5223	
808.74	4808.6	
808.92	3855.6	
809.09	4904.2	
809.27	4992.9	
809.44	5744.6	
809.61	3435.8	
809.79	3816	
809.96	6326.2	
810.14	5997.1	
810.31	3301.3	
810.48	4155.3	
810.66	5242.8	
810.83	6130.3	
811.01	3924.6	
811.18	4675.5	
811.35	5958.9	
811.53	4623.6	
811.7	4745.8	
811.87	4435.9	
812.05	5201.2	
812.22	5080.3	
812.39	3762.8	
812.57	3656.3	
812.74	5197.1	
812.92	7013.6	
813.09	4075.5	
813.26	4483	
813.44	6712.6	
813.61	5114.5	
813.78	3390.8	
813.96	4595.6	
814.13	5209.3	
814.3	4847.5	
814.48	5039.4	
814.65	4121.2	
814.82	6523.5	
815	4962.2	
815.17	4234.5	
815.34	5236	
815.52	5076.9	
815.69	5059.2	
815.87	4229.1	
816.04	3592.8	
816.21	5247.6	
816.38	4538.3	
816.56	4020.2	
816.73	3734.1	
816.9	6588.3	
817.08	6006.7	
817.25	3787.4	
817.42	4812	
817.6	4744.5	
817.77	5195.7	
817.94	4339	
818.12	3773.7	
818.29	4904.9	
818.46	7863.5	
818.64	3916.4	
818.81	3689.1	
818.98	4825.7	
819.16	7103.7	
819.33	4528.7	
819.5	4192.2	
819.67	5603.2	
819.85	6219.7	
820.02	4160.1	
820.19	4374.5	
820.37	5436.7	
820.54	4982	
820.71	4394.9	
820.88	5362.9	
821.06	5506.3	
821.23	4933.6	
821.4	4356.7	
821.58	4222.9	
821.75	6003.3	
821.92	5357.5	
822.09	3409.9	
822.27	3530.7	
822.44	5266.7	
822.61	5115.8	
822.79	3413.3	
822.96	6709.8	
823.13	5725.4	
823.3	4887.1	
823.48	4024.3	
823.65	3586.7	
823.82	5924.8	
823.99	4729.4	
824.17	5113.1	
824.34	3677.5	
824.51	6878.4	
824.68	5260.5	
824.86	3820.8	
825.03	4276.8	
825.2	5162.9	
825.37	6354.8	
825.55	3726.6	
825.72	4254.3	
825.89	7073	
826.06	6482.5	
826.24	4141.7	
826.41	4108.9	
826.58	6361	
826.75	5490.6	
826.92	3235.1	
827.1	3667.2	
827.27	8790.6	
827.44	6948.8	
827.61	3870.7	
827.79	4728.8	
827.96	4914.4	
828.13	5372.5	
828.3	4031.1	
828.47	3457.7	
828.65	5449.6	
828.82	5392.3	
828.99	5358.9	
829.16	4690.5	
829.34	5816.9	
829.51	5657.2	
829.68	4227.7	
829.85	4524.6	
830.02	6100.2	
830.2	5862	
830.37	3224.9	
830.54	5166.3	
830.71	6653.9	
830.88	5150.6	
831.05	3273.3	
831.23	3800.3	
831.4	6398.5	
831.57	7311.2	
831.74	3945.8	
831.91	3465.8	
832.09	5364.3	
832.26	5845.6	
832.43	4096.6	
832.6	4619.5	
832.77	5469.4	
832.94	6182.1	
833.12	3223.5	
833.29	3990.1	
833.46	4999.8	
833.63	7483.3	
833.8	4479.6	
833.97	4093.9	
834.15	5888.6	
834.32	5616.9	
834.49	4240.7	
834.66	4315.8	
834.83	6079.7	
835	4935.6	
835.17	3913	
835.35	3945.8	
835.52	5730.2	
835.69	5617.6	
835.86	4227	
836.03	3342.3	
836.2	5784.1	
836.37	5362.9	
836.55	4057	
836.72	3766.2	
836.89	5354.1	
837.06	5813.5	
837.23	4139.6	
837.4	4659.8	
837.57	6713.2	
837.75	7510.6	
837.92	3713.6	
838.09	3984	
838.26	5321.3	
838.43	6183.5	
838.6	4296.6	
838.77	3809.9	
838.94	7095.5	
839.11	6754.9	
839.29	4103.4	
839.46	3246.7	
839.63	5760.9	
839.8	5562.3	
839.97	3941.7	
840.14	3928	
840.31	5553.4	
840.48	5793	
840.65	3292.5	
840.82	3866.6	
841	5890	
841.17	5846.3	
841.34	3625.6	
841.51	3665.2	
841.68	5735.7	
841.85	5492	
842.02	3827	
842.19	3125.2	
842.36	5564.3	
842.53	5577.3	
842.7	3444.7	
842.87	4511	
843.05	7358.4	
843.22	5449.6	
843.39	3405.8	
843.56	3778.5	
843.73	5174.5	
843.9	5847.6	
844.07	6012.2	
844.24	4968.4	
844.41	8686.8	
844.58	4987.5	
844.75	3506.1	
844.92	3766.9	
845.09	5820.3	
845.26	5791	
845.43	3599	
845.6	3785.3	
845.77	5831.2	
845.94	5567.1	
846.12	4059.8	
846.29	4293.9	
846.46	6013.5	
846.63	5746.6	
846.8	3646.7	
846.97	4315.1	
847.14	6279.1	
847.31	5735.7	
847.48	4069.3	
847.65	4552	
847.82	6063.4	
847.99	6106.4	
848.16	4928.1	
848.33	4539	
848.5	5400.5	
848.67	6381.5	
848.84	3601.7	
849.01	3813.3	
849.18	5229.8	
849.35	4856.4	
849.52	4625.7	
849.69	3445.4	
849.86	6029.9	
850.03	6324.1	
850.2	3621.5	
850.37	4445.5	
850.54	6210.8	
850.71	5508.4	
850.88	4391.5	
851.05	3549.8	
851.22	5713.2	
851.39	6386.9	
851.56	3425.6	
851.73	4154	
851.9	5042.1	
852.07	6083.8	
852.24	4034.5	
852.41	3647.4	
852.58	5646.9	
852.75	5195.7	
852.92	4062.5	
853.09	3545.7	
853.26	5406.6	
853.43	6255.2	
853.6	3559.4	
853.77	3051.5	
853.94	6412.9	
854.11	5043.5	
854.28	5406.6	
854.44	3869.3	
854.61	6858.6	
854.78	5943.2	
854.95	3530.7	
855.12	4532.2	
855.29	4665.3	
855.46	6596.5	
855.63	3580.5	
855.8	5053	
855.97	5353.4	
856.14	6222.4	
856.31	5151.3	
856.48	3891.8	
856.65	5357.5	
856.82	5033.2	
856.99	3443.3	
857.16	3909.6	
857.33	7167.2	
857.49	5455.8	
857.66	3865.9	
857.83	4244.8	
858	5349.3	
858.17	5588.9	
858.34	3408.5	
858.51	3647.4	
858.68	6574	
858.85	6580.8	
859.02	4179.2	
859.19	4478.9	
859.36	5031.2	
859.52	5163.6	
859.69	3631.7	
859.86	4299.4	
860.03	5150	
860.2	6446.3	
860.37	3238.5	
860.54	3633.1	
860.71	6018.3	
860.88	6556.2	
861.05	4048.8	
861.21	4661.9	
861.38	6528.9	
861.55	4947.9	
861.72	3276.1	
861.89	4042	
862.06	6161	
862.23	6603.3	
862.4	3527.3	
862.56	3774.4	
862.73	5887.2	
862.9	5616.9	
863.07	4245.4	
863.24	3235.8	
863.41	4971.1	
863.58	5108.3	
863.75	3704.1	
863.91	4219.5	
864.08	6465.4	
864.25	5981.4	
864.42	4584	
864.59	5079.6	
864.76	6819.1	
864.93	5070.1	
865.09	3523.2	
865.26	3889.8	
865.43	6291.4	
865.6	6748.1	
865.77	3123.2	
865.94	3562.1	
866.1	6333	
866.27	6128.9	
866.44	5477.6	
866.61	3389.4	
866.78	5458.5	
866.95	5991	
867.11	3497.2	
867.28	3190.7	
867.45	6234.7	
867.62	5133.6	
867.79	4291.2	
867.96	3549.1	
868.12	5068	
868.29	6081.1	
868.46	3623.5	
868.63	4868	
868.8	6248.4	
868.97	5982.1	
869.13	3790.8	
869.3	3773.7	
869.47	5923.4	
869.64	6126.2	
869.81	3702	
869.97	3668.6	
870.14	5851.7	
870.31	6524.8	
870.48	3547.1	
870.65	4582	
870.81	5414.1	
870.98	5397.1	
871.15	4096.6	
871.32	3767.6	
871.48	5859.9	
871.65	6594.5	
871.82	3609.9	
871.99	3972.4	
872.16	7059.3	
872.32	6401.3	
872.49	3607.8	
872.66	3670.6	
872.83	6087.9	
872.99	5248.9	
873.16	4179.2	
873.33	3530	
873.5	5642.2	
873.67	5703.6	
873.83	3848.1	
874	4846.9	
874.17	5815.5	
874.34	7010.2	
874.5	4698	
874.67	4547.9	
874.84	6612.2	
875.01	5044.8	
875.17	5098.8	
875.34	3592.1	
875.51	5765	
875.68	6948.1	
875.84	4404.5	
876.01	5367.7	
876.18	5997.1	
876.34	5948	
876.51	3635.1	
876.68	3538.9	
876.85	5446.2	
877.01	6337.8	
877.18	5234.6	
877.35	3564.8	
877.52	5597.1	
877.68	5042.1	
877.85	3521.1	
878.02	3570.3	
878.18	5601.2	
878.35	5262.6	
878.52	2883.5	
878.69	4042.7	
878.85	5980.8	
879.02	6056.5	
879.19	5188.9	
879.35	3906.2	
879.52	6006	
879.69	6246.3	
879.86	3081.5	
880.02	4065.2	
880.19	5619.6	
880.36	6776.7	
880.52	4233.2	
880.69	4311.7	
880.86	6164.4	
881.02	6195.8	
881.19	4033.8	
881.36	3959.4	
881.52	6004	
881.69	5284.4	
881.86	3900.7	
882.02	3804.4	
882.19	6307.1	
882.36	7501	
882.52	3695.9	
882.69	5136.3	
882.86	5847	
883.02	5665.4	
883.19	4418.2	
883.36	4156.7	
883.52	6162.3	
883.69	7014.3	
883.86	3685	
884.02	3248.8	
884.19	6101.6	
884.36	5596.4	
884.52	4093.2	
884.69	3871.3	
884.86	5302.9	
885.02	6716.7	
885.19	4024.3	
885.36	4212.7	
885.52	5651	
885.69	5838.8	
885.86	5268.7	
886.02	4578.6	
886.19	6068.1	
886.35	5551.4	
886.52	3971.7	
886.69	5141.1	
886.85	5124	
887.02	6508.4	
887.19	6508.4	
887.35	6508.4	
887.52	6508.4	
887.68	6508.4	
887.85	6508.4	
888.02	6508.4	
888.18	6508.4	
888.35	6508.4	
888.51	6508.4	
888.68	6508.4	
888.85	6508.4	
889.01	6508.4	
889.18	6508.4	
889.35	6508.4	
889.51	6508.4	
889.68	6508.4	
889.84	6508.4	
890.01	6508.4	
890.17	6508.4	
890.34	6508.4	
890.51	6508.4	
890.67	6508.4	
890.84	6508.4	
891	6508.4	
891.17	6508.4	
891.34	6508.4	
891.5	6508.4	
891.67	6508.4	
891.83	6508.4	
892	6508.4	
892.16	6508.4	
892.33	6508.4	
892.5	6508.4	
892.66	6508.4	
892.83	6508.4	
892.99	6508.4	
893.16	6508.4	
893.32	6508.4	
893.49	6508.4	
893.65	6508.4	
893.82	6508.4	
893.99	6508.4	
894.15	6508.4	
894.32	6508.4	
894.48	6508.4	
894.65	6508.4	
894.81	6508.4	
894.98	6508.4	
895.14	6508.4	
895.31	6508.4	
895.47	6508.4	
895.64	6508.4	
895.81	6508.4	
895.97	6508.4	
896.14	6508.4	
896.3	6508.4	
896.47	6508.4	
896.63	6508.4	
896.8	6508.4	
896.96	6508.4	
897.13	6508.4	
897.29	6508.4	
897.46	6508.4	
897.62	6508.4	
897.79	6508.4	
897.95	6508.4	
898.12	6508.4	
898.28	6508.4	
898.45	6508.4	
898.61	6508.4	
898.78	6508.4	
898.94	6508.4	
899.11	6508.4	
899.27	6508.4	
899.44	6508.4	
899.6	6508.4	
899.77	6508.4	
899.93	6508.4	
900.1	6508.4	
900.26	6508.4	
900.43	6508.4	
900.59	6508.4	
900.76	6508.4	
900.92	6508.4	
901.09	6508.4	
901.25	6508.4	
901.42	6508.4	
901.58	6508.4	
901.75	6508.4	
901.91	6508.4	
902.07	6508.4	
902.24	6508.4	
902.4	6508.4	
902.57	6508.4	
902.73	6508.4	
902.9	6508.4	
903.06	6508.4	
903.23	6508.4	
903.39	6508.4	
903.56	6508.4	
903.72	6508.4	
903.88	6508.4	
904.05	6508.4	
904.21	6508.4	
904.38	6508.4	
904.54	6508.4	
904.71	6508.4	
904.87	6508.4	
905.03	6508.4	
905.2	6508.4	
905.36	6508.4	
905.53	6508.4	
905.69	6508.4	
905.86	6508.4	
906.02	6508.4	
906.18	6508.4	
906.35	6508.4	
906.51	6508.4	
906.68	6508.4	
906.84	6508.4	
907.01	6508.4	
907.17	6508.4	
907.33	6508.4	
907.5	6508.4	
907.66	6508.4	
907.83	6508.4	
907.99	6508.4	
908.15	6508.4	
908.32	6508.4	
908.48	6508.4	
908.65	6508.4	
908.81	6508.4	
908.97	6508.4	
909.14	6508.4	
909.3	6508.4	
909.47	6508.4	
909.63	6508.4	
909.79	6508.4	
909.96	6508.4	
910.12	6508.4	
910.28	6508.4	
910.45	6508.4	
910.61	6508.4	
910.78	6508.4	
910.94	6508.4	
911.1	6508.4	
911.27	6508.4	
911.43	6508.4	
911.59	6508.4	
911.76	6508.4	
911.92	6508.4	
912.08	6508.4	
912.25	6508.4	
912.41	6508.4	
912.57	6508.4	
912.74	6508.4	
912.9	6508.4	
913.07	6508.4	
913.23	6508.4	
913.39	6508.4	
913.56	6508.4	
913.72	6508.4	
913.88	6508.4	
914.05	6508.4	
914.21	6508.4	
914.37	6508.4	
914.54	6508.4	
914.7	6508.4	
914.86	6508.4	
915.03	6508.4	
915.19	6508.4	
