Wavelength	Intensities	
nm	a.u.	
179.22	1935	
179.44	1940.8	
179.65	1929.2	
179.86	1952.4	
180.08	1880	
180.29	4914.4	
180.51	3506.1	
180.72	5663.3	
180.94	6627.2	
181.15	3270.6	
181.37	3142.9	
181.58	5515.9	
181.79	5764.3	
182.01	3374.4	
182.22	3635.8	
182.44	5746.6	
182.65	4844.8	
182.87	4575.2	
183.08	3978.5	
183.29	6061.3	
183.51	5067.4	
183.72	3661.8	
183.94	5375.9	
184.15	5362.9	
184.37	5442.8	
184.58	3235.8	
184.79	4477.5	
185.01	5051.7	
185.22	5788.9	
185.44	4717.8	
185.65	3898.6	
185.86	5262.6	
186.08	4898.7	
186.29	3171.6	
186.51	3411.2	
186.72	5026.4	
186.94	5954.8	
187.15	3930.7	
187.36	4029	
187.58	7777.5	
187.79	5556.8	
188.01	4194.2	
188.22	6565.1	
188.43	6655.2	
188.65	5762.3	
188.86	3362.8	
189.08	4004.5	
189.29	5234.6	
189.5	5226.4	
189.72	3755.3	
189.93	3884.3	
190.15	5937.1	
190.36	7154.2	
190.57	4163.5	
190.79	3988.1	
191	6077.7	
191.22	6002.6	
191.43	4093.9	
191.64	3377.1	
191.86	6319.3	
192.07	6051.1	
192.29	3579.8	
192.5	3808.5	
192.71	5991.7	
192.93	5182	
193.14	3723.9	
193.35	3782.6	
193.57	5186.1	
193.78	5941.8	
194	3013.9	
194.21	3691.8	
194.42	4990.9	
194.64	5466	
194.85	4053.6	
195.07	4729.4	
195.28	5543.9	
195.49	4720.6	
195.71	5048.2	
195.92	3467.9	
196.13	5625.8	
196.35	5709.1	
196.56	5463.3	
196.78	4087.7	
196.99	7053.9	
197.2	6668.2	
197.42	4576.5	
197.63	4050.9	
197.84	4878.9	
198.06	5638.1	
198.27	3790.1	
198.48	5016.8	
198.7	5263.3	
198.91	5327.4	
199.13	4097.3	
199.34	4079.6	
199.55	5867.4	
199.77	4764.9	
199.98	3578.5	
200.19	4168.3	
200.41	5244.8	
200.62	5042.1	
200.83	4268.6	
201.05	4494.6	
201.26	5355.4	
201.47	5079	
201.69	3616.7	
201.9	3452.9	
202.11	5365	
202.33	6408.1	
202.54	3921.2	
202.76	4412.7	
202.97	5579.3	
203.18	5539.1	
203.4	4338.3	
203.61	4186	
203.82	5507.7	
204.04	5111.7	
204.25	4073.4	
204.46	4074.1	
204.68	5436	
204.89	5674.9	
205.1	3988.1	
205.32	3487	
205.53	5866.1	
205.74	5997.1	
205.96	2950.4	
206.17	4154	
206.38	5829.2	
206.6	5957.5	
206.81	4660.5	
207.02	3837.9	
207.24	5661.3	
207.45	6072.9	
207.66	3833.8	
207.88	3345	
208.09	5604.6	
208.3	5491.3	
208.52	3577.8	
208.73	3967.6	
208.94	5470.1	
209.15	6128.2	
209.37	3862.5	
209.58	4079.6	
209.79	6000.5	
210.01	5255.1	
210.22	3131.3	
210.43	3270.6	
210.65	5378	
210.86	5896.8	
211.07	3936.2	
211.29	3646.7	
211.5	5798.5	
211.71	5415.5	
211.93	3627	
212.14	3529.3	
212.35	5372.5	
212.56	5651	
212.78	4074.1	
212.99	3422.8	
213.2	6413.6	
213.42	5155.4	
213.63	3711.6	
213.84	3947.1	
214.06	4839.4	
214.27	4872.1	
214.48	3883.6	
214.69	4092.5	
214.91	6126.2	
215.12	6202.6	
215.33	4177.9	
215.55	4631.1	
215.76	6738.5	
215.97	5883.8	
216.18	4070	
216.4	3996.3	
216.61	5097.4	
216.82	5927.5	
217.04	3629.7	
217.25	3706.1	
217.46	6149.4	
217.67	5849	
217.89	3194.1	
218.1	3338.9	
218.31	5530.9	
218.53	5569.8	
218.74	3763.5	
218.95	3670.6	
219.16	5418.2	
219.38	6285.2	
219.59	3665.9	
219.8	4410	
220.01	6982.2	
220.23	5484.5	
220.44	4846.9	
220.65	3579.8	
220.87	5507.7	
221.08	6090.7	
221.29	3284.9	
221.5	4493.2	
221.72	7459.4	
221.93	5155.4	
222.14	4178.5	
222.35	4817.5	
222.57	5481	
222.78	5819	
222.99	3906.8	
223.2	4240.7	
223.42	5728.9	
223.63	5860.6	
223.84	2956.6	
224.05	2996.9	
224.27	6945.3	
224.48	6333	
224.69	4848.2	
224.9	4099.4	
225.12	5659.2	
225.33	5398.4	
225.54	3291.1	
225.75	3688.4	
225.97	5014.8	
226.18	5324	
226.39	4008.6	
226.6	3683.6	
226.82	5189.6	
227.03	5035.3	
227.24	4114.4	
227.45	3386.7	
227.67	5833.3	
227.88	6393.8	
228.09	4575.8	
228.3	4613.4	
228.52	5850.4	
228.73	5361.6	
228.94	3828.3	
229.15	3390.8	
229.36	5320.6	
229.58	5227.1	
229.79	3850.9	
230	4494.6	
230.21	6481.8	
230.43	5538.4	
230.64	4046.8	
230.85	4248.9	
231.06	5870.8	
231.28	5862.7	
231.49	3388.7	
231.7	3966.9	
231.91	5778.7	
232.12	5477.6	
232.34	3495.2	
232.55	3994.9	
232.76	6055.8	
232.97	5655.8	
233.18	3580.5	
233.4	4037.9	
233.61	5754.8	
233.82	5177.9	
234.03	3759.4	
234.25	3657	
234.46	7632.1	
234.67	5497.4	
234.88	4218.1	
235.09	3663.1	
235.31	5724.8	
235.52	5301.5	
235.73	4048.2	
235.94	3418.7	
236.15	5159.5	
236.37	6565.1	
236.58	3609.9	
236.79	3974.4	
237	5782.8	
237.21	4947.9	
237.43	4228.4	
237.64	3302	
237.85	9950.4	
238.06	5045.5	
238.27	4240.7	
238.48	3477.5	
238.7	5795.1	
238.91	5253	
239.12	3876.1	
239.33	3932.8	
239.54	5036	
239.76	5418.2	
239.97	3844	
240.18	3963.5	
240.39	6801.3	
240.6	5731.6	
240.82	4044.7	
241.03	3331.4	
241.24	5440.1	
241.45	6271.6	
241.66	3547.8	
241.87	4238.6	
242.09	6285.9	
242.3	6510.5	
242.51	4324.6	
242.72	3939.6	
242.93	5945.3	
243.14	5414.1	
243.36	4575.2	
243.57	4901.5	
243.78	6307.1	
243.99	5829.2	
244.2	3944.4	
244.41	3548.4	
244.63	4990.9	
244.84	5757.5	
245.05	4162.8	
245.26	3970.3	
245.47	5681.7	
245.68	6044.9	
245.9	5237.3	
246.11	4074.1	
246.32	5238	
246.53	5679	
246.74	6416.3	
246.95	3308.2	
247.16	4910.3	
247.38	5441.5	
247.59	3277.4	
247.8	4015.4	
248.01	5124.7	
248.22	5390.3	
248.43	3546.4	
248.64	3833.1	
248.86	4817.5	
249.07	5162.9	
249.28	3452.2	
249.49	4014.7	
249.7	5987.6	
249.91	6109.1	
250.12	3215.3	
250.34	3319.8	
250.55	5519.3	
250.76	5432.6	
250.97	4136.9	
251.18	4104.8	
251.39	6152.1	
251.6	5602.6	
251.81	4121.9	
252.03	4134.8	
252.24	5130.8	
252.45	5957.5	
252.66	3417.4	
252.87	4375.1	
253.08	5435.3	
253.29	7203.4	
253.5	3430.3	
253.72	4801.8	
253.93	5293.3	
254.14	6488.6	
254.35	3747.8	
254.56	3822.9	
254.77	5723.4	
254.98	5020.3	
255.19	3694.5	
255.41	4760.8	
255.62	5567.7	
255.83	6110.5	
256.04	4203.8	
256.25	4154	
256.46	6746	
256.67	5166.3	
256.88	4065.9	
257.09	4499.4	
257.31	5090.6	
257.52	5113.8	
257.73	5071.5	
257.94	3688.4	
258.15	5261.2	
258.36	5493.3	
258.57	4743.8	
258.78	2992.1	
258.99	5958.2	
259.2	5308.3	
259.41	3736.9	
259.63	3850.9	
259.84	6270.9	
260.05	6754.2	
260.26	4926.7	
260.47	3695.2	
260.68	6021.7	
260.89	5394.3	
261.1	4582.7	
261.31	3596.9	
261.52	6008.7	
261.73	6498.9	
261.95	4867.3	
262.16	4237.2	
262.37	6204.7	
262.58	6296.1	
262.79	4817.5	
263	3806.5	
263.21	5414.8	
263.42	4930.8	
263.63	3875.4	
263.84	3799.7	
264.05	5982.8	
264.26	6425.8	
264.47	4691.2	
264.69	4219.5	
264.9	6121.4	
265.11	5648.3	
265.32	3648.8	
265.53	3756.7	
265.74	5575.3	
265.95	4894	
266.16	3964.9	
266.37	4397	
266.58	5616.2	
266.79	5305.6	
267	3670.6	
267.21	3491.8	
267.42	5038	
267.63	5425.8	
267.84	3898.6	
268.06	3346.4	
268.27	5940.5	
268.48	6201.9	
268.69	3792.2	
268.9	4542.4	
269.11	6249	
269.32	4914.4	
269.53	3906.2	
269.74	3646.7	
269.95	5818.3	
270.16	4801.1	
270.37	3939.6	
270.58	4536.3	
270.79	5287.9	
271	5915.9	
271.21	4241.3	
271.42	3996.3	
271.63	5588.9	
271.84	5143.8	
272.05	3164.8	
272.26	3502.7	
272.47	5559.6	
272.68	5687.2	
272.89	3800.3	
273.11	4354	
273.32	5276.3	
273.53	6415.6	
273.74	4253.6	
273.95	4164.9	
274.16	6148	
274.37	5477.6	
274.58	4267.3	
274.79	3457	
275	5588.2	
275.21	6130.9	
275.42	5171.8	
275.63	4528.7	
275.84	5741.1	
276.05	7262.8	
276.26	4151.9	
276.47	3881.6	
276.68	5258.5	
276.89	6477	
277.1	4457.7	
277.31	3452.2	
277.52	5685.8	
277.73	5869.5	
277.94	3401	
278.15	3837.9	
278.36	5621	
278.57	5090.6	
278.78	3762.1	
278.99	4222.2	
279.2	5113.8	
279.41	4990.9	
279.62	5008	
279.83	3483.6	
280.04	6721.4	
280.25	5029.8	
280.46	4973.8	
280.67	3927.3	
280.88	5066.7	
281.09	6125.5	
281.3	4090.5	
281.51	5267.4	
281.72	5949.3	
281.93	5979.4	
282.14	3667.2	
282.35	3978.5	
282.56	5933	
282.77	5928.9	
282.98	3833.1	
283.19	4637.3	
283.4	7272.3	
283.61	5360.9	
283.82	3502	
284.03	4876.9	
284.24	5550.7	
284.45	6081.8	
284.66	4861.2	
284.87	4697.4	
285.08	6090	
285.29	6195.1	
285.5	3320.4	
285.71	3886.4	
285.92	6155.5	
286.12	6770.6	
286.33	4844.8	
286.54	3846.8	
286.75	5983.5	
286.96	5321.3	
287.17	3490.4	
287.38	4794.3	
287.59	5115.8	
287.8	5033.2	
288.01	3865.9	
288.22	4405.2	
288.43	5982.1	
288.64	4940.4	
288.85	4599.7	
289.06	4361.5	
289.27	5862	
289.48	6426.5	
289.69	4935.6	
289.9	4373.1	
290.11	6084.5	
290.32	5139.7	
290.53	4657.8	
290.74	4298.7	
290.94	5919.3	
291.15	5926.1	
291.36	3665.2	
291.57	4445.5	
291.78	5186.8	
291.99	4861.9	
292.2	3545.7	
292.41	4371	
292.62	6007.4	
292.83	5822.4	
293.04	5332.2	
293.25	3543	
293.46	5208	
293.67	6059.3	
293.88	3730	
294.09	3540.9	
294.29	5003.9	
294.5	5629.9	
294.71	3991.5	
294.92	3777.8	
295.13	5202.5	
295.34	6572.6	
295.55	3325.2	
295.76	3391.4	
295.97	5823.7	
296.18	6677.7	
296.39	3527.3	
296.6	3708.9	
296.81	5568.4	
297.01	5928.9	
297.22	3852.2	
297.43	3685.7	
297.64	5126.1	
297.85	5047.6	
298.06	3016.7	
298.27	3313.6	
298.48	5529.5	
298.69	5165	
298.9	4019.5	
299.11	3601.7	
299.31	4973.8	
299.52	4960.2	
299.73	4303.5	
299.94	4222.9	
300.15	5433.9	
300.36	5098.1	
300.57	4230.4	
300.78	4149.2	
300.99	5321.3	
301.2	5622.4	
301.4	3650.8	
301.61	3985.3	
301.82	5819.6	
302.03	5939.1	
302.24	4519.2	
302.45	3506.1	
302.66	5763.7	
302.87	6221.7	
303.08	3682.9	
303.29	4988.9	
303.49	5195.7	
303.7	5578	
303.91	3266.5	
304.12	4853.7	
304.33	4956.1	
304.54	5524.1	
304.75	3741	
304.96	3531.4	
305.16	5841.5	
305.37	6551.5	
305.58	3240.6	
305.79	3304.7	
306	5791.7	
306.21	4894	
306.42	3700	
306.63	5599.1	
306.83	5330.2	
307.04	6101.6	
307.25	4031.8	
307.46	4055	
307.67	4749.9	
307.88	5907.7	
308.09	3654.9	
308.29	3831.7	
308.5	5501.5	
308.71	6085.9	
308.92	3905.5	
309.13	3631	
309.34	5303.6	
309.55	5398.4	
309.75	4570.4	
309.96	4260.5	
310.17	5880.4	
310.38	5212.1	
310.59	4511.7	
310.8	3475.4	
311.01	6328.2	
311.21	5337.7	
311.42	3545.7	
311.63	3619.4	
311.84	5246.9	
312.05	5592.3	
312.26	4150.5	
312.46	4514.4	
312.67	5266.7	
312.88	5011.4	
313.09	3594.2	
313.3	3473.4	
313.51	6255.9	
313.71	6624.5	
313.92	3586	
314.13	3760.8	
314.34	5625.8	
314.55	5408	
314.76	4615.4	
314.96	4048.8	
315.17	5515.9	
315.38	6035.4	
315.59	3594.2	
315.8	3385.3	
316.01	6356.9	
316.21	6425.8	
316.42	3455.6	
316.63	3903.4	
316.84	5313.8	
317.05	6201.9	
317.26	4203.1	
317.46	3772.4	
317.67	5390.9	
317.88	5915.9	
318.09	4504.2	
318.3	3318.4	
318.5	5201.2	
318.71	5823.1	
318.92	5822.4	
319.13	4175.1	
319.34	5969.8	
319.54	6140.5	
319.75	3352.5	
319.96	3163.4	
320.17	5831.9	
320.38	6047.7	
320.58	3258.3	
320.79	3904.1	
321	6046.3	
321.21	6208.1	
321.42	3945.8	
321.62	3259.7	
321.83	5042.8	
322.04	5502.9	
322.25	3763.5	
322.46	3544.4	
322.66	5593.7	
322.87	5738.4	
323.08	4425	
323.29	3522.5	
323.5	6519.4	
323.7	5018.2	
323.91	4889.9	
324.12	4432.5	
324.33	5554.8	
324.53	5770.5	
324.74	4222.2	
324.95	4435.9	
325.16	4859.8	
325.37	5300.1	
325.57	3567.6	
325.78	3655.6	
325.99	5547.3	
326.2	4996.4	
326.4	5015.5	
326.61	3307.5	
326.82	5437.4	
327.03	5553.4	
327.24	5094.7	
327.44	4843.4	
327.65	5743.9	
327.86	4643.4	
328.07	4260.5	
328.27	3429.7	
328.48	6191.7	
328.69	5055.8	
328.9	5150	
329.1	3880.9	
329.31	5352.7	
329.52	6322.8	
329.73	3598.3	
329.93	4083	
330.14	5514.5	
330.35	5760.3	
330.56	5974.6	
330.76	4486.4	
330.97	5275.6	
331.18	5754.8	
331.39	4033.1	
331.59	3254.2	
331.8	6099.5	
332.01	6180.1	
332.22	3657.7	
332.42	4260.5	
332.63	5584.8	
332.84	5167.7	
333.05	4023.6	
333.25	3648.8	
333.46	5281.7	
333.67	5492	
333.88	3713.6	
334.08	4231.1	
334.29	7302.4	
334.5	6212.9	
334.7	3522.5	
334.91	5146.5	
335.12	5058.5	
335.33	5879.7	
335.53	3936.9	
335.74	5816.9	
335.95	5266	
336.16	5059.2	
336.36	4102.8	
336.57	4635.9	
336.78	5006.6	
336.98	5999.2	
337.19	4935.6	
337.4	3919.8	
337.61	6617	
337.81	5017.5	
338.02	3685	
338.23	4788.8	
338.43	6302.3	
338.64	5100.1	
338.85	3640.6	
339.05	4764.9	
339.26	6366.5	
339.47	4934.9	
339.68	3626.3	
339.88	5397.8	
340.09	5758.2	
340.3	6021	
340.5	4207.2	
340.71	3205.8	
340.92	4973.2	
341.13	6227.9	
341.33	3493.8	
341.54	4242	
341.75	5737.7	
341.95	5370.5	
342.16	4058.4	
342.37	4380.6	
342.57	5073.5	
342.78	5434.6	
342.99	4493.2	
343.19	3219.4	
343.4	5917.3	
343.61	5729.5	
343.81	3867.2	
344.02	3478.8	
344.23	5911.1	
344.43	6356.9	
344.64	4457.1	
344.85	4403.8	
345.06	5761.6	
345.26	6210.1	
345.47	4184.7	
345.68	4911.7	
345.88	4872.8	
346.09	5988.9	
346.3	4264.6	
346.5	3202.3	
346.71	5535.7	
346.92	5225.1	
347.12	3287	
347.33	4194.2	
347.54	6145.3	
347.74	6535.8	
347.95	4176.5	
348.16	3088.3	
348.36	5296.7	
348.57	5029.8	
348.78	4138.9	
348.98	4494.6	
349.19	5522	
349.39	4986.8	
349.6	3338.2	
349.81	3713	
350.01	5768.4	
350.22	5253.7	
350.43	4057	
350.63	4880.3	
350.84	5526.8	
351.05	5287.2	
351.25	3717.7	
351.46	3336.8	
351.67	6126.8	
351.87	5220.3	
352.08	3961.5	
352.29	4493.9	
352.49	6017.6	
352.7	6135	
352.9	3605.1	
353.11	4517.1	
353.32	6729.6	
353.52	5363.6	
353.73	3573	
353.94	4517.8	
354.14	5911.1	
354.35	5750.7	
354.55	3708.9	
354.76	4164.2	
354.97	5760.9	
355.17	5687.9	
355.38	3492.5	
355.59	4925.4	
355.79	5301.5	
356	5786.2	
356.2	4113.7	
356.41	3671.3	
356.62	5109.7	
356.82	5535	
357.03	4463.9	
357.24	3978.5	
357.44	5386.2	
357.65	5461.2	
357.85	5423	
358.06	4224.3	
358.27	5122.7	
358.47	5395.7	
358.68	3577.8	
358.88	4466.6	
359.09	5995.1	
359.3	6430.6	
359.5	5242.8	
359.71	4631.1	
359.91	6916.7	
360.12	6232	
360.33	4481	
360.53	5010.7	
360.74	5463.3	
360.94	5510.4	
361.15	4709.6	
361.36	3984.7	
361.56	6263.4	
361.77	5754.1	
361.97	5343.8	
362.18	4230.4	
362.38	6356.9	
362.59	5429.2	
362.8	3965.6	
363	3766.2	
363.21	5199.8	
363.41	5936.4	
363.62	4463.2	
363.83	5552.7	
364.03	6010.8	
364.24	7090.8	
364.44	5672.2	
364.65	5594.4	
364.85	5794.4	
365.06	5423	
365.27	4226.3	
365.47	4253.6	
365.68	6814.3	
365.88	5721.3	
366.09	4635.9	
366.29	4306.9	
366.5	6168.5	
366.71	6482.5	
366.91	5697.4	
367.12	4876.2	
367.32	7150.1	
367.53	6347.3	
367.73	4746.5	
367.94	5753.4	
368.14	6341.9	
368.35	7281.9	
368.56	4759.5	
368.76	4447.5	
368.97	6417	
369.17	8190.5	
369.38	4207.2	
369.58	4465.9	
369.79	5467.4	
369.99	6861.4	
370.2	5595.1	
370.4	4605.2	
370.61	6144.6	
370.82	7294.9	
371.02	4552	
371.23	3850.9	
371.43	5373.9	
371.64	6840.9	
371.84	4683.7	
372.05	5879.7	
372.25	8236.2	
372.46	6670.2	
372.66	4768.4	
372.87	4646.2	
373.07	6737.1	
373.28	8236.9	
373.48	5760.3	
373.69	5452.4	
373.9	6242.9	
374.1	6255.2	
374.31	5819	
374.51	5304.9	
374.72	7165.2	
374.92	5935.7	
375.13	5988.3	
375.33	5199.1	
375.54	6718	
375.74	6182.1	
375.95	5292	
376.15	6604	
376.36	6761.7	
376.56	6668.9	
376.77	5488.6	
376.97	5965.7	
377.18	8005.5	
377.38	7017.7	
377.59	6343.2	
377.79	4990.9	
378	6858.6	
378.2	7365.9	
378.41	5100.1	
378.61	4997	
378.82	7314.7	
379.02	6436.8	
379.23	5237.3	
379.43	6427.9	
379.64	7356.3	
379.84	6995.2	
380.05	5085.8	
380.25	4977.9	
380.46	7096.2	
380.66	6649.1	
380.87	6402.6	
381.07	6786.3	
381.28	7704.5	
381.48	7148.1	
381.69	5082.4	
381.89	5061.2	
382.1	6033.3	
382.3	7188.4	
382.51	6245.6	
382.71	7130.3	
382.91	7051.2	
383.12	7597.3	
383.32	5442.8	
383.53	5628.5	
383.73	6847.7	
383.94	6716	
384.14	5461.9	
384.35	4567.7	
384.55	6526.2	
384.76	7023.2	
384.96	5334.3	
385.17	5638.1	
385.37	7015.7	
385.58	6164.4	
385.78	5664.7	
385.98	4472.8	
386.19	6433.4	
386.39	6866.8	
386.6	5144.5	
386.8	5352	
387.01	7093.5	
387.21	7118.7	
387.42	5922.7	
387.62	6544.6	
387.83	6392.4	
388.03	7189.7	
388.23	5651.7	
388.44	6432.7	
388.64	6135	
388.85	6378.7	
389.05	6039.5	
389.26	6699.6	
389.46	8356.4	
389.67	7831.4	
389.87	6042.2	
390.07	6154.1	
390.28	6912.6	
390.48	6509.1	
390.69	5294.7	
390.89	5503.6	
391.1	6691.4	
391.3	7730.4	
391.5	6846.4	
391.71	7421.8	
391.91	7410.9	
392.12	8566.7	
392.32	6903.7	
392.53	6051.1	
392.73	6775.4	
392.93	6933.7	
393.14	5731.6	
393.34	6447.7	
393.55	7350.8	
393.75	6851.8	
393.95	5635.3	
394.16	5594.4	
394.36	6574	
394.57	7337.2	
394.77	5185.5	
394.98	5571.2	
395.18	6757.6	
395.38	7076.4	
395.59	6691.4	
395.79	5633.3	
396	7000.6	
396.2	7479.2	
396.4	6589.7	
396.61	6487.3	
396.81	7752.9	
397.02	7055.9	
397.22	6951.5	
397.42	6946.7	
397.63	7849.2	
397.83	7036.1	
398.04	5722	
398.24	6350.1	
398.44	7543.4	
398.65	6677.7	
398.85	5712.5	
399.05	5808.7	
399.26	7148.8	
399.46	8824.7	
399.67	6231.3	
399.87	5948	
400.07	7526.3	
400.28	7944.1	
400.48	6136.4	
400.69	7243.7	
400.89	8342.7	
401.09	8729.8	
401.3	6108.4	
401.5	7298.3	
401.7	9083.4	
401.91	9187.9	
402.11	6435.4	
402.32	6607.4	
402.52	8153.6	
402.72	8046.5	
402.93	6695.5	
403.13	5339.1	
403.33	8667.7	
403.54	7228	
403.74	6142.5	
403.94	7001.3	
404.15	7320.1	
404.35	8632.2	
404.56	6015.6	
404.76	7978.9	
404.96	8075.8	
405.17	7778.9	
405.37	7970.7	
405.57	6792.4	
405.78	8353.7	
405.98	7626	
406.18	6371.9	
406.39	7220.5	
406.59	8120.9	
406.79	7682.6	
407	5927.5	
407.2	5968.5	
407.4	8102.4	
407.61	8424.7	
407.81	6238.1	
408.01	8338.6	
408.22	7477.8	
408.42	9669.8	
408.62	7987.8	
408.83	7434.1	
409.03	8520.9	
409.23	8353	
409.44	7660.1	
409.64	8005.5	
409.84	9714.2	
410.05	9701.9	
410.25	7992.5	
410.45	7804.8	
410.66	9267.1	
410.86	11769	
411.06	8547.5	
411.27	8221.9	
411.47	11828	
411.67	9586.5	
411.88	8574.2	
412.08	9073.9	
412.28	10475	
412.49	10800	
412.69	8529.1	
412.89	8561.2	
413.09	10679	
413.3	10615	
413.5	8749.6	
413.7	8366.6	
413.91	9913.5	
414.11	10857	
414.31	8644.5	
414.52	9307.3	
414.72	10449	
414.92	10646	
415.12	8636.3	
415.33	9306	
415.53	10996	
415.73	11157	
415.94	9503.9	
416.14	9066.4	
416.34	9968.1	
416.55	9776.3	
416.75	10368	
416.95	9739.5	
417.15	11203	
417.36	11689	
417.56	10766	
417.76	9740.8	
417.97	11690	
418.17	11348	
418.37	9288.2	
418.57	9410.4	
418.78	10972	
418.98	10663	
419.18	10335	
419.38	10148	
419.59	10677	
419.79	10111	
419.99	9137.4	
420.2	9503.9	
420.4	11151	
420.6	11275	
420.8	9122.3	
421.01	8988.5	
421.21	11198	
421.41	11303	
421.61	9600.9	
421.82	9232.9	
422.02	10606	
422.22	11357	
422.42	10112	
422.63	9306	
422.83	10641	
423.03	11839	
423.23	9542.9	
423.44	8509.3	
423.64	10639	
423.84	10189	
424.04	8860.2	
424.25	8579.6	
424.45	11487	
424.65	11307	
424.85	8340.7	
425.06	8940.1	
425.26	11468	
425.46	9992	
425.66	9472.5	
425.87	9072.5	
426.07	11244	
426.27	10968	
426.47	9298.5	
426.67	8540	
426.88	11342	
427.08	10770	
427.28	9592.7	
427.48	8499.1	
427.69	9660.3	
427.89	10538	
428.09	9412.5	
428.29	8574.8	
428.5	11174	
428.7	10591	
428.9	8535.9	
429.1	8997.4	
429.3	10589	
429.51	11103	
429.71	8804.2	
429.91	9807	
430.11	11116	
430.31	11389	
430.52	9338.1	
430.72	9720.3	
430.92	11705	
431.12	11189	
431.32	9018.6	
431.53	9245.9	
431.73	10056	
431.93	11669	
432.13	8918.9	
432.33	8812.4	
432.54	10606	
432.74	11116	
432.94	9075.2	
433.14	9897.2	
433.34	11216	
433.55	10972	
433.75	9987.9	
433.95	12024	
434.15	11095	
434.35	10969	
434.56	9170.8	
434.76	8874.5	
434.96	11239	
435.16	11694	
435.36	9222	
435.56	10457	
435.77	11138	
435.97	11258	
436.17	11370	
436.37	10428	
436.57	11078	
436.78	11144	
436.98	12194	
437.18	11077	
437.38	11969	
437.58	11173	
437.78	11146	
437.99	9611.1	
438.19	11503	
438.39	12221	
438.59	9514.9	
438.79	8953.7	
438.99	12069	
439.2	10992	
439.4	9037.7	
439.6	9171.5	
439.8	11642	
440	12779	
440.2	10715	
440.4	10877	
440.61	12379	
440.81	12990	
441.01	9956.5	
441.21	10965	
441.41	13007	
441.61	12433	
441.81	11334	
442.02	12414	
442.22	13308	
442.42	12497	
442.62	10135	
442.82	10170	
443.02	12930	
443.22	12157	
443.43	10903	
443.63	10342	
443.83	11858	
444.03	11966	
444.23	11771	
444.43	11252	
444.63	12390	
444.83	13575	
445.04	10494	
445.24	11832	
445.44	12580	
445.64	12651	
445.84	10912	
446.04	11094	
446.24	11645	
446.44	12720	
446.65	9996.8	
446.85	10682	
447.05	11761	
447.25	12610	
447.45	10675	
447.65	10048	
447.85	12097	
448.05	11615	
448.25	11345	
448.46	11027	
448.66	12106	
448.86	11712	
449.06	10057	
449.26	11168	
449.46	12622	
449.66	11613	
449.86	10903	
450.06	10845	
450.26	11792	
450.47	12456	
450.67	10937	
450.87	11393	
451.07	12573	
451.27	12580	
451.47	10221	
451.67	11057	
451.87	12256	
452.07	13205	
452.27	10908	
452.47	10690	
452.67	12262	
452.88	13074	
453.08	9895.8	
453.28	12140	
453.48	13769	
453.68	12177	
453.88	10700	
454.08	10974	
454.28	13009	
454.48	12622	
454.68	11595	
454.88	12109	
455.08	13069	
455.28	13291	
455.48	10701	
455.68	11635	
455.89	13790	
456.09	13656	
456.29	11225	
456.49	11489	
456.69	13885	
456.89	12992	
457.09	12070	
457.29	12623	
457.49	13547	
457.69	13935	
457.89	12321	
458.09	11457	
458.29	13690	
458.49	14369	
458.69	12791	
458.89	12144	
459.09	14801	
459.29	14820	
459.49	12114	
459.69	13087	
459.9	14093	
460.1	13895	
460.3	11904	
460.5	11780	
460.7	14291	
460.9	14007	
461.1	11666	
461.3	13242	
461.5	15143	
461.7	14837	
461.9	12663	
462.1	12743	
462.3	14354	
462.5	15111	
462.7	12660	
462.9	12972	
463.1	16331	
463.3	16223	
463.5	13099	
463.7	14622	
463.9	15131	
464.1	15563	
464.3	13918	
464.5	13762	
464.7	15883	
464.9	15830	
465.1	15467	
465.3	14373	
465.5	16325	
465.7	16152	
465.9	14932	
466.1	14239	
466.3	16595	
466.5	15881	
466.7	15917	
466.9	14374	
467.1	16440	
467.3	17213	
467.5	15948	
467.7	14698	
467.9	17365	
468.1	18396	
468.3	15300	
468.5	15980	
468.7	16454	
468.9	16320	
469.1	15053	
469.3	15967	
469.5	18535	
469.7	16057	
469.9	15382	
470.1	14897	
470.3	16405	
470.5	16513	
470.7	16159	
470.9	14784	
471.1	16259	
471.3	16322	
471.5	14701	
471.69	16524	
471.89	15937	
472.09	15485	
472.29	15532	
472.49	15511	
472.69	15753	
472.89	16521	
473.09	14573	
473.29	14261	
473.49	15743	
473.69	15729	
473.89	15313	
474.09	14545	
474.29	17141	
474.49	16703	
474.69	15401	
474.89	14669	
475.09	15997	
475.29	15986	
475.49	13975	
475.69	14426	
475.88	17246	
476.08	16042	
476.28	13971	
476.48	14180	
476.68	16264	
476.88	16090	
477.08	13956	
477.28	14519	
477.48	15500	
477.68	16242	
477.88	14160	
478.08	14298	
478.28	16918	
478.48	15868	
478.67	14524	
478.87	13636	
479.07	16838	
479.27	15943	
479.47	14476	
479.67	14685	
479.87	16450	
480.07	17052	
480.27	13975	
480.47	15505	
480.67	16110	
480.87	16817	
481.06	14182	
481.26	15124	
481.46	16128	
481.66	16115	
481.86	14723	
482.06	15685	
482.26	15827	
482.46	16695	
482.66	14573	
482.86	14250	
483.05	16378	
483.25	15710	
483.45	17294	
483.65	14823	
483.85	16102	
484.05	16398	
484.25	15281	
484.45	16133	
484.65	17320	
484.84	17617	
485.04	14958	
485.24	14978	
485.44	17596	
485.64	16066	
485.84	14506	
486.04	15944	
486.24	16580	
486.44	16859	
486.63	14584	
486.83	15666	
487.03	16649	
487.23	17119	
487.43	14772	
487.63	17364	
487.83	17094	
488.02	17989	
488.22	15955	
488.42	16838	
488.62	18063	
488.82	16901	
489.02	15517	
489.22	15947	
489.41	17838	
489.61	17623	
489.81	15323	
490.01	15625	
490.21	18129	
490.41	18555	
490.61	15545	
490.8	15522	
491	17342	
491.2	16460	
491.4	15887	
491.6	14934	
491.8	16901	
491.99	17129	
492.19	14875	
492.39	15358	
492.59	17948	
492.79	18122	
492.99	16639	
493.18	15920	
493.38	18399	
493.58	19723	
493.78	16918	
493.98	16498	
494.18	18482	
494.37	18139	
494.57	17664	
494.77	17395	
494.97	19269	
495.17	19769	
495.37	17390	
495.56	17663	
495.76	20115	
495.96	19621	
496.16	18756	
496.36	17763	
496.55	19795	
496.75	19514	
496.95	17982	
497.15	17973	
497.35	19848	
497.54	19950	
497.74	17735	
497.94	19688	
498.14	20702	
498.34	20603	
498.53	17888	
498.73	18587	
498.93	19673	
499.13	20184	
499.33	18442	
499.52	18882	
499.72	20484	
499.92	20607	
500.12	18421	
500.32	18634	
500.51	20569	
500.71	20609	
500.91	19282	
501.11	19048	
501.31	20562	
501.5	20845	
501.7	19585	
501.9	18572	
502.1	20254	
502.29	20596	
502.49	19181	
502.69	19223	
502.89	20404	
503.09	20310	
503.28	17512	
503.48	17838	
503.68	19217	
503.88	19345	
504.07	18703	
504.27	18147	
504.47	19844	
504.67	19590	
504.86	18669	
505.06	18123	
505.26	19166	
505.46	21000	
505.65	17933	
505.85	17951	
506.05	18746	
506.25	19357	
506.44	17100	
506.64	17900	
506.84	18712	
507.04	19578	
507.23	17113	
507.43	17712	
507.63	20824	
507.83	18979	
508.02	17755	
508.22	17350	
508.42	20858	
508.62	18690	
508.81	17400	
509.01	18194	
509.21	18241	
509.4	18851	
509.6	17654	
509.8	17377	
510	18772	
510.19	20416	
510.39	17182	
510.59	17370	
510.79	18847	
510.98	20248	
511.18	17431	
511.38	17434	
511.57	19372	
511.77	19445	
511.97	17940	
512.17	16928	
512.36	19404	
512.56	19118	
512.76	17118	
512.95	16862	
513.15	19572	
513.35	18279	
513.55	18129	
513.74	17311	
513.94	19499	
514.14	18850	
514.33	18153	
514.53	17972	
514.73	18850	
514.92	19114	
515.12	17502	
515.32	17378	
515.51	19370	
515.71	19864	
515.91	19098	
516.11	17719	
516.3	21336	
516.5	19097	
516.7	17959	
516.89	18667	
517.09	18963	
517.29	18987	
517.48	18329	
517.68	17574	
517.88	18839	
518.07	19468	
518.27	18303	
518.47	17246	
518.66	20032	
518.86	18783	
519.06	16993	
519.25	17498	
519.45	19131	
519.65	20790	
519.84	18432	
520.04	19067	
520.24	20992	
520.43	19699	
520.63	17722	
520.83	17342	
521.02	18442	
521.22	19089	
521.42	17760	
521.61	18445	
521.81	18949	
522.01	19020	
522.2	17927	
522.4	17679	
522.6	19818	
522.79	18712	
522.99	17915	
523.18	17741	
523.38	19994	
523.58	20108	
523.77	20166	
523.97	18057	
524.17	22375	
524.36	21502	
524.56	19542	
524.76	19192	
524.95	20663	
525.15	20217	
525.34	19242	
525.54	19287	
525.74	21207	
525.93	20243	
526.13	20710	
526.33	19684	
526.52	21746	
526.72	21336	
526.91	20865	
527.11	20241	
527.31	21847	
527.5	22545	
527.7	20399	
527.89	19576	
528.09	21207	
528.29	22009	
528.48	20898	
528.68	20538	
528.87	22214	
529.07	21912	
529.27	20220	
529.46	19570	
529.66	21384	
529.85	22022	
530.05	19445	
530.25	20267	
530.44	23212	
530.64	21427	
530.83	19905	
531.03	20325	
531.23	22246	
531.42	22119	
531.62	21437	
531.81	20542	
532.01	23022	
532.21	23539	
532.4	21005	
532.6	21569	
532.79	24285	
532.99	23584	
533.18	21557	
533.38	22541	
533.58	23096	
533.77	23744	
533.97	21885	
534.16	22475	
534.36	24171	
534.55	23279	
534.75	22873	
534.95	22020	
535.14	24300	
535.34	23081	
535.53	21206	
535.73	23219	
535.92	24531	
536.12	23042	
536.31	21278	
536.51	22370	
536.71	23280	
536.9	23012	
537.1	21457	
537.29	21832	
537.49	23933	
537.68	22942	
537.88	22212	
538.07	21439	
538.27	23375	
538.46	24481	
538.66	21405	
538.86	22090	
539.05	23363	
539.25	23819	
539.44	22380	
539.64	21584	
539.83	23228	
540.03	23922	
540.22	21340	
540.42	21344	
540.61	22964	
540.81	23337	
541	21739	
541.2	22506	
541.39	22522	
541.59	22988	
541.78	22425	
541.98	21054	
542.18	22122	
542.37	22159	
542.57	21133	
542.76	22044	
542.96	21901	
543.15	22503	
543.35	20962	
543.54	20467	
543.74	22571	
543.93	22382	
544.13	20489	
544.32	22020	
544.52	22534	
544.71	21861	
544.91	19792	
545.1	21164	
545.3	21832	
545.49	22587	
545.69	19764	
545.88	20281	
546.08	23556	
546.27	22904	
546.47	20914	
546.66	20135	
546.86	22542	
547.05	23107	
547.24	20336	
547.44	20333	
547.63	21404	
547.83	22638	
548.02	20429	
548.22	20630	
548.41	21138	
548.61	22469	
548.8	20019	
549	19985	
549.19	21648	
549.39	22077	
549.58	19514	
549.78	20134	
549.97	22166	
550.17	21492	
550.36	20611	
550.55	21945	
550.75	21210	
550.94	22340	
551.14	19395	
551.33	19759	
551.53	20805	
551.72	21721	
551.92	19919	
552.11	19677	
552.31	21569	
552.5	21722	
552.69	21138	
552.89	19085	
553.08	21508	
553.28	21177	
553.47	19528	
553.67	20750	
553.86	21973	
554.06	20378	
554.25	18624	
554.44	19388	
554.64	22745	
554.83	22378	
555.03	19295	
555.22	19638	
555.42	21485	
555.61	21015	
555.8	19079	
556	19554	
556.19	20323	
556.39	21643	
556.58	19291	
556.78	19294	
556.97	21155	
557.16	20981	
557.36	20686	
557.55	19039	
557.75	19913	
557.94	21941	
558.13	18874	
558.33	18933	
558.52	21693	
558.72	20499	
558.91	18832	
559.1	19023	
559.3	20129	
559.49	19617	
559.69	18374	
559.88	19350	
560.07	20882	
560.27	21416	
560.46	19526	
560.66	19628	
560.85	20494	
561.04	19698	
561.24	18688	
561.43	18727	
561.63	19875	
561.82	20163	
562.01	20241	
562.21	19162	
562.4	20725	
562.59	22120	
562.79	19073	
562.98	18985	
563.18	20784	
563.37	22483	
563.56	19755	
563.76	19004	
563.95	20411	
564.14	20332	
564.34	19381	
564.53	19001	
564.73	21038	
564.92	21607	
565.11	19734	
565.31	19207	
565.5	21777	
565.69	20750	
565.89	19312	
566.08	19559	
566.27	21631	
566.47	22189	
566.66	20322	
566.85	19086	
567.05	21424	
567.24	20776	
567.44	19447	
567.63	20818	
567.82	21510	
568.02	21211	
568.21	19499	
568.4	19934	
568.6	21313	
568.79	21434	
568.98	19389	
569.18	19718	
569.37	21519	
569.56	23644	
569.76	20169	
569.95	21097	
570.14	21884	
570.34	21922	
570.53	19495	
570.72	19482	
570.91	22432	
571.11	21519	
571.3	20000	
571.49	20998	
571.69	21706	
571.88	21207	
572.07	20869	
572.27	20700	
572.46	21178	
572.65	22296	
572.85	19972	
573.04	20542	
573.23	22741	
573.43	21803	
573.62	20153	
573.81	20745	
574	22416	
574.2	22057	
574.39	20725	
574.58	20857	
574.78	23526	
574.97	22697	
575.16	21343	
575.36	21741	
575.55	23255	
575.74	23275	
575.93	20394	
576.13	21846	
576.32	22391	
576.51	23132	
576.71	21014	
576.9	22458	
577.09	23530	
577.28	22965	
577.48	21388	
577.67	20409	
577.86	22655	
578.05	23163	
578.25	21362	
578.44	21477	
578.63	22764	
578.83	24160	
579.02	20669	
579.21	22356	
579.4	23243	
579.6	22818	
579.79	21510	
579.98	23731	
580.17	23559	
580.37	23671	
580.56	20849	
580.75	21913	
580.94	24156	
581.14	23953	
581.33	22394	
581.52	21293	
581.71	23668	
581.91	24234	
582.1	21140	
582.29	21518	
582.48	23132	
582.68	23290	
582.87	22314	
583.06	21708	
583.25	23435	
583.45	22935	
583.64	22491	
583.83	23296	
584.02	23145	
584.21	23663	
584.41	22373	
584.6	21769	
584.79	23340	
584.98	24128	
585.18	21168	
585.37	21137	
585.56	22791	
585.75	23557	
585.94	21285	
586.14	22042	
586.33	23805	
586.52	22900	
586.71	21387	
586.91	21256	
587.1	21927	
587.29	23043	
587.48	20725	
587.67	20844	
587.87	22560	
588.06	22861	
588.25	22119	
588.44	21257	
588.63	22184	
588.83	22730	
589.02	20291	
589.21	20139	
589.4	21317	
589.59	21231	
589.78	18557	
589.98	18779	
590.17	19960	
590.36	20622	
590.55	17478	
590.74	18424	
590.94	21634	
591.13	20142	
591.32	18320	
591.51	17968	
591.7	20885	
591.89	20599	
592.09	18405	
592.28	18890	
592.47	19810	
592.66	21797	
592.85	18335	
593.05	18729	
593.24	20337	
593.43	21332	
593.62	18813	
593.81	19254	
594	20585	
594.19	20643	
594.39	18561	
594.58	18551	
594.77	20738	
594.96	21235	
595.15	18254	
595.34	18904	
595.54	20391	
595.73	19487	
595.92	17438	
596.11	18645	
596.3	20907	
596.49	19677	
596.68	18419	
596.88	18976	
597.07	20797	
597.26	19478	
597.45	17894	
597.64	19199	
597.83	19792	
598.02	20497	
598.22	18011	
598.41	18596	
598.6	20065	
598.79	19569	
598.98	17771	
599.17	18893	
599.36	20055	
599.55	21347	
599.74	20054	
599.94	19927	
600.13	20622	
600.32	19337	
600.51	17748	
600.7	17941	
600.89	21128	
601.08	21158	
601.27	17478	
601.47	18546	
601.66	20338	
601.85	21007	
602.04	18148	
602.23	18368	
602.42	19407	
602.61	20119	
602.8	18023	
602.99	17840	
603.18	19828	
603.37	19943	
603.57	18418	
603.76	19039	
603.95	20747	
604.14	20537	
604.33	18127	
604.52	18358	
604.71	20025	
604.9	19654	
605.09	18787	
605.28	18732	
605.47	20632	
605.66	20198	
605.86	18613	
606.05	17961	
606.24	20404	
606.43	18903	
606.62	18161	
606.81	18933	
607	20184	
607.19	19568	
607.38	17582	
607.57	17789	
607.76	19353	
607.95	18714	
608.14	18140	
608.33	18740	
608.52	19302	
608.72	20366	
608.91	17150	
609.1	17130	
609.29	19270	
609.48	18647	
609.67	18128	
609.86	17108	
610.05	18758	
610.24	18976	
610.43	16996	
610.62	16582	
610.81	20192	
611	19962	
611.19	17055	
611.38	17772	
611.57	19454	
611.76	20887	
611.95	16904	
612.14	16602	
612.33	19174	
612.52	18580	
612.71	17531	
612.9	16676	
613.09	18329	
613.28	20712	
613.47	17058	
613.66	18037	
613.85	19319	
614.04	18731	
614.24	17161	
614.43	16191	
614.62	19397	
614.81	19145	
615	17735	
615.19	17920	
615.38	18718	
615.57	19073	
615.76	17786	
615.95	18631	
616.14	19345	
616.33	19090	
616.52	18168	
616.71	18099	
616.9	19395	
617.09	19288	
617.28	17509	
617.47	18838	
617.66	18711	
617.85	18804	
618.04	18641	
618.22	18060	
618.41	19234	
618.6	20373	
618.79	18189	
618.98	17875	
619.17	20671	
619.36	18978	
619.55	18233	
619.74	18069	
619.93	20134	
620.12	19624	
620.31	18923	
620.5	19264	
620.69	21220	
620.88	21438	
621.07	19895	
621.26	18881	
621.45	20502	
621.64	20603	
621.83	19097	
622.02	18323	
622.21	20568	
622.4	20467	
622.59	19865	
622.78	19521	
622.97	20009	
623.16	21121	
623.35	19236	
623.54	18298	
623.72	20431	
623.91	20530	
624.1	19594	
624.29	18147	
624.48	21625	
624.67	20691	
624.86	19571	
625.05	18496	
625.24	21706	
625.43	19991	
625.62	21172	
625.81	18852	
626	21220	
626.19	20525	
626.38	19721	
626.56	19019	
626.75	20334	
626.94	21214	
627.13	19426	
627.32	18241	
627.51	21005	
627.7	22352	
627.89	18254	
628.08	19345	
628.27	20020	
628.46	20179	
628.65	18666	
628.83	18458	
629.02	20721	
629.21	20013	
629.4	19000	
629.59	19220	
629.78	20125	
629.97	21111	
630.16	19381	
630.35	18868	
630.54	21552	
630.72	21300	
630.91	18615	
631.1	19263	
631.29	20615	
631.48	20876	
631.67	19263	
631.86	18766	
632.05	20362	
632.24	20413	
632.42	18430	
632.61	19037	
632.8	20199	
632.99	19946	
633.18	19196	
633.37	19342	
633.56	20591	
633.75	20578	
633.93	19027	
634.12	18815	
634.31	21341	
634.5	20991	
634.69	18809	
634.88	19086	
635.07	20403	
635.25	20945	
635.44	19555	
635.63	19802	
635.82	20013	
636.01	19467	
636.2	19463	
636.39	19127	
636.57	21158	
636.76	20773	
636.95	18337	
637.14	19857	
637.33	20455	
637.52	21608	
637.7	18035	
637.89	19082	
638.08	20054	
638.27	21487	
638.46	19090	
638.65	19376	
638.83	21385	
639.02	19547	
639.21	18800	
639.4	19199	
639.59	19951	
639.78	19538	
639.96	17806	
640.15	17885	
640.34	19628	
640.53	19814	
640.72	17364	
640.91	17757	
641.09	18956	
641.28	20466	
641.47	17641	
641.66	18546	
641.85	19619	
642.03	19719	
642.22	18357	
642.41	17503	
642.6	19004	
642.79	18125	
642.97	17147	
643.16	18102	
643.35	18748	
643.54	18342	
643.73	17159	
643.91	17890	
644.1	18182	
644.29	18846	
644.48	16864	
644.67	16910	
644.85	17998	
645.04	18392	
645.23	16127	
645.42	16522	
645.6	17466	
645.79	18699	
645.98	16174	
646.17	15043	
646.36	16802	
646.54	17307	
646.73	16307	
646.92	15313	
647.11	16815	
647.29	17960	
647.48	15399	
647.67	14971	
647.86	18258	
648.05	18380	
648.23	15734	
648.42	16978	
648.61	17495	
648.8	17286	
648.98	15137	
649.17	15685	
649.36	16694	
649.55	16574	
649.73	15362	
649.92	16132	
650.11	16783	
650.3	17042	
650.48	15250	
650.67	14872	
650.86	17073	
651.05	16017	
651.23	15166	
651.42	14971	
651.61	16550	
651.79	16498	
651.98	15294	
652.17	14912	
652.36	16839	
652.54	15999	
652.73	14772	
652.92	14637	
653.11	16724	
653.29	16697	
653.48	13848	
653.67	14775	
653.85	16262	
654.04	17201	
654.23	14618	
654.42	14134	
654.6	15120	
654.79	15816	
654.98	13134	
655.16	13648	
655.35	14244	
655.54	14407	
655.73	13232	
655.91	13117	
656.1	15786	
656.29	14696	
656.47	13207	
656.66	15034	
656.85	15239	
657.03	15437	
657.22	13880	
657.41	14089	
657.59	15386	
657.78	15268	
657.97	13643	
658.16	14396	
658.34	16175	
658.53	16515	
658.72	15272	
658.9	15805	
659.09	15495	
659.28	15634	
659.46	13985	
659.65	13957	
659.84	15285	
660.02	15905	
660.21	13876	
660.4	13833	
660.58	16427	
660.77	15693	
660.96	14519	
661.14	13452	
661.33	16774	
661.52	16648	
661.7	13381	
661.89	17119	
662.08	15145	
662.26	14584	
662.45	13508	
662.64	13629	
662.82	15872	
663.01	15031	
663.2	13575	
663.38	14541	
663.57	15669	
663.75	15483	
663.94	13967	
664.13	15169	
664.31	14964	
664.5	15646	
664.69	14242	
664.87	14780	
665.06	14661	
665.25	15478	
665.43	14961	
665.62	15100	
665.8	15636	
665.99	14940	
666.18	13839	
666.36	13973	
666.55	15506	
666.74	15559	
666.92	13462	
667.11	15023	
667.29	14930	
667.48	15561	
667.67	14645	
667.85	13680	
668.04	15022	
668.22	15054	
668.41	13769	
668.6	13865	
668.78	14752	
668.97	14856	
669.15	14050	
669.34	13015	
669.53	14683	
669.71	14999	
669.9	13082	
670.08	13841	
670.27	14693	
670.46	15102	
670.64	14112	
670.83	14320	
671.01	14384	
671.2	15152	
671.38	13314	
671.57	13188	
671.76	15885	
671.94	16436	
672.13	13097	
672.31	14076	
672.5	15391	
672.69	14798	
672.87	13407	
673.06	13648	
673.24	15163	
673.43	14728	
673.61	13974	
673.8	13508	
673.98	15380	
674.17	15528	
674.36	14193	
674.54	13951	
674.73	15027	
674.91	15326	
675.1	13790	
675.28	13151	
675.47	14823	
675.65	15489	
675.84	13646	
676.03	13892	
676.21	14704	
676.4	14136	
676.58	14352	
676.77	14169	
676.95	16248	
677.14	14584	
677.32	13229	
677.51	12955	
677.69	15352	
677.88	14237	
678.06	13126	
678.25	13118	
678.44	14975	
678.62	14573	
678.81	12835	
678.99	13935	
679.18	15575	
679.36	15319	
679.55	13463	
679.73	14120	
679.92	15341	
680.1	14650	
680.29	14816	
680.47	13437	
680.66	14455	
680.84	15336	
681.03	12674	
681.21	14014	
681.4	14504	
681.58	14541	
681.77	13177	
681.95	13021	
682.14	15395	
682.32	15776	
682.51	14148	
682.69	12775	
682.88	14382	
683.06	14914	
683.25	13653	
683.43	14038	
683.62	14719	
683.8	15087	
683.99	14192	
684.17	13405	
684.36	15605	
684.54	14072	
684.73	11950	
684.91	12021	
685.1	13808	
685.28	13047	
685.46	12162	
685.65	12365	
685.83	13971	
686.02	13427	
686.2	11931	
686.39	12224	
686.57	13436	
686.76	15129	
686.94	12268	
687.13	12467	
687.31	14124	
687.5	13835	
687.68	11940	
687.86	13134	
688.05	15608	
688.23	13317	
688.42	13343	
688.6	12474	
688.79	13882	
688.97	13857	
689.16	13006	
689.34	12002	
689.52	14743	
689.71	14926	
689.89	13246	
690.08	12551	
690.26	14071	
690.45	14045	
690.63	13353	
690.81	12717	
691	13736	
691.18	13700	
691.37	12684	
691.55	14896	
691.74	13504	
691.92	15643	
692.1	12698	
692.29	12004	
692.47	13801	
692.66	13137	
692.84	12222	
693.02	12811	
693.21	13443	
693.39	13854	
693.58	13222	
693.76	12591	
693.94	15250	
694.13	15235	
694.31	12811	
694.5	13956	
694.68	14108	
694.86	14477	
695.05	13299	
695.23	13479	
695.42	14883	
695.6	17187	
695.78	13775	
695.97	12768	
696.15	14891	
696.34	14134	
696.52	12456	
696.7	13319	
696.89	14231	
697.07	13623	
697.25	13089	
697.44	14536	
697.62	14070	
697.81	14433	
697.99	12517	
698.17	13228	
698.36	13377	
698.54	14154	
698.72	13051	
698.91	11908	
699.09	13602	
699.28	13442	
699.46	12671	
699.64	12224	
699.83	13422	
700.01	14674	
700.19	13344	
700.38	11777	
700.56	14791	
700.74	13653	
700.93	12221	
701.11	13068	
701.29	14339	
701.48	15399	
701.66	12396	
701.84	12637	
702.03	13881	
702.21	14655	
702.39	11971	
702.58	12818	
702.76	14298	
702.94	14412	
703.13	12053	
703.31	14387	
703.49	13496	
703.68	14720	
703.86	12108	
704.04	13161	
704.23	14004	
704.41	14397	
704.59	12319	
704.78	13463	
704.96	15167	
705.14	14433	
705.33	12122	
705.51	12816	
705.69	13771	
705.87	14601	
706.06	13177	
706.24	11926	
706.42	14021	
706.61	14328	
706.79	13154	
706.97	12069	
707.16	13419	
707.34	14081	
707.52	12933	
707.7	12269	
707.89	13601	
708.07	13265	
708.25	13110	
708.44	13162	
708.62	13546	
708.8	14516	
708.98	13207	
709.17	12124	
709.35	13857	
709.53	13663	
709.72	11853	
709.9	12335	
710.08	13945	
710.26	14059	
710.45	13340	
710.63	12077	
710.81	13480	
710.99	13484	
711.18	12464	
711.36	11920	
711.54	13167	
711.72	13910	
711.91	11888	
712.09	11331	
712.27	13175	
712.45	14162	
712.64	11936	
712.82	10911	
713	12422	
713.18	12463	
713.37	10767	
713.55	11801	
713.73	12826	
713.91	11184	
714.1	10471	
714.28	9761.3	
714.46	11872	
714.64	10787	
714.83	8761.9	
715.01	9516.9	
715.19	10670	
715.37	9908.8	
715.55	8941.4	
715.74	9220	
715.92	11521	
716.1	9349.7	
716.28	10458	
716.47	9400.2	
716.65	9990.7	
716.83	10164	
717.01	9182.4	
717.19	9277.3	
717.38	12357	
717.56	9855.5	
717.74	9576.3	
717.92	8700.5	
718.1	11353	
718.29	10633	
718.47	8656.1	
718.65	9534	
718.83	11631	
719.01	11654	
719.2	8811.7	
719.38	9977.7	
719.56	11302	
719.74	12838	
719.92	9413.1	
720.11	10364	
720.29	11039	
720.47	9978.4	
720.65	8535.9	
720.83	9370.1	
721.02	10049	
721.2	9824.8	
721.38	9254.8	
721.56	8502.5	
721.74	9280	
721.92	9437.7	
722.11	9686.2	
722.29	9370.8	
722.47	10724	
722.65	9864.4	
722.83	8523.6	
723.01	9496.4	
723.2	10002	
723.38	10284	
723.56	7826.7	
723.74	9086.2	
723.92	9463	
724.1	10645	
724.29	8311.3	
724.47	9579	
724.65	9459.6	
724.83	9371.5	
725.01	8145.5	
725.19	9108.7	
725.37	9451.4	
725.56	9561.3	
725.74	7958.4	
725.92	8392.6	
726.1	9443.2	
726.28	9677.3	
726.46	8718.2	
726.64	8400.8	
726.83	9573.6	
727.01	9937.4	
727.19	7942	
727.37	8858.1	
727.55	9825.5	
727.73	10267	
727.91	7965.9	
728.09	7755	
728.28	10474	
728.46	10986	
728.64	9140.8	
728.82	9013.8	
729	11660	
729.18	10973	
729.36	8356.4	
729.54	10785	
729.72	12095	
729.91	10430	
730.09	10426	
730.27	9273.2	
730.45	10306	
730.63	10903	
730.81	9910.8	
730.99	8918.9	
731.17	11491	
731.35	10047	
731.53	9466.4	
731.71	8959.9	
731.9	11031	
732.08	11317	
732.26	9258.9	
732.44	8895	
732.62	11385	
732.8	10810	
732.98	9577.7	
733.16	8688.2	
733.34	10698	
733.52	9434.3	
733.7	8991.3	
733.88	9312.8	
734.07	10473	
734.25	10342	
734.43	8567.3	
734.61	10219	
734.79	11986	
734.97	10131	
735.15	8604.9	
735.33	9116.9	
735.51	10474	
735.69	10096	
735.87	10239	
736.05	9196.1	
736.23	10279	
736.41	10124	
736.59	9011.1	
736.77	9084.1	
736.95	10863	
737.13	10262	
737.32	8602.8	
737.5	8866.3	
737.68	11334	
737.86	10011	
738.04	8414.4	
738.22	10322	
738.4	9803.6	
738.58	10108	
738.76	8938.7	
738.94	7937.9	
739.12	9936.1	
739.3	9796.8	
739.48	9712.8	
739.66	9530.6	
739.84	10162	
740.02	10152	
740.2	7991.2	
740.38	8440.4	
740.56	10645	
740.74	9391.3	
740.92	9097.1	
741.1	8919.6	
741.28	9843.9	
741.46	9688.9	
741.64	8472.4	
741.82	9028.1	
742	9868.5	
742.18	9805.7	
742.36	8574.2	
742.54	8305.2	
742.72	10430	
742.9	9150.3	
743.08	9060.2	
743.26	7718.8	
743.44	10622	
743.62	10412	
743.8	9141.4	
743.98	8183	
744.16	10085	
744.34	9624.1	
744.52	9008.3	
744.7	8780.3	
744.88	10169	
745.06	9514.2	
745.24	8922.3	
745.42	9007	
745.6	10159	
745.78	9826.2	
745.96	7553.6	
746.14	7868.3	
746.32	10877	
746.5	10006	
746.68	8495	
746.86	7927	
747.03	10448	
747.21	8588.5	
747.39	8412.4	
747.57	7851.9	
747.75	9458.2	
747.93	10003	
748.11	7833.5	
748.29	7716.7	
748.47	11213	
748.65	9208.4	
748.83	8643.8	
749.01	8299.7	
749.19	9748.3	
749.37	8884.1	
749.55	8122.2	
749.73	8215.8	
749.91	9298.5	
750.09	9055.4	
750.26	8246.5	
750.44	7586.4	
750.62	9380.4	
750.8	9298.5	
750.98	7447.8	
751.16	7733.8	
751.34	9435.7	
751.52	8675.9	
751.7	8545.5	
751.88	7374.7	
752.06	9820.7	
752.24	9715.6	
752.42	7342	
752.59	7634.8	
752.77	9185.8	
752.95	10613	
753.13	8535.9	
753.31	7772.7	
753.49	8915.5	
753.67	9401.5	
753.85	8014.4	
754.03	7600	
754.21	9536.7	
754.38	9847.3	
754.56	7490.8	
754.74	6496.2	
754.92	8503.2	
755.1	9221.3	
755.28	6272.9	
755.46	6105	
755.64	9241.8	
755.82	9073.9	
755.99	5668.1	
756.17	5592.3	
756.35	6031.3	
756.53	7656.7	
756.71	4201.1	
756.89	5259.2	
757.07	7200.7	
757.25	6268.1	
757.42	5962.3	
757.6	7098.3	
757.78	7724.3	
757.96	6753.5	
758.14	6046.3	
758.32	5568.4	
758.5	6140.5	
758.67	7100.3	
758.85	5700.2	
759.03	5814.2	
759.21	7191.8	
759.39	6614.3	
759.57	5276.3	
759.75	6485.2	
759.92	7827.3	
760.1	7165.2	
760.28	7008.1	
760.46	7245.7	
760.64	7045	
760.82	6777.4	
760.99	6752.8	
761.17	6141.9	
761.35	8102.4	
761.53	7027.3	
761.71	6368.5	
761.89	7021.8	
762.06	8168.7	
762.24	7505.8	
762.42	6554.2	
762.6	6414.9	
762.78	7640.3	
762.96	8404.2	
763.13	7035.5	
763.31	6728.3	
763.49	8581.7	
763.67	7720.2	
763.85	7580.9	
764.02	8180.3	
764.2	8901.2	
764.38	8006.9	
764.56	6520	
764.74	7518.1	
764.91	8936	
765.09	7742.7	
765.27	6199.9	
765.45	5993	
765.63	8936.7	
765.8	8713.4	
765.98	5624.4	
766.16	6042.2	
766.34	7187.7	
766.52	6978.8	
766.69	6960.4	
766.87	5824.4	
767.05	7738.6	
767.23	8310.7	
767.41	5911.8	
767.58	6278.4	
767.76	8133.8	
767.94	8136.6	
768.12	6039.5	
768.29	6823.1	
768.47	7476.5	
768.65	8251.9	
768.83	5536.3	
769	6799.9	
769.18	6976.7	
769.36	7664.9	
769.54	6853.2	
769.72	5451.7	
769.89	7915.4	
770.07	8073.8	
770.25	5856.5	
770.43	7150.8	
770.6	8665	
770.78	9064.3	
770.96	6012.2	
771.14	6619.7	
771.31	7766.6	
771.49	7067.5	
771.67	5005.2	
771.85	5302.9	
772.02	6173.9	
772.2	6962.4	
772.38	6012.2	
772.55	5539.8	
772.73	7275.1	
772.91	6923.5	
773.09	5833.3	
773.26	5912.5	
773.44	7095.5	
773.62	6727.6	
773.8	5326.1	
773.97	4926.7	
774.15	7152.9	
774.33	6666.1	
774.5	5104.2	
774.68	5499.5	
774.86	7271	
775.04	6658.6	
775.21	5186.8	
775.39	5115.8	
775.57	6916.7	
775.74	7340.6	
775.92	4914.4	
776.1	4792.9	
776.27	6789	
776.45	8109.3	
776.63	4939	
776.81	4476.2	
776.98	6418.3	
777.16	7613.7	
777.34	5113.1	
777.51	5441.5	
777.69	6416.3	
777.87	6094.1	
778.04	5083.1	
778.22	5713.2	
778.4	6102.3	
778.57	6821.1	
778.75	4260.5	
778.93	4601.1	
779.1	5872.2	
779.28	5705.6	
779.46	4271.4	
779.64	4739.7	
779.81	6911.2	
779.99	7808.2	
780.17	5629.9	
780.34	5750.7	
780.52	6270.2	
780.69	6518.7	
780.87	5088.5	
781.05	4584.7	
781.22	6275.7	
781.4	6348.7	
781.58	4702.8	
781.75	3837.9	
781.93	6285.2	
782.11	5640.1	
782.28	5574.6	
782.46	4655.7	
782.64	5443.5	
782.81	6421.7	
782.99	4657.8	
783.17	4724.7	
783.34	6298.2	
783.52	5455.8	
783.69	4894.6	
783.87	5690.6	
784.05	5490.6	
784.22	5549.3	
784.4	5657.9	
784.58	4876.2	
784.75	6531	
784.93	5553.4	
785.1	4545.8	
785.28	5203.9	
785.46	6219	
785.63	5481.7	
785.81	4489.8	
785.99	4335.5	
786.16	5631.9	
786.34	6046.3	
786.51	4386.7	
786.69	4754	
786.87	5190.9	
787.04	5716.6	
787.22	4202.4	
787.39	5113.1	
787.57	5485.1	
787.75	6548.7	
787.92	5383.4	
788.1	5272.2	
788.27	5459.2	
788.45	5210	
788.63	4946.5	
788.8	3685.7	
788.98	5780.7	
789.15	5128.8	
789.33	3829.7	
789.5	4437.3	
789.68	6367.8	
789.86	6503	
790.03	4926	
790.21	4324.6	
790.38	6287.3	
790.56	5531.6	
790.73	4113.7	
790.91	4173.8	
791.09	5324	
791.26	6224.5	
791.44	4361.5	
791.61	3789.4	
791.79	5288.5	
791.96	5397.8	
792.14	3930.7	
792.32	3438.5	
792.49	5343.2	
792.67	5495.4	
792.84	3976.5	
793.02	3774.4	
793.19	5810.8	
793.37	6542.6	
793.54	3506.1	
793.72	3893.9	
793.89	6747.4	
794.07	5352	
794.25	4524.6	
794.42	3495.2	
794.6	6485.2	
794.77	6001.9	
794.95	4710.3	
795.12	4169.7	
795.3	5307.7	
795.47	5988.9	
795.65	4558.8	
795.82	4343.7	
796	5143.8	
796.17	7083.2	
796.35	4247.5	
796.52	5033.9	
796.7	5864	
796.87	5965.1	
797.05	5195	
797.22	5145.2	
797.4	5879.7	
797.57	6941.2	
797.75	4351.3	
797.92	4098.7	
798.1	6287.3	
798.27	5239.4	
798.45	3443.3	
798.62	3745.7	
798.8	5593.7	
798.97	6182.8	
799.15	4571.1	
799.32	4359.4	
799.5	4764.3	
799.67	5599.1	
799.85	4705.5	
800.02	3417.4	
800.2	5269.4	
800.37	5552.7	
800.55	4831.2	
800.72	4067.3	
800.9	6011.5	
801.07	6537.1	
801.25	5435.3	
801.42	4476.2	
801.6	6072.2	
801.77	5780.7	
801.95	4153.3	
802.12	3954.6	
802.29	5810.1	
802.47	5757.5	
802.64	4427.7	
802.82	3340.9	
802.99	5165.7	
803.17	6223.8	
803.34	4328	
803.52	3871.3	
803.69	6892.1	
803.87	4969.1	
804.04	4254.3	
804.21	4341	
804.39	6309.1	
804.56	5397.8	
804.74	3641.3	
804.91	4483.7	
805.09	5214.1	
805.26	5333.6	
805.44	3675.4	
805.61	4059.8	
805.78	5937.1	
805.96	5942.5	
806.13	4439.3	
806.31	4773.8	
806.48	4720.6	
806.66	5292	
806.83	4428.4	
807	4283.7	
807.18	5161.6	
807.35	5606.7	
807.53	4255.7	
807.7	3465.8	
807.87	6377.4	
808.05	5224.4	
808.22	4687.1	
808.4	3448.8	
808.57	5218.9	
808.74	4809.3	
808.92	3882.9	
809.09	5027.8	
809.27	5055.1	
809.44	5717.2	
809.61	3478.8	
809.79	3882.9	
809.96	6391	
810.14	5997.8	
810.31	3310.9	
810.48	4126.7	
810.66	5243.5	
810.83	6096.1	
811.01	3908.9	
811.18	4360.8	
811.35	6011.5	
811.53	4623.6	
811.7	4741	
811.87	4401.1	
812.05	5163.6	
812.22	5105.6	
812.39	3821.5	
812.57	3624.9	
812.74	5207.3	
812.92	6978.1	
813.09	4117.8	
813.26	4475.5	
813.44	6662	
813.61	5117.2	
813.78	3381.2	
813.96	4604.5	
814.13	5174.5	
814.3	4795.7	
814.48	4915.1	
814.65	4104.1	
814.82	6518	
815	4923.3	
815.17	4146.5	
815.34	5198.4	
815.52	5152	
815.69	5124.7	
815.87	4193.6	
816.04	3566.2	
816.21	5228.5	
816.38	4556	
816.56	3986.7	
816.73	3786	
816.9	6580.1	
817.08	5917.9	
817.25	3773	
817.42	4767.7	
817.6	4730.8	
817.77	5251.7	
817.94	4246.1	
818.12	3689.1	
818.29	4949.3	
818.46	7731.1	
818.64	3914.4	
818.81	3698.6	
818.98	4815.5	
819.16	7189.1	
819.33	4511	
819.5	4237.2	
819.67	5564.3	
819.85	6248.4	
820.02	4088.4	
820.19	4364.2	
820.37	5415.5	
820.54	4971.1	
820.71	4347.8	
820.88	5244.8	
821.06	5459.2	
821.23	4929.5	
821.4	4325.3	
821.58	4214	
821.75	5980.1	
821.92	5297.4	
822.09	3435.8	
822.27	3538.2	
822.44	5180.7	
822.61	5087.2	
822.79	3433.8	
822.96	6630	
823.13	5692	
823.3	4942.4	
823.48	4022.9	
823.65	3616	
823.82	5927.5	
823.99	4719.9	
824.17	5059.2	
824.34	3613.3	
824.51	6860	
824.68	5241.4	
824.86	3795.6	
825.03	4270	
825.2	5213.4	
825.37	6311.2	
825.55	3796.9	
825.72	4138.3	
825.89	6922.8	
826.06	6417	
826.24	4108.2	
826.41	4095.3	
826.58	6323.4	
826.75	5502.2	
826.92	3202.3	
827.1	3645.4	
827.27	8632.9	
827.44	6880.5	
827.61	3929.4	
827.79	4713.7	
827.96	4889.9	
828.13	5275.6	
828.3	4063.2	
828.47	3463.8	
828.65	5408.7	
828.82	5360.2	
828.99	5260.5	
829.16	4586.1	
829.34	5780.7	
829.51	5552.7	
829.68	4230.4	
829.85	4360.1	
830.02	6083.8	
830.2	5841.5	
830.37	3278.8	
830.54	5086.5	
830.71	6605.4	
830.88	5147.2	
831.05	3315.7	
831.23	3852.2	
831.4	6393.8	
831.57	7104.4	
831.74	3894.6	
831.91	3386	
832.09	5399.8	
832.26	5857.2	
832.43	4043.4	
832.6	4553.3	
832.77	5409.4	
832.94	6163.7	
833.12	3173	
833.29	3950.5	
833.46	5573.9	
833.63	7356.3	
833.8	4388.1	
833.97	4093.2	
834.15	5847.6	
834.32	5579.3	
834.49	4177.9	
834.66	4244.1	
834.83	6062	
835	4859.1	
835.17	3909.6	
835.35	3915.7	
835.52	5731.6	
835.69	5571.8	
835.86	4106.2	
836.03	3362.1	
836.2	5697.4	
836.37	5337	
836.55	4063.9	
836.72	3787.4	
836.89	5354.8	
837.06	5915.2	
837.23	4141	
837.4	4480.3	
837.57	6674.3	
837.75	7415.7	
837.92	3713	
838.09	3936.9	
838.26	5335	
838.43	6128.2	
838.6	4265.2	
838.77	3736.2	
838.94	6967.2	
839.11	6703	
839.29	4030.4	
839.46	3195.5	
839.63	5763.7	
839.8	5541.8	
839.97	3867.2	
840.14	3910.9	
840.31	5541.1	
840.48	5771.9	
840.65	3244	
840.82	3965.6	
841	5707	
841.17	5698.8	
841.34	3530	
841.51	3691.8	
841.68	5656.5	
841.85	5471.5	
842.02	3821.5	
842.19	3168.2	
842.36	5482.4	
842.53	5507.7	
842.7	3576.4	
842.87	4416.8	
843.05	7234.8	
843.22	5498.8	
843.39	3461.1	
843.56	3682.9	
843.73	5207.3	
843.9	5821	
844.07	5821.7	
844.24	4845.5	
844.41	8553.7	
844.58	5002.5	
844.75	3481.5	
844.92	3820.8	
845.09	5735.7	
845.26	5728.2	
845.43	3569.6	
845.6	3841.3	
845.77	5799.2	
845.94	5510.4	
846.12	4018.1	
846.29	4214.7	
846.46	5948	
846.63	5818.3	
846.8	3575.8	
846.97	4222.2	
847.14	6251.8	
847.31	5701.5	
847.48	3997	
847.65	4432.5	
847.82	6094.8	
847.99	5958.2	
848.16	4784.1	
848.33	4457.1	
848.5	5257.1	
848.67	6246.3	
848.84	3581.9	
849.01	3741	
849.18	5185.5	
849.35	4792.2	
849.52	4444.8	
849.69	3475.4	
849.86	5937.7	
850.03	6199.9	
850.2	3543.7	
850.37	4352.6	
850.54	6171.2	
850.71	5413.5	
850.88	4268	
851.05	3510.2	
851.22	5679	
851.39	6265.4	
851.56	3375.1	
851.73	4070.7	
851.9	5053.7	
852.07	6034	
852.24	3940.3	
852.41	3573	
852.58	5614.8	
852.75	5184.1	
852.92	4056.3	
853.09	3457.7	
853.26	5300.1	
853.43	6300.9	
853.6	3597.6	
853.77	3022.1	
853.94	6268.1	
854.11	5734.3	
854.28	5276.3	
854.44	3877.5	
854.61	6779.5	
854.78	6119.3	
854.95	3533.4	
855.12	4427	
855.29	4657.8	
855.46	6454.5	
855.63	3559.4	
855.8	4966.3	
855.97	5270.8	
856.14	6137.1	
856.31	5069.4	
856.48	3884.3	
856.65	5324	
856.82	4997.7	
856.99	3439.2	
857.16	3867.9	
857.33	7006.1	
857.49	5391.6	
857.66	3870	
857.83	4202.4	
858	5373.9	
858.17	5606.7	
858.34	3365.5	
858.51	3523.9	
858.68	6447.7	
858.85	6582.2	
859.02	4199	
859.19	4384.7	
859.36	4997	
859.52	5076.9	
859.69	3587.4	
859.86	4223.6	
860.03	5102.2	
860.2	6379.4	
860.37	3225.6	
860.54	3607.8	
860.71	5962.3	
860.88	6462.7	
861.05	3997.6	
861.21	4463.2	
861.38	6491.4	
861.55	4941.1	
861.72	3181.2	
861.89	4007.2	
862.06	6041.5	
862.23	6582.2	
862.4	3454.9	
862.56	3663.8	
862.73	5827.8	
862.9	5526.1	
863.07	4132.8	
863.24	3233.7	
863.41	4902.2	
863.58	5070.1	
863.75	3682.2	
863.91	4086.4	
864.08	6414.9	
864.25	5917.3	
864.42	4458.4	
864.59	4971.1	
864.76	6753.5	
864.93	5027.1	
865.09	3447.4	
865.26	3759.4	
865.43	6286.6	
865.6	6721.4	
865.77	3071.3	
865.94	3533.4	
866.1	6276.3	
866.27	6092	
866.44	5304.2	
866.61	3362.1	
866.78	5466.7	
866.95	5861.3	
867.11	3390.8	
867.28	3198.2	
867.45	6069.5	
867.62	5140.4	
867.79	4145.1	
867.96	3530	
868.12	5021.6	
868.29	5998.5	
868.46	3051.5	
868.63	4727.4	
868.8	6191	
868.97	5985.5	
869.13	3747.1	
869.3	3730	
869.47	5838.8	
869.64	6070.2	
869.81	3556	
869.97	3581.2	
870.14	5739.1	
870.31	6487.3	
870.48	3530.7	
870.65	4509.6	
870.81	5367.7	
870.98	5363.6	
871.15	4063.2	
871.32	3745.7	
871.48	5829.9	
871.65	6464.8	
871.82	3492.5	
871.99	3955.3	
872.16	6883.9	
872.32	6317.3	
872.49	3510.2	
872.66	3590.1	
872.83	5965.1	
872.99	5199.1	
873.16	4076.8	
873.33	3549.1	
873.5	5539.1	
873.67	5687.9	
873.83	3745.1	
874	4807.3	
874.17	5758.2	
874.34	6845	
874.5	4603.8	
874.67	4399	
874.84	6436.8	
875.01	4977.9	
875.17	5042.8	
875.34	3592.1	
875.51	5751.4	
875.68	6938.5	
875.84	4293.9	
876.01	5228.5	
876.18	5975.3	
876.34	5844.9	
876.51	3534.8	
876.68	3452.9	
876.85	5397.1	
877.01	6229.9	
877.18	5180.7	
877.35	3517.7	
877.52	5513.1	
877.68	4940.4	
877.85	3457.7	
878.02	3489.1	
878.18	5517.9	
878.35	5205.3	
878.52	2807.1	
878.69	3969	
878.85	6011.5	
879.02	5931.6	
879.19	4990.2	
879.35	3764.2	
879.52	5966.4	
879.69	6173.9	
879.86	3067.9	
880.02	3999	
880.19	5457.8	
880.36	6757.6	
880.52	4098	
880.69	4239.3	
880.86	6015.6	
881.02	6122.7	
881.19	3960.8	
881.36	3867.2	
881.52	5944.6	
881.69	5206.6	
881.86	3769.6	
882.02	3708.2	
882.19	6197.2	
882.36	7325.6	
882.52	3637.9	
882.69	4972.5	
882.86	5766.4	
883.02	5604.6	
883.19	4371	
883.36	4059.8	
883.52	6035.4	
883.69	6913.9	
883.86	3572.3	
884.02	3167.5	
884.19	5970.5	
884.36	5498.1	
884.52	4044.7	
884.69	3759.4	
884.86	5295.4	
885.02	6599.2	
885.19	3983.3	
885.36	4117.1	
885.52	5493.3	
885.69	5675.6	
885.86	5160.9	
886.02	4551.3	
886.19	5988.9	
886.35	5457.8	
886.52	3912.3	
886.69	5028.4	
886.85	5109	
887.02	6355.5	
887.19	6355.5	
887.35	6355.5	
887.52	6355.5	
887.68	6355.5	
887.85	6355.5	
888.02	6355.5	
888.18	6355.5	
888.35	6355.5	
888.51	6355.5	
888.68	6355.5	
888.85	6355.5	
889.01	6355.5	
889.18	6355.5	
889.35	6355.5	
889.51	6355.5	
889.68	6355.5	
889.84	6355.5	
890.01	6355.5	
890.17	6355.5	
890.34	6355.5	
890.51	6355.5	
890.67	6355.5	
890.84	6355.5	
891	6355.5	
891.17	6355.5	
891.34	6355.5	
891.5	6355.5	
891.67	6355.5	
891.83	6355.5	
892	6355.5	
892.16	6355.5	
892.33	6355.5	
892.5	6355.5	
892.66	6355.5	
892.83	6355.5	
892.99	6355.5	
893.16	6355.5	
893.32	6355.5	
893.49	6355.5	
893.65	6355.5	
893.82	6355.5	
893.99	6355.5	
894.15	6355.5	
894.32	6355.5	
894.48	6355.5	
894.65	6355.5	
894.81	6355.5	
894.98	6355.5	
895.14	6355.5	
895.31	6355.5	
895.47	6355.5	
895.64	6355.5	
895.81	6355.5	
895.97	6355.5	
896.14	6355.5	
896.3	6355.5	
896.47	6355.5	
896.63	6355.5	
896.8	6355.5	
896.96	6355.5	
897.13	6355.5	
897.29	6355.5	
897.46	6355.5	
897.62	6355.5	
897.79	6355.5	
897.95	6355.5	
898.12	6355.5	
898.28	6355.5	
898.45	6355.5	
898.61	6355.5	
898.78	6355.5	
898.94	6355.5	
899.11	6355.5	
899.27	6355.5	
899.44	6355.5	
899.6	6355.5	
899.77	6355.5	
899.93	6355.5	
900.1	6355.5	
900.26	6355.5	
900.43	6355.5	
900.59	6355.5	
900.76	6355.5	
900.92	6355.5	
901.09	6355.5	
901.25	6355.5	
901.42	6355.5	
901.58	6355.5	
901.75	6355.5	
901.91	6355.5	
902.07	6355.5	
902.24	6355.5	
902.4	6355.5	
902.57	6355.5	
902.73	6355.5	
902.9	6355.5	
903.06	6355.5	
903.23	6355.5	
903.39	6355.5	
903.56	6355.5	
903.72	6355.5	
903.88	6355.5	
904.05	6355.5	
904.21	6355.5	
904.38	6355.5	
904.54	6355.5	
904.71	6355.5	
904.87	6355.5	
905.03	6355.5	
905.2	6355.5	
905.36	6355.5	
905.53	6355.5	
905.69	6355.5	
905.86	6355.5	
906.02	6355.5	
906.18	6355.5	
906.35	6355.5	
906.51	6355.5	
906.68	6355.5	
906.84	6355.5	
907.01	6355.5	
907.17	6355.5	
907.33	6355.5	
907.5	6355.5	
907.66	6355.5	
907.83	6355.5	
907.99	6355.5	
908.15	6355.5	
908.32	6355.5	
908.48	6355.5	
908.65	6355.5	
908.81	6355.5	
908.97	6355.5	
909.14	6355.5	
909.3	6355.5	
909.47	6355.5	
909.63	6355.5	
909.79	6355.5	
909.96	6355.5	
910.12	6355.5	
910.28	6355.5	
910.45	6355.5	
910.61	6355.5	
910.78	6355.5	
910.94	6355.5	
911.1	6355.5	
911.27	6355.5	
911.43	6355.5	
911.59	6355.5	
911.76	6355.5	
911.92	6355.5	
912.08	6355.5	
912.25	6355.5	
912.41	6355.5	
912.57	6355.5	
912.74	6355.5	
912.9	6355.5	
913.07	6355.5	
913.23	6355.5	
913.39	6355.5	
913.56	6355.5	
913.72	6355.5	
913.88	6355.5	
914.05	6355.5	
914.21	6355.5	
914.37	6355.5	
914.54	6355.5	
914.7	6355.5	
914.86	6355.5	
915.03	6355.5	
915.19	6355.5	
