Wavelength	Intensities	
nm	a.u.	
179.22	1896.4	
179.44	1896.4	
179.65	1896.4	
179.86	1896.4	
180.08	1952.4	
180.29	4929.5	
180.51	3584.6	
180.72	5630.5	
180.94	6592.4	
181.15	3213.9	
181.37	3238.5	
181.58	5481.7	
181.79	5826.5	
182.01	3434.4	
182.22	3665.9	
182.44	5783.5	
182.65	4831.8	
182.87	4560.8	
183.08	3946.4	
183.29	6097.5	
183.51	4980	
183.72	3709.6	
183.94	5374.6	
184.15	5440.8	
184.37	5463.3	
184.58	3225.6	
184.79	4417.5	
185.01	5002.5	
185.22	5765.7	
185.44	4708.3	
185.65	3907.5	
185.86	5291.3	
186.08	4870.1	
186.29	3148.4	
186.51	3360.7	
186.72	5052.3	
186.94	5987.6	
187.15	3881.6	
187.36	4022.2	
187.58	7762.5	
187.79	5532.9	
188.01	4223.6	
188.22	6632	
188.43	6690.7	
188.65	5761.6	
188.86	3340.9	
189.08	4052.9	
189.29	5242.1	
189.5	5236	
189.72	3785.3	
189.93	3792.2	
190.15	5976	
190.36	7094.8	
190.57	4152.6	
190.79	3966.2	
191	6064.7	
191.22	6028.5	
191.43	4138.9	
191.64	3416.7	
191.86	6316.6	
192.07	5955.5	
192.29	3577.1	
192.5	3783.3	
192.71	6041.5	
192.93	5167	
193.14	3680.2	
193.35	3787.4	
193.57	5217.5	
193.78	5982.8	
194	3011.9	
194.21	3689.1	
194.42	5001.1	
194.64	5466.7	
194.85	4030.4	
195.07	4746.5	
195.28	5494	
195.49	4725.3	
195.71	5037.3	
195.92	3497.2	
196.13	5697.4	
196.35	5782.8	
196.56	5347.2	
196.78	4043.4	
196.99	7082.6	
197.2	6615.6	
197.42	4603.2	
197.63	4071.4	
197.84	4853.7	
198.06	5593.7	
198.27	3734.8	
198.48	4986.1	
198.7	5240.1	
198.91	5342.5	
199.13	4058.4	
199.34	4119.8	
199.55	5869.5	
199.77	4689.8	
199.98	3561.4	
200.19	4164.2	
200.41	5270.8	
200.62	5032.5	
200.83	4262.5	
201.05	4614.8	
201.26	5368.4	
201.47	5042.1	
201.69	3602.4	
201.9	3457	
202.11	5419.6	
202.33	6478.4	
202.54	3891.8	
202.76	4332.8	
202.97	5532.2	
203.18	5519.3	
203.4	4232.5	
203.61	4149.9	
203.82	5471.5	
204.04	5079	
204.25	4138.9	
204.46	4092.5	
204.68	5422.3	
204.89	5635.3	
205.1	3992.2	
205.32	3467.2	
205.53	5867.4	
205.74	6000.5	
205.96	2949.8	
206.17	4222.9	
206.38	5859.2	
206.6	5958.9	
206.81	4698	
207.02	3788.1	
207.24	5702.2	
207.45	6063.4	
207.66	3952.6	
207.88	3286.3	
208.09	5627.1	
208.3	5425.1	
208.52	3588.7	
208.73	3861.1	
208.94	5437.4	
209.15	6145.3	
209.37	3898	
209.58	3976.5	
209.79	5959.6	
210.01	5302.2	
210.22	3117	
210.43	3238.5	
210.65	5434.6	
210.86	5847	
211.07	3897.3	
211.29	3553.9	
211.5	5764.3	
211.71	5366.4	
211.93	3510.9	
212.14	3544.4	
212.35	5300.1	
212.56	5646.2	
212.78	4134.2	
212.99	3343.7	
213.2	6462.7	
213.42	5173.2	
213.63	3663.8	
213.84	3951.2	
214.06	4794.3	
214.27	4849.6	
214.48	3889.8	
214.69	4119.1	
214.91	6132.3	
215.12	6160.3	
215.33	4170.3	
215.55	4574.5	
215.76	6662.7	
215.97	5840.8	
216.18	4039.3	
216.4	3944.4	
216.61	5100.1	
216.82	5900.9	
217.04	3590.1	
217.25	3700	
217.46	6072.2	
217.67	5835.3	
217.89	3222.1	
218.1	3331.4	
218.31	5531.6	
218.53	5592.3	
218.74	3749.1	
218.95	3628.3	
219.16	5412.8	
219.38	6301.6	
219.59	3672	
219.8	4363.5	
220.01	6995.9	
220.23	5489.2	
220.44	4849.6	
220.65	3569.6	
220.87	5481.7	
221.08	6084.5	
221.29	3306.1	
221.5	4467.3	
221.72	7449.8	
221.93	5152	
222.14	4138.9	
222.35	4816.1	
222.57	5519.3	
222.78	5780.7	
222.99	3900.7	
223.2	4188.8	
223.42	5762.3	
223.63	5825.8	
223.84	2995.5	
224.05	2968.2	
224.27	7019.1	
224.48	6339.1	
224.69	4821.6	
224.9	4076.1	
225.12	5589.6	
225.33	5397.8	
225.54	3273.3	
225.75	3622.9	
225.97	4990.2	
226.18	5257.1	
226.39	3984.7	
226.6	3702	
226.82	5151.3	
227.03	5048.9	
227.24	4086.4	
227.45	3422.2	
227.67	5827.2	
227.88	6394.4	
228.09	4628.4	
228.3	4618.9	
228.52	5872.9	
228.73	5412.1	
228.94	3798.3	
229.15	3371	
229.36	5352	
229.58	5248.3	
229.79	3803.1	
230	4459.1	
230.21	6490.7	
230.43	5551.4	
230.64	4089.1	
230.85	4239.3	
231.06	5927.5	
231.28	5923.4	
231.49	3379.1	
231.7	4018.1	
231.91	5744.6	
232.12	5495.4	
232.34	3506.8	
232.55	3996.3	
232.76	6128.9	
232.97	5648.3	
233.18	3560.7	
233.4	4098.7	
233.61	5673.6	
233.82	5140.4	
234.03	3754.6	
234.25	3737.5	
234.46	7525.6	
234.67	5423	
234.88	4186.7	
235.09	3687.7	
235.31	5749.3	
235.52	5350	
235.73	4083	
235.94	3478.1	
236.15	5119.2	
236.37	6602.7	
236.58	3566.9	
236.79	3962.8	
237	5745.2	
237.21	4941.1	
237.43	4212	
237.64	3321.1	
237.85	9936.1	
238.06	4958.8	
238.27	4279.6	
238.48	3469.3	
238.7	5765	
238.91	5273.5	
239.12	3921.2	
239.33	3898.6	
239.54	5020.3	
239.76	5302.2	
239.97	3882.9	
240.18	3950.5	
240.39	6878.4	
240.6	5709.1	
240.82	4052.2	
241.03	3369.6	
241.24	5416.2	
241.45	6375.3	
241.66	3602.4	
241.87	4229.7	
242.09	6203.3	
242.3	6570.6	
242.51	4221.5	
242.72	3931.4	
242.93	5878.4	
243.14	5408	
243.36	4577.9	
243.57	4947.2	
243.78	6323.4	
243.99	5826.5	
244.2	3969	
244.41	3549.8	
244.63	4901.5	
244.84	5773.9	
245.05	4256.4	
245.26	3964.9	
245.47	5742.5	
245.68	6011.5	
245.9	5256.5	
246.11	4120.5	
246.32	5285.1	
246.53	5666	
246.74	6386.9	
246.95	3294.5	
247.16	4949.9	
247.38	5454.4	
247.59	3254.2	
247.8	3932.8	
248.01	5135.6	
248.22	5412.1	
248.43	3552.5	
248.64	3804.4	
248.86	4850.3	
249.07	5154.7	
249.28	3439.2	
249.49	4020.2	
249.7	6039.5	
249.91	6119.3	
250.12	3275.4	
250.34	3366.2	
250.55	5583.4	
250.76	5428.5	
250.97	4057	
251.18	4156.7	
251.39	6169.2	
251.6	5636	
251.81	4187.4	
252.03	4070	
252.24	5181.4	
252.45	6027.9	
252.66	3465.2	
252.87	4289.8	
253.08	5458.5	
253.29	7195.2	
253.5	3405.1	
253.72	4805.2	
253.93	5271.5	
254.14	6453.8	
254.35	3721.8	
254.56	3873.4	
254.77	5690.6	
254.98	5053.7	
255.19	3718.4	
255.41	4715.1	
255.62	5578.7	
255.83	6117.3	
256.04	4270	
256.25	4182.6	
256.46	6490.7	
256.67	5124	
256.88	4076.8	
257.09	4527.4	
257.31	5130.2	
257.52	5183.4	
257.73	5096.7	
257.94	3732.1	
258.15	5386.8	
258.36	5468.1	
258.57	4735.6	
258.78	3022.8	
258.99	5973.2	
259.2	5269.4	
259.41	3710.2	
259.63	3839.3	
259.84	6317.3	
260.05	6758.3	
260.26	4947.9	
260.47	3631.7	
260.68	6012.2	
260.89	5350	
261.1	4517.1	
261.31	3554.6	
261.52	6010.8	
261.73	6443.6	
261.95	4866	
262.16	4298	
262.37	6184.9	
262.58	6193.7	
262.79	4818.2	
263	3815.4	
263.21	5496.1	
263.42	4964.3	
263.63	3838.6	
263.84	3749.8	
264.05	6015.6	
264.26	6440.2	
264.47	4683.7	
264.69	4205.2	
264.9	6208.8	
265.11	5657.2	
265.32	3659	
265.53	3755.3	
265.74	5580	
265.95	4820.9	
266.16	3951.9	
266.37	4449.6	
266.58	5608.7	
266.79	5214.8	
267	3723.2	
267.21	3422.2	
267.42	5068.7	
267.63	5435.3	
267.84	3885	
268.06	3337.5	
268.27	5926.8	
268.48	6198.5	
268.69	3790.1	
268.9	4515.8	
269.11	6195.8	
269.32	4955.4	
269.53	3953.9	
269.74	3635.1	
269.95	5750.7	
270.16	4762.9	
270.37	3880.9	
270.58	4560.1	
270.79	5272.2	
271	5961	
271.21	4225.6	
271.42	4016.7	
271.63	5598.5	
271.84	5070.8	
272.05	3128.6	
272.26	3521.8	
272.47	5500.2	
272.68	5672.2	
272.89	3790.8	
273.11	4390.8	
273.32	5228.5	
273.53	6411.5	
273.74	4250.9	
273.95	4156.7	
274.16	6123.4	
274.37	5578	
274.58	4315.1	
274.79	3439.9	
275	5537.7	
275.21	6090.7	
275.42	5240.1	
275.63	4412.7	
275.84	5715.9	
276.05	7185	
276.26	4179.2	
276.47	3867.2	
276.68	5283.8	
276.89	6497.5	
277.1	4411.3	
277.31	3457	
277.52	5743.2	
277.73	5821.7	
277.94	3416	
278.15	3788.7	
278.36	5615.5	
278.57	5094	
278.78	3740.3	
278.99	4255.7	
279.2	5063.9	
279.41	4984.8	
279.62	4958.1	
279.83	3514.3	
280.04	6673.6	
280.25	4926	
280.46	4909.7	
280.67	3966.9	
280.88	5061.9	
281.09	6163	
281.3	4188.8	
281.51	5268.1	
281.72	5965.1	
281.93	5970.5	
282.14	3701.4	
282.35	3965.6	
282.56	5928.9	
282.77	5906.3	
282.98	3752.6	
283.19	4618.2	
283.4	7290.8	
283.61	5349.3	
283.82	3382.6	
284.03	4892.6	
284.24	5547.9	
284.45	6067.4	
284.66	4897.4	
284.87	4698.7	
285.08	6007.4	
285.29	6181.5	
285.5	3289	
285.71	3868.6	
285.92	6076.3	
286.12	6731	
286.33	4848.9	
286.54	3779.9	
286.75	5992.4	
286.96	5336.3	
287.17	3510.9	
287.38	4829.8	
287.59	5068.7	
287.8	5072.8	
288.01	3877.5	
288.22	4454.3	
288.43	5954.8	
288.64	4999.8	
288.85	4600.4	
289.06	4362.2	
289.27	5904.3	
289.48	6329.6	
289.69	4848.9	
289.9	4377.2	
290.11	6134.3	
290.32	5164.3	
290.53	4663.9	
290.74	4253.6	
290.94	5958.9	
291.15	5910.4	
291.36	3784	
291.57	4401.1	
291.78	5158.8	
291.99	4855.1	
292.2	3553.2	
292.41	4295.3	
292.62	5971.9	
292.83	5772.5	
293.04	5304.2	
293.25	3538.9	
293.46	5236.7	
293.67	6049	
293.88	3668.6	
294.09	3506.8	
294.29	4938.3	
294.5	5621.7	
294.71	3945.8	
294.92	3740.3	
295.13	5216.2	
295.34	6657.3	
295.55	3352.5	
295.76	3428.3	
295.97	5926.8	
296.18	6725.5	
296.39	3540.3	
296.6	3702	
296.81	5538.4	
297.01	5936.4	
297.22	3828.3	
297.43	3659.7	
297.64	5102.2	
297.85	5029.8	
298.06	3037.1	
298.27	3316.3	
298.48	5522.7	
298.69	5162.9	
298.9	3998.3	
299.11	3621.5	
299.31	4984.8	
299.52	4978.6	
299.73	4303.5	
299.94	4164.9	
300.15	5448.3	
300.36	5052.3	
300.57	4179.2	
300.78	4179.9	
300.99	5340.4	
301.2	5549.3	
301.4	3639.2	
301.61	3987.4	
301.82	5798.5	
302.03	5872.9	
302.24	4506.9	
302.45	3506.1	
302.66	5767.8	
302.87	6242.2	
303.08	3707.5	
303.29	5008	
303.49	5208	
303.7	5515.2	
303.91	3270.6	
304.12	4861.9	
304.33	4952	
304.54	5576.6	
304.75	3731.4	
304.96	3541.6	
305.16	5793	
305.37	6550.8	
305.58	3187.3	
305.79	3347.1	
306	5815.5	
306.21	4853	
306.42	3723.2	
306.63	5659.2	
306.83	5297.4	
307.04	6085.9	
307.25	4037.2	
307.46	4010.6	
307.67	4650.9	
307.88	5900.2	
308.09	3601.7	
308.29	3766.2	
308.5	5556.1	
308.71	6129.6	
308.92	3971	
309.13	3524.6	
309.34	5388.9	
309.55	5399.1	
309.75	4552	
309.96	4206.5	
310.17	5905	
310.38	5151.3	
310.59	4429.8	
310.8	3462.4	
311.01	5305.6	
311.21	5276.9	
311.42	3559.4	
311.63	3605.8	
311.84	5231.2	
312.05	5655.1	
312.26	4102.8	
312.46	4567	
312.67	5268.1	
312.88	4975.9	
313.09	3510.9	
313.3	3493.8	
313.51	6226.5	
313.71	6615.6	
313.92	3577.1	
314.13	3763.5	
314.34	5633.3	
314.55	5366.4	
314.76	4577.2	
314.96	3980.6	
315.17	5513.1	
315.38	6027.2	
315.59	3568.2	
315.8	3374.4	
316.01	6341.9	
316.21	6409.5	
316.42	3407.1	
316.63	3938.2	
316.84	5379.3	
317.05	6215.6	
317.26	4148.5	
317.46	3790.1	
317.67	5430.5	
317.88	5838.8	
318.09	4455	
318.3	3287.7	
318.5	5161.6	
318.71	5788.2	
318.92	5737.7	
319.13	4183.3	
319.34	5984.8	
319.54	6109.8	
319.75	3331.4	
319.96	3133.4	
320.17	5855.1	
320.38	6022.4	
320.58	3224.2	
320.79	3946.4	
321	6034	
321.21	6188.3	
321.42	3942.3	
321.62	3261	
321.83	5060.5	
322.04	5404.6	
322.25	3758	
322.46	3623.5	
322.66	5540.4	
322.87	5763.7	
323.08	4422.9	
323.29	3495.9	
323.5	6527.6	
323.7	5053	
323.91	4875.5	
324.12	4410.6	
324.33	5550	
324.53	5735	
324.74	4225	
324.95	4389.5	
325.16	4784.7	
325.37	5244.8	
325.57	3595.6	
325.78	3701.4	
325.99	5590.3	
326.2	4963.6	
326.4	5198.4	
326.61	3308.2	
326.82	5390.3	
327.03	5552.7	
327.24	5108.3	
327.44	4866.7	
327.65	5746.6	
327.86	4713.1	
328.07	4206.5	
328.27	3409.9	
328.48	6193.7	
328.69	5038.7	
328.9	5123.3	
329.1	3825.6	
329.31	5322.7	
329.52	6300.2	
329.73	3580.5	
329.93	4095.9	
330.14	5541.1	
330.35	5685.8	
330.56	5890	
330.76	4437.3	
330.97	5264.6	
331.18	5788.9	
331.39	4000.4	
331.59	3209.2	
331.8	6066.1	
332.01	6171.2	
332.22	3704.1	
332.42	4186	
332.63	5575.9	
332.84	5133.6	
333.05	4033.1	
333.25	3641.3	
333.46	5255.1	
333.67	5455.8	
333.88	3725.3	
334.08	4147.1	
334.29	7358.4	
334.5	6133.7	
334.7	3476.8	
334.91	5139.7	
335.12	4977.2	
335.33	5967.8	
335.53	3971.7	
335.74	5843.5	
335.95	5242.1	
336.16	5064.6	
336.36	3984.7	
336.57	4557.4	
336.78	5041.4	
336.98	6005.3	
337.19	4931.5	
337.4	3914.4	
337.61	6604.7	
337.81	4992.3	
338.02	3655.6	
338.23	4760.8	
338.43	6307.7	
338.64	5113.1	
338.85	3579.2	
339.05	4726	
339.26	6323.4	
339.47	4954.7	
339.68	3588	
339.88	5315.8	
340.09	5705	
340.3	5913.9	
340.5	4229.1	
340.71	3186	
340.92	4909	
341.13	6162.3	
341.33	3431	
341.54	4239.3	
341.75	5653.1	
341.95	5387.5	
342.16	3989.4	
342.37	4371	
342.57	5023	
342.78	5381.4	
342.99	4556	
343.19	3229	
343.4	5872.2	
343.61	5735.7	
343.81	3814.7	
344.02	3535.5	
344.23	5896.1	
344.43	6309.8	
344.64	4463.9	
344.85	4333.5	
345.06	5720.7	
345.26	6055.2	
345.47	4150.5	
345.68	4893.3	
345.88	4871.4	
346.09	6014.2	
346.3	4248.9	
346.5	3187.3	
346.71	5413.5	
346.92	5167	
347.12	3269.9	
347.33	4069.3	
347.54	6038.1	
347.74	6512.5	
347.95	4130.1	
348.16	3055.6	
348.36	5315.2	
348.57	4939.7	
348.78	4100	
348.98	4432.5	
349.19	5403.9	
349.39	4889.9	
349.6	3313.6	
349.81	3640.6	
350.01	5720.7	
350.22	5184.1	
350.43	3919.8	
350.63	4804.5	
350.84	5556.1	
351.05	5257.1	
351.25	3575.1	
351.46	3255.6	
351.67	6098.2	
351.87	5169.1	
352.08	3896.6	
352.29	4363.5	
352.49	5913.9	
352.7	6060.6	
352.9	3504.1	
353.11	4349.2	
353.32	6667.5	
353.52	5302.2	
353.73	3433.8	
353.94	4418.2	
354.14	5855.1	
354.35	5613.5	
354.55	3551.9	
354.76	3941.7	
354.97	5772.5	
355.17	5519.3	
355.38	3367.5	
355.59	4676.9	
355.79	5100.1	
356	5569.1	
356.2	3962.1	
356.41	3442.6	
356.62	4947.9	
356.82	5415.5	
357.03	4260.5	
357.24	3827	
357.44	5192.3	
357.65	5314.5	
357.85	5048.9	
358.06	4003.1	
358.27	4874.8	
358.47	5104.2	
358.68	3282.9	
358.88	4198.3	
359.09	5728.9	
359.3	6102.3	
359.5	4943.8	
359.71	4349.9	
359.91	6581.5	
360.12	5897.5	
360.33	4226.3	
360.53	4732.9	
360.74	5185.5	
360.94	5223.7	
361.15	4437.3	
361.36	3659.7	
361.56	5984.8	
361.77	5376.6	
361.97	4891.2	
362.18	3849.5	
362.38	5909.8	
362.59	5055.1	
362.8	3531.4	
363	3400.3	
363.21	4883	
363.41	5566.4	
363.62	4053.6	
363.83	5197.1	
364.03	5554.8	
364.24	6645.7	
364.44	5208	
364.65	5247.6	
364.85	5337	
365.06	5233.9	
365.27	3717.1	
365.47	3722.5	
365.68	6358.9	
365.88	5334.3	
366.09	4138.9	
366.29	3822.2	
366.5	5554.8	
366.71	6014.2	
366.91	5152	
367.12	4313	
367.32	6633.4	
367.53	5915.2	
367.73	4205.8	
367.94	5248.9	
368.14	5783.5	
368.35	6703	
368.56	4203.8	
368.76	3580.5	
368.97	5964.4	
369.17	7664.2	
369.38	3759.4	
369.58	3993.5	
369.79	4973.2	
369.99	6271.6	
370.2	5026.4	
370.4	4116.4	
370.61	5654.4	
370.82	6820.4	
371.02	3990.8	
371.23	3246	
371.43	4866.7	
371.64	6238.1	
371.84	4014	
372.05	5326.1	
372.25	7582.9	
372.46	6023.1	
372.66	3957.4	
372.87	3959.4	
373.07	5962.3	
373.28	7675.1	
373.48	5048.2	
373.69	4761.5	
373.9	5430.5	
374.1	5507.7	
374.31	4970.4	
374.51	4496.7	
374.72	6264.1	
374.92	5120.6	
375.13	5111.7	
375.33	4280.3	
375.54	5823.7	
375.74	5248.9	
375.95	4365.6	
376.15	5655.8	
376.36	5787.6	
376.56	5660.6	
376.77	4391.5	
376.97	4871.4	
377.18	6961.7	
377.38	5946.6	
377.59	5307.7	
377.79	3917.8	
378	5735	
378.2	6194.4	
378.41	3990.1	
378.61	3863.8	
378.82	6245.6	
379.02	5321.3	
379.23	4085.7	
379.43	5294.7	
379.64	6255.2	
379.84	5936.4	
380.05	3989.4	
380.25	3873.4	
380.46	6001.2	
380.66	5579.3	
380.87	5298.1	
381.07	5722.7	
381.28	6630	
381.48	5946.6	
381.69	3978.5	
381.89	4017.4	
382.1	4915.8	
382.3	6167.8	
382.51	5123.3	
382.71	6057.9	
382.91	6032	
383.12	6526.9	
383.32	4388.8	
383.53	4629.1	
383.73	5812.1	
383.94	5654.4	
384.14	4485.7	
384.35	3632.4	
384.55	5575.3	
384.76	6035.4	
384.96	4376.5	
385.17	4687.1	
385.37	6000.5	
385.58	5326.1	
385.78	4691.2	
385.98	3536.8	
386.19	5504.9	
386.39	5867.4	
386.6	4123.9	
386.8	4421.6	
387.01	5988.9	
387.21	6031.3	
387.42	4775.2	
387.62	5392.3	
387.83	5323.4	
388.03	6053.8	
388.23	4440	
388.44	5317.2	
388.64	5041.4	
388.85	5155.4	
389.05	4739.7	
389.26	5453.7	
389.46	7047.1	
389.67	6399.2	
389.87	4693.9	
390.07	4790.9	
390.28	5646.2	
390.48	5115.8	
390.69	3937.6	
390.89	4274.1	
391.1	5364.3	
391.3	6319.3	
391.5	5508.4	
391.71	6180.1	
391.91	6027.9	
392.12	7167.9	
392.32	5618.3	
392.53	4767.7	
392.73	5419.6	
392.93	5684.5	
393.14	4432.5	
393.34	5212.8	
393.55	6149.4	
393.75	5661.3	
393.95	4429.8	
394.16	4407.2	
394.36	5365	
394.57	6124.8	
394.77	3887	
394.98	4343.1	
395.18	5382.1	
395.38	5556.8	
395.59	5261.2	
395.79	4155.3	
396	5463.3	
396.2	6014.2	
396.4	5121.3	
396.61	4994.3	
396.81	6244.9	
397.02	5403.2	
397.22	5268.7	
397.42	5336.3	
397.63	6190.3	
397.83	5337.7	
398.04	4109.6	
398.24	4581.3	
398.44	5926.8	
398.65	4989.5	
398.85	3938.2	
399.05	4064.5	
399.26	5325.4	
399.46	7139.9	
399.67	4435.9	
399.87	4185.4	
400.07	5761.6	
400.28	6092.7	
400.48	4303.5	
400.69	5377.3	
400.89	6360.3	
401.09	6748.7	
401.3	4099.4	
401.5	5291.3	
401.7	6950.8	
401.91	7249.1	
402.11	4463.2	
402.32	4722.6	
402.52	6266.1	
402.72	6183.5	
402.93	4895.3	
403.13	3755.3	
403.33	7090.8	
403.54	5707.7	
403.74	4643.4	
403.94	5528.2	
404.15	5870.8	
404.35	7036.8	
404.56	4380.6	
404.76	6333.7	
404.96	6313.9	
405.17	6097.5	
405.37	5393.7	
405.57	4945.8	
405.78	6255.2	
405.98	5793.7	
406.18	4400.4	
406.39	5324	
406.59	6255.9	
406.79	5872.2	
407	4169.7	
407.2	4354.7	
407.4	6393.1	
407.61	6574.7	
407.81	4348.5	
408.01	6785.6	
408.22	5241.4	
408.42	7458.7	
408.62	5483.1	
408.83	4909.7	
409.03	5951.4	
409.23	5784.1	
409.44	4988.9	
409.64	5309	
409.84	6844.3	
410.05	6705.7	
410.25	5105.6	
410.45	4904.2	
410.66	6247	
410.86	8754.4	
411.06	5315.2	
411.27	5167	
411.47	8576.9	
411.67	6370.5	
411.88	5460.6	
412.08	5651	
412.28	7105.8	
412.49	7488.7	
412.69	5143.1	
412.89	5221	
413.09	7308.5	
413.3	7203.4	
413.5	5238.7	
413.7	4894	
413.91	6462	
414.11	7336.5	
414.31	5104.9	
414.52	5594.4	
414.72	7052.5	
414.92	6931.7	
415.12	5120.6	
415.33	5681.1	
415.53	7328.3	
415.73	7470.3	
415.94	5997.8	
416.14	5434.6	
416.34	6230.6	
416.55	5930.9	
416.75	6702.3	
416.95	6028.5	
417.15	7265.5	
417.36	8026.7	
417.56	6846.4	
417.76	5810.1	
417.97	7722.2	
418.17	7365.9	
418.37	5443.5	
418.57	5540.4	
418.78	7040.2	
418.98	6715.3	
419.18	6445.6	
419.38	6322.1	
419.59	6754.2	
419.79	6422.4	
419.99	5395	
420.2	5842.9	
420.4	7424.6	
420.6	7585	
420.8	5274.9	
421.01	5133.6	
421.21	7110.5	
421.41	7368.6	
421.61	5646.2	
421.82	5390.9	
422.02	6618.4	
422.22	7578.2	
422.42	6169.2	
422.63	5806	
422.83	6744	
423.03	7976.8	
423.23	5832.6	
423.44	4784.7	
423.64	6868.9	
423.84	6558.3	
424.04	5307	
424.25	4894	
424.45	7767.3	
424.65	7704.5	
424.85	4711.7	
425.06	5328.8	
425.26	7718.1	
425.46	6806.8	
425.66	5775.3	
425.87	5564.3	
426.07	7506.5	
426.27	7427.3	
426.47	5623.7	
426.67	4917.9	
426.88	7888.1	
427.08	7325.6	
427.28	5908.4	
427.48	4969.1	
427.69	6137.8	
427.89	6913.9	
428.09	5868.8	
428.29	4962.2	
428.5	7576.1	
428.7	7051.2	
428.9	4887.8	
429.1	5442.1	
429.3	7021.8	
429.51	7390.4	
429.71	5153.4	
429.91	6077.7	
430.11	7307.2	
430.31	7836.2	
430.52	5488.6	
430.72	5859.2	
430.92	7848.5	
431.12	7259.4	
431.32	5094.7	
431.53	5660.6	
431.73	6180.8	
431.93	7977.5	
432.13	5100.1	
432.33	4980	
432.54	6724.8	
432.74	7124.2	
432.94	4901.5	
433.14	6027.2	
433.34	7232.1	
433.55	6737.8	
433.75	5954.1	
433.95	7770	
434.15	7066.2	
434.35	6667.5	
434.56	5107.6	
434.76	4617.5	
434.96	7027.3	
435.16	7245.7	
435.36	4974.5	
435.56	6124.1	
435.77	6703	
435.97	6901.7	
436.17	6903.7	
436.37	6108.4	
436.57	6596.5	
436.78	6553.5	
436.98	6042.9	
437.18	6654.5	
437.38	7289.4	
437.58	6767.2	
437.78	6773.3	
437.99	5351.3	
438.19	7268.9	
438.39	8101.1	
438.59	5295.4	
438.79	4799.8	
438.99	8062.2	
439.2	6868.2	
439.4	5107	
439.6	4942.4	
439.8	7216.4	
440	8303.1	
440.2	6083.1	
440.4	6148.7	
440.61	7548.8	
440.81	8137.3	
441.01	5212.8	
441.21	6138.4	
441.41	7971.4	
441.61	7565.2	
441.81	6337.1	
442.02	7451.9	
442.22	8510	
442.42	7624.6	
442.62	5303.6	
442.82	5350	
443.02	8013.7	
443.22	7079.8	
443.43	5765.7	
443.63	5293.3	
443.83	6863.4	
444.03	6987	
444.23	6578.8	
444.43	6111.8	
444.63	7234.8	
444.83	8504.5	
445.04	5367.7	
445.24	6683.2	
445.44	7482.6	
445.64	7727.7	
445.84	6193.7	
446.04	6167.8	
446.24	6918.7	
446.44	7956.4	
446.65	5318.6	
446.85	5750.7	
447.05	7010.9	
447.25	7864.9	
447.45	5836.7	
447.65	5169.1	
447.85	7325.6	
448.05	6909.8	
448.25	6232.7	
448.46	6064.7	
448.66	7286	
448.86	6993.1	
449.06	5057.8	
449.26	6354.2	
449.46	7625.3	
449.66	6608.8	
449.86	5794.4	
450.06	5743.9	
450.26	6822.5	
450.47	7367.9	
450.67	6006	
450.87	6343.2	
451.07	7466.9	
451.27	7306.5	
451.47	5368.4	
451.67	5897.5	
451.87	6903	
452.07	8116.8	
452.27	5526.1	
452.47	5457.2	
452.67	7233.4	
452.88	7868.3	
453.08	4857.1	
453.28	6918.7	
453.48	8474.5	
453.68	7240.3	
453.88	5429.2	
454.08	5715.2	
454.28	7628	
454.48	7333.1	
454.68	6253.1	
454.88	6814.3	
455.08	7765.9	
455.28	7474.4	
455.48	5343.2	
455.68	5924.1	
455.89	8207.6	
456.09	7881.3	
456.29	5643.5	
456.49	5732.3	
456.69	8106.5	
456.89	7322.9	
457.09	6315.3	
457.29	6673.6	
457.49	7638.2	
457.69	7791.2	
457.89	6025.8	
458.09	5526.8	
458.29	7490.1	
458.49	8140	
458.69	6457.2	
458.89	5845.6	
459.09	8379.6	
459.29	8551	
459.49	6015.6	
459.69	6765.1	
459.9	7901.7	
460.1	7425.3	
460.3	5836.7	
460.5	5670.8	
460.7	7918.1	
460.9	7641.7	
461.1	5231.9	
461.3	6703	
461.5	8533.9	
461.7	8189.1	
461.9	5788.9	
462.1	6294.1	
462.3	7677.2	
462.5	8269.7	
462.7	5926.1	
462.9	6036.7	
463.1	9413.8	
463.3	9025.4	
463.5	6090.7	
463.7	7076.4	
463.9	7831.4	
464.1	8253.3	
464.3	6218.3	
464.5	6535.8	
464.7	8480	
464.9	8143.4	
465.1	7927	
465.3	6845	
465.5	8839	
465.7	8824.7	
465.9	7101	
466.1	7004.1	
466.3	8636.3	
466.5	8498.4	
466.7	7888.8	
466.9	6709.8	
467.1	8376.9	
467.3	9366	
467.5	7733.1	
467.7	6606.1	
467.9	9633.6	
468.1	10551	
468.3	7422.5	
468.5	7935.2	
468.7	8352.3	
468.9	8314.1	
469.1	6932.4	
469.3	7724.9	
469.5	10393	
469.7	7968.6	
469.9	7396.6	
470.1	6639.5	
470.3	8261.5	
470.5	8383	
470.7	7943.4	
470.9	6671.6	
471.1	8121.6	
471.3	8600.1	
471.5	6557.6	
471.69	8590.5	
471.89	8000.7	
472.09	7529	
472.29	7349.5	
472.49	7829.4	
472.69	7737.9	
472.89	8529.1	
473.09	6395.1	
473.29	6602	
473.49	7952.3	
473.69	8098.4	
473.89	7585.7	
474.09	6739.9	
474.29	9352.4	
474.49	9093.7	
474.69	7508.5	
474.89	6872.3	
475.09	8021.9	
475.29	8035.5	
475.49	6284.5	
475.69	6598.6	
475.88	9676.7	
476.08	8265.6	
476.28	6223.1	
476.48	6704.4	
476.68	8880	
476.88	8681.3	
477.08	6550.8	
477.28	6851.1	
477.48	8150.2	
477.68	8867.7	
477.88	6391.7	
478.08	6595.1	
478.28	9159.2	
478.48	8343.4	
478.67	6755.6	
478.87	6155.5	
479.07	8949.6	
479.27	8353.7	
479.47	6962.4	
479.67	6891.4	
479.87	8770.1	
480.07	9320.3	
480.27	6180.8	
480.47	7866.2	
480.67	8405.5	
480.87	9090.9	
481.06	6412.9	
481.26	7319.4	
481.46	8353.7	
481.66	8186.4	
481.86	6938.5	
482.06	7899	
482.26	8066.9	
482.46	9153.1	
482.66	6904.4	
482.86	6373.3	
483.05	8449.9	
483.25	7788.4	
483.45	9404.3	
483.65	6931.7	
483.85	7949.5	
484.05	8277.2	
484.25	7319.4	
484.45	7762.5	
484.65	9202.9	
484.84	9217.9	
485.04	6894.8	
485.24	6785.6	
485.44	9540.1	
485.64	7679.9	
485.84	6035.4	
486.04	7546.8	
486.24	8149.6	
486.44	8469	
486.63	6081.8	
486.83	6915.3	
487.03	8050.6	
487.23	8274.5	
487.43	6212.9	
487.63	8578.3	
487.83	8243.1	
488.02	9396.1	
488.22	7124.2	
488.42	7819.8	
488.62	9267.7	
488.82	8119.5	
489.02	6754.2	
489.22	6904.4	
489.41	9015.8	
489.61	8713.4	
489.81	6499.6	
490.01	6595.1	
490.21	8960.5	
490.41	9612.5	
490.61	6464.1	
490.8	6554.2	
491	8429.4	
491.2	7648.5	
491.4	7206.1	
491.6	6376	
491.8	8408.3	
491.99	8621.3	
492.19	6217.6	
492.39	6695.5	
492.59	9028.8	
492.79	9171.5	
492.99	7559.7	
493.18	6583.5	
493.38	9223.4	
493.58	9852.8	
493.78	7350.2	
493.98	6805.4	
494.18	8880	
494.37	8392.6	
494.57	7548.8	
494.77	7451.9	
494.97	9064.3	
495.17	9341.5	
495.37	6993.1	
495.56	7348.8	
495.76	9554.5	
495.96	9224.7	
496.16	8215.8	
496.36	7208.8	
496.55	9370.8	
496.75	8815.1	
496.95	7497.6	
497.15	7400	
497.35	9357.2	
497.54	9292.3	
497.74	7209.5	
497.94	8943.5	
498.14	10077	
498.34	9854.1	
498.53	6819.7	
498.73	7700.4	
498.93	8669.1	
499.13	9331.9	
499.33	7561.1	
499.52	8008.2	
499.72	9267.1	
499.92	9567.4	
500.12	7224.6	
500.32	7463.5	
500.51	9479.4	
500.71	9385.8	
500.91	8333.9	
501.11	7933.8	
501.31	9418.6	
501.5	9889.6	
501.7	8550.3	
501.9	7490.8	
502.1	9216.5	
502.29	9672.6	
502.49	7978.2	
502.69	8475.2	
502.89	9413.8	
503.09	9310.1	
503.28	6967.9	
503.48	7140.6	
503.68	8613.8	
503.88	8654	
504.07	8075.1	
504.27	7537.2	
504.47	8981.7	
504.67	9161.2	
504.86	7988.4	
505.06	7703.1	
505.26	8627.4	
505.46	10574	
505.65	7395.2	
505.85	7664.9	
506.05	8570.1	
506.25	9115.5	
506.44	6816.3	
506.64	7718.1	
506.84	8471.8	
507.04	9402.2	
507.23	7013.6	
507.43	7559.7	
507.63	10417	
507.83	8713.4	
508.02	7555.6	
508.22	7071	
508.42	10761	
508.62	8381.7	
508.81	7511.9	
509.01	7941.3	
509.21	8308.6	
509.4	8640.4	
509.6	7597.3	
509.8	6979.5	
510	8609.7	
510.19	10104	
510.39	6911.2	
510.59	6969.9	
510.79	8353	
510.98	9899.2	
511.18	7001.3	
511.38	7161.1	
511.57	9279.3	
511.77	9094.3	
511.97	7763.2	
512.17	6840.2	
512.36	9148.3	
512.56	9213.8	
512.76	6961	
512.95	6742.6	
513.15	9362.6	
513.35	7982.3	
513.55	7820.5	
513.74	6851.8	
513.94	9345.6	
514.14	8663.6	
514.33	7943.4	
514.53	7743.4	
514.73	8695.7	
514.92	8821.3	
515.12	7219.1	
515.32	7000.6	
515.51	9002.9	
515.71	9594.1	
515.91	8617.9	
516.11	7098.3	
516.3	10792	
516.5	8492.2	
516.7	7746.1	
516.89	8281.3	
517.09	8729.8	
517.29	8598.1	
517.48	7965.9	
517.68	7350.8	
517.88	8365.3	
518.07	9078.6	
518.27	7871	
518.47	6892.1	
518.66	9624.1	
518.86	8261.5	
519.06	6789.7	
519.25	7311.2	
519.45	8637	
519.65	10117	
519.84	7829.4	
520.04	8540	
520.24	10443	
520.43	9157.8	
520.63	7522.2	
520.83	7262.1	
521.02	8369.4	
521.22	9091.6	
521.42	7855.3	
521.61	8354.3	
521.81	8666.3	
522.01	8961.2	
522.2	7698.3	
522.4	7455.3	
522.6	9397.4	
522.79	8144.1	
522.99	7664.9	
523.18	6887.3	
523.38	9120.3	
523.58	9161.2	
523.77	8867	
523.97	6854.6	
524.17	11056	
524.36	10145	
524.56	8168	
524.76	7841	
524.95	9228.8	
525.15	8778.3	
525.34	7686.7	
525.54	7616.4	
525.74	9394.7	
525.93	8486.8	
526.13	8875.2	
526.33	7569.3	
526.52	9916.9	
526.72	9273.2	
526.91	8850.6	
527.11	8181	
527.31	9932.6	
527.5	10322	
527.7	8110.6	
527.89	7094.8	
528.09	8771.5	
528.29	9406.3	
528.48	8396.7	
528.68	8135.9	
528.87	9684.8	
529.07	9796.8	
529.27	8006.9	
529.46	7350.8	
529.66	9302.6	
529.85	9739.5	
530.05	7191.1	
530.25	7972.7	
530.44	10714	
530.64	9280	
530.83	7802.8	
531.03	8007.6	
531.23	9691	
531.42	9617.9	
531.62	8819.2	
531.81	7920.9	
532.01	9878	
532.21	10432	
532.4	7681.2	
532.6	8068.3	
532.79	10948	
532.99	9906.7	
533.18	8054.7	
533.38	9071.1	
533.58	9519	
533.77	10249	
533.97	8008.2	
534.16	8949.6	
534.36	10443	
534.55	9529.9	
534.75	9066.4	
534.95	8137.9	
535.14	10350	
535.34	9504.6	
535.53	7697.6	
535.73	9843.9	
535.92	10886	
536.12	9629.5	
536.31	7818.5	
536.51	9037	
536.71	9994.1	
536.9	9518.3	
537.1	8049.9	
537.29	8165.3	
537.49	10437	
537.68	9406.3	
537.88	8703.9	
538.07	7712.7	
538.27	9636.4	
538.46	10776	
538.66	7679.9	
538.86	8020.5	
539.05	9678	
539.25	10135	
539.44	8342.1	
539.64	7950.2	
539.83	9488.9	
540.03	10593	
540.22	7845.8	
540.42	7913.4	
540.61	9841.9	
540.81	9927.9	
541	8452.6	
541.2	9049.3	
541.39	9338.7	
541.59	9716.9	
541.78	8776.2	
541.98	7761.1	
542.18	8945.5	
542.37	8957.8	
542.57	8129.8	
542.76	8635.6	
542.96	8944.2	
543.15	9684.8	
543.35	8155	
543.54	7539.9	
543.74	9951.1	
543.93	9568.8	
544.13	8162.5	
544.32	9217.2	
544.52	9891	
544.71	9039.7	
544.91	7181.5	
545.1	8589.9	
545.3	9058.8	
545.49	9830.9	
545.69	7208.2	
545.88	7861.5	
546.08	10727	
546.27	10279	
546.47	8295.6	
546.66	7647.8	
546.86	9934.7	
547.05	10658	
547.24	7855.3	
547.44	7636.2	
547.63	8887.5	
547.83	10071	
548.02	8082.7	
548.22	8317.5	
548.41	8729.8	
548.61	10077	
548.8	7503.8	
549	7498.3	
549.19	9363.3	
549.39	9762.7	
549.58	7281.2	
549.78	7802.1	
549.97	9814.5	
550.17	9199.5	
550.36	8810.4	
550.55	9824.8	
550.75	9235	
550.94	10312	
551.14	7519.5	
551.33	7905.8	
551.53	8643.1	
551.72	9729.9	
551.92	7960.5	
552.11	7746.8	
552.31	9596.8	
552.5	9734	
552.69	9415.2	
552.89	7384.3	
553.08	9658.2	
553.28	9423.4	
553.47	7783	
553.67	8919.6	
553.86	10349	
554.06	8575.5	
554.25	6839.5	
554.44	7535.2	
554.64	11012	
554.83	10554	
555.03	7476.5	
555.22	7884.7	
555.42	9860.3	
555.61	9551	
555.8	7678.5	
556	7947.5	
556.19	8660.2	
556.39	9998.9	
556.58	7749.5	
556.78	7742.7	
556.97	9493	
557.16	9149	
557.36	8991.9	
557.55	7302.4	
557.75	8445.8	
557.94	10253	
558.13	7419.1	
558.33	7228.6	
558.52	9934	
558.72	8832.9	
558.91	7342.7	
559.1	7542	
559.3	8546.9	
559.49	8243.1	
559.69	6822.5	
559.88	7913.4	
560.07	9372.9	
560.27	9702.6	
560.46	8065.6	
560.66	8282	
560.85	9152.4	
561.04	8340.7	
561.24	7250.5	
561.43	7453.2	
561.63	8624.7	
561.82	8901.8	
562.01	8757.8	
562.21	7776.1	
562.4	9415.2	
562.59	10279	
562.79	7585	
562.98	7285.3	
563.18	9226.1	
563.37	10786	
563.56	8157.1	
563.76	7133.1	
563.95	8632.9	
564.14	8628.1	
564.34	7591.8	
564.53	7251.2	
564.73	9250	
564.92	9622	
565.11	7731.8	
565.31	7047.7	
565.5	9772.9	
565.69	8779	
565.89	7436.2	
566.08	7636.2	
566.27	9667.1	
566.47	10135	
566.66	8307.2	
566.85	6882.5	
567.05	9241.1	
567.24	8621.3	
567.44	7169.9	
567.63	8700.5	
567.82	9458.9	
568.02	9196.1	
568.21	7195.2	
568.4	7609.6	
568.6	9017.9	
568.79	9076.6	
568.98	7021.1	
569.18	7262.1	
569.37	8993.3	
569.56	11078	
569.76	7516	
569.95	8498.4	
570.14	9323.7	
570.34	9220	
570.53	6914.6	
570.72	6936.5	
570.91	9720.3	
571.11	8817.9	
571.3	7386.3	
571.49	8385.7	
571.69	8952.4	
571.88	8490.9	
572.07	7913.4	
572.27	8018.5	
572.46	8477.2	
572.65	9508.7	
572.85	7164.5	
573.04	7505.8	
573.23	9776.3	
573.43	8896.4	
573.62	6888	
573.81	7587	
574	9054.8	
574.2	8785.8	
574.39	7253.9	
574.58	7443.7	
574.78	9920.4	
574.97	9120.3	
575.16	7733.8	
575.36	8006.2	
575.55	9385.8	
575.74	9577.7	
575.93	6860	
576.13	7819.1	
576.32	8819.2	
576.51	9448.6	
576.71	7257.3	
576.9	8712.7	
577.09	9798.8	
577.28	9303.9	
577.48	7848.5	
577.67	6780.1	
577.86	8799.4	
578.05	9314.2	
578.25	7397.9	
578.44	7508.5	
578.63	9096.4	
578.83	10262	
579.02	6906.4	
579.21	8482	
579.4	9295.7	
579.6	8923	
579.79	7651.9	
579.98	10010	
580.17	9647.3	
580.37	9678	
580.56	7102.4	
580.75	7949.5	
580.94	10115	
581.14	10050	
581.33	8434.9	
581.52	7347.4	
581.71	9529.9	
581.91	10218	
582.1	7055.9	
582.29	7736.5	
582.48	9196.7	
582.68	9143.5	
582.87	8178.2	
583.06	7802.8	
583.25	9512.8	
583.45	9156.5	
583.64	8464.9	
583.83	9190.6	
584.02	8979	
584.21	9415.2	
584.41	8381	
584.6	7748.1	
584.79	9176.3	
584.98	10043	
585.18	7215.7	
585.37	7204.8	
585.56	8727.1	
585.75	9549	
585.94	7400.7	
586.14	8064.2	
586.33	10243	
586.52	9131.2	
586.71	7869.7	
586.91	7587.7	
587.1	8459.5	
587.29	9866.4	
587.48	7537.9	
587.67	7346.7	
587.87	9355.1	
588.06	9413.1	
588.25	8629.5	
588.44	7822.6	
588.63	8914.1	
588.83	9405.6	
589.02	7216.4	
589.21	7025.9	
589.4	8456.1	
589.59	8245.8	
589.78	6126.2	
589.98	6436.1	
590.17	7871.7	
590.36	8402.1	
590.55	5831.2	
590.74	6813.6	
590.94	9906.7	
591.13	8314.8	
591.32	6477.7	
591.51	5973.2	
591.7	8794	
591.89	8290.2	
592.09	6169.2	
592.28	6603.3	
592.47	7664.9	
592.66	9448.6	
592.85	6139.8	
593.05	6374.6	
593.24	8157.1	
593.43	9026.8	
593.62	6496.8	
593.81	7058.7	
594	8241.7	
594.19	8527.7	
594.39	6366.5	
594.58	6341.9	
594.77	8584.4	
594.96	9211.1	
595.15	6282.5	
595.34	6968.6	
595.54	8679.3	
595.73	7789.1	
595.92	5722	
596.11	6973.3	
596.3	9108.7	
596.49	7862.8	
596.68	6694.8	
596.88	7139.9	
597.07	8962.6	
597.26	7639.6	
597.45	6123.4	
597.64	7480.5	
597.83	7975.5	
598.02	8669.7	
598.22	6354.8	
598.41	7060.7	
598.6	8434.9	
598.79	7873.1	
598.98	6410.8	
599.17	7412.3	
599.36	8591.2	
599.55	9791.3	
599.74	8540.7	
599.94	8286.8	
600.13	9107.3	
600.32	7843	
600.51	6193.7	
600.7	6436.8	
600.89	9747	
601.08	9921.7	
601.27	6275.7	
601.47	7223.9	
601.66	9158.5	
601.85	9790.7	
602.04	6915.3	
602.23	7225.9	
602.42	8130.4	
602.61	8873.2	
602.8	6829.3	
602.99	6625.9	
603.18	8507.9	
603.37	8851.3	
603.57	7253.2	
603.76	7842.4	
603.95	9591.3	
604.14	9121.7	
604.33	6793.1	
604.52	7109.2	
604.71	8772.1	
604.9	8363.9	
605.09	7723.6	
605.28	7505.8	
605.47	9367.4	
605.66	9026.8	
605.86	7381.6	
606.05	6792.4	
606.24	9357.2	
606.43	7959.1	
606.62	7128.3	
606.81	7918.1	
607	9303.9	
607.19	8460.2	
607.38	6534.4	
607.57	6816.3	
607.76	8316.1	
607.95	7706.5	
608.14	7156.3	
608.33	7776.1	
608.52	8318.8	
608.72	9227.5	
608.91	6466.1	
609.1	6314.6	
609.29	8434.2	
609.48	7952.9	
609.67	7316	
609.86	6415.6	
610.05	7980.9	
610.24	8464.9	
610.43	6290	
610.62	5954.1	
610.81	9515.5	
611	9298.5	
611.19	6331	
611.38	7191.1	
611.57	8594.6	
611.76	10030	
611.95	6160.3	
612.14	6070.9	
612.33	8441.7	
612.52	7961.8	
612.71	6788.3	
612.9	5924.8	
613.09	7546.1	
613.28	9901.2	
613.47	6505.7	
613.66	7459.4	
613.85	8526.4	
614.04	8051.2	
614.24	6589	
614.43	5803.3	
614.62	8731.2	
614.81	8652	
615	7195.2	
615.19	7223.9	
615.38	8010.3	
615.57	8269	
615.76	7012.2	
615.95	8002.8	
616.14	8759.8	
616.33	8482	
616.52	7299	
616.71	7659.4	
616.9	8673.1	
617.09	8475.9	
617.28	6606.1	
617.47	7951.6	
617.66	7768.6	
617.85	7849.9	
618.04	7636.2	
618.22	7002.7	
618.41	8108.6	
618.6	9048.6	
618.79	6948.1	
618.98	6625.9	
619.17	9450.7	
619.36	7689.4	
619.55	6773.3	
619.74	6806.8	
619.93	8632.9	
620.12	8054.7	
620.31	7418.4	
620.5	7591.1	
620.69	9654.1	
620.88	9622	
621.07	8346.2	
621.26	7253.2	
621.45	8794.7	
621.64	8747.6	
621.83	7397.3	
622.02	6449.7	
622.21	8787.2	
622.4	8509.3	
622.59	7894.9	
622.78	7653.9	
622.97	8150.9	
623.16	9157.2	
623.35	7277.8	
623.54	6312.5	
623.72	8318.8	
623.91	8490.9	
624.1	7552.2	
624.29	6250.4	
624.48	9574.3	
624.67	8844.5	
624.86	7380.2	
625.05	6429.3	
625.24	9592.7	
625.43	7993.2	
625.62	9114.8	
625.81	6630.6	
626	9104.6	
626.19	8234.2	
626.38	7408.2	
626.56	6756.2	
626.75	8062.2	
626.94	8890.9	
627.13	7340.6	
627.32	5945.3	
627.51	8749.6	
627.7	10139	
627.89	6180.8	
628.08	7301	
628.27	7882.6	
628.46	8150.9	
628.65	6477	
628.83	6085.2	
629.02	8684.8	
629.21	7965.9	
629.4	6886	
629.59	7198.6	
629.78	7866.2	
629.97	8999.5	
630.16	7181.5	
630.35	6638.1	
630.54	9291	
630.72	9123	
630.91	6647	
631.1	7301.7	
631.29	8612.4	
631.48	8686.8	
631.67	7355.6	
631.86	6717.3	
632.05	8159.8	
632.24	8189.1	
632.42	6350.1	
632.61	7138.5	
632.8	8346.2	
632.99	7913.4	
633.18	7083.2	
633.37	7528.3	
633.56	8639	
633.75	8412.4	
633.93	7033.4	
634.12	6733	
634.31	9423.4	
634.5	8948.9	
634.69	6726.2	
634.88	7336.5	
635.07	8378.2	
635.25	9029.5	
635.44	7720.2	
635.63	7937.2	
635.82	8235.6	
636.01	7704.5	
636.2	7645.1	
636.39	7193.1	
636.57	9422	
636.76	9087.5	
636.95	6584.2	
637.14	7965.2	
637.33	8667.7	
637.52	9677.3	
637.7	6449.7	
637.89	7425.3	
638.08	8174.1	
638.27	9705.3	
638.46	7463.5	
638.65	7880.6	
638.83	9739.5	
639.02	8028.7	
639.21	7352.2	
639.4	7823.2	
639.59	8576.2	
639.78	8207.6	
639.96	6615.6	
640.15	6688	
640.34	8429.4	
640.53	8559.1	
640.72	6398.5	
640.91	6682.5	
641.09	7864.2	
641.28	9252.7	
641.47	6673	
641.66	7501	
641.85	8518.9	
642.03	8830.8	
642.22	7291.5	
642.41	6776	
642.6	7952.9	
642.79	7262.1	
642.97	6556.2	
643.16	7236.2	
643.35	7918.8	
643.54	7750.9	
643.73	6307.1	
643.91	7208.2	
644.1	7473	
644.29	8135.9	
644.48	6430.6	
644.67	6441.5	
644.85	7632.1	
645.04	7987.8	
645.23	5961	
645.42	6181.5	
645.6	7429.3	
645.79	8622.6	
645.98	6277.7	
646.17	5257.8	
646.36	7191.1	
646.54	7785.7	
646.73	7094.8	
646.92	5857.2	
647.11	7348.8	
647.29	8499.8	
647.48	5853.1	
647.67	5644.9	
647.86	8769.4	
648.05	8639	
648.23	6232.7	
648.42	7593.9	
648.61	8117.5	
648.8	7866.2	
648.98	5953.4	
649.17	6300.9	
649.36	7520.8	
649.55	6905.1	
649.73	5933.6	
649.92	6823.1	
650.11	7298.3	
650.3	7681.9	
650.48	6094.1	
650.67	5910.4	
650.86	7980.3	
651.05	6914.6	
651.23	6075.6	
651.42	6062.7	
651.61	7414.3	
651.79	7571.3	
651.98	6285.9	
652.17	5879.7	
652.36	7952.3	
652.54	6964.5	
652.73	6001.9	
652.92	5770.5	
653.11	7930.4	
653.29	8043.1	
653.48	5217.5	
653.67	6189.6	
653.85	7661.5	
654.04	8782.4	
654.23	6382.8	
654.42	5930.9	
654.6	7179.5	
654.79	7869	
654.98	5454.4	
655.16	5948.7	
655.35	6763.1	
655.54	6801.3	
655.73	5587.5	
655.91	5494.7	
656.1	8053.3	
656.29	6786.3	
656.47	5108.3	
656.66	6838.2	
656.85	7129	
657.03	7096.9	
657.22	5659.2	
657.41	5754.8	
657.59	7175.4	
657.78	6995.2	
657.97	5342.5	
658.16	6122.7	
658.34	7904.5	
658.53	8279.9	
658.72	6976.1	
658.9	7602.7	
659.09	7255.3	
659.28	7428.7	
659.46	5829.9	
659.65	5780.1	
659.84	7215	
660.02	7705.1	
660.21	5726.1	
660.4	5657.9	
660.58	8172.1	
660.77	7374.1	
660.96	6286.6	
661.14	5305.6	
661.33	8583	
661.52	8473.1	
661.7	5253.7	
661.89	9090.9	
662.08	7092.8	
662.26	6584.9	
662.45	5520.6	
662.64	5697.4	
662.82	7765.9	
663.01	6982.9	
663.2	5704.3	
663.38	6522.8	
663.57	7697.6	
663.75	7604.8	
663.94	5993.7	
664.13	7370	
664.31	7038.9	
664.5	7807.5	
664.69	6222.4	
664.87	6898.2	
665.06	6823.8	
665.25	7572	
665.43	7081.9	
665.62	7152.2	
665.8	7923.6	
665.99	7185.6	
666.18	6068.1	
666.36	6225.8	
666.55	7775.5	
666.74	7726.3	
666.92	5584.8	
667.11	7335.8	
667.29	7114.6	
667.48	7856.7	
667.67	6961.7	
667.85	6140.5	
668.04	7204.8	
668.22	7225.9	
668.41	6062.7	
668.6	6334.4	
668.78	7011.6	
668.97	7253.2	
669.15	6496.8	
669.34	5365.7	
669.53	7053.9	
669.71	7329	
669.9	5570.5	
670.08	6231.3	
670.27	6922.8	
670.46	7721.5	
670.64	6436.1	
670.83	6764.4	
671.01	6863.4	
671.2	7621.2	
671.38	5696.8	
671.57	5522.7	
671.76	8191.2	
671.94	8835.6	
672.13	5526.8	
672.31	6587.6	
672.5	7690.1	
672.69	7057.3	
672.87	5635.3	
673.06	6006	
673.24	7563.8	
673.43	7054.6	
673.61	6451.8	
673.8	5877.7	
673.98	7740	
674.17	7937.9	
674.36	6539.8	
674.54	6395.8	
674.73	7525.6	
674.91	7768.6	
675.1	6129.6	
675.28	5709.7	
675.47	7261.4	
675.65	7832.1	
675.84	5959.6	
676.03	6193.7	
676.21	7042.3	
676.4	6543.3	
676.58	6896.9	
676.77	6512.5	
676.95	8535.3	
677.14	7021.8	
677.32	5649.7	
677.51	5449.6	
677.69	7851.2	
677.88	6669.6	
678.06	5563.6	
678.25	5654.4	
678.44	7294.2	
678.62	7043.6	
678.81	5270.1	
678.99	6321.4	
679.18	8059.4	
679.36	7583.6	
679.55	5854.5	
679.73	6470.9	
679.92	7653.3	
680.1	7032	
680.29	7123.5	
680.47	5819.6	
680.66	7000.6	
680.84	7814.4	
681.03	5204.6	
681.21	6333	
681.4	6997.2	
681.58	6929.6	
681.77	5594.4	
681.95	5540.4	
682.14	7839.6	
682.32	8241.7	
682.51	6512.5	
682.69	5339.1	
682.88	6845	
683.06	7552.9	
683.25	6246.3	
683.43	6696.9	
683.62	7124.9	
683.8	7609.6	
683.99	6786.3	
684.17	5971.9	
684.36	8421.2	
684.54	6991.8	
684.73	5088.5	
684.91	5218.2	
685.1	7286	
685.28	6624.5	
685.46	5839.4	
685.65	5984.8	
685.83	7562.5	
686.02	6905.8	
686.2	5322	
686.39	5588.9	
686.57	6492.1	
686.76	8071	
686.94	5408.7	
687.13	5511.1	
687.31	7390.4	
687.5	6880.5	
687.68	4984.8	
687.86	6279.8	
688.05	8512.7	
688.23	6322.1	
688.42	6356.9	
688.6	5444.2	
688.79	6795.2	
688.97	6749.4	
689.16	5825.8	
689.34	4828.4	
689.52	7582.9	
689.71	7763.2	
689.89	6111.8	
690.08	5436.7	
690.26	7000	
690.45	6783.6	
690.63	6299.6	
690.81	5492.7	
691	6680.5	
691.18	6638.1	
691.37	5547.9	
691.55	7869	
691.74	6575.3	
691.92	8621.3	
692.1	5664.7	
692.29	5032.5	
692.47	6819.7	
692.66	6074.3	
692.84	5277.6	
693.02	5963	
693.21	6248.4	
693.39	6847	
693.58	5964.4	
693.76	5421.7	
693.94	8065.6	
694.13	7780.9	
694.31	5431.9	
694.5	6578.1	
694.68	6722.1	
694.86	6961	
695.05	5802.6	
695.23	6105.7	
695.42	7412.3	
695.6	9891	
695.78	6382.2	
695.97	5440.8	
696.15	7400.7	
696.34	6799.9	
696.52	5192.3	
696.7	6048.3	
696.89	7152.2	
697.07	6548.7	
697.25	5991	
697.44	7575.4	
697.62	7061.4	
697.81	7473.7	
697.99	5621.7	
698.17	6066.1	
698.36	6316.6	
698.54	7079.1	
698.72	5980.8	
698.91	4943.1	
699.09	6741.2	
699.28	6549.4	
699.46	5679	
699.64	5517.9	
699.83	6523.5	
700.01	7752.2	
700.19	6332.3	
700.38	4803.2	
700.56	7813	
700.74	6616.3	
700.93	5177.3	
701.11	6012.2	
701.29	7176.1	
701.48	8227.4	
701.66	5418.9	
701.84	5393.7	
702.03	6751.5	
702.21	7470.3	
702.39	4986.8	
702.58	5575.3	
702.76	7144.7	
702.94	7340.6	
703.13	4988.2	
703.31	7475.1	
703.49	6445	
703.68	7404.8	
703.86	5264.6	
704.04	6201.2	
704.23	7000.6	
704.41	7370.6	
704.59	5313.1	
704.78	6650.4	
704.96	8092.9	
705.14	7493.5	
705.33	5105.6	
705.51	6036	
705.69	6845.7	
705.87	7690.8	
706.06	6327.5	
706.24	5059.2	
706.42	7186.3	
706.61	7432.1	
706.79	6366.5	
706.97	5178.6	
707.16	6617.7	
707.34	7223.2	
707.52	6279.8	
707.7	5357.5	
707.89	6885.3	
708.07	6488.6	
708.25	6289.3	
708.44	6395.1	
708.62	6712.6	
708.8	7886	
708.98	6586.3	
709.17	5500.8	
709.35	7178.8	
709.53	7148.8	
709.72	5208	
709.9	5315.8	
710.08	7359	
710.26	7518.8	
710.45	6912.6	
710.63	5591.6	
710.81	7002	
710.99	7071.6	
711.18	6070.9	
711.36	5615.5	
711.54	6822.5	
711.72	7517.4	
711.91	5670.8	
712.09	5069.4	
712.27	6941.9	
712.45	7630	
712.64	5915.9	
712.82	4779.3	
713	6305.7	
713.18	6524.8	
713.37	4930.1	
713.55	6218.3	
713.73	7378.8	
713.91	5862	
714.1	5321.3	
714.28	4658.4	
714.46	6997.9	
714.64	6197.8	
714.83	4184	
715.01	5047.6	
715.19	6305	
715.37	5604.6	
715.55	4770.4	
715.74	5162.2	
715.92	7278.5	
716.1	5197.1	
716.28	6242.2	
716.47	5302.9	
716.65	5909.1	
716.83	6032	
717.01	5112.4	
717.19	5228.5	
717.38	8142	
717.56	5701.5	
717.74	5453.7	
717.92	4502.8	
718.1	7058	
718.29	6225.1	
718.47	4128.7	
718.65	4870.1	
718.83	6966.5	
719.01	6769.2	
719.2	3995.6	
719.38	5133.6	
719.56	6511.9	
719.74	8072.4	
719.92	4638	
720.11	5778.7	
720.29	6483.9	
720.47	5511.8	
720.65	4248.2	
720.83	5162.9	
721.02	5935.7	
721.2	5721.3	
721.38	5212.8	
721.56	4388.1	
721.74	5226.4	
721.92	5470.8	
722.11	5771.2	
722.29	5401.2	
722.47	6724.8	
722.65	5876.3	
722.83	4418.2	
723.01	5414.1	
723.2	5938.4	
723.38	6300.2	
723.56	3850.9	
723.74	5045.5	
723.92	5417.6	
724.1	6647	
724.29	4385.4	
724.47	5653.8	
724.65	5550	
724.83	5436	
725.01	4233.8	
725.19	5130.8	
725.37	5543.2	
725.56	5677	
725.74	4154	
725.92	4394.9	
726.1	5431.9	
726.28	5775.3	
726.46	4874.8	
726.64	4554	
726.83	5741.1	
727.01	6115.9	
727.19	4114.4	
727.37	4965.6	
727.55	5887.2	
727.73	6410.8	
727.91	4128	
728.09	4012.7	
728.28	6489.3	
728.46	7120.1	
728.64	5175.2	
728.82	5089.9	
729	7735.9	
729.18	6814.3	
729.36	4297.3	
729.54	6702.3	
729.72	7947.5	
729.91	6100.2	
730.09	6342.6	
730.27	5007.3	
730.45	6053.1	
730.63	6749.4	
730.81	5665.4	
730.99	4702.8	
731.17	7150.1	
731.35	5814.2	
731.53	5195.7	
731.71	4786.1	
731.9	6948.8	
732.08	7146	
732.26	5111.7	
732.44	4647.5	
732.62	7176.1	
732.8	6724.8	
732.98	5417.6	
733.16	4485.7	
733.34	6691.4	
733.52	5442.8	
733.7	5091.3	
733.88	5352.7	
734.07	6598.6	
734.25	6300.2	
734.43	4513	
734.61	6263.4	
734.79	7896.3	
734.97	6107.7	
735.15	4759.5	
735.33	5038.7	
735.51	6548.7	
735.69	6233.3	
735.87	6335.1	
736.05	5331.5	
736.23	6482.5	
736.41	6229.9	
736.59	5118.6	
736.77	5313.1	
736.95	6890	
737.13	6310.5	
737.32	4813.4	
737.5	5055.8	
737.68	7512.6	
737.86	6235.4	
738.04	4633.9	
738.22	6582.9	
738.4	6044.2	
738.58	6348.7	
738.76	5293.3	
738.94	4255	
739.12	6234	
739.3	6059.3	
739.48	5993.7	
739.66	5710.4	
739.84	6511.2	
740.02	6496.8	
740.2	4418.2	
740.38	4746.5	
740.56	6942.6	
740.74	5796.4	
740.92	5466.7	
741.1	5335.6	
741.28	6337.8	
741.46	6157.6	
741.64	4998.4	
741.82	5474.9	
742	6400.6	
742.18	6341.2	
742.36	5218.2	
742.54	4782	
742.72	7021.1	
742.9	5716.6	
743.08	5635.3	
743.26	4390.8	
743.44	7198.6	
743.62	7047.7	
743.8	5769.1	
743.98	4773.1	
744.16	6733	
744.34	6388.3	
744.52	5700.2	
744.7	5629.2	
744.88	6873.7	
745.06	6417	
745.24	5761.6	
745.42	5874.3	
745.6	7034.8	
745.78	6667.5	
745.96	4521.9	
746.14	4871.4	
746.32	7774.8	
746.5	7041.6	
746.68	5469.4	
746.86	4953.4	
747.03	7521.5	
747.21	5686.5	
747.39	5498.1	
747.57	4940.4	
747.75	6557.6	
747.93	6993.8	
748.11	4981.3	
748.29	4790.2	
748.47	8233.5	
748.65	6321.4	
748.83	5708.4	
749.01	5347.2	
749.19	6805.4	
749.37	5973.9	
749.55	5281.7	
749.73	5339.7	
749.91	6490.7	
750.09	6178.7	
750.26	5431.2	
750.44	4735.6	
750.62	6552.8	
750.8	6457.9	
750.98	4664.6	
751.16	4982	
751.34	6582.2	
751.52	5887.9	
751.7	5833.3	
751.88	4583.4	
752.06	7094.8	
752.24	6840.2	
752.42	4579.3	
752.59	4937	
752.77	6486.6	
752.95	7803.4	
753.13	5730.9	
753.31	5113.8	
753.49	6145.3	
753.67	6674.3	
753.85	5351.3	
754.03	4973.8	
754.21	6891.4	
754.38	7303.7	
754.56	5116.5	
754.74	4095.9	
754.92	6118	
755.1	6824.5	
755.28	4081.6	
755.46	4117.1	
755.64	7463.5	
755.82	7600.7	
755.99	4289.8	
756.17	4381.3	
756.35	4985.4	
756.53	6563.7	
756.71	3234.4	
756.89	4246.1	
757.07	6167.1	
757.25	5217.5	
757.42	4832.5	
757.6	5823.1	
757.78	6261.3	
757.96	5249.6	
758.14	4483	
758.32	4020.2	
758.5	4720.6	
758.67	5701.5	
758.85	4282.3	
759.03	4427	
759.21	5814.2	
759.39	5214.8	
759.57	3890.5	
759.75	5071.5	
759.92	6438.1	
760.1	5668.1	
760.28	5426.4	
760.46	5689.9	
760.64	5483.8	
760.82	5213.4	
760.99	5296	
761.17	4468.7	
761.35	6343.2	
761.53	5350	
761.71	4657.8	
761.89	5434.6	
762.06	6332.3	
762.24	5881.8	
762.42	4759.5	
762.6	4591.5	
762.78	5830.6	
762.96	6534.4	
763.13	5259.9	
763.31	4863.2	
763.49	6764.4	
763.67	5748	
763.85	5769.1	
764.02	6343.2	
764.2	7059.3	
764.38	6180.8	
764.56	4788.2	
764.74	5631.9	
764.91	7187.7	
765.09	5975.3	
765.27	4513.7	
765.45	4290.5	
765.63	7187	
765.8	7073.7	
765.98	3982.6	
766.16	4336.2	
766.34	5638.1	
766.52	5371.1	
766.69	5378	
766.87	4157.4	
767.05	6044.2	
767.23	6777.4	
767.41	4506.2	
767.58	4782	
767.76	6624.5	
767.94	6701	
768.12	4653.7	
768.29	5401.2	
768.47	6164.4	
768.65	6888.7	
768.83	4199	
769	5421	
769.18	5702.9	
769.36	6353.5	
769.54	5188.2	
769.72	4277.5	
769.89	6713.2	
770.07	6750.1	
770.25	4571.1	
770.43	5930.2	
770.6	7543.4	
770.78	7911.3	
770.96	4782.7	
771.14	5520.6	
771.31	6531	
771.49	5880.4	
771.67	3884.3	
771.85	4242.7	
772.02	5119.9	
772.2	5865.4	
772.38	4967	
772.55	4454.3	
772.73	6142.5	
772.91	5904.3	
773.09	4780	
773.26	4899.4	
773.44	6134.3	
773.62	5840.1	
773.8	4246.1	
773.97	4000.4	
774.15	6182.8	
774.33	5710.4	
774.5	4187.4	
774.68	4515.1	
774.86	6307.7	
775.04	5838.1	
775.21	4305.5	
775.39	4216.1	
775.57	6129.6	
775.74	6546	
775.92	4091.2	
776.1	4012.7	
776.27	6034	
776.45	7273.7	
776.63	4255.7	
776.81	3799	
776.98	5704.3	
777.16	6877.8	
777.34	4401.8	
777.51	4433.9	
777.69	5652.4	
777.87	5422.3	
778.04	4422.9	
778.22	5114.5	
778.4	5440.1	
778.57	6174.6	
778.75	3690.4	
778.93	3981.3	
779.1	5248.3	
779.28	5117.2	
779.46	3706.8	
779.64	4240.7	
779.81	6371.9	
779.99	7226.6	
780.17	5008	
780.34	5205.9	
780.52	5689.3	
780.69	5928.2	
780.87	4567	
781.05	4055	
781.22	5741.8	
781.4	5849.7	
781.58	4179.2	
781.75	3328.6	
781.93	5793	
782.11	5165	
782.28	5132.9	
782.46	4207.9	
782.64	5022.3	
782.81	5945.3	
782.99	4309.6	
783.17	4244.1	
783.34	5796.4	
783.52	5070.1	
783.69	4469.4	
783.87	5294	
784.05	5184.8	
784.22	5122.7	
784.4	5239.4	
784.58	4519.9	
784.75	6042.9	
784.93	5161.6	
785.1	4198.3	
785.28	4825.7	
785.46	5815.5	
785.63	5145.2	
785.81	4070.7	
785.99	4035.9	
786.16	5258.5	
786.34	5713.8	
786.51	3999	
786.69	4442.7	
786.87	4904.9	
787.04	5444.2	
787.22	3876.8	
787.39	4829.1	
787.57	5124	
787.75	6311.8	
787.92	5024.3	
788.1	5006.6	
788.27	5183.4	
788.45	4889.9	
788.63	4689.2	
788.8	3375.1	
788.98	5655.8	
789.15	4872.8	
789.33	3531.4	
789.5	4177.2	
789.68	6134.3	
789.86	6196.5	
790.03	4625	
790.21	4067.3	
790.38	6136.4	
790.56	5233.9	
790.73	3899.3	
790.91	3952.6	
791.09	5186.1	
791.26	5872.2	
791.44	4115.1	
791.61	3544.4	
791.79	5080.3	
791.96	5214.1	
792.14	3639.9	
792.32	3250.1	
792.49	5120.6	
792.67	5239.4	
792.84	3745.7	
793.02	3514.3	
793.19	5565.7	
793.37	6350.8	
793.54	3278.1	
793.72	3590.8	
793.89	6552.8	
794.07	5201.2	
794.25	4353.3	
794.42	3284.3	
794.6	6277.7	
794.77	5815.5	
794.95	4489.1	
795.12	3933.5	
795.3	5117.2	
795.47	5821.7	
795.65	4369	
795.82	4199	
796	4938.3	
796.17	6935.8	
796.35	4014.7	
796.52	4804.5	
796.7	5634.6	
796.87	5762.3	
797.05	4997	
797.22	4881	
797.4	5717.2	
797.57	6743.3	
797.75	4137.6	
797.92	3913.7	
798.1	6128.9	
798.27	5107	
798.45	3395.5	
798.62	3615.3	
798.8	5485.8	
798.97	6014.9	
799.15	4481.6	
799.32	4173.1	
799.5	4692.6	
799.67	5489.9	
799.85	4533.5	
800.02	3302	
800.2	5074.2	
800.37	5457.8	
800.55	4678.2	
800.72	3971	
800.9	5904.3	
801.07	6363.7	
801.25	5321.3	
801.42	4311	
801.6	5966.4	
801.77	5754.1	
801.95	3810.6	
802.12	3803.1	
802.29	5636.7	
802.47	5658.5	
802.64	4280.3	
802.82	3241.3	
802.99	5072.8	
803.17	6118	
803.34	4197.7	
803.52	3727.3	
803.69	6801.3	
803.87	4868	
804.04	4119.1	
804.21	4252.9	
804.39	6303.6	
804.56	5252.4	
804.74	3517.7	
804.91	4341.7	
805.09	5102.9	
805.26	5227.8	
805.44	3616	
805.61	3939.6	
805.78	5724.8	
805.96	5827.2	
806.13	4300.1	
806.31	4672.1	
806.48	4575.8	
806.66	5208.7	
806.83	4326	
807	4246.8	
807.18	5018.2	
807.35	5532.2	
807.53	4190.1	
807.7	3378.5	
807.87	6314.6	
808.05	5177.3	
808.22	4607.9	
808.4	3335.5	
808.57	5150	
808.74	4767	
808.92	3855	
809.09	4885.1	
809.27	4953.4	
809.44	5610.1	
809.61	3401	
809.79	3768.9	
809.96	6300.9	
810.14	5922.7	
810.31	3302	
810.48	4049.5	
810.66	5211.4	
810.83	6006.7	
811.01	3824.2	
811.18	4251.6	
811.35	5926.8	
811.53	4562.2	
811.7	4637.3	
811.87	4334.9	
812.05	5158.2	
812.22	5055.1	
812.39	3700	
812.57	3613.3	
812.74	5119.9	
812.92	6884.6	
813.09	4002.4	
813.26	4453	
813.44	6669.6	
813.61	5008.6	
813.78	3343	
813.96	4497.3	
814.13	5147.9	
814.3	4807.9	
814.48	4893.3	
814.65	4052.9	
814.82	6476.4	
815	4917.2	
815.17	4151.9	
815.34	5119.9	
815.52	5031.9	
815.69	5107.6	
815.87	4108.9	
816.04	3514.3	
816.21	5205.3	
816.38	4517.8	
816.56	3977.8	
816.73	3678.8	
816.9	6568.5	
817.08	5910.4	
817.25	3710.9	
817.42	4749.2	
817.6	4697.4	
817.77	5177.3	
817.94	4263.9	
818.12	3697.3	
818.29	4872.8	
818.46	7759.8	
818.64	3893.9	
818.81	3633.8	
818.98	4803.2	
819.16	7040.2	
819.33	4459.1	
819.5	4133.5	
819.67	5520.6	
819.85	6267.5	
820.02	4111.6	
820.19	4339.6	
820.37	5433.9	
820.54	4913.1	
820.71	4231.8	
820.88	5294	
821.06	5415.5	
821.23	4987.5	
821.4	4206.5	
821.58	4190.8	
821.75	5915.9	
821.92	5301.5	
822.09	3382.6	
822.27	3609.9	
822.44	5193	
822.61	5070.1	
822.79	3414.6	
822.96	6589.7	
823.13	5670.1	
823.3	4852.3	
823.48	3944.4	
823.65	3557.3	
823.82	5877.7	
823.99	4664.6	
824.17	5029.1	
824.34	3622.9	
824.51	6847.7	
824.68	5211.4	
824.86	3732.8	
825.03	4192.9	
825.2	5169.8	
825.37	6255.2	
825.55	3713.6	
825.72	4188.8	
825.89	6920.1	
826.06	6382.2	
826.24	4083	
826.41	4085	
826.58	6313.2	
826.75	5461.2	
826.92	3231	
827.1	3590.1	
827.27	8636.3	
827.44	6855.9	
827.61	3921.2	
827.79	4663.2	
827.96	4908.3	
828.13	5272.2	
828.3	4005.1	
828.47	3426.3	
828.65	5438	
828.82	5335.6	
828.99	5296	
829.16	4577.9	
829.34	5784.1	
829.51	5588.2	
829.68	4222.9	
829.85	4372.4	
830.02	6064	
830.2	5808	
830.37	3211.2	
830.54	5042.1	
830.71	6569.9	
830.88	5126.1	
831.05	3304.1	
831.23	3790.8	
831.4	6334.4	
831.57	7137.2	
831.74	3905.5	
831.91	3387.3	
832.09	5378.6	
832.26	5784.8	
832.43	3990.8	
832.6	4520.5	
832.77	5411.4	
832.94	6255.9	
833.12	3169.6	
833.29	3938.9	
833.46	5008	
833.63	7407.5	
833.8	4371	
833.97	4011.3	
834.15	5793	
834.32	5509	
834.49	4201.1	
834.66	4268.6	
834.83	6066.8	
835	4845.5	
835.17	3879.5	
835.35	3887	
835.52	5634	
835.69	5544.5	
835.86	4061.8	
836.03	3356.6	
836.2	5721.3	
836.37	5375.2	
836.55	3937.6	
836.72	3749.8	
836.89	5330.9	
837.06	5741.8	
837.23	4113	
837.4	4476.2	
837.57	6593.1	
837.75	7390.4	
837.92	3657	
838.09	3890.5	
838.26	5308.3	
838.43	6057.9	
838.6	4198.3	
838.77	3777.1	
838.94	6939.2	
839.11	6659.3	
839.29	4002.4	
839.46	3158	
839.63	5745.9	
839.8	5474.2	
839.97	3907.5	
840.14	3863.2	
840.31	5526.8	
840.48	5776.6	
840.65	3236.5	
840.82	3819.5	
841	5791.7	
841.17	5698.8	
841.34	3531.4	
841.51	3634.5	
841.68	5735.7	
841.85	5442.8	
842.02	3713.6	
842.19	3079.5	
842.36	5525.4	
842.53	5485.1	
842.7	3580.5	
842.87	4446.8	
843.05	7247.1	
843.22	5478.3	
843.39	3383.9	
843.56	3631.7	
843.73	5179.3	
843.9	5804.6	
844.07	5901.6	
844.24	4867.3	
844.41	8573.5	
844.58	4975.2	
844.75	3418.1	
844.92	3749.8	
845.09	5785.5	
845.26	5682.4	
845.43	3517.7	
845.6	3728	
845.77	5752.1	
845.94	5490.6	
846.12	3926.6	
846.29	4144.4	
846.46	5939.8	
846.63	5760.9	
846.8	3555.3	
846.97	4241.3	
847.14	6252.4	
847.31	5696.8	
847.48	3976.5	
847.65	4431.1	
847.82	6051.7	
847.99	6050.4	
848.16	4773.8	
848.33	4434.5	
848.5	5292.6	
848.67	6258.6	
848.84	3553.2	
849.01	3631.7	
849.18	5218.9	
849.35	4854.4	
849.52	4496	
849.69	3542.3	
849.86	5963	
850.03	6191	
850.2	3544.4	
850.37	4357.4	
850.54	6169.2	
850.71	5414.1	
850.88	4347.2	
851.05	3495.2	
851.22	5587.5	
851.39	6313.2	
851.56	3361.4	
851.73	4095.9	
851.9	4988.2	
852.07	6055.2	
852.24	3981.9	
852.41	3494.5	
852.58	5607.3	
852.75	5070.1	
852.92	3975.1	
853.09	3459	
853.26	5389.6	
853.43	6210.8	
853.6	3605.1	
853.77	3007.8	
853.94	6339.8	
854.11	5035.3	
854.28	5333.6	
854.44	3882.9	
854.61	6801.3	
854.78	5808	
854.95	3531.4	
855.12	4489.8	
855.29	4638	
855.46	6361.7	
855.63	3570.3	
855.8	4949.9	
855.97	5302.9	
856.14	6131.6	
856.31	5018.2	
856.48	3895.9	
856.65	5253.7	
856.82	5058.5	
856.99	3447.4	
857.16	3859.1	
857.33	6983.6	
857.49	5398.4	
857.66	3840.6	
857.83	4169.7	
858	5320.6	
858.17	5594.4	
858.34	3342.3	
858.51	3546.4	
858.68	6488	
858.85	6531	
859.02	4138.9	
859.19	4414.1	
859.36	5016.2	
859.52	5113.1	
859.69	3592.1	
859.86	4216.8	
860.03	5097.4	
860.2	6378.7	
860.37	3281.5	
860.54	3563.5	
860.71	5974.6	
860.88	6436.8	
861.05	4030.4	
861.21	4542.4	
861.38	6432.7	
861.55	4944.5	
861.72	3237.8	
861.89	3963.5	
862.06	6049	
862.23	6612.2	
862.4	3461.7	
862.56	3745.7	
862.73	5847	
862.9	5550.7	
863.07	4209.9	
863.24	3184.6	
863.41	4955.4	
863.58	5076.9	
863.75	3581.2	
863.91	4156	
864.08	6389.7	
864.25	5971.2	
864.42	4512.4	
864.59	5064.6	
864.76	6681.2	
864.93	4999.1	
865.09	3408.5	
865.26	3770.3	
865.43	6294.1	
865.6	6661.4	
865.77	3078.1	
865.94	3510.2	
866.1	6315.9	
866.27	6040.8	
866.44	5380	
866.61	3357.3	
866.78	5449.6	
866.95	5887.2	
867.11	3480.2	
867.28	3150.5	
867.45	6077.7	
867.62	5056.4	
867.79	4093.2	
867.96	3533.4	
868.12	5043.5	
868.29	5983.5	
868.46	3084.2	
868.63	4778.6	
868.8	6226.5	
868.97	5967.8	
869.13	3748.5	
869.3	3691.8	
869.47	5883.8	
869.64	6053.8	
869.81	3618.1	
869.97	3559.4	
870.14	5753.4	
870.31	6500.3	
870.48	3516.4	
870.65	4472.1	
870.81	5398.4	
870.98	5347.9	
871.15	4018.1	
871.32	3706.1	
871.48	5840.1	
871.65	6477	
871.82	3547.1	
871.99	3923.9	
872.16	6935.1	
872.32	6319.3	
872.49	3608.5	
872.66	3620.8	
872.83	5963	
872.99	5207.3	
873.16	4081.6	
873.33	3616.7	
873.5	5644.9	
873.67	5647.6	
873.83	3765.5	
874	4717.2	
874.17	5704.3	
874.34	6914.6	
874.5	4592.2	
874.67	4455	
874.84	6360.3	
875.01	4982.7	
875.17	5015.5	
875.34	3496.6	
875.51	5647.6	
875.68	6867.5	
875.84	4293.2	
876.01	5226.4	
876.18	5926.8	
876.34	5860.6	
876.51	3608.5	
876.68	3468.6	
876.85	5412.1	
877.01	6275.7	
877.18	5119.2	
877.35	3500	
877.52	5575.3	
877.68	4961.5	
877.85	3477.5	
878.02	3481.5	
878.18	5530.9	
878.35	5180	
878.52	2877.4	
878.69	3981.3	
878.85	6027.2	
879.02	5978.7	
879.19	5012.1	
879.35	3840.6	
879.52	5884.5	
879.69	6166.4	
879.86	3075.4	
880.02	4019.5	
880.19	5466.7	
880.36	6702.3	
880.52	4083	
880.69	4222.2	
880.86	6017.6	
881.02	6176	
881.19	3920.5	
881.36	3896.6	
881.52	5927.5	
881.69	5250.3	
881.86	3859.1	
882.02	3805.1	
882.19	6222.4	
882.36	7395.2	
882.52	3625.6	
882.69	5091.3	
882.86	5697.4	
883.02	5619.6	
883.19	4319.8	
883.36	4182.6	
883.52	6040.8	
883.69	6914.6	
883.86	3635.8	
884.02	3188	
884.19	6037.4	
884.36	5526.1	
884.52	4064.5	
884.69	3775.1	
884.86	5313.8	
885.02	6684.6	
885.19	3992.2	
885.36	4126	
885.52	5540.4	
885.69	5711.1	
885.86	5214.8	
886.02	4612	
886.19	5997.8	
886.35	5511.8	
886.52	3900	
886.69	5020.9	
886.85	5070.1	
887.02	6374.6	
887.19	6374.6	
887.35	6374.6	
887.52	6374.6	
887.68	6374.6	
887.85	6374.6	
888.02	6374.6	
888.18	6374.6	
888.35	6374.6	
888.51	6374.6	
888.68	6374.6	
888.85	6374.6	
889.01	6374.6	
889.18	6374.6	
889.35	6374.6	
889.51	6374.6	
889.68	6374.6	
889.84	6374.6	
890.01	6374.6	
890.17	6374.6	
890.34	6374.6	
890.51	6374.6	
890.67	6374.6	
890.84	6374.6	
891	6374.6	
891.17	6374.6	
891.34	6374.6	
891.5	6374.6	
891.67	6374.6	
891.83	6374.6	
892	6374.6	
892.16	6374.6	
892.33	6374.6	
892.5	6374.6	
892.66	6374.6	
892.83	6374.6	
892.99	6374.6	
893.16	6374.6	
893.32	6374.6	
893.49	6374.6	
893.65	6374.6	
893.82	6374.6	
893.99	6374.6	
894.15	6374.6	
894.32	6374.6	
894.48	6374.6	
894.65	6374.6	
894.81	6374.6	
894.98	6374.6	
895.14	6374.6	
895.31	6374.6	
895.47	6374.6	
895.64	6374.6	
895.81	6374.6	
895.97	6374.6	
896.14	6374.6	
896.3	6374.6	
896.47	6374.6	
896.63	6374.6	
896.8	6374.6	
896.96	6374.6	
897.13	6374.6	
897.29	6374.6	
897.46	6374.6	
897.62	6374.6	
897.79	6374.6	
897.95	6374.6	
898.12	6374.6	
898.28	6374.6	
898.45	6374.6	
898.61	6374.6	
898.78	6374.6	
898.94	6374.6	
899.11	6374.6	
899.27	6374.6	
899.44	6374.6	
899.6	6374.6	
899.77	6374.6	
899.93	6374.6	
900.1	6374.6	
900.26	6374.6	
900.43	6374.6	
900.59	6374.6	
900.76	6374.6	
900.92	6374.6	
901.09	6374.6	
901.25	6374.6	
901.42	6374.6	
901.58	6374.6	
901.75	6374.6	
901.91	6374.6	
902.07	6374.6	
902.24	6374.6	
902.4	6374.6	
902.57	6374.6	
902.73	6374.6	
902.9	6374.6	
903.06	6374.6	
903.23	6374.6	
903.39	6374.6	
903.56	6374.6	
903.72	6374.6	
903.88	6374.6	
904.05	6374.6	
904.21	6374.6	
904.38	6374.6	
904.54	6374.6	
904.71	6374.6	
904.87	6374.6	
905.03	6374.6	
905.2	6374.6	
905.36	6374.6	
905.53	6374.6	
905.69	6374.6	
905.86	6374.6	
906.02	6374.6	
906.18	6374.6	
906.35	6374.6	
906.51	6374.6	
906.68	6374.6	
906.84	6374.6	
907.01	6374.6	
907.17	6374.6	
907.33	6374.6	
907.5	6374.6	
907.66	6374.6	
907.83	6374.6	
907.99	6374.6	
908.15	6374.6	
908.32	6374.6	
908.48	6374.6	
908.65	6374.6	
908.81	6374.6	
908.97	6374.6	
909.14	6374.6	
909.3	6374.6	
909.47	6374.6	
909.63	6374.6	
909.79	6374.6	
909.96	6374.6	
910.12	6374.6	
910.28	6374.6	
910.45	6374.6	
910.61	6374.6	
910.78	6374.6	
910.94	6374.6	
911.1	6374.6	
911.27	6374.6	
911.43	6374.6	
911.59	6374.6	
911.76	6374.6	
911.92	6374.6	
912.08	6374.6	
912.25	6374.6	
912.41	6374.6	
912.57	6374.6	
912.74	6374.6	
912.9	6374.6	
913.07	6374.6	
913.23	6374.6	
913.39	6374.6	
913.56	6374.6	
913.72	6374.6	
913.88	6374.6	
914.05	6374.6	
914.21	6374.6	
914.37	6374.6	
914.54	6374.6	
914.7	6374.6	
914.86	6374.6	
915.03	6374.6	
915.19	6374.6	
