Wavelength	Intensities	
nm	a.u.	
179.22	1930	
179.44	1930.9	
179.65	1929.2	
179.86	1932.6	
180.08	1968.1	
180.29	5180	
180.51	3592.1	
180.72	5752.1	
180.94	6804	
181.15	3362.8	
181.37	3275.4	
181.58	5651.7	
181.79	6033.3	
182.01	3506.1	
182.22	3817.4	
182.44	5943.9	
182.65	4929.5	
182.87	4709	
183.08	4161.5	
183.29	6292	
183.51	5092.6	
183.72	3810.6	
183.94	5585.5	
184.15	5537.7	
184.37	5561.6	
184.58	3308.2	
184.79	4620.2	
185.01	5141.8	
185.22	5960.3	
185.44	4885.1	
185.65	4048.2	
185.86	5414.1	
186.08	5040.1	
186.29	3276.1	
186.51	3493.2	
186.72	5171.1	
186.94	6115.2	
187.15	4061.1	
187.36	4209.9	
187.58	7987.1	
187.79	5647.6	
188.01	4409.3	
188.22	6881.2	
188.43	6819.1	
188.65	5918.6	
188.86	3528.7	
189.08	4239.3	
189.29	5345.2	
189.5	5337.7	
189.72	3943	
189.93	3922.5	
190.15	6097.5	
190.36	7411.6	
190.57	4270	
190.79	4119.1	
191	6240.8	
191.22	6181.5	
191.43	4283.7	
191.64	3489.7	
191.86	6460	
192.07	6221	
192.29	3680.9	
192.5	3894.6	
192.71	6221	
192.93	5268.1	
193.14	3878.9	
193.35	3948.5	
193.57	5390.9	
193.78	6134.3	
194	3098.6	
194.21	3809.2	
194.42	5066.7	
194.64	5610.8	
194.85	4176.5	
195.07	4916.5	
195.28	5582.1	
195.49	4803.9	
195.71	5192.3	
195.92	3577.8	
196.13	5784.1	
196.35	5890.6	
196.56	5583.4	
196.78	4170.3	
196.99	7312.6	
197.2	6837.5	
197.42	4802.5	
197.63	4240	
197.84	4962.2	
198.06	5758.9	
198.27	3925.3	
198.48	5224.4	
198.7	5307.7	
198.91	5461.9	
199.13	4270.7	
199.34	4283	
199.55	5962.3	
199.77	4832.5	
199.98	3704.1	
200.19	4265.9	
200.41	5416.2	
200.62	5124	
200.83	4419.5	
201.05	4761.5	
201.26	5442.1	
201.47	5171.1	
201.69	3660.4	
201.9	3581.9	
202.11	5524.1	
202.33	6610.2	
202.54	4004.5	
202.76	4510.3	
202.97	5668.8	
203.18	5640.8	
203.4	4392.9	
203.61	4289.8	
203.82	5667.4	
204.04	5211.4	
204.25	4328	
204.46	4245.4	
204.68	5560.2	
204.89	5915.2	
205.1	4099.4	
205.32	3549.1	
205.53	5968.5	
205.74	6138.4	
205.96	3027.6	
206.17	4345.8	
206.38	5982.1	
206.6	6090	
206.81	4865.3	
207.02	3917.1	
207.24	5840.8	
207.45	6238.1	
207.66	4076.1	
207.88	3436.5	
208.09	5740.5	
208.3	5556.1	
208.52	3619.4	
208.73	4031.8	
208.94	5584.8	
209.15	6301.6	
209.37	4042.7	
209.58	4291.2	
209.79	6212.9	
210.01	5339.1	
210.22	3179.1	
210.43	3344.3	
210.65	5611.4	
210.86	6035.4	
211.07	4056.3	
211.29	3697.3	
211.5	5913.9	
211.71	5477	
211.93	3635.8	
212.14	3751.9	
212.35	5446.9	
212.56	5718.6	
212.78	4287.1	
212.99	3519.1	
213.2	6643.6	
213.42	5307.7	
213.63	3847.5	
213.84	4080.2	
214.06	4887.1	
214.27	4975.2	
214.48	3952.6	
214.69	4313	
214.91	6270.2	
215.12	6383.5	
215.33	4367.6	
215.55	4842.1	
215.76	6911.9	
215.97	6003.3	
216.18	4156	
216.4	4042.7	
216.61	5218.2	
216.82	6142.5	
217.04	3639.9	
217.25	3842	
217.46	6227.9	
217.67	5994.4	
217.89	3309.5	
218.1	3454.2	
218.31	5595.7	
218.53	5747.3	
218.74	3854.3	
218.95	3724.6	
219.16	5492.7	
219.38	6492.1	
219.59	3841.3	
219.8	4526	
220.01	7273.7	
220.23	5585.5	
220.44	4998.4	
220.65	3629	
220.87	5653.1	
221.08	6223.8	
221.29	3399.6	
221.5	4629.1	
221.72	7680.6	
221.93	5268.1	
222.14	4317.1	
222.35	5042.8	
222.57	5668.8	
222.78	5892	
222.99	4048.8	
223.2	4381.3	
223.42	5928.9	
223.63	6034	
223.84	3033	
224.05	3083.6	
224.27	7148.1	
224.48	6586.3	
224.69	5035.3	
224.9	4284.4	
225.12	5729.5	
225.33	5470.8	
225.54	3420.1	
225.75	3751.2	
225.97	5093.3	
226.18	5406	
226.39	4066.6	
226.6	3790.1	
226.82	5290.6	
227.03	5117.9	
227.24	4242.7	
227.45	3502.7	
227.67	6001.9	
227.88	6592.4	
228.09	4795.7	
228.3	4773.8	
228.52	6012.8	
228.73	5528.8	
228.94	3947.1	
229.15	3474	
229.36	5450.3	
229.58	5359.5	
229.79	3973.1	
230	4644.1	
230.21	6689.3	
230.43	5690.6	
230.64	4240.7	
230.85	4362.9	
231.06	6054.5	
231.28	6031.3	
231.49	3456.3	
231.7	4102.1	
231.91	5924.1	
232.12	5564.3	
232.34	3530	
232.55	4115.7	
232.76	6217	
232.97	5830.6	
233.18	3746.4	
233.4	4151.9	
233.61	5785.5	
233.82	5328.1	
234.03	3870	
234.25	3827	
234.46	7773.4	
234.67	5640.1	
234.88	4356.7	
235.09	3732.8	
235.31	5888.6	
235.52	5457.2	
235.73	4177.2	
235.94	3545.7	
236.15	5216.2	
236.37	6787	
236.58	3679.5	
236.79	4104.1	
237	5881.1	
237.21	5015.5	
237.43	4334.9	
237.64	3422.2	
237.85	10335	
238.06	5049.6	
238.27	4402.5	
238.48	3533.4	
238.7	5909.8	
238.91	5431.2	
239.12	4057.7	
239.33	4081.6	
239.54	5144.5	
239.76	5452.4	
239.97	4030.4	
240.18	4024.9	
240.39	7077.8	
240.6	5864	
240.82	4132.1	
241.03	3424.2	
241.24	5576.6	
241.45	6447.7	
241.66	3640.6	
241.87	4413.4	
242.09	6376	
242.3	6760.3	
242.51	4399.7	
242.72	4102.1	
242.93	6025.1	
243.14	5438	
243.36	4665.3	
243.57	5123.3	
243.78	6465.4	
243.99	5932.3	
244.2	4121.9	
244.41	3679.5	
244.63	5097.4	
244.84	5898.8	
245.05	4326	
245.26	4085.7	
245.47	5928.2	
245.68	6145.3	
245.9	5463.3	
246.11	4253.6	
246.32	5427.8	
246.53	5797.1	
246.74	6660	
246.95	3389.4	
247.16	5023.7	
247.38	5598.5	
247.59	3347.1	
247.8	4076.8	
248.01	5190.9	
248.22	5526.1	
248.43	3676.8	
248.64	3966.9	
248.86	4885.8	
249.07	5268.1	
249.28	3549.1	
249.49	4187.4	
249.7	6146	
249.91	6290.7	
250.12	3429.7	
250.34	3444	
250.55	5664.7	
250.76	5572.5	
250.97	4178.5	
251.18	4252.9	
251.39	6376.7	
251.6	5801.9	
251.81	4340.3	
252.03	4265.2	
252.24	5250.3	
252.45	6161.7	
252.66	3540.9	
252.87	4505.5	
253.08	5603.2	
253.29	7401.4	
253.5	3521.8	
253.72	4951.3	
253.93	5392.3	
254.14	6705	
254.35	3795.6	
254.56	4033.8	
254.77	5856.5	
254.98	5184.8	
255.19	3795.6	
255.41	4958.1	
255.62	5693.4	
255.83	6255.2	
256.04	4377.2	
256.25	4267.3	
256.46	6701.6	
256.67	5182.7	
256.88	4193.6	
257.09	4650.3	
257.31	5228.5	
257.52	5268.7	
257.73	5304.9	
257.94	3846.1	
258.15	5395.7	
258.36	5560.9	
258.57	4915.8	
258.78	3099.9	
258.99	6065.4	
259.2	5395.7	
259.41	3920.5	
259.63	4026.3	
259.84	6423.1	
260.05	7032.7	
260.26	5105.6	
260.47	3744.4	
260.68	6169.8	
260.89	5446.2	
261.1	4701.5	
261.31	3642.7	
261.52	6212.9	
261.73	6650.4	
261.95	5059.2	
262.16	4422.2	
262.37	6359.6	
262.58	6444.3	
262.79	4973.8	
263	3950.5	
263.21	5547.3	
263.42	5045.5	
263.63	3981.9	
263.84	3953.9	
264.05	6122.7	
264.26	6593.8	
264.47	4863.9	
264.69	4197	
264.9	6272.2	
265.11	5799.2	
265.32	3723.2	
265.53	3902.1	
265.74	5724.1	
265.95	4917.9	
266.16	4154	
266.37	4626.4	
266.58	5712.5	
266.79	5410.1	
267	3865.2	
267.21	3551.9	
267.42	5111.7	
267.63	5563.6	
267.84	4056.3	
268.06	3464.5	
268.27	6052.4	
268.48	6386.2	
268.69	3917.8	
268.9	4700.1	
269.11	6385.6	
269.32	5031.9	
269.53	4096.6	
269.74	3745.1	
269.95	5921.4	
270.16	4868	
270.37	4003.8	
270.58	4720.6	
270.79	5399.1	
271	6120	
271.21	4363.5	
271.42	4083	
271.63	5718.6	
271.84	5236	
272.05	3259	
272.26	3633.8	
272.47	5558.9	
272.68	5775.3	
272.89	3834.5	
273.11	4478.2	
273.32	5388.2	
273.53	6581.5	
273.74	4416.1	
273.95	4292.5	
274.16	6255.2	
274.37	5662.6	
274.58	4470	
274.79	3510.2	
275	5675.6	
275.21	6331.6	
275.42	5364.3	
275.63	4563.6	
275.84	5792.3	
276.05	7315.3	
276.26	4288.4	
276.47	4063.2	
276.68	5421.7	
276.89	6653.2	
277.1	4589.5	
277.31	3515.7	
277.52	5881.8	
277.73	5992.4	
277.94	3508.9	
278.15	3905.5	
278.36	5828.5	
278.57	5216.2	
278.78	3858.4	
278.99	4496	
279.2	5139	
279.41	5088.5	
279.62	5124	
279.83	3622.9	
280.04	6865.5	
280.25	5042.8	
280.46	5154.7	
280.67	4112.3	
280.88	5177.3	
281.09	6220.4	
281.3	4289.1	
281.51	5449.6	
281.72	6120	
281.93	6161.7	
282.14	3784	
282.35	4100.7	
282.56	6090.7	
282.77	6083.8	
282.98	3933.5	
283.19	4897.4	
283.4	7508.5	
283.61	5520.6	
283.82	3460.4	
284.03	5066.7	
284.24	5666	
284.45	6274.3	
284.66	5027.1	
284.87	4815.5	
285.08	6179.4	
285.29	6354.2	
285.5	3411.9	
285.71	3994.9	
285.92	6246.3	
286.12	6962.4	
286.33	4992.3	
286.54	3908.2	
286.75	6083.8	
286.96	5474.9	
287.17	3557.3	
287.38	5003.9	
287.59	5170.4	
287.8	5110.4	
288.01	3984.7	
288.22	4654.4	
288.43	6167.8	
288.64	5129.5	
288.85	4704.9	
289.06	4453.6	
289.27	6053.1	
289.48	6567.8	
289.69	5096	
289.9	4584	
290.11	6279.1	
290.32	5294	
290.53	4799.1	
290.74	4390.2	
290.94	6113.2	
291.15	6130.9	
291.36	3860.4	
291.57	4585.4	
291.78	5249.6	
291.99	4983.4	
292.2	3611.9	
292.41	4414.1	
292.62	6184.9	
292.83	5929.6	
293.04	5474.9	
293.25	3669.3	
293.46	5339.7	
293.67	6238.1	
293.88	3804.4	
294.09	3672.7	
294.29	5055.1	
294.5	5756.2	
294.71	4136.2	
294.92	3920.5	
295.13	5403.9	
295.34	6729.6	
295.55	3405.8	
295.76	3478.1	
295.97	6042.2	
296.18	6890.7	
296.39	3620.8	
296.6	3818.1	
296.81	5689.3	
297.01	6040.8	
297.22	3907.5	
297.43	3813.3	
297.64	5158.2	
297.85	5171.1	
298.06	3132.7	
298.27	3415.3	
298.48	5606.7	
298.69	5265.3	
298.9	4079.6	
299.11	3721.8	
299.31	5094	
299.52	5070.1	
299.73	4481.6	
299.94	4345.8	
300.15	5569.1	
300.36	5164.3	
300.57	4367.6	
300.78	4329.4	
300.99	5369.8	
301.2	5835.3	
301.4	3790.1	
301.61	4151.9	
301.82	5864	
302.03	6085.9	
302.24	4680.3	
302.45	3566.2	
302.66	5870.2	
302.87	6459.3	
303.08	3781.9	
303.29	5244.2	
303.49	5265.3	
303.7	5605.3	
303.91	3375.7	
304.12	5018.2	
304.33	5028.4	
304.54	5683.1	
304.75	3842.7	
304.96	3611.9	
305.16	5949.3	
305.37	6761	
305.58	3363.4	
305.79	3477.5	
306	5965.7	
306.21	4937.7	
306.42	3859.7	
306.63	5887.2	
306.83	5428.5	
307.04	6259.3	
307.25	4237.2	
307.46	4200.4	
307.67	4702.8	
307.88	6081.1	
308.09	3694.5	
308.29	3889.8	
308.5	5628.5	
308.71	6294.1	
308.92	4070.7	
309.13	3728	
309.34	5512.4	
309.55	5530.9	
309.75	4773.8	
309.96	4356.7	
310.17	6024.4	
310.38	5299.5	
310.59	4651.6	
310.8	3525.2	
311.01	5365.7	
311.21	5397.8	
311.42	3575.8	
311.63	3741.6	
311.84	5330.2	
312.05	5725.4	
312.26	4230.4	
312.46	4641.4	
312.67	5339.1	
312.88	5109.7	
313.09	3706.8	
313.3	3603.7	
313.51	6453.1	
313.71	6832	
313.92	3660.4	
314.13	3891.1	
314.34	5758.2	
314.55	5437.4	
314.76	4827.7	
314.96	4136.9	
315.17	5610.1	
315.38	6130.9	
315.59	3689.8	
315.8	3506.1	
316.01	6554.2	
316.21	6539.8	
316.42	3526.6	
316.63	4046.1	
316.84	5436	
317.05	6354.8	
317.26	4326.7	
317.46	3879.5	
317.67	5511.8	
317.88	5976.7	
318.09	4661.2	
318.3	3444.7	
318.5	5272.2	
318.71	5969.1	
318.92	6056.5	
319.13	4373.8	
319.34	6162.3	
319.54	6308.4	
319.75	3421.5	
319.96	3265.8	
320.17	6021.7	
320.38	6203.3	
320.58	3364.8	
320.79	4058.4	
321	6184.2	
321.21	6425.2	
321.42	4097.3	
321.62	3314.3	
321.83	5123.3	
322.04	5556.1	
322.25	3899.3	
322.46	3717.1	
322.66	5710.4	
322.87	5856.5	
323.08	4565.6	
323.29	3643.3	
323.5	6765.8	
323.7	5147.2	
323.91	5114.5	
324.12	4579.3	
324.33	5644.9	
324.53	5895.4	
324.74	4405.2	
324.95	4640	
325.16	4967	
325.37	5389.6	
325.57	3621.5	
325.78	3779.9	
325.99	5634.6	
326.2	5110.4	
326.4	5279.7	
326.61	3388	
326.82	5507.7	
327.03	5690.6	
327.24	5288.5	
327.44	5048.9	
327.65	5893.4	
327.86	4684.4	
328.07	4382.7	
328.27	3497.2	
328.48	6312.5	
328.69	5148.6	
328.9	5346.6	
329.1	3958	
329.31	5466.7	
329.52	6539.2	
329.73	3665.2	
329.93	4151.9	
330.14	5534.3	
330.35	5865.4	
330.56	6110.5	
330.76	4583.4	
330.97	5427.1	
331.18	5782.8	
331.39	4154	
331.59	3323.2	
331.8	6262.7	
332.01	6380.8	
332.22	3740.3	
332.42	4422.2	
332.63	5743.2	
332.84	5281.7	
333.05	4111.6	
333.25	3764.2	
333.46	5414.1	
333.67	5613.5	
333.88	3828.3	
334.08	4348.5	
334.29	7634.1	
334.5	6360.3	
334.7	3594.9	
334.91	5336.3	
335.12	5141.8	
335.33	6066.8	
335.53	4090.5	
335.74	6152.8	
335.95	5351.3	
336.16	5203.9	
336.36	4207.9	
336.57	4780	
336.78	5089.9	
336.98	6238.8	
337.19	5122.7	
337.4	4058.4	
337.61	6797.9	
337.81	5145.9	
338.02	3710.2	
338.23	4922	
338.43	6408.1	
338.64	5236.7	
338.85	3710.9	
339.05	4896	
339.26	6514.6	
339.47	5038	
339.68	3693.2	
339.88	5520	
340.09	5841.5	
340.3	6092.7	
340.5	4424.3	
340.71	3281.5	
340.92	5053	
341.13	6325.5	
341.33	3629.7	
341.54	4345.1	
341.75	5791	
341.95	5447.6	
342.16	4202.4	
342.37	4515.8	
342.57	5126.7	
342.78	5530.2	
342.99	4620.9	
343.19	3346.4	
343.4	5978	
343.61	5877.7	
343.81	3998.3	
344.02	3649.5	
344.23	6053.1	
344.43	6471.6	
344.64	4631.8	
344.85	4536.3	
345.06	5872.9	
345.26	6303.6	
345.47	4314.4	
345.68	5087.2	
345.88	4911	
346.09	6128.9	
346.3	4367	
346.5	3244.7	
346.71	5606	
346.92	5293.3	
347.12	3338.9	
347.33	4263.9	
347.54	6275.7	
347.74	6623.8	
347.95	4199	
348.16	3152.5	
348.36	5403.2	
348.57	5202.5	
348.78	4198.3	
348.98	4575.2	
349.19	5511.1	
349.39	5012.1	
349.6	3360.7	
349.81	3775.8	
350.01	5902.9	
350.22	5242.8	
350.43	4061.8	
350.63	4947.9	
350.84	5582.1	
351.05	5378	
351.25	3708.2	
351.46	3336.8	
351.67	6265.4	
351.87	5221	
352.08	4013.3	
352.29	4589.5	
352.49	6090.7	
352.7	5763.7	
352.9	3546.4	
353.11	4552	
353.32	6881.2	
353.52	5433.3	
353.73	3545.7	
353.94	4564.2	
354.14	5894.7	
354.35	5765	
354.55	3681.6	
354.76	4153.3	
354.97	5864.7	
355.17	5653.1	
355.38	3461.7	
355.59	4878.3	
355.79	5245.5	
356	5803.9	
356.2	4042.7	
356.41	3515.7	
356.62	4927.4	
356.82	5492	
357.03	4375.1	
357.24	3868.6	
357.44	5223	
357.65	5371.8	
357.85	5326.1	
358.06	4149.9	
358.27	4934.9	
358.47	5254.4	
358.68	3392.1	
358.88	4345.8	
359.09	5835.3	
359.3	6242.9	
359.5	5094	
359.71	4490.5	
359.91	6797.2	
360.12	6062.7	
360.33	4306.9	
360.53	4789.5	
360.74	5282.4	
360.94	5296	
361.15	4602.5	
361.36	3757.3	
361.56	6096.1	
361.77	5507.7	
361.97	5107.6	
362.18	3970.3	
362.38	6126.2	
362.59	5141.1	
362.8	3633.8	
363	3425.6	
363.21	4947.9	
363.41	5608	
363.62	4178.5	
363.83	5303.6	
364.03	5672.2	
364.24	6763.1	
364.44	5385.5	
364.65	5416.2	
364.85	5461.9	
365.06	5318.6	
365.27	3826.3	
365.47	3829	
365.68	6541.9	
365.88	5418.9	
366.09	4267.3	
366.29	3919.1	
366.5	5711.8	
366.71	6167.1	
366.91	5289.2	
367.12	4510.3	
367.32	6806.1	
367.53	6012.2	
367.73	4317.1	
367.94	5395.7	
368.14	5901.6	
368.35	6930.3	
368.56	4418.2	
368.76	3630.4	
368.97	6032	
369.17	7857.4	
369.38	3863.2	
369.58	4136.9	
369.79	5085.8	
369.99	6425.2	
370.2	5206.6	
370.4	4235.2	
370.61	5785.5	
370.82	6981.5	
371.02	4075.5	
371.23	3407.1	
371.43	4976.6	
371.64	6378.7	
371.84	4131.4	
372.05	5461.2	
372.25	7819.8	
372.46	6165.8	
372.66	4130.1	
372.87	4072	
373.07	6183.5	
373.28	7828.7	
373.48	5200.5	
373.69	4918.5	
373.9	5580.7	
374.1	5631.2	
374.31	5152.7	
374.51	4669.4	
374.72	6477.7	
374.92	5230.5	
375.13	5348.6	
375.33	4518.5	
375.54	6075.6	
375.74	5408.7	
375.95	4545.1	
376.15	5836.7	
376.36	5972.6	
376.56	5814.9	
376.77	4660.5	
376.97	5046.9	
377.18	7127.6	
377.38	6091.3	
377.59	5441.5	
377.79	4072.7	
378	5932.3	
378.2	6459.3	
378.41	4112.3	
378.61	4080.9	
378.82	6323.4	
379.02	5433.3	
379.23	4281.6	
379.43	5472.2	
379.64	6414.9	
379.84	6115.2	
380.05	4073.4	
380.25	4009.2	
380.46	6138.4	
380.66	5717.2	
380.87	5464.7	
381.07	5943.9	
381.28	6853.2	
381.48	6178	
381.69	4143.7	
381.89	4207.2	
382.1	5109	
382.3	6399.9	
382.51	5361.6	
382.71	6263.4	
382.91	6210.1	
383.12	6754.9	
383.32	4516.5	
383.53	4793.6	
383.73	6026.5	
383.94	5777.3	
384.14	4664.6	
384.35	3738.9	
384.55	5724.1	
384.76	6159.6	
384.96	4572.4	
385.17	4847.5	
385.37	6230.6	
385.58	5412.8	
385.78	4910.3	
385.98	3686.3	
386.19	5659.2	
386.39	6062.7	
386.6	4248.9	
386.8	4558.8	
387.01	6178	
387.21	6265.4	
387.42	4960.9	
387.62	5594.4	
387.83	5481	
388.03	6216.3	
388.23	4584.7	
388.44	5505.6	
388.64	5142.4	
388.85	5255.1	
389.05	4960.2	
389.26	5633.3	
389.46	7249.1	
389.67	6643.6	
389.87	4957.4	
390.07	5022.3	
390.28	5802.6	
390.48	5369.8	
390.69	4175.8	
390.89	4456.4	
391.1	5549.3	
391.3	6558.3	
391.5	5752.7	
391.71	6423.1	
391.91	6306.4	
392.12	7436.2	
392.32	5804.6	
392.53	4962.2	
392.73	5618.9	
392.93	5840.8	
393.14	4653	
393.34	5502.2	
393.55	6244.3	
393.75	5864.7	
393.95	4698.7	
394.16	4623.6	
394.36	5516.5	
394.57	6306.4	
394.77	4101.4	
394.98	4571.1	
395.18	5512.4	
395.38	5886.5	
395.59	5472.2	
395.79	4379.9	
396	5663.3	
396.2	6173.3	
396.4	5246.2	
396.61	5162.2	
396.81	6416.3	
397.02	5616.9	
397.22	5455.8	
397.42	5592.3	
397.63	6456.6	
397.83	5587.5	
398.04	4252.9	
398.24	4903.5	
398.44	6118	
398.65	5124	
398.85	4154	
399.05	4340.3	
399.26	5463.3	
399.46	7339.9	
399.67	4725.3	
399.87	4393.6	
400.07	5894.1	
400.28	6306.4	
400.48	4536.9	
400.69	5630.5	
400.89	6581.5	
401.09	6940.6	
401.3	4360.8	
401.5	5571.2	
401.7	7256.6	
401.91	7543.4	
402.11	4739	
402.32	5031.2	
402.52	6507.1	
402.72	6482.5	
402.93	5251	
403.13	3958	
403.33	7352.2	
403.54	5980.8	
403.74	4900.1	
403.94	5822.4	
404.15	6097.5	
404.35	7360.4	
404.56	4702.1	
404.76	6567.8	
404.96	6572.6	
405.17	6275	
405.37	6051.1	
405.57	5221.6	
405.78	6594.5	
405.98	5978.7	
406.18	4683	
406.39	5739.1	
406.59	6552.1	
406.79	6196.5	
407	4499.4	
407.2	4740.4	
407.4	6593.8	
407.61	6881.2	
407.81	4611.3	
408.01	7160.4	
408.22	5581.4	
408.42	7828	
408.62	5820.3	
408.83	5218.9	
409.03	6302.3	
409.23	6040.1	
409.44	5337.7	
409.64	5628.5	
409.84	7197.9	
410.05	7109.2	
410.25	5436.7	
410.45	5225.1	
410.66	6557.6	
410.86	9181	
411.06	5681.7	
411.27	5511.8	
411.47	9019.3	
411.67	6741.9	
411.88	5780.7	
412.08	6081.8	
412.28	7451.2	
412.49	7976.8	
412.69	5507	
412.89	5581.4	
413.09	7726.3	
413.3	7630.7	
413.5	5657.2	
413.7	5195	
413.91	6856.6	
414.11	7724.9	
414.31	5552.7	
414.52	5905	
414.72	7308.5	
414.92	7250.5	
415.12	5510.4	
415.33	6047	
415.53	7634.8	
415.73	7931.8	
415.94	6421.1	
416.14	5808	
416.34	6632.7	
416.55	6421.7	
416.75	7089.4	
416.95	6404.7	
417.15	7765.2	
417.36	8530.5	
417.56	7309.2	
417.76	6386.2	
417.97	8093.6	
418.17	7785	
418.37	5821	
418.57	5867.4	
418.78	7503.8	
418.98	7188.4	
419.18	6831.3	
419.38	6784.2	
419.59	7236.2	
419.79	6768.5	
419.99	5853.1	
420.2	6192.4	
420.4	7760.4	
420.6	7916.8	
420.8	5672.2	
421.01	5516.5	
421.21	7507.2	
421.41	7747.5	
421.61	6094.8	
421.82	5739.8	
422.02	6956.3	
422.22	8028.7	
422.42	6578.8	
422.63	6268.1	
422.83	7180.9	
423.03	8458.8	
423.23	6219	
423.44	5096	
423.64	7222.5	
423.84	6988.4	
424.04	5612.8	
424.25	5294	
424.45	8224	
424.65	8167.3	
424.85	5128.8	
425.06	5717.2	
425.26	8133.2	
425.46	7041.6	
425.66	6251.8	
425.87	5956.2	
426.07	7941.3	
426.27	7790.5	
426.47	6090	
426.67	5362.3	
426.88	8306.6	
427.08	7705.1	
427.28	6322.8	
427.48	5282.4	
427.69	6452.5	
427.89	7230.7	
428.09	6224.5	
428.29	5378.6	
428.5	7985	
428.7	7347.4	
428.9	5240.8	
429.1	5909.1	
429.3	7370.6	
429.51	7884.7	
429.71	5618.3	
429.91	6472.9	
430.11	7666.2	
430.31	8000.7	
430.52	5907	
430.72	6219.7	
430.92	8323.6	
431.12	7802.8	
431.32	5558.9	
431.53	6004	
431.73	6621.1	
431.93	8395.3	
432.13	5494.7	
432.33	5323.4	
432.54	7045	
432.74	7544.7	
432.94	5324	
433.14	6395.8	
433.34	7608.2	
433.55	7105.1	
433.75	6419.7	
433.95	8271.7	
434.15	7431.4	
434.35	7096.9	
434.56	5474.2	
434.76	4988.9	
434.96	7401.4	
435.16	7653.9	
435.36	5329.5	
435.56	6605.4	
435.77	7039.6	
435.97	7266.2	
436.17	7400.7	
436.37	6495.5	
436.57	6940.6	
436.78	6899.6	
436.98	8456.7	
437.18	7131	
437.38	7795.9	
437.58	7199.3	
437.78	7319.4	
437.99	5778.7	
438.19	7767.3	
438.39	8662.9	
438.59	5812.8	
438.79	5276.3	
438.99	8503.8	
439.2	7234.1	
439.4	5356.8	
439.6	5324.7	
439.8	7570.7	
440	8731.2	
440.2	6443.6	
440.4	6623.1	
440.61	8008.2	
440.81	8661.5	
441.01	5634	
441.21	6649.1	
441.41	8497.7	
441.61	7985	
441.81	6830.7	
442.02	8049.2	
442.22	9080	
442.42	8153.6	
442.62	5676.3	
442.82	5715.2	
443.02	8428.1	
443.22	7477.8	
443.43	6192.4	
443.63	5621	
443.83	7298.3	
444.03	7302.4	
444.23	7056.6	
444.43	6595.8	
444.63	7620.5	
444.83	9008.3	
445.04	5823.1	
445.24	7154.9	
445.44	8000	
445.64	8167.3	
445.84	6684.6	
446.04	6612.2	
446.24	7279.8	
446.44	8458.1	
446.65	5799.8	
446.85	6236.1	
447.05	7534.5	
447.25	8418.5	
447.45	6264.1	
447.65	5687.9	
447.85	7713.3	
448.05	7305.8	
448.25	6791.7	
448.46	6543.3	
448.66	7729	
448.86	7365.9	
449.06	5373.9	
449.26	6849.8	
449.46	8093.6	
449.66	7001.3	
449.86	6171.2	
450.06	6255.2	
450.26	7292.8	
450.47	7903.1	
450.67	6477.7	
450.87	6885.3	
451.07	7929.7	
451.27	7792.5	
451.47	5732.9	
451.67	6352.8	
451.87	7382.2	
452.07	8567.3	
452.27	6049.7	
452.47	6001.9	
452.67	7698.3	
452.88	8412.4	
453.08	5260.5	
453.28	7516	
453.48	8974.2	
453.68	7694.9	
453.88	5818.3	
454.08	6139.1	
454.28	8066.3	
454.48	7681.9	
454.68	6732.4	
454.88	7271	
455.08	8261.5	
455.28	7921.5	
455.48	5784.8	
455.68	6410.8	
455.89	8784.4	
456.09	8365.3	
456.29	6172.6	
456.49	6216.3	
456.69	8654.7	
456.89	7815.7	
457.09	6758.3	
457.29	7139.9	
457.49	8239.7	
457.69	8332.5	
457.89	6602	
458.09	5956.9	
458.29	7880.6	
458.49	8728.4	
458.69	7063.4	
458.89	6397.9	
459.09	8919.6	
459.29	9128.5	
459.49	6507.8	
459.69	7438.9	
459.9	8510.7	
460.1	7972.1	
460.3	6440.2	
460.5	6198.5	
460.7	8448.6	
460.9	8197.3	
461.1	5829.2	
461.3	7279.8	
461.5	9194.7	
461.7	8717.5	
461.9	6401.3	
462.1	6784.2	
462.3	8251.9	
462.5	8918.9	
462.7	6393.8	
462.9	6563.1	
463.1	9980.4	
463.3	9589.3	
463.5	6682.5	
463.7	7701	
463.9	8422.6	
464.1	8890.2	
464.3	6849.1	
464.5	7103.7	
464.7	9069.8	
464.9	8854.7	
465.1	8640.4	
465.3	7497.6	
465.5	9463	
465.7	9538.8	
465.9	7753.6	
466.1	7572	
466.3	9393.4	
466.5	9060.9	
466.7	8523.6	
466.9	7299	
467.1	8936.7	
467.3	10145	
467.5	8511.4	
467.7	7208.2	
467.9	10304	
468.1	11258	
468.3	8120.9	
468.5	8527.1	
468.7	9016.5	
468.9	8991.3	
469.1	7560.4	
469.3	8421.9	
469.5	11073	
469.7	8471.8	
469.9	8058.8	
470.1	7311.2	
470.3	8980.3	
470.5	8942.8	
470.7	8673.1	
470.9	7367.9	
471.1	8731.9	
471.3	9278	
471.5	7206.1	
471.69	9237.7	
471.89	8657.4	
472.09	8145.5	
472.29	8078.6	
472.49	8461.5	
472.69	8372.8	
472.89	9334	
473.09	7037.5	
473.29	7194.5	
473.49	8474.5	
473.69	8742.1	
473.89	8203.5	
474.09	7334.5	
474.29	9942.2	
474.49	9695.1	
474.69	8319.5	
474.89	7543.4	
475.09	8781	
475.29	8596.7	
475.49	6828.6	
475.69	7167.2	
475.88	10527	
476.08	8979.7	
476.28	6771.9	
476.48	7285.3	
476.68	9500.5	
476.88	9366.7	
477.08	7157.7	
477.28	7574.8	
477.48	8713.4	
477.68	9426.8	
477.88	6883.9	
478.08	7283.3	
478.28	9755.2	
478.48	8953.7	
478.67	7276.4	
478.87	6730.3	
479.07	9604.3	
479.27	8954.4	
479.47	7583.6	
479.67	7588.4	
479.87	9345.6	
480.07	10009	
480.27	6703	
480.47	8495.7	
480.67	9079.3	
480.87	9753.1	
481.06	7046.4	
481.26	7906.5	
481.46	8908	
481.66	8868.4	
481.86	7510.6	
482.06	8747.6	
482.26	8596	
482.46	9700.5	
482.66	7389.8	
482.86	7027.9	
483.05	8936.7	
483.25	8331.8	
483.45	10098	
483.65	7434.8	
483.85	8597.4	
484.05	8970.1	
484.25	8020.5	
484.45	8520.9	
484.65	9841.2	
484.84	9890.3	
485.04	7402.7	
485.24	7333.8	
485.44	10215	
485.64	8303.1	
485.84	6658.6	
486.04	8217.1	
486.24	8724.3	
486.44	9193.3	
486.63	6617.7	
486.83	7453.2	
487.03	8655.4	
487.23	8914.8	
487.43	6786.3	
487.63	9473.2	
487.83	8961.2	
488.02	10133	
488.22	7802.8	
488.42	8624	
488.62	9976.3	
488.82	8745.5	
489.02	7450.5	
489.22	7599.3	
489.41	9791.3	
489.61	9344.2	
489.81	7208.8	
490.01	7176.8	
490.21	9643.9	
490.41	10417	
490.61	7188.4	
490.8	7365.2	
491	9194	
491.2	8392.6	
491.4	7991.9	
491.6	7004.1	
491.8	9072.5	
491.99	9368.1	
492.19	6858.6	
492.39	7256.6	
492.59	9694.4	
492.79	9721	
492.99	8131.1	
493.18	7242.3	
493.38	9872.6	
493.58	10714	
493.78	7987.1	
493.98	7577.5	
494.18	9493.7	
494.37	9060.2	
494.57	8266.3	
494.77	8173.4	
494.97	9828.2	
495.17	10154	
495.37	7651.9	
495.56	8032.8	
495.76	10299	
495.96	9943.6	
496.16	9051.3	
496.36	7983	
496.55	10130	
496.75	9639.1	
496.95	8314.1	
497.15	8118.1	
497.35	10137	
497.54	10081	
497.74	7933.8	
497.94	9736	
498.14	10874	
498.34	10671	
498.53	7641	
498.73	8449.2	
498.93	9456.2	
499.13	10104	
499.33	8319.5	
499.52	8964	
499.72	9962.7	
499.92	10451	
500.12	7821.2	
500.32	8238.3	
500.51	10275	
500.71	10092	
500.91	9025.4	
501.11	8684.1	
501.31	10238	
501.5	10708	
501.7	9295	
501.9	8244.4	
502.1	10026	
502.29	10236	
502.49	8723	
502.69	9273.9	
502.89	10249	
503.09	10230	
503.28	7619.8	
503.48	7845.8	
503.68	9348.3	
503.88	9336.7	
504.07	8810.4	
504.27	8256	
504.47	9726.5	
504.67	9882.8	
504.86	8665	
505.06	8373.5	
505.26	9431.6	
505.46	11314	
505.65	8192.6	
505.85	8550.3	
506.05	9269.1	
506.25	9771.5	
506.44	7508.5	
506.64	8520.9	
506.84	9074.5	
507.04	10099	
507.23	7676.5	
507.43	8294.3	
507.63	11271	
507.83	9480	
508.02	8253.3	
508.22	7815	
508.42	11460	
508.62	9076.6	
508.81	7988.4	
509.01	8680	
509.21	8928.5	
509.4	9172.9	
509.6	8268.3	
509.8	7576.1	
510	9103.2	
510.19	10701	
510.39	7520.1	
510.59	7741.3	
510.79	8999.5	
510.98	10598	
511.18	7707.9	
511.38	7906.5	
511.57	9936.7	
511.77	9836.4	
511.97	8633.6	
512.17	7430.7	
512.36	9845.3	
512.56	9944.3	
512.76	7563.8	
512.95	7282.6	
513.15	10056	
513.35	8555.7	
513.55	8497.7	
513.74	7531.1	
513.94	10030	
514.14	9234.3	
514.33	8658.8	
514.53	8359.8	
514.73	9317.6	
514.92	9503.9	
515.12	7865.6	
515.32	7708.6	
515.51	9656.2	
515.71	10277	
515.91	9581.8	
516.11	7801.4	
516.3	11580	
516.5	9224.1	
516.7	8414.4	
516.89	8994	
517.09	9427.5	
517.29	9150.3	
517.48	8772.1	
517.68	8069.7	
517.88	9206.3	
518.07	9766.8	
518.27	8675.2	
518.47	7556.3	
518.66	10382	
518.86	8956.4	
519.06	7414.3	
519.25	7920.9	
519.45	9381.1	
519.65	10939	
519.84	8647.2	
520.04	9370.8	
520.24	11312	
520.43	9948.3	
520.63	8355.7	
520.83	8007.6	
521.02	9164	
521.22	9811.8	
521.42	8664.3	
521.61	9220.6	
521.81	9361.9	
522.01	9740.8	
522.2	8458.8	
522.4	8233.5	
522.6	10253	
522.79	8894.3	
522.99	8349.6	
523.18	7601.4	
523.38	9852.1	
523.58	10002	
523.77	9656.9	
523.97	7668.3	
524.17	11886	
524.36	11097	
524.56	9135.3	
524.76	8731.9	
524.95	10015	
525.15	9566.1	
525.34	8484.1	
525.54	8504.5	
525.74	10284	
525.93	9198.1	
526.13	9822.7	
526.33	8430.1	
526.52	10734	
526.72	10202	
526.91	9833	
527.11	8949.6	
527.31	10624	
527.5	11215	
527.7	8921	
527.89	7881.3	
528.09	9491	
528.29	10226	
528.48	9311.4	
528.68	8882.7	
528.87	10465	
529.07	10596	
529.27	8801.5	
529.46	8187.1	
529.66	10075	
529.85	10630	
530.05	8072.4	
530.25	9004.2	
530.44	11738	
530.64	10066	
530.83	8562.6	
531.03	8896.4	
531.23	10509	
531.42	10430	
531.62	9740.1	
531.81	8784.4	
532.01	10709	
532.21	11322	
532.4	8538.7	
532.6	8942.8	
532.79	11756	
532.99	10800	
533.18	8928.5	
533.38	10122	
533.58	10367	
533.77	11133	
533.97	8783.1	
534.16	9809.8	
534.36	11373	
534.55	10336	
534.75	9943.6	
534.95	8981.7	
535.14	11166	
535.34	10349	
535.53	8657.4	
535.73	10776	
535.92	11836	
536.12	10640	
536.31	8768.7	
536.51	10105	
536.71	10932	
536.9	10423	
537.1	8920.3	
537.29	9129.2	
537.49	11350	
537.68	10271	
537.88	9472.5	
538.07	8643.1	
538.27	10551	
538.46	11782	
538.66	8559.8	
538.86	8946.2	
539.05	10625	
539.25	11023	
539.44	9248.6	
539.64	8969.4	
539.83	10456	
540.03	11439	
540.22	8768.7	
540.42	8863.6	
540.61	10738	
540.81	10834	
541	9435.7	
541.2	10067	
541.39	10155	
541.59	10584	
541.78	9702.6	
541.98	8705.9	
542.18	9805.7	
542.37	9792	
542.57	8974.9	
542.76	9585.2	
542.96	9796.1	
543.15	10708	
543.35	9008.3	
543.54	8310	
543.74	10970	
543.93	10290	
544.13	9044.5	
544.32	10129	
544.52	10737	
544.71	9831.6	
544.91	8096.3	
545.1	9342.8	
545.3	9796.8	
545.49	10635	
545.69	7886.7	
545.88	8544.8	
546.08	11632	
546.27	11241	
546.47	9225.4	
546.66	8400.1	
546.86	10796	
547.05	11533	
547.24	8627.4	
547.44	8428.8	
547.63	9697.1	
547.83	10910	
548.02	8929.8	
548.22	9055.4	
548.41	9512.1	
548.61	10919	
548.8	8321.6	
549	8356.4	
549.19	10131	
549.39	10605	
549.58	7980.9	
549.78	8649.9	
549.97	10630	
550.17	10036	
550.36	9583.1	
550.55	10641	
550.75	10091	
550.94	11066	
551.14	8234.2	
551.33	8696.4	
551.53	9415.9	
551.72	10395	
551.92	8751	
552.11	8487.5	
552.31	10463	
552.5	10649	
552.69	10342	
552.89	8079.9	
553.08	10447	
553.28	10107	
553.47	8506.6	
553.67	9818	
553.86	11273	
554.06	9336	
554.25	7628	
554.44	8290.9	
554.64	11993	
554.83	11366	
555.03	8197.3	
555.22	8725.7	
555.42	10710	
555.61	10406	
555.8	8438.3	
556	8757.1	
556.19	9447.3	
556.39	10785	
556.58	8548.9	
556.78	8455.4	
556.97	10211	
557.16	9933.3	
557.36	9912.9	
557.55	8066.9	
557.75	9143.5	
557.94	11129	
558.13	8255.4	
558.33	7875.8	
558.52	10827	
558.72	9651.4	
558.91	8105.2	
559.1	8305.2	
559.3	9266.4	
559.49	8887.5	
559.69	7552.9	
559.88	8801.5	
560.07	10254	
560.27	10684	
560.46	8859.5	
560.66	9051.3	
560.85	9890.3	
561.04	9078	
561.24	7996	
561.43	8241.7	
561.63	9313.5	
561.82	9632.3	
562.01	9601.6	
562.21	8544.8	
562.4	10126	
562.59	11167	
562.79	8327.7	
562.98	7963.2	
563.18	9998.9	
563.37	11654	
563.56	8902.5	
563.76	7913.4	
563.95	9446.6	
564.14	9357.9	
564.34	8284	
564.53	8144.1	
564.73	9949	
564.92	10342	
565.11	8552.3	
565.31	7852.6	
565.5	10567	
565.69	9461.6	
565.89	8032.1	
566.08	8260.8	
566.27	10495	
566.47	10978	
566.66	8946.2	
566.85	7513.3	
567.05	9891	
567.24	9230.9	
567.44	7882.6	
567.63	9415.2	
567.82	10208	
568.02	9893.7	
568.21	7889.5	
568.4	8378.2	
568.6	9721	
568.79	9780.4	
568.98	7689.4	
569.18	7853.3	
569.37	9712.8	
569.56	11819	
569.76	8176.2	
569.95	9229.5	
570.14	9928.6	
570.34	9841.2	
570.53	7576.1	
570.72	7509.9	
570.91	10411	
571.11	9427.5	
571.3	8067.6	
571.49	9107.3	
571.69	9424.8	
571.88	8905.9	
572.07	8594	
572.27	8533.9	
572.46	9059.5	
572.65	10140	
572.85	7746.1	
573.04	8234.2	
573.23	10382	
573.43	9590.6	
573.62	7500.3	
573.81	8210.3	
574	9568.1	
574.2	9321	
574.39	7835.5	
574.58	8082	
574.78	10552	
574.97	9630.2	
575.16	8388.5	
575.36	8594.6	
575.55	9937.4	
575.74	10200	
575.93	7380.9	
576.13	8576.9	
576.32	9445.9	
576.51	9951.1	
576.71	7885.4	
576.9	9409.1	
577.09	10368	
577.28	9903.3	
577.48	8561.2	
577.67	7380.9	
577.86	9448.6	
578.05	9869.8	
578.25	8054	
578.44	8183	
578.63	9643.2	
578.83	10871	
579.02	7442.3	
579.21	9106.6	
579.4	9751.1	
579.6	9443.9	
579.79	8265.6	
579.98	10616	
580.17	10213	
580.37	10315	
580.56	7723.6	
580.75	8465.6	
580.94	10864	
581.14	10618	
581.33	9047.9	
581.52	7957	
581.71	10154	
581.91	10841	
582.1	7483.3	
582.29	8277.2	
582.48	9698.5	
582.68	9706	
582.87	8810.4	
583.06	8413.1	
583.25	10090	
583.45	9786.6	
583.64	9075.9	
583.83	9858.2	
584.02	9534.7	
584.21	10082	
584.41	9100.5	
584.6	8316.8	
584.79	9842.5	
584.98	10737	
585.18	7699	
585.37	7728.4	
585.56	9291	
585.75	10272	
585.94	8042.4	
586.14	8737.3	
586.33	10819	
586.52	9807	
586.71	8568	
586.91	8170.7	
587.1	9086.2	
587.29	10251	
587.48	8021.9	
587.67	7845.8	
587.87	9966.1	
588.06	9989.3	
588.25	9227.5	
588.44	8380.3	
588.63	9426.8	
588.83	9957.9	
589.02	7675.8	
589.21	7522.2	
589.4	9019.3	
589.59	8702.5	
589.78	6564.4	
589.98	6870.3	
590.17	8282	
590.36	8890.9	
590.55	6124.1	
590.74	6977.4	
590.94	10298	
591.13	8736	
591.32	6752.2	
591.51	6249	
591.7	9153.7	
591.89	8563.9	
592.09	6531.7	
592.28	6947.4	
592.47	7855.3	
592.66	9869.8	
592.85	6493.4	
593.05	6664.1	
593.24	8499.1	
593.43	9300.5	
593.62	6702.3	
593.81	7343.3	
594	8529.8	
594.19	8883.4	
594.39	6750.8	
594.58	6706.4	
594.77	8947.6	
594.96	9710.8	
595.15	6634.7	
595.34	7374.1	
595.54	9028.8	
595.73	7989.8	
595.92	5978	
596.11	7239.6	
596.3	9565.4	
596.49	8053.3	
596.68	6948.1	
596.88	7445.7	
597.07	9340.8	
597.26	8011.7	
597.45	6574	
597.64	7804.8	
597.83	8348.9	
598.02	9074.5	
598.22	6675	
598.41	7390.4	
598.6	8731.9	
598.79	8163.9	
598.98	6747.4	
599.17	7768.6	
599.36	8957.1	
599.55	10294	
599.74	9075.9	
599.94	8746.9	
600.13	9544.9	
600.32	8383.7	
600.51	6617.7	
600.7	6795.8	
600.89	10323	
601.08	10395	
601.27	6522.1	
601.47	7626	
601.66	9516.9	
601.85	10232	
602.04	7372.7	
602.23	7684.7	
602.42	8610.3	
602.61	9319.6	
602.8	7360.4	
602.99	7133.8	
603.18	8871.8	
603.37	9282.8	
603.57	7825.3	
603.76	8460.8	
603.95	10135	
604.14	9592	
604.33	7193.8	
604.52	7613	
604.71	9389.3	
604.9	8899.1	
605.09	8170	
605.28	8092.9	
605.47	9850	
605.66	9639.8	
605.86	7918.8	
606.05	7365.2	
606.24	9864.4	
606.43	8322.9	
606.62	7610.3	
606.81	8434.2	
607	9712.8	
607.19	8960.5	
607.38	6997.2	
607.57	7268.2	
607.76	8847.9	
607.95	8224	
608.14	7695.6	
608.33	8368.7	
608.52	8822	
608.72	9815.2	
608.91	6956.9	
609.1	6790.4	
609.29	8830.2	
609.48	8288.8	
609.67	7871.7	
609.86	6886.6	
610.05	8485.4	
610.24	8808.3	
610.43	6754.2	
610.62	6417.7	
610.81	10004	
611	9742.2	
611.19	6851.1	
611.38	7691.5	
611.57	9149.6	
611.76	10547	
611.95	6612.2	
612.14	6578.1	
612.33	8880	
612.52	8410.3	
612.71	7251.2	
612.9	6385.6	
613.09	8003.5	
613.28	10498	
613.47	6894.8	
613.66	7989.8	
613.85	9110.7	
614.04	8582.4	
614.24	6985.6	
614.43	6215.6	
614.62	9136.7	
614.81	9082.1	
615	7667.6	
615.19	7687.4	
615.38	8410.3	
615.57	8725.7	
615.76	7493.5	
615.95	8513.4	
616.14	9282.8	
616.33	8866.3	
616.52	7832.8	
616.71	8089.5	
616.9	9116.9	
617.09	8983.1	
617.28	7176.1	
617.47	8499.8	
617.66	8194.6	
617.85	8279.9	
618.04	8086.1	
618.22	7473.7	
618.41	8490.2	
618.6	9511.4	
618.79	7405.5	
618.98	7112.6	
619.17	9884.2	
619.36	8093.6	
619.55	7263.5	
619.74	7336.5	
619.93	9172.2	
620.12	8587.1	
620.31	7901.1	
620.5	8077.2	
620.69	10045	
620.88	10116	
621.07	8797.4	
621.26	7727.7	
621.45	9245.9	
621.64	9342.2	
621.83	7793.9	
622.02	7079.1	
622.21	9276.6	
622.4	9029.5	
622.59	8345.5	
622.78	8110.6	
622.97	8583	
623.16	9782.5	
623.35	7759.8	
623.54	6759.7	
623.72	8832.2	
623.91	8895	
624.1	8103.1	
624.29	6647	
624.48	10142	
624.67	9263.6	
624.86	7789.1	
625.05	6805.4	
625.24	10211	
625.43	8447.2	
625.62	9644.6	
625.81	7015.7	
626	9521	
626.19	8696.4	
626.38	7917.4	
626.56	7248.4	
626.75	8482	
626.94	9233.6	
627.13	7718.1	
627.32	6378.1	
627.51	9062.9	
627.7	10583	
627.89	6374	
628.08	7678.5	
628.27	8185.7	
628.46	8430.8	
628.65	6698.9	
628.83	6438.8	
629.02	9035.6	
629.21	8303.8	
629.4	7262.8	
629.59	7441.6	
629.78	8158.4	
629.97	9379.7	
630.16	7501.7	
630.35	7047.7	
630.54	9737.4	
630.72	9483.5	
630.91	6971.3	
631.1	7608.9	
631.29	8933.9	
631.48	9065.7	
631.67	7706.5	
631.86	7200	
632.05	8439	
632.24	8634.9	
632.42	6703	
632.61	7370.6	
632.8	8634.2	
632.99	8241	
633.18	7373.4	
633.37	7907.2	
633.56	8950.3	
633.75	8757.1	
633.93	7462.8	
634.12	7058.7	
634.31	9701.9	
634.5	9486.9	
634.69	7074.4	
634.88	7606.2	
635.07	8691.6	
635.25	9349	
635.44	8162.5	
635.63	8372.1	
635.82	8558.5	
636.01	8060.8	
636.2	8058.1	
636.39	7595.2	
636.57	9772.9	
636.76	9516.2	
636.95	6883.9	
637.14	8546.9	
637.33	9024.7	
637.52	10077	
637.7	6780.1	
637.89	7763.8	
638.08	8566	
638.27	10298	
638.46	7782.3	
638.65	8342.1	
638.83	10201	
639.02	8366	
639.21	7733.8	
639.4	8335.2	
639.59	8926.4	
639.78	8464.9	
639.96	6971.3	
640.15	6963.8	
640.34	8772.8	
640.53	8965.3	
640.72	6727.6	
640.91	7095.5	
641.09	8201.4	
641.28	9609.8	
641.47	7030.7	
641.66	7926.3	
641.85	8901.2	
642.03	9167.4	
642.22	7656.7	
642.41	7126.9	
642.6	8200.7	
642.79	7638.9	
642.97	6792.4	
643.16	7615.7	
643.35	8170	
643.54	7991.2	
643.73	6668.2	
643.91	7533.1	
644.1	7805.5	
644.29	8465.6	
644.48	6761	
644.67	6776.7	
644.85	7931.8	
645.04	8199.4	
645.23	6110.5	
645.42	6397.9	
645.6	7608.9	
645.79	8911.4	
645.98	6442.9	
646.17	5314.5	
646.36	7271.7	
646.54	7919.5	
646.73	7263.5	
646.92	5897.5	
647.11	7485.3	
647.29	8661.5	
647.48	5984.2	
647.67	5741.1	
647.86	8953.7	
648.05	8900.5	
648.23	6424.5	
648.42	7750.9	
648.61	8260.8	
648.8	8034.2	
648.98	6039.5	
649.17	6460	
649.36	7655.3	
649.55	7083.9	
649.73	6124.1	
649.92	6990.4	
650.11	7484.6	
650.3	7851.2	
650.48	6272.9	
650.67	5948	
650.86	8135.2	
651.05	6966.5	
651.23	6274.3	
651.42	6211.5	
651.61	7585	
651.79	7809.6	
651.98	6453.8	
652.17	6029.2	
652.36	8126.3	
652.54	7087.3	
652.73	6107.7	
652.92	5928.2	
653.11	8182.3	
653.29	8189.8	
653.48	5285.1	
653.67	6440.2	
653.85	7892.2	
654.04	9022	
654.23	6673	
654.42	6102.3	
654.6	7372.7	
654.79	8050.6	
654.98	5591	
655.16	6128.9	
655.35	6966.5	
655.54	6907.8	
655.73	5678.3	
655.91	5626.5	
656.1	8224	
656.29	6933.7	
656.47	5251	
656.66	7074.4	
656.85	7225.9	
657.03	7305.1	
657.22	5849.7	
657.41	5948.7	
657.59	7352.9	
657.78	7127.6	
657.97	5563	
658.16	6359.6	
658.34	8167.3	
658.53	8580.3	
658.72	7260	
658.9	7838.9	
659.09	7502.4	
659.28	7688.8	
659.46	6070.9	
659.65	6053.8	
659.84	7359	
660.02	7819.8	
660.21	5838.1	
660.4	5842.9	
660.58	8350.3	
660.77	7710.6	
660.96	6534.4	
661.14	5535	
661.33	9088.2	
661.52	8789.9	
661.7	5402.5	
661.89	9485.5	
662.08	7316.7	
662.26	6881.9	
662.45	5795.8	
662.64	5874.9	
662.82	8025.3	
663.01	7251.9	
663.2	5928.9	
663.38	6793.1	
663.57	7968	
663.75	7753.6	
663.94	6292	
664.13	7758.4	
664.31	7219.1	
664.5	8034.9	
664.69	6608.8	
664.87	7204.8	
665.06	6980.8	
665.25	7850.5	
665.43	7403.4	
665.62	7468.3	
665.8	8167.3	
665.99	7464.2	
666.18	6275.7	
666.36	6402.6	
666.55	8188.5	
666.74	8012.3	
666.92	5806.7	
667.11	7646.4	
667.29	7404.8	
667.48	8025.3	
667.67	7210.2	
667.85	6288.6	
668.04	7460.1	
668.22	7494.9	
668.41	6328.2	
668.6	6535.8	
668.78	7239.6	
668.97	7448.5	
669.15	6693.4	
669.34	5575.9	
669.53	7190.4	
669.71	7623.9	
669.9	5834.7	
670.08	6488.6	
670.27	7238.2	
670.46	7851.2	
670.64	6761	
670.83	7017.7	
671.01	7091.4	
671.2	7800.7	
671.38	5861.3	
671.57	5711.8	
671.76	8435.6	
671.94	9129.2	
672.13	5759.6	
672.31	6922.8	
672.5	8013	
672.69	7251.9	
672.87	5915.2	
673.06	6166.4	
673.24	7740	
673.43	7259.4	
673.61	6719.4	
673.8	6290.7	
673.98	7962.5	
674.17	8198.7	
674.36	6797.9	
674.54	6576	
674.73	7795.9	
674.91	7959.8	
675.1	6322.8	
675.28	5959.6	
675.47	7559.7	
675.65	8068.3	
675.84	6112.5	
676.03	6574	
676.21	7299.6	
676.4	6685.9	
676.58	6989.7	
676.77	6729.6	
676.95	8869.1	
677.14	7200	
677.32	5829.2	
677.51	5637.4	
677.69	8088.1	
677.88	6808.8	
678.06	5618.9	
678.25	5866.1	
678.44	7571.3	
678.62	7282.6	
678.81	5537.7	
678.99	6666.8	
679.18	8405.5	
679.36	7915.4	
679.55	6077	
679.73	6845.7	
679.92	7845.1	
680.1	7217.7	
680.29	7408.9	
680.47	6120.7	
680.66	7116	
680.84	8117.5	
681.03	5302.2	
681.21	6594.5	
681.4	7299.6	
681.58	7066.9	
681.77	5833.3	
681.95	5758.2	
682.14	8129.1	
682.32	8421.9	
682.51	6793.1	
682.69	5517.9	
682.88	7065.5	
683.06	7813	
683.25	6400.6	
683.43	6955.6	
683.62	7326.9	
683.8	7916.1	
683.99	7004.7	
684.17	6221	
684.36	8645.2	
684.54	7178.1	
684.73	5201.2	
684.91	5492	
685.1	7400.7	
685.28	6784.2	
685.46	5971.2	
685.65	6025.1	
685.83	7632.1	
686.02	6867.5	
686.2	5382.1	
686.39	5553.4	
686.57	6680.5	
686.76	8427.4	
686.94	5476.3	
687.13	5627.8	
687.31	7496.9	
687.5	6989.7	
687.68	5015.5	
687.86	6446.3	
688.05	8822	
688.23	6376	
688.42	6449.1	
688.6	5545.2	
688.79	7053.9	
688.97	6844.3	
689.16	6041.5	
689.34	4834.6	
689.52	7740	
689.71	7900.4	
689.89	6304.3	
690.08	5459.2	
690.26	7127.6	
690.45	7000	
690.63	6485.2	
690.81	5633.3	
691	6716	
691.18	6717.3	
691.37	5692	
691.55	8178.9	
691.74	6709.8	
691.92	8860.2	
692.1	5719.3	
692.29	5161.6	
692.47	6901	
692.66	6154.1	
692.84	5399.8	
693.02	6041.5	
693.21	6285.9	
693.39	6851.8	
693.58	6141.2	
693.76	5457.8	
693.94	8252.6	
694.13	7997.3	
694.31	5559.6	
694.5	6736.5	
694.68	6886.6	
694.86	7236.2	
695.05	6078.4	
695.23	6232	
695.42	7599.3	
695.6	10245	
695.78	6702.3	
695.97	5706.3	
696.15	7638.9	
696.34	6941.2	
696.52	5399.1	
696.7	6260	
696.89	7354.9	
697.07	6763.1	
697.25	6146.6	
697.44	7942.7	
697.62	7163.8	
697.81	7679.2	
697.99	5784.8	
698.17	6345.3	
698.36	6538.5	
698.54	7208.2	
698.72	6161	
698.91	5121.3	
699.09	6817	
699.28	6704.4	
699.46	5800.5	
699.64	5699.5	
699.83	6598.6	
700.01	8187.1	
700.19	6584.2	
700.38	4911	
700.56	8015.1	
700.74	6789	
700.93	5426.4	
701.11	6366.5	
701.29	7495.6	
701.48	8686.1	
701.66	5705	
701.84	5767.1	
702.03	7016.3	
702.21	7728.4	
702.39	5240.1	
702.58	5915.9	
702.76	7456.7	
702.94	7582.3	
703.13	5215.5	
703.31	7946.1	
703.49	6659.3	
703.68	7845.8	
703.86	5435.3	
704.04	6583.5	
704.23	7318.1	
704.41	7818.5	
704.59	5693.4	
704.78	6974	
704.96	8486.1	
705.14	7807.5	
705.33	5463.3	
705.51	6402	
705.69	7226.6	
705.87	8048.5	
706.06	6708.5	
706.24	5450.3	
706.42	7604.1	
706.61	7888.8	
706.79	6790.4	
706.97	5554.1	
707.16	6980.2	
707.34	7648.5	
707.52	6758.3	
707.7	5831.9	
707.89	7180.2	
708.07	6863.4	
708.25	6741.9	
708.44	6895.5	
708.62	7134.4	
708.8	8393.9	
708.98	7135.8	
709.17	5973.9	
709.35	7636.2	
709.53	7638.2	
709.72	5713.2	
709.9	5907.7	
710.08	7908.6	
710.26	7934.5	
710.45	7546.8	
710.63	5985.5	
710.81	7529.7	
710.99	7520.8	
711.18	6638.8	
711.36	6161	
711.54	7362.4	
711.72	8131.1	
711.91	6126.8	
712.09	5514.5	
712.27	7441.6	
712.45	8534.6	
712.64	6451.1	
712.82	5229.8	
713	6772.6	
713.18	6826.6	
713.37	5322	
713.55	6538.5	
713.73	7728.4	
713.91	6047.7	
714.1	5448.3	
714.28	4918.5	
714.46	7199.3	
714.64	6262.7	
714.83	4250.9	
715.01	5191.6	
715.19	6366.5	
715.37	5823.1	
715.55	4842.1	
715.74	5169.1	
715.92	7450.5	
716.1	5246.2	
716.28	6398.5	
716.47	5377.3	
716.65	5972.6	
716.83	6203.3	
717.01	5214.1	
717.19	5268.7	
717.38	8428.1	
717.56	5759.6	
717.74	5611.4	
717.92	4614.1	
718.1	7287.4	
718.29	6409.5	
718.47	4345.1	
718.65	5001.1	
718.83	7136.5	
719.01	7147.4	
719.2	4239.3	
719.38	5438.7	
719.56	6842.3	
719.74	8398.7	
719.92	4863.9	
720.11	6138.4	
720.29	6816.3	
720.47	5807.4	
720.65	4434.5	
720.83	5400.5	
721.02	6161.7	
721.2	5934.3	
721.38	5471.5	
721.56	4609.3	
721.74	5361.6	
721.92	5562.3	
722.11	5996.5	
722.29	5539.1	
722.47	6978.1	
722.65	6052.4	
722.83	4613.4	
723.01	5670.8	
723.2	6204	
723.38	6418.3	
723.56	3988.1	
723.74	5247.6	
723.92	5612.1	
724.1	6906.4	
724.29	4491.2	
724.47	5854.5	
724.65	5719.3	
724.83	5647.6	
725.01	4460.5	
725.19	5424.4	
725.37	5741.1	
725.56	5844.9	
725.74	4350.6	
725.92	4639.3	
726.1	5695.4	
726.28	6010.1	
726.46	5034.6	
726.64	4776.5	
726.83	5909.1	
727.01	6338.5	
727.19	4300.7	
727.37	5274.2	
727.55	6062	
727.73	6597.9	
727.91	4332.1	
728.09	4201.1	
728.28	6780.8	
728.46	7427.3	
728.64	5453.1	
728.82	5461.9	
729	8039.6	
729.18	7251.2	
729.36	4630.5	
729.54	7304.4	
729.72	8452	
729.91	6589.7	
730.09	6907.8	
730.27	5588.2	
730.45	6448.4	
730.63	7206.8	
730.81	6268.1	
730.99	5184.8	
731.17	7759.8	
731.35	6251.8	
731.53	5812.1	
731.71	5307	
731.9	7543.4	
732.08	7750.9	
732.26	5610.8	
732.44	5237.3	
732.62	7691.5	
732.8	7127.6	
732.98	6049	
733.16	5005.2	
733.34	7169.3	
733.52	5890	
733.7	5602.6	
733.88	5872.2	
734.07	7064.8	
734.25	6759	
734.43	5019.6	
734.61	6939.2	
734.79	8488.1	
734.97	6698.9	
735.15	5192.3	
735.33	5649.7	
735.51	7253.9	
735.69	6791.1	
735.87	6898.2	
736.05	5902.9	
736.23	7006.8	
736.41	6783.6	
736.59	5752.7	
736.77	5963.7	
736.95	7581.6	
737.13	6950.8	
737.32	5403.2	
737.5	5682.4	
737.68	8222.6	
737.86	6863.4	
738.04	5234.6	
738.22	7316	
738.4	6608.8	
738.58	6930.3	
738.76	5973.2	
738.94	4863.2	
739.12	6875.7	
739.3	6721.4	
739.48	6686.6	
739.66	6485.9	
739.84	7277.1	
740.02	7212.3	
740.2	5027.1	
740.38	5412.1	
740.56	7707.2	
740.74	6397.2	
740.92	6141.2	
741.1	6089.3	
741.28	7038.2	
741.46	6885.3	
741.64	5703.6	
741.82	6158.9	
742	7053.2	
742.18	7031.4	
742.36	5860.6	
742.54	5466.7	
742.72	7707.2	
742.9	6372.6	
743.08	6354.2	
743.26	5041.4	
743.44	7890.1	
743.62	7798	
743.8	6445	
743.98	5406.6	
744.16	7416.4	
744.34	7071	
744.52	6376.7	
744.7	6361	
744.88	7531.7	
745.06	7051.2	
745.24	6339.8	
745.42	6543.3	
745.6	7680.6	
745.78	7334.5	
745.96	5150.6	
746.14	5465.3	
746.32	8486.8	
746.5	7658.7	
746.68	6132.3	
746.86	5524.1	
747.03	8229.4	
747.21	6264.1	
747.39	6075	
747.57	5603.2	
747.75	7217	
747.93	7672.4	
748.11	5529.5	
748.29	5363.6	
748.47	8945.5	
748.65	6937.2	
748.83	6331.6	
749.01	6043.6	
749.19	7446.4	
749.37	6615.6	
749.55	5870.8	
749.73	5973.9	
749.91	7092.1	
750.09	6762.4	
750.26	6011.5	
750.44	5313.1	
750.62	7146.7	
750.8	7129	
750.98	5197.1	
751.16	5582.8	
751.34	7193.8	
751.52	6426.5	
751.7	6437.4	
751.88	5184.1	
752.06	7759.1	
752.24	7499.7	
752.42	5147.9	
752.59	5528.8	
752.77	7032.7	
752.95	8482	
753.13	6292.7	
753.31	5662	
753.49	6718	
753.67	7252.5	
753.85	6012.8	
754.03	5500.8	
754.21	7511.9	
754.38	7879.2	
754.56	5627.8	
754.74	4508.9	
754.92	6586.3	
755.1	7344.7	
755.28	4466.6	
755.46	4449.6	
755.64	7782.3	
755.82	7891.5	
755.99	4496	
756.17	4605.9	
756.35	5039.4	
756.53	6838.2	
756.71	3325.2	
756.89	4382	
757.07	6369.9	
757.25	5306.3	
757.42	4988.2	
757.6	6005.3	
757.78	6500.9	
757.96	5348.6	
758.14	4698.7	
758.32	4133.5	
758.5	4823.6	
758.67	5728.2	
758.85	4411.3	
759.03	4644.8	
759.21	5915.9	
759.39	5316.5	
759.57	3908.2	
759.75	5253	
759.92	6653.2	
760.1	5799.8	
760.28	5698.8	
760.46	5977.3	
760.64	5707.7	
760.82	5351.3	
760.99	5651.7	
761.17	4648.2	
761.35	6634.1	
761.53	5504.3	
761.71	4952	
761.89	5700.9	
762.06	6596.5	
762.24	6036.7	
762.42	5073.5	
762.6	4894	
762.78	6161.7	
762.96	6855.9	
763.13	5563	
763.31	5197.7	
763.49	7170.6	
763.67	6178.7	
763.85	6128.9	
764.02	6794.5	
764.2	7383.6	
764.38	6537.1	
764.56	5097.4	
764.74	6130.3	
764.91	7642.3	
765.09	6361.7	
765.27	4753.3	
765.45	4628.4	
765.63	7635.5	
765.8	7542	
765.98	4300.1	
766.16	4654.4	
766.34	5908.4	
766.52	5674.2	
766.69	5723.4	
766.87	4487.1	
767.05	6382.2	
767.23	7231.4	
767.41	4872.8	
767.58	5122	
767.76	7000	
767.94	7067.5	
768.12	4931.5	
768.29	5791.7	
768.47	6394.4	
768.65	7224.6	
768.83	4483.7	
769	5759.6	
769.18	5931.6	
769.36	6732.4	
769.54	5575.3	
769.72	4579.3	
769.89	7007.5	
770.07	7123.5	
770.25	4897.4	
770.43	6275.7	
770.6	7815	
770.78	8363.2	
770.96	5060.5	
771.14	5786.2	
771.31	6872.3	
771.49	6153.5	
771.67	4166.9	
771.85	4496.7	
772.02	5344.5	
772.2	6171.2	
772.38	5269.4	
772.55	4667.3	
772.73	6424.5	
772.91	6187.6	
773.09	5186.1	
773.26	5177.9	
773.44	6419.7	
773.62	6063.4	
773.8	4594.3	
773.97	4207.9	
774.15	6470.2	
774.33	6010.8	
774.5	4375.1	
774.68	4807.9	
774.86	6559	
775.04	6007.4	
775.21	4450.2	
775.39	4554.7	
775.57	6339.1	
775.74	6783.6	
775.92	4323.9	
776.1	4235.2	
776.27	6356.9	
776.45	7660.1	
776.63	4511.7	
776.81	3982.6	
776.98	5817.6	
777.16	7122.2	
777.34	4708.3	
777.51	4969.7	
777.69	5847.6	
777.87	5647.6	
778.04	4580.6	
778.22	5367.7	
778.4	5660.6	
778.57	6377.4	
778.75	3815.4	
778.93	4119.8	
779.1	5355.4	
779.28	5240.8	
779.46	3865.9	
779.64	4413.4	
779.81	6518	
779.99	7492.8	
780.17	5226.4	
780.34	5457.2	
780.52	5870.8	
780.69	6062.7	
780.87	4736.3	
781.05	4244.1	
781.22	5939.8	
781.4	5995.8	
781.58	4347.8	
781.75	3487	
781.93	5998.5	
782.11	5360.9	
782.28	5281.7	
782.46	4362.9	
782.64	5157.5	
782.81	6084.5	
782.99	4462.5	
783.17	4449.6	
783.34	6022.4	
783.52	5100.1	
783.69	4668	
783.87	5545.2	
784.05	5179.3	
784.22	5238	
784.4	5510.4	
784.58	4741.7	
784.75	6275.7	
784.93	5268.1	
785.1	4394.9	
785.28	5055.8	
785.46	5969.1	
785.63	5229.1	
785.81	4293.2	
785.99	4148.5	
786.16	5392.3	
786.34	5851.7	
786.51	4206.5	
786.69	4656.4	
786.87	4969.1	
787.04	5593	
787.22	3556	
787.39	5066	
787.57	5193.6	
787.75	6526.2	
787.92	5313.1	
788.1	4978.6	
788.27	5330.2	
788.45	4976.6	
788.63	4891.2	
788.8	3502.7	
788.98	5829.2	
789.15	5031.9	
789.33	3622.2	
789.5	4350.6	
789.68	6358.3	
789.86	6380.1	
790.03	4616.1	
790.21	4143	
790.38	6164.4	
790.56	5375.2	
790.73	4022.2	
790.91	4027	
791.09	5252.4	
791.26	6149.4	
791.44	4260.5	
791.61	3724.6	
791.79	5224.4	
791.96	5315.2	
792.14	3768.9	
792.32	3357.3	
792.49	5254.4	
792.67	5362.9	
792.84	3836.5	
793.02	3657	
793.19	5722.7	
793.37	6545.3	
793.54	3462.4	
793.72	3730	
793.89	6733	
794.07	5240.1	
794.25	4483	
794.42	3435.1	
794.6	6439.5	
794.77	6039.5	
794.95	4709	
795.12	4098.7	
795.3	5201.2	
795.47	5941.8	
795.65	4547.2	
795.82	4367.6	
796	4969.7	
796.17	7150.8	
796.35	4184	
796.52	4932.9	
796.7	5801.9	
796.87	5952.1	
797.05	5247.6	
797.22	5082.4	
797.4	5874.3	
797.57	6987	
797.75	4298	
797.92	4095.3	
798.1	6206.7	
798.27	5249.6	
798.45	3446.7	
798.62	3712.3	
798.8	5560.9	
798.97	6080.4	
799.15	4575.8	
799.32	4334.2	
799.5	4752.7	
799.67	5651	
799.85	4714.4	
800.02	3407.1	
800.2	5169.1	
800.37	5530.2	
800.55	4860.5	
800.72	4077.5	
800.9	5993	
801.07	6504.3	
801.25	5528.8	
801.42	4549.9	
801.6	6073.6	
801.77	5833.3	
801.95	4033.1	
802.12	3906.2	
802.29	5807.4	
802.47	5749.3	
802.64	4440.7	
802.82	3290.4	
802.99	5139	
803.17	6247.7	
803.34	4330.8	
803.52	3896.6	
803.69	6998.6	
803.87	4968.4	
804.04	4261.8	
804.21	4416.8	
804.39	6376.7	
804.56	5436.7	
804.74	3618.1	
804.91	4515.1	
805.09	5215.5	
805.26	5295.4	
805.44	3682.9	
805.61	4085	
805.78	5938.4	
805.96	5972.6	
806.13	4455	
806.31	4825	
806.48	4681.7	
806.66	5285.8	
806.83	4464.6	
807	4360.8	
807.18	5142.4	
807.35	5566.4	
807.53	4300.1	
807.7	3459.7	
807.87	6524.8	
808.05	5241.4	
808.22	4843.4	
808.4	3431.7	
808.57	5267.4	
808.74	4853.7	
808.92	3951.9	
809.09	5031.9	
809.27	5071.5	
809.44	5792.3	
809.61	3410.6	
809.79	3908.9	
809.96	6446.3	
810.14	6081.8	
810.31	3328.6	
810.48	4138.9	
810.66	5313.1	
810.83	6171.2	
811.01	3945.8	
811.18	4760.8	
811.35	6004.6	
811.53	4631.1	
811.7	4866.7	
811.87	4524.6	
812.05	5198.4	
812.22	5183.4	
812.39	3779.2	
812.57	3728.7	
812.74	5246.9	
812.92	7076.4	
813.09	4096.6	
813.26	4603.8	
813.44	6771.9	
813.61	5198.4	
813.78	3454.9	
813.96	4674.8	
814.13	5268.1	
814.3	4868.7	
814.48	5033.2	
814.65	4177.9	
814.82	6622.4	
815	5046.9	
815.17	4327.4	
815.34	5302.2	
815.52	5148.6	
815.69	5171.8	
815.87	4334.9	
816.04	3654.3	
816.21	5277.6	
816.38	4594.3	
816.56	4137.6	
816.73	3826.3	
816.9	6666.1	
817.08	6108.4	
817.25	3842.7	
817.42	4878.3	
817.6	4752	
817.77	5302.9	
817.94	4340.3	
818.12	3841.3	
818.29	4936.3	
818.46	7915.4	
818.64	3953.9	
818.81	3730	
818.98	4889.9	
819.16	7304.4	
819.33	4607.9	
819.5	4315.1	
819.67	5659.9	
819.85	6369.9	
820.02	4168.3	
820.19	4531.5	
820.37	5447.6	
820.54	5001.1	
820.71	4362.9	
820.88	5477.6	
821.06	5473.5	
821.23	4998.4	
821.4	4402.5	
821.58	4319.8	
821.75	5998.5	
821.92	5405.3	
822.09	3479.5	
822.27	3590.8	
822.44	5247.6	
822.61	5122	
822.79	3510.9	
822.96	6834.1	
823.13	5852.4	
823.3	4996.4	
823.48	4057.7	
823.65	3622.2	
823.82	6008.1	
823.99	4763.6	
824.17	5188.2	
824.34	3761.4	
824.51	7062.1	
824.68	5244.8	
824.86	3887	
825.03	4346.5	
825.2	5254.4	
825.37	6445.6	
825.55	3791.5	
825.72	4274.1	
825.89	7043.6	
826.06	6543.3	
826.24	4171	
826.41	4205.2	
826.58	6425.8	
826.75	5603.9	
826.92	3268.6	
827.1	3631.7	
827.27	8888.9	
827.44	7053.2	
827.61	3999	
827.79	4866.7	
827.96	4956.1	
828.13	5331.5	
828.3	4128.7	
828.47	3515	
828.65	5475.6	
828.82	5426.4	
828.99	5491.3	
829.16	4749.9	
829.34	5866.7	
829.51	5675.6	
829.68	4328.7	
829.85	4536.3	
830.02	6161	
830.2	5935	
830.37	3311.6	
830.54	5274.2	
830.71	6739.2	
830.88	5165.7	
831.05	3398.3	
831.23	3913	
831.4	6467.5	
831.57	7265.5	
831.74	3983.3	
831.91	3458.3	
832.09	5453.7	
832.26	5868.1	
832.43	4126.7	
832.6	4639.3	
832.77	5429.2	
832.94	6350.8	
833.12	3258.3	
833.29	4075.5	
833.46	5504.9	
833.63	7597.3	
833.8	4500.8	
833.97	4144.4	
834.15	5907	
834.32	5650.3	
834.49	4299.4	
834.66	4433.2	
834.83	6158.2	
835	4955.4	
835.17	3941.7	
835.35	4037.2	
835.52	5784.8	
835.69	5699.5	
835.86	4205.8	
836.03	3497.2	
836.2	5873.6	
836.37	5501.5	
836.55	4190.1	
836.72	3856.3	
836.89	5462.6	
837.06	5925.5	
837.23	4269.3	
837.4	4584	
837.57	6792.4	
837.75	7577.5	
837.92	3833.8	
838.09	4075.5	
838.26	5405.3	
838.43	6260	
838.6	4354	
838.77	3880.2	
838.94	7161.7	
839.11	6799.9	
839.29	4134.8	
839.46	3274.7	
839.63	5875.6	
839.8	5568.4	
839.97	3948.5	
840.14	3993.5	
840.31	5625.1	
840.48	5881.8	
840.65	3311.6	
840.82	3890.5	
841	5914.5	
841.17	5847.6	
841.34	3695.9	
841.51	3731.4	
841.68	5748	
841.85	5488.6	
842.02	3796.9	
842.19	3138.9	
842.36	5622.4	
842.53	5595.7	
842.7	3706.1	
842.87	4581.3	
843.05	7446.4	
843.22	5517.9	
843.39	3444	
843.56	3930.1	
843.73	5312.4	
843.9	5893.4	
844.07	6042.2	
844.24	5042.8	
844.41	8880.7	
844.58	5061.2	
844.75	3523.9	
844.92	3816.7	
845.09	5879	
845.26	5817.6	
845.43	3673.4	
845.6	3863.8	
845.77	5946.6	
845.94	5600.5	
846.12	4058.4	
846.29	4285	
846.46	6105	
846.63	5870.2	
846.8	3697.3	
846.97	4376.5	
847.14	6402.6	
847.31	5801.9	
847.48	4118.5	
847.65	4605.9	
847.82	6258.6	
847.99	6140.5	
848.16	4932.2	
848.33	4568.3	
848.5	5369.1	
848.67	6393.1	
848.84	3715.7	
849.01	3824.9	
849.18	5240.8	
849.35	4917.9	
849.52	4676.9	
849.69	3647.4	
849.86	6032.6	
850.03	6371.2	
850.2	3654.9	
850.37	4545.8	
850.54	6234.7	
850.71	5479.7	
850.88	4466.6	
851.05	3598.3	
851.22	5781.4	
851.39	6567.8	
851.56	3439.9	
851.73	4224.3	
851.9	5103.5	
852.07	6154.8	
852.24	4097.3	
852.41	3665.2	
852.58	5705	
852.75	5192.3	
852.92	4070.7	
853.09	3577.8	
853.26	5486.5	
853.43	6285.9	
853.6	3685.7	
853.77	3167.5	
853.94	6472.3	
854.11	5834.7	
854.28	5485.8	
854.44	3947.1	
854.61	6982.2	
854.78	6013.5	
854.95	3648.8	
855.12	4612.7	
855.29	4679.6	
855.46	6527.6	
855.63	3650.8	
855.8	5128.1	
855.97	5457.8	
856.14	6285.2	
856.31	5149.3	
856.48	3988.8	
856.65	5383.4	
856.82	5089.2	
856.99	3545.7	
857.16	3916.4	
857.33	7159.7	
857.49	5439.4	
857.66	3964.2	
857.83	4304.1	
858	5456.5	
858.17	5651.7	
858.34	3459	
858.51	3680.9	
858.68	6647.7	
858.85	6646.3	
859.02	4302.1	
859.19	4544.4	
859.36	5059.8	
859.52	5178.6	
859.69	3689.1	
859.86	4379.9	
860.03	5199.8	
860.2	6509.1	
860.37	3316.3	
860.54	3693.2	
860.71	6122.7	
860.88	6587	
861.05	4149.9	
861.21	4600.4	
861.38	6609.5	
861.55	5012.1	
861.72	3323.2	
861.89	4128	
862.06	6240.8	
862.23	6759.7	
862.4	3547.1	
862.56	3764.8	
862.73	6016.2	
862.9	5634.6	
863.07	4344.4	
863.24	3306.8	
863.41	4981.3	
863.58	5173.2	
863.75	3751.2	
863.91	4246.1	
864.08	6520.7	
864.25	5997.8	
864.42	4644.8	
864.59	5192.3	
864.76	6890.7	
864.93	5160.9	
865.09	3545.7	
865.26	3904.8	
865.43	6348	
865.6	6839.5	
865.77	3140.9	
865.94	3631	
866.1	6487.3	
866.27	6196.5	
866.44	5592.3	
866.61	3451.5	
866.78	5520	
866.95	6077.7	
867.11	3540.9	
867.28	3245.3	
867.45	6197.8	
867.62	5147.2	
867.79	4240.7	
867.96	3701.4	
868.12	5155.4	
868.29	6214.2	
868.46	3628.3	
868.63	4904.9	
868.8	6412.2	
868.97	6106.4	
869.13	3891.8	
869.3	3809.9	
869.47	5984.8	
869.64	6255.2	
869.81	3723.2	
869.97	3718.4	
870.14	5916.6	
870.31	6627.2	
870.48	3560.7	
870.65	4596.3	
870.81	5440.8	
870.98	5402.5	
871.15	4152.6	
871.32	3777.8	
871.48	5988.9	
871.65	6647.7	
871.82	3620.1	
871.99	4055	
872.16	7206.1	
872.32	6511.9	
872.49	3642.7	
872.66	3635.8	
872.83	6113.9	
872.99	5292.6	
873.16	4188.8	
873.33	3620.1	
873.5	5692.7	
873.67	5734.3	
873.83	3890.5	
874	4966.3	
874.17	5855.8	
874.34	7079.8	
874.5	4770.4	
874.67	4597.7	
874.84	6570.6	
875.01	5130.8	
875.17	5231.9	
875.34	3650.2	
875.51	5796.4	
875.68	7058	
875.84	4437.9	
876.01	5473.5	
876.18	6097.5	
876.34	6014.2	
876.51	3666.5	
876.68	3580.5	
876.85	5614.8	
877.01	6378.7	
877.18	5290.6	
877.35	3660.4	
877.52	5608.7	
877.68	5057.1	
877.85	3574.4	
878.02	3543.7	
878.18	5621	
878.35	5328.8	
878.52	2892.4	
878.69	4116.4	
878.85	6151.4	
879.02	6010.1	
879.19	5225.1	
879.35	3968.3	
879.52	6093.4	
879.69	6279.1	
879.86	3186	
880.02	4152.6	
880.19	5603.2	
880.36	6847.7	
880.52	4222.9	
880.69	4374.5	
880.86	6175.3	
881.02	6287.9	
881.19	3979.9	
881.36	3960.1	
881.52	6081.1	
881.69	5330.9	
881.86	3927.3	
882.02	3870.7	
882.19	6369.2	
882.36	7529.7	
882.52	3711.6	
882.69	5233.2	
882.86	5849.7	
883.02	5728.2	
883.19	4496	
883.36	4207.2	
883.52	6296.8	
883.69	7101.7	
883.86	3752.6	
884.02	3334.1	
884.19	6160.3	
884.36	5606.7	
884.52	4113	
884.69	3909.6	
884.86	5331.5	
885.02	6843.6	
885.19	4146.5	
885.36	4305.5	
885.52	5638.1	
885.69	5833.3	
885.86	5365	
886.02	4752	
886.19	6175.3	
886.35	5554.1	
886.52	4055.7	
886.69	5253.7	
886.85	5233.9	
887.02	6593.8	
887.19	6593.8	
887.35	6593.8	
887.52	6593.8	
887.68	6593.8	
887.85	6593.8	
888.02	6593.8	
888.18	6593.8	
888.35	6593.8	
888.51	6593.8	
888.68	6593.8	
888.85	6593.8	
889.01	6593.8	
889.18	6593.8	
889.35	6593.8	
889.51	6593.8	
889.68	6593.8	
889.84	6593.8	
890.01	6593.8	
890.17	6593.8	
890.34	6593.8	
890.51	6593.8	
890.67	6593.8	
890.84	6593.8	
891	6593.8	
891.17	6593.8	
891.34	6593.8	
891.5	6593.8	
891.67	6593.8	
891.83	6593.8	
892	6593.8	
892.16	6593.8	
892.33	6593.8	
892.5	6593.8	
892.66	6593.8	
892.83	6593.8	
892.99	6593.8	
893.16	6593.8	
893.32	6593.8	
893.49	6593.8	
893.65	6593.8	
893.82	6593.8	
893.99	6593.8	
894.15	6593.8	
894.32	6593.8	
894.48	6593.8	
894.65	6593.8	
894.81	6593.8	
894.98	6593.8	
895.14	6593.8	
895.31	6593.8	
895.47	6593.8	
895.64	6593.8	
895.81	6593.8	
895.97	6593.8	
896.14	6593.8	
896.3	6593.8	
896.47	6593.8	
896.63	6593.8	
896.8	6593.8	
896.96	6593.8	
897.13	6593.8	
897.29	6593.8	
897.46	6593.8	
897.62	6593.8	
897.79	6593.8	
897.95	6593.8	
898.12	6593.8	
898.28	6593.8	
898.45	6593.8	
898.61	6593.8	
898.78	6593.8	
898.94	6593.8	
899.11	6593.8	
899.27	6593.8	
899.44	6593.8	
899.6	6593.8	
899.77	6593.8	
899.93	6593.8	
900.1	6593.8	
900.26	6593.8	
900.43	6593.8	
900.59	6593.8	
900.76	6593.8	
900.92	6593.8	
901.09	6593.8	
901.25	6593.8	
901.42	6593.8	
901.58	6593.8	
901.75	6593.8	
901.91	6593.8	
902.07	6593.8	
902.24	6593.8	
902.4	6593.8	
902.57	6593.8	
902.73	6593.8	
902.9	6593.8	
903.06	6593.8	
903.23	6593.8	
903.39	6593.8	
903.56	6593.8	
903.72	6593.8	
903.88	6593.8	
904.05	6593.8	
904.21	6593.8	
904.38	6593.8	
904.54	6593.8	
904.71	6593.8	
904.87	6593.8	
905.03	6593.8	
905.2	6593.8	
905.36	6593.8	
905.53	6593.8	
905.69	6593.8	
905.86	6593.8	
906.02	6593.8	
906.18	6593.8	
906.35	6593.8	
906.51	6593.8	
906.68	6593.8	
906.84	6593.8	
907.01	6593.8	
907.17	6593.8	
907.33	6593.8	
907.5	6593.8	
907.66	6593.8	
907.83	6593.8	
907.99	6593.8	
908.15	6593.8	
908.32	6593.8	
908.48	6593.8	
908.65	6593.8	
908.81	6593.8	
908.97	6593.8	
909.14	6593.8	
909.3	6593.8	
909.47	6593.8	
909.63	6593.8	
909.79	6593.8	
909.96	6593.8	
910.12	6593.8	
910.28	6593.8	
910.45	6593.8	
910.61	6593.8	
910.78	6593.8	
910.94	6593.8	
911.1	6593.8	
911.27	6593.8	
911.43	6593.8	
911.59	6593.8	
911.76	6593.8	
911.92	6593.8	
912.08	6593.8	
912.25	6593.8	
912.41	6593.8	
912.57	6593.8	
912.74	6593.8	
912.9	6593.8	
913.07	6593.8	
913.23	6593.8	
913.39	6593.8	
913.56	6593.8	
913.72	6593.8	
913.88	6593.8	
914.05	6593.8	
914.21	6593.8	
914.37	6593.8	
914.54	6593.8	
914.7	6593.8	
914.86	6593.8	
915.03	6593.8	
915.19	6593.8	
