Wavelength	Intensities	
nm	a.u.	
179.22	1832.8	
179.44	1822.4	
179.65	1843.2	
179.86	1801.5	
180.08	1794.7	
180.29	4342.4	
180.51	3177.8	
180.72	5297.4	
180.94	6008.1	
181.15	2914.3	
181.37	2898.6	
181.58	5158.2	
181.79	5325.4	
182.01	3082.9	
182.22	3197.6	
182.44	5352	
182.65	4510.3	
182.87	4021.5	
183.08	3577.8	
183.29	5601.2	
183.51	4653	
183.72	3235.1	
183.94	4627	
184.15	5018.2	
184.37	4969.1	
184.58	2908.1	
184.79	3833.8	
185.01	4666	
185.22	5329.5	
185.44	4041.3	
185.65	3459.7	
185.86	4947.2	
186.08	4582.7	
186.29	2843.3	
186.51	3047.4	
186.72	4733.5	
186.94	5459.9	
187.15	3468.6	
187.36	3574.4	
187.58	6922.1	
187.79	5092.6	
188.01	3734.8	
188.22	5643.5	
188.43	6046.3	
188.65	5299.5	
188.86	3028.3	
189.08	3599.6	
189.29	4767	
189.5	4819.6	
189.72	3331.4	
189.93	3411.9	
190.15	5490.6	
190.36	6466.8	
190.57	3654.9	
190.79	3531.4	
191	5487.9	
191.22	5526.8	
191.43	3685	
191.64	3044	
191.86	5697.4	
192.07	5548.6	
192.29	3112.9	
192.5	3325.2	
192.71	5507.7	
192.93	4803.9	
193.14	3338.2	
193.35	3429.7	
193.57	4810.7	
193.78	5586.2	
194	2660.3	
194.21	3207.8	
194.42	4634.6	
194.64	5041.4	
194.85	3564.8	
195.07	4151.9	
195.28	5036	
195.49	4446.8	
195.71	4351.3	
195.92	3086.3	
196.13	5193.6	
196.35	5304.9	
196.56	4657.1	
196.78	3541.6	
196.99	6391	
197.2	5976	
197.42	3611.3	
197.63	3652.9	
197.84	4508.3	
198.06	5201.8	
198.27	3306.8	
198.48	4396.3	
198.7	4855.1	
198.91	4991.6	
199.13	3570.3	
199.34	3585.3	
199.55	5404.6	
199.77	4405.2	
199.98	3255.6	
200.19	3653.6	
200.41	4861.2	
200.62	4668.7	
200.83	3747.1	
201.05	4045.4	
201.26	4965.6	
201.47	4708.3	
201.69	3189.4	
201.9	3087.7	
202.11	5005.2	
202.33	5862.7	
202.54	3391.4	
202.76	3789.4	
202.97	5061.2	
203.18	5141.1	
203.4	3803.1	
203.61	3674.7	
203.82	5051.7	
204.04	4754	
204.25	3661.8	
204.46	3532.1	
204.68	5039.4	
204.89	5244.8	
205.1	3498.6	
205.32	3059	
205.53	5326.8	
205.74	5487.2	
205.96	2661	
206.17	3724.6	
206.38	5328.8	
206.6	5467.4	
206.81	4091.2	
207.02	3383.9	
207.24	5210.7	
207.45	5526.1	
207.66	3465.2	
207.88	2952.5	
208.09	5167.7	
208.3	5027.8	
208.52	3134.8	
208.73	3522.5	
208.94	4991.6	
209.15	5600.5	
209.37	3419.4	
209.58	3561.4	
209.79	5448.3	
210.01	4827.7	
210.22	2816.6	
210.43	2927.2	
210.65	5063.3	
210.86	5321.3	
211.07	3441.3	
211.29	3168.2	
211.5	5264.6	
211.71	4948.6	
211.93	3195.5	
212.14	3175	
212.35	4948.6	
212.56	5104.2	
212.78	3629.7	
212.99	3006.4	
213.2	5818.3	
213.42	4867.3	
213.63	3298.6	
213.84	3480.9	
214.06	4528.7	
214.27	4592.2	
214.48	3416	
214.69	3672.7	
214.91	5610.8	
215.12	5670.8	
215.33	3732.8	
215.55	4036.5	
215.76	6078.4	
215.97	5300.1	
216.18	3553.2	
216.4	3522.5	
216.61	4738.3	
216.82	5385.5	
217.04	3191.4	
217.25	3285.6	
217.46	5502.9	
217.67	5313.8	
217.89	2891	
218.1	2906.1	
218.31	5139.7	
218.53	5139	
218.74	3390.8	
218.95	3259.7	
219.16	4990.2	
219.38	5799.2	
219.59	3259	
219.8	3809.2	
220.01	6370.5	
220.23	5044.1	
220.44	4138.3	
220.65	3154.6	
220.87	5057.8	
221.08	5518.6	
221.29	2961.4	
221.5	3910.3	
221.72	6646.3	
221.93	4721.9	
222.14	3655.6	
222.35	4261.1	
222.57	5036.6	
222.78	5317.2	
222.99	3469.3	
223.2	3696.6	
223.42	5244.2	
223.63	5343.2	
223.84	2727.9	
224.05	2702	
224.27	6258.6	
224.48	5791.7	
224.69	4247.5	
224.9	3615.3	
225.12	5163.6	
225.33	5008.6	
225.54	2941.6	
225.75	3261	
225.97	4636.6	
226.18	4965.6	
226.39	3459	
226.6	3282.2	
226.82	4835.3	
227.03	4652.3	
227.24	3597.6	
227.45	3074	
227.67	5361.6	
227.88	5778	
228.09	4016.1	
228.3	4073.4	
228.52	5366.4	
228.73	4979.3	
228.94	3343.7	
229.15	3031	
229.36	4922	
229.58	4871.4	
229.79	3390.8	
230	3880.2	
230.21	5906.3	
230.43	5096	
230.64	3527.3	
230.85	3727.3	
231.06	5407.3	
231.28	5358.2	
231.49	2982.5	
231.7	3526.6	
231.91	5277.6	
232.12	4960.2	
232.34	3108.1	
232.55	3459	
232.76	5526.1	
232.97	5124	
233.18	3210.5	
233.4	3574.4	
233.61	5155.4	
233.82	4872.1	
234.03	3349.8	
234.25	3303.4	
234.46	6780.1	
234.67	5057.8	
234.88	3631.7	
235.09	3266.5	
235.31	5204.6	
235.52	4908.3	
235.73	3566.2	
235.94	3017.3	
236.15	4780.6	
236.37	5968.5	
236.58	3217.4	
236.79	3472.7	
237	5290.6	
237.21	4582.7	
237.43	3687	
237.64	2922.5	
237.85	8598.7	
238.06	4709	
238.27	3732.1	
238.48	3077.4	
238.7	5285.8	
238.91	4912.4	
239.12	3423.5	
239.33	3523.9	
239.54	4675.5	
239.76	4924	
239.97	3458.3	
240.18	3467.2	
240.39	6137.1	
240.6	5192.3	
240.82	3564.8	
241.03	3001.6	
241.24	5021.6	
241.45	5761.6	
241.66	3194.1	
241.87	3743	
242.09	5641.5	
242.3	5913.2	
242.51	3771	
242.72	3514.3	
242.93	5433.3	
243.14	4937	
243.36	3992.9	
243.57	4304.1	
243.78	5708.4	
243.99	5309	
244.2	3461.1	
244.41	3125.2	
244.63	4626.4	
244.84	5240.8	
245.05	3736.2	
245.26	3397.6	
245.47	5204.6	
245.68	5447.6	
245.9	4519.2	
246.11	3629.7	
246.32	4855.7	
246.53	5210	
246.74	5543.2	
246.95	2950.4	
247.16	4657.1	
247.38	5031.2	
247.59	2964.8	
247.8	3497.2	
248.01	4663.2	
248.22	4980.7	
248.43	3217.4	
248.64	3424.2	
248.86	4534.2	
249.07	4775.2	
249.28	3074	
249.49	3590.1	
249.7	5513.1	
249.91	5598.5	
250.12	2962	
250.34	3026.2	
250.55	5143.8	
250.76	5050.3	
250.97	3615.3	
251.18	3550.5	
251.39	5612.8	
251.6	5184.8	
251.81	3672.7	
252.03	3685	
252.24	4812	
252.45	5405.3	
252.66	3093.1	
252.87	3787.4	
253.08	4997	
253.29	6410.1	
253.5	3067.2	
253.72	4167.6	
253.93	4870.1	
254.14	5875.6	
254.35	3313.6	
254.56	3426.3	
254.77	5207.3	
254.98	4669.4	
255.19	3315	
255.41	4133.5	
255.62	5095.3	
255.83	5546.6	
256.04	3729.4	
256.25	3564.8	
256.46	6115.9	
256.67	4737	
256.88	3571	
257.09	3964.2	
257.31	4698	
257.52	4765.6	
257.73	4460.5	
257.94	3292.5	
258.15	4926.7	
258.36	5038	
258.57	4128.7	
258.78	2658.3	
258.99	5464	
259.2	4931.5	
259.41	3323.9	
259.63	3388	
259.84	5707.7	
260.05	6027.2	
260.26	4237.2	
260.47	3257.6	
260.68	5556.8	
260.89	4956.1	
261.1	3940.3	
261.31	3197.6	
261.52	5525.4	
261.73	5850.4	
261.95	4237.2	
262.16	3659.7	
262.37	5625.1	
262.58	5700.2	
262.79	4188.1	
263	3418.1	
263.21	5023	
263.42	4904.9	
263.63	3396.9	
263.84	3359.4	
264.05	5537	
264.26	5760.9	
264.47	4084.3	
264.69	3760.8	
264.9	5625.8	
265.11	5136.3	
265.32	3260.4	
265.53	3225.6	
265.74	5103.5	
265.95	4475.5	
266.16	3457.7	
266.37	3839.9	
266.58	5160.2	
266.79	4831.2	
267	3246.7	
267.21	3079.5	
267.42	4644.8	
267.63	5028.4	
267.84	3418.7	
268.06	2963.4	
268.27	5426.4	
268.48	5601.2	
268.69	3380.5	
268.9	3967.6	
269.11	5595.1	
269.32	4526	
269.53	3500.7	
269.74	3226.2	
269.95	5272.2	
270.16	4473.4	
270.37	3479.5	
270.58	3976.5	
270.79	4917.2	
271	5406	
271.21	3725.9	
271.42	3510.2	
271.63	5172.5	
271.84	4670.1	
272.05	2807.1	
272.26	3159.3	
272.47	4985.4	
272.68	5174.5	
272.89	3287	
273.11	3781.2	
273.32	4831.8	
273.53	5750	
273.74	3716.4	
273.95	3631	
274.16	5442.8	
274.37	5049.6	
274.58	3843.4	
274.79	3067.9	
275	5173.9	
275.21	5570.5	
275.42	4528.7	
275.63	3875.4	
275.84	5309	
276.05	6497.5	
276.26	3654.9	
276.47	3476.1	
276.68	4902.8	
276.89	5863.3	
277.1	3871.3	
277.31	3016	
277.52	5233.2	
277.73	5418.9	
277.94	3033	
278.15	3360	
278.36	5185.5	
278.57	4749.2	
278.78	3359.4	
278.99	3774.4	
279.2	4750.6	
279.41	4665.3	
279.62	4384	
279.83	3118.4	
280.04	6047.7	
280.25	4673.5	
280.46	4304.8	
280.67	3479.5	
280.88	4734.2	
281.09	5612.8	
281.3	3630.4	
281.51	4586.1	
281.72	4796.3	
281.93	5486.5	
282.14	3311.6	
282.35	3561.4	
282.56	5489.9	
282.77	5429.8	
282.98	3358.7	
283.19	4031.8	
283.4	6533	
283.61	4978.6	
283.82	3117	
284.03	4219.5	
284.24	5157.5	
284.45	5505.6	
284.66	4243.4	
284.87	4098.7	
285.08	5469.4	
285.29	5592.3	
285.5	3061	
285.71	3395.5	
285.92	5509.7	
286.12	6055.8	
286.33	4232.5	
286.54	3388.7	
286.75	5389.6	
286.96	4885.8	
287.17	3135.4	
287.38	4142.4	
287.59	4762.2	
287.8	4693.9	
288.01	3386	
288.22	3859.7	
288.43	5362.9	
288.64	4572.4	
288.85	3989.4	
289.06	3738.9	
289.27	5408	
289.48	5817.6	
289.69	4280.9	
289.9	3889.8	
290.11	5580.7	
290.32	4739.7	
290.53	4033.1	
290.74	3715.7	
290.94	5403.9	
291.15	5444.2	
291.36	3264.5	
291.57	3807.2	
291.78	4844.8	
291.99	4539.7	
292.2	3162.1	
292.41	3760.8	
292.62	5458.5	
292.83	5299.5	
293.04	4579.9	
293.25	3177.1	
293.46	4887.8	
293.67	5504.9	
293.88	3229	
294.09	3186.6	
294.29	4642.1	
294.5	5126.7	
294.71	3491.8	
294.92	3327.3	
295.13	4835.9	
295.34	5984.2	
295.55	2975	
295.76	2934.7	
295.97	5376.6	
296.18	5986.2	
296.39	3091.8	
296.6	3316.3	
296.81	5124	
297.01	5402.5	
297.22	3413.3	
297.43	3305.4	
297.64	4788.2	
297.85	4699.4	
298.06	2751.8	
298.27	3007.1	
298.48	4984.8	
298.69	4752.7	
298.9	3516.4	
299.11	3241.3	
299.31	4598.4	
299.52	4709	
299.73	3815.4	
299.94	3680.9	
300.15	5033.2	
300.36	4720.6	
300.57	3708.9	
300.78	3665.9	
300.99	4893.3	
301.2	5079.6	
301.4	3304.1	
301.61	3532.1	
301.82	5358.9	
302.03	5390.3	
302.24	3911.6	
302.45	3129.3	
302.66	5288.5	
302.87	5580	
303.08	3285.6	
303.29	4341	
303.49	4826.4	
303.7	5036	
303.91	2961.4	
304.12	4261.1	
304.33	4588.1	
304.54	5162.2	
304.75	3297.2	
304.96	3125.9	
305.16	5324	
305.37	5937.7	
305.58	2904	
305.79	3010.5	
306	5304.9	
306.21	4528.1	
306.42	3278.8	
306.63	4919.9	
306.83	4876.2	
307.04	5423	
307.25	3600.3	
307.46	3586	
307.67	4392.9	
307.88	5345.2	
308.09	3213.3	
308.29	3361.4	
308.5	5052.3	
308.71	5500.2	
308.92	3487	
309.13	3180.5	
309.34	4908.3	
309.55	4951.3	
309.75	4043.4	
309.96	3730.7	
310.17	5325.4	
310.38	4797.7	
310.59	3844	
310.8	3117	
311.01	4911.7	
311.21	4979.3	
311.42	3134.1	
311.63	3254.2	
311.84	4820.9	
312.05	5061.2	
312.26	3644	
312.46	4005.8	
312.67	4865.3	
312.88	4612	
313.09	3181.9	
313.3	3140.9	
313.51	5675.6	
313.71	6021	
313.92	3213.3	
314.13	3347.1	
314.34	5180	
314.55	4974.5	
314.76	4018.8	
314.96	3535.5	
315.17	5104.9	
315.38	5292.6	
315.59	3176.4	
315.8	3024.2	
316.01	5725.4	
316.21	5797.8	
316.42	3073.3	
316.63	3499.3	
316.84	4891.2	
317.05	5614.2	
317.26	3716.4	
317.46	3332.7	
317.67	4930.1	
317.88	5369.1	
318.09	3979.9	
318.3	2951.8	
318.5	4825	
318.71	5279.7	
318.92	5043.5	
319.13	3647.4	
319.34	5498.1	
319.54	5631.2	
319.75	2973	
319.96	2800.3	
320.17	5297.4	
320.38	5526.8	
320.58	2912.2	
320.79	3457.7	
321	5525.4	
321.21	5612.8	
321.42	3501.3	
321.62	2912.2	
321.83	4739	
322.04	5023.7	
322.25	3360.7	
322.46	3156.6	
322.66	5145.2	
322.87	5317.9	
323.08	3896.6	
323.29	3113.6	
323.5	5952.1	
323.7	4626.4	
323.91	4244.1	
324.12	3872	
324.33	5137	
324.53	5322	
324.74	3728.7	
324.95	3871.3	
325.16	4509.6	
325.37	4870.8	
325.57	3194.1	
325.78	3208.5	
325.99	5155.4	
326.2	4607.2	
326.4	4427	
326.61	2969.6	
326.82	5020.9	
327.03	5124	
327.24	4455	
327.44	4156	
327.65	5284.4	
327.86	4311	
328.07	3688.4	
328.27	3063.8	
328.48	5635.3	
328.69	4678.9	
328.9	4443.4	
329.1	3377.8	
329.31	4952.7	
329.52	5730.2	
329.73	3193.5	
329.93	3582.6	
330.14	5096	
330.35	5221.6	
330.56	5068.7	
330.76	3853.6	
330.97	4910.3	
331.18	5283.1	
331.39	3515	
331.59	2889.7	
331.8	5527.5	
332.01	5669.5	
332.22	3227.6	
332.42	3738.2	
332.63	5163.6	
332.84	4730.8	
333.05	3603.1	
333.25	3247.4	
333.46	4823.6	
333.67	5038	
333.88	3319.1	
334.08	3594.9	
334.29	6653.9	
334.5	5550	
334.7	3105.4	
334.91	4431.8	
335.12	4618.2	
335.33	5322.7	
335.53	3495.9	
335.74	5066.7	
335.95	4880.3	
336.16	4674.8	
336.36	3439.2	
336.57	3975.1	
336.78	4617.5	
336.98	5517.2	
337.19	4280.9	
337.4	3429	
337.61	5997.8	
337.81	4627	
338.02	3224.2	
338.23	4102.1	
338.43	5687.2	
338.64	4777.9	
338.85	3214.6	
339.05	4130.8	
339.26	5665.4	
339.47	4547.9	
339.68	3155.9	
339.88	4577.9	
340.09	5218.2	
340.3	5453.1	
340.5	3711.6	
340.71	2897.9	
340.92	4588.8	
341.13	5577.3	
341.33	3091.1	
341.54	3713	
341.75	5216.2	
341.95	4854.4	
342.16	3564.1	
342.37	3805.8	
342.57	4665.3	
342.78	5028.4	
342.99	3934.8	
343.19	2884.2	
343.4	5410.7	
343.61	5190.9	
343.81	3411.2	
344.02	3113.6	
344.23	5436.7	
344.43	5718.6	
344.64	4016.7	
344.85	3800.3	
345.06	5244.2	
345.26	5524.1	
345.47	3613.3	
345.68	4259.1	
345.88	4511	
346.09	5443.5	
346.3	3761.4	
346.5	2831	
346.71	4990.9	
346.92	4761.5	
347.12	3001	
347.33	3665.9	
347.54	5489.9	
347.74	5776.6	
347.95	3623.5	
348.16	2788.7	
348.36	4866.7	
348.57	4672.8	
348.78	3679.5	
348.98	3865.2	
349.19	5001.1	
349.39	4511	
349.6	2955.2	
349.81	3226.2	
350.01	5249.6	
350.22	4754	
350.43	3517.7	
350.63	4192.2	
350.84	5027.1	
351.05	4840	
351.25	3244.7	
351.46	2918.4	
351.67	5489.9	
351.87	4707.6	
352.08	3406.5	
352.29	3860.4	
352.49	5363.6	
352.7	5500.2	
352.9	3109.5	
353.11	3836.5	
353.32	5993.7	
353.52	4848.2	
353.73	3054.9	
353.94	3935.5	
354.14	5280.3	
354.35	5081.7	
354.55	3179.8	
354.76	3472.7	
354.97	5259.9	
355.17	5055.1	
355.38	3025.5	
355.59	4061.8	
355.79	4696	
356	5055.8	
356.2	3462.4	
356.41	3037.8	
356.62	4491.9	
356.82	4910.3	
357.03	3763.5	
357.24	3388.7	
357.44	4705.5	
357.65	4838.7	
357.85	4366.3	
358.06	3514.3	
358.27	4477.5	
358.47	4716.5	
358.68	2964.8	
358.88	3713.6	
359.09	5206.6	
359.3	5520.6	
359.5	4231.1	
359.71	3804.4	
359.91	5840.1	
360.12	5304.2	
360.33	3627.6	
360.53	4080.9	
360.74	4710.3	
360.94	4751.3	
361.15	3865.2	
361.36	3190.1	
361.56	5410.7	
361.77	4905.6	
361.97	4268.6	
362.18	3379.8	
362.38	5403.9	
362.59	4516.5	
362.8	3147	
363	3026.2	
363.21	4399	
363.41	5053.7	
363.62	3587.4	
363.83	4392.2	
364.03	5138.4	
364.24	5879.7	
364.44	4573.8	
364.65	4472.1	
364.85	4874.8	
365.06	4604.5	
365.27	3291.1	
365.47	3335.5	
365.68	5760.3	
365.88	4827.1	
366.09	3614	
366.29	3353.2	
366.5	5079	
366.71	5429.8	
366.91	4436.6	
367.12	3717.1	
367.32	5941.2	
367.53	5335.6	
367.73	3775.1	
367.94	4468	
368.14	5258.5	
368.35	5970.5	
368.56	3607.2	
368.76	3468.6	
368.97	5399.1	
369.17	6705.7	
369.38	3264.5	
369.58	3515.7	
369.79	4518.5	
369.99	5711.8	
370.2	4376.5	
370.4	3620.1	
370.61	5062.6	
370.82	6167.1	
371.02	3519.1	
371.23	2894.5	
371.43	4519.2	
371.64	5558.9	
371.84	3530	
372.05	4481	
372.25	6609.5	
372.46	5292.6	
372.66	3416.7	
372.87	3450.8	
373.07	5328.8	
373.28	6739.2	
373.48	4320.5	
373.69	4055.7	
373.9	4957.4	
374.1	4919.2	
374.31	4300.7	
374.51	3878.9	
374.72	5612.8	
374.92	4648.9	
375.13	4440.7	
375.33	3716.4	
375.54	5193	
375.74	4751.3	
375.95	3782.6	
376.15	4786.8	
376.36	5274.2	
376.56	5046.2	
376.77	3786.7	
376.97	4226.3	
377.18	6170.5	
377.38	5369.1	
377.59	4459.8	
377.79	3381.9	
378	5072.8	
378.2	5423	
378.41	3439.2	
378.61	3314.3	
378.82	5556.1	
379.02	4762.2	
379.23	3590.1	
379.43	4487.1	
379.64	5670.1	
379.84	5238	
380.05	3430.3	
380.25	3377.8	
380.46	5357.5	
380.66	5053	
380.87	4573.8	
381.07	4835.3	
381.28	5914.5	
381.48	5343.8	
381.69	3450.1	
381.89	3472.7	
382.1	4521.9	
382.3	5438.7	
382.51	4399.7	
382.71	5166.3	
382.91	5381.4	
383.12	5838.8	
383.32	3764.8	
383.53	3960.1	
383.73	5202.5	
383.94	5062.6	
384.14	3975.8	
384.35	3169.6	
384.55	5026.4	
384.76	5401.9	
384.96	3759.4	
385.17	4059.1	
385.37	5384.8	
385.58	4677.6	
385.78	4085	
385.98	3093.8	
386.19	4946.5	
386.39	5241.4	
386.6	3613.3	
386.8	3777.1	
387.01	5324	
387.21	5397.1	
387.42	4087.1	
387.62	4557.4	
387.83	4899.4	
388.03	5247.6	
388.23	3750.5	
388.44	4444.8	
388.64	4468	
388.85	4650.9	
389.05	4095.9	
389.26	4525.3	
389.46	6230.6	
389.67	5678.3	
389.87	4030.4	
390.07	4106.2	
390.28	5080.3	
390.48	4653	
390.69	3394.2	
390.89	3715.7	
391.1	4848.2	
391.3	5634	
391.5	4650.9	
391.71	5195	
391.91	5399.1	
392.12	6186.2	
392.32	4725.3	
392.53	4072.7	
392.73	4954	
392.93	5087.2	
393.14	3848.1	
393.34	4546.5	
393.55	5462.6	
393.75	5026.4	
393.95	3819.5	
394.16	3781.9	
394.36	4900.8	
394.57	5464	
394.77	3390.8	
394.98	3684.3	
395.18	4782.7	
395.38	4996.4	
395.59	4455.7	
395.79	3528.7	
396	4917.2	
396.2	5386.8	
396.4	4269.3	
396.61	4168.3	
396.81	5539.1	
397.02	4863.9	
397.22	4460.5	
397.42	4509.6	
397.63	5409.4	
397.83	4820.2	
398.04	3503.4	
398.24	3945.1	
398.44	5253.7	
398.65	4462.5	
398.85	3380.5	
399.05	3478.1	
399.26	4756.7	
399.46	6237.4	
399.67	3833.1	
399.87	3566.2	
400.07	5053.7	
400.28	5361.6	
400.48	3576.4	
400.69	4564.2	
400.89	5568.4	
401.09	5937.7	
401.3	3540.9	
401.5	4505.5	
401.7	6096.1	
401.91	6319.3	
402.11	3861.8	
402.32	3969.6	
402.52	5612.1	
402.72	5504.3	
402.93	4256.4	
403.13	3371	
403.33	6256.5	
403.54	5168.4	
403.74	4024.3	
403.94	4691.9	
404.15	5237.3	
404.35	6229.2	
404.56	3781.9	
404.76	5313.8	
404.96	5562.3	
405.17	5408.7	
405.37	4755.4	
405.57	4182	
405.78	5537	
405.98	5139.7	
406.18	3787.4	
406.39	4582.7	
406.59	5576.6	
406.79	5219.6	
407	3596.9	
407.2	3685.7	
407.4	5664.7	
407.61	5688.6	
407.81	3635.1	
408.01	5649	
408.22	4730.1	
408.42	6267.5	
408.62	4539	
408.83	4018.1	
409.03	5139	
409.23	4994.3	
409.44	4155.3	
409.64	4381.3	
409.84	5894.1	
410.05	5866.1	
410.25	4252.3	
410.45	4089.8	
410.66	5385.5	
410.86	7525.6	
411.06	4427.7	
411.27	4214	
411.47	7242.3	
411.67	5538.4	
411.88	4496.7	
412.08	4593.6	
412.28	6047	
412.49	6468.2	
412.69	4247.5	
412.89	4249.5	
413.09	6366.5	
413.3	6169.2	
413.5	4419.5	
413.7	3994.9	
413.91	5614.8	
414.11	6370.5	
414.31	4185.4	
414.52	4531.5	
414.72	6074.3	
414.92	5953.4	
415.12	4166.3	
415.33	4662.5	
415.53	6303.6	
415.73	6452.5	
415.94	4967.7	
416.14	4363.5	
416.34	5440.8	
416.55	5150	
416.75	5402.5	
416.95	4896.7	
417.15	6268.8	
417.36	6830	
417.56	5536.3	
417.76	4805.2	
417.97	6539.2	
418.17	6264.7	
418.37	4486.4	
418.57	4563.6	
418.78	6112.5	
418.98	5847.6	
419.18	5290.6	
419.38	5248.9	
419.59	5906.3	
419.79	5572.5	
419.99	4386.7	
420.2	4666.6	
420.4	6344.6	
420.6	6384.9	
420.8	4326.7	
421.01	4174.4	
421.21	6111.8	
421.41	6287.3	
421.61	4712.4	
421.82	4485.7	
422.02	5747.3	
422.22	6551.5	
422.42	5086.5	
422.63	4848.2	
422.83	5861.3	
423.03	6907.1	
423.23	4849.6	
423.44	3994.9	
423.64	5938.4	
423.84	5677	
424.04	4399.7	
424.25	4116.4	
424.45	6754.9	
424.65	6667.5	
424.85	3924.6	
425.06	4382	
425.26	6689.3	
425.46	5801.2	
425.66	4807.9	
425.87	4513	
426.07	6484.6	
426.27	6314.6	
426.47	4679.6	
426.67	4148.5	
426.88	6777.4	
427.08	6320	
427.28	4844.8	
427.48	4104.8	
427.69	5426.4	
427.89	5918.6	
428.09	4874.2	
428.29	4106.9	
428.5	6498.9	
428.7	6126.8	
428.9	4077.5	
429.1	4478.9	
429.3	6029.2	
429.51	6311.2	
429.71	4336.2	
429.91	5019.6	
430.11	6286.6	
430.31	6479.8	
430.52	4565.6	
430.72	4769	
430.92	6791.1	
431.12	6352.1	
431.32	4237.2	
431.53	4724	
431.73	5317.9	
431.93	6768.5	
432.13	4188.8	
432.33	4124.6	
432.54	5752.1	
432.74	6104.3	
432.94	4029	
433.14	4926.7	
433.34	6259.3	
433.55	5829.2	
433.75	4859.8	
433.95	6335.7	
434.15	6103.6	
434.35	5849.7	
434.56	4164.9	
434.76	3794.2	
434.96	6028.5	
435.16	6182.8	
435.36	4131.4	
435.56	5068.7	
435.77	5685.2	
435.97	5937.7	
436.17	5634.6	
436.37	4984.8	
436.57	5694	
436.78	5622.4	
436.98	6524.1	
437.18	5522	
437.38	6221	
437.58	5877	
437.78	5622.4	
437.99	4454.3	
438.19	6404	
438.39	7081.2	
438.59	4420.9	
438.79	4024.9	
438.99	6944.7	
439.2	5844.2	
439.4	4076.1	
439.6	4076.1	
439.8	6126.2	
440	7021.8	
440.2	4921.3	
440.4	4962.9	
440.61	6402.6	
440.81	6911.9	
441.01	4232.5	
441.21	5077.6	
441.41	6778.1	
441.61	6453.8	
441.81	5247.6	
442.02	6173.9	
442.22	7266.9	
442.42	6528.9	
442.62	4255	
442.82	4382	
443.02	6852.5	
443.22	6082.5	
443.43	4727.4	
443.63	4233.8	
443.83	5890	
444.03	5914.5	
444.23	5341.1	
444.43	5072.8	
444.63	6280.4	
444.83	7193.1	
445.04	4325.3	
445.24	5528.8	
445.44	6548.7	
445.64	6620.4	
445.84	5116.5	
446.04	5184.1	
446.24	5997.8	
446.44	6832.7	
446.65	4418.8	
446.85	4793.6	
447.05	6120	
447.25	6835.4	
447.45	4856.4	
447.65	4390.8	
447.85	6322.1	
448.05	5958.9	
448.25	5204.6	
448.46	5029.1	
448.66	6325.5	
448.86	5975.3	
449.06	4244.1	
449.26	5129.5	
449.46	6498.9	
449.66	5740.5	
449.86	4691.2	
450.06	4719.9	
450.26	5886.5	
450.47	6424.5	
450.67	5057.8	
450.87	5236	
451.07	6589	
451.27	6270.9	
451.47	4423.6	
451.67	4847.5	
451.87	6028.5	
452.07	6998.6	
452.27	4566.3	
452.47	4555.4	
452.67	6365.8	
452.88	6623.8	
453.08	4070	
453.28	5736.4	
453.48	7306.5	
453.68	6262	
453.88	4509.6	
454.08	4589.5	
454.28	6516.6	
454.48	6220.4	
454.68	5156.1	
454.88	5595.1	
455.08	6680.5	
455.28	6354.8	
455.48	4367	
455.68	4947.9	
455.89	7060	
456.09	6782.2	
456.29	4707.6	
456.49	4704.2	
456.69	6893.5	
456.89	6257.2	
457.09	5092.6	
457.29	5410.7	
457.49	6577.4	
457.69	6608.8	
457.89	4969.7	
458.09	4432.5	
458.29	6314.6	
458.49	6955.6	
458.69	5298.1	
458.89	4842.8	
459.09	7178.8	
459.29	7228	
459.49	4967.7	
459.69	5609.4	
459.9	6838.2	
460.1	6326.2	
460.3	4807.3	
460.5	4610.7	
460.7	6763.8	
460.9	6459.3	
461.1	4337.6	
461.3	5416.2	
461.5	7245.7	
461.7	6972	
461.9	4687.1	
462.1	5050.3	
462.3	6513.9	
462.5	7002.7	
462.7	4787.5	
462.9	4859.1	
463.1	7839.6	
463.3	7576.8	
463.5	4986.8	
463.7	5745.9	
463.9	6650.4	
464.1	7001.3	
464.3	5076.9	
464.5	5314.5	
464.7	7185.6	
464.9	6873	
465.1	6460.7	
465.3	5642.8	
465.5	7453.9	
465.7	7538.6	
465.9	5813.5	
466.1	5670.8	
466.3	7275.1	
466.5	7226.6	
466.7	6371.2	
466.9	5371.8	
467.1	7146	
467.3	7915.4	
467.5	6318	
467.7	5392.3	
467.9	8063.5	
468.1	8890.9	
468.3	6044.2	
468.5	6365.1	
468.7	7101	
468.9	7041.6	
469.1	5585.5	
469.3	6201.2	
469.5	8797.4	
469.7	6793.8	
469.9	6087.9	
470.1	5367.7	
470.3	7190.4	
470.5	7137.2	
470.7	6475	
470.9	5537.7	
471.1	6894.1	
471.3	7322.9	
471.5	5367	
471.69	6989.7	
471.89	6871.6	
472.09	6382.8	
472.29	6137.8	
472.49	6378.7	
472.69	6712.6	
472.89	7374.7	
473.09	5257.8	
473.29	5456.5	
473.49	6785.6	
473.69	6901.7	
473.89	6231.3	
474.09	5499.5	
474.29	8013	
474.49	7668.3	
474.69	6175.3	
474.89	5595.7	
475.09	6978.8	
475.29	6930.3	
475.49	5256.5	
475.69	5421	
475.88	8282	
476.08	7281.9	
476.28	5069.4	
476.48	5530.2	
476.68	7661.5	
476.88	7393.8	
477.08	5415.5	
477.28	5635.3	
477.48	7088	
477.68	7615.7	
477.88	5273.5	
478.08	5567.7	
478.28	7869.7	
478.48	7141.3	
478.67	5612.1	
478.87	5008	
479.07	7791.8	
479.27	7343.3	
479.47	5773.9	
479.67	5797.8	
479.87	7571.3	
480.07	7993.2	
480.27	5102.9	
480.47	6449.1	
480.67	7256	
480.87	7809.6	
481.06	5382.7	
481.26	6145.3	
481.46	7181.5	
481.66	7172	
481.86	5806	
482.06	6623.1	
482.26	6993.1	
482.46	7750.9	
482.66	5724.1	
482.86	5340.4	
483.05	7349.5	
483.25	6771.9	
483.45	7791.8	
483.65	5696.8	
483.85	6887.3	
484.05	7204.1	
484.25	6145.3	
484.45	6493.4	
484.65	7924.3	
484.84	7959.8	
485.04	5666	
485.24	5601.9	
485.44	8210.3	
485.64	6660	
485.84	5046.2	
486.04	6264.7	
486.24	6999.3	
486.44	7385	
486.63	5023	
486.83	5698.8	
487.03	6920.8	
487.23	7191.8	
487.43	5160.2	
487.63	7101	
487.83	7191.8	
488.02	8049.2	
488.22	5854.5	
488.42	6479.1	
488.62	7910.6	
488.82	6940.6	
489.02	5705.6	
489.22	5627.8	
489.41	7743.4	
489.61	7509.9	
489.81	5479.7	
490.01	5560.2	
490.21	7700.4	
490.41	8335.2	
490.61	5425.1	
490.8	5616.2	
491	7406.8	
491.2	6821.8	
491.4	6118.6	
491.6	5345.2	
491.8	7381.6	
491.99	7426.6	
492.19	5187.5	
492.39	5379.3	
492.59	7735.2	
492.79	7772	
492.99	6162.3	
493.18	5428.5	
493.38	7860.1	
493.58	8413.7	
493.78	6033.3	
493.98	5724.8	
494.18	7558.4	
494.37	7135.8	
494.57	6285.9	
494.77	6118	
494.97	7741.3	
495.17	7901.1	
495.37	5745.2	
495.56	6020.3	
495.76	8224	
495.96	7834.2	
496.16	6829.3	
496.36	5938.4	
496.55	8060.1	
496.75	7623.2	
496.95	6274.3	
497.15	6109.8	
497.35	8060.1	
497.54	7945.4	
497.74	6026.5	
497.94	7416.4	
498.14	8596	
498.34	8388.5	
498.53	5705.6	
498.73	6442.2	
498.93	7389.1	
499.13	7963.9	
499.33	6257.2	
499.52	6683.9	
499.72	7957.7	
499.92	8187.1	
500.12	5909.1	
500.32	6220.4	
500.51	8150.2	
500.71	8030.1	
500.91	6883.9	
501.11	6474.3	
501.31	8109.3	
501.5	8505.2	
501.7	7119.4	
501.9	6246.3	
502.1	7940.7	
502.29	8285.4	
502.49	6576.7	
502.69	6980.8	
502.89	8093.6	
503.09	8129.8	
503.28	5893.4	
503.48	5894.7	
503.68	7567.2	
503.88	7507.2	
504.07	6754.9	
504.27	6320	
504.47	7884.7	
504.67	8006.9	
504.86	6703	
505.06	6435.4	
505.26	7684	
505.46	9149	
505.65	6308.4	
505.85	6519.4	
506.05	7591.8	
506.25	7978.9	
506.44	5877.7	
506.64	6511.9	
506.84	7517.4	
507.04	8245.8	
507.23	6052.4	
507.43	6465.4	
507.63	9176.3	
507.83	7680.6	
508.02	6480.5	
508.22	6101.6	
508.42	9417.2	
508.62	7428.7	
508.81	6354.2	
509.01	6848.4	
509.21	7342	
509.4	7690.8	
509.6	6467.5	
509.8	6010.8	
510	7638.2	
510.19	8804.9	
510.39	5921.4	
510.59	5961.6	
510.79	7490.1	
510.98	8595.3	
511.18	6085.9	
511.38	6222.4	
511.57	8175.5	
511.77	7975.5	
511.97	6739.2	
512.17	6004.6	
512.36	8181.6	
512.56	8120.9	
512.76	5900.2	
512.95	5752.1	
513.15	8270.4	
513.35	7060.7	
513.55	6683.9	
513.74	6000.5	
513.94	8204.2	
514.14	7735.9	
514.33	6771.3	
514.53	6601.3	
514.73	7717.4	
514.92	7757.7	
515.12	6110.5	
515.32	5981.4	
515.51	7875.8	
515.71	8322.9	
515.91	7384.3	
516.11	5954.8	
516.3	9289.6	
516.5	7533.1	
516.7	6531	
516.89	6873	
517.09	7687.4	
517.29	7614.3	
517.48	6787.7	
517.68	6251.8	
517.88	7441.6	
518.07	7942	
518.27	6577.4	
518.47	5817.6	
518.66	8464.9	
518.86	7316	
519.06	5801.2	
519.25	6089.3	
519.45	7557	
519.65	8809.7	
519.84	6643.6	
520.04	7255.3	
520.24	9219.3	
520.43	8152.3	
520.63	6499.6	
520.83	6160.3	
521.02	7419.8	
521.22	8032.1	
521.42	6664.8	
521.61	7066.2	
521.81	7589.1	
522.01	7862.2	
522.2	6440.9	
522.4	6297.5	
522.6	8272.4	
522.79	7140.6	
522.99	6405.4	
523.18	5827.2	
523.38	7987.8	
523.58	7914	
523.77	7417.7	
523.97	5789.6	
524.17	9482.1	
524.36	8846.5	
524.56	7012.2	
524.76	6638.8	
524.95	7993.2	
525.15	7695.6	
525.34	6496.2	
525.54	6516.6	
525.74	8333.2	
525.93	7473.7	
526.13	7458.7	
526.33	6501.6	
526.52	8541.4	
526.72	8090.8	
526.91	7495.6	
527.11	6898.9	
527.31	8568	
527.5	9017.2	
527.7	6847	
527.89	5965.1	
528.09	7678.5	
528.29	8088.1	
528.48	7117.4	
528.68	6862.7	
528.87	8558.5	
529.07	8593.3	
529.27	6946	
529.46	6366.5	
529.66	8232.8	
529.85	8736.6	
530.05	6251.1	
530.25	6946.7	
530.44	9394	
530.64	8155	
530.83	6573.3	
531.03	6802	
531.23	8622.6	
531.42	8373.5	
531.62	7336.5	
531.81	6703.7	
532.01	8656.8	
532.21	9037	
532.4	6528.9	
532.6	6890.7	
532.79	9387.2	
532.99	8694.3	
533.18	6916.7	
533.38	7718.8	
533.58	8279.9	
533.77	8926.4	
533.97	6828.6	
534.16	7518.8	
534.36	9200.8	
534.55	8258.8	
534.75	7692.9	
534.95	6900.3	
535.14	9129.8	
535.34	8393.9	
535.53	6703.7	
535.73	8387.8	
535.92	9581.8	
536.12	8462.2	
536.31	6757.6	
536.51	7789.8	
536.71	8839.7	
536.9	8462.9	
537.1	6832.7	
537.29	6949.4	
537.49	9088.9	
537.68	8314.1	
537.88	7324.9	
538.07	6642.9	
538.27	8426	
538.46	9336.7	
538.66	6534.4	
538.86	6879.1	
539.05	8581.7	
539.25	8903.9	
539.44	7283.9	
539.64	6864.1	
539.83	8468.4	
540.03	9271.2	
540.22	6660	
540.42	6801.3	
540.61	8663.6	
540.81	8710	
541	7212.3	
541.2	7765.2	
541.39	8248.5	
541.59	8584.4	
541.78	7516.7	
541.98	6771.3	
542.18	8030.8	
542.37	7960.5	
542.57	7025.9	
542.76	7509.9	
542.96	7988.4	
543.15	8662.9	
543.35	7059.3	
543.54	6617.7	
543.74	8866.3	
543.93	8492.2	
544.13	7084.6	
544.32	7968	
544.52	8791.9	
544.71	8092.2	
544.91	6376	
545.1	7367.9	
545.3	8157.1	
545.49	8709.3	
545.69	6298.9	
545.88	6724.8	
546.08	9516.9	
546.27	9044.5	
546.47	7230	
546.66	6621.1	
546.86	8921	
547.05	9357.2	
547.24	6814.3	
547.44	6652.5	
547.63	8034.9	
547.83	8986.5	
548.02	7077.1	
548.22	7212.9	
548.41	7865.6	
548.61	9108	
548.8	6607.4	
549	6497.5	
549.19	8406.2	
549.39	8743.5	
549.58	6386.2	
549.78	6824.5	
549.97	8662.9	
550.17	8312.7	
550.36	7535.2	
550.55	8427.4	
550.75	8347.5	
550.94	9067	
551.14	6543.3	
551.33	6825.2	
551.53	7742.7	
551.72	8548.9	
551.92	6890.7	
552.11	6735.8	
552.31	8656.8	
552.5	8640.4	
552.69	8123.6	
552.89	6363.7	
553.08	8563.2	
553.28	8336.6	
553.47	6711.9	
553.67	7690.1	
553.86	9182.4	
554.06	7690.1	
554.25	6031.3	
554.44	6462	
554.64	9836.4	
554.83	9365.4	
555.03	6500.9	
555.22	6817	
555.42	8791.9	
555.61	8467.7	
555.8	6604	
556	6862.7	
556.19	7784.3	
556.39	8852	
556.58	6741.2	
556.78	6756.2	
556.97	8480	
557.16	8250.6	
557.36	7746.8	
557.55	6486.6	
557.75	7496.2	
557.94	9144.9	
558.13	6567.8	
558.33	6251.1	
558.52	8917.5	
558.72	7922.2	
558.91	6396.5	
559.1	6597.9	
559.3	7687.4	
559.49	7545.4	
559.69	6077	
559.88	6842.9	
560.07	8372.1	
560.27	8749.6	
560.46	7017.7	
560.66	7165.8	
560.85	8324.3	
561.04	7508.5	
561.24	6341.9	
561.43	6531.7	
561.63	7746.8	
561.82	7972.1	
562.01	7551.5	
562.21	6781.5	
562.4	8338.6	
562.59	9071.8	
562.79	6699.6	
562.98	6381.5	
563.18	8284	
563.37	9555.1	
563.56	7092.8	
563.76	6313.9	
563.95	7846.5	
564.14	7776.1	
564.34	6643.6	
564.53	6494.8	
564.73	8258.8	
564.92	8546.2	
565.11	6792.4	
565.31	6229.2	
565.5	8852.7	
565.69	7869.7	
565.89	6470.9	
566.08	6693.4	
566.27	8790.6	
566.47	9095.7	
566.66	7238.9	
566.85	6115.2	
567.05	8400.1	
567.24	7913.4	
567.44	6404	
567.63	7583.6	
567.82	8634.9	
568.02	8348.9	
568.21	6365.1	
568.4	6730.3	
568.6	8200.1	
568.79	8271.7	
568.98	6262	
569.18	6375.3	
569.37	8230.1	
569.56	9910.1	
569.76	6736.5	
569.95	7522.9	
570.14	8571.4	
570.34	8429.4	
570.53	6382.8	
570.72	6408.1	
570.91	8929.8	
571.11	8145.5	
571.3	6731	
571.49	7570	
571.69	8311.3	
571.88	7849.9	
572.07	7140.6	
572.27	7143.3	
572.46	7803.4	
572.65	8767.4	
572.85	6505	
573.04	6847	
573.23	8998.8	
573.43	8342.7	
573.62	6351.4	
573.81	6903	
574	8375.5	
574.2	8234.9	
574.39	6625.2	
574.58	6767.9	
574.78	9118.9	
574.97	8478.6	
575.16	7114.6	
575.36	7266.9	
575.55	8770.1	
575.74	8890.2	
575.93	6371.2	
576.13	7295.5	
576.32	8335.2	
576.51	8798.1	
576.71	6808.1	
576.9	7949.5	
577.09	9106	
577.28	8708	
577.48	7092.1	
577.67	6331.6	
577.86	8338	
578.05	8560.5	
578.25	6842.3	
578.44	7001.3	
578.63	8426	
578.83	9503.9	
579.02	6477.7	
579.21	7669.6	
579.4	8631.5	
579.6	8343.4	
579.79	7034.1	
579.98	8852.7	
580.17	8915.5	
580.37	8938	
580.56	6516.6	
580.75	7100.3	
580.94	9270.5	
581.14	9260.9	
581.33	7559.7	
581.52	6767.2	
581.71	8763.9	
581.91	9417.2	
582.1	6472.9	
582.29	6870.3	
582.48	8489.5	
582.68	8471.8	
582.87	7413.6	
583.06	6993.8	
583.25	8809	
583.45	8219.9	
583.64	7549.5	
583.83	8198.7	
584.02	8366	
584.21	8784.4	
584.41	7574.8	
584.6	6965.1	
584.79	8555	
584.98	9073.2	
585.18	6535.1	
585.37	6549.4	
585.56	8174.1	
585.75	8798.8	
585.94	6756.9	
586.14	7285.3	
586.33	9256.8	
586.52	8473.1	
586.71	7142.6	
586.91	6847	
587.1	7988.4	
587.29	8828.1	
587.48	6900.3	
587.67	6753.5	
587.87	8757.8	
588.06	8745.5	
588.25	7927.7	
588.44	7367.2	
588.63	8449.9	
588.83	8879.3	
589.02	6925.5	
589.21	6787	
589.4	8354.3	
589.59	8160.5	
589.78	6133	
589.98	6391.7	
590.17	7890.1	
590.36	8228.7	
590.55	5896.1	
590.74	6582.2	
590.94	9441.1	
591.13	8190.5	
591.32	6320.7	
591.51	5941.8	
591.7	8474.5	
591.89	8200.7	
592.09	6021	
592.28	6440.2	
592.47	7488.7	
592.66	9096.4	
592.85	6094.8	
593.05	6244.3	
593.24	7998.7	
593.43	8666.3	
593.62	6286.6	
593.81	6707.1	
594	8101.1	
594.19	8155	
594.39	6213.5	
594.58	6114.6	
594.77	8317.5	
594.96	8848.6	
595.15	6204	
595.34	6717.3	
595.54	8261.5	
595.73	7638.2	
595.92	5638.1	
596.11	6575.3	
596.3	8772.8	
596.49	7584.3	
596.68	6461.3	
596.88	6787.7	
597.07	8530.5	
597.26	7478.5	
597.45	6001.2	
597.64	7098.9	
597.83	7709.2	
598.02	8271.1	
598.22	6091.3	
598.41	6690	
598.6	8124.3	
598.79	7579.5	
598.98	6116.6	
599.17	6879.8	
599.36	8131.8	
599.55	9028.8	
599.74	7722.2	
599.94	7579.5	
600.13	8546.9	
600.32	7588.4	
600.51	5803.3	
600.7	6004.6	
600.89	9109.4	
601.08	9067	
601.27	5824.4	
601.47	6647.7	
601.66	8418.5	
601.85	8978.3	
602.04	6362.4	
602.23	6608.8	
602.42	7636.9	
602.61	8306.6	
602.8	6306.4	
602.99	6143.9	
603.18	7947.5	
603.37	8103.8	
603.57	6627.2	
603.76	7053.2	
603.95	8725	
604.14	8357.8	
604.33	6115.2	
604.52	6485.9	
604.71	8007.6	
604.9	7770	
605.09	7248.4	
605.28	6873.7	
605.47	8596.7	
605.66	8329.1	
605.86	6695.5	
606.05	6212.9	
606.24	8604.9	
606.43	7404.1	
606.62	6470.2	
606.81	7133.1	
607	8517.5	
607.19	7774.1	
607.38	6042.9	
607.57	6201.2	
607.76	7649.8	
607.95	7253.9	
608.14	6537.8	
608.33	7015	
608.52	7643.7	
608.72	8492.9	
608.91	5884.5	
609.1	5807.4	
609.29	7806.9	
609.48	7405.5	
609.67	6685.3	
609.86	5924.1	
610.05	7464.8	
610.24	7708.6	
610.43	5741.1	
610.62	5398.4	
610.81	8696.4	
611	8428.1	
611.19	5857.2	
611.38	6434	
611.57	7929.7	
611.76	9015.2	
611.95	5700.9	
612.14	5574.6	
612.33	7864.2	
612.52	7387	
612.71	6164.4	
612.9	5502.9	
613.09	7141.3	
613.28	9058.2	
613.47	6100.9	
613.66	6776.7	
613.85	7870.3	
614.04	7456	
614.24	5931.6	
614.43	5348.6	
614.62	8004.1	
614.81	7910.6	
615	6398.5	
615.19	6430.6	
615.38	7438.2	
615.57	7647.8	
615.76	6322.1	
615.95	7116.7	
616.14	8044.4	
616.33	7749.5	
616.52	6609.5	
616.71	6802	
616.9	7936.6	
617.09	7874.4	
617.28	6084.5	
617.47	7122.8	
617.66	7292.8	
617.85	7221.8	
618.04	6750.1	
618.22	6374.6	
618.41	7611.6	
618.6	8318.2	
618.79	6311.2	
618.98	6032	
619.17	8594.6	
619.36	7159	
619.55	6150.1	
619.74	6210.1	
619.93	8014.4	
620.12	7520.1	
620.31	6747.4	
620.5	6817	
620.69	8512	
620.88	8749.6	
621.07	7407.5	
621.26	6542.6	
621.45	8140.7	
621.64	8198	
621.83	6711.2	
622.02	5991	
622.21	8241	
622.4	7907.9	
622.59	7101.7	
622.78	6950.8	
622.97	7673.1	
623.16	8509.3	
623.35	6693.4	
623.54	5960.3	
623.72	7819.8	
623.91	7961.8	
624.1	6830	
624.29	5824.4	
624.48	8877.9	
624.67	8256.7	
624.86	6739.9	
625.05	6062	
625.24	8897.1	
625.43	7619.1	
625.62	8221.9	
625.81	6219	
626	8512.7	
626.19	7845.1	
626.38	6839.5	
626.56	6424.5	
626.75	7713.3	
626.94	8398	
627.13	6922.1	
627.32	5816.9	
627.51	8325.7	
627.7	9429.5	
627.89	5964.4	
628.08	6888.7	
628.27	7610.9	
628.46	7796.6	
628.65	6212.2	
628.83	5743.2	
629.02	8240.3	
629.21	7571.3	
629.4	6539.8	
629.59	6653.9	
629.78	7572.7	
629.97	8420.6	
630.16	6738.5	
630.35	6289.3	
630.54	8827.4	
630.72	8591.9	
630.91	6313.2	
631.1	6724.8	
631.29	8086.7	
631.48	8251.3	
631.67	6789.7	
631.86	6358.3	
632.05	7776.1	
632.24	7909.3	
632.42	6096.1	
632.61	6546.7	
632.8	7892.9	
632.99	7546.1	
633.18	6558.3	
633.37	6926.2	
633.56	8076.5	
633.75	8011	
633.93	6537.1	
634.12	6268.1	
634.31	8793.3	
634.5	8419.2	
634.69	6315.3	
634.88	6821.1	
635.07	7894.2	
635.25	8381	
635.44	7107.8	
635.63	7292.8	
635.82	7750.9	
636.01	7388.4	
636.2	7001.3	
636.39	6567.8	
636.57	8731.9	
636.76	8344.8	
636.95	6135	
637.14	7290.1	
637.33	8129.8	
637.52	8951	
637.7	6087.2	
637.89	6793.1	
638.08	7833.5	
638.27	9007.6	
638.46	6902.3	
638.65	7248.4	
638.83	9019.9	
639.02	7666.9	
639.21	6771.3	
639.4	7197.2	
639.59	8039.6	
639.78	7712	
639.96	6203.3	
640.15	6139.8	
640.34	7979.6	
640.53	8066.3	
640.72	5943.9	
640.91	6241.5	
641.09	7456	
641.28	8552.3	
641.47	6200.6	
641.66	6901	
641.85	8031.5	
642.03	8243.1	
642.22	6731.7	
642.41	6293.4	
642.6	7557.7	
642.79	6995.9	
642.97	6095.4	
643.16	6728.3	
643.35	7430.7	
643.54	7374.1	
643.73	6120	
643.91	6653.2	
644.1	7301	
644.29	7770.7	
644.48	6067.4	
644.67	6097.5	
644.85	7311.2	
645.04	7705.8	
645.23	5778	
645.42	6041.5	
645.6	7390.4	
645.79	8310	
645.98	6015.6	
646.17	5203.9	
646.36	7090.1	
646.54	7562.5	
646.73	6652.5	
646.92	5671.5	
647.11	7193.8	
647.29	8086.1	
647.48	5748.6	
647.67	5527.5	
647.86	8270.4	
648.05	8284.7	
648.23	6004.6	
648.42	7034.1	
648.61	7804.8	
648.8	7588.4	
648.98	5640.1	
649.17	6031.3	
649.36	7191.8	
649.55	6762.4	
649.73	5730.2	
649.92	6347.3	
650.11	7128.3	
650.3	7422.5	
650.48	5767.8	
650.67	5647.6	
650.86	7656	
651.05	6645.7	
651.23	5762.3	
651.42	5812.1	
651.61	7176.1	
651.79	7218.4	
651.98	6001.2	
652.17	5597.1	
652.36	7522.2	
652.54	6810.9	
652.73	5627.8	
652.92	5505.6	
653.11	7536.5	
653.29	7658.7	
653.48	5080.3	
653.67	5905	
653.85	7292.1	
654.04	8186.4	
654.23	6075.6	
654.42	5674.2	
654.6	6996.5	
654.79	7557.7	
654.98	5186.8	
655.16	5745.9	
655.35	6624.5	
655.54	6567.8	
655.73	5323.4	
655.91	5167.7	
656.1	7494.2	
656.29	6432	
656.47	4760.8	
656.66	6278.4	
656.85	6799.3	
657.03	6791.7	
657.22	5335	
657.41	5363.6	
657.59	6862.1	
657.78	6651.8	
657.97	5144.5	
658.16	5782.8	
658.34	7408.2	
658.53	7767.9	
658.72	6409.5	
658.9	6875.7	
659.09	7035.5	
659.28	7028.6	
659.46	5477.6	
659.65	5429.2	
659.84	6784.2	
660.02	7266.9	
660.21	5271.5	
660.4	5255.8	
660.58	7563.8	
660.77	7030.7	
660.96	5851.7	
661.14	4954	
661.33	7946.8	
661.52	7920.9	
661.7	4951.3	
661.89	8136.6	
662.08	6691.4	
662.26	6360.3	
662.45	5212.1	
662.64	5395.7	
662.82	7333.1	
663.01	6655.9	
663.2	5352	
663.38	5975.3	
663.57	7273.7	
663.75	7126.9	
663.94	5642.2	
664.13	6688	
664.31	6710.5	
664.5	7258	
664.69	5879	
664.87	6191	
665.06	6544.6	
665.25	7075.7	
665.43	6507.8	
665.62	6528.2	
665.8	7351.5	
665.99	6805.4	
666.18	5581.4	
666.36	5668.8	
666.55	7342.7	
666.74	7262.1	
666.92	5341.1	
667.11	6632.7	
667.29	6806.8	
667.48	7335.1	
667.67	6381.5	
667.85	5504.9	
668.04	6881.9	
668.22	6789	
668.41	5684.5	
668.6	5846.3	
668.78	6662.7	
668.97	6846.4	
669.15	6003.3	
669.34	5043.5	
669.53	6713.9	
669.71	6969.9	
669.9	5279.7	
670.08	5837.4	
670.27	6623.1	
670.46	7200	
670.64	5980.8	
670.83	6104.3	
671.01	6532.3	
671.2	7096.9	
671.38	5298.1	
671.57	5206.6	
671.76	7626	
671.94	8035.5	
672.13	5221	
672.31	5971.2	
672.5	7279.2	
672.69	6690	
672.87	5275.6	
673.06	5599.1	
673.24	7188.4	
673.43	6720.1	
673.61	5952.1	
673.8	5505.6	
673.98	7202.7	
674.17	7430	
674.36	6068.1	
674.54	5842.9	
674.73	7018.4	
674.91	7299	
675.1	5612.1	
675.28	5261.9	
675.47	6875	
675.65	7286	
675.84	5610.1	
676.03	5853.1	
676.21	6712.6	
676.4	6267.5	
676.58	6211.5	
676.77	5963.7	
676.95	7931.1	
677.14	6693.4	
677.32	5279	
677.51	5143.8	
677.69	7283.3	
677.88	6378.1	
678.06	5187.5	
678.25	5343.8	
678.44	6817	
678.62	6591.7	
678.81	5122	
678.99	5831.9	
679.18	7534.5	
679.36	7214.3	
679.55	5504.3	
679.73	6046.3	
679.92	7205.4	
680.1	6693.4	
680.29	6496.8	
680.47	5485.8	
680.66	6601.3	
680.84	7362.4	
681.03	4998.4	
681.21	5776.6	
681.4	6674.3	
681.58	6554.9	
681.77	5339.1	
681.95	5261.9	
682.14	7432.8	
682.32	7628	
682.51	6062.7	
682.69	5058.5	
682.88	6610.8	
683.06	7092.1	
683.25	5843.5	
683.43	6191	
683.62	6886	
683.8	7137.2	
683.99	6240.2	
684.17	5667.4	
684.36	7969.3	
684.54	6791.7	
684.73	5068.7	
684.91	5186.1	
685.1	7105.1	
685.28	6547.4	
685.46	5693.4	
685.65	5616.9	
685.83	7171.3	
686.02	6672.3	
686.2	5149.3	
686.39	5273.5	
686.57	6374.6	
686.76	7813	
686.94	5171.1	
687.13	5330.9	
687.31	7103.7	
687.5	6689.3	
687.68	4874.8	
687.86	5894.1	
688.05	8193.9	
688.23	6208.8	
688.42	5953.4	
688.6	5242.1	
688.79	6624.5	
688.97	6568.5	
689.16	5633.3	
689.34	4661.9	
689.52	7301.7	
689.71	7449.1	
689.89	5891.3	
690.08	5267.4	
690.26	6795.8	
690.45	6683.9	
690.63	6032.6	
690.81	5385.5	
691	6707.8	
691.18	6611.5	
691.37	5551.4	
691.55	7389.8	
691.74	6522.8	
691.92	8216.5	
692.1	5519.3	
692.29	5050.3	
692.47	6713.2	
692.66	6094.8	
692.84	5208.7	
693.02	5671.5	
693.21	6164.4	
693.39	6660	
693.58	5694.7	
693.76	5264	
693.94	7595.9	
694.13	7486	
694.31	5261.9	
694.5	6111.1	
694.68	6397.9	
694.86	6802.7	
695.05	5538.4	
695.23	5865.4	
695.42	7177.4	
695.6	9009.7	
695.78	6016.2	
695.97	5285.1	
696.15	7138.5	
696.34	6617	
696.52	5016.8	
696.7	5816.2	
696.89	6924.9	
697.07	6392.4	
697.25	5723.4	
697.44	6952.2	
697.62	6908.5	
697.81	7113.3	
697.99	5433.9	
698.17	5860.6	
698.36	6284.5	
698.54	6883.9	
698.72	5763.7	
698.91	4922.6	
699.09	6539.2	
699.28	6398.5	
699.46	5472.9	
699.64	5318.6	
699.83	6409.5	
700.01	7333.8	
700.19	5997.8	
700.38	4679.6	
700.56	7354.9	
700.74	6412.9	
700.93	4995.7	
701.11	5655.1	
701.29	6921.5	
701.48	7807.5	
701.66	5154.7	
701.84	5204.6	
702.03	6500.3	
702.21	7056.6	
702.39	4855.7	
702.58	5332.2	
702.76	6886	
702.94	6968.6	
703.13	4781.3	
703.31	6888	
703.49	6264.1	
703.68	7157.7	
703.86	4975.9	
704.04	5829.9	
704.23	6743.3	
704.41	7105.8	
704.59	5163.6	
704.78	6143.9	
704.96	7669.6	
705.14	7032.7	
705.33	4941.1	
705.51	5612.1	
705.69	6538.5	
705.87	7256.6	
706.06	5846.3	
706.24	4885.1	
706.42	6784.2	
706.61	7037.5	
706.79	5870.2	
706.97	4808.6	
707.16	6385.6	
707.34	6782.9	
707.52	5823.7	
707.7	5014.8	
707.89	6480.5	
708.07	6199.9	
708.25	5848.3	
708.44	5935	
708.62	6333.7	
708.8	7357.7	
708.98	6015.6	
709.17	5132.9	
709.35	6752.8	
709.53	6747.4	
709.72	4881.7	
709.9	5281.7	
710.08	6931	
710.26	7068.9	
710.45	6283.2	
710.63	5138.4	
710.81	6585.6	
710.99	6608.1	
711.18	5643.5	
711.36	5231.9	
711.54	6518	
711.72	7114.6	
711.91	5367	
712.09	4754	
712.27	6587	
712.45	7352.9	
712.64	5472.2	
712.82	4618.2	
713	6152.1	
713.18	6371.2	
713.37	4775.2	
713.55	5842.2	
713.73	7030.7	
713.91	5916.6	
714.1	5122	
714.28	4676.9	
714.46	6795.8	
714.64	6122.1	
714.83	4200.4	
715.01	4838	
715.19	6191.7	
715.37	5616.9	
715.55	4646.8	
715.74	4819.6	
715.92	6926.2	
716.1	5204.6	
716.28	5814.2	
716.47	4938.3	
716.65	5820.3	
716.83	5840.8	
717.01	4863.2	
717.19	4858.5	
717.38	7565.9	
717.56	5576.6	
717.74	5089.9	
717.92	4347.8	
718.1	6644.3	
718.29	5897.5	
718.47	3982.6	
718.65	4556.7	
718.83	6516.6	
719.01	6397.2	
719.2	3865.2	
719.38	4860.5	
719.56	6198.5	
719.74	7515.4	
719.92	4532.2	
720.11	5448.3	
720.29	6290	
720.47	5535	
720.65	4087.1	
720.83	4799.1	
721.02	5854.5	
721.2	5612.1	
721.38	4897.4	
721.56	4272.7	
721.74	5251.7	
721.92	5330.9	
722.11	5278.3	
722.29	5102.2	
722.47	6386.2	
722.65	5722.7	
722.83	4294.6	
723.01	5100.1	
723.2	5745.9	
723.38	5999.9	
723.56	3749.1	
723.74	4777.9	
723.92	5326.8	
724.1	6305.7	
724.29	4227.7	
724.47	5199.1	
724.65	5447.6	
724.83	5314.5	
725.01	4050.2	
725.19	4843.4	
725.37	5382.1	
725.56	5452.4	
725.74	3981.9	
725.92	4215.4	
726.1	5310.4	
726.28	5593.7	
726.46	4528.1	
726.64	4249.5	
726.83	5639.4	
727.01	5782.1	
727.19	3946.4	
727.37	4626.4	
727.55	5679	
727.73	6092	
727.91	3882.9	
728.09	3756.7	
728.28	6028.5	
728.46	6532.3	
728.64	4709	
728.82	4666	
729	6943.3	
729.18	6415.6	
729.36	3929.4	
729.54	5899.5	
729.72	7240.9	
729.91	5801.9	
730.09	5603.9	
730.27	4601.8	
730.45	5682.4	
730.63	6193.1	
730.81	5021.6	
730.99	4212.7	
731.17	6602	
731.35	5435.3	
731.53	4644.8	
731.71	4382	
731.9	6393.1	
732.08	6504.3	
732.26	4584	
732.44	4238.6	
732.62	6612.9	
732.8	6170.5	
732.98	4909	
733.16	4108.2	
733.34	6118.6	
733.52	5057.8	
733.7	4546.5	
733.88	4791.6	
734.07	6045.6	
734.25	5797.8	
734.43	4098	
734.61	5371.8	
734.79	7063.4	
734.97	5692	
735.15	4190.8	
735.33	4463.2	
735.51	6028.5	
735.69	5677	
735.87	5407.3	
736.05	4677.6	
736.23	5742.5	
736.41	5656.5	
736.59	4476.9	
736.77	4558.8	
736.95	6199.9	
737.13	5739.1	
737.32	4275.5	
737.5	4316.4	
737.68	6697.5	
737.86	5632.6	
738.04	4024.9	
738.22	5622.4	
738.4	5479.7	
738.58	5748.6	
738.76	4553.3	
738.94	3655.6	
739.12	5532.2	
739.3	5486.5	
739.48	5093.3	
739.66	4788.8	
739.84	5786.9	
740.02	5726.8	
740.2	3819.5	
740.38	4103.4	
740.56	6098.2	
740.74	5129.5	
740.92	4621.6	
741.1	4529.4	
741.28	5649.7	
741.46	5498.8	
741.64	4215.4	
741.82	4633.9	
742	5673.6	
742.18	5582.8	
742.36	4406.5	
742.54	4124.6	
742.72	6143.9	
742.9	4987.5	
743.08	4745.8	
743.26	3673.4	
743.44	6277	
743.62	6113.9	
743.8	4885.1	
743.98	4063.9	
744.16	5911.8	
744.34	5654.4	
744.52	4812.7	
744.7	4735.6	
744.88	6052.4	
745.06	5608	
745.24	4800.4	
745.42	4900.1	
745.6	6130.3	
745.78	5882.4	
745.96	3880.9	
746.14	4185.4	
746.32	6756.2	
746.5	6107	
746.68	4638.6	
746.86	4055.7	
747.03	6464.8	
747.21	4990.9	
747.39	4616.8	
747.57	4085	
747.75	5797.8	
747.93	6070.9	
748.11	4069.3	
748.29	4050.2	
748.47	7137.9	
748.65	5554.8	
748.83	4739	
749.01	4496.7	
749.19	5983.5	
749.37	5173.2	
749.55	4453	
749.73	4455.7	
749.91	5716.6	
750.09	5416.2	
750.26	4446.8	
750.44	3940.3	
750.62	5618.9	
750.8	5616.2	
750.98	3888.4	
751.16	4172.4	
751.34	5745.9	
751.52	5162.2	
751.7	4876.2	
751.88	3846.1	
752.06	6141.2	
752.24	5956.2	
752.42	3777.8	
752.59	4106.9	
752.77	5663.3	
752.95	6682.5	
753.13	4755.4	
753.31	4208.6	
753.49	5319.9	
753.67	5734.3	
753.85	4440	
754.03	4076.1	
754.21	6042.9	
754.38	6304.3	
754.56	4173.1	
754.74	3469.3	
754.92	5276.9	
755.1	5875.6	
755.28	3512.3	
755.46	3581.9	
755.64	6709.8	
755.82	6743.3	
755.99	3883.6	
756.17	3951.9	
756.35	4650.3	
756.53	5973.9	
756.71	2939.5	
756.89	3762.8	
757.07	5567.7	
757.25	4810	
757.42	4210.6	
757.6	4980.7	
757.78	5642.8	
757.96	4807.3	
758.14	4010.6	
758.32	3536.2	
758.5	4408.6	
758.67	5169.1	
758.85	3763.5	
759.03	3925.3	
759.21	5309.7	
759.39	4847.5	
759.57	3398.9	
759.75	4435.9	
759.92	5872.2	
760.1	5316.5	
760.28	4734.9	
760.46	4883.7	
760.64	5034.6	
760.82	4730.1	
760.99	4549.2	
761.17	3886.4	
761.35	5681.1	
761.53	4834.6	
761.71	3948.5	
761.89	4534.2	
762.06	5618.9	
762.24	5167.7	
762.42	3967.6	
762.6	3777.1	
762.78	5180.7	
762.96	5713.8	
763.13	4306.9	
763.31	4011.3	
763.49	5862.7	
763.67	5074.9	
763.85	4734.9	
764.02	5246.9	
764.2	5997.1	
764.38	5324.7	
764.56	3934.8	
764.74	4672.1	
764.91	6147.3	
765.09	5126.1	
765.27	3704.1	
765.45	3441.3	
765.63	6189	
765.8	6072.2	
765.98	3269.9	
766.16	3560.7	
766.34	4831.2	
766.52	4675.5	
766.69	4367.6	
766.87	3435.1	
767.05	5210	
767.23	5801.2	
767.41	3697.3	
767.58	3971	
767.76	5699.5	
767.94	5786.9	
768.12	3783.3	
768.29	4343.7	
768.47	5269.4	
768.65	5904.3	
768.83	3455.6	
769	4463.2	
769.18	4915.1	
769.36	5490.6	
769.54	4437.3	
769.72	3482.2	
769.89	5823.1	
770.07	5790.3	
770.25	3839.9	
770.43	4927.4	
770.6	6490	
770.78	6706.4	
770.96	3898.6	
771.14	4514.4	
771.31	5735.7	
771.49	5119.2	
771.67	3206.4	
771.85	3485.6	
772.02	4504.2	
772.2	5153.4	
772.38	4078.9	
772.55	3710.2	
772.73	5390.3	
772.91	5159.5	
773.09	3986	
773.26	4062.5	
773.44	5316.5	
773.62	5065.3	
773.8	3584.6	
773.97	3334.8	
774.15	5410.1	
774.33	5055.8	
774.5	3482.9	
774.68	3804.4	
774.86	5575.3	
775.04	5051.7	
775.21	3579.2	
775.39	3529.3	
775.57	5334.3	
775.74	5618.9	
775.92	3339.6	
776.1	3333.4	
776.27	5333.6	
776.45	6365.8	
776.63	3562.8	
776.81	3121.8	
776.98	5023	
777.16	5896.1	
777.34	3706.8	
777.51	3959.4	
777.69	4995	
777.87	4737	
778.04	3716.4	
778.22	4211.3	
778.4	4859.8	
778.57	5386.2	
778.75	3119.1	
778.93	3381.2	
779.1	4653	
779.28	4512.4	
779.46	3154.6	
779.64	3543	
779.81	5578.7	
779.99	6312.5	
780.17	4201.1	
780.34	4386.7	
780.52	5068.7	
780.69	5203.2	
780.87	3749.1	
781.05	3438.5	
781.22	5139.7	
781.4	5167	
781.58	3590.1	
781.75	2816	
781.93	5222.3	
782.11	4599.7	
782.28	4339	
782.46	3571	
782.64	4549.2	
782.81	5319.3	
782.99	3674.1	
783.17	3601	
783.34	5172.5	
783.52	4603.8	
783.69	3810.6	
783.87	4477.5	
784.05	4603.2	
784.22	4654.4	
784.4	4501.4	
784.58	3852.2	
784.75	5527.5	
784.93	4769	
785.1	3570.3	
785.28	4100.7	
785.46	5232.6	
785.63	4663.2	
785.81	3612.6	
785.99	3433.8	
786.16	4801.1	
786.34	5186.8	
786.51	3506.1	
786.69	3870	
786.87	4402.5	
787.04	4839.4	
787.22	3332	
787.39	4175.8	
787.57	4689.8	
787.75	5646.9	
787.92	4422.9	
788.1	4278.9	
788.27	4612.7	
788.45	4418.2	
788.63	4011.3	
788.8	2922.5	
788.98	5152.7	
789.15	4423.6	
789.33	3133.4	
789.5	3569.6	
789.68	5480.4	
789.86	5576.6	
790.03	4046.1	
790.21	3478.1	
790.38	5495.4	
790.56	4797	
790.73	3340.9	
790.91	3381.2	
791.09	4643.4	
791.26	5388.9	
791.44	3618.1	
791.61	3097.9	
791.79	4592.9	
791.96	4726.7	
792.14	3219.4	
792.32	2890.4	
792.49	4670.7	
792.67	4785.4	
792.84	3306.8	
793.02	3125.2	
793.19	5079.6	
793.37	5673.6	
793.54	2875.3	
793.72	3168.9	
793.89	5744.6	
794.07	4696.7	
794.25	3576.4	
794.42	2934.7	
794.6	5624.4	
794.77	5238.7	
794.95	3936.9	
795.12	3446.7	
795.3	4653	
795.47	5221	
795.65	3801.7	
795.82	3650.8	
796	4527.4	
796.17	6128.9	
796.35	3516.4	
796.52	4145.1	
796.7	5170.4	
796.87	5251	
797.05	3553.9	
797.22	4272.7	
797.4	5263.3	
797.57	6033.3	
797.75	3682.2	
797.92	3429.7	
798.1	5530.9	
798.27	4603.2	
798.45	2975.7	
798.62	3207.1	
798.8	4973.8	
798.97	5400.5	
799.15	3830.4	
799.32	3622.2	
799.5	4356	
799.67	5029.1	
799.85	3906.2	
800.02	2887.6	
800.2	4657.8	
800.37	4945.2	
800.55	4100	
800.72	3482.9	
800.9	5363.6	
801.07	5774.6	
801.25	4559.5	
801.42	3719.8	
801.6	5389.6	
801.77	5059.8	
801.95	3540.3	
802.12	3356.6	
802.29	5115.1	
802.47	5042.8	
802.64	3762.1	
802.82	2888.3	
802.99	4691.2	
803.17	5513.8	
803.34	3665.2	
803.52	3287	
803.69	6097.5	
803.87	4484.4	
804.04	3599.6	
804.21	3676.1	
804.39	5680.4	
804.56	4842.1	
804.74	3136.8	
804.91	3801	
805.09	4653.7	
805.26	4742.4	
805.44	3179.1	
805.61	3512.9	
805.78	5279.7	
805.96	5284.4	
806.13	3783.3	
806.31	4053.6	
806.48	4250.2	
806.66	4712.4	
806.83	3796.9	
807	3682.9	
807.18	4672.1	
807.35	5018.9	
807.53	3700.7	
807.7	3036.5	
807.87	5697.4	
808.05	4693.9	
808.22	4031.8	
808.4	2953.9	
808.57	4715.1	
808.74	4391.5	
808.92	3372.3	
809.09	4274.8	
809.27	4653	
809.44	5088.5	
809.61	3001.6	
809.79	3304.1	
809.96	5745.9	
810.14	5337.7	
810.31	2938.2	
810.48	3653.6	
810.66	4788.2	
810.83	5427.8	
811.01	3350.5	
811.18	3754.6	
811.35	5402.5	
811.53	4199.7	
811.7	4050.2	
811.87	3745.1	
812.05	4755.4	
812.22	4656.4	
812.39	3296.5	
812.57	3259	
812.74	4757.4	
812.92	6146	
813.09	3603.1	
813.26	3835.2	
813.44	5872.2	
813.61	4611.3	
813.78	2962.7	
813.96	3977.8	
814.13	4713.1	
814.3	4457.7	
814.48	4227	
814.65	3530	
814.82	5949.3	
815	4505.5	
815.17	3700	
815.34	4408.6	
815.52	4716.5	
815.69	4609.3	
815.87	3607.8	
816.04	3510.2	
816.21	4682.3	
816.38	4224.3	
816.56	3543.7	
816.73	3245.3	
816.9	5885.9	
817.08	5304.2	
817.25	3310.2	
817.42	4060.4	
817.6	4318.5	
817.77	4721.3	
817.94	3719.8	
818.12	3262.4	
818.29	4496.7	
818.46	6802.7	
818.64	3375.1	
818.81	3179.1	
818.98	4452.3	
819.16	6296.1	
819.33	3865.9	
819.5	3638.6	
819.67	4995	
819.85	5595.1	
820.02	3601	
820.19	3831.1	
820.37	4896	
820.54	4553.3	
820.71	3672.7	
820.88	4561.5	
821.06	4866.7	
821.23	4506.2	
821.4	3736.2	
821.58	3653.6	
821.75	5382.7	
821.92	4846.2	
822.09	3056.9	
822.27	3044.6	
822.44	4764.9	
822.61	4648.2	
822.79	2982.5	
822.96	5592.3	
823.13	5095.3	
823.3	4450.2	
823.48	3491.1	
823.65	3128.6	
823.82	5397.8	
823.99	4308.2	
824.17	4367	
824.34	3168.2	
824.51	6109.1	
824.68	4768.4	
824.86	3315.7	
825.03	3659	
825.2	4762.9	
825.37	5626.5	
825.55	3307.5	
825.72	3637.9	
825.89	6134.3	
826.06	5674.2	
826.24	3533.4	
826.41	3580.5	
826.58	5730.2	
826.75	5014.1	
826.92	2844.6	
827.1	3127.9	
827.27	7615.7	
827.44	6109.1	
827.61	3377.8	
827.79	4100.7	
827.96	4532.2	
828.13	4779.3	
828.3	3575.1	
828.47	2996.9	
828.65	4979.3	
828.82	4898.1	
828.99	4515.8	
829.16	3901.4	
829.34	5326.1	
829.51	5055.1	
829.68	3607.8	
829.85	3700.7	
830.02	5567.7	
830.2	5296	
830.37	2820.7	
830.54	4342.4	
830.71	5974.6	
830.88	4775.9	
831.05	2918.4	
831.23	3355.3	
831.4	5761.6	
831.57	6335.7	
831.74	3381.9	
831.91	3009.1	
832.09	4978.6	
832.26	5319.9	
832.43	3487	
832.6	3899.3	
832.77	5000.5	
832.94	5636	
833.12	2807.1	
833.29	3405.8	
833.46	4673.5	
833.63	6506.4	
833.8	3808.5	
833.97	3478.1	
834.15	5304.9	
834.32	5082.4	
834.49	3637.2	
834.66	3689.1	
834.83	5487.9	
835	4492.6	
835.17	3400.3	
835.35	3353.9	
835.52	5190.9	
835.69	5093.3	
835.86	3575.1	
836.03	2951.1	
836.2	5223	
836.37	4971.1	
836.55	3428.3	
836.72	3246	
836.89	4906.3	
837.06	5373.2	
837.23	3519.1	
837.4	3865.9	
837.57	6012.8	
837.75	6532.3	
837.92	3224.9	
838.09	3447.4	
838.26	4880.3	
838.43	5498.8	
838.6	3736.2	
838.77	3297.9	
838.94	6202.6	
839.11	5989.6	
839.29	3512.3	
839.46	2770.9	
839.63	5297.4	
839.8	5017.5	
839.97	3442.6	
840.14	3319.8	
840.31	5088.5	
840.48	5272.8	
840.65	2840.5	
840.82	3321.8	
841	5240.8	
841.17	5182	
841.34	3113.6	
841.51	3198.9	
841.68	5175.9	
841.85	4965.6	
842.02	3213.9	
842.19	2705.4	
842.36	5014.1	
842.53	5029.1	
842.7	3128.6	
842.87	3786.7	
843.05	6526.2	
843.22	4954	
843.39	2983.2	
843.56	3220.8	
843.73	4864.6	
843.9	5320.6	
844.07	5010	
844.24	4220.9	
844.41	7418.4	
844.58	4610.7	
844.75	3048.1	
844.92	3251.5	
845.09	5259.9	
845.26	5242.1	
845.43	3134.8	
845.6	3272.7	
845.77	5246.2	
845.94	5005.9	
846.12	3427.6	
846.29	3670	
846.46	5460.6	
846.63	5223	
846.8	3110.2	
846.97	3732.1	
847.14	5627.8	
847.31	5221	
847.48	3504.8	
847.65	3811.3	
847.82	5532.9	
847.99	5484.5	
848.16	4130.8	
848.33	3837.9	
848.5	4854.4	
848.67	5710.4	
848.84	3076	
849.01	3293.1	
849.18	4744.5	
849.35	4498.7	
849.52	3816.7	
849.69	3074	
849.86	5384.8	
850.03	5562.3	
850.2	3151.8	
850.37	3790.8	
850.54	5540.4	
850.71	4975.9	
850.88	3727.3	
851.05	3056.3	
851.22	5180.7	
851.39	5709.1	
851.56	2904.7	
851.73	3559.4	
851.9	4660.5	
852.07	5446.2	
852.24	3472	
852.41	3093.8	
852.58	5150.6	
852.75	4720.6	
852.92	3401.7	
853.09	3040.6	
853.26	4825.7	
853.43	5606	
853.6	3112.9	
853.77	2697.2	
853.94	5706.3	
854.11	5200.5	
854.28	4533.5	
854.44	3396.9	
854.61	6119.3	
854.78	5543.2	
854.95	3120.4	
855.12	3885.7	
855.29	4297.3	
855.46	5868.1	
855.63	3167.5	
855.8	4229.1	
855.97	4860.5	
856.14	5499.5	
856.31	4369	
856.48	3371.6	
856.65	4886.5	
856.82	4603.8	
856.99	2999.6	
857.16	3343.7	
857.33	6332.3	
857.49	4985.4	
857.66	3287	
857.83	3566.2	
858	4935.6	
858.17	5175.9	
858.34	2948.4	
858.51	3167.5	
858.68	5842.9	
858.85	5859.2	
859.02	3607.2	
859.19	3814.7	
859.36	4653.7	
859.52	4681	
859.69	3119.7	
859.86	3621.5	
860.03	4725.3	
860.2	5728.2	
860.37	2867.8	
860.54	3110.9	
860.71	5438.7	
860.88	5771.9	
861.05	3459.7	
861.21	3891.1	
861.38	5764.3	
861.55	4455.7	
861.72	2823.5	
861.89	3454.2	
862.06	5486.5	
862.23	5891.3	
862.4	3003.7	
862.56	3242.6	
862.73	5403.9	
862.9	5083.1	
863.07	3653.6	
863.24	3243.3	
863.41	4504.2	
863.58	4698.7	
863.75	3167.5	
863.91	3541.6	
864.08	5737.7	
864.25	5369.8	
864.42	3894.6	
864.59	4280.9	
864.76	5963	
864.93	4664.6	
865.09	3028.9	
865.26	3276.1	
865.43	5646.9	
865.6	6007.4	
865.77	2721.1	
865.94	3066.5	
866.1	5696.8	
866.27	5436.7	
866.44	4592.9	
866.61	2979.1	
866.78	4985.4	
866.95	5347.9	
867.11	3001	
867.28	2781.1	
867.45	5569.1	
867.62	4700.1	
867.79	3537.5	
867.96	3113.6	
868.12	4638.6	
868.29	5507	
868.46	2699.2	
868.63	4124.6	
868.8	5574.6	
868.97	5420.3	
869.13	3251.5	
869.3	3247.4	
869.47	5291.3	
869.64	5450.3	
869.81	3164.8	
869.97	3158.7	
870.14	5206.6	
870.31	5767.8	
870.48	3036.5	
870.65	3849.5	
870.81	4926.7	
870.98	4966.3	
871.15	3510.2	
871.32	3280.2	
871.48	5287.9	
871.65	5843.5	
871.82	3078.1	
871.99	3383.2	
872.16	6186.2	
872.32	5702.2	
872.49	3135.4	
872.66	3160.7	
872.83	5427.1	
872.99	4795.7	
873.16	3513.6	
873.33	3062.4	
873.5	5084.4	
873.67	5124.7	
873.83	3270.6	
874	4091.2	
874.17	5300.1	
874.34	6102.9	
874.5	3990.1	
874.67	3827	
874.84	5745.2	
875.01	4558.1	
875.17	4294.6	
875.34	3099.3	
875.51	5196.4	
875.68	6141.9	
875.84	3691.8	
876.01	4522.6	
876.18	5470.8	
876.34	5352	
876.51	3135.4	
876.68	3082.9	
876.85	4959.5	
877.01	5659.2	
877.18	4356.7	
877.35	3100.6	
877.52	5104.9	
877.68	4610.7	
877.85	3039.9	
878.02	3069.9	
878.18	5005.9	
878.35	4788.2	
878.52	2497.8	
878.69	3444	
878.85	5494	
879.02	5356.8	
879.19	4368.3	
879.35	3334.8	
879.52	5402.5	
879.69	5574.6	
879.86	2720.4	
880.02	3449.5	
880.19	5029.8	
880.36	6096.8	
880.52	3557.3	
880.69	3626.3	
880.86	5431.9	
881.02	5501.5	
881.19	3380.5	
881.36	3416.7	
881.52	5379.3	
881.69	4769	
881.86	3390.1	
882.02	3289	
882.19	5669.5	
882.36	6466.8	
882.52	3180.5	
882.69	4261.1	
882.86	5187.5	
883.02	5169.1	
883.19	3739.6	
883.36	3581.2	
883.52	5495.4	
883.69	6154.8	
883.86	3170.9	
884.02	2871.9	
884.19	5513.1	
884.36	5102.2	
884.52	3516.4	
884.69	3300	
884.86	4894.6	
885.02	5954.8	
885.19	3463.1	
885.36	3517.7	
885.52	5077.6	
885.69	5244.8	
885.86	4470.7	
886.02	3902.1	
886.19	5419.6	
886.35	4868.7	
886.52	3462.4	
886.69	4293.9	
886.85	4705.5	
887.02	5678.3	
887.19	5678.3	
887.35	5678.3	
887.52	5678.3	
887.68	5678.3	
887.85	5678.3	
888.02	5678.3	
888.18	5678.3	
888.35	5678.3	
888.51	5678.3	
888.68	5678.3	
888.85	5678.3	
889.01	5678.3	
889.18	5678.3	
889.35	5678.3	
889.51	5678.3	
889.68	5678.3	
889.84	5678.3	
890.01	5678.3	
890.17	5678.3	
890.34	5678.3	
890.51	5678.3	
890.67	5678.3	
890.84	5678.3	
891	5678.3	
891.17	5678.3	
891.34	5678.3	
891.5	5678.3	
891.67	5678.3	
891.83	5678.3	
892	5678.3	
892.16	5678.3	
892.33	5678.3	
892.5	5678.3	
892.66	5678.3	
892.83	5678.3	
892.99	5678.3	
893.16	5678.3	
893.32	5678.3	
893.49	5678.3	
893.65	5678.3	
893.82	5678.3	
893.99	5678.3	
894.15	5678.3	
894.32	5678.3	
894.48	5678.3	
894.65	5678.3	
894.81	5678.3	
894.98	5678.3	
895.14	5678.3	
895.31	5678.3	
895.47	5678.3	
895.64	5678.3	
895.81	5678.3	
895.97	5678.3	
896.14	5678.3	
896.3	5678.3	
896.47	5678.3	
896.63	5678.3	
896.8	5678.3	
896.96	5678.3	
897.13	5678.3	
897.29	5678.3	
897.46	5678.3	
897.62	5678.3	
897.79	5678.3	
897.95	5678.3	
898.12	5678.3	
898.28	5678.3	
898.45	5678.3	
898.61	5678.3	
898.78	5678.3	
898.94	5678.3	
899.11	5678.3	
899.27	5678.3	
899.44	5678.3	
899.6	5678.3	
899.77	5678.3	
899.93	5678.3	
900.1	5678.3	
900.26	5678.3	
900.43	5678.3	
900.59	5678.3	
900.76	5678.3	
900.92	5678.3	
901.09	5678.3	
901.25	5678.3	
901.42	5678.3	
901.58	5678.3	
901.75	5678.3	
901.91	5678.3	
902.07	5678.3	
902.24	5678.3	
902.4	5678.3	
902.57	5678.3	
902.73	5678.3	
902.9	5678.3	
903.06	5678.3	
903.23	5678.3	
903.39	5678.3	
903.56	5678.3	
903.72	5678.3	
903.88	5678.3	
904.05	5678.3	
904.21	5678.3	
904.38	5678.3	
904.54	5678.3	
904.71	5678.3	
904.87	5678.3	
905.03	5678.3	
905.2	5678.3	
905.36	5678.3	
905.53	5678.3	
905.69	5678.3	
905.86	5678.3	
906.02	5678.3	
906.18	5678.3	
906.35	5678.3	
906.51	5678.3	
906.68	5678.3	
906.84	5678.3	
907.01	5678.3	
907.17	5678.3	
907.33	5678.3	
907.5	5678.3	
907.66	5678.3	
907.83	5678.3	
907.99	5678.3	
908.15	5678.3	
908.32	5678.3	
908.48	5678.3	
908.65	5678.3	
908.81	5678.3	
908.97	5678.3	
909.14	5678.3	
909.3	5678.3	
909.47	5678.3	
909.63	5678.3	
909.79	5678.3	
909.96	5678.3	
910.12	5678.3	
910.28	5678.3	
910.45	5678.3	
910.61	5678.3	
910.78	5678.3	
910.94	5678.3	
911.1	5678.3	
911.27	5678.3	
911.43	5678.3	
911.59	5678.3	
911.76	5678.3	
911.92	5678.3	
912.08	5678.3	
912.25	5678.3	
912.41	5678.3	
912.57	5678.3	
912.74	5678.3	
912.9	5678.3	
913.07	5678.3	
913.23	5678.3	
913.39	5678.3	
913.56	5678.3	
913.72	5678.3	
913.88	5678.3	
914.05	5678.3	
914.21	5678.3	
914.37	5678.3	
914.54	5678.3	
914.7	5678.3	
914.86	5678.3	
915.03	5678.3	
915.19	5678.3	
