Wavelength	Intensities	
nm	a.u.	
179.22	1893	
179.44	1903.9	
179.65	1882.1	
179.86	1925.8	
180.08	1910.8	
180.29	4942.4	
180.51	3593.5	
180.72	5638.1	
180.94	6640.2	
181.15	3242.6	
181.37	3195.5	
181.58	5515.9	
181.79	5852.4	
182.01	3373	
182.22	3647.4	
182.44	5769.1	
182.65	4836.6	
182.87	4566.3	
183.08	4020.2	
183.29	6096.1	
183.51	4990.9	
183.72	3635.8	
183.94	5380	
184.15	5380.7	
184.37	5398.4	
184.58	3213.3	
184.79	4506.2	
185.01	5033.9	
185.22	5823.7	
185.44	4755.4	
185.65	3947.8	
185.86	5351.3	
186.08	4878.9	
186.29	3140.2	
186.51	3403.7	
186.72	5071.5	
186.94	5931.6	
187.15	3895.9	
187.36	4046.8	
187.58	7833.5	
187.79	5504.9	
188.01	4216.1	
188.22	6559.6	
188.43	6673.6	
188.65	5821	
188.86	3328.6	
189.08	4021.5	
189.29	5176.6	
189.5	5223.7	
189.72	3749.8	
189.93	3824.9	
190.15	6016.2	
190.36	7167.9	
190.57	4110.3	
190.79	3956	
191	6078.4	
191.22	6081.8	
191.43	4114.4	
191.64	3477.5	
191.86	6265.4	
192.07	6010.8	
192.29	3590.1	
192.5	3748.5	
192.71	6039.5	
192.93	5186.1	
193.14	3708.9	
193.35	3811.3	
193.57	5225.7	
193.78	6017.6	
194	3008.5	
194.21	3662.5	
194.42	4971.8	
194.64	5451.7	
194.85	4100.7	
195.07	4739	
195.28	5499.5	
195.49	4719.2	
195.71	5027.1	
195.92	3442.6	
196.13	5606.7	
196.35	5719.3	
196.56	5371.1	
196.78	4012.7	
196.99	7043.6	
197.2	6652.5	
197.42	4644.8	
197.63	4162.2	
197.84	4837.3	
198.06	5655.8	
198.27	3777.8	
198.48	4933.6	
198.7	5180	
198.91	5343.2	
199.13	4039.3	
199.34	4027.7	
199.55	5851.7	
199.77	4703.5	
199.98	3561.4	
200.19	4080.2	
200.41	5279	
200.62	5034.6	
200.83	4260.5	
201.05	4521.9	
201.26	5344.5	
201.47	5059.2	
201.69	3635.8	
201.9	3512.9	
202.11	5380	
202.33	6484.6	
202.54	3825.6	
202.76	4278.9	
202.97	5557.5	
203.18	5610.1	
203.4	4261.1	
203.61	4121.2	
203.82	5449.6	
204.04	5145.9	
204.25	4116.4	
204.46	4048.8	
204.68	5464.7	
204.89	5679	
205.1	4001.7	
205.32	3439.9	
205.53	5881.8	
205.74	5993.7	
205.96	2939.5	
206.17	4177.2	
206.38	5844.9	
206.6	5948	
206.81	4731.5	
207.02	3772.4	
207.24	5678.3	
207.45	6104.3	
207.66	3859.7	
207.88	3294.5	
208.09	5703.6	
208.3	5470.8	
208.52	3598.3	
208.73	3831.7	
208.94	5466	
209.15	6164.4	
209.37	3889.8	
209.58	4105.5	
209.79	6019	
210.01	5213.4	
210.22	3050.8	
210.43	3280.8	
210.65	5457.2	
210.86	5816.2	
211.07	3826.3	
211.29	3549.1	
211.5	5758.2	
211.71	5321.3	
211.93	3520.5	
212.14	3590.8	
212.35	5350	
212.56	5636.7	
212.78	4146.5	
212.99	3373.7	
213.2	6437.4	
213.42	5175.2	
213.63	3661.1	
213.84	3962.1	
214.06	4789.5	
214.27	4919.2	
214.48	3881.6	
214.69	4071.4	
214.91	6107	
215.12	6176	
215.33	4214	
215.55	4649.6	
215.76	6703.7	
215.97	5813.5	
216.18	4020.2	
216.4	3938.2	
216.61	5053	
216.82	5879	
217.04	3572.3	
217.25	3739.6	
217.46	6080.4	
217.67	5864	
217.89	3216	
218.1	3327.3	
218.31	5498.8	
218.53	5657.2	
218.74	3760.1	
218.95	3682.9	
219.16	5311.7	
219.38	6414.9	
219.59	3738.9	
219.8	4328	
220.01	7013.6	
220.23	5427.1	
220.44	4769	
220.65	3531.4	
220.87	5535	
221.08	6037.4	
221.29	3325.9	
221.5	4450.2	
221.72	7441	
221.93	5110.4	
222.14	4145.8	
222.35	4816.1	
222.57	5425.1	
222.78	5739.1	
222.99	3883.6	
223.2	4189.5	
223.42	5797.1	
223.63	5947.3	
223.84	2990.7	
224.05	2989.4	
224.27	6978.8	
224.48	6345.3	
224.69	4873.5	
224.9	4084.3	
225.12	5678.3	
225.33	5412.1	
225.54	3317	
225.75	3603.7	
225.97	4973.8	
226.18	5240.1	
226.39	3997.6	
226.6	3653.6	
226.82	5178.6	
227.03	5051	
227.24	4107.5	
227.45	3374.4	
227.67	5868.8	
227.88	6412.2	
228.09	4537.6	
228.3	4631.1	
228.52	5885.9	
228.73	5369.8	
228.94	3758	
229.15	3352.5	
229.36	5339.7	
229.58	5368.4	
229.79	3857	
230	4415.4	
230.21	6445	
230.43	5479	
230.64	4070	
230.85	4246.8	
231.06	5831.2	
231.28	5844.9	
231.49	3394.8	
231.7	3984	
231.91	5740.5	
232.12	5496.7	
232.34	3455.6	
232.55	4032.5	
232.76	6074.3	
232.97	5614.2	
233.18	3568.9	
233.4	4010.6	
233.61	5676.3	
233.82	5294.7	
234.03	3747.1	
234.25	3657.7	
234.46	7559.7	
234.67	5518.6	
234.88	4162.8	
235.09	3663.8	
235.31	5782.1	
235.52	5281.7	
235.73	4089.8	
235.94	3366.9	
236.15	5137	
236.37	6645.7	
236.58	3604.4	
236.79	3901.4	
237	5753.4	
237.21	4928.8	
237.43	4229.1	
237.64	3319.8	
237.85	9966.8	
238.06	5023	
238.27	4343.7	
238.48	3398.9	
238.7	5799.8	
238.91	5272.8	
239.12	3895.2	
239.33	3962.1	
239.54	4990.9	
239.76	5416.9	
239.97	3807.2	
240.18	3977.2	
240.39	6760.3	
240.6	5707.7	
240.82	4028.4	
241.03	3305.4	
241.24	5459.2	
241.45	6232.7	
241.66	3592.8	
241.87	4241.3	
242.09	6079.7	
242.3	6576	
242.51	4287.8	
242.72	3984.7	
242.93	5891.3	
243.14	5399.8	
243.36	4534.9	
243.57	4945.2	
243.78	6287.9	
243.99	5794.4	
244.2	3937.6	
244.41	3591.5	
244.63	5006.6	
244.84	5723.4	
245.05	4252.9	
245.26	3949.2	
245.47	5723.4	
245.68	5980.1	
245.9	5257.1	
246.11	4117.1	
246.32	5276.3	
246.53	5704.3	
246.74	6354.8	
246.95	3322.5	
247.16	4855.7	
247.38	5463.3	
247.59	3179.1	
247.8	3964.9	
248.01	5119.9	
248.22	5418.2	
248.43	3572.3	
248.64	3829	
248.86	4797	
249.07	5226.4	
249.28	3453.6	
249.49	4059.1	
249.7	6021	
249.91	6197.2	
250.12	3258.3	
250.34	3329.3	
250.55	5524.1	
250.76	5470.1	
250.97	4072	
251.18	4081.6	
251.39	6154.8	
251.6	5644.9	
251.81	4192.9	
252.03	4137.6	
252.24	5183.4	
252.45	5948.7	
252.66	3371.6	
252.87	4392.9	
253.08	5489.2	
253.29	7189.1	
253.5	3367.5	
253.72	4773.8	
253.93	5251.7	
254.14	6472.9	
254.35	3698.6	
254.56	3792.2	
254.77	5712.5	
254.98	5027.8	
255.19	3678.8	
255.41	4748.6	
255.62	5533.6	
255.83	6132.3	
256.04	4213.4	
256.25	4100.7	
256.46	6537.8	
256.67	5153.4	
256.88	4033.8	
257.09	4541	
257.31	5136.3	
257.52	5128.1	
257.73	5089.2	
257.94	3722.5	
258.15	5251	
258.36	5493.3	
258.57	4697.4	
258.78	2966.8	
258.99	5982.8	
259.2	5255.8	
259.41	3730	
259.63	3816.7	
259.84	6296.1	
260.05	6765.8	
260.26	4962.2	
260.47	3611.9	
260.68	6038.1	
260.89	5398.4	
261.1	4513	
261.31	3589.4	
261.52	5988.3	
261.73	6413.6	
261.95	4848.2	
262.16	4261.1	
262.37	6144.6	
262.58	6262.7	
262.79	4840	
263	3816	
263.21	5560.2	
263.42	5031.2	
263.63	3827	
263.84	3775.8	
264.05	5958.9	
264.26	6392.4	
264.47	4699.4	
264.69	4220.9	
264.9	6176.7	
265.11	5676.3	
265.32	3578.5	
265.53	3743.7	
265.74	5585.5	
265.95	4881.7	
266.16	4050.9	
266.37	4414.7	
266.58	5554.8	
266.79	5288.5	
267	3716.4	
267.21	3444	
267.42	5073.5	
267.63	5418.9	
267.84	3907.5	
268.06	3379.8	
268.27	5926.1	
268.48	6181.5	
268.69	3850.2	
268.9	4524	
269.11	6186.2	
269.32	4894.6	
269.53	3947.8	
269.74	3590.8	
269.95	5785.5	
270.16	4822.3	
270.37	3913	
270.58	4518.5	
270.79	5251	
271	5976	
271.21	4209.9	
271.42	4007.9	
271.63	5591.6	
271.84	5124.7	
272.05	3119.1	
272.26	3534.1	
272.47	5462.6	
272.68	5653.1	
272.89	3727.3	
273.11	4405.9	
273.32	5241.4	
273.53	6349.4	
273.74	4268.6	
273.95	4126	
274.16	6126.2	
274.37	5553.4	
274.58	4332.8	
274.79	3443.3	
275	5581.4	
275.21	6111.1	
275.42	5223	
275.63	4388.8	
275.84	5720	
276.05	7239.6	
276.26	4181.3	
276.47	3862.5	
276.68	5264	
276.89	6452.5	
277.1	4401.8	
277.31	3439.2	
277.52	5726.1	
277.73	5852.4	
277.94	3352.5	
278.15	3855	
278.36	5611.4	
278.57	5102.9	
278.78	3734.8	
278.99	4265.2	
279.2	5108.3	
279.41	4994.3	
279.62	4926.7	
279.83	3509.5	
280.04	6677.7	
280.25	4957.4	
280.46	4928.1	
280.67	3945.1	
280.88	5102.9	
281.09	6165.1	
281.3	4164.2	
281.51	5204.6	
281.72	5155.4	
281.93	6008.1	
282.14	3665.2	
282.35	4005.1	
282.56	5964.4	
282.77	5958.9	
282.98	3796.9	
283.19	4636.6	
283.4	7347.4	
283.61	5414.8	
283.82	3375.1	
284.03	4898.7	
284.24	5525.4	
284.45	6087.2	
284.66	4868.7	
284.87	4661.2	
285.08	6014.2	
285.29	6143.2	
285.5	3336.1	
285.71	3860.4	
285.92	6113.9	
286.12	6763.1	
286.33	4771.8	
286.54	3804.4	
286.75	5945.3	
286.96	5304.9	
287.17	3478.8	
287.38	4795	
287.59	5020.3	
287.8	4976.6	
288.01	3851.5	
288.22	4404.5	
288.43	6001.9	
288.64	5013.4	
288.85	4547.9	
289.06	4369.7	
289.27	6179.4	
289.48	6352.8	
289.69	4886.5	
289.9	4444.8	
290.11	6119.3	
290.32	5081.7	
290.53	4670.1	
290.74	4242.7	
290.94	5876.3	
291.15	5965.1	
291.36	3723.2	
291.57	4383.3	
291.78	5150.6	
291.99	4891.9	
292.2	3516.4	
292.41	4254.3	
292.62	5991	
292.83	5815.5	
293.04	5283.1	
293.25	3583.3	
293.46	5215.5	
293.67	6055.8	
293.88	3699.3	
294.09	3561.4	
294.29	4985.4	
294.5	5597.1	
294.71	4001.7	
294.92	3808.5	
295.13	5221	
295.34	6589.7	
295.55	3328.6	
295.76	3393.5	
295.97	5888.6	
296.18	6637.5	
296.39	3514.3	
296.6	3679.5	
296.81	5596.4	
297.01	5902.9	
297.22	3913.7	
297.43	3682.2	
297.64	5081.7	
297.85	5121.3	
298.06	3021.4	
298.27	3252.9	
298.48	5544.5	
298.69	5185.5	
298.9	4011.3	
299.11	3575.1	
299.31	4941.7	
299.52	5001.8	
299.73	4363.5	
299.94	4241.3	
300.15	5450.3	
300.36	5057.1	
300.57	4247.5	
300.78	4252.3	
300.99	5325.4	
301.2	5553.4	
301.4	3616.7	
301.61	4012	
301.82	5809.4	
302.03	5939.8	
302.24	4530.8	
302.45	3493.2	
302.66	5743.2	
302.87	6260.6	
303.08	3685.7	
303.29	5068	
303.49	5188.9	
303.7	5487.9	
303.91	3235.8	
304.12	4834.6	
304.33	4927.4	
304.54	5635.3	
304.75	3717.7	
304.96	3533.4	
305.16	5816.2	
305.37	6582.9	
305.58	3167.5	
305.79	3340.2	
306	5780.1	
306.21	4894.6	
306.42	3678.2	
306.63	5695.4	
306.83	5304.2	
307.04	6131.6	
307.25	4028.4	
307.46	4020.2	
307.67	4640	
307.88	5967.8	
308.09	3629	
308.29	3822.9	
308.5	5575.9	
308.71	6014.2	
308.92	3965.6	
309.13	3557.3	
309.34	5352.7	
309.55	5336.3	
309.75	4584.7	
309.96	4197.7	
310.17	5908.4	
310.38	5180.7	
310.59	4437.3	
310.8	3475.4	
311.01	5289.9	
311.21	5339.1	
311.42	3541.6	
311.63	3628.3	
311.84	5183.4	
312.05	5662.6	
312.26	4113	
312.46	4550.6	
312.67	5288.5	
312.88	5011.4	
313.09	3570.3	
313.3	3540.3	
313.51	6223.1	
313.71	6607.4	
313.92	3562.1	
314.13	3749.8	
314.34	5625.1	
314.55	5358.2	
314.76	4624.3	
314.96	3972.4	
315.17	5521.3	
315.38	6025.1	
315.59	3579.2	
315.8	3400.3	
316.01	6333	
316.21	6436.8	
316.42	3409.2	
316.63	3947.8	
316.84	5307.7	
317.05	6184.9	
317.26	4242.7	
317.46	3747.1	
317.67	5414.1	
317.88	5866.1	
318.09	4468.7	
318.3	3293.8	
318.5	5147.9	
318.71	5831.9	
318.92	5780.7	
319.13	4187.4	
319.34	5928.9	
319.54	6108.4	
319.75	3305.4	
319.96	3158.7	
320.17	5866.1	
320.38	6032	
320.58	3272.7	
320.79	3902.1	
321	6008.1	
321.21	6225.8	
321.42	3948.5	
321.62	3233.7	
321.83	5016.2	
322.04	5457.8	
322.25	3687	
322.46	3603.1	
322.66	5605.3	
322.87	5748	
323.08	4440	
323.29	3482.2	
323.5	6520	
323.7	5012.1	
323.91	4895.3	
324.12	4365.6	
324.33	5533.6	
324.53	5803.9	
324.74	4176.5	
324.95	4355.3	
325.16	4807.9	
325.37	5267.4	
325.57	3635.1	
325.78	3615.3	
325.99	5505.6	
326.2	4943.8	
326.4	5041.4	
326.61	3282.2	
326.82	5399.1	
327.03	5563.6	
327.24	5045.5	
327.44	4860.5	
327.65	5708.4	
327.86	4605.2	
328.07	4199.7	
328.27	3428.3	
328.48	6136.4	
328.69	5018.9	
328.9	5154.7	
329.1	3883.6	
329.31	5342.5	
329.52	6333.7	
329.73	3574.4	
329.93	4075.5	
330.14	5450.3	
330.35	5751.4	
330.56	5913.2	
330.76	4441.4	
330.97	5282.4	
331.18	5647.6	
331.39	3956	
331.59	3213.3	
331.8	6084.5	
332.01	6219.7	
332.22	3659.7	
332.42	4251.6	
332.63	5571.2	
332.84	5168.4	
333.05	3990.8	
333.25	3665.2	
333.46	5243.5	
333.67	5513.8	
333.88	3729.4	
334.08	4148.5	
334.29	7281.9	
334.5	6182.1	
334.7	3415.3	
334.91	5093.3	
335.12	5031.2	
335.33	5866.1	
335.53	3992.9	
335.74	5863.3	
335.95	5215.5	
336.16	5108.3	
336.36	3973.7	
336.57	4595.6	
336.78	4927.4	
336.98	6032	
337.19	4851.6	
337.4	3924.6	
337.61	6640.9	
337.81	4976.6	
338.02	3592.1	
338.23	4663.2	
338.43	6253.1	
338.64	5119.2	
338.85	3601.7	
339.05	4775.2	
339.26	6341.9	
339.47	4855.7	
339.68	3618.1	
339.88	5397.8	
340.09	5670.1	
340.3	5923.4	
340.5	4202.4	
340.71	3210.5	
340.92	4926.7	
341.13	6212.9	
341.33	3487.7	
341.54	4235.2	
341.75	5703.6	
341.95	5338.4	
342.16	4018.8	
342.37	4390.2	
342.57	5016.8	
342.78	5442.8	
342.99	4530.8	
343.19	3176.4	
343.4	5924.1	
343.61	5638.7	
343.81	3842.7	
344.02	3530.7	
344.23	5953.4	
344.43	6318	
344.64	4459.1	
344.85	4300.1	
345.06	5785.5	
345.26	6096.8	
345.47	4151.2	
345.68	4880.3	
345.88	4796.3	
346.09	5917.9	
346.3	4293.9	
346.5	3168.2	
346.71	5462.6	
346.92	5158.8	
347.12	3248.8	
347.33	4139.6	
347.54	6092.7	
347.74	6417.7	
347.95	4113.7	
348.16	3045.3	
348.36	5281.7	
348.57	4928.1	
348.78	4036.5	
348.98	4369	
349.19	5385.5	
349.39	4949.9	
349.6	3268.6	
349.81	3670	
350.01	5711.8	
350.22	5148.6	
350.43	3953.9	
350.63	4829.1	
350.84	5477	
351.05	5265.3	
351.25	3583.9	
351.46	3229.6	
351.67	6053.8	
351.87	5132.2	
352.08	3830.4	
352.29	4395.6	
352.49	5931.6	
352.7	5965.1	
352.9	3509.5	
353.11	4388.8	
353.32	6619	
353.52	5307.7	
353.73	3448.1	
353.94	4437.3	
354.14	5796.4	
354.35	5533.6	
354.55	3566.2	
354.76	3994.9	
354.97	5779.4	
355.17	5459.2	
355.38	3337.5	
355.59	4710.3	
355.79	5089.9	
356	5582.1	
356.2	3980.6	
356.41	3442	
356.62	4874.8	
356.82	5414.8	
357.03	4284.4	
357.24	3804.4	
357.44	5176.6	
357.65	5343.8	
357.85	5164.3	
358.06	3978.5	
358.27	4894.6	
358.47	5200.5	
358.68	3353.2	
358.88	4230.4	
359.09	5783.5	
359.3	6125.5	
359.5	4939	
359.71	4420.9	
359.91	6600.6	
360.12	5945.9	
360.33	4188.1	
360.53	4727.4	
360.74	5162.9	
360.94	5236.7	
361.15	4410	
361.36	3638.6	
361.56	5989.6	
361.77	5359.5	
361.97	4963.6	
362.18	3932.8	
362.38	5994.4	
362.59	5043.5	
362.8	3615.3	
363	3446.7	
363.21	4816.1	
363.41	5541.1	
363.62	4130.1	
363.83	5170.4	
364.03	5614.8	
364.24	6579.4	
364.44	5314.5	
364.65	5142.4	
364.85	5358.9	
365.06	5281	
365.27	3826.3	
365.47	3807.9	
365.68	6387.6	
365.88	5378	
366.09	4198.3	
366.29	3890.5	
366.5	5601.9	
366.71	6150.7	
366.91	5195.7	
367.12	4398.4	
367.32	6655.2	
367.53	5986.9	
367.73	4334.9	
367.94	5314.5	
368.14	5909.8	
368.35	6902.3	
368.56	4255.7	
368.76	3606.5	
368.97	6006.7	
369.17	7770	
369.38	3792.2	
369.58	4111	
369.79	5018.9	
369.99	6331	
370.2	5193	
370.4	4185.4	
370.61	5690.6	
370.82	6870.3	
371.02	4052.2	
371.23	3427.6	
371.43	4969.7	
371.64	6326.9	
371.84	4143.7	
372.05	5338.4	
372.25	7729.7	
372.46	6087.2	
372.66	4196.3	
372.87	4067.3	
373.07	6118.6	
373.28	7714	
373.48	5162.2	
373.69	4902.2	
373.9	5563.6	
374.1	5600.5	
374.31	5102.9	
374.51	4696.7	
374.72	6485.9	
374.92	5272.2	
375.13	5307.7	
375.33	4455.7	
375.54	6010.1	
375.74	5459.9	
375.95	4483	
376.15	5855.8	
376.36	6075.6	
376.56	5856.5	
376.77	4627.7	
376.97	5124.7	
377.18	7103.7	
377.38	6180.1	
377.59	5438	
377.79	4128.7	
378	6005.3	
378.2	6447.7	
378.41	4214	
378.61	4136.9	
378.82	6461.3	
379.02	5500.2	
379.23	4362.2	
379.43	5534.3	
379.64	6608.1	
379.84	6141.2	
380.05	4158.7	
380.25	4103.4	
380.46	6240.2	
380.66	5834	
380.87	5544.5	
381.07	5920	
381.28	6848.4	
381.48	6187.6	
381.69	4195.6	
381.89	4260.5	
382.1	5184.1	
382.3	6453.1	
382.51	5362.3	
382.71	6311.2	
382.91	6163	
383.12	6759.7	
383.32	4530.8	
383.53	4795.7	
383.73	6009.4	
383.94	5838.1	
384.14	4681	
384.35	3784.6	
384.55	5759.6	
384.76	6231.3	
384.96	4536.9	
385.17	4863.2	
385.37	6180.1	
385.58	5508.4	
385.78	4834.6	
385.98	3718.4	
386.19	5646.9	
386.39	6084.5	
386.6	4343.7	
386.8	4668.7	
387.01	6278.4	
387.21	6247	
387.42	4998.4	
387.62	5598.5	
387.83	5567.7	
388.03	6210.8	
388.23	4672.1	
388.44	5497.4	
388.64	5291.3	
388.85	5384.8	
389.05	5027.1	
389.26	5685.2	
389.46	7335.1	
389.67	6722.1	
389.87	4982	
390.07	5128.8	
390.28	5905	
390.48	5507.7	
390.69	4270.7	
390.89	4579.9	
391.1	5713.2	
391.3	6670.9	
391.5	5769.8	
391.71	6430.6	
391.91	6367.1	
392.12	7550.2	
392.32	5877.7	
392.53	5017.5	
392.73	5669.5	
392.93	6003.3	
393.14	4713.7	
393.34	5550.7	
393.55	6398.5	
393.75	5901.6	
393.95	4728.1	
394.16	4592.2	
394.36	5707.7	
394.57	6380.8	
394.77	4216.8	
394.98	4681	
395.18	5683.1	
395.38	5840.1	
395.59	5679.7	
395.79	4565.6	
396	5924.1	
396.2	6408.1	
396.4	5442.8	
396.61	5337	
396.81	6567.8	
397.02	5866.1	
397.22	5657.9	
397.42	5735.7	
397.63	6623.1	
397.83	5874.3	
398.04	4536.9	
398.24	5085.1	
398.44	6374	
398.65	5496.7	
398.85	4413.4	
399.05	4502.8	
399.26	5773.9	
399.46	7558.4	
399.67	4882.4	
399.87	4719.2	
400.07	6203.3	
400.28	6609.5	
400.48	4800.4	
400.69	5914.5	
400.89	6774	
401.09	7260.7	
401.3	4625.7	
401.5	5825.1	
401.7	7514	
401.91	7800.7	
402.11	4990.2	
402.32	5162.2	
402.52	6733	
402.72	6663.4	
402.93	5336.3	
403.13	4158.1	
403.33	7461.4	
403.54	6144.6	
403.74	4990.2	
403.94	5953.4	
404.15	6265.4	
404.35	7550.9	
404.56	4966.3	
404.76	6849.8	
404.96	6834.1	
405.17	6677.1	
405.37	5852.4	
405.57	5425.8	
405.78	6860	
405.98	6274.3	
406.18	4924	
406.39	5936.4	
406.59	6774.7	
406.79	6421.7	
407	4806.6	
407.2	4839.4	
407.4	6885.3	
407.61	7174	
407.81	4995	
408.01	7045	
408.22	6037.4	
408.42	8182.3	
408.62	6219	
408.83	5683.8	
409.03	6654.5	
409.23	6502.3	
409.44	5847	
409.64	6090.7	
409.84	7727	
410.05	7595.9	
410.25	6047	
410.45	5713.8	
410.66	7161.7	
410.86	9632.3	
411.06	6309.1	
411.27	6084.5	
411.47	9479.4	
411.67	7387	
411.88	6374	
412.08	6652.5	
412.28	8055.3	
412.49	8488.1	
412.69	6255.9	
412.89	6282.5	
413.09	8422.6	
413.3	8267.6	
413.5	6356.9	
413.7	5824.4	
413.91	7553.6	
414.11	8404.9	
414.31	6152.1	
414.52	6660.7	
414.72	7987.8	
414.92	7944.1	
415.12	6136.4	
415.33	6739.9	
415.53	8331.1	
415.73	8631.5	
415.94	7210.9	
416.14	6523.5	
416.34	7429.3	
416.55	7014.3	
416.75	7746.1	
416.95	7172.7	
417.15	8443.1	
417.36	9217.9	
417.56	8123.6	
417.76	7129.7	
417.97	8946.2	
418.17	8568.7	
418.37	6610.8	
418.57	6710.5	
418.78	8232.2	
418.98	7903.8	
419.18	7486.7	
419.38	7466.9	
419.59	7937.2	
419.79	7546.1	
419.99	6530.3	
420.2	6965.1	
420.4	8553	
420.6	8742.1	
420.8	6499.6	
421.01	6341.9	
421.21	8385.7	
421.41	8527.1	
421.61	6872.3	
421.82	6570.6	
422.02	7863.5	
422.22	8825.4	
422.42	7409.6	
422.63	7045	
422.83	7949.5	
423.03	9193.3	
423.23	7017	
423.44	5953.4	
423.64	8048.5	
423.84	7678.5	
424.04	6397.9	
424.25	6118.6	
424.45	8863.6	
424.65	8917.5	
424.85	5866.7	
425.06	6617	
425.26	8890.2	
425.46	7875.1	
425.66	6902.3	
425.87	6561.7	
426.07	8688.2	
426.27	8413.1	
426.47	6700.3	
426.67	6022.4	
426.88	8925	
427.08	8439.7	
427.28	7012.2	
427.48	6062.7	
427.69	7233.4	
427.89	7974.1	
428.09	7007.5	
428.29	6144.6	
428.5	8658.1	
428.7	8198.7	
428.9	6094.8	
429.1	6733.7	
429.3	8084.7	
429.51	8590.5	
429.71	6358.9	
429.91	7264.8	
430.11	8417.8	
430.31	8795.3	
430.52	6719.4	
430.72	7011.6	
430.92	9089.6	
431.12	8537.3	
431.32	6414.9	
431.53	6720.8	
431.73	7482.6	
431.93	9217.2	
432.13	6358.9	
432.33	6255.9	
432.54	7894.9	
432.74	8386.4	
432.94	6223.1	
433.14	7249.8	
433.34	8482.7	
433.55	8056.7	
433.75	7273.7	
433.95	9075.9	
434.15	8342.7	
434.35	8084	
434.56	6394.4	
434.76	5971.2	
434.96	8293.6	
435.16	8645.8	
435.36	6326.2	
435.56	7559.1	
435.77	8080.6	
435.97	8306.6	
436.17	8387.8	
436.37	7482.6	
436.57	8054.7	
436.78	7985	
436.98	7299	
437.18	8035.5	
437.38	8801.5	
437.58	8228.1	
437.78	8177.5	
437.99	6780.1	
438.19	8684.8	
438.39	9499.8	
438.59	6668.9	
438.79	6107.7	
438.99	9392	
439.2	8242.4	
439.4	6400.6	
439.6	6374	
439.8	8630.8	
440	9812.5	
440.2	7555	
440.4	7772	
440.61	9157.8	
440.81	9651.4	
441.01	6720.8	
441.21	7709.2	
441.41	9592.7	
441.61	9148.3	
441.81	8049.2	
442.02	9116.9	
442.22	10034	
442.42	9189.9	
442.62	6792.4	
442.82	6885.3	
443.02	9641.2	
443.22	8724.3	
443.43	7425.9	
443.63	6980.2	
443.83	8562.6	
444.03	8637.6	
444.23	8318.2	
444.43	7793.9	
444.63	8923.7	
444.83	10180	
445.04	6998.6	
445.24	8428.1	
445.44	9174.2	
445.64	9378.3	
445.84	7712	
446.04	7729.7	
446.24	8474.5	
446.44	9562.6	
446.65	6877.1	
446.85	7289.4	
447.05	8557.8	
447.25	9497.8	
447.45	7492.2	
447.65	6791.1	
447.85	8861.6	
448.05	8436.3	
448.25	7983.7	
448.46	7699.7	
448.66	8895.7	
448.86	8578.9	
449.06	6709.8	
449.26	7954.3	
449.46	9247.9	
449.66	8288.8	
449.86	7470.3	
450.06	7425.9	
450.26	8514.1	
450.47	9153.7	
450.67	7691.5	
450.87	8111.3	
451.07	9255.5	
451.27	8986.5	
451.47	6999.3	
451.67	7635.5	
451.87	8755.1	
452.07	9816.6	
452.27	7308.5	
452.47	7301	
452.67	8983.1	
452.88	9593.4	
453.08	6472.3	
453.28	8662.9	
453.48	10229	
453.68	8891.6	
453.88	7229.3	
454.08	7484.6	
454.28	9499.8	
454.48	9123.7	
454.68	7989.1	
454.88	8563.2	
455.08	9557.9	
455.28	9345.6	
455.48	7131.7	
455.68	7856.7	
455.89	10077	
456.09	9850.7	
456.29	7546.1	
456.49	7621.9	
456.69	10090	
456.89	9161.9	
457.09	8300.4	
457.29	8710	
457.49	9700.5	
457.69	9852.8	
457.89	8178.9	
458.09	7505.1	
458.29	9593.4	
458.49	10290	
458.69	8581.7	
458.89	8005.5	
459.09	10518	
459.29	10628	
459.49	8074.5	
459.69	8926.4	
459.9	10030	
460.1	9669.1	
460.3	7978.9	
460.5	7815	
460.7	10133	
460.9	9901.2	
461.1	7490.1	
461.3	8896.4	
461.5	10949	
461.7	10511	
461.9	8084	
462.1	8508.6	
462.3	9944.9	
462.5	10639	
462.7	8302.5	
462.9	8377.6	
463.1	11781	
463.3	11434	
463.5	8535.9	
463.7	9680.1	
463.9	10367	
464.1	10827	
464.3	8878.6	
464.5	9067.7	
464.7	11029	
464.9	10816	
465.1	10453	
465.3	9435.7	
465.5	11428	
465.7	11402	
465.9	9775.6	
466.1	9488.9	
466.3	11325	
466.5	11067	
466.7	10638	
466.9	9435.7	
467.1	11168	
467.3	12108	
467.5	10675	
467.7	9457.5	
467.9	12372	
468.1	13157	
468.3	10233	
468.5	10692	
468.7	11192	
468.9	11200	
469.1	9792.7	
469.3	10500	
469.5	13211	
469.7	10738	
469.9	10168	
470.1	9502.6	
470.3	11154	
470.5	11228	
470.7	10861	
470.9	9418.6	
471.1	10897	
471.3	11321	
471.5	9363.3	
471.69	11329	
471.89	10713	
472.09	10366	
472.29	10309	
472.49	10431	
472.69	10664	
472.89	11329	
473.09	9265.7	
473.29	9391.3	
473.49	10720	
473.69	10844	
473.89	10278	
474.09	9499.2	
474.29	12028	
474.49	11792	
474.69	10365	
474.89	9630.2	
475.09	10813	
475.29	10809	
475.49	8964.6	
475.69	9166	
475.88	12316	
476.08	11009	
476.28	8925	
476.48	9351	
476.68	11499	
476.88	11238	
477.08	9146.2	
477.28	9602.2	
477.48	10875	
477.68	11498	
477.88	9002.2	
478.08	9218.6	
478.28	11910	
478.48	10969	
478.67	9486.2	
478.87	8753.7	
479.07	11789	
479.27	11019	
479.47	9586.5	
479.67	9693	
479.87	11476	
480.07	12048	
480.27	8920.3	
480.47	10536	
480.67	11151	
480.87	11871	
481.06	9138.7	
481.26	9958.6	
481.46	11004	
481.66	10989	
481.86	9641.2	
482.06	10721	
482.26	10750	
482.46	11856	
482.66	9627.5	
482.86	9170.8	
483.05	11250	
483.25	10530	
483.45	12196	
483.65	9744.9	
483.85	10851	
484.05	11183	
484.25	10200	
484.45	10684	
484.65	12094	
484.84	12121	
485.04	9639.1	
485.24	9704	
485.44	12300	
485.64	10680	
485.84	9073.2	
486.04	10471	
486.24	11146	
486.44	11493	
486.63	8983.8	
486.83	9939.5	
487.03	11144	
487.23	11483	
487.43	9207	
487.63	11734	
487.83	11493	
488.02	12543	
488.22	10286	
488.42	10947	
488.62	12439	
488.82	11274	
489.02	9934.7	
489.22	10091	
489.41	12222	
489.61	11924	
489.81	9667.8	
490.01	9778.4	
490.21	12107	
490.41	12779	
490.61	9586.5	
490.8	9727.9	
491	11497	
491.2	10801	
491.4	10256	
491.6	9379.7	
491.8	11417	
491.99	11624	
492.19	9346.9	
492.39	9788.6	
492.59	12258	
492.79	12402	
492.99	10785	
493.18	9924.5	
493.38	12467	
493.58	13476	
493.78	10820	
493.98	10236	
494.18	12289	
494.37	11956	
494.57	11192	
494.77	10910	
494.97	12725	
495.17	13101	
495.37	10727	
495.56	11011	
495.76	13401	
495.96	12955	
496.16	12050	
496.36	10933	
496.55	13086	
496.75	12658	
496.95	11232	
497.15	11075	
497.35	12961	
497.54	13117	
497.74	11041	
497.94	12792	
498.14	13950	
498.34	13605	
498.53	10782	
498.73	11581	
498.93	12587	
499.13	13228	
499.33	11527	
499.52	12095	
499.72	13252	
499.92	13528	
500.12	11232	
500.32	11339	
500.51	13386	
500.71	13312	
500.91	12313	
501.11	11750	
501.31	13394	
501.5	13753	
501.7	12542	
501.9	11370	
502.1	13133	
502.29	13538	
502.49	11771	
502.69	12086	
502.89	13274	
503.09	13278	
503.28	10651	
503.48	10751	
503.68	12440	
503.88	12540	
504.07	11844	
504.27	11313	
504.47	12902	
504.67	12888	
504.86	11830	
505.06	11319	
505.26	12312	
505.46	14270	
505.65	11097	
505.85	11339	
506.05	12250	
506.25	12603	
506.44	10338	
506.64	11330	
506.84	12096	
507.04	12930	
507.23	10509	
507.43	11193	
507.63	14090	
507.83	12338	
508.02	11104	
508.22	10660	
508.42	14210	
508.62	12001	
508.81	10913	
509.01	11568	
509.21	11792	
509.4	12154	
509.6	11172	
509.8	10651	
510	12186	
510.19	13842	
510.39	10559	
510.59	10698	
510.79	12089	
510.98	13437	
511.18	10725	
511.38	10857	
511.57	12865	
511.77	12674	
511.97	11448	
512.17	10374	
512.36	12749	
512.56	12755	
512.76	10548	
512.95	10167	
513.15	13039	
513.35	11522	
513.55	11447	
513.74	10578	
513.94	12867	
514.14	12279	
514.33	11526	
514.53	11366	
514.73	12184	
514.92	12484	
515.12	10881	
515.32	10580	
515.51	12584	
515.71	13214	
515.91	12542	
516.11	10745	
516.3	14362	
516.5	12292	
516.7	11208	
516.89	11954	
517.09	12315	
517.29	12160	
517.48	11486	
517.68	10912	
517.88	12082	
518.07	12696	
518.27	11517	
518.47	10555	
518.66	13272	
518.86	11915	
519.06	10415	
519.25	10970	
519.45	12198	
519.65	13842	
519.84	11517	
520.04	12222	
520.24	14061	
520.43	12667	
520.63	10991	
520.83	10787	
521.02	11983	
521.22	12637	
521.42	11292	
521.61	11962	
521.81	12158	
522.01	12434	
522.2	11436	
522.4	11096	
522.6	13082	
522.79	11734	
522.99	11247	
523.18	10658	
523.38	12961	
523.58	12895	
523.77	12830	
523.97	10785	
524.17	14943	
524.36	14019	
524.56	12222	
524.76	11873	
524.95	13287	
525.15	12729	
525.34	11709	
525.54	11643	
525.74	13470	
525.93	12516	
526.13	12876	
526.33	11699	
526.52	13885	
526.72	13440	
526.91	12970	
527.11	12351	
527.31	14172	
527.5	14631	
527.7	12376	
527.89	11277	
528.09	13111	
528.29	13708	
528.48	12826	
528.68	12412	
528.87	14007	
529.07	13984	
529.27	12186	
529.46	11506	
529.66	13502	
529.85	13803	
530.05	11270	
530.25	12152	
530.44	14896	
530.64	13403	
530.83	11870	
531.03	12239	
531.23	13898	
531.42	13869	
531.62	13156	
531.81	12277	
532.01	14268	
532.21	14865	
532.4	12216	
532.6	12607	
532.79	15328	
532.99	14480	
533.18	12603	
533.38	13630	
533.58	14102	
533.77	14954	
533.97	12626	
534.16	13466	
534.36	15027	
534.55	14166	
534.75	13639	
534.95	12702	
535.14	14995	
535.34	14003	
535.53	12239	
535.73	14167	
535.92	15428	
536.12	14108	
536.31	12265	
536.51	13549	
536.71	14395	
536.9	14079	
537.1	12512	
537.29	12754	
537.49	14945	
537.68	14029	
537.88	13140	
538.07	12360	
538.27	14396	
538.46	15423	
538.66	12181	
538.86	12737	
539.05	14328	
539.25	14721	
539.44	12913	
539.64	12465	
539.83	13896	
540.03	15086	
540.22	12394	
540.42	12353	
540.61	14141	
540.81	14346	
541	12751	
541.2	13677	
541.39	13781	
541.59	14175	
541.78	13238	
541.98	12174	
542.18	13338	
542.37	13228	
542.57	12418	
542.76	13072	
542.96	13140	
543.15	13954	
543.35	12207	
543.54	11600	
543.74	14175	
543.93	13765	
544.13	12211	
544.32	13466	
544.52	13972	
544.71	13175	
544.91	11302	
545.1	12593	
545.3	13284	
545.49	13953	
545.69	11292	
545.88	11959	
546.08	15007	
546.27	14437	
546.47	12396	
546.66	11647	
546.86	13999	
547.05	14693	
547.24	11877	
547.44	11828	
547.63	12902	
547.83	14138	
548.02	12114	
548.22	12345	
548.41	12751	
548.61	14080	
548.8	11456	
549	11492	
549.19	13287	
549.39	13624	
549.58	10997	
549.78	11881	
549.97	13704	
550.17	13148	
550.36	12553	
550.55	13552	
550.75	13164	
550.94	14060	
551.14	11368	
551.33	11685	
551.53	12519	
551.72	13521	
551.92	11753	
552.11	11579	
552.31	13482	
552.5	13637	
552.69	13276	
552.89	11128	
553.08	13365	
553.28	13146	
553.47	11598	
553.67	12695	
553.86	14078	
554.06	12348	
554.25	10600	
554.44	11317	
554.64	14787	
554.83	14366	
555.03	11297	
555.22	11612	
555.42	13545	
555.61	13282	
555.8	11379	
556	11568	
556.19	12398	
556.39	13691	
556.58	11484	
556.78	11277	
556.97	13145	
557.16	12865	
557.36	12739	
557.55	11019	
557.75	11913	
557.94	13979	
558.13	10991	
558.33	10817	
558.52	13674	
558.72	12411	
558.91	10807	
559.1	11114	
559.3	12155	
559.49	11778	
559.69	10358	
559.88	11434	
560.07	12952	
560.27	13328	
560.46	11624	
560.66	11704	
560.85	12704	
561.04	11781	
561.24	10793	
561.43	11069	
561.63	12095	
561.82	12400	
562.01	12253	
562.21	11372	
562.4	12869	
562.59	14025	
562.79	11154	
562.98	10886	
563.18	12787	
563.37	14420	
563.56	11680	
563.76	10815	
563.95	12259	
564.14	12221	
564.34	11222	
564.53	10992	
564.73	12911	
564.92	13282	
565.11	11370	
565.31	10731	
565.5	13448	
565.69	12332	
565.89	10968	
566.08	11382	
566.27	13194	
566.47	13801	
566.66	11952	
566.85	10542	
567.05	12895	
567.24	12226	
567.44	10917	
567.63	12306	
567.82	13151	
568.02	12964	
568.21	10916	
568.4	11241	
568.6	12732	
568.79	12824	
568.98	10740	
569.18	10925	
569.37	12758	
569.56	14795	
569.76	11168	
569.95	12223	
570.14	13078	
570.34	13005	
570.53	10626	
570.72	10633	
570.91	13458	
571.11	12492	
571.3	11112	
571.49	12136	
571.69	12650	
571.88	12162	
572.07	11708	
572.27	11661	
572.46	12217	
572.65	13292	
572.85	10884	
573.04	11314	
573.23	13661	
573.43	12772	
573.62	10786	
573.81	11445	
574	12943	
574.2	12747	
574.39	11162	
574.58	11382	
574.78	13859	
574.97	13077	
575.16	11822	
575.36	11990	
575.55	13466	
575.74	13670	
575.93	10727	
576.13	12022	
576.32	12767	
576.51	13430	
576.71	11287	
576.9	12652	
577.09	13721	
577.28	13291	
577.48	11931	
577.67	10857	
577.86	12854	
578.05	13314	
578.25	11480	
578.44	11678	
578.63	12980	
578.83	14362	
579.02	10831	
579.21	12482	
579.4	13222	
579.6	12884	
579.79	11770	
579.98	13892	
580.17	13553	
580.37	13820	
580.56	11315	
580.75	11998	
580.94	14268	
581.14	14072	
581.33	12674	
581.52	11402	
581.71	13595	
581.91	14250	
582.1	11169	
582.29	11780	
582.48	13348	
582.68	13216	
582.87	12254	
583.06	11865	
583.25	13571	
583.45	13002	
583.64	12452	
583.83	13207	
584.02	13063	
584.21	13586	
584.41	12508	
584.6	11799	
584.79	13355	
584.98	14139	
585.18	11177	
585.37	11298	
585.56	12874	
585.75	13597	
585.94	11398	
586.14	12093	
586.33	14074	
586.52	13091	
586.71	11675	
586.91	11421	
587.1	12334	
587.29	13644	
587.48	11219	
587.67	11227	
587.87	13101	
588.06	13075	
588.25	12473	
588.44	11553	
588.63	12576	
588.83	13089	
589.02	10706	
589.21	10483	
589.4	11832	
589.59	11619	
589.78	9325.8	
589.98	9525.8	
590.17	11020	
590.36	11612	
590.55	8948.3	
590.74	9745.6	
590.94	13076	
591.13	11524	
591.32	9675.3	
591.51	9288.9	
591.7	12196	
591.89	11541	
592.09	9342.2	
592.28	9846	
592.47	10713	
592.66	12749	
592.85	9392	
593.05	9748.3	
593.24	11445	
593.43	12326	
593.62	9770.2	
593.81	10357	
594	11619	
594.19	11787	
594.39	9676.7	
594.58	9480.7	
594.77	11830	
594.96	12385	
595.15	9372.2	
595.34	10063	
595.54	11760	
595.73	10788	
595.92	8876.6	
596.11	10020	
596.3	12426	
596.49	11096	
596.68	9787.9	
596.88	10375	
597.07	12191	
597.26	10853	
597.45	9220	
597.64	10590	
597.83	11113	
598.02	11783	
598.22	9530.6	
598.41	10174	
598.6	11620	
598.79	11041	
598.98	9579	
599.17	10574	
599.36	11627	
599.55	12882	
599.74	11751	
599.94	11443	
600.13	12305	
600.32	10991	
600.51	9282.8	
600.7	9525.1	
600.89	12854	
601.08	12927	
601.27	9331.2	
601.47	10349	
601.66	12149	
601.85	12918	
602.04	10006	
602.23	10269	
602.42	11297	
602.61	11830	
602.8	9849.4	
602.99	9766.8	
603.18	11610	
603.37	11986	
603.57	10411	
603.76	10983	
603.95	12507	
604.14	12252	
604.33	9801.6	
604.52	10256	
604.71	11796	
604.9	11546	
605.09	10730	
605.28	10632	
605.47	12402	
605.66	12068	
605.86	10442	
606.05	9802.9	
606.24	12437	
606.43	10831	
606.62	10048	
606.81	10922	
607	12257	
607.19	11581	
607.38	9513.5	
607.57	9826.8	
607.76	11303	
607.95	10805	
608.14	10226	
608.33	10694	
608.52	11306	
608.72	12209	
608.91	9299.1	
609.1	9260.9	
609.29	11333	
609.48	10761	
609.67	10346	
609.86	9350.3	
610.05	10803	
610.24	11207	
610.43	9185.8	
610.62	8775.5	
610.81	12387	
611	12230	
611.19	9366.7	
611.38	9958.6	
611.57	11553	
611.76	12936	
611.95	9063.6	
612.14	8839.7	
612.33	11269	
612.52	10810	
612.71	9679.4	
612.9	8825.4	
613.09	10374	
613.28	12943	
613.47	9288.9	
613.66	10391	
613.85	11402	
614.04	10864	
614.24	9456.8	
614.43	8607.6	
614.62	11611	
614.81	11474	
615	10017	
615.19	10101	
615.38	10797	
615.57	11160	
615.76	9825.5	
615.95	10849	
616.14	11546	
616.33	11288	
616.52	10206	
616.71	10458	
616.9	11515	
617.09	11456	
617.28	9535.3	
617.47	10958	
617.66	10694	
617.85	10847	
618.04	10585	
618.22	9904.7	
618.41	11142	
618.6	12197	
618.79	9917.6	
618.98	9675.3	
619.17	12417	
619.36	10677	
619.55	9782.5	
619.74	9725.8	
619.93	11688	
620.12	11109	
620.31	10469	
620.5	10635	
620.69	12370	
620.88	12720	
621.07	11368	
621.26	10329	
621.45	11936	
621.64	11912	
621.83	10437	
622.02	9620.7	
622.21	11897	
622.4	11757	
622.59	10957	
622.78	10724	
622.97	11433	
623.16	12307	
623.35	10456	
623.54	9540.1	
623.72	11467	
623.91	11619	
624.1	10684	
624.29	9268.4	
624.48	12759	
624.67	11951	
624.86	10606	
625.05	9551	
625.24	12752	
625.43	11159	
625.62	12298	
625.81	9749.7	
626	12185	
626.19	11501	
626.38	10490	
626.56	9882.1	
626.75	11168	
626.94	12019	
627.13	10398	
627.32	9018.6	
627.51	11755	
627.7	13198	
627.89	9243.8	
628.08	10358	
628.27	10948	
628.46	11135	
628.65	9620	
628.83	9213.1	
629.02	11736	
629.21	11052	
629.4	10113	
629.59	10208	
629.78	11101	
629.97	12099	
630.16	10403	
630.35	9670.5	
630.54	12433	
630.72	12155	
630.91	9729.9	
631.1	10175	
631.29	11652	
631.48	11744	
631.67	10356	
631.86	9762.7	
632.05	11146	
632.24	11338	
632.42	9500.5	
632.61	10062	
632.8	11402	
632.99	11066	
633.18	10142	
633.37	10508	
633.56	11630	
633.75	11474	
633.93	10108	
634.12	9821.4	
634.31	12492	
634.5	12205	
634.69	9836.4	
634.88	10353	
635.07	11385	
635.25	11942	
635.44	10733	
635.63	10879	
635.82	11282	
636.01	10722	
636.2	10697	
636.39	10157	
636.57	12450	
636.76	11996	
636.95	9665.7	
637.14	11009	
637.33	11651	
637.52	12706	
637.7	9472.5	
637.89	10300	
638.08	11324	
638.27	12810	
638.46	10454	
638.65	10870	
638.83	12675	
639.02	10987	
639.21	10266	
639.4	10905	
639.59	11491	
639.78	11155	
639.96	9529.9	
640.15	9548.3	
640.34	11280	
640.53	11450	
640.72	9128.5	
640.91	9650.7	
641.09	10701	
641.28	12075	
641.47	9483.5	
641.66	10432	
641.85	11369	
642.03	11658	
642.22	10091	
642.41	9536	
642.6	10804	
642.79	10067	
642.97	9116.9	
643.16	9938.1	
643.35	10672	
643.54	10420	
643.73	9032.2	
643.91	9828.2	
644.1	10042	
644.29	10756	
644.48	8970.1	
644.67	9020.6	
644.85	10301	
645.04	10456	
645.23	8419.2	
645.42	8700.5	
645.6	9934	
645.79	11093	
645.98	8641.7	
646.17	7514	
646.36	9438.4	
646.54	10058	
646.73	9329.2	
646.92	8071	
647.11	9613.8	
647.29	10746	
647.48	8124.3	
647.67	7850.5	
647.86	11039	
648.05	11077	
648.23	8473.8	
648.42	9904.7	
648.61	10591	
648.8	10250	
648.98	8202.1	
649.17	8594	
649.36	9706	
649.55	9322.4	
649.73	8221.9	
649.92	9077.3	
650.11	9651.4	
650.3	9902.6	
650.48	8300.4	
650.67	7932.5	
650.86	10205	
651.05	9000.8	
651.23	8284.7	
651.42	8305.9	
651.61	9663.7	
651.79	9770.9	
651.98	8577.6	
652.17	8069	
652.36	10120	
652.54	9149.6	
652.73	8036.2	
652.92	7921.5	
653.11	10146	
653.29	10068	
653.48	7272.3	
653.67	8210.3	
653.85	9749	
654.04	10810	
654.23	8368	
654.42	7800	
654.6	9056.8	
654.79	9595.4	
654.98	7208.2	
655.16	7838.9	
655.35	8635.6	
655.54	8665	
655.73	7473	
655.91	7425.9	
656.1	10008	
656.29	8740.7	
656.47	7030.7	
656.66	8826.7	
656.85	9093.7	
657.03	9133.9	
657.22	7659.4	
657.41	7800	
657.59	9295.7	
657.78	9082.1	
657.97	7336.5	
658.16	8157.1	
658.34	9922.4	
658.53	10313	
658.72	9067	
658.9	9697.1	
659.09	9314.8	
659.28	9476	
659.46	7842.4	
659.65	7842.4	
659.84	9200.2	
660.02	9693.7	
660.21	7727	
660.4	7601.4	
660.58	10090	
660.77	9553.8	
660.96	8350.3	
661.14	7306.5	
661.33	10628	
661.52	10501	
661.7	7244.3	
661.89	11085	
662.08	9067	
662.26	8614.4	
662.45	7540.6	
662.64	7678.5	
662.82	9795.4	
663.01	8927.1	
663.2	7720.2	
663.38	8485.4	
663.57	9650.7	
663.75	9523.7	
663.94	7908.6	
664.13	9260.9	
664.31	8937.3	
664.5	9750.4	
664.69	8173.4	
664.87	8820.6	
665.06	8698.4	
665.25	9533.3	
665.43	8972.2	
665.62	9111.4	
665.8	9719	
665.99	9112.8	
666.18	7926.3	
666.36	8034.9	
666.55	9701.9	
666.74	9646.6	
666.92	7473	
667.11	9151.7	
667.29	9047.2	
667.48	9722.4	
667.67	8783.7	
667.85	7871	
668.04	9084.8	
668.22	9140.8	
668.41	8037.6	
668.6	8069.7	
668.78	8822	
668.97	9116.9	
669.15	8339.3	
669.34	7132.4	
669.53	8914.1	
669.71	9276.6	
669.9	7409.6	
670.08	8097.7	
670.27	8770.8	
670.46	9361.9	
670.64	8227.4	
670.83	8550.3	
671.01	8730.5	
671.2	9417.9	
671.38	7481.2	
671.57	7357.7	
671.76	9984.5	
671.94	10589	
672.13	7331.7	
672.31	8490.2	
672.5	9535.3	
672.69	8700.5	
672.87	7453.2	
673.06	7765.2	
673.24	9389.9	
673.43	8837	
673.61	8215.8	
673.8	7630	
673.98	9581.1	
674.17	9694.4	
674.36	8333.2	
674.54	8141.4	
674.73	9248.6	
674.91	9517.6	
675.1	7901.7	
675.28	7484.6	
675.47	9026.1	
675.65	9685.5	
675.84	7772.7	
676.03	8008.9	
676.21	8800.8	
676.4	8254	
676.58	8566.7	
676.77	8224	
676.95	10316	
677.14	8753.7	
677.32	7471	
677.51	7154.2	
677.69	9551.7	
677.88	8404.9	
678.06	7261.4	
678.25	7376.8	
678.44	9080.7	
678.62	8767.4	
678.81	6980.2	
678.99	8024.6	
679.18	9865.1	
679.36	9452.7	
679.55	7638.9	
679.73	8288.8	
679.92	9322.4	
680.1	8713.4	
680.29	8873.8	
680.47	7626	
680.66	8659.5	
680.84	9542.2	
681.03	6888.7	
681.21	8104.5	
681.4	8665.6	
681.58	8510	
681.77	7267.6	
681.95	7216.4	
682.14	9509.4	
682.32	9918.3	
682.51	8227.4	
682.69	6961	
682.88	8652	
683.06	9230.9	
683.25	7863.5	
683.43	8388.5	
683.62	8851.3	
683.8	9202.9	
683.99	8271.1	
684.17	7511.3	
684.36	9899.9	
684.54	8423.3	
684.73	6374	
684.91	6558.3	
685.1	8542.8	
685.28	8003.5	
685.46	7120.1	
685.65	7258	
685.83	8841.8	
686.02	8221.9	
686.2	6766.5	
686.39	6991.1	
686.57	7931.1	
686.76	9564	
686.94	6773.3	
687.13	6954.2	
687.31	8828.1	
687.5	8350.3	
687.68	6400.6	
687.86	7746.1	
688.05	9957.2	
688.23	7826	
688.42	7731.8	
688.6	6847.7	
688.79	8268.3	
688.97	8197.3	
689.16	7348.8	
689.34	6300.2	
689.52	9086.2	
689.71	9192	
689.89	7633.5	
690.08	6872.3	
690.26	8454.7	
690.45	8270.4	
690.63	7646.4	
690.81	6901	
691	8077.2	
691.18	7944.1	
691.37	6995.2	
691.55	9279.3	
691.74	7959.1	
691.92	10023	
692.1	7068.9	
692.29	6566.5	
692.47	8239.7	
692.66	7478.5	
692.84	6772.6	
693.02	7510.6	
693.21	7686	
693.39	8183	
693.58	7480.5	
693.76	6961.7	
693.94	9551.7	
694.13	9369.5	
694.31	7025.9	
694.5	8092.2	
694.68	8242.4	
694.86	8562.6	
695.05	7362.4	
695.23	7470.3	
695.42	9030.2	
695.6	11356	
695.78	7935.2	
695.97	6913.9	
696.15	8882.7	
696.34	8140	
696.52	6638.8	
696.7	7507.2	
696.89	8597.4	
697.07	7914	
697.25	7374.7	
697.44	9013.1	
697.62	8430.1	
697.81	8841.1	
697.99	7002.7	
698.17	7485.3	
698.36	7763.8	
698.54	8474.5	
698.72	7404.1	
698.91	6333	
699.09	8090.8	
699.28	7928.4	
699.46	7019.8	
699.64	6854.6	
699.83	7852.6	
700.01	9151.7	
700.19	7715.4	
700.38	6189.6	
700.56	9256.8	
700.74	8075.1	
700.93	6582.2	
701.11	7495.6	
701.29	8609.7	
701.48	9777.7	
701.66	6816.3	
701.84	6903	
702.03	8166.6	
702.21	8851.3	
702.39	6412.2	
702.58	7000	
702.76	8540.7	
702.94	8703.2	
703.13	6401.3	
703.31	8985.8	
703.49	7774.8	
703.68	8889.5	
703.86	6596.5	
704.04	7619.1	
704.23	8462.9	
704.41	8857.5	
704.59	6736.5	
704.78	7991.9	
704.96	9625.5	
705.14	8766.7	
705.33	6571.9	
705.51	7419.1	
705.69	8271.1	
705.87	9140.1	
706.06	7662.1	
706.24	6504.3	
706.42	8604.2	
706.61	8862.9	
706.79	7699.7	
706.97	6443.6	
707.16	7983.7	
707.34	8641.7	
707.52	7708.6	
707.7	6733.7	
707.89	8216.5	
708.07	7811.6	
708.25	7628	
708.44	7787.7	
708.62	8118.8	
708.8	9357.9	
708.98	7941.3	
709.17	6867.5	
709.35	8471.8	
709.53	8512.7	
709.72	6507.1	
709.9	6653.2	
710.08	8748.2	
710.26	8754.4	
710.45	8144.8	
710.63	6804.7	
710.81	8313.4	
710.99	8311.3	
711.18	7437.5	
711.36	6825.9	
711.54	8054	
711.72	8800.1	
711.91	6818.4	
712.09	6283.9	
712.27	8073.8	
712.45	9250	
712.64	7137.9	
712.82	5969.8	
713	7496.2	
713.18	7593.9	
713.37	5925.5	
713.55	7090.8	
713.73	8225.3	
713.91	6681.2	
714.1	6113.9	
714.28	5523.4	
714.46	7675.1	
714.64	6781.5	
714.83	4877.6	
715.01	5691.3	
715.19	6905.1	
715.37	6303.6	
715.55	5324	
715.74	5733.6	
715.92	7829.4	
716.1	5853.1	
716.28	6836.8	
716.47	5894.7	
716.65	6527.6	
716.83	6565.1	
717.01	5717.2	
717.19	5795.1	
717.38	8823.3	
717.56	6346	
717.74	6113.2	
717.92	5282.4	
718.1	7790.5	
718.29	6963.1	
718.47	4930.8	
718.65	5722	
718.83	7761.8	
719.01	7691.5	
719.2	4805.2	
719.38	6032.6	
719.56	7332.4	
719.74	8905.3	
719.92	5425.8	
720.11	6528.2	
720.29	7206.1	
720.47	6307.1	
720.65	4824.3	
720.83	5799.8	
721.02	6602.7	
721.2	6397.9	
721.38	5762.3	
721.56	5033.2	
721.74	5829.9	
721.92	6110.5	
722.11	6355.5	
722.29	6019.7	
722.47	7353.6	
722.65	6486.6	
722.83	5121.3	
723.01	5978	
723.2	6621.8	
723.38	6880.5	
723.56	4517.1	
723.74	5760.3	
723.92	6126.8	
724.1	7281.2	
724.29	5001.1	
724.47	6153.5	
724.65	6156.2	
724.83	6044.2	
725.01	4878.9	
725.19	5849.7	
725.37	6168.5	
725.56	6227.2	
725.74	4689.8	
725.92	4992.3	
726.1	6029.2	
726.28	6346.7	
726.46	5478.3	
726.64	5199.8	
726.83	6373.3	
727.01	6679.8	
727.19	4763.6	
727.37	5553.4	
727.55	6437.4	
727.73	7048.4	
727.91	4737.6	
728.09	4574.5	
728.28	7140.6	
728.46	7825.3	
728.64	5832.6	
728.82	5740.5	
729	8297	
729.18	7619.8	
729.36	4984.1	
729.54	7486.7	
729.72	8674.5	
729.91	6898.9	
730.09	7109.9	
730.27	5828.5	
730.45	6797.2	
730.63	7545.4	
730.81	6512.5	
730.99	5511.8	
731.17	8023.9	
731.35	6543.9	
731.53	5965.1	
731.71	5561.6	
731.9	7662.1	
732.08	7976.8	
732.26	5842.9	
732.44	5537	
732.62	7916.1	
732.8	7468.3	
732.98	6326.2	
733.16	5221.6	
733.34	7433.4	
733.52	6133	
733.7	5782.8	
733.88	6154.1	
734.07	7301	
734.25	7062.8	
734.43	5261.2	
734.61	6956.9	
734.79	8733.9	
734.97	6952.9	
735.15	5477	
735.33	5795.1	
735.51	7363.1	
735.69	7001.3	
735.87	7520.1	
736.05	6064	
736.23	7162.4	
736.41	6956.3	
736.59	5909.8	
736.77	5945.9	
736.95	7707.2	
737.13	7082.6	
737.32	5541.1	
737.5	5788.9	
737.68	8198.7	
737.86	7016.3	
738.04	5378	
738.22	7359	
738.4	6730.3	
738.58	7025.9	
738.76	6036	
738.94	4984.8	
739.12	7020.4	
739.3	6830	
739.48	6605.4	
739.66	6404	
739.84	7223.9	
740.02	7139.9	
740.2	5066.7	
740.38	5456.5	
740.56	7560.4	
740.74	6431.3	
740.92	6152.1	
741.1	6104.3	
741.28	7057.3	
741.46	6865.5	
741.64	5683.8	
741.82	6256.5	
742	7100.3	
742.18	7135.8	
742.36	5825.1	
742.54	5412.8	
742.72	7715.4	
742.9	6341.9	
743.08	6329.6	
743.26	5040.7	
743.44	7922.9	
743.62	7657.4	
743.8	6426.5	
743.98	5433.3	
744.16	7409.6	
744.34	6987.7	
744.52	6304.3	
744.7	6295.5	
744.88	7511.3	
745.06	7028.6	
745.24	6371.9	
745.42	6406.7	
745.6	7595.9	
745.78	7264.1	
745.96	5090.6	
746.14	5452.4	
746.32	8368	
746.5	7569.3	
746.68	6109.8	
746.86	5487.9	
747.03	8034.9	
747.21	6251.8	
747.39	6005.3	
747.57	5533.6	
747.75	7206.1	
747.93	7621.2	
748.11	5443.5	
748.29	5414.1	
748.47	8834.9	
748.65	6875.7	
748.83	6230.6	
749.01	6036	
749.19	7471.7	
749.37	6566.5	
749.55	5874.3	
749.73	5937.1	
749.91	7092.8	
750.09	6752.2	
750.26	5942.5	
750.44	5342.5	
750.62	7101	
750.8	6965.1	
750.98	5117.2	
751.16	5558.9	
751.34	7144.7	
751.52	6494.8	
751.7	6395.1	
751.88	5127.4	
752.06	7702.4	
752.24	7348.1	
752.42	5059.2	
752.59	5489.9	
752.77	6935.1	
752.95	8378.2	
753.13	6282.5	
753.31	5625.8	
753.49	6685.3	
753.67	7253.9	
753.85	5911.1	
754.03	5473.5	
754.21	7436.9	
754.38	7828.7	
754.56	5666.7	
754.74	4605.9	
754.92	6565.1	
755.1	7358.4	
755.28	4476.2	
755.46	4343.1	
755.64	7720.2	
755.82	7744.1	
755.99	4398.4	
756.17	4552	
756.35	5040.1	
756.53	6673.6	
756.71	3340.9	
756.89	4323.9	
757.07	6297.5	
757.25	5336.3	
757.42	4962.9	
757.6	5922.7	
757.78	6439.5	
757.96	5373.2	
758.14	4756.7	
758.32	4188.8	
758.5	4967	
758.67	5783.5	
758.85	4474.8	
759.03	4612.7	
759.21	5988.3	
759.39	5369.8	
759.57	4052.9	
759.75	5278.3	
759.92	6640.9	
760.1	5862.7	
760.28	5736.4	
760.46	5980.1	
760.64	5739.1	
760.82	5482.4	
760.99	5425.1	
761.17	4745.1	
761.35	6694.8	
761.53	5657.2	
761.71	4911	
761.89	5700.2	
762.06	6651.1	
762.24	6097.5	
762.42	5042.8	
762.6	4847.5	
762.78	6242.9	
762.96	6870.9	
763.13	5583.4	
763.31	5248.3	
763.49	7110.5	
763.67	6182.8	
763.85	6056.5	
764.02	6793.8	
764.2	7436.2	
764.38	6533	
764.56	5175.2	
764.74	6096.1	
764.91	7583.6	
765.09	6382.2	
765.27	4818.2	
765.45	4597	
765.63	7603.4	
765.8	7417.1	
765.98	4380.6	
766.16	4713.1	
766.34	5930.9	
766.52	5726.8	
766.69	5698.8	
766.87	4482.3	
767.05	6343.9	
767.23	7078.5	
767.41	4849.6	
767.58	5104.2	
767.76	6917.4	
767.94	6997.9	
768.12	4881	
768.29	5775.3	
768.47	6352.8	
768.65	7167.9	
768.83	4475.5	
769	5748	
769.18	5892.7	
769.36	6612.9	
769.54	5442.8	
769.72	4514.4	
769.89	6888.7	
770.07	7033.4	
770.25	4824.3	
770.43	6199.2	
770.6	7702.4	
770.78	8219.2	
770.96	5031.9	
771.14	5732.9	
771.31	6772.6	
771.49	6133	
771.67	4173.8	
771.85	4376.5	
772.02	5371.1	
772.2	6207.4	
772.38	5157.5	
772.55	4665.3	
772.73	6383.5	
772.91	6111.1	
773.09	5016.8	
773.26	5124	
773.44	6363.7	
773.62	5980.8	
773.8	4511	
773.97	4227	
774.15	6322.8	
774.33	5970.5	
774.5	4395.6	
774.68	4698.7	
774.86	6567.8	
775.04	5949.3	
775.21	4454.3	
775.39	4430.4	
775.57	6211.5	
775.74	6694.8	
775.92	4216.1	
776.1	4168.3	
776.27	6198.5	
776.45	7567.2	
776.63	4389.5	
776.81	3903.4	
776.98	5816.9	
777.16	6968.6	
777.34	4581.3	
777.51	4469.4	
777.69	5800.5	
777.87	5552.7	
778.04	4571.1	
778.22	5210	
778.4	5593	
778.57	6331	
778.75	3779.2	
778.93	4078.2	
779.1	5364.3	
779.28	5215.5	
779.46	3803.8	
779.64	4283	
779.81	6421.7	
779.99	7277.1	
780.17	5189.6	
780.34	5313.8	
780.52	5844.9	
780.69	6036	
780.87	4656.4	
781.05	4165.6	
781.22	5865.4	
781.4	5905	
781.58	4315.1	
781.75	3412.6	
781.93	5803.3	
782.11	5272.8	
782.28	5204.6	
782.46	4255.7	
782.64	5128.1	
782.81	6068.8	
782.99	4402.5	
783.17	4304.1	
783.34	5912.5	
783.52	5140.4	
783.69	4560.1	
783.87	5359.5	
784.05	5124.7	
784.22	5167	
784.4	5386.2	
784.58	4674.1	
784.75	6165.8	
784.93	5200.5	
785.1	4235.2	
785.28	4926	
785.46	5932.3	
785.63	5157.5	
785.81	4160.8	
785.99	4041.3	
786.16	5363.6	
786.34	5822.4	
786.51	4103.4	
786.69	4549.2	
786.87	4919.2	
787.04	5468.1	
787.22	3934.1	
787.39	4904.9	
787.57	5154.1	
787.75	6325.5	
787.92	5093.3	
788.1	5036	
788.27	5224.4	
788.45	5003.2	
788.63	4713.7	
788.8	3405.8	
788.98	5598.5	
789.15	4835.9	
789.33	3582.6	
789.5	4171.7	
789.68	6138.4	
789.86	6298.2	
790.03	4643.4	
790.21	4054.3	
790.38	6069.5	
790.56	5299.5	
790.73	3926.6	
790.91	3986	
791.09	5139	
791.26	5968.5	
791.44	4151.2	
791.61	3601	
791.79	5175.9	
791.96	5247.6	
792.14	3698.6	
792.32	3229	
792.49	5167.7	
792.67	5277.6	
792.84	3772.4	
793.02	3553.9	
793.19	6052.4	
793.37	6373.3	
793.54	3320.4	
793.72	3678.2	
793.89	6497.5	
794.07	5149.3	
794.25	4353.3	
794.42	3363.4	
794.6	6296.1	
794.77	5902.9	
794.95	4528.1	
795.12	4027.7	
795.3	5124	
795.47	5758.9	
795.65	4415.4	
795.82	4194.9	
796	4950.6	
796.17	6944.7	
796.35	4055.7	
796.52	4801.8	
796.7	5706.3	
796.87	5799.2	
797.05	5018.9	
797.22	4907.6	
797.4	5770.5	
797.57	6744.6	
797.75	4219.5	
797.92	3990.1	
798.1	6100.2	
798.27	5098.1	
798.45	3327.9	
798.62	3629	
798.8	5470.8	
798.97	5962.3	
799.15	4461.8	
799.32	4207.2	
799.5	4654.4	
799.67	5507.7	
799.85	4582.7	
800.02	3315.7	
800.2	5048.9	
800.37	5387.5	
800.55	4728.8	
800.72	3960.1	
800.9	5897.5	
801.07	6313.9	
801.25	5297.4	
801.42	4312.3	
801.6	5967.1	
801.77	5661.3	
801.95	3837.2	
802.12	3812	
802.29	5611.4	
802.47	5632.6	
802.64	4235.9	
802.82	3267.9	
802.99	5020.3	
803.17	6070.9	
803.34	4162.8	
803.52	3780.6	
803.69	6803.4	
803.87	4854.4	
804.04	4189.5	
804.21	4195.6	
804.39	6232.7	
804.56	5269.4	
804.74	3552.5	
804.91	4369.7	
805.09	5111	
805.26	5222.3	
805.44	3573.7	
805.61	4015.4	
805.78	5804.6	
805.96	5860.6	
806.13	4364.9	
806.31	4698	
806.48	4629.8	
806.66	5243.5	
806.83	4288.4	
807	4252.9	
807.18	5040.1	
807.35	5510.4	
807.53	4145.1	
807.7	3297.2	
807.87	6281.8	
808.05	5137	
808.22	4614.1	
808.4	3362.8	
808.57	5162.9	
808.74	4766.3	
808.92	3801	
809.09	4885.8	
809.27	4966.3	
809.44	5614.8	
809.61	3407.1	
809.79	3721.2	
809.96	6247	
810.14	5898.8	
810.31	3255.6	
810.48	4025.6	
810.66	5206.6	
810.83	5977.3	
811.01	3807.2	
811.18	4270.7	
811.35	5889.3	
811.53	4579.3	
811.7	4683	
811.87	4337.6	
812.05	5144.5	
812.22	5103.5	
812.39	3660.4	
812.57	3536.8	
812.74	5154.7	
812.92	6792.4	
813.09	3968.3	
813.26	4390.8	
813.44	6570.6	
813.61	5078.3	
813.78	3392.8	
813.96	4539	
814.13	5119.9	
814.3	4798.4	
814.48	4912.4	
814.65	4007.9	
814.82	6445.6	
815	4869.4	
815.17	4145.1	
815.34	5063.9	
815.52	5012.7	
815.69	5027.8	
815.87	4080.2	
816.04	3564.8	
816.21	5171.8	
816.38	4509.6	
816.56	3960.8	
816.73	3665.2	
816.9	6487.3	
817.08	5904.3	
817.25	3768.9	
817.42	4708.3	
817.6	4696.7	
817.77	5113.8	
817.94	4265.2	
818.12	3654.9	
818.29	4825	
818.46	7669	
818.64	3857.7	
818.81	3586	
818.98	4764.3	
819.16	7068.2	
819.33	4476.2	
819.5	4123.2	
819.67	5514.5	
819.85	6193.7	
820.02	4112.3	
820.19	4301.4	
820.37	5360.2	
820.54	4907.6	
820.71	4219.5	
820.88	5181.4	
821.06	5351.3	
821.23	4879.6	
821.4	4258.4	
821.58	4163.5	
821.75	5929.6	
821.92	5283.8	
822.09	3318.4	
822.27	3491.1	
822.44	5171.1	
822.61	5024.3	
822.79	3414.6	
822.96	6603.3	
823.13	5654.4	
823.3	4858.5	
823.48	3992.2	
823.65	3541.6	
823.82	5819.6	
823.99	4672.8	
824.17	4995.7	
824.34	3584.6	
824.51	6684.6	
824.68	5215.5	
824.86	3745.1	
825.03	4205.2	
825.2	5071.5	
825.37	6257.2	
825.55	3730.7	
825.72	4156	
825.89	6937.8	
826.06	6361	
826.24	4043.4	
826.41	4040.6	
826.58	6282.5	
826.75	5384.1	
826.92	3134.1	
827.1	3532.7	
827.27	8488.1	
827.44	6806.8	
827.61	3859.1	
827.79	4671.4	
827.96	4858.5	
828.13	5228.5	
828.3	4047.5	
828.47	3355.3	
828.65	5371.8	
828.82	5334.3	
828.99	5255.8	
829.16	4501.4	
829.34	5755.5	
829.51	5503.6	
829.68	4192.9	
829.85	4326.7	
830.02	6043.6	
830.2	5752.7	
830.37	3218.7	
830.54	5081	
830.71	6586.3	
830.88	5149.3	
831.05	3236.5	
831.23	3788.1	
831.4	6315.9	
831.57	7038.2	
831.74	3835.8	
831.91	3354.6	
832.09	5344.5	
832.26	5793.7	
832.43	3928	
832.6	4515.1	
832.77	5360.9	
832.94	6201.2	
833.12	3159.3	
833.29	3959.4	
833.46	5020.3	
833.63	7380.2	
833.8	4322.6	
833.97	4000.4	
834.15	5703.6	
834.32	5561.6	
834.49	4179.2	
834.66	4278.9	
834.83	6012.2	
835	4853.7	
835.17	3837.2	
835.35	3941	
835.52	5654.4	
835.69	5571.2	
835.86	4092.5	
836.03	3314.3	
836.2	5658.5	
836.37	5311.7	
836.55	4031.8	
836.72	3761.4	
836.89	5300.1	
837.06	5775.3	
837.23	4049.5	
837.4	4473.4	
837.57	6609.5	
837.75	7342	
837.92	3657	
838.09	3908.9	
838.26	5328.8	
838.43	6072.2	
838.6	4263.2	
838.77	3704.1	
838.94	6962.4	
839.11	6618.4	
839.29	3990.8	
839.46	3097.2	
839.63	5664	
839.8	5451.7	
839.97	3849.5	
840.14	3856.3	
840.31	5487.2	
840.48	5803.3	
840.65	3215.3	
840.82	3783.3	
841	5751.4	
841.17	5765.7	
841.34	3622.9	
841.51	3598.3	
841.68	5616.2	
841.85	5462.6	
842.02	3709.6	
842.19	3082.9	
842.36	5494	
842.53	5514.5	
842.7	3585.3	
842.87	4397	
843.05	7251.9	
843.22	5435.3	
843.39	3405.1	
843.56	3638.6	
843.73	5154.7	
843.9	5806	
844.07	5790.3	
844.24	4873.5	
844.41	8546.2	
844.58	4977.9	
844.75	3456.3	
844.92	3745.7	
845.09	5728.2	
845.26	5683.8	
845.43	3499.3	
845.6	3715.7	
845.77	5741.8	
845.94	5454.4	
846.12	3907.5	
846.29	4155.3	
846.46	5988.9	
846.63	5717.9	
846.8	3583.9	
846.97	4226.3	
847.14	6219.7	
847.31	5726.8	
847.48	3992.9	
847.65	4412.7	
847.82	6013.5	
847.99	5995.8	
848.16	4743.8	
848.33	4413.4	
848.5	5250.3	
848.67	6255.9	
848.84	3448.8	
849.01	3694.5	
849.18	5146.5	
849.35	4845.5	
849.52	4455	
849.69	3469.3	
849.86	5907	
850.03	6145.3	
850.2	3620.1	
850.37	4351.9	
850.54	6052.4	
850.71	5440.8	
850.88	4246.1	
851.05	3513.6	
851.22	5633.3	
851.39	6287.3	
851.56	3334.8	
851.73	4029	
851.9	4987.5	
852.07	5972.6	
852.24	3924.6	
852.41	3506.8	
852.58	5582.8	
852.75	5115.1	
852.92	3967.6	
853.09	3443.3	
853.26	5294.7	
853.43	6217	
853.6	3511.6	
853.77	2962.7	
853.94	6276.3	
854.11	4995.7	
854.28	5270.8	
854.44	3803.8	
854.61	6736.5	
854.78	5767.1	
854.95	3525.2	
855.12	4453	
855.29	4597	
855.46	6292.7	
855.63	3479.5	
855.8	4969.7	
855.97	5283.1	
856.14	6059.3	
856.31	5012.1	
856.48	3851.5	
856.65	5280.3	
856.82	5005.9	
856.99	3372.3	
857.16	3814	
857.33	6993.8	
857.49	5361.6	
857.66	3830.4	
857.83	4147.8	
858	5296	
858.17	5464	
858.34	3317	
858.51	3580.5	
858.68	6505.7	
858.85	6461.3	
859.02	4150.6	
859.19	4332.1	
859.36	4985.4	
859.52	5058.5	
859.69	3601.7	
859.86	4148.5	
860.03	5027.8	
860.2	6316.6	
860.37	3147	
860.54	3621.5	
860.71	5930.2	
860.88	6417.7	
861.05	4018.8	
861.21	4481	
861.38	6462.7	
861.55	4916.5	
861.72	3230.3	
861.89	4003.8	
862.06	6058.6	
862.23	6571.9	
862.4	3470.6	
862.56	3717.7	
862.73	5856.5	
862.9	5451	
863.07	4192.9	
863.24	3194.8	
863.41	4928.8	
863.58	5001.8	
863.75	3624.9	
863.91	4132.1	
864.08	6315.3	
864.25	5931.6	
864.42	4461.2	
864.59	4958.1	
864.76	6754.9	
864.93	4986.1	
865.09	3475.4	
865.26	3773	
865.43	6186.2	
865.6	6625.2	
865.77	3098.6	
865.94	3482.2	
866.1	6252.4	
866.27	5995.8	
866.44	5309.7	
866.61	3360.7	
866.78	5441.5	
866.95	5892	
867.11	3414.6	
867.28	3097.2	
867.45	6035.4	
867.62	5120.6	
867.79	4101.4	
867.96	3508.9	
868.12	4988.9	
868.29	6004.6	
868.46	3037.1	
868.63	4755.4	
868.8	6200.6	
868.97	5957.5	
869.13	3678.2	
869.3	3670	
869.47	5846.3	
869.64	6113.2	
869.81	3566.2	
869.97	3537.5	
870.14	5640.8	
870.31	6369.9	
870.48	3446	
870.65	4433.9	
870.81	5300.8	
870.98	5304.9	
871.15	4018.8	
871.32	3654.3	
871.48	5816.9	
871.65	6438.1	
871.82	3528	
871.99	3923.9	
872.16	6893.5	
872.32	6244.3	
872.49	3581.2	
872.66	3560.7	
872.83	5943.9	
872.99	5240.1	
873.16	4076.8	
873.33	3498.6	
873.5	5568.4	
873.67	5572.5	
873.83	3738.2	
874	4802.5	
874.17	5745.2	
874.34	6804.7	
874.5	4592.2	
874.67	4407.9	
874.84	6410.1	
875.01	5009.3	
875.17	5028.4	
875.34	3536.8	
875.51	5642.2	
875.68	6865.5	
875.84	4287.8	
876.01	5225.1	
876.18	5935.7	
876.34	5842.2	
876.51	3581.2	
876.68	3465.8	
876.85	5388.2	
877.01	6244.3	
877.18	5072.1	
877.35	3445.4	
877.52	5560.2	
877.68	4941.7	
877.85	3420.1	
878.02	3431	
878.18	5515.2	
878.35	5221.6	
878.52	2833	
878.69	3985.3	
878.85	5991	
879.02	5887.9	
879.19	5040.1	
879.35	3881.6	
879.52	5919.3	
879.69	6141.9	
879.86	3049.4	
880.02	3941	
880.19	5489.2	
880.36	6662.7	
880.52	4060.4	
880.69	4183.3	
880.86	5996.5	
881.02	6122.7	
881.19	3885	
881.36	3901.4	
881.52	5917.9	
881.69	5227.1	
881.86	3764.2	
882.02	3761.4	
882.19	6167.8	
882.36	7259.4	
882.52	3607.2	
882.69	5064.6	
882.86	5711.8	
883.02	5571.2	
883.19	4305.5	
883.36	4042.7	
883.52	6089.3	
883.69	6891.4	
883.86	3576.4	
884.02	3181.9	
884.19	6014.9	
884.36	5544.5	
884.52	3985.3	
884.69	3717.7	
884.86	5216.2	
885.02	6615.6	
885.19	3971.7	
885.36	4100.7	
885.52	5531.6	
885.69	5651	
885.86	5158.8	
886.02	4607.9	
886.19	5974.6	
886.35	5455.1	
886.52	3870.7	
886.69	4960.2	
886.85	5081.7	
887.02	6363	
887.19	6363	
887.35	6363	
887.52	6363	
887.68	6363	
887.85	6363	
888.02	6363	
888.18	6363	
888.35	6363	
888.51	6363	
888.68	6363	
888.85	6363	
889.01	6363	
889.18	6363	
889.35	6363	
889.51	6363	
889.68	6363	
889.84	6363	
890.01	6363	
890.17	6363	
890.34	6363	
890.51	6363	
890.67	6363	
890.84	6363	
891	6363	
891.17	6363	
891.34	6363	
891.5	6363	
891.67	6363	
891.83	6363	
892	6363	
892.16	6363	
892.33	6363	
892.5	6363	
892.66	6363	
892.83	6363	
892.99	6363	
893.16	6363	
893.32	6363	
893.49	6363	
893.65	6363	
893.82	6363	
893.99	6363	
894.15	6363	
894.32	6363	
894.48	6363	
894.65	6363	
894.81	6363	
894.98	6363	
895.14	6363	
895.31	6363	
895.47	6363	
895.64	6363	
895.81	6363	
895.97	6363	
896.14	6363	
896.3	6363	
896.47	6363	
896.63	6363	
896.8	6363	
896.96	6363	
897.13	6363	
897.29	6363	
897.46	6363	
897.62	6363	
897.79	6363	
897.95	6363	
898.12	6363	
898.28	6363	
898.45	6363	
898.61	6363	
898.78	6363	
898.94	6363	
899.11	6363	
899.27	6363	
899.44	6363	
899.6	6363	
899.77	6363	
899.93	6363	
900.1	6363	
900.26	6363	
900.43	6363	
900.59	6363	
900.76	6363	
900.92	6363	
901.09	6363	
901.25	6363	
901.42	6363	
901.58	6363	
901.75	6363	
901.91	6363	
902.07	6363	
902.24	6363	
902.4	6363	
902.57	6363	
902.73	6363	
902.9	6363	
903.06	6363	
903.23	6363	
903.39	6363	
903.56	6363	
903.72	6363	
903.88	6363	
904.05	6363	
904.21	6363	
904.38	6363	
904.54	6363	
904.71	6363	
904.87	6363	
905.03	6363	
905.2	6363	
905.36	6363	
905.53	6363	
905.69	6363	
905.86	6363	
906.02	6363	
906.18	6363	
906.35	6363	
906.51	6363	
906.68	6363	
906.84	6363	
907.01	6363	
907.17	6363	
907.33	6363	
907.5	6363	
907.66	6363	
907.83	6363	
907.99	6363	
908.15	6363	
908.32	6363	
908.48	6363	
908.65	6363	
908.81	6363	
908.97	6363	
909.14	6363	
909.3	6363	
909.47	6363	
909.63	6363	
909.79	6363	
909.96	6363	
910.12	6363	
910.28	6363	
910.45	6363	
910.61	6363	
910.78	6363	
910.94	6363	
911.1	6363	
911.27	6363	
911.43	6363	
911.59	6363	
911.76	6363	
911.92	6363	
912.08	6363	
912.25	6363	
912.41	6363	
912.57	6363	
912.74	6363	
912.9	6363	
913.07	6363	
913.23	6363	
913.39	6363	
913.56	6363	
913.72	6363	
913.88	6363	
914.05	6363	
914.21	6363	
914.37	6363	
914.54	6363	
914.7	6363	
914.86	6363	
915.03	6363	
915.19	6363	
