Wavelength	Intensities	
nm	a.u.	
179.22	1821	
179.44	1814.5	
179.65	1827.5	
179.86	1801.5	
180.08	1780.4	
180.29	4326.7	
180.51	3170.3	
180.72	5265.3	
180.94	6052.4	
181.15	2897.9	
181.37	2884.9	
181.58	5100.1	
181.79	5359.5	
182.01	3066.5	
182.22	3256.3	
182.44	5302.9	
182.65	4524	
182.87	3979.9	
183.08	3543.7	
183.29	5598.5	
183.51	4681.7	
183.72	3306.1	
183.94	4635.2	
184.15	5059.8	
184.37	5032.5	
184.58	2885.6	
184.79	3935.5	
185.01	4741.7	
185.22	5343.8	
185.44	4151.2	
185.65	3551.2	
185.86	4977.9	
186.08	4583.4	
186.29	2818	
186.51	3112.2	
186.72	4770.4	
186.94	5530.2	
187.15	3536.8	
187.36	3586.7	
187.58	6990.4	
187.79	5109.7	
188.01	3761.4	
188.22	5671.5	
188.43	6105	
188.65	5350.7	
188.86	3072	
189.08	3640.6	
189.29	4855.7	
189.5	4887.8	
189.72	3353.9	
189.93	3426.9	
190.15	5526.1	
190.36	6472.9	
190.57	3637.2	
190.79	3568.2	
191	5627.1	
191.22	5524.1	
191.43	3650.2	
191.64	3153.9	
191.86	5754.1	
192.07	5514.5	
192.29	3174.4	
192.5	3365.5	
192.71	5495.4	
192.93	4829.8	
193.14	3334.8	
193.35	3388.7	
193.57	4788.8	
193.78	5486.5	
194	2729.9	
194.21	3256.3	
194.42	4689.8	
194.64	5037.3	
194.85	3634.5	
195.07	4171.7	
195.28	5087.2	
195.49	4461.8	
195.71	4371	
195.92	3180.5	
196.13	5234.6	
196.35	5292	
196.56	4689.2	
196.78	3583.3	
196.99	6376.7	
197.2	6012.2	
197.42	4044.1	
197.63	3644.7	
197.84	4580.6	
198.06	5197.1	
198.27	3319.1	
198.48	4400.4	
198.7	4838	
198.91	4962.2	
199.13	3650.2	
199.34	3652.2	
199.55	5427.8	
199.77	4378.6	
199.98	3236.5	
200.19	3667.9	
200.41	4967	
200.62	4706.9	
200.83	3817.4	
201.05	4047.5	
201.26	4980	
201.47	4739.7	
201.69	3294.5	
201.9	3137.5	
202.11	5081.7	
202.33	5919.3	
202.54	3416	
202.76	3832.4	
202.97	5116.5	
203.18	5163.6	
203.4	3799.7	
203.61	3725.3	
203.82	5160.2	
204.04	4733.5	
204.25	3657.7	
204.46	3562.1	
204.68	5066	
204.89	5213.4	
205.1	3526.6	
205.32	3115.6	
205.53	5392.3	
205.74	5556.1	
205.96	2711.5	
206.17	3650.2	
206.38	5362.9	
206.6	5437.4	
206.81	4134.2	
207.02	3390.1	
207.24	5236	
207.45	5599.8	
207.66	3487	
207.88	3044	
208.09	5232.6	
208.3	5057.8	
208.52	3234.4	
208.73	3493.8	
208.94	5042.1	
209.15	5617.6	
209.37	3515.7	
209.58	3899.3	
209.79	5561.6	
210.01	4919.2	
210.22	2841.9	
210.43	2958.6	
210.65	5045.5	
210.86	5390.3	
211.07	3455.6	
211.29	3198.9	
211.5	5291.3	
211.71	4948.6	
211.93	3232.4	
212.14	3228.3	
212.35	5005.2	
212.56	5153.4	
212.78	3696.6	
212.99	3030.3	
213.2	5883.1	
213.42	4871.4	
213.63	3368.2	
213.84	3508.9	
214.06	4538.3	
214.27	4650.9	
214.48	3429.7	
214.69	3726.6	
214.91	5614.8	
215.12	5684.5	
215.33	3708.9	
215.55	4035.9	
215.76	6143.2	
215.97	5307	
216.18	3520.5	
216.4	3545	
216.61	4766.3	
216.82	5468.8	
217.04	3250.1	
217.25	3366.9	
217.46	5548.6	
217.67	5340.4	
217.89	2946.3	
218.1	3015.3	
218.31	5106.3	
218.53	5218.2	
218.74	3402.4	
218.95	3289.7	
219.16	5016.2	
219.38	5851	
219.59	3263.8	
219.8	3880.2	
220.01	6333.7	
220.23	5051	
220.44	4206.5	
220.65	3206.4	
220.87	5091.3	
221.08	5631.2	
221.29	3047.4	
221.5	3951.2	
221.72	6720.1	
221.93	4788.8	
222.14	3633.8	
222.35	4268.6	
222.57	5072.8	
222.78	5395.7	
222.99	3514.3	
223.2	3738.2	
223.42	5304.2	
223.63	5421.7	
223.84	2680.8	
224.05	2726.5	
224.27	6302.3	
224.48	5780.7	
224.69	4281.6	
224.9	3651.5	
225.12	5249.6	
225.33	5032.5	
225.54	2934.7	
225.75	3313.6	
225.97	4719.2	
226.18	4949.3	
226.39	3543	
226.6	3307.5	
226.82	4805.2	
227.03	4720.6	
227.24	3674.1	
227.45	3082.2	
227.67	5390.9	
227.88	5812.1	
228.09	4007.2	
228.3	4024.3	
228.52	5398.4	
228.73	4998.4	
228.94	3395.5	
229.15	3027.6	
229.36	4969.7	
229.58	4957.4	
229.79	3480.9	
230	3982.6	
230.21	5934.3	
230.43	5130.2	
230.64	3612.6	
230.85	3717.7	
231.06	5463.3	
231.28	5423.7	
231.49	3064.4	
231.7	3592.8	
231.91	5326.8	
232.12	5107.6	
232.34	3164.1	
232.55	3519.8	
232.76	5575.3	
232.97	5148.6	
233.18	3241.3	
233.4	3637.2	
233.61	5227.8	
233.82	4851	
234.03	3377.1	
234.25	3342.3	
234.46	6847	
234.67	5113.1	
234.88	3709.6	
235.09	3285.6	
235.31	5264.6	
235.52	4919.9	
235.73	3581.2	
235.94	3091.8	
236.15	4819.6	
236.37	6011.5	
236.58	3224.9	
236.79	3518.4	
237	5393	
237.21	4615.4	
237.43	3755.3	
237.64	3016	
237.85	8605.6	
238.06	4735.6	
238.27	3791.5	
238.48	3138.2	
238.7	5332.9	
238.91	4954	
239.12	3501.3	
239.33	3516.4	
239.54	4757.4	
239.76	4969.7	
239.97	3469.9	
240.18	3513.6	
240.39	6143.2	
240.6	5292	
240.82	3616.7	
241.03	3033.7	
241.24	5058.5	
241.45	5733.6	
241.66	3186.6	
241.87	3751.2	
242.09	5681.7	
242.3	5942.5	
242.51	3812	
242.72	3485	
242.93	5444.9	
243.14	5018.2	
243.36	4061.8	
243.57	4317.1	
243.78	5748.6	
243.99	5364.3	
244.2	3516.4	
244.41	3184.6	
244.63	4657.8	
244.84	5304.2	
245.05	3707.5	
245.26	3495.2	
245.47	5369.1	
245.68	5498.1	
245.9	4571.7	
246.11	3627	
246.32	4876.2	
246.53	5249.6	
246.74	5475.6	
246.95	2957.3	
247.16	4700.1	
247.38	5073.5	
247.59	2989.4	
247.8	3489.1	
248.01	4730.1	
248.22	5044.8	
248.43	3179.8	
248.64	3472	
248.86	4556.7	
249.07	4846.2	
249.28	3162.7	
249.49	3601	
249.7	5504.9	
249.91	5587.5	
250.12	2941.6	
250.34	3063.8	
250.55	5176.6	
250.76	5057.1	
250.97	3601.7	
251.18	3653.6	
251.39	5588.9	
251.6	5190.2	
251.81	3708.9	
252.03	3653.6	
252.24	4882.4	
252.45	5511.1	
252.66	3089.7	
252.87	3899.3	
253.08	5024.3	
253.29	6439.5	
253.5	3026.9	
253.72	4253.6	
253.93	4982	
254.14	5888.6	
254.35	3365.5	
254.56	3432.4	
254.77	5300.1	
254.98	4693.9	
255.19	3337.5	
255.41	4160.8	
255.62	5166.3	
255.83	5573.2	
256.04	3767.6	
256.25	3636.5	
256.46	6150.7	
256.67	4835.9	
256.88	3605.1	
257.09	4001.7	
257.31	4741	
257.52	4781.3	
257.73	4429.1	
257.94	3307.5	
258.15	4950.6	
258.36	5061.2	
258.57	4183.3	
258.78	2706.7	
258.99	5503.6	
259.2	4946.5	
259.41	3339.6	
259.63	3435.8	
259.84	5767.8	
260.05	6042.9	
260.26	4341.7	
260.47	3292.5	
260.68	5549.3	
260.89	4894.6	
261.1	4044.7	
261.31	3274	
261.52	5556.8	
261.73	5883.1	
261.95	4274.8	
262.16	3803.1	
262.37	5677	
262.58	5842.9	
262.79	4248.9	
263	3444.7	
263.21	5113.8	
263.42	4975.9	
263.63	3494.5	
263.84	3422.2	
264.05	5489.2	
264.26	5851	
264.47	4122.6	
264.69	3757.3	
264.9	5723.4	
265.11	5272.2	
265.32	3326.6	
265.53	3323.9	
265.74	5185.5	
265.95	4491.2	
266.16	3568.2	
266.37	3926.6	
266.58	5194.3	
266.79	4876.2	
267	3336.1	
267.21	3107.5	
267.42	4738.3	
267.63	5033.9	
267.84	3474	
268.06	3037.1	
268.27	5456.5	
268.48	5636	
268.69	3424.9	
268.9	3944.4	
269.11	5640.8	
269.32	4563.6	
269.53	3529.3	
269.74	3279.5	
269.95	5339.7	
270.16	4515.8	
270.37	3559.4	
270.58	4006.5	
270.79	5000.5	
271	5504.3	
271.21	3738.2	
271.42	3551.2	
271.63	5218.2	
271.84	4738.3	
272.05	2864.4	
272.26	3164.1	
272.47	5064.6	
272.68	5214.8	
272.89	3416	
273.11	3805.8	
273.32	4833.2	
273.53	5872.2	
273.74	3822.9	
273.95	3735.5	
274.16	5574.6	
274.37	5096.7	
274.58	3823.6	
274.79	3132	
275	5213.4	
275.21	5580.7	
275.42	4573.1	
275.63	3912.3	
275.84	5319.3	
276.05	6509.1	
276.26	3620.8	
276.47	3481.5	
276.68	4957.4	
276.89	5935.7	
277.1	3969.6	
277.31	3084.9	
277.52	5234.6	
277.73	5504.9	
277.94	3126.6	
278.15	3379.8	
278.36	5284.4	
278.57	4770.4	
278.78	3414	
278.99	3781.9	
279.2	4775.9	
279.41	4700.1	
279.62	4330.8	
279.83	3217.4	
280.04	6062	
280.25	4717.8	
280.46	4326.7	
280.67	3517.7	
280.88	4752	
281.09	5598.5	
281.3	3663.8	
281.51	4586.1	
281.72	4824.3	
281.93	5448.3	
282.14	3321.1	
282.35	3597.6	
282.56	5472.2	
282.77	5433.3	
282.98	3440.6	
283.19	4065.9	
283.4	6589.7	
283.61	5051	
283.82	3141.6	
284.03	4280.9	
284.24	5187.5	
284.45	5554.1	
284.66	4334.2	
284.87	4092.5	
285.08	5558.9	
285.29	5710.4	
285.5	3045.3	
285.71	3433.1	
285.92	5588.9	
286.12	6135.7	
286.33	4330.1	
286.54	3411.2	
286.75	5462.6	
286.96	4949.3	
287.17	3162.1	
287.38	4203.8	
287.59	4760.2	
287.8	4769	
288.01	3478.1	
288.22	3887	
288.43	5457.2	
288.64	4631.8	
288.85	4049.5	
289.06	3857	
289.27	5446.9	
289.48	5841.5	
289.69	4362.2	
289.9	3934.1	
290.11	5699.5	
290.32	4846.2	
290.53	4075.5	
290.74	3811.3	
290.94	5431.2	
291.15	5422.3	
291.36	3353.2	
291.57	3880.9	
291.78	4917.9	
291.99	4573.1	
292.2	3233.1	
292.41	3769.6	
292.62	5574.6	
292.83	5311.7	
293.04	4642.1	
293.25	3234.4	
293.46	4912.4	
293.67	5561.6	
293.88	3283.6	
294.09	3170.9	
294.29	4715.1	
294.5	5203.9	
294.71	3563.5	
294.92	3400.3	
295.13	4928.1	
295.34	6014.9	
295.55	3033.7	
295.76	3076	
295.97	5399.1	
296.18	6085.2	
296.39	3211.9	
296.6	3302	
296.81	5137	
297.01	5431.9	
297.22	3512.9	
297.43	3289	
297.64	4823.6	
297.85	4739.7	
298.06	2794.8	
298.27	3018	
298.48	5093.3	
298.69	4764.9	
298.9	3602.4	
299.11	3269.2	
299.31	4702.8	
299.52	4685.1	
299.73	3813.3	
299.94	3719.8	
300.15	5113.8	
300.36	4776.5	
300.57	3720.5	
300.78	3688.4	
300.99	4967.7	
301.2	5108.3	
301.4	3319.1	
301.61	3586.7	
301.82	5335.6	
302.03	5417.6	
302.24	3965.6	
302.45	3148.4	
302.66	5317.9	
302.87	5636	
303.08	3355.9	
303.29	4422.9	
303.49	4885.8	
303.7	5085.8	
303.91	3049.4	
304.12	4201.1	
304.33	4649.6	
304.54	5270.1	
304.75	3355.3	
304.96	3228.3	
305.16	5347.2	
305.37	5898.1	
305.58	2942.9	
305.79	3045.3	
306	5319.9	
306.21	4586.8	
306.42	3325.2	
306.63	4898.7	
306.83	4989.5	
307.04	5499.5	
307.25	3565.5	
307.46	3539.6	
307.67	4459.8	
307.88	5397.1	
308.09	3289	
308.29	3429	
308.5	5128.1	
308.71	5535	
308.92	3513.6	
309.13	3198.9	
309.34	5020.3	
309.55	5017.5	
309.75	4065.2	
309.96	3783.3	
310.17	5416.2	
310.38	4812	
310.59	3968.3	
310.8	3098.6	
311.01	4928.8	
311.21	4943.8	
311.42	3255.6	
311.63	3345	
311.84	4857.8	
312.05	5152.7	
312.26	3689.8	
312.46	4055	
312.67	4966.3	
312.88	4739	
313.09	3233.1	
313.3	3127.9	
313.51	5788.2	
313.71	6063.4	
313.92	3218	
314.13	3408.5	
314.34	5312.4	
314.55	5020.9	
314.76	4102.8	
314.96	3554.6	
315.17	5165.7	
315.38	5383.4	
315.59	3265.8	
315.8	3132	
316.01	5805.3	
316.21	5847.6	
316.42	3156.6	
316.63	3579.8	
316.84	4984.1	
317.05	5674.9	
317.26	3794.9	
317.46	3470.6	
317.67	5046.9	
317.88	5410.7	
318.09	4013.3	
318.3	3019.4	
318.5	4865.3	
318.71	5350.7	
318.92	5061.9	
319.13	3749.8	
319.34	5545.9	
319.54	5567.7	
319.75	3011.9	
319.96	2960.7	
320.17	5375.9	
320.38	5530.2	
320.58	2987.3	
320.79	3513.6	
321	5532.9	
321.21	5666	
321.42	3548.4	
321.62	2969.6	
321.83	4776.5	
322.04	5055.1	
322.25	3438.5	
322.46	3239.2	
322.66	5167	
322.87	5320.6	
323.08	3915	
323.29	3226.9	
323.5	6004.6	
323.7	4693.9	
323.91	4356	
324.12	3835.2	
324.33	5186.1	
324.53	5369.1	
324.74	3715.7	
324.95	4003.8	
325.16	4596.3	
325.37	4929.5	
325.57	3234.4	
325.78	3364.1	
325.99	5167.7	
326.2	4683	
326.4	4454.3	
326.61	3038.5	
326.82	5018.9	
327.03	5185.5	
327.24	4446.1	
327.44	4218.8	
327.65	5279.7	
327.86	4376.5	
328.07	3741.6	
328.27	3133.4	
328.48	5633.3	
328.69	4706.2	
328.9	4541.7	
329.1	3448.8	
329.31	4977.2	
329.52	5741.8	
329.73	3250.1	
329.93	3609.9	
330.14	5107.6	
330.35	5279.7	
330.56	5116.5	
330.76	3924.6	
330.97	4931.5	
331.18	5238.7	
331.39	3515.7	
331.59	2930.6	
331.8	5607.3	
332.01	5660.6	
332.22	3333.4	
332.42	3747.8	
332.63	5161.6	
332.84	4789.5	
333.05	3627	
333.25	3331.4	
333.46	4877.6	
333.67	5122	
333.88	3360.7	
334.08	3734.8	
334.29	6574	
334.5	5670.8	
334.7	3186	
334.91	4451.6	
335.12	4726	
335.33	5446.9	
335.53	3561.4	
335.74	5132.2	
335.95	4905.6	
336.16	4691.9	
336.36	3609.2	
336.57	4088.4	
336.78	4696.7	
336.98	5523.4	
337.19	4308.9	
337.4	3528	
337.61	6064.7	
337.81	4735.6	
338.02	3320.4	
338.23	4219.5	
338.43	5702.9	
338.64	4786.8	
338.85	3269.9	
339.05	4252.3	
339.26	5824.4	
339.47	4636.6	
339.68	3289	
339.88	4592.9	
340.09	5306.3	
340.3	5489.2	
340.5	3732.1	
340.71	2964.1	
340.92	4704.2	
341.13	5731.6	
341.33	3121.1	
341.54	3725.3	
341.75	5268.7	
341.95	4934.9	
342.16	3623.5	
342.37	3934.1	
342.57	4714.4	
342.78	5099.4	
342.99	4001.7	
343.19	3003.7	
343.4	5438	
343.61	5348.6	
343.81	3449.5	
344.02	3194.1	
344.23	5429.2	
344.43	5824.4	
344.64	3978.5	
344.85	3890.5	
345.06	5311.1	
345.26	5636	
345.47	3713.6	
345.68	4317.1	
345.88	4573.8	
346.09	5487.2	
346.3	3803.8	
346.5	2899.9	
346.71	5053.7	
346.92	4913.1	
347.12	3039.9	
347.33	3747.8	
347.54	5599.1	
347.74	5913.9	
347.95	3737.5	
348.16	2919	
348.36	4977.9	
348.57	4810.7	
348.78	3734.8	
348.98	3984	
349.19	5109.7	
349.39	4640.7	
349.6	3070.6	
349.81	3386.7	
350.01	5375.9	
350.22	4831.2	
350.43	3663.1	
350.63	4268	
350.84	5121.3	
351.05	4937	
351.25	3345	
351.46	3060.3	
351.67	5565	
351.87	4903.5	
352.08	3530	
352.29	4016.7	
352.49	5568.4	
352.7	5630.5	
352.9	3272	
353.11	4010.6	
353.32	6181.5	
353.52	5010.7	
353.73	3287.7	
353.94	4023.6	
354.14	5469.4	
354.35	5260.5	
354.55	3361.4	
354.76	3704.1	
354.97	5379.3	
355.17	5153.4	
355.38	3188	
355.59	4287.8	
355.79	4926	
356	5309.7	
356.2	3725.3	
356.41	3360.7	
356.62	4803.9	
356.82	5178.6	
357.03	3981.3	
357.24	3629	
357.44	5024.3	
357.65	5049.6	
357.85	4628.4	
358.06	3795.6	
358.27	4769	
358.47	5006.6	
358.68	3256.3	
358.88	4007.2	
359.09	5453.7	
359.3	5774.6	
359.5	4524.6	
359.71	4186	
359.91	6153.5	
360.12	5578	
360.33	4044.1	
360.53	4467.3	
360.74	5093.3	
360.94	5165	
361.15	4246.8	
361.36	3637.2	
361.56	5836	
361.77	5326.1	
361.97	4719.2	
362.18	3823.6	
362.38	5800.5	
362.59	5039.4	
362.8	3594.2	
363	3477.5	
363.21	4900.8	
363.41	5427.1	
363.62	4122.6	
363.83	4927.4	
364.03	5611.4	
364.24	6376.7	
364.44	5076.9	
364.65	4967.7	
364.85	5384.1	
365.06	5173.2	
365.27	3876.1	
365.47	3895.2	
365.68	6346	
365.88	5409.4	
366.09	4179.2	
366.29	3919.1	
366.5	5702.2	
366.71	5935	
366.91	5071.5	
367.12	4371	
367.32	6541.2	
367.53	5916.6	
367.73	4441.4	
367.94	5187.5	
368.14	5935.7	
368.35	6679.8	
368.56	4321.2	
368.76	3879.5	
368.97	6034	
369.17	7342	
369.38	3952.6	
369.58	4250.9	
369.79	5307.7	
369.99	6311.8	
370.2	5018.2	
370.4	4258.4	
370.61	5779.4	
370.82	6892.1	
371.02	4247.5	
371.23	3637.9	
371.43	5273.5	
371.64	6391.7	
371.84	4249.5	
372.05	5332.9	
372.25	7508.5	
372.46	6194.4	
372.66	4416.8	
372.87	4351.9	
373.07	6235.4	
373.28	7645.1	
373.48	5312.4	
373.69	5020.9	
373.9	5934.3	
374.1	5932.3	
374.31	5313.8	
374.51	4827.7	
374.72	6673	
374.92	5766.4	
375.13	5525.4	
375.33	4840	
375.54	6395.1	
375.74	5950	
375.95	5038	
376.15	5990.3	
376.36	6410.1	
376.56	6358.9	
376.77	5141.1	
376.97	5468.1	
377.18	7442.3	
377.38	6670.2	
377.59	5713.8	
377.79	4845.5	
378	6542.6	
378.2	6938.5	
378.41	4917.9	
378.61	4891.9	
378.82	7029.3	
379.02	6357.6	
379.23	5150	
379.43	6089.3	
379.64	7145.4	
379.84	6831.3	
380.05	5009.3	
380.25	4907.6	
380.46	6879.8	
380.66	6499.6	
380.87	6003.3	
381.07	6310.5	
381.28	7399.3	
381.48	6830	
381.69	4954	
381.89	5035.3	
382.1	5958.2	
382.3	6931.7	
382.51	5950	
382.71	6682.5	
382.91	6818.4	
383.12	7322.2	
383.32	5265.3	
383.53	5393.7	
383.73	6709.8	
383.94	6589.7	
384.14	5401.2	
384.35	4701.5	
384.55	6469.5	
384.76	6888	
384.96	5362.3	
385.17	5489.2	
385.37	6784.2	
385.58	6170.5	
385.78	5459.2	
385.98	4600.4	
386.19	6359.6	
386.39	6767.9	
386.6	4982.7	
386.8	5212.1	
387.01	6869.6	
387.21	6866.2	
387.42	5553.4	
387.62	6070.9	
387.83	6335.7	
388.03	6864.1	
388.23	5428.5	
388.44	6089.3	
388.64	6142.5	
388.85	6346	
389.05	5765.7	
389.26	6364.4	
389.46	7863.5	
389.67	7537.9	
389.87	5841.5	
390.07	5963.7	
390.28	6935.1	
390.48	6645	
390.69	5394.3	
390.89	5640.8	
391.1	6749.4	
391.3	7559.7	
391.5	6607.4	
391.71	6993.1	
391.91	7346.7	
392.12	8127.7	
392.32	6681.8	
392.53	6029.9	
392.73	6909.2	
392.93	7073.7	
393.14	5842.9	
393.34	6457.2	
393.55	7372	
393.75	6958.3	
393.95	5755.5	
394.16	5585.5	
394.36	6892.8	
394.57	7290.1	
394.77	5245.5	
394.98	5582.1	
395.18	6780.1	
395.38	6956.3	
395.59	6445.6	
395.79	5686.5	
396	7073	
396.2	7499	
396.4	6576.7	
396.61	6506.4	
396.81	7752.9	
397.02	7226.6	
397.22	6891.4	
397.42	7053.2	
397.63	8015.7	
397.83	7370.6	
398.04	5907	
398.24	6619.7	
398.44	7720.8	
398.65	7091.4	
398.85	6016.2	
399.05	6075.6	
399.26	7441	
399.46	8888.2	
399.67	6590.4	
399.87	6198.5	
400.07	7833.5	
400.28	8169.3	
400.48	6432	
400.69	7392.5	
400.89	8499.8	
401.09	8871.8	
401.3	6526.2	
401.5	7442.3	
401.7	9252	
401.91	9387.2	
402.11	6891.4	
402.32	7038.9	
402.52	8831.5	
402.72	8543.4	
402.93	7331.7	
403.13	6320	
403.33	9289.6	
403.54	7869	
403.74	6809.5	
403.94	7396.6	
404.15	7850.5	
404.35	8893	
404.56	6448.4	
404.76	7862.8	
404.96	8211	
405.17	7993.9	
405.37	7748.8	
405.57	6951.5	
405.78	8552.3	
405.98	7878.5	
406.18	6892.1	
406.39	7494.2	
406.59	8606.9	
406.79	8344.8	
407	6587	
407.2	6700.3	
407.4	8718.2	
407.61	8821.3	
407.81	6819.1	
408.01	8454	
408.22	7813	
408.42	9587.9	
408.62	8079.2	
408.83	7790.5	
409.03	8930.5	
409.23	8898.4	
409.44	8197.3	
409.64	8538.7	
409.84	10335	
410.05	10388	
410.25	8795.3	
410.45	8597.4	
410.66	10314	
410.86	12366	
411.06	9540.1	
411.27	9240.4	
411.47	12656	
411.67	10768	
411.88	9564.7	
412.08	10201	
412.28	11536	
412.49	12009	
412.69	9912.2	
412.89	9977	
413.09	11940	
413.3	12039	
413.5	10271	
413.7	9925.1	
413.91	11355	
414.11	12207	
414.31	10308	
414.52	10821	
414.72	12024	
414.92	12228	
415.12	10277	
415.33	10850	
415.53	12673	
415.73	12661	
415.94	11202	
416.14	10750	
416.34	12028	
416.55	11704	
416.75	11893	
416.95	11578	
417.15	13023	
417.36	13179	
417.56	12385	
417.76	11565	
417.97	13269	
418.17	13090	
418.37	11176	
418.57	11401	
418.78	12919	
418.98	12656	
419.18	12207	
419.38	12073	
419.59	12893	
419.79	12287	
419.99	11273	
420.2	11476	
420.4	13198	
420.6	13158	
420.8	11134	
421.01	10974	
421.21	13195	
421.41	13205	
421.61	11564	
421.82	11247	
422.02	12945	
422.22	13403	
422.42	12278	
422.63	11329	
422.83	12948	
423.03	14033	
423.23	11660	
423.44	10890	
423.64	12899	
423.84	12433	
424.04	11199	
424.25	11026	
424.45	13359	
424.65	13259	
424.85	10639	
425.06	11173	
425.26	13476	
425.46	12638	
425.66	11545	
425.87	11231	
426.07	13282	
426.27	13063	
426.47	11529	
426.67	10701	
426.88	13375	
427.08	13049	
427.28	11806	
427.48	10685	
427.69	11939	
427.89	12586	
428.09	11611	
428.29	10824	
428.5	13163	
428.7	12787	
428.9	10983	
429.1	11084	
429.3	12836	
429.51	13287	
429.71	10867	
429.91	11919	
430.11	13278	
430.31	13712	
430.52	11497	
430.72	12205	
430.92	13930	
431.12	13418	
431.32	11615	
431.53	11921	
431.73	12820	
431.93	14019	
432.13	11540	
432.33	11435	
432.54	13123	
432.74	13544	
432.94	11509	
433.14	12227	
433.34	13689	
433.55	13601	
433.75	12394	
433.95	14307	
434.15	13921	
434.35	13773	
434.56	11893	
434.76	11921	
434.96	13956	
435.16	14455	
435.36	12082	
435.56	13292	
435.77	14067	
435.97	14300	
436.17	14042	
436.37	13343	
436.57	14162	
436.78	14394	
436.98	14625	
437.18	13898	
437.38	15137	
437.58	14459	
437.78	14033	
437.99	12922	
438.19	14735	
438.39	16161	
438.59	12908	
438.79	12284	
438.99	15227	
439.2	14106	
439.4	12071	
439.6	12087	
439.8	14250	
440	15311	
440.2	13164	
440.4	13284	
440.61	15025	
440.81	15581	
441.01	13125	
441.21	14147	
441.41	16511	
441.61	15726	
441.81	14835	
442.02	15688	
442.22	16763	
442.42	16206	
442.62	13977	
442.82	13733	
443.02	16642	
443.22	15985	
443.43	14399	
443.63	13979	
443.83	15302	
444.03	15565	
444.23	15452	
444.43	14925	
444.63	16273	
444.83	17208	
445.04	14788	
445.24	15814	
445.44	16698	
445.64	16929	
445.84	15003	
446.04	15375	
446.24	15996	
446.44	16907	
446.65	14096	
446.85	14733	
447.05	15264	
447.25	16457	
447.45	14424	
447.65	13832	
447.85	15805	
448.05	15091	
448.25	14924	
448.46	14688	
448.66	15938	
448.86	15597	
449.06	13987	
449.26	14758	
449.46	16491	
449.66	15439	
449.86	14985	
450.06	14735	
450.26	15922	
450.47	16497	
450.67	14653	
450.87	15395	
451.07	16622	
451.27	16739	
451.47	14433	
451.67	15487	
451.87	16423	
452.07	17010	
452.27	15253	
452.47	14844	
452.67	16631	
452.88	17296	
453.08	14281	
453.28	16176	
453.48	18210	
453.68	16401	
453.88	15213	
454.08	15098	
454.28	17310	
454.48	16824	
454.68	15621	
454.88	16072	
455.08	17197	
455.28	17700	
455.48	14730	
455.68	15899	
455.89	18273	
456.09	18245	
456.29	15705	
456.49	16311	
456.69	18507	
456.89	17483	
457.09	16750	
457.29	17260	
457.49	18322	
457.69	18640	
457.89	17254	
458.09	16354	
458.29	18645	
458.49	19379	
458.69	17884	
458.89	17374	
459.09	20074	
459.29	20133	
459.49	17550	
459.69	18479	
459.9	19522	
460.1	19731	
460.3	17156	
460.5	17253	
460.7	19715	
460.9	19385	
461.1	17092	
461.3	18541	
461.5	20607	
461.7	20167	
461.9	18449	
462.1	18406	
462.3	20299	
462.5	20790	
462.7	18505	
462.9	18933	
463.1	21755	
463.3	21954	
463.5	19018	
463.7	20583	
463.9	21400	
464.1	21695	
464.3	20525	
464.5	20194	
464.7	22237	
464.9	22683	
465.1	21687	
465.3	21032	
465.5	22689	
465.7	23178	
465.9	21631	
466.1	20679	
466.3	23470	
466.5	22546	
466.7	22653	
466.9	21326	
467.1	23163	
467.3	24015	
467.5	22915	
467.7	21831	
467.9	24246	
468.1	25220	
468.3	22169	
468.5	22989	
468.7	23769	
468.9	23507	
469.1	22715	
469.3	23614	
469.5	25817	
469.7	24098	
469.9	22732	
470.1	22894	
470.3	24181	
470.5	24423	
470.7	23900	
470.9	22593	
471.1	24554	
471.3	23944	
471.5	22851	
471.69	24191	
471.89	23860	
472.09	23317	
472.29	23289	
472.49	22673	
472.69	23879	
472.89	24246	
473.09	22545	
473.29	21954	
473.49	23743	
473.69	23551	
473.89	22959	
474.09	22177	
474.29	24537	
474.49	24136	
474.69	23010	
474.89	22133	
475.09	23577	
475.29	23775	
475.49	21666	
475.69	22335	
475.88	24519	
476.08	23907	
476.28	21977	
476.48	21633	
476.68	23763	
476.88	23772	
477.08	21721	
477.28	22347	
477.48	22781	
477.68	23472	
477.88	21510	
478.08	21447	
478.28	24221	
478.48	23068	
478.67	21816	
478.87	20901	
479.07	24288	
479.27	23235	
479.47	21924	
479.67	22357	
479.87	23918	
480.07	24418	
480.27	21758	
480.47	22743	
480.67	23399	
480.87	24404	
481.06	21869	
481.26	22666	
481.46	23911	
481.66	23799	
481.86	22624	
482.06	23341	
482.26	23642	
482.46	24288	
482.66	22380	
482.86	22222	
483.05	24079	
483.25	23481	
483.45	24404	
483.65	22480	
483.85	23898	
484.05	24101	
484.25	22767	
484.45	23779	
484.65	24747	
484.84	25574	
485.04	22942	
485.24	22880	
485.44	25480	
485.64	24041	
485.84	22936	
486.04	23976	
486.24	24710	
486.44	25004	
486.63	22784	
486.83	23851	
487.03	25058	
487.23	25604	
487.43	23102	
487.63	25516	
487.83	25636	
488.02	26521	
488.22	24744	
488.42	25385	
488.62	26399	
488.82	25731	
489.02	24018	
489.22	24809	
489.41	26452	
489.61	26611	
489.81	24314	
490.01	24427	
490.21	26914	
490.41	27452	
490.61	24685	
490.8	24757	
491	26907	
491.2	25907	
491.4	25254	
491.6	24529	
491.8	26585	
491.99	26210	
492.19	24183	
492.39	24168	
492.59	26345	
492.79	26314	
492.99	24830	
493.18	24178	
493.38	26583	
493.58	28070	
493.78	25409	
493.98	25058	
494.18	27118	
494.37	27437	
494.57	26867	
494.77	26599	
494.97	28592	
495.17	29385	
495.37	27072	
495.56	27319	
495.76	29853	
495.96	29512	
496.16	28743	
496.36	28113	
496.55	30313	
496.75	30306	
496.95	28667	
497.15	28562	
497.35	30231	
497.54	30767	
497.74	28366	
497.94	29981	
498.14	31086	
498.34	30915	
498.53	28532	
498.73	28999	
498.93	30276	
499.13	30639	
499.33	29350	
499.52	29523	
499.72	31492	
499.92	31155	
500.12	29274	
500.32	29710	
500.51	31522	
500.71	31935	
500.91	30570	
501.11	30279	
501.31	32108	
501.5	32010	
501.7	31079	
501.9	30074	
502.1	31552	
502.29	32133	
502.49	30631	
502.69	30765	
502.89	31791	
503.09	31997	
503.28	29062	
503.48	29461	
503.68	30796	
503.88	31047	
504.07	30018	
504.27	29472	
504.47	31202	
504.67	30842	
504.86	29925	
505.06	29323	
505.26	30487	
505.46	31926	
505.65	29313	
505.85	29304	
506.05	30193	
506.25	30548	
506.44	28029	
506.64	28483	
506.84	29508	
507.04	29989	
507.23	27678	
507.43	28072	
507.63	30782	
507.83	29558	
508.02	28113	
508.22	27916	
508.42	31154	
508.62	29438	
508.81	27990	
509.01	28860	
509.21	28968	
509.4	29558	
509.6	28063	
509.8	27858	
510	29081	
510.19	30736	
510.39	27659	
510.59	27718	
510.79	29597	
510.98	30766	
511.18	28149	
511.38	28659	
511.57	30130	
511.77	30444	
511.97	28799	
512.17	27906	
512.36	30351	
512.56	29871	
512.76	27944	
512.95	27562	
513.15	30208	
513.35	28984	
513.55	28210	
513.74	27681	
513.94	30083	
514.14	29452	
514.33	28629	
514.53	28515	
514.73	29610	
514.92	29823	
515.12	28166	
515.32	28229	
515.51	29997	
515.71	30414	
515.91	29511	
516.11	28244	
516.3	31691	
516.5	29877	
516.7	28696	
516.89	29439	
517.09	30079	
517.29	30221	
517.48	29270	
517.68	28526	
517.88	29938	
518.07	30538	
518.27	29237	
518.47	28037	
518.66	30778	
518.86	29588	
519.06	27837	
519.25	28299	
519.45	29657	
519.65	31404	
519.84	29014	
520.04	29823	
520.24	31785	
520.43	30593	
520.63	28867	
520.83	28765	
521.02	30168	
521.22	30550	
521.42	28749	
521.61	29323	
521.81	29753	
522.01	29647	
522.2	28434	
522.4	27710	
522.6	30074	
522.79	29192	
522.99	28219	
523.18	28220	
523.38	30483	
523.58	30559	
523.77	30489	
523.97	28942	
524.17	32800	
524.36	32238	
524.56	30683	
524.76	30350	
524.95	32193	
525.15	31905	
525.34	30820	
525.54	31180	
525.74	33161	
525.93	32606	
526.13	32789	
526.33	31895	
526.52	34133	
526.72	33701	
526.91	33448	
527.11	32914	
527.31	34349	
527.5	34840	
527.7	32897	
527.89	32060	
528.09	33585	
528.29	34265	
528.48	32724	
528.68	32529	
528.87	34603	
529.07	34407	
529.27	33377	
529.46	33249	
529.66	35172	
529.85	35806	
530.05	33227	
530.25	33712	
530.44	36635	
530.64	34877	
530.83	33417	
531.03	33751	
531.23	35321	
531.42	34835	
531.62	33924	
531.81	32888	
532.01	35389	
532.21	36006	
532.4	33809	
532.6	34570	
532.79	36703	
532.99	36835	
533.18	35059	
533.38	35990	
533.58	36982	
533.77	37433	
533.97	36169	
534.16	36629	
534.36	38254	
534.55	37520	
534.75	36655	
534.95	36241	
535.14	38668	
535.34	37765	
535.53	35908	
535.73	38066	
535.92	39212	
536.12	37830	
536.31	36306	
536.51	37093	
536.71	37831	
536.9	37299	
537.1	35652	
537.29	35894	
537.49	37826	
537.68	37057	
537.88	36392	
538.07	35469	
538.27	37712	
538.46	38348	
538.66	35723	
538.86	36119	
539.05	37691	
539.25	38159	
539.44	37096	
539.64	36018	
539.83	37793	
540.03	38688	
540.22	36118	
540.42	36032	
540.61	37641	
540.81	38068	
541	35832	
541.2	36775	
541.39	36952	
541.59	37365	
541.78	36519	
541.98	35260	
542.18	36476	
542.37	36617	
542.57	35400	
542.76	36555	
542.96	36444	
543.15	36783	
543.35	35212	
543.54	34831	
543.74	36355	
543.93	36366	
544.13	34343	
544.32	35094	
544.52	36064	
544.71	35097	
544.91	33320	
545.1	34261	
545.3	35243	
545.49	35881	
545.69	33344	
545.88	33589	
546.08	36680	
546.27	36244	
546.47	34102	
546.66	33329	
546.86	35502	
547.05	36280	
547.24	33481	
547.44	33770	
547.63	34682	
547.83	35970	
548.02	33834	
548.22	33890	
548.41	34447	
548.61	35697	
548.8	33271	
549	33204	
549.19	34640	
549.39	35405	
549.58	32583	
549.78	33151	
549.97	34954	
550.17	34514	
550.36	33454	
550.55	34467	
550.75	34424	
550.94	34957	
551.14	32581	
551.33	32328	
551.53	33490	
551.72	34288	
551.92	32481	
552.11	32364	
552.31	33940	
552.5	34030	
552.69	33577	
552.89	31580	
553.08	34056	
553.28	33738	
553.47	32241	
553.67	33164	
553.86	34260	
554.06	32756	
554.25	31042	
554.44	31752	
554.64	34822	
554.83	34377	
555.03	31567	
555.22	32014	
555.42	33920	
555.61	33597	
555.8	31537	
556	31512	
556.19	32774	
556.39	33342	
556.58	31315	
556.78	31287	
556.97	33198	
557.16	33185	
557.36	32307	
557.55	31257	
557.75	32025	
557.94	34062	
558.13	31290	
558.33	30903	
558.52	33764	
558.72	32701	
558.91	31169	
559.1	30928	
559.3	32501	
559.49	31888	
559.69	30768	
559.88	31268	
560.07	32745	
560.27	33036	
560.46	31393	
560.66	31354	
560.85	32619	
561.04	31676	
561.24	30644	
561.43	30401	
561.63	31982	
561.82	31993	
562.01	31558	
562.21	30849	
562.4	32034	
562.59	33410	
562.79	30495	
562.98	30388	
563.18	32007	
563.37	33783	
563.56	31032	
563.76	30842	
563.95	32316	
564.14	32331	
564.34	31328	
564.53	30999	
564.73	32785	
564.92	33441	
565.11	31576	
565.31	31031	
565.5	33598	
565.69	32567	
565.89	31386	
566.08	31737	
566.27	33499	
566.47	34223	
566.66	32219	
566.85	31389	
567.05	33399	
567.24	33064	
567.44	31533	
567.63	32844	
567.82	33626	
568.02	33475	
568.21	31677	
568.4	31980	
568.6	33697	
568.79	33482	
568.98	31725	
569.18	31860	
569.37	33662	
569.56	35340	
569.76	32652	
569.95	33393	
570.14	34017	
570.34	34527	
570.53	32153	
570.72	32290	
570.91	34737	
571.11	33967	
571.3	32574	
571.49	33247	
571.69	34376	
571.88	33589	
572.07	33363	
572.27	32906	
572.46	33941	
572.65	34514	
572.85	32670	
573.04	33047	
573.23	35104	
573.43	34352	
573.62	32716	
573.81	32948	
574	34707	
574.2	34723	
574.39	33251	
574.58	33178	
574.78	36128	
574.97	35732	
575.16	34273	
575.36	34715	
575.55	36391	
575.74	36110	
575.93	33772	
576.13	35155	
576.32	35758	
576.51	36528	
576.71	34337	
576.9	35689	
577.09	36952	
577.28	36345	
577.48	35038	
577.67	34012	
577.86	35881	
578.05	36480	
578.25	34871	
578.44	34617	
578.63	36084	
578.83	37269	
579.02	34170	
579.21	35872	
579.4	36519	
579.6	36551	
579.79	34960	
579.98	36988	
580.17	36926	
580.37	37178	
580.56	34338	
580.75	35621	
580.94	37183	
581.14	37115	
581.33	35826	
581.52	34538	
581.71	36805	
581.91	37403	
582.1	34601	
582.29	34931	
582.48	36577	
582.68	36795	
582.87	35620	
583.06	35575	
583.25	37064	
583.45	36437	
583.64	36103	
583.83	36915	
584.02	36519	
584.21	37238	
584.41	35829	
584.6	35738	
584.79	36967	
584.98	37944	
585.18	35203	
585.37	35104	
585.56	36830	
585.75	37463	
585.94	34912	
586.14	35811	
586.33	37474	
586.52	36779	
586.71	35502	
586.91	35226	
587.1	35593	
587.29	36878	
587.48	34080	
587.67	34578	
587.87	36217	
588.06	36002	
588.25	35356	
588.44	34535	
588.63	35409	
588.83	35989	
589.02	33611	
589.21	33471	
589.4	34652	
589.59	35164	
589.78	32135	
589.98	32274	
590.17	33333	
590.36	33747	
590.55	30738	
590.74	30683	
590.94	33589	
591.13	32100	
591.32	30050	
591.51	29376	
591.7	31964	
591.89	31666	
592.09	29440	
592.28	29969	
592.47	31214	
592.66	33094	
592.85	30107	
593.05	30359	
593.24	31840	
593.43	32890	
593.62	30687	
593.81	31097	
594	32276	
594.19	32384	
594.39	30361	
594.58	30422	
594.77	32429	
594.96	32813	
595.15	30212	
595.34	30868	
595.54	32191	
595.73	31270	
595.92	29493	
596.11	30169	
596.3	32136	
596.49	31116	
596.68	29629	
596.88	30011	
597.07	31719	
597.26	30771	
597.45	29248	
597.64	30465	
597.83	31423	
598.02	31653	
598.22	29035	
598.41	29924	
598.6	31623	
598.79	31015	
598.98	29206	
599.17	30201	
599.36	31477	
599.55	32197	
599.74	31137	
599.94	30866	
600.13	31686	
600.32	30586	
600.51	28796	
600.7	29261	
600.89	32022	
601.08	32123	
601.27	28829	
601.47	29701	
601.66	31256	
601.85	32056	
602.04	29616	
602.23	29241	
602.42	30485	
602.61	31008	
602.8	29056	
602.99	28807	
603.18	30573	
603.37	30751	
603.57	29242	
603.76	29641	
603.95	31258	
604.14	30955	
604.33	28964	
604.52	29135	
604.71	30740	
604.9	30514	
605.09	30075	
605.28	29640	
605.47	31558	
605.66	30777	
605.86	29528	
606.05	28956	
606.24	31244	
606.43	30025	
606.62	29194	
606.81	29806	
607	30904	
607.19	30536	
607.38	28340	
607.57	28698	
607.76	30298	
607.95	29654	
608.14	28816	
608.33	29375	
608.52	30170	
608.72	30930	
608.91	28192	
609.1	28292	
609.29	30004	
609.48	29286	
609.67	28383	
609.86	27863	
610.05	29521	
610.24	29722	
610.43	27909	
610.62	27280	
610.81	30487	
611	30382	
611.19	27735	
611.38	28127	
611.57	29953	
611.76	30904	
611.95	27437	
612.14	27007	
612.33	29389	
612.52	29005	
612.71	27958	
612.9	27196	
613.09	28837	
613.28	30907	
613.47	27447	
613.66	28363	
613.85	29541	
614.04	29232	
614.24	27685	
614.43	26747	
614.62	29707	
614.81	29542	
615	27828	
615.19	28121	
615.38	28898	
615.57	29536	
615.76	27982	
615.95	28777	
616.14	29812	
616.33	29561	
616.52	28301	
616.71	28465	
616.9	29659	
617.09	29926	
617.28	27839	
617.47	28687	
617.66	28944	
617.85	28981	
618.04	28781	
618.22	28220	
618.41	29614	
618.6	30592	
618.79	28618	
618.98	28844	
619.17	31180	
619.36	29805	
619.55	29013	
619.74	29024	
619.93	30999	
620.12	30435	
620.31	29754	
620.5	30017	
620.69	31697	
620.88	32237	
621.07	30629	
621.26	30114	
621.45	31703	
621.64	31939	
621.83	30298	
622.02	29599	
622.21	31679	
622.4	31746	
622.59	30955	
622.78	30767	
622.97	31464	
623.16	32611	
623.35	30468	
623.54	29769	
623.72	31554	
623.91	31901	
624.1	30852	
624.29	29667	
624.48	33166	
624.67	32272	
624.86	30774	
625.05	30107	
625.24	32800	
625.43	31782	
625.62	32398	
625.81	30287	
626	32232	
626.19	32043	
626.38	31069	
626.56	30492	
626.75	32030	
626.94	33002	
627.13	30831	
627.32	29981	
627.51	32621	
627.7	33677	
627.89	30190	
628.08	31191	
628.27	31642	
628.46	31772	
628.65	29896	
628.83	29749	
629.02	32010	
629.21	31438	
629.4	30432	
629.59	30740	
629.78	31653	
629.97	32311	
630.16	30707	
630.35	30216	
630.54	32918	
630.72	32624	
630.91	30255	
631.1	30548	
631.29	32228	
631.48	32239	
631.67	30754	
631.86	30046	
632.05	31836	
632.24	31683	
632.42	29539	
632.61	30348	
632.8	31415	
632.99	31360	
633.18	30534	
633.37	30733	
633.56	31856	
633.75	31747	
633.93	30421	
634.12	30350	
634.31	32505	
634.5	32420	
634.69	30152	
634.88	30125	
635.07	31699	
635.25	32132	
635.44	30951	
635.63	31267	
635.82	31481	
636.01	30836	
636.2	30356	
636.39	30341	
636.57	32230	
636.76	31786	
636.95	29977	
637.14	30686	
637.33	31587	
637.52	32400	
637.7	29236	
637.89	30511	
638.08	31617	
638.27	32488	
638.46	30291	
638.65	30722	
638.83	32291	
639.02	31151	
639.21	30089	
639.4	30456	
639.59	31126	
639.78	30836	
639.96	28982	
640.15	29175	
640.34	30939	
640.53	30816	
640.72	28667	
640.91	28724	
641.09	29926	
641.28	30902	
641.47	28538	
641.66	29283	
641.85	30567	
642.03	30264	
642.22	28892	
642.41	28407	
642.6	29910	
642.79	29309	
642.97	27926	
643.16	28975	
643.35	29718	
643.54	29491	
643.73	27936	
643.91	28429	
644.1	28984	
644.29	29803	
644.48	27693	
644.67	27691	
644.85	28707	
645.04	29002	
645.23	26736	
645.42	27187	
645.6	28140	
645.79	28879	
645.98	26289	
646.17	25420	
646.36	27031	
646.54	27560	
646.73	26234	
646.92	25710	
647.11	27063	
647.29	27871	
647.48	25628	
647.67	25102	
647.86	27650	
648.05	28033	
648.23	25368	
648.42	26417	
648.61	27260	
648.8	27172	
648.98	24978	
649.17	25187	
649.36	26426	
649.55	26326	
649.73	24711	
649.92	25511	
650.11	26585	
650.3	26637	
650.48	24993	
650.67	24861	
650.86	26856	
651.05	26015	
651.23	24808	
651.42	24651	
651.61	26194	
651.79	25716	
651.98	24733	
652.17	24339	
652.36	26144	
652.54	25289	
652.73	24278	
652.92	24180	
653.11	26165	
653.29	26488	
653.48	23515	
653.67	24406	
653.85	25846	
654.04	26725	
654.23	24197	
654.42	23694	
654.6	24753	
654.79	25404	
654.98	22857	
655.16	23066	
655.35	23648	
655.54	23276	
655.73	21718	
655.91	21562	
656.1	23646	
656.29	22787	
656.47	20902	
656.66	22473	
656.85	23078	
657.03	23454	
657.22	22067	
657.41	22407	
657.59	23810	
657.78	24074	
657.97	22437	
658.16	23150	
658.34	24692	
658.53	25542	
658.72	23996	
658.9	24347	
659.09	24705	
659.28	24624	
659.46	23016	
659.65	23044	
659.84	24397	
660.02	24989	
660.21	22859	
660.4	22913	
660.58	25162	
660.77	24696	
660.96	23591	
661.14	22588	
661.33	25537	
661.52	25516	
661.7	22566	
661.89	25651	
662.08	24195	
662.26	24109	
662.45	22712	
662.64	22763	
662.82	24800	
663.01	24220	
663.2	22531	
663.38	23419	
663.57	24388	
663.75	24197	
663.94	22964	
664.13	23857	
664.31	23800	
664.5	24402	
664.69	22941	
664.87	23425	
665.06	23735	
665.25	24511	
665.43	23697	
665.62	23508	
665.8	24454	
665.99	23692	
666.18	22530	
666.36	22701	
666.55	24251	
666.74	24422	
666.92	22112	
667.11	23231	
667.29	23882	
667.48	24108	
667.67	22980	
667.85	22285	
668.04	23696	
668.22	23804	
668.41	22406	
668.6	22592	
668.78	23470	
668.97	23720	
669.15	22680	
669.34	21746	
669.53	23526	
669.71	23878	
669.9	21874	
670.08	22350	
670.27	23367	
670.46	23624	
670.64	22517	
670.83	22898	
671.01	23097	
671.2	23491	
671.38	21941	
671.57	21515	
671.76	24141	
671.94	24739	
672.13	21660	
672.31	22342	
672.5	24077	
672.69	23412	
672.87	21938	
673.06	22183	
673.24	23735	
673.43	23370	
673.61	22320	
673.8	21989	
673.98	23604	
674.17	23939	
674.36	22452	
674.54	22297	
674.73	23321	
674.91	23714	
675.1	22351	
675.28	21563	
675.47	23341	
675.65	24002	
675.84	22018	
676.03	22169	
676.21	23073	
676.4	22725	
676.58	22558	
676.77	22484	
676.95	24427	
677.14	22918	
677.32	21529	
677.51	21533	
677.69	23698	
677.88	22803	
678.06	21480	
678.25	21728	
678.44	23358	
678.62	22774	
678.81	21312	
678.99	22169	
679.18	23945	
679.36	23720	
679.55	21779	
679.73	22289	
679.92	23373	
680.1	23043	
680.29	22689	
680.47	21765	
680.66	22715	
680.84	23468	
681.03	20971	
681.21	22235	
681.4	22952	
681.58	22773	
681.77	21545	
681.95	21449	
682.14	23444	
682.32	23862	
682.51	22215	
682.69	21012	
682.88	22565	
683.06	22784	
683.25	21574	
683.43	22043	
683.62	22849	
683.8	23150	
683.99	22019	
684.17	21578	
684.36	23670	
684.54	22485	
684.73	20391	
684.91	20380	
685.1	22174	
685.28	21509	
685.46	19994	
685.65	19923	
685.83	20997	
686.02	20314	
686.2	18626	
686.39	18839	
686.57	19738	
686.76	21188	
686.94	18882	
687.13	19140	
687.31	20747	
687.5	20825	
687.68	18749	
687.86	20004	
688.05	22360	
688.23	20514	
688.42	20112	
688.6	19583	
688.79	20942	
688.97	20826	
689.16	20138	
689.34	19177	
689.52	21876	
689.71	21943	
689.89	20452	
690.08	19861	
690.26	21543	
690.45	21626	
690.63	20484	
690.81	20377	
691	21388	
691.18	21479	
691.37	20188	
691.55	21758	
691.74	21003	
691.92	22688	
692.1	20028	
692.29	19303	
692.47	20990	
692.66	20452	
692.84	19301	
693.02	19794	
693.21	20538	
693.39	20784	
693.58	19911	
693.76	19602	
693.94	22096	
694.13	22084	
694.31	19888	
694.5	20773	
694.68	21211	
694.86	21657	
695.05	20543	
695.23	20515	
695.42	22346	
695.6	24273	
695.78	21268	
695.97	20468	
696.15	22686	
696.34	21993	
696.52	20461	
696.7	20878	
696.89	21986	
697.07	21371	
697.25	20475	
697.44	21729	
697.62	21708	
697.81	21730	
697.99	19895	
698.17	20355	
698.36	20793	
698.54	21375	
698.72	20193	
698.91	19182	
699.09	20953	
699.28	20656	
699.46	19733	
699.64	19407	
699.83	20656	
700.01	21290	
700.19	20136	
700.38	18742	
700.56	21399	
700.74	20667	
700.93	19006	
701.11	19876	
701.29	20936	
701.48	22078	
701.66	19483	
701.84	19574	
702.03	20803	
702.21	21741	
702.39	19062	
702.58	19921	
702.76	21246	
702.94	21332	
703.13	19216	
703.31	21266	
703.49	20715	
703.68	21779	
703.86	19109	
704.04	19994	
704.23	20850	
704.41	21217	
704.59	19243	
704.78	19932	
704.96	21939	
705.14	21109	
705.33	19041	
705.51	19350	
705.69	20622	
705.87	21372	
706.06	19934	
706.24	18754	
706.42	20779	
706.61	21068	
706.79	19579	
706.97	18540	
707.16	20023	
707.34	20435	
707.52	19142	
707.7	18820	
707.89	20122	
708.07	19800	
708.25	19297	
708.44	19677	
708.62	19792	
708.8	20692	
708.98	19336	
709.17	18553	
709.35	19944	
709.53	20014	
709.72	18150	
709.9	18360	
710.08	20148	
710.26	20064	
710.45	18986	
710.63	18023	
710.81	19453	
710.99	19433	
711.18	18329	
711.36	17717	
711.54	18980	
711.72	19426	
711.91	17626	
712.09	17060	
712.27	18726	
712.45	19545	
712.64	17259	
712.82	16306	
713	17763	
713.18	17632	
713.37	16137	
713.55	16804	
713.73	18147	
713.91	16578	
714.1	15727	
714.28	14833	
714.46	16644	
714.64	15730	
714.83	13359	
715.01	13561	
715.19	14612	
715.37	13676	
715.55	12444	
715.74	12722	
715.92	14552	
716.1	12797	
716.28	13336	
716.47	12389	
716.65	13135	
716.83	13169	
717.01	11921	
717.19	11923	
717.38	14814	
717.56	12677	
717.74	12103	
717.92	11290	
718.1	13633	
718.29	12998	
718.47	11209	
718.65	12008	
718.83	14240	
719.01	14357	
719.2	12039	
719.38	13195	
719.56	14532	
719.74	15864	
719.92	12835	
720.11	13493	
720.29	14425	
720.47	13555	
720.65	11962	
720.83	12391	
721.02	13093	
721.2	12672	
721.38	11762	
721.56	11023	
721.74	12049	
721.92	11933	
722.11	11948	
722.29	11580	
722.47	13030	
722.65	12289	
722.83	10853	
723.01	11327	
723.2	12157	
723.38	12471	
723.56	10195	
723.74	11178	
723.92	11635	
724.1	12648	
724.29	10643	
724.47	11488	
724.65	11781	
724.83	11645	
725.01	10254	
725.19	10836	
725.37	11275	
725.56	11362	
725.74	9932	
725.92	10294	
726.1	11413	
726.28	11656	
726.46	10451	
726.64	10094	
726.83	11441	
727.01	11611	
727.19	9740.1	
727.37	10456	
727.55	11539	
727.73	11918	
727.91	9611.1	
728.09	9437	
728.28	11845	
728.46	12187	
728.64	10416	
728.82	10357	
729	12729	
729.18	12179	
729.36	9778.4	
729.54	11693	
729.72	13237	
729.91	11805	
730.09	11658	
730.27	10636	
730.45	11768	
730.63	12279	
730.81	11182	
730.99	10352	
731.17	12693	
731.35	11567	
731.53	10660	
731.71	10480	
731.9	12405	
732.08	12467	
732.26	10512	
732.44	10166	
732.62	12466	
732.8	12005	
732.98	10636	
733.16	9747	
733.34	11804	
733.52	10596	
733.7	9940.8	
733.88	10147	
734.07	11418	
734.25	11232	
734.43	9456.8	
734.61	10749	
734.79	12482	
734.97	11058	
735.15	9575.6	
735.33	9793.4	
735.51	11301	
735.69	11052	
735.87	10975	
736.05	9716.9	
736.23	11014	
736.41	10770	
736.59	9516.9	
736.77	9665.7	
736.95	11366	
737.13	10747	
737.32	9180.4	
737.5	9470.5	
737.68	11639	
737.86	10486	
738.04	8901.2	
738.22	10395	
738.4	10222	
738.58	10512	
738.76	9213.1	
738.94	8348.9	
739.12	10146	
739.3	10202	
739.48	9805.7	
739.66	9430.2	
739.84	10350	
740.02	10444	
740.2	8357.1	
740.38	8624.7	
740.56	10664	
740.74	9542.2	
740.92	9138.7	
741.1	8890.9	
741.28	9837.1	
741.46	9817.3	
741.64	8460.2	
741.82	8837.7	
742	9891	
742.18	9818	
742.36	8540.7	
742.54	8219.2	
742.72	10166	
742.9	9157.8	
743.08	8811.7	
743.26	7742.7	
743.44	10331	
743.62	10114	
743.8	8743.5	
743.98	7844.4	
744.16	9734	
744.34	9400.2	
744.52	8511.4	
744.7	8507.9	
744.88	9742.9	
745.06	9258.9	
745.24	8432.9	
745.42	8415.8	
745.6	9583.1	
745.78	9471.2	
745.96	7239.6	
746.14	7458	
746.32	10139	
746.5	9443.2	
746.68	7874.4	
746.86	7301.7	
747.03	9744.2	
747.21	8251.3	
747.39	7764.5	
747.57	7235.5	
747.75	8871.1	
747.93	9212.4	
748.11	7222.5	
748.29	7117.4	
748.47	10269	
748.65	8628.1	
748.83	7791.8	
749.01	7580.9	
749.19	9007	
749.37	8258.8	
749.55	7397.9	
749.73	7438.2	
749.91	8646.5	
750.09	8370.7	
750.26	7365.9	
750.44	6883.9	
750.62	8578.3	
750.8	8542.8	
750.98	6748.7	
751.16	6995.9	
751.34	8573.5	
751.52	8013.7	
751.7	7618.4	
751.88	6575.3	
752.06	8958.5	
752.24	8734.6	
752.42	6431.3	
752.59	6810.2	
752.77	8307.2	
752.95	9387.9	
753.13	7449.1	
753.31	6880.5	
753.49	8008.2	
753.67	8346.8	
753.85	7007.5	
754.03	6563.7	
754.21	8434.2	
754.38	8682	
754.56	6471.6	
754.74	5621.7	
754.92	7438.2	
755.1	7931.8	
755.28	5301.5	
755.46	5271.5	
755.64	8243.1	
755.82	8139.3	
755.99	5146.5	
756.17	5063.9	
756.35	5731.6	
756.53	6950.8	
756.71	3940.3	
756.89	4770.4	
757.07	6560.3	
757.25	5870.2	
757.42	5297.4	
757.6	5993	
757.78	6808.8	
757.96	5948	
758.14	5107	
758.32	4772.4	
758.5	5596.4	
758.67	6285.9	
758.85	4978.6	
759.03	5105.6	
759.21	6459.3	
759.39	5924.1	
759.57	4678.9	
759.75	5615.5	
759.92	7065.5	
760.1	6558.3	
760.28	5952.8	
760.46	6236.1	
760.64	6402.6	
760.82	6204	
760.99	5965.7	
761.17	5271.5	
761.35	7204.8	
761.53	6268.1	
761.71	5447.6	
761.89	6059.9	
762.06	7159	
762.24	6776	
762.42	5518.6	
762.6	5393	
762.78	6742.6	
762.96	7296.9	
763.13	5980.8	
763.31	5668.1	
763.49	7527	
763.67	6791.7	
763.85	6419	
764.02	6810.9	
764.2	7783	
764.38	6916.7	
764.56	5565	
764.74	6252.4	
764.91	7776.1	
765.09	6800.6	
765.27	5272.8	
765.45	5042.1	
765.63	7869	
765.8	7647.8	
765.98	4859.8	
766.16	5125.4	
766.34	6383.5	
766.52	6133.7	
766.69	5855.8	
766.87	4926.7	
767.05	6702.3	
767.23	7350.8	
767.41	5148.6	
767.58	5341.1	
767.76	7012.9	
767.94	7092.1	
768.12	5182.7	
768.29	5677	
768.47	6583.5	
768.65	7200.7	
768.83	4730.1	
769	5705.6	
769.18	6134.3	
769.36	6822.5	
769.54	5720	
769.72	4773.1	
769.89	6944.7	
770.07	7098.9	
770.25	5002.5	
770.43	6135.7	
770.6	7626.6	
770.78	7946.1	
770.96	5108.3	
771.14	5611.4	
771.31	6848.4	
771.49	6262.7	
771.67	4311.7	
771.85	4552	
772.02	5614.8	
772.2	6223.8	
772.38	5224.4	
772.55	4781.3	
772.73	6447	
772.91	6201.9	
773.09	5016.2	
773.26	5130.8	
773.44	6375.3	
773.62	6062	
773.8	4590.9	
773.97	4371	
774.15	6343.9	
774.33	6028.5	
774.5	4435.2	
774.68	4810	
774.86	6507.1	
775.04	6079.7	
775.21	4511	
775.39	4435.9	
775.57	6229.9	
775.74	6552.8	
775.92	4339.6	
776.1	4228.4	
776.27	6161.7	
776.45	7277.8	
776.63	4416.8	
776.81	4095.9	
776.98	5817.6	
777.16	6812.2	
777.34	4542.4	
777.51	4792.2	
777.69	5803.3	
777.87	5627.1	
778.04	4573.1	
778.22	5044.8	
778.4	5626.5	
778.57	6213.5	
778.75	3881.6	
778.93	4113	
779.1	5477.6	
779.28	5369.1	
779.46	3857.7	
779.64	4235.2	
779.81	6283.2	
779.99	6974.7	
780.17	4911.7	
780.34	5022.3	
780.52	5781.4	
780.69	5882.4	
780.87	4549.9	
781.05	4131.4	
781.22	5823.1	
781.4	5836	
781.58	4242	
781.75	3531.4	
781.93	5797.1	
782.11	5285.1	
782.28	4976.6	
782.46	4188.1	
782.64	5123.3	
782.81	5927.5	
782.99	4275.5	
783.17	4214	
783.34	5776.6	
783.52	5164.3	
783.69	4423.6	
783.87	5110.4	
784.05	5206.6	
784.22	5227.1	
784.4	5048.2	
784.58	4419.5	
784.75	6010.1	
784.93	5198.4	
785.1	4112.3	
785.28	4640.7	
785.46	5711.8	
785.63	5165.7	
785.81	4133.5	
785.99	3948.5	
786.16	5320.6	
786.34	5634.6	
786.51	3944.4	
786.69	4298	
786.87	4928.8	
787.04	5373.2	
787.22	3839.3	
787.39	4604.5	
787.57	5122.7	
787.75	6033.3	
787.92	4816.1	
788.1	4711	
788.27	5132.2	
788.45	4918.5	
788.63	4489.1	
788.8	3375.7	
788.98	5573.2	
789.15	4844.1	
789.33	3596.2	
789.5	4091.8	
789.68	5935	
789.86	5930.2	
790.03	4396.3	
790.21	3904.1	
790.38	5872.2	
790.56	5244.2	
790.73	3816.7	
790.91	3764.8	
791.09	5086.5	
791.26	5722.7	
791.44	4007.2	
791.61	3512.3	
791.79	5082.4	
791.96	5057.8	
792.14	3637.2	
792.32	3272.7	
792.49	5065.3	
792.67	5187.5	
792.84	3633.1	
793.02	3478.8	
793.19	5416.2	
793.37	6025.1	
793.54	3261	
793.72	3544.4	
793.89	6034	
794.07	5018.9	
794.25	3928.7	
794.42	3294.5	
794.6	5893.4	
794.77	5625.1	
794.95	4265.2	
795.12	3740.3	
795.3	5020.3	
795.47	5518.6	
795.65	4074.8	
795.82	3957.4	
796	4840	
796.17	6474.3	
796.35	3874.8	
796.52	4432.5	
796.7	5476.3	
796.87	5548.6	
797.05	3844.7	
797.22	4650.9	
797.4	5508.4	
797.57	6329.6	
797.75	3949.8	
797.92	3773	
798.1	5777.3	
798.27	4931.5	
798.45	3286.3	
798.62	3428.3	
798.8	5222.3	
798.97	5653.1	
799.15	4107.5	
799.32	3949.2	
799.5	4608.6	
799.67	5287.9	
799.85	4252.9	
800.02	3239.9	
800.2	4876.9	
800.37	5188.9	
800.55	4386.1	
800.72	3710.9	
800.9	5595.1	
801.07	6008.7	
801.25	4844.8	
801.42	4016.7	
801.6	5601.9	
801.77	5289.2	
801.95	3790.1	
802.12	3622.2	
802.29	5408.7	
802.47	5329.5	
802.64	3989.4	
802.82	3099.3	
802.99	4915.1	
803.17	5712.5	
803.34	3872.7	
803.52	3530.7	
803.69	6280.4	
803.87	4614.8	
804.04	3885.7	
804.21	3926.6	
804.39	5792.3	
804.56	5048.2	
804.74	3333.4	
804.91	4029.7	
805.09	4923.3	
805.26	5013.4	
805.44	3371.6	
805.61	3682.9	
805.78	5517.9	
805.96	5502.2	
806.13	4005.1	
806.31	4260.5	
806.48	4454.3	
806.66	4924	
806.83	3980.6	
807	3891.1	
807.18	4838	
807.35	5181.4	
807.53	3781.2	
807.7	3207.8	
807.87	5877	
808.05	4908.3	
808.22	4194.9	
808.4	3149.1	
808.57	4878.9	
808.74	4573.1	
808.92	3517.7	
809.09	4408.6	
809.27	4816.1	
809.44	5264	
809.61	3143.6	
809.79	3499.3	
809.96	5874.9	
810.14	5479	
810.31	3063.1	
810.48	3731.4	
810.66	4909.7	
810.83	5565	
811.01	3472	
811.18	3837.2	
811.35	5427.1	
811.53	4362.9	
811.7	4183.3	
811.87	3905.5	
812.05	4844.1	
812.22	4815.5	
812.39	3394.2	
812.57	3339.6	
812.74	4859.8	
812.92	6267.5	
813.09	3706.1	
813.26	3951.9	
813.44	6030.6	
813.61	4744.5	
813.78	3122.5	
813.96	4067.9	
814.13	4867.3	
814.3	4607.2	
814.48	4392.9	
814.65	3704.8	
814.82	6137.1	
815	4630.5	
815.17	3857	
815.34	4515.1	
815.52	4782	
815.69	4771.8	
815.87	3730.7	
816.04	3612.6	
816.21	4799.1	
816.38	4288.4	
816.56	3592.8	
816.73	3426.3	
816.9	5980.8	
817.08	5441.5	
817.25	3429	
817.42	4186	
817.6	4433.9	
817.77	4809.3	
817.94	3844.7	
818.12	3383.2	
818.29	4638.6	
818.46	6896.2	
818.64	3523.9	
818.81	3348.4	
818.98	4584	
819.16	6448.4	
819.33	3960.1	
819.5	3739.6	
819.67	5203.2	
819.85	5689.9	
820.02	3732.1	
820.19	3882.9	
820.37	5036	
820.54	4766.3	
820.71	3740.3	
820.88	4648.9	
821.06	5011.4	
821.23	4648.9	
821.4	3801.7	
821.58	3732.1	
821.75	5406.6	
821.92	4914.4	
822.09	3102.7	
822.27	3198.9	
822.44	4861.2	
822.61	4735.6	
822.79	3146.4	
822.96	5743.2	
823.13	5167.7	
823.3	4502.8	
823.48	3581.9	
823.65	3255.6	
823.82	5478.3	
823.99	4435.9	
824.17	4490.5	
824.34	3271.3	
824.51	6194.4	
824.68	4865.3	
824.86	3459	
825.03	3746.4	
825.2	4821.6	
825.37	5735	
825.55	3406.5	
825.72	3771.7	
825.89	6225.8	
826.06	5790.3	
826.24	3622.9	
826.41	3643.3	
826.58	5815.5	
826.75	5073.5	
826.92	2993.4	
827.1	3195.5	
827.27	7667.6	
827.44	6134.3	
827.61	3424.9	
827.79	4097.3	
827.96	4614.1	
828.13	4879.6	
828.3	3650.8	
828.47	3087	
828.65	5057.8	
828.82	5033.2	
828.99	4526.7	
829.16	4053.6	
829.34	5408	
829.51	5197.1	
829.68	3685	
829.85	3814.7	
830.02	5638.7	
830.2	5369.1	
830.37	2935.4	
830.54	4431.8	
830.71	6067.4	
830.88	4831.8	
831.05	2974.3	
831.23	3381.9	
831.4	5858.6	
831.57	6363	
831.74	3457	
831.91	3082.9	
832.09	5060.5	
832.26	5373.2	
832.43	3530.7	
832.6	4003.1	
832.77	5050.3	
832.94	5771.2	
833.12	2891	
833.29	3443.3	
833.46	4723.3	
833.63	6611.5	
833.8	3868.6	
833.97	3557.3	
834.15	5388.2	
834.32	5134.3	
834.49	3697.3	
834.66	3714.3	
834.83	5490.6	
835	4592.9	
835.17	3398.9	
835.35	3497.2	
835.52	5281.7	
835.69	5143.8	
835.86	3701.4	
836.03	3032.4	
836.2	5285.1	
836.37	5012.7	
836.55	3587.4	
836.72	3348.4	
836.89	5035.3	
837.06	5447.6	
837.23	3648.1	
837.4	3921.2	
837.57	6027.9	
837.75	6606.7	
837.92	3329.3	
838.09	3453.6	
838.26	5010	
838.43	5582.1	
838.6	3784	
838.77	3333.4	
838.94	6331.6	
839.11	6068.1	
839.29	3553.2	
839.46	2874.7	
839.63	5345.2	
839.8	5087.8	
839.97	3419.4	
840.14	3498.6	
840.31	5175.9	
840.48	5298.1	
840.65	2926.5	
840.82	3376.4	
841	5300.1	
841.17	5251.7	
841.34	3234.4	
841.51	3254.2	
841.68	5256.5	
841.85	5042.1	
842.02	3327.9	
842.19	2770.2	
842.36	5146.5	
842.53	5104.2	
842.7	3210.5	
842.87	3880.9	
843.05	6597.2	
843.22	5040.7	
843.39	3054.2	
843.56	3319.1	
843.73	4915.8	
843.9	5366.4	
844.07	5016.2	
844.24	4171.7	
844.41	7530.4	
844.58	4683	
844.75	3111.5	
844.92	3294.5	
845.09	5361.6	
845.26	5272.8	
845.43	3178.4	
845.6	3379.8	
845.77	5294	
845.94	5040.7	
846.12	3499.3	
846.29	3723.2	
846.46	5534.3	
846.63	5265.3	
846.8	3235.1	
846.97	3742.3	
847.14	5681.7	
847.31	5310.4	
847.48	3508.2	
847.65	3865.2	
847.82	5516.5	
847.99	5522	
848.16	4156.7	
848.33	3884.3	
848.5	4958.8	
848.67	5735.7	
848.84	3138.9	
849.01	3307.5	
849.18	4835.9	
849.35	4545.8	
849.52	3932.1	
849.69	3097.9	
849.86	5469.4	
850.03	5674.9	
850.2	3186.6	
850.37	3816	
850.54	5588.2	
850.71	4979.3	
850.88	3738.9	
851.05	3106.8	
851.22	5197.1	
851.39	5805.3	
851.56	2998.2	
851.73	3576.4	
851.9	4653	
852.07	5525.4	
852.24	3507.5	
852.41	3141.6	
852.58	5215.5	
852.75	4741	
852.92	3611.9	
853.09	3089	
853.26	4926.7	
853.43	5714.5	
853.6	3145	
853.77	2699.9	
853.94	5763	
854.11	5253.7	
854.28	4590.9	
854.44	3374.4	
854.61	6109.1	
854.78	5562.3	
854.95	3164.1	
855.12	3886.4	
855.29	4293.2	
855.46	6048.3	
855.63	3102.7	
855.8	4282.3	
855.97	4947.2	
856.14	5618.9	
856.31	4321.9	
856.48	3394.2	
856.65	4884.4	
856.82	4634.6	
856.99	3064.4	
857.16	3382.6	
857.33	6318.7	
857.49	5016.8	
857.66	3315.7	
857.83	3604.4	
858	5008	
858.17	5143.1	
858.34	2935.4	
858.51	3184.6	
858.68	5846.3	
858.85	5866.1	
859.02	3652.2	
859.19	3829	
859.36	4657.1	
859.52	4765.6	
859.69	3176.4	
859.86	3700	
860.03	4771.1	
860.2	5783.5	
860.37	2899.9	
860.54	3162.1	
860.71	5482.4	
860.88	5768.4	
861.05	3493.8	
861.21	3900.7	
861.38	5817.6	
861.55	4562.2	
861.72	2843.9	
861.89	3586.7	
862.06	5537.7	
862.23	5955.5	
862.4	3061.7	
862.56	3203.7	
862.73	5385.5	
862.9	5062.6	
863.07	3603.7	
863.24	2896.5	
863.41	4604.5	
863.58	4708.3	
863.75	3227.6	
863.91	3635.1	
864.08	5715.9	
864.25	5406.6	
864.42	3897.3	
864.59	4285.7	
864.76	5988.3	
864.93	4696	
865.09	3052.2	
865.26	3341.6	
865.43	5731.6	
865.6	6008.1	
865.77	2751.1	
865.94	3112.9	
866.1	5750.7	
866.27	5446.9	
866.44	4582	
866.61	3001.6	
866.78	4966.3	
866.95	5336.3	
867.11	3034.4	
867.28	2772.9	
867.45	5570.5	
867.62	4721.9	
867.79	3553.9	
867.96	3093.1	
868.12	4684.4	
868.29	5445.5	
868.46	2702	
868.63	4076.8	
868.8	5614.8	
868.97	5449.6	
869.13	3232.4	
869.3	3290.4	
869.47	5337	
869.64	5528.2	
869.81	3183.9	
869.97	3164.8	
870.14	5251.7	
870.31	5809.4	
870.48	3071.3	
870.65	3908.9	
870.81	5010.7	
870.98	5041.4	
871.15	3546.4	
871.32	3287.7	
871.48	5375.2	
871.65	5850.4	
871.82	3163.4	
871.99	3381.2	
872.16	6158.9	
872.32	5674.2	
872.49	3162.7	
872.66	3156.6	
872.83	5476.3	
872.99	4821.6	
873.16	3528	
873.33	3089	
873.5	5114.5	
873.67	5249.6	
873.83	3289	
874	4165.6	
874.17	5273.5	
874.34	6135	
874.5	3959.4	
874.67	3899.3	
874.84	5724.1	
875.01	4585.4	
875.17	4302.8	
875.34	3142.3	
875.51	5202.5	
875.68	6216.3	
875.84	3725.9	
876.01	4477.5	
876.18	5412.1	
876.34	5369.8	
876.51	3135.4	
876.68	3078.1	
876.85	4994.3	
877.01	5681.7	
877.18	4342.4	
877.35	3081.5	
877.52	5084.4	
877.68	4612.7	
877.85	3097.2	
878.02	3090.4	
878.18	5039.4	
878.35	4805.2	
878.52	2549	
878.69	3491.1	
878.85	5521.3	
879.02	5421	
879.19	4356	
879.35	3369.6	
879.52	5425.1	
879.69	5518.6	
879.86	2764.8	
880.02	3506.8	
880.19	5038	
880.36	6111.1	
880.52	3554.6	
880.69	3699.3	
880.86	5543.9	
881.02	5572.5	
881.19	3464.5	
881.36	3389.4	
881.52	5375.9	
881.69	4829.8	
881.86	3335.5	
882.02	3330	
882.19	5545.2	
882.36	6475	
882.52	3191.4	
882.69	4321.9	
882.86	5208.7	
883.02	5176.6	
883.19	3759.4	
883.36	3525.9	
883.52	5489.2	
883.69	6195.1	
883.86	3102.7	
884.02	2849.4	
884.19	5397.1	
884.36	5101.5	
884.52	3506.8	
884.69	3303.4	
884.86	4884.4	
885.02	5969.8	
885.19	3441.3	
885.36	3611.9	
885.52	5020.3	
885.69	5236	
885.86	4447.5	
886.02	3918.4	
886.19	5447.6	
886.35	4945.2	
886.52	3433.1	
886.69	4354	
886.85	4739	
887.02	5722	
887.19	5722	
887.35	5722	
887.52	5722	
887.68	5722	
887.85	5722	
888.02	5722	
888.18	5722	
888.35	5722	
888.51	5722	
888.68	5722	
888.85	5722	
889.01	5722	
889.18	5722	
889.35	5722	
889.51	5722	
889.68	5722	
889.84	5722	
890.01	5722	
890.17	5722	
890.34	5722	
890.51	5722	
890.67	5722	
890.84	5722	
891	5722	
891.17	5722	
891.34	5722	
891.5	5722	
891.67	5722	
891.83	5722	
892	5722	
892.16	5722	
892.33	5722	
892.5	5722	
892.66	5722	
892.83	5722	
892.99	5722	
893.16	5722	
893.32	5722	
893.49	5722	
893.65	5722	
893.82	5722	
893.99	5722	
894.15	5722	
894.32	5722	
894.48	5722	
894.65	5722	
894.81	5722	
894.98	5722	
895.14	5722	
895.31	5722	
895.47	5722	
895.64	5722	
895.81	5722	
895.97	5722	
896.14	5722	
896.3	5722	
896.47	5722	
896.63	5722	
896.8	5722	
896.96	5722	
897.13	5722	
897.29	5722	
897.46	5722	
897.62	5722	
897.79	5722	
897.95	5722	
898.12	5722	
898.28	5722	
898.45	5722	
898.61	5722	
898.78	5722	
898.94	5722	
899.11	5722	
899.27	5722	
899.44	5722	
899.6	5722	
899.77	5722	
899.93	5722	
900.1	5722	
900.26	5722	
900.43	5722	
900.59	5722	
900.76	5722	
900.92	5722	
901.09	5722	
901.25	5722	
901.42	5722	
901.58	5722	
901.75	5722	
901.91	5722	
902.07	5722	
902.24	5722	
902.4	5722	
902.57	5722	
902.73	5722	
902.9	5722	
903.06	5722	
903.23	5722	
903.39	5722	
903.56	5722	
903.72	5722	
903.88	5722	
904.05	5722	
904.21	5722	
904.38	5722	
904.54	5722	
904.71	5722	
904.87	5722	
905.03	5722	
905.2	5722	
905.36	5722	
905.53	5722	
905.69	5722	
905.86	5722	
906.02	5722	
906.18	5722	
906.35	5722	
906.51	5722	
906.68	5722	
906.84	5722	
907.01	5722	
907.17	5722	
907.33	5722	
907.5	5722	
907.66	5722	
907.83	5722	
907.99	5722	
908.15	5722	
908.32	5722	
908.48	5722	
908.65	5722	
908.81	5722	
908.97	5722	
909.14	5722	
909.3	5722	
909.47	5722	
909.63	5722	
909.79	5722	
909.96	5722	
910.12	5722	
910.28	5722	
910.45	5722	
910.61	5722	
910.78	5722	
910.94	5722	
911.1	5722	
911.27	5722	
911.43	5722	
911.59	5722	
911.76	5722	
911.92	5722	
912.08	5722	
912.25	5722	
912.41	5722	
912.57	5722	
912.74	5722	
912.9	5722	
913.07	5722	
913.23	5722	
913.39	5722	
913.56	5722	
913.72	5722	
913.88	5722	
914.05	5722	
914.21	5722	
914.37	5722	
914.54	5722	
914.7	5722	
914.86	5722	
915.03	5722	
915.19	5722	
