Wavelength	Intensities	
nm	a.u.	
179.22	1916.9	
179.44	1920.3	
179.65	1913.5	
179.86	1927.1	
180.08	1901.9	
180.29	5057.1	
180.51	3567.6	
180.72	5715.2	
180.94	6792.4	
181.15	3327.3	
181.37	3215.3	
181.58	5618.9	
181.79	5915.2	
182.01	3405.8	
182.22	3696.6	
182.44	5900.9	
182.65	4894	
182.87	4646.8	
183.08	4102.8	
183.29	6165.1	
183.51	5004.6	
183.72	3775.1	
183.94	5503.6	
184.15	5468.8	
184.37	5504.3	
184.58	3281.5	
184.79	4532.2	
185.01	5100.1	
185.22	5894.7	
185.44	4824.3	
185.65	4020.8	
185.86	5347.2	
186.08	4987.5	
186.29	3151.1	
186.51	3474.7	
186.72	5122.7	
186.94	6009.4	
187.15	3969	
187.36	4104.8	
187.58	7944.1	
187.79	5612.8	
188.01	4311	
188.22	6748.1	
188.43	6731.7	
188.65	5870.2	
188.86	3416	
189.08	4134.2	
189.29	5316.5	
189.5	5320.6	
189.72	3869.3	
189.93	3920.5	
190.15	6056.5	
190.36	7305.8	
190.57	4205.8	
190.79	3999.7	
191	6182.8	
191.22	6122.1	
191.43	4238.6	
191.64	3418.1	
191.86	6412.2	
192.07	6081.1	
192.29	3658.4	
192.5	3908.2	
192.71	6112.5	
192.93	5205.9	
193.14	3774.4	
193.35	3943	
193.57	5317.9	
193.78	6165.1	
194	3046.7	
194.21	3686.3	
194.42	4956.1	
194.64	5478.3	
194.85	4097.3	
195.07	4863.2	
195.28	5522.7	
195.49	4762.2	
195.71	5136.3	
195.92	3507.5	
196.13	5728.9	
196.35	5803.3	
196.56	5474.2	
196.78	4102.8	
196.99	7139.2	
197.2	6731.7	
197.42	4678.9	
197.63	4225	
197.84	4951.3	
198.06	5638.1	
198.27	3801.7	
198.48	5169.1	
198.7	5226.4	
198.91	5395	
199.13	4171.7	
199.34	4119.1	
199.55	5902.9	
199.77	4760.8	
199.98	3685	
200.19	4231.8	
200.41	5313.8	
200.62	5034.6	
200.83	4360.8	
201.05	4681	
201.26	5413.5	
201.47	5143.1	
201.69	3759.4	
201.9	3550.5	
202.11	5506.3	
202.33	6547.4	
202.54	3956	
202.76	4427	
202.97	5627.8	
203.18	5631.9	
203.4	4316.4	
203.61	4169.7	
203.82	5568.4	
204.04	5173.9	
204.25	4130.1	
204.46	4154	
204.68	5535.7	
204.89	5807.4	
205.1	4074.1	
205.32	3540.9	
205.53	5957.5	
205.74	6042.2	
205.96	2977.7	
206.17	4278.9	
206.38	5906.3	
206.6	5985.5	
206.81	4737	
207.02	3940.3	
207.24	5773.9	
207.45	6214.9	
207.66	3972.4	
207.88	3310.9	
208.09	5724.8	
208.3	5544.5	
208.52	3593.5	
208.73	4020.2	
208.94	5498.8	
209.15	6285.9	
209.37	3906.2	
209.58	4140.3	
209.79	6018.3	
210.01	5294	
210.22	3117.7	
210.43	3256.3	
210.65	5475.6	
210.86	5924.8	
211.07	3964.2	
211.29	3620.1	
211.5	5881.1	
211.71	5384.1	
211.93	3611.9	
212.14	3608.5	
212.35	5436.7	
212.56	5656.5	
212.78	4137.6	
212.99	3462.4	
213.2	6468.9	
213.42	5231.2	
213.63	3760.8	
213.84	4050.9	
214.06	4811.4	
214.27	5006.6	
214.48	3958.7	
214.69	4214.7	
214.91	6210.8	
215.12	6305	
215.33	4264.6	
215.55	4704.2	
215.76	6815.6	
215.97	5910.4	
216.18	4063.9	
216.4	3995.6	
216.61	5188.9	
216.82	6016.9	
217.04	3606.5	
217.25	3803.8	
217.46	6150.1	
217.67	5927.5	
217.89	3272	
218.1	3384.6	
218.31	5610.8	
218.53	5670.1	
218.74	3839.9	
218.95	3627.6	
219.16	5513.8	
219.38	6429.9	
219.59	3734.1	
219.8	4476.2	
220.01	7121.5	
220.23	5539.8	
220.44	4901.5	
220.65	3582.6	
220.87	5567.1	
221.08	6195.8	
221.29	3291.1	
221.5	4524.6	
221.72	7507.2	
221.93	5195.7	
222.14	4242	
222.35	4999.1	
222.57	5560.9	
222.78	5860.6	
222.99	3981.9	
223.2	4373.8	
223.42	5857.2	
223.63	5994.4	
223.84	3082.9	
224.05	2999.6	
224.27	7150.1	
224.48	6431.3	
224.69	4982	
224.9	4185.4	
225.12	5734.3	
225.33	5466.7	
225.54	3333.4	
225.75	3723.9	
225.97	5083.1	
226.18	5378	
226.39	4071.4	
226.6	3706.8	
226.82	5246.2	
227.03	5152.7	
227.24	4158.7	
227.45	3426.9	
227.67	5880.4	
227.88	6471.6	
228.09	4629.8	
228.3	4683	
228.52	5981.4	
228.73	5416.9	
228.94	3850.9	
229.15	3462.4	
229.36	5422.3	
229.58	5341.1	
229.79	3896.6	
230	4595	
230.21	6579.4	
230.43	5668.1	
230.64	4151.9	
230.85	4250.9	
231.06	5912.5	
231.28	5990.3	
231.49	3433.8	
231.7	4039.3	
231.91	5872.2	
232.12	5554.1	
232.34	3493.2	
232.55	4093.2	
232.76	6141.9	
232.97	5702.9	
233.18	3629	
233.4	4136.9	
233.61	5752.1	
233.82	5244.2	
234.03	3821.5	
234.25	3728.7	
234.46	7709.9	
234.67	5547.9	
234.88	4285	
235.09	3724.6	
235.31	5878.4	
235.52	5397.8	
235.73	4157.4	
235.94	3496.6	
236.15	5154.7	
236.37	6761.7	
236.58	3644.7	
236.79	4018.8	
237	5808	
237.21	4973.8	
237.43	4325.3	
237.64	3424.2	
237.85	10130	
238.06	5050.3	
238.27	4393.6	
238.48	3463.8	
238.7	5925.5	
238.91	5384.8	
239.12	4006.5	
239.33	4020.2	
239.54	5292.6	
239.76	5477	
239.97	3933.5	
240.18	3926	
240.39	6926.2	
240.6	5765	
240.82	4166.3	
241.03	3372.3	
241.24	5494.7	
241.45	6415.6	
241.66	3615.3	
241.87	4268.6	
242.09	6261.3	
242.3	6699.6	
242.51	4349.2	
242.72	4045.4	
242.93	5990.3	
243.14	5457.8	
243.36	4558.8	
243.57	5030.5	
243.78	6389.7	
243.99	5882.4	
244.2	3973.7	
244.41	3598.3	
244.63	5042.1	
244.84	5840.8	
245.05	4326.7	
245.26	4014.7	
245.47	5765.7	
245.68	6137.8	
245.9	5304.9	
246.11	4243.4	
246.32	5350.7	
246.53	5797.1	
246.74	6550.1	
246.95	3332.7	
247.16	5023.7	
247.38	5527.5	
247.59	3302	
247.8	3999	
248.01	5132.2	
248.22	5407.3	
248.43	3635.1	
248.64	3904.8	
248.86	4878.9	
249.07	5238	
249.28	3534.1	
249.49	4102.8	
249.7	6055.2	
249.91	6211.5	
250.12	3306.8	
250.34	3379.8	
250.55	5671.5	
250.76	5496.7	
250.97	4124.6	
251.18	4229.1	
251.39	6283.9	
251.6	5711.8	
251.81	4234.5	
252.03	4205.8	
252.24	5177.9	
252.45	6038.8	
252.66	3441.3	
252.87	4446.8	
253.08	5552.7	
253.29	7353.6	
253.5	3429.7	
253.72	4833.9	
253.93	5352.7	
254.14	6620.4	
254.35	3777.8	
254.56	3898	
254.77	5750	
254.98	5083.1	
255.19	3684.3	
255.41	4916.5	
255.62	5625.8	
255.83	6250.4	
256.04	4341.7	
256.25	4214.7	
256.46	6778.8	
256.67	5193.6	
256.88	4148.5	
257.09	4612.7	
257.31	5117.9	
257.52	5212.1	
257.73	5191.6	
257.94	3805.8	
258.15	5360.9	
258.36	5533.6	
258.57	4833.2	
258.78	3046.7	
258.99	6078.4	
259.2	5378	
259.41	3824.9	
259.63	3919.1	
259.84	6382.8	
260.05	6875	
260.26	5071.5	
260.47	3740.3	
260.68	6076.3	
260.89	5378	
261.1	4593.6	
261.31	3642	
261.52	6101.6	
261.73	6519.4	
261.95	4954	
262.16	4279.6	
262.37	6282.5	
262.58	6322.8	
262.79	4995.7	
263	3878.2	
263.21	5592.3	
263.42	5044.8	
263.63	3920.5	
263.84	3846.8	
264.05	6092	
264.26	6478.4	
264.47	5038	
264.69	4392.2	
264.9	6266.8	
265.11	5748.6	
265.32	3657	
265.53	3833.8	
265.74	5645.6	
265.95	4923.3	
266.16	4062.5	
266.37	4539.7	
266.58	5650.3	
266.79	5297.4	
267	3730	
267.21	3506.1	
267.42	5044.8	
267.63	5513.1	
267.84	4024.3	
268.06	3405.8	
268.27	5923.4	
268.48	6294.1	
268.69	3893.2	
268.9	4631.1	
269.11	6194.4	
269.32	4928.8	
269.53	4005.8	
269.74	3639.9	
269.95	5851	
270.16	4840	
270.37	3992.2	
270.58	4635.2	
270.79	5352	
271	6028.5	
271.21	4332.1	
271.42	3992.2	
271.63	5608	
271.84	5146.5	
272.05	3160.7	
272.26	3613.3	
272.47	5583.4	
272.68	5758.2	
272.89	3876.1	
273.11	4410	
273.32	5315.8	
273.53	6560.3	
273.74	4341	
273.95	4289.8	
274.16	6214.9	
274.37	5608.7	
274.58	4355.3	
274.79	3551.2	
275	5614.8	
275.21	6204.7	
275.42	5330.2	
275.63	4567	
275.84	5733.6	
276.05	7308.5	
276.26	4221.5	
276.47	3951.2	
276.68	5268.1	
276.89	6593.8	
277.1	4481.6	
277.31	3482.9	
277.52	5779.4	
277.73	5917.3	
277.94	3487.7	
278.15	3855	
278.36	5722	
278.57	5193	
278.78	3836.5	
278.99	4453.6	
279.2	5150.6	
279.41	5082.4	
279.62	5034.6	
279.83	3560.7	
280.04	6762.4	
280.25	5016.8	
280.46	5076.2	
280.67	4017.4	
280.88	5129.5	
281.09	6217.6	
281.3	4244.1	
281.51	5347.2	
281.72	5213.4	
281.93	6148	
282.14	3764.2	
282.35	4032.5	
282.56	6006.7	
282.77	6001.2	
282.98	3837.2	
283.19	4696.7	
283.4	7391.1	
283.61	5386.2	
283.82	3533.4	
284.03	5003.9	
284.24	5616.2	
284.45	6131.6	
284.66	4933.6	
284.87	4840	
285.08	6158.2	
285.29	6290	
285.5	3431	
285.71	4038.6	
285.92	6155.5	
286.12	6876.4	
286.33	4894.6	
286.54	3923.9	
286.75	6054.5	
286.96	5386.2	
287.17	3605.8	
287.38	4830.5	
287.59	5139	
287.8	5032.5	
288.01	3921.2	
288.22	4515.8	
288.43	6080.4	
288.64	4997.7	
288.85	4625.7	
289.06	4468	
289.27	5975.3	
289.48	6498.9	
289.69	5018.2	
289.9	4497.3	
290.11	6180.8	
290.32	5225.7	
290.53	4753.3	
290.74	4356.7	
290.94	5945.9	
291.15	6021	
291.36	3734.8	
291.57	4476.9	
291.78	5252.4	
291.99	4956.8	
292.2	3577.8	
292.41	4406.5	
292.62	6068.1	
292.83	5911.8	
293.04	5342.5	
293.25	3635.8	
293.46	5260.5	
293.67	6114.6	
293.88	3763.5	
294.09	3538.2	
294.29	5033.9	
294.5	5692	
294.71	3990.8	
294.92	3801	
295.13	5281.7	
295.34	6651.8	
295.55	3368.2	
295.76	3451.5	
295.97	5969.8	
296.18	6756.9	
296.39	3560.1	
296.6	3786.7	
296.81	5649.7	
297.01	6008.7	
297.22	3899.3	
297.43	3710.2	
297.64	5113.8	
297.85	5141.1	
298.06	3103.4	
298.27	3412.6	
298.48	5557.5	
298.69	5248.9	
298.9	4084.3	
299.11	3665.9	
299.31	4971.8	
299.52	5096.7	
299.73	4383.3	
299.94	4241.3	
300.15	5507	
300.36	5162.2	
300.57	4275.5	
300.78	4220.2	
300.99	5368.4	
301.2	5593	
301.4	3702	
301.61	4119.8	
301.82	5890.6	
302.03	5955.5	
302.24	4588.1	
302.45	3536.8	
302.66	5793	
302.87	6293.4	
303.08	3766.2	
303.29	5083.7	
303.49	5266.7	
303.7	5586.9	
303.91	3316.3	
304.12	4926	
304.33	4967.7	
304.54	5586.2	
304.75	3776.5	
304.96	3602.4	
305.16	5838.8	
305.37	6634.7	
305.58	3239.2	
305.79	3396.2	
306	5859.2	
306.21	4911.7	
306.42	3697.3	
306.63	5751.4	
306.83	5390.9	
307.04	6148.7	
307.25	4116.4	
307.46	4146.5	
307.67	4704.2	
307.88	5999.9	
308.09	3683.6	
308.29	3822.9	
308.5	5568.4	
308.71	6146	
308.92	3976.5	
309.13	3622.2	
309.34	5337	
309.55	5452.4	
309.75	4716.5	
309.96	4300.7	
310.17	5985.5	
310.38	5251.7	
310.59	4528.7	
310.8	3559.4	
311.01	6611.5	
311.21	5343.2	
311.42	3575.1	
311.63	3691.1	
311.84	5284.4	
312.05	5695.4	
312.26	4146.5	
312.46	4586.1	
312.67	5375.2	
312.88	5059.2	
313.09	3603.1	
313.3	3552.5	
313.51	6417.7	
313.71	6694.8	
313.92	3616.7	
314.13	3815.4	
314.34	5737.7	
314.55	5440.1	
314.76	4691.2	
314.96	4050.2	
315.17	5550.7	
315.38	5995.8	
315.59	3645.4	
315.8	3424.2	
316.01	6440.2	
316.21	6479.8	
316.42	3486.3	
316.63	3995.6	
316.84	5375.9	
317.05	6198.5	
317.26	4246.1	
317.46	3872.7	
317.67	5440.8	
317.88	5950.7	
318.09	4556	
318.3	3408.5	
318.5	5201.2	
318.71	5866.7	
318.92	5896.8	
319.13	4306.2	
319.34	6011.5	
319.54	6186.2	
319.75	3388.7	
319.96	3232.4	
320.17	5913.9	
320.38	6171.2	
320.58	3291.8	
320.79	4023.6	
321	6127.5	
321.21	6280.4	
321.42	4027.7	
321.62	3336.1	
321.83	5111	
322.04	5573.9	
322.25	3832.4	
322.46	3646.1	
322.66	5698.8	
322.87	5853.8	
323.08	4513	
323.29	3596.2	
323.5	6677.7	
323.7	5087.2	
323.91	4933.6	
324.12	4493.2	
324.33	5556.8	
324.53	5894.7	
324.74	4298	
324.95	4503.5	
325.16	4882.4	
325.37	5427.8	
325.57	3635.8	
325.78	3681.6	
325.99	5555.5	
326.2	5010	
326.4	5190.2	
326.61	3349.8	
326.82	5478.3	
327.03	5577.3	
327.24	5179.3	
327.44	4935.6	
327.65	5763.7	
327.86	4722.6	
328.07	4290.5	
328.27	3506.1	
328.48	6276.3	
328.69	5082.4	
328.9	5225.1	
329.1	3930.7	
329.31	5423.7	
329.52	6371.9	
329.73	3599.6	
329.93	4100.7	
330.14	5537	
330.35	5794.4	
330.56	6114.6	
330.76	4521.9	
330.97	5360.2	
331.18	5714.5	
331.39	4012.7	
331.59	3267.9	
331.8	6189.6	
332.01	6288.6	
332.22	3735.5	
332.42	4313.7	
332.63	5679	
332.84	5175.9	
333.05	4063.9	
333.25	3690.4	
333.46	5249.6	
333.67	5515.2	
333.88	3787.4	
334.08	4203.8	
334.29	7416.4	
334.5	6245.6	
334.7	3505.4	
334.91	5199.1	
335.12	5048.9	
335.33	6048.3	
335.53	4008.6	
335.74	6055.2	
335.95	5252.4	
336.16	5199.8	
336.36	3992.9	
336.57	4625	
336.78	5036	
336.98	6175.3	
337.19	4938.3	
337.4	3935.5	
337.61	6668.2	
337.81	5121.3	
338.02	3732.1	
338.23	4831.2	
338.43	6316.6	
338.64	5148.6	
338.85	3646.7	
339.05	4794.3	
339.26	6397.9	
339.47	4951.3	
339.68	3683.6	
339.88	5516.5	
340.09	5789.6	
340.3	6039.5	
340.5	4314.4	
340.71	3267.9	
340.92	5030.5	
341.13	6322.1	
341.33	3573.7	
341.54	4323.3	
341.75	5717.2	
341.95	5384.8	
342.16	4123.2	
342.37	4427.7	
342.57	5115.8	
342.78	5537	
342.99	4583.4	
343.19	3261.7	
343.4	5954.1	
343.61	5789.6	
343.81	3881.6	
344.02	3603.1	
344.23	5943.2	
344.43	6468.9	
344.64	4567	
344.85	4429.8	
345.06	5783.5	
345.26	6154.8	
345.47	4235.9	
345.68	4988.2	
345.88	4873.5	
346.09	6025.8	
346.3	4347.8	
346.5	3240.6	
346.71	5529.5	
346.92	5251.7	
347.12	3292.5	
347.33	4199.7	
347.54	6135	
347.74	6503	
347.95	4207.2	
348.16	3094.5	
348.36	5335.6	
348.57	5102.2	
348.78	4072	
348.98	4545.1	
349.19	5468.8	
349.39	4994.3	
349.6	3323.9	
349.81	3664.5	
350.01	5727.5	
350.22	5291.3	
350.43	3993.5	
350.63	4974.5	
350.84	5632.6	
351.05	5354.1	
351.25	3697.9	
351.46	3295.2	
351.67	6107	
351.87	5274.9	
352.08	3908.2	
352.29	4478.2	
352.49	6011.5	
352.7	6121.4	
352.9	3562.8	
353.11	4455	
353.32	6735.8	
353.52	5292.6	
353.73	3497.2	
353.94	4509.6	
354.14	5847	
354.35	5716.6	
354.55	3624.9	
354.76	4047.5	
354.97	5841.5	
355.17	5599.8	
355.38	3373	
355.59	4828.4	
355.79	5239.4	
356	5668.1	
356.2	4004.5	
356.41	3452.9	
356.62	4952.7	
356.82	5456.5	
357.03	4312.3	
357.24	3895.9	
357.44	5239.4	
357.65	5359.5	
357.85	5333.6	
358.06	4091.2	
358.27	4996.4	
358.47	5163.6	
358.68	3385.3	
358.88	4240	
359.09	5801.9	
359.3	6218.3	
359.5	5059.8	
359.71	4405.9	
359.91	6713.2	
360.12	6019	
360.33	4257	
360.53	4723.3	
360.74	5214.1	
360.94	5284.4	
361.15	4503.5	
361.36	3715.7	
361.56	6070.9	
361.77	5436.7	
361.97	4974.5	
362.18	3924.6	
362.38	6072.9	
362.59	5104.2	
362.8	3628.3	
363	3436.5	
363.21	4899.4	
363.41	5586.9	
363.62	4205.2	
363.83	5296.7	
364.03	5640.1	
364.24	6707.1	
364.44	5337.7	
364.65	5197.1	
364.85	5380.7	
365.06	4969.7	
365.27	3837.2	
365.47	3800.3	
365.68	6488.6	
365.88	5419.6	
366.09	4179.2	
366.29	3875.4	
366.5	5659.2	
366.71	6133	
366.91	5248.9	
367.12	4437.3	
367.32	6695.5	
367.53	5922.7	
367.73	4327.4	
367.94	5353.4	
368.14	5897.5	
368.35	6930.3	
368.56	4311	
368.76	4089.1	
368.97	6010.1	
369.17	7815	
369.38	3793.5	
369.58	4132.8	
369.79	5089.9	
369.99	6399.2	
370.2	5158.8	
370.4	4130.1	
370.61	5727.5	
370.82	6972	
371.02	4111.6	
371.23	3362.1	
371.43	4945.2	
371.64	6333.7	
371.84	4068.6	
372.05	5373.2	
372.25	7742	
372.46	6068.8	
372.66	4104.1	
372.87	4070	
373.07	6085.9	
373.28	7763.8	
373.48	5158.2	
373.69	4841.4	
373.9	5554.1	
374.1	5586.2	
374.31	5112.4	
374.51	4652.3	
374.72	6400.6	
374.92	5311.1	
375.13	5317.9	
375.33	4454.3	
375.54	5988.9	
375.74	5403.9	
375.95	4485.1	
376.15	5775.3	
376.36	5962.3	
376.56	5773.2	
376.77	4530.1	
376.97	4997.7	
377.18	7060	
377.38	6057.9	
377.59	5462.6	
377.79	3989.4	
378	5845.6	
378.2	6306.4	
378.41	4096.6	
378.61	4059.1	
378.82	6330.3	
379.02	5406	
379.23	4298	
379.43	5419.6	
379.64	6391	
379.84	6044.2	
380.05	4104.8	
380.25	4031.8	
380.46	6105	
380.66	5672.9	
380.87	5406	
381.07	5851	
381.28	6817	
381.48	6136.4	
381.69	4155.3	
381.89	4170.3	
382.1	5072.8	
382.3	6340.5	
382.51	5281.7	
382.71	6234	
382.91	6236.1	
383.12	6783.6	
383.32	4490.5	
383.53	4735.6	
383.73	5994.4	
383.94	5771.2	
384.14	4610	
384.35	3713	
384.55	5607.3	
384.76	6191.7	
384.96	4515.8	
385.17	4845.5	
385.37	6118.6	
385.58	5438.7	
385.78	4830.5	
385.98	3655.6	
386.19	5653.8	
386.39	6032	
386.6	4210.6	
386.8	4508.3	
387.01	6137.1	
387.21	6120	
387.42	4909.7	
387.62	5584.8	
387.83	5418.9	
388.03	6173.3	
388.23	4559.5	
388.44	5378	
388.64	5240.8	
388.85	5236	
389.05	4920.6	
389.26	5596.4	
389.46	7189.1	
389.67	6663.4	
389.87	4854.4	
390.07	4984.8	
390.28	5772.5	
390.48	5290.6	
390.69	4146.5	
390.89	4431.8	
391.1	5533.6	
391.3	6536.4	
391.5	5749.3	
391.71	6311.2	
391.91	6264.1	
392.12	7352.9	
392.32	5803.9	
392.53	4943.1	
392.73	5659.9	
392.93	5853.8	
393.14	4696.7	
393.34	5451	
393.55	6419	
393.75	5773.9	
393.95	4711	
394.16	4590.9	
394.36	5629.9	
394.57	6270.9	
394.77	4031.8	
394.98	4554	
395.18	5522	
395.38	5744.6	
395.59	5528.2	
395.79	4334.9	
396	5680.4	
396.2	6191	
396.4	5173.2	
396.61	5175.2	
396.81	6369.9	
397.02	5664.7	
397.22	5459.9	
397.42	5541.1	
397.63	6388.3	
397.83	5588.9	
398.04	4315.8	
398.24	4836.6	
398.44	6133	
398.65	5223	
398.85	4218.1	
399.05	4310.3	
399.26	5550.7	
399.46	7372.7	
399.67	4754	
399.87	4413.4	
400.07	5986.9	
400.28	6336.4	
400.48	4552.6	
400.69	5619.6	
400.89	6554.2	
401.09	6967.9	
401.3	4391.5	
401.5	5655.8	
401.7	7329.7	
401.91	7533.1	
402.11	4726.7	
402.32	5012.7	
402.52	6675	
402.72	6507.8	
402.93	5213.4	
403.13	4089.8	
403.33	7361.1	
403.54	6053.1	
403.74	4894	
403.94	5745.2	
404.15	6103.6	
404.35	7249.8	
404.56	4657.1	
404.76	6548.7	
404.96	6512.5	
405.17	6344.6	
405.37	5658.5	
405.57	5182.7	
405.78	6580.1	
405.98	6109.8	
406.18	4686.4	
406.39	5664	
406.59	6584.2	
406.79	6247.7	
407	4530.1	
407.2	4640.7	
407.4	6580.1	
407.61	6764.4	
407.81	4583.4	
408.01	7083.2	
408.22	5455.8	
408.42	7608.9	
408.62	5718.6	
408.83	5233.2	
409.03	6261.3	
409.23	6096.1	
409.44	5412.1	
409.64	5634	
409.84	7215	
410.05	7055.9	
410.25	5537	
410.45	5223.7	
410.66	6664.8	
410.86	9199.5	
411.06	5785.5	
411.27	5573.9	
411.47	8994	
411.67	6786.3	
411.88	5928.2	
412.08	6165.8	
412.28	7535.2	
412.49	8031.5	
412.69	5637.4	
412.89	5679.7	
413.09	7900.4	
413.3	7689.4	
413.5	5754.1	
413.7	5332.9	
413.91	6945.3	
414.11	7838.3	
414.31	5556.1	
414.52	6120.7	
414.72	7518.8	
414.92	7451.9	
415.12	5604.6	
415.33	6171.2	
415.53	7896.3	
415.73	8021.9	
415.94	6588.3	
416.14	5970.5	
416.34	6821.1	
416.55	6542.6	
416.75	7232.1	
416.95	6557.6	
417.15	7821.9	
417.36	8680	
417.56	7544	
417.76	6477.7	
417.97	8327.7	
418.17	7960.5	
418.37	6014.9	
418.57	6174.6	
418.78	7775.5	
418.98	7367.9	
419.18	7056.6	
419.38	6997.9	
419.59	7453.2	
419.79	7077.1	
419.99	5995.8	
420.2	6432	
420.4	7948.8	
420.6	8075.1	
420.8	5890.6	
421.01	5704.3	
421.21	7740	
421.41	7990.5	
421.61	6390.3	
421.82	6043.6	
422.02	7285.3	
422.22	8288.1	
422.42	6952.9	
422.63	6438.1	
422.83	7475.1	
423.03	8651.3	
423.23	6442.9	
423.44	5494	
423.64	7519.5	
423.84	7131.7	
424.04	5867.4	
424.25	5555.5	
424.45	8457.4	
424.65	8345.5	
424.85	5395.7	
425.06	6029.2	
425.26	8393.3	
425.46	6801.3	
425.66	6459.3	
425.87	6154.8	
426.07	8187.1	
426.27	8099.7	
426.47	6260	
426.67	5616.9	
426.88	8556.4	
427.08	7963.2	
427.28	6617.7	
427.48	5586.9	
427.69	6761.7	
427.89	7503.1	
428.09	6593.1	
428.29	5651	
428.5	8260.1	
428.7	7774.1	
428.9	5547.3	
429.1	6070.9	
429.3	7641	
429.51	8157.7	
429.71	5806.7	
429.91	6706.4	
430.11	7952.9	
430.31	8186.4	
430.52	6204	
430.72	6535.1	
430.92	8606.9	
431.12	8035.5	
431.32	5991	
431.53	6339.8	
431.73	6908.5	
431.93	8761.9	
432.13	5795.8	
432.33	5683.8	
432.54	7316	
432.74	7748.1	
432.94	5630.5	
433.14	6744.6	
433.34	7944.1	
433.55	7454.6	
433.75	6708.5	
433.95	8606.9	
434.15	7801.4	
434.35	7503.1	
434.56	5877	
434.76	5429.8	
434.96	7824.6	
435.16	8089.5	
435.36	5733.6	
435.56	7019.8	
435.77	7496.9	
435.97	7615.7	
436.17	7791.2	
436.37	6877.1	
436.57	7443	
436.78	7449.1	
436.98	8781	
437.18	7562.5	
437.38	8203.5	
437.58	7694.2	
437.78	7731.8	
437.99	6313.9	
438.19	8205.5	
438.39	9628.9	
438.59	6210.1	
438.79	5636	
438.99	8910.7	
439.2	7672.4	
439.4	5793	
439.6	5750.7	
439.8	8041	
440	9086.8	
440.2	6861.4	
440.4	7017	
440.61	8392.6	
440.81	9129.2	
441.01	6136.4	
441.21	7086	
441.41	9041.1	
441.61	8542.8	
441.81	7425.3	
442.02	8467.7	
442.22	9528.5	
442.42	8664.3	
442.62	6221.7	
442.82	6324.8	
443.02	9059.5	
443.22	8035.5	
443.43	6689.3	
443.63	6300.9	
443.83	7777.5	
444.03	7897	
444.23	7574.8	
444.43	7200.7	
444.63	8290.2	
444.83	9539.4	
445.04	6386.9	
445.24	7839.6	
445.44	8609.7	
445.64	8809.7	
445.84	7212.9	
446.04	7262.1	
446.24	7969.3	
446.44	9092.3	
446.65	6370.5	
446.85	6814.3	
447.05	8318.8	
447.25	9022.7	
447.45	6860	
447.65	6203.3	
447.85	8254	
448.05	7856.7	
448.25	7357.7	
448.46	7087.3	
448.66	8281.3	
448.86	8015.7	
449.06	6086.6	
449.26	7403.4	
449.46	8712.7	
449.66	7673.1	
449.86	6782.9	
450.06	6849.1	
450.26	7854	
450.47	8534.6	
450.67	7134.4	
450.87	7523.6	
451.07	8540	
451.27	8454.7	
451.47	6309.8	
451.67	7025.9	
451.87	8077.2	
452.07	9230.9	
452.27	6761	
452.47	6641.6	
452.67	8375.5	
452.88	8939.4	
453.08	5937.7	
453.28	8086.1	
453.48	9680.7	
453.68	8343.4	
453.88	6614.3	
454.08	6808.8	
454.28	8837.7	
454.48	8462.2	
454.68	7408.9	
454.88	7875.8	
455.08	8949.6	
455.28	8741.4	
455.48	6422.4	
455.68	7189.1	
455.89	9517.6	
456.09	9152.4	
456.29	6890.7	
456.49	7061.4	
456.69	9402.2	
456.89	8478.6	
457.09	7649.8	
457.29	7956.4	
457.49	8970.1	
457.69	9136	
457.89	7444.4	
458.09	6810.2	
458.29	8752.3	
458.49	9496.4	
458.69	7936.6	
458.89	7313.3	
459.09	9856.9	
459.29	10007	
459.49	7443.7	
459.69	8192.6	
459.9	9363.3	
460.1	9005.6	
460.3	7317.4	
460.5	7137.9	
460.7	9332.6	
460.9	9076.6	
461.1	6794.5	
461.3	8191.9	
461.5	10176	
461.7	9626.1	
461.9	7243	
462.1	7759.8	
462.3	9172.2	
462.5	9837.1	
462.7	7464.8	
462.9	7597.3	
463.1	10915	
463.3	10606	
463.5	7813	
463.7	8817.2	
463.9	9499.8	
464.1	9906	
464.3	8049.9	
464.5	8254.7	
464.7	10309	
464.9	9962	
465.1	9704.6	
465.3	8598.7	
465.5	10679	
465.7	10618	
465.9	9022	
466.1	8760.5	
466.3	10593	
466.5	10244	
466.7	9740.8	
466.9	8574.8	
467.1	10360	
467.3	11230	
467.5	9820	
467.7	8555.7	
467.9	11462	
468.1	12472	
468.3	9296.4	
468.5	9893.1	
468.7	10337	
468.9	10290	
469.1	8903.2	
469.3	9715.6	
469.5	12478	
469.7	9879.4	
469.9	9372.9	
470.1	8756.4	
470.3	10331	
470.5	10430	
470.7	10068	
470.9	8729.1	
471.1	10228	
471.3	10572	
471.5	8585.1	
471.69	10630	
471.89	9940.8	
472.09	9555.1	
472.29	9468.4	
472.49	9754.5	
472.69	9858.9	
472.89	10639	
473.09	8512.7	
473.29	8585.8	
473.49	9874.6	
473.69	10116	
473.89	9595.4	
474.09	8755.7	
474.29	11332	
474.49	11129	
474.69	9622	
474.89	8888.2	
475.09	10172	
475.29	10175	
475.49	8262.2	
475.69	8595.3	
475.88	11769	
476.08	10303	
476.28	8267.6	
476.48	8703.9	
476.68	10775	
476.88	10685	
477.08	8508.6	
477.28	8893	
477.48	10112	
477.68	10885	
477.88	8350.3	
478.08	8711.4	
478.28	11184	
478.48	10333	
478.67	8807.6	
478.87	8177.5	
479.07	11129	
479.27	10436	
479.47	8992.6	
479.67	8990.6	
479.87	10901	
480.07	11458	
480.27	8265.6	
480.47	10025	
480.67	10625	
480.87	11141	
481.06	8577.6	
481.26	9452.7	
481.46	10388	
481.66	10257	
481.86	9099.8	
482.06	10112	
482.26	10175	
482.46	11039	
482.66	8931.9	
482.86	8588.5	
483.05	10550	
483.25	9945.6	
483.45	11674	
483.65	9054.1	
483.85	10159	
484.05	10592	
484.25	9564	
484.45	10117	
484.65	11331	
484.84	11602	
485.04	8989.2	
485.24	9081.4	
485.44	11751	
485.64	10041	
485.84	8329.8	
486.04	9899.2	
486.24	10452	
486.44	10706	
486.63	8307.9	
486.83	9234.3	
487.03	10445	
487.23	10667	
487.43	8516.8	
487.63	10948	
487.83	10672	
488.02	11802	
488.22	9691.7	
488.42	10269	
488.62	11573	
488.82	10585	
489.02	9253.4	
489.22	9342.8	
489.41	11502	
489.61	11110	
489.81	9015.8	
490.01	9040.4	
490.21	11562	
490.41	12155	
490.61	9037.7	
490.8	9123	
491	10955	
491.2	10191	
491.4	9871.9	
491.6	8828.1	
491.8	10856	
491.99	11026	
492.19	8573.5	
492.39	9106	
492.59	11490	
492.79	11505	
492.99	10034	
493.18	9159.2	
493.38	11613	
493.58	12683	
493.78	9947.7	
493.98	9522.4	
494.18	11505	
494.37	11004	
494.57	10349	
494.77	10141	
494.97	11886	
495.17	12303	
495.37	9767.4	
495.56	10172	
495.76	12404	
495.96	12129	
496.16	11266	
496.36	10132	
496.55	12312	
496.75	11917	
496.95	10499	
497.15	10367	
497.35	12329	
497.54	12353	
497.74	10271	
497.94	12051	
498.14	13092	
498.34	12870	
498.53	9910.1	
498.73	10831	
498.93	11740	
499.13	12437	
499.33	10647	
499.52	11226	
499.72	12466	
499.92	12684	
500.12	10396	
500.32	10603	
500.51	12725	
500.71	12614	
500.91	11630	
501.11	11132	
501.31	12750	
501.5	13131	
501.7	11795	
501.9	10710	
502.1	12503	
502.29	12928	
502.49	11304	
502.69	11736	
502.89	12666	
503.09	12725	
503.28	10066	
503.48	10191	
503.68	11751	
503.88	11950	
504.07	11185	
504.27	10780	
504.47	12277	
504.67	12397	
504.86	11146	
505.06	10865	
505.26	11999	
505.46	13785	
505.65	10699	
505.85	10981	
506.05	11703	
506.25	12167	
506.44	9935.4	
506.64	10874	
506.84	11691	
507.04	12736	
507.23	10215	
507.43	10737	
507.63	13805	
507.83	11856	
508.02	10656	
508.22	10497	
508.42	13940	
508.62	11727	
508.81	10591	
509.01	11255	
509.21	11447	
509.4	11798	
509.6	10800	
509.8	10230	
510	11716	
510.19	13334	
510.39	10192	
510.59	10282	
510.79	11628	
510.98	13211	
511.18	10355	
511.38	10516	
511.57	12532	
511.77	12447	
511.97	11153	
512.17	10053	
512.36	12486	
512.56	12392	
512.76	10203	
512.95	9914.2	
513.15	12591	
513.35	11216	
513.55	11056	
513.74	10125	
513.94	12542	
514.14	11927	
514.33	11129	
514.53	10978	
514.73	11835	
514.92	12128	
515.12	10421	
515.32	10251	
515.51	12251	
515.71	12850	
515.91	12055	
516.11	10331	
516.3	14184	
516.5	11757	
516.7	10914	
516.89	11561	
517.09	12024	
517.29	11787	
517.48	11314	
517.68	10673	
517.88	11669	
518.07	12347	
518.27	11155	
518.47	10208	
518.66	12943	
518.86	11521	
519.06	9979.1	
519.25	10444	
519.45	11924	
519.65	13482	
519.84	11224	
520.04	11999	
520.24	13917	
520.43	12554	
520.63	10833	
520.83	10537	
521.02	11721	
521.22	12426	
521.42	11082	
521.61	11760	
521.81	11931	
522.01	12054	
522.2	10915	
522.4	10686	
522.6	12740	
522.79	11516	
522.99	10864	
523.18	10231	
523.38	12523	
523.58	12648	
523.77	12450	
523.97	10264	
524.17	14577	
524.36	13695	
524.56	11813	
524.76	11590	
524.95	12758	
525.15	12400	
525.34	11313	
525.54	11423	
525.74	13304	
525.93	12245	
526.13	12826	
526.33	11559	
526.52	13710	
526.72	13211	
526.91	12852	
527.11	12112	
527.31	13886	
527.5	14359	
527.7	11962	
527.89	10929	
528.09	12721	
528.29	13414	
528.48	12443	
528.68	12042	
528.87	13734	
529.07	13751	
529.27	11968	
529.46	11548	
529.66	13537	
529.85	13949	
530.05	11477	
530.25	12205	
530.44	14983	
530.64	13343	
530.83	11832	
531.03	12076	
531.23	13947	
531.42	13793	
531.62	12995	
531.81	12142	
532.01	14115	
532.21	14672	
532.4	11889	
532.6	12371	
532.79	15000	
532.99	14429	
533.18	12542	
533.38	13564	
533.58	14039	
533.77	14690	
533.97	12564	
534.16	13537	
534.36	15049	
534.55	14100	
534.75	13608	
534.95	12772	
535.14	14967	
535.34	14121	
535.53	12308	
535.73	14476	
535.92	15675	
536.12	14179	
536.31	12533	
536.51	13672	
536.71	14499	
536.9	14078	
537.1	12610	
537.29	12837	
537.49	14825	
537.68	13973	
537.88	13151	
538.07	12355	
538.27	14231	
538.46	15436	
538.66	12254	
538.86	12825	
539.05	14425	
539.25	14745	
539.44	13156	
539.64	12703	
539.83	14158	
540.03	15342	
540.22	12537	
540.42	12533	
540.61	14431	
540.81	14549	
541	13047	
541.2	13818	
541.39	13814	
541.59	14356	
541.78	13420	
541.98	12379	
542.18	13645	
542.37	13547	
542.57	12794	
542.76	13394	
542.96	13543	
543.15	14315	
543.35	12641	
543.54	12069	
543.74	14414	
543.93	14026	
544.13	12570	
544.32	13768	
544.52	14377	
544.71	13413	
544.91	11637	
545.1	12976	
545.3	13532	
545.49	14298	
545.69	11588	
545.88	12207	
546.08	15436	
546.27	14780	
546.47	12744	
546.66	11998	
546.86	14485	
547.05	15148	
547.24	12264	
547.44	12121	
547.63	13334	
547.83	14572	
548.02	12502	
548.22	12532	
548.41	13108	
548.61	14498	
548.8	11948	
549	11949	
549.19	13819	
549.39	14182	
549.58	11626	
549.78	12362	
549.97	14159	
550.17	13498	
550.36	13090	
550.55	14177	
550.75	13570	
550.94	14435	
551.14	11733	
551.33	12160	
551.53	12878	
551.72	13915	
551.92	12154	
552.11	12013	
552.31	13923	
552.5	13913	
552.69	13674	
552.89	11499	
553.08	13913	
553.28	13396	
553.47	12027	
553.67	13147	
553.86	14499	
554.06	12712	
554.25	10996	
554.44	11756	
554.64	15145	
554.83	14902	
555.03	11568	
555.22	12142	
555.42	13965	
555.61	13731	
555.8	11787	
556	12090	
556.19	12754	
556.39	14252	
556.58	11917	
556.78	11791	
556.97	13562	
557.16	13381	
557.36	13114	
557.55	11455	
557.75	12576	
557.94	14448	
558.13	11558	
558.33	11274	
558.52	14206	
558.72	13017	
558.91	11340	
559.1	11676	
559.3	12550	
559.49	12243	
559.69	10955	
559.88	12060	
560.07	13509	
560.27	14002	
560.46	12196	
560.66	12332	
560.85	13289	
561.04	12329	
561.24	11310	
561.43	11499	
561.63	12713	
561.82	12889	
562.01	12827	
562.21	11931	
562.4	13347	
562.59	14512	
562.79	11697	
562.98	11370	
563.18	13404	
563.37	14997	
563.56	12316	
563.76	11233	
563.95	12773	
564.14	12834	
564.34	11731	
564.53	11571	
564.73	13411	
564.92	13939	
565.11	12077	
565.31	11361	
565.5	14061	
565.69	13026	
565.89	11624	
566.08	11937	
566.27	13994	
566.47	14580	
566.66	12613	
566.85	11269	
567.05	13689	
567.24	12917	
567.44	11451	
567.63	13031	
567.82	13757	
568.02	13583	
568.21	11561	
568.4	12076	
568.6	13492	
568.79	13489	
568.98	11471	
569.18	11820	
569.37	13555	
569.56	15656	
569.76	12142	
569.95	13198	
570.14	13885	
570.34	13854	
570.53	11525	
570.72	11513	
570.91	14455	
571.11	13529	
571.3	12037	
571.49	12995	
571.69	13567	
571.88	13186	
572.07	12730	
572.27	12591	
572.46	13046	
572.65	14190	
572.85	11890	
573.04	12309	
573.23	14493	
573.43	13683	
573.62	11712	
573.81	12329	
574	13805	
574.2	13592	
574.39	12151	
574.58	12399	
574.78	14787	
574.97	14013	
575.16	12833	
575.36	13009	
575.55	14470	
575.74	14644	
575.93	11826	
576.13	13093	
576.32	13878	
576.51	14508	
576.71	12299	
576.9	13905	
577.09	14838	
577.28	14311	
577.48	12824	
577.67	11804	
577.86	13967	
578.05	14284	
578.25	12415	
578.44	12767	
578.63	13991	
578.83	15449	
579.02	11925	
579.21	13568	
579.4	14305	
579.6	14123	
579.79	12840	
579.98	15009	
580.17	14797	
580.37	14898	
580.56	12169	
580.75	13063	
580.94	15307	
581.14	15193	
581.33	13496	
581.52	12381	
581.71	14758	
581.91	15353	
582.1	12046	
582.29	12747	
582.48	14229	
582.68	14184	
582.87	13264	
583.06	12899	
583.25	14539	
583.45	14444	
583.64	13612	
583.83	14332	
584.02	13958	
584.21	14709	
584.41	13530	
584.6	12745	
584.79	14345	
584.98	15157	
585.18	12160	
585.37	12210	
585.56	13689	
585.75	14597	
585.94	12415	
586.14	13170	
586.33	15273	
586.52	14135	
586.71	12877	
586.91	12670	
587.1	13457	
587.29	14527	
587.48	12505	
587.67	12398	
587.87	14382	
588.06	14433	
588.25	13751	
588.44	12991	
588.63	13993	
588.83	14595	
589.02	12315	
589.21	12048	
589.4	13631	
589.59	13384	
589.78	11103	
589.98	11348	
590.17	12662	
590.36	13472	
590.55	10444	
590.74	11341	
590.94	14586	
591.13	13080	
591.32	10980	
591.51	10592	
591.7	13565	
591.89	13048	
592.09	10895	
592.28	11296	
592.47	12327	
592.66	14341	
592.85	10897	
593.05	11092	
593.24	12895	
593.43	13725	
593.62	11156	
593.81	11772	
594	12899	
594.19	13236	
594.39	11067	
594.58	11031	
594.77	13203	
594.96	13847	
595.15	10918	
595.34	11664	
595.54	13320	
595.73	12347	
595.92	10218	
596.11	11454	
596.3	13745	
596.49	12341	
596.68	11203	
596.88	11683	
597.07	13452	
597.26	12170	
597.45	10636	
597.64	12037	
597.83	12385	
598.02	13103	
598.22	10787	
598.41	11544	
598.6	12890	
598.79	12246	
598.98	10816	
599.17	11755	
599.36	12919	
599.55	14052	
599.74	13032	
599.94	12739	
600.13	13390	
600.32	12180	
600.51	10512	
600.7	10561	
600.89	14136	
601.08	14189	
601.27	10318	
601.47	11402	
601.66	13284	
601.85	14031	
602.04	11124	
602.23	11239	
602.42	12228	
602.61	12947	
602.8	11012	
602.99	10804	
603.18	12622	
603.37	12890	
603.57	11344	
603.76	12078	
603.95	13685	
604.14	13267	
604.33	10882	
604.52	11226	
604.71	12871	
604.9	12618	
605.09	11751	
605.28	11635	
605.47	13426	
605.66	13105	
605.86	11533	
606.05	10936	
606.24	13409	
606.43	11914	
606.62	11277	
606.81	11890	
607	13291	
607.19	12623	
607.38	10501	
607.57	10729	
607.76	12215	
607.95	11716	
608.14	11185	
608.33	11811	
608.52	12216	
608.72	13275	
608.91	10403	
609.1	10277	
609.29	12413	
609.48	11858	
609.67	11257	
609.86	10247	
610.05	11896	
610.24	12353	
610.43	10230	
610.62	9813.9	
610.81	13442	
611	13204	
611.19	10312	
611.38	11071	
611.57	12635	
611.76	14071	
611.95	10044	
612.14	9874.6	
612.33	12310	
612.52	11757	
612.71	10710	
612.9	9751.7	
613.09	11502	
613.28	14011	
613.47	10275	
613.66	11410	
613.85	12525	
614.04	11869	
614.24	10363	
614.43	9630.9	
614.62	12658	
614.81	12541	
615	10955	
615.19	11125	
615.38	11818	
615.57	12278	
615.76	10895	
615.95	12052	
616.14	12654	
616.33	12260	
616.52	11097	
616.71	11564	
616.9	12611	
617.09	12456	
617.28	10608	
617.47	12089	
617.66	11710	
617.85	11750	
618.04	11594	
618.22	11023	
618.41	12253	
618.6	13297	
618.79	10858	
618.98	10671	
619.17	13350	
619.36	11684	
619.55	10864	
619.74	10953	
619.93	12816	
620.12	12237	
620.31	11576	
620.5	11768	
620.69	13390	
620.88	13857	
621.07	12549	
621.26	11562	
621.45	13201	
621.64	13140	
621.83	11684	
622.02	10776	
622.21	13196	
622.4	12991	
622.59	12179	
622.78	11885	
622.97	12488	
623.16	13588	
623.35	11619	
623.54	10728	
623.72	12882	
623.91	12804	
624.1	12082	
624.29	10588	
624.48	14089	
624.67	13234	
624.86	11828	
625.05	10824	
625.24	14146	
625.43	12384	
625.62	13753	
625.81	11073	
626	13630	
626.19	12813	
626.38	11993	
626.56	11222	
626.75	12590	
626.94	13500	
627.13	11945	
627.32	10630	
627.51	13352	
627.7	14798	
627.89	10724	
628.08	11856	
628.27	12414	
628.46	12583	
628.65	10987	
628.83	10535	
629.02	13283	
629.21	12518	
629.4	11447	
629.59	11679	
629.78	12409	
629.97	13411	
630.16	11738	
630.35	11219	
630.54	13986	
630.72	13584	
630.91	11106	
631.1	11753	
631.29	13148	
631.48	13219	
631.67	11783	
631.86	11165	
632.05	12805	
632.24	12755	
632.42	10824	
632.61	11527	
632.8	12813	
632.99	12378	
633.18	11542	
633.37	11893	
633.56	12923	
633.75	12842	
633.93	11455	
634.12	11180	
634.31	13835	
634.5	13605	
634.69	11285	
634.88	11761	
635.07	12770	
635.25	13459	
635.44	12155	
635.63	12471	
635.82	12663	
636.01	12066	
636.2	11945	
636.39	11513	
636.57	13672	
636.76	13408	
636.95	11058	
637.14	12413	
637.33	13028	
637.52	14054	
637.7	10753	
637.89	11631	
638.08	12626	
638.27	14169	
638.46	11802	
638.65	12148	
638.83	13981	
639.02	12256	
639.21	11514	
639.4	12235	
639.59	12713	
639.78	12349	
639.96	10778	
640.15	10845	
640.34	12723	
640.53	12756	
640.72	10465	
640.91	10775	
641.09	11874	
641.28	13352	
641.47	10727	
641.66	11674	
641.85	12675	
642.03	12799	
642.22	11427	
642.41	10815	
642.6	12019	
642.79	11387	
642.97	10636	
643.16	11344	
643.35	11918	
643.54	11690	
643.73	10382	
643.91	11279	
644.1	11527	
644.29	12321	
644.48	10428	
644.67	10432	
644.85	11710	
645.04	11944	
645.23	9931.3	
645.42	10221	
645.6	11379	
645.79	12611	
645.98	10213	
646.17	9084.8	
646.36	10997	
646.54	11557	
646.73	10746	
646.92	9565.4	
647.11	11195	
647.29	12327	
647.48	9676	
647.67	9198.1	
647.86	12514	
648.05	12629	
648.23	9846.6	
648.42	11330	
648.61	11802	
648.8	11558	
648.98	9493.7	
649.17	9781.8	
649.36	11099	
649.55	10615	
649.73	9607	
649.92	10428	
650.11	10958	
650.3	11323	
650.48	9574.3	
650.67	9336.7	
650.86	11626	
651.05	10442	
651.23	9572.2	
651.42	9531.9	
651.61	10978	
651.79	11066	
651.98	9790.7	
652.17	9354.4	
652.36	11303	
652.54	10440	
652.73	9384.5	
652.92	9197.4	
653.11	11391	
653.29	11471	
653.48	8607.6	
653.67	9628.2	
653.85	11085	
654.04	12159	
654.23	9764.7	
654.42	9208.4	
654.6	10338	
654.79	11121	
654.98	8561.2	
655.16	9114.8	
655.35	9727.9	
655.54	9755.2	
655.73	8477.9	
655.91	8362.5	
656.1	11065	
656.29	9770.9	
656.47	8014.4	
656.66	10013	
656.85	10174	
657.03	10224	
657.22	8722.3	
657.41	8856.1	
657.59	10361	
657.78	10167	
657.97	8426.7	
658.16	9232.2	
658.34	11054	
658.53	11585	
658.72	10251	
658.9	10763	
659.09	10426	
659.28	10555	
659.46	8984.4	
659.65	8973.5	
659.84	10317	
660.02	10749	
660.21	8751	
660.4	8848.6	
660.58	11327	
660.77	10626	
660.96	9486.9	
661.14	8399.4	
661.33	11733	
661.52	11568	
661.7	8348.9	
661.89	12312	
662.08	10185	
662.26	9630.9	
662.45	8560.5	
662.64	8727.8	
662.82	10811	
663.01	10023	
663.2	8732.5	
663.38	9573.6	
663.57	10731	
663.75	10603	
663.94	8999.5	
664.13	10374	
664.31	10097	
664.5	10787	
664.69	9231.6	
664.87	9983.8	
665.06	9781.1	
665.25	10533	
665.43	10161	
665.62	10178	
665.8	10944	
665.99	10231	
666.18	9007	
666.36	9125.7	
666.55	10817	
666.74	10759	
666.92	8624.7	
667.11	10279	
667.29	10139	
667.48	10759	
667.67	9992	
667.85	8823.3	
668.04	10310	
668.22	10184	
668.41	9149	
668.6	9205.6	
668.78	10041	
668.97	10165	
669.15	9377	
669.34	8283.4	
669.53	9941.5	
669.71	10387	
669.9	8544.1	
670.08	9230.9	
670.27	9923.1	
670.46	10492	
670.64	9398.1	
670.83	9633.6	
671.01	9850.7	
671.2	10458	
671.38	8602.8	
671.57	8449.2	
671.76	11161	
671.94	11799	
672.13	8430.8	
672.31	9568.1	
672.5	10636	
672.69	10046	
672.87	8561.2	
673.06	8925.7	
673.24	10388	
673.43	10027	
673.61	9321	
673.8	8804.9	
673.98	10834	
674.17	11046	
674.36	9414.5	
674.54	9334.6	
674.73	10501	
674.91	10587	
675.1	9098.4	
675.28	8613.8	
675.47	10276	
675.65	10793	
675.84	8847.2	
676.03	9197.4	
676.21	9966.8	
676.4	9481.4	
676.58	9737.4	
676.77	9424.8	
676.95	11450	
677.14	9892.4	
677.32	8567.3	
677.51	8286.1	
677.69	10717	
677.88	9581.8	
678.06	8400.1	
678.25	8507.3	
678.44	10256	
678.62	9922.4	
678.81	8136.6	
678.99	9204.3	
679.18	10971	
679.36	10649	
679.55	8755.7	
679.73	9538.8	
679.92	10513	
680.1	9957.9	
680.29	10221	
680.47	8800.8	
680.66	9863	
680.84	10796	
681.03	8090.8	
681.21	9124.4	
681.4	10023	
681.58	9817.3	
681.77	8624.7	
681.95	8478.6	
682.14	10737	
682.32	11129	
682.51	9514.2	
682.69	8130.4	
682.88	9766.1	
683.06	10474	
683.25	9143.5	
683.43	9604.3	
683.62	10155	
683.8	10468	
683.99	9676	
684.17	8927.1	
684.36	11359	
684.54	9827.5	
684.73	7886.7	
684.91	8107.9	
685.1	10007	
685.28	9379	
685.46	8566.7	
685.65	8680.7	
685.83	10169	
686.02	9527.2	
686.2	8135.9	
686.39	8189.1	
686.57	9241.1	
686.76	10950	
686.94	8036.2	
687.13	8280.6	
687.31	10139	
687.5	9646.6	
687.68	7703.8	
687.86	9142.1	
688.05	11308	
688.23	9106.6	
688.42	9096.4	
688.6	8305.9	
688.79	9671.2	
688.97	9579.7	
689.16	8702.5	
689.34	7609.6	
689.52	10512	
689.71	10663	
689.89	9049.3	
690.08	8320.2	
690.26	9919	
690.45	9866.4	
690.63	9192.6	
690.81	8456.7	
691	9564.7	
691.18	9624.8	
691.37	8627.4	
691.55	10986	
691.74	9566.1	
691.92	11624	
692.1	8581	
692.29	8052.6	
692.47	9788.6	
692.66	8966.7	
692.84	8127	
693.02	8836.3	
693.21	9103.9	
693.39	9713.5	
693.58	8937.3	
693.76	8441.7	
693.94	11036	
694.13	10836	
694.31	8428.8	
694.5	9607	
694.68	9628.9	
694.86	10063	
695.05	8891.6	
695.23	9232.9	
695.42	10488	
695.6	13020	
695.78	9583.1	
695.97	8488.1	
696.15	10473	
696.34	9839.1	
696.52	8296.3	
696.7	9166	
696.89	10241	
697.07	9553.1	
697.25	9057.5	
697.44	10569	
697.62	10099	
697.81	10464	
697.99	8655.4	
698.17	9204.9	
698.36	9306.7	
698.54	10119	
698.72	8969.4	
698.91	7952.9	
699.09	9712.2	
699.28	9595.4	
699.46	8622.6	
699.64	8497.7	
699.83	9331.2	
700.01	10711	
700.19	9342.2	
700.38	7668.3	
700.56	10879	
700.74	9637.7	
700.93	8143.4	
701.11	8995.4	
701.29	10189	
701.48	11477	
701.66	8424	
701.84	8449.2	
702.03	9785.2	
702.21	10518	
702.39	8055.3	
702.58	8714.8	
702.76	10198	
702.94	10328	
703.13	8004.1	
703.31	10658	
703.49	9546.9	
703.68	10921	
703.86	8249.9	
704.04	9328.5	
704.23	10081	
704.41	10471	
704.59	8342.7	
704.78	9710.1	
704.96	11191	
705.14	10563	
705.33	8144.8	
705.51	8963.3	
705.69	9873.9	
705.87	10712	
706.06	9204.9	
706.24	8082	
706.42	10213	
706.61	10538	
706.79	9359.2	
706.97	8058.8	
707.16	9607	
707.34	10206	
707.52	9170.8	
707.7	8361.2	
707.89	9895.8	
708.07	9409.1	
708.25	9344.2	
708.44	9454.1	
708.62	9621.4	
708.8	10799	
708.98	9557.9	
709.17	8383	
709.35	10130	
709.53	10095	
709.72	8095.6	
709.9	8630.8	
710.08	10287	
710.26	10357	
710.45	9775.6	
710.63	8399.4	
710.81	9873.3	
710.99	10021	
711.18	9040.4	
711.36	8584.4	
711.54	9760.6	
711.72	10492	
711.91	8421.9	
712.09	7828	
712.27	9719.7	
712.45	10441	
712.64	8742.8	
712.82	7545.4	
713	9089.6	
713.18	9179	
713.37	7575.4	
713.55	8953	
713.73	10138	
713.91	8398	
714.1	7830.7	
714.28	7166.5	
714.46	9441.1	
714.64	8420.6	
714.83	6415.6	
715.01	7292.8	
715.19	8409	
715.37	7757	
715.55	6750.8	
715.74	7190.4	
715.92	9392	
716.1	7149.5	
716.28	8297.7	
716.47	7290.8	
716.65	7817.8	
716.83	7944.8	
717.01	7008.1	
717.19	7140.6	
717.38	10252	
717.56	7618.4	
717.74	7406.8	
717.92	6468.2	
718.1	9010.4	
718.29	8232.2	
718.47	6164.4	
718.65	6965.1	
718.83	9045.2	
719.01	9027.4	
719.2	6268.1	
719.38	7416.4	
719.56	8739.4	
719.74	10420	
719.92	6917.4	
720.11	7989.8	
720.29	8692.3	
720.47	7718.1	
720.65	6331	
720.83	7191.1	
721.02	8062.2	
721.2	7688.8	
721.38	7135.8	
721.56	6374.6	
721.74	7082.6	
721.92	7340.6	
722.11	7692.2	
722.29	7365.2	
722.47	8769.4	
722.65	7815.7	
722.83	6354.2	
723.01	7365.2	
723.2	7917.4	
723.38	8107.9	
723.56	5791	
723.74	7021.8	
723.92	7382.9	
724.1	8588.5	
724.29	6303	
724.47	7534.5	
724.65	7386.3	
724.83	7281.9	
725.01	6143.2	
725.19	7100.3	
725.37	7415.7	
725.56	7480.5	
725.74	5972.6	
725.92	6195.1	
726.1	7421.8	
726.28	7679.9	
726.46	6673.6	
726.64	6382.2	
726.83	7610.3	
727.01	7950.9	
727.19	5913.2	
727.37	6890.7	
727.55	7750.2	
727.73	8264.9	
727.91	5870.2	
728.09	5721.3	
728.28	8305.9	
728.46	8952.4	
728.64	7015	
728.82	6933.7	
729	9557.9	
729.18	8718.2	
729.36	6183.5	
729.54	8668.4	
729.72	9816.6	
729.91	8049.2	
730.09	8267	
730.27	7046.4	
730.45	7942.7	
730.63	8638.3	
730.81	7632.1	
730.99	6569.9	
731.17	9226.1	
731.35	7701.7	
731.53	7193.8	
731.71	6697.5	
731.9	8960.5	
732.08	9103.9	
732.26	6953.5	
732.44	6543.3	
732.62	9150.3	
732.8	8535.3	
732.98	7376.8	
733.16	6358.3	
733.34	8591.2	
733.52	7273	
733.7	6878.4	
733.88	7270.3	
734.07	8338.6	
734.25	8090.2	
734.43	6331.6	
734.61	8025.3	
734.79	9781.1	
734.97	7945.4	
735.15	6520.7	
735.33	6877.8	
735.51	8275.8	
735.69	7945.4	
735.87	8035.5	
736.05	7083.2	
736.23	8194.6	
736.41	7942.7	
736.59	6913.9	
736.77	6990.4	
736.95	8649.3	
737.13	8165.9	
737.32	6505.7	
737.5	6730.3	
737.68	9215.2	
737.86	7954.3	
738.04	6214.9	
738.22	8271.7	
738.4	7676.5	
738.58	7974.8	
738.76	6905.8	
738.94	5793.7	
739.12	7813.7	
739.3	7741.3	
739.48	7603.4	
739.66	7306.5	
739.84	8132.5	
740.02	8150.2	
740.2	5908.4	
740.38	6299.6	
740.56	8497.7	
740.74	7352.2	
740.92	7003.4	
741.1	6924.2	
741.28	7863.5	
741.46	7704.5	
741.64	6391.7	
741.82	7026.6	
742	7842.4	
742.18	7885.4	
742.36	6705.7	
742.54	6193.7	
742.72	8383.7	
742.9	7025.2	
743.08	7077.1	
743.26	5798.5	
743.44	8664.3	
743.62	8460.2	
743.8	7163.8	
743.98	6212.9	
744.16	8155.7	
744.34	7770.7	
744.52	7116	
744.7	7050.5	
744.88	8204.8	
745.06	7716.1	
745.24	7009.5	
745.42	7189.7	
745.6	8187.8	
745.78	7973.4	
745.96	5765.7	
746.14	6117.3	
746.32	9025.4	
746.5	8208.3	
746.68	6732.4	
746.86	6111.1	
747.03	8768	
747.21	6824.5	
747.39	6638.1	
747.57	6123.4	
747.75	7775.5	
747.93	8286.1	
748.11	6118.6	
748.29	6040.8	
748.47	9482.8	
748.65	7541.3	
748.83	6865.5	
749.01	6509.8	
749.19	8014.4	
749.37	7077.8	
749.55	6391.7	
749.73	6500.3	
749.91	7619.1	
750.09	7338.6	
750.26	6485.9	
750.44	5913.2	
750.62	7613	
750.8	7617.8	
750.98	5720.7	
751.16	6120.7	
751.34	7616.4	
751.52	7014.3	
751.7	6902.3	
751.88	5782.1	
752.06	8120.9	
752.24	8004.8	
752.42	5620.3	
752.59	5940.5	
752.77	7570.7	
752.95	8931.2	
753.13	6832.7	
753.31	6104.3	
753.49	7210.9	
753.67	7660.1	
753.85	6390.3	
754.03	6005.3	
754.21	7889.5	
754.38	8258.1	
754.56	6063.4	
754.74	5079	
754.92	6990.4	
755.1	7788.4	
755.28	4989.5	
755.46	4864.6	
755.64	8333.9	
755.82	8308.6	
755.99	4904.9	
756.17	5022.3	
756.35	5418.2	
756.53	7104.4	
756.71	3745.7	
756.89	4772.4	
757.07	6678.4	
757.25	5750	
757.42	5350.7	
757.6	6418.3	
757.78	6943.3	
757.96	5877	
758.14	5147.2	
758.32	4655.7	
758.5	5410.7	
758.67	6251.8	
758.85	4922	
759.03	5113.8	
759.21	6397.2	
759.39	5824.4	
759.57	4485.1	
759.75	5795.1	
759.92	7150.1	
760.1	6345.3	
760.28	6197.2	
760.46	6451.8	
760.64	6174.6	
760.82	5905	
760.99	6066.1	
761.17	5182	
761.35	7101.7	
761.53	6032.6	
761.71	5345.2	
761.89	6110.5	
762.06	7062.1	
762.24	6498.2	
762.42	5472.9	
762.6	5254.4	
762.78	6579.4	
762.96	7307.2	
763.13	5947.3	
763.31	5596.4	
763.49	7494.2	
763.67	6488	
763.85	6584.2	
764.02	7141.9	
764.2	7705.8	
764.38	6850.5	
764.56	5400.5	
764.74	6386.2	
764.91	7795.9	
765.09	6637.5	
765.27	5040.7	
765.45	4854.4	
765.63	7909.9	
765.8	7675.1	
765.98	4575.8	
766.16	4857.8	
766.34	6171.2	
766.52	5857.2	
766.69	5968.5	
766.87	4732.2	
767.05	6573.3	
767.23	7494.9	
767.41	5085.8	
767.58	5316.5	
767.76	7140.6	
767.94	7187.7	
768.12	5116.5	
768.29	6000.5	
768.47	6567.2	
768.65	7387	
768.83	4730.8	
769	5916.6	
769.18	6066.1	
769.36	6827.9	
769.54	5895.4	
769.72	4655	
769.89	7117.4	
770.07	7231.4	
770.25	5032.5	
770.43	6355.5	
770.6	7940.7	
770.78	8431.5	
770.96	5238	
771.14	5917.3	
771.31	6896.9	
771.49	6315.3	
771.67	4261.8	
771.85	4558.1	
772.02	5446.2	
772.2	6345.3	
772.38	5332.9	
772.55	4812	
772.73	6538.5	
772.91	6343.2	
773.09	5154.1	
773.26	5265.3	
773.44	6470.9	
773.62	6088.6	
773.8	4647.5	
773.97	4311.7	
774.15	6610.8	
774.33	6097.5	
774.5	4446.8	
774.68	4934.9	
774.86	6526.2	
775.04	6168.5	
775.21	4567.7	
775.39	4614.8	
775.57	6390.3	
775.74	6810.9	
775.92	4300.7	
776.1	4256.4	
776.27	6354.8	
776.45	7727	
776.63	4496.7	
776.81	4028.4	
776.98	5905	
777.16	7131.7	
777.34	4686.4	
777.51	5059.2	
777.69	5875.6	
777.87	5647.6	
778.04	4698	
778.22	5388.9	
778.4	5731.6	
778.57	6413.6	
778.75	3910.3	
778.93	4211.3	
779.1	5447.6	
779.28	5307	
779.46	3895.2	
779.64	4448.9	
779.81	6576.7	
779.99	7578.8	
780.17	5292.6	
780.34	5407.3	
780.52	5992.4	
780.69	6163.7	
780.87	4864.6	
781.05	4310.3	
781.22	5951.4	
781.4	6045.6	
781.58	4392.2	
781.75	3444	
781.93	6036	
782.11	5394.3	
782.28	5352	
782.46	4403.1	
782.64	5223.7	
782.81	6178.7	
782.99	4521.2	
783.17	4434.5	
783.34	6107	
783.52	5273.5	
783.69	4744.5	
783.87	5569.1	
784.05	5323.4	
784.22	5304.2	
784.4	5541.1	
784.58	4736.3	
784.75	6287.3	
784.93	5385.5	
785.1	4388.1	
785.28	5072.1	
785.46	6066.8	
785.63	5357.5	
785.81	4353.3	
785.99	4209.9	
786.16	5468.1	
786.34	5915.2	
786.51	4218.1	
786.69	4640.7	
786.87	4974.5	
787.04	5649.7	
787.22	4098	
787.39	5022.3	
787.57	5243.5	
787.75	6460.7	
787.92	5238.7	
788.1	5190.2	
788.27	5314.5	
788.45	5127.4	
788.63	4881	
788.8	3553.9	
788.98	5847	
789.15	5016.2	
789.33	3652.9	
789.5	4338.3	
789.68	6236.7	
789.86	6345.3	
790.03	4764.3	
790.21	4241.3	
790.38	6267.5	
790.56	5436.7	
790.73	4022.9	
790.91	4075.5	
791.09	5246.2	
791.26	6120	
791.44	4263.9	
791.61	3696.6	
791.79	5240.8	
791.96	5418.9	
792.14	3806.5	
792.32	3387.3	
792.49	5288.5	
792.67	5396.4	
792.84	3910.3	
793.02	3656.3	
793.19	5764.3	
793.37	6509.1	
793.54	3373	
793.72	3822.9	
793.89	6694.8	
794.07	5298.1	
794.25	4356	
794.42	3471.3	
794.6	6412.9	
794.77	5985.5	
794.95	4737.6	
795.12	4080.2	
795.3	5212.1	
795.47	5891.3	
795.65	4496.7	
795.82	4370.4	
796	5027.8	
796.17	7141.3	
796.35	4242.7	
796.52	4928.8	
796.7	5764.3	
796.87	5876.3	
797.05	5182.7	
797.22	5078.3	
797.4	5883.1	
797.57	6957.6	
797.75	4300.7	
797.92	4027	
798.1	6200.6	
798.27	5257.1	
798.45	3437.9	
798.62	3761.4	
798.8	5621.7	
798.97	6099.5	
799.15	4604.5	
799.32	4343.7	
799.5	4752.7	
799.67	5693.4	
799.85	4705.5	
800.02	3422.2	
800.2	5180	
800.37	5591	
800.55	4936.3	
800.72	4062.5	
800.9	5998.5	
801.07	6554.2	
801.25	5489.2	
801.42	4447.5	
801.6	6080.4	
801.77	5727.5	
801.95	4136.9	
802.12	3954.6	
802.29	5774.6	
802.47	5761.6	
802.64	4416.1	
802.82	3349.1	
802.99	5161.6	
803.17	6227.2	
803.34	4265.9	
803.52	3878.2	
803.69	6916.7	
803.87	4943.1	
804.04	4262.5	
804.21	4391.5	
804.39	6347.3	
804.56	5455.8	
804.74	3678.2	
804.91	4505.5	
805.09	5253.7	
805.26	5322	
805.44	3702	
805.61	4086.4	
805.78	5921.4	
805.96	5998.5	
806.13	4536.3	
806.31	4747.2	
806.48	4780	
806.66	5268.7	
806.83	4405.9	
807	4332.8	
807.18	5169.1	
807.35	5610.1	
807.53	4313.7	
807.7	3365.5	
807.87	6423.1	
808.05	5259.2	
808.22	4751.3	
808.4	3429	
808.57	5319.3	
808.74	4844.1	
808.92	3934.8	
809.09	5037.3	
809.27	5107.6	
809.44	5770.5	
809.61	3478.1	
809.79	3867.2	
809.96	6425.8	
810.14	6057.9	
810.31	3322.5	
810.48	4114.4	
810.66	5329.5	
810.83	6081.1	
811.01	3939.6	
811.18	4356	
811.35	5999.9	
811.53	4657.1	
811.7	4771.1	
811.87	4467.3	
812.05	5242.8	
812.22	5102.2	
812.39	3742.3	
812.57	3671.3	
812.74	5227.1	
812.92	7086	
813.09	4139.6	
813.26	4508.3	
813.44	6802	
813.61	5201.8	
813.78	3494.5	
813.96	4616.1	
814.13	5259.2	
814.3	4871.4	
814.48	5012.7	
814.65	4134.2	
814.82	6536.4	
815	5001.8	
815.17	4315.8	
815.34	5235.3	
815.52	5133.6	
815.69	5139.7	
815.87	4222.9	
816.04	4159.4	
816.21	5541.1	
816.38	4568.3	
816.56	4147.8	
816.73	3823.6	
816.9	6622.4	
817.08	6066.8	
817.25	3821.5	
817.42	4838.7	
817.6	4767	
817.77	5264.6	
817.94	4360.8	
818.12	3772.4	
818.29	4972.5	
818.46	7883.3	
818.64	3968.3	
818.81	3695.9	
818.98	4871.4	
819.16	7169.3	
819.33	4596.3	
819.5	4198.3	
819.67	5631.9	
819.85	6248.4	
820.02	4158.1	
820.19	4425	
820.37	5457.2	
820.54	5037.3	
820.71	4321.9	
820.88	5379.3	
821.06	5478.3	
821.23	4998.4	
821.4	4410	
821.58	4261.8	
821.75	6019.7	
821.92	5365.7	
822.09	3472.7	
822.27	3758	
822.44	5182	
822.61	5132.2	
822.79	3454.2	
822.96	6742.6	
823.13	5782.8	
823.3	4922	
823.48	4036.5	
823.65	3538.9	
823.82	5965.1	
823.99	4788.2	
824.17	5104.2	
824.34	3753.9	
824.51	6988.4	
824.68	5266	
824.86	3891.1	
825.03	4316.4	
825.2	5209.3	
825.37	6333.7	
825.55	3838.6	
825.72	4283	
825.89	7054.6	
826.06	6505.7	
826.24	4138.9	
826.41	4147.8	
826.58	6402	
826.75	5540.4	
826.92	3267.9	
827.1	3578.5	
827.27	8782.4	
827.44	6938.5	
827.61	3954.6	
827.79	4757.4	
827.96	4889.2	
828.13	5352.7	
828.3	4124.6	
828.47	3494.5	
828.65	5466	
828.82	5401.9	
828.99	5359.5	
829.16	4719.2	
829.34	5889.3	
829.51	5558.9	
829.68	4246.8	
829.85	4480.3	
830.02	6151.4	
830.2	5904.3	
830.37	3272.7	
830.54	5186.1	
830.71	6690.7	
830.88	5143.8	
831.05	3333.4	
831.23	3885.7	
831.4	6402	
831.57	7236.8	
831.74	4009.9	
831.91	3464.5	
832.09	5457.2	
832.26	5898.2	
832.43	4102.1	
832.6	4620.9	
832.77	5438	
832.94	6294.1	
833.12	3288.4	
833.29	4044.1	
833.46	5652.4	
833.63	7424.6	
833.8	4482.3	
833.97	4108.9	
834.15	5915.2	
834.32	5599.1	
834.49	4255.7	
834.66	4319.2	
834.83	6087.2	
835	4885.1	
835.17	3966.2	
835.35	3990.8	
835.52	5776	
835.69	5584.1	
835.86	4240.7	
836.03	3404.4	
836.2	5793	
836.37	5451.7	
836.55	4080.9	
836.72	3865.9	
836.89	5418.2	
837.06	5922.7	
837.23	4169	
837.4	4511	
837.57	6790.4	
837.75	7404.8	
837.92	3733.4	
838.09	3988.8	
838.26	5369.8	
838.43	6128.9	
838.6	4313	
838.77	3812	
838.94	7091.4	
839.11	6750.8	
839.29	4164.2	
839.46	3181.2	
839.63	5810.8	
839.8	5575.3	
839.97	3945.1	
840.14	3966.9	
840.31	5588.9	
840.48	5853.1	
840.65	3250.8	
840.82	3870	
841	5875.6	
841.17	5780.1	
841.34	3645.4	
841.51	3700	
841.68	5773.2	
841.85	5524.7	
842.02	3780.6	
842.19	3095.8	
842.36	5569.1	
842.53	5551.4	
842.7	3596.9	
842.87	4552.6	
843.05	7421.2	
843.22	5537.7	
843.39	3474	
843.56	3744.4	
843.73	5249.6	
843.9	5881.8	
844.07	5982.8	
844.24	4956.1	
844.41	8738	
844.58	5003.9	
844.75	3504.8	
844.92	3838.6	
845.09	5833.3	
845.26	5794.4	
845.43	3601.7	
845.6	3834.5	
845.77	5847.6	
845.94	5557.5	
846.12	4090.5	
846.29	4274.1	
846.46	6011.5	
846.63	5842.2	
846.8	3615.3	
846.97	4311	
847.14	6298.2	
847.31	5804.6	
847.48	4099.4	
847.65	4526	
847.82	6143.2	
847.99	6165.8	
848.16	4840.7	
848.33	4535.6	
848.5	5390.9	
848.67	6350.8	
848.84	3564.1	
849.01	3823.6	
849.18	5198.4	
849.35	4870.1	
849.52	4573.8	
849.69	3603.1	
849.86	6008.1	
850.03	6268.8	
850.2	3646.1	
850.37	4461.8	
850.54	6294.1	
850.71	5510.4	
850.88	4377.2	
851.05	3577.8	
851.22	5738.4	
851.39	6419	
851.56	3419.4	
851.73	4190.8	
851.9	5062.6	
852.07	6100.9	
852.24	4011.3	
852.41	3605.1	
852.58	5643.5	
852.75	5204.6	
852.92	4032.5	
853.09	3521.1	
853.26	5428.5	
853.43	6371.2	
853.6	3606.5	
853.77	3082.9	
853.94	6431.3	
854.11	5749.3	
854.28	5431.2	
854.44	3962.8	
854.61	6701.6	
854.78	6156.2	
854.95	3584.6	
855.12	4585.4	
855.29	4682.3	
855.46	6556.2	
855.63	3538.9	
855.8	5137.7	
855.97	5322	
856.14	6166.4	
856.31	5087.2	
856.48	3953.9	
856.65	5363.6	
856.82	5062.6	
856.99	3429.7	
857.16	3883.6	
857.33	7090.1	
857.49	5470.8	
857.66	3941.7	
857.83	4285.7	
858	5435.3	
858.17	5681.7	
858.34	3441.3	
858.51	3626.3	
858.68	6591.7	
858.85	6631.3	
859.02	4222.9	
859.19	4506.9	
859.36	5047.6	
859.52	5137	
859.69	3645.4	
859.86	4258.4	
860.03	5165	
860.2	6399.9	
860.37	3297.9	
860.54	3643.3	
860.71	6049	
860.88	6526.9	
861.05	4062.5	
861.21	4564.9	
861.38	6561	
861.55	4995	
861.72	3336.1	
861.89	4070.7	
862.06	6156.2	
862.23	6688.7	
862.4	3480.2	
862.56	3722.5	
862.73	5989.6	
862.9	5572.5	
863.07	4235.9	
863.24	3256.3	
863.41	4980	
863.58	5066	
863.75	3674.1	
863.91	4146.5	
864.08	6462	
864.25	5967.1	
864.42	4531.5	
864.59	5093.3	
864.76	6838.9	
864.93	5130.8	
865.09	3533.4	
865.26	3893.9	
865.43	6339.1	
865.6	6803.4	
865.77	3139.5	
865.94	3593.5	
866.1	6453.8	
866.27	6088.6	
866.44	5443.5	
866.61	3360.7	
866.78	5520.6	
866.95	5874.9	
867.11	3537.5	
867.28	3171.6	
867.45	6208.1	
867.62	5192.3	
867.79	4190.8	
867.96	3562.1	
868.12	5084.4	
868.29	6137.8	
868.46	3104	
868.63	4896	
868.8	6303.6	
868.97	6001.9	
869.13	3804.4	
869.3	3767.6	
869.47	5945.9	
869.64	6205.3	
869.81	3667.2	
869.97	3648.8	
870.14	5843.5	
870.31	6527.6	
870.48	3540.3	
870.65	4584.7	
870.81	5442.8	
870.98	5330.9	
871.15	4156	
871.32	3771.7	
871.48	5927.5	
871.65	6640.9	
871.82	3588	
871.99	3971	
872.16	7028.6	
872.32	6421.1	
872.49	3624.2	
872.66	3695.9	
872.83	6038.1	
872.99	5297.4	
873.16	4192.2	
873.33	3549.8	
873.5	5672.2	
873.67	5665.4	
873.83	3825.6	
874	4911	
874.17	5834.7	
874.34	6909.8	
874.5	4709	
874.67	4459.1	
874.84	6481.8	
875.01	5010.7	
875.17	5147.2	
875.34	3583.9	
875.51	5743.9	
875.68	6922.8	
875.84	4378.6	
876.01	5453.1	
876.18	6023.1	
876.34	5937.1	
876.51	3610.6	
876.68	3530	
876.85	5494	
877.01	6261.3	
877.18	5134.3	
877.35	3599.6	
877.52	5558.2	
877.68	5029.1	
877.85	3508.9	
878.02	3525.2	
878.18	5566.4	
878.35	5322.7	
878.52	2904	
878.69	4059.1	
878.85	6050.4	
879.02	6012.2	
879.19	5229.1	
879.35	3953.3	
879.52	5952.1	
879.69	6290.7	
879.86	3162.1	
880.02	4041.3	
880.19	5515.2	
880.36	6838.2	
880.52	4160.8	
880.69	4323.9	
880.86	6147.3	
881.02	6189.6	
881.19	4013.3	
881.36	3908.2	
881.52	6044.2	
881.69	5268.1	
881.86	3900.7	
882.02	3821.5	
882.19	6281.8	
882.36	7423.2	
882.52	3652.9	
882.69	5100.8	
882.86	5810.1	
883.02	5643.5	
883.19	4388.8	
883.36	4155.3	
883.52	6121.4	
883.69	7094.2	
883.86	3617.4	
884.02	3218.7	
884.19	6128.9	
884.36	5573.9	
884.52	4113	
884.69	3812.6	
884.86	5292.6	
885.02	6775.4	
885.19	4083.6	
885.36	4166.3	
885.52	5597.8	
885.69	5795.8	
885.86	5260.5	
886.02	4642.7	
886.19	6029.2	
886.35	5552	
886.52	3984.7	
886.69	5107	
886.85	5167	
887.02	6423.8	
887.19	6423.8	
887.35	6423.8	
887.52	6423.8	
887.68	6423.8	
887.85	6423.8	
888.02	6423.8	
888.18	6423.8	
888.35	6423.8	
888.51	6423.8	
888.68	6423.8	
888.85	6423.8	
889.01	6423.8	
889.18	6423.8	
889.35	6423.8	
889.51	6423.8	
889.68	6423.8	
889.84	6423.8	
890.01	6423.8	
890.17	6423.8	
890.34	6423.8	
890.51	6423.8	
890.67	6423.8	
890.84	6423.8	
891	6423.8	
891.17	6423.8	
891.34	6423.8	
891.5	6423.8	
891.67	6423.8	
891.83	6423.8	
892	6423.8	
892.16	6423.8	
892.33	6423.8	
892.5	6423.8	
892.66	6423.8	
892.83	6423.8	
892.99	6423.8	
893.16	6423.8	
893.32	6423.8	
893.49	6423.8	
893.65	6423.8	
893.82	6423.8	
893.99	6423.8	
894.15	6423.8	
894.32	6423.8	
894.48	6423.8	
894.65	6423.8	
894.81	6423.8	
894.98	6423.8	
895.14	6423.8	
895.31	6423.8	
895.47	6423.8	
895.64	6423.8	
895.81	6423.8	
895.97	6423.8	
896.14	6423.8	
896.3	6423.8	
896.47	6423.8	
896.63	6423.8	
896.8	6423.8	
896.96	6423.8	
897.13	6423.8	
897.29	6423.8	
897.46	6423.8	
897.62	6423.8	
897.79	6423.8	
897.95	6423.8	
898.12	6423.8	
898.28	6423.8	
898.45	6423.8	
898.61	6423.8	
898.78	6423.8	
898.94	6423.8	
899.11	6423.8	
899.27	6423.8	
899.44	6423.8	
899.6	6423.8	
899.77	6423.8	
899.93	6423.8	
900.1	6423.8	
900.26	6423.8	
900.43	6423.8	
900.59	6423.8	
900.76	6423.8	
900.92	6423.8	
901.09	6423.8	
901.25	6423.8	
901.42	6423.8	
901.58	6423.8	
901.75	6423.8	
901.91	6423.8	
902.07	6423.8	
902.24	6423.8	
902.4	6423.8	
902.57	6423.8	
902.73	6423.8	
902.9	6423.8	
903.06	6423.8	
903.23	6423.8	
903.39	6423.8	
903.56	6423.8	
903.72	6423.8	
903.88	6423.8	
904.05	6423.8	
904.21	6423.8	
904.38	6423.8	
904.54	6423.8	
904.71	6423.8	
904.87	6423.8	
905.03	6423.8	
905.2	6423.8	
905.36	6423.8	
905.53	6423.8	
905.69	6423.8	
905.86	6423.8	
906.02	6423.8	
906.18	6423.8	
906.35	6423.8	
906.51	6423.8	
906.68	6423.8	
906.84	6423.8	
907.01	6423.8	
907.17	6423.8	
907.33	6423.8	
907.5	6423.8	
907.66	6423.8	
907.83	6423.8	
907.99	6423.8	
908.15	6423.8	
908.32	6423.8	
908.48	6423.8	
908.65	6423.8	
908.81	6423.8	
908.97	6423.8	
909.14	6423.8	
909.3	6423.8	
909.47	6423.8	
909.63	6423.8	
909.79	6423.8	
909.96	6423.8	
910.12	6423.8	
910.28	6423.8	
910.45	6423.8	
910.61	6423.8	
910.78	6423.8	
910.94	6423.8	
911.1	6423.8	
911.27	6423.8	
911.43	6423.8	
911.59	6423.8	
911.76	6423.8	
911.92	6423.8	
912.08	6423.8	
912.25	6423.8	
912.41	6423.8	
912.57	6423.8	
912.74	6423.8	
912.9	6423.8	
913.07	6423.8	
913.23	6423.8	
913.39	6423.8	
913.56	6423.8	
913.72	6423.8	
913.88	6423.8	
914.05	6423.8	
914.21	6423.8	
914.37	6423.8	
914.54	6423.8	
914.7	6423.8	
914.86	6423.8	
915.03	6423.8	
915.19	6423.8	
