Wavelength	Intensities	
nm	a.u.	
179.22	1888.7	
179.44	1885.8	
179.65	1891.6	
179.86	1880	
180.08	1901.9	
180.29	4937.7	
180.51	3500	
180.72	5684.5	
180.94	6628.6	
181.15	3173.7	
181.37	3175	
181.58	5418.9	
181.79	5735.7	
182.01	3295.9	
182.22	3625.6	
182.44	5760.9	
182.65	4802.5	
182.87	4547.2	
183.08	3978.5	
183.29	6036	
183.51	4942.4	
183.72	3603.1	
183.94	5289.9	
184.15	5375.2	
184.37	5421	
184.58	3168.2	
184.79	4379.2	
185.01	4930.8	
185.22	5719.3	
185.44	4587.4	
185.65	3859.1	
185.86	5289.2	
186.08	4906.3	
186.29	3058.3	
186.51	3363.4	
186.72	5040.7	
186.94	5851	
187.15	3872	
187.36	3960.8	
187.58	7643	
187.79	5492	
188.01	4177.9	
188.22	6423.1	
188.43	6609.5	
188.65	5692	
188.86	3287.7	
189.08	3943	
189.29	5124	
189.5	5141.1	
189.72	3692.5	
189.93	3697.9	
190.15	5941.8	
190.36	7080.5	
190.57	4092.5	
190.79	3937.6	
191	6047	
191.22	5939.8	
191.43	4063.9	
191.64	3351.2	
191.86	6163	
192.07	5891.3	
192.29	3472.7	
192.5	3713.7	
192.71	5971.2	
192.93	5078.3	
193.14	3673.4	
193.35	3731.4	
193.57	5139	
193.78	5961.6	
194	2979.8	
194.21	3583.9	
194.42	4949.3	
194.64	5381.4	
194.85	3986	
195.07	4631.1	
195.28	5464.7	
195.49	4653	
195.71	4891.9	
195.92	3454.2	
196.13	5530.2	
196.35	5639.4	
196.56	5253	
196.78	4018.8	
196.99	7029.3	
197.2	6555.5	
197.42	4524.6	
197.63	3997.6	
197.84	4820.9	
198.06	5572.5	
198.27	3689.8	
198.48	4861.2	
198.7	5134.3	
198.91	5275.6	
199.13	4021.5	
199.34	4009.9	
199.55	5815.5	
199.77	4685.8	
199.98	3530.7	
200.19	4118.5	
200.41	5208.7	
200.62	4964.3	
200.83	4190.1	
201.05	4426.3	
201.26	5319.3	
201.47	4990.2	
201.69	3570.3	
201.9	3456.3	
202.11	5327.4	
202.33	6386.2	
202.54	3794.2	
202.76	4262.5	
202.97	5464	
203.18	5484.5	
203.4	4143	
203.61	4023.6	
203.82	5399.8	
204.04	5063.9	
204.25	4121.2	
204.46	3979.9	
204.68	5416.9	
204.89	5674.2	
205.1	3976.5	
205.32	3392.1	
205.53	5784.8	
205.74	5948.7	
205.96	2930.6	
206.17	4100.7	
206.38	5765.7	
206.6	5837.4	
206.81	4552.6	
207.02	3765.5	
207.24	5629.9	
207.45	6010.8	
207.66	3839.9	
207.88	3261	
208.09	5561.6	
208.3	5397.1	
208.52	3505.4	
208.73	3796.9	
208.94	5375.9	
209.15	6095.4	
209.37	3801	
209.58	4002.4	
209.79	5877	
210.01	5125.4	
210.22	3035.8	
210.43	3226.9	
210.65	5404.6	
210.86	5807.4	
211.07	3895.9	
211.29	3550.5	
211.5	5707.7	
211.71	5281.7	
211.93	3466.5	
212.14	3486.3	
212.35	5334.3	
212.56	5519.3	
212.78	4020.2	
212.99	3301.3	
213.2	6306.4	
213.42	5091.9	
213.63	3640.6	
213.84	3910.9	
214.06	4775.2	
214.27	4833.9	
214.48	3771.7	
214.69	4041.3	
214.91	5999.2	
215.12	6134.3	
215.33	4093.2	
215.55	4538.3	
215.76	6625.9	
215.97	5776	
216.18	3947.1	
216.4	3848.1	
216.61	5117.9	
216.82	5869.5	
217.04	3531.4	
217.25	3681.6	
217.46	5998.5	
217.67	5836.7	
217.89	3176.4	
218.1	3282.2	
218.31	5431.2	
218.53	5600.5	
218.74	3706.1	
218.95	3610.6	
219.16	5368.4	
219.38	6246.3	
219.59	3618.8	
219.8	4291.9	
220.01	6888.7	
220.23	5367.7	
220.44	4679.6	
220.65	3492.5	
220.87	5456.5	
221.08	6051.1	
221.29	3238.5	
221.5	4361.5	
221.72	7350.2	
221.93	5092.6	
222.14	4077.5	
222.35	4812.7	
222.57	5429.8	
222.78	5722	
222.99	3794.2	
223.2	4185.4	
223.42	5623	
223.63	5802.6	
223.84	2943.6	
224.05	2913.6	
224.27	6904.4	
224.48	6270.2	
224.69	4754.7	
224.9	4055	
225.12	5572.5	
225.33	5304.9	
225.54	3186	
225.75	3607.8	
225.97	4961.5	
226.18	5274.2	
226.39	3913	
226.6	3611.9	
226.82	5162.9	
227.03	4984.1	
227.24	4044.1	
227.45	3310.2	
227.67	5756.2	
227.88	6267.5	
228.09	4462.5	
228.3	4532.2	
228.52	5807.4	
228.73	5291.3	
228.94	3721.2	
229.15	3274	
229.36	5277.6	
229.58	5180	
229.79	3792.2	
230	4383.3	
230.21	6424.5	
230.43	5426.4	
230.64	3967.6	
230.85	4144.4	
231.06	5784.1	
231.28	5816.2	
231.49	3334.1	
231.7	3934.1	
231.91	5700.9	
232.12	5375.2	
232.34	3405.8	
232.55	3964.2	
232.76	5980.8	
232.97	5560.2	
233.18	3518.4	
233.4	3979.2	
233.61	5567.7	
233.82	5132.9	
234.03	3733.4	
234.25	3633.1	
234.46	7478.5	
234.67	5416.2	
234.88	4145.1	
235.09	3520.5	
235.31	5666	
235.52	5259.9	
235.73	3969	
235.94	3408.5	
236.15	5095.3	
236.37	6568.5	
236.58	3541.6	
236.79	3823.6	
237	5618.9	
237.21	4889.2	
237.43	4123.9	
237.64	3263.8	
237.85	9716.2	
238.06	4964.3	
238.27	4175.8	
238.48	3375.1	
238.7	5731.6	
238.91	5266.7	
239.12	3800.3	
239.33	3843.4	
239.54	5003.2	
239.76	5257.8	
239.97	3749.1	
240.18	3888.4	
240.39	6722.1	
240.6	5677	
240.82	4008.6	
241.03	3248.8	
241.24	5309	
241.45	6249	
241.66	3523.9	
241.87	4179.2	
242.09	6124.1	
242.3	6468.2	
242.51	4182.6	
242.72	3891.1	
242.93	5849.7	
243.14	5322.7	
243.36	4502.8	
243.57	4754	
243.78	6222.4	
243.99	5625.8	
244.2	3910.3	
244.41	3568.9	
244.63	4917.2	
244.84	5621	
245.05	4132.8	
245.26	3861.1	
245.47	5680.4	
245.68	5940.5	
245.9	5098.1	
246.11	4079.6	
246.32	5269.4	
246.53	5666.7	
246.74	6276.3	
246.95	3261.7	
247.16	4857.1	
247.38	5371.8	
247.59	3181.9	
247.8	3878.9	
248.01	5079	
248.22	5300.1	
248.43	3464.5	
248.64	3789.4	
248.86	4792.2	
249.07	5076.9	
249.28	3359.4	
249.49	3919.1	
249.7	5933.6	
249.91	6076.3	
250.12	3200.3	
250.34	3315	
250.55	5460.6	
250.76	5377.3	
250.97	3994.9	
251.18	3994.9	
251.39	6065.4	
251.6	5520	
251.81	4069.3	
252.03	4065.2	
252.24	5085.1	
252.45	5890	
252.66	3338.2	
252.87	4313	
253.08	5419.6	
253.29	7040.2	
253.5	3413.3	
253.72	4697.4	
253.93	5184.1	
254.14	6333	
254.35	3676.8	
254.56	3756	
254.77	5630.5	
254.98	5001.1	
255.19	3586.7	
255.41	4645.5	
255.62	5469.4	
255.83	6022.4	
256.04	4134.8	
256.25	4040	
256.46	6640.9	
256.67	5057.1	
256.88	3974.4	
257.09	4468	
257.31	5066.7	
257.52	5089.2	
257.73	4992.9	
257.94	3646.7	
258.15	5205.9	
258.36	5366.4	
258.57	4642.7	
258.78	2905.4	
258.99	5872.9	
259.2	5194.3	
259.41	3697.3	
259.63	3774.4	
259.84	6180.8	
260.05	6638.8	
260.26	4863.2	
260.47	3577.8	
260.68	6027.9	
260.89	5279.7	
261.1	4424.3	
261.31	3501.3	
261.52	5982.1	
261.73	6332.3	
261.95	4744.5	
262.16	4148.5	
262.37	6045.6	
262.58	6172.6	
262.79	4702.1	
263	3704.1	
263.21	5399.8	
263.42	4894.6	
263.63	3799.7	
263.84	3738.9	
264.05	5939.8	
264.26	6292.7	
264.47	4613.4	
264.69	4152.6	
264.9	6109.8	
265.11	5570.5	
265.32	3608.5	
265.53	3642.7	
265.74	5537.7	
265.95	4822.3	
266.16	3951.9	
266.37	4412.7	
266.58	5509.7	
266.79	5189.6	
267	3628.3	
267.21	3403.7	
267.42	4948.6	
267.63	5369.8	
267.84	3863.8	
268.06	3302	
268.27	5823.1	
268.48	6102.9	
268.69	3774.4	
268.9	4443.4	
269.11	6051.7	
269.32	4796.3	
269.53	3829	
269.74	3588	
269.95	5709.7	
270.16	4740.4	
270.37	3843.4	
270.58	4529.4	
270.79	5188.9	
271	5912.5	
271.21	4145.8	
271.42	3907.5	
271.63	5481.7	
271.84	5024.3	
272.05	3070.6	
272.26	3424.2	
272.47	5417.6	
272.68	5570.5	
272.89	3665.9	
273.11	4325.3	
273.32	5199.8	
273.53	6363	
273.74	4115.7	
273.95	4098.7	
274.16	6008.7	
274.37	5452.4	
274.58	4251.6	
274.79	3366.2	
275	5545.9	
275.21	5973.2	
275.42	5091.3	
275.63	4363.5	
275.84	5610.8	
276.05	7053.9	
276.26	4062.5	
276.47	3833.1	
276.68	5238	
276.89	6421.1	
277.1	4372.4	
277.31	3391.4	
277.52	5631.9	
277.73	5800.5	
277.94	3310.9	
278.15	3717.7	
278.36	5641.5	
278.57	5061.9	
278.78	3671.3	
278.99	4234.5	
279.2	5023.7	
279.41	4989.5	
279.62	4897.4	
279.83	3463.1	
280.04	6662.7	
280.25	4902.8	
280.46	4857.1	
280.67	3869.3	
280.88	4986.8	
281.09	6097.5	
281.3	4082.3	
281.51	5055.8	
281.72	5079.6	
281.93	5907.7	
282.14	3563.5	
282.35	3903.4	
282.56	5850.4	
282.77	5894.1	
282.98	3739.6	
283.19	4567	
283.4	7242.3	
283.61	5300.1	
283.82	3338.2	
284.03	4838	
284.24	5466	
284.45	6051.7	
284.66	4798.4	
284.87	4571.1	
285.08	5984.8	
285.29	6161.7	
285.5	3267.2	
285.71	3799	
285.92	6036.7	
286.12	6657.3	
286.33	4751.3	
286.54	3753.9	
286.75	5894.1	
286.96	5266	
287.17	3398.3	
287.38	4635.9	
287.59	5022.3	
287.8	4947.2	
288.01	3773	
288.22	4342.4	
288.43	5888.6	
288.64	4936.3	
288.85	4460.5	
289.06	4254.3	
289.27	5896.1	
289.48	6360.3	
289.69	4826.4	
289.9	4297.3	
290.11	6026.5	
290.32	5094.7	
290.53	4554	
290.74	4156.7	
290.94	5831.9	
291.15	5883.1	
291.36	3657.7	
291.57	4311.7	
291.78	5157.5	
291.99	4817.5	
292.2	3469.9	
292.41	4161.5	
292.62	5944.6	
292.83	5692.7	
293.04	5152	
293.25	3530	
293.46	5154.1	
293.67	6017.6	
293.88	3602.4	
294.09	3480.9	
294.29	4939	
294.5	5560.9	
294.71	3933.5	
294.92	3749.1	
295.13	5123.3	
295.34	6520.7	
295.55	3246	
295.76	3336.8	
295.97	5779.4	
296.18	6516.6	
296.39	3421.5	
296.6	3637.9	
296.81	5528.8	
297.01	5807.4	
297.22	3782.6	
297.43	3636.5	
297.64	5027.1	
297.85	4973.2	
298.06	3069.2	
298.27	3268.6	
298.48	5418.9	
298.69	5083.7	
298.9	3915.7	
299.11	3549.8	
299.31	4879.6	
299.52	4944.5	
299.73	4130.1	
299.94	4097.3	
300.15	5390.9	
300.36	5025	
300.57	4201.1	
300.78	4059.1	
300.99	5281	
301.2	5498.8	
301.4	3642	
301.61	3902.1	
301.82	5705	
302.03	5794.4	
302.24	4356.7	
302.45	3453.6	
302.66	5666.7	
302.87	6087.2	
303.08	3609.9	
303.29	4947.9	
303.49	5132.9	
303.7	5437.4	
303.91	3205.8	
304.12	4719.9	
304.33	4929.5	
304.54	5504.3	
304.75	3627	
304.96	3521.1	
305.16	5689.3	
305.37	6472.3	
305.58	3177.1	
305.79	3291.8	
306	5703.6	
306.21	4797	
306.42	3468.6	
306.63	5578	
306.83	5212.8	
307.04	5963	
307.25	3993.5	
307.46	3941	
307.67	4655	
307.88	5842.9	
308.09	3590.1	
308.29	3689.1	
308.5	5479	
308.71	6039.5	
308.92	3845.4	
309.13	3534.8	
309.34	5393.7	
309.55	5316.5	
309.75	4530.1	
309.96	4170.3	
310.17	5829.2	
310.38	5130.8	
310.59	4323.3	
310.8	4097.3	
311.01	5750	
311.21	5248.3	
311.42	3460.4	
311.63	3536.2	
311.84	5160.2	
312.05	5575.9	
312.26	4055	
312.46	4443.4	
312.67	5243.5	
312.88	4965	
313.09	3510.9	
313.3	3405.8	
313.51	6193.1	
313.71	6556.2	
313.92	3478.1	
314.13	3704.8	
314.34	5539.8	
314.55	5349.3	
314.76	4452.3	
314.96	3913	
315.17	5504.3	
315.38	5773.2	
315.59	3497.9	
315.8	3315.7	
316.01	6268.1	
316.21	6240.2	
316.42	3371	
316.63	3892.5	
316.84	5289.9	
317.05	6043.6	
317.26	4188.1	
317.46	3708.9	
317.67	5306.3	
317.88	5773.9	
318.09	4487.1	
318.3	3246	
318.5	5076.9	
318.71	5695.4	
318.92	5732.3	
319.13	4158.1	
319.34	5908.4	
319.54	6020.3	
319.75	3263.1	
319.96	3083.6	
320.17	5782.1	
320.38	5988.3	
320.58	3175.7	
320.79	3850.2	
321	5971.9	
321.21	6163.7	
321.42	3858.4	
321.62	3195.5	
321.83	4962.2	
322.04	5370.5	
322.25	3710.2	
322.46	3553.2	
322.66	5547.9	
322.87	5707	
323.08	4358.8	
323.29	3484.3	
323.5	6392.4	
323.7	4953.4	
323.91	4741	
324.12	4273.4	
324.33	5472.9	
324.53	5736.4	
324.74	4132.1	
324.95	4336.2	
325.16	4807.3	
325.37	5168.4	
325.57	3512.3	
325.78	3596.2	
325.99	5456.5	
326.2	4879.6	
326.4	5122.7	
326.61	3194.1	
326.82	5347.2	
327.03	5493.3	
327.24	4966.3	
327.44	4738.3	
327.65	5696.1	
327.86	4599.7	
328.07	4113	
328.27	3334.1	
328.48	6057.2	
328.69	4996.4	
328.9	5071.5	
329.1	3761.4	
329.31	5272.8	
329.52	6214.9	
329.73	3480.2	
329.93	3986.7	
330.14	5438.7	
330.35	5603.2	
330.56	5792.3	
330.76	4373.8	
330.97	5221.6	
331.18	5593.7	
331.39	3917.1	
331.59	3138.9	
331.8	5973.9	
332.01	6096.1	
332.22	3656.3	
332.42	4147.8	
332.63	5486.5	
332.84	5081.7	
333.05	3943	
333.25	3588	
333.46	5180	
333.67	5383.4	
333.88	3670	
334.08	4097.3	
334.29	7187.7	
334.5	6012.8	
334.7	3450.1	
334.91	5031.9	
335.12	4959.5	
335.33	5850.4	
335.53	3909.6	
335.74	5715.2	
335.95	5172.5	
336.16	5020.9	
336.36	3918.4	
336.57	4502.8	
336.78	4961.5	
336.98	5977.3	
337.19	4808.6	
337.4	3807.9	
337.61	6584.9	
337.81	4919.2	
338.02	3576.4	
338.23	4687.1	
338.43	6193.1	
338.64	5054.4	
338.85	3567.6	
339.05	4611.3	
339.26	6275.7	
339.47	4803.9	
339.68	3545.7	
339.88	5188.2	
340.09	5679	
340.3	5852.4	
340.5	4083.6	
340.71	3188	
340.92	4894	
341.13	6170.5	
341.33	3451.5	
341.54	4161.5	
341.75	5608	
341.95	5251	
342.16	3949.8	
342.37	4303.5	
342.57	4974.5	
342.78	5346.6	
342.99	4430.4	
343.19	3121.8	
343.4	5816.2	
343.61	5666.7	
343.81	3777.8	
344.02	3526.6	
344.23	5801.2	
344.43	6158.2	
344.64	4407.2	
344.85	4312.3	
345.06	5668.1	
345.26	6014.2	
345.47	4095.3	
345.68	4777.9	
345.88	4797.7	
346.09	5916.6	
346.3	4145.1	
346.5	3115.6	
346.71	5357.5	
346.92	5083.1	
347.12	3209.2	
347.33	4069.3	
347.54	5936.4	
347.74	6374.6	
347.95	4035.2	
348.16	2975.7	
348.36	5213.4	
348.57	4894.6	
348.78	3998.3	
348.98	4302.1	
349.19	5280.3	
349.39	4862.6	
349.6	3236.5	
349.81	3549.8	
350.01	5588.9	
350.22	5083.7	
350.43	3892.5	
350.63	4724	
350.84	5430.5	
351.05	5194.3	
351.25	3521.8	
351.46	3200.3	
351.67	5926.1	
351.87	5137	
352.08	3820.1	
352.29	4275.5	
352.49	5773.9	
352.7	5895.4	
352.9	3347.7	
353.11	4241.3	
353.32	6457.2	
353.52	5206.6	
353.73	3394.2	
353.94	4317.1	
354.14	5722	
354.35	5495.4	
354.55	3506.8	
354.76	3897.3	
354.97	5653.8	
355.17	5397.8	
355.38	3291.1	
355.59	4622.9	
355.79	5054.4	
356	5521.3	
356.2	3824.9	
356.41	3336.8	
356.62	4833.9	
356.82	5355.4	
357.03	4108.9	
357.24	3708.2	
357.44	5098.1	
357.65	5194.3	
357.85	4991.6	
358.06	3936.2	
358.27	4791.6	
358.47	5052.3	
358.68	3264.5	
358.88	4147.1	
359.09	5602.6	
359.3	6025.1	
359.5	4807.3	
359.71	4353.3	
359.91	6436.1	
360.12	5833.3	
360.33	4118.5	
360.53	4645.5	
360.74	5076.9	
360.94	5124	
361.15	4364.2	
361.36	3558	
361.56	5912.5	
361.77	5304.2	
361.97	4818.9	
362.18	3778.5	
362.38	5920.7	
362.59	5003.9	
362.8	3509.5	
363	3358.7	
363.21	4797	
363.41	5481.7	
363.62	4018.1	
363.83	5098.1	
364.03	5608.7	
364.24	6508.4	
364.44	5162.9	
364.65	5112.4	
364.85	5292	
365.06	5202.5	
365.27	3692.5	
365.47	3702	
365.68	6295.5	
365.88	5283.1	
366.09	4115.1	
366.29	3790.1	
366.5	5535.7	
366.71	5988.9	
366.91	5066.7	
367.12	4294.6	
367.32	6576.7	
367.53	5801.9	
367.73	4237.2	
367.94	5197.1	
368.14	5784.8	
368.35	6679.1	
368.56	4220.9	
368.76	3594.9	
368.97	5877.7	
369.17	7677.8	
369.38	3708.2	
369.58	3952.6	
369.79	4970.4	
369.99	6268.8	
370.2	4982.7	
370.4	4083.6	
370.61	5570.5	
370.82	6804	
371.02	3984.7	
371.23	3312.9	
371.43	4869.4	
371.64	6196.5	
371.84	4035.2	
372.05	5236	
372.25	7514.7	
372.46	5981.4	
372.66	4034.5	
372.87	3974.4	
373.07	5988.9	
373.28	7628	
373.48	5147.2	
373.69	4721.3	
373.9	5456.5	
374.1	5559.6	
374.31	5000.5	
374.51	4555.4	
374.72	6313.2	
374.92	5174.5	
375.13	5205.3	
375.33	4325.3	
375.54	5957.5	
375.74	5332.2	
375.95	4427.7	
376.15	5596.4	
376.36	5908.4	
376.56	5720.7	
376.77	4562.9	
376.97	4909.7	
377.18	6995.2	
377.38	6089.3	
377.59	5342.5	
377.79	4032.5	
378	5804.6	
378.2	6288.6	
378.41	4181.3	
378.61	3943	
378.82	6294.1	
379.02	5436.7	
379.23	4251.6	
379.43	5392.3	
379.64	6386.2	
379.84	6010.8	
380.05	4102.8	
380.25	4037.2	
380.46	6168.5	
380.66	5719.3	
380.87	5408	
381.07	5776.6	
381.28	6763.8	
381.48	6133	
381.69	4170.3	
381.89	4203.1	
382.1	5077.6	
382.3	6275.7	
382.51	5217.5	
382.71	6135	
382.91	6169.2	
383.12	6615.6	
383.32	4459.8	
383.53	4656.4	
383.73	5921.4	
383.94	5745.9	
384.14	4580.6	
384.35	3709.6	
384.55	5613.5	
384.76	6124.8	
384.96	4399	
385.17	4725.3	
385.37	6003.3	
385.58	5391.6	
385.78	4773.8	
385.98	3673.4	
386.19	5610.1	
386.39	5988.9	
386.6	4216.1	
386.8	4463.9	
387.01	6088.6	
387.21	6140.5	
387.42	4983.4	
387.62	5510.4	
387.83	5407.3	
388.03	6110.5	
388.23	4571.7	
388.44	5342.5	
388.64	5230.5	
388.85	5311.1	
389.05	4881	
389.26	5509	
389.46	7146.7	
389.67	6606.7	
389.87	4866	
390.07	4977.9	
390.28	5805.3	
390.48	5378	
390.69	4077.5	
390.89	4452.3	
391.1	5509.7	
391.3	6549.4	
391.5	5668.8	
391.71	6197.8	
391.91	6177.4	
392.12	7217	
392.32	5647.6	
392.53	4889.2	
392.73	5614.2	
392.93	5785.5	
393.14	4521.2	
393.34	5639.4	
393.55	6296.8	
393.75	5738.4	
393.95	4483.7	
394.16	4455	
394.36	5628.5	
394.57	6297.5	
394.77	4074.1	
394.98	4561.5	
395.18	5530.9	
395.38	5707.7	
395.59	5444.9	
395.79	4354	
396	5606	
396.2	6212.2	
396.4	5275.6	
396.61	5148.6	
396.81	6432.7	
397.02	5705	
397.22	5506.3	
397.42	5487.9	
397.63	6425.8	
397.83	5644.9	
398.04	4393.6	
398.24	4909	
398.44	6210.8	
398.65	5319.3	
398.85	4216.1	
399.05	4296	
399.26	5622.4	
399.46	7417.1	
399.67	4819.6	
399.87	4504.8	
400.07	5999.2	
400.28	6436.1	
400.48	4637.3	
400.69	5665.4	
400.89	6653.9	
401.09	7038.9	
401.3	4472.8	
401.5	5684.5	
401.7	7340.6	
401.91	7521.5	
402.11	4833.2	
402.32	5033.9	
402.52	6555.5	
402.72	6443.6	
402.93	5137	
403.13	4016.1	
403.33	7249.1	
403.54	6014.2	
403.74	4900.8	
403.94	5720	
404.15	6115.2	
404.35	7295.5	
404.56	4717.8	
404.76	6587	
404.96	6575.3	
405.17	6348.7	
405.37	6022.4	
405.57	5174.5	
405.78	6563.7	
405.98	6046.3	
406.18	4745.8	
406.39	5580.7	
406.59	6514.6	
406.79	6246.3	
407	4513.7	
407.2	4678.2	
407.4	6689.3	
407.61	6870.3	
407.81	4721.9	
408.01	6992.4	
408.22	5668.1	
408.42	7743.4	
408.62	5962.3	
408.83	5358.9	
409.03	6283.9	
409.23	6251.1	
409.44	5623	
409.64	5847	
409.84	7444.4	
410.05	7264.1	
410.25	5737.7	
410.45	5504.3	
410.66	6818.4	
410.86	9266.4	
411.06	5989.6	
411.27	5795.1	
411.47	9200.8	
411.67	7104.4	
411.88	6034.7	
412.08	6337.1	
412.28	7812.3	
412.49	8191.9	
412.69	5805.3	
412.89	5963	
413.09	8011.7	
413.3	7825.3	
413.5	5933.6	
413.7	5618.3	
413.91	7171.3	
414.11	7994.6	
414.31	5829.2	
414.52	6264.1	
414.72	7692.9	
414.92	7669	
415.12	5790.3	
415.33	6410.8	
415.53	8015.1	
415.73	8296.3	
415.94	6747.4	
416.14	6122.7	
416.34	7049.1	
416.55	6804.7	
416.75	7350.8	
416.95	6808.1	
417.15	8089.5	
417.36	8818.6	
417.56	7654.6	
417.76	6633.4	
417.97	8426	
418.17	8125	
418.37	6201.2	
418.57	6242.2	
418.78	7880.6	
418.98	7410.9	
419.18	7135.8	
419.38	7087.3	
419.59	7550.9	
419.79	7240.3	
419.99	6203.3	
420.2	6524.1	
420.4	8174.8	
420.6	8225.3	
420.8	6093.4	
421.01	5940.5	
421.21	7971.4	
421.41	8200.7	
421.61	6451.1	
421.82	6197.2	
422.02	7395.2	
422.22	8354.3	
422.42	6888	
422.63	6434.7	
422.83	7613	
423.03	8803.5	
423.23	6561.7	
423.44	5538.4	
423.64	7618.4	
423.84	7299.6	
424.04	6053.1	
424.25	5625.1	
424.45	8509.3	
424.65	8438.3	
424.85	5483.1	
425.06	6052.4	
425.26	8418.5	
425.46	7400	
425.66	6514.6	
425.87	6187.6	
426.07	8090.2	
426.27	7974.8	
426.47	6354.2	
426.67	5630.5	
426.88	8491.6	
427.08	7927.7	
427.28	6574	
427.48	5558.9	
427.69	6776	
427.89	7473.7	
428.09	6593.8	
428.29	5592.3	
428.5	8232.8	
428.7	7726.3	
428.9	5625.1	
429.1	6220.4	
429.3	7661.5	
429.51	8092.2	
429.71	5848.3	
429.91	6641.6	
430.11	8034.2	
430.31	8146.8	
430.52	6247	
430.72	6473.6	
430.92	8441	
431.12	7965.2	
431.32	5856.5	
431.53	6298.9	
431.73	6946	
431.93	8550.3	
432.13	5772.5	
432.33	5694	
432.54	7462.8	
432.74	7800	
432.94	5654.4	
433.14	6715.3	
433.34	7847.8	
433.55	7511.9	
433.75	6593.1	
433.95	8497	
434.15	7705.1	
434.35	7513.3	
434.56	5892.7	
434.76	5406.6	
434.96	7664.9	
435.16	8003.5	
435.36	5692.7	
435.56	6848.4	
435.77	7458	
435.97	7613.7	
436.17	7595.9	
436.37	6840.9	
436.57	7432.8	
436.78	7305.8	
436.98	8580.3	
437.18	7359.7	
437.38	8036.9	
437.58	7477.1	
437.78	7466.2	
437.99	6116.6	
438.19	7933.8	
438.39	8857.5	
438.59	6102.3	
438.79	5619.6	
438.99	8806.9	
439.2	7590.5	
439.4	5780.1	
439.6	5815.5	
439.8	8015.1	
440	9138	
440.2	6832.7	
440.4	6967.2	
440.61	8430.8	
440.81	9002.2	
441.01	6066.1	
441.21	6971.3	
441.41	8745.5	
441.61	8413.1	
441.81	7208.8	
442.02	8355	
442.22	9301.2	
442.42	8482	
442.62	6141.9	
442.82	6214.9	
443.02	8792.6	
443.22	8012.3	
443.43	6637.5	
443.63	6077	
443.83	7772.7	
444.03	7815	
444.23	7417.1	
444.43	7032.7	
444.63	8079.9	
444.83	9360.6	
445.04	6201.9	
445.24	7579.5	
445.44	8378.2	
445.64	8488.1	
445.84	6968.6	
446.04	6924.2	
446.24	7708.6	
446.44	8730.5	
446.65	6157.6	
446.85	6556.2	
447.05	8062.2	
447.25	8694.3	
447.45	6666.8	
447.65	6095.4	
447.85	8028	
448.05	7759.8	
448.25	7145.4	
448.46	6875.7	
448.66	8064.9	
448.86	7777.5	
449.06	5924.1	
449.26	7120.1	
449.46	8523.6	
449.66	7487.4	
449.86	6585.6	
450.06	6492.7	
450.26	7664.9	
450.47	8301.8	
450.67	6821.1	
450.87	7206.8	
451.07	8439	
451.27	8140	
451.47	6154.1	
451.67	6753.5	
451.87	7768.6	
452.07	8919.6	
452.27	6427.2	
452.47	6339.8	
452.67	8053.3	
452.88	8729.8	
453.08	5714.5	
453.28	7778.9	
453.48	9313.5	
453.68	8049.2	
453.88	6244.9	
454.08	6583.5	
454.28	8544.1	
454.48	8174.8	
454.68	7148.8	
454.88	7615.7	
455.08	8662.2	
455.28	8348.2	
455.48	6230.6	
455.68	6834.1	
455.89	9123.7	
456.09	8794	
456.29	6664.1	
456.49	6720.1	
456.69	9076.6	
456.89	8298.4	
457.09	7139.9	
457.29	7559.1	
457.49	8660.2	
457.69	8725	
457.89	7057.3	
458.09	6437.4	
458.29	8390.5	
458.49	9144.2	
458.69	7407.5	
458.89	6930.3	
459.09	9316.2	
459.29	9488.2	
459.49	6867.5	
459.69	7772	
459.9	8908.7	
460.1	8514.1	
460.3	6840.9	
460.5	6612.2	
460.7	8986.5	
460.9	8566	
461.1	6331.6	
461.3	7745.4	
461.5	9558.6	
461.7	9196.7	
461.9	6885.3	
462.1	7341.3	
462.3	8744.1	
462.5	9323.7	
462.7	6945.3	
462.9	7126.2	
463.1	10456	
463.3	10061	
463.5	7305.8	
463.7	8322.3	
463.9	9028.1	
464.1	9370.8	
464.3	7393.2	
464.5	7623.9	
464.7	9643.2	
464.9	9346.9	
465.1	9049.3	
465.3	7983.7	
465.5	9985.2	
465.7	10022	
465.9	8337.3	
466.1	8061.5	
466.3	9850.7	
466.5	9528.5	
466.7	9192	
466.9	7928.4	
467.1	9555.8	
467.3	10613	
467.5	9043.1	
467.7	7924.3	
467.9	10799	
468.1	11736	
468.3	8603.5	
468.5	9137.4	
468.7	9594.7	
468.9	9646.6	
469.1	8121.6	
469.3	8962.6	
469.5	11654	
469.7	9199.5	
469.9	8598.1	
470.1	7927.7	
470.3	9526.5	
470.5	9627.5	
470.7	9236.3	
470.9	8020.5	
471.1	9370.8	
471.3	9910.8	
471.5	7804.8	
471.69	9773.6	
471.89	9237	
472.09	8791.2	
472.29	8621.3	
472.49	8887.5	
472.69	8955.1	
472.89	9844.6	
473.09	7656	
473.29	7874.4	
473.49	9093	
473.69	9209.7	
473.89	8799.4	
474.09	7985	
474.29	10572	
474.49	10095	
474.69	8797.4	
474.89	8052.6	
475.09	9370.1	
475.29	9168.1	
475.49	7518.1	
475.69	7688.1	
475.88	10875	
476.08	9503.3	
476.28	7315.3	
476.48	7828	
476.68	9957.9	
476.88	9817.3	
477.08	7729.7	
477.28	8015.7	
477.48	9272.5	
477.68	10019	
477.88	7496.9	
478.08	7840.3	
478.28	10204	
478.48	9411.1	
478.67	7862.8	
478.87	7201.3	
479.07	10103	
479.27	9456.2	
479.47	8018.5	
479.67	8028.7	
479.87	9938.1	
480.07	10465	
480.27	7376.1	
480.47	9014.5	
480.67	9534	
480.87	10174	
481.06	7526.3	
481.26	8445.1	
481.46	9408.4	
481.66	9425.4	
481.86	8136.6	
482.06	9095	
482.26	9179.7	
482.46	10118	
482.66	8049.2	
482.86	7640.3	
483.05	9536.7	
483.25	9004.2	
483.45	10447	
483.65	7996	
483.85	9144.2	
484.05	9484.1	
484.25	8548.2	
484.45	8961.2	
484.65	10304	
484.84	10284	
485.04	7948.2	
485.24	7909.9	
485.44	10594	
485.64	8941.4	
485.84	7198.6	
486.04	8746.2	
486.24	9274.6	
486.44	9682.1	
486.63	7262.8	
486.83	8070.4	
487.03	9192.6	
487.23	9458.2	
487.43	7344.7	
487.63	9908.8	
487.83	9546.3	
488.02	10565	
488.22	8354.3	
488.42	8968.1	
488.62	10347	
488.82	9343.5	
489.02	7984.3	
489.22	8030.1	
489.41	10189	
489.61	9891.7	
489.81	7810.3	
490.01	7742.7	
490.21	10132	
490.41	10763	
490.61	7588.4	
490.8	7751.6	
491	9508.7	
491.2	8757.8	
491.4	8414.4	
491.6	7504.4	
491.8	9518.3	
491.99	9750.4	
492.19	7354.9	
492.39	7767.3	
492.59	10252	
492.79	10261	
492.99	8662.2	
493.18	7761.1	
493.38	10324	
493.58	11108	
493.78	8499.8	
493.98	8122.2	
494.18	10188	
494.37	9546.3	
494.57	8981	
494.77	8718.9	
494.97	10450	
495.17	10822	
495.37	8270.4	
495.56	8561.9	
495.76	10838	
495.96	10445	
496.16	9630.9	
496.36	8456.7	
496.55	10619	
496.75	10181	
496.95	8861.6	
497.15	8680	
497.35	10589	
497.54	10555	
497.74	8505.2	
497.94	10340	
498.14	11450	
498.34	11140	
498.53	8260.1	
498.73	8947.6	
498.93	10050	
499.13	10507	
499.33	8882	
499.52	9420.7	
499.72	10588	
499.92	10815	
500.12	8562.6	
500.32	8720.9	
500.51	10913	
500.71	10692	
500.91	9532.6	
501.11	9249.3	
501.31	10719	
501.5	11179	
501.7	9824.8	
501.9	8850.6	
502.1	10592	
502.29	10797	
502.49	9247.3	
502.69	9628.9	
502.89	10699	
503.09	10738	
503.28	8187.1	
503.48	8323.6	
503.68	9841.2	
503.88	9991.4	
504.07	9321	
504.27	8755.1	
504.47	10259	
504.67	10367	
504.86	9161.9	
505.06	8857.5	
505.26	9871.9	
505.46	11605	
505.65	8689.5	
505.85	9072.5	
506.05	9847.3	
506.25	10340	
506.44	8014.4	
506.64	8905.3	
506.84	9667.8	
507.04	10634	
507.23	8251.9	
507.43	8798.1	
507.63	11704	
507.83	9960.6	
508.02	8746.2	
508.22	8206.2	
508.42	11927	
508.62	9703.3	
508.81	8690.2	
509.01	9294.4	
509.21	9563.3	
509.4	9923.8	
509.6	8804.9	
509.8	8239	
510	9792	
510.19	11160	
510.39	8194.6	
510.59	8273.1	
510.79	9627.5	
510.98	11025	
511.18	8200.1	
511.38	8366.6	
511.57	10511	
511.77	10352	
511.97	9073.2	
512.17	7933.8	
512.36	10433	
512.56	10398	
512.76	8146.8	
512.95	7766.6	
513.15	10606	
513.35	9093	
513.55	8934.6	
513.74	8105.2	
513.94	10488	
514.14	9802.9	
514.33	9035.6	
514.53	8817.9	
514.73	9772.2	
514.92	10002	
515.12	8298.4	
515.32	8040.3	
515.51	10075	
515.71	10675	
515.91	9727.9	
516.11	8180.3	
516.3	11764	
516.5	9611.1	
516.7	8679.3	
516.89	9276.6	
517.09	9772.2	
517.29	9684.2	
517.48	8965.3	
517.68	8413.1	
517.88	9447.3	
518.07	10124	
518.27	8869.1	
518.47	7881.9	
518.66	10614	
518.86	9327.1	
519.06	7864.9	
519.25	8254	
519.45	9688.9	
519.65	11181	
519.84	8856.1	
520.04	9387.2	
520.24	11353	
520.43	10138	
520.63	8534.6	
520.83	8153	
521.02	9405	
521.22	10103	
521.42	8686.8	
521.61	9247.9	
521.81	9614.5	
522.01	9859.6	
522.2	8637	
522.4	8409	
522.6	10355	
522.79	9170.8	
522.99	8589.2	
523.18	7876.5	
523.38	10146	
523.58	10122	
523.77	9880.8	
523.97	7924.3	
524.17	12028	
524.36	11123	
524.56	9435.7	
524.76	8929.1	
524.95	10142	
525.15	9729.2	
525.34	8665.6	
525.54	8606.2	
525.74	10445	
525.93	9417.9	
526.13	9869.8	
526.33	8649.3	
526.52	10856	
526.72	10328	
526.91	9887.6	
527.11	9081.4	
527.31	10950	
527.5	11251	
527.7	9080	
527.89	8011	
528.09	9942.9	
528.29	10389	
528.48	9449.3	
528.68	9124.4	
528.87	10768	
529.07	10778	
529.27	8975.6	
529.46	8460.2	
529.66	10227	
529.85	10693	
530.05	8176.2	
530.25	8976.2	
530.44	11745	
530.64	10286	
530.83	8690.9	
531.03	8963.3	
531.23	10811	
531.42	10686	
531.62	9790.7	
531.81	9069.8	
532.01	10769	
532.21	11516	
532.4	8733.2	
532.6	9057.5	
532.79	11757	
532.99	10850	
533.18	9185.8	
533.38	10139	
533.58	10512	
533.77	11336	
533.97	9041.1	
534.16	9923.1	
534.36	11533	
534.55	10524	
534.75	10022	
534.95	9187.2	
535.14	11320	
535.34	10494	
535.53	8689.5	
535.73	10786	
535.92	11923	
536.12	10608	
536.31	8851.3	
536.51	10050	
536.71	10885	
536.9	10537	
537.1	9043.8	
537.29	9182.4	
537.49	11323	
537.68	10430	
537.88	9555.1	
538.07	8696.4	
538.27	10608	
538.46	11727	
538.66	8690.2	
538.86	8998.8	
539.05	10585	
539.25	11088	
539.44	9309.4	
539.64	8858.8	
539.83	10447	
540.03	11435	
540.22	8719.6	
540.42	8938	
540.61	10745	
540.81	10753	
541	9337.4	
541.2	9954.5	
541.39	10178	
541.59	10611	
541.78	9582.4	
541.98	8699.1	
542.18	9807.7	
542.37	9764	
542.57	9027.4	
542.76	9628.2	
542.96	9883.5	
543.15	10603	
543.35	9018.6	
543.54	8336.6	
543.74	10870	
543.93	10423	
544.13	8938	
544.32	10064	
544.52	10735	
544.71	9916.9	
544.91	8097.7	
545.1	9327.8	
545.3	9970.2	
545.49	10676	
545.69	7998	
545.88	8654.7	
546.08	11527	
546.27	11165	
546.47	9121	
546.66	8426	
546.86	10815	
547.05	11482	
547.24	8621.9	
547.44	8583	
547.63	9702.6	
547.83	10888	
548.02	8912.1	
548.22	9069.1	
548.41	9493.7	
548.61	10889	
548.8	8374.8	
549	8231.5	
549.19	10150	
549.39	10421	
549.58	7941.3	
549.78	8587.8	
549.97	10526	
550.17	9936.7	
550.36	9426.1	
550.55	10451	
550.75	9981.1	
550.94	10924	
551.14	8131.1	
551.33	8551.6	
551.53	9278.7	
551.72	10375	
551.92	8677.9	
552.11	8327.7	
552.31	10337	
552.5	10374	
552.69	9954.5	
552.89	7958.4	
553.08	10376	
553.28	10054	
553.47	8405.5	
553.67	9466.4	
553.86	10930	
554.06	9240.4	
554.25	7546.1	
554.44	8103.1	
554.64	11546	
554.83	11053	
555.03	8003.5	
555.22	8360.5	
555.42	10402	
555.61	10004	
555.8	8224.6	
556	8542.1	
556.19	9247.3	
556.39	10544	
556.58	8327	
556.78	8310.7	
556.97	10004	
557.16	9680.1	
557.36	9568.8	
557.55	7764.5	
557.75	8910.7	
557.94	10804	
558.13	7965.2	
558.33	7787.1	
558.52	10523	
558.72	9323.7	
558.91	7890.1	
559.1	8134.5	
559.3	9056.8	
559.49	8757.1	
559.69	7441.6	
559.88	8382.3	
560.07	9853.5	
560.27	10283	
560.46	8582.4	
560.66	8686.1	
560.85	9618.6	
561.04	8820.6	
561.24	7812.3	
561.43	7926.3	
561.63	9022.7	
561.82	9447.3	
562.01	9224.1	
562.21	8285.4	
562.4	9790.7	
562.59	10809	
562.79	8121.6	
562.98	7732.4	
563.18	9722.4	
563.37	11204	
563.56	8542.8	
563.76	7673.1	
563.95	9175.6	
564.14	9154.4	
564.34	8037.6	
564.53	7856	
564.73	9671.9	
564.92	9977	
565.11	8287.4	
565.31	7572.7	
565.5	10291	
565.69	9241.1	
565.89	7800.7	
566.08	8114.7	
566.27	10161	
566.47	10585	
566.66	8639.7	
566.85	7399.3	
567.05	9748.3	
567.24	9097.8	
567.44	7712	
567.63	9114.8	
567.82	10020	
568.02	9671.9	
568.21	7659.4	
568.4	8120.9	
568.6	9542.9	
568.79	9578.3	
568.98	7548.1	
569.18	7701.7	
569.37	9469.8	
569.56	11525	
569.76	8062.9	
569.95	8998.1	
570.14	9964.7	
570.34	9809.1	
570.53	7516.7	
570.72	7562.5	
570.91	10434	
571.11	9405.6	
571.3	8032.1	
571.49	8925.7	
571.69	9510.8	
571.88	9151.7	
572.07	8523.6	
572.27	8606.9	
572.46	9044.5	
572.65	10037	
572.85	7816.4	
573.04	8183.7	
573.23	10312	
573.43	9626.1	
573.62	7570	
573.81	8098.4	
574	9648	
574.2	9495.7	
574.39	7998.7	
574.58	8131.1	
574.78	10454	
574.97	9783.1	
575.16	8439	
575.36	8625.4	
575.55	10181	
575.74	10256	
575.93	7570.7	
576.13	8665.6	
576.32	9463.7	
576.51	10055	
576.71	7972.7	
576.9	9388.6	
577.09	10382	
577.28	9942.2	
577.48	8513.4	
577.67	7432.1	
577.86	9577.7	
578.05	9908.1	
578.25	8088.8	
578.44	8243.1	
578.63	9691.7	
578.83	10858	
579.02	7496.2	
579.21	8998.8	
579.4	9787.2	
579.6	9542.9	
579.79	8337.3	
579.98	10485	
580.17	10240	
580.37	10273	
580.56	7744.1	
580.75	8523	
580.94	10740	
581.14	10568	
581.33	8993.3	
581.52	7857.4	
581.71	10015	
581.91	10741	
582.1	7530.4	
582.29	8225.3	
582.48	9732.6	
582.68	9561.3	
582.87	8577.6	
583.06	8208.9	
583.25	9988.6	
583.45	9792	
583.64	8876.6	
583.83	9624.1	
584.02	9464.3	
584.21	9935.4	
584.41	8899.1	
584.6	8163.2	
584.79	9694.4	
584.98	10463	
585.18	7616.4	
585.37	7590.5	
585.56	9196.1	
585.75	10032	
585.94	7849.2	
586.14	8576.9	
586.33	10544	
586.52	9540.1	
586.71	8267.6	
586.91	8009.6	
587.1	9009.7	
587.29	9960	
587.48	7980.9	
587.67	7825.3	
587.87	9817.3	
588.06	9842.5	
588.25	9051.3	
588.44	8325	
588.63	9486.2	
588.83	10053	
589.02	7757	
589.21	7578.8	
589.4	9116.2	
589.59	8920.3	
589.78	6878.4	
589.98	7064.8	
590.17	8503.2	
590.36	9126.4	
590.55	6640.2	
590.74	7497.6	
590.94	10709	
591.13	9062.3	
591.32	7194.5	
591.51	6757.6	
591.7	9624.8	
591.89	9058.2	
592.09	6851.1	
592.28	7365.9	
592.47	8318.8	
592.66	10156	
592.85	6944.7	
593.05	7023.2	
593.24	8892.3	
593.43	9607.7	
593.62	7136.5	
593.81	7690.8	
594	8893.6	
594.19	9105.3	
594.39	7010.9	
594.58	6931	
594.77	9269.1	
594.96	9701.2	
595.15	6866.8	
595.34	7598.6	
595.54	9167.4	
595.73	8394.6	
595.92	6289.3	
596.11	7485.3	
596.3	9701.9	
596.49	8451.3	
596.68	7247.1	
596.88	7658	
597.07	9436.4	
597.26	8258.8	
597.45	6677.1	
597.64	7987.1	
597.83	8468.4	
598.02	9216.5	
598.22	6776.7	
598.41	7548.8	
598.6	8963.3	
598.79	8352.3	
598.98	6843.6	
599.17	7790.5	
599.36	9006.3	
599.55	10135	
599.74	8881.4	
599.94	8616.5	
600.13	9447.3	
600.32	8267.6	
600.51	6581.5	
600.7	6747.4	
600.89	10071	
601.08	10105	
601.27	6439.5	
601.47	7457.3	
601.66	9291.6	
601.85	10056	
602.04	7174.7	
602.23	7497.6	
602.42	8334.6	
602.61	9004.9	
602.8	7094.8	
602.99	6886	
603.18	8714.8	
603.37	8989.2	
603.57	7512.6	
603.76	8063.5	
603.95	9737.4	
604.14	9285.5	
604.33	6947.4	
604.52	7300.3	
604.71	8888.2	
604.9	8531.2	
605.09	7847.1	
605.28	7693.5	
605.47	9546.9	
605.66	9156.5	
605.86	7448.5	
606.05	6938.5	
606.24	9434.3	
606.43	8002.8	
606.62	7217.7	
606.81	8049.9	
607	9302.6	
607.19	8659.5	
607.38	6681.2	
607.57	6947.4	
607.76	8370	
607.95	7886	
608.14	7231.4	
608.33	7922.9	
608.52	8331.8	
608.72	9234.3	
608.91	6523.5	
609.1	6486.6	
609.29	8484.1	
609.48	7950.9	
609.67	7432.8	
609.86	6444.3	
610.05	8035.5	
610.24	8461.5	
610.43	6384.2	
610.62	6119.3	
610.81	9618.6	
611	9281.4	
611.19	6542.6	
611.38	7222.5	
611.57	8718.9	
611.76	10175	
611.95	6297.5	
612.14	6122.7	
612.33	8497	
612.52	7956.4	
612.71	6848.4	
612.9	5963	
613.09	7686	
613.28	10058	
613.47	6546	
613.66	7491.5	
613.85	8609	
614.04	8146.8	
614.24	6584.2	
614.43	5857.9	
614.62	8776.2	
614.81	8693.6	
615	7190.4	
615.19	7272.3	
615.38	8011	
615.57	8383.7	
615.76	7003.4	
615.95	7966.6	
616.14	8784.4	
616.33	8403.5	
616.52	7385.7	
616.71	7657.4	
616.9	8771.5	
617.09	8537.3	
617.28	6666.8	
617.47	7968	
617.66	7864.2	
617.85	7877.2	
618.04	7646.4	
618.22	6963.8	
618.41	8178.9	
618.6	9001.5	
618.79	6939.2	
618.98	6666.8	
619.17	9366	
619.36	7654.6	
619.55	6879.1	
619.74	6800.6	
619.93	8648.6	
620.12	8093.6	
620.31	7462.1	
620.5	7546.8	
620.69	9219.3	
620.88	9592	
621.07	8353.7	
621.26	7314.7	
621.45	8785.1	
621.64	8837.7	
621.83	7400.7	
622.02	6537.8	
622.21	8881.4	
622.4	8605.6	
622.59	7899	
622.78	7645.8	
622.97	8181.6	
623.16	9198.8	
623.35	7238.9	
623.54	6472.3	
623.72	8429.4	
623.91	8543.4	
624.1	7545.4	
624.29	6268.1	
624.48	9583.8	
624.67	8820.6	
624.86	7475.8	
625.05	6552.1	
625.24	9700.5	
625.43	8148.2	
625.62	9112.8	
625.81	6698.9	
626	9112.8	
626.19	8393.3	
626.38	7514	
626.56	6854.6	
626.75	8331.1	
626.94	8959.9	
627.13	7490.8	
627.32	6218.3	
627.51	8855.4	
627.7	10173	
627.89	6227.9	
628.08	7421.2	
628.27	8050.6	
628.46	8308.6	
628.65	6646.3	
628.83	6253.1	
629.02	8760.5	
629.21	8161.8	
629.4	7015	
629.59	7285.3	
629.78	8048.5	
629.97	9067.7	
630.16	7286	
630.35	6820.4	
630.54	9429.5	
630.72	9126.4	
630.91	6680.5	
631.1	7320.8	
631.29	8632.2	
631.48	8810.4	
631.67	7415	
631.86	6817	
632.05	8261.5	
632.24	8357.8	
632.42	6507.1	
632.61	7120.1	
632.8	8417.2	
632.99	7947.5	
633.18	7080.5	
633.37	7571.3	
633.56	8526.4	
633.75	8426.7	
633.93	7019.8	
634.12	6651.8	
634.31	9458.2	
634.5	9014.5	
634.69	6778.1	
634.88	7298.3	
635.07	8329.8	
635.25	9003.6	
635.44	7673.7	
635.63	7979.6	
635.82	8220.5	
636.01	7783.6	
636.2	7634.1	
636.39	7191.8	
636.57	9405	
636.76	9004.2	
636.95	6593.1	
637.14	8023.9	
637.33	8646.5	
637.52	9600.2	
637.7	6439.5	
637.89	7362.4	
638.08	8246.5	
638.27	9691.7	
638.46	7447.8	
638.65	7853.3	
638.83	9692.4	
639.02	8062.2	
639.21	7346.7	
639.4	7820.5	
639.59	8456.1	
639.78	8138.6	
639.96	6581.5	
640.15	6561.7	
640.34	8420.6	
640.53	8587.1	
640.72	6320.7	
640.91	6625.2	
641.09	7795.9	
641.28	9136.7	
641.47	6950.1	
641.66	7506.5	
641.85	8460.8	
642.03	8742.1	
642.22	7262.8	
642.41	6720.1	
642.6	8004.8	
642.79	7314.7	
642.97	6462	
643.16	7210.9	
643.35	7883.3	
643.54	7665.5	
643.73	6394.4	
643.91	7189.7	
644.1	7559.7	
644.29	8159.1	
644.48	6434.7	
644.67	6534.4	
644.85	7825.3	
645.04	8056.7	
645.23	5984.2	
645.42	6358.9	
645.6	7648.5	
645.79	8714.8	
645.98	6370.5	
646.17	5455.8	
646.36	7307.8	
646.54	8021.9	
646.73	7187	
646.92	5993	
647.11	7549.5	
647.29	8533.9	
647.48	6034	
647.67	5760.9	
647.86	8850	
648.05	8858.1	
648.23	6362.4	
648.42	7654.6	
648.61	8273.8	
648.8	8004.8	
648.98	6079.1	
649.17	6376.7	
649.36	7488.7	
649.55	6996.5	
649.73	6051.1	
649.92	6838.2	
650.11	7350.8	
650.3	7802.1	
650.48	6174.6	
650.67	5814.2	
650.86	8073.8	
651.05	6974.7	
651.23	6184.9	
651.42	6103.6	
651.61	7524.2	
651.79	7623.2	
651.98	6323.4	
652.17	5881.8	
652.36	7940.7	
652.54	6972.7	
652.73	5913.2	
652.92	5722.7	
653.11	7969.3	
653.29	7940.7	
653.48	5210.7	
653.67	6217.6	
653.85	7729	
654.04	8796.7	
654.23	6404	
654.42	5960.3	
654.6	7161.1	
654.79	7866.2	
654.98	5416.9	
655.16	5958.9	
655.35	6875	
655.54	6839.5	
655.73	5567.7	
655.91	5526.1	
656.1	8004.1	
656.29	6756.2	
656.47	5203.9	
656.66	6795.8	
656.85	7122.8	
657.03	7173.4	
657.22	5629.2	
657.41	5712.5	
657.59	7285.3	
657.78	6990.4	
657.97	5374.6	
658.16	6103.6	
658.34	7815.7	
658.53	8175.5	
658.72	6866.2	
658.9	7472.4	
659.09	7221.8	
659.28	7353.6	
659.46	5744.6	
659.65	5652.4	
659.84	7068.2	
660.02	7554.3	
660.21	5536.3	
660.4	5591.6	
660.58	7976.2	
660.77	7315.3	
660.96	6199.9	
661.14	5205.3	
661.33	8482.7	
661.52	8353	
661.7	5154.1	
661.89	8918.9	
662.08	6967.2	
662.26	6524.1	
662.45	5483.1	
662.64	5625.1	
662.82	7667.6	
663.01	6851.8	
663.2	5599.8	
663.38	6380.8	
663.57	7503.1	
663.75	7433.4	
663.94	5865.4	
664.13	7090.8	
664.31	6930.3	
664.5	7547.4	
664.69	6237.4	
664.87	6740.5	
665.06	6663.4	
665.25	7421.8	
665.43	6914.6	
665.62	7060.7	
665.8	7762.5	
665.99	7066.2	
666.18	5894.1	
666.36	5979.4	
666.55	7675.1	
666.74	7590.5	
666.92	5504.9	
667.11	7204.8	
667.29	7075	
667.48	7642.3	
667.67	6744.6	
667.85	5854.5	
668.04	7121.5	
668.22	7129.7	
668.41	5960.3	
668.6	6130.9	
668.78	6844.3	
668.97	7039.6	
669.15	6277	
669.34	5248.9	
669.53	6866.2	
669.71	7202	
669.9	5431.9	
670.08	6112.5	
670.27	6955.6	
670.46	7432.8	
670.64	6240.8	
670.83	6519.4	
671.01	6739.2	
671.2	7363.1	
671.38	5485.8	
671.57	5390.9	
671.76	7967.3	
671.94	8469	
672.13	5294.7	
672.31	6457.9	
672.5	7577.5	
672.69	6887.3	
672.87	5494	
673.06	5819.6	
673.24	7389.8	
673.43	6918	
673.61	6272.2	
673.8	5774.6	
673.98	7535.8	
674.17	7660.8	
674.36	6320	
674.54	6191.7	
674.73	7350.2	
674.91	7594.6	
675.1	5877	
675.28	5560.9	
675.47	7114.6	
675.65	7640.3	
675.84	5841.5	
676.03	6072.9	
676.21	6817	
676.4	6438.8	
676.58	6631.3	
676.77	6272.9	
676.95	8307.9	
677.14	6839.5	
677.32	5474.9	
677.51	5257.1	
677.69	7651.2	
677.88	6500.3	
678.06	5290.6	
678.25	5464	
678.44	7040.2	
678.62	6779.5	
678.81	5057.8	
678.99	6067.4	
679.18	7856	
679.36	7483.3	
679.55	5661.3	
679.73	6333	
679.92	7461.4	
680.1	6785.6	
680.29	6921.5	
680.47	5708.4	
680.66	6788.3	
680.84	7620.5	
681.03	4958.1	
681.21	6154.1	
681.4	6858.6	
681.58	6694.1	
681.77	5409.4	
681.95	5392.3	
682.14	7614.3	
682.32	8007.6	
682.51	6361.7	
682.69	5175.2	
682.88	6685.9	
683.06	7338.6	
683.25	6007.4	
683.43	6464.1	
683.62	7009.5	
683.8	7372.7	
683.99	6604.7	
684.17	5830.6	
684.36	8159.1	
684.54	6851.1	
684.73	4990.9	
684.91	5183.4	
685.1	7232.1	
685.28	6583.5	
685.46	5819.6	
685.65	5959.6	
685.83	7447.1	
686.02	6858	
686.2	5380.7	
686.39	5488.6	
686.57	6548	
686.76	8132.5	
686.94	5343.8	
687.13	5510.4	
687.31	7299	
687.5	6790.4	
687.68	4897.4	
687.86	6176.7	
688.05	8518.9	
688.23	6320	
688.42	6289.3	
688.6	5417.6	
688.79	6675.7	
688.97	6697.5	
689.16	5790.3	
689.34	4767	
689.52	7444.4	
689.71	7610.9	
689.89	6070.9	
690.08	5327.4	
690.26	7021.1	
690.45	6879.8	
690.63	6298.9	
690.81	5476.3	
691	6694.8	
691.18	6647	
691.37	5647.6	
691.55	7879.9	
691.74	6585.6	
691.92	8586.5	
692.1	5612.8	
692.29	5020.3	
692.47	6797.2	
692.66	6136.4	
692.84	5225.7	
693.02	5909.8	
693.21	6248.4	
693.39	6714.6	
693.58	5928.9	
693.76	5435.3	
693.94	7920.2	
694.13	7705.1	
694.31	5398.4	
694.5	6409.5	
694.68	6486.6	
694.86	6884.6	
695.05	5708.4	
695.23	5828.5	
695.42	7250.5	
695.6	9602.9	
695.78	6186.9	
695.97	5293.3	
696.15	7153.6	
696.34	6685.3	
696.52	5113.1	
696.7	5999.2	
696.89	7025.2	
697.07	6439.5	
697.25	5797.1	
697.44	7425.3	
697.62	6951.5	
697.81	7325.6	
697.99	5589.6	
698.17	6072.9	
698.36	6281.1	
698.54	6950.8	
698.72	5870.2	
698.91	4873.5	
699.09	6554.2	
699.28	6447.7	
699.46	5539.8	
699.64	5347.9	
699.83	6286.6	
700.01	7622.5	
700.19	6245.6	
700.38	4633.2	
700.56	7688.8	
700.74	6508.4	
700.93	5018.9	
701.11	5827.2	
701.29	7126.9	
701.48	8103.8	
701.66	5233.9	
701.84	5305.6	
702.03	6572.6	
702.21	7176.8	
702.39	4764.3	
702.58	5418.9	
702.76	6966.5	
702.94	7153.6	
703.13	4851	
703.31	7201.3	
703.49	6293.4	
703.68	7156.3	
703.86	5013.4	
704.04	6032	
704.23	6841.6	
704.41	7208.8	
704.59	5204.6	
704.78	6351.4	
704.96	7871.7	
705.14	7259.4	
705.33	4940.4	
705.51	5816.9	
705.69	6588.3	
705.87	7468.9	
706.06	6066.8	
706.24	5001.1	
706.42	6906.4	
706.61	7217	
706.79	6123.4	
706.97	4924.7	
707.16	6389	
707.34	6935.1	
707.52	6025.8	
707.7	5122	
707.89	6479.1	
708.07	6175.3	
708.25	6083.1	
708.44	6176	
708.62	6404	
708.8	7637.6	
708.98	6298.9	
709.17	5233.9	
709.35	6920.1	
709.53	6949.4	
709.72	4937.7	
709.9	5086.5	
710.08	7116	
710.26	7121.5	
710.45	6563.7	
710.63	5242.1	
710.81	6847	
710.99	6804	
711.18	5890.6	
711.36	5348.6	
711.54	6670.9	
711.72	7300.3	
711.91	5476.3	
712.09	4787.5	
712.27	6791.7	
712.45	7429.3	
712.64	5782.8	
712.82	4724	
713	6186.2	
713.18	6410.1	
713.37	4824.3	
713.55	6043.6	
713.73	7230.7	
713.91	5798.5	
714.1	5256.5	
714.28	4629.8	
714.46	6978.1	
714.64	6092.7	
714.83	4199.7	
715.01	5067.4	
715.19	6214.2	
715.37	5656.5	
715.55	4683.7	
715.74	5031.2	
715.92	7190.4	
716.1	5177.9	
716.28	6212.9	
716.47	5264	
716.65	5933.6	
716.83	6019	
717.01	5005.2	
717.19	5205.9	
717.38	8144.1	
717.56	5705	
717.74	5414.8	
717.92	4481.6	
718.1	6998.6	
718.29	6078.4	
718.47	4073.4	
718.65	4776.5	
718.83	6813.6	
719.01	6625.9	
719.2	3930.1	
719.38	5047.6	
719.56	6349.4	
719.74	7927	
719.92	4520.5	
720.11	5666	
720.29	6380.1	
720.47	5541.1	
720.65	4122.6	
720.83	5051.7	
721.02	5962.3	
721.2	5699.5	
721.38	5150.6	
721.56	4411.3	
721.74	5256.5	
721.92	5417.6	
722.11	5597.1	
722.29	5272.8	
722.47	6721.4	
722.65	5896.8	
722.83	4397.7	
723.01	5335	
723.2	5969.8	
723.38	6231.3	
723.56	3789.4	
723.74	5015.5	
723.92	5482.4	
724.1	6623.1	
724.29	4286.4	
724.47	5596.4	
724.65	5501.5	
724.83	5440.8	
725.01	4234.5	
725.19	5172.5	
725.37	5482.4	
725.56	5573.9	
725.74	4065.2	
725.92	4317.8	
726.1	5393	
726.28	5684.5	
726.46	4792.2	
726.64	4495.3	
726.83	5627.1	
727.01	5931.6	
727.19	4038.6	
727.37	4936.3	
727.55	5835.3	
727.73	6359.6	
727.91	4051.6	
728.09	3911.6	
728.28	6417.7	
728.46	6993.8	
728.64	5037.3	
728.82	4968.4	
729	7532.4	
729.18	6660.7	
729.36	4134.8	
729.54	6491.4	
729.72	7712	
729.91	5963	
730.09	6120	
730.27	4801.8	
730.45	5916.6	
730.63	6531	
730.81	5447.6	
730.99	4465.3	
731.17	7056.6	
731.35	5571.2	
731.53	5033.2	
731.71	4596.3	
731.9	6769.9	
732.08	6917.4	
732.26	4898.7	
732.44	4552.6	
732.62	6994.5	
732.8	6511.2	
732.98	5285.8	
733.16	4297.3	
733.34	6506.4	
733.52	5255.1	
733.7	4846.2	
733.88	5166.3	
734.07	6335.7	
734.25	6050.4	
734.43	4300.7	
734.61	5958.9	
734.79	7574.1	
734.97	5876.3	
735.15	4472.1	
735.33	4840	
735.51	6320	
735.69	5959.6	
735.87	5950	
736.05	5074.9	
736.23	6183.5	
736.41	5868.1	
736.59	4858.5	
736.77	4990.9	
736.95	6583.5	
737.13	6072.9	
737.32	4541	
737.5	4671.4	
737.68	7217	
737.86	5952.8	
738.04	4287.1	
738.22	6164.4	
738.4	5772.5	
738.58	6066.8	
738.76	4967.7	
738.94	3918.4	
739.12	5879.7	
739.3	5735	
739.48	5526.1	
739.66	5294.7	
739.84	6161	
740.02	6168.5	
740.2	3966.9	
740.38	4371	
740.56	6533.7	
740.74	5404.6	
740.92	5016.2	
741.1	4953.4	
741.28	5953.4	
741.46	5825.8	
741.64	4563.6	
741.82	5104.2	
742	6001.2	
742.18	6051.7	
742.36	4799.8	
742.54	4360.8	
742.72	6535.1	
742.9	5292	
743.08	5195	
743.26	3943.7	
743.44	6703.7	
743.62	6667.5	
743.8	5403.9	
743.98	4432.5	
744.16	6333.7	
744.34	6024.4	
744.52	5292	
744.7	5152.7	
744.88	6424.5	
745.06	5953.4	
745.24	5336.3	
745.42	5461.9	
745.6	6563.1	
745.78	6303	
745.96	4166.9	
746.14	4500.8	
746.32	7354.9	
746.5	6625.2	
746.68	5047.6	
746.86	4521.2	
747.03	7053.9	
747.21	5352	
747.39	5074.9	
747.57	4545.8	
747.75	6219.7	
747.93	6604	
748.11	4571.1	
748.29	4505.5	
748.47	7793.9	
748.65	5939.1	
748.83	5305.6	
749.01	4969.1	
749.19	6436.1	
749.37	5600.5	
749.55	4893.3	
749.73	4924	
749.91	6124.8	
750.09	5840.1	
750.26	5017.5	
750.44	4455.7	
750.62	6145.3	
750.8	6078.4	
750.98	4224.3	
751.16	4627	
751.34	6201.9	
751.52	5496.1	
751.7	5440.1	
751.88	4313.7	
752.06	6726.9	
752.24	6503.7	
752.42	4186.7	
752.59	4541.7	
752.77	6073.6	
752.95	7430.7	
753.13	5334.3	
753.31	4683	
753.49	5779.4	
753.67	6253.1	
753.85	5041.4	
754.03	4621.6	
754.21	6537.1	
754.38	6957.6	
754.56	4733.5	
754.74	3787.4	
754.92	5762.3	
755.1	6541.9	
755.28	3827	
755.46	3846.1	
755.64	7226.6	
755.82	7409.6	
755.99	4175.8	
756.17	4346.5	
756.35	4874.2	
756.53	6436.8	
756.71	3188	
756.89	4164.2	
757.07	6053.1	
757.25	5072.1	
757.42	4699.4	
757.6	5556.8	
757.78	6167.1	
757.96	5125.4	
758.14	4358.8	
758.32	3871.3	
758.5	4650.9	
758.67	5429.2	
758.85	4173.1	
759.03	4307.6	
759.21	5662	
759.39	5106.3	
759.57	3788.1	
759.75	4938.3	
759.92	6343.2	
760.1	5516.5	
760.28	5354.8	
760.46	5516.5	
760.64	5369.8	
760.82	5118.6	
760.99	5113.1	
761.17	4308.9	
761.35	6195.1	
761.53	5197.1	
761.71	4455	
761.89	5126.7	
762.06	6042.2	
762.24	5641.5	
762.42	4455	
762.6	4284.4	
762.78	5603.2	
762.96	6229.9	
763.13	4910.3	
763.31	4545.1	
763.49	6458.6	
763.67	5544.5	
763.85	5407.3	
764.02	6081.8	
764.2	6711.2	
764.38	5918.6	
764.56	4461.8	
764.74	5340.4	
764.91	6866.2	
765.09	5748.6	
765.27	4110.3	
765.45	3906.2	
765.63	6874.3	
765.8	6727.6	
765.98	3669.3	
766.16	4007.2	
766.34	5259.2	
766.52	5053	
766.69	5003.2	
766.87	3856.3	
767.05	5649.7	
767.23	6378.1	
767.41	4227	
767.58	4466.6	
767.76	6270.2	
767.94	6357.6	
768.12	4280.3	
768.29	5147.2	
768.47	5780.1	
768.65	6507.1	
768.83	3953.9	
769	5074.2	
769.18	5350	
769.36	6109.1	
769.54	5100.8	
769.72	3992.2	
769.89	6334.4	
770.07	6488.6	
770.25	4298.7	
770.43	5603.2	
770.6	7182.2	
770.78	7516	
770.96	4410.6	
771.14	5093.3	
771.31	6208.1	
771.49	5627.8	
771.67	3573	
771.85	3892.5	
772.02	4807.9	
772.2	5608.7	
772.38	4719.9	
772.55	4182	
772.73	5855.1	
772.91	5674.2	
773.09	4452.3	
773.26	4680.3	
773.44	5821.7	
773.62	5554.1	
773.8	4065.2	
773.97	3744.4	
774.15	5947.3	
774.33	5553.4	
774.5	3906.2	
774.68	4274.1	
774.86	6096.8	
775.04	5532.9	
775.21	4027	
775.39	3999.7	
775.57	5850.4	
775.74	6294.1	
775.92	3765.5	
776.1	3744.4	
776.27	5752.7	
776.45	7088	
776.63	4017.4	
776.81	3519.8	
776.98	5465.3	
777.16	6537.1	
777.34	4238.6	
777.51	4156.7	
777.69	5369.1	
777.87	5135.6	
778.04	4242.7	
778.22	4799.8	
778.4	5274.2	
778.57	5963.7	
778.75	3455.6	
778.93	3728.7	
779.1	5036.6	
779.28	4899.4	
779.46	3453.6	
779.64	3986.7	
779.81	6016.2	
779.99	7001.3	
780.17	4806.6	
780.34	4872.1	
780.52	5494	
780.69	5717.2	
780.87	4339.6	
781.05	3835.8	
781.22	5541.8	
781.4	5645.6	
781.58	4086.4	
781.75	3170.3	
781.93	5591	
782.11	5015.5	
782.28	4983.4	
782.46	4001	
782.64	4871.4	
782.81	5828.5	
782.99	4147.1	
783.17	4032.5	
783.34	5700.9	
783.52	4904.2	
783.69	4299.4	
783.87	5101.5	
784.05	4896.7	
784.22	5001.1	
784.4	5156.1	
784.58	4468.7	
784.75	5969.8	
784.93	5043.5	
785.1	4020.8	
785.28	4699.4	
785.46	5724.8	
785.63	4974.5	
785.81	3952.6	
785.99	3825.6	
786.16	5140.4	
786.34	5562.3	
786.51	3876.8	
786.69	4287.1	
786.87	4745.8	
787.04	5367	
787.22	3716.4	
787.39	4759.5	
787.57	4970.4	
787.75	6212.2	
787.92	4870.8	
788.1	4838	
788.27	5087.2	
788.45	4807.9	
788.63	4545.8	
788.8	3201.7	
788.98	5503.6	
789.15	4657.8	
789.33	3427.6	
789.5	4050.9	
789.68	6032.6	
789.86	6038.1	
790.03	4465.3	
790.21	3924.6	
790.38	5907.7	
790.56	5159.5	
790.73	3770.3	
790.91	3803.1	
791.09	4989.5	
791.26	5827.8	
791.44	4036.5	
791.61	3446.7	
791.79	5053	
791.96	5042.8	
792.14	3581.2	
792.32	3148.4	
792.49	5050.3	
792.67	5142.4	
792.84	3614.7	
793.02	3446.7	
793.19	5430.5	
793.37	6233.3	
793.54	3155.9	
793.72	3463.8	
793.89	6376	
794.07	4997	
794.25	4188.8	
794.42	3209.2	
794.6	6134.3	
794.77	5678.3	
794.95	4401.8	
795.12	3842.7	
795.3	4980	
795.47	5659.2	
795.65	4212	
795.82	4108.2	
796	4865.3	
796.17	6821.8	
796.35	3877.5	
796.52	4695.3	
796.7	5556.1	
796.87	5653.1	
797.05	4880.3	
797.22	4803.2	
797.4	5666	
797.57	6696.9	
797.75	4113.7	
797.92	3832.4	
798.1	5999.9	
798.27	5034.6	
798.45	3245.3	
798.62	3546.4	
798.8	5332.9	
798.97	5848.3	
799.15	4349.9	
799.32	4083.6	
799.5	4595.6	
799.67	5360.9	
799.85	4445.5	
800.02	3199.6	
800.2	5035.3	
800.37	5398.4	
800.55	4601.1	
800.72	3896.6	
800.9	5746.6	
801.07	6239.5	
801.25	5219.6	
801.42	4227	
801.6	5799.8	
801.77	5584.1	
801.95	3938.2	
802.12	3689.1	
802.29	5556.8	
802.47	5597.8	
802.64	4242	
802.82	3160	
802.99	4961.5	
803.17	6032	
803.34	4121.2	
803.52	3639.9	
803.69	6652.5	
803.87	4786.1	
804.04	4029	
804.21	4171.7	
804.39	6137.8	
804.56	5232.6	
804.74	3414.6	
804.91	4240	
805.09	5031.2	
805.26	5098.1	
805.44	3487.7	
805.61	3831.1	
805.78	5693.4	
805.96	5857.9	
806.13	4250.2	
806.31	4535.6	
806.48	4571.7	
806.66	5069.4	
806.83	4185.4	
807	4070	
807.18	4982	
807.35	5445.5	
807.53	4085.7	
807.7	3244	
807.87	6221.7	
808.05	5116.5	
808.22	4478.9	
808.4	3213.9	
808.57	5083.7	
808.74	4657.1	
808.92	3762.8	
809.09	4841.4	
809.27	4890.5	
809.44	5578.7	
809.61	3306.8	
809.79	3708.2	
809.96	6197.8	
810.14	5787.6	
810.31	3174.4	
810.48	3947.1	
810.66	5131.5	
810.83	5967.8	
811.01	3695.9	
811.18	4147.8	
811.35	5901.6	
811.53	4488.5	
811.7	4608.6	
811.87	4267.3	
812.05	5046.2	
812.22	5002.5	
812.39	3546.4	
812.57	3531.4	
812.74	5099.4	
812.92	6715.3	
813.09	3986.7	
813.26	4349.2	
813.44	6486.6	
813.61	4885.8	
813.78	3267.2	
813.96	4481	
814.13	5085.1	
814.3	4761.5	
814.48	4751.3	
814.65	3919.1	
814.82	6397.9	
815	4852.3	
815.17	4029.7	
815.34	4980	
815.52	4984.1	
815.69	5005.9	
815.87	4032.5	
816.04	3457	
816.21	5129.5	
816.38	4433.2	
816.56	3918.4	
816.73	3629.7	
816.9	6370.5	
817.08	5862	
817.25	3623.5	
817.42	4640.7	
817.6	4655.7	
817.77	5083.7	
817.94	4126	
818.12	3566.2	
818.29	4782	
818.46	7535.8	
818.64	3781.9	
818.81	3563.5	
818.98	4702.8	
819.16	6911.9	
819.33	4357.4	
819.5	4083	
819.67	5450.3	
819.85	6049	
820.02	3984	
820.19	4280.9	
820.37	5274.2	
820.54	4864.6	
820.71	4143.7	
820.88	5126.1	
821.06	5302.2	
821.23	4861.9	
821.4	4195.6	
821.58	4043.4	
821.75	5777.3	
821.92	5165	
822.09	3338.2	
822.27	3583.9	
822.44	5094	
822.61	4977.9	
822.79	3343.7	
822.96	6460.7	
823.13	5523.4	
823.3	4771.1	
823.48	3923.9	
823.65	3495.2	
823.82	5751.4	
823.99	4613.4	
824.17	4846.9	
824.34	3572.3	
824.51	6690	
824.68	5147.2	
824.86	3689.8	
825.03	4118.5	
825.2	5042.1	
825.37	6218.3	
825.55	3606.5	
825.72	4083	
825.89	6825.2	
826.06	6270.9	
826.24	3957.4	
826.41	3971.7	
826.58	6191.7	
826.75	5334.3	
826.92	3111.5	
827.1	3454.2	
827.27	8406.2	
827.44	6677.7	
827.61	3769.6	
827.79	4569.7	
827.96	4759.5	
828.13	5214.8	
828.3	3909.6	
828.47	3338.2	
828.65	5275.6	
828.82	5253.7	
828.99	5150	
829.16	4478.9	
829.34	5645.6	
829.51	5482.4	
829.68	4112.3	
829.85	4217.5	
830.02	5989.6	
830.2	5670.8	
830.37	3188.7	
830.54	4932.9	
830.71	6548	
830.88	5031.9	
831.05	3203	
831.23	3746.4	
831.4	6199.9	
831.57	6939.2	
831.74	3822.9	
831.91	3334.1	
832.09	5322.7	
832.26	5662	
832.43	3890.5	
832.6	4384.7	
832.77	5300.8	
832.94	6040.1	
833.12	3107.5	
833.29	3843.4	
833.46	4920.6	
833.63	7210.9	
833.8	4262.5	
833.97	3938.9	
834.15	5709.7	
834.32	5464.7	
834.49	4091.2	
834.66	4230.4	
834.83	5941.8	
835	4823.6	
835.17	3765.5	
835.35	3846.1	
835.52	5625.8	
835.69	5452.4	
835.86	3991.5	
836.03	3278.8	
836.2	5600.5	
836.37	5274.2	
836.55	3903.4	
836.72	3670	
836.89	5298.8	
837.06	5644.9	
837.23	4000.4	
837.4	4370.4	
837.57	6467.5	
837.75	7145.4	
837.92	3566.2	
838.09	3801	
838.26	5228.5	
838.43	5997.8	
838.6	4141	
838.77	3644.7	
838.94	6756.9	
839.11	6556.9	
839.29	3883.6	
839.46	3132.7	
839.63	5609.4	
839.8	5391.6	
839.97	3826.3	
840.14	3766.9	
840.31	5443.5	
840.48	5666	
840.65	3120.4	
840.82	3695.2	
841	5735	
841.17	5567.7	
841.34	3474.7	
841.51	3554.6	
841.68	5535	
841.85	5366.4	
842.02	3627	
842.19	3014.6	
842.36	5398.4	
842.53	5425.8	
842.7	3451.5	
842.87	4308.2	
843.05	7068.2	
843.22	5322	
843.39	3357.3	
843.56	3556.6	
843.73	5055.1	
843.9	5722.7	
844.07	5692.7	
844.24	4741	
844.41	8413.1	
844.58	4914.4	
844.75	3366.2	
844.92	3677.5	
845.09	5657.2	
845.26	5668.1	
845.43	3422.2	
845.6	3637.2	
845.77	5641.5	
845.94	5408	
846.12	3890.5	
846.29	4102.8	
846.46	5851.7	
846.63	5725.4	
846.8	3403	
846.97	4180.6	
847.14	6118	
847.31	5579.3	
847.48	3932.1	
847.65	4384.7	
847.82	5945.3	
847.99	5882.4	
848.16	4672.8	
848.33	4328.7	
848.5	5231.9	
848.67	6190.3	
848.84	3442.6	
849.01	3605.1	
849.18	5049.6	
849.35	4748.6	
849.52	4359.4	
849.69	3396.9	
849.86	5829.2	
850.03	6107	
850.2	3479.5	
850.37	4240	
850.54	6052.4	
850.71	5294	
850.88	4171	
851.05	3424.2	
851.22	5564.3	
851.39	6167.1	
851.56	3289.7	
851.73	3997	
851.9	4954	
852.07	5894.1	
852.24	3839.9	
852.41	3447.4	
852.58	5520.6	
852.75	5057.8	
852.92	3892.5	
853.09	3379.1	
853.26	5221.6	
853.43	6094.1	
853.6	3474.7	
853.77	2932.7	
853.94	6234.7	
854.11	5651	
854.28	5210.7	
854.44	3736.2	
854.61	6631.3	
854.78	5746.6	
854.95	3465.8	
855.12	4368.3	
855.29	4546.5	
855.46	6262.7	
855.63	3478.8	
855.8	4799.1	
855.97	5192.3	
856.14	5989.6	
856.31	4967	
856.48	3797.6	
856.65	5202.5	
856.82	4933.6	
856.99	3325.2	
857.16	3736.9	
857.33	6927.6	
857.49	5360.2	
857.66	3768.3	
857.83	4039.3	
858	5282.4	
858.17	5456.5	
858.34	3263.1	
858.51	3443.3	
858.68	6350.1	
858.85	6426.5	
859.02	4054.3	
859.19	4315.1	
859.36	4917.9	
859.52	5033.2	
859.69	3468.6	
859.86	4122.6	
860.03	5033.2	
860.2	6267.5	
860.37	3125.9	
860.54	3478.1	
860.71	5896.8	
860.88	6262.7	
861.05	3958	
861.21	4367	
861.38	6358.9	
861.55	4810.7	
861.72	3186	
861.89	3923.9	
862.06	5963.7	
862.23	6412.2	
862.4	3338.2	
862.56	3603.1	
862.73	5752.7	
862.9	5506.3	
863.07	4067.9	
863.24	3137.5	
863.41	4806.6	
863.58	5023	
863.75	3575.8	
863.91	4086.4	
864.08	6285.9	
864.25	5836	
864.42	4375.1	
864.59	4885.1	
864.76	6647	
864.93	4958.8	
865.09	3413.3	
865.26	3702.7	
865.43	6180.8	
865.6	6549.4	
865.77	3087	
865.94	3423.5	
866.1	6183.5	
866.27	5874.3	
866.44	5213.4	
866.61	3264.5	
866.78	5388.9	
866.95	5746.6	
867.11	3326.6	
867.28	3052.8	
867.45	5958.2	
867.62	4972.5	
867.79	3969	
867.96	3429.7	
868.12	4937	
868.29	5909.8	
868.46	3435.1	
868.63	4624.3	
868.8	6067.4	
868.97	5864	
869.13	3611.3	
869.3	3642.7	
869.47	5713.2	
869.64	5977.3	
869.81	3469.3	
869.97	3543	
870.14	5645.6	
870.31	6358.3	
870.48	3378.5	
870.65	4418.8	
870.81	5287.2	
870.98	5242.1	
871.15	3926.6	
871.32	3575.1	
871.48	5709.7	
871.65	6384.9	
871.82	3504.1	
871.99	3815.4	
872.16	6843.6	
872.32	6164.4	
872.49	3456.3	
872.66	3509.5	
872.83	5883.1	
872.99	5163.6	
873.16	3993.5	
873.33	3414.6	
873.5	5469.4	
873.67	5542.5	
873.83	3652.2	
874	4674.1	
874.17	5653.1	
874.34	6757.6	
874.5	4502.1	
874.67	4375.8	
874.84	6322.8	
875.01	4954	
875.17	4873.5	
875.34	3454.9	
875.51	5547.3	
875.68	6738.5	
875.84	4209.9	
876.01	5132.9	
876.18	5766.4	
876.34	5831.9	
876.51	3476.8	
876.68	3454.2	
876.85	5330.2	
877.01	6213.5	
877.18	4982.7	
877.35	3463.8	
877.52	5458.5	
877.68	4861.2	
877.85	3353.2	
878.02	3394.2	
878.18	5427.8	
878.35	5171.1	
878.52	2803.7	
878.69	3889.8	
878.85	5841.5	
879.02	5795.8	
879.19	4984.1	
879.35	3759.4	
879.52	5812.1	
879.69	6103.6	
879.86	2985.3	
880.02	3894.6	
880.19	5406.6	
880.36	6617.7	
880.52	3998.3	
880.69	4158.7	
880.86	5877.7	
881.02	5980.8	
881.19	3852.9	
881.36	3766.9	
881.52	5833.3	
881.69	5156.1	
881.86	3780.6	
882.02	3653.6	
882.19	6057.9	
882.36	7234.8	
882.52	3580.5	
882.69	4921.3	
882.86	5623	
883.02	5543.2	
883.19	4214.7	
883.36	3966.9	
883.52	5957.5	
883.69	6784.2	
883.86	3566.2	
884.02	3137.5	
884.19	5952.8	
884.36	5460.6	
884.52	3902.7	
884.69	3678.2	
884.86	5160.2	
885.02	6522.8	
885.19	3936.2	
885.36	3989.4	
885.52	5480.4	
885.69	5650.3	
885.86	5101.5	
886.02	4482.3	
886.19	5870.8	
886.35	5394.3	
886.52	3875.4	
886.69	4887.1	
886.85	5039.4	
887.02	6297.5	
887.19	6297.5	
887.35	6297.5	
887.52	6297.5	
887.68	6297.5	
887.85	6297.5	
888.02	6297.5	
888.18	6297.5	
888.35	6297.5	
888.51	6297.5	
888.68	6297.5	
888.85	6297.5	
889.01	6297.5	
889.18	6297.5	
889.35	6297.5	
889.51	6297.5	
889.68	6297.5	
889.84	6297.5	
890.01	6297.5	
890.17	6297.5	
890.34	6297.5	
890.51	6297.5	
890.67	6297.5	
890.84	6297.5	
891	6297.5	
891.17	6297.5	
891.34	6297.5	
891.5	6297.5	
891.67	6297.5	
891.83	6297.5	
892	6297.5	
892.16	6297.5	
892.33	6297.5	
892.5	6297.5	
892.66	6297.5	
892.83	6297.5	
892.99	6297.5	
893.16	6297.5	
893.32	6297.5	
893.49	6297.5	
893.65	6297.5	
893.82	6297.5	
893.99	6297.5	
894.15	6297.5	
894.32	6297.5	
894.48	6297.5	
894.65	6297.5	
894.81	6297.5	
894.98	6297.5	
895.14	6297.5	
895.31	6297.5	
895.47	6297.5	
895.64	6297.5	
895.81	6297.5	
895.97	6297.5	
896.14	6297.5	
896.3	6297.5	
896.47	6297.5	
896.63	6297.5	
896.8	6297.5	
896.96	6297.5	
897.13	6297.5	
897.29	6297.5	
897.46	6297.5	
897.62	6297.5	
897.79	6297.5	
897.95	6297.5	
898.12	6297.5	
898.28	6297.5	
898.45	6297.5	
898.61	6297.5	
898.78	6297.5	
898.94	6297.5	
899.11	6297.5	
899.27	6297.5	
899.44	6297.5	
899.6	6297.5	
899.77	6297.5	
899.93	6297.5	
900.1	6297.5	
900.26	6297.5	
900.43	6297.5	
900.59	6297.5	
900.76	6297.5	
900.92	6297.5	
901.09	6297.5	
901.25	6297.5	
901.42	6297.5	
901.58	6297.5	
901.75	6297.5	
901.91	6297.5	
902.07	6297.5	
902.24	6297.5	
902.4	6297.5	
902.57	6297.5	
902.73	6297.5	
902.9	6297.5	
903.06	6297.5	
903.23	6297.5	
903.39	6297.5	
903.56	6297.5	
903.72	6297.5	
903.88	6297.5	
904.05	6297.5	
904.21	6297.5	
904.38	6297.5	
904.54	6297.5	
904.71	6297.5	
904.87	6297.5	
905.03	6297.5	
905.2	6297.5	
905.36	6297.5	
905.53	6297.5	
905.69	6297.5	
905.86	6297.5	
906.02	6297.5	
906.18	6297.5	
906.35	6297.5	
906.51	6297.5	
906.68	6297.5	
906.84	6297.5	
907.01	6297.5	
907.17	6297.5	
907.33	6297.5	
907.5	6297.5	
907.66	6297.5	
907.83	6297.5	
907.99	6297.5	
908.15	6297.5	
908.32	6297.5	
908.48	6297.5	
908.65	6297.5	
908.81	6297.5	
908.97	6297.5	
909.14	6297.5	
909.3	6297.5	
909.47	6297.5	
909.63	6297.5	
909.79	6297.5	
909.96	6297.5	
910.12	6297.5	
910.28	6297.5	
910.45	6297.5	
910.61	6297.5	
910.78	6297.5	
910.94	6297.5	
911.1	6297.5	
911.27	6297.5	
911.43	6297.5	
911.59	6297.5	
911.76	6297.5	
911.92	6297.5	
912.08	6297.5	
912.25	6297.5	
912.41	6297.5	
912.57	6297.5	
912.74	6297.5	
912.9	6297.5	
913.07	6297.5	
913.23	6297.5	
913.39	6297.5	
913.56	6297.5	
913.72	6297.5	
913.88	6297.5	
914.05	6297.5	
914.21	6297.5	
914.37	6297.5	
914.54	6297.5	
914.7	6297.5	
914.86	6297.5	
915.03	6297.5	
915.19	6297.5	
