Wavelength	Intensities	
nm	a.u.	
179.22	1710.1	
179.44	1710.1	
179.65	1710.1	
179.86	1710.1	
180.08	1713.5	
180.29	3950.5	
180.51	3086.3	
180.72	5029.1	
180.94	5634	
181.15	2777.7	
181.37	2747	
181.58	4898.7	
181.79	5068.7	
182.01	2908.1	
182.22	3065.8	
182.44	5060.5	
182.65	4384.7	
182.87	3735.5	
183.08	3336.8	
183.29	5341.8	
183.51	4456.4	
183.72	3083.6	
183.94	4268.6	
184.15	4839.4	
184.37	4716.5	
184.58	2749.1	
184.79	3571	
185.01	4514.4	
185.22	5091.3	
185.44	3785.3	
185.65	3298.6	
185.86	4787.5	
186.08	4445.5	
186.29	2728.6	
186.51	2851.5	
186.72	4536.3	
186.94	5233.2	
187.15	3261.7	
187.36	3276.1	
187.58	6556.9	
187.79	4876.2	
188.01	3428.3	
188.22	5135.6	
188.43	5757.5	
188.65	5036.6	
188.86	2860.3	
189.08	3330.7	
189.29	4606.6	
189.5	4575.2	
189.72	3071.3	
189.93	3244.7	
190.15	5222.3	
190.36	6045.6	
190.57	3369.6	
190.79	3264.5	
191	5266	
191.22	5242.8	
191.43	3371	
191.64	2925.2	
191.86	5474.2	
192.07	5217.5	
192.29	2996.2	
192.5	3063.8	
192.71	5246.2	
192.93	4619.5	
193.14	3082.2	
193.35	3190.7	
193.57	4602.5	
193.78	5168.4	
194	2547	
194.21	3071.3	
194.42	4457.1	
194.64	4813.4	
194.85	3316.3	
195.07	3852.9	
195.28	4758.1	
195.49	4273.4	
195.71	4070	
195.92	2902.7	
196.13	5028.4	
196.35	5022.3	
196.56	4254.3	
196.78	3343	
196.99	6027.2	
197.2	5683.8	
197.42	3717.1	
197.63	3355.9	
197.84	4362.2	
198.06	4990.2	
198.27	3102	
198.48	4043.4	
198.7	4646.2	
198.91	4797	
199.13	3337.5	
199.34	3414	
199.55	5226.4	
199.77	4223.6	
199.98	3027.6	
200.19	3371	
200.41	4747.2	
200.62	4537.6	
200.83	3453.6	
201.05	3750.5	
201.26	4710.3	
201.47	4528.7	
201.69	3063.1	
201.9	2930.6	
202.11	4790.9	
202.33	5564.3	
202.54	3194.8	
202.76	3528	
202.97	4841.4	
203.18	4922.6	
203.4	3484.3	
203.61	3484.3	
203.82	4879.6	
204.04	4575.8	
204.25	3433.8	
204.46	3304.7	
204.68	4772.4	
204.89	4946.5	
205.1	3304.1	
205.32	2924.5	
205.53	5091.3	
205.74	5227.8	
205.96	2538.1	
206.17	3431.7	
206.38	5091.9	
206.6	5233.2	
206.81	3888.4	
207.02	3133.4	
207.24	4962.9	
207.45	5315.2	
207.66	3216	
207.88	2844.6	
208.09	4937	
208.3	4810.7	
208.52	3020.1	
208.73	3273.3	
208.94	4794.3	
209.15	5305.6	
209.37	3270.6	
209.58	3336.1	
209.79	5234.6	
210.01	4661.2	
210.22	2648	
210.43	2788	
210.65	4780.6	
210.86	5140.4	
211.07	3216	
211.29	2984.6	
211.5	5059.2	
211.71	4776.5	
211.93	2973.7	
212.14	2970.2	
212.35	4747.2	
212.56	4901.5	
212.78	3349.1	
212.99	2823.5	
213.2	5505.6	
213.42	4662.5	
213.63	3076.7	
213.84	3278.8	
214.06	4442.7	
214.27	4423.6	
214.48	3211.9	
214.69	3436.5	
214.91	5347.2	
215.12	5391.6	
215.33	3429.7	
215.55	3613.3	
215.76	5784.1	
215.97	5070.1	
216.18	3326.6	
216.4	3270.6	
216.61	4528.1	
216.82	5198.4	
217.04	3028.9	
217.25	3118.4	
217.46	5256.5	
217.67	5128.8	
217.89	2717	
218.1	2818.7	
218.31	4848.2	
218.53	4942.4	
218.74	3200.3	
218.95	3053.5	
219.16	4840	
219.38	5502.9	
219.59	3022.8	
219.8	3579.8	
220.01	5958.9	
220.23	4831.8	
220.44	3877.5	
220.65	2966.8	
220.87	4839.4	
221.08	5262.6	
221.29	2804.4	
221.5	3545	
221.72	6219	
221.93	4541.7	
222.14	3379.1	
222.35	3927.3	
222.57	4775.2	
222.78	5103.5	
222.99	3245.3	
223.2	3445.4	
223.42	5029.8	
223.63	5076.9	
223.84	2566.8	
224.05	2648	
224.27	5851.7	
224.48	5526.8	
224.69	3901.4	
224.9	3398.9	
225.12	4946.5	
225.33	4737	
225.54	2731.3	
225.75	3068.5	
225.97	4495.3	
226.18	4739.7	
226.39	3241.3	
226.6	3078.1	
226.82	4666.6	
227.03	4478.9	
227.24	3349.8	
227.45	2841.2	
227.67	5115.8	
227.88	5463.3	
228.09	3745.1	
228.3	3688.4	
228.52	5091.3	
228.73	4747.9	
228.94	3152.5	
229.15	2858.3	
229.36	4782	
229.58	4727.4	
229.79	3198.2	
230	3578.5	
230.21	5676.3	
230.43	4839.4	
230.64	3347.7	
230.85	3408.5	
231.06	5167.7	
231.28	5158.8	
231.49	2815.3	
231.7	3269.9	
231.91	5066.7	
232.12	4831.2	
232.34	2895.8	
232.55	3228.3	
232.76	5270.1	
232.97	4926.7	
233.18	3011.9	
233.4	3333.4	
233.61	4929.5	
233.82	4612	
234.03	3173	
234.25	3125.9	
234.46	6348.7	
234.67	4800.4	
234.88	3416.7	
235.09	3017.3	
235.31	4985.4	
235.52	4727.4	
235.73	3312.9	
235.94	2914.9	
236.15	4601.8	
236.37	5651.7	
236.58	2992.1	
236.79	3234.4	
237	5045.5	
237.21	4414.1	
237.43	3416.7	
237.64	2779.1	
237.85	7944.1	
238.06	4521.9	
238.27	3460.4	
238.48	2930	
238.7	5143.8	
238.91	4714.4	
239.12	3183.2	
239.33	3278.8	
239.54	4696	
239.76	4739	
239.97	3188	
240.18	3289	
240.39	5746.6	
240.6	4983.4	
240.82	3358	
241.03	2849.4	
241.24	4807.3	
241.45	5371.1	
241.66	2994.1	
241.87	3510.2	
242.09	5394.3	
242.3	5600.5	
242.51	3528.7	
242.72	3292.5	
242.93	5139.7	
243.14	4773.8	
243.36	3732.8	
243.57	3941	
243.78	5489.9	
243.99	5077.6	
244.2	3231.7	
244.41	3009.8	
244.63	4419.5	
244.84	5029.8	
245.05	3394.8	
245.26	3218	
245.47	5014.1	
245.68	5216.2	
245.9	4149.2	
246.11	3403.7	
246.32	4616.8	
246.53	5017.5	
246.74	5058.5	
246.95	2846	
247.16	4455	
247.38	4872.1	
247.59	2827.6	
247.8	3261	
248.01	4515.8	
248.22	4763.6	
248.43	2975	
248.64	3195.5	
248.86	4358.1	
249.07	4659.1	
249.28	2922.5	
249.49	3352.5	
249.7	5231.2	
249.91	5259.9	
250.12	2807.8	
250.34	2852.8	
250.55	4893.3	
250.76	4801.8	
250.97	3355.3	
251.18	3390.1	
251.39	5277.6	
251.6	4937	
251.81	3388	
252.03	3378.5	
252.24	4634.6	
252.45	5133.6	
252.66	2924.5	
252.87	3547.1	
253.08	4816.8	
253.29	6002.6	
253.5	2892.4	
253.72	3850.2	
253.93	4704.2	
254.14	5601.2	
254.35	3097.9	
254.56	3147	
254.77	5020.3	
254.98	4530.1	
255.19	3101.3	
255.41	3855.6	
255.62	4902.8	
255.83	5279.7	
256.04	3497.2	
256.25	3360	
256.46	5692.7	
256.67	4589.5	
256.88	3324.5	
257.09	3678.2	
257.31	4508.9	
257.52	4513	
257.73	4192.2	
257.94	3088.3	
258.15	4725.3	
258.36	4819.6	
258.57	3800.3	
258.78	2563.4	
258.99	5200.5	
259.2	4644.1	
259.41	3103.4	
259.63	3229	
259.84	5457.2	
260.05	5667.4	
260.26	4039.3	
260.47	3078.1	
260.68	5270.8	
260.89	4735.6	
261.1	3700.7	
261.31	2974.3	
261.52	5354.1	
261.73	5545.9	
261.95	3966.2	
262.16	3473.4	
262.37	5339.1	
262.58	5390.9	
262.79	3951.2	
263	3203	
263.21	4887.1	
263.42	4661.9	
263.63	3379.1	
263.84	3147.7	
264.05	5223.7	
264.26	5436.7	
264.47	3766.9	
264.69	3365.5	
264.9	5382.7	
265.11	4976.6	
265.32	3040.6	
265.53	3032.4	
265.74	4949.3	
265.95	4330.1	
266.16	3315.7	
266.37	3605.8	
266.58	4903.5	
266.79	4631.1	
267	3115	
267.21	2951.1	
267.42	4430.4	
267.63	4804.5	
267.84	3187.3	
268.06	2820.1	
268.27	5181.4	
268.48	5347.2	
268.69	3155.2	
268.9	3694.5	
269.11	5312.4	
269.32	4378.6	
269.53	3231.7	
269.74	3028.3	
269.95	5012.7	
270.16	4347.8	
270.37	3257	
270.58	3675.4	
270.79	4691.2	
271	5167.7	
271.21	3427.6	
271.42	3306.1	
271.63	4970.4	
271.84	4437.3	
272.05	2680.8	
272.26	2985.9	
272.47	4829.8	
272.68	4918.5	
272.89	3155.9	
273.11	3549.1	
273.32	4622.3	
273.53	5487.9	
273.74	3493.2	
273.95	3364.1	
274.16	5182.7	
274.37	4795	
274.58	3551.9	
274.79	2908.1	
275	4960.9	
275.21	5267.4	
275.42	4197.7	
275.63	3634.5	
275.84	5075.5	
276.05	6124.1	
276.26	3373.7	
276.47	3237.8	
276.68	4775.2	
276.89	5555.5	
277.1	3579.2	
277.31	2892.4	
277.52	5010	
277.73	5214.8	
277.94	2846.7	
278.15	3145.7	
278.36	4958.1	
278.57	4568.3	
278.78	3121.8	
278.99	3505.4	
279.2	4598.4	
279.41	4453	
279.62	4028.4	
279.83	2919	
280.04	5720.7	
280.25	4467.3	
280.46	4004.5	
280.67	3258.3	
280.88	4498.7	
281.09	5337.7	
281.3	3339.6	
281.51	4184.7	
281.72	4592.9	
281.93	5102.9	
282.14	3057.6	
282.35	3303.4	
282.56	5251.7	
282.77	5124.7	
282.98	3160.7	
283.19	3779.2	
283.4	6094.1	
283.61	4760.8	
283.82	2957.3	
284.03	3930.7	
284.24	4968.4	
284.45	5225.7	
284.66	4006.5	
284.87	3766.2	
285.08	5251.7	
285.29	5367	
285.5	2847.4	
285.71	3158.7	
285.92	5212.8	
286.12	5792.3	
286.33	3993.5	
286.54	3207.1	
286.75	5150.6	
286.96	4734.9	
287.17	2946.3	
287.38	3845.4	
287.59	4567.7	
287.8	4513.7	
288.01	3171.6	
288.22	3563.5	
288.43	5132.2	
288.64	4412	
288.85	3684.3	
289.06	3548.4	
289.27	5152.7	
289.48	5517.9	
289.69	3914.4	
289.9	3607.8	
290.11	5370.5	
290.32	4594.3	
290.53	3762.8	
290.74	3554.6	
290.94	5182.7	
291.15	5162.9	
291.36	3104.7	
291.57	3532.1	
291.78	4654.4	
291.99	4354.7	
292.2	2975	
292.41	3504.1	
292.62	5231.2	
292.83	5031.9	
293.04	4220.2	
293.25	2945.7	
293.46	4713.1	
293.67	5227.1	
293.88	3039.9	
294.09	2984.6	
294.29	4496.7	
294.5	4925.4	
294.71	3308.2	
294.92	3062.4	
295.13	4687.1	
295.34	5661.3	
295.55	2864.4	
295.76	2792.1	
295.97	5132.2	
296.18	5636.7	
296.39	2941.6	
296.6	3103.4	
296.81	4875.5	
297.01	5122.7	
297.22	3186.6	
297.43	3046	
297.64	4634.6	
297.85	4526.7	
298.06	2586.6	
298.27	2762.7	
298.48	4782	
298.69	4605.2	
298.9	3243.3	
299.11	2979.8	
299.31	4452.3	
299.52	4506.2	
299.73	3513.6	
299.94	3389.4	
300.15	4806.6	
300.36	4573.1	
300.57	3442.6	
300.78	3459.7	
300.99	4694.6	
301.2	4853.7	
301.4	3028.9	
301.61	3294.5	
301.82	5072.1	
302.03	5171.1	
302.24	3634.5	
302.45	2951.1	
302.66	5067.4	
302.87	5338.4	
303.08	3137.5	
303.29	4083.6	
303.49	4684.4	
303.7	4808.6	
303.91	2771.6	
304.12	3855.6	
304.33	4429.8	
304.54	4913.8	
304.75	3101.3	
304.96	2988	
305.16	5087.2	
305.37	5638.1	
305.58	2727.9	
305.79	2824.1	
306	5149.3	
306.21	4345.8	
306.42	3118.4	
306.63	4463.2	
306.83	4687.1	
307.04	5152	
307.25	3336.1	
307.46	3292.5	
307.67	4264.6	
307.88	5097.4	
308.09	3077.4	
308.29	3168.2	
308.5	4843.4	
308.71	5230.5	
308.92	3240.6	
309.13	2982.5	
309.34	4775.9	
309.55	4726	
309.75	3754.6	
309.96	3455.6	
310.17	5132.9	
310.38	4617.5	
310.59	3573	
310.8	2925.2	
311.01	4672.1	
311.21	4735.6	
311.42	2969.6	
311.63	3024.2	
311.84	4660.5	
312.05	4887.8	
312.26	3444.7	
312.46	3631	
312.67	4704.9	
312.88	4444.8	
313.09	2962	
313.3	2910.2	
313.51	5379.3	
313.71	5702.9	
313.92	3015.3	
314.13	3129.3	
314.34	5039.4	
314.55	4734.9	
314.76	3687.7	
314.96	3263.8	
315.17	4973.2	
315.38	5132.9	
315.59	3058.3	
315.8	2887.6	
316.01	5377.3	
316.21	5498.8	
316.42	2917	
316.63	3269.9	
316.84	4723.3	
317.05	5268.7	
317.26	3436.5	
317.46	3190.1	
317.67	4785.4	
317.88	5101.5	
318.09	3707.5	
318.3	2789.3	
318.5	4676.9	
318.71	4994.3	
318.92	4596.3	
319.13	3458.3	
319.34	5162.2	
319.54	5291.3	
319.75	2837.8	
319.96	2741.5	
320.17	5122.7	
320.38	5268.7	
320.58	2774.3	
320.79	3241.3	
321	5317.9	
321.21	5365	
321.42	3300.6	
321.62	2764.1	
321.83	4563.6	
322.04	4833.2	
322.25	3175	
322.46	2990.7	
322.66	4845.5	
322.87	5014.1	
323.08	3605.8	
323.29	2908.8	
323.5	5681.1	
323.7	4473.4	
323.91	3927.3	
324.12	3565.5	
324.33	4904.9	
324.53	5100.1	
324.74	3447.4	
324.95	3609.2	
325.16	4351.3	
325.37	4708.3	
325.57	3017.3	
325.78	3030.3	
325.99	4902.8	
326.2	4391.5	
326.4	4048.8	
326.61	2812.5	
326.82	4762.9	
327.03	4881	
327.24	4101.4	
327.44	3879.5	
327.65	5045.5	
327.86	4182.6	
328.07	3477.5	
328.27	2889	
328.48	5388.2	
328.69	4465.9	
328.9	4130.8	
329.1	3134.1	
329.31	4784.7	
329.52	5431.2	
329.73	3033	
329.93	3306.1	
330.14	4847.5	
330.35	5001.8	
330.56	4661.9	
330.76	3642.7	
330.97	4664.6	
331.18	4882.4	
331.39	3251.5	
331.59	2695.1	
331.8	5244.2	
332.01	5337.7	
332.22	3151.8	
332.42	3473.4	
332.63	4883	
332.84	4535.6	
333.05	3351.2	
333.25	3076	
333.46	4566.3	
333.67	4861.9	
333.88	3130	
334.08	3429.7	
334.29	6182.1	
334.5	5281.7	
334.7	2951.8	
334.91	4097.3	
335.12	4436.6	
335.33	5102.9	
335.53	3310.2	
335.74	4615.4	
335.95	4702.8	
336.16	4457.7	
336.36	3291.1	
336.57	3641.3	
336.78	4413.4	
336.98	5239.4	
337.19	3934.8	
337.4	3262.4	
337.61	5699.5	
337.81	4433.2	
338.02	3077.4	
338.23	3846.1	
338.43	5411.4	
338.64	4579.3	
338.85	3019.4	
339.05	3873.4	
339.26	5520	
339.47	4389.5	
339.68	3012.6	
339.88	4281.6	
340.09	5002.5	
340.3	5212.8	
340.5	3500	
340.71	2785.2	
340.92	4388.8	
341.13	5341.1	
341.33	2923.8	
341.54	3491.8	
341.75	4975.9	
341.95	4679.6	
342.16	3350.5	
342.37	3530	
342.57	4515.1	
342.78	4769.7	
342.99	3629	
343.19	2780.5	
343.4	5133.6	
343.61	5035.3	
343.81	3163.4	
344.02	2910.8	
344.23	5148.6	
344.43	5400.5	
344.64	3682.2	
344.85	3571	
345.06	5006.6	
345.26	5287.9	
345.47	3455.6	
345.68	3889.8	
345.88	4365.6	
346.09	5166.3	
346.3	3491.1	
346.5	2699.2	
346.71	4792.9	
346.92	4583.4	
347.12	2824.1	
347.33	3379.1	
347.54	5274.2	
347.74	5537.7	
347.95	3416	
348.16	2633	
348.36	4708.3	
348.57	4566.3	
348.78	3465.8	
348.98	3615.3	
349.19	4794.3	
349.39	4430.4	
349.6	2844.6	
349.81	3039.9	
350.01	5080.3	
350.22	4622.3	
350.43	3297.9	
350.63	3949.8	
350.84	4883	
351.05	4666	
351.25	3018.7	
351.46	2828.9	
351.67	5261.9	
351.87	4558.8	
352.08	3247.4	
352.29	3627.6	
352.49	5281	
352.7	5238	
352.9	2977.1	
353.11	3627	
353.32	5732.9	
353.52	4717.2	
353.73	3007.8	
353.94	3680.9	
354.14	5100.1	
354.35	4948.6	
354.55	3036.5	
354.76	3309.5	
354.97	5097.4	
355.17	4838	
355.38	2957.3	
355.59	3847.5	
355.79	4633.2	
356	4822.3	
356.2	3382.6	
356.41	3033.7	
356.62	4445.5	
356.82	4815.5	
357.03	3624.9	
357.24	3275.4	
357.44	4666	
357.65	4755.4	
357.85	4183.3	
358.06	3411.2	
358.27	4457.1	
358.47	4657.1	
358.68	2937.5	
358.88	3588.7	
359.09	5087.8	
359.3	5397.8	
359.5	4168.3	
359.71	3744.4	
359.91	5737.7	
360.12	5259.9	
360.33	3658.4	
360.53	4052.9	
360.74	4737	
360.94	4737	
361.15	3812	
361.36	3243.3	
361.56	5403.2	
361.77	4922	
361.97	4293.2	
362.18	3422.2	
362.38	5427.1	
362.59	4670.1	
362.8	3262.4	
363	3115.6	
363.21	4508.9	
363.41	5053	
363.62	3631.7	
363.83	4443.4	
364.03	5214.8	
364.24	5882.4	
364.44	4537.6	
364.65	4506.2	
364.85	4993.6	
365.06	4737.6	
365.27	3388	
365.47	3470.6	
365.68	5773.9	
365.88	5007.3	
366.09	3717.7	
366.29	3493.2	
366.5	5192.3	
366.71	5535	
366.91	4498.7	
367.12	3834.5	
367.32	6051.7	
367.53	5469.4	
367.73	3922.5	
367.94	4702.8	
368.14	5458.5	
368.35	6057.2	
368.56	3888.4	
368.76	3311.6	
368.97	5506.3	
369.17	6752.8	
369.38	3459	
369.58	3706.1	
369.79	4720.6	
369.99	5847.6	
370.2	4420.2	
370.4	3796.9	
370.61	5294	
370.82	6262	
371.02	3713	
371.23	3111.5	
371.43	4675.5	
371.64	5784.8	
371.84	3799.7	
372.05	4752.7	
372.25	6806.8	
372.46	5590.3	
372.66	3842	
372.87	3836.5	
373.07	5669.5	
373.28	6933.1	
373.48	4645.5	
373.69	4412.7	
373.9	5285.8	
374.1	5356.8	
374.31	4615.4	
374.51	4330.8	
374.72	5988.9	
374.92	5156.8	
375.13	4816.1	
375.33	4205.8	
375.54	5746.6	
375.74	5312.4	
375.95	4368.3	
376.15	5308.3	
376.36	5840.1	
376.56	5745.9	
376.77	4442.7	
376.97	4806.6	
377.18	6695.5	
377.38	5938.4	
377.59	5080.3	
377.79	4227	
378	5873.6	
378.2	6181.5	
378.41	4264.6	
378.61	4132.1	
378.82	6303.6	
379.02	5633.3	
379.23	4444.1	
379.43	5291.3	
379.64	6469.5	
379.84	6061.3	
380.05	4225	
380.25	4187.4	
380.46	6061.3	
380.66	5812.8	
380.87	5285.1	
381.07	5538.4	
381.28	6604.7	
381.48	6069.5	
381.69	4284.4	
381.89	4273.4	
382.1	5236	
382.3	6184.9	
382.51	5100.8	
382.71	5784.1	
382.91	6054.5	
383.12	6447.7	
383.32	4532.2	
383.53	4615.4	
383.73	5926.8	
383.94	5816.9	
384.14	4628.4	
384.35	3857	
384.55	5657.2	
384.76	6005.3	
384.96	4492.6	
385.17	4674.8	
385.37	6025.1	
385.58	5410.7	
385.78	4696.7	
385.98	3806.5	
386.19	5591.6	
386.39	5999.9	
386.6	4219.5	
386.8	4478.2	
387.01	6095.4	
387.21	6107	
387.42	4816.8	
387.62	5304.2	
387.83	5567.1	
388.03	6045.6	
388.23	4656.4	
388.44	5195	
388.64	5427.8	
388.85	5525.4	
389.05	4968.4	
389.26	5480.4	
389.46	7149.5	
389.67	6698.2	
389.87	5085.1	
390.07	5112.4	
390.28	6093.4	
390.48	5705.6	
390.69	4481.6	
390.89	4658.4	
391.1	5852.4	
391.3	6599.2	
391.5	5690.6	
391.71	6027.2	
391.91	6506.4	
392.12	7197.2	
392.32	5767.8	
392.53	5102.9	
392.73	5990.3	
392.93	6137.8	
393.14	4808.6	
393.34	5400.5	
393.55	6386.9	
393.75	5932.3	
393.95	4750.6	
394.16	4609.3	
394.36	5845.6	
394.57	6278.4	
394.77	4365.6	
394.98	4648.2	
395.18	5850.4	
395.38	6064.7	
395.59	5487.2	
395.79	4684.4	
396	6213.5	
396.2	6554.9	
396.4	5485.1	
396.61	5520	
396.81	6750.8	
397.02	6198.5	
397.22	5814.2	
397.42	5840.1	
397.63	6883.2	
397.83	6342.6	
398.04	4993.6	
398.24	5379.3	
398.44	6651.1	
398.65	5973.2	
398.85	4856.4	
399.05	4941.7	
399.26	6351.4	
399.46	7688.8	
399.67	5367.7	
399.87	5167	
400.07	6743.3	
400.28	7017.7	
400.48	5289.2	
400.69	6206.7	
400.89	7293.5	
401.09	7578.2	
401.3	5322	
401.5	6137.8	
401.7	7928.4	
401.91	8086.1	
402.11	5696.1	
402.32	5762.3	
402.52	7418.4	
402.72	7250.5	
402.93	5980.8	
403.13	4872.1	
403.33	7703.8	
403.54	6501.6	
403.74	5272.8	
403.94	5911.1	
404.15	6442.9	
404.35	7410.9	
404.56	5070.8	
404.76	6595.1	
404.96	6979.5	
405.17	6874.3	
405.37	6568.5	
405.57	5887.2	
405.78	7344.7	
405.98	6788.3	
406.18	5619.6	
406.39	6211.5	
406.59	7212.9	
406.79	6807.4	
407	5087.8	
407.2	5105.6	
407.4	7126.2	
407.61	7292.8	
407.81	5322.7	
408.01	6956.3	
408.22	6510.5	
408.42	8245.8	
408.62	6627.9	
408.83	6377.4	
409.03	7537.2	
409.23	7561.1	
409.44	6732.4	
409.64	6831.3	
409.84	8631.5	
410.05	8587.8	
410.25	7082.6	
410.45	6752.2	
410.66	8569.4	
410.86	10282	
411.06	7565.9	
411.27	7388.4	
411.47	10286	
411.67	8744.1	
411.88	7651.2	
412.08	7947.5	
412.28	9289.6	
412.49	9753.1	
412.69	7710.6	
412.89	7776.8	
413.09	9657.5	
413.3	9532.6	
413.5	7947.5	
413.7	7701.7	
413.91	9147.6	
414.11	9814.5	
414.31	7770	
414.52	8292.2	
414.72	9549.7	
414.92	9704	
415.12	7923.6	
415.33	8400.1	
415.53	10005	
415.73	10154	
415.94	8669.7	
416.14	8136.6	
416.34	9398.8	
416.55	9026.1	
416.75	9110.7	
416.95	8864.3	
417.15	10243	
417.36	10596	
417.56	9566.7	
417.76	8829.5	
417.97	10542	
418.17	10471	
418.37	8574.8	
418.57	8809.7	
418.78	10277	
418.98	10040	
419.18	9428.8	
419.38	9273.9	
419.59	9916.9	
419.79	9495.7	
419.99	8387.1	
420.2	8615.1	
420.4	10286	
420.6	10352	
420.8	8528.4	
421.01	8343.4	
421.21	10428	
421.41	10402	
421.61	8794	
421.82	8571.4	
422.02	9997.5	
422.22	10640	
422.42	9201.5	
422.63	8605.6	
422.83	9963.4	
423.03	10975	
423.23	8791.9	
423.44	8051.2	
423.64	10031	
423.84	9589.3	
424.04	8358.4	
424.25	8051.2	
424.45	10517	
424.65	10428	
424.85	7880.6	
425.06	8293.6	
425.26	10683	
425.46	9806.4	
425.66	8732.5	
425.87	8454	
426.07	10301	
426.27	10041	
426.47	8561.9	
426.67	7977.5	
426.88	10531	
427.08	10010	
427.28	8772.8	
427.48	7865.6	
427.69	9138.7	
427.89	9679.4	
428.09	8669.1	
428.29	7951.6	
428.5	10223	
428.7	9984.5	
428.9	7909.9	
429.1	8311.3	
429.3	9921.7	
429.51	10290	
429.71	8092.9	
429.91	8853.4	
430.11	10365	
430.31	10550	
430.52	8682	
430.72	8921.6	
430.92	10808	
431.12	10305	
431.32	8431.5	
431.53	8652.7	
431.73	9514.2	
431.93	10837	
432.13	8202.1	
432.33	8266.3	
432.54	10037	
432.74	10232	
432.94	8389.2	
433.14	9154.4	
433.34	10576	
433.55	10312	
433.75	9147.6	
433.95	10728	
434.15	10507	
434.35	10330	
434.56	8679.3	
434.76	8390.5	
434.96	10518	
435.16	10845	
435.36	8714.1	
435.56	9665.7	
435.77	10458	
435.97	10725	
436.17	10243	
436.37	9781.8	
436.57	10516	
436.78	10699	
436.98	9925.1	
437.18	10201	
437.38	11276	
437.58	10630	
437.78	10156	
437.99	9140.8	
438.19	10869	
438.39	11556	
438.59	9021.3	
438.79	8393.9	
438.99	11305	
439.2	10304	
439.4	8359.8	
439.6	8432.9	
439.8	10777	
440	11636	
440.2	9807.7	
440.4	9989.3	
440.61	11589	
440.81	11992	
441.01	9602.9	
441.21	10466	
441.41	12251	
441.61	11721	
441.81	10720	
442.02	11382	
442.22	12441	
442.42	11870	
442.62	9772.2	
442.82	9450	
443.02	12190	
443.22	11618	
443.43	10217	
443.63	9779.7	
443.83	11383	
444.03	11484	
444.23	10942	
444.43	10645	
444.63	12102	
444.83	12721	
445.04	10350	
445.24	11249	
445.44	12015	
445.64	12201	
445.84	10388	
446.04	10548	
446.24	11313	
446.44	12134	
446.65	9538.1	
446.85	10062	
447.05	11283	
447.25	12018	
447.45	10013	
447.65	9699.9	
447.85	11637	
448.05	11066	
448.25	10473	
448.46	10471	
448.66	11642	
448.86	11277	
449.06	9678	
449.26	10496	
449.46	12242	
449.66	11259	
449.86	10517	
450.06	10357	
450.26	11495	
450.47	11955	
450.67	10397	
450.87	10733	
451.07	12056	
451.27	12079	
451.47	9845.3	
451.67	10543	
451.87	11797	
452.07	12370	
452.27	10329	
452.47	10111	
452.67	11807	
452.88	12387	
453.08	9611.8	
453.28	11239	
453.48	13039	
453.68	11554	
453.88	10193	
454.08	10324	
454.28	12336	
454.48	11976	
454.68	10857	
454.88	11138	
455.08	12413	
455.28	12585	
455.48	10157	
455.68	11045	
455.89	13070	
456.09	12901	
456.29	10742	
456.49	10921	
456.69	13228	
456.89	12381	
457.09	11396	
457.29	11807	
457.49	12936	
457.69	13268	
457.89	11796	
458.09	10983	
458.29	13137	
458.49	13627	
458.69	12054	
458.89	11690	
459.09	14006	
459.29	13965	
459.49	11596	
459.69	12268	
459.9	13476	
460.1	13502	
460.3	11412	
460.5	11404	
460.7	13559	
460.9	13348	
461.1	11290	
461.3	12418	
461.5	14448	
461.7	14050	
461.9	12146	
462.1	12288	
462.3	14003	
462.5	14360	
462.7	12190	
462.9	12387	
463.1	15347	
463.3	15216	
463.5	12639	
463.7	13773	
463.9	14651	
464.1	14920	
464.3	13432	
464.5	13329	
464.7	15266	
464.9	15309	
465.1	14349	
465.3	13819	
465.5	15580	
465.7	15779	
465.9	14122	
466.1	13621	
466.3	15789	
466.5	15403	
466.7	14974	
466.9	13803	
467.1	15739	
467.3	16356	
467.5	15070	
467.7	14225	
467.9	16677	
468.1	17448	
468.3	14664	
468.5	15278	
468.7	16020	
468.9	15883	
469.1	14720	
469.3	15288	
469.5	17750	
469.7	16043	
469.9	14728	
470.1	14524	
470.3	16165	
470.5	16087	
470.7	15408	
470.9	14481	
471.1	16077	
471.3	15898	
471.5	14391	
471.69	15748	
471.89	15774	
472.09	15126	
472.29	15003	
472.49	14786	
472.69	15563	
472.89	15977	
473.09	14274	
473.29	13919	
473.49	15561	
473.69	15374	
473.89	14687	
474.09	13953	
474.29	16339	
474.49	16123	
474.69	14842	
474.89	14257	
475.09	15571	
475.29	15619	
475.49	13788	
475.69	14070	
475.88	16502	
476.08	15709	
476.28	13726	
476.48	13861	
476.68	15835	
476.88	15535	
477.08	13633	
477.28	13969	
477.48	15070	
477.68	15563	
477.88	13480	
478.08	13638	
478.28	16189	
478.48	15349	
478.67	13960	
478.87	13227	
479.07	16140	
479.27	15252	
479.47	13949	
479.67	14077	
479.87	15854	
480.07	16255	
480.27	13520	
480.47	14558	
480.67	15501	
480.87	16309	
481.06	13801	
481.26	14618	
481.46	15674	
481.66	15383	
481.86	14166	
482.06	14950	
482.26	15299	
482.46	15976	
482.66	13979	
482.86	13655	
483.05	15880	
483.25	15249	
483.45	16039	
483.65	14146	
483.85	15406	
484.05	15694	
484.25	14571	
484.45	15114	
484.65	16346	
484.84	16585	
485.04	14272	
485.24	14301	
485.44	16800	
485.64	15566	
485.84	13977	
486.04	15005	
486.24	15838	
486.44	16107	
486.63	13926	
486.83	14698	
487.03	15975	
487.23	16295	
487.43	14093	
487.63	16148	
487.83	16369	
488.02	17037	
488.22	15178	
488.42	15639	
488.62	17055	
488.82	16309	
489.02	14786	
489.22	14967	
489.41	16846	
489.61	16830	
489.81	14836	
490.01	14765	
490.21	16982	
490.41	17552	
490.61	14815	
490.8	14896	
491	16715	
491.2	15917	
491.4	15020	
491.6	14362	
491.8	16262	
491.99	16090	
492.19	14020	
492.39	14319	
492.59	16677	
492.79	16795	
492.99	15319	
493.18	14783	
493.38	17294	
493.58	18191	
493.78	15725	
493.98	15465	
494.18	17375	
494.37	17169	
494.57	16567	
494.77	16065	
494.97	17985	
495.17	18450	
495.37	16331	
495.56	16713	
495.76	18802	
495.96	18596	
496.16	17549	
496.36	16907	
496.55	18945	
496.75	18492	
496.95	17107	
497.15	16910	
497.35	18612	
497.54	18908	
497.74	16707	
497.94	18362	
498.14	19477	
498.34	19360	
498.53	16801	
498.73	17337	
498.93	18618	
499.13	19092	
499.33	17494	
499.52	17687	
499.72	19476	
499.92	19349	
500.12	17289	
500.32	17527	
500.51	19446	
500.71	19499	
500.91	18215	
501.11	17930	
501.31	19596	
501.5	19734	
501.7	18548	
501.9	17520	
502.1	19213	
502.29	19623	
502.49	18230	
502.69	18162	
502.89	19437	
503.09	19501	
503.28	16868	
503.48	16969	
503.68	18626	
503.88	18544	
504.07	17690	
504.27	17255	
504.47	18852	
504.67	18845	
504.86	17659	
505.06	17267	
505.26	18499	
505.46	19529	
505.65	17040	
505.85	16926	
506.05	18026	
506.25	18484	
506.44	16166	
506.64	16722	
506.84	17905	
507.04	18421	
507.23	16269	
507.43	16621	
507.63	19327	
507.83	18046	
508.02	16687	
508.22	16300	
508.42	19555	
508.62	17852	
508.81	16368	
509.01	16852	
509.21	17509	
509.4	17844	
509.6	16541	
509.8	16170	
510	17717	
510.19	18947	
510.39	16134	
510.59	16427	
510.79	17896	
510.98	19101	
511.18	16504	
511.38	16481	
511.57	18402	
511.77	18163	
511.97	16701	
512.17	16112	
512.36	18370	
512.56	18039	
512.76	16098	
512.95	15583	
513.15	18318	
513.35	17339	
513.55	16694	
513.74	16059	
513.94	18412	
514.14	17915	
514.33	16914	
514.53	16634	
514.73	17875	
514.92	17959	
515.12	16200	
515.32	16061	
515.51	18130	
515.71	18375	
515.91	17461	
516.11	16391	
516.3	19614	
516.5	18063	
516.7	16701	
516.89	17221	
517.09	17860	
517.29	17866	
517.48	16987	
517.68	16281	
517.88	17696	
518.07	18239	
518.27	16963	
518.47	16102	
518.66	18525	
518.86	17441	
519.06	15961	
519.25	16266	
519.45	17830	
519.65	19022	
519.84	16969	
520.04	17582	
520.24	19552	
520.43	18363	
520.63	16565	
520.83	16287	
521.02	17547	
521.22	17896	
521.42	16177	
521.61	16737	
521.81	17436	
522.01	17572	
522.2	16519	
522.4	16282	
522.6	18208	
522.79	17397	
522.99	16574	
523.18	16101	
523.38	18462	
523.58	18413	
523.77	18120	
523.97	16631	
524.17	20304	
524.36	19774	
524.56	17919	
524.76	17718	
524.95	19212	
525.15	18791	
525.34	17645	
525.54	17762	
525.74	19774	
525.93	18979	
526.13	19170	
526.33	18202	
526.52	20221	
526.72	19877	
526.91	19071	
527.11	18671	
527.31	20178	
527.5	20775	
527.7	18772	
527.89	18054	
528.09	19840	
528.29	20548	
528.48	19302	
528.68	18799	
528.87	20711	
529.07	20386	
529.27	18699	
529.46	18350	
529.66	20456	
529.85	20603	
530.05	18384	
530.25	19018	
530.44	21540	
530.64	19964	
530.83	18521	
531.03	18762	
531.23	20672	
531.42	20439	
531.62	19496	
531.81	18954	
532.01	21243	
532.21	21440	
532.4	19384	
532.6	19811	
532.79	22106	
532.99	21863	
533.18	19871	
533.38	20665	
533.58	21581	
533.77	22016	
533.97	20215	
534.16	20810	
534.36	22392	
534.55	21719	
534.75	21014	
534.95	20488	
535.14	22736	
535.34	21992	
535.53	20040	
535.73	21439	
535.92	22851	
536.12	21653	
536.31	19899	
536.51	20860	
536.71	21724	
536.9	21419	
537.1	20001	
537.29	20274	
537.49	22223	
537.68	21576	
537.88	20714	
538.07	19773	
538.27	21846	
538.46	22739	
538.66	19835	
538.86	20250	
539.05	21969	
539.25	22141	
539.44	20613	
539.64	20113	
539.83	21751	
540.03	22489	
540.22	19926	
540.42	19765	
540.61	21618	
540.81	21714	
541	19946	
541.2	20721	
541.39	21236	
541.59	21452	
541.78	20562	
541.98	19587	
542.18	20973	
542.37	20817	
542.57	19833	
542.76	20381	
542.96	20686	
543.15	21222	
543.35	19271	
543.54	19000	
543.74	20973	
543.93	20845	
544.13	19138	
544.32	20104	
544.52	20758	
544.71	20241	
544.91	18428	
545.1	19422	
545.3	20494	
545.49	20858	
545.69	18253	
545.88	18815	
546.08	21711	
546.27	20988	
546.47	19177	
546.66	18533	
546.86	20654	
547.05	21186	
547.24	18570	
547.44	18872	
547.63	19854	
547.83	20786	
548.02	18938	
548.22	19026	
548.41	19736	
548.61	20779	
548.8	18363	
549	18191	
549.19	19950	
549.39	20473	
549.58	17958	
549.78	18412	
549.97	20193	
550.17	19706	
550.36	18703	
550.55	19672	
550.75	19631	
550.94	20267	
551.14	17911	
551.33	17984	
551.53	19142	
551.72	19980	
551.92	18186	
552.11	17980	
552.31	19885	
552.5	19669	
552.69	19183	
552.89	17556	
553.08	19797	
553.28	19331	
553.47	17759	
553.67	18543	
553.86	19980	
554.06	18789	
554.25	16920	
554.44	17403	
554.64	20417	
554.83	20134	
555.03	17528	
555.22	17593	
555.42	19545	
555.61	19378	
555.8	17474	
556	17639	
556.19	18624	
556.39	19291	
556.58	17441	
556.78	17496	
556.97	19244	
557.16	19028	
557.36	18391	
557.55	17288	
557.75	18172	
557.94	19830	
558.13	17090	
558.33	17023	
558.52	19669	
558.72	18502	
558.91	16946	
559.1	17062	
559.3	18297	
559.49	17914	
559.69	16586	
559.88	17219	
560.07	18895	
560.27	19283	
560.46	17430	
560.66	17431	
560.85	18669	
561.04	17735	
561.24	16728	
561.43	16690	
561.63	18013	
561.82	18064	
562.01	17633	
562.21	16890	
562.4	18372	
562.59	19315	
562.79	16926	
562.98	16868	
563.18	18532	
563.37	19830	
563.56	17305	
563.76	16748	
563.95	18168	
564.14	18077	
564.34	17092	
564.53	16829	
564.73	18792	
564.92	18903	
565.11	17324	
565.31	16836	
565.5	19286	
565.69	18272	
565.89	16976	
566.08	17016	
566.27	19068	
566.47	19555	
566.66	17839	
566.85	16780	
567.05	18964	
567.24	18493	
567.44	17006	
567.63	18024	
567.82	19247	
568.02	18804	
568.21	17099	
568.4	17314	
568.6	18822	
568.79	18751	
568.98	16979	
569.18	17054	
569.37	19084	
569.56	20508	
569.76	17580	
569.95	18279	
570.14	19285	
570.34	19144	
570.53	17058	
570.72	17021	
570.91	19676	
571.11	18952	
571.3	17426	
571.49	18139	
571.69	19211	
571.88	18668	
572.07	17858	
572.27	17744	
572.46	18690	
572.65	19325	
572.85	17292	
573.04	17618	
573.23	19638	
573.43	18894	
573.62	17271	
573.81	17750	
574	19335	
574.2	19231	
574.39	17805	
574.58	17828	
574.78	20304	
574.97	19751	
575.16	18239	
575.36	18316	
575.55	20058	
575.74	20091	
575.93	17638	
576.13	18594	
576.32	19590	
576.51	20024	
576.71	18002	
576.9	19052	
577.09	20235	
577.28	19758	
577.48	18224	
577.67	17568	
577.86	19522	
578.05	19909	
578.25	18177	
578.44	18144	
578.63	19777	
578.83	20638	
579.02	17854	
579.21	18850	
579.4	19709	
579.6	19753	
579.79	18286	
579.98	19983	
580.17	20111	
580.37	20234	
580.56	17792	
580.75	18526	
580.94	20395	
581.14	20314	
581.33	18929	
581.52	17916	
581.71	20037	
581.91	20712	
582.1	17945	
582.29	18186	
582.48	19813	
582.68	19807	
582.87	18521	
583.06	18346	
583.25	20026	
583.45	20005	
583.64	18806	
583.83	19415	
584.02	19714	
584.21	20074	
584.41	18748	
584.6	18232	
584.79	20008	
584.98	20551	
585.18	17875	
585.37	17751	
585.56	19502	
585.75	20093	
585.94	18030	
586.14	18477	
586.33	20127	
586.52	19616	
586.71	18114	
586.91	18056	
587.1	18819	
587.29	19694	
587.48	17419	
587.67	17470	
587.87	19426	
588.06	19282	
588.25	18499	
588.44	17811	
588.63	18952	
588.83	19377	
589.02	17200	
589.21	17048	
589.4	18525	
589.59	18441	
589.78	15904	
589.98	16018	
590.17	17305	
590.36	17688	
590.55	15104	
590.74	15345	
590.94	18079	
591.13	16991	
591.32	15331	
591.51	14910	
591.7	17456	
591.89	17132	
592.09	15208	
592.28	15599	
592.47	16740	
592.66	18334	
592.85	15336	
593.05	15530	
593.24	17268	
593.43	17849	
593.62	15502	
593.81	15973	
594	17316	
594.19	17402	
594.39	15356	
594.58	15408	
594.77	17381	
594.96	17802	
595.15	15260	
595.34	15752	
595.54	17122	
595.73	16448	
595.92	14501	
596.11	15264	
596.3	17485	
596.49	16559	
596.68	15158	
596.88	15565	
597.07	17092	
597.26	16376	
597.45	14730	
597.64	15660	
597.83	16388	
598.02	17008	
598.22	14864	
598.41	15302	
598.6	16799	
598.79	16335	
598.98	14786	
599.17	15556	
599.36	16779	
599.55	17452	
599.74	16290	
599.94	16208	
600.13	17178	
600.32	16155	
600.51	14380	
600.7	14642	
600.89	17499	
601.08	17561	
601.27	14425	
601.47	15220	
601.66	16983	
601.85	17322	
602.04	14851	
602.23	14842	
602.42	15987	
602.61	16576	
602.8	14654	
602.99	14473	
603.18	16283	
603.37	16463	
603.57	14949	
603.76	15352	
603.95	17030	
604.14	16647	
604.33	14756	
604.52	14801	
604.71	16616	
604.9	16210	
605.09	15132	
605.28	15059	
605.47	16917	
605.66	16605	
605.86	15014	
606.05	14601	
606.24	16860	
606.43	15556	
606.62	14693	
606.81	15095	
607	16524	
607.19	16116	
607.38	14114	
607.57	14283	
607.76	15852	
607.95	15375	
608.14	14641	
608.33	15010	
608.52	15824	
608.72	16539	
608.91	13900	
609.1	13781	
609.29	15776	
609.48	15430	
609.67	14456	
609.86	13688	
610.05	15347	
610.24	15632	
610.43	13652	
610.62	13428	
610.81	16459	
611	16269	
611.19	13745	
611.38	14230	
611.57	15887	
611.76	16674	
611.95	13542	
612.14	13310	
612.33	15657	
612.52	15212	
612.71	14015	
612.9	13307	
613.09	14858	
613.28	16761	
613.47	13884	
613.66	14480	
613.85	15732	
614.04	15072	
614.24	13646	
614.43	13130	
614.62	15576	
614.81	15649	
615	14130	
615.19	14241	
615.38	15123	
615.57	15509	
615.76	13983	
615.95	14796	
616.14	15825	
616.33	15537	
616.52	14319	
616.71	14423	
616.9	15670	
617.09	15500	
617.28	13771	
617.47	14668	
617.66	15193	
617.85	15180	
618.04	14675	
618.22	14230	
618.41	15541	
618.6	16466	
618.79	14272	
618.98	14064	
619.17	16640	
619.36	15328	
619.55	14417	
619.74	14347	
619.93	16151	
620.12	15836	
620.31	14831	
620.5	14976	
620.69	16774	
620.88	17103	
621.07	15732	
621.26	15038	
621.45	16392	
621.64	16465	
621.83	15037	
622.02	14328	
622.21	16453	
622.4	16373	
622.59	15574	
622.78	15382	
622.97	16239	
623.16	17027	
623.35	15160	
623.54	14287	
623.72	16234	
623.91	16268	
624.1	15278	
624.29	14304	
624.48	17307	
624.67	16610	
624.86	15234	
625.05	14480	
625.24	17342	
625.43	16141	
625.62	16477	
625.81	14689	
626	16838	
626.19	16529	
626.38	15399	
626.56	14868	
626.75	16352	
626.94	17010	
627.13	15300	
627.32	14312	
627.51	16799	
627.7	17591	
627.89	14350	
628.08	15255	
628.27	15961	
628.46	16279	
628.65	14594	
628.83	14309	
629.02	16685	
629.21	16111	
629.4	15016	
629.59	14956	
629.78	16004	
629.97	16761	
630.16	15056	
630.35	14755	
630.54	17176	
630.72	16871	
630.91	14693	
631.1	15041	
631.29	16432	
631.48	16528	
631.67	14984	
631.86	14674	
632.05	16249	
632.24	16245	
632.42	14422	
632.61	14948	
632.8	16126	
632.99	16009	
633.18	14994	
633.37	15048	
633.56	16410	
633.75	16233	
633.93	14835	
634.12	14730	
634.31	16999	
634.5	16731	
634.69	14597	
634.88	15013	
635.07	16201	
635.25	16592	
635.44	15241	
635.63	15431	
635.82	15948	
636.01	15444	
636.2	15131	
636.39	14863	
636.57	16885	
636.76	16427	
636.95	14278	
637.14	15326	
637.33	16243	
637.52	16896	
637.7	14204	
637.89	14936	
638.08	16111	
638.27	16963	
638.46	14902	
638.65	15235	
638.83	16863	
639.02	15703	
639.21	14683	
639.4	14940	
639.59	15889	
639.78	15592	
639.96	13911	
640.15	13997	
640.34	15713	
640.53	15690	
640.72	13631	
640.91	13760	
641.09	15093	
641.28	16075	
641.47	13796	
641.66	14490	
641.85	15625	
642.03	15689	
642.22	14156	
642.41	13747	
642.6	15094	
642.79	14536	
642.97	13414	
643.16	14101	
643.35	15004	
643.54	14669	
643.73	13270	
643.91	13848	
644.1	14519	
644.29	15064	
644.48	13112	
644.67	13200	
644.85	14313	
645.04	14568	
645.23	12692	
645.42	13037	
645.6	14158	
645.79	14978	
645.98	12681	
646.17	11869	
646.36	13732	
646.54	13896	
646.73	12891	
646.92	12084	
647.11	13560	
647.29	14390	
647.48	12017	
647.67	11882	
647.86	14508	
648.05	14552	
648.23	12064	
648.42	13216	
648.61	13917	
648.8	13814	
648.98	11750	
649.17	12000	
649.36	13433	
649.55	13008	
649.73	11815	
649.92	12470	
650.11	13414	
650.3	13596	
650.48	11883	
650.67	11785	
650.86	13685	
651.05	12818	
651.23	11794	
651.42	11726	
651.61	13217	
651.79	13121	
651.98	11949	
652.17	11523	
652.36	13465	
652.54	12745	
652.73	11512	
652.92	11352	
653.11	13334	
653.29	13478	
653.48	10896	
653.67	11484	
653.85	12943	
654.04	13732	
654.23	11591	
654.42	11107	
654.6	12240	
654.79	12802	
654.98	10445	
655.16	10798	
655.35	11633	
655.54	11387	
655.73	10292	
655.91	10101	
656.1	12286	
656.29	11654	
656.47	10114	
656.66	11431	
656.85	12017	
657.03	12166	
657.22	10642	
657.41	10838	
657.59	12275	
657.78	12131	
657.97	10630	
658.16	11101	
658.34	12755	
658.53	13052	
658.72	11729	
658.9	12191	
659.09	12415	
659.28	12328	
659.46	10866	
659.65	10776	
659.84	12166	
660.02	12539	
660.21	10811	
660.4	10556	
660.58	12852	
660.77	12456	
660.96	11155	
661.14	10337	
661.33	13377	
661.52	13194	
661.7	10303	
661.89	13001	
662.08	12035	
662.26	11588	
662.45	10492	
662.64	10502	
662.82	12493	
663.01	11841	
663.2	10516	
663.38	11065	
663.57	12362	
663.75	12215	
663.94	10772	
664.13	11506	
664.31	11921	
664.5	12429	
664.69	10787	
664.87	11204	
665.06	11670	
665.25	12145	
665.43	11440	
665.62	11488	
665.8	12359	
665.99	11802	
666.18	10535	
666.36	10585	
666.55	12314	
666.74	12270	
666.92	10297	
667.11	11471	
667.29	11887	
667.48	12349	
667.67	11243	
667.85	10499	
668.04	11793	
668.22	11854	
668.41	10553	
668.6	10669	
668.78	11613	
668.97	11744	
669.15	10738	
669.34	9919.7	
669.53	11598	
669.71	11864	
669.9	10086	
670.08	10694	
670.27	11576	
670.46	11940	
670.64	10621	
670.83	10884	
671.01	11275	
671.2	11808	
671.38	10125	
671.57	10039	
671.76	12439	
671.94	12785	
672.13	9942.9	
672.31	10724	
672.5	12228	
672.69	11475	
672.87	10062	
673.06	10405	
673.24	11938	
673.43	11608	
673.61	10677	
673.8	10344	
673.98	12035	
674.17	12146	
674.36	10737	
674.54	10584	
674.73	11725	
674.91	12043	
675.1	10494	
675.28	10081	
675.47	11540	
675.65	12205	
675.84	10254	
676.03	10501	
676.21	11447	
676.4	11049	
676.58	10869	
676.77	10712	
676.95	12618	
677.14	11427	
677.32	9981.8	
677.51	9819.3	
677.69	11968	
677.88	11179	
678.06	9876.7	
678.25	10093	
678.44	11589	
678.62	11401	
678.81	9749	
678.99	10518	
679.18	12149	
679.36	11957	
679.55	10275	
679.73	10637	
679.92	11772	
680.1	11484	
680.29	11168	
680.47	10165	
680.66	11370	
680.84	11938	
681.03	9683.5	
681.21	10598	
681.4	11348	
681.58	11311	
681.77	9985.9	
681.95	9943.6	
682.14	12063	
682.32	12254	
682.51	10654	
682.69	9624.1	
682.88	11171	
683.06	11524	
683.25	10396	
683.43	10572	
683.62	11532	
683.8	11783	
683.99	10712	
684.17	10134	
684.36	12235	
684.54	11186	
684.73	9344.2	
684.91	9450.7	
685.1	11159	
685.28	10324	
685.46	9394	
685.65	9424.1	
685.83	10936	
686.02	10432	
686.2	9011.1	
686.39	9192.6	
686.57	10352	
686.76	11688	
686.94	9166.7	
687.13	9347.6	
687.31	11125	
687.5	10856	
687.68	9078	
687.86	9870.5	
688.05	12178	
688.23	10497	
688.42	9983.2	
688.6	9557.9	
688.79	10849	
688.97	10812	
689.16	9944.9	
689.34	9066.4	
689.52	11581	
689.71	11751	
689.89	10195	
690.08	9612.5	
690.26	11314	
690.45	11136	
690.63	10242	
690.81	9780.4	
691	11011	
691.18	11082	
691.37	9783.1	
691.55	11492	
691.74	10770	
691.92	12389	
692.1	9749	
692.29	9385.8	
692.47	10991	
692.66	10484	
692.84	9500.5	
693.02	9951.1	
693.21	10608	
693.39	10910	
693.58	10082	
693.76	9634.3	
693.94	12000	
694.13	11997	
694.31	9880.1	
694.5	10733	
694.68	11088	
694.86	11562	
695.05	10290	
695.23	10323	
695.42	12026	
695.6	13626	
695.78	10823	
695.97	10065	
696.15	12065	
696.34	11422	
696.52	10009	
696.7	10550	
696.89	11693	
697.07	11137	
697.25	10285	
697.44	11422	
697.62	11545	
697.81	11708	
697.99	10118	
698.17	10469	
698.36	11062	
698.54	11613	
698.72	10397	
698.91	9567.4	
699.09	11228	
699.28	11062	
699.46	10065	
699.64	9983.8	
699.83	11112	
700.01	11837	
700.19	10583	
700.38	9483.5	
700.56	12095	
700.74	11249	
700.93	9813.9	
701.11	10438	
701.29	11618	
701.48	12645	
701.66	9957.9	
701.84	10221	
702.03	11557	
702.21	12169	
702.39	9822.7	
702.58	10456	
702.76	11880	
702.94	11916	
703.13	9824.1	
703.31	11689	
703.49	11434	
703.68	12533	
703.86	9990	
704.04	10763	
704.23	11735	
704.41	12176	
704.59	10142	
704.78	10982	
704.96	13014	
705.14	12126	
705.33	9948.3	
705.51	10570	
705.69	11528	
705.87	12258	
706.06	10803	
706.24	9974.3	
706.42	11890	
706.61	12129	
706.79	10841	
706.97	9967.5	
707.16	11495	
707.34	11883	
707.52	10688	
707.7	10144	
707.89	11451	
708.07	11328	
708.25	10811	
708.44	11017	
708.62	11538	
708.8	12233	
708.98	10921	
709.17	10273	
709.35	11721	
709.53	11671	
709.72	10006	
709.9	10262	
710.08	11918	
710.26	12011	
710.45	11156	
710.63	10078	
710.81	11569	
710.99	11500	
711.18	10530	
711.36	10043	
711.54	11354	
711.72	11934	
711.91	10067	
712.09	9645.3	
712.27	11409	
712.45	11830	
712.64	10095	
712.82	9391.3	
713	10808	
713.18	10806	
713.37	9238.4	
713.55	10065	
713.73	11308	
713.91	10110	
714.1	9098.4	
714.28	8574.2	
714.46	10432	
714.64	9721	
714.83	7700.4	
715.01	8095.6	
715.19	9369.5	
715.37	8761.9	
715.55	7650.5	
715.74	7839.6	
715.92	9873.3	
716.1	8224	
716.28	8732.5	
716.47	7770.7	
716.65	8741.4	
716.83	8766	
717.01	7596.6	
717.19	7572.7	
717.38	10323	
717.56	8524.3	
717.74	7841	
717.92	7236.2	
718.1	9540.8	
718.29	8903.2	
718.47	7136.5	
718.65	7775.5	
718.83	9856.2	
719.01	10030	
719.2	7519.5	
719.38	8428.1	
719.56	9807	
719.74	11006	
719.92	8122.9	
720.11	8923	
720.29	9747.6	
720.47	9067.7	
720.65	7518.8	
720.83	8054	
721.02	8943.5	
721.2	8674.5	
721.38	7842.4	
721.56	7088.7	
721.74	8324.3	
721.92	8297.7	
722.11	8107.2	
722.29	7892.2	
722.47	9235	
722.65	8673.1	
722.83	7167.9	
723.01	7835.5	
723.2	8624	
723.38	8936	
723.56	6664.1	
723.74	7606.8	
723.92	8276.5	
724.1	9150.3	
724.29	7140.6	
724.47	8019.2	
724.65	8495.7	
724.83	8196	
725.01	6995.2	
725.19	7537.2	
725.37	8192.6	
725.56	8269.7	
725.74	6777.4	
725.92	7061.4	
726.1	8296.3	
726.28	8524.3	
726.46	7303.1	
726.64	7009.5	
726.83	8430.8	
727.01	8579.6	
727.19	6811.5	
727.37	7447.8	
727.55	8557.1	
727.73	8935.3	
727.91	6777.4	
728.09	6546.7	
728.28	8893	
728.46	9159.2	
728.64	7559.7	
728.82	7466.2	
729	9852.1	
729.18	9270.5	
729.36	6964.5	
729.54	8661.5	
729.72	10213	
729.91	8861.6	
730.09	8555.7	
730.27	7669.6	
730.45	8871.8	
730.63	9407	
730.81	8064.9	
730.99	7456.7	
731.17	9823.4	
731.35	8728.4	
731.53	7775.5	
731.71	7556.3	
731.9	9584.5	
732.08	9564.7	
732.26	7649.8	
732.44	7408.9	
732.62	9559.9	
732.8	9351.7	
732.98	7963.2	
733.16	7326.9	
733.34	9110	
733.52	8096.3	
733.7	7479.2	
733.88	7645.1	
734.07	8940.7	
734.25	8812.4	
734.43	7172	
734.61	8302.5	
734.79	10007	
734.97	8798.1	
735.15	7165.8	
735.33	7462.8	
735.51	8879.3	
735.69	8776.2	
735.87	8206.2	
736.05	7494.9	
736.23	8774.2	
736.41	8458.1	
736.59	7385	
736.77	7431.4	
736.95	9106	
737.13	8634.9	
737.32	7065.5	
737.5	7234.1	
737.68	9497.8	
737.86	8454	
738.04	6829.3	
738.22	8210.3	
738.4	8228.1	
738.58	8512	
738.76	7283.9	
738.94	6490	
739.12	8363.2	
739.3	8400.8	
739.48	7730.4	
739.66	7479.2	
739.84	8557.8	
740.02	8438.3	
740.2	6533	
740.38	6750.1	
740.56	8798.1	
740.74	7877.9	
740.92	7247.1	
741.1	7106.5	
741.28	8361.2	
741.46	8057.4	
741.64	6868.9	
741.82	7170.6	
742	8256.7	
742.18	8169.3	
742.36	6944.7	
742.54	6675	
742.72	8623.3	
742.9	7584.3	
743.08	7119.4	
743.26	6229.2	
743.44	8626.7	
743.62	8507.9	
743.8	7244.3	
743.98	6441.5	
744.16	8245.8	
744.34	8013	
744.52	7048.4	
744.7	7073	
744.88	8318.2	
745.06	7820.5	
745.24	6997.9	
745.42	7058.7	
745.6	8333.2	
745.78	8091.5	
745.96	6059.9	
746.14	6253.1	
746.32	8785.8	
746.5	8131.1	
746.68	6632	
746.86	6120	
747.03	8359.1	
747.21	7167.9	
747.39	6565.8	
747.57	6161	
747.75	7746.8	
747.93	7978.2	
748.11	5998.5	
748.29	6023.1	
748.47	8968.1	
748.65	7554.3	
748.83	6617.7	
749.01	6467.5	
749.19	7912	
749.37	7224.6	
749.55	6266.8	
749.73	6371.9	
749.91	7702.4	
750.09	7293.5	
750.26	6328.2	
750.44	5879.7	
750.62	7604.1	
750.8	7490.8	
750.98	5778.7	
751.16	5917.9	
751.34	7650.5	
751.52	7098.9	
751.7	6645.7	
751.88	5692	
752.06	8004.1	
752.24	7703.8	
752.42	5728.9	
752.59	5981.4	
752.77	7444.4	
752.95	8473.8	
753.13	6503	
753.31	6020.3	
753.49	7174	
753.67	7478.5	
753.85	6105	
754.03	5850.4	
754.21	7572	
754.38	7804.8	
754.56	5820.3	
754.74	5020.3	
754.92	6793.1	
755.1	7268.2	
755.28	4827.1	
755.46	4713.7	
755.64	7516	
755.82	7573.4	
755.99	4519.2	
756.17	4497.3	
756.35	5175.2	
756.53	6373.3	
756.71	3474.7	
756.89	4170.3	
757.07	5928.2	
757.25	5270.8	
757.42	4607.2	
757.6	5411.4	
757.78	6246.3	
757.96	5532.2	
758.14	4629.8	
758.32	4264.6	
758.5	5151.3	
758.67	5791	
758.85	4377.2	
759.03	4499.4	
759.21	5930.2	
759.39	5444.9	
759.57	4102.1	
759.75	4919.9	
759.92	6495.5	
760.1	5945.9	
760.28	5324.7	
760.46	5587.5	
760.64	5871.5	
760.82	5729.5	
760.99	5152	
761.17	4717.2	
761.35	6606.7	
761.53	5710.4	
761.71	4807.3	
761.89	5380	
762.06	6508.4	
762.24	6191.7	
762.42	4970.4	
762.6	4840.7	
762.78	6252.4	
762.96	6738.5	
763.13	5397.8	
763.31	5027.1	
763.49	6855.9	
763.67	6158.9	
763.85	5757.5	
764.02	6141.2	
764.2	7165.8	
764.38	6360.3	
764.56	4982.7	
764.74	5612.8	
764.91	7051.2	
765.09	6171.9	
765.27	4738.3	
765.45	4514.4	
765.63	7180.9	
765.8	6954.9	
765.98	4313.7	
766.16	4589.5	
766.34	5842.9	
766.52	5689.9	
766.69	5221.6	
766.87	4418.8	
767.05	6168.5	
767.23	6647.7	
767.41	4624.3	
767.58	4821.6	
767.76	6473.6	
767.94	6619	
768.12	4628.4	
768.29	5119.2	
768.47	6068.8	
768.65	6733	
768.83	4287.1	
769	5162.9	
769.18	5726.8	
769.36	6242.2	
769.54	5109.7	
769.72	4248.9	
769.89	6492.1	
770.07	6511.9	
770.25	4541	
770.43	5436.7	
770.6	6974	
770.78	7263.5	
770.96	4649.6	
771.14	5074.2	
771.31	6295.5	
771.49	5844.9	
771.67	3908.9	
771.85	4121.9	
772.02	5149.3	
772.2	5715.2	
772.38	4736.3	
772.55	4233.8	
772.73	5973.9	
772.91	5689.3	
773.09	4546.5	
773.26	4560.1	
773.44	5884.5	
773.62	5586.9	
773.8	4145.1	
773.97	3904.8	
774.15	5855.1	
774.33	5598.5	
774.5	3986	
774.68	4207.9	
774.86	5891.3	
775.04	5522	
775.21	4085	
775.39	3930.1	
775.57	5726.8	
775.74	5988.9	
775.92	3808.5	
776.1	3692.5	
776.27	5625.8	
776.45	6646.3	
776.63	3992.2	
776.81	3655.6	
776.98	5414.8	
777.16	6216.3	
777.34	4046.1	
777.51	4247.5	
777.69	5407.3	
777.87	5145.2	
778.04	4095.9	
778.22	4557.4	
778.4	5184.8	
778.57	5675.6	
778.75	3464.5	
778.93	3654.9	
779.1	5028.4	
779.28	4876.2	
779.46	3471.3	
779.64	3767.6	
779.81	5731.6	
779.99	6408.1	
780.17	4373.1	
780.34	4456.4	
780.52	5364.3	
780.69	5431.9	
780.87	4063.9	
781.05	3669.3	
781.22	5351.3	
781.4	5320.6	
781.58	3816	
781.75	3106.1	
781.93	5345.9	
782.11	4792.9	
782.28	4445.5	
782.46	3702	
782.64	4754.7	
782.81	5433.3	
782.99	3796.3	
783.17	3720.5	
783.34	5339.1	
783.52	4775.2	
783.69	3826.3	
783.87	4495.3	
784.05	4922	
784.22	4795.7	
784.4	4419.5	
784.58	3971	
784.75	5583.4	
784.93	4873.5	
785.1	3647.4	
785.28	4128	
785.46	5305.6	
785.63	4789.5	
785.81	3694.5	
785.99	3475.4	
786.16	4928.8	
786.34	5187.5	
786.51	3514.3	
786.69	3907.5	
786.87	4526.7	
787.04	4937	
787.22	3453.6	
787.39	4143.7	
787.57	4734.2	
787.75	5576.6	
787.92	4320.5	
788.1	4242	
788.27	4720.6	
788.45	4512.4	
788.63	3974.4	
788.8	2999.6	
788.98	5075.5	
789.15	4444.1	
789.33	3088.3	
789.5	3567.6	
789.68	5360.2	
789.86	5515.2	
790.03	3893.2	
790.21	3474.7	
790.38	5525.4	
790.56	4823.6	
790.73	3422.8	
790.91	3377.1	
791.09	4731.5	
791.26	5333.6	
791.44	3579.2	
791.61	3117	
791.79	4697.4	
791.96	4691.9	
792.14	3207.8	
792.32	2899.2	
792.49	4652.3	
792.67	4733.5	
792.84	3274.7	
793.02	3084.2	
793.19	5313.8	
793.37	5509.7	
793.54	2963.4	
793.72	3167.5	
793.89	5576.6	
794.07	4620.2	
794.25	3623.5	
794.42	2920.4	
794.6	5520	
794.77	5149.3	
794.95	3837.9	
795.12	3392.8	
795.3	4657.1	
795.47	5095.3	
795.65	3642	
795.82	3576.4	
796	4547.9	
796.17	5930.2	
796.35	3447.4	
796.52	4016.7	
796.7	5062.6	
796.87	5120.6	
797.05	3455.6	
797.22	4077.5	
797.4	5099.4	
797.57	5889.3	
797.75	3565.5	
797.92	3300.6	
798.1	5391.6	
798.27	4544.4	
798.45	2966.8	
798.62	3098.6	
798.8	4902.8	
798.97	5257.8	
799.15	3695.9	
799.32	3509.5	
799.5	4259.1	
799.67	4906.9	
799.85	3816	
800.02	2897.9	
800.2	4534.2	
800.37	4806.6	
800.55	3899.3	
800.72	3340.9	
800.9	5268.1	
801.07	5550.7	
801.25	4379.9	
801.42	3656.3	
801.6	5270.8	
801.77	4980.7	
801.95	3455.6	
802.12	3251.5	
802.29	4975.9	
802.47	4917.2	
802.64	3603.1	
802.82	2879.4	
802.99	4655	
803.17	5255.8	
803.34	3508.2	
803.52	3177.1	
803.69	5838.1	
803.87	4370.4	
804.04	3493.8	
804.21	3542.3	
804.39	5496.1	
804.56	4745.8	
804.74	3061	
804.91	3631	
805.09	4596.3	
805.26	4627.7	
805.44	3106.1	
805.61	3330	
805.78	5129.5	
805.96	5083.1	
806.13	3646.7	
806.31	3813.3	
806.48	4214.7	
806.66	4678.2	
806.83	3635.8	
807	3526.6	
807.18	4586.8	
807.35	4902.2	
807.53	3475.4	
807.7	2885.6	
807.87	5493.3	
808.05	4611.3	
808.22	3756	
808.4	2895.1	
808.57	4534.2	
808.74	4319.8	
808.92	3213.9	
809.09	4080.9	
809.27	4543.1	
809.44	5013.4	
809.61	2863.1	
809.79	3117	
809.96	5557.5	
810.14	5104.2	
810.31	2823.5	
810.48	3371.6	
810.66	4589.5	
810.83	5143.8	
811.01	3225.6	
811.18	3532.7	
811.35	5155.4	
811.53	4073.4	
811.7	3816	
811.87	3611.3	
812.05	4616.1	
812.22	4496.7	
812.39	3098.6	
812.57	3077.4	
812.74	4571.7	
812.92	5889.3	
813.09	3380.5	
813.26	3616	
813.44	5615.5	
813.61	4433.2	
813.78	2904	
813.96	3755.3	
814.13	4604.5	
814.3	4379.2	
814.48	3999	
814.65	3322.5	
814.82	5472.9	
815	4351.9	
815.17	3424.9	
815.34	4106.2	
815.52	4488.5	
815.69	4509.6	
815.87	3371.6	
816.04	3307.5	
816.21	4549.9	
816.38	4122.6	
816.56	3307.5	
816.73	3167.5	
816.9	5621	
817.08	5135.6	
817.25	3135.4	
817.42	3876.8	
817.6	4222.2	
817.77	4548.5	
817.94	3505.4	
818.12	3115	
818.29	4380.6	
818.46	6400.6	
818.64	3220.8	
818.81	3013.2	
818.98	4377.2	
819.16	5928.2	
819.33	3678.8	
819.5	3379.8	
819.67	4795	
819.85	5337	
820.02	3440.6	
820.19	3547.8	
820.37	4756.1	
820.54	4498.7	
820.71	3525.9	
820.88	4262.5	
821.06	4709	
821.23	4311.7	
821.4	3515.7	
821.58	3512.9	
821.75	5134.9	
821.92	4713.1	
822.09	2811.9	
822.27	2942.2	
822.44	4562.2	
822.61	4436.6	
822.79	2863.7	
822.96	5191.6	
823.13	4883	
823.3	4324.6	
823.48	3299.3	
823.65	2979.1	
823.82	5100.8	
823.99	4216.8	
824.17	4044.7	
824.34	3016	
824.51	5776	
824.68	4594.3	
824.86	3116.3	
825.03	3457.7	
825.2	4571.1	
825.37	5327.4	
825.55	3164.8	
825.72	3442	
825.89	5767.1	
826.06	5444.9	
826.24	3343.7	
826.41	3381.2	
826.58	5454.4	
826.75	4751.3	
826.92	2735.4	
827.1	2964.8	
827.27	7110.5	
827.44	5722	
827.61	3248.1	
827.79	3794.9	
827.96	4406.5	
828.13	4569	
828.3	3349.1	
828.47	2810.5	
828.65	4810	
828.82	4706.9	
828.99	4148.5	
829.16	3652.2	
829.34	5094	
829.51	4880.3	
829.68	3431.7	
829.85	3532.7	
830.02	5408	
830.2	5111.7	
830.37	2765.4	
830.54	4029	
830.71	5616.2	
830.88	4552	
831.05	2714.2	
831.23	3054.9	
831.4	5526.1	
831.57	5955.5	
831.74	3119.1	
831.91	2824.1	
832.09	4859.1	
832.26	5029.1	
832.43	3263.1	
832.6	3610.6	
832.77	4834.6	
832.94	5336.3	
833.12	2686.3	
833.29	3225.6	
833.46	4488.5	
833.63	6129.6	
833.8	3523.9	
833.97	3259.7	
834.15	5111.7	
834.32	4941.1	
834.49	3347.7	
834.66	3448.1	
834.83	5206.6	
835	4412	
835.17	3148.4	
835.35	3181.2	
835.52	5013.4	
835.69	4913.1	
835.86	3317	
836.03	2735.4	
836.2	5079.6	
836.37	4737.6	
836.55	3268.6	
836.72	3039.2	
836.89	4678.2	
837.06	5094	
837.23	3300.6	
837.4	3517.7	
837.57	5687.2	
837.75	6180.8	
837.92	2987.3	
838.09	3179.1	
838.26	4698	
838.43	5246.9	
838.6	3433.1	
838.77	3069.9	
838.94	5902.2	
839.11	5692	
839.29	3234.4	
839.46	2660.3	
839.63	5115.1	
839.8	4786.1	
839.97	3160	
840.14	3155.2	
840.31	4922	
840.48	5069.4	
840.65	2703.3	
840.82	3108.8	
841	4994.3	
841.17	4974.5	
841.34	2914.3	
841.51	3009.8	
841.68	5012.7	
841.85	4793.6	
842.02	3123.2	
842.19	2615.3	
842.36	4848.9	
842.53	4851.6	
842.7	2979.8	
842.87	3504.8	
843.05	6105	
843.22	4785.4	
843.39	2869.2	
843.56	3041.2	
843.73	4674.1	
843.9	5169.8	
844.07	4575.8	
844.24	3824.2	
844.41	6905.8	
844.58	4440	
844.75	2859.6	
844.92	3058.3	
845.09	5034.6	
845.26	5048.2	
845.43	2911.5	
845.6	3073.3	
845.77	5081.7	
845.94	4880.3	
846.12	3177.8	
846.29	3374.4	
846.46	5238.7	
846.63	5008	
846.8	2924.5	
846.97	3414.6	
847.14	5383.4	
847.31	4986.8	
847.48	3281.5	
847.65	3546.4	
847.82	5202.5	
847.99	5116.5	
848.16	3813.3	
848.33	3516.4	
848.5	4640.7	
848.67	5394.3	
848.84	2893.8	
849.01	3031	
849.18	4655	
849.35	4351.9	
849.52	3544.4	
849.69	2877.4	
849.86	5208	
850.03	5284.4	
850.2	2952.5	
850.37	3503.4	
850.54	5309	
850.71	4741	
850.88	3450.8	
851.05	2932	
851.22	4926.7	
851.39	5432.6	
851.56	2783.2	
851.73	3321.1	
851.9	4476.9	
852.07	5199.8	
852.24	3192.8	
852.41	2878.1	
852.58	4951.3	
852.75	4524	
852.92	3263.1	
853.09	2838.5	
853.26	4646.8	
853.43	5341.8	
853.6	2927.2	
853.77	2508.8	
853.94	5386.8	
854.11	4422.2	
854.28	4177.2	
854.44	3157.3	
854.61	5753.4	
854.78	5178.6	
854.95	2902.7	
855.12	3597.6	
855.29	4147.1	
855.46	5423	
855.63	2913.6	
855.8	3903.4	
855.97	4674.8	
856.14	5260.5	
856.31	4074.8	
856.48	3111.5	
856.65	4670.1	
856.82	4427.7	
856.99	2765.4	
857.16	3140.9	
857.33	5892	
857.49	4769	
857.66	3112.2	
857.83	3323.2	
858	4782	
858.17	4938.3	
858.34	2780.5	
858.51	2892.4	
858.68	5504.9	
858.85	5549.3	
859.02	3325.2	
859.19	3531.4	
859.36	4519.2	
859.52	4443.4	
859.69	2940.9	
859.86	3385.3	
860.03	4534.9	
860.2	5419.6	
860.37	2743.6	
860.54	2913.6	
860.71	5189.6	
860.88	5457.2	
861.05	3277.4	
861.21	3588	
861.38	5491.3	
861.55	4351.9	
861.72	2685.6	
861.89	3231.7	
862.06	5246.9	
862.23	5558.9	
862.4	2863.7	
862.56	2985.9	
862.73	5117.2	
862.9	4856.4	
863.07	3303.4	
863.24	2684.9	
863.41	4447.5	
863.58	4483.7	
863.75	2968.2	
863.91	3326.6	
864.08	5390.9	
864.25	5104.2	
864.42	3556	
864.59	3977.8	
864.76	5733.6	
864.93	4490.5	
865.09	2833.7	
865.26	3138.2	
865.43	5377.3	
865.6	5679.7	
865.77	2551.8	
865.94	2882.9	
866.1	5363.6	
866.27	5164.3	
866.44	4212	
866.61	2821.4	
866.78	4775.9	
866.95	5061.2	
867.11	2811.9	
867.28	2609.8	
867.45	5298.8	
867.62	4462.5	
867.79	3335.5	
867.96	2864.4	
868.12	4478.2	
868.29	5188.2	
868.46	2923.1	
868.63	3757.3	
868.8	5300.8	
868.97	5096.7	
869.13	2973	
869.3	3042.6	
869.47	5015.5	
869.64	5190.2	
869.81	2888.3	
869.97	2931.3	
870.14	4981.3	
870.31	5536.3	
870.48	2852.1	
870.65	3611.3	
870.81	4771.1	
870.98	4766.3	
871.15	3221.5	
871.32	2987.3	
871.48	5055.1	
871.65	5479.7	
871.82	2906.8	
871.99	3159.3	
872.16	5877	
872.32	5416.2	
872.49	2947	
872.66	2883.5	
872.83	5142.4	
872.99	4606.6	
873.16	3314.3	
873.33	2896.5	
873.5	4883.7	
873.67	4928.1	
873.83	3051.5	
874	3762.1	
874.17	4976.6	
874.34	5765.7	
874.5	3655.6	
874.67	3514.3	
874.84	5430.5	
875.01	4367.6	
875.17	3981.3	
875.34	2859	
875.51	4958.1	
875.68	5852.4	
875.84	3448.8	
876.01	4078.9	
876.18	5117.2	
876.34	5100.8	
876.51	2855.6	
876.68	2832.3	
876.85	4741.7	
877.01	5389.6	
877.18	4044.7	
877.35	2892.4	
877.52	4924.7	
877.68	4451.6	
877.85	2848.7	
878.02	2892.4	
878.18	4806.6	
878.35	4647.5	
878.52	2362.7	
878.69	3222.8	
878.85	5282.4	
879.02	5067.4	
879.19	4049.5	
879.35	3090.4	
879.52	5128.1	
879.69	5228.5	
879.86	2547.7	
880.02	3269.2	
880.19	4803.9	
880.36	5689.9	
880.52	3315.7	
880.69	3388	
880.86	5227.1	
881.02	5261.2	
881.19	3231	
881.36	3121.1	
881.52	5095.3	
881.69	4556.7	
881.86	3136.8	
882.02	3049.4	
882.19	5360.2	
882.36	6115.9	
882.52	2932	
882.69	4008.6	
882.86	4945.2	
883.02	4917.2	
883.19	3556	
883.36	3304.1	
883.52	5237.3	
883.69	5819	
883.86	2962.7	
884.02	2680.1	
884.19	5159.5	
884.36	4866	
884.52	3226.2	
884.69	3113.6	
884.86	4670.1	
885.02	5611.4	
885.19	3182.5	
885.36	3274.7	
885.52	4799.8	
885.69	4958.1	
885.86	4007.2	
886.02	3590.1	
886.19	5189.6	
886.35	4663.2	
886.52	3145.7	
886.69	3936.9	
886.85	4481	
887.02	5366.4	
887.19	5366.4	
887.35	5366.4	
887.52	5366.4	
887.68	5366.4	
887.85	5366.4	
888.02	5366.4	
888.18	5366.4	
888.35	5366.4	
888.51	5366.4	
888.68	5366.4	
888.85	5366.4	
889.01	5366.4	
889.18	5366.4	
889.35	5366.4	
889.51	5366.4	
889.68	5366.4	
889.84	5366.4	
890.01	5366.4	
890.17	5366.4	
890.34	5366.4	
890.51	5366.4	
890.67	5366.4	
890.84	5366.4	
891	5366.4	
891.17	5366.4	
891.34	5366.4	
891.5	5366.4	
891.67	5366.4	
891.83	5366.4	
892	5366.4	
892.16	5366.4	
892.33	5366.4	
892.5	5366.4	
892.66	5366.4	
892.83	5366.4	
892.99	5366.4	
893.16	5366.4	
893.32	5366.4	
893.49	5366.4	
893.65	5366.4	
893.82	5366.4	
893.99	5366.4	
894.15	5366.4	
894.32	5366.4	
894.48	5366.4	
894.65	5366.4	
894.81	5366.4	
894.98	5366.4	
895.14	5366.4	
895.31	5366.4	
895.47	5366.4	
895.64	5366.4	
895.81	5366.4	
895.97	5366.4	
896.14	5366.4	
896.3	5366.4	
896.47	5366.4	
896.63	5366.4	
896.8	5366.4	
896.96	5366.4	
897.13	5366.4	
897.29	5366.4	
897.46	5366.4	
897.62	5366.4	
897.79	5366.4	
897.95	5366.4	
898.12	5366.4	
898.28	5366.4	
898.45	5366.4	
898.61	5366.4	
898.78	5366.4	
898.94	5366.4	
899.11	5366.4	
899.27	5366.4	
899.44	5366.4	
899.6	5366.4	
899.77	5366.4	
899.93	5366.4	
900.1	5366.4	
900.26	5366.4	
900.43	5366.4	
900.59	5366.4	
900.76	5366.4	
900.92	5366.4	
901.09	5366.4	
901.25	5366.4	
901.42	5366.4	
901.58	5366.4	
901.75	5366.4	
901.91	5366.4	
902.07	5366.4	
902.24	5366.4	
902.4	5366.4	
902.57	5366.4	
902.73	5366.4	
902.9	5366.4	
903.06	5366.4	
903.23	5366.4	
903.39	5366.4	
903.56	5366.4	
903.72	5366.4	
903.88	5366.4	
904.05	5366.4	
904.21	5366.4	
904.38	5366.4	
904.54	5366.4	
904.71	5366.4	
904.87	5366.4	
905.03	5366.4	
905.2	5366.4	
905.36	5366.4	
905.53	5366.4	
905.69	5366.4	
905.86	5366.4	
906.02	5366.4	
906.18	5366.4	
906.35	5366.4	
906.51	5366.4	
906.68	5366.4	
906.84	5366.4	
907.01	5366.4	
907.17	5366.4	
907.33	5366.4	
907.5	5366.4	
907.66	5366.4	
907.83	5366.4	
907.99	5366.4	
908.15	5366.4	
908.32	5366.4	
908.48	5366.4	
908.65	5366.4	
908.81	5366.4	
908.97	5366.4	
909.14	5366.4	
909.3	5366.4	
909.47	5366.4	
909.63	5366.4	
909.79	5366.4	
909.96	5366.4	
910.12	5366.4	
910.28	5366.4	
910.45	5366.4	
910.61	5366.4	
910.78	5366.4	
910.94	5366.4	
911.1	5366.4	
911.27	5366.4	
911.43	5366.4	
911.59	5366.4	
911.76	5366.4	
911.92	5366.4	
912.08	5366.4	
912.25	5366.4	
912.41	5366.4	
912.57	5366.4	
912.74	5366.4	
912.9	5366.4	
913.07	5366.4	
913.23	5366.4	
913.39	5366.4	
913.56	5366.4	
913.72	5366.4	
913.88	5366.4	
914.05	5366.4	
914.21	5366.4	
914.37	5366.4	
914.54	5366.4	
914.7	5366.4	
914.86	5366.4	
915.03	5366.4	
915.19	5366.4	
