Wavelength	Intensities	
nm	a.u.	
179.22	1928.5	
179.44	1915.5	
179.65	1941.5	
179.86	1889.6	
180.08	1868.4	
180.29	4899.4	
180.51	3535.5	
180.72	5700.9	
180.94	6668.9	
181.15	3209.8	
181.37	3189.4	
181.58	5564.3	
181.79	5895.4	
182.01	3433.1	
182.22	3660.4	
182.44	5816.2	
182.65	4869.4	
182.87	4558.8	
183.08	3986	
183.29	6083.8	
183.51	5012.1	
183.72	3667.9	
183.94	5358.2	
184.15	5350.7	
184.37	5445.5	
184.58	3215.3	
184.79	4475.5	
185.01	5060.5	
185.22	5782.8	
185.44	4724.7	
185.65	3875.4	
185.86	5296.7	
186.08	4936.3	
186.29	3133.4	
186.51	3440.6	
186.72	5033.2	
186.94	5924.1	
187.15	3930.1	
187.36	4031.8	
187.58	7780.9	
187.79	5528.8	
188.01	4236.6	
188.22	6568.5	
188.43	6683.9	
188.65	5741.8	
188.86	3374.4	
189.08	4019.5	
189.29	5277.6	
189.5	5195	
189.72	3780.6	
189.93	3822.9	
190.15	6021	
190.36	7189.7	
190.57	4143	
190.79	3997	
191	6062.7	
191.22	5977.3	
191.43	4090.5	
191.64	3400.3	
191.86	6286.6	
192.07	6083.1	
192.29	3531.4	
192.5	3734.1	
192.71	6011.5	
192.93	5175.2	
193.14	3746.4	
193.35	3837.2	
193.57	5132.2	
193.78	6025.1	
194	2964.1	
194.21	3685.7	
194.42	4990.2	
194.64	5413.5	
194.85	4070.7	
195.07	4730.1	
195.28	5465.3	
195.49	4702.8	
195.71	5006.6	
195.92	3448.8	
196.13	5667.4	
196.35	5775.3	
196.56	5356.1	
196.78	4073.4	
196.99	7111.2	
197.2	6673	
197.42	4614.8	
197.63	4136.2	
197.84	4831.2	
198.06	5642.2	
198.27	3717.7	
198.48	4952	
198.7	5204.6	
198.91	5304.2	
199.13	4111	
199.34	4098.7	
199.55	5829.9	
199.77	4666.6	
199.98	3614	
200.19	4132.8	
200.41	5255.8	
200.62	5035.3	
200.83	4250.2	
201.05	4585.4	
201.26	5291.3	
201.47	5076.2	
201.69	3629	
201.9	3481.5	
202.11	5407.3	
202.33	6460	
202.54	3877.5	
202.76	4384.7	
202.97	5575.9	
203.18	5581.4	
203.4	4314.4	
203.61	4177.9	
203.82	5512.4	
204.04	5129.5	
204.25	4148.5	
204.46	4036.5	
204.68	5436.7	
204.89	5722	
205.1	3948.5	
205.32	3431.7	
205.53	5814.9	
205.74	5967.1	
205.96	2886.3	
206.17	4160.8	
206.38	5796.4	
206.6	5943.2	
206.81	4683	
207.02	3813.3	
207.24	5686.5	
207.45	6134.3	
207.66	3885	
207.88	3388.7	
208.09	5689.9	
208.3	5389.6	
208.52	3591.5	
208.73	3996.3	
208.94	5439.4	
209.15	6134.3	
209.37	3877.5	
209.58	4121.2	
209.79	5964.4	
210.01	5171.1	
210.22	3083.6	
210.43	3237.2	
210.65	5381.4	
210.86	5869.5	
211.07	3889.1	
211.29	3594.9	
211.5	5860.6	
211.71	5372.5	
211.93	3592.8	
212.14	3528.7	
212.35	5348.6	
212.56	5601.9	
212.78	4218.8	
212.99	3350.5	
213.2	6417.7	
213.42	5154.7	
213.63	3700	
213.84	3969	
214.06	4829.8	
214.27	4937.7	
214.48	3860.4	
214.69	4135.5	
214.91	6094.8	
215.12	6168.5	
215.33	4230.4	
215.55	4654.4	
215.76	6728.3	
215.97	5782.8	
216.18	4048.8	
216.4	3944.4	
216.61	5132.2	
216.82	5956.9	
217.04	3546.4	
217.25	3816.7	
217.46	6029.9	
217.67	5894.7	
217.89	3163.4	
218.1	3298.6	
218.31	5455.8	
218.53	5603.2	
218.74	3764.2	
218.95	3606.5	
219.16	5393	
219.38	6354.2	
219.59	3695.9	
219.8	4321.9	
220.01	7024.5	
220.23	5503.6	
220.44	4791.6	
220.65	3560.1	
220.87	5496.1	
221.08	6025.8	
221.29	3227.6	
221.5	4478.2	
221.72	7424.6	
221.93	5121.3	
222.14	4119.1	
222.35	4801.8	
222.57	5437.4	
222.78	5773.2	
222.99	3898	
223.2	4166.3	
223.42	5731.6	
223.63	5857.2	
223.84	3007.8	
224.05	2974.3	
224.27	7015	
224.48	6341.2	
224.69	4879.6	
224.9	4157.4	
225.12	5613.5	
225.33	5417.6	
225.54	3252.9	
225.75	3667.9	
225.97	5029.1	
226.18	5266.7	
226.39	3940.3	
226.6	3639.2	
226.82	5160.2	
227.03	5049.6	
227.24	4080.2	
227.45	3366.9	
227.67	5758.9	
227.88	6410.8	
228.09	4567.7	
228.3	4557.4	
228.52	5924.8	
228.73	5400.5	
228.94	3799	
229.15	3381.9	
229.36	5329.5	
229.58	5302.2	
229.79	3849.5	
230	4492.6	
230.21	6510.5	
230.43	5495.4	
230.64	4047.5	
230.85	4263.2	
231.06	5816.9	
231.28	5881.1	
231.49	3403.7	
231.7	3964.9	
231.91	5727.5	
232.12	5480.4	
232.34	3417.4	
232.55	3961.5	
232.76	6109.1	
232.97	5647.6	
233.18	3611.9	
233.4	4047.5	
233.61	5665.4	
233.82	5190.2	
234.03	3723.2	
234.25	3695.9	
234.46	7591.1	
234.67	5466.7	
234.88	4188.1	
235.09	3618.1	
235.31	5733.6	
235.52	5333.6	
235.73	4073.4	
235.94	3418.7	
236.15	5089.2	
236.37	6573.3	
236.58	3631	
236.79	3952.6	
237	5767.8	
237.21	4897.4	
237.43	4251.6	
237.64	3356.6	
237.85	9924.5	
238.06	4964.3	
238.27	4289.8	
238.48	3390.8	
238.7	5759.6	
238.91	5298.1	
239.12	3904.1	
239.33	3998.3	
239.54	5137	
239.76	5356.8	
239.97	3885	
240.18	3902.7	
240.39	6849.8	
240.6	5735.7	
240.82	4074.1	
241.03	3321.1	
241.24	5418.9	
241.45	6346	
241.66	3565.5	
241.87	4227	
242.09	6184.9	
242.3	6533.7	
242.51	4321.9	
242.72	3934.8	
242.93	5909.8	
243.14	5386.8	
243.36	4526.7	
243.57	4911	
243.78	6361.7	
243.99	5758.9	
244.2	3915.7	
244.41	3611.3	
244.63	5031.2	
244.84	5856.5	
245.05	4198.3	
245.26	3918.4	
245.47	5644.9	
245.68	6008.7	
245.9	5224.4	
246.11	4090.5	
246.32	5243.5	
246.53	5719.3	
246.74	6441.5	
246.95	3279.5	
247.16	4913.8	
247.38	5407.3	
247.59	3278.1	
247.8	3920.5	
248.01	5142.4	
248.22	5321.3	
248.43	3513.6	
248.64	3840.6	
248.86	4776.5	
249.07	5186.1	
249.28	3430.3	
249.49	4024.9	
249.7	6005.3	
249.91	6130.9	
250.12	3234.4	
250.34	3360.7	
250.55	5532.2	
250.76	5503.6	
250.97	4078.2	
251.18	4079.6	
251.39	6180.1	
251.6	5564.3	
251.81	4164.2	
252.03	4126.7	
252.24	5089.2	
252.45	5966.4	
252.66	3401	
252.87	4335.5	
253.08	5464.7	
253.29	7210.2	
253.5	3469.3	
253.72	4779.3	
253.93	5305.6	
254.14	6511.9	
254.35	3756.7	
254.56	3818.8	
254.77	5729.5	
254.98	5035.3	
255.19	3689.8	
255.41	4758.1	
255.62	5534.3	
255.83	6114.6	
256.04	4257.7	
256.25	4071.4	
256.46	6683.2	
256.67	5125.4	
256.88	4060.4	
257.09	4502.8	
257.31	5134.3	
257.52	5115.1	
257.73	5119.9	
257.94	3785.3	
258.15	5258.5	
258.36	5472.2	
258.57	4748.6	
258.78	2994.1	
258.99	5959.6	
259.2	5293.3	
259.41	3762.8	
259.63	3874.8	
259.84	6378.1	
260.05	6776.7	
260.26	4941.7	
260.47	3652.2	
260.68	6022.4	
260.89	5328.1	
261.1	4489.8	
261.31	3594.9	
261.52	6020.3	
261.73	6396.5	
261.95	4883.7	
262.16	4247.5	
262.37	6146.6	
262.58	6287.3	
262.79	4825.7	
263	3832.4	
263.21	5518.6	
263.42	4970.4	
263.63	3916.4	
263.84	3735.5	
264.05	6022.4	
264.26	6446.3	
264.47	4700.1	
264.69	4216.8	
264.9	6126.2	
265.11	5693.4	
265.32	3637.9	
265.53	3704.1	
265.74	5568.4	
265.95	4857.1	
266.16	4017.4	
266.37	4408.6	
266.58	5501.5	
266.79	5224.4	
267	3713.6	
267.21	3442	
267.42	4994.3	
267.63	5466.7	
267.84	3948.5	
268.06	3388.7	
268.27	5842.2	
268.48	6184.9	
268.69	3800.3	
268.9	4585.4	
269.11	6158.9	
269.32	4969.7	
269.53	3934.8	
269.74	3621.5	
269.95	5743.9	
270.16	4814.8	
270.37	3927.3	
270.58	4572.4	
270.79	5287.9	
271	5970.5	
271.21	4244.1	
271.42	3925.3	
271.63	5568.4	
271.84	5080.3	
272.05	3168.9	
272.26	3489.7	
272.47	5520.6	
272.68	5671.5	
272.89	3761.4	
273.11	4359.4	
273.32	5171.1	
273.53	6420.4	
273.74	4265.2	
273.95	4184	
274.16	6115.2	
274.37	5519.3	
274.58	4328	
274.79	3450.1	
275	5596.4	
275.21	6206.7	
275.42	5140.4	
275.63	4420.2	
275.84	5695.4	
276.05	7216.4	
276.26	4143	
276.47	3926	
276.68	5295.4	
276.89	6508.4	
277.1	4427.7	
277.31	3429.7	
277.52	5709.7	
277.73	5861.3	
277.94	3412.6	
278.15	3738.9	
278.36	5677	
278.57	5115.8	
278.78	3738.2	
278.99	4252.9	
279.2	5059.8	
279.41	5009.3	
279.62	4963.6	
279.83	3453.6	
280.04	6683.2	
280.25	5026.4	
280.46	4898.7	
280.67	3929.4	
280.88	5020.9	
281.09	6112.5	
281.3	4085	
281.51	5232.6	
281.72	5135.6	
281.93	6023.1	
282.14	3624.2	
282.35	3927.3	
282.56	5950.7	
282.77	5979.4	
282.98	3757.3	
283.19	4719.2	
283.4	7298.3	
283.61	5401.2	
283.82	3439.9	
284.03	4926.7	
284.24	5568.4	
284.45	6064	
284.66	4885.8	
284.87	4629.8	
285.08	6093.4	
285.29	6196.5	
285.5	3308.2	
285.71	3872.7	
285.92	6078.4	
286.12	6722.8	
286.33	4941.7	
286.54	3806.5	
286.75	5896.1	
286.96	5273.5	
287.17	3490.4	
287.38	4829.8	
287.59	5053.7	
287.8	5012.1	
288.01	3861.1	
288.22	4445.5	
288.43	6053.8	
288.64	4970.4	
288.85	4582	
289.06	4362.9	
289.27	5886.5	
289.48	6390.3	
289.69	4909	
289.9	4375.1	
290.11	6099.5	
290.32	5225.1	
290.53	4631.1	
290.74	4292.5	
290.94	5941.8	
291.15	5923.4	
291.36	3637.2	
291.57	4406.5	
291.78	5165	
291.99	4850.3	
292.2	3510.9	
292.41	4237.9	
292.62	6020.3	
292.83	5753.4	
293.04	5317.2	
293.25	3564.1	
293.46	5251.7	
293.67	6034	
293.88	3660.4	
294.09	3581.9	
294.29	4969.7	
294.5	5625.8	
294.71	3960.1	
294.92	3754.6	
295.13	5257.8	
295.34	6586.3	
295.55	3301.3	
295.76	3471.3	
295.97	5912.5	
296.18	6617	
296.39	3523.2	
296.6	3693.9	
296.81	5610.8	
297.01	5891.3	
297.22	3844	
297.43	3646.1	
297.64	5149.3	
297.85	5070.8	
298.06	3049.4	
298.27	3343	
298.48	5480.4	
298.69	5162.2	
298.9	3986	
299.11	3616	
299.31	4984.1	
299.52	5000.5	
299.73	4296	
299.94	4190.8	
300.15	5438	
300.36	5051	
300.57	4188.1	
300.78	4162.2	
300.99	5335.6	
301.2	5555.5	
301.4	3668.6	
301.61	4018.8	
301.82	5764.3	
302.03	5872.9	
302.24	4493.9	
302.45	3467.9	
302.66	5739.8	
302.87	6239.5	
303.08	3677.5	
303.29	5072.8	
303.49	5136.3	
303.7	5477.6	
303.91	3287.7	
304.12	4793.6	
304.33	4990.2	
304.54	5612.1	
304.75	3725.9	
304.96	3540.3	
305.16	5813.5	
305.37	6557.6	
305.58	3159.3	
305.79	3350.5	
306	5825.8	
306.21	4887.1	
306.42	3711.6	
306.63	5679.7	
306.83	5354.8	
307.04	6099.5	
307.25	4063.2	
307.46	4029	
307.67	4671.4	
307.88	5921.4	
308.09	3621.5	
308.29	3837.9	
308.5	5587.5	
308.71	6085.9	
308.92	3936.2	
309.13	3546.4	
309.34	5271.5	
309.55	5324.7	
309.75	4654.4	
309.96	4248.2	
310.17	5851.7	
310.38	5149.3	
310.59	4452.3	
310.8	3434.4	
311.01	5532.2	
311.21	5341.8	
311.42	3506.8	
311.63	3627.6	
311.84	5207.3	
312.05	5552	
312.26	4152.6	
312.46	4520.5	
312.67	5248.3	
312.88	4980.7	
313.09	3593.5	
313.3	3508.2	
313.51	6276.3	
313.71	6649.1	
313.92	3537.5	
314.13	3776.5	
314.34	5662.6	
314.55	5378	
314.76	4623.6	
314.96	4027	
315.17	5543.9	
315.38	5902.9	
315.59	3558.7	
315.8	3452.2	
316.01	6398.5	
316.21	6366.5	
316.42	3403	
316.63	3996.3	
316.84	5339.7	
317.05	6201.2	
317.26	4229.7	
317.46	3824.2	
317.67	5395	
317.88	5881.8	
318.09	4523.3	
318.3	3313.6	
318.5	5160.9	
318.71	5775.3	
318.92	5896.8	
319.13	4246.1	
319.34	6016.9	
319.54	6098.9	
319.75	3313.6	
319.96	3164.8	
320.17	5851	
320.38	6015.6	
320.58	3234.4	
320.79	3923.9	
321	6032	
321.21	6253.8	
321.42	3923.9	
321.62	3228.3	
321.83	5029.8	
322.04	5526.8	
322.25	3760.8	
322.46	3579.2	
322.66	5599.1	
322.87	5694.7	
323.08	4465.3	
323.29	3553.2	
323.5	6522.8	
323.7	5036	
323.91	4919.2	
324.12	4416.1	
324.33	5520	
324.53	5854.5	
324.74	4263.2	
324.95	4453.6	
325.16	4853	
325.37	5287.9	
325.57	3515	
325.78	3647.4	
325.99	5489.2	
326.2	4998.4	
326.4	5024.3	
326.61	3280.8	
326.82	5418.2	
327.03	5618.3	
327.24	5073.5	
327.44	4911.7	
327.65	5735	
327.86	4641.4	
328.07	4205.8	
328.27	3399.6	
328.48	6148	
328.69	5046.2	
328.9	5155.4	
329.1	3834.5	
329.31	5324.7	
329.52	6311.2	
329.73	3556.6	
329.93	3977.8	
330.14	5433.9	
330.35	5708.4	
330.56	5913.2	
330.76	4450.9	
330.97	5272.8	
331.18	5652.4	
331.39	3993.5	
331.59	3210.5	
331.8	6027.9	
332.01	6185.5	
332.22	3680.2	
332.42	4257	
332.63	5581.4	
332.84	5126.7	
333.05	3988.1	
333.25	3580.5	
333.46	5240.8	
333.67	5484.5	
333.88	3718.4	
334.08	4190.8	
334.29	7462.8	
334.5	6141.9	
334.7	3478.8	
334.91	5141.8	
335.12	4997	
335.33	5827.2	
335.53	3942.3	
335.74	5932.3	
335.95	5204.6	
336.16	5101.5	
336.36	3996.3	
336.57	4622.3	
336.78	4934.2	
336.98	6062	
337.19	4917.9	
337.4	3866.6	
337.61	6623.8	
337.81	4939	
338.02	3614	
338.23	4789.5	
338.43	6249.7	
338.64	5156.1	
338.85	3594.2	
339.05	4755.4	
339.26	6349.4	
339.47	4900.1	
339.68	3603.7	
339.88	5332.9	
340.09	5644.2	
340.3	6026.5	
340.5	4158.7	
340.71	3192.1	
340.92	4947.2	
341.13	6264.1	
341.33	3520.5	
341.54	4256.4	
341.75	5686.5	
341.95	5322	
342.16	4048.8	
342.37	4385.4	
342.57	5035.3	
342.78	5434.6	
342.99	4442	
343.19	3235.1	
343.4	5846.3	
343.61	5711.1	
343.81	3846.1	
344.02	3535.5	
344.23	5885.2	
344.43	6307.1	
344.64	4465.9	
344.85	4368.3	
345.06	5693.4	
345.26	6125.5	
345.47	4169	
345.68	4862.6	
345.88	4800.4	
346.09	5937.1	
346.3	4318.5	
346.5	3157.3	
346.71	5498.1	
346.92	5169.1	
347.12	3304.1	
347.33	4217.5	
347.54	6057.2	
347.74	6509.8	
347.95	4083.6	
348.16	3072.6	
348.36	5337	
348.57	5055.8	
348.78	4115.7	
348.98	4439.3	
349.19	5425.8	
349.39	4937.7	
349.6	3279.5	
349.81	3644	
350.01	5718.6	
350.22	5181.4	
350.43	3948.5	
350.63	4818.2	
350.84	5475.6	
351.05	5346.6	
351.25	3656.3	
351.46	3270.6	
351.67	6113.2	
351.87	5147.9	
352.08	3895.2	
352.29	4410	
352.49	5976	
352.7	6097.5	
352.9	3558	
353.11	4398.4	
353.32	6589.7	
353.52	5341.1	
353.73	3478.1	
353.94	4429.8	
354.14	5801.9	
354.35	5634.6	
354.55	3640.6	
354.76	4055	
354.97	5792.3	
355.17	5515.9	
355.38	3399.6	
355.59	4756.7	
355.79	5250.3	
356	5654.4	
356.2	3981.3	
356.41	3523.2	
356.62	4969.7	
356.82	5416.2	
357.03	4294.6	
357.24	3888.4	
357.44	5264	
357.65	5357.5	
357.85	5169.1	
358.06	4052.2	
358.27	5009.3	
358.47	5175.2	
358.68	3435.1	
358.88	4348.5	
359.09	5748	
359.3	6199.2	
359.5	5007.3	
359.71	4420.2	
359.91	6677.7	
360.12	6001.2	
360.33	4265.2	
360.53	4755.4	
360.74	5277.6	
360.94	5292.6	
361.15	4522.6	
361.36	3753.2	
361.56	6109.8	
361.77	5496.7	
361.97	5044.8	
362.18	3990.8	
362.38	6072.9	
362.59	5174.5	
362.8	3713.6	
363	3493.8	
363.21	5021.6	
363.41	5713.2	
363.62	4179.9	
363.83	5268.1	
364.03	5750	
364.24	6728.3	
364.44	5290.6	
364.65	5428.5	
364.85	5537.7	
365.06	5128.8	
365.27	3892.5	
365.47	3904.1	
365.68	6460	
365.88	5449	
366.09	4271.4	
366.29	4019.5	
366.5	5745.2	
366.71	6201.9	
366.91	5367.7	
367.12	4471.4	
367.32	6735.1	
367.53	6034	
367.73	4444.8	
367.94	5382.1	
368.14	5955.5	
368.35	6932.4	
368.56	4390.2	
368.76	3796.3	
368.97	6026.5	
369.17	7877.9	
369.38	3874.1	
369.58	4162.8	
369.79	5143.1	
369.99	6423.1	
370.2	5138.4	
370.4	4231.8	
370.61	5814.9	
370.82	7002	
371.02	4100	
371.23	3528	
371.43	4993.6	
371.64	6377.4	
371.84	4160.8	
372.05	5421	
372.25	7669	
372.46	6151.4	
372.66	4239.3	
372.87	4217.5	
373.07	6176	
373.28	7718.8	
373.48	5251	
373.69	4955.4	
373.9	5621.7	
374.1	5767.1	
374.31	5204.6	
374.51	4780.6	
374.72	6551.5	
374.92	5394.3	
375.13	5388.9	
375.33	4579.3	
375.54	6073.6	
375.74	5579.3	
375.95	4620.2	
376.15	5920	
376.36	6135	
376.56	5959.6	
376.77	4691.2	
376.97	5177.9	
377.18	7174.7	
377.38	6227.2	
377.59	5573.2	
377.79	4188.8	
378	6023.1	
378.2	6458.6	
378.41	4331.5	
378.61	4261.1	
378.82	6493.4	
379.02	5657.9	
379.23	4435.9	
379.43	5628.5	
379.64	6554.2	
379.84	6221.7	
380.05	4321.9	
380.25	4217.5	
380.46	6296.1	
380.66	5825.1	
380.87	5588.9	
381.07	6000.5	
381.28	6894.8	
381.48	6318	
381.69	4284.4	
381.89	4373.8	
382.1	5278.3	
382.3	6538.5	
382.51	5415.5	
382.71	6298.2	
382.91	6297.5	
383.12	6761.7	
383.32	4590.2	
383.53	4878.3	
383.73	6110.5	
383.94	5874.9	
384.14	4691.2	
384.35	3971.7	
384.55	5798.5	
384.76	6244.3	
384.96	4575.2	
385.17	4919.9	
385.37	6238.8	
385.58	5513.8	
385.78	4956.1	
385.98	3861.8	
386.19	5765	
386.39	6141.2	
386.6	4395.6	
386.8	4648.2	
387.01	6281.1	
387.21	6293.4	
387.42	5091.3	
387.62	5719.3	
387.83	5640.8	
388.03	6277	
388.23	4747.9	
388.44	5494	
388.64	5322	
388.85	5533.6	
389.05	5062.6	
389.26	5697.4	
389.46	7326.9	
389.67	6769.2	
389.87	5143.1	
390.07	5077.6	
390.28	6018.3	
390.48	5564.3	
390.69	4318.5	
390.89	4633.2	
391.1	5696.1	
391.3	6686.6	
391.5	5846.3	
391.71	6436.8	
391.91	6436.8	
392.12	7488.1	
392.32	5879	
392.53	5046.2	
392.73	5745.2	
392.93	5985.5	
393.14	4778.6	
393.34	5851	
393.55	6508.4	
393.75	5909.1	
393.95	4780.6	
394.16	4661.9	
394.36	5738.4	
394.57	6398.5	
394.77	4251.6	
394.98	4622.3	
395.18	5735.7	
395.38	5999.9	
395.59	5655.1	
395.79	4526	
396	5904.3	
396.2	6474.3	
396.4	5357.5	
396.61	5343.2	
396.81	6597.2	
397.02	5808.7	
397.22	5650.3	
397.42	5696.1	
397.63	6533	
397.83	5811.5	
398.04	4527.4	
398.24	5004.6	
398.44	6324.1	
398.65	5422.3	
398.85	4327.4	
399.05	4533.5	
399.26	5739.1	
399.46	7504.4	
399.67	4932.2	
399.87	4614.1	
400.07	6211.5	
400.28	6505	
400.48	4698	
400.69	5764.3	
400.89	6752.8	
401.09	7264.8	
401.3	4569	
401.5	5747.3	
401.7	7428.7	
401.91	7716.7	
402.11	4972.5	
402.32	5195.7	
402.52	6706.4	
402.72	6647	
402.93	5360.2	
403.13	4088.4	
403.33	7354.9	
403.54	6036	
403.74	4965.6	
403.94	5807.4	
404.15	6171.2	
404.35	7347.4	
404.56	4778.6	
404.76	6666.8	
404.96	6667.5	
405.17	6472.9	
405.37	6187.6	
405.57	5376.6	
405.78	6862.7	
405.98	6152.1	
406.18	4807.3	
406.39	5760.3	
406.59	6649.8	
406.79	6239.5	
407	4577.2	
407.2	4780.6	
407.4	6770.6	
407.61	7017.7	
407.81	4766.3	
408.01	7140.6	
408.22	5885.9	
408.42	7843.7	
408.62	5990.3	
408.83	5483.1	
409.03	6500.9	
409.23	6357.6	
409.44	5585.5	
409.64	5806	
409.84	7363.1	
410.05	7421.8	
410.25	5612.1	
410.45	5447.6	
410.66	6832.7	
410.86	9403.6	
411.06	5968.5	
411.27	5709.1	
411.47	9237	
411.67	7098.9	
411.88	6072.2	
412.08	6315.3	
412.28	7744.1	
412.49	8192.6	
412.69	5868.1	
412.89	5801.2	
413.09	8011.7	
413.3	7853.3	
413.5	6044.9	
413.7	5490.6	
413.91	7135.1	
414.11	8055.3	
414.31	5838.1	
414.52	6339.8	
414.72	7616.4	
414.92	7634.8	
415.12	5779.4	
415.33	6347.3	
415.53	7991.9	
415.73	8209.6	
415.94	6584.9	
416.14	6105	
416.34	7055.3	
416.55	6743.3	
416.75	7329	
416.95	6777.4	
417.15	7961.8	
417.36	8744.1	
417.56	7522.9	
417.76	6587	
417.97	8417.2	
418.17	8090.2	
418.37	6180.8	
418.57	6304.3	
418.78	7786.4	
418.98	7439.6	
419.18	7096.9	
419.38	6965.8	
419.59	7511.9	
419.79	7131.7	
419.99	6022.4	
420.2	6488.6	
420.4	8071	
420.6	8284	
420.8	6040.8	
421.01	5881.8	
421.21	7838.3	
421.41	8036.9	
421.61	6367.8	
421.82	6015.6	
422.02	7419.1	
422.22	8288.1	
422.42	6916	
422.63	6482.5	
422.83	7421.8	
423.03	8658.1	
423.23	6489.3	
423.44	5532.9	
423.64	7517.4	
423.84	7195.2	
424.04	5930.9	
424.25	5657.2	
424.45	8382.3	
424.65	8400.1	
424.85	5380.7	
425.06	5964.4	
425.26	8403.5	
425.46	7458	
425.66	6452.5	
425.87	6120	
426.07	8163.9	
426.27	7996.6	
426.47	6284.5	
426.67	5586.2	
426.88	8428.8	
427.08	7873.1	
427.28	6494.8	
427.48	5548.6	
427.69	6777.4	
427.89	7368.6	
428.09	6440.2	
428.29	5615.5	
428.5	8154.3	
428.7	7688.1	
428.9	5517.9	
429.1	6154.1	
429.3	7543.4	
429.51	8141.4	
429.71	5817.6	
429.91	6744.6	
430.11	7909.9	
430.31	8172.8	
430.52	6157.6	
430.72	6481.8	
430.92	8503.2	
431.12	7943.4	
431.32	5780.1	
431.53	6271.6	
431.73	6840.2	
431.93	8584.4	
432.13	5735	
432.33	5587.5	
432.54	7305.8	
432.74	7704.5	
432.94	5508.4	
433.14	6665.5	
433.34	7847.8	
433.55	7413.6	
433.75	6531.7	
433.95	8412.4	
434.15	7613	
434.35	7421.2	
434.56	5771.9	
434.76	5387.5	
434.96	7741.3	
435.16	7990.5	
435.36	5608	
435.56	6859.3	
435.77	7324.2	
435.97	7458.7	
436.17	7568.6	
436.37	6795.2	
436.57	7345.4	
436.78	7296.9	
436.98	8613.1	
437.18	7325.6	
437.38	8017.1	
437.58	7449.8	
437.78	7399.3	
437.99	6038.8	
438.19	7957.7	
438.39	8755.1	
438.59	5988.9	
438.79	5469.4	
438.99	8614.4	
439.2	7455.3	
439.4	5683.8	
439.6	5578.7	
439.8	7926.3	
440	9049.3	
440.2	6778.8	
440.4	6981.5	
440.61	8325.7	
440.81	8889.5	
441.01	5964.4	
441.21	6877.1	
441.41	8692.9	
441.61	8247.2	
441.81	7159.7	
442.02	8221.2	
442.22	9211.8	
442.42	8329.8	
442.62	5941.8	
442.82	5964.4	
443.02	8626	
443.22	7838.3	
443.43	6474.3	
443.63	6010.8	
443.83	7608.9	
444.03	7716.7	
444.23	7370.6	
444.43	6889.4	
444.63	7963.9	
444.83	9222.7	
445.04	6168.5	
445.24	7382.2	
445.44	8216.5	
445.64	8322.3	
445.84	6799.9	
446.04	6901.7	
446.24	7548.8	
446.44	8609.7	
446.65	6060.6	
446.85	6468.2	
447.05	7711.3	
447.25	8607.6	
447.45	6506.4	
447.65	5893.4	
447.85	7935.2	
448.05	7506.5	
448.25	6960.4	
448.46	6780.1	
448.66	7952.9	
448.86	7660.1	
449.06	5786.9	
449.26	7010.9	
449.46	8355	
449.66	7289.4	
449.86	6513.9	
450.06	6409.5	
450.26	7586.4	
450.47	8047.2	
450.67	6747.4	
450.87	7052.5	
451.07	8146.8	
451.27	8009.6	
451.47	5981.4	
451.67	6552.8	
451.87	7613	
452.07	8834.3	
452.27	6293.4	
452.47	6160.3	
452.67	7942	
452.88	8544.1	
453.08	5500.8	
453.28	7660.8	
453.48	9150.3	
453.68	7832.1	
453.88	6184.2	
454.08	6344.6	
454.28	8395.3	
454.48	8023.9	
454.68	6952.9	
454.88	7466.9	
455.08	8458.1	
455.28	8257.4	
455.48	6101.6	
455.68	6692.1	
455.89	9024.7	
456.09	8602.8	
456.29	6346.7	
456.49	6464.1	
456.69	8899.1	
456.89	8172.1	
457.09	7027.9	
457.29	7343.3	
457.49	8510	
457.69	8630.8	
457.89	6892.1	
458.09	6331	
458.29	8300.4	
458.49	8948.9	
458.69	7316.7	
458.89	6668.9	
459.09	9190.6	
459.29	9258.9	
459.49	6766.5	
459.69	7537.2	
459.9	8760.5	
460.1	8204.2	
460.3	6608.1	
460.5	6488	
460.7	8675.9	
460.9	8376.9	
461.1	6101.6	
461.3	7575.4	
461.5	9433.6	
461.7	8968.7	
461.9	6659.3	
462.1	7109.2	
462.3	8505.2	
462.5	9056.1	
462.7	6716.7	
462.9	6796.5	
463.1	10218	
463.3	9902.6	
463.5	7036.8	
463.7	8034.2	
463.9	8680.7	
464.1	9133.3	
464.3	7178.8	
464.5	7453.9	
464.7	9402.9	
464.9	9072.5	
465.1	8874.5	
465.3	7730.4	
465.5	9683.5	
465.7	9680.7	
465.9	8021.9	
466.1	7813	
466.3	9563.3	
466.5	9325.8	
466.7	8729.8	
466.9	7537.9	
467.1	9321.7	
467.3	10226	
467.5	8770.8	
467.7	7604.1	
467.9	10456	
468.1	11391	
468.3	8349.6	
468.5	8851.3	
468.7	9288.9	
468.9	9189.2	
469.1	7834.8	
469.3	8604.2	
469.5	11360	
469.7	8839	
469.9	8276.5	
470.1	7572.7	
470.3	9274.6	
470.5	9320.3	
470.7	8789.9	
470.9	7472.4	
471.1	8923.7	
471.3	9460.9	
471.5	7408.2	
471.69	9379	
471.89	8811	
472.09	8378.2	
472.29	8157.7	
472.49	8619.2	
472.69	8535.9	
472.89	9476	
473.09	7342	
473.29	7462.1	
473.49	8756.4	
473.69	8850.6	
473.89	8422.6	
474.09	7540.6	
474.29	10157	
474.49	9847.3	
474.69	8325.7	
474.89	7626.6	
475.09	8944.8	
475.29	8757.8	
475.49	7053.2	
475.69	7334.5	
475.88	10426	
476.08	9092.3	
476.28	6990.4	
476.48	7455.3	
476.68	9592.7	
476.88	9459.6	
477.08	7246.4	
477.28	7554.3	
477.48	8851.3	
477.68	9572.2	
477.88	7073	
478.08	7462.1	
478.28	9991.4	
478.48	9056.1	
478.67	7479.9	
478.87	6782.9	
479.07	9716.2	
479.27	9166	
479.47	7683.3	
479.67	7627.3	
479.87	9442.5	
480.07	10034	
480.27	6937.2	
480.47	8585.8	
480.67	9154.4	
480.87	9873.3	
481.06	7262.8	
481.26	8054.7	
481.46	9118.9	
481.66	8979.7	
481.86	7664.9	
482.06	8665	
482.26	8699.1	
482.46	9688.9	
482.66	7634.1	
482.86	7116.7	
483.05	9206.3	
483.25	8566	
483.45	10122	
483.65	7617.8	
483.85	8745.5	
484.05	9016.5	
484.25	8154.3	
484.45	8615.8	
484.65	10013	
484.84	10027	
485.04	7516	
485.24	7578.2	
485.44	10193	
485.64	8595.3	
485.84	6849.8	
486.04	8327.7	
486.24	8908	
486.44	9286.9	
486.63	6890.7	
486.83	7651.9	
487.03	8766.7	
487.23	9102.5	
487.43	6924.2	
487.63	9446.6	
487.83	9149	
488.02	10038	
488.22	7984.3	
488.42	8664.3	
488.62	10032	
488.82	8930.5	
489.02	7542	
489.22	7684.7	
489.41	9839.1	
489.61	9569.5	
489.81	7464.8	
490.01	7390.4	
490.21	9734.7	
490.41	10551	
490.61	7249.8	
490.8	7438.9	
491	9299.1	
491.2	8456.1	
491.4	7989.8	
491.6	7076.4	
491.8	9145.5	
491.99	9342.2	
492.19	7007.5	
492.39	7360.4	
492.59	9810.5	
492.79	9881.4	
492.99	8360.5	
493.18	7379.5	
493.38	9908.8	
493.58	10832	
493.78	8160.5	
493.98	7806.2	
494.18	9695.1	
494.37	9159.2	
494.57	8437.6	
494.77	8262.2	
494.97	9996.1	
495.17	10288	
495.37	7868.3	
495.56	8218.5	
495.76	10408	
495.96	9983.8	
496.16	9189.2	
496.36	7976.2	
496.55	10146	
496.75	9769.5	
496.95	8364.6	
497.15	8142	
497.35	10139	
497.54	10108	
497.74	7944.1	
497.94	9880.8	
498.14	10929	
498.34	10679	
498.53	7778.9	
498.73	8553	
498.93	9456.2	
499.13	10177	
499.33	8385.1	
499.52	9003.6	
499.72	10160	
499.92	10454	
500.12	8081.3	
500.32	8213.7	
500.51	10389	
500.71	10058	
500.91	9110	
501.11	8667	
501.31	10283	
501.5	10691	
501.7	9478.7	
501.9	8327	
502.1	10113	
502.29	10310	
502.49	8789.9	
502.69	9297.8	
502.89	10213	
503.09	10209	
503.28	7717.4	
503.48	7791.2	
503.68	9346.2	
503.88	9424.8	
504.07	8923	
504.27	8321.6	
504.47	9835.7	
504.67	9878	
504.86	8800.1	
505.06	8365.3	
505.26	9429.5	
505.46	11290	
505.65	8154.3	
505.85	8398.7	
506.05	9276.6	
506.25	9852.8	
506.44	7526.3	
506.64	8557.1	
506.84	9219.3	
507.04	10189	
507.23	7719.5	
507.43	8277.9	
507.63	11294	
507.83	9510.8	
508.02	8233.5	
508.22	7818.5	
508.42	11446	
508.62	9121.7	
508.81	8169.3	
509.01	8698.4	
509.21	8947.6	
509.4	9300.5	
509.6	8291.5	
509.8	7646.4	
510	9272.5	
510.19	10883	
510.39	7660.8	
510.59	7779.6	
510.79	9097.8	
510.98	10536	
511.18	7793.2	
511.38	7809.6	
511.57	9953.1	
511.77	9893.7	
511.97	8497.7	
512.17	7508.5	
512.36	9934.7	
512.56	9892.4	
512.76	7591.1	
512.95	7393.8	
513.15	10032	
513.35	8694.3	
513.55	8497.7	
513.74	7716.7	
513.94	10055	
514.14	9390.6	
514.33	8685.4	
514.53	8417.2	
514.73	9329.2	
514.92	9529.2	
515.12	7852.6	
515.32	7680.6	
515.51	9573.6	
515.71	10269	
515.91	9422	
516.11	7719.5	
516.3	11373	
516.5	9211.1	
516.7	8218.5	
516.89	8912.1	
517.09	9372.9	
517.29	9239.8	
517.48	8587.8	
517.68	7965.9	
517.88	9064.3	
518.07	9658.2	
518.27	8530.5	
518.47	7481.9	
518.66	10281	
518.86	8841.1	
519.06	7352.2	
519.25	7847.8	
519.45	9261.6	
519.65	10716	
519.84	8404.9	
520.04	9076.6	
520.24	11100	
520.43	9800.9	
520.63	8116.1	
520.83	7771.4	
521.02	8921.6	
521.22	9673.2	
521.42	8361.2	
521.61	8930.5	
521.81	9369.5	
522.01	9452.7	
522.2	8270.4	
522.4	8086.1	
522.6	10001	
522.79	8862.9	
522.99	8187.8	
523.18	7450.5	
523.38	9715.6	
523.58	9704	
523.77	9493	
523.97	7505.1	
524.17	11609	
524.36	10789	
524.56	8915.5	
524.76	8522.3	
524.95	9696.4	
525.15	9376.3	
525.34	8260.8	
525.54	8315.4	
525.74	10165	
525.93	9078.6	
526.13	9503.3	
526.33	8273.8	
526.52	10499	
526.72	9895.1	
526.91	9521.7	
527.11	8794	
527.31	10505	
527.5	10972	
527.7	8673.1	
527.89	7712	
528.09	9379	
528.29	10138	
528.48	9089.6	
528.68	8796	
528.87	10451	
529.07	10378	
529.27	8529.1	
529.46	7999.4	
529.66	9755.2	
529.85	10299	
530.05	7848.5	
530.25	8618.5	
530.44	11345	
530.64	9775.6	
530.83	8298.4	
531.03	8557.8	
531.23	10329	
531.42	10303	
531.62	9377.6	
531.81	8591.2	
532.01	10613	
532.21	11063	
532.4	8361.2	
532.6	8748.9	
532.79	11356	
532.99	10582	
533.18	8698.4	
533.38	9766.8	
533.58	10085	
533.77	10891	
533.97	8724.3	
534.16	9594.7	
534.36	11138	
534.55	10167	
534.75	9712.8	
534.95	8772.1	
535.14	10967	
535.34	10095	
535.53	8415.8	
535.73	10314	
535.92	11348	
536.12	10172	
536.31	8455.4	
536.51	9744.9	
536.71	10548	
536.9	10190	
537.1	8647.9	
537.29	8887.5	
537.49	11073	
537.68	10078	
537.88	9200.8	
538.07	8417.8	
538.27	10223	
538.46	11364	
538.66	8378.2	
538.86	8710.7	
539.05	10332	
539.25	10794	
539.44	9069.1	
539.64	8517.5	
539.83	10092	
540.03	11123	
540.22	8465.6	
540.42	8516.1	
540.61	10201	
540.81	10535	
541	9037.7	
541.2	9681.4	
541.39	9807	
541.59	10271	
541.78	9335.3	
541.98	8298.4	
542.18	9501.2	
542.37	9476	
542.57	8732.5	
542.76	9164.7	
542.96	9502.6	
543.15	10180	
543.35	8660.2	
543.54	8010.3	
543.74	10565	
543.93	9944.3	
544.13	8651.3	
544.32	9765.4	
544.52	10328	
544.71	9643.2	
544.91	7731.1	
545.1	9019.9	
545.3	9626.1	
545.49	10383	
545.69	7721.5	
545.88	8251.3	
546.08	11183	
546.27	10892	
546.47	8843.1	
546.66	8140	
546.86	10464	
547.05	11239	
547.24	8335.2	
547.44	8146.8	
547.63	9374.2	
547.83	10690	
548.02	8567.3	
548.22	8812.4	
548.41	9228.1	
548.61	10555	
548.8	8036.2	
549	8023.9	
549.19	9901.2	
549.39	10315	
549.58	7767.9	
549.78	8282	
549.97	10222	
550.17	9719	
550.36	9890.3	
550.55	10212	
550.75	9720.3	
550.94	10733	
551.14	7924.3	
551.33	8339.3	
551.53	9091.6	
551.72	10103	
551.92	8394.6	
552.11	8213	
552.31	10204	
552.5	10068	
552.69	9935.4	
552.89	7718.8	
553.08	10025	
553.28	9613.8	
553.47	8090.8	
553.67	9279.3	
553.86	10820	
554.06	9034.3	
554.25	7358.4	
554.44	7981.6	
554.64	11587	
554.83	11056	
555.03	7851.2	
555.22	8230.8	
555.42	10184	
555.61	9925.8	
555.8	8073.1	
556	8436.3	
556.19	9046.6	
556.39	10293	
556.58	8028.7	
556.78	8067.6	
556.97	9848	
557.16	9564	
557.36	9346.9	
557.55	7784.3	
557.75	8776.2	
557.94	10643	
558.13	7838.3	
558.33	7609.6	
558.52	10388	
558.72	9188.6	
558.91	7718.1	
559.1	7935.9	
559.3	8841.1	
559.49	8626.7	
559.69	7193.8	
559.88	8379.6	
560.07	9768.8	
560.27	10129	
560.46	8512	
560.66	8583.7	
560.85	9515.5	
561.04	8603.5	
561.24	7578.8	
561.43	7824.6	
561.63	8915.5	
561.82	9271.2	
562.01	9180.4	
562.21	8246.5	
562.4	9742.9	
562.59	10727	
562.79	8025.3	
562.98	7707.9	
563.18	9639.1	
563.37	11207	
563.56	8506.6	
563.76	7550.2	
563.95	9024	
564.14	9050.7	
564.34	7917.4	
564.53	7762.5	
564.73	9608.4	
564.92	10090	
565.11	8085.4	
565.31	7435.5	
565.5	10289	
565.69	9084.1	
565.89	7628	
566.08	7970	
566.27	10157	
566.47	10388	
566.66	8613.1	
566.85	7258.7	
567.05	9543.5	
567.24	9051.3	
567.44	7582.9	
567.63	9100.5	
567.82	9803.6	
568.02	9634.3	
568.21	7593.2	
568.4	8034.2	
568.6	9413.1	
568.79	9480.7	
568.98	7354.9	
569.18	7620.5	
569.37	9289.6	
569.56	11441	
569.76	7932.5	
569.95	8871.8	
570.14	9716.2	
570.34	9602.9	
570.53	7331	
570.72	7329	
570.91	10139	
571.11	9286.9	
571.3	7771.4	
571.49	8813.8	
571.69	9342.8	
571.88	8886.8	
572.07	8335.9	
572.27	8434.9	
572.46	8813.1	
572.65	9970.2	
572.85	7622.5	
573.04	8071	
573.23	10124	
573.43	9334	
573.62	7321.5	
573.81	8097	
574	9424.8	
574.2	9306.7	
574.39	7655.3	
574.58	7902.4	
574.78	10327	
574.97	9525.1	
575.16	8338	
575.36	8454	
575.55	9918.3	
575.74	10094	
575.93	7320.8	
576.13	8492.9	
576.32	9302.6	
576.51	9881.4	
576.71	7752.9	
576.9	9138.7	
577.09	10174	
577.28	9574.9	
577.48	8279.3	
577.67	7235.5	
577.86	9345.6	
578.05	9662.3	
578.25	7941.3	
578.44	8043.7	
578.63	9468.4	
578.83	10630	
579.02	7367.9	
579.21	8890.9	
579.4	9686.9	
579.6	9293	
579.79	8130.4	
579.98	10299	
580.17	10064	
580.37	10173	
580.56	7517.4	
580.75	8279.3	
580.94	10610	
581.14	10437	
581.33	8834.3	
581.52	7768.6	
581.71	9869.2	
581.91	10546	
582.1	7384.3	
582.29	8008.9	
582.48	9533.3	
582.68	9559.2	
582.87	8469.7	
583.06	8148.9	
583.25	9882.1	
583.45	9290.3	
583.64	8768	
583.83	9622	
584.02	9345.6	
584.21	9834.3	
584.41	8770.1	
584.6	8107.2	
584.79	9611.1	
584.98	10422	
585.18	7475.1	
585.37	7527	
585.56	9106.6	
585.75	9957.9	
585.94	7733.1	
586.14	8319.5	
586.33	10486	
586.52	9423.4	
586.71	8200.1	
586.91	7816.4	
587.1	8791.9	
587.29	9863.7	
587.48	7699	
587.67	7660.1	
587.87	9602.2	
588.06	9752.4	
588.25	8970.1	
588.44	8340.7	
588.63	9216.5	
588.83	9752.4	
589.02	7509.9	
589.21	7360.4	
589.4	8813.1	
589.59	8591.9	
589.78	6480.5	
589.98	6797.9	
590.17	8185.7	
590.36	8828.1	
590.55	6173.3	
590.74	7011.6	
590.94	10241	
591.13	8777.6	
591.32	6911.2	
591.51	6442.2	
591.7	9333.3	
591.89	8789.9	
592.09	6509.1	
592.28	7053.9	
592.47	7989.1	
592.66	9904.7	
592.85	6490.7	
593.05	6842.3	
593.24	8583	
593.43	9467.1	
593.62	6904.4	
593.81	7468.3	
594	8646.5	
594.19	8974.9	
594.39	6776	
594.58	6771.3	
594.77	8985.1	
594.96	9562	
595.15	6635.4	
595.34	7337.9	
595.54	8943.5	
595.73	7998	
595.92	6048.3	
596.11	7348.8	
596.3	9544.9	
596.49	8170.7	
596.68	7088	
596.88	7586.4	
597.07	9368.8	
597.26	8081.3	
597.45	6532.3	
597.64	7793.9	
597.83	8282	
598.02	8983.1	
598.22	6690.7	
598.41	7438.2	
598.6	8759.8	
598.79	8192.6	
598.98	6744.6	
599.17	7661.5	
599.36	8777.6	
599.55	10081	
599.74	8850.6	
599.94	8654	
600.13	9417.9	
600.32	8275.2	
600.51	6524.1	
600.7	6627.9	
600.89	10121	
601.08	10079	
601.27	6485.2	
601.47	7517.4	
601.66	9314.2	
601.85	10070	
602.04	7178.8	
602.23	7496.9	
602.42	8346.8	
602.61	9055.4	
602.8	7178.1	
602.99	6884.6	
603.18	8756.4	
603.37	9006.3	
603.57	7565.2	
603.76	8164.6	
603.95	9841.2	
604.14	9297.8	
604.33	6974	
604.52	7297.6	
604.71	9027.4	
604.9	8607.6	
605.09	7836.2	
605.28	7724.3	
605.47	9454.1	
605.66	9219.3	
605.86	7481.2	
606.05	6969.2	
606.24	9521.7	
606.43	8092.2	
606.62	7234.1	
606.81	8127.7	
607	9399.5	
607.19	8630.1	
607.38	6698.2	
607.57	6950.8	
607.76	8426	
607.95	7991.9	
608.14	7343.3	
608.33	8007.6	
608.52	8413.1	
608.72	9294.4	
608.91	6562.4	
609.1	6561	
609.29	8600.8	
609.48	8083.3	
609.67	7507.9	
609.86	6500.3	
610.05	8143.4	
610.24	8551	
610.43	6394.4	
610.62	6044.2	
610.81	9626.8	
611	9383.8	
611.19	6483.9	
611.38	7314	
611.57	8775.5	
611.76	10100	
611.95	6372.6	
612.14	6216.3	
612.33	8678.6	
612.52	8077.2	
612.71	6848.4	
612.9	6073.6	
613.09	7635.5	
613.28	10146	
613.47	6565.1	
613.66	7575.4	
613.85	8738.7	
614.04	8231.5	
614.24	6739.9	
614.43	5859.2	
614.62	8831.5	
614.81	8757.1	
615	7326.9	
615.19	7330.4	
615.38	8097	
615.57	8350.3	
615.76	7167.2	
615.95	8125.7	
616.14	8796.7	
616.33	8483.4	
616.52	7456	
616.71	7705.8	
616.9	8790.6	
617.09	8597.4	
617.28	6662	
617.47	8044.4	
617.66	7834.2	
617.85	7920.2	
618.04	7712.7	
618.22	7103	
618.41	8254.7	
618.6	9158.5	
618.79	6996.5	
618.98	6789	
619.17	9471.2	
619.36	7773.4	
619.55	6886	
619.74	6861.4	
619.93	8762.6	
620.12	8216.5	
620.31	7492.8	
620.5	7674.4	
620.69	9230.2	
620.88	9669.8	
621.07	8374.8	
621.26	7355.6	
621.45	8845.2	
621.64	8837	
621.83	7462.1	
622.02	6613.6	
622.21	8890.9	
622.4	8607.6	
622.59	8007.6	
622.78	7662.8	
622.97	8228.1	
623.16	9344.9	
623.35	7313.3	
623.54	6514.6	
623.72	8456.1	
623.91	8660.2	
624.1	7601.4	
624.29	6284.5	
624.48	9746.3	
624.67	8886.8	
624.86	7490.8	
625.05	6499.6	
625.24	9783.1	
625.43	8183	
625.62	9334.6	
625.81	6667.5	
626	9279.3	
626.19	8447.2	
626.38	7539.3	
626.56	6969.2	
626.75	8180.3	
626.94	9071.1	
627.13	7470.3	
627.32	6118	
627.51	8900.5	
627.7	10079	
627.89	6335.7	
628.08	7399.3	
628.27	8058.8	
628.46	8273.1	
628.65	6636.8	
628.83	6252.4	
629.02	8813.8	
629.21	8059.4	
629.4	7096.2	
629.59	7243.7	
629.78	8008.2	
629.97	9185.8	
630.16	7344.7	
630.35	6819.7	
630.54	9471.2	
630.72	9222.7	
630.91	6784.2	
631.1	7312.6	
631.29	8705.2	
631.48	8838.4	
631.67	7417.1	
631.86	6874.3	
632.05	8295	
632.24	8280.6	
632.42	6463.4	
632.61	7141.9	
632.8	8348.2	
632.99	8045.8	
633.18	7190.4	
633.37	7540.6	
633.56	8672.5	
633.75	8482.7	
633.93	7096.9	
634.12	6771.3	
634.31	9566.1	
634.5	9108	
634.69	6840.9	
634.88	7357	
635.07	8423.3	
635.25	9069.8	
635.44	7845.1	
635.63	7976.8	
635.82	8176.2	
636.01	7763.8	
636.2	7683.3	
636.39	7200	
636.57	9393.4	
636.76	9080.7	
636.95	6698.2	
637.14	8090.8	
637.33	8733.2	
637.52	9691	
637.7	6414.2	
637.89	7406.1	
638.08	8253.3	
638.27	9778.4	
638.46	7515.4	
638.65	7951.6	
638.83	9773.6	
639.02	8080.6	
639.21	7409.6	
639.4	7888.1	
639.59	8647.9	
639.78	8101.8	
639.96	6690.7	
640.15	6650.4	
640.34	8484.7	
640.53	8648.6	
640.72	6338.5	
640.91	6655.2	
641.09	7970	
641.28	9332.6	
641.47	7034.8	
641.66	7572.7	
641.85	8537.3	
642.03	8867	
642.22	7259.4	
642.41	6778.8	
642.6	8036.9	
642.79	7342.7	
642.97	6509.8	
643.16	7295.5	
643.35	7877.9	
643.54	7716.1	
643.73	6403.3	
643.91	7322.2	
644.1	7520.1	
644.29	8229.4	
644.48	6559	
644.67	6579.4	
644.85	7744.7	
645.04	7976.8	
645.23	5991	
645.42	6372.6	
645.6	7537.2	
645.79	8726.4	
645.98	6249.7	
646.17	5344.5	
646.36	7146	
646.54	7849.2	
646.73	7025.2	
646.92	5767.1	
647.11	7487.4	
647.29	8518.2	
647.48	5926.1	
647.67	5739.8	
647.86	8791.9	
648.05	8838.4	
648.23	6332.3	
648.42	7694.2	
648.61	8194.6	
648.8	7957	
648.98	5922.7	
649.17	6329.6	
649.36	7507.2	
649.55	6985.6	
649.73	6006	
649.92	6782.2	
650.11	7342.7	
650.3	7645.8	
650.48	6165.1	
650.67	5812.1	
650.86	7907.9	
651.05	6917.4	
651.23	6121.4	
651.42	6025.8	
651.61	7390.4	
651.79	7636.9	
651.98	6242.2	
652.17	5949.3	
652.36	7993.9	
652.54	7068.2	
652.73	5963.7	
652.92	5698.1	
653.11	8017.1	
653.29	8018.5	
653.48	5191.6	
653.67	6249	
653.85	7594.6	
654.04	8837	
654.23	6369.2	
654.42	5881.8	
654.6	7163.8	
654.79	7845.1	
654.98	5356.8	
655.16	5982.8	
655.35	6761	
655.54	6731.7	
655.73	5530.9	
655.91	5444.2	
656.1	8047.8	
656.29	6791.1	
656.47	5138.4	
656.66	6807.4	
656.85	7089.4	
657.03	7118.7	
657.22	5554.1	
657.41	5763	
657.59	7148.8	
657.78	6961	
657.97	5274.9	
658.16	6047	
658.34	7920.2	
658.53	8251.9	
658.72	6939.2	
658.9	7511.3	
659.09	7266.2	
659.28	7363.1	
659.46	5737	
659.65	5773.9	
659.84	7047.1	
660.02	7615	
660.21	5555.5	
660.4	5544.5	
660.58	8013.7	
660.77	7363.1	
660.96	6230.6	
661.14	5221.6	
661.33	8548.2	
661.52	8467.7	
661.7	5216.9	
661.89	8940.1	
662.08	6945.3	
662.26	6607.4	
662.45	5461.2	
662.64	5568.4	
662.82	7689.4	
663.01	6862.1	
663.2	5691.3	
663.38	6408.8	
663.57	7662.1	
663.75	7591.1	
663.94	5958.9	
664.13	7146	
664.31	6920.8	
664.5	7686	
664.69	6062	
664.87	6731.7	
665.06	6703	
665.25	7424.6	
665.43	7027.3	
665.62	7016.3	
665.8	7849.2	
665.99	7145.4	
666.18	5943.2	
666.36	6156.2	
666.55	7796.6	
666.74	7720.2	
666.92	5506.3	
667.11	7243	
667.29	7132.4	
667.48	7806.9	
667.67	6923.5	
667.85	5982.8	
668.04	7174.7	
668.22	7168.6	
668.41	5975.3	
668.6	6200.6	
668.78	6931.7	
668.97	7129	
669.15	6348	
669.34	5386.8	
669.53	6929	
669.71	7267.6	
669.9	5467.4	
670.08	6168.5	
670.27	6935.8	
670.46	7443	
670.64	6335.7	
670.83	6619	
671.01	6782.9	
671.2	7460.8	
671.38	5524.1	
671.57	5474.9	
671.76	8061.5	
671.94	8737.3	
672.13	5360.9	
672.31	6549.4	
672.5	7626	
672.69	6882.5	
672.87	5551.4	
673.06	5913.9	
673.24	7499.7	
673.43	6901	
673.61	6284.5	
673.8	5842.2	
673.98	7635.5	
674.17	7922.9	
674.36	6418.3	
674.54	6379.4	
674.73	7426.6	
674.91	7719.5	
675.1	5965.1	
675.28	5629.9	
675.47	7214.3	
675.65	7724.3	
675.84	5764.3	
676.03	6137.8	
676.21	6995.9	
676.4	6444.3	
676.58	6627.2	
676.77	6361	
676.95	8450.6	
677.14	6911.2	
677.32	5510.4	
677.51	5307	
677.69	7658.7	
677.88	6488.6	
678.06	5383.4	
678.25	5466.7	
678.44	7096.2	
678.62	6859.3	
678.81	5242.1	
678.99	6200.6	
679.18	7938.6	
679.36	7544.7	
679.55	5775.3	
679.73	6483.2	
679.92	7552.2	
680.1	6901	
680.29	7066.9	
680.47	5829.9	
680.66	6811.5	
680.84	7736.5	
681.03	5046.9	
681.21	6242.2	
681.4	6941.2	
681.58	6772.6	
681.77	5517.9	
681.95	5468.8	
682.14	7766.6	
682.32	8096.3	
682.51	6429.3	
682.69	5224.4	
682.88	6822.5	
683.06	7475.1	
683.25	6161	
683.43	6558.3	
683.62	7150.1	
683.8	7464.8	
683.99	6635.4	
684.17	5950.7	
684.36	8322.9	
684.54	6949.4	
684.73	4993.6	
684.91	5294.7	
685.1	7105.8	
685.28	6584.2	
685.46	5800.5	
685.65	5960.3	
685.83	7408.2	
686.02	6902.3	
686.2	5371.1	
686.39	5537.7	
686.57	6798.6	
686.76	8254	
686.94	5408.7	
687.13	5625.8	
687.31	7389.8	
687.5	6832.7	
687.68	4979.3	
687.86	6317.3	
688.05	8611	
688.23	6395.8	
688.42	6320	
688.6	5437.4	
688.79	6843.6	
688.97	6848.4	
689.16	5820.3	
689.34	4824.3	
689.52	7524.2	
689.71	7719.5	
689.89	6146	
690.08	5367.7	
690.26	7029.3	
690.45	6836.1	
690.63	6285.2	
690.81	5496.1	
691	6800.6	
691.18	6630	
691.37	5610.1	
691.55	7854.6	
691.74	6619.7	
691.92	8704.5	
692.1	5790.3	
692.29	5100.8	
692.47	6828.6	
692.66	6150.1	
692.84	5363.6	
693.02	5956.9	
693.21	6292.7	
693.39	6873.7	
693.58	5991.7	
693.76	5410.1	
693.94	8114.1	
694.13	7875.1	
694.31	5442.1	
694.5	6610.2	
694.68	6799.9	
694.86	7107.1	
695.05	5859.9	
695.23	6219	
695.42	7454.6	
695.6	9824.1	
695.78	6462	
695.97	5501.5	
696.15	7518.8	
696.34	6853.9	
696.52	5283.8	
696.7	6132.3	
696.89	7172	
697.07	6498.9	
697.25	6036	
697.44	7737.2	
697.62	7079.8	
697.81	7557.7	
697.99	5741.1	
698.17	6331.6	
698.36	6505.7	
698.54	7156.3	
698.72	5990.3	
698.91	4954	
699.09	6800.6	
699.28	6706.4	
699.46	5775.3	
699.64	5670.8	
699.83	6558.3	
700.01	7942	
700.19	6460	
700.38	4930.1	
700.56	7877.2	
700.74	6710.5	
700.93	5251	
701.11	6186.2	
701.29	7346.1	
701.48	8415.1	
701.66	5584.1	
701.84	5494.7	
702.03	6864.8	
702.21	7527	
702.39	5064.6	
702.58	5746.6	
702.76	7216.4	
702.94	7388.4	
703.13	5122	
703.31	7520.1	
703.49	6567.8	
703.68	8053.3	
703.86	5298.8	
704.04	6292	
704.23	7144	
704.41	7616.4	
704.59	5515.2	
704.78	6804	
704.96	8281.3	
705.14	7613	
705.33	5232.6	
705.51	6117.3	
705.69	7002.7	
705.87	7827.3	
706.06	6475.7	
706.24	5326.8	
706.42	7277.1	
706.61	7562.5	
706.79	6498.9	
706.97	5360.9	
707.16	6740.5	
707.34	7430	
707.52	6434.7	
707.7	5564.3	
707.89	6986.3	
708.07	6535.8	
708.25	6469.5	
708.44	6603.3	
708.62	6871.6	
708.8	7957.7	
708.98	6720.1	
709.17	5646.9	
709.35	7277.1	
709.53	7320.1	
709.72	5240.8	
709.9	5483.8	
710.08	7543.4	
710.26	7625.3	
710.45	7075.7	
710.63	5645.6	
710.81	7169.3	
710.99	7200.7	
711.18	6346.7	
711.36	5761.6	
711.54	7021.1	
711.72	7718.1	
711.91	5847	
712.09	5277.6	
712.27	7164.5	
712.45	7828.7	
712.64	6174.6	
712.82	5039.4	
713	6578.8	
713.18	6809.5	
713.37	5180.7	
713.55	6461.3	
713.73	7574.8	
713.91	6135.7	
714.1	5500.2	
714.28	4912.4	
714.46	7225.2	
714.64	6412.9	
714.83	4416.1	
715.01	5233.9	
715.19	6474.3	
715.37	5849.7	
715.55	4985.4	
715.74	5328.1	
715.92	7498.3	
716.1	5384.8	
716.28	6467.5	
716.47	5438.7	
716.65	6148	
716.83	6214.9	
717.01	5262.6	
717.19	5391.6	
717.38	8450.6	
717.56	5878.4	
717.74	5636.7	
717.92	4724.7	
718.1	7262.8	
718.29	6429.3	
718.47	4390.2	
718.65	5116.5	
718.83	7159.7	
719.01	7084.6	
719.2	4286.4	
719.38	5422.3	
719.56	6796.5	
719.74	8322.3	
719.92	4926.7	
720.11	6031.3	
720.29	6816.3	
720.47	5864.7	
720.65	4491.9	
720.83	5308.3	
721.02	6251.8	
721.2	5984.8	
721.38	5479.7	
721.56	4711.7	
721.74	5485.8	
721.92	5747.3	
722.11	6019.7	
722.29	5604.6	
722.47	7058	
722.65	6169.2	
722.83	4623.6	
723.01	5657.2	
723.2	6277.7	
723.38	6526.2	
723.56	4102.8	
723.74	5380.7	
723.92	5706.3	
724.1	6945.3	
724.29	4620.9	
724.47	5819.6	
724.65	5778	
724.83	5773.9	
725.01	4535.6	
725.19	5501.5	
725.37	5840.1	
725.56	5883.1	
725.74	4388.1	
725.92	4663.9	
726.1	5732.9	
726.28	6089.3	
726.46	5109	
726.64	4866	
726.83	6019	
727.01	6329.6	
727.19	4379.9	
727.37	5197.1	
727.55	6129.6	
727.73	6713.9	
727.91	4388.1	
728.09	4230.4	
728.28	6761	
728.46	7406.1	
728.64	5410.1	
728.82	5335.6	
729	7893.6	
729.18	7134.4	
729.36	4575.8	
729.54	7000.6	
729.72	8148.2	
729.91	6322.8	
730.09	6554.2	
730.27	5210.7	
730.45	6269.5	
730.63	7073	
730.81	5986.9	
730.99	4973.8	
731.17	7591.8	
731.35	6093.4	
731.53	5509.7	
731.71	5075.5	
731.9	7175.4	
732.08	7459.4	
732.26	5284.4	
732.44	4968.4	
732.62	7492.8	
732.8	6979.5	
732.98	5819.6	
733.16	4771.1	
733.34	6961	
733.52	5756.8	
733.7	5315.8	
733.88	5576.6	
734.07	6789.7	
734.25	6545.3	
734.43	4787.5	
734.61	6461.3	
734.79	8054	
734.97	6397.9	
735.15	4943.8	
735.33	5323.4	
735.51	6780.8	
735.69	6460.7	
735.87	6894.1	
736.05	5519.3	
736.23	6657.3	
736.41	6380.1	
736.59	5306.3	
736.77	5507.7	
736.95	7125.6	
737.13	6499.6	
737.32	5039.4	
737.5	5201.2	
737.68	7632.8	
737.86	6408.1	
738.04	4842.1	
738.22	6774	
738.4	6222.4	
738.58	6523.5	
738.76	5507.7	
738.94	4418.8	
739.12	6410.1	
739.3	6227.2	
739.48	6115.2	
739.66	5896.8	
739.84	6627.2	
740.02	6618.4	
740.2	4562.2	
740.38	4898.1	
740.56	7117.4	
740.74	5905.7	
740.92	5598.5	
741.1	5502.2	
741.28	6471.6	
741.46	6305.7	
741.64	5122	
741.82	5677	
742	6537.8	
742.18	6443.6	
742.36	5340.4	
742.54	4857.8	
742.72	7047.1	
742.9	5731.6	
743.08	5725.4	
743.26	4467.3	
743.44	7373.4	
743.62	7140.6	
743.8	5961.6	
743.98	4904.2	
744.16	6834.1	
744.34	6485.9	
744.52	5811.5	
744.7	5741.8	
744.88	6984.9	
745.06	6529.6	
745.24	5813.5	
745.42	5952.1	
745.6	7004.1	
745.78	6765.8	
745.96	4565.6	
746.14	4922.6	
746.32	7807.5	
746.5	7073	
746.68	5564.3	
746.86	4921.3	
747.03	7549.5	
747.21	5743.9	
747.39	5545.9	
747.57	4985.4	
747.75	6619.7	
747.93	7077.8	
748.11	4971.1	
748.29	4781.3	
748.47	8327.7	
748.65	6425.2	
748.83	5730.9	
749.01	5319.9	
749.19	6858	
749.37	5956.2	
749.55	5265.3	
749.73	5451.7	
749.91	6541.2	
750.09	6243.6	
750.26	5379.3	
750.44	4784.7	
750.62	6638.1	
750.8	6529.6	
750.98	4624.3	
751.16	5005.2	
751.34	6608.8	
751.52	5937.7	
751.7	5791.7	
751.88	4626.4	
752.06	7150.8	
752.24	6908.5	
752.42	4545.8	
752.59	4937.7	
752.77	6499.6	
752.95	7760.4	
753.13	5686.5	
753.31	5146.5	
753.49	6138.4	
753.67	6594.5	
753.85	5400.5	
754.03	4945.2	
754.21	6951.5	
754.38	7256	
754.56	5096	
754.74	4075.5	
754.92	6111.8	
755.1	6853.9	
755.28	4160.1	
755.46	4130.8	
755.64	7591.1	
755.82	7686.7	
755.99	4428.4	
756.17	4428.4	
756.35	5014.1	
756.53	6676.4	
756.71	3331.4	
756.89	4272.7	
757.07	6205.3	
757.25	5304.9	
757.42	4831.8	
757.6	5771.9	
757.78	6240.2	
757.96	5245.5	
758.14	4513	
758.32	4053.6	
758.5	4781.3	
758.67	5699.5	
758.85	4296	
759.03	4448.9	
759.21	5868.8	
759.39	5326.1	
759.57	3861.8	
759.75	5046.9	
759.92	6494.8	
760.1	5737.7	
760.28	5513.8	
760.46	5741.1	
760.64	5547.3	
760.82	5251.7	
760.99	5324	
761.17	4432.5	
761.35	6450.4	
761.53	5411.4	
761.71	4573.1	
761.89	5382.7	
762.06	6324.1	
762.24	5797.1	
762.42	4746.5	
762.6	4486.4	
762.78	5827.2	
762.96	6469.5	
763.13	5189.6	
763.31	4760.8	
763.49	6692.1	
763.67	5762.3	
763.85	5688.6	
764.02	6272.2	
764.2	6929.6	
764.38	6071.5	
764.56	4640	
764.74	5624.4	
764.91	7019.1	
765.09	5895.4	
765.27	4361.5	
765.45	4115.1	
765.63	7083.2	
765.8	6920.1	
765.98	3846.1	
766.16	4209.3	
766.34	5449.6	
766.52	5252.4	
766.69	5240.1	
766.87	4056.3	
767.05	5886.5	
767.23	6840.2	
767.41	4377.2	
767.58	4634.6	
767.76	6496.2	
767.94	6589.7	
768.12	4436.6	
768.29	5287.9	
768.47	5969.8	
768.65	6691.4	
768.83	4088.4	
769	5259.2	
769.18	5508.4	
769.36	6275.7	
769.54	5365.7	
769.72	4190.8	
769.89	6540.5	
770.07	6636.8	
770.25	4479.6	
770.43	5825.8	
770.6	7320.8	
770.78	7763.2	
770.96	4707.6	
771.14	5309	
771.31	6447	
771.49	5730.9	
771.67	3842	
771.85	4113.7	
772.02	4990.9	
772.2	5778	
772.38	4913.1	
772.55	4308.2	
772.73	6085.2	
772.91	5821.7	
773.09	4663.9	
773.26	4798.4	
773.44	6020.3	
773.62	5709.1	
773.8	4165.6	
773.97	3894.6	
774.15	6075	
774.33	5698.1	
774.5	4070.7	
774.68	4387.4	
774.86	6307.7	
775.04	5696.1	
775.21	4169.7	
775.39	4192.9	
775.57	5968.5	
775.74	6407.4	
775.92	3986	
776.1	3851.5	
776.27	5959.6	
776.45	7308.5	
776.63	4197	
776.81	3704.8	
776.98	5634.6	
777.16	6722.1	
777.34	4308.9	
777.51	4227.7	
777.69	5594.4	
777.87	5319.9	
778.04	4270	
778.22	4992.9	
778.4	5358.9	
778.57	6017.6	
778.75	3617.4	
778.93	3869.3	
779.1	5188.2	
779.28	4931.5	
779.46	3561.4	
779.64	4110.3	
779.81	6256.5	
779.99	7122.8	
780.17	4878.3	
780.34	5045.5	
780.52	5637.4	
780.69	5872.9	
780.87	4431.1	
781.05	3973.1	
781.22	5628.5	
781.4	5832.6	
781.58	4091.8	
781.75	3263.8	
781.93	5758.2	
782.11	5104.9	
782.28	5113.8	
782.46	4094.6	
782.64	4922	
782.81	5957.5	
782.99	4244.8	
783.17	4168.3	
783.34	5753.4	
783.52	5016.2	
783.69	4375.1	
783.87	5253	
784.05	5072.8	
784.22	5051	
784.4	5238.7	
784.58	4461.8	
784.75	6033.3	
784.93	5107.6	
785.1	4147.1	
785.28	4742.4	
785.46	5763.7	
785.63	5081	
785.81	4102.1	
785.99	3934.1	
786.16	5265.3	
786.34	5708.4	
786.51	3902.7	
786.69	4413.4	
786.87	4846.2	
787.04	5409.4	
787.22	3859.1	
787.39	4769.7	
787.57	5025	
787.75	6271.6	
787.92	4978.6	
788.1	4940.4	
788.27	5131.5	
788.45	4907.6	
788.63	4644.1	
788.8	3344.3	
788.98	5516.5	
789.15	4829.1	
789.33	3414.6	
789.5	4162.8	
789.68	6067.4	
789.86	6158.9	
790.03	4554.7	
790.21	4018.1	
790.38	6083.1	
790.56	5231.9	
790.73	3783.3	
790.91	3900.7	
791.09	5122.7	
791.26	5910.4	
791.44	4132.8	
791.61	3523.2	
791.79	5043.5	
791.96	5159.5	
792.14	3605.8	
792.32	3175	
792.49	5096	
792.67	5210	
792.84	3709.6	
793.02	3504.1	
793.19	5507	
793.37	6331	
793.54	3261.7	
793.72	3586.7	
793.89	6462	
794.07	5061.2	
794.25	4293.2	
794.42	3244.7	
794.6	6234	
794.77	5812.1	
794.95	4553.3	
795.12	3965.6	
795.3	5112.4	
795.47	5733.6	
795.65	4358.8	
795.82	4141	
796	4891.2	
796.17	6907.1	
796.35	4038.6	
796.52	4769	
796.7	5642.8	
796.87	5754.8	
797.05	4996.4	
797.22	4911	
797.4	5746.6	
797.57	6763.1	
797.75	4184	
797.92	3891.8	
798.1	6073.6	
798.27	5051.7	
798.45	3322.5	
798.62	3596.2	
798.8	5439.4	
798.97	5874.3	
799.15	4415.4	
799.32	4230.4	
799.5	4633.2	
799.67	5537.7	
799.85	4564.2	
800.02	3259.7	
800.2	5043.5	
800.37	5366.4	
800.55	4694.6	
800.72	3912.3	
800.9	5851	
801.07	6391	
801.25	5298.8	
801.42	4311	
801.6	5959.6	
801.77	5644.2	
801.95	3960.1	
802.12	3810.6	
802.29	5674.9	
802.47	5638.7	
802.64	4291.2	
802.82	3196.2	
802.99	5060.5	
803.17	6115.9	
803.34	4179.2	
803.52	3745.1	
803.69	6748.7	
803.87	4886.5	
804.04	4182	
804.21	4226.3	
804.39	6203.3	
804.56	5321.3	
804.74	3489.1	
804.91	4377.9	
805.09	5094	
805.26	5242.8	
805.44	3605.8	
805.61	3940.3	
805.78	5743.2	
805.96	5834	
806.13	4287.1	
806.31	4651.6	
806.48	4600.4	
806.66	5199.8	
806.83	4271.4	
807	4164.9	
807.18	5060.5	
807.35	5515.2	
807.53	4124.6	
807.7	3274.7	
807.87	6236.7	
808.05	5188.2	
808.22	4635.2	
808.4	3302.7	
808.57	5116.5	
808.74	4709.6	
808.92	3874.8	
809.09	4900.1	
809.27	4929.5	
809.44	5641.5	
809.61	3330	
809.79	3773	
809.96	6283.2	
810.14	5978.7	
810.31	3291.1	
810.48	4020.8	
810.66	5193.6	
810.83	6064.7	
811.01	3806.5	
811.18	4311.7	
811.35	5870.8	
811.53	4541.7	
811.7	4708.3	
811.87	4402.5	
812.05	5113.8	
812.22	5116.5	
812.39	3704.8	
812.57	3568.2	
812.74	5163.6	
812.92	6931.7	
813.09	4055	
813.26	4397	
813.44	6651.1	
813.61	5018.2	
813.78	3327.9	
813.96	4470.7	
814.13	5178.6	
814.3	4810.7	
814.48	4891.2	
814.65	4002.4	
814.82	6444.3	
815	4925.4	
815.17	4125.3	
815.34	5067.4	
815.52	5040.7	
815.69	5084.4	
815.87	4176.5	
816.04	3548.4	
816.21	5139	
816.38	4519.2	
816.56	4019.5	
816.73	3695.9	
816.9	6523.5	
817.08	5913.2	
817.25	3684.3	
817.42	4745.8	
817.6	4683.7	
817.77	5148.6	
817.94	4216.1	
818.12	3687.7	
818.29	4852.3	
818.46	7630	
818.64	3874.8	
818.81	3618.1	
818.98	4825.7	
819.16	6956.9	
819.33	4431.1	
819.5	4153.3	
819.67	5543.2	
819.85	6152.8	
820.02	4086.4	
820.19	4321.2	
820.37	5358.2	
820.54	4985.4	
820.71	4243.4	
820.88	5175.9	
821.06	5388.9	
821.23	4900.8	
821.4	4250.2	
821.58	4136.9	
821.75	5952.1	
821.92	5264	
822.09	3358.7	
822.27	3486.3	
822.44	5167	
822.61	5033.9	
822.79	3416.7	
822.96	6546.7	
823.13	5660.6	
823.3	4890.5	
823.48	3863.8	
823.65	3541.6	
823.82	5860.6	
823.99	4715.8	
824.17	5014.1	
824.34	3624.9	
824.51	6800.6	
824.68	5167	
824.86	3728.7	
825.03	4201.7	
825.2	5104.2	
825.37	6336.4	
825.55	3656.3	
825.72	4144.4	
825.89	6917.4	
826.06	6433.4	
826.24	4020.2	
826.41	4095.3	
826.58	6247	
826.75	5425.1	
826.92	3187.3	
827.1	3521.1	
827.27	8583.7	
827.44	6849.1	
827.61	3827	
827.79	4648.2	
827.96	4885.1	
828.13	5237.3	
828.3	3943.7	
828.47	3356.6	
828.65	5319.3	
828.82	5308.3	
828.99	5244.8	
829.16	4551.3	
829.34	5758.2	
829.51	5500.2	
829.68	4203.8	
829.85	4329.4	
830.02	6081.8	
830.2	5841.5	
830.37	3214.6	
830.54	5056.4	
830.71	6593.8	
830.88	5096.7	
831.05	3286.3	
831.23	3790.1	
831.4	6253.1	
831.57	7139.2	
831.74	3819.5	
831.91	3378.5	
832.09	5344.5	
832.26	5779.4	
832.43	3964.9	
832.6	4535.6	
832.77	5298.8	
832.94	6081.8	
833.12	3126.6	
833.29	3972.4	
833.46	5576.6	
833.63	7429.3	
833.8	4414.1	
833.97	3987.4	
834.15	5863.3	
834.32	5524.7	
834.49	4165.6	
834.66	4251.6	
834.83	6034	
835	4899.4	
835.17	3842	
835.35	3850.2	
835.52	5677	
835.69	5540.4	
835.86	4012	
836.03	3315.7	
836.2	5709.1	
836.37	5313.1	
836.55	3959.4	
836.72	3775.1	
836.89	5328.1	
837.06	5893.4	
837.23	4074.1	
837.4	4457.1	
837.57	6640.2	
837.75	7303.7	
837.92	3665.2	
838.09	3920.5	
838.26	5294.7	
838.43	6061.3	
838.6	4220.2	
838.77	3779.9	
838.94	7000	
839.11	6678.4	
839.29	4010.6	
839.46	3163.4	
839.63	5692.7	
839.8	5466	
839.97	3888.4	
840.14	3874.1	
840.31	5538.4	
840.48	5780.7	
840.65	3244.7	
840.82	3762.1	
841	5752.1	
841.17	5698.1	
841.34	3564.8	
841.51	3622.2	
841.68	5634.6	
841.85	5395.7	
842.02	3684.3	
842.19	3063.1	
842.36	5498.8	
842.53	5470.1	
842.7	3549.8	
842.87	4391.5	
843.05	7232.7	
843.22	5438.7	
843.39	3385.3	
843.56	3689.1	
843.73	5165.7	
843.9	5851	
844.07	5871.5	
844.24	4824.3	
844.41	8513.4	
844.58	4960.2	
844.75	3449.5	
844.92	3760.1	
845.09	5715.2	
845.26	5707.7	
845.43	3547.8	
845.6	3764.2	
845.77	5694.7	
845.94	5474.9	
846.12	3958	
846.29	4212	
846.46	5969.8	
846.63	5735.7	
846.8	3508.9	
846.97	4255	
847.14	6242.9	
847.31	5664	
847.48	3955.3	
847.65	4401.8	
847.82	6010.8	
847.99	5973.9	
848.16	4752	
848.33	4433.9	
848.5	5248.9	
848.67	6264.1	
848.84	3479.5	
849.01	3689.8	
849.18	5151.3	
849.35	4796.3	
849.52	4463.9	
849.69	3482.9	
849.86	5925.5	
850.03	6121.4	
850.2	3549.1	
850.37	4369.7	
850.54	6087.2	
850.71	5460.6	
850.88	4252.9	
851.05	3495.2	
851.22	5662.6	
851.39	6266.1	
851.56	3311.6	
851.73	4100.7	
851.9	5038.7	
852.07	5999.9	
852.24	3974.4	
852.41	3538.2	
852.58	5596.4	
852.75	5079.6	
852.92	3919.8	
853.09	3409.9	
853.26	5266	
853.43	6206	
853.6	3545	
853.77	3029.6	
853.94	6284.5	
854.11	5686.5	
854.28	5311.7	
854.44	3798.3	
854.61	6783.6	
854.78	6080.4	
854.95	3513.6	
855.12	4450.9	
855.29	4579.9	
855.46	6483.9	
855.63	3534.8	
855.8	4965	
855.97	5273.5	
856.14	6070.9	
856.31	5065.3	
856.48	3869.3	
856.65	5237.3	
856.82	4933.6	
856.99	3409.2	
857.16	3876.1	
857.33	7012.2	
857.49	5378	
857.66	3776.5	
857.83	4136.2	
858	5330.2	
858.17	5629.9	
858.34	3328.6	
858.51	3583.9	
858.68	6405.4	
858.85	6510.5	
859.02	4136.2	
859.19	4435.9	
859.36	5014.1	
859.52	5044.1	
859.69	3574.4	
859.86	4197.7	
860.03	5139.7	
860.2	6369.2	
860.37	3226.2	
860.54	3583.9	
860.71	5996.5	
860.88	6465.4	
861.05	3973.1	
861.21	4433.2	
861.38	6425.2	
861.55	4899.4	
861.72	3209.8	
861.89	3966.2	
862.06	5997.8	
862.23	6536.4	
862.4	3495.9	
862.56	3736.2	
862.73	5840.8	
862.9	5527.5	
863.07	4214.7	
863.24	3257.6	
863.41	4896	
863.58	4971.8	
863.75	3622.2	
863.91	4089.8	
864.08	6381.5	
864.25	5901.6	
864.42	4461.8	
864.59	4992.3	
864.76	6697.5	
864.93	5084.4	
865.09	3466.5	
865.26	3775.1	
865.43	6240.8	
865.6	6662	
865.77	3078.1	
865.94	3471.3	
866.1	6333	
866.27	5981.4	
866.44	5334.3	
866.61	3359.4	
866.78	5417.6	
866.95	5874.3	
867.11	3373.7	
867.28	3094.5	
867.45	6038.8	
867.62	5124	
867.79	4121.9	
867.96	3566.2	
868.12	4995.7	
868.29	6038.1	
868.46	3540.3	
868.63	4745.1	
868.8	6158.9	
868.97	5943.9	
869.13	3713.6	
869.3	3643.3	
869.47	5896.8	
869.64	6059.9	
869.81	3540.9	
869.97	3526.6	
870.14	5726.1	
870.31	6432	
870.48	3444	
870.65	4411.3	
870.81	5296.7	
870.98	5307	
871.15	4037.2	
871.32	3697.9	
871.48	5813.5	
871.65	6492.1	
871.82	3512.9	
871.99	3913.7	
872.16	6924.2	
872.32	6350.8	
872.49	3566.2	
872.66	3604.4	
872.83	5942.5	
872.99	5244.2	
873.16	4108.2	
873.33	3510.2	
873.5	5606	
873.67	5618.3	
873.83	3704.8	
874	4710.3	
874.17	5756.2	
874.34	6825.9	
874.5	4540.3	
874.67	4413.4	
874.84	6391	
875.01	4964.3	
875.17	5036.6	
875.34	3529.3	
875.51	5633.3	
875.68	6822.5	
875.84	4255.7	
876.01	5198.4	
876.18	5943.9	
876.34	5868.8	
876.51	3574.4	
876.68	3449.5	
876.85	5382.1	
877.01	6287.3	
877.18	5083.1	
877.35	3552.5	
877.52	5537	
877.68	4892.6	
877.85	3417.4	
878.02	3496.6	
878.18	5569.1	
878.35	5202.5	
878.52	2815.3	
878.69	4307.6	
878.85	5970.5	
879.02	5926.1	
879.19	4982.7	
879.35	3780.6	
879.52	5881.1	
879.69	6144.6	
879.86	3016	
880.02	3921.2	
880.19	5490.6	
880.36	6785.6	
880.52	4076.1	
880.69	4272.7	
880.86	6037.4	
881.02	6115.9	
881.19	3922.5	
881.36	3853.6	
881.52	5873.6	
881.69	5254.4	
881.86	3851.5	
882.02	3745.7	
882.19	6201.9	
882.36	7333.1	
882.52	3660.4	
882.69	5003.9	
882.86	5688.6	
883.02	5683.1	
883.19	4312.3	
883.36	4033.1	
883.52	6072.9	
883.69	6917.4	
883.86	3587.4	
884.02	3237.8	
884.19	5982.8	
884.36	5494.7	
884.52	4020.2	
884.69	3715.7	
884.86	5238.7	
885.02	6673.6	
885.19	4009.9	
885.36	4105.5	
885.52	5489.9	
885.69	5647.6	
885.86	5165.7	
886.02	4532.2	
886.19	6004.6	
886.35	5432.6	
886.52	3956.7	
886.69	5023	
886.85	5124	
887.02	6376.7	
887.19	6376.7	
887.35	6376.7	
887.52	6376.7	
887.68	6376.7	
887.85	6376.7	
888.02	6376.7	
888.18	6376.7	
888.35	6376.7	
888.51	6376.7	
888.68	6376.7	
888.85	6376.7	
889.01	6376.7	
889.18	6376.7	
889.35	6376.7	
889.51	6376.7	
889.68	6376.7	
889.84	6376.7	
890.01	6376.7	
890.17	6376.7	
890.34	6376.7	
890.51	6376.7	
890.67	6376.7	
890.84	6376.7	
891	6376.7	
891.17	6376.7	
891.34	6376.7	
891.5	6376.7	
891.67	6376.7	
891.83	6376.7	
892	6376.7	
892.16	6376.7	
892.33	6376.7	
892.5	6376.7	
892.66	6376.7	
892.83	6376.7	
892.99	6376.7	
893.16	6376.7	
893.32	6376.7	
893.49	6376.7	
893.65	6376.7	
893.82	6376.7	
893.99	6376.7	
894.15	6376.7	
894.32	6376.7	
894.48	6376.7	
894.65	6376.7	
894.81	6376.7	
894.98	6376.7	
895.14	6376.7	
895.31	6376.7	
895.47	6376.7	
895.64	6376.7	
895.81	6376.7	
895.97	6376.7	
896.14	6376.7	
896.3	6376.7	
896.47	6376.7	
896.63	6376.7	
896.8	6376.7	
896.96	6376.7	
897.13	6376.7	
897.29	6376.7	
897.46	6376.7	
897.62	6376.7	
897.79	6376.7	
897.95	6376.7	
898.12	6376.7	
898.28	6376.7	
898.45	6376.7	
898.61	6376.7	
898.78	6376.7	
898.94	6376.7	
899.11	6376.7	
899.27	6376.7	
899.44	6376.7	
899.6	6376.7	
899.77	6376.7	
899.93	6376.7	
900.1	6376.7	
900.26	6376.7	
900.43	6376.7	
900.59	6376.7	
900.76	6376.7	
900.92	6376.7	
901.09	6376.7	
901.25	6376.7	
901.42	6376.7	
901.58	6376.7	
901.75	6376.7	
901.91	6376.7	
902.07	6376.7	
902.24	6376.7	
902.4	6376.7	
902.57	6376.7	
902.73	6376.7	
902.9	6376.7	
903.06	6376.7	
903.23	6376.7	
903.39	6376.7	
903.56	6376.7	
903.72	6376.7	
903.88	6376.7	
904.05	6376.7	
904.21	6376.7	
904.38	6376.7	
904.54	6376.7	
904.71	6376.7	
904.87	6376.7	
905.03	6376.7	
905.2	6376.7	
905.36	6376.7	
905.53	6376.7	
905.69	6376.7	
905.86	6376.7	
906.02	6376.7	
906.18	6376.7	
906.35	6376.7	
906.51	6376.7	
906.68	6376.7	
906.84	6376.7	
907.01	6376.7	
907.17	6376.7	
907.33	6376.7	
907.5	6376.7	
907.66	6376.7	
907.83	6376.7	
907.99	6376.7	
908.15	6376.7	
908.32	6376.7	
908.48	6376.7	
908.65	6376.7	
908.81	6376.7	
908.97	6376.7	
909.14	6376.7	
909.3	6376.7	
909.47	6376.7	
909.63	6376.7	
909.79	6376.7	
909.96	6376.7	
910.12	6376.7	
910.28	6376.7	
910.45	6376.7	
910.61	6376.7	
910.78	6376.7	
910.94	6376.7	
911.1	6376.7	
911.27	6376.7	
911.43	6376.7	
911.59	6376.7	
911.76	6376.7	
911.92	6376.7	
912.08	6376.7	
912.25	6376.7	
912.41	6376.7	
912.57	6376.7	
912.74	6376.7	
912.9	6376.7	
913.07	6376.7	
913.23	6376.7	
913.39	6376.7	
913.56	6376.7	
913.72	6376.7	
913.88	6376.7	
914.05	6376.7	
914.21	6376.7	
914.37	6376.7	
914.54	6376.7	
914.7	6376.7	
914.86	6376.7	
915.03	6376.7	
915.19	6376.7	
