Wavelength	Intensities	
nm	a.u.	
179.22	1785.5	
179.44	1784.5	
179.65	1786.5	
179.86	1782.4	
180.08	1800.2	
180.29	4349.9	
180.51	3224.9	
180.72	5322	
180.94	5991	
181.15	3012.6	
181.37	2915.6	
181.58	5088.5	
181.79	5314.5	
182.01	3045.3	
182.22	3323.2	
182.44	5333.6	
182.65	4562.2	
182.87	4073.4	
183.08	3583.9	
183.29	5627.1	
183.51	4645.5	
183.72	3259.7	
183.94	4724	
184.15	5003.2	
184.37	5026.4	
184.58	2884.9	
184.79	3915.7	
185.01	4688.5	
185.22	5346.6	
185.44	4042.7	
185.65	3507.5	
185.86	4998.4	
186.08	4636.6	
186.29	2826.2	
186.51	3011.9	
186.72	4724.7	
186.94	5457.8	
187.15	3523.9	
187.36	3609.9	
187.58	6949.4	
187.79	5122	
188.01	3732.1	
188.22	5597.1	
188.43	6078.4	
188.65	5336.3	
188.86	3024.2	
189.08	3614.7	
189.29	4821.6	
189.5	4894	
189.72	3356.6	
189.93	3354.6	
190.15	5535	
190.36	6439.5	
190.57	3672.7	
190.79	3508.2	
191	5569.1	
191.22	5467.4	
191.43	3659.7	
191.64	3093.8	
191.86	5679	
192.07	5525.4	
192.29	3183.2	
192.5	3303.4	
192.71	5517.2	
192.93	4836.6	
193.14	3307.5	
193.35	3429	
193.57	4801.1	
193.78	5481.7	
194	2706	
194.21	3197.6	
194.42	4614.1	
194.64	5053	
194.85	3530.7	
195.07	4099.4	
195.28	5010.7	
195.49	4465.3	
195.71	4308.9	
195.92	3089.7	
196.13	5248.9	
196.35	5343.2	
196.56	4647.5	
196.78	3564.1	
196.99	6413.6	
197.2	6044.9	
197.42	3656.3	
197.63	3664.5	
197.84	4545.1	
198.06	5171.1	
198.27	3316.3	
198.48	4449.6	
198.7	4834.6	
198.91	5023	
199.13	3629	
199.34	3687	
199.55	5410.7	
199.77	4382	
199.98	3208.5	
200.19	3687	
200.41	4989.5	
200.62	4728.1	
200.83	3719.8	
201.05	4040.6	
201.26	4966.3	
201.47	4709	
201.69	3263.1	
201.9	3138.9	
202.11	5001.8	
202.33	5862.7	
202.54	3407.8	
202.76	3792.2	
202.97	5112.4	
203.18	5150	
203.4	3803.8	
203.61	3714.3	
203.82	5081	
204.04	4739.7	
204.25	3702.7	
204.46	3580.5	
204.68	5081.7	
204.89	5203.2	
205.1	3502.7	
205.32	3079.5	
205.53	5385.5	
205.74	5485.8	
205.96	2717.7	
206.17	3732.8	
206.38	5345.9	
206.6	5541.1	
206.81	4078.2	
207.02	3360	
207.24	5268.1	
207.45	5600.5	
207.66	3476.8	
207.88	3007.1	
208.09	5174.5	
208.3	5057.1	
208.52	3238.5	
208.73	3529.3	
208.94	5047.6	
209.15	5631.2	
209.37	3472	
209.58	3576.4	
209.79	5474.9	
210.01	4857.1	
210.22	2804.4	
210.43	2965.5	
210.65	5027.1	
210.86	5390.9	
211.07	3455.6	
211.29	3155.9	
211.5	5266	
211.71	4980.7	
211.93	3207.8	
212.14	3198.2	
212.35	4937.7	
212.56	5155.4	
212.78	3576.4	
212.99	3045.3	
213.2	5898.8	
213.42	4825	
213.63	3317.7	
213.84	3493.8	
214.06	4516.5	
214.27	4610.7	
214.48	3431.7	
214.69	3661.1	
214.91	5582.8	
215.12	5664	
215.33	3703.4	
215.55	4001	
215.76	6039.5	
215.97	5281	
216.18	3568.2	
216.4	3577.8	
216.61	4749.9	
216.82	5468.8	
217.04	3266.5	
217.25	3335.5	
217.46	5572.5	
217.67	5368.4	
217.89	2874.7	
218.1	2986.6	
218.31	5132.2	
218.53	5176.6	
218.74	3399.6	
218.95	3261	
219.16	5016.2	
219.38	5783.5	
219.59	3280.8	
219.8	3909.6	
220.01	6314.6	
220.23	5020.9	
220.44	4217.5	
220.65	3174.4	
220.87	5141.1	
221.08	5563	
221.29	3013.2	
221.5	3950.5	
221.72	6655.2	
221.93	4769.7	
222.14	3616.7	
222.35	4286.4	
222.57	5018.9	
222.78	5412.1	
222.99	3475.4	
223.2	3716.4	
223.42	5268.7	
223.63	5409.4	
223.84	2695.8	
224.05	2701.3	
224.27	6296.8	
224.48	5814.9	
224.69	4237.2	
224.9	3635.1	
225.12	5236.7	
225.33	5020.9	
225.54	2943.6	
225.75	3278.1	
225.97	4672.8	
226.18	4940.4	
226.39	3472	
226.6	3253.5	
226.82	4814.8	
227.03	4699.4	
227.24	3662.5	
227.45	3069.9	
227.67	5388.9	
227.88	5773.9	
228.09	4057	
228.3	4061.1	
228.52	5373.2	
228.73	4975.2	
228.94	3380.5	
229.15	3041.2	
229.36	4990.9	
229.58	4937.7	
229.79	3407.8	
230	3992.2	
230.21	5927.5	
230.43	5115.1	
230.64	3589.4	
230.85	3712.3	
231.06	5429.2	
231.28	5453.1	
231.49	3019.4	
231.7	3543	
231.91	5314.5	
232.12	5049.6	
232.34	3147.7	
232.55	3521.8	
232.76	5580.7	
232.97	5184.1	
233.18	3178.4	
233.4	3577.8	
233.61	5203.9	
233.82	4733.5	
234.03	3324.5	
234.25	3258.3	
234.46	6855.9	
234.67	5110.4	
234.88	3685	
235.09	3283.6	
235.31	5248.9	
235.52	4970.4	
235.73	3616	
235.94	3082.2	
236.15	4828.4	
236.37	6000.5	
236.58	3170.3	
236.79	3489.1	
237	5261.9	
237.21	4622.3	
237.43	3762.8	
237.64	2923.8	
237.85	8690.9	
238.06	4630.5	
238.27	3713.7	
238.48	3043.3	
238.7	5317.9	
238.91	4970.4	
239.12	3433.8	
239.33	3510.2	
239.54	4714.4	
239.76	4900.8	
239.97	3444.7	
240.18	3525.9	
240.39	6150.1	
240.6	5240.8	
240.82	3585.3	
241.03	2984.6	
241.24	5072.8	
241.45	5798.5	
241.66	3201	
241.87	3751.9	
242.09	5649.7	
242.3	5973.2	
242.51	3833.8	
242.72	3459.7	
242.93	5460.6	
243.14	4956.1	
243.36	4013.3	
243.57	4304.1	
243.78	5750	
243.99	5327.4	
244.2	3487.7	
244.41	3170.9	
244.63	4709.6	
244.84	5339.1	
245.05	3728.7	
245.26	3528	
245.47	5297.4	
245.68	5466	
245.9	4534.9	
246.11	3659	
246.32	4855.7	
246.53	5264	
246.74	5584.8	
246.95	2945	
247.16	4683.7	
247.38	5029.8	
247.59	2949.8	
247.8	3525.2	
248.01	4714.4	
248.22	4974.5	
248.43	3218.7	
248.64	3411.9	
248.86	4500.8	
249.07	4849.6	
249.28	3096.5	
249.49	3590.1	
249.7	5474.9	
249.91	5588.2	
250.12	3024.8	
250.34	3016.7	
250.55	5156.8	
250.76	5031.2	
250.97	3609.9	
251.18	3589.4	
251.39	5621.7	
251.6	5171.1	
251.81	3698.6	
252.03	3660.4	
252.24	4810	
252.45	5429.8	
252.66	3088.3	
252.87	3855	
253.08	5088.5	
253.29	6423.8	
253.5	3114.3	
253.72	4242	
253.93	4898.1	
254.14	5932.3	
254.35	3289	
254.56	3421.5	
254.77	5235.3	
254.98	4715.8	
255.19	3286.3	
255.41	4192.2	
255.62	5160.2	
255.83	5599.1	
256.04	3735.5	
256.25	3611.3	
256.46	6112.5	
256.67	4807.3	
256.88	3548.4	
257.09	3984.7	
257.31	4726	
257.52	4736.3	
257.73	4515.1	
257.94	3289	
258.15	4934.9	
258.36	5091.3	
258.57	4104.1	
258.78	2723.1	
258.99	5458.5	
259.2	4939.7	
259.41	3321.1	
259.63	3398.3	
259.84	5754.1	
260.05	6155.5	
260.26	4329.4	
260.47	3297.9	
260.68	5521.3	
260.89	4934.9	
261.1	3992.2	
261.31	3199.6	
261.52	5569.8	
261.73	5902.2	
261.95	4250.9	
262.16	3713.6	
262.37	5645.6	
262.58	5763.7	
262.79	4277.5	
263	3365.5	
263.21	5186.8	
263.42	4918.5	
263.63	3478.8	
263.84	3403	
264.05	5550	
264.26	5782.1	
264.47	4184.7	
264.69	3707.5	
264.9	5694	
265.11	5173.2	
265.32	3288.4	
265.53	3345.7	
265.74	5145.2	
265.95	4534.2	
266.16	3567.6	
266.37	3898.6	
266.58	5177.3	
266.79	4845.5	
267	3287.7	
267.21	3092.4	
267.42	4659.8	
267.63	5032.5	
267.84	3484.3	
268.06	3037.1	
268.27	5412.8	
268.48	5611.4	
268.69	3398.9	
268.9	3994.9	
269.11	5631.2	
269.32	4570.4	
269.53	3486.3	
269.74	3226.2	
269.95	5298.8	
270.16	4505.5	
270.37	3505.4	
270.58	4012	
270.79	4938.3	
271	5474.9	
271.21	3762.8	
271.42	3550.5	
271.63	5175.9	
271.84	4702.8	
272.05	2860.3	
272.26	3155.9	
272.47	5089.9	
272.68	5188.9	
272.89	3346.4	
273.11	3813.3	
273.32	4879.6	
273.53	5879.7	
273.74	3820.1	
273.95	3616	
274.16	5545.2	
274.37	5075.5	
274.58	3794.9	
274.79	3118.4	
275	5165.7	
275.21	5535.7	
275.42	4586.8	
275.63	3921.2	
275.84	5295.4	
276.05	6513.2	
276.26	3681.6	
276.47	3448.1	
276.68	4919.2	
276.89	5946.6	
277.1	3932.1	
277.31	3117.7	
277.52	5285.1	
277.73	5474.2	
277.94	3030.3	
278.15	3328.6	
278.36	5255.8	
278.57	4768.4	
278.78	3351.2	
278.99	3720.5	
279.2	4731.5	
279.41	4689.8	
279.62	4332.1	
279.83	3125.2	
280.04	6019.7	
280.25	4678.2	
280.46	4326	
280.67	3455.6	
280.88	4718.5	
281.09	5593	
281.3	3667.2	
281.51	4530.1	
281.72	4831.8	
281.93	5468.8	
282.14	3336.8	
282.35	3528.7	
282.56	5444.9	
282.77	5397.8	
282.98	3379.1	
283.19	4057	
283.4	6583.5	
283.61	5003.9	
283.82	3148.4	
284.03	4231.1	
284.24	5117.2	
284.45	5499.5	
284.66	4290.5	
284.87	4141	
285.08	5537.7	
285.29	5656.5	
285.5	3013.9	
285.71	3436.5	
285.92	5524.1	
286.12	6117.3	
286.33	4275.5	
286.54	3401.7	
286.75	5444.9	
286.96	4927.4	
287.17	3129.3	
287.38	4132.8	
287.59	4742.4	
287.8	4717.2	
288.01	3422.2	
288.22	3947.8	
288.43	5464	
288.64	4633.9	
288.85	4029.7	
289.06	3802.4	
289.27	5416.9	
289.48	5866.1	
289.69	4321.9	
289.9	3865.9	
290.11	5613.5	
290.32	4857.1	
290.53	4098	
290.74	3773	
290.94	5395	
291.15	5453.7	
291.36	3287.7	
291.57	3849.5	
291.78	4810.7	
291.99	4508.9	
292.2	3155.9	
292.41	3749.8	
292.62	5490.6	
292.83	5343.2	
293.04	4610.7	
293.25	3212.6	
293.46	4872.8	
293.67	5564.3	
293.88	3250.8	
294.09	3177.8	
294.29	4663.9	
294.5	5181.4	
294.71	3552.5	
294.92	3334.8	
295.13	4855.1	
295.34	6049	
295.55	3003.7	
295.76	3035.1	
295.97	5372.5	
296.18	5978.7	
296.39	3134.1	
296.6	3262.4	
296.81	5133.6	
297.01	5425.1	
297.22	3448.1	
297.43	3327.9	
297.64	4752	
297.85	4746.5	
298.06	2760.7	
298.27	3030.3	
298.48	5072.8	
298.69	4835.3	
298.9	3559.4	
299.11	3235.1	
299.31	4693.9	
299.52	4624.3	
299.73	3822.2	
299.94	3700	
300.15	5014.8	
300.36	4747.2	
300.57	3719.8	
300.78	3695.9	
300.99	4954	
301.2	5116.5	
301.4	3248.8	
301.61	3557.3	
301.82	5296	
302.03	5388.9	
302.24	3947.8	
302.45	3154.6	
302.66	5328.1	
302.87	5639.4	
303.08	3312.9	
303.29	4374.5	
303.49	4878.9	
303.7	5020.3	
303.91	2988	
304.12	4228.4	
304.33	4598.4	
304.54	5107	
304.75	3303.4	
304.96	3145	
305.16	5321.3	
305.37	5999.2	
305.58	2906.8	
305.79	3048.7	
306	5318.6	
306.21	4519.9	
306.42	3321.1	
306.63	4965.6	
306.83	4932.9	
307.04	5447.6	
307.25	3655.6	
307.46	3580.5	
307.67	4375.1	
307.88	5341.1	
308.09	3281.5	
308.29	3286.3	
308.5	5115.8	
308.71	5570.5	
308.92	3483.6	
309.13	3172.3	
309.34	4954.7	
309.55	5003.2	
309.75	4081.6	
309.96	3719.1	
310.17	5423	
310.38	4712.4	
310.59	3924.6	
310.8	3146.4	
311.01	5700.9	
311.21	4969.7	
311.42	3166.2	
311.63	3227.6	
311.84	4788.2	
312.05	5082.4	
312.26	3676.8	
312.46	3986	
312.67	4954.7	
312.88	4660.5	
313.09	3174.4	
313.3	3131.3	
313.51	5759.6	
313.71	5988.9	
313.92	3136.1	
314.13	3371.6	
314.34	5243.5	
314.55	5002.5	
314.76	4008.6	
314.96	3551.2	
315.17	5150	
315.38	5320.6	
315.59	3233.1	
315.8	3095.2	
316.01	5849	
316.21	5823.7	
316.42	3073.3	
316.63	3502	
316.84	4924.7	
317.05	5637.4	
317.26	3715.7	
317.46	3403.7	
317.67	5008	
317.88	5402.5	
318.09	3940.3	
318.3	3005.1	
318.5	4842.8	
318.71	5297.4	
318.92	5042.8	
319.13	3696.6	
319.34	5510.4	
319.54	5625.1	
319.75	3003	
319.96	2876	
320.17	5324	
320.38	5566.4	
320.58	2896.5	
320.79	3464.5	
321	5575.3	
321.21	5618.3	
321.42	3502	
321.62	2971.6	
321.83	4737	
322.04	5102.9	
322.25	3414	
322.46	3217.4	
322.66	5197.1	
322.87	5317.2	
323.08	3902.1	
323.29	3155.2	
323.5	5957.5	
323.7	4616.1	
323.91	4264.6	
324.12	3855.6	
324.33	5127.4	
324.53	5330.9	
324.74	3761.4	
324.95	3897.3	
325.16	4552	
325.37	4923.3	
325.57	3142.3	
325.78	3248.1	
325.99	5207.3	
326.2	4631.8	
326.4	4519.9	
326.61	2960.7	
326.82	4970.4	
327.03	5161.6	
327.24	4504.8	
327.44	4173.8	
327.65	5257.8	
327.86	4369	
328.07	3741.6	
328.27	3069.2	
328.48	5636.7	
328.69	4683	
328.9	4500.1	
329.1	3411.2	
329.31	4982.7	
329.52	5693.4	
329.73	3233.1	
329.93	3558.7	
330.14	5068	
330.35	5236	
330.56	5200.5	
330.76	3904.8	
330.97	4928.1	
331.18	5172.5	
331.39	3569.6	
331.59	2884.9	
331.8	5591	
332.01	5611.4	
332.22	3341.6	
332.42	3747.8	
332.63	5160.2	
332.84	4778.6	
333.05	3593.5	
333.25	3239.9	
333.46	4855.1	
333.67	4995	
333.88	3362.8	
334.08	3744.4	
334.29	6581.5	
334.5	5578.7	
334.7	3115	
334.91	4493.9	
335.12	4627	
335.33	5428.5	
335.53	3559.4	
335.74	5131.5	
335.95	4904.2	
336.16	4691.9	
336.36	3511.6	
336.57	3982.6	
336.78	4652.3	
336.98	5526.1	
337.19	4362.9	
337.4	3450.8	
337.61	6015.6	
337.81	4620.9	
338.02	3282.2	
338.23	4104.1	
338.43	5722	
338.64	4742.4	
338.85	3249.4	
339.05	4149.9	
339.26	5795.8	
339.47	4573.8	
339.68	3197.6	
339.88	4657.8	
340.09	5295.4	
340.3	5507	
340.5	3723.2	
340.71	2900.6	
340.92	4669.4	
341.13	5652.4	
341.33	3132	
341.54	3692.5	
341.75	5243.5	
341.95	4924.7	
342.16	3599.6	
342.37	3890.5	
342.57	4686.4	
342.78	5030.5	
342.99	3950.5	
343.19	2930.6	
343.4	5439.4	
343.61	5282.4	
343.81	3442.6	
344.02	3138.9	
344.23	5399.1	
344.43	5719.3	
344.64	3885.7	
344.85	3786.7	
345.06	5253.7	
345.26	5554.8	
345.47	3670.6	
345.68	4268	
345.88	4576.5	
346.09	5481	
346.3	3776.5	
346.5	2843.9	
346.71	5029.1	
346.92	4771.1	
347.12	3004.4	
347.33	3688.4	
347.54	5512.4	
347.74	5881.8	
347.95	3688.4	
348.16	2803	
348.36	4905.6	
348.57	4756.7	
348.78	3672	
348.98	3960.1	
349.19	5031.2	
349.39	4554.7	
349.6	2977.7	
349.81	3284.3	
350.01	5313.1	
350.22	4792.9	
350.43	3654.9	
350.63	4165.6	
350.84	5090.6	
351.05	4825.7	
351.25	3241.9	
351.46	2955.9	
351.67	5485.8	
351.87	4750.6	
352.08	3479.5	
352.29	3876.1	
352.49	5442.1	
352.7	5479	
352.9	3133.4	
353.11	3855	
353.32	6008.7	
353.52	4902.8	
353.73	3149.1	
353.94	3953.3	
354.14	5339.7	
354.35	5132.9	
354.55	3179.1	
354.76	3528.7	
354.97	5326.8	
355.17	5039.4	
355.38	3110.9	
355.59	4182.6	
355.79	4817.5	
356	5129.5	
356.2	3530.7	
356.41	3146.4	
356.62	4599.1	
356.82	5005.9	
357.03	3803.8	
357.24	3428.3	
357.44	4800.4	
357.65	4920.6	
357.85	4579.3	
358.06	3629	
358.27	4559.5	
358.47	4751.3	
358.68	3059	
358.88	3841.3	
359.09	5283.8	
359.3	5588.9	
359.5	4386.1	
359.71	3898.6	
359.91	5969.1	
360.12	5404.6	
360.33	3746.4	
360.53	4156	
360.74	4876.2	
360.94	4909.7	
361.15	3859.1	
361.36	3306.1	
361.56	5608	
361.77	5008	
361.97	4347.2	
362.18	3474.7	
362.38	5532.2	
362.59	4717.8	
362.8	3263.1	
363	3110.9	
363.21	4524	
363.41	5160.9	
363.62	3725.3	
363.83	4546.5	
364.03	5296.7	
364.24	5994.4	
364.44	4671.4	
364.65	4668.7	
364.85	5011.4	
365.06	4782.7	
365.27	3420.1	
365.47	3477.5	
365.68	5862	
365.88	4969.7	
366.09	3739.6	
366.29	3510.2	
366.5	5221	
366.71	5589.6	
366.91	4668.7	
367.12	3941.7	
367.32	6106.4	
367.53	5529.5	
367.73	3902.7	
367.94	4773.8	
368.14	5453.1	
368.35	6221	
368.56	3849.5	
368.76	3337.5	
368.97	5577.3	
369.17	7004.7	
369.38	3452.2	
369.58	3693.9	
369.79	4667.3	
369.99	5890	
370.2	4540.3	
370.4	3799.7	
370.61	5324	
370.82	6341.9	
371.02	3681.6	
371.23	3103.4	
371.43	4614.1	
371.64	5842.9	
371.84	3794.2	
372.05	4782.7	
372.25	6932.4	
372.46	5561.6	
372.66	3725.3	
372.87	3719.1	
373.07	5652.4	
373.28	7024.5	
373.48	4603.2	
373.69	4379.2	
373.9	5192.3	
374.1	5191.6	
374.31	4560.1	
374.51	4190.1	
374.72	5877	
374.92	4948.6	
375.13	4668	
375.33	4018.8	
375.54	5564.3	
375.74	5090.6	
375.95	4109.6	
376.15	5111	
376.36	5582.1	
376.56	5406	
376.77	4162.2	
376.97	4463.2	
377.18	6549.4	
377.38	5717.2	
377.59	4781.3	
377.79	3685	
378	5540.4	
378.2	5862	
378.41	3816	
378.61	3685	
378.82	5902.9	
379.02	5176.6	
379.23	3988.1	
379.43	4877.6	
379.64	6097.5	
379.84	5701.5	
380.05	3792.2	
380.25	3751.9	
380.46	5812.8	
380.66	5332.2	
380.87	4941.7	
381.07	5286.5	
381.28	6306.4	
381.48	5726.8	
381.69	3831.1	
381.89	3840.6	
382.1	4853.7	
382.3	5867.4	
382.51	4805.2	
382.71	5544.5	
382.91	5773.9	
383.12	6216.3	
383.32	4138.9	
383.53	4291.9	
383.73	5632.6	
383.94	5472.2	
384.14	4340.3	
384.35	3518.4	
384.55	5343.8	
384.76	5710.4	
384.96	4154.6	
385.17	4422.2	
385.37	5768.4	
385.58	5134.3	
385.78	4346.5	
385.98	3467.2	
386.19	5503.6	
386.39	5679.7	
386.6	3967.6	
386.8	4146.5	
387.01	5718.6	
387.21	5809.4	
387.42	4506.2	
387.62	5008	
387.83	5177.9	
388.03	5692.7	
388.23	4218.1	
388.44	4869.4	
388.64	4810	
388.85	5055.8	
389.05	4509.6	
389.26	5079.6	
389.46	6548	
389.67	6178.7	
389.87	4545.1	
390.07	4588.8	
390.28	5548.6	
390.48	5151.3	
390.69	3940.3	
390.89	4190.8	
391.1	5361.6	
391.3	6111.8	
391.5	5175.9	
391.71	5749.3	
391.91	5929.6	
392.12	6716	
392.32	5317.9	
392.53	4588.1	
392.73	5442.1	
392.93	5622.4	
393.14	4386.1	
393.34	5354.8	
393.55	6032	
393.75	5526.1	
393.95	4285.7	
394.16	4248.9	
394.36	5328.8	
394.57	5890	
394.77	3857.7	
394.98	4193.6	
395.18	5344.5	
395.38	5373.2	
395.59	4991.6	
395.79	4061.1	
396	5468.8	
396.2	5905.7	
396.4	4886.5	
396.61	4786.1	
396.81	6099.5	
397.02	5440.1	
397.22	5108.3	
397.42	5134.3	
397.63	6096.1	
397.83	5395.7	
398.04	4090.5	
398.24	4630.5	
398.44	5931.6	
398.65	5172.5	
398.85	3974.4	
399.05	4163.5	
399.26	5467.4	
399.46	6891.4	
399.67	4414.7	
399.87	4197.7	
400.07	5855.1	
400.28	6066.8	
400.48	4338.3	
400.69	5264	
400.89	6268.8	
401.09	6678.4	
401.3	4282.3	
401.5	5200.5	
401.7	6890.7	
401.91	7163.1	
402.11	4681	
402.32	4726	
402.52	6408.8	
402.72	6236.7	
402.93	4991.6	
403.13	4029	
403.33	7007.5	
403.54	5856.5	
403.74	4676.9	
403.94	5401.2	
404.15	5877.7	
404.35	6853.2	
404.56	4448.2	
404.76	5945.9	
404.96	6219	
405.17	6028.5	
405.37	5465.3	
405.57	4806.6	
405.78	6339.8	
405.98	5858.6	
406.18	4579.9	
406.39	5365.7	
406.59	6399.9	
406.79	6046.3	
407	4367	
407.2	4437.3	
407.4	6391	
407.61	6500.3	
407.81	4418.2	
408.01	6003.3	
408.22	5501.5	
408.42	7159	
408.62	5495.4	
408.83	5026.4	
409.03	6135	
409.23	6043.6	
409.44	5257.1	
409.64	5475.6	
409.84	7096.2	
410.05	7038.2	
410.25	5424.4	
410.45	5219.6	
410.66	6726.9	
410.86	8750.3	
411.06	5699.5	
411.27	5548.6	
411.47	8621.9	
411.67	6842.9	
411.88	5804.6	
412.08	6023.8	
412.28	7452.6	
412.49	7849.9	
412.69	5667.4	
412.89	5745.2	
413.09	7750.9	
413.3	7717.4	
413.5	5791	
413.7	5494.7	
413.91	7072.3	
414.11	7851.9	
414.31	5753.4	
414.52	6199.9	
414.72	7528.3	
414.92	7593.2	
415.12	5683.8	
415.33	6212.9	
415.53	7861.5	
415.73	8054	
415.94	6562.4	
416.14	6021.7	
416.34	7078.5	
416.55	6799.3	
416.75	7113.3	
416.95	6607.4	
417.15	7892.9	
417.36	8437.6	
417.56	7328.3	
417.76	6531	
417.97	8273.1	
418.17	8015.7	
418.37	6201.2	
418.57	6241.5	
418.78	7901.7	
418.98	7580.9	
419.18	7068.2	
419.38	6941.2	
419.59	7562.5	
419.79	7266.2	
419.99	6110.5	
420.2	6397.9	
420.4	7993.2	
420.6	8060.1	
420.8	6031.3	
421.01	5863.3	
421.21	7823.9	
421.41	8084	
421.61	6408.8	
421.82	6148.7	
422.02	7511.3	
422.22	8269	
422.42	6848.4	
422.63	6508.4	
422.83	7616.4	
423.03	8699.8	
423.23	6609.5	
423.44	5684.5	
423.64	7614.3	
423.84	7322.2	
424.04	6087.9	
424.25	5748.6	
424.45	8418.5	
424.65	8314.1	
424.85	5590.3	
425.06	6063.4	
425.26	8462.9	
425.46	7458.7	
425.66	6428.6	
425.87	6289.3	
426.07	8170	
426.27	7999.4	
426.47	6432.7	
426.67	5821.7	
426.88	8476.5	
427.08	7952.9	
427.28	6604	
427.48	5741.1	
427.69	6968.6	
427.89	7600.7	
428.09	6506.4	
428.29	5778	
428.5	8177.5	
428.7	7761.1	
428.9	5769.8	
429.1	6153.5	
429.3	7767.3	
429.51	8114.1	
429.71	6012.8	
429.91	6719.4	
430.11	8082.6	
430.31	8329.1	
430.52	6244.3	
430.72	6586.3	
430.92	8641.7	
431.12	8127	
431.32	6107.7	
431.53	6464.1	
431.73	7196.6	
431.93	8617.9	
432.13	5993	
432.33	6004	
432.54	7530.4	
432.74	7927.7	
432.94	5897.5	
433.14	6753.5	
433.34	8150.9	
433.55	7745.4	
433.75	6820.4	
433.95	8374.1	
434.15	8039.6	
434.35	7840.3	
434.56	6135	
434.76	5878.4	
434.96	8086.1	
435.16	8366.6	
435.36	6120	
435.56	7139.9	
435.77	7862.8	
435.97	8047.8	
436.17	7836.2	
436.37	7135.8	
436.57	7842.4	
436.78	7825.3	
436.98	8561.9	
437.18	7570	
437.38	8554.4	
437.58	8021.2	
437.78	7729.7	
437.99	6591	
438.19	8546.2	
438.39	9684.8	
438.59	6508.4	
438.79	6072.2	
438.99	8996.7	
439.2	7880.6	
439.4	5974.6	
439.6	6062.7	
439.8	8158.4	
440	9125.1	
440.2	7033.4	
440.4	7126.9	
440.61	8645.8	
440.81	9159.2	
441.01	6511.2	
441.21	7363.1	
441.41	9270.5	
441.61	8811	
441.81	7799.3	
442.02	8623.3	
442.22	9622.7	
442.42	9041.8	
442.62	6693.4	
442.82	6731.7	
443.02	9279.3	
443.22	8519.6	
443.43	7062.1	
443.63	6706.4	
443.83	8331.8	
444.03	8398	
444.23	7854.6	
444.43	7466.9	
444.63	8778.3	
444.83	9769.5	
445.04	7075	
445.24	8088.8	
445.44	9040.4	
445.64	9125.7	
445.84	7608.2	
446.04	7671.7	
446.24	8441.7	
446.44	9370.1	
446.65	6778.1	
446.85	7200.7	
447.05	8584.4	
447.25	9213.1	
447.45	7205.4	
447.65	6708.5	
447.85	8702.5	
448.05	8335.9	
448.25	7628	
448.46	7526.3	
448.66	8759.2	
448.86	8449.2	
449.06	6682.5	
449.26	7543.4	
449.46	9004.2	
449.66	8208.9	
449.86	7296.2	
450.06	7274.4	
450.26	8479.3	
450.47	9010.4	
450.67	7507.2	
450.87	7890.1	
451.07	9085.5	
451.27	8974.9	
451.47	6925.5	
451.67	7491.5	
451.87	8689.5	
452.07	9549	
452.27	7208.8	
452.47	7124.9	
452.67	8949.6	
452.88	9421.3	
453.08	6662.7	
453.28	8419.2	
453.48	10084	
453.68	8806.3	
453.88	7253.9	
454.08	7400	
454.28	9302.6	
454.48	8927.1	
454.68	7804.8	
454.88	8211.7	
455.08	9424.8	
455.28	9349	
455.48	7079.1	
455.68	7755	
455.89	9990.7	
456.09	9667.8	
456.29	7520.1	
456.49	7701	
456.69	9966.1	
456.89	9345.6	
457.09	8070.4	
457.29	8509.3	
457.49	9618.6	
457.69	9782.5	
457.89	8121.6	
458.09	7549.5	
458.29	9501.2	
458.49	10253	
458.69	8589.2	
458.89	8051.2	
459.09	10551	
459.29	10668	
459.49	8161.2	
459.69	8985.1	
459.9	10131	
460.1	9881.4	
460.3	8122.9	
460.5	7946.1	
460.7	10155	
460.9	9841.2	
461.1	7650.5	
461.3	8819.9	
461.5	10732	
461.7	10476	
461.9	8204.8	
462.1	8484.1	
462.3	10187	
462.5	10579	
462.7	8310.7	
462.9	8508.6	
463.1	11557	
463.3	11311	
463.5	8618.5	
463.7	9691.7	
463.9	10402	
464.1	10800	
464.3	9044.5	
464.5	9113.5	
464.7	11116	
464.9	11055	
465.1	10418	
465.3	9689.6	
465.5	11471	
465.7	11578	
465.9	10000	
466.1	9579	
466.3	11460	
466.5	11128	
466.7	10672	
466.9	9610.4	
467.1	11314	
467.3	12125	
467.5	10593	
467.7	9826.8	
467.9	12359	
468.1	13039	
468.3	10245	
468.5	10783	
468.7	11437	
468.9	11286	
469.1	10016	
469.3	10688	
469.5	13160	
469.7	11245	
469.9	10365	
470.1	10019	
470.3	11649	
470.5	11561	
470.7	10966	
470.9	9953.8	
471.1	11487	
471.3	11653	
471.5	9830.9	
471.69	11422	
471.89	11153	
472.09	10873	
472.29	10531	
472.49	10586	
472.69	11135	
472.89	11740	
473.09	9744.9	
473.29	9683.5	
473.49	11188	
473.69	11201	
473.89	10510	
474.09	9896.5	
474.29	12327	
474.49	11986	
474.69	10583	
474.89	10031	
475.09	11153	
475.29	11315	
475.49	9447.3	
475.69	9815.2	
475.88	12622	
476.08	11685	
476.28	9543.5	
476.48	9611.8	
476.68	11875	
476.88	11599	
477.08	9603.6	
477.28	9960	
477.48	11254	
477.68	11799	
477.88	9473.2	
478.08	9750.4	
478.28	12149	
478.48	11323	
478.67	9838.4	
478.87	9245.2	
479.07	12100	
479.27	11545	
479.47	10107	
479.67	10097	
479.87	11945	
480.07	12288	
480.27	9478	
480.47	10842	
480.67	11572	
480.87	12185	
481.06	9796.8	
481.26	10544	
481.46	11767	
481.66	11519	
481.86	10256	
482.06	11176	
482.26	11499	
482.46	12220	
482.66	10036	
482.86	9772.9	
483.05	11749	
483.25	11124	
483.45	12298	
483.65	10210	
483.85	11345	
484.05	11652	
484.25	10638	
484.45	11064	
484.65	12359	
484.84	12591	
485.04	10314	
485.24	10238	
485.44	12812	
485.64	11389	
485.84	9849.4	
486.04	11060	
486.24	11681	
486.44	12030	
486.63	9827.5	
486.83	10623	
487.03	11820	
487.23	12147	
487.43	9829.6	
487.63	12108	
487.83	12044	
488.02	12949	
488.22	10995	
488.42	11554	
488.62	12837	
488.82	12011	
489.02	10531	
489.22	10781	
489.41	12779	
489.61	12711	
489.81	10445	
490.01	10492	
490.21	12800	
490.41	13459	
490.61	10598	
490.8	10768	
491	12505	
491.2	11923	
491.4	11220	
491.6	10500	
491.8	12381	
491.99	12400	
492.19	10118	
492.39	10430	
492.59	12707	
492.79	12682	
492.99	11185	
493.18	10451	
493.38	12949	
493.58	13886	
493.78	11275	
493.98	11040	
494.18	12976	
494.37	12626	
494.57	11735	
494.77	11789	
494.97	13384	
495.17	13710	
495.37	11507	
495.56	11706	
495.76	14063	
495.96	13844	
496.16	12888	
496.36	11969	
496.55	14059	
496.75	13811	
496.95	12478	
497.15	12208	
497.35	14104	
497.54	14165	
497.74	11957	
497.94	13429	
498.14	14728	
498.34	14491	
498.53	11813	
498.73	12600	
498.93	13678	
499.13	14155	
499.33	12514	
499.52	12930	
499.72	14534	
499.92	14551	
500.12	12300	
500.32	12629	
500.51	14583	
500.71	14504	
500.91	13416	
501.11	13067	
501.31	14513	
501.5	14891	
501.7	13629	
501.9	12781	
502.1	14263	
502.29	14769	
502.49	13191	
502.69	13312	
502.89	14606	
503.09	14693	
503.28	12196	
503.48	12278	
503.68	13807	
503.88	13879	
504.07	13089	
504.27	12547	
504.47	14187	
504.67	14143	
504.86	13002	
505.06	12637	
505.26	13958	
505.46	15330	
505.65	12568	
505.85	12633	
506.05	13622	
506.25	14081	
506.44	11702	
506.64	12503	
506.84	13508	
507.04	14101	
507.23	11866	
507.43	12380	
507.63	15158	
507.83	13560	
508.02	12499	
508.22	12031	
508.42	15411	
508.62	13510	
508.81	12162	
509.01	12772	
509.21	13254	
509.4	13634	
509.6	12499	
509.8	11873	
510	13597	
510.19	14848	
510.39	11927	
510.59	12002	
510.79	13515	
510.98	14867	
511.18	12162	
511.38	12405	
511.57	14342	
511.77	14298	
511.97	12815	
512.17	11790	
512.36	14378	
512.56	14209	
512.76	11969	
512.95	11615	
513.15	14374	
513.35	13076	
513.55	12697	
513.74	11968	
513.94	14413	
514.14	13797	
514.33	12820	
514.53	12584	
514.73	13807	
514.92	13955	
515.12	12185	
515.32	12117	
515.51	13999	
515.71	14536	
515.91	13676	
516.11	12189	
516.3	15663	
516.5	13738	
516.7	12775	
516.89	13185	
517.09	13911	
517.29	13906	
517.48	13061	
517.68	12400	
517.88	13683	
518.07	14215	
518.27	13017	
518.47	12076	
518.66	14635	
518.86	13659	
519.06	11917	
519.25	12377	
519.45	13795	
519.65	15155	
519.84	13046	
520.04	13525	
520.24	15624	
520.43	14459	
520.63	12674	
520.83	12462	
521.02	13840	
521.22	14446	
521.42	12875	
521.61	13357	
521.81	13895	
522.01	13878	
522.2	12681	
522.4	12379	
522.6	14362	
522.79	13373	
522.99	12674	
523.18	12256	
523.38	14345	
523.58	14513	
523.77	13961	
523.97	12448	
524.17	16177	
524.36	15531	
524.56	13904	
524.76	13478	
524.95	14934	
525.15	14669	
525.34	13544	
525.54	13590	
525.74	15468	
525.93	14686	
526.13	14835	
526.33	13878	
526.52	15882	
526.72	15594	
526.91	14967	
527.11	14166	
527.31	15912	
527.5	16422	
527.7	14274	
527.89	13391	
528.09	15150	
528.29	15866	
528.48	14608	
528.68	14261	
528.87	16028	
529.07	16022	
529.27	14207	
529.46	13909	
529.66	16023	
529.85	16463	
530.05	14057	
530.25	14619	
530.44	17208	
530.64	15813	
530.83	14289	
531.03	14485	
531.23	16363	
531.42	15952	
531.62	15107	
531.81	14260	
532.01	16279	
532.21	16867	
532.4	14354	
532.6	14888	
532.79	17375	
532.99	17006	
533.18	15145	
533.38	15929	
533.58	16635	
533.77	17308	
533.97	15302	
534.16	16042	
534.36	17613	
534.55	16752	
534.75	16146	
534.95	15458	
535.14	17751	
535.34	16920	
535.53	15164	
535.73	16885	
535.92	18075	
536.12	16974	
536.31	15141	
536.51	16143	
536.71	17060	
536.9	16764	
537.1	15016	
537.29	15293	
537.49	17456	
537.68	16655	
537.88	15817	
538.07	15034	
538.27	16944	
538.46	17865	
538.66	14817	
538.86	15351	
539.05	17004	
539.25	17371	
539.44	15866	
539.64	15290	
539.83	16861	
540.03	17823	
540.22	15225	
540.42	15154	
540.61	16898	
540.81	17021	
541	15442	
541.2	16156	
541.39	16475	
541.59	16789	
541.78	15871	
541.98	15005	
542.18	16354	
542.37	16298	
542.57	15254	
542.76	15796	
542.96	16173	
543.15	16782	
543.35	15168	
543.54	14588	
543.74	16751	
543.93	16564	
544.13	14932	
544.32	15861	
544.52	16593	
544.71	15965	
544.91	14054	
545.1	15124	
545.3	15985	
545.49	16580	
545.69	14059	
545.88	14506	
546.08	17578	
546.27	17039	
546.47	15036	
546.66	14316	
546.86	16741	
547.05	17220	
547.24	14511	
547.44	14601	
547.63	15714	
547.83	16953	
548.02	14872	
548.22	14907	
548.41	15597	
548.61	16678	
548.8	14255	
549	14248	
549.19	16038	
549.39	16512	
549.58	13953	
549.78	14567	
549.97	16334	
550.17	15880	
550.36	15207	
550.55	16043	
550.75	15776	
550.94	16627	
551.14	14082	
551.33	14270	
551.53	15246	
551.72	16031	
551.92	14282	
552.11	14100	
552.31	16170	
552.5	16167	
552.69	15580	
552.89	13727	
553.08	16053	
553.28	15879	
553.47	14109	
553.67	15203	
553.86	16553	
554.06	15160	
554.25	13252	
554.44	13882	
554.64	17045	
554.83	16704	
555.03	13799	
555.22	14290	
555.42	15964	
555.61	15758	
555.8	13982	
556	14186	
556.19	15033	
556.39	16111	
556.58	13934	
556.78	13999	
556.97	15667	
557.16	15591	
557.36	15020	
557.55	13717	
557.75	14831	
557.94	16485	
558.13	13627	
558.33	13571	
558.52	16223	
558.72	15289	
558.91	13613	
559.1	13747	
559.3	14997	
559.49	14695	
559.69	13237	
559.88	14190	
560.07	15632	
560.27	15964	
560.46	14115	
560.66	14248	
560.85	15455	
561.04	14605	
561.24	13460	
561.43	13493	
561.63	14777	
561.82	15145	
562.01	14640	
562.21	13927	
562.4	15313	
562.59	16375	
562.79	13691	
562.98	13554	
563.18	15547	
563.37	16676	
563.56	14323	
563.76	13590	
563.95	15203	
564.14	15216	
564.34	14113	
564.53	13713	
564.73	15578	
564.92	15965	
565.11	14192	
565.31	13562	
565.5	16195	
565.69	15231	
565.89	13816	
566.08	14146	
566.27	16030	
566.47	16584	
566.66	14775	
566.85	13577	
567.05	15942	
567.24	15362	
567.44	13962	
567.63	15109	
567.82	16083	
568.02	15806	
568.21	13887	
568.4	14187	
568.6	15656	
568.79	15706	
568.98	13868	
569.18	14045	
569.37	15936	
569.56	17719	
569.76	14482	
569.95	15203	
570.14	16192	
570.34	16293	
570.53	14047	
570.72	14066	
570.91	16789	
571.11	15977	
571.3	14429	
571.49	15315	
571.69	16089	
571.88	15500	
572.07	14990	
572.27	14899	
572.46	15693	
572.65	16461	
572.85	14374	
573.04	14684	
573.23	16835	
573.43	16123	
573.62	14201	
573.81	14806	
574	16307	
574.2	16249	
574.39	14741	
574.58	14827	
574.78	17202	
574.97	16543	
575.16	15280	
575.36	15616	
575.55	17090	
575.74	17139	
575.93	14524	
576.13	15723	
576.32	16567	
576.51	17144	
576.71	15200	
576.9	16309	
577.09	17459	
577.28	17001	
577.48	15634	
577.67	14540	
577.86	16621	
578.05	17023	
578.25	15343	
578.44	15253	
578.63	16835	
578.83	18000	
579.02	14791	
579.21	16146	
579.4	17068	
579.6	16957	
579.79	15352	
579.98	17247	
580.17	17348	
580.37	17495	
580.56	14925	
580.75	15714	
580.94	17750	
581.14	17651	
581.33	16023	
581.52	15213	
581.71	17322	
581.91	17996	
582.1	15067	
582.29	15332	
582.48	16990	
582.68	17088	
582.87	15819	
583.06	15673	
583.25	17299	
583.45	16747	
583.64	16207	
583.83	16792	
584.02	16905	
584.21	17495	
584.41	16140	
584.6	15688	
584.79	17191	
584.98	17893	
585.18	15304	
585.37	15333	
585.56	16944	
585.75	17667	
585.94	15270	
586.14	15954	
586.33	17833	
586.52	17010	
586.71	15720	
586.91	15551	
587.1	16275	
587.29	17187	
587.48	15246	
587.67	15053	
587.87	16931	
588.06	16915	
588.25	16033	
588.44	15486	
588.63	16600	
588.83	17141	
589.02	14961	
589.21	14771	
589.4	16146	
589.59	16202	
589.78	13844	
589.98	14173	
590.17	15337	
590.36	15833	
590.55	13114	
590.74	13541	
590.94	16552	
591.13	15149	
591.32	13267	
591.51	12811	
591.7	15441	
591.89	15317	
592.09	13068	
592.28	13564	
592.47	14590	
592.66	16386	
592.85	13383	
593.05	13555	
593.24	15125	
593.43	15932	
593.62	13571	
593.81	13951	
594	15354	
594.19	15363	
594.39	13333	
594.58	13327	
594.77	15657	
594.96	16059	
595.15	13469	
595.34	13841	
595.54	15356	
595.73	14666	
595.92	12697	
596.11	13592	
596.3	15797	
596.49	14639	
596.68	13336	
596.88	13804	
597.07	15414	
597.26	14473	
597.45	12930	
597.64	14141	
597.83	14804	
598.02	15225	
598.22	13131	
598.41	13715	
598.6	15184	
598.79	14477	
598.98	12953	
599.17	13816	
599.36	15154	
599.55	16047	
599.74	14850	
599.94	14569	
600.13	15445	
600.32	14455	
600.51	12822	
600.7	12947	
600.89	15857	
601.08	16028	
601.27	12828	
601.47	13573	
601.66	15437	
601.85	16006	
602.04	13307	
602.23	13360	
602.42	14567	
602.61	15097	
602.8	13116	
602.99	12965	
603.18	14859	
603.37	14975	
603.57	13339	
603.76	14074	
603.95	15739	
604.14	15202	
604.33	13021	
604.52	13397	
604.71	15042	
604.9	14683	
605.09	14108	
605.28	13622	
605.47	15638	
605.66	15167	
605.86	13519	
606.05	13095	
606.24	15500	
606.43	14196	
606.62	13386	
606.81	13890	
607	15308	
607.19	14821	
607.38	12682	
607.57	13090	
607.76	14501	
607.95	14064	
608.14	13207	
608.33	13909	
608.52	14545	
608.72	15255	
608.91	12607	
609.1	12564	
609.29	14577	
609.48	14192	
609.67	13360	
609.86	12497	
610.05	14105	
610.24	14399	
610.43	12497	
610.62	12076	
610.81	15356	
611	15264	
611.19	12555	
611.38	13138	
611.57	14671	
611.76	15837	
611.95	12299	
612.14	12142	
612.33	14442	
612.52	14082	
612.71	12762	
612.9	12181	
613.09	13622	
613.28	15866	
613.47	12712	
613.66	13430	
613.85	14547	
614.04	14148	
614.24	12561	
614.43	11919	
614.62	14712	
614.81	14533	
615	13037	
615.19	13110	
615.38	14029	
615.57	14536	
615.76	12995	
615.95	13863	
616.14	14785	
616.33	14523	
616.52	13405	
616.71	13460	
616.9	14694	
617.09	14602	
617.28	12706	
617.47	13803	
617.66	13967	
617.85	14069	
618.04	13609	
618.22	13187	
618.41	14408	
618.6	15330	
618.79	13203	
618.98	12979	
619.17	15580	
619.36	14148	
619.55	13272	
619.74	13386	
619.93	15146	
620.12	14663	
620.31	13830	
620.5	14031	
620.69	16057	
620.88	16229	
621.07	14756	
621.26	13950	
621.45	15418	
621.64	15556	
621.83	14044	
622.02	13386	
622.21	15499	
622.4	15449	
622.59	14587	
622.78	14496	
622.97	15150	
623.16	15960	
623.35	14009	
623.54	13424	
623.72	15239	
623.91	15339	
624.1	14343	
624.29	13192	
624.48	16518	
624.67	15722	
624.86	14328	
625.05	13504	
625.24	16494	
625.43	15137	
625.62	15771	
625.81	13614	
626	15923	
626.19	15556	
626.38	14428	
626.56	13835	
626.75	15394	
626.94	15963	
627.13	14282	
627.32	13271	
627.51	15971	
627.7	16934	
627.89	13280	
628.08	14478	
628.27	15046	
628.46	15228	
628.65	13507	
628.83	13276	
629.02	15637	
629.21	15018	
629.4	13934	
629.59	14166	
629.78	15076	
629.97	15923	
630.16	14197	
630.35	13652	
630.54	16365	
630.72	15947	
630.91	13705	
631.1	14101	
631.29	15473	
631.48	15556	
631.67	14136	
631.86	13478	
632.05	15247	
632.24	15180	
632.42	13273	
632.61	13892	
632.8	15151	
632.99	14883	
633.18	13976	
633.37	14162	
633.56	15439	
633.75	15280	
633.93	13937	
634.12	13691	
634.31	16034	
634.5	15766	
634.69	13660	
634.88	14035	
635.07	15203	
635.25	15694	
635.44	14465	
635.63	14635	
635.82	15045	
636.01	14515	
636.2	14160	
636.39	13869	
636.57	15920	
636.76	15618	
636.95	13312	
637.14	14478	
637.33	15448	
637.52	16040	
637.7	13146	
637.89	14122	
638.08	15086	
638.27	16217	
638.46	14057	
638.65	14181	
638.83	16082	
639.02	14746	
639.21	13778	
639.4	14247	
639.59	15125	
639.78	14616	
639.96	12964	
640.15	13139	
640.34	14946	
640.53	14912	
640.72	12732	
640.91	12979	
641.09	14315	
641.28	15278	
641.47	12896	
641.66	13646	
641.85	14804	
642.03	14903	
642.22	13463	
642.41	12964	
642.6	14238	
642.79	13654	
642.97	12653	
643.16	13388	
643.35	14173	
643.54	14016	
643.73	12688	
643.91	13360	
644.1	13790	
644.29	14433	
644.48	12536	
644.67	12592	
644.85	13771	
645.04	14027	
645.23	12000	
645.42	12245	
645.6	13581	
645.79	14470	
645.98	11968	
646.17	11224	
646.36	12882	
646.54	13369	
646.73	12278	
646.92	11415	
647.11	13007	
647.29	13859	
647.48	11489	
647.67	11275	
647.86	14031	
648.05	14113	
648.23	11662	
648.42	12772	
648.61	13651	
648.8	13280	
648.98	11340	
649.17	11613	
649.36	12779	
649.55	12493	
649.73	11275	
649.92	12003	
650.11	12803	
650.3	13068	
650.48	11479	
650.67	11328	
650.86	13246	
651.05	12280	
651.23	11342	
651.42	11293	
651.61	12790	
651.79	12702	
651.98	11490	
652.17	11135	
652.36	13008	
652.54	12287	
652.73	11173	
652.92	11101	
653.11	13106	
653.29	13128	
653.48	10429	
653.67	11232	
653.85	12857	
654.04	13680	
654.23	11290	
654.42	10891	
654.6	12048	
654.79	12709	
654.98	10275	
655.16	10693	
655.35	11481	
655.54	11267	
655.73	9998.9	
655.91	9867.1	
656.1	12110	
656.29	11169	
656.47	9612.5	
656.66	11178	
656.85	11648	
657.03	11772	
657.22	10328	
657.41	10443	
657.59	11993	
657.78	11868	
657.97	10194	
658.16	10922	
658.34	12629	
658.53	13065	
658.72	11723	
658.9	12032	
659.09	12098	
659.28	12207	
659.46	10673	
659.65	10622	
659.84	12012	
660.02	12547	
660.21	10554	
660.4	10443	
660.58	12783	
660.77	12319	
660.96	11092	
661.14	10195	
661.33	13285	
661.52	13096	
661.7	10161	
661.89	13314	
662.08	11837	
662.26	11503	
662.45	10340	
662.64	10458	
662.82	12438	
663.01	11699	
663.2	10436	
663.38	11121	
663.57	12331	
663.75	12260	
663.94	10667	
664.13	11695	
664.31	11813	
664.5	12366	
664.69	11028	
664.87	11432	
665.06	11495	
665.25	12280	
665.43	11553	
665.62	11568	
665.8	12374	
665.99	11840	
666.18	10586	
666.36	10725	
666.55	12299	
666.74	12328	
666.92	10335	
667.11	11558	
667.29	11846	
667.48	12278	
667.67	11349	
667.85	10548	
668.04	11792	
668.22	11792	
668.41	10533	
668.6	10641	
668.78	11632	
668.97	11787	
669.15	10868	
669.34	9944.3	
669.53	11654	
669.71	11824	
669.9	10059	
670.08	10640	
670.27	11515	
670.46	12063	
670.64	10834	
670.83	11035	
671.01	11295	
671.2	11957	
671.38	10283	
671.57	10059	
671.76	12518	
671.94	13115	
672.13	9973.6	
672.31	10972	
672.5	12124	
672.69	11686	
672.87	10081	
673.06	10521	
673.24	11962	
673.43	11643	
673.61	10784	
673.8	10419	
673.98	12085	
674.17	12214	
674.36	10852	
674.54	10733	
674.73	11845	
674.91	12078	
675.1	10499	
675.28	10101	
675.47	11738	
675.65	12210	
675.84	10285	
676.03	10607	
676.21	11567	
676.4	11064	
676.58	11087	
676.77	10963	
676.95	12835	
677.14	11476	
677.32	10033	
677.51	9867.8	
677.69	12147	
677.88	11207	
678.06	9912.2	
678.25	10094	
678.44	11742	
678.62	11317	
678.81	9755.8	
678.99	10651	
679.18	12368	
679.36	12036	
679.55	10305	
679.73	10867	
679.92	11899	
680.1	11449	
680.29	11347	
680.47	10272	
680.66	11475	
680.84	12147	
681.03	9763.3	
681.21	10598	
681.4	11450	
681.58	11344	
681.77	10007	
681.95	10047	
682.14	12194	
682.32	12377	
682.51	10882	
682.69	9708.1	
682.88	11349	
683.06	11728	
683.25	10471	
683.43	10796	
683.62	11516	
683.8	11889	
683.99	10950	
684.17	10271	
684.36	12575	
684.54	11291	
684.73	9517.6	
684.91	9638.4	
685.1	11441	
685.28	10696	
685.46	9724.4	
685.65	9567.4	
685.83	11217	
686.02	10572	
686.2	9093	
686.39	9215.2	
686.57	10234	
686.76	11785	
686.94	9296.4	
687.13	9456.8	
687.31	11082	
687.5	10873	
687.68	9029.5	
687.86	10111	
688.05	12341	
688.23	10365	
688.42	10081	
688.6	9462.3	
688.79	10765	
688.97	10804	
689.16	9843.2	
689.34	8891.6	
689.52	11578	
689.71	11811	
689.89	10249	
690.08	9645.3	
690.26	11187	
690.45	11048	
690.63	10283	
690.81	9748.3	
691	10917	
691.18	10894	
691.37	9710.1	
691.55	11708	
691.74	10806	
691.92	12375	
692.1	9744.9	
692.29	9083.4	
692.47	10933	
692.66	10259	
692.84	9310.7	
693.02	9708.1	
693.21	10395	
693.39	10839	
693.58	9958.6	
693.76	9436.4	
693.94	11879	
694.13	11826	
694.31	9656.9	
694.5	10388	
694.68	10809	
694.86	11281	
695.05	10034	
695.23	10271	
695.42	11753	
695.6	13642	
695.78	10487	
695.97	9862.3	
696.15	11749	
696.34	11097	
696.52	9501.9	
696.7	10263	
696.89	11353	
697.07	10823	
697.25	10081	
697.44	11316	
697.62	11295	
697.81	11391	
697.99	9705.3	
698.17	10072	
698.36	10487	
698.54	11233	
698.72	10045	
698.91	9168.8	
699.09	10730	
699.28	10702	
699.46	9637.7	
699.64	9516.2	
699.83	10644	
700.01	11617	
700.19	10299	
700.38	8857.5	
700.56	11630	
700.74	10699	
700.93	9198.1	
701.11	9914.9	
701.29	11231	
701.48	12157	
701.66	9440.5	
701.84	9648	
702.03	10889	
702.21	11609	
702.39	9164	
702.58	9711.5	
702.76	11241	
702.94	11343	
703.13	9083.4	
703.31	11324	
703.49	10817	
703.68	11466	
703.86	9335.3	
704.04	10217	
704.23	10999	
704.41	11409	
704.59	9409.1	
704.78	10419	
704.96	12066	
705.14	11411	
705.33	9159.2	
705.51	9892.4	
705.69	10897	
705.87	11557	
706.06	10096	
706.24	9161.9	
706.42	11170	
706.61	11386	
706.79	10075	
706.97	9086.2	
707.16	10605	
707.34	11074	
707.52	10031	
707.7	9250	
707.89	10781	
708.07	10395	
708.25	9989.3	
708.44	10204	
708.62	10615	
708.8	11595	
708.98	10223	
709.17	9290.3	
709.35	11006	
709.53	10860	
709.72	9074.5	
709.9	9342.8	
710.08	11065	
710.26	11142	
710.45	10263	
710.63	9270.5	
710.81	10655	
710.99	10751	
711.18	9680.1	
711.36	9226.1	
711.54	10568	
711.72	11125	
711.91	9271.8	
712.09	8770.1	
712.27	10519	
712.45	11078	
712.64	9251.4	
712.82	8382.3	
713	9879.4	
713.18	9915.6	
713.37	8301.1	
713.55	9319.6	
713.73	10613	
713.91	9289.6	
714.1	8409.6	
714.28	7834.2	
714.46	9839.8	
714.64	9041.8	
714.83	7047.1	
715.01	7704.5	
715.19	8813.1	
715.37	8218.5	
715.55	7083.9	
715.74	7305.8	
715.92	9327.8	
716.1	7692.2	
716.28	8183	
716.47	7255.3	
716.65	8230.1	
716.83	8247.2	
717.01	7138.5	
717.19	7118.1	
717.38	10017	
717.56	7940.7	
717.74	7410.9	
717.92	6627.9	
718.1	8932.6	
718.29	8343.4	
718.47	6410.8	
718.65	7099.6	
718.83	9209	
719.01	9146.9	
719.2	6643.6	
719.38	7623.9	
719.56	9004.9	
719.74	10349	
719.92	7346.7	
720.11	8147.5	
720.29	9015.8	
720.47	8176.9	
720.65	6718.7	
720.83	7351.5	
721.02	8239.7	
721.2	7969.3	
721.38	7243.7	
721.56	6595.1	
721.74	7537.9	
721.92	7685.3	
722.11	7616.4	
722.29	7287.4	
722.47	8783.7	
722.65	7973.4	
722.83	6453.8	
723.01	7200.7	
723.2	7976.8	
723.38	8325.7	
723.56	6045.6	
723.74	7042.3	
723.92	7560.4	
724.1	8551	
724.29	6488.6	
724.47	7388.4	
724.65	7702.4	
724.83	7560.4	
725.01	6280.4	
725.19	6988.4	
725.37	7481.2	
725.56	7515.4	
725.74	6184.9	
725.92	6404.7	
726.1	7632.8	
726.28	7808.9	
726.46	6643.6	
726.64	6354.2	
726.83	7677.2	
727.01	7922.2	
727.19	6067.4	
727.37	6792.4	
727.55	7792.5	
727.73	8236.9	
727.91	5984.8	
728.09	5864.7	
728.28	8309.3	
728.46	8652	
728.64	6828.6	
728.82	6756.2	
729	9115.5	
729.18	8548.9	
729.36	6158.2	
729.54	8128.4	
729.72	9616.6	
729.91	7999.4	
730.09	7971.4	
730.27	6884.6	
730.45	8011	
730.63	8532.5	
730.81	7432.8	
730.99	6625.9	
731.17	9089.6	
731.35	7781.6	
731.53	7090.1	
731.71	6702.3	
731.9	8757.1	
732.08	8755.7	
732.26	6903	
732.44	6580.1	
732.62	8840.4	
732.8	8458.1	
732.98	7185.6	
733.16	6350.8	
733.34	8367.3	
733.52	7278.5	
733.7	6755.6	
733.88	6972	
734.07	8187.1	
734.25	7952.3	
734.43	6326.9	
734.61	7621.9	
734.79	9349	
734.97	7909.9	
735.15	6321.4	
735.33	6587	
735.51	8161.2	
735.69	7912	
735.87	7649.8	
736.05	6863.4	
736.23	7857.4	
736.41	7814.4	
736.59	6625.9	
736.77	6664.8	
736.95	8352.3	
737.13	7815.7	
737.32	6299.6	
737.5	6500.3	
737.68	8880.7	
737.86	7751.6	
738.04	6094.1	
738.22	7735.9	
738.4	7480.5	
738.58	7776.1	
738.76	6585.6	
738.94	5717.2	
739.12	7591.8	
739.3	7412.3	
739.48	7135.1	
739.66	6883.2	
739.84	7800	
740.02	7798.7	
740.2	5782.8	
740.38	5984.8	
740.56	8079.9	
740.74	7099.6	
740.92	6614.9	
741.1	6422.4	
741.28	7526.3	
741.46	7293.5	
741.64	6176	
741.82	6544.6	
742	7531.1	
742.18	7456	
742.36	6275	
742.54	5879.7	
742.72	7991.9	
742.9	6816.3	
743.08	6574	
743.26	5504.9	
743.44	7986.4	
743.62	7992.5	
743.8	6604.7	
743.98	5825.1	
744.16	7591.1	
744.34	7363.8	
744.52	6560.3	
744.7	6435.4	
744.88	7737.9	
745.06	7232.1	
745.24	6493.4	
745.42	6560.3	
745.6	7812.3	
745.78	7567.2	
745.96	5472.9	
746.14	5701.5	
746.32	8314.8	
746.5	7617.8	
746.68	6128.9	
746.86	5609.4	
747.03	7971.4	
747.21	6509.1	
747.39	6077	
747.57	5619.6	
747.75	7314	
747.93	7539.9	
748.11	5603.9	
748.29	5498.8	
748.47	8639.7	
748.65	6972.7	
748.83	6143.9	
749.01	5892	
749.19	7413	
749.37	6633.4	
749.55	5795.1	
749.73	5850.4	
749.91	7082.6	
750.09	6833.4	
750.26	5906.3	
750.44	5399.8	
750.62	7089.4	
750.8	7067.5	
750.98	5223	
751.16	5525.4	
751.34	7109.9	
751.52	6504.3	
751.7	6248.4	
751.88	5162.2	
752.06	7523.6	
752.24	7268.2	
752.42	5044.1	
752.59	5416.9	
752.77	6947.4	
752.95	8028	
753.13	6000.5	
753.31	5478.3	
753.49	6608.8	
753.67	7053.9	
753.85	5710.4	
754.03	5360.2	
754.21	7181.5	
754.38	7483.3	
754.56	5441.5	
754.74	4573.8	
754.92	6417	
755.1	6999.3	
755.28	4513	
755.46	4429.1	
755.64	7496.9	
755.82	7563.8	
755.99	4459.8	
756.17	4489.8	
756.35	5167	
756.53	6480.5	
756.71	3347.1	
756.89	4214	
757.07	6033.3	
757.25	5274.9	
757.42	4769.7	
757.6	5466.7	
757.78	6197.2	
757.96	5319.3	
758.14	4614.1	
758.32	4090.5	
758.5	4979.3	
758.67	5715.2	
758.85	4365.6	
759.03	4496	
759.21	5888.6	
759.39	5392.3	
759.57	3991.5	
759.75	5005.2	
759.92	6432.7	
760.1	5887.9	
760.28	5324	
760.46	5605.3	
760.64	5709.7	
760.82	5488.6	
760.99	5302.9	
761.17	4544.4	
761.35	6421.1	
761.53	5445.5	
761.71	4668	
761.89	5389.6	
762.06	6382.8	
762.24	5879.7	
762.42	4744.5	
762.6	4626.4	
762.78	5866.1	
762.96	6490	
763.13	5141.1	
763.31	4836.6	
763.49	6599.2	
763.67	5883.8	
763.85	5657.2	
764.02	6103.6	
764.2	6881.9	
764.38	6189.6	
764.56	4704.2	
764.74	5451	
764.91	6952.2	
765.09	5928.9	
765.27	4454.3	
765.45	4223.6	
765.63	7009.5	
765.8	6815	
765.98	3987.4	
766.16	4269.3	
766.34	5588.2	
766.52	5371.1	
766.69	5063.3	
766.87	4121.9	
767.05	5938.4	
767.23	6489.3	
767.41	4369.7	
767.58	4635.9	
767.76	6333	
767.94	6434	
768.12	4427	
768.29	5076.2	
768.47	5844.9	
768.65	6472.3	
768.83	4065.9	
769	5053.7	
769.18	5477.6	
769.36	6077.7	
769.54	4988.2	
769.72	4108.9	
769.89	6407.4	
770.07	6449.1	
770.25	4321.2	
770.43	5479	
770.6	6980.2	
770.78	7321.5	
770.96	4502.8	
771.14	5036	
771.31	6236.1	
771.49	5634	
771.67	3716.4	
771.85	3934.8	
772.02	4979.3	
772.2	5624.4	
772.38	4595.6	
772.55	4111.6	
772.73	5877	
772.91	5659.2	
773.09	4445.5	
773.26	4499.4	
773.44	5776.6	
773.62	5408.7	
773.8	3997.6	
773.97	3793.5	
774.15	5850.4	
774.33	5520	
774.5	3900	
774.68	4176.5	
774.86	5955.5	
775.04	5493.3	
775.21	3951.2	
775.39	3899.3	
775.57	5706.3	
775.74	6092	
775.92	3778.5	
776.1	3689.1	
776.27	5646.9	
776.45	6732.4	
776.63	3945.8	
776.81	3530.7	
776.98	5378.6	
777.16	6326.2	
777.34	4024.3	
777.51	4312.3	
777.69	5298.8	
777.87	5113.1	
778.04	4106.9	
778.22	4568.3	
778.4	5179.3	
778.57	5750	
778.75	3380.5	
778.93	3640.6	
779.1	4999.8	
779.28	4834.6	
779.46	3408.5	
779.64	3844	
779.81	5861.3	
779.99	6524.1	
780.17	4515.8	
780.34	4616.1	
780.52	5362.3	
780.69	5541.8	
780.87	4091.2	
781.05	3736.9	
781.22	5390.3	
781.4	5457.8	
781.58	3891.8	
781.75	3018.7	
781.93	5385.5	
782.11	4819.6	
782.28	4591.5	
782.46	3784	
782.64	4769.7	
782.81	5500.8	
782.99	3929.4	
783.17	3878.2	
783.34	5488.6	
783.52	4840	
783.69	4069.3	
783.87	4681.7	
784.05	4942.4	
784.22	4885.1	
784.4	4728.8	
784.58	4126.7	
784.75	5713.2	
784.93	4890.5	
785.1	3785.3	
785.28	4390.2	
785.46	5446.2	
785.63	4838.7	
785.81	3749.8	
785.99	3586.7	
786.16	5059.8	
786.34	5350.7	
786.51	3644	
786.69	4044.1	
786.87	4643.4	
787.04	5104.9	
787.22	3571	
787.39	4388.1	
787.57	4868	
787.75	5836	
787.92	4552	
788.1	4467.3	
788.27	4854.4	
788.45	4625.7	
788.63	4276.2	
788.8	3092.4	
788.98	5164.3	
789.15	4581.3	
789.33	3266.5	
789.5	3769.6	
789.68	5627.8	
789.86	5695.4	
790.03	4145.1	
790.21	3659	
790.38	5654.4	
790.56	4909.7	
790.73	3549.1	
790.91	3575.1	
791.09	4851.6	
791.26	5455.1	
791.44	3753.2	
791.61	3260.4	
791.79	4767.7	
791.96	4837.3	
792.14	3340.9	
792.32	2985.9	
792.49	4827.7	
792.67	4879.6	
792.84	3487	
793.02	3251.5	
793.19	5208.7	
793.37	5845.6	
793.54	2945	
793.72	3283.6	
793.89	5869.5	
794.07	4847.5	
794.25	3738.9	
794.42	3054.2	
794.6	5685.2	
794.77	5421.7	
794.95	4065.2	
795.12	3539.6	
795.3	4799.1	
795.47	5331.5	
795.65	3914.4	
795.82	3740.3	
796	4660.5	
796.17	6297.5	
796.35	3657	
796.52	4330.1	
796.7	5323.4	
796.87	5409.4	
797.05	3616.7	
797.22	4356.7	
797.4	5338.4	
797.57	6183.5	
797.75	3750.5	
797.92	3605.1	
798.1	5627.8	
798.27	4740.4	
798.45	3143.6	
798.62	3291.8	
798.8	5058.5	
798.97	5537.7	
799.15	3947.8	
799.32	3756	
799.5	4441.4	
799.67	5139	
799.85	4123.2	
800.02	3006.4	
800.2	4745.1	
800.37	5051.7	
800.55	4171	
800.72	3532.7	
800.9	5367.7	
801.07	5857.2	
801.25	4704.9	
801.42	3908.9	
801.6	5522.7	
801.77	5165.7	
801.95	3617.4	
802.12	3500.7	
802.29	5219.6	
802.47	5173.2	
802.64	3836.5	
802.82	2907.4	
802.99	4745.8	
803.17	5549.3	
803.34	3743	
803.52	3424.9	
803.69	6163.7	
803.87	4573.1	
804.04	3779.9	
804.21	3832.4	
804.39	5707.7	
804.56	4879.6	
804.74	3183.9	
804.91	3890.5	
805.09	4764.3	
805.26	4783.4	
805.44	3263.1	
805.61	3517.7	
805.78	5313.8	
805.96	5403.2	
806.13	3896.6	
806.31	4163.5	
806.48	4348.5	
806.66	4769	
806.83	3846.8	
807	3796.3	
807.18	4740.4	
807.35	5077.6	
807.53	3784.6	
807.7	3056.9	
807.87	5812.8	
808.05	4806.6	
808.22	4093.2	
808.4	3025.5	
808.57	4778.6	
808.74	4419.5	
808.92	3396.9	
809.09	4313.7	
809.27	4724.7	
809.44	5255.1	
809.61	3094.5	
809.79	3386.7	
809.96	5818.3	
810.14	5395.7	
810.31	2932	
810.48	3619.4	
810.66	4814.8	
810.83	5499.5	
811.01	3447.4	
811.18	3846.1	
811.35	5475.6	
811.53	4272.1	
811.7	4147.1	
811.87	3871.3	
812.05	4824.3	
812.22	4709	
812.39	3368.9	
812.57	3226.9	
812.74	4831.2	
812.92	6151.4	
813.09	3621.5	
813.26	3888.4	
813.44	5955.5	
813.61	4685.8	
813.78	3020.1	
813.96	3994.2	
814.13	4787.5	
814.3	4496	
814.48	4330.8	
814.65	3616.7	
814.82	6002.6	
815	4590.9	
815.17	3685	
815.34	4496.7	
815.52	4717.2	
815.69	4652.3	
815.87	3652.9	
816.04	3565.5	
816.21	4740.4	
816.38	4257	
816.56	3538.2	
816.73	3291.8	
816.9	5940.5	
817.08	5433.9	
817.25	3386.7	
817.42	4127.3	
817.6	4398.4	
817.77	4739.7	
817.94	3729.4	
818.12	3326.6	
818.29	4566.3	
818.46	6882.5	
818.64	3470.6	
818.81	3272.7	
818.98	4521.2	
819.16	6376	
819.33	4009.2	
819.5	3711.6	
819.67	5143.8	
819.85	5682.4	
820.02	3631.7	
820.19	3850.9	
820.37	4973.8	
820.54	4558.1	
820.71	3779.2	
820.88	4586.8	
821.06	4968.4	
821.23	4552.6	
821.4	3756.7	
821.58	3685.7	
821.75	5414.1	
821.92	4927.4	
822.09	3036.5	
822.27	3160	
822.44	4809.3	
822.61	4677.6	
822.79	3108.8	
822.96	5757.5	
823.13	5193	
823.3	4478.2	
823.48	3571	
823.65	3170.9	
823.82	5359.5	
823.99	4394.3	
824.17	4387.4	
824.34	3250.8	
824.51	6142.5	
824.68	4801.8	
824.86	3357.3	
825.03	3759.4	
825.2	4791.6	
825.37	5673.6	
825.55	3341.6	
825.72	3704.8	
825.89	6195.8	
826.06	5750	
826.24	3649.5	
826.41	3633.8	
826.58	5732.9	
826.75	5036	
826.92	2940.2	
827.1	3194.8	
827.27	7667.6	
827.44	6140.5	
827.61	3425.6	
827.79	4119.1	
827.96	4541	
828.13	4810	
828.3	3557.3	
828.47	3054.9	
828.65	5003.2	
828.82	4970.4	
828.99	4571.7	
829.16	3976.5	
829.34	5329.5	
829.51	5113.1	
829.68	3736.9	
829.85	3820.1	
830.02	5621.7	
830.2	5337	
830.37	2921.8	
830.54	4381.3	
830.71	6099.5	
830.88	4771.1	
831.05	2914.3	
831.23	3407.1	
831.4	5806.7	
831.57	6380.1	
831.74	3410.6	
831.91	2999.6	
832.09	5027.1	
832.26	5356.1	
832.43	3545	
832.6	3973.7	
832.77	4990.9	
832.94	5694	
833.12	2826.2	
833.29	3519.8	
833.46	4634.6	
833.63	6655.2	
833.8	3850.2	
833.97	3539.6	
834.15	5335.6	
834.32	5149.3	
834.49	3749.8	
834.66	3741	
834.83	5472.2	
835	4547.9	
835.17	3432.4	
835.35	3442.6	
835.52	5239.4	
835.69	5095.3	
835.86	3583.9	
836.03	2955.9	
836.2	5301.5	
836.37	4912.4	
836.55	3537.5	
836.72	3310.9	
836.89	4908.3	
837.06	5397.8	
837.23	3636.5	
837.4	3945.8	
837.57	6042.2	
837.75	6615.6	
837.92	3261	
838.09	3461.1	
838.26	4937.7	
838.43	5528.8	
838.6	3675.4	
838.77	3307.5	
838.94	6221.7	
839.11	5996.5	
839.29	3550.5	
839.46	2796.8	
839.63	5324.7	
839.8	5068	
839.97	3437.9	
840.14	3400.3	
840.31	5112.4	
840.48	5326.8	
840.65	2889.7	
840.82	3388	
841	5282.4	
841.17	5223.7	
841.34	3157.3	
841.51	3206.4	
841.68	5241.4	
841.85	4978.6	
842.02	3284.9	
842.19	2713.6	
842.36	5096	
842.53	5072.8	
842.7	3213.9	
842.87	3815.4	
843.05	6485.2	
843.22	5010.7	
843.39	3051.5	
843.56	3287.7	
843.73	4832.5	
843.9	5358.9	
844.07	5044.1	
844.24	4233.8	
844.41	7497.6	
844.58	4656.4	
844.75	3074.7	
844.92	3324.5	
845.09	5261.2	
845.26	5274.2	
845.43	3167.5	
845.6	3324.5	
845.77	5352	
845.94	5091.9	
846.12	3506.1	
846.29	3680.2	
846.46	5469.4	
846.63	5271.5	
846.8	3198.2	
846.97	3731.4	
847.14	5690.6	
847.31	5244.8	
847.48	3548.4	
847.65	3855.6	
847.82	5531.6	
847.99	5442.8	
848.16	4138.9	
848.33	3853.6	
848.5	4861.2	
848.67	5700.2	
848.84	3133.4	
849.01	3295.9	
849.18	4820.9	
849.35	4526.7	
849.52	3917.1	
849.69	3108.8	
849.86	5525.4	
850.03	5619.6	
850.2	3155.2	
850.37	3777.8	
850.54	5580.7	
850.71	5048.9	
850.88	3720.5	
851.05	3087	
851.22	5231.2	
851.39	5750	
851.56	2977.7	
851.73	3577.1	
851.9	4679.6	
852.07	5461.2	
852.24	3465.2	
852.41	3116.3	
852.58	5182.7	
852.75	4723.3	
852.92	3485.6	
853.09	3057.6	
853.26	4897.4	
853.43	5644.2	
853.6	3109.5	
853.77	2695.8	
853.94	5724.8	
854.11	5229.8	
854.28	4573.1	
854.44	3369.6	
854.61	6137.1	
854.78	5570.5	
854.95	3098.6	
855.12	3906.2	
855.29	4282.3	
855.46	5851.7	
855.63	3160.7	
855.8	4296.6	
855.97	4937.7	
856.14	5584.8	
856.31	4406.5	
856.48	3407.1	
856.65	4868	
856.82	4689.2	
856.99	3037.8	
857.16	3313.6	
857.33	6278.4	
857.49	5005.9	
857.66	3335.5	
857.83	3596.9	
858	5024.3	
858.17	5169.8	
858.34	2981.2	
858.51	3173	
858.68	5842.2	
858.85	5908.4	
859.02	3607.2	
859.19	3830.4	
859.36	4661.2	
859.52	4698	
859.69	3167.5	
859.86	3723.9	
860.03	4773.8	
860.2	5817.6	
860.37	2878.8	
860.54	3183.9	
860.71	5492.7	
860.88	5793	
861.05	3525.2	
861.21	3903.4	
861.38	5812.8	
861.55	4575.2	
861.72	2887	
861.89	3466.5	
862.06	5526.8	
862.23	5924.8	
862.4	2998.9	
862.56	3300.6	
862.73	5430.5	
862.9	5100.1	
863.07	3646.7	
863.24	2860.3	
863.41	4601.1	
863.58	4752.7	
863.75	3191.4	
863.91	3602.4	
864.08	5677	
864.25	5430.5	
864.42	3874.8	
864.59	4306.2	
864.76	6077	
864.93	4719.2	
865.09	3062.4	
865.26	3339.6	
865.43	5720	
865.6	6051.1	
865.77	2757.9	
865.94	3123.2	
866.1	5664	
866.27	5488.6	
866.44	4668	
866.61	2940.9	
866.78	5023.7	
866.95	5416.2	
867.11	3103.4	
867.28	2763.4	
867.45	5552	
867.62	4656.4	
867.79	3571.7	
867.96	3126.6	
868.12	4620.9	
868.29	5479.7	
868.46	2763.4	
868.63	4161.5	
868.8	5632.6	
868.97	5399.1	
869.13	3266.5	
869.3	3236.5	
869.47	5352.7	
869.64	5552	
869.81	3128.6	
869.97	3166.2	
870.14	5228.5	
870.31	5844.2	
870.48	3060.3	
870.65	3941	
870.81	4964.3	
870.98	4978.6	
871.15	3535.5	
871.32	3220.1	
871.48	5308.3	
871.65	5909.1	
871.82	3078.8	
871.99	3397.6	
872.16	6300.2	
872.32	5669.5	
872.49	3181.2	
872.66	3202.3	
872.83	5469.4	
872.99	4824.3	
873.16	3549.1	
873.33	3137.5	
873.5	5124.7	
873.67	5152	
873.83	3300	
874	4176.5	
874.17	5258.5	
874.34	6132.3	
874.5	4045.4	
874.67	3894.6	
874.84	5849.7	
875.01	4614.8	
875.17	4339	
875.34	3127.9	
875.51	5253	
875.68	6207.4	
875.84	3831.7	
876.01	4548.5	
876.18	5380.7	
876.34	5390.3	
876.51	3183.9	
876.68	3056.9	
876.85	4959.5	
877.01	5715.9	
877.18	4425.7	
877.35	3136.1	
877.52	5184.1	
877.68	4614.1	
877.85	3059	
878.02	3072	
878.18	5043.5	
878.35	4857.1	
878.52	2532.7	
878.69	3456.3	
878.85	5494.7	
879.02	5453.7	
879.19	4389.5	
879.35	3386	
879.52	5428.5	
879.69	5543.9	
879.86	2749.1	
880.02	3499.3	
880.19	5015.5	
880.36	6146.6	
880.52	3556.6	
880.69	3719.8	
880.86	5511.8	
881.02	5504.9	
881.19	3469.3	
881.36	3354.6	
881.52	5455.8	
881.69	4817.5	
881.86	3371.6	
882.02	3323.2	
882.19	5642.2	
882.36	6560.3	
882.52	3249.4	
882.69	4335.5	
882.86	5195.7	
883.02	5130.8	
883.19	3790.8	
883.36	3530	
883.52	5535.7	
883.69	6218.3	
883.86	3140.2	
884.02	2815.3	
884.19	5492	
884.36	5097.4	
884.52	3567.6	
884.69	3312.2	
884.86	4870.1	
885.02	5982.8	
885.19	3447.4	
885.36	3619.4	
885.52	5076.2	
885.69	5240.1	
885.86	4454.3	
886.02	3916.4	
886.19	5504.9	
886.35	5005.9	
886.52	3493.2	
886.69	4311	
886.85	4672.1	
887.02	5800.5	
887.19	5800.5	
887.35	5800.5	
887.52	5800.5	
887.68	5800.5	
887.85	5800.5	
888.02	5800.5	
888.18	5800.5	
888.35	5800.5	
888.51	5800.5	
888.68	5800.5	
888.85	5800.5	
889.01	5800.5	
889.18	5800.5	
889.35	5800.5	
889.51	5800.5	
889.68	5800.5	
889.84	5800.5	
890.01	5800.5	
890.17	5800.5	
890.34	5800.5	
890.51	5800.5	
890.67	5800.5	
890.84	5800.5	
891	5800.5	
891.17	5800.5	
891.34	5800.5	
891.5	5800.5	
891.67	5800.5	
891.83	5800.5	
892	5800.5	
892.16	5800.5	
892.33	5800.5	
892.5	5800.5	
892.66	5800.5	
892.83	5800.5	
892.99	5800.5	
893.16	5800.5	
893.32	5800.5	
893.49	5800.5	
893.65	5800.5	
893.82	5800.5	
893.99	5800.5	
894.15	5800.5	
894.32	5800.5	
894.48	5800.5	
894.65	5800.5	
894.81	5800.5	
894.98	5800.5	
895.14	5800.5	
895.31	5800.5	
895.47	5800.5	
895.64	5800.5	
895.81	5800.5	
895.97	5800.5	
896.14	5800.5	
896.3	5800.5	
896.47	5800.5	
896.63	5800.5	
896.8	5800.5	
896.96	5800.5	
897.13	5800.5	
897.29	5800.5	
897.46	5800.5	
897.62	5800.5	
897.79	5800.5	
897.95	5800.5	
898.12	5800.5	
898.28	5800.5	
898.45	5800.5	
898.61	5800.5	
898.78	5800.5	
898.94	5800.5	
899.11	5800.5	
899.27	5800.5	
899.44	5800.5	
899.6	5800.5	
899.77	5800.5	
899.93	5800.5	
900.1	5800.5	
900.26	5800.5	
900.43	5800.5	
900.59	5800.5	
900.76	5800.5	
900.92	5800.5	
901.09	5800.5	
901.25	5800.5	
901.42	5800.5	
901.58	5800.5	
901.75	5800.5	
901.91	5800.5	
902.07	5800.5	
902.24	5800.5	
902.4	5800.5	
902.57	5800.5	
902.73	5800.5	
902.9	5800.5	
903.06	5800.5	
903.23	5800.5	
903.39	5800.5	
903.56	5800.5	
903.72	5800.5	
903.88	5800.5	
904.05	5800.5	
904.21	5800.5	
904.38	5800.5	
904.54	5800.5	
904.71	5800.5	
904.87	5800.5	
905.03	5800.5	
905.2	5800.5	
905.36	5800.5	
905.53	5800.5	
905.69	5800.5	
905.86	5800.5	
906.02	5800.5	
906.18	5800.5	
906.35	5800.5	
906.51	5800.5	
906.68	5800.5	
906.84	5800.5	
907.01	5800.5	
907.17	5800.5	
907.33	5800.5	
907.5	5800.5	
907.66	5800.5	
907.83	5800.5	
907.99	5800.5	
908.15	5800.5	
908.32	5800.5	
908.48	5800.5	
908.65	5800.5	
908.81	5800.5	
908.97	5800.5	
909.14	5800.5	
909.3	5800.5	
909.47	5800.5	
909.63	5800.5	
909.79	5800.5	
909.96	5800.5	
910.12	5800.5	
910.28	5800.5	
910.45	5800.5	
910.61	5800.5	
910.78	5800.5	
910.94	5800.5	
911.1	5800.5	
911.27	5800.5	
911.43	5800.5	
911.59	5800.5	
911.76	5800.5	
911.92	5800.5	
912.08	5800.5	
912.25	5800.5	
912.41	5800.5	
912.57	5800.5	
912.74	5800.5	
912.9	5800.5	
913.07	5800.5	
913.23	5800.5	
913.39	5800.5	
913.56	5800.5	
913.72	5800.5	
913.88	5800.5	
914.05	5800.5	
914.21	5800.5	
914.37	5800.5	
914.54	5800.5	
914.7	5800.5	
914.86	5800.5	
915.03	5800.5	
915.19	5800.5	
