Wavelength	Intensities	
nm	a.u.	
179.22	1910.1	
179.44	1912.8	
179.65	1907.3	
179.86	1918.3	
180.08	1942.2	
180.29	4799.8	
180.51	3457	
180.72	5571.2	
180.94	6520	
181.15	3167.5	
181.37	3109.5	
181.58	5436.7	
181.79	5776	
182.01	3323.2	
182.22	3580.5	
182.44	5706.3	
182.65	4792.2	
182.87	4440.7	
183.08	3974.4	
183.29	6032	
183.51	4943.8	
183.72	3622.2	
183.94	5211.4	
184.15	5342.5	
184.37	5380.7	
184.58	3142.3	
184.79	4346.5	
185.01	4958.1	
185.22	5674.9	
185.44	4644.8	
185.65	3827	
185.86	5276.3	
186.08	4800.4	
186.29	3072.6	
186.51	3361.4	
186.72	4970.4	
186.94	5894.7	
187.15	3848.8	
187.36	3895.9	
187.58	7628	
187.79	5502.2	
188.01	4129.4	
188.22	6369.2	
188.43	6459.3	
188.65	5674.9	
188.86	3296.5	
189.08	3943	
189.29	5128.1	
189.5	5152.7	
189.72	3635.8	
189.93	3788.1	
190.15	5864.7	
190.36	7023.9	
190.57	4055.7	
190.79	3880.9	
191	6005.3	
191.22	5952.8	
191.43	4047.5	
191.64	3326.6	
191.86	6153.5	
192.07	5935	
192.29	3505.4	
192.5	3648.8	
192.71	5891.3	
192.93	5103.5	
193.14	3594.9	
193.35	3710.9	
193.57	5137.7	
193.78	5902.2	
194	2978.4	
194.21	3620.1	
194.42	4930.1	
194.64	5343.8	
194.85	3987.4	
195.07	4682.3	
195.28	5416.9	
195.49	4634.6	
195.71	4887.1	
195.92	3463.8	
196.13	5511.8	
196.35	5710.4	
196.56	5157.5	
196.78	3954.6	
196.99	6967.2	
197.2	6587.6	
197.42	4474.8	
197.63	4049.5	
197.84	4815.5	
198.06	5565.7	
198.27	3709.6	
198.48	4863.2	
198.7	5128.1	
198.91	5236	
199.13	3996.3	
199.34	4005.8	
199.55	5810.1	
199.77	4604.5	
199.98	3508.2	
200.19	4083	
200.41	5201.2	
200.62	4951.3	
200.83	4175.8	
201.05	4441.4	
201.26	5248.3	
201.47	5042.8	
201.69	3566.2	
201.9	3383.2	
202.11	5305.6	
202.33	6333.7	
202.54	3790.8	
202.76	4223.6	
202.97	5472.2	
203.18	5453.1	
203.4	4205.8	
203.61	4058.4	
203.82	5410.7	
204.04	5071.5	
204.25	4031.8	
204.46	3948.5	
204.68	5378	
204.89	5603.9	
205.1	3936.2	
205.32	3368.2	
205.53	5810.8	
205.74	5933	
205.96	2918.4	
206.17	4088.4	
206.38	5705	
206.6	5833.3	
206.81	4653	
207.02	3749.8	
207.24	5637.4	
207.45	6006	
207.66	3839.9	
207.88	3236.5	
208.09	5575.9	
208.3	5352	
208.52	3486.3	
208.73	3770.3	
208.94	5359.5	
209.15	6020.3	
209.37	3804.4	
209.58	4024.3	
209.79	5863.3	
210.01	5195.7	
210.22	3056.3	
210.43	3143.6	
210.65	5314.5	
210.86	5814.9	
211.07	3855	
211.29	3504.1	
211.5	5692.7	
211.71	5282.4	
211.93	3477.5	
212.14	3544.4	
212.35	5316.5	
212.56	5548.6	
212.78	3981.3	
212.99	3330	
213.2	6235.4	
213.42	5160.2	
213.63	3589.4	
213.84	3915.7	
214.06	4761.5	
214.27	4849.6	
214.48	3806.5	
214.69	4115.1	
214.91	6018.3	
215.12	6111.1	
215.33	4140.3	
215.55	4515.8	
215.76	6595.1	
215.97	5756.8	
216.18	3952.6	
216.4	3862.5	
216.61	5064.6	
216.82	5851.7	
217.04	3533.4	
217.25	3667.2	
217.46	6003.3	
217.67	5712.5	
217.89	3101.3	
218.1	3264.5	
218.31	5447.6	
218.53	5540.4	
218.74	3665.9	
218.95	3538.2	
219.16	5347.9	
219.38	6285.2	
219.59	3582.6	
219.8	4265.2	
220.01	6849.1	
220.23	5390.9	
220.44	4703.5	
220.65	3494.5	
220.87	5442.8	
221.08	5949.3	
221.29	3280.8	
221.5	4311.7	
221.72	7313.3	
221.93	5052.3	
222.14	4099.4	
222.35	4729.4	
222.57	5401.2	
222.78	5726.8	
222.99	3807.9	
223.2	4106.9	
223.42	5649.7	
223.63	5763.7	
223.84	2924.5	
224.05	2931.3	
224.27	6823.1	
224.48	6230.6	
224.69	4771.8	
224.9	4008.6	
225.12	5563	
225.33	5311.7	
225.54	3233.7	
225.75	3596.2	
225.97	4939.7	
226.18	5272.8	
226.39	3855.6	
226.6	3551.2	
226.82	5091.3	
227.03	4980.7	
227.24	4055.7	
227.45	3339.6	
227.67	5701.5	
227.88	6281.8	
228.09	4469.4	
228.3	4507.6	
228.52	5784.1	
228.73	5266.7	
228.94	3688.4	
229.15	3313.6	
229.36	5314.5	
229.58	5226.4	
229.79	3769.6	
230	4355.3	
230.21	6408.1	
230.43	5493.3	
230.64	3943	
230.85	4179.2	
231.06	5827.8	
231.28	5837.4	
231.49	3308.2	
231.7	3901.4	
231.91	5664.7	
232.12	5442.8	
232.34	3369.6	
232.55	3831.7	
232.76	6030.6	
232.97	5494	
233.18	3510.2	
233.4	3967.6	
233.61	5634.6	
233.82	5092.6	
234.03	3712.3	
234.25	3665.9	
234.46	7441	
234.67	5373.2	
234.88	4038.6	
235.09	3575.1	
235.31	5656.5	
235.52	5237.3	
235.73	3969	
235.94	3340.9	
236.15	5157.5	
236.37	6479.1	
236.58	3507.5	
236.79	3881.6	
237	5649	
237.21	4916.5	
237.43	4122.6	
237.64	3196.9	
237.85	9654.8	
238.06	4945.8	
238.27	4154	
238.48	3343.7	
238.7	5698.1	
238.91	5197.7	
239.12	3781.9	
239.33	3892.5	
239.54	4944.5	
239.76	5311.1	
239.97	3848.1	
240.18	3847.5	
240.39	6701.6	
240.6	5653.1	
240.82	3960.1	
241.03	3264.5	
241.24	5359.5	
241.45	6212.2	
241.66	3454.2	
241.87	4171	
242.09	6060.6	
242.3	6440.2	
242.51	4205.2	
242.72	3854.3	
242.93	5807.4	
243.14	5358.2	
243.36	4451.6	
243.57	4855.1	
243.78	6260.6	
243.99	5705	
244.2	3857.7	
244.41	3461.7	
244.63	4910.3	
244.84	5674.9	
245.05	4096.6	
245.26	3872.7	
245.47	5644.2	
245.68	5847	
245.9	5107	
246.11	4013.3	
246.32	5171.8	
246.53	5582.8	
246.74	6225.8	
246.95	3265.1	
247.16	4826.4	
247.38	5390.3	
247.59	3169.6	
247.8	3822.9	
248.01	5044.8	
248.22	5286.5	
248.43	3495.9	
248.64	3748.5	
248.86	4784.7	
249.07	5100.8	
249.28	3356.6	
249.49	3941.7	
249.7	5926.8	
249.91	6053.1	
250.12	3175.7	
250.34	3273.3	
250.55	5446.2	
250.76	5381.4	
250.97	3969	
251.18	4001.7	
251.39	6001.9	
251.6	5530.9	
251.81	4115.1	
252.03	4028.4	
252.24	5111.7	
252.45	5839.4	
252.66	3273.3	
252.87	4243.4	
253.08	5385.5	
253.29	7066.9	
253.5	3359.4	
253.72	4676.9	
253.93	5205.3	
254.14	6412.2	
254.35	3685	
254.56	3762.8	
254.77	5558.9	
254.98	5015.5	
255.19	3631.7	
255.41	4613.4	
255.62	5509	
255.83	5951.4	
256.04	4156.7	
256.25	4049.5	
256.46	6629.3	
256.67	5051	
256.88	3939.6	
257.09	4497.3	
257.31	5029.8	
257.52	5073.5	
257.73	4941.7	
257.94	3636.5	
258.15	5187.5	
258.36	5405.3	
258.57	4577.9	
258.78	2889	
258.99	5838.8	
259.2	5208.7	
259.41	3668.6	
259.63	3703.4	
259.84	6229.9	
260.05	6619	
260.26	4812.7	
260.47	3529.3	
260.68	5918.6	
260.89	5343.2	
261.1	4403.1	
261.31	3498.6	
261.52	5929.6	
261.73	6252.4	
261.95	4731.5	
262.16	4197.7	
262.37	6033.3	
262.58	6182.1	
262.79	4763.6	
263	3695.9	
263.21	5404.6	
263.42	4874.8	
263.63	3755.3	
263.84	3744.4	
264.05	5980.8	
264.26	6235.4	
264.47	4589.5	
264.69	4127.3	
264.9	6053.1	
265.11	5541.8	
265.32	3530.7	
265.53	3671.3	
265.74	5517.2	
265.95	4780	
266.16	3933.5	
266.37	4383.3	
266.58	5467.4	
266.79	5249.6	
267	3623.5	
267.21	3404.4	
267.42	4904.9	
267.63	5358.9	
267.84	3832.4	
268.06	3336.1	
268.27	5739.1	
268.48	6110.5	
268.69	3786.7	
268.9	4418.8	
269.11	6055.8	
269.32	4822.3	
269.53	3846.1	
269.74	3592.8	
269.95	5715.9	
270.16	4713.1	
270.37	3834.5	
270.58	4384	
270.79	5187.5	
271	5897.5	
271.21	4143.7	
271.42	3874.8	
271.63	5520.6	
271.84	5001.8	
272.05	3093.1	
272.26	3480.2	
272.47	5358.2	
272.68	5585.5	
272.89	3743.7	
273.11	4252.9	
273.32	5148.6	
273.53	6346.7	
273.74	4143	
273.95	4042	
274.16	5994.4	
274.37	5391.6	
274.58	4176.5	
274.79	3397.6	
275	5517.9	
275.21	5993.7	
275.42	4993.6	
275.63	4305.5	
275.84	5599.1	
276.05	7047.7	
276.26	4075.5	
276.47	3826.3	
276.68	5263.3	
276.89	6356.2	
277.1	4317.8	
277.31	3417.4	
277.52	5682.4	
277.73	5756.2	
277.94	3325.2	
278.15	3749.8	
278.36	5568.4	
278.57	5079	
278.78	3692.5	
278.99	4193.6	
279.2	5034.6	
279.41	4939.7	
279.62	4802.5	
279.83	3409.9	
280.04	6600.6	
280.25	4947.9	
280.46	4791.6	
280.67	3838.6	
280.88	4979.3	
281.09	6070.9	
281.3	4055	
281.51	5124.7	
281.72	5096.7	
281.93	5897.5	
282.14	3601.7	
282.35	3865.2	
282.56	5816.9	
282.77	5857.9	
282.98	3772.4	
283.19	4557.4	
283.4	7177.4	
283.61	5267.4	
283.82	3364.8	
284.03	4745.8	
284.24	5560.9	
284.45	6014.9	
284.66	4763.6	
284.87	4504.8	
285.08	5954.8	
285.29	6080.4	
285.5	3287.7	
285.71	3766.9	
285.92	5986.2	
286.12	6651.1	
286.33	4753.3	
286.54	3711.6	
286.75	5862	
286.96	5242.8	
287.17	3469.3	
287.38	4676.2	
287.59	5025.7	
287.8	4960.2	
288.01	3768.3	
288.22	4289.8	
288.43	5808	
288.64	4932.9	
288.85	4460.5	
289.06	4251.6	
289.27	5799.8	
289.48	6254.5	
289.69	4702.8	
289.9	4264.6	
290.11	6023.8	
290.32	5073.5	
290.53	4528.1	
290.74	4164.9	
290.94	5782.1	
291.15	5881.8	
291.36	3647.4	
291.57	4283	
291.78	5100.1	
291.99	4846.2	
292.2	3466.5	
292.41	4176.5	
292.62	5938.4	
292.83	5662	
293.04	5156.8	
293.25	3457	
293.46	5228.5	
293.67	5948.7	
293.88	3602.4	
294.09	3460.4	
294.29	4920.6	
294.5	5500.8	
294.71	3877.5	
294.92	3678.2	
295.13	5180.7	
295.34	6472.3	
295.55	3226.2	
295.76	3328.6	
295.97	5736.4	
296.18	6552.8	
296.39	3424.9	
296.6	3560.1	
296.81	5468.8	
297.01	5776	
297.22	3790.1	
297.43	3598.3	
297.64	5013.4	
297.85	5008.6	
298.06	2974.3	
298.27	3264.5	
298.48	5452.4	
298.69	5131.5	
298.9	3850.2	
299.11	3535.5	
299.31	4919.2	
299.52	4911	
299.73	4184	
299.94	4081.6	
300.15	5387.5	
300.36	5042.1	
300.57	4074.1	
300.78	4074.8	
300.99	5230.5	
301.2	5524.7	
301.4	3579.2	
301.61	3902.7	
301.82	5652.4	
302.03	5803.3	
302.24	4389.5	
302.45	3416	
302.66	5631.9	
302.87	6055.2	
303.08	3577.8	
303.29	4872.1	
303.49	5141.1	
303.7	5360.2	
303.91	3204.4	
304.12	4714.4	
304.33	4944.5	
304.54	5513.8	
304.75	3643.3	
304.96	3494.5	
305.16	5685.8	
305.37	6421.1	
305.58	3125.2	
305.79	3257.6	
306	5719.3	
306.21	4786.8	
306.42	3547.1	
306.63	5591	
306.83	5273.5	
307.04	5937.1	
307.25	3945.8	
307.46	3995.6	
307.67	4582.7	
307.88	5842.2	
308.09	3563.5	
308.29	3691.8	
308.5	5474.2	
308.71	5954.8	
308.92	3898.6	
309.13	3502	
309.34	5355.4	
309.55	5261.9	
309.75	4504.2	
309.96	4158.7	
310.17	5763	
310.38	5111	
310.59	4328	
310.8	4088.4	
311.01	5273.5	
311.21	5249.6	
311.42	3396.9	
311.63	3532.1	
311.84	5103.5	
312.05	5498.1	
312.26	4047.5	
312.46	4388.8	
312.67	5221	
312.88	4926	
313.09	3482.2	
313.3	3412.6	
313.51	6161.7	
313.71	6524.8	
313.92	3424.9	
314.13	3703.4	
314.34	5543.9	
314.55	5317.2	
314.76	4462.5	
314.96	3909.6	
315.17	5481.7	
315.38	5857.2	
315.59	3491.8	
315.8	3368.9	
316.01	6186.2	
316.21	6277.7	
316.42	3419.4	
316.63	3796.3	
316.84	5186.1	
317.05	6109.1	
317.26	4136.2	
317.46	3671.3	
317.67	5309	
317.88	5765.7	
318.09	4096.6	
318.3	3289.7	
318.5	5091.3	
318.71	5711.1	
318.92	5545.2	
319.13	4126	
319.34	5895.4	
319.54	5982.1	
319.75	3241.9	
319.96	3110.2	
320.17	5815.5	
320.38	5930.2	
320.58	3173.7	
320.79	3831.1	
321	5997.1	
321.21	6156.2	
321.42	3880.2	
321.62	3182.5	
321.83	5017.5	
322.04	5363.6	
322.25	3736.9	
322.46	3561.4	
322.66	5473.5	
322.87	5625.1	
323.08	4290.5	
323.29	3440.6	
323.5	6458.6	
323.7	4982.7	
323.91	4728.8	
324.12	4293.2	
324.33	5433.9	
324.53	5737.7	
324.74	4123.9	
324.95	4309.6	
325.16	4844.8	
325.37	5150.6	
325.57	3482.2	
325.78	3582.6	
325.99	5429.2	
326.2	4895.3	
326.4	5129.5	
326.61	3290.4	
326.82	5303.6	
327.03	5466	
327.24	4939	
327.44	4693.9	
327.65	5641.5	
327.86	4555.4	
328.07	4088.4	
328.27	3429	
328.48	6038.8	
328.69	4938.3	
328.9	5068	
329.1	3735.5	
329.31	5303.6	
329.52	6148.7	
329.73	3547.8	
329.93	3947.8	
330.14	5398.4	
330.35	5703.6	
330.56	5749.3	
330.76	4397	
330.97	5239.4	
331.18	5692.7	
331.39	3870.7	
331.59	3175	
331.8	5920	
332.01	6145.3	
332.22	3596.2	
332.42	4136.2	
332.63	5491.3	
332.84	5079.6	
333.05	3924.6	
333.25	3551.9	
333.46	5144.5	
333.67	5418.9	
333.88	3646.1	
334.08	4065.2	
334.29	7230.7	
334.5	6057.2	
334.7	3410.6	
334.91	4974.5	
335.12	4937.7	
335.33	5806	
335.53	3872.7	
335.74	5686.5	
335.95	5129.5	
336.16	4980.7	
336.36	3930.7	
336.57	4489.1	
336.78	4922.6	
336.98	5924.1	
337.19	4715.1	
337.4	3796.9	
337.61	6504.3	
337.81	4920.6	
338.02	3544.4	
338.23	4610.7	
338.43	6133.7	
338.64	5047.6	
338.85	3523.9	
339.05	4599.7	
339.26	6266.1	
339.47	4824.3	
339.68	3504.1	
339.88	5122.7	
340.09	5666.7	
340.3	5854.5	
340.5	4114.4	
340.71	3140.9	
340.92	4848.2	
341.13	6108.4	
341.33	3401	
341.54	4136.9	
341.75	5595.1	
341.95	5275.6	
342.16	3943.7	
342.37	4259.1	
342.57	4948.6	
342.78	5366.4	
342.99	4387.4	
343.19	3127.9	
343.4	5837.4	
343.61	5631.2	
343.81	3722.5	
344.02	3417.4	
344.23	5721.3	
344.43	6239.5	
344.64	4363.5	
344.85	4225	
345.06	5629.9	
345.26	6013.5	
345.47	4080.2	
345.68	4830.5	
345.88	4756.7	
346.09	5851	
346.3	4104.8	
346.5	3133.4	
346.71	5445.5	
346.92	5083.1	
347.12	3196.2	
347.33	4061.1	
347.54	5834	
347.74	6308.4	
347.95	4032.5	
348.16	3019.4	
348.36	5202.5	
348.57	4930.8	
348.78	3997.6	
348.98	4261.8	
349.19	5343.8	
349.39	4886.5	
349.6	3261.7	
349.81	3644.7	
350.01	5601.2	
350.22	5068	
350.43	3866.6	
350.63	4652.3	
350.84	5384.1	
351.05	5152.7	
351.25	3507.5	
351.46	3147	
351.67	5944.6	
351.87	5048.9	
352.08	3735.5	
352.29	4330.1	
352.49	5797.1	
352.7	5934.3	
352.9	3442.6	
353.11	4165.6	
353.32	6503	
353.52	5146.5	
353.73	3369.6	
353.94	4325.3	
354.14	5641.5	
354.35	5492.7	
354.55	3452.2	
354.76	3891.1	
354.97	5627.8	
355.17	5355.4	
355.38	3252.9	
355.59	4546.5	
355.79	5018.2	
356	5472.2	
356.2	3843.4	
356.41	3349.8	
356.62	4793.6	
356.82	5329.5	
357.03	4091.8	
357.24	3696.6	
357.44	5024.3	
357.65	5150.6	
357.85	4974.5	
358.06	3893.2	
358.27	4863.9	
358.47	4997.7	
358.68	3223.5	
358.88	4090.5	
359.09	5621.7	
359.3	5931.6	
359.5	4749.9	
359.71	4219.5	
359.91	6418.3	
360.12	5726.8	
360.33	4042.7	
360.53	4545.8	
360.74	5001.8	
360.94	5092.6	
361.15	4298.7	
361.36	3510.2	
361.56	5854.5	
361.77	5288.5	
361.97	4761.5	
362.18	3768.3	
362.38	5783.5	
362.59	4922.6	
362.8	3445.4	
363	3300.6	
363.21	4693.9	
363.41	5383.4	
363.62	3925.3	
363.83	4960.9	
364.03	5425.1	
364.24	6411.5	
364.44	5054.4	
364.65	4942.4	
364.85	5230.5	
365.06	5057.1	
365.27	3593.5	
365.47	3614	
365.68	6156.2	
365.88	5212.1	
366.09	3983.3	
366.29	3667.2	
366.5	5489.9	
366.71	5887.9	
366.91	4922	
367.12	4125.3	
367.32	6404.7	
367.53	5757.5	
367.73	4092.5	
367.94	5026.4	
368.14	5669.5	
368.35	6618.4	
368.56	4096.6	
368.76	3848.8	
368.97	5750	
369.17	7362.4	
369.38	3553.2	
369.58	3845.4	
369.79	4816.8	
369.99	6084.5	
370.2	4804.5	
370.4	3964.2	
370.61	5511.8	
370.82	6640.9	
371.02	3846.1	
371.23	3137.5	
371.43	4715.8	
371.64	6014.9	
371.84	3837.2	
372.05	4984.1	
372.25	7349.5	
372.46	5750.7	
372.66	3861.1	
372.87	3761.4	
373.07	5809.4	
373.28	7353.6	
373.48	4825.7	
373.69	4612	
373.9	5225.1	
374.1	5311.7	
374.31	4747.2	
374.51	4290.5	
374.72	6091.3	
374.92	4986.8	
375.13	4953.4	
375.33	4163.5	
375.54	5663.3	
375.74	5116.5	
375.95	4163.5	
376.15	5433.9	
376.36	5694	
376.56	5459.2	
376.77	4207.9	
376.97	4704.2	
377.18	6652.5	
377.38	5699.5	
377.59	5029.1	
377.79	3728	
378	5485.8	
378.2	5999.2	
378.41	3800.3	
378.61	3690.4	
378.82	6033.3	
379.02	5125.4	
379.23	3906.2	
379.43	5044.8	
379.64	6085.9	
379.84	5606	
380.05	3754.6	
380.25	3673.4	
380.46	5761.6	
380.66	5338.4	
380.87	5089.2	
381.07	5481	
381.28	6384.2	
381.48	5760.3	
381.69	3764.8	
381.89	3876.1	
382.1	4805.9	
382.3	5951.4	
382.51	4921.3	
382.71	5772.5	
382.91	5774.6	
383.12	6341.2	
383.32	4175.1	
383.53	4349.2	
383.73	5617.6	
383.94	5465.3	
384.14	4273.4	
384.35	3465.8	
384.55	5390.9	
384.76	5880.4	
384.96	4130.1	
385.17	4462.5	
385.37	5783.5	
385.58	5075.5	
385.78	4553.3	
385.98	3369.6	
386.19	5312.4	
386.39	5673.6	
386.6	3920.5	
386.8	4162.2	
387.01	5808	
387.21	5840.1	
387.42	4565.6	
387.62	5083.1	
387.83	5157.5	
388.03	5712.5	
388.23	4187.4	
388.44	5042.1	
388.64	4893.3	
388.85	4983.4	
389.05	4588.8	
389.26	5169.8	
389.46	6782.9	
389.67	6163	
389.87	4510.3	
390.07	4605.9	
390.28	5460.6	
390.48	5038	
390.69	3818.8	
390.89	4127.3	
391.1	5195	
391.3	6201.9	
391.5	5264	
391.71	5884.5	
391.91	5830.6	
392.12	6940.6	
392.32	5337	
392.53	4636.6	
392.73	5267.4	
392.93	5491.3	
393.14	4212	
393.34	5019.6	
393.55	5995.8	
393.75	5474.9	
393.95	4259.8	
394.16	4216.8	
394.36	5225.7	
394.57	5933.6	
394.77	3774.4	
394.98	4167.6	
395.18	5190.2	
395.38	5292.6	
395.59	4991.6	
395.79	3980.6	
396	5350	
396.2	5829.9	
396.4	4859.1	
396.61	4762.2	
396.81	5974.6	
397.02	5240.8	
397.22	4988.9	
397.42	5067.4	
397.63	5986.2	
397.83	5134.9	
398.04	3926.6	
398.24	4404.5	
398.44	5727.5	
398.65	4799.8	
398.85	3819.5	
399.05	3916.4	
399.26	5186.1	
399.46	6881.2	
399.67	4265.2	
399.87	3992.9	
400.07	5515.2	
400.28	5905.7	
400.48	4081.6	
400.69	5097.4	
400.89	6072.9	
401.09	6557.6	
401.3	3916.4	
401.5	5062.6	
401.7	6702.3	
401.91	7023.2	
402.11	4250.9	
402.32	4498.7	
402.52	6113.9	
402.72	5946.6	
402.93	4673.5	
403.13	3576.4	
403.33	6825.2	
403.54	5553.4	
403.74	4440	
403.94	5317.2	
404.15	5647.6	
404.35	6856.6	
404.56	4220.9	
404.76	6059.3	
404.96	6098.9	
405.17	5834	
405.37	5466	
405.57	4722.6	
405.78	6133	
405.98	5588.2	
406.18	4205.2	
406.39	5162.2	
406.59	6125.5	
406.79	5733.6	
407	4076.8	
407.2	4160.8	
407.4	6201.9	
407.61	6312.5	
407.81	4252.9	
408.01	6378.1	
408.22	5134.3	
408.42	7173.4	
408.62	5298.1	
408.83	4713.1	
409.03	5876.3	
409.23	5580	
409.44	4823.6	
409.64	5059.2	
409.84	6617	
410.05	6506.4	
410.25	4928.1	
410.45	4630.5	
410.66	6018.3	
410.86	8460.2	
411.06	5152	
411.27	4909.7	
411.47	8168.7	
411.67	6204.7	
411.88	5231.2	
412.08	5415.5	
412.28	6838.2	
412.49	7278.5	
412.69	4908.3	
412.89	4955.4	
413.09	7129	
413.3	7000.6	
413.5	5010	
413.7	4678.2	
413.91	6243.6	
414.11	7098.3	
414.31	4900.1	
414.52	5283.1	
414.72	6778.8	
414.92	6681.2	
415.12	4947.2	
415.33	5391.6	
415.53	7096.2	
415.73	7263.5	
415.94	5725.4	
416.14	5242.1	
416.34	6066.1	
416.55	5868.8	
416.75	6458.6	
416.95	5826.5	
417.15	7027.9	
417.36	7778.9	
417.56	6573.3	
417.76	5616.2	
417.97	7521.5	
418.17	7120.1	
418.37	5272.8	
418.57	5336.3	
418.78	6919.4	
418.98	6606.1	
419.18	6201.2	
419.38	6115.2	
419.59	6701.6	
419.79	6315.3	
419.99	5131.5	
420.2	5614.8	
420.4	7168.6	
420.6	7329	
420.8	5063.3	
421.01	4962.2	
421.21	7014.3	
421.41	7206.8	
421.61	5478.3	
421.82	5163.6	
422.02	6503	
422.22	7472.4	
422.42	6012.8	
422.63	5649.7	
422.83	6635.4	
423.03	7800.7	
423.23	5685.8	
423.44	4678.9	
423.64	6702.3	
423.84	6443.6	
424.04	5163.6	
424.25	4780	
424.45	7653.3	
424.65	7549.5	
424.85	4638	
425.06	5177.9	
425.26	7570	
425.46	6634.1	
425.66	5778.7	
425.87	5401.9	
426.07	7393.8	
426.27	7192.5	
426.47	5521.3	
426.67	4879.6	
426.88	7760.4	
427.08	7180.9	
427.28	5815.5	
427.48	4775.9	
427.69	6043.6	
427.89	6761	
428.09	5732.9	
428.29	4833.9	
428.5	7470.3	
428.7	6918	
428.9	4777.9	
429.1	5448.3	
429.3	6908.5	
429.51	7429.3	
429.71	5142.4	
429.91	5900.2	
430.11	7196.6	
430.31	7445.7	
430.52	5427.8	
430.72	5714.5	
430.92	7742	
431.12	7216.4	
431.32	5127.4	
431.53	5530.9	
431.73	6206.7	
431.93	7801.4	
432.13	5072.1	
432.33	4919.9	
432.54	6664.1	
432.74	7011.6	
432.94	4906.3	
433.14	5961.6	
433.34	7200.7	
433.55	6650.4	
433.75	5894.7	
433.95	7609.6	
434.15	6986.3	
434.35	6735.8	
434.56	5111	
434.76	4674.8	
434.96	6930.3	
435.16	7131	
435.36	4984.8	
435.56	6126.8	
435.77	6652.5	
435.97	6731	
436.17	6893.5	
436.37	6062	
436.57	6655.9	
436.78	6517.3	
436.98	7749.5	
437.18	6595.8	
437.38	7306.5	
437.58	6817	
437.78	6785.6	
437.99	5332.2	
438.19	7342	
438.39	8089.5	
438.59	5328.1	
438.79	4951.3	
438.99	8034.9	
439.2	6841.6	
439.4	5085.8	
439.6	5039.4	
439.8	7226.6	
440	8378.9	
440.2	6053.1	
440.4	6217.6	
440.61	7553.6	
440.81	8103.8	
441.01	5236.7	
441.21	6124.1	
441.41	7988.4	
441.61	7553.6	
441.81	6418.3	
442.02	7532.4	
442.22	8428.8	
442.42	7765.9	
442.62	5360.2	
442.82	5358.9	
443.02	8016.4	
443.22	7180.9	
443.43	5864	
443.63	5341.1	
443.83	6995.2	
444.03	7019.8	
444.23	6669.6	
444.43	6149.4	
444.63	7342	
444.83	8529.8	
445.04	5468.8	
445.24	6703.7	
445.44	7717.4	
445.64	7794.6	
445.84	6279.1	
446.04	6293.4	
446.24	6974	
446.44	8045.8	
446.65	5501.5	
446.85	5948	
447.05	7423.2	
447.25	7960.5	
447.45	5995.1	
447.65	5341.8	
447.85	7424.6	
448.05	7066.9	
448.25	6378.7	
448.46	6261.3	
448.66	7454.6	
448.86	7037.5	
449.06	5240.8	
449.26	6371.9	
449.46	7828.7	
449.66	6812.9	
449.86	5928.9	
450.06	5923.4	
450.26	7079.8	
450.47	7662.8	
450.67	6133.7	
450.87	6564.4	
451.07	7701	
451.27	7527.7	
451.47	5556.8	
451.67	6160.3	
451.87	7165.8	
452.07	8300.4	
452.27	5804.6	
452.47	5738.4	
452.67	7443.7	
452.88	8041	
453.08	5139	
453.28	7125.6	
453.48	8663.6	
453.68	7480.5	
453.88	5618.3	
454.08	5997.1	
454.28	7859.4	
454.48	7585.7	
454.68	6501.6	
454.88	6994.5	
455.08	7942.7	
455.28	7751.6	
455.48	5561.6	
455.68	6292.7	
455.89	8505.2	
456.09	8131.1	
456.29	5956.2	
456.49	6065.4	
456.69	8418.5	
456.89	7641	
457.09	6639.5	
457.29	6924.2	
457.49	7989.8	
457.69	8133.8	
457.89	6328.2	
458.09	5764.3	
458.29	7767.3	
458.49	8464.9	
458.69	6767.2	
458.89	6215.6	
459.09	8778.3	
459.29	8914.8	
459.49	6370.5	
459.69	7071	
459.9	8285.4	
460.1	7823.2	
460.3	6281.8	
460.5	6122.1	
460.7	8219.9	
460.9	8058.8	
461.1	5755.5	
461.3	7129	
461.5	8981	
461.7	8607.6	
461.9	6268.8	
462.1	6653.2	
462.3	8105.9	
462.5	8789.2	
462.7	6367.8	
462.9	6470.2	
463.1	9762.7	
463.3	9452.1	
463.5	6684.6	
463.7	7690.8	
463.9	8389.2	
464.1	8812.4	
464.3	6792.4	
464.5	7090.8	
464.7	9048.6	
464.9	8733.2	
465.1	8350.9	
465.3	7437.5	
465.5	9445.2	
465.7	9275.9	
465.9	7651.9	
466.1	7467.6	
466.3	9196.1	
466.5	8968.7	
466.7	8411	
466.9	7344.7	
467.1	9126.4	
467.3	9978.4	
467.5	8452.6	
467.7	7225.2	
467.9	10188	
468.1	11059	
468.3	8000.7	
468.5	8594.6	
468.7	9004.9	
468.9	9015.8	
469.1	7596.6	
469.3	8376.9	
469.5	11033	
469.7	8595.3	
469.9	8054	
470.1	7372.7	
470.3	8952.4	
470.5	8972.2	
470.7	8624.7	
470.9	7413	
471.1	8821.3	
471.3	9309.4	
471.5	7294.2	
471.69	9157.8	
471.89	8694.3	
472.09	8253.3	
472.29	8028	
472.49	8407.6	
472.69	8508.6	
472.89	9256.1	
473.09	7098.3	
473.29	7258	
473.49	8578.9	
473.69	8805.6	
473.89	8267	
474.09	7534.5	
474.29	10082	
474.49	9740.1	
474.69	8304.5	
474.89	7603.4	
475.09	8873.8	
475.29	8800.1	
475.49	6984.3	
475.69	7342.7	
475.88	10427	
476.08	9075.2	
476.28	6937.8	
476.48	7459.4	
476.68	9544.2	
476.88	9385.2	
477.08	7268.9	
477.28	7585.7	
477.48	8887.5	
477.68	9596.1	
477.88	7204.1	
478.08	7470.3	
478.28	9917.6	
478.48	9058.8	
478.67	7580.9	
478.87	6882.5	
479.07	9811.8	
479.27	9171.5	
479.47	7744.7	
479.67	7702.4	
479.87	9544.9	
480.07	10166	
480.27	7006.1	
480.47	8648.6	
480.67	9308	
480.87	9959.3	
481.06	7342.7	
481.26	8165.3	
481.46	9272.5	
481.66	9097.1	
481.86	7736.5	
482.06	8904.6	
482.26	8965.3	
482.46	9897.2	
482.66	7692.9	
482.86	7301.7	
483.05	9417.2	
483.25	8814.5	
483.45	10260	
483.65	7843.7	
483.85	8927.8	
484.05	9260.2	
484.25	8243.1	
484.45	8751.7	
484.65	10230	
484.84	10127	
485.04	7784.3	
485.24	7778.9	
485.44	10385	
485.64	8702.5	
485.84	7080.5	
486.04	8538	
486.24	9082.1	
486.44	9611.8	
486.63	7099.6	
486.83	7922.9	
487.03	9123.7	
487.23	9261.6	
487.43	7251.9	
487.63	9606.3	
487.83	9472.5	
488.02	10450	
488.22	8246.5	
488.42	8935.3	
488.62	10232	
488.82	9298.5	
489.02	7848.5	
489.22	8017.8	
489.41	10068	
489.61	9894.4	
489.81	7638.9	
490.01	7639.6	
490.21	10044	
490.41	10830	
490.61	7585	
490.8	7738.6	
491	9495.7	
491.2	8872.5	
491.4	8316.1	
491.6	7451.2	
491.8	9460.3	
491.99	9705.3	
492.19	7366.5	
492.39	7857.4	
492.59	10203	
492.79	10245	
492.99	8740.7	
493.18	7840.3	
493.38	10428	
493.58	11158	
493.78	8613.8	
493.98	8165.3	
494.18	10169	
494.37	9738.8	
494.57	8927.8	
494.77	8811	
494.97	10490	
495.17	10784	
495.37	8421.9	
495.56	8712.7	
495.76	10931	
495.96	10500	
496.16	9714.9	
496.36	8503.8	
496.55	10767	
496.75	10232	
496.95	8938.7	
497.15	8839	
497.35	10679	
497.54	10867	
497.74	8635.6	
497.94	10209	
498.14	11536	
498.34	11305	
498.53	8430.1	
498.73	9191.3	
498.93	10302	
499.13	10903	
499.33	9112.8	
499.52	9605.7	
499.72	10929	
499.92	11221	
500.12	8797.4	
500.32	9094.3	
500.51	11105	
500.71	10928	
500.91	9894.4	
501.11	9516.2	
501.31	11047	
501.5	11471	
501.7	10188	
501.9	9101.2	
502.1	10777	
502.29	11142	
502.49	9555.8	
502.69	9943.6	
502.89	11009	
503.09	11008	
503.28	8517.5	
503.48	8649.9	
503.68	10204	
503.88	10282	
504.07	9522.4	
504.27	9129.2	
504.47	10637	
504.67	10731	
504.86	9542.2	
505.06	9197.4	
505.26	10322	
505.46	12038	
505.65	9067	
505.85	9262.3	
506.05	10159	
506.25	10640	
506.44	8341.4	
506.64	9357.2	
506.84	10043	
507.04	11024	
507.23	8682.7	
507.43	9095.7	
507.63	12078	
507.83	10429	
508.02	9258.2	
508.22	8793.3	
508.42	12321	
508.62	10149	
508.81	9110	
509.01	9713.5	
509.21	10086	
509.4	10384	
509.6	9263.6	
509.8	8757.8	
510	10322	
510.19	11912	
510.39	8776.9	
510.59	8710	
510.79	10099	
510.98	11557	
511.18	8828.1	
511.38	8895.7	
511.57	10949	
511.77	10826	
511.97	9481.4	
512.17	8584.4	
512.36	11052	
512.56	10804	
512.76	8598.7	
512.95	8391.9	
513.15	11113	
513.35	9764	
513.55	9555.8	
513.74	8711.4	
513.94	11095	
514.14	10479	
514.33	9748.3	
514.53	9429.5	
514.73	10432	
514.92	10570	
515.12	9037.7	
515.32	8749.6	
515.51	10684	
515.71	11280	
515.91	10637	
516.11	8858.8	
516.3	12320	
516.5	10331	
516.7	9452.1	
516.89	10112	
517.09	10541	
517.29	10337	
517.48	9778.4	
517.68	9105.3	
517.88	10245	
518.07	10933	
518.27	9658.2	
518.47	8753.7	
518.66	11349	
518.86	10120	
519.06	8535.3	
519.25	9057.5	
519.45	10461	
519.65	11934	
519.84	9626.8	
520.04	10307	
520.24	12121	
520.43	10963	
520.63	9209	
520.83	8961.9	
521.02	10200	
521.22	11034	
521.42	9503.3	
521.61	10184	
521.81	10518	
522.01	10730	
522.2	9497.1	
522.4	9232.9	
522.6	11254	
522.79	10081	
522.99	9500.5	
523.18	8887.5	
523.38	10995	
523.58	11131	
523.77	10789	
523.97	8951.7	
524.17	13087	
524.36	12179	
524.56	10303	
524.76	10038	
524.95	11220	
525.15	10955	
525.34	9811.8	
525.54	9781.1	
525.74	11561	
525.93	10667	
526.13	11023	
526.33	9727.2	
526.52	12013	
526.72	11541	
526.91	11084	
527.11	10433	
527.31	12144	
527.5	12629	
527.7	10408	
527.89	9370.8	
528.09	11145	
528.29	11834	
528.48	10761	
528.68	10406	
528.87	12085	
529.07	12134	
529.27	10204	
529.46	9675.3	
529.66	11536	
529.85	12021	
530.05	9392	
530.25	10277	
530.44	13039	
530.64	11572	
530.83	10096	
531.03	10396	
531.23	12005	
531.42	12097	
531.62	11196	
531.81	10451	
532.01	12505	
532.21	12977	
532.4	10159	
532.6	10662	
532.79	13315	
532.99	12410	
533.18	10701	
533.38	11664	
533.58	12159	
533.77	12887	
533.97	10743	
534.16	11652	
534.36	13180	
534.55	12172	
534.75	11672	
534.95	10700	
535.14	12948	
535.34	12026	
535.53	10398	
535.73	12329	
535.92	13532	
536.12	12266	
536.31	10494	
536.51	11782	
536.71	12562	
536.9	12117	
537.1	10666	
537.29	10878	
537.49	13185	
537.68	12144	
537.88	11406	
538.07	10473	
538.27	12407	
538.46	13481	
538.66	10470	
538.86	10847	
539.05	12416	
539.25	12741	
539.44	11226	
539.64	10639	
539.83	12231	
540.03	13304	
540.22	10640	
540.42	10632	
540.61	12383	
540.81	12535	
541	11120	
541.2	11724	
541.39	11919	
541.59	12420	
541.78	11412	
541.98	10435	
542.18	11574	
542.37	11515	
542.57	10811	
542.76	11364	
542.96	11563	
543.15	12313	
543.35	10758	
543.54	10107	
543.74	12582	
543.93	12120	
544.13	10684	
544.32	11885	
544.52	12503	
544.71	11652	
544.91	9893.7	
545.1	11162	
545.3	11710	
545.49	12447	
545.69	9768.8	
545.88	10387	
546.08	13371	
546.27	13014	
546.47	10922	
546.66	10201	
546.86	12622	
547.05	13312	
547.24	10523	
547.44	10189	
547.63	11520	
547.83	12741	
548.02	10654	
548.22	10753	
548.41	11328	
548.61	12669	
548.8	10172	
549	10149	
549.19	11934	
549.39	12339	
549.58	9772.2	
549.78	10241	
549.97	12355	
550.17	11796	
550.36	11249	
550.55	12295	
550.75	11765	
550.94	12702	
551.14	10065	
551.33	10400	
551.53	11205	
551.72	12179	
551.92	10422	
552.11	10153	
552.31	12185	
552.5	12248	
552.69	11955	
552.89	9785.9	
553.08	12125	
553.28	11791	
553.47	10197	
553.67	11374	
553.86	12811	
554.06	10969	
554.25	9327.1	
554.44	9984.5	
554.64	13442	
554.83	12961	
555.03	9865.1	
555.22	10256	
555.42	12268	
555.61	11991	
555.8	10071	
556	10417	
556.19	11119	
556.39	12386	
556.58	10175	
556.78	10138	
556.97	11918	
557.16	11572	
557.36	11394	
557.55	9822.7	
557.75	10865	
557.94	12680	
558.13	9813.9	
558.33	9610.4	
558.52	12347	
558.72	11329	
558.91	9803.6	
559.1	9904	
559.3	11006	
559.49	10641	
559.69	9305.3	
559.88	10243	
560.07	11768	
560.27	12223	
560.46	10435	
560.66	10473	
560.85	11540	
561.04	10815	
561.24	9660.3	
561.43	9853.5	
561.63	10944	
561.82	11388	
562.01	11105	
562.21	10217	
562.4	11747	
562.59	12763	
562.79	10129	
562.98	9722.4	
563.18	11707	
563.37	13164	
563.56	10565	
563.76	9678	
563.95	11230	
564.14	11191	
564.34	10017	
564.53	9929.9	
564.73	11709	
564.92	12147	
565.11	10415	
565.31	9655.5	
565.5	12466	
565.69	11292	
565.89	9969.5	
566.08	10101	
566.27	12326	
566.47	12622	
566.66	10861	
566.85	9470.5	
567.05	11862	
567.24	11247	
567.44	9792	
567.63	11282	
567.82	12005	
568.02	11909	
568.21	9900.6	
568.4	10211	
568.6	11761	
568.79	11716	
568.98	9741.5	
569.18	9891	
569.37	11838	
569.56	13824	
569.76	10278	
569.95	11303	
570.14	12085	
570.34	11991	
570.53	9731.3	
570.72	9781.1	
570.91	12542	
571.11	11727	
571.3	10180	
571.49	11146	
571.69	11791	
571.88	11261	
572.07	10882	
572.27	10781	
572.46	11407	
572.65	12383	
572.85	10199	
573.04	10405	
573.23	12777	
573.43	11901	
573.62	9964.7	
573.81	10611	
574	12084	
574.2	11823	
574.39	10356	
574.58	10500	
574.78	12999	
574.97	12177	
575.16	10891	
575.36	11030	
575.55	12640	
575.74	12673	
575.93	9955.2	
576.13	11135	
576.32	11874	
576.51	12588	
576.71	10440	
576.9	11749	
577.09	12887	
577.28	12332	
577.48	10996	
577.67	9923.1	
577.86	12036	
578.05	12377	
578.25	10632	
578.44	10800	
578.63	12224	
578.83	13463	
579.02	10132	
579.21	11591	
579.4	12428	
579.6	12084	
579.79	10782	
579.98	13109	
580.17	12686	
580.37	12838	
580.56	10284	
580.75	10999	
580.94	13336	
581.14	13161	
581.33	11560	
581.52	10473	
581.71	12640	
581.91	13394	
582.1	10226	
582.29	10841	
582.48	12361	
582.68	12252	
582.87	11313	
583.06	10892	
583.25	12693	
583.45	11903	
583.64	11658	
583.83	12284	
584.02	12198	
584.21	12615	
584.41	11597	
584.6	10944	
584.79	12397	
584.98	13164	
585.18	10281	
585.37	10451	
585.56	11792	
585.75	12732	
585.94	10508	
586.14	11168	
586.33	13219	
586.52	12314	
586.71	10895	
586.91	10653	
587.1	11576	
587.29	12635	
587.48	10585	
587.67	10377	
587.87	12455	
588.06	12486	
588.25	11613	
588.44	10970	
588.63	11970	
588.83	12489	
589.02	10187	
589.21	10111	
589.4	11454	
589.59	11254	
589.78	9079.3	
589.98	9394	
590.17	10823	
590.36	11385	
590.55	8684.1	
590.74	9526.5	
590.94	12738	
591.13	11284	
591.32	9478.7	
591.51	9114.8	
591.7	11863	
591.89	11369	
592.09	9047.2	
592.28	9706	
592.47	10562	
592.66	12463	
592.85	9103.9	
593.05	9358.5	
593.24	11186	
593.43	12005	
593.62	9447.3	
593.81	9973.6	
594	11241	
594.19	11404	
594.39	9256.8	
594.58	9339.4	
594.77	11439	
594.96	12056	
595.15	9069.1	
595.34	9856.9	
595.54	11454	
595.73	10589	
595.92	8620.6	
596.11	9745.6	
596.3	11955	
596.49	10759	
596.68	9439.1	
596.88	9977.7	
597.07	11825	
597.26	10527	
597.45	8982.4	
597.64	10424	
597.83	10746	
598.02	11402	
598.22	9121.7	
598.41	9792	
598.6	11243	
598.79	10630	
598.98	9152.4	
599.17	10077	
599.36	11249	
599.55	12408	
599.74	11149	
599.94	10900	
600.13	11758	
600.32	10644	
600.51	8834.9	
600.7	9123	
600.89	12262	
601.08	12485	
601.27	8855.4	
601.47	9890.3	
601.66	11759	
601.85	12353	
602.04	9523.1	
602.23	9580.4	
602.42	10708	
602.61	11427	
602.8	9379	
602.99	9137.4	
603.18	11159	
603.37	11361	
603.57	9936.7	
603.76	10456	
603.95	12101	
604.14	11618	
604.33	9330.5	
604.52	9747	
604.71	11381	
604.9	10951	
605.09	10202	
605.28	10026	
605.47	11944	
605.66	11552	
605.86	9852.1	
606.05	9299.1	
606.24	11864	
606.43	10438	
606.62	9668.5	
606.81	10400	
607	11637	
607.19	11015	
607.38	8926.4	
607.57	9334.6	
607.76	10791	
607.95	10220	
608.14	9594.1	
608.33	10199	
608.52	10841	
608.72	11640	
608.91	8909.3	
609.1	8779	
609.29	10893	
609.48	10369	
609.67	9816.6	
609.86	8881.4	
610.05	10508	
610.24	10826	
610.43	8738	
610.62	8398	
610.81	11921	
611	11683	
611.19	8943.5	
611.38	9583.8	
611.57	11034	
611.76	12372	
611.95	8627.4	
612.14	8454.7	
612.33	10857	
612.52	10400	
612.71	9174.2	
612.9	8354.3	
613.09	10034	
613.28	12320	
613.47	8905.3	
613.66	9857.6	
613.85	11024	
614.04	10508	
614.24	9024	
614.43	8271.7	
614.62	11156	
614.81	11141	
615	9556.5	
615.19	9673.9	
615.38	10418	
615.57	10735	
615.76	9424.8	
615.95	10438	
616.14	11219	
616.33	10796	
616.52	9775.6	
616.71	10114	
616.9	11174	
617.09	10943	
617.28	9090.3	
617.47	10433	
617.66	10267	
617.85	10418	
618.04	10224	
618.22	9564.7	
618.41	10736	
618.6	11716	
618.79	9559.2	
618.98	9220.6	
619.17	12010	
619.36	10366	
619.55	9416.6	
619.74	9486.9	
619.93	11321	
620.12	10676	
620.31	10003	
620.5	10353	
620.69	12026	
620.88	12238	
621.07	10952	
621.26	10013	
621.45	11541	
621.64	11566	
621.83	10161	
622.02	9279.3	
622.21	11699	
622.4	11348	
622.59	10745	
622.78	10497	
622.97	11000	
623.16	11991	
623.35	10106	
623.54	9209	
623.72	11237	
623.91	11401	
624.1	10394	
624.29	8904.6	
624.48	12382	
624.67	11630	
624.86	10278	
625.05	9353.8	
625.24	12546	
625.43	10921	
625.62	11981	
625.81	9541.5	
626	12018	
626.19	11288	
626.38	10320	
626.56	9700.5	
626.75	11095	
626.94	11871	
627.13	10294	
627.32	8953	
627.51	11604	
627.7	13039	
627.89	9083.4	
628.08	10336	
628.27	10899	
628.46	11032	
628.65	9432.3	
628.83	9124.4	
629.02	11631	
629.21	10898	
629.4	9824.1	
629.59	10072	
629.78	10880	
629.97	11945	
630.16	10155	
630.35	9633.6	
630.54	12326	
630.72	12060	
630.91	9580.4	
631.1	10174	
631.29	11430	
631.48	11637	
631.67	10242	
631.86	9636.4	
632.05	11073	
632.24	11234	
632.42	9338.1	
632.61	9931.3	
632.8	11198	
632.99	10839	
633.18	9949.7	
633.37	10340	
633.56	11471	
633.75	11228	
633.93	10046	
634.12	9637.1	
634.31	12224	
634.5	11979	
634.69	9660.3	
634.88	10111	
635.07	11271	
635.25	11770	
635.44	10535	
635.63	10807	
635.82	11119	
636.01	10618	
636.2	10669	
636.39	10096	
636.57	12224	
636.76	11857	
636.95	9427.5	
637.14	10806	
637.33	11560	
637.52	12387	
637.7	9258.9	
637.89	10215	
638.08	11069	
638.27	12499	
638.46	10228	
638.65	10729	
638.83	12447	
639.02	10884	
639.21	10049	
639.4	10576	
639.59	11318	
639.78	10889	
639.96	9385.8	
640.15	9366.7	
640.34	11127	
640.53	11357	
640.72	9030.2	
640.91	9409.7	
641.09	10472	
641.28	11934	
641.47	9607	
641.66	10115	
641.85	11125	
642.03	11453	
642.22	9942.2	
642.41	9468.4	
642.6	10644	
642.79	10047	
642.97	9153.1	
643.16	9893.1	
643.35	10602	
643.54	10322	
643.73	9039.1	
643.91	9776.3	
644.1	10067	
644.29	10740	
644.48	8967.4	
644.67	9134.6	
644.85	10210	
645.04	10587	
645.23	8466.3	
645.42	8877.3	
645.6	10053	
645.79	11247	
645.98	8697	
646.17	7799.3	
646.36	9708.1	
646.54	10228	
646.73	9429.5	
646.92	8225.3	
647.11	9742.2	
647.29	10843	
647.48	8279.9	
647.67	7942.7	
647.86	11118	
648.05	11254	
648.23	8584.4	
648.42	9951.8	
648.61	10617	
648.8	10344	
648.98	8300.4	
649.17	8685.4	
649.36	9893.1	
649.55	9383.1	
649.73	8304.5	
649.92	9029.5	
650.11	9662.3	
650.3	10002	
650.48	8418.5	
650.67	8238.3	
650.86	10316	
651.05	9219.3	
651.23	8428.8	
651.42	8422.6	
651.61	9815.2	
651.79	9839.8	
651.98	8607.6	
652.17	8109.3	
652.36	10221	
652.54	9301.2	
652.73	8226.7	
652.92	8002.1	
653.11	10226	
653.29	10208	
653.48	7398.6	
653.67	8327.7	
653.85	9923.8	
654.04	10757	
654.23	8370.7	
654.42	7950.9	
654.6	9154.4	
654.79	9837.1	
654.98	7381.6	
655.16	7977.5	
655.35	8841.1	
655.54	8772.8	
655.73	7551.5	
655.91	7505.8	
656.1	9957.2	
656.29	8826.1	
656.47	7192.5	
656.66	8896.4	
656.85	9165.3	
657.03	9287.5	
657.22	7755	
657.41	7890.1	
657.59	9281.4	
657.78	9095	
657.97	7370.6	
658.16	8221.9	
658.34	10008	
658.53	10424	
658.72	9073.2	
658.9	9606.3	
659.09	9412.5	
659.28	9493	
659.46	7950.9	
659.65	7968.6	
659.84	9247.3	
660.02	9644.6	
660.21	7705.1	
660.4	7671.7	
660.58	10115	
660.77	9510.1	
660.96	8308.6	
661.14	7362.4	
661.33	10653	
661.52	10528	
661.7	7263.5	
661.89	11000	
662.08	9132.6	
662.26	8632.2	
662.45	7574.8	
662.64	7735.2	
662.82	9768.8	
663.01	8862.2	
663.2	7654.6	
663.38	8488.1	
663.57	9668.5	
663.75	9533.3	
663.94	8009.6	
664.13	9263	
664.31	9033.6	
664.5	9676.7	
664.69	8178.9	
664.87	8823.3	
665.06	8882	
665.25	9513.5	
665.43	9051.3	
665.62	9097.8	
665.8	9919	
665.99	9114.1	
666.18	7980.9	
666.36	8098.4	
666.55	9785.2	
666.74	9683.5	
666.92	7583.6	
667.11	9196.7	
667.29	9165.3	
667.48	9716.2	
667.67	8852.7	
667.85	7961.8	
668.04	9221.3	
668.22	9187.9	
668.41	7938.6	
668.6	8189.1	
668.78	8917.5	
668.97	9164	
669.15	8300.4	
669.34	7346.7	
669.53	8963.3	
669.71	9280	
669.9	7542	
670.08	8107.2	
670.27	9028.1	
670.46	9468.4	
670.64	8301.1	
670.83	8621.3	
671.01	8779	
671.2	9412.5	
671.38	7548.8	
671.57	7433.4	
671.76	9944.9	
671.94	10726	
672.13	7394.5	
672.31	8407.6	
672.5	9552.4	
672.69	8900.5	
672.87	7536.5	
673.06	7952.9	
673.24	9472.5	
673.43	9024	
673.61	8297.7	
673.8	7777.5	
673.98	9653.4	
674.17	9813.9	
674.36	8401.5	
674.54	8244.4	
674.73	9397.4	
674.91	9668.5	
675.1	7933.8	
675.28	7561.8	
675.47	9110.7	
675.65	9720.3	
675.84	7879.9	
676.03	8126.3	
676.21	8914.1	
676.4	8467.7	
676.58	8610.3	
676.77	8430.1	
676.95	10352	
677.14	8948.3	
677.32	7494.9	
677.51	7405.5	
677.69	9772.9	
677.88	8611.7	
678.06	7330.4	
678.25	7506.5	
678.44	9140.8	
678.62	8839.7	
678.81	7191.8	
678.99	8188.5	
679.18	9984.5	
679.36	9483.5	
679.55	7746.8	
679.73	8417.8	
679.92	9459.6	
680.1	8897.1	
680.29	8989.2	
680.47	7695.6	
680.66	8844.5	
680.84	9673.9	
681.03	7002	
681.21	8191.9	
681.4	8854.7	
681.58	8765.3	
681.77	7538.6	
681.95	7326.9	
682.14	9654.1	
682.32	10049	
682.51	8354.3	
682.69	7234.1	
682.88	8804.9	
683.06	9454.1	
683.25	8109.3	
683.43	8532.5	
683.62	9047.9	
683.8	9407.7	
683.99	8445.8	
684.17	7686.7	
684.36	9992.7	
684.54	8600.1	
684.73	6752.8	
684.91	6909.8	
685.1	8806.3	
685.28	8284.7	
685.46	7514.7	
685.65	7542	
685.83	9129.8	
686.02	8634.2	
686.2	7095.5	
686.39	7341.3	
686.57	8463.6	
686.76	9895.1	
686.94	7166.5	
687.13	7363.8	
687.31	9204.3	
687.5	8621.9	
687.68	6816.3	
687.86	8089.5	
688.05	10485	
688.23	8155.7	
688.42	8105.2	
688.6	7335.8	
688.79	8611.7	
688.97	8637.6	
689.16	7761.1	
689.34	6647.7	
689.52	9388.6	
689.71	9667.1	
689.89	7992.5	
690.08	7281.2	
690.26	8994.7	
690.45	8771.5	
690.63	8097.7	
690.81	7360.4	
691	8470.4	
691.18	8426	
691.37	7478.5	
691.55	9738.8	
691.74	8464.9	
691.92	10511	
692.1	7565.2	
692.29	7042.3	
692.47	8829.5	
692.66	8035.5	
692.84	7223.2	
693.02	7853.3	
693.21	8306.6	
693.39	8735.3	
693.58	7892.9	
693.76	7372.7	
693.94	10000	
694.13	9830.9	
694.31	7453.9	
694.5	8555	
694.68	8730.5	
694.86	9071.1	
695.05	7789.1	
695.23	7901.7	
695.42	9401.5	
695.6	11789	
695.78	8362.5	
695.97	7516.7	
696.15	9316.9	
696.34	8715.5	
696.52	7188.4	
696.7	8049.2	
696.89	9151	
697.07	8574.8	
697.25	8036.2	
697.44	9593.4	
697.62	9061.6	
697.81	9408.4	
697.99	7631.4	
698.17	8095.6	
698.36	8354.3	
698.54	9136.7	
698.72	8114.1	
698.91	6969.9	
699.09	8737.3	
699.28	8585.1	
699.46	7679.9	
699.64	7477.8	
699.83	8471.8	
700.01	9792.7	
700.19	8338	
700.38	6875.7	
700.56	9835	
700.74	8731.9	
700.93	7220.5	
701.11	8171.4	
701.29	9303.2	
701.48	10363	
701.66	7471	
701.84	7534.5	
702.03	9009.7	
702.21	9509.4	
702.39	7080.5	
702.58	7770.7	
702.76	9278	
702.94	9418.6	
703.13	7149.5	
703.31	9573.6	
703.49	8611.7	
703.68	9924.5	
703.86	7329	
704.04	8330.5	
704.23	9124.4	
704.41	9518.3	
704.59	7455.3	
704.78	8664.3	
704.96	10226	
705.14	9708.1	
705.33	7302.4	
705.51	8088.8	
705.69	9000.1	
705.87	9839.8	
706.06	8317.5	
706.24	7214.3	
706.42	9342.8	
706.61	9628.9	
706.79	8447.9	
706.97	7290.8	
707.16	8736	
707.34	9392.7	
707.52	8406.9	
707.7	7501	
707.89	8917.5	
708.07	8708	
708.25	8350.9	
708.44	8576.2	
708.62	8898.4	
708.8	10038	
708.98	8583	
709.17	7595.9	
709.35	9192.6	
709.53	9217.2	
709.72	7326.9	
709.9	7516.7	
710.08	9399.5	
710.26	9479.4	
710.45	8961.2	
710.63	7593.9	
710.81	9072.5	
710.99	9230.2	
711.18	8273.1	
711.36	7617.8	
711.54	8960.5	
711.72	9665.7	
711.91	7669.6	
712.09	7080.5	
712.27	9103.2	
712.45	9624.1	
712.64	7912.7	
712.82	6819.1	
713	8358.4	
713.18	8398	
713.37	6741.9	
713.55	7802.1	
713.73	9050.7	
713.91	7643.7	
714.1	6855.2	
714.28	6233.3	
714.46	8550.3	
714.64	7645.8	
714.83	5644.9	
715.01	6466.8	
715.19	7657.4	
715.37	7041.6	
715.55	6158.9	
715.74	6434.7	
715.92	8546.9	
716.1	6624.5	
716.28	7565.9	
716.47	6537.1	
716.65	7191.1	
716.83	7461.4	
717.01	6408.1	
717.19	6512.5	
717.38	9469.1	
717.56	7131	
717.74	6839.5	
717.92	6101.6	
718.1	8534.6	
718.29	7773.4	
718.47	5812.8	
718.65	6498.2	
718.83	8523	
719.01	8460.8	
719.2	5758.2	
719.38	6858.6	
719.56	8228.7	
719.74	9751.7	
719.92	6297.5	
720.11	7343.3	
720.29	8008.2	
720.47	7099.6	
720.65	5735	
720.83	6522.8	
721.02	7410.9	
721.2	7221.8	
721.38	6546.7	
721.56	5861.3	
721.74	6776.7	
721.92	6890.7	
722.11	7136.5	
722.29	6764.4	
722.47	8195.3	
722.65	7248.4	
722.83	5869.5	
723.01	6863.4	
723.2	7433.4	
723.38	7669.6	
723.56	5311.7	
723.74	6499.6	
723.92	6905.8	
724.1	8089.5	
724.29	5782.8	
724.47	6920.8	
724.65	6944.7	
724.83	6931	
725.01	5733.6	
725.19	6612.9	
725.37	7023.9	
725.56	7014.3	
725.74	5501.5	
725.92	5857.9	
726.1	6925.5	
726.28	7212.3	
726.46	6266.1	
726.64	5997.1	
726.83	7162.4	
727.01	7446.4	
727.19	5608	
727.37	6318	
727.55	7368.6	
727.73	7847.8	
727.91	5518.6	
728.09	5409.4	
728.28	7958.4	
728.46	8478.6	
728.64	6666.8	
728.82	6530.3	
729	9095.7	
729.18	8395.3	
729.36	5871.5	
729.54	8209.6	
729.72	9471.9	
729.91	7821.9	
730.09	7920.2	
730.27	6630.6	
730.45	7710.6	
730.63	8342.1	
730.81	7296.2	
730.99	6285.2	
731.17	8914.8	
731.35	7428	
731.53	6804.7	
731.71	6404	
731.9	8507.9	
732.08	8697	
732.26	6690	
732.44	6453.8	
732.62	8774.2	
732.8	8232.8	
732.98	7050.5	
733.16	6090	
733.34	8285.4	
733.52	7013.6	
733.7	6614.3	
733.88	6954.9	
734.07	8126.3	
734.25	7879.2	
734.43	6113.9	
734.61	7681.2	
734.79	9391.3	
734.97	7799.3	
735.15	6207.4	
735.33	6655.2	
735.51	8170.7	
735.69	7879.2	
735.87	7791.2	
736.05	6896.9	
736.23	8005.5	
736.41	7776.8	
736.59	6689.3	
736.77	6909.8	
736.95	8469.7	
737.13	7910.6	
737.32	6318.7	
737.5	6591.7	
737.68	9041.8	
737.86	7808.9	
738.04	6169.2	
738.22	8042.4	
738.4	7511.3	
738.58	7916.8	
738.76	6794.5	
738.94	5725.4	
739.12	7709.9	
739.3	7624.6	
739.48	7382.2	
739.66	7199.3	
739.84	7905.8	
740.02	7989.8	
740.2	5879.7	
740.38	6206.7	
740.56	8427.4	
740.74	7144.7	
740.92	6820.4	
741.1	6766.5	
741.28	7724.9	
741.46	7699	
741.64	6380.8	
741.82	6923.5	
742	7854	
742.18	7731.1	
742.36	6563.7	
742.54	6160.3	
742.72	8398	
742.9	7063.4	
743.08	6988.4	
743.26	5797.1	
743.44	8554.4	
743.62	8447.2	
743.8	7105.8	
743.98	6236.1	
744.16	8106.5	
744.34	7797.3	
744.52	7047.1	
744.7	6939.9	
744.88	8217.1	
745.06	7720.8	
745.24	7028.6	
745.42	7109.9	
745.6	8314.1	
745.78	8006.9	
745.96	5780.1	
746.14	6134.3	
746.32	9063.6	
746.5	8144.8	
746.68	6679.8	
746.86	6045.6	
747.03	8615.8	
747.21	7021.1	
747.39	6655.2	
747.57	6139.8	
747.75	7840.3	
747.93	8215.8	
748.11	6111.8	
748.29	6054.5	
748.47	9426.1	
748.65	7479.2	
748.83	6808.1	
749.01	6675.7	
749.19	8024.6	
749.37	7158.3	
749.55	6496.8	
749.73	6457.9	
749.91	7719.5	
750.09	7374.7	
750.26	6571.9	
750.44	5997.1	
750.62	7730.4	
750.8	7706.5	
750.98	5844.9	
751.16	6217.6	
751.34	7804.1	
751.52	7179.5	
751.7	6961.7	
751.88	5943.2	
752.06	8320.2	
752.24	8066.3	
752.42	5696.8	
752.59	6068.8	
752.77	7653.3	
752.95	8930.5	
753.13	6798.6	
753.31	6194.4	
753.49	7368.6	
753.67	7833.5	
753.85	6509.8	
754.03	6087.9	
754.21	7987.1	
754.38	8293.6	
754.56	6151.4	
754.74	5211.4	
754.92	7088.7	
755.1	7769.3	
755.28	4965.6	
755.46	4731.5	
755.64	8074.5	
755.82	8049.2	
755.99	4714.4	
756.17	4833.2	
756.35	5311.1	
756.53	6823.8	
756.71	3495.2	
756.89	4491.9	
757.07	6460	
757.25	5596.4	
757.42	5273.5	
757.6	6215.6	
757.78	6870.9	
757.96	5843.5	
758.14	5106.3	
758.32	4616.8	
758.5	5289.2	
758.67	6132.3	
758.85	4780	
759.03	4950.6	
759.21	6340.5	
759.39	5715.9	
759.57	4396.3	
759.75	5578.7	
759.92	6988.4	
760.1	6229.2	
760.28	6014.2	
760.46	6339.1	
760.64	6152.1	
760.82	5894.1	
760.99	5982.8	
761.17	5193.6	
761.35	7184.3	
761.53	6081.1	
761.71	5388.9	
761.89	6185.5	
762.06	7079.1	
762.24	6662	
762.42	5523.4	
762.6	5415.5	
762.78	6673	
762.96	7331.7	
763.13	6030.6	
763.31	5713.2	
763.49	7566.6	
763.67	6681.8	
763.85	6599.2	
764.02	7135.1	
764.2	7856	
764.38	7042.3	
764.56	5618.9	
764.74	6470.2	
764.91	7903.1	
765.09	6891.4	
765.27	5300.8	
765.45	5081	
765.63	7951.6	
765.8	7869	
765.98	4814.1	
766.16	5136.3	
766.34	6331.6	
766.52	6160.3	
766.69	6065.4	
766.87	4915.8	
767.05	6795.8	
767.23	7567.9	
767.41	5271.5	
767.58	5453.7	
767.76	7318.8	
767.94	7367.9	
768.12	5261.9	
768.29	6126.8	
768.47	6711.9	
768.65	7479.9	
768.83	4874.8	
769	6076.3	
769.18	6232.7	
769.36	6997.2	
769.54	6057.2	
769.72	4859.1	
769.89	7223.2	
770.07	7344.7	
770.25	5199.8	
770.43	6377.4	
770.6	7948.2	
770.78	8362.5	
770.96	5341.1	
771.14	5217.5	
771.31	7116.7	
771.49	6446.3	
771.67	4502.1	
771.85	4700.8	
772.02	5666.7	
772.2	6469.5	
772.38	5492	
772.55	4885.1	
772.73	6673	
772.91	6408.1	
773.09	5311.7	
773.26	5296	
773.44	6542.6	
773.62	6289.3	
773.8	4800.4	
773.97	4484.4	
774.15	6709.1	
774.33	6226.5	
774.5	4592.9	
774.68	4974.5	
774.86	6735.8	
775.04	6176.7	
775.21	4631.8	
775.39	4721.9	
775.57	6465.4	
775.74	6847	
775.92	4496.7	
776.1	4390.8	
776.27	6420.4	
776.45	7672.4	
776.63	4597	
776.81	4176.5	
776.98	5984.2	
777.16	7158.3	
777.34	4812	
777.51	4698	
777.69	5913.2	
777.87	5765	
778.04	4783.4	
778.22	5362.3	
778.4	5795.1	
778.57	6476.4	
778.75	3966.2	
778.93	4252.3	
779.1	5591.6	
779.28	5399.8	
779.46	3952.6	
779.64	4481	
779.81	6533	
779.99	7402.7	
780.17	5243.5	
780.34	5378.6	
780.52	5951.4	
780.69	6205.3	
780.87	4672.8	
781.05	4383.3	
781.22	5988.9	
781.4	6085.9	
781.58	4459.1	
781.75	3603.1	
781.93	6021	
782.11	5375.9	
782.28	5264.6	
782.46	4421.6	
782.64	5220.3	
782.81	6250.4	
782.99	4403.8	
783.17	4462.5	
783.34	6038.8	
783.52	5286.5	
783.69	4595	
783.87	5439.4	
784.05	5366.4	
784.22	5317.9	
784.4	5379.3	
784.58	4671.4	
784.75	6312.5	
784.93	5358.9	
785.1	4322.6	
785.28	4988.2	
785.46	6029.2	
785.63	5244.2	
785.81	4249.5	
785.99	4104.1	
786.16	5447.6	
786.34	5882.4	
786.51	4143.7	
786.69	4582.7	
786.87	5025.7	
787.04	5583.4	
787.22	4016.1	
787.39	4994.3	
787.57	5208.7	
787.75	6365.8	
787.92	5167.7	
788.1	5085.8	
788.27	5296	
788.45	5042.8	
788.63	4769.7	
788.8	3549.8	
788.98	5773.9	
789.15	4922	
789.33	3605.8	
789.5	4285.7	
789.68	6212.9	
789.86	6265.4	
790.03	4712.4	
790.21	4085	
790.38	6208.1	
790.56	5330.9	
790.73	3951.2	
790.91	4014.7	
791.09	5162.2	
791.26	5988.9	
791.44	4227	
791.61	3641.3	
791.79	5197.7	
791.96	5270.1	
792.14	3758.7	
792.32	3306.8	
792.49	5209.3	
792.67	5332.2	
792.84	3857	
793.02	3631.7	
793.19	5646.2	
793.37	6401.3	
793.54	3321.8	
793.72	3668.6	
793.89	6492.1	
794.07	5236	
794.25	4350.6	
794.42	3439.2	
794.6	6292	
794.77	5919.3	
794.95	4530.1	
795.12	4035.2	
795.3	5155.4	
795.47	5796.4	
795.65	4357.4	
795.82	4214	
796	4964.3	
796.17	6885.3	
796.35	4040.6	
796.52	4853	
796.7	5728.9	
796.87	5810.8	
797.05	4924.7	
797.22	4943.1	
797.4	5716.6	
797.57	6779.5	
797.75	4164.2	
797.92	3955.3	
798.1	6033.3	
798.27	5086.5	
798.45	3318.4	
798.62	3614	
798.8	5449.6	
798.97	5976	
799.15	4467.3	
799.32	4147.8	
799.5	4724.7	
799.67	5480.4	
799.85	4566.3	
800.02	3305.4	
800.2	5065.3	
800.37	5423	
800.55	4731.5	
800.72	3972.4	
800.9	5890.6	
801.07	6400.6	
801.25	5225.1	
801.42	4318.5	
801.6	5969.1	
801.77	5641.5	
801.95	4008.6	
802.12	3912.3	
802.29	5694	
802.47	5504.9	
802.64	4247.5	
802.82	3284.3	
802.99	5015.5	
803.17	6122.7	
803.34	4173.8	
803.52	3792.2	
803.69	6731.7	
803.87	4881.7	
804.04	4106.9	
804.21	4248.9	
804.39	6209.4	
804.56	5307.7	
804.74	3517.7	
804.91	4326	
805.09	5107.6	
805.26	5172.5	
805.44	3560.1	
805.61	3916.4	
805.78	5758.2	
805.96	5734.3	
806.13	4258.4	
806.31	4629.1	
806.48	4631.1	
806.66	5182	
806.83	4283.7	
807	4162.2	
807.18	5039.4	
807.35	5471.5	
807.53	4109.6	
807.7	3289.7	
807.87	6251.1	
808.05	5089.2	
808.22	4569	
808.4	3289	
808.57	5128.8	
808.74	4749.9	
808.92	3848.8	
809.09	4829.1	
809.27	4956.1	
809.44	5586.9	
809.61	3368.9	
809.79	3764.2	
809.96	6272.2	
810.14	5834.7	
810.31	3259.7	
810.48	4012	
810.66	5161.6	
810.83	5916.6	
811.01	3812	
811.18	4197	
811.35	5901.6	
811.53	4517.8	
811.7	4592.9	
811.87	4252.9	
812.05	5096.7	
812.22	4958.8	
812.39	3651.5	
812.57	3579.2	
812.74	5099.4	
812.92	6776.7	
813.09	4033.1	
813.26	4329.4	
813.44	6465.4	
813.61	5036.6	
813.78	3302	
813.96	4472.1	
814.13	5181.4	
814.3	4765.6	
814.48	4820.9	
814.65	4014.7	
814.82	6318.7	
815	4877.6	
815.17	4100	
815.34	4970.4	
815.52	5031.2	
815.69	5037.3	
815.87	4085	
816.04	3457.7	
816.21	5126.7	
816.38	4463.2	
816.56	3974.4	
816.73	3653.6	
816.9	6421.1	
817.08	5893.4	
817.25	3734.8	
817.42	4687.8	
817.6	4646.2	
817.77	5092.6	
817.94	4175.8	
818.12	3602.4	
818.29	4839.4	
818.46	7563.8	
818.64	3815.4	
818.81	3542.3	
818.98	4756.1	
819.16	6974	
819.33	4383.3	
819.5	4113	
819.67	5481	
819.85	6034	
820.02	4005.1	
820.19	4283	
820.37	5282.4	
820.54	4878.9	
820.71	4227.7	
820.88	5188.9	
821.06	5363.6	
821.23	4864.6	
821.4	4167.6	
821.58	4104.8	
821.75	5846.3	
821.92	5262.6	
822.09	3351.8	
822.27	3623.5	
822.44	5143.8	
822.61	4949.3	
822.79	3379.1	
822.96	6505	
823.13	5595.7	
823.3	4822.3	
823.48	3891.8	
823.65	3487.7	
823.82	5777.3	
823.99	4612.7	
824.17	4960.2	
824.34	3579.2	
824.51	6748.1	
824.68	5163.6	
824.86	3745.1	
825.03	4155.3	
825.2	5126.1	
825.37	6235.4	
825.55	3637.2	
825.72	4109.6	
825.89	6741.9	
826.06	6247	
826.24	3972.4	
826.41	3973.1	
826.58	6251.8	
826.75	5392.3	
826.92	3160	
827.1	3497.9	
827.27	8479.3	
827.44	6722.8	
827.61	3834.5	
827.79	4621.6	
827.96	4788.8	
828.13	5181.4	
828.3	3963.5	
828.47	3380.5	
828.65	5300.8	
828.82	5284.4	
828.99	5037.3	
829.16	4511.7	
829.34	5722	
829.51	5516.5	
829.68	4092.5	
829.85	4252.9	
830.02	6022.4	
830.2	5709.7	
830.37	3199.6	
830.54	5004.6	
830.71	6554.2	
830.88	5089.2	
831.05	3237.2	
831.23	3716.4	
831.4	6214.9	
831.57	7055.9	
831.74	3880.2	
831.91	3287	
832.09	5308.3	
832.26	5732.9	
832.43	3943.7	
832.6	4416.1	
832.77	5393	
832.94	6089.3	
833.12	3147.7	
833.29	3901.4	
833.46	5494.7	
833.63	7273.7	
833.8	4287.8	
833.97	3945.8	
834.15	5761.6	
834.32	5526.8	
834.49	4070.7	
834.66	4197.7	
834.83	5995.8	
835	4788.2	
835.17	3789.4	
835.35	3786.7	
835.52	5544.5	
835.69	5496.1	
835.86	4059.1	
836.03	3269.9	
836.2	5648.3	
836.37	5264	
836.55	3968.3	
836.72	3697.9	
836.89	5270.1	
837.06	5758.2	
837.23	4017.4	
837.4	4389.5	
837.57	6500.9	
837.75	7251.9	
837.92	3622.2	
838.09	3920.5	
838.26	5229.8	
838.43	5975.3	
838.6	4112.3	
838.77	3676.8	
838.94	6856.6	
839.11	6559	
839.29	3957.4	
839.46	3123.2	
839.63	5662.6	
839.8	5402.5	
839.97	3826.3	
840.14	3803.8	
840.31	5467.4	
840.48	5739.8	
840.65	3215.3	
840.82	3738.2	
841	5640.8	
841.17	5683.8	
841.34	3510.9	
841.51	3547.1	
841.68	5597.1	
841.85	5407.3	
842.02	3646.7	
842.19	3015.3	
842.36	5427.8	
842.53	5452.4	
842.7	3540.3	
842.87	4289.1	
843.05	7190.4	
843.22	5385.5	
843.39	3341.6	
843.56	3581.2	
843.73	5116.5	
843.9	5763.7	
844.07	5627.8	
844.24	4792.9	
844.41	8402.8	
844.58	4937.7	
844.75	3367.5	
844.92	3674.1	
845.09	5706.3	
845.26	5662.6	
845.43	3478.1	
845.6	3699.3	
845.77	5722	
845.94	5403.9	
846.12	3852.9	
846.29	4091.2	
846.46	5850.4	
846.63	5646.2	
846.8	3571	
846.97	4164.2	
847.14	6182.1	
847.31	5641.5	
847.48	3986.7	
847.65	4293.2	
847.82	5934.3	
847.99	5955.5	
848.16	4742.4	
848.33	4347.2	
848.5	5233.2	
848.67	6122.7	
848.84	3533.4	
849.01	3694.5	
849.18	5104.9	
849.35	4753.3	
849.52	4400.4	
849.69	3444.7	
849.86	5907.7	
850.03	6087.9	
850.2	3501.3	
850.37	4253.6	
850.54	6012.2	
850.71	5332.2	
850.88	4166.9	
851.05	3414.6	
851.22	5599.8	
851.39	6254.5	
851.56	3291.1	
851.73	4035.9	
851.9	4967.7	
852.07	5936.4	
852.24	3898.6	
852.41	3482.9	
852.58	5494	
852.75	5057.1	
852.92	3921.9	
853.09	3401	
853.26	5268.7	
853.43	6150.1	
853.6	3446.7	
853.77	2970.2	
853.94	6190.3	
854.11	5607.3	
854.28	5177.9	
854.44	3796.9	
854.61	6675	
854.78	5753.4	
854.95	3480.9	
855.12	4386.7	
855.29	4537.6	
855.46	6365.1	
855.63	3509.5	
855.8	4792.9	
855.97	5221	
856.14	6000.5	
856.31	4975.2	
856.48	3842.7	
856.65	5239.4	
856.82	4918.5	
856.99	3317	
857.16	3792.2	
857.33	6967.9	
857.49	5358.9	
857.66	3690.4	
857.83	4033.1	
858	5264.6	
858.17	5507.7	
858.34	3305.4	
858.51	3497.2	
858.68	6345.3	
858.85	6417.7	
859.02	4048.8	
859.19	4353.3	
859.36	4940.4	
859.52	5001.8	
859.69	3576.4	
859.86	4095.9	
860.03	5102.9	
860.2	6213.5	
860.37	3166.2	
860.54	3519.1	
860.71	5909.1	
860.88	6301.6	
861.05	3912.3	
861.21	4408.6	
861.38	6300.2	
861.55	4887.8	
861.72	3197.6	
861.89	3936.9	
862.06	5980.1	
862.23	6479.8	
862.4	3381.2	
862.56	3648.8	
862.73	5683.8	
862.9	5455.1	
863.07	4160.8	
863.24	3181.9	
863.41	4880.3	
863.58	4928.8	
863.75	3568.2	
863.91	4052.2	
864.08	6224.5	
864.25	5841.5	
864.42	4412.7	
864.59	4816.8	
864.76	6636.1	
864.93	5025.7	
865.09	3396.9	
865.26	3713.6	
865.43	6153.5	
865.6	6575.3	
865.77	3067.9	
865.94	3468.6	
866.1	6171.9	
866.27	5906.3	
866.44	5267.4	
866.61	3279.5	
866.78	5345.9	
866.95	5793.7	
867.11	3380.5	
867.28	3069.2	
867.45	6005.3	
867.62	5092.6	
867.79	4027	
867.96	3462.4	
868.12	5025.7	
868.29	5967.8	
868.46	3448.8	
868.63	4657.1	
868.8	6125.5	
868.97	5842.2	
869.13	3695.2	
869.3	3594.2	
869.47	5760.3	
869.64	5987.6	
869.81	3521.1	
869.97	3536.2	
870.14	5682.4	
870.31	6367.1	
870.48	3340.2	
870.65	4414.1	
870.81	5286.5	
870.98	5244.8	
871.15	3919.8	
871.32	3562.1	
871.48	5750	
871.65	6392.4	
871.82	3517	
871.99	3846.8	
872.16	6832.7	
872.32	6182.8	
872.49	3534.1	
872.66	3515.7	
872.83	5872.9	
872.99	5176.6	
873.16	4032.5	
873.33	3419.4	
873.5	5521.3	
873.67	5554.8	
873.83	3642.7	
874	4649.6	
874.17	5634	
874.34	6723.5	
874.5	4496	
874.67	4315.1	
874.84	6303.6	
875.01	4935.6	
875.17	4909	
875.34	3501.3	
875.51	5560.2	
875.68	6744.6	
875.84	4222.2	
876.01	5127.4	
876.18	5875.6	
876.34	5819.6	
876.51	3527.3	
876.68	3420.1	
876.85	5360.2	
877.01	6103.6	
877.18	4999.8	
877.35	3444.7	
877.52	5477.6	
877.68	4901.5	
877.85	3355.9	
878.02	3416.7	
878.18	5491.3	
878.35	5081.7	
878.52	2820.7	
878.69	3923.2	
878.85	5933.6	
879.02	5874.3	
879.19	4994.3	
879.35	3757.3	
879.52	5776	
879.69	6038.1	
879.86	3006.4	
880.02	3915.7	
880.19	5438	
880.36	6673.6	
880.52	3977.2	
880.69	4110.3	
880.86	5963.7	
881.02	6043.6	
881.19	3800.3	
881.36	3725.9	
881.52	5788.2	
881.69	5182	
881.86	3753.2	
882.02	3704.1	
882.19	6145.3	
882.36	7206.8	
882.52	3607.2	
882.69	4876.2	
882.86	5653.8	
883.02	5536.3	
883.19	4207.2	
883.36	4017.4	
883.52	5898.8	
883.69	6847	
883.86	3482.9	
884.02	3150.5	
884.19	5940.5	
884.36	5455.8	
884.52	3984	
884.69	3667.2	
884.86	5213.4	
885.02	6496.8	
885.19	3860.4	
885.36	4018.8	
885.52	5500.8	
885.69	5585.5	
885.86	5038	
886.02	4399.7	
886.19	5907.7	
886.35	5283.8	
886.52	3864.5	
886.69	4827.7	
886.85	5026.4	
887.02	6259.3	
887.19	6259.3	
887.35	6259.3	
887.52	6259.3	
887.68	6259.3	
887.85	6259.3	
888.02	6259.3	
888.18	6259.3	
888.35	6259.3	
888.51	6259.3	
888.68	6259.3	
888.85	6259.3	
889.01	6259.3	
889.18	6259.3	
889.35	6259.3	
889.51	6259.3	
889.68	6259.3	
889.84	6259.3	
890.01	6259.3	
890.17	6259.3	
890.34	6259.3	
890.51	6259.3	
890.67	6259.3	
890.84	6259.3	
891	6259.3	
891.17	6259.3	
891.34	6259.3	
891.5	6259.3	
891.67	6259.3	
891.83	6259.3	
892	6259.3	
892.16	6259.3	
892.33	6259.3	
892.5	6259.3	
892.66	6259.3	
892.83	6259.3	
892.99	6259.3	
893.16	6259.3	
893.32	6259.3	
893.49	6259.3	
893.65	6259.3	
893.82	6259.3	
893.99	6259.3	
894.15	6259.3	
894.32	6259.3	
894.48	6259.3	
894.65	6259.3	
894.81	6259.3	
894.98	6259.3	
895.14	6259.3	
895.31	6259.3	
895.47	6259.3	
895.64	6259.3	
895.81	6259.3	
895.97	6259.3	
896.14	6259.3	
896.3	6259.3	
896.47	6259.3	
896.63	6259.3	
896.8	6259.3	
896.96	6259.3	
897.13	6259.3	
897.29	6259.3	
897.46	6259.3	
897.62	6259.3	
897.79	6259.3	
897.95	6259.3	
898.12	6259.3	
898.28	6259.3	
898.45	6259.3	
898.61	6259.3	
898.78	6259.3	
898.94	6259.3	
899.11	6259.3	
899.27	6259.3	
899.44	6259.3	
899.6	6259.3	
899.77	6259.3	
899.93	6259.3	
900.1	6259.3	
900.26	6259.3	
900.43	6259.3	
900.59	6259.3	
900.76	6259.3	
900.92	6259.3	
901.09	6259.3	
901.25	6259.3	
901.42	6259.3	
901.58	6259.3	
901.75	6259.3	
901.91	6259.3	
902.07	6259.3	
902.24	6259.3	
902.4	6259.3	
902.57	6259.3	
902.73	6259.3	
902.9	6259.3	
903.06	6259.3	
903.23	6259.3	
903.39	6259.3	
903.56	6259.3	
903.72	6259.3	
903.88	6259.3	
904.05	6259.3	
904.21	6259.3	
904.38	6259.3	
904.54	6259.3	
904.71	6259.3	
904.87	6259.3	
905.03	6259.3	
905.2	6259.3	
905.36	6259.3	
905.53	6259.3	
905.69	6259.3	
905.86	6259.3	
906.02	6259.3	
906.18	6259.3	
906.35	6259.3	
906.51	6259.3	
906.68	6259.3	
906.84	6259.3	
907.01	6259.3	
907.17	6259.3	
907.33	6259.3	
907.5	6259.3	
907.66	6259.3	
907.83	6259.3	
907.99	6259.3	
908.15	6259.3	
908.32	6259.3	
908.48	6259.3	
908.65	6259.3	
908.81	6259.3	
908.97	6259.3	
909.14	6259.3	
909.3	6259.3	
909.47	6259.3	
909.63	6259.3	
909.79	6259.3	
909.96	6259.3	
910.12	6259.3	
910.28	6259.3	
910.45	6259.3	
910.61	6259.3	
910.78	6259.3	
910.94	6259.3	
911.1	6259.3	
911.27	6259.3	
911.43	6259.3	
911.59	6259.3	
911.76	6259.3	
911.92	6259.3	
912.08	6259.3	
912.25	6259.3	
912.41	6259.3	
912.57	6259.3	
912.74	6259.3	
912.9	6259.3	
913.07	6259.3	
913.23	6259.3	
913.39	6259.3	
913.56	6259.3	
913.72	6259.3	
913.88	6259.3	
914.05	6259.3	
914.21	6259.3	
914.37	6259.3	
914.54	6259.3	
914.7	6259.3	
914.86	6259.3	
915.03	6259.3	
915.19	6259.3	
