Wavelength	Intensities	
nm	a.u.	
179.22	1950.5	
179.44	1939.1	
179.65	1962	
179.86	1916.2	
180.08	1967.4	
180.29	5002.5	
180.51	3518.4	
180.72	5745.2	
180.94	6774	
181.15	3342.3	
181.37	3190.7	
181.58	5574.6	
181.79	5864	
182.01	3426.3	
182.22	3747.8	
182.44	5831.9	
182.65	4900.8	
182.87	4671.4	
183.08	4011.3	
183.29	6130.3	
183.51	5023.7	
183.72	3736.9	
183.94	5511.8	
184.15	5451.7	
184.37	5517.2	
184.58	3272	
184.79	4460.5	
185.01	5056.4	
185.22	5862	
185.44	4868	
185.65	3981.3	
185.86	5392.3	
186.08	4932.2	
186.29	3175	
186.51	3454.2	
186.72	5102.9	
186.94	5998.5	
187.15	3985.3	
187.36	4101.4	
187.58	7893.6	
187.79	5533.6	
188.01	4278.9	
188.22	6662	
188.43	6674.3	
188.65	5864.7	
188.86	3413.3	
189.08	4108.9	
189.29	5296.7	
189.5	5287.2	
189.72	3793.5	
189.93	3933.5	
190.15	6075	
190.36	7292.8	
190.57	4220.2	
190.79	4046.1	
191	6161	
191.22	6124.8	
191.43	4237.9	
191.64	3374.4	
191.86	6379.4	
192.07	6046.3	
192.29	3586.7	
192.5	3834.5	
192.71	6092	
192.93	5184.1	
193.14	3764.8	
193.35	3844.7	
193.57	5240.1	
193.78	5986.9	
194	2995.5	
194.21	3720.5	
194.42	5008.6	
194.64	5537	
194.85	4079.6	
195.07	4823.6	
195.28	5504.9	
195.49	4762.9	
195.71	5068	
195.92	3561.4	
196.13	5701.5	
196.35	5852.4	
196.56	5421	
196.78	4119.8	
196.99	7164.5	
197.2	6659.3	
197.42	4670.7	
197.63	4139.6	
197.84	4885.8	
198.06	5724.1	
198.27	3803.8	
198.48	5168.4	
198.7	5232.6	
198.91	5369.1	
199.13	4113.7	
199.34	4132.8	
199.55	5896.1	
199.77	4737.6	
199.98	3654.9	
200.19	4220.2	
200.41	5442.8	
200.62	5052.3	
200.83	4341	
201.05	4658.4	
201.26	5446.2	
201.47	5118.6	
201.69	3683.6	
201.9	3548.4	
202.11	5496.1	
202.33	6509.1	
202.54	3895.2	
202.76	4436.6	
202.97	5584.8	
203.18	5606.7	
203.4	4338.3	
203.61	4209.3	
203.82	5513.8	
204.04	5148.6	
204.25	4223.6	
204.46	4130.8	
204.68	5465.3	
204.89	5759.6	
205.1	4025.6	
205.32	3508.9	
205.53	5945.3	
205.74	6065.4	
205.96	2957.3	
206.17	4177.9	
206.38	5874.9	
206.6	6068.8	
206.81	4797.7	
207.02	3881.6	
207.24	5756.8	
207.45	6201.2	
207.66	3935.5	
207.88	3366.2	
208.09	5657.9	
208.3	5502.2	
208.52	3633.8	
208.73	4047.5	
208.94	5520.6	
209.15	6244.3	
209.37	3928	
209.58	4126.7	
209.79	6038.8	
210.01	5292	
210.22	3135.4	
210.43	3315.7	
210.65	5477	
210.86	5958.2	
211.07	3960.1	
211.29	3640.6	
211.5	5854.5	
211.71	5412.1	
211.93	3655.6	
212.14	3577.8	
212.35	5356.8	
212.56	5726.8	
212.78	4128	
212.99	3489.1	
213.2	6443.6	
213.42	5216.2	
213.63	3678.2	
213.84	4044.1	
214.06	4829.8	
214.27	4949.3	
214.48	3878.9	
214.69	4254.3	
214.91	6197.8	
215.12	6313.2	
215.33	4263.9	
215.55	4678.2	
215.76	6756.2	
215.97	5813.5	
216.18	4119.8	
216.4	3992.2	
216.61	5149.3	
216.82	5955.5	
217.04	3584.6	
217.25	3734.1	
217.46	6134.3	
217.67	5864.7	
217.89	3268.6	
218.1	3336.1	
218.31	5550.7	
218.53	5735.7	
218.74	3817.4	
218.95	3714.3	
219.16	5431.2	
219.38	6451.8	
219.59	3695.2	
219.8	4447.5	
220.01	7185	
220.23	5545.2	
220.44	4958.8	
220.65	3586.7	
220.87	5547.9	
221.08	6182.1	
221.29	3357.3	
221.5	4545.8	
221.72	7564.5	
221.93	5150.6	
222.14	4182	
222.35	4941.7	
222.57	5530.9	
222.78	5879.7	
222.99	3917.1	
223.2	4261.1	
223.42	5835.3	
223.63	5973.2	
223.84	3031.7	
224.05	3011.9	
224.27	7069.6	
224.48	6422.4	
224.69	4938.3	
224.9	4176.5	
225.12	5705.6	
225.33	5453.7	
225.54	3293.8	
225.75	3660.4	
225.97	5042.1	
226.18	5278.3	
226.39	4007.9	
226.6	3739.6	
226.82	5261.2	
227.03	5072.8	
227.24	4158.7	
227.45	3439.9	
227.67	5888.6	
227.88	6519.4	
228.09	4698	
228.3	4697.4	
228.52	5947.3	
228.73	5479	
228.94	3810.6	
229.15	3398.9	
229.36	5370.5	
229.58	5313.1	
229.79	3894.6	
230	4528.7	
230.21	6569.9	
230.43	5611.4	
230.64	4127.3	
230.85	4291.2	
231.06	5907	
231.28	5892	
231.49	3433.8	
231.7	3999.7	
231.91	5790.3	
232.12	5572.5	
232.34	3543.7	
232.55	4089.1	
232.76	6147.3	
232.97	5702.9	
233.18	3641.3	
233.4	4113.7	
233.61	5745.2	
233.82	5195.7	
234.03	3809.9	
234.25	3745.1	
234.46	7659.4	
234.67	5593	
234.88	4229.1	
235.09	3684.3	
235.31	5871.5	
235.52	5330.2	
235.73	4114.4	
235.94	3452.2	
236.15	5222.3	
236.37	6774.7	
236.58	3617.4	
236.79	3991.5	
237	5837.4	
237.21	5012.7	
237.43	4286.4	
237.64	3352.5	
237.85	10056	
238.06	4994.3	
238.27	4387.4	
238.48	3427.6	
238.7	5798.5	
238.91	5373.2	
239.12	3947.1	
239.33	3983.3	
239.54	5081.7	
239.76	5392.3	
239.97	3852.9	
240.18	3942.3	
240.39	6959	
240.6	5783.5	
240.82	4096.6	
241.03	3351.2	
241.24	5442.8	
241.45	6365.1	
241.66	3590.8	
241.87	4335.5	
242.09	6179.4	
242.3	6664.1	
242.51	4326	
242.72	3988.1	
242.93	5971.2	
243.14	5378.6	
243.36	4604.5	
243.57	5000.5	
243.78	6453.8	
243.99	5882.4	
244.2	3977.2	
244.41	3665.9	
244.63	5067.4	
244.84	5814.9	
245.05	4276.2	
245.26	3997.6	
245.47	5786.2	
245.68	6097.5	
245.9	5326.1	
246.11	4173.8	
246.32	5316.5	
246.53	5756.8	
246.74	6472.9	
246.95	3335.5	
247.16	4971.1	
247.38	5518.6	
247.59	3296.5	
247.8	3969.6	
248.01	5155.4	
248.22	5431.9	
248.43	3634.5	
248.64	3875.4	
248.86	4793.6	
249.07	5244.2	
249.28	3483.6	
249.49	4102.8	
249.7	6004	
249.91	6158.2	
250.12	3324.5	
250.34	3392.1	
250.55	5614.2	
250.76	5471.5	
250.97	4073.4	
251.18	4123.2	
251.39	6203.3	
251.6	5662.6	
251.81	4259.8	
252.03	4233.2	
252.24	5185.5	
252.45	6012.2	
252.66	3455.6	
252.87	4439.3	
253.08	5578.7	
253.29	7275.1	
253.5	3457	
253.72	4916.5	
253.93	5296.7	
254.14	6591.7	
254.35	3810.6	
254.56	3897.3	
254.77	5771.9	
254.98	5113.1	
255.19	3707.5	
255.41	4776.5	
255.62	5556.8	
255.83	6126.2	
256.04	4274.1	
256.25	4236.6	
256.46	6832	
256.67	5143.8	
256.88	4122.6	
257.09	4631.1	
257.31	5185.5	
257.52	5210.7	
257.73	5222.3	
257.94	3726.6	
258.15	5365.7	
258.36	5558.9	
258.57	4807.3	
258.78	2992.1	
258.99	6073.6	
259.2	5347.9	
259.41	3791.5	
259.63	3890.5	
259.84	6342.6	
260.05	6836.8	
260.26	5043.5	
260.47	3728	
260.68	6094.8	
260.89	5397.1	
261.1	4636.6	
261.31	3637.2	
261.52	6098.2	
261.73	6468.2	
261.95	4911.7	
262.16	4328.7	
262.37	6247	
262.58	6305.7	
262.79	4878.9	
263	3835.2	
263.21	5526.8	
263.42	4992.3	
263.63	3919.8	
263.84	3852.9	
264.05	5996.5	
264.26	6403.3	
264.47	4760.2	
264.69	4279.6	
264.9	6231.3	
265.11	5727.5	
265.32	3676.8	
265.53	3768.9	
265.74	5644.2	
265.95	4915.1	
266.16	4060.4	
266.37	4463.2	
266.58	5614.8	
266.79	5357.5	
267	3773	
267.21	3439.2	
267.42	5076.2	
267.63	5493.3	
267.84	3958.7	
268.06	3394.2	
268.27	6015.6	
268.48	6247.7	
268.69	3855	
268.9	4607.2	
269.11	6191	
269.32	4985.4	
269.53	3929.4	
269.74	3661.1	
269.95	5842.9	
270.16	4821.6	
270.37	4014.7	
270.58	4581.3	
270.79	5342.5	
271	6066.8	
271.21	4306.9	
271.42	4004.5	
271.63	5637.4	
271.84	5143.8	
272.05	3204.4	
272.26	3564.8	
272.47	5548.6	
272.68	5726.1	
272.89	3786.7	
273.11	4457.1	
273.32	5303.6	
273.53	6519.4	
273.74	4331.5	
273.95	4179.2	
274.16	6155.5	
274.37	5593.7	
274.58	4317.1	
274.79	3397.6	
275	5632.6	
275.21	6271.6	
275.42	5185.5	
275.63	4513	
275.84	5785.5	
276.05	7297.6	
276.26	4223.6	
276.47	3903.4	
276.68	5273.5	
276.89	6564.4	
277.1	4548.5	
277.31	3460.4	
277.52	5812.8	
277.73	5941.2	
277.94	3466.5	
278.15	3855	
278.36	5723.4	
278.57	5144.5	
278.78	3824.2	
278.99	4249.5	
279.2	5102.2	
279.41	5077.6	
279.62	5062.6	
279.83	3523.9	
280.04	6779.5	
280.25	4977.9	
280.46	4999.8	
280.67	3971.7	
280.88	5145.9	
281.09	6153.5	
281.3	4187.4	
281.51	5302.2	
281.72	5196.4	
281.93	6058.6	
282.14	3762.8	
282.35	4067.3	
282.56	6016.9	
282.77	6023.1	
282.98	3850.9	
283.19	4692.6	
283.4	7437.5	
283.61	5421.7	
283.82	3429	
284.03	5028.4	
284.24	5585.5	
284.45	6199.2	
284.66	4915.1	
284.87	4826.4	
285.08	6100.9	
285.29	6268.8	
285.5	3386	
285.71	3908.9	
285.92	6163.7	
286.12	6850.5	
286.33	4940.4	
286.54	3848.8	
286.75	6019	
286.96	5375.9	
287.17	3537.5	
287.38	4859.8	
287.59	5083.7	
287.8	5022.3	
288.01	3885.7	
288.22	4509.6	
288.43	6075.6	
288.64	5063.3	
288.85	4655.7	
289.06	4457.7	
289.27	5964.4	
289.48	6535.1	
289.69	4932.9	
289.9	4547.9	
290.11	6195.1	
290.32	5152	
290.53	4725.3	
290.74	4345.8	
290.94	5976	
291.15	6036	
291.36	3714.3	
291.57	4472.8	
291.78	5229.8	
291.99	4913.1	
292.2	3593.5	
292.41	4362.2	
292.62	6098.2	
292.83	5838.1	
293.04	5365.7	
293.25	3557.3	
293.46	5324	
293.67	6126.8	
293.88	3730.7	
294.09	3598.3	
294.29	5001.1	
294.5	5682.4	
294.71	4046.1	
294.92	3824.9	
295.13	5266.7	
295.34	6611.5	
295.55	3321.8	
295.76	3449.5	
295.97	5898.8	
296.18	6675	
296.39	3547.8	
296.6	3736.2	
296.81	5573.2	
297.01	5933.6	
297.22	3859.7	
297.43	3706.1	
297.64	5123.3	
297.85	5117.2	
298.06	3107.5	
298.27	3374.4	
298.48	5545.2	
298.69	5203.9	
298.9	4055	
299.11	3633.1	
299.31	5008.6	
299.52	5002.5	
299.73	4345.8	
299.94	4256.4	
300.15	5508.4	
300.36	5117.9	
300.57	4270.7	
300.78	4242.7	
300.99	5470.8	
301.2	5638.7	
301.4	3678.8	
301.61	4029	
301.82	5792.3	
302.03	5945.3	
302.24	4544.4	
302.45	3519.8	
302.66	5811.5	
302.87	6309.8	
303.08	3747.1	
303.29	5201.2	
303.49	5245.5	
303.7	5547.3	
303.91	3267.2	
304.12	4918.5	
304.33	4988.2	
304.54	5655.8	
304.75	3747.1	
304.96	3623.5	
305.16	5835.3	
305.37	6605.4	
305.58	3282.9	
305.79	3355.9	
306	5779.4	
306.21	4913.8	
306.42	3658.4	
306.63	5864.7	
306.83	5378.6	
307.04	6164.4	
307.25	4145.8	
307.46	4100	
307.67	4726	
307.88	5975.3	
308.09	3618.1	
308.29	3871.3	
308.5	5603.9	
308.71	6121.4	
308.92	3949.2	
309.13	3605.1	
309.34	5340.4	
309.55	5446.2	
309.75	4650.9	
309.96	4279.6	
310.17	5970.5	
310.38	5175.2	
310.59	4470.7	
310.8	4237.2	
311.01	5363.6	
311.21	5341.1	
311.42	3538.2	
311.63	3648.8	
311.84	5246.2	
312.05	5703.6	
312.26	4199	
312.46	4579.3	
312.67	5338.4	
312.88	5022.3	
313.09	3637.9	
313.3	3487.7	
313.51	6283.9	
313.71	6743.3	
313.92	3607.2	
314.13	3807.2	
314.34	5776.6	
314.55	5451	
314.76	4700.1	
314.96	4060.4	
315.17	5590.3	
315.38	5967.1	
315.59	3630.4	
315.8	3450.8	
316.01	6434.7	
316.21	6464.8	
316.42	3463.8	
316.63	3987.4	
316.84	5385.5	
317.05	6208.8	
317.26	4311	
317.46	3850.2	
317.67	5497.4	
317.88	5900.2	
318.09	4593.6	
318.3	3346.4	
318.5	5218.2	
318.71	5811.5	
318.92	5867.4	
319.13	4317.1	
319.34	6053.1	
319.54	6165.8	
319.75	3394.2	
319.96	3241.9	
320.17	5917.3	
320.38	6098.2	
320.58	3225.6	
320.79	3935.5	
321	6154.8	
321.21	6198.5	
321.42	3990.1	
321.62	3276.1	
321.83	5055.8	
322.04	5612.8	
322.25	3779.9	
322.46	3626.3	
322.66	5602.6	
322.87	5745.9	
323.08	4515.8	
323.29	3574.4	
323.5	6658.6	
323.7	5033.9	
323.91	4863.2	
324.12	4448.2	
324.33	5581.4	
324.53	5786.9	
324.74	4313.7	
324.95	4504.8	
325.16	4896.7	
325.37	5327.4	
325.57	3631	
325.78	3650.2	
325.99	5529.5	
326.2	4956.1	
326.4	5255.8	
326.61	3346.4	
326.82	5468.1	
327.03	5627.1	
327.24	5179.3	
327.44	4990.2	
327.65	5737.7	
327.86	4703.5	
328.07	4277.5	
328.27	3489.1	
328.48	6262	
328.69	5073.5	
328.9	5240.1	
329.1	3879.5	
329.31	5432.6	
329.52	6354.2	
329.73	3642	
329.93	4013.3	
330.14	5526.8	
330.35	5792.3	
330.56	5905.7	
330.76	4431.8	
330.97	5343.2	
331.18	5708.4	
331.39	3979.9	
331.59	3203	
331.8	6111.8	
332.01	6298.9	
332.22	3741.6	
332.42	4222.9	
332.63	5681.7	
332.84	5237.3	
333.05	4063.9	
333.25	3674.7	
333.46	5280.3	
333.67	5548.6	
333.88	3715.7	
334.08	4208.6	
334.29	7319.4	
334.5	6193.1	
334.7	3463.8	
334.91	5124.7	
335.12	5020.3	
335.33	5949.3	
335.53	3947.8	
335.74	5986.2	
335.95	5221.6	
336.16	5107	
336.36	4018.8	
336.57	4604.5	
336.78	5021.6	
336.98	6175.3	
337.19	4970.4	
337.4	3925.3	
337.61	6689.3	
337.81	5014.8	
338.02	3738.9	
338.23	4756.7	
338.43	6313.2	
338.64	5172.5	
338.85	3589.4	
339.05	4841.4	
339.26	6298.2	
339.47	4941.7	
339.68	3631	
339.88	5400.5	
340.09	5711.1	
340.3	6010.1	
340.5	4240	
340.71	3221.5	
340.92	4967.7	
341.13	6322.1	
341.33	3476.8	
341.54	4278.2	
341.75	5776	
341.95	5411.4	
342.16	4083	
342.37	4422.9	
342.57	5089.9	
342.78	5474.2	
342.99	4579.9	
343.19	3222.1	
343.4	5953.4	
343.61	5778	
343.81	3837.2	
344.02	3584.6	
344.23	5931.6	
344.43	6394.4	
344.64	4549.9	
344.85	4422.9	
345.06	5782.8	
345.26	6137.1	
345.47	4254.3	
345.68	4974.5	
345.88	4851	
346.09	6034.7	
346.3	4329.4	
346.5	3226.9	
346.71	5516.5	
346.92	5184.8	
347.12	3255.6	
347.33	4179.9	
347.54	6077	
347.74	6580.8	
347.95	4131.4	
348.16	3061	
348.36	5270.8	
348.57	5110.4	
348.78	4123.2	
348.98	4453	
349.19	5515.9	
349.39	4926.7	
349.6	3294.5	
349.81	3689.1	
350.01	5761.6	
350.22	5204.6	
350.43	3999	
350.63	4848.9	
350.84	5603.9	
351.05	5261.9	
351.25	3663.1	
351.46	3258.3	
351.67	6098.9	
351.87	5210	
352.08	3821.5	
352.29	4455.7	
352.49	6039.5	
352.7	5597.1	
352.9	3538.2	
353.11	4452.3	
353.32	6649.1	
353.52	5292.6	
353.73	3482.2	
353.94	4486.4	
354.14	5831.9	
354.35	5655.1	
354.55	3609.2	
354.76	4054.3	
354.97	5771.9	
355.17	5568.4	
355.38	3332	
355.59	4693.9	
355.79	5175.2	
356	5582.1	
356.2	3963.5	
356.41	3376.4	
356.62	4866.7	
356.82	5394.3	
357.03	4225	
357.24	3826.3	
357.44	5193	
357.65	5288.5	
357.85	5165.7	
358.06	3990.1	
358.27	4881.7	
358.47	5134.9	
358.68	3331.4	
358.88	4212	
359.09	5758.9	
359.3	6165.8	
359.5	4960.2	
359.71	4339.6	
359.91	6593.1	
360.12	5932.3	
360.33	4147.8	
360.53	4716.5	
360.74	5154.1	
360.94	5222.3	
361.15	4399.7	
361.36	3554.6	
361.56	6013.5	
361.77	5431.2	
361.97	4885.8	
362.18	3811.3	
362.38	5948	
362.59	4987.5	
362.8	3526.6	
363	3401.7	
363.21	4816.8	
363.41	5521.3	
363.62	4063.2	
363.83	5215.5	
364.03	5601.2	
364.24	6677.7	
364.44	5176.6	
364.65	5132.2	
364.85	5363.6	
365.06	4958.1	
365.27	3677.5	
365.47	3745.7	
365.68	6391	
365.88	5272.8	
366.09	4174.4	
366.29	3777.1	
366.5	5562.3	
366.71	5980.1	
366.91	5117.9	
367.12	4278.2	
367.32	6613.6	
367.53	5784.1	
367.73	4253.6	
367.94	5244.2	
368.14	5782.8	
368.35	6746	
368.56	4136.9	
368.76	3536.8	
368.97	5936.4	
369.17	7706.5	
369.38	3747.8	
369.58	3979.2	
369.79	4903.5	
369.99	6313.9	
370.2	5036	
370.4	4059.8	
370.61	5668.1	
370.82	6754.2	
371.02	3906.8	
371.23	3252.2	
371.43	4842.8	
371.64	6172.6	
371.84	4020.2	
372.05	5276.3	
372.25	7520.1	
372.46	5923.4	
372.66	3987.4	
372.87	3999.7	
373.07	5923.4	
373.28	7609.6	
373.48	4995	
373.69	4688.5	
373.9	5353.4	
374.1	5460.6	
374.31	4949.9	
374.51	4445.5	
374.72	6294.1	
374.92	5053	
375.13	5130.2	
375.33	4282.3	
375.54	5787.6	
375.74	5231.9	
375.95	4321.9	
376.15	5623	
376.36	5829.9	
376.56	5617.6	
376.77	4356	
376.97	4913.1	
377.18	6883.9	
377.38	5893.4	
377.59	5244.2	
377.79	3808.5	
378	5737.7	
378.2	6097.5	
378.41	3942.3	
378.61	3773.7	
378.82	6167.1	
379.02	5230.5	
379.23	4014	
379.43	5239.4	
379.64	6166.4	
379.84	5803.9	
380.05	3895.2	
380.25	3815.4	
380.46	5965.7	
380.66	5540.4	
380.87	5274.2	
381.07	5721.3	
381.28	6481.8	
381.48	5955.5	
381.69	3965.6	
381.89	3903.4	
382.1	4800.4	
382.3	6157.6	
382.51	5083.1	
382.71	5995.1	
382.91	5935.7	
383.12	6468.9	
383.32	4246.8	
383.53	4525.3	
383.73	5785.5	
383.94	5506.3	
384.14	4383.3	
384.35	3492.5	
384.55	5483.1	
384.76	5957.5	
384.96	4258.4	
385.17	4595	
385.37	5965.7	
385.58	5163.6	
385.78	4707.6	
385.98	3444	
386.19	5438.7	
386.39	5791.7	
386.6	4022.9	
386.8	4308.2	
387.01	5938.4	
387.21	5976	
387.42	4805.2	
387.62	5384.8	
387.83	5248.3	
388.03	5911.8	
388.23	4315.8	
388.44	5195.7	
388.64	4842.8	
388.85	5034.6	
389.05	4682.3	
389.26	5277.6	
389.46	6645.7	
389.67	6335.7	
389.87	4593.6	
390.07	4689.8	
390.28	5540.4	
390.48	5124	
390.69	3893.9	
390.89	4251.6	
391.1	5296	
391.3	6294.1	
391.5	5409.4	
391.71	6074.3	
391.91	5956.2	
392.12	6990.4	
392.32	5494	
392.53	4681	
392.73	5326.1	
392.93	5528.8	
393.14	4336.9	
393.34	5083.7	
393.55	6084.5	
393.75	5473.5	
393.95	4356	
394.16	4242	
394.36	5294	
394.57	6030.6	
394.77	3790.1	
394.98	4274.8	
395.18	5214.8	
395.38	5418.2	
395.59	5123.3	
395.79	3999.7	
396	5310.4	
396.2	5864	
396.4	4855.1	
396.61	4762.9	
396.81	6068.8	
397.02	5259.9	
397.22	5077.6	
397.42	5191.6	
397.63	6067.4	
397.83	5190.2	
398.04	3951.9	
398.24	4479.6	
398.44	5763.7	
398.65	4862.6	
398.85	3816.7	
399.05	3900.7	
399.26	5198.4	
399.46	7006.8	
399.67	4265.2	
399.87	3984.7	
400.07	5554.8	
400.28	5968.5	
400.48	4119.8	
400.69	5281.7	
400.89	6625.9	
401.09	6600.6	
401.3	3932.8	
401.5	5156.8	
401.7	6859.3	
401.91	7049.1	
402.11	4317.8	
402.32	4502.8	
402.52	6140.5	
402.72	6050.4	
402.93	4747.9	
403.13	3517.7	
403.33	6874.3	
403.54	5632.6	
403.74	4523.3	
403.94	5428.5	
404.15	5711.8	
404.35	7012.2	
404.56	4302.8	
404.76	6304.3	
404.96	6223.1	
405.17	6002.6	
405.37	5721.3	
405.57	4808.6	
405.78	6208.8	
405.98	5602.6	
406.18	4239.3	
406.39	5191.6	
406.59	6091.3	
406.79	5715.9	
407	4007.9	
407.2	4248.9	
407.4	6215.6	
407.61	6404	
407.81	4214	
408.01	6730.3	
408.22	5217.5	
408.42	7229.3	
408.62	5287.2	
408.83	4763.6	
409.03	5762.3	
409.23	5563	
409.44	4776.5	
409.64	5094.7	
409.84	6654.5	
410.05	6504.3	
410.25	4866	
410.45	4674.8	
410.66	5932.3	
410.86	8568	
411.06	4990.9	
411.27	4924.7	
411.47	8239.7	
411.67	6183.5	
411.88	5141.1	
412.08	5407.3	
412.28	6668.9	
412.49	7304.4	
412.69	4803.9	
412.89	4900.8	
413.09	7019.1	
413.3	6882.5	
413.5	4921.3	
413.7	4477.5	
413.91	6129.6	
414.11	7072.3	
414.31	4744.5	
414.52	5236.7	
414.72	6672.3	
414.92	6533.7	
415.12	4774.5	
415.33	5290.6	
415.53	6868.2	
415.73	7126.2	
415.94	5644.2	
416.14	5094	
416.34	5808.7	
416.55	5651.7	
416.75	6307.7	
416.95	5678.3	
417.15	6876.4	
417.36	7748.8	
417.56	6530.3	
417.76	5491.3	
417.97	7219.8	
418.17	6922.1	
418.37	5012.1	
418.57	5060.5	
418.78	6651.1	
418.98	6363.7	
419.18	5968.5	
419.38	5911.8	
419.59	6384.2	
419.79	6019.7	
419.99	5015.5	
420.2	5398.4	
420.4	6938.5	
420.6	7176.8	
420.8	4823.6	
421.01	4658.4	
421.21	6755.6	
421.41	6980.2	
421.61	5279.7	
421.82	5000.5	
422.02	6138.4	
422.22	7170.6	
422.42	5808	
422.63	5496.7	
422.83	6357.6	
423.03	7533.8	
423.23	5499.5	
423.44	4341	
423.64	6456.6	
423.84	6224.5	
424.04	4861.2	
424.25	4517.1	
424.45	7389.1	
424.65	7340.6	
424.85	4379.2	
425.06	4945.8	
425.26	7299.6	
425.46	5921.4	
425.66	5396.4	
425.87	5036	
426.07	7176.8	
426.27	6956.3	
426.47	5281	
426.67	4599.7	
426.88	7536.5	
427.08	6928.3	
427.28	5436	
427.48	4622.9	
427.69	5748	
427.89	6485.2	
428.09	5459.9	
428.29	4600.4	
428.5	7234.8	
428.7	6607.4	
428.9	4470.7	
429.1	5134.3	
429.3	6555.5	
429.51	7030	
429.71	4903.5	
429.91	5677.7	
430.11	6815	
430.31	7423.2	
430.52	5111	
430.72	5437.4	
430.92	7464.8	
431.12	6916.7	
431.32	4762.9	
431.53	5172.5	
431.73	5718.6	
431.93	7533.1	
432.13	4715.1	
432.33	4504.2	
432.54	6238.1	
432.74	6651.1	
432.94	4411.3	
433.14	5614.2	
433.34	6783.6	
433.55	6319.3	
433.75	5466.7	
433.95	7253.2	
434.15	6578.8	
434.35	6204.7	
434.56	4681.7	
434.76	4182.6	
434.96	6545.3	
435.16	6740.5	
435.36	4521.9	
435.56	5688.6	
435.77	6171.2	
435.97	6369.9	
436.17	6421.1	
436.37	5672.9	
436.57	6167.8	
436.78	6057.2	
436.98	6153.5	
437.18	6212.9	
437.38	6716.7	
437.58	6298.9	
437.78	6352.1	
437.99	4858.5	
438.19	6851.1	
438.39	7722.2	
438.59	4846.9	
438.79	4425.7	
438.99	7583.6	
439.2	6369.2	
439.4	4637.3	
439.6	4547.9	
439.8	6773.3	
440	7914.7	
440.2	5563	
440.4	5672.2	
440.61	7064.8	
440.81	7609.6	
441.01	4669.4	
441.21	5533.6	
441.41	7410.2	
441.61	7048.4	
441.81	5770.5	
442.02	7032.7	
442.22	7903.8	
442.42	7157.7	
442.62	4689.8	
442.82	4833.9	
443.02	7475.8	
443.22	6537.8	
443.43	5201.2	
443.63	4734.2	
443.83	6223.8	
444.03	6387.6	
444.23	5948	
444.43	5651.7	
444.63	6592.4	
444.83	7940.7	
445.04	4682.3	
445.24	6150.7	
445.44	7019.8	
445.64	7107.1	
445.84	5629.9	
446.04	5588.9	
446.24	6339.1	
446.44	7499.7	
446.65	4844.1	
446.85	5259.9	
447.05	6574	
447.25	7434.1	
447.45	5350	
447.65	4666.6	
447.85	6705.7	
448.05	6367.1	
448.25	5754.1	
448.46	5551.4	
448.66	6675.7	
448.86	6393.8	
449.06	4532.8	
449.26	5791.7	
449.46	7094.2	
449.66	6032	
449.86	5202.5	
450.06	5199.8	
450.26	6257.9	
450.47	6845	
450.67	5485.1	
450.87	5783.5	
451.07	6952.9	
451.27	6750.1	
451.47	4776.5	
451.67	5379.3	
451.87	6393.8	
452.07	7594.6	
452.27	4954	
452.47	4965.6	
452.67	6705	
452.88	7382.9	
453.08	4308.9	
453.28	6384.9	
453.48	7865.6	
453.68	6657.3	
453.88	4866	
454.08	5153.4	
454.28	6993.8	
454.48	6678.4	
454.68	5756.2	
454.88	6219	
455.08	7140.6	
455.28	6809.5	
455.48	4779.3	
455.68	5310.4	
455.89	7580.9	
456.09	7260	
456.29	5112.4	
456.49	5042.1	
456.69	7424.6	
456.89	6712.6	
457.09	5707	
457.29	5991.7	
457.49	7017.7	
457.69	7086	
457.89	5430.5	
458.09	4740.4	
458.29	6683.9	
458.49	7472.4	
458.69	5769.8	
458.89	5233.2	
459.09	7604.1	
459.29	7804.1	
459.49	5301.5	
459.69	6127.5	
459.9	7169.3	
460.1	6624.5	
460.3	5248.9	
460.5	5055.8	
460.7	7161.7	
460.9	6882.5	
461.1	4653.7	
461.3	6003.3	
461.5	7918.1	
461.7	7464.8	
461.9	5008	
462.1	5511.8	
462.3	6847.7	
462.5	7484.6	
462.7	5104.2	
462.9	5157.5	
463.1	8622.6	
463.3	8205.5	
463.5	5322.7	
463.7	6394.4	
463.9	7004.7	
464.1	7389.1	
464.3	5393.7	
464.5	5705	
464.7	7651.2	
464.9	7248.4	
465.1	7117.4	
465.3	6038.1	
465.5	8021.2	
465.7	8041.7	
465.9	6268.1	
466.1	6180.8	
466.3	7742.7	
466.5	7664.2	
466.7	7034.1	
466.9	5901.6	
467.1	7564.5	
467.3	8589.9	
467.5	6877.8	
467.7	5713.2	
467.9	8726.4	
468.1	9604.3	
468.3	6729.6	
468.5	7029.3	
468.7	7417.1	
468.9	7478.5	
469.1	5978	
469.3	6737.1	
469.5	9396.8	
469.7	6905.8	
469.9	6594.5	
470.1	5689.9	
470.3	7417.7	
470.5	7394.5	
470.7	7080.5	
470.9	5795.1	
471.1	7136.5	
471.3	7718.8	
471.5	5611.4	
471.69	7718.1	
471.89	7095.5	
472.09	6609.5	
472.29	6465.4	
472.49	6950.8	
472.69	6716	
472.89	7722.2	
473.09	5453.1	
473.29	5704.3	
473.49	7024.5	
473.69	7189.7	
473.89	6754.2	
474.09	5904.3	
474.29	8469.7	
474.49	8185.7	
474.69	6645	
474.89	6013.5	
475.09	7229.3	
475.29	7134.4	
475.49	5430.5	
475.69	5683.1	
475.88	8884.1	
476.08	7486.7	
476.28	5282.4	
476.48	5904.3	
476.68	8015.7	
476.88	7802.8	
477.08	5721.3	
477.28	6010.1	
477.48	7320.1	
477.68	8099	
477.88	5560.2	
478.08	5849	
478.28	8377.6	
478.48	7502.4	
478.67	5885.2	
478.87	5317.2	
479.07	8101.1	
479.27	7638.2	
479.47	6150.1	
479.67	6138.4	
479.87	7971.4	
480.07	8429.4	
480.27	5382.7	
480.47	7074.4	
480.67	7609.6	
480.87	8280.6	
481.06	5643.5	
481.26	6495.5	
481.46	7464.2	
481.66	7462.1	
481.86	6117.3	
482.06	7186.3	
482.26	7267.6	
482.46	8249.9	
482.66	6062	
482.86	5630.5	
483.05	7606.2	
483.25	6946	
483.45	8666.3	
483.65	6015.6	
483.85	7177.4	
484.05	7451.9	
484.25	6496.2	
484.45	7015	
484.65	8422.6	
484.84	8347.5	
485.04	5978.7	
485.24	5962.3	
485.44	8572.1	
485.64	6845.7	
485.84	5251	
486.04	6609.5	
486.24	7256.6	
486.44	7686	
486.63	5146.5	
486.83	6045.6	
487.03	7044.3	
487.23	7283.3	
487.43	5239.4	
487.63	7701.7	
487.83	7380.9	
488.02	8381	
488.22	6247.7	
488.42	6967.9	
488.62	8424	
488.82	7221.1	
489.02	5920	
489.22	5909.1	
489.41	8156.4	
489.61	7715.4	
489.81	5634	
490.01	5717.2	
490.21	8035.5	
490.41	8694.3	
490.61	5532.2	
490.8	5664	
491	7471.7	
491.2	6748.1	
491.4	6238.1	
491.6	5330.9	
491.8	7499.7	
491.99	7784.3	
492.19	5371.1	
492.39	5810.8	
492.59	8155	
492.79	8259.5	
492.99	6565.8	
493.18	5678.3	
493.38	8196	
493.58	9040.4	
493.78	6374	
493.98	5965.7	
494.18	7853.3	
494.37	7230	
494.57	6624.5	
494.77	6479.8	
494.97	8045.8	
495.17	8278.6	
495.37	5849	
495.56	6301.6	
495.76	8507.3	
495.96	8015.1	
496.16	7165.8	
496.36	6047	
496.55	8123.6	
496.75	7684.7	
496.95	6423.1	
497.15	6299.6	
497.35	8186.4	
497.54	8154.3	
497.74	6106.4	
497.94	7888.8	
498.14	9009	
498.34	8684.1	
498.53	5710.4	
498.73	6604	
498.93	7600.7	
499.13	8077.9	
499.33	6322.8	
499.52	6825.9	
499.72	8103.1	
499.92	8476.5	
500.12	6062	
500.32	6303	
500.51	8403.5	
500.71	8058.1	
500.91	7137.9	
501.11	6661.4	
501.31	8173.4	
501.5	8745.5	
501.7	7427.3	
501.9	6277	
502.1	8121.6	
502.29	8348.2	
502.49	6698.2	
502.69	7231.4	
502.89	8285.4	
503.09	8191.9	
503.28	5719.3	
503.48	5922	
503.68	7472.4	
503.88	7534.5	
504.07	6944.7	
504.27	6397.2	
504.47	7838.3	
504.67	8056.7	
504.86	6850.5	
505.06	6562.4	
505.26	7543.4	
505.46	9497.8	
505.65	6405.4	
505.85	6654.5	
506.05	7553.6	
506.25	7995.3	
506.44	5750.7	
506.64	6829.3	
506.84	7462.1	
507.04	8566	
507.23	6096.8	
507.43	6685.9	
507.63	9645.9	
507.83	7776.1	
508.02	6622.4	
508.22	6214.2	
508.42	9885.5	
508.62	7499	
508.81	6511.9	
509.01	7110.5	
509.21	7385	
509.4	7608.9	
509.6	6767.9	
509.8	6100.2	
510	7675.1	
510.19	9150.3	
510.39	6027.9	
510.59	6034	
510.79	7438.2	
510.98	8834.3	
511.18	6130.3	
511.38	6169.2	
511.57	8285.4	
511.77	8143.4	
511.97	6962.4	
512.17	5879.7	
512.36	8273.8	
512.56	8297	
512.76	5991.7	
512.95	5737	
513.15	8443.8	
513.35	6977.4	
513.55	6936.5	
513.74	6050.4	
513.94	8391.2	
514.14	7742	
514.33	6899.6	
514.53	6733.7	
514.73	7593.2	
514.92	7851.9	
515.12	6154.8	
515.32	5959.6	
515.51	7878.5	
515.71	8594	
515.91	7722.9	
516.11	5980.8	
516.3	9655.5	
516.5	7436.9	
516.7	6576.7	
516.89	7335.8	
517.09	7622.5	
517.29	7490.1	
517.48	6767.2	
517.68	6267.5	
517.88	7374.1	
518.07	7962.5	
518.27	6866.8	
518.47	5794.4	
518.66	8561.9	
518.86	7124.9	
519.06	5635.3	
519.25	6184.9	
519.45	7554.3	
519.65	9110.7	
519.84	6814.3	
520.04	7447.8	
520.24	9256.1	
520.43	8116.8	
520.63	6437.4	
520.83	6140.5	
521.02	7319.4	
521.22	8029.4	
521.42	6774	
521.61	7432.8	
521.81	7623.2	
522.01	7871.7	
522.2	6623.1	
522.4	6427.2	
522.6	8364.6	
522.79	7092.1	
522.99	6500.3	
523.18	5750	
523.38	8030.1	
523.58	8036.2	
523.77	7716.7	
523.97	5684.5	
524.17	9919.7	
524.36	9007.6	
524.56	7056.6	
524.76	6677.7	
524.95	7929.1	
525.15	7556.3	
525.34	6429.3	
525.54	6406.7	
525.74	8189.1	
525.93	7179.5	
526.13	7579.5	
526.33	6251.8	
526.52	8596.7	
526.72	7921.5	
526.91	7608.9	
527.11	6890	
527.31	8656.1	
527.5	9070.5	
527.7	6810.2	
527.89	5753.4	
528.09	7449.8	
528.29	8032.1	
528.48	7192.5	
528.68	6788.3	
528.87	8460.8	
529.07	8460.8	
529.27	6651.8	
529.46	6089.3	
529.66	7929.1	
529.85	8419.2	
530.05	5818.3	
530.25	6720.8	
530.44	9427.5	
530.64	8021.2	
530.83	6414.2	
531.03	6738.5	
531.23	8368.7	
531.42	8293.6	
531.62	7542.7	
531.81	6617.7	
532.01	8490.9	
532.21	9026.8	
532.4	6335.7	
532.6	6725.5	
532.79	9553.8	
532.99	8608.3	
533.18	6665.5	
533.38	7751.6	
533.58	8032.1	
533.77	8888.2	
533.97	6498.9	
534.16	7460.8	
534.36	9091.6	
534.55	7950.9	
534.75	7670.3	
534.95	6654.5	
535.14	8865	
535.34	7978.2	
535.53	6253.1	
535.73	8343.4	
535.92	9385.8	
536.12	8203.5	
536.31	6388.3	
536.51	7522.9	
536.71	8581.7	
536.9	8064.2	
537.1	6681.8	
537.29	6704.4	
537.49	9013.1	
537.68	8005.5	
537.88	7165.2	
538.07	6373.3	
538.27	8232.8	
538.46	9398.1	
538.66	6309.1	
538.86	6655.9	
539.05	8196	
539.25	8575.5	
539.44	6925.5	
539.64	6586.3	
539.83	8052.6	
540.03	9133.3	
540.22	6363.7	
540.42	6681.8	
540.61	8392.6	
540.81	8483.4	
541	7082.6	
541.2	7682.6	
541.39	7908.6	
541.59	8359.8	
541.78	7305.8	
541.98	6466.1	
542.18	7565.2	
542.37	7559.7	
542.57	6823.8	
542.76	7327.6	
542.96	7548.1	
543.15	8434.9	
543.35	6805.4	
543.54	6169.2	
543.74	8747.6	
543.93	8263.6	
544.13	6907.1	
544.32	8075.1	
544.52	8621.9	
544.71	7870.3	
544.91	6043.6	
545.1	7320.8	
545.3	7815.7	
545.49	8598.7	
545.69	5845.6	
545.88	6556.2	
546.08	9538.8	
546.27	9045.2	
546.47	7085.3	
546.66	6373.3	
546.86	8805.6	
547.05	9416.6	
547.24	6625.2	
547.44	6420.4	
547.63	7652.6	
547.83	8824.7	
548.02	6838.9	
548.22	7086.7	
548.41	7552.9	
548.61	8911.4	
548.8	6291.4	
549	6337.8	
549.19	8178.9	
549.39	8599.4	
549.58	6084.5	
549.78	6591	
549.97	8611.7	
550.17	8027.4	
550.36	7517.4	
550.55	8581.7	
550.75	8122.2	
550.94	9017.2	
551.14	6334.4	
551.33	6737.1	
551.53	7389.8	
551.72	8462.9	
551.92	6806.1	
552.11	6487.3	
552.31	8454.7	
552.5	8372.1	
552.69	8242.4	
552.89	6156.9	
553.08	8400.8	
553.28	8232.2	
553.47	6503.7	
553.67	7769.3	
553.86	9142.8	
554.06	7443	
554.25	5655.1	
554.44	6330.3	
554.64	10004	
554.83	9377.6	
555.03	6247	
555.22	6621.1	
555.42	8674.5	
555.61	8329.1	
555.8	6457.9	
556	6769.2	
556.19	7442.3	
556.39	8838.4	
556.58	6607.4	
556.78	6481.8	
556.97	8249.9	
557.16	7950.2	
557.36	7838.9	
557.55	6145.3	
557.75	7136.5	
557.94	9058.8	
558.13	6240.8	
558.33	6037.4	
558.52	8819.2	
558.72	7610.3	
558.91	6131.6	
559.1	6381.5	
559.3	7334.5	
559.49	7016.3	
559.69	5687.2	
559.88	6782.2	
560.07	8221.9	
560.27	8632.2	
560.46	7004.1	
560.66	7012.9	
560.85	8021.2	
561.04	7111.9	
561.24	6166.4	
561.43	6283.9	
561.63	7423.2	
561.82	7750.2	
562.01	7753.6	
562.21	6731.7	
562.4	8284	
562.59	9272.5	
562.79	6557.6	
562.98	6232	
563.18	8150.2	
563.37	9654.8	
563.56	7064.8	
563.76	6059.9	
563.95	7548.8	
564.14	7394.5	
564.34	6427.9	
564.53	6258.6	
564.73	8041.7	
564.92	8455.4	
565.11	6605.4	
565.31	5907.7	
565.5	8761.2	
565.69	7585	
565.89	6168.5	
566.08	6421.7	
566.27	8559.8	
566.47	8949.6	
566.66	7122.8	
566.85	5724.1	
567.05	8088.8	
567.24	7509.9	
567.44	6107	
567.63	7592.5	
567.82	8310.7	
568.02	8071.7	
568.21	6084.5	
568.4	6483.2	
568.6	7972.7	
568.79	7984.3	
568.98	5956.2	
569.18	6127.5	
569.37	7890.1	
569.56	10062	
569.76	6374	
569.95	7462.1	
570.14	8295	
570.34	8151.6	
570.53	5951.4	
570.72	6004	
570.91	8727.8	
571.11	7863.5	
571.3	6479.8	
571.49	7473	
571.69	7892.9	
571.88	7517.4	
572.07	7014.3	
572.27	7006.1	
572.46	7415.7	
572.65	8548.2	
572.85	6223.8	
573.04	6589.7	
573.23	8804.9	
573.43	8060.1	
573.62	5976.7	
573.81	6666.1	
574	8066.9	
574.2	7813.7	
574.39	6292	
574.58	6496.8	
574.78	8875.2	
574.97	8146.1	
575.16	6802	
575.36	6992.4	
575.55	8501.1	
575.74	8690.2	
575.93	5923.4	
576.13	7030	
576.32	7878.5	
576.51	8322.9	
576.71	6358.3	
576.9	7931.1	
577.09	8795.3	
577.28	8258.8	
577.48	6875.7	
577.67	5854.5	
577.86	7904.5	
578.05	8173.4	
578.25	6562.4	
578.44	6582.2	
578.63	7944.8	
578.83	9209.7	
579.02	5821	
579.21	7414.3	
579.4	8249.2	
579.6	7849.9	
579.79	6686.6	
579.98	8956.4	
580.17	8567.3	
580.37	8621.9	
580.56	6023.8	
580.75	6780.1	
580.94	9207.7	
581.14	8991.9	
581.33	7344	
581.52	6270.9	
581.71	8428.8	
581.91	9117.6	
582.1	5835.3	
582.29	6555.5	
582.48	8030.1	
582.68	7886	
582.87	6983.6	
583.06	6603.3	
583.25	8361.2	
583.45	8251.9	
583.64	7301	
583.83	8052.6	
584.02	7790.5	
584.21	8258.1	
584.41	7302.4	
584.6	6531.7	
584.79	8079.2	
584.98	8739.4	
585.18	5933.6	
585.37	5983.5	
585.56	7479.2	
585.75	8295.6	
585.94	6304.3	
586.14	6923.5	
586.33	9019.9	
586.52	7994.6	
586.71	6748.1	
586.91	6425.8	
587.1	7370	
587.29	8420.6	
587.48	6380.1	
587.67	6292.7	
587.87	8291.5	
588.06	8494.3	
588.25	7792.5	
588.44	6937.8	
588.63	8088.8	
588.83	8617.2	
589.02	6401.3	
589.21	6322.1	
589.4	7780.9	
589.59	7629.4	
589.78	5563	
589.98	5836.7	
590.17	7273.7	
590.36	7953.6	
590.55	5369.8	
590.74	6262	
590.94	9519.6	
591.13	7994.6	
591.32	6091.3	
591.51	5549.3	
591.7	8452	
591.89	7921.5	
592.09	5672.2	
592.28	6227.2	
592.47	6993.1	
592.66	8941.4	
592.85	5651.7	
593.05	5850.4	
593.24	7604.8	
593.43	8434.9	
593.62	5898.1	
593.81	6445.6	
594	7630	
594.19	8004.8	
594.39	5870.2	
594.58	5818.3	
594.77	8005.5	
594.96	8659.5	
595.15	5659.2	
595.34	6507.8	
595.54	8034.2	
595.73	7122.2	
595.92	5036.6	
596.11	6320.7	
596.3	8617.9	
596.49	7260	
596.68	6015.6	
596.88	6615.6	
597.07	8346.2	
597.26	7008.8	
597.45	5540.4	
597.64	6825.9	
597.83	7329.7	
598.02	7920.9	
598.22	5662	
598.41	6305	
598.6	7780.9	
598.79	7159	
598.98	5705.6	
599.17	6651.8	
599.36	7751.6	
599.55	9049.3	
599.74	7860.8	
599.94	7569.3	
600.13	8279.9	
600.32	7120.1	
600.51	5477	
600.7	5513.1	
600.89	9026.1	
601.08	9002.2	
601.27	5346.6	
601.47	6388.3	
601.66	8253.3	
601.85	8890.9	
602.04	6073.6	
602.23	6346	
602.42	7213.6	
602.61	8023.3	
602.8	5972.6	
602.99	5742.5	
603.18	7684.7	
603.37	7836.9	
603.57	6381.5	
603.76	7002.7	
603.95	8634.2	
604.14	8231.5	
604.33	5785.5	
604.52	6201.2	
604.71	7851.2	
604.9	7426.6	
605.09	6843.6	
605.28	6580.8	
605.47	8463.6	
605.66	8018.5	
605.86	6416.3	
606.05	5828.5	
606.24	8409	
606.43	6864.1	
606.62	6195.1	
606.81	6974	
607	8263.6	
607.19	7561.1	
607.38	5538.4	
607.57	5820.3	
607.76	7359.7	
607.95	6812.9	
608.14	6298.9	
608.33	6856.6	
608.52	7353.6	
608.72	8226	
608.91	5486.5	
609.1	5363.6	
609.29	7451.9	
609.48	6907.1	
609.67	6494.8	
609.86	5395	
610.05	7022.5	
610.24	7458	
610.43	5323.4	
610.62	4965	
610.81	8611	
611	8275.2	
611.19	5466.7	
611.38	6264.1	
611.57	7747.5	
611.76	9115.5	
611.95	5215.5	
612.14	5111	
612.33	7474.4	
612.52	6969.2	
612.71	5815.5	
612.9	4969.1	
613.09	6612.9	
613.28	9015.2	
613.47	5486.5	
613.66	6536.4	
613.85	7712	
614.04	7124.2	
614.24	5649	
614.43	4777.9	
614.62	7721.5	
614.81	7742.7	
615	6272.2	
615.19	6168.5	
615.38	6999.3	
615.57	7379.5	
615.76	6065.4	
615.95	7120.1	
616.14	7760.4	
616.33	7371.3	
616.52	6345.3	
616.71	6638.8	
616.9	7730.4	
617.09	7569.3	
617.28	5722	
617.47	7051.8	
617.66	6718.7	
617.85	6847	
618.04	6683.2	
618.22	6080.4	
618.41	7064.1	
618.6	7980.9	
618.79	5918.6	
618.98	5599.8	
619.17	8376.9	
619.36	6663.4	
619.55	5692.7	
619.74	5816.9	
619.93	7564.5	
620.12	7031.4	
620.31	6407.4	
620.5	6539.2	
620.69	8537.3	
620.88	8539.3	
621.07	7316.7	
621.26	6124.1	
621.45	7800.7	
621.64	7793.2	
621.83	6364.4	
622.02	5504.9	
622.21	7864.2	
622.4	7463.5	
622.59	6882.5	
622.78	6713.9	
622.97	7083.9	
623.16	8103.8	
623.35	6264.1	
623.54	5299.5	
623.72	7352.2	
623.91	7476.5	
624.1	6473.6	
624.29	5126.7	
624.48	8662.2	
624.67	7838.3	
624.86	6386.9	
625.05	5422.3	
625.24	8621.3	
625.43	7040.2	
625.62	8213	
625.81	5620.3	
626	8110.6	
626.19	7298.3	
626.38	6526.2	
626.56	5801.9	
626.75	7193.1	
626.94	8004.1	
627.13	6456.6	
627.32	5075.5	
627.51	7818.5	
627.7	9233.6	
627.89	5292	
628.08	6418.3	
628.27	6996.5	
628.46	7161.1	
628.65	5666.7	
628.83	5250.3	
629.02	7800	
629.21	7071	
629.4	6065.4	
629.59	6214.9	
629.78	6954.2	
629.97	8110.6	
630.16	6320	
630.35	5738.4	
630.54	8473.1	
630.72	8186.4	
630.91	5644.9	
631.1	6293.4	
631.29	7614.3	
631.48	7858.1	
631.67	6390.3	
631.86	5860.6	
632.05	7235.5	
632.24	7264.8	
632.42	5530.2	
632.61	6094.8	
632.8	7346.1	
632.99	7003.4	
633.18	6077	
633.37	6583.5	
633.56	7563.1	
633.75	7441	
633.93	6059.3	
634.12	5757.5	
634.31	8466.3	
634.5	8069.7	
634.69	5870.8	
634.88	6348.7	
635.07	7344.7	
635.25	8005.5	
635.44	6793.1	
635.63	6922.1	
635.82	7161.1	
636.01	6718.7	
636.2	6701	
636.39	6208.1	
636.57	8432.9	
636.76	8055.3	
636.95	5643.5	
637.14	7118.7	
637.33	7691.5	
637.52	8641.7	
637.7	5368.4	
637.89	6330.3	
638.08	7276.4	
638.27	8837	
638.46	6418.3	
638.65	7028.6	
638.83	8794.7	
639.02	7086	
639.21	6331.6	
639.4	6929.6	
639.59	7567.9	
639.78	7167.2	
639.96	5597.1	
640.15	5614.8	
640.34	7437.5	
640.53	7652.6	
640.72	5390.3	
640.91	5743.9	
641.09	6858	
641.28	8315.4	
641.47	5705.6	
641.66	6667.5	
641.85	7565.2	
642.03	7899.7	
642.22	6389	
642.41	5874.3	
642.6	6962.4	
642.79	6428.6	
642.97	5615.5	
643.16	6365.8	
643.35	6965.1	
643.54	6774.7	
643.73	5566.4	
643.91	6393.1	
644.1	6652.5	
644.29	7295.5	
644.48	5642.8	
644.67	5686.5	
644.85	6836.1	
645.04	7307.8	
645.23	5241.4	
645.42	5501.5	
645.6	6766.5	
645.79	7981.6	
645.98	5653.1	
646.17	4663.9	
646.36	6591.7	
646.54	7266.2	
646.73	6511.9	
646.92	5262.6	
647.11	6839.5	
647.29	7960.5	
647.48	5272.8	
647.67	5066	
647.86	8150.9	
648.05	8246.5	
648.23	5630.5	
648.42	6940.6	
648.61	7549.5	
648.8	7273.7	
648.98	5250.3	
649.17	5627.8	
649.36	6867.5	
649.55	6241.5	
649.73	5335	
649.92	6092.7	
650.11	6694.8	
650.3	7066.2	
650.48	5461.9	
650.67	5101.5	
650.86	7384.3	
651.05	6221.7	
651.23	5427.1	
651.42	5368.4	
651.61	6714.6	
651.79	6920.8	
651.98	5605.3	
652.17	5183.4	
652.36	7321.5	
652.54	6272.9	
652.73	5265.3	
652.92	5040.1	
653.11	7275.8	
653.29	7385	
653.48	4481.6	
653.67	5676.3	
653.85	7080.5	
654.04	8093.6	
654.23	5758.2	
654.42	5336.3	
654.6	6559	
654.79	7288.7	
654.98	4829.8	
655.16	5416.9	
655.35	6260.6	
655.54	6248.4	
655.73	4947.9	
655.91	4935.6	
656.1	7441	
656.29	6239.5	
656.47	4423.6	
656.66	6247.7	
656.85	6396.5	
657.03	6515.3	
657.22	4939.7	
657.41	5011.4	
657.59	6529.6	
657.78	6349.4	
657.97	4584	
658.16	5457.8	
658.34	7202	
658.53	7619.8	
658.72	6382.2	
658.9	6845	
659.09	6587.6	
659.28	6679.8	
659.46	5146.5	
659.65	5061.9	
659.84	6414.9	
660.02	6898.2	
660.21	4915.8	
660.4	4892.6	
660.58	7404.1	
660.77	6735.1	
660.96	5495.4	
661.14	4525.3	
661.33	7824.6	
661.52	7777.5	
661.7	4562.9	
661.89	8437.6	
662.08	6255.2	
662.26	5903.6	
662.45	4749.2	
662.64	4914.4	
662.82	7010.2	
663.01	6260.6	
663.2	4948.6	
663.38	5773.9	
663.57	6959.7	
663.75	6719.4	
663.94	5307	
664.13	6652.5	
664.31	6316.6	
664.5	6976.1	
664.69	5624.4	
664.87	6103.6	
665.06	6184.2	
665.25	6828.6	
665.43	6360.3	
665.62	6376.7	
665.8	7138.5	
665.99	6449.7	
666.18	5231.9	
666.36	5418.9	
666.55	7075	
666.74	7063.4	
666.92	4889.2	
667.11	6657.3	
667.29	6358.9	
667.48	7025.9	
667.67	6128.9	
667.85	5251	
668.04	6563.7	
668.22	6480.5	
668.41	5251	
668.6	5524.7	
668.78	6230.6	
668.97	6485.9	
669.15	5757.5	
669.34	4620.2	
669.53	6272.2	
669.71	6620.4	
669.9	4860.5	
670.08	5554.8	
670.27	6320	
670.46	6847	
670.64	5726.1	
670.83	5974.6	
671.01	6151.4	
671.2	6810.2	
671.38	4829.8	
671.57	4754.7	
671.76	7471	
671.94	8136.6	
672.13	4676.9	
672.31	5936.4	
672.5	7089.4	
672.69	6232	
672.87	4861.9	
673.06	5251.7	
673.24	6838.9	
673.43	6310.5	
673.61	5714.5	
673.8	5196.4	
673.98	7032.7	
674.17	7163.1	
674.36	5824.4	
674.54	5626.5	
674.73	6780.8	
674.91	6995.2	
675.1	5372.5	
675.28	4971.8	
675.47	6518	
675.65	7117.4	
675.84	5255.8	
676.03	5603.2	
676.21	6251.8	
676.4	5801.2	
676.58	6013.5	
676.77	5806	
676.95	7814.4	
677.14	6283.2	
677.32	4822.3	
677.51	4678.2	
677.69	7094.8	
677.88	5837.4	
678.06	4743.8	
678.25	4884.4	
678.44	6541.9	
678.62	6271.6	
678.81	4552.6	
678.99	5471.5	
679.18	7359.7	
679.36	6944.7	
679.55	5144.5	
679.73	5820.3	
679.92	6899.6	
680.1	6264.1	
680.29	6479.1	
680.47	5114.5	
680.66	6218.3	
680.84	7113.3	
681.03	4460.5	
681.21	5548.6	
681.4	6279.8	
681.58	6105.7	
681.77	4921.3	
681.95	4835.3	
682.14	7141.9	
682.32	7505.1	
682.51	5808	
682.69	4584	
682.88	6193.1	
683.06	6924.2	
683.25	5550	
683.43	6035.4	
683.62	6418.3	
683.8	6891.4	
683.99	6120	
684.17	5350.7	
684.36	7785.7	
684.54	6459.3	
684.73	4528.7	
684.91	4799.8	
685.1	6810.2	
685.28	6191.7	
685.46	5429.2	
685.65	5562.3	
685.83	7197.2	
686.02	6429.9	
686.2	4986.8	
686.39	5063.9	
686.57	6347.3	
686.76	7769.3	
686.94	4947.2	
687.13	5158.8	
687.31	6909.8	
687.5	6462.7	
687.68	4524	
687.86	5817.6	
688.05	8077.2	
688.23	5938.4	
688.42	5875.6	
688.6	4954.7	
688.79	6278.4	
688.97	6315.3	
689.16	5447.6	
689.34	4295.3	
689.52	7116.7	
689.71	7238.2	
689.89	5671.5	
690.08	4980.7	
690.26	6574.7	
690.45	6471.6	
690.63	5882.4	
690.81	5086.5	
691	6229.9	
691.18	6218.3	
691.37	5283.8	
691.55	7609.6	
691.74	6195.1	
691.92	8347.5	
692.1	5304.9	
692.29	4665.3	
692.47	6485.9	
692.66	5717.9	
692.84	4892.6	
693.02	5535.7	
693.21	5782.1	
693.39	6400.6	
693.58	5541.1	
693.76	4997	
693.94	7645.1	
694.13	7311.2	
694.31	4843.4	
694.5	6062.7	
694.68	6081.1	
694.86	6496.8	
695.05	5248.9	
695.23	5444.2	
695.42	6844.3	
695.6	9276.6	
695.78	5883.8	
695.97	4932.2	
696.15	6899.6	
696.34	6184.9	
696.52	4644.1	
696.7	5558.2	
696.89	6656.6	
697.07	6090	
697.25	5571.8	
697.44	7129.7	
697.62	6620.4	
697.81	7077.8	
697.99	5188.9	
698.17	5750.7	
698.36	5890	
698.54	6668.2	
698.72	5625.1	
698.91	4541	
699.09	6234.7	
699.28	6125.5	
699.46	5197.1	
699.64	5005.9	
699.83	6010.1	
700.01	7492.2	
700.19	5869.5	
700.38	4257	
700.56	7283.9	
700.74	6098.9	
700.93	4617.5	
701.11	5531.6	
701.29	6716	
701.48	7824.6	
701.66	4851.6	
701.84	4898.1	
702.03	6191	
702.21	6841.6	
702.39	4483	
702.58	5041.4	
702.76	6602.7	
702.94	6769.2	
703.13	4468.7	
703.31	6898.2	
703.49	5879.7	
703.68	6866.2	
703.86	4666.6	
704.04	5665.4	
704.23	6440.2	
704.41	6806.8	
704.59	4760.8	
704.78	6205.3	
704.96	7603.4	
705.14	6881.2	
705.33	4553.3	
705.51	5418.9	
705.69	6274.3	
705.87	7122.2	
706.06	5697.4	
706.24	4466.6	
706.42	6595.1	
706.61	6848.4	
706.79	5709.7	
706.97	4544.4	
707.16	6010.1	
707.34	6640.2	
707.52	5700.2	
707.7	4792.2	
707.89	6104.3	
708.07	5799.2	
708.25	5726.8	
708.44	5792.3	
708.62	6058.6	
708.8	7238.2	
708.98	6010.8	
709.17	4883.7	
709.35	6516	
709.53	6555.5	
709.72	4530.1	
709.9	4738.3	
710.08	6746	
710.26	6793.8	
710.45	6323.4	
710.63	4884.4	
710.81	6447.7	
710.99	6507.8	
711.18	5594.4	
711.36	5109	
711.54	6262	
711.72	7023.9	
711.91	5205.3	
712.09	4563.6	
712.27	6445	
712.45	7614.3	
712.64	5527.5	
712.82	4405.9	
713	5969.8	
713.18	6172.6	
713.37	4550.6	
713.55	6151.4	
713.73	7104.4	
713.91	5672.9	
714.1	5095.3	
714.28	4483.7	
714.46	6795.8	
714.64	6039.5	
714.83	4002.4	
715.01	5010	
715.19	6215.6	
715.37	5506.3	
715.55	4629.8	
715.74	5007.3	
715.92	7262.8	
716.1	5133.6	
716.28	6199.2	
716.47	5144.5	
716.65	5829.2	
716.83	5942.5	
717.01	4978.6	
717.19	5122.7	
717.38	8157.7	
717.56	5582.1	
717.74	5349.3	
717.92	4399.7	
718.1	6854.6	
718.29	6036.7	
718.47	3966.2	
718.65	4695.3	
718.83	6637.5	
719.01	6561	
719.2	3678.2	
719.38	4903.5	
719.56	6278.4	
719.74	7899.7	
719.92	4420.2	
720.11	5541.1	
720.29	6296.1	
720.47	5391.6	
720.65	4005.1	
720.83	5001.1	
721.02	5823.1	
721.2	5556.1	
721.38	5089.2	
721.56	4299.4	
721.74	5117.2	
721.92	5343.8	
722.11	5633.3	
722.29	5309	
722.47	6648.4	
722.65	5714.5	
722.83	4349.9	
723.01	5320.6	
723.2	5857.9	
723.38	6158.2	
723.56	3700	
723.74	4934.9	
723.92	5315.8	
724.1	6642.2	
724.29	4177.9	
724.47	5440.8	
724.65	5417.6	
724.83	5274.2	
725.01	4140.3	
725.19	5109	
725.37	5384.8	
725.56	5494.7	
725.74	4001.7	
725.92	4198.3	
726.1	5263.3	
726.28	5616.9	
726.46	4708.3	
726.64	4444.1	
726.83	5580	
727.01	5933	
727.19	3906.2	
727.37	4861.9	
727.55	5793.7	
727.73	6333	
727.91	3895.2	
728.09	3784	
728.28	6254.5	
728.46	7009.5	
728.64	4963.6	
728.82	4948.6	
729	7449.8	
729.18	6610.2	
729.36	4030.4	
729.54	6510.5	
729.72	7674.4	
729.91	5842.9	
730.09	6070.2	
730.27	4696.7	
730.45	5690.6	
730.63	6399.2	
730.81	5324.7	
730.99	4280.3	
731.17	6888.7	
731.35	5464	
731.53	4899.4	
731.71	4401.8	
731.9	6640.2	
732.08	6851.1	
732.26	4792.2	
732.44	4426.3	
732.62	6926.9	
732.8	6321.4	
732.98	5205.3	
733.16	4098	
733.34	6367.1	
733.52	5134.3	
733.7	4736.3	
733.88	5044.1	
734.07	6181.5	
734.25	5865.4	
734.43	4098	
734.61	5890	
734.79	7501	
734.97	5798.5	
735.15	4288.4	
735.33	4672.8	
735.51	6223.8	
735.69	5793.7	
735.87	5959.6	
736.05	4969.7	
736.23	6031.3	
736.41	5819	
736.59	4724	
736.77	4816.1	
736.95	6485.2	
737.13	5911.8	
737.32	4368.3	
737.5	4556.7	
737.68	7085.3	
737.86	5803.3	
738.04	4141.7	
738.22	6176.7	
738.4	5541.8	
738.58	5866.1	
738.76	4881.7	
738.94	3741.6	
739.12	5658.5	
739.3	5525.4	
739.48	5530.9	
739.66	5147.9	
739.84	5919.3	
740.02	5928.2	
740.2	3829.7	
740.38	4197.7	
740.56	6393.1	
740.74	5188.9	
740.92	4894.6	
741.1	4853	
741.28	5773.2	
741.46	5606.7	
741.64	4472.1	
741.82	4982.7	
742	5913.2	
742.18	5855.8	
742.36	4676.2	
742.54	4230.4	
742.72	6399.2	
742.9	5159.5	
743.08	5098.1	
743.26	3844.7	
743.44	6770.6	
743.62	6485.2	
743.8	5297.4	
743.98	4274.1	
744.16	6177.4	
744.34	5898.1	
744.52	5192.3	
744.7	5173.9	
744.88	6388.3	
745.06	5846.3	
745.24	5287.9	
745.42	5410.7	
745.6	6537.1	
745.78	6262	
745.96	4009.9	
746.14	4387.4	
746.32	7340.6	
746.5	6509.8	
746.68	5084.4	
746.86	4453.6	
747.03	6989	
747.21	5205.3	
747.39	4993.6	
747.57	4433.2	
747.75	6151.4	
747.93	6541.2	
748.11	4352.6	
748.29	4323.3	
748.47	7744.7	
748.65	5823.1	
748.83	5236	
749.01	4906.3	
749.19	6369.2	
749.37	5474.9	
749.55	4754	
749.73	4856.4	
749.91	5971.2	
750.09	5638.1	
750.26	4907.6	
750.44	4252.3	
750.62	6066.8	
750.8	5991.7	
750.98	4125.3	
751.16	4473.4	
751.34	6115.2	
751.52	5446.9	
751.7	5366.4	
751.88	4105.5	
752.06	6564.4	
752.24	6378.1	
752.42	4100.7	
752.59	4448.2	
752.77	5932.3	
752.95	7315.3	
753.13	5280.3	
753.31	4569.7	
753.49	5659.2	
753.67	6135.7	
753.85	4948.6	
754.03	4504.8	
754.21	6499.6	
754.38	6825.9	
754.56	4770.4	
754.74	3664.5	
754.92	5737	
755.1	6496.2	
755.28	3768.3	
755.46	3900	
755.64	7407.5	
755.82	7521.5	
755.99	4264.6	
756.17	4373.8	
756.35	4928.1	
756.53	6634.1	
756.71	3262.4	
756.89	4262.5	
757.07	6163.7	
757.25	5220.3	
757.42	4765.6	
757.6	5801.9	
757.78	6244.3	
757.96	5116.5	
758.14	4466.6	
758.32	3864.5	
758.5	4681	
758.67	5601.9	
758.85	4249.5	
759.03	4394.9	
759.21	5788.2	
759.39	5156.8	
759.57	3824.9	
759.75	5129.5	
759.92	6475	
760.1	5601.9	
760.28	5389.6	
760.46	5642.8	
760.64	5393.7	
760.82	5123.3	
760.99	5231.2	
761.17	4291.9	
761.35	6184.2	
761.53	5149.3	
761.71	4459.1	
761.89	5195	
762.06	6101.6	
762.24	5525.4	
762.42	4485.1	
762.6	4242.7	
762.78	5527.5	
762.96	6259.3	
763.13	4878.3	
763.31	4528.1	
763.49	6483.2	
763.67	5451	
763.85	5453.1	
764.02	6072.2	
764.2	6673.6	
764.38	5806	
764.56	4447.5	
764.74	5332.9	
764.91	6804	
765.09	5716.6	
765.27	4104.8	
765.45	3876.1	
765.63	6810.2	
765.8	6752.2	
765.98	3594.9	
766.16	3964.9	
766.34	5239.4	
766.52	5023	
766.69	4979.3	
766.87	3754.6	
767.05	5660.6	
767.23	6451.8	
767.41	4149.9	
767.58	4485.1	
767.76	6308.4	
767.94	6402	
768.12	4255	
768.29	5162.9	
768.47	5819	
768.65	6500.3	
768.83	3855.6	
769	5115.8	
769.18	5303.6	
769.36	6075.6	
769.54	5128.1	
769.72	3945.1	
769.89	6310.5	
770.07	6470.2	
770.25	4272.1	
770.43	5609.4	
770.6	7152.9	
770.78	7664.9	
770.96	4506.2	
771.14	4460.5	
771.31	6206	
771.49	5589.6	
771.67	3665.9	
771.85	3958	
772.02	4855.7	
772.2	5647.6	
772.38	4735.6	
772.55	4126.7	
772.73	5824.4	
772.91	5591	
773.09	4597.7	
773.26	4646.8	
773.44	5894.1	
773.62	5563.6	
773.8	4024.9	
773.97	3698.6	
774.15	5996.5	
774.33	5526.8	
774.5	3923.9	
774.68	4392.9	
774.86	6137.8	
775.04	5610.1	
775.21	4057	
775.39	4094.6	
775.57	5853.1	
775.74	6337.8	
775.92	3899.3	
776.1	3809.2	
776.27	5820.3	
776.45	7182.2	
776.63	4046.8	
776.81	3567.6	
776.98	5446.9	
777.16	6659.3	
777.34	4223.6	
777.51	4166.3	
777.69	5504.9	
777.87	5215.5	
778.04	4281.6	
778.22	4976.6	
778.4	5261.9	
778.57	5951.4	
778.75	3477.5	
778.93	3820.8	
779.1	5034.6	
779.28	4876.2	
779.46	3502.7	
779.64	4040.6	
779.81	6152.8	
779.99	7175.4	
780.17	4928.8	
780.34	5118.6	
780.52	5541.1	
780.69	5778.7	
780.87	4414.1	
781.05	3934.8	
781.22	5608.7	
781.4	5679.7	
781.58	4063.9	
781.75	3203.7	
781.93	5671.5	
782.11	5060.5	
782.28	5072.1	
782.46	4113.7	
782.64	4892.6	
782.81	5943.2	
782.99	4230.4	
783.17	4140.3	
783.34	5769.1	
783.52	4983.4	
783.69	4402.5	
783.87	5230.5	
784.05	4985.4	
784.22	5068	
784.4	5227.8	
784.58	4478.9	
784.75	6057.9	
784.93	5047.6	
785.1	4108.2	
785.28	4780.6	
785.46	5756.8	
785.63	5057.1	
785.81	4083.6	
785.99	3932.1	
786.16	5292	
786.34	5653.1	
786.51	3932.8	
786.69	4328.7	
786.87	4794.3	
787.04	5374.6	
787.22	3822.9	
787.39	4855.7	
787.57	5083.1	
787.75	6268.1	
787.92	5070.1	
788.1	4921.3	
788.27	5125.4	
788.45	4842.1	
788.63	4662.5	
788.8	3292.5	
788.98	5621	
789.15	4803.2	
789.33	3450.1	
789.5	4156.7	
789.68	6064.7	
789.86	6198.5	
790.03	4659.8	
790.21	4015.4	
790.38	6032.6	
790.56	5219.6	
790.73	3779.2	
790.91	3928	
791.09	5072.1	
791.26	5907.7	
791.44	4104.8	
791.61	3495.9	
791.79	5018.9	
791.96	5167.7	
792.14	3668.6	
792.32	3205.8	
792.49	5055.8	
792.67	5158.2	
792.84	3672.7	
793.02	3483.6	
793.19	5545.9	
793.37	6283.9	
793.54	3193.5	
793.72	3599.6	
793.89	6542.6	
794.07	5115.1	
794.25	4279.6	
794.42	3268.6	
794.6	6302.3	
794.77	5913.9	
794.95	4624.3	
795.12	3906.8	
795.3	5063.9	
795.47	5790.3	
795.65	4387.4	
795.82	4201.7	
796	4848.9	
796.17	6931.7	
796.35	4072	
796.52	4877.6	
796.7	5697.4	
796.87	5798.5	
797.05	5037.3	
797.22	4973.8	
797.4	5717.2	
797.57	6853.9	
797.75	4169.7	
797.92	3951.9	
798.1	6038.1	
798.27	5131.5	
798.45	3343	
798.62	3686.3	
798.8	5467.4	
798.97	5984.2	
799.15	4474.1	
799.32	4227.7	
799.5	4652.3	
799.67	5478.3	
799.85	4549.9	
800.02	3277.4	
800.2	5023	
800.37	5443.5	
800.55	4810	
800.72	3989.4	
800.9	5951.4	
801.07	6409.5	
801.25	5326.8	
801.42	4328	
801.6	5927.5	
801.77	5724.8	
801.95	4008.6	
802.12	3889.1	
802.29	5583.4	
802.47	5623	
802.64	4234.5	
802.82	3189.4	
802.99	5058.5	
803.17	6141.9	
803.34	4188.1	
803.52	3756	
803.69	6885.3	
803.87	4841.4	
804.04	4213.4	
804.21	4299.4	
804.39	6283.2	
804.56	5347.9	
804.74	3550.5	
804.91	4330.8	
805.09	5134.9	
805.26	5245.5	
805.44	3619.4	
805.61	3956.7	
805.78	5784.1	
805.96	5808	
806.13	4410	
806.31	4681.7	
806.48	4660.5	
806.66	5273.5	
806.83	4373.8	
807	4231.8	
807.18	5115.1	
807.35	5543.9	
807.53	4217.5	
807.7	3358	
807.87	6384.2	
808.05	5153.4	
808.22	4747.2	
808.4	3366.2	
808.57	5181.4	
808.74	4800.4	
808.92	3781.9	
809.09	4943.8	
809.27	5039.4	
809.44	5701.5	
809.61	3425.6	
809.79	3859.7	
809.96	6328.2	
810.14	6059.9	
810.31	3287.7	
810.48	4052.9	
810.66	5255.1	
810.83	6064	
811.01	3857	
811.18	4345.1	
811.35	5937.1	
811.53	4567	
811.7	4745.8	
811.87	4397	
812.05	5180.7	
812.22	5087.2	
812.39	3746.4	
812.57	3623.5	
812.74	5163.6	
812.92	6943.3	
813.09	4070.7	
813.26	4482.3	
813.44	6714.6	
813.61	5075.5	
813.78	3373	
813.96	4566.3	
814.13	5150.6	
814.3	4777.2	
814.48	4987.5	
814.65	4117.8	
814.82	6483.2	
815	4961.5	
815.17	4173.8	
815.34	5056.4	
815.52	5073.5	
815.69	5134.3	
815.87	4192.9	
816.04	3524.6	
816.21	5364.3	
816.38	4524.6	
816.56	4054.3	
816.73	3721.2	
816.9	6576	
817.08	6014.9	
817.25	3781.2	
817.42	4858.5	
817.6	4675.5	
817.77	5225.1	
817.94	4263.9	
818.12	3696.6	
818.29	4898.7	
818.46	7808.9	
818.64	3878.9	
818.81	3633.8	
818.98	4758.1	
819.16	7042.3	
819.33	4475.5	
819.5	4177.9	
819.67	5550.7	
819.85	6236.7	
820.02	4106.2	
820.19	4406.5	
820.37	5368.4	
820.54	4926	
820.71	4261.1	
820.88	5313.1	
821.06	5406.6	
821.23	4934.2	
821.4	4354.7	
821.58	4263.2	
821.75	6006	
821.92	5300.1	
822.09	3437.9	
822.27	3508.2	
822.44	5187.5	
822.61	5059.2	
822.79	3419.4	
822.96	6703	
823.13	5698.8	
823.3	4876.9	
823.48	3967.6	
823.65	3590.1	
823.82	5880.4	
823.99	4690.5	
824.17	5077.6	
824.34	3631.7	
824.51	6935.8	
824.68	5263.3	
824.86	3807.9	
825.03	4257.7	
825.2	5174.5	
825.37	6334.4	
825.55	3736.2	
825.72	4248.9	
825.89	6981.5	
826.06	6464.1	
826.24	4141.7	
826.41	4188.8	
826.58	6349.4	
826.75	5435.3	
826.92	3210.5	
827.1	3544.4	
827.27	8743.5	
827.44	6924.2	
827.61	3921.2	
827.79	4764.3	
827.96	4854.4	
828.13	5347.9	
828.3	4040.6	
828.47	3387.3	
828.65	5398.4	
828.82	5381.4	
828.99	5345.9	
829.16	4584	
829.34	5825.1	
829.51	5540.4	
829.68	4300.1	
829.85	4375.1	
830.02	6148.7	
830.2	5804.6	
830.37	3217.4	
830.54	5128.8	
830.71	6646.3	
830.88	5128.1	
831.05	3302	
831.23	3847.5	
831.4	6334.4	
831.57	7182.2	
831.74	3859.1	
831.91	3418.1	
832.09	5366.4	
832.26	5790.3	
832.43	4063.9	
832.6	4547.2	
832.77	5387.5	
832.94	6270.9	
833.12	3211.2	
833.29	3997.6	
833.46	4995.7	
833.63	7431.4	
833.8	4403.8	
833.97	4087.7	
834.15	5863.3	
834.32	5586.9	
834.49	4203.1	
834.66	4320.5	
834.83	6067.4	
835	4859.1	
835.17	3837.9	
835.35	3932.8	
835.52	5742.5	
835.69	5596.4	
835.86	4070	
836.03	3401.7	
836.2	5764.3	
836.37	5347.2	
836.55	4052.2	
836.72	3713.7	
836.89	5331.5	
837.06	5913.2	
837.23	4119.8	
837.4	4550.6	
837.57	6691.4	
837.75	7394.5	
837.92	3741	
838.09	3958	
838.26	5412.8	
838.43	6135	
838.6	4283.7	
838.77	3783.3	
838.94	6974.7	
839.11	6694.8	
839.29	4007.2	
839.46	3163.4	
839.63	5853.1	
839.8	5499.5	
839.97	3916.4	
840.14	3926.6	
840.31	5543.9	
840.48	5827.8	
840.65	3291.1	
840.82	3792.8	
841	5825.1	
841.17	5776.6	
841.34	3617.4	
841.51	3633.8	
841.68	5685.8	
841.85	5443.5	
842.02	3793.5	
842.19	3069.9	
842.36	5522	
842.53	5537	
842.7	3586	
842.87	4433.9	
843.05	7356.3	
843.22	5439.4	
843.39	3390.8	
843.56	3665.2	
843.73	5197.7	
843.9	5919.3	
844.07	5927.5	
844.24	4927.4	
844.41	8596.7	
844.58	4990.2	
844.75	3486.3	
844.92	3749.1	
845.09	5788.9	
845.26	5774.6	
845.43	3594.9	
845.6	3790.8	
845.77	5815.5	
845.94	5479	
846.12	4022.9	
846.29	4242.7	
846.46	6036	
846.63	5812.1	
846.8	3627.6	
846.97	4273.4	
847.14	6271.6	
847.31	5745.2	
847.48	4029	
847.65	4483.7	
847.82	6077.7	
847.99	6015.6	
848.16	4809.3	
848.33	4509.6	
848.5	5287.2	
848.67	6249	
848.84	3567.6	
849.01	3753.9	
849.18	5197.7	
849.35	4857.8	
849.52	4567	
849.69	3530.7	
849.86	5978	
850.03	6270.2	
850.2	3630.4	
850.37	4388.8	
850.54	6193.7	
850.71	5458.5	
850.88	4359.4	
851.05	3532.7	
851.22	5709.7	
851.39	6348.7	
851.56	3366.9	
851.73	4109.6	
851.9	5068	
852.07	6044.2	
852.24	3986	
852.41	3539.6	
852.58	5580	
852.75	5160.9	
852.92	4065.9	
853.09	3474	
853.26	5386.8	
853.43	6244.9	
853.6	3588.7	
853.77	3048.1	
853.94	6394.4	
854.11	5768.4	
854.28	5325.4	
854.44	3927.3	
854.61	6856.6	
854.78	6160.3	
854.95	3566.2	
855.12	4495.3	
855.29	4629.1	
855.46	6639.5	
855.63	3599.6	
855.8	4989.5	
855.97	5292	
856.14	6114.6	
856.31	5173.2	
856.48	3895.9	
856.65	5336.3	
856.82	5050.3	
856.99	3461.7	
857.16	3883.6	
857.33	7088	
857.49	5451.7	
857.66	3913	
857.83	4197.7	
858	5434.6	
858.17	5622.4	
858.34	3375.7	
858.51	3590.8	
858.68	6483.2	
858.85	6531	
859.02	4168.3	
859.19	4457.7	
859.36	5032.5	
859.52	5162.2	
859.69	3596.9	
859.86	4284.4	
860.03	5189.6	
860.2	6408.1	
860.37	3187.3	
860.54	3607.8	
860.71	6021.7	
860.88	6481.1	
861.05	4028.4	
861.21	4554.7	
861.38	6490	
861.55	4982	
861.72	3255.6	
861.89	4061.1	
862.06	6130.3	
862.23	6638.1	
862.4	3515	
862.56	3826.3	
862.73	5872.2	
862.9	5601.9	
863.07	4212.7	
863.24	3247.4	
863.41	4920.6	
863.58	5046.2	
863.75	3720.5	
863.91	4135.5	
864.08	6477	
864.25	5975.3	
864.42	4574.5	
864.59	5036	
864.76	6799.3	
864.93	5092.6	
865.09	3482.9	
865.26	3800.3	
865.43	6265.4	
865.6	6670.9	
865.77	3132.7	
865.94	3545	
866.1	6370.5	
866.27	6088.6	
866.44	5500.2	
866.61	3395.5	
866.78	5462.6	
866.95	5933.6	
867.11	3457	
867.28	3190.7	
867.45	6143.9	
867.62	5200.5	
867.79	4161.5	
867.96	3538.2	
868.12	5025.7	
868.29	6090	
868.46	3542.3	
868.63	4825.7	
868.8	6339.1	
868.97	6036.7	
869.13	3705.5	
869.3	3775.1	
869.47	5894.1	
869.64	6147.3	
869.81	3630.4	
869.97	3627	
870.14	5782.8	
870.31	6487.3	
870.48	3490.4	
870.65	4552	
870.81	5351.3	
870.98	5303.6	
871.15	4105.5	
871.32	3672.7	
871.48	5870.2	
871.65	6604.7	
871.82	3583.9	
871.99	3988.8	
872.16	7036.8	
872.32	6358.3	
872.49	3632.4	
872.66	3590.8	
872.83	6081.1	
872.99	5309.7	
873.16	4115.1	
873.33	3594.9	
873.5	5660.6	
873.67	5649	
873.83	3814	
874	4893.3	
874.17	5793	
874.34	6937.8	
874.5	4681	
874.67	4485.1	
874.84	6435.4	
875.01	5063.9	
875.17	5083.7	
875.34	3521.8	
875.51	5709.7	
875.68	6894.8	
875.84	4328.7	
876.01	5320.6	
876.18	6013.5	
876.34	5954.1	
876.51	3653.6	
876.68	3539.6	
876.85	5467.4	
877.01	6254.5	
877.18	5154.1	
877.35	3579.2	
877.52	5495.4	
877.68	5038.7	
877.85	3469.3	
878.02	3520.5	
878.18	5563.6	
878.35	5225.7	
878.52	2846.7	
878.69	3993.5	
878.85	6072.2	
879.02	5977.3	
879.19	5152	
879.35	3910.3	
879.52	5998.5	
879.69	6219	
879.86	3091.1	
880.02	4012.7	
880.19	5542.5	
880.36	6873	
880.52	4127.3	
880.69	4328	
880.86	6064.7	
881.02	6128.2	
881.19	3946.4	
881.36	3902.1	
881.52	5982.8	
881.69	5283.8	
881.86	3841.3	
882.02	3746.4	
882.19	6263.4	
882.36	7391.1	
882.52	3661.8	
882.69	5070.1	
882.86	5778	
883.02	5628.5	
883.19	4364.2	
883.36	4080.2	
883.52	6165.1	
883.69	6959	
883.86	3633.1	
884.02	3265.8	
884.19	6006.7	
884.36	5621.7	
884.52	4071.4	
884.69	3827	
884.86	5270.8	
885.02	6736.5	
885.19	4029	
885.36	4081.6	
885.52	5544.5	
885.69	5776.6	
885.86	5264	
886.02	4566.3	
886.19	6018.3	
886.35	5466.7	
886.52	3993.5	
886.69	5059.8	
886.85	5115.8	
887.02	6453.8	
887.19	6453.8	
887.35	6453.8	
887.52	6453.8	
887.68	6453.8	
887.85	6453.8	
888.02	6453.8	
888.18	6453.8	
888.35	6453.8	
888.51	6453.8	
888.68	6453.8	
888.85	6453.8	
889.01	6453.8	
889.18	6453.8	
889.35	6453.8	
889.51	6453.8	
889.68	6453.8	
889.84	6453.8	
890.01	6453.8	
890.17	6453.8	
890.34	6453.8	
890.51	6453.8	
890.67	6453.8	
890.84	6453.8	
891	6453.8	
891.17	6453.8	
891.34	6453.8	
891.5	6453.8	
891.67	6453.8	
891.83	6453.8	
892	6453.8	
892.16	6453.8	
892.33	6453.8	
892.5	6453.8	
892.66	6453.8	
892.83	6453.8	
892.99	6453.8	
893.16	6453.8	
893.32	6453.8	
893.49	6453.8	
893.65	6453.8	
893.82	6453.8	
893.99	6453.8	
894.15	6453.8	
894.32	6453.8	
894.48	6453.8	
894.65	6453.8	
894.81	6453.8	
894.98	6453.8	
895.14	6453.8	
895.31	6453.8	
895.47	6453.8	
895.64	6453.8	
895.81	6453.8	
895.97	6453.8	
896.14	6453.8	
896.3	6453.8	
896.47	6453.8	
896.63	6453.8	
896.8	6453.8	
896.96	6453.8	
897.13	6453.8	
897.29	6453.8	
897.46	6453.8	
897.62	6453.8	
897.79	6453.8	
897.95	6453.8	
898.12	6453.8	
898.28	6453.8	
898.45	6453.8	
898.61	6453.8	
898.78	6453.8	
898.94	6453.8	
899.11	6453.8	
899.27	6453.8	
899.44	6453.8	
899.6	6453.8	
899.77	6453.8	
899.93	6453.8	
900.1	6453.8	
900.26	6453.8	
900.43	6453.8	
900.59	6453.8	
900.76	6453.8	
900.92	6453.8	
901.09	6453.8	
901.25	6453.8	
901.42	6453.8	
901.58	6453.8	
901.75	6453.8	
901.91	6453.8	
902.07	6453.8	
902.24	6453.8	
902.4	6453.8	
902.57	6453.8	
902.73	6453.8	
902.9	6453.8	
903.06	6453.8	
903.23	6453.8	
903.39	6453.8	
903.56	6453.8	
903.72	6453.8	
903.88	6453.8	
904.05	6453.8	
904.21	6453.8	
904.38	6453.8	
904.54	6453.8	
904.71	6453.8	
904.87	6453.8	
905.03	6453.8	
905.2	6453.8	
905.36	6453.8	
905.53	6453.8	
905.69	6453.8	
905.86	6453.8	
906.02	6453.8	
906.18	6453.8	
906.35	6453.8	
906.51	6453.8	
906.68	6453.8	
906.84	6453.8	
907.01	6453.8	
907.17	6453.8	
907.33	6453.8	
907.5	6453.8	
907.66	6453.8	
907.83	6453.8	
907.99	6453.8	
908.15	6453.8	
908.32	6453.8	
908.48	6453.8	
908.65	6453.8	
908.81	6453.8	
908.97	6453.8	
909.14	6453.8	
909.3	6453.8	
909.47	6453.8	
909.63	6453.8	
909.79	6453.8	
909.96	6453.8	
910.12	6453.8	
910.28	6453.8	
910.45	6453.8	
910.61	6453.8	
910.78	6453.8	
910.94	6453.8	
911.1	6453.8	
911.27	6453.8	
911.43	6453.8	
911.59	6453.8	
911.76	6453.8	
911.92	6453.8	
912.08	6453.8	
912.25	6453.8	
912.41	6453.8	
912.57	6453.8	
912.74	6453.8	
912.9	6453.8	
913.07	6453.8	
913.23	6453.8	
913.39	6453.8	
913.56	6453.8	
913.72	6453.8	
913.88	6453.8	
914.05	6453.8	
914.21	6453.8	
914.37	6453.8	
914.54	6453.8	
914.7	6453.8	
914.86	6453.8	
915.03	6453.8	
915.19	6453.8	
