Wavelength	Intensities	
nm	a.u.	
179.22	1644.7	
179.44	1634.6	
179.65	1654.8	
179.86	1614.5	
180.08	1687.5	
180.29	3706.1	
180.51	2885.6	
180.72	4817.5	
180.94	5296.7	
181.15	2613.2	
181.37	2531.3	
181.58	4591.5	
181.79	4844.8	
182.01	2703.3	
182.22	2785.9	
182.44	4844.8	
182.65	4212	
182.87	3470.6	
183.08	3116.3	
183.29	5083.1	
183.51	4274.1	
183.72	2802.3	
183.94	3949.2	
184.15	4562.2	
184.37	4500.8	
184.58	2566.8	
184.79	3288.4	
185.01	4369.7	
185.22	4874.2	
185.44	3465.2	
185.65	2994.1	
185.86	4606.6	
186.08	4232.5	
186.29	2492.4	
186.51	2682.8	
186.72	4303.5	
186.94	4955.4	
187.15	3052.8	
187.36	3082.2	
187.58	6083.8	
187.79	4622.9	
188.01	3148.4	
188.22	4691.9	
188.43	5410.7	
188.65	4830.5	
188.86	2729.9	
189.08	3113.6	
189.29	4482.3	
189.5	4371.7	
189.72	2762	
189.93	2868.5	
190.15	4941.1	
190.36	5708.4	
190.57	3081.5	
190.79	2983.9	
191	5005.2	
191.22	4900.8	
191.43	3203	
191.64	2730.6	
191.86	5103.5	
192.07	4939	
192.29	2792.1	
192.5	2919	
192.71	4954.7	
192.93	4438.6	
193.14	2819.4	
193.35	2966.1	
193.57	4389.5	
193.78	4910.3	
194	2372.9	
194.21	2832.3	
194.42	4304.8	
194.64	4606.6	
194.85	3062.4	
195.07	3474	
195.28	4469.4	
195.49	4095.9	
195.71	3652.2	
195.92	2702.6	
196.13	4764.3	
196.35	4706.9	
196.56	3867.2	
196.78	3116.3	
196.99	5654.4	
197.2	5261.2	
197.42	3404.4	
197.63	3065.8	
197.84	4193.6	
198.06	4750.6	
198.27	2882.2	
198.48	3636.5	
198.7	4407.9	
198.91	4577.9	
199.13	3100.6	
199.34	3118.4	
199.55	4947.2	
199.77	4040.6	
199.98	2788	
200.19	3105.4	
200.41	4567	
200.62	4321.2	
200.83	3220.8	
201.05	3396.2	
201.26	4559.5	
201.47	4373.1	
201.69	2811.9	
201.9	2737.5	
202.11	4605.2	
202.33	5254.4	
202.54	2948.4	
202.76	3220.8	
202.97	4613.4	
203.18	4635.9	
203.4	3202.3	
203.61	3225.6	
203.82	4642.7	
204.04	4323.9	
204.25	3121.8	
204.46	3017.3	
204.68	4608.6	
204.89	4645.5	
205.1	3016.7	
205.32	2676.7	
205.53	4794.3	
205.74	4937.7	
205.96	2424.8	
206.17	3150.5	
206.38	4806.6	
206.6	4915.8	
206.81	3522.5	
207.02	2927.2	
207.24	4772.4	
207.45	5048.9	
207.66	2998.9	
207.88	2654.2	
208.09	4712.4	
208.3	4536.3	
208.52	2791.4	
208.73	3050.1	
208.94	4540.3	
209.15	5013.4	
209.37	2964.8	
209.58	3024.2	
209.79	4954	
210.01	4476.9	
210.22	2489.6	
210.43	2579.8	
210.65	4589.5	
210.86	4788.2	
211.07	2983.2	
211.29	2747	
211.5	4709	
211.71	4513	
211.93	2753.2	
212.14	2784.6	
212.35	4539	
212.56	4565.6	
212.78	3096.5	
212.99	2621.4	
213.2	5167.7	
213.42	4468.7	
213.63	2850.1	
213.84	2960	
214.06	4171.7	
214.27	4222.2	
214.48	2946.3	
214.69	3149.1	
214.91	5056.4	
215.12	5092.6	
215.33	3144.3	
215.55	3433.1	
215.76	5404.6	
215.97	4751.3	
216.18	3002.3	
216.4	3016.7	
216.61	4379.2	
216.82	4919.2	
217.04	2820.7	
217.25	2868.5	
217.46	5016.2	
217.67	4773.8	
217.89	2571.6	
218.1	2593.4	
218.31	4607.9	
218.53	4681.7	
218.74	3003	
218.95	2861	
219.16	4571.7	
219.38	5188.2	
219.59	2813.2	
219.8	3301.3	
220.01	5521.3	
220.23	4598.4	
220.44	3543	
220.65	2764.8	
220.87	4642.7	
221.08	4957.4	
221.29	2661.7	
221.5	3300.6	
221.72	5790.3	
221.93	4345.1	
222.14	3084.2	
222.35	3594.9	
222.57	4627	
222.78	4842.1	
222.99	2971.6	
223.2	3161.4	
223.42	4737.6	
223.63	4823.6	
223.84	2355.8	
224.05	2408.4	
224.27	5466.7	
224.48	5163.6	
224.69	3597.6	
224.9	3168.9	
225.12	4705.5	
225.33	4562.9	
225.54	2570.2	
225.75	2849.4	
225.97	4291.2	
226.18	4549.9	
226.39	2955.9	
226.6	2779.8	
226.82	4440	
227.03	4240	
227.24	3069.2	
227.45	2696.5	
227.67	4858.5	
227.88	5172.5	
228.09	3463.1	
228.3	3423.5	
228.52	4849.6	
228.73	4497.3	
228.94	2917	
229.15	2634.4	
229.36	4532.2	
229.58	4573.8	
229.79	3007.8	
230	3321.1	
230.21	5369.8	
230.43	4613.4	
230.64	3080.8	
230.85	3127.2	
231.06	4913.1	
231.28	4873.5	
231.49	2658.9	
231.7	3078.8	
231.91	4807.9	
232.12	4556.7	
232.34	2760	
232.55	2994.8	
232.76	4997	
232.97	4613.4	
233.18	2772.9	
233.4	3078.8	
233.61	4634.6	
233.82	4438.6	
234.03	2923.8	
234.25	2888.3	
234.46	5904.3	
234.67	4622.3	
234.88	3136.8	
235.09	2846.7	
235.31	4717.2	
235.52	4431.8	
235.73	3107.5	
235.94	2695.8	
236.15	4386.7	
236.37	5297.4	
236.58	2766.1	
236.79	2988	
237	4783.4	
237.21	4221.5	
237.43	3172.3	
237.64	2568.8	
237.85	7231.4	
238.06	4296	
238.27	3099.3	
238.48	2676.7	
238.7	4834.6	
238.91	4494.6	
239.12	2963.4	
239.33	3092.4	
239.54	4422.9	
239.76	4511	
239.97	2942.9	
240.18	2947	
240.39	5360.2	
240.6	4671.4	
240.82	3163.4	
241.03	2675.3	
241.24	4546.5	
241.45	5157.5	
241.66	2778.4	
241.87	3223.5	
242.09	5119.9	
242.3	5219.6	
242.51	3251.5	
242.72	2979.8	
242.93	4900.8	
243.14	4549.9	
243.36	3411.2	
243.57	3652.9	
243.78	5136.3	
243.99	4788.2	
244.2	2973.7	
244.41	2746.3	
244.63	4221.5	
244.84	4734.2	
245.05	3182.5	
245.26	2919	
245.47	4805.2	
245.68	4856.4	
245.9	3764.2	
246.11	3079.5	
246.32	4446.1	
246.53	4732.9	
246.74	4584	
246.95	2603.7	
247.16	4321.2	
247.38	4610	
247.59	2654.2	
247.8	3067.2	
248.01	4295.3	
248.22	4569	
248.43	2756.6	
248.64	2945	
248.86	4250.9	
249.07	4406.5	
249.28	2767.5	
249.49	3080.1	
249.7	4910.3	
249.91	4948.6	
250.12	2590	
250.34	2632.3	
250.55	4579.9	
250.76	4607.2	
250.97	3151.1	
251.18	3071.3	
251.39	4941.1	
251.6	4623.6	
251.81	3151.1	
252.03	3114.3	
252.24	4383.3	
252.45	4765.6	
252.66	2646	
252.87	3237.8	
253.08	4592.2	
253.29	5702.2	
253.5	2700.6	
253.72	3570.3	
253.93	4532.8	
254.14	5281.7	
254.35	2905.4	
254.56	2920.4	
254.77	4683.7	
254.98	4334.9	
255.19	2887	
255.41	3480.9	
255.62	4723.3	
255.83	4934.2	
256.04	3170.9	
256.25	3066.5	
256.46	5382.1	
256.67	4401.8	
256.88	3056.9	
257.09	3364.1	
257.31	4235.2	
257.52	4343.7	
257.73	3735.5	
257.94	2894.5	
258.15	4481.6	
258.36	4533.5	
258.57	3472.7	
258.78	2379.7	
258.99	4905.6	
259.2	4448.9	
259.41	2917	
259.63	2972.3	
259.84	5175.2	
260.05	5352.7	
260.26	3626.3	
260.47	2812.5	
260.68	4987.5	
260.89	4446.1	
261.1	3422.2	
261.31	2738.8	
261.52	5068.7	
261.73	5191.6	
261.95	3590.1	
262.16	3160.7	
262.37	4975.2	
262.58	5099.4	
262.79	3529.3	
263	2889.7	
263.21	4575.8	
263.42	4156	
263.63	3144.3	
263.84	2897.9	
264.05	4954.7	
264.26	5078.3	
264.47	3508.9	
264.69	3130	
264.9	5072.8	
265.11	4644.8	
265.32	2766.1	
265.53	2848.7	
265.74	4691.2	
265.95	4113	
266.16	3014.6	
266.37	3329.3	
266.58	4639.3	
266.79	4446.1	
267	2884.2	
267.21	2750.4	
267.42	4261.1	
267.63	4553.3	
267.84	2945.7	
268.06	2620	
268.27	4889.9	
268.48	5000.5	
268.69	2942.9	
268.9	3345	
269.11	5029.1	
269.32	4158.7	
269.53	3011.9	
269.74	2800.3	
269.95	4686.4	
270.16	4174.4	
270.37	3051.5	
270.58	3403	
270.79	4498.7	
271	4922.6	
271.21	3192.8	
271.42	3054.2	
271.63	4740.4	
271.84	4244.8	
272.05	2508.8	
272.26	2714.2	
272.47	4584.7	
272.68	4657.1	
272.89	2937.5	
273.11	3241.9	
273.32	4402.5	
273.53	5147.2	
273.74	3181.9	
273.95	3119.7	
274.16	4905.6	
274.37	4491.9	
274.58	3263.1	
274.79	2745	
275	4697.4	
275.21	4978.6	
275.42	3812.6	
275.63	3350.5	
275.84	4792.9	
276.05	5691.3	
276.26	3118.4	
276.47	2966.1	
276.68	4545.8	
276.89	5236.7	
277.1	3346.4	
277.31	2667.1	
277.52	4689.2	
277.73	4995.7	
277.94	2592	
278.15	2837.1	
278.36	4774.5	
278.57	4358.1	
278.78	2863.1	
278.99	3196.2	
279.2	4404.5	
279.41	4285	
279.62	3683.6	
279.83	2687.6	
280.04	5337.7	
280.25	4281.6	
280.46	3624.9	
280.67	3003	
280.88	4379.2	
281.09	5005.9	
281.3	3155.2	
281.51	3829.7	
281.72	4378.6	
281.93	4873.5	
282.14	2887.6	
282.35	3022.8	
282.56	4994.3	
282.77	4878.3	
282.98	2956.6	
283.19	3423.5	
283.4	5781.4	
283.61	4493.9	
283.82	2742.9	
284.03	3598.3	
284.24	4758.8	
284.45	4952.7	
284.66	3673.4	
284.87	3448.1	
285.08	4965	
285.29	5063.9	
285.5	2652.8	
285.71	2929.3	
285.92	4900.8	
286.12	5428.5	
286.33	3589.4	
286.54	2968.2	
286.75	4872.1	
286.96	4485.1	
287.17	2772.3	
287.38	3491.8	
287.59	4439.3	
287.8	4418.2	
288.01	2930.6	
288.22	3298.6	
288.43	4779.3	
288.64	4190.1	
288.85	3434.4	
289.06	3251.5	
289.27	5086.5	
289.48	5147.9	
289.69	3650.2	
289.9	3295.9	
290.11	5044.1	
290.32	4483.7	
290.53	3471.3	
290.74	3232.4	
290.94	4881.7	
291.15	4964.3	
291.36	2867.8	
291.57	3293.8	
291.78	4462.5	
291.99	4133.5	
292.2	2775	
292.41	3164.1	
292.62	4909	
292.83	4762.2	
293.04	3801.7	
293.25	2821.4	
293.46	4479.6	
293.67	4954	
293.88	2856.9	
294.09	2743.6	
294.29	4382	
294.5	4645.5	
294.71	3018	
294.92	2862.4	
295.13	4462.5	
295.34	5349.3	
295.55	2619.4	
295.76	2579.8	
295.97	4863.2	
296.18	5288.5	
296.39	2686.3	
296.6	2844.6	
296.81	4595	
297.01	4868.7	
297.22	2945	
297.43	2875.3	
297.64	4420.9	
297.85	4296	
298.06	2458.2	
298.27	2610.5	
298.48	4526	
298.69	4383.3	
298.9	3065.1	
299.11	2827.6	
299.31	4276.8	
299.52	4307.6	
299.73	3202.3	
299.94	3138.2	
300.15	4644.8	
300.36	4339.6	
300.57	3113.6	
300.78	3140.9	
300.99	4493.9	
301.2	4601.8	
301.4	2848.7	
301.61	2990	
301.82	4788.8	
302.03	4859.8	
302.24	3345	
302.45	2738.8	
302.66	4778.6	
302.87	4960.9	
303.08	2899.2	
303.29	3661.1	
303.49	4465.9	
303.7	4543.1	
303.91	2612.5	
304.12	3564.1	
304.33	4218.1	
304.54	4717.8	
304.75	2867.2	
304.96	2728.6	
305.16	4820.2	
305.37	5323.4	
305.58	2558.6	
305.79	2683.5	
306	4822.3	
306.21	4164.9	
306.42	2906.1	
306.63	4126.7	
306.83	4422.9	
307.04	4823.6	
307.25	3103.4	
307.46	3070.6	
307.67	4132.1	
307.88	4794.3	
308.09	2884.2	
308.29	2894.5	
308.5	4643.4	
308.71	4901.5	
308.92	3018.7	
309.13	2734.7	
309.34	4514.4	
309.55	4519.2	
309.75	3489.1	
309.96	3171.6	
310.17	4863.9	
310.38	4334.2	
310.59	3246	
310.8	3107.5	
311.01	4547.2	
311.21	4556	
311.42	2850.8	
311.63	2798.9	
311.84	4428.4	
312.05	4585.4	
312.26	3160	
312.46	3360	
312.67	4478.9	
312.88	4160.1	
313.09	2733.4	
313.3	2725.2	
313.51	5084.4	
313.71	5279.7	
313.92	2791.4	
314.13	2908.8	
314.34	4711.7	
314.55	4602.5	
314.76	3418.7	
314.96	3076	
315.17	4702.8	
315.38	4719.2	
315.59	2813.2	
315.8	2665.1	
316.01	5127.4	
316.21	5115.8	
316.42	2723.8	
316.63	3019.4	
316.84	4517.8	
317.05	4975.2	
317.26	3246.7	
317.46	2899.9	
317.67	4571.1	
317.88	4813.4	
318.09	3364.8	
318.3	2626.9	
318.5	4462.5	
318.71	4748.6	
318.92	4128.7	
319.13	3218.7	
319.34	4926.7	
319.54	5029.8	
319.75	2663.7	
319.96	2511.5	
320.17	4800.4	
320.38	4964.3	
320.58	2566.1	
320.79	2985.3	
321	4990.2	
321.21	5076.2	
321.42	3081.5	
321.62	2552.5	
321.83	4367.6	
322.04	4567.7	
322.25	2978.4	
322.46	2795.5	
322.66	4629.1	
322.87	4791.6	
323.08	3252.9	
323.29	2695.8	
323.5	5285.1	
323.7	4286.4	
323.91	3556	
324.12	3312.9	
324.33	4693.3	
324.53	4835.3	
324.74	3188.7	
324.95	3287.7	
325.16	4178.5	
325.37	4468	
325.57	2758.6	
325.78	2788	
325.99	4669.4	
326.2	4259.8	
326.4	3765.5	
326.61	2546.3	
326.82	4553.3	
327.03	4603.2	
327.24	3778.5	
327.44	3516.4	
327.65	4757.4	
327.86	4017.4	
328.07	3162.1	
328.27	2736.8	
328.48	5085.8	
328.69	4207.2	
328.9	3725.9	
329.1	2878.1	
329.31	4544.4	
329.52	5094.7	
329.73	2840.5	
329.93	3073.3	
330.14	4603.8	
330.35	4724	
330.56	4232.5	
330.76	3295.9	
330.97	4458.4	
331.18	4576.5	
331.39	3063.8	
331.59	2544.9	
331.8	4945.2	
332.01	5046.9	
332.22	2845.3	
332.42	3160	
332.63	4669.4	
332.84	4328	
333.05	3077.4	
333.25	2828.2	
333.46	4417.5	
333.67	4580.6	
333.88	2910.2	
334.08	3144.3	
334.29	5720	
334.5	4945.2	
334.7	2717.7	
334.91	3708.9	
335.12	4282.3	
335.33	4777.2	
335.53	3044.6	
335.74	4201.1	
335.95	4558.8	
336.16	4263.9	
336.36	3013.9	
336.57	3447.4	
336.78	4242	
336.98	4915.8	
337.19	3679.5	
337.4	2943.6	
337.61	5399.8	
337.81	4261.1	
338.02	2899.2	
338.23	3444	
338.43	5091.9	
338.64	4338.3	
338.85	2807.1	
339.05	3504.1	
339.26	5203.9	
339.47	4156	
339.68	2793.4	
339.88	3868.6	
340.09	4844.1	
340.3	4917.9	
340.5	3190.1	
340.71	2551.1	
340.92	4269.3	
341.13	5051	
341.33	2687.6	
341.54	3143.6	
341.75	4736.3	
341.95	4446.8	
342.16	3093.1	
342.37	3251.5	
342.57	4289.1	
342.78	4524	
342.99	3355.3	
343.19	2572.9	
343.4	4844.8	
343.61	4734.2	
343.81	3001	
344.02	2691	
344.23	4872.8	
344.43	5070.1	
344.64	3353.9	
344.85	3312.2	
345.06	4777.9	
345.26	4944.5	
345.47	3186	
345.68	3675.4	
345.88	4180.6	
346.09	4887.1	
346.3	3274	
346.5	2544.9	
346.71	4550.6	
346.92	4431.1	
347.12	2671.9	
347.33	3118.4	
347.54	4944.5	
347.74	5155.4	
347.95	3127.2	
348.16	2482.8	
348.36	4424.3	
348.57	4313.7	
348.78	3223.5	
348.98	3299.3	
349.19	4610	
349.39	4203.8	
349.6	2635.1	
349.81	2825.5	
350.01	4788.2	
350.22	4385.4	
350.43	3104	
350.63	3560.7	
350.84	4549.9	
351.05	4412.7	
351.25	2788.7	
351.46	2620	
351.67	4890.5	
351.87	4370.4	
352.08	2985.9	
352.29	3300	
352.49	4832.5	
352.7	4650.9	
352.9	2755.2	
353.11	3272.7	
353.32	5257.8	
353.52	4410	
353.73	2777	
353.94	3368.2	
354.14	4788.8	
354.35	4576.5	
354.55	2853.5	
354.76	3067.2	
354.97	4785.4	
355.17	4554.7	
355.38	2783.2	
355.59	3512.9	
355.79	4409.3	
356	4543.1	
356.2	3081.5	
356.41	2828.9	
356.62	4263.2	
356.82	4585.4	
357.03	3286.3	
357.24	2990.7	
357.44	4386.7	
357.65	4485.1	
357.85	3773	
358.06	3184.6	
358.27	4304.8	
358.47	4379.2	
358.68	2780.5	
358.88	3281.5	
359.09	4839.4	
359.3	4987.5	
359.5	3666.5	
359.71	3375.7	
359.91	5223.7	
360.12	4837.3	
360.33	3367.5	
360.53	3627.6	
360.74	4537.6	
360.94	4496	
361.15	3480.2	
361.36	3048.7	
361.56	5047.6	
361.77	4683.7	
361.97	3770.3	
362.18	3148.4	
362.38	5046.9	
362.59	4400.4	
362.8	2971.6	
363	2968.9	
363.21	4305.5	
363.41	4737.6	
363.62	3309.5	
363.83	3867.2	
364.03	4915.1	
364.24	5279	
364.44	4012.7	
364.65	3943.7	
364.85	4723.3	
365.06	4546.5	
365.27	3141.6	
365.47	3217.4	
365.68	5300.8	
365.88	4692.6	
366.09	3410.6	
366.29	3160	
366.5	4819.6	
366.71	5079	
366.91	3977.2	
367.12	3543	
367.32	5567.1	
367.53	5048.9	
367.73	3553.9	
367.94	4156.7	
368.14	5033.2	
368.35	5554.1	
368.56	3503.4	
368.76	3348.4	
368.97	5178.6	
369.17	6151.4	
369.38	3237.8	
369.58	3379.1	
369.79	4497.3	
369.99	5365.7	
370.2	4010.6	
370.4	3457.7	
370.61	4891.2	
370.82	5740.5	
371.02	3362.8	
371.23	3002.3	
371.43	4597.7	
371.64	5406	
371.84	3481.5	
372.05	4108.2	
372.25	6151.4	
372.46	5106.3	
372.66	3476.1	
372.87	3492.5	
373.07	5185.5	
373.28	6154.1	
373.48	4119.8	
373.69	3888.4	
373.9	4932.9	
374.1	4980	
374.31	4148.5	
374.51	3761.4	
374.72	5509	
374.92	4795	
375.13	4199	
375.33	3758.7	
375.54	5194.3	
375.74	4985.4	
375.95	3863.2	
376.15	4595	
376.36	5353.4	
376.56	5223	
376.77	3822.2	
376.97	4149.9	
377.18	6038.8	
377.38	5457.2	
377.59	4297.3	
377.79	3665.2	
378	5303.6	
378.2	5447.6	
378.41	3732.1	
378.61	3616	
378.82	5664	
379.02	5203.2	
379.23	3830.4	
379.43	4526	
379.64	5774.6	
379.84	5476.3	
380.05	3713	
380.25	3681.6	
380.46	5546.6	
380.66	5254.4	
380.87	4515.8	
381.07	4741	
381.28	5856.5	
381.48	5492.7	
381.69	3717.1	
381.89	3757.3	
382.1	4903.5	
382.3	5524.7	
382.51	4397	
382.71	4945.2	
382.91	5369.8	
383.12	5741.8	
383.32	3936.9	
383.53	4008.6	
383.73	5356.1	
383.94	5283.1	
384.14	4059.8	
384.35	3525.9	
384.55	5178.6	
384.76	5406	
384.96	3898.6	
385.17	4067.3	
385.37	5509	
385.58	4939.7	
385.78	4061.8	
385.98	3381.2	
386.19	5124.7	
386.39	5393	
386.6	3730.7	
386.8	3857.7	
387.01	5450.3	
387.21	5528.8	
387.42	4113.7	
387.62	4502.8	
387.83	5098.8	
388.03	5281.7	
388.23	3963.5	
388.44	4472.8	
388.64	4917.9	
388.85	5107.6	
389.05	4169	
389.26	4601.8	
389.46	6344.6	
389.67	5840.8	
389.87	4205.2	
390.07	4244.8	
390.28	5282.4	
390.48	5110.4	
390.69	3791.5	
390.89	4055	
391.1	5244.8	
391.3	5712.5	
391.5	4724	
391.71	5053	
391.91	5698.8	
392.12	6182.1	
392.32	4757.4	
392.53	4242.7	
392.73	5398.4	
392.93	5371.1	
393.14	4059.8	
393.34	4764.3	
393.55	5682.4	
393.75	5375.2	
393.95	4027.7	
394.16	3976.5	
394.36	5250.3	
394.57	5666	
394.77	3802.4	
394.98	3936.9	
395.18	5231.9	
395.38	5371.8	
395.59	4560.8	
395.79	3908.2	
396	5438	
396.2	5692	
396.4	4501.4	
396.61	4519.2	
396.81	5825.1	
397.02	5375.9	
397.22	4734.2	
397.42	4764.9	
397.63	5916.6	
397.83	5426.4	
398.04	4099.4	
398.24	4478.9	
398.44	5683.8	
398.65	5208	
398.85	4011.3	
399.05	4044.7	
399.26	5504.9	
399.46	6529.6	
399.67	4328	
399.87	4158.1	
400.07	5724.8	
400.28	5992.4	
400.48	4263.9	
400.69	4945.8	
400.89	6120	
401.09	6309.8	
401.3	4303.5	
401.5	4942.4	
401.7	6598.6	
401.91	6759	
402.11	4598.4	
402.32	4609.3	
402.52	6260.6	
402.72	6092	
402.93	4756.1	
403.13	4070	
403.33	6661.4	
403.54	5745.2	
403.74	4466.6	
403.94	5030.5	
404.15	5760.9	
404.35	6496.8	
404.56	4250.9	
404.76	5362.9	
404.96	6053.1	
405.17	5880.4	
405.37	4771.1	
405.57	4712.4	
405.78	6178.7	
405.98	5730.9	
406.18	4519.2	
406.39	4917.2	
406.59	6143.2	
406.79	5797.8	
407	4291.9	
407.2	4244.8	
407.4	6383.5	
407.61	6283.9	
407.81	4450.9	
408.01	5537.7	
408.22	5445.5	
408.42	6767.9	
408.62	5178.6	
408.83	4930.1	
409.03	6092	
409.23	6077.7	
409.44	5114.5	
409.64	5237.3	
409.84	6866.2	
410.05	6907.1	
410.25	5371.8	
410.45	5239.4	
410.66	6754.9	
410.86	8291.5	
411.06	5655.1	
411.27	5504.3	
411.47	8132.5	
411.67	6872.3	
411.88	5669.5	
412.08	5882.4	
412.28	7380.9	
412.49	7653.9	
412.69	5670.8	
412.89	5749.3	
413.09	7588.4	
413.3	7571.3	
413.5	5898.1	
413.7	5707	
413.91	7158.3	
414.11	7638.2	
414.31	5742.5	
414.52	6168.5	
414.72	7520.1	
414.92	7467.6	
415.12	5793.7	
415.33	6200.6	
415.53	7751.6	
415.73	7869.7	
415.94	6351.4	
416.14	6054.5	
416.34	7220.5	
416.55	7040.2	
416.75	6834.8	
416.95	6391	
417.15	7929.7	
417.36	8233.5	
417.56	7057.3	
417.76	6396.5	
417.97	8064.9	
418.17	7967.3	
418.37	6208.1	
418.57	6309.1	
418.78	7851.2	
418.98	7582.3	
419.18	6768.5	
419.38	6706.4	
419.59	7599.3	
419.79	7293.5	
419.99	6148	
420.2	6351.4	
420.4	7890.1	
420.6	7908.6	
420.8	6084.5	
421.01	5913.9	
421.21	7843	
421.41	7853.3	
421.61	6311.8	
421.82	6105.7	
422.02	7630.7	
422.22	8117.5	
422.42	6653.2	
422.63	6276.3	
422.83	7584.3	
423.03	8383	
423.23	6341.9	
423.44	5670.1	
423.64	7473	
423.84	7243.7	
424.04	5978.7	
424.25	5767.1	
424.45	8109.3	
424.65	7991.9	
424.85	5605.3	
425.06	5950	
425.26	8251.3	
425.46	7417.7	
425.66	6244.9	
425.87	6051.1	
426.07	7907.9	
426.27	7733.8	
426.47	6076.3	
426.67	5724.1	
426.88	8127	
427.08	7742	
427.28	6378.7	
427.48	5627.8	
427.69	6992.4	
427.89	7352.2	
428.09	6189	
428.29	5674.2	
428.5	7798	
428.7	7555.6	
428.9	5655.1	
429.1	5892.7	
429.3	7493.5	
429.51	7714	
429.71	5876.3	
429.91	6443.6	
430.11	7758.4	
430.31	8202.8	
430.52	6124.8	
430.72	6234.7	
430.92	8163.9	
431.12	7804.8	
431.32	5937.1	
431.53	6171.2	
431.73	7208.2	
431.93	8141.4	
432.13	5786.9	
432.33	5879	
432.54	7585.7	
432.74	7640.3	
432.94	5790.3	
433.14	6447.7	
433.34	7940	
433.55	7739.3	
433.75	6369.2	
433.95	7634.1	
434.15	7815.7	
434.35	7628.7	
434.56	6009.4	
434.76	5801.9	
434.96	7763.2	
435.16	8028.7	
435.36	5967.8	
435.56	6748.1	
435.77	7750.2	
435.97	7802.1	
436.17	7183.6	
436.37	6701	
436.57	7606.2	
436.78	7735.9	
436.98	6695.5	
437.18	7032	
437.38	8169.3	
437.58	7758.4	
437.78	7131	
437.99	6300.9	
438.19	8036.9	
438.39	9114.8	
438.59	6251.8	
438.79	5894.1	
438.99	8405.5	
439.2	7660.1	
439.4	5865.4	
439.6	5959.6	
439.8	7869.7	
440	8550.3	
440.2	6660	
440.4	6716	
440.61	8212.4	
440.81	8539.3	
441.01	6274.3	
441.21	6788.3	
441.41	8804.9	
441.61	8342.1	
441.81	7157.7	
442.02	7856	
442.22	9004.9	
442.42	8558.5	
442.62	6458.6	
442.82	6510.5	
443.02	8834.3	
443.22	8303.1	
443.43	6782.2	
443.63	6488.6	
443.83	8017.8	
444.03	8053.3	
444.23	7354.9	
444.43	6982.2	
444.63	8480	
444.83	9082.7	
445.04	6746.7	
445.24	7522.2	
445.44	8510	
445.64	8613.8	
445.84	7068.2	
446.04	7179.5	
446.24	8189.1	
446.44	8768	
446.65	6453.1	
446.85	6701.6	
447.05	8165.9	
447.25	8641.7	
447.45	6756.2	
447.65	6360.3	
447.85	8301.1	
448.05	7847.8	
448.25	7108.5	
448.46	6823.8	
448.66	8277.2	
448.86	8023.3	
449.06	6417	
449.26	6997.9	
449.46	8533.2	
449.66	7901.7	
449.86	6883.2	
450.06	6731.7	
450.26	8036.2	
450.47	8432.9	
450.67	6965.1	
450.87	7167.9	
451.07	8583	
451.27	8335.9	
451.47	6413.6	
451.67	7220.5	
451.87	8288.1	
452.07	8809	
452.27	6670.9	
452.47	6656.6	
452.67	8437.6	
452.88	8692.3	
453.08	6195.1	
453.28	7531.1	
453.48	9245.9	
453.68	8177.5	
453.88	6683.2	
454.08	6703	
454.28	8628.1	
454.48	8449.2	
454.68	7064.1	
454.88	7344	
455.08	8690.9	
455.28	8560.5	
455.48	6522.1	
455.68	7116	
455.89	9161.9	
456.09	8819.9	
456.29	6929.6	
456.49	7149.5	
456.69	9134.6	
456.89	8547.5	
457.09	7435.5	
457.29	7697.6	
457.49	8920.3	
457.69	9110.7	
457.89	7456.7	
458.09	6878.4	
458.29	8859.5	
458.49	9339.4	
458.69	7688.1	
458.89	7294.2	
459.09	9582.4	
459.29	9654.8	
459.49	7356.3	
459.69	7934.5	
459.9	9207.7	
460.1	9126.4	
460.3	7305.1	
460.5	7218.4	
460.7	9335.3	
460.9	9010.4	
461.1	7044.3	
461.3	7853.3	
461.5	9794.1	
461.7	9450	
461.9	7536.5	
462.1	7682.6	
462.3	9368.1	
462.5	9598.1	
462.7	7461.4	
462.9	7593.9	
463.1	10380	
463.3	10243	
463.5	7878.5	
463.7	8590.5	
463.9	9640.5	
464.1	9798.8	
464.3	8110.6	
464.5	8213.7	
464.7	10134	
464.9	9978.4	
465.1	9161.2	
465.3	8546.9	
465.5	10172	
465.7	10476	
465.9	8809.7	
466.1	8468.4	
466.3	10245	
466.5	10102	
466.7	9307.3	
466.9	8362.5	
467.1	10348	
467.3	10790	
467.5	9250	
467.7	8546.9	
467.9	10989	
468.1	11586	
468.3	9004.9	
468.5	9401.5	
468.7	10386	
468.9	10213	
469.1	8947.6	
469.3	9474.6	
469.5	11696	
469.7	10195	
469.9	9088.2	
470.1	8740.7	
470.3	10447	
470.5	10482	
470.7	9534.7	
470.9	8802.9	
471.1	10437	
471.3	10441	
471.5	8739.4	
471.69	9839.8	
471.89	10190	
472.09	9684.8	
472.29	9098.4	
472.49	9202.2	
472.69	9990.7	
472.89	10393	
473.09	8583	
473.29	8490.2	
473.49	9967.5	
473.69	9967.5	
473.89	8987.2	
474.09	8577.6	
474.29	10812	
474.49	10460	
474.69	9083.4	
474.89	8567.3	
475.09	10010	
475.29	10040	
475.49	8267	
475.69	8505.9	
475.88	10966	
476.08	10210	
476.28	8157.1	
476.48	8322.3	
476.68	10414	
476.88	10159	
477.08	8370.7	
477.28	8506.6	
477.48	9870.5	
477.68	10122	
477.88	8154.3	
478.08	8296.3	
478.28	10550	
478.48	9909.4	
478.67	8359.8	
478.87	7792.5	
479.07	10456	
479.27	9973.6	
479.47	8488.1	
479.67	8560.5	
479.87	10265	
480.07	10620	
480.27	8051.9	
480.47	9043.1	
480.67	9955.2	
480.87	10474	
481.06	8157.1	
481.26	8802.2	
481.46	10083	
481.66	9944.3	
481.86	8518.2	
482.06	9086.2	
482.26	9797.5	
482.46	10421	
482.66	8447.9	
482.86	8084	
483.05	10200	
483.25	9551.7	
483.45	10080	
483.65	8449.2	
483.85	9691.7	
484.05	9878	
484.25	8748.9	
484.45	9069.8	
484.65	10370	
484.84	10591	
485.04	8411.7	
485.24	8479.3	
485.44	10891	
485.64	9691	
485.84	8083.3	
486.04	8974.9	
486.24	9927.9	
486.44	10073	
486.63	8057.4	
486.83	8649.3	
487.03	10008	
487.23	10152	
487.43	8122.9	
487.63	9796.8	
487.83	10297	
488.02	10757	
488.22	8991.9	
488.42	9422	
488.62	10828	
488.82	10089	
489.02	8784.4	
489.22	8854.7	
489.41	10693	
489.61	10601	
489.81	8638.3	
490.01	8645.8	
490.21	10793	
490.41	11281	
490.61	8630.1	
490.8	8631.5	
491	10473	
491.2	9963.4	
491.4	8992.6	
491.6	8507.9	
491.8	10426	
491.99	10346	
492.19	8273.1	
492.39	8432.9	
492.59	10632	
492.79	10712	
492.99	9106	
493.18	8473.1	
493.38	10887	
493.58	11367	
493.78	9042.5	
493.98	8753	
494.18	10646	
494.37	10387	
494.57	9506	
494.77	9340.8	
494.97	11048	
495.17	11276	
495.37	9220.6	
495.56	9463.7	
495.76	11556	
495.96	11355	
496.16	10063	
496.36	9452.1	
496.55	11550	
496.75	11260	
496.95	9706	
497.15	9740.8	
497.35	11583	
497.54	11454	
497.74	9522.4	
497.94	10740	
498.14	12028	
498.34	11787	
498.53	9474.6	
498.73	9790.7	
498.93	11161	
499.13	11544	
499.33	9903.3	
499.52	10178	
499.72	11796	
499.92	11703	
500.12	9750.4	
500.32	9890.3	
500.51	11783	
500.71	11681	
500.91	10354	
501.11	10118	
501.31	11802	
501.5	12103	
501.7	10658	
501.9	9934.7	
502.1	11680	
502.29	11906	
502.49	10218	
502.69	10411	
502.89	11754	
503.09	11792	
503.28	9383.1	
503.48	9525.1	
503.68	11222	
503.88	11197	
504.07	10208	
504.27	9764.7	
504.47	11324	
504.67	11338	
504.86	10059	
505.06	9762	
505.26	11203	
505.46	12159	
505.65	9618.6	
505.85	9880.1	
506.05	11083	
506.25	11218	
506.44	9056.8	
506.64	9550.4	
506.84	10789	
507.04	11340	
507.23	9067	
507.43	9460.3	
507.63	11937	
507.83	10746	
508.02	9557.2	
508.22	9095.7	
508.42	12069	
508.62	10600	
508.81	9291.6	
509.01	9620.7	
509.21	10464	
509.4	10742	
509.6	9363.3	
509.8	9001.5	
510	10656	
510.19	11528	
510.39	8903.2	
510.59	9038.4	
510.79	10531	
510.98	11510	
511.18	9154.4	
511.38	9110.7	
511.57	11215	
511.77	10911	
511.97	9684.2	
512.17	8996	
512.36	11183	
512.56	10922	
512.76	8927.8	
512.95	8755.1	
513.15	11217	
513.35	10136	
513.55	9632.3	
513.74	8869.1	
513.94	11086	
514.14	10659	
514.33	9745.6	
514.53	9422	
514.73	10735	
514.92	10815	
515.12	9196.7	
515.32	9074.5	
515.51	10890	
515.71	11116	
515.91	10156	
516.11	9097.8	
516.3	12037	
516.5	10751	
516.7	9486.2	
516.89	9846	
517.09	10823	
517.29	10871	
517.48	9893.1	
517.68	9229.5	
517.88	10570	
518.07	11095	
518.27	9652.8	
518.47	9071.1	
518.66	11467	
518.86	10540	
519.06	8890.2	
519.25	9129.8	
519.45	10636	
519.65	11711	
519.84	9648.7	
520.04	10125	
520.24	12054	
520.43	11169	
520.63	9443.9	
520.83	9269.8	
521.02	10733	
521.22	11019	
521.42	9536.7	
521.61	9925.1	
521.81	10825	
522.01	10858	
522.2	9442.5	
522.4	9270.5	
522.6	11261	
522.79	10337	
522.99	9325.8	
523.18	9009.7	
523.38	11070	
523.58	11187	
523.77	10274	
523.97	9121	
524.17	12435	
524.36	11916	
524.56	10194	
524.76	9970.9	
524.95	11420	
525.15	11175	
525.34	9897.8	
525.54	9999.5	
525.74	11777	
525.93	11185	
526.13	10853	
526.33	10010	
526.52	12153	
526.72	11664	
526.91	10908	
527.11	10404	
527.31	12124	
527.5	12403	
527.7	10379	
527.89	9852.8	
528.09	11445	
528.29	11885	
528.48	10682	
528.68	10409	
528.87	12245	
529.07	12108	
529.27	10500	
529.46	10173	
529.66	12106	
529.85	12310	
530.05	10243	
530.25	10625	
530.44	12942	
530.64	11853	
530.83	10436	
531.03	10451	
531.23	12334	
531.42	12143	
531.62	11005	
531.81	10485	
532.01	12543	
532.21	12688	
532.4	10491	
532.6	10765	
532.79	13043	
532.99	12611	
533.18	10992	
533.38	11609	
533.58	12553	
533.77	12944	
533.97	11040	
534.16	11608	
534.36	13265	
534.55	12577	
534.75	11581	
534.95	11120	
535.14	13343	
535.34	12575	
535.53	10883	
535.73	12138	
535.92	13561	
536.12	12541	
536.31	10995	
536.51	11686	
536.71	12938	
536.9	12624	
537.1	11002	
537.29	10963	
537.49	13095	
537.68	12543	
537.88	11368	
538.07	10606	
538.27	12622	
538.46	13340	
538.66	10699	
538.86	11063	
539.05	12827	
539.25	12973	
539.44	11325	
539.64	10985	
539.83	12691	
540.03	13177	
540.22	10912	
540.42	10993	
540.61	12837	
540.81	12816	
541	11071	
541.2	11580	
541.39	12213	
541.59	12609	
541.78	11483	
541.98	10762	
542.18	12203	
542.37	12005	
542.57	10934	
542.76	11325	
542.96	12103	
543.15	12540	
543.35	10955	
543.54	10445	
543.74	12365	
543.93	12270	
544.13	10641	
544.32	11484	
544.52	12436	
544.71	11872	
544.91	9979.1	
545.1	10832	
545.3	11927	
545.49	12197	
545.69	9868.5	
545.88	10354	
546.08	12935	
546.27	12491	
546.47	10686	
546.66	10234	
546.86	12454	
547.05	12646	
547.24	10174	
547.44	10237	
547.63	11600	
547.83	12361	
548.02	10473	
548.22	10473	
548.41	11397	
548.61	12351	
548.8	10025	
549	10183	
549.19	11801	
549.39	12060	
549.58	9909.4	
549.78	10182	
549.97	12147	
550.17	11583	
550.36	10604	
550.55	11380	
550.75	11561	
550.94	12263	
551.14	9876.7	
551.33	10051	
551.53	11168	
551.72	11894	
551.92	10111	
552.11	9979.1	
552.31	11874	
552.5	11820	
552.69	10976	
552.89	9693.7	
553.08	11714	
553.28	11492	
553.47	9951.1	
553.67	10589	
553.86	12224	
554.06	10981	
554.25	9402.9	
554.44	9687.6	
554.64	12572	
554.83	12371	
555.03	9688.3	
555.22	9996.1	
555.42	11866	
555.61	11680	
555.8	9766.8	
556	9924.5	
556.19	11066	
556.39	11834	
556.58	9721.7	
556.78	9824.1	
556.97	11449	
557.16	11240	
557.36	10490	
557.55	9546.3	
557.75	10778	
557.94	12097	
558.13	9555.8	
558.33	9482.1	
558.52	11850	
558.72	10931	
558.91	9439.8	
559.1	9650.7	
559.3	10841	
559.49	10621	
559.69	9288.2	
559.88	9687.6	
560.07	11219	
560.27	11625	
560.46	9921.7	
560.66	9859.6	
560.85	11156	
561.04	10660	
561.24	9307.3	
561.43	9372.2	
561.63	10733	
561.82	10944	
562.01	10181	
562.21	9533.3	
562.4	11109	
562.59	11751	
562.79	9437.7	
562.98	9237	
563.18	10988	
563.37	12084	
563.56	9754.5	
563.76	9260.9	
563.95	10720	
564.14	10787	
564.34	9553.1	
564.53	9323	
564.73	11166	
564.92	11368	
565.11	9619.3	
565.31	9111.4	
565.5	11602	
565.69	10828	
565.89	9370.8	
566.08	9480	
566.27	11366	
566.47	11672	
566.66	9934.7	
566.85	9200.8	
567.05	11202	
567.24	10794	
567.44	9340.8	
567.63	10189	
567.82	11298	
568.02	11064	
568.21	9273.9	
568.4	9440.5	
568.6	11041	
568.79	11008	
568.98	9222.7	
569.18	9120.3	
569.37	11032	
569.56	12338	
569.76	9460.3	
569.95	10028	
570.14	11202	
570.34	11097	
570.53	9124.4	
570.72	9095	
570.91	11480	
571.11	10875	
571.3	9325.1	
571.49	9904.7	
571.69	11009	
571.88	10582	
572.07	9714.2	
572.27	9398.1	
572.46	10508	
572.65	11107	
572.85	9111.4	
573.04	9336	
573.23	11345	
573.43	10888	
573.62	9041.8	
573.81	9413.1	
574	11052	
574.2	10735	
574.39	9156.5	
574.58	9222.7	
574.78	11538	
574.97	10920	
575.16	9629.5	
575.36	9617.3	
575.55	11418	
575.74	11491	
575.93	8932.6	
576.13	9777	
576.32	10873	
576.51	11174	
576.71	9323	
576.9	10228	
577.09	11564	
577.28	11106	
577.48	9585.9	
577.67	8877.3	
577.86	10999	
578.05	11172	
578.25	9426.8	
578.44	9411.1	
578.63	11013	
578.83	11777	
579.02	9005.6	
579.21	10098	
579.4	11019	
579.6	10980	
579.79	9477.3	
579.98	10975	
580.17	11385	
580.37	11473	
580.56	9144.2	
580.75	9594.1	
580.94	11574	
581.14	11690	
581.33	9904	
581.52	9252	
581.71	11178	
581.91	11619	
582.1	9038.4	
582.29	9394	
582.48	11034	
582.68	11024	
582.87	9703.3	
583.06	9565.4	
583.25	11355	
583.45	10815	
583.64	10023	
583.83	10471	
584.02	11063	
584.21	11324	
584.41	10060	
584.6	9567.4	
584.79	11209	
584.98	11630	
585.18	9173.5	
585.37	9168.1	
585.56	10896	
585.75	11429	
585.94	9266.4	
586.14	9798.8	
586.33	11587	
586.52	10983	
586.71	9606.3	
586.91	9296.4	
587.1	10535	
587.29	11196	
587.48	9133.9	
587.67	9140.1	
587.87	11010	
588.06	10998	
588.25	9931.3	
588.44	9344.2	
588.63	10527	
588.83	10980	
589.02	8987.2	
589.21	8818.6	
589.4	10421	
589.59	10219	
589.78	8096.3	
589.98	8203.5	
590.17	9665	
590.36	9998.9	
590.55	7611.6	
590.74	7988.4	
590.94	10614	
591.13	9607	
591.32	7863.5	
591.51	7535.8	
591.7	9808.4	
591.89	9533.3	
592.09	7515.4	
592.28	7929.7	
592.47	8948.9	
592.66	10389	
592.85	7590.5	
593.05	7838.9	
593.24	9502.6	
593.43	10063	
593.62	7875.8	
593.81	8196.7	
594	9694.4	
594.19	9650	
594.39	7809.6	
594.58	7713.3	
594.77	9832.3	
594.96	10130	
595.15	7781.6	
595.34	8275.8	
595.54	9699.2	
595.73	9116.9	
595.92	7256.6	
596.11	7970	
596.3	10108	
596.49	9221.3	
596.68	7882.6	
596.88	8069	
597.07	9725.1	
597.26	9058.8	
597.45	7540.6	
597.64	8315.4	
597.83	9339.4	
598.02	9711.5	
598.22	7656.7	
598.41	8095.6	
598.6	9614.5	
598.79	9123	
598.98	7670.3	
599.17	8317.5	
599.36	9699.9	
599.55	10304	
599.74	8963.3	
599.94	8800.1	
600.13	10042	
600.32	9180.4	
600.51	7517.4	
600.7	7567.2	
600.89	10309	
601.08	10422	
601.27	7384.3	
601.47	8158.4	
601.66	9970.2	
601.85	10280	
602.04	8001.4	
602.23	8119.5	
602.42	9418.6	
602.61	9715.6	
602.8	7822.6	
602.99	7820.5	
603.18	9510.8	
603.37	9689.6	
603.57	8015.1	
603.76	8554.4	
603.95	10122	
604.14	9843.2	
604.33	7872.4	
604.52	7973.4	
604.71	9757.2	
604.9	9398.8	
605.09	8389.8	
605.28	8258.8	
605.47	10158	
605.66	9715.6	
605.86	8212.4	
606.05	7813	
606.24	10083	
606.43	8937.3	
606.62	8079.2	
606.81	8430.8	
607	9885.5	
607.19	9407.7	
607.38	7550.2	
607.57	7701	
607.76	9233.6	
607.95	8835.6	
608.14	8024.6	
608.33	8360.5	
608.52	9200.2	
608.72	9844.6	
608.91	7444.4	
609.1	7429.3	
609.29	9229.5	
609.48	9005.6	
609.67	8089.5	
609.86	7419.1	
610.05	9048.6	
610.24	9132.6	
610.43	7324.9	
610.62	7092.8	
610.81	9964.7	
611	9717.6	
611.19	7395.2	
611.38	7899.7	
611.57	9421.3	
611.76	10078	
611.95	7306.5	
612.14	7145.4	
612.33	9145.5	
612.52	8953.7	
612.71	7550.9	
612.9	7109.9	
613.09	8664.3	
613.28	10223	
613.47	7391.8	
613.66	7975.5	
613.85	9377.6	
614.04	8936	
614.24	7398.6	
614.43	6900.3	
614.62	9318.3	
614.81	9306.7	
615	7715.4	
615.19	7746.8	
615.38	8876.6	
615.57	9226.8	
615.76	7600.7	
615.95	8359.1	
616.14	9359.9	
616.33	9129.8	
616.52	7813.7	
616.71	8013.7	
616.9	9422.7	
617.09	9131.2	
617.28	7400.7	
617.47	8114.1	
617.66	8698.4	
617.85	8799.4	
618.04	7997.3	
618.22	7667.6	
618.41	8945.5	
618.6	9714.9	
618.79	7693.5	
618.98	7491.5	
619.17	9909.4	
619.36	8602.8	
619.55	7560.4	
619.74	7604.1	
619.93	9392	
620.12	8895	
620.31	7985.7	
620.5	8131.8	
620.69	9734	
620.88	10076	
621.07	8502.5	
621.26	7924.3	
621.45	9489.6	
621.64	9463	
621.83	8042.4	
622.02	7427.3	
622.21	9570.8	
622.4	9430.9	
622.59	8374.1	
622.78	8251.3	
622.97	9209	
623.16	9805.7	
623.35	7980.3	
623.54	7410.2	
623.72	9235.7	
623.91	9340.1	
624.1	8165.3	
624.29	7274.4	
624.48	10103	
624.67	9519	
624.86	8055.3	
625.05	7459.4	
625.24	10176	
625.43	9098.4	
625.62	9168.1	
625.81	7645.1	
626	9590	
626.19	9277.3	
626.38	8014.4	
626.56	7635.5	
626.75	9075.2	
626.94	9612.5	
627.13	8007.6	
627.32	7143.3	
627.51	9516.9	
627.7	10207	
627.89	7283.3	
628.08	7985.7	
628.27	8862.2	
628.46	8987.9	
628.65	7376.8	
628.83	7074.4	
629.02	9329.9	
629.21	8826.7	
629.4	7624.6	
629.59	7748.1	
629.78	8853.4	
629.97	9463.7	
630.16	7789.8	
630.35	7505.1	
630.54	9863	
630.72	9598.1	
630.91	7501.7	
631.1	7780.9	
631.29	9242.5	
631.48	9224.1	
631.67	7864.2	
631.86	7453.2	
632.05	9017.9	
632.24	9089.6	
632.42	7306.5	
632.61	7726.3	
632.8	9104.6	
632.99	8783.7	
633.18	7701	
633.37	7940.7	
633.56	9317.6	
633.75	9101.9	
633.93	7714.7	
634.12	7548.1	
634.31	9793.4	
634.5	9564.7	
634.69	7621.9	
634.88	7916.1	
635.07	9101.2	
635.25	9465	
635.44	8221.9	
635.63	8244.4	
635.82	9050.7	
636.01	8495	
636.2	8045.1	
636.39	7830.7	
636.57	9808.4	
636.76	9417.2	
636.95	7396.6	
637.14	8277.2	
637.33	9310.7	
637.52	9824.1	
637.7	7213.6	
637.89	7967.3	
638.08	9095.7	
638.27	9913.5	
638.46	7927	
638.65	8153	
638.83	9896.5	
639.02	8893.6	
639.21	7851.2	
639.4	8061.5	
639.59	9104.6	
639.78	8915.5	
639.96	7233.4	
640.15	7333.1	
640.34	9054.1	
640.53	9022	
640.72	7047.7	
640.91	7264.8	
641.09	8585.8	
641.28	9456.8	
641.47	7264.1	
641.66	7863.5	
641.85	9086.8	
642.03	9133.3	
642.22	7582.9	
642.41	7355.6	
642.6	8576.2	
642.79	8172.1	
642.97	7084.6	
643.16	7537.2	
643.35	8535.9	
643.54	8370	
643.73	6973.3	
643.91	7522.2	
644.1	8226	
644.29	8699.1	
644.48	6938.5	
644.67	6938.5	
644.85	8135.9	
645.04	8528.4	
645.23	6607.4	
645.42	6750.1	
645.6	8146.8	
645.79	8791.9	
645.98	6639.5	
646.17	5976.7	
646.36	7782.3	
646.54	8095.6	
646.73	7092.1	
646.92	6355.5	
647.11	7815.7	
647.29	8447.2	
647.48	6311.2	
647.67	6084.5	
647.86	8532.5	
648.05	8600.8	
648.23	6417.7	
648.42	7261.4	
648.61	8208.9	
648.8	8023.9	
648.98	6097.5	
649.17	6410.8	
649.36	7713.3	
649.55	7499.7	
649.73	6276.3	
649.92	6750.1	
650.11	7660.1	
650.3	7946.8	
650.48	6375.3	
650.67	6238.8	
650.86	8058.1	
651.05	7403.4	
651.23	6218.3	
651.42	6241.5	
651.61	7684	
651.79	7645.1	
651.98	6409.5	
652.17	6077.7	
652.36	7924.3	
652.54	7294.2	
652.73	6122.7	
652.92	6052.4	
653.11	7966.6	
653.29	7976.8	
653.48	5702.9	
653.67	6264.1	
653.85	7817.8	
654.04	8416.5	
654.23	6377.4	
654.42	6099.5	
654.6	7404.1	
654.79	7787.1	
654.98	5688.6	
655.16	6034	
655.35	7002	
655.54	6847.7	
655.73	5672.2	
655.91	5530.2	
656.1	7519.5	
656.29	6856.6	
656.47	5297.4	
656.66	6461.3	
656.85	7122.8	
657.03	7103	
657.22	5731.6	
657.41	5776	
657.59	7238.2	
657.78	7143.3	
657.97	5573.9	
658.16	6108.4	
658.34	7739.3	
658.53	8024.6	
658.72	6599.2	
658.9	6933.1	
659.09	7477.8	
659.28	7406.8	
659.46	5907	
659.65	5879.7	
659.84	7237.5	
660.02	7677.8	
660.21	5883.1	
660.4	5741.1	
660.58	7913.4	
660.77	7440.3	
660.96	6176.7	
661.14	5508.4	
661.33	8213.7	
661.52	8154.3	
661.7	5557.5	
661.89	7771.4	
662.08	7172	
662.26	6801.3	
662.45	5692	
662.64	5723.4	
662.82	7712	
663.01	7103.7	
663.2	5754.1	
663.38	6257.2	
663.57	7477.1	
663.75	7344	
663.94	5854.5	
664.13	6725.5	
664.31	7140.6	
664.5	7574.8	
664.69	6055.2	
664.87	6390.3	
665.06	6915.3	
665.25	7374.7	
665.43	6580.1	
665.62	6591	
665.8	7593.2	
665.99	7125.6	
666.18	5851	
666.36	5870.2	
666.55	7547.4	
666.74	7471.7	
666.92	5658.5	
667.11	6648.4	
667.29	7154.2	
667.48	7553.6	
667.67	6424.5	
667.85	5803.9	
668.04	7094.2	
668.22	7015.7	
668.41	5961.6	
668.6	6058.6	
668.78	6997.2	
668.97	7008.1	
669.15	6119.3	
669.34	5415.5	
669.53	6989	
669.71	7135.1	
669.9	5423.7	
670.08	5915.9	
670.27	6848.4	
670.46	7362.4	
670.64	6141.9	
670.83	6238.8	
671.01	6782.9	
671.2	7265.5	
671.38	5516.5	
671.57	5563.6	
671.76	7643.7	
671.94	8027.4	
672.13	5445.5	
672.31	6099.5	
672.5	7434.8	
672.69	6840.2	
672.87	5588.9	
673.06	5786.2	
673.24	7285.3	
673.43	6981.5	
673.61	5956.9	
673.8	5728.2	
673.98	7378.8	
674.17	7445.7	
674.36	6066.8	
674.54	6021	
674.73	7111.9	
674.91	7383.6	
675.1	5754.8	
675.28	5461.2	
675.47	7053.9	
675.65	7411.6	
675.84	5700.9	
676.03	5938.4	
676.21	6946	
676.4	6623.8	
676.58	6212.9	
676.77	6103.6	
676.95	7971.4	
677.14	6862.7	
677.32	5381.4	
677.51	5289.2	
677.69	7424.6	
677.88	6745.3	
678.06	5451.7	
678.25	5457.8	
678.44	6987	
678.62	6853.2	
678.81	5327.4	
678.99	5862.7	
679.18	7479.2	
679.36	7294.2	
679.55	5582.8	
679.73	5978	
679.92	7280.5	
680.1	6846.4	
680.29	6397.9	
680.47	5607.3	
680.66	6840.9	
680.84	7435.5	
681.03	5199.8	
681.21	5944.6	
681.4	6811.5	
681.58	6728.3	
681.77	5403.2	
681.95	5412.8	
682.14	7442.3	
682.32	7649.8	
682.51	6006	
682.69	5308.3	
682.88	6820.4	
683.06	7185.6	
683.25	5860.6	
683.43	6061.3	
683.62	6995.2	
683.8	7150.1	
683.99	6225.1	
684.17	5715.2	
684.36	7725.6	
684.54	6879.1	
684.73	5175.2	
684.91	5250.3	
685.1	7072.3	
685.28	6481.1	
685.46	5523.4	
685.65	5481	
685.83	6987	
686.02	6547.4	
686.2	5085.1	
686.39	5186.8	
686.57	6270.2	
686.76	7277.8	
686.94	5113.1	
687.13	5285.8	
687.31	6794.5	
687.5	6697.5	
687.68	4905.6	
687.86	5631.2	
688.05	7815.7	
688.23	6240.8	
688.42	5671.5	
688.6	5248.3	
688.79	6548.7	
688.97	6635.4	
689.16	5497.4	
689.34	4847.5	
689.52	7012.9	
689.71	7277.1	
689.89	5705.6	
690.08	5354.8	
690.26	6928.3	
690.45	6743.3	
690.63	5893.4	
690.81	5479	
691	6748.7	
691.18	6567.2	
691.37	5495.4	
691.55	6899.6	
691.74	6571.2	
691.92	7972.7	
692.1	5485.8	
692.29	5147.2	
692.47	6784.9	
692.66	6329.6	
692.84	5285.1	
693.02	5572.5	
693.21	6373.3	
693.39	6835.4	
693.58	5829.9	
693.76	5351.3	
693.94	7615.7	
694.13	7476.5	
694.31	5509	
694.5	6145.3	
694.68	6825.9	
694.86	7077.8	
695.05	5781.4	
695.23	5855.1	
695.42	7406.8	
695.6	8781.7	
695.78	6235.4	
695.97	5688.6	
696.15	7514	
696.34	7023.9	
696.52	5618.3	
696.7	6113.2	
696.89	7262.1	
697.07	6808.1	
697.25	6001.9	
697.44	6913.3	
697.62	7230	
697.81	7350.8	
697.99	5722.7	
698.17	6078.4	
698.36	6888.7	
698.54	7210.2	
698.72	5955.5	
698.91	5328.8	
699.09	7030.7	
699.28	6829.3	
699.46	5812.8	
699.64	5685.8	
699.83	6875	
700.01	7499	
700.19	6249	
700.38	5208.7	
700.56	7686	
700.74	6928.3	
700.93	5536.3	
701.11	6055.2	
701.29	7421.8	
701.48	8166.6	
701.66	5774.6	
701.84	5781.4	
702.03	7201.3	
702.21	7752.2	
702.39	5504.3	
702.58	6005.3	
702.76	7548.1	
702.94	7558.4	
703.13	5484.5	
703.31	7190.4	
703.49	7057.3	
703.68	8086.7	
703.86	5782.1	
704.04	6397.2	
704.23	7489.4	
704.41	7692.9	
704.59	5894.7	
704.78	6543.3	
704.96	8619.2	
705.14	7716.7	
705.33	5780.1	
705.51	6298.2	
705.69	7277.1	
705.87	7912	
706.06	6399.9	
706.24	5814.2	
706.42	7543.4	
706.61	7774.8	
706.79	6494.8	
706.97	5838.1	
707.16	7238.9	
707.34	7610.3	
707.52	6479.1	
707.7	5924.8	
707.89	7286.7	
708.07	7149.5	
708.25	6591	
708.44	6683.2	
708.62	7334.5	
708.8	7969.3	
708.98	6756.9	
709.17	6092	
709.35	7643.7	
709.53	7617.8	
709.72	5930.9	
709.9	6053.8	
710.08	7791.8	
710.26	7856	
710.45	6945.3	
710.63	6064	
710.81	7504.4	
710.99	7711.3	
711.18	6571.2	
711.36	6075.6	
711.54	7364.5	
711.72	7875.8	
711.91	6132.3	
712.09	5803.3	
712.27	7555	
712.45	8122.9	
712.64	6318	
712.82	5600.5	
713	7094.8	
713.18	7208.2	
713.37	5653.1	
713.55	6470.9	
713.73	7692.9	
713.91	6719.4	
714.1	5667.4	
714.28	5302.2	
714.46	7186.3	
714.64	6582.9	
714.83	4872.8	
715.01	5252.4	
715.19	6513.2	
715.37	5967.1	
715.55	4919.9	
715.74	5065.3	
715.92	6990.4	
716.1	5651.7	
716.28	5815.5	
716.47	5181.4	
716.65	6196.5	
716.83	6064	
717.01	4995	
717.19	5003.9	
717.38	7493.5	
717.56	5908.4	
717.74	5263.3	
717.92	4653	
718.1	6787.7	
718.29	6258.6	
718.47	4523.3	
718.65	5030.5	
718.83	6977.4	
719.01	6832.7	
719.2	4660.5	
719.38	5440.1	
719.56	6834.1	
719.74	7928.4	
719.92	5186.1	
720.11	5894.7	
720.29	6946.7	
720.47	6290.7	
720.65	4805.2	
720.83	5292.6	
721.02	6417	
721.2	6079.1	
721.38	5201.8	
721.56	4735.6	
721.74	5759.6	
721.92	5860.6	
722.11	5539.1	
722.29	5332.2	
722.47	6785.6	
722.65	6165.1	
722.83	4732.2	
723.01	5309	
723.2	6215.6	
723.38	6475.7	
723.56	4323.3	
723.74	5130.2	
723.92	5896.1	
724.1	6608.8	
724.29	4704.9	
724.47	5451	
724.65	6043.6	
724.83	5870.8	
725.01	4633.2	
725.19	5169.8	
725.37	5887.2	
725.56	5930.9	
725.74	4551.3	
725.92	4744.5	
726.1	5870.2	
726.28	6125.5	
726.46	5030.5	
726.64	4734.9	
726.83	6136.4	
727.01	6234.7	
727.19	4547.9	
727.37	5033.2	
727.55	6281.8	
727.73	6524.1	
727.91	4462.5	
728.09	4410	
728.28	6635.4	
728.46	6735.1	
728.64	5169.8	
728.82	5141.8	
729	7290.1	
729.18	6802.7	
729.36	4587.4	
729.54	6186.9	
729.72	7580.9	
729.91	6498.9	
730.09	6060.6	
730.27	5281	
730.45	6530.3	
730.63	6785.6	
730.81	5643.5	
730.99	4980	
731.17	7206.8	
731.35	6289.3	
731.53	5379.3	
731.71	5100.8	
731.9	7083.9	
732.08	7037.5	
732.26	5277.6	
732.44	5032.5	
732.62	7075	
732.8	6793.8	
732.98	5582.1	
733.16	4871.4	
733.34	6794.5	
733.52	5890.6	
733.7	5177.3	
733.88	5268.1	
734.07	6730.3	
734.25	6454.5	
734.43	4851.6	
734.61	5887.9	
734.79	7441	
734.97	6447.7	
735.15	4967.7	
735.33	5195.7	
735.51	6673.6	
735.69	6350.8	
735.87	5812.8	
736.05	5255.1	
736.23	6624.5	
736.41	6265.4	
736.59	5181.4	
736.77	5281.7	
736.95	6776	
737.13	6438.1	
737.32	4964.3	
737.5	5080.3	
737.68	7222.5	
737.86	6268.8	
738.04	4755.4	
738.22	5922	
738.4	6253.8	
738.58	6400.6	
738.76	5171.1	
738.94	4416.8	
739.12	6299.6	
739.3	6224.5	
739.48	5492	
739.66	5343.2	
739.84	6410.8	
740.02	6432	
740.2	4620.2	
740.38	4797	
740.56	6645	
740.74	5853.1	
740.92	5186.8	
741.1	5087.2	
741.28	6194.4	
741.46	6096.1	
741.64	4842.1	
741.82	5193.6	
742	6307.7	
742.18	6150.1	
742.36	4991.6	
742.54	4706.9	
742.72	6602.7	
742.9	5763.7	
743.08	5219.6	
743.26	4341	
743.44	6671.6	
743.62	6514.6	
743.8	5303.6	
743.98	4646.8	
744.16	6417	
744.34	6157.6	
744.52	5207.3	
744.7	5107.6	
744.88	6441.5	
745.06	6124.1	
745.24	5044.8	
745.42	5203.9	
745.6	6553.5	
745.78	6389	
745.96	4351.9	
746.14	4480.3	
746.32	6997.9	
746.5	6305	
746.68	4848.2	
746.86	4475.5	
747.03	6674.3	
747.21	5547.9	
747.39	4856.4	
747.57	4514.4	
747.75	6030.6	
747.93	6318	
748.11	4461.2	
748.29	4425	
748.47	7193.1	
748.65	5905.7	
748.83	4889.2	
749.01	4749.9	
749.19	6165.8	
749.37	5579.3	
749.55	4716.5	
749.73	4707.6	
749.91	6133.7	
750.09	5768.4	
750.26	4766.3	
750.44	4216.8	
750.62	5926.8	
750.8	5872.2	
750.98	4230.4	
751.16	4401.1	
751.34	6014.9	
751.52	5557.5	
751.7	4948.6	
751.88	4116.4	
752.06	6320	
752.24	6065.4	
752.42	4092.5	
752.59	4425.7	
752.77	5898.1	
752.95	6693.4	
753.13	4858.5	
753.31	4373.1	
753.49	5664	
753.67	5918.6	
753.85	4615.4	
754.03	4226.3	
754.21	6110.5	
754.38	6357.6	
754.56	4255.7	
754.74	3648.8	
754.92	5436.7	
755.1	5822.4	
755.28	3574.4	
755.46	3564.1	
755.64	6299.6	
755.82	6287.9	
755.99	3553.2	
756.17	3652.9	
756.35	4448.9	
756.53	5405.3	
756.71	2765.4	
756.89	3317.7	
757.07	5147.2	
757.25	4529.4	
757.42	3771	
757.6	4410	
757.78	5257.1	
757.96	4534.2	
758.14	3633.1	
758.32	3321.8	
758.5	4268.6	
758.67	4862.6	
758.85	3502.7	
759.03	3566.9	
759.21	5012.1	
759.39	4584	
759.57	3149.8	
759.75	3968.3	
759.92	5517.2	
760.1	5035.3	
760.28	4190.1	
760.46	4441.4	
760.64	4879.6	
760.82	4715.1	
760.99	4169.7	
761.17	3682.9	
761.35	5491.3	
761.53	4704.2	
761.71	3907.5	
761.89	4233.2	
762.06	5395	
762.24	5074.2	
762.42	3898.6	
762.6	3676.1	
762.78	5037.3	
762.96	5555.5	
763.13	4196.3	
763.31	3856.3	
763.49	5623.7	
763.67	4980	
763.85	4488.5	
764.02	4781.3	
764.2	5909.8	
764.38	5123.3	
764.56	3807.9	
764.74	4421.6	
764.91	5922.7	
765.09	5078.3	
765.27	3652.2	
765.45	3458.3	
765.63	5967.8	
765.8	5763	
765.98	3355.3	
766.16	3572.3	
766.34	4819.6	
766.52	4651.6	
766.69	4183.3	
766.87	3383.9	
767.05	5102.9	
767.23	5687.9	
767.41	3637.2	
767.58	3737.5	
767.76	5528.8	
767.94	5475.6	
768.12	3657	
768.29	4122.6	
768.47	5093.3	
768.65	5552.7	
768.83	3336.1	
769	4095.9	
769.18	4798.4	
769.36	5260.5	
769.54	4123.2	
769.72	3416.7	
769.89	5586.2	
770.07	5470.1	
770.25	3624.9	
770.43	4476.2	
770.6	5980.1	
770.78	6157.6	
770.96	3718.4	
771.14	4138.9	
771.31	5429.8	
771.49	4953.4	
771.67	3141.6	
771.85	3294.5	
772.02	4339	
772.2	4876.9	
772.38	3833.1	
772.55	3431	
772.73	5081.7	
772.91	4899.4	
773.09	3649.5	
773.26	3756.7	
773.44	5080.3	
773.62	4847.5	
773.8	3332	
773.97	3114.3	
774.15	5068	
774.33	4842.8	
774.5	3239.2	
774.68	3546.4	
774.86	5137	
775.04	4826.4	
775.21	3351.2	
775.39	3247.4	
775.57	5005.9	
775.74	5175.2	
775.92	3153.2	
776.1	3095.2	
776.27	4949.3	
776.45	5772.5	
776.63	3343.7	
776.81	2959.3	
776.98	4723.3	
777.16	5442.8	
777.34	3379.8	
777.51	3545.7	
777.69	4745.8	
777.87	4537.6	
778.04	3409.2	
778.22	3794.9	
778.4	4625.7	
778.57	5058.5	
778.75	2922.5	
778.93	3080.8	
779.1	4491.9	
779.28	4307.6	
779.46	2884.9	
779.64	3172.3	
779.81	5128.1	
779.99	5651.7	
780.17	3662.5	
780.34	3801	
780.52	4754	
780.69	4790.2	
780.87	3411.9	
781.05	3141.6	
781.22	4843.4	
781.4	4801.1	
781.58	3276.8	
781.75	2601.6	
781.93	4860.5	
782.11	4297.3	
782.28	3842.7	
782.46	3200.3	
782.64	4212	
782.81	4911.7	
782.99	3283.6	
783.17	3202.3	
783.34	4794.3	
783.52	4411.3	
783.69	3326.6	
783.87	3917.1	
784.05	4345.1	
784.22	4341	
784.4	3835.8	
784.58	3448.8	
784.75	5040.1	
784.93	4448.9	
785.1	3132.7	
785.28	3580.5	
785.46	4866	
785.63	4312.3	
785.81	3215.3	
785.99	3085.6	
786.16	4472.1	
786.34	4698.7	
786.51	3097.2	
786.69	3376.4	
786.87	4171	
787.04	4501.4	
787.22	2979.8	
787.39	3625.6	
787.57	4337.6	
787.75	5119.2	
787.92	3773.7	
788.1	3676.8	
788.27	4285.7	
788.45	4111.6	
788.63	3525.2	
788.8	2669.9	
788.98	4791.6	
789.15	4016.1	
789.33	2761.3	
789.5	3166.2	
789.68	5008.6	
789.86	5142.4	
790.03	3442.6	
790.21	3127.2	
790.38	5016.2	
790.56	4412.7	
790.73	2981.2	
790.91	2971.6	
791.09	4342.4	
791.26	4801.1	
791.44	3222.8	
791.61	2756.6	
791.79	4315.1	
791.96	4280.3	
792.14	2842.6	
792.32	2599.6	
792.49	4316.4	
792.67	4414.1	
792.84	2953.9	
793.02	2740.2	
793.19	4696.7	
793.37	5132.2	
793.54	2544.9	
793.72	2839.2	
793.89	5141.8	
794.07	4301.4	
794.25	3240.6	
794.42	2600.9	
794.6	5018.2	
794.77	4799.1	
794.95	3360	
795.12	3005.7	
795.3	4395.6	
795.47	4741.7	
795.65	3322.5	
795.82	3156.6	
796	4162.8	
796.17	5435.3	
796.35	3096.5	
796.52	3573.7	
796.7	4713.7	
796.87	4803.9	
797.05	3072	
797.22	3643.3	
797.4	4765.6	
797.57	5356.1	
797.75	3150.5	
797.92	2992.1	
798.1	4990.2	
798.27	4174.4	
798.45	2679.4	
798.62	2790.7	
798.8	4541.7	
798.97	4867.3	
799.15	3336.1	
799.32	3168.9	
799.5	4033.1	
799.67	4507.6	
799.85	3366.2	
800.02	2594.8	
800.2	4337.6	
800.37	4457.7	
800.55	3508.9	
800.72	3034.4	
800.9	4863.2	
801.07	5100.8	
801.25	3951.2	
801.42	3267.2	
801.6	4862.6	
801.77	4540.3	
801.95	3076	
802.12	2923.1	
802.29	4660.5	
802.47	4592.2	
802.64	3256.3	
802.82	2551.8	
802.99	4280.9	
803.17	4894.6	
803.34	3153.2	
803.52	2901.3	
803.69	5371.1	
803.87	4074.8	
804.04	3164.1	
804.21	3151.8	
804.39	5073.5	
804.56	4392.9	
804.74	2754.5	
804.91	3236.5	
805.09	4267.3	
805.26	4341.7	
805.44	2817.3	
805.61	3013.2	
805.78	4784.1	
805.96	4728.8	
806.13	3251.5	
806.31	3408.5	
806.48	3981.9	
806.66	4321.2	
806.83	3302	
807	3155.2	
807.18	4322.6	
807.35	4549.2	
807.53	2976.4	
807.7	2651.4	
807.87	5068.7	
808.05	4282.3	
808.22	3399.6	
808.4	2648	
808.57	4220.9	
808.74	4050.9	
808.92	2919.7	
809.09	3592.8	
809.27	4298	
809.44	4590.2	
809.61	2604.3	
809.79	2868.5	
809.96	5182.7	
810.14	4724	
810.31	2579.1	
810.48	3090.4	
810.66	4317.8	
810.83	4720.6	
811.01	2976.4	
811.18	3232.4	
811.35	4797.7	
811.53	3846.8	
811.7	3478.1	
811.87	3241.3	
812.05	4387.4	
812.22	4231.1	
812.39	2859	
812.57	2753.8	
812.74	4339	
812.92	5410.7	
813.09	3112.9	
813.26	3297.9	
813.44	5239.4	
813.61	4238.6	
813.78	2661.7	
813.96	3280.8	
814.13	4359.4	
814.3	4124.6	
814.48	3624.2	
814.65	3011.9	
814.82	5050.3	
815	4065.2	
815.17	3110.9	
815.34	3700.7	
815.52	4201.7	
815.69	4186.7	
815.87	3048.1	
816.04	3022.1	
816.21	4252.9	
816.38	3893.9	
816.56	3018.7	
816.73	2838.5	
816.9	5317.2	
817.08	4708.3	
817.25	2871.3	
817.42	3449.5	
817.6	4065.2	
817.77	4257	
817.94	3124.5	
818.12	2835.8	
818.29	4085.7	
818.46	5870.2	
818.64	2977.1	
818.81	2766.1	
818.98	4093.9	
819.16	5444.9	
819.33	3327.3	
819.5	3127.9	
819.67	4535.6	
819.85	5039.4	
820.02	3087.7	
820.19	3209.2	
820.37	4454.3	
820.54	4201.1	
820.71	3203	
820.88	3816	
821.06	4452.3	
821.23	4127.3	
821.4	3166.2	
821.58	3171.6	
821.75	4763.6	
821.92	4374.5	
822.09	2683.5	
822.27	2691.7	
822.44	4332.8	
822.61	4177.2	
822.79	2665.1	
822.96	4663.2	
823.13	4568.3	
823.3	4065.9	
823.48	2969.6	
823.65	2667.8	
823.82	4798.4	
823.99	4049.5	
824.17	3700	
824.34	2773.6	
824.51	5398.4	
824.68	4310.3	
824.86	2929.3	
825.03	3154.6	
825.2	4317.1	
825.37	5014.8	
825.55	2859.6	
825.72	3087.7	
825.89	5356.1	
826.06	5017.5	
826.24	3081.5	
826.41	3035.1	
826.58	5069.4	
826.75	4444.8	
826.92	2550.4	
827.1	2762	
827.27	6569.9	
827.44	5322	
827.61	2895.8	
827.79	3343	
827.96	4173.1	
828.13	4315.8	
828.3	3047.4	
828.47	2600.2	
828.65	4569.7	
828.82	4548.5	
828.99	3733.4	
829.16	3314.3	
829.34	4803.2	
829.51	4667.3	
829.68	3095.2	
829.85	3138.2	
830.02	5096	
830.2	4789.5	
830.37	2526.5	
830.54	3633.1	
830.71	5300.1	
830.88	4334.9	
831.05	2493.1	
831.23	2818.7	
831.4	5125.4	
831.57	5562.3	
831.74	2934.1	
831.91	2572.9	
832.09	4651.6	
832.26	4783.4	
832.43	2927.2	
832.6	3290.4	
832.77	4502.1	
832.94	5076.9	
833.12	2471.9	
833.29	2889	
833.46	4567	
833.63	5717.9	
833.8	3214.6	
833.97	2941.6	
834.15	4859.1	
834.32	4648.2	
834.49	3101.3	
834.66	3113.6	
834.83	4875.5	
835	4191.5	
835.17	2893.8	
835.35	2934.1	
835.52	4726	
835.69	4607.2	
835.86	2981.8	
836.03	2534	
836.2	4787.5	
836.37	4476.9	
836.55	2895.8	
836.72	2773.6	
836.89	4500.1	
837.06	4824.3	
837.23	2998.2	
837.4	3227.6	
837.57	5298.8	
837.75	5748.6	
837.92	2702	
838.09	2903.3	
838.26	4508.3	
838.43	4916.5	
838.6	3132.7	
838.77	2828.2	
838.94	5494	
839.11	5320.6	
839.29	2952.5	
839.46	2398.9	
839.63	4770.4	
839.8	4503.5	
839.97	2856.2	
840.14	2858.3	
840.31	4648.9	
840.48	4758.1	
840.65	2499.9	
840.82	2872.6	
841	4728.8	
841.17	4599.7	
841.34	2698.5	
841.51	2705.4	
841.68	4741	
841.85	4517.1	
842.02	2818.7	
842.19	2340.1	
842.36	4659.8	
842.53	4598.4	
842.7	2695.1	
842.87	3155.9	
843.05	5706.3	
843.22	4545.1	
843.39	2516.3	
843.56	2800.3	
843.73	4485.7	
843.9	4825	
844.07	4107.5	
844.24	3404.4	
844.41	6335.7	
844.58	4259.8	
844.75	2604.3	
844.92	2895.8	
845.09	4709.6	
845.26	4742.4	
845.43	2701.3	
845.6	2813.9	
845.77	4797.7	
845.94	4567	
846.12	2958.6	
846.29	3054.9	
846.46	4939.7	
846.63	4721.3	
846.8	2659.6	
846.97	3087	
847.14	5048.9	
847.31	4713.7	
847.48	2938.8	
847.65	3186.6	
847.82	4975.9	
847.99	4914.4	
848.16	3420.8	
848.33	3209.8	
848.5	4398.4	
848.67	5069.4	
848.84	2655.5	
849.01	2785.9	
849.18	4372.4	
849.35	4087.1	
849.52	3254.9	
849.69	2642.6	
849.86	4945.8	
850.03	4953.4	
850.2	2632.3	
850.37	3125.9	
850.54	4969.1	
850.71	4469.4	
850.88	3152.5	
851.05	2620	
851.22	4673.5	
851.39	5087.8	
851.56	2538.8	
851.73	2992.8	
851.9	4263.9	
852.07	4883	
852.24	2928.6	
852.41	2617.3	
852.58	4691.2	
852.75	4309.6	
852.92	2975	
853.09	2597.5	
853.26	4460.5	
853.43	5068	
853.6	2682.2	
853.77	2324.4	
853.94	5143.8	
854.11	4225.6	
854.28	3746.4	
854.44	2888.3	
854.61	5356.8	
854.78	4900.1	
854.95	2643.9	
855.12	3187.3	
855.29	3968.3	
855.46	5137	
855.63	2648.7	
855.8	3534.1	
855.97	4353.3	
856.14	4956.1	
856.31	3568.2	
856.48	2899.2	
856.65	4466.6	
856.82	4249.5	
856.99	2615.9	
857.16	2833.7	
857.33	5495.4	
857.49	4519.2	
857.66	2821.4	
857.83	3029.6	
858	4636.6	
858.17	4649.6	
858.34	2508.1	
858.51	2695.1	
858.68	5098.1	
858.85	5175.2	
859.02	3044	
859.19	3166.8	
859.36	4314.4	
859.52	4278.2	
859.69	2698.5	
859.86	3101.3	
860.03	4272.7	
860.2	5138.4	
860.37	2466.4	
860.54	2717.7	
860.71	4903.5	
860.88	5115.1	
861.05	2922.5	
861.21	3349.1	
861.38	5137	
861.55	4132.1	
861.72	2447.3	
861.89	2951.1	
862.06	4942.4	
862.23	5216.2	
862.4	2596.1	
862.56	2797.5	
862.73	4875.5	
862.9	4607.2	
863.07	2994.8	
863.24	2506.7	
863.41	4246.8	
863.58	4328.7	
863.75	2716.3	
863.91	3031.7	
864.08	5021.6	
864.25	4833.2	
864.42	3230.3	
864.59	3561.4	
864.76	5354.8	
864.93	4262.5	
865.09	2628.9	
865.26	2875.3	
865.43	5045.5	
865.6	5289.2	
865.77	2372.2	
865.94	2600.9	
866.1	5050.3	
866.27	4786.1	
866.44	3848.8	
866.61	2575	
866.78	4541	
866.95	4847.5	
867.11	2611.8	
867.28	2432.3	
867.45	4974.5	
867.62	4299.4	
867.79	3005.7	
867.96	2587.3	
868.12	4225.6	
868.29	4879.6	
868.46	2652.8	
868.63	3450.8	
868.8	4982	
868.97	4821.6	
869.13	2760.7	
869.3	2745	
869.47	4778.6	
869.64	4942.4	
869.81	2699.9	
869.97	2642.6	
870.14	4659.1	
870.31	5143.1	
870.48	2599.6	
870.65	3284.9	
870.81	4511.7	
870.98	4470.7	
871.15	2975.7	
871.32	2747	
871.48	4750.6	
871.65	5142.4	
871.82	2615.9	
871.99	2892.4	
872.16	5506.3	
872.32	5040.1	
872.49	2718.3	
872.66	2669.2	
872.83	4928.8	
872.99	4387.4	
873.16	3023.5	
873.33	2624.8	
873.5	4606.6	
873.67	4603.8	
873.83	2777	
874	3405.1	
874.17	4739.7	
874.34	5315.8	
874.5	3246.7	
874.67	3231.7	
874.84	5072.8	
875.01	4115.1	
875.17	3579.2	
875.34	2636.4	
875.51	4663.2	
875.68	5476.3	
875.84	3081.5	
876.01	3728.7	
876.18	4857.1	
876.34	4824.3	
876.51	2669.9	
876.68	2656.9	
876.85	4445.5	
877.01	5134.3	
877.18	3643.3	
877.35	2641.2	
877.52	4711	
877.68	4228.4	
877.85	2652.1	
878.02	2638.5	
878.18	4462.5	
878.35	4402.5	
878.52	2228.2	
878.69	3080.8	
878.85	4983.4	
879.02	4809.3	
879.19	3644.7	
879.35	2852.1	
879.52	4851	
879.69	4943.8	
879.86	2385.2	
880.02	2936.8	
880.19	4565.6	
880.36	5387.5	
880.52	3011.2	
880.69	3106.8	
880.86	4906.9	
881.02	4896.7	
881.19	2848	
881.36	2858.3	
881.52	4851.6	
881.69	4362.9	
881.86	2831.7	
882.02	2823.5	
882.19	4999.8	
882.36	5735	
882.52	2705.4	
882.69	3601.7	
882.86	4733.5	
883.02	4646.8	
883.19	3187.3	
883.36	3003.7	
883.52	4907.6	
883.69	5411.4	
883.86	2728.6	
884.02	2456.9	
884.19	4898.1	
884.36	4613.4	
884.52	2981.2	
884.69	2850.1	
884.86	4384	
885.02	5231.9	
885.19	2888.3	
885.36	3014.6	
885.52	4551.3	
885.69	4702.8	
885.86	3690.4	
886.02	3303.4	
886.19	4878.9	
886.35	4444.8	
886.52	2887.6	
886.69	3573	
886.85	4259.8	
887.02	5016.2	
887.19	5016.2	
887.35	5016.2	
887.52	5016.2	
887.68	5016.2	
887.85	5016.2	
888.02	5016.2	
888.18	5016.2	
888.35	5016.2	
888.51	5016.2	
888.68	5016.2	
888.85	5016.2	
889.01	5016.2	
889.18	5016.2	
889.35	5016.2	
889.51	5016.2	
889.68	5016.2	
889.84	5016.2	
890.01	5016.2	
890.17	5016.2	
890.34	5016.2	
890.51	5016.2	
890.67	5016.2	
890.84	5016.2	
891	5016.2	
891.17	5016.2	
891.34	5016.2	
891.5	5016.2	
891.67	5016.2	
891.83	5016.2	
892	5016.2	
892.16	5016.2	
892.33	5016.2	
892.5	5016.2	
892.66	5016.2	
892.83	5016.2	
892.99	5016.2	
893.16	5016.2	
893.32	5016.2	
893.49	5016.2	
893.65	5016.2	
893.82	5016.2	
893.99	5016.2	
894.15	5016.2	
894.32	5016.2	
894.48	5016.2	
894.65	5016.2	
894.81	5016.2	
894.98	5016.2	
895.14	5016.2	
895.31	5016.2	
895.47	5016.2	
895.64	5016.2	
895.81	5016.2	
895.97	5016.2	
896.14	5016.2	
896.3	5016.2	
896.47	5016.2	
896.63	5016.2	
896.8	5016.2	
896.96	5016.2	
897.13	5016.2	
897.29	5016.2	
897.46	5016.2	
897.62	5016.2	
897.79	5016.2	
897.95	5016.2	
898.12	5016.2	
898.28	5016.2	
898.45	5016.2	
898.61	5016.2	
898.78	5016.2	
898.94	5016.2	
899.11	5016.2	
899.27	5016.2	
899.44	5016.2	
899.6	5016.2	
899.77	5016.2	
899.93	5016.2	
900.1	5016.2	
900.26	5016.2	
900.43	5016.2	
900.59	5016.2	
900.76	5016.2	
900.92	5016.2	
901.09	5016.2	
901.25	5016.2	
901.42	5016.2	
901.58	5016.2	
901.75	5016.2	
901.91	5016.2	
902.07	5016.2	
902.24	5016.2	
902.4	5016.2	
902.57	5016.2	
902.73	5016.2	
902.9	5016.2	
903.06	5016.2	
903.23	5016.2	
903.39	5016.2	
903.56	5016.2	
903.72	5016.2	
903.88	5016.2	
904.05	5016.2	
904.21	5016.2	
904.38	5016.2	
904.54	5016.2	
904.71	5016.2	
904.87	5016.2	
905.03	5016.2	
905.2	5016.2	
905.36	5016.2	
905.53	5016.2	
905.69	5016.2	
905.86	5016.2	
906.02	5016.2	
906.18	5016.2	
906.35	5016.2	
906.51	5016.2	
906.68	5016.2	
906.84	5016.2	
907.01	5016.2	
907.17	5016.2	
907.33	5016.2	
907.5	5016.2	
907.66	5016.2	
907.83	5016.2	
907.99	5016.2	
908.15	5016.2	
908.32	5016.2	
908.48	5016.2	
908.65	5016.2	
908.81	5016.2	
908.97	5016.2	
909.14	5016.2	
909.3	5016.2	
909.47	5016.2	
909.63	5016.2	
909.79	5016.2	
909.96	5016.2	
910.12	5016.2	
910.28	5016.2	
910.45	5016.2	
910.61	5016.2	
910.78	5016.2	
910.94	5016.2	
911.1	5016.2	
911.27	5016.2	
911.43	5016.2	
911.59	5016.2	
911.76	5016.2	
911.92	5016.2	
912.08	5016.2	
912.25	5016.2	
912.41	5016.2	
912.57	5016.2	
912.74	5016.2	
912.9	5016.2	
913.07	5016.2	
913.23	5016.2	
913.39	5016.2	
913.56	5016.2	
913.72	5016.2	
913.88	5016.2	
914.05	5016.2	
914.21	5016.2	
914.37	5016.2	
914.54	5016.2	
914.7	5016.2	
914.86	5016.2	
915.03	5016.2	
915.19	5016.2	
