Wavelength	Intensities	
nm	a.u.	
179.22	1642.8	
179.44	1647.9	
179.65	1637.7	
179.86	1658.2	
180.08	1652	
180.29	3789.4	
180.51	2968.2	
180.72	4917.9	
180.94	5427.1	
181.15	2633.7	
181.37	2646	
181.58	4730.1	
181.79	4885.1	
182.01	2785.2	
182.22	2891.7	
182.44	4939.7	
182.65	4235.2	
182.87	3531.4	
183.08	3085.6	
183.29	5197.1	
183.51	4355.3	
183.72	2882.2	
183.94	3979.9	
184.15	4634.6	
184.37	4557.4	
184.58	2652.8	
184.79	3358	
185.01	4416.1	
185.22	4943.8	
185.44	3553.2	
185.65	3109.5	
185.86	4663.2	
186.08	4278.2	
186.29	2533.3	
186.51	2759.3	
186.72	4422.2	
186.94	5051.7	
187.15	3090.4	
187.36	3207.8	
187.58	6239.5	
187.79	4733.5	
188.01	3214.6	
188.22	4814.1	
188.43	5453.7	
188.65	4891.2	
188.86	2802.3	
189.08	3222.1	
189.29	4524.6	
189.5	4429.1	
189.72	2892.4	
189.93	3022.8	
190.15	5043.5	
190.36	5744.6	
190.57	3237.8	
190.79	3117	
191	5062.6	
191.22	5068.7	
191.43	3214.6	
191.64	2753.2	
191.86	5218.9	
192.07	5032.5	
192.29	2794.8	
192.5	2949.1	
192.71	5061.9	
192.93	4478.9	
193.14	2918.4	
193.35	3040.6	
193.57	4573.1	
193.78	5089.2	
194	2479.4	
194.21	2889.7	
194.42	4294.6	
194.64	4670.7	
194.85	3147.7	
195.07	3579.2	
195.28	4623.6	
195.49	4139.6	
195.71	3734.8	
195.92	2786.6	
196.13	4782	
196.35	4868	
196.56	4001	
196.78	3211.2	
196.99	5765	
197.2	5376.6	
197.42	3553.2	
197.63	3214.6	
197.84	4259.8	
198.06	4762.2	
198.27	2936.1	
198.48	3728.7	
198.7	4487.8	
198.91	4665.3	
199.13	3205.8	
199.34	3192.8	
199.55	5033.2	
199.77	4093.9	
199.98	2859	
200.19	3194.8	
200.41	4623.6	
200.62	4401.1	
200.83	3307.5	
201.05	3556	
201.26	4648.2	
201.47	4450.9	
201.69	2886.3	
201.9	2844.6	
202.11	4695.3	
202.33	5339.1	
202.54	3048.7	
202.76	3362.1	
202.97	4694.6	
203.18	4805.9	
203.4	3273.3	
203.61	3343	
203.82	4636.6	
204.04	4435.9	
204.25	3177.1	
204.46	3102.7	
204.68	4676.9	
204.89	4837.3	
205.1	3144.3	
205.32	2796.2	
205.53	4881.7	
205.74	4992.3	
205.96	2417.3	
206.17	3224.9	
206.38	4875.5	
206.6	5019.6	
206.81	3602.4	
207.02	3020.8	
207.24	4866	
207.45	5081	
207.66	3035.8	
207.88	2681.5	
208.09	4792.2	
208.3	4638.6	
208.52	2872.6	
208.73	3120.4	
208.94	4644.1	
209.15	5091.3	
209.37	3078.1	
209.58	3178.4	
209.79	5009.3	
210.01	4517.8	
210.22	2563.4	
210.43	2662.4	
210.65	4593.6	
210.86	4883	
211.07	3089	
211.29	2811.2	
211.5	4799.1	
211.71	4642.1	
211.93	2857.6	
212.14	2914.3	
212.35	4621.6	
212.56	4699.4	
212.78	3222.1	
212.99	2642.6	
213.2	5338.4	
213.42	4502.8	
213.63	2941.6	
213.84	3072.6	
214.06	4225	
214.27	4283.7	
214.48	3070.6	
214.69	3244.7	
214.91	5137	
215.12	5155.4	
215.33	3256.3	
215.55	3504.1	
215.76	5476.3	
215.97	4857.1	
216.18	3119.1	
216.4	3160.7	
216.61	4421.6	
216.82	5019.6	
217.04	2868.5	
217.25	2966.8	
217.46	5086.5	
217.67	4935.6	
217.89	2591.4	
218.1	2737.5	
218.31	4658.4	
218.53	4792.9	
218.74	3022.1	
218.95	2902.7	
219.16	4658.4	
219.38	5285.1	
219.59	2893.1	
219.8	3359.4	
220.01	5700.2	
220.23	4662.5	
220.44	3596.2	
220.65	2788	
220.87	4717.8	
221.08	5074.2	
221.29	2747.7	
221.5	3395.5	
221.72	5959.6	
221.93	4384	
222.14	3218.7	
222.35	3697.3	
222.57	4729.4	
222.78	4961.5	
222.99	3047.4	
223.2	3265.1	
223.42	4848.2	
223.63	4925.4	
223.84	2461	
224.05	2465.1	
224.27	5586.2	
224.48	5221.6	
224.69	3702.7	
224.9	3179.8	
225.12	4767.7	
225.33	4668	
225.54	2618	
225.75	2930	
225.97	4332.8	
226.18	4609.3	
226.39	3065.1	
226.6	2865.8	
226.82	4506.9	
227.03	4331.5	
227.24	3155.9	
227.45	2717	
227.67	4985.4	
227.88	5255.8	
228.09	3476.1	
228.3	3542.3	
228.52	4871.4	
228.73	4588.8	
228.94	2957.3	
229.15	2721.1	
229.36	4649.6	
229.58	4613.4	
229.79	3076.7	
230	3431	
230.21	5427.8	
230.43	4648.2	
230.64	3175.7	
230.85	3283.6	
231.06	4992.3	
231.28	4939.7	
231.49	2737.5	
231.7	3147.7	
231.91	4957.4	
232.12	4670.7	
232.34	2851.5	
232.55	3103.4	
232.76	5102.2	
232.97	4737	
233.18	2838.5	
233.4	3170.3	
233.61	4844.8	
233.82	4547.9	
234.03	3024.2	
234.25	2969.6	
234.46	6100.9	
234.67	4702.8	
234.88	3295.9	
235.09	2942.2	
235.31	4812.7	
235.52	4557.4	
235.73	3149.8	
235.94	2731.3	
236.15	4450.9	
236.37	5388.2	
236.58	2812.5	
236.79	3089	
237	4874.2	
237.21	4288.4	
237.43	3276.8	
237.64	2654.9	
237.85	7438.9	
238.06	4359.4	
238.27	3218	
238.48	2725.2	
238.7	4937.7	
238.91	4584	
239.12	3101.3	
239.33	3175.7	
239.54	4398.4	
239.76	4568.3	
239.97	3087.7	
240.18	3020.8	
240.39	5489.2	
240.6	4741	
240.82	3213.3	
241.03	2722.4	
241.24	4593.6	
241.45	5205.3	
241.66	2861	
241.87	3298.6	
242.09	5203.2	
242.3	5401.2	
242.51	3309.5	
242.72	3134.1	
242.93	4914.4	
243.14	4605.9	
243.36	3480.2	
243.57	3717.7	
243.78	5191.6	
243.99	4878.9	
244.2	3088.3	
244.41	2799.6	
244.63	4301.4	
244.84	4822.3	
245.05	3248.1	
245.26	3021.4	
245.47	4886.5	
245.68	4975.9	
245.9	3837.2	
246.11	3152.5	
246.32	4513	
246.53	4788.2	
246.74	4718.5	
246.95	2688.3	
247.16	4376.5	
247.38	4622.3	
247.59	2671.2	
247.8	3093.1	
248.01	4317.8	
248.22	4622.9	
248.43	2843.3	
248.64	3059.7	
248.86	4273.4	
249.07	4474.1	
249.28	2793.4	
249.49	3177.1	
249.7	5058.5	
249.91	5075.5	
250.12	2684.9	
250.34	2675.3	
250.55	4755.4	
250.76	4707.6	
250.97	3176.4	
251.18	3215.3	
251.39	5102.2	
251.6	4753.3	
251.81	3215.3	
252.03	3154.6	
252.24	4526	
252.45	5009.3	
252.66	2773.6	
252.87	3313.6	
253.08	4689.2	
253.29	5717.9	
253.5	2781.8	
253.72	3663.1	
253.93	4613.4	
254.14	5371.8	
254.35	2919	
254.56	3005.1	
254.77	4810.7	
254.98	4369	
255.19	2926.5	
255.41	3601.7	
255.62	4740.4	
255.83	5096.7	
256.04	3259.7	
256.25	3149.8	
256.46	5502.2	
256.67	4444.1	
256.88	3147	
257.09	3486.3	
257.31	4361.5	
257.52	4341.7	
257.73	3863.2	
257.94	2976.4	
258.15	4584.7	
258.36	4689.8	
258.57	3590.8	
258.78	2438.4	
258.99	4990.9	
259.2	4524.6	
259.41	2962	
259.63	3028.3	
259.84	5241.4	
260.05	5430.5	
260.26	3743	
260.47	2918.4	
260.68	5062.6	
260.89	4586.8	
261.1	3452.9	
261.31	2790.7	
261.52	5143.8	
261.73	5266	
261.95	3715	
262.16	3197.6	
262.37	5121.3	
262.58	5225.1	
262.79	3713.6	
263	3007.1	
263.21	4661.9	
263.42	4269.3	
263.63	3228.3	
263.84	3027.6	
264.05	5011.4	
264.26	5223	
264.47	3598.3	
264.69	3183.2	
264.9	5208.7	
265.11	4778.6	
265.32	2841.9	
265.53	2906.8	
265.74	4756.7	
265.95	4212	
266.16	3151.8	
266.37	3362.8	
266.58	4797	
266.79	4494.6	
267	2950.4	
267.21	2762.7	
267.42	4335.5	
267.63	4672.1	
267.84	3056.9	
268.06	2757.2	
268.27	4952	
268.48	5107.6	
268.69	3007.8	
268.9	3477.5	
269.11	5165	
269.32	4242.7	
269.53	3104.7	
269.74	2893.1	
269.95	4819.6	
270.16	4263.9	
270.37	3120.4	
270.58	3535.5	
270.79	4585.4	
271	4996.4	
271.21	3246.7	
271.42	3103.4	
271.63	4818.2	
271.84	4296	
272.05	2555.9	
272.26	2816.6	
272.47	4727.4	
272.68	4811.4	
272.89	3011.9	
273.11	3293.8	
273.32	4493.9	
273.53	5226.4	
273.74	3235.1	
273.95	3208.5	
274.16	4965.6	
274.37	4689.8	
274.58	3379.1	
274.79	2782.5	
275	4789.5	
275.21	5076.2	
275.42	3941.7	
275.63	3386.7	
275.84	4932.2	
276.05	5788.2	
276.26	3282.9	
276.47	3099.3	
276.68	4567.7	
276.89	5341.8	
277.1	3436.5	
277.31	2751.1	
277.52	4799.8	
277.73	5085.8	
277.94	2772.3	
278.15	2992.8	
278.36	4792.9	
278.57	4441.4	
278.78	2966.8	
278.99	3301.3	
279.2	4488.5	
279.41	4358.8	
279.62	3827.7	
279.83	2763.4	
280.04	5526.1	
280.25	4350.6	
280.46	3709.6	
280.67	3096.5	
280.88	4430.4	
281.09	5028.4	
281.3	3213.9	
281.51	3951.2	
281.72	4491.9	
281.93	4983.4	
282.14	2931.3	
282.35	3142.9	
282.56	5059.8	
282.77	4939	
282.98	3016.7	
283.19	3500.7	
283.4	5937.7	
283.61	4618.2	
283.82	2785.9	
284.03	3715.7	
284.24	4801.8	
284.45	5023.7	
284.66	3775.1	
284.87	3546.4	
285.08	5108.3	
285.29	5108.3	
285.5	2738.1	
285.71	3075.4	
285.92	5003.9	
286.12	5511.1	
286.33	3728.7	
286.54	3031	
286.75	5010	
286.96	4564.9	
287.17	2825.5	
287.38	3611.9	
287.59	4493.9	
287.8	4440.7	
288.01	3048.7	
288.22	3445.4	
288.43	4915.1	
288.64	4254.3	
288.85	3518.4	
289.06	3359.4	
289.27	4999.1	
289.48	5244.8	
289.69	3728	
289.9	3424.2	
290.11	5201.8	
290.32	4508.3	
290.53	3561.4	
290.74	3251.5	
290.94	4969.7	
291.15	5017.5	
291.36	2938.2	
291.57	3386.7	
291.78	4509.6	
291.99	4248.2	
292.2	2882.9	
292.41	3293.8	
292.62	5019.6	
292.83	4909.7	
293.04	3935.5	
293.25	2861	
293.46	4567.7	
293.67	5076.2	
293.88	2871.9	
294.09	2794.8	
294.29	4334.2	
294.5	4784.1	
294.71	3086.3	
294.92	2927.2	
295.13	4519.9	
295.34	5459.9	
295.55	2654.9	
295.76	2639.8	
295.97	4960.9	
296.18	5434.6	
296.39	2777.7	
296.6	2966.8	
296.81	4635.2	
297.01	4967	
297.22	3008.5	
297.43	2914.9	
297.64	4534.9	
297.85	4365.6	
298.06	2531.3	
298.27	2691	
298.48	4631.1	
298.69	4457.7	
298.9	3127.2	
299.11	2884.9	
299.31	4371.7	
299.52	4356.7	
299.73	3343.7	
299.94	3221.5	
300.15	4631.1	
300.36	4432.5	
300.57	3222.1	
300.78	3265.8	
300.99	4519.2	
301.2	4677.6	
301.4	2932.7	
301.61	3116.3	
301.82	4919.2	
302.03	4986.1	
302.24	3441.3	
302.45	2808.4	
302.66	4848.9	
302.87	5053	
303.08	2979.1	
303.29	3828.3	
303.49	4528.7	
303.7	4592.9	
303.91	2673.3	
304.12	3683.6	
304.33	4281.6	
304.54	4690.5	
304.75	2929.3	
304.96	2779.8	
305.16	4912.4	
305.37	5323.4	
305.58	2641.2	
305.79	2666.5	
306	4848.2	
306.21	4217.5	
306.42	2884.2	
306.63	4233.8	
306.83	4553.3	
307.04	4884.4	
307.25	3183.2	
307.46	3129.3	
307.67	4151.2	
307.88	4910.3	
308.09	2930.6	
308.29	2949.1	
308.5	4748.6	
308.71	5087.2	
308.92	3119.7	
309.13	2818.7	
309.34	4653.7	
309.55	4601.1	
309.75	3593.5	
309.96	3280.8	
310.17	4931.5	
310.38	4371.7	
310.59	3377.1	
310.8	2789.3	
311.01	4579.9	
311.21	4611.3	
311.42	2884.9	
311.63	2896.5	
311.84	4517.1	
312.05	4716.5	
312.26	3227.6	
312.46	3455.6	
312.67	4540.3	
312.88	4302.8	
313.09	2807.8	
313.3	2774.3	
313.51	5192.3	
313.71	5434.6	
313.92	2899.2	
314.13	2979.8	
314.34	4840.7	
314.55	4586.8	
314.76	3519.8	
314.96	3126.6	
315.17	4834.6	
315.38	4819.6	
315.59	2887.6	
315.8	2743.6	
316.01	5146.5	
316.21	5288.5	
316.42	2802.3	
316.63	3153.9	
316.84	4595	
317.05	5068.7	
317.26	3296.5	
317.46	2970.9	
317.67	4616.8	
317.88	4927.4	
318.09	3453.6	
318.3	2656.2	
318.5	4516.5	
318.71	4858.5	
318.92	4278.2	
319.13	3318.4	
319.34	5023	
319.54	5109	
319.75	2699.2	
319.96	2566.8	
320.17	4903.5	
320.38	5033.9	
320.58	2637.1	
320.79	3078.8	
321	5042.8	
321.21	5087.2	
321.42	3120.4	
321.62	2639.1	
321.83	4472.8	
322.04	4625	
322.25	3059.7	
322.46	2838.5	
322.66	4711.7	
322.87	4897.4	
323.08	3373.7	
323.29	2814.6	
323.5	5437.4	
323.7	4343.1	
323.91	3704.1	
324.12	3371.6	
324.33	4790.2	
324.53	4856.4	
324.74	3276.8	
324.95	3384.6	
325.16	4289.1	
325.37	4511.7	
325.57	2876	
325.78	2896.5	
325.99	4806.6	
326.2	4270.7	
326.4	3796.9	
326.61	2665.1	
326.82	4643.4	
327.03	4739.7	
327.24	3867.9	
327.44	3617.4	
327.65	4844.1	
327.86	4080.9	
328.07	3297.2	
328.27	2821.4	
328.48	5217.5	
328.69	4342.4	
328.9	3883.6	
329.1	3008.5	
329.31	4611.3	
329.52	5203.2	
329.73	2891	
329.93	3142.3	
330.14	4709.6	
330.35	4827.7	
330.56	4375.8	
330.76	3407.8	
330.97	4573.8	
331.18	4726.7	
331.39	3159.3	
331.59	2611.8	
331.8	5067.4	
332.01	5075.5	
332.22	2955.2	
332.42	3240.6	
332.63	4754.7	
332.84	4443.4	
333.05	3137.5	
333.25	2930.6	
333.46	4445.5	
333.67	4663.2	
333.88	3000.3	
334.08	3243.3	
334.29	5881.8	
334.5	5057.1	
334.7	2869.2	
334.91	3854.3	
335.12	4364.2	
335.33	4978.6	
335.53	3063.1	
335.74	4356	
335.95	4584.7	
336.16	4330.8	
336.36	3109.5	
336.57	3521.1	
336.78	4334.9	
336.98	4993.6	
337.19	3725.9	
337.4	3059.7	
337.61	5519.3	
337.81	4352.6	
338.02	2919	
338.23	3588.7	
338.43	5236	
338.64	4435.2	
338.85	2915.6	
339.05	3664.5	
339.26	5229.1	
339.47	4305.5	
339.68	2893.1	
339.88	3934.8	
340.09	4920.6	
340.3	5025	
340.5	3265.1	
340.71	2604.3	
340.92	4378.6	
341.13	5160.2	
341.33	2729.3	
341.54	3327.3	
341.75	4843.4	
341.95	4547.2	
342.16	3168.9	
342.37	3379.1	
342.57	4362.9	
342.78	4577.2	
342.99	3454.2	
343.19	2627.5	
343.4	4967	
343.61	4858.5	
343.81	3050.8	
344.02	2841.9	
344.23	4921.3	
344.43	5214.8	
344.64	3480.2	
344.85	3368.9	
345.06	4906.3	
345.26	5083.7	
345.47	3317	
345.68	3749.8	
345.88	4302.8	
346.09	4970.4	
346.3	3347.1	
346.5	2612.5	
346.71	4701.5	
346.92	4496.7	
347.12	2738.1	
347.33	3201.7	
347.54	5091.3	
347.74	5261.2	
347.95	3213.3	
348.16	2553.8	
348.36	4538.3	
348.57	4404.5	
348.78	3297.9	
348.98	3418.7	
349.19	4647.5	
349.39	4251.6	
349.6	2725.2	
349.81	2924.5	
350.01	4896.7	
350.22	4462.5	
350.43	3160	
350.63	3741	
350.84	4705.5	
351.05	4494.6	
351.25	2899.9	
351.46	2697.9	
351.67	5003.9	
351.87	4463.9	
352.08	3055.6	
352.29	3435.8	
352.49	5001.1	
352.7	4730.1	
352.9	2817.3	
353.11	3417.4	
353.32	5489.2	
353.52	4587.4	
353.73	2857.6	
353.94	3536.2	
354.14	4879.6	
354.35	4730.1	
354.55	2966.8	
354.76	3215.3	
354.97	4878.3	
355.17	4645.5	
355.38	2797.5	
355.59	3642.7	
355.79	4495.3	
356	4697.4	
356.2	3167.5	
356.41	2858.3	
356.62	4334.2	
356.82	4669.4	
357.03	3449.5	
357.24	3061	
357.44	4476.9	
357.65	4582	
357.85	3941	
358.06	3200.3	
358.27	4350.6	
358.47	4470.7	
358.68	2802.3	
358.88	3407.1	
359.09	4900.1	
359.3	5122.7	
359.5	3876.8	
359.71	3563.5	
359.91	5470.1	
360.12	4952.7	
360.33	3420.1	
360.53	3790.1	
360.74	4607.9	
360.94	4573.1	
361.15	3606.5	
361.36	3054.9	
361.56	5129.5	
361.77	4762.9	
361.97	3856.3	
362.18	3246	
362.38	5189.6	
362.59	4508.3	
362.8	3001.6	
363	3005.1	
363.21	4385.4	
363.41	4858.5	
363.62	3398.9	
363.83	4005.8	
364.03	5019.6	
364.24	5434.6	
364.44	4225	
364.65	4081.6	
364.85	4788.8	
365.06	4579.3	
365.27	3142.9	
365.47	3250.8	
365.68	5446.9	
365.88	4764.9	
366.09	3556.6	
366.29	3258.3	
366.5	4926	
366.71	5216.2	
366.91	4146.5	
367.12	3603.1	
367.32	5646.2	
367.53	5197.1	
367.73	3648.8	
367.94	4261.8	
368.14	5247.6	
368.35	5612.1	
368.56	3530.7	
368.76	3448.1	
368.97	5266.7	
369.17	6277.7	
369.38	3264.5	
369.58	3463.1	
369.79	4558.8	
369.99	5497.4	
370.2	4181.3	
370.4	3540.3	
370.61	4997.7	
370.82	5900.9	
371.02	3511.6	
371.23	3020.8	
371.43	4617.5	
371.64	5515.2	
371.84	3570.3	
372.05	4296.6	
372.25	6279.8	
372.46	5190.9	
372.66	3564.8	
372.87	3489.7	
373.07	5315.2	
373.28	6436.1	
373.48	4227.7	
373.69	3986	
373.9	5058.5	
374.1	5085.1	
374.31	4214.7	
374.51	3889.1	
374.72	5572.5	
374.92	4851	
375.13	4396.3	
375.33	3869.3	
375.54	5377.3	
375.74	5008.6	
375.95	4012	
376.15	4718.5	
376.36	5448.3	
376.56	5317.2	
376.77	4034.5	
376.97	4304.8	
377.18	6207.4	
377.38	5517.9	
377.59	4450.9	
377.79	3734.1	
378	5447.6	
378.2	5581.4	
378.41	3856.3	
378.61	3807.9	
378.82	5825.8	
379.02	5249.6	
379.23	3965.6	
379.43	4687.8	
379.64	5894.7	
379.84	5625.8	
380.05	3842	
380.25	3831.7	
380.46	5672.2	
380.66	5347.2	
380.87	4716.5	
381.07	4954	
381.28	6087.2	
381.48	5586.2	
381.69	3835.8	
381.89	3938.9	
382.1	4988.9	
382.3	5715.2	
382.51	4552.6	
382.71	5172.5	
382.91	5584.1	
383.12	6014.9	
383.32	4036.5	
383.53	4218.1	
383.73	5530.2	
383.94	5513.8	
384.14	4152.6	
384.35	3663.8	
384.55	5329.5	
384.76	5637.4	
384.96	4117.8	
385.17	4227.7	
385.37	5701.5	
385.58	5082.4	
385.78	4224.3	
385.98	3562.1	
386.19	5280.3	
386.39	5508.4	
386.6	3916.4	
386.8	4038.6	
387.01	5603.2	
387.21	5625.1	
387.42	4306.9	
387.62	4750.6	
387.83	5298.8	
388.03	5521.3	
388.23	4214	
388.44	4657.8	
388.64	5040.1	
388.85	5193.6	
389.05	4418.8	
389.26	4809.3	
389.46	6580.1	
389.67	6135	
389.87	4457.1	
390.07	4522.6	
390.28	5502.2	
390.48	5287.9	
390.69	3968.3	
390.89	4232.5	
391.1	5390.9	
391.3	6046.3	
391.5	5036.6	
391.71	5347.9	
391.91	5956.2	
392.12	6468.9	
392.32	5156.8	
392.53	4528.7	
392.73	5592.3	
392.93	5624.4	
393.14	4345.1	
393.34	4865.3	
393.55	5907	
393.75	5537	
393.95	4351.3	
394.16	4244.8	
394.36	5477.6	
394.57	5886.5	
394.77	4000.4	
394.98	4224.3	
395.18	5415.5	
395.38	5532.2	
395.59	4866	
395.79	4240.7	
396	5632.6	
396.2	5935.7	
396.4	4859.8	
396.61	4892.6	
396.81	6109.8	
397.02	5693.4	
397.22	5076.2	
397.42	5162.2	
397.63	6229.2	
397.83	5787.6	
398.04	4350.6	
398.24	4757.4	
398.44	5979.4	
398.65	5438.7	
398.85	4349.9	
399.05	4405.9	
399.26	5851	
399.46	6891.4	
399.67	4704.9	
399.87	4500.8	
400.07	6202.6	
400.28	6285.9	
400.48	4610	
400.69	5502.2	
400.89	6505	
401.09	6855.2	
401.3	4685.8	
401.5	5372.5	
401.7	7074.4	
401.91	7199.3	
402.11	4984.1	
402.32	5192.3	
402.52	6703.7	
402.72	6500.9	
402.93	5279	
403.13	4477.5	
403.33	7188.4	
403.54	6098.9	
403.74	4982	
403.94	5509.7	
404.15	6150.7	
404.35	6948.8	
404.56	4747.9	
404.76	5891.3	
404.96	6432.7	
405.17	6265.4	
405.37	5575.9	
405.57	5119.9	
405.78	6606.1	
405.98	6161.7	
406.18	4924.7	
406.39	5515.9	
406.59	6685.9	
406.79	6300.2	
407	4741.7	
407.2	4785.4	
407.4	6920.8	
407.61	6737.8	
407.81	4849.6	
408.01	6188.3	
408.22	5881.1	
408.42	7339.2	
408.62	5802.6	
408.83	5522	
409.03	6711.9	
409.23	6693.4	
409.44	5732.3	
409.64	5920	
409.84	7679.2	
410.05	7664.2	
410.25	6049	
410.45	5870.2	
410.66	7421.8	
410.86	9101.9	
411.06	6441.5	
411.27	6244.3	
411.47	9136	
411.67	7724.9	
411.88	6524.1	
412.08	6890	
412.28	8214.4	
412.49	8617.2	
412.69	6602.7	
412.89	6633.4	
413.09	8475.9	
413.3	8598.7	
413.5	6845	
413.7	6656.6	
413.91	8081.3	
414.11	8748.9	
414.31	6875	
414.52	7217.7	
414.72	8591.9	
414.92	8512	
415.12	6828.6	
415.33	7234.1	
415.53	9035	
415.73	8945.5	
415.94	7475.1	
416.14	7072.3	
416.34	8342.7	
416.55	8073.1	
416.75	7949.5	
416.95	7746.1	
417.15	9211.1	
417.36	9393.4	
417.56	8312.7	
417.76	7632.8	
417.97	9389.3	
418.17	9241.8	
418.37	7425.9	
418.57	7478.5	
418.78	9110	
418.98	8827.4	
419.18	8033.5	
419.38	8056	
419.59	8871.8	
419.79	8566.7	
419.99	7447.8	
420.2	7608.9	
420.4	9233.6	
420.6	9215.2	
420.8	7247.1	
421.01	7191.1	
421.21	9171.5	
421.41	9142.8	
421.61	7585	
421.82	7520.8	
422.02	8964.6	
422.22	9468.4	
422.42	8086.7	
422.63	7555.6	
422.83	8936	
423.03	9832.3	
423.23	7767.9	
423.44	7058.7	
423.64	8908	
423.84	8550.3	
424.04	7430	
424.25	7191.1	
424.45	9495.7	
424.65	9363.3	
424.85	6869.6	
425.06	7281.2	
425.26	9608.4	
425.46	8772.8	
425.66	7611.6	
425.87	7484.6	
426.07	9384.5	
426.27	9125.7	
426.47	7521.5	
426.67	6959	
426.88	9518.3	
427.08	9144.2	
427.28	7815	
427.48	6978.8	
427.69	8383.7	
427.89	8823.3	
428.09	7681.9	
428.29	7066.2	
428.5	9196.7	
428.7	9016.5	
428.9	7150.8	
429.1	7419.8	
429.3	9007.6	
429.51	9179	
429.71	7260	
429.91	7851.9	
430.11	9282.1	
430.31	9544.2	
430.52	7645.7	
430.72	7877.2	
430.92	9869.8	
431.12	9450	
431.32	7578.8	
431.53	7718.8	
431.73	8748.9	
431.93	9778.4	
432.13	7362.4	
432.33	7377.5	
432.54	9042.5	
432.74	9261.6	
432.94	7471.7	
433.14	8087.4	
433.34	9637.7	
433.55	9416.6	
433.75	8168.7	
433.95	9534.7	
434.15	9497.1	
434.35	9376.3	
434.56	7627.3	
434.76	7516.7	
434.96	9516.2	
435.16	9805.7	
435.36	7704.5	
435.56	8701.8	
435.77	9610.4	
435.97	9651.4	
436.17	9175.6	
436.37	8600.1	
436.57	9543.5	
436.78	9668.5	
436.98	8411.7	
437.18	9075.9	
437.38	10255	
437.58	9667.8	
437.78	9210.4	
437.99	8258.1	
438.19	10051	
438.39	10729	
438.59	8270.4	
438.79	7820.5	
438.99	10501	
439.2	9667.8	
439.4	7682.6	
439.6	7718.1	
439.8	9774.3	
440	10525	
440.2	8579.6	
440.4	8751	
440.61	10377	
440.81	10770	
441.01	8396	
441.21	9243.8	
441.41	11132	
441.61	10529	
441.81	9551.7	
442.02	10210	
442.22	11354	
442.42	10876	
442.62	8812.4	
442.82	8667.7	
443.02	11159	
443.22	10631	
443.43	9108.7	
443.63	8690.2	
443.83	10460	
444.03	10462	
444.23	9824.1	
444.43	9433.6	
444.63	10930	
444.83	11604	
445.04	9301.2	
445.24	10084	
445.44	11073	
445.64	11201	
445.84	9536	
446.04	9616.6	
446.24	10532	
446.44	11190	
446.65	8847.9	
446.85	9240.4	
447.05	10470	
447.25	11092	
447.45	9244.5	
447.65	8738	
447.85	10720	
448.05	10288	
448.25	9699.9	
448.46	9426.1	
448.66	10727	
448.86	10404	
449.06	8842.4	
449.26	9478	
449.46	11088	
449.66	10432	
449.86	9453.4	
450.06	9315.5	
450.26	10649	
450.47	10989	
450.67	9430.9	
450.87	9784.5	
451.07	11264	
451.27	10979	
451.47	9090.9	
451.67	9883.5	
451.87	10975	
452.07	11556	
452.27	9490.3	
452.47	9278	
452.67	11127	
452.88	11484	
453.08	8880	
453.28	10363	
453.48	12314	
453.68	10946	
453.88	9595.4	
454.08	9540.1	
454.28	11409	
454.48	11198	
454.68	9931.3	
454.88	10245	
455.08	11503	
455.28	11634	
455.48	9345.6	
455.68	10147	
455.89	12160	
456.09	12048	
456.29	9915.6	
456.49	10286	
456.69	12295	
456.89	11458	
457.09	10400	
457.29	10993	
457.49	12110	
457.69	12280	
457.89	10791	
458.09	10099	
458.29	12295	
458.49	12738	
458.69	11163	
458.89	10783	
459.09	13170	
459.29	13097	
459.49	10869	
459.69	11572	
459.9	12757	
460.1	12681	
460.3	10584	
460.5	10575	
460.7	12859	
460.9	12642	
461.1	10531	
461.3	11554	
461.5	13568	
461.7	13181	
461.9	11357	
462.1	11338	
462.3	13162	
462.5	13497	
462.7	11302	
462.9	11628	
463.1	14319	
463.3	14362	
463.5	11789	
463.7	12820	
463.9	13723	
464.1	14041	
464.3	12534	
464.5	12271	
464.7	14435	
464.9	14471	
465.1	13512	
465.3	12930	
465.5	14628	
465.7	14902	
465.9	13444	
466.1	12649	
466.3	14834	
466.5	14507	
466.7	14053	
466.9	13025	
467.1	14885	
467.3	15515	
467.5	14118	
467.7	13336	
467.9	15764	
468.1	16455	
468.3	13749	
468.5	14209	
468.7	15322	
468.9	14898	
469.1	13781	
469.3	14348	
469.5	16880	
469.7	15073	
469.9	13958	
470.1	13824	
470.3	15449	
470.5	15520	
470.7	14693	
470.9	13762	
471.1	15417	
471.3	15233	
471.5	13776	
471.69	14926	
471.89	15027	
472.09	14632	
472.29	14269	
472.49	14157	
472.69	15075	
472.89	15384	
473.09	13622	
473.29	13355	
473.49	14997	
473.69	14915	
473.89	14156	
474.09	13510	
474.29	15643	
474.49	15593	
474.69	14201	
474.89	13654	
475.09	14929	
475.29	15138	
475.49	13164	
475.69	13639	
475.88	15944	
476.08	15296	
476.28	13288	
476.48	13228	
476.68	15355	
476.88	15138	
477.08	13263	
477.28	13570	
477.48	14731	
477.68	15033	
477.88	13186	
478.08	13278	
478.28	15644	
478.48	14872	
478.67	13499	
478.87	12691	
479.07	15784	
479.27	14817	
479.47	13551	
479.67	13780	
479.87	15460	
480.07	15808	
480.27	13174	
480.47	14132	
480.67	15127	
480.87	15832	
481.06	13396	
481.26	14098	
481.46	15359	
481.66	15077	
481.86	13773	
482.06	14440	
482.26	15158	
482.46	15656	
482.66	13697	
482.86	13533	
483.05	15651	
483.25	14910	
483.45	15497	
483.65	13736	
483.85	15124	
484.05	15474	
484.25	14145	
484.45	14709	
484.65	15867	
484.84	16341	
485.04	13989	
485.24	14012	
485.44	16467	
485.64	15356	
485.84	13779	
486.04	14723	
486.24	15668	
486.44	15935	
486.63	13799	
486.83	14331	
487.03	15895	
487.23	16139	
487.43	13943	
487.63	15797	
487.83	16209	
488.02	16844	
488.22	14973	
488.42	15554	
488.62	16812	
488.82	16308	
489.02	14685	
489.22	15079	
489.41	16767	
489.61	16806	
489.81	14810	
490.01	14872	
490.21	17129	
490.41	17606	
490.61	14884	
490.8	14926	
491	16887	
491.2	16171	
491.4	15398	
491.6	14879	
491.8	16563	
491.99	16521	
492.19	14457	
492.39	14528	
492.59	16737	
492.79	16969	
492.99	15261	
493.18	14726	
493.38	17206	
493.58	18049	
493.78	15672	
493.98	15375	
494.18	17431	
494.37	17136	
494.57	16346	
494.77	16209	
494.97	18109	
495.17	18486	
495.37	16349	
495.56	16619	
495.76	18843	
495.96	18696	
496.16	17632	
496.36	16953	
496.55	19075	
496.75	18847	
496.95	17349	
497.15	17295	
497.35	19056	
497.54	19282	
497.74	17115	
497.94	18491	
498.14	19713	
498.34	19512	
498.53	17243	
498.73	17574	
498.93	18914	
499.13	19442	
499.33	17841	
499.52	17907	
499.72	19753	
499.92	19610	
500.12	17790	
500.32	17898	
500.51	19905	
500.71	19856	
500.91	18563	
501.11	18311	
501.31	20007	
501.5	20031	
501.7	18694	
501.9	18153	
502.1	19639	
502.29	20030	
502.49	18555	
502.69	18613	
502.89	20019	
503.09	20054	
503.28	17514	
503.48	17636	
503.68	19135	
503.88	19243	
504.07	18212	
504.27	17608	
504.47	19485	
504.67	19394	
504.86	18162	
505.06	17782	
505.26	19026	
505.46	20267	
505.65	17652	
505.85	17833	
506.05	18855	
506.25	19034	
506.44	16840	
506.64	17293	
506.84	18540	
507.04	18961	
507.23	16823	
507.43	17064	
507.63	19613	
507.83	18546	
508.02	17074	
508.22	16928	
508.42	20115	
508.62	18506	
508.81	17025	
509.01	17520	
509.21	18191	
509.4	18520	
509.6	17148	
509.8	16899	
510	18264	
510.19	19289	
510.39	16788	
510.59	16995	
510.79	18547	
510.98	19583	
511.18	17072	
511.38	17297	
511.57	19214	
511.77	18993	
511.97	17507	
512.17	16767	
512.36	19157	
512.56	18796	
512.76	16842	
512.95	16540	
513.15	19059	
513.35	18097	
513.55	17284	
513.74	16770	
513.94	19047	
514.14	18514	
514.33	17539	
514.53	17411	
514.73	18557	
514.92	18801	
515.12	17238	
515.32	16977	
515.51	19097	
515.71	19227	
515.91	18282	
516.11	17081	
516.3	20281	
516.5	18738	
516.7	17530	
516.89	17873	
517.09	18745	
517.29	19014	
517.48	17768	
517.68	17304	
517.88	18696	
518.07	19146	
518.27	17795	
518.47	17044	
518.66	19422	
518.86	18626	
519.06	16920	
519.25	17179	
519.45	18768	
519.65	19962	
519.84	17573	
520.04	18450	
520.24	20327	
520.43	19343	
520.63	17446	
520.83	17382	
521.02	18811	
521.22	19029	
521.42	17458	
521.61	18050	
521.81	18589	
522.01	18723	
522.2	17439	
522.4	17109	
522.6	19334	
522.79	18474	
522.99	17382	
523.18	17221	
523.38	19374	
523.58	19570	
523.77	18863	
523.97	17545	
524.17	20979	
524.36	20475	
524.56	18922	
524.76	18498	
524.95	20108	
525.15	20063	
525.34	18835	
525.54	19082	
525.74	21087	
525.93	20179	
526.13	20007	
526.33	19476	
526.52	21569	
526.72	21046	
526.91	20399	
527.11	19807	
527.31	21569	
527.5	21865	
527.7	19875	
527.89	19315	
528.09	21003	
528.29	21695	
528.48	20149	
528.68	19853	
528.87	21642	
529.07	21763	
529.27	20267	
529.46	19968	
529.66	21987	
529.85	22210	
530.05	19978	
530.25	20569	
530.44	22941	
530.64	21535	
530.83	20096	
531.03	20385	
531.23	22081	
531.42	21657	
531.62	20683	
531.81	20198	
532.01	22392	
532.21	22622	
532.4	20564	
532.6	21105	
532.79	23375	
532.99	23071	
533.18	21365	
533.38	21962	
533.58	23135	
533.77	23474	
533.97	21790	
534.16	22197	
534.36	23911	
534.55	23344	
534.75	22451	
534.95	21911	
535.14	24292	
535.34	23418	
535.53	21693	
535.73	22952	
535.92	24398	
536.12	23316	
536.31	21646	
536.51	22450	
536.71	23554	
536.9	23251	
537.1	21415	
537.29	21695	
537.49	23548	
537.68	23012	
537.88	22128	
538.07	21222	
538.27	23375	
538.46	24044	
538.66	21564	
538.86	21901	
539.05	23501	
539.25	23877	
539.44	22369	
539.64	21603	
539.83	23457	
540.03	24340	
540.22	21899	
540.42	21521	
540.61	23350	
540.81	23668	
541	21769	
541.2	22382	
541.39	22801	
541.59	23289	
541.78	22162	
541.98	21353	
542.18	22708	
542.37	22876	
542.57	21559	
542.76	22125	
542.96	22524	
543.15	22875	
543.35	21263	
543.54	20895	
543.74	22661	
543.93	22616	
544.13	20781	
544.32	21557	
544.52	22562	
544.71	21888	
544.91	19970	
545.1	20902	
545.3	22104	
545.49	22502	
545.69	20028	
545.88	20519	
546.08	23294	
546.27	22732	
546.47	20828	
546.66	20117	
546.86	22343	
547.05	22724	
547.24	20328	
547.44	20515	
547.63	21612	
547.83	22534	
548.02	20638	
548.22	20674	
548.41	21377	
548.61	22564	
548.8	19992	
549	20277	
549.19	21780	
549.39	22122	
549.58	19848	
549.78	20267	
549.97	21994	
550.17	21504	
550.36	20678	
550.55	21337	
550.75	21438	
550.94	22022	
551.14	19796	
551.33	19676	
551.53	21048	
551.72	21594	
551.92	19727	
552.11	19707	
552.31	21571	
552.5	21674	
552.69	20818	
552.89	19314	
553.08	21659	
553.28	21308	
553.47	19626	
553.67	20383	
553.86	21846	
554.06	20662	
554.25	19010	
554.44	19359	
554.64	22171	
554.83	21906	
555.03	19316	
555.22	19568	
555.42	21698	
555.61	21235	
555.8	19307	
556	19515	
556.19	20691	
556.39	21301	
556.58	19335	
556.78	19309	
556.97	21190	
557.16	20859	
557.36	20181	
557.55	19200	
557.75	20168	
557.94	21691	
558.13	19100	
558.33	19043	
558.52	21550	
558.72	20682	
558.91	18908	
559.1	19126	
559.3	20424	
559.49	20123	
559.69	18790	
559.88	19260	
560.07	20855	
560.27	21070	
560.46	19349	
560.66	19446	
560.85	20750	
561.04	19955	
561.24	18897	
561.43	18697	
561.63	20340	
561.82	20411	
562.01	19672	
562.21	18959	
562.4	20446	
562.59	21472	
562.79	18860	
562.98	18776	
563.18	20609	
563.37	21774	
563.56	19396	
563.76	18997	
563.95	20699	
564.14	20533	
564.34	19400	
564.53	18912	
564.73	20936	
564.92	21321	
565.11	19512	
565.31	19106	
565.5	21450	
565.69	20624	
565.89	19353	
566.08	19582	
566.27	21482	
566.47	21986	
566.66	20100	
566.85	19259	
567.05	21315	
567.24	20968	
567.44	19462	
567.63	20327	
567.82	21520	
568.02	21135	
568.21	19425	
568.4	19731	
568.6	21291	
568.79	21299	
568.98	19313	
569.18	19579	
569.37	21439	
569.56	22726	
569.76	20039	
569.95	20654	
570.14	21754	
570.34	21960	
570.53	19549	
570.72	19679	
570.91	22141	
571.11	21564	
571.3	20103	
571.49	20690	
571.69	21629	
571.88	21113	
572.07	20285	
572.27	20209	
572.46	21154	
572.65	21780	
572.85	19927	
573.04	20260	
573.23	22197	
573.43	21737	
573.62	19868	
573.81	20280	
574	22042	
574.2	21706	
574.39	20447	
574.58	20400	
574.78	22942	
574.97	22198	
575.16	20989	
575.36	21326	
575.55	22758	
575.74	22791	
575.93	20313	
576.13	21570	
576.32	22360	
576.51	22941	
576.71	20921	
576.9	21905	
577.09	23167	
577.28	22713	
577.48	21205	
577.67	20674	
577.86	22404	
578.05	22885	
578.25	21177	
578.44	21279	
578.63	22573	
578.83	23699	
579.02	20717	
579.21	22086	
579.4	22932	
579.6	22833	
579.79	21179	
579.98	22972	
580.17	23245	
580.37	23380	
580.56	20869	
580.75	21599	
580.94	23257	
581.14	23519	
581.33	21992	
581.52	21147	
581.71	23188	
581.91	23680	
582.1	21220	
582.29	21338	
582.48	22981	
582.68	23231	
582.87	21727	
583.06	21629	
583.25	23388	
583.45	22861	
583.64	22246	
583.83	22626	
584.02	23138	
584.21	23479	
584.41	21936	
584.6	21852	
584.79	23404	
584.98	23874	
585.18	21409	
585.37	21216	
585.56	23137	
585.75	23696	
585.94	21414	
586.14	21990	
586.33	23674	
586.52	23244	
586.71	21647	
586.91	21468	
587.1	22263	
587.29	23227	
587.48	21038	
587.67	20921	
587.87	22892	
588.06	22810	
588.25	21689	
588.44	21108	
588.63	22374	
588.83	22704	
589.02	20763	
589.21	20352	
589.4	21711	
589.59	21818	
589.78	19213	
589.98	19311	
590.17	20666	
590.36	20917	
590.55	18299	
590.74	18378	
590.94	21061	
591.13	20020	
591.32	18197	
591.51	17628	
591.7	20164	
591.89	19951	
592.09	18007	
592.28	18535	
592.47	19399	
592.66	20983	
592.85	18335	
593.05	18490	
593.24	20061	
593.43	20912	
593.62	18575	
593.81	18858	
594	20314	
594.19	20338	
594.39	18421	
594.58	18404	
594.77	20340	
594.96	20826	
595.15	18385	
595.34	18807	
595.54	20299	
595.73	19577	
595.92	17751	
596.11	18421	
596.3	20362	
596.49	19491	
596.68	18199	
596.88	18345	
597.07	20143	
597.26	19344	
597.45	17892	
597.64	18899	
597.83	19553	
598.02	20252	
598.22	17862	
598.41	18378	
598.6	19896	
598.79	19467	
598.98	17803	
599.17	18690	
599.36	19882	
599.55	20621	
599.74	19355	
599.94	19078	
600.13	20168	
600.32	19430	
600.51	17741	
600.7	17749	
600.89	20469	
601.08	20519	
601.27	17755	
601.47	18456	
601.66	19947	
601.85	20491	
602.04	18197	
602.23	18200	
602.42	19329	
602.61	19768	
602.8	17846	
602.99	17602	
603.18	19476	
603.37	19781	
603.57	18076	
603.76	18502	
603.95	20251	
604.14	19726	
604.33	17944	
604.52	18051	
604.71	19969	
604.9	19474	
605.09	18617	
605.28	18368	
605.47	20371	
605.66	19886	
605.86	18358	
606.05	17922	
606.24	20134	
606.43	19033	
606.62	18194	
606.81	18520	
607	19889	
607.19	19521	
607.38	17404	
607.57	17675	
607.76	19209	
607.95	18703	
608.14	18079	
608.33	18236	
608.52	19153	
608.72	19809	
608.91	17389	
609.1	17350	
609.29	19196	
609.48	18826	
609.67	17844	
609.86	17106	
610.05	18918	
610.24	19103	
610.43	17279	
610.62	16984	
610.81	19683	
611	19712	
611.19	17204	
611.38	17651	
611.57	19284	
611.76	20065	
611.95	16987	
612.14	16824	
612.33	18997	
612.52	18762	
612.71	17380	
612.9	16822	
613.09	18535	
613.28	20251	
613.47	17161	
613.66	17925	
613.85	19115	
614.04	18742	
614.24	17346	
614.43	16631	
614.62	19280	
614.81	19153	
615	17535	
615.19	17752	
615.38	18641	
615.57	19176	
615.76	17719	
615.95	18221	
616.14	19385	
616.33	19137	
616.52	17761	
616.71	17918	
616.9	19267	
617.09	19262	
617.28	17364	
617.47	18096	
617.66	18734	
617.85	18801	
618.04	18204	
618.22	17832	
618.41	19287	
618.6	19970	
618.79	17892	
618.98	17928	
619.17	20495	
619.36	18994	
619.55	18128	
619.74	18080	
619.93	19798	
620.12	19607	
620.31	18615	
620.5	18868	
620.69	20732	
620.88	20964	
621.07	19442	
621.26	18888	
621.45	20497	
621.64	20335	
621.83	18850	
622.02	18346	
622.21	20581	
622.4	20381	
622.59	19422	
622.78	19536	
622.97	20094	
623.16	21050	
623.35	19293	
623.54	18563	
623.72	20379	
623.91	20430	
624.1	19320	
624.29	18340	
624.48	21442	
624.67	20775	
624.86	19345	
625.05	18720	
625.24	21401	
625.43	20446	
625.62	20365	
625.81	18863	
626	20732	
626.19	20571	
626.38	19524	
626.56	18912	
626.75	20468	
626.94	21023	
627.13	19341	
627.32	18526	
627.51	20765	
627.7	21633	
627.89	18410	
628.08	19336	
628.27	20200	
628.46	20256	
628.65	18564	
628.83	18329	
629.02	20520	
629.21	20076	
629.4	18851	
629.59	19022	
629.78	20073	
629.97	20506	
630.16	19117	
630.35	18518	
630.54	21140	
630.72	20891	
630.91	18710	
631.1	18961	
631.29	20464	
631.48	20531	
631.67	18985	
631.86	18708	
632.05	20325	
632.24	20274	
632.42	18325	
632.61	18927	
632.8	20074	
632.99	19872	
633.18	18814	
633.37	19106	
633.56	20386	
633.75	20401	
633.93	19087	
634.12	18746	
634.31	21097	
634.5	20720	
634.69	18785	
634.88	19046	
635.07	20385	
635.25	20847	
635.44	19385	
635.63	19510	
635.82	20229	
636.01	19557	
636.2	19138	
636.39	18897	
636.57	21089	
636.76	20363	
636.95	18563	
637.14	19296	
637.33	20515	
637.52	20889	
637.7	18137	
637.89	19107	
638.08	20186	
638.27	20923	
638.46	19031	
638.65	18948	
638.83	20919	
639.02	19923	
639.21	18661	
639.4	19093	
639.59	20030	
639.78	19735	
639.96	17874	
640.15	18023	
640.34	19924	
640.53	19647	
640.72	17759	
640.91	17821	
641.09	19173	
641.28	19934	
641.47	17916	
641.66	18355	
641.85	19560	
642.03	19601	
642.22	18140	
642.41	17940	
642.6	19168	
642.79	18763	
642.97	17474	
643.16	17894	
643.35	18953	
643.54	18827	
643.73	17396	
643.91	17826	
644.1	18588	
644.29	19004	
644.48	17194	
644.67	17289	
644.85	18286	
645.04	18678	
645.23	16541	
645.42	16873	
645.6	18045	
645.79	18751	
645.98	16234	
646.17	15664	
646.36	17397	
646.54	17609	
646.73	16346	
646.92	15670	
647.11	17012	
647.29	17770	
647.48	15566	
647.67	15360	
647.86	17884	
648.05	17874	
648.23	15689	
648.42	16599	
648.61	17357	
648.8	17386	
648.98	15264	
649.17	15475	
649.36	16815	
649.55	16692	
649.73	15238	
649.92	15893	
650.11	17007	
650.3	17183	
650.48	15438	
650.67	15284	
650.86	17205	
651.05	16379	
651.23	15392	
651.42	15167	
651.61	16645	
651.79	16539	
651.98	15257	
652.17	15126	
652.36	16894	
652.54	16185	
652.73	15038	
652.92	15021	
653.11	16807	
653.29	16976	
653.48	14453	
653.67	15233	
653.85	16724	
654.04	17284	
654.23	15056	
654.42	14643	
654.6	15798	
654.79	16205	
654.98	13971	
655.16	14126	
655.35	14980	
655.54	14728	
655.73	13348	
655.91	13043	
656.1	15375	
656.29	14697	
656.47	13198	
656.66	14319	
656.85	15139	
657.03	15350	
657.22	13830	
657.41	14139	
657.59	15547	
657.78	15538	
657.97	13936	
658.16	14567	
658.34	16122	
658.53	16468	
658.72	15055	
658.9	15453	
659.09	15992	
659.28	16004	
659.46	14249	
659.65	14376	
659.84	15718	
660.02	16189	
660.21	14405	
660.4	14252	
660.58	16376	
660.77	16034	
660.96	14741	
661.14	14048	
661.33	16778	
661.52	16567	
661.7	14010	
661.89	16359	
662.08	15674	
662.26	15322	
662.45	14034	
662.64	14214	
662.82	16147	
663.01	15513	
663.2	14033	
663.38	14644	
663.57	15915	
663.75	15935	
663.94	14400	
664.13	15003	
664.31	15496	
664.5	15907	
664.69	14481	
664.87	14846	
665.06	15238	
665.25	15782	
665.43	15010	
665.62	14913	
665.8	15919	
665.99	15453	
666.18	14301	
666.36	14235	
666.55	15835	
666.74	15893	
666.92	13831	
667.11	14848	
667.29	15478	
667.48	15726	
667.67	14709	
667.85	14054	
668.04	15352	
668.22	15481	
668.41	14109	
668.6	14351	
668.78	15253	
668.97	15279	
669.15	14302	
669.34	13566	
669.53	15264	
669.71	15683	
669.9	13721	
670.08	14093	
670.27	15134	
670.46	15436	
670.64	14197	
670.83	14515	
671.01	14950	
671.2	15356	
671.38	13750	
671.57	13688	
671.76	15791	
671.94	16202	
672.13	13686	
672.31	14306	
672.5	15685	
672.69	15144	
672.87	13872	
673.06	14029	
673.24	15611	
673.43	15180	
673.61	14169	
673.8	13874	
673.98	15586	
674.17	15716	
674.36	14280	
674.54	14336	
674.73	15244	
674.91	15620	
675.1	14156	
675.28	13721	
675.47	15281	
675.65	15684	
675.84	13865	
676.03	14020	
676.21	15075	
676.4	14739	
676.58	14347	
676.77	14241	
676.95	16064	
677.14	15054	
677.32	13538	
677.51	13477	
677.69	15676	
677.88	14975	
678.06	13605	
678.25	13720	
678.44	15330	
678.62	15098	
678.81	13355	
678.99	14085	
679.18	15773	
679.36	15390	
679.55	13777	
679.73	14196	
679.92	15350	
680.1	14975	
680.29	14634	
680.47	13650	
680.66	14950	
680.84	15571	
681.03	13375	
681.21	14058	
681.4	15129	
681.58	14941	
681.77	13463	
681.95	13648	
682.14	15445	
682.32	15712	
682.51	14129	
682.69	13065	
682.88	14783	
683.06	15018	
683.25	13967	
683.43	14113	
683.62	15054	
683.8	15199	
683.99	14183	
684.17	13636	
684.36	15629	
684.54	14668	
684.73	12730	
684.91	12654	
685.1	14206	
685.28	13831	
685.46	12398	
685.65	12297	
685.83	13560	
686.02	13096	
686.2	11680	
686.39	11751	
686.57	12859	
686.76	14252	
686.94	12039	
687.13	12169	
687.31	13732	
687.5	13627	
687.68	11892	
687.86	12635	
688.05	14910	
688.23	13398	
688.42	12780	
688.6	12463	
688.79	13809	
688.97	13721	
689.16	12667	
689.34	11936	
689.52	14309	
689.71	14602	
689.89	13072	
690.08	12577	
690.26	14256	
690.45	14085	
690.63	13118	
690.81	12732	
691	14031	
691.18	13933	
691.37	12818	
691.55	14119	
691.74	13775	
691.92	15098	
692.1	12546	
692.29	12081	
692.47	13801	
692.66	13303	
692.84	12215	
693.02	12585	
693.21	13491	
693.39	13805	
693.58	12805	
693.76	12379	
693.94	14532	
694.13	14679	
694.31	12686	
694.5	13388	
694.68	14009	
694.86	14446	
695.05	13252	
695.23	13188	
695.42	14774	
695.6	16410	
695.78	13648	
695.97	12982	
696.15	14857	
696.34	14317	
696.52	12795	
696.7	13353	
696.89	14483	
697.07	13969	
697.25	12926	
697.44	14126	
697.62	14298	
697.81	14358	
697.99	12537	
698.17	13056	
698.36	13678	
698.54	14145	
698.72	12792	
698.91	12125	
699.09	13736	
699.28	13663	
699.46	12611	
699.64	12335	
699.83	13420	
700.01	14225	
700.19	12938	
700.38	11973	
700.56	14309	
700.74	13633	
700.93	12177	
701.11	12839	
701.29	14093	
701.48	14937	
701.66	12420	
701.84	12562	
702.03	13930	
702.21	14528	
702.39	12156	
702.58	12877	
702.76	14226	
702.94	14214	
703.13	12159	
703.31	13944	
703.49	13812	
703.68	14440	
703.86	12251	
704.04	13032	
704.23	13976	
704.41	14384	
704.59	12378	
704.78	13028	
704.96	15227	
705.14	14167	
705.33	12215	
705.51	12668	
705.69	13865	
705.87	14359	
706.06	12903	
706.24	12139	
706.42	13994	
706.61	14257	
706.79	12897	
706.97	12069	
707.16	13487	
707.34	13790	
707.52	12572	
707.7	12200	
707.89	13467	
708.07	13319	
708.25	12703	
708.44	12953	
708.62	13357	
708.8	14144	
708.98	12836	
709.17	12045	
709.35	13578	
709.53	13521	
709.72	11964	
709.9	11775	
710.08	13721	
710.26	13715	
710.45	12792	
710.63	11921	
710.81	13371	
710.99	13332	
711.18	12147	
711.36	11714	
711.54	13080	
711.72	13439	
711.91	11699	
712.09	11268	
712.27	13001	
712.45	13659	
712.64	11477	
712.82	10876	
713	12269	
713.18	12253	
713.37	10658	
713.55	11357	
713.73	12649	
713.91	11486	
714.1	10382	
714.28	9713.5	
714.46	11660	
714.64	10655	
714.83	8819.9	
715.01	9054.8	
715.19	10320	
715.37	9582.4	
715.55	8514.8	
715.74	8505.2	
715.92	10475	
716.1	8906.6	
716.28	9197.4	
716.47	8492.9	
716.65	9510.8	
716.83	9443.9	
717.01	8327	
717.19	8230.1	
717.38	10829	
717.56	9116.9	
717.74	8383.7	
717.92	7925	
718.1	10041	
718.29	9557.9	
718.47	7761.1	
718.65	8416.5	
718.83	10549	
719.01	10619	
719.2	8250.6	
719.38	9148.3	
719.56	10514	
719.74	11719	
719.92	8896.4	
720.11	9547.6	
720.29	10475	
720.47	9832.3	
720.65	8249.9	
720.83	8740.7	
721.02	9634.3	
721.2	9335.3	
721.38	8406.2	
721.56	7845.1	
721.74	8803.5	
721.92	8861.6	
722.11	8542.1	
722.29	8338.6	
722.47	9621.4	
722.65	9129.8	
722.83	7671	
723.01	8137.3	
723.2	9078.6	
723.38	9377	
723.56	7188.4	
723.74	7931.1	
723.92	8687.5	
724.1	9500.5	
724.29	7578.8	
724.47	8305.2	
724.65	8863.6	
724.83	8708	
725.01	7345.4	
725.19	7887.4	
725.37	8630.8	
725.56	8626.7	
725.74	7167.9	
725.92	7476.5	
726.1	8711.4	
726.28	8783.7	
726.46	7613.7	
726.64	7425.9	
726.83	8762.6	
727.01	8896.4	
727.19	7161.1	
727.37	7703.1	
727.55	9007	
727.73	9189.2	
727.91	7096.2	
728.09	6948.8	
728.28	9224.7	
728.46	9327.8	
728.64	7787.1	
728.82	7717.4	
729	9949	
729.18	9475.3	
729.36	7228.6	
729.54	8815.1	
729.72	10368	
729.91	9243.2	
730.09	8813.8	
730.27	8006.9	
730.45	9237.7	
730.63	9732.6	
730.81	8423.3	
730.99	7827.3	
731.17	10044	
731.35	9108.7	
731.53	8126.3	
731.71	7935.9	
731.9	9821.4	
732.08	9807	
732.26	7977.5	
732.44	7751.6	
732.62	9804.3	
732.8	9493	
732.98	8211	
733.16	7460.1	
733.34	9366.7	
733.52	8472.4	
733.7	7718.8	
733.88	7902.4	
734.07	9182.4	
734.25	8965.3	
734.43	7256.6	
734.61	8370	
734.79	9942.9	
734.97	8948.3	
735.15	7397.3	
735.33	7582.9	
735.51	9191.3	
735.69	8914.1	
735.87	8269.7	
736.05	7681.2	
736.23	8965.3	
736.41	8665	
736.59	7469.6	
736.77	7601.4	
736.95	9366.7	
737.13	8795.3	
737.32	7198.6	
737.5	7477.8	
737.68	9667.1	
737.86	8627.4	
738.04	7076.4	
738.22	8260.1	
738.4	8515.5	
738.58	8660.2	
738.76	7349.5	
738.94	6791.7	
739.12	8430.1	
739.3	8437.6	
739.48	7748.8	
739.66	7585.7	
739.84	8658.1	
740.02	8662.9	
740.2	6691.4	
740.38	6988.4	
740.56	8846.5	
740.74	8062.9	
740.92	7359	
741.1	7141.9	
741.28	8395.3	
741.46	8165.3	
741.64	6883.2	
741.82	7200	
742	8336.6	
742.18	8295	
742.36	6956.3	
742.54	6707.1	
742.72	8659.5	
742.9	7716.7	
743.08	7174.7	
743.26	6313.9	
743.44	8637.6	
743.62	8484.1	
743.8	7236.2	
743.98	6541.2	
744.16	8233.5	
744.34	8016.4	
744.52	7069.6	
744.7	6966.5	
744.88	8315.4	
745.06	7919.5	
745.24	6979.5	
745.42	7030	
745.6	8282	
745.78	8158.4	
745.96	6095.4	
746.14	6281.8	
746.32	8742.8	
746.5	7989.8	
746.68	6540.5	
746.86	6217.6	
747.03	8323.6	
747.21	7195.9	
747.39	6475	
747.57	6077.7	
747.75	7773.4	
747.93	7914.7	
748.11	5997.8	
748.29	5971.2	
748.47	8860.2	
748.65	7503.1	
748.83	6591	
749.01	6266.1	
749.19	7815	
749.37	7174.7	
749.55	6150.7	
749.73	6204.7	
749.91	7621.2	
750.09	7365.2	
750.26	6169.8	
750.44	5814.2	
750.62	7511.9	
750.8	7399.3	
750.98	5706.3	
751.16	5921.4	
751.34	7519.5	
751.52	7020.4	
751.7	6450.4	
751.88	5661.3	
752.06	7823.2	
752.24	7579.5	
752.42	5561.6	
752.59	5768.4	
752.77	7225.2	
752.95	8075.8	
753.13	6297.5	
753.31	5835.3	
753.49	7064.8	
753.67	7319.4	
753.85	6023.1	
754.03	5685.2	
754.21	7417.7	
754.38	7565.9	
754.56	5510.4	
754.74	4852.3	
754.92	6686.6	
755.1	7006.8	
755.28	4738.3	
755.46	4629.8	
755.64	7322.9	
755.82	7195.9	
755.99	4322.6	
756.17	4274.8	
756.35	5083.7	
756.53	5999.2	
756.71	3254.9	
756.89	3921.9	
757.07	5656.5	
757.25	5106.3	
757.42	4393.6	
757.6	5025	
757.78	5942.5	
757.96	5307	
758.14	4359.4	
758.32	4040	
758.5	5058.5	
758.67	5523.4	
758.85	4171	
759.03	4190.8	
759.21	5743.9	
759.39	5236	
759.57	3863.8	
759.75	4756.7	
759.92	6157.6	
760.1	5751.4	
760.28	4947.9	
760.46	5241.4	
760.64	5622.4	
760.82	5563.6	
760.99	4992.3	
761.17	4448.2	
761.35	6291.4	
761.53	5537	
761.71	4645.5	
761.89	5102.9	
762.06	6345.3	
762.24	5924.1	
762.42	4733.5	
762.6	4564.9	
762.78	5952.1	
762.96	6403.3	
763.13	5109.7	
763.31	4826.4	
763.49	6498.9	
763.67	6043.6	
763.85	5409.4	
764.02	5778.7	
764.2	6818.4	
764.38	6092.7	
764.56	4755.4	
764.74	5323.4	
764.91	6784.2	
765.09	6027.9	
765.27	4528.1	
765.45	4354.7	
765.63	6882.5	
765.8	6625.9	
765.98	4177.2	
766.16	4348.5	
766.34	5680.4	
766.52	5378.6	
766.69	4924	
766.87	4246.1	
767.05	5994.4	
767.23	6464.1	
767.41	4381.3	
767.58	4558.1	
767.76	6227.2	
767.94	6377.4	
768.12	4414.7	
768.29	4921.3	
768.47	5847.6	
768.65	6337.8	
768.83	4104.8	
769	4870.1	
769.18	5532.9	
769.36	5944.6	
769.54	4797	
769.72	4057	
769.89	6220.4	
770.07	6178.7	
770.25	4265.2	
770.43	5130.8	
770.6	6680.5	
770.78	6866.2	
770.96	4356.7	
771.14	4796.3	
771.31	6082.5	
771.49	5569.1	
771.67	3839.9	
771.85	3875.4	
772.02	5053.7	
772.2	5492	
772.38	4478.9	
772.55	4044.1	
772.73	5679.7	
772.91	5504.9	
773.09	4313	
773.26	4308.2	
773.44	5659.9	
773.62	5423.7	
773.8	3943.7	
773.97	3751.2	
774.15	5709.7	
774.33	5382.1	
774.5	3799.7	
774.68	4057.7	
774.86	5749.3	
775.04	5362.3	
775.21	3810.6	
775.39	3790.8	
775.57	5489.2	
775.74	5668.1	
775.92	3666.5	
776.1	3595.6	
776.27	5507.7	
776.45	6371.2	
776.63	3795.6	
776.81	3462.4	
776.98	5253.7	
777.16	5920.7	
777.34	3826.3	
777.51	3976.5	
777.69	5148.6	
777.87	4984.8	
778.04	3861.1	
778.22	4193.6	
778.4	4992.9	
778.57	5383.4	
778.75	3328.6	
778.93	3482.9	
779.1	4902.2	
779.28	4699.4	
779.46	3325.2	
779.64	3648.1	
779.81	5550.7	
779.99	6049	
780.17	4093.9	
780.34	4136.2	
780.52	5151.3	
780.69	5214.1	
780.87	3865.2	
781.05	3503.4	
781.22	5214.1	
781.4	5216.2	
781.58	3604.4	
781.75	2981.2	
781.93	5162.9	
782.11	4652.3	
782.28	4188.1	
782.46	3594.9	
782.64	4598.4	
782.81	5296.7	
782.99	3554.6	
783.17	3516.4	
783.34	5104.2	
783.52	4745.8	
783.69	3637.2	
783.87	4220.9	
784.05	4685.1	
784.22	4678.9	
784.4	4203.8	
784.58	3725.3	
784.75	5356.8	
784.93	4727.4	
785.1	3431	
785.28	3949.8	
785.46	5102.9	
785.63	4636.6	
785.81	3532.1	
785.99	3332.7	
786.16	4774.5	
786.34	4991.6	
786.51	3311.6	
786.69	3676.1	
786.87	4439.3	
787.04	4807.9	
787.22	3275.4	
787.39	3912.3	
787.57	4597	
787.75	5319.3	
787.92	4046.8	
788.1	3992.9	
788.27	4545.1	
788.45	4332.1	
788.63	3782.6	
788.8	2893.1	
788.98	4848.9	
789.15	4334.2	
789.33	2998.9	
789.5	3330	
789.68	5229.1	
789.86	5331.5	
790.03	3702.7	
790.21	3268.6	
790.38	5242.1	
790.56	4645.5	
790.73	3187.3	
790.91	3191.4	
791.09	4546.5	
791.26	4997	
791.44	3392.1	
791.61	3012.6	
791.79	4527.4	
791.96	4551.3	
792.14	3097.2	
792.32	2766.8	
792.49	4508.3	
792.67	4603.8	
792.84	3135.4	
793.02	2971.6	
793.19	4887.1	
793.37	5403.2	
793.54	2816	
793.72	2998.2	
793.89	5316.5	
794.07	4500.8	
794.25	3454.9	
794.42	2844.6	
794.6	5186.8	
794.77	4956.1	
794.95	3605.1	
795.12	3191.4	
795.3	4513	
795.47	4883.7	
795.65	3497.2	
795.82	3366.2	
796	4385.4	
796.17	5666.7	
796.35	3289.7	
796.52	3759.4	
796.7	4871.4	
796.87	4984.8	
797.05	3229	
797.22	3859.7	
797.4	4977.2	
797.57	5521.3	
797.75	3392.8	
797.92	3177.1	
798.1	5183.4	
798.27	4418.2	
798.45	2815.3	
798.62	2975	
798.8	4723.3	
798.97	5082.4	
799.15	3508.2	
799.32	3367.5	
799.5	4173.8	
799.67	4749.9	
799.85	3622.2	
800.02	2808.4	
800.2	4442.7	
800.37	4610.7	
800.55	3677.5	
800.72	3157.3	
800.9	4969.7	
801.07	5279	
801.25	4150.6	
801.42	3448.8	
801.6	5067.4	
801.77	4646.8	
801.95	3231	
802.12	3081.5	
802.29	4851	
802.47	4767.7	
802.64	3465.2	
802.82	2697.2	
802.99	4441.4	
803.17	5149.3	
803.34	3308.8	
803.52	3044	
803.69	5494	
803.87	4218.8	
804.04	3299.3	
804.21	3380.5	
804.39	5217.5	
804.56	4563.6	
804.74	2896.5	
804.91	3421.5	
805.09	4427	
805.26	4488.5	
805.44	2947	
805.61	3145	
805.78	4954.7	
805.96	4859.1	
806.13	3401	
806.31	3558.7	
806.48	4062.5	
806.66	4455.7	
806.83	3390.8	
807	3273.3	
807.18	4414.1	
807.35	4692.6	
807.53	3102.7	
807.7	2783.2	
807.87	5223	
808.05	4427	
808.22	3566.2	
808.4	2729.9	
808.57	4316.4	
808.74	4158.1	
808.92	3087	
809.09	3684.3	
809.27	4392.9	
809.44	4738.3	
809.61	2736.8	
809.79	2951.1	
809.96	5281.7	
810.14	4836.6	
810.31	2741.5	
810.48	3190.7	
810.66	4456.4	
810.83	4964.3	
811.01	3090.4	
811.18	3319.1	
811.35	4924	
811.53	3949.2	
811.7	3581.2	
811.87	3376.4	
812.05	4446.1	
812.22	4321.9	
812.39	2975.7	
812.57	2882.9	
812.74	4507.6	
812.92	5532.9	
813.09	3217.4	
813.26	3424.9	
813.44	5349.3	
813.61	4336.9	
813.78	2727.2	
813.96	3423.5	
814.13	4431.1	
814.3	4219.5	
814.48	3719.8	
814.65	3205.8	
814.82	5197.7	
815	4189.5	
815.17	3218.7	
815.34	3829	
815.52	4350.6	
815.69	4334.9	
815.87	3201.7	
816.04	3191.4	
816.21	4363.5	
816.38	3988.1	
816.56	3149.8	
816.73	2936.8	
816.9	5363.6	
817.08	4914.4	
817.25	2977.7	
817.42	3581.9	
817.6	4085.7	
817.77	4314.4	
817.94	3259.7	
818.12	2935.4	
818.29	4245.4	
818.46	5954.8	
818.64	3052.2	
818.81	2888.3	
818.98	4242.7	
819.16	5685.2	
819.33	3438.5	
819.5	3220.8	
819.67	4630.5	
819.85	5110.4	
820.02	3204.4	
820.19	3384.6	
820.37	4541.7	
820.54	4318.5	
820.71	3287.7	
820.88	3928.7	
821.06	4593.6	
821.23	4246.8	
821.4	3375.7	
821.58	3296.5	
821.75	4843.4	
821.92	4521.9	
822.09	2781.8	
822.27	2821.4	
822.44	4399	
822.61	4397	
822.79	2729.3	
822.96	4860.5	
823.13	4644.8	
823.3	4128.7	
823.48	3080.1	
823.65	2808.4	
823.82	4931.5	
823.99	4128.7	
824.17	3827.7	
824.34	2843.3	
824.51	5542.5	
824.68	4406.5	
824.86	2981.8	
825.03	3243.3	
825.2	4403.1	
825.37	5109.7	
825.55	2970.9	
825.72	3192.8	
825.89	5474.9	
826.06	5168.4	
826.24	3160.7	
826.41	3191.4	
826.58	5194.3	
826.75	4601.8	
826.92	2626.2	
827.1	2861.7	
827.27	6655.9	
827.44	5402.5	
827.61	3003.7	
827.79	3535.5	
827.96	4203.8	
828.13	4375.1	
828.3	3138.9	
828.47	2695.1	
828.65	4650.9	
828.82	4622.9	
828.99	3802.4	
829.16	3463.1	
829.34	4949.3	
829.51	4726	
829.68	3262.4	
829.85	3287.7	
830.02	5195	
830.2	4910.3	
830.37	2542.9	
830.54	3742.3	
830.71	5400.5	
830.88	4418.8	
831.05	2592	
831.23	2913.6	
831.4	5312.4	
831.57	5715.2	
831.74	3026.9	
831.91	2669.9	
832.09	4756.1	
832.26	4899.4	
832.43	3030.3	
832.6	3368.2	
832.77	4641.4	
832.94	5213.4	
833.12	2540.2	
833.29	3049.4	
833.46	4358.1	
833.63	5851.7	
833.8	3314.3	
833.97	3127.2	
834.15	4933.6	
834.32	4775.2	
834.49	3196.2	
834.66	3270.6	
834.83	4983.4	
835	4222.9	
835.17	2928.6	
835.35	2979.1	
835.52	4861.9	
835.69	4726.7	
835.86	3115	
836.03	2669.9	
836.2	4871.4	
836.37	4605.9	
836.55	3055.6	
836.72	2950.4	
836.89	4556.7	
837.06	4943.8	
837.23	3071.3	
837.4	3297.9	
837.57	5422.3	
837.75	5836	
837.92	2815.3	
838.09	2981.8	
838.26	4575.2	
838.43	5055.8	
838.6	3220.1	
838.77	2886.3	
838.94	5586.2	
839.11	5513.8	
839.29	3090.4	
839.46	2441.9	
839.63	4898.7	
839.8	4669.4	
839.97	3011.9	
840.14	2966.1	
840.31	4762.2	
840.48	4878.9	
840.65	2538.1	
840.82	2929.3	
841	4847.5	
841.17	4689.2	
841.34	2719.7	
841.51	2835.1	
841.68	4830.5	
841.85	4618.2	
842.02	2876.7	
842.19	2450.7	
842.36	4725.3	
842.53	4689.2	
842.7	2755.9	
842.87	3268.6	
843.05	5905	
843.22	4606.6	
843.39	2684.2	
843.56	2871.9	
843.73	4559.5	
843.9	4920.6	
844.07	4233.2	
844.24	3537.5	
844.41	6464.8	
844.58	4274.8	
844.75	2710.1	
844.92	2886.3	
845.09	4840	
845.26	4812	
845.43	2788.7	
845.6	2923.1	
845.77	4919.2	
845.94	4666.6	
846.12	3022.8	
846.29	3130.7	
846.46	5003.9	
846.63	4851	
846.8	2760.7	
846.97	3234.4	
847.14	5176.6	
847.31	4814.8	
847.48	3093.1	
847.65	3318.4	
847.82	4995.7	
847.99	4957.4	
848.16	3554.6	
848.33	3293.1	
848.5	4470.7	
848.67	5160.9	
848.84	2671.9	
849.01	2866.5	
849.18	4499.4	
849.35	4235.9	
849.52	3376.4	
849.69	2695.8	
849.86	5037.3	
850.03	5058.5	
850.2	2746.3	
850.37	3282.9	
850.54	5059.8	
850.71	4548.5	
850.88	3277.4	
851.05	2659.6	
851.22	4753.3	
851.39	5153.4	
851.56	2643.2	
851.73	3105.4	
851.9	4397.7	
852.07	4995	
852.24	3007.1	
852.41	2740.2	
852.58	4788.8	
852.75	4426.3	
852.92	3039.9	
853.09	2633.7	
853.26	4500.1	
853.43	5102.2	
853.6	2766.1	
853.77	2421.4	
853.94	5173.9	
854.11	4303.5	
854.28	3908.2	
854.44	2932.7	
854.61	5471.5	
854.78	5025	
854.95	2735.4	
855.12	3317.7	
855.29	4005.1	
855.46	5347.9	
855.63	2755.9	
855.8	3667.9	
855.97	4511	
856.14	5066	
856.31	3760.1	
856.48	2978.4	
856.65	4615.4	
856.82	4296.6	
856.99	2683.5	
857.16	2938.2	
857.33	5576.6	
857.49	4611.3	
857.66	2939.5	
857.83	3101.3	
858	4635.2	
858.17	4752.7	
858.34	2619.4	
858.51	2771.6	
858.68	5214.1	
858.85	5214.8	
859.02	3120.4	
859.19	3271.3	
859.36	4360.1	
859.52	4341	
859.69	2762	
859.86	3178.4	
860.03	4395.6	
860.2	5259.2	
860.37	2547.7	
860.54	2771.6	
860.71	4988.2	
860.88	5153.4	
861.05	3048.7	
861.21	3395.5	
861.38	5266.7	
861.55	4189.5	
861.72	2527.2	
861.89	3059.7	
862.06	5035.3	
862.23	5309.7	
862.4	2705.4	
862.56	2790	
862.73	4876.2	
862.9	4663.2	
863.07	3111.5	
863.24	2490.3	
863.41	4268.6	
863.58	4330.8	
863.75	2766.1	
863.91	3082.9	
864.08	5110.4	
864.25	4943.1	
864.42	3292.5	
864.59	3685	
864.76	5406	
864.93	4324.6	
865.09	2673.3	
865.26	2917.7	
865.43	5173.9	
865.6	5414.8	
865.77	2428.9	
865.94	2739.5	
866.1	5176.6	
866.27	4896	
866.44	3969.6	
866.61	2648.7	
866.78	4582.7	
866.95	4933.6	
867.11	2672.6	
867.28	2489.6	
867.45	5117.2	
867.62	4311	
867.79	3166.2	
867.96	2732.7	
868.12	4278.2	
868.29	4926	
868.46	2740.2	
868.63	3540.3	
868.8	5053	
868.97	4943.1	
869.13	2863.7	
869.3	2858.3	
869.47	4858.5	
869.64	5027.8	
869.81	2717	
869.97	2707.4	
870.14	4806.6	
870.31	5192.3	
870.48	2663	
870.65	3407.1	
870.81	4567	
870.98	4617.5	
871.15	3072.6	
871.32	2889	
871.48	4856.4	
871.65	5336.3	
871.82	2698.5	
871.99	3008.5	
872.16	5593	
872.32	5236	
872.49	2783.9	
872.66	2753.8	
872.83	5001.1	
872.99	4443.4	
873.16	3071.3	
873.33	2714.2	
873.5	4735.6	
873.67	4714.4	
873.83	2868.5	
874	3554.6	
874.17	4795	
874.34	5460.6	
874.5	3413.3	
874.67	3336.8	
874.84	5193.6	
875.01	4207.2	
875.17	3708.2	
875.34	2755.2	
875.51	4762.2	
875.68	5572.5	
875.84	3249.4	
876.01	3805.8	
876.18	4906.3	
876.34	4867.3	
876.51	2744.3	
876.68	2681.5	
876.85	4528.1	
877.01	5139	
877.18	3695.2	
877.35	2711.5	
877.52	4795.7	
877.68	4296.6	
877.85	2689.7	
878.02	2650.1	
878.18	4539.7	
878.35	4498.7	
878.52	2229.6	
878.69	3241.9	
878.85	5069.4	
879.02	4898.7	
879.19	3741.6	
879.35	2880.8	
879.52	4947.2	
879.69	5026.4	
879.86	2439.8	
880.02	2980.5	
880.19	4663.9	
880.36	5477	
880.52	3046	
880.69	3209.8	
880.86	4993.6	
881.02	5043.5	
881.19	2967.5	
881.36	2920.4	
881.52	4893.3	
881.69	4447.5	
881.86	2937.5	
882.02	2887	
882.19	5116.5	
882.36	5830.6	
882.52	2815.3	
882.69	3681.6	
882.86	4754.7	
883.02	4726	
883.19	3297.9	
883.36	3007.8	
883.52	4997	
883.69	5580.7	
883.86	2761.3	
884.02	2512.9	
884.19	4906.3	
884.36	4715.1	
884.52	3050.8	
884.69	2917.7	
884.86	4493.9	
885.02	5347.2	
885.19	2973.7	
885.36	3088.3	
885.52	4638	
885.69	4774.5	
885.86	3747.1	
886.02	3365.5	
886.19	4941.7	
886.35	4511.7	
886.52	2942.9	
886.69	3663.8	
886.85	4274.8	
887.02	5156.8	
887.19	5156.8	
887.35	5156.8	
887.52	5156.8	
887.68	5156.8	
887.85	5156.8	
888.02	5156.8	
888.18	5156.8	
888.35	5156.8	
888.51	5156.8	
888.68	5156.8	
888.85	5156.8	
889.01	5156.8	
889.18	5156.8	
889.35	5156.8	
889.51	5156.8	
889.68	5156.8	
889.84	5156.8	
890.01	5156.8	
890.17	5156.8	
890.34	5156.8	
890.51	5156.8	
890.67	5156.8	
890.84	5156.8	
891	5156.8	
891.17	5156.8	
891.34	5156.8	
891.5	5156.8	
891.67	5156.8	
891.83	5156.8	
892	5156.8	
892.16	5156.8	
892.33	5156.8	
892.5	5156.8	
892.66	5156.8	
892.83	5156.8	
892.99	5156.8	
893.16	5156.8	
893.32	5156.8	
893.49	5156.8	
893.65	5156.8	
893.82	5156.8	
893.99	5156.8	
894.15	5156.8	
894.32	5156.8	
894.48	5156.8	
894.65	5156.8	
894.81	5156.8	
894.98	5156.8	
895.14	5156.8	
895.31	5156.8	
895.47	5156.8	
895.64	5156.8	
895.81	5156.8	
895.97	5156.8	
896.14	5156.8	
896.3	5156.8	
896.47	5156.8	
896.63	5156.8	
896.8	5156.8	
896.96	5156.8	
897.13	5156.8	
897.29	5156.8	
897.46	5156.8	
897.62	5156.8	
897.79	5156.8	
897.95	5156.8	
898.12	5156.8	
898.28	5156.8	
898.45	5156.8	
898.61	5156.8	
898.78	5156.8	
898.94	5156.8	
899.11	5156.8	
899.27	5156.8	
899.44	5156.8	
899.6	5156.8	
899.77	5156.8	
899.93	5156.8	
900.1	5156.8	
900.26	5156.8	
900.43	5156.8	
900.59	5156.8	
900.76	5156.8	
900.92	5156.8	
901.09	5156.8	
901.25	5156.8	
901.42	5156.8	
901.58	5156.8	
901.75	5156.8	
901.91	5156.8	
902.07	5156.8	
902.24	5156.8	
902.4	5156.8	
902.57	5156.8	
902.73	5156.8	
902.9	5156.8	
903.06	5156.8	
903.23	5156.8	
903.39	5156.8	
903.56	5156.8	
903.72	5156.8	
903.88	5156.8	
904.05	5156.8	
904.21	5156.8	
904.38	5156.8	
904.54	5156.8	
904.71	5156.8	
904.87	5156.8	
905.03	5156.8	
905.2	5156.8	
905.36	5156.8	
905.53	5156.8	
905.69	5156.8	
905.86	5156.8	
906.02	5156.8	
906.18	5156.8	
906.35	5156.8	
906.51	5156.8	
906.68	5156.8	
906.84	5156.8	
907.01	5156.8	
907.17	5156.8	
907.33	5156.8	
907.5	5156.8	
907.66	5156.8	
907.83	5156.8	
907.99	5156.8	
908.15	5156.8	
908.32	5156.8	
908.48	5156.8	
908.65	5156.8	
908.81	5156.8	
908.97	5156.8	
909.14	5156.8	
909.3	5156.8	
909.47	5156.8	
909.63	5156.8	
909.79	5156.8	
909.96	5156.8	
910.12	5156.8	
910.28	5156.8	
910.45	5156.8	
910.61	5156.8	
910.78	5156.8	
910.94	5156.8	
911.1	5156.8	
911.27	5156.8	
911.43	5156.8	
911.59	5156.8	
911.76	5156.8	
911.92	5156.8	
912.08	5156.8	
912.25	5156.8	
912.41	5156.8	
912.57	5156.8	
912.74	5156.8	
912.9	5156.8	
913.07	5156.8	
913.23	5156.8	
913.39	5156.8	
913.56	5156.8	
913.72	5156.8	
913.88	5156.8	
914.05	5156.8	
914.21	5156.8	
914.37	5156.8	
914.54	5156.8	
914.7	5156.8	
914.86	5156.8	
915.03	5156.8	
915.19	5156.8	
