Wavelength	Intensities	
nm	a.u.	
179.22	1888.4	
179.44	1889.9	
179.65	1886.9	
179.86	1893	
180.08	1899.1	
180.29	4906.9	
180.51	3520.5	
180.72	5629.9	
180.94	6622.4	
181.15	3220.8	
181.37	3174.4	
181.58	5497.4	
181.79	5839.4	
182.01	3360	
182.22	3615.3	
182.44	5810.1	
182.65	4835.3	
182.87	4573.1	
183.08	4000.4	
183.29	6106.4	
183.51	4978.6	
183.72	3621.5	
183.94	5331.5	
184.15	5442.1	
184.37	5431.9	
184.58	3212.6	
184.79	4391.5	
185.01	4978.6	
185.22	5913.2	
185.44	4637.3	
185.65	3859.1	
185.86	5333.6	
186.08	4949.9	
186.29	3177.8	
186.51	3373	
186.72	5072.1	
186.94	5898.2	
187.15	3858.4	
187.36	3977.2	
187.58	7719.5	
187.79	5473.5	
188.01	4188.1	
188.22	6528.9	
188.43	6646.3	
188.65	5758.2	
188.86	3354.6	
189.08	4038.6	
189.29	5199.8	
189.5	5182	
189.72	3700.7	
189.93	3805.8	
190.15	5937.1	
190.36	7111.2	
190.57	4105.5	
190.79	3989.4	
191	6063.4	
191.22	6058.6	
191.43	4111	
191.64	3346.4	
191.86	6296.8	
192.07	6016.2	
192.29	3484.3	
192.5	3759.4	
192.71	5977.3	
192.93	5167	
193.14	3715.7	
193.35	3817.4	
193.57	5173.2	
193.78	5976.7	
194	3011.2	
194.21	3642.7	
194.42	4980	
194.64	5429.2	
194.85	4036.5	
195.07	4698.7	
195.28	5403.9	
195.49	4699.4	
195.71	4968.4	
195.92	3470.6	
196.13	5622.4	
196.35	5741.8	
196.56	5224.4	
196.78	4007.2	
196.99	7029.3	
197.2	6649.1	
197.42	4637.3	
197.63	4050.2	
197.84	4810.7	
198.06	5650.3	
198.27	3727.3	
198.48	5007.3	
198.7	5105.6	
198.91	5328.8	
199.13	4104.1	
199.34	4064.5	
199.55	5855.1	
199.77	4695.3	
199.98	3588.7	
200.19	4065.2	
200.41	5235.3	
200.62	5033.2	
200.83	4242.7	
201.05	4567	
201.26	5335.6	
201.47	5100.8	
201.69	3651.5	
201.9	3474	
202.11	5317.9	
202.33	6463.4	
202.54	3809.2	
202.76	4289.8	
202.97	5526.1	
203.18	5524.7	
203.4	4227.7	
203.61	4092.5	
203.82	5455.1	
204.04	5036.6	
204.25	4156.7	
204.46	3966.2	
204.68	5445.5	
204.89	5651	
205.1	3976.5	
205.32	3435.1	
205.53	5799.2	
205.74	6010.8	
205.96	2941.6	
206.17	4168.3	
206.38	5778.7	
206.6	5973.2	
206.81	4657.1	
207.02	3776.5	
207.24	5663.3	
207.45	6044.2	
207.66	3868.6	
207.88	3297.9	
208.09	5571.2	
208.3	5387.5	
208.52	3551.2	
208.73	3972.4	
208.94	5425.8	
209.15	6109.1	
209.37	3908.2	
209.58	4101.4	
209.79	5928.9	
210.01	5167.7	
210.22	3112.2	
210.43	3225.6	
210.65	5443.5	
210.86	5857.9	
211.07	3891.1	
211.29	3553.2	
211.5	5756.8	
211.71	5414.1	
211.93	3561.4	
212.14	3532.1	
212.35	5307	
212.56	5601.2	
212.78	4093.2	
212.99	3349.1	
213.2	6325.5	
213.42	5157.5	
213.63	3711.6	
213.84	3926	
214.06	4831.2	
214.27	4896	
214.48	3830.4	
214.69	4162.2	
214.91	6088.6	
215.12	6195.1	
215.33	4180.6	
215.55	4654.4	
215.76	6703	
215.97	5764.3	
216.18	4041.3	
216.4	3890.5	
216.61	5079.6	
216.82	5895.4	
217.04	3638.6	
217.25	3725.9	
217.46	6024.4	
217.67	5816.2	
217.89	3166.8	
218.1	3340.9	
218.31	5561.6	
218.53	5594.4	
218.74	3758.7	
218.95	3642.7	
219.16	5397.8	
219.38	6321.4	
219.59	3680.2	
219.8	4358.1	
220.01	7082.6	
220.23	5402.5	
220.44	4795	
220.65	3489.7	
220.87	5425.1	
221.08	6025.1	
221.29	3300	
221.5	4362.9	
221.72	7429.3	
221.93	5175.2	
222.14	4135.5	
222.35	4777.2	
222.57	5462.6	
222.78	5775.3	
222.99	3918.4	
223.2	4229.7	
223.42	5771.2	
223.63	5879	
223.84	2989.4	
224.05	2988.7	
224.27	6908.5	
224.48	6363	
224.69	4817.5	
224.9	4069.3	
225.12	5645.6	
225.33	5388.9	
225.54	3291.1	
225.75	3647.4	
225.97	5020.3	
226.18	5261.2	
226.39	3980.6	
226.6	3635.1	
226.82	5149.3	
227.03	5061.9	
227.24	4089.1	
227.45	3380.5	
227.67	5818.3	
227.88	6321.4	
228.09	4599.7	
228.3	4569	
228.52	5797.8	
228.73	5415.5	
228.94	3781.9	
229.15	3406.5	
229.36	5319.9	
229.58	5235.3	
229.79	3832.4	
230	4382	
230.21	6479.1	
230.43	5497.4	
230.64	4040.6	
230.85	4216.8	
231.06	5820.3	
231.28	5857.2	
231.49	3343	
231.7	3971	
231.91	5754.8	
232.12	5453.1	
232.34	3461.1	
232.55	3989.4	
232.76	6045.6	
232.97	5609.4	
233.18	3570.3	
233.4	4053.6	
233.61	5644.9	
233.82	5191.6	
234.03	3715.7	
234.25	3736.2	
234.46	7536.5	
234.67	5492	
234.88	4216.1	
235.09	3605.1	
235.31	5698.1	
235.52	5342.5	
235.73	4018.8	
235.94	3411.2	
236.15	5093.3	
236.37	6539.8	
236.58	3571.7	
236.79	3893.9	
237	5720.7	
237.21	4950.6	
237.43	4191.5	
237.64	3325.9	
237.85	9770.9	
238.06	4997	
238.27	4284.4	
238.48	3398.9	
238.7	5763.7	
238.91	5251	
239.12	3891.1	
239.33	3934.8	
239.54	5019.6	
239.76	5312.4	
239.97	3868.6	
240.18	3893.2	
240.39	6811.5	
240.6	5668.8	
240.82	4022.2	
241.03	3283.6	
241.24	5412.1	
241.45	6262.7	
241.66	3489.1	
241.87	4265.2	
242.09	6178	
242.3	6524.8	
242.51	4308.2	
242.72	3874.8	
242.93	5874.9	
243.14	5348.6	
243.36	4496	
243.57	4853	
243.78	6282.5	
243.99	5804.6	
244.2	3874.8	
244.41	3508.9	
244.63	4982.7	
244.84	5741.1	
245.05	4218.1	
245.26	3874.8	
245.47	5693.4	
245.68	5977.3	
245.9	5184.1	
246.11	4080.9	
246.32	5287.9	
246.53	5715.2	
246.74	6343.2	
246.95	3267.2	
247.16	4943.8	
247.38	5409.4	
247.59	3251.5	
247.8	3903.4	
248.01	5079	
248.22	5335	
248.43	3540.3	
248.64	3828.3	
248.86	4777.2	
249.07	5183.4	
249.28	3391.4	
249.49	4001	
249.7	6017.6	
249.91	6108.4	
250.12	3246	
250.34	3237.2	
250.55	5520.6	
250.76	5356.8	
250.97	4090.5	
251.18	4077.5	
251.39	6101.6	
251.6	5563.6	
251.81	4032.5	
252.03	4083.6	
252.24	5153.4	
252.45	5929.6	
252.66	3415.3	
252.87	4298.7	
253.08	5444.9	
253.29	7139.2	
253.5	3438.5	
253.72	4780.6	
253.93	5311.7	
254.14	6427.9	
254.35	3727.3	
254.56	3869.3	
254.77	5672.9	
254.98	5001.8	
255.19	3635.8	
255.41	4773.1	
255.62	5538.4	
255.83	6066.8	
256.04	4229.1	
256.25	4089.1	
256.46	6729.6	
256.67	5099.4	
256.88	4024.3	
257.09	4482.3	
257.31	5029.1	
257.52	5144.5	
257.73	5000.5	
257.94	3667.9	
258.15	5229.8	
258.36	5462.6	
258.57	4657.8	
258.78	2918.4	
258.99	5881.1	
259.2	5278.3	
259.41	3762.8	
259.63	3839.3	
259.84	6257.9	
260.05	6717.3	
260.26	4876.2	
260.47	3600.3	
260.68	6034.7	
260.89	5330.9	
261.1	4549.2	
261.31	3509.5	
261.52	5994.4	
261.73	6392.4	
261.95	4807.3	
262.16	4222.2	
262.37	6097.5	
262.58	6202.6	
262.79	4741	
263	3766.2	
263.21	5465.3	
263.42	4895.3	
263.63	3870.7	
263.84	3822.9	
264.05	6006.7	
264.26	6384.2	
264.47	4622.3	
264.69	4237.9	
264.9	6164.4	
265.11	5652.4	
265.32	3583.3	
265.53	3703.4	
265.74	5534.3	
265.95	4767.7	
266.16	3972.4	
266.37	4420.9	
266.58	5511.1	
266.79	5238.7	
267	3707.5	
267.21	3439.2	
267.42	4985.4	
267.63	5471.5	
267.84	3852.9	
268.06	3344.3	
268.27	5867.4	
268.48	6091.3	
268.69	3786	
268.9	4517.8	
269.11	6114.6	
269.32	4887.1	
269.53	3863.2	
269.74	3626.3	
269.95	5787.6	
270.16	4809.3	
270.37	3903.4	
270.58	4595.6	
270.79	5289.9	
271	5939.8	
271.21	4171.7	
271.42	3960.8	
271.63	5527.5	
271.84	5091.3	
272.05	3119.7	
272.26	3540.9	
272.47	5441.5	
272.68	5656.5	
272.89	3743	
273.11	4356.7	
273.32	5250.3	
273.53	6364.4	
273.74	4182.6	
273.95	4064.5	
274.16	6061.3	
274.37	5509.7	
274.58	4263.9	
274.79	3416.7	
275	5547.3	
275.21	6144.6	
275.42	5152	
275.63	4453.6	
275.84	5711.8	
276.05	7231.4	
276.26	4113.7	
276.47	3848.1	
276.68	5253.7	
276.89	6436.1	
277.1	4448.9	
277.31	3439.2	
277.52	5658.5	
277.73	5884.5	
277.94	3407.8	
278.15	3755.3	
278.36	5681.7	
278.57	5089.2	
278.78	3712.3	
278.99	4223.6	
279.2	5040.7	
279.41	5019.6	
279.62	4923.3	
279.83	3482.2	
280.04	6599.9	
280.25	4997	
280.46	4922.6	
280.67	3920.5	
280.88	5022.3	
281.09	6062	
281.3	4121.9	
281.51	5222.3	
281.72	5922	
281.93	5945.3	
282.14	3614	
282.35	3943.7	
282.56	5934.3	
282.77	5943.2	
282.98	3779.2	
283.19	4594.3	
283.4	7263.5	
283.61	5335	
283.82	3507.5	
284.03	4873.5	
284.24	5508.4	
284.45	6031.3	
284.66	4848.2	
284.87	4650.9	
285.08	6001.9	
285.29	6164.4	
285.5	3312.9	
285.71	3834.5	
285.92	6052.4	
286.12	6675.7	
286.33	4793.6	
286.54	3786.7	
286.75	5918.6	
286.96	5274.9	
287.17	3488.4	
287.38	4764.9	
287.59	5045.5	
287.8	4987.5	
288.01	3815.4	
288.22	4370.4	
288.43	5977.3	
288.64	4963.6	
288.85	4513.7	
289.06	4247.5	
289.27	5862.7	
289.48	6398.5	
289.69	4894	
289.9	4429.8	
290.11	6048.3	
290.32	5179.3	
290.53	4636.6	
290.74	4256.4	
290.94	5894.7	
291.15	5915.2	
291.36	3700	
291.57	4337.6	
291.78	5169.8	
291.99	4874.2	
292.2	3451.5	
292.41	4283.7	
292.62	6004.6	
292.83	5839.4	
293.04	5239.4	
293.25	3521.1	
293.46	5168.4	
293.67	5986.9	
293.88	3701.4	
294.09	3517	
294.29	4972.5	
294.5	5590.3	
294.71	3936.9	
294.92	3766.9	
295.13	5235.3	
295.34	6519.4	
295.55	3282.9	
295.76	3329.3	
295.97	5834	
296.18	6635.4	
296.39	3477.5	
296.6	3694.5	
296.81	5582.8	
297.01	5842.2	
297.22	3819.5	
297.43	3658.4	
297.64	5052.3	
297.85	5074.2	
298.06	3015.3	
298.27	3351.2	
298.48	5479	
298.69	5146.5	
298.9	3947.1	
299.11	3515	
299.31	4965	
299.52	4961.5	
299.73	4269.3	
299.94	4278.2	
300.15	5483.8	
300.36	5065.3	
300.57	4173.1	
300.78	4198.3	
300.99	5348.6	
301.2	5612.8	
301.4	3664.5	
301.61	3985.3	
301.82	5748	
302.03	5864.7	
302.24	4429.8	
302.45	3500.7	
302.66	5729.5	
302.87	6171.9	
303.08	3694.5	
303.29	5034.6	
303.49	5193.6	
303.7	5461.9	
303.91	3264.5	
304.12	4812.7	
304.33	4939.7	
304.54	5547.3	
304.75	3681.6	
304.96	3473.4	
305.16	5775.3	
305.37	6456.6	
305.58	3189.4	
305.79	3312.2	
306	5787.6	
306.21	4808.6	
306.42	3676.1	
306.63	5643.5	
306.83	5302.2	
307.04	6043.6	
307.25	4028.4	
307.46	3962.8	
307.67	4707.6	
307.88	5859.2	
308.09	3617.4	
308.29	3715.7	
308.5	5554.8	
308.71	6056.5	
308.92	3957.4	
309.13	3551.9	
309.34	5307.7	
309.55	5317.2	
309.75	4485.1	
309.96	4186	
310.17	5874.3	
310.38	5153.4	
310.59	4482.3	
310.8	3409.9	
311.01	5251.7	
311.21	5262.6	
311.42	3512.3	
311.63	3606.5	
311.84	5174.5	
312.05	5557.5	
312.26	4068.6	
312.46	4456.4	
312.67	5227.1	
312.88	5000.5	
313.09	3527.3	
313.3	3415.3	
313.51	6263.4	
313.71	6537.8	
313.92	3525.9	
314.13	3743	
314.34	5657.2	
314.55	5384.8	
314.76	4577.9	
314.96	3992.2	
315.17	5487.9	
315.38	5849.7	
315.59	3512.3	
315.8	3370.3	
316.01	6331.6	
316.21	6332.3	
316.42	3409.9	
316.63	3932.1	
316.84	5280.3	
317.05	6147.3	
317.26	4169	
317.46	3762.1	
317.67	5350	
317.88	5833.3	
318.09	4490.5	
318.3	3287	
318.5	5143.8	
318.71	5773.2	
318.92	5725.4	
319.13	4164.2	
319.34	5979.4	
319.54	6051.7	
319.75	3289.7	
319.96	3166.2	
320.17	5846.3	
320.38	6034.7	
320.58	3207.1	
320.79	3856.3	
321	5989.6	
321.21	6072.9	
321.42	3951.9	
321.62	3241.3	
321.83	5035.3	
322.04	5468.8	
322.25	3806.5	
322.46	3575.8	
322.66	5570.5	
322.87	5685.2	
323.08	4384	
323.29	3492.5	
323.5	6462	
323.7	4988.2	
323.91	4803.2	
324.12	4323.9	
324.33	5474.2	
324.53	5816.2	
324.74	4111	
324.95	4384	
325.16	4824.3	
325.37	5279.7	
325.57	3512.9	
325.78	3639.9	
325.99	5490.6	
326.2	4916.5	
326.4	5184.8	
326.61	3288.4	
326.82	5367	
327.03	5502.2	
327.24	5089.2	
327.44	4713.1	
327.65	5662.6	
327.86	4637.3	
328.07	4185.4	
328.27	3320.4	
328.48	6060.6	
328.69	5037.3	
328.9	5142.4	
329.1	3843.4	
329.31	5344.5	
329.52	6274.3	
329.73	3531.4	
329.93	4029.7	
330.14	5450.3	
330.35	5662	
330.56	5852.4	
330.76	4390.2	
330.97	5255.1	
331.18	5654.4	
331.39	3957.4	
331.59	3189.4	
331.8	6001.9	
332.01	6194.4	
332.22	3685.7	
332.42	4196.3	
332.63	5592.3	
332.84	5128.1	
333.05	4012.7	
333.25	3632.4	
333.46	5177.3	
333.67	5463.3	
333.88	3718.4	
334.08	4189.5	
334.29	7638.2	
334.5	6119.3	
334.7	3503.4	
334.91	5057.1	
335.12	4941.7	
335.33	5789.6	
335.53	3928.7	
335.74	5801.2	
335.95	5257.1	
336.16	5070.8	
336.36	3941	
336.57	4538.3	
336.78	4941.1	
336.98	5990.3	
337.19	4878.9	
337.4	3904.8	
337.61	6585.6	
337.81	4952.7	
338.02	3674.7	
338.23	4726.7	
338.43	6191	
338.64	5150.6	
338.85	3571.7	
339.05	4648.9	
339.26	6324.8	
339.47	4915.1	
339.68	3520.5	
339.88	5283.1	
340.09	5713.2	
340.3	5903.6	
340.5	4172.4	
340.71	3160	
340.92	4884.4	
341.13	6206	
341.33	3396.9	
341.54	4192.2	
341.75	5659.2	
341.95	5340.4	
342.16	3988.1	
342.37	4360.1	
342.57	5050.3	
342.78	5441.5	
342.99	4429.1	
343.19	3239.2	
343.4	5810.1	
343.61	5687.2	
343.81	3830.4	
344.02	3500.7	
344.23	5857.2	
344.43	6312.5	
344.64	4383.3	
344.85	4279.6	
345.06	5728.2	
345.26	6060.6	
345.47	4154	
345.68	4855.7	
345.88	4813.4	
346.09	5928.2	
346.3	4231.1	
346.5	3108.8	
346.71	5409.4	
346.92	5146.5	
347.12	3333.4	
347.33	4130.1	
347.54	5980.8	
347.74	6431.3	
347.95	4079.6	
348.16	3043.3	
348.36	5260.5	
348.57	4915.1	
348.78	4067.3	
348.98	4436.6	
349.19	5419.6	
349.39	4926	
349.6	3287	
349.81	3646.7	
350.01	5649.7	
350.22	5167	
350.43	3933.5	
350.63	4708.3	
350.84	5525.4	
351.05	5165.7	
351.25	3592.1	
351.46	3247.4	
351.67	6007.4	
351.87	5137	
352.08	3831.1	
352.29	4396.3	
352.49	5872.9	
352.7	5994.4	
352.9	3442	
353.11	4343.1	
353.32	6520.7	
353.52	5210	
353.73	3404.4	
353.94	4392.2	
354.14	5776	
354.35	5550.7	
354.55	3548.4	
354.76	3947.1	
354.97	5638.7	
355.17	5485.1	
355.38	3332	
355.59	4601.8	
355.79	5128.1	
356	5538.4	
356.2	3937.6	
356.41	3405.1	
356.62	4874.8	
356.82	5387.5	
357.03	4129.4	
357.24	3809.2	
357.44	5137	
357.65	5264	
357.85	5051	
358.06	3913	
358.27	4897.4	
358.47	5079.6	
358.68	3315	
358.88	4133.5	
359.09	5700.9	
359.3	6082.5	
359.5	4898.7	
359.71	4289.1	
359.91	6435.4	
360.12	5799.8	
360.33	4106.9	
360.53	4656.4	
360.74	5145.2	
360.94	5208	
361.15	4372.4	
361.36	3638.6	
361.56	5932.3	
361.77	5361.6	
361.97	4884.4	
362.18	3817.4	
362.38	5933	
362.59	4960.9	
362.8	3560.7	
363	3362.1	
363.21	4783.4	
363.41	5399.8	
363.62	4046.1	
363.83	5126.1	
364.03	5532.9	
364.24	6450.4	
364.44	5150	
364.65	5072.1	
364.85	5283.8	
365.06	4928.8	
365.27	3688.4	
365.47	3745.1	
365.68	6299.6	
365.88	5257.1	
366.09	4070.7	
366.29	3796.9	
366.5	5524.7	
366.71	5952.1	
366.91	5031.2	
367.12	4293.2	
367.32	6568.5	
367.53	5842.9	
367.73	4143.7	
367.94	5153.4	
368.14	5761.6	
368.35	6681.8	
368.56	4180.6	
368.76	3975.1	
368.97	5916.6	
369.17	7583.6	
369.38	3674.7	
369.58	3934.1	
369.79	4887.8	
369.99	6241.5	
370.2	4981.3	
370.4	4078.9	
370.61	5585.5	
370.82	6738.5	
371.02	3974.4	
371.23	3272	
371.43	4831.8	
371.64	6175.3	
371.84	3979.9	
372.05	5197.1	
372.25	7507.2	
372.46	5879	
372.66	3900	
372.87	3911.6	
373.07	5965.1	
373.28	7569.3	
373.48	4954	
373.69	4638.6	
373.9	5384.8	
374.1	5416.9	
374.31	4905.6	
374.51	4444.8	
374.72	6181.5	
374.92	5087.8	
375.13	5048.2	
375.33	4263.9	
375.54	5801.9	
375.74	5200.5	
375.95	4320.5	
376.15	5623.7	
376.36	5795.8	
376.56	5586.2	
376.77	4373.8	
376.97	4738.3	
377.18	6865.5	
377.38	5876.3	
377.59	5124	
377.79	3798.3	
378	5636	
378.2	6130.3	
378.41	3918.4	
378.61	3809.2	
378.82	6141.2	
379.02	5206.6	
379.23	4022.2	
379.43	5187.5	
379.64	6217	
379.84	5842.2	
380.05	3924.6	
380.25	3839.3	
380.46	5961.6	
380.66	5487.9	
380.87	5236	
381.07	5655.8	
381.28	6564.4	
381.48	5940.5	
381.69	3909.6	
381.89	3951.2	
382.1	4867.3	
382.3	6135	
382.51	5070.8	
382.71	5989.6	
382.91	5948	
383.12	6499.6	
383.32	4298.7	
383.53	4561.5	
383.73	5799.2	
383.94	5569.8	
384.14	4457.1	
384.35	3553.2	
384.55	5535.7	
384.76	5995.1	
384.96	4348.5	
385.17	4645.5	
385.37	5999.9	
385.58	5261.2	
385.78	4669.4	
385.98	3502.7	
386.19	5472.2	
386.39	5862.7	
386.6	4061.1	
386.8	4284.4	
387.01	5963	
387.21	6012.2	
387.42	4739.7	
387.62	5389.6	
387.83	5303.6	
388.03	5977.3	
388.23	4341.7	
388.44	5194.3	
388.64	4819.6	
388.85	5036	
389.05	4729.4	
389.26	5299.5	
389.46	6955.6	
389.67	6384.9	
389.87	4629.8	
390.07	4751.3	
390.28	5582.8	
390.48	5158.2	
390.69	3937.6	
390.89	4272.7	
391.1	5383.4	
391.3	6299.6	
391.5	5508.4	
391.71	6070.9	
391.91	6042.2	
392.12	7083.2	
392.32	5540.4	
392.53	4756.7	
392.73	5451	
392.93	5616.9	
393.14	4375.8	
393.34	5259.9	
393.55	6206.7	
393.75	5567.1	
393.95	4428.4	
394.16	4309.6	
394.36	5293.3	
394.57	6046.3	
394.77	3900.7	
394.98	4315.8	
395.18	5288.5	
395.38	5526.8	
395.59	5139.7	
395.79	4041.3	
396	5429.8	
396.2	5915.2	
396.4	4943.1	
396.61	4857.1	
396.81	6151.4	
397.02	5345.2	
397.22	5199.8	
397.42	5248.9	
397.63	6156.9	
397.83	5335.6	
398.04	4019.5	
398.24	4607.9	
398.44	5904.3	
398.65	4871.4	
398.85	3860.4	
399.05	4015.4	
399.26	5298.8	
399.46	7005.4	
399.67	4414.7	
399.87	4124.6	
400.07	5623	
400.28	6008.1	
400.48	4163.5	
400.69	5271.5	
400.89	6208.8	
401.09	6701.6	
401.3	4029	
401.5	5216.2	
401.7	7014.3	
401.91	7173.4	
402.11	4468.7	
402.32	4708.3	
402.52	6329.6	
402.72	6212.9	
402.93	4904.2	
403.13	3727.3	
403.33	7023.2	
403.54	5764.3	
403.74	4595.6	
403.94	5514.5	
404.15	5829.2	
404.35	6970.6	
404.56	4392.2	
404.76	6260	
404.96	6303.6	
405.17	6029.2	
405.37	5797.1	
405.57	4847.5	
405.78	6277	
405.98	5726.1	
406.18	4413.4	
406.39	5352	
406.59	6245.6	
406.79	5879.7	
407	4214	
407.2	4339.6	
407.4	6307.7	
407.61	6448.4	
407.81	4298	
408.01	6657.3	
408.22	5211.4	
408.42	7232.7	
408.62	5378.6	
408.83	4683.7	
409.03	5851	
409.23	5552	
409.44	4853	
409.64	5165	
409.84	6776.7	
410.05	6638.8	
410.25	4972.5	
410.45	4761.5	
410.66	6140.5	
410.86	8715.5	
411.06	5260.5	
411.27	5159.5	
411.47	8436.3	
411.67	6337.1	
411.88	5350.7	
412.08	5610.8	
412.28	6987.7	
412.49	7537.9	
412.69	5130.2	
412.89	5111	
413.09	7375.4	
413.3	7185	
413.5	5174.5	
413.7	4861.9	
413.91	6451.1	
414.11	7305.8	
414.31	5145.9	
414.52	5511.1	
414.72	7038.2	
414.92	6885.3	
415.12	5056.4	
415.33	5607.3	
415.53	7280.5	
415.73	7536.5	
415.94	6011.5	
416.14	5430.5	
416.34	6285.9	
416.55	5881.1	
416.75	6654.5	
416.95	6051.1	
417.15	7230	
417.36	8005.5	
417.56	6806.1	
417.76	5929.6	
417.97	7665.5	
418.17	7376.1	
418.37	5415.5	
418.57	5574.6	
418.78	7096.9	
418.98	6795.8	
419.18	6421.1	
419.38	6360.3	
419.59	6845.7	
419.79	6476.4	
419.99	5412.1	
420.2	5839.4	
420.4	7398.6	
420.6	7537.9	
420.8	5335.6	
421.01	5143.1	
421.21	7180.2	
421.41	7383.6	
421.61	5827.2	
421.82	5424.4	
422.02	6680.5	
422.22	7681.2	
422.42	6199.2	
422.63	5934.3	
422.83	6854.6	
423.03	8032.8	
423.23	5918.6	
423.44	4872.1	
423.64	6962.4	
423.84	6660	
424.04	5335	
424.25	4997	
424.45	7887.4	
424.65	7854.6	
424.85	4748.6	
425.06	5516.5	
425.26	7841	
425.46	6299.6	
425.66	5902.9	
425.87	5572.5	
426.07	7632.1	
426.27	7384.3	
426.47	5760.3	
426.67	5113.8	
426.88	7896.3	
427.08	7471	
427.28	6008.1	
427.48	5079	
427.69	6268.8	
427.89	6893.5	
428.09	5956.2	
428.29	5102.2	
428.5	7642.3	
428.7	7172.7	
428.9	5059.8	
429.1	5488.6	
429.3	7094.8	
429.51	7510.6	
429.71	5358.2	
429.91	6140.5	
430.11	7309.2	
430.31	7638.9	
430.52	5609.4	
430.72	5936.4	
430.92	8023.3	
431.12	7487.4	
431.32	5394.3	
431.53	5807.4	
431.73	6328.2	
431.93	8064.2	
432.13	5234.6	
432.33	5084.4	
432.54	6805.4	
432.74	7233.4	
432.94	5072.1	
433.14	6152.8	
433.34	7430.7	
433.55	6875.7	
433.75	6084.5	
433.95	7889.5	
434.15	7179.5	
434.35	6920.1	
434.56	5354.8	
434.76	4780	
434.96	7195.9	
435.16	7457.3	
435.36	5184.1	
435.56	6370.5	
435.77	6791.1	
435.97	7040.9	
436.17	7099.6	
436.37	6321.4	
436.57	6814.3	
436.78	6748.1	
436.98	8041	
437.18	6880.5	
437.38	7598.6	
437.58	7100.3	
437.78	7085.3	
437.99	5710.4	
438.19	7651.9	
438.39	8484.7	
438.59	5638.7	
438.79	5131.5	
438.99	8273.1	
439.2	7057.3	
439.4	5201.8	
439.6	5177.3	
439.8	7322.9	
440	8409	
440.2	6230.6	
440.4	6376.7	
440.61	7766.6	
440.81	8376.9	
441.01	5442.8	
441.21	6291.4	
441.41	8256.7	
441.61	7819.8	
441.81	6763.8	
442.02	7812.3	
442.22	8755.7	
442.42	7956.4	
442.62	5571.2	
442.82	5604.6	
443.02	8274.5	
443.22	7376.8	
443.43	6038.1	
443.63	5558.9	
443.83	7174.7	
444.03	7243.7	
444.23	6851.1	
444.43	6472.9	
444.63	7548.1	
444.83	8836.3	
445.04	5794.4	
445.24	7067.5	
445.44	7959.1	
445.64	8123.6	
445.84	6564.4	
446.04	6604.7	
446.24	7322.9	
446.44	8385.7	
446.65	5756.2	
446.85	6161	
447.05	7691.5	
447.25	8355	
447.45	6315.3	
447.65	5647.6	
447.85	7635.5	
448.05	7331	
448.25	6614.3	
448.46	6451.1	
448.66	7645.8	
448.86	7329	
449.06	5459.2	
449.26	6694.1	
449.46	7995.3	
449.66	7059.3	
449.86	6182.8	
450.06	6201.2	
450.26	7235.5	
450.47	7890.8	
450.67	6517.3	
450.87	6855.9	
451.07	8024.6	
451.27	7789.8	
451.47	5780.7	
451.67	6377.4	
451.87	7464.2	
452.07	8589.2	
452.27	6065.4	
452.47	6041.5	
452.67	7776.8	
452.88	8263.6	
453.08	5421.7	
453.28	7426.6	
453.48	9120.3	
453.68	7749.5	
453.88	5983.5	
454.08	6197.2	
454.28	8165.3	
454.48	7837.6	
454.68	6778.8	
454.88	7330.4	
455.08	8224.6	
455.28	7968.6	
455.48	5836	
455.68	6525.5	
455.89	8816.5	
456.09	8370.7	
456.29	6268.1	
456.49	6253.1	
456.69	8597.4	
456.89	7885.4	
457.09	6849.8	
457.29	7276.4	
457.49	8239.7	
457.69	8420.6	
457.89	6729.6	
458.09	6143.2	
458.29	8065.6	
458.49	8865	
458.69	7206.1	
458.89	6623.8	
459.09	9108.7	
459.29	9172.2	
459.49	6696.9	
459.69	7618.4	
459.9	8723	
460.1	8160.5	
460.3	6647.7	
460.5	6309.1	
460.7	8594.6	
460.9	8360.5	
461.1	6029.9	
461.3	7406.8	
461.5	9220	
461.7	8899.8	
461.9	6580.8	
462.1	7030.7	
462.3	8371.4	
462.5	9037.7	
462.7	6661.4	
462.9	6811.5	
463.1	10116	
463.3	9856.2	
463.5	7058	
463.7	7995.3	
463.9	8593.3	
464.1	9114.8	
464.3	7235.5	
464.5	7409.6	
464.7	9385.8	
464.9	9136.7	
465.1	8929.8	
465.3	7842.4	
465.5	9781.1	
465.7	9730.6	
465.9	8066.9	
466.1	7784.3	
466.3	9576.3	
466.5	9382.4	
466.7	8871.1	
466.9	7713.3	
467.1	9476.6	
467.3	10402	
467.5	8787.2	
467.7	7747.5	
467.9	10590	
468.1	11486	
468.3	8503.2	
468.5	8927.1	
468.7	9504.6	
468.9	9440.5	
469.1	8069	
469.3	8724.3	
469.5	11546	
469.7	9036.3	
469.9	8550.3	
470.1	7960.5	
470.3	9588.6	
470.5	9536	
470.7	9215.9	
470.9	7901.1	
471.1	9340.8	
471.3	9659.6	
471.5	7815.7	
471.69	9820	
471.89	9185.8	
472.09	8705.9	
472.29	8673.8	
472.49	8951	
472.69	8963.3	
472.89	9837.8	
473.09	7746.1	
473.29	7787.1	
473.49	9087.5	
473.69	9312.8	
473.89	8834.3	
474.09	8002.8	
474.29	10535	
474.49	10244	
474.69	8858.1	
474.89	8099	
475.09	9321.7	
475.29	9439.8	
475.49	7568.6	
475.69	7800	
475.88	10968	
476.08	9704	
476.28	7505.1	
476.48	7976.8	
476.68	10114	
476.88	9912.9	
477.08	7747.5	
477.28	8135.9	
477.48	9430.9	
477.68	10004	
477.88	7578.2	
478.08	7869	
478.28	10404	
478.48	9464.3	
478.67	7966.6	
478.87	7444.4	
479.07	10330	
479.27	9704	
479.47	8233.5	
479.67	8256.7	
479.87	10088	
480.07	10544	
480.27	7552.9	
480.47	9202.9	
480.67	9739.5	
480.87	10367	
481.06	7724.3	
481.26	8782.4	
481.46	9735.4	
481.66	9640.5	
481.86	8364.6	
482.06	9445.9	
482.26	9439.1	
482.46	10377	
482.66	8297	
482.86	7871.7	
483.05	9841.9	
483.25	9284.1	
483.45	10825	
483.65	8287.4	
483.85	9443.2	
484.05	9679.4	
484.25	8852.7	
484.45	9364.7	
484.65	10741	
484.84	10654	
485.04	8312	
485.24	8325.7	
485.44	10891	
485.64	9170.1	
485.84	7574.1	
486.04	9062.3	
486.24	9618.6	
486.44	10073	
486.63	7697.6	
486.83	8482.7	
487.03	9742.9	
487.23	9952.4	
487.43	7718.8	
487.63	10223	
487.83	9873.3	
488.02	11003	
488.22	8862.2	
488.42	9446.6	
488.62	10808	
488.82	9754.5	
489.02	8425.3	
489.22	8672.5	
489.41	10741	
489.61	10476	
489.81	8261.5	
490.01	8322.9	
490.21	10701	
490.41	11441	
490.61	8342.1	
490.8	8547.5	
491	10380	
491.2	9699.9	
491.4	9122.3	
491.6	8239.7	
491.8	10380	
491.99	10440	
492.19	7995.3	
492.39	8415.1	
492.59	10786	
492.79	10775	
492.99	9179	
493.18	8407.6	
493.38	10899	
493.58	11789	
493.78	9168.1	
493.98	8714.1	
494.18	10799	
494.37	10286	
494.57	9531.9	
494.77	9306	
494.97	11140	
495.17	11471	
495.37	9005.6	
495.56	9398.8	
495.76	11627	
495.96	11326	
496.16	10436	
496.36	9357.9	
496.55	11588	
496.75	11080	
496.95	9891.7	
497.15	9691.7	
497.35	11544	
497.54	11542	
497.74	9441.8	
497.94	11261	
498.14	12299	
498.34	12096	
498.53	9100.5	
498.73	10089	
498.93	11027	
499.13	11714	
499.33	9818.6	
499.52	10343	
499.72	11753	
499.92	11947	
500.12	9526.5	
500.32	9841.9	
500.51	11974	
500.71	11906	
500.91	10634	
501.11	10301	
501.31	11865	
501.5	12368	
501.7	10985	
501.9	9979.8	
502.1	11689	
502.29	12116	
502.49	10380	
502.69	10961	
502.89	12096	
503.09	11925	
503.28	9562.6	
503.48	9659.6	
503.68	11123	
503.88	11176	
504.07	10581	
504.27	10015	
504.47	11619	
504.67	11672	
504.86	10524	
505.06	10171	
505.26	11252	
505.46	13158	
505.65	10158	
505.85	10333	
506.05	11157	
506.25	11628	
506.44	9368.1	
506.64	10323	
506.84	10978	
507.04	12007	
507.23	9527.2	
507.43	10104	
507.63	13023	
507.83	11304	
508.02	10147	
508.22	9732.6	
508.42	13372	
508.62	11102	
508.81	10196	
509.01	10648	
509.21	10893	
509.4	11252	
509.6	10145	
509.8	9594.1	
510	11184	
510.19	12824	
510.39	9559.9	
510.59	9692.4	
510.79	11155	
510.98	12686	
511.18	9785.9	
511.38	10012	
511.57	12013	
511.77	11817	
511.97	10597	
512.17	9554.5	
512.36	12037	
512.56	11832	
512.76	9591.3	
512.95	9409.7	
513.15	12105	
513.35	10712	
513.55	10550	
513.74	9583.8	
513.94	12054	
514.14	11395	
514.33	10626	
514.53	10483	
514.73	11500	
514.92	11602	
515.12	9929.2	
515.32	9740.8	
515.51	11680	
515.71	12328	
515.91	11631	
516.11	9945.6	
516.3	13630	
516.5	11247	
516.7	10458	
516.89	11104	
517.09	11569	
517.29	11342	
517.48	10755	
517.68	10157	
517.88	11305	
518.07	11913	
518.27	10666	
518.47	9682.8	
518.66	12481	
518.86	11129	
519.06	9553.8	
519.25	9932.6	
519.45	11432	
519.65	13034	
519.84	10777	
520.04	11458	
520.24	13425	
520.43	12222	
520.63	10417	
520.83	10233	
521.02	11428	
521.22	12102	
521.42	10731	
521.61	11218	
521.81	11484	
522.01	11710	
522.2	10432	
522.4	10236	
522.6	12237	
522.79	11070	
522.99	10388	
523.18	9695.8	
523.38	12143	
523.58	12114	
523.77	11868	
523.97	9815.9	
524.17	14006	
524.36	13232	
524.56	11366	
524.76	11159	
524.95	12424	
525.15	12055	
525.34	10916	
525.54	11019	
525.74	12791	
525.93	11907	
526.13	12155	
526.33	11124	
526.52	13321	
526.72	12837	
526.91	12435	
527.11	11731	
527.31	13388	
527.5	13815	
527.7	11546	
527.89	10611	
528.09	12413	
528.29	12973	
528.48	11946	
528.68	11675	
528.87	13373	
529.07	13419	
529.27	11762	
529.46	11317	
529.66	13274	
529.85	13846	
530.05	11254	
530.25	11994	
530.44	14742	
530.64	13106	
530.83	11575	
531.03	11766	
531.23	13454	
531.42	13371	
531.62	12418	
531.81	11575	
532.01	13713	
532.21	14156	
532.4	11597	
532.6	11962	
532.79	14946	
532.99	14081	
533.18	12276	
533.38	13244	
533.58	13704	
533.77	14391	
533.97	12344	
534.16	13143	
534.36	14679	
534.55	13796	
534.75	13452	
534.95	12343	
535.14	14726	
535.34	13978	
535.53	12086	
535.73	14233	
535.92	15321	
536.12	14082	
536.31	12166	
536.51	13624	
536.71	14220	
536.9	13807	
537.1	12268	
537.29	12597	
537.49	14739	
537.68	13690	
537.88	13000	
538.07	12119	
538.27	14042	
538.46	15027	
538.66	12020	
538.86	12497	
539.05	14240	
539.25	14599	
539.44	12964	
539.64	12406	
539.83	14050	
540.03	15090	
540.22	12444	
540.42	12525	
540.61	14286	
540.81	14449	
541	12729	
541.2	13629	
541.39	13657	
541.59	14227	
541.78	13222	
541.98	12378	
542.18	13556	
542.37	13532	
542.57	12654	
542.76	13332	
542.96	13558	
543.15	14228	
543.35	12671	
543.54	12042	
543.74	14422	
543.93	14109	
544.13	12602	
544.32	13536	
544.52	14229	
544.71	13387	
544.91	11699	
545.1	12874	
545.3	13497	
545.49	14238	
545.69	11513	
545.88	12200	
546.08	15178	
546.27	14635	
546.47	12752	
546.66	12029	
546.86	14399	
547.05	15040	
547.24	12194	
547.44	12080	
547.63	13392	
547.83	14656	
548.02	12624	
548.22	12722	
548.41	13033	
548.61	14539	
548.8	11891	
549	11952	
549.19	13774	
549.39	14196	
549.58	11721	
549.78	12321	
549.97	14259	
550.17	13708	
550.36	13138	
550.55	14145	
550.75	13641	
550.94	14583	
551.14	11831	
551.33	12211	
551.53	12960	
551.72	14042	
551.92	12290	
552.11	12022	
552.31	14070	
552.5	14074	
552.69	13717	
552.89	11679	
553.08	14005	
553.28	13633	
553.47	11934	
553.67	13192	
553.86	14663	
554.06	12820	
554.25	11217	
554.44	11815	
554.64	15389	
554.83	14868	
555.03	11757	
555.22	12202	
555.42	14157	
555.61	13850	
555.8	11957	
556	12108	
556.19	12928	
556.39	14229	
556.58	11973	
556.78	12013	
556.97	13652	
557.16	13487	
557.36	13214	
557.55	11649	
557.75	12721	
557.94	14650	
558.13	11738	
558.33	11564	
558.52	14298	
558.72	13306	
558.91	11640	
559.1	11937	
559.3	12904	
559.49	12547	
559.69	11276	
559.88	12261	
560.07	13811	
560.27	14052	
560.46	12418	
560.66	12661	
560.85	13469	
561.04	12712	
561.24	11637	
561.43	11821	
561.63	12822	
561.82	13160	
562.01	13093	
562.21	12093	
562.4	13565	
562.59	14678	
562.79	12005	
562.98	11661	
563.18	13538	
563.37	15164	
563.56	12583	
563.76	11609	
563.95	13267	
564.14	13196	
564.34	12148	
564.53	11934	
564.73	13716	
564.92	14160	
565.11	12250	
565.31	11696	
565.5	14283	
565.69	13336	
565.89	11923	
566.08	12376	
566.27	14355	
566.47	14801	
566.66	12930	
566.85	11676	
567.05	13919	
567.24	13423	
567.44	11989	
567.63	13364	
567.82	14299	
568.02	13958	
568.21	11938	
568.4	12467	
568.6	13820	
568.79	13892	
568.98	11862	
569.18	12093	
569.37	13957	
569.56	15913	
569.76	12579	
569.95	13660	
570.14	14399	
570.34	14386	
570.53	12062	
570.72	12093	
570.91	14869	
571.11	14027	
571.3	12712	
571.49	13532	
571.69	14128	
571.88	13613	
572.07	13254	
572.27	13176	
572.46	13617	
572.65	14787	
572.85	12430	
573.04	12796	
573.23	14986	
573.43	14245	
573.62	12269	
573.81	12875	
574	14382	
574.2	14088	
574.39	12741	
574.58	12959	
574.78	15452	
574.97	14683	
575.16	13377	
575.36	13584	
575.55	15184	
575.74	15220	
575.93	12579	
576.13	13870	
576.32	14654	
576.51	15322	
576.71	13037	
576.9	14476	
577.09	15583	
577.28	15055	
577.48	13617	
577.67	12471	
577.86	14756	
578.05	15089	
578.25	13299	
578.44	13284	
578.63	14803	
578.83	15988	
579.02	12665	
579.21	14279	
579.4	15139	
579.6	14868	
579.79	13461	
579.98	15804	
580.17	15541	
580.37	15665	
580.56	12949	
580.75	13624	
580.94	16006	
581.14	15812	
581.33	14235	
581.52	13202	
581.71	15399	
581.91	16120	
582.1	12799	
582.29	13366	
582.48	15076	
582.68	14973	
582.87	13923	
583.06	13662	
583.25	15356	
583.45	14795	
583.64	14450	
583.83	15142	
584.02	14855	
584.21	15506	
584.41	14239	
584.6	13722	
584.79	15184	
584.98	16010	
585.18	13106	
585.37	13257	
585.56	14689	
585.75	15663	
585.94	13379	
586.14	13945	
586.33	16036	
586.52	15130	
586.71	13765	
586.91	13504	
587.1	14489	
587.29	15586	
587.48	13321	
587.67	13205	
587.87	15217	
588.06	15303	
588.25	14572	
588.44	13847	
588.63	14924	
588.83	15548	
589.02	13310	
589.21	13186	
589.4	14440	
589.59	14627	
589.78	12258	
589.98	12578	
590.17	13960	
590.36	14533	
590.55	11676	
590.74	12396	
590.94	15498	
591.13	13889	
591.32	12008	
591.51	11555	
591.7	14313	
591.89	13889	
592.09	11642	
592.28	12237	
592.47	13270	
592.66	15298	
592.85	11982	
593.05	12089	
593.24	13933	
593.43	14647	
593.62	12353	
593.81	12764	
594	13978	
594.19	14145	
594.39	12105	
594.58	12096	
594.77	14282	
594.96	15013	
595.15	11994	
595.34	12701	
595.54	14354	
595.73	13348	
595.92	11409	
596.11	12489	
596.3	14760	
596.49	13389	
596.68	12033	
596.88	12719	
597.07	14493	
597.26	13180	
597.45	11615	
597.64	12912	
597.83	13442	
598.02	14268	
598.22	11777	
598.41	12504	
598.6	13896	
598.79	13385	
598.98	11809	
599.17	12870	
599.36	13873	
599.55	15091	
599.74	14025	
599.94	13659	
600.13	14450	
600.32	13134	
600.51	11499	
600.7	11726	
600.89	15091	
601.08	15139	
601.27	11446	
601.47	12344	
601.66	14327	
601.85	15068	
602.04	12132	
602.23	12363	
602.42	13326	
602.61	13921	
602.8	12067	
602.99	11779	
603.18	13672	
603.37	13974	
603.57	12418	
603.76	12942	
603.95	14615	
604.14	14213	
604.33	11913	
604.52	12182	
604.71	13838	
604.9	13603	
605.09	12826	
605.28	12722	
605.47	14590	
605.66	14187	
605.86	12504	
606.05	11861	
606.24	14528	
606.43	13018	
606.62	12280	
606.81	13053	
607	14319	
607.19	13734	
607.38	11687	
607.57	12046	
607.76	13450	
607.95	12891	
608.14	12343	
608.33	13005	
608.52	13394	
608.72	14385	
608.91	11533	
609.1	11527	
609.29	13487	
609.48	12932	
609.67	12411	
609.86	11424	
610.05	13142	
610.24	13500	
610.43	11396	
610.62	10940	
610.81	14558	
611	14412	
611.19	11548	
611.38	12094	
611.57	13680	
611.76	15124	
611.95	11234	
612.14	11055	
612.33	13562	
612.52	12955	
612.71	11865	
612.9	11026	
613.09	12635	
613.28	15072	
613.47	11533	
613.66	12629	
613.85	13648	
614.04	13188	
614.24	11638	
614.43	10814	
614.62	13752	
614.81	13578	
615	12068	
615.19	12230	
615.38	12982	
615.57	13494	
615.76	12095	
615.95	13064	
616.14	13905	
616.33	13588	
616.52	12506	
616.71	12591	
616.9	13738	
617.09	13693	
617.28	11708	
617.47	13102	
617.66	12982	
617.85	13005	
618.04	12793	
618.22	12280	
618.41	13351	
618.6	14468	
618.79	12208	
618.98	12020	
619.17	14827	
619.36	13134	
619.55	12237	
619.74	12372	
619.93	14124	
620.12	13491	
620.31	12962	
620.5	13125	
620.69	14788	
620.88	15266	
621.07	13917	
621.26	12803	
621.45	14575	
621.64	14635	
621.83	13016	
622.02	12278	
622.21	14586	
622.4	14444	
622.59	13692	
622.78	13431	
622.97	13958	
623.16	15029	
623.35	13055	
623.54	12151	
623.72	14104	
623.91	14270	
624.1	13405	
624.29	12024	
624.48	15566	
624.67	14597	
624.86	13364	
625.05	12311	
625.24	15657	
625.43	13989	
625.62	15089	
625.81	12673	
626	14902	
626.19	14326	
626.38	13387	
626.56	12839	
626.75	14209	
626.94	14932	
627.13	13429	
627.32	12220	
627.51	14924	
627.7	16255	
627.89	12273	
628.08	13615	
628.27	14050	
628.46	14201	
628.65	12536	
628.83	12111	
629.02	14758	
629.21	14040	
629.4	13107	
629.59	13144	
629.78	14098	
629.97	15072	
630.16	13282	
630.35	12761	
630.54	15429	
630.72	15178	
630.91	12784	
631.1	13284	
631.29	14618	
631.48	14903	
631.67	13287	
631.86	12890	
632.05	14356	
632.24	14361	
632.42	12384	
632.61	13054	
632.8	14265	
632.99	13999	
633.18	13021	
633.37	13581	
633.56	14513	
633.75	14515	
633.93	13041	
634.12	12659	
634.31	15377	
634.5	14943	
634.69	12807	
634.88	13334	
635.07	14345	
635.25	15054	
635.44	13697	
635.63	13943	
635.82	14042	
636.01	13652	
636.2	13533	
636.39	13037	
636.57	15339	
636.76	14771	
636.95	12470	
637.14	13852	
637.33	14620	
637.52	15591	
637.7	12200	
637.89	13287	
638.08	14220	
638.27	15620	
638.46	13454	
638.65	13794	
638.83	15634	
639.02	14021	
639.21	13190	
639.4	13684	
639.59	14427	
639.78	13982	
639.96	12353	
640.15	12344	
640.34	14243	
640.53	14436	
640.72	12025	
640.91	12297	
641.09	13525	
641.28	14866	
641.47	12280	
641.66	13179	
641.85	14216	
642.03	14461	
642.22	12887	
642.41	12426	
642.6	13677	
642.79	12968	
642.97	12048	
643.16	12912	
643.35	13480	
643.54	13310	
643.73	12024	
643.91	12838	
644.1	13104	
644.29	14012	
644.48	12067	
644.67	12088	
644.85	13329	
645.04	13625	
645.23	11492	
645.42	11746	
645.6	12981	
645.79	14118	
645.98	11625	
646.17	10602	
646.36	12474	
646.54	13161	
646.73	12194	
646.92	11046	
647.11	12646	
647.29	13887	
647.48	11165	
647.67	10950	
647.86	13905	
648.05	13945	
648.23	11435	
648.42	12777	
648.61	13317	
648.8	12964	
648.98	10928	
649.17	11312	
649.36	12506	
649.55	12028	
649.73	10927	
649.92	11839	
650.11	12667	
650.3	12914	
650.48	11125	
650.67	10993	
650.86	13061	
651.05	12026	
651.23	11054	
651.42	10961	
651.61	12435	
651.79	12510	
651.98	11228	
652.17	10761	
652.36	12882	
652.54	12026	
652.73	10949	
652.92	10733	
653.11	12954	
653.29	12930	
653.48	10149	
653.67	11234	
653.85	12691	
654.04	13723	
654.23	11389	
654.42	10817	
654.6	12017	
654.79	12637	
654.98	10166	
655.16	10658	
655.35	11326	
655.54	11311	
655.73	9893.7	
655.91	9626.1	
656.1	12215	
656.29	10956	
656.47	9293	
656.66	11226	
656.85	11446	
657.03	11671	
657.22	10186	
657.41	10337	
657.59	11839	
657.78	11772	
657.97	10093	
658.16	10725	
658.34	12572	
658.53	12976	
658.72	11662	
658.9	12202	
659.09	11977	
659.28	12009	
659.46	10560	
659.65	10490	
659.84	11702	
660.02	12325	
660.21	10279	
660.4	10287	
660.58	12714	
660.77	12156	
660.96	11037	
661.14	10015	
661.33	13254	
661.52	13207	
661.7	9964.7	
661.89	13634	
662.08	11792	
662.26	11407	
662.45	10217	
662.64	10299	
662.82	12451	
663.01	11645	
663.2	10340	
663.38	11088	
663.57	12198	
663.75	12079	
663.94	10643	
664.13	11856	
664.31	11656	
664.5	12346	
664.69	11049	
664.87	11511	
665.06	11463	
665.25	12183	
665.43	11646	
665.62	11843	
665.8	12508	
665.99	11764	
666.18	10541	
666.36	10744	
666.55	12353	
666.74	12416	
666.92	10124	
667.11	11875	
667.29	11779	
667.48	12452	
667.67	11375	
667.85	10447	
668.04	11772	
668.22	11785	
668.41	10621	
668.6	10803	
668.78	11598	
668.97	11702	
669.15	11005	
669.34	9845.3	
669.53	11594	
669.71	11893	
669.9	10115	
670.08	10793	
670.27	11572	
670.46	12125	
670.64	10882	
670.83	11254	
671.01	11342	
671.2	12065	
671.38	10163	
671.57	10022	
671.76	12674	
671.94	13341	
672.13	9996.8	
672.31	11042	
672.5	12349	
672.69	11629	
672.87	10220	
673.06	10494	
673.24	12150	
673.43	11606	
673.61	10841	
673.8	10347	
673.98	12293	
674.17	12437	
674.36	11063	
674.54	10854	
674.73	11930	
674.91	12235	
675.1	10688	
675.28	10215	
675.47	11809	
675.65	12413	
675.84	10486	
676.03	10715	
676.21	11489	
676.4	11120	
676.58	11288	
676.77	11127	
676.95	13106	
677.14	11473	
677.32	10184	
677.51	9839.8	
677.69	12268	
677.88	11181	
678.06	9908.1	
678.25	10055	
678.44	11856	
678.62	11465	
678.81	9740.8	
678.99	10774	
679.18	12611	
679.36	12245	
679.55	10413	
679.73	10955	
679.92	12184	
680.1	11479	
680.29	11774	
680.47	10442	
680.66	11405	
680.84	12361	
681.03	9777.7	
681.21	10947	
681.4	11531	
681.58	11414	
681.77	10010	
681.95	10043	
682.14	12427	
682.32	12789	
682.51	11142	
682.69	9771.5	
682.88	11437	
683.06	11978	
683.25	10666	
683.43	11191	
683.62	11686	
683.8	12260	
683.99	11299	
684.17	10562	
684.36	13081	
684.54	11622	
684.73	9759.3	
684.91	9908.8	
685.1	11779	
685.28	11101	
685.46	10068	
685.65	10088	
685.83	11607	
686.02	10944	
686.2	9372.9	
686.39	9480	
686.57	10505	
686.76	12230	
686.94	9435.7	
687.13	9647.3	
687.31	11681	
687.5	11176	
687.68	9232.9	
687.86	10600	
688.05	13014	
688.23	10625	
688.42	10553	
688.6	9809.8	
688.79	10993	
688.97	11060	
689.16	10333	
689.34	9116.9	
689.52	11946	
689.71	12248	
689.89	10641	
690.08	10026	
690.26	11633	
690.45	11413	
690.63	10760	
690.81	10244	
691	11373	
691.18	11285	
691.37	10260	
691.55	12418	
691.74	11209	
691.92	13228	
692.1	10090	
692.29	9617.3	
692.47	11244	
692.66	10447	
692.84	9729.2	
693.02	10243	
693.21	10744	
693.39	11206	
693.58	10456	
693.76	9976.3	
693.94	12585	
694.13	12384	
694.31	9932.6	
694.5	11089	
694.68	11200	
694.86	11660	
695.05	10502	
695.23	10540	
695.42	12156	
695.6	14500	
695.78	11217	
695.97	10111	
696.15	12184	
696.34	11628	
696.52	10030	
696.7	10808	
696.89	11866	
697.07	11226	
697.25	10643	
697.44	12135	
697.62	11709	
697.81	12091	
697.99	10274	
698.17	10900	
698.36	10991	
698.54	11731	
698.72	10688	
698.91	9525.1	
699.09	11286	
699.28	11064	
699.46	10303	
699.64	10060	
699.83	11030	
700.01	12259	
700.19	10793	
700.38	9253.4	
700.56	12286	
700.74	11173	
700.93	9699.2	
701.11	10560	
701.29	11716	
701.48	12828	
701.66	9941.5	
701.84	10095	
702.03	11422	
702.21	12174	
702.39	9608.4	
702.58	10297	
702.76	11790	
702.94	11899	
703.13	9572.2	
703.31	12192	
703.49	11107	
703.68	12161	
703.86	9779.1	
704.04	10847	
704.23	11551	
704.41	11967	
704.59	9983.8	
704.78	11047	
704.96	12778	
705.14	12042	
705.33	9716.9	
705.51	10548	
705.69	11482	
705.87	12303	
706.06	10825	
706.24	9686.2	
706.42	11740	
706.61	11962	
706.79	10751	
706.97	9683.5	
707.16	11093	
707.34	11675	
707.52	10686	
707.7	9925.8	
707.89	11350	
708.07	11091	
708.25	10664	
708.44	10957	
708.62	11131	
708.8	12257	
708.98	10963	
709.17	9924.5	
709.35	11596	
709.53	11426	
709.72	9516.2	
709.9	9960	
710.08	11721	
710.26	11896	
710.45	11176	
710.63	9820.7	
710.81	11336	
710.99	11362	
711.18	10419	
711.36	9819.3	
711.54	11135	
711.72	11771	
711.91	9949	
712.09	9341.5	
712.27	11155	
712.45	11751	
712.64	9992.7	
712.82	9008.3	
713	10382	
713.18	10568	
713.37	9062.9	
713.55	10189	
713.73	11501	
713.91	9921	
714.1	9271.2	
714.28	8564.6	
714.46	10675	
714.64	9721	
714.83	7559.1	
715.01	8375.5	
715.19	9477.3	
715.37	8710	
715.55	7783	
715.74	8131.1	
715.92	10166	
716.1	8131.1	
716.28	9168.1	
716.47	8127	
716.65	8675.2	
716.83	8884.8	
717.01	7855.3	
717.19	7955.7	
717.38	11007	
717.56	8454	
717.74	8172.1	
717.92	7299	
718.1	9604.3	
718.29	8971.5	
718.47	6880.5	
718.65	7749.5	
718.83	9889	
719.01	9891.7	
719.2	7167.2	
719.38	8350.3	
719.56	9677.3	
719.74	11305	
719.92	7879.2	
720.11	8979	
720.29	9818	
720.47	8757.1	
720.65	7307.8	
720.83	8084.7	
721.02	8949.6	
721.2	8604.2	
721.38	7905.8	
721.56	7078.5	
721.74	7988.4	
721.92	8077.9	
722.11	8393.3	
722.29	8079.9	
722.47	9457.5	
722.65	8529.8	
722.83	7148.1	
723.01	8011.7	
723.2	8675.2	
723.38	8875.9	
723.56	6480.5	
723.74	7637.6	
723.92	8045.8	
724.1	9390.6	
724.29	7019.8	
724.47	8237.6	
724.65	8230.1	
724.83	8073.1	
725.01	6770.6	
725.19	7688.1	
725.37	7986.4	
725.56	8092.9	
725.74	6636.8	
725.92	7015	
726.1	7949.5	
726.28	8349.6	
726.46	7279.2	
726.64	7006.1	
726.83	8148.9	
727.01	8444.5	
727.19	6605.4	
727.37	7380.9	
727.55	8318.8	
727.73	8835.6	
727.91	6595.8	
728.09	6315.3	
728.28	8905.9	
728.46	9435	
728.64	7429.3	
728.82	7440.3	
729	9914.2	
729.18	9187.2	
729.36	6654.5	
729.54	9009	
729.72	10355	
729.91	8523.6	
730.09	8662.2	
730.27	7471	
730.45	8402.1	
730.63	9230.2	
730.81	7965.2	
730.99	7128.3	
731.17	9691.7	
731.35	8187.8	
731.53	7662.1	
731.71	7150.1	
731.9	9274.6	
732.08	9473.2	
732.26	7460.1	
732.44	7036.8	
732.62	9485.5	
732.8	9031.5	
732.98	7871	
733.16	6817	
733.34	8793.3	
733.52	7619.1	
733.7	7188.4	
733.88	7538.6	
734.07	8713.4	
734.25	8495.7	
734.43	6618.4	
734.61	8267	
734.79	10002	
734.97	8226.7	
735.15	6819.1	
735.33	7135.1	
735.51	8603.5	
735.69	8244.4	
735.87	8327	
736.05	7224.6	
736.23	8408.3	
736.41	8156.4	
736.59	7049.1	
736.77	7228	
736.95	8805.6	
737.13	8245.1	
737.32	6640.2	
737.5	6919.4	
737.68	9369.5	
737.86	8047.2	
738.04	6376	
738.22	8393.9	
738.4	7769.3	
738.58	8103.1	
738.76	6965.1	
738.94	5935	
739.12	7868.3	
739.3	7788.4	
739.48	7572	
739.66	7359	
739.84	8132.5	
740.02	8122.9	
740.2	6013.5	
740.38	6353.5	
740.56	8571.4	
740.74	7254.6	
740.92	7005.4	
741.1	6894.8	
741.28	7829.4	
741.46	7660.1	
741.64	6471.6	
741.82	7012.9	
742	7917.4	
742.18	7737.9	
742.36	6647.7	
742.54	6199.2	
742.72	8389.2	
742.9	7023.9	
743.08	7018.4	
743.26	5616.9	
743.44	8514.1	
743.62	8313.4	
743.8	7067.5	
743.98	6020.3	
744.16	8018.5	
744.34	7610.3	
744.52	6995.2	
744.7	6839.5	
744.88	8127.7	
745.06	7638.2	
745.24	6877.8	
745.42	6997.9	
745.6	8053.3	
745.78	7812.3	
745.96	5651.7	
746.14	5887.9	
746.32	8844.5	
746.5	8009.6	
746.68	6528.2	
746.86	5971.9	
747.03	8561.2	
747.21	6675.7	
747.39	6419	
747.57	5874.9	
747.75	7521.5	
747.93	7936.6	
748.11	5825.8	
748.29	5725.4	
748.47	9193.3	
748.65	7220.5	
748.83	6530.3	
749.01	6195.8	
749.19	7677.2	
749.37	6838.9	
749.55	6065.4	
749.73	6243.6	
749.91	7280.5	
750.09	6969.9	
750.26	6228.6	
750.44	5478.3	
750.62	7387.7	
750.8	7235.5	
750.98	5318.6	
751.16	5790.3	
751.34	7374.7	
751.52	6664.1	
751.7	6425.2	
751.88	5373.2	
752.06	7766.6	
752.24	7587	
752.42	5217.5	
752.59	5527.5	
752.77	7106.5	
752.95	8474.5	
753.13	6362.4	
753.31	5707	
753.49	6802	
753.67	7257.3	
753.85	5999.9	
754.03	5560.9	
754.21	7413.6	
754.38	7828.7	
754.56	5567.7	
754.74	4612	
754.92	6582.9	
755.1	7372.7	
755.28	4584	
755.46	4625.7	
755.64	8069	
755.82	8059.4	
755.99	4833.9	
756.17	4888.5	
756.35	5400.5	
756.53	6999.3	
756.71	3680.9	
756.89	4573.1	
757.07	6571.9	
757.25	5575.9	
757.42	5181.4	
757.6	6095.4	
757.78	6640.2	
757.96	5537.7	
758.14	4902.2	
758.32	4321.9	
758.5	5162.9	
758.67	6004.6	
758.85	4723.3	
759.03	4868	
759.21	6226.5	
759.39	5600.5	
759.57	4289.1	
759.75	5513.8	
759.92	6842.3	
760.1	6086.6	
760.28	5795.1	
760.46	6130.3	
760.64	5862	
760.82	5601.2	
760.99	5657.2	
761.17	4790.9	
761.35	6735.8	
761.53	5655.1	
761.71	5001.8	
761.89	5695.4	
762.06	6697.5	
762.24	6096.1	
762.42	5079.6	
762.6	4801.8	
762.78	6097.5	
762.96	6821.8	
763.13	5522.7	
763.31	5120.6	
763.49	7028.6	
763.67	6060.6	
763.85	5986.2	
764.02	6578.8	
764.2	7215	
764.38	6424.5	
764.56	4924.7	
764.74	5844.2	
764.91	7357.7	
765.09	6180.8	
765.27	4638.6	
765.45	4476.2	
765.63	7317.4	
765.8	7217	
765.98	4126	
766.16	4416.1	
766.34	5709.1	
766.52	5451	
766.69	5459.2	
766.87	4241.3	
767.05	6128.2	
767.23	6818.4	
767.41	4552	
767.58	4856.4	
767.76	6636.1	
767.94	6738.5	
768.12	4662.5	
768.29	5450.3	
768.47	6138.4	
768.65	6818.4	
768.83	4339.6	
769	5517.9	
769.18	5644.9	
769.36	6386.9	
769.54	5453.1	
769.72	4336.2	
769.89	6689.3	
770.07	6835.4	
770.25	4670.1	
770.43	5945.9	
770.6	7488.7	
770.78	7908.6	
770.96	4839.4	
771.14	5504.9	
771.31	6554.2	
771.49	5919.3	
771.67	3921.2	
771.85	4225	
772.02	5058.5	
772.2	5915.9	
772.38	5013.4	
772.55	4354.7	
772.73	6138.4	
772.91	6012.2	
773.09	4835.9	
773.26	4888.5	
773.44	6137.8	
773.62	5689.3	
773.8	4313	
773.97	4006.5	
774.15	6170.5	
774.33	5725.4	
774.5	4133.5	
774.68	4506.9	
774.86	6420.4	
775.04	5773.2	
775.21	4293.2	
775.39	4252.9	
775.57	6094.8	
775.74	6523.5	
775.92	4100.7	
776.1	3988.1	
776.27	6029.2	
776.45	7310.6	
776.63	4202.4	
776.81	3749.8	
776.98	5582.1	
777.16	6772.6	
777.34	4404.5	
777.51	4717.8	
777.69	5693.4	
777.87	5381.4	
778.04	4353.3	
778.22	5019.6	
778.4	5406.6	
778.57	6166.4	
778.75	3643.3	
778.93	3974.4	
779.1	5211.4	
779.28	5053.7	
779.46	3639.9	
779.64	4246.8	
779.81	6290.7	
779.99	7249.8	
780.17	5004.6	
780.34	5139.7	
780.52	5693.4	
780.69	5915.2	
780.87	4505.5	
781.05	4007.2	
781.22	5771.9	
781.4	5851.7	
781.58	4173.1	
781.75	3356.6	
781.93	5784.8	
782.11	5196.4	
782.28	5094	
782.46	4174.4	
782.64	5028.4	
782.81	5997.1	
782.99	4299.4	
783.17	4270.7	
783.34	5852.4	
783.52	5036.6	
783.69	4473.4	
783.87	5297.4	
784.05	5184.8	
784.22	5205.3	
784.4	5225.1	
784.58	4564.9	
784.75	6093.4	
784.93	5157.5	
785.1	4236.6	
785.28	4848.2	
785.46	5902.2	
785.63	5167.7	
785.81	4141	
785.99	3994.2	
786.16	5355.4	
786.34	5736.4	
786.51	4033.8	
786.69	4451.6	
786.87	4954	
787.04	5493.3	
787.22	3859.7	
787.39	4899.4	
787.57	5132.9	
787.75	6287.9	
787.92	5068.7	
788.1	4997	
788.27	5118.6	
788.45	4881.7	
788.63	4746.5	
788.8	3406.5	
788.98	5554.8	
789.15	4879.6	
789.33	3480.9	
789.5	4158.1	
789.68	6159.6	
789.86	6167.8	
790.03	4657.8	
790.21	4068.6	
790.38	6070.9	
790.56	5272.2	
790.73	3885.7	
790.91	3955.3	
791.09	5152.7	
791.26	5980.1	
791.44	4177.9	
791.61	3661.8	
791.79	5109.7	
791.96	5257.1	
792.14	3706.1	
792.32	3252.9	
792.49	5150	
792.67	5249.6	
792.84	3771.7	
793.02	3577.1	
793.19	5628.5	
793.37	6389	
793.54	3284.3	
793.72	3584.6	
793.89	6512.5	
794.07	5121.3	
794.25	4358.8	
794.42	3392.1	
794.6	6307.1	
794.77	5883.1	
794.95	4590.2	
795.12	3974.4	
795.3	5093.3	
795.47	5784.8	
795.65	4375.8	
795.82	4203.1	
796	4952.7	
796.17	6885.3	
796.35	4132.8	
796.52	4818.9	
796.7	5711.8	
796.87	5801.2	
797.05	4996.4	
797.22	4954.7	
797.4	5734.3	
797.57	6791.1	
797.75	4164.9	
797.92	3981.3	
798.1	6093.4	
798.27	5137.7	
798.45	3391.4	
798.62	3651.5	
798.8	5432.6	
798.97	5973.9	
799.15	4502.8	
799.32	4176.5	
799.5	4703.5	
799.67	5495.4	
799.85	4576.5	
800.02	3355.3	
800.2	5057.1	
800.37	5448.3	
800.55	4762.9	
800.72	3938.9	
800.9	5900.9	
801.07	6324.1	
801.25	5309.7	
801.42	4321.2	
801.6	5957.5	
801.77	5632.6	
801.95	4046.8	
802.12	3895.9	
802.29	5662.6	
802.47	5618.3	
802.64	4332.8	
802.82	3255.6	
802.99	5038.7	
803.17	6079.1	
803.34	4199.7	
803.52	3777.1	
803.69	6774.7	
803.87	4855.7	
804.04	4175.8	
804.21	4235.2	
804.39	6243.6	
804.56	5374.6	
804.74	3519.1	
804.91	4356.7	
805.09	5123.3	
805.26	5216.2	
805.44	3571	
805.61	3965.6	
805.78	5757.5	
805.96	5815.5	
806.13	4345.1	
806.31	4690.5	
806.48	4647.5	
806.66	5219.6	
806.83	4395.6	
807	4241.3	
807.18	5114.5	
807.35	5571.2	
807.53	4174.4	
807.7	3353.9	
807.87	6290.7	
808.05	5196.4	
808.22	4668	
808.4	3321.8	
808.57	5138.4	
808.74	4780	
808.92	3822.9	
809.09	4883	
809.27	5012.1	
809.44	5649	
809.61	3383.2	
809.79	3762.8	
809.96	6300.9	
810.14	5938.4	
810.31	3272	
810.48	4047.5	
810.66	5290.6	
810.83	5980.1	
811.01	3850.9	
811.18	4246.1	
811.35	5869.5	
811.53	4551.3	
811.7	4641.4	
811.87	4381.3	
812.05	5144.5	
812.22	4990.2	
812.39	3705.5	
812.57	3576.4	
812.74	5174.5	
812.92	6807.4	
813.09	4051.6	
813.26	4422.9	
813.44	6605.4	
813.61	5044.8	
813.78	3386	
813.96	4508.9	
814.13	5175.9	
814.3	4750.6	
814.48	4847.5	
814.65	4033.8	
814.82	6425.8	
815	4937.7	
815.17	4190.8	
815.34	5089.9	
815.52	5014.1	
815.69	5055.8	
815.87	4143.7	
816.04	3528	
816.21	5129.5	
816.38	4515.1	
816.56	3953.3	
816.73	3678.8	
816.9	6532.3	
817.08	5853.8	
817.25	3784	
817.42	4737.6	
817.6	4652.3	
817.77	5158.2	
817.94	4236.6	
818.12	3698.6	
818.29	4820.2	
818.46	7767.3	
818.64	3906.2	
818.81	3668.6	
818.98	4779.3	
819.16	7040.2	
819.33	4450.2	
819.5	4111	
819.67	5483.8	
819.85	6184.2	
820.02	4103.4	
820.19	4232.5	
820.37	5314.5	
820.54	4909.7	
820.71	4268	
820.88	5243.5	
821.06	5441.5	
821.23	4932.9	
821.4	4313	
821.58	4186.7	
821.75	5843.5	
821.92	5289.9	
822.09	3423.5	
822.27	3512.9	
822.44	5180	
822.61	4994.3	
822.79	3376.4	
822.96	6594.5	
823.13	5690.6	
823.3	4874.2	
823.48	3912.3	
823.65	3521.1	
823.82	5833.3	
823.99	4673.5	
824.17	4990.9	
824.34	3609.2	
824.51	6796.5	
824.68	5244.8	
824.86	3769.6	
825.03	4179.2	
825.2	5145.9	
825.37	6284.5	
825.55	3672	
825.72	4190.1	
825.89	6903.7	
826.06	6356.9	
826.24	4093.9	
826.41	4069.3	
826.58	6270.2	
826.75	5457.2	
826.92	3185.3	
827.1	3592.1	
827.27	8492.2	
827.44	6843.6	
827.61	3880.9	
827.79	4660.5	
827.96	4885.1	
828.13	5208	
828.3	3975.1	
828.47	3341.6	
828.65	5364.3	
828.82	5291.3	
828.99	5187.5	
829.16	4582.7	
829.34	5740.5	
829.51	5536.3	
829.68	4136.9	
829.85	4326	
830.02	6038.8	
830.2	5766.4	
830.37	3218.7	
830.54	5014.8	
830.71	6587	
830.88	5115.8	
831.05	3254.2	
831.23	3755.3	
831.4	6331	
831.57	7088	
831.74	3829	
831.91	3369.6	
832.09	5352.7	
832.26	5783.5	
832.43	3919.1	
832.6	4474.8	
832.77	5350.7	
832.94	6218.3	
833.12	3168.2	
833.29	3967.6	
833.46	5542.5	
833.63	7361.1	
833.8	4375.1	
833.97	4020.2	
834.15	5805.3	
834.32	5540.4	
834.49	4214	
834.66	4225.6	
834.83	6023.1	
835	4917.2	
835.17	3831.1	
835.35	3814	
835.52	5643.5	
835.69	5508.4	
835.86	4076.1	
836.03	3317	
836.2	5644.2	
836.37	5335	
836.55	3983.3	
836.72	3779.2	
836.89	5264.6	
837.06	5832.6	
837.23	4016.1	
837.4	4445.5	
837.57	6584.2	
837.75	7311.9	
837.92	3626.3	
838.09	3891.8	
838.26	5271.5	
838.43	6079.7	
838.6	4172.4	
838.77	3696.6	
838.94	6949.4	
839.11	6561	
839.29	3945.1	
839.46	3134.8	
839.63	5808.7	
839.8	5386.8	
839.97	3885	
840.14	3848.8	
840.31	5497.4	
840.48	5689.9	
840.65	3204.4	
840.82	3920.5	
841	5716.6	
841.17	5686.5	
841.34	3571	
841.51	3668.6	
841.68	5681.7	
841.85	5412.8	
842.02	3661.1	
842.19	3041.9	
842.36	5462.6	
842.53	5483.1	
842.7	3536.8	
842.87	4388.1	
843.05	7228.6	
843.22	5407.3	
843.39	3317.7	
843.56	3682.2	
843.73	5199.8	
843.9	5803.9	
844.07	5802.6	
844.24	4773.8	
844.41	8503.2	
844.58	4977.9	
844.75	3401	
844.92	3697.9	
845.09	5746.6	
845.26	5699.5	
845.43	3510.9	
845.6	3680.2	
845.77	5750.7	
845.94	5438	
846.12	3934.1	
846.29	4160.8	
846.46	5925.5	
846.63	5687.2	
846.8	3586.7	
846.97	4179.2	
847.14	6210.1	
847.31	5698.1	
847.48	4025.6	
847.65	4406.5	
847.82	6027.2	
847.99	5969.1	
848.16	4764.9	
848.33	4410.6	
848.5	5256.5	
848.67	6165.1	
848.84	3525.2	
849.01	3658.4	
849.18	5124.7	
849.35	4838.7	
849.52	4438.6	
849.69	3482.2	
849.86	5904.3	
850.03	6200.6	
850.2	3549.1	
850.37	4349.9	
850.54	6041.5	
850.71	5380	
850.88	4280.3	
851.05	3491.8	
851.22	5539.1	
851.39	6328.2	
851.56	3325.9	
851.73	4043.4	
851.9	5009.3	
852.07	6001.2	
852.24	3887	
852.41	3528	
852.58	5571.8	
852.75	5100.8	
852.92	3974.4	
853.09	3428.3	
853.26	5296.7	
853.43	6187.6	
853.6	3508.9	
853.77	2992.1	
853.94	6305.7	
854.11	5634	
854.28	5264	
854.44	3775.1	
854.61	6674.3	
854.78	6026.5	
854.95	3510.2	
855.12	4460.5	
855.29	4550.6	
855.46	6400.6	
855.63	3523.2	
855.8	4905.6	
855.97	5290.6	
856.14	6051.7	
856.31	5025	
856.48	3829	
856.65	5223	
856.82	4977.9	
856.99	3344.3	
857.16	3807.9	
857.33	6997.9	
857.49	5348.6	
857.66	3802.4	
857.83	4154.6	
858	5396.4	
858.17	5554.1	
858.34	3367.5	
858.51	3535.5	
858.68	6404.7	
858.85	6414.2	
859.02	4116.4	
859.19	4344.4	
859.36	4998.4	
859.52	5093.3	
859.69	3530	
859.86	4203.1	
860.03	5110.4	
860.2	6247	
860.37	3209.8	
860.54	3586.7	
860.71	5973.9	
860.88	6320	
861.05	3974.4	
861.21	4450.2	
861.38	6400.6	
861.55	4845.5	
861.72	3209.2	
861.89	3906.8	
862.06	5993	
862.23	6509.1	
862.4	3439.2	
862.56	3673.4	
862.73	5819	
862.9	5488.6	
863.07	4094.6	
863.24	3217.4	
863.41	4882.4	
863.58	5033.9	
863.75	3653.6	
863.91	4035.2	
864.08	6356.9	
864.25	5894.1	
864.42	4442.7	
864.59	4901.5	
864.76	6655.2	
864.93	5054.4	
865.09	3390.1	
865.26	3797.6	
865.43	6237.4	
865.6	6572.6	
865.77	3067.9	
865.94	3485.6	
866.1	6270.2	
866.27	5970.5	
866.44	5265.3	
866.61	3287.7	
866.78	5436.7	
866.95	5843.5	
867.11	3376.4	
867.28	3130	
867.45	6104.3	
867.62	5051.7	
867.79	4055.7	
867.96	3495.9	
868.12	5035.3	
868.29	5979.4	
868.46	3104.7	
868.63	4683.7	
868.8	6157.6	
868.97	5868.1	
869.13	3693.2	
869.3	3693.9	
869.47	5812.8	
869.64	6064	
869.81	3560.1	
869.97	3564.8	
870.14	5726.1	
870.31	6382.8	
870.48	3534.8	
870.65	4505.5	
870.81	5360.9	
870.98	5316.5	
871.15	3940.3	
871.32	3593.5	
871.48	5829.9	
871.65	6462	
871.82	3457.7	
871.99	3879.5	
872.16	6905.8	
872.32	6281.8	
872.49	3517.7	
872.66	3542.3	
872.83	5875.6	
872.99	5203.9	
873.16	3994.9	
873.33	3437.2	
873.5	5573.2	
873.67	5565	
873.83	3691.1	
874	4734.9	
874.17	5715.2	
874.34	6841.6	
874.5	4569.7	
874.67	4371	
874.84	6378.7	
875.01	4957.4	
875.17	4950.6	
875.34	3515	
875.51	5704.3	
875.68	6807.4	
875.84	4301.4	
876.01	5142.4	
876.18	5941.8	
876.34	5777.3	
876.51	3555.3	
876.68	3509.5	
876.85	5426.4	
877.01	6208.8	
877.18	5018.9	
877.35	3457.7	
877.52	5453.7	
877.68	4970.4	
877.85	3401	
878.02	3452.9	
878.18	5459.2	
878.35	5220.3	
878.52	2837.8	
878.69	3999.7	
878.85	5986.9	
879.02	5773.2	
879.19	5018.9	
879.35	3806.5	
879.52	5820.3	
879.69	6108.4	
879.86	2998.2	
880.02	4037.9	
880.19	5387.5	
880.36	6782.2	
880.52	4087.7	
880.69	4168.3	
880.86	5984.8	
881.02	6058.6	
881.19	3906.8	
881.36	3811.3	
881.52	5918.6	
881.69	5160.2	
881.86	3800.3	
882.02	3717.7	
882.19	6169.2	
882.36	7258.7	
882.52	3614	
882.69	4973.8	
882.86	5709.1	
883.02	5642.2	
883.19	4310.3	
883.36	4048.8	
883.52	6051.1	
883.69	6858	
883.86	3538.2	
884.02	3144.3	
884.19	5934.3	
884.36	5489.2	
884.52	3962.8	
884.69	3753.9	
884.86	5236.7	
885.02	6572.6	
885.19	3921.9	
885.36	4060.4	
885.52	5468.1	
885.69	5687.2	
885.86	5098.1	
886.02	4530.1	
886.19	5925.5	
886.35	5416.9	
886.52	3873.4	
886.69	4930.8	
886.85	5070.8	
887.02	6313.9	
887.19	6313.9	
887.35	6313.9	
887.52	6313.9	
887.68	6313.9	
887.85	6313.9	
888.02	6313.9	
888.18	6313.9	
888.35	6313.9	
888.51	6313.9	
888.68	6313.9	
888.85	6313.9	
889.01	6313.9	
889.18	6313.9	
889.35	6313.9	
889.51	6313.9	
889.68	6313.9	
889.84	6313.9	
890.01	6313.9	
890.17	6313.9	
890.34	6313.9	
890.51	6313.9	
890.67	6313.9	
890.84	6313.9	
891	6313.9	
891.17	6313.9	
891.34	6313.9	
891.5	6313.9	
891.67	6313.9	
891.83	6313.9	
892	6313.9	
892.16	6313.9	
892.33	6313.9	
892.5	6313.9	
892.66	6313.9	
892.83	6313.9	
892.99	6313.9	
893.16	6313.9	
893.32	6313.9	
893.49	6313.9	
893.65	6313.9	
893.82	6313.9	
893.99	6313.9	
894.15	6313.9	
894.32	6313.9	
894.48	6313.9	
894.65	6313.9	
894.81	6313.9	
894.98	6313.9	
895.14	6313.9	
895.31	6313.9	
895.47	6313.9	
895.64	6313.9	
895.81	6313.9	
895.97	6313.9	
896.14	6313.9	
896.3	6313.9	
896.47	6313.9	
896.63	6313.9	
896.8	6313.9	
896.96	6313.9	
897.13	6313.9	
897.29	6313.9	
897.46	6313.9	
897.62	6313.9	
897.79	6313.9	
897.95	6313.9	
898.12	6313.9	
898.28	6313.9	
898.45	6313.9	
898.61	6313.9	
898.78	6313.9	
898.94	6313.9	
899.11	6313.9	
899.27	6313.9	
899.44	6313.9	
899.6	6313.9	
899.77	6313.9	
899.93	6313.9	
900.1	6313.9	
900.26	6313.9	
900.43	6313.9	
900.59	6313.9	
900.76	6313.9	
900.92	6313.9	
901.09	6313.9	
901.25	6313.9	
901.42	6313.9	
901.58	6313.9	
901.75	6313.9	
901.91	6313.9	
902.07	6313.9	
902.24	6313.9	
902.4	6313.9	
902.57	6313.9	
902.73	6313.9	
902.9	6313.9	
903.06	6313.9	
903.23	6313.9	
903.39	6313.9	
903.56	6313.9	
903.72	6313.9	
903.88	6313.9	
904.05	6313.9	
904.21	6313.9	
904.38	6313.9	
904.54	6313.9	
904.71	6313.9	
904.87	6313.9	
905.03	6313.9	
905.2	6313.9	
905.36	6313.9	
905.53	6313.9	
905.69	6313.9	
905.86	6313.9	
906.02	6313.9	
906.18	6313.9	
906.35	6313.9	
906.51	6313.9	
906.68	6313.9	
906.84	6313.9	
907.01	6313.9	
907.17	6313.9	
907.33	6313.9	
907.5	6313.9	
907.66	6313.9	
907.83	6313.9	
907.99	6313.9	
908.15	6313.9	
908.32	6313.9	
908.48	6313.9	
908.65	6313.9	
908.81	6313.9	
908.97	6313.9	
909.14	6313.9	
909.3	6313.9	
909.47	6313.9	
909.63	6313.9	
909.79	6313.9	
909.96	6313.9	
910.12	6313.9	
910.28	6313.9	
910.45	6313.9	
910.61	6313.9	
910.78	6313.9	
910.94	6313.9	
911.1	6313.9	
911.27	6313.9	
911.43	6313.9	
911.59	6313.9	
911.76	6313.9	
911.92	6313.9	
912.08	6313.9	
912.25	6313.9	
912.41	6313.9	
912.57	6313.9	
912.74	6313.9	
912.9	6313.9	
913.07	6313.9	
913.23	6313.9	
913.39	6313.9	
913.56	6313.9	
913.72	6313.9	
913.88	6313.9	
914.05	6313.9	
914.21	6313.9	
914.37	6313.9	
914.54	6313.9	
914.7	6313.9	
914.86	6313.9	
915.03	6313.9	
915.19	6313.9	
