Wavelength	Intensities	
nm	a.u.	
179.22	1861.6	
179.44	1867.1	
179.65	1856.1	
179.86	1878	
180.08	1888.9	
180.29	4729.4	
180.51	3403.7	
180.72	5510.4	
180.94	6457.9	
181.15	3171.6	
181.37	3083.6	
181.58	5426.4	
181.79	5642.8	
182.01	3276.8	
182.22	3546.4	
182.44	5651.7	
182.65	4783.4	
182.87	4382.7	
183.08	3867.2	
183.29	5958.2	
183.51	4885.1	
183.72	3595.6	
183.94	5183.4	
184.15	5315.2	
184.37	5278.3	
184.58	3126.6	
184.79	4204.5	
185.01	4941.7	
185.22	5631.2	
185.44	4472.1	
185.65	3764.8	
185.86	5198.4	
186.08	4835.9	
186.29	3020.1	
186.51	3252.2	
186.72	4946.5	
186.94	5812.8	
187.15	3794.9	
187.36	3904.1	
187.58	7544.7	
187.79	5375.9	
188.01	4007.2	
188.22	6298.2	
188.43	6431.3	
188.65	5621	
188.86	3239.2	
189.08	3862.5	
189.29	5072.8	
189.5	5059.2	
189.72	3646.1	
189.93	3710.9	
190.15	5864	
190.36	6937.8	
190.57	4023.6	
190.79	3857	
191	5936.4	
191.22	5821.7	
191.43	3964.9	
191.64	3276.8	
191.86	6064	
192.07	5877	
192.29	3396.2	
192.5	3637.9	
192.71	5883.1	
192.93	5062.6	
193.14	3625.6	
193.35	3648.1	
193.57	5046.9	
193.78	5879.7	
194	2919	
194.21	3534.8	
194.42	4870.8	
194.64	5352.7	
194.85	3876.8	
195.07	4583.4	
195.28	5302.9	
195.49	4615.4	
195.71	4841.4	
195.92	3383.2	
196.13	5431.2	
196.35	5617.6	
196.56	5099.4	
196.78	3927.3	
196.99	6854.6	
197.2	6424.5	
197.42	4441.4	
197.63	3951.9	
197.84	4780.6	
198.06	5489.2	
198.27	3633.1	
198.48	4819.6	
198.7	5008	
198.91	5209.3	
199.13	3917.1	
199.34	3932.1	
199.55	5668.8	
199.77	4562.2	
199.98	3489.7	
200.19	4012.7	
200.41	5202.5	
200.62	4891.2	
200.83	4126	
201.05	4391.5	
201.26	5205.9	
201.47	4939.7	
201.69	3487	
201.9	3342.3	
202.11	5276.3	
202.33	6204.7	
202.54	3717.1	
202.76	4183.3	
202.97	5393	
203.18	5449	
203.4	4063.2	
203.61	4042.7	
203.82	5371.8	
204.04	4936.3	
204.25	3960.8	
204.46	3911.6	
204.68	5346.6	
204.89	5476.3	
205.1	3833.8	
205.32	3293.8	
205.53	5613.5	
205.74	5855.1	
205.96	2832.3	
206.17	4000.4	
206.38	5615.5	
206.6	5764.3	
206.81	4474.1	
207.02	3762.8	
207.24	5509	
207.45	6001.2	
207.66	3797.6	
207.88	3229	
208.09	5546.6	
208.3	5259.9	
208.52	3475.4	
208.73	3774.4	
208.94	5301.5	
209.15	6005.3	
209.37	3792.2	
209.58	3953.3	
209.79	5778.7	
210.01	5107.6	
210.22	3020.8	
210.43	3144.3	
210.65	5234.6	
210.86	5718.6	
211.07	3751.9	
211.29	3460.4	
211.5	5631.2	
211.71	5214.8	
211.93	3469.3	
212.14	3437.2	
212.35	5209.3	
212.56	5461.2	
212.78	3912.3	
212.99	3284.3	
213.2	6217	
213.42	5091.9	
213.63	3575.1	
213.84	3766.2	
214.06	4700.1	
214.27	4762.2	
214.48	3702	
214.69	3973.7	
214.91	5963.7	
215.12	6055.8	
215.33	4072	
215.55	4439.3	
215.76	6488	
215.97	5634	
216.18	3846.1	
216.4	3807.2	
216.61	4962.2	
216.82	5721.3	
217.04	3467.9	
217.25	3624.2	
217.46	5986.9	
217.67	5696.1	
217.89	3096.5	
218.1	3232.4	
218.31	5415.5	
218.53	5464	
218.74	3672	
218.95	3474	
219.16	5240.8	
219.38	6183.5	
219.59	3518.4	
219.8	4171.7	
220.01	6787	
220.23	5343.2	
220.44	4589.5	
220.65	3402.4	
220.87	5413.5	
221.08	5951.4	
221.29	3226.2	
221.5	4257	
221.72	7202	
221.93	4988.9	
222.14	3960.8	
222.35	4712.4	
222.57	5333.6	
222.78	5648.3	
222.99	3795.6	
223.2	4003.8	
223.42	5604.6	
223.63	5706.3	
223.84	2910.2	
224.05	2939.5	
224.27	6744	
224.48	6208.1	
224.69	4605.9	
224.9	3975.8	
225.12	5470.1	
225.33	5299.5	
225.54	3123.2	
225.75	3529.3	
225.97	4915.1	
226.18	5144.5	
226.39	3773	
226.6	3563.5	
226.82	5079	
227.03	4986.8	
227.24	3957.4	
227.45	3310.9	
227.67	5700.2	
227.88	6225.1	
228.09	4367	
228.3	4384.7	
228.52	5640.1	
228.73	5238	
228.94	3657.7	
229.15	3252.2	
229.36	5241.4	
229.58	5197.7	
229.79	3701.4	
230	4237.2	
230.21	6294.8	
230.43	5450.3	
230.64	3887	
230.85	4048.2	
231.06	5705	
231.28	5713.8	
231.49	3244	
231.7	3806.5	
231.91	5616.2	
232.12	5333.6	
232.34	3329.3	
232.55	3778.5	
232.76	5887.9	
232.97	5537	
233.18	3401	
233.4	3850.2	
233.61	5496.7	
233.82	5100.8	
234.03	3614.7	
234.25	3634.5	
234.46	7285.3	
234.67	5311.7	
234.88	3926	
235.09	3521.1	
235.31	5583.4	
235.52	5177.9	
235.73	3949.8	
235.94	3269.9	
236.15	5053	
236.37	6400.6	
236.58	3495.9	
236.79	3763.5	
237	5559.6	
237.21	4821.6	
237.43	4058.4	
237.64	3169.6	
237.85	9465.7	
238.06	4895.3	
238.27	4126	
238.48	3270.6	
238.7	5679.7	
238.91	5179.3	
239.12	3764.2	
239.33	3773.7	
239.54	4922.6	
239.76	5186.8	
239.97	3741	
240.18	3781.2	
240.39	6613.6	
240.6	5500.2	
240.82	3961.5	
241.03	3165.5	
241.24	5283.1	
241.45	6163.7	
241.66	3457.7	
241.87	4056.3	
242.09	6033.3	
242.3	6298.2	
242.51	4093.2	
242.72	3766.2	
242.93	5698.8	
243.14	5236	
243.36	4407.2	
243.57	4694.6	
243.78	6105	
243.99	5689.9	
244.2	3753.2	
244.41	3428.3	
244.63	4837.3	
244.84	5620.3	
245.05	3995.6	
245.26	3771	
245.47	5627.8	
245.68	5780.1	
245.9	5023.7	
246.11	4048.2	
246.32	5147.2	
246.53	5566.4	
246.74	6120	
246.95	3158.7	
247.16	4848.9	
247.38	5304.2	
247.59	3169.6	
247.8	3819.5	
248.01	4947.9	
248.22	5195.7	
248.43	3413.3	
248.64	3663.8	
248.86	4732.9	
249.07	5059.2	
249.28	3340.2	
249.49	3892.5	
249.7	5826.5	
249.91	5897.5	
250.12	3190.7	
250.34	3188.7	
250.55	5367.7	
250.76	5251.7	
250.97	3941	
251.18	3974.4	
251.39	5964.4	
251.6	5403.9	
251.81	4011.3	
252.03	3978.5	
252.24	5080.3	
252.45	5784.1	
252.66	3308.8	
252.87	4211.3	
253.08	5317.9	
253.29	6931	
253.5	3308.8	
253.72	4565.6	
253.93	5185.5	
254.14	6256.5	
254.35	3650.8	
254.56	3681.6	
254.77	5560.2	
254.98	4919.2	
255.19	3554.6	
255.41	4607.2	
255.62	5390.3	
255.83	5932.3	
256.04	4169	
256.25	3943	
256.46	6505.7	
256.67	5012.1	
256.88	3898	
257.09	4339.6	
257.31	4976.6	
257.52	5030.5	
257.73	4878.3	
257.94	3545.7	
258.15	5134.9	
258.36	5341.8	
258.57	4509.6	
258.78	2883.5	
258.99	5737.7	
259.2	5140.4	
259.41	3551.2	
259.63	3734.8	
259.84	6157.6	
260.05	6601.3	
260.26	4715.1	
260.47	3476.1	
260.68	5874.9	
260.89	5243.5	
261.1	4326.7	
261.31	3433.1	
261.52	5874.3	
261.73	6177.4	
261.95	4618.9	
262.16	4071.4	
262.37	6014.2	
262.58	6100.2	
262.79	4638	
263	3678.8	
263.21	5386.8	
263.42	5173.2	
263.63	3717.1	
263.84	3650.2	
264.05	5858.6	
264.26	6221	
264.47	4515.1	
264.69	4022.2	
264.9	5993.7	
265.11	5570.5	
265.32	3473.4	
265.53	3598.3	
265.74	5448.3	
265.95	4786.8	
266.16	3879.5	
266.37	4271.4	
266.58	5431.2	
266.79	5137.7	
267	3521.8	
267.21	3319.1	
267.42	4949.9	
267.63	5268.7	
267.84	3732.1	
268.06	3246	
268.27	5762.3	
268.48	5971.2	
268.69	3667.2	
268.9	4368.3	
269.11	5980.8	
269.32	4799.1	
269.53	3751.2	
269.74	3522.5	
269.95	5584.8	
270.16	4715.8	
270.37	3818.1	
270.58	4382.7	
270.79	5165	
271	5809.4	
271.21	4056.3	
271.42	3828.3	
271.63	5433.9	
271.84	4977.2	
272.05	3034.4	
272.26	3417.4	
272.47	5375.9	
272.68	5474.2	
272.89	3586	
273.11	4187.4	
273.32	5131.5	
273.53	6202.6	
273.74	4108.2	
273.95	3974.4	
274.16	5917.9	
274.37	5362.9	
274.58	4158.7	
274.79	3301.3	
275	5415.5	
275.21	5951.4	
275.42	4965.6	
275.63	4261.8	
275.84	5531.6	
276.05	6921.5	
276.26	3968.3	
276.47	3717.7	
276.68	5128.8	
276.89	6272.9	
277.1	4269.3	
277.31	3392.8	
277.52	5554.1	
277.73	5774.6	
277.94	3293.1	
278.15	3659.7	
278.36	5511.8	
278.57	4969.7	
278.78	3657.7	
278.99	4095.3	
279.2	4978.6	
279.41	4883.7	
279.62	4764.3	
279.83	3333.4	
280.04	6488	
280.25	4913.1	
280.46	4782.7	
280.67	3775.8	
280.88	4919.9	
281.09	6012.8	
281.3	3994.2	
281.51	4945.8	
281.72	5033.2	
281.93	5793	
282.14	3529.3	
282.35	3806.5	
282.56	5833.3	
282.77	5797.1	
282.98	3685	
283.19	4489.1	
283.4	7137.2	
283.61	5276.9	
283.82	3401	
284.03	4708.3	
284.24	5457.8	
284.45	5913.2	
284.66	4672.1	
284.87	4496.7	
285.08	5864	
285.29	6012.8	
285.5	3226.9	
285.71	3734.1	
285.92	5933.6	
286.12	6536.4	
286.33	4655	
286.54	3674.1	
286.75	5821	
286.96	5189.6	
287.17	3379.1	
287.38	4560.8	
287.59	4938.3	
287.8	4864.6	
288.01	3693.2	
288.22	4240	
288.43	5840.8	
288.64	4863.9	
288.85	4427.7	
289.06	4149.9	
289.27	5760.9	
289.48	6192.4	
289.69	4702.8	
289.9	4255	
290.11	5923.4	
290.32	5075.5	
290.53	4440	
290.74	4111	
290.94	5756.8	
291.15	5784.1	
291.36	3590.8	
291.57	4183.3	
291.78	5067.4	
291.99	4761.5	
292.2	3455.6	
292.41	4048.8	
292.62	5853.8	
292.83	5674.2	
293.04	5046.2	
293.25	3472	
293.46	5096	
293.67	5806.7	
293.88	3549.1	
294.09	3450.8	
294.29	4851	
294.5	5414.8	
294.71	3778.5	
294.92	3635.1	
295.13	5113.8	
295.34	6379.4	
295.55	3224.2	
295.76	3275.4	
295.97	5757.5	
296.18	6470.2	
296.39	3344.3	
296.6	3616.7	
296.81	5408	
297.01	5711.8	
297.22	3717.7	
297.43	3493.8	
297.64	4984.1	
297.85	5001.8	
298.06	2924.5	
298.27	3219.4	
298.48	5379.3	
298.69	5095.3	
298.9	3814	
299.11	3458.3	
299.31	4846.2	
299.52	4842.8	
299.73	4130.1	
299.94	4030.4	
300.15	5314.5	
300.36	4979.3	
300.57	4017.4	
300.78	4016.7	
300.99	5192.3	
301.2	5393	
301.4	3497.2	
301.61	3888.4	
301.82	5601.2	
302.03	5752.7	
302.24	4310.3	
302.45	3374.4	
302.66	5573.2	
302.87	6025.8	
303.08	3531.4	
303.29	4844.8	
303.49	5028.4	
303.7	5343.2	
303.91	3142.9	
304.12	4614.1	
304.33	4866	
304.54	5487.9	
304.75	3564.8	
304.96	3386	
305.16	5670.8	
305.37	6343.9	
305.58	3099.3	
305.79	3186	
306	5621	
306.21	4769.7	
306.42	3517.7	
306.63	5345.9	
306.83	5145.9	
307.04	5919.3	
307.25	3941.7	
307.46	3867.9	
307.67	4635.9	
307.88	5746.6	
308.09	3506.1	
308.29	3639.2	
308.5	5385.5	
308.71	5913.2	
308.92	3754.6	
309.13	3442.6	
309.34	5187.5	
309.55	5235.3	
309.75	4431.1	
309.96	4089.1	
310.17	5746.6	
310.38	5035.3	
310.59	4284.4	
310.8	3352.5	
311.01	5144.5	
311.21	5245.5	
311.42	3388.7	
311.63	3500	
311.84	5087.8	
312.05	5463.3	
312.26	3960.8	
312.46	4319.8	
312.67	5173.2	
312.88	4873.5	
313.09	3429	
313.3	3355.3	
313.51	6135	
313.71	6421.1	
313.92	3439.2	
314.13	3645.4	
314.34	5531.6	
314.55	5223	
314.76	4410.6	
314.96	3799.7	
315.17	5410.7	
315.38	5668.1	
315.59	3485	
315.8	3301.3	
316.01	6173.3	
316.21	6193.7	
316.42	3380.5	
316.63	3763.5	
316.84	5193.6	
317.05	5986.9	
317.26	4001	
317.46	3578.5	
317.67	5233.2	
317.88	5670.1	
318.09	4317.1	
318.3	3196.9	
318.5	5080.3	
318.71	5652.4	
318.92	5556.1	
319.13	4003.8	
319.34	5836	
319.54	5933	
319.75	3190.7	
319.96	3056.9	
320.17	5657.9	
320.38	5840.8	
320.58	3151.1	
320.79	3720.5	
321	5893.4	
321.21	5982.1	
321.42	3820.1	
321.62	3119.7	
321.83	4980	
322.04	5332.9	
322.25	3672	
322.46	3460.4	
322.66	5386.2	
322.87	5623	
323.08	4244.1	
323.29	3396.2	
323.5	6382.8	
323.7	4906.3	
323.91	4661.9	
324.12	4204.5	
324.33	5429.8	
324.53	5638.7	
324.74	4033.8	
324.95	4216.8	
325.16	4760.2	
325.37	5169.8	
325.57	3451.5	
325.78	3527.3	
325.99	5380.7	
326.2	4884.4	
326.4	4853	
326.61	3171.6	
326.82	5253	
327.03	5414.8	
327.24	4878.3	
327.44	4527.4	
327.65	5562.3	
327.86	4558.1	
328.07	4075.5	
328.27	3326.6	
328.48	5927.5	
328.69	4897.4	
328.9	4962.2	
329.1	3688.4	
329.31	5228.5	
329.52	6133	
329.73	3447.4	
329.93	3891.1	
330.14	5339.1	
330.35	5576.6	
330.56	5677	
330.76	4288.4	
330.97	5134.9	
331.18	5466.7	
331.39	3762.8	
331.59	3101.3	
331.8	5911.8	
332.01	6049.7	
332.22	3504.1	
332.42	4068.6	
332.63	5470.1	
332.84	4986.8	
333.05	3867.2	
333.25	3507.5	
333.46	5071.5	
333.67	5347.9	
333.88	3611.9	
334.08	3976.5	
334.29	7263.5	
334.5	5973.2	
334.7	3355.3	
334.91	4873.5	
335.12	4934.9	
335.33	5727.5	
335.53	3756.7	
335.74	5670.1	
335.95	5091.3	
336.16	4949.9	
336.36	3809.9	
336.57	4421.6	
336.78	4825	
336.98	5851	
337.19	4665.3	
337.4	3727.3	
337.61	6428.6	
337.81	4958.1	
338.02	3504.1	
338.23	4564.2	
338.43	6052.4	
338.64	5044.1	
338.85	3480.2	
339.05	4554.7	
339.26	6118.6	
339.47	4807.3	
339.68	3426.3	
339.88	5126.7	
340.09	5627.1	
340.3	5763.7	
340.5	4063.2	
340.71	3115.6	
340.92	4868.7	
341.13	6049.7	
341.33	3395.5	
341.54	4040	
341.75	5536.3	
341.95	5186.1	
342.16	3867.2	
342.37	4234.5	
342.57	4894.6	
342.78	5211.4	
342.99	4351.9	
343.19	3119.7	
343.4	5692	
343.61	5553.4	
343.81	3665.9	
344.02	3325.9	
344.23	5689.9	
344.43	6133.7	
344.64	4278.9	
344.85	4153.3	
345.06	5580.7	
345.26	5941.2	
345.47	3956	
345.68	4713.7	
345.88	4679.6	
346.09	5773.2	
346.3	4089.8	
346.5	3058.3	
346.71	5318.6	
346.92	5063.9	
347.12	3186.6	
347.33	3968.3	
347.54	5762.3	
347.74	6247	
347.95	3925.3	
348.16	2982.5	
348.36	5114.5	
348.57	4928.8	
348.78	3915.7	
348.98	4241.3	
349.19	5290.6	
349.39	4792.2	
349.6	3161.4	
349.81	3540.3	
350.01	5545.9	
350.22	4986.1	
350.43	3784.6	
350.63	4627.7	
350.84	5332.2	
351.05	5102.2	
351.25	3490.4	
351.46	3127.9	
351.67	5799.8	
351.87	4970.4	
352.08	3701.4	
352.29	4217.5	
352.49	5768.4	
352.7	5467.4	
352.9	3369.6	
353.11	4167.6	
353.32	6390.3	
353.52	5123.3	
353.73	3312.2	
353.94	4188.8	
354.14	5615.5	
354.35	5486.5	
354.55	3390.8	
354.76	3810.6	
354.97	5601.9	
355.17	5340.4	
355.38	3248.8	
355.59	4498.7	
355.79	5017.5	
356	5384.8	
356.2	3772.4	
356.41	3311.6	
356.62	4732.9	
356.82	5227.1	
357.03	4027.7	
357.24	3628.3	
357.44	5016.2	
357.65	5110.4	
357.85	4883.7	
358.06	3803.8	
358.27	4721.9	
358.47	4977.2	
358.68	3167.5	
358.88	4001.7	
359.09	5519.3	
359.3	5937.1	
359.5	4693.9	
359.71	4195.6	
359.91	6301.6	
360.12	5683.1	
360.33	3938.9	
360.53	4450.9	
360.74	5018.2	
360.94	5092.6	
361.15	4238.6	
361.36	3448.1	
361.56	5758.9	
361.77	5221.6	
361.97	4640	
362.18	3663.8	
362.38	5752.7	
362.59	4899.4	
362.8	3344.3	
363	3254.9	
363.21	4618.2	
363.41	5308.3	
363.62	3925.3	
363.83	4849.6	
364.03	5341.8	
364.24	6272.9	
364.44	4947.2	
364.65	4837.3	
364.85	5134.9	
365.06	4811.4	
365.27	3570.3	
365.47	3549.1	
365.68	6089.3	
365.88	5137.7	
366.09	3941	
366.29	3649.5	
366.5	5367	
366.71	5767.8	
366.91	4889.2	
367.12	4052.2	
367.32	6347.3	
367.53	5625.1	
367.73	3984.7	
367.94	4948.6	
368.14	5573.9	
368.35	6494.8	
368.56	4057.7	
368.76	3368.2	
368.97	5672.2	
369.17	7271.7	
369.38	3543.7	
369.58	3807.9	
369.79	4790.9	
369.99	6065.4	
370.2	4797.7	
370.4	3908.9	
370.61	5420.3	
370.82	6539.8	
371.02	3786	
371.23	3158.7	
371.43	4701.5	
371.64	5999.9	
371.84	3808.5	
372.05	4933.6	
372.25	7204.1	
372.46	5716.6	
372.66	3793.5	
372.87	3732.1	
373.07	5755.5	
373.28	7303.1	
373.48	4769.7	
373.69	4447.5	
373.9	5178.6	
374.1	5233.2	
374.31	4686.4	
374.51	4196.3	
374.72	5967.1	
374.92	4936.3	
375.13	4801.8	
375.33	4058.4	
375.54	5601.2	
375.74	4997	
375.95	4100	
376.15	5313.1	
376.36	5597.1	
376.56	5360.2	
376.77	4225.6	
376.97	4612	
377.18	6614.3	
377.38	5597.8	
377.59	4898.1	
377.79	3651.5	
378	5512.4	
378.2	5880.4	
378.41	3749.1	
378.61	3590.8	
378.82	5908.4	
379.02	5045.5	
379.23	3854.3	
379.43	4958.8	
379.64	5965.7	
379.84	5591.6	
380.05	3689.8	
380.25	3678.8	
380.46	5716.6	
380.66	5253.7	
380.87	5027.1	
381.07	5354.1	
381.28	6293.4	
381.48	5716.6	
381.69	3704.8	
381.89	3809.9	
382.1	4725.3	
382.3	5823.7	
382.51	4792.9	
382.71	5648.3	
382.91	5712.5	
383.12	6233.3	
383.32	4117.8	
383.53	4256.4	
383.73	5578	
383.94	5388.9	
384.14	4228.4	
384.35	3407.8	
384.55	5365	
384.76	5769.8	
384.96	4113.7	
385.17	4438.6	
385.37	5802.6	
385.58	5050.3	
385.78	4417.5	
385.98	3383.9	
386.19	5249.6	
386.39	5613.5	
386.6	3855	
386.8	4066.6	
387.01	5713.8	
387.21	5784.1	
387.42	4465.3	
387.62	5013.4	
387.83	5079	
388.03	5614.2	
388.23	4119.1	
388.44	4948.6	
388.64	4816.8	
388.85	4885.1	
389.05	4443.4	
389.26	5029.8	
389.46	6718	
389.67	6118	
389.87	4404.5	
390.07	4497.3	
390.28	5313.8	
390.48	4968.4	
390.69	3736.9	
390.89	4023.6	
391.1	5153.4	
391.3	6069.5	
391.5	5116.5	
391.71	5754.8	
391.91	5728.9	
392.12	6771.9	
392.32	5227.8	
392.53	4447.5	
392.73	5180	
392.93	5393	
393.14	4144.4	
393.34	5278.3	
393.55	5930.2	
393.75	5400.5	
393.95	4169	
394.16	4096.6	
394.36	5147.9	
394.57	5845.6	
394.77	3674.7	
394.98	4068.6	
395.18	5060.5	
395.38	5304.2	
395.59	4863.2	
395.79	3874.1	
396	5215.5	
396.2	5638.7	
396.4	4706.9	
396.61	4528.7	
396.81	5868.8	
397.02	5165	
397.22	4931.5	
397.42	4925.4	
397.63	5853.1	
397.83	5104.2	
398.04	3806.5	
398.24	4296.6	
398.44	5627.8	
398.65	4728.1	
398.85	3648.1	
399.05	3792.8	
399.26	5084.4	
399.46	6677.1	
399.67	4177.9	
399.87	3872	
400.07	5410.1	
400.28	5745.2	
400.48	3981.9	
400.69	5030.5	
400.89	5948.7	
401.09	6342.6	
401.3	3825.6	
401.5	4934.2	
401.7	6554.9	
401.91	6842.3	
402.11	4175.1	
402.32	4446.8	
402.52	6053.8	
402.72	5894.7	
402.93	4677.6	
403.13	3553.2	
403.33	6730.3	
403.54	5477.6	
403.74	4285	
403.94	5258.5	
404.15	5577.3	
404.35	6580.1	
404.56	4169	
404.76	5849.7	
404.96	5947.3	
405.17	5748	
405.37	5289.9	
405.57	4563.6	
405.78	6008.1	
405.98	5499.5	
406.18	4117.1	
406.39	4997	
406.59	5955.5	
406.79	5610.8	
407	3914.4	
407.2	4040	
407.4	6004.6	
407.61	6182.1	
407.81	4048.2	
408.01	5978	
408.22	4898.7	
408.42	6846.4	
408.62	5029.8	
408.83	4481.6	
409.03	5563.6	
409.23	5361.6	
409.44	4560.8	
409.64	4819.6	
409.84	6445.6	
410.05	6287.3	
410.25	4685.1	
410.45	4506.9	
410.66	5816.9	
410.86	8168	
411.06	4870.8	
411.27	4696.7	
411.47	7944.1	
411.67	5931.6	
411.88	4999.1	
412.08	5184.1	
412.28	6574.7	
412.49	7034.1	
412.69	4720.6	
412.89	4741.7	
413.09	6826.6	
413.3	6705	
413.5	4801.8	
413.7	4387.4	
413.91	6006	
414.11	6815.6	
414.31	4578.6	
414.52	4999.8	
414.72	6509.1	
414.92	6410.8	
415.12	4632.5	
415.33	5126.7	
415.53	6796.5	
415.73	6959	
415.94	5507.7	
416.14	4923.3	
416.34	5847.6	
416.55	5601.9	
416.75	6032	
416.95	5515.9	
417.15	6758.3	
417.36	7531.1	
417.56	6276.3	
417.76	5332.2	
417.97	7144.7	
418.17	6813.6	
418.37	4956.1	
418.57	5010.7	
418.78	6617.7	
418.98	6313.2	
419.18	5921.4	
419.38	5894.7	
419.59	6342.6	
419.79	5930.2	
419.99	4941.7	
420.2	5255.1	
420.4	6842.3	
420.6	6967.9	
420.8	4825.7	
421.01	4661.2	
421.21	6602	
421.41	6849.1	
421.61	5175.9	
421.82	4897.4	
422.02	6204.7	
422.22	7111.2	
422.42	5714.5	
422.63	5460.6	
422.83	6323.4	
423.03	7482.6	
423.23	5401.9	
423.44	4405.9	
423.64	6401.3	
423.84	6136.4	
424.04	4870.8	
424.25	4519.9	
424.45	7218.4	
424.65	7215.7	
424.85	4356.7	
425.06	4894.6	
425.26	7221.8	
425.46	5845.6	
425.66	5317.9	
425.87	5066	
426.07	7023.9	
426.27	6911.9	
426.47	5257.1	
426.67	4600.4	
426.88	7468.9	
427.08	6777.4	
427.28	5467.4	
427.48	4543.8	
427.69	5759.6	
427.89	6442.2	
428.09	5453.1	
428.29	4575.8	
428.5	7023.9	
428.7	6623.1	
428.9	4511	
429.1	5023.7	
429.3	6521.4	
429.51	6905.8	
429.71	4784.7	
429.91	5552.7	
430.11	6756.9	
430.31	7323.5	
430.52	5072.1	
430.72	5328.8	
430.92	7400.7	
431.12	6841.6	
431.32	4777.2	
431.53	5142.4	
431.73	5776	
431.93	7441.6	
432.13	4676.2	
432.33	4538.3	
432.54	6223.8	
432.74	6550.8	
432.94	4472.1	
433.14	5539.1	
433.34	6812.9	
433.55	6296.8	
433.75	5406.6	
433.95	7124.9	
434.15	6609.5	
434.35	6279.8	
434.56	4731.5	
434.76	4227.7	
434.96	6561.7	
435.16	6780.8	
435.36	4610.7	
435.56	5684.5	
435.77	6246.3	
435.97	6370.5	
436.17	6364.4	
436.37	5626.5	
436.57	6210.8	
436.78	6135.7	
436.98	5767.8	
437.18	6154.8	
437.38	6737.1	
437.58	6397.2	
437.78	6247	
437.99	5064.6	
438.19	6936.5	
438.39	7673.1	
438.59	5003.9	
438.79	4397.7	
438.99	7548.8	
439.2	6351.4	
439.4	4569.7	
439.6	4528.7	
439.8	6695.5	
440	7800.7	
440.2	5562.3	
440.4	5548.6	
440.61	7066.9	
440.81	7588.4	
441.01	4741	
441.21	5610.8	
441.41	7440.3	
441.61	7096.9	
441.81	5925.5	
442.02	6931.7	
442.22	7875.1	
442.42	7169.9	
442.62	4800.4	
442.82	4900.1	
443.02	7492.2	
443.22	6596.5	
443.43	5240.1	
443.63	4783.4	
443.83	6447.7	
444.03	6460	
444.23	6033.3	
444.43	5663.3	
444.63	6708.5	
444.83	7985.7	
445.04	4908.3	
445.24	6186.9	
445.44	7209.5	
445.64	7179.5	
445.84	5725.4	
446.04	5702.2	
446.24	6496.8	
446.44	7502.4	
446.65	4906.9	
446.85	5316.5	
447.05	6876.4	
447.25	7510.6	
447.45	5472.9	
447.65	4782	
447.85	6774	
448.05	6477.7	
448.25	5818.3	
448.46	5578.7	
448.66	6878.4	
448.86	6583.5	
449.06	4668.7	
449.26	5795.8	
449.46	7177.4	
449.66	6260.6	
449.86	5387.5	
450.06	5360.2	
450.26	6471.6	
450.47	7056.6	
450.67	5578.7	
450.87	5876.3	
451.07	7058	
451.27	6837.5	
451.47	4878.3	
451.67	5537.7	
451.87	6577.4	
452.07	7688.1	
452.27	5182	
452.47	5115.8	
452.67	6875.7	
452.88	7345.4	
453.08	4524	
453.28	6491.4	
453.48	8049.9	
453.68	6808.1	
453.88	4996.4	
454.08	5293.3	
454.28	7139.9	
454.48	6845	
454.68	5852.4	
454.88	6274.3	
455.08	7292.8	
455.28	7025.2	
455.48	4902.8	
455.68	5501.5	
455.89	7774.1	
456.09	7404.1	
456.29	5267.4	
456.49	5279.7	
456.69	7636.9	
456.89	6939.9	
457.09	5827.2	
457.29	6124.1	
457.49	7149.5	
457.69	7352.2	
457.89	5656.5	
458.09	5057.1	
458.29	6934.4	
458.49	7693.5	
458.69	5950.7	
458.89	5511.8	
459.09	7960.5	
459.29	8023.3	
459.49	5606	
459.69	6320	
459.9	7477.1	
460.1	6927.6	
460.3	5522	
460.5	5227.1	
460.7	7448.5	
460.9	7110.5	
461.1	4908.3	
461.3	6143.9	
461.5	8023.9	
461.7	7619.8	
461.9	5352.7	
462.1	5788.2	
462.3	7137.2	
462.5	7752.9	
462.7	5259.2	
462.9	5452.4	
463.1	8727.1	
463.3	8379.6	
463.5	5669.5	
463.7	6523.5	
463.9	7273.7	
464.1	7740	
464.3	5839.4	
464.5	6064.7	
464.7	7991.2	
464.9	7662.1	
465.1	7340.6	
465.3	6392.4	
465.5	8250.6	
465.7	8317.5	
465.9	6646.3	
466.1	6452.5	
466.3	8133.2	
466.5	7956.4	
466.7	7285.3	
466.9	6240.2	
467.1	7846.5	
467.3	8819.9	
467.5	7287.4	
467.7	6154.1	
467.9	9098.4	
468.1	9977	
468.3	6941.2	
468.5	7261.4	
468.7	7927	
468.9	7902.4	
469.1	6430.6	
469.3	7129.7	
469.5	9800.9	
469.7	7497.6	
469.9	6959.7	
470.1	6272.9	
470.3	7938.6	
470.5	7991.2	
470.7	7476.5	
470.9	6344.6	
471.1	7752.9	
471.3	8225.3	
471.5	6146.6	
471.69	7973.4	
471.89	7664.2	
472.09	7158.3	
472.29	6913.9	
472.49	7286.7	
472.69	7392.5	
472.89	8181	
473.09	6010.8	
473.29	6169.2	
473.49	7493.5	
473.69	7662.1	
473.89	7112.6	
474.09	6339.8	
474.29	8895.7	
474.49	8556.4	
474.69	7136.5	
474.89	6471.6	
475.09	7775.5	
475.29	7697.6	
475.49	5915.9	
475.69	6184.2	
475.88	9265	
476.08	8031.5	
476.28	5882.4	
476.48	6447.7	
476.68	8521.6	
476.88	8289.5	
477.08	6219.7	
477.28	6468.2	
477.48	7821.9	
477.68	8404.2	
477.88	5995.1	
478.08	6308.4	
478.28	8795.3	
478.48	7914.7	
478.67	6400.6	
478.87	5728.9	
479.07	8605.6	
479.27	8041.7	
479.47	6616.3	
479.67	6535.8	
479.87	8459.5	
480.07	8902.5	
480.27	5836	
480.47	7427.3	
480.67	8071.7	
480.87	8695	
481.06	6155.5	
481.26	7007.5	
481.46	8037.6	
481.66	7961.8	
481.86	6589.7	
482.06	7658.7	
482.26	7771.4	
482.46	8600.1	
482.66	6493.4	
482.86	6137.8	
483.05	8108.6	
483.25	7415	
483.45	8887.5	
483.65	6491.4	
483.85	7633.5	
484.05	8038.3	
484.25	7003.4	
484.45	7348.8	
484.65	8826.1	
484.84	8882	
485.04	6429.3	
485.24	6462	
485.44	9095	
485.64	7422.5	
485.84	5757.5	
486.04	7110.5	
486.24	7788.4	
486.44	8215.1	
486.63	5754.1	
486.83	6499.6	
487.03	7736.5	
487.23	7994.6	
487.43	5855.1	
487.63	8174.1	
487.83	7977.5	
488.02	8945.5	
488.22	6703	
488.42	7397.9	
488.62	8928.5	
488.82	7783.6	
489.02	6518	
489.22	6480.5	
489.41	8696.4	
489.61	8270.4	
489.81	6242.2	
490.01	6307.1	
490.21	8731.9	
490.41	9232.2	
490.61	6229.9	
490.8	6344.6	
491	8170	
491.2	7487.4	
491.4	6931.7	
491.6	6124.8	
491.8	8122.2	
491.99	8195.3	
492.19	5949.3	
492.39	6303	
492.59	8693.6	
492.79	8710.7	
492.99	7038.2	
493.18	6287.3	
493.38	8733.2	
493.58	9495.1	
493.78	7034.8	
493.98	6524.1	
494.18	8529.8	
494.37	8029.4	
494.57	7187	
494.77	7080.5	
494.97	8686.1	
495.17	8893	
495.37	6597.2	
495.56	6977.4	
495.76	9132.6	
495.96	8771.5	
496.16	7879.9	
496.36	6873	
496.55	9022.7	
496.75	8607.6	
496.95	7251.2	
497.15	7081.9	
497.35	8893	
497.54	8905.9	
497.74	6883.9	
497.94	8624.7	
498.14	9699.9	
498.34	9485.5	
498.53	6559.6	
498.73	7329	
498.93	8358.4	
499.13	8908.7	
499.33	7170.6	
499.52	7611.6	
499.72	8934.6	
499.92	9348.3	
500.12	6821.8	
500.32	7258	
500.51	9195.4	
500.71	8925	
500.91	7958.4	
501.11	7552.9	
501.31	9126.4	
501.5	9574.9	
501.7	8207.6	
501.9	7237.5	
502.1	8953.7	
502.29	9281.4	
502.49	7740.6	
502.69	8172.8	
502.89	9187.2	
503.09	9128.5	
503.28	6720.1	
503.48	6829.3	
503.68	8403.5	
503.88	8525	
504.07	7856	
504.27	7355.6	
504.47	8776.2	
504.67	8960.5	
504.86	7686	
505.06	7363.1	
505.26	8520.9	
505.46	10191	
505.65	7319.4	
505.85	7555	
506.05	8394.6	
506.25	8884.1	
506.44	6637.5	
506.64	7626.6	
506.84	8378.2	
507.04	9327.1	
507.23	6888.7	
507.43	7402	
507.63	10355	
507.83	8636.3	
508.02	7395.9	
508.22	7054.6	
508.42	10550	
508.62	8468.4	
508.81	7357	
509.01	7830.7	
509.21	8225.3	
509.4	8590.5	
509.6	7457.3	
509.8	6886.6	
510	8513.4	
510.19	9964.7	
510.39	6911.2	
510.59	6911.9	
510.79	8297.7	
510.98	9691.7	
511.18	7056.6	
511.38	7228	
511.57	9191.3	
511.77	8988.5	
511.97	7862.8	
512.17	6808.8	
512.36	9127.8	
512.56	9113.5	
512.76	6825.9	
512.95	6594.5	
513.15	9227.5	
513.35	7913.4	
513.55	7800.7	
513.74	6883.2	
513.94	9258.9	
514.14	8676.6	
514.33	7758.4	
514.53	7536.5	
514.73	8604.9	
514.92	8708	
515.12	7014.3	
515.32	6907.8	
515.51	8832.2	
515.71	9364.7	
515.91	8616.5	
516.11	7000	
516.3	10445	
516.5	8429.4	
516.7	7447.1	
516.89	8120.2	
517.09	8611	
517.29	8527.7	
517.48	7785.7	
517.68	7233.4	
517.88	8394.6	
518.07	9042.5	
518.27	7807.5	
518.47	6763.8	
518.66	9530.6	
518.86	8223.3	
519.06	6689.3	
519.25	7167.2	
519.45	8458.8	
519.65	10021	
519.84	7705.8	
520.04	8472.4	
520.24	10277	
520.43	9095.7	
520.63	7473.7	
520.83	7256.6	
521.02	8432.9	
521.22	9039.7	
521.42	7800	
521.61	8247.9	
521.81	8525	
522.01	8910.7	
522.2	7502.4	
522.4	7302.4	
522.6	9244.5	
522.79	8072.4	
522.99	7359.7	
523.18	6810.9	
523.38	9029.5	
523.58	9000.1	
523.77	8696.4	
523.97	6804	
524.17	10802	
524.36	9989.3	
524.56	8172.8	
524.76	7662.1	
524.95	9022.7	
525.15	8733.2	
525.34	7604.1	
525.54	7611.6	
525.74	9463.7	
525.93	8571.4	
526.13	8804.9	
526.33	7527	
526.52	9700.5	
526.72	9298.5	
526.91	8774.2	
527.11	8047.2	
527.31	9932.6	
527.5	10210	
527.7	7991.2	
527.89	7068.2	
528.09	8895	
528.29	9394.7	
528.48	8438.3	
528.68	8030.8	
528.87	9691	
529.07	9804.3	
529.27	7957	
529.46	7606.8	
529.66	9357.9	
529.85	9834.3	
530.05	7388.4	
530.25	8084	
530.44	10930	
530.64	9336	
530.83	7752.2	
531.03	8028	
531.23	9807.7	
531.42	9581.8	
531.62	8772.1	
531.81	7991.2	
532.01	9889.6	
532.21	10417	
532.4	7730.4	
532.6	8127	
532.79	10588	
532.99	9905.3	
533.18	8114.1	
533.38	9192	
533.58	9622.7	
533.77	10321	
533.97	8155	
534.16	8968.7	
534.36	10523	
534.55	9643.2	
534.75	9122.3	
534.95	8262.9	
535.14	10458	
535.34	9754.5	
535.53	7947.5	
535.73	9779.1	
535.92	10890	
536.12	9734.7	
536.31	8067.6	
536.51	9263.6	
536.71	10096	
536.9	9661.6	
537.1	8154.3	
537.29	8353.7	
537.49	10546	
537.68	9574.3	
537.88	8716.2	
538.07	7832.1	
538.27	9776.3	
538.46	10834	
538.66	7806.2	
538.86	8293.6	
539.05	9950.4	
539.25	10401	
539.44	8520.2	
539.64	8175.5	
539.83	9750.4	
540.03	10720	
540.22	8037.6	
540.42	8269.7	
540.61	9994.8	
540.81	10027	
541	8586.5	
541.2	9225.4	
541.39	9478	
541.59	9997.5	
541.78	8947.6	
541.98	7998	
542.18	9199.5	
542.37	9131.9	
542.57	8487.5	
542.76	8966.7	
542.96	9197.4	
543.15	9945.6	
543.35	8441.7	
543.54	7853.3	
543.74	10225	
543.93	9780.4	
544.13	8357.1	
544.32	9409.7	
544.52	10064	
544.71	9379	
544.91	7494.2	
545.1	8751	
545.3	9387.2	
545.49	10041	
545.69	7488.7	
545.88	8000	
546.08	10934	
546.27	10520	
546.47	8560.5	
546.66	7856.7	
546.86	10237	
547.05	10795	
547.24	8144.8	
547.44	7959.1	
547.63	9244.5	
547.83	10309	
548.02	8384.4	
548.22	8498.4	
548.41	9029.5	
548.61	10340	
548.8	7757	
549	7761.8	
549.19	9676.7	
549.39	10091	
549.58	7563.1	
549.78	8077.9	
549.97	10027	
550.17	9529.2	
550.36	8961.9	
550.55	9976.3	
550.75	9530.6	
550.94	10475	
551.14	7747.5	
551.33	8094.3	
551.53	8904.6	
551.72	9974.3	
551.92	8213	
552.11	7929.1	
552.31	9955.9	
552.5	9972.9	
552.69	9609.1	
552.89	7539.9	
553.08	9910.1	
553.28	9639.1	
553.47	7961.8	
553.67	8991.9	
553.86	10469	
554.06	8936	
554.25	7118.1	
554.44	7772	
554.64	11260	
554.83	10714	
555.03	7725.6	
555.22	8026	
555.42	10058	
555.61	9745.6	
555.8	7922.2	
556	8212.4	
556.19	8901.2	
556.39	10275	
556.58	7931.8	
556.78	7934.5	
556.97	9635	
557.16	9285.5	
557.36	9114.8	
557.55	7602.1	
557.75	8650.6	
557.94	10432	
558.13	7610.9	
558.33	7389.1	
558.52	10225	
558.72	9127.8	
558.91	7551.5	
559.1	7759.1	
559.3	8850.6	
559.49	8540.7	
559.69	7169.3	
559.88	8129.8	
560.07	9620	
560.27	9923.8	
560.46	8298.4	
560.66	8469.7	
560.85	9345.6	
561.04	8656.1	
561.24	7405.5	
561.43	7666.9	
561.63	8781	
561.82	9168.1	
562.01	9020.6	
562.21	7989.1	
562.4	9482.8	
562.59	10501	
562.79	7858.1	
562.98	7514.7	
563.18	9436.4	
563.37	10848	
563.56	8435.6	
563.76	7453.2	
563.95	9013.8	
564.14	8860.9	
564.34	7831.4	
564.53	7688.1	
564.73	9549.7	
564.92	9726.5	
565.11	8025.3	
565.31	7374.1	
565.5	10089	
565.69	9040.4	
565.89	7585.7	
566.08	7890.8	
566.27	9934.7	
566.47	10303	
566.66	8511.4	
566.85	7215	
567.05	9604.3	
567.24	9027.4	
567.44	7555.6	
567.63	8838.4	
567.82	9731.9	
568.02	9464.3	
568.21	7550.2	
568.4	7983.7	
568.6	9421.3	
568.79	9370.8	
568.98	7402	
569.18	7540.6	
569.37	9427.5	
569.56	11306	
569.76	7921.5	
569.95	8915.5	
570.14	9833.7	
570.34	9707.4	
570.53	7511.9	
570.72	7516	
570.91	10178	
571.11	9296.4	
571.3	7913.4	
571.49	8881.4	
571.69	9436.4	
571.88	9003.6	
572.07	8462.9	
572.27	8467.7	
572.46	8937.3	
572.65	10040	
572.85	7684	
573.04	8036.9	
573.23	10205	
573.43	9447.3	
573.62	7439.6	
573.81	8089.5	
574	9529.9	
574.2	9342.2	
574.39	7856.7	
574.58	7976.8	
574.78	10399	
574.97	9745.6	
575.16	8305.9	
575.36	8609.7	
575.55	10049	
575.74	10167	
575.93	7523.6	
576.13	8610.3	
576.32	9428.8	
576.51	9975.7	
576.71	7899.7	
576.9	9258.2	
577.09	10264	
577.28	9920.4	
577.48	8286.8	
577.67	7382.9	
577.86	9452.1	
578.05	9810.5	
578.25	8006.2	
578.44	8236.2	
578.63	9647.3	
578.83	10793	
579.02	7451.2	
579.21	9058.8	
579.4	9848	
579.6	9417.9	
579.79	8322.3	
579.98	10374	
580.17	10178	
580.37	10186	
580.56	7728.4	
580.75	8392.6	
580.94	10716	
581.14	10562	
581.33	8779.6	
581.52	7882.6	
581.71	10043	
581.91	10770	
582.1	7529	
582.29	8144.1	
582.48	9744.2	
582.68	9585.2	
582.87	8596	
583.06	8165.9	
583.25	9910.1	
583.45	9861.7	
583.64	8914.8	
583.83	9526.5	
584.02	9500.5	
584.21	9921.7	
584.41	8761.9	
584.6	8140	
584.79	9686.9	
584.98	10393	
585.18	7695.6	
585.37	7722.2	
585.56	9202.2	
585.75	10039	
585.94	7851.2	
586.14	8549.6	
586.33	10688	
586.52	9649.3	
586.71	8354.3	
586.91	8079.9	
587.1	8991.3	
587.29	10097	
587.48	8013.7	
587.67	7915.4	
587.87	9864.4	
588.06	9897.2	
588.25	9214.5	
588.44	8505.2	
588.63	9535.3	
588.83	10102	
589.02	8013	
589.21	7819.8	
589.4	9258.9	
589.59	9167.4	
589.78	7121.5	
589.98	7337.9	
590.17	8835.6	
590.36	9420	
590.55	6849.8	
590.74	7528.3	
590.94	10652	
591.13	9170.8	
591.32	7276.4	
591.51	6912.6	
591.7	9738.8	
591.89	9195.4	
592.09	6982.9	
592.28	7458	
592.47	8451.3	
592.66	10297	
592.85	7027.3	
593.05	7257.3	
593.24	9000.1	
593.43	9734.7	
593.62	7324.2	
593.81	7747.5	
594	9065	
594.19	9207.7	
594.39	7105.8	
594.58	7083.9	
594.77	9408.4	
594.96	9910.8	
595.15	7105.1	
595.34	7673.1	
595.54	9366	
595.73	8492.9	
595.92	6425.8	
596.11	7647.8	
596.3	9886.9	
596.49	8587.1	
596.68	7378.8	
596.88	7815.7	
597.07	9599.5	
597.26	8422.6	
597.45	6917.4	
597.64	8142	
597.83	8646.5	
598.02	9272.5	
598.22	6957.6	
598.41	7671	
598.6	9116.9	
598.79	8509.3	
598.98	7003.4	
599.17	7924.3	
599.36	9006.3	
599.55	10292	
599.74	9016.5	
599.94	8776.2	
600.13	9561.3	
600.32	8475.2	
600.51	6707.1	
600.7	6783.6	
600.89	10075	
601.08	10247	
601.27	6756.2	
601.47	7657.4	
601.66	9511.4	
601.85	10146	
602.04	7327.6	
602.23	7651.9	
602.42	8581	
602.61	9224.1	
602.8	7331	
602.99	7111.9	
603.18	8911.4	
603.37	9168.8	
603.57	7621.2	
603.76	8199.4	
603.95	9884.2	
604.14	9372.9	
604.33	7105.8	
604.52	7417.1	
604.71	9068.4	
604.9	8636.3	
605.09	8232.8	
605.28	7900.4	
605.47	9720.3	
605.66	9292.3	
605.86	7668.3	
606.05	7133.8	
606.24	9658.2	
606.43	8264.9	
606.62	7392.5	
606.81	8162.5	
607	9487.6	
607.19	8807.6	
607.38	6835.4	
607.57	7105.1	
607.76	8608.3	
607.95	8032.1	
608.14	7480.5	
608.33	8040.3	
608.52	8584.4	
608.72	9452.7	
608.91	6815.6	
609.1	6709.8	
609.29	8723	
609.48	8194.6	
609.67	7668.3	
609.86	6747.4	
610.05	8194.6	
610.24	8630.1	
610.43	6619.7	
610.62	6268.1	
610.81	9775	
611	9537.4	
611.19	6703.7	
611.38	7401.4	
611.57	8951.7	
611.76	10174	
611.95	6549.4	
612.14	6425.2	
612.33	8800.8	
612.52	8262.9	
612.71	6998.6	
612.9	6206	
613.09	7914	
613.28	10159	
613.47	6842.3	
613.66	7752.9	
613.85	8842.4	
614.04	8452.6	
614.24	6895.5	
614.43	6090.7	
614.62	8989.2	
614.81	8946.2	
615	7456.7	
615.19	7467.6	
615.38	8237.6	
615.57	8566.7	
615.76	7333.8	
615.95	8153.6	
616.14	8951.7	
616.33	8652	
616.52	7441	
616.71	7828	
616.9	8951.7	
617.09	8811	
617.28	6922.8	
617.47	8122.2	
617.66	8131.1	
617.85	8103.1	
618.04	7845.8	
618.22	7274.4	
618.41	8406.2	
618.6	9326.4	
618.79	7253.2	
618.98	7018.4	
619.17	9700.5	
619.36	8001.4	
619.55	7139.2	
619.74	7086.7	
619.93	8890.9	
620.12	8398.7	
620.31	7656.7	
620.5	7896.3	
620.69	9862.3	
620.88	9905.3	
621.07	8483.4	
621.26	7628	
621.45	9183.1	
621.64	9086.2	
621.83	7666.9	
622.02	6866.8	
622.21	9142.1	
622.4	8991.3	
622.59	8185.7	
622.78	7957	
622.97	8531.2	
623.16	9510.1	
623.35	7733.1	
623.54	6853.2	
623.72	8710.7	
623.91	8883.4	
624.1	7887.4	
624.29	6602.7	
624.48	10024	
624.67	9186.5	
624.86	7805.5	
625.05	6903.7	
625.24	9999.5	
625.43	8506.6	
625.62	9429.5	
625.81	7105.1	
626	9426.8	
626.19	8806.9	
626.38	7871.7	
626.56	7299.6	
626.75	8658.1	
626.94	9300.5	
627.13	7791.8	
627.32	6571.2	
627.51	9284.1	
627.7	10539	
627.89	6608.1	
628.08	7981.6	
628.27	8489.5	
628.46	8690.9	
628.65	7136.5	
628.83	6754.2	
629.02	9227.5	
629.21	8525.7	
629.4	7464.2	
629.59	7653.3	
629.78	8504.5	
629.97	9386.5	
630.16	7688.1	
630.35	7131.7	
630.54	9815.2	
630.72	9553.8	
630.91	7179.5	
631.1	7694.9	
631.29	9122.3	
631.48	9225.4	
631.67	7829.4	
631.86	7256.6	
632.05	8688.2	
632.24	8747.6	
632.42	7006.1	
632.61	7513.3	
632.8	8768	
632.99	8402.1	
633.18	7526.3	
633.37	7885.4	
633.56	9035.6	
633.75	8850.6	
633.93	7554.3	
634.12	7133.1	
634.31	9788.6	
634.5	9421.3	
634.69	7283.3	
634.88	7731.8	
635.07	8758.5	
635.25	9414.5	
635.44	8178.2	
635.63	8315.4	
635.82	8662.2	
636.01	8104.5	
636.2	8051.9	
636.39	7651.2	
636.57	9812.5	
636.76	9442.5	
636.95	7052.5	
637.14	8419.2	
637.33	9042.5	
637.52	10077	
637.7	6964.5	
637.89	7750.2	
638.08	8655.4	
638.27	10047	
638.46	7815.7	
638.65	8277.9	
638.83	10163	
639.02	8490.2	
639.21	7694.2	
639.4	8164.6	
639.59	8976.2	
639.78	8595.3	
639.96	6999.3	
640.15	6950.8	
640.34	8814.5	
640.53	9024.7	
640.72	6758.3	
640.91	7043	
641.09	8316.8	
641.28	9630.2	
641.47	7053.9	
641.66	7847.8	
641.85	8899.1	
642.03	9153.1	
642.22	7653.9	
642.41	7161.7	
642.6	8391.2	
642.79	7745.4	
642.97	6915.3	
643.16	7615.7	
643.35	8313.4	
643.54	8052.6	
643.73	6810.9	
643.91	7641	
644.1	7960.5	
644.29	8611.7	
644.48	6877.1	
644.67	6914.6	
644.85	8159.8	
645.04	8443.1	
645.23	6519.4	
645.42	6865.5	
645.6	8062.2	
645.79	9170.1	
645.98	6744	
646.17	5888.6	
646.36	7795.3	
646.54	8284	
646.73	7533.1	
646.92	6375.3	
647.11	7997.3	
647.29	9065	
647.48	6513.2	
647.67	6225.8	
647.86	9179	
648.05	9256.8	
648.23	6815	
648.42	8025.3	
648.61	8612.4	
648.8	8278.6	
648.98	6395.8	
649.17	6652.5	
649.36	7883.3	
649.55	7440.3	
649.73	6542.6	
649.92	7185	
650.11	7879.2	
650.3	8153	
650.48	6515.3	
650.67	6261.3	
650.86	8476.5	
651.05	7260	
651.23	6522.1	
651.42	6510.5	
651.61	7953.6	
651.79	8054	
651.98	6702.3	
652.17	6307.7	
652.36	8302.5	
652.54	7401.4	
652.73	6369.2	
652.92	6260	
653.11	8344.1	
653.29	8419.9	
653.48	5654.4	
653.67	6629.3	
653.85	8097	
654.04	9088.2	
654.23	6839.5	
654.42	6294.1	
654.6	7499.7	
654.79	8228.7	
654.98	5829.2	
655.16	6341.9	
655.35	7182.9	
655.54	7149.5	
655.73	5900.9	
655.91	5737.7	
656.1	8226.7	
656.29	7086	
656.47	5362.9	
656.66	7110.5	
656.85	7400.7	
657.03	7442.3	
657.22	5941.8	
657.41	6052.4	
657.59	7465.5	
657.78	7350.2	
657.97	5636.7	
658.16	6292	
658.34	8129.1	
658.53	8507.3	
658.72	7322.2	
658.9	7684	
659.09	7548.1	
659.28	7744.7	
659.46	6169.8	
659.65	6114.6	
659.84	7418.4	
660.02	7862.8	
660.21	5967.8	
660.4	5898.8	
660.58	8292.2	
660.77	7729	
660.96	6564.4	
661.14	5581.4	
661.33	8797.4	
661.52	8634.9	
661.7	5527.5	
661.89	9202.2	
662.08	7331	
662.26	6925.5	
662.45	5853.8	
662.64	6011.5	
662.82	8026.7	
663.01	7195.2	
663.2	5938.4	
663.38	6722.1	
663.57	7836.9	
663.75	7811	
663.94	6310.5	
664.13	7425.9	
664.31	7309.2	
664.5	7998	
664.69	6365.1	
664.87	7036.8	
665.06	7078.5	
665.25	7744.1	
665.43	7251.9	
665.62	7331	
665.8	8032.8	
665.99	7437.5	
666.18	6279.1	
666.36	6358.3	
666.55	8051.9	
666.74	7989.8	
666.92	5813.5	
667.11	7452.6	
667.29	7366.5	
667.48	8021.2	
667.67	7075.7	
667.85	6104.3	
668.04	7449.8	
668.22	7474.4	
668.41	6317.3	
668.6	6414.9	
668.78	7266.2	
668.97	7493.5	
669.15	6638.1	
669.34	5646.2	
669.53	7268.9	
669.71	7642.3	
669.9	5814.9	
670.08	6383.5	
670.27	7271	
670.46	7819.1	
670.64	6650.4	
670.83	6867.5	
671.01	7091.4	
671.2	7754.3	
671.38	5892	
671.57	5774.6	
671.76	8360.5	
671.94	8871.8	
672.13	5730.2	
672.31	6789.7	
672.5	7933.8	
672.69	7242.3	
672.87	5889.3	
673.06	6225.8	
673.24	7811.6	
673.43	7325.6	
673.61	6562.4	
673.8	6164.4	
673.98	7915.4	
674.17	8075.8	
674.36	6715.3	
674.54	6543.9	
674.73	7594.6	
674.91	7940	
675.1	6285.2	
675.28	5959.6	
675.47	7534.5	
675.65	8009.6	
675.84	6113.9	
676.03	6471.6	
676.21	7251.9	
676.4	6772.6	
676.58	7034.8	
676.77	6759	
676.95	8676.6	
677.14	7221.8	
677.32	5845.6	
677.51	5622.4	
677.69	7950.2	
677.88	6904.4	
678.06	5831.2	
678.25	5879.7	
678.44	7460.8	
678.62	7217.7	
678.81	5605.3	
678.99	6503.7	
679.18	8265.6	
679.36	7854.6	
679.55	6092	
679.73	6687.3	
679.92	7756.3	
680.1	7168.6	
680.29	7243	
680.47	6141.2	
680.66	7163.1	
680.84	7941.3	
681.03	5428.5	
681.21	6527.6	
681.4	7311.9	
681.58	7174.7	
681.77	5896.1	
681.95	5776	
682.14	8042.4	
682.32	8377.6	
682.51	6726.9	
682.69	5617.6	
682.88	7130.3	
683.06	7821.2	
683.25	6385.6	
683.43	6844.3	
683.62	7467.6	
683.8	7843.7	
683.99	6922.1	
684.17	6397.2	
684.36	8627.4	
684.54	7442.3	
684.73	5500.2	
684.91	5667.4	
685.1	7675.1	
685.28	7045.7	
685.46	6240.2	
685.65	6320	
685.83	7877.9	
686.02	7269.6	
686.2	5766.4	
686.39	5813.5	
686.57	6981.5	
686.76	8432.2	
686.94	5698.1	
687.13	5913.9	
687.31	7727	
687.5	7258	
687.68	5388.9	
687.86	6662.7	
688.05	8872.5	
688.23	6780.1	
688.42	6676.4	
688.6	5840.8	
688.79	7176.8	
688.97	7204.8	
689.16	6312.5	
689.34	5165.7	
689.52	7973.4	
689.71	8132.5	
689.89	6520.7	
690.08	5847	
690.26	7612.3	
690.45	7404.8	
690.63	6722.1	
690.81	6002.6	
691	7287.4	
691.18	7159.7	
691.37	6179.4	
691.55	8224.6	
691.74	7067.5	
691.92	9056.8	
692.1	6132.3	
692.29	5584.8	
692.47	7368.6	
692.66	6614.3	
692.84	5852.4	
693.02	6328.9	
693.21	6778.1	
693.39	7296.2	
693.58	6423.8	
693.76	5909.1	
693.94	8439.7	
694.13	8286.8	
694.31	5838.1	
694.5	6993.1	
694.68	7125.6	
694.86	7426.6	
695.05	6232	
695.23	6416.3	
695.42	7887.4	
695.6	10109	
695.78	6859.3	
695.97	5980.1	
696.15	7895.6	
696.34	7279.2	
696.52	5756.8	
696.7	6600.6	
696.89	7645.1	
697.07	7076.4	
697.25	6520.7	
697.44	7945.4	
697.62	7619.8	
697.81	8002.8	
697.99	6161	
698.17	6644.3	
698.36	7027.3	
698.54	7630	
698.72	6455.9	
698.91	5519.3	
699.09	7315.3	
699.28	7129.7	
699.46	6221	
699.64	6073.6	
699.83	7066.2	
700.01	8373.5	
700.19	6946.7	
700.38	5326.1	
700.56	8296.3	
700.74	7164.5	
700.93	5720.7	
701.11	6582.9	
701.29	7735.2	
701.48	8692.3	
701.66	5922	
701.84	6021.7	
702.03	7353.6	
702.21	7912.7	
702.39	5549.3	
702.58	6217.6	
702.76	7789.1	
702.94	7863.5	
703.13	5569.1	
703.31	7948.8	
703.49	7050.5	
703.68	7978.2	
703.86	5769.1	
704.04	6763.1	
704.23	7582.9	
704.41	7949.5	
704.59	5969.1	
704.78	7129	
704.96	8727.1	
705.14	7937.2	
705.33	5669.5	
705.51	6558.3	
705.69	7410.9	
705.87	8198	
706.06	6899.6	
706.24	5714.5	
706.42	7778.2	
706.61	8086.1	
706.79	6924.2	
706.97	5710.4	
707.16	7275.8	
707.34	7723.6	
707.52	6879.1	
707.7	6001.2	
707.89	7306.5	
708.07	7061.4	
708.25	6851.1	
708.44	6862.7	
708.62	7245.7	
708.8	8372.1	
708.98	7117.4	
709.17	6056.5	
709.35	7676.5	
709.53	7655.3	
709.72	5831.9	
709.9	6186.9	
710.08	7910.6	
710.26	8009.6	
710.45	7387.7	
710.63	6109.8	
710.81	7660.1	
710.99	7598.6	
711.18	6758.3	
711.36	6219	
711.54	7556.3	
711.72	8203.5	
711.91	6290.7	
712.09	5821	
712.27	7598	
712.45	8240.3	
712.64	6599.9	
712.82	5559.6	
713	7128.3	
713.18	7253.2	
713.37	5750.7	
713.55	6901	
713.73	8049.9	
713.91	6744.6	
714.1	6057.2	
714.28	5467.4	
714.46	7690.1	
714.64	6913.9	
714.83	4985.4	
715.01	5767.8	
715.19	6972.7	
715.37	6401.3	
715.55	5397.8	
715.74	5720	
715.92	7893.6	
716.1	5907.7	
716.28	6793.8	
716.47	5852.4	
716.65	6621.8	
716.83	6649.1	
717.01	5611.4	
717.19	5823.7	
717.38	8658.1	
717.56	6361.7	
717.74	6012.2	
717.92	5262.6	
718.1	7585	
718.29	6718.7	
718.47	4866.7	
718.65	5482.4	
718.83	7550.9	
719.01	7419.1	
719.2	4696	
719.38	5785.5	
719.56	7204.1	
719.74	8745.5	
719.92	5425.8	
720.11	6446.3	
720.29	7264.8	
720.47	6333.7	
720.65	4953.4	
720.83	5864.7	
721.02	6666.1	
721.2	6532.3	
721.38	5872.2	
721.56	5126.1	
721.74	6016.2	
721.92	6182.8	
722.11	6287.3	
722.29	6064	
722.47	7483.3	
722.65	6525.5	
722.83	5130.2	
723.01	6029.2	
723.2	6631.3	
723.38	7018.4	
723.56	4633.9	
723.74	5765.7	
723.92	6146	
724.1	7329.7	
724.29	5074.2	
724.47	6231.3	
724.65	6270.2	
724.83	6212.2	
725.01	4995.7	
725.19	5866.1	
725.37	6251.1	
725.56	6308.4	
725.74	4894	
725.92	5115.1	
726.1	6203.3	
726.28	6481.1	
726.46	5552	
726.64	5276.3	
726.83	6477.7	
727.01	6700.3	
727.19	4786.1	
727.37	5692	
727.55	6653.2	
727.73	7101.7	
727.91	4832.5	
728.09	4730.8	
728.28	7144	
728.46	7640.3	
728.64	5783.5	
728.82	5739.8	
729	8224.6	
729.18	7440.3	
729.36	4914.4	
729.54	7279.8	
729.72	8544.1	
729.91	6794.5	
730.09	6950.8	
730.27	5660.6	
730.45	6737.1	
730.63	7341.3	
730.81	6352.8	
730.99	5346.6	
731.17	7847.8	
731.35	6550.1	
731.53	5869.5	
731.71	5492.7	
731.9	7637.6	
732.08	7861.5	
732.26	5774.6	
732.44	5363.6	
732.62	7818.5	
732.8	7314.7	
732.98	6141.9	
733.16	5203.9	
733.34	7316	
733.52	6143.2	
733.7	5724.8	
733.88	6005.3	
734.07	7163.8	
734.25	6817	
734.43	5155.4	
734.61	6733.7	
734.79	8415.8	
734.97	6830.7	
735.15	5314.5	
735.33	5621	
735.51	7185	
735.69	6785.6	
735.87	6785.6	
736.05	5895.4	
736.23	7055.9	
736.41	6751.5	
736.59	5665.4	
736.77	5831.9	
736.95	7432.1	
737.13	6842.3	
737.32	5303.6	
737.5	5597.1	
737.68	8016.4	
737.86	6748.1	
738.04	5190.2	
738.22	7004.1	
738.4	6573.3	
738.58	6878.4	
738.76	5795.8	
738.94	4734.2	
739.12	6660.7	
739.3	6590.4	
739.48	6348	
739.66	6195.1	
739.84	7012.2	
740.02	6974.7	
740.2	4863.2	
740.38	5199.8	
740.56	7318.1	
740.74	6198.5	
740.92	5857.9	
741.1	5777.3	
741.28	6751.5	
741.46	6642.9	
741.64	5382.1	
741.82	5947.3	
742	6857.3	
742.18	6707.1	
742.36	5652.4	
742.54	5198.4	
742.72	7316	
742.9	6074.3	
743.08	6021.7	
743.26	4823	
743.44	7567.9	
743.62	7392.5	
743.8	6070.2	
743.98	5210.7	
744.16	7075	
744.34	6668.2	
744.52	6010.1	
744.7	5889.3	
744.88	7169.9	
745.06	6656.6	
745.24	6042.2	
745.42	6163	
745.6	7178.8	
745.78	7037.5	
745.96	4855.1	
746.14	5141.8	
746.32	7982.3	
746.5	7243	
746.68	5707	
746.86	5165.7	
747.03	7669	
747.21	5982.8	
747.39	5687.9	
747.57	5216.9	
747.75	6824.5	
747.93	7285.3	
748.11	5033.9	
748.29	5076.2	
748.47	8413.7	
748.65	6514.6	
748.83	5843.5	
749.01	5618.3	
749.19	7044.3	
749.37	6174.6	
749.55	5405.3	
749.73	5537.7	
749.91	6680.5	
750.09	6408.1	
750.26	5627.8	
750.44	4876.9	
750.62	6774.7	
750.8	6694.1	
750.98	4850.3	
751.16	5203.2	
751.34	6793.1	
751.52	6096.1	
751.7	5986.2	
751.88	4835.3	
752.06	7220.5	
752.24	7057.3	
752.42	4735.6	
752.59	5094	
752.77	6597.2	
752.95	7874.4	
753.13	5863.3	
753.31	5168.4	
753.49	6363	
753.67	6799.9	
753.85	5498.1	
754.03	5113.1	
754.21	7014.3	
754.38	7413	
754.56	5210.7	
754.74	4300.7	
754.92	6292.7	
755.1	6988.4	
755.28	4235.2	
755.46	4307.6	
755.64	7568.6	
755.82	7693.5	
755.99	4468.7	
756.17	4515.8	
756.35	5109.7	
756.53	6655.9	
756.71	3457.7	
756.89	4317.8	
757.07	6287.9	
757.25	5337	
757.42	4929.5	
757.6	5762.3	
757.78	6342.6	
757.96	5425.1	
758.14	4654.4	
758.32	4210.6	
758.5	4955.4	
758.67	5794.4	
758.85	4593.6	
759.03	4632.5	
759.21	5963	
759.39	5416.2	
759.57	4047.5	
759.75	5207.3	
759.92	6596.5	
760.1	5852.4	
760.28	5618.9	
760.46	5872.2	
760.64	5649.7	
760.82	5429.8	
760.99	5378	
761.17	4548.5	
761.35	6570.6	
761.53	5511.1	
761.71	4741.7	
761.89	5365.7	
762.06	6397.9	
762.24	5937.7	
762.42	4823	
762.6	4675.5	
762.78	5911.8	
762.96	6517.3	
763.13	5243.5	
763.31	4922.6	
763.49	6669.6	
763.67	5900.2	
763.85	5743.9	
764.02	6289.3	
764.2	7013.6	
764.38	6189.6	
764.56	4755.4	
764.74	5608.7	
764.91	7088.7	
765.09	6051.1	
765.27	4428.4	
765.45	4297.3	
765.63	7122.8	
765.8	6972.7	
765.98	3978.5	
766.16	4311	
766.34	5530.9	
766.52	5325.4	
766.69	5278.3	
766.87	4134.8	
767.05	5961	
767.23	6695.5	
767.41	4501.4	
767.58	4705.5	
767.76	6481.8	
767.94	6574.7	
768.12	4586.1	
768.29	5187.5	
768.47	5991.7	
768.65	6741.9	
768.83	4140.3	
769	5287.9	
769.18	5554.1	
769.36	6270.2	
769.54	5289.2	
769.72	4193.6	
769.89	6513.9	
770.07	6640.9	
770.25	4526	
770.43	5711.8	
770.6	7270.3	
770.78	7700.4	
770.96	4635.9	
771.14	5322	
771.31	6406.7	
771.49	5751.4	
771.67	3799	
771.85	4050.9	
772.02	5043.5	
772.2	5766.4	
772.38	4825.7	
772.55	4308.2	
772.73	6034	
772.91	5768.4	
773.09	4585.4	
773.26	4750.6	
773.44	5956.9	
773.62	5560.9	
773.8	4155.3	
773.97	3895.9	
774.15	6062.7	
774.33	5645.6	
774.5	4044.1	
774.68	4358.8	
774.86	6249	
775.04	5630.5	
775.21	4135.5	
775.39	4078.9	
775.57	5954.8	
775.74	6288.6	
775.92	3983.3	
776.1	3964.9	
776.27	5864	
776.45	7101.7	
776.63	4111.6	
776.81	3654.9	
776.98	5511.8	
777.16	6681.8	
777.34	4277.5	
777.51	4518.5	
777.69	5556.1	
777.87	5304.9	
778.04	4232.5	
778.22	4876.2	
778.4	5341.1	
778.57	5939.8	
778.75	3525.2	
778.93	3801.7	
779.1	5144.5	
779.28	4922.6	
779.46	3564.8	
779.64	4036.5	
779.81	6152.1	
779.99	7040.9	
780.17	4821.6	
780.34	5033.9	
780.52	5591.6	
780.69	5821.7	
780.87	4441.4	
781.05	3926.6	
781.22	5595.1	
781.4	5684.5	
781.58	4047.5	
781.75	3235.1	
781.93	5629.9	
782.11	5070.1	
782.28	4954.7	
782.46	3988.1	
782.64	4900.1	
782.81	5763	
782.99	4122.6	
783.17	4110.3	
783.34	5752.1	
783.52	4980.7	
783.69	4258.4	
783.87	5080.3	
784.05	5044.1	
784.22	5076.2	
784.4	5052.3	
784.58	4403.8	
784.75	5972.6	
784.93	5084.4	
785.1	4008.6	
785.28	4635.9	
785.46	5751.4	
785.63	5000.5	
785.81	3990.8	
785.99	3878.9	
786.16	5198.4	
786.34	5597.1	
786.51	3922.5	
786.69	4283.7	
786.87	4812	
787.04	5311.7	
787.22	3768.3	
787.39	4732.9	
787.57	4983.4	
787.75	6141.2	
787.92	4879.6	
788.1	4794.3	
788.27	5004.6	
788.45	4816.8	
788.63	4521.9	
788.8	3311.6	
788.98	5554.1	
789.15	4685.1	
789.33	3465.8	
789.5	4055.7	
789.68	5898.8	
789.86	5988.3	
790.03	4459.1	
790.21	3898	
790.38	5964.4	
790.56	5165.7	
790.73	3730	
790.91	3834.5	
791.09	5036	
791.26	5714.5	
791.44	3972.4	
791.61	3476.1	
791.79	5025.7	
791.96	5095.3	
792.14	3540.3	
792.32	3134.8	
792.49	5014.8	
792.67	5132.9	
792.84	3592.8	
793.02	3436.5	
793.19	5423	
793.37	6193.1	
793.54	3155.2	
793.72	3571	
793.89	6285.9	
794.07	5014.8	
794.25	4177.2	
794.42	3205.8	
794.6	6074.3	
794.77	5676.3	
794.95	4392.2	
795.12	3803.1	
795.3	5026.4	
795.47	5653.1	
795.65	4179.2	
795.82	4006.5	
796	4831.8	
796.17	6611.5	
796.35	3936.9	
796.52	4657.8	
796.7	5523.4	
796.87	5641.5	
797.05	4803.9	
797.22	4794.3	
797.4	5630.5	
797.57	6584.9	
797.75	4098	
797.92	3832.4	
798.1	5907.7	
798.27	4972.5	
798.45	3244.7	
798.62	3538.9	
798.8	5331.5	
798.97	5807.4	
799.15	4294.6	
799.32	4049.5	
799.5	4602.5	
799.67	5324.7	
799.85	4387.4	
800.02	3216	
800.2	4918.5	
800.37	5251.7	
800.55	4547.2	
800.72	3835.8	
800.9	5778	
801.07	6190.3	
801.25	5094.7	
801.42	4123.2	
801.6	5771.9	
801.77	5467.4	
801.95	3718.4	
802.12	3677.5	
802.29	5545.2	
802.47	5474.9	
802.64	4122.6	
802.82	3093.8	
802.99	4922.6	
803.17	5946.6	
803.34	4046.8	
803.52	3607.2	
803.69	6542.6	
803.87	4782	
804.04	4013.3	
804.21	4145.1	
804.39	6074.3	
804.56	5152.7	
804.74	3413.3	
804.91	4189.5	
805.09	4977.2	
805.26	5059.8	
805.44	3476.8	
805.61	3781.9	
805.78	5642.2	
805.96	5682.4	
806.13	4204.5	
806.31	4530.8	
806.48	4482.3	
806.66	5092.6	
806.83	4134.2	
807	4091.2	
807.18	4975.9	
807.35	5377.3	
807.53	4040	
807.7	3208.5	
807.87	6105	
808.05	5016.8	
808.22	4463.2	
808.4	3247.4	
808.57	5025	
808.74	4612.7	
808.92	3751.2	
809.09	4768.4	
809.27	4942.4	
809.44	5502.9	
809.61	3272	
809.79	3678.2	
809.96	6146.6	
810.14	5694.7	
810.31	3178.4	
810.48	3876.8	
810.66	5147.9	
810.83	5865.4	
811.01	3698.6	
811.18	4164.9	
811.35	5808	
811.53	4440.7	
811.7	4504.8	
811.87	4129.4	
812.05	4976.6	
812.22	4921.3	
812.39	3579.2	
812.57	3459.7	
812.74	5039.4	
812.92	6653.9	
813.09	3855.6	
813.26	4278.9	
813.44	6440.2	
813.61	4930.1	
813.78	3263.8	
813.96	4336.2	
814.13	5068.7	
814.3	4699.4	
814.48	4689.8	
814.65	3918.4	
814.82	6178	
815	4794.3	
815.17	3971.7	
815.34	4871.4	
815.52	4892.6	
815.69	4911	
815.87	3996.3	
816.04	3397.6	
816.21	5031.9	
816.38	4481.6	
816.56	3822.2	
816.73	3565.5	
816.9	6334.4	
817.08	5728.9	
817.25	3579.8	
817.42	4508.9	
817.6	4597.7	
817.77	5044.8	
817.94	4117.1	
818.12	3561.4	
818.29	4739.7	
818.46	7390.4	
818.64	3736.9	
818.81	3543	
818.98	4728.1	
819.16	6790.4	
819.33	4252.3	
819.5	3989.4	
819.67	5429.2	
819.85	6036	
820.02	3976.5	
820.19	4128.7	
820.37	5247.6	
820.54	4815.5	
820.71	4057	
820.88	5018.2	
821.06	5223.7	
821.23	4790.2	
821.4	4052.2	
821.58	4031.1	
821.75	5748	
821.92	5117.9	
822.09	3241.3	
822.27	3530	
822.44	5034.6	
822.61	4906.3	
822.79	3302.7	
822.96	6343.9	
823.13	5487.9	
823.3	4684.4	
823.48	3760.8	
823.65	3460.4	
823.82	5697.4	
823.99	4578.6	
824.17	4736.3	
824.34	3442.6	
824.51	6634.7	
824.68	5106.3	
824.86	3637.9	
825.03	4086.4	
825.2	5059.8	
825.37	6112.5	
825.55	3593.5	
825.72	4059.8	
825.89	6661.4	
826.06	6140.5	
826.24	3883.6	
826.41	3893.9	
826.58	6065.4	
826.75	5265.3	
826.92	3099.9	
827.1	3402.4	
827.27	8239	
827.44	6591	
827.61	3683.6	
827.79	4481.6	
827.96	4773.1	
828.13	5140.4	
828.3	3839.3	
828.47	3236.5	
828.65	5246.9	
828.82	5154.7	
828.99	5026.4	
829.16	4347.2	
829.34	5616.9	
829.51	5392.3	
829.68	3981.9	
829.85	4188.8	
830.02	5836.7	
830.2	5656.5	
830.37	3074	
830.54	4818.9	
830.71	6411.5	
830.88	4947.2	
831.05	3141.6	
831.23	3670.6	
831.4	6165.8	
831.57	6898.2	
831.74	3665.2	
831.91	3302	
832.09	5245.5	
832.26	5586.2	
832.43	3859.1	
832.6	4369.7	
832.77	5241.4	
832.94	5979.4	
833.12	3062.4	
833.29	3794.9	
833.46	5392.3	
833.63	7067.5	
833.8	4175.8	
833.97	3845.4	
834.15	5665.4	
834.32	5420.3	
834.49	3998.3	
834.66	4131.4	
834.83	5853.1	
835	4731.5	
835.17	3723.2	
835.35	3695.2	
835.52	5560.9	
835.69	5421.7	
835.86	3926.6	
836.03	3225.6	
836.2	5585.5	
836.37	5197.7	
836.55	3817.4	
836.72	3624.2	
836.89	5187.5	
837.06	5662.6	
837.23	3990.8	
837.4	4244.8	
837.57	6418.3	
837.75	7062.8	
837.92	3510.9	
838.09	3697.3	
838.26	5179.3	
838.43	5909.1	
838.6	4025.6	
838.77	3610.6	
838.94	6752.2	
839.11	6369.9	
839.29	3882.3	
839.46	3082.2	
839.63	5586.2	
839.8	5319.3	
839.97	3747.8	
840.14	3765.5	
840.31	5429.2	
840.48	5631.2	
840.65	3096.5	
840.82	3796.9	
841	5608	
841.17	5489.9	
841.34	3447.4	
841.51	3547.8	
841.68	5480.4	
841.85	5294.7	
842.02	3553.2	
842.19	2957.3	
842.36	5400.5	
842.53	5276.9	
842.7	3187.3	
842.87	4203.8	
843.05	6991.8	
843.22	5341.8	
843.39	3274	
843.56	3550.5	
843.73	5103.5	
843.9	5668.8	
844.07	5582.8	
844.24	4633.2	
844.41	8221.2	
844.58	4864.6	
844.75	3347.1	
844.92	3685	
845.09	5591.6	
845.26	5560.2	
845.43	3448.1	
845.6	3630.4	
845.77	5646.9	
845.94	5306.3	
846.12	3758.7	
846.29	3967.6	
846.46	5796.4	
846.63	5558.9	
846.8	3424.9	
846.97	4044.7	
847.14	6015.6	
847.31	5487.9	
847.48	3807.2	
847.65	4246.1	
847.82	5877	
847.99	5822.4	
848.16	4536.9	
848.33	4242	
848.5	5155.4	
848.67	5999.2	
848.84	3383.9	
849.01	3601	
849.18	5018.9	
849.35	4702.1	
849.52	4266.6	
849.69	3361.4	
849.86	5773.9	
850.03	6010.8	
850.2	3405.1	
850.37	4154	
850.54	5973.9	
850.71	5274.9	
850.88	4100.7	
851.05	3328.6	
851.22	5508.4	
851.39	6165.8	
851.56	3191.4	
851.73	3975.8	
851.9	4906.3	
852.07	5846.3	
852.24	3794.9	
852.41	3361.4	
852.58	5464	
852.75	5002.5	
852.92	3793.5	
853.09	3285.6	
853.26	5134.9	
853.43	6012.8	
853.6	3375.1	
853.77	2940.9	
853.94	6128.9	
854.11	4872.1	
854.28	5077.6	
854.44	3671.3	
854.61	6492.1	
854.78	5860.6	
854.95	3374.4	
855.12	4280.9	
855.29	4532.8	
855.46	6115.9	
855.63	3405.8	
855.8	4713.1	
855.97	5215.5	
856.14	5919.3	
856.31	4742.4	
856.48	3715	
856.65	5142.4	
856.82	4847.5	
856.99	3266.5	
857.16	3704.1	
857.33	6812.2	
857.49	5211.4	
857.66	3693.2	
857.83	4033.1	
858	5208	
858.17	5407.3	
858.34	3212.6	
858.51	3391.4	
858.68	6239.5	
858.85	6294.8	
859.02	3912.3	
859.19	4181.3	
859.36	4820.9	
859.52	4921.3	
859.69	3458.3	
859.86	4003.8	
860.03	4945.2	
860.2	6148	
860.37	3067.9	
860.54	3431	
860.71	5827.8	
860.88	6195.8	
861.05	3841.3	
861.21	4313	
861.38	6214.9	
861.55	4806.6	
861.72	3099.9	
861.89	3779.9	
862.06	5909.1	
862.23	6394.4	
862.4	3359.4	
862.56	3481.5	
862.73	5679.7	
862.9	5384.8	
863.07	4043.4	
863.24	3101.3	
863.41	4790.2	
863.58	4882.4	
863.75	3557.3	
863.91	3976.5	
864.08	6179.4	
864.25	5695.4	
864.42	4238.6	
864.59	4726.7	
864.76	6463.4	
864.93	4917.2	
865.09	3289	
865.26	3654.3	
865.43	6010.8	
865.6	6431.3	
865.77	2989.4	
865.94	3368.2	
866.1	6145.3	
866.27	5795.8	
866.44	5144.5	
866.61	3198.2	
866.78	5340.4	
866.95	5717.2	
867.11	3264.5	
867.28	2990	
867.45	5866.1	
867.62	4937.7	
867.79	3905.5	
867.96	3367.5	
868.12	4913.1	
868.29	5834	
868.46	2962.7	
868.63	4560.8	
868.8	6026.5	
868.97	5776	
869.13	3524.6	
869.3	3492.5	
869.47	5730.9	
869.64	5885.9	
869.81	3456.3	
869.97	3447.4	
870.14	5575.3	
870.31	6238.8	
870.48	3325.9	
870.65	4331.5	
870.81	5171.1	
870.98	5325.4	
871.15	3870	
871.32	3560.1	
871.48	5688.6	
871.65	6252.4	
871.82	3379.1	
871.99	3803.1	
872.16	6717.3	
872.32	6141.2	
872.49	3474	
872.66	3426.3	
872.83	5818.3	
872.99	5075.5	
873.16	3924.6	
873.33	3378.5	
873.5	5409.4	
873.67	5479.7	
873.83	3545.7	
874	4579.3	
874.17	5533.6	
874.34	6632	
874.5	4423.6	
874.67	4205.2	
874.84	6217.6	
875.01	4924	
875.17	4809.3	
875.34	3407.8	
875.51	5521.3	
875.68	6684.6	
875.84	4077.5	
876.01	4989.5	
876.18	5756.2	
876.34	5715.2	
876.51	3386	
876.68	3307.5	
876.85	5288.5	
877.01	6061.3	
877.18	4873.5	
877.35	3358	
877.52	5414.1	
877.68	4857.1	
877.85	3321.1	
878.02	3353.9	
878.18	5364.3	
878.35	5059.2	
878.52	2732	
878.69	3814	
878.85	5827.8	
879.02	5777.3	
879.19	4902.2	
879.35	3657.7	
879.52	5776.6	
879.69	5972.6	
879.86	2932	
880.02	3749.1	
880.19	5312.4	
880.36	6605.4	
880.52	3875.4	
880.69	4063.2	
880.86	5859.9	
881.02	5925.5	
881.19	3763.5	
881.36	3710.2	
881.52	5720	
881.69	5081	
881.86	3672.7	
882.02	3587.4	
882.19	5983.5	
882.36	7088.7	
882.52	3497.9	
882.69	4782	
882.86	5535.7	
883.02	5441.5	
883.19	4147.1	
883.36	3861.8	
883.52	5816.9	
883.69	6696.9	
883.86	3451.5	
884.02	3099.3	
884.19	5787.6	
884.36	5373.9	
884.52	3839.9	
884.69	3592.1	
884.86	5118.6	
885.02	6432.7	
885.19	3793.5	
885.36	3911.6	
885.52	5362.3	
885.69	5564.3	
885.86	4904.9	
886.02	4361.5	
886.19	5810.1	
886.35	5338.4	
886.52	3713	
886.69	4790.2	
886.85	4964.3	
887.02	6166.4	
887.19	6166.4	
887.35	6166.4	
887.52	6166.4	
887.68	6166.4	
887.85	6166.4	
888.02	6166.4	
888.18	6166.4	
888.35	6166.4	
888.51	6166.4	
888.68	6166.4	
888.85	6166.4	
889.01	6166.4	
889.18	6166.4	
889.35	6166.4	
889.51	6166.4	
889.68	6166.4	
889.84	6166.4	
890.01	6166.4	
890.17	6166.4	
890.34	6166.4	
890.51	6166.4	
890.67	6166.4	
890.84	6166.4	
891	6166.4	
891.17	6166.4	
891.34	6166.4	
891.5	6166.4	
891.67	6166.4	
891.83	6166.4	
892	6166.4	
892.16	6166.4	
892.33	6166.4	
892.5	6166.4	
892.66	6166.4	
892.83	6166.4	
892.99	6166.4	
893.16	6166.4	
893.32	6166.4	
893.49	6166.4	
893.65	6166.4	
893.82	6166.4	
893.99	6166.4	
894.15	6166.4	
894.32	6166.4	
894.48	6166.4	
894.65	6166.4	
894.81	6166.4	
894.98	6166.4	
895.14	6166.4	
895.31	6166.4	
895.47	6166.4	
895.64	6166.4	
895.81	6166.4	
895.97	6166.4	
896.14	6166.4	
896.3	6166.4	
896.47	6166.4	
896.63	6166.4	
896.8	6166.4	
896.96	6166.4	
897.13	6166.4	
897.29	6166.4	
897.46	6166.4	
897.62	6166.4	
897.79	6166.4	
897.95	6166.4	
898.12	6166.4	
898.28	6166.4	
898.45	6166.4	
898.61	6166.4	
898.78	6166.4	
898.94	6166.4	
899.11	6166.4	
899.27	6166.4	
899.44	6166.4	
899.6	6166.4	
899.77	6166.4	
899.93	6166.4	
900.1	6166.4	
900.26	6166.4	
900.43	6166.4	
900.59	6166.4	
900.76	6166.4	
900.92	6166.4	
901.09	6166.4	
901.25	6166.4	
901.42	6166.4	
901.58	6166.4	
901.75	6166.4	
901.91	6166.4	
902.07	6166.4	
902.24	6166.4	
902.4	6166.4	
902.57	6166.4	
902.73	6166.4	
902.9	6166.4	
903.06	6166.4	
903.23	6166.4	
903.39	6166.4	
903.56	6166.4	
903.72	6166.4	
903.88	6166.4	
904.05	6166.4	
904.21	6166.4	
904.38	6166.4	
904.54	6166.4	
904.71	6166.4	
904.87	6166.4	
905.03	6166.4	
905.2	6166.4	
905.36	6166.4	
905.53	6166.4	
905.69	6166.4	
905.86	6166.4	
906.02	6166.4	
906.18	6166.4	
906.35	6166.4	
906.51	6166.4	
906.68	6166.4	
906.84	6166.4	
907.01	6166.4	
907.17	6166.4	
907.33	6166.4	
907.5	6166.4	
907.66	6166.4	
907.83	6166.4	
907.99	6166.4	
908.15	6166.4	
908.32	6166.4	
908.48	6166.4	
908.65	6166.4	
908.81	6166.4	
908.97	6166.4	
909.14	6166.4	
909.3	6166.4	
909.47	6166.4	
909.63	6166.4	
909.79	6166.4	
909.96	6166.4	
910.12	6166.4	
910.28	6166.4	
910.45	6166.4	
910.61	6166.4	
910.78	6166.4	
910.94	6166.4	
911.1	6166.4	
911.27	6166.4	
911.43	6166.4	
911.59	6166.4	
911.76	6166.4	
911.92	6166.4	
912.08	6166.4	
912.25	6166.4	
912.41	6166.4	
912.57	6166.4	
912.74	6166.4	
912.9	6166.4	
913.07	6166.4	
913.23	6166.4	
913.39	6166.4	
913.56	6166.4	
913.72	6166.4	
913.88	6166.4	
914.05	6166.4	
914.21	6166.4	
914.37	6166.4	
914.54	6166.4	
914.7	6166.4	
914.86	6166.4	
915.03	6166.4	
915.19	6166.4	
