Wavelength	Intensities	
nm	a.u.	
179.22	1914.5	
179.44	1906.7	
179.65	1922.4	
179.86	1891	
180.08	1864.3	
180.29	4965.6	
180.51	3576.4	
180.72	5644.2	
180.94	6675.7	
181.15	3265.8	
181.37	3213.9	
181.58	5524.7	
181.79	5805.3	
182.01	3358.7	
182.22	3639.2	
182.44	5754.8	
182.65	4848.9	
182.87	4571.7	
183.08	4028.4	
183.29	6097.5	
183.51	4988.9	
183.72	3687	
183.94	5417.6	
184.15	5455.1	
184.37	5449.6	
184.58	3243.3	
184.79	4397.7	
185.01	5080.3	
185.22	5754.8	
185.44	4737.6	
185.65	3923.9	
185.86	5289.2	
186.08	4928.8	
186.29	3120.4	
186.51	3379.1	
186.72	5063.9	
186.94	5930.9	
187.15	3934.1	
187.36	4063.2	
187.58	7801.4	
187.79	5543.2	
188.01	4204.5	
188.22	6587.6	
188.43	6718	
188.65	5755.5	
188.86	3336.8	
189.08	4037.2	
189.29	5219.6	
189.5	5258.5	
189.72	3730	
189.93	3837.9	
190.15	5935.7	
190.36	7180.9	
190.57	4108.9	
190.79	4018.8	
191	6093.4	
191.22	6012.8	
191.43	4136.9	
191.64	3297.9	
191.86	6309.8	
192.07	5982.8	
192.29	3506.8	
192.5	3762.8	
192.71	5989.6	
192.93	5137	
193.14	3685.7	
193.35	3822.9	
193.57	5223.7	
193.78	5953.4	
194	3072.6	
194.21	3652.2	
194.42	4973.2	
194.64	5483.1	
194.85	4095.9	
195.07	4839.4	
195.28	5479.7	
195.49	4688.5	
195.71	5018.9	
195.92	3510.2	
196.13	5619.6	
196.35	5791.7	
196.56	5372.5	
196.78	4112.3	
196.99	7062.8	
197.2	6612.2	
197.42	4669.4	
197.63	4153.3	
197.84	4878.3	
198.06	5591	
198.27	3729.4	
198.48	5010	
198.7	5182	
198.91	5325.4	
199.13	4048.8	
199.34	4126	
199.55	5787.6	
199.77	4730.1	
199.98	3567.6	
200.19	4173.1	
200.41	5282.4	
200.62	5038	
200.83	4274.8	
201.05	4581.3	
201.26	5378	
201.47	5132.2	
201.69	3635.1	
201.9	3474	
202.11	5402.5	
202.33	6435.4	
202.54	3898.6	
202.76	4307.6	
202.97	5528.8	
203.18	5544.5	
203.4	4274.1	
203.61	4179.2	
203.82	5502.9	
204.04	5072.1	
204.25	4135.5	
204.46	4084.3	
204.68	5455.1	
204.89	5696.8	
205.1	4008.6	
205.32	3468.6	
205.53	5896.8	
205.74	6036.7	
205.96	3009.8	
206.17	4180.6	
206.38	5845.6	
206.6	5986.9	
206.81	4655.7	
207.02	3802.4	
207.24	5673.6	
207.45	6129.6	
207.66	3931.4	
207.88	3360	
208.09	5652.4	
208.3	5415.5	
208.52	3528.7	
208.73	3880.9	
208.94	5453.7	
209.15	6186.9	
209.37	3902.1	
209.58	4086.4	
209.79	5944.6	
210.01	5225.1	
210.22	3176.4	
210.43	3273.3	
210.65	5392.3	
210.86	5880.4	
211.07	3977.2	
211.29	3599.6	
211.5	5772.5	
211.71	5362.3	
211.93	3493.2	
212.14	3520.5	
212.35	5363.6	
212.56	5582.1	
212.78	4123.9	
212.99	3361.4	
213.2	6432	
213.42	5167.7	
213.63	3741	
213.84	3985.3	
214.06	4827.1	
214.27	4928.1	
214.48	3882.9	
214.69	4143.7	
214.91	6176.7	
215.12	6242.9	
215.33	4229.1	
215.55	4627.7	
215.76	6752.2	
215.97	5893.4	
216.18	4072.7	
216.4	3889.8	
216.61	5156.8	
216.82	5941.8	
217.04	3595.6	
217.25	3749.8	
217.46	6066.8	
217.67	5859.2	
217.89	3196.9	
218.1	3341.6	
218.31	5497.4	
218.53	5664	
218.74	3734.8	
218.95	3641.3	
219.16	5401.9	
219.38	6419.7	
219.59	3648.1	
219.8	4410.6	
220.01	7086.7	
220.23	5537	
220.44	4874.2	
220.65	3523.9	
220.87	5506.3	
221.08	6042.2	
221.29	3340.9	
221.5	4407.2	
221.72	7482.6	
221.93	5187.5	
222.14	4179.2	
222.35	4847.5	
222.57	5427.8	
222.78	5831.9	
222.99	3892.5	
223.2	4234.5	
223.42	5737	
223.63	5913.2	
223.84	3004.4	
224.05	2951.8	
224.27	6971.3	
224.48	6412.2	
224.69	4846.9	
224.9	4164.2	
225.12	5670.1	
225.33	5416.2	
225.54	3243.3	
225.75	3646.7	
225.97	5010	
226.18	5319.3	
226.39	3954.6	
226.6	3635.1	
226.82	5202.5	
227.03	5076.2	
227.24	4091.8	
227.45	3365.5	
227.67	5797.8	
227.88	6420.4	
228.09	4635.2	
228.3	4619.5	
228.52	5920	
228.73	5432.6	
228.94	3789.4	
229.15	3364.1	
229.36	5375.9	
229.58	5316.5	
229.79	3838.6	
230	4468	
230.21	6432	
230.43	5526.1	
230.64	4085.7	
230.85	4261.8	
231.06	5882.4	
231.28	5905.7	
231.49	3384.6	
231.7	3930.7	
231.91	5748	
232.12	5515.2	
232.34	3451.5	
232.55	3956	
232.76	6034.7	
232.97	5685.8	
233.18	3616	
233.4	3998.3	
233.61	5653.1	
233.82	5191.6	
234.03	3714.3	
234.25	3691.1	
234.46	7668.3	
234.67	5438	
234.88	4174.4	
235.09	3631	
235.31	5754.8	
235.52	5269.4	
235.73	4055	
235.94	3411.2	
236.15	5138.4	
236.37	6610.2	
236.58	3590.1	
236.79	3899.3	
237	5793.7	
237.21	4929.5	
237.43	4199.7	
237.64	3338.2	
237.85	9975.7	
238.06	4958.1	
238.27	4335.5	
238.48	3416	
238.7	5792.3	
238.91	5265.3	
239.12	3923.9	
239.33	3923.9	
239.54	5018.9	
239.76	5358.2	
239.97	3869.3	
240.18	3884.3	
240.39	6879.8	
240.6	5784.8	
240.82	4061.1	
241.03	3332.7	
241.24	5421	
241.45	6314.6	
241.66	3629.7	
241.87	4239.3	
242.09	6169.8	
242.3	6601.3	
242.51	4308.9	
242.72	3971.7	
242.93	5893.4	
243.14	5433.3	
243.36	4543.1	
243.57	4939.7	
243.78	6315.9	
243.99	5769.1	
244.2	3956	
244.41	3537.5	
244.63	5023.7	
244.84	5702.9	
245.05	4229.1	
245.26	3989.4	
245.47	5750	
245.68	6009.4	
245.9	5278.3	
246.11	4129.4	
246.32	5305.6	
246.53	5691.3	
246.74	6381.5	
246.95	3274.7	
247.16	4920.6	
247.38	5423.7	
247.59	3288.4	
247.8	3924.6	
248.01	5120.6	
248.22	5369.1	
248.43	3541.6	
248.64	3842.7	
248.86	4829.8	
249.07	5182	
249.28	3460.4	
249.49	4048.2	
249.7	6041.5	
249.91	6143.9	
250.12	3279.5	
250.34	3289	
250.55	5474.9	
250.76	5429.8	
250.97	4049.5	
251.18	4076.8	
251.39	6210.1	
251.6	5629.9	
251.81	4153.3	
252.03	4104.8	
252.24	5201.2	
252.45	5978.7	
252.66	3381.2	
252.87	4382	
253.08	5464	
253.29	7244.3	
253.5	3428.3	
253.72	4709.6	
253.93	5315.8	
254.14	6432	
254.35	3752.6	
254.56	3777.8	
254.77	5758.9	
254.98	5020.3	
255.19	3673.4	
255.41	4790.9	
255.62	5531.6	
255.83	6072.2	
256.04	4235.9	
256.25	4064.5	
256.46	6496.2	
256.67	5122.7	
256.88	4073.4	
257.09	4536.3	
257.31	5135.6	
257.52	5132.9	
257.73	5179.3	
257.94	3739.6	
258.15	5302.2	
258.36	5474.9	
258.57	4728.8	
258.78	3004.4	
258.99	5861.3	
259.2	5318.6	
259.41	3724.6	
259.63	3871.3	
259.84	6293.4	
260.05	6774.7	
260.26	4938.3	
260.47	3635.8	
260.68	6054.5	
260.89	5354.8	
261.1	4528.1	
261.31	3571.7	
261.52	6018.3	
261.73	6388.3	
261.95	4810.7	
262.16	4268	
262.37	6117.3	
262.58	6242.9	
262.79	4840	
263	3804.4	
263.21	5446.2	
263.42	4978.6	
263.63	3799.7	
263.84	3808.5	
264.05	5992.4	
264.26	6420.4	
264.47	4633.9	
264.69	4212	
264.9	6133.7	
265.11	5701.5	
265.32	3618.8	
265.53	3751.2	
265.74	5586.9	
265.95	4916.5	
266.16	4013.3	
266.37	4435.9	
266.58	5558.9	
266.79	5292.6	
267	3767.6	
267.21	3418.7	
267.42	4986.8	
267.63	5450.3	
267.84	3920.5	
268.06	3357.3	
268.27	5902.2	
268.48	6232	
268.69	3846.8	
268.9	4543.8	
269.11	6151.4	
269.32	4943.8	
269.53	3921.2	
269.74	3622.9	
269.95	5746.6	
270.16	4775.9	
270.37	3941	
270.58	4571.1	
270.79	5308.3	
271	5993.7	
271.21	4257	
271.42	3956.7	
271.63	5593	
271.84	5122.7	
272.05	3145.7	
272.26	3495.9	
272.47	5465.3	
272.68	5643.5	
272.89	3774.4	
273.11	4372.4	
273.32	5253	
273.53	6410.8	
273.74	4262.5	
273.95	4141	
274.16	6122.1	
274.37	5502.2	
274.58	4283	
274.79	3410.6	
275	5524.1	
275.21	6135	
275.42	5229.1	
275.63	4426.3	
275.84	5689.9	
276.05	7215.7	
276.26	4178.5	
276.47	3883.6	
276.68	5282.4	
276.89	6505	
277.1	4437.3	
277.31	3488.4	
277.52	5721.3	
277.73	5875.6	
277.94	3420.1	
278.15	3831.1	
278.36	5683.1	
278.57	5102.9	
278.78	3729.4	
278.99	4272.1	
279.2	5066	
279.41	4962.9	
279.62	4876.9	
279.83	3480.9	
280.04	6642.9	
280.25	4977.9	
280.46	4902.8	
280.67	3898.6	
280.88	5066	
281.09	6131.6	
281.3	4126	
281.51	5291.3	
281.72	5918.6	
281.93	5989.6	
282.14	3644.7	
282.35	3964.2	
282.56	5927.5	
282.77	5868.8	
282.98	3803.1	
283.19	4640	
283.4	7220.5	
283.61	5384.8	
283.82	3414	
284.03	4870.1	
284.24	5562.3	
284.45	6124.8	
284.66	4922.6	
284.87	4672.8	
285.08	6032	
285.29	6190.3	
285.5	3258.3	
285.71	3882.9	
285.92	6176	
286.12	6774.7	
286.33	4827.1	
286.54	3831.7	
286.75	5922.7	
286.96	5328.1	
287.17	3456.3	
287.38	4775.9	
287.59	5077.6	
287.8	5003.9	
288.01	3910.9	
288.22	4410	
288.43	6023.1	
288.64	5030.5	
288.85	4562.9	
289.06	4339	
289.27	5854.5	
289.48	6406.7	
289.69	4840	
289.9	4391.5	
290.11	6169.8	
290.32	5142.4	
290.53	4625	
290.74	4249.5	
290.94	5866.7	
291.15	5985.5	
291.36	3706.1	
291.57	4455.7	
291.78	5231.2	
291.99	4869.4	
292.2	3511.6	
292.41	4274.1	
292.62	6049.7	
292.83	5799.2	
293.04	5282.4	
293.25	3564.8	
293.46	5269.4	
293.67	6055.2	
293.88	3664.5	
294.09	3546.4	
294.29	5009.3	
294.5	5593	
294.71	3963.5	
294.92	3788.1	
295.13	5233.9	
295.34	6641.6	
295.55	3343.7	
295.76	3419.4	
295.97	5893.4	
296.18	6694.8	
296.39	3476.8	
296.6	3729.4	
296.81	5531.6	
297.01	5912.5	
297.22	3848.8	
297.43	3650.2	
297.64	5085.8	
297.85	5098.1	
298.06	3091.8	
298.27	3375.1	
298.48	5499.5	
298.69	5156.1	
298.9	3922.5	
299.11	3650.8	
299.31	4972.5	
299.52	4962.9	
299.73	4352.6	
299.94	4164.2	
300.15	5475.6	
300.36	5003.9	
300.57	4234.5	
300.78	4179.9	
300.99	5327.4	
301.2	5612.1	
301.4	3680.2	
301.61	3948.5	
301.82	5802.6	
302.03	5870.8	
302.24	4547.9	
302.45	3491.8	
302.66	5825.1	
302.87	6217	
303.08	3691.8	
303.29	5072.1	
303.49	5210.7	
303.7	5461.2	
303.91	3224.2	
304.12	4823	
304.33	4963.6	
304.54	5586.2	
304.75	3708.9	
304.96	3496.6	
305.16	5834	
305.37	6588.3	
305.58	3211.2	
305.79	3376.4	
306	5769.1	
306.21	4842.1	
306.42	3624.9	
306.63	5689.9	
306.83	5315.8	
307.04	6123.4	
307.25	4090.5	
307.46	4040	
307.67	4637.3	
307.88	5945.9	
308.09	3656.3	
308.29	3760.8	
308.5	5573.2	
308.71	6103.6	
308.92	3898	
309.13	3564.1	
309.34	5418.9	
309.55	5410.1	
309.75	4594.3	
309.96	4180.6	
310.17	5870.8	
310.38	5185.5	
310.59	4425.7	
310.8	3490.4	
311.01	5294.7	
311.21	5335.6	
311.42	3481.5	
311.63	3629.7	
311.84	5224.4	
312.05	5610.8	
312.26	4070.7	
312.46	4539.7	
312.67	5330.2	
312.88	4967	
313.09	3583.9	
313.3	3523.2	
313.51	6305	
313.71	6660	
313.92	3532.1	
314.13	3755.3	
314.34	5617.6	
314.55	5349.3	
314.76	4549.9	
314.96	4025.6	
315.17	5511.1	
315.38	6010.8	
315.59	3531.4	
315.8	3415.3	
316.01	6351.4	
316.21	6358.9	
316.42	3427.6	
316.63	3921.2	
316.84	5401.2	
317.05	6175.3	
317.26	4206.5	
317.46	3796.9	
317.67	5370.5	
317.88	5872.2	
318.09	4499.4	
318.3	3257.6	
318.5	5213.4	
318.71	5752.1	
318.92	5761.6	
319.13	4200.4	
319.34	5984.8	
319.54	6181.5	
319.75	3318.4	
319.96	3188.7	
320.17	5856.5	
320.38	6090	
320.58	3195.5	
320.79	3865.9	
321	6085.2	
321.21	6254.5	
321.42	3930.7	
321.62	3247.4	
321.83	5019.6	
322.04	5477	
322.25	3804.4	
322.46	3593.5	
322.66	5544.5	
322.87	5725.4	
323.08	4418.2	
323.29	3531.4	
323.5	6494.1	
323.7	4966.3	
323.91	4872.1	
324.12	4363.5	
324.33	5535	
324.53	5842.2	
324.74	4226.3	
324.95	4476.2	
325.16	4875.5	
325.37	5297.4	
325.57	3586.7	
325.78	3654.3	
325.99	5552.7	
326.2	4966.3	
326.4	5198.4	
326.61	3266.5	
326.82	5401.2	
327.03	5558.9	
327.24	5107.6	
327.44	4853	
327.65	5744.6	
327.86	4634.6	
328.07	4193.6	
328.27	3425.6	
328.48	6139.8	
328.69	5082.4	
328.9	5191.6	
329.1	3815.4	
329.31	5380	
329.52	6248.4	
329.73	3581.2	
329.93	4027	
330.14	5393.7	
330.35	5737	
330.56	5874.9	
330.76	4442.7	
330.97	5285.8	
331.18	5741.8	
331.39	4000.4	
331.59	3176.4	
331.8	6056.5	
332.01	6189.6	
332.22	3692.5	
332.42	4201.7	
332.63	5632.6	
332.84	5211.4	
333.05	4008.6	
333.25	3669.3	
333.46	5223	
333.67	5509	
333.88	3718.4	
334.08	4139.6	
334.29	7301	
334.5	6140.5	
334.7	3493.8	
334.91	5158.8	
335.12	5024.3	
335.33	5897.5	
335.53	3964.9	
335.74	5991.7	
335.95	5207.3	
336.16	5124.7	
336.36	3939.6	
336.57	4564.9	
336.78	4975.9	
336.98	6068.1	
337.19	4940.4	
337.4	3880.9	
337.61	6585.6	
337.81	4954	
338.02	3646.7	
338.23	4801.8	
338.43	6275	
338.64	5113.1	
338.85	3586.7	
339.05	4751.3	
339.26	6369.9	
339.47	4916.5	
339.68	3605.8	
339.88	5367.7	
340.09	5734.3	
340.3	5967.1	
340.5	4173.8	
340.71	3224.2	
340.92	4936.3	
341.13	6142.5	
341.33	3505.4	
341.54	4201.7	
341.75	5716.6	
341.95	5382.1	
342.16	4023.6	
342.37	4375.1	
342.57	5027.8	
342.78	5466.7	
342.99	4498.7	
343.19	3225.6	
343.4	5936.4	
343.61	5727.5	
343.81	3834.5	
344.02	3510.2	
344.23	5909.1	
344.43	6312.5	
344.64	4496	
344.85	4365.6	
345.06	5745.2	
345.26	6093.4	
345.47	4124.6	
345.68	4939.7	
345.88	4814.1	
346.09	5956.9	
346.3	4250.2	
346.5	3241.3	
346.71	5448.3	
346.92	5143.8	
347.12	3255.6	
347.33	4094.6	
347.54	6091.3	
347.74	6504.3	
347.95	4159.4	
348.16	3112.2	
348.36	5276.9	
348.57	4935.6	
348.78	4025.6	
348.98	4412	
349.19	5367.7	
349.39	4922	
349.6	3272.7	
349.81	3617.4	
350.01	5673.6	
350.22	5221.6	
350.43	3973.7	
350.63	4829.1	
350.84	5496.7	
351.05	5281.7	
351.25	3579.8	
351.46	3235.1	
351.67	6008.7	
351.87	5126.7	
352.08	3870.7	
352.29	4394.3	
352.49	5965.7	
352.7	5988.9	
352.9	3462.4	
353.11	4399	
353.32	6548.7	
353.52	5290.6	
353.73	3432.4	
353.94	4427.7	
354.14	5688.6	
354.35	5642.2	
354.55	3474	
354.76	3960.8	
354.97	5651.7	
355.17	5479	
355.38	3293.8	
355.59	4668	
355.79	5140.4	
356	5571.8	
356.2	3859.1	
356.41	3449.5	
356.62	4852.3	
356.82	5325.4	
357.03	4201.7	
357.24	3741.6	
357.44	5136.3	
357.65	5324	
357.85	5061.2	
358.06	3938.9	
358.27	4862.6	
358.47	5074.2	
358.68	3291.1	
358.88	4200.4	
359.09	5634.6	
359.3	6085.2	
359.5	4921.3	
359.71	4336.2	
359.91	6594.5	
360.12	5860.6	
360.33	4158.1	
360.53	4638	
360.74	5089.9	
360.94	5202.5	
361.15	4375.1	
361.36	3613.3	
361.56	5940.5	
361.77	5390.9	
361.97	4852.3	
362.18	3840.6	
362.38	5976	
362.59	4935.6	
362.8	3517.7	
363	3386.7	
363.21	4764.3	
363.41	5455.1	
363.62	4078.9	
363.83	5145.2	
364.03	5532.2	
364.24	6584.2	
364.44	5144.5	
364.65	5144.5	
364.85	5317.2	
365.06	5193	
365.27	3702.7	
365.47	3767.6	
365.68	6337.1	
365.88	5205.9	
366.09	4076.1	
366.29	3790.1	
366.5	5553.4	
366.71	5959.6	
366.91	5068.7	
367.12	4262.5	
367.32	6576.7	
367.53	5798.5	
367.73	4168.3	
367.94	5123.3	
368.14	5743.9	
368.35	6674.3	
368.56	4178.5	
368.76	3555.3	
368.97	5842.2	
369.17	7561.8	
369.38	3681.6	
369.58	3941.7	
369.79	4922	
369.99	6223.1	
370.2	4920.6	
370.4	4021.5	
370.61	5517.2	
370.82	6760.3	
371.02	3891.1	
371.23	3207.1	
371.43	4805.9	
371.64	6187.6	
371.84	3988.1	
372.05	5168.4	
372.25	7481.9	
372.46	5881.8	
372.66	3975.1	
372.87	3880.9	
373.07	5920	
373.28	7540.6	
373.48	4967.7	
373.69	4599.7	
373.9	5351.3	
374.1	5388.9	
374.31	4917.2	
374.51	4347.8	
374.72	6234.7	
374.92	5089.9	
375.13	5037.3	
375.33	4240.7	
375.54	5808.7	
375.74	5167.7	
375.95	4263.2	
376.15	5548.6	
376.36	5703.6	
376.56	5634.6	
376.77	4308.2	
376.97	4734.9	
377.18	6824.5	
377.38	5821	
377.59	5149.3	
377.79	3814.7	
378	5567.7	
378.2	6030.6	
378.41	3892.5	
378.61	3761.4	
378.82	6075.6	
379.02	5178.6	
379.23	3957.4	
379.43	5062.6	
379.64	6178.7	
379.84	5780.7	
380.05	3880.9	
380.25	3798.3	
380.46	5898.8	
380.66	5432.6	
380.87	5122.7	
381.07	5595.1	
381.28	6574	
381.48	5851	
381.69	3873.4	
381.89	3880.2	
382.1	4835.9	
382.3	6025.1	
382.51	5026.4	
382.71	5914.5	
382.91	5952.1	
383.12	6417	
383.32	4272.7	
383.53	4513.7	
383.73	5729.5	
383.94	5528.8	
384.14	4384.7	
384.35	3584.6	
384.55	5492.7	
384.76	5923.4	
384.96	4247.5	
385.17	4607.2	
385.37	5855.1	
385.58	5163.6	
385.78	4583.4	
385.98	3487.7	
386.19	5356.1	
386.39	5758.9	
386.6	4047.5	
386.8	4255.7	
387.01	5929.6	
387.21	5933	
387.42	4663.2	
387.62	5281	
387.83	5240.1	
388.03	5849.7	
388.23	4335.5	
388.44	5148.6	
388.64	4939	
388.85	5044.1	
389.05	4643.4	
389.26	5274.2	
389.46	6924.9	
389.67	6266.8	
389.87	4605.9	
390.07	4713.7	
390.28	5538.4	
390.48	5124	
390.69	3858.4	
390.89	4131.4	
391.1	5208.7	
391.3	6270.9	
391.5	5405.3	
391.71	5987.6	
391.91	5926.8	
392.12	7062.1	
392.32	5496.7	
392.53	4592.9	
392.73	5349.3	
392.93	5558.9	
393.14	4377.2	
393.34	5171.8	
393.55	6047	
393.75	5581.4	
393.95	4313	
394.16	4214	
394.36	5265.3	
394.57	5989.6	
394.77	3819.5	
394.98	4276.8	
395.18	5190.2	
395.38	5365.7	
395.59	5094.7	
395.79	4017.4	
396	5335	
396.2	5799.2	
396.4	4898.1	
396.61	4788.8	
396.81	6047.7	
397.02	5327.4	
397.22	5077.6	
397.42	5158.2	
397.63	6016.9	
397.83	5229.1	
398.04	4012	
398.24	4456.4	
398.44	5751.4	
398.65	4909.7	
398.85	3841.3	
399.05	3927.3	
399.26	5201.2	
399.46	6903	
399.67	4271.4	
399.87	4004.5	
400.07	5553.4	
400.28	5929.6	
400.48	4162.2	
400.69	5152	
400.89	6151.4	
401.09	6603.3	
401.3	3956.7	
401.5	5085.8	
401.7	6827.9	
401.91	7007.5	
402.11	4349.2	
402.32	4549.2	
402.52	6151.4	
402.72	6070.9	
402.93	4712.4	
403.13	3614.7	
403.33	6853.2	
403.54	5668.1	
403.74	4502.8	
403.94	5418.9	
404.15	5726.1	
404.35	6868.2	
404.56	4317.8	
404.76	6160.3	
404.96	6130.3	
405.17	5928.2	
405.37	5309	
405.57	4756.1	
405.78	6135	
405.98	5622.4	
406.18	4304.1	
406.39	5233.2	
406.59	6179.4	
406.79	5750.7	
407	4057.7	
407.2	4189.5	
407.4	6118.6	
407.61	6358.9	
407.81	4175.8	
408.01	6490	
408.22	5097.4	
408.42	7293.5	
408.62	5264	
408.83	4709.6	
409.03	5705.6	
409.23	5508.4	
409.44	4812	
409.64	5075.5	
409.84	6633.4	
410.05	6476.4	
410.25	4790.9	
410.45	4616.1	
410.66	5881.8	
410.86	8469	
411.06	5025.7	
411.27	4937	
411.47	8158.4	
411.67	6107	
411.88	5101.5	
412.08	5330.2	
412.28	6758.3	
412.49	7241.6	
412.69	4869.4	
412.89	4868	
413.09	7055.9	
413.3	6904.4	
413.5	4961.5	
413.7	4594.3	
413.91	6152.8	
414.11	7063.4	
414.31	4796.3	
414.52	5192.3	
414.72	6711.9	
414.92	6582.2	
415.12	4718.5	
415.33	5330.2	
415.53	6968.6	
415.73	7139.2	
415.94	5693.4	
416.14	5146.5	
416.34	6000.5	
416.55	5688.6	
416.75	6319.3	
416.95	5692	
417.15	6993.1	
417.36	7729	
417.56	6477.7	
417.76	5531.6	
417.97	7337.2	
418.17	7023.2	
418.37	5087.2	
418.57	5252.4	
418.78	6759	
418.98	6468.9	
419.18	6053.1	
419.38	5970.5	
419.59	6549.4	
419.79	6162.3	
419.99	5114.5	
420.2	5492.7	
420.4	6985.6	
420.6	7273.7	
420.8	5058.5	
421.01	4872.1	
421.21	6797.2	
421.41	7013.6	
421.61	5355.4	
421.82	5114.5	
422.02	6344.6	
422.22	7328.3	
422.42	5909.8	
422.63	5543.2	
422.83	6496.2	
423.03	7647.8	
423.23	5621	
423.44	4571.1	
423.64	6556.2	
423.84	6317.3	
424.04	5071.5	
424.25	4718.5	
424.45	7513.3	
424.65	7456	
424.85	4476.2	
425.06	5025.7	
425.26	7456.7	
425.46	6439.5	
425.66	5548.6	
425.87	5308.3	
426.07	7307.8	
426.27	7128.3	
426.47	5398.4	
426.67	4802.5	
426.88	7567.2	
427.08	7043.6	
427.28	5598.5	
427.48	4758.1	
427.69	5992.4	
427.89	6630.6	
428.09	5617.6	
428.29	4780	
428.5	7321.5	
428.7	6873.7	
428.9	4612.7	
429.1	5249.6	
429.3	6726.9	
429.51	7166.5	
429.71	5010	
429.91	5761.6	
430.11	6922.8	
430.31	7283.9	
430.52	5296.7	
430.72	5636.7	
430.92	7643.7	
431.12	7027.3	
431.32	4896.7	
431.53	5360.9	
431.73	5992.4	
431.93	7697.6	
432.13	4883	
432.33	4742.4	
432.54	6503	
432.74	6901.7	
432.94	4703.5	
433.14	5743.2	
433.34	7064.8	
433.55	6488	
433.75	5737.7	
433.95	7536.5	
434.15	6783.6	
434.35	6442.9	
434.56	4891.2	
434.76	4414.1	
434.96	6770.6	
435.16	7092.8	
435.36	4761.5	
435.56	6008.1	
435.77	6393.8	
435.97	6602	
436.17	6591	
436.37	5832.6	
436.57	6425.2	
436.78	6270.9	
436.98	6442.2	
437.18	6398.5	
437.38	7045.7	
437.58	6627.2	
437.78	6576.7	
437.99	5215.5	
438.19	7118.1	
438.39	7894.2	
438.59	5129.5	
438.79	4679.6	
438.99	7838.3	
439.2	6655.2	
439.4	4817.5	
439.6	4756.7	
439.8	6944.7	
440	8069.7	
440.2	5780.1	
440.4	6029.9	
440.61	7395.2	
440.81	8010.3	
441.01	4972.5	
441.21	5875.6	
441.41	7843.7	
441.61	7317.4	
441.81	6164.4	
442.02	7268.9	
442.22	8181.6	
442.42	7419.8	
442.62	5021.6	
442.82	5117.9	
443.02	7701.7	
443.22	6819.1	
443.43	5533.6	
443.63	5024.3	
443.83	6676.4	
444.03	6761	
444.23	6298.9	
444.43	5920	
444.63	6972.7	
444.83	8215.1	
445.04	5197.7	
445.24	6465.4	
445.44	7383.6	
445.64	7488.1	
445.84	6031.3	
446.04	5993	
446.24	6742.6	
446.44	7760.4	
446.65	5203.9	
446.85	5663.3	
447.05	6864.8	
447.25	7707.2	
447.45	5657.2	
447.65	5070.8	
447.85	7054.6	
448.05	6747.4	
448.25	6197.2	
448.46	5880.4	
448.66	7043.6	
448.86	6853.9	
449.06	4883	
449.26	6199.2	
449.46	7471	
449.66	6443.6	
449.86	5579.3	
450.06	5576.6	
450.26	6656.6	
450.47	7296.9	
450.67	5880.4	
450.87	6172.6	
451.07	7404.8	
451.27	7187	
451.47	5214.1	
451.67	5740.5	
451.87	6797.9	
452.07	8041.7	
452.27	5387.5	
452.47	5405.3	
452.67	7197.9	
452.88	7766.6	
453.08	4747.2	
453.28	6780.1	
453.48	8393.9	
453.68	7065.5	
453.88	5358.2	
454.08	5569.8	
454.28	7499.7	
454.48	7150.8	
454.68	6180.1	
454.88	6718.7	
455.08	7658.7	
455.28	7352.2	
455.48	5176.6	
455.68	5888.6	
455.89	8071	
456.09	7776.8	
456.29	5545.2	
456.49	5648.3	
456.69	7961.8	
456.89	7269.6	
457.09	6194.4	
457.29	6509.1	
457.49	7588.4	
457.69	7787.7	
457.89	5964.4	
458.09	5369.1	
458.29	7354.3	
458.49	8109.3	
458.69	6393.8	
458.89	5848.3	
459.09	8291.5	
459.29	8434.2	
459.49	5932.3	
459.69	6760.3	
459.9	7877.2	
460.1	7267.6	
460.3	5846.3	
460.5	5608	
460.7	7773.4	
460.9	7582.9	
461.1	5279	
461.3	6627.2	
461.5	8526.4	
461.7	8115.4	
461.9	5722.7	
462.1	6198.5	
462.3	7643.7	
462.5	8226.7	
462.7	5769.1	
462.9	5932.3	
463.1	9249.3	
463.3	8887.5	
463.5	6130.3	
463.7	7045.7	
463.9	7851.9	
464.1	8252.6	
464.3	6280.4	
464.5	6485.9	
464.7	8491.6	
464.9	8108.6	
465.1	7876.5	
465.3	6774.7	
465.5	8861.6	
465.7	8877.3	
465.9	7111.9	
466.1	6978.8	
466.3	8596.7	
466.5	8464.9	
466.7	7932.5	
466.9	6707.8	
467.1	8377.6	
467.3	9361.9	
467.5	7806.9	
467.7	6659.3	
467.9	9592	
468.1	10535	
468.3	7496.2	
468.5	7899.7	
468.7	8342.1	
468.9	8310.7	
469.1	6825.2	
469.3	7643.7	
469.5	10424	
469.7	7931.8	
469.9	7411.6	
470.1	6668.2	
470.3	8356.4	
470.5	8471.1	
470.7	7946.1	
470.9	6758.3	
471.1	8126.3	
471.3	8568.7	
471.5	6530.3	
471.69	8555.7	
471.89	8019.2	
472.09	7418.4	
472.29	7403.4	
472.49	7788.4	
472.69	7706.5	
472.89	8654	
473.09	6478.4	
473.29	6712.6	
473.49	7959.8	
473.69	8141.4	
473.89	7637.6	
474.09	6832	
474.29	9397.4	
474.49	9111.4	
474.69	7670.3	
474.89	7015.7	
475.09	8193.2	
475.29	8172.8	
475.49	6374	
475.69	6613.6	
475.88	9805.7	
476.08	8456.1	
476.28	6303.6	
476.48	6739.2	
476.68	8862.9	
476.88	8763.3	
477.08	6564.4	
477.28	6939.9	
477.48	8318.8	
477.68	9045.2	
477.88	6460	
478.08	6791.7	
478.28	9262.3	
478.48	8427.4	
478.67	6894.8	
478.87	6324.8	
479.07	9086.8	
479.27	8527.7	
479.47	7154.2	
479.67	7096.2	
479.87	8899.1	
480.07	9460.3	
480.27	6326.9	
480.47	8045.1	
480.67	8581.7	
480.87	9227.5	
481.06	6649.1	
481.26	7440.3	
481.46	8513.4	
481.66	8471.1	
481.86	7062.8	
482.06	8143.4	
482.26	8296.3	
482.46	9268.4	
482.66	7160.4	
482.86	6690	
483.05	8699.1	
483.25	8058.8	
483.45	9566.7	
483.65	7134.4	
483.85	8155.7	
484.05	8533.9	
484.25	7598	
484.45	8102.4	
484.65	9456.2	
484.84	9475.3	
485.04	7043	
485.24	7093.5	
485.44	9589.3	
485.64	8037.6	
485.84	6368.5	
486.04	7819.1	
486.24	8402.8	
486.44	8822	
486.63	6287.9	
486.83	7158.3	
487.03	8393.3	
487.23	8563.9	
487.43	6481.1	
487.63	8902.5	
487.83	8584.4	
488.02	9768.1	
488.22	7527.7	
488.42	8076.5	
488.62	9437	
488.82	8407.6	
489.02	7074.4	
489.22	7263.5	
489.41	9372.2	
489.61	9043.8	
489.81	6882.5	
490.01	6903.7	
490.21	9261.6	
490.41	9978.4	
490.61	6834.1	
490.8	7002	
491	8770.8	
491.2	8062.2	
491.4	7656.7	
491.6	6753.5	
491.8	8789.9	
491.99	8979.7	
492.19	6634.1	
492.39	7025.2	
492.59	9513.5	
492.79	9524.4	
492.99	7919.5	
493.18	7021.8	
493.38	9555.1	
493.58	10430	
493.78	7782.3	
493.98	7379.5	
494.18	9346.9	
494.37	8829.5	
494.57	8061.5	
494.77	7856	
494.97	9595.4	
495.17	9893.1	
495.37	7443.7	
495.56	7845.8	
495.76	10004	
495.96	9677.3	
496.16	8708.6	
496.36	7643.7	
496.55	9828.2	
496.75	9344.9	
496.95	7989.1	
497.15	7942.7	
497.35	9780.4	
497.54	9691	
497.74	7781.6	
497.94	9441.1	
498.14	10563	
498.34	10452	
498.53	7488.7	
498.73	8292.9	
498.93	9316.9	
499.13	9888.3	
499.33	8092.2	
499.52	8582.4	
499.72	9916.3	
499.92	10135	
500.12	7751.6	
500.32	8067.6	
500.51	10111	
500.71	9903.3	
500.91	8843.1	
501.11	8406.2	
501.31	10090	
501.5	10488	
501.7	9042.5	
501.9	8047.2	
502.1	9865.7	
502.29	10123	
502.49	8475.9	
502.69	8980.3	
502.89	10022	
503.09	10134	
503.28	7597.3	
503.48	7699.7	
503.68	9202.2	
503.88	9309.4	
504.07	8718.2	
504.27	8146.8	
504.47	9651.4	
504.67	9799.5	
504.86	8626	
505.06	8260.1	
505.26	9276.6	
505.46	11204	
505.65	8111.3	
505.85	8316.1	
506.05	9260.9	
506.25	9743.6	
506.44	7452.6	
506.64	8488.1	
506.84	9160.6	
507.04	10109	
507.23	7672.4	
507.43	8322.3	
507.63	11259	
507.83	9521.7	
508.02	8198.7	
508.22	7866.9	
508.42	11422	
508.62	9219.3	
508.81	8209.6	
509.01	8770.1	
509.21	9082.1	
509.4	9435	
509.6	8343.4	
509.8	7840.3	
510	9380.4	
510.19	10928	
510.39	7806.9	
510.59	7830.7	
510.79	9150.3	
510.98	10533	
511.18	7794.6	
511.38	7958.4	
511.57	9919	
511.77	9923.1	
511.97	8770.1	
512.17	7630.7	
512.36	10122	
512.56	10021	
512.76	7814.4	
512.95	7540.6	
513.15	10249	
513.35	8892.3	
513.55	8715.5	
513.74	7834.8	
513.94	10284	
514.14	9549.7	
514.33	8783.1	
514.53	8544.8	
514.73	9446.6	
514.92	9740.1	
515.12	7977.5	
515.32	7824.6	
515.51	9809.1	
515.71	10379	
515.91	9467.1	
516.11	7951.6	
516.3	11612	
516.5	9470.5	
516.7	8486.8	
516.89	9148.3	
517.09	9683.5	
517.29	9546.3	
517.48	8871.1	
517.68	8251.3	
517.88	9330.5	
518.07	10022	
518.27	8815.8	
518.47	7800.7	
518.66	10606	
518.86	9162.6	
519.06	7684	
519.25	8114.7	
519.45	9632.3	
519.65	11104	
519.84	8646.5	
520.04	9513.5	
520.24	11308	
520.43	10159	
520.63	8430.1	
520.83	8166.6	
521.02	9383.8	
521.22	10065	
521.42	8727.1	
521.61	9372.9	
521.81	9682.8	
522.01	9878	
522.2	8701.1	
522.4	8470.4	
522.6	10415	
522.79	9291.6	
522.99	8572.1	
523.18	8006.2	
523.38	10220	
523.58	10217	
523.77	10011	
523.97	7991.2	
524.17	12180	
524.36	11353	
524.56	9397.4	
524.76	9041.1	
524.95	10391	
525.15	9888.3	
525.34	8829.5	
525.54	8889.5	
525.74	10623	
525.93	9682.1	
526.13	10091	
526.33	8823.3	
526.52	11049	
526.72	10573	
526.91	10193	
527.11	9532.6	
527.31	11271	
527.5	11569	
527.7	9415.2	
527.89	8447.2	
528.09	10157	
528.29	10741	
528.48	9952.4	
528.68	9569.5	
528.87	11114	
529.07	11186	
529.27	9236.3	
529.46	8639	
529.66	10471	
529.85	11049	
530.05	8529.1	
530.25	9367.4	
530.44	12155	
530.64	10729	
530.83	9095	
531.03	9432.3	
531.23	11148	
531.42	11157	
531.62	10256	
531.81	9476	
532.01	11469	
532.21	11887	
532.4	9250.7	
532.6	9708.7	
532.79	12345	
532.99	11465	
533.18	9660.3	
533.38	10638	
533.58	11015	
533.77	11853	
533.97	9667.8	
534.16	10628	
534.36	12029	
534.55	11056	
534.75	10652	
534.95	9622	
535.14	12028	
535.34	11070	
535.53	9346.9	
535.73	11450	
535.92	12435	
536.12	11241	
536.31	9442.5	
536.51	10699	
536.71	11659	
536.9	11116	
537.1	9676	
537.29	9777.7	
537.49	12106	
537.68	11127	
537.88	10249	
538.07	9475.3	
538.27	11359	
538.46	12518	
538.66	9402.2	
538.86	9883.5	
539.05	11440	
539.25	11685	
539.44	10074	
539.64	9640.5	
539.83	11123	
540.03	12293	
540.22	9541.5	
540.42	9573.6	
540.61	11454	
540.81	11602	
541	10112	
541.2	10796	
541.39	10994	
541.59	11391	
541.78	10426	
541.98	9435.7	
542.18	10579	
542.37	10649	
542.57	9800.9	
542.76	10432	
542.96	10630	
543.15	11419	
543.35	9935.4	
543.54	9134.6	
543.74	11669	
543.93	11151	
544.13	9895.8	
544.32	10887	
544.52	11574	
544.71	10831	
544.91	8947.6	
545.1	10197	
545.3	10738	
545.49	11467	
545.69	8893.6	
545.88	9531.9	
546.08	12469	
546.27	12114	
546.47	10062	
546.66	9348.3	
546.86	11706	
547.05	12421	
547.24	9534.7	
547.44	9441.1	
547.63	10642	
547.83	11875	
548.02	9816.6	
548.22	9955.2	
548.41	10436	
548.61	11742	
548.8	9316.2	
549	9256.8	
549.19	11060	
549.39	11452	
549.58	8960.5	
549.78	9558.6	
549.97	11490	
550.17	10968	
550.36	10337	
550.55	11575	
550.75	11055	
550.94	11901	
551.14	9225.4	
551.33	9598.8	
551.53	10393	
551.72	11362	
551.92	9640.5	
552.11	9445.2	
552.31	11327	
552.5	11554	
552.69	11079	
552.89	9022	
553.08	11346	
553.28	11130	
553.47	9399.5	
553.67	10699	
553.86	12011	
554.06	10357	
554.25	8630.1	
554.44	9171.5	
554.64	12725	
554.83	12286	
555.03	9101.2	
555.22	9596.8	
555.42	11499	
555.61	11271	
555.8	9418.6	
556	9594.7	
556.19	10426	
556.39	11644	
556.58	9402.2	
556.78	9437.7	
556.97	11138	
557.16	10887	
557.36	10759	
557.55	9042.5	
557.75	10097	
557.94	11973	
558.13	9138.7	
558.33	8859.5	
558.52	11774	
558.72	10686	
558.91	9029.5	
559.1	9291.6	
559.3	10230	
559.49	9983.2	
559.69	8596	
559.88	9596.1	
560.07	11014	
560.27	11586	
560.46	9781.1	
560.66	9912.2	
560.85	10829	
561.04	10010	
561.24	8894.3	
561.43	9138.7	
561.63	10412	
561.82	10674	
562.01	10600	
562.21	9600.2	
562.4	11120	
562.59	12213	
562.79	9470.5	
562.98	9058.2	
563.18	11010	
563.37	12678	
563.56	9856.2	
563.76	8965.3	
563.95	10572	
564.14	10519	
564.34	9385.2	
564.53	9240.4	
564.73	11077	
564.92	11520	
565.11	9664.4	
565.31	8958.5	
565.5	11750	
565.69	10679	
565.89	9101.2	
566.08	9584.5	
566.27	11584	
566.47	12040	
566.66	10118	
566.85	8812.4	
567.05	11073	
567.24	10555	
567.44	9211.8	
567.63	10589	
567.82	11407	
568.02	11153	
568.21	9209.7	
568.4	9598.8	
568.6	10933	
568.79	11105	
568.98	9061.6	
569.18	9348.3	
569.37	11072	
569.56	13132	
569.76	9539.4	
569.95	10522	
570.14	11399	
570.34	11415	
570.53	9011.7	
570.72	9011.7	
570.91	11850	
571.11	10966	
571.3	9527.8	
571.49	10621	
571.69	11073	
571.88	10634	
572.07	10127	
572.27	10092	
572.46	10609	
572.65	11686	
572.85	9388.6	
573.04	9743.6	
573.23	11984	
573.43	11195	
573.62	9222.7	
573.81	9912.9	
574	11291	
574.2	11241	
574.39	9661.6	
574.58	9768.1	
574.78	12258	
574.97	11441	
575.16	10200	
575.36	10324	
575.55	11823	
575.74	11917	
575.93	9260.2	
576.13	10180	
576.32	11163	
576.51	11845	
576.71	9669.1	
576.9	11155	
577.09	12170	
577.28	11673	
577.48	10214	
577.67	9127.8	
577.86	11316	
578.05	11701	
578.25	9910.8	
578.44	9981.1	
578.63	11475	
578.83	12678	
579.02	9325.8	
579.21	10891	
579.4	11643	
579.6	11348	
579.79	10065	
579.98	12473	
580.17	12170	
580.37	12060	
580.56	9553.8	
580.75	10316	
580.94	12620	
581.14	12485	
581.33	10904	
581.52	9712.2	
581.71	12039	
581.91	12619	
582.1	9502.6	
582.29	10093	
582.48	11662	
582.68	11597	
582.87	10582	
583.06	10192	
583.25	11913	
583.45	11312	
583.64	11028	
583.83	11708	
584.02	11447	
584.21	11979	
584.41	10974	
584.6	10162	
584.79	11720	
584.98	12571	
585.18	9636.4	
585.37	9681.4	
585.56	11240	
585.75	11997	
585.94	9835	
586.14	10462	
586.33	12601	
586.52	11654	
586.71	10206	
586.91	9982.5	
587.1	10888	
587.29	12314	
587.48	9869.8	
587.67	9824.8	
587.87	11836	
588.06	11968	
588.25	11012	
588.44	10280	
588.63	11269	
588.83	11900	
589.02	9564.7	
589.21	9417.9	
589.4	10772	
589.59	10630	
589.78	8407.6	
589.98	8701.1	
590.17	10121	
590.36	10836	
590.55	8132.5	
590.74	8905.3	
590.94	12117	
591.13	10793	
591.32	8843.1	
591.51	8386.4	
591.7	11303	
591.89	10744	
592.09	8574.2	
592.28	8993.3	
592.47	9921.7	
592.66	11841	
592.85	8487.5	
593.05	8901.8	
593.24	10596	
593.43	11485	
593.62	8859.5	
593.81	9388.6	
594	10694	
594.19	10940	
594.39	8744.8	
594.58	8728.4	
594.77	10994	
594.96	11550	
595.15	8593.3	
595.34	9293	
595.54	10976	
595.73	10043	
595.92	7993.9	
596.11	9265	
596.3	11428	
596.49	10239	
596.68	8966.7	
596.88	9527.8	
597.07	11220	
597.26	10063	
597.45	8432.2	
597.64	9744.2	
597.83	10206	
598.02	10940	
598.22	8600.8	
598.41	9379.7	
598.6	10838	
598.79	10245	
598.98	8656.8	
599.17	9728.5	
599.36	10854	
599.55	12021	
599.74	10884	
599.94	10606	
600.13	11426	
600.32	10194	
600.51	8402.1	
600.7	8617.2	
600.89	12009	
601.08	12097	
601.27	8500.4	
601.47	9550.4	
601.66	11327	
601.85	12101	
602.04	9081.4	
602.23	9377	
602.42	10316	
602.61	11029	
602.8	9148.3	
602.99	8847.9	
603.18	10650	
603.37	11151	
603.57	9484.1	
603.76	10088	
603.95	11818	
604.14	11338	
604.33	9003.6	
604.52	9389.9	
604.71	10972	
604.9	10637	
605.09	9856.2	
605.28	9815.9	
605.47	11554	
605.66	11241	
605.86	9561.3	
606.05	9019.3	
606.24	11537	
606.43	10107	
606.62	9374.2	
606.81	10204	
607	11433	
607.19	10702	
607.38	8779	
607.57	8980.3	
607.76	10490	
607.95	9968.1	
608.14	9361.3	
608.33	10045	
608.52	10555	
608.72	11392	
608.91	8633.6	
609.1	8528.4	
609.29	10657	
609.48	10058	
609.67	9573.6	
609.86	8551	
610.05	10197	
610.24	10448	
610.43	8444.5	
610.62	8162.5	
610.81	11740	
611	11452	
611.19	8621.3	
611.38	9322.4	
611.57	10889	
611.76	12205	
611.95	8367.3	
612.14	8231.5	
612.33	10701	
612.52	10133	
612.71	8912.8	
612.9	8152.3	
613.09	9798.8	
613.28	12205	
613.47	8733.9	
613.66	9654.1	
613.85	10769	
614.04	10296	
614.24	8833.6	
614.43	8000	
614.62	11044	
614.81	10867	
615	9432.9	
615.19	9427.5	
615.38	10180	
615.57	10643	
615.76	9183.8	
615.95	10228	
616.14	11035	
616.33	10599	
616.52	9664.4	
616.71	9863	
616.9	10938	
617.09	10949	
617.28	8994.7	
617.47	10335	
617.66	10157	
617.85	10196	
618.04	10051	
618.22	9467.8	
618.41	10507	
618.6	11513	
618.79	9320.3	
618.98	9080.7	
619.17	11902	
619.36	10151	
619.55	9228.1	
619.74	9320.3	
619.93	11067	
620.12	10540	
620.31	9932	
620.5	10032	
620.69	12149	
620.88	12214	
621.07	10852	
621.26	9865.1	
621.45	11395	
621.64	11343	
621.83	10016	
622.02	9087.5	
622.21	11572	
622.4	11202	
622.59	10557	
622.78	10346	
622.97	10794	
623.16	11941	
623.35	9858.9	
623.54	9058.2	
623.72	10968	
623.91	11150	
624.1	10249	
624.29	8842.4	
624.48	12301	
624.67	11482	
624.86	9997.5	
625.05	9155.1	
625.24	12338	
625.43	10731	
625.62	11985	
625.81	9431.6	
626	11798	
626.19	10992	
626.38	10180	
626.56	9467.8	
626.75	10869	
626.94	11613	
627.13	10052	
627.32	8832.2	
627.51	11510	
627.7	12986	
627.89	8834.3	
628.08	10083	
628.27	10619	
628.46	10910	
628.65	9151	
628.83	8942.8	
629.02	11450	
629.21	10770	
629.4	9532.6	
629.59	10006	
629.78	10785	
629.97	11753	
630.16	10090	
630.35	9548.3	
630.54	12237	
630.72	11868	
630.91	9426.1	
631.1	9983.8	
631.29	11416	
631.48	11556	
631.67	10115	
631.86	9549	
632.05	11019	
632.24	11138	
632.42	9275.3	
632.61	9964.7	
632.8	11163	
632.99	10855	
633.18	9878.7	
633.37	10250	
633.56	11417	
633.75	11266	
633.93	9889.6	
634.12	9620	
634.31	12280	
634.5	11880	
634.69	9649.3	
634.88	10049	
635.07	11159	
635.25	11772	
635.44	10570	
635.63	10843	
635.82	10970	
636.01	10544	
636.2	10503	
636.39	10099	
636.57	12241	
636.76	11869	
636.95	9471.2	
637.14	10977	
637.33	11503	
637.52	12549	
637.7	9291.6	
637.89	10194	
638.08	11058	
638.27	12622	
638.46	10210	
638.65	10682	
638.83	12509	
639.02	10827	
639.21	10129	
639.4	10709	
639.59	11380	
639.78	10939	
639.96	9312.8	
640.15	9396.1	
640.34	11297	
640.53	11361	
640.72	8957.8	
640.91	9394.7	
641.09	10612	
641.28	12031	
641.47	9483.5	
641.66	10293	
641.85	11235	
642.03	11561	
642.22	9968.8	
642.41	9457.5	
642.6	10688	
642.79	10065	
642.97	9110.7	
643.16	9848	
643.35	10641	
643.54	10335	
643.73	8964.6	
643.91	9818.6	
644.1	10005	
644.29	10768	
644.48	8945.5	
644.67	9017.9	
644.85	10185	
645.04	10557	
645.23	8469	
645.42	8733.2	
645.6	9961.3	
645.79	11165	
645.98	8642.4	
646.17	7722.9	
646.36	9555.1	
646.54	10240	
646.73	9364.7	
646.92	8099.7	
647.11	9839.8	
647.29	10848	
647.48	8256.7	
647.67	7940	
647.86	11135	
648.05	11129	
648.23	8632.2	
648.42	9966.8	
648.61	10574	
648.8	10236	
648.98	8337.3	
649.17	8634.2	
649.36	9901.2	
649.55	9313.5	
649.73	8391.2	
649.92	9116.9	
650.11	9710.1	
650.3	10076	
650.48	8400.1	
650.67	8142.7	
650.86	10342	
651.05	9179.7	
651.23	8356.4	
651.42	8390.5	
651.61	9829.6	
651.79	9886.9	
651.98	8634.2	
652.17	8138.6	
652.36	10233	
652.54	9286.2	
652.73	8189.1	
652.92	7989.1	
653.11	10184	
653.29	10195	
653.48	7360.4	
653.67	8404.9	
653.85	9872.6	
654.04	10871	
654.23	8505.9	
654.42	7985	
654.6	9185.8	
654.79	9795.4	
654.98	7300.3	
655.16	7969.3	
655.35	8800.1	
655.54	8895.7	
655.73	7585.7	
655.91	7547.4	
656.1	10136	
656.29	8984.4	
656.47	7252.5	
656.66	9054.1	
656.85	9280.7	
657.03	9347.6	
657.22	7835.5	
657.41	7909.9	
657.59	9407.7	
657.78	9285.5	
657.97	7453.9	
658.16	8369.4	
658.34	10060	
658.53	10501	
658.72	9167.4	
658.9	9793.4	
659.09	9425.4	
659.28	9663	
659.46	8047.8	
659.65	7961.1	
659.84	9349.7	
660.02	9818	
660.21	7864.2	
660.4	7800.7	
660.58	10317	
660.77	9613.2	
660.96	8441.7	
661.14	7428	
661.33	10732	
661.52	10635	
661.7	7402.7	
661.89	11177	
662.08	9182.4	
662.26	8728.4	
662.45	7763.8	
662.64	7840.3	
662.82	9964.1	
663.01	9166.7	
663.2	7814.4	
663.38	8674.5	
663.57	9738.1	
663.75	9673.9	
663.94	8170.7	
664.13	9470.5	
664.31	9123.7	
664.5	9929.2	
664.69	8318.8	
664.87	8994.7	
665.06	8868.4	
665.25	9753.8	
665.43	9126.4	
665.62	9276.6	
665.8	10007	
665.99	9256.8	
666.18	8102.4	
666.36	8209.6	
666.55	9998.9	
666.74	9884.9	
666.92	7688.8	
667.11	9392.7	
667.29	9327.1	
667.48	9892.4	
667.67	8991.9	
667.85	8143.4	
668.04	9352.4	
668.22	9315.5	
668.41	8102.4	
668.6	8434.2	
668.78	9116.9	
668.97	9296.4	
669.15	8519.5	
669.34	7428.7	
669.53	9146.2	
669.71	9434.3	
669.9	7569.3	
670.08	8385.1	
670.27	9172.9	
670.46	9701.9	
670.64	8503.2	
670.83	8818.6	
671.01	8957.8	
671.2	9656.9	
671.38	7767.9	
671.57	7574.1	
671.76	10236	
671.94	10847	
672.13	7555	
672.31	8646.5	
672.5	9917.6	
672.69	9060.2	
672.87	7656.7	
673.06	8037.6	
673.24	9691.7	
673.43	9223.4	
673.61	8459.5	
673.8	8056	
673.98	9853.5	
674.17	10059	
674.36	8720.3	
674.54	8473.1	
674.73	9577	
674.91	9829.6	
675.1	8189.8	
675.28	7819.1	
675.47	9452.1	
675.65	9932.6	
675.84	8102.4	
676.03	8451.3	
676.21	9171.5	
676.4	8675.2	
676.58	8839	
676.77	8688.2	
676.95	10652	
677.14	9103.2	
677.32	7844.4	
677.51	7505.1	
677.69	10010	
677.88	8728.4	
678.06	7639.6	
678.25	7731.1	
678.44	9442.5	
678.62	9202.9	
678.81	7390.4	
678.99	8463.6	
679.18	10316	
679.36	9894.4	
679.55	8111.3	
679.73	8738.7	
679.92	9787.2	
680.1	9183.8	
680.29	9325.8	
680.47	8124.3	
680.66	9141.4	
680.84	10053	
681.03	7318.8	
681.21	8364.6	
681.4	9232.2	
681.58	9095.7	
681.77	7784.3	
681.95	7679.2	
682.14	10045	
682.32	10341	
682.51	8636.3	
682.69	7557.7	
682.88	9009.7	
683.06	9649.3	
683.25	8436.9	
683.43	8882	
683.62	9278.7	
683.8	9704	
683.99	8764.6	
684.17	7947.5	
684.36	10288	
684.54	8817.9	
684.73	6881.9	
684.91	6998.6	
685.1	8994.7	
685.28	8428.8	
685.46	7626	
685.65	7790.5	
685.83	9415.9	
686.02	8870.4	
686.2	7293.5	
686.39	7479.2	
686.57	8695	
686.76	10079	
686.94	7319.4	
687.13	7476.5	
687.31	9271.8	
687.5	8870.4	
687.68	6997.2	
687.86	8316.1	
688.05	10469	
688.23	8430.1	
688.42	8334.6	
688.6	7534.5	
688.79	8886.8	
688.97	8996.7	
689.16	8043.1	
689.34	6884.6	
689.52	9739.5	
689.71	9864.4	
689.89	8288.1	
690.08	7548.1	
690.26	9142.8	
690.45	8977.6	
690.63	8376.2	
690.81	7582.9	
691	8729.1	
691.18	8655.4	
691.37	7755.7	
691.55	9897.8	
691.74	8606.2	
691.92	10860	
692.1	7727.7	
692.29	7131	
692.47	8961.2	
692.66	8215.8	
692.84	7441	
693.02	8130.4	
693.21	8441	
693.39	9015.2	
693.58	8199.4	
693.76	7684	
693.94	10413	
694.13	10183	
694.31	7764.5	
694.5	8927.1	
694.68	9058.2	
694.86	9389.9	
695.05	8241.7	
695.23	8260.8	
695.42	9817.3	
695.6	12133	
695.78	8759.8	
695.97	7727	
696.15	9684.8	
696.34	9047.2	
696.52	7490.8	
696.7	8319.5	
696.89	9358.5	
697.07	8693.6	
697.25	8178.2	
697.44	9850.7	
697.62	9278	
697.81	9685.5	
697.99	7811.6	
698.17	8378.9	
698.36	8570.7	
698.54	9358.5	
698.72	8228.7	
698.91	7110.5	
699.09	8937.3	
699.28	8785.1	
699.46	7873.8	
699.64	7715.4	
699.83	8774.9	
700.01	10065	
700.19	8602.8	
700.38	6985.6	
700.56	10048	
700.74	8927.1	
700.93	7379.5	
701.11	8253.3	
701.29	9534.7	
701.48	10683	
701.66	7697.6	
701.84	7800.7	
702.03	9067.7	
702.21	9656.2	
702.39	7191.8	
702.58	7834.8	
702.76	9504.6	
702.94	9632.3	
703.13	7380.9	
703.31	9861.7	
703.49	8760.5	
703.68	10118	
703.86	7534.5	
704.04	8515.5	
704.23	9302.6	
704.41	9873.9	
704.59	7690.1	
704.78	8961.9	
704.96	10523	
705.14	9835.7	
705.33	7461.4	
705.51	8329.8	
705.69	9097.1	
705.87	10032	
706.06	8575.5	
706.24	7476.5	
706.42	9552.4	
706.61	9834.3	
706.79	8705.9	
706.97	7440.3	
707.16	8910	
707.34	9528.5	
707.52	8566	
707.7	7765.9	
707.89	9259.5	
708.07	8755.7	
708.25	8511.4	
708.44	8865	
708.62	8993.3	
708.8	10127	
708.98	8797.4	
709.17	7778.9	
709.35	9483.5	
709.53	9439.1	
709.72	7489.4	
709.9	7589.8	
710.08	9699.2	
710.26	9697.1	
710.45	9130.5	
710.63	7759.1	
710.81	9344.9	
710.99	9327.8	
711.18	8417.2	
711.36	7761.8	
711.54	9079.3	
711.72	9745.6	
711.91	7813.7	
712.09	7210.2	
712.27	9132.6	
712.45	9710.8	
712.64	8074.5	
712.82	6906.4	
713	8350.9	
713.18	8404.9	
713.37	6840.9	
713.55	8036.9	
713.73	9112.8	
713.91	7501.7	
714.1	6860	
714.28	6238.1	
714.46	8471.1	
714.64	7601.4	
714.83	5595.7	
715.01	6441.5	
715.19	7708.6	
715.37	6957.6	
715.55	6015.6	
715.74	6380.1	
715.92	8649.9	
716.1	6535.1	
716.28	7561.1	
716.47	6490.7	
716.65	7202.7	
716.83	7379.5	
717.01	6477	
717.19	6478.4	
717.38	9554.5	
717.56	7076.4	
717.74	6903.7	
717.92	5950	
718.1	8532.5	
718.29	7777.5	
718.47	5777.3	
718.65	6531.7	
718.83	8628.8	
719.01	8518.9	
719.2	5737.7	
719.38	6859.3	
719.56	8159.8	
719.74	9742.9	
719.92	6219	
720.11	7366.5	
720.29	7971.4	
720.47	7124.2	
720.65	5587.5	
720.83	6455.9	
721.02	7279.2	
721.2	7092.8	
721.38	6541.9	
721.56	5812.1	
721.74	6607.4	
721.92	6753.5	
722.11	7143.3	
722.29	6683.2	
722.47	8077.2	
722.65	7217	
722.83	5780.1	
723.01	6754.9	
723.2	7332.4	
723.38	7656	
723.56	5225.1	
723.74	6461.3	
723.92	6788.3	
724.1	8114.7	
724.29	5696.8	
724.47	6910.5	
724.65	6845	
724.83	6875	
725.01	5656.5	
725.19	6596.5	
725.37	6918.7	
725.56	6956.9	
725.74	5399.1	
725.92	5823.1	
726.1	6769.2	
726.28	7128.3	
726.46	6231.3	
726.64	5929.6	
726.83	7097.6	
727.01	7449.8	
727.19	5449.6	
727.37	6381.5	
727.55	7279.2	
727.73	7746.8	
727.91	5481	
728.09	5299.5	
728.28	7932.5	
728.46	8550.3	
728.64	6589	
728.82	6538.5	
729	9187.2	
729.18	8381	
729.36	5881.1	
729.54	8253.3	
729.72	9575.6	
729.91	7699	
730.09	7886	
730.27	6714.6	
730.45	7677.2	
730.63	8366	
730.81	7329.7	
730.99	6322.1	
731.17	8901.2	
731.35	7453.2	
731.53	6909.8	
731.71	6365.8	
731.9	8521.6	
732.08	8757.8	
732.26	6690.7	
732.44	6412.2	
732.62	8825.4	
732.8	8235.6	
732.98	7081.2	
733.16	6097.5	
733.34	8294.3	
733.52	7043.6	
733.7	6631.3	
733.88	6986.3	
734.07	8172.1	
734.25	7886.7	
734.43	6134.3	
734.61	7785	
734.79	9460.9	
734.97	7742	
735.15	6304.3	
735.33	6661.4	
735.51	8197.3	
735.69	7823.9	
735.87	7845.1	
736.05	6893.5	
736.23	8036.9	
736.41	7804.8	
736.59	6749.4	
736.77	6898.9	
736.95	8501.1	
737.13	7996.6	
737.32	6417.7	
737.5	6637.5	
737.68	9152.4	
737.86	7878.5	
738.04	6178.7	
738.22	8117.5	
738.4	7649.8	
738.58	7946.8	
738.76	6876.4	
738.94	5797.1	
739.12	7735.2	
739.3	7636.2	
739.48	7500.3	
739.66	7336.5	
739.84	8109.3	
740.02	8047.2	
740.2	5926.1	
740.38	6247	
740.56	8535.9	
740.74	7283.9	
740.92	7064.1	
741.1	6892.8	
741.28	7870.3	
741.46	7716.7	
741.64	6488.6	
741.82	7042.3	
742	7878.5	
742.18	7902.4	
742.36	6735.8	
742.54	6226.5	
742.72	8502.5	
742.9	7243.7	
743.08	7113.3	
743.26	5976.7	
743.44	8669.7	
743.62	8553	
743.8	7320.8	
743.98	6297.5	
744.16	8159.1	
744.34	7923.6	
744.52	7126.2	
744.7	7174	
744.88	8312.7	
745.06	7864.2	
745.24	7173.4	
745.42	7354.3	
745.6	8409.6	
745.78	8083.3	
745.96	5941.2	
746.14	6247.7	
746.32	9140.1	
746.5	8382.3	
746.68	6820.4	
746.86	6278.4	
747.03	8897.1	
747.21	7045.7	
747.39	6853.2	
747.57	6287.3	
747.75	7989.8	
747.93	8380.3	
748.11	6247	
748.29	6169.8	
748.47	9577	
748.65	7663.5	
748.83	6957.6	
749.01	6645	
749.19	8198.7	
749.37	7315.3	
749.55	6617.7	
749.73	6797.2	
749.91	7871	
750.09	7494.2	
750.26	6721.4	
750.44	6091.3	
750.62	7899	
750.8	7800	
750.98	6022.4	
751.16	6322.1	
751.34	7972.7	
751.52	7242.3	
751.7	7113.3	
751.88	5922	
752.06	8443.8	
752.24	8224	
752.42	5856.5	
752.59	6309.1	
752.77	7727.7	
752.95	9129.8	
753.13	6988.4	
753.31	6363.7	
753.49	7547.4	
753.67	7971.4	
753.85	6628.6	
754.03	6256.5	
754.21	8217.8	
754.38	8599.4	
754.56	6385.6	
754.74	5324	
754.92	7215.7	
755.1	7901.1	
755.28	5088.5	
755.46	4861.2	
755.64	8165.3	
755.82	8196.7	
755.99	4761.5	
756.17	4832.5	
756.35	5279.7	
756.53	6916.7	
756.71	3511.6	
756.89	4503.5	
757.07	6529.6	
757.25	5606	
757.42	5261.2	
757.6	6266.8	
757.78	6896.2	
757.96	5825.1	
758.14	5214.1	
758.32	4577.9	
758.5	5287.9	
758.67	6148.7	
758.85	4823	
759.03	4996.4	
759.21	6339.8	
759.39	5686.5	
759.57	4380.6	
759.75	5654.4	
759.92	7109.9	
760.1	6275.7	
760.28	6143.9	
760.46	6442.9	
760.64	6148.7	
760.82	5958.2	
760.99	6081.8	
761.17	5210	
761.35	7237.5	
761.53	6189	
761.71	5426.4	
761.89	6270.9	
762.06	7195.9	
762.24	6730.3	
762.42	5621.7	
762.6	5469.4	
762.78	6784.9	
762.96	7530.4	
763.13	6158.9	
763.31	5892	
763.49	7684.7	
763.67	6832.7	
763.85	6764.4	
764.02	7425.3	
764.2	7965.9	
764.38	7188.4	
764.56	5735.7	
764.74	6562.4	
764.91	8129.8	
765.09	6980.8	
765.27	5410.1	
765.45	5250.3	
765.63	8197.3	
765.8	8058.8	
765.98	4878.9	
766.16	5203.9	
766.34	6483.2	
766.52	6221.7	
766.69	6257.2	
766.87	5081	
767.05	6920.1	
767.23	7716.7	
767.41	5418.9	
767.58	5646.9	
767.76	7487.4	
767.94	7546.8	
768.12	5394.3	
768.29	6259.3	
768.47	6972	
768.65	7666.2	
768.83	4975.2	
769	6251.1	
769.18	6417.7	
769.36	7180.9	
769.54	5974.6	
769.72	4998.4	
769.89	7464.8	
770.07	7593.9	
770.25	5305.6	
770.43	6560.3	
770.6	8237.6	
770.78	8667	
770.96	5506.3	
771.14	6197.8	
771.31	7308.5	
771.49	6563.7	
771.67	4576.5	
771.85	4812	
772.02	5781.4	
772.2	6567.2	
772.38	5614.8	
772.55	5058.5	
772.73	6836.1	
772.91	6535.8	
773.09	5404.6	
773.26	5511.1	
773.44	6757.6	
773.62	6369.9	
773.8	4906.3	
773.97	4626.4	
774.15	6757.6	
774.33	6339.1	
774.5	4743.1	
774.68	5091.3	
774.86	6856.6	
775.04	6319.3	
775.21	4846.2	
775.39	4771.1	
775.57	6612.9	
775.74	6996.5	
775.92	4575.8	
776.1	4487.8	
776.27	6482.5	
776.45	7866.2	
776.63	4687.8	
776.81	4243.4	
776.98	6137.8	
777.16	7294.2	
777.34	4777.2	
777.51	4788.8	
777.69	6066.8	
777.87	5875.6	
778.04	4813.4	
778.22	5558.2	
778.4	5852.4	
778.57	6525.5	
778.75	4038.6	
778.93	4416.8	
779.1	5625.8	
779.28	5450.3	
779.46	4079.6	
779.64	4606.6	
779.81	6593.1	
779.99	7589.8	
780.17	5429.8	
780.34	5525.4	
780.52	6039.5	
780.69	6234.7	
780.87	4896.7	
781.05	4398.4	
781.22	6068.1	
781.4	6205.3	
781.58	4511.7	
781.75	3658.4	
781.93	6136.4	
782.11	5480.4	
782.28	5424.4	
782.46	4497.3	
782.64	5276.3	
782.81	6287.9	
782.99	4583.4	
783.17	4528.7	
783.34	6160.3	
783.52	5395.7	
783.69	4809.3	
783.87	5621.7	
784.05	5467.4	
784.22	5385.5	
784.4	5470.8	
784.58	4760.8	
784.75	6431.3	
784.93	5450.3	
785.1	4358.8	
785.28	5094.7	
785.46	6017.6	
785.63	5351.3	
785.81	4357.4	
785.99	4196.3	
786.16	5488.6	
786.34	5941.2	
786.51	4224.3	
786.69	4603.8	
786.87	5107	
787.04	5580.7	
787.22	4091.2	
787.39	5038.7	
787.57	5347.9	
787.75	6526.9	
787.92	5292	
788.1	5190.9	
788.27	5393.7	
788.45	5123.3	
788.63	4884.4	
788.8	3521.1	
788.98	5835.3	
789.15	5031.9	
789.33	3659.7	
789.5	4385.4	
789.68	6298.9	
789.86	6414.2	
790.03	4796.3	
790.21	4132.8	
790.38	6266.1	
790.56	5449.6	
790.73	4001.7	
790.91	4040	
791.09	5291.3	
791.26	6049	
791.44	4250.9	
791.61	3699.3	
791.79	5236.7	
791.96	5351.3	
792.14	3794.9	
792.32	3399.6	
792.49	5257.8	
792.67	5345.9	
792.84	3859.7	
793.02	3636.5	
793.19	5721.3	
793.37	6512.5	
793.54	3403.7	
793.72	3736.2	
793.89	6636.8	
794.07	5265.3	
794.25	4407.9	
794.42	3456.3	
794.6	6346	
794.77	5933.6	
794.95	4687.1	
795.12	4051.6	
795.3	5227.8	
795.47	5869.5	
795.65	4450.9	
795.82	4337.6	
796	4981.3	
796.17	7009.5	
796.35	4136.2	
796.52	4887.8	
796.7	5794.4	
796.87	5914.5	
797.05	5115.1	
797.22	5014.8	
797.4	5833.3	
797.57	6911.2	
797.75	4260.5	
797.92	4020.8	
798.1	6145.3	
798.27	5242.1	
798.45	3461.7	
798.62	3701.4	
798.8	5541.8	
798.97	6065.4	
799.15	4549.9	
799.32	4304.1	
799.5	4691.9	
799.67	5567.1	
799.85	4625	
800.02	3332.7	
800.2	5198.4	
800.37	5504.3	
800.55	4831.2	
800.72	3991.5	
800.9	5914.5	
801.07	6442.2	
801.25	5401.2	
801.42	4381.3	
801.6	6046.3	
801.77	5729.5	
801.95	3900	
802.12	3893.2	
802.29	5715.9	
802.47	5694.7	
802.64	4414.7	
802.82	3281.5	
802.99	5074.2	
803.17	6157.6	
803.34	4220.2	
803.52	3875.4	
803.69	6858.6	
803.87	4902.2	
804.04	4239.3	
804.21	4293.2	
804.39	6290.7	
804.56	5346.6	
804.74	3561.4	
804.91	4420.2	
805.09	5216.2	
805.26	5300.8	
805.44	3644	
805.61	4072	
805.78	5915.9	
805.96	5864	
806.13	4369.7	
806.31	4769	
806.48	4710.3	
806.66	5267.4	
806.83	4370.4	
807	4271.4	
807.18	5083.1	
807.35	5534.3	
807.53	4149.9	
807.7	3419.4	
807.87	6327.5	
808.05	5219.6	
808.22	4656.4	
808.4	3378.5	
808.57	5205.9	
808.74	4797.7	
808.92	3877.5	
809.09	4937	
809.27	5029.1	
809.44	5748.6	
809.61	3377.1	
809.79	3758	
809.96	6291.4	
810.14	5961	
810.31	3294.5	
810.48	4061.1	
810.66	5248.9	
810.83	6053.8	
811.01	3857.7	
811.18	4334.9	
811.35	5900.2	
811.53	4597	
811.7	4688.5	
811.87	4367.6	
812.05	5134.3	
812.22	5104.2	
812.39	3762.1	
812.57	3663.1	
812.74	5195	
812.92	6969.9	
813.09	4053.6	
813.26	4480.3	
813.44	6599.9	
813.61	5115.1	
813.78	3380.5	
813.96	4542.4	
814.13	5151.3	
814.3	4845.5	
814.48	4903.5	
814.65	4054.3	
814.82	6487.3	
815	4930.1	
815.17	4173.8	
815.34	5103.5	
815.52	5091.3	
815.69	5081	
815.87	4121.2	
816.04	3603.7	
816.21	5200.5	
816.38	4556	
816.56	4019.5	
816.73	3727.3	
816.9	6534.4	
817.08	5941.8	
817.25	3754.6	
817.42	4799.8	
817.6	4721.9	
817.77	5158.2	
817.94	4233.8	
818.12	3779.2	
818.29	4922.6	
818.46	7753.6	
818.64	3878.2	
818.81	3648.8	
818.98	4791.6	
819.16	7107.1	
819.33	4463.2	
819.5	4189.5	
819.67	5584.8	
819.85	6263.4	
820.02	4095.9	
820.19	4367	
820.37	5433.3	
820.54	4906.3	
820.71	4234.5	
820.88	5291.3	
821.06	5426.4	
821.23	4900.1	
821.4	4269.3	
821.58	4209.3	
821.75	5911.8	
821.92	5373.2	
822.09	3436.5	
822.27	3752.6	
822.44	5243.5	
822.61	5071.5	
822.79	3429.7	
822.96	6617	
823.13	5736.4	
823.3	4917.2	
823.48	3966.2	
823.65	3577.8	
823.82	5918.6	
823.99	4721.9	
824.17	5086.5	
824.34	3642.7	
824.51	6852.5	
824.68	5310.4	
824.86	3774.4	
825.03	4250.9	
825.2	5133.6	
825.37	6351.4	
825.55	3768.3	
825.72	4163.5	
825.89	6900.3	
826.06	6370.5	
826.24	4113	
826.41	4169.7	
826.58	6315.3	
826.75	5498.8	
826.92	3217.4	
827.1	3580.5	
827.27	8653.4	
827.44	6842.9	
827.61	3882.3	
827.79	4742.4	
827.96	4896.7	
828.13	5249.6	
828.3	3980.6	
828.47	3391.4	
828.65	5453.1	
828.82	5325.4	
828.99	5276.3	
829.16	4610	
829.34	5827.2	
829.51	5606.7	
829.68	4186.7	
829.85	4396.3	
830.02	6058.6	
830.2	5814.2	
830.37	3243.3	
830.54	5069.4	
830.71	6578.8	
830.88	5162.9	
831.05	3288.4	
831.23	3809.9	
831.4	6321.4	
831.57	7082.6	
831.74	3878.2	
831.91	3340.2	
832.09	5432.6	
832.26	5759.6	
832.43	4001.7	
832.6	4541.7	
832.77	5447.6	
832.94	6174.6	
833.12	3229	
833.29	3969	
833.46	5037.3	
833.63	7403.4	
833.8	4317.8	
833.97	4082.3	
834.15	5805.3	
834.32	5550.7	
834.49	4193.6	
834.66	4313	
834.83	6007.4	
835	4907.6	
835.17	3878.9	
835.35	3901.4	
835.52	5705	
835.69	5583.4	
835.86	4109.6	
836.03	3388	
836.2	5786.9	
836.37	5433.3	
836.55	4012	
836.72	3736.9	
836.89	5296	
837.06	5769.8	
837.23	4100	
837.4	4501.4	
837.57	6655.2	
837.75	7305.8	
837.92	3664.5	
838.09	3910.9	
838.26	5345.2	
838.43	6088.6	
838.6	4240	
838.77	3780.6	
838.94	7004.1	
839.11	6687.3	
839.29	3998.3	
839.46	3157.3	
839.63	5725.4	
839.8	5443.5	
839.97	3919.1	
840.14	3863.2	
840.31	5519.3	
840.48	5800.5	
840.65	3186.6	
840.82	3827	
841	5764.3	
841.17	5677	
841.34	3587.4	
841.51	3611.9	
841.68	5659.2	
841.85	5443.5	
842.02	3737.5	
842.19	3067.2	
842.36	5539.8	
842.53	5496.1	
842.7	3551.2	
842.87	4491.2	
843.05	7254.6	
843.22	5429.8	
843.39	3398.9	
843.56	3668.6	
843.73	5203.2	
843.9	5859.2	
844.07	5875.6	
844.24	4881	
844.41	8574.2	
844.58	5005.2	
844.75	3454.2	
844.92	3758	
845.09	5803.9	
845.26	5734.3	
845.43	3562.1	
845.6	3795.6	
845.77	5817.6	
845.94	5510.4	
846.12	3956	
846.29	4219.5	
846.46	6036.7	
846.63	5763	
846.8	3586	
846.97	4272.1	
847.14	6213.5	
847.31	5715.2	
847.48	4061.8	
847.65	4495.3	
847.82	6055.2	
847.99	6043.6	
848.16	4818.2	
848.33	4448.2	
848.5	5276.9	
848.67	6283.9	
848.84	3560.1	
849.01	3693.2	
849.18	5193.6	
849.35	4826.4	
849.52	4517.1	
849.69	3488.4	
849.86	5930.9	
850.03	6245.6	
850.2	3543.7	
850.37	4413.4	
850.54	6159.6	
850.71	5470.8	
850.88	4354	
851.05	3493.2	
851.22	5682.4	
851.39	6317.3	
851.56	3400.3	
851.73	4073.4	
851.9	5038.7	
852.07	6023.1	
852.24	4042	
852.41	3540.3	
852.58	5640.8	
852.75	5111	
852.92	4039.3	
853.09	3517.7	
853.26	5374.6	
853.43	6223.1	
853.6	3520.5	
853.77	3042.6	
853.94	6274.3	
854.11	5021.6	
854.28	5247.6	
854.44	3870	
854.61	6694.1	
854.78	5883.1	
854.95	3577.8	
855.12	4449.6	
855.29	4612.7	
855.46	6395.1	
855.63	3528	
855.8	4963.6	
855.97	5321.3	
856.14	6137.1	
856.31	5037.3	
856.48	3898	
856.65	5310.4	
856.82	4980	
856.99	3464.5	
857.16	3855	
857.33	7043	
857.49	5345.2	
857.66	3876.8	
857.83	4111.6	
858	5381.4	
858.17	5595.1	
858.34	3354.6	
858.51	3542.3	
858.68	6517.3	
858.85	6507.8	
859.02	4171.7	
859.19	4427	
859.36	5021.6	
859.52	5107	
859.69	3596.2	
859.86	4246.8	
860.03	5131.5	
860.2	6386.9	
860.37	3169.6	
860.54	3622.2	
860.71	5987.6	
860.88	6421.1	
861.05	3989.4	
861.21	4500.8	
861.38	6510.5	
861.55	4878.9	
861.72	3277.4	
861.89	4016.1	
862.06	6042.9	
862.23	6589.7	
862.4	3459.7	
862.56	3735.5	
862.73	5842.2	
862.9	5543.2	
863.07	4228.4	
863.24	3175	
863.41	4947.2	
863.58	5059.8	
863.75	3672.7	
863.91	4143.7	
864.08	6419	
864.25	5921.4	
864.42	4480.3	
864.59	4990.9	
864.76	6709.8	
864.93	5034.6	
865.09	3472	
865.26	3855	
865.43	6275.7	
865.6	6664.1	
865.77	3122.5	
865.94	3493.2	
866.1	6395.8	
866.27	6013.5	
866.44	5383.4	
866.61	3378.5	
866.78	5404.6	
866.95	5929.6	
867.11	3452.9	
867.28	3162.1	
867.45	6173.3	
867.62	5161.6	
867.79	4127.3	
867.96	3515.7	
868.12	5050.3	
868.29	6094.8	
868.46	3073.3	
868.63	4758.1	
868.8	6234.7	
868.97	5922	
869.13	3689.8	
869.3	3733.4	
869.47	5841.5	
869.64	6108.4	
869.81	3607.2	
869.97	3654.9	
870.14	5733.6	
870.31	6479.8	
870.48	3468.6	
870.65	4497.3	
870.81	5407.3	
870.98	5303.6	
871.15	4043.4	
871.32	3720.5	
871.48	5821	
871.65	6462	
871.82	3545.7	
871.99	3947.1	
872.16	6937.8	
872.32	6298.9	
872.49	3604.4	
872.66	3670.6	
872.83	5982.1	
872.99	5244.2	
873.16	4145.8	
873.33	3503.4	
873.5	5631.2	
873.67	5603.9	
873.83	3725.9	
874	4791.6	
874.17	5795.1	
874.34	6856.6	
874.5	4607.9	
874.67	4483.7	
874.84	6420.4	
875.01	5070.1	
875.17	5056.4	
875.34	3532.1	
875.51	5706.3	
875.68	6852.5	
875.84	4343.1	
876.01	5259.9	
876.18	5989.6	
876.34	5872.2	
876.51	3562.8	
876.68	3522.5	
876.85	5457.2	
877.01	6235.4	
877.18	5099.4	
877.35	3538.2	
877.52	5545.9	
877.68	5010.7	
877.85	3508.2	
878.02	3495.2	
878.18	5545.9	
878.35	5215.5	
878.52	2842.6	
878.69	4001	
878.85	5969.8	
879.02	5902.2	
879.19	5044.8	
879.35	3816.7	
879.52	5898.2	
879.69	6211.5	
879.86	3035.1	
880.02	3989.4	
880.19	5479.7	
880.36	6749.4	
880.52	4124.6	
880.69	4240.7	
880.86	6044.9	
881.02	6100.2	
881.19	3863.8	
881.36	3902.1	
881.52	5989.6	
881.69	5221	
881.86	3822.2	
882.02	3749.8	
882.19	6250.4	
882.36	7270.3	
882.52	3575.8	
882.69	5067.4	
882.86	5713.2	
883.02	5622.4	
883.19	4351.3	
883.36	4063.2	
883.52	6103.6	
883.69	6962.4	
883.86	3625.6	
884.02	3246.7	
884.19	6031.3	
884.36	5521.3	
884.52	4020.8	
884.69	3786	
884.86	5246.2	
885.02	6574.7	
885.19	3971.7	
885.36	4060.4	
885.52	5537.7	
885.69	5662.6	
885.86	5207.3	
886.02	4546.5	
886.19	5994.4	
886.35	5467.4	
886.52	3966.2	
886.69	5005.9	
886.85	5061.2	
887.02	6352.1	
887.19	6352.1	
887.35	6352.1	
887.52	6352.1	
887.68	6352.1	
887.85	6352.1	
888.02	6352.1	
888.18	6352.1	
888.35	6352.1	
888.51	6352.1	
888.68	6352.1	
888.85	6352.1	
889.01	6352.1	
889.18	6352.1	
889.35	6352.1	
889.51	6352.1	
889.68	6352.1	
889.84	6352.1	
890.01	6352.1	
890.17	6352.1	
890.34	6352.1	
890.51	6352.1	
890.67	6352.1	
890.84	6352.1	
891	6352.1	
891.17	6352.1	
891.34	6352.1	
891.5	6352.1	
891.67	6352.1	
891.83	6352.1	
892	6352.1	
892.16	6352.1	
892.33	6352.1	
892.5	6352.1	
892.66	6352.1	
892.83	6352.1	
892.99	6352.1	
893.16	6352.1	
893.32	6352.1	
893.49	6352.1	
893.65	6352.1	
893.82	6352.1	
893.99	6352.1	
894.15	6352.1	
894.32	6352.1	
894.48	6352.1	
894.65	6352.1	
894.81	6352.1	
894.98	6352.1	
895.14	6352.1	
895.31	6352.1	
895.47	6352.1	
895.64	6352.1	
895.81	6352.1	
895.97	6352.1	
896.14	6352.1	
896.3	6352.1	
896.47	6352.1	
896.63	6352.1	
896.8	6352.1	
896.96	6352.1	
897.13	6352.1	
897.29	6352.1	
897.46	6352.1	
897.62	6352.1	
897.79	6352.1	
897.95	6352.1	
898.12	6352.1	
898.28	6352.1	
898.45	6352.1	
898.61	6352.1	
898.78	6352.1	
898.94	6352.1	
899.11	6352.1	
899.27	6352.1	
899.44	6352.1	
899.6	6352.1	
899.77	6352.1	
899.93	6352.1	
900.1	6352.1	
900.26	6352.1	
900.43	6352.1	
900.59	6352.1	
900.76	6352.1	
900.92	6352.1	
901.09	6352.1	
901.25	6352.1	
901.42	6352.1	
901.58	6352.1	
901.75	6352.1	
901.91	6352.1	
902.07	6352.1	
902.24	6352.1	
902.4	6352.1	
902.57	6352.1	
902.73	6352.1	
902.9	6352.1	
903.06	6352.1	
903.23	6352.1	
903.39	6352.1	
903.56	6352.1	
903.72	6352.1	
903.88	6352.1	
904.05	6352.1	
904.21	6352.1	
904.38	6352.1	
904.54	6352.1	
904.71	6352.1	
904.87	6352.1	
905.03	6352.1	
905.2	6352.1	
905.36	6352.1	
905.53	6352.1	
905.69	6352.1	
905.86	6352.1	
906.02	6352.1	
906.18	6352.1	
906.35	6352.1	
906.51	6352.1	
906.68	6352.1	
906.84	6352.1	
907.01	6352.1	
907.17	6352.1	
907.33	6352.1	
907.5	6352.1	
907.66	6352.1	
907.83	6352.1	
907.99	6352.1	
908.15	6352.1	
908.32	6352.1	
908.48	6352.1	
908.65	6352.1	
908.81	6352.1	
908.97	6352.1	
909.14	6352.1	
909.3	6352.1	
909.47	6352.1	
909.63	6352.1	
909.79	6352.1	
909.96	6352.1	
910.12	6352.1	
910.28	6352.1	
910.45	6352.1	
910.61	6352.1	
910.78	6352.1	
910.94	6352.1	
911.1	6352.1	
911.27	6352.1	
911.43	6352.1	
911.59	6352.1	
911.76	6352.1	
911.92	6352.1	
912.08	6352.1	
912.25	6352.1	
912.41	6352.1	
912.57	6352.1	
912.74	6352.1	
912.9	6352.1	
913.07	6352.1	
913.23	6352.1	
913.39	6352.1	
913.56	6352.1	
913.72	6352.1	
913.88	6352.1	
914.05	6352.1	
914.21	6352.1	
914.37	6352.1	
914.54	6352.1	
914.7	6352.1	
914.86	6352.1	
915.03	6352.1	
915.19	6352.1	
