Wavelength	Intensities	
nm	a.u.	
179.22	1925.1	
179.44	1914.9	
179.65	1935.3	
179.86	1894.4	
180.08	1856.8	
180.29	5005.2	
180.51	3557.3	
180.72	5651	
180.94	6735.1	
181.15	3312.2	
181.37	3273.3	
181.58	5545.9	
181.79	5877.7	
182.01	3437.2	
182.22	3693.9	
182.44	5810.8	
182.65	4858.5	
182.87	4639.3	
183.08	4055	
183.29	6142.5	
183.51	5057.8	
183.72	3708.2	
183.94	5414.1	
184.15	5421.7	
184.37	5450.3	
184.58	3282.9	
184.79	4429.1	
185.01	4999.1	
185.22	5821	
185.44	4818.9	
185.65	3924.6	
185.86	5332.2	
186.08	4912.4	
186.29	3166.2	
186.51	3361.4	
186.72	5077.6	
186.94	5951.4	
187.15	3970.3	
187.36	4079.6	
187.58	7825.3	
187.79	5580	
188.01	4213.4	
188.22	6700.3	
188.43	6627.2	
188.65	5765	
188.86	3324.5	
189.08	4046.8	
189.29	5274.2	
189.5	5256.5	
189.72	3762.1	
189.93	3839.3	
190.15	6027.9	
190.36	7226.6	
190.57	4177.9	
190.79	4029.7	
191	6142.5	
191.22	6071.5	
191.43	4164.2	
191.64	3351.8	
191.86	6314.6	
192.07	6064	
192.29	3581.2	
192.5	3784	
192.71	6038.8	
192.93	5197.7	
193.14	3725.9	
193.35	3821.5	
193.57	5211.4	
193.78	6019	
194	2979.1	
194.21	3686.3	
194.42	4988.9	
194.64	5512.4	
194.85	4126	
195.07	4849.6	
195.28	5540.4	
195.49	4741	
195.71	5066.7	
195.92	3499.3	
196.13	5640.1	
196.35	5793	
196.56	5444.2	
196.78	4091.8	
196.99	7166.5	
197.2	6674.3	
197.42	4727.4	
197.63	4099.4	
197.84	4895.3	
198.06	5687.9	
198.27	3775.1	
198.48	5040.1	
198.7	5210	
198.91	5382.7	
199.13	4100.7	
199.34	4119.1	
199.55	5899.5	
199.77	4767	
199.98	3613.3	
200.19	4168.3	
200.41	5362.9	
200.62	5105.6	
200.83	4310.3	
201.05	4622.3	
201.26	5366.4	
201.47	5087.8	
201.69	3640.6	
201.9	3512.9	
202.11	5395.7	
202.33	6436.8	
202.54	3917.1	
202.76	4351.3	
202.97	5559.6	
203.18	5546.6	
203.4	4323.9	
203.61	4206.5	
203.82	5474.9	
204.04	5120.6	
204.25	4199.7	
204.46	4049.5	
204.68	5467.4	
204.89	5728.9	
205.1	4033.1	
205.32	3420.8	
205.53	5892	
205.74	6001.2	
205.96	2947	
206.17	4236.6	
206.38	5814.2	
206.6	6042.9	
206.81	4749.9	
207.02	3822.9	
207.24	5711.1	
207.45	6161.7	
207.66	3913.7	
207.88	3358	
208.09	5655.8	
208.3	5447.6	
208.52	3655.6	
208.73	4018.1	
208.94	5458.5	
209.15	6215.6	
209.37	3906.2	
209.58	4116.4	
209.79	5969.8	
210.01	5234.6	
210.22	3146.4	
210.43	3318.4	
210.65	5429.8	
210.86	5879	
211.07	3895.9	
211.29	3603.7	
211.5	5859.9	
211.71	5406	
211.93	3577.1	
212.14	3566.2	
212.35	5390.3	
212.56	5688.6	
212.78	4170.3	
212.99	3456.3	
213.2	6469.5	
213.42	5214.1	
213.63	3768.9	
213.84	3979.9	
214.06	4805.9	
214.27	4959.5	
214.48	3880.9	
214.69	4226.3	
214.91	6141.9	
215.12	6246.3	
215.33	4271.4	
215.55	4681.7	
215.76	6718	
215.97	5804.6	
216.18	4032.5	
216.4	3962.8	
216.61	5173.9	
216.82	5985.5	
217.04	3600.3	
217.25	3707.5	
217.46	6182.8	
217.67	5898.2	
217.89	3241.3	
218.1	3303.4	
218.31	5523.4	
218.53	5620.3	
218.74	3807.2	
218.95	3678.8	
219.16	5392.3	
219.38	6446.3	
219.59	3644	
219.8	4452.3	
220.01	7011.6	
220.23	5502.2	
220.44	4859.1	
220.65	3575.1	
220.87	5505.6	
221.08	6122.7	
221.29	3308.2	
221.5	4483	
221.72	7499.7	
221.93	5145.9	
222.14	4196.3	
222.35	4904.9	
222.57	5457.2	
222.78	5793	
222.99	3964.2	
223.2	4278.2	
223.42	5748.6	
223.63	5957.5	
223.84	2990	
224.05	3020.1	
224.27	6998.6	
224.48	6384.2	
224.69	4921.3	
224.9	4141	
225.12	5628.5	
225.33	5424.4	
225.54	3300.6	
225.75	3699.3	
225.97	5068	
226.18	5352.7	
226.39	3984.7	
226.6	3650.2	
226.82	5232.6	
227.03	5082.4	
227.24	4111.6	
227.45	3407.8	
227.67	5837.4	
227.88	6442.2	
228.09	4626.4	
228.3	4642.7	
228.52	5922	
228.73	5393	
228.94	3798.3	
229.15	3383.9	
229.36	5335	
229.58	5279.7	
229.79	3854.3	
230	4517.8	
230.21	6545.3	
230.43	5616.9	
230.64	4024.3	
230.85	4283	
231.06	5930.2	
231.28	5979.4	
231.49	3410.6	
231.7	3960.1	
231.91	5798.5	
232.12	5524.1	
232.34	3449.5	
232.55	3966.2	
232.76	6173.3	
232.97	5707	
233.18	3584.6	
233.4	4093.2	
233.61	5684.5	
233.82	5215.5	
234.03	3803.8	
234.25	3697.3	
234.46	7633.5	
234.67	5520.6	
234.88	4179.9	
235.09	3660.4	
235.31	5771.2	
235.52	5342.5	
235.73	4074.1	
235.94	3449.5	
236.15	5175.2	
236.37	6676.4	
236.58	3575.8	
236.79	3956	
237	5773.2	
237.21	4964.3	
237.43	4268.6	
237.64	3334.1	
237.85	9998.2	
238.06	4996.4	
238.27	4328	
238.48	3396.2	
238.7	5798.5	
238.91	5263.3	
239.12	3942.3	
239.33	3947.1	
239.54	5066.7	
239.76	5378	
239.97	3880.2	
240.18	3934.8	
240.39	6888	
240.6	5765.7	
240.82	4104.8	
241.03	3353.9	
241.24	5472.9	
241.45	6367.8	
241.66	3641.3	
241.87	4236.6	
242.09	6206	
242.3	6609.5	
242.51	4341	
242.72	3950.5	
242.93	5947.3	
243.14	5399.1	
243.36	4545.1	
243.57	4888.5	
243.78	6428.6	
243.99	5907.7	
244.2	3990.1	
244.41	3642.7	
244.63	5042.1	
244.84	5727.5	
245.05	4213.4	
245.26	4024.3	
245.47	5739.1	
245.68	6051.1	
245.9	5218.9	
246.11	4177.2	
246.32	5286.5	
246.53	5710.4	
246.74	6384.9	
246.95	3317	
247.16	4975.2	
247.38	5472.2	
247.59	3288.4	
247.8	3979.9	
248.01	5144.5	
248.22	5393.7	
248.43	3603.1	
248.64	3827.7	
248.86	4823	
249.07	5197.1	
249.28	3491.8	
249.49	4078.9	
249.7	6060.6	
249.91	6160.3	
250.12	3315	
250.34	3344.3	
250.55	5528.8	
250.76	5461.2	
250.97	4110.3	
251.18	4152.6	
251.39	6242.9	
251.6	5618.3	
251.81	4184	
252.03	4147.1	
252.24	5199.8	
252.45	6012.2	
252.66	3388	
252.87	4390.8	
253.08	5433.9	
253.29	7235.5	
253.5	3455.6	
253.72	4854.4	
253.93	5253	
254.14	6472.9	
254.35	3720.5	
254.56	3923.2	
254.77	5685.8	
254.98	5057.1	
255.19	3775.1	
255.41	4814.8	
255.62	5565.7	
255.83	6156.2	
256.04	4250.2	
256.25	4166.3	
256.46	6709.1	
256.67	5134.3	
256.88	4104.8	
257.09	4555.4	
257.31	5120.6	
257.52	5126.7	
257.73	5166.3	
257.94	3704.8	
258.15	5317.9	
258.36	5498.8	
258.57	4804.5	
258.78	2966.1	
258.99	5949.3	
259.2	5273.5	
259.41	3713	
259.63	3870	
259.84	6339.1	
260.05	6813.6	
260.26	4972.5	
260.47	3672	
260.68	6019.7	
260.89	5382.1	
261.1	4547.2	
261.31	3581.9	
261.52	6034.7	
261.73	6400.6	
261.95	4838	
262.16	4283.7	
262.37	6171.2	
262.58	6275.7	
262.79	4831.2	
263	3841.3	
263.21	5453.1	
263.42	5021.6	
263.63	3919.1	
263.84	3799.7	
264.05	6094.8	
264.26	6399.2	
264.47	4728.8	
264.69	4321.9	
264.9	6120.7	
265.11	5674.9	
265.32	3648.1	
265.53	3758	
265.74	5560.2	
265.95	4865.3	
266.16	4059.1	
266.37	4446.8	
266.58	5612.1	
266.79	5297.4	
267	3725.9	
267.21	3465.2	
267.42	5074.9	
267.63	5408	
267.84	3944.4	
268.06	3340.9	
268.27	5881.1	
268.48	6167.1	
268.69	3917.1	
268.9	4614.8	
269.11	6170.5	
269.32	4964.3	
269.53	3958.7	
269.74	3646.7	
269.95	5859.2	
270.16	4831.2	
270.37	3993.5	
270.58	4609.3	
270.79	5322.7	
271	6013.5	
271.21	4262.5	
271.42	4003.1	
271.63	5601.2	
271.84	5081	
272.05	3145.7	
272.26	3577.1	
272.47	5503.6	
272.68	5642.8	
272.89	3753.2	
273.11	4444.1	
273.32	5237.3	
273.53	6466.1	
273.74	4264.6	
273.95	4210.6	
274.16	6125.5	
274.37	5566.4	
274.58	4373.8	
274.79	3446	
275	5563.6	
275.21	6193.1	
275.42	5245.5	
275.63	4472.8	
275.84	5711.8	
276.05	7195.9	
276.26	4133.5	
276.47	3891.8	
276.68	5305.6	
276.89	6541.2	
277.1	4430.4	
277.31	3435.8	
277.52	5765.7	
277.73	5885.2	
277.94	3421.5	
278.15	3803.1	
278.36	5649	
278.57	5054.4	
278.78	3818.1	
278.99	4340.3	
279.2	5091.3	
279.41	5016.8	
279.62	5038.7	
279.83	3474	
280.04	6724.2	
280.25	4950.6	
280.46	4932.9	
280.67	3961.5	
280.88	5076.2	
281.09	6134.3	
281.3	4194.2	
281.51	5322	
281.72	5212.8	
281.93	6030.6	
282.14	3637.2	
282.35	3999	
282.56	5972.6	
282.77	5989.6	
282.98	3828.3	
283.19	4701.5	
283.4	7372.7	
283.61	5414.8	
283.82	3469.9	
284.03	4907.6	
284.24	5565	
284.45	6109.8	
284.66	4890.5	
284.87	4710.3	
285.08	6047	
285.29	6221.7	
285.5	3379.1	
285.71	3915.7	
285.92	6165.8	
286.12	6765.1	
286.33	4972.5	
286.54	3859.7	
286.75	6012.2	
286.96	5332.2	
287.17	3504.8	
287.38	4831.2	
287.59	5103.5	
287.8	5038.7	
288.01	3865.9	
288.22	4478.9	
288.43	6016.9	
288.64	4997	
288.85	4650.9	
289.06	4412	
289.27	5935	
289.48	6505	
289.69	4894	
289.9	4491.9	
290.11	6150.7	
290.32	5193.6	
290.53	4687.8	
290.74	4311.7	
290.94	5961.6	
291.15	6015.6	
291.36	3714.3	
291.57	4389.5	
291.78	5174.5	
291.99	4883.7	
292.2	3599.6	
292.41	4335.5	
292.62	6014.9	
292.83	5842.2	
293.04	5313.1	
293.25	3601.7	
293.46	5246.2	
293.67	6061.3	
293.88	3733.4	
294.09	3527.3	
294.29	4992.9	
294.5	5618.3	
294.71	3939.6	
294.92	3808.5	
295.13	5253.7	
295.34	6633.4	
295.55	3275.4	
295.76	3431.7	
295.97	5903.6	
296.18	6745.3	
296.39	3554.6	
296.6	3747.8	
296.81	5580	
297.01	5907	
297.22	3904.8	
297.43	3646.7	
297.64	5117.2	
297.85	5083.1	
298.06	3089.7	
298.27	3271.3	
298.48	5467.4	
298.69	5214.8	
298.9	3992.9	
299.11	3659.7	
299.31	4985.4	
299.52	5027.8	
299.73	4252.3	
299.94	4196.3	
300.15	5477.6	
300.36	5139.7	
300.57	4224.3	
300.78	4182.6	
300.99	5354.1	
301.2	5648.3	
301.4	3620.8	
301.61	4040	
301.82	5895.4	
302.03	5932.3	
302.24	4526.7	
302.45	3520.5	
302.66	5769.8	
302.87	6285.2	
303.08	3704.1	
303.29	5134.3	
303.49	5251.7	
303.7	5547.3	
303.91	3277.4	
304.12	4813.4	
304.33	4969.1	
304.54	5582.8	
304.75	3766.9	
304.96	3573.7	
305.16	5803.9	
305.37	6607.4	
305.58	3259	
305.79	3376.4	
306	5814.2	
306.21	4941.1	
306.42	3760.8	
306.63	5791.7	
306.83	5331.5	
307.04	6134.3	
307.25	4074.1	
307.46	4078.2	
307.67	4677.6	
307.88	5975.3	
308.09	3681.6	
308.29	3798.3	
308.5	5603.9	
308.71	6130.9	
308.92	3995.6	
309.13	3573	
309.34	5314.5	
309.55	5387.5	
309.75	4601.1	
309.96	4321.2	
310.17	5927.5	
310.38	5186.8	
310.59	4442	
310.8	3458.3	
311.01	5636	
311.21	5324.7	
311.42	3558	
311.63	3680.2	
311.84	5247.6	
312.05	5700.2	
312.26	4108.2	
312.46	4602.5	
312.67	5330.9	
312.88	5076.2	
313.09	3563.5	
313.3	3594.9	
313.51	6313.9	
313.71	6681.2	
313.92	3595.6	
314.13	3790.1	
314.34	5683.8	
314.55	5404.6	
314.76	4655.7	
314.96	4011.3	
315.17	5589.6	
315.38	5879	
315.59	3637.2	
315.8	3399.6	
316.01	6390.3	
316.21	6413.6	
316.42	3485.6	
316.63	3950.5	
316.84	5296.7	
317.05	6236.1	
317.26	4231.8	
317.46	3753.2	
317.67	5421	
317.88	5870.8	
318.09	4470.7	
318.3	3280.2	
318.5	5147.9	
318.71	5847	
318.92	5826.5	
319.13	4217.5	
319.34	6018.3	
319.54	6143.9	
319.75	3373.7	
319.96	3187.3	
320.17	5910.4	
320.38	6157.6	
320.58	3231.7	
320.79	3923.2	
321	6081.1	
321.21	6290	
321.42	3962.1	
321.62	3275.4	
321.83	5072.8	
322.04	5528.8	
322.25	3820.1	
322.46	3662.5	
322.66	5609.4	
322.87	5806.7	
323.08	4426.3	
323.29	3558	
323.5	6543.9	
323.7	5053	
323.91	4947.2	
324.12	4410.6	
324.33	5601.9	
324.53	5834	
324.74	4237.2	
324.95	4496.7	
325.16	4781.3	
325.37	5297.4	
325.57	3585.3	
325.78	3661.1	
325.99	5568.4	
326.2	4926	
326.4	5100.1	
326.61	3305.4	
326.82	5437.4	
327.03	5557.5	
327.24	5175.9	
327.44	4967	
327.65	5763.7	
327.86	4623.6	
328.07	4235.2	
328.27	3478.8	
328.48	6268.1	
328.69	5051	
328.9	5182	
329.1	3901.4	
329.31	5350.7	
329.52	6332.3	
329.73	3557.3	
329.93	4049.5	
330.14	5435.3	
330.35	5733.6	
330.56	5911.1	
330.76	4397.7	
330.97	5326.1	
331.18	5765.7	
331.39	3982.6	
331.59	3234.4	
331.8	6133.7	
332.01	6231.3	
332.22	3746.4	
332.42	4293.2	
332.63	5601.2	
332.84	5234.6	
333.05	4015.4	
333.25	3666.5	
333.46	5238.7	
333.67	5532.9	
333.88	3774.4	
334.08	4130.1	
334.29	7357	
334.5	6154.1	
334.7	3476.1	
334.91	5160.2	
335.12	5028.4	
335.33	5936.4	
335.53	4000.4	
335.74	5945.9	
335.95	5205.9	
336.16	5096.7	
336.36	4059.1	
336.57	4648.9	
336.78	4976.6	
336.98	6131.6	
337.19	4927.4	
337.4	3914.4	
337.61	6639.5	
337.81	4987.5	
338.02	3637.2	
338.23	4739.7	
338.43	6292	
338.64	5114.5	
338.85	3619.4	
339.05	4797.7	
339.26	6346	
339.47	4915.8	
339.68	3597.6	
339.88	5421	
340.09	5698.8	
340.3	5943.2	
340.5	4230.4	
340.71	3235.8	
340.92	4972.5	
341.13	6286.6	
341.33	3494.5	
341.54	4255.7	
341.75	5709.7	
341.95	5386.8	
342.16	4022.2	
342.37	4420.9	
342.57	5074.2	
342.78	5447.6	
342.99	4536.3	
343.19	3217.4	
343.4	5933.6	
343.61	5812.1	
343.81	3865.9	
344.02	3605.8	
344.23	5928.9	
344.43	6405.4	
344.64	4463.2	
344.85	4379.9	
345.06	5750.7	
345.26	6068.8	
345.47	4104.1	
345.68	4906.9	
345.88	4848.2	
346.09	6000.5	
346.3	4316.4	
346.5	3176.4	
346.71	5541.8	
346.92	5158.8	
347.12	3291.1	
347.33	4190.1	
347.54	6083.8	
347.74	6466.1	
347.95	4130.1	
348.16	3036.5	
348.36	5290.6	
348.57	4967.7	
348.78	4052.2	
348.98	4442	
349.19	5425.8	
349.39	4960.2	
349.6	3259.7	
349.81	3651.5	
350.01	5722.7	
350.22	5170.4	
350.43	3973.1	
350.63	4846.9	
350.84	5512.4	
351.05	5293.3	
351.25	3612.6	
351.46	3272.7	
351.67	6048.3	
351.87	5180	
352.08	3880.2	
352.29	4444.1	
352.49	5914.5	
352.7	6067.4	
352.9	3500	
353.11	4417.5	
353.32	6593.1	
353.52	5269.4	
353.73	3456.3	
353.94	4474.8	
354.14	5759.6	
354.35	5617.6	
354.55	3525.9	
354.76	3964.9	
354.97	5736.4	
355.17	5532.9	
355.38	3347.1	
355.59	4642.7	
355.79	5142.4	
356	5584.8	
356.2	3983.3	
356.41	3475.4	
356.62	4842.1	
356.82	5386.8	
357.03	4228.4	
357.24	3834.5	
357.44	5184.8	
357.65	5316.5	
357.85	5135.6	
358.06	4017.4	
358.27	4865.3	
358.47	5100.8	
358.68	3284.3	
358.88	4246.1	
359.09	5725.4	
359.3	6043.6	
359.5	4930.1	
359.71	4332.8	
359.91	6574.7	
360.12	5909.1	
360.33	4170.3	
360.53	4691.9	
360.74	5128.8	
360.94	5179.3	
361.15	4371	
361.36	3578.5	
361.56	5920	
361.77	5425.1	
361.97	4909.7	
362.18	3804.4	
362.38	5973.2	
362.59	5005.9	
362.8	3518.4	
363	3337.5	
363.21	4774.5	
363.41	5490.6	
363.62	4048.2	
363.83	5124.7	
364.03	5535.7	
364.24	6613.6	
364.44	5203.9	
364.65	5201.8	
364.85	5292.6	
365.06	4919.9	
365.27	3715.7	
365.47	3709.6	
365.68	6337.1	
365.88	5208	
366.09	4107.5	
366.29	3774.4	
366.5	5528.2	
366.71	6036.7	
366.91	5122	
367.12	4307.6	
367.32	6554.9	
367.53	5881.1	
367.73	4184.7	
367.94	5223	
368.14	5812.8	
368.35	6741.2	
368.56	4223.6	
368.76	3898	
368.97	5846.3	
369.17	7600	
369.38	3616	
369.58	3949.8	
369.79	4947.9	
369.99	6252.4	
370.2	5008.6	
370.4	4052.9	
370.61	5618.9	
370.82	6783.6	
371.02	3930.7	
371.23	3203.7	
371.43	4790.2	
371.64	6171.9	
371.84	3988.1	
372.05	5205.9	
372.25	7496.2	
372.46	5894.7	
372.66	3893.2	
372.87	3837.9	
373.07	5956.9	
373.28	7589.1	
373.48	5010	
373.69	4718.5	
373.9	5339.7	
374.1	5344.5	
374.31	4925.4	
374.51	4395.6	
374.72	6240.2	
374.92	5064.6	
375.13	5058.5	
375.33	4290.5	
375.54	5718.6	
375.74	5175.2	
375.95	4254.3	
376.15	5657.9	
376.36	5774.6	
376.56	5575.9	
376.77	4322.6	
376.97	4797.7	
377.18	6838.9	
377.38	5863.3	
377.59	5147.2	
377.79	3760.8	
378	5657.9	
378.2	6053.8	
378.41	3801	
378.61	3777.1	
378.82	6079.1	
379.02	5121.3	
379.23	3986	
379.43	5251.7	
379.64	6212.9	
379.84	5746.6	
380.05	3850.2	
380.25	3743.7	
380.46	5857.2	
380.66	5396.4	
380.87	5184.8	
381.07	5636.7	
381.28	6513.9	
381.48	5855.8	
381.69	3876.8	
381.89	3902.7	
382.1	4802.5	
382.3	6127.5	
382.51	5067.4	
382.71	6012.8	
382.91	5993	
383.12	6383.5	
383.32	4258.4	
383.53	4521.2	
383.73	5724.1	
383.94	5580	
384.14	4397	
384.35	3497.2	
384.55	5469.4	
384.76	5989.6	
384.96	4252.9	
385.17	4601.8	
385.37	5935.7	
385.58	5164.3	
385.78	4630.5	
385.98	3414.6	
386.19	5415.5	
386.39	5834	
386.6	4040	
386.8	4336.9	
387.01	5896.8	
387.21	5990.3	
387.42	4663.9	
387.62	5302.2	
387.83	5169.1	
388.03	5911.8	
388.23	4294.6	
388.44	5178.6	
388.64	4781.3	
388.85	4969.7	
389.05	4676.9	
389.26	5332.9	
389.46	6950.1	
389.67	6326.2	
389.87	4619.5	
390.07	4692.6	
390.28	5529.5	
390.48	5143.8	
390.69	3847.5	
390.89	4181.3	
391.1	5261.9	
391.3	6217	
391.5	5379.3	
391.71	6075.6	
391.91	5950	
392.12	7004.1	
392.32	5470.8	
392.53	4618.2	
392.73	5319.3	
392.93	5578.7	
393.14	4349.9	
393.34	5154.7	
393.55	6169.8	
393.75	5537	
393.95	4360.8	
394.16	4270.7	
394.36	5216.2	
394.57	6002.6	
394.77	3790.8	
394.98	4194.2	
395.18	5220.3	
395.38	5402.5	
395.59	5149.3	
395.79	3998.3	
396	5371.1	
396.2	5841.5	
396.4	4848.9	
396.61	4823	
396.81	6029.9	
397.02	5231.9	
397.22	5124	
397.42	5111	
397.63	5997.8	
397.83	5176.6	
398.04	3915	
398.24	4493.2	
398.44	5808.7	
398.65	4827.7	
398.85	3771.7	
399.05	3936.2	
399.26	5096.7	
399.46	7004.7	
399.67	4304.8	
399.87	4036.5	
400.07	5556.1	
400.28	5922	
400.48	4161.5	
400.69	5142.4	
400.89	6189.6	
401.09	6567.2	
401.3	3919.1	
401.5	5197.1	
401.7	6855.9	
401.91	7061.4	
402.11	4280.9	
402.32	4610.7	
402.52	6115.2	
402.72	6072.2	
402.93	4845.5	
403.13	3571	
403.33	6907.1	
403.54	5623.7	
403.74	4461.8	
403.94	5397.1	
404.15	5701.5	
404.35	6913.9	
404.56	4286.4	
404.76	6208.1	
404.96	6196.5	
405.17	5956.2	
405.37	5226.4	
405.57	4734.2	
405.78	6191.7	
405.98	5618.3	
406.18	4211.3	
406.39	5238.7	
406.59	6199.9	
406.79	5722.7	
407	4108.2	
407.2	4169.7	
407.4	6169.2	
407.61	6436.1	
407.81	4142.4	
408.01	5320.6	
408.22	5070.1	
408.42	7182.2	
408.62	5271.5	
408.83	4655	
409.03	5801.9	
409.23	5480.4	
409.44	4855.7	
409.64	5041.4	
409.84	6623.1	
410.05	6522.1	
410.25	4902.8	
410.45	4650.3	
410.66	5941.2	
410.86	8563.2	
411.06	5045.5	
411.27	4872.8	
411.47	8286.1	
411.67	6169.8	
411.88	5227.1	
412.08	5395	
412.28	6811.5	
412.49	7343.3	
412.69	4865.3	
412.89	4907.6	
413.09	7127.6	
413.3	6885.3	
413.5	4971.1	
413.7	4501.4	
413.91	6197.2	
414.11	7089.4	
414.31	4809.3	
414.52	5210	
414.72	6649.8	
414.92	6660	
415.12	4808.6	
415.33	5290.6	
415.53	7015.7	
415.73	7238.9	
415.94	5683.1	
416.14	5150.6	
416.34	5896.8	
416.55	5733.6	
416.75	6409.5	
416.95	5760.3	
417.15	6939.9	
417.36	7787.7	
417.56	6537.8	
417.76	5597.8	
417.97	7355.6	
418.17	7023.9	
418.37	5131.5	
418.57	5204.6	
418.78	6814.3	
418.98	6425.8	
419.18	6081.1	
419.38	6042.9	
419.59	6496.2	
419.79	6065.4	
419.99	5126.7	
420.2	5499.5	
420.4	6984.9	
420.6	7161.7	
420.8	4941.1	
421.01	4797	
421.21	6893.5	
421.41	7097.6	
421.61	5452.4	
421.82	5058.5	
422.02	6290.7	
422.22	7301	
422.42	5933.6	
422.63	5615.5	
422.83	6455.9	
423.03	7750.2	
423.23	5608	
423.44	4488.5	
423.64	6575.3	
423.84	6340.5	
424.04	4963.6	
424.25	4571.1	
424.45	7559.7	
424.65	7490.1	
424.85	4432.5	
425.06	5070.8	
425.26	7446.4	
425.46	6016.2	
425.66	5583.4	
425.87	5208	
426.07	7272.3	
426.27	7077.8	
426.47	5498.8	
426.67	4673.5	
426.88	7615	
427.08	7008.1	
427.28	5549.3	
427.48	4707.6	
427.69	5853.1	
427.89	6609.5	
428.09	5637.4	
428.29	4773.8	
428.5	7275.1	
428.7	6777.4	
428.9	4603.8	
429.1	5217.5	
429.3	6739.9	
429.51	7191.8	
429.71	4932.2	
429.91	5810.1	
430.11	7004.1	
430.31	7233.4	
430.52	5332.2	
430.72	5656.5	
430.92	7662.1	
431.12	7095.5	
431.32	4924.7	
431.53	5343.8	
431.73	5902.2	
431.93	7795.3	
432.13	4874.8	
432.33	4710.3	
432.54	6405.4	
432.74	6864.1	
432.94	4620.9	
433.14	5722.7	
433.34	6984.9	
433.55	6449.1	
433.75	5724.1	
433.95	7484.6	
434.15	6694.8	
434.35	6391	
434.56	4846.2	
434.76	4347.2	
434.96	6709.8	
435.16	7005.4	
435.36	4650.9	
435.56	5843.5	
435.77	6340.5	
435.97	6534.4	
436.17	6617.7	
436.37	5845.6	
436.57	6350.1	
436.78	6184.9	
436.98	7611.6	
437.18	6450.4	
437.38	7014.3	
437.58	6593.1	
437.78	6597.9	
437.99	5142.4	
438.19	7088	
438.39	7866.2	
438.59	5074.2	
438.79	4489.8	
438.99	7788.4	
439.2	6541.2	
439.4	4740.4	
439.6	4698.7	
439.8	6869.6	
440	8008.9	
440.2	5786.2	
440.4	5854.5	
440.61	7260	
440.81	7861.5	
441.01	4857.1	
441.21	5821.7	
441.41	7610.3	
441.61	7299.6	
441.81	6094.1	
442.02	7187.7	
442.22	8189.8	
442.42	7391.8	
442.62	4939	
442.82	5025.7	
443.02	7767.9	
443.22	6720.1	
443.43	5453.7	
443.63	5014.8	
443.83	6533	
444.03	6617	
444.23	6328.9	
444.43	5767.8	
444.63	6941.2	
444.83	8178.2	
445.04	5063.9	
445.24	6410.8	
445.44	7279.8	
445.64	7391.1	
445.84	5937.7	
446.04	5939.8	
446.24	6640.2	
446.44	7741.3	
446.65	5086.5	
446.85	5502.9	
447.05	6716.7	
447.25	7642.3	
447.45	5563.6	
447.65	4902.8	
447.85	6934.4	
448.05	6548	
448.25	5996.5	
448.46	5784.1	
448.66	6920.1	
448.86	6660	
449.06	4753.3	
449.26	6019	
449.46	7357	
449.66	6304.3	
449.86	5469.4	
450.06	5444.9	
450.26	6580.8	
450.47	7157	
450.67	5750.7	
450.87	6208.1	
451.07	7203.4	
451.27	7052.5	
451.47	4997.7	
451.67	5608.7	
451.87	6620.4	
452.07	7920.2	
452.27	5268.7	
452.47	5285.8	
452.67	6996.5	
452.88	7643	
453.08	4556.7	
453.28	6773.3	
453.48	8291.5	
453.68	6922.8	
453.88	5099.4	
454.08	5413.5	
454.28	7369.3	
454.48	7008.8	
454.68	5980.8	
454.88	6539.8	
455.08	7557.7	
455.28	7135.8	
455.48	4958.1	
455.68	5739.1	
455.89	7888.8	
456.09	7548.1	
456.29	5420.3	
456.49	5409.4	
456.69	7817.1	
456.89	7014.3	
457.09	5993.7	
457.29	6412.9	
457.49	7386.3	
457.69	7572.7	
457.89	5749.3	
458.09	5126.1	
458.29	7154.2	
458.49	7847.8	
458.69	6171.9	
458.89	5676.3	
459.09	8112.7	
459.29	8320.2	
459.49	5751.4	
459.69	6561.7	
459.9	7540.6	
460.1	7118.7	
460.3	5578.7	
460.5	5371.8	
460.7	7570.7	
460.9	7249.1	
461.1	5004.6	
461.3	6397.9	
461.5	8283.4	
461.7	7923.6	
461.9	5439.4	
462.1	6021.7	
462.3	7292.1	
462.5	7995.3	
462.7	5610.1	
462.9	5631.2	
463.1	9079.3	
463.3	8713.4	
463.5	5819	
463.7	6781.5	
463.9	7548.1	
464.1	7927	
464.3	6004.6	
464.5	6191	
464.7	8129.1	
464.9	7876.5	
465.1	7673.1	
465.3	6534.4	
465.5	8523.6	
465.7	8557.8	
465.9	6859.3	
466.1	6647	
466.3	8402.8	
466.5	8099	
466.7	7586.4	
466.9	6364.4	
467.1	8036.2	
467.3	8980.3	
467.5	7542.7	
467.7	6225.1	
467.9	9260.9	
468.1	10254	
468.3	7292.8	
468.5	7550.2	
468.7	8032.1	
468.9	7996	
469.1	6652.5	
469.3	7365.9	
469.5	10079	
469.7	7547.4	
469.9	7119.4	
470.1	6354.2	
470.3	8019.8	
470.5	8060.8	
470.7	7705.8	
470.9	6292	
471.1	7801.4	
471.3	8299.1	
471.5	6189	
471.69	8235.6	
471.89	7586.4	
472.09	7202	
472.29	7107.1	
472.49	7533.1	
472.69	7374.1	
472.89	8287.4	
473.09	6114.6	
473.29	6291.4	
473.49	7568.6	
473.69	7759.8	
473.89	7365.2	
474.09	6417.7	
474.29	9116.9	
474.49	8805.6	
474.69	7294.2	
474.89	6647.7	
475.09	7785	
475.29	7776.8	
475.49	6007.4	
475.69	6219.7	
475.88	9449.3	
476.08	8059.4	
476.28	5945.3	
476.48	6365.1	
476.68	8615.1	
476.88	8403.5	
477.08	6251.8	
477.28	6537.1	
477.48	7925	
477.68	8609	
477.88	6139.8	
478.08	6421.7	
478.28	8921	
478.48	8008.2	
478.67	6427.2	
478.87	5879.7	
479.07	8632.9	
479.27	8215.8	
479.47	6685.3	
479.67	6662	
479.87	8506.6	
480.07	9053.4	
480.27	5894.1	
480.47	7669.6	
480.67	8188.5	
480.87	8875.9	
481.06	6279.8	
481.26	7029.3	
481.46	8071.7	
481.66	8039.6	
481.86	6636.8	
482.06	7781.6	
482.26	7818.5	
482.46	8801.5	
482.66	6581.5	
482.86	6178	
483.05	8175.5	
483.25	7567.9	
483.45	9273.9	
483.65	6612.2	
483.85	7748.8	
484.05	8111.3	
484.25	7099.6	
484.45	7616.4	
484.65	8994	
484.84	9024.7	
485.04	6522.8	
485.24	6525.5	
485.44	9262.3	
485.64	7523.6	
485.84	5764.3	
486.04	7286.7	
486.24	7833.5	
486.44	8336.6	
486.63	5734.3	
486.83	6662	
487.03	7755	
487.23	8017.1	
487.43	5892.7	
487.63	8396	
487.83	8071.7	
488.02	9104.6	
488.22	6943.3	
488.42	7460.1	
488.62	9068.4	
488.82	7956.4	
489.02	6565.1	
489.22	6561	
489.41	8826.7	
489.61	8396.7	
489.81	6274.3	
490.01	6327.5	
490.21	8795.3	
490.41	9424.8	
490.61	6320	
490.8	6337.1	
491	8135.2	
491.2	7422.5	
491.4	7060	
491.6	6091.3	
491.8	8168.7	
491.99	8353	
492.19	5964.4	
492.39	6361	
492.59	8808.3	
492.79	8865	
492.99	7271.7	
493.18	6356.9	
493.38	8914.1	
493.58	9684.8	
493.78	7073	
493.98	6657.3	
494.18	8607.6	
494.37	8036.9	
494.57	7354.9	
494.77	7195.9	
494.97	8773.5	
495.17	9140.1	
495.37	6719.4	
495.56	7127.6	
495.76	9209.7	
495.96	8840.4	
496.16	8097.7	
496.36	6933.1	
496.55	9048.6	
496.75	8528.4	
496.95	7307.8	
497.15	7030.7	
497.35	9106	
497.54	9000.8	
497.74	6899.6	
497.94	8790.6	
498.14	9794.1	
498.34	9492.3	
498.53	6627.2	
498.73	7322.9	
498.93	8413.7	
499.13	8973.5	
499.33	7256.6	
499.52	7722.2	
499.72	8940.7	
499.92	9358.5	
500.12	6842.9	
500.32	7169.9	
500.51	9187.2	
500.71	9076.6	
500.91	7945.4	
501.11	7499.7	
501.31	9210.4	
501.5	9588.6	
501.7	8328.4	
501.9	7189.7	
502.1	8943.5	
502.29	9349	
502.49	7696.3	
502.69	8140.7	
502.89	9181	
503.09	9134.6	
503.28	6647	
503.48	6819.7	
503.68	8304.5	
503.88	8398	
504.07	7805.5	
504.27	7309.2	
504.47	8789.2	
504.67	8940.7	
504.86	7753.6	
505.06	7382.9	
505.26	8506.6	
505.46	10385	
505.65	7240.9	
505.85	7481.9	
506.05	8320.2	
506.25	8841.8	
506.44	6596.5	
506.64	7573.4	
506.84	8207.6	
507.04	9273.9	
507.23	6761	
507.43	7372	
507.63	10357	
507.83	8631.5	
508.02	7379.5	
508.22	7078.5	
508.42	10592	
508.62	8256.7	
508.81	7215.7	
509.01	7848.5	
509.21	8142.7	
509.4	8318.2	
509.6	7468.3	
509.8	6791.1	
510	8455.4	
510.19	10030	
510.39	6754.9	
510.59	6842.3	
510.79	8240.3	
510.98	9596.8	
511.18	6893.5	
511.38	7086	
511.57	9093.7	
511.77	8962.6	
511.97	7733.8	
512.17	6642.9	
512.36	9017.9	
512.56	9084.8	
512.76	6688	
512.95	6488	
513.15	9165.3	
513.35	7786.4	
513.55	7742	
513.74	6825.9	
513.94	9104.6	
514.14	8444.5	
514.33	7784.3	
514.53	7529	
514.73	8458.8	
514.92	8727.1	
515.12	6911.2	
515.32	6748.7	
515.51	8761.2	
515.71	9344.9	
515.91	8654.7	
516.11	6895.5	
516.3	10617	
516.5	8340	
516.7	7521.5	
516.89	8103.1	
517.09	8523.6	
517.29	8331.1	
517.48	7846.5	
517.68	7167.9	
517.88	8181.6	
518.07	8786.5	
518.27	7673.7	
518.47	6649.1	
518.66	9463	
518.86	7976.2	
519.06	6474.3	
519.25	6924.9	
519.45	8417.2	
519.65	10012	
519.84	7617.8	
520.04	8327.7	
520.24	10256	
520.43	9009	
520.63	7320.1	
520.83	7062.8	
521.02	8174.8	
521.22	8902.5	
521.42	7727.7	
521.61	8248.5	
521.81	8436.9	
522.01	8611	
522.2	7421.8	
522.4	7283.9	
522.6	9149	
522.79	7784.3	
522.99	7404.1	
523.18	6608.1	
523.38	8944.2	
523.58	8880.7	
523.77	8697	
523.97	6630.6	
524.17	10748	
524.36	9957.2	
524.56	8056.7	
524.76	7594.6	
524.95	8919.6	
525.15	8598.1	
525.34	7385	
525.54	7331.7	
525.74	9209.7	
525.93	8291.5	
526.13	8696.4	
526.33	7366.5	
526.52	9583.8	
526.72	9056.8	
526.91	8663.6	
527.11	7916.1	
527.31	9627.5	
527.5	10045	
527.7	7751.6	
527.89	6791.1	
528.09	8449.9	
528.29	9095.7	
528.48	8291.5	
528.68	7872.4	
528.87	9454.8	
529.07	9590	
529.27	7701	
529.46	7176.1	
529.66	9018.6	
529.85	9517.6	
530.05	6971.3	
530.25	7937.2	
530.44	10611	
530.64	9045.2	
530.83	7442.3	
531.03	7716.7	
531.23	9484.8	
531.42	9393.3	
531.62	8531.8	
531.81	7709.9	
532.01	9590.6	
532.21	10147	
532.4	7435.5	
532.6	7773.4	
532.79	10423	
532.99	9680.7	
533.18	7892.9	
533.38	8884.8	
533.58	9150.3	
533.77	10127	
533.97	7757	
534.16	8692.9	
534.36	10277	
534.55	9280.7	
534.75	8738	
534.95	7804.8	
535.14	10043	
535.34	9196.7	
535.53	7481.2	
535.73	9643.9	
535.92	10565	
536.12	9368.8	
536.31	7539.9	
536.51	8923	
536.71	9742.9	
536.9	9224.1	
537.1	7705.1	
537.29	7963.9	
537.49	10102	
537.68	9174.2	
537.88	8295.6	
538.07	7453.2	
538.27	9431.6	
538.46	10460	
538.66	7437.5	
538.86	7843	
539.05	9480.7	
539.25	9929.9	
539.44	8116.8	
539.64	7696.9	
539.83	9220	
540.03	10324	
540.22	7558.4	
540.42	7741.3	
540.61	9480.7	
540.81	9679.4	
541	8268.3	
541.2	8885.5	
541.39	9029.5	
541.59	9501.2	
541.78	8531.8	
541.98	7591.8	
542.18	8721.6	
542.37	8637.6	
542.57	8032.1	
542.76	8559.8	
542.96	8757.8	
543.15	9548.3	
543.35	8011	
543.54	7295.5	
543.74	9798.2	
543.93	9379.7	
544.13	7965.2	
544.32	9122.3	
544.52	9719.7	
544.71	8865.7	
544.91	7035.5	
545.1	8341.4	
545.3	8933.9	
545.49	9645.9	
545.69	6950.8	
545.88	7614.3	
546.08	10552	
546.27	10062	
546.47	8141.4	
546.66	7431.4	
546.86	9817.3	
547.05	10453	
547.24	7645.8	
547.44	7475.1	
547.63	8716.2	
547.83	9983.8	
548.02	7821.2	
548.22	8144.8	
548.41	8516.8	
548.61	9943.6	
548.8	7471	
549	7238.2	
549.19	9192.6	
549.39	9551	
549.58	7067.5	
549.78	7718.8	
549.97	9596.8	
550.17	9064.3	
550.36	9392	
550.55	9656.2	
550.75	9065	
550.94	10006	
551.14	7309.2	
551.33	7751.6	
551.53	8385.7	
551.72	9515.5	
551.92	7830.1	
552.11	7503.1	
552.31	9439.1	
552.5	9478.7	
552.69	9293	
552.89	7123.5	
553.08	9416.6	
553.28	9114.1	
553.47	7507.9	
553.67	8760.5	
553.86	10220	
554.06	8346.2	
554.25	6632	
554.44	7250.5	
554.64	10879	
554.83	10331	
555.03	7230.7	
555.22	7614.3	
555.42	9688.9	
555.61	9334	
555.8	7542	
556	7821.9	
556.19	8413.1	
556.39	9766.8	
556.58	7502.4	
556.78	7508.5	
556.97	9228.8	
557.16	8925	
557.36	8799.4	
557.55	7116	
557.75	8142.7	
557.94	10006	
558.13	7234.8	
558.33	6962.4	
558.52	9801.6	
558.72	8586.5	
558.91	7049.8	
559.1	7407.5	
559.3	8388.5	
559.49	8079.9	
559.69	6718	
559.88	7762.5	
560.07	9205.6	
560.27	9654.1	
560.46	7957	
560.66	8043.7	
560.85	8877.9	
561.04	8194.6	
561.24	7060.7	
561.43	7262.1	
561.63	8346.8	
561.82	8714.1	
562.01	8661.5	
562.21	7648.5	
562.4	9166.7	
562.59	10109	
562.79	7552.9	
562.98	7116.7	
563.18	9117.6	
563.37	10577	
563.56	7989.1	
563.76	6879.8	
563.95	8473.1	
564.14	8383.7	
564.34	7456.7	
564.53	7208.8	
564.73	8997.4	
564.92	9441.8	
565.11	7582.9	
565.31	6961.7	
565.5	9661	
565.69	8660.2	
565.89	7146	
566.08	7390.4	
566.27	9604.3	
566.47	9980.4	
566.66	8103.8	
566.85	6714.6	
567.05	9058.2	
567.24	8406.2	
567.44	7058	
567.63	8478.6	
567.82	9270.5	
568.02	9073.2	
568.21	7113.3	
568.4	7488.1	
568.6	8859.5	
568.79	8939.4	
568.98	6882.5	
569.18	7114	
569.37	8918.9	
569.56	10970	
569.76	7421.8	
569.95	8357.1	
570.14	9291	
570.34	9129.8	
570.53	6862.7	
570.72	6898.2	
570.91	9754.5	
571.11	8861.6	
571.3	7444.4	
571.49	8349.6	
571.69	8862.2	
571.88	8420.6	
572.07	7919.5	
572.27	7941.3	
572.46	8368	
572.65	9479.4	
572.85	7101.7	
573.04	7481.9	
573.23	9669.8	
573.43	9012.4	
573.62	6873.7	
573.81	7638.9	
574	8939.4	
574.2	8812.4	
574.39	7307.8	
574.58	7449.1	
574.78	9919	
574.97	9093.7	
575.16	7794.6	
575.36	7978.9	
575.55	9470.5	
575.74	9652.8	
575.93	6901.7	
576.13	8060.1	
576.32	8824	
576.51	9460.3	
576.71	7305.1	
576.9	8743.5	
577.09	9710.1	
577.28	9243.2	
577.48	7857.4	
577.67	6722.8	
577.86	8822	
578.05	9222	
578.25	7503.8	
578.44	7546.8	
578.63	9002.9	
578.83	10226	
579.02	6789.7	
579.21	8486.1	
579.4	9196.7	
579.6	8815.1	
579.79	7649.8	
579.98	9929.2	
580.17	9585.2	
580.37	9699.2	
580.56	7087.3	
580.75	7881.3	
580.94	10183	
581.14	9977	
581.33	8310.7	
581.52	7333.8	
581.71	9473.2	
581.91	10169	
582.1	6825.9	
582.29	7673.7	
582.48	9170.8	
582.68	9050	
582.87	8066.3	
583.06	7718.8	
583.25	9346.2	
583.45	8712.7	
583.64	8427.4	
583.83	9121	
584.02	8890.9	
584.21	9434.3	
584.41	8327.7	
584.6	7647.1	
584.79	9150.3	
584.98	9925.1	
585.18	7063.4	
585.37	7097.6	
585.56	8612.4	
585.75	9505.3	
585.94	7354.9	
586.14	7975.5	
586.33	10017	
586.52	9039.1	
586.71	7761.1	
586.91	7422.5	
587.1	8491.6	
587.29	9499.8	
587.48	7476.5	
587.67	7253.2	
587.87	9371.5	
588.06	9508.7	
588.25	8661.5	
588.44	7898.3	
588.63	9017.2	
588.83	9505.3	
589.02	7299	
589.21	7175.4	
589.4	8676.6	
589.59	8449.2	
589.78	6377.4	
589.98	6615.6	
590.17	7998	
590.36	8649.3	
590.55	5959.6	
590.74	6830	
590.94	10036	
591.13	8561.9	
591.32	6621.8	
591.51	6150.1	
591.7	9075.2	
591.89	8451.3	
592.09	6318	
592.28	6773.3	
592.47	7773.4	
592.66	9621.4	
592.85	6298.9	
593.05	6589.7	
593.24	8361.9	
593.43	9168.8	
593.62	6555.5	
593.81	7079.1	
594	8335.9	
594.19	8615.1	
594.39	6520	
594.58	6434.7	
594.77	8719.6	
594.96	9324.4	
595.15	6432	
595.34	7040.2	
595.54	8761.2	
595.73	7806.2	
595.92	5798.5	
596.11	6951.5	
596.3	9359.9	
596.49	7823.2	
596.68	6787	
596.88	7220.5	
597.07	9044.5	
597.26	7765.2	
597.45	6208.1	
597.64	7585	
597.83	8050.6	
598.02	8707.3	
598.22	6353.5	
598.41	7032	
598.6	8491.6	
598.79	7933.8	
598.98	6444.3	
599.17	7400	
599.36	8557.1	
599.55	9800.9	
599.74	8572.8	
599.94	8365.3	
600.13	9074.5	
600.32	7880.6	
600.51	6232.7	
600.7	6403.3	
600.89	9846.6	
601.08	9813.2	
601.27	6150.1	
601.47	7188.4	
601.66	9070.5	
601.85	9742.9	
602.04	6862.1	
602.23	6902.3	
602.42	8079.2	
602.61	8752.3	
602.8	6766.5	
602.99	6513.9	
603.18	8456.1	
603.37	8725.7	
603.57	7331.7	
603.76	7830.7	
603.95	9486.9	
604.14	9017.9	
604.33	6745.3	
604.52	6996.5	
604.71	8862.2	
604.9	8275.2	
605.09	7554.3	
605.28	7389.8	
605.47	9282.1	
605.66	8977.6	
605.86	7197.9	
606.05	6659.3	
606.24	9222.7	
606.43	7754.3	
606.62	6943.3	
606.81	7853.3	
607	9099.1	
607.19	8429.4	
607.38	6391.7	
607.57	6666.1	
607.76	8181.6	
607.95	7630.7	
608.14	7019.8	
608.33	7707.2	
608.52	8192.6	
608.72	9129.2	
608.91	6347.3	
609.1	6220.4	
609.29	8265.6	
609.48	7787.1	
609.67	7208.8	
609.86	6243.6	
610.05	7824.6	
610.24	8195.3	
610.43	6121.4	
610.62	5693.4	
610.81	9336.7	
611	9144.9	
611.19	6269.5	
611.38	7012.2	
611.57	8560.5	
611.76	9947.7	
611.95	5986.2	
612.14	5928.2	
612.33	8316.1	
612.52	7793.2	
612.71	6662	
612.9	5816.9	
613.09	7392.5	
613.28	9878	
613.47	6238.8	
613.66	7320.1	
613.85	8426.7	
614.04	7927	
614.24	6433.4	
614.43	5600.5	
614.62	8512.7	
614.81	8510.7	
615	7004.7	
615.19	7025.2	
615.38	7800.7	
615.57	8190.5	
615.76	6859.3	
615.95	7863.5	
616.14	8561.2	
616.33	8262.9	
616.52	7184.3	
616.71	7453.9	
616.9	8570.1	
617.09	8348.9	
617.28	6424.5	
617.47	7911.3	
617.66	7667.6	
617.85	7658.7	
618.04	7532.4	
618.22	6903	
618.41	7901.1	
618.6	8902.5	
618.79	6795.8	
618.98	6455.2	
619.17	9231.6	
619.36	7514.7	
619.55	6654.5	
619.74	6665.5	
619.93	8452	
620.12	7814.4	
620.31	7199.3	
620.5	7391.8	
620.69	9060.9	
620.88	9467.1	
621.07	8157.7	
621.26	7055.9	
621.45	8563.2	
621.64	8654.7	
621.83	7296.9	
622.02	6340.5	
622.21	8804.2	
622.4	8419.9	
622.59	7673.1	
622.78	7516	
622.97	7955.7	
623.16	9181.7	
623.35	7090.8	
623.54	6309.1	
623.72	8247.2	
623.91	8338	
624.1	7492.8	
624.29	6007.4	
624.48	9488.2	
624.67	8687.5	
624.86	7315.3	
625.05	6291.4	
625.24	9564.7	
625.43	7907.9	
625.62	9144.2	
625.81	6491.4	
626	8944.2	
626.19	8256	
626.38	7350.8	
626.56	6666.1	
626.75	7974.1	
626.94	8755.1	
627.13	7245.7	
627.32	5890	
627.51	8630.8	
627.7	10037	
627.89	6041.5	
628.08	7274.4	
628.27	7855.3	
628.46	8015.7	
628.65	6315.3	
628.83	5936.4	
629.02	8595.3	
629.21	7920.2	
629.4	6911.9	
629.59	7031.4	
629.78	7809.6	
629.97	8819.2	
630.16	7107.8	
630.35	6569.9	
630.54	9230.2	
630.72	8924.4	
630.91	6589	
631.1	7118.1	
631.29	8420.6	
631.48	8656.1	
631.67	7104.4	
631.86	6669.6	
632.05	8066.3	
632.24	8125	
632.42	6277	
632.61	7016.3	
632.8	8161.8	
632.99	7811	
633.18	6885.3	
633.37	7330.4	
633.56	8376.2	
633.75	8287.4	
633.93	6844.3	
634.12	6550.1	
634.31	9302.6	
634.5	8903.2	
634.69	6555.5	
634.88	7197.9	
635.07	8145.5	
635.25	8831.5	
635.44	7557	
635.63	7789.8	
635.82	8060.1	
636.01	7491.5	
636.2	7558.4	
636.39	7023.2	
636.57	9248.6	
636.76	8918.9	
636.95	6406.7	
637.14	7828	
637.33	8477.9	
637.52	9536.7	
637.7	6216.3	
637.89	7240.9	
638.08	8052.6	
638.27	9611.8	
638.46	7253.2	
638.65	7770.7	
638.83	9615.2	
639.02	7876.5	
639.21	7123.5	
639.4	7686.7	
639.59	8400.1	
639.78	7888.1	
639.96	6420.4	
640.15	6428.6	
640.34	8234.2	
640.53	8405.5	
640.72	6113.9	
640.91	6507.1	
641.09	7633.5	
641.28	9097.8	
641.47	6511.2	
641.66	7332.4	
641.85	8271.1	
642.03	8604.2	
642.22	7122.2	
642.41	6511.9	
642.6	7696.9	
642.79	7089.4	
642.97	6343.9	
643.16	7138.5	
643.35	7716.7	
643.54	7533.1	
643.73	6247.7	
643.91	7079.1	
644.1	7344.7	
644.29	8018.5	
644.48	6311.2	
644.67	6386.2	
644.85	7544.7	
645.04	7905.2	
645.23	5866.1	
645.42	6181.5	
645.6	7346.7	
645.79	8525.7	
645.98	6164.4	
646.17	5128.8	
646.36	7079.1	
646.54	7812.3	
646.73	7012.2	
646.92	5705	
647.11	7302.4	
647.29	8467	
647.48	5814.9	
647.67	5558.2	
647.86	8723	
648.05	8714.1	
648.23	6236.1	
648.42	7498.3	
648.61	8112	
648.8	7753.6	
648.98	5787.6	
649.17	6166.4	
649.36	7385.7	
649.55	6815.6	
649.73	5885.9	
649.92	6678.4	
650.11	7200.7	
650.3	7512.6	
650.48	5997.1	
650.67	5737.7	
650.86	7888.8	
651.05	6708.5	
651.23	5965.1	
651.42	5896.8	
651.61	7261.4	
651.79	7443.7	
651.98	6146.6	
652.17	5711.8	
652.36	7833.5	
652.54	6820.4	
652.73	5941.2	
652.92	5611.4	
653.11	7826	
653.29	7914.7	
653.48	5068	
653.67	6161	
653.85	7527	
654.04	8625.4	
654.23	6306.4	
654.42	5801.9	
654.6	6996.5	
654.79	7751.6	
654.98	5264	
655.16	5803.9	
655.35	6703.7	
655.54	6661.4	
655.73	5396.4	
655.91	5311.7	
656.1	7854	
656.29	6645.7	
656.47	4865.3	
656.66	6675.7	
656.85	6911.9	
657.03	6949.4	
657.22	5459.9	
657.41	5541.8	
657.59	7022.5	
657.78	6830.7	
657.97	5147.2	
658.16	5886.5	
658.34	7692.9	
658.53	8092.9	
658.72	6862.7	
658.9	7395.9	
659.09	7065.5	
659.28	7158.3	
659.46	5679.7	
659.65	5554.8	
659.84	6953.5	
660.02	7419.8	
660.21	5414.1	
660.4	5453.7	
660.58	7952.3	
660.77	7199.3	
660.96	6110.5	
661.14	5016.8	
661.33	8424.7	
661.52	8328.4	
661.7	5019.6	
661.89	8927.8	
662.08	6831.3	
662.26	6419	
662.45	5270.8	
662.64	5457.8	
662.82	7514	
663.01	6689.3	
663.2	5483.8	
663.38	6298.2	
663.57	7501.7	
663.75	7293.5	
663.94	5812.1	
664.13	7056.6	
664.31	6808.1	
664.5	7570	
664.69	6215.6	
664.87	6674.3	
665.06	6513.2	
665.25	7331.7	
665.43	6887.3	
665.62	7000.6	
665.8	7657.4	
665.99	6978.1	
666.18	5794.4	
666.36	5851.7	
666.55	7661.5	
666.74	7524.2	
666.92	5421.7	
667.11	7090.1	
667.29	7027.3	
667.48	7626	
667.67	6721.4	
667.85	5803.3	
668.04	7023.9	
668.22	6963.1	
668.41	5853.1	
668.6	6066.1	
668.78	6813.6	
668.97	7021.8	
669.15	6221	
669.34	5111	
669.53	6759	
669.71	7176.8	
669.9	5300.1	
670.08	6005.3	
670.27	6777.4	
670.46	7410.9	
670.64	6246.3	
670.83	6453.8	
671.01	6610.8	
671.2	7297.6	
671.38	5354.1	
671.57	5328.8	
671.76	7924.3	
671.94	8573.5	
672.13	5223	
672.31	6398.5	
672.5	7527.7	
672.69	6762.4	
672.87	5376.6	
673.06	5763.7	
673.24	7320.8	
673.43	6810.2	
673.61	6194.4	
673.8	5696.8	
673.98	7466.2	
674.17	7695.6	
674.36	6378.7	
674.54	6127.5	
674.73	7268.2	
674.91	7572	
675.1	5796.4	
675.28	5492	
675.47	7050.5	
675.65	7585.7	
675.84	5674.2	
676.03	6000.5	
676.21	6829.3	
676.4	6287.3	
676.58	6562.4	
676.77	6236.1	
676.95	8212.4	
677.14	6755.6	
677.32	5332.2	
677.51	5088.5	
677.69	7553.6	
677.88	6331.6	
678.06	5209.3	
678.25	5347.2	
678.44	6974.7	
678.62	6716.7	
678.81	5073.5	
678.99	6075	
679.18	7903.8	
679.36	7405.5	
679.55	5608.7	
679.73	6338.5	
679.92	7348.1	
680.1	6771.3	
680.29	6888	
680.47	5588.2	
680.66	6637.5	
680.84	7574.8	
681.03	4903.5	
681.21	6063.4	
681.4	6804	
681.58	6675.7	
681.77	5365	
681.95	5292	
682.14	7634.1	
682.32	7950.2	
682.51	6292.7	
682.69	5111.7	
682.88	6685.3	
683.06	7325.6	
683.25	5976.7	
683.43	6506.4	
683.62	6894.8	
683.8	7443	
683.99	6610.8	
684.17	5841.5	
684.36	8277.9	
684.54	6881.2	
684.73	4913.1	
684.91	5190.9	
685.1	7176.8	
685.28	6463.4	
685.46	5766.4	
685.65	5831.2	
685.83	7455.3	
686.02	6806.1	
686.2	5279.7	
686.39	5400.5	
686.57	6540.5	
686.76	8172.8	
686.94	5227.1	
687.13	5443.5	
687.31	7335.8	
687.5	6732.4	
687.68	4861.2	
687.86	6168.5	
688.05	8618.5	
688.23	6249	
688.42	6253.8	
688.6	5335	
688.79	6651.1	
688.97	6677.1	
689.16	5758.9	
689.34	4601.8	
689.52	7447.1	
689.71	7616.4	
689.89	6079.7	
690.08	5283.8	
690.26	6905.1	
690.45	6787.7	
690.63	6164.4	
690.81	5438	
691	6591.7	
691.18	6535.1	
691.37	5602.6	
691.55	7849.9	
691.74	6457.2	
691.92	8568	
692.1	5576.6	
692.29	4925.4	
692.47	6782.9	
692.66	5991.7	
692.84	5196.4	
693.02	5819.6	
693.21	6184.9	
693.39	6681.8	
693.58	5893.4	
693.76	5406	
693.94	7911.3	
694.13	7755	
694.31	5260.5	
694.5	6323.4	
694.68	6447.7	
694.86	6858	
695.05	5665.4	
695.23	5769.1	
695.42	7315.3	
695.6	9669.1	
695.78	6268.1	
695.97	5298.8	
696.15	7221.1	
696.34	6614.9	
696.52	5081	
696.7	5939.8	
696.89	7023.2	
697.07	6385.6	
697.25	5858.6	
697.44	7451.2	
697.62	6922.8	
697.81	7351.5	
697.99	5526.8	
698.17	6028.5	
698.36	6254.5	
698.54	7019.8	
698.72	5827.2	
698.91	4779.3	
699.09	6495.5	
699.28	6404	
699.46	5517.9	
699.64	5361.6	
699.83	6294.8	
700.01	7657.4	
700.19	6219	
700.38	4621.6	
700.56	7627.3	
700.74	6518	
700.93	5016.2	
701.11	5943.2	
701.29	7065.5	
701.48	8224	
701.66	5311.7	
701.84	5298.1	
702.03	6614.9	
702.21	7328.3	
702.39	4825	
702.58	5433.3	
702.76	7015.7	
702.94	7108.5	
703.13	4781.3	
703.31	7353.6	
703.49	6253.8	
703.68	7885.4	
703.86	5073.5	
704.04	6012.8	
704.23	6806.1	
704.41	7223.2	
704.59	5148.6	
704.78	6444.3	
704.96	8045.8	
705.14	7301	
705.33	4850.3	
705.51	5916.6	
705.69	6692.1	
705.87	7589.8	
706.06	6135	
706.24	4955.4	
706.42	7019.8	
706.61	7260.7	
706.79	6154.8	
706.97	4944.5	
707.16	6394.4	
707.34	7055.3	
707.52	6068.8	
707.7	5274.2	
707.89	6652.5	
708.07	6335	
708.25	6215.6	
708.44	6204	
708.62	6476.4	
708.8	7666.9	
708.98	6414.9	
709.17	5244.2	
709.35	6948.1	
709.53	6980.8	
709.72	4965.6	
709.9	5199.8	
710.08	7217	
710.26	7253.2	
710.45	6666.1	
710.63	5439.4	
710.81	6885.3	
710.99	6900.3	
711.18	5962.3	
711.36	5474.9	
711.54	6719.4	
711.72	7439.6	
711.91	5586.2	
712.09	4870.8	
712.27	6894.1	
712.45	7580.2	
712.64	5814.9	
712.82	4742.4	
713	6248.4	
713.18	6440.2	
713.37	4845.5	
713.55	6161	
713.73	7351.5	
713.91	5840.8	
714.1	5300.1	
714.28	4716.5	
714.46	6953.5	
714.64	6189	
714.83	4117.8	
715.01	5106.3	
715.19	6261.3	
715.37	5636	
715.55	4769.7	
715.74	5141.1	
715.92	7339.9	
716.1	5210	
716.28	6343.2	
716.47	5305.6	
716.65	5885.2	
716.83	6133	
717.01	5057.1	
717.19	5213.4	
717.38	8221.9	
717.56	5675.6	
717.74	5388.9	
717.92	4483.7	
718.1	7043	
718.29	6151.4	
718.47	4089.1	
718.65	4813.4	
718.83	6951.5	
719.01	6793.8	
719.2	3938.2	
719.38	5159.5	
719.56	6526.2	
719.74	8155.7	
719.92	4631.1	
720.11	5819	
720.29	6481.8	
720.47	5598.5	
720.65	4264.6	
720.83	5091.9	
721.02	5926.1	
721.2	5698.1	
721.38	5220.3	
721.56	4419.5	
721.74	5273.5	
721.92	5515.9	
722.11	5693.4	
722.29	5459.2	
722.47	6813.6	
722.65	5956.9	
722.83	4467.3	
723.01	5542.5	
723.2	6020.3	
723.38	6283.9	
723.56	3835.8	
723.74	5114.5	
723.92	5491.3	
724.1	6744.6	
724.29	4364.9	
724.47	5595.7	
724.65	5505.6	
724.83	5453.1	
725.01	4243.4	
725.19	5264	
725.37	5547.3	
725.56	5662	
725.74	4123.9	
725.92	4413.4	
726.1	5459.2	
726.28	5754.8	
726.46	4879.6	
726.64	4575.2	
726.83	5732.3	
727.01	6069.5	
727.19	4111	
727.37	5001.1	
727.55	5855.1	
727.73	6500.9	
727.91	4104.1	
728.09	3902.1	
728.28	6493.4	
728.46	7162.4	
728.64	5093.3	
728.82	5076.2	
729	7649.8	
729.18	6865.5	
729.36	4235.9	
729.54	6756.9	
729.72	7954.3	
729.91	6097.5	
730.09	6348	
730.27	4965	
730.45	6006.7	
730.63	6701	
730.81	5654.4	
730.99	4590.2	
731.17	7274.4	
731.35	5714.5	
731.53	5231.9	
731.71	4767	
731.9	6954.2	
732.08	7195.2	
732.26	4976.6	
732.44	4734.9	
732.62	7144	
732.8	6639.5	
732.98	5514.5	
733.16	4474.8	
733.34	6664.1	
733.52	5328.1	
733.7	4980.7	
733.88	5369.8	
734.07	6498.9	
734.25	6189	
734.43	4478.2	
734.61	6198.5	
734.79	7791.2	
734.97	6091.3	
735.15	4646.8	
735.33	5001.8	
735.51	6505.7	
735.69	6068.1	
735.87	6213.5	
736.05	5222.3	
736.23	6353.5	
736.41	6140.5	
736.59	5055.8	
736.77	5170.4	
736.95	6825.9	
737.13	6201.9	
737.32	4689.8	
737.5	4945.8	
737.68	7397.9	
737.86	6161	
738.04	4463.9	
738.22	6553.5	
738.4	5870.2	
738.58	6256.5	
738.76	5199.8	
738.94	4029	
739.12	6087.2	
739.3	5876.3	
739.48	5870.8	
739.66	5607.3	
739.84	6322.8	
740.02	6363	
740.2	4124.6	
740.38	4594.3	
740.56	6748.1	
740.74	5566.4	
740.92	5276.9	
741.1	5221	
741.28	6181.5	
741.46	6027.9	
741.64	4827.7	
741.82	5335.6	
742	6191	
742.18	6195.8	
742.36	5106.3	
742.54	4622.3	
742.72	6870.3	
742.9	5463.3	
743.08	5481.7	
743.26	4192.9	
743.44	7034.1	
743.62	6929	
743.8	5658.5	
743.98	4620.9	
744.16	6612.2	
744.34	6281.1	
744.52	5552.7	
744.7	5477	
744.88	6742.6	
745.06	6186.2	
745.24	5631.2	
745.42	5794.4	
745.6	6802.7	
745.78	6501.6	
745.96	4411.3	
746.14	4674.1	
746.32	7600.7	
746.5	6822.5	
746.68	5300.1	
746.86	4717.8	
747.03	7311.2	
747.21	5454.4	
747.39	5244.2	
747.57	4737	
747.75	6353.5	
747.93	6874.3	
748.11	4724.7	
748.29	4622.9	
748.47	8099.7	
748.65	6048.3	
748.83	5461.9	
749.01	5058.5	
749.19	6632	
749.37	5767.8	
749.55	5089.9	
749.73	5183.4	
749.91	6236.1	
750.09	5922	
750.26	5204.6	
750.44	4537.6	
750.62	6367.1	
750.8	6247	
750.98	4383.3	
751.16	4855.1	
751.34	6357.6	
751.52	5654.4	
751.7	5595.7	
751.88	4363.5	
752.06	6918	
752.24	6727.6	
752.42	4290.5	
752.59	4775.9	
752.77	6252.4	
752.95	7619.1	
753.13	5581.4	
753.31	4876.9	
753.49	5973.9	
753.67	6436.8	
753.85	5212.1	
754.03	4829.8	
754.21	6742.6	
754.38	7108.5	
754.56	4983.4	
754.74	3874.8	
754.92	5944.6	
755.1	6722.1	
755.28	3985.3	
755.46	4023.6	
755.64	7483.3	
755.82	7571.3	
755.99	4307.6	
756.17	4437.9	
756.35	4954.7	
756.53	6627.2	
756.71	3219.4	
756.89	4219.5	
757.07	6186.2	
757.25	5195	
757.42	4816.8	
757.6	5779.4	
757.78	6270.9	
757.96	5153.4	
758.14	4498	
758.32	3956	
758.5	4697.4	
758.67	5644.9	
758.85	4315.1	
759.03	4453	
759.21	5830.6	
759.39	5192.3	
759.57	3822.2	
759.75	5122	
759.92	6488	
760.1	5674.9	
760.28	5487.2	
760.46	5745.2	
760.64	5470.8	
760.82	5172.5	
760.99	5330.2	
761.17	4398.4	
761.35	6328.9	
761.53	5199.1	
761.71	4528.1	
761.89	5353.4	
762.06	6163.7	
762.24	5668.8	
762.42	4719.2	
762.6	4380.6	
762.78	5738.4	
762.96	6434.7	
763.13	5100.8	
763.31	4679.6	
763.49	6640.9	
763.67	5621.7	
763.85	5578	
764.02	6219.7	
764.2	6864.1	
764.38	6005.3	
764.56	4556.7	
764.74	5505.6	
764.91	7010.9	
765.09	5802.6	
765.27	4273.4	
765.45	4007.2	
765.63	6992.4	
765.8	6892.1	
765.98	3713.7	
766.16	4087.1	
766.34	5314.5	
766.52	5016.2	
766.69	5126.7	
766.87	3971	
767.05	5737	
767.23	6641.6	
767.41	4306.2	
767.58	4573.1	
767.76	6399.9	
767.94	6479.8	
768.12	4364.2	
768.29	5228.5	
768.47	5935	
768.65	6630	
768.83	4007.2	
769	5221	
769.18	5436	
769.36	6182.8	
769.54	5249.6	
769.72	4076.1	
769.89	6445	
770.07	6553.5	
770.25	4399.7	
770.43	5772.5	
770.6	7376.8	
770.78	7761.1	
770.96	4571.7	
771.14	5247.6	
771.31	6331.6	
771.49	5666.7	
771.67	3644	
771.85	3946.4	
772.02	4826.4	
772.2	5677	
772.38	4719.9	
772.55	4224.3	
772.73	5969.8	
772.91	5772.5	
773.09	4596.3	
773.26	4720.6	
773.44	5979.4	
773.62	5563	
773.8	4100	
773.97	3741.6	
774.15	5995.8	
774.33	5618.3	
774.5	3976.5	
774.68	4384	
774.86	6244.9	
775.04	5656.5	
775.21	4070.7	
775.39	4088.4	
775.57	5917.9	
775.74	6379.4	
775.92	3951.9	
776.1	3794.2	
776.27	5944.6	
776.45	7259.4	
776.63	4048.8	
776.81	3627	
776.98	5468.8	
777.16	6751.5	
777.34	4240.7	
777.51	4224.3	
777.69	5510.4	
777.87	5232.6	
778.04	4289.1	
778.22	4959.5	
778.4	5291.3	
778.57	5968.5	
778.75	3535.5	
778.93	3793.5	
779.1	5053.7	
779.28	4939.7	
779.46	3521.8	
779.64	4069.3	
779.81	6161	
779.99	7101.7	
780.17	4846.2	
780.34	5031.9	
780.52	5551.4	
780.69	5808.7	
780.87	4475.5	
781.05	3910.9	
781.22	5653.1	
781.4	5759.6	
781.58	4032.5	
781.75	3187.3	
781.93	5683.8	
782.11	5037.3	
782.28	5020.9	
782.46	4080.2	
782.64	4881	
782.81	5913.2	
782.99	4177.9	
783.17	4171	
783.34	5800.5	
783.52	4937.7	
783.69	4327.4	
783.87	5238.7	
784.05	4953.4	
784.22	5049.6	
784.4	5193.6	
784.58	4489.8	
784.75	6034.7	
784.93	5109	
785.1	4076.1	
785.28	4739	
785.46	5767.8	
785.63	5074.9	
785.81	4059.1	
785.99	3908.2	
786.16	5225.7	
786.34	5624.4	
786.51	3972.4	
786.69	4337.6	
786.87	4806.6	
787.04	5287.9	
787.22	3820.1	
787.39	4845.5	
787.57	4997	
787.75	6217.6	
787.92	4982.7	
788.1	4928.1	
788.27	5159.5	
788.45	4837.3	
788.63	4607.9	
788.8	3300.6	
788.98	5511.1	
789.15	4786.8	
789.33	3480.2	
789.5	4122.6	
789.68	6062.7	
789.86	6175.3	
790.03	4599.7	
790.21	3986	
790.38	5995.1	
790.56	5267.4	
790.73	3840.6	
790.91	3827	
791.09	5140.4	
791.26	5917.9	
791.44	4093.2	
791.61	3532.1	
791.79	5065.3	
791.96	5180.7	
792.14	3644	
792.32	3163.4	
792.49	5061.2	
792.67	5187.5	
792.84	3686.3	
793.02	3546.4	
793.19	5592.3	
793.37	6326.2	
793.54	3216	
793.72	3586.7	
793.89	6578.1	
794.07	5119.9	
794.25	4208.6	
794.42	3265.1	
794.6	6321.4	
794.77	5805.3	
794.95	4525.3	
795.12	3904.8	
795.3	5086.5	
795.47	5760.3	
795.65	4411.3	
795.82	4179.2	
796	4895.3	
796.17	6971.3	
796.35	4002.4	
796.52	4745.1	
796.7	5713.2	
796.87	5769.1	
797.05	4996.4	
797.22	4909	
797.4	5698.8	
797.57	6791.7	
797.75	4135.5	
797.92	3853.6	
798.1	6049	
798.27	5118.6	
798.45	3366.2	
798.62	3615.3	
798.8	5440.8	
798.97	5917.3	
799.15	4407.2	
799.32	4155.3	
799.5	4635.9	
799.67	5483.8	
799.85	4531.5	
800.02	3308.2	
800.2	5091.9	
800.37	5436.7	
800.55	4675.5	
800.72	3938.9	
800.9	5890.6	
801.07	6382.8	
801.25	5339.7	
801.42	4306.9	
801.6	5899.5	
801.77	5741.8	
801.95	4022.2	
802.12	3828.3	
802.29	5630.5	
802.47	5553.4	
802.64	4255	
802.82	3166.8	
802.99	5053	
803.17	6137.8	
803.34	4130.1	
803.52	3787.4	
803.69	6776.7	
803.87	4842.1	
804.04	4100.7	
804.21	4289.1	
804.39	6235.4	
804.56	5312.4	
804.74	3525.2	
804.91	4392.2	
805.09	5113.1	
805.26	5201.2	
805.44	3566.9	
805.61	3973.1	
805.78	5739.8	
805.96	5831.9	
806.13	4365.6	
806.31	4670.1	
806.48	4627	
806.66	5217.5	
806.83	4204.5	
807	4248.9	
807.18	5038.7	
807.35	5477	
807.53	4188.1	
807.7	3340.9	
807.87	6348.7	
808.05	5139.7	
808.22	4648.9	
808.4	3340.9	
808.57	5188.9	
808.74	4752	
808.92	3821.5	
809.09	4923.3	
809.27	5017.5	
809.44	5631.2	
809.61	3426.3	
809.79	3776.5	
809.96	6347.3	
810.14	5902.9	
810.31	3257	
810.48	4056.3	
810.66	5208	
810.83	6035.4	
811.01	3785.3	
811.18	4322.6	
811.35	5931.6	
811.53	4580.6	
811.7	4721.9	
811.87	4367.6	
812.05	5122.7	
812.22	5015.5	
812.39	3704.1	
812.57	3637.2	
812.74	5145.2	
812.92	6935.8	
813.09	4032.5	
813.26	4456.4	
813.44	6659.3	
813.61	5089.2	
813.78	3334.8	
813.96	4501.4	
814.13	5178.6	
814.3	4799.1	
814.48	4889.9	
814.65	4036.5	
814.82	6430.6	
815	4943.8	
815.17	4146.5	
815.34	5113.8	
815.52	5041.4	
815.69	5020.9	
815.87	4123.9	
816.04	3480.9	
816.21	5186.1	
816.38	4464.6	
816.56	4027.7	
816.73	3685	
816.9	6522.8	
817.08	6012.8	
817.25	3698.6	
817.42	4746.5	
817.6	4687.1	
817.77	5196.4	
817.94	4306.9	
818.12	3720.5	
818.29	4906.3	
818.46	7791.2	
818.64	3879.5	
818.81	3675.4	
818.98	4834.6	
819.16	7092.1	
819.33	4457.1	
819.5	4208.6	
819.67	5486.5	
819.85	6247.7	
820.02	4050.2	
820.19	4336.2	
820.37	5339.1	
820.54	4909.7	
820.71	4234.5	
820.88	5253	
821.06	5382.1	
821.23	4970.4	
821.4	4291.9	
821.58	4201.1	
821.75	5927.5	
821.92	5293.3	
822.09	3353.2	
822.27	3500.7	
822.44	5160.9	
822.61	5048.9	
822.79	3402.4	
822.96	6706.4	
823.13	5711.8	
823.3	4864.6	
823.48	4011.3	
823.65	3514.3	
823.82	5896.8	
823.99	4684.4	
824.17	5003.2	
824.34	3624.2	
824.51	6867.5	
824.68	5132.9	
824.86	3754.6	
825.03	4268	
825.2	5142.4	
825.37	6300.9	
825.55	3738.2	
825.72	4133.5	
825.89	6929	
826.06	6407.4	
826.24	4063.2	
826.41	4102.8	
826.58	6317.3	
826.75	5483.1	
826.92	3203	
827.1	3610.6	
827.27	8595.3	
827.44	6849.8	
827.61	3859.1	
827.79	4679.6	
827.96	4876.9	
828.13	5245.5	
828.3	4037.2	
828.47	3403	
828.65	5383.4	
828.82	5336.3	
828.99	5305.6	
829.16	4574.5	
829.34	5853.8	
829.51	5532.9	
829.68	4218.1	
829.85	4315.8	
830.02	6133.7	
830.2	5793.7	
830.37	3188.7	
830.54	5100.8	
830.71	6679.8	
830.88	5143.1	
831.05	3324.5	
831.23	3792.2	
831.4	6315.9	
831.57	7122.8	
831.74	3842	
831.91	3337.5	
832.09	5356.8	
832.26	5790.3	
832.43	3981.3	
832.6	4523.3	
832.77	5431.9	
832.94	6208.1	
833.12	3166.8	
833.29	3977.2	
833.46	4978.6	
833.63	7393.8	
833.8	4365.6	
833.97	4082.3	
834.15	5811.5	
834.32	5548.6	
834.49	4199	
834.66	4223.6	
834.83	6059.9	
835	4908.3	
835.17	3808.5	
835.35	3900	
835.52	5711.8	
835.69	5524.1	
835.86	4008.6	
836.03	3331.4	
836.2	5723.4	
836.37	5375.2	
836.55	3975.8	
836.72	3792.8	
836.89	5301.5	
837.06	5870.2	
837.23	4072	
837.4	4562.9	
837.57	6660.7	
837.75	7390.4	
837.92	3679.5	
838.09	3913.7	
838.26	5292.6	
838.43	6124.1	
838.6	4203.1	
838.77	3726.6	
838.94	6952.9	
839.11	6716	
839.29	4065.9	
839.46	3167.5	
839.63	5724.1	
839.8	5446.2	
839.97	3889.1	
840.14	3935.5	
840.31	5555.5	
840.48	5739.8	
840.65	3255.6	
840.82	3855.6	
841	5773.2	
841.17	5689.9	
841.34	3621.5	
841.51	3657.7	
841.68	5698.8	
841.85	5390.9	
842.02	3705.5	
842.19	3086.3	
842.36	5492	
842.53	5548.6	
842.7	3597.6	
842.87	4487.8	
843.05	7294.9	
843.22	5457.2	
843.39	3368.2	
843.56	3710.9	
843.73	5147.9	
843.9	5836	
844.07	5849	
844.24	4872.1	
844.41	8703.9	
844.58	4934.2	
844.75	3427.6	
844.92	3752.6	
845.09	5742.5	
845.26	5752.1	
845.43	3528	
845.6	3814	
845.77	5764.3	
845.94	5447.6	
846.12	3974.4	
846.29	4238.6	
846.46	6006	
846.63	5710.4	
846.8	3508.9	
846.97	4277.5	
847.14	6197.8	
847.31	5715.9	
847.48	4042.7	
847.65	4467.3	
847.82	6041.5	
847.99	5966.4	
848.16	4753.3	
848.33	4494.6	
848.5	5285.1	
848.67	6262	
848.84	3566.9	
849.01	3743	
849.18	5142.4	
849.35	4844.8	
849.52	4513.7	
849.69	3475.4	
849.86	6008.7	
850.03	6204.7	
850.2	3591.5	
850.37	4379.2	
850.54	6148	
850.71	5429.8	
850.88	4299.4	
851.05	3532.7	
851.22	5650.3	
851.39	6352.8	
851.56	3392.8	
851.73	4162.2	
851.9	5037.3	
852.07	6034	
852.24	3965.6	
852.41	3553.2	
852.58	5624.4	
852.75	5128.1	
852.92	4080.9	
853.09	3458.3	
853.26	5399.1	
853.43	6241.5	
853.6	3573.7	
853.77	3037.1	
853.94	6369.9	
854.11	5689.3	
854.28	5289.9	
854.44	3900.7	
854.61	6819.1	
854.78	6086.6	
854.95	3577.1	
855.12	4476.9	
855.29	4610.7	
855.46	6541.9	
855.63	3544.4	
855.8	4954	
855.97	5300.1	
856.14	6115.2	
856.31	5027.8	
856.48	3864.5	
856.65	5287.9	
856.82	5069.4	
856.99	3411.9	
857.16	3857.7	
857.33	6999.3	
857.49	5374.6	
857.66	3874.8	
857.83	4159.4	
858	5369.1	
858.17	5665.4	
858.34	3376.4	
858.51	3567.6	
858.68	6481.8	
858.85	6551.5	
859.02	4113.7	
859.19	4440	
859.36	5000.5	
859.52	5132.9	
859.69	3564.1	
859.86	4235.9	
860.03	5104.2	
860.2	6371.2	
860.37	3196.2	
860.54	3573.7	
860.71	5972.6	
860.88	6497.5	
861.05	3998.3	
861.21	4507.6	
861.38	6563.1	
861.55	4894	
861.72	3245.3	
861.89	3997.6	
862.06	6057.2	
862.23	6607.4	
862.4	3424.2	
862.56	3747.8	
862.73	5899.5	
862.9	5544.5	
863.07	4286.4	
863.24	3205.8	
863.41	4885.1	
863.58	5061.9	
863.75	3678.2	
863.91	4125.3	
864.08	6418.3	
864.25	5903.6	
864.42	4481.6	
864.59	5063.9	
864.76	6731	
864.93	5080.3	
865.09	3480.9	
865.26	3807.9	
865.43	6244.9	
865.6	6765.1	
865.77	3108.1	
865.94	3510.9	
866.1	6328.9	
866.27	6093.4	
866.44	5422.3	
866.61	3376.4	
866.78	5401.9	
866.95	5887.9	
867.11	3394.8	
867.28	3132	
867.45	6110.5	
867.62	5139.7	
867.79	4267.3	
867.96	3512.9	
868.12	5049.6	
868.29	6051.7	
868.46	3537.5	
868.63	4769.7	
868.8	6235.4	
868.97	6000.5	
869.13	3738.9	
869.3	3766.9	
869.47	5893.4	
869.64	6104.3	
869.81	3568.2	
869.97	3603.7	
870.14	5744.6	
870.31	6535.8	
870.48	3495.2	
870.65	4524	
870.81	5331.5	
870.98	5325.4	
871.15	4128	
871.32	3696.6	
871.48	5906.3	
871.65	6468.2	
871.82	3503.4	
871.99	3936.9	
872.16	7009.5	
872.32	6415.6	
872.49	3568.9	
872.66	3606.5	
872.83	5969.8	
872.99	5241.4	
873.16	4106.2	
873.33	3562.8	
873.5	5588.2	
873.67	5616.2	
873.83	3723.2	
874	4829.8	
874.17	5748	
874.34	6891.4	
874.5	4675.5	
874.67	4451.6	
874.84	6407.4	
875.01	5029.1	
875.17	5091.3	
875.34	3611.9	
875.51	5700.2	
875.68	6830.7	
875.84	4297.3	
876.01	5233.2	
876.18	5924.8	
876.34	5958.2	
876.51	3522.5	
876.68	3499.3	
876.85	5410.7	
877.01	6296.1	
877.18	5053	
877.35	3534.8	
877.52	5513.8	
877.68	4944.5	
877.85	3490.4	
878.02	3492.5	
878.18	5582.8	
878.35	5223.7	
878.52	2871.9	
878.69	3992.9	
878.85	6004.6	
879.02	5982.8	
879.19	5130.2	
879.35	3799.7	
879.52	5925.5	
879.69	6099.5	
879.86	3059	
880.02	3986	
880.19	5506.3	
880.36	6849.1	
880.52	4064.5	
880.69	4224.3	
880.86	6088.6	
881.02	6153.5	
881.19	3896.6	
881.36	3934.8	
881.52	6018.3	
881.69	5251	
881.86	3829.7	
882.02	3762.1	
882.19	6214.2	
882.36	7410.2	
882.52	3653.6	
882.69	4955.4	
882.86	5741.1	
883.02	5589.6	
883.19	4360.8	
883.36	4081.6	
883.52	6066.8	
883.69	7032	
883.86	3614	
884.02	3175	
884.19	6023.1	
884.36	5537	
884.52	4031.8	
884.69	3777.8	
884.86	5295.4	
885.02	6696.2	
885.19	3969.6	
885.36	4156	
885.52	5565	
885.69	5726.8	
885.86	5189.6	
886.02	4581.3	
886.19	5994.4	
886.35	5455.8	
886.52	3944.4	
886.69	5072.1	
886.85	5051.7	
887.02	6402	
887.19	6402	
887.35	6402	
887.52	6402	
887.68	6402	
887.85	6402	
888.02	6402	
888.18	6402	
888.35	6402	
888.51	6402	
888.68	6402	
888.85	6402	
889.01	6402	
889.18	6402	
889.35	6402	
889.51	6402	
889.68	6402	
889.84	6402	
890.01	6402	
890.17	6402	
890.34	6402	
890.51	6402	
890.67	6402	
890.84	6402	
891	6402	
891.17	6402	
891.34	6402	
891.5	6402	
891.67	6402	
891.83	6402	
892	6402	
892.16	6402	
892.33	6402	
892.5	6402	
892.66	6402	
892.83	6402	
892.99	6402	
893.16	6402	
893.32	6402	
893.49	6402	
893.65	6402	
893.82	6402	
893.99	6402	
894.15	6402	
894.32	6402	
894.48	6402	
894.65	6402	
894.81	6402	
894.98	6402	
895.14	6402	
895.31	6402	
895.47	6402	
895.64	6402	
895.81	6402	
895.97	6402	
896.14	6402	
896.3	6402	
896.47	6402	
896.63	6402	
896.8	6402	
896.96	6402	
897.13	6402	
897.29	6402	
897.46	6402	
897.62	6402	
897.79	6402	
897.95	6402	
898.12	6402	
898.28	6402	
898.45	6402	
898.61	6402	
898.78	6402	
898.94	6402	
899.11	6402	
899.27	6402	
899.44	6402	
899.6	6402	
899.77	6402	
899.93	6402	
900.1	6402	
900.26	6402	
900.43	6402	
900.59	6402	
900.76	6402	
900.92	6402	
901.09	6402	
901.25	6402	
901.42	6402	
901.58	6402	
901.75	6402	
901.91	6402	
902.07	6402	
902.24	6402	
902.4	6402	
902.57	6402	
902.73	6402	
902.9	6402	
903.06	6402	
903.23	6402	
903.39	6402	
903.56	6402	
903.72	6402	
903.88	6402	
904.05	6402	
904.21	6402	
904.38	6402	
904.54	6402	
904.71	6402	
904.87	6402	
905.03	6402	
905.2	6402	
905.36	6402	
905.53	6402	
905.69	6402	
905.86	6402	
906.02	6402	
906.18	6402	
906.35	6402	
906.51	6402	
906.68	6402	
906.84	6402	
907.01	6402	
907.17	6402	
907.33	6402	
907.5	6402	
907.66	6402	
907.83	6402	
907.99	6402	
908.15	6402	
908.32	6402	
908.48	6402	
908.65	6402	
908.81	6402	
908.97	6402	
909.14	6402	
909.3	6402	
909.47	6402	
909.63	6402	
909.79	6402	
909.96	6402	
910.12	6402	
910.28	6402	
910.45	6402	
910.61	6402	
910.78	6402	
910.94	6402	
911.1	6402	
911.27	6402	
911.43	6402	
911.59	6402	
911.76	6402	
911.92	6402	
912.08	6402	
912.25	6402	
912.41	6402	
912.57	6402	
912.74	6402	
912.9	6402	
913.07	6402	
913.23	6402	
913.39	6402	
913.56	6402	
913.72	6402	
913.88	6402	
914.05	6402	
914.21	6402	
914.37	6402	
914.54	6402	
914.7	6402	
914.86	6402	
915.03	6402	
915.19	6402	
