Wavelength	Intensities	
nm	a.u.	
179.22	1884.3	
179.44	1888.6	
179.65	1880	
179.86	1897.1	
180.08	1862.3	
180.29	4855.1	
180.51	3415.3	
180.72	5571.2	
180.94	6438.8	
181.15	3168.9	
181.37	3110.2	
181.58	5388.2	
181.79	5731.6	
182.01	3292.5	
182.22	3549.1	
182.44	5724.8	
182.65	4805.2	
182.87	4483.7	
183.08	3913	
183.29	6006.7	
183.51	4971.8	
183.72	3631	
183.94	5199.8	
184.15	5333.6	
184.37	5347.9	
184.58	3164.8	
184.79	4306.2	
185.01	4939	
185.22	5694	
185.44	4569.7	
185.65	3864.5	
185.86	5253	
186.08	4854.4	
186.29	3140.2	
186.51	3327.3	
186.72	4969.7	
186.94	5807.4	
187.15	3814.7	
187.36	3911.6	
187.58	7597.3	
187.79	5440.1	
188.01	4119.8	
188.22	6350.8	
188.43	6534.4	
188.65	5662	
188.86	3285.6	
189.08	3909.6	
189.29	5141.8	
189.5	5124	
189.72	3663.1	
189.93	3665.2	
190.15	5856.5	
190.36	7073	
190.57	3988.8	
190.79	3913	
191	5958.2	
191.22	5930.2	
191.43	4052.9	
191.64	3334.1	
191.86	6112.5	
192.07	5955.5	
192.29	3454.9	
192.5	3674.7	
192.71	5920.7	
192.93	5096.7	
193.14	3635.1	
193.35	3736.9	
193.57	5139.7	
193.78	5935.7	
194	2981.8	
194.21	3611.9	
194.42	4916.5	
194.64	5326.8	
194.85	3914.4	
195.07	4594.3	
195.28	5408	
195.49	4653.7	
195.71	4912.4	
195.92	3413.3	
196.13	5547.9	
196.35	5668.8	
196.56	5259.2	
196.78	3952.6	
196.99	6965.1	
197.2	6465.4	
197.42	4519.2	
197.63	4033.8	
197.84	4816.1	
198.06	5515.2	
198.27	3678.8	
198.48	4851.6	
198.7	5117.2	
198.91	5301.5	
199.13	3991.5	
199.34	3970.3	
199.55	5765	
199.77	4648.9	
199.98	3521.8	
200.19	3987.4	
200.41	5212.1	
200.62	5007.3	
200.83	4112.3	
201.05	4406.5	
201.26	5241.4	
201.47	4980.7	
201.69	3585.3	
201.9	3365.5	
202.11	5315.2	
202.33	6319.3	
202.54	3799.7	
202.76	4235.2	
202.97	5491.3	
203.18	5467.4	
203.4	4169	
203.61	4088.4	
203.82	5398.4	
204.04	5040.1	
204.25	4046.8	
204.46	3959.4	
204.68	5385.5	
204.89	5546.6	
205.1	3902.1	
205.32	3345.7	
205.53	5746.6	
205.74	5930.9	
205.96	2912.2	
206.17	4052.9	
206.38	5745.9	
206.6	5853.8	
206.81	4590.2	
207.02	3707.5	
207.24	5564.3	
207.45	5975.3	
207.66	3834.5	
207.88	3257	
208.09	5538.4	
208.3	5324	
208.52	3497.2	
208.73	3760.1	
208.94	5354.1	
209.15	5981.4	
209.37	3816.7	
209.58	3960.8	
209.79	5841.5	
210.01	5124.7	
210.22	3066.5	
210.43	3190.1	
210.65	5367.7	
210.86	5781.4	
211.07	3814.7	
211.29	3516.4	
211.5	5748.6	
211.71	5291.3	
211.93	3515	
212.14	3544.4	
212.35	5296	
212.56	5472.9	
212.78	3975.1	
212.99	3249.4	
213.2	6339.1	
213.42	5085.1	
213.63	3627	
213.84	3902.1	
214.06	4751.3	
214.27	4827.7	
214.48	3792.2	
214.69	4040.6	
214.91	6047.7	
215.12	6059.3	
215.33	4103.4	
215.55	4478.2	
215.76	6568.5	
215.97	5729.5	
216.18	3980.6	
216.4	3841.3	
216.61	4952	
216.82	5890.6	
217.04	3519.8	
217.25	3650.2	
217.46	6006	
217.67	5689.3	
217.89	3117	
218.1	3255.6	
218.31	5369.8	
218.53	5514.5	
218.74	3642.7	
218.95	3554.6	
219.16	5338.4	
219.38	6227.2	
219.59	3560.1	
219.8	4214.7	
220.01	6905.1	
220.23	5387.5	
220.44	4700.1	
220.65	3494.5	
220.87	5414.1	
221.08	5964.4	
221.29	3206.4	
221.5	4345.8	
221.72	7274.4	
221.93	5089.2	
222.14	4068.6	
222.35	4741.7	
222.57	5343.2	
222.78	5714.5	
222.99	3849.5	
223.2	4070	
223.42	5672.2	
223.63	5792.3	
223.84	2946.3	
224.05	2897.9	
224.27	6808.8	
224.48	6272.2	
224.69	4726.7	
224.9	3966.2	
225.12	5575.9	
225.33	5326.1	
225.54	3198.9	
225.75	3588.7	
225.97	4876.9	
226.18	5180	
226.39	3825.6	
226.6	3599	
226.82	5100.1	
227.03	4995	
227.24	3976.5	
227.45	3391.4	
227.67	5705	
227.88	6288.6	
228.09	4397	
228.3	4487.1	
228.52	5791.7	
228.73	5351.3	
228.94	3738.2	
229.15	3315.7	
229.36	5265.3	
229.58	5231.2	
229.79	3810.6	
230	4389.5	
230.21	6320.7	
230.43	5463.3	
230.64	4012	
230.85	4117.1	
231.06	5806	
231.28	5748	
231.49	3302	
231.7	3872	
231.91	5653.8	
232.12	5343.2	
232.34	3414.6	
232.55	3852.9	
232.76	5961	
232.97	5546.6	
233.18	3466.5	
233.4	3891.1	
233.61	5565.7	
233.82	5147.9	
234.03	3691.8	
234.25	3627	
234.46	7396.6	
234.67	5355.4	
234.88	4079.6	
235.09	3581.2	
235.31	5629.2	
235.52	5240.8	
235.73	3946.4	
235.94	3371.6	
236.15	5066.7	
236.37	6497.5	
236.58	3509.5	
236.79	3805.8	
237	5634.6	
237.21	4918.5	
237.43	4126	
237.64	3251.5	
237.85	9616.6	
238.06	4907.6	
238.27	4202.4	
238.48	3306.1	
238.7	5698.8	
238.91	5174.5	
239.12	3824.9	
239.33	3906.8	
239.54	5036.6	
239.76	5233.2	
239.97	3777.1	
240.18	3824.2	
240.39	6711.9	
240.6	5575.3	
240.82	3949.2	
241.03	3295.9	
241.24	5390.9	
241.45	6175.3	
241.66	3490.4	
241.87	4149.9	
242.09	6083.1	
242.3	6444.3	
242.51	4146.5	
242.72	3825.6	
242.93	5807.4	
243.14	5276.9	
243.36	4478.9	
243.57	4805.2	
243.78	6236.7	
243.99	5701.5	
244.2	3946.4	
244.41	3478.1	
244.63	4896	
244.84	5637.4	
245.05	4111.6	
245.26	3799	
245.47	5603.9	
245.68	5882.4	
245.9	5069.4	
246.11	4034.5	
246.32	5206.6	
246.53	5547.3	
246.74	6171.2	
246.95	3252.2	
247.16	4901.5	
247.38	5339.1	
247.59	3220.1	
247.8	3821.5	
248.01	5063.3	
248.22	5292.6	
248.43	3510.2	
248.64	3732.1	
248.86	4782	
249.07	5088.5	
249.28	3391.4	
249.49	3956	
249.7	5859.2	
249.91	5979.4	
250.12	3209.2	
250.34	3292.5	
250.55	5466	
250.76	5360.9	
250.97	3971	
251.18	4016.7	
251.39	5987.6	
251.6	5543.2	
251.81	4054.3	
252.03	4048.2	
252.24	5141.1	
252.45	5883.1	
252.66	3371.6	
252.87	4265.9	
253.08	5355.4	
253.29	7033.4	
253.5	3355.3	
253.72	4683	
253.93	5165.7	
254.14	6351.4	
254.35	3632.4	
254.56	3798.3	
254.77	5620.3	
254.98	4934.2	
255.19	3617.4	
255.41	4653	
255.62	5462.6	
255.83	5947.3	
256.04	4128	
256.25	4064.5	
256.46	6511.2	
256.67	5012.1	
256.88	3915	
257.09	4386.7	
257.31	5038	
257.52	5053.7	
257.73	4954	
257.94	3599.6	
258.15	5190.2	
258.36	5334.3	
258.57	4580.6	
258.78	2955.2	
258.99	5853.1	
259.2	5186.1	
259.41	3600.3	
259.63	3781.9	
259.84	6208.1	
260.05	6598.6	
260.26	4778.6	
260.47	3511.6	
260.68	5967.1	
260.89	5315.8	
261.1	4369.7	
261.31	3473.4	
261.52	5917.3	
261.73	6277	
261.95	4738.3	
262.16	4137.6	
262.37	6079.7	
262.58	6147.3	
262.79	4735.6	
263	3761.4	
263.21	5321.3	
263.42	4872.8	
263.63	3788.7	
263.84	3670.6	
264.05	5918.6	
264.26	6265.4	
264.47	4538.3	
264.69	4214.7	
264.9	6049.7	
265.11	5602.6	
265.32	3565.5	
265.53	3582.6	
265.74	5493.3	
265.95	4790.9	
266.16	3911.6	
266.37	4295.3	
266.58	5470.8	
266.79	5240.8	
267	3635.1	
267.21	3378.5	
267.42	4967.7	
267.63	5350	
267.84	3871.3	
268.06	3254.2	
268.27	5775.3	
268.48	6109.8	
268.69	3762.8	
268.9	4427	
269.11	6059.9	
269.32	4819.6	
269.53	3840.6	
269.74	3570.3	
269.95	5711.1	
270.16	4721.3	
270.37	3892.5	
270.58	4438.6	
270.79	5159.5	
271	5855.1	
271.21	4126	
271.42	3865.2	
271.63	5539.1	
271.84	4995	
272.05	3050.1	
272.26	3428.3	
272.47	5388.9	
272.68	5560.9	
272.89	3688.4	
273.11	4257.7	
273.32	5187.5	
273.53	6313.9	
273.74	4143.7	
273.95	4059.1	
274.16	5997.1	
274.37	5390.9	
274.58	4218.8	
274.79	3353.2	
275	5458.5	
275.21	6010.1	
275.42	5063.9	
275.63	4318.5	
275.84	5646.2	
276.05	7082.6	
276.26	4044.7	
276.47	3807.9	
276.68	5204.6	
276.89	6331	
277.1	4333.5	
277.31	3376.4	
277.52	5568.4	
277.73	5775.3	
277.94	3336.1	
278.15	3723.9	
278.36	5522	
278.57	5051.7	
278.78	3639.9	
278.99	4090.5	
279.2	4985.4	
279.41	4938.3	
279.62	4855.7	
279.83	3366.9	
280.04	6559	
280.25	4932.2	
280.46	4786.8	
280.67	3816.7	
280.88	4977.9	
281.09	5991	
281.3	4061.8	
281.51	5145.9	
281.72	5455.8	
281.93	5816.2	
282.14	3636.5	
282.35	3867.2	
282.56	5838.1	
282.77	5894.7	
282.98	3741	
283.19	4489.8	
283.4	7129	
283.61	5302.9	
283.82	3331.4	
284.03	4739.7	
284.24	5483.1	
284.45	6016.2	
284.66	4818.2	
284.87	4573.1	
285.08	5958.2	
285.29	6048.3	
285.5	3299.3	
285.71	3768.9	
285.92	6033.3	
286.12	6561.7	
286.33	4777.2	
286.54	3695.9	
286.75	5865.4	
286.96	5259.2	
287.17	3446.7	
287.38	4625.7	
287.59	5034.6	
287.8	4921.3	
288.01	3803.8	
288.22	4289.8	
288.43	5563.6	
288.64	4889.9	
288.85	4460.5	
289.06	4263.2	
289.27	5775.3	
289.48	6313.9	
289.69	4694.6	
289.9	4286.4	
290.11	6002.6	
290.32	5087.2	
290.53	4478.2	
290.74	4128.7	
290.94	5731.6	
291.15	5847.6	
291.36	3596.9	
291.57	4298.7	
291.78	5127.4	
291.99	4764.9	
292.2	3456.3	
292.41	4185.4	
292.62	5909.1	
292.83	5657.9	
293.04	5171.8	
293.25	3487.7	
293.46	5129.5	
293.67	5937.7	
293.88	3598.3	
294.09	3517.7	
294.29	4919.2	
294.5	5519.3	
294.71	3900.7	
294.92	3668.6	
295.13	5104.2	
295.34	6402.6	
295.55	3262.4	
295.76	3299.3	
295.97	5788.9	
296.18	6494.8	
296.39	3401.7	
296.6	3585.3	
296.81	5479	
297.01	5799.8	
297.22	3758	
297.43	3590.8	
297.64	5040.7	
297.85	5013.4	
298.06	2994.1	
298.27	3229	
298.48	5395.7	
298.69	5111	
298.9	3874.8	
299.11	3504.1	
299.31	4871.4	
299.52	4913.1	
299.73	4162.8	
299.94	4069.3	
300.15	5326.1	
300.36	5040.1	
300.57	4020.8	
300.78	4052.2	
300.99	5269.4	
301.2	5494	
301.4	3572.3	
301.61	3911.6	
301.82	5758.9	
302.03	5774.6	
302.24	4369.7	
302.45	3431.7	
302.66	5700.2	
302.87	6109.1	
303.08	3582.6	
303.29	4898.1	
303.49	5144.5	
303.7	5416.9	
303.91	3201	
304.12	4727.4	
304.33	4899.4	
304.54	5399.1	
304.75	3605.8	
304.96	3411.2	
305.16	5689.3	
305.37	6421.7	
305.58	3140.9	
305.79	3263.1	
306	5672.2	
306.21	4783.4	
306.42	3583.9	
306.63	5507.7	
306.83	5238	
307.04	5945.3	
307.25	3985.3	
307.46	3951.2	
307.67	4622.9	
307.88	5823.7	
308.09	3558	
308.29	3611.3	
308.5	5421.7	
308.71	5966.4	
308.92	3849.5	
309.13	3475.4	
309.34	5354.1	
309.55	5276.9	
309.75	4452.3	
309.96	4100.7	
310.17	5808	
310.38	5021.6	
310.59	4399.7	
310.8	4088.4	
311.01	5956.2	
311.21	5237.3	
311.42	3411.9	
311.63	3550.5	
311.84	5119.2	
312.05	5500.2	
312.26	3992.9	
312.46	4439.3	
312.67	5200.5	
312.88	4956.8	
313.09	3474.7	
313.3	3435.8	
313.51	6144.6	
313.71	6503	
313.92	3485.6	
314.13	3708.2	
314.34	5571.2	
314.55	5272.8	
314.76	4510.3	
314.96	3911.6	
315.17	5418.2	
315.38	5774.6	
315.59	3477.5	
315.8	3346.4	
316.01	6287.9	
316.21	6208.1	
316.42	3372.3	
316.63	3834.5	
316.84	5266	
317.05	6030.6	
317.26	4149.2	
317.46	3704.1	
317.67	5335.6	
317.88	5772.5	
318.09	4401.8	
318.3	3244.7	
318.5	5188.9	
318.71	5725.4	
318.92	5641.5	
319.13	4095.3	
319.34	5872.9	
319.54	5941.2	
319.75	3244	
319.96	3121.8	
320.17	5739.8	
320.38	5930.2	
320.58	3139.5	
320.79	3833.8	
321	5959.6	
321.21	6096.8	
321.42	3866.6	
321.62	3283.6	
321.83	4950.6	
322.04	5435.3	
322.25	3725.9	
322.46	3495.2	
322.66	5442.8	
322.87	5599.1	
323.08	4292.5	
323.29	3474.7	
323.5	6338.5	
323.7	4927.4	
323.91	4778.6	
324.12	4231.8	
324.33	5468.1	
324.53	5715.9	
324.74	4110.3	
324.95	4277.5	
325.16	4760.2	
325.37	5146.5	
325.57	3485.6	
325.78	3519.1	
325.99	5482.4	
326.2	4829.1	
326.4	5070.8	
326.61	3227.6	
326.82	5322	
327.03	5463.3	
327.24	4914.4	
327.44	4714.4	
327.65	5665.4	
327.86	4632.5	
328.07	4165.6	
328.27	3349.8	
328.48	6057.2	
328.69	5001.1	
328.9	5069.4	
329.1	3732.8	
329.31	5291.3	
329.52	6148.7	
329.73	3511.6	
329.93	3948.5	
330.14	5438	
330.35	5667.4	
330.56	5677	
330.76	4321.2	
330.97	5199.8	
331.18	5504.9	
331.39	3880.2	
331.59	3118.4	
331.8	6008.1	
332.01	6083.1	
332.22	3622.9	
332.42	4138.3	
332.63	5479.7	
332.84	5085.1	
333.05	3928.7	
333.25	3553.9	
333.46	5176.6	
333.67	5407.3	
333.88	3666.5	
334.08	4072.7	
334.29	7127.6	
334.5	6012.2	
334.7	3455.6	
334.91	5010.7	
335.12	4910.3	
335.33	5788.9	
335.53	3861.8	
335.74	5716.6	
335.95	5132.2	
336.16	4969.7	
336.36	3912.3	
336.57	4490.5	
336.78	4835.9	
336.98	5930.2	
337.19	4687.1	
337.4	3803.8	
337.61	6469.5	
337.81	4975.2	
338.02	3575.1	
338.23	4678.2	
338.43	6156.9	
338.64	5053	
338.85	3551.9	
339.05	4623.6	
339.26	6202.6	
339.47	4803.9	
339.68	3483.6	
339.88	5183.4	
340.09	5645.6	
340.3	5882.4	
340.5	4116.4	
340.71	3110.2	
340.92	4862.6	
341.13	6097.5	
341.33	3407.1	
341.54	4131.4	
341.75	5612.8	
341.95	5243.5	
342.16	3951.2	
342.37	4250.9	
342.57	5001.8	
342.78	5323.4	
342.99	4336.9	
343.19	3153.2	
343.4	5775.3	
343.61	5655.8	
343.81	3726.6	
344.02	3494.5	
344.23	5785.5	
344.43	6204	
344.64	4370.4	
344.85	4250.9	
345.06	5660.6	
345.26	5945.9	
345.47	4045.4	
345.68	4760.8	
345.88	4782.7	
346.09	5817.6	
346.3	4125.3	
346.5	3110.9	
346.71	5397.8	
346.92	5074.2	
347.12	3253.5	
347.33	4021.5	
347.54	5883.1	
347.74	6346	
347.95	4048.8	
348.16	3014.6	
348.36	5211.4	
348.57	4918.5	
348.78	4009.9	
348.98	4296.6	
349.19	5370.5	
349.39	4878.9	
349.6	3235.8	
349.81	3622.2	
350.01	5656.5	
350.22	5133.6	
350.43	3876.8	
350.63	4668.7	
350.84	5422.3	
351.05	5178.6	
351.25	3557.3	
351.46	3177.1	
351.67	5924.1	
351.87	5085.8	
352.08	3790.1	
352.29	4293.9	
352.49	5815.5	
352.7	5945.3	
352.9	3407.1	
353.11	4218.8	
353.32	6508.4	
353.52	5153.4	
353.73	3389.4	
353.94	4303.5	
354.14	5669.5	
354.35	5486.5	
354.55	3470.6	
354.76	3949.2	
354.97	5616.2	
355.17	5428.5	
355.38	3279.5	
355.59	4503.5	
355.79	5061.2	
356	5457.8	
356.2	3851.5	
356.41	3347.1	
356.62	4819.6	
356.82	5300.1	
357.03	4121.9	
357.24	3688.4	
357.44	5129.5	
357.65	5208.7	
357.85	4984.8	
358.06	3875.4	
358.27	4885.1	
358.47	5039.4	
358.68	3243.3	
358.88	4072	
359.09	5532.2	
359.3	5922	
359.5	4744.5	
359.71	4220.9	
359.91	6412.9	
360.12	5784.1	
360.33	4031.1	
360.53	4543.1	
360.74	5052.3	
360.94	5109	
361.15	4300.7	
361.36	3590.8	
361.56	5924.8	
361.77	5296	
361.97	4787.5	
362.18	3727.3	
362.38	5855.8	
362.59	4965.6	
362.8	3463.8	
363	3366.9	
363.21	4719.9	
363.41	5370.5	
363.62	3941.7	
363.83	4993.6	
364.03	5496.7	
364.24	6401.3	
364.44	5087.2	
364.65	5024.3	
364.85	5227.1	
365.06	5123.3	
365.27	3674.7	
365.47	3687	
365.68	6229.2	
365.88	5246.9	
366.09	4018.8	
366.29	3747.1	
366.5	5571.2	
366.71	5897.5	
366.91	5012.7	
367.12	4203.1	
367.32	6477	
367.53	5768.4	
367.73	4171	
367.94	5115.1	
368.14	5704.3	
368.35	6627.2	
368.56	4171	
368.76	3910.3	
368.97	5826.5	
369.17	7553.6	
369.38	3671.3	
369.58	3878.9	
369.79	4877.6	
369.99	6178	
370.2	4903.5	
370.4	4012.7	
370.61	5582.8	
370.82	6727.6	
371.02	3886.4	
371.23	3261	
371.43	4792.9	
371.64	6104.3	
371.84	3927.3	
372.05	5149.3	
372.25	7453.9	
372.46	5864	
372.66	3941.7	
372.87	3923.2	
373.07	5844.2	
373.28	7449.1	
373.48	4901.5	
373.69	4557.4	
373.9	5382.7	
374.1	5386.2	
374.31	4843.4	
374.51	4389.5	
374.72	6253.1	
374.92	5039.4	
375.13	4944.5	
375.33	4246.1	
375.54	5755.5	
375.74	5206.6	
375.95	4340.3	
376.15	5536.3	
376.36	5757.5	
376.56	5578.7	
376.77	4367	
376.97	4760.2	
377.18	6784.9	
377.38	5861.3	
377.59	5127.4	
377.79	3806.5	
378	5614.8	
378.2	6086.6	
378.41	3910.9	
378.61	3792.8	
378.82	6064	
379.02	5205.3	
379.23	3971.7	
379.43	5178.6	
379.64	6074.3	
379.84	5801.9	
380.05	3857	
380.25	3831.7	
380.46	5906.3	
380.66	5504.9	
380.87	5173.2	
381.07	5518.6	
381.28	6490	
381.48	5910.4	
381.69	3920.5	
381.89	3951.9	
382.1	4868	
382.3	6053.1	
382.51	5052.3	
382.71	5941.2	
382.91	5971.9	
383.12	6411.5	
383.32	4229.7	
383.53	4465.3	
383.73	5737.7	
383.94	5563.6	
384.14	4397	
384.35	3571.7	
384.55	5464.7	
384.76	5857.2	
384.96	4300.7	
385.17	4532.8	
385.37	5896.1	
385.58	5196.4	
385.78	4646.8	
385.98	3448.8	
386.19	5362.9	
386.39	5811.5	
386.6	3958	
386.8	4302.1	
387.01	5921.4	
387.21	5952.8	
387.42	4691.2	
387.62	5256.5	
387.83	5257.8	
388.03	5908.4	
388.23	4303.5	
388.44	5124.7	
388.64	4915.1	
388.85	5007.3	
389.05	4650.9	
389.26	5281.7	
389.46	6919.4	
389.67	6357.6	
389.87	4650.3	
390.07	4691.9	
390.28	5554.1	
390.48	5139	
390.69	3883.6	
390.89	4155.3	
391.1	5295.4	
391.3	6220.4	
391.5	5332.2	
391.71	5988.9	
391.91	6057.2	
392.12	6995.2	
392.32	5438	
392.53	4680.3	
392.73	5365	
392.93	5569.1	
393.14	4331.5	
393.34	5079.6	
393.55	6000.5	
393.75	5556.8	
393.95	4361.5	
394.16	4268.6	
394.36	5358.9	
394.57	6038.1	
394.77	3909.6	
394.98	4276.2	
395.18	5306.3	
395.38	5422.3	
395.59	5104.2	
395.79	4138.9	
396	5416.9	
396.2	5890	
396.4	4885.8	
396.61	4818.2	
396.81	6077	
397.02	5397.8	
397.22	5161.6	
397.42	5180.7	
397.63	6107.7	
397.83	5350	
398.04	4023.6	
398.24	4579.9	
398.44	5853.8	
398.65	4940.4	
398.85	3874.8	
399.05	3999	
399.26	5310.4	
399.46	6960.4	
399.67	4385.4	
399.87	4068.6	
400.07	5662	
400.28	5959.6	
400.48	4274.1	
400.69	5256.5	
400.89	6155.5	
401.09	6602.7	
401.3	4037.2	
401.5	5198.4	
401.7	6849.8	
401.91	7146.7	
402.11	4465.9	
402.32	4656.4	
402.52	6199.9	
402.72	6093.4	
402.93	4823.6	
403.13	3774.4	
403.33	6946.7	
403.54	5662.6	
403.74	4598.4	
403.94	5451	
404.15	5793.7	
404.35	6889.4	
404.56	4323.3	
404.76	6148	
404.96	6189	
405.17	6036.7	
405.37	5543.2	
405.57	4797	
405.78	6260.6	
405.98	5684.5	
406.18	4326	
406.39	5202.5	
406.59	6270.9	
406.79	5812.8	
407	4141	
407.2	4268.6	
407.4	6272.2	
407.61	6406.7	
407.81	4308.9	
408.01	6412.2	
408.22	5223.7	
408.42	7212.9	
408.62	5336.3	
408.83	4839.4	
409.03	5849.7	
409.23	5676.3	
409.44	4887.1	
409.64	5191.6	
409.84	6684.6	
410.05	6677.7	
410.25	4986.8	
410.45	4917.9	
410.66	6132.3	
410.86	8567.3	
411.06	5203.9	
411.27	5075.5	
411.47	8318.2	
411.67	6307.1	
411.88	5289.9	
412.08	5550.7	
412.28	6946	
412.49	7432.8	
412.69	5022.3	
412.89	5029.1	
413.09	7223.9	
413.3	6995.2	
413.5	5212.8	
413.7	4746.5	
413.91	6371.2	
414.11	7225.2	
414.31	5051.7	
414.52	5379.3	
414.72	6884.6	
414.92	6709.1	
415.12	5023	
415.33	5547.3	
415.53	7095.5	
415.73	7408.9	
415.94	5862	
416.14	5307	
416.34	6223.8	
416.55	5953.4	
416.75	6565.1	
416.95	5923.4	
417.15	7153.6	
417.36	7800.7	
417.56	6659.3	
417.76	5787.6	
417.97	7530.4	
418.17	7184.3	
418.37	5341.1	
418.57	5429.8	
418.78	6984.9	
418.98	6630	
419.18	6210.1	
419.38	6199.9	
419.59	6741.2	
419.79	6297.5	
419.99	5285.1	
420.2	5711.1	
420.4	7196.6	
420.6	7429.3	
420.8	5229.1	
421.01	5042.1	
421.21	7053.2	
421.41	7198.6	
421.61	5561.6	
421.82	5238.7	
422.02	6522.8	
422.22	7454.6	
422.42	6065.4	
422.63	5715.9	
422.83	6651.1	
423.03	7865.6	
423.23	5776.6	
423.44	4705.5	
423.64	6691.4	
423.84	6493.4	
424.04	5238.7	
424.25	4853	
424.45	7708.6	
424.65	7601.4	
424.85	4676.2	
425.06	5222.3	
425.26	7631.4	
425.46	6664.8	
425.66	5736.4	
425.87	5408	
426.07	7383.6	
426.27	7238.9	
426.47	5545.9	
426.67	4932.9	
426.88	7654.6	
427.08	7169.3	
427.28	5754.8	
427.48	4852.3	
427.69	6110.5	
427.89	6720.1	
428.09	5761.6	
428.29	4919.9	
428.5	7473.7	
428.7	6969.2	
428.9	4817.5	
429.1	5432.6	
429.3	6860	
429.51	7258.7	
429.71	5130.2	
429.91	5934.3	
430.11	7118.7	
430.31	7383.6	
430.52	5423.7	
430.72	5683.1	
430.92	7757	
431.12	7210.2	
431.32	5098.8	
431.53	5581.4	
431.73	6145.3	
431.93	7839.6	
432.13	5083.7	
432.33	4982.7	
432.54	6634.1	
432.74	6994.5	
432.94	4801.8	
433.14	5945.9	
433.34	7167.9	
433.55	6675.7	
433.75	5776.6	
433.95	7573.4	
434.15	6978.1	
434.35	6594.5	
434.56	5041.4	
434.76	4524	
434.96	6899.6	
435.16	7178.8	
435.36	4958.1	
435.56	6070.2	
435.77	6546.7	
435.97	6793.8	
436.17	6765.8	
436.37	5963.7	
436.57	6583.5	
436.78	6367.8	
436.98	7095.5	
437.18	6542.6	
437.38	7243.7	
437.58	6689.3	
437.78	6682.5	
437.99	5264	
438.19	7199.3	
438.39	8004.8	
438.59	5253	
438.79	4764.3	
438.99	7848.5	
439.2	6810.9	
439.4	5014.8	
439.6	4871.4	
439.8	7144	
440	8226	
440.2	5956.9	
440.4	6076.3	
440.61	7457.3	
440.81	7956.4	
441.01	5154.7	
441.21	5951.4	
441.41	7798	
441.61	7427.3	
441.81	6344.6	
442.02	7310.6	
442.22	8267	
442.42	7453.9	
442.62	5242.8	
442.82	5264.6	
443.02	7839.6	
443.22	6978.8	
443.43	5627.1	
443.63	5208.7	
443.83	6844.3	
444.03	6873	
444.23	6384.9	
444.43	6036	
444.63	7091.4	
444.83	8290.2	
445.04	5352.7	
445.24	6507.8	
445.44	7481.9	
445.64	7559.7	
445.84	6123.4	
446.04	6105.7	
446.24	6826.6	
446.44	7899.7	
446.65	5322	
446.85	5698.8	
447.05	7019.8	
447.25	7775.5	
447.45	5775.3	
447.65	5173.2	
447.85	7263.5	
448.05	6898.2	
448.25	6216.3	
448.46	5984.2	
448.66	7209.5	
448.86	6952.9	
449.06	5048.9	
449.26	6193.1	
449.46	7557.7	
449.66	6589	
449.86	5775.3	
450.06	5684.5	
450.26	6746.7	
450.47	7313.3	
450.67	5936.4	
450.87	6249	
451.07	7458	
451.27	7232.7	
451.47	5322	
451.67	5865.4	
451.87	6894.1	
452.07	8049.2	
452.27	5472.9	
452.47	5489.2	
452.67	7163.8	
452.88	7826	
453.08	4833.2	
453.28	6852.5	
453.48	8411	
453.68	7147.4	
453.88	5391.6	
454.08	5643.5	
454.28	7539.9	
454.48	7223.2	
454.68	6143.2	
454.88	6660	
455.08	7684	
455.28	7494.2	
455.48	5239.4	
455.68	5891.3	
455.89	8186.4	
456.09	7823.2	
456.29	5639.4	
456.49	5752.1	
456.69	7994.6	
456.89	7266.9	
457.09	6249	
457.29	6565.8	
457.49	7600.7	
457.69	7756.3	
457.89	6008.7	
458.09	5425.8	
458.29	7462.8	
458.49	8057.4	
458.69	6443.6	
458.89	5959.6	
459.09	8231.5	
459.29	8417.2	
459.49	5947.3	
459.69	6734.4	
459.9	7871	
460.1	7408.9	
460.3	5801.9	
460.5	5678.3	
460.7	7872.4	
460.9	7666.9	
461.1	5338.4	
461.3	6653.9	
461.5	8576.9	
461.7	8146.1	
461.9	5841.5	
462.1	6237.4	
462.3	7630	
462.5	8254.7	
462.7	5811.5	
462.9	5933.6	
463.1	9244.5	
463.3	8942.1	
463.5	6092.7	
463.7	7145.4	
463.9	7854.6	
464.1	8178.9	
464.3	6312.5	
464.5	6479.1	
464.7	8369.4	
464.9	8079.2	
465.1	7862.2	
465.3	6916	
465.5	8785.1	
465.7	8760.5	
465.9	7088.7	
466.1	6970.6	
466.3	8675.2	
466.5	8392.6	
466.7	7789.1	
466.9	6698.9	
467.1	8395.3	
467.3	9353.8	
467.5	7775.5	
467.7	6619.7	
467.9	9579.7	
468.1	10517	
468.3	7461.4	
468.5	7863.5	
468.7	8416.5	
468.9	8337.3	
469.1	6805.4	
469.3	7634.8	
469.5	10342	
469.7	7912	
469.9	7453.9	
470.1	6704.4	
470.3	8313.4	
470.5	8424.7	
470.7	7926.3	
470.9	6670.2	
471.1	8162.5	
471.3	8630.8	
471.5	6614.3	
471.69	8600.8	
471.89	8047.8	
472.09	7552.2	
472.29	7371.3	
472.49	7831.4	
472.69	7754.3	
472.89	8654	
473.09	6450.4	
473.29	6576	
473.49	7965.2	
473.69	8113.4	
473.89	7563.8	
474.09	6807.4	
474.29	9321.7	
474.49	8988.5	
474.69	7527.7	
474.89	6898.9	
475.09	8183	
475.29	8076.5	
475.49	6352.8	
475.69	6593.8	
475.88	9721	
476.08	8417.8	
476.28	6272.2	
476.48	6792.4	
476.68	8794.7	
476.88	8672.5	
477.08	6507.1	
477.28	6884.6	
477.48	8309.3	
477.68	8964	
477.88	6393.8	
478.08	6783.6	
478.28	9083.4	
478.48	8301.8	
478.67	6736.5	
478.87	6171.9	
479.07	8893.6	
479.27	8402.8	
479.47	6969.2	
479.67	6995.9	
479.87	8838.4	
480.07	9314.2	
480.27	6255.9	
480.47	7852.6	
480.67	8434.2	
480.87	9086.8	
481.06	6509.8	
481.26	7316.7	
481.46	8426.7	
481.66	8288.8	
481.86	6937.2	
482.06	8013	
482.26	8010.3	
482.46	8966.7	
482.66	6945.3	
482.86	6494.8	
483.05	8486.8	
483.25	7873.1	
483.45	9366.7	
483.65	6870.9	
483.85	8029.4	
484.05	8392.6	
484.25	7427.3	
484.45	7844.4	
484.65	9295.7	
484.84	9280	
485.04	6870.3	
485.24	6847.7	
485.44	9542.2	
485.64	7895.6	
485.84	6149.4	
486.04	7539.3	
486.24	8264.9	
486.44	8626	
486.63	6135.7	
486.83	6948.8	
487.03	8138.6	
487.23	8340.7	
487.43	6327.5	
487.63	8682	
487.83	8436.3	
488.02	9516.2	
488.22	7307.8	
488.42	7857.4	
488.62	9250.7	
488.82	8187.1	
489.02	6914.6	
489.22	6963.1	
489.41	9093.7	
489.61	8770.1	
489.81	6683.2	
490.01	6685.9	
490.21	9027.4	
490.41	9745.6	
490.61	6632.7	
490.8	6723.5	
491	8546.2	
491.2	7944.1	
491.4	7352.9	
491.6	6444.3	
491.8	8469	
491.99	8748.2	
492.19	6362.4	
492.39	6815.6	
492.59	9157.8	
492.79	9163.3	
492.99	7624.6	
493.18	6737.1	
493.38	9282.8	
493.58	10005	
493.78	7430	
493.98	7032.7	
494.18	9043.8	
494.37	8458.1	
494.57	7731.1	
494.77	7563.1	
494.97	9243.2	
495.17	9525.8	
495.37	7107.8	
495.56	7589.1	
495.76	9712.2	
495.96	9271.2	
496.16	8415.8	
496.36	7266.9	
496.55	9513.5	
496.75	9026.8	
496.95	7727	
497.15	7597.3	
497.35	9421.3	
497.54	9533.3	
497.74	7351.5	
497.94	9131.9	
498.14	10170	
498.34	10057	
498.53	7086.7	
498.73	7876.5	
498.93	8868.4	
499.13	9476	
499.33	7700.4	
499.52	8391.2	
499.72	9435	
499.92	9735.4	
500.12	7378.1	
500.32	7583.6	
500.51	9723.1	
500.71	9491.7	
500.91	8449.9	
501.11	8038.3	
501.31	9610.4	
501.5	10047	
501.7	8633.6	
501.9	7630	
502.1	9460.3	
502.29	9792	
502.49	8135.9	
502.69	8570.1	
502.89	9611.1	
503.09	9568.8	
503.28	7193.8	
503.48	7266.2	
503.68	8843.1	
503.88	8921	
504.07	8259.5	
504.27	7733.1	
504.47	9327.8	
504.67	9321	
504.86	8172.8	
505.06	7858.7	
505.26	8904.6	
505.46	10551	
505.65	7716.7	
505.85	7837.6	
506.05	8766	
506.25	9360.6	
506.44	7049.1	
506.64	7990.5	
506.84	8850	
507.04	9658.2	
507.23	7200.7	
507.43	7830.7	
507.63	10643	
507.83	8914.8	
508.02	7790.5	
508.22	7310.6	
508.42	10855	
508.62	8669.1	
508.81	7641.7	
509.01	8130.4	
509.21	8596	
509.4	8850.6	
509.6	7843	
509.8	7243	
510	8805.6	
510.19	10392	
510.39	7143.3	
510.59	7312.6	
510.79	8696.4	
510.98	10066	
511.18	7361.1	
511.38	7389.8	
511.57	9458.2	
511.77	9362.6	
511.97	8088.1	
512.17	7002	
512.36	9501.9	
512.56	9453.4	
512.76	7217.7	
512.95	6879.1	
513.15	9592	
513.35	8320.2	
513.55	8094.3	
513.74	7221.1	
513.94	9610.4	
514.14	8886.8	
514.33	8115.4	
514.53	7883.3	
514.73	8904.6	
514.92	9131.2	
515.12	7413	
515.32	7251.9	
515.51	9207	
515.71	9790	
515.91	9009.7	
516.11	7315.3	
516.3	10925	
516.5	8811.7	
516.7	7908.6	
516.89	8486.1	
517.09	8991.9	
517.29	8871.8	
517.48	8174.8	
517.68	7576.1	
517.88	8744.8	
518.07	9334.6	
518.27	8084	
518.47	7192.5	
518.66	9901.9	
518.86	8541.4	
519.06	7011.6	
519.25	7556.3	
519.45	8894.3	
519.65	10371	
519.84	8172.8	
520.04	8726.4	
520.24	10753	
520.43	9458.9	
520.63	7795.3	
520.83	7538.6	
521.02	8729.1	
521.22	9413.1	
521.42	8050.6	
521.61	8617.2	
521.81	9011.1	
522.01	9151	
522.2	7986.4	
522.4	7797.3	
522.6	9607.7	
522.79	8525.7	
522.99	7924.3	
523.18	7217.7	
523.38	9381.7	
523.58	9517.6	
523.77	9154.4	
523.97	7232.1	
524.17	11322	
524.36	10487	
524.56	8550.3	
524.76	8228.1	
524.95	9482.1	
525.15	9271.8	
525.34	7983.7	
525.54	7907.9	
525.74	9785.2	
525.93	8852.7	
526.13	9166	
526.33	8051.2	
526.52	10225	
526.72	9680.1	
526.91	9334	
527.11	8582.4	
527.31	10236	
527.5	10647	
527.7	8374.8	
527.89	7507.2	
528.09	9223.4	
528.29	9732.6	
528.48	8829.5	
528.68	8420.6	
528.87	10219	
529.07	10198	
529.27	8404.9	
529.46	7707.9	
529.66	9687.6	
529.85	10084	
530.05	7690.8	
530.25	8474.5	
530.44	11075	
530.64	9645.3	
530.83	8114.1	
531.03	8386.4	
531.23	10101	
531.42	10059	
531.62	9257.5	
531.81	8312.7	
532.01	10314	
532.21	10793	
532.4	8154.3	
532.6	8522.3	
532.79	11208	
532.99	10389	
533.18	8591.2	
533.38	9516.2	
533.58	9917.6	
533.77	10655	
533.97	8525.7	
534.16	9342.2	
534.36	10894	
534.55	10125	
534.75	9449.3	
534.95	8598.1	
535.14	10734	
535.34	9981.8	
535.53	8144.1	
535.73	10192	
535.92	11301	
536.12	10075	
536.31	8245.8	
536.51	9458.9	
536.71	10360	
536.9	10095	
537.1	8485.4	
537.29	8658.8	
537.49	10897	
537.68	9918.3	
537.88	9000.1	
538.07	8211	
538.27	10142	
538.46	11205	
538.66	8161.8	
538.86	8639	
539.05	10168	
539.25	10574	
539.44	8969.4	
539.64	8527.7	
539.83	10038	
540.03	11044	
540.22	8351.6	
540.42	8489.5	
540.61	10223	
540.81	10462	
541	8882	
541.2	9599.5	
541.39	9792.7	
541.59	10143	
541.78	9142.8	
541.98	8200.1	
542.18	9448	
542.37	9396.1	
542.57	8630.1	
542.76	9196.1	
542.96	9444.5	
543.15	10193	
543.35	8549.6	
543.54	7864.2	
543.74	10378	
543.93	9986.6	
544.13	8600.1	
544.32	9648.7	
544.52	10341	
544.71	9571.5	
544.91	7656.7	
545.1	8936.7	
545.3	9651.4	
545.49	10278	
545.69	7687.4	
545.88	8318.2	
546.08	11238	
546.27	10783	
546.47	8780.3	
546.66	8021.9	
546.86	10488	
547.05	11092	
547.24	8299.7	
547.44	8101.1	
547.63	9480.7	
547.83	10497	
548.02	8499.8	
548.22	8661.5	
548.41	9211.1	
548.61	10524	
548.8	8039.6	
549	8082.6	
549.19	9809.1	
549.39	10164	
549.58	7716.7	
549.78	8333.2	
549.97	10314	
550.17	9658.2	
550.36	9136.7	
550.55	10170	
550.75	9704	
550.94	10707	
551.14	7899	
551.33	8396.7	
551.53	9131.2	
551.72	10124	
551.92	8387.8	
552.11	8144.8	
552.31	10076	
552.5	10242	
552.69	9815.2	
552.89	7829.4	
553.08	10045	
553.28	9684.2	
553.47	8159.8	
553.67	9364.7	
553.86	10725	
554.06	9018.6	
554.25	7408.9	
554.44	7897	
554.64	11481	
554.83	11030	
555.03	7953.6	
555.22	8260.1	
555.42	10247	
555.61	9990.7	
555.8	8109.3	
556	8449.2	
556.19	9099.8	
556.39	10318	
556.58	8258.1	
556.78	8099	
556.97	9884.9	
557.16	9513.5	
557.36	9437.7	
557.55	7754.3	
557.75	8953.7	
557.94	10668	
558.13	7866.2	
558.33	7664.2	
558.52	10386	
558.72	9342.8	
558.91	7780.2	
559.1	7999.4	
559.3	9009	
559.49	8710	
559.69	7364.5	
559.88	8361.9	
560.07	9819.3	
560.27	10243	
560.46	8581	
560.66	8718.2	
560.85	9630.9	
561.04	8822	
561.24	7750.9	
561.43	7924.3	
561.63	9134.6	
561.82	9279.3	
562.01	9152.4	
562.21	8219.9	
562.4	9727.2	
562.59	10696	
562.79	8101.8	
562.98	7779.6	
563.18	9760.6	
563.37	11132	
563.56	8533.2	
563.76	7595.9	
563.95	9189.2	
564.14	9035.6	
564.34	8041	
564.53	7898.3	
564.73	9731.3	
564.92	10047	
565.11	8186.4	
565.31	7686.7	
565.5	10206	
565.69	9209.7	
565.89	7767.9	
566.08	8072.4	
566.27	10137	
566.47	10515	
566.66	8688.2	
566.85	7391.8	
567.05	9708.1	
567.24	9158.5	
567.44	7826.7	
567.63	9131.2	
567.82	9942.2	
568.02	9759.3	
568.21	7758.4	
568.4	8152.3	
568.6	9577	
568.79	9605.7	
568.98	7668.3	
569.18	7585.7	
569.37	9520.3	
569.56	11544	
569.76	8058.8	
569.95	8910.7	
570.14	9867.8	
570.34	9783.8	
570.53	7470.3	
570.72	7505.8	
570.91	10240	
571.11	9364	
571.3	8036.2	
571.49	8818.6	
571.69	9521.7	
571.88	9017.9	
572.07	8574.8	
572.27	8482	
572.46	9123.7	
572.65	10049	
572.85	7762.5	
573.04	8075.1	
573.23	10292	
573.43	9655.5	
573.62	7582.9	
573.81	8275.8	
574	9672.6	
574.2	9396.8	
574.39	7931.1	
574.58	8071.7	
574.78	10507	
574.97	9743.6	
575.16	8466.3	
575.36	8591.9	
575.55	10195	
575.74	10274	
575.93	7541.3	
576.13	8721.6	
576.32	9483.5	
576.51	10060	
576.71	7900.4	
576.9	9330.5	
577.09	10416	
577.28	9964.7	
577.48	8499.1	
577.67	7584.3	
577.86	9611.8	
578.05	9908.1	
578.25	8143.4	
578.44	8307.2	
578.63	9742.2	
578.83	10952	
579.02	7599.3	
579.21	9131.9	
579.4	10000	
579.6	9585.2	
579.79	8301.8	
579.98	10449	
580.17	10237	
580.37	10262	
580.56	7802.1	
580.75	8572.8	
580.94	10862	
581.14	10627	
581.33	9147.6	
581.52	7991.9	
581.71	10204	
581.91	10914	
582.1	7719.5	
582.29	8269.7	
582.48	9787.9	
582.68	9817.3	
582.87	8708.6	
583.06	8403.5	
583.25	10168	
583.45	10077	
583.64	9128.5	
583.83	9774.3	
584.02	9647.3	
584.21	10157	
584.41	9061.6	
584.6	8349.6	
584.79	9865.1	
584.98	10777	
585.18	7800	
585.37	7868.3	
585.56	9415.9	
585.75	10173	
585.94	8071	
586.14	8769.4	
586.33	10832	
586.52	9813.9	
586.71	8570.1	
586.91	8312.7	
587.1	9219.3	
587.29	10323	
587.48	8136.6	
587.67	8062.9	
587.87	9957.2	
588.06	10059	
588.25	9236.3	
588.44	8543.4	
588.63	9616.6	
588.83	10076	
589.02	7896.3	
589.21	7666.9	
589.4	9221.3	
589.59	8969.4	
589.78	6942.6	
589.98	7098.3	
590.17	8595.3	
590.36	9200.2	
590.55	6553.5	
590.74	7279.2	
590.94	10466	
591.13	9046.6	
591.32	7173.4	
591.51	6756.2	
591.7	9471.2	
591.89	8950.3	
592.09	6862.1	
592.28	7271.7	
592.47	8182.3	
592.66	10149	
592.85	6820.4	
593.05	6974	
593.24	8846.5	
593.43	9611.1	
593.62	7152.9	
593.81	7703.1	
594	8996	
594.19	9112.8	
594.39	7124.2	
594.58	7057.3	
594.77	9374.9	
594.96	9810.5	
595.15	6950.1	
595.34	7580.2	
595.54	9351.7	
595.73	8328.4	
595.92	6396.5	
596.11	7565.9	
596.3	9843.9	
596.49	8609.7	
596.68	7377.5	
596.88	7724.9	
597.07	9565.4	
597.26	8433.5	
597.45	6806.8	
597.64	8149.6	
597.83	8634.9	
598.02	9301.2	
598.22	6981.5	
598.41	7599.3	
598.6	9028.1	
598.79	8541.4	
598.98	6984.9	
599.17	7920.2	
599.36	9080.7	
599.55	10292	
599.74	9136	
599.94	8820.6	
600.13	9622	
600.32	8452.6	
600.51	6821.1	
600.7	6996.5	
600.89	10337	
601.08	10316	
601.27	6773.3	
601.47	7780.2	
601.66	9651.4	
601.85	10286	
602.04	7603.4	
602.23	7544	
602.42	8716.8	
602.61	9377	
602.8	7442.3	
602.99	7162.4	
603.18	9111.4	
603.37	9304.6	
603.57	7945.4	
603.76	8460.8	
603.95	10062	
604.14	9676	
604.33	7318.8	
604.52	7626.6	
604.71	9306	
604.9	8883.4	
605.09	8212.4	
605.28	8031.5	
605.47	9945.6	
605.66	9549.7	
605.86	7900.4	
606.05	7367.2	
606.24	9880.1	
606.43	8430.8	
606.62	7591.8	
606.81	8378.2	
607	9706	
607.19	9050.7	
607.38	7075.7	
607.57	7294.9	
607.76	8850.6	
607.95	8276.5	
608.14	7677.2	
608.33	8390.5	
608.52	8798.8	
608.72	9709.4	
608.91	7006.1	
609.1	6865.5	
609.29	8963.3	
609.48	8403.5	
609.67	7873.1	
609.86	6941.9	
610.05	8530.5	
610.24	8875.9	
610.43	6906.4	
610.62	6526.9	
610.81	9876.7	
611	9794.8	
611.19	6971.3	
611.38	7653.9	
611.57	9168.8	
611.76	10396	
611.95	6681.8	
612.14	6621.1	
612.33	8929.1	
612.52	8497.7	
612.71	7279.8	
612.9	6520	
613.09	8185	
613.28	10500	
613.47	6943.3	
613.66	7929.7	
613.85	9121.7	
614.04	8541.4	
614.24	7064.8	
614.43	6311.2	
614.62	9285.5	
614.81	9100.5	
615	7618.4	
615.19	7671	
615.38	8498.4	
615.57	8890.9	
615.76	7504.4	
615.95	8485.4	
616.14	9165.3	
616.33	8923	
616.52	7886	
616.71	8126.3	
616.9	9213.8	
617.09	9022.7	
617.28	7176.1	
617.47	8460.8	
617.66	8360.5	
617.85	8388.5	
618.04	8196.7	
618.22	7574.8	
618.41	8691.6	
618.6	9663	
618.79	7434.1	
618.98	7172	
619.17	9881.4	
619.36	8232.8	
619.55	7286.7	
619.74	7361.8	
619.93	9228.1	
620.12	8583.7	
620.31	7975.5	
620.5	8170	
620.69	9783.8	
620.88	10158	
621.07	8778.3	
621.26	7843	
621.45	9344.2	
621.64	9416.6	
621.83	8015.7	
622.02	7083.2	
622.21	9380.4	
622.4	9150.3	
622.59	8464.9	
622.78	8193.2	
622.97	8839	
623.16	9800.2	
623.35	7884	
623.54	7117.4	
623.72	8996.7	
623.91	9213.8	
624.1	8101.8	
624.29	6782.2	
624.48	10152	
624.67	9415.9	
624.86	8020.5	
625.05	7065.5	
625.24	10301	
625.43	8608.3	
625.62	9728.5	
625.81	7320.1	
626	9682.1	
626.19	8898.4	
626.38	8052.6	
626.56	7389.1	
626.75	8796.7	
626.94	9531.2	
627.13	8086.7	
627.32	6701	
627.51	9369.5	
627.7	10703	
627.89	6900.3	
628.08	8024.6	
628.27	8591.9	
628.46	8725.7	
628.65	7103	
628.83	6816.3	
629.02	9303.9	
629.21	8684.8	
629.4	7570.7	
629.59	7818.5	
629.78	8632.2	
629.97	9612.5	
630.16	7836.2	
630.35	7314.7	
630.54	9986.6	
630.72	9757.9	
630.91	7286	
631.1	7798.7	
631.29	9280	
631.48	9427.5	
631.67	7912.7	
631.86	7464.8	
632.05	8673.8	
632.24	8861.6	
632.42	7080.5	
632.61	7638.2	
632.8	9024	
632.99	8522.3	
633.18	7718.1	
633.37	8062.2	
633.56	9268.4	
633.75	9108.7	
633.93	7608.2	
634.12	7447.1	
634.31	10119	
634.5	9686.2	
634.69	7467.6	
634.88	7926.3	
635.07	8923	
635.25	9497.1	
635.44	8399.4	
635.63	8531.2	
635.82	8867.7	
636.01	8342.7	
636.2	8260.1	
636.39	7795.3	
636.57	10011	
636.76	9691	
636.95	7274.4	
637.14	8753	
637.33	9312.8	
637.52	10185	
637.7	7021.1	
637.89	7970.7	
638.08	8948.3	
638.27	10330	
638.46	8006.2	
638.65	8462.2	
638.83	10352	
639.02	8692.9	
639.21	7975.5	
639.4	8443.8	
639.59	9183.1	
639.78	8712.7	
639.96	7234.1	
640.15	7197.9	
640.34	8983.8	
640.53	9228.1	
640.72	6968.6	
640.91	7309.9	
641.09	8424	
641.28	9762.7	
641.47	7328.3	
641.66	8049.2	
641.85	9195.4	
642.03	9382.4	
642.22	7896.3	
642.41	7333.8	
642.6	8496.3	
642.79	7950.9	
642.97	7055.3	
643.16	7903.1	
643.35	8541.4	
643.54	8320.9	
643.73	7033.4	
643.91	7746.8	
644.1	8196.7	
644.29	8828.1	
644.48	7023.2	
644.67	7099.6	
644.85	8249.2	
645.04	8563.2	
645.23	6546.7	
645.42	6808.8	
645.6	8015.7	
645.79	9252.7	
645.98	6817.7	
646.17	5896.8	
646.36	7741.3	
646.54	8381.7	
646.73	7550.2	
646.92	6356.2	
647.11	7964.6	
647.29	8996	
647.48	6392.4	
647.67	6299.6	
647.86	9238.4	
648.05	9198.1	
648.23	6808.1	
648.42	7999.4	
648.61	8664.3	
648.8	8366.6	
648.98	6358.9	
649.17	6797.9	
649.36	8007.6	
649.55	7520.1	
649.73	6516	
649.92	7175.4	
650.11	7815	
650.3	8163.9	
650.48	6688.7	
650.67	6310.5	
650.86	8514.1	
651.05	7402	
651.23	6480.5	
651.42	6452.5	
651.61	7944.1	
651.79	8079.2	
651.98	6740.5	
652.17	6407.4	
652.36	8381.7	
652.54	7486.7	
652.73	6459.3	
652.92	6227.9	
653.11	8336.6	
653.29	8444.5	
653.48	5672.9	
653.67	6660.7	
653.85	8165.3	
654.04	9251.4	
654.23	6882.5	
654.42	6386.2	
654.6	7715.4	
654.79	8332.5	
654.98	5857.2	
655.16	6367.8	
655.35	7234.8	
655.54	7258.7	
655.73	6006	
655.91	5866.7	
656.1	8395.3	
656.29	7185.6	
656.47	5546.6	
656.66	7311.9	
656.85	7597.3	
657.03	7581.6	
657.22	6133	
657.41	6196.5	
657.59	7727.7	
657.78	7485.3	
657.97	5843.5	
658.16	6549.4	
658.34	8316.8	
658.53	8667.7	
658.72	7420.5	
658.9	7991.2	
659.09	7767.3	
659.28	7873.1	
659.46	6260	
659.65	6191.7	
659.84	7580.9	
660.02	8159.8	
660.21	6152.8	
660.4	6068.8	
660.58	8527.1	
660.77	7882.6	
660.96	6763.8	
661.14	5820.3	
661.33	9026.1	
661.52	8937.3	
661.7	5692.7	
661.89	9395.4	
662.08	7475.1	
662.26	7107.1	
662.45	5976.7	
662.64	6216.3	
662.82	8153	
663.01	7453.9	
663.2	6142.5	
663.38	6823.8	
663.57	8102.4	
663.75	8017.8	
663.94	6451.1	
664.13	7761.1	
664.31	7434.8	
664.5	8210.3	
664.69	6830.7	
664.87	7233.4	
665.06	7286	
665.25	7998	
665.43	7488.1	
665.62	7574.1	
665.8	8305.2	
665.99	7645.1	
666.18	6434	
666.36	6602.7	
666.55	8257.4	
666.74	8162.5	
666.92	6089.3	
667.11	7763.8	
667.29	7673.1	
667.48	8230.1	
667.67	7370	
667.85	6511.2	
668.04	7694.9	
668.22	7574.8	
668.41	6493.4	
668.6	6643.6	
668.78	7441.6	
668.97	7621.2	
669.15	6847.7	
669.34	5813.5	
669.53	7385.7	
669.71	7811.6	
669.9	5994.4	
670.08	6692.1	
670.27	7497.6	
670.46	7985.7	
670.64	6909.2	
670.83	7127.6	
671.01	7264.1	
671.2	7905.2	
671.38	6075.6	
671.57	5943.2	
671.76	8607.6	
671.94	9147.6	
672.13	5928.2	
672.31	6873	
672.5	8130.4	
672.69	7484.6	
672.87	6068.1	
673.06	6421.1	
673.24	7993.2	
673.43	7460.1	
673.61	6841.6	
673.8	6395.1	
673.98	8184.4	
674.17	8273.8	
674.36	6919.4	
674.54	6749.4	
674.73	7940.7	
674.91	8097	
675.1	6543.9	
675.28	6201.2	
675.47	7671	
675.65	8234.2	
675.84	6373.3	
676.03	6683.2	
676.21	7472.4	
676.4	6998.6	
676.58	7151.5	
676.77	6873.7	
676.95	8873.2	
677.14	7459.4	
677.32	6079.1	
677.51	5890.6	
677.69	8191.9	
677.88	7112.6	
678.06	5894.1	
678.25	6043.6	
678.44	7712	
678.62	7415	
678.81	5771.9	
678.99	6655.2	
679.18	8420.6	
679.36	8082	
679.55	6287.3	
679.73	6898.2	
679.92	8023.3	
680.1	7395.9	
680.29	7558.4	
680.47	6328.9	
680.66	7410.2	
680.84	8269	
681.03	5634.6	
681.21	6756.9	
681.4	7442.3	
681.58	7275.8	
681.77	6039.5	
681.95	5987.6	
682.14	8219.9	
682.32	8606.2	
682.51	6897.6	
682.69	5730.9	
682.88	7279.8	
683.06	7930.4	
683.25	6580.1	
683.43	7109.2	
683.62	7546.1	
683.8	7987.1	
683.99	7080.5	
684.17	6397.9	
684.36	8737.3	
684.54	7416.4	
684.73	5557.5	
684.91	5681.7	
685.1	7645.8	
685.28	7058	
685.46	6210.1	
685.65	6313.9	
685.83	7879.2	
686.02	7286.7	
686.2	5776.6	
686.39	5908.4	
686.57	6933.7	
686.76	8547.5	
686.94	5816.2	
687.13	5954.1	
687.31	7773.4	
687.5	7249.8	
687.68	5390.3	
687.86	6667.5	
688.05	9052	
688.23	6767.2	
688.42	6681.2	
688.6	5884.5	
688.79	7215.7	
688.97	7200	
689.16	6324.1	
689.34	5264.6	
689.52	7987.8	
689.71	8150.2	
689.89	6523.5	
690.08	5859.9	
690.26	7493.5	
690.45	7348.8	
690.63	6606.1	
690.81	5973.2	
691	7167.9	
691.18	7081.9	
691.37	6126.8	
691.55	8204.2	
691.74	7014.3	
691.92	8987.9	
692.1	6184.9	
692.29	5489.9	
692.47	7291.5	
692.66	6612.2	
692.84	5732.3	
693.02	6361	
693.21	6748.7	
693.39	7243	
693.58	6402.6	
693.76	5865.4	
693.94	8525.7	
694.13	8254.7	
694.31	5866.7	
694.5	6908.5	
694.68	7146	
694.86	7488.1	
695.05	6203.3	
695.23	6367.8	
695.42	7829.4	
695.6	10113	
695.78	6809.5	
695.97	5976.7	
696.15	7897	
696.34	7176.1	
696.52	5696.8	
696.7	6502.3	
696.89	7532.4	
697.07	7023.2	
697.25	6402.6	
697.44	8013	
697.62	7546.1	
697.81	7830.7	
697.99	6063.4	
698.17	6575.3	
698.36	6823.1	
698.54	7493.5	
698.72	6438.1	
698.91	5426.4	
699.09	7085.3	
699.28	7027.3	
699.46	6115.9	
699.64	5956.2	
699.83	6963.8	
700.01	8226	
700.19	6763.1	
700.38	5255.8	
700.56	8303.8	
700.74	7073	
700.93	5635.3	
701.11	6471.6	
701.29	7677.2	
701.48	8692.9	
701.66	5799.8	
701.84	5887.2	
702.03	7215.7	
702.21	7893.6	
702.39	5448.3	
702.58	6028.5	
702.76	7552.2	
702.94	7722.9	
703.13	5386.2	
703.31	7894.9	
703.49	6949.4	
703.68	8345.5	
703.86	5603.9	
704.04	6713.9	
704.23	7451.9	
704.41	7878.5	
704.59	5811.5	
704.78	7072.3	
704.96	8574.2	
705.14	7927	
705.33	5630.5	
705.51	6419	
705.69	7359.7	
705.87	8090.8	
706.06	6761.7	
706.24	5621	
706.42	7638.2	
706.61	7871	
706.79	6752.2	
706.97	5582.1	
707.16	7102.4	
707.34	7675.8	
707.52	6682.5	
707.7	5838.8	
707.89	7195.2	
708.07	6915.3	
708.25	6674.3	
708.44	6862.7	
708.62	7161.1	
708.8	8286.8	
708.98	7051.2	
709.17	5921.4	
709.35	7551.5	
709.53	7595.2	
709.72	5637.4	
709.9	5706.3	
710.08	7788.4	
710.26	7801.4	
710.45	7193.1	
710.63	5920	
710.81	7471	
710.99	7496.9	
711.18	6582.2	
711.36	6042.9	
711.54	7316	
711.72	7989.8	
711.91	6089.3	
712.09	5502.9	
712.27	7370.6	
712.45	8036.2	
712.64	6273.6	
712.82	5300.8	
713	6742.6	
713.18	6890	
713.37	5352	
713.55	6544.6	
713.73	7663.5	
713.91	6270.9	
714.1	5694	
714.28	5033.2	
714.46	7296.9	
714.64	6468.2	
714.83	4513.7	
715.01	5367	
715.19	6568.5	
715.37	5994.4	
715.55	5097.4	
715.74	5368.4	
715.92	7479.2	
716.1	5556.1	
716.28	6454.5	
716.47	5464.7	
716.65	6199.9	
716.83	6338.5	
717.01	5352.7	
717.19	5433.9	
717.38	8370	
717.56	6040.1	
717.74	5612.1	
717.92	4898.7	
718.1	7259.4	
718.29	6453.1	
718.47	4454.3	
718.65	5216.2	
718.83	7152.2	
719.01	7138.5	
719.2	4390.8	
719.38	5429.8	
719.56	6789.7	
719.74	8353	
719.92	4992.3	
720.11	5984.8	
720.29	6765.8	
720.47	5946.6	
720.65	4513.7	
720.83	5345.9	
721.02	6290.7	
721.2	5991.7	
721.38	5409.4	
721.56	4755.4	
721.74	5606.7	
721.92	5782.1	
722.11	6012.8	
722.29	5606.7	
722.47	6977.4	
722.65	6129.6	
722.83	4727.4	
723.01	5638.1	
723.2	6261.3	
723.38	6498.2	
723.56	4207.9	
723.74	5270.1	
723.92	5751.4	
724.1	6933.7	
724.29	4634.6	
724.47	5810.8	
724.65	5841.5	
724.83	5724.8	
725.01	4571.7	
725.19	5489.2	
725.37	5885.9	
725.56	5868.1	
725.74	4417.5	
725.92	4661.2	
726.1	5731.6	
726.28	6102.3	
726.46	5108.3	
726.64	4782	
726.83	6001.2	
727.01	6325.5	
727.19	4398.4	
727.37	5203.2	
727.55	6143.2	
727.73	6705	
727.91	4425	
728.09	4225	
728.28	6722.8	
728.46	7338.6	
728.64	5366.4	
728.82	5317.9	
729	7869	
729.18	7068.2	
729.36	4623.6	
729.54	6868.9	
729.72	8088.1	
729.91	6425.2	
730.09	6554.2	
730.27	5277.6	
730.45	6394.4	
730.63	7037.5	
730.81	5903.6	
730.99	5039.4	
731.17	7449.8	
731.35	6038.1	
731.53	5529.5	
731.71	5096	
731.9	7194.5	
732.08	7479.2	
732.26	5354.1	
732.44	5056.4	
732.62	7406.1	
732.8	6964.5	
732.98	5713.2	
733.16	4841.4	
733.34	6918	
733.52	5715.9	
733.7	5362.3	
733.88	5603.9	
734.07	6837.5	
734.25	6567.2	
734.43	4747.2	
734.61	6435.4	
734.79	8036.9	
734.97	6505.7	
735.15	4958.8	
735.33	5328.1	
735.51	6806.1	
735.69	6408.1	
735.87	6479.8	
736.05	5566.4	
736.23	6680.5	
736.41	6423.1	
736.59	5290.6	
736.77	5507.7	
736.95	7204.1	
737.13	6603.3	
737.32	5083.7	
737.5	5283.8	
737.68	7772	
737.86	6484.6	
738.04	4844.1	
738.22	6775.4	
738.4	6345.3	
738.58	6635.4	
738.76	5566.4	
738.94	4490.5	
739.12	6423.1	
739.3	6320	
739.48	6178.7	
739.66	5945.9	
739.84	6717.3	
740.02	6689.3	
740.2	4581.3	
740.38	4936.3	
740.56	7081.2	
740.74	5986.9	
740.92	5621.7	
741.1	5519.3	
741.28	6568.5	
741.46	6430.6	
741.64	5169.1	
741.82	5698.8	
742	6574.7	
742.18	6618.4	
742.36	5429.8	
742.54	4986.8	
742.72	7119.4	
742.9	5909.8	
743.08	5769.8	
743.26	4566.3	
743.44	7339.9	
743.62	7184.3	
743.8	5991	
743.98	4984.1	
744.16	6945.3	
744.34	6613.6	
744.52	5856.5	
744.7	5788.9	
744.88	7083.2	
745.06	6561	
745.24	5896.8	
745.42	6038.1	
745.6	7136.5	
745.78	6877.8	
745.96	4690.5	
746.14	5053	
746.32	7883.3	
746.5	7239.6	
746.68	5597.8	
746.86	5001.8	
747.03	7576.8	
747.21	5902.2	
747.39	5607.3	
747.57	5097.4	
747.75	6766.5	
747.93	7180.9	
748.11	5116.5	
748.29	4932.2	
748.47	8340.7	
748.65	6470.2	
748.83	5797.1	
749.01	5492	
749.19	6995.9	
749.37	6150.1	
749.55	5347.9	
749.73	5420.3	
749.91	6625.9	
750.09	6382.8	
750.26	5511.8	
750.44	4915.8	
750.62	6715.3	
750.8	6610.8	
750.98	4819.6	
751.16	5111.7	
751.34	6655.9	
751.52	6079.1	
751.7	5933.6	
751.88	4810	
752.06	7193.8	
752.24	6966.5	
752.42	4737.6	
752.59	5075.5	
752.77	6541.9	
752.95	7886.7	
753.13	5803.3	
753.31	5220.3	
753.49	6300.9	
753.67	6808.1	
753.85	5587.5	
754.03	5025	
754.21	6979.5	
754.38	7355.6	
754.56	5265.3	
754.74	4248.9	
754.92	6235.4	
755.1	6892.8	
755.28	4212.7	
755.46	4214.7	
755.64	7514.7	
755.82	7643.7	
755.99	4373.1	
756.17	4429.1	
756.35	5060.5	
756.53	6561.7	
756.71	3318.4	
756.89	4262.5	
757.07	6130.9	
757.25	5237.3	
757.42	4863.9	
757.6	5757.5	
757.78	6348.7	
757.96	5324	
758.14	4546.5	
758.32	4055.7	
758.5	4895.3	
758.67	5666.7	
758.85	4377.9	
759.03	4489.1	
759.21	5861.3	
759.39	5249.6	
759.57	3984.7	
759.75	5023.7	
759.92	6511.2	
760.1	5793	
760.28	5425.8	
760.46	5748.6	
760.64	5599.8	
760.82	5362.9	
760.99	5372.5	
761.17	4580.6	
761.35	6462	
761.53	5495.4	
761.71	4668	
761.89	5427.8	
762.06	6365.1	
762.24	5875.6	
762.42	4795.7	
762.6	4612	
762.78	5943.2	
762.96	6628.6	
763.13	5229.8	
763.31	5004.6	
763.49	6787.7	
763.67	5919.3	
763.85	5784.1	
764.02	6365.8	
764.2	7063.4	
764.38	6223.1	
764.56	4773.1	
764.74	5723.4	
764.91	7232.1	
765.09	6092	
765.27	4498	
765.45	4314.4	
765.63	7237.5	
765.8	7041.6	
765.98	4074.8	
766.16	4422.2	
766.34	5743.9	
766.52	5396.4	
766.69	5389.6	
766.87	4283.7	
767.05	6063.4	
767.23	6879.1	
767.41	4561.5	
767.58	4851.6	
767.76	6676.4	
767.94	6700.3	
768.12	4618.2	
768.29	5468.8	
768.47	6199.9	
768.65	6815.6	
768.83	4296	
769	5423.7	
769.18	5657.2	
769.36	6350.8	
769.54	5370.5	
769.72	4289.8	
769.89	6669.6	
770.07	6810.9	
770.25	4578.6	
770.43	5907.7	
770.6	7436.9	
770.78	7878.5	
770.96	4799.1	
771.14	5503.6	
771.31	6599.9	
771.49	5878.4	
771.67	3987.4	
771.85	4231.8	
772.02	5229.8	
772.2	5927.5	
772.38	5057.8	
772.55	4421.6	
772.73	6135	
772.91	5960.3	
773.09	4821.6	
773.26	4858.5	
773.44	6199.2	
773.62	5812.8	
773.8	4336.9	
773.97	4057.7	
774.15	6221	
774.33	5778.7	
774.5	4200.4	
774.68	4539.7	
774.86	6341.2	
775.04	5819.6	
775.21	4284.4	
775.39	4281.6	
775.57	6077	
775.74	6480.5	
775.92	4101.4	
776.1	4072.7	
776.27	6024.4	
776.45	7346.7	
776.63	4232.5	
776.81	3818.8	
776.98	5726.1	
777.16	6705.7	
777.34	4401.1	
777.51	4390.8	
777.69	5640.8	
777.87	5432.6	
778.04	4450.9	
778.22	5098.8	
778.4	5455.8	
778.57	6098.2	
778.75	3695.9	
778.93	3920.5	
779.1	5263.3	
779.28	5102.2	
779.46	3667.9	
779.64	4197.7	
779.81	6225.8	
779.99	7186.3	
780.17	4990.2	
780.34	5152	
780.52	5726.8	
780.69	5898.8	
780.87	4517.1	
781.05	4081.6	
781.22	5760.9	
781.4	5808	
781.58	4188.1	
781.75	3348.4	
781.93	5664.7	
782.11	5112.4	
782.28	4976.6	
782.46	4121.2	
782.64	5011.4	
782.81	5952.1	
782.99	4215.4	
783.17	4233.8	
783.34	5797.8	
783.52	5089.2	
783.69	4401.1	
783.87	5170.4	
784.05	5225.1	
784.22	5146.5	
784.4	5146.5	
784.58	4433.9	
784.75	6094.8	
784.93	5199.1	
785.1	4126.7	
785.28	4721.3	
785.46	5794.4	
785.63	5131.5	
785.81	4091.2	
785.99	4013.3	
786.16	5296	
786.34	5678.3	
786.51	3986	
786.69	4465.9	
786.87	4898.1	
787.04	5391.6	
787.22	3890.5	
787.39	4774.5	
787.57	5038.7	
787.75	6245.6	
787.92	5005.2	
788.1	4980.7	
788.27	5122.7	
788.45	4904.9	
788.63	4693.9	
788.8	3339.6	
788.98	5635.3	
789.15	4847.5	
789.33	3563.5	
789.5	4164.9	
789.68	6051.1	
789.86	6120.7	
790.03	4544.4	
790.21	3980.6	
790.38	6022.4	
790.56	5182	
790.73	3844	
790.91	3875.4	
791.09	5083.1	
791.26	5865.4	
791.44	4114.4	
791.61	3556.6	
791.79	5085.1	
791.96	5184.1	
792.14	3664.5	
792.32	3263.1	
792.49	5124.7	
792.67	5247.6	
792.84	3708.2	
793.02	3485	
793.19	5836	
793.37	6277	
793.54	3275.4	
793.72	3586	
793.89	6385.6	
794.07	5075.5	
794.25	4214	
794.42	3355.9	
794.6	6130.9	
794.77	5755.5	
794.95	4477.5	
795.12	3849.5	
795.3	5132.9	
795.47	5719.3	
795.65	4220.9	
795.82	4086.4	
796	4865.3	
796.17	6849.8	
796.35	3969.6	
796.52	4731.5	
796.7	5618.9	
796.87	5705.6	
797.05	4958.1	
797.22	4848.2	
797.4	5603.2	
797.57	6688	
797.75	4111.6	
797.92	3929.4	
798.1	5963	
798.27	5075.5	
798.45	3392.8	
798.62	3594.2	
798.8	5378.6	
798.97	5859.2	
799.15	4320.5	
799.32	4101.4	
799.5	4673.5	
799.67	5418.9	
799.85	4513.7	
800.02	3269.9	
800.2	5044.1	
800.37	5402.5	
800.55	4661.2	
800.72	3883.6	
800.9	5824.4	
801.07	6323.4	
801.25	5264	
801.42	4304.1	
801.6	5898.2	
801.77	5586.9	
801.95	3940.3	
802.12	3831.1	
802.29	5543.9	
802.47	5523.4	
802.64	4222.9	
802.82	3193.5	
802.99	5045.5	
803.17	5978	
803.34	4115.1	
803.52	3667.9	
803.69	6665.5	
803.87	4831.8	
804.04	4088.4	
804.21	4188.8	
804.39	6166.4	
804.56	5324.7	
804.74	3511.6	
804.91	4279.6	
805.09	4999.8	
805.26	5194.3	
805.44	3549.1	
805.61	3908.2	
805.78	5788.2	
805.96	5784.8	
806.13	4283.7	
806.31	4563.6	
806.48	4640	
806.66	5152.7	
806.83	4260.5	
807	4150.6	
807.18	5035.3	
807.35	5449.6	
807.53	4135.5	
807.7	3336.8	
807.87	6195.8	
808.05	5129.5	
808.22	4582.7	
808.4	3349.1	
808.57	5104.2	
808.74	4717.2	
808.92	3822.9	
809.09	4862.6	
809.27	4945.2	
809.44	5538.4	
809.61	3317.7	
809.79	3708.9	
809.96	6138.4	
810.14	5862	
810.31	3249.4	
810.48	3970.3	
810.66	5119.9	
810.83	5920.7	
811.01	3764.2	
811.18	4216.1	
811.35	5828.5	
811.53	4517.1	
811.7	4597	
811.87	4263.2	
812.05	5113.1	
812.22	5001.8	
812.39	3626.3	
812.57	3562.8	
812.74	5097.4	
812.92	6770.6	
813.09	4003.8	
813.26	4300.1	
813.44	6427.9	
813.61	5022.3	
813.78	3332.7	
813.96	4428.4	
814.13	5049.6	
814.3	4777.2	
814.48	4767.7	
814.65	4009.9	
814.82	6281.8	
815	4828.4	
815.17	4119.1	
815.34	4982	
815.52	5033.9	
815.69	5029.8	
815.87	4094.6	
816.04	3504.8	
816.21	5110.4	
816.38	4481.6	
816.56	3919.8	
816.73	3659.7	
816.9	6412.9	
817.08	5807.4	
817.25	3706.8	
817.42	4621.6	
817.6	4659.8	
817.77	5076.2	
817.94	4171.7	
818.12	3599.6	
818.29	4850.3	
818.46	7522.9	
818.64	3843.4	
818.81	3558.7	
818.98	4777.2	
819.16	6892.8	
819.33	4423.6	
819.5	4050.9	
819.67	5461.9	
819.85	6017.6	
820.02	3958.7	
820.19	4247.5	
820.37	5317.2	
820.54	4855.1	
820.71	4162.8	
820.88	5191.6	
821.06	5390.3	
821.23	4844.8	
821.4	4205.8	
821.58	4133.5	
821.75	5786.9	
821.92	5291.3	
822.09	3325.9	
822.27	3430.3	
822.44	5100.8	
822.61	5046.9	
822.79	3370.3	
822.96	6460.7	
823.13	5515.2	
823.3	4853.7	
823.48	3916.4	
823.65	3508.2	
823.82	5799.2	
823.99	4620.9	
824.17	4911	
824.34	3543	
824.51	6660	
824.68	5135.6	
824.86	3728	
825.03	4112.3	
825.2	5143.1	
825.37	6208.1	
825.55	3670	
825.72	4085	
825.89	6745.3	
826.06	6272.2	
826.24	3973.7	
826.41	4035.9	
826.58	6177.4	
826.75	5397.1	
826.92	3171.6	
827.1	3490.4	
827.27	8402.8	
827.44	6735.1	
827.61	3755.3	
827.79	4599.1	
827.96	4846.2	
828.13	5232.6	
828.3	3964.2	
828.47	3293.8	
828.65	5311.1	
828.82	5301.5	
828.99	5134.9	
829.16	4498.7	
829.34	5699.5	
829.51	5416.9	
829.68	4102.8	
829.85	4271.4	
830.02	5967.8	
830.2	5722	
830.37	3160	
830.54	4934.9	
830.71	6533.7	
830.88	5125.4	
831.05	3204.4	
831.23	3738.9	
831.4	6270.2	
831.57	6894.1	
831.74	3873.4	
831.91	3356.6	
832.09	5338.4	
832.26	5781.4	
832.43	3917.8	
832.6	4448.9	
832.77	5370.5	
832.94	6092	
833.12	3140.2	
833.29	3897.3	
833.46	4952.7	
833.63	7167.9	
833.8	4233.8	
833.97	3921.9	
834.15	5726.8	
834.32	5483.1	
834.49	4132.8	
834.66	4163.5	
834.83	5915.9	
835	4833.2	
835.17	3751.2	
835.35	3831.1	
835.52	5659.2	
835.69	5509.7	
835.86	3923.2	
836.03	3318.4	
836.2	5673.6	
836.37	5300.1	
836.55	3957.4	
836.72	3702.7	
836.89	5261.2	
837.06	5688.6	
837.23	4080.2	
837.4	4407.9	
837.57	6505.7	
837.75	7281.2	
837.92	3641.3	
838.09	3790.1	
838.26	5239.4	
838.43	5999.9	
838.6	4118.5	
838.77	3663.1	
838.94	6733	
839.11	6520	
839.29	3893.9	
839.46	3147	
839.63	5684.5	
839.8	5390.3	
839.97	3861.8	
840.14	3845.4	
840.31	5492.7	
840.48	5719.3	
840.65	3224.9	
840.82	3725.3	
841	5664	
841.17	5656.5	
841.34	3549.8	
841.51	3599.6	
841.68	5584.8	
841.85	5374.6	
842.02	3678.2	
842.19	3038.5	
842.36	5477	
842.53	5418.2	
842.7	3534.8	
842.87	4348.5	
843.05	7157	
843.22	5433.9	
843.39	3366.9	
843.56	3758.7	
843.73	5193.6	
843.9	5757.5	
844.07	5667.4	
844.24	4760.2	
844.41	8366	
844.58	4939.7	
844.75	3402.4	
844.92	3690.4	
845.09	5754.8	
845.26	5631.9	
845.43	3498.6	
845.6	3722.5	
845.77	5701.5	
845.94	5413.5	
846.12	3867.9	
846.29	4115.7	
846.46	5903.6	
846.63	5685.2	
846.8	3528	
846.97	4179.2	
847.14	6191	
847.31	5632.6	
847.48	3947.8	
847.65	4375.1	
847.82	5985.5	
847.99	5876.3	
848.16	4665.3	
848.33	4285.7	
848.5	5230.5	
848.67	6173.3	
848.84	3493.2	
849.01	3635.1	
849.18	5107.6	
849.35	4800.4	
849.52	4358.1	
849.69	3424.2	
849.86	5872.9	
850.03	6057.2	
850.2	3493.8	
850.37	4319.2	
850.54	6008.7	
850.71	5326.8	
850.88	4182.6	
851.05	3376.4	
851.22	5528.2	
851.39	6235.4	
851.56	3279.5	
851.73	4005.8	
851.9	4976.6	
852.07	5907	
852.24	3840.6	
852.41	3446.7	
852.58	5567.7	
852.75	5059.2	
852.92	3964.9	
853.09	3427.6	
853.26	5297.4	
853.43	6094.8	
853.6	3497.2	
853.77	2971.6	
853.94	6203.3	
854.11	5572.5	
854.28	5176.6	
854.44	3859.7	
854.61	6628.6	
854.78	5786.2	
854.95	3560.7	
855.12	4362.2	
855.29	4565.6	
855.46	6185.5	
855.63	3471.3	
855.8	4865.3	
855.97	5207.3	
856.14	5992.4	
856.31	4973.2	
856.48	3853.6	
856.65	5269.4	
856.82	4986.8	
856.99	3356.6	
857.16	3798.3	
857.33	6882.5	
857.49	5352.7	
857.66	3784.6	
857.83	4024.9	
858	5314.5	
858.17	5497.4	
858.34	3273.3	
858.51	3504.1	
858.68	6313.2	
858.85	6440.2	
859.02	4040	
859.19	4330.1	
859.36	4926.7	
859.52	5060.5	
859.69	3523.9	
859.86	4177.9	
860.03	5080.3	
860.2	6277	
860.37	3192.8	
860.54	3519.8	
860.71	5971.9	
860.88	6271.6	
861.05	3978.5	
861.21	4344.4	
861.38	6424.5	
861.55	4906.9	
861.72	3211.2	
861.89	3910.9	
862.06	5924.8	
862.23	6536.4	
862.4	3364.8	
862.56	3654.9	
862.73	5769.8	
862.9	5469.4	
863.07	4050.2	
863.24	3175.7	
863.41	4898.1	
863.58	4992.9	
863.75	3591.5	
863.91	4080.9	
864.08	6334.4	
864.25	5882.4	
864.42	4414.7	
864.59	4894	
864.76	6595.8	
864.93	5027.8	
865.09	3431.7	
865.26	3747.1	
865.43	6189.6	
865.6	6546	
865.77	3070.6	
865.94	3450.8	
866.1	6234.7	
866.27	5967.1	
866.44	5273.5	
866.61	3351.2	
866.78	5431.2	
866.95	5809.4	
867.11	3373.7	
867.28	3110.9	
867.45	6010.1	
867.62	5065.3	
867.79	4009.2	
867.96	3476.1	
868.12	5031.2	
868.29	5998.5	
868.46	3507.5	
868.63	4679.6	
868.8	6085.2	
868.97	5869.5	
869.13	3614	
869.3	3645.4	
869.47	5840.1	
869.64	5958.2	
869.81	3543	
869.97	3531.4	
870.14	5728.9	
870.31	6357.6	
870.48	3454.2	
870.65	4406.5	
870.81	5347.2	
870.98	5251.7	
871.15	3936.2	
871.32	3620.1	
871.48	5758.2	
871.65	6325.5	
871.82	3465.2	
871.99	3872	
872.16	6838.9	
872.32	6173.3	
872.49	3571	
872.66	3536.2	
872.83	5891.3	
872.99	5184.8	
873.16	3999	
873.33	3466.5	
873.5	5498.1	
873.67	5537	
873.83	3728	
874	4620.2	
874.17	5685.8	
874.34	6752.2	
874.5	4484.4	
874.67	4341.7	
874.84	6316.6	
875.01	4952.7	
875.17	4896.7	
875.34	3454.2	
875.51	5618.3	
875.68	6745.3	
875.84	4173.1	
876.01	5154.1	
876.18	5825.8	
876.34	5788.9	
876.51	3545.7	
876.68	3423.5	
876.85	5343.8	
877.01	6191	
877.18	4889.9	
877.35	3459	
877.52	5506.3	
877.68	4894.6	
877.85	3426.9	
878.02	3472	
878.18	5438	
878.35	5149.3	
878.52	2786.6	
878.69	3910.3	
878.85	5920	
879.02	5820.3	
879.19	4946.5	
879.35	3770.3	
879.52	5803.9	
879.69	6124.1	
879.86	3043.3	
880.02	3941.7	
880.19	5451	
880.36	6741.2	
880.52	3994.2	
880.69	4093.2	
880.86	5954.8	
881.02	6113.2	
881.19	3837.9	
881.36	3822.2	
881.52	5911.8	
881.69	5229.8	
881.86	3690.4	
882.02	3669.3	
882.19	6169.8	
882.36	7158.3	
882.52	3629.7	
882.69	4941.7	
882.86	5606	
883.02	5547.3	
883.19	4227.7	
883.36	3969.6	
883.52	6023.1	
883.69	6780.1	
883.86	3519.1	
884.02	3149.8	
884.19	5938.4	
884.36	5508.4	
884.52	3927.3	
884.69	3737.5	
884.86	5193.6	
885.02	6531.7	
885.19	3930.1	
885.36	4016.1	
885.52	5506.3	
885.69	5668.8	
885.86	4990.2	
886.02	4528.7	
886.19	5959.6	
886.35	5375.2	
886.52	3908.2	
886.69	4855.1	
886.85	5078.3	
887.02	6243.6	
887.19	6243.6	
887.35	6243.6	
887.52	6243.6	
887.68	6243.6	
887.85	6243.6	
888.02	6243.6	
888.18	6243.6	
888.35	6243.6	
888.51	6243.6	
888.68	6243.6	
888.85	6243.6	
889.01	6243.6	
889.18	6243.6	
889.35	6243.6	
889.51	6243.6	
889.68	6243.6	
889.84	6243.6	
890.01	6243.6	
890.17	6243.6	
890.34	6243.6	
890.51	6243.6	
890.67	6243.6	
890.84	6243.6	
891	6243.6	
891.17	6243.6	
891.34	6243.6	
891.5	6243.6	
891.67	6243.6	
891.83	6243.6	
892	6243.6	
892.16	6243.6	
892.33	6243.6	
892.5	6243.6	
892.66	6243.6	
892.83	6243.6	
892.99	6243.6	
893.16	6243.6	
893.32	6243.6	
893.49	6243.6	
893.65	6243.6	
893.82	6243.6	
893.99	6243.6	
894.15	6243.6	
894.32	6243.6	
894.48	6243.6	
894.65	6243.6	
894.81	6243.6	
894.98	6243.6	
895.14	6243.6	
895.31	6243.6	
895.47	6243.6	
895.64	6243.6	
895.81	6243.6	
895.97	6243.6	
896.14	6243.6	
896.3	6243.6	
896.47	6243.6	
896.63	6243.6	
896.8	6243.6	
896.96	6243.6	
897.13	6243.6	
897.29	6243.6	
897.46	6243.6	
897.62	6243.6	
897.79	6243.6	
897.95	6243.6	
898.12	6243.6	
898.28	6243.6	
898.45	6243.6	
898.61	6243.6	
898.78	6243.6	
898.94	6243.6	
899.11	6243.6	
899.27	6243.6	
899.44	6243.6	
899.6	6243.6	
899.77	6243.6	
899.93	6243.6	
900.1	6243.6	
900.26	6243.6	
900.43	6243.6	
900.59	6243.6	
900.76	6243.6	
900.92	6243.6	
901.09	6243.6	
901.25	6243.6	
901.42	6243.6	
901.58	6243.6	
901.75	6243.6	
901.91	6243.6	
902.07	6243.6	
902.24	6243.6	
902.4	6243.6	
902.57	6243.6	
902.73	6243.6	
902.9	6243.6	
903.06	6243.6	
903.23	6243.6	
903.39	6243.6	
903.56	6243.6	
903.72	6243.6	
903.88	6243.6	
904.05	6243.6	
904.21	6243.6	
904.38	6243.6	
904.54	6243.6	
904.71	6243.6	
904.87	6243.6	
905.03	6243.6	
905.2	6243.6	
905.36	6243.6	
905.53	6243.6	
905.69	6243.6	
905.86	6243.6	
906.02	6243.6	
906.18	6243.6	
906.35	6243.6	
906.51	6243.6	
906.68	6243.6	
906.84	6243.6	
907.01	6243.6	
907.17	6243.6	
907.33	6243.6	
907.5	6243.6	
907.66	6243.6	
907.83	6243.6	
907.99	6243.6	
908.15	6243.6	
908.32	6243.6	
908.48	6243.6	
908.65	6243.6	
908.81	6243.6	
908.97	6243.6	
909.14	6243.6	
909.3	6243.6	
909.47	6243.6	
909.63	6243.6	
909.79	6243.6	
909.96	6243.6	
910.12	6243.6	
910.28	6243.6	
910.45	6243.6	
910.61	6243.6	
910.78	6243.6	
910.94	6243.6	
911.1	6243.6	
911.27	6243.6	
911.43	6243.6	
911.59	6243.6	
911.76	6243.6	
911.92	6243.6	
912.08	6243.6	
912.25	6243.6	
912.41	6243.6	
912.57	6243.6	
912.74	6243.6	
912.9	6243.6	
913.07	6243.6	
913.23	6243.6	
913.39	6243.6	
913.56	6243.6	
913.72	6243.6	
913.88	6243.6	
914.05	6243.6	
914.21	6243.6	
914.37	6243.6	
914.54	6243.6	
914.7	6243.6	
914.86	6243.6	
915.03	6243.6	
915.19	6243.6	
