Wavelength	Intensities	
nm	a.u.	
179.22	1668.2	
179.44	1663.3	
179.65	1673.2	
179.86	1653.4	
180.08	1665	
180.29	3779.9	
180.51	3004.4	
180.72	4929.5	
180.94	5470.1	
181.15	2654.9	
181.37	2643.9	
181.58	4722.6	
181.79	4952	
182.01	2827.6	
182.22	2916.3	
182.44	4961.5	
182.65	4312.3	
182.87	3605.1	
183.08	3194.8	
183.29	5195.7	
183.51	4327.4	
183.72	2880.8	
183.94	3995.6	
184.15	4685.1	
184.37	4629.8	
184.58	2652.1	
184.79	3404.4	
185.01	4476.2	
185.22	5009.3	
185.44	3558	
185.65	3104	
185.86	4640.7	
186.08	4308.2	
186.29	2557.2	
186.51	2783.2	
186.72	4434.5	
186.94	5071.5	
187.15	3129.3	
187.36	3207.8	
187.58	6262	
187.79	4756.1	
188.01	3276.1	
188.22	4924	
188.43	5499.5	
188.65	4918.5	
188.86	2747	
189.08	3244	
189.29	4565.6	
189.5	4541.7	
189.72	2994.8	
189.93	3042.6	
190.15	5066.7	
190.36	5837.4	
190.57	3208.5	
190.79	3143.6	
191	5055.1	
191.22	5076.9	
191.43	3281.5	
191.64	2755.2	
191.86	5278.3	
192.07	5044.1	
192.29	2867.2	
192.5	2913.6	
192.71	5080.3	
192.93	4573.8	
193.14	2939.5	
193.35	2992.1	
193.57	4498.7	
193.78	5061.9	
194	2481.5	
194.21	2886.3	
194.42	4347.8	
194.64	4631.8	
194.85	3133.4	
195.07	3624.2	
195.28	4714.4	
195.49	4201.1	
195.71	3826.3	
195.92	2816.6	
196.13	4853.7	
196.35	4861.2	
196.56	4024.9	
196.78	3263.8	
196.99	5758.9	
197.2	5386.8	
197.42	3528	
197.63	3267.9	
197.84	4308.9	
198.06	4849.6	
198.27	3003.7	
198.48	3780.6	
198.7	4513	
198.91	4647.5	
199.13	3254.2	
199.34	3188	
199.55	5081.7	
199.77	4071.4	
199.98	2887.6	
200.19	3222.1	
200.41	4616.8	
200.62	4454.3	
200.83	3319.8	
201.05	3614	
201.26	4653	
201.47	4405.9	
201.69	2923.8	
201.9	2808.4	
202.11	4702.1	
202.33	5393.7	
202.54	3026.9	
202.76	3366.2	
202.97	4727.4	
203.18	4807.9	
203.4	3306.1	
203.61	3340.9	
203.82	4732.2	
204.04	4428.4	
204.25	3256.3	
204.46	3177.1	
204.68	4698.7	
204.89	4848.2	
205.1	3147	
205.32	2749.7	
205.53	4950.6	
205.74	5057.8	
205.96	2506	
206.17	3276.1	
206.38	4894	
206.6	5019.6	
206.81	3656.3	
207.02	3001.6	
207.24	4840	
207.45	5151.3	
207.66	3113.6	
207.88	2717.7	
208.09	4773.8	
208.3	4618.2	
208.52	2833	
208.73	3074.7	
208.94	4698	
209.15	5173.2	
209.37	3075.4	
209.58	3174.4	
209.79	5068.7	
210.01	4519.2	
210.22	2558.6	
210.43	2686.3	
210.65	4660.5	
210.86	4918.5	
211.07	3036.5	
211.29	2866.5	
211.5	4841.4	
211.71	4571.1	
211.93	2856.9	
212.14	2871.9	
212.35	4678.2	
212.56	4730.8	
212.78	3185.3	
212.99	2704	
213.2	5323.4	
213.42	4491.2	
213.63	2947	
213.84	3080.1	
214.06	4260.5	
214.27	4341	
214.48	3040.6	
214.69	3267.9	
214.91	5114.5	
215.12	5218.9	
215.33	3258.3	
215.55	3525.2	
215.76	5541.8	
215.97	4836.6	
216.18	3151.1	
216.4	3121.8	
216.61	4406.5	
216.82	5036	
217.04	2887	
217.25	2991.4	
217.46	5067.4	
217.67	5004.6	
217.89	2620	
218.1	2676	
218.31	4704.9	
218.53	4808.6	
218.74	2996.9	
218.95	2893.1	
219.16	4631.8	
219.38	5358.2	
219.59	2902	
219.8	3396.2	
220.01	5708.4	
220.23	4704.9	
220.44	3650.2	
220.65	2817.3	
220.87	4728.8	
221.08	5114.5	
221.29	2768.2	
221.5	3458.3	
221.72	5986.2	
221.93	4446.8	
222.14	3257	
222.35	3764.2	
222.57	4684.4	
222.78	4997	
222.99	3104	
223.2	3269.9	
223.42	4869.4	
223.63	4998.4	
223.84	2437.1	
224.05	2445.3	
224.27	5599.8	
224.48	5251.7	
224.69	3756	
224.9	3213.9	
225.12	4820.2	
225.33	4611.3	
225.54	2641.2	
225.75	2928.6	
225.97	4372.4	
226.18	4586.1	
226.39	3090.4	
226.6	2951.1	
226.82	4524	
227.03	4359.4	
227.24	3188	
227.45	2735.4	
227.67	4989.5	
227.88	5263.3	
228.09	3586.7	
228.3	3499.3	
228.52	4902.8	
228.73	4618.2	
228.94	3015.3	
229.15	2763.4	
229.36	4637.3	
229.58	4619.5	
229.79	3076.7	
230	3455.6	
230.21	5423.7	
230.43	4733.5	
230.64	3207.1	
230.85	3212.6	
231.06	5055.8	
231.28	4969.1	
231.49	2695.8	
231.7	3192.1	
231.91	4917.9	
232.12	4683	
232.34	2820.7	
232.55	3110.9	
232.76	5122.7	
232.97	4747.9	
233.18	2876	
233.4	3181.2	
233.61	4794.3	
233.82	4561.5	
234.03	3011.9	
234.25	2933.4	
234.46	6117.3	
234.67	4666.6	
234.88	3302	
235.09	2893.1	
235.31	4851	
235.52	4552.6	
235.73	3210.5	
235.94	2725.2	
236.15	4480.3	
236.37	5446.2	
236.58	2870.6	
236.79	3085.6	
237	4906.3	
237.21	4265.9	
237.43	3308.2	
237.64	2676.7	
237.85	7609.6	
238.06	4380.6	
238.27	3213.9	
238.48	2785.9	
238.7	4975.9	
238.91	4607.9	
239.12	3013.2	
239.33	3162.7	
239.54	4453	
239.76	4567	
239.97	3056.9	
240.18	3079.5	
240.39	5578.7	
240.6	4803.2	
240.82	3255.6	
241.03	2725.8	
241.24	4657.8	
241.45	5261.9	
241.66	2826.9	
241.87	3331.4	
242.09	5165	
242.3	5441.5	
242.51	3305.4	
242.72	3102.7	
242.93	4975.2	
243.14	4656.4	
243.36	3534.8	
243.57	3762.8	
243.78	5245.5	
243.99	4932.9	
244.2	3073.3	
244.41	2861.7	
244.63	4311	
244.84	4802.5	
245.05	3273.3	
245.26	3130.7	
245.47	4957.4	
245.68	4992.9	
245.9	3947.1	
246.11	3191.4	
246.32	4522.6	
246.53	4831.8	
246.74	4833.2	
246.95	2663	
247.16	4364.9	
247.38	4668	
247.59	2666.5	
247.8	3114.3	
248.01	4351.3	
248.22	4688.5	
248.43	2887.6	
248.64	3027.6	
248.86	4306.9	
249.07	4463.2	
249.28	2815.3	
249.49	3166.2	
249.7	5053	
249.91	5079.6	
250.12	2641.9	
250.34	2725.2	
250.55	4769	
250.76	4663.2	
250.97	3192.8	
251.18	3244	
251.39	5063.9	
251.6	4805.9	
251.81	3265.8	
252.03	3229	
252.24	4480.3	
252.45	4978.6	
252.66	2723.1	
252.87	3392.1	
253.08	4689.2	
253.29	5812.1	
253.5	2800.9	
253.72	3699.3	
253.93	4588.1	
254.14	5409.4	
254.35	2993.4	
254.56	3044.6	
254.77	4830.5	
254.98	4422.2	
255.19	3006.4	
255.41	3631.7	
255.62	4755.4	
255.83	5081.7	
256.04	3304.1	
256.25	3122.5	
256.46	5500.2	
256.67	4444.1	
256.88	3168.2	
257.09	3493.2	
257.31	4356.7	
257.52	4437.9	
257.73	3940.3	
257.94	2956.6	
258.15	4567.7	
258.36	4633.9	
258.57	3599.6	
258.78	2421.4	
258.99	5018.2	
259.2	4539	
259.41	2962	
259.63	3065.8	
259.84	5216.2	
260.05	5462.6	
260.26	3769.6	
260.47	2897.9	
260.68	5089.2	
260.89	4586.1	
261.1	3500	
261.31	2798.9	
261.52	5144.5	
261.73	5283.8	
261.95	3745.7	
262.16	3305.4	
262.37	5116.5	
262.58	5240.8	
262.79	3734.1	
263	3003	
263.21	4719.9	
263.42	4244.1	
263.63	3192.8	
263.84	2977.1	
264.05	5046.9	
264.26	5305.6	
264.47	3605.1	
264.69	3162.1	
264.9	5263.3	
265.11	4797	
265.32	2942.2	
265.53	2964.8	
265.74	4783.4	
265.95	4252.3	
266.16	3097.2	
266.37	3418.7	
266.58	4805.2	
266.79	4539	
267	2957.3	
267.21	2788.7	
267.42	4326.7	
267.63	4642.1	
267.84	3065.8	
268.06	2717	
268.27	4986.8	
268.48	5178.6	
268.69	3048.1	
268.9	3474	
269.11	5167	
269.32	4214	
269.53	3136.1	
269.74	2895.1	
269.95	4804.5	
270.16	4243.4	
270.37	3080.1	
270.58	3618.8	
270.79	4568.3	
271	5070.8	
271.21	3272	
271.42	3099.9	
271.63	4826.4	
271.84	4334.9	
272.05	2576.3	
272.26	2839.2	
272.47	4637.3	
272.68	4812.7	
272.89	3003	
273.11	3337.5	
273.32	4508.9	
273.53	5326.8	
273.74	3292.5	
273.95	3198.9	
274.16	5017.5	
274.37	4646.2	
274.58	3398.9	
274.79	2781.1	
275	4808.6	
275.21	5064.6	
275.42	3919.8	
275.63	3370.3	
275.84	4890.5	
276.05	5867.4	
276.26	3276.1	
276.47	3044.6	
276.68	4588.1	
276.89	5343.2	
277.1	3409.2	
277.31	2751.8	
277.52	4825.7	
277.73	5084.4	
277.94	2695.8	
278.15	2994.8	
278.36	4835.9	
278.57	4455	
278.78	2953.9	
278.99	3347.1	
279.2	4462.5	
279.41	4399	
279.62	3831.7	
279.83	2816	
280.04	5513.8	
280.25	4367	
280.46	3760.1	
280.67	3119.1	
280.88	4380.6	
281.09	5127.4	
281.3	3228.3	
281.51	3986	
281.72	4489.1	
281.93	5031.9	
282.14	2955.9	
282.35	3130	
282.56	5082.4	
282.77	5009.3	
282.98	2996.9	
283.19	3606.5	
283.4	5924.1	
283.61	4606.6	
283.82	2819.4	
284.03	3702.7	
284.24	4800.4	
284.45	5135.6	
284.66	3788.1	
284.87	3553.9	
285.08	5132.2	
285.29	5194.3	
285.5	2729.3	
285.71	3084.2	
285.92	5082.4	
286.12	5577.3	
286.33	3717.7	
286.54	2988.7	
286.75	4996.4	
286.96	4633.9	
287.17	2811.2	
287.38	3552.5	
287.59	4486.4	
287.8	4449.6	
288.01	3048.7	
288.22	3387.3	
288.43	4952	
288.64	4261.8	
288.85	3478.1	
289.06	3398.3	
289.27	5017.5	
289.48	5272.8	
289.69	3783.3	
289.9	3452.9	
290.11	5189.6	
290.32	4466.6	
290.53	3555.3	
290.74	3299.3	
290.94	4965.6	
291.15	5003.2	
291.36	2949.1	
291.57	3421.5	
291.78	4554.7	
291.99	4259.1	
292.2	2822.8	
292.41	3309.5	
292.62	5072.1	
292.83	4853	
293.04	3988.8	
293.25	2928.6	
293.46	4509.6	
293.67	4990.2	
293.88	2880.8	
294.09	2930	
294.29	4407.9	
294.5	4807.3	
294.71	3139.5	
294.92	2953.9	
295.13	4552	
295.34	5471.5	
295.55	2655.5	
295.76	2621.4	
295.97	4932.9	
296.18	5429.2	
296.39	2839.2	
296.6	2876	
296.81	4716.5	
297.01	4940.4	
297.22	3071.3	
297.43	2975	
297.64	4498	
297.85	4326	
298.06	2480.8	
298.27	2702.6	
298.48	4686.4	
298.69	4464.6	
298.9	3148.4	
299.11	2896.5	
299.31	4379.9	
299.52	4354	
299.73	3336.8	
299.94	3250.1	
300.15	4668	
300.36	4434.5	
300.57	3238.5	
300.78	3273.3	
300.99	4598.4	
301.2	4771.8	
301.4	2936.1	
301.61	3144.3	
301.82	4879.6	
302.03	4980	
302.24	3427.6	
302.45	2829.6	
302.66	4843.4	
302.87	5057.8	
303.08	2989.4	
303.29	3836.5	
303.49	4543.8	
303.7	4653	
303.91	2695.1	
304.12	3685	
304.33	4285.7	
304.54	4791.6	
304.75	2971.6	
304.96	2854.9	
305.16	4900.1	
305.37	5440.8	
305.58	2623.4	
305.79	2700.6	
306	4876.2	
306.21	4248.9	
306.42	2880.1	
306.63	4259.8	
306.83	4590.2	
307.04	4994.3	
307.25	3209.2	
307.46	3164.1	
307.67	4162.8	
307.88	4930.1	
308.09	2906.1	
308.29	2924.5	
308.5	4720.6	
308.71	5039.4	
308.92	3097.2	
309.13	2877.4	
309.34	4626.4	
309.55	4637.3	
309.75	3603.1	
309.96	3291.1	
310.17	4926.7	
310.38	4422.9	
310.59	3382.6	
310.8	2785.2	
311.01	4530.1	
311.21	4608.6	
311.42	2842.6	
311.63	2910.2	
311.84	4506.2	
312.05	4701.5	
312.26	3246	
312.46	3498.6	
312.67	4573.1	
312.88	4354.7	
313.09	2837.1	
313.3	2787.3	
313.51	5260.5	
313.71	5509	
313.92	2898.6	
314.13	2981.8	
314.34	4781.3	
314.55	4655.7	
314.76	3524.6	
314.96	3147	
315.17	4821.6	
315.38	4858.5	
315.59	2854.9	
315.8	2755.2	
316.01	5195	
316.21	5310.4	
316.42	2759.3	
316.63	3124.5	
316.84	4612	
317.05	5083.7	
317.26	3270.6	
317.46	2987.3	
317.67	4701.5	
317.88	5001.1	
318.09	3470.6	
318.3	2674.6	
318.5	4558.8	
318.71	4913.1	
318.92	4394.9	
319.13	3312.9	
319.34	5057.8	
319.54	5169.8	
319.75	2685.6	
319.96	2632.3	
320.17	4913.8	
320.38	5053	
320.58	2633	
320.79	3025.5	
321	5128.1	
321.21	5165	
321.42	3110.2	
321.62	2661	
321.83	4474.8	
322.04	4724	
322.25	2988.7	
322.46	2816.6	
322.66	4775.2	
322.87	4925.4	
323.08	3470.6	
323.29	2781.1	
323.5	5438.7	
323.7	4363.5	
323.91	3735.5	
324.12	3357.3	
324.33	4758.8	
324.53	4963.6	
324.74	3326.6	
324.95	3456.3	
325.16	4328	
325.37	4520.5	
325.57	2846.7	
325.78	2851.5	
325.99	4807.3	
326.2	4314.4	
326.4	3896.6	
326.61	2695.8	
326.82	4617.5	
327.03	4717.2	
327.24	3911.6	
327.44	3618.1	
327.65	4889.2	
327.86	4071.4	
328.07	3319.8	
328.27	2753.2	
328.48	5193.6	
328.69	4325.3	
328.9	3964.2	
329.1	2971.6	
329.31	4609.3	
329.52	5199.1	
329.73	2882.9	
329.93	3105.4	
330.14	4756.1	
330.35	4784.7	
330.56	4432.5	
330.76	3352.5	
330.97	4534.9	
331.18	4827.1	
331.39	3142.9	
331.59	2611.8	
331.8	5084.4	
332.01	5160.2	
332.22	2986.6	
332.42	3235.1	
332.63	4742.4	
332.84	4410	
333.05	3154.6	
333.25	2865.1	
333.46	4445.5	
333.67	4664.6	
333.88	3049.4	
334.08	3230.3	
334.29	5971.9	
334.5	5051	
334.7	2769.5	
334.91	3884.3	
335.12	4326	
335.33	4952	
335.53	3117	
335.74	4358.1	
335.95	4547.9	
336.16	4343.7	
336.36	3101.3	
336.57	3534.1	
336.78	4334.2	
336.98	5063.3	
337.19	3736.9	
337.4	3063.1	
337.61	5502.2	
337.81	4275.5	
338.02	2926.5	
338.23	3628.3	
338.43	5279	
338.64	4421.6	
338.85	2913.6	
339.05	3725.3	
339.26	5304.9	
339.47	4308.2	
339.68	2889.7	
339.88	3989.4	
340.09	4883.7	
340.3	5036	
340.5	3358	
340.71	2594.1	
340.92	4377.9	
341.13	5160.9	
341.33	2732.7	
341.54	3310.9	
341.75	4837.3	
341.95	4566.3	
342.16	3190.7	
342.37	3377.8	
342.57	4363.5	
342.78	4566.3	
342.99	3471.3	
343.19	2639.8	
343.4	4979.3	
343.61	4887.1	
343.81	3087.7	
344.02	2772.9	
344.23	4964.3	
344.43	5195.7	
344.64	3470.6	
344.85	3389.4	
345.06	4872.1	
345.26	5132.2	
345.47	3264.5	
345.68	3754.6	
345.88	4261.1	
346.09	5003.9	
346.3	3293.8	
346.5	2579.1	
346.71	4702.8	
346.92	4462.5	
347.12	2710.8	
347.33	3252.2	
347.54	5016.8	
347.74	5385.5	
347.95	3276.8	
348.16	2506.7	
348.36	4510.3	
348.57	4395.6	
348.78	3261	
348.98	3407.8	
349.19	4678.2	
349.39	4275.5	
349.6	2673.3	
349.81	2948.4	
350.01	4884.4	
350.22	4394.9	
350.43	3199.6	
350.63	3680.9	
350.84	4662.5	
351.05	4465.9	
351.25	2871.9	
351.46	2682.2	
351.67	5000.5	
351.87	4407.9	
352.08	3069.2	
352.29	3439.2	
352.49	4944.5	
352.7	5014.1	
352.9	2792.1	
353.11	3391.4	
353.32	5436	
353.52	4500.8	
353.73	2751.1	
353.94	3476.1	
354.14	4896.7	
354.35	4653.7	
354.55	2867.8	
354.76	3135.4	
354.97	4825	
355.17	4618.9	
355.38	2732	
355.59	3646.7	
355.79	4395.6	
356	4661.2	
356.2	3118.4	
356.41	2793.4	
356.62	4260.5	
356.82	4582.7	
357.03	3423.5	
357.24	3043.3	
357.44	4380.6	
357.65	4525.3	
357.85	3851.5	
358.06	3127.9	
358.27	4197.7	
358.47	4360.8	
358.68	2766.8	
358.88	3357.3	
359.09	4823	
359.3	5040.7	
359.5	3750.5	
359.71	3446	
359.91	5292	
360.12	4873.5	
360.33	3356.6	
360.53	3681.6	
360.74	4502.1	
360.94	4516.5	
361.15	3459	
361.36	2964.1	
361.56	4999.8	
361.77	4584.7	
361.97	3807.2	
362.18	3077.4	
362.38	5051.7	
362.59	4351.9	
362.8	2912.2	
363	2800.3	
363.21	4212.7	
363.41	4650.9	
363.62	3230.3	
363.83	3893.9	
364.03	4851.6	
364.24	5391.6	
364.44	4040.6	
364.65	3996.3	
364.85	4590.2	
365.06	4343.1	
365.27	3014.6	
365.47	3081.5	
365.68	5298.1	
365.88	4582.7	
366.09	3323.2	
366.29	3061.7	
366.5	4733.5	
366.71	5002.5	
366.91	3954.6	
367.12	3411.2	
367.32	5515.9	
367.53	4965.6	
367.73	3446	
367.94	4074.1	
368.14	4952.7	
368.35	5471.5	
368.56	3414.6	
368.76	2944.3	
368.97	5039.4	
369.17	6068.8	
369.38	3046	
369.58	3227.6	
369.79	4303.5	
369.99	5302.9	
370.2	3947.1	
370.4	3327.3	
370.61	4782.7	
370.82	5674.9	
371.02	3215.3	
371.23	2747	
371.43	4333.5	
371.64	5291.3	
371.84	3314.3	
372.05	3971	
372.25	6087.9	
372.46	4994.3	
372.66	3231	
372.87	3274.7	
373.07	5036	
373.28	6237.4	
373.48	3918.4	
373.69	3738.9	
373.9	4710.3	
374.1	4700.1	
374.31	3874.1	
374.51	3538.9	
374.72	5197.7	
374.92	4476.2	
375.13	3986	
375.33	3501.3	
375.54	5006.6	
375.74	4589.5	
375.95	3546.4	
376.15	4417.5	
376.36	5039.4	
376.56	4887.8	
376.77	3567.6	
376.97	3890.5	
377.18	5763.7	
377.38	5124	
377.59	4081.6	
377.79	3284.3	
378	4911	
378.2	5189.6	
378.41	3362.1	
378.61	3241.9	
378.82	5314.5	
379.02	4726.7	
379.23	3444.7	
379.43	4197	
379.64	5339.1	
379.84	5083.7	
380.05	3324.5	
380.25	3230.3	
380.46	5135.6	
380.66	4861.2	
380.87	4276.2	
381.07	4481.6	
381.28	5568.4	
381.48	5124.7	
381.69	3287	
381.89	3374.4	
382.1	4416.8	
382.3	5193	
382.51	4102.1	
382.71	4653	
382.91	5035.3	
383.12	5460.6	
383.32	3536.8	
383.53	3657	
383.73	4997.7	
383.94	4902.2	
384.14	3663.8	
384.35	3025.5	
384.55	4734.2	
384.76	5046.9	
384.96	3609.2	
385.17	3736.2	
385.37	5143.1	
385.58	4601.1	
385.78	3765.5	
385.98	3011.9	
386.19	4793.6	
386.39	5070.1	
386.6	3390.1	
386.8	3495.2	
387.01	5106.3	
387.21	5141.8	
387.42	3870	
387.62	4219.5	
387.83	4715.8	
388.03	4956.1	
388.23	3711.6	
388.44	4128.7	
388.64	4423.6	
388.85	4490.5	
389.05	3820.1	
389.26	4218.1	
389.46	6010.1	
389.67	5485.8	
389.87	3856.3	
390.07	3888.4	
390.28	4835.9	
390.48	4547.2	
390.69	3277.4	
390.89	3526.6	
391.1	4790.9	
391.3	5384.8	
391.5	4367.6	
391.71	4762.2	
391.91	5261.2	
392.12	5862.7	
392.32	4472.1	
392.53	3803.1	
392.73	4817.5	
392.93	4904.2	
393.14	3652.2	
393.34	4123.9	
393.55	5264.6	
393.75	4878.3	
393.95	3587.4	
394.16	3586	
394.36	4790.9	
394.57	5197.7	
394.77	3297.9	
394.98	3564.8	
395.18	4777.9	
395.38	4886.5	
395.59	4207.9	
395.79	3480.2	
396	4891.9	
396.2	5220.3	
396.4	4040.6	
396.61	4028.4	
396.81	5276.3	
397.02	4866	
397.22	4166.9	
397.42	4296.6	
397.63	5402.5	
397.83	4727.4	
398.04	3426.9	
398.24	3825.6	
398.44	5169.1	
398.65	4440	
398.85	3376.4	
399.05	3416.7	
399.26	4823.6	
399.46	6022.4	
399.67	3803.8	
399.87	3530.7	
400.07	5110.4	
400.28	5297.4	
400.48	3609.2	
400.69	4292.5	
400.89	5418.9	
401.09	5740.5	
401.3	3609.2	
401.5	4321.9	
401.7	5890.6	
401.91	6130.3	
402.11	3826.3	
402.32	3973.7	
402.52	5474.2	
402.72	5375.9	
402.93	4127.3	
403.13	3220.8	
403.33	6051.7	
403.54	5019.6	
403.74	3807.2	
403.94	4478.2	
404.15	5114.5	
404.35	5985.5	
404.56	3717.1	
404.76	4967.7	
404.96	5467.4	
405.17	5282.4	
405.37	4540.3	
405.57	4046.1	
405.78	5474.2	
405.98	5178.6	
406.18	3723.2	
406.39	4326.7	
406.59	5461.2	
406.79	5141.1	
407	3556	
407.2	3646.1	
407.4	5684.5	
407.61	5638.1	
407.81	3704.8	
408.01	5121.3	
408.22	4813.4	
408.42	6208.8	
408.62	4464.6	
408.83	4127.3	
409.03	5259.2	
409.23	5208	
409.44	4227	
409.64	4376.5	
409.84	6010.8	
410.05	5920	
410.25	4333.5	
410.45	4197	
410.66	5603.9	
410.86	7328.3	
411.06	4521.9	
411.27	4369.7	
411.47	7217	
411.67	5792.3	
411.88	4605.9	
412.08	4780.6	
412.28	6173.3	
412.49	6536.4	
412.69	4515.1	
412.89	4498.7	
413.09	6437.4	
413.3	6414.9	
413.5	4569	
413.7	4250.9	
413.91	5888.6	
414.11	6462.7	
414.31	4466.6	
414.52	4758.1	
414.72	6264.1	
414.92	6156.2	
415.12	4486.4	
415.33	4830.5	
415.53	6405.4	
415.73	6656.6	
415.94	5115.8	
416.14	4707.6	
416.34	5844.2	
416.55	5517.9	
416.75	5502.9	
416.95	5186.1	
417.15	6627.9	
417.36	7015	
417.56	5696.8	
417.76	5074.2	
417.97	6780.8	
418.17	6546	
418.37	4816.8	
418.57	4853	
418.78	6478.4	
418.98	6223.1	
419.18	5477	
419.38	5389.6	
419.59	6155.5	
419.79	5903.6	
419.99	4700.1	
420.2	4964.3	
420.4	6595.1	
420.6	6649.8	
420.8	4704.2	
421.01	4607.9	
421.21	6497.5	
421.41	6475	
421.61	4966.3	
421.82	4741	
422.02	6161.7	
422.22	6759.7	
422.42	5266.7	
422.63	5014.8	
422.83	6090	
423.03	7023.9	
423.23	5039.4	
423.44	4341	
423.64	6151.4	
423.84	5918.6	
424.04	4668.7	
424.25	4399	
424.45	6853.2	
424.65	6778.8	
424.85	4273.4	
425.06	4711.7	
425.26	6987.7	
425.46	6020.3	
425.66	5025.7	
425.87	4795	
426.07	6615.6	
426.27	6485.2	
426.47	4970.4	
426.67	4398.4	
426.88	6943.3	
427.08	6469.5	
427.28	5153.4	
427.48	4409.3	
427.69	5750.7	
427.89	6143.2	
428.09	4984.8	
428.29	4377.2	
428.5	6633.4	
428.7	6268.8	
428.9	4359.4	
429.1	4769.7	
429.3	6370.5	
429.51	6524.8	
429.71	4622.3	
429.91	5195	
430.11	6597.2	
430.31	6630.6	
430.52	4812	
430.72	4995.7	
430.92	6935.1	
431.12	6558.3	
431.32	4622.9	
431.53	4892.6	
431.73	5735.7	
431.93	6947.4	
432.13	4575.8	
432.33	4474.1	
432.54	6130.9	
432.74	6274.3	
432.94	4410	
433.14	5233.2	
433.34	6620.4	
433.55	6270.2	
433.75	5215.5	
433.95	6419	
434.15	6416.3	
434.35	6226.5	
434.56	4634.6	
434.76	4291.2	
434.96	6425.2	
435.16	6504.3	
435.36	4530.1	
435.56	5396.4	
435.77	6092	
435.97	6323.4	
436.17	5819.6	
436.37	5302.9	
436.57	6205.3	
436.78	6092.7	
436.98	5286.5	
437.18	5717.9	
437.38	6640.2	
437.58	6242.9	
437.78	5819.6	
437.99	4779.3	
438.19	6722.8	
438.39	7211.6	
438.59	4857.1	
438.79	4387.4	
438.99	7107.1	
439.2	6290	
439.4	4515.8	
439.6	4573.8	
439.8	6454.5	
440	7282.6	
440.2	5293.3	
440.4	5384.8	
440.61	6934.4	
440.81	7232.7	
441.01	4764.3	
441.21	5369.1	
441.41	7273.7	
441.61	6933.1	
441.81	5694.7	
442.02	6248.4	
442.22	7490.1	
442.42	6983.6	
442.62	4843.4	
442.82	4900.1	
443.02	7297.6	
443.22	6686.6	
443.43	5223	
443.63	4795.7	
443.83	6496.2	
444.03	6457.2	
444.23	5767.1	
444.43	5513.8	
444.63	6869.6	
444.83	7588.4	
445.04	5082.4	
445.24	5836	
445.44	7015	
445.64	7082.6	
445.84	5535	
446.04	5499.5	
446.24	6517.3	
446.44	7210.2	
446.65	4858.5	
446.85	5271.5	
447.05	6593.1	
447.25	7200.7	
447.45	5332.2	
447.65	4831.8	
447.85	6816.3	
448.05	6432	
448.25	5561.6	
448.46	5385.5	
448.66	6793.8	
448.86	6525.5	
449.06	4918.5	
449.26	5580.7	
449.46	7025.2	
449.66	6389	
449.86	5260.5	
450.06	5248.9	
450.26	6467.5	
450.47	6926.2	
450.67	5402.5	
450.87	5655.1	
451.07	7045.7	
451.27	6855.9	
451.47	5003.2	
451.67	5668.8	
451.87	6582.9	
452.07	7448.5	
452.27	5163.6	
452.47	5115.8	
452.67	6842.9	
452.88	7104.4	
453.08	4649.6	
453.28	6026.5	
453.48	7712.7	
453.68	6692.1	
453.88	5032.5	
454.08	5177.3	
454.28	7094.2	
454.48	6831.3	
454.68	5618.9	
454.88	5896.8	
455.08	7190.4	
455.28	7023.9	
455.48	4911	
455.68	5517.9	
455.89	7608.9	
456.09	7277.1	
456.29	5322.7	
456.49	5334.3	
456.69	7483.3	
456.89	6897.6	
457.09	5763.7	
457.29	6015.6	
457.49	7251.9	
457.69	7324.2	
457.89	5707.7	
458.09	5172.5	
458.29	7089.4	
458.49	7623.9	
458.69	5988.9	
458.89	5495.4	
459.09	7818.5	
459.29	7887.4	
459.49	5575.9	
459.69	6224.5	
459.9	7447.1	
460.1	7165.8	
460.3	5578	
460.5	5458.5	
460.7	7520.1	
460.9	7182.9	
461.1	5218.2	
461.3	6073.6	
461.5	7996.6	
461.7	7760.4	
461.9	5628.5	
462.1	5825.8	
462.3	7434.8	
462.5	7864.2	
462.7	5572.5	
462.9	5715.9	
463.1	8503.2	
463.3	8291.5	
463.5	5886.5	
463.7	6621.8	
463.9	7670.3	
464.1	7876.5	
464.3	6057.2	
464.5	6191.7	
464.7	8084.7	
464.9	7826	
465.1	7152.9	
465.3	6436.1	
465.5	8310.7	
465.7	8360.5	
465.9	6705	
466.1	6440.2	
466.3	8200.1	
466.5	8103.1	
466.7	7285.3	
466.9	6321.4	
467.1	8290.2	
467.3	8743.5	
467.5	7187	
467.7	6434.7	
467.9	8862.9	
468.1	9559.9	
468.3	6944	
468.5	7311.9	
468.7	8071	
468.9	8122.2	
469.1	6645.7	
469.3	7205.4	
469.5	9559.9	
469.7	7946.1	
469.9	7020.4	
470.1	6589	
470.3	8317.5	
470.5	8298.4	
470.7	7432.1	
470.9	6668.9	
471.1	8030.8	
471.3	8361.9	
471.5	6505.7	
471.69	7818.5	
471.89	8023.3	
472.09	7591.1	
472.29	6958.3	
472.49	7179.5	
472.69	7844.4	
472.89	8251.3	
473.09	6432.7	
473.29	6457.2	
473.49	7915.4	
473.69	7912	
473.89	7039.6	
474.09	6552.1	
474.29	8911.4	
474.49	8663.6	
474.69	7060.7	
474.89	6639.5	
475.09	8066.3	
475.29	7985	
475.49	6260	
475.69	6399.9	
475.88	9111.4	
476.08	8261.5	
476.28	6251.1	
476.48	6498.9	
476.68	8589.2	
476.88	8407.6	
477.08	6377.4	
477.28	6623.8	
477.48	8028.7	
477.68	8462.9	
477.88	6248.4	
478.08	6505	
478.28	8821.3	
478.48	8111.3	
478.67	6645.7	
478.87	6070.9	
479.07	8687.5	
479.27	8169.3	
479.47	6664.1	
479.67	6788.3	
479.87	8442.4	
480.07	8869.1	
480.27	6290	
480.47	7281.9	
480.67	8220.5	
480.87	8720.3	
481.06	6431.3	
481.26	7037.5	
481.46	8279.9	
481.66	8131.8	
481.86	6861.4	
482.06	7430.7	
482.26	8062.9	
482.46	8593.3	
482.66	6664.8	
482.86	6407.4	
483.05	8383.7	
483.25	7856.7	
483.45	8362.5	
483.65	6726.2	
483.85	7898.3	
484.05	8156.4	
484.25	7048.4	
484.45	7311.2	
484.65	8714.1	
484.84	8921	
485.04	6722.8	
485.24	6597.2	
485.44	9109.4	
485.64	7920.9	
485.84	6204.7	
486.04	7176.1	
486.24	8158.4	
486.44	8402.8	
486.63	6268.8	
486.83	6910.5	
487.03	8193.9	
487.23	8285.4	
487.43	6399.9	
487.63	7986.4	
487.83	8406.9	
488.02	9002.2	
488.22	7027.3	
488.42	7439.6	
488.62	8948.9	
488.82	8144.1	
489.02	6742.6	
489.22	6823.1	
489.41	8856.8	
489.61	8701.1	
489.81	6516.6	
490.01	6652.5	
490.21	8890.9	
490.41	9364.7	
490.61	6627.2	
490.8	6747.4	
491	8556.4	
491.2	8069	
491.4	7069.6	
491.6	6485.9	
491.8	8522.3	
491.99	8481.3	
492.19	6369.2	
492.39	6628.6	
492.59	8773.5	
492.79	8948.3	
492.99	7320.8	
493.18	6649.8	
493.38	9069.1	
493.58	9503.9	
493.78	7208.8	
493.98	6939.2	
494.18	8840.4	
494.37	8518.9	
494.57	7395.2	
494.77	7250.5	
494.97	9033.6	
495.17	9302.6	
495.37	7131	
495.56	7445.7	
495.76	9525.1	
495.96	9226.8	
496.16	8133.2	
496.36	7395.2	
496.55	9493	
496.75	9025.4	
496.95	7643	
497.15	7532.4	
497.35	9517.6	
497.54	9326.4	
497.74	7428	
497.94	8570.7	
498.14	9818.6	
498.34	9641.2	
498.53	7185	
498.73	7731.8	
498.93	8892.3	
499.13	9368.8	
499.33	7705.1	
499.52	7980.9	
499.72	9530.6	
499.92	9571.5	
500.12	7539.3	
500.32	7724.9	
500.51	9606.3	
500.71	9452.1	
500.91	8312	
501.11	7998	
501.31	9606.3	
501.5	9972.2	
501.7	8518.2	
501.9	7753.6	
502.1	9480.7	
502.29	9723.8	
502.49	8115.4	
502.69	8398.7	
502.89	9694.4	
503.09	9653.4	
503.28	7354.9	
503.48	7413.6	
503.68	9096.4	
503.88	9026.8	
504.07	8126.3	
504.27	7645.1	
504.47	9326.4	
504.67	9266.4	
504.86	7990.5	
505.06	7761.8	
505.26	9156.5	
505.46	10243	
505.65	7745.4	
505.85	7920.2	
506.05	9129.2	
506.25	9389.9	
506.44	7267.6	
506.64	7860.1	
506.84	8907.3	
507.04	9364	
507.23	7342	
507.43	7656	
507.63	10335	
507.83	9044.5	
508.02	7600.7	
508.22	7409.6	
508.42	10517	
508.62	8860.2	
508.81	7582.9	
509.01	8012.3	
509.21	8798.8	
509.4	9106.6	
509.6	7781.6	
509.8	7335.8	
510	8991.3	
510.19	9930.6	
510.39	7187	
510.59	7358.4	
510.79	8858.1	
510.98	9876.7	
511.18	7423.9	
511.38	7458	
511.57	9563.3	
511.77	9275.9	
511.97	7939.3	
512.17	7346.1	
512.36	9498.5	
512.56	9303.2	
512.76	7286	
512.95	7086.7	
513.15	9600.9	
513.35	8464.3	
513.55	7849.9	
513.74	7254.6	
513.94	9460.3	
514.14	8979.7	
514.33	7949.5	
514.53	7794.6	
514.73	9030.9	
514.92	9088.9	
515.12	7333.8	
515.32	7231.4	
515.51	9239.8	
515.71	9497.1	
515.91	8705.9	
516.11	7376.8	
516.3	10426	
516.5	8921.6	
516.7	7822.6	
516.89	8131.8	
517.09	9041.8	
517.29	9044.5	
517.48	8124.3	
517.68	7545.4	
517.88	8868.4	
518.07	9288.2	
518.27	7897	
518.47	7244.3	
518.66	9645.9	
518.86	8810.4	
519.06	7189.7	
519.25	7339.9	
519.45	8934.6	
519.65	9961.3	
519.84	7965.2	
520.04	8353	
520.24	10290	
520.43	9338.7	
520.63	7678.5	
520.83	7505.8	
521.02	8791.2	
521.22	9282.1	
521.42	7847.1	
521.61	8213	
521.81	8996.7	
522.01	9155.1	
522.2	7650.5	
522.4	7551.5	
522.6	9295	
522.79	8536.6	
522.99	7535.2	
523.18	7179.5	
523.38	9265.7	
523.58	9321	
523.77	8527.1	
523.97	7215	
524.17	10618	
524.36	10148	
524.56	8314.8	
524.76	8029.4	
524.95	9339.4	
525.15	9165.3	
525.34	7922.9	
525.54	7937.9	
525.74	9785.9	
525.93	8965.3	
526.13	8749.6	
526.33	7909.3	
526.52	10108	
526.72	9648	
526.91	8901.8	
527.11	8446.5	
527.31	10122	
527.5	10384	
527.7	8337.3	
527.89	7686	
528.09	9392.7	
528.29	9816.6	
528.48	8701.8	
528.68	8423.3	
528.87	10100	
529.07	10161	
529.27	8473.1	
529.46	8088.1	
529.66	9945.6	
529.85	10183	
530.05	7968.6	
530.25	8499.1	
530.44	10946	
530.64	9815.2	
530.83	8157.1	
531.03	8369.4	
531.23	10163	
531.42	9943.6	
531.62	8914.1	
531.81	8329.1	
532.01	10235	
532.21	10466	
532.4	8247.2	
532.6	8399.4	
532.79	10982	
532.99	10257	
533.18	8548.9	
533.38	9346.2	
533.58	10086	
533.77	10554	
533.97	8656.1	
534.16	9152.4	
534.36	10841	
534.55	10139	
534.75	9224.7	
534.95	8697	
535.14	10855	
535.34	10112	
535.53	8441.7	
535.73	9825.5	
535.92	11157	
536.12	10173	
536.31	8563.2	
536.51	9338.7	
536.71	10588	
536.9	10204	
537.1	8538	
537.29	8763.3	
537.49	10703	
537.68	10157	
537.88	9004.2	
538.07	8413.1	
538.27	10368	
538.46	11059	
538.66	8344.8	
538.86	8802.9	
539.05	10423	
539.25	10585	
539.44	8948.3	
539.64	8538.7	
539.83	10258	
540.03	11002	
540.22	8575.5	
540.42	8628.8	
540.61	10421	
540.81	10531	
541	8964.6	
541.2	9397.4	
541.39	9988.6	
541.59	10295	
541.78	9168.8	
541.98	8546.9	
542.18	9899.9	
542.37	9894.4	
542.57	8678.6	
542.76	9194.7	
542.96	9907.4	
543.15	10247	
543.35	8697	
543.54	8328.4	
543.74	10331	
543.93	10253	
544.13	8708	
544.32	9425.4	
544.52	10393	
544.71	9877.4	
544.91	8050.6	
545.1	8787.8	
545.3	9947	
545.49	10290	
545.69	8027.4	
545.88	8483.4	
546.08	10957	
546.27	10702	
546.47	8846.5	
546.66	8232.2	
546.86	10514	
547.05	10777	
547.24	8454.7	
547.44	8426	
547.63	9714.2	
547.83	10520	
548.02	8610.3	
548.22	8740	
548.41	9541.5	
548.61	10500	
548.8	8261.5	
549	8205.5	
549.19	10030	
549.39	10333	
549.58	8028	
549.78	8432.2	
549.97	10365	
550.17	9834.3	
550.36	8913.4	
550.55	9617.9	
550.75	9948.3	
550.94	10458	
551.14	8034.9	
551.33	8451.3	
551.53	9396.1	
551.72	10057	
551.92	8384.4	
552.11	8188.5	
552.31	10194	
552.5	10087	
552.69	9428.8	
552.89	8002.1	
553.08	10118	
553.28	9905.3	
553.47	8170.7	
553.67	9028.1	
553.86	10458	
554.06	9304.6	
554.25	7670.3	
554.44	8055.3	
554.64	10975	
554.83	10692	
555.03	7953.6	
555.22	8338.6	
555.42	10169	
555.61	9955.9	
555.8	8193.2	
556	8290.2	
556.19	9355.8	
556.39	10175	
556.58	8038.3	
556.78	8136.6	
556.97	9884.9	
557.16	9736.7	
557.36	8968.1	
557.55	7879.9	
557.75	9045.2	
557.94	10461	
558.13	7892.2	
558.33	7854	
558.52	10261	
558.72	9373.6	
558.91	7886.7	
559.1	7909.9	
559.3	9287.5	
559.49	9006.3	
559.69	7594.6	
559.88	8254	
560.07	9749.7	
560.27	10087	
560.46	8396.7	
560.66	8486.1	
560.85	9637.1	
561.04	8887.5	
561.24	7673.1	
561.43	7827.3	
561.63	9170.1	
561.82	9379	
562.01	8644.5	
562.21	8026	
562.4	9654.8	
562.59	10325	
562.79	8066.3	
562.98	7786.4	
563.18	9658.2	
563.37	10641	
563.56	8299.1	
563.76	7817.1	
563.95	9366	
564.14	9271.2	
564.34	8011.7	
564.53	7838.3	
564.73	9708.1	
564.92	9877.4	
565.11	8251.9	
565.31	7734.5	
565.5	10178	
565.69	9403.6	
565.89	8010.3	
566.08	8120.9	
566.27	9960.6	
566.47	10268	
566.66	8566	
566.85	7653.9	
567.05	9851.4	
567.24	9398.1	
567.44	7872.4	
567.63	8822.6	
567.82	9998.9	
568.02	9742.9	
568.21	7949.5	
568.4	8114.1	
568.6	9700.5	
568.79	9649.3	
568.98	7841.7	
569.18	7878.5	
569.37	9730.6	
569.56	11144	
569.76	8272.4	
569.95	8878.6	
570.14	9992	
570.34	9866.4	
570.53	7915.4	
570.72	7869.7	
570.91	10376	
571.11	9786.6	
571.3	8203.5	
571.49	8904.6	
571.69	9831.6	
571.88	9358.5	
572.07	8523	
572.27	8535.9	
572.46	9412.5	
572.65	10106	
572.85	8099	
573.04	8295.6	
573.23	10379	
573.43	9779.7	
573.62	8033.5	
573.81	8355.7	
574	9835	
574.2	9731.9	
574.39	8271.1	
574.58	8364.6	
574.78	10588	
574.97	10051	
575.16	8709.3	
575.36	8828.1	
575.55	10379	
575.74	10406	
575.93	8029.4	
576.13	8689.5	
576.32	9826.2	
576.51	10271	
576.71	8413.1	
576.9	9321	
577.09	10552	
577.28	10177	
577.48	8601.5	
577.67	7987.1	
577.86	9991.4	
578.05	10111	
578.25	8473.8	
578.44	8496.3	
578.63	10072	
578.83	10843	
579.02	8050.6	
579.21	9135.3	
579.4	10162	
579.6	9936.1	
579.79	8505.2	
579.98	10176	
580.17	10350	
580.37	10571	
580.56	8150.9	
580.75	8879.3	
580.94	10667	
581.14	10707	
581.33	8961.2	
581.52	8312.7	
581.71	10345	
581.91	10832	
582.1	8160.5	
582.29	8565.3	
582.48	10065	
582.68	10019	
582.87	8936	
583.06	8648.6	
583.25	10395	
583.45	10178	
583.64	9166	
583.83	9556.5	
584.02	10067	
584.21	10419	
584.41	9070.5	
584.6	8568	
584.79	10213	
584.98	10634	
585.18	8256.7	
585.37	8259.5	
585.56	9942.2	
585.75	10419	
585.94	8366.6	
586.14	8869.1	
586.33	10722	
586.52	10032	
586.71	8657.4	
586.91	8519.6	
587.1	9514.9	
587.29	10474	
587.48	8391.2	
587.67	8397.4	
587.87	10220	
588.06	10230	
588.25	9287.5	
588.44	8643.1	
588.63	10013	
588.83	10393	
589.02	8407.6	
589.21	8241	
589.4	9837.8	
589.59	9788.6	
589.78	7635.5	
589.98	7881.3	
590.17	9315.5	
590.36	9691.7	
590.55	7293.5	
590.74	7942.7	
590.94	10587	
591.13	9452.1	
591.32	7661.5	
591.51	7373.4	
591.7	9764	
591.89	9389.9	
592.09	7335.8	
592.28	7765.9	
592.47	8826.1	
592.66	10304	
592.85	7521.5	
593.05	7615	
593.24	9369.5	
593.43	9883.5	
593.62	7687.4	
593.81	8140	
594	9360.6	
594.19	9460.9	
594.39	7607.5	
594.58	7578.8	
594.77	9564	
594.96	9823.4	
595.15	7573.4	
595.34	8005.5	
595.54	9529.2	
595.73	8903.9	
595.92	7059.3	
596.11	7811.6	
596.3	9889	
596.49	8949.6	
596.68	7596.6	
596.88	7938.6	
597.07	9680.7	
597.26	8895.7	
597.45	7351.5	
597.64	8090.8	
597.83	9042.5	
598.02	9450.7	
598.22	7438.2	
598.41	7935.9	
598.6	9364.7	
598.79	8878.6	
598.98	7382.9	
599.17	8020.5	
599.36	9387.2	
599.55	10081	
599.74	8806.3	
599.94	8596.7	
600.13	9645.9	
600.32	8787.2	
600.51	7184.3	
600.7	7268.2	
600.89	10150	
601.08	10105	
601.27	7064.8	
601.47	7664.9	
601.66	9617.9	
601.85	10025	
602.04	7651.2	
602.23	7798.7	
602.42	8929.8	
602.61	9379.7	
602.8	7480.5	
602.99	7405.5	
603.18	9147.6	
603.37	9278	
603.57	7786.4	
603.76	8204.2	
603.95	9854.1	
604.14	9433.6	
604.33	7425.3	
604.52	7638.2	
604.71	9289.6	
604.9	8914.8	
605.09	7929.7	
605.28	7956.4	
605.47	9855.5	
605.66	9499.8	
605.86	7791.2	
606.05	7468.9	
606.24	9691	
606.43	8661.5	
606.62	7683.3	
606.81	8194.6	
607	9609.1	
607.19	9037	
607.38	7184.3	
607.57	7391.8	
607.76	8850.6	
607.95	8451.3	
608.14	7744.1	
608.33	8060.8	
608.52	8974.2	
608.72	9457.5	
608.91	7094.8	
609.1	7089.4	
609.29	9001.5	
609.48	8646.5	
609.67	7679.9	
609.86	7102.4	
610.05	8683.4	
610.24	8867	
610.43	7039.6	
610.62	6746	
610.81	9746.3	
611	9624.8	
611.19	7061.4	
611.38	7681.9	
611.57	9284.8	
611.76	10013	
611.95	6999.3	
612.14	6797.2	
612.33	8991.3	
612.52	8617.9	
612.71	7264.8	
612.9	6771.9	
613.09	8369.4	
613.28	10058	
613.47	7212.3	
613.66	7763.8	
613.85	9142.1	
614.04	8658.8	
614.24	7126.2	
614.43	6573.3	
614.62	9232.9	
614.81	9109.4	
615	7521.5	
615.19	7451.2	
615.38	8594.6	
615.57	8867	
615.76	7446.4	
615.95	8200.7	
616.14	9310.7	
616.33	8841.1	
616.52	7660.8	
616.71	7743.4	
616.9	9174.2	
617.09	8974.2	
617.28	7190.4	
617.47	8075.8	
617.66	8561.2	
617.85	8564.6	
618.04	7941.3	
618.22	7510.6	
618.41	8798.8	
618.6	9483.5	
618.79	7507.9	
618.98	7230	
619.17	9666.4	
619.36	8421.9	
619.55	7481.2	
619.74	7386.3	
619.93	9230.9	
620.12	8715.5	
620.31	7828	
620.5	8001.4	
620.69	9539.4	
620.88	9939.5	
621.07	8448.6	
621.26	7819.1	
621.45	9497.8	
621.64	9443.9	
621.83	7898.3	
622.02	7320.1	
622.21	9457.5	
622.4	9300.5	
622.59	8267.6	
622.78	8153	
622.97	8982.4	
623.16	9652.1	
623.35	7864.2	
623.54	7191.8	
623.72	9095.7	
623.91	9161.2	
624.1	8100.4	
624.29	7133.1	
624.48	10042	
624.67	9544.9	
624.86	7984.3	
625.05	7339.2	
625.24	10075	
625.43	8978.3	
625.62	9187.2	
625.81	7455.3	
626	9639.1	
626.19	9155.1	
626.38	8127.7	
626.56	7618.4	
626.75	9125.1	
626.94	9582.4	
627.13	8057.4	
627.32	7154.9	
627.51	9536	
627.7	10359	
627.89	7166.5	
628.08	8036.9	
628.27	8914.1	
628.46	9068.4	
628.65	7415.7	
628.83	7071	
629.02	9437.7	
629.21	8931.2	
629.4	7672.4	
629.59	7863.5	
629.78	8908	
629.97	9574.9	
630.16	7877.9	
630.35	7475.1	
630.54	9977	
630.72	9699.9	
630.91	7503.8	
631.1	7875.1	
631.29	9256.8	
631.48	9340.8	
631.67	8049.2	
631.86	7536.5	
632.05	9112.8	
632.24	9056.1	
632.42	7282.6	
632.61	7735.2	
632.8	9198.1	
632.99	8675.2	
633.18	7798.7	
633.37	8015.7	
633.56	9286.9	
633.75	9095	
633.93	7782.3	
634.12	7552.2	
634.31	9916.3	
634.5	9581.8	
634.69	7623.2	
634.88	7861.5	
635.07	9170.1	
635.25	9657.5	
635.44	8169.3	
635.63	8356.4	
635.82	9039.7	
636.01	8500.4	
636.2	8221.9	
636.39	7832.8	
636.57	10056	
636.76	9545.6	
636.95	7472.4	
637.14	8342.7	
637.33	9412.5	
637.52	10010	
637.7	7283.9	
637.89	8056.7	
638.08	9169.4	
638.27	10046	
638.46	8082	
638.65	8295.6	
638.83	10112	
639.02	8944.2	
639.21	7994.6	
639.4	8312.7	
639.59	9269.8	
639.78	8951.7	
639.96	7415.7	
640.15	7378.1	
640.34	9128.5	
640.53	9202.2	
640.72	7166.5	
640.91	7402.7	
641.09	8701.8	
641.28	9568.8	
641.47	7492.8	
641.66	8084	
641.85	9221.3	
642.03	9286.2	
642.22	7728.4	
642.41	7465.5	
642.6	8748.2	
642.79	8284.7	
642.97	7290.1	
643.16	7824.6	
643.35	8832.9	
643.54	8658.1	
643.73	7228.6	
643.91	7770	
644.1	8519.5	
644.29	9082.1	
644.48	7321.5	
644.67	7360.4	
644.85	8610.3	
645.04	8993.3	
645.23	6936.5	
645.42	7238.2	
645.6	8503.2	
645.79	9257.5	
645.98	7091.4	
646.17	6417.7	
646.36	8224.6	
646.54	8645.8	
646.73	7717.4	
646.92	6837.5	
647.11	8349.6	
647.29	9066.4	
647.48	6849.1	
647.67	6609.5	
647.86	9267.1	
648.05	9221.3	
648.23	6984.3	
648.42	7924.3	
648.61	8802.2	
648.8	8634.9	
648.98	6744.6	
649.17	6961	
649.36	8214.4	
649.55	7906.5	
649.73	6795.2	
649.92	7264.1	
650.11	8202.8	
650.3	8384.4	
650.48	6924.2	
650.67	6735.8	
650.86	8701.8	
651.05	7764.5	
651.23	6860.7	
651.42	6744	
651.61	8208.3	
651.79	8154.3	
651.98	6952.9	
652.17	6545.3	
652.36	8495	
652.54	7680.6	
652.73	6598.6	
652.92	6596.5	
653.11	8503.8	
653.29	8595.3	
653.48	6118	
653.67	6808.8	
653.85	8266.3	
654.04	9058.2	
654.23	6967.2	
654.42	6625.9	
654.6	7830.1	
654.79	8359.1	
654.98	6151.4	
655.16	6519.4	
655.35	7550.2	
655.54	7384.3	
655.73	6093.4	
655.91	5974.6	
656.1	8056.7	
656.29	7247.1	
656.47	5691.3	
656.66	6978.1	
656.85	7600	
657.03	7591.1	
657.22	6123.4	
657.41	6188.3	
657.59	7708.6	
657.78	7616.4	
657.97	6062	
658.16	6574.7	
658.34	8226	
658.53	8415.1	
658.72	7161.1	
658.9	7461.4	
659.09	7923.6	
659.28	7916.8	
659.46	6348.7	
659.65	6232.7	
659.84	7660.1	
660.02	8155.7	
660.21	6350.8	
660.4	6155.5	
660.58	8398.7	
660.77	7905.2	
660.96	6744.6	
661.14	6023.8	
661.33	8862.2	
661.52	8705.2	
661.7	5965.7	
661.89	8371.4	
662.08	7669	
662.26	7337.9	
662.45	6240.8	
662.64	6232	
662.82	8262.9	
663.01	7557	
663.2	6236.7	
663.38	6840.2	
663.57	8091.5	
663.75	8028	
663.94	6464.1	
664.13	7355.6	
664.31	7630.7	
664.5	8077.2	
664.69	6773.3	
664.87	6979.5	
665.06	7499.7	
665.25	7891.5	
665.43	7077.1	
665.62	7183.6	
665.8	8084	
665.99	7568.6	
666.18	6470.2	
666.36	6420.4	
666.55	8101.8	
666.74	8032.1	
666.92	6173.9	
667.11	7277.1	
667.29	7736.5	
667.48	8080.6	
667.67	6970.6	
667.85	6298.9	
668.04	7619.8	
668.22	7597.3	
668.41	6470.2	
668.6	6627.9	
668.78	7464.8	
668.97	7681.2	
669.15	6687.3	
669.34	5894.7	
669.53	7514.7	
669.71	7618.4	
669.9	6059.9	
670.08	6492.7	
670.27	7363.1	
670.46	7868.3	
670.64	6642.9	
670.83	6827.9	
671.01	7299.6	
671.2	7709.2	
671.38	6112.5	
671.57	5911.1	
671.76	8264.2	
671.94	8551.6	
672.13	5939.8	
672.31	6589.7	
672.5	7923.6	
672.69	7468.9	
672.87	5973.2	
673.06	6324.8	
673.24	7871	
673.43	7453.9	
673.61	6517.3	
673.8	6173.3	
673.98	7959.1	
674.17	8000	
674.36	6733.7	
674.54	6550.8	
674.73	7763.8	
674.91	8078.6	
675.1	6406.7	
675.28	6053.1	
675.47	7670.3	
675.65	7993.2	
675.84	6221.7	
676.03	6505.7	
676.21	7520.1	
676.4	7043.6	
676.58	6855.2	
676.77	6648.4	
676.95	8542.8	
677.14	7438.9	
677.32	6016.2	
677.51	5913.2	
677.69	8037.6	
677.88	7324.2	
678.06	5941.2	
678.25	6048.3	
678.44	7636.2	
678.62	7367.9	
678.81	5874.9	
678.99	6543.9	
679.18	8271.1	
679.36	7973.4	
679.55	6272.2	
679.73	6795.8	
679.92	7956.4	
680.1	7476.5	
680.29	7167.2	
680.47	6226.5	
680.66	7447.8	
680.84	8103.8	
681.03	5807.4	
681.21	6596.5	
681.4	7445	
681.58	7355.6	
681.77	6115.9	
681.95	6038.1	
682.14	8073.8	
682.32	8376.2	
682.51	6673	
682.69	5866.1	
682.88	7407.5	
683.06	7723.6	
683.25	6427.2	
683.43	6675	
683.62	7632.1	
683.8	7913.4	
683.99	6849.1	
684.17	6440.2	
684.36	8492.9	
684.54	7460.8	
684.73	5763	
684.91	5880.4	
685.1	7776.8	
685.28	7200	
685.46	6201.2	
685.65	6250.4	
685.83	7625.3	
686.02	7234.8	
686.2	5653.1	
686.39	5762.3	
686.57	6894.8	
686.76	8003.5	
686.94	5701.5	
687.13	5858.6	
687.31	7366.5	
687.5	7213.6	
687.68	5418.9	
687.86	6229.2	
688.05	8505.2	
688.23	6822.5	
688.42	6344.6	
688.6	5717.9	
688.79	7264.1	
688.97	7131.7	
689.16	6137.8	
689.34	5320.6	
689.52	7733.8	
689.71	7850.5	
689.89	6371.9	
690.08	5788.9	
690.26	7451.2	
690.45	7243.7	
690.63	6494.8	
690.81	5974.6	
691	7191.1	
691.18	7127.6	
691.37	6110.5	
691.55	7617.8	
691.74	7101	
691.92	8557.1	
692.1	6055.8	
692.29	5582.8	
692.47	7221.1	
692.66	6693.4	
692.84	5734.3	
693.02	6071.5	
693.21	6794.5	
693.39	7178.8	
693.58	6211.5	
693.76	5767.1	
693.94	7953.6	
694.13	7886.7	
694.31	5775.3	
694.5	6520.7	
694.68	7037.5	
694.86	7453.2	
695.05	6118	
695.23	6202.6	
695.42	7621.2	
695.6	9186.5	
695.78	6548.7	
695.97	5821	
696.15	7731.1	
696.34	7228.6	
696.52	5752.7	
696.7	6315.3	
696.89	7466.2	
697.07	6993.8	
697.25	6196.5	
697.44	7193.1	
697.62	7486	
697.81	7578.2	
697.99	6057.9	
698.17	6315.9	
698.36	7004.7	
698.54	7447.8	
698.72	6227.2	
698.91	5460.6	
699.09	7137.9	
699.28	6932.4	
699.46	5902.9	
699.64	5788.2	
699.83	6902.3	
700.01	7751.6	
700.19	6354.8	
700.38	5225.1	
700.56	7693.5	
700.74	7010.2	
700.93	5515.2	
701.11	6106.4	
701.29	7393.8	
701.48	8157.7	
701.66	5612.8	
701.84	5731.6	
702.03	7178.1	
702.21	7660.1	
702.39	5438	
702.58	5905.7	
702.76	7438.2	
702.94	7536.5	
703.13	5388.2	
703.31	7135.1	
703.49	6931	
703.68	7819.1	
703.86	5539.8	
704.04	6275.7	
704.23	7228.6	
704.41	7512.6	
704.59	5569.1	
704.78	6409.5	
704.96	8410.3	
705.14	7493.5	
705.33	5398.4	
705.51	6001.9	
705.69	7042.3	
705.87	7626.6	
706.06	6090.7	
706.24	5436.7	
706.42	7270.3	
706.61	7451.2	
706.79	6301.6	
706.97	5358.9	
707.16	6866.8	
707.34	7201.3	
707.52	6116.6	
707.7	5554.8	
707.89	6907.1	
708.07	6698.2	
708.25	6227.2	
708.44	6276.3	
708.62	6821.8	
708.8	7702.4	
708.98	6363	
709.17	5535	
709.35	7042.3	
709.53	7148.1	
709.72	5272.2	
709.9	5439.4	
710.08	7320.1	
710.26	7382.9	
710.45	6420.4	
710.63	5584.8	
710.81	7012.9	
710.99	7027.3	
711.18	5969.8	
711.36	5528.2	
711.54	6838.9	
711.72	7349.5	
711.91	5610.8	
712.09	5137	
712.27	6901	
712.45	7305.8	
712.64	5723.4	
712.82	5023.7	
713	6492.1	
713.18	6595.8	
713.37	5063.3	
713.55	5902.9	
713.73	7192.5	
713.91	6217	
714.1	5289.2	
714.28	4866.7	
714.46	6808.8	
714.64	6261.3	
714.83	4411.3	
715.01	4939	
715.19	6211.5	
715.37	5723.4	
715.55	4632.5	
715.74	4846.9	
715.92	6795.2	
716.1	5290.6	
716.28	5612.1	
716.47	4957.4	
716.65	5902.2	
716.83	5868.8	
717.01	4709.6	
717.19	4743.8	
717.38	7348.8	
717.56	5583.4	
717.74	4929.5	
717.92	4298.7	
718.1	6510.5	
718.29	5883.8	
718.47	4041.3	
718.65	4465.3	
718.83	6413.6	
719.01	6307.1	
719.2	3932.8	
719.38	4809.3	
719.56	6210.1	
719.74	7309.2	
719.92	4482.3	
720.11	5337	
720.29	6268.1	
720.47	5641.5	
720.65	4220.2	
720.83	4796.3	
721.02	5893.4	
721.2	5582.1	
721.38	4802.5	
721.56	4170.3	
721.74	5226.4	
721.92	5317.9	
722.11	5061.2	
722.29	4906.9	
722.47	6200.6	
722.65	5574.6	
722.83	4222.2	
723.01	4778.6	
723.2	5610.8	
723.38	5854.5	
723.56	3742.3	
723.74	4554.7	
723.92	5363.6	
724.1	6076.3	
724.29	4128	
724.47	4937.7	
724.65	5471.5	
724.83	5238.7	
725.01	4004.5	
725.19	4700.8	
725.37	5348.6	
725.56	5344.5	
725.74	3893.9	
725.92	4071.4	
726.1	5209.3	
726.28	5541.1	
726.46	4429.1	
726.64	4214	
726.83	5547.3	
727.01	5642.8	
727.19	3904.1	
727.37	4378.6	
727.55	5657.2	
727.73	5945.3	
727.91	3852.2	
728.09	3719.1	
728.28	5920.7	
728.46	6086.6	
728.64	4533.5	
728.82	4434.5	
729	6699.6	
729.18	6217	
729.36	3865.9	
729.54	5529.5	
729.72	6845	
729.91	5577.3	
730.09	5311.1	
730.27	4300.1	
730.45	5586.2	
730.63	5973.2	
730.81	4731.5	
730.99	4100.7	
731.17	6349.4	
731.35	5323.4	
731.53	4482.3	
731.71	4173.8	
731.9	6118	
732.08	6189	
732.26	4401.8	
732.44	4162.8	
732.62	6325.5	
732.8	5881.1	
732.98	4660.5	
733.16	3941	
733.34	5954.1	
733.52	4937.7	
733.7	4348.5	
733.88	4458.4	
734.07	5795.1	
734.25	5569.1	
734.43	3945.1	
734.61	4977.2	
734.79	6625.2	
734.97	5513.8	
735.15	3973.7	
735.33	4200.4	
735.51	5830.6	
735.69	5487.2	
735.87	5106.3	
736.05	4401.8	
736.23	5585.5	
736.41	5357.5	
736.59	4204.5	
736.77	4231.8	
736.95	5869.5	
737.13	5440.1	
737.32	3975.8	
737.5	4132.1	
737.68	6277	
737.86	5356.1	
738.04	3793.5	
738.22	5141.1	
738.4	5283.1	
738.58	5484.5	
738.76	4231.8	
738.94	3473.4	
739.12	5335	
739.3	5282.4	
739.48	4681	
739.66	4455.7	
739.84	5491.3	
740.02	5464.7	
740.2	3533.4	
740.38	3764.8	
740.56	5780.1	
740.74	4840	
740.92	4313.7	
741.1	4147.1	
741.28	5382.1	
741.46	5151.3	
741.64	3881.6	
741.82	4353.3	
742	5359.5	
742.18	5278.3	
742.36	4029	
742.54	3771.7	
742.72	5763.7	
742.9	4749.9	
743.08	4385.4	
743.26	3448.1	
743.44	5859.9	
743.62	5659.2	
743.8	4457.1	
743.98	3796.3	
744.16	5566.4	
744.34	5285.1	
744.52	4380.6	
744.7	4359.4	
744.88	5655.1	
745.06	5223.7	
745.24	4341	
745.42	4455	
745.6	5668.1	
745.78	5594.4	
745.96	3500	
746.14	3777.8	
746.32	6234.7	
746.5	5621	
746.68	4156.7	
746.86	3779.2	
747.03	5935.7	
747.21	4735.6	
747.39	4156.7	
747.57	3740.3	
747.75	5395	
747.93	5629.2	
748.11	3727.3	
748.29	3636.5	
748.47	6479.8	
748.65	5203.9	
748.83	4248.2	
749.01	4011.3	
749.19	5488.6	
749.37	4868.7	
749.55	3994.9	
749.73	4026.3	
749.91	5321.3	
750.09	5096	
750.26	4042.7	
750.44	3573.7	
750.62	5280.3	
750.8	5149.3	
750.98	3462.4	
751.16	3745.7	
751.34	5396.4	
751.52	4848.9	
751.7	4308.9	
751.88	3478.1	
752.06	5670.8	
752.24	5425.8	
752.42	3448.8	
752.59	3708.2	
752.77	5246.9	
752.95	6176	
753.13	4232.5	
753.31	3798.3	
753.49	5055.1	
753.67	5341.8	
753.85	4067.9	
754.03	3682.9	
754.21	5595.7	
754.38	5739.1	
754.56	3826.3	
754.74	3096.5	
754.92	4954	
755.1	5431.2	
755.28	3114.3	
755.46	3171.6	
755.64	6068.1	
755.82	6100.2	
755.99	3390.1	
756.17	3478.8	
756.35	4345.1	
756.53	5416.9	
756.71	2667.8	
756.89	3347.7	
757.07	5072.8	
757.25	4465.9	
757.42	3753.9	
757.6	4303.5	
757.78	5235.3	
757.96	4463.2	
758.14	3482.9	
758.32	3173.7	
758.5	4114.4	
758.67	4739	
758.85	3321.8	
759.03	3449.5	
759.21	4913.1	
759.39	4472.1	
759.57	3003	
759.75	3908.9	
759.92	5399.1	
760.1	4881.7	
760.28	4108.2	
760.46	4254.3	
760.64	4696	
760.82	4516.5	
760.99	4007.9	
761.17	3461.1	
761.35	5311.1	
761.53	4487.8	
761.71	3572.3	
761.89	3949.2	
762.06	5175.2	
762.24	4816.8	
762.42	3585.3	
762.6	3439.2	
762.78	4803.2	
762.96	5254.4	
763.13	3809.2	
763.31	3620.1	
763.49	5317.2	
763.67	4732.2	
763.85	4201.1	
764.02	4642.1	
764.2	5560.2	
764.38	4923.3	
764.56	3525.9	
764.74	4132.8	
764.91	5575.9	
765.09	4840.7	
765.27	3367.5	
765.45	3135.4	
765.63	5713.8	
765.8	5550.7	
765.98	2985.9	
766.16	3208.5	
766.34	4457.7	
766.52	4349.9	
766.69	3895.9	
766.87	3083.6	
767.05	4872.8	
767.23	5377.3	
767.41	3306.8	
767.58	3562.8	
767.76	5335.6	
767.94	5324.7	
768.12	3477.5	
768.29	3951.2	
768.47	4847.5	
768.65	5380.7	
768.83	3137.5	
769	3926.6	
769.18	4568.3	
769.36	5061.9	
769.54	3887	
769.72	3143.6	
769.89	5305.6	
770.07	5354.8	
770.25	3411.9	
770.43	4416.1	
770.6	5827.2	
770.78	6032.6	
770.96	3497.9	
771.14	3423.5	
771.31	5298.8	
771.49	4815.5	
771.67	2952.5	
771.85	3125.9	
772.02	4170.3	
772.2	4760.8	
772.38	3653.6	
772.55	3280.8	
772.73	4966.3	
772.91	4770.4	
773.09	3552.5	
773.26	3653.6	
773.44	4982	
773.62	4648.9	
773.8	3247.4	
773.97	3054.9	
774.15	5033.2	
774.33	4736.3	
774.5	3135.4	
774.68	3429	
774.86	5070.1	
775.04	4766.3	
775.21	3219.4	
775.39	3149.1	
775.57	4925.4	
775.74	5160.2	
775.92	3031.7	
776.1	2990	
776.27	4929.5	
776.45	5776	
776.63	3211.2	
776.81	2865.1	
776.98	4698.7	
777.16	5410.1	
777.34	3300.6	
777.51	3551.9	
777.69	4635.9	
777.87	4506.9	
778.04	3379.8	
778.22	3697.9	
778.4	4506.9	
778.57	4995	
778.75	2813.9	
778.93	3005.7	
779.1	4384	
779.28	4251.6	
779.46	2812.5	
779.64	3125.9	
779.81	5148.6	
779.99	5679.7	
780.17	3700.7	
780.34	3784	
780.52	4709.6	
780.69	4797	
780.87	3401.7	
781.05	3130.7	
781.22	4796.3	
781.4	4799.1	
781.58	3220.8	
781.75	2592	
781.93	4782.7	
782.11	4293.9	
782.28	3800.3	
782.46	3263.8	
782.64	4260.5	
782.81	4905.6	
782.99	3282.9	
783.17	3207.8	
783.34	4786.8	
783.52	4403.1	
783.69	3351.8	
783.87	3967.6	
784.05	4390.8	
784.22	4326	
784.4	3915.7	
784.58	3423.5	
784.75	5128.1	
784.93	4433.2	
785.1	3229.6	
785.28	3592.1	
785.46	4838	
785.63	4344.4	
785.81	3222.1	
785.99	3031.7	
786.16	4508.3	
786.34	4761.5	
786.51	3135.4	
786.69	3411.9	
786.87	4160.8	
787.04	4545.8	
787.22	3022.8	
787.39	3629.7	
787.57	4360.1	
787.75	5111	
787.92	3895.9	
788.1	3807.2	
788.27	4330.1	
788.45	4120.5	
788.63	3553.2	
788.8	2624.1	
788.98	4771.8	
789.15	4076.1	
789.33	2755.9	
789.5	3201	
789.68	5020.3	
789.86	5077.6	
790.03	3476.1	
790.21	3125.9	
790.38	5072.8	
790.56	4485.1	
790.73	3005.7	
790.91	3005.1	
791.09	4398.4	
791.26	4893.3	
791.44	3237.8	
791.61	2780.5	
791.79	4355.3	
791.96	4382	
792.14	2923.8	
792.32	2608.4	
792.49	4331.5	
792.67	4448.9	
792.84	2973	
793.02	2790.7	
793.19	4781.3	
793.37	5237.3	
793.54	2628.2	
793.72	2830.3	
793.89	5229.8	
794.07	4369	
794.25	3197.6	
794.42	2667.8	
794.6	5102.9	
794.77	4857.1	
794.95	3454.2	
795.12	3035.1	
795.3	4426.3	
795.47	4771.8	
795.65	3388	
795.82	3220.1	
796	4223.6	
796.17	5549.3	
796.35	3151.1	
796.52	3672	
796.7	4756.7	
796.87	4826.4	
797.05	3174.4	
797.22	3774.4	
797.4	4801.1	
797.57	5494	
797.75	3310.2	
797.92	3112.2	
798.1	5066.7	
798.27	4222.2	
798.45	2676	
798.62	2892.4	
798.8	4604.5	
798.97	4941.1	
799.15	3402.4	
799.32	3218.7	
799.5	4030.4	
799.67	4610.7	
799.85	3461.1	
800.02	2639.1	
800.2	4339.6	
800.37	4534.2	
800.55	3615.3	
800.72	3065.8	
800.9	4989.5	
801.07	5219.6	
801.25	4010.6	
801.42	3355.3	
801.6	4980	
801.77	4601.8	
801.95	3140.2	
802.12	2993.4	
802.29	4776.5	
802.47	4670.1	
802.64	3367.5	
802.82	2580.4	
802.99	4340.3	
803.17	5041.4	
803.34	3280.8	
803.52	2914.3	
803.69	5513.8	
803.87	4146.5	
804.04	3218.7	
804.21	3246	
804.39	5178.6	
804.56	4446.1	
804.74	2824.1	
804.91	3365.5	
805.09	4336.2	
805.26	4410	
805.44	2877.4	
805.61	3160.7	
805.78	4859.1	
805.96	4850.3	
806.13	3322.5	
806.31	3528.7	
806.48	3992.2	
806.66	4393.6	
806.83	3356.6	
807	3279.5	
807.18	4349.9	
807.35	4597	
807.53	3261.7	
807.7	2731.3	
807.87	5122	
808.05	4326.7	
808.22	3513.6	
808.4	2653.5	
808.57	4351.9	
808.74	4111.6	
808.92	3024.2	
809.09	3710.2	
809.27	4374.5	
809.44	4730.8	
809.61	2675.3	
809.79	2967.5	
809.96	5304.2	
810.14	4858.5	
810.31	2648.7	
810.48	3181.2	
810.66	4413.4	
810.83	4908.3	
811.01	2998.9	
811.18	3272	
811.35	4860.5	
811.53	3951.9	
811.7	3566.2	
811.87	3351.8	
812.05	4449.6	
812.22	4336.9	
812.39	2986.6	
812.57	2859	
812.74	4435.9	
812.92	5500.8	
813.09	3166.2	
813.26	3366.2	
813.44	5370.5	
813.61	4263.9	
813.78	2682.2	
813.96	3456.3	
814.13	4438.6	
814.3	4182	
814.48	3740.3	
814.65	3184.6	
814.82	5188.9	
815	4145.8	
815.17	3212.6	
815.34	3863.8	
815.52	4255.7	
815.69	4272.7	
815.87	3198.2	
816.04	3104.7	
816.21	4344.4	
816.38	3977.8	
816.56	3135.4	
816.73	2938.2	
816.9	5410.1	
817.08	4866.7	
817.25	2991.4	
817.42	3618.8	
817.6	4089.8	
817.77	4373.1	
817.94	3300.6	
818.12	2923.8	
818.29	4164.9	
818.46	5997.1	
818.64	3030.3	
818.81	2871.3	
818.98	4136.9	
819.16	5642.8	
819.33	3482.9	
819.5	3255.6	
819.67	4595	
819.85	5135.6	
820.02	3225.6	
820.19	3349.8	
820.37	4587.4	
820.54	4304.1	
820.71	3239.2	
820.88	3979.9	
821.06	4494.6	
821.23	4209.9	
821.4	3340.2	
821.58	3241.3	
821.75	4851	
821.92	4523.3	
822.09	2701.3	
822.27	2898.6	
822.44	4319.2	
822.61	4265.9	
822.79	2747.7	
822.96	4848.9	
823.13	4693.9	
823.3	4100.7	
823.48	3054.9	
823.65	2809.8	
823.82	4887.8	
823.99	4066.6	
824.17	3842	
824.34	2833	
824.51	5579.3	
824.68	4416.8	
824.86	2950.4	
825.03	3187.3	
825.2	4379.2	
825.37	5113.1	
825.55	2962	
825.72	3202.3	
825.89	5492.7	
826.06	5231.2	
826.24	3189.4	
826.41	3189.4	
826.58	5217.5	
826.75	4533.5	
826.92	2603	
827.1	2793.4	
827.27	6735.1	
827.44	5516.5	
827.61	3001	
827.79	3581.2	
827.96	4252.9	
828.13	4376.5	
828.3	3125.9	
828.47	2704.7	
828.65	4655.7	
828.82	4559.5	
828.99	3804.4	
829.16	3406.5	
829.34	4918.5	
829.51	4730.8	
829.68	3196.2	
829.85	3321.1	
830.02	5167.7	
830.2	4895.3	
830.37	2502.6	
830.54	3782.6	
830.71	5396.4	
830.88	4412.7	
831.05	2514.2	
831.23	2940.2	
831.4	5382.7	
831.57	5769.8	
831.74	2986.6	
831.91	2677.4	
832.09	4760.8	
832.26	4890.5	
832.43	3003.7	
832.6	3390.8	
832.77	4689.2	
832.94	5149.3	
833.12	2534.7	
833.29	3030.3	
833.46	4363.5	
833.63	5844.9	
833.8	3318.4	
833.97	3054.9	
834.15	4955.4	
834.32	4758.1	
834.49	3246.7	
834.66	3252.9	
834.83	5008	
835	4246.8	
835.17	2989.4	
835.35	3005.1	
835.52	4851	
835.69	4698.7	
835.86	3162.1	
836.03	2585.9	
836.2	4894	
836.37	4582	
836.55	3044	
836.72	2876.7	
836.89	4553.3	
837.06	4976.6	
837.23	3149.1	
837.4	3289	
837.57	5542.5	
837.75	5936.4	
837.92	2850.1	
838.09	3004.4	
838.26	4549.2	
838.43	5143.8	
838.6	3167.5	
838.77	2880.1	
838.94	5666	
839.11	5465.3	
839.29	3066.5	
839.46	2483.5	
839.63	4945.2	
839.8	4663.2	
839.97	3053.5	
840.14	2931.3	
840.31	4752	
840.48	4893.3	
840.65	2579.8	
840.82	2936.1	
841	4853.7	
841.17	4798.4	
841.34	2715.6	
841.51	2881.5	
841.68	4855.7	
841.85	4612.7	
842.02	2884.2	
842.19	2476.7	
842.36	4699.4	
842.53	4741.7	
842.7	2805	
842.87	3269.9	
843.05	5894.7	
843.22	4597	
843.39	2689	
843.56	2869.9	
843.73	4568.3	
843.9	5032.5	
844.07	4298.7	
844.24	3610.6	
844.41	6528.2	
844.58	4284.4	
844.75	2692.4	
844.92	2932.7	
845.09	4816.1	
845.26	4865.3	
845.43	2782.5	
845.6	2916.3	
845.77	4825.7	
845.94	4698	
846.12	3080.1	
846.29	3201	
846.46	5018.9	
846.63	4778.6	
846.8	2749.1	
846.97	3194.1	
847.14	5201.8	
847.31	4825	
847.48	3093.8	
847.65	3357.3	
847.82	5054.4	
847.99	4977.2	
848.16	3607.8	
848.33	3306.8	
848.5	4524	
848.67	5177.3	
848.84	2762	
849.01	2904.7	
849.18	4489.8	
849.35	4231.8	
849.52	3375.7	
849.69	2740.9	
849.86	5087.8	
850.03	5095.3	
850.2	2742.2	
850.37	3354.6	
850.54	5059.8	
850.71	4628.4	
850.88	3288.4	
851.05	2721.1	
851.22	4723.3	
851.39	5219.6	
851.56	2635.7	
851.73	3096.5	
851.9	4339.6	
852.07	4988.2	
852.24	3001.6	
852.41	2707.4	
852.58	4801.8	
852.75	4440.7	
852.92	3112.9	
853.09	2719	
853.26	4455.7	
853.43	5148.6	
853.6	2779.8	
853.77	2397.5	
853.94	5235.3	
854.11	4276.2	
854.28	3946.4	
854.44	2985.9	
854.61	5533.6	
854.78	5044.8	
854.95	2734.7	
855.12	3343	
855.29	4059.1	
855.46	5270.1	
855.63	2755.9	
855.8	3666.5	
855.97	4533.5	
856.14	5104.9	
856.31	3737.5	
856.48	2942.2	
856.65	4579.3	
856.82	4306.2	
856.99	2677.4	
857.16	2964.8	
857.33	5668.8	
857.49	4603.2	
857.66	2949.1	
857.83	3158	
858	4578.6	
858.17	4809.3	
858.34	2615.9	
858.51	2772.3	
858.68	5309.7	
858.85	5316.5	
859.02	3130	
859.19	3331.4	
859.36	4368.3	
859.52	4353.3	
859.69	2743.6	
859.86	3269.2	
860.03	4395.6	
860.2	5230.5	
860.37	2564.7	
860.54	2790	
860.71	5005.2	
860.88	5329.5	
861.05	3089.7	
861.21	3422.2	
861.38	5252.4	
861.55	4214.7	
861.72	2573.6	
861.89	3039.2	
862.06	5072.1	
862.23	5358.2	
862.4	2669.9	
862.56	2851.5	
862.73	4900.8	
862.9	4678.2	
863.07	3160	
863.24	2558.6	
863.41	4306.9	
863.58	4347.2	
863.75	2801.6	
863.91	3135.4	
864.08	5199.8	
864.25	4987.5	
864.42	3383.2	
864.59	3784.6	
864.76	5480.4	
864.93	4345.1	
865.09	2690.3	
865.26	2962.7	
865.43	5159.5	
865.6	5482.4	
865.77	2466.4	
865.94	2721.8	
866.1	5190.9	
866.27	4990.2	
866.44	4035.2	
866.61	2630.3	
866.78	4545.8	
866.95	4977.2	
867.11	2708.8	
867.28	2515.6	
867.45	5192.3	
867.62	4332.8	
867.79	3147	
867.96	2723.8	
868.12	4304.1	
868.29	4953.4	
868.46	2746.3	
868.63	3622.2	
868.8	5108.3	
868.97	4943.8	
869.13	2844.6	
869.3	2905.4	
869.47	4864.6	
869.64	5058.5	
869.81	2785.2	
869.97	2769.5	
870.14	4795	
870.31	5279.7	
870.48	2714.2	
870.65	3401.7	
870.81	4636.6	
870.98	4614.1	
871.15	3095.8	
871.32	2861	
871.48	4853	
871.65	5328.1	
871.82	2704	
871.99	3035.1	
872.16	5602.6	
872.32	5135.6	
872.49	2834.4	
872.66	2754.5	
872.83	5012.7	
872.99	4440.7	
873.16	3062.4	
873.33	2740.9	
873.5	4671.4	
873.67	4762.9	
873.83	2947	
874	3592.8	
874.17	4845.5	
874.34	5504.3	
874.5	3454.9	
874.67	3350.5	
874.84	5261.9	
875.01	4244.1	
875.17	3717.1	
875.34	2691	
875.51	4758.8	
875.68	5621.7	
875.84	3280.8	
876.01	3824.2	
876.18	4997	
876.34	4905.6	
876.51	2790	
876.68	2781.1	
876.85	4504.2	
877.01	5266	
877.18	3771	
877.35	2680.8	
877.52	4804.5	
877.68	4344.4	
877.85	2727.2	
878.02	2669.9	
878.18	4599.7	
878.35	4443.4	
878.52	2263.7	
878.69	3079.5	
878.85	5117.9	
879.02	4971.8	
879.19	3766.9	
879.35	2973	
879.52	4989.5	
879.69	5070.1	
879.86	2420	
880.02	3026.9	
880.19	4653.7	
880.36	5565	
880.52	3087	
880.69	3222.8	
880.86	4976.6	
881.02	5063.3	
881.19	3005.7	
881.36	2945	
881.52	4967.7	
881.69	4489.8	
881.86	3017.3	
882.02	2911.5	
882.19	5182	
882.36	5859.2	
882.52	2807.8	
882.69	3780.6	
882.86	4759.5	
883.02	4766.3	
883.19	3234.4	
883.36	3106.1	
883.52	5000.5	
883.69	5657.2	
883.86	2768.9	
884.02	2538.8	
884.19	4990.2	
884.36	4748.6	
884.52	3057.6	
884.69	2974.3	
884.86	4569.7	
885.02	5367	
885.19	3065.8	
885.36	3137.5	
885.52	4659.8	
885.69	4801.8	
885.86	3866.6	
886.02	3446	
886.19	5022.3	
886.35	4506.9	
886.52	3032.4	
886.69	3680.2	
886.85	4382	
887.02	5251.7	
887.19	5251.7	
887.35	5251.7	
887.52	5251.7	
887.68	5251.7	
887.85	5251.7	
888.02	5251.7	
888.18	5251.7	
888.35	5251.7	
888.51	5251.7	
888.68	5251.7	
888.85	5251.7	
889.01	5251.7	
889.18	5251.7	
889.35	5251.7	
889.51	5251.7	
889.68	5251.7	
889.84	5251.7	
890.01	5251.7	
890.17	5251.7	
890.34	5251.7	
890.51	5251.7	
890.67	5251.7	
890.84	5251.7	
891	5251.7	
891.17	5251.7	
891.34	5251.7	
891.5	5251.7	
891.67	5251.7	
891.83	5251.7	
892	5251.7	
892.16	5251.7	
892.33	5251.7	
892.5	5251.7	
892.66	5251.7	
892.83	5251.7	
892.99	5251.7	
893.16	5251.7	
893.32	5251.7	
893.49	5251.7	
893.65	5251.7	
893.82	5251.7	
893.99	5251.7	
894.15	5251.7	
894.32	5251.7	
894.48	5251.7	
894.65	5251.7	
894.81	5251.7	
894.98	5251.7	
895.14	5251.7	
895.31	5251.7	
895.47	5251.7	
895.64	5251.7	
895.81	5251.7	
895.97	5251.7	
896.14	5251.7	
896.3	5251.7	
896.47	5251.7	
896.63	5251.7	
896.8	5251.7	
896.96	5251.7	
897.13	5251.7	
897.29	5251.7	
897.46	5251.7	
897.62	5251.7	
897.79	5251.7	
897.95	5251.7	
898.12	5251.7	
898.28	5251.7	
898.45	5251.7	
898.61	5251.7	
898.78	5251.7	
898.94	5251.7	
899.11	5251.7	
899.27	5251.7	
899.44	5251.7	
899.6	5251.7	
899.77	5251.7	
899.93	5251.7	
900.1	5251.7	
900.26	5251.7	
900.43	5251.7	
900.59	5251.7	
900.76	5251.7	
900.92	5251.7	
901.09	5251.7	
901.25	5251.7	
901.42	5251.7	
901.58	5251.7	
901.75	5251.7	
901.91	5251.7	
902.07	5251.7	
902.24	5251.7	
902.4	5251.7	
902.57	5251.7	
902.73	5251.7	
902.9	5251.7	
903.06	5251.7	
903.23	5251.7	
903.39	5251.7	
903.56	5251.7	
903.72	5251.7	
903.88	5251.7	
904.05	5251.7	
904.21	5251.7	
904.38	5251.7	
904.54	5251.7	
904.71	5251.7	
904.87	5251.7	
905.03	5251.7	
905.2	5251.7	
905.36	5251.7	
905.53	5251.7	
905.69	5251.7	
905.86	5251.7	
906.02	5251.7	
906.18	5251.7	
906.35	5251.7	
906.51	5251.7	
906.68	5251.7	
906.84	5251.7	
907.01	5251.7	
907.17	5251.7	
907.33	5251.7	
907.5	5251.7	
907.66	5251.7	
907.83	5251.7	
907.99	5251.7	
908.15	5251.7	
908.32	5251.7	
908.48	5251.7	
908.65	5251.7	
908.81	5251.7	
908.97	5251.7	
909.14	5251.7	
909.3	5251.7	
909.47	5251.7	
909.63	5251.7	
909.79	5251.7	
909.96	5251.7	
910.12	5251.7	
910.28	5251.7	
910.45	5251.7	
910.61	5251.7	
910.78	5251.7	
910.94	5251.7	
911.1	5251.7	
911.27	5251.7	
911.43	5251.7	
911.59	5251.7	
911.76	5251.7	
911.92	5251.7	
912.08	5251.7	
912.25	5251.7	
912.41	5251.7	
912.57	5251.7	
912.74	5251.7	
912.9	5251.7	
913.07	5251.7	
913.23	5251.7	
913.39	5251.7	
913.56	5251.7	
913.72	5251.7	
913.88	5251.7	
914.05	5251.7	
914.21	5251.7	
914.37	5251.7	
914.54	5251.7	
914.7	5251.7	
914.86	5251.7	
915.03	5251.7	
915.19	5251.7	
