Wavelength	Intensities	
nm	a.u.	
179.22	1760.7	
179.44	1763	
179.65	1758.5	
179.86	1767.4	
180.08	1787.2	
180.29	4222.2	
180.51	3151.8	
180.72	5187.5	
180.94	5879.7	
181.15	2877.4	
181.37	2831.7	
181.58	5020.9	
181.79	5227.1	
182.01	2990	
182.22	3205.8	
182.44	5326.8	
182.65	4498.7	
182.87	3949.2	
183.08	3500.7	
183.29	5498.1	
183.51	4612	
183.72	3166.8	
183.94	4564.9	
184.15	4935.6	
184.37	4854.4	
184.58	2830.3	
184.79	3743.7	
185.01	4668	
185.22	5253	
185.44	3984.7	
185.65	3375.1	
185.86	4936.3	
186.08	4510.3	
186.29	2784.6	
186.51	2961.4	
186.72	4651.6	
186.94	5406	
187.15	3394.8	
187.36	3536.8	
187.58	6765.1	
187.79	5076.9	
188.01	3635.1	
188.22	5532.2	
188.43	5990.3	
188.65	5261.9	
188.86	2980.5	
189.08	3534.8	
189.29	4787.5	
189.5	4728.8	
189.72	3252.2	
189.93	3327.3	
190.15	5369.8	
190.36	6289.3	
190.57	3571	
190.79	3478.1	
191	5483.1	
191.22	5379.3	
191.43	3592.8	
191.64	2994.1	
191.86	5595.7	
192.07	5393	
192.29	3075.4	
192.5	3261	
192.71	5393	
192.93	4726.7	
193.14	3244.7	
193.35	3306.1	
193.57	4773.1	
193.78	5376.6	
194	2661.7	
194.21	3150.5	
194.42	4545.8	
194.64	4916.5	
194.85	3469.9	
195.07	4038.6	
195.28	4943.1	
195.49	4410	
195.71	4230.4	
195.92	3048.7	
196.13	5173.9	
196.35	5197.7	
196.56	4481	
196.78	3483.6	
196.99	6277	
197.2	5864	
197.42	3947.1	
197.63	3557.3	
197.84	4510.3	
198.06	5111	
198.27	3287	
198.48	4259.8	
198.7	4754.7	
198.91	4894.6	
199.13	3531.4	
199.34	3514.3	
199.55	5375.2	
199.77	4351.3	
199.98	3119.1	
200.19	3579.2	
200.41	4945.2	
200.62	4654.4	
200.83	3693.2	
201.05	3941.7	
201.26	4923.3	
201.47	4658.4	
201.69	3158	
201.9	3046	
202.11	4941.1	
202.33	5704.3	
202.54	3338.2	
202.76	3723.9	
202.97	5031.9	
203.18	5107	
203.4	3711.6	
203.61	3676.1	
203.82	4997.7	
204.04	4685.8	
204.25	3566.2	
204.46	3515	
204.68	4960.2	
204.89	5127.4	
205.1	3401.7	
205.32	3064.4	
205.53	5281.7	
205.74	5442.1	
205.96	2663	
206.17	3599	
206.38	5268.1	
206.6	5346.6	
206.81	4041.3	
207.02	3338.9	
207.24	5151.3	
207.45	5526.8	
207.66	3403	
207.88	2966.8	
208.09	5101.5	
208.3	4973.8	
208.52	3070.6	
208.73	3450.8	
208.94	4972.5	
209.15	5528.2	
209.37	3373	
209.58	3845.4	
209.79	5367.7	
210.01	4799.8	
210.22	2725.2	
210.43	2861	
210.65	4956.1	
210.86	5289.9	
211.07	3368.9	
211.29	3106.1	
211.5	5171.1	
211.71	4885.8	
211.93	3163.4	
212.14	3132	
212.35	4886.5	
212.56	5029.8	
212.78	3598.3	
212.99	2970.9	
213.2	5707	
213.42	4781.3	
213.63	3210.5	
213.84	3404.4	
214.06	4458.4	
214.27	4498.7	
214.48	3369.6	
214.69	3566.9	
214.91	5513.8	
215.12	5532.2	
215.33	3617.4	
215.55	3915	
215.76	5958.2	
215.97	5274.9	
216.18	3429	
216.4	3440.6	
216.61	4661.2	
216.82	5384.8	
217.04	3128.6	
217.25	3295.2	
217.46	5506.3	
217.67	5239.4	
217.89	2871.3	
218.1	2938.2	
218.31	4986.1	
218.53	5117.9	
218.74	3272	
218.95	3194.1	
219.16	4883	
219.38	5716.6	
219.59	3195.5	
219.8	3719.8	
220.01	6214.2	
220.23	4953.4	
220.44	4063.2	
220.65	3093.8	
220.87	5056.4	
221.08	5453.7	
221.29	2961.4	
221.5	3807.2	
221.72	6526.9	
221.93	4728.8	
222.14	3543	
222.35	4119.8	
222.57	4971.1	
222.78	5281.7	
222.99	3426.3	
223.2	3650.2	
223.42	5175.2	
223.63	5279.7	
223.84	2653.5	
224.05	2652.8	
224.27	6148	
224.48	5717.9	
224.69	4158.1	
224.9	3553.2	
225.12	5095.3	
225.33	4875.5	
225.54	2872.6	
225.75	3194.1	
225.97	4650.3	
226.18	4831.8	
226.39	3393.5	
226.6	3200.3	
226.82	4780.6	
227.03	4629.1	
227.24	3531.4	
227.45	3005.1	
227.67	5316.5	
227.88	5692	
228.09	3936.2	
228.3	3949.2	
228.52	5270.8	
228.73	4941.7	
228.94	3308.2	
229.15	2958.6	
229.36	4908.3	
229.58	4885.8	
229.79	3371	
230	3810.6	
230.21	5862.7	
230.43	5031.2	
230.64	3468.6	
230.85	3611.3	
231.06	5332.9	
231.28	5251	
231.49	2975.7	
231.7	3453.6	
231.91	5251.7	
232.12	4946.5	
232.34	3085.6	
232.55	3441.3	
232.76	5449	
232.97	5091.3	
233.18	3152.5	
233.4	3468.6	
233.61	5107.6	
233.82	4726.7	
234.03	3293.1	
234.25	3224.2	
234.46	6653.2	
234.67	5011.4	
234.88	3617.4	
235.09	3204.4	
235.31	5195.7	
235.52	4866.7	
235.73	3480.2	
235.94	2998.9	
236.15	4688.5	
236.37	5831.9	
236.58	3158	
236.79	3439.9	
237	5207.3	
237.21	4498	
237.43	3647.4	
237.64	2922.5	
237.85	8391.9	
238.06	4536.9	
238.27	3670.6	
238.48	2996.9	
238.7	5228.5	
238.91	4795.7	
239.12	3353.9	
239.33	3414.6	
239.54	4709.6	
239.76	4889.9	
239.97	3403	
240.18	3371	
240.39	6002.6	
240.6	5103.5	
240.82	3552.5	
241.03	2957.9	
241.24	4946.5	
241.45	5583.4	
241.66	3067.2	
241.87	3661.1	
242.09	5539.1	
242.3	5852.4	
242.51	3647.4	
242.72	3400.3	
242.93	5276.3	
243.14	4945.2	
243.36	3858.4	
243.57	4134.8	
243.78	5621.7	
243.99	5212.8	
244.2	3390.8	
244.41	3083.6	
244.63	4545.8	
244.84	5180	
245.05	3623.5	
245.26	3369.6	
245.47	5208.7	
245.68	5360.2	
245.9	4425.7	
246.11	3601.7	
246.32	4760.2	
246.53	5140.4	
246.74	5386.2	
246.95	2912.2	
247.16	4585.4	
247.38	4958.8	
247.59	2875.3	
247.8	3446.7	
248.01	4650.3	
248.22	4874.8	
248.43	3104	
248.64	3345.7	
248.86	4527.4	
249.07	4783.4	
249.28	3069.9	
249.49	3445.4	
249.7	5429.2	
249.91	5498.1	
250.12	2882.2	
250.34	2897.2	
250.55	5068	
250.76	4972.5	
250.97	3523.9	
251.18	3545	
251.39	5462.6	
251.6	5105.6	
251.81	3559.4	
252.03	3547.1	
252.24	4806.6	
252.45	5344.5	
252.66	2998.2	
252.87	3728	
253.08	5015.5	
253.29	6273.6	
253.5	3021.4	
253.72	4062.5	
253.93	4808.6	
254.14	5767.1	
254.35	3254.2	
254.56	3309.5	
254.77	5113.1	
254.98	4647.5	
255.19	3201.7	
255.41	4037.2	
255.62	5060.5	
255.83	5444.9	
256.04	3599.6	
256.25	3459.7	
256.46	5917.9	
256.67	4670.1	
256.88	3550.5	
257.09	3859.1	
257.31	4625	
257.52	4669.4	
257.73	4353.3	
257.94	3252.2	
258.15	4881	
258.36	4938.3	
258.57	3991.5	
258.78	2631	
258.99	5284.4	
259.2	4773.1	
259.41	3248.8	
259.63	3353.2	
259.84	5619.6	
260.05	5947.3	
260.26	4162.8	
260.47	3204.4	
260.68	5503.6	
260.89	4896	
261.1	3841.3	
261.31	3096.5	
261.52	5515.9	
261.73	5779.4	
261.95	4152.6	
262.16	3622.2	
262.37	5442.8	
262.58	5614.2	
262.79	4144.4	
263	3284.9	
263.21	4960.9	
263.42	4819.6	
263.63	3312.9	
263.84	3290.4	
264.05	5380	
264.26	5672.2	
264.47	4011.3	
264.69	3648.1	
264.9	5566.4	
265.11	5081	
265.32	3175	
265.53	3213.9	
265.74	5061.2	
265.95	4447.5	
266.16	3466.5	
266.37	3756.7	
266.58	5075.5	
266.79	4817.5	
267	3247.4	
267.21	3016	
267.42	4579.9	
267.63	4980.7	
267.84	3393.5	
268.06	3008.5	
268.27	5274.9	
268.48	5511.8	
268.69	3320.4	
268.9	3854.3	
269.11	5563	
269.32	4485.7	
269.53	3414.6	
269.74	3121.8	
269.95	5212.8	
270.16	4399	
270.37	3454.9	
270.58	3890.5	
270.79	4818.2	
271	5371.1	
271.21	3551.9	
271.42	3461.7	
271.63	5110.4	
271.84	4607.9	
272.05	2773.6	
272.26	3089	
272.47	4932.2	
272.68	5100.8	
272.89	3320.4	
273.11	3685.7	
273.32	4788.2	
273.53	5664	
273.74	3647.4	
273.95	3590.1	
274.16	5363.6	
274.37	4990.2	
274.58	3754.6	
274.79	3013.9	
275	5074.2	
275.21	5508.4	
275.42	4450.9	
275.63	3766.2	
275.84	5166.3	
276.05	6333	
276.26	3604.4	
276.47	3364.1	
276.68	4859.1	
276.89	5794.4	
277.1	3801.7	
277.31	2983.2	
277.52	5153.4	
277.73	5343.2	
277.94	3011.9	
278.15	3307.5	
278.36	5082.4	
278.57	4657.1	
278.78	3295.2	
278.99	3646.1	
279.2	4678.2	
279.41	4595	
279.62	4188.8	
279.83	3039.9	
280.04	5939.8	
280.25	4558.1	
280.46	4297.3	
280.67	3411.9	
280.88	4688.5	
281.09	5464.7	
281.3	3578.5	
281.51	4442	
281.72	4729.4	
281.93	5358.2	
282.14	3197.6	
282.35	3461.7	
282.56	5358.2	
282.77	5296.7	
282.98	3320.4	
283.19	3928.7	
283.4	6475	
283.61	4913.8	
283.82	3073.3	
284.03	4131.4	
284.24	5116.5	
284.45	5464	
284.66	4170.3	
284.87	4012	
285.08	5449.6	
285.29	5540.4	
285.5	2942.2	
285.71	3261.7	
285.92	5431.9	
286.12	5963	
286.33	4092.5	
286.54	3332	
286.75	5337.7	
286.96	4829.8	
287.17	3065.8	
287.38	4037.2	
287.59	4748.6	
287.8	4605.9	
288.01	3323.9	
288.22	3821.5	
288.43	5326.8	
288.64	4545.1	
288.85	3919.8	
289.06	3737.5	
289.27	5319.3	
289.48	5647.6	
289.69	4184.7	
289.9	3807.9	
290.11	5489.2	
290.32	4676.9	
290.53	3949.2	
290.74	3621.5	
290.94	5316.5	
291.15	5343.2	
291.36	3147.7	
291.57	3793.5	
291.78	4752	
291.99	4463.9	
292.2	3082.9	
292.41	3650.2	
292.62	5393	
292.83	5192.3	
293.04	4461.8	
293.25	3179.1	
293.46	4821.6	
293.67	5364.3	
293.88	3233.1	
294.09	3084.9	
294.29	4586.1	
294.5	5095.3	
294.71	3422.8	
294.92	3245.3	
295.13	4850.3	
295.34	5834	
295.55	2897.9	
295.76	2885.6	
295.97	5264	
296.18	5887.9	
296.39	3022.8	
296.6	3224.2	
296.81	5028.4	
297.01	5287.2	
297.22	3336.1	
297.43	3235.1	
297.64	4675.5	
297.85	4631.1	
298.06	2729.3	
298.27	2926.5	
298.48	4940.4	
298.69	4730.8	
298.9	3486.3	
299.11	3135.4	
299.31	4558.8	
299.52	4636.6	
299.73	3753.9	
299.94	3572.3	
300.15	4967	
300.36	4627.7	
300.57	3605.8	
300.78	3633.1	
300.99	4873.5	
301.2	5047.6	
301.4	3222.1	
301.61	3405.1	
301.82	5266.7	
302.03	5306.3	
302.24	3829.7	
302.45	2979.1	
302.66	5214.1	
302.87	5506.3	
303.08	3172.3	
303.29	4303.5	
303.49	4762.9	
303.7	4911.7	
303.91	2910.2	
304.12	4080.9	
304.33	4573.1	
304.54	5061.2	
304.75	3276.1	
304.96	3072.6	
305.16	5239.4	
305.37	5861.3	
305.58	2904	
305.79	2921.8	
306	5218.2	
306.21	4422.2	
306.42	3192.1	
306.63	4745.8	
306.83	4842.1	
307.04	5365.7	
307.25	3495.9	
307.46	3478.1	
307.67	4386.1	
307.88	5262.6	
308.09	3231	
308.29	3278.1	
308.5	4971.1	
308.71	5382.7	
308.92	3383.9	
309.13	3093.8	
309.34	4972.5	
309.55	4906.3	
309.75	3926.6	
309.96	3575.8	
310.17	5343.8	
310.38	4720.6	
310.59	3796.9	
310.8	3056.9	
311.01	5104.9	
311.21	4831.8	
311.42	3103.4	
311.63	3186.6	
311.84	4735.6	
312.05	5059.8	
312.26	3604.4	
312.46	3854.3	
312.67	4859.8	
312.88	4597	
313.09	3103.4	
313.3	3070.6	
313.51	5585.5	
313.71	5942.5	
313.92	3125.9	
314.13	3268.6	
314.34	5122	
314.55	4889.9	
314.76	3924.6	
314.96	3433.8	
315.17	5079	
315.38	5239.4	
315.59	3138.2	
315.8	2983.9	
316.01	5583.4	
316.21	5742.5	
316.42	3039.2	
316.63	3476.1	
316.84	4853.7	
317.05	5547.9	
317.26	3649.5	
317.46	3302	
317.67	4986.1	
317.88	5257.1	
318.09	3891.8	
318.3	2906.1	
318.5	4762.9	
318.71	5192.3	
318.92	4830.5	
319.13	3648.1	
319.34	5413.5	
319.54	5495.4	
319.75	2922.5	
319.96	2792.7	
320.17	5260.5	
320.38	5448.3	
320.58	2899.2	
320.79	3371	
321	5487.2	
321.21	5492.7	
321.42	3420.1	
321.62	2897.9	
321.83	4604.5	
322.04	4949.3	
322.25	3276.8	
322.46	3134.1	
322.66	5083.1	
322.87	5191.6	
323.08	3791.5	
323.29	3092.4	
323.5	5886.5	
323.7	4632.5	
323.91	4158.1	
324.12	3769.6	
324.33	5042.8	
324.53	5249.6	
324.74	3620.1	
324.95	3803.8	
325.16	4498.7	
325.37	4862.6	
325.57	3099.3	
325.78	3175.7	
325.99	5059.2	
326.2	4554	
326.4	4270.7	
326.61	2918.4	
326.82	4884.4	
327.03	5057.8	
327.24	4400.4	
327.44	4118.5	
327.65	5187.5	
327.86	4309.6	
328.07	3611.9	
328.27	3031	
328.48	5569.1	
328.69	4610.7	
328.9	4378.6	
329.1	3300	
329.31	4867.3	
329.52	5556.8	
329.73	3173.7	
329.93	3476.8	
330.14	5053	
330.35	5141.8	
330.56	4982.7	
330.76	3777.8	
330.97	4795.7	
331.18	5098.1	
331.39	3506.8	
331.59	2852.8	
331.8	5508.4	
332.01	5563	
332.22	3201.7	
332.42	3640.6	
332.63	5085.1	
332.84	4689.8	
333.05	3487	
333.25	3136.8	
333.46	4722.6	
333.67	4989.5	
333.88	3230.3	
334.08	3504.1	
334.29	6592.4	
334.5	5481	
334.7	3061.7	
334.91	4262.5	
335.12	4584	
335.33	5251.7	
335.53	3485.6	
335.74	4928.8	
335.95	4850.3	
336.16	4587.4	
336.36	3433.8	
336.57	3920.5	
336.78	4562.2	
336.98	5411.4	
337.19	4160.1	
337.4	3406.5	
337.61	5951.4	
337.81	4588.8	
338.02	3259	
338.23	4033.8	
338.43	5640.8	
338.64	4694.6	
338.85	3110.9	
339.05	4059.8	
339.26	5742.5	
339.47	4534.2	
339.68	3165.5	
339.88	4536.9	
340.09	5137.7	
340.3	5339.7	
340.5	3594.9	
340.71	2856.2	
340.92	4570.4	
341.13	5543.2	
341.33	3025.5	
341.54	3657.7	
341.75	5173.9	
341.95	4824.3	
342.16	3529.3	
342.37	3806.5	
342.57	4638.6	
342.78	4885.1	
342.99	3796.3	
343.19	2914.3	
343.4	5322.7	
343.61	5193.6	
343.81	3368.9	
344.02	3070.6	
344.23	5324	
344.43	5660.6	
344.64	3811.3	
344.85	3749.1	
345.06	5242.8	
345.26	5517.9	
345.47	3616	
345.68	4192.9	
345.88	4523.3	
346.09	5384.8	
346.3	3709.6	
346.5	2824.1	
346.71	4920.6	
346.92	4773.8	
347.12	3003.7	
347.33	3520.5	
347.54	5466	
347.74	5790.3	
347.95	3582.6	
348.16	2805.7	
348.36	4812	
348.57	4723.3	
348.78	3617.4	
348.98	3801	
349.19	5014.8	
349.39	4548.5	
349.6	2934.7	
349.81	3256.3	
350.01	5218.9	
350.22	4743.8	
350.43	3534.1	
350.63	4202.4	
350.84	5027.1	
351.05	4805.2	
351.25	3209.8	
351.46	2938.2	
351.67	5487.9	
351.87	4761.5	
352.08	3420.1	
352.29	3873.4	
352.49	5422.3	
352.7	5135.6	
352.9	3111.5	
353.11	3797.6	
353.32	6029.2	
353.52	4900.8	
353.73	3136.1	
353.94	3934.1	
354.14	5323.4	
354.35	5145.2	
354.55	3256.3	
354.76	3581.9	
354.97	5288.5	
355.17	5035.3	
355.38	3109.5	
355.59	4211.3	
355.79	4866.7	
356	5154.1	
356.2	3588	
356.41	3182.5	
356.62	4622.3	
356.82	5047.6	
357.03	3863.2	
357.24	3463.1	
357.44	4903.5	
357.65	4930.8	
357.85	4479.6	
358.06	3754.6	
358.27	4697.4	
358.47	4865.3	
358.68	3145.7	
358.88	3914.4	
359.09	5425.8	
359.3	5659.2	
359.5	4485.7	
359.71	4020.8	
359.91	6057.2	
360.12	5559.6	
360.33	3921.2	
360.53	4331.5	
360.74	5072.8	
360.94	5078.3	
361.15	4067.3	
361.36	3446.7	
361.56	5692.7	
361.77	5233.2	
361.97	4524.6	
362.18	3713.7	
362.38	5768.4	
362.59	4995	
362.8	3438.5	
363	3312.2	
363.21	4765.6	
363.41	5337	
363.62	3921.9	
363.83	4745.1	
364.03	5522	
364.24	6128.9	
364.44	4919.9	
364.65	4784.7	
364.85	5283.8	
365.06	4959.5	
365.27	3646.7	
365.47	3732.1	
365.68	6107.7	
365.88	5286.5	
366.09	4008.6	
366.29	3774.4	
366.5	5489.2	
366.71	5815.5	
366.91	4870.8	
367.12	4302.8	
367.32	6354.2	
367.53	5817.6	
367.73	4223.6	
367.94	5026.4	
368.14	5745.2	
368.35	6447.7	
368.56	4154.6	
368.76	3827.7	
368.97	5836	
369.17	7168.6	
369.38	3672.7	
369.58	3988.1	
369.79	4979.3	
369.99	6067.4	
370.2	4743.8	
370.4	4035.2	
370.61	5616.2	
370.82	6538.5	
371.02	3994.2	
371.23	3429	
371.43	4973.2	
371.64	6148	
371.84	4082.3	
372.05	4976.6	
372.25	7165.2	
372.46	5864.7	
372.66	4165.6	
372.87	4147.8	
373.07	6015.6	
373.28	7305.8	
373.48	4940.4	
373.69	4745.8	
373.9	5709.1	
374.1	5596.4	
374.31	5026.4	
374.51	4546.5	
374.72	6363	
374.92	5469.4	
375.13	5145.2	
375.33	4514.4	
375.54	6125.5	
375.74	5631.9	
375.95	4592.2	
376.15	5649.7	
376.36	6182.1	
376.56	5986.2	
376.77	4704.2	
376.97	5150.6	
377.18	7076.4	
377.38	6318	
377.59	5408	
377.79	4492.6	
378	6173.3	
378.2	6507.1	
378.41	4560.8	
378.61	4463.2	
378.82	6606.7	
379.02	5937.1	
379.23	4677.6	
379.43	5630.5	
379.64	6754.9	
379.84	6372.6	
380.05	4599.7	
380.25	4446.1	
380.46	6469.5	
380.66	6079.7	
380.87	5537.7	
381.07	5818.3	
381.28	7014.3	
381.48	6436.1	
381.69	4535.6	
381.89	4562.9	
382.1	5467.4	
382.3	6452.5	
382.51	5385.5	
382.71	6057.9	
382.91	6324.1	
383.12	6784.9	
383.32	4737	
383.53	4988.9	
383.73	6190.3	
383.94	6106.4	
384.14	4906.3	
384.35	4118.5	
384.55	5881.1	
384.76	6278.4	
384.96	4707.6	
385.17	4937.7	
385.37	6303	
385.58	5644.2	
385.78	4905.6	
385.98	4000.4	
386.19	5808.7	
386.39	6249	
386.6	4599.1	
386.8	4654.4	
387.01	6339.1	
387.21	6338.5	
387.42	5068.7	
387.62	5577.3	
387.83	5823.7	
388.03	6271.6	
388.23	4852.3	
388.44	5564.3	
388.64	5650.3	
388.85	5789.6	
389.05	5178.6	
389.26	5762.3	
389.46	7492.2	
389.67	6985.6	
389.87	5338.4	
390.07	5358.2	
390.28	6274.3	
390.48	5865.4	
390.69	4724	
390.89	5006.6	
391.1	6044.2	
391.3	6825.9	
391.5	5825.1	
391.71	6333.7	
391.91	6660.7	
392.12	7438.2	
392.32	5967.8	
392.53	5332.9	
392.73	6183.5	
392.93	6376	
393.14	5058.5	
393.34	5644.2	
393.55	6591.7	
393.75	6078.4	
393.95	4944.5	
394.16	4800.4	
394.36	6036.7	
394.57	6496.8	
394.77	4500.8	
394.98	4785.4	
395.18	6064.7	
395.38	6195.8	
395.59	5733.6	
395.79	4949.9	
396	6318.7	
396.2	6803.4	
396.4	5894.1	
396.61	5709.1	
396.81	6991.1	
397.02	6395.8	
397.22	5961	
397.42	5990.3	
397.63	7024.5	
397.83	6389	
398.04	5020.9	
398.24	5534.3	
398.44	6864.8	
398.65	6100.9	
398.85	5045.5	
399.05	5100.1	
399.26	6489.3	
399.46	7901.1	
399.67	5408.7	
399.87	5177.9	
400.07	6858.6	
400.28	7050.5	
400.48	5365.7	
400.69	6365.8	
400.89	7390.4	
401.09	7742	
401.3	5373.9	
401.5	6313.2	
401.7	7979.6	
401.91	8220.5	
402.11	5819	
402.32	5855.8	
402.52	7453.9	
402.72	7299.6	
402.93	5988.3	
403.13	4930.8	
403.33	7836.9	
403.54	6546.7	
403.74	5403.9	
403.94	5972.6	
404.15	6485.9	
404.35	7520.1	
404.56	5115.8	
404.76	6632	
404.96	7036.1	
405.17	6877.8	
405.37	6489.3	
405.57	5825.8	
405.78	7417.1	
405.98	6839.5	
406.18	5640.1	
406.39	6324.8	
406.59	7314	
406.79	6851.1	
407	5214.8	
407.2	5260.5	
407.4	7159	
407.61	7428.7	
407.81	5339.7	
408.01	6882.5	
408.22	6581.5	
408.42	8276.5	
408.62	6651.1	
408.83	6313.9	
409.03	7401.4	
409.23	7376.8	
409.44	6572.6	
409.64	6817	
409.84	8522.3	
410.05	8500.4	
410.25	6903	
410.45	6666.1	
410.66	8314.8	
410.86	10170	
411.06	7337.2	
411.27	7149.5	
411.47	10228	
411.67	8527.7	
411.88	7376.8	
412.08	7815	
412.28	9088.9	
412.49	9566.7	
412.69	7472.4	
412.89	7399.3	
413.09	9426.1	
413.3	9383.8	
413.5	7634.1	
413.7	7343.3	
413.91	8682.7	
414.11	9557.2	
414.31	7555.6	
414.52	8029.4	
414.72	9227.5	
414.92	9314.2	
415.12	7526.3	
415.33	8019.2	
415.53	9665.7	
415.73	9858.2	
415.94	8208.9	
416.14	7831.4	
416.34	8878.6	
416.55	8652.7	
416.75	8814.5	
416.95	8396	
417.15	9843.9	
417.36	10154	
417.56	9243.8	
417.76	8404.2	
417.97	10066	
418.17	9959.3	
418.37	8049.9	
418.57	8209.6	
418.78	9805	
418.98	9450.7	
419.18	8955.8	
419.38	8770.8	
419.59	9439.1	
419.79	9031.5	
419.99	7891.5	
420.2	8167.3	
420.4	9783.1	
420.6	9749	
420.8	7931.8	
421.01	7755.7	
421.21	9871.2	
421.41	9981.8	
421.61	8178.2	
421.82	7897.7	
422.02	9440.5	
422.22	10084	
422.42	8621.9	
422.63	8116.1	
422.83	9441.8	
423.03	10336	
423.23	8224	
423.44	7385	
423.64	9381.7	
423.84	8898.4	
424.04	7744.1	
424.25	7434.8	
424.45	9912.9	
424.65	9901.2	
424.85	7318.1	
425.06	7737.2	
425.26	10082	
425.46	9162.6	
425.66	8057.4	
425.87	7879.2	
426.07	9807.7	
426.27	9578.3	
426.47	7889.5	
426.67	7307.8	
426.88	9942.2	
427.08	9387.9	
427.28	8208.9	
427.48	7241.6	
427.69	8510	
427.89	9039.7	
428.09	8058.8	
428.29	7301.7	
428.5	9648	
428.7	9258.9	
428.9	7264.1	
429.1	7690.8	
429.3	9185.1	
429.51	9510.8	
429.71	7501	
429.91	8234.9	
430.11	9625.5	
430.31	9852.1	
430.52	7918.1	
430.72	8229.4	
430.92	10228	
431.12	9701.2	
431.32	7656.7	
431.53	7932.5	
431.73	8810.4	
431.93	10093	
432.13	7480.5	
432.33	7537.9	
432.54	9213.8	
432.74	9463	
432.94	7660.8	
433.14	8348.9	
433.34	9727.9	
433.55	9517.6	
433.75	8400.1	
433.95	9941.5	
434.15	9682.1	
434.35	9523.7	
434.56	7757	
434.76	7515.4	
434.96	9697.8	
435.16	10012	
435.36	7724.9	
435.56	8890.2	
435.77	9562.6	
435.97	9683.5	
436.17	9413.8	
436.37	8831.5	
436.57	9581.8	
436.78	9699.9	
436.98	9979.1	
437.18	9257.5	
437.38	10359	
437.58	9792	
437.78	9279.3	
437.99	8222.6	
438.19	10133	
438.39	10649	
438.59	8011.7	
438.79	7451.9	
438.99	10445	
439.2	9370.8	
439.4	7490.1	
439.6	7527	
439.8	9764.7	
440	10680	
440.2	8800.8	
440.4	8884.8	
440.61	10535	
440.81	11009	
441.01	8355	
441.21	9141.4	
441.41	11161	
441.61	10714	
441.81	9544.2	
442.02	10246	
442.22	11375	
442.42	10742	
442.62	8491.6	
442.82	8421.9	
443.02	11071	
443.22	10469	
443.43	8986.5	
443.63	8579.6	
443.83	10235	
444.03	10222	
444.23	9826.8	
444.43	9411.8	
444.63	10662	
444.83	11605	
445.04	8931.2	
445.24	9911.5	
445.44	10756	
445.64	10952	
445.84	9213.8	
446.04	9375.6	
446.24	10059	
446.44	10901	
446.65	8421.2	
446.85	8942.8	
447.05	10129	
447.25	10826	
447.45	8809.7	
447.65	8337.3	
447.85	10357	
448.05	9923.8	
448.25	9192.6	
448.46	9054.1	
448.66	10383	
448.86	10023	
449.06	8359.8	
449.26	9244.5	
449.46	10793	
449.66	9834.3	
449.86	9093	
450.06	8876.6	
450.26	10118	
450.47	10602	
450.67	8989.2	
450.87	9417.2	
451.07	10788	
451.27	10479	
451.47	8524.3	
451.67	9096.4	
451.87	10385	
452.07	11080	
452.27	8993.3	
452.47	8742.1	
452.67	10518	
452.88	10951	
453.08	8214.4	
453.28	9970.2	
453.48	11639	
453.68	10337	
453.88	8743.5	
454.08	8895	
454.28	10815	
454.48	10536	
454.68	9392	
454.88	9769.5	
455.08	10914	
455.28	11030	
455.48	8629.5	
455.68	9449.3	
455.89	11656	
456.09	11269	
456.29	9084.1	
456.49	9426.1	
456.69	11583	
456.89	10851	
457.09	9758.6	
457.29	10191	
457.49	11292	
457.69	11405	
457.89	9884.2	
458.09	9298.5	
458.29	11370	
458.49	11934	
458.69	10251	
458.89	9767.4	
459.09	12379	
459.29	12324	
459.49	9866.4	
459.69	10611	
459.9	11783	
460.1	11546	
460.3	9620.7	
460.5	9624.1	
460.7	11770	
460.9	11523	
461.1	9252.7	
461.3	10440	
461.5	12404	
461.7	12119	
461.9	10068	
462.1	10261	
462.3	12034	
462.5	12344	
462.7	10288	
462.9	10256	
463.1	13283	
463.3	13186	
463.5	10466	
463.7	11546	
463.9	12362	
464.1	12667	
464.3	11079	
464.5	10898	
464.7	12992	
464.9	12989	
465.1	12340	
465.3	11544	
465.5	13265	
465.7	13385	
465.9	11809	
466.1	11247	
466.3	13415	
466.5	13002	
466.7	12570	
466.9	11404	
467.1	13188	
467.3	14048	
467.5	12613	
467.7	11588	
467.9	14203	
468.1	14979	
468.3	12138	
468.5	12770	
468.7	13409	
468.9	13315	
469.1	12019	
469.3	12629	
469.5	15158	
469.7	13274	
469.9	12245	
470.1	11869	
470.3	13583	
470.5	13473	
470.7	12794	
470.9	11807	
471.1	13411	
471.3	13282	
471.5	11676	
471.69	13147	
471.89	13059	
472.09	12531	
472.29	12409	
472.49	12402	
472.69	12953	
472.89	13496	
473.09	11556	
473.29	11415	
473.49	12912	
473.69	12942	
473.89	12136	
474.09	11535	
474.29	13923	
474.49	13659	
474.69	12215	
474.89	11537	
475.09	12948	
475.29	12910	
475.49	11111	
475.69	11473	
475.88	14097	
476.08	13170	
476.28	11213	
476.48	11292	
476.68	13353	
476.88	13120	
477.08	11133	
477.28	11426	
477.48	12529	
477.68	13114	
477.88	10997	
478.08	11286	
478.28	13610	
478.48	12760	
478.67	11371	
478.87	10655	
479.07	13634	
479.27	12900	
479.47	11493	
479.67	11461	
479.87	13326	
480.07	13695	
480.27	10847	
480.47	12020	
480.67	12916	
480.87	13574	
481.06	11187	
481.26	11921	
481.46	12893	
481.66	12829	
481.86	11478	
482.06	12299	
482.26	12751	
482.46	13396	
482.66	11338	
482.86	11133	
483.05	13050	
483.25	12474	
483.45	13551	
483.65	11363	
483.85	12733	
484.05	13018	
484.25	11794	
484.45	12414	
484.65	13673	
484.84	13897	
485.04	11563	
485.24	11479	
485.44	14061	
485.64	12699	
485.84	11110	
486.04	12236	
486.24	13078	
486.44	13375	
486.63	11069	
486.83	11806	
487.03	13165	
487.23	13366	
487.43	11192	
487.63	13310	
487.83	13545	
488.02	14313	
488.22	12209	
488.42	12938	
488.62	14154	
488.82	13392	
489.02	11910	
489.22	12019	
489.41	14001	
489.61	13938	
489.81	11737	
490.01	11805	
490.21	14221	
490.41	14690	
490.61	11741	
490.8	11935	
491	13788	
491.2	13183	
491.4	12300	
491.6	11594	
491.8	13435	
491.99	13383	
492.19	11168	
492.39	11393	
492.59	13741	
492.79	13895	
492.99	12297	
493.18	11669	
493.38	14227	
493.58	15098	
493.78	12594	
493.98	12409	
494.18	14337	
494.37	13998	
494.57	13182	
494.77	12934	
494.97	14664	
495.17	15061	
495.37	12767	
495.56	13171	
495.76	15435	
495.96	15016	
496.16	14075	
496.36	13349	
496.55	15406	
496.75	15017	
496.95	13635	
497.15	13574	
497.35	15233	
497.54	15292	
497.74	13155	
497.94	14726	
498.14	16008	
498.34	15812	
498.53	13206	
498.73	13801	
498.93	15007	
499.13	15511	
499.33	13908	
499.52	14040	
499.72	15670	
499.92	15726	
500.12	13678	
500.32	13818	
500.51	15799	
500.71	15777	
500.91	14565	
501.11	14180	
501.31	15893	
501.5	16052	
501.7	14673	
501.9	13809	
502.1	15538	
502.29	15952	
502.49	14447	
502.69	14495	
502.89	15699	
503.09	15730	
503.28	13278	
503.48	13392	
503.68	14873	
503.88	14986	
504.07	14042	
504.27	13532	
504.47	15341	
504.67	15284	
504.86	14066	
505.06	13568	
505.26	14849	
505.46	16240	
505.65	13509	
505.85	13495	
506.05	14604	
506.25	14992	
506.44	12706	
506.64	13235	
506.84	14317	
507.04	14933	
507.23	12743	
507.43	13046	
507.63	15791	
507.83	14435	
508.02	13257	
508.22	12714	
508.42	16152	
508.62	14177	
508.81	12865	
509.01	13519	
509.21	14032	
509.4	14272	
509.6	12943	
509.8	12639	
510	14298	
510.19	15464	
510.39	12648	
510.59	12763	
510.79	14349	
510.98	15636	
511.18	12937	
511.38	13016	
511.57	14980	
511.77	14631	
511.97	13288	
512.17	12670	
512.36	14795	
512.56	14811	
512.76	12534	
512.95	12254	
513.15	14889	
513.35	13727	
513.55	13276	
513.74	12551	
513.94	14846	
514.14	14311	
514.33	13353	
514.53	13207	
514.73	14301	
514.92	14483	
515.12	12769	
515.32	12540	
515.51	14600	
515.71	15015	
515.91	14031	
516.11	12734	
516.3	16014	
516.5	14323	
516.7	13272	
516.89	13742	
517.09	14326	
517.29	14424	
517.48	13543	
517.68	12885	
517.88	14095	
518.07	14673	
518.27	13348	
518.47	12429	
518.66	15129	
518.86	14007	
519.06	12354	
519.25	12698	
519.45	14199	
519.65	15587	
519.84	13362	
520.04	14048	
520.24	15866	
520.43	14803	
520.63	13112	
520.83	12783	
521.02	14153	
521.22	14554	
521.42	13020	
521.61	13507	
521.81	14061	
522.01	14250	
522.2	12899	
522.4	12787	
522.6	14710	
522.79	13818	
522.99	12796	
523.18	12401	
523.38	14825	
523.58	14751	
523.77	14375	
523.97	12812	
524.17	16608	
524.36	15864	
524.56	14066	
524.76	13805	
524.95	15326	
525.15	14894	
525.34	13749	
525.54	13769	
525.74	15677	
525.93	14858	
526.13	14844	
526.33	14040	
526.52	16123	
526.72	15640	
526.91	15089	
527.11	14403	
527.31	16026	
527.5	16543	
527.7	14442	
527.89	13669	
528.09	15398	
528.29	16024	
528.48	14863	
528.68	14435	
528.87	16297	
529.07	16325	
529.27	14408	
529.46	14117	
529.66	16042	
529.85	16405	
530.05	14116	
530.25	14616	
530.44	17324	
530.64	15926	
530.83	14251	
531.03	14315	
531.23	16206	
531.42	15963	
531.62	15119	
531.81	14511	
532.01	16582	
532.21	16940	
532.4	14576	
532.6	14989	
532.79	17634	
532.99	17150	
533.18	15257	
533.38	15982	
533.58	16790	
533.77	17276	
533.97	15226	
534.16	15989	
534.36	17649	
534.55	16779	
534.75	16109	
534.95	15588	
535.14	17656	
535.34	16952	
535.53	15214	
535.73	16670	
535.92	18050	
536.12	16771	
536.31	15051	
536.51	16055	
536.71	17045	
536.9	16703	
537.1	15073	
537.29	15264	
537.49	17290	
537.68	16681	
537.88	15633	
538.07	14956	
538.27	16909	
538.46	17811	
538.66	14935	
538.86	15422	
539.05	16954	
539.25	17503	
539.44	15778	
539.64	15219	
539.83	16840	
540.03	17623	
540.22	14966	
540.42	14914	
540.61	16891	
540.81	16961	
541	15248	
541.2	15711	
541.39	16268	
541.59	16670	
541.78	15773	
541.98	14859	
542.18	16206	
542.37	16206	
542.57	14941	
542.76	15504	
542.96	16019	
543.15	16415	
543.35	14889	
543.54	14261	
543.74	16451	
543.93	16208	
544.13	14514	
544.32	15616	
544.52	16275	
544.71	15691	
544.91	13798	
545.1	14827	
545.3	15661	
545.49	16212	
545.69	13695	
545.88	14433	
546.08	17203	
546.27	16541	
546.47	14656	
546.66	13965	
546.86	16253	
547.05	16785	
547.24	14170	
547.44	14158	
547.63	15412	
547.83	16356	
548.02	14420	
548.22	14488	
548.41	15191	
548.61	16255	
548.8	13991	
549	13938	
549.19	15670	
549.39	15905	
549.58	13459	
549.78	14065	
549.97	15997	
550.17	15437	
550.36	14618	
550.55	15459	
550.75	15388	
550.94	16091	
551.14	13634	
551.33	13758	
551.53	14816	
551.72	15703	
551.92	13812	
552.11	13726	
552.31	15633	
552.5	15623	
552.69	15082	
552.89	13245	
553.08	15609	
553.28	15338	
553.47	13757	
553.67	14539	
553.86	15937	
554.06	14556	
554.25	12820	
554.44	13380	
554.64	16501	
554.83	16284	
555.03	13375	
555.22	13540	
555.42	15550	
555.61	15281	
555.8	13375	
556	13610	
556.19	14595	
556.39	15539	
556.58	13491	
556.78	13359	
556.97	15211	
557.16	14958	
557.36	14479	
557.55	13187	
557.75	14317	
557.94	15749	
558.13	13210	
558.33	12965	
558.52	15572	
558.72	14557	
558.91	13028	
559.1	13228	
559.3	14276	
559.49	13902	
559.69	12517	
559.88	13448	
560.07	14833	
560.27	15214	
560.46	13564	
560.66	13669	
560.85	14714	
561.04	14140	
561.24	12882	
561.43	12824	
561.63	14275	
561.82	14341	
562.01	13981	
562.21	13140	
562.4	14627	
562.59	15678	
562.79	13112	
562.98	12827	
563.18	14705	
563.37	16016	
563.56	13476	
563.76	12939	
563.95	14389	
564.14	14379	
564.34	13261	
564.53	12869	
564.73	14875	
564.92	15137	
565.11	13328	
565.31	12878	
565.5	15356	
565.69	14430	
565.89	13059	
566.08	13294	
566.27	15376	
566.47	15658	
566.66	13860	
566.85	12897	
567.05	15128	
567.24	14521	
567.44	13113	
567.63	14164	
567.82	15240	
568.02	14932	
568.21	13031	
568.4	13366	
568.6	14730	
568.79	14887	
568.98	12943	
569.18	13025	
569.37	14926	
569.56	16555	
569.76	13568	
569.95	14360	
570.14	15148	
570.34	15233	
570.53	13160	
570.72	12906	
570.91	15588	
571.11	14801	
571.3	13382	
571.49	14087	
571.69	14932	
571.88	14496	
572.07	13861	
572.27	13707	
572.46	14664	
572.65	15380	
572.85	13250	
573.04	13468	
573.23	15646	
573.43	15004	
573.62	13218	
573.81	13702	
574	15231	
574.2	14987	
574.39	13528	
574.58	13601	
574.78	16070	
574.97	15450	
575.16	14069	
575.36	14225	
575.55	15855	
575.74	15827	
575.93	13420	
576.13	14418	
576.32	15221	
576.51	15778	
576.71	13807	
576.9	14977	
577.09	15946	
577.28	15554	
577.48	14140	
577.67	13371	
577.86	15309	
578.05	15750	
578.25	13902	
578.44	13951	
578.63	15500	
578.83	16495	
579.02	13476	
579.21	14766	
579.4	15791	
579.6	15639	
579.79	13951	
579.98	15840	
580.17	16004	
580.37	16022	
580.56	13661	
580.75	14268	
580.94	16343	
581.14	16314	
581.33	14784	
581.52	13779	
581.71	15948	
581.91	16616	
582.1	13744	
582.29	14092	
582.48	15723	
582.68	15584	
582.87	14436	
583.06	14138	
583.25	16053	
583.45	15380	
583.64	14747	
583.83	15541	
584.02	15571	
584.21	16052	
584.41	14715	
584.6	14216	
584.79	15739	
584.98	16360	
585.18	13775	
585.37	13841	
585.56	15425	
585.75	16077	
585.94	13776	
586.14	14363	
586.33	16279	
586.52	15677	
586.71	14179	
586.91	13936	
587.1	14848	
587.29	15745	
587.48	13570	
587.67	13607	
587.87	15423	
588.06	15476	
588.25	14538	
588.44	14070	
588.63	15046	
588.83	15494	
589.02	13377	
589.21	13171	
589.4	14691	
589.59	14509	
589.78	12197	
589.98	12415	
590.17	13616	
590.36	14087	
590.55	11464	
590.74	11876	
590.94	14811	
591.13	13520	
591.32	11703	
591.51	11288	
591.7	13923	
591.89	13615	
592.09	11484	
592.28	12020	
592.47	13037	
592.66	14774	
592.85	11759	
593.05	11874	
593.24	13588	
593.43	14346	
593.62	12057	
593.81	12416	
594	13720	
594.19	13913	
594.39	11852	
594.58	11900	
594.77	14046	
594.96	14443	
595.15	11766	
595.34	12325	
595.54	13807	
595.73	13073	
595.92	11158	
596.11	11886	
596.3	14097	
596.49	13150	
596.68	11811	
596.88	12121	
597.07	13926	
597.26	13076	
597.45	11450	
597.64	12528	
597.83	13338	
598.02	13909	
598.22	11621	
598.41	12110	
598.6	13594	
598.79	13065	
598.98	11439	
599.17	12326	
599.36	13587	
599.55	14452	
599.74	13203	
599.94	13108	
600.13	13940	
600.32	13021	
600.51	11328	
600.7	11522	
600.89	14432	
601.08	14658	
601.27	11324	
601.47	12114	
601.66	13877	
601.85	14390	
602.04	11968	
602.23	12071	
602.42	13010	
602.61	13695	
602.8	11711	
602.99	11441	
603.18	13415	
603.37	13553	
603.57	12017	
603.76	12407	
603.95	14154	
604.14	13778	
604.33	11703	
604.52	11815	
604.71	13651	
604.9	13335	
605.09	12382	
605.28	12189	
605.47	14100	
605.66	13744	
605.86	12097	
606.05	11587	
606.24	13945	
606.43	12772	
606.62	11887	
606.81	12333	
607	13784	
607.19	13280	
607.38	11310	
607.57	11506	
607.76	13113	
607.95	12549	
608.14	11899	
608.33	12291	
608.52	12975	
608.72	13815	
608.91	11019	
609.1	11049	
609.29	13098	
609.48	12517	
609.67	12017	
609.86	11179	
610.05	12686	
610.24	12876	
610.43	10993	
610.62	10663	
610.81	13782	
611	13744	
611.19	11086	
611.38	11551	
611.57	13155	
611.76	14134	
611.95	10898	
612.14	10757	
612.33	12917	
612.52	12656	
612.71	11340	
612.9	10670	
613.09	12285	
613.28	14164	
613.47	11142	
613.66	11874	
613.85	13110	
614.04	12605	
614.24	11086	
614.43	10409	
614.62	13127	
614.81	13108	
615	11459	
615.19	11622	
615.38	12500	
615.57	12927	
615.76	11414	
615.95	12280	
616.14	13206	
616.33	13008	
616.52	11747	
616.71	11894	
616.9	13054	
617.09	12994	
617.28	11146	
617.47	12134	
617.66	12484	
617.85	12448	
618.04	11946	
618.22	11557	
618.41	12976	
618.6	13661	
618.79	11641	
618.98	11551	
619.17	14011	
619.36	12594	
619.55	11600	
619.74	11518	
619.93	13404	
620.12	13075	
620.31	12052	
620.5	12332	
620.69	14251	
620.88	14387	
621.07	12891	
621.26	12195	
621.45	13741	
621.64	13793	
621.83	12299	
622.02	11426	
622.21	13663	
622.4	13637	
622.59	12746	
622.78	12561	
622.97	13252	
623.16	14041	
623.35	12278	
623.54	11655	
623.72	13584	
623.91	13551	
624.1	12498	
624.29	11439	
624.48	14650	
624.67	13815	
624.86	12398	
625.05	11712	
625.24	14720	
625.43	13301	
625.62	13774	
625.81	11850	
626	14076	
626.19	13553	
626.38	12543	
626.56	12075	
626.75	13395	
626.94	14114	
627.13	12512	
627.32	11347	
627.51	13958	
627.7	14866	
627.89	11265	
628.08	12415	
628.27	13100	
628.46	13313	
628.65	11603	
628.83	11374	
629.02	13753	
629.21	13131	
629.4	12059	
629.59	12215	
629.78	13167	
629.97	13786	
630.16	12143	
630.35	11843	
630.54	14424	
630.72	14024	
630.91	11793	
631.1	12248	
631.29	13656	
631.48	13760	
631.67	12278	
631.86	11736	
632.05	13225	
632.24	13341	
632.42	11436	
632.61	11958	
632.8	13353	
632.99	13147	
633.18	12022	
633.37	12226	
633.56	13579	
633.75	13504	
633.93	12013	
634.12	11708	
634.31	14302	
634.5	13988	
634.69	11697	
634.88	12107	
635.07	13343	
635.25	13832	
635.44	12456	
635.63	12742	
635.82	13082	
636.01	12676	
636.2	12355	
636.39	12082	
636.57	14242	
636.76	13786	
636.95	11441	
637.14	12599	
637.33	13508	
637.52	14274	
637.7	11387	
637.89	12153	
638.08	13219	
638.27	14367	
638.46	12281	
638.65	12559	
638.83	14296	
639.02	12977	
639.21	11912	
639.4	12353	
639.59	13204	
639.78	12916	
639.96	11220	
640.15	11335	
640.34	13007	
640.53	13156	
640.72	11024	
640.91	11288	
641.09	12501	
641.28	13595	
641.47	11237	
641.66	11884	
641.85	13007	
642.03	13096	
642.22	11689	
642.41	11288	
642.6	12438	
642.79	11892	
642.97	10911	
643.16	11530	
643.35	12536	
643.54	12193	
643.73	10794	
643.91	11476	
644.1	11933	
644.29	12594	
644.48	10709	
644.67	10929	
644.85	11964	
645.04	12424	
645.23	10333	
645.42	10507	
645.6	11839	
645.79	12656	
645.98	10336	
646.17	9474.6	
646.36	11245	
646.54	11619	
646.73	10667	
646.92	9728.5	
647.11	11300	
647.29	12109	
647.48	9801.6	
647.67	9487.6	
647.86	12396	
648.05	12394	
648.23	9969.5	
648.42	11092	
648.61	11789	
648.8	11617	
648.98	9665.7	
649.17	9916.3	
649.36	11232	
649.55	10798	
649.73	9749.7	
649.92	10485	
650.11	11269	
650.3	11491	
650.48	9849.4	
650.67	9620.7	
650.86	11648	
651.05	10621	
651.23	9667.8	
651.42	9600.9	
651.61	11032	
651.79	11114	
651.98	9761.3	
652.17	9465.7	
652.36	11338	
652.54	10659	
652.73	9557.2	
652.92	9367.4	
653.11	11471	
653.29	11409	
653.48	8966	
653.67	9674.6	
653.85	11133	
654.04	11944	
654.23	9722.4	
654.42	9357.2	
654.6	10458	
654.79	11039	
654.98	8708.6	
655.16	9061.6	
655.35	10099	
655.54	9833	
655.73	8495	
655.91	8365.3	
656.1	10662	
656.29	9830.9	
656.47	8415.8	
656.66	9768.8	
656.85	10280	
657.03	10370	
657.22	8816.5	
657.41	9013.1	
657.59	10492	
657.78	10303	
657.97	8797.4	
658.16	9337.4	
658.34	11088	
658.53	11393	
658.72	10082	
658.9	10411	
659.09	10711	
659.28	10709	
659.46	9162.6	
659.65	9077.3	
659.84	10472	
660.02	11031	
660.21	9031.5	
660.4	9009.7	
660.58	11323	
660.77	10780	
660.96	9611.8	
661.14	8800.8	
661.33	11642	
661.52	11657	
661.7	8643.8	
661.89	11703	
662.08	10344	
662.26	10075	
662.45	8864.3	
662.64	8871.8	
662.82	10911	
663.01	10305	
663.2	8931.2	
663.38	9565.4	
663.57	10803	
663.75	10796	
663.94	9131.2	
664.13	10127	
664.31	10367	
664.5	10924	
664.69	9422	
664.87	9830.2	
665.06	10077	
665.25	10813	
665.43	10002	
665.62	10051	
665.8	10884	
665.99	10368	
666.18	9157.2	
666.36	9191.3	
666.55	10872	
666.74	10737	
666.92	8803.5	
667.11	10066	
667.29	10341	
667.48	10785	
667.67	9770.9	
667.85	8955.8	
668.04	10356	
668.22	10299	
668.41	9179	
668.6	9259.5	
668.78	10161	
668.97	10307	
669.15	9370.8	
669.34	8488.8	
669.53	10204	
669.71	10513	
669.9	8726.4	
670.08	9233.6	
670.27	10064	
670.46	10501	
670.64	9323.7	
670.83	9712.2	
671.01	9995.5	
671.2	10461	
671.38	8771.5	
671.57	8668.4	
671.76	11087	
671.94	11592	
672.13	8651.3	
672.31	9447.3	
672.5	10798	
672.69	10176	
672.87	8698.4	
673.06	9017.9	
673.24	10602	
673.43	10060	
673.61	9243.8	
673.8	8909.3	
673.98	10660	
674.17	10834	
674.36	9413.8	
674.54	9224.7	
674.73	10451	
674.91	10644	
675.1	9032.9	
675.28	8721.6	
675.47	10301	
675.65	10803	
675.84	9024	
676.03	9202.9	
676.21	10096	
676.4	9693	
676.58	9574.3	
676.77	9413.8	
676.95	11233	
677.14	10032	
677.32	8657.4	
677.51	8479.3	
677.69	10729	
677.88	9847.3	
678.06	8551.6	
678.25	8660.9	
678.44	10283	
678.62	9996.1	
678.81	8467.7	
678.99	9117.6	
679.18	10974	
679.36	10559	
679.55	8847.9	
679.73	9343.5	
679.92	10498	
680.1	10040	
680.29	9868.5	
680.47	8758.5	
680.66	10052	
680.84	10672	
681.03	8324.3	
681.21	9202.2	
681.4	10043	
681.58	9869.2	
681.77	8615.1	
681.95	8606.9	
682.14	10819	
682.32	10883	
682.51	9242.5	
682.69	8217.1	
682.88	9818.6	
683.06	10223	
683.25	9011.1	
683.43	9415.9	
683.62	10106	
683.8	10549	
683.99	9478.7	
684.17	8785.1	
684.36	11153	
684.54	9880.8	
684.73	8023.3	
684.91	8103.1	
685.1	9894.4	
685.28	9252	
685.46	8258.8	
685.65	8195.3	
685.83	9665	
686.02	9196.1	
686.2	7739.3	
686.39	7875.8	
686.57	9012.4	
686.76	10421	
686.94	7961.8	
687.13	8097	
687.31	9746.3	
687.5	9503.9	
687.68	7608.9	
687.86	8645.8	
688.05	10904	
688.23	9124.4	
688.42	8761.9	
688.6	8107.2	
688.79	9397.4	
688.97	9476	
689.16	8507.9	
689.34	7662.1	
689.52	10073	
689.71	10247	
689.89	8691.6	
690.08	8107.9	
690.26	9744.2	
690.45	9706.7	
690.63	8841.1	
690.81	8224.6	
691	9475.3	
691.18	9335.3	
691.37	8327.7	
691.55	10042	
691.74	9204.9	
691.92	10923	
692.1	8110.6	
692.29	7729	
692.47	9431.6	
692.66	8854.7	
692.84	7948.2	
693.02	8357.1	
693.21	9039.7	
693.39	9502.6	
693.58	8497.7	
693.76	8060.8	
693.94	10451	
694.13	10372	
694.31	8118.1	
694.5	9090.9	
694.68	9435.7	
694.86	9833.7	
695.05	8573.5	
695.23	8691.6	
695.42	10209	
695.6	12091	
695.78	9116.2	
695.97	8310	
696.15	10232	
696.34	9655.5	
696.52	8087.4	
696.7	8680	
696.89	9934	
697.07	9339.4	
697.25	8555	
697.44	9791.3	
697.62	9810.5	
697.81	9990	
697.99	8220.5	
698.17	8688.2	
698.36	9120.3	
698.54	9708.7	
698.72	8600.1	
698.91	7707.2	
699.09	9396.8	
699.28	9270.5	
699.46	8184.4	
699.64	8099.7	
699.83	9206.3	
700.01	10012	
700.19	8770.8	
700.38	7532.4	
700.56	10142	
700.74	9379.7	
700.93	7855.3	
701.11	8566	
701.29	9774.3	
701.48	10712	
701.66	8103.1	
701.84	8198	
702.03	9611.1	
702.21	10135	
702.39	7774.1	
702.58	8357.1	
702.76	9936.7	
702.94	9972.2	
703.13	7795.3	
703.31	9833.7	
703.49	9295.7	
703.68	10133	
703.86	7897	
704.04	8839	
704.23	9718.3	
704.41	10033	
704.59	8058.1	
704.78	9097.8	
704.96	10695	
705.14	10020	
705.33	7965.2	
705.51	8542.1	
705.69	9465	
705.87	10189	
706.06	8847.9	
706.24	7791.2	
706.42	9813.9	
706.61	10013	
706.79	8817.2	
706.97	7897	
707.16	9390.6	
707.34	9772.9	
707.52	8767.4	
707.7	7977.5	
707.89	9366.7	
708.07	9179	
708.25	8761.9	
708.44	8937.3	
708.62	9361.9	
708.8	10215	
708.98	8954.4	
709.17	8165.9	
709.35	9717.6	
709.53	9659.6	
709.72	7788.4	
709.9	8197.3	
710.08	9904	
710.26	9916.9	
710.45	9101.2	
710.63	8140.7	
710.81	9534	
710.99	9566.1	
711.18	8453.3	
711.36	8014.4	
711.54	9350.3	
711.72	9951.8	
711.91	8060.8	
712.09	7574.8	
712.27	9356.5	
712.45	9834.3	
712.64	8107.2	
712.82	7195.2	
713	8745.5	
713.18	8895	
713.37	7247.1	
713.55	8174.1	
713.73	9519.6	
713.91	8111.3	
714.1	7248.4	
714.28	6726.2	
714.46	8643.8	
714.64	7918.8	
714.83	6008.1	
715.01	6507.1	
715.19	7761.1	
715.37	7166.5	
715.55	6097.5	
715.74	6357.6	
715.92	8348.9	
716.1	6750.8	
716.28	7320.8	
716.47	6410.8	
716.65	7330.4	
716.83	7241.6	
717.01	6272.9	
717.19	6350.1	
717.38	8998.1	
717.56	7043	
717.74	6412.2	
717.92	5773.2	
718.1	8053.3	
718.29	7514	
718.47	5636.7	
718.65	6176.7	
718.83	8264.9	
719.01	8287.4	
719.2	5859.9	
719.38	6748.7	
719.56	8136.6	
719.74	9456.2	
719.92	6402	
720.11	7170.6	
720.29	8154.3	
720.47	7374.7	
720.65	5902.2	
720.83	6421.7	
721.02	7382.2	
721.2	7159	
721.38	6386.2	
721.56	5726.8	
721.74	6729.6	
721.92	6855.9	
722.11	6688.7	
722.29	6464.1	
722.47	7893.6	
722.65	7189.7	
722.83	5787.6	
723.01	6493.4	
723.2	7216.4	
723.38	7484.6	
723.56	5225.7	
723.74	6233.3	
723.92	6845.7	
724.1	7729	
724.29	5669.5	
724.47	6664.8	
724.65	6918.7	
724.83	6782.2	
725.01	5591	
725.19	6205.3	
725.37	6827.9	
725.56	6800.6	
725.74	5463.3	
725.92	5606	
726.1	6851.8	
726.28	7059.3	
726.46	5945.9	
726.64	5655.1	
726.83	7052.5	
727.01	7128.3	
727.19	5380	
727.37	6134.3	
727.55	7114.6	
727.73	7587	
727.91	5380.7	
728.09	5195.7	
728.28	7549.5	
728.46	7808.9	
728.64	6184.9	
728.82	6139.8	
729	8492.9	
729.18	7980.9	
729.36	5575.9	
729.54	7504.4	
729.72	8893	
729.91	7434.1	
730.09	7275.8	
730.27	6291.4	
730.45	7384.3	
730.63	7925.6	
730.81	6700.3	
730.99	6016.9	
731.17	8483.4	
731.35	7270.3	
731.53	6477.7	
731.71	6171.2	
731.9	8147.5	
732.08	8229.4	
732.26	6266.1	
732.44	5960.3	
732.62	8328.4	
732.8	7910.6	
732.98	6587	
733.16	5807.4	
733.34	7817.1	
733.52	6762.4	
733.7	6236.1	
733.88	6394.4	
734.07	7601.4	
734.25	7537.2	
734.43	5784.8	
734.61	7107.1	
734.79	8779.6	
734.97	7373.4	
735.15	5924.8	
735.33	6179.4	
735.51	7624.6	
735.69	7370	
735.87	7075.7	
736.05	6280.4	
736.23	7544	
736.41	7289.4	
736.59	6113.2	
736.77	6268.8	
736.95	7866.9	
737.13	7359.7	
737.32	5902.2	
737.5	6064	
737.68	8370.7	
737.86	7283.9	
738.04	5775.3	
738.22	7223.9	
738.4	7111.2	
738.58	7354.3	
738.76	6119.3	
738.94	5365	
739.12	7191.8	
739.3	7118.7	
739.48	6761	
739.66	6476.4	
739.84	7455.3	
740.02	7431.4	
740.2	5493.3	
740.38	5711.1	
740.56	7740	
740.74	6756.9	
740.92	6233.3	
741.1	6115.2	
741.28	7214.3	
741.46	6995.9	
741.64	5819	
741.82	6222.4	
742	7224.6	
742.18	7139.9	
742.36	5902.2	
742.54	5632.6	
742.72	7638.2	
742.9	6547.4	
743.08	6266.1	
743.26	5225.1	
743.44	7704.5	
743.62	7677.2	
743.8	6323.4	
743.98	5580	
744.16	7405.5	
744.34	7060.7	
744.52	6188.3	
744.7	6197.8	
744.88	7400.7	
745.06	6982.9	
745.24	6129.6	
745.42	6223.1	
745.6	7507.9	
745.78	7325.6	
745.96	5096	
746.14	5457.8	
746.32	8087.4	
746.5	7346.7	
746.68	5913.9	
746.86	5360.2	
747.03	7707.2	
747.21	6336.4	
747.39	5760.3	
747.57	5362.9	
747.75	7047.7	
747.93	7266.9	
748.11	5326.8	
748.29	5243.5	
748.47	8331.1	
748.65	6771.9	
748.83	5874.9	
749.01	5677.7	
749.19	7101.7	
749.37	6410.8	
749.55	5556.1	
749.73	5616.2	
749.91	6812.9	
750.09	6643.6	
750.26	5636	
750.44	5141.1	
750.62	6871.6	
750.8	6751.5	
750.98	5005.2	
751.16	5354.1	
751.34	6927.6	
751.52	6330.3	
751.7	5913.2	
751.88	4937	
752.06	7344	
752.24	7017	
752.42	4983.4	
752.59	5227.8	
752.77	6668.2	
752.95	7830.7	
753.13	5847	
753.31	5300.8	
753.49	6460	
753.67	6759	
753.85	5511.8	
754.03	5125.4	
754.21	6938.5	
754.38	7298.3	
754.56	5180.7	
754.74	4390.8	
754.92	6191	
755.1	6645	
755.28	4262.5	
755.46	4354	
755.64	7295.5	
755.82	7262.1	
755.99	4228.4	
756.17	4279.6	
756.35	4987.5	
756.53	6220.4	
756.71	3237.2	
756.89	3977.2	
757.07	5793.7	
757.25	5146.5	
757.42	4468	
757.6	5243.5	
757.78	5984.8	
757.96	5113.1	
758.14	4305.5	
758.32	3959.4	
758.5	4839.4	
758.67	5569.8	
758.85	4098	
759.03	4204.5	
759.21	5668.8	
759.39	5141.8	
759.57	3835.8	
759.75	4771.1	
759.92	6242.9	
760.1	5644.9	
760.28	5060.5	
760.46	5279.7	
760.64	5535	
760.82	5367.7	
760.99	4960.2	
761.17	4317.8	
761.35	6186.2	
761.53	5357.5	
761.71	4491.9	
761.89	5007.3	
762.06	6191.7	
762.24	5774.6	
762.42	4661.9	
762.6	4384	
762.78	5719.3	
762.96	6279.8	
763.13	4900.1	
763.31	4659.1	
763.49	6457.2	
763.67	5778	
763.85	5370.5	
764.02	5804.6	
764.2	6694.8	
764.38	5973.2	
764.56	4517.8	
764.74	5267.4	
764.91	6709.8	
765.09	5814.2	
765.27	4259.1	
765.45	4133.5	
765.63	6758.3	
765.8	6614.3	
765.98	3924.6	
766.16	4163.5	
766.34	5390.3	
766.52	5251.7	
766.69	4847.5	
766.87	3988.1	
767.05	5769.8	
767.23	6423.8	
767.41	4220.9	
767.58	4415.4	
767.76	6236.7	
767.94	6187.6	
768.12	4216.8	
768.29	4863.9	
768.47	5664	
768.65	6311.2	
768.83	4003.8	
769	4909.7	
769.18	5389.6	
769.36	5909.1	
769.54	4813.4	
769.72	3962.1	
769.89	6139.8	
770.07	6219.7	
770.25	4246.1	
770.43	5268.1	
770.6	6777.4	
770.78	7073	
770.96	4416.8	
771.14	4784.1	
771.31	6083.8	
771.49	5543.2	
771.67	3639.9	
771.85	3794.9	
772.02	4877.6	
772.2	5532.9	
772.38	4457.1	
772.55	4052.9	
772.73	5705	
772.91	5532.9	
773.09	4314.4	
773.26	4353.3	
773.44	5674.2	
773.62	5357.5	
773.8	3874.8	
773.97	3648.1	
774.15	5760.9	
774.33	5358.2	
774.5	3762.1	
774.68	4075.5	
774.86	5794.4	
775.04	5357.5	
775.21	3915	
775.39	3798.3	
775.57	5560.9	
775.74	5827.2	
775.92	3634.5	
776.1	3621.5	
776.27	5539.1	
776.45	6623.1	
776.63	3794.2	
776.81	3465.2	
776.98	5173.9	
777.16	6071.5	
777.34	3846.8	
777.51	4154.6	
777.69	5281	
777.87	5099.4	
778.04	3945.1	
778.22	4481.6	
778.4	5061.9	
778.57	5538.4	
778.75	3284.3	
778.93	3556.6	
779.1	4893.3	
779.28	4724.7	
779.46	3272	
779.64	3674.1	
779.81	5792.3	
779.99	6435.4	
780.17	4411.3	
780.34	4455	
780.52	5270.1	
780.69	5416.2	
780.87	4003.8	
781.05	3573	
781.22	5300.8	
781.4	5367	
781.58	3677.5	
781.75	3014.6	
781.93	5254.4	
782.11	4687.8	
782.28	4427.7	
782.46	3643.3	
782.64	4646.2	
782.81	5403.9	
782.99	3749.1	
783.17	3684.3	
783.34	5317.2	
783.52	4803.2	
783.69	3889.8	
783.87	4506.2	
784.05	4777.2	
784.22	4763.6	
784.4	4558.1	
784.58	3971.7	
784.75	5535	
784.93	4868	
785.1	3701.4	
785.28	4179.9	
785.46	5284.4	
785.63	4734.2	
785.81	3637.2	
785.99	3523.2	
786.16	4932.2	
786.34	5250.3	
786.51	3560.1	
786.69	3872	
786.87	4539.7	
787.04	5061.9	
787.22	3450.1	
787.39	4225.6	
787.57	4770.4	
787.75	5594.4	
787.92	4360.1	
788.1	4323.9	
788.27	4768.4	
788.45	4512.4	
788.63	4047.5	
788.8	3028.3	
788.98	5073.5	
789.15	4421.6	
789.33	3167.5	
789.5	3689.8	
789.68	5499.5	
789.86	5584.8	
790.03	3968.3	
790.21	3506.1	
790.38	5476.3	
790.56	4838.7	
790.73	3437.9	
790.91	3438.5	
791.09	4747.9	
791.26	5347.2	
791.44	3670	
791.61	3152.5	
791.79	4696.7	
791.96	4781.3	
792.14	3252.2	
792.32	2897.2	
792.49	4797.7	
792.67	4842.1	
792.84	3346.4	
793.02	3174.4	
793.19	5102.2	
793.37	5705.6	
793.54	2952.5	
793.72	3229	
793.89	5748	
794.07	4680.3	
794.25	3661.8	
794.42	3002.3	
794.6	5669.5	
794.77	5309.7	
794.95	3910.9	
795.12	3480.2	
795.3	4741	
795.47	5266.7	
795.65	3838.6	
795.82	3685	
796	4558.1	
796.17	6120	
796.35	3565.5	
796.52	4134.2	
796.7	5119.9	
796.87	5271.5	
797.05	3499.3	
797.22	4267.3	
797.4	5265.3	
797.57	5954.8	
797.75	3659.7	
797.92	3462.4	
798.1	5486.5	
798.27	4582	
798.45	3040.6	
798.62	3182.5	
798.8	4954.7	
798.97	5300.8	
799.15	3841.3	
799.32	3713.6	
799.5	4343.7	
799.67	4986.1	
799.85	3943.7	
800.02	2917.7	
800.2	4658.4	
800.37	4937.7	
800.55	4053.6	
800.72	3411.9	
800.9	5282.4	
801.07	5684.5	
801.25	4539.7	
801.42	3767.6	
801.6	5381.4	
801.77	5040.1	
801.95	3523.9	
802.12	3330	
802.29	5090.6	
802.47	5014.1	
802.64	3781.2	
802.82	2911.5	
802.99	4664.6	
803.17	5501.5	
803.34	3667.9	
803.52	3311.6	
803.69	5986.2	
803.87	4442	
804.04	3598.3	
804.21	3674.7	
804.39	5580	
804.56	4816.1	
804.74	3082.9	
804.91	3777.1	
805.09	4672.1	
805.26	4756.7	
805.44	3207.8	
805.61	3448.1	
805.78	5266.7	
805.96	5264.6	
806.13	3766.9	
806.31	3977.8	
806.48	4291.9	
806.66	4764.9	
806.83	3802.4	
807	3648.1	
807.18	4649.6	
807.35	4995.7	
807.53	3653.6	
807.7	3017.3	
807.87	5658.5	
808.05	4726	
808.22	4007.9	
808.4	2947	
808.57	4620.2	
808.74	4295.3	
808.92	3336.1	
809.09	4177.2	
809.27	4581.3	
809.44	5049.6	
809.61	2944.3	
809.79	3261	
809.96	5650.3	
810.14	5277.6	
810.31	2919.7	
810.48	3482.9	
810.66	4744.5	
810.83	5321.3	
811.01	3360.7	
811.18	3673.4	
811.35	5284.4	
811.53	4199	
811.7	3966.2	
811.87	3741	
812.05	4699.4	
812.22	4626.4	
812.39	3235.1	
812.57	3127.9	
812.74	4672.8	
812.92	5980.8	
813.09	3536.8	
813.26	3751.9	
813.44	5854.5	
813.61	4600.4	
813.78	2921.8	
813.96	3942.3	
814.13	4707.6	
814.3	4429.1	
814.48	4191.5	
814.65	3481.5	
814.82	5621.7	
815	4425.7	
815.17	3627.6	
815.34	4297.3	
815.52	4583.4	
815.69	4597	
815.87	3522.5	
816.04	3499.3	
816.21	4659.1	
816.38	4192.2	
816.56	3476.8	
816.73	3252.2	
816.9	5798.5	
817.08	5285.8	
817.25	3280.2	
817.42	4085	
817.6	4315.8	
817.77	4622.3	
817.94	3623.5	
818.12	3209.2	
818.29	4505.5	
818.46	6656.6	
818.64	3396.2	
818.81	3099.9	
818.98	4388.1	
819.16	6167.8	
819.33	3850.2	
819.5	3584.6	
819.67	4961.5	
819.85	5522.7	
820.02	3513.6	
820.19	3696.6	
820.37	4890.5	
820.54	4564.9	
820.71	3616.7	
820.88	4464.6	
821.06	4902.8	
821.23	4502.8	
821.4	3627.6	
821.58	3650.8	
821.75	5270.8	
821.92	4780.6	
822.09	2932	
822.27	3217.4	
822.44	4693.9	
822.61	4597.7	
822.79	2996.9	
822.96	5472.2	
823.13	4996.4	
823.3	4387.4	
823.48	3403.7	
823.65	3100.6	
823.82	5308.3	
823.99	4290.5	
824.17	4257.7	
824.34	3107.5	
824.51	6006	
824.68	4722.6	
824.86	3279.5	
825.03	3603.7	
825.2	4682.3	
825.37	5534.3	
825.55	3235.8	
825.72	3538.2	
825.89	6091.3	
826.06	5597.1	
826.24	3505.4	
826.41	3547.8	
826.58	5612.1	
826.75	4926.7	
826.92	2829.6	
827.1	3142.3	
827.27	7450.5	
827.44	5905.7	
827.61	3371	
827.79	3934.1	
827.96	4434.5	
828.13	4738.3	
828.3	3476.8	
828.47	3005.1	
828.65	4943.8	
828.82	4872.1	
828.99	4347.2	
829.16	3850.9	
829.34	5229.8	
829.51	4985.4	
829.68	3527.3	
829.85	3656.3	
830.02	5513.8	
830.2	5212.1	
830.37	2784.6	
830.54	4258.4	
830.71	5872.9	
830.88	4765.6	
831.05	2873.3	
831.23	3323.9	
831.4	5696.1	
831.57	6236.1	
831.74	3338.2	
831.91	2957.3	
832.09	4972.5	
832.26	5193.6	
832.43	3398.3	
832.6	3815.4	
832.77	4880.3	
832.94	5570.5	
833.12	2716.3	
833.29	3325.2	
833.46	4526.7	
833.63	6455.9	
833.8	3692.5	
833.97	3405.1	
834.15	5268.7	
834.32	5021.6	
834.49	3531.4	
834.66	3653.6	
834.83	5384.8	
835	4491.9	
835.17	3302.7	
835.35	3290.4	
835.52	5143.8	
835.69	5047.6	
835.86	3573	
836.03	2935.4	
836.2	5180	
836.37	4846.9	
836.55	3388	
836.72	3244.7	
836.89	4867.3	
837.06	5267.4	
837.23	3552.5	
837.4	3758.7	
837.57	5892.7	
837.75	6460.7	
837.92	3155.9	
838.09	3334.1	
838.26	4872.8	
838.43	5402.5	
838.6	3594.2	
838.77	3198.2	
838.94	6079.1	
839.11	5884.5	
839.29	3477.5	
839.46	2716.3	
839.63	5209.3	
839.8	4920.6	
839.97	3373.7	
840.14	3297.9	
840.31	5060.5	
840.48	5305.6	
840.65	2833	
840.82	3300	
841	5240.8	
841.17	5096	
841.34	3093.1	
841.51	3083.6	
841.68	5108.3	
841.85	4868	
842.02	3183.2	
842.19	2690.3	
842.36	5063.3	
842.53	5027.1	
842.7	3080.1	
842.87	3735.5	
843.05	6353.5	
843.22	4917.2	
843.39	2910.2	
843.56	3169.6	
843.73	4788.2	
843.9	5236	
844.07	4868.7	
844.24	4016.1	
844.41	7284.6	
844.58	4582.7	
844.75	2991.4	
844.92	3222.1	
845.09	5183.4	
845.26	5125.4	
845.43	3073.3	
845.6	3224.2	
845.77	5147.2	
845.94	5016.2	
846.12	3321.1	
846.29	3558.7	
846.46	5377.3	
846.63	5207.3	
846.8	3085.6	
846.97	3576.4	
847.14	5589.6	
847.31	5164.3	
847.48	3440.6	
847.65	3784.6	
847.82	5391.6	
847.99	5391.6	
848.16	4048.2	
848.33	3682.2	
848.5	4821.6	
848.67	5550.7	
848.84	3039.9	
849.01	3127.2	
849.18	4734.2	
849.35	4474.8	
849.52	3756.7	
849.69	3005.1	
849.86	5387.5	
850.03	5554.8	
850.2	3073.3	
850.37	3647.4	
850.54	5457.8	
850.71	4909.7	
850.88	3700	
851.05	3007.8	
851.22	5061.2	
851.39	5582.8	
851.56	2850.8	
851.73	3440.6	
851.9	4606.6	
852.07	5382.7	
852.24	3345.7	
852.41	3036.5	
852.58	5083.1	
852.75	4669.4	
852.92	3423.5	
853.09	2968.9	
853.26	4801.1	
853.43	5556.8	
853.6	3047.4	
853.77	2664.4	
853.94	5625.1	
854.11	4541	
854.28	4434.5	
854.44	3312.2	
854.61	5997.1	
854.78	5457.2	
854.95	3027.6	
855.12	3738.2	
855.29	4250.2	
855.46	5638.7	
855.63	3029.6	
855.8	4117.8	
855.97	4758.1	
856.14	5499.5	
856.31	4212	
856.48	3321.8	
856.65	4827.1	
856.82	4557.4	
856.99	2916.3	
857.16	3239.2	
857.33	6168.5	
857.49	4891.9	
857.66	3219.4	
857.83	3524.6	
858	4881.7	
858.17	5072.1	
858.34	2904	
858.51	3029.6	
858.68	5719.3	
858.85	5692.7	
859.02	3510.2	
859.19	3693.9	
859.36	4558.8	
859.52	4534.9	
859.69	3104.7	
859.86	3587.4	
860.03	4609.3	
860.2	5685.2	
860.37	2777.7	
860.54	3114.3	
860.71	5299.5	
860.88	5651.7	
861.05	3362.1	
861.21	3801	
861.38	5693.4	
861.55	4454.3	
861.72	2801.6	
861.89	3418.7	
862.06	5394.3	
862.23	5819	
862.4	2940.2	
862.56	3173.7	
862.73	5253.7	
862.9	5008	
863.07	3489.1	
863.24	2792.7	
863.41	4524	
863.58	4562.2	
863.75	3115.6	
863.91	3471.3	
864.08	5602.6	
864.25	5305.6	
864.42	3725.3	
864.59	4218.1	
864.76	5930.9	
864.93	4657.8	
865.09	2965.5	
865.26	3257.6	
865.43	5589.6	
865.6	5915.9	
865.77	2654.9	
865.94	2962.7	
866.1	5593.7	
866.27	5392.3	
866.44	4546.5	
866.61	2863.1	
866.78	4877.6	
866.95	5317.9	
867.11	2952.5	
867.28	2708.1	
867.45	5507.7	
867.62	4650.3	
867.79	3454.2	
867.96	3020.1	
868.12	4596.3	
868.29	5296.7	
868.46	2678.1	
868.63	3965.6	
868.8	5525.4	
868.97	5316.5	
869.13	3187.3	
869.3	3155.9	
869.47	5223	
869.64	5454.4	
869.81	3037.8	
869.97	3060.3	
870.14	5101.5	
870.31	5734.3	
870.48	3012.6	
870.65	3824.9	
870.81	4851	
870.98	4887.8	
871.15	3448.8	
871.32	3159.3	
871.48	5189.6	
871.65	5758.9	
871.82	2995.5	
871.99	3312.9	
872.16	6062.7	
872.32	5522.7	
872.49	3079.5	
872.66	3108.8	
872.83	5373.9	
872.99	4793.6	
873.16	3471.3	
873.33	3042.6	
873.5	5031.2	
873.67	5070.1	
873.83	3221.5	
874	3969.6	
874.17	5171.8	
874.34	5944.6	
874.5	3881.6	
874.67	3757.3	
874.84	5610.1	
875.01	4524	
875.17	4190.1	
875.34	3021.4	
875.51	5081.7	
875.68	6057.9	
875.84	3670.6	
876.01	4386.1	
876.18	5303.6	
876.34	5223	
876.51	3065.8	
876.68	2981.2	
876.85	4869.4	
877.01	5530.2	
877.18	4246.8	
877.35	2996.2	
877.52	5074.2	
877.68	4547.2	
877.85	2992.8	
878.02	3019.4	
878.18	4892.6	
878.35	4752	
878.52	2439.1	
878.69	3375.7	
878.85	5354.8	
879.02	5315.8	
879.19	4326	
879.35	3278.8	
879.52	5287.2	
879.69	5474.2	
879.86	2649.4	
880.02	3312.9	
880.19	4937	
880.36	6002.6	
880.52	3463.8	
880.69	3540.9	
880.86	5427.8	
881.02	5435.3	
881.19	3312.9	
881.36	3291.1	
881.52	5297.4	
881.69	4777.9	
881.86	3287	
882.02	3137.5	
882.19	5549.3	
882.36	6366.5	
882.52	3102	
882.69	4178.5	
882.86	5134.3	
883.02	5087.2	
883.19	3687	
883.36	3457.7	
883.52	5388.9	
883.69	6082.5	
883.86	3121.1	
884.02	2841.9	
884.19	5358.2	
884.36	5024.3	
884.52	3403.7	
884.69	3252.9	
884.86	4783.4	
885.02	5875.6	
885.19	3364.1	
885.36	3463.8	
885.52	4945.8	
885.69	5160.2	
885.86	4330.1	
886.02	3848.8	
886.19	5369.8	
886.35	4888.5	
886.52	3336.1	
886.69	4176.5	
886.85	4552.6	
887.02	5645.6	
887.19	5645.6	
887.35	5645.6	
887.52	5645.6	
887.68	5645.6	
887.85	5645.6	
888.02	5645.6	
888.18	5645.6	
888.35	5645.6	
888.51	5645.6	
888.68	5645.6	
888.85	5645.6	
889.01	5645.6	
889.18	5645.6	
889.35	5645.6	
889.51	5645.6	
889.68	5645.6	
889.84	5645.6	
890.01	5645.6	
890.17	5645.6	
890.34	5645.6	
890.51	5645.6	
890.67	5645.6	
890.84	5645.6	
891	5645.6	
891.17	5645.6	
891.34	5645.6	
891.5	5645.6	
891.67	5645.6	
891.83	5645.6	
892	5645.6	
892.16	5645.6	
892.33	5645.6	
892.5	5645.6	
892.66	5645.6	
892.83	5645.6	
892.99	5645.6	
893.16	5645.6	
893.32	5645.6	
893.49	5645.6	
893.65	5645.6	
893.82	5645.6	
893.99	5645.6	
894.15	5645.6	
894.32	5645.6	
894.48	5645.6	
894.65	5645.6	
894.81	5645.6	
894.98	5645.6	
895.14	5645.6	
895.31	5645.6	
895.47	5645.6	
895.64	5645.6	
895.81	5645.6	
895.97	5645.6	
896.14	5645.6	
896.3	5645.6	
896.47	5645.6	
896.63	5645.6	
896.8	5645.6	
896.96	5645.6	
897.13	5645.6	
897.29	5645.6	
897.46	5645.6	
897.62	5645.6	
897.79	5645.6	
897.95	5645.6	
898.12	5645.6	
898.28	5645.6	
898.45	5645.6	
898.61	5645.6	
898.78	5645.6	
898.94	5645.6	
899.11	5645.6	
899.27	5645.6	
899.44	5645.6	
899.6	5645.6	
899.77	5645.6	
899.93	5645.6	
900.1	5645.6	
900.26	5645.6	
900.43	5645.6	
900.59	5645.6	
900.76	5645.6	
900.92	5645.6	
901.09	5645.6	
901.25	5645.6	
901.42	5645.6	
901.58	5645.6	
901.75	5645.6	
901.91	5645.6	
902.07	5645.6	
902.24	5645.6	
902.4	5645.6	
902.57	5645.6	
902.73	5645.6	
902.9	5645.6	
903.06	5645.6	
903.23	5645.6	
903.39	5645.6	
903.56	5645.6	
903.72	5645.6	
903.88	5645.6	
904.05	5645.6	
904.21	5645.6	
904.38	5645.6	
904.54	5645.6	
904.71	5645.6	
904.87	5645.6	
905.03	5645.6	
905.2	5645.6	
905.36	5645.6	
905.53	5645.6	
905.69	5645.6	
905.86	5645.6	
906.02	5645.6	
906.18	5645.6	
906.35	5645.6	
906.51	5645.6	
906.68	5645.6	
906.84	5645.6	
907.01	5645.6	
907.17	5645.6	
907.33	5645.6	
907.5	5645.6	
907.66	5645.6	
907.83	5645.6	
907.99	5645.6	
908.15	5645.6	
908.32	5645.6	
908.48	5645.6	
908.65	5645.6	
908.81	5645.6	
908.97	5645.6	
909.14	5645.6	
909.3	5645.6	
909.47	5645.6	
909.63	5645.6	
909.79	5645.6	
909.96	5645.6	
910.12	5645.6	
910.28	5645.6	
910.45	5645.6	
910.61	5645.6	
910.78	5645.6	
910.94	5645.6	
911.1	5645.6	
911.27	5645.6	
911.43	5645.6	
911.59	5645.6	
911.76	5645.6	
911.92	5645.6	
912.08	5645.6	
912.25	5645.6	
912.41	5645.6	
912.57	5645.6	
912.74	5645.6	
912.9	5645.6	
913.07	5645.6	
913.23	5645.6	
913.39	5645.6	
913.56	5645.6	
913.72	5645.6	
913.88	5645.6	
914.05	5645.6	
914.21	5645.6	
914.37	5645.6	
914.54	5645.6	
914.7	5645.6	
914.86	5645.6	
915.03	5645.6	
915.19	5645.6	
