Wavelength	Intensities	
nm	a.u.	
179.22	1910.4	
179.44	1907.3	
179.65	1913.5	
179.86	1901.2	
180.08	1933.3	
180.29	4888.5	
180.51	3503.4	
180.72	5659.2	
180.94	6677.7	
181.15	3276.1	
181.37	3250.1	
181.58	5479	
181.79	5797.8	
182.01	3401	
182.22	3647.4	
182.44	5803.9	
182.65	4863.9	
182.87	4627	
183.08	4005.8	
183.29	6085.2	
183.51	5038.7	
183.72	3633.8	
183.94	5330.2	
184.15	5365	
184.37	5496.7	
184.58	3231.7	
184.79	4427.7	
185.01	5045.5	
185.22	5754.1	
185.44	4761.5	
185.65	3939.6	
185.86	5315.8	
186.08	4883	
186.29	3131.3	
186.51	3375.1	
186.72	5071.5	
186.94	5909.8	
187.15	3902.1	
187.36	4087.7	
187.58	7822.6	
187.79	5557.5	
188.01	4205.8	
188.22	6610.2	
188.43	6657.3	
188.65	5800.5	
188.86	3368.2	
189.08	4032.5	
189.29	5240.1	
189.5	5171.1	
189.72	3781.2	
189.93	3852.9	
190.15	6010.8	
190.36	7159	
190.57	4158.1	
190.79	3985.3	
191	6142.5	
191.22	6041.5	
191.43	4127.3	
191.64	3340.9	
191.86	6243.6	
192.07	5950	
192.29	3530.7	
192.5	3788.1	
192.71	5987.6	
192.93	5104.9	
193.14	3727.3	
193.35	3777.8	
193.57	5247.6	
193.78	5973.2	
194	3009.8	
194.21	3605.8	
194.42	4957.4	
194.64	5395.7	
194.85	4019.5	
195.07	4785.4	
195.28	5516.5	
195.49	4721.3	
195.71	5038	
195.92	3446.7	
196.13	5625.1	
196.35	5756.2	
196.56	5323.4	
196.78	4019.5	
196.99	7090.1	
197.2	6668.2	
197.42	4621.6	
197.63	4141.7	
197.84	4879.6	
198.06	5653.1	
198.27	3731.4	
198.48	5040.7	
198.7	5194.3	
198.91	5287.2	
199.13	4034.5	
199.34	4132.8	
199.55	5836	
199.77	4730.1	
199.98	3601.7	
200.19	4122.6	
200.41	5236.7	
200.62	5046.9	
200.83	4261.8	
201.05	4604.5	
201.26	5296	
201.47	5063.9	
201.69	3607.2	
201.9	3521.1	
202.11	5396.4	
202.33	6429.3	
202.54	3879.5	
202.76	4301.4	
202.97	5519.3	
203.18	5540.4	
203.4	4197	
203.61	4157.4	
203.82	5431.2	
204.04	5129.5	
204.25	4118.5	
204.46	4036.5	
204.68	5420.3	
204.89	5601.9	
205.1	4019.5	
205.32	3452.2	
205.53	5803.3	
205.74	6003.3	
205.96	2917.7	
206.17	4185.4	
206.38	5739.8	
206.6	5973.9	
206.81	4643.4	
207.02	3834.5	
207.24	5656.5	
207.45	6115.2	
207.66	3833.8	
207.88	3303.4	
208.09	5666	
208.3	5482.4	
208.52	3577.1	
208.73	3881.6	
208.94	5452.4	
209.15	6209.4	
209.37	3941	
209.58	4098.7	
209.79	5969.8	
210.01	5223	
210.22	3108.1	
210.43	3302.7	
210.65	5446.2	
210.86	5817.6	
211.07	3940.3	
211.29	3536.2	
211.5	5830.6	
211.71	5418.9	
211.93	3562.8	
212.14	3558	
212.35	5390.9	
212.56	5639.4	
212.78	4083	
212.99	3384.6	
213.2	6428.6	
213.42	5214.1	
213.63	3665.9	
213.84	3969	
214.06	4782.7	
214.27	4926	
214.48	3893.2	
214.69	4157.4	
214.91	6130.3	
215.12	6147.3	
215.33	4248.2	
215.55	4707.6	
215.76	6707.1	
215.97	5730.9	
216.18	4025.6	
216.4	3893.9	
216.61	5100.1	
216.82	5900.9	
217.04	3633.1	
217.25	3739.6	
217.46	6182.1	
217.67	5815.5	
217.89	3192.8	
218.1	3300	
218.31	5526.1	
218.53	5624.4	
218.74	3763.5	
218.95	3668.6	
219.16	5353.4	
219.38	6321.4	
219.59	3623.5	
219.8	4340.3	
220.01	7018.4	
220.23	5470.1	
220.44	4786.8	
220.65	3571.7	
220.87	5522	
221.08	6101.6	
221.29	3295.2	
221.5	4479.6	
221.72	7437.5	
221.93	5119.2	
222.14	4150.5	
222.35	4868	
222.57	5478.3	
222.78	5825.8	
222.99	3889.8	
223.2	4224.3	
223.42	5726.1	
223.63	5893.4	
223.84	3038.5	
224.05	2996.2	
224.27	6956.3	
224.48	6311.2	
224.69	4815.5	
224.9	4083.6	
225.12	5707	
225.33	5403.2	
225.54	3293.8	
225.75	3657.7	
225.97	5000.5	
226.18	5367.7	
226.39	3976.5	
226.6	3670	
226.82	5224.4	
227.03	5014.1	
227.24	4093.9	
227.45	3411.9	
227.67	5787.6	
227.88	6358.9	
228.09	4485.1	
228.3	4635.9	
228.52	5889.3	
228.73	5358.2	
228.94	3747.8	
229.15	3337.5	
229.36	5347.9	
229.58	5236.7	
229.79	3752.6	
230	4392.2	
230.21	6554.9	
230.43	5539.1	
230.64	4091.8	
230.85	4262.5	
231.06	5933	
231.28	5784.1	
231.49	3357.3	
231.7	3984	
231.91	5715.2	
232.12	5438.7	
232.34	3495.2	
232.55	4006.5	
232.76	6133.7	
232.97	5633.3	
233.18	3607.2	
233.4	4018.1	
233.61	5701.5	
233.82	5147.9	
234.03	3729.4	
234.25	3685	
234.46	7571.3	
234.67	5511.8	
234.88	4169	
235.09	3644	
235.31	5737.7	
235.52	5304.2	
235.73	4085.7	
235.94	3435.1	
236.15	5077.6	
236.37	6647.7	
236.58	3583.9	
236.79	3928.7	
237	5749.3	
237.21	4956.8	
237.43	4225.6	
237.64	3310.2	
237.85	9938.1	
238.06	4979.3	
238.27	4341.7	
238.48	3417.4	
238.7	5763.7	
238.91	5259.2	
239.12	3898.6	
239.33	3945.1	
239.54	5047.6	
239.76	5320.6	
239.97	3880.9	
240.18	3885.7	
240.39	6861.4	
240.6	5668.1	
240.82	4077.5	
241.03	3334.1	
241.24	5436	
241.45	6328.2	
241.66	3607.8	
241.87	4205.2	
242.09	6152.8	
242.3	6595.8	
242.51	4261.8	
242.72	3913	
242.93	5896.8	
243.14	5400.5	
243.36	4560.1	
243.57	4877.6	
243.78	6298.9	
243.99	5885.9	
244.2	4013.3	
244.41	3555.3	
244.63	5007.3	
244.84	5725.4	
245.05	4165.6	
245.26	3953.3	
245.47	5735.7	
245.68	6025.8	
245.9	5259.9	
246.11	4104.1	
246.32	5214.1	
246.53	5743.9	
246.74	6367.1	
246.95	3272	
247.16	4892.6	
247.38	5440.1	
247.59	3259.7	
247.8	3962.8	
248.01	5135.6	
248.22	5382.1	
248.43	3504.8	
248.64	3758	
248.86	4858.5	
249.07	5150	
249.28	3431.7	
249.49	4042	
249.7	6010.1	
249.91	6188.3	
250.12	3254.2	
250.34	3310.9	
250.55	5549.3	
250.76	5410.7	
250.97	4021.5	
251.18	4098	
251.39	6154.1	
251.6	5631.9	
251.81	4176.5	
252.03	4136.9	
252.24	5160.9	
252.45	5945.3	
252.66	3377.8	
252.87	4397	
253.08	5476.3	
253.29	7185.6	
253.5	3409.2	
253.72	4747.2	
253.93	5300.8	
254.14	6460	
254.35	3745.1	
254.56	3847.5	
254.77	5698.8	
254.98	5100.1	
255.19	3702.7	
255.41	4659.8	
255.62	5581.4	
255.83	6099.5	
256.04	4218.8	
256.25	4104.8	
256.46	6535.1	
256.67	5138.4	
256.88	4081.6	
257.09	4539	
257.31	5088.5	
257.52	5134.3	
257.73	5034.6	
257.94	3721.8	
258.15	5305.6	
258.36	5462.6	
258.57	4727.4	
258.78	2981.8	
258.99	5969.1	
259.2	5258.5	
259.41	3723.2	
259.63	3805.8	
259.84	6292	
260.05	6799.3	
260.26	4970.4	
260.47	3596.9	
260.68	6004	
260.89	5341.1	
261.1	4559.5	
261.31	3596.9	
261.52	6047	
261.73	6384.2	
261.95	4852.3	
262.16	4214	
262.37	6150.7	
262.58	6226.5	
262.79	4833.2	
263	3781.9	
263.21	5527.5	
263.42	4930.8	
263.63	3842.7	
263.84	3777.8	
264.05	6007.4	
264.26	6415.6	
264.47	4670.1	
264.69	4282.3	
264.9	6161	
265.11	5642.2	
265.32	3655.6	
265.53	3717.7	
265.74	5552	
265.95	4869.4	
266.16	4014.7	
266.37	4487.1	
266.58	5614.8	
266.79	5251	
267	3629	
267.21	3397.6	
267.42	5014.8	
267.63	5451.7	
267.84	3947.8	
268.06	3356.6	
268.27	5899.5	
268.48	6159.6	
268.69	3837.2	
268.9	4595	
269.11	6154.8	
269.32	4902.8	
269.53	3922.5	
269.74	3594.9	
269.95	5802.6	
270.16	4812.7	
270.37	3943	
270.58	4587.5	
270.79	5274.2	
271	6021.7	
271.21	4260.5	
271.42	3984.7	
271.63	5589.6	
271.84	5098.1	
272.05	3121.8	
272.26	3541.6	
272.47	5452.4	
272.68	5669.5	
272.89	3759.4	
273.11	4364.2	
273.32	5248.3	
273.53	6438.8	
273.74	4291.9	
273.95	4162.2	
274.16	6124.1	
274.37	5564.3	
274.58	4289.8	
274.79	3458.3	
275	5616.9	
275.21	6191.7	
275.42	5140.4	
275.63	4432.5	
275.84	5753.4	
276.05	7213.6	
276.26	4161.5	
276.47	3849.5	
276.68	5321.3	
276.89	6457.9	
277.1	4465.9	
277.31	3450.1	
277.52	5743.2	
277.73	5865.4	
277.94	3387.3	
278.15	3846.1	
278.36	5672.2	
278.57	5106.3	
278.78	3751.9	
278.99	4263.2	
279.2	5055.8	
279.41	5046.2	
279.62	4946.5	
279.83	3464.5	
280.04	6711.2	
280.25	4958.8	
280.46	4937.7	
280.67	3928	
280.88	5036.6	
281.09	6101.6	
281.3	4169	
281.51	5257.1	
281.72	5939.1	
281.93	6023.8	
282.14	3638.6	
282.35	3936.9	
282.56	5962.3	
282.77	5921.4	
282.98	3814.7	
283.19	4644.8	
283.4	7333.1	
283.61	5337	
283.82	3393.5	
284.03	4838.7	
284.24	5548.6	
284.45	6078.4	
284.66	4835.3	
284.87	4704.2	
285.08	6098.2	
285.29	6169.8	
285.5	3362.1	
285.71	3805.1	
285.92	6049.7	
286.12	6754.2	
286.33	4842.1	
286.54	3858.4	
286.75	5872.9	
286.96	5355.4	
287.17	3493.8	
287.38	4826.4	
287.59	5143.1	
287.8	5005.2	
288.01	3869.3	
288.22	4450.2	
288.43	5965.1	
288.64	4982.7	
288.85	4579.9	
289.06	4381.3	
289.27	5875.6	
289.48	6354.2	
289.69	4930.1	
289.9	4369	
290.11	6122.7	
290.32	5120.6	
290.53	4624.3	
290.74	4374.5	
290.94	5936.4	
291.15	5961	
291.36	3713.6	
291.57	4407.9	
291.78	5212.1	
291.99	4889.9	
292.2	3510.9	
292.41	4272.7	
292.62	6025.1	
292.83	5767.1	
293.04	5293.3	
293.25	3548.4	
293.46	5238.7	
293.67	6098.9	
293.88	3713.7	
294.09	3497.2	
294.29	4977.9	
294.5	5582.8	
294.71	3977.8	
294.92	3697.9	
295.13	5262.6	
295.34	6569.2	
295.55	3325.2	
295.76	3442.6	
295.97	5851	
296.18	6719.4	
296.39	3508.9	
296.6	3750.5	
296.81	5550.7	
297.01	5896.1	
297.22	3866.6	
297.43	3661.8	
297.64	5115.1	
297.85	5084.4	
298.06	3048.1	
298.27	3320.4	
298.48	5494.7	
298.69	5147.2	
298.9	3977.2	
299.11	3592.1	
299.31	4967	
299.52	4972.5	
299.73	4252.9	
299.94	4208.6	
300.15	5423	
300.36	5044.8	
300.57	4170.3	
300.78	4182.6	
300.99	5332.2	
301.2	5569.1	
301.4	3663.8	
301.61	3968.3	
301.82	5773.9	
302.03	5895.4	
302.24	4471.4	
302.45	3495.9	
302.66	5767.1	
302.87	6206.7	
303.08	3691.1	
303.29	5063.9	
303.49	5231.2	
303.7	5522.7	
303.91	3280.8	
304.12	4828.4	
304.33	4962.2	
304.54	5558.9	
304.75	3759.4	
304.96	3472	
305.16	5790.3	
305.37	6589	
305.58	3177.1	
305.79	3327.9	
306	5847.6	
306.21	4861.2	
306.42	3554.6	
306.63	5642.2	
306.83	5335.6	
307.04	6030.6	
307.25	4042	
307.46	4045.4	
307.67	4673.5	
307.88	5918.6	
308.09	3586.7	
308.29	3790.8	
308.5	5546.6	
308.71	6087.2	
308.92	3937.6	
309.13	3557.3	
309.34	5377.3	
309.55	5374.6	
309.75	4665.3	
309.96	4188.8	
310.17	5890	
310.38	5171.1	
310.59	4429.1	
310.8	3447.4	
311.01	5261.9	
311.21	5335	
311.42	3478.1	
311.63	3643.3	
311.84	5210	
312.05	5633.3	
312.26	4103.4	
312.46	4537.6	
312.67	5294	
312.88	4989.5	
313.09	3560.7	
313.3	3472.7	
313.51	6285.2	
313.71	6683.2	
313.92	3485.6	
314.13	3740.3	
314.34	5615.5	
314.55	5412.1	
314.76	4617.5	
314.96	3971	
315.17	5530.9	
315.38	5897.5	
315.59	3583.3	
315.8	3436.5	
316.01	6342.6	
316.21	6410.8	
316.42	3459	
316.63	3951.9	
316.84	5294.7	
317.05	6199.2	
317.26	4182.6	
317.46	3771.7	
317.67	5365	
317.88	5887.9	
318.09	4556.7	
318.3	3310.2	
318.5	5185.5	
318.71	5830.6	
318.92	5767.8	
319.13	4281.6	
319.34	5957.5	
319.54	6098.2	
319.75	3287	
319.96	3170.3	
320.17	5886.5	
320.38	6068.1	
320.58	3245.3	
320.79	3932.1	
321	5994.4	
321.21	6176	
321.42	3934.8	
321.62	3213.3	
321.83	5064.6	
322.04	5475.6	
322.25	3773.7	
322.46	3558	
322.66	5582.1	
322.87	5767.8	
323.08	4472.8	
323.29	3495.9	
323.5	6605.4	
323.7	5001.1	
323.91	4918.5	
324.12	4364.2	
324.33	5563.6	
324.53	5819	
324.74	4190.8	
324.95	4456.4	
325.16	4845.5	
325.37	5277.6	
325.57	3567.6	
325.78	3599.6	
325.99	5529.5	
326.2	4893.3	
326.4	5015.5	
326.61	3295.9	
326.82	5406.6	
327.03	5606.7	
327.24	5087.2	
327.44	4891.2	
327.65	5707.7	
327.86	4645.5	
328.07	4189.5	
328.27	3436.5	
328.48	6193.7	
328.69	5040.7	
328.9	5128.8	
329.1	3824.9	
329.31	5345.2	
329.52	6331.6	
329.73	3590.8	
329.93	4049.5	
330.14	5484.5	
330.35	5709.1	
330.56	5884.5	
330.76	4435.2	
330.97	5266.7	
331.18	5608.7	
331.39	4006.5	
331.59	3149.1	
331.8	6055.8	
332.01	6172.6	
332.22	3706.8	
332.42	4237.9	
332.63	5603.2	
332.84	5126.7	
333.05	4000.4	
333.25	3628.3	
333.46	5220.3	
333.67	5418.2	
333.88	3728.7	
334.08	4211.3	
334.29	7314.7	
334.5	6115.9	
334.7	3471.3	
334.91	5165.7	
335.12	5001.1	
335.33	5896.1	
335.53	3904.8	
335.74	5894.1	
335.95	5194.3	
336.16	5077.6	
336.36	3986	
336.57	4586.1	
336.78	5002.5	
336.98	6094.8	
337.19	4923.3	
337.4	3893.9	
337.61	6582.9	
337.81	4958.8	
338.02	3640.6	
338.23	4756.1	
338.43	6252.4	
338.64	5109	
338.85	3549.8	
339.05	4721.3	
339.26	6266.1	
339.47	4859.8	
339.68	3562.8	
339.88	5328.8	
340.09	5731.6	
340.3	5943.2	
340.5	4214	
340.71	3203	
340.92	4950.6	
341.13	6194.4	
341.33	3470.6	
341.54	4179.9	
341.75	5663.3	
341.95	5351.3	
342.16	3961.5	
342.37	4388.1	
342.57	5076.9	
342.78	5439.4	
342.99	4520.5	
343.19	3222.1	
343.4	5855.8	
343.61	5734.3	
343.81	3833.1	
344.02	3491.1	
344.23	5859.2	
344.43	6375.3	
344.64	4454.3	
344.85	4296.6	
345.06	5756.8	
345.26	6084.5	
345.47	4092.5	
345.68	4887.8	
345.88	4760.8	
346.09	5972.6	
346.3	4226.3	
346.5	3158.7	
346.71	5461.9	
346.92	5216.9	
347.12	3302.7	
347.33	4188.1	
347.54	6051.7	
347.74	6406.7	
347.95	4097.3	
348.16	3070.6	
348.36	5253.7	
348.57	5018.2	
348.78	4084.3	
348.98	4366.3	
349.19	5331.5	
349.39	4913.1	
349.6	3252.2	
349.81	3695.9	
350.01	5687.9	
350.22	5161.6	
350.43	3951.2	
350.63	4875.5	
350.84	5539.1	
351.05	5270.8	
351.25	3580.5	
351.46	3253.5	
351.67	6042.2	
351.87	5141.8	
352.08	3862.5	
352.29	4390.8	
352.49	5947.3	
352.7	5600.5	
352.9	3449.5	
353.11	4382	
353.32	6636.8	
353.52	5237.3	
353.73	3487	
353.94	4443.4	
354.14	5844.2	
354.35	5573.9	
354.55	3529.3	
354.76	3974.4	
354.97	5705	
355.17	5536.3	
355.38	3386	
355.59	4702.1	
355.79	5191.6	
356	5584.1	
356.2	3915	
356.41	3440.6	
356.62	4840.7	
356.82	5362.9	
357.03	4213.4	
357.24	3808.5	
357.44	5225.1	
357.65	5320.6	
357.85	5080.3	
358.06	4024.9	
358.27	4922.6	
358.47	5148.6	
358.68	3347.1	
358.88	4242.7	
359.09	5739.8	
359.3	6106.4	
359.5	4904.9	
359.71	4369	
359.91	6575.3	
360.12	5866.1	
360.33	4188.8	
360.53	4744.5	
360.74	5167	
360.94	5215.5	
361.15	4392.2	
361.36	3626.3	
361.56	5978	
361.77	5386.8	
361.97	4904.2	
362.18	3885	
362.38	5963.7	
362.59	5021.6	
362.8	3535.5	
363	3448.8	
363.21	4775.9	
363.41	5537	
363.62	4107.5	
363.83	5135.6	
364.03	5637.4	
364.24	6572.6	
364.44	5160.2	
364.65	5221	
364.85	5420.3	
365.06	5218.2	
365.27	3712.3	
365.47	3775.8	
365.68	6341.9	
365.88	5332.9	
366.09	4105.5	
366.29	3840.6	
366.5	5586.9	
366.71	6096.8	
366.91	5197.7	
367.12	4285	
367.32	6655.2	
367.53	5944.6	
367.73	4283	
367.94	5232.6	
368.14	5789.6	
368.35	6739.9	
368.56	4209.3	
368.76	3979.2	
368.97	5945.9	
369.17	7717.4	
369.38	3726.6	
369.58	4015.4	
369.79	5005.9	
369.99	6270.2	
370.2	5015.5	
370.4	4070	
370.61	5656.5	
370.82	6859.3	
371.02	4037.2	
371.23	3282.2	
371.43	4874.8	
371.64	6290	
371.84	4014	
372.05	5301.5	
372.25	7556.3	
372.46	5905	
372.66	4050.2	
372.87	3986	
373.07	6001.9	
373.28	7624.6	
373.48	5069.4	
373.69	4728.1	
373.9	5513.8	
374.1	5471.5	
374.31	4979.3	
374.51	4508.9	
374.72	6300.9	
374.92	5175.9	
375.13	5150.6	
375.33	4325.3	
375.54	5862	
375.74	5328.1	
375.95	4433.2	
376.15	5674.9	
376.36	5920	
376.56	5737	
376.77	4483	
376.97	4929.5	
377.18	7071.6	
377.38	5942.5	
377.59	5315.8	
377.79	3950.5	
378	5803.3	
378.2	6224.5	
378.41	3987.4	
378.61	3912.3	
378.82	6260.6	
379.02	5322	
379.23	4145.1	
379.43	5296.7	
379.64	6256.5	
379.84	5887.2	
380.05	3915	
380.25	3923.9	
380.46	6013.5	
380.66	5646.9	
380.87	5369.1	
381.07	5746.6	
381.28	6668.9	
381.48	5989.6	
381.69	3971	
381.89	4085.7	
382.1	4932.2	
382.3	6238.8	
382.51	5164.3	
382.71	6105	
382.91	6052.4	
383.12	6577.4	
383.32	4364.9	
383.53	4550.6	
383.73	5883.8	
383.94	5646.2	
384.14	4541.7	
384.35	3620.1	
384.55	5638.1	
384.76	6074.3	
384.96	4379.2	
385.17	4681.7	
385.37	6031.3	
385.58	5276.9	
385.78	4673.5	
385.98	3595.6	
386.19	5567.7	
386.39	5859.2	
386.6	4128	
386.8	4331.5	
387.01	6008.1	
387.21	6046.3	
387.42	4866.7	
387.62	5440.1	
387.83	5382.7	
388.03	6032	
388.23	4445.5	
388.44	5333.6	
388.64	5120.6	
388.85	5205.3	
389.05	4897.4	
389.26	5481.7	
389.46	7070.3	
389.67	6451.8	
389.87	4737.6	
390.07	4843.4	
390.28	5678.3	
390.48	5231.9	
390.69	4028.4	
390.89	4299.4	
391.1	5461.9	
391.3	6436.8	
391.5	5574.6	
391.71	6100.2	
391.91	6120.7	
392.12	7167.9	
392.32	5684.5	
392.53	4796.3	
392.73	5473.5	
392.93	5672.9	
393.14	4427.7	
393.34	5276.9	
393.55	6229.9	
393.75	5466	
393.95	4474.8	
394.16	4373.1	
394.36	5481.7	
394.57	6102.3	
394.77	3981.3	
394.98	4453.6	
395.18	5459.9	
395.38	5646.2	
395.59	5312.4	
395.79	4231.1	
396	5550.7	
396.2	6038.1	
396.4	5090.6	
396.61	5006.6	
396.81	6283.2	
397.02	5563	
397.22	5335	
397.42	5370.5	
397.63	6228.6	
397.83	5429.8	
398.04	4101.4	
398.24	4645.5	
398.44	5986.9	
398.65	5027.8	
398.85	4009.9	
399.05	4149.2	
399.26	5405.3	
399.46	7156.3	
399.67	4551.3	
399.87	4254.3	
400.07	5748.6	
400.28	6173.9	
400.48	4317.8	
400.69	5434.6	
400.89	6365.1	
401.09	6848.4	
401.3	4241.3	
401.5	5353.4	
401.7	7058	
401.91	7238.9	
402.11	4513.7	
402.32	4797	
402.52	6290	
402.72	6255.2	
402.93	4889.9	
403.13	3777.1	
403.33	7045.7	
403.54	5754.1	
403.74	4681.7	
403.94	5583.4	
404.15	5866.7	
404.35	7112.6	
404.56	4482.3	
404.76	6453.8	
404.96	6409.5	
405.17	6153.5	
405.37	5859.9	
405.57	4932.9	
405.78	6320	
405.98	5815.5	
406.18	4424.3	
406.39	5391.6	
406.59	6300.2	
406.79	5916.6	
407	4240.7	
407.2	4449.6	
407.4	6461.3	
407.61	6617.7	
407.81	4480.3	
408.01	6988.4	
408.22	5340.4	
408.42	7538.6	
408.62	5564.3	
408.83	5029.8	
409.03	6177.4	
409.23	5828.5	
409.44	5160.9	
409.64	5408.7	
409.84	6932.4	
410.05	6812.9	
410.25	5214.1	
410.45	4952	
410.66	6264.7	
410.86	8847.9	
411.06	5430.5	
411.27	5328.8	
411.47	8578.9	
411.67	6521.4	
411.88	5514.5	
412.08	5812.1	
412.28	7138.5	
412.49	7593.9	
412.69	5195	
412.89	5322	
413.09	7456.7	
413.3	7294.9	
413.5	5399.8	
413.7	4911	
413.91	6496.8	
414.11	7482.6	
414.31	5195.7	
414.52	5616.9	
414.72	7101	
414.92	7038.2	
415.12	5246.2	
415.33	5689.3	
415.53	7439.6	
415.73	7574.1	
415.94	6111.1	
416.14	5517.2	
416.34	6383.5	
416.55	6243.6	
416.75	6726.2	
416.95	6165.8	
417.15	7408.2	
417.36	8253.3	
417.56	6932.4	
417.76	6046.3	
417.97	7832.1	
418.17	7501	
418.37	5533.6	
418.57	5632.6	
418.78	7260.7	
418.98	6815.6	
419.18	6477.7	
419.38	6404.7	
419.59	6982.2	
419.79	6608.8	
419.99	5447.6	
420.2	5868.8	
420.4	7460.1	
420.6	7630	
420.8	5406	
421.01	5269.4	
421.21	7279.2	
421.41	7482.6	
421.61	5764.3	
421.82	5494.7	
422.02	6712.6	
422.22	7736.5	
422.42	6193.7	
422.63	5935.7	
422.83	6915.3	
423.03	8066.3	
423.23	5941.8	
423.44	4924	
423.64	6935.1	
423.84	6651.8	
424.04	5350	
424.25	5045.5	
424.45	7869.7	
424.65	7900.4	
424.85	4795.7	
425.06	5469.4	
425.26	7783.6	
425.46	6774.7	
425.66	5896.1	
425.87	5556.1	
426.07	7594.6	
426.27	7458	
426.47	5670.1	
426.67	5031.2	
426.88	7925.6	
427.08	7350.8	
427.28	6029.9	
427.48	5005.9	
427.69	6183.5	
427.89	6913.9	
428.09	5835.3	
428.29	5139.7	
428.5	7631.4	
428.7	7177.4	
428.9	4958.8	
429.1	5550.7	
429.3	6969.9	
429.51	7493.5	
429.71	5309.7	
429.91	6120.7	
430.11	7374.1	
430.31	7989.8	
430.52	5575.9	
430.72	5825.1	
430.92	7907.2	
431.12	7357	
431.32	5268.7	
431.53	5702.2	
431.73	6234	
431.93	7967.3	
432.13	5165.7	
432.33	5078.3	
432.54	6764.4	
432.74	7176.1	
432.94	5007.3	
433.14	6105.7	
433.34	7290.8	
433.55	6886.6	
433.75	6070.9	
433.95	7834.8	
434.15	7116	
434.35	6817.7	
434.56	5279	
434.76	4752.7	
434.96	7130.3	
435.16	7335.8	
435.36	5059.2	
435.56	6250.4	
435.77	6711.9	
435.97	6911.2	
436.17	6924.2	
436.37	6201.2	
436.57	6750.8	
436.78	6610.2	
436.98	8017.1	
437.18	6784.9	
437.38	7281.2	
437.58	6882.5	
437.78	6873	
437.99	5474.9	
438.19	7358.4	
438.39	8872.5	
438.59	5414.1	
438.79	4949.3	
438.99	8105.2	
439.2	6944	
439.4	5119.2	
439.6	5113.1	
439.8	7366.5	
440	8426.7	
440.2	6158.9	
440.4	6319.3	
440.61	7666.9	
440.81	8280.6	
441.01	5302.9	
441.21	6254.5	
441.41	8064.9	
441.61	7621.2	
441.81	6424.5	
442.02	7529.7	
442.22	8511.4	
442.42	7748.1	
442.62	5357.5	
442.82	5341.1	
443.02	8026.7	
443.22	7160.4	
443.43	5844.9	
443.63	5384.1	
443.83	6976.7	
444.03	7149.5	
444.23	6675.7	
444.43	6264.1	
444.63	7346.1	
444.83	8572.1	
445.04	5472.9	
445.24	6733.7	
445.44	7679.2	
445.64	7746.8	
445.84	6233.3	
446.04	6146	
446.24	6924.9	
446.44	8007.6	
446.65	5446.9	
446.85	5903.6	
447.05	7141.3	
447.25	7945.4	
447.45	5911.8	
447.65	5325.4	
447.85	7370.6	
448.05	6855.9	
448.25	6367.1	
448.46	6210.1	
448.66	7367.9	
448.86	7051.2	
449.06	5153.4	
449.26	6419.7	
449.46	7684.7	
449.66	6705	
449.86	5841.5	
450.06	5814.9	
450.26	6989.7	
450.47	7500.3	
450.67	6061.3	
450.87	6425.2	
451.07	7529.7	
451.27	7374.7	
451.47	5386.2	
451.67	6042.2	
451.87	7021.8	
452.07	8220.5	
452.27	5554.8	
452.47	5564.3	
452.67	7342.7	
452.88	7952.9	
453.08	4915.8	
453.28	6952.9	
453.48	8542.1	
453.68	7262.8	
453.88	5521.3	
454.08	5783.5	
454.28	7737.9	
454.48	7306.5	
454.68	6393.1	
454.88	6885.3	
455.08	7730.4	
455.28	7534.5	
455.48	5376.6	
455.68	6071.5	
455.89	8288.8	
456.09	7930.4	
456.29	5794.4	
456.49	5794.4	
456.69	8135.9	
456.89	7482.6	
457.09	6392.4	
457.29	6744.6	
457.49	7766.6	
457.69	7909.9	
457.89	6152.1	
458.09	5565	
458.29	7546.8	
458.49	8245.8	
458.69	6494.8	
458.89	5891.3	
459.09	8452.6	
459.29	8585.8	
459.49	6075.6	
459.69	6896.2	
459.9	8100.4	
460.1	7520.1	
460.3	5961.6	
460.5	5742.5	
460.7	7987.8	
460.9	7681.2	
461.1	5467.4	
461.3	6824.5	
461.5	8589.9	
461.7	8259.5	
461.9	5900.2	
462.1	6313.9	
462.3	7687.4	
462.5	8374.1	
462.7	5928.9	
462.9	6039.5	
463.1	9433.6	
463.3	9030.2	
463.5	6157.6	
463.7	7157.7	
463.9	7907.9	
464.1	8352.3	
464.3	6379.4	
464.5	6520	
464.7	8616.5	
464.9	8228.1	
465.1	7888.1	
465.3	6977.4	
465.5	8888.9	
465.7	8927.8	
465.9	7211.6	
466.1	7130.3	
466.3	8700.5	
466.5	8505.9	
466.7	8032.1	
466.9	6710.5	
467.1	8457.4	
467.3	9500.5	
467.5	7929.7	
467.7	6700.3	
467.9	9652.1	
468.1	10547	
468.3	7574.1	
468.5	7957.7	
468.7	8402.8	
468.9	8424.7	
469.1	7062.8	
469.3	7785.7	
469.5	10469	
469.7	7978.2	
469.9	7453.2	
470.1	6625.2	
470.3	8392.6	
470.5	8390.5	
470.7	8049.9	
470.9	6769.9	
471.1	8234.9	
471.3	8707.3	
471.5	6619	
471.69	8662.2	
471.89	8022.6	
472.09	7578.2	
472.29	7464.2	
472.49	7825.3	
472.69	7774.1	
472.89	8612.4	
473.09	6498.9	
473.29	6676.4	
473.49	7891.5	
473.69	8059.4	
473.89	7665.5	
474.09	6853.2	
474.29	9499.8	
474.49	9108	
474.69	7556.3	
474.89	6908.5	
475.09	8087.4	
475.29	8060.8	
475.49	6263.4	
475.69	6567.8	
475.88	9764.7	
476.08	8331.8	
476.28	6294.1	
476.48	6761	
476.68	8844.5	
476.88	8731.9	
477.08	6621.1	
477.28	6913.9	
477.48	8125	
477.68	8973.5	
477.88	6387.6	
478.08	6719.4	
478.28	9172.9	
478.48	8305.9	
478.67	6720.1	
478.87	6195.1	
479.07	8876.6	
479.27	8401.5	
479.47	7029.3	
479.67	6922.8	
479.87	8782.4	
480.07	9262.3	
480.27	6080.4	
480.47	7948.2	
480.67	8382.3	
480.87	9181.7	
481.06	6485.2	
481.26	7298.3	
481.46	8342.1	
481.66	8231.5	
481.86	6974	
482.06	8053.3	
482.26	8100.4	
482.46	9106.6	
482.66	6849.8	
482.86	6516	
483.05	8408.3	
483.25	7868.3	
483.45	9468.4	
483.65	6894.1	
483.85	7912	
484.05	8292.9	
484.25	7311.9	
484.45	7815	
484.65	9138	
484.84	9173.5	
485.04	6795.8	
485.24	6810.9	
485.44	9484.1	
485.64	7791.2	
485.84	6119.3	
486.04	7584.3	
486.24	8102.4	
486.44	8604.9	
486.63	6007.4	
486.83	6761.7	
487.03	8091.5	
487.23	8262.9	
487.43	6180.1	
487.63	8549.6	
487.83	8333.2	
488.02	9444.5	
488.22	7248.4	
488.42	7916.8	
488.62	9228.8	
488.82	8135.9	
489.02	6805.4	
489.22	6905.1	
489.41	9068.4	
489.61	8617.2	
489.81	6519.4	
490.01	6554.9	
490.21	9015.8	
490.41	9665	
490.61	6492.1	
490.8	6629.3	
491	8386.4	
491.2	7743.4	
491.4	7173.4	
491.6	6348	
491.8	8415.1	
491.99	8603.5	
492.19	6250.4	
492.39	6695.5	
492.59	9074.5	
492.79	9085.5	
492.99	7550.2	
493.18	6610.8	
493.38	9069.8	
493.58	9960	
493.78	7338.6	
493.98	6936.5	
494.18	8939.4	
494.37	8270.4	
494.57	7585	
494.77	7467.6	
494.97	9161.2	
495.17	9376.3	
495.37	7017.7	
495.56	7279.8	
495.76	9568.8	
495.96	9166.7	
496.16	8275.8	
496.36	7090.1	
496.55	9315.5	
496.75	8816.5	
496.95	7548.1	
497.15	7432.8	
497.35	9309.4	
497.54	9240.4	
497.74	7195.2	
497.94	8914.8	
498.14	9996.8	
498.34	9807.7	
498.53	6838.9	
498.73	7692.2	
498.93	8598.7	
499.13	9238.4	
499.33	7489.4	
499.52	8014.4	
499.72	9131.9	
499.92	9602.2	
500.12	7210.9	
500.32	7443	
500.51	9451.4	
500.71	9260.9	
500.91	8246.5	
501.11	7903.8	
501.31	9461.6	
501.5	9747.6	
501.7	8529.1	
501.9	7496.2	
502.1	9176.3	
502.29	9494.4	
502.49	7894.9	
502.69	8372.8	
502.89	9392	
503.09	9471.2	
503.28	6938.5	
503.48	7031.4	
503.68	8644.5	
503.88	8638.3	
504.07	8071	
504.27	7498.3	
504.47	8996	
504.67	9148.3	
504.86	7927	
505.06	7575.4	
505.26	8727.1	
505.46	10465	
505.65	7486.7	
505.85	7690.1	
506.05	8542.1	
506.25	8985.8	
506.44	6709.1	
506.64	7724.3	
506.84	8502.5	
507.04	9372.9	
507.23	6911.2	
507.43	7547.4	
507.63	10406	
507.83	8697.7	
508.02	7396.6	
508.22	7039.6	
508.42	10693	
508.62	8430.1	
508.81	7314.7	
509.01	7917.4	
509.21	8290.2	
509.4	8531.2	
509.6	7567.9	
509.8	6894.8	
510	8544.1	
510.19	10019	
510.39	6931	
510.59	6896.2	
510.79	8311.3	
510.98	9744.9	
511.18	7014.3	
511.38	7079.1	
511.57	9200.2	
511.77	9024	
511.97	7849.2	
512.17	6757.6	
512.36	9153.1	
512.56	9065.7	
512.76	6948.8	
512.95	6632	
513.15	9281.4	
513.35	7871.7	
513.55	7759.8	
513.74	6847.7	
513.94	9279.3	
514.14	8634.9	
514.33	7892.2	
514.53	7650.5	
514.73	8583	
514.92	8824.7	
515.12	7133.8	
515.32	6981.5	
515.51	8925	
515.71	9483.5	
515.91	8703.9	
516.11	7030	
516.3	10725	
516.5	8467.7	
516.7	7542.7	
516.89	8226	
517.09	8646.5	
517.29	8457.4	
517.48	8013	
517.68	7344	
517.88	8366	
518.07	8944.8	
518.27	7814.4	
518.47	6865.5	
518.66	9572.2	
518.86	8175.5	
519.06	6688	
519.25	7088	
519.45	8512	
519.65	10096	
519.84	7750.9	
520.04	8485.4	
520.24	10417	
520.43	9166.7	
520.63	7434.1	
520.83	7181.5	
521.02	8331.1	
521.22	9050	
521.42	7681.9	
521.61	8350.3	
521.81	8564.6	
522.01	8849.3	
522.2	7675.1	
522.4	7429.3	
522.6	9327.8	
522.79	8116.1	
522.99	7495.6	
523.18	6726.2	
523.38	9052.7	
523.58	9071.1	
523.77	8763.9	
523.97	6698.2	
524.17	10982	
524.36	10084	
524.56	8067.6	
524.76	7810.3	
524.95	9011.7	
525.15	8688.8	
525.34	7540.6	
525.54	7554.3	
525.74	9315.5	
525.93	8395.3	
526.13	8736.6	
526.33	7373.4	
526.52	9731.3	
526.72	9188.6	
526.91	8756.4	
527.11	8000.7	
527.31	9820.7	
527.5	10120	
527.7	7948.2	
527.89	6912.6	
528.09	8552.3	
528.29	9316.2	
528.48	8422.6	
528.68	7908.6	
528.87	9579	
529.07	9637.1	
529.27	7857.4	
529.46	7261.4	
529.66	9244.5	
529.85	9580.4	
530.05	7146.7	
530.25	7845.1	
530.44	10684	
530.64	9142.1	
530.83	7606.2	
531.03	7854.6	
531.23	9630.9	
531.42	9490.3	
531.62	8638.3	
531.81	7832.8	
532.01	9669.1	
532.21	10256	
532.4	7505.1	
532.6	7879.9	
532.79	10536	
532.99	9727.9	
533.18	7899.7	
533.38	8925.7	
533.58	9303.9	
533.77	10124	
533.97	7888.1	
534.16	8785.1	
534.36	10224	
534.55	9224.7	
534.75	8852	
534.95	7823.9	
535.14	10093	
535.34	9282.1	
535.53	7608.9	
535.73	9544.9	
535.92	10632	
536.12	9487.6	
536.31	7720.8	
536.51	8913.4	
536.71	9770.9	
536.9	9355.1	
537.1	7821.9	
537.29	8007.6	
537.49	10250	
537.68	9242.5	
537.88	8384.4	
538.07	7540.6	
538.27	9528.5	
538.46	10563	
538.66	7447.1	
538.86	7953.6	
539.05	9547.6	
539.25	9973.6	
539.44	8168	
539.64	7771.4	
539.83	9286.9	
540.03	10362	
540.22	7686	
540.42	7750.9	
540.61	9619.3	
540.81	9721	
541	8296.3	
541.2	8880	
541.39	9081.4	
541.59	9505.3	
541.78	8486.8	
541.98	7580.9	
542.18	8731.2	
542.37	8701.8	
542.57	8014.4	
542.76	8521.6	
542.96	8845.2	
543.15	9499.8	
543.35	7997.3	
543.54	7243.7	
543.74	9825.5	
543.93	9301.2	
544.13	7973.4	
544.32	9057.5	
544.52	9665	
544.71	8787.2	
544.91	7021.1	
545.1	8330.5	
545.3	8846.5	
545.49	9597.5	
545.69	6873	
545.88	7569.3	
546.08	10527	
546.27	10142	
546.47	8083.3	
546.66	7447.1	
546.86	9795.4	
547.05	10351	
547.24	7688.8	
547.44	7479.2	
547.63	8659.5	
547.83	9904	
548.02	7787.7	
548.22	8042.4	
548.41	8477.2	
548.61	9831.6	
548.8	7375.4	
549	7305.1	
549.19	9215.2	
549.39	9450.7	
549.58	7008.1	
549.78	7682.6	
549.97	9559.2	
550.17	8991.9	
550.36	8521.6	
550.55	9592.7	
550.75	9077.3	
550.94	10025	
551.14	7210.9	
551.33	7765.9	
551.53	8381	
551.72	9455.5	
551.92	7731.1	
552.11	7505.1	
552.31	9477.3	
552.5	9541.5	
552.69	9206.3	
552.89	7137.9	
553.08	9490.3	
553.28	9077.3	
553.47	7527.7	
553.67	8679.3	
553.86	10162	
554.06	8440.4	
554.25	6707.8	
554.44	7264.8	
554.64	10875	
554.83	10416	
555.03	7267.6	
555.22	7653.9	
555.42	9663.7	
555.61	9303.2	
555.8	7439.6	
556	7793.2	
556.19	8391.9	
556.39	9747.6	
556.58	7542.7	
556.78	7459.4	
556.97	9228.8	
557.16	8912.8	
557.36	8694.3	
557.55	7048.4	
557.75	8175.5	
557.94	9976.3	
558.13	7258.7	
558.33	7002.7	
558.52	9799.5	
558.72	8546.2	
558.91	7138.5	
559.1	7361.1	
559.3	8302.5	
559.49	8074.5	
559.69	6621.8	
559.88	7714.7	
560.07	9137.4	
560.27	9510.8	
560.46	7980.3	
560.66	8021.2	
560.85	8987.2	
561.04	8060.1	
561.24	7131	
561.43	7245.7	
561.63	8327.7	
561.82	8690.9	
562.01	8590.5	
562.21	7625.3	
562.4	9067	
562.59	10053	
562.79	7424.6	
562.98	7121.5	
563.18	8959.2	
563.37	10471	
563.56	7918.1	
563.76	6916	
563.95	8473.8	
564.14	8359.8	
564.34	7268.9	
564.53	7114.6	
564.73	8984.4	
564.92	9275.3	
565.11	7440.3	
565.31	6822.5	
565.5	9562	
565.69	8467	
565.89	7114	
566.08	7312.6	
566.27	9434.3	
566.47	9781.8	
566.66	8010.3	
566.85	6579.4	
567.05	8893.6	
567.24	8351.6	
567.44	6879.8	
567.63	8378.9	
567.82	9174.2	
568.02	8961.2	
568.21	6896.2	
568.4	7394.5	
568.6	8775.5	
568.79	8887.5	
568.98	6770.6	
569.18	6873	
569.37	8708.6	
569.56	10779	
569.76	7189.1	
569.95	8135.9	
570.14	9124.4	
570.34	8958.5	
570.53	6649.1	
570.72	6648.4	
570.91	9450.7	
571.11	8531.2	
571.3	7129.7	
571.49	8093.6	
571.69	8553	
571.88	8132.5	
572.07	7565.9	
572.27	7694.2	
572.46	8195.3	
572.65	9153.1	
572.85	6972	
573.04	7264.8	
573.23	9454.8	
573.43	8717.5	
573.62	6658.6	
573.81	7352.9	
574	8712.1	
574.2	8430.8	
574.39	7069.6	
574.58	7159	
574.78	9583.1	
574.97	8748.9	
575.16	7488.1	
575.36	7684	
575.55	9140.8	
575.74	9215.2	
575.93	6525.5	
576.13	7653.9	
576.32	8477.9	
576.51	9058.8	
576.71	7049.8	
576.9	8452.6	
577.09	9429.5	
577.28	8976.9	
577.48	7574.1	
577.67	6477.7	
577.86	8519.5	
578.05	8938	
578.25	7164.5	
578.44	7281.9	
578.63	8678.6	
578.83	10045	
579.02	6630	
579.21	8148.2	
579.4	8925.7	
579.6	8634.2	
579.79	7379.5	
579.98	9676	
580.17	9364	
580.37	9452.7	
580.56	6841.6	
580.75	7680.6	
580.94	9889	
581.14	9701.2	
581.33	8131.8	
581.52	7020.4	
581.71	9266.4	
581.91	9901.2	
582.1	6737.8	
582.29	7342	
582.48	8845.9	
582.68	8744.1	
582.87	7830.1	
583.06	7423.2	
583.25	9130.5	
583.45	9122.3	
583.64	8084	
583.83	8862.2	
584.02	8615.1	
584.21	9123	
584.41	8068.3	
584.6	7450.5	
584.79	8882.7	
584.98	9768.1	
585.18	6858.6	
585.37	6763.8	
585.56	8467.7	
585.75	9234.3	
585.94	7092.8	
586.14	7802.1	
586.33	9891.7	
586.52	8824.7	
586.71	7557	
586.91	7298.3	
587.1	8317.5	
587.29	9277.3	
587.48	7199.3	
587.67	7053.2	
587.87	9047.2	
588.06	9185.8	
588.25	8360.5	
588.44	7677.8	
588.63	8680	
588.83	9125.1	
589.02	6895.5	
589.21	6726.2	
589.4	8237.6	
589.59	8114.1	
589.78	5953.4	
589.98	6303.6	
590.17	7694.9	
590.36	8270.4	
590.55	5583.4	
590.74	6484.6	
590.94	9684.2	
591.13	8159.1	
591.32	6289.3	
591.51	5763.7	
591.7	8596.7	
591.89	8163.9	
592.09	5814.2	
592.28	6315.9	
592.47	7242.3	
592.66	9187.9	
592.85	5900.2	
593.05	6142.5	
593.24	7968.6	
593.43	8737.3	
593.62	6160.3	
593.81	6745.3	
594	8038.3	
594.19	8238.3	
594.39	6169.2	
594.58	6077	
594.77	8301.1	
594.96	8974.9	
595.15	6073.6	
595.34	6775.4	
595.54	8400.8	
595.73	7466.9	
595.92	5437.4	
596.11	6662	
596.3	8937.3	
596.49	7565.2	
596.68	6361.7	
596.88	6868.2	
597.07	8640.4	
597.26	7365.9	
597.45	5955.5	
597.64	7215	
597.83	7727	
598.02	8398	
598.22	6081.8	
598.41	6756.9	
598.6	8215.1	
598.79	7584.3	
598.98	6086.6	
599.17	7159.7	
599.36	8142.7	
599.55	9456.2	
599.74	8315.4	
599.94	8043.1	
600.13	8888.2	
600.32	7638.2	
600.51	5926.1	
600.7	6212.9	
600.89	9494.4	
601.08	9577.7	
601.27	5899.5	
601.47	6969.9	
601.66	8846.5	
601.85	9552.4	
602.04	6691.4	
602.23	6861.4	
602.42	7897	
602.61	8526.4	
602.8	6610.2	
602.99	6401.3	
603.18	8266.3	
603.37	8518.9	
603.57	7076.4	
603.76	7628	
603.95	9284.1	
604.14	8890.2	
604.33	6456.6	
604.52	6842.3	
604.71	8502.5	
604.9	7994.6	
605.09	7390.4	
605.28	7225.9	
605.47	9099.8	
605.66	8807.6	
605.86	7079.1	
606.05	6593.8	
606.24	9120.3	
606.43	7546.1	
606.62	6818.4	
606.81	7688.8	
607	8930.5	
607.19	8195.3	
607.38	6304.3	
607.57	6506.4	
607.76	8015.1	
607.95	7453.2	
608.14	6921.5	
608.33	7510.6	
608.52	8105.2	
608.72	8987.9	
608.91	6238.1	
609.1	6062	
609.29	8100.4	
609.48	7562.5	
609.67	7182.2	
609.86	6158.2	
610.05	7653.9	
610.24	8114.1	
610.43	5978	
610.62	5645.6	
610.81	9242.5	
611	8955.1	
611.19	6242.9	
611.38	6840.2	
611.57	8337.3	
611.76	9802.9	
611.95	5973.2	
612.14	5719.3	
612.33	8164.6	
612.52	7666.9	
612.71	6446.3	
612.9	5662	
613.09	7279.2	
613.28	9669.8	
613.47	6195.1	
613.66	7213.6	
613.85	8366.6	
614.04	7834.8	
614.24	6300.9	
614.43	5565.7	
614.62	8396	
614.81	8352.3	
615	6884.6	
615.19	6884.6	
615.38	7587	
615.57	8031.5	
615.76	6722.8	
615.95	7694.9	
616.14	8499.1	
616.33	8033.5	
616.52	7017	
616.71	7343.3	
616.9	8378.2	
617.09	8258.1	
617.28	6363.7	
617.47	7673.1	
617.66	7438.9	
617.85	7516.7	
618.04	7293.5	
618.22	6722.1	
618.41	7750.2	
618.6	8755.7	
618.79	6668.9	
618.98	6268.8	
619.17	9024	
619.36	7376.1	
619.55	6507.8	
619.74	6564.4	
619.93	8342.1	
620.12	7712.7	
620.31	7078.5	
620.5	7277.8	
620.69	9188.6	
620.88	9227.5	
621.07	7952.3	
621.26	6997.9	
621.45	8516.1	
621.64	8477.2	
621.83	7086	
622.02	6234	
622.21	8456.1	
622.4	8249.2	
622.59	7636.2	
622.78	7375.4	
622.97	7823.9	
623.16	8853.4	
623.35	6945.3	
623.54	6060.6	
623.72	8056.7	
623.91	8144.1	
624.1	7216.4	
624.29	5865.4	
624.48	9247.9	
624.67	8436.3	
624.86	7071	
625.05	6137.1	
625.24	9308.7	
625.43	7681.9	
625.62	8893.6	
625.81	6336.4	
626	8785.1	
626.19	8006.9	
626.38	7155.6	
626.56	6493.4	
626.75	7829.4	
626.94	8264.9	
627.13	7055.9	
627.32	5726.8	
627.51	8363.2	
627.7	9764.7	
627.89	5662.6	
628.08	6954.2	
628.27	7508.5	
628.46	7786.4	
628.65	6173.3	
628.83	5778	
629.02	8428.8	
629.21	7659.4	
629.4	6626.5	
629.59	6813.6	
629.78	7606.8	
629.97	8662.2	
630.16	6854.6	
630.35	6355.5	
630.54	9043.8	
630.72	8777.6	
630.91	6248.4	
631.1	6888.7	
631.29	8258.1	
631.48	8427.4	
631.67	7036.8	
631.86	6464.1	
632.05	7705.1	
632.24	7838.3	
632.42	6083.8	
632.61	6688.7	
632.8	7940	
632.99	7607.5	
633.18	6774.7	
633.37	7162.4	
633.56	8187.1	
633.75	8043.1	
633.93	6732.4	
634.12	6429.3	
634.31	9129.8	
634.5	8665.6	
634.69	6415.6	
634.88	6980.8	
635.07	8048.5	
635.25	8666.3	
635.44	7415.7	
635.63	7594.6	
635.82	7874.4	
636.01	7411.6	
636.2	7374.1	
636.39	6907.8	
636.57	9011.7	
636.76	8752.3	
636.95	6238.8	
637.14	7755.7	
637.33	8316.1	
637.52	9264.3	
637.7	6137.8	
637.89	6983.6	
638.08	7929.7	
638.27	9450	
638.46	7049.1	
638.65	7614.3	
638.83	9455.5	
639.02	7752.2	
639.21	7069.6	
639.4	7538.6	
639.59	8305.9	
639.78	7869	
639.96	6335.7	
640.15	6315.3	
640.34	8077.9	
640.53	8363.9	
640.72	6006	
640.91	6417	
641.09	7563.1	
641.28	8951	
641.47	6359.6	
641.66	7191.1	
641.85	8245.1	
642.03	8492.2	
642.22	6922.1	
642.41	6485.2	
642.6	7635.5	
642.79	7040.2	
642.97	6185.5	
643.16	6929	
643.35	7544.7	
643.54	7398.6	
643.73	6066.8	
643.91	6963.1	
644.1	7266.9	
644.29	7875.8	
644.48	6143.2	
644.67	6214.9	
644.85	7472.4	
645.04	7778.9	
645.23	5623.7	
645.42	6007.4	
645.6	7203.4	
645.79	8422.6	
645.98	5988.9	
646.17	4968.4	
646.36	6879.1	
646.54	7561.1	
646.73	6794.5	
646.92	5536.3	
647.11	7212.9	
647.29	8263.6	
647.48	5685.2	
647.67	5406.6	
647.86	8570.1	
648.05	8471.8	
648.23	6008.1	
648.42	7256	
648.61	7856.7	
648.8	7584.3	
648.98	5677.7	
649.17	6012.8	
649.36	7148.1	
649.55	6733	
649.73	5726.8	
649.92	6412.9	
650.11	7030	
650.3	7451.9	
650.48	5852.4	
650.67	5619.6	
650.86	7701.7	
651.05	6637.5	
651.23	5857.9	
651.42	5795.8	
651.61	7225.9	
651.79	7292.8	
651.98	6075	
652.17	5645.6	
652.36	7742.7	
652.54	6750.1	
652.73	5660.6	
652.92	5513.8	
653.11	7744.7	
653.29	7813	
653.48	4952	
653.67	5972.6	
653.85	7479.2	
654.04	8536.6	
654.23	6175.3	
654.42	5692	
654.6	7002	
654.79	7623.9	
654.98	5199.8	
655.16	5739.8	
655.35	6640.9	
655.54	6626.5	
655.73	5335	
655.91	5246.9	
656.1	7806.2	
656.29	6502.3	
656.47	4832.5	
656.66	6588.3	
656.85	6845.7	
657.03	6881.2	
657.22	5371.1	
657.41	5488.6	
657.59	6993.1	
657.78	6745.3	
657.97	5091.3	
658.16	5879	
658.34	7720.8	
658.53	8129.8	
658.72	6802.7	
658.9	7322.2	
659.09	7018.4	
659.28	7264.1	
659.46	5594.4	
659.65	5547.3	
659.84	6858.6	
660.02	7441.6	
660.21	5455.8	
660.4	5429.8	
660.58	7955	
660.77	7212.3	
660.96	6049.7	
661.14	5083.1	
661.33	8416.5	
661.52	8306.6	
661.7	5020.9	
661.89	8904.6	
662.08	6806.8	
662.26	6444.3	
662.45	5330.9	
662.64	5502.9	
662.82	7552.2	
663.01	6724.2	
663.2	5529.5	
663.38	6281.1	
663.57	7527	
663.75	7364.5	
663.94	5782.1	
664.13	7120.1	
664.31	6842.9	
664.5	7615	
664.69	6192.4	
664.87	6661.4	
665.06	6588.3	
665.25	7355.6	
665.43	6863.4	
665.62	6936.5	
665.8	7733.1	
665.99	6985.6	
666.18	5838.8	
666.36	5943.9	
666.55	7664.2	
666.74	7638.2	
666.92	5433.3	
667.11	7118.1	
667.29	7077.8	
667.48	7632.1	
667.67	6717.3	
667.85	5826.5	
668.04	7004.1	
668.22	7041.6	
668.41	5913.9	
668.6	6020.3	
668.78	6755.6	
668.97	7081.9	
669.15	6262	
669.34	5230.5	
669.53	6838.9	
669.71	7225.9	
669.9	5399.1	
670.08	5982.1	
670.27	6825.2	
670.46	7466.9	
670.64	6310.5	
670.83	6573.3	
671.01	6709.1	
671.2	7367.9	
671.38	5464.7	
671.57	5381.4	
671.76	7946.1	
671.94	8601.5	
672.13	5262.6	
672.31	6490.7	
672.5	7592.5	
672.69	6825.2	
672.87	5518.6	
673.06	5771.2	
673.24	7313.3	
673.43	6879.8	
673.61	6218.3	
673.8	5795.1	
673.98	7568.6	
674.17	7746.1	
674.36	6366.5	
674.54	6171.2	
674.73	7239.6	
674.91	7528.3	
675.1	5947.3	
675.28	5558.9	
675.47	6997.2	
675.65	7670.3	
675.84	5726.1	
676.03	6127.5	
676.21	6923.5	
676.4	6322.1	
676.58	6570.6	
676.77	6295.5	
676.95	8365.3	
677.14	6761	
677.32	5396.4	
677.51	5207.3	
677.69	7673.1	
677.88	6396.5	
678.06	5289.2	
678.25	5397.1	
678.44	7091.4	
678.62	6752.2	
678.81	5111	
678.99	6087.2	
679.18	7955.7	
679.36	7491.5	
679.55	5640.8	
679.73	6311.2	
679.92	7367.9	
680.1	6832	
680.29	6935.8	
680.47	5689.3	
680.66	6731	
680.84	7674.4	
681.03	4953.4	
681.21	6165.8	
681.4	6821.1	
681.58	6660	
681.77	5457.8	
681.95	5290.6	
682.14	7682.6	
682.32	7960.5	
682.51	6407.4	
682.69	5137.7	
682.88	6690	
683.06	7319.4	
683.25	6016.9	
683.43	6483.9	
683.62	6939.9	
683.8	7327.6	
683.99	6522.8	
684.17	5770.5	
684.36	8209.6	
684.54	6797.2	
684.73	4973.2	
684.91	5177.9	
685.1	7152.9	
685.28	6503	
685.46	5664	
685.65	5742.5	
685.83	7423.2	
686.02	6745.3	
686.2	5154.7	
686.39	5356.1	
686.57	6284.5	
686.76	7933.1	
686.94	5154.7	
687.13	5397.1	
687.31	7176.8	
687.5	6633.4	
687.68	4818.9	
687.86	6107	
688.05	8473.1	
688.23	6199.9	
688.42	6089.3	
688.6	5224.4	
688.79	6594.5	
688.97	6641.6	
689.16	5753.4	
689.34	4582	
689.52	7407.5	
689.71	7481.2	
689.89	5925.5	
690.08	5211.4	
690.26	6737.8	
690.45	6736.5	
690.63	6057.2	
690.81	5264	
691	6509.1	
691.18	6440.2	
691.37	5470.8	
691.55	7739.3	
691.74	6406	
691.92	8434.2	
692.1	5432.6	
692.29	4826.4	
692.47	6649.8	
692.66	5969.8	
692.84	5109.7	
693.02	5735	
693.21	6079.7	
693.39	6516.6	
693.58	5806	
693.76	5201.8	
693.94	7845.8	
694.13	7593.9	
694.31	5120.6	
694.5	6399.2	
694.68	6434	
694.86	6830	
695.05	5537	
695.23	6004.6	
695.42	7262.8	
695.6	9597.5	
695.78	6172.6	
695.97	5277.6	
696.15	7182.9	
696.34	6541.2	
696.52	5059.2	
696.7	5826.5	
696.89	6939.2	
697.07	6296.1	
697.25	5775.3	
697.44	7387	
697.62	6782.9	
697.81	7210.2	
697.99	5451.7	
698.17	5905	
698.36	6130.3	
698.54	6873.7	
698.72	5773.9	
698.91	4713.1	
699.09	6464.1	
699.28	6423.8	
699.46	5499.5	
699.64	5292.6	
699.83	6208.1	
700.01	7638.9	
700.19	6155.5	
700.38	4519.2	
700.56	7499	
700.74	6343.2	
700.93	5010.7	
701.11	5736.4	
701.29	6982.2	
701.48	8089.5	
701.66	5195.7	
701.84	5184.8	
702.03	6533.7	
702.21	7217.7	
702.39	4775.2	
702.58	5351.3	
702.76	6936.5	
702.94	7078.5	
703.13	4749.2	
703.31	7281.2	
703.49	6208.8	
703.68	7582.3	
703.86	4968.4	
704.04	5967.8	
704.23	6767.2	
704.41	7234.1	
704.59	5113.8	
704.78	6480.5	
704.96	7885.4	
705.14	7227.3	
705.33	4891.2	
705.51	5875.6	
705.69	6596.5	
705.87	7430.7	
706.06	5991.7	
706.24	4917.9	
706.42	6928.3	
706.61	7202.7	
706.79	6097.5	
706.97	4848.2	
707.16	6417.7	
707.34	6983.6	
707.52	6062.7	
707.7	5133.6	
707.89	6490.7	
708.07	6223.1	
708.25	6087.9	
708.44	6180.1	
708.62	6426.5	
708.8	7613.7	
708.98	6395.8	
709.17	5278.3	
709.35	6873	
709.53	6934.4	
709.72	4999.1	
709.9	5134.3	
710.08	7104.4	
710.26	7111.2	
710.45	6690	
710.63	5367	
710.81	6805.4	
710.99	6852.5	
711.18	5929.6	
711.36	5390.9	
711.54	6584.9	
711.72	7404.8	
711.91	5483.8	
712.09	4889.2	
712.27	6806.8	
712.45	7434.8	
712.64	5763.7	
712.82	4698.7	
713	6248.4	
713.18	6381.5	
713.37	4739.7	
713.55	6006	
713.73	7206.8	
713.91	5754.1	
714.1	5156.1	
714.28	4631.1	
714.46	6896.9	
714.64	6057.9	
714.83	4076.1	
715.01	4936.3	
715.19	6106.4	
715.37	5462.6	
715.55	4657.1	
715.74	4926.7	
715.92	7125.6	
716.1	5096	
716.28	6096.1	
716.47	5133.6	
716.65	5798.5	
716.83	5925.5	
717.01	4980	
717.19	5034.6	
717.38	8069	
717.56	5542.5	
717.74	5274.9	
717.92	4385.4	
718.1	6806.1	
718.29	5982.8	
718.47	3961.5	
718.65	4700.8	
718.83	6706.4	
719.01	6627.9	
719.2	3841.3	
719.38	4932.2	
719.56	6274.3	
719.74	7879.9	
719.92	4483.7	
720.11	5629.9	
720.29	6364.4	
720.47	5472.2	
720.65	4046.1	
720.83	4945.2	
721.02	5860.6	
721.2	5648.3	
721.38	5051.7	
721.56	4298	
721.74	5092.6	
721.92	5287.2	
722.11	5617.6	
722.29	5264	
722.47	6629.3	
722.65	5771.2	
722.83	4345.1	
723.01	5245.5	
723.2	5799.8	
723.38	6113.2	
723.56	3697.9	
723.74	4900.1	
723.92	5359.5	
724.1	6597.9	
724.29	4227	
724.47	5498.8	
724.65	5390.3	
724.83	5318.6	
725.01	4138.9	
725.19	5089.2	
725.37	5396.4	
725.56	5483.1	
725.74	3994.9	
725.92	4260.5	
726.1	5337.7	
726.28	5623.7	
726.46	4691.9	
726.64	4392.2	
726.83	5657.9	
727.01	5903.6	
727.19	3998.3	
727.37	4827.7	
727.55	5716.6	
727.73	6248.4	
727.91	3942.3	
728.09	3784.6	
728.28	6368.5	
728.46	6986.3	
728.64	5033.9	
728.82	4988.2	
729	7466.2	
729.18	6711.9	
729.36	4079.6	
729.54	6585.6	
729.72	7756.3	
729.91	5989.6	
730.09	6069.5	
730.27	4798.4	
730.45	5784.1	
730.63	6540.5	
730.81	5506.3	
730.99	4420.2	
731.17	7030.7	
731.35	5634	
731.53	5051.7	
731.71	4597.7	
731.9	6741.2	
732.08	7017	
732.26	4896	
732.44	4483.7	
732.62	7034.1	
732.8	6528.2	
732.98	5280.3	
733.16	4308.2	
733.34	6549.4	
733.52	5309	
733.7	4948.6	
733.88	5154.7	
734.07	6455.2	
734.25	6065.4	
734.43	4341	
734.61	6036.7	
734.79	7706.5	
734.97	5905.7	
735.15	4584.7	
735.33	4876.2	
735.51	6341.9	
735.69	6002.6	
735.87	6007.4	
736.05	5117.9	
736.23	6264.1	
736.41	6033.3	
736.59	4925.4	
736.77	5056.4	
736.95	6726.2	
737.13	6108.4	
737.32	4646.8	
737.5	4829.1	
737.68	7210.9	
737.86	6044.2	
738.04	4424.3	
738.22	6373.3	
738.4	5864.7	
738.58	6180.1	
738.76	5073.5	
738.94	4025.6	
739.12	5970.5	
739.3	5844.2	
739.48	5709.1	
739.66	5481.7	
739.84	6278.4	
740.02	6229.2	
740.2	4145.1	
740.38	4457.7	
740.56	6688.7	
740.74	5500.2	
740.92	5239.4	
741.1	5137.7	
741.28	6143.9	
741.46	5953.4	
741.64	4765.6	
741.82	5272.8	
742	6130.3	
742.18	6191	
742.36	4986.1	
742.54	4545.8	
742.72	6769.2	
742.9	5439.4	
743.08	5397.1	
743.26	4205.2	
743.44	6967.2	
743.62	6752.8	
743.8	5590.3	
743.98	4595	
744.16	6543.3	
744.34	6220.4	
744.52	5493.3	
744.7	5380	
744.88	6658.6	
745.06	6203.3	
745.24	5543.2	
745.42	5635.3	
745.6	6763.1	
745.78	6494.1	
745.96	4346.5	
746.14	4640.7	
746.32	7546.8	
746.5	6798.6	
746.68	5221.6	
746.86	4734.9	
747.03	7270.3	
747.21	5461.2	
747.39	5238	
747.57	4739	
747.75	6404.7	
747.93	6838.2	
748.11	4669.4	
748.29	4633.2	
748.47	8039	
748.65	6140.5	
748.83	5508.4	
749.01	5167.7	
749.19	6603.3	
749.37	5784.8	
749.55	5029.1	
749.73	5096	
749.91	6265.4	
750.09	5997.1	
750.26	5205.3	
750.44	4582.7	
750.62	6310.5	
750.8	6311.2	
750.98	4388.1	
751.16	4759.5	
751.34	6371.9	
751.52	5644.9	
751.7	5660.6	
751.88	4327.4	
752.06	6920.8	
752.24	6709.1	
752.42	4377.2	
752.59	4766.3	
752.77	6263.4	
752.95	7572	
753.13	5508.4	
753.31	4840	
753.49	6025.8	
753.67	6415.6	
753.85	5188.9	
754.03	4696.7	
754.21	6707.1	
754.38	7071	
754.56	4905.6	
754.74	3929.4	
754.92	5931.6	
755.1	6698.2	
755.28	4010.6	
755.46	3986	
755.64	7369.3	
755.82	7486.7	
755.99	4177.9	
756.17	4356.7	
756.35	4853.7	
756.53	6511.9	
756.71	3213.9	
756.89	4232.5	
757.07	6109.1	
757.25	5110.4	
757.42	4784.7	
757.6	5698.8	
757.78	6159.6	
757.96	5100.1	
758.14	4399	
758.32	3858.4	
758.5	4581.3	
758.67	5530.9	
758.85	4193.6	
759.03	4354	
759.21	5666.7	
759.39	5103.5	
759.57	3794.9	
759.75	5025	
759.92	6353.5	
760.1	5563.6	
760.28	5386.8	
760.46	5661.3	
760.64	5322.7	
760.82	5100.8	
760.99	5196.4	
761.17	4347.8	
761.35	6278.4	
761.53	5242.1	
761.71	4588.8	
761.89	5225.7	
762.06	6180.1	
762.24	5683.8	
762.42	4595.6	
762.6	4428.4	
762.78	5702.2	
762.96	6365.8	
763.13	4988.2	
763.31	4661.9	
763.49	6560.3	
763.67	5672.9	
763.85	5601.9	
764.02	6163	
764.2	6836.1	
764.38	5976	
764.56	4579.9	
764.74	5544.5	
764.91	7038.2	
765.09	5832.6	
765.27	4270	
765.45	4055	
765.63	7015.7	
765.8	6854.6	
765.98	3805.8	
766.16	4123.9	
766.34	5418.9	
766.52	5128.8	
766.69	5176.6	
766.87	4021.5	
767.05	5879	
767.23	6546	
767.41	4341	
767.58	4640.7	
767.76	6470.9	
767.94	6541.2	
768.12	4435.9	
768.29	5290.6	
768.47	5963.7	
768.65	6632.7	
768.83	4018.1	
769	5213.4	
769.18	5425.1	
769.36	6232.7	
769.54	5014.1	
769.72	4062.5	
769.89	6507.8	
770.07	6650.4	
770.25	4473.4	
770.43	5788.2	
770.6	7372	
770.78	7746.8	
770.96	4743.1	
771.14	5318.6	
771.31	6369.2	
771.49	5742.5	
771.67	3751.9	
771.85	4058.4	
772.02	4962.9	
772.2	5795.1	
772.38	4831.8	
772.55	4302.8	
772.73	5993.7	
772.91	5758.9	
773.09	4650.9	
773.26	4801.1	
773.44	5924.8	
773.62	5707	
773.8	4197	
773.97	3922.5	
774.15	6065.4	
774.33	5707.7	
774.5	4098.7	
774.68	4500.8	
774.86	6123.4	
775.04	5698.1	
775.21	4067.3	
775.39	4130.1	
775.57	5990.3	
775.74	6404.7	
775.92	4002.4	
776.1	3891.1	
776.27	5943.9	
776.45	7212.3	
776.63	4139.6	
776.81	3631.7	
776.98	5526.1	
777.16	6834.1	
777.34	4350.6	
777.51	4628.4	
777.69	5578	
777.87	5328.1	
778.04	4351.9	
778.22	5028.4	
778.4	5390.9	
778.57	6012.8	
778.75	3565.5	
778.93	3928.7	
779.1	5083.1	
779.28	5036.6	
779.46	3535.5	
779.64	4072.7	
779.81	6228.6	
779.99	7177.4	
780.17	4934.9	
780.34	5119.9	
780.52	5660.6	
780.69	5823.7	
780.87	4357.4	
781.05	4020.2	
781.22	5657.9	
781.4	5775.3	
781.58	4163.5	
781.75	3248.1	
781.93	5743.9	
782.11	5137	
782.28	5025.7	
782.46	4135.5	
782.64	4956.8	
782.81	5905.7	
782.99	4213.4	
783.17	4182.6	
783.34	5814.9	
783.52	5000.5	
783.69	4416.1	
783.87	5256.5	
784.05	5062.6	
784.22	5091.3	
784.4	5199.1	
784.58	4534.9	
784.75	6124.8	
784.93	5128.8	
785.1	4061.1	
785.28	4776.5	
785.46	5724.8	
785.63	5109.7	
785.81	4045.4	
785.99	3917.1	
786.16	5271.5	
786.34	5652.4	
786.51	3971	
786.69	4385.4	
786.87	4835.9	
787.04	5403.9	
787.22	3855	
787.39	4806.6	
787.57	5064.6	
787.75	6243.6	
787.92	4955.4	
788.1	5010.7	
788.27	5146.5	
788.45	4891.2	
788.63	4674.1	
788.8	3302	
788.98	5689.9	
789.15	4813.4	
789.33	3507.5	
789.5	4209.3	
789.68	6040.1	
789.86	6202.6	
790.03	4651.6	
790.21	3934.8	
790.38	6102.3	
790.56	5231.9	
790.73	3866.6	
790.91	3862.5	
791.09	5071.5	
791.26	5901.6	
791.44	4152.6	
791.61	3466.5	
791.79	5106.3	
791.96	5215.5	
792.14	3629.7	
792.32	3215.3	
792.49	5117.2	
792.67	5245.5	
792.84	3765.5	
793.02	3523.2	
793.19	5489.2	
793.37	6371.9	
793.54	3216.7	
793.72	3612.6	
793.89	6496.2	
794.07	5109	
794.25	4273.4	
794.42	3323.9	
794.6	6266.8	
794.77	5786.9	
794.95	4550.6	
795.12	4009.2	
795.3	5128.1	
795.47	5758.2	
795.65	4348.5	
795.82	4147.1	
796	4840	
796.17	6893.5	
796.35	4042	
796.52	4761.5	
796.7	5661.3	
796.87	5740.5	
797.05	5009.3	
797.22	4927.4	
797.4	5712.5	
797.57	6804.7	
797.75	4083	
797.92	3904.8	
798.1	6066.1	
798.27	5087.2	
798.45	3305.4	
798.62	3615.3	
798.8	5379.3	
798.97	5920.7	
799.15	4411.3	
799.32	4250.2	
799.5	4647.5	
799.67	5541.8	
799.85	4554.7	
800.02	3250.8	
800.2	5070.1	
800.37	5380	
800.55	4677.6	
800.72	3894.6	
800.9	5879	
801.07	6395.1	
801.25	5256.5	
801.42	4334.2	
801.6	5966.4	
801.77	5589.6	
801.95	3850.9	
802.12	3829	
802.29	5628.5	
802.47	5596.4	
802.64	4271.4	
802.82	3197.6	
802.99	5065.3	
803.17	6048.3	
803.34	4143	
803.52	3714.3	
803.69	6791.1	
803.87	4853	
804.04	4086.4	
804.21	4225	
804.39	6186.9	
804.56	5311.1	
804.74	3517.7	
804.91	4367	
805.09	5072.8	
805.26	5163.6	
805.44	3528	
805.61	3950.5	
805.78	5789.6	
805.96	5829.9	
806.13	4283.7	
806.31	4645.5	
806.48	4601.8	
806.66	5181.4	
806.83	4294.6	
807	4211.3	
807.18	5007.3	
807.35	5521.3	
807.53	4205.8	
807.7	3348.4	
807.87	6295.5	
808.05	5099.4	
808.22	4625.7	
808.4	3293.1	
808.57	5164.3	
808.74	4775.9	
808.92	3817.4	
809.09	4887.8	
809.27	5042.1	
809.44	5602.6	
809.61	3396.9	
809.79	3721.2	
809.96	6288.6	
810.14	5909.8	
810.31	3267.2	
810.48	4031.8	
810.66	5217.5	
810.83	5975.3	
811.01	3814	
811.18	4601.1	
811.35	5887.9	
811.53	4566.3	
811.7	4691.9	
811.87	4328	
812.05	5122.7	
812.22	5066.7	
812.39	3693.2	
812.57	3600.3	
812.74	5135.6	
812.92	6905.8	
813.09	3993.5	
813.26	4405.2	
813.44	6603.3	
813.61	5058.5	
813.78	3360	
813.96	4508.3	
814.13	5093.3	
814.3	4804.5	
814.48	4848.9	
814.65	4019.5	
814.82	6423.1	
815	4945.8	
815.17	4159.4	
815.34	5079.6	
815.52	5042.1	
815.69	5019.6	
815.87	4128.7	
816.04	3545	
816.21	5162.9	
816.38	4523.3	
816.56	3962.8	
816.73	3719.1	
816.9	6489.3	
817.08	5893.4	
817.25	3727.3	
817.42	4690.5	
817.6	4689.2	
817.77	5209.3	
817.94	4225.6	
818.12	3698.6	
818.29	4807.3	
818.46	7694.9	
818.64	3833.1	
818.81	3592.8	
818.98	4762.2	
819.16	7032.7	
819.33	4431.1	
819.5	4151.9	
819.67	5524.1	
819.85	6173.9	
820.02	4075.5	
820.19	4246.8	
820.37	5345.2	
820.54	4932.9	
820.71	4201.7	
820.88	5257.8	
821.06	5361.6	
821.23	4881.7	
821.4	4240.7	
821.58	4191.5	
821.75	5892.7	
821.92	5272.8	
822.09	3362.8	
822.27	3523.2	
822.44	5143.8	
822.61	5034.6	
822.79	3409.2	
822.96	6592.4	
823.13	5622.4	
823.3	4827.1	
823.48	3945.8	
823.65	3537.5	
823.82	5866.1	
823.99	4657.8	
824.17	5008	
824.34	3658.4	
824.51	6784.2	
824.68	5132.2	
824.86	3727.3	
825.03	4233.8	
825.2	5102.9	
825.37	6253.8	
825.55	3720.5	
825.72	4126.7	
825.89	6920.8	
826.06	6360.3	
826.24	4067.9	
826.41	4137.6	
826.58	6296.1	
826.75	5385.5	
826.92	3137.5	
827.1	3528	
827.27	8686.8	
827.44	6818.4	
827.61	3865.2	
827.79	4658.4	
827.96	4893.3	
828.13	5204.6	
828.3	4006.5	
828.47	3420.8	
828.65	5351.3	
828.82	5287.2	
828.99	5236.7	
829.16	4530.8	
829.34	5758.9	
829.51	5520.6	
829.68	4205.8	
829.85	4412	
830.02	6049	
830.2	5758.9	
830.37	3194.8	
830.54	5047.6	
830.71	6614.9	
830.88	5109	
831.05	3261	
831.23	3792.8	
831.4	6271.6	
831.57	7066.2	
831.74	3885.7	
831.91	3380.5	
832.09	5365	
832.26	5787.6	
832.43	3993.5	
832.6	4528.7	
832.77	5418.9	
832.94	6170.5	
833.12	3117	
833.29	3941	
833.46	5150	
833.63	7305.1	
833.8	4369.7	
833.97	4001.7	
834.15	5816.2	
834.32	5528.8	
834.49	4168.3	
834.66	4252.3	
834.83	6001.9	
835	4812	
835.17	3818.1	
835.35	3827.7	
835.52	5698.8	
835.69	5543.2	
835.86	4072	
836.03	3325.2	
836.2	5696.8	
836.37	5344.5	
836.55	4001	
836.72	3750.5	
836.89	5268.7	
837.06	5780.1	
837.23	4068.6	
837.4	4429.1	
837.57	6518.7	
837.75	7357.7	
837.92	3668.6	
838.09	3874.1	
838.26	5253.7	
838.43	6098.2	
838.6	4156	
838.77	3725.3	
838.94	6944.7	
839.11	6655.9	
839.29	4009.9	
839.46	3122.5	
839.63	5731.6	
839.8	5428.5	
839.97	3908.2	
840.14	3815.4	
840.31	5505.6	
840.48	5799.2	
840.65	3179.1	
840.82	3827	
841	5720	
841.17	5769.1	
841.34	3616	
841.51	3616.7	
841.68	5644.9	
841.85	5395	
842.02	3719.8	
842.19	3038.5	
842.36	5543.2	
842.53	5504.9	
842.7	3564.1	
842.87	4437.3	
843.05	7274.4	
843.22	5455.8	
843.39	3392.1	
843.56	3709.6	
843.73	5180.7	
843.9	5767.8	
844.07	5780.1	
844.24	4863.9	
844.41	8505.9	
844.58	5016.2	
844.75	3405.8	
844.92	3772.4	
845.09	5756.8	
845.26	5725.4	
845.43	3557.3	
845.6	3815.4	
845.77	5698.1	
845.94	5469.4	
846.12	3937.6	
846.29	4170.3	
846.46	5930.2	
846.63	5750.7	
846.8	3602.4	
846.97	4247.5	
847.14	6263.4	
847.31	5714.5	
847.48	4036.5	
847.65	4424.3	
847.82	6023.8	
847.99	6017.6	
848.16	4799.1	
848.33	4410	
848.5	5233.9	
848.67	6259.3	
848.84	3499.3	
849.01	3683.6	
849.18	5143.8	
849.35	4834.6	
849.52	4472.8	
849.69	3470.6	
849.86	6010.1	
850.03	6176.7	
850.2	3547.8	
850.37	4344.4	
850.54	6149.4	
850.71	5342.5	
850.88	4257.7	
851.05	3509.5	
851.22	5608	
851.39	6332.3	
851.56	3338.2	
851.73	4123.9	
851.9	5051.7	
852.07	5992.4	
852.24	3921.9	
852.41	3458.3	
852.58	5586.9	
852.75	5146.5	
852.92	3989.4	
853.09	3465.2	
853.26	5308.3	
853.43	6171.9	
853.6	3540.3	
853.77	3029.6	
853.94	6268.1	
854.11	5070.8	
854.28	5319.9	
854.44	3842	
854.61	6772.6	
854.78	5808	
854.95	3534.1	
855.12	4504.8	
855.29	4613.4	
855.46	6398.5	
855.63	3525.2	
855.8	4949.3	
855.97	5254.4	
856.14	6077	
856.31	5048.2	
856.48	3896.6	
856.65	5294	
856.82	4992.3	
856.99	3373.7	
857.16	3858.4	
857.33	7037.5	
857.49	5396.4	
857.66	3814	
857.83	4102.8	
858	5373.9	
858.17	5552	
858.34	3345	
858.51	3521.8	
858.68	6483.9	
858.85	6514.6	
859.02	4113.7	
859.19	4382.7	
859.36	5016.8	
859.52	5046.2	
859.69	3589.4	
859.86	4236.6	
860.03	5124.7	
860.2	6382.2	
860.37	3207.1	
860.54	3570.3	
860.71	5971.9	
860.88	6425.2	
861.05	3947.8	
861.21	4555.4	
861.38	6438.8	
861.55	4906.3	
861.72	3220.8	
861.89	4018.8	
862.06	6035.4	
862.23	6509.1	
862.4	3405.8	
862.56	3684.3	
862.73	5816.9	
862.9	5475.6	
863.07	4146.5	
863.24	3235.1	
863.41	4899.4	
863.58	4981.3	
863.75	3619.4	
863.91	4156	
864.08	6411.5	
864.25	5904.3	
864.42	4472.8	
864.59	4987.5	
864.76	6725.5	
864.93	5020.9	
865.09	3425.6	
865.26	3766.2	
865.43	6195.8	
865.6	6683.9	
865.77	3071.3	
865.94	3477.5	
866.1	6285.9	
866.27	6039.5	
866.44	5317.9	
866.61	3330.7	
866.78	5417.6	
866.95	5933.6	
867.11	3394.8	
867.28	3160.7	
867.45	6061.3	
867.62	5132.2	
867.79	4152.6	
867.96	3531.4	
868.12	5106.3	
868.29	6036	
868.46	3067.9	
868.63	4721.9	
868.8	6217.6	
868.97	5903.6	
869.13	3728.7	
869.3	3710.9	
869.47	5838.8	
869.64	6084.5	
869.81	3555.3	
869.97	3559.4	
870.14	5796.4	
870.31	6442.2	
870.48	3422.8	
870.65	4407.2	
870.81	5351.3	
870.98	5362.3	
871.15	3960.8	
871.32	3650.2	
871.48	5857.9	
871.65	6505	
871.82	3580.5	
871.99	3918.4	
872.16	6916	
872.32	6263.4	
872.49	3576.4	
872.66	3585.3	
872.83	5944.6	
872.99	5249.6	
873.16	4072	
873.33	3513.6	
873.5	5628.5	
873.67	5530.2	
873.83	3687.7	
874	4789.5	
874.17	5795.1	
874.34	6862.7	
874.5	4559.5	
874.67	4390.2	
874.84	6399.9	
875.01	5040.7	
875.17	5066.7	
875.34	3540.3	
875.51	5669.5	
875.68	6832	
875.84	4306.2	
876.01	5186.1	
876.18	5898.8	
876.34	5844.2	
876.51	3606.5	
876.68	3466.5	
876.85	5422.3	
877.01	6278.4	
877.18	5074.9	
877.35	3536.8	
877.52	5528.2	
877.68	4952.7	
877.85	3407.8	
878.02	3506.1	
878.18	5505.6	
878.35	5210.7	
878.52	2793.4	
878.69	4023.6	
878.85	5968.5	
879.02	5917.9	
879.19	5145.2	
879.35	3815.4	
879.52	5908.4	
879.69	6208.8	
879.86	3052.8	
880.02	3996.3	
880.19	5438	
880.36	6689.3	
880.52	4055.7	
880.69	4184	
880.86	6071.5	
881.02	6132.3	
881.19	3882.9	
881.36	3886.4	
881.52	5920	
881.69	5235.3	
881.86	3852.9	
882.02	3791.5	
882.19	6213.5	
882.36	7340.6	
882.52	3679.5	
882.69	5012.1	
882.86	5787.6	
883.02	5580	
883.19	4315.8	
883.36	4078.9	
883.52	6073.6	
883.69	6984.9	
883.86	3557.3	
884.02	3190.1	
884.19	5959.6	
884.36	5498.1	
884.52	4042.7	
884.69	3761.4	
884.86	5242.1	
885.02	6630	
885.19	4005.1	
885.36	4117.1	
885.52	5556.8	
885.69	5676.3	
885.86	5174.5	
886.02	4561.5	
886.19	5969.1	
886.35	5390.3	
886.52	3910.9	
886.69	5018.2	
886.85	5117.2	
887.02	6397.9	
887.19	6397.9	
887.35	6397.9	
887.52	6397.9	
887.68	6397.9	
887.85	6397.9	
888.02	6397.9	
888.18	6397.9	
888.35	6397.9	
888.51	6397.9	
888.68	6397.9	
888.85	6397.9	
889.01	6397.9	
889.18	6397.9	
889.35	6397.9	
889.51	6397.9	
889.68	6397.9	
889.84	6397.9	
890.01	6397.9	
890.17	6397.9	
890.34	6397.9	
890.51	6397.9	
890.67	6397.9	
890.84	6397.9	
891	6397.9	
891.17	6397.9	
891.34	6397.9	
891.5	6397.9	
891.67	6397.9	
891.83	6397.9	
892	6397.9	
892.16	6397.9	
892.33	6397.9	
892.5	6397.9	
892.66	6397.9	
892.83	6397.9	
892.99	6397.9	
893.16	6397.9	
893.32	6397.9	
893.49	6397.9	
893.65	6397.9	
893.82	6397.9	
893.99	6397.9	
894.15	6397.9	
894.32	6397.9	
894.48	6397.9	
894.65	6397.9	
894.81	6397.9	
894.98	6397.9	
895.14	6397.9	
895.31	6397.9	
895.47	6397.9	
895.64	6397.9	
895.81	6397.9	
895.97	6397.9	
896.14	6397.9	
896.3	6397.9	
896.47	6397.9	
896.63	6397.9	
896.8	6397.9	
896.96	6397.9	
897.13	6397.9	
897.29	6397.9	
897.46	6397.9	
897.62	6397.9	
897.79	6397.9	
897.95	6397.9	
898.12	6397.9	
898.28	6397.9	
898.45	6397.9	
898.61	6397.9	
898.78	6397.9	
898.94	6397.9	
899.11	6397.9	
899.27	6397.9	
899.44	6397.9	
899.6	6397.9	
899.77	6397.9	
899.93	6397.9	
900.1	6397.9	
900.26	6397.9	
900.43	6397.9	
900.59	6397.9	
900.76	6397.9	
900.92	6397.9	
901.09	6397.9	
901.25	6397.9	
901.42	6397.9	
901.58	6397.9	
901.75	6397.9	
901.91	6397.9	
902.07	6397.9	
902.24	6397.9	
902.4	6397.9	
902.57	6397.9	
902.73	6397.9	
902.9	6397.9	
903.06	6397.9	
903.23	6397.9	
903.39	6397.9	
903.56	6397.9	
903.72	6397.9	
903.88	6397.9	
904.05	6397.9	
904.21	6397.9	
904.38	6397.9	
904.54	6397.9	
904.71	6397.9	
904.87	6397.9	
905.03	6397.9	
905.2	6397.9	
905.36	6397.9	
905.53	6397.9	
905.69	6397.9	
905.86	6397.9	
906.02	6397.9	
906.18	6397.9	
906.35	6397.9	
906.51	6397.9	
906.68	6397.9	
906.84	6397.9	
907.01	6397.9	
907.17	6397.9	
907.33	6397.9	
907.5	6397.9	
907.66	6397.9	
907.83	6397.9	
907.99	6397.9	
908.15	6397.9	
908.32	6397.9	
908.48	6397.9	
908.65	6397.9	
908.81	6397.9	
908.97	6397.9	
909.14	6397.9	
909.3	6397.9	
909.47	6397.9	
909.63	6397.9	
909.79	6397.9	
909.96	6397.9	
910.12	6397.9	
910.28	6397.9	
910.45	6397.9	
910.61	6397.9	
910.78	6397.9	
910.94	6397.9	
911.1	6397.9	
911.27	6397.9	
911.43	6397.9	
911.59	6397.9	
911.76	6397.9	
911.92	6397.9	
912.08	6397.9	
912.25	6397.9	
912.41	6397.9	
912.57	6397.9	
912.74	6397.9	
912.9	6397.9	
913.07	6397.9	
913.23	6397.9	
913.39	6397.9	
913.56	6397.9	
913.72	6397.9	
913.88	6397.9	
914.05	6397.9	
914.21	6397.9	
914.37	6397.9	
914.54	6397.9	
914.7	6397.9	
914.86	6397.9	
915.03	6397.9	
915.19	6397.9	
