Wavelength	Intensities	
nm	a.u.	
179.22	1717.1	
179.44	1710.4	
179.65	1723.7	
179.86	1697.1	
180.08	1687.5	
180.29	3984	
180.51	3070.6	
180.72	4973.2	
180.94	5566.4	
181.15	2697.9	
181.37	2734	
181.58	4764.3	
181.79	5048.9	
182.01	2841.9	
182.22	2991.4	
182.44	5005.9	
182.65	4363.5	
182.87	3649.5	
183.08	3294.5	
183.29	5276.3	
183.51	4431.8	
183.72	2969.6	
183.94	4156.7	
184.15	4767.7	
184.37	4631.8	
184.58	2712.9	
184.79	3494.5	
185.01	4483	
185.22	5016.8	
185.44	3699.3	
185.65	3192.1	
185.86	4695.3	
186.08	4409.3	
186.29	2664.4	
186.51	2835.8	
186.72	4491.9	
186.94	5126.1	
187.15	3224.9	
187.36	3315	
187.58	6435.4	
187.79	4809.3	
188.01	3396.9	
188.22	5072.1	
188.43	5604.6	
188.65	4963.6	
188.86	2806.4	
189.08	3335.5	
189.29	4558.1	
189.5	4567	
189.72	2999.6	
189.93	3067.2	
190.15	5188.9	
190.36	5922.7	
190.57	3353.9	
190.79	3229	
191	5184.1	
191.22	5189.6	
191.43	3348.4	
191.64	2900.6	
191.86	5311.1	
192.07	5117.9	
192.29	2926.5	
192.5	3021.4	
192.71	5182	
192.93	4532.2	
193.14	3016	
193.35	3126.6	
193.57	4558.1	
193.78	5140.4	
194	2491	
194.21	2966.8	
194.42	4421.6	
194.64	4718.5	
194.85	3312.2	
195.07	3756	
195.28	4755.4	
195.49	4225	
195.71	3907.5	
195.92	2822.1	
196.13	4866	
196.35	4948.6	
196.56	4185.4	
196.78	3258.3	
196.99	5896.8	
197.2	5573.9	
197.42	3642	
197.63	3276.1	
197.84	4320.5	
198.06	4865.3	
198.27	3051.5	
198.48	3954.6	
198.7	4521.2	
198.91	4685.8	
199.13	3363.4	
199.34	3239.2	
199.55	5105.6	
199.77	4184	
199.98	2941.6	
200.19	3367.5	
200.41	4690.5	
200.62	4399.7	
200.83	3386.7	
201.05	3612.6	
201.26	4679.6	
201.47	4524	
201.69	2972.3	
201.9	2897.2	
202.11	4756.1	
202.33	5468.1	
202.54	3160	
202.76	3432.4	
202.97	4810.7	
203.18	4811.4	
203.4	3416	
203.61	3401	
203.82	4807.3	
204.04	4491.2	
204.25	3336.1	
204.46	3200.3	
204.68	4732.2	
204.89	4863.2	
205.1	3168.9	
205.32	2850.1	
205.53	4972.5	
205.74	5152.7	
205.96	2525.1	
206.17	3340.9	
206.38	4970.4	
206.6	5091.9	
206.81	3708.9	
207.02	3049.4	
207.24	4963.6	
207.45	5237.3	
207.66	3150.5	
207.88	2745.6	
208.09	4802.5	
208.3	4732.9	
208.52	2968.9	
208.73	3196.2	
208.94	4702.1	
209.15	5218.9	
209.37	3147.7	
209.58	3532.7	
209.79	5132.2	
210.01	4656.4	
210.22	2626.2	
210.43	2699.9	
210.65	4703.5	
210.86	5002.5	
211.07	3125.2	
211.29	2911.5	
211.5	4961.5	
211.71	4713.7	
211.93	2960	
212.14	2951.1	
212.35	4726	
212.56	4828.4	
212.78	3343.7	
212.99	2746.3	
213.2	5444.2	
213.42	4547.9	
213.63	3010.5	
213.84	3149.8	
214.06	4326	
214.27	4329.4	
214.48	3128.6	
214.69	3300.6	
214.91	5261.9	
215.12	5269.4	
215.33	3330	
215.55	3650.8	
215.76	5646.2	
215.97	4986.8	
216.18	3229	
216.4	3193.5	
216.61	4470	
216.82	5057.1	
217.04	2975	
217.25	3042.6	
217.46	5161.6	
217.67	5029.1	
217.89	2642.6	
218.1	2752.5	
218.31	4754.7	
218.53	4880.3	
218.74	3139.5	
218.95	2996.2	
219.16	4737.6	
219.38	5436.7	
219.59	2996.2	
219.8	3480.2	
220.01	5866.1	
220.23	4806.6	
220.44	3786.7	
220.65	2891.7	
220.87	4776.5	
221.08	5205.9	
221.29	2808.4	
221.5	3519.1	
221.72	6199.9	
221.93	4510.3	
222.14	3254.9	
222.35	3835.2	
222.57	4713.1	
222.78	5089.9	
222.99	3178.4	
223.2	3331.4	
223.42	4971.1	
223.63	5044.8	
223.84	2508.8	
224.05	2501.3	
224.27	5811.5	
224.48	5399.8	
224.69	3848.8	
224.9	3271.3	
225.12	4883	
225.33	4698	
225.54	2706.7	
225.75	2979.8	
225.97	4445.5	
226.18	4648.9	
226.39	3131.3	
226.6	2996.2	
226.82	4600.4	
227.03	4426.3	
227.24	3263.1	
227.45	2828.9	
227.67	5081.7	
227.88	5375.9	
228.09	3642.7	
228.3	3615.3	
228.52	5017.5	
228.73	4660.5	
228.94	3129.3	
229.15	2790	
229.36	4738.3	
229.58	4698	
229.79	3125.9	
230	3476.8	
230.21	5557.5	
230.43	4763.6	
230.64	3237.8	
230.85	3344.3	
231.06	5141.1	
231.28	5046.2	
231.49	2831.7	
231.7	3233.7	
231.91	5032.5	
232.12	4701.5	
232.34	2845.3	
232.55	3168.9	
232.76	5188.2	
232.97	4810.7	
233.18	2937.5	
233.4	3272	
233.61	4788.8	
233.82	4547.2	
234.03	3094.5	
234.25	3005.1	
234.46	6247.7	
234.67	4760.2	
234.88	3336.1	
235.09	2955.9	
235.31	4930.1	
235.52	4610.7	
235.73	3256.3	
235.94	2843.9	
236.15	4540.3	
236.37	5540.4	
236.58	2884.9	
236.79	3160.7	
237	4989.5	
237.21	4300.7	
237.43	3386	
237.64	2750.4	
237.85	7776.1	
238.06	4410	
238.27	3363.4	
238.48	2828.9	
238.7	5015.5	
238.91	4635.2	
239.12	3156.6	
239.33	3233.7	
239.54	4432.5	
239.76	4622.9	
239.97	3142.9	
240.18	3151.8	
240.39	5707.7	
240.6	4829.8	
240.82	3274	
241.03	2765.4	
241.24	4691.2	
241.45	5340.4	
241.66	2895.1	
241.87	3403.7	
242.09	5311.7	
242.3	5542.5	
242.51	3418.7	
242.72	3157.3	
242.93	5036	
243.14	4713.7	
243.36	3608.5	
243.57	3831.7	
243.78	5379.3	
243.99	4977.9	
244.2	3213.9	
244.41	2895.1	
244.63	4372.4	
244.84	4903.5	
245.05	3388	
245.26	3126.6	
245.47	5008.6	
245.68	5076.9	
245.9	4018.8	
246.11	3317	
246.32	4582.7	
246.53	4924	
246.74	4913.8	
246.95	2679.4	
247.16	4450.9	
247.38	4735.6	
247.59	2734	
247.8	3179.1	
248.01	4410	
248.22	4681	
248.43	2932.7	
248.64	3145.7	
248.86	4362.2	
249.07	4554	
249.28	2840.5	
249.49	3287	
249.7	5132.2	
249.91	5217.5	
250.12	2763.4	
250.34	2772.3	
250.55	4855.1	
250.76	4726	
250.97	3293.8	
251.18	3295.2	
251.39	5099.4	
251.6	4851.6	
251.81	3344.3	
252.03	3276.1	
252.24	4556	
252.45	5096.7	
252.66	2854.9	
252.87	3403.7	
253.08	4769.7	
253.29	5912.5	
253.5	2891	
253.72	3762.1	
253.93	4650.9	
254.14	5506.3	
254.35	3051.5	
254.56	3069.2	
254.77	4852.3	
254.98	4424.3	
255.19	3020.1	
255.41	3705.5	
255.62	4883.7	
255.83	5196.4	
256.04	3429.7	
256.25	3267.2	
256.46	5627.8	
256.67	4498.7	
256.88	3243.3	
257.09	3578.5	
257.31	4436.6	
257.52	4489.8	
257.73	3993.5	
257.94	3031	
258.15	4668.7	
258.36	4795	
258.57	3684.3	
258.78	2536.8	
258.99	5077.6	
259.2	4629.8	
259.41	3066.5	
259.63	3162.7	
259.84	5360.9	
260.05	5610.8	
260.26	3903.4	
260.47	2981.8	
260.68	5128.8	
260.89	4660.5	
261.1	3601	
261.31	2909.5	
261.52	5231.2	
261.73	5440.8	
261.95	3821.5	
262.16	3358	
262.37	5230.5	
262.58	5379.3	
262.79	3817.4	
263	3059.7	
263.21	4798.4	
263.42	4288.4	
263.63	3308.2	
263.84	3044.6	
264.05	5159.5	
264.26	5406	
264.47	3713	
264.69	3279.5	
264.9	5304.9	
265.11	4866	
265.32	2930	
265.53	3007.8	
265.74	4854.4	
265.95	4263.2	
266.16	3188.7	
266.37	3538.2	
266.58	4804.5	
266.79	4572.4	
267	3061	
267.21	2822.1	
267.42	4435.2	
267.63	4692.6	
267.84	3180.5	
268.06	2800.9	
268.27	5082.4	
268.48	5259.2	
268.69	3119.1	
268.9	3618.1	
269.11	5213.4	
269.32	4300.7	
269.53	3152.5	
269.74	2946.3	
269.95	4911.7	
270.16	4287.8	
270.37	3213.3	
270.58	3629	
270.79	4610	
271	5089.9	
271.21	3319.1	
271.42	3175	
271.63	4881.7	
271.84	4398.4	
272.05	2664.4	
272.26	2843.9	
272.47	4707.6	
272.68	4835.3	
272.89	3088.3	
273.11	3472	
273.32	4583.4	
273.53	5404.6	
273.74	3349.1	
273.95	3311.6	
274.16	5095.3	
274.37	4679.6	
274.58	3510.9	
274.79	2856.9	
275	4917.9	
275.21	5132.9	
275.42	4090.5	
275.63	3503.4	
275.84	4960.2	
276.05	5995.8	
276.26	3362.8	
276.47	3114.3	
276.68	4669.4	
276.89	5401.2	
277.1	3536.8	
277.31	2838.5	
277.52	4933.6	
277.73	5131.5	
277.94	2810.5	
278.15	3024.2	
278.36	4930.8	
278.57	4501.4	
278.78	3092.4	
278.99	3371	
279.2	4479.6	
279.41	4478.2	
279.62	3921.9	
279.83	2863.7	
280.04	5654.4	
280.25	4459.8	
280.46	3827.7	
280.67	3205.1	
280.88	4485.7	
281.09	5242.1	
281.3	3293.8	
281.51	4075.5	
281.72	4513.7	
281.93	5019.6	
282.14	2987.3	
282.35	3205.8	
282.56	5129.5	
282.77	5057.8	
282.98	3099.3	
283.19	3667.9	
283.4	6038.1	
283.61	4685.8	
283.82	2833.7	
284.03	3831.1	
284.24	4855.7	
284.45	5162.2	
284.66	3846.8	
284.87	3722.5	
285.08	5173.2	
285.29	5276.9	
285.5	2812.5	
285.71	3147.7	
285.92	5150.6	
286.12	5673.6	
286.33	3846.1	
286.54	3095.2	
286.75	5070.8	
286.96	4664.6	
287.17	2871.3	
287.38	3670	
287.59	4508.9	
287.8	4515.8	
288.01	3123.8	
288.22	3467.9	
288.43	4989.5	
288.64	4310.3	
288.85	3629	
289.06	3468.6	
289.27	5028.4	
289.48	5338.4	
289.69	3835.8	
289.9	3520.5	
290.11	5264.6	
290.32	4591.5	
290.53	3683.6	
290.74	3399.6	
290.94	5081	
291.15	5141.1	
291.36	3052.2	
291.57	3445.4	
291.78	4612.7	
291.99	4271.4	
292.2	2907.4	
292.41	3371	
292.62	5150.6	
292.83	4975.9	
293.04	4089.1	
293.25	2959.3	
293.46	4612	
293.67	5190.2	
293.88	2915.6	
294.09	2894.5	
294.29	4458.4	
294.5	4837.3	
294.71	3164.8	
294.92	3054.2	
295.13	4588.8	
295.34	5567.7	
295.55	2752.5	
295.76	2696.5	
295.97	5042.8	
296.18	5545.2	
296.39	2880.1	
296.6	2992.8	
296.81	4786.8	
297.01	5070.1	
297.22	3134.8	
297.43	3006.4	
297.64	4550.6	
297.85	4440	
298.06	2587.9	
298.27	2760.7	
298.48	4717.2	
298.69	4543.8	
298.9	3228.3	
299.11	2960.7	
299.31	4403.1	
299.52	4481	
299.73	3439.9	
299.94	3368.2	
300.15	4775.9	
300.36	4474.8	
300.57	3381.2	
300.78	3318.4	
300.99	4650.3	
301.2	4788.8	
301.4	2989.4	
301.61	3196.2	
301.82	4947.2	
302.03	5027.1	
302.24	3552.5	
302.45	2860.3	
302.66	4990.9	
302.87	5213.4	
303.08	2998.9	
303.29	3914.4	
303.49	4542.4	
303.7	4741	
303.91	2735.4	
304.12	3769.6	
304.33	4346.5	
304.54	4870.1	
304.75	3025.5	
304.96	2895.1	
305.16	4954.7	
305.37	5517.2	
305.58	2713.6	
305.79	2727.9	
306	4965.6	
306.21	4284.4	
306.42	2989.4	
306.63	4339.6	
306.83	4608.6	
307.04	5079.6	
307.25	3269.9	
307.46	3260.4	
307.67	4240	
307.88	5019.6	
308.09	2994.1	
308.29	3039.9	
308.5	4831.2	
308.71	5125.4	
308.92	3281.5	
309.13	2871.3	
309.34	4706.9	
309.55	4648.9	
309.75	3701.4	
309.96	3377.8	
310.17	5018.2	
310.38	4448.9	
310.59	3471.3	
310.8	2858.3	
311.01	5477.6	
311.21	4655.7	
311.42	2916.3	
311.63	2940.2	
311.84	4611.3	
312.05	4775.9	
312.26	3338.9	
312.46	3585.3	
312.67	4621.6	
312.88	4309.6	
313.09	2868.5	
313.3	2894.5	
313.51	5341.8	
313.71	5600.5	
313.92	2942.9	
314.13	3049.4	
314.34	4883.7	
314.55	4732.9	
314.76	3597.6	
314.96	3178.4	
315.17	4865.3	
315.38	5034.6	
315.59	2905.4	
315.8	2786.6	
316.01	5225.1	
316.21	5438.7	
316.42	2878.8	
316.63	3159.3	
316.84	4640.7	
317.05	5257.1	
317.26	3415.3	
317.46	3112.9	
317.67	4668.7	
317.88	5045.5	
318.09	3571	
318.3	2734.7	
318.5	4586.1	
318.71	4937	
318.92	4470	
319.13	3360.7	
319.34	5083.7	
319.54	5142.4	
319.75	2770.9	
319.96	2657.6	
320.17	4969.1	
320.38	5156.8	
320.58	2685.6	
320.79	3185.3	
321	5178.6	
321.21	5252.4	
321.42	3194.8	
321.62	2709.5	
321.83	4515.8	
322.04	4752	
322.25	3091.1	
322.46	2910.8	
322.66	4846.9	
322.87	5021.6	
323.08	3491.1	
323.29	2868.5	
323.5	5578.7	
323.7	4364.9	
323.91	3852.9	
324.12	3441.3	
324.33	4828.4	
324.53	4940.4	
324.74	3358.7	
324.95	3461.7	
325.16	4348.5	
325.37	4609.3	
325.57	2929.3	
325.78	2969.6	
325.99	4838	
326.2	4361.5	
326.4	4113.7	
326.61	2743.6	
326.82	4688.5	
327.03	4810.7	
327.24	3976.5	
327.44	3771	
327.65	4950.6	
327.86	4059.8	
328.07	3362.8	
328.27	2818	
328.48	5298.8	
328.69	4435.2	
328.9	4014	
329.1	3107.5	
329.31	4677.6	
329.52	5242.8	
329.73	2964.1	
329.93	3233.1	
330.14	4809.3	
330.35	4866	
330.56	4527.4	
330.76	3432.4	
330.97	4592.9	
331.18	4828.4	
331.39	3212.6	
331.59	2631.6	
331.8	5163.6	
332.01	5253.7	
332.22	2967.5	
332.42	3340.9	
332.63	4793.6	
332.84	4483	
333.05	3304.1	
333.25	2984.6	
333.46	4465.9	
333.67	4732.9	
333.88	3040.6	
334.08	3269.9	
334.29	6230.6	
334.5	5137.7	
334.7	2818	
334.91	4008.6	
335.12	4410	
335.33	5036	
335.53	3205.8	
335.74	4526.7	
335.95	4642.1	
336.16	4435.9	
336.36	3224.2	
336.57	3583.9	
336.78	4343.1	
336.98	5186.1	
337.19	3898.6	
337.4	3101.3	
337.61	5599.1	
337.81	4373.8	
338.02	2987.3	
338.23	3674.7	
338.43	5354.1	
338.64	4472.8	
338.85	2983.2	
339.05	3801	
339.26	5397.8	
339.47	4316.4	
339.68	2973	
339.88	4096.6	
340.09	4930.8	
340.3	5072.1	
340.5	3345.7	
340.71	2660.3	
340.92	4405.2	
341.13	5224.4	
341.33	2828.2	
341.54	3392.8	
341.75	4926.7	
341.95	4612	
342.16	3267.2	
342.37	3503.4	
342.57	4412.7	
342.78	4687.1	
342.99	3529.3	
343.19	2690.3	
343.4	5070.8	
343.61	4904.2	
343.81	3113.6	
344.02	2847.4	
344.23	5057.1	
344.43	5322.7	
344.64	3545	
344.85	3488.4	
345.06	4981.3	
345.26	5157.5	
345.47	3344.3	
345.68	3873.4	
345.88	4322.6	
346.09	5111	
346.3	3398.9	
346.5	2614.6	
346.71	4707.6	
346.92	4514.4	
347.12	2796.8	
347.33	3300	
347.54	5110.4	
347.74	5375.9	
347.95	3274	
348.16	2564.7	
348.36	4600.4	
348.57	4425	
348.78	3344.3	
348.98	3514.3	
349.19	4659.8	
349.39	4296.6	
349.6	2709.5	
349.81	3017.3	
350.01	4894.6	
350.22	4515.8	
350.43	3288.4	
350.63	3722.5	
350.84	4732.2	
351.05	4503.5	
351.25	2916.3	
351.46	2721.1	
351.67	5080.3	
351.87	4487.1	
352.08	3121.1	
352.29	3467.2	
352.49	5042.1	
352.7	5094	
352.9	2837.8	
353.11	3488.4	
353.32	5477	
353.52	4550.6	
353.73	2818	
353.94	3544.4	
354.14	4961.5	
354.35	4790.2	
354.55	2963.4	
354.76	3213.9	
354.97	4919.9	
355.17	4739.7	
355.38	2772.9	
355.59	3654.9	
355.79	4444.1	
356	4724.7	
356.2	3244.7	
356.41	2809.8	
356.62	4281.6	
356.82	4667.3	
357.03	3396.9	
357.24	3094.5	
357.44	4435.9	
357.65	4569	
357.85	3984	
358.06	3245.3	
358.27	4254.3	
358.47	4467.3	
358.68	2755.2	
358.88	3424.2	
359.09	4868.7	
359.3	5112.4	
359.5	3890.5	
359.71	3478.8	
359.91	5397.1	
360.12	4943.1	
360.33	3464.5	
360.53	3686.3	
360.74	4484.4	
360.94	4511.7	
361.15	3539.6	
361.36	2964.8	
361.56	5062.6	
361.77	4642.7	
361.97	3846.8	
362.18	3099.9	
362.38	5078.3	
362.59	4341	
362.8	2872.6	
363	2810.5	
363.21	4206.5	
363.41	4713.1	
363.62	3254.2	
363.83	3970.3	
364.03	4848.9	
364.24	5449.6	
364.44	4119.8	
364.65	4074.1	
364.85	4643.4	
365.06	4375.8	
365.27	3011.2	
365.47	3128.6	
365.68	5344.5	
365.88	4580.6	
366.09	3295.2	
366.29	3097.9	
366.5	4747.2	
366.71	5068	
366.91	4027.7	
367.12	3467.2	
367.32	5509.7	
367.53	4887.8	
367.73	3439.2	
367.94	4121.9	
368.14	5020.9	
368.35	5519.3	
368.56	3390.1	
368.76	2925.9	
368.97	5079	
369.17	6226.5	
369.38	3041.2	
369.58	3213.3	
369.79	4330.1	
369.99	5287.9	
370.2	4059.8	
370.4	3312.2	
370.61	4803.2	
370.82	5700.2	
371.02	3260.4	
371.23	2738.1	
371.43	4311.7	
371.64	5262.6	
371.84	3270.6	
372.05	4090.5	
372.25	6139.8	
372.46	4977.2	
372.66	3237.2	
372.87	3175	
373.07	5053	
373.28	6223.8	
373.48	3997	
373.69	3775.8	
373.9	4661.9	
374.1	4751.3	
374.31	3927.3	
374.51	3586.7	
374.72	5247.6	
374.92	4425.7	
375.13	4011.3	
375.33	3427.6	
375.54	4969.1	
375.74	4543.8	
375.95	3555.3	
376.15	4390.2	
376.36	4981.3	
376.56	4843.4	
376.77	3568.9	
376.97	3794.9	
377.18	5730.2	
377.38	5036	
377.59	4042.7	
377.79	3163.4	
378	4861.2	
378.2	5160.9	
378.41	3204.4	
378.61	3102	
378.82	5271.5	
379.02	4675.5	
379.23	3312.9	
379.43	4146.5	
379.64	5327.4	
379.84	5027.1	
380.05	3236.5	
380.25	3147	
380.46	5065.3	
380.66	4770.4	
380.87	4184	
381.07	4468	
381.28	5563.6	
381.48	5102.9	
381.69	3252.9	
381.89	3291.1	
382.1	4356.7	
382.3	5141.1	
382.51	4078.9	
382.71	4717.2	
382.91	5031.2	
383.12	5373.9	
383.32	3560.1	
383.53	3672	
383.73	4927.4	
383.94	4874.2	
384.14	3700	
384.35	3003.7	
384.55	4717.2	
384.76	5068.7	
384.96	3525.2	
385.17	3678.2	
385.37	5100.1	
385.58	4560.1	
385.78	3704.8	
385.98	2972.3	
386.19	4726	
386.39	4995.7	
386.6	3324.5	
386.8	3480.9	
387.01	5075.5	
387.21	5107	
387.42	3807.2	
387.62	4166.3	
387.83	4618.9	
388.03	4926.7	
388.23	3612.6	
388.44	4044.7	
388.64	4320.5	
388.85	4423.6	
389.05	3819.5	
389.26	4224.3	
389.46	5905.7	
389.67	5470.8	
389.87	3741	
390.07	3753.9	
390.28	4808.6	
390.48	4474.8	
390.69	3265.8	
390.89	3495.2	
391.1	4683	
391.3	5348.6	
391.5	4356.7	
391.71	4696.7	
391.91	5174.5	
392.12	5772.5	
392.32	4391.5	
392.53	3783.3	
392.73	4749.2	
392.93	4848.9	
393.14	3603.1	
393.34	4203.1	
393.55	5203.9	
393.75	4824.3	
393.95	3522.5	
394.16	3522.5	
394.36	4711	
394.57	5194.3	
394.77	3166.8	
394.98	3411.2	
395.18	4674.1	
395.38	4728.1	
395.59	4108.2	
395.79	3381.2	
396	4767	
396.2	5103.5	
396.4	4005.8	
396.61	3969.6	
396.81	5160.2	
397.02	4683	
397.22	4102.8	
397.42	4194.2	
397.63	5253.7	
397.83	4721.9	
398.04	3353.9	
398.24	3731.4	
398.44	5081	
398.65	4407.2	
398.85	3207.1	
399.05	3307.5	
399.26	4674.1	
399.46	5863.3	
399.67	3604.4	
399.87	3382.6	
400.07	4911.7	
400.28	5200.5	
400.48	3501.3	
400.69	4212	
400.89	5284.4	
401.09	5675.6	
401.3	3451.5	
401.5	4152.6	
401.7	5770.5	
401.91	6008.1	
402.11	3645.4	
402.32	3837.9	
402.52	5421.7	
402.72	5338.4	
402.93	3964.2	
403.13	3132.7	
403.33	5931.6	
403.54	4958.8	
403.74	3756	
403.94	4384	
404.15	5026.4	
404.35	5853.8	
404.56	3585.3	
404.76	4893.3	
404.96	5357.5	
405.17	5214.8	
405.37	4476.9	
405.57	3989.4	
405.78	5329.5	
405.98	5008	
406.18	3607.8	
406.39	4209.3	
406.59	5357.5	
406.79	5022.3	
407	3426.3	
407.2	3481.5	
407.4	5562.3	
407.61	5463.3	
407.81	3540.9	
408.01	5124	
408.22	4607.2	
408.42	5956.9	
408.62	4311.7	
408.83	3833.1	
409.03	5065.3	
409.23	5001.8	
409.44	3989.4	
409.64	4093.2	
409.84	5756.8	
410.05	5707	
410.25	4119.8	
410.45	3923.9	
410.66	5379.3	
410.86	7133.1	
411.06	4235.2	
411.27	4107.5	
411.47	6974	
411.67	5474.9	
411.88	4334.9	
412.08	4508.3	
412.28	5905	
412.49	6211.5	
412.69	4197.7	
412.89	4252.3	
413.09	6110.5	
413.3	6113.2	
413.5	4295.3	
413.7	3988.8	
413.91	5608	
414.11	6179.4	
414.31	4151.2	
414.52	4429.8	
414.72	5958.2	
414.92	5831.2	
415.12	4132.8	
415.33	4559.5	
415.53	6115.2	
415.73	6298.2	
415.94	4807.3	
416.14	4346.5	
416.34	5494.7	
416.55	5229.8	
416.75	5346.6	
416.95	4870.8	
417.15	6171.2	
417.36	6718.7	
417.56	5452.4	
417.76	4698.7	
417.97	6465.4	
418.17	6173.9	
418.37	4439.3	
418.57	4447.5	
418.78	6176	
418.98	5858.6	
419.18	5154.1	
419.38	5042.1	
419.59	5864	
419.79	5586.2	
419.99	4428.4	
420.2	4628.4	
420.4	6220.4	
420.6	6354.8	
420.8	4313	
421.01	4205.8	
421.21	6154.8	
421.41	6191	
421.61	4661.9	
421.82	4405.2	
422.02	5783.5	
422.22	6492.1	
422.42	4963.6	
422.63	4741.7	
422.83	5874.3	
423.03	6777.4	
423.23	4768.4	
423.44	4055	
423.64	5890	
423.84	5631.9	
424.04	4388.1	
424.25	4093.2	
424.45	6511.2	
424.65	6406.7	
424.85	3945.1	
425.06	4442.7	
425.26	6662	
425.46	5791.7	
425.66	4689.2	
425.87	4526.7	
426.07	6393.8	
426.27	6249	
426.47	4657.1	
426.67	4102.8	
426.88	6631.3	
427.08	6176.7	
427.28	4887.1	
427.48	4154.6	
427.69	5459.2	
427.89	5931.6	
428.09	4747.9	
428.29	4152.6	
428.5	6318.7	
428.7	5987.6	
428.9	4059.8	
429.1	4429.8	
429.3	5999.2	
429.51	6257.2	
429.71	4310.3	
429.91	4856.4	
430.11	6350.1	
430.31	6381.5	
430.52	4554	
430.72	4840.7	
430.92	6629.3	
431.12	6317.3	
431.32	4292.5	
431.53	4731.5	
431.73	5455.8	
431.93	6704.4	
432.13	4204.5	
432.33	4147.1	
432.54	5799.2	
432.74	5997.1	
432.94	4101.4	
433.14	4892.6	
433.34	6343.9	
433.55	5933.6	
433.75	4869.4	
433.95	6132.3	
434.15	6102.3	
434.35	5885.9	
434.56	4283.7	
434.76	3895.2	
434.96	6101.6	
435.16	6210.8	
435.36	4242.7	
435.56	5075.5	
435.77	5836	
435.97	6058.6	
436.17	5557.5	
436.37	4956.1	
436.57	5855.8	
436.78	5798.5	
436.98	6348.7	
437.18	5408.7	
437.38	6251.8	
437.58	5961	
437.78	5565.7	
437.99	4605.9	
438.19	6352.8	
438.39	7395.9	
438.59	4521.9	
438.79	4161.5	
438.99	6897.6	
439.2	5992.4	
439.4	4184.7	
439.6	4148.5	
439.8	6119.3	
440	6917.4	
440.2	5082.4	
440.4	5052.3	
440.61	6481.8	
440.81	6888	
441.01	4392.9	
441.21	5081	
441.41	6911.2	
441.61	6513.2	
441.81	5237.3	
442.02	6058.6	
442.22	7199.3	
442.42	6593.1	
442.62	4440.7	
442.82	4600.4	
443.02	7005.4	
443.22	6278.4	
443.43	4846.2	
443.63	4394.9	
443.83	6049.7	
444.03	6096.8	
444.23	5426.4	
444.43	5148.6	
444.63	6462.7	
444.83	7209.5	
445.04	4707.6	
445.24	5594.4	
445.44	6645	
445.64	6708.5	
445.84	5133.6	
446.04	5203.9	
446.24	6125.5	
446.44	6873	
446.65	4629.8	
446.85	4911.7	
447.05	6439.5	
447.25	6876.4	
447.45	4984.8	
447.65	4489.1	
447.85	6388.3	
448.05	6035.4	
448.25	5189.6	
448.46	5020.9	
448.66	6408.8	
448.86	6166.4	
449.06	4423.6	
449.26	5235.3	
449.46	6711.2	
449.66	5982.1	
449.86	4990.9	
450.06	4815.5	
450.26	6152.8	
450.47	6534.4	
450.67	5151.3	
450.87	5309.7	
451.07	6748.1	
451.27	6471.6	
451.47	4634.6	
451.67	4954	
451.87	6282.5	
452.07	7049.8	
452.27	4784.7	
452.47	4790.2	
452.67	6475.7	
452.88	6776.7	
453.08	4366.3	
453.28	5750.7	
453.48	7416.4	
453.68	6468.9	
453.88	4742.4	
454.08	4803.9	
454.28	6753.5	
454.48	6508.4	
454.68	5339.1	
454.88	5633.3	
455.08	6867.5	
455.28	6548	
455.48	4659.8	
455.68	5081.7	
455.89	7164.5	
456.09	6889.4	
456.29	4896	
456.49	5006.6	
456.69	7101.7	
456.89	6552.8	
457.09	5369.1	
457.29	5564.3	
457.49	6808.1	
457.69	6888.7	
457.89	5317.2	
458.09	4737.6	
458.29	6637.5	
458.49	7239.6	
458.69	5542.5	
458.89	5152.7	
459.09	7379.5	
459.29	7548.1	
459.49	5266.7	
459.69	5803.3	
459.9	7050.5	
460.1	6713.2	
460.3	5155.4	
460.5	4945.8	
460.7	7086.7	
460.9	6760.3	
461.1	4831.8	
461.3	5743.2	
461.5	7561.1	
461.7	7249.1	
461.9	5038	
462.1	5411.4	
462.3	6941.9	
462.5	7331.7	
462.7	5175.2	
462.9	5235.3	
463.1	8105.9	
463.3	7849.2	
463.5	5431.9	
463.7	6054.5	
463.9	7150.1	
464.1	7338.6	
464.3	5550.7	
464.5	5712.5	
464.7	7625.3	
464.9	7380.9	
465.1	6724.2	
465.3	5991	
465.5	7863.5	
465.7	7896.3	
465.9	6255.2	
466.1	5999.2	
466.3	7673.1	
466.5	7596.6	
466.7	6721.4	
466.9	5924.1	
467.1	7714	
467.3	8241	
467.5	6704.4	
467.7	5900.9	
467.9	8429.4	
468.1	9075.9	
468.3	6444.3	
468.5	6782.9	
468.7	7682.6	
468.9	7539.9	
469.1	6066.1	
469.3	6644.3	
469.5	9086.2	
469.7	7443	
469.9	6460	
470.1	5965.7	
470.3	7761.8	
470.5	7799.3	
470.7	6882.5	
470.9	6047	
471.1	7481.2	
471.3	7869	
471.5	5955.5	
471.69	7285.3	
471.89	7521.5	
472.09	7085.3	
472.29	6516	
472.49	6741.9	
472.69	7243.7	
472.89	7892.9	
473.09	5933.6	
473.29	5894.1	
473.49	7400.7	
473.69	7428	
473.89	6613.6	
474.09	6087.9	
474.29	8421.9	
474.49	8075.1	
474.69	6571.2	
474.89	6110.5	
475.09	7562.5	
475.29	7466.9	
475.49	5748	
475.69	5909.1	
475.88	8620.6	
476.08	7800	
476.28	5705.6	
476.48	5939.8	
476.68	8060.8	
476.88	7822.6	
477.08	5988.3	
477.28	6133.7	
477.48	7533.8	
477.68	7986.4	
477.88	5861.3	
478.08	6012.2	
478.28	8289.5	
478.48	7651.9	
478.67	6034.7	
478.87	5659.9	
479.07	8142.7	
479.27	7735.2	
479.47	6184.2	
479.67	6175.3	
479.87	7963.2	
480.07	8378.9	
480.27	5718.6	
480.47	6810.2	
480.67	7704.5	
480.87	8342.1	
481.06	5842.9	
481.26	6630	
481.46	7724.3	
481.66	7660.1	
481.86	6221.7	
482.06	6968.6	
482.26	7462.1	
482.46	8067.6	
482.66	6257.9	
482.86	5976.7	
483.05	7885.4	
483.25	7352.9	
483.45	8016.4	
483.65	6188.3	
483.85	7427.3	
484.05	7680.6	
484.25	6577.4	
484.45	6973.3	
484.65	8297.7	
484.84	8346.8	
485.04	6164.4	
485.24	6212.2	
485.44	8637.6	
485.64	7352.9	
485.84	5682.4	
486.04	6690	
486.24	7630	
486.44	7914.7	
486.63	5727.5	
486.83	6350.1	
487.03	7574.8	
487.23	7755	
487.43	5803.3	
487.63	7621.9	
487.83	7841	
488.02	8395.3	
488.22	6514.6	
488.42	7007.5	
488.62	8505.2	
488.82	7651.9	
489.02	6266.1	
489.22	6296.8	
489.41	8398	
489.61	8140	
489.81	6147.3	
490.01	6166.4	
490.21	8375.5	
490.41	8971.5	
490.61	6062	
490.8	6180.1	
491	8050.6	
491.2	7491.5	
491.4	6578.1	
491.6	6006.7	
491.8	8002.1	
491.99	7950.9	
492.19	5852.4	
492.39	6055.2	
492.59	8342.1	
492.79	8324.3	
492.99	6803.4	
493.18	6030.6	
493.38	8492.9	
493.58	9084.8	
493.78	6720.1	
493.98	6324.8	
494.18	8251.3	
494.37	7919.5	
494.57	6922.8	
494.77	6860	
494.97	8469.7	
495.17	8690.9	
495.37	6511.2	
495.56	6798.6	
495.76	8862.9	
495.96	8717.5	
496.16	7557.7	
496.36	6707.8	
496.55	8856.1	
496.75	8401.5	
496.95	7035.5	
497.15	6944.7	
497.35	8860.9	
497.54	8759.2	
497.74	6825.2	
497.94	8020.5	
498.14	9355.1	
498.34	9155.8	
498.53	6729.6	
498.73	7206.8	
498.93	8390.5	
499.13	8867.7	
499.33	7114.6	
499.52	7419.1	
499.72	8908	
499.92	9007.6	
500.12	6957.6	
500.32	7088.7	
500.51	9035.6	
500.71	8896.4	
500.91	7651.2	
501.11	7378.1	
501.31	9020.6	
501.5	9305.3	
501.7	7963.9	
501.9	7167.2	
502.1	8812.4	
502.29	9194.7	
502.49	7551.5	
502.69	7823.9	
502.89	9042.5	
503.09	9090.3	
503.28	6798.6	
503.48	6825.9	
503.68	8579.6	
503.88	8471.1	
504.07	7539.9	
504.27	7180.2	
504.47	8817.9	
504.67	8854.7	
504.86	7536.5	
505.06	7266.9	
505.26	8592.6	
505.46	9676	
505.65	7215	
505.85	7335.8	
506.05	8527.1	
506.25	8830.2	
506.44	6689.3	
506.64	7218.4	
506.84	8414.4	
507.04	8982.4	
507.23	6867.5	
507.43	7202	
507.63	9813.2	
507.83	8460.8	
508.02	7298.3	
508.22	6880.5	
508.42	9968.1	
508.62	8346.2	
508.81	7062.8	
509.01	7456.7	
509.21	8304.5	
509.4	8473.8	
509.6	7324.9	
509.8	6775.4	
510	8464.9	
510.19	9370.8	
510.39	6791.1	
510.59	6851.8	
510.79	8389.2	
510.98	9454.1	
511.18	6976.1	
511.38	6994.5	
511.57	9033.6	
511.77	8734.6	
511.97	7443.7	
512.17	6786.3	
512.36	8977.6	
512.56	8804.2	
512.76	6781.5	
512.95	6596.5	
513.15	9103.9	
513.35	8017.1	
513.55	7433.4	
513.74	6764.4	
513.94	8997.4	
514.14	8469	
514.33	7464.2	
514.53	7365.9	
514.73	8600.8	
514.92	8615.1	
515.12	6842.3	
515.32	6836.8	
515.51	8736	
515.71	9093	
515.91	8120.2	
516.11	6855.9	
516.3	9925.8	
516.5	8512	
516.7	7299	
516.89	7677.2	
517.09	8510	
517.29	8577.6	
517.48	7699.7	
517.68	7045.7	
517.88	8258.8	
518.07	8843.8	
518.27	7538.6	
518.47	6735.1	
518.66	9198.8	
518.86	8219.9	
519.06	6668.2	
519.25	6994.5	
519.45	8471.1	
519.65	9562	
519.84	7524.2	
520.04	8011.7	
520.24	9884.2	
520.43	8927.8	
520.63	7340.6	
520.83	7088	
521.02	8393.3	
521.22	8860.9	
521.42	7459.4	
521.61	7783	
521.81	8520.2	
522.01	8701.8	
522.2	7342	
522.4	7154.9	
522.6	9138.7	
522.79	8128.4	
522.99	7232.1	
523.18	6802.7	
523.38	8925.7	
523.58	8963.3	
523.77	8112.7	
523.97	6817.7	
524.17	10328	
524.36	9744.2	
524.56	7910.6	
524.76	7602.1	
524.95	8995.4	
525.15	8710	
525.34	7483.3	
525.54	7486	
525.74	9354.4	
525.93	8652.7	
526.13	8530.5	
526.33	7570.7	
526.52	9739.5	
526.72	9263	
526.91	8574.8	
527.11	8066.9	
527.31	9766.1	
527.5	9923.8	
527.7	7843	
527.89	7254.6	
528.09	8957.8	
528.29	9413.8	
528.48	8260.8	
528.68	8025.3	
528.87	9788.6	
529.07	9705.3	
529.27	7968	
529.46	7696.3	
529.66	9563.3	
529.85	9753.8	
530.05	7580.9	
530.25	8041.7	
530.44	10501	
530.64	9486.2	
530.83	7871.7	
531.03	8000.7	
531.23	9826.8	
531.42	9655.5	
531.62	8495	
531.81	7970.7	
532.01	9953.1	
532.21	10206	
532.4	7855.3	
532.6	8154.3	
532.79	10653	
532.99	10013	
533.18	8318.8	
533.38	8990.6	
533.58	9775	
533.77	10303	
533.97	8379.6	
534.16	8902.5	
534.36	10576	
534.55	9880.1	
534.75	9088.2	
534.95	8474.5	
535.14	10535	
535.34	9936.1	
535.53	8200.7	
535.73	9529.2	
535.92	10909	
536.12	9855.5	
536.31	8142.7	
536.51	9166	
536.71	10215	
536.9	9917.6	
537.1	8214.4	
537.29	8460.8	
537.49	10531	
537.68	9794.8	
537.88	8755.1	
538.07	8104.5	
538.27	10050	
538.46	10785	
538.66	8053.3	
538.86	8415.8	
539.05	10157	
539.25	10378	
539.44	8779.6	
539.64	8435.6	
539.83	10025	
540.03	10692	
540.22	8273.8	
540.42	8391.2	
540.61	10148	
540.81	10207	
541	8713.4	
541.2	9068.4	
541.39	9762.7	
541.59	10116	
541.78	8876.6	
541.98	8330.5	
542.18	9574.3	
542.37	9542.9	
542.57	8473.1	
542.76	8874.5	
542.96	9624.8	
543.15	10070	
543.35	8485.4	
543.54	8066.9	
543.74	10121	
543.93	9895.8	
544.13	8428.8	
544.32	9219.3	
544.52	10181	
544.71	9598.1	
544.91	7769.3	
545.1	8548.2	
545.3	9671.9	
545.49	9970.2	
545.69	7785.7	
545.88	8157.7	
546.08	10818	
546.27	10388	
546.47	8574.8	
546.66	7931.1	
546.86	10222	
547.05	10639	
547.24	8116.8	
547.44	8116.8	
547.63	9421.3	
547.83	10210	
548.02	8360.5	
548.22	8494.3	
548.41	9183.1	
548.61	10198	
548.8	8036.2	
549	7940.7	
549.19	9810.5	
549.39	10111	
549.58	7707.9	
549.78	8194.6	
549.97	10045	
550.17	9647.3	
550.36	8812.4	
550.55	9586.5	
550.75	9607	
550.94	10324	
551.14	7841	
551.33	8079.2	
551.53	9116.2	
551.72	9809.8	
551.92	8162.5	
552.11	8022.6	
552.31	9942.2	
552.5	9840.5	
552.69	9184.5	
552.89	7675.8	
553.08	9798.8	
553.28	9617.3	
553.47	7954.3	
553.67	8781.7	
553.86	10322	
554.06	9035	
554.25	7362.4	
554.44	7764.5	
554.64	10841	
554.83	10555	
555.03	7788.4	
555.22	8073.1	
555.42	10018	
555.61	9745.6	
555.8	7918.1	
556	8128.4	
556.19	9029.5	
556.39	9934.7	
556.58	7949.5	
556.78	8023.9	
556.97	9590.6	
557.16	9481.4	
557.36	8871.1	
557.55	7681.9	
557.75	8925	
557.94	10261	
558.13	7738.6	
558.33	7530.4	
558.52	10089	
558.72	9243.8	
558.91	7647.1	
559.1	7798	
559.3	9008.3	
559.49	8728.4	
559.69	7348.8	
559.88	7988.4	
560.07	9470.5	
560.27	9930.6	
560.46	8157.7	
560.66	8262.9	
560.85	9466.4	
561.04	8755.7	
561.24	7543.4	
561.43	7640.3	
561.63	8959.2	
561.82	9230.2	
562.01	8557.8	
562.21	7913.4	
562.4	9521.7	
562.59	10249	
562.79	7832.8	
562.98	7513.3	
563.18	9422	
563.37	10494	
563.56	8103.8	
563.76	7580.9	
563.95	9126.4	
564.14	9111.4	
564.34	7907.2	
564.53	7628.7	
564.73	9544.2	
564.92	9721.7	
565.11	8046.5	
565.31	7486.7	
565.5	10024	
565.69	9024	
565.89	7721.5	
566.08	7869.7	
566.27	9796.8	
566.47	10170	
566.66	8419.2	
566.85	7496.2	
567.05	9532.6	
567.24	9182.4	
567.44	7511.3	
567.63	8608.3	
567.82	9782.5	
568.02	9499.2	
568.21	7569.3	
568.4	7838.9	
568.6	9482.1	
568.79	9420.7	
568.98	7520.1	
569.18	7634.8	
569.37	9430.2	
569.56	10815	
569.76	8011	
569.95	8630.8	
570.14	9798.2	
570.34	9567.4	
570.53	7593.2	
570.72	7556.3	
570.91	10008	
571.11	9398.8	
571.3	7944.8	
571.49	8585.1	
571.69	9577	
571.88	9182.4	
572.07	8328.4	
572.27	8320.9	
572.46	9075.2	
572.65	9818	
572.85	7793.9	
573.04	8026	
573.23	10127	
573.43	9527.8	
573.62	7661.5	
573.81	8054.7	
574	9685.5	
574.2	9427.5	
574.39	7935.2	
574.58	7943.4	
574.78	10275	
574.97	9769.5	
575.16	8327	
575.36	8393.3	
575.55	10131	
575.74	10129	
575.93	7595.2	
576.13	8514.1	
576.32	9519.6	
576.51	10066	
576.71	8099.7	
576.9	8910.7	
577.09	10297	
577.28	9768.1	
577.48	8316.1	
577.67	7651.2	
577.86	9530.6	
578.05	9800.9	
578.25	8053.3	
578.44	8155.7	
578.63	9574.9	
578.83	10549	
579.02	7684.7	
579.21	8879.3	
579.4	9860.3	
579.6	9574.3	
579.79	8164.6	
579.98	9843.2	
580.17	10016	
580.37	10200	
580.56	7794.6	
580.75	8393.3	
580.94	10281	
581.14	10450	
581.33	8720.9	
581.52	7955	
581.71	10003	
581.91	10554	
582.1	7766.6	
582.29	8163.9	
582.48	9630.9	
582.68	9712.8	
582.87	8497.7	
583.06	8284.7	
583.25	10036	
583.45	9440.5	
583.64	8697.7	
583.83	9291.6	
584.02	9662.3	
584.21	9994.1	
584.41	8641.7	
584.6	8201.4	
584.79	9796.8	
584.98	10324	
585.18	7901.7	
585.37	7699.7	
585.56	9531.2	
585.75	10094	
585.94	7986.4	
586.14	8408.3	
586.33	10484	
586.52	9787.9	
586.71	8357.8	
586.91	8081.3	
587.1	9216.5	
587.29	9990.7	
587.48	8033.5	
587.67	7883.3	
587.87	9813.9	
588.06	9840.5	
588.25	8845.2	
588.44	8368.7	
588.63	9559.9	
588.83	9937.4	
589.02	7985.7	
589.21	7905.2	
589.4	9429.5	
589.59	9282.8	
589.78	7260.7	
589.98	7418.4	
590.17	8838.4	
590.36	9275.3	
590.55	6882.5	
590.74	7417.1	
590.94	10068	
591.13	9045.9	
591.32	7279.8	
591.51	6892.1	
591.7	9382.4	
591.89	9050.7	
592.09	6911.2	
592.28	7319.4	
592.47	8484.7	
592.66	9882.1	
592.85	7055.3	
593.05	7286.7	
593.24	8996.7	
593.43	9530.6	
593.62	7268.2	
593.81	7690.1	
594	9045.9	
594.19	9051.3	
594.39	7173.4	
594.58	7071	
594.77	9187.2	
594.96	9531.2	
595.15	7144	
595.34	7593.9	
595.54	9149.6	
595.73	8539.3	
595.92	6647.7	
596.11	7451.2	
596.3	9595.4	
596.49	8600.8	
596.68	7334.5	
596.88	7534.5	
597.07	9247.3	
597.26	8393.3	
597.45	6926.9	
597.64	7823.2	
597.83	8697	
598.02	9121.7	
598.22	6965.1	
598.41	7469.6	
598.6	8984.4	
598.79	8462.2	
598.98	7025.9	
599.17	7671	
599.36	8995.4	
599.55	9729.2	
599.74	8439.7	
599.94	8277.2	
600.13	9336	
600.32	8391.2	
600.51	6819.7	
600.7	6931.7	
600.89	9694.4	
601.08	9836.4	
601.27	6726.2	
601.47	7461.4	
601.66	9191.3	
601.85	9536	
602.04	7306.5	
602.23	7283.3	
602.42	8580.3	
602.61	8964.6	
602.8	7075	
602.99	6939.9	
603.18	8750.3	
603.37	8897.1	
603.57	7343.3	
603.76	7827.3	
603.95	9412.5	
604.14	9050.7	
604.33	6995.9	
604.52	7224.6	
604.71	8985.8	
604.9	8563.9	
605.09	7790.5	
605.28	7587	
605.47	9352.4	
605.66	8988.5	
605.86	7318.8	
606.05	6941.9	
606.24	9359.2	
606.43	8213	
606.62	7297.6	
606.81	7721.5	
607	9073.9	
607.19	8714.1	
607.38	6823.1	
607.57	6946.7	
607.76	8434.9	
607.95	8005.5	
608.14	7273.7	
608.33	7733.8	
608.52	8478.6	
608.72	9157.8	
608.91	6731.7	
609.1	6630.6	
609.29	8516.1	
609.48	8208.3	
609.67	7318.8	
609.86	6661.4	
610.05	8276.5	
610.24	8473.8	
610.43	6589.7	
610.62	6302.3	
610.81	9335.3	
611	9198.1	
611.19	6648.4	
611.38	7086.7	
611.57	8774.9	
611.76	9585.2	
611.95	6497.5	
612.14	6367.8	
612.33	8475.9	
612.52	8213.7	
612.71	6916.7	
612.9	6352.1	
613.09	7980.9	
613.28	9630.2	
613.47	6810.2	
613.66	7339.2	
613.85	8682	
614.04	8165.3	
614.24	6759.7	
614.43	6185.5	
614.62	8695	
614.81	8671.1	
615	7112.6	
615.19	7118.1	
615.38	8165.9	
615.57	8426	
615.76	7064.8	
615.95	7727	
616.14	8719.6	
616.33	8498.4	
616.52	7283.9	
616.71	7368.6	
616.9	8684.8	
617.09	8583	
617.28	6841.6	
617.47	7660.8	
617.66	8105.9	
617.85	8068.3	
618.04	7457.3	
618.22	7060.7	
618.41	8352.3	
618.6	9030.2	
618.79	7020.4	
618.98	6877.1	
619.17	9365.4	
619.36	7910.6	
619.55	7008.1	
619.74	7058.7	
619.93	8703.9	
620.12	8218.5	
620.31	7436.9	
620.5	7582.9	
620.69	9301.9	
620.88	9520.3	
621.07	8004.8	
621.26	7316.7	
621.45	8906.6	
621.64	8882.7	
621.83	7447.1	
622.02	6842.9	
622.21	8963.3	
622.4	8739.4	
622.59	7890.1	
622.78	7728.4	
622.97	8550.3	
623.16	9258.9	
623.35	7472.4	
623.54	6747.4	
623.72	8643.8	
623.91	8746.2	
624.1	7628.7	
624.29	6600.6	
624.48	9574.9	
624.67	9041.8	
624.86	7574.8	
625.05	6920.8	
625.24	9607	
625.43	8430.8	
625.62	8783.1	
625.81	7040.2	
626	9169.4	
626.19	8723	
626.38	7667.6	
626.56	7161.1	
626.75	8475.9	
626.94	9124.4	
627.13	7550.9	
627.32	6645	
627.51	9118.2	
627.7	9875.3	
627.89	6768.5	
628.08	7620.5	
628.27	8423.3	
628.46	8686.8	
628.65	6978.1	
628.83	6597.2	
629.02	8962.6	
629.21	8451.3	
629.4	7333.1	
629.59	7416.4	
629.78	8374.8	
629.97	9169.4	
630.16	7527	
630.35	7056.6	
630.54	9554.5	
630.72	9272.5	
630.91	7090.8	
631.1	7441	
631.29	8849.3	
631.48	8892.3	
631.67	7520.1	
631.86	7107.8	
632.05	8634.9	
632.24	8664.3	
632.42	6785.6	
632.61	7347.4	
632.8	8705.2	
632.99	8374.8	
633.18	7402.7	
633.37	7569.3	
633.56	8847.2	
633.75	8731.2	
633.93	7362.4	
634.12	7155.6	
634.31	9460.9	
634.5	9185.1	
634.69	7172	
634.88	7539.3	
635.07	8746.2	
635.25	9176.3	
635.44	7865.6	
635.63	7909.3	
635.82	8632.2	
636.01	8108.6	
636.2	7765.2	
636.39	7417.7	
636.57	9455.5	
636.76	9103.9	
636.95	6996.5	
637.14	7970.7	
637.33	8917.5	
637.52	9546.9	
637.7	6838.9	
637.89	7417.7	
638.08	8674.5	
638.27	9628.9	
638.46	7557.7	
638.65	7856.7	
638.83	9637.1	
639.02	8491.6	
639.21	7594.6	
639.4	7823.2	
639.59	8709.3	
639.78	8477.9	
639.96	6950.8	
640.15	6931.7	
640.34	8742.1	
640.53	8714.1	
640.72	6670.9	
640.91	6952.2	
641.09	8197.3	
641.28	9170.8	
641.47	7006.1	
641.66	7524.2	
641.85	8768.7	
642.03	8808.3	
642.22	7260.7	
642.41	6985.6	
642.6	8233.5	
642.79	7819.1	
642.97	6825.9	
643.16	7260	
643.35	8294.3	
643.54	8092.9	
643.73	6701.6	
643.91	7147.4	
644.1	7963.2	
644.29	8476.5	
644.48	6774	
644.67	6797.2	
644.85	8030.8	
645.04	8391.9	
645.23	6427.9	
645.42	6724.2	
645.6	7997.3	
645.79	8775.5	
645.98	6591	
646.17	5933	
646.36	7686.7	
646.54	8105.9	
646.73	7178.1	
646.92	6260.6	
647.11	7761.1	
647.29	8547.5	
647.48	6329.6	
647.67	6109.8	
647.86	8740.7	
648.05	8718.9	
648.23	6463.4	
648.42	7408.2	
648.61	8254.7	
648.8	8042.4	
648.98	6253.1	
649.17	6551.5	
649.36	7682.6	
649.55	7366.5	
649.73	6183.5	
649.92	6802.7	
650.11	7669.6	
650.3	7922.2	
650.48	6284.5	
650.67	6165.1	
650.86	8162.5	
651.05	7234.8	
651.23	6261.3	
651.42	6229.9	
651.61	7651.2	
651.79	7677.8	
651.98	6367.8	
652.17	6068.8	
652.36	7935.9	
652.54	7344.7	
652.73	6163.7	
652.92	6030.6	
653.11	8036.2	
653.29	8086.7	
653.48	5730.9	
653.67	6388.3	
653.85	7802.8	
654.04	8468.4	
654.23	6461.3	
654.42	6104.3	
654.6	7421.2	
654.79	7894.9	
654.98	5633.3	
655.16	6080.4	
655.35	7056.6	
655.54	6917.4	
655.73	5694.7	
655.91	5645.6	
656.1	7725.6	
656.29	6883.9	
656.47	5312.4	
656.66	6583.5	
656.85	7296.2	
657.03	7163.1	
657.22	5822.4	
657.41	5827.8	
657.59	7289.4	
657.78	7120.8	
657.97	5597.1	
658.16	6081.1	
658.34	7726.3	
658.53	8099	
658.72	6735.8	
658.9	7111.9	
659.09	7486.7	
659.28	7421.8	
659.46	5962.3	
659.65	5837.4	
659.84	7234.1	
660.02	7701	
660.21	5805.3	
660.4	5760.9	
660.58	7940.7	
660.77	7376.1	
660.96	6254.5	
661.14	5436.7	
661.33	8339.3	
661.52	8199.4	
661.7	5395	
661.89	8127	
662.08	7115.3	
662.26	6870.3	
662.45	5699.5	
662.64	5747.3	
662.82	7710.6	
663.01	7162.4	
663.2	5756.2	
663.38	6352.8	
663.57	7557	
663.75	7511.3	
663.94	5954.8	
664.13	6878.4	
664.31	7095.5	
664.5	7658	
664.69	6199.2	
664.87	6457.2	
665.06	6913.3	
665.25	7365.9	
665.43	6758.3	
665.62	6774	
665.8	7701	
665.99	7149.5	
666.18	5951.4	
666.36	6011.5	
666.55	7630	
666.74	7552.2	
666.92	5612.8	
667.11	6899.6	
667.29	7249.8	
667.48	7653.3	
667.67	6496.2	
667.85	5831.2	
668.04	7209.5	
668.22	7250.5	
668.41	5982.1	
668.6	6188.3	
668.78	7058.7	
668.97	7159.7	
669.15	6243.6	
669.34	5528.2	
669.53	7049.1	
669.71	7294.9	
669.9	5603.9	
670.08	6051.1	
670.27	6995.2	
670.46	7536.5	
670.64	6287.9	
670.83	6413.6	
671.01	6899.6	
671.2	7374.7	
671.38	5666	
671.57	5532.9	
671.76	7888.1	
671.94	8296.3	
672.13	5507.7	
672.31	6346.7	
672.5	7600.7	
672.69	7031.4	
672.87	5654.4	
673.06	5886.5	
673.24	7425.3	
673.43	7090.1	
673.61	6102.3	
673.8	5828.5	
673.98	7547.4	
674.17	7634.1	
674.36	6296.8	
674.54	6178	
674.73	7260	
674.91	7612.3	
675.1	5881.8	
675.28	5672.9	
675.47	7251.9	
675.65	7658.7	
675.84	5988.9	
676.03	6146	
676.21	7042.3	
676.4	6685.9	
676.58	6533.7	
676.77	6369.9	
676.95	8168.7	
677.14	7081.9	
677.32	5552.7	
677.51	5578	
677.69	7661.5	
677.88	6820.4	
678.06	5541.8	
678.25	5634.6	
678.44	7243	
678.62	6989	
678.81	5469.4	
678.99	6081.1	
679.18	7885.4	
679.36	7468.3	
679.55	5813.5	
679.73	6284.5	
679.92	7452.6	
680.1	7102.4	
680.29	6666.1	
680.47	5838.1	
680.66	7113.3	
680.84	7684.7	
681.03	5384.1	
681.21	6090.7	
681.4	7042.3	
681.58	6945.3	
681.77	5705	
681.95	5710.4	
682.14	7713.3	
682.32	7940	
682.51	6421.1	
682.69	5506.3	
682.88	6952.2	
683.06	7453.2	
683.25	6161.7	
683.43	6457.9	
683.62	7249.1	
683.8	7574.1	
683.99	6491.4	
684.17	5974.6	
684.36	8119.5	
684.54	7138.5	
684.73	5459.2	
684.91	5571.8	
685.1	7287.4	
685.28	6840.2	
685.46	5945.9	
685.65	5866.1	
685.83	7337.2	
686.02	6877.8	
686.2	5448.3	
686.39	5472.2	
686.57	6669.6	
686.76	7851.9	
686.94	5492.7	
687.13	5671.5	
687.31	7340.6	
687.5	7057.3	
687.68	5231.2	
687.86	6056.5	
688.05	8296.3	
688.23	6597.9	
688.42	6196.5	
688.6	5627.8	
688.79	6959.7	
688.97	6997.2	
689.16	5973.9	
689.34	5180.7	
689.52	7457.3	
689.71	7753.6	
689.89	6139.1	
690.08	5660.6	
690.26	7307.2	
690.45	7100.3	
690.63	6270.9	
690.81	5858.6	
691	7127.6	
691.18	6993.8	
691.37	6001.2	
691.55	7493.5	
691.74	6994.5	
691.92	8517.5	
692.1	6007.4	
692.29	5535.7	
692.47	7202.7	
692.66	6661.4	
692.84	5646.2	
693.02	6100.9	
693.21	6743.3	
693.39	7188.4	
693.58	6146.6	
693.76	5726.8	
693.94	8044.4	
694.13	7874.4	
694.31	5779.4	
694.5	6598.6	
694.68	7135.8	
694.86	7417.1	
695.05	6022.4	
695.23	6219.7	
695.42	7754.3	
695.6	9415.2	
695.78	6547.4	
695.97	5900.9	
696.15	7787.7	
696.34	7305.8	
696.52	5830.6	
696.7	6434	
696.89	7598	
697.07	7112.6	
697.25	6270.9	
697.44	7365.2	
697.62	7549.5	
697.81	7727	
697.99	6161.7	
698.17	6568.5	
698.36	7134.4	
698.54	7593.9	
698.72	6392.4	
698.91	5650.3	
699.09	7275.1	
699.28	7072.3	
699.46	6106.4	
699.64	5976	
699.83	7142.6	
700.01	7909.9	
700.19	6670.2	
700.38	5488.6	
700.56	7974.1	
700.74	7220.5	
700.93	5763	
701.11	6378.1	
701.29	7632.1	
701.48	8449.2	
701.66	5952.8	
701.84	6085.2	
702.03	7481.2	
702.21	7935.2	
702.39	5714.5	
702.58	6200.6	
702.76	7794.6	
702.94	7759.1	
703.13	5711.8	
703.31	7535.2	
703.49	7283.9	
703.68	8393.3	
703.86	5853.8	
704.04	6656.6	
704.23	7707.2	
704.41	7890.8	
704.59	6109.1	
704.78	6830	
704.96	8744.8	
705.14	7987.8	
705.33	5921.4	
705.51	6528.9	
705.69	7500.3	
705.87	8187.1	
706.06	6632	
706.24	5888.6	
706.42	7709.9	
706.61	7933.8	
706.79	6765.8	
706.97	5922.7	
707.16	7283.3	
707.34	7813.7	
707.52	6617	
707.7	6069.5	
707.89	7402	
708.07	7278.5	
708.25	6751.5	
708.44	6812.2	
708.62	7451.2	
708.8	8217.8	
708.98	6920.8	
709.17	6169.8	
709.35	7733.8	
709.53	7727.7	
709.72	5915.9	
709.9	6287.9	
710.08	7910.6	
710.26	7921.5	
710.45	7111.9	
710.63	6212.2	
710.81	7621.9	
710.99	7677.2	
711.18	6574	
711.36	6285.9	
711.54	7572.7	
711.72	8063.5	
711.91	6251.8	
712.09	5922.7	
712.27	7595.9	
712.45	8054.7	
712.64	6450.4	
712.82	5699.5	
713	7159.7	
713.18	7232.7	
713.37	5708.4	
713.55	6584.9	
713.73	7942	
713.91	6842.3	
714.1	5933.6	
714.28	5444.9	
714.46	7402	
714.64	6872.3	
714.83	4999.8	
715.01	5575.3	
715.19	6817	
715.37	6240.2	
715.55	5210	
715.74	5469.4	
715.92	7363.1	
716.1	5853.1	
716.28	6245.6	
716.47	5443.5	
716.65	6412.9	
716.83	6422.4	
717.01	5346.6	
717.19	5356.1	
717.38	7946.8	
717.56	6218.3	
717.74	5519.3	
717.92	4952.7	
718.1	7072.3	
718.29	6543.3	
718.47	4732.2	
718.65	5199.1	
718.83	7163.8	
719.01	7081.2	
719.2	4825.7	
719.38	5642.8	
719.56	6929	
719.74	8128.4	
719.92	5385.5	
720.11	6008.7	
720.29	7060	
720.47	6406	
720.65	5036.6	
720.83	5583.4	
721.02	6536.4	
721.2	6345.3	
721.38	5444.9	
721.56	4931.5	
721.74	5913.2	
721.92	6057.9	
722.11	5831.9	
722.29	5592.3	
722.47	6958.3	
722.65	6341.9	
722.83	4906.9	
723.01	5634.6	
723.2	6439.5	
723.38	6659.3	
723.56	4527.4	
723.74	5360.2	
723.92	6079.1	
724.1	6845.7	
724.29	4883.7	
724.47	5702.2	
724.65	6202.6	
724.83	6037.4	
725.01	4836.6	
725.19	5360.2	
725.37	6096.8	
725.56	6123.4	
725.74	4718.5	
725.92	4848.9	
726.1	6094.8	
726.28	6341.9	
726.46	5110.4	
726.64	4903.5	
726.83	6303.6	
727.01	6450.4	
727.19	4674.1	
727.37	5216.9	
727.55	6446.3	
727.73	6776.7	
727.91	4677.6	
728.09	4559.5	
728.28	6769.2	
728.46	6998.6	
728.64	5355.4	
728.82	5318.6	
729	7456.7	
729.18	6986.3	
729.36	4774.5	
729.54	6470.9	
729.72	7772.7	
729.91	6535.8	
730.09	6225.1	
730.27	5304.2	
730.45	6542.6	
730.63	6904.4	
730.81	5750.7	
730.99	5083.7	
731.17	7311.9	
731.35	6343.2	
731.53	5492.7	
731.71	5257.1	
731.9	7141.9	
732.08	7221.8	
732.26	5335.6	
732.44	5083.1	
732.62	7256	
732.8	6930.3	
732.98	5688.6	
733.16	4898.7	
733.34	6883.9	
733.52	5937.7	
733.7	5268.7	
733.88	5407.3	
734.07	6718.7	
734.25	6574.7	
734.43	4920.6	
734.61	6054.5	
734.79	7675.1	
734.97	6462.7	
735.15	4906.9	
735.33	5235.3	
735.51	6727.6	
735.69	6483.2	
735.87	5976.7	
736.05	5324.7	
736.23	6554.2	
736.41	6405.4	
736.59	5109	
736.77	5300.8	
736.95	6854.6	
737.13	6352.8	
737.32	4984.1	
737.5	5114.5	
737.68	7211.6	
737.86	6325.5	
738.04	4716.5	
738.22	6163.7	
738.4	6260.6	
738.58	6471.6	
738.76	5216.2	
738.94	4545.8	
739.12	6337.1	
739.3	6185.5	
739.48	5689.9	
739.66	5460.6	
739.84	6446.3	
740.02	6423.1	
740.2	4551.3	
740.38	4774.5	
740.56	6741.2	
740.74	5795.8	
740.92	5315.2	
741.1	5171.1	
741.28	6362.4	
741.46	6067.4	
741.64	4906.9	
741.82	5319.3	
742	6292	
742.18	6208.8	
742.36	5023.7	
742.54	4705.5	
742.72	6742.6	
742.9	5763.7	
743.08	5273.5	
743.26	4393.6	
743.44	6736.5	
743.62	6616.3	
743.8	5391.6	
743.98	4724	
744.16	6382.8	
744.34	6199.2	
744.52	5270.8	
744.7	5214.8	
744.88	6522.1	
745.06	6143.2	
745.24	5263.3	
745.42	5313.1	
745.6	6584.2	
745.78	6490.7	
745.96	4324.6	
746.14	4563.6	
746.32	7024.5	
746.5	6506.4	
746.68	4972.5	
746.86	4558.1	
747.03	6760.3	
747.21	5600.5	
747.39	5024.3	
747.57	4595.6	
747.75	6189	
747.93	6435.4	
748.11	4572.4	
748.29	4438.6	
748.47	7455.3	
748.65	5969.8	
748.83	5158.8	
749.01	4872.8	
749.19	6288.6	
749.37	5621	
749.55	4765.6	
749.73	4883	
749.91	6195.1	
750.09	5892.7	
750.26	4754	
750.44	4379.9	
750.62	6044.9	
750.8	5949.3	
750.98	4315.1	
751.16	4532.2	
751.34	6135.7	
751.52	5622.4	
751.7	5044.8	
751.88	4207.9	
752.06	6440.2	
752.24	6156.2	
752.42	4222.2	
752.59	4430.4	
752.77	5985.5	
752.95	6931.7	
753.13	4997.7	
753.31	4546.5	
753.49	5840.1	
753.67	6107	
753.85	4764.9	
754.03	4453.6	
754.21	6298.9	
754.38	6451.1	
754.56	4476.9	
754.74	3801.7	
754.92	5601.9	
755.1	6064	
755.28	3768.9	
755.46	3788.1	
755.64	6620.4	
755.82	6637.5	
755.99	3865.2	
756.17	3863.8	
756.35	4632.5	
756.53	5714.5	
756.71	2962	
756.89	3570.3	
757.07	5391.6	
757.25	4755.4	
757.42	4039.3	
757.6	4792.9	
757.78	5524.1	
757.96	4809.3	
758.14	3906.2	
758.32	3568.2	
758.5	4530.8	
758.67	5134.3	
758.85	3731.4	
759.03	3773.7	
759.21	5309.7	
759.39	4849.6	
759.57	3416	
759.75	4285.7	
759.92	5797.8	
760.1	5355.4	
760.28	4490.5	
760.46	4767	
760.64	5105.6	
760.82	4956.8	
760.99	4493.2	
761.17	3928.7	
761.35	5705	
761.53	4963.6	
761.71	4012	
761.89	4472.1	
762.06	5645.6	
762.24	5258.5	
762.42	4000.4	
762.6	3898.6	
762.78	5264.6	
762.96	5761.6	
763.13	4390.8	
763.31	4100.7	
763.49	5818.3	
763.67	5251	
763.85	4760.2	
764.02	5229.1	
764.2	6124.8	
764.38	5459.9	
764.56	4067.9	
764.74	4618.9	
764.91	6115.9	
765.09	5300.1	
765.27	3807.9	
765.45	3642.7	
765.63	6255.2	
765.8	6085.2	
765.98	3481.5	
766.16	3702.7	
766.34	4967.7	
766.52	4831.2	
766.69	4349.9	
766.87	3557.3	
767.05	5317.2	
767.23	5787.6	
767.41	3789.4	
767.58	3977.8	
767.76	5704.3	
767.94	5728.9	
768.12	3857.7	
768.29	4293.9	
768.47	5248.3	
768.65	5821	
768.83	3564.1	
769	4410.6	
769.18	5024.3	
769.36	5468.1	
769.54	4338.3	
769.72	3571.7	
769.89	5747.3	
770.07	5698.1	
770.25	3815.4	
770.43	4755.4	
770.6	6214.9	
770.78	6485.2	
770.96	3932.8	
771.14	3831.1	
771.31	5657.9	
771.49	5157.5	
771.67	3226.2	
771.85	3439.2	
772.02	4591.5	
772.2	5091.3	
772.38	4033.1	
772.55	3624.9	
772.73	5314.5	
772.91	5118.6	
773.09	3876.1	
773.26	3966.9	
773.44	5281	
773.62	5051	
773.8	3604.4	
773.97	3375.1	
774.15	5281.7	
774.33	5016.2	
774.5	3454.9	
774.68	3646.7	
774.86	5408	
775.04	5018.2	
775.21	3517	
775.39	3459	
775.57	5229.1	
775.74	5441.5	
775.92	3338.9	
776.1	3308.8	
776.27	5187.5	
776.45	6106.4	
776.63	3420.8	
776.81	3163.4	
776.98	4958.8	
777.16	5674.2	
777.34	3567.6	
777.51	3822.9	
777.69	4984.8	
777.87	4679.6	
778.04	3607.8	
778.22	4044.1	
778.4	4755.4	
778.57	5243.5	
778.75	3044.6	
778.93	3241.3	
779.1	4644.8	
779.28	4517.8	
779.46	3022.8	
779.64	3362.1	
779.81	5322.7	
779.99	5925.5	
780.17	3965.6	
780.34	4055	
780.52	4986.8	
780.69	5088.5	
780.87	3542.3	
781.05	3296.5	
781.22	5014.8	
781.4	5018.9	
781.58	3469.3	
781.75	2810.5	
781.93	4995.7	
782.11	4488.5	
782.28	4089.1	
782.46	3426.9	
782.64	4401.1	
782.81	5109.7	
782.99	3487	
783.17	3401	
783.34	4994.3	
783.52	4461.8	
783.69	3591.5	
783.87	4180.6	
784.05	4618.9	
784.22	4524	
784.4	4200.4	
784.58	3663.8	
784.75	5216.9	
784.93	4612	
785.1	3358	
785.28	3862.5	
785.46	5011.4	
785.63	4545.8	
785.81	3435.8	
785.99	3297.9	
786.16	4652.3	
786.34	4995	
786.51	3274	
786.69	3653.6	
786.87	4367	
787.04	4692.6	
787.22	3177.8	
787.39	3851.5	
787.57	4474.8	
787.75	5348.6	
787.92	4057.7	
788.1	3906.8	
788.27	4558.8	
788.45	4300.7	
788.63	3801.7	
788.8	2769.5	
788.98	4872.1	
789.15	4225	
789.33	2933.4	
789.5	3396.9	
789.68	5226.4	
789.86	5289.9	
790.03	3659	
790.21	3220.1	
790.38	5248.9	
790.56	4636.6	
790.73	3160	
790.91	3181.2	
791.09	4486.4	
791.26	5043.5	
791.44	3382.6	
791.61	2928.6	
791.79	4511	
791.96	4516.5	
792.14	3001.6	
792.32	2676.7	
792.49	4504.2	
792.67	4599.1	
792.84	3129.3	
793.02	2962.7	
793.19	4866	
793.37	5354.8	
793.54	2732.7	
793.72	2938.2	
793.89	5384.8	
794.07	4486.4	
794.25	3334.8	
794.42	2818.7	
794.6	5284.4	
794.77	4964.3	
794.95	3599	
795.12	3197.6	
795.3	4545.1	
795.47	4887.1	
795.65	3500	
795.82	3374.4	
796	4341.7	
796.17	5685.8	
796.35	3243.3	
796.52	3862.5	
796.7	4919.9	
796.87	4995.7	
797.05	3258.3	
797.22	3919.8	
797.4	4951.3	
797.57	5674.2	
797.75	3446.7	
797.92	3192.1	
798.1	5203.2	
798.27	4375.1	
798.45	2842.6	
798.62	2956.6	
798.8	4691.9	
798.97	5074.2	
799.15	3493.2	
799.32	3410.6	
799.5	4214.7	
799.67	4724.7	
799.85	3620.1	
800.02	2708.8	
800.2	4441.4	
800.37	4636.6	
800.55	3756.7	
800.72	3198.9	
800.9	5067.4	
801.07	5369.8	
801.25	4183.3	
801.42	3454.9	
801.6	5071.5	
801.77	4749.2	
801.95	3248.1	
802.12	3154.6	
802.29	4880.3	
802.47	4780	
802.64	3487	
802.82	2705.4	
802.99	4496.7	
803.17	5145.2	
803.34	3373.7	
803.52	3049.4	
803.69	5618.3	
803.87	4236.6	
804.04	3366.2	
804.21	3408.5	
804.39	5311.1	
804.56	4512.4	
804.74	2921.1	
804.91	3571	
805.09	4448.2	
805.26	4515.1	
805.44	2940.9	
805.61	3177.8	
805.78	4973.8	
805.96	5001.8	
806.13	3396.9	
806.31	3731.4	
806.48	4132.8	
806.66	4489.8	
806.83	3396.9	
807	3295.2	
807.18	4434.5	
807.35	4761.5	
807.53	3316.3	
807.7	2718.3	
807.87	5327.4	
808.05	4484.4	
808.22	3631.7	
808.4	2736.8	
808.57	4416.8	
808.74	4207.9	
808.92	3150.5	
809.09	3908.9	
809.27	4435.2	
809.44	4820.9	
809.61	2762	
809.79	3061.7	
809.96	5397.1	
810.14	4970.4	
810.31	2710.8	
810.48	3252.2	
810.66	4517.1	
810.83	5040.7	
811.01	3141.6	
811.18	3442.6	
811.35	5034.6	
811.53	3975.1	
811.7	3701.4	
811.87	3467.9	
812.05	4524.6	
812.22	4399.7	
812.39	3052.8	
812.57	2962.7	
812.74	4512.4	
812.92	5749.3	
813.09	3290.4	
813.26	3425.6	
813.44	5482.4	
813.61	4390.2	
813.78	2742.9	
813.96	3543.7	
814.13	4500.1	
814.3	4258.4	
814.48	3868.6	
814.65	3252.9	
814.82	5319.3	
815	4262.5	
815.17	3327.3	
815.34	3951.2	
815.52	4429.1	
815.69	4367	
815.87	3284.3	
816.04	3205.8	
816.21	4465.9	
816.38	4091.2	
816.56	3232.4	
816.73	3040.6	
816.9	5519.3	
817.08	4965	
817.25	3074.7	
817.42	3705.5	
817.6	4116.4	
817.77	4465.9	
817.94	3396.9	
818.12	2997.5	
818.29	4283.7	
818.46	6217.6	
818.64	3095.2	
818.81	2925.9	
818.98	4280.9	
819.16	5853.1	
819.33	3488.4	
819.5	3340.2	
819.67	4764.9	
819.85	5238.7	
820.02	3317	
820.19	3452.2	
820.37	4626.4	
820.54	4370.4	
820.71	3349.8	
820.88	4078.2	
821.06	4630.5	
821.23	4298	
821.4	3401.7	
821.58	3321.1	
821.75	4955.4	
821.92	4546.5	
822.09	2780.5	
822.27	2775.7	
822.44	4469.4	
822.61	4399	
822.79	2830.3	
822.96	5015.5	
823.13	4726	
823.3	4170.3	
823.48	3104.7	
823.65	2863.7	
823.82	5015.5	
823.99	4149.2	
824.17	3960.1	
824.34	2899.9	
824.51	5681.7	
824.68	4551.3	
824.86	3034.4	
825.03	3343	
825.2	4488.5	
825.37	5273.5	
825.55	3078.1	
825.72	3294.5	
825.89	5614.2	
826.06	5272.2	
826.24	3233.1	
826.41	3247.4	
826.58	5307.7	
826.75	4674.1	
826.92	2692.4	
827.1	2886.3	
827.27	6946	
827.44	5638.7	
827.61	3062.4	
827.79	3700	
827.96	4312.3	
828.13	4468	
828.3	3274	
828.47	2776.4	
828.65	4731.5	
828.82	4647.5	
828.99	4026.3	
829.16	3493.2	
829.34	4990.2	
829.51	4806.6	
829.68	3320.4	
829.85	3357.3	
830.02	5259.2	
830.2	4964.3	
830.37	2615.3	
830.54	3921.2	
830.71	5561.6	
830.88	4500.1	
831.05	2654.9	
831.23	2990.7	
831.4	5389.6	
831.57	5807.4	
831.74	3117.7	
831.91	2717	
832.09	4721.9	
832.26	4976.6	
832.43	3160.7	
832.6	3543	
832.77	4731.5	
832.94	5264.6	
833.12	2598.9	
833.29	3101.3	
833.46	4818.9	
833.63	6036	
833.8	3407.1	
833.97	3106.8	
834.15	5012.1	
834.32	4853	
834.49	3278.8	
834.66	3353.2	
834.83	5046.9	
835	4304.8	
835.17	3051.5	
835.35	3056.9	
835.52	4911.7	
835.69	4786.1	
835.86	3195.5	
836.03	2669.2	
836.2	4967	
836.37	4655	
836.55	3102	
836.72	2960	
836.89	4657.1	
837.06	5047.6	
837.23	3231.7	
837.4	3506.8	
837.57	5600.5	
837.75	5999.9	
837.92	2997.5	
838.09	3145.7	
838.26	4630.5	
838.43	5123.3	
838.6	3327.3	
838.77	2967.5	
838.94	5766.4	
839.11	5582.8	
839.29	3182.5	
839.46	2523.1	
839.63	4996.4	
839.8	4760.2	
839.97	3138.9	
840.14	3067.2	
840.31	4848.2	
840.48	4941.7	
840.65	2600.9	
840.82	2960	
841	4924	
841.17	4862.6	
841.34	2870.6	
841.51	2880.1	
841.68	4958.8	
841.85	4715.8	
842.02	2963.4	
842.19	2562	
842.36	4859.8	
842.53	4786.8	
842.7	2878.1	
842.87	3378.5	
843.05	6071.5	
843.22	4728.1	
843.39	2724.5	
843.56	3008.5	
843.73	4594.3	
843.9	5033.2	
844.07	4440	
844.24	3709.6	
844.41	6818.4	
844.58	4379.9	
844.75	2800.9	
844.92	2951.1	
845.09	4930.1	
845.26	4912.4	
845.43	2833.7	
845.6	2945.7	
845.77	4926.7	
845.94	4743.8	
846.12	3097.9	
846.29	3272	
846.46	5162.9	
846.63	4866	
846.8	2826.9	
846.97	3360	
847.14	5222.3	
847.31	4901.5	
847.48	3204.4	
847.65	3488.4	
847.82	5170.4	
847.99	5121.3	
848.16	3676.8	
848.33	3450.1	
848.5	4549.2	
848.67	5274.2	
848.84	2843.9	
849.01	2953.9	
849.18	4549.9	
849.35	4281.6	
849.52	3472.7	
849.69	2779.1	
849.86	5071.5	
850.03	5214.8	
850.2	2853.5	
850.37	3383.2	
850.54	5163.6	
850.71	4653	
850.88	3334.1	
851.05	2831.7	
851.22	4883.7	
851.39	5370.5	
851.56	2683.5	
851.73	3173.7	
851.9	4444.8	
852.07	5124.7	
852.24	3134.1	
852.41	2865.8	
852.58	4836.6	
852.75	4470	
852.92	3134.1	
853.09	2777.7	
853.26	4590.9	
853.43	5233.2	
853.6	2805	
853.77	2512.9	
853.94	5342.5	
854.11	4355.3	
854.28	4066.6	
854.44	3023.5	
854.61	5652.4	
854.78	5197.7	
854.95	2807.1	
855.12	3449.5	
855.29	4089.8	
855.46	5336.3	
855.63	2890.4	
855.8	3822.9	
855.97	4581.3	
856.14	5176.6	
856.31	3885.7	
856.48	3078.8	
856.65	4637.3	
856.82	4330.1	
856.99	2754.5	
857.16	3031.7	
857.33	5831.9	
857.49	4689.2	
857.66	3050.8	
857.83	3216	
858	4660.5	
858.17	4847.5	
858.34	2654.9	
858.51	2849.4	
858.68	5414.8	
858.85	5399.8	
859.02	3300	
859.19	3431	
859.36	4446.8	
859.52	4354.7	
859.69	2843.3	
859.86	3324.5	
860.03	4475.5	
860.2	5356.1	
860.37	2661	
860.54	2889.7	
860.71	5093.3	
860.88	5370.5	
861.05	3130.7	
861.21	3471.3	
861.38	5332.9	
861.55	4274.1	
861.72	2594.8	
861.89	3104	
862.06	5082.4	
862.23	5487.2	
862.4	2772.9	
862.56	2938.2	
862.73	5008.6	
862.9	4739.7	
863.07	3290.4	
863.24	2566.8	
863.41	4351.9	
863.58	4461.2	
863.75	2863.1	
863.91	3231.7	
864.08	5291.3	
864.25	5001.1	
864.42	3467.2	
864.59	3833.8	
864.76	5618.3	
864.93	4402.5	
865.09	2720.4	
865.26	3029.6	
865.43	5304.9	
865.6	5578	
865.77	2478.7	
865.94	2821.4	
866.1	5283.1	
866.27	5023	
866.44	4096.6	
866.61	2757.2	
866.78	4672.8	
866.95	5005.9	
867.11	2760	
867.28	2547	
867.45	5229.1	
867.62	4377.9	
867.79	3227.6	
867.96	2841.2	
868.12	4422.2	
868.29	5047.6	
868.46	2830.3	
868.63	3657.7	
868.8	5190.2	
868.97	5021.6	
869.13	2975	
869.3	2961.4	
869.47	4945.2	
869.64	5172.5	
869.81	2861.7	
869.97	2788.7	
870.14	4882.4	
870.31	5405.3	
870.48	2772.3	
870.65	3529.3	
870.81	4722.6	
870.98	4664.6	
871.15	3182.5	
871.32	2840.5	
871.48	5042.1	
871.65	5424.4	
871.82	2807.8	
871.99	3092.4	
872.16	5767.1	
872.32	5307.7	
872.49	2830.3	
872.66	2874	
872.83	5101.5	
872.99	4505.5	
873.16	3239.2	
873.33	2804.4	
873.5	4813.4	
873.67	4829.8	
873.83	2995.5	
874	3681.6	
874.17	4869.4	
874.34	5666	
874.5	3524.6	
874.67	3448.8	
874.84	5370.5	
875.01	4351.3	
875.17	3822.2	
875.34	2788	
875.51	4890.5	
875.68	5722	
875.84	3388	
876.01	4030.4	
876.18	5052.3	
876.34	5024.3	
876.51	2829.6	
876.68	2796.2	
876.85	4639.3	
877.01	5337	
877.18	3931.4	
877.35	2774.3	
877.52	4878.3	
877.68	4360.1	
877.85	2738.8	
878.02	2805.7	
878.18	4698.7	
878.35	4556	
878.52	2282.1	
878.69	3118.4	
878.85	5154.7	
879.02	5004.6	
879.19	3859.1	
879.35	3012.6	
879.52	5054.4	
879.69	5182	
879.86	2495.1	
880.02	3111.5	
880.19	4776.5	
880.36	5661.3	
880.52	3153.2	
880.69	3357.3	
880.86	5120.6	
881.02	5105.6	
881.19	3102.7	
881.36	3078.8	
881.52	5104.2	
881.69	4547.9	
881.86	3007.8	
882.02	2930	
882.19	5233.2	
882.36	5982.8	
882.52	2913.6	
882.69	3828.3	
882.86	4916.5	
883.02	4865.3	
883.19	3407.1	
883.36	3213.3	
883.52	5100.1	
883.69	5751.4	
883.86	2876.7	
884.02	2608.4	
884.19	5037.3	
884.36	4818.9	
884.52	3199.6	
884.69	3031.7	
884.86	4624.3	
885.02	5438.7	
885.19	3106.8	
885.36	3243.3	
885.52	4755.4	
885.69	4891.9	
885.86	3947.8	
886.02	3520.5	
886.19	5121.3	
886.35	4610	
886.52	3076.7	
886.69	3848.8	
886.85	4476.2	
887.02	5277.6	
887.19	5277.6	
887.35	5277.6	
887.52	5277.6	
887.68	5277.6	
887.85	5277.6	
888.02	5277.6	
888.18	5277.6	
888.35	5277.6	
888.51	5277.6	
888.68	5277.6	
888.85	5277.6	
889.01	5277.6	
889.18	5277.6	
889.35	5277.6	
889.51	5277.6	
889.68	5277.6	
889.84	5277.6	
890.01	5277.6	
890.17	5277.6	
890.34	5277.6	
890.51	5277.6	
890.67	5277.6	
890.84	5277.6	
891	5277.6	
891.17	5277.6	
891.34	5277.6	
891.5	5277.6	
891.67	5277.6	
891.83	5277.6	
892	5277.6	
892.16	5277.6	
892.33	5277.6	
892.5	5277.6	
892.66	5277.6	
892.83	5277.6	
892.99	5277.6	
893.16	5277.6	
893.32	5277.6	
893.49	5277.6	
893.65	5277.6	
893.82	5277.6	
893.99	5277.6	
894.15	5277.6	
894.32	5277.6	
894.48	5277.6	
894.65	5277.6	
894.81	5277.6	
894.98	5277.6	
895.14	5277.6	
895.31	5277.6	
895.47	5277.6	
895.64	5277.6	
895.81	5277.6	
895.97	5277.6	
896.14	5277.6	
896.3	5277.6	
896.47	5277.6	
896.63	5277.6	
896.8	5277.6	
896.96	5277.6	
897.13	5277.6	
897.29	5277.6	
897.46	5277.6	
897.62	5277.6	
897.79	5277.6	
897.95	5277.6	
898.12	5277.6	
898.28	5277.6	
898.45	5277.6	
898.61	5277.6	
898.78	5277.6	
898.94	5277.6	
899.11	5277.6	
899.27	5277.6	
899.44	5277.6	
899.6	5277.6	
899.77	5277.6	
899.93	5277.6	
900.1	5277.6	
900.26	5277.6	
900.43	5277.6	
900.59	5277.6	
900.76	5277.6	
900.92	5277.6	
901.09	5277.6	
901.25	5277.6	
901.42	5277.6	
901.58	5277.6	
901.75	5277.6	
901.91	5277.6	
902.07	5277.6	
902.24	5277.6	
902.4	5277.6	
902.57	5277.6	
902.73	5277.6	
902.9	5277.6	
903.06	5277.6	
903.23	5277.6	
903.39	5277.6	
903.56	5277.6	
903.72	5277.6	
903.88	5277.6	
904.05	5277.6	
904.21	5277.6	
904.38	5277.6	
904.54	5277.6	
904.71	5277.6	
904.87	5277.6	
905.03	5277.6	
905.2	5277.6	
905.36	5277.6	
905.53	5277.6	
905.69	5277.6	
905.86	5277.6	
906.02	5277.6	
906.18	5277.6	
906.35	5277.6	
906.51	5277.6	
906.68	5277.6	
906.84	5277.6	
907.01	5277.6	
907.17	5277.6	
907.33	5277.6	
907.5	5277.6	
907.66	5277.6	
907.83	5277.6	
907.99	5277.6	
908.15	5277.6	
908.32	5277.6	
908.48	5277.6	
908.65	5277.6	
908.81	5277.6	
908.97	5277.6	
909.14	5277.6	
909.3	5277.6	
909.47	5277.6	
909.63	5277.6	
909.79	5277.6	
909.96	5277.6	
910.12	5277.6	
910.28	5277.6	
910.45	5277.6	
910.61	5277.6	
910.78	5277.6	
910.94	5277.6	
911.1	5277.6	
911.27	5277.6	
911.43	5277.6	
911.59	5277.6	
911.76	5277.6	
911.92	5277.6	
912.08	5277.6	
912.25	5277.6	
912.41	5277.6	
912.57	5277.6	
912.74	5277.6	
912.9	5277.6	
913.07	5277.6	
913.23	5277.6	
913.39	5277.6	
913.56	5277.6	
913.72	5277.6	
913.88	5277.6	
914.05	5277.6	
914.21	5277.6	
914.37	5277.6	
914.54	5277.6	
914.7	5277.6	
914.86	5277.6	
915.03	5277.6	
915.19	5277.6	
