Wavelength	Intensities	
nm	a.u.	
179.22	1570.5	
179.44	1572.2	
179.65	1568.7	
179.86	1575.6	
180.08	1602.2	
180.29	3588	
180.51	2824.8	
180.72	4739	
180.94	5169.8	
181.15	2517	
181.37	2552.5	
181.58	4496.7	
181.79	4704.2	
182.01	2592	
182.22	2715.6	
182.44	4679.6	
182.65	4180.6	
182.87	3333.4	
183.08	2990.7	
183.29	4912.4	
183.51	4184	
183.72	2695.8	
183.94	3724.6	
184.15	4452.3	
184.37	4384	
184.58	2482.1	
184.79	3131.3	
185.01	4237.2	
185.22	4792.9	
185.44	3250.1	
185.65	2929.3	
185.86	4530.8	
186.08	4127.3	
186.29	2433.7	
186.51	2560	
186.72	4332.8	
186.94	4784.7	
187.15	2951.8	
187.36	2960	
187.58	5881.1	
187.79	4572.4	
188.01	3032.4	
188.22	4463.2	
188.43	5195.7	
188.65	4652.3	
188.86	2592	
189.08	2968.9	
189.29	4352.6	
189.5	4268.6	
189.72	2734	
189.93	2779.8	
190.15	4814.1	
190.36	5485.8	
190.57	3002.3	
190.79	2811.9	
191	4794.3	
191.22	4761.5	
191.43	3092.4	
191.64	2576.3	
191.86	5004.6	
192.07	4773.8	
192.29	2646	
192.5	2721.8	
192.71	4826.4	
192.93	4320.5	
193.14	2764.1	
193.35	2841.2	
193.57	4307.6	
193.78	4886.5	
194	2342.2	
194.21	2685.6	
194.42	4184.7	
194.64	4461.8	
194.85	2947.7	
195.07	3359.4	
195.28	4423.6	
195.49	4012	
195.71	3471.3	
195.92	2602.3	
196.13	4601.8	
196.35	4624.3	
196.56	3661.8	
196.78	2989.4	
196.99	5518.6	
197.2	5168.4	
197.42	3244	
197.63	2987.3	
197.84	4126.7	
198.06	4627	
198.27	2798.9	
198.48	3525.9	
198.7	4317.8	
198.91	4459.8	
199.13	2986.6	
199.34	2964.1	
199.55	4795.7	
199.77	3949.8	
199.98	2698.5	
200.19	2963.4	
200.41	4422.9	
200.62	4210.6	
200.83	3044.6	
201.05	3274.7	
201.26	4417.5	
201.47	4293.9	
201.69	2702.6	
201.9	2620	
202.11	4505.5	
202.33	5050.3	
202.54	2823.5	
202.76	3123.8	
202.97	4472.1	
203.18	4587.4	
203.4	3112.9	
203.61	3122.5	
203.82	4505.5	
204.04	4250.9	
204.25	3016.7	
204.46	2979.1	
204.68	4453.6	
204.89	4627	
205.1	2909.5	
205.32	2570.2	
205.53	4618.9	
205.74	4803.9	
205.96	2318.3	
206.17	2996.2	
206.38	4683	
206.6	4732.9	
206.81	3297.9	
207.02	2791.4	
207.24	4625	
207.45	4885.8	
207.66	2906.1	
207.88	2538.8	
208.09	4638.6	
208.3	4480.3	
208.52	2663.7	
208.73	2932.7	
208.94	4446.8	
209.15	4892.6	
209.37	2839.2	
209.58	2942.2	
209.79	4809.3	
210.01	4381.3	
210.22	2390.7	
210.43	2515.6	
210.65	4398.4	
210.86	4657.1	
211.07	2807.1	
211.29	2638.5	
211.5	4658.4	
211.71	4390.2	
211.93	2674	
212.14	2674.6	
212.35	4450.9	
212.56	4505.5	
212.78	2992.8	
212.99	2531.3	
213.2	5074.9	
213.42	4349.9	
213.63	2724.5	
213.84	2793.4	
214.06	4106.2	
214.27	4108.2	
214.48	2850.8	
214.69	2985.3	
214.91	4945.8	
215.12	4888.5	
215.33	2979.1	
215.55	3193.5	
215.76	5247.6	
215.97	4648.9	
216.18	2943.6	
216.4	2939.5	
216.61	4231.1	
216.82	4781.3	
217.04	2716.3	
217.25	2786.6	
217.46	4822.3	
217.67	4664.6	
217.89	2499.9	
218.1	2529.2	
218.31	4455.7	
218.53	4567	
218.74	2814.6	
218.95	2680.8	
219.16	4473.4	
219.38	5022.3	
219.59	2702	
219.8	3125.9	
220.01	5346.6	
220.23	4502.1	
220.44	3337.5	
220.65	2634.4	
220.87	4565.6	
221.08	4879.6	
221.29	2576.3	
221.5	3204.4	
221.72	5687.2	
221.93	4230.4	
222.14	2988.7	
222.35	3468.6	
222.57	4474.8	
222.78	4764.3	
222.99	2862.4	
223.2	3019.4	
223.42	4640.7	
223.63	4726	
223.84	2294.4	
224.05	2346.3	
224.27	5304.2	
224.48	4984.8	
224.69	3414.6	
224.9	2988.7	
225.12	4631.1	
225.33	4390.8	
225.54	2450.1	
225.75	2708.1	
225.97	4224.3	
226.18	4388.8	
226.39	2869.2	
226.6	2703.3	
226.82	4300.1	
227.03	4187.4	
227.24	3007.1	
227.45	2539.5	
227.67	4724.7	
227.88	4982	
228.09	3304.7	
228.3	3287.7	
228.52	4701.5	
228.73	4420.2	
228.94	2796.2	
229.15	2549.7	
229.36	4450.2	
229.58	4392.2	
229.79	2835.1	
230	3167.5	
230.21	5188.2	
230.43	4434.5	
230.64	2968.2	
230.85	3010.5	
231.06	4801.8	
231.28	4775.2	
231.49	2565.4	
231.7	2937.5	
231.91	4741.7	
232.12	4444.1	
232.34	2667.8	
232.55	2916.3	
232.76	4809.3	
232.97	4561.5	
233.18	2628.2	
233.4	2944.3	
233.61	4567	
233.82	4269.3	
234.03	2811.2	
234.25	2815.3	
234.46	5789.6	
234.67	4507.6	
234.88	3065.8	
235.09	2779.1	
235.31	4535.6	
235.52	4364.2	
235.73	2923.8	
235.94	2566.8	
236.15	4267.3	
236.37	5144.5	
236.58	2702	
236.79	2833	
237	4670.1	
237.21	4102.1	
237.43	3080.1	
237.64	2479.4	
237.85	6983.6	
238.06	4244.8	
238.27	3068.5	
238.48	2585.9	
238.7	4660.5	
238.91	4365.6	
239.12	2808.4	
239.33	2988	
239.54	4345.1	
239.76	4342.4	
239.97	2871.9	
240.18	2893.1	
240.39	5180	
240.6	4622.3	
240.82	3000.3	
241.03	2524.5	
241.24	4385.4	
241.45	4976.6	
241.66	2663.7	
241.87	3061.7	
242.09	4954	
242.3	5161.6	
242.51	3080.1	
242.72	2839.2	
242.93	4723.3	
243.14	4425	
243.36	3181.2	
243.57	3422.2	
243.78	4934.2	
243.99	4621.6	
244.2	2876	
244.41	2669.9	
244.63	4178.5	
244.84	4582	
245.05	3007.1	
245.26	2855.6	
245.47	4711	
245.68	4709.6	
245.9	3599.6	
246.11	2996.2	
246.32	4291.9	
246.53	4571.1	
246.74	4309.6	
246.95	2485.6	
247.16	4265.9	
247.38	4448.2	
247.59	2560.6	
247.8	2873.3	
248.01	4151.9	
248.22	4453.6	
248.43	2676.7	
248.64	2874	
248.86	4156	
249.07	4321.2	
249.28	2680.8	
249.49	2980.5	
249.7	4799.1	
249.91	4790.9	
250.12	2540.2	
250.34	2595.5	
250.55	4537.6	
250.76	4418.8	
250.97	2931.3	
251.18	2955.2	
251.39	4879.6	
251.6	4500.1	
251.81	2985.9	
252.03	2978.4	
252.24	4336.9	
252.45	4642.7	
252.66	2582.5	
252.87	3080.8	
253.08	4453	
253.29	5512.4	
253.5	2577	
253.72	3424.2	
253.93	4416.8	
254.14	5052.3	
254.35	2779.1	
254.56	2781.8	
254.77	4543.1	
254.98	4185.4	
255.19	2742.9	
255.41	3375.1	
255.62	4587.4	
255.83	4848.9	
256.04	3080.1	
256.25	2969.6	
256.46	5268.1	
256.67	4228.4	
256.88	2949.8	
257.09	3221.5	
257.31	4164.2	
257.52	4241.3	
257.73	3545	
257.94	2779.8	
258.15	4439.3	
258.36	4454.3	
258.57	3322.5	
258.78	2297.8	
258.99	4792.2	
259.2	4349.2	
259.41	2736.1	
259.63	2860.3	
259.84	4912.4	
260.05	5152.7	
260.26	3457.7	
260.47	2676	
260.68	4870.8	
260.89	4371	
261.1	3211.9	
261.31	2661	
261.52	4928.1	
261.73	5023.7	
261.95	3432.4	
262.16	3019.4	
262.37	4846.2	
262.58	4952.7	
262.79	3427.6	
263	2705.4	
263.21	4474.8	
263.42	4279.6	
263.63	2970.2	
263.84	2810.5	
264.05	4818.2	
264.26	4998.4	
264.47	3329.3	
264.69	3000.3	
264.9	4954	
265.11	4513	
265.32	2703.3	
265.53	2717.7	
265.74	4487.8	
265.95	4039.3	
266.16	2908.1	
266.37	3159.3	
266.58	4579.3	
266.79	4252.9	
267	2749.7	
267.21	2641.2	
267.42	4146.5	
267.63	4447.5	
267.84	2852.8	
268.06	2501.3	
268.27	4762.2	
268.48	4850.3	
268.69	2824.1	
268.9	3220.1	
269.11	4808.6	
269.32	4053.6	
269.53	2883.5	
269.74	2699.9	
269.95	4531.5	
270.16	4048.2	
270.37	2870.6	
270.58	3266.5	
270.79	4367	
271	4756.7	
271.21	3011.9	
271.42	2925.9	
271.63	4663.9	
271.84	4103.4	
272.05	2413.9	
272.26	2646	
272.47	4493.9	
272.68	4541	
272.89	2838.5	
273.11	3107.5	
273.32	4311.7	
273.53	4994.3	
273.74	3017.3	
273.95	3052.2	
274.16	4727.4	
274.37	4460.5	
274.58	3143.6	
274.79	2619.4	
275	4590.9	
275.21	4807.3	
275.42	3608.5	
275.63	3108.1	
275.84	4670.7	
276.05	5483.1	
276.26	2964.8	
276.47	2820.1	
276.68	4444.8	
276.89	5144.5	
277.1	3220.1	
277.31	2568.8	
277.52	4549.2	
277.73	4869.4	
277.94	2581.8	
278.15	2775	
278.36	4642.7	
278.57	4204.5	
278.78	2752.5	
278.99	3044.6	
279.2	4300.7	
279.41	4261.8	
279.62	3525.9	
279.83	2590	
280.04	5198.4	
280.25	4182.6	
280.46	3452.9	
280.67	2904.7	
280.88	4260.5	
281.09	4825.7	
281.3	2998.9	
281.51	3593.5	
281.72	4201.1	
281.93	4707.6	
282.14	2738.8	
282.35	2962.7	
282.56	4816.1	
282.77	4752.7	
282.98	2857.6	
283.19	3274.7	
283.4	5567.1	
283.61	4398.4	
283.82	2612.5	
284.03	3469.3	
284.24	4655	
284.45	4805.2	
284.66	3488.4	
284.87	3231.7	
285.08	4842.1	
285.29	4908.3	
285.5	2579.1	
285.71	2826.2	
285.92	4761.5	
286.12	5225.1	
286.33	3426.3	
286.54	2824.8	
286.75	4749.2	
286.96	4337.6	
287.17	2650.8	
287.38	3310.2	
287.59	4287.8	
287.8	4333.5	
288.01	2800.9	
288.22	3101.3	
288.43	4546.5	
288.64	4052.2	
288.85	3264.5	
289.06	3109.5	
289.27	4759.5	
289.48	4975.2	
289.69	3457	
289.9	3177.1	
290.11	4911.7	
290.32	4285	
290.53	3279.5	
290.74	3046	
290.94	4805.9	
291.15	4806.6	
291.36	2755.2	
291.57	3115	
291.78	4347.8	
291.99	4032.5	
292.2	2690.3	
292.41	3091.1	
292.62	4835.3	
292.83	4672.8	
293.04	3657.7	
293.25	2679.4	
293.46	4346.5	
293.67	4798.4	
293.88	2680.1	
294.09	2658.9	
294.29	4200.4	
294.5	4554.7	
294.71	2918.4	
294.92	2736.1	
295.13	4422.2	
295.34	5233.9	
295.55	2514.9	
295.76	2464.4	
295.97	4724	
296.18	5145.9	
296.39	2594.1	
296.6	2751.1	
296.81	4515.8	
297.01	4732.2	
297.22	2826.9	
297.43	2800.9	
297.64	4328.7	
297.85	4265.9	
298.06	2349	
298.27	2541.5	
298.48	4427.7	
298.69	4297.3	
298.9	2933.4	
299.11	2705.4	
299.31	4227.7	
299.52	4212.7	
299.73	3134.1	
299.94	3024.2	
300.15	4508.9	
300.36	4274.8	
300.57	3032.4	
300.78	3015.3	
300.99	4319.8	
301.2	4453	
301.4	2800.9	
301.61	2911.5	
301.82	4703.5	
302.03	4715.8	
302.24	3219.4	
302.45	2587.3	
302.66	4659.8	
302.87	4734.9	
303.08	2752.5	
303.29	3489.1	
303.49	4366.3	
303.7	4410.6	
303.91	2474.6	
304.12	3396.9	
304.33	4121.2	
304.54	4575.8	
304.75	2803	
304.96	2682.2	
305.16	4635.2	
305.37	5075.5	
305.58	2447.3	
305.79	2504	
306	4618.9	
306.21	4079.6	
306.42	2721.1	
306.63	3897.3	
306.83	4359.4	
307.04	4685.1	
307.25	3025.5	
307.46	2937.5	
307.67	4027	
307.88	4638	
308.09	2762.7	
308.29	2742.2	
308.5	4541	
308.71	4757.4	
308.92	2862.4	
309.13	2600.2	
309.34	4445.5	
309.55	4445.5	
309.75	3295.2	
309.96	3019.4	
310.17	4763.6	
310.38	4272.1	
310.59	3087	
310.8	2632.3	
311.01	4365.6	
311.21	4405.2	
311.42	2695.8	
311.63	2700.6	
311.84	4360.1	
312.05	4517.8	
312.26	3030.3	
312.46	3182.5	
312.67	4354	
312.88	4160.8	
313.09	2684.2	
313.3	2607.7	
313.51	4933.6	
313.71	5119.2	
313.92	2677.4	
314.13	2785.9	
314.34	4565.6	
314.55	4459.1	
314.76	3298.6	
314.96	2942.9	
315.17	4657.8	
315.38	4615.4	
315.59	2714.2	
315.8	2592.7	
316.01	4882.4	
316.21	5038	
316.42	2594.8	
316.63	2868.5	
316.84	4437.3	
317.05	4775.2	
317.26	3063.8	
317.46	2791.4	
317.67	4414.7	
317.88	4688.5	
318.09	3252.9	
318.3	2534	
318.5	4367.6	
318.71	4588.8	
318.92	3966.9	
319.13	3055.6	
319.34	4771.1	
319.54	4872.1	
319.75	2482.8	
319.96	2484.9	
320.17	4703.5	
320.38	4793.6	
320.58	2516.3	
320.79	2856.2	
321	4821.6	
321.21	4923.3	
321.42	2960.7	
321.62	2478.7	
321.83	4291.2	
322.04	4471.4	
322.25	2819.4	
322.46	2650.8	
322.66	4508.3	
322.87	4680.3	
323.08	3155.9	
323.29	2591.4	
323.5	5175.2	
323.7	4136.2	
323.91	3414	
324.12	3104.7	
324.33	4611.3	
324.53	4672.8	
324.74	3037.1	
324.95	3134.8	
325.16	4137.6	
325.37	4360.8	
325.57	2656.9	
325.78	2684.9	
325.99	4620.9	
326.2	4147.1	
326.4	3504.1	
326.61	2447.3	
326.82	4431.1	
327.03	4536.3	
327.24	3562.8	
327.44	3330	
327.65	4675.5	
327.86	3934.8	
328.07	3076	
328.27	2600.9	
328.48	4897.4	
328.69	4115.7	
328.9	3586	
329.1	2735.4	
329.31	4390.2	
329.52	4928.1	
329.73	2717.7	
329.93	2824.1	
330.14	4524	
330.35	4539.7	
330.56	4089.1	
330.76	3149.1	
330.97	4362.2	
331.18	4494.6	
331.39	2906.1	
331.59	2443.2	
331.8	4829.1	
332.01	4871.4	
332.22	2714.2	
332.42	3027.6	
332.63	4554.7	
332.84	4189.5	
333.05	2970.2	
333.25	2716.3	
333.46	4268	
333.67	4414.1	
333.88	2840.5	
334.08	3014.6	
334.29	5559.6	
334.5	4785.4	
334.7	2648	
334.91	3549.1	
335.12	4108.9	
335.33	4633.9	
335.53	2899.2	
335.74	3988.8	
335.95	4393.6	
336.16	4129.4	
336.36	2897.9	
336.57	3244	
336.78	4182.6	
336.98	4773.1	
337.19	3453.6	
337.4	2828.2	
337.61	5177.3	
337.81	4141.7	
338.02	2737.5	
338.23	3330	
338.43	4941.1	
338.64	4262.5	
338.85	2694.4	
339.05	3387.3	
339.26	5011.4	
339.47	4113	
339.68	2699.9	
339.88	3713.6	
340.09	4625.7	
340.3	4775.9	
340.5	3036.5	
340.71	2467.8	
340.92	4203.1	
341.13	4870.1	
341.33	2566.8	
341.54	3029.6	
341.75	4592.2	
341.95	4384	
342.16	2962	
342.37	3128.6	
342.57	4158.7	
342.78	4379.2	
342.99	3115	
343.19	2483.5	
343.4	4696	
343.61	4639.3	
343.81	2886.3	
344.02	2565.4	
344.23	4689.2	
344.43	4865.3	
344.64	3211.9	
344.85	3168.2	
345.06	4628.4	
345.26	4833.2	
345.47	3024.2	
345.68	3422.2	
345.88	4089.1	
346.09	4784.7	
346.3	3035.1	
346.5	2417.3	
346.71	4321.2	
346.92	4228.4	
347.12	2595.5	
347.33	2977.1	
347.54	4749.9	
347.74	5044.1	
347.95	2963.4	
348.16	2413.2	
348.36	4317.1	
348.57	4182.6	
348.78	3057.6	
348.98	3139.5	
349.19	4377.9	
349.39	4028.4	
349.6	2565.4	
349.81	2735.4	
350.01	4644.8	
350.22	4263.9	
350.43	2904.7	
350.63	3324.5	
350.84	4461.2	
351.05	4274.1	
351.25	2652.1	
351.46	2534	
351.67	4730.1	
351.87	4177.9	
352.08	2796.8	
352.29	3152.5	
352.49	4684.4	
352.7	4493.2	
352.9	2643.9	
353.11	3084.2	
353.32	5103.5	
353.52	4293.9	
353.73	2652.8	
353.94	3188.7	
354.14	4650.9	
354.35	4418.2	
354.55	2701.3	
354.76	2893.1	
354.97	4611.3	
355.17	4349.9	
355.38	2535.4	
355.59	3300.6	
355.79	4193.6	
356	4329.4	
356.2	2905.4	
356.41	2559.3	
356.62	4055	
356.82	4348.5	
357.03	3069.9	
357.24	2780.5	
357.44	4129.4	
357.65	4263.9	
357.85	3474.7	
358.06	2955.9	
358.27	4009.2	
358.47	4083	
358.68	2540.2	
358.88	3098.6	
359.09	4524.6	
359.3	4670.1	
359.5	3414.6	
359.71	3096.5	
359.91	4973.2	
360.12	4549.9	
360.33	3060.3	
360.53	3290.4	
360.74	4204.5	
360.94	4274.8	
361.15	3121.1	
361.36	2708.8	
361.56	4672.1	
361.77	4360.1	
361.97	3415.3	
362.18	2760	
362.38	4735.6	
362.59	4098	
362.8	2652.1	
363	2523.8	
363.21	4076.8	
363.41	4388.8	
363.62	2937.5	
363.83	3426.9	
364.03	4570.4	
364.24	4916.5	
364.44	3620.1	
364.65	3624.2	
364.85	4319.8	
365.06	4141.7	
365.27	2731.3	
365.47	2817.3	
365.68	4916.5	
365.88	4349.2	
366.09	2998.9	
366.29	2766.1	
366.5	4373.8	
366.71	4643.4	
366.91	3568.9	
367.12	3075.4	
367.32	5056.4	
367.53	4556	
367.73	3129.3	
367.94	3662.5	
368.14	4585.4	
368.35	4969.7	
368.56	3061	
368.76	2623.4	
368.97	4722.6	
369.17	5597.1	
369.38	2707.4	
369.58	2904	
369.79	4018.1	
369.99	4820.2	
370.2	3576.4	
370.4	2951.1	
370.61	4446.1	
370.82	5242.1	
371.02	2869.2	
371.23	2536.8	
371.43	4067.3	
371.64	4887.1	
371.84	3001	
372.05	3601	
372.25	5499.5	
372.46	4571.1	
372.66	2938.8	
372.87	2872.6	
373.07	4609.3	
373.28	5579.3	
373.48	3502	
373.69	3304.7	
373.9	4324.6	
374.1	4328	
374.31	3411.2	
374.51	3118.4	
374.72	4783.4	
374.92	4089.1	
375.13	3523.9	
375.33	3013.9	
375.54	4470	
375.74	4241.3	
375.95	3160.7	
376.15	3842.7	
376.36	4577.9	
376.56	4515.8	
376.77	3097.9	
376.97	3321.8	
377.18	5276.3	
377.38	4670.7	
377.59	3474	
377.79	2832.3	
378	4413.4	
378.2	4648.9	
378.41	2841.9	
378.61	2742.9	
378.82	4769.7	
379.02	4263.9	
379.23	2910.2	
379.43	3590.8	
379.64	4896	
379.84	4572.4	
380.05	2837.8	
380.25	2762.7	
380.46	4586.8	
380.66	4414.1	
380.87	3695.9	
381.07	3852.2	
381.28	5011.4	
381.48	4584.7	
381.69	2846	
381.89	2869.9	
382.1	4005.1	
382.3	4623.6	
382.51	3517	
382.71	4052.9	
382.91	4539	
383.12	4882.4	
383.32	3070.6	
383.53	3167.5	
383.73	4538.3	
383.94	4483.7	
384.14	3191.4	
384.35	2679.4	
384.55	4312.3	
384.76	4594.3	
384.96	3124.5	
385.17	3231.7	
385.37	4614.1	
385.58	4121.2	
385.78	3232.4	
385.98	2627.5	
386.19	4356.7	
386.39	4580.6	
386.6	2950.4	
386.8	3056.9	
387.01	4587.4	
387.21	4685.1	
387.42	3341.6	
387.62	3632.4	
387.83	4286.4	
388.03	4427	
388.23	3099.3	
388.44	3500	
388.64	4052.9	
388.85	4087.1	
389.05	3244	
389.26	3643.3	
389.46	5355.4	
389.67	4923.3	
389.87	3287	
390.07	3319.1	
390.28	4337.6	
390.48	4100	
390.69	2796.2	
390.89	2979.8	
391.1	4246.8	
391.3	4796.3	
391.5	3680.2	
391.71	4038.6	
391.91	4700.1	
392.12	5087.8	
392.32	3775.8	
392.53	3268.6	
392.73	4338.3	
392.93	4371	
393.14	3103.4	
393.34	3604.4	
393.55	4653.7	
393.75	4315.1	
393.95	3125.9	
394.16	3052.2	
394.36	4300.7	
394.57	4691.2	
394.77	2792.1	
394.98	3009.1	
395.18	4235.9	
395.38	4368.3	
395.59	3577.8	
395.79	2934.1	
396	4314.4	
396.2	4633.9	
396.4	3433.1	
396.61	3405.1	
396.81	4631.1	
397.02	4192.2	
397.22	3584.6	
397.42	3584.6	
397.63	4756.1	
397.83	4193.6	
398.04	2891	
398.24	3117	
398.44	4567	
398.65	3933.5	
398.85	2764.8	
399.05	2813.9	
399.26	4248.9	
399.46	5266.7	
399.67	3086.3	
399.87	2925.2	
400.07	4465.3	
400.28	4603.2	
400.48	2949.1	
400.69	3586.7	
400.89	4687.8	
401.09	5086.5	
401.3	2926.5	
401.5	3492.5	
401.7	5069.4	
401.91	5272.8	
402.11	3179.1	
402.32	3298.6	
402.52	4828.4	
402.72	4712.4	
402.93	3401.7	
403.13	2780.5	
403.33	5313.8	
403.54	4480.3	
403.74	3190.7	
403.94	3745.7	
404.15	4543.1	
404.35	5238.7	
404.56	3093.8	
404.76	4160.1	
404.96	4829.8	
405.17	4625.7	
405.37	3595.6	
405.57	3364.1	
405.78	4769	
405.98	4491.2	
406.18	3054.2	
406.39	3547.1	
406.59	4803.9	
406.79	4442.7	
407	2934.7	
407.2	3016.7	
407.4	5039.4	
407.61	4926	
407.81	2987.3	
408.01	4461.2	
408.22	4057.7	
408.42	5276.9	
408.62	3663.1	
408.83	3296.5	
409.03	4465.3	
409.23	4421.6	
409.44	3278.8	
409.64	3490.4	
409.84	5051	
410.05	4992.3	
410.25	3435.8	
410.45	3259.7	
410.66	4584	
410.86	6226.5	
411.06	3555.3	
411.27	3448.1	
411.47	5971.9	
411.67	4726.7	
411.88	3535.5	
412.08	3672	
412.28	5054.4	
412.49	5403.9	
412.69	3426.3	
412.89	3372.3	
413.09	5321.3	
413.3	5198.4	
413.5	3491.8	
413.7	3248.8	
413.91	4795	
414.11	5229.1	
414.31	3345	
414.52	3517	
414.72	5185.5	
414.92	4974.5	
415.12	3318.4	
415.33	3672	
415.53	5179.3	
415.73	5324.7	
415.94	3906.8	
416.14	3456.3	
416.34	4680.3	
416.55	4502.1	
416.75	4258.4	
416.95	3883.6	
417.15	5286.5	
417.36	5670.8	
417.56	4322.6	
417.76	3821.5	
417.97	5371.1	
418.17	5261.2	
418.37	3646.1	
418.57	3499.3	
418.78	5243.5	
418.98	5044.1	
419.18	4087.7	
419.38	3990.1	
419.59	4970.4	
419.79	4722.6	
419.99	3488.4	
420.2	3712.3	
420.4	5328.1	
420.6	5384.1	
420.8	3435.1	
421.01	3351.2	
421.21	5176.6	
421.41	5110.4	
421.61	3650.2	
421.82	3470.6	
422.02	4958.1	
422.22	5557.5	
422.42	3923.9	
422.63	3812	
422.83	4934.2	
423.03	5757.5	
423.23	3854.3	
423.44	3235.1	
423.64	4915.8	
423.84	4802.5	
424.04	3536.2	
424.25	3277.4	
424.45	5551.4	
424.65	5569.1	
424.85	3155.2	
425.06	3521.1	
425.26	5702.9	
425.46	4935.6	
425.66	3805.1	
425.87	3629.7	
426.07	5414.1	
426.27	5313.8	
426.47	3738.2	
426.67	3331.4	
426.88	5713.2	
427.08	5270.8	
427.28	3868.6	
427.48	3273.3	
427.69	4676.2	
427.89	5041.4	
428.09	3769.6	
428.29	3274.7	
428.5	5384.1	
428.7	5188.2	
428.9	3203.7	
429.1	3570.3	
429.3	5163.6	
429.51	5210.7	
429.71	3525.2	
429.91	3932.8	
430.11	5356.8	
430.31	5423.7	
430.52	3599	
430.72	3760.1	
430.92	5638.7	
431.12	5260.5	
431.32	3416	
431.53	3708.2	
431.73	4700.8	
431.93	5627.1	
432.13	3332.7	
432.33	3244	
432.54	4998.4	
432.74	5029.8	
432.94	3257.6	
433.14	3940.3	
433.34	5401.2	
433.55	5019.6	
433.75	3822.2	
433.95	4887.1	
434.15	5193.6	
434.35	4911.7	
434.56	3394.2	
434.76	3094.5	
434.96	5116.5	
435.16	5253.7	
435.36	3284.9	
435.56	3977.8	
435.77	4950.6	
435.97	5051	
436.17	4384.7	
436.37	3911.6	
436.57	4878.9	
436.78	4803.9	
436.98	5039.4	
437.18	4319.8	
437.38	5207.3	
437.58	4954.7	
437.78	4455	
437.99	3520.5	
438.19	5343.2	
438.39	6225.8	
438.59	3560.7	
438.79	3239.2	
438.99	5734.3	
439.2	4995	
439.4	3268.6	
439.6	3306.1	
439.8	5132.2	
440	5791.7	
440.2	3927.3	
440.4	3956.7	
440.61	5457.8	
440.81	5705	
441.01	3411.2	
441.21	3869.3	
441.41	5722.7	
441.61	5472.2	
441.81	4175.1	
442.02	4748.6	
442.22	6003.3	
442.42	5528.2	
442.62	3495.9	
442.82	3532.7	
443.02	5813.5	
443.22	5134.3	
443.43	3768.3	
443.63	3422.2	
443.83	5102.9	
444.03	5041.4	
444.23	4173.8	
444.43	3938.2	
444.63	5304.9	
444.83	5986.9	
445.04	3617.4	
445.24	4272.1	
445.44	5574.6	
445.64	5515.9	
445.84	4020.8	
446.04	3993.5	
446.24	5082.4	
446.44	5733.6	
446.65	3547.1	
446.85	3753.9	
447.05	5183.4	
447.25	5662.6	
447.45	3864.5	
447.65	3403	
447.85	5385.5	
448.05	5049.6	
448.25	4089.8	
448.46	3924.6	
448.66	5344.5	
448.86	5109	
449.06	3454.2	
449.26	4063.2	
449.46	5528.2	
449.66	5003.9	
449.86	3785.3	
450.06	3743.7	
450.26	5040.1	
450.47	5489.2	
450.67	3928	
450.87	4137.6	
451.07	5655.1	
451.27	5325.4	
451.47	3576.4	
451.67	4075.5	
451.87	5159.5	
452.07	5934.3	
452.27	3656.3	
452.47	3638.6	
452.67	5396.4	
452.88	5585.5	
453.08	3343.7	
453.28	4471.4	
453.48	6167.1	
453.68	5323.4	
453.88	3650.2	
454.08	3768.3	
454.28	5549.3	
454.48	5379.3	
454.68	4050.2	
454.88	4375.8	
455.08	5748	
455.28	5372.5	
455.48	3579.8	
455.68	3901.4	
455.89	5954.1	
456.09	5671.5	
456.29	3798.3	
456.49	3751.2	
456.69	5872.2	
456.89	5277.6	
457.09	4106.2	
457.29	4311.7	
457.49	5586.9	
457.69	5655.1	
457.89	4040.6	
458.09	3592.1	
458.29	5408.7	
458.49	5928.2	
458.69	4239.3	
458.89	3842	
459.09	6045.6	
459.29	6013.5	
459.49	3873.4	
459.69	4446.8	
459.9	5739.8	
460.1	5375.9	
460.3	3880.9	
460.5	3703.4	
460.7	5733.6	
460.9	5394.3	
461.1	3572.3	
461.3	4252.3	
461.5	6118.6	
461.7	5867.4	
461.9	3777.8	
462.1	4067.3	
462.3	5595.7	
462.5	5832.6	
462.7	3798.3	
462.9	3874.1	
463.1	6594.5	
463.3	6289.3	
463.5	4063.9	
463.7	4505.5	
463.9	5728.2	
464.1	5944.6	
464.3	4048.8	
464.5	4201.7	
464.7	6122.1	
464.9	5761.6	
465.1	4959.5	
465.3	4409.3	
465.5	6253.1	
465.7	6306.4	
465.9	4650.3	
466.1	4440.7	
466.3	6103.6	
466.5	6060.6	
466.7	4956.8	
466.9	4317.8	
467.1	6149.4	
467.3	6648.4	
467.5	4971.1	
467.7	4307.6	
467.9	6749.4	
468.1	7240.3	
468.3	4705.5	
468.5	5018.2	
468.7	6017.6	
468.9	5885.2	
469.1	4583.4	
469.3	4896.7	
469.5	7189.1	
469.7	5800.5	
469.9	4864.6	
470.1	4292.5	
470.3	6171.2	
470.5	6111.1	
470.7	5098.8	
470.9	4453	
471.1	5865.4	
471.3	6221	
471.5	4373.1	
471.69	5489.2	
471.89	5934.3	
472.09	5540.4	
472.29	4769.7	
472.49	5042.1	
472.69	5748.6	
472.89	6102.9	
473.09	4274.1	
473.29	4364.2	
473.49	5822.4	
473.69	5743.9	
473.89	4833.2	
474.09	4476.9	
474.29	6728.9	
474.49	6379.4	
474.69	4894.6	
474.89	4543.8	
475.09	5895.4	
475.29	5910.4	
475.49	4259.8	
475.69	4271.4	
475.88	6856.6	
476.08	6170.5	
476.28	4113.7	
476.48	4354.7	
476.68	6457.2	
476.88	6181.5	
477.08	4421.6	
477.28	4506.2	
477.48	6016.2	
477.68	6347.3	
477.88	4143	
478.08	4419.5	
478.28	6468.2	
478.48	6026.5	
478.67	4474.8	
478.87	4083	
479.07	6384.2	
479.27	6043.6	
479.47	4549.9	
479.67	4584.7	
479.87	6312.5	
480.07	6636.8	
480.27	4137.6	
480.47	5045.5	
480.67	6075	
480.87	6543.9	
481.06	4288.4	
481.26	4831.8	
481.46	6184.2	
481.66	6004.6	
481.86	4652.3	
482.06	5091.9	
482.26	5971.9	
482.46	6555.5	
482.66	4475.5	
482.86	4271.4	
483.05	6274.3	
483.25	5798.5	
483.45	6038.1	
483.65	4509.6	
483.85	5780.7	
484.05	6072.2	
484.25	4818.2	
484.45	5039.4	
484.65	6538.5	
484.84	6552.8	
485.04	4569.7	
485.24	4502.1	
485.44	6854.6	
485.64	5740.5	
485.84	4119.1	
486.04	4898.1	
486.24	6000.5	
486.44	6178	
486.63	4078.9	
486.83	4594.3	
487.03	5920	
487.23	6059.9	
487.43	4085.7	
487.63	5478.3	
487.83	6098.2	
488.02	6443.6	
488.22	4685.8	
488.42	5036	
488.62	6660.7	
488.82	5776	
489.02	4486.4	
489.22	4574.5	
489.41	6436.1	
489.61	6320	
489.81	4332.1	
490.01	4422.9	
490.21	6596.5	
490.41	6967.9	
490.61	4375.8	
490.8	4418.8	
491	6161.7	
491.2	5821.7	
491.4	4901.5	
491.6	4316.4	
491.8	6229.9	
491.99	6188.3	
492.19	4190.1	
492.39	4339	
492.59	6446.3	
492.79	6531	
492.99	4930.8	
493.18	4364.2	
493.38	6673.6	
493.58	7073	
493.78	4780.6	
493.98	4492.6	
494.18	6369.9	
494.37	5930.2	
494.57	4872.1	
494.77	4854.4	
494.97	6505.7	
495.17	6766.5	
495.37	4599.7	
495.56	4829.1	
495.76	6750.8	
495.96	6572.6	
496.16	5388.9	
496.36	4760.2	
496.55	6703	
496.75	6348	
496.95	4962.2	
497.15	4858.5	
497.35	6685.9	
497.54	6695.5	
497.74	4846.9	
497.94	5894.7	
498.14	7154.9	
498.34	6901	
498.53	4608.6	
498.73	5059.8	
498.93	6298.9	
499.13	6675.7	
499.33	4942.4	
499.52	5251	
499.72	6779.5	
499.92	6858	
500.12	4784.1	
500.32	4941.1	
500.51	6928.3	
500.71	6627.2	
500.91	5490.6	
501.11	5221.6	
501.31	6874.3	
501.5	7069.6	
501.7	5643.5	
501.9	4965	
502.1	6764.4	
502.29	6939.2	
502.49	5332.9	
502.69	5535	
502.89	6843.6	
503.09	6830.7	
503.28	4691.9	
503.48	4826.4	
503.68	6485.9	
503.88	6425.2	
504.07	5353.4	
504.27	5081	
504.47	6701	
504.67	6722.1	
504.86	5367.7	
505.06	5199.1	
505.26	6601.3	
505.46	7541.3	
505.65	5160.2	
505.85	5242.1	
506.05	6559	
506.25	6866.2	
506.44	4775.9	
506.64	5251.7	
506.84	6452.5	
507.04	6864.8	
507.23	4844.8	
507.43	5180.7	
507.63	7576.1	
507.83	6488.6	
508.02	5173.9	
508.22	4917.2	
508.42	7765.9	
508.62	6420.4	
508.81	5265.3	
509.01	5433.9	
509.21	6369.9	
509.4	6588.3	
509.6	5186.1	
509.8	4759.5	
510	6566.5	
510.19	7309.9	
510.39	4791.6	
510.59	4844.8	
510.79	6432.7	
510.98	7187	
511.18	4952.7	
511.38	5051.7	
511.57	7059.3	
511.77	6666.1	
511.97	5388.2	
512.17	4909	
512.36	6972.7	
512.56	6823.8	
512.76	4827.1	
512.95	4715.8	
513.15	7141.3	
513.35	6167.8	
513.55	5403.2	
513.74	4866.7	
513.94	6988.4	
514.14	6624.5	
514.33	5423	
514.53	5320.6	
514.73	6636.8	
514.92	6647.7	
515.12	5001.8	
515.32	4901.5	
515.51	6746.7	
515.71	7016.3	
515.91	6007.4	
516.11	4934.9	
516.3	7832.8	
516.5	6617.7	
516.7	5341.8	
516.89	5655.8	
517.09	6663.4	
517.29	6655.9	
517.48	5528.8	
517.68	5094	
517.88	6422.4	
518.07	6956.9	
518.27	5493.3	
518.47	4912.4	
518.66	7180.2	
518.86	6498.2	
519.06	4817.5	
519.25	5084.4	
519.45	6642.2	
519.65	7475.1	
519.84	5442.8	
520.04	5855.8	
520.24	7769.3	
520.43	7036.1	
520.63	5392.3	
520.83	5206.6	
521.02	6675.7	
521.22	7038.9	
521.42	5524.7	
521.61	5878.4	
521.81	6754.2	
522.01	6983.6	
522.2	5387.5	
522.4	5311.7	
522.6	7210.9	
522.79	6346.7	
522.99	5460.6	
523.18	5002.5	
523.38	7093.5	
523.58	7073.7	
523.77	6139.8	
523.97	4997.7	
524.17	8118.1	
524.36	7718.1	
524.56	5855.8	
524.76	5636	
524.95	7118.1	
525.15	6849.1	
525.34	5544.5	
525.54	5606	
525.74	7443	
525.93	6780.1	
526.13	6346.7	
526.33	5554.1	
526.52	7721.5	
526.72	7260.7	
526.91	6411.5	
527.11	5952.8	
527.31	7593.2	
527.5	7854	
527.7	5890	
527.89	5395.7	
528.09	7023.2	
528.29	7464.8	
528.48	6234	
528.68	5977.3	
528.87	7725.6	
529.07	7668.3	
529.27	5967.1	
529.46	5713.8	
529.66	7591.1	
529.85	7752.9	
530.05	5655.8	
530.25	6133	
530.44	8433.5	
530.64	7496.9	
530.83	5905	
531.03	6006.7	
531.23	7968.6	
531.42	7658	
531.62	6521.4	
531.81	6092.7	
532.01	7995.3	
532.21	8118.1	
532.4	5957.5	
532.6	6161	
532.79	8506.6	
532.99	8021.2	
533.18	6287.9	
533.38	6893.5	
533.58	7773.4	
533.77	8135.9	
533.97	6293.4	
534.16	6771.3	
534.36	8458.8	
534.55	7859.4	
534.75	6824.5	
534.95	6337.8	
535.14	8464.9	
535.34	7795.9	
535.53	6155.5	
535.73	7348.1	
535.92	8692.9	
536.12	7913.4	
536.31	6318	
536.51	6966.5	
536.71	8226	
536.9	7948.2	
537.1	6338.5	
537.29	6394.4	
537.49	8455.4	
537.68	7861.5	
537.88	6728.3	
538.07	6156.2	
538.27	8082.6	
538.46	8664.3	
538.66	6219.7	
538.86	6488.6	
539.05	8176.9	
539.25	8404.2	
539.44	6723.5	
539.64	6322.8	
539.83	8045.1	
540.03	8685.4	
540.22	6299.6	
540.42	6384.9	
540.61	8220.5	
540.81	8253.3	
541	6657.3	
541.2	7002	
541.39	7806.2	
541.59	8042.4	
541.78	6934.4	
541.98	6376.7	
542.18	7655.3	
542.37	7712.7	
542.57	6582.2	
542.76	6911.9	
542.96	7862.8	
543.15	8093.6	
543.35	6636.8	
543.54	6169.2	
543.74	8076.5	
543.93	8101.8	
544.13	6587.6	
544.32	7194.5	
544.52	8358.4	
544.71	7744.1	
544.91	6025.1	
545.1	6712.6	
545.3	7837.6	
545.49	8157.7	
545.69	5919.3	
545.88	6328.2	
546.08	8744.1	
546.27	8391.2	
546.47	6591.7	
546.66	6186.9	
546.86	8293.6	
547.05	8649.9	
547.24	6396.5	
547.44	6313.9	
547.63	7746.1	
547.83	8288.8	
548.02	6516.6	
548.22	6617.7	
548.41	7553.6	
548.61	8424.7	
548.8	6143.9	
549	6221.7	
549.19	8091.5	
549.39	8180.3	
549.58	6058.6	
549.78	6403.3	
549.97	8301.1	
550.17	7845.8	
550.36	6950.8	
550.55	7486	
550.75	7809.6	
550.94	8371.4	
551.14	6181.5	
551.33	6322.1	
551.53	7516	
551.72	8109.3	
551.92	6406.7	
552.11	6254.5	
552.31	8183	
552.5	8054	
552.69	7397.9	
552.89	6034.7	
553.08	8049.2	
553.28	7919.5	
553.47	6354.8	
553.67	6930.3	
553.86	8531.8	
554.06	7447.8	
554.25	5731.6	
554.44	6144.6	
554.64	8905.9	
554.83	8602.8	
555.03	6113.9	
555.22	6347.3	
555.42	8283.4	
555.61	7942.7	
555.8	6230.6	
556	6343.9	
556.19	7470.3	
556.39	8138.6	
556.58	6215.6	
556.78	6307.1	
556.97	7995.3	
557.16	7864.2	
557.36	7017.7	
557.55	6052.4	
557.75	7318.1	
557.94	8512	
558.13	6028.5	
558.33	6021	
558.52	8300.4	
558.72	7494.2	
558.91	5936.4	
559.1	6204	
559.3	7376.1	
559.49	7295.5	
559.69	5995.8	
559.88	6317.3	
560.07	7942	
560.27	8209.6	
560.46	6440.2	
560.66	6552.8	
560.85	7874.4	
561.04	7264.1	
561.24	5913.2	
561.43	6051.1	
561.63	7427.3	
561.82	7623.2	
562.01	6774	
562.21	6258.6	
562.4	7818.5	
562.59	8462.9	
562.79	6208.8	
562.98	6019	
563.18	7791.8	
563.37	8620.6	
563.56	6466.1	
563.76	5958.2	
563.95	7591.1	
564.14	7449.1	
564.34	6190.3	
564.53	5950	
564.73	7869	
564.92	7935.9	
565.11	6235.4	
565.31	5859.2	
565.5	8267	
565.69	7384.3	
565.89	6088.6	
566.08	6210.1	
566.27	7962.5	
566.47	8241.7	
566.66	6656.6	
566.85	5812.1	
567.05	7897	
567.24	7577.5	
567.44	5930.2	
567.63	6847.7	
567.82	8038.3	
568.02	7719.5	
568.21	5922.7	
568.4	6205.3	
568.6	7718.8	
568.79	7653.3	
568.98	5900.2	
569.18	5930.2	
569.37	7707.9	
569.56	8962.6	
569.76	6178	
569.95	6780.8	
570.14	7960.5	
570.34	7724.3	
570.53	5962.3	
570.72	5754.1	
570.91	8295.6	
571.11	7718.1	
571.3	6206.7	
571.49	6683.9	
571.69	7789.1	
571.88	7400	
572.07	6475	
572.27	6473.6	
572.46	7381.6	
572.65	7956.4	
572.85	5986.9	
573.04	6223.8	
573.23	8159.1	
573.43	7761.8	
573.62	5892	
573.81	6225.1	
574	7784.3	
574.2	7615	
574.39	6125.5	
574.58	6025.8	
574.78	8282.7	
574.97	7765.9	
575.16	6395.8	
575.36	6488	
575.55	8094.3	
575.74	8094.3	
575.93	5799.2	
576.13	6483.9	
576.32	7645.8	
576.51	8041	
576.71	6163	
576.9	6921.5	
577.09	8263.6	
577.28	7924.3	
577.48	6309.1	
577.67	5767.8	
577.86	7716.7	
578.05	7940.7	
578.25	6202.6	
578.44	6211.5	
578.63	7695.6	
578.83	8428.1	
579.02	5902.2	
579.21	6744	
579.4	7778.9	
579.6	7705.1	
579.79	6254.5	
579.98	7552.9	
580.17	8008.9	
580.37	8106.5	
580.56	5961.6	
580.75	6382.8	
580.94	8252.6	
581.14	8367.3	
581.33	6692.1	
581.52	6018.3	
581.71	8003.5	
581.91	8415.8	
582.1	5933.6	
582.29	6156.9	
582.48	7740.6	
582.68	7723.6	
582.87	6440.9	
583.06	6324.8	
583.25	8053.3	
583.45	7511.3	
583.64	6699.6	
583.83	7113.3	
584.02	7752.9	
584.21	7887.4	
584.41	6548	
584.6	6213.5	
584.79	7773.4	
584.98	8101.1	
585.18	5971.2	
585.37	5907	
585.56	7583.6	
585.75	7914	
585.94	6056.5	
586.14	6432	
586.33	8334.6	
586.52	7714	
586.71	6362.4	
586.91	6118.6	
587.1	7342	
587.29	8067.6	
587.48	6083.1	
587.67	5958.9	
587.87	7896.3	
588.06	7804.1	
588.25	6820.4	
588.44	6391	
588.63	7537.9	
588.83	7967.3	
589.02	6071.5	
589.21	5920.7	
589.4	7581.6	
589.59	7434.1	
589.78	5509	
589.98	5651	
590.17	7151.5	
590.36	7418.4	
590.55	5233.9	
590.74	5660.6	
590.94	8119.5	
591.13	7303.1	
591.32	5560.2	
591.51	5312.4	
591.7	7484.6	
591.89	7304.4	
592.09	5303.6	
592.28	5644.2	
592.47	6718	
592.66	8055.3	
592.85	5309.7	
593.05	5425.1	
593.24	7199.3	
593.43	7697.6	
593.62	5596.4	
593.81	5771.9	
594	7263.5	
594.19	7385.7	
594.39	5450.3	
594.58	5360.2	
594.77	7400.7	
594.96	7712.7	
595.15	5417.6	
595.34	5799.8	
595.54	7364.5	
595.73	6810.2	
595.92	5032.5	
596.11	5698.1	
596.3	7662.8	
596.49	6909.8	
596.68	5634	
596.88	5797.1	
597.07	7459.4	
597.26	6767.2	
597.45	5324	
597.64	5960.3	
597.83	6958.3	
598.02	7345.4	
598.22	5258.5	
598.41	5769.8	
598.6	7277.8	
598.79	6769.9	
598.98	5347.2	
599.17	5885.9	
599.36	7340.6	
599.55	7907.9	
599.74	6586.3	
599.94	6472.9	
600.13	7538.6	
600.32	6831.3	
600.51	5122	
600.7	5199.8	
600.89	7864.9	
601.08	7943.4	
601.27	5167.7	
601.47	5689.9	
601.66	7451.9	
601.85	7793.2	
602.04	5608.7	
602.23	5694	
602.42	6903	
602.61	7240.9	
602.8	5400.5	
602.99	5338.4	
603.18	7175.4	
603.37	7157.7	
603.57	5644.2	
603.76	6081.8	
603.95	7705.8	
604.14	7361.8	
604.33	5416.9	
604.52	5567.1	
604.71	7273.7	
604.9	6862.7	
605.09	5955.5	
605.28	5779.4	
605.47	7694.2	
605.66	7217.7	
605.86	5732.9	
606.05	5352.7	
606.24	7620.5	
606.43	6560.3	
606.62	5571.2	
606.81	5988.3	
607	7497.6	
607.19	6972	
607.38	5186.8	
607.57	5300.8	
607.76	6860.7	
607.95	6494.8	
608.14	5618.3	
608.33	5971.9	
608.52	6885.3	
608.72	7455.3	
608.91	5086.5	
609.1	5097.4	
609.29	6960.4	
609.48	6576.7	
609.67	5737.7	
609.86	5170.4	
610.05	6753.5	
610.24	6837.5	
610.43	5071.5	
610.62	4788.8	
610.81	7572.7	
611	7458	
611.19	5160.9	
611.38	5566.4	
611.57	7159	
611.76	7763.2	
611.95	4962.2	
612.14	4873.5	
612.33	6932.4	
612.52	6665.5	
612.71	5270.8	
612.9	4856.4	
613.09	6331.6	
613.28	7845.1	
613.47	5199.8	
613.66	5688.6	
613.85	7042.3	
614.04	6655.9	
614.24	5209.3	
614.43	4702.8	
614.62	7095.5	
614.81	6987	
615	5473.5	
615.19	5485.1	
615.38	6593.1	
615.57	6864.1	
615.76	5385.5	
615.95	5981.4	
616.14	7112.6	
616.33	6952.9	
616.52	5621	
616.71	5590.3	
616.9	7071	
617.09	6922.8	
617.28	5246.9	
617.47	5981.4	
617.66	6540.5	
617.85	6509.8	
618.04	5692	
618.22	5406.6	
618.41	6685.3	
618.6	7267.6	
618.79	5367.7	
618.98	5224.4	
619.17	7434.8	
619.36	6298.9	
619.55	5301.5	
619.74	5329.5	
619.93	7058	
620.12	6668.2	
620.31	5672.2	
620.5	5758.2	
620.69	7331.7	
620.88	7665.5	
621.07	6154.1	
621.26	5650.3	
621.45	7105.1	
621.64	7146.7	
621.83	5704.3	
622.02	5188.2	
622.21	7214.3	
622.4	7010.9	
622.59	5996.5	
622.78	5980.1	
622.97	6857.3	
623.16	7486	
623.35	5741.1	
623.54	5117.9	
623.72	6954.9	
623.91	7017.7	
624.1	5799.8	
624.29	5064.6	
624.48	7737.9	
624.67	7290.1	
624.86	5741.8	
625.05	5165.7	
625.24	7772	
625.43	6847.7	
625.62	6751.5	
625.81	5335.6	
626	7350.8	
626.19	6925.5	
626.38	5767.1	
626.56	5416.2	
626.75	6786.3	
626.94	7376.1	
627.13	5827.2	
627.32	5048.2	
627.51	7337.9	
627.7	7917.4	
627.89	5157.5	
628.08	5892.7	
628.27	6797.9	
628.46	6961.7	
628.65	5312.4	
628.83	5059.2	
629.02	7258	
629.21	6717.3	
629.4	5516.5	
629.59	5739.8	
629.78	6854.6	
629.97	7378.1	
630.16	5587.5	
630.35	5384.8	
630.54	7688.8	
630.72	7475.8	
630.91	5416.9	
631.1	5696.8	
631.29	7075.7	
631.48	7102.4	
631.67	5865.4	
631.86	5381.4	
632.05	6981.5	
632.24	6876.4	
632.42	5294	
632.61	5527.5	
632.8	6932.4	
632.99	6720.1	
633.18	5604.6	
633.37	5724.8	
633.56	7166.5	
633.75	7103	
633.93	5659.2	
634.12	5398.4	
634.31	7750.9	
634.5	7348.1	
634.69	5448.3	
634.88	5742.5	
635.07	7039.6	
635.25	7316.7	
635.44	5969.8	
635.63	6091.3	
635.82	6897.6	
636.01	6388.3	
636.2	5881.8	
636.39	5722	
636.57	7627.3	
636.76	7251.2	
636.95	5272.8	
637.14	6062.7	
637.33	7281.2	
637.52	7678.5	
637.7	5197.1	
637.89	5814.2	
638.08	6967.2	
638.27	7744.7	
638.46	5887.2	
638.65	6027.9	
638.83	7793.9	
639.02	6773.3	
639.21	5774.6	
639.4	5969.8	
639.59	7039.6	
639.78	6765.1	
639.96	5240.1	
640.15	5327.4	
640.34	6973.3	
640.53	6962.4	
640.72	5197.1	
640.91	5295.4	
641.09	6644.3	
641.28	7367.9	
641.47	5303.6	
641.66	5786.2	
641.85	7034.8	
642.03	7135.8	
642.22	5641.5	
642.41	5332.2	
642.6	6627.2	
642.79	6267.5	
642.97	5201.8	
643.16	5513.1	
643.35	6573.3	
643.54	6478.4	
643.73	4968.4	
643.91	5554.1	
644.1	6421.7	
644.29	6746.7	
644.48	5173.9	
644.67	5121.3	
644.85	6424.5	
645.04	6763.1	
645.23	4911	
645.42	5162.9	
645.6	6404	
645.79	7161.1	
645.98	5072.1	
646.17	4415.4	
646.36	6246.3	
646.54	6484.6	
646.73	5524.7	
646.92	4745.1	
647.11	6360.3	
647.29	6891.4	
647.48	4788.2	
647.67	4607.2	
647.86	7138.5	
648.05	7005.4	
648.23	5011.4	
648.42	5730.9	
648.61	6674.3	
648.8	6485.9	
648.98	4719.9	
649.17	4949.9	
649.36	6222.4	
649.55	6008.1	
649.73	4773.8	
649.92	5201.8	
650.11	6113.9	
650.3	6369.9	
650.48	4827.1	
650.67	4646.2	
650.86	6593.1	
651.05	5849.7	
651.23	4743.1	
651.42	4793.6	
651.61	6210.1	
651.79	6171.2	
651.98	4894.6	
652.17	4666	
652.36	6483.2	
652.54	5847.6	
652.73	4747.2	
652.92	4653	
653.11	6443.6	
653.29	6571.9	
653.48	4347.8	
653.67	4823	
653.85	6286.6	
654.04	6952.9	
654.23	4931.5	
654.42	4736.3	
654.6	6118	
654.79	6463.4	
654.98	4465.3	
655.16	4734.9	
655.35	5843.5	
655.54	5586.9	
655.73	4394.3	
655.91	4317.8	
656.1	6371.9	
656.29	5589.6	
656.47	4053.6	
656.66	5162.2	
656.85	5847.6	
657.03	5846.3	
657.22	4470	
657.41	4461.2	
657.59	5931.6	
657.78	5763	
657.97	4211.3	
658.16	4644.1	
658.34	6382.2	
658.53	6533.7	
658.72	5201.2	
658.9	5515.2	
659.09	6081.8	
659.28	6025.1	
659.46	4551.3	
659.65	4433.2	
659.84	5840.8	
660.02	6272.9	
660.21	4489.1	
660.4	4346.5	
660.58	6495.5	
660.77	6010.1	
660.96	4851	
661.14	4190.1	
661.33	6745.3	
661.52	6624.5	
661.7	4139.6	
661.89	6265.4	
662.08	5739.1	
662.26	5397.8	
662.45	4364.9	
662.64	4399	
662.82	6215.6	
663.01	5685.2	
663.2	4361.5	
663.38	4773.1	
663.57	6193.7	
663.75	6065.4	
663.94	4513.7	
664.13	5362.9	
664.31	5757.5	
664.5	6139.8	
664.69	4727.4	
664.87	5068	
665.06	5587.5	
665.25	5989.6	
665.43	5190.9	
665.62	5212.8	
665.8	6154.8	
665.99	5768.4	
666.18	4544.4	
666.36	4560.8	
666.55	6236.1	
666.74	6103.6	
666.92	4339	
667.11	5260.5	
667.29	5882.4	
667.48	6098.9	
667.67	5053	
667.85	4457.1	
668.04	5749.3	
668.22	5666.7	
668.41	4636.6	
668.6	4761.5	
668.78	5611.4	
668.97	5843.5	
669.15	4801.1	
669.34	4091.2	
669.53	5699.5	
669.71	5889.3	
669.9	4252.3	
670.08	4660.5	
670.27	5584.8	
670.46	6070.2	
670.64	4722.6	
670.83	4947.2	
671.01	5462.6	
671.2	5869.5	
671.38	4311	
671.57	4255	
671.76	6463.4	
671.94	6625.2	
672.13	4169	
672.31	4771.1	
672.5	6119.3	
672.69	5626.5	
672.87	4252.9	
673.06	4466.6	
673.24	6006	
673.43	5683.8	
673.61	4696.7	
673.8	4386.7	
673.98	5994.4	
674.17	6191.7	
674.36	4872.8	
674.54	4729.4	
674.73	5831.9	
674.91	6126.2	
675.1	4545.1	
675.28	4244.8	
675.47	5754.8	
675.65	6062	
675.84	4440	
676.03	4635.2	
676.21	5694	
676.4	5273.5	
676.58	4928.1	
676.77	4787.5	
676.95	6619	
677.14	5659.9	
677.32	4185.4	
677.51	4155.3	
677.69	6146.6	
677.88	5530.2	
678.06	4205.2	
678.25	4223.6	
678.44	5716.6	
678.62	5608	
678.81	4095.9	
678.99	4699.4	
679.18	6279.8	
679.36	5953.4	
679.55	4444.1	
679.73	4800.4	
679.92	5948.7	
680.1	5639.4	
680.29	5113.1	
680.47	4394.3	
680.66	5746.6	
680.84	6111.8	
681.03	4045.4	
681.21	4703.5	
681.4	5638.1	
681.58	5586.2	
681.77	4308.2	
681.95	4281.6	
682.14	6197.2	
682.32	6297.5	
682.51	4817.5	
682.69	4078.2	
682.88	5582.1	
683.06	5913.9	
683.25	4720.6	
683.43	4904.2	
683.62	5917.9	
683.8	6097.5	
683.99	4998.4	
684.17	4568.3	
684.36	6579.4	
684.54	5765.7	
684.73	4143	
684.91	4237.9	
685.1	5958.9	
685.28	5629.2	
685.46	4623.6	
685.65	4592.2	
685.83	6040.1	
686.02	5746.6	
686.2	4247.5	
686.39	4294.6	
686.57	5392.3	
686.76	6410.1	
686.94	4326.7	
687.13	4390.2	
687.31	6006	
687.5	5782.8	
687.68	3990.1	
687.86	4721.9	
688.05	6864.1	
688.23	5453.7	
688.42	4881.7	
688.6	4377.9	
688.79	5695.4	
688.97	5728.9	
689.16	4713.7	
689.34	4020.8	
689.52	6145.3	
689.71	6391.7	
689.89	4887.8	
690.08	4479.6	
690.26	6042.2	
690.45	5885.2	
690.63	5047.6	
690.81	4558.1	
691	5979.4	
691.18	5780.7	
691.37	4775.9	
691.55	6008.7	
691.74	5801.2	
691.92	7077.8	
692.1	4729.4	
692.29	4363.5	
692.47	6216.3	
692.66	5608.7	
692.84	4653.7	
693.02	4851.6	
693.21	5697.4	
693.39	6051.7	
693.58	4972.5	
693.76	4593.6	
693.94	6763.1	
694.13	6662.7	
694.31	4710.3	
694.5	5299.5	
694.68	5967.8	
694.86	6311.8	
695.05	4930.8	
695.23	5260.5	
695.42	6535.8	
695.6	7903.8	
695.78	5411.4	
695.97	4826.4	
696.15	6653.9	
696.34	6189.6	
696.52	4818.9	
696.7	5342.5	
696.89	6457.9	
697.07	6098.9	
697.25	5188.2	
697.44	6066.1	
697.62	6515.3	
697.81	6647	
697.99	5123.3	
698.17	5355.4	
698.36	6227.9	
698.54	6678.4	
698.72	5326.1	
698.91	4790.2	
699.09	6407.4	
699.28	6199.9	
699.46	5217.5	
699.64	5138.4	
699.83	6272.9	
700.01	6890.7	
700.19	5655.8	
700.38	4694.6	
700.56	7058	
700.74	6405.4	
700.93	4926	
701.11	5494.7	
701.29	6787.7	
701.48	7435.5	
701.66	5124	
701.84	5261.9	
702.03	6567.8	
702.21	7124.9	
702.39	4943.1	
702.58	5436	
702.76	7032.7	
702.94	6950.1	
703.13	5028.4	
703.31	6543.3	
703.49	6590.4	
703.68	7244.3	
703.86	5231.9	
704.04	5799.8	
704.23	6896.9	
704.41	7141.3	
704.59	5309.7	
704.78	6015.6	
704.96	7976.8	
705.14	7169.9	
705.33	5257.1	
705.51	5720	
705.69	6789	
705.87	7341.3	
706.06	5943.9	
706.24	5232.6	
706.42	7147.4	
706.61	7217	
706.79	6054.5	
706.97	5279	
707.16	6744.6	
707.34	7080.5	
707.52	5913.9	
707.7	5446.9	
707.89	6893.5	
708.07	6685.3	
708.25	6041.5	
708.44	6168.5	
708.62	6837.5	
708.8	7664.2	
708.98	6239.5	
709.17	5633.3	
709.35	7145.4	
709.53	7211.6	
709.72	5492.7	
709.9	5544.5	
710.08	7375.4	
710.26	7447.1	
710.45	6429.3	
710.63	5718.6	
710.81	7088.7	
710.99	7266.2	
711.18	6072.2	
711.36	5748.6	
711.54	7122.2	
711.72	7483.3	
711.91	5852.4	
712.09	5496.7	
712.27	7235.5	
712.45	7483.3	
712.64	5930.2	
712.82	5373.2	
713	6773.3	
713.18	6873	
713.37	5381.4	
713.55	6158.2	
713.73	7415.7	
713.91	6537.8	
714.1	5526.1	
714.28	5129.5	
714.46	7044.3	
714.64	6460.7	
714.83	4758.1	
715.01	5115.1	
715.19	6551.5	
715.37	5911.8	
715.55	4859.8	
715.74	4989.5	
715.92	6881.9	
716.1	5588.9	
716.28	5644.9	
716.47	5081	
716.65	6168.5	
716.83	6137.8	
717.01	4982	
717.19	4943.1	
717.38	7479.9	
717.56	5958.9	
717.74	5136.3	
717.92	4639.3	
718.1	6762.4	
718.29	6172.6	
718.47	4442	
718.65	4947.9	
718.83	6821.8	
719.01	6869.6	
719.2	4588.1	
719.38	5266	
719.56	6719.4	
719.74	7697.6	
719.92	5151.3	
720.11	5708.4	
720.29	6834.1	
720.47	6163	
720.65	4770.4	
720.83	5266	
721.02	6400.6	
721.2	6184.9	
721.38	5193.6	
721.56	4791.6	
721.74	5843.5	
721.92	5839.4	
722.11	5474.2	
722.29	5328.1	
722.47	6717.3	
722.65	6202.6	
722.83	4745.8	
723.01	5228.5	
723.2	6235.4	
723.38	6405.4	
723.56	4472.8	
723.74	5067.4	
723.92	5975.3	
724.1	6588.3	
724.29	4730.1	
724.47	5422.3	
724.65	6160.3	
724.83	5999.2	
725.01	4668.7	
725.19	5202.5	
725.37	5961	
725.56	5912.5	
725.74	4637.3	
725.92	4732.9	
726.1	6052.4	
726.28	6200.6	
726.46	5025.7	
726.64	4764.3	
726.83	6318	
727.01	6367.1	
727.19	4678.9	
727.37	5157.5	
727.55	6347.3	
727.73	6541.9	
727.91	4614.1	
728.09	4526.7	
728.28	6606.7	
728.46	6731	
728.64	5250.3	
728.82	5129.5	
729	7303.1	
729.18	6935.1	
729.36	4709	
729.54	6059.3	
729.72	7479.2	
729.91	6527.6	
730.09	6049.7	
730.27	5281.7	
730.45	6511.9	
730.63	6877.1	
730.81	5616.2	
730.99	5087.8	
731.17	7239.6	
731.35	6386.2	
731.53	5370.5	
731.71	5178.6	
731.9	7072.3	
732.08	7083.9	
732.26	5311.7	
732.44	5098.1	
732.62	7113.3	
732.8	6920.1	
732.98	5519.3	
733.16	4954.7	
733.34	6767.9	
733.52	5949.3	
733.7	5279	
733.88	5415.5	
734.07	6634.7	
734.25	6558.3	
734.43	4973.8	
734.61	5845.6	
734.79	7484.6	
734.97	6511.9	
735.15	5020.9	
735.33	5173.9	
735.51	6769.9	
735.69	6403.3	
735.87	5806	
736.05	5274.9	
736.23	6563.7	
736.41	6311.8	
736.59	5165.7	
736.77	5234.6	
736.95	6915.3	
737.13	6432.7	
737.32	4999.8	
737.5	5128.8	
737.68	7225.2	
737.86	6379.4	
738.04	4849.6	
738.22	5896.8	
738.4	6246.3	
738.58	6492.1	
738.76	5166.3	
738.94	4603.2	
739.12	6351.4	
739.3	6287.9	
739.48	5572.5	
739.66	5397.8	
739.84	6514.6	
740.02	6453.1	
740.2	4655	
740.38	4730.1	
740.56	6745.3	
740.74	5914.5	
740.92	5257.1	
741.1	5076.2	
741.28	6291.4	
741.46	6118	
741.64	4853	
741.82	5209.3	
742	6345.3	
742.18	6201.2	
742.36	4977.9	
742.54	4737	
742.72	6673	
742.9	5809.4	
743.08	5140.4	
743.26	4520.5	
743.44	6632	
743.62	6564.4	
743.8	5280.3	
743.98	4691.2	
744.16	6358.3	
744.34	6142.5	
744.52	5134.9	
744.7	5078.3	
744.88	6478.4	
745.06	6193.1	
745.24	5171.1	
745.42	5227.8	
745.6	6511.2	
745.78	6370.5	
745.96	4392.9	
746.14	4602.5	
746.32	6963.8	
746.5	6361.7	
746.68	4846.9	
746.86	4507.6	
747.03	6507.8	
747.21	5657.2	
747.39	4864.6	
747.57	4494.6	
747.75	6085.2	
747.93	6288.6	
748.11	4457.1	
748.29	4392.2	
748.47	7189.1	
748.65	5896.8	
748.83	4958.8	
749.01	4739.7	
749.19	6283.2	
749.37	5581.4	
749.55	4640	
749.73	4696	
749.91	6107	
750.09	5943.2	
750.26	4696.7	
750.44	4338.3	
750.62	6004	
750.8	5923.4	
750.98	4313.7	
751.16	4416.8	
751.34	6111.8	
751.52	5587.5	
751.7	4991.6	
751.88	4164.9	
752.06	6284.5	
752.24	6090.7	
752.42	4225	
752.59	4437.3	
752.77	5911.8	
752.95	6704.4	
753.13	4897.4	
753.31	4487.8	
753.49	5776.6	
753.67	5933.6	
753.85	4657.8	
754.03	4342.4	
754.21	6116.6	
754.38	6307.1	
754.56	4325.3	
754.74	3781.2	
754.92	5507	
755.1	5801.2	
755.28	3642	
755.46	3622.9	
755.64	6290.7	
755.82	6244.9	
755.99	3598.3	
756.17	3547.1	
756.35	4444.1	
756.53	5381.4	
756.71	2769.5	
756.89	3567.6	
757.07	5042.1	
757.25	4556	
757.42	3716.4	
757.6	4342.4	
757.78	5283.1	
757.96	4688.5	
758.14	3668.6	
758.32	3294.5	
758.5	4338.3	
758.67	4917.2	
758.85	3491.1	
759.03	3580.5	
759.21	5014.8	
759.39	4612.7	
759.57	3174.4	
759.75	3927.3	
759.92	5507.7	
760.1	5033.9	
760.28	4209.3	
760.46	4357.4	
760.64	4945.8	
760.82	4783.4	
760.99	4138.3	
761.17	3649.5	
761.35	5450.3	
761.53	4808.6	
761.71	3864.5	
761.89	4220.9	
762.06	5373.2	
762.24	5100.1	
762.42	3934.8	
762.6	3715.7	
762.78	5107	
762.96	5489.9	
763.13	4168.3	
763.31	3907.5	
763.49	5587.5	
763.67	5153.4	
763.85	4418.2	
764.02	4777.2	
764.2	5879.7	
764.38	5181.4	
764.56	3827.7	
764.74	4400.4	
764.91	5831.2	
765.09	5197.1	
765.27	3719.1	
765.45	3581.2	
765.63	5966.4	
765.8	5700.2	
765.98	3416.7	
766.16	3556	
766.34	4924.7	
766.52	4749.9	
766.69	4219.5	
766.87	3457.7	
767.05	5188.2	
767.23	5651	
767.41	3650.2	
767.58	3810.6	
767.76	5504.9	
767.94	5515.9	
768.12	3702	
768.29	4071.4	
768.47	5005.9	
768.65	5545.9	
768.83	3397.6	
769	4119.1	
769.18	4835.9	
769.36	5219.6	
769.54	4109.6	
769.72	3420.8	
769.89	5513.8	
770.07	5469.4	
770.25	3619.4	
770.43	4396.3	
770.6	5929.6	
770.78	6111.1	
770.96	3680.2	
771.14	4019.5	
771.31	5393	
771.49	4898.1	
771.67	3110.9	
771.85	3264.5	
772.02	4464.6	
772.2	4930.1	
772.38	3679.5	
772.55	3431	
772.73	5086.5	
772.91	4918.5	
773.09	3641.3	
773.26	3699.3	
773.44	5043.5	
773.62	4861.2	
773.8	3343.7	
773.97	3273.3	
774.15	5059.8	
774.33	4829.8	
774.5	3254.2	
774.68	3472.7	
774.86	5113.1	
775.04	4859.1	
775.21	3321.1	
775.39	3132	
775.57	5022.3	
775.74	5130.2	
775.92	3166.2	
776.1	3050.1	
776.27	4902.2	
776.45	5735.7	
776.63	3218.7	
776.81	3037.1	
776.98	4726	
777.16	5325.4	
777.34	3304.1	
777.51	3528	
777.69	4725.3	
777.87	4514.4	
778.04	3390.1	
778.22	3636.5	
778.4	4599.1	
778.57	4937.7	
778.75	2908.1	
778.93	3007.1	
779.1	4504.2	
779.28	4244.1	
779.46	2865.8	
779.64	3158.7	
779.81	5031.9	
779.99	5555.5	
780.17	3582.6	
780.34	3687	
780.52	4733.5	
780.69	4786.8	
780.87	3409.2	
781.05	3158	
781.22	4742.4	
781.4	4779.3	
781.58	3173.7	
781.75	2579.8	
781.93	4746.5	
782.11	4304.8	
782.28	3731.4	
782.46	3157.3	
782.64	4235.9	
782.81	4797.7	
782.99	3211.9	
783.17	3153.2	
783.34	4685.1	
783.52	4360.8	
783.69	3262.4	
783.87	3723.9	
784.05	4403.8	
784.22	4296	
784.4	3749.8	
784.58	3266.5	
784.75	4999.8	
784.93	4408.6	
785.1	3102.7	
785.28	3515	
785.46	4781.3	
785.63	4331.5	
785.81	3107.5	
785.99	3005.1	
786.16	4486.4	
786.34	4631.1	
786.51	3003.7	
786.69	3326.6	
786.87	4146.5	
787.04	4422.9	
787.22	2953.9	
787.39	3536.2	
787.57	4317.8	
787.75	4967.7	
787.92	3701.4	
788.1	3553.2	
788.27	4246.1	
788.45	4085.7	
788.63	3352.5	
788.8	2582.5	
788.98	4613.4	
789.15	4003.8	
789.33	2648	
789.5	3048.7	
789.68	4861.2	
789.86	4964.3	
790.03	3337.5	
790.21	3003.7	
790.38	4891.9	
790.56	4383.3	
790.73	2913.6	
790.91	2902	
791.09	4287.1	
791.26	4719.9	
791.44	3059	
791.61	2714.2	
791.79	4269.3	
791.96	4270	
792.14	2837.8	
792.32	2556.5	
792.49	4197.7	
792.67	4404.5	
792.84	2852.8	
793.02	2690.3	
793.19	4666.6	
793.37	4954	
793.54	2500.6	
793.72	2757.9	
793.89	4986.1	
794.07	4235.9	
794.25	3183.9	
794.42	2607.7	
794.6	4861.2	
794.77	4605.2	
794.95	3297.9	
795.12	2873.3	
795.3	4330.1	
795.47	4616.8	
795.65	3195.5	
795.82	3016	
796	4209.9	
796.17	5238	
796.35	3016	
796.52	3450.1	
796.7	4590.2	
796.87	4696.7	
797.05	2940.9	
797.22	3527.3	
797.4	4691.2	
797.57	5242.8	
797.75	3158	
797.92	2891.7	
798.1	4895.3	
798.27	4106.9	
798.45	2592	
798.62	2740.9	
798.8	4455.7	
798.97	4800.4	
799.15	3231.7	
799.32	3106.1	
799.5	3934.8	
799.67	4412	
799.85	3319.1	
800.02	2527.9	
800.2	4250.9	
800.37	4311	
800.55	3396.2	
800.72	2918.4	
800.9	4735.6	
801.07	4903.5	
801.25	3788.1	
801.42	3164.1	
801.6	4734.9	
801.77	4439.3	
801.95	3009.8	
802.12	2852.1	
802.29	4532.8	
802.47	4450.9	
802.64	3192.8	
802.82	2487.6	
802.99	4211.3	
803.17	4811.4	
803.34	3033.7	
803.52	2802.3	
803.69	5162.2	
803.87	4033.8	
804.04	3037.1	
804.21	3023.5	
804.39	4943.1	
804.56	4298.7	
804.74	2640.5	
804.91	3125.2	
805.09	4241.3	
805.26	4233.8	
805.44	2738.8	
805.61	2915.6	
805.78	4689.2	
805.96	4617.5	
806.13	3136.8	
806.31	3308.2	
806.48	3917.1	
806.66	4231.8	
806.83	3155.9	
807	3020.8	
807.18	4248.2	
807.35	4437.9	
807.53	3039.2	
807.7	2594.8	
807.87	4966.3	
808.05	4188.8	
808.22	3260.4	
808.4	2558.6	
808.57	4113	
808.74	3930.1	
808.92	2841.9	
809.09	3494.5	
809.27	4234.5	
809.44	4519.2	
809.61	2586.6	
809.79	2736.8	
809.96	5032.5	
810.14	4593.6	
810.31	2512.9	
810.48	3207.1	
810.66	4216.1	
810.83	4677.6	
811.01	2832.3	
811.18	3084.2	
811.35	4668.7	
811.53	3794.9	
811.7	3313.6	
811.87	3105.4	
812.05	4280.3	
812.22	4172.4	
812.39	2773.6	
812.57	2678.7	
812.74	4279.6	
812.92	5202.5	
813.09	3008.5	
813.26	3140.9	
813.44	5030.5	
813.61	4073.4	
813.78	2507.4	
813.96	3173	
814.13	4245.4	
814.3	4069.3	
814.48	3499.3	
814.65	2924.5	
814.82	5025.7	
815	3951.9	
815.17	3020.1	
815.34	3517	
815.52	4218.1	
815.69	4136.9	
815.87	2926.5	
816.04	2949.1	
816.21	4138.3	
816.38	3842	
816.56	2983.9	
816.73	2790	
816.9	5167.7	
817.08	4616.8	
817.25	2852.1	
817.42	3297.9	
817.6	3927.3	
817.77	4163.5	
817.94	3061.7	
818.12	2674	
818.29	4047.5	
818.46	5618.9	
818.64	2906.1	
818.81	2649.4	
818.98	4080.2	
819.16	5319.3	
819.33	3175	
819.5	3059.7	
819.67	4387.4	
819.85	4863.2	
820.02	2970.2	
820.19	3103.4	
820.37	4329.4	
820.54	4119.1	
820.71	3058.3	
820.88	3703.4	
821.06	4370.4	
821.23	4083.6	
821.4	3031.7	
821.58	3011.9	
821.75	4618.9	
821.92	4364.9	
822.09	2560.6	
822.27	2613.9	
822.44	4259.1	
822.61	4169.7	
822.79	2564.1	
822.96	4480.3	
823.13	4371	
823.3	3969.6	
823.48	2882.2	
823.65	2654.2	
823.82	4646.2	
823.99	3931.4	
824.17	3495.9	
824.34	2689	
824.51	5276.9	
824.68	4229.1	
824.86	2764.1	
825.03	3039.9	
825.2	4210.6	
825.37	4787.5	
825.55	2777.7	
825.72	2910.2	
825.89	5184.8	
826.06	4876.9	
826.24	2953.9	
826.41	2947	
826.58	4958.8	
826.75	4366.3	
826.92	2447.3	
827.1	2638.5	
827.27	6291.4	
827.44	5174.5	
827.61	2808.4	
827.79	3251.5	
827.96	4115.1	
828.13	4179.2	
828.3	2947.7	
828.47	2514.2	
828.65	4478.2	
828.82	4402.5	
828.99	3497.2	
829.16	3140.2	
829.34	4716.5	
829.51	4547.2	
829.68	2997.5	
829.85	2969.6	
830.02	4965	
830.2	4662.5	
830.37	2433	
830.54	3422.8	
830.71	5126.1	
830.88	4267.3	
831.05	2413.2	
831.23	2728.6	
831.4	5026.4	
831.57	5411.4	
831.74	2844.6	
831.91	2448	
832.09	4498	
832.26	4703.5	
832.43	2829.6	
832.6	3162.7	
832.77	4459.1	
832.94	4906.9	
833.12	2337.4	
833.29	2810.5	
833.46	4187.4	
833.63	5495.4	
833.8	3082.9	
833.97	2797.5	
834.15	4676.9	
834.32	4560.1	
834.49	2988.7	
834.66	3045.3	
834.83	4706.2	
835	4119.1	
835.17	2785.2	
835.35	2760.7	
835.52	4616.1	
835.69	4541.7	
835.86	2902	
836.03	2425.5	
836.2	4638.6	
836.37	4416.1	
836.55	2868.5	
836.72	2739.5	
836.89	4412.7	
837.06	4721.3	
837.23	2916.3	
837.4	3050.8	
837.57	5182.7	
837.75	5503.6	
837.92	2589.3	
838.09	2784.6	
838.26	4369.7	
838.43	4805.2	
838.6	2943.6	
838.77	2692.4	
838.94	5266	
839.11	5130.2	
839.29	2849.4	
839.46	2280.1	
839.63	4758.8	
839.8	4464.6	
839.97	2798.9	
840.14	2736.1	
840.31	4551.3	
840.48	4708.3	
840.65	2399.5	
840.82	2732	
841	4625.7	
841.17	4501.4	
841.34	2524.5	
841.51	2676	
841.68	4620.9	
841.85	4463.2	
842.02	2684.9	
842.19	2318.3	
842.36	4514.4	
842.53	4461.2	
842.7	2604.3	
842.87	3009.8	
843.05	5556.8	
843.22	4450.9	
843.39	2484.2	
843.56	2678.7	
843.73	4361.5	
843.9	4750.6	
844.07	3866.6	
844.24	3263.8	
844.41	6069.5	
844.58	4162.2	
844.75	2555.2	
844.92	2695.1	
845.09	4616.8	
845.26	4595.6	
845.43	2608.4	
845.6	2685.6	
845.77	4652.3	
845.94	4500.8	
846.12	2847.4	
846.29	2915.6	
846.46	4864.6	
846.63	4568.3	
846.8	2611.8	
846.97	2982.5	
847.14	4906.9	
847.31	4615.4	
847.48	2876.7	
847.65	3091.8	
847.82	4745.1	
847.99	4700.8	
848.16	3229.6	
848.33	3032.4	
848.5	4291.2	
848.67	4911	
848.84	2508.8	
849.01	2656.9	
849.18	4331.5	
849.35	4111	
849.52	3099.3	
849.69	2556.5	
849.86	4861.2	
850.03	4819.6	
850.2	2592	
850.37	2960	
850.54	4844.8	
850.71	4395.6	
850.88	3026.2	
851.05	2492.4	
851.22	4523.3	
851.39	4909	
851.56	2450.7	
851.73	2917	
851.9	4176.5	
852.07	4784.7	
852.24	2828.2	
852.41	2545.6	
852.58	4619.5	
852.75	4213.4	
852.92	2799.6	
853.09	2526.5	
853.26	4236.6	
853.43	4836.6	
853.6	2588.6	
853.77	2250	
853.94	4992.9	
854.11	4134.2	
854.28	3551.2	
854.44	2814.6	
854.61	5182.7	
854.78	4766.3	
854.95	2513.5	
855.12	3079.5	
855.29	3910.3	
855.46	5076.2	
855.63	2593.4	
855.8	3405.1	
855.97	4347.2	
856.14	4846.9	
856.31	3498.6	
856.48	2800.9	
856.65	4381.3	
856.82	4135.5	
856.99	2512.2	
857.16	2763.4	
857.33	5345.2	
857.49	4405.2	
857.66	2740.9	
857.83	2920.4	
858	4496	
858.17	4544.4	
858.34	2444.6	
858.51	2628.9	
858.68	5076.2	
858.85	4994.3	
859.02	2890.4	
859.19	3059.7	
859.36	4145.1	
859.52	4124.6	
859.69	2611.2	
859.86	2920.4	
860.03	4243.4	
860.2	4929.5	
860.37	2393.4	
860.54	2645.3	
860.71	4712.4	
860.88	4988.9	
861.05	2797.5	
861.21	3155.9	
861.38	4954	
861.55	4007.9	
861.72	2389.3	
861.89	2805.7	
862.06	4788.2	
862.23	5024.3	
862.4	2510.1	
862.56	2614.6	
862.73	4688.5	
862.9	4427	
863.07	2893.8	
863.24	2372.9	
863.41	4135.5	
863.58	4191.5	
863.75	2601.6	
863.91	2945	
864.08	4840	
864.25	4701.5	
864.42	3097.9	
864.59	3455.6	
864.76	5134.3	
864.93	4182	
865.09	2498.5	
865.26	2719.7	
865.43	4957.4	
865.6	5178.6	
865.77	2306	
865.94	2522.4	
866.1	4862.6	
866.27	4657.8	
866.44	3627	
866.61	2471.9	
866.78	4439.3	
866.95	4674.1	
867.11	2511.5	
867.28	2312.8	
867.45	4900.1	
867.62	4136.9	
867.79	2863.7	
867.96	2547.7	
868.12	4102.1	
868.29	4723.3	
868.46	2575.7	
868.63	3306.8	
868.8	4792.2	
868.97	4714.4	
869.13	2653.5	
869.3	2708.1	
869.47	4630.5	
869.64	4807.3	
869.81	2570.2	
869.97	2574.3	
870.14	4523.3	
870.31	4966.3	
870.48	2553.8	
870.65	3095.2	
870.81	4373.1	
870.98	4412	
871.15	2834.4	
871.32	2670.6	
871.48	4675.5	
871.65	5064.6	
871.82	2569.5	
871.99	2759.3	
872.16	5365.7	
872.32	4891.9	
872.49	2655.5	
872.66	2527.9	
872.83	4773.8	
872.99	4264.6	
873.16	2870.6	
873.33	2537.4	
873.5	4517.1	
873.67	4519.2	
873.83	2708.8	
874	3190.7	
874.17	4639.3	
874.34	5175.9	
874.5	3196.2	
874.67	3024.8	
874.84	4914.4	
875.01	4000.4	
875.17	3387.3	
875.34	2532.7	
875.51	4589.5	
875.68	5305.6	
875.84	3007.1	
876.01	3476.1	
876.18	4732.9	
876.34	4698.7	
876.51	2581.8	
876.68	2505.3	
876.85	4310.3	
877.01	4970.4	
877.18	3511.6	
877.35	2543.6	
877.52	4605.9	
877.68	4100	
877.85	2541.5	
878.02	2527.9	
878.18	4366.3	
878.35	4275.5	
878.52	2100.5	
878.69	2906.1	
878.85	4821.6	
879.02	4686.4	
879.19	3423.5	
879.35	2691.7	
879.52	4733.5	
879.69	4782.7	
879.86	2257.5	
880.02	2805	
880.19	4495.3	
880.36	5178.6	
880.52	2836.4	
880.69	2990.7	
880.86	4766.3	
881.02	4799.8	
881.19	2792.7	
881.36	2714.9	
881.52	4686.4	
881.69	4224.3	
881.86	2695.8	
882.02	2714.2	
882.19	4898.1	
882.36	5524.7	
882.52	2618	
882.69	3441.3	
882.86	4550.6	
883.02	4582	
883.19	3004.4	
883.36	2831.7	
883.52	4739	
883.69	5302.2	
883.86	2581.8	
884.02	2409.1	
884.19	4741	
884.36	4532.8	
884.52	2877.4	
884.69	2736.8	
884.86	4306.9	
885.02	5062.6	
885.19	2748.4	
885.36	2855.6	
885.52	4394.9	
885.69	4641.4	
885.86	3549.1	
886.02	3154.6	
886.19	4780	
886.35	4291.9	
886.52	2831	
886.69	3401.7	
886.85	4205.2	
887.02	4935.6	
887.19	4935.6	
887.35	4935.6	
887.52	4935.6	
887.68	4935.6	
887.85	4935.6	
888.02	4935.6	
888.18	4935.6	
888.35	4935.6	
888.51	4935.6	
888.68	4935.6	
888.85	4935.6	
889.01	4935.6	
889.18	4935.6	
889.35	4935.6	
889.51	4935.6	
889.68	4935.6	
889.84	4935.6	
890.01	4935.6	
890.17	4935.6	
890.34	4935.6	
890.51	4935.6	
890.67	4935.6	
890.84	4935.6	
891	4935.6	
891.17	4935.6	
891.34	4935.6	
891.5	4935.6	
891.67	4935.6	
891.83	4935.6	
892	4935.6	
892.16	4935.6	
892.33	4935.6	
892.5	4935.6	
892.66	4935.6	
892.83	4935.6	
892.99	4935.6	
893.16	4935.6	
893.32	4935.6	
893.49	4935.6	
893.65	4935.6	
893.82	4935.6	
893.99	4935.6	
894.15	4935.6	
894.32	4935.6	
894.48	4935.6	
894.65	4935.6	
894.81	4935.6	
894.98	4935.6	
895.14	4935.6	
895.31	4935.6	
895.47	4935.6	
895.64	4935.6	
895.81	4935.6	
895.97	4935.6	
896.14	4935.6	
896.3	4935.6	
896.47	4935.6	
896.63	4935.6	
896.8	4935.6	
896.96	4935.6	
897.13	4935.6	
897.29	4935.6	
897.46	4935.6	
897.62	4935.6	
897.79	4935.6	
897.95	4935.6	
898.12	4935.6	
898.28	4935.6	
898.45	4935.6	
898.61	4935.6	
898.78	4935.6	
898.94	4935.6	
899.11	4935.6	
899.27	4935.6	
899.44	4935.6	
899.6	4935.6	
899.77	4935.6	
899.93	4935.6	
900.1	4935.6	
900.26	4935.6	
900.43	4935.6	
900.59	4935.6	
900.76	4935.6	
900.92	4935.6	
901.09	4935.6	
901.25	4935.6	
901.42	4935.6	
901.58	4935.6	
901.75	4935.6	
901.91	4935.6	
902.07	4935.6	
902.24	4935.6	
902.4	4935.6	
902.57	4935.6	
902.73	4935.6	
902.9	4935.6	
903.06	4935.6	
903.23	4935.6	
903.39	4935.6	
903.56	4935.6	
903.72	4935.6	
903.88	4935.6	
904.05	4935.6	
904.21	4935.6	
904.38	4935.6	
904.54	4935.6	
904.71	4935.6	
904.87	4935.6	
905.03	4935.6	
905.2	4935.6	
905.36	4935.6	
905.53	4935.6	
905.69	4935.6	
905.86	4935.6	
906.02	4935.6	
906.18	4935.6	
906.35	4935.6	
906.51	4935.6	
906.68	4935.6	
906.84	4935.6	
907.01	4935.6	
907.17	4935.6	
907.33	4935.6	
907.5	4935.6	
907.66	4935.6	
907.83	4935.6	
907.99	4935.6	
908.15	4935.6	
908.32	4935.6	
908.48	4935.6	
908.65	4935.6	
908.81	4935.6	
908.97	4935.6	
909.14	4935.6	
909.3	4935.6	
909.47	4935.6	
909.63	4935.6	
909.79	4935.6	
909.96	4935.6	
910.12	4935.6	
910.28	4935.6	
910.45	4935.6	
910.61	4935.6	
910.78	4935.6	
910.94	4935.6	
911.1	4935.6	
911.27	4935.6	
911.43	4935.6	
911.59	4935.6	
911.76	4935.6	
911.92	4935.6	
912.08	4935.6	
912.25	4935.6	
912.41	4935.6	
912.57	4935.6	
912.74	4935.6	
912.9	4935.6	
913.07	4935.6	
913.23	4935.6	
913.39	4935.6	
913.56	4935.6	
913.72	4935.6	
913.88	4935.6	
914.05	4935.6	
914.21	4935.6	
914.37	4935.6	
914.54	4935.6	
914.7	4935.6	
914.86	4935.6	
915.03	4935.6	
915.19	4935.6	
