Wavelength	Intensities	
nm	a.u.	
179.22	1941.5	
179.44	1938.7	
179.65	1944.2	
179.86	1933.3	
180.08	1956.5	
180.29	5113.1	
180.51	3585.3	
180.72	5752.1	
180.94	6819.1	
181.15	3312.2	
181.37	3245.3	
181.58	5610.1	
181.79	5939.8	
182.01	3484.3	
182.22	3747.1	
182.44	5875.6	
182.65	4886.5	
182.87	4706.9	
183.08	4164.2	
183.29	6291.4	
183.51	5065.3	
183.72	3799	
183.94	5587.5	
184.15	5539.8	
184.37	5536.3	
184.58	3340.2	
184.79	4640	
185.01	5119.9	
185.22	5834	
185.44	4867.3	
185.65	4065.2	
185.86	5418.2	
186.08	4995	
186.29	3190.7	
186.51	3396.9	
186.72	5109	
186.94	6041.5	
187.15	4050.2	
187.36	4151.2	
187.58	8061.5	
187.79	5610.8	
188.01	4399	
188.22	6866.2	
188.43	6804.7	
188.65	5909.1	
188.86	3447.4	
189.08	4182	
189.29	5318.6	
189.5	5367.7	
189.72	3864.5	
189.93	3919.8	
190.15	6128.2	
190.36	7380.2	
190.57	4256.4	
190.79	4093.2	
191	6189.6	
191.22	6176.7	
191.43	4283.7	
191.64	3452.9	
191.86	6485.9	
192.07	6111.1	
192.29	3676.8	
192.5	3859.1	
192.71	6113.9	
192.93	5251.7	
193.14	3876.8	
193.35	3936.2	
193.57	5320.6	
193.78	6090	
194	3036.5	
194.21	3770.3	
194.42	5063.9	
194.64	5586.9	
194.85	4169.7	
195.07	4886.5	
195.28	5634.6	
195.49	4787.5	
195.71	5225.7	
195.92	3592.8	
196.13	5716.6	
196.35	5882.4	
196.56	5511.1	
196.78	4177.2	
196.99	7267.6	
197.2	6796.5	
197.42	4803.9	
197.63	4222.9	
197.84	4938.3	
198.06	5732.3	
198.27	3895.2	
198.48	5178.6	
198.7	5328.1	
198.91	5438	
199.13	4197.7	
199.34	4260.5	
199.55	5913.2	
199.77	4846.2	
199.98	3718.4	
200.19	4315.1	
200.41	5425.8	
200.62	5148.6	
200.83	4415.4	
201.05	4735.6	
201.26	5421	
201.47	5132.9	
201.69	3753.2	
201.9	3612.6	
202.11	5509	
202.33	6552.1	
202.54	4018.8	
202.76	4485.1	
202.97	5640.8	
203.18	5648.3	
203.4	4435.2	
203.61	4264.6	
203.82	5651	
204.04	5198.4	
204.25	4304.8	
204.46	4151.2	
204.68	5567.7	
204.89	5804.6	
205.1	4175.1	
205.32	3523.9	
205.53	5983.5	
205.74	6113.9	
205.96	3054.9	
206.17	4313.7	
206.38	5965.1	
206.6	6141.2	
206.81	4880.3	
207.02	3902.1	
207.24	5803.3	
207.45	6247.7	
207.66	3979.2	
207.88	3420.8	
208.09	5748.6	
208.3	5556.1	
208.52	3639.2	
208.73	4108.9	
208.94	5567.7	
209.15	6333.7	
209.37	4020.8	
209.58	4250.2	
209.79	6147.3	
210.01	5364.3	
210.22	3186	
210.43	3452.2	
210.65	5569.1	
210.86	6016.9	
211.07	4000.4	
211.29	3716.4	
211.5	5925.5	
211.71	5541.1	
211.93	3683.6	
212.14	3685.7	
212.35	5424.4	
212.56	5706.3	
212.78	4204.5	
212.99	3493.2	
213.2	6563.1	
213.42	5302.2	
213.63	3810.6	
213.84	4080.2	
214.06	4853	
214.27	4989.5	
214.48	3978.5	
214.69	4293.2	
214.91	6255.9	
215.12	6365.1	
215.33	4316.4	
215.55	4780.6	
215.76	6909.2	
215.97	5979.4	
216.18	4199	
216.4	4038.6	
216.61	5218.9	
216.82	6030.6	
217.04	3749.8	
217.25	3877.5	
217.46	6240.8	
217.67	6038.1	
217.89	3281.5	
218.1	3403.7	
218.31	5660.6	
218.53	5713.8	
218.74	3885	
218.95	3765.5	
219.16	5481	
219.38	6505	
219.59	3753.2	
219.8	4496.7	
220.01	7281.9	
220.23	5523.4	
220.44	5001.1	
220.65	3656.3	
220.87	5612.8	
221.08	6158.9	
221.29	3395.5	
221.5	4596.3	
221.72	7627.3	
221.93	5269.4	
222.14	4289.1	
222.35	5042.8	
222.57	5570.5	
222.78	5922.7	
222.99	4007.9	
223.2	4342.4	
223.42	5851	
223.63	6118.6	
223.84	3088.3	
224.05	3060.3	
224.27	7157.7	
224.48	6498.2	
224.69	5030.5	
224.9	4229.7	
225.12	5823.7	
225.33	5495.4	
225.54	3347.7	
225.75	3792.2	
225.97	5051	
226.18	5347.9	
226.39	4080.9	
226.6	3765.5	
226.82	5238.7	
227.03	5148.6	
227.24	4234.5	
227.45	3504.8	
227.67	5935.7	
227.88	6584.9	
228.09	4739	
228.3	4717.8	
228.52	5983.5	
228.73	5495.4	
228.94	3902.7	
229.15	3498.6	
229.36	5456.5	
229.58	5369.8	
229.79	3957.4	
230	4681	
230.21	6623.8	
230.43	5609.4	
230.64	4130.1	
230.85	4358.1	
231.06	6072.2	
231.28	6002.6	
231.49	3497.2	
231.7	4116.4	
231.91	5853.1	
232.12	5612.8	
232.34	3579.8	
232.55	4095.9	
232.76	6217	
232.97	5745.2	
233.18	3717.7	
233.4	4133.5	
233.61	5847	
233.82	5287.2	
234.03	3790.8	
234.25	3796.3	
234.46	7783	
234.67	5574.6	
234.88	4322.6	
235.09	3758.7	
235.31	5943.2	
235.52	5401.9	
235.73	4207.2	
235.94	3536.2	
236.15	5255.1	
236.37	6747.4	
236.58	3705.5	
236.79	4023.6	
237	5902.9	
237.21	5025.7	
237.43	4345.1	
237.64	3371.6	
237.85	10245	
238.06	5059.2	
238.27	4404.5	
238.48	3506.8	
238.7	5930.2	
238.91	5415.5	
239.12	4031.1	
239.33	4028.4	
239.54	5363.6	
239.76	5526.8	
239.97	4000.4	
240.18	4080.9	
240.39	6996.5	
240.6	5869.5	
240.82	4199	
241.03	3431.7	
241.24	5573.9	
241.45	6478.4	
241.66	3662.5	
241.87	4357.4	
242.09	6370.5	
242.3	6765.1	
242.51	4393.6	
242.72	4050.2	
242.93	6021	
243.14	5474.9	
243.36	4677.6	
243.57	5085.8	
243.78	6464.1	
243.99	5834.7	
244.2	4056.3	
244.41	3689.1	
244.63	5090.6	
244.84	5846.3	
245.05	4371	
245.26	4043.4	
245.47	5854.5	
245.68	6169.8	
245.9	5433.9	
246.11	4238.6	
246.32	5410.7	
246.53	5794.4	
246.74	6585.6	
246.95	3416	
247.16	5023.7	
247.38	5545.9	
247.59	3334.1	
247.8	4141	
248.01	5218.2	
248.22	5511.1	
248.43	3661.8	
248.64	3909.6	
248.86	4881.7	
249.07	5326.8	
249.28	3472.7	
249.49	4166.3	
249.7	6154.1	
249.91	6281.8	
250.12	3328.6	
250.34	3431.7	
250.55	5636.7	
250.76	5502.2	
250.97	4205.2	
251.18	4285.7	
251.39	6318.7	
251.6	5764.3	
251.81	4317.8	
252.03	4263.2	
252.24	5251.7	
252.45	6169.8	
252.66	3496.6	
252.87	4499.4	
253.08	5579.3	
253.29	7431.4	
253.5	3522.5	
253.72	4898.7	
253.93	5345.2	
254.14	6677.1	
254.35	3796.9	
254.56	3965.6	
254.77	5819.6	
254.98	5150	
255.19	3770.3	
255.41	4926.7	
255.62	5630.5	
255.83	6204	
256.04	4321.2	
256.25	4220.9	
256.46	6860	
256.67	5179.3	
256.88	4188.1	
257.09	4708.3	
257.31	5239.4	
257.52	5319.9	
257.73	5316.5	
257.94	3801	
258.15	5392.3	
258.36	5621	
258.57	4909	
258.78	3068.5	
258.99	6106.4	
259.2	5386.8	
259.41	3868.6	
259.63	4019.5	
259.84	6394.4	
260.05	6933.1	
260.26	5149.3	
260.47	3763.5	
260.68	6170.5	
260.89	5468.8	
261.1	4626.4	
261.31	3674.7	
261.52	6152.1	
261.73	6551.5	
261.95	5053	
262.16	4386.1	
262.37	6324.8	
262.58	6391	
262.79	5020.3	
263	3930.7	
263.21	5638.7	
263.42	5055.1	
263.63	4022.9	
263.84	3909.6	
264.05	6136.4	
264.26	6572.6	
264.47	4892.6	
264.69	4397	
264.9	6240.2	
265.11	5756.2	
265.32	3758.7	
265.53	3900.7	
265.74	5707	
265.95	4907.6	
266.16	4104.1	
266.37	4528.1	
266.58	5739.8	
266.79	5399.1	
267	3767.6	
267.21	3526.6	
267.42	5159.5	
267.63	5556.8	
267.84	4002.4	
268.06	3408.5	
268.27	5992.4	
268.48	6337.8	
268.69	3943	
268.9	4692.6	
269.11	6326.2	
269.32	5008.6	
269.53	4121.2	
269.74	3811.3	
269.95	5929.6	
270.16	4926	
270.37	4047.5	
270.58	4737	
270.79	5354.8	
271	6148	
271.21	4363.5	
271.42	4141	
271.63	5707	
271.84	5194.3	
272.05	3222.1	
272.26	3641.3	
272.47	5617.6	
272.68	5840.1	
272.89	3852.2	
273.11	4573.8	
273.32	5384.8	
273.53	6579.4	
273.74	4394.3	
273.95	4311.7	
274.16	6262	
274.37	5649	
274.58	4491.2	
274.79	3548.4	
275	5693.4	
275.21	6374	
275.42	5418.9	
275.63	4564.2	
275.84	5841.5	
276.05	7413	
276.26	4288.4	
276.47	4003.1	
276.68	5399.8	
276.89	6633.4	
277.1	4630.5	
277.31	3618.1	
277.52	5783.5	
277.73	5995.8	
277.94	3538.2	
278.15	3889.8	
278.36	5780.7	
278.57	5207.3	
278.78	3859.7	
278.99	4370.4	
279.2	5169.8	
279.41	5091.3	
279.62	5137.7	
279.83	3566.2	
280.04	6808.8	
280.25	5046.9	
280.46	5145.2	
280.67	4052.9	
280.88	5101.5	
281.09	6262	
281.3	4265.2	
281.51	5438	
281.72	5223	
281.93	6098.2	
282.14	3810.6	
282.35	4086.4	
282.56	6107	
282.77	6120	
282.98	3953.9	
283.19	4772.4	
283.4	7530.4	
283.61	5535	
283.82	3573.7	
284.03	5035.3	
284.24	5655.1	
284.45	6223.1	
284.66	5074.2	
284.87	4888.5	
285.08	6186.9	
285.29	6328.2	
285.5	3424.2	
285.71	3924.6	
285.92	6292.7	
286.12	6956.9	
286.33	5031.2	
286.54	3939.6	
286.75	6102.3	
286.96	5458.5	
287.17	3599.6	
287.38	4986.8	
287.59	5163.6	
287.8	5094.7	
288.01	3962.8	
288.22	4565.6	
288.43	6107.7	
288.64	5115.8	
288.85	4658.4	
289.06	4472.8	
289.27	5992.4	
289.48	6526.2	
289.69	5049.6	
289.9	4532.2	
290.11	6281.8	
290.32	5239.4	
290.53	4824.3	
290.74	4396.3	
290.94	6014.9	
291.15	6096.8	
291.36	3870	
291.57	4574.5	
291.78	5341.8	
291.99	4906.9	
292.2	3676.8	
292.41	4469.4	
292.62	6165.1	
292.83	5930.2	
293.04	5425.8	
293.25	3673.4	
293.46	5300.8	
293.67	6193.7	
293.88	3786	
294.09	3596.9	
294.29	5126.1	
294.5	5727.5	
294.71	4076.1	
294.92	3883.6	
295.13	5336.3	
295.34	6779.5	
295.55	3387.3	
295.76	3518.4	
295.97	5981.4	
296.18	6844.3	
296.39	3603.1	
296.6	3809.2	
296.81	5721.3	
297.01	6028.5	
297.22	3928.7	
297.43	3794.9	
297.64	5175.2	
297.85	5254.4	
298.06	3154.6	
298.27	3423.5	
298.48	5656.5	
298.69	5288.5	
298.9	4083.6	
299.11	3750.5	
299.31	5089.9	
299.52	5160.9	
299.73	4434.5	
299.94	4316.4	
300.15	5571.8	
300.36	5177.3	
300.57	4338.3	
300.78	4360.8	
300.99	5420.3	
301.2	5738.4	
301.4	3734.8	
301.61	4095.3	
301.82	5907.7	
302.03	6016.9	
302.24	4622.9	
302.45	3608.5	
302.66	5840.1	
302.87	6402.6	
303.08	3799	
303.29	5270.1	
303.49	5281.7	
303.7	5595.7	
303.91	3355.3	
304.12	5016.2	
304.33	5060.5	
304.54	5653.8	
304.75	3824.9	
304.96	3625.6	
305.16	5935	
305.37	6689.3	
305.58	3318.4	
305.79	3416	
306	5975.3	
306.21	4982	
306.42	3857.7	
306.63	5860.6	
306.83	5457.2	
307.04	6214.2	
307.25	4186	
307.46	4207.2	
307.67	4745.8	
307.88	6077.7	
308.09	3657.7	
308.29	3871.3	
308.5	5626.5	
308.71	6224.5	
308.92	4070.7	
309.13	3661.1	
309.34	5422.3	
309.55	5454.4	
309.75	4762.2	
309.96	4364.2	
310.17	6060.6	
310.38	5237.3	
310.59	4586.8	
310.8	4218.8	
311.01	5381.4	
311.21	5452.4	
311.42	3635.1	
311.63	3716.4	
311.84	5317.9	
312.05	5758.2	
312.26	4277.5	
312.46	4648.9	
312.67	5347.9	
312.88	5111.7	
313.09	3659.7	
313.3	3596.2	
313.51	6472.3	
313.71	6778.8	
313.92	3614.7	
314.13	3898	
314.34	5771.2	
314.55	5412.8	
314.76	4717.2	
314.96	4110.3	
315.17	5591.6	
315.38	6016.9	
315.59	3675.4	
315.8	3489.1	
316.01	6544.6	
316.21	6546.7	
316.42	3530.7	
316.63	4078.2	
316.84	5415.5	
317.05	6343.2	
317.26	4321.2	
317.46	3861.8	
317.67	5533.6	
317.88	5957.5	
318.09	4704.9	
318.3	3415.3	
318.5	5258.5	
318.71	5975.3	
318.92	5945.9	
319.13	4345.8	
319.34	6108.4	
319.54	6248.4	
319.75	3398.3	
319.96	3278.1	
320.17	6014.9	
320.38	6195.1	
320.58	3318.4	
320.79	4050.2	
321	6281.1	
321.21	6226.5	
321.42	4048.2	
321.62	3322.5	
321.83	5154.1	
322.04	5580	
322.25	3898.6	
322.46	3630.4	
322.66	5712.5	
322.87	5816.9	
323.08	4541	
323.29	3613.3	
323.5	6698.2	
323.7	5067.4	
323.91	5010	
324.12	4543.8	
324.33	5675.6	
324.53	5961	
324.74	4366.3	
324.95	4537.6	
325.16	4973.2	
325.37	5393	
325.57	3704.8	
325.78	3773.7	
325.99	5651.7	
326.2	5086.5	
326.4	5361.6	
326.61	3401	
326.82	5535	
327.03	5750	
327.24	5231.9	
327.44	5055.8	
327.65	5858.6	
327.86	4727.4	
328.07	4300.1	
328.27	3527.3	
328.48	6271.6	
328.69	5207.3	
328.9	5360.9	
329.1	3990.1	
329.31	5508.4	
329.52	6485.2	
329.73	3674.1	
329.93	4189.5	
330.14	5574.6	
330.35	5843.5	
330.56	6120	
330.76	4605.2	
330.97	5382.7	
331.18	5811.5	
331.39	4145.8	
331.59	3296.5	
331.8	6189.6	
332.01	6348.7	
332.22	3768.9	
332.42	4354.7	
332.63	5742.5	
332.84	5263.3	
333.05	4102.8	
333.25	3753.2	
333.46	5347.9	
333.67	5687.2	
333.88	3803.1	
334.08	4341.7	
334.29	7551.5	
334.5	6323.4	
334.7	3554.6	
334.91	5304.9	
335.12	5112.4	
335.33	6017.6	
335.53	4095.3	
335.74	6100.9	
335.95	5347.9	
336.16	5246.2	
336.36	4052.9	
336.57	4715.8	
336.78	5069.4	
336.98	6264.7	
337.19	5100.8	
337.4	3999.7	
337.61	6795.8	
337.81	5107	
338.02	3748.5	
338.23	4879.6	
338.43	6407.4	
338.64	5212.8	
338.85	3659.7	
339.05	4915.8	
339.26	6464.1	
339.47	5021.6	
339.68	3730	
339.88	5545.9	
340.09	5856.5	
340.3	6094.1	
340.5	4364.2	
340.71	3269.2	
340.92	5018.2	
341.13	6330.3	
341.33	3571.7	
341.54	4384.7	
341.75	5819	
341.95	5455.8	
342.16	4203.8	
342.37	4498	
342.57	5169.1	
342.78	5570.5	
342.99	4647.5	
343.19	3330.7	
343.4	6054.5	
343.61	5848.3	
343.81	3981.3	
344.02	3645.4	
344.23	6100.2	
344.43	6475.7	
344.64	4623.6	
344.85	4453.6	
345.06	5921.4	
345.26	6290	
345.47	4321.9	
345.68	5026.4	
345.88	4896	
346.09	6090	
346.3	4367	
346.5	3236.5	
346.71	5569.8	
346.92	5262.6	
347.12	3332	
347.33	4326.7	
347.54	6234	
347.74	6623.8	
347.95	4311.7	
348.16	3126.6	
348.36	5390.3	
348.57	5208.7	
348.78	4217.5	
348.98	4596.3	
349.19	5575.3	
349.39	5075.5	
349.6	3362.1	
349.81	3769.6	
350.01	5831.9	
350.22	5345.9	
350.43	4042.7	
350.63	4962.9	
350.84	5662	
351.05	5368.4	
351.25	3753.2	
351.46	3388.7	
351.67	6246.3	
351.87	5308.3	
352.08	3999	
352.29	4567	
352.49	6117.3	
352.7	5748	
352.9	3646.1	
353.11	4545.8	
353.32	6836.8	
353.52	5382.7	
353.73	3562.8	
353.94	4622.3	
354.14	5967.1	
354.35	5769.1	
354.55	3728	
354.76	4153.3	
354.97	5886.5	
355.17	5697.4	
355.38	3440.6	
355.59	4868	
355.79	5268.1	
356	5758.2	
356.2	4065.2	
356.41	3569.6	
356.62	4989.5	
356.82	5513.8	
357.03	4297.3	
357.24	3932.8	
357.44	5339.7	
357.65	5433.3	
357.85	5285.8	
358.06	4166.3	
358.27	5010.7	
358.47	5269.4	
358.68	3407.8	
358.88	4395.6	
359.09	5852.4	
359.3	6397.2	
359.5	5089.9	
359.71	4539	
359.91	6749.4	
360.12	6116.6	
360.33	4308.9	
360.53	4902.2	
360.74	5288.5	
360.94	5384.1	
361.15	4590.2	
361.36	3807.2	
361.56	6195.8	
361.77	5537	
361.97	5116.5	
362.18	4028.4	
362.38	6196.5	
362.59	5235.3	
362.8	3693.9	
363	3495.9	
363.21	5000.5	
363.41	5711.8	
363.62	4303.5	
363.83	5435.3	
364.03	5704.3	
364.24	6888.7	
364.44	5483.1	
364.65	5406.6	
364.85	5514.5	
365.06	5119.2	
365.27	3895.2	
365.47	3898.6	
365.68	6562.4	
365.88	5535.7	
366.09	4391.5	
366.29	3969	
366.5	5805.3	
366.71	6314.6	
366.91	5368.4	
367.12	4534.9	
367.32	6868.2	
367.53	6147.3	
367.73	4425	
367.94	5502.9	
368.14	6076.3	
368.35	6991.8	
368.56	4429.1	
368.76	4012	
368.97	6214.2	
369.17	8044.4	
369.38	3923.2	
369.58	4223.6	
369.79	5150	
369.99	6574	
370.2	5306.3	
370.4	4336.9	
370.61	5867.4	
370.82	7101	
371.02	4226.3	
371.23	3487.7	
371.43	5050.3	
371.64	6488	
371.84	4249.5	
372.05	5544.5	
372.25	7988.4	
372.46	6294.8	
372.66	4272.1	
372.87	4209.3	
373.07	6336.4	
373.28	8008.9	
373.48	5416.2	
373.69	5021.6	
373.9	5696.1	
374.1	5749.3	
374.31	5326.8	
374.51	4837.3	
374.72	6688.7	
374.92	5349.3	
375.13	5451	
375.33	4616.8	
375.54	6214.2	
375.74	5583.4	
375.95	4738.3	
376.15	6019	
376.36	6168.5	
376.56	6035.4	
376.77	4812.7	
376.97	5256.5	
377.18	7275.8	
377.38	6320.7	
377.59	5717.2	
377.79	4235.9	
378	6120.7	
378.2	6563.7	
378.41	4381.3	
378.61	4292.5	
378.82	6650.4	
379.02	5682.4	
379.23	4528.7	
379.43	5723.4	
379.64	6638.1	
379.84	6370.5	
380.05	4369.7	
380.25	4284.4	
380.46	6425.2	
380.66	5982.1	
380.87	5771.9	
381.07	6087.9	
381.28	7051.2	
381.48	6399.9	
381.69	4365.6	
381.89	4388.8	
382.1	5231.2	
382.3	6622.4	
382.51	5547.3	
382.71	6540.5	
382.91	6520.7	
383.12	7027.9	
383.32	4749.9	
383.53	4969.1	
383.73	6317.3	
383.94	6066.1	
384.14	4872.1	
384.35	3982.6	
384.55	5956.2	
384.76	6449.7	
384.96	4736.3	
385.17	5041.4	
385.37	6410.8	
385.58	5630.5	
385.78	5098.8	
385.98	3859.7	
386.19	5849	
386.39	6162.3	
386.6	4515.1	
386.8	4742.4	
387.01	6389	
387.21	6436.1	
387.42	5172.5	
387.62	5892.7	
387.83	5666	
388.03	6389	
388.23	4817.5	
388.44	5722	
388.64	5329.5	
388.85	5453.1	
389.05	5154.7	
389.26	5952.1	
389.46	7209.5	
389.67	6913.9	
389.87	5201.2	
390.07	5332.2	
390.28	6049	
390.48	5608	
390.69	4371.7	
390.89	4711.7	
391.1	5773.9	
391.3	6804	
391.5	5990.3	
391.71	6662	
391.91	6597.2	
392.12	7701	
392.32	6103.6	
392.53	5314.5	
392.73	5911.8	
392.93	6156.2	
393.14	4921.3	
393.34	5717.2	
393.55	6619	
393.75	6085.9	
393.95	4907.6	
394.16	4928.8	
394.36	5809.4	
394.57	6524.1	
394.77	4316.4	
394.98	4739.7	
395.18	5720	
395.38	5957.5	
395.59	5739.8	
395.79	4666	
396	5926.1	
396.2	6437.4	
396.4	5522	
396.61	5452.4	
396.81	6728.9	
397.02	5934.3	
397.22	5877	
397.42	5874.3	
397.63	6703	
397.83	5982.1	
398.04	4617.5	
398.24	5255.1	
398.44	6508.4	
398.65	5494	
398.85	4459.8	
399.05	4683.7	
399.26	5862	
399.46	7767.3	
399.67	5086.5	
399.87	4739	
400.07	6287.9	
400.28	6744	
400.48	4861.2	
400.69	6090.7	
400.89	7518.1	
401.09	7338.6	
401.3	4741	
401.5	6005.3	
401.7	7772	
401.91	7984.3	
402.11	5169.8	
402.32	5414.1	
402.52	7071	
402.72	6874.3	
402.93	5603.2	
403.13	4393.6	
403.33	7745.4	
403.54	6359.6	
403.74	5265.3	
403.94	6225.8	
404.15	6424.5	
404.35	7705.8	
404.56	5012.7	
404.76	6969.9	
404.96	6898.9	
405.17	6713.9	
405.37	6387.6	
405.57	5582.1	
405.78	7045	
405.98	6363.7	
406.18	5932.3	
406.39	6087.2	
406.59	6866.2	
406.79	6516.6	
407	4904.9	
407.2	4946.5	
407.4	6992.4	
407.61	7179.5	
407.81	5006.6	
408.01	7277.1	
408.22	5921.4	
408.42	8049.2	
408.62	6249.7	
408.83	5718.6	
409.03	6741.2	
409.23	6543.3	
409.44	5859.2	
409.64	6140.5	
409.84	7818.5	
410.05	7703.8	
410.25	6064	
410.45	5831.9	
410.66	7195.2	
410.86	9839.1	
411.06	6356.2	
411.27	6179.4	
411.47	9646.6	
411.67	7417.7	
411.88	6447.7	
412.08	6860	
412.28	8139.3	
412.49	8701.1	
412.69	6260.6	
412.89	6366.5	
413.09	8563.2	
413.3	8390.5	
413.5	6399.9	
413.7	5992.4	
413.91	7570	
414.11	8582.4	
414.31	6299.6	
414.52	6776.7	
414.72	8207.6	
414.92	8169.3	
415.12	6292	
415.33	6862.7	
415.53	8559.1	
415.73	8802.9	
415.94	7326.3	
416.14	6748.7	
416.34	7504.4	
416.55	7120.1	
416.75	8011	
416.95	7333.1	
417.15	8620.6	
417.36	9382.4	
417.56	8137.3	
417.76	7283.3	
417.97	9105.3	
418.17	8731.9	
418.37	6746.7	
418.57	6925.5	
418.78	8447.9	
418.98	8181	
419.18	7822.6	
419.38	7787.1	
419.59	8223.3	
419.79	7757.7	
419.99	6717.3	
420.2	7109.2	
420.4	8733.2	
420.6	8842.4	
420.8	6607.4	
421.01	6481.1	
421.21	8507.9	
421.41	8796.7	
421.61	7079.8	
421.82	6806.8	
422.02	7984.3	
422.22	9031.5	
422.42	7613	
422.63	7202	
422.83	8159.1	
423.03	9542.2	
423.23	7177.4	
423.44	6080.4	
423.64	8203.5	
423.84	7929.7	
424.04	6638.8	
424.25	6240.8	
424.45	9098.4	
424.65	9131.2	
424.85	6067.4	
425.06	6652.5	
425.26	9027.4	
425.46	7604.1	
425.66	7159	
425.87	6870.3	
426.07	8919.6	
426.27	8718.2	
426.47	7025.2	
426.67	6390.3	
426.88	9218.6	
427.08	8688.2	
427.28	7309.9	
427.48	6208.8	
427.69	7422.5	
427.89	8090.8	
428.09	7211.6	
428.29	6334.4	
428.5	9077.3	
428.7	8364.6	
428.9	6199.2	
429.1	6803.4	
429.3	8241.7	
429.51	8824	
429.71	6481.1	
429.91	7406.1	
430.11	8656.1	
430.31	8885.5	
430.52	6880.5	
430.72	7281.9	
430.92	9298.5	
431.12	8700.5	
431.32	6577.4	
431.53	6972.7	
431.73	7607.5	
431.93	9422.7	
432.13	6478.4	
432.33	6326.2	
432.54	8115.4	
432.74	8523	
432.94	6337.1	
433.14	7511.9	
433.34	8643.1	
433.55	8244.4	
433.75	7409.6	
433.95	9383.8	
434.15	8445.8	
434.35	8143.4	
434.56	6600.6	
434.76	6161.7	
434.96	8493.6	
435.16	8826.7	
435.36	6488	
435.56	7803.4	
435.77	8260.8	
435.97	8389.2	
436.17	8477.9	
436.37	7713.3	
436.57	8277.9	
436.78	8140	
436.98	9606.3	
437.18	8355	
437.38	9018.6	
437.58	8428.8	
437.78	8475.9	
437.99	7059.3	
438.19	8921	
438.39	9800.9	
438.59	6948.8	
438.79	6378.7	
438.99	9695.8	
439.2	8353	
439.4	6462	
439.6	6385.6	
439.8	8738	
440	9919	
440.2	7613	
440.4	7772.7	
440.61	9201.5	
440.81	9938.1	
441.01	6925.5	
441.21	7973.4	
441.41	9773.6	
441.61	9349	
441.81	8338.6	
442.02	9241.8	
442.22	10393	
442.42	9444.5	
442.62	6951.5	
442.82	7005.4	
443.02	9740.8	
443.22	8929.1	
443.43	7492.2	
443.63	7065.5	
443.83	8609.7	
444.03	8666.3	
444.23	8608.3	
444.43	8041.7	
444.63	9112.1	
444.83	10367	
445.04	7314.7	
445.24	8640.4	
445.44	9475.3	
445.64	9598.8	
445.84	8047.8	
446.04	8034.9	
446.24	8770.8	
446.44	9802.3	
446.65	7047.7	
446.85	7550.2	
447.05	9043.8	
447.25	9701.2	
447.45	7646.4	
447.65	6934.4	
447.85	9008.3	
448.05	8567.3	
448.25	8179.6	
448.46	7826	
448.66	9027.4	
448.86	8747.6	
449.06	6870.9	
449.26	8145.5	
449.46	9501.9	
449.66	8405.5	
449.86	7694.2	
450.06	7582.3	
450.26	8705.9	
450.47	9280	
450.67	7821.9	
450.87	8316.1	
451.07	9383.8	
451.27	9249.3	
451.47	7216.4	
451.67	7927.7	
451.87	8903.2	
452.07	10088	
452.27	7465.5	
452.47	7410.9	
452.67	9168.1	
452.88	9785.2	
453.08	6737.8	
453.28	9011.7	
453.48	10539	
453.68	9133.3	
453.88	7470.3	
454.08	7619.8	
454.28	9653.4	
454.48	9286.9	
454.68	8255.4	
454.88	8796.7	
455.08	9671.2	
455.28	9572.2	
455.48	7249.1	
455.68	7963.2	
455.89	10306	
456.09	9891.7	
456.29	7733.1	
456.49	7869	
456.69	10314	
456.89	9356.5	
457.09	8464.3	
457.29	8812.4	
457.49	9747	
457.69	9970.9	
457.89	8292.2	
458.09	7564.5	
458.29	9544.2	
458.49	10318	
458.69	8740	
458.89	8171.4	
459.09	10702	
459.29	10852	
459.49	8298.4	
459.69	9097.1	
459.9	10167	
460.1	9693	
460.3	8111.3	
460.5	8041.7	
460.7	10314	
460.9	9884.2	
461.1	7546.8	
461.3	9065.7	
461.5	10982	
461.7	10576	
461.9	8226.7	
462.1	8611.7	
462.3	10113	
462.5	10733	
462.7	8332.5	
462.9	8481.3	
463.1	11903	
463.3	11559	
463.5	8612.4	
463.7	9761.3	
463.9	10380	
464.1	10858	
464.3	8991.9	
464.5	9137.4	
464.7	11231	
464.9	10970	
465.1	10669	
465.3	9712.8	
465.5	11523	
465.7	11616	
465.9	9985.9	
466.1	9573.6	
466.3	11574	
466.5	11138	
466.7	10806	
466.9	9547.6	
467.1	11176	
467.3	12239	
467.5	10789	
467.7	9574.9	
467.9	12534	
468.1	13504	
468.3	10371	
468.5	10890	
468.7	11333	
468.9	11315	
469.1	9999.5	
469.3	10655	
469.5	13401	
469.7	10964	
469.9	10484	
470.1	9665	
470.3	11258	
470.5	11445	
470.7	11106	
470.9	9708.7	
471.1	11275	
471.3	11490	
471.5	9546.3	
471.69	11660	
471.89	10862	
472.09	10420	
472.29	10454	
472.49	10725	
472.69	10717	
472.89	11572	
473.09	9596.8	
473.29	9587.9	
473.49	10857	
473.69	11028	
473.89	10580	
474.09	9647.3	
474.29	12344	
474.49	11901	
474.69	10535	
474.89	9795.4	
475.09	11002	
475.29	10928	
475.49	9176.9	
475.69	9488.9	
475.88	12661	
476.08	11327	
476.28	9182.4	
476.48	9537.4	
476.68	11701	
476.88	11527	
477.08	9473.2	
477.28	9771.5	
477.48	10971	
477.68	11681	
477.88	9175.6	
478.08	9490.3	
478.28	12052	
478.48	11041	
478.67	9570.2	
478.87	8895	
479.07	11953	
479.27	11211	
479.47	9811.8	
479.67	9897.2	
479.87	11684	
480.07	12422	
480.27	9022	
480.47	10847	
480.67	11368	
480.87	11961	
481.06	9331.2	
481.26	10274	
481.46	11376	
481.66	11267	
481.86	9884.2	
482.06	10966	
482.26	10992	
482.46	11831	
482.66	9804.3	
482.86	9336	
483.05	11387	
483.25	10758	
483.45	12483	
483.65	9824.1	
483.85	10999	
484.05	11262	
484.25	10375	
484.45	10972	
484.65	12212	
484.84	12272	
485.04	9766.8	
485.24	9784.5	
485.44	12596	
485.64	10754	
485.84	9151	
486.04	10665	
486.24	11174	
486.44	11636	
486.63	9071.1	
486.83	10017	
487.03	11225	
487.23	11446	
487.43	9243.2	
487.63	11929	
487.83	11577	
488.02	12557	
488.22	10497	
488.42	11133	
488.62	12432	
488.82	11344	
489.02	9975.7	
489.22	10163	
489.41	12316	
489.61	12003	
489.81	9784.5	
490.01	9904	
490.21	12321	
490.41	13032	
490.61	9546.9	
490.8	10021	
491	11729	
491.2	10992	
491.4	10571	
491.6	9516.9	
491.8	11638	
491.99	11863	
492.19	9344.9	
492.39	9828.2	
492.59	12185	
492.79	12375	
492.99	10768	
493.18	9840.5	
493.38	12485	
493.58	13506	
493.78	10855	
493.98	10310	
494.18	12230	
494.37	11736	
494.57	11136	
494.77	10966	
494.97	12707	
495.17	12983	
495.37	10560	
495.56	11106	
495.76	13311	
495.96	12967	
496.16	12112	
496.36	10966	
496.55	13130	
496.75	12803	
496.95	11312	
497.15	11207	
497.35	13082	
497.54	13130	
497.74	11024	
497.94	12889	
498.14	14136	
498.34	13779	
498.53	10751	
498.73	11669	
498.93	12717	
499.13	13136	
499.33	11515	
499.52	12128	
499.72	13289	
499.92	13554	
500.12	11230	
500.32	11456	
500.51	13605	
500.71	13431	
500.91	12365	
501.11	11863	
501.31	13463	
501.5	13967	
501.7	12594	
501.9	11522	
502.1	13239	
502.29	13556	
502.49	12055	
502.69	12488	
502.89	13503	
503.09	13568	
503.28	10792	
503.48	10991	
503.68	12515	
503.88	12589	
504.07	12084	
504.27	11565	
504.47	12973	
504.67	13069	
504.86	11938	
505.06	11609	
505.26	12633	
505.46	14491	
505.65	11473	
505.85	11732	
506.05	12526	
506.25	12950	
506.44	10558	
506.64	11530	
506.84	12195	
507.04	13235	
507.23	10690	
507.43	11529	
507.63	14345	
507.83	12523	
508.02	11402	
508.22	10808	
508.42	14567	
508.62	12282	
508.81	11170	
509.01	11856	
509.21	11966	
509.4	12453	
509.6	11455	
509.8	10799	
510	12362	
510.19	13991	
510.39	10798	
510.59	10877	
510.79	12157	
510.98	13725	
511.18	10852	
511.38	11054	
511.57	13039	
511.77	13106	
511.97	11701	
512.17	10682	
512.36	13054	
512.56	13009	
512.76	10727	
512.95	10410	
513.15	13110	
513.35	11696	
513.55	11648	
513.74	10729	
513.94	13078	
514.14	12400	
514.33	11777	
514.53	11531	
514.73	12432	
514.92	12747	
515.12	10998	
515.32	10733	
515.51	12718	
515.71	13510	
515.91	12815	
516.11	10903	
516.3	14665	
516.5	12291	
516.7	11484	
516.89	12144	
517.09	12571	
517.29	12443	
517.48	12077	
517.68	11226	
517.88	12144	
518.07	12826	
518.27	11750	
518.47	10591	
518.66	13605	
518.86	12050	
519.06	10473	
519.25	11065	
519.45	12462	
519.65	14100	
519.84	11794	
520.04	12584	
520.24	14491	
520.43	13117	
520.63	11365	
520.83	11051	
521.02	12250	
521.22	12952	
521.42	11566	
521.61	12186	
521.81	12375	
522.01	12630	
522.2	11485	
522.4	11112	
522.6	13166	
522.79	11900	
522.99	11269	
523.18	10618	
523.38	13051	
523.58	13029	
523.77	12983	
523.97	10817	
524.17	15132	
524.36	14289	
524.56	12301	
524.76	12045	
524.95	13309	
525.15	12884	
525.34	11826	
525.54	11924	
525.74	13803	
525.93	12792	
526.13	13227	
526.33	11951	
526.52	14201	
526.72	13711	
526.91	13278	
527.11	12537	
527.31	14255	
527.5	14741	
527.7	12520	
527.89	11522	
528.09	13197	
528.29	13841	
528.48	12946	
528.68	12663	
528.87	14222	
529.07	14252	
529.27	12408	
529.46	11847	
529.66	13895	
529.85	14336	
530.05	11759	
530.25	12596	
530.44	15448	
530.64	13771	
530.83	12375	
531.03	12538	
531.23	14268	
531.42	14170	
531.62	13313	
531.81	12441	
532.01	14571	
532.21	15104	
532.4	12377	
532.6	12833	
532.79	15593	
532.99	14834	
533.18	13048	
533.38	14003	
533.58	14365	
533.77	15213	
533.97	13067	
534.16	13987	
534.36	15506	
534.55	14372	
534.75	14085	
534.95	13136	
535.14	15416	
535.34	14530	
535.53	12702	
535.73	14780	
535.92	15928	
536.12	14674	
536.31	12742	
536.51	14083	
536.71	14894	
536.9	14351	
537.1	12987	
537.29	13067	
537.49	15415	
537.68	14472	
537.88	13547	
538.07	12675	
538.27	14610	
538.46	15741	
538.66	12715	
538.86	13181	
539.05	14663	
539.25	15221	
539.44	13502	
539.64	12855	
539.83	14436	
540.03	15520	
540.22	12805	
540.42	12901	
540.61	14679	
540.81	14885	
541	13306	
541.2	14147	
541.39	14191	
541.59	14597	
541.78	13674	
541.98	12579	
542.18	13761	
542.37	13758	
542.57	13020	
542.76	13721	
542.96	13719	
543.15	14522	
543.35	12919	
543.54	12228	
543.74	14779	
543.93	14360	
544.13	12796	
544.32	13863	
544.52	14629	
544.71	13627	
544.91	11971	
545.1	13220	
545.3	13742	
545.49	14545	
545.69	11751	
545.88	12485	
546.08	15552	
546.27	14947	
546.47	12978	
546.66	12151	
546.86	14565	
547.05	15281	
547.24	12487	
547.44	12285	
547.63	13474	
547.83	14659	
548.02	12668	
548.22	12753	
548.41	13396	
548.61	14749	
548.8	12024	
549	12027	
549.19	13797	
549.39	14171	
549.58	11780	
549.78	12404	
549.97	14298	
550.17	13712	
550.36	13235	
550.55	14368	
550.75	13738	
550.94	14539	
551.14	11817	
551.33	12259	
551.53	13066	
551.72	14129	
551.92	12328	
552.11	12132	
552.31	14138	
552.5	14108	
552.69	13852	
552.89	11701	
553.08	13959	
553.28	13646	
553.47	12125	
553.67	13229	
553.86	14696	
554.06	12800	
554.25	11091	
554.44	11785	
554.64	15493	
554.83	14933	
555.03	11749	
555.22	12122	
555.42	14245	
555.61	13798	
555.8	11829	
556	12299	
556.19	12927	
556.39	14149	
556.58	12043	
556.78	11891	
556.97	13674	
557.16	13366	
557.36	13297	
557.55	11595	
557.75	12656	
557.94	14418	
558.13	11646	
558.33	11495	
558.52	14252	
558.72	13102	
558.91	11426	
559.1	11731	
559.3	12694	
559.49	12359	
559.69	10978	
559.88	12013	
560.07	13502	
560.27	13991	
560.46	12221	
560.66	12379	
560.85	13414	
561.04	12370	
561.24	11291	
561.43	11657	
561.63	12726	
561.82	12876	
562.01	12940	
562.21	11899	
562.4	13442	
562.59	14511	
562.79	11844	
562.98	11522	
563.18	13303	
563.37	15123	
563.56	12392	
563.76	11298	
563.95	12805	
564.14	12861	
564.34	11889	
564.53	11488	
564.73	13371	
564.92	13908	
565.11	12079	
565.31	11415	
565.5	14072	
565.69	12996	
565.89	11524	
566.08	11949	
566.27	14072	
566.47	14476	
566.66	12615	
566.85	11198	
567.05	13590	
567.24	12888	
567.44	11521	
567.63	12971	
567.82	13776	
568.02	13491	
568.21	11535	
568.4	12043	
568.6	13409	
568.79	13496	
568.98	11397	
569.18	11670	
569.37	13386	
569.56	15635	
569.76	12061	
569.95	13099	
570.14	13872	
570.34	13809	
570.53	11466	
570.72	11382	
570.91	14328	
571.11	13305	
571.3	12010	
571.49	12916	
571.69	13447	
571.88	12974	
572.07	12560	
572.27	12531	
572.46	12990	
572.65	14232	
572.85	11800	
573.04	12100	
573.23	14319	
573.43	13441	
573.62	11528	
573.81	12344	
574	13607	
574.2	13374	
574.39	12004	
574.58	12270	
574.78	14674	
574.97	13929	
575.16	12633	
575.36	12877	
575.55	14312	
575.74	14352	
575.93	11626	
576.13	12917	
576.32	13625	
576.51	14302	
576.71	12220	
576.9	13658	
577.09	14718	
577.28	14184	
577.48	12596	
577.67	11524	
577.86	13755	
578.05	14196	
578.25	12358	
578.44	12479	
578.63	13969	
578.83	15147	
579.02	11664	
579.21	13401	
579.4	14082	
579.6	13794	
579.79	12531	
579.98	14861	
580.17	14515	
580.37	14648	
580.56	11915	
580.75	12959	
580.94	15085	
581.14	14903	
581.33	13310	
581.52	12239	
581.71	14345	
581.91	15122	
582.1	11860	
582.29	12546	
582.48	13953	
582.68	13971	
582.87	12972	
583.06	12663	
583.25	14345	
583.45	13699	
583.64	13315	
583.83	14310	
584.02	13864	
584.21	14459	
584.41	13363	
584.6	12549	
584.79	14076	
584.98	14996	
585.18	12151	
585.37	12017	
585.56	13579	
585.75	14516	
585.94	12279	
586.14	12978	
586.33	15079	
586.52	14055	
586.71	12751	
586.91	12237	
587.1	13149	
587.29	14374	
587.48	12168	
587.67	12141	
587.87	14005	
588.06	14096	
588.25	13398	
588.44	12666	
588.63	13622	
588.83	14307	
589.02	11940	
589.21	11736	
589.4	13238	
589.59	13024	
589.78	10690	
589.98	10973	
590.17	12444	
590.36	13015	
590.55	10059	
590.74	10981	
590.94	14084	
591.13	12609	
591.32	10629	
591.51	10197	
591.7	13155	
591.89	12652	
592.09	10361	
592.28	10901	
592.47	11764	
592.66	13801	
592.85	10413	
593.05	10784	
593.24	12415	
593.43	13208	
593.62	10687	
593.81	11337	
594	12452	
594.19	12803	
594.39	10662	
594.58	10630	
594.77	12887	
594.96	13526	
595.15	10575	
595.34	11254	
595.54	12939	
595.73	11868	
595.92	9820	
596.11	11097	
596.3	13287	
596.49	11957	
596.68	10786	
596.88	11270	
597.07	13028	
597.26	11819	
597.45	10249	
597.64	11631	
597.83	12108	
598.02	12777	
598.22	10377	
598.41	11167	
598.6	12577	
598.79	11926	
598.98	10387	
599.17	11407	
599.36	12555	
599.55	13897	
599.74	12633	
599.94	12419	
600.13	13074	
600.32	11828	
600.51	10158	
600.7	10402	
600.89	13831	
601.08	13829	
601.27	10109	
601.47	11196	
601.66	13048	
601.85	13691	
602.04	10839	
602.23	11094	
602.42	12071	
602.61	12766	
602.8	10754	
602.99	10413	
603.18	12325	
603.37	12790	
603.57	11146	
603.76	11909	
603.95	13482	
604.14	13065	
604.33	10673	
604.52	11110	
604.71	12722	
604.9	12231	
605.09	11566	
605.28	11402	
605.47	13326	
605.66	12796	
605.86	11322	
606.05	10669	
606.24	13249	
606.43	11710	
606.62	10912	
606.81	11837	
607	13084	
607.19	12325	
607.38	10318	
607.57	10482	
607.76	12102	
607.95	11569	
608.14	11127	
608.33	11650	
608.52	12058	
608.72	13064	
608.91	10228	
609.1	10112	
609.29	12177	
609.48	11621	
609.67	11191	
609.86	10213	
610.05	11701	
610.24	11968	
610.43	9944.9	
610.62	9630.2	
610.81	13222	
611	13040	
611.19	10089	
611.38	10932	
611.57	12308	
611.76	13843	
611.95	9867.8	
612.14	9673.9	
612.33	12202	
612.52	11600	
612.71	10406	
612.9	9527.2	
613.09	11230	
613.28	13751	
613.47	10084	
613.66	11252	
613.85	12378	
614.04	11824	
614.24	10253	
614.43	9446.6	
614.62	12460	
614.81	12393	
615	10841	
615.19	10944	
615.38	11640	
615.57	12071	
615.76	10628	
615.95	11762	
616.14	12476	
616.33	12004	
616.52	11140	
616.71	11334	
616.9	12434	
617.09	12282	
617.28	10398	
617.47	11991	
617.66	11445	
617.85	11562	
618.04	11500	
618.22	10771	
618.41	11883	
618.6	12863	
618.79	10730	
618.98	10443	
619.17	13286	
619.36	11523	
619.55	10650	
619.74	10695	
619.93	12564	
620.12	11979	
620.31	11335	
620.5	11613	
620.69	13222	
620.88	13560	
621.07	12212	
621.26	11318	
621.45	12845	
621.64	12816	
621.83	11410	
622.02	10540	
622.21	12984	
622.4	12706	
622.59	12022	
622.78	11852	
622.97	12162	
623.16	13351	
623.35	11357	
623.54	10462	
623.72	12512	
623.91	12655	
624.1	11697	
624.29	10244	
624.48	13752	
624.67	12851	
624.86	11658	
625.05	10447	
625.24	13718	
625.43	12219	
625.62	13463	
625.81	10786	
626	13244	
626.19	12560	
626.38	11704	
626.56	10851	
626.75	12300	
626.94	12848	
627.13	11602	
627.32	10148	
627.51	12910	
627.7	14489	
627.89	10218	
628.08	11574	
628.27	12044	
628.46	12198	
628.65	10570	
628.83	10234	
629.02	12854	
629.21	12104	
629.4	11084	
629.59	11362	
629.78	12032	
629.97	13147	
630.16	11399	
630.35	10674	
630.54	13527	
630.72	13343	
630.91	10709	
631.1	11273	
631.29	12742	
631.48	13010	
631.67	11477	
631.86	10829	
632.05	12265	
632.24	12353	
632.42	10356	
632.61	11055	
632.8	12371	
632.99	11960	
633.18	11151	
633.37	11587	
633.56	12692	
633.75	12431	
633.93	11141	
634.12	10853	
634.31	13500	
634.5	13245	
634.69	10846	
634.88	11322	
635.07	12351	
635.25	13042	
635.44	11689	
635.63	12025	
635.82	12187	
636.01	11783	
636.2	11701	
636.39	11274	
636.57	13525	
636.76	13018	
636.95	10578	
637.14	12091	
637.33	12813	
637.52	13803	
637.7	10311	
637.89	11384	
638.08	12282	
638.27	13674	
638.46	11477	
638.65	11904	
638.83	13740	
639.02	11935	
639.21	11327	
639.4	11804	
639.59	12653	
639.78	12075	
639.96	10425	
640.15	10504	
640.34	12277	
640.53	12441	
640.72	10092	
640.91	10432	
641.09	11568	
641.28	13079	
641.47	10566	
641.66	11330	
641.85	12340	
642.03	12646	
642.22	11078	
642.41	10488	
642.6	11764	
642.79	11032	
642.97	10090	
643.16	11145	
643.35	11624	
643.54	11507	
643.73	10041	
643.91	10962	
644.1	11129	
644.29	11887	
644.48	10142	
644.67	10205	
644.85	11467	
645.04	11694	
645.23	9515.5	
645.42	9760.6	
645.6	10977	
645.79	12275	
645.98	9740.1	
646.17	8667	
646.36	10553	
646.54	11238	
646.73	10391	
646.92	9176.9	
647.11	10727	
647.29	11893	
647.48	9180.4	
647.67	8885.5	
647.86	12131	
648.05	12276	
648.23	9467.1	
648.42	10856	
648.61	11443	
648.8	11147	
648.98	9096.4	
649.17	9441.1	
649.36	10746	
649.55	10159	
649.73	9200.8	
649.92	10039	
650.11	10664	
650.3	11026	
650.48	9307.3	
650.67	9025.4	
650.86	11320	
651.05	10034	
651.23	9237	
651.42	9215.2	
651.61	10538	
651.79	10658	
651.98	9365.4	
652.17	8919.6	
652.36	11015	
652.54	10032	
652.73	9069.1	
652.92	8896.4	
653.11	11097	
653.29	11090	
653.48	8228.1	
653.67	9220	
653.85	10777	
654.04	11861	
654.23	9464.3	
654.42	8953.7	
654.6	10036	
654.79	10758	
654.98	8165.3	
655.16	8777.6	
655.35	9471.9	
655.54	9532.6	
655.73	8253.3	
655.91	8155	
656.1	10804	
656.29	9430.2	
656.47	7865.6	
656.66	9585.9	
656.85	9903.3	
657.03	9928.6	
657.22	8471.8	
657.41	8639.7	
657.59	10113	
657.78	9877.4	
657.97	8172.1	
658.16	9028.8	
658.34	10817	
658.53	11247	
658.72	9974.3	
658.9	10520	
659.09	10249	
659.28	10265	
659.46	8768	
659.65	8740	
659.84	9966.1	
660.02	10571	
660.21	8561.9	
660.4	8532.5	
660.58	11003	
660.77	10417	
660.96	9305.3	
661.14	8182.3	
661.33	11603	
661.52	11445	
661.7	8170	
661.89	12106	
662.08	9947	
662.26	9516.2	
662.45	8370	
662.64	8501.1	
662.82	10652	
663.01	9837.8	
663.2	8471.1	
663.38	9382.4	
663.57	10559	
663.75	10471	
663.94	8925.7	
664.13	10193	
664.31	9848.7	
664.5	10716	
664.69	9014.5	
664.87	9794.8	
665.06	9527.8	
665.25	10393	
665.43	10045	
665.62	10013	
665.8	10732	
665.99	9942.2	
666.18	8786.5	
666.36	9020.6	
666.55	10719	
666.74	10620	
666.92	8396.7	
667.11	10206	
667.29	9977	
667.48	10684	
667.67	9751.1	
667.85	8884.1	
668.04	9932	
668.22	10138	
668.41	8871.8	
668.6	9021.3	
668.78	9814.5	
668.97	10073	
669.15	9308	
669.34	8136.6	
669.53	9823.4	
669.71	10104	
669.9	8333.9	
670.08	9037.7	
670.27	9764	
670.46	10408	
670.64	9261.6	
670.83	9612.5	
671.01	9690.3	
671.2	10301	
671.38	8361.2	
671.57	8269	
671.76	11080	
671.94	11666	
672.13	8255.4	
672.31	9370.8	
672.5	10512	
672.69	9820.7	
672.87	8357.8	
673.06	8727.1	
673.24	10330	
673.43	9843.2	
673.61	9110	
673.8	8645.8	
673.98	10605	
674.17	10678	
674.36	9378.3	
674.54	9160.6	
674.73	10307	
674.91	10468	
675.1	8865	
675.28	8474.5	
675.47	9992.7	
675.65	10652	
675.84	8693.6	
676.03	9121.7	
676.21	9753.1	
676.4	9230.2	
676.58	9547.6	
676.77	9398.1	
676.95	11323	
677.14	9721.7	
677.32	8320.2	
677.51	8080.6	
677.69	10550	
677.88	9368.8	
678.06	8267.6	
678.25	8389.2	
678.44	10063	
678.62	9798.2	
678.81	7998	
678.99	9102.5	
679.18	10899	
679.36	10420	
679.55	8619.2	
679.73	9368.8	
679.92	10467	
680.1	9738.1	
680.29	10005	
680.47	8665.6	
680.66	9644.6	
680.84	10544	
681.03	7825.3	
681.21	8987.9	
681.4	9753.1	
681.58	9618.6	
681.77	8240.3	
681.95	8305.2	
682.14	10686	
682.32	10958	
682.51	9299.1	
682.69	8017.8	
682.88	9552.4	
683.06	10277	
683.25	8954.4	
683.43	9359.9	
683.62	9896.5	
683.8	10421	
683.99	9519.6	
684.17	8700.5	
684.36	11186	
684.54	9680.7	
684.73	7651.2	
684.91	7914.7	
685.1	9909.4	
685.28	9054.1	
685.46	8379.6	
685.65	8434.2	
685.83	10004	
686.02	9208.4	
686.2	7634.1	
686.39	7822.6	
686.57	9180.4	
686.76	10677	
686.94	7660.8	
687.13	7981.6	
687.31	9978.4	
687.5	9280	
687.68	7409.6	
687.86	8817.2	
688.05	11008	
688.23	8806.9	
688.42	8940.1	
688.6	7981.6	
688.79	9452.1	
688.97	9366.7	
689.16	8426.7	
689.34	7292.1	
689.52	10221	
689.71	10408	
689.89	8836.3	
690.08	8075.8	
690.26	9639.1	
690.45	9585.2	
690.63	8873.8	
690.81	8082.6	
691	9306.7	
691.18	9289.6	
691.37	8278.6	
691.55	10561	
691.74	9153.7	
691.92	11374	
692.1	8259.5	
692.29	7581.6	
692.47	9285.5	
692.66	8560.5	
692.84	7841.7	
693.02	8443.1	
693.21	8787.2	
693.39	9359.2	
693.58	8579.6	
693.76	7940.7	
693.94	10643	
694.13	10413	
694.31	7968.6	
694.5	9271.2	
694.68	9283.4	
694.86	9689.6	
695.05	8470.4	
695.23	8991.9	
695.42	10174	
695.6	12772	
695.78	9263	
695.97	8189.8	
696.15	10260	
696.34	9536.7	
696.52	7923.6	
696.7	8802.2	
696.89	9852.1	
697.07	9237.7	
697.25	8631.5	
697.44	10416	
697.62	9697.1	
697.81	10062	
697.99	8255.4	
698.17	8751.7	
698.36	8979	
698.54	9687.6	
698.72	8658.8	
698.91	7536.5	
699.09	9241.8	
699.28	9054.1	
699.46	8220.5	
699.64	8095.6	
699.83	9036.3	
700.01	10472	
700.19	9009.7	
700.38	7303.7	
700.56	10404	
700.74	9201.5	
700.93	7681.2	
701.11	8704.5	
701.29	9742.2	
701.48	11023	
701.66	8146.8	
701.84	8176.9	
702.03	9447.3	
702.21	10157	
702.39	7591.1	
702.58	8372.1	
702.76	9854.8	
702.94	9968.1	
703.13	7600.7	
703.31	10272	
703.49	9125.7	
703.68	10441	
703.86	7834.2	
704.04	8889.5	
704.23	9600.2	
704.41	10057	
704.59	8106.5	
704.78	9247.3	
704.96	10866	
705.14	10204	
705.33	7826.7	
705.51	8670.4	
705.69	9538.8	
705.87	10520	
706.06	8939.4	
706.24	7708.6	
706.42	9807	
706.61	10132	
706.79	9022.7	
706.97	7851.2	
707.16	9256.1	
707.34	9843.2	
707.52	8925	
707.7	8054.7	
707.89	9383.1	
708.07	9000.1	
708.25	8970.1	
708.44	9170.8	
708.62	9372.9	
708.8	10536	
708.98	9250.7	
709.17	8135.2	
709.35	9761.3	
709.53	9830.9	
709.72	7718.1	
709.9	7922.2	
710.08	10001	
710.26	10056	
710.45	9598.8	
710.63	8081.3	
710.81	9649.3	
710.99	9611.1	
711.18	8700.5	
711.36	8160.5	
711.54	9463.7	
711.72	10223	
711.91	8189.1	
712.09	7489.4	
712.27	9494.4	
712.45	10420	
712.64	8439.7	
712.82	7192.5	
713	8755.7	
713.18	8880	
713.37	7296.9	
713.55	8608.3	
713.73	9742.2	
713.91	8069.7	
714.1	7613	
714.28	6824.5	
714.46	9148.3	
714.64	8144.1	
714.83	6052.4	
715.01	6879.8	
715.19	8023.9	
715.37	7337.9	
715.55	6414.2	
715.74	6763.1	
715.92	8940.1	
716.1	6747.4	
716.28	7986.4	
716.47	6871.6	
716.65	7462.1	
716.83	7670.3	
717.01	6660.7	
717.19	6753.5	
717.38	9847.3	
717.56	7254.6	
717.74	7077.8	
717.92	6118.6	
718.1	8737.3	
718.29	7871.7	
718.47	5838.8	
718.65	6565.8	
718.83	8719.6	
719.01	8596.7	
719.2	5825.1	
719.38	7135.1	
719.56	8370.7	
719.74	10084	
719.92	6597.9	
720.11	7662.1	
720.29	8347.5	
720.47	7432.8	
720.65	5956.9	
720.83	6868.2	
721.02	7632.1	
721.2	7439.6	
721.38	6860	
721.56	5971.9	
721.74	6744.6	
721.92	7026.6	
722.11	7331.7	
722.29	7046.4	
722.47	8340.7	
722.65	7482.6	
722.83	6023.1	
723.01	7028.6	
723.2	7548.1	
723.38	7899	
723.56	5383.4	
723.74	6647	
723.92	6945.3	
724.1	8355	
724.29	5933.6	
724.47	7194.5	
724.65	7030.7	
724.83	6984.3	
725.01	5758.9	
725.19	6797.9	
725.37	7044.3	
725.56	7184.3	
725.74	5580	
725.92	5990.3	
726.1	6960.4	
726.28	7332.4	
726.46	6448.4	
726.64	6040.8	
726.83	7240.3	
727.01	7630.7	
727.19	5609.4	
727.37	6484.6	
727.55	7381.6	
727.73	7980.3	
727.91	5597.1	
728.09	5417.6	
728.28	8034.2	
728.46	8711.4	
728.64	6703.7	
728.82	6627.9	
729	9231.6	
729.18	8389.8	
729.36	5780.1	
729.54	8400.1	
729.72	9628.9	
729.91	7842.4	
730.09	7989.1	
730.27	6698.2	
730.45	7684	
730.63	8475.2	
730.81	7404.1	
730.99	6369.2	
731.17	8938.7	
731.35	7442.3	
731.53	6933.7	
731.71	6447.7	
731.9	8681.3	
732.08	8935.3	
732.26	6778.8	
732.44	6349.4	
732.62	8922.3	
732.8	8329.1	
732.98	7114	
733.16	6145.3	
733.34	8344.1	
733.52	6977.4	
733.7	6634.7	
733.88	6922.1	
734.07	8114.7	
734.25	7898.3	
734.43	6057.9	
734.61	7809.6	
734.79	9525.1	
734.97	7732.4	
735.15	6182.1	
735.33	6638.1	
735.51	8016.4	
735.69	7683.3	
735.87	7804.1	
736.05	6890	
736.23	7968.6	
736.41	7690.8	
736.59	6636.8	
736.77	6723.5	
736.95	8409.6	
737.13	7823.2	
737.32	6270.2	
737.5	6522.8	
737.68	9067.7	
737.86	7667.6	
738.04	5997.1	
738.22	8071	
738.4	7386.3	
738.58	7783.6	
738.76	6781.5	
738.94	5582.8	
739.12	7588.4	
739.3	7520.8	
739.48	7314.7	
739.66	7200.7	
739.84	7934.5	
740.02	7934.5	
740.2	5660.6	
740.38	6014.9	
740.56	8243.1	
740.74	7023.2	
740.92	6845	
741.1	6651.1	
741.28	7642.3	
741.46	7393.2	
741.64	6292.7	
741.82	6735.8	
742	7682.6	
742.18	7606.2	
742.36	6516	
742.54	6025.8	
742.72	8233.5	
742.9	6912.6	
743.08	6860	
743.26	5547.9	
743.44	8539.3	
743.62	8327	
743.8	7049.1	
743.98	6006	
744.16	7975.5	
744.34	7583.6	
744.52	6924.2	
744.7	6903.7	
744.88	8023.9	
745.06	7542	
745.24	6988.4	
745.42	7027.3	
745.6	8117.5	
745.78	7863.5	
745.96	5605.3	
746.14	5945.3	
746.32	8881.4	
746.5	8069	
746.68	6516	
746.86	5900.2	
747.03	8630.8	
747.21	6662	
747.39	6513.9	
747.57	5964.4	
747.75	7676.5	
747.93	8062.2	
748.11	5900.9	
748.29	5850.4	
748.47	9394	
748.65	7307.2	
748.83	6771.3	
749.01	6414.2	
749.19	7821.2	
749.37	7006.1	
749.55	6234	
749.73	6374.6	
749.91	7415.7	
750.09	7130.3	
750.26	6311.8	
750.44	5734.3	
750.62	7455.3	
750.8	7398.6	
750.98	5416.9	
751.16	5877.7	
751.34	7539.3	
751.52	6772.6	
751.7	6784.9	
751.88	5462.6	
752.06	8008.9	
752.24	7752.9	
752.42	5422.3	
752.59	5805.3	
752.77	7352.2	
752.95	8688.2	
753.13	6595.8	
753.31	5968.5	
753.49	6994.5	
753.67	7469.6	
753.85	6249.7	
754.03	5836	
754.21	7720.8	
754.38	8146.8	
754.56	5880.4	
754.74	4835.3	
754.92	6851.8	
755.1	7613	
755.28	4810	
755.46	4796.3	
755.64	8212.4	
755.82	8270.4	
755.99	4775.2	
756.17	4932.9	
756.35	5404.6	
756.53	7096.9	
756.71	3636.5	
756.89	4617.5	
757.07	6688	
757.25	5712.5	
757.42	5324.7	
757.6	6305	
757.78	6921.5	
757.96	5717.2	
758.14	5083.1	
758.32	4590.9	
758.5	5238	
758.67	6146	
758.85	4863.2	
759.03	4952	
759.21	6398.5	
759.39	5713.8	
759.57	4379.2	
759.75	5640.8	
759.92	7074.4	
760.1	6223.1	
760.28	6116.6	
760.46	6432	
760.64	6063.4	
760.82	5782.8	
760.99	5744.6	
761.17	5044.8	
761.35	7002	
761.53	5948.7	
761.71	5294.7	
761.89	5982.1	
762.06	6940.6	
762.24	6382.2	
762.42	5311.7	
762.6	5119.9	
762.78	6396.5	
762.96	7181.5	
763.13	5830.6	
763.31	5419.6	
763.49	7388.4	
763.67	6349.4	
763.85	6338.5	
764.02	6945.3	
764.2	7626.6	
764.38	6754.2	
764.56	5379.3	
764.74	6264.1	
764.91	7770.7	
765.09	6544.6	
765.27	4949.9	
765.45	4822.3	
765.63	7764.5	
765.8	7589.1	
765.98	4427.7	
766.16	4762.2	
766.34	5989.6	
766.52	5773.9	
766.69	5875.6	
766.87	4622.9	
767.05	6408.8	
767.23	7365.9	
767.41	4922.6	
767.58	5279.7	
767.76	7034.1	
767.94	7130.3	
768.12	4975.2	
768.29	5881.8	
768.47	6506.4	
768.65	7288.7	
768.83	4589.5	
769	5920	
769.18	5966.4	
769.36	6818.4	
769.54	5800.5	
769.72	4655	
769.89	7090.8	
770.07	7209.5	
770.25	4972.5	
770.43	6332.3	
770.6	7921.5	
770.78	8388.5	
770.96	5130.2	
771.14	5853.1	
771.31	6926.2	
771.49	6242.2	
771.67	4238.6	
771.85	4487.8	
772.02	5393.7	
772.2	6195.8	
772.38	5300.1	
772.55	4739	
772.73	6479.1	
772.91	6212.9	
773.09	5195	
773.26	5200.5	
773.44	6373.3	
773.62	6094.1	
773.8	4603.8	
773.97	4285.7	
774.15	6483.2	
774.33	6044.9	
774.5	4465.3	
774.68	4885.8	
774.86	6664.1	
775.04	6082.5	
775.21	4582	
775.39	4483	
775.57	6303.6	
775.74	6797.9	
775.92	4341	
776.1	4252.9	
776.27	6358.3	
776.45	7625.3	
776.63	4484.4	
776.81	3999.7	
776.98	5820.3	
777.16	7135.1	
777.34	4578.6	
777.51	5012.1	
777.69	5900.9	
777.87	5581.4	
778.04	4645.5	
778.22	5432.6	
778.4	5692.7	
778.57	6369.9	
778.75	3865.2	
778.93	4156	
779.1	5413.5	
779.28	5289.9	
779.46	3879.5	
779.64	4478.2	
779.81	6548.7	
779.99	7533.8	
780.17	5245.5	
780.34	5434.6	
780.52	5894.1	
780.69	6132.3	
780.87	4719.9	
781.05	4258.4	
781.22	5975.3	
781.4	6131.6	
781.58	4386.1	
781.75	3486.3	
781.93	6036.7	
782.11	5388.2	
782.28	5446.2	
782.46	4408.6	
782.64	5156.8	
782.81	6268.1	
782.99	4514.4	
783.17	4455.7	
783.34	6077.7	
783.52	5179.3	
783.69	4700.8	
783.87	5556.8	
784.05	5274.9	
784.22	5332.9	
784.4	5537	
784.58	4777.2	
784.75	6339.1	
784.93	5329.5	
785.1	4368.3	
785.28	5159.5	
785.46	6047.7	
785.63	5292.6	
785.81	4379.9	
785.99	4181.3	
786.16	5455.1	
786.34	5905.7	
786.51	4199.7	
786.69	4633.9	
786.87	5012.1	
787.04	5619.6	
787.22	4002.4	
787.39	5106.3	
787.57	5291.3	
787.75	6449.7	
787.92	5239.4	
788.1	5268.7	
788.27	5354.1	
788.45	5079	
788.63	4888.5	
788.8	3549.8	
788.98	5686.5	
789.15	4995	
789.33	3707.5	
789.5	4375.1	
789.68	6257.9	
789.86	6436.1	
790.03	4696.7	
790.21	4235.9	
790.38	6268.1	
790.56	5403.9	
790.73	4098.7	
790.91	4106.9	
791.09	5248.9	
791.26	6079.1	
791.44	4308.9	
791.61	3676.8	
791.79	5201.8	
791.96	5335	
792.14	3782.6	
792.32	3368.2	
792.49	5317.9	
792.67	5396.4	
792.84	3910.9	
793.02	3676.8	
793.19	5714.5	
793.37	6565.1	
793.54	3347.7	
793.72	3757.3	
793.89	6741.2	
794.07	5320.6	
794.25	4414.1	
794.42	3439.2	
794.6	6421.7	
794.77	6025.8	
794.95	4743.8	
795.12	4129.4	
795.3	5251	
795.47	5987.6	
795.65	4485.1	
795.82	4374.5	
796	4998.4	
796.17	7139.2	
796.35	4131.4	
796.52	4963.6	
796.7	5833.3	
796.87	5953.4	
797.05	5259.2	
797.22	5153.4	
797.4	5864.7	
797.57	7015	
797.75	4373.1	
797.92	4095.9	
798.1	6179.4	
798.27	5249.6	
798.45	3461.7	
798.62	3750.5	
798.8	5578.7	
798.97	6182.8	
799.15	4579.9	
799.32	4357.4	
799.5	4795	
799.67	5610.8	
799.85	4744.5	
800.02	3384.6	
800.2	5173.2	
800.37	5584.8	
800.55	4954.7	
800.72	4142.4	
800.9	5974.6	
801.07	6597.2	
801.25	5573.9	
801.42	4463.9	
801.6	6094.1	
801.77	5829.2	
801.95	4196.3	
802.12	3927.3	
802.29	5743.9	
802.47	5674.2	
802.64	4397	
802.82	3307.5	
802.99	5186.1	
803.17	6283.9	
803.34	4344.4	
803.52	3938.9	
803.69	7032	
803.87	4914.4	
804.04	4319.2	
804.21	4462.5	
804.39	6382.8	
804.56	5464	
804.74	3620.1	
804.91	4547.9	
805.09	5187.5	
805.26	5324.7	
805.44	3709.6	
805.61	4052.9	
805.78	5958.9	
805.96	5985.5	
806.13	4497.3	
806.31	4844.1	
806.48	4727.4	
806.66	5318.6	
806.83	4425	
807	4406.5	
807.18	5171.8	
807.35	5649.7	
807.53	4289.8	
807.7	3438.5	
807.87	6475	
808.05	5298.1	
808.22	4848.9	
808.4	3426.9	
808.57	5257.8	
808.74	4839.4	
808.92	3956.7	
809.09	5065.3	
809.27	5104.2	
809.44	5827.2	
809.61	3494.5	
809.79	3846.8	
809.96	6513.9	
810.14	6078.4	
810.31	3377.8	
810.48	4182.6	
810.66	5464	
810.83	6178.7	
811.01	3903.4	
811.18	4428.4	
811.35	6005.3	
811.53	4688.5	
811.7	4768.4	
811.87	4552.6	
812.05	5205.3	
812.22	5171.8	
812.39	3798.3	
812.57	3720.5	
812.74	5241.4	
812.92	7160.4	
813.09	4113.7	
813.26	4607.2	
813.44	6829.3	
813.61	5168.4	
813.78	3497.2	
813.96	4712.4	
814.13	5256.5	
814.3	4893.3	
814.48	5121.3	
814.65	4119.8	
814.82	6586.3	
815	5100.8	
815.17	4299.4	
815.34	5307.7	
815.52	5214.1	
815.69	5182.7	
815.87	4279.6	
816.04	4214	
816.21	5292.6	
816.38	4563.6	
816.56	4169.7	
816.73	3812.6	
816.9	6688	
817.08	6066.8	
817.25	3906.8	
817.42	4927.4	
817.6	4792.2	
817.77	5300.1	
817.94	4386.7	
818.12	3745.7	
818.29	4967.7	
818.46	7968	
818.64	4029	
818.81	3717.7	
818.98	4906.3	
819.16	7218.4	
819.33	4647.5	
819.5	4286.4	
819.67	5700.9	
819.85	6371.9	
820.02	4200.4	
820.19	4487.1	
820.37	5510.4	
820.54	5066.7	
820.71	4405.9	
820.88	5415.5	
821.06	5511.1	
821.23	5011.4	
821.4	4423.6	
821.58	4300.1	
821.75	6064	
821.92	5442.8	
822.09	3467.9	
822.27	3530	
822.44	5262.6	
822.61	5197.1	
822.79	3512.3	
822.96	6783.6	
823.13	5776.6	
823.3	5000.5	
823.48	4028.4	
823.65	3665.9	
823.82	6049.7	
823.99	4777.9	
824.17	5203.2	
824.34	3674.7	
824.51	6992.4	
824.68	5298.8	
824.86	3885	
825.03	4393.6	
825.2	5304.9	
825.37	6452.5	
825.55	3880.2	
825.72	4252.9	
825.89	7104.4	
826.06	6619.7	
826.24	4124.6	
826.41	4323.3	
826.58	6423.1	
826.75	5656.5	
826.92	3245.3	
827.1	3700.7	
827.27	8910	
827.44	7053.2	
827.61	3983.3	
827.79	4861.9	
827.96	4921.3	
828.13	5404.6	
828.3	4140.3	
828.47	3501.3	
828.65	5498.1	
828.82	5398.4	
828.99	5414.1	
829.16	4689.2	
829.34	5892	
829.51	5655.8	
829.68	4307.6	
829.85	4515.1	
830.02	6169.8	
830.2	5995.1	
830.37	3306.1	
830.54	5226.4	
830.71	6820.4	
830.88	5162.2	
831.05	3392.1	
831.23	3873.4	
831.4	6461.3	
831.57	7305.1	
831.74	3992.9	
831.91	3562.8	
832.09	5474.9	
832.26	5922.7	
832.43	4087.1	
832.6	4659.1	
832.77	5494	
832.94	6315.9	
833.12	3262.4	
833.29	4141	
833.46	5193.6	
833.63	7563.8	
833.8	4549.9	
833.97	4152.6	
834.15	5862	
834.32	5654.4	
834.49	4349.9	
834.66	4388.1	
834.83	6149.4	
835	4943.1	
835.17	4013.3	
835.35	4016.7	
835.52	5756.2	
835.69	5674.9	
835.86	4268	
836.03	3445.4	
836.2	5845.6	
836.37	5404.6	
836.55	4126	
836.72	3833.1	
836.89	5388.9	
837.06	6039.5	
837.23	4237.9	
837.4	4676.9	
837.57	6788.3	
837.75	7594.6	
837.92	3760.8	
838.09	4022.9	
838.26	5388.2	
838.43	6227.9	
838.6	4331.5	
838.77	3863.8	
838.94	7169.3	
839.11	6804.7	
839.29	4145.8	
839.46	3241.9	
839.63	5859.2	
839.8	5520	
839.97	4048.2	
840.14	3962.1	
840.31	5610.1	
840.48	5862	
840.65	3280.2	
840.82	3936.2	
841	5909.1	
841.17	5850.4	
841.34	3715.7	
841.51	3738.2	
841.68	5780.7	
841.85	5560.9	
842.02	3831.7	
842.19	3154.6	
842.36	5605.3	
842.53	5569.1	
842.7	3694.5	
842.87	4603.8	
843.05	7502.4	
843.22	5530.9	
843.39	3495.9	
843.56	3730.7	
843.73	5330.2	
843.9	5894.1	
844.07	6027.9	
844.24	5074.9	
844.41	8869.1	
844.58	5066.7	
844.75	3549.1	
844.92	3843.4	
845.09	5862	
845.26	5838.8	
845.43	3652.2	
845.6	3870.7	
845.77	5923.4	
845.94	5558.2	
846.12	4055.7	
846.29	4341.7	
846.46	6112.5	
846.63	5855.1	
846.8	3678.8	
846.97	4362.2	
847.14	6346	
847.31	5814.9	
847.48	4174.4	
847.65	4609.3	
847.82	6141.9	
847.99	6130.3	
848.16	4905.6	
848.33	4585.4	
848.5	5404.6	
848.67	6395.1	
848.84	3599	
849.01	3835.8	
849.18	5236.7	
849.35	4911	
849.52	4666.6	
849.69	3596.9	
849.86	6087.2	
850.03	6299.6	
850.2	3719.1	
850.37	4543.8	
850.54	6232.7	
850.71	5514.5	
850.88	4384	
851.05	3600.3	
851.22	5756.2	
851.39	6487.3	
851.56	3458.3	
851.73	4197	
851.9	5162.9	
852.07	6138.4	
852.24	4074.8	
852.41	3723.9	
852.58	5689.9	
852.75	5180.7	
852.92	4115.1	
853.09	3532.7	
853.26	5438.7	
853.43	6272.2	
853.6	3607.8	
853.77	3158.7	
853.94	6449.7	
854.11	5823.7	
854.28	5466	
854.44	3971	
854.61	6939.2	
854.78	6189	
854.95	3659	
855.12	4644.1	
855.29	4672.1	
855.46	6813.6	
855.63	3627.6	
855.8	5061.9	
855.97	5455.1	
856.14	6220.4	
856.31	5185.5	
856.48	3997	
856.65	5343.8	
856.82	5073.5	
856.99	3449.5	
857.16	3952.6	
857.33	7211.6	
857.49	5522.7	
857.66	3962.1	
857.83	4324.6	
858	5464.7	
858.17	5695.4	
858.34	3470.6	
858.51	3642	
858.68	6575.3	
858.85	6691.4	
859.02	4261.1	
859.19	4499.4	
859.36	5067.4	
859.52	5175.2	
859.69	3716.4	
859.86	4356.7	
860.03	5170.4	
860.2	6571.2	
860.37	3253.5	
860.54	3628.3	
860.71	6081.8	
860.88	6538.5	
861.05	4147.1	
861.21	4601.8	
861.38	6641.6	
861.55	5020.3	
861.72	3297.2	
861.89	4138.3	
862.06	6188.3	
862.23	6734.4	
862.4	3575.8	
862.56	3843.4	
862.73	5965.7	
862.9	5614.8	
863.07	4300.7	
863.24	3304.7	
863.41	5003.2	
863.58	5133.6	
863.75	3714.3	
863.91	4196.3	
864.08	6514.6	
864.25	6077	
864.42	4620.2	
864.59	5139	
864.76	6859.3	
864.93	5190.9	
865.09	3573.7	
865.26	3934.8	
865.43	6354.8	
865.6	6815	
865.77	3108.1	
865.94	3607.2	
866.1	6481.8	
866.27	6155.5	
866.44	5492	
866.61	3473.4	
866.78	5520.6	
866.95	6001.9	
867.11	3515.7	
867.28	3248.8	
867.45	6264.7	
867.62	5236	
867.79	4251.6	
867.96	3661.8	
868.12	5114.5	
868.29	6188.3	
868.46	3649.5	
868.63	4964.3	
868.8	6341.9	
868.97	6075	
869.13	3850.2	
869.3	3745.7	
869.47	6028.5	
869.64	6283.9	
869.81	3682.9	
869.97	3676.1	
870.14	5855.8	
870.31	6651.1	
870.48	3517.7	
870.65	4644.8	
870.81	5418.9	
870.98	5447.6	
871.15	4135.5	
871.32	3801	
871.48	6021.7	
871.65	6679.1	
871.82	3606.5	
871.99	4051.6	
872.16	7139.9	
872.32	6494.1	
872.49	3722.5	
872.66	3728.7	
872.83	6084.5	
872.99	5361.6	
873.16	4178.5	
873.33	3568.2	
873.5	5722.7	
873.67	5762.3	
873.83	3891.8	
874	4999.1	
874.17	5864.7	
874.34	7068.2	
874.5	4760.2	
874.67	4604.5	
874.84	6651.8	
875.01	5167.7	
875.17	5251	
875.34	3647.4	
875.51	5805.3	
875.68	7033.4	
875.84	4463.2	
876.01	5460.6	
876.18	6080.4	
876.34	5958.2	
876.51	3718.4	
876.68	3603.1	
876.85	5529.5	
877.01	6385.6	
877.18	5301.5	
877.35	3630.4	
877.52	5573.2	
877.68	5051	
877.85	3512.9	
878.02	3632.4	
878.18	5658.5	
878.35	5339.1	
878.52	2891.7	
878.69	4055.7	
878.85	6080.4	
879.02	6176.7	
879.19	5248.9	
879.35	3990.8	
879.52	6041.5	
879.69	6309.1	
879.86	3141.6	
880.02	4098	
880.19	5585.5	
880.36	6907.8	
880.52	4202.4	
880.69	4401.1	
880.86	6186.9	
881.02	6168.5	
881.19	3997.6	
881.36	3969	
881.52	6046.3	
881.69	5291.3	
881.86	3917.1	
882.02	3891.8	
882.19	6386.9	
882.36	7514	
882.52	3721.2	
882.69	5162.2	
882.86	5775.3	
883.02	5720	
883.19	4442.7	
883.36	4194.9	
883.52	6193.7	
883.69	7106.5	
883.86	3721.8	
884.02	3290.4	
884.19	6152.1	
884.36	5639.4	
884.52	4124.6	
884.69	3872	
884.86	5331.5	
885.02	6769.2	
885.19	4149.9	
885.36	4244.1	
885.52	5668.1	
885.69	5806.7	
885.86	5447.6	
886.02	4651.6	
886.19	6123.4	
886.35	5586.9	
886.52	4039.3	
886.69	5212.1	
886.85	5185.5	
887.02	6587	
887.19	6587	
887.35	6587	
887.52	6587	
887.68	6587	
887.85	6587	
888.02	6587	
888.18	6587	
888.35	6587	
888.51	6587	
888.68	6587	
888.85	6587	
889.01	6587	
889.18	6587	
889.35	6587	
889.51	6587	
889.68	6587	
889.84	6587	
890.01	6587	
890.17	6587	
890.34	6587	
890.51	6587	
890.67	6587	
890.84	6587	
891	6587	
891.17	6587	
891.34	6587	
891.5	6587	
891.67	6587	
891.83	6587	
892	6587	
892.16	6587	
892.33	6587	
892.5	6587	
892.66	6587	
892.83	6587	
892.99	6587	
893.16	6587	
893.32	6587	
893.49	6587	
893.65	6587	
893.82	6587	
893.99	6587	
894.15	6587	
894.32	6587	
894.48	6587	
894.65	6587	
894.81	6587	
894.98	6587	
895.14	6587	
895.31	6587	
895.47	6587	
895.64	6587	
895.81	6587	
895.97	6587	
896.14	6587	
896.3	6587	
896.47	6587	
896.63	6587	
896.8	6587	
896.96	6587	
897.13	6587	
897.29	6587	
897.46	6587	
897.62	6587	
897.79	6587	
897.95	6587	
898.12	6587	
898.28	6587	
898.45	6587	
898.61	6587	
898.78	6587	
898.94	6587	
899.11	6587	
899.27	6587	
899.44	6587	
899.6	6587	
899.77	6587	
899.93	6587	
900.1	6587	
900.26	6587	
900.43	6587	
900.59	6587	
900.76	6587	
900.92	6587	
901.09	6587	
901.25	6587	
901.42	6587	
901.58	6587	
901.75	6587	
901.91	6587	
902.07	6587	
902.24	6587	
902.4	6587	
902.57	6587	
902.73	6587	
902.9	6587	
903.06	6587	
903.23	6587	
903.39	6587	
903.56	6587	
903.72	6587	
903.88	6587	
904.05	6587	
904.21	6587	
904.38	6587	
904.54	6587	
904.71	6587	
904.87	6587	
905.03	6587	
905.2	6587	
905.36	6587	
905.53	6587	
905.69	6587	
905.86	6587	
906.02	6587	
906.18	6587	
906.35	6587	
906.51	6587	
906.68	6587	
906.84	6587	
907.01	6587	
907.17	6587	
907.33	6587	
907.5	6587	
907.66	6587	
907.83	6587	
907.99	6587	
908.15	6587	
908.32	6587	
908.48	6587	
908.65	6587	
908.81	6587	
908.97	6587	
909.14	6587	
909.3	6587	
909.47	6587	
909.63	6587	
909.79	6587	
909.96	6587	
910.12	6587	
910.28	6587	
910.45	6587	
910.61	6587	
910.78	6587	
910.94	6587	
911.1	6587	
911.27	6587	
911.43	6587	
911.59	6587	
911.76	6587	
911.92	6587	
912.08	6587	
912.25	6587	
912.41	6587	
912.57	6587	
912.74	6587	
912.9	6587	
913.07	6587	
913.23	6587	
913.39	6587	
913.56	6587	
913.72	6587	
913.88	6587	
914.05	6587	
914.21	6587	
914.37	6587	
914.54	6587	
914.7	6587	
914.86	6587	
915.03	6587	
915.19	6587	
