Wavelength	Intensities	
nm	a.u.	
179.22	1896.4	
179.44	1899.8	
179.65	1893	
179.86	1906.7	
180.08	1909.4	
180.29	4982.7	
180.51	3568.9	
180.72	5638.7	
180.94	6631.3	
181.15	3223.5	
181.37	3164.8	
181.58	5592.3	
181.79	5765	
182.01	3353.2	
182.22	3648.1	
182.44	5771.9	
182.65	4846.9	
182.87	4585.4	
183.08	4067.3	
183.29	6124.8	
183.51	5055.8	
183.72	3676.8	
183.94	5384.8	
184.15	5459.9	
184.37	5397.1	
184.58	3225.6	
184.79	4432.5	
185.01	5024.3	
185.22	5786.2	
185.44	4726	
185.65	3956	
185.86	5284.4	
186.08	4899.4	
186.29	3143.6	
186.51	3375.1	
186.72	5033.2	
186.94	5933.6	
187.15	3891.8	
187.36	4014.7	
187.58	7725.6	
187.79	5558.2	
188.01	4205.2	
188.22	6582.2	
188.43	6713.9	
188.65	5763.7	
188.86	3364.8	
189.08	4005.8	
189.29	5242.8	
189.5	5259.9	
189.72	3740.3	
189.93	3827	
190.15	5913.9	
190.36	7200.7	
190.57	4124.6	
190.79	3979.2	
191	6107.7	
191.22	5961	
191.43	4093.9	
191.64	3426.3	
191.86	6315.9	
192.07	5995.1	
192.29	3530	
192.5	3740.3	
192.71	6007.4	
192.93	5156.8	
193.14	3733.4	
193.35	3785.3	
193.57	5201.8	
193.78	5965.1	
194	2989.4	
194.21	3720.5	
194.42	5003.9	
194.64	5455.8	
194.85	3988.1	
195.07	4722.6	
195.28	5491.3	
195.49	4735.6	
195.71	5033.2	
195.92	3470.6	
196.13	5661.3	
196.35	5768.4	
196.56	5369.8	
196.78	4071.4	
196.99	7059.3	
197.2	6660.7	
197.42	4615.4	
197.63	4052.9	
197.84	4839.4	
198.06	5597.1	
198.27	3721.8	
198.48	4992.3	
198.7	5206.6	
198.91	5307.7	
199.13	4087.1	
199.34	4130.8	
199.55	5847	
199.77	4730.1	
199.98	3568.9	
200.19	4134.2	
200.41	5347.2	
200.62	4992.3	
200.83	4278.9	
201.05	4595.6	
201.26	5341.1	
201.47	5086.5	
201.69	3583.3	
201.9	3467.2	
202.11	5435.3	
202.33	6455.9	
202.54	3861.8	
202.76	4351.3	
202.97	5569.1	
203.18	5553.4	
203.4	4213.4	
203.61	4171	
203.82	5497.4	
204.04	5057.8	
204.25	4145.1	
204.46	3997	
204.68	5418.2	
204.89	5735	
205.1	3946.4	
205.32	3490.4	
205.53	5813.5	
205.74	6018.3	
205.96	2924.5	
206.17	4201.7	
206.38	5835.3	
206.6	5922.7	
206.81	4687.8	
207.02	3901.4	
207.24	5702.9	
207.45	6096.1	
207.66	3887.7	
207.88	3353.2	
208.09	5652.4	
208.3	5451	
208.52	3555.3	
208.73	3881.6	
208.94	5444.9	
209.15	6117.3	
209.37	3883.6	
209.58	4090.5	
209.79	5934.3	
210.01	5188.9	
210.22	3057.6	
210.43	3237.2	
210.65	5472.2	
210.86	5865.4	
211.07	3941.7	
211.29	3561.4	
211.5	5776	
211.71	5337.7	
211.93	3538.9	
212.14	3544.4	
212.35	5388.9	
212.56	5644.2	
212.78	4106.2	
212.99	3405.8	
213.2	6395.1	
213.42	5141.1	
213.63	3685	
213.84	3986	
214.06	4775.9	
214.27	4861.2	
214.48	3917.1	
214.69	4197.7	
214.91	6135.7	
215.12	6171.2	
215.33	4225.6	
215.55	4679.6	
215.76	6690	
215.97	5797.8	
216.18	4050.2	
216.4	3965.6	
216.61	5091.9	
216.82	5871.5	
217.04	3604.4	
217.25	3773.7	
217.46	6051.1	
217.67	5800.5	
217.89	3220.1	
218.1	3292.5	
218.31	5568.4	
218.53	5634.6	
218.74	3741	
218.95	3620.8	
219.16	5386.8	
219.38	6374	
219.59	3640.6	
219.8	4355.3	
220.01	7002.7	
220.23	5428.5	
220.44	4802.5	
220.65	3554.6	
220.87	5488.6	
221.08	6046.3	
221.29	3328.6	
221.5	4378.6	
221.72	7471	
221.93	5186.8	
222.14	4146.5	
222.35	4804.5	
222.57	5424.4	
222.78	5857.9	
222.99	3882.3	
223.2	4244.1	
223.42	5755.5	
223.63	5907.7	
223.84	3011.9	
224.05	2927.2	
224.27	6989	
224.48	6316.6	
224.69	4835.3	
224.9	4086.4	
225.12	5622.4	
225.33	5397.8	
225.54	3291.8	
225.75	3610.6	
225.97	4940.4	
226.18	5351.3	
226.39	3986.7	
226.6	3639.9	
226.82	5167.7	
227.03	5044.1	
227.24	4115.7	
227.45	3401	
227.67	5819	
227.88	6371.9	
228.09	4498	
228.3	4601.8	
228.52	5876.3	
228.73	5406	
228.94	3797.6	
229.15	3398.3	
229.36	5373.2	
229.58	5278.3	
229.79	3843.4	
230	4450.9	
230.21	6492.1	
230.43	5516.5	
230.64	4027.7	
230.85	4261.1	
231.06	5853.1	
231.28	5852.4	
231.49	3373.7	
231.7	3990.1	
231.91	5751.4	
232.12	5461.2	
232.34	3491.1	
232.55	3961.5	
232.76	6030.6	
232.97	5601.9	
233.18	3530.7	
233.4	4042.7	
233.61	5667.4	
233.82	5199.1	
234.03	3790.8	
234.25	3731.4	
234.46	7557.7	
234.67	5427.1	
234.88	4128	
235.09	3629.7	
235.31	5744.6	
235.52	5330.9	
235.73	4078.9	
235.94	3437.2	
236.15	5188.2	
236.37	6612.9	
236.58	3602.4	
236.79	3971	
237	5700.9	
237.21	4924	
237.43	4227.7	
237.64	3295.9	
237.85	9949.7	
238.06	4997.7	
238.27	4297.3	
238.48	3428.3	
238.7	5767.8	
238.91	5296	
239.12	3928.7	
239.33	3951.9	
239.54	5023	
239.76	5322	
239.97	3873.4	
240.18	3886.4	
240.39	6792.4	
240.6	5739.8	
240.82	4043.4	
241.03	3323.2	
241.24	5455.8	
241.45	6283.9	
241.66	3583.3	
241.87	4205.2	
242.09	6183.5	
242.3	6503.7	
242.51	4315.1	
242.72	3926	
242.93	5922.7	
243.14	5372.5	
243.36	4582	
243.57	4885.8	
243.78	6315.3	
243.99	5743.9	
244.2	3960.8	
244.41	3539.6	
244.63	5009.3	
244.84	5749.3	
245.05	4194.2	
245.26	3919.1	
245.47	5765	
245.68	5965.1	
245.9	5268.7	
246.11	4129.4	
246.32	5283.1	
246.53	5706.3	
246.74	6360.3	
246.95	3293.1	
247.16	4928.1	
247.38	5412.8	
247.59	3245.3	
247.8	3915	
248.01	5103.5	
248.22	5356.1	
248.43	3582.6	
248.64	3795.6	
248.86	4867.3	
249.07	5190.9	
249.28	3463.1	
249.49	4016.7	
249.7	5922.7	
249.91	6166.4	
250.12	3259.7	
250.34	3310.2	
250.55	5525.4	
250.76	5395	
250.97	4044.1	
251.18	4091.8	
251.39	6135.7	
251.6	5606	
251.81	4184.7	
252.03	4120.5	
252.24	5162.2	
252.45	5931.6	
252.66	3421.5	
252.87	4349.9	
253.08	5464	
253.29	7214.3	
253.5	3425.6	
253.72	4778.6	
253.93	5325.4	
254.14	6421.7	
254.35	3707.5	
254.56	3859.1	
254.77	5694.7	
254.98	5076.9	
255.19	3607.2	
255.41	4681.7	
255.62	5530.2	
255.83	6130.3	
256.04	4197.7	
256.25	4113	
256.46	6511.2	
256.67	5178.6	
256.88	3986	
257.09	4568.3	
257.31	5107.6	
257.52	5123.3	
257.73	5104.2	
257.94	3713.7	
258.15	5276.3	
258.36	5498.8	
258.57	4748.6	
258.78	2951.8	
258.99	5934.3	
259.2	5306.3	
259.41	3778.5	
259.63	3827	
259.84	6296.8	
260.05	6765.8	
260.26	4916.5	
260.47	3602.4	
260.68	6076.3	
260.89	5388.9	
261.1	4578.6	
261.31	3603.7	
261.52	6056.5	
261.73	6389.7	
261.95	4819.6	
262.16	4240	
262.37	6165.8	
262.58	6256.5	
262.79	4852.3	
263	3830.4	
263.21	5498.1	
263.42	4965.6	
263.63	3807.9	
263.84	3745.7	
264.05	6015.6	
264.26	6363.7	
264.47	4668	
264.69	4263.9	
264.9	6132.3	
265.11	5705.6	
265.32	3599	
265.53	3705.5	
265.74	5576.6	
265.95	4913.8	
266.16	4014.7	
266.37	4451.6	
266.58	5515.9	
266.79	5296.7	
267	3682.9	
267.21	3486.3	
267.42	4988.9	
267.63	5447.6	
267.84	3944.4	
268.06	3322.5	
268.27	5886.5	
268.48	6182.8	
268.69	3778.5	
268.9	4587.4	
269.11	6163.7	
269.32	4912.4	
269.53	3874.1	
269.74	3592.8	
269.95	5743.9	
270.16	4766.3	
270.37	3921.2	
270.58	4547.9	
270.79	5276.3	
271	5991.7	
271.21	4250.9	
271.42	3956.7	
271.63	5567.7	
271.84	5080.3	
272.05	3123.8	
272.26	3547.1	
272.47	5498.8	
272.68	5610.8	
272.89	3784	
273.11	4317.8	
273.32	5255.8	
273.53	6382.2	
273.74	4237.2	
273.95	4181.3	
274.16	6090.7	
274.37	5526.8	
274.58	4313.7	
274.79	3385.3	
275	5541.8	
275.21	6137.8	
275.42	5201.2	
275.63	4418.8	
275.84	5739.8	
276.05	7173.4	
276.26	4130.8	
276.47	3938.2	
276.68	5316.5	
276.89	6416.3	
277.1	4443.4	
277.31	3472	
277.52	5717.2	
277.73	5891.3	
277.94	3371.6	
278.15	3817.4	
278.36	5620.3	
278.57	5143.8	
278.78	3713	
278.99	4283	
279.2	5029.1	
279.41	5036	
279.62	4977.2	
279.83	3465.8	
280.04	6675.7	
280.25	4973.8	
280.46	4927.4	
280.67	3924.6	
280.88	5033.9	
281.09	6068.8	
281.3	4142.4	
281.51	5238.7	
281.72	5171.8	
281.93	5965.7	
282.14	3696.6	
282.35	3945.1	
282.56	5982.1	
282.77	5865.4	
282.98	3771	
283.19	4648.9	
283.4	7291.5	
283.61	5416.9	
283.82	3410.6	
284.03	4829.8	
284.24	5606	
284.45	6095.4	
284.66	4885.1	
284.87	4691.9	
285.08	5997.1	
285.29	6165.8	
285.5	3323.2	
285.71	3865.2	
285.92	6071.5	
286.12	6759	
286.33	4870.1	
286.54	3779.9	
286.75	5935	
286.96	5335.6	
287.17	3522.5	
287.38	4799.8	
287.59	5078.3	
287.8	4962.9	
288.01	3866.6	
288.22	4435.9	
288.43	5924.1	
288.64	4973.2	
288.85	4530.8	
289.06	4358.8	
289.27	5919.3	
289.48	6354.2	
289.69	4917.2	
289.9	4429.1	
290.11	6126.2	
290.32	5143.8	
290.53	4598.4	
290.74	4244.1	
290.94	5889.3	
291.15	5965.1	
291.36	3682.2	
291.57	4453.6	
291.78	5233.2	
291.99	4911	
292.2	3502	
292.41	4273.4	
292.62	6010.1	
292.83	5815.5	
293.04	5341.8	
293.25	3564.8	
293.46	5246.2	
293.67	6088.6	
293.88	3663.1	
294.09	3479.5	
294.29	4980	
294.5	5584.1	
294.71	3899.3	
294.92	3715	
295.13	5244.2	
295.34	6511.2	
295.55	3325.9	
295.76	3378.5	
295.97	5821	
296.18	6634.1	
296.39	3487	
296.6	3682.2	
296.81	5533.6	
297.01	5868.1	
297.22	3849.5	
297.43	3650.2	
297.64	5128.1	
297.85	5075.5	
298.06	3069.2	
298.27	3362.1	
298.48	5507	
298.69	5107.6	
298.9	4048.2	
299.11	3665.9	
299.31	4958.1	
299.52	4980.7	
299.73	4246.1	
299.94	4115.7	
300.15	5436	
300.36	5082.4	
300.57	4235.9	
300.78	4183.3	
300.99	5325.4	
301.2	5581.4	
301.4	3653.6	
301.61	4037.9	
301.82	5795.8	
302.03	5887.2	
302.24	4466.6	
302.45	3485.6	
302.66	5803.3	
302.87	6193.7	
303.08	3691.8	
303.29	5081	
303.49	5227.8	
303.7	5486.5	
303.91	3280.8	
304.12	4795.7	
304.33	4995	
304.54	5575.3	
304.75	3795.6	
304.96	3519.8	
305.16	5791.7	
305.37	6539.8	
305.58	3261.7	
305.79	3342.3	
306	5795.1	
306.21	4848.2	
306.42	3646.7	
306.63	5665.4	
306.83	5266.7	
307.04	6053.1	
307.25	4116.4	
307.46	4069.3	
307.67	4659.1	
307.88	5978.7	
308.09	3586	
308.29	3814	
308.5	5566.4	
308.71	6010.8	
308.92	3949.2	
309.13	3526.6	
309.34	5393	
309.55	5386.8	
309.75	4628.4	
309.96	4206.5	
310.17	5872.2	
310.38	5167.7	
310.59	4383.3	
310.8	3485	
311.01	5233.2	
311.21	5304.2	
311.42	3487	
311.63	3599.6	
311.84	5117.9	
312.05	5615.5	
312.26	4101.4	
312.46	4487.8	
312.67	5254.4	
312.88	5014.8	
313.09	3517.7	
313.3	3478.8	
313.51	6249	
313.71	6640.2	
313.92	3487	
314.13	3746.4	
314.34	5622.4	
314.55	5439.4	
314.76	4612	
314.96	3959.4	
315.17	5572.5	
315.38	5943.9	
315.59	3605.1	
315.8	3377.1	
316.01	6358.9	
316.21	6310.5	
316.42	3454.2	
316.63	3866.6	
316.84	5344.5	
317.05	6201.9	
317.26	4227	
317.46	3796.9	
317.67	5369.8	
317.88	5857.2	
318.09	4572.4	
318.3	3320.4	
318.5	5113.8	
318.71	5814.2	
318.92	5791.7	
319.13	4222.9	
319.34	5983.5	
319.54	6161.7	
319.75	3323.2	
319.96	3183.2	
320.17	5889.3	
320.38	6041.5	
320.58	3257	
320.79	3902.1	
321	6116.6	
321.21	6234.7	
321.42	3942.3	
321.62	3268.6	
321.83	5035.3	
322.04	5474.9	
322.25	3744.4	
322.46	3609.9	
322.66	5571.2	
322.87	5784.1	
323.08	4380.6	
323.29	3545.7	
323.5	6501.6	
323.7	5040.1	
323.91	4825.7	
324.12	4416.1	
324.33	5489.2	
324.53	5876.3	
324.74	4149.9	
324.95	4468.7	
325.16	4810.7	
325.37	5341.1	
325.57	3547.1	
325.78	3645.4	
325.99	5560.2	
326.2	4945.2	
326.4	5028.4	
326.61	3248.8	
326.82	5393.7	
327.03	5569.8	
327.24	5115.8	
327.44	4788.8	
327.65	5715.2	
327.86	4631.8	
328.07	4188.1	
328.27	3401.7	
328.48	6139.1	
328.69	5046.9	
328.9	5174.5	
329.1	3811.3	
329.31	5375.2	
329.52	6305	
329.73	3592.1	
329.93	4034.5	
330.14	5453.7	
330.35	5649	
330.56	5930.9	
330.76	4427	
330.97	5268.7	
331.18	5678.3	
331.39	3978.5	
331.59	3226.2	
331.8	6077.7	
332.01	6184.9	
332.22	3657	
332.42	4237.9	
332.63	5569.8	
332.84	5140.4	
333.05	4027.7	
333.25	3639.9	
333.46	5258.5	
333.67	5496.1	
333.88	3665.9	
334.08	4115.1	
334.29	7265.5	
334.5	6196.5	
334.7	3480.2	
334.91	5142.4	
335.12	5048.9	
335.33	5834	
335.53	3932.8	
335.74	5874.9	
335.95	5214.8	
336.16	5098.8	
336.36	3973.1	
336.57	4637.3	
336.78	4985.4	
336.98	6114.6	
337.19	4937	
337.4	3862.5	
337.61	6638.1	
337.81	4991.6	
338.02	3626.3	
338.23	4691.2	
338.43	6262.7	
338.64	5154.1	
338.85	3598.3	
339.05	4665.3	
339.26	6328.2	
339.47	4891.2	
339.68	3606.5	
339.88	5363.6	
340.09	5722.7	
340.3	5985.5	
340.5	4244.1	
340.71	3214.6	
340.92	4921.3	
341.13	6182.1	
341.33	3436.5	
341.54	4264.6	
341.75	5692	
341.95	5358.2	
342.16	4011.3	
342.37	4306.2	
342.57	5041.4	
342.78	5425.8	
342.99	4520.5	
343.19	3168.2	
343.4	5926.1	
343.61	5756.2	
343.81	3786.7	
344.02	3532.7	
344.23	5872.9	
344.43	6342.6	
344.64	4500.1	
344.85	4330.1	
345.06	5773.2	
345.26	6099.5	
345.47	4162.8	
345.68	4780.6	
345.88	4831.8	
346.09	5924.8	
346.3	4222.2	
346.5	3144.3	
346.71	5489.9	
346.92	5140.4	
347.12	3254.9	
347.33	4144.4	
347.54	6019	
347.74	6460.7	
347.95	4104.1	
348.16	3080.1	
348.36	5319.3	
348.57	4974.5	
348.78	4111.6	
348.98	4449.6	
349.19	5391.6	
349.39	4909.7	
349.6	3267.2	
349.81	3638.6	
350.01	5697.4	
350.22	5182.7	
350.43	3921.2	
350.63	4835.9	
350.84	5580	
351.05	5257.8	
351.25	3609.9	
351.46	3242.6	
351.67	6019	
351.87	5158.2	
352.08	3847.5	
352.29	4407.9	
352.49	5924.1	
352.7	6042.2	
352.9	3487	
353.11	4385.4	
353.32	6642.2	
353.52	5266.7	
353.73	3482.9	
353.94	4439.3	
354.14	5735	
354.35	5648.3	
354.55	3559.4	
354.76	3961.5	
354.97	5685.8	
355.17	5428.5	
355.38	3319.8	
355.59	4812	
355.79	5124	
356	5554.1	
356.2	3970.3	
356.41	3366.9	
356.62	4896.7	
356.82	5373.9	
357.03	4282.3	
357.24	3793.5	
357.44	5175.2	
357.65	5309	
357.85	5134.3	
358.06	3943.7	
358.27	4973.2	
358.47	5139	
358.68	3291.8	
358.88	4232.5	
359.09	5683.8	
359.3	6083.8	
359.5	4878.3	
359.71	4360.1	
359.91	6593.1	
360.12	5926.1	
360.33	4174.4	
360.53	4732.9	
360.74	5205.9	
360.94	5181.4	
361.15	4427.7	
361.36	3583.3	
361.56	5982.1	
361.77	5352.7	
361.97	4904.9	
362.18	3887.7	
362.38	5995.8	
362.59	5007.3	
362.8	3517.7	
363	3390.1	
363.21	4848.9	
363.41	5583.4	
363.62	4086.4	
363.83	5161.6	
364.03	5575.9	
364.24	6510.5	
364.44	5233.2	
364.65	5066.7	
364.85	5358.2	
365.06	5209.3	
365.27	3702	
365.47	3768.9	
365.68	6331	
365.88	5276.3	
366.09	4148.5	
366.29	3832.4	
366.5	5563.6	
366.71	5997.8	
366.91	5153.4	
367.12	4308.2	
367.32	6709.8	
367.53	5816.2	
367.73	4270	
367.94	5188.2	
368.14	5775.3	
368.35	6741.2	
368.56	4307.6	
368.76	4002.4	
368.97	5939.8	
369.17	7731.1	
369.38	3741.6	
369.58	3989.4	
369.79	4918.5	
369.99	6324.1	
370.2	5046.9	
370.4	4063.9	
370.61	5635.3	
370.82	6857.3	
371.02	3977.8	
371.23	3275.4	
371.43	4840	
371.64	6246.3	
371.84	4022.2	
372.05	5171.8	
372.25	7589.8	
372.46	5943.2	
372.66	3984	
372.87	3951.2	
373.07	5993.7	
373.28	7576.1	
373.48	4993.6	
373.69	4751.3	
373.9	5399.8	
374.1	5427.1	
374.31	5003.2	
374.51	4453.6	
374.72	6274.3	
374.92	5102.9	
375.13	5157.5	
375.33	4266.6	
375.54	5888.6	
375.74	5238	
375.95	4368.3	
376.15	5687.2	
376.36	5799.2	
376.56	5638.7	
376.77	4443.4	
376.97	4909.7	
377.18	6992.4	
377.38	5905.7	
377.59	5261.2	
377.79	3908.9	
378	5727.5	
378.2	6193.7	
378.41	3990.8	
378.61	3879.5	
378.82	6227.9	
379.02	5330.2	
379.23	4130.1	
379.43	5279.7	
379.64	6305	
379.84	5889.3	
380.05	4020.8	
380.25	3870	
380.46	5972.6	
380.66	5543.9	
380.87	5353.4	
381.07	5647.6	
381.28	6661.4	
381.48	6027.2	
381.69	3976.5	
381.89	4014.7	
382.1	4957.4	
382.3	6165.1	
382.51	5127.4	
382.71	6085.9	
382.91	5996.5	
383.12	6580.8	
383.32	4358.8	
383.53	4614.1	
383.73	5807.4	
383.94	5709.1	
384.14	4502.1	
384.35	3632.4	
384.55	5561.6	
384.76	6078.4	
384.96	4382.7	
385.17	4661.2	
385.37	5966.4	
385.58	5324.7	
385.78	4750.6	
385.98	3497.2	
386.19	5517.2	
386.39	5852.4	
386.6	4100	
386.8	4423.6	
387.01	6022.4	
387.21	6031.3	
387.42	4831.2	
387.62	5368.4	
387.83	5320.6	
388.03	5998.5	
388.23	4385.4	
388.44	5236	
388.64	4954	
388.85	5091.3	
389.05	4766.3	
389.26	5400.5	
389.46	7027.9	
389.67	6441.5	
389.87	4740.4	
390.07	4880.3	
390.28	5665.4	
390.48	5227.1	
390.69	3971	
390.89	4315.8	
391.1	5414.1	
391.3	6377.4	
391.5	5526.8	
391.71	6107	
391.91	6100.9	
392.12	7164.5	
392.32	5683.8	
392.53	4737	
392.73	5530.9	
392.93	5701.5	
393.14	4463.9	
393.34	5262.6	
393.55	6155.5	
393.75	5627.8	
393.95	4497.3	
394.16	4420.2	
394.36	5403.2	
394.57	6154.8	
394.77	3849.5	
394.98	4330.1	
395.18	5360.9	
395.38	5459.2	
395.59	5208.7	
395.79	4158.1	
396	5507.7	
396.2	5983.5	
396.4	5009.3	
396.61	4909	
396.81	6191.7	
397.02	5442.1	
397.22	5242.1	
397.42	5339.1	
397.63	6174.6	
397.83	5349.3	
398.04	4154.6	
398.24	4612.7	
398.44	5888.6	
398.65	4981.3	
398.85	3917.8	
399.05	4097.3	
399.26	5284.4	
399.46	7053.2	
399.67	4455	
399.87	4178.5	
400.07	5704.3	
400.28	6068.8	
400.48	4244.1	
400.69	5345.9	
400.89	6378.1	
401.09	6773.3	
401.3	4187.4	
401.5	5359.5	
401.7	7017.7	
401.91	7228	
402.11	4439.3	
402.32	4778.6	
402.52	6408.8	
402.72	6306.4	
402.93	5036	
403.13	3830.4	
403.33	7080.5	
403.54	5807.4	
403.74	4675.5	
403.94	5507	
404.15	5856.5	
404.35	7012.2	
404.56	4417.5	
404.76	6191.7	
404.96	6253.8	
405.17	6074.3	
405.37	5797.1	
405.57	4898.7	
405.78	6305	
405.98	5739.8	
406.18	4418.2	
406.39	5373.2	
406.59	6317.3	
406.79	5896.1	
407	4242.7	
407.2	4373.1	
407.4	6304.3	
407.61	6497.5	
407.81	4305.5	
408.01	6629.3	
408.22	5225.7	
408.42	7316.7	
408.62	5381.4	
408.83	4841.4	
409.03	5900.2	
409.23	5685.8	
409.44	4967.7	
409.64	5293.3	
409.84	6804	
410.05	6668.9	
410.25	5071.5	
410.45	4837.3	
410.66	6200.6	
410.86	8714.8	
411.06	5284.4	
411.27	5193	
411.47	8404.2	
411.67	6338.5	
411.88	5363.6	
412.08	5626.5	
412.28	6999.3	
412.49	7584.3	
412.69	5190.2	
412.89	5118.6	
413.09	7401.4	
413.3	7232.7	
413.5	5283.1	
413.7	4825.7	
413.91	6450.4	
414.11	7371.3	
414.31	5058.5	
414.52	5567.7	
414.72	6956.9	
414.92	6862.7	
415.12	5093.3	
415.33	5612.8	
415.53	7278.5	
415.73	7531.1	
415.94	5969.8	
416.14	5427.8	
416.34	6229.9	
416.55	5992.4	
416.75	6592.4	
416.95	5986.2	
417.15	7240.3	
417.36	8028.7	
417.56	6846.4	
417.76	5862.7	
417.97	7699.7	
418.17	7375.4	
418.37	5407.3	
418.57	5520	
418.78	7147.4	
418.98	6832	
419.18	6440.2	
419.38	6367.1	
419.59	6819.1	
419.79	6387.6	
419.99	5385.5	
420.2	5782.8	
420.4	7323.5	
420.6	7535.2	
420.8	5236.7	
421.01	5124	
421.21	7043.6	
421.41	7418.4	
421.61	5685.8	
421.82	5367	
422.02	6717.3	
422.22	7647.1	
422.42	6143.9	
422.63	5842.2	
422.83	6802.7	
423.03	8101.1	
423.23	5998.5	
423.44	4821.6	
423.64	6831.3	
423.84	6584.9	
424.04	5341.1	
424.25	4929.5	
424.45	7796.6	
424.65	7838.9	
424.85	4748.6	
425.06	5380.7	
425.26	7726.3	
425.46	6751.5	
425.66	5912.5	
425.87	5578	
426.07	7573.4	
426.27	7403.4	
426.47	5745.9	
426.67	5005.9	
426.88	7914	
427.08	7359	
427.28	5978	
427.48	4973.8	
427.69	6232.7	
427.89	6816.3	
428.09	5891.3	
428.29	5031.2	
428.5	7572.7	
428.7	7108.5	
428.9	4896.7	
429.1	5582.8	
429.3	6913.9	
429.51	7421.2	
429.71	5214.8	
429.91	5990.3	
430.11	7299	
430.31	7531.7	
430.52	5549.3	
430.72	5809.4	
430.92	7914.7	
431.12	7380.9	
431.32	5251	
431.53	5649.7	
431.73	6239.5	
431.93	7929.1	
432.13	5080.3	
432.33	5013.4	
432.54	6680.5	
432.74	7106.5	
432.94	4948.6	
433.14	6038.8	
433.34	7220.5	
433.55	6733.7	
433.75	6004	
433.95	7791.8	
434.15	7061.4	
434.35	6709.1	
434.56	5128.8	
434.76	4585.4	
434.96	7042.3	
435.16	7234.8	
435.36	5010	
435.56	6239.5	
435.77	6642.9	
435.97	6887.3	
436.17	6880.5	
436.37	6135	
436.57	6671.6	
436.78	6512.5	
436.98	6046.3	
437.18	6720.1	
437.38	7357	
437.58	6944	
437.78	6961	
437.99	5492	
438.19	7421.2	
438.39	8854.1	
438.59	5434.6	
438.79	4945.2	
438.99	8053.3	
439.2	6846.4	
439.4	4974.5	
439.6	4920.6	
439.8	7129.7	
440	8236.2	
440.2	6097.5	
440.4	6076.3	
440.61	7521.5	
440.81	8155	
441.01	5253	
441.21	6195.8	
441.41	8029.4	
441.61	7649.8	
441.81	6509.8	
442.02	7511.9	
442.22	8480.6	
442.42	7661.5	
442.62	5294	
442.82	5332.9	
443.02	7941.3	
443.22	7074.4	
443.43	5693.4	
443.63	5350.7	
443.83	6903.7	
444.03	6963.1	
444.23	6682.5	
444.43	6227.2	
444.63	7262.8	
444.83	8533.2	
445.04	5427.1	
445.24	6829.3	
445.44	7672.4	
445.64	7712	
445.84	6310.5	
446.04	6267.5	
446.24	6991.1	
446.44	8042.4	
446.65	5358.9	
446.85	5844.2	
447.05	7124.9	
447.25	7916.1	
447.45	5935	
447.65	5266.7	
447.85	7246.4	
448.05	6957.6	
448.25	6313.9	
448.46	6139.1	
448.66	7240.9	
448.86	7012.9	
449.06	5061.2	
449.26	6326.2	
449.46	7733.8	
449.66	6641.6	
449.86	5866.1	
450.06	5810.1	
450.26	6920.1	
450.47	7549.5	
450.67	6062.7	
450.87	6458.6	
451.07	7513.3	
451.27	7384.3	
451.47	5370.5	
451.67	5932.3	
451.87	7022.5	
452.07	8147.5	
452.27	5575.9	
452.47	5569.1	
452.67	7358.4	
452.88	7942	
453.08	4928.8	
453.28	7073	
453.48	8546.9	
453.68	7292.8	
453.88	5483.1	
454.08	5765	
454.28	7604.1	
454.48	7268.2	
454.68	6228.6	
454.88	6836.1	
455.08	7767.3	
455.28	7531.1	
455.48	5412.1	
455.68	6034	
455.89	8285.4	
456.09	7871.7	
456.29	5706.3	
456.49	5821	
456.69	8181.6	
456.89	7330.4	
457.09	6290.7	
457.29	6639.5	
457.49	7674.4	
457.69	7862.8	
457.89	6145.3	
458.09	5550.7	
458.29	7554.3	
458.49	8210.3	
458.69	6509.8	
458.89	6004.6	
459.09	8507.3	
459.29	8645.8	
459.49	6135	
459.69	6924.9	
459.9	8122.9	
460.1	7485.3	
460.3	6008.7	
460.5	5754.8	
460.7	7991.9	
460.9	7696.9	
461.1	5345.2	
461.3	6728.3	
461.5	8627.4	
461.7	8217.8	
461.9	5873.6	
462.1	6309.8	
462.3	7709.2	
462.5	8290.9	
462.7	5906.3	
462.9	5999.9	
463.1	9342.2	
463.3	8940.1	
463.5	6210.1	
463.7	7200	
463.9	7842.4	
464.1	8335.2	
464.3	6347.3	
464.5	6638.1	
464.7	8608.3	
464.9	8309.3	
465.1	7956.4	
465.3	6922.8	
465.5	8953	
465.7	8961.9	
465.9	7284.6	
466.1	7066.9	
466.3	8652	
466.5	8515.5	
466.7	7866.9	
466.9	6778.8	
467.1	8456.7	
467.3	9437	
467.5	7895.6	
467.7	6696.2	
467.9	9689.6	
468.1	10559	
468.3	7675.8	
468.5	8027.4	
468.7	8472.4	
468.9	8452	
469.1	7089.4	
469.3	7795.3	
469.5	10525	
469.7	8023.9	
469.9	7582.3	
470.1	6863.4	
470.3	8576.2	
470.5	8515.5	
470.7	8056.7	
470.9	6850.5	
471.1	8213.7	
471.3	8729.1	
471.5	6712.6	
471.69	8606.2	
471.89	8097.7	
472.09	7757.7	
472.29	7604.8	
472.49	7842.4	
472.69	7901.7	
472.89	8729.8	
473.09	6632	
473.29	6707.1	
473.49	8065.6	
473.69	8192.6	
473.89	7706.5	
474.09	6902.3	
474.29	9494.4	
474.49	9154.4	
474.69	7725.6	
474.89	7017.7	
475.09	8221.9	
475.29	8150.9	
475.49	6428.6	
475.69	6672.3	
475.88	9873.3	
476.08	8642.4	
476.28	6382.2	
476.48	6862.7	
476.68	8989.9	
476.88	8779	
477.08	6650.4	
477.28	6936.5	
477.48	8272.4	
477.68	8966	
477.88	6391.7	
478.08	6745.3	
478.28	9308.7	
478.48	8449.9	
478.67	6825.9	
478.87	6318.7	
479.07	9051.3	
479.27	8557.1	
479.47	7200.7	
479.67	7084.6	
479.87	8811	
480.07	9477.3	
480.27	6338.5	
480.47	8000	
480.67	8554.4	
480.87	9196.7	
481.06	6557.6	
481.26	7479.2	
481.46	8432.9	
481.66	8372.1	
481.86	7103.7	
482.06	8120.9	
482.26	8181	
482.46	9189.2	
482.66	6992.4	
482.86	6563.7	
483.05	8548.9	
483.25	7933.8	
483.45	9481.4	
483.65	7024.5	
483.85	8040.3	
484.05	8456.1	
484.25	7372.7	
484.45	7974.1	
484.65	9290.3	
484.84	9318.3	
485.04	6821.1	
485.24	6894.8	
485.44	9500.5	
485.64	7835.5	
485.84	6215.6	
486.04	7600	
486.24	8206.2	
486.44	8727.1	
486.63	6147.3	
486.83	6941.2	
487.03	8129.1	
487.23	8396	
487.43	6324.8	
487.63	8810.4	
487.83	8488.1	
488.02	9497.8	
488.22	7306.5	
488.42	7980.3	
488.62	9407.7	
488.82	8262.9	
489.02	6945.3	
489.22	7062.1	
489.41	9244.5	
489.61	8876.6	
489.81	6745.3	
490.01	6705.7	
490.21	9093	
490.41	9802.3	
490.61	6735.8	
490.8	6853.9	
491	8684.1	
491.2	7940.7	
491.4	7535.2	
491.6	6582.2	
491.8	8600.8	
491.99	8843.8	
492.19	6348	
492.39	6731	
492.59	9148.3	
492.79	9095.7	
492.99	7631.4	
493.18	6724.8	
493.38	9198.1	
493.58	9966.8	
493.78	7407.5	
493.98	7102.4	
494.18	9037	
494.37	8464.9	
494.57	7651.9	
494.77	7643.7	
494.97	9196.1	
495.17	9472.5	
495.37	7078.5	
495.56	7442.3	
495.76	9609.8	
495.96	9282.8	
496.16	8494.3	
496.36	7303.7	
496.55	9540.1	
496.75	9065	
496.95	7779.6	
497.15	7559.1	
497.35	9514.9	
497.54	9558.6	
497.74	7398.6	
497.94	9226.1	
498.14	10093	
498.34	10067	
498.53	7089.4	
498.73	7886.7	
498.93	8860.2	
499.13	9535.3	
499.33	7692.2	
499.52	8396.7	
499.72	9454.1	
499.92	9843.9	
500.12	7378.8	
500.32	7661.5	
500.51	9749.7	
500.71	9519.6	
500.91	8523	
501.11	8030.1	
501.31	9694.4	
501.5	10089	
501.7	8819.9	
501.9	7738.6	
502.1	9505.3	
502.29	9805	
502.49	8256	
502.69	8702.5	
502.89	9727.9	
503.09	9650.7	
503.28	7189.7	
503.48	7354.9	
503.68	8832.2	
503.88	8908.7	
504.07	8374.1	
504.27	7842.4	
504.47	9225.4	
504.67	9467.8	
504.86	8233.5	
505.06	7909.9	
505.26	8997.4	
505.46	10824	
505.65	7822.6	
505.85	8004.8	
506.05	8827.4	
506.25	9389.3	
506.44	7068.9	
506.64	8131.1	
506.84	8805.6	
507.04	9688.9	
507.23	7274.4	
507.43	7775.5	
507.63	10753	
507.83	8979.7	
508.02	7793.2	
508.22	7398.6	
508.42	11035	
508.62	8713.4	
508.81	7603.4	
509.01	8237.6	
509.21	8455.4	
509.4	8740.7	
509.6	7745.4	
509.8	7115.3	
510	8759.8	
510.19	10208	
510.39	7140.6	
510.59	7140.6	
510.79	8676.6	
510.98	10047	
511.18	7316	
511.38	7400.7	
511.57	9463	
511.77	9391.3	
511.97	8109.3	
512.17	7033.4	
512.36	9428.2	
512.56	9351.7	
512.76	7135.1	
512.95	6972.7	
513.15	9635	
513.35	8059.4	
513.55	8041	
513.74	7192.5	
513.94	9544.9	
514.14	8903.2	
514.33	8165.3	
514.53	7971.4	
514.73	8880	
514.92	9149.6	
515.12	7419.1	
515.32	7224.6	
515.51	9198.1	
515.71	9841.2	
515.91	9121	
516.11	7413.6	
516.3	11060	
516.5	8817.2	
516.7	7916.8	
516.89	8532.5	
517.09	9019.9	
517.29	8876.6	
517.48	8340.7	
517.68	7645.1	
517.88	8704.5	
518.07	9371.5	
518.27	8082	
518.47	7144.7	
518.66	9931.3	
518.86	8602.8	
519.06	6995.9	
519.25	7454.6	
519.45	8839	
519.65	10417	
519.84	8181.6	
520.04	8881.4	
520.24	10732	
520.43	9565.4	
520.63	7877.2	
520.83	7698.3	
521.02	8771.5	
521.22	9417.9	
521.42	8060.8	
521.61	8615.1	
521.81	8912.1	
522.01	9121.7	
522.2	8039.6	
522.4	7740.6	
522.6	9588.6	
522.79	8348.9	
522.99	7727	
523.18	7124.9	
523.38	9339.4	
523.58	9337.4	
523.77	9019.3	
523.97	7055.9	
524.17	11361	
524.36	10430	
524.56	8631.5	
524.76	8234.9	
524.95	9448	
525.15	9039.7	
525.34	8021.9	
525.54	7919.5	
525.74	9869.8	
525.93	8828.8	
526.13	9219.3	
526.33	7961.8	
526.52	10116	
526.72	9618.6	
526.91	9196.7	
527.11	8462.2	
527.31	10094	
527.5	10636	
527.7	8304.5	
527.89	7338.6	
528.09	9087.5	
528.29	9737.4	
528.48	8854.7	
528.68	8432.2	
528.87	10075	
529.07	10203	
529.27	8412.4	
529.46	7869.7	
529.66	9797.5	
529.85	10245	
530.05	7645.8	
530.25	8532.5	
530.44	11162	
530.64	9671.9	
530.83	8020.5	
531.03	8310	
531.23	10023	
531.42	9975.7	
531.62	9084.1	
531.81	8155	
532.01	10206	
532.21	10777	
532.4	7922.2	
532.6	8407.6	
532.79	11234	
532.99	10337	
533.18	8492.9	
533.38	9483.5	
533.58	9829.6	
533.77	10646	
533.97	8393.3	
534.16	9245.2	
534.36	10877	
534.55	9886.9	
534.75	9475.3	
534.95	8598.1	
535.14	10824	
535.34	9923.8	
535.53	8198	
535.73	10204	
535.92	11396	
536.12	10101	
536.31	8248.5	
536.51	9455.5	
536.71	10461	
536.9	9880.1	
537.1	8443.8	
537.29	8626.7	
537.49	10919	
537.68	9851.4	
537.88	8975.6	
538.07	8155.7	
538.27	10096	
538.46	11127	
538.66	8101.1	
538.86	8495	
539.05	10198	
539.25	10641	
539.44	8914.1	
539.64	8418.5	
539.83	10038	
540.03	11103	
540.22	8401.5	
540.42	8507.9	
540.61	10289	
540.81	10394	
541	8862.2	
541.2	9527.2	
541.39	9770.2	
541.59	10193	
541.78	9336	
541.98	8350.9	
542.18	9448	
542.37	9399.5	
542.57	8759.2	
542.76	9318.9	
542.96	9476.6	
543.15	10304	
543.35	8669.7	
543.54	7948.8	
543.74	10587	
543.93	9980.4	
544.13	8561.2	
544.32	9695.8	
544.52	10259	
544.71	9526.5	
544.91	7620.5	
545.1	8910	
545.3	9526.5	
545.49	10254	
545.69	7600.7	
545.88	8241.7	
546.08	11166	
546.27	10761	
546.47	8867	
546.66	8070.4	
546.86	10418	
547.05	11120	
547.24	8272.4	
547.44	8186.4	
547.63	9344.9	
547.83	10561	
548.02	8582.4	
548.22	8678.6	
548.41	9097.1	
548.61	10615	
548.8	7991.2	
549	7985	
549.19	9891	
549.39	10185	
549.58	7677.8	
549.78	8363.9	
549.97	10348	
550.17	9674.6	
550.36	9139.4	
550.55	10128	
550.75	9761.3	
550.94	10641	
551.14	7952.3	
551.33	8327	
551.53	9092.3	
551.72	10076	
551.92	8456.1	
552.11	8202.1	
552.31	10130	
552.5	10213	
552.69	9924.5	
552.89	7819.1	
553.08	10156	
553.28	9846.6	
553.47	8193.9	
553.67	9343.5	
553.86	10822	
554.06	9034.3	
554.25	7307.8	
554.44	7946.1	
554.64	11488	
554.83	10989	
555.03	7886	
555.22	8372.1	
555.42	10329	
555.61	9929.2	
555.8	8112	
556	8391.2	
556.19	9002.2	
556.39	10360	
556.58	8181.6	
556.78	8130.4	
556.97	9833.7	
557.16	9522.4	
557.36	9441.8	
557.55	7773.4	
557.75	8815.1	
557.94	10677	
558.13	7917.4	
558.33	7667.6	
558.52	10478	
558.72	9293	
558.91	7818.5	
559.1	8017.8	
559.3	9021.3	
559.49	8714.1	
559.69	7368.6	
559.88	8325	
560.07	9830.2	
560.27	10202	
560.46	8570.7	
560.66	8669.7	
560.85	9492.3	
561.04	8825.4	
561.24	7788.4	
561.43	7907.2	
561.63	9030.9	
561.82	9374.9	
562.01	9239.1	
562.21	8198	
562.4	9684.8	
562.59	10707	
562.79	8043.7	
562.98	7712.7	
563.18	9652.8	
563.37	11183	
563.56	8448.6	
563.76	7661.5	
563.95	9138.7	
564.14	9067.7	
564.34	8049.2	
564.53	7752.2	
564.73	9646.6	
564.92	10081	
565.11	8260.1	
565.31	7475.1	
565.5	10268	
565.69	9185.1	
565.89	7726.3	
566.08	8013	
566.27	10154	
566.47	10575	
566.66	8738.7	
566.85	7333.1	
567.05	9729.2	
567.24	9034.3	
567.44	7647.1	
567.63	9075.9	
567.82	9946.3	
568.02	9687.6	
568.21	7694.2	
568.4	8170	
568.6	9559.9	
568.79	9377	
568.98	7505.1	
569.18	7688.1	
569.37	9448	
569.56	11594	
569.76	8015.1	
569.95	8997.4	
570.14	9871.2	
570.34	9802.9	
570.53	7509.2	
570.72	7349.5	
570.91	10253	
571.11	9351	
571.3	7950.2	
571.49	8839	
571.69	9378.3	
571.88	8940.1	
572.07	8365.3	
572.27	8481.3	
572.46	8847.2	
572.65	9963.4	
572.85	7712	
573.04	7989.1	
573.23	10161	
573.43	9388.6	
573.62	7347.4	
573.81	8070.4	
574	9435	
574.2	9223.4	
574.39	7732.4	
574.58	7858.7	
574.78	10283	
574.97	9536	
575.16	8329.1	
575.36	8413.7	
575.55	9923.1	
575.74	10103	
575.93	7430	
576.13	8530.5	
576.32	9277.3	
576.51	9875.3	
576.71	7744.7	
576.9	9222	
577.09	10361	
577.28	9755.2	
577.48	8342.7	
577.67	7256.6	
577.86	9381.1	
578.05	9661	
578.25	8013.7	
578.44	8083.3	
578.63	9574.3	
578.83	10681	
579.02	7360.4	
579.21	8932.6	
579.4	9719.7	
579.6	9402.2	
579.79	8153.6	
579.98	10417	
580.17	10166	
580.37	10091	
580.56	7599.3	
580.75	8426.7	
580.94	10474	
581.14	10491	
581.33	8843.8	
581.52	7815	
581.71	10020	
581.91	10680	
582.1	7577.5	
582.29	8094.3	
582.48	9718.3	
582.68	9584.5	
582.87	8600.8	
583.06	8254.7	
583.25	10068	
583.45	9353.8	
583.64	8943.5	
583.83	9721.7	
584.02	9547.6	
584.21	10070	
584.41	8959.9	
584.6	8181	
584.79	9766.1	
584.98	10548	
585.18	7789.8	
585.37	7771.4	
585.56	9256.8	
585.75	10027	
585.94	7899.7	
586.14	8619.2	
586.33	10629	
586.52	9697.1	
586.71	8504.5	
586.91	8097.7	
587.1	9024.7	
587.29	10118	
587.48	8065.6	
587.67	7884	
587.87	9929.2	
588.06	9987.3	
588.25	9272.5	
588.44	8454	
588.63	9486.2	
588.83	10077	
589.02	7887.4	
589.21	7728.4	
589.4	9188.6	
589.59	9022	
589.78	6817	
589.98	7034.8	
590.17	8488.1	
590.36	9185.8	
590.55	6294.8	
590.74	7205.4	
590.94	10359	
591.13	8866.3	
591.32	6948.8	
591.51	6412.2	
591.7	9254.8	
591.89	8742.8	
592.09	6599.9	
592.28	7102.4	
592.47	8060.8	
592.66	9904.7	
592.85	6556.2	
593.05	6819.7	
593.24	8587.1	
593.43	9448.6	
593.62	6906.4	
593.81	7400	
594	8600.1	
594.19	9002.9	
594.39	6881.9	
594.58	6864.8	
594.77	9126.4	
594.96	9787.2	
595.15	6830.7	
595.34	7557	
595.54	9136.7	
595.73	8221.2	
595.92	6147.3	
596.11	7321.5	
596.3	9558.6	
596.49	8219.9	
596.68	7085.3	
596.88	7542	
597.07	9288.9	
597.26	8160.5	
597.45	6660	
597.64	7936.6	
597.83	8458.8	
598.02	9128.5	
598.22	6789.7	
598.41	7522.2	
598.6	8929.1	
598.79	8351.6	
598.98	6800.6	
599.17	7780.9	
599.36	8955.1	
599.55	10222	
599.74	8999.5	
599.94	8758.5	
600.13	9478	
600.32	8252.6	
600.51	6690	
600.7	6794.5	
600.89	10204	
601.08	10271	
601.27	6655.2	
601.47	7675.1	
601.66	9550.4	
601.85	10132	
602.04	7335.1	
602.23	7602.1	
602.42	8642.4	
602.61	9252	
602.8	7369.3	
602.99	7105.8	
603.18	8894.3	
603.37	9168.1	
603.57	7792.5	
603.76	8357.8	
603.95	10023	
604.14	9550.4	
604.33	7242.3	
604.52	7611.6	
604.71	9215.9	
604.9	8791.9	
605.09	8184.4	
605.28	8027.4	
605.47	9747.6	
605.66	9467.1	
605.86	7842.4	
606.05	7232.7	
606.24	9824.8	
606.43	8355.7	
606.62	7615.7	
606.81	8381	
607	9646.6	
607.19	8985.1	
607.38	6964.5	
607.57	7215.7	
607.76	8748.2	
607.95	8239.7	
608.14	7681.9	
608.33	8233.5	
608.52	8727.8	
608.72	9672.6	
608.91	6939.2	
609.1	6822.5	
609.29	8915.5	
609.48	8385.7	
609.67	7833.5	
609.86	6888	
610.05	8435.6	
610.24	8894.3	
610.43	6746	
610.62	6375.3	
610.81	10005	
611	9751.7	
611.19	6893.5	
611.38	7611.6	
611.57	9079.3	
611.76	10413	
611.95	6672.3	
612.14	6539.8	
612.33	8996.7	
612.52	8328.4	
612.71	7278.5	
612.9	6393.8	
613.09	7993.9	
613.28	10341	
613.47	6963.8	
613.66	7979.6	
613.85	9013.8	
614.04	8528.4	
614.24	7070.3	
614.43	6187.6	
614.62	9257.5	
614.81	9079.3	
615	7640.3	
615.19	7664.2	
615.38	8458.1	
615.57	8736.6	
615.76	7504.4	
615.95	8374.1	
616.14	9243.2	
616.33	8791.9	
616.52	7761.1	
616.71	8124.3	
616.9	9172.2	
617.09	8964	
617.28	7111.9	
617.47	8400.8	
617.66	8280.6	
617.85	8335.9	
618.04	8070.4	
618.22	7421.8	
618.41	8573.5	
618.6	9518.3	
618.79	7400.7	
618.98	7037.5	
619.17	9798.2	
619.36	8194.6	
619.55	7192.5	
619.74	7423.2	
619.93	9092.3	
620.12	8481.3	
620.31	7878.5	
620.5	8041	
620.69	9749	
620.88	10021	
621.07	8759.2	
621.26	7750.2	
621.45	9404.3	
621.64	9312.8	
621.83	7844.4	
622.02	6980.8	
622.21	9291	
622.4	9150.3	
622.59	8453.3	
622.78	8131.8	
622.97	8638.3	
623.16	9715.6	
623.35	7784.3	
623.54	6916.7	
623.72	8915.5	
623.91	8968.1	
624.1	8103.1	
624.29	6653.2	
624.48	10209	
624.67	9306.7	
624.86	7890.8	
625.05	6965.8	
625.24	10281	
625.43	8658.8	
625.62	9650.7	
625.81	7217	
626	9593.4	
626.19	8855.4	
626.38	7897.7	
626.56	7325.6	
626.75	8760.5	
626.94	9520.3	
627.13	7910.6	
627.32	6578.1	
627.51	9301.9	
627.7	10664	
627.89	6612.2	
628.08	7860.8	
628.27	8383	
628.46	8611	
628.65	6911.2	
628.83	6565.8	
629.02	9198.8	
629.21	8524.3	
629.4	7441	
629.59	7570	
629.78	8462.9	
629.97	9477.3	
630.16	7750.9	
630.35	7025.2	
630.54	9858.9	
630.72	9620	
630.91	7149.5	
631.1	7759.8	
631.29	8984.4	
631.48	9200.2	
631.67	7894.2	
631.86	7228	
632.05	8605.6	
632.24	8774.9	
632.42	6879.8	
632.61	7623.2	
632.8	8809.7	
632.99	8411.7	
633.18	7489.4	
633.37	7923.6	
633.56	9108	
633.75	8909.3	
633.93	7587.7	
634.12	7234.8	
634.31	9970.9	
634.5	9538.8	
634.69	7279.2	
634.88	7765.9	
635.07	8839.7	
635.25	9501.2	
635.44	8185.7	
635.63	8423.3	
635.82	8667	
636.01	8228.7	
636.2	8144.8	
636.39	7815	
636.57	9962	
636.76	9564	
636.95	7133.8	
637.14	8600.1	
637.33	9239.8	
637.52	10215	
637.7	6861.4	
637.89	7847.8	
638.08	8746.9	
638.27	10308	
638.46	7991.9	
638.65	8411	
638.83	10281	
639.02	8712.7	
639.21	7866.2	
639.4	8425.3	
639.59	9134.6	
639.78	8673.1	
639.96	7090.8	
640.15	7175.4	
640.34	8940.1	
640.53	9109.4	
640.72	6873	
640.91	7226.6	
641.09	8342.7	
641.28	9757.9	
641.47	7168.6	
641.66	8101.8	
641.85	9006.3	
642.03	9351	
642.22	7800.7	
642.41	7222.5	
642.6	8532.5	
642.79	7870.3	
642.97	7034.8	
643.16	7780.2	
643.35	8415.8	
643.54	8314.8	
643.73	6884.6	
643.91	7711.3	
644.1	8041	
644.29	8716.8	
644.48	7058.7	
644.67	7012.2	
644.85	8213	
645.04	8488.1	
645.23	6505.7	
645.42	6842.9	
645.6	8013	
645.79	9155.8	
645.98	6700.3	
646.17	5718.6	
646.36	7649.8	
646.54	8292.9	
646.73	7501.7	
646.92	6255.2	
647.11	7942.7	
647.29	8921	
647.48	6257.2	
647.67	6063.4	
647.86	9232.9	
648.05	9175.6	
648.23	6621.8	
648.42	8034.2	
648.61	8541.4	
648.8	8286.8	
648.98	6341.2	
649.17	6673.6	
649.36	7917.4	
649.55	7421.2	
649.73	6418.3	
649.92	7182.2	
650.11	7834.2	
650.3	8129.1	
650.48	6565.8	
650.67	6284.5	
650.86	8471.1	
651.05	7350.8	
651.23	6391	
651.42	6460	
651.61	7838.3	
651.79	7918.1	
651.98	6677.1	
652.17	6347.3	
652.36	8330.5	
652.54	7406.1	
652.73	6366.5	
652.92	6181.5	
653.11	8419.2	
653.29	8419.2	
653.48	5657.2	
653.67	6608.8	
653.85	8224	
654.04	9152.4	
654.23	6862.7	
654.42	6427.2	
654.6	7650.5	
654.79	8310	
654.98	5801.9	
655.16	6402.6	
655.35	7206.8	
655.54	7159	
655.73	5917.3	
655.91	5803.3	
656.1	8278.6	
656.29	7125.6	
656.47	5412.1	
656.66	7176.8	
656.85	7485.3	
657.03	7522.9	
657.22	6059.3	
657.41	6171.2	
657.59	7631.4	
657.78	7413.6	
657.97	5724.8	
658.16	6494.8	
658.34	8306.6	
658.53	8759.8	
658.72	7422.5	
658.9	7987.1	
659.09	7648.5	
659.28	7884.7	
659.46	6249	
659.65	6203.3	
659.84	7585	
660.02	8036.2	
660.21	6095.4	
660.4	6137.1	
660.58	8550.3	
660.77	7950.2	
660.96	6772.6	
661.14	5764.3	
661.33	9125.1	
661.52	8987.2	
661.7	5717.2	
661.89	9420	
662.08	7545.4	
662.26	7102.4	
662.45	6089.3	
662.64	6207.4	
662.82	8189.1	
663.01	7345.4	
663.2	6232	
663.38	6898.2	
663.57	8115.4	
663.75	8079.2	
663.94	6482.5	
664.13	7805.5	
664.31	7496.9	
664.5	8252.6	
664.69	6889.4	
664.87	7344	
665.06	7247.1	
665.25	7969.3	
665.43	7547.4	
665.62	7724.3	
665.8	8401.5	
665.99	7718.1	
666.18	6460.7	
666.36	6619.7	
666.55	8353.7	
666.74	8211.7	
666.92	6066.8	
667.11	7780.2	
667.29	7625.3	
667.48	8271.1	
667.67	7309.2	
667.85	6572.6	
668.04	7780.2	
668.22	7725.6	
668.41	6543.3	
668.6	6690.7	
668.78	7388.4	
668.97	7767.3	
669.15	7015.7	
669.34	5859.2	
669.53	7494.9	
669.71	7935.2	
669.9	6014.9	
670.08	6750.8	
670.27	7509.2	
670.46	8176.2	
670.64	6939.9	
670.83	7249.1	
671.01	7363.1	
671.2	8005.5	
671.38	6015.6	
671.57	6044.9	
671.76	8721.6	
671.94	9235	
672.13	5972.6	
672.31	7101.7	
672.5	8205.5	
672.69	7551.5	
672.87	6108.4	
673.06	6445	
673.24	8126.3	
673.43	7573.4	
673.61	6812.2	
673.8	6439.5	
673.98	8258.1	
674.17	8464.3	
674.36	7005.4	
674.54	6840.2	
674.73	8048.5	
674.91	8247.2	
675.1	6595.1	
675.28	6182.1	
675.47	7811.6	
675.65	8346.8	
675.84	6388.3	
676.03	6754.2	
676.21	7525.6	
676.4	7032.7	
676.58	7260.7	
676.77	6981.5	
676.95	9045.2	
677.14	7499	
677.32	6062.7	
677.51	5876.3	
677.69	8336.6	
677.88	7163.8	
678.06	5962.3	
678.25	6098.2	
678.44	7820.5	
678.62	7499	
678.81	5827.2	
678.99	6887.3	
679.18	8655.4	
679.36	8160.5	
679.55	6438.1	
679.73	7034.1	
679.92	8171.4	
680.1	7588.4	
680.29	7694.2	
680.47	6356.2	
680.66	7454.6	
680.84	8366	
681.03	5690.6	
681.21	6854.6	
681.4	7494.9	
681.58	7348.8	
681.77	6148.7	
681.95	6021	
682.14	8439	
682.32	8671.1	
682.51	6977.4	
682.69	5917.3	
682.88	7434.8	
683.06	8112.7	
683.25	6813.6	
683.43	7193.8	
683.62	7718.8	
683.8	8118.1	
683.99	7286	
684.17	6515.3	
684.36	8972.2	
684.54	7532.4	
684.73	5644.2	
684.91	5881.1	
685.1	7760.4	
685.28	7181.5	
685.46	6253.8	
685.65	6299.6	
685.83	7793.9	
686.02	7112.6	
686.2	5702.9	
686.39	5887.9	
686.57	7169.3	
686.76	8680	
686.94	5757.5	
687.13	5947.3	
687.31	7790.5	
687.5	7260.7	
687.68	5335	
687.86	6754.9	
688.05	8936.7	
688.23	6780.1	
688.42	6751.5	
688.6	5882.4	
688.79	7195.9	
688.97	7247.1	
689.16	6313.9	
689.34	5198.4	
689.52	8015.7	
689.71	8215.8	
689.89	6640.9	
690.08	5900.2	
690.26	7524.9	
690.45	7425.3	
690.63	6796.5	
690.81	5976.7	
691	7132.4	
691.18	7157.7	
691.37	6115.9	
691.55	8368.7	
691.74	7061.4	
691.92	9111.4	
692.1	6171.9	
692.29	5530.2	
692.47	7212.3	
692.66	6496.8	
692.84	5707.7	
693.02	6516.6	
693.21	6778.1	
693.39	7223.2	
693.58	6450.4	
693.76	5923.4	
693.94	8477.2	
694.13	8297.7	
694.31	5927.5	
694.5	7071.6	
694.68	7149.5	
694.86	7520.8	
695.05	6281.1	
695.23	6727.6	
695.42	8080.6	
695.6	10402	
695.78	7038.2	
695.97	6146.6	
696.15	8022.6	
696.34	7364.5	
696.52	5851.7	
696.7	6679.8	
696.89	7703.1	
697.07	7083.9	
697.25	6413.6	
697.44	8105.9	
697.62	7590.5	
697.81	7974.8	
697.99	6134.3	
698.17	6705	
698.36	6987	
698.54	7626	
698.72	6555.5	
698.91	5470.1	
699.09	7124.9	
699.28	7071	
699.46	6197.2	
699.64	6049	
699.83	6943.3	
700.01	8324.3	
700.19	6894.1	
700.38	5231.9	
700.56	8247.9	
700.74	7109.2	
700.93	5735.7	
701.11	6591.7	
701.29	7758.4	
701.48	8940.1	
701.66	6057.9	
701.84	6113.2	
702.03	7477.8	
702.21	7989.8	
702.39	5627.8	
702.58	6292.7	
702.76	7761.8	
702.94	7911.3	
703.13	5646.2	
703.31	8090.2	
703.49	7021.8	
703.68	8548.9	
703.86	5750	
704.04	6753.5	
704.23	7590.5	
704.41	7963.9	
704.59	5899.5	
704.78	7272.3	
704.96	8796	
705.14	8072.4	
705.33	5739.1	
705.51	6627.9	
705.69	7490.8	
705.87	8329.1	
706.06	6946	
706.24	5767.1	
706.42	7832.8	
706.61	8153	
706.79	6962.4	
706.97	5786.9	
707.16	7267.6	
707.34	7810.3	
707.52	6987	
707.7	6025.8	
707.89	7529	
708.07	7120.1	
708.25	6939.9	
708.44	7135.1	
708.62	7273	
708.8	8561.9	
708.98	7225.2	
709.17	6175.3	
709.35	7810.3	
709.53	7816.4	
709.72	5941.2	
709.9	6075.6	
710.08	8060.1	
710.26	8192.6	
710.45	7544	
710.63	6169.8	
710.81	7722.9	
710.99	7724.9	
711.18	6739.9	
711.36	6361.7	
711.54	7554.3	
711.72	8223.3	
711.91	6309.1	
712.09	5726.1	
712.27	7601.4	
712.45	8284.7	
712.64	6597.2	
712.82	5543.9	
713	7043	
713.18	7167.9	
713.37	5560.2	
713.55	6846.4	
713.73	8015.7	
713.91	6557.6	
714.1	5890	
714.28	5261.2	
714.46	7528.3	
714.64	6614.3	
714.83	4609.3	
715.01	5480.4	
715.19	6649.8	
715.37	6004	
715.55	5087.2	
715.74	5468.1	
715.92	7565.2	
716.1	5536.3	
716.28	6613.6	
716.47	5572.5	
716.65	6229.2	
716.83	6359.6	
717.01	5431.2	
717.19	5537.7	
717.38	8521.6	
717.56	6019.7	
717.74	5686.5	
717.92	4874.8	
718.1	7390.4	
718.29	6531	
718.47	4536.9	
718.65	5292.6	
718.83	7272.3	
719.01	7324.9	
719.2	4567	
719.38	5623	
719.56	7032	
719.74	8578.3	
719.92	5191.6	
720.11	6227.9	
720.29	7008.8	
720.47	6122.1	
720.65	4657.1	
720.83	5538.4	
721.02	6425.2	
721.2	6111.8	
721.38	5666.7	
721.56	4865.3	
721.74	5583.4	
721.92	5849	
722.11	6083.1	
722.29	5782.1	
722.47	7056.6	
722.65	6300.2	
722.83	4851.6	
723.01	5796.4	
723.2	6393.8	
723.38	6683.2	
723.56	4221.5	
723.74	5387.5	
723.92	5880.4	
724.1	7063.4	
724.29	4786.1	
724.47	6049.7	
724.65	5961.6	
724.83	5905	
725.01	4631.8	
725.19	5606	
725.37	5901.6	
725.56	5997.1	
725.74	4567.7	
725.92	4782	
726.1	5906.3	
726.28	6217.6	
726.46	5231.9	
726.64	4970.4	
726.83	6110.5	
727.01	6414.2	
727.19	4397.7	
727.37	5346.6	
727.55	6321.4	
727.73	6866.8	
727.91	4513.7	
728.09	4338.3	
728.28	6883.2	
728.46	7487.4	
728.64	5503.6	
728.82	5500.8	
729	8050.6	
729.18	7275.8	
729.36	4761.5	
729.54	7183.6	
729.72	8466.3	
729.91	6625.9	
730.09	6848.4	
730.27	5522.7	
730.45	6539.8	
730.63	7215	
730.81	6104.3	
730.99	5131.5	
731.17	7740	
731.35	6300.9	
731.53	5745.2	
731.71	5300.1	
731.9	7381.6	
732.08	7705.1	
732.26	5639.4	
732.44	5253	
732.62	7736.5	
732.8	7114.6	
732.98	6033.3	
733.16	4973.2	
733.34	7192.5	
733.52	5928.9	
733.7	5485.1	
733.88	5833.3	
734.07	7034.8	
734.25	6785.6	
734.43	5051	
734.61	6662.7	
734.79	8390.5	
734.97	6615.6	
735.15	5261.2	
735.33	5529.5	
735.51	7008.1	
735.69	6759.7	
735.87	6755.6	
736.05	5796.4	
736.23	6991.1	
736.41	6696.2	
736.59	5607.3	
736.77	5747.3	
736.95	7423.9	
737.13	6834.8	
737.32	5305.6	
737.5	5503.6	
737.68	7972.7	
737.86	6756.9	
738.04	5026.4	
738.22	7033.4	
738.4	6498.9	
738.58	6882.5	
738.76	5813.5	
738.94	4669.4	
739.12	6649.8	
739.3	6597.2	
739.48	6342.6	
739.66	6204.7	
739.84	6964.5	
740.02	7006.1	
740.2	4765.6	
740.38	5197.1	
740.56	7366.5	
740.74	6201.2	
740.92	5881.1	
741.1	5792.3	
741.28	6723.5	
741.46	6545.3	
741.64	5442.8	
741.82	5896.1	
742	6761.7	
742.18	6858	
742.36	5640.1	
742.54	5232.6	
742.72	7352.2	
742.9	6078.4	
743.08	6075.6	
743.26	4814.1	
743.44	7613.7	
743.62	7438.2	
743.8	6227.9	
743.98	5188.9	
744.16	7079.8	
744.34	6843.6	
744.52	6009.4	
744.7	6012.2	
744.88	7215.7	
745.06	6761	
745.24	6120	
745.42	6214.2	
745.6	7325.6	
745.78	7098.3	
745.96	4820.2	
746.14	5190.2	
746.32	8150.9	
746.5	7327.6	
746.68	5751.4	
746.86	5194.3	
747.03	7806.9	
747.21	6013.5	
747.39	5749.3	
747.57	5225.7	
747.75	6924.2	
747.93	7294.9	
748.11	5229.1	
748.29	5035.3	
748.47	8568.7	
748.65	6623.8	
748.83	5965.1	
749.01	5709.7	
749.19	7067.5	
749.37	6218.3	
749.55	5506.3	
749.73	5658.5	
749.91	6750.1	
750.09	6444.3	
750.26	5666	
750.44	4980.7	
750.62	6800.6	
750.8	6782.2	
750.98	4924.7	
751.16	5216.2	
751.34	6822.5	
751.52	6185.5	
751.7	6076.3	
751.88	4846.2	
752.06	7279.8	
752.24	7101.7	
752.42	4781.3	
752.59	5170.4	
752.77	6686.6	
752.95	8013.7	
753.13	5910.4	
753.31	5370.5	
753.49	6378.1	
753.67	6886.6	
753.85	5539.1	
754.03	5119.9	
754.21	7083.2	
754.38	7437.5	
754.56	5327.4	
754.74	4313.7	
754.92	6281.8	
755.1	7045.7	
755.28	4259.1	
755.46	4239.3	
755.64	7658	
755.82	7707.2	
755.99	4427	
756.17	4765.6	
756.35	5056.4	
756.53	6660	
756.71	3351.2	
756.89	4278.9	
757.07	6281.8	
757.25	5279	
757.42	4822.3	
757.6	5859.2	
757.78	6294.8	
757.96	5298.1	
758.14	4594.3	
758.32	4064.5	
758.5	4807.9	
758.67	5695.4	
758.85	4408.6	
759.03	4526	
759.21	5894.1	
759.39	5205.9	
759.57	3908.2	
759.75	5101.5	
759.92	6517.3	
760.1	5724.1	
760.28	5569.1	
760.46	5831.9	
760.64	5553.4	
760.82	5354.8	
760.99	5184.8	
761.17	4484.4	
761.35	6442.9	
761.53	5452.4	
761.71	4689.2	
761.89	5470.1	
762.06	6406	
762.24	5805.3	
762.42	4893.3	
762.6	4605.2	
762.78	5857.9	
762.96	6602.7	
763.13	5243.5	
763.31	4909.7	
763.49	6851.8	
763.67	5855.8	
763.85	5849.7	
764.02	6444.3	
764.2	7030	
764.38	6186.2	
764.56	4788.8	
764.74	5810.8	
764.91	7243.7	
765.09	6011.5	
765.27	4571.7	
765.45	4293.9	
765.63	7230.7	
765.8	7149.5	
765.98	4006.5	
766.16	4333.5	
766.34	5571.2	
766.52	5425.8	
766.69	5347.9	
766.87	4208.6	
767.05	6035.4	
767.23	6803.4	
767.41	4466.6	
767.58	4755.4	
767.76	6574	
767.94	6705.7	
768.12	4546.5	
768.29	5369.8	
768.47	6126.8	
768.65	6845.7	
768.83	4211.3	
769	5400.5	
769.18	5610.1	
769.36	6419	
769.54	5216.2	
769.72	4263.9	
769.89	6578.8	
770.07	6787.7	
770.25	4559.5	
770.43	5818.3	
770.6	7445	
770.78	7864.9	
770.96	4743.1	
771.14	5425.1	
771.31	6491.4	
771.49	5784.8	
771.67	3859.1	
771.85	4179.2	
772.02	5103.5	
772.2	5875.6	
772.38	4859.8	
772.55	4332.1	
772.73	6150.1	
772.91	5893.4	
773.09	4746.5	
773.26	4824.3	
773.44	6094.8	
773.62	5730.2	
773.8	4238.6	
773.97	3970.3	
774.15	6212.9	
774.33	5702.2	
774.5	4201.7	
774.68	4507.6	
774.86	6305	
775.04	5724.8	
775.21	4209.3	
775.39	4313	
775.57	6040.8	
775.74	6455.2	
775.92	4055	
776.1	3895.9	
776.27	5967.1	
776.45	7319.4	
776.63	4181.3	
776.81	3704.8	
776.98	5598.5	
777.16	6692.8	
777.34	4393.6	
777.51	4300.7	
777.69	5573.2	
777.87	5347.9	
778.04	4367	
778.22	5079	
778.4	5410.1	
778.57	6143.2	
778.75	3603.1	
778.93	3971.7	
779.1	5229.8	
779.28	5059.2	
779.46	3667.2	
779.64	4150.6	
779.81	6260.6	
779.99	7165.2	
780.17	5040.7	
780.34	5092.6	
780.52	5720	
780.69	5881.1	
780.87	4523.3	
781.05	4073.4	
781.22	5726.8	
781.4	5816.2	
781.58	4149.9	
781.75	3300	
781.93	5778	
782.11	5143.1	
782.28	5152.7	
782.46	4123.2	
782.64	4994.3	
782.81	6029.2	
782.99	4244.8	
783.17	4222.2	
783.34	5829.9	
783.52	4977.2	
783.69	4446.8	
783.87	5336.3	
784.05	5112.4	
784.22	5122	
784.4	5232.6	
784.58	4538.3	
784.75	6062.7	
784.93	5147.9	
785.1	4126.7	
785.28	4807.9	
785.46	5773.9	
785.63	5105.6	
785.81	4106.2	
785.99	4020.2	
786.16	5261.2	
786.34	5666.7	
786.51	4025.6	
786.69	4420.9	
786.87	4838.7	
787.04	5407.3	
787.22	3787.4	
787.39	4857.8	
787.57	5061.9	
787.75	6322.1	
787.92	5044.8	
788.1	5003.9	
788.27	5218.2	
788.45	4925.4	
788.63	4691.2	
788.8	3344.3	
788.98	5632.6	
789.15	4899.4	
789.33	3534.8	
789.5	4208.6	
789.68	6124.8	
789.86	6227.2	
790.03	4635.9	
790.21	3979.9	
790.38	6023.1	
790.56	5224.4	
790.73	3867.9	
790.91	3915	
791.09	5146.5	
791.26	5928.9	
791.44	4122.6	
791.61	3579.2	
791.79	5111	
791.96	5147.2	
792.14	3705.5	
792.32	3229	
792.49	5098.8	
792.67	5270.8	
792.84	3733.4	
793.02	3476.8	
793.19	5583.4	
793.37	6339.1	
793.54	3241.9	
793.72	3646.7	
793.89	6520.7	
794.07	5188.9	
794.25	4324.6	
794.42	3316.3	
794.6	6174.6	
794.77	5809.4	
794.95	4512.4	
795.12	3944.4	
795.3	5134.9	
795.47	5792.3	
795.65	4382.7	
795.82	4194.2	
796	4879.6	
796.17	6902.3	
796.35	4014.7	
796.52	4792.2	
796.7	5704.3	
796.87	5835.3	
797.05	4990.9	
797.22	4915.8	
797.4	5769.8	
797.57	6782.2	
797.75	4177.9	
797.92	3899.3	
798.1	6075	
798.27	5119.9	
798.45	3351.2	
798.62	3692.5	
798.8	5395.7	
798.97	5915.9	
799.15	4397	
799.32	4200.4	
799.5	4670.7	
799.67	5483.1	
799.85	4514.4	
800.02	3318.4	
800.2	5059.8	
800.37	5440.1	
800.55	4715.8	
800.72	3924.6	
800.9	5926.1	
801.07	6348	
801.25	5361.6	
801.42	4278.9	
801.6	5950.7	
801.77	5651	
801.95	3870.7	
802.12	3824.2	
802.29	5669.5	
802.47	5594.4	
802.64	4311.7	
802.82	3224.2	
802.99	5001.1	
803.17	6146.6	
803.34	4166.9	
803.52	3729.4	
803.69	6775.4	
803.87	4816.1	
804.04	4169.7	
804.21	4248.2	
804.39	6186.2	
804.56	5265.3	
804.74	3510.2	
804.91	4408.6	
805.09	5082.4	
805.26	5214.8	
805.44	3579.2	
805.61	3969.6	
805.78	5776.6	
805.96	5801.2	
806.13	4339.6	
806.31	4662.5	
806.48	4629.1	
806.66	5182.7	
806.83	4296.6	
807	4207.2	
807.18	5088.5	
807.35	5487.9	
807.53	4204.5	
807.7	3352.5	
807.87	6268.1	
808.05	5076.2	
808.22	4686.4	
808.4	3287.7	
808.57	5174.5	
808.74	4765.6	
808.92	3809.2	
809.09	4932.2	
809.27	4984.1	
809.44	5645.6	
809.61	3381.9	
809.79	3760.8	
809.96	6312.5	
810.14	5927.5	
810.31	3284.3	
810.48	4027.7	
810.66	5216.2	
810.83	5985.5	
811.01	3857.7	
811.18	4582.7	
811.35	5890	
811.53	4568.3	
811.7	4693.3	
811.87	4349.9	
812.05	5115.1	
812.22	4992.3	
812.39	3685.7	
812.57	3643.3	
812.74	5132.9	
812.92	6824.5	
813.09	4079.6	
813.26	4473.4	
813.44	6556.9	
813.61	5031.2	
813.78	3366.9	
813.96	4519.9	
814.13	5120.6	
814.3	4812	
814.48	4910.3	
814.65	4045.4	
814.82	6408.1	
815	4926	
815.17	4184	
815.34	5136.3	
815.52	5004.6	
815.69	5045.5	
815.87	4149.2	
816.04	3532.7	
816.21	5180.7	
816.38	4497.3	
816.56	3977.2	
816.73	3713	
816.9	6483.2	
817.08	5950.7	
817.25	3726.6	
817.42	4787.5	
817.6	4722.6	
817.77	5180.7	
817.94	4224.3	
818.12	3696.6	
818.29	4856.4	
818.46	7780.9	
818.64	3852.2	
818.81	3648.1	
818.98	4799.8	
819.16	6984.9	
819.33	4515.8	
819.5	4203.8	
819.67	5526.1	
819.85	6251.8	
820.02	4033.1	
820.19	4299.4	
820.37	5341.1	
820.54	4952	
820.71	4238.6	
820.88	5280.3	
821.06	5393.7	
821.23	4966.3	
821.4	4271.4	
821.58	4193.6	
821.75	5918.6	
821.92	5298.8	
822.09	3310.9	
822.27	3449.5	
822.44	5115.8	
822.61	5089.2	
822.79	3426.9	
822.96	6568.5	
823.13	5640.1	
823.3	4883	
823.48	3855	
823.65	3550.5	
823.82	5854.5	
823.99	4704.2	
824.17	5053	
824.34	3614	
824.51	6812.9	
824.68	5236	
824.86	3753.2	
825.03	4284.4	
825.2	5147.2	
825.37	6270.2	
825.55	3670.6	
825.72	4180.6	
825.89	6902.3	
826.06	6345.3	
826.24	4045.4	
826.41	4094.6	
826.58	6300.9	
826.75	5438.7	
826.92	3203	
827.1	3549.8	
827.27	8627.4	
827.44	6836.8	
827.61	3860.4	
827.79	4670.1	
827.96	4869.4	
828.13	5319.9	
828.3	4027	
828.47	3426.9	
828.65	5364.3	
828.82	5351.3	
828.99	5289.2	
829.16	4541	
829.34	5756.8	
829.51	5541.8	
829.68	4190.1	
829.85	4349.9	
830.02	6063.4	
830.2	5828.5	
830.37	3232.4	
830.54	5105.6	
830.71	6620.4	
830.88	5100.1	
831.05	3346.4	
831.23	3796.3	
831.4	6326.2	
831.57	7160.4	
831.74	3857	
831.91	3419.4	
832.09	5366.4	
832.26	5838.8	
832.43	4021.5	
832.6	4572.4	
832.77	5399.8	
832.94	6244.3	
833.12	3159.3	
833.29	3911.6	
833.46	5581.4	
833.63	7339.2	
833.8	4382.7	
833.97	4007.9	
834.15	5799.8	
834.32	5523.4	
834.49	4118.5	
834.66	4295.3	
834.83	6038.8	
835	4833.2	
835.17	3925.3	
835.35	3900.7	
835.52	5692	
835.69	5533.6	
835.86	4074.8	
836.03	3339.6	
836.2	5668.8	
836.37	5369.8	
836.55	4038.6	
836.72	3768.3	
836.89	5262.6	
837.06	5736.4	
837.23	4111	
837.4	4530.1	
837.57	6638.8	
837.75	7358.4	
837.92	3677.5	
838.09	3949.2	
838.26	5292	
838.43	6071.5	
838.6	4275.5	
838.77	3724.6	
838.94	6946	
839.11	6684.6	
839.29	3968.3	
839.46	3169.6	
839.63	5713.2	
839.8	5483.1	
839.97	3916.4	
840.14	3846.1	
840.31	5498.1	
840.48	5785.5	
840.65	3251.5	
840.82	3842.7	
841	5806	
841.17	5645.6	
841.34	3599	
841.51	3621.5	
841.68	5686.5	
841.85	5494	
842.02	3756.7	
842.19	3055.6	
842.36	5523.4	
842.53	5524.1	
842.7	3543.7	
842.87	4442	
843.05	7281.9	
843.22	5411.4	
843.39	3347.7	
843.56	3657	
843.73	5194.3	
843.9	5866.1	
844.07	5871.5	
844.24	4844.8	
844.41	8472.4	
844.58	4954	
844.75	3449.5	
844.92	3789.4	
845.09	5786.2	
845.26	5711.8	
845.43	3556	
845.6	3755.3	
845.77	5849.7	
845.94	5425.8	
846.12	3997	
846.29	4211.3	
846.46	5954.1	
846.63	5747.3	
846.8	3597.6	
846.97	4186	
847.14	6213.5	
847.31	5669.5	
847.48	4007.2	
847.65	4466.6	
847.82	6032.6	
847.99	5979.4	
848.16	4773.1	
848.33	4433.9	
848.5	5228.5	
848.67	6300.2	
848.84	3582.6	
849.01	3722.5	
849.18	5145.2	
849.35	4817.5	
849.52	4424.3	
849.69	3518.4	
849.86	5979.4	
850.03	6154.1	
850.2	3608.5	
850.37	4376.5	
850.54	6122.7	
850.71	5431.9	
850.88	4300.7	
851.05	3501.3	
851.22	5708.4	
851.39	6338.5	
851.56	3322.5	
851.73	4136.2	
851.9	5014.1	
852.07	5986.2	
852.24	3900.7	
852.41	3538.9	
852.58	5563.6	
852.75	5091.9	
852.92	3979.2	
853.09	3415.3	
853.26	5371.1	
853.43	6160.3	
853.6	3517	
853.77	3035.8	
853.94	6313.9	
854.11	5042.1	
854.28	5283.8	
854.44	3810.6	
854.61	6786.3	
854.78	5798.5	
854.95	3525.2	
855.12	4395.6	
855.29	4614.1	
855.46	6385.6	
855.63	3552.5	
855.8	4926.7	
855.97	5310.4	
856.14	6111.1	
856.31	5043.5	
856.48	3882.9	
856.65	5301.5	
856.82	5003.9	
856.99	3444.7	
857.16	3797.6	
857.33	7015	
857.49	5337	
857.66	3829.7	
857.83	4103.4	
858	5344.5	
858.17	5543.2	
858.34	3380.5	
858.51	3561.4	
858.68	6460	
858.85	6506.4	
859.02	4123.2	
859.19	4430.4	
859.36	5053.7	
859.52	5094	
859.69	3562.8	
859.86	4265.2	
860.03	5124.7	
860.2	6386.2	
860.37	3224.9	
860.54	3583.3	
860.71	5988.3	
860.88	6442.9	
861.05	4066.6	
861.21	4489.8	
861.38	6433.4	
861.55	4949.9	
861.72	3203	
861.89	3984.7	
862.06	6022.4	
862.23	6532.3	
862.4	3351.2	
862.56	3698.6	
862.73	5813.5	
862.9	5448.3	
863.07	4171	
863.24	3200.3	
863.41	4881.7	
863.58	5079	
863.75	3616.7	
863.91	4103.4	
864.08	6440.9	
864.25	5857.9	
864.42	4394.3	
864.59	4974.5	
864.76	6744	
864.93	5011.4	
865.09	3448.1	
865.26	3796.3	
865.43	6174.6	
865.6	6681.2	
865.77	3074	
865.94	3490.4	
866.1	6337.8	
866.27	5995.8	
866.44	5340.4	
866.61	3373.7	
866.78	5465.3	
866.95	5890	
867.11	3401.7	
867.28	3148.4	
867.45	6085.2	
867.62	5117.9	
867.79	4158.7	
867.96	3489.7	
868.12	5049.6	
868.29	6056.5	
868.46	3012.6	
868.63	4755.4	
868.8	6161	
868.97	5963	
869.13	3744.4	
869.3	3693.9	
869.47	5873.6	
869.64	6016.2	
869.81	3579.8	
869.97	3611.9	
870.14	5718.6	
870.31	6451.8	
870.48	3430.3	
870.65	4472.8	
870.81	5322	
870.98	5287.2	
871.15	4044.1	
871.32	3669.3	
871.48	5833.3	
871.65	6499.6	
871.82	3541.6	
871.99	3916.4	
872.16	6939.9	
872.32	6232	
872.49	3554.6	
872.66	3580.5	
872.83	5927.5	
872.99	5201.8	
873.16	4043.4	
873.33	3511.6	
873.5	5595.7	
873.67	5608.7	
873.83	3721.8	
874	4825.7	
874.17	5728.9	
874.34	6888	
874.5	4577.9	
874.67	4491.9	
874.84	6451.8	
875.01	5039.4	
875.17	5015.5	
875.34	3479.5	
875.51	5641.5	
875.68	6828.6	
875.84	4315.1	
876.01	5257.1	
876.18	5937.1	
876.34	5900.9	
876.51	3594.2	
876.68	3480.2	
876.85	5376.6	
877.01	6227.9	
877.18	5058.5	
877.35	3536.8	
877.52	5537	
877.68	4954	
877.85	3453.6	
878.02	3465.2	
878.18	5517.9	
878.35	5213.4	
878.52	2859.6	
878.69	3971	
878.85	5976	
879.02	5965.1	
879.19	5005.9	
879.35	3885.7	
879.52	5970.5	
879.69	6105.7	
879.86	3043.3	
880.02	3971.7	
880.19	5504.3	
880.36	6650.4	
880.52	4083.6	
880.69	4231.1	
880.86	6036.7	
881.02	6112.5	
881.19	3973.1	
881.36	3878.9	
881.52	5920.7	
881.69	5194.3	
881.86	3870.7	
882.02	3784.6	
882.19	6255.9	
882.36	7281.9	
882.52	3619.4	
882.69	5053.7	
882.86	5722	
883.02	5554.1	
883.19	4381.3	
883.36	4050.2	
883.52	6025.1	
883.69	6962.4	
883.86	3641.3	
884.02	3184.6	
884.19	6022.4	
884.36	5528.8	
884.52	4050.2	
884.69	3747.1	
884.86	5255.8	
885.02	6643.6	
885.19	3966.2	
885.36	4118.5	
885.52	5504.3	
885.69	5717.2	
885.86	5163.6	
886.02	4567	
886.19	6024.4	
886.35	5470.1	
886.52	3953.9	
886.69	4999.8	
886.85	5103.5	
887.02	6369.9	
887.19	6369.9	
887.35	6369.9	
887.52	6369.9	
887.68	6369.9	
887.85	6369.9	
888.02	6369.9	
888.18	6369.9	
888.35	6369.9	
888.51	6369.9	
888.68	6369.9	
888.85	6369.9	
889.01	6369.9	
889.18	6369.9	
889.35	6369.9	
889.51	6369.9	
889.68	6369.9	
889.84	6369.9	
890.01	6369.9	
890.17	6369.9	
890.34	6369.9	
890.51	6369.9	
890.67	6369.9	
890.84	6369.9	
891	6369.9	
891.17	6369.9	
891.34	6369.9	
891.5	6369.9	
891.67	6369.9	
891.83	6369.9	
892	6369.9	
892.16	6369.9	
892.33	6369.9	
892.5	6369.9	
892.66	6369.9	
892.83	6369.9	
892.99	6369.9	
893.16	6369.9	
893.32	6369.9	
893.49	6369.9	
893.65	6369.9	
893.82	6369.9	
893.99	6369.9	
894.15	6369.9	
894.32	6369.9	
894.48	6369.9	
894.65	6369.9	
894.81	6369.9	
894.98	6369.9	
895.14	6369.9	
895.31	6369.9	
895.47	6369.9	
895.64	6369.9	
895.81	6369.9	
895.97	6369.9	
896.14	6369.9	
896.3	6369.9	
896.47	6369.9	
896.63	6369.9	
896.8	6369.9	
896.96	6369.9	
897.13	6369.9	
897.29	6369.9	
897.46	6369.9	
897.62	6369.9	
897.79	6369.9	
897.95	6369.9	
898.12	6369.9	
898.28	6369.9	
898.45	6369.9	
898.61	6369.9	
898.78	6369.9	
898.94	6369.9	
899.11	6369.9	
899.27	6369.9	
899.44	6369.9	
899.6	6369.9	
899.77	6369.9	
899.93	6369.9	
900.1	6369.9	
900.26	6369.9	
900.43	6369.9	
900.59	6369.9	
900.76	6369.9	
900.92	6369.9	
901.09	6369.9	
901.25	6369.9	
901.42	6369.9	
901.58	6369.9	
901.75	6369.9	
901.91	6369.9	
902.07	6369.9	
902.24	6369.9	
902.4	6369.9	
902.57	6369.9	
902.73	6369.9	
902.9	6369.9	
903.06	6369.9	
903.23	6369.9	
903.39	6369.9	
903.56	6369.9	
903.72	6369.9	
903.88	6369.9	
904.05	6369.9	
904.21	6369.9	
904.38	6369.9	
904.54	6369.9	
904.71	6369.9	
904.87	6369.9	
905.03	6369.9	
905.2	6369.9	
905.36	6369.9	
905.53	6369.9	
905.69	6369.9	
905.86	6369.9	
906.02	6369.9	
906.18	6369.9	
906.35	6369.9	
906.51	6369.9	
906.68	6369.9	
906.84	6369.9	
907.01	6369.9	
907.17	6369.9	
907.33	6369.9	
907.5	6369.9	
907.66	6369.9	
907.83	6369.9	
907.99	6369.9	
908.15	6369.9	
908.32	6369.9	
908.48	6369.9	
908.65	6369.9	
908.81	6369.9	
908.97	6369.9	
909.14	6369.9	
909.3	6369.9	
909.47	6369.9	
909.63	6369.9	
909.79	6369.9	
909.96	6369.9	
910.12	6369.9	
910.28	6369.9	
910.45	6369.9	
910.61	6369.9	
910.78	6369.9	
910.94	6369.9	
911.1	6369.9	
911.27	6369.9	
911.43	6369.9	
911.59	6369.9	
911.76	6369.9	
911.92	6369.9	
912.08	6369.9	
912.25	6369.9	
912.41	6369.9	
912.57	6369.9	
912.74	6369.9	
912.9	6369.9	
913.07	6369.9	
913.23	6369.9	
913.39	6369.9	
913.56	6369.9	
913.72	6369.9	
913.88	6369.9	
914.05	6369.9	
914.21	6369.9	
914.37	6369.9	
914.54	6369.9	
914.7	6369.9	
914.86	6369.9	
915.03	6369.9	
915.19	6369.9	
