Wavelength	Intensities	
nm	a.u.	
179.22	1452.2	
179.44	1446.9	
179.65	1457.5	
179.86	1436.3	
180.08	1442.5	
180.29	3094.5	
180.51	2484.2	
180.72	4331.5	
180.94	4619.5	
181.15	2266.4	
181.37	2245.3	
181.58	4130.8	
181.79	4189.5	
182.01	2281.4	
182.22	2356.5	
182.44	4276.2	
182.65	3809.2	
182.87	2793.4	
183.08	2579.1	
183.29	4459.8	
183.51	3851.5	
183.72	2359.3	
183.94	3111.5	
184.15	4095.3	
184.37	3973.1	
184.58	2183.8	
184.79	2603.7	
185.01	3957.4	
185.22	4463.9	
185.44	2762	
185.65	2534	
185.86	4260.5	
186.08	3825.6	
186.29	2204.3	
186.51	2301.2	
186.72	3941	
186.94	4422.2	
187.15	2540.2	
187.36	2564.7	
187.58	5215.5	
187.79	4209.3	
188.01	2558.6	
188.22	3670	
188.43	4707.6	
188.65	4309.6	
188.86	2318.3	
189.08	2641.9	
189.29	3975.1	
189.5	3933.5	
189.72	2332.6	
189.93	2450.1	
190.15	4373.8	
190.36	4876.2	
190.57	2562.7	
190.79	2496.5	
191	4321.9	
191.22	4404.5	
191.43	2693.1	
191.64	2312.2	
191.86	4488.5	
192.07	4357.4	
192.29	2347.7	
192.5	2411.8	
192.71	4376.5	
192.93	4061.1	
193.14	2415.2	
193.35	2478.7	
193.57	3991.5	
193.78	4401.1	
194	2068.4	
194.21	2340.1	
194.42	3777.1	
194.64	4095.3	
194.85	2573.6	
195.07	2869.2	
195.28	4055.7	
195.49	3766.9	
195.71	2983.2	
195.92	2319.7	
196.13	4296	
196.35	4154	
196.56	3064.4	
196.78	2551.8	
196.99	4948.6	
197.2	4618.9	
197.42	2765.4	
197.63	2597.5	
197.84	3837.9	
198.06	4148.5	
198.27	2411.1	
198.48	2925.2	
198.7	4012	
198.91	4209.9	
199.13	2581.1	
199.34	2596.1	
199.55	4492.6	
199.77	3623.5	
199.98	2379.7	
200.19	2594.8	
200.41	4159.4	
200.62	3922.5	
200.83	2589.3	
201.05	2810.5	
201.26	4173.1	
201.47	3999.7	
201.69	2379.1	
201.9	2366.8	
202.11	4102.8	
202.33	4616.1	
202.54	2469.2	
202.76	2674	
202.97	4134.8	
203.18	4225	
203.4	2658.9	
203.61	2740.9	
203.82	4209.3	
204.04	3925.3	
204.25	2585.9	
204.46	2553.8	
204.68	4108.9	
204.89	4212.7	
205.1	2581.1	
205.32	2308.1	
205.53	4231.8	
205.74	4344.4	
205.96	2086.9	
206.17	2566.8	
206.38	4261.1	
206.6	4387.4	
206.81	2818	
207.02	2471.9	
207.24	4201.7	
207.45	4441.4	
207.66	2524.5	
207.88	2291.7	
208.09	4233.8	
208.3	4062.5	
208.52	2313.5	
208.73	2511.5	
208.94	4093.2	
209.15	4483.7	
209.37	2529.2	
209.58	2517	
209.79	4342.4	
210.01	4025.6	
210.22	2166.8	
210.43	2239.8	
210.65	4017.4	
210.86	4182.6	
211.07	2455.5	
211.29	2333.3	
211.5	4171.7	
211.71	4100	
211.93	2359.3	
212.14	2383.8	
212.35	4090.5	
212.56	4020.2	
212.78	2609.1	
212.99	2238.4	
213.2	4584.7	
213.42	4025.6	
213.63	2420	
213.84	2458.9	
214.06	3845.4	
214.27	3794.9	
214.48	2442.5	
214.69	2605	
214.91	4418.2	
215.12	4413.4	
215.33	2570.2	
215.55	2778.4	
215.76	4724.7	
215.97	4251.6	
216.18	2495.1	
216.4	2491.7	
216.61	3904.1	
216.82	4304.8	
217.04	2384.5	
217.25	2458.9	
217.46	4385.4	
217.67	4291.2	
217.89	2190.6	
218.1	2236.4	
218.31	4017.4	
218.53	4204.5	
218.74	2495.8	
218.95	2315.6	
219.16	4098.7	
219.38	4530.1	
219.59	2375	
219.8	2590.7	
220.01	4721.9	
220.23	4149.9	
220.44	2809.1	
220.65	2295.1	
220.87	4181.3	
221.08	4463.2	
221.29	2299.9	
221.5	2684.9	
221.72	5004.6	
221.93	3867.2	
222.14	2564.1	
222.35	2873.3	
222.57	4080.9	
222.78	4387.4	
222.99	2504	
223.2	2603.7	
223.42	4162.2	
223.63	4286.4	
223.84	2045.2	
224.05	2071.9	
224.27	4659.8	
224.48	4484.4	
224.69	2952.5	
224.9	2594.8	
225.12	4164.2	
225.33	4093.2	
225.54	2174.9	
225.75	2400.9	
225.97	3898.6	
226.18	4072.7	
226.39	2469.9	
226.6	2359.3	
226.82	3978.5	
227.03	3842	
227.24	2555.9	
227.45	2276	
227.67	4318.5	
227.88	4477.5	
228.09	2855.6	
228.3	2727.2	
228.52	4244.1	
228.73	4028.4	
228.94	2376.3	
229.15	2256.2	
229.36	4143.7	
229.58	4122.6	
229.79	2479.4	
230	2701.3	
230.21	4725.3	
230.43	4057.7	
230.64	2542.2	
230.85	2572.9	
231.06	4414.1	
231.28	4328	
231.49	2263	
231.7	2600.2	
231.91	4322.6	
232.12	4095.9	
232.34	2347.7	
232.55	2502.6	
232.76	4433.2	
232.97	4121.9	
233.18	2348.3	
233.4	2601.6	
233.61	4137.6	
233.82	3884.3	
234.03	2457.6	
234.25	2453.5	
234.46	5073.5	
234.67	4089.8	
234.88	2558.6	
235.09	2428.9	
235.31	4105.5	
235.52	4004.5	
235.73	2512.2	
235.94	2254.8	
236.15	3951.9	
236.37	4648.9	
236.58	2327.2	
236.79	2472.6	
237	4227	
237.21	3778.5	
237.43	2618	
237.64	2201.6	
237.85	5965.1	
238.06	3918.4	
238.27	2620	
238.48	2256.2	
238.7	4310.3	
238.91	4057.7	
239.12	2453.5	
239.33	2621.4	
239.54	3866.6	
239.76	4053.6	
239.97	2521	
240.18	2517	
240.39	4647.5	
240.6	4095.3	
240.82	2680.1	
241.03	2213.9	
241.24	4030.4	
241.45	4429.1	
241.66	2349.7	
241.87	2684.9	
242.09	4495.3	
242.3	4536.3	
242.51	2613.2	
242.72	2452.1	
242.93	4306.9	
243.14	3986	
243.36	2835.1	
243.57	2940.9	
243.78	4511	
243.99	4237.2	
244.2	2483.5	
244.41	2276	
244.63	3770.3	
244.84	4128.7	
245.05	2594.8	
245.26	2476	
245.47	4319.8	
245.68	4300.1	
245.9	3001.6	
246.11	2605	
246.32	3893.2	
246.53	4246.8	
246.74	3696.6	
246.95	2205	
247.16	3947.1	
247.38	4169.7	
247.59	2309.4	
247.8	2499.9	
248.01	3691.8	
248.22	4087.7	
248.43	2309.4	
248.64	2484.9	
248.86	3891.1	
249.07	3987.4	
249.28	2392	
249.49	2573.6	
249.7	4296.6	
249.91	4294.6	
250.12	2253.4	
250.34	2282.8	
250.55	4162.8	
250.76	4021.5	
250.97	2508.8	
251.18	2572.2	
251.39	4350.6	
251.6	4185.4	
251.81	2572.2	
252.03	2557.9	
252.24	3923.2	
252.45	4237.9	
252.66	2236.4	
252.87	2671.9	
253.08	4065.2	
253.29	4873.5	
253.5	2323.1	
253.72	2902.7	
253.93	4028.4	
254.14	4544.4	
254.35	2439.1	
254.56	2465.8	
254.77	4169	
254.98	3923.2	
255.19	2468.5	
255.41	2832.3	
255.62	4280.9	
255.83	4390.2	
256.04	2675.3	
256.25	2521	
256.46	4677.6	
256.67	3923.9	
256.88	2556.5	
257.09	2721.1	
257.31	3738.2	
257.52	3883.6	
257.73	3054.9	
257.94	2439.8	
258.15	4080.2	
258.36	4055	
258.57	2794.1	
258.78	2054.8	
258.99	4369	
259.2	3992.2	
259.41	2379.7	
259.63	2459.6	
259.84	4541.7	
260.05	4590.2	
260.26	2900.6	
260.47	2388.6	
260.68	4397.7	
260.89	4014	
261.1	2810.5	
261.31	2313.5	
261.52	4516.5	
261.73	4521.9	
261.95	2968.9	
262.16	2607.7	
262.37	4382	
262.58	4442	
262.79	2899.2	
263	2426.2	
263.21	4112.3	
263.42	3921.9	
263.63	2635.7	
263.84	2467.1	
264.05	4371	
264.26	4455.7	
264.47	2811.9	
264.69	2624.1	
264.9	4552	
265.11	3953.9	
265.32	2334.7	
265.53	2409.8	
265.74	4173.1	
265.95	3735.5	
266.16	2491	
266.37	2695.1	
266.58	4187.4	
266.79	3936.2	
267	2446.6	
267.21	2276.7	
267.42	3825.6	
267.63	4108.2	
267.84	2476	
268.06	2217.3	
268.27	4325.3	
268.48	4339	
268.69	2466.4	
268.9	2790	
269.11	4142.4	
269.32	3730.7	
269.53	2498.5	
269.74	2392.7	
269.95	4163.5	
270.16	3862.5	
270.37	2538.8	
270.58	2757.9	
270.79	4048.2	
271	4373.8	
271.21	2587.9	
271.42	2556.5	
271.63	4298	
271.84	3760.8	
272.05	2160.6	
272.26	2289.6	
272.47	4119.8	
272.68	4144.4	
272.89	2469.9	
273.11	2680.1	
273.32	3951.9	
273.53	4510.3	
273.74	2605.7	
273.95	2619.4	
274.16	4200.4	
274.37	4022.9	
274.58	2722.4	
274.79	2317.6	
275	4225	
275.21	4317.1	
275.42	3121.8	
275.63	2667.8	
275.84	4329.4	
276.05	4933.6	
276.26	2592.7	
276.47	2471.9	
276.68	4114.4	
276.89	4589.5	
277.1	2690.3	
277.31	2273.9	
277.52	4211.3	
277.73	4514.4	
277.94	2224.8	
278.15	2448	
278.36	4257.7	
278.57	3990.8	
278.78	2479.4	
278.99	2659.6	
279.2	4030.4	
279.41	3913.7	
279.62	3033	
279.83	2282.8	
280.04	4695.3	
280.25	3865.2	
280.46	3001.6	
280.67	2513.5	
280.88	3992.9	
281.09	4397	
281.3	2648.7	
281.51	3029.6	
281.72	3950.5	
281.93	4187.4	
282.14	2444.6	
282.35	2607.7	
282.56	4453.6	
282.77	4273.4	
282.98	2501.3	
283.19	2806.4	
283.4	4930.8	
283.61	4101.4	
283.82	2362.7	
284.03	2902	
284.24	4270.7	
284.45	4311.7	
284.66	2985.3	
284.87	2770.9	
285.08	4433.9	
285.29	4482.3	
285.5	2261	
285.71	2451.4	
285.92	4338.3	
286.12	4758.8	
286.33	2893.8	
286.54	2473.9	
286.75	4286.4	
286.96	4060.4	
287.17	2348.3	
287.38	2782.5	
287.59	4047.5	
287.8	4060.4	
288.01	2426.8	
288.22	2592.7	
288.43	4136.9	
288.64	3741.6	
288.85	2824.1	
289.06	2697.9	
289.27	4371.7	
289.48	4417.5	
289.69	3005.1	
289.9	2710.1	
290.11	4485.1	
290.32	4016.1	
290.53	2760.7	
290.74	2600.2	
290.94	4318.5	
291.15	4308.2	
291.36	2387.2	
291.57	2704	
291.78	4046.1	
291.99	3769.6	
292.2	2385.2	
292.41	2678.7	
292.62	4386.7	
292.83	4254.3	
293.04	3034.4	
293.25	2383.2	
293.46	4002.4	
293.67	4392.2	
293.88	2332	
294.09	2327.2	
294.29	3951.2	
294.5	4140.3	
294.71	2529.2	
294.92	2441.2	
295.13	3992.2	
295.34	4686.4	
295.55	2262.3	
295.76	2187.2	
295.97	4300.1	
296.18	4579.3	
296.39	2321.7	
296.6	2394.1	
296.81	3969.6	
297.01	4331.5	
297.22	2495.1	
297.43	2468.5	
297.64	4075.5	
297.85	3851.5	
298.06	2134	
298.27	2210.4	
298.48	4001.7	
298.69	3935.5	
298.9	2568.2	
299.11	2354.5	
299.31	3928.7	
299.52	3921.2	
299.73	2681.5	
299.94	2611.2	
300.15	4133.5	
300.36	3984	
300.57	2587.3	
300.78	2566.1	
300.99	4017.4	
301.2	4144.4	
301.4	2430.3	
301.61	2488.3	
301.82	4183.3	
302.03	4302.8	
302.24	2751.1	
302.45	2330.6	
302.66	4274.8	
302.87	4309.6	
303.08	2394.8	
303.29	3011.2	
303.49	4078.9	
303.7	3896.6	
303.91	2213.9	
304.12	2889	
304.33	3725.9	
304.54	4207.9	
304.75	2417.3	
304.96	2406.4	
305.16	4298.7	
305.37	4564.2	
305.58	2235.7	
305.79	2244.6	
306	4260.5	
306.21	3790.8	
306.42	2395.4	
306.63	3256.3	
306.83	4046.8	
307.04	4194.9	
307.25	2583.2	
307.46	2535.4	
307.67	3814.7	
307.88	4171	
308.09	2456.2	
308.29	2376.3	
308.5	4134.2	
308.71	4334.2	
308.92	2537.4	
309.13	2293.7	
309.34	4192.9	
309.55	4070.7	
309.75	2813.2	
309.96	2686.3	
310.17	4280.9	
310.38	3876.8	
310.59	2636.4	
310.8	2579.1	
311.01	4034.5	
311.21	4121.9	
311.42	2329.2	
311.63	2364	
311.84	4016.7	
312.05	4092.5	
312.26	2620.7	
312.46	2727.2	
312.67	3977.2	
312.88	3775.1	
313.09	2341.5	
313.3	2352.4	
313.51	4473.4	
313.71	4637.3	
313.92	2362.7	
314.13	2447.3	
314.34	4244.1	
314.55	4112.3	
314.76	2779.8	
314.96	2541.5	
315.17	4285.7	
315.38	4042	
315.59	2368.8	
315.8	2282.8	
316.01	4405.2	
316.21	4521.2	
316.42	2283.5	
316.63	2557.9	
316.84	3981.3	
317.05	4327.4	
317.26	2651.4	
317.46	2463.7	
317.67	4098	
317.88	4210.6	
318.09	2777.7	
318.3	2260.3	
318.5	4065.2	
318.71	4186.7	
318.92	3369.6	
319.13	2674	
319.34	4274.1	
319.54	4379.9	
319.75	2225.5	
319.96	2155.8	
320.17	4182.6	
320.38	4355.3	
320.58	2220	
320.79	2476.7	
321	4389.5	
321.21	4512.4	
321.42	2551.8	
321.62	2223.4	
321.83	3986.7	
322.04	4127.3	
322.25	2484.2	
322.46	2344.9	
322.66	4138.9	
322.87	4306.9	
323.08	2764.8	
323.29	2274.6	
323.5	4686.4	
323.7	3890.5	
323.91	2953.9	
324.12	2680.8	
324.33	4218.1	
324.53	4263.2	
324.74	2652.1	
324.95	2686.3	
325.16	3829.7	
325.37	4034.5	
325.57	2341.5	
325.78	2370.9	
325.99	4242.7	
326.2	3846.1	
326.4	3058.3	
326.61	2258.2	
326.82	4056.3	
327.03	4151.9	
327.24	3041.2	
327.44	2821.4	
327.65	4267.3	
327.86	3670.6	
328.07	2612.5	
328.27	2362.7	
328.48	4518.5	
328.69	3853.6	
328.9	3027.6	
329.1	2342.2	
329.31	4067.9	
329.52	4480.3	
329.73	2430.9	
329.93	2434.4	
330.14	4220.9	
330.35	4168.3	
330.56	3389.4	
330.76	2706.7	
330.97	4030.4	
331.18	4061.1	
331.39	2566.8	
331.59	2217.3	
331.8	4374.5	
332.01	4459.8	
332.22	2393.4	
332.42	2602.3	
332.63	4182.6	
332.84	3858.4	
333.05	2552.5	
333.25	2390	
333.46	3878.2	
333.67	4052.9	
333.88	2480.8	
334.08	2553.1	
334.29	4904.9	
334.5	4273.4	
334.7	2361.3	
334.91	2988.7	
335.12	3796.9	
335.33	4212	
335.53	2565.4	
335.74	3297.9	
335.95	4106.9	
336.16	3778.5	
336.36	2529.9	
336.57	2805	
336.78	3614	
336.98	4311	
337.19	2966.8	
337.4	2464.4	
337.61	4717.8	
337.81	3825.6	
338.02	2478	
338.23	2794.8	
338.43	4461.2	
338.64	3967.6	
338.85	2431.6	
339.05	2976.4	
339.26	4580.6	
339.47	3842	
339.68	2398.2	
339.88	3123.2	
340.09	4293.9	
340.3	4392.9	
340.5	2620.7	
340.71	2220.7	
340.92	3926	
341.13	4385.4	
341.33	2261	
341.54	2603.7	
341.75	4228.4	
341.95	3975.8	
342.16	2570.9	
342.37	2684.9	
342.57	3925.3	
342.78	4016.1	
342.99	2725.8	
343.19	2282.1	
343.4	4308.2	
343.61	4171.7	
343.81	2483.5	
344.02	2283.5	
344.23	4283.7	
344.43	4438.6	
344.64	2819.4	
344.85	2708.8	
345.06	4227	
345.26	4390.2	
345.47	2721.1	
345.68	2957.3	
345.88	3875.4	
346.09	4350.6	
346.3	2671.2	
346.5	2135.3	
346.71	3992.2	
346.92	4009.9	
347.12	2336.7	
347.33	2628.9	
347.54	4349.2	
347.74	4465.9	
347.95	2596.1	
348.16	2145.6	
348.36	4051.6	
348.57	3873.4	
348.78	2735.4	
348.98	2717.7	
349.19	4053.6	
349.39	3740.3	
349.6	2344.2	
349.81	2423.4	
350.01	4340.3	
350.22	3904.8	
350.43	2678.1	
350.63	2944.3	
350.84	4072.7	
351.05	3894.6	
351.25	2428.2	
351.46	2284.9	
351.67	4224.3	
351.87	3921.2	
352.08	2510.8	
352.29	2730.6	
352.49	4373.8	
352.7	4308.9	
352.9	2355.2	
353.11	2757.9	
353.32	4599.7	
353.52	4050.2	
353.73	2356.5	
353.94	2747.7	
354.14	4256.4	
354.35	4015.4	
354.55	2441.2	
354.76	2571.6	
354.97	4275.5	
355.17	4043.4	
355.38	2411.8	
355.59	2918.4	
355.79	3938.2	
356	4178.5	
356.2	2638.5	
356.41	2443.9	
356.62	3945.1	
356.82	4119.8	
357.03	2733.4	
357.24	2510.1	
357.44	3932.8	
357.65	4057	
357.85	3055.6	
358.06	2674.6	
358.27	3881.6	
358.47	3859.7	
358.68	2395.4	
358.88	2762.7	
359.09	4241.3	
359.3	4394.3	
359.5	3051.5	
359.71	2833.7	
359.91	4491.2	
360.12	4190.1	
360.33	2816	
360.53	3039.2	
360.74	4087.7	
360.94	4108.9	
361.15	2869.2	
361.36	2601.6	
361.56	4515.8	
361.77	4216.8	
361.97	3096.5	
362.18	2649.4	
362.38	4437.3	
362.59	4009.2	
362.8	2536.1	
363	2491	
363.21	3931.4	
363.41	4177.9	
363.62	2760.7	
363.83	3133.4	
364.03	4396.3	
364.24	4599.7	
364.44	3407.1	
364.65	3250.8	
364.85	4244.8	
365.06	4102.8	
365.27	2650.8	
365.47	2769.5	
365.68	4629.8	
365.88	4253.6	
366.09	2853.5	
366.29	2699.2	
366.5	4207.9	
366.71	4459.1	
366.91	3234.4	
367.12	2951.1	
367.32	4827.7	
367.53	4312.3	
367.73	3054.9	
367.94	3434.4	
368.14	4485.1	
368.35	4579.3	
368.56	2893.1	
368.76	2669.9	
368.97	4412	
369.17	5101.5	
369.38	2689	
369.58	2809.1	
369.79	3977.2	
369.99	4693.3	
370.2	3306.8	
370.4	2908.8	
370.61	4379.2	
370.82	5010.7	
371.02	2876	
371.23	2592	
371.43	4168.3	
371.64	4781.3	
371.84	2959.3	
372.05	3333.4	
372.25	5142.4	
372.46	4366.3	
372.66	2858.3	
372.87	2906.8	
373.07	4362.2	
373.28	5367	
373.48	3327.3	
373.69	3228.3	
373.9	4434.5	
374.1	4424.3	
374.31	3349.1	
374.51	3075.4	
374.72	4678.2	
374.92	4270.7	
375.13	3409.9	
375.33	3075.4	
375.54	4547.9	
375.74	4343.1	
375.95	3220.8	
376.15	3749.8	
376.36	4710.3	
376.56	4584.7	
376.77	3207.8	
376.97	3419.4	
377.18	5199.1	
377.38	4748.6	
377.59	3469.3	
377.79	3112.9	
378	4596.3	
378.2	4715.1	
378.41	3081.5	
378.61	3014.6	
378.82	4843.4	
379.02	4515.8	
379.23	3230.3	
379.43	3566.9	
379.64	5029.8	
379.84	4730.1	
380.05	3128.6	
380.25	3024.2	
380.46	4753.3	
380.66	4576.5	
380.87	3639.2	
381.07	3831.7	
381.28	5087.8	
381.48	4786.1	
381.69	3061.7	
381.89	3093.1	
382.1	4305.5	
382.3	4689.2	
382.51	3561.4	
382.71	4042	
382.91	4551.3	
383.12	4889.9	
383.32	3237.2	
383.53	3324.5	
383.73	4668.7	
383.94	4661.9	
384.14	3295.2	
384.35	2882.9	
384.55	4359.4	
384.76	4669.4	
384.96	3222.8	
385.17	3381.2	
385.37	4789.5	
385.58	4279.6	
385.78	3308.2	
385.98	2945	
386.19	4477.5	
386.39	4728.8	
386.6	3102	
386.8	3150.5	
387.01	4730.8	
387.21	4799.1	
387.42	3401.7	
387.62	3614.7	
387.83	4533.5	
388.03	4521.9	
388.23	3350.5	
388.44	3616.7	
388.64	4358.8	
388.85	4354.7	
389.05	3483.6	
389.26	3704.1	
389.46	5539.1	
389.67	5061.9	
389.87	3524.6	
390.07	3485.6	
390.28	4620.9	
390.48	4468	
390.69	3175.7	
390.89	3406.5	
391.1	4625.7	
391.3	5037.3	
391.5	3878.2	
391.71	4076.1	
391.91	5014.1	
392.12	5179.3	
392.32	3905.5	
392.53	3505.4	
392.73	4689.2	
392.93	4725.3	
393.14	3429	
393.34	3693.2	
393.55	5001.8	
393.75	4687.1	
393.95	3482.2	
394.16	3344.3	
394.36	4717.2	
394.57	4923.3	
394.77	3153.2	
394.98	3315.7	
395.18	4689.8	
395.38	4680.3	
395.59	3800.3	
395.79	3343.7	
396	4802.5	
396.2	4983.4	
396.4	3770.3	
396.61	3751.2	
396.81	4967	
397.02	4728.8	
397.22	3904.8	
397.42	4009.9	
397.63	5233.2	
397.83	4857.8	
398.04	3363.4	
398.24	3716.4	
398.44	5070.1	
398.65	4580.6	
398.85	3412.6	
399.05	3424.2	
399.26	4917.9	
399.46	5599.1	
399.67	3715	
399.87	3581.2	
400.07	5066	
400.28	5177.3	
400.48	3590.8	
400.69	4083	
400.89	5182	
401.09	5550	
401.3	3649.5	
401.5	4059.1	
401.7	5654.4	
401.91	5786.2	
402.11	3870	
402.32	3831.7	
402.52	5433.9	
402.72	5285.8	
402.93	3982.6	
403.13	3459	
403.33	5814.9	
403.54	5068	
403.74	3851.5	
403.94	4128	
404.15	5076.2	
404.35	5675.6	
404.56	3682.9	
404.76	4415.4	
404.96	5389.6	
405.17	5158.8	
405.37	4187.4	
405.57	3947.1	
405.78	5408.7	
405.98	5081	
406.18	3829.7	
406.39	4132.8	
406.59	5325.4	
406.79	5154.1	
407	3629	
407.2	3725.3	
407.4	5733.6	
407.61	5506.3	
407.81	3815.4	
408.01	4687.8	
408.22	4816.1	
408.42	5932.3	
408.62	4375.8	
408.83	4214	
409.03	5386.8	
409.23	5442.8	
409.44	4329.4	
409.64	4407.2	
409.84	6088.6	
410.05	5971.9	
410.25	4481	
410.45	4393.6	
410.66	5922	
410.86	7058	
411.06	4760.2	
411.27	4596.3	
411.47	7060	
411.67	6077.7	
411.88	4772.4	
412.08	4945.2	
412.28	6357.6	
412.49	6636.8	
412.69	4825	
412.89	4789.5	
413.09	6618.4	
413.3	6623.1	
413.5	4967.7	
413.7	4829.8	
413.91	6020.3	
414.11	6580.8	
414.31	4855.7	
414.52	5177.9	
414.72	6571.2	
414.92	6563.7	
415.12	4901.5	
415.33	5250.3	
415.53	6592.4	
415.73	6805.4	
415.94	5427.1	
416.14	5104.9	
416.34	6415.6	
416.55	6180.1	
416.75	5696.8	
416.95	5490.6	
417.15	6997.2	
417.36	7103	
417.56	5905.7	
417.76	5393	
417.97	7043.6	
418.17	6962.4	
418.37	5342.5	
418.57	5324	
418.78	7029.3	
418.98	6748.1	
419.18	5827.2	
419.38	5686.5	
419.59	6703	
419.79	6474.3	
419.99	5211.4	
420.2	5381.4	
420.4	7039.6	
420.6	6935.1	
420.8	5188.2	
421.01	5107	
421.21	6939.2	
421.41	6855.9	
421.61	5354.1	
421.82	5235.3	
422.02	6756.9	
422.22	7115.3	
422.42	5642.8	
422.63	5376.6	
422.83	6747.4	
423.03	7378.8	
423.23	5403.9	
423.44	4952	
423.64	6633.4	
423.84	6410.8	
424.04	5217.5	
424.25	5022.3	
424.45	7137.9	
424.65	7025.9	
424.85	4909	
425.06	5235.3	
425.26	7260.7	
425.46	6690	
425.66	5412.8	
425.87	5262.6	
426.07	6929	
426.27	6797.9	
426.47	5381.4	
426.67	5040.7	
426.88	7175.4	
427.08	6894.1	
427.28	5515.2	
427.48	4942.4	
427.69	6412.2	
427.89	6604	
428.09	5398.4	
428.29	4947.9	
428.5	6899.6	
428.7	6773.3	
428.9	5018.2	
429.1	5238.7	
429.3	6864.8	
429.51	6907.1	
429.71	5082.4	
429.91	5621	
430.11	7062.8	
430.31	7290.8	
430.52	5282.4	
430.72	5481	
430.92	7234.1	
431.12	6986.3	
431.32	5242.8	
431.53	5385.5	
431.73	6569.2	
431.93	7314.7	
432.13	5173.2	
432.33	5148.6	
432.54	6825.2	
432.74	6899.6	
432.94	5193.6	
433.14	5670.8	
433.34	7237.5	
433.55	7005.4	
433.75	5735	
433.95	6550.8	
434.15	7121.5	
434.35	6936.5	
434.56	5354.8	
434.76	5222.3	
434.96	7041.6	
435.16	7287.4	
435.36	5300.1	
435.56	6069.5	
435.77	7092.8	
435.97	7146.7	
436.17	6285.2	
436.37	5954.8	
436.57	6999.3	
436.78	7063.4	
436.98	6696.2	
437.18	6197.2	
437.38	7352.9	
437.58	7054.6	
437.78	6289.3	
437.99	5598.5	
438.19	7331.7	
438.39	8015.7	
438.59	5707	
438.79	5385.5	
438.99	7745.4	
439.2	7142.6	
439.4	5313.1	
439.6	5500.2	
439.8	7048.4	
440	7814.4	
440.2	6006.7	
440.4	5961	
440.61	7580.2	
440.81	7755	
441.01	5606	
441.21	6209.4	
441.41	8004.1	
441.61	7637.6	
441.81	6383.5	
442.02	6850.5	
442.22	8126.3	
442.42	7892.9	
442.62	5905.7	
442.82	5912.5	
443.02	8172.1	
443.22	7743.4	
443.43	6223.1	
443.63	5823.1	
443.83	7498.3	
444.03	7488.1	
444.23	6513.2	
444.43	6335	
444.63	7856	
444.83	8238.3	
445.04	6251.8	
445.24	6638.8	
445.44	7989.8	
445.64	7919.5	
445.84	6438.8	
446.04	6452.5	
446.24	7572	
446.44	8118.8	
446.65	5911.1	
446.85	6189	
447.05	7647.8	
447.25	7922.2	
447.45	6264.1	
447.65	5913.2	
447.85	7811	
448.05	7359	
448.25	6460.7	
448.46	6328.2	
448.66	7799.3	
448.86	7527	
449.06	6023.1	
449.26	6406.7	
449.46	7985	
449.66	7548.8	
449.86	6351.4	
450.06	6209.4	
450.26	7649.2	
450.47	7965.9	
450.67	6288.6	
450.87	6567.8	
451.07	8264.9	
451.27	7876.5	
451.47	6073.6	
451.67	6584.2	
451.87	7835.5	
452.07	8243.8	
452.27	6391.7	
452.47	6186.9	
452.67	7990.5	
452.88	8088.1	
453.08	5946.6	
453.28	6900.3	
453.48	8735.3	
453.68	7807.5	
453.88	6390.3	
454.08	6388.3	
454.28	8290.2	
454.48	8015.7	
454.68	6720.1	
454.88	6769.2	
455.08	8368	
455.28	8218.5	
455.48	6260.6	
455.68	6843.6	
455.89	8676.6	
456.09	8464.9	
456.29	6572.6	
456.49	6783.6	
456.69	8682.7	
456.89	8102.4	
457.09	6877.1	
457.29	7280.5	
457.49	8610.3	
457.69	8571.4	
457.89	6997.2	
458.09	6765.8	
458.29	8475.2	
458.49	8941.4	
458.69	7219.1	
458.89	6966.5	
459.09	9191.3	
459.29	9060.2	
459.49	7081.2	
459.69	7484.6	
459.9	8852	
460.1	8865.7	
460.3	7038.9	
460.5	6941.2	
460.7	9062.9	
460.9	8671.1	
461.1	6819.1	
461.3	7499	
461.5	9519	
461.7	9228.1	
461.9	7352.9	
462.1	7448.5	
462.3	9055.4	
462.5	9305.3	
462.7	7391.1	
462.9	7493.5	
463.1	9886.9	
463.3	9775	
463.5	7582.9	
463.7	8207.6	
463.9	9507.4	
464.1	9644.6	
464.3	7919.5	
464.5	7912.7	
464.7	9743.6	
464.9	9755.8	
465.1	8656.1	
465.3	8249.9	
465.5	9911.5	
465.7	10227	
465.9	8581.7	
466.1	8045.8	
466.3	10084	
466.5	9832.3	
466.7	8946.9	
466.9	8246.5	
467.1	10194	
467.3	10492	
467.5	9009	
467.7	8501.1	
467.9	10648	
468.1	10982	
468.3	8764.6	
468.5	8950.3	
468.7	10133	
468.9	9968.8	
469.1	8770.1	
469.3	9044.5	
469.5	11243	
469.7	10118	
469.9	8831.5	
470.1	8619.9	
470.3	10415	
470.5	10333	
470.7	9340.8	
470.9	8618.5	
471.1	10334	
471.3	10271	
471.5	8692.9	
471.69	9457.5	
471.89	10241	
472.09	9812.5	
472.29	9097.1	
472.49	8970.8	
472.69	10153	
472.89	10281	
473.09	8590.5	
473.29	8498.4	
473.49	10108	
473.69	9847.3	
473.89	8891.6	
474.09	8493.6	
474.29	10658	
474.49	10383	
474.69	8934.6	
474.89	8628.1	
475.09	10056	
475.29	10074	
475.49	8292.9	
475.69	8500.4	
475.88	10688	
476.08	10288	
476.28	8376.2	
476.48	8370.7	
476.68	10500	
476.88	10109	
477.08	8385.1	
477.28	8529.8	
477.48	10036	
477.68	10112	
477.88	8326.4	
478.08	8337.3	
478.28	10465	
478.48	10082	
478.67	8411	
478.87	8004.8	
479.07	10421	
479.27	10057	
479.47	8521.6	
479.67	8703.2	
479.87	10389	
480.07	10583	
480.27	8334.6	
480.47	8988.5	
480.67	10110	
480.87	10620	
481.06	8400.8	
481.26	8839	
481.46	10442	
481.66	10147	
481.86	8651.3	
482.06	9071.8	
482.26	10120	
482.46	10329	
482.66	8686.1	
482.86	8484.7	
483.05	10576	
483.25	10034	
483.45	9869.2	
483.65	8776.2	
483.85	10017	
484.05	10223	
484.25	8916.2	
484.45	9244.5	
484.65	10387	
484.84	10744	
485.04	8765.3	
485.24	8778.3	
485.44	11013	
485.64	10183	
485.84	8611	
486.04	9241.8	
486.24	10484	
486.44	10529	
486.63	8623.3	
486.83	9178.3	
487.03	10570	
487.23	10735	
487.43	8731.9	
487.63	9850.7	
487.83	10684	
488.02	10671	
488.22	9327.8	
488.42	9564.7	
488.62	11195	
488.82	10587	
489.02	9126.4	
489.22	9345.6	
489.41	10757	
489.61	11103	
489.81	9110.7	
490.01	9124.4	
490.21	11225	
490.41	11589	
490.61	9205.6	
490.8	9248.6	
491	11047	
491.2	10652	
491.4	9478.7	
491.6	9152.4	
491.8	11062	
491.99	10834	
492.19	9071.1	
492.39	9084.1	
492.59	11261	
492.79	11299	
492.99	9584.5	
493.18	9217.9	
493.38	11295	
493.58	11899	
493.78	9627.5	
493.98	9439.8	
494.18	11253	
494.37	10965	
494.57	10091	
494.77	9947.7	
494.97	11788	
495.17	11879	
495.37	10008	
495.56	10164	
495.76	11913	
495.96	12078	
496.16	10716	
496.36	10285	
496.55	12258	
496.75	12023	
496.95	10565	
497.15	10588	
497.35	12304	
497.54	12329	
497.74	10488	
497.94	11385	
498.14	12869	
498.34	12521	
498.53	10322	
498.73	10649	
498.93	12050	
499.13	12409	
499.33	10847	
499.52	10852	
499.72	12795	
499.92	12510	
500.12	10770	
500.32	10750	
500.51	12600	
500.71	12615	
500.91	11307	
501.11	10963	
501.31	12706	
501.5	12954	
501.7	11469	
501.9	10970	
502.1	12529	
502.29	12745	
502.49	11203	
502.69	11279	
502.89	12690	
503.09	12750	
503.28	10443	
503.48	10653	
503.68	12362	
503.88	12272	
504.07	11083	
504.27	10774	
504.47	12436	
504.67	12442	
504.86	11064	
505.06	10742	
505.26	12329	
505.46	12964	
505.65	10713	
505.85	10763	
506.05	12091	
506.25	12439	
506.44	10227	
506.64	10647	
506.84	11935	
507.04	12183	
507.23	10226	
507.43	10478	
507.63	12710	
507.83	11809	
508.02	10512	
508.22	10206	
508.42	12882	
508.62	11835	
508.81	10406	
509.01	10733	
509.21	11639	
509.4	12053	
509.6	10527	
509.8	10229	
510	11801	
510.19	12411	
510.39	10179	
510.59	10280	
510.79	11816	
510.98	12677	
511.18	10433	
511.38	10269	
511.57	12437	
511.77	12038	
511.97	10677	
512.17	10167	
512.36	12372	
512.56	12024	
512.76	10279	
512.95	10116	
513.15	12371	
513.35	11580	
513.55	10634	
513.74	10206	
513.94	12307	
514.14	11922	
514.33	10647	
514.53	10527	
514.73	12011	
514.92	12026	
515.12	10228	
515.32	10281	
515.51	12287	
515.71	12101	
515.91	11063	
516.11	10348	
516.3	13066	
516.5	12256	
516.7	10774	
516.89	10830	
517.09	12028	
517.29	12146	
517.48	10946	
517.68	10507	
517.88	11721	
518.07	12399	
518.27	10845	
518.47	10197	
518.66	12605	
518.86	12111	
519.06	10297	
519.25	10432	
519.45	12115	
519.65	12899	
519.84	10866	
520.04	11286	
520.24	12984	
520.43	12439	
520.63	10707	
520.83	10654	
521.02	12301	
521.22	12443	
521.42	10785	
521.61	11079	
521.81	12121	
522.01	12181	
522.2	10761	
522.4	10525	
522.6	12510	
522.79	11929	
522.99	10661	
523.18	10576	
523.38	12639	
523.58	12581	
523.77	11434	
523.97	10693	
524.17	13589	
524.36	13226	
524.56	11475	
524.76	11383	
524.95	12992	
525.15	12740	
525.34	11380	
525.54	11489	
525.74	13357	
525.93	12892	
526.13	12186	
526.33	11728	
526.52	13743	
526.72	13508	
526.91	12331	
527.11	12089	
527.31	13594	
527.5	13907	
527.7	12092	
527.89	11606	
528.09	13327	
528.29	13613	
528.48	12140	
528.68	11966	
528.87	13861	
529.07	13801	
529.27	12122	
529.46	11970	
529.66	13892	
529.85	14143	
530.05	12007	
530.25	12320	
530.44	14554	
530.64	13743	
530.83	12244	
531.03	12352	
531.23	14345	
531.42	13889	
531.62	12596	
531.81	12383	
532.01	14106	
532.21	14366	
532.4	12290	
532.6	12592	
532.79	14783	
532.99	14428	
533.18	12827	
533.38	13275	
533.58	14514	
533.77	14581	
533.97	13091	
534.16	13388	
534.36	15164	
534.55	14493	
534.75	13450	
534.95	13174	
535.14	15152	
535.34	14640	
535.53	12967	
535.73	13713	
535.92	15459	
536.12	14423	
536.31	13113	
536.51	13567	
536.71	14827	
536.9	14655	
537.1	12887	
537.29	13073	
537.49	14930	
537.68	14622	
537.88	13317	
538.07	12777	
538.27	14734	
538.46	15313	
538.66	12806	
538.86	13031	
539.05	14934	
539.25	14977	
539.44	13492	
539.64	12924	
539.83	14669	
540.03	15127	
540.22	13003	
540.42	12932	
540.61	14782	
540.81	14829	
541	13026	
541.2	13473	
541.39	14354	
541.59	14595	
541.78	13312	
541.98	12841	
542.18	14272	
542.37	14287	
542.57	12925	
542.76	13273	
542.96	14130	
543.15	14567	
543.35	12914	
543.54	12740	
543.74	13814	
543.93	14280	
544.13	12693	
544.32	13146	
544.52	14337	
544.71	13932	
544.91	12184	
545.1	12576	
545.3	14060	
545.49	14097	
545.69	12004	
545.88	12352	
546.08	14769	
546.27	14360	
546.47	12603	
546.66	12179	
546.86	14175	
547.05	14335	
547.24	12291	
547.44	12215	
547.63	13820	
547.83	14147	
548.02	12452	
548.22	12551	
548.41	13584	
548.61	14268	
548.8	12026	
549	12155	
549.19	13958	
549.39	14150	
549.58	11903	
549.78	12190	
549.97	14092	
550.17	13582	
550.36	12490	
550.55	12981	
550.75	13622	
550.94	14005	
551.14	12101	
551.33	12077	
551.53	13313	
551.72	13739	
551.92	12005	
552.11	12011	
552.31	13930	
552.5	13568	
552.69	12614	
552.89	11754	
553.08	13749	
553.28	13620	
553.47	11919	
553.67	12439	
553.86	14046	
554.06	13052	
554.25	11441	
554.44	11750	
554.64	14264	
554.83	13966	
555.03	11803	
555.22	11937	
555.42	13824	
555.61	13581	
555.8	11729	
556	11941	
556.19	13201	
556.39	13439	
556.58	11758	
556.78	11760	
556.97	13580	
557.16	13381	
557.36	12359	
557.55	11620	
557.75	12884	
557.94	13941	
558.13	11645	
558.33	11604	
558.52	13778	
558.72	12881	
558.91	11503	
559.1	11617	
559.3	13093	
559.49	12796	
559.69	11512	
559.88	11810	
560.07	13227	
560.27	13688	
560.46	11888	
560.66	11886	
560.85	13262	
561.04	12742	
561.24	11458	
561.43	11394	
561.63	12867	
561.82	13137	
562.01	11986	
562.21	11574	
562.4	13239	
562.59	13756	
562.79	11471	
562.98	11400	
563.18	13211	
563.37	13850	
563.56	11820	
563.76	11572	
563.95	13039	
564.14	13183	
564.34	11876	
564.53	11524	
564.73	13472	
564.92	13439	
565.11	11740	
565.31	11527	
565.5	13777	
565.69	13126	
565.89	11690	
566.08	11860	
566.27	13479	
566.47	14011	
566.66	12250	
566.85	11599	
567.05	13561	
567.24	13336	
567.44	11640	
567.63	12371	
567.82	13621	
568.02	13602	
568.21	11824	
568.4	11947	
568.6	13646	
568.79	13497	
568.98	11840	
569.18	11936	
569.37	13618	
569.56	14493	
569.76	12081	
569.95	12498	
570.14	13873	
570.34	13716	
570.53	11934	
570.72	11811	
570.91	14123	
571.11	13825	
571.3	12179	
571.49	12622	
571.69	13906	
571.88	13376	
572.07	12370	
572.27	12324	
572.46	13359	
572.65	14016	
572.85	12082	
573.04	12241	
573.23	14141	
573.43	13888	
573.62	12179	
573.81	12437	
574	13975	
574.2	13749	
574.39	12224	
574.58	12369	
574.78	14439	
574.97	14074	
575.16	12668	
575.36	12697	
575.55	14540	
575.74	14462	
575.93	12174	
576.13	12889	
576.32	14061	
576.51	14423	
576.71	12584	
576.9	13357	
577.09	14731	
577.28	14505	
577.48	12972	
577.67	12415	
577.86	14252	
578.05	14471	
578.25	12832	
578.44	12801	
578.63	14356	
578.83	14883	
579.02	12454	
579.21	13392	
579.4	14478	
579.6	14498	
579.79	12798	
579.98	13964	
580.17	14651	
580.37	14860	
580.56	12690	
580.75	13044	
580.94	14764	
581.14	14982	
581.33	13457	
581.52	12734	
581.71	14547	
581.91	15077	
582.1	12667	
582.29	12804	
582.48	14489	
582.68	14580	
582.87	13233	
583.06	13229	
583.25	15077	
583.45	14432	
583.64	13482	
583.83	13793	
584.02	14771	
584.21	14894	
584.41	13390	
584.6	13226	
584.79	14828	
584.98	14985	
585.18	12989	
585.37	12983	
585.56	14736	
585.75	14960	
585.94	12852	
586.14	13322	
586.33	15117	
586.52	14683	
586.71	13134	
586.91	13072	
587.1	14169	
587.29	14842	
587.48	12704	
587.67	12779	
587.87	14687	
588.06	14367	
588.25	13352	
588.44	13047	
588.63	14283	
588.83	14448	
589.02	12577	
589.21	12474	
589.4	13914	
589.59	14102	
589.78	11793	
589.98	11956	
590.17	13266	
590.36	13524	
590.55	11330	
590.74	11462	
590.94	13656	
591.13	12929	
591.32	11281	
591.51	10968	
591.7	12979	
591.89	12926	
592.09	10960	
592.28	11183	
592.47	12366	
592.66	13472	
592.85	11068	
593.05	11285	
593.24	12893	
593.43	13536	
593.62	11510	
593.81	11634	
594	13046	
594.19	13134	
594.39	11339	
594.58	11165	
594.77	13229	
594.96	13313	
595.15	11284	
595.34	11586	
595.54	12868	
595.73	12618	
595.92	10936	
596.11	11234	
596.3	13244	
596.49	12674	
596.68	11190	
596.88	11396	
597.07	13117	
597.26	12631	
597.45	10987	
597.64	11596	
597.83	12717	
598.02	12959	
598.22	11110	
598.41	11459	
598.6	12927	
598.79	12653	
598.98	11131	
599.17	11589	
599.36	12939	
599.55	13403	
599.74	12091	
599.94	11998	
600.13	13117	
600.32	12672	
600.51	10970	
600.7	11010	
600.89	13512	
601.08	13668	
601.27	11013	
601.47	11662	
601.66	13095	
601.85	13308	
602.04	11480	
602.23	11374	
602.42	12723	
602.61	12927	
602.8	11090	
602.99	11087	
603.18	12901	
603.37	12964	
603.57	11236	
603.76	11623	
603.95	13365	
604.14	13011	
604.33	11242	
604.52	11318	
604.71	13005	
604.9	12691	
605.09	11644	
605.28	11386	
605.47	13343	
605.66	12826	
605.86	11444	
606.05	11201	
606.24	13258	
606.43	12523	
606.62	11389	
606.81	11707	
607	13220	
607.19	12877	
607.38	11069	
607.57	11156	
607.76	12656	
607.95	12338	
608.14	11472	
608.33	11622	
608.52	12550	
608.72	13137	
608.91	10830	
609.1	11034	
609.29	12862	
609.48	12346	
609.67	11280	
609.86	10904	
610.05	12415	
610.24	12460	
610.43	10783	
610.62	10656	
610.81	13142	
611	12994	
611.19	10812	
611.38	11299	
611.57	12813	
611.76	13147	
611.95	10795	
612.14	10558	
612.33	12732	
612.52	12327	
612.71	10969	
612.9	10623	
613.09	12274	
613.28	13402	
613.47	10774	
613.66	11314	
613.85	12811	
614.04	12359	
614.24	10783	
614.43	10570	
614.62	12771	
614.81	12751	
615	11133	
615.19	11128	
615.38	12378	
615.57	12761	
615.76	11115	
615.95	11586	
616.14	12899	
616.33	12743	
616.52	11296	
616.71	11375	
616.9	12829	
617.09	12795	
617.28	11097	
617.47	11583	
617.66	12505	
617.85	12420	
618.04	11467	
618.22	11140	
618.41	12603	
618.6	13413	
618.79	11336	
618.98	11286	
619.17	13545	
619.36	12598	
619.55	11513	
619.74	11538	
619.93	13136	
620.12	12971	
620.31	11797	
620.5	11939	
620.69	13581	
620.88	14012	
621.07	12295	
621.26	12005	
621.45	13608	
621.64	13629	
621.83	12061	
622.02	11714	
622.21	13439	
622.4	13555	
622.59	12390	
622.78	12414	
622.97	13534	
623.16	13939	
623.35	12163	
623.54	11740	
623.72	13526	
623.91	13551	
624.1	12354	
624.29	11843	
624.48	14244	
624.67	13929	
624.86	12380	
625.05	11773	
625.24	14178	
625.43	13609	
625.62	13136	
625.81	11945	
626	13774	
626.19	13691	
626.38	12261	
626.56	12050	
626.75	13423	
626.94	13974	
627.13	12327	
627.32	11772	
627.51	13934	
627.7	14369	
627.89	11750	
628.08	12415	
628.27	13431	
628.46	13530	
628.65	11909	
628.83	11703	
629.02	13682	
629.21	13254	
629.4	12038	
629.59	12185	
629.78	13450	
629.97	13767	
630.16	12187	
630.35	12025	
630.54	14212	
630.72	14047	
630.91	12003	
631.1	12219	
631.29	13600	
631.48	13787	
631.67	12326	
631.86	11835	
632.05	13743	
632.24	13796	
632.42	11780	
632.61	12171	
632.8	13480	
632.99	13409	
633.18	12299	
633.37	12256	
633.56	13773	
633.75	13754	
633.93	12267	
634.12	12254	
634.31	14231	
634.5	13919	
634.69	12252	
634.88	12342	
635.07	13749	
635.25	14111	
635.44	12589	
635.63	12683	
635.82	13664	
636.01	12822	
636.2	12497	
636.39	12415	
636.57	14188	
636.76	13768	
636.95	12062	
637.14	12507	
637.33	13836	
637.52	14184	
637.7	11852	
637.89	12527	
638.08	13836	
638.27	14248	
638.46	12479	
638.65	12542	
638.83	14154	
639.02	13509	
639.21	12360	
639.4	12457	
639.59	13738	
639.78	13533	
639.96	11698	
640.15	11820	
640.34	13633	
640.53	13409	
640.72	11751	
640.91	11835	
641.09	13274	
641.28	13755	
641.47	11909	
641.66	12181	
641.85	13616	
642.03	13598	
642.22	11938	
642.41	11791	
642.6	13112	
642.79	12871	
642.97	11589	
643.16	11865	
643.35	13087	
643.54	12871	
643.73	11567	
643.91	11840	
644.1	12761	
644.29	13165	
644.48	11358	
644.67	11394	
644.85	12549	
645.04	13069	
645.23	11140	
645.42	11288	
645.6	12558	
645.79	13007	
645.98	10928	
646.17	10479	
646.36	11938	
646.54	12284	
646.73	10980	
646.92	10618	
647.11	11958	
647.29	12519	
647.48	10430	
647.67	10236	
647.86	12493	
648.05	12534	
648.23	10520	
648.42	11218	
648.61	12318	
648.8	12077	
648.98	10316	
649.17	10421	
649.36	11816	
649.55	11817	
649.73	10251	
649.92	10704	
650.11	11858	
650.3	12017	
650.48	10459	
650.67	10361	
650.86	12155	
651.05	11472	
651.23	10438	
651.42	10297	
651.61	11865	
651.79	11607	
651.98	10434	
652.17	10109	
652.36	11852	
652.54	11328	
652.73	10359	
652.92	10227	
653.11	11944	
653.29	12046	
653.48	9987.9	
653.67	10331	
653.85	11671	
654.04	12306	
654.23	10333	
654.42	10093	
654.6	11271	
654.79	11666	
654.98	9640.5	
655.16	9936.1	
655.35	10963	
655.54	10662	
655.73	9441.1	
655.91	9271.2	
656.1	10972	
656.29	10578	
656.47	9049.3	
656.66	9956.5	
656.85	10856	
657.03	10836	
657.22	9448.6	
657.41	9687.6	
657.59	11084	
657.78	11062	
657.97	9612.5	
658.16	9934	
658.34	11508	
658.53	11856	
658.72	10387	
658.9	10636	
659.09	11491	
659.28	11475	
659.46	9960	
659.65	9813.2	
659.84	11307	
660.02	11727	
660.21	9846.6	
660.4	9883.5	
660.58	11875	
660.77	11376	
660.96	10159	
661.14	9688.9	
661.33	12076	
661.52	11970	
661.7	9740.8	
661.89	11162	
662.08	11316	
662.26	10968	
662.45	9850.7	
662.64	9859.6	
662.82	11643	
663.01	11213	
663.2	9867.1	
663.38	10137	
663.57	11468	
663.75	11493	
663.94	9934.7	
664.13	10505	
664.31	11426	
664.5	11560	
664.69	10202	
664.87	10198	
665.06	11211	
665.25	11604	
665.43	10389	
665.62	10477	
665.8	11426	
665.99	11318	
666.18	9912.9	
666.36	9957.2	
666.55	11439	
666.74	11442	
666.92	9722.4	
667.11	10477	
667.29	11411	
667.48	11514	
667.67	10243	
667.85	9768.1	
668.04	11144	
668.22	11209	
668.41	9884.9	
668.6	10121	
668.78	11131	
668.97	11348	
669.15	10059	
669.34	9554.5	
669.53	11194	
669.71	11273	
669.9	9567.4	
670.08	9908.1	
670.27	11013	
670.46	11423	
670.64	9915.6	
670.83	10107	
671.01	10876	
671.2	11142	
671.38	9775.6	
671.57	9656.9	
671.76	11548	
671.94	11759	
672.13	9569.5	
672.31	10008	
672.5	11547	
672.69	11110	
672.87	9764	
673.06	9888.3	
673.24	11480	
673.43	11204	
673.61	9875.3	
673.8	9801.6	
673.98	11379	
674.17	11321	
674.36	10054	
674.54	10085	
674.73	11045	
674.91	11450	
675.1	9867.8	
675.28	9529.9	
675.47	11222	
675.65	11399	
675.84	9836.4	
676.03	9946.3	
676.21	11148	
676.4	10748	
676.58	10128	
676.77	10099	
676.95	11896	
677.14	11016	
677.32	9628.2	
677.51	9606.3	
677.69	11525	
677.88	11026	
678.06	9628.9	
678.25	9680.1	
678.44	11320	
678.62	10964	
678.81	9536	
678.99	9973.6	
679.18	11522	
679.36	11424	
679.55	9766.8	
679.73	9948.3	
679.92	11256	
680.1	11107	
680.29	10266	
680.47	9749.7	
680.66	11116	
680.84	11451	
681.03	9465.7	
681.21	10062	
681.4	11075	
681.58	11022	
681.77	9536.7	
681.95	9691.7	
682.14	11365	
682.32	11480	
682.51	10015	
682.69	9271.8	
682.88	10889	
683.06	11051	
683.25	9811.1	
683.43	9940.8	
683.62	11144	
683.8	11276	
683.99	10011	
684.17	9562	
684.36	11508	
684.54	10795	
684.73	9073.2	
684.91	9140.1	
685.1	10795	
685.28	10334	
685.46	9116.9	
685.65	8934.6	
685.83	10242	
686.02	9909.4	
686.2	8359.8	
686.39	8344.8	
686.57	9508.7	
686.76	10297	
686.94	8411.7	
687.13	8598.1	
687.31	10034	
687.5	10016	
687.68	8312	
687.86	8805.6	
688.05	10911	
688.23	9801.6	
688.42	8925	
688.6	8765.3	
688.79	10129	
688.97	10094	
689.16	9050.7	
689.34	8479.3	
689.52	10545	
689.71	10763	
689.89	9176.9	
690.08	8904.6	
690.26	10512	
690.45	10294	
690.63	9265.7	
690.81	9161.2	
691	10539	
691.18	10202	
691.37	9064.3	
691.55	9926.5	
691.74	10155	
691.92	10964	
692.1	8925	
692.29	8665.6	
692.47	10328	
692.66	9927.9	
692.84	8725.7	
693.02	8976.2	
693.21	9951.8	
693.39	10247	
693.58	9071.8	
693.76	8756.4	
693.94	10783	
694.13	10827	
694.31	8971.5	
694.5	9443.2	
694.68	10276	
694.86	10619	
695.05	9263	
695.23	9539.4	
695.42	10811	
695.6	11998	
695.78	9790.7	
695.97	9407	
696.15	11102	
696.34	10650	
696.52	9210.4	
696.7	9638.4	
696.89	10754	
697.07	10424	
697.25	9364.7	
697.44	9980.4	
697.62	10630	
697.81	10540	
697.99	9089.6	
698.17	9254.1	
698.36	10284	
698.54	10563	
698.72	9164	
698.91	8690.9	
699.09	10255	
699.28	10008	
699.46	8979.7	
699.64	8955.8	
699.83	10247	
700.01	10498	
700.19	9213.1	
700.38	8473.8	
700.56	10443	
700.74	10163	
700.93	8586.5	
701.11	9100.5	
701.29	10327	
701.48	10977	
701.66	8881.4	
701.84	9002.9	
702.03	10422	
702.21	10856	
702.39	8779	
702.58	9191.3	
702.76	10741	
702.94	10741	
703.13	8783.1	
703.31	9883.5	
703.49	10381	
703.68	10808	
703.86	8754.4	
704.04	9435	
704.23	10511	
704.41	10608	
704.59	8941.4	
704.78	9337.4	
704.96	11348	
705.14	10442	
705.33	8712.1	
705.51	9164.7	
705.69	10240	
705.87	10815	
706.06	9153.1	
706.24	8762.6	
706.42	10358	
706.61	10614	
706.79	9291	
706.97	8720.3	
707.16	10058	
707.34	10334	
707.52	9043.1	
707.7	8732.5	
707.89	10000	
708.07	9983.2	
708.25	9161.9	
708.44	9286.9	
708.62	10091	
708.8	10480	
708.98	9179.7	
709.17	8848.6	
709.35	10092	
709.53	10206	
709.72	8542.8	
709.9	8533.2	
710.08	10408	
710.26	10426	
710.45	9123	
710.63	8559.1	
710.81	10017	
710.99	10041	
711.18	8834.3	
711.36	8393.3	
711.54	9828.9	
711.72	10088	
711.91	8456.7	
712.09	8124.3	
712.27	9793.4	
712.45	10064	
712.64	8320.9	
712.82	7883.3	
713	9271.8	
713.18	9172.9	
713.37	7679.2	
713.55	8125.7	
713.73	9519.6	
713.91	8725	
714.1	7456.7	
714.28	7080.5	
714.46	8783.1	
714.64	8226.7	
714.83	6437.4	
715.01	6597.9	
715.19	7916.1	
715.37	7203.4	
715.55	6003.3	
715.74	6164.4	
715.92	7837.6	
716.1	6827.9	
716.28	6537.1	
716.47	6062	
716.65	7228.6	
716.83	7026.6	
717.01	5905.7	
717.19	5726.8	
717.38	8015.7	
717.56	6905.1	
717.74	5973.2	
717.92	5602.6	
718.1	7447.1	
718.29	7163.1	
718.47	5500.2	
718.65	5868.1	
718.83	7829.4	
719.01	7862.8	
719.2	5817.6	
719.38	6523.5	
719.56	7942	
719.74	8679.3	
719.92	6490	
720.11	6763.1	
720.29	7983.7	
720.47	7459.4	
720.65	5944.6	
720.83	6277.7	
721.02	7378.8	
721.2	7269.6	
721.38	6036.7	
721.56	5568.4	
721.74	6770.6	
721.92	6636.1	
722.11	6046.3	
722.29	5872.9	
722.47	7329	
722.65	6948.1	
722.83	5478.3	
723.01	5760.9	
723.2	6752.8	
723.38	7064.1	
723.56	5160.9	
723.74	5646.2	
723.92	6462.7	
724.1	7139.9	
724.29	5373.2	
724.47	5907	
724.65	6726.9	
724.83	6560.3	
725.01	5311.1	
725.19	5640.1	
725.37	6531.7	
725.56	6507.8	
725.74	5078.3	
725.92	5326.1	
726.1	6575.3	
726.28	6748.1	
726.46	5433.9	
726.64	5378	
726.83	6846.4	
727.01	6675	
727.19	5188.2	
727.37	5498.1	
727.55	6812.9	
727.73	7030.7	
727.91	5194.3	
728.09	5054.4	
728.28	6799.3	
728.46	7055.9	
728.64	5548.6	
728.82	5528.2	
729	7531.7	
729.18	7317.4	
729.36	5167.7	
729.54	6199.2	
729.72	7702.4	
729.91	6971.3	
730.09	6274.3	
730.27	5725.4	
730.45	7040.2	
730.63	7268.2	
730.81	5959.6	
730.99	5627.1	
731.17	7705.8	
731.35	6928.3	
731.53	5808	
731.71	5722	
731.9	7471	
732.08	7420.5	
732.26	5771.9	
732.44	5517.2	
732.62	7401.4	
732.8	7250.5	
732.98	5862	
733.16	5429.8	
733.34	7158.3	
733.52	6409.5	
733.7	5464.7	
733.88	5653.8	
734.07	7028.6	
734.25	6851.8	
734.43	5315.2	
734.61	5941.2	
734.79	7606.2	
734.97	6873.7	
735.15	5298.8	
735.33	5457.2	
735.51	7017.7	
735.69	6847.7	
735.87	5942.5	
736.05	5548.6	
736.23	6846.4	
736.41	6654.5	
736.59	5509.7	
736.77	5431.2	
736.95	7091.4	
737.13	6698.2	
737.32	5205.9	
737.5	5395.7	
737.68	7292.8	
737.86	6606.7	
738.04	5119.9	
738.22	5877	
738.4	6556.9	
738.58	6665.5	
738.76	5279.7	
738.94	4857.1	
739.12	6587.6	
739.3	6492.7	
739.48	5629.2	
739.66	5438	
739.84	6713.2	
740.02	6631.3	
740.2	4922.6	
740.38	4995	
740.56	6811.5	
740.74	6072.2	
740.92	5287.2	
741.1	5229.8	
741.28	6511.9	
741.46	6227.2	
741.64	4999.1	
741.82	5266.7	
742	6546	
742.18	6322.8	
742.36	5072.8	
742.54	4826.4	
742.72	6712.6	
742.9	5930.2	
743.08	5102.2	
743.26	4581.3	
743.44	6589	
743.62	6546	
743.8	5154.1	
743.98	4683	
744.16	6406.7	
744.34	6143.9	
744.52	5092.6	
744.7	4971.8	
744.88	6381.5	
745.06	6166.4	
745.24	4977.9	
745.42	5001.8	
745.6	6409.5	
745.78	6356.2	
745.96	4469.4	
746.14	4483	
746.32	6710.5	
746.5	6006.7	
746.68	4713.7	
746.86	4444.1	
747.03	6318.7	
747.21	5662.6	
747.39	4695.3	
747.57	4350.6	
747.75	5893.4	
747.93	6040.8	
748.11	4341.7	
748.29	4354.7	
748.47	6837.5	
748.65	5886.5	
748.83	4707.6	
749.01	4579.9	
749.19	6029.9	
749.37	5526.1	
749.55	4491.2	
749.73	4541	
749.91	5945.3	
750.09	5779.4	
750.26	4474.8	
750.44	4168.3	
750.62	5820.3	
750.8	5757.5	
750.98	4190.8	
751.16	4262.5	
751.34	5901.6	
751.52	5507	
751.7	4568.3	
751.88	4078.9	
752.06	6081.1	
752.24	5870.8	
752.42	4066.6	
752.59	4253.6	
752.77	5763.7	
752.95	6290	
753.13	4553.3	
753.31	4244.1	
753.49	5509	
753.67	5711.8	
753.85	4369.7	
754.03	4104.1	
754.21	5740.5	
754.38	5923.4	
754.56	4026.3	
754.74	3594.2	
754.92	5144.5	
755.1	5352.7	
755.28	3351.8	
755.46	3281.5	
755.64	5742.5	
755.82	5639.4	
755.99	3290.4	
756.17	3128.6	
756.35	4206.5	
756.53	4862.6	
756.71	2510.8	
756.89	3131.3	
757.07	4598.4	
757.25	4199	
757.42	3235.1	
757.6	3671.3	
757.78	4754.7	
757.96	4308.2	
758.14	3158	
758.32	2990	
758.5	4094.6	
758.67	4463.9	
758.85	3061	
759.03	3097.2	
759.21	4586.8	
759.39	4197	
759.57	2835.1	
759.75	3383.9	
759.92	4973.8	
760.1	4707.6	
760.28	3613.3	
760.46	3799.7	
760.64	4627.7	
760.82	4509.6	
760.99	3607.8	
761.17	3279.5	
761.35	5081.7	
761.53	4504.2	
761.71	3452.9	
761.89	3692.5	
762.06	4986.1	
762.24	4786.1	
762.42	3469.3	
762.6	3392.8	
762.78	4759.5	
762.96	5079	
763.13	3757.3	
763.31	3541.6	
763.49	5171.8	
763.67	4800.4	
763.85	3917.8	
764.02	4257.7	
764.2	5464.7	
764.38	4740.4	
764.56	3490.4	
764.74	3956.7	
764.91	5367.7	
765.09	4736.3	
765.27	3364.1	
765.45	3187.3	
765.63	5556.1	
765.8	5266	
765.98	3198.2	
766.16	3272.7	
766.34	4449.6	
766.52	4391.5	
766.69	3715	
766.87	3105.4	
767.05	4858.5	
767.23	5270.8	
767.41	3259.7	
767.58	3517	
767.76	5008.6	
767.94	5151.3	
768.12	3344.3	
768.29	3676.1	
768.47	4550.6	
768.65	5122.7	
768.83	3085.6	
769	3582.6	
769.18	4532.2	
769.36	4842.8	
769.54	3569.6	
769.72	3048.1	
769.89	5089.2	
770.07	4980	
770.25	3274.7	
770.43	3818.1	
770.6	5284.4	
770.78	5421	
770.96	3380.5	
771.14	3575.8	
771.31	5012.7	
771.49	4614.8	
771.67	2921.8	
771.85	2966.8	
772.02	4222.9	
772.2	4481	
772.38	3287	
772.55	3031	
772.73	4670.1	
772.91	4527.4	
773.09	3240.6	
773.26	3261	
773.44	4670.7	
773.62	4531.5	
773.8	3035.8	
773.97	2891	
774.15	4653	
774.33	4558.1	
774.5	2925.9	
774.68	3089.7	
774.86	4726.7	
775.04	4431.1	
775.21	3050.1	
775.39	2891	
775.57	4524	
775.74	4704.2	
775.92	2809.1	
776.1	2757.2	
776.27	4506.2	
776.45	5072.1	
776.63	2957.9	
776.81	2740.2	
776.98	4373.1	
777.16	4889.2	
777.34	2995.5	
777.51	3110.9	
777.69	4403.1	
777.87	4239.3	
778.04	3041.2	
778.22	3235.1	
778.4	4294.6	
778.57	4604.5	
778.75	2613.9	
778.93	2693.8	
779.1	4177.9	
779.28	4060.4	
779.46	2596.8	
779.64	2779.8	
779.81	4655	
779.99	5016.2	
780.17	3191.4	
780.34	3236.5	
780.52	4431.1	
780.69	4374.5	
780.87	2988	
781.05	2761.3	
781.22	4455.7	
781.4	4382.7	
781.58	2828.2	
781.75	2392	
781.93	4401.8	
782.11	3977.8	
782.28	3237.2	
782.46	2765.4	
782.64	3937.6	
782.81	4435.9	
782.99	2852.8	
783.17	2684.9	
783.34	4313	
783.52	4096.6	
783.69	2822.8	
783.87	3242.6	
784.05	4088.4	
784.22	3990.1	
784.4	3252.9	
784.58	2892.4	
784.75	4560.1	
784.93	4165.6	
785.1	2725.8	
785.28	2998.9	
785.46	4501.4	
785.63	4017.4	
785.81	2794.1	
785.99	2634.4	
786.16	4210.6	
786.34	4292.5	
786.51	2659.6	
786.69	2871.3	
786.87	3888.4	
787.04	4107.5	
787.22	2661	
787.39	3074	
787.57	4004.5	
787.75	4523.3	
787.92	3213.9	
788.1	3080.1	
788.27	3923.2	
788.45	3631	
788.63	3024.2	
788.8	2392	
788.98	4278.2	
789.15	3713	
789.33	2470.5	
789.5	2651.4	
789.68	4470.7	
789.86	4496.7	
790.03	2844.6	
790.21	2609.1	
790.38	4547.2	
790.56	4052.9	
790.73	2575.7	
790.91	2515.6	
791.09	4001.7	
791.26	4240	
791.44	2723.1	
791.61	2430.3	
791.79	3992.2	
791.96	3942.3	
792.14	2495.8	
792.32	2342.2	
792.49	3976.5	
792.67	4034.5	
792.84	2549	
793.02	2474.6	
793.19	4266.6	
793.37	4483	
793.54	2332.6	
793.72	2480.1	
793.89	4549.2	
794.07	3878.2	
794.25	2757.9	
794.42	2373.6	
794.6	4455	
794.77	4243.4	
794.95	2847.4	
795.12	2568.2	
795.3	3942.3	
795.47	4163.5	
795.65	2808.4	
795.82	2712.2	
796	3841.3	
796.17	4648.9	
796.35	2635.7	
796.52	2979.8	
796.7	4265.9	
796.87	4282.3	
797.05	2608.4	
797.22	3025.5	
797.4	4293.2	
797.57	4659.8	
797.75	2734	
797.92	2563.4	
798.1	4403.1	
798.27	3734.8	
798.45	2375.6	
798.62	2401.6	
798.8	4108.9	
798.97	4315.8	
799.15	2717.7	
799.32	2653.5	
799.5	3730.7	
799.67	4012	
799.85	2897.2	
800.02	2231.6	
800.2	3978.5	
800.37	3960.8	
800.55	2908.1	
800.72	2583.9	
800.9	4255.7	
801.07	4394.9	
801.25	3214.6	
801.42	2739.5	
801.6	4346.5	
801.77	3973.1	
801.95	2656.9	
802.12	2473.3	
802.29	4189.5	
802.47	4075.5	
802.64	2755.9	
802.82	2237.7	
802.99	3951.2	
803.17	4293.9	
803.34	2699.9	
803.52	2410.5	
803.69	4547.2	
803.87	3760.8	
804.04	2708.8	
804.21	2693.8	
804.39	4504.2	
804.56	3904.1	
804.74	2357.9	
804.91	2690.3	
805.09	3859.1	
805.26	3900.7	
805.44	2420	
805.61	2536.8	
805.78	4312.3	
805.96	4126	
806.13	2676	
806.31	2818	
806.48	3649.5	
806.66	3889.1	
806.83	2686.9	
807	2590	
807.18	3888.4	
807.35	3992.9	
807.53	2646	
807.7	2329.9	
807.87	4450.9	
808.05	3861.1	
808.22	2798.9	
808.4	2312.2	
808.57	3769.6	
808.74	3668.6	
808.92	2531.3	
809.09	2973	
809.27	3979.2	
809.44	4058.4	
809.61	2238.4	
809.79	2395.4	
809.96	4597.7	
810.14	4164.2	
810.31	2237.1	
810.48	2766.8	
810.66	3889.1	
810.83	4186.7	
811.01	2517	
811.18	2684.2	
811.35	4233.2	
811.53	3534.8	
811.7	2821.4	
811.87	2710.8	
812.05	3997.6	
812.22	3834.5	
812.39	2439.1	
812.57	2349.7	
812.74	3977.2	
812.92	4574.5	
813.09	2619.4	
813.26	2670.6	
813.44	4517.1	
813.61	3748.5	
813.78	2219.3	
813.96	2719.7	
814.13	3926.6	
814.3	3827.7	
814.48	2922.5	
814.65	2552.5	
814.82	4354	
815	3663.1	
815.17	2615.3	
815.34	3006.4	
815.52	3807.2	
815.69	3814.7	
815.87	2542.9	
816.04	2529.9	
816.21	3691.8	
816.38	3650.2	
816.56	2507.4	
816.73	2418.7	
816.9	4651.6	
817.08	4122.6	
817.25	2462.3	
817.42	2832.3	
817.6	3635.1	
817.77	3745.1	
817.94	2617.3	
818.12	2352.4	
818.29	3767.6	
818.46	4877.6	
818.64	2534	
818.81	2332.6	
818.98	3719.1	
819.16	4701.5	
819.33	2701.3	
819.5	2619.4	
819.67	4041.3	
819.85	4324.6	
820.02	2533.3	
820.19	2631	
820.37	3975.8	
820.54	3791.5	
820.71	2619.4	
820.88	3112.2	
821.06	3982.6	
821.23	3728	
821.4	2600.2	
821.58	2596.1	
821.75	4119.1	
821.92	3942.3	
822.09	2287.6	
822.27	2335.4	
822.44	3825.6	
822.61	3811.3	
822.79	2258.9	
822.96	3715	
823.13	3902.7	
823.3	3632.4	
823.48	2486.2	
823.65	2288.9	
823.82	4278.9	
823.99	3637.9	
824.17	3013.2	
824.34	2323.1	
824.51	4710.3	
824.68	3875.4	
824.86	2501.9	
825.03	2549	
825.2	3839.3	
825.37	4326	
825.55	2454.8	
825.72	2542.2	
825.89	4560.1	
826.06	4375.1	
826.24	2523.1	
826.41	2525.8	
826.58	4436.6	
826.75	3908.2	
826.92	2224.1	
827.1	2356.5	
827.27	5433.3	
827.44	4504.2	
827.61	2408.4	
827.79	2793.4	
827.96	3828.3	
828.13	3801	
828.3	2561.3	
828.47	2227.5	
828.65	4167.6	
828.82	4113.7	
828.99	2912.9	
829.16	2630.3	
829.34	4221.5	
829.51	4216.1	
829.68	2587.9	
829.85	2558.6	
830.02	4590.9	
830.2	4287.1	
830.37	2095.8	
830.54	2865.8	
830.71	4581.3	
830.88	3933.5	
831.05	2115.6	
831.23	2321	
831.4	4620.9	
831.57	4742.4	
831.74	2467.8	
831.91	2202.9	
832.09	4266.6	
832.26	4287.1	
832.43	2396.8	
832.6	2619.4	
832.77	4074.8	
832.94	4485.1	
833.12	2091	
833.29	2374.3	
833.46	3762.1	
833.63	4848.2	
833.8	2550.4	
833.97	2387.2	
834.15	4341.7	
834.32	4167.6	
834.49	2561.3	
834.66	2570.2	
834.83	4184.7	
835	3852.2	
835.17	2410.5	
835.35	2310.1	
835.52	4276.8	
835.69	4110.3	
835.86	2416.6	
836.03	2110.8	
836.2	4298.7	
836.37	4087.1	
836.55	2367.5	
836.72	2315.6	
836.89	4012.7	
837.06	4311	
837.23	2480.8	
837.4	2566.1	
837.57	4712.4	
837.75	4818.2	
837.92	2275.3	
838.09	2390.7	
838.26	4061.8	
838.43	4350.6	
838.6	2579.1	
838.77	2330.6	
838.94	4694.6	
839.11	4675.5	
839.29	2469.9	
839.46	2032.3	
839.63	4287.8	
839.8	4061.1	
839.97	2378.4	
840.14	2367.5	
840.31	4194.2	
840.48	4318.5	
840.65	2114.9	
840.82	2321.7	
841	4263.9	
841.17	4068.6	
841.34	2210.4	
841.51	2295.1	
841.68	4292.5	
841.85	4115.7	
842.02	2308.7	
842.19	2063.7	
842.36	4199	
842.53	4205.2	
842.7	2270.5	
842.87	2562	
843.05	4879.6	
843.22	4076.8	
843.39	2131.9	
843.56	2349.7	
843.73	4065.9	
843.9	4375.8	
844.07	3229.6	
844.24	2717	
844.41	5236.7	
844.58	3895.2	
844.75	2177	
844.92	2303.3	
845.09	4127.3	
845.26	4161.5	
845.43	2233.7	
845.6	2321	
845.77	4230.4	
845.94	4156	
846.12	2435	
846.29	2488.3	
846.46	4433.2	
846.63	4231.8	
846.8	2220.7	
846.97	2555.2	
847.14	4427.7	
847.31	4236.6	
847.48	2410.5	
847.65	2643.2	
847.82	3988.1	
847.99	4261.8	
848.16	2734	
848.33	2596.8	
848.5	4007.2	
848.67	4496	
848.84	2199.5	
849.01	2323.1	
849.18	3979.9	
849.35	3700	
849.52	2577	
849.69	2198.2	
849.86	4358.8	
850.03	4313.7	
850.2	2277.3	
850.37	2565.4	
850.54	4345.1	
850.71	3831.1	
850.88	2549	
851.05	2183.1	
851.22	4114.4	
851.39	4422.9	
851.56	2103.9	
851.73	2433.7	
851.9	3842.7	
852.07	4348.5	
852.24	2413.9	
852.41	2171.5	
852.58	4233.2	
852.75	3908.9	
852.92	2404.3	
853.09	2131.9	
853.26	3690.4	
853.43	4347.2	
853.6	2235.7	
853.77	1938.1	
853.94	4496	
854.11	3828.3	
854.28	3014.6	
854.44	2379.1	
854.61	4653	
854.78	4322.6	
854.95	2164.7	
855.12	2557.9	
855.29	3614.7	
855.46	4505.5	
855.63	2242.5	
855.8	2804.4	
855.97	3933.5	
856.14	4465.3	
856.31	2870.6	
856.48	2337.4	
856.65	4112.3	
856.82	3834.5	
856.99	2211.8	
857.16	2322.4	
857.33	4807.3	
857.49	4071.4	
857.66	2306	
857.83	2463.7	
858	4083	
858.17	4139.6	
858.34	2121	
858.51	2234.3	
858.68	4477.5	
858.85	4478.2	
859.02	2476	
859.19	2537.4	
859.36	3915.7	
859.52	3695.2	
859.69	2243.2	
859.86	2509.4	
860.03	3722.5	
860.2	4426.3	
860.37	2101.9	
860.54	2246.6	
860.71	4259.8	
860.88	4523.3	
861.05	2352.4	
861.21	2676.7	
861.38	4433.9	
861.55	3689.8	
861.72	2080.1	
861.89	2405	
862.06	4291.2	
862.23	4442	
862.4	2136	
862.56	2233.7	
862.73	4237.2	
862.9	4065.9	
863.07	2490.3	
863.24	2100.5	
863.41	3823.6	
863.58	3880.2	
863.75	2226.8	
863.91	2529.2	
864.08	4343.1	
864.25	4225	
864.42	2603	
864.59	2853.5	
864.76	4548.5	
864.93	3825.6	
865.09	2198.2	
865.26	2379.7	
865.43	4487.1	
865.6	4607.2	
865.77	2028.9	
865.94	2170.2	
866.1	4397	
866.27	4125.3	
866.44	3034.4	
866.61	2123.1	
866.78	4033.1	
866.95	4317.8	
867.11	2202.9	
867.28	2061.6	
867.45	4392.9	
867.62	3760.1	
867.79	2414.6	
867.96	2199.5	
868.12	3778.5	
868.29	4263.2	
868.46	2209.1	
868.63	2760.7	
868.8	4265.9	
868.97	4281.6	
869.13	2267.1	
869.3	2289.6	
869.47	4145.8	
869.64	4373.1	
869.81	2187.2	
869.97	2196.1	
870.14	4072.7	
870.31	4483	
870.48	2159.9	
870.65	2642.6	
870.81	4069.3	
870.98	4050.9	
871.15	2376.3	
871.32	2262.3	
871.48	4156.7	
871.65	4502.8	
871.82	2192.7	
871.99	2377.7	
872.16	4674.8	
872.32	4397	
872.49	2252.1	
872.66	2162.7	
872.83	4317.1	
872.99	3887.7	
873.16	2434.4	
873.33	2178.4	
873.5	4147.1	
873.67	4175.8	
873.83	2295.1	
874	2718.3	
874.17	4208.6	
874.34	4509.6	
874.5	2685.6	
874.67	2568.8	
874.84	4483.7	
875.01	3658.4	
875.17	2840.5	
875.34	2164.7	
875.51	4155.3	
875.68	4827.1	
875.84	2587.9	
876.01	2879.4	
876.18	4311	
876.34	4200.4	
876.51	2215.9	
876.68	2136	
876.85	3946.4	
877.01	4442.7	
877.18	2889.7	
877.35	2162.7	
877.52	4264.6	
877.68	3865.2	
877.85	2203.6	
878.02	2141.5	
878.18	3721.2	
878.35	3978.5	
878.52	1870.5	
878.69	2483.5	
878.85	4423.6	
879.02	4209.3	
879.19	2921.8	
879.35	2333.3	
879.52	4302.1	
879.69	4308.9	
879.86	1996.1	
880.02	2409.8	
880.19	4110.3	
880.36	4589.5	
880.52	2405	
880.69	2511.5	
880.86	4300.7	
881.02	4259.8	
881.19	2383.2	
881.36	2256.9	
881.52	4313.7	
881.69	3878.2	
881.86	2392.7	
882.02	2312.2	
882.19	4406.5	
882.36	4891.9	
882.52	2269.1	
882.69	2879.4	
882.86	4109.6	
883.02	4175.1	
883.19	2484.9	
883.36	2424.8	
883.52	4330.1	
883.69	4678.2	
883.86	2186.5	
884.02	2098.5	
884.19	4224.3	
884.36	4117.1	
884.52	2346.3	
884.69	2364	
884.86	3956.7	
885.02	4488.5	
885.19	2364	
885.36	2410.5	
885.52	3877.5	
885.69	4240	
885.86	2890.4	
886.02	2692.4	
886.19	4274.1	
886.35	3850.9	
886.52	2379.1	
886.69	2819.4	
886.85	3803.8	
887.02	4405.9	
887.19	4405.9	
887.35	4405.9	
887.52	4405.9	
887.68	4405.9	
887.85	4405.9	
888.02	4405.9	
888.18	4405.9	
888.35	4405.9	
888.51	4405.9	
888.68	4405.9	
888.85	4405.9	
889.01	4405.9	
889.18	4405.9	
889.35	4405.9	
889.51	4405.9	
889.68	4405.9	
889.84	4405.9	
890.01	4405.9	
890.17	4405.9	
890.34	4405.9	
890.51	4405.9	
890.67	4405.9	
890.84	4405.9	
891	4405.9	
891.17	4405.9	
891.34	4405.9	
891.5	4405.9	
891.67	4405.9	
891.83	4405.9	
892	4405.9	
892.16	4405.9	
892.33	4405.9	
892.5	4405.9	
892.66	4405.9	
892.83	4405.9	
892.99	4405.9	
893.16	4405.9	
893.32	4405.9	
893.49	4405.9	
893.65	4405.9	
893.82	4405.9	
893.99	4405.9	
894.15	4405.9	
894.32	4405.9	
894.48	4405.9	
894.65	4405.9	
894.81	4405.9	
894.98	4405.9	
895.14	4405.9	
895.31	4405.9	
895.47	4405.9	
895.64	4405.9	
895.81	4405.9	
895.97	4405.9	
896.14	4405.9	
896.3	4405.9	
896.47	4405.9	
896.63	4405.9	
896.8	4405.9	
896.96	4405.9	
897.13	4405.9	
897.29	4405.9	
897.46	4405.9	
897.62	4405.9	
897.79	4405.9	
897.95	4405.9	
898.12	4405.9	
898.28	4405.9	
898.45	4405.9	
898.61	4405.9	
898.78	4405.9	
898.94	4405.9	
899.11	4405.9	
899.27	4405.9	
899.44	4405.9	
899.6	4405.9	
899.77	4405.9	
899.93	4405.9	
900.1	4405.9	
900.26	4405.9	
900.43	4405.9	
900.59	4405.9	
900.76	4405.9	
900.92	4405.9	
901.09	4405.9	
901.25	4405.9	
901.42	4405.9	
901.58	4405.9	
901.75	4405.9	
901.91	4405.9	
902.07	4405.9	
902.24	4405.9	
902.4	4405.9	
902.57	4405.9	
902.73	4405.9	
902.9	4405.9	
903.06	4405.9	
903.23	4405.9	
903.39	4405.9	
903.56	4405.9	
903.72	4405.9	
903.88	4405.9	
904.05	4405.9	
904.21	4405.9	
904.38	4405.9	
904.54	4405.9	
904.71	4405.9	
904.87	4405.9	
905.03	4405.9	
905.2	4405.9	
905.36	4405.9	
905.53	4405.9	
905.69	4405.9	
905.86	4405.9	
906.02	4405.9	
906.18	4405.9	
906.35	4405.9	
906.51	4405.9	
906.68	4405.9	
906.84	4405.9	
907.01	4405.9	
907.17	4405.9	
907.33	4405.9	
907.5	4405.9	
907.66	4405.9	
907.83	4405.9	
907.99	4405.9	
908.15	4405.9	
908.32	4405.9	
908.48	4405.9	
908.65	4405.9	
908.81	4405.9	
908.97	4405.9	
909.14	4405.9	
909.3	4405.9	
909.47	4405.9	
909.63	4405.9	
909.79	4405.9	
909.96	4405.9	
910.12	4405.9	
910.28	4405.9	
910.45	4405.9	
910.61	4405.9	
910.78	4405.9	
910.94	4405.9	
911.1	4405.9	
911.27	4405.9	
911.43	4405.9	
911.59	4405.9	
911.76	4405.9	
911.92	4405.9	
912.08	4405.9	
912.25	4405.9	
912.41	4405.9	
912.57	4405.9	
912.74	4405.9	
912.9	4405.9	
913.07	4405.9	
913.23	4405.9	
913.39	4405.9	
913.56	4405.9	
913.72	4405.9	
913.88	4405.9	
914.05	4405.9	
914.21	4405.9	
914.37	4405.9	
914.54	4405.9	
914.7	4405.9	
914.86	4405.9	
915.03	4405.9	
915.19	4405.9	
