Wavelength	Intensities	
nm	a.u.	
179.22	1939.6	
179.44	1928.8	
179.65	1950.3	
179.86	1907.3	
180.08	1916.9	
180.29	5142.4	
180.51	3602.4	
180.72	5711.8	
180.94	6775.4	
181.15	3258.3	
181.37	3192.1	
181.58	5606.7	
181.79	5888.6	
182.01	3429.7	
182.22	3745.1	
182.44	5911.1	
182.65	4925.4	
182.87	4650.3	
183.08	4073.4	
183.29	6178	
183.51	5080.3	
183.72	3778.5	
183.94	5498.1	
184.15	5459.2	
184.37	5506.3	
184.58	3263.8	
184.79	4545.1	
185.01	5114.5	
185.22	5863.3	
185.44	4780.6	
185.65	3973.7	
185.86	5374.6	
186.08	4998.4	
186.29	3232.4	
186.51	3481.5	
186.72	5109.7	
186.94	6085.9	
187.15	3982.6	
187.36	4126	
187.58	7933.1	
187.79	5643.5	
188.01	4343.7	
188.22	6739.9	
188.43	6833.4	
188.65	5849.7	
188.86	3444.7	
189.08	4182.6	
189.29	5381.4	
189.5	5381.4	
189.72	3836.5	
189.93	3901.4	
190.15	6102.3	
190.36	7359.7	
190.57	4199.7	
190.79	4089.8	
191	6192.4	
191.22	6136.4	
191.43	4223.6	
191.64	3457	
191.86	6404.7	
192.07	6116.6	
192.29	3650.8	
192.5	3810.6	
192.71	6127.5	
192.93	5225.1	
193.14	3820.8	
193.35	3879.5	
193.57	5315.8	
193.78	6057.9	
194	3082.9	
194.21	3769.6	
194.42	5032.5	
194.64	5544.5	
194.85	4163.5	
195.07	4896	
195.28	5599.8	
195.49	4850.3	
195.71	5137	
195.92	3598.3	
196.13	5752.1	
196.35	5909.1	
196.56	5474.2	
196.78	4180.6	
196.99	7207.5	
197.2	6778.8	
197.42	4718.5	
197.63	4202.4	
197.84	4887.8	
198.06	5710.4	
198.27	3800.3	
198.48	5209.3	
198.7	5224.4	
198.91	5408	
199.13	4130.1	
199.34	4153.3	
199.55	5951.4	
199.77	4813.4	
199.98	3679.5	
200.19	4222.2	
200.41	5353.4	
200.62	5118.6	
200.83	4384.7	
201.05	4690.5	
201.26	5462.6	
201.47	5179.3	
201.69	3682.2	
201.9	3521.1	
202.11	5483.1	
202.33	6500.9	
202.54	4003.1	
202.76	4444.1	
202.97	5612.8	
203.18	5578.7	
203.4	4323.3	
203.61	4257	
203.82	5622.4	
204.04	5149.3	
204.25	4163.5	
204.46	4089.1	
204.68	5559.6	
204.89	5778.7	
205.1	4064.5	
205.32	3522.5	
205.53	5891.3	
205.74	6084.5	
205.96	2978.4	
206.17	4275.5	
206.38	5917.9	
206.6	6090	
206.81	4747.2	
207.02	3889.8	
207.24	5835.3	
207.45	6250.4	
207.66	4010.6	
207.88	3381.2	
208.09	5738.4	
208.3	5517.9	
208.52	3694.5	
208.73	4018.1	
208.94	5491.3	
209.15	6238.8	
209.37	3971.7	
209.58	4188.1	
209.79	6005.3	
210.01	5286.5	
210.22	3200.3	
210.43	3322.5	
210.65	5492	
210.86	5961	
211.07	3938.9	
211.29	3609.2	
211.5	5929.6	
211.71	5423.7	
211.93	3596.2	
212.14	3635.8	
212.35	5412.8	
212.56	5717.2	
212.78	4265.9	
212.99	3482.2	
213.2	6505.7	
213.42	5257.8	
213.63	3697.3	
213.84	4070.7	
214.06	4882.4	
214.27	4946.5	
214.48	4031.1	
214.69	4306.2	
214.91	6244.3	
215.12	6261.3	
215.33	4300.7	
215.55	4777.9	
215.76	6855.2	
215.97	5883.1	
216.18	4134.8	
216.4	4050.2	
216.61	5158.8	
216.82	6087.9	
217.04	3695.9	
217.25	3814	
217.46	6162.3	
217.67	6027.2	
217.89	3274	
218.1	3411.2	
218.31	5639.4	
218.53	5686.5	
218.74	3848.8	
218.95	3732.8	
219.16	5477.6	
219.38	6460	
219.59	3741.6	
219.8	4494.6	
220.01	7206.1	
220.23	5531.6	
220.44	4929.5	
220.65	3633.8	
220.87	5575.3	
221.08	6197.2	
221.29	3379.1	
221.5	4607.9	
221.72	7600.7	
221.93	5212.1	
222.14	4179.9	
222.35	4986.8	
222.57	5584.1	
222.78	5881.8	
222.99	4029.7	
223.2	4352.6	
223.42	5814.2	
223.63	5999.2	
223.84	3054.9	
224.05	3000.3	
224.27	7111.9	
224.48	6492.7	
224.69	4973.2	
224.9	4220.9	
225.12	5695.4	
225.33	5562.3	
225.54	3306.1	
225.75	3740.3	
225.97	5031.2	
226.18	5361.6	
226.39	4048.8	
226.6	3719.8	
226.82	5231.9	
227.03	5126.7	
227.24	4186.7	
227.45	3459	
227.67	5899.5	
227.88	6511.9	
228.09	4676.2	
228.3	4713.1	
228.52	5987.6	
228.73	5500.8	
228.94	3917.8	
229.15	3429	
229.36	5423.7	
229.58	5295.4	
229.79	3969	
230	4603.8	
230.21	6596.5	
230.43	5585.5	
230.64	4184	
230.85	4377.9	
231.06	5904.3	
231.28	6013.5	
231.49	3405.1	
231.7	4061.8	
231.91	5895.4	
232.12	5508.4	
232.34	3515	
232.55	4009.2	
232.76	6175.3	
232.97	5672.2	
233.18	3645.4	
233.4	4117.8	
233.61	5734.3	
233.82	5275.6	
234.03	3873.4	
234.25	3784.6	
234.46	7598	
234.67	5602.6	
234.88	4371.7	
235.09	3716.4	
235.31	5823.1	
235.52	5392.3	
235.73	4127.3	
235.94	3495.9	
236.15	5261.9	
236.37	6720.1	
236.58	3728.7	
236.79	4048.8	
237	5823.1	
237.21	5025	
237.43	4367.6	
237.64	3430.3	
237.85	10150	
238.06	5111.7	
238.27	4364.2	
238.48	3474	
238.7	5896.1	
238.91	5402.5	
239.12	3969	
239.33	4020.8	
239.54	5094	
239.76	5423	
239.97	3989.4	
240.18	3979.2	
240.39	7043	
240.6	5841.5	
240.82	4128	
241.03	3401.7	
241.24	5498.8	
241.45	6408.1	
241.66	3617.4	
241.87	4293.2	
242.09	6230.6	
242.3	6633.4	
242.51	4334.9	
242.72	3994.2	
242.93	5984.8	
243.14	5444.2	
243.36	4699.4	
243.57	5042.1	
243.78	6441.5	
243.99	5934.3	
244.2	4050.2	
244.41	3628.3	
244.63	5052.3	
244.84	5859.9	
245.05	4227.7	
245.26	4029	
245.47	5802.6	
245.68	6141.2	
245.9	5424.4	
246.11	4198.3	
246.32	5391.6	
246.53	5767.8	
246.74	6603.3	
246.95	3344.3	
247.16	4979.3	
247.38	5494.7	
247.59	3282.9	
247.8	4060.4	
248.01	5223.7	
248.22	5461.2	
248.43	3631.7	
248.64	3882.9	
248.86	4881	
249.07	5187.5	
249.28	3476.1	
249.49	4136.2	
249.7	6189	
249.91	6258.6	
250.12	3322.5	
250.34	3405.8	
250.55	5589.6	
250.76	5502.9	
250.97	4248.9	
251.18	4179.2	
251.39	6254.5	
251.6	5705	
251.81	4233.8	
252.03	4220.2	
252.24	5216.2	
252.45	6051.1	
252.66	3457	
252.87	4432.5	
253.08	5504.9	
253.29	7352.2	
253.5	3451.5	
253.72	4904.2	
253.93	5390.3	
254.14	6570.6	
254.35	3789.4	
254.56	3915.7	
254.77	5810.8	
254.98	5109.7	
255.19	3767.6	
255.41	4827.1	
255.62	5597.1	
255.83	6221.7	
256.04	4378.6	
256.25	4250.9	
256.46	6814.3	
256.67	5226.4	
256.88	4104.8	
257.09	4653.7	
257.31	5154.7	
257.52	5258.5	
257.73	5193.6	
257.94	3814.7	
258.15	5385.5	
258.36	5533.6	
258.57	4782.7	
258.78	3054.9	
258.99	6023.8	
259.2	5347.9	
259.41	3831.7	
259.63	4017.4	
259.84	6425.2	
260.05	7002	
260.26	5022.3	
260.47	3722.5	
260.68	6141.2	
260.89	5468.1	
261.1	4668	
261.31	3644.7	
261.52	6125.5	
261.73	6480.5	
261.95	4872.1	
262.16	4307.6	
262.37	6298.9	
262.58	6393.8	
262.79	4922.6	
263	3932.1	
263.21	5493.3	
263.42	4977.2	
263.63	3928.7	
263.84	3898	
264.05	6094.1	
264.26	6432	
264.47	4822.3	
264.69	4336.2	
264.9	6257.9	
265.11	5739.8	
265.32	3730	
265.53	3838.6	
265.74	5679.7	
265.95	4887.8	
266.16	4051.6	
266.37	4530.8	
266.58	5716.6	
266.79	5406.6	
267	3754.6	
267.21	3479.5	
267.42	5163.6	
267.63	5492	
267.84	3948.5	
268.06	3407.8	
268.27	5957.5	
268.48	6312.5	
268.69	3899.3	
268.9	4654.4	
269.11	6242.9	
269.32	4996.4	
269.53	4000.4	
269.74	3713	
269.95	5878.4	
270.16	4892.6	
270.37	4028.4	
270.58	4652.3	
270.79	5333.6	
271	6059.9	
271.21	4311	
271.42	4067.3	
271.63	5650.3	
271.84	5206.6	
272.05	3230.3	
272.26	3605.1	
272.47	5573.2	
272.68	5787.6	
272.89	3783.3	
273.11	4440	
273.32	5354.8	
273.53	6524.8	
273.74	4344.4	
273.95	4307.6	
274.16	6229.2	
274.37	5642.2	
274.58	4400.4	
274.79	3476.1	
275	5583.4	
275.21	6259.3	
275.42	5266	
275.63	4560.1	
275.84	5733.6	
276.05	7258.7	
276.26	4203.1	
276.47	3958	
276.68	5393.7	
276.89	6582.2	
277.1	4547.9	
277.31	3523.2	
277.52	5862	
277.73	5900.9	
277.94	3478.1	
278.15	3867.2	
278.36	5724.1	
278.57	5146.5	
278.78	3803.1	
278.99	4368.3	
279.2	5171.8	
279.41	5087.2	
279.62	5101.5	
279.83	3568.9	
280.04	6841.6	
280.25	5038.7	
280.46	5091.9	
280.67	3988.1	
280.88	5147.9	
281.09	6248.4	
281.3	4246.8	
281.51	5342.5	
281.72	6092	
281.93	6127.5	
282.14	3724.6	
282.35	4041.3	
282.56	6055.8	
282.77	6057.2	
282.98	3880.2	
283.19	4783.4	
283.4	7469.6	
283.61	5495.4	
283.82	3580.5	
284.03	5003.9	
284.24	5631.9	
284.45	6272.9	
284.66	4964.3	
284.87	4771.1	
285.08	6137.1	
285.29	6335	
285.5	3366.9	
285.71	3919.8	
285.92	6201.9	
286.12	6890.7	
286.33	4956.1	
286.54	3869.3	
286.75	6054.5	
286.96	5377.3	
287.17	3552.5	
287.38	4819.6	
287.59	5160.2	
287.8	5102.2	
288.01	3924.6	
288.22	4571.1	
288.43	6055.8	
288.64	5053	
288.85	4674.8	
289.06	4506.9	
289.27	6006.7	
289.48	6555.5	
289.69	5063.3	
289.9	4503.5	
290.11	6241.5	
290.32	5241.4	
290.53	4795	
290.74	4414.7	
290.94	6056.5	
291.15	6083.8	
291.36	3875.4	
291.57	4487.8	
291.78	5335	
291.99	4989.5	
292.2	3593.5	
292.41	4351.3	
292.62	6137.1	
292.83	5840.1	
293.04	5442.1	
293.25	3646.7	
293.46	5346.6	
293.67	6161.7	
293.88	3801	
294.09	3663.8	
294.29	5057.1	
294.5	5651	
294.71	4050.9	
294.92	3838.6	
295.13	5280.3	
295.34	6705	
295.55	3375.1	
295.76	3482.2	
295.97	6010.1	
296.18	6756.2	
296.39	3602.4	
296.6	3790.8	
296.81	5633.3	
297.01	5991.7	
297.22	3949.2	
297.43	3761.4	
297.64	5127.4	
297.85	5159.5	
298.06	3106.1	
298.27	3459	
298.48	5578	
298.69	5233.2	
298.9	4050.9	
299.11	3721.2	
299.31	4995.7	
299.52	5075.5	
299.73	4351.9	
299.94	4302.1	
300.15	5534.3	
300.36	5147.2	
300.57	4330.1	
300.78	4294.6	
300.99	5397.8	
301.2	5681.7	
301.4	3712.3	
301.61	4123.2	
301.82	5871.5	
302.03	6024.4	
302.24	4624.3	
302.45	3567.6	
302.66	5873.6	
302.87	6358.3	
303.08	3759.4	
303.29	5200.5	
303.49	5258.5	
303.7	5531.6	
303.91	3315	
304.12	4962.9	
304.33	5007.3	
304.54	5685.2	
304.75	3812.6	
304.96	3596.9	
305.16	5896.8	
305.37	6698.2	
305.58	3276.8	
305.79	3407.8	
306	5863.3	
306.21	4935.6	
306.42	3825.6	
306.63	5785.5	
306.83	5380	
307.04	6180.1	
307.25	4159.4	
307.46	4142.4	
307.67	4729.4	
307.88	6107	
308.09	3677.5	
308.29	3818.1	
308.5	5654.4	
308.71	6158.9	
308.92	4014	
309.13	3691.8	
309.34	5383.4	
309.55	5531.6	
309.75	4721.3	
309.96	4329.4	
310.17	6001.2	
310.38	5250.3	
310.59	4573.1	
310.8	3500	
311.01	5480.4	
311.21	5451	
311.42	3601.7	
311.63	3705.5	
311.84	5304.9	
312.05	5631.2	
312.26	4216.8	
312.46	4584.7	
312.67	5382.1	
312.88	5091.3	
313.09	3672	
313.3	3532.1	
313.51	6358.9	
313.71	6788.3	
313.92	3585.3	
314.13	3852.9	
314.34	5736.4	
314.55	5491.3	
314.76	4719.2	
314.96	4022.2	
315.17	5632.6	
315.38	5997.8	
315.59	3694.5	
315.8	3437.2	
316.01	6520.7	
316.21	6506.4	
316.42	3491.1	
316.63	3992.2	
316.84	5373.2	
317.05	6269.5	
317.26	4296.6	
317.46	3870.7	
317.67	5482.4	
317.88	6005.3	
318.09	4695.3	
318.3	3403.7	
318.5	5270.1	
318.71	5890	
318.92	5956.2	
319.13	4307.6	
319.34	6129.6	
319.54	6195.1	
319.75	3413.3	
319.96	3262.4	
320.17	5933	
320.38	6166.4	
320.58	3345	
320.79	4016.7	
321	6166.4	
321.21	6237.4	
321.42	4061.1	
321.62	3286.3	
321.83	5079.6	
322.04	5579.3	
322.25	3814	
322.46	3719.8	
322.66	5629.9	
322.87	5855.1	
323.08	4620.9	
323.29	3630.4	
323.5	6670.2	
323.7	5134.3	
323.91	4997	
324.12	4492.6	
324.33	5644.2	
324.53	5924.8	
324.74	4326	
324.95	4575.8	
325.16	4898.1	
325.37	5407.3	
325.57	3686.3	
325.78	3731.4	
325.99	5626.5	
326.2	5082.4	
326.4	5345.9	
326.61	3413.3	
326.82	5560.2	
327.03	5672.2	
327.24	5248.3	
327.44	5023.7	
327.65	5857.2	
327.86	4706.2	
328.07	4326.7	
328.27	3525.2	
328.48	6260	
328.69	5113.8	
328.9	5364.3	
329.1	3961.5	
329.31	5444.9	
329.52	6434	
329.73	3652.9	
329.93	4190.1	
330.14	5573.2	
330.35	5821	
330.56	6075.6	
330.76	4462.5	
330.97	5360.9	
331.18	5762.3	
331.39	4113.7	
331.59	3296.5	
331.8	6167.1	
332.01	6339.8	
332.22	3736.2	
332.42	4326	
332.63	5690.6	
332.84	5182	
333.05	4158.1	
333.25	3691.8	
333.46	5276.9	
333.67	5588.2	
333.88	3799	
334.08	4228.4	
334.29	7465.5	
334.5	6277	
334.7	3556	
334.91	5230.5	
335.12	5111.7	
335.33	5961.6	
335.53	4008.6	
335.74	6051.1	
335.95	5246.2	
336.16	5179.3	
336.36	4029	
336.57	4628.4	
336.78	4997	
336.98	6191	
337.19	4998.4	
337.4	3988.1	
337.61	6744.6	
337.81	5085.8	
338.02	3720.5	
338.23	4840	
338.43	6363.7	
338.64	5233.9	
338.85	3680.9	
339.05	4817.5	
339.26	6424.5	
339.47	4923.3	
339.68	3675.4	
339.88	5415.5	
340.09	5881.1	
340.3	6062	
340.5	4328	
340.71	3295.9	
340.92	5034.6	
341.13	6307.1	
341.33	3597.6	
341.54	4332.8	
341.75	5799.2	
341.95	5407.3	
342.16	4096.6	
342.37	4504.2	
342.57	5101.5	
342.78	5484.5	
342.99	4616.1	
343.19	3248.8	
343.4	6059.9	
343.61	5838.8	
343.81	3842	
344.02	3560.7	
344.23	6025.1	
344.43	6468.2	
344.64	4604.5	
344.85	4495.3	
345.06	5871.5	
345.26	6197.8	
345.47	4219.5	
345.68	4958.8	
345.88	4884.4	
346.09	6085.2	
346.3	4293.2	
346.5	3243.3	
346.71	5621.7	
346.92	5257.1	
347.12	3347.7	
347.33	4272.7	
347.54	6159.6	
347.74	6549.4	
347.95	4233.2	
348.16	3164.8	
348.36	5328.8	
348.57	5150.6	
348.78	4158.7	
348.98	4509.6	
349.19	5559.6	
349.39	5018.2	
349.6	3420.1	
349.81	3762.1	
350.01	5746.6	
350.22	5246.9	
350.43	4062.5	
350.63	4925.4	
350.84	5583.4	
351.05	5391.6	
351.25	3678.8	
351.46	3328.6	
351.67	6175.3	
351.87	5255.1	
352.08	3918.4	
352.29	4506.9	
352.49	6057.9	
352.7	5759.6	
352.9	3545	
353.11	4517.1	
353.32	6794.5	
353.52	5399.1	
353.73	3517.7	
353.94	4554	
354.14	5894.7	
354.35	5749.3	
354.55	3665.9	
354.76	4032.5	
354.97	5875.6	
355.17	5605.3	
355.38	3493.2	
355.59	4889.2	
355.79	5298.8	
356	5750.7	
356.2	4085.7	
356.41	3519.8	
356.62	4986.1	
356.82	5504.3	
357.03	4352.6	
357.24	3958.7	
357.44	5296	
357.65	5400.5	
357.85	5308.3	
358.06	4147.1	
358.27	5041.4	
358.47	5278.3	
358.68	3439.9	
358.88	4384.7	
359.09	5905.7	
359.3	6314.6	
359.5	5126.1	
359.71	4530.1	
359.91	6769.2	
360.12	6100.9	
360.33	4317.1	
360.53	4894.6	
360.74	5328.1	
360.94	5408	
361.15	4597	
361.36	3809.9	
361.56	6163.7	
361.77	5596.4	
361.97	5179.3	
362.18	4031.1	
362.38	6264.1	
362.59	5261.2	
362.8	3719.1	
363	3583.3	
363.21	5037.3	
363.41	5723.4	
363.62	4379.9	
363.83	5407.3	
364.03	5795.8	
364.24	6911.9	
364.44	5470.8	
364.65	5497.4	
364.85	5565	
365.06	5208	
365.27	3926	
365.47	3989.4	
365.68	6679.1	
365.88	5571.2	
366.09	4441.4	
366.29	4073.4	
366.5	5913.2	
366.71	6279.1	
366.91	5476.3	
367.12	4602.5	
367.32	6931.7	
367.53	6143.9	
367.73	4542.4	
367.94	5554.8	
368.14	6135.7	
368.35	7061.4	
368.56	4607.9	
368.76	3842.7	
368.97	6227.2	
369.17	8031.5	
369.38	4024.9	
369.58	4277.5	
369.79	5244.8	
369.99	6567.8	
370.2	5333.6	
370.4	4373.8	
370.61	5985.5	
370.82	7180.2	
371.02	4259.8	
371.23	3570.3	
371.43	5190.2	
371.64	6559.6	
371.84	4380.6	
372.05	5662	
372.25	8021.2	
372.46	6305	
372.66	4359.4	
372.87	4304.1	
373.07	6409.5	
373.28	8086.7	
373.48	5421	
373.69	5184.8	
373.9	5854.5	
374.1	5924.1	
374.31	5453.7	
374.51	4955.4	
374.72	6784.9	
374.92	5511.8	
375.13	5666	
375.33	4780	
375.54	6309.1	
375.74	5737.7	
375.95	4928.1	
376.15	6242.2	
376.36	6280.4	
376.56	6210.8	
376.77	5075.5	
376.97	5388.9	
377.18	7548.8	
377.38	6541.2	
377.59	5894.1	
377.79	4501.4	
378	6251.1	
378.2	6820.4	
378.41	4624.3	
378.61	4493.2	
378.82	6875.7	
379.02	5867.4	
379.23	4672.8	
379.43	5924.1	
379.64	6965.8	
379.84	6565.1	
380.05	4573.8	
380.25	4488.5	
380.46	6634.1	
380.66	6231.3	
380.87	6014.2	
381.07	6316.6	
381.28	7228	
381.48	6599.9	
381.69	4595.6	
381.89	4604.5	
382.1	5526.8	
382.3	6897.6	
382.51	5823.7	
382.71	6716	
382.91	6671.6	
383.12	7155.6	
383.32	4930.1	
383.53	5154.1	
383.73	6426.5	
383.94	6191.7	
384.14	5079	
384.35	4149.2	
384.55	6128.9	
384.76	6634.1	
384.96	4917.2	
385.17	5248.3	
385.37	6520	
385.58	5806.7	
385.78	5304.9	
385.98	4118.5	
386.19	6023.1	
386.39	6473.6	
386.6	4703.5	
386.8	5046.9	
387.01	6590.4	
387.21	6663.4	
387.42	5444.2	
387.62	6060.6	
387.83	5886.5	
388.03	6648.4	
388.23	5123.3	
388.44	5915.9	
388.64	5690.6	
388.85	5788.2	
389.05	5550.7	
389.26	6091.3	
389.46	7750.9	
389.67	7167.2	
389.87	5444.9	
390.07	5559.6	
390.28	6399.2	
390.48	5907.7	
390.69	4726.7	
390.89	5014.8	
391.1	6097.5	
391.3	7122.2	
391.5	6304.3	
391.71	6931	
391.91	6846.4	
392.12	7827.3	
392.32	6308.4	
392.53	5450.3	
392.73	6206	
392.93	6357.6	
393.14	5207.3	
393.34	5976	
393.55	6886	
393.75	6352.1	
393.95	5150.6	
394.16	5077.6	
394.36	6176	
394.57	6830.7	
394.77	4605.2	
394.98	5074.2	
395.18	6093.4	
395.38	6330.3	
395.59	6058.6	
395.79	5020.9	
396	6320.7	
396.2	6847.7	
396.4	5963.7	
396.61	5866.1	
396.81	7081.9	
397.02	6344.6	
397.22	6221.7	
397.42	6287.3	
397.63	7032.7	
397.83	6383.5	
398.04	5014.1	
398.24	5695.4	
398.44	6873	
398.65	5854.5	
398.85	4904.9	
399.05	5057.1	
399.26	6328.9	
399.46	8201.4	
399.67	5553.4	
399.87	5205.9	
400.07	6758.3	
400.28	7194.5	
400.48	5286.5	
400.69	6461.3	
400.89	7503.1	
401.09	7923.6	
401.3	5313.8	
401.5	6465.4	
401.7	8262.9	
401.91	8425.3	
402.11	5581.4	
402.32	5898.2	
402.52	7481.2	
402.72	7259.4	
402.93	6019	
403.13	4705.5	
403.33	8114.7	
403.54	6702.3	
403.74	5566.4	
403.94	6510.5	
404.15	6783.6	
404.35	8042.4	
404.56	5455.8	
404.76	7359.7	
404.96	7364.5	
405.17	7108.5	
405.37	6473.6	
405.57	5994.4	
405.78	7518.1	
405.98	6732.4	
406.18	5507	
406.39	6479.8	
406.59	7348.8	
406.79	7023.2	
407	5229.1	
407.2	5425.1	
407.4	7486	
407.61	7674.4	
407.81	5593.7	
408.01	7879.9	
408.22	6494.8	
408.42	8694.3	
408.62	6843.6	
408.83	6423.1	
409.03	7398.6	
409.23	7306.5	
409.44	6514.6	
409.64	6923.5	
409.84	8541.4	
410.05	8490.2	
410.25	6766.5	
410.45	6597.2	
410.66	8051.2	
410.86	10697	
411.06	7185.6	
411.27	6952.9	
411.47	10485	
411.67	8290.9	
411.88	7344.7	
412.08	7652.6	
412.28	9065	
412.49	9545.6	
412.69	7223.2	
412.89	7197.9	
413.09	9460.9	
413.3	9190.6	
413.5	7416.4	
413.7	6893.5	
413.91	8460.2	
414.11	9467.8	
414.31	7116.7	
414.52	7815.7	
414.72	9122.3	
414.92	9043.8	
415.12	7219.8	
415.33	7822.6	
415.53	9585.2	
415.73	9742.2	
415.94	8178.2	
416.14	7678.5	
416.34	8503.8	
416.55	8254.7	
416.75	9024	
416.95	8314.1	
417.15	9580.4	
417.36	10289	
417.56	9317.6	
417.76	8294.3	
417.97	10056	
418.17	9737.4	
418.37	7778.9	
418.57	7855.3	
418.78	9411.1	
418.98	9069.8	
419.18	8844.5	
419.38	8611	
419.59	9133.9	
419.79	8650.6	
419.99	7724.3	
420.2	8144.1	
420.4	9697.1	
420.6	9828.2	
420.8	7636.9	
421.01	7465.5	
421.21	9505.3	
421.41	9707.4	
421.61	7978.9	
421.82	7668.3	
422.02	9093	
422.22	9969.5	
422.42	8690.9	
422.63	8085.4	
422.83	9121	
423.03	10421	
423.23	8246.5	
423.44	7111.9	
423.64	9183.8	
423.84	8871.8	
424.04	7636.9	
424.25	7253.9	
424.45	10073	
424.65	9959.3	
424.85	6952.2	
425.06	7577.5	
425.26	10020	
425.46	8564.6	
425.66	8075.8	
425.87	7698.3	
426.07	9749.7	
426.27	9508	
426.47	7940.7	
426.67	7138.5	
426.88	10117	
427.08	9476	
427.28	8170	
427.48	7114	
427.69	8239.7	
427.89	9083.4	
428.09	8266.3	
428.29	7081.2	
428.5	9780.4	
428.7	9310.7	
428.9	7198.6	
429.1	7784.3	
429.3	9245.9	
429.51	9773.6	
429.71	7496.9	
429.91	8389.2	
430.11	9555.8	
430.31	9979.1	
430.52	7767.3	
430.72	8180.3	
430.92	10256	
431.12	9778.4	
431.32	7576.8	
431.53	7903.8	
431.73	8551	
431.93	10417	
432.13	7402.7	
432.33	7300.3	
432.54	9092.3	
432.74	9672.6	
432.94	7344.7	
433.14	8370.7	
433.34	9704	
433.55	9334.6	
433.75	8444.5	
433.95	10378	
434.15	9481.4	
434.35	9312.1	
434.56	7665.5	
434.76	7236.2	
434.96	9493	
435.16	10015	
435.36	7560.4	
435.56	8751	
435.77	9396.8	
435.97	9515.5	
436.17	9574.3	
436.37	8783.1	
436.57	9314.2	
436.78	9394	
436.98	10632	
437.18	9437	
437.38	10177	
437.58	9538.1	
437.78	9510.1	
437.99	8004.1	
438.19	9983.8	
438.39	10796	
438.59	7935.2	
438.79	7411.6	
438.99	10735	
439.2	9525.8	
439.4	7621.9	
439.6	7572.7	
439.8	10019	
440	11146	
440.2	8893	
440.4	8977.6	
440.61	10487	
440.81	11157	
441.01	8070.4	
441.21	9102.5	
441.41	11099	
441.61	10555	
441.81	9487.6	
442.02	10634	
442.22	11600	
442.42	10683	
442.62	8443.8	
442.82	8262.9	
443.02	11080	
443.22	10331	
443.43	8809	
443.63	8409.6	
443.83	9800.9	
444.03	10050	
444.23	9850.7	
444.43	9371.5	
444.63	10338	
444.83	11713	
445.04	8563.9	
445.24	9878.7	
445.44	10727	
445.64	10865	
445.84	9149	
446.04	9316.9	
446.24	9904	
446.44	11083	
446.65	8254	
446.85	8854.7	
447.05	10005	
447.25	11002	
447.45	8862.2	
447.65	8342.1	
447.85	10234	
448.05	9727.2	
448.25	9364.7	
448.46	9207.7	
448.66	10279	
448.86	10058	
449.06	8178.9	
449.26	9391.3	
449.46	10856	
449.66	9648.7	
449.86	9040.4	
450.06	8921.6	
450.26	10009	
450.47	10715	
450.67	9126.4	
450.87	9616.6	
451.07	10743	
451.27	10595	
451.47	8533.9	
451.67	9260.2	
451.87	10208	
452.07	11323	
452.27	8888.2	
452.47	8771.5	
452.67	10460	
452.88	11103	
453.08	7996.6	
453.28	10284	
453.48	11895	
453.68	10391	
453.88	8826.1	
454.08	8989.9	
454.28	11060	
454.48	10575	
454.68	9560.6	
454.88	10071	
455.08	11047	
455.28	11116	
455.48	8653.4	
455.68	9419.3	
455.89	11790	
456.09	11402	
456.29	9117.6	
456.49	9408.4	
456.69	11775	
456.89	11069	
457.09	9972.9	
457.29	10393	
457.49	11438	
457.69	11714	
457.89	9950.4	
458.09	9306	
458.29	11292	
458.49	12044	
458.69	10334	
458.89	9891	
459.09	12349	
459.29	12529	
459.49	9858.2	
459.69	10845	
459.9	11878	
460.1	11581	
460.3	9679.4	
460.5	9586.5	
460.7	11880	
460.9	11654	
461.1	9304.6	
461.3	10886	
461.5	12739	
461.7	12371	
461.9	10150	
462.1	10415	
462.3	11875	
462.5	12473	
462.7	10155	
462.9	10363	
463.1	13767	
463.3	13574	
463.5	10473	
463.7	11781	
463.9	12310	
464.1	12773	
464.3	10987	
464.5	11161	
464.7	13174	
464.9	12925	
465.1	12577	
465.3	11701	
465.5	13530	
465.7	13654	
465.9	12035	
466.1	11499	
466.3	13576	
466.5	13228	
466.7	12933	
466.9	11557	
467.1	13322	
467.3	14170	
467.5	12975	
467.7	11796	
467.9	14569	
468.1	15618	
468.3	12433	
468.5	12972	
468.7	13412	
468.9	13379	
469.1	12177	
469.3	12861	
469.5	15560	
469.7	13197	
469.9	12488	
470.1	11871	
470.3	13452	
470.5	13435	
470.7	13110	
470.9	11794	
471.1	13366	
471.3	13480	
471.5	11758	
471.69	13787	
471.89	13012	
472.09	12621	
472.29	12538	
472.49	12788	
472.69	12927	
472.89	13678	
473.09	11697	
473.29	11546	
473.49	12983	
473.69	12981	
473.89	12678	
474.09	11816	
474.29	14392	
474.49	13943	
474.69	12723	
474.89	11706	
475.09	13136	
475.29	13089	
475.49	11198	
475.69	11625	
475.88	14565	
476.08	13258	
476.28	11178	
476.48	11557	
476.68	13655	
476.88	13493	
477.08	11351	
477.28	11800	
477.48	12886	
477.68	13657	
477.88	11302	
478.08	11574	
478.28	14231	
478.48	13083	
478.67	11610	
478.87	10848	
479.07	14070	
479.27	13304	
479.47	11888	
479.67	11800	
479.87	13738	
480.07	14324	
480.27	11072	
480.47	12875	
480.67	13351	
480.87	14051	
481.06	11488	
481.26	12418	
481.46	13341	
481.66	13308	
481.86	12029	
482.06	13040	
482.26	13063	
482.46	14126	
482.66	11871	
482.86	11591	
483.05	13469	
483.25	12911	
483.45	14504	
483.65	12022	
483.85	13138	
484.05	13454	
484.25	12334	
484.45	13062	
484.65	14376	
484.84	14544	
485.04	11962	
485.24	12080	
485.44	14844	
485.64	13026	
485.84	11411	
486.04	12976	
486.24	13402	
486.44	13934	
486.63	11360	
486.83	12374	
487.03	13489	
487.23	13702	
487.43	11575	
487.63	14205	
487.83	13840	
488.02	14821	
488.22	12891	
488.42	13497	
488.62	14753	
488.82	13786	
489.02	12405	
489.22	12682	
489.41	14521	
489.61	14350	
489.81	12119	
490.01	12189	
490.21	14615	
490.41	15365	
490.61	11886	
490.8	12241	
491	14142	
491.2	13177	
491.4	12820	
491.6	11843	
491.8	13992	
491.99	14091	
492.19	11729	
492.39	12222	
492.59	14700	
492.79	14898	
492.99	13278	
493.18	12336	
493.38	14915	
493.58	16030	
493.78	13317	
493.98	12975	
494.18	14801	
494.37	14407	
494.57	13830	
494.77	13653	
494.97	15446	
495.17	15801	
495.37	13408	
495.56	13807	
495.76	16135	
495.96	15646	
496.16	14767	
496.36	13820	
496.55	15932	
496.75	15441	
496.95	14134	
497.15	13947	
497.35	15847	
497.54	16064	
497.74	13833	
497.94	15703	
498.14	16733	
498.34	16602	
498.53	13799	
498.73	14432	
498.93	15476	
499.13	16116	
499.33	14384	
499.52	14951	
499.72	16266	
499.92	16442	
500.12	14147	
500.32	14311	
500.51	16447	
500.71	16267	
500.91	15340	
501.11	14839	
501.31	16448	
501.5	16799	
501.7	15517	
501.9	14465	
502.1	16077	
502.29	16474	
502.49	15026	
502.69	15242	
502.89	16445	
503.09	16354	
503.28	13650	
503.48	13719	
503.68	15243	
503.88	15575	
504.07	15045	
504.27	14190	
504.47	15808	
504.67	15808	
504.86	14703	
505.06	14257	
505.26	15307	
505.46	17239	
505.65	14135	
505.85	14248	
506.05	15205	
506.25	15499	
506.44	13214	
506.64	14203	
506.84	14881	
507.04	15892	
507.23	13498	
507.43	14048	
507.63	17111	
507.83	15321	
508.02	13913	
508.22	13618	
508.42	17383	
508.62	14970	
508.81	13863	
509.01	14445	
509.21	14647	
509.4	15018	
509.6	14164	
509.8	13426	
510	15020	
510.19	16732	
510.39	13426	
510.59	13547	
510.79	14990	
510.98	16455	
511.18	13636	
511.38	13818	
511.57	15656	
511.77	15702	
511.97	14439	
512.17	13156	
512.36	15732	
512.56	15580	
512.76	13267	
512.95	13117	
513.15	15846	
513.35	14404	
513.55	14277	
513.74	13501	
513.94	15770	
514.14	15110	
514.33	14487	
514.53	14257	
514.73	15117	
514.92	15328	
515.12	13569	
515.32	13570	
515.51	15522	
515.71	16197	
515.91	15495	
516.11	13570	
516.3	17304	
516.5	15010	
516.7	14184	
516.89	14956	
517.09	15169	
517.29	15118	
517.48	14492	
517.68	13728	
517.88	14947	
518.07	15561	
518.27	14543	
518.47	13319	
518.66	16212	
518.86	14721	
519.06	13155	
519.25	13748	
519.45	15274	
519.65	16740	
519.84	14335	
520.04	15251	
520.24	17053	
520.43	15706	
520.63	13898	
520.83	13720	
521.02	14833	
521.22	15479	
521.42	14217	
521.61	14854	
521.81	15092	
522.01	15236	
522.2	14137	
522.4	13837	
522.6	15877	
522.79	14764	
522.99	14035	
523.18	13465	
523.38	15797	
523.58	15997	
523.77	15894	
523.97	13802	
524.17	18033	
524.36	17176	
524.56	15167	
524.76	15100	
524.95	16375	
525.15	15892	
525.34	14855	
525.54	14958	
525.74	16808	
525.93	15745	
526.13	16234	
526.33	15088	
526.52	17315	
526.72	16824	
526.91	16567	
527.11	15752	
527.31	17489	
527.5	17978	
527.7	15765	
527.89	14745	
528.09	16471	
528.29	17307	
528.48	16305	
528.68	15778	
528.87	17458	
529.07	17492	
529.27	15470	
529.46	15159	
529.66	16805	
529.85	17391	
530.05	14965	
530.25	15570	
530.44	18507	
530.64	16954	
530.83	15423	
531.03	15739	
531.23	17416	
531.42	17326	
531.62	16696	
531.81	15782	
532.01	17907	
532.21	18511	
532.4	15831	
532.6	16378	
532.79	18654	
532.99	18286	
533.18	16465	
533.38	17438	
533.58	17832	
533.77	18654	
533.97	16664	
534.16	17473	
534.36	19052	
534.55	18006	
534.75	17608	
534.95	16706	
535.14	18959	
535.34	17915	
535.53	16163	
535.73	18338	
535.92	19304	
536.12	18114	
536.31	16280	
536.51	17482	
536.71	18329	
536.9	17871	
537.1	16356	
537.29	16580	
537.49	18812	
537.68	17751	
537.88	17027	
538.07	16102	
538.27	18295	
538.46	19307	
538.66	16178	
538.86	16712	
539.05	18359	
539.25	18647	
539.44	17053	
539.64	16383	
539.83	17863	
540.03	19126	
540.22	16372	
540.42	16289	
540.61	18042	
540.81	18313	
541	16717	
541.2	17535	
541.39	17507	
541.59	18067	
541.78	17194	
541.98	16018	
542.18	17090	
542.37	17164	
542.57	16264	
542.76	16967	
542.96	16952	
543.15	17764	
543.35	16100	
543.54	15623	
543.74	17856	
543.93	17501	
544.13	15993	
544.32	17178	
544.52	17764	
544.71	16839	
544.91	14980	
545.1	16401	
545.3	16995	
545.49	17784	
545.69	14892	
545.88	15565	
546.08	18673	
546.27	18195	
546.47	16151	
546.66	15303	
546.86	17714	
547.05	18467	
547.24	15378	
547.44	15497	
547.63	16709	
547.83	17961	
548.02	15778	
548.22	16004	
548.41	16374	
548.61	17850	
548.8	15154	
549	15167	
549.19	16891	
549.39	17273	
549.58	14765	
549.78	15537	
549.97	17395	
550.17	16695	
550.36	16186	
550.55	17359	
550.75	16685	
550.94	17661	
551.14	14943	
551.33	15246	
551.53	16008	
551.72	17124	
551.92	15400	
552.11	15079	
552.31	17147	
552.5	17200	
552.69	16731	
552.89	14564	
553.08	16981	
553.28	16591	
553.47	14911	
553.67	16382	
553.86	17580	
554.06	15741	
554.25	14132	
554.44	14771	
554.64	18335	
554.83	17858	
555.03	14595	
555.22	15077	
555.42	17077	
555.61	16799	
555.8	14872	
556	15056	
556.19	15831	
556.39	17044	
556.58	14721	
556.78	14705	
556.97	16502	
557.16	16195	
557.36	16143	
557.55	14459	
557.75	15451	
557.94	17397	
558.13	14500	
558.33	14320	
558.52	17187	
558.72	15904	
558.91	14291	
559.1	14461	
559.3	15513	
559.49	15118	
559.69	13776	
559.88	14860	
560.07	16382	
560.27	16796	
560.46	14973	
560.66	15218	
560.85	16225	
561.04	15210	
561.24	14195	
561.43	14336	
561.63	15414	
561.82	15710	
562.01	15860	
562.21	14610	
562.4	16122	
562.59	17264	
562.79	14556	
562.98	14222	
563.18	16175	
563.37	17893	
563.56	15065	
563.76	14380	
563.95	15729	
564.14	15504	
564.34	14609	
564.53	14349	
564.73	16343	
564.92	16784	
565.11	14879	
565.31	14349	
565.5	16917	
565.69	15726	
565.89	14416	
566.08	14762	
566.27	16837	
566.47	17385	
566.66	15570	
566.85	14151	
567.05	16411	
567.24	15786	
567.44	14457	
567.63	15937	
567.82	16662	
568.02	16384	
568.21	14453	
568.4	14870	
568.6	16367	
568.79	16413	
568.98	14413	
569.18	14752	
569.37	16490	
569.56	18615	
569.76	14978	
569.95	15947	
570.14	16724	
570.34	16697	
570.53	14435	
570.72	14457	
570.91	17219	
571.11	16371	
571.3	15073	
571.49	15969	
571.69	16503	
571.88	15957	
572.07	15537	
572.27	15452	
572.46	15915	
572.65	17100	
572.85	14655	
573.04	15175	
573.23	17468	
573.43	16591	
573.62	14567	
573.81	15332	
574	16904	
574.2	16606	
574.39	15152	
574.58	15292	
574.78	17845	
574.97	17051	
575.16	15723	
575.36	16026	
575.55	17656	
575.74	17644	
575.93	14740	
576.13	16111	
576.32	16787	
576.51	17333	
576.71	15208	
576.9	16752	
577.09	17643	
577.28	17218	
577.48	16008	
577.67	14745	
577.86	16963	
578.05	17415	
578.25	15536	
578.44	15631	
578.63	17058	
578.83	18275	
579.02	14972	
579.21	16632	
579.4	17355	
579.6	17045	
579.79	15554	
579.98	18032	
580.17	17647	
580.37	17799	
580.56	15126	
580.75	16056	
580.94	18288	
581.14	18024	
581.33	16597	
581.52	15255	
581.71	17787	
581.91	18316	
582.1	15108	
582.29	15646	
582.48	17238	
582.68	17242	
582.87	16283	
583.06	15775	
583.25	17604	
583.45	17400	
583.64	16642	
583.83	17325	
584.02	17051	
584.21	17550	
584.41	16642	
584.6	15838	
584.79	17327	
584.98	18195	
585.18	15145	
585.37	15225	
585.56	16795	
585.75	17625	
585.94	15393	
586.14	16107	
586.33	18054	
586.52	17060	
586.71	15773	
586.91	15574	
587.1	16350	
587.29	17389	
587.48	15273	
587.67	15135	
587.87	17090	
588.06	17254	
588.25	16505	
588.44	15569	
588.63	16608	
588.83	17283	
589.02	14741	
589.21	14580	
589.4	15943	
589.59	15701	
589.78	13448	
589.98	13613	
590.17	14870	
590.36	15599	
590.55	12565	
590.74	13401	
590.94	16834	
591.13	15294	
591.32	13248	
591.51	12913	
591.7	15748	
591.89	15370	
592.09	13045	
592.28	13637	
592.47	14506	
592.66	16701	
592.85	13196	
593.05	13406	
593.24	15059	
593.43	16027	
593.62	13603	
593.81	13981	
594	15308	
594.19	15494	
594.39	13281	
594.58	13223	
594.77	15526	
594.96	16074	
595.15	13171	
595.34	13870	
595.54	15346	
595.73	14522	
595.92	12353	
596.11	13698	
596.3	15896	
596.49	14602	
596.68	13289	
596.88	13898	
597.07	15661	
597.26	14329	
597.45	12858	
597.64	14302	
597.83	14753	
598.02	15464	
598.22	12912	
598.41	13649	
598.6	15007	
598.79	14494	
598.98	12947	
599.17	14052	
599.36	15094	
599.55	16326	
599.74	15205	
599.94	14990	
600.13	15643	
600.32	14381	
600.51	12783	
600.7	12938	
600.89	16307	
601.08	16300	
601.27	12575	
601.47	13851	
601.66	15546	
601.85	16282	
602.04	13305	
602.23	13575	
602.42	14606	
602.61	15171	
602.8	13312	
602.99	12887	
603.18	14813	
603.37	15288	
603.57	13573	
603.76	14153	
603.95	15795	
604.14	15504	
604.33	13089	
604.52	13528	
604.71	15095	
604.9	14659	
605.09	14049	
605.28	13891	
605.47	15807	
605.66	15449	
605.86	13807	
606.05	13125	
606.24	15622	
606.43	14117	
606.62	13444	
606.81	14136	
607	15397	
607.19	14755	
607.38	12658	
607.57	13080	
607.76	14463	
607.95	13943	
608.14	13408	
608.33	13909	
608.52	14470	
608.72	15371	
608.91	12510	
609.1	12439	
609.29	14541	
609.48	13977	
609.67	13371	
609.86	12488	
610.05	14062	
610.24	14392	
610.43	12304	
610.62	11857	
610.81	15547	
611	15320	
611.19	12348	
611.38	13115	
611.57	14691	
611.76	16219	
611.95	12168	
612.14	11990	
612.33	14450	
612.52	13859	
612.71	12841	
612.9	11984	
613.09	13595	
613.28	15943	
613.47	12360	
613.66	13538	
613.85	14523	
614.04	14097	
614.24	12484	
614.43	11751	
614.62	14736	
614.81	14554	
615	13094	
615.19	13025	
615.38	13897	
615.57	14296	
615.76	13053	
615.95	13995	
616.14	14807	
616.33	14456	
616.52	13237	
616.71	13560	
616.9	14732	
617.09	14577	
617.28	12636	
617.47	13979	
617.66	13862	
617.85	13930	
618.04	13848	
618.22	13193	
618.41	14300	
618.6	15398	
618.79	13248	
618.98	12865	
619.17	15708	
619.36	13882	
619.55	13080	
619.74	13093	
619.93	14979	
620.12	14472	
620.31	13857	
620.5	14009	
620.69	16204	
620.88	16127	
621.07	14787	
621.26	13713	
621.45	15292	
621.64	15309	
621.83	13833	
622.02	12962	
622.21	15333	
622.4	15205	
622.59	14536	
622.78	14377	
622.97	14773	
623.16	15827	
623.35	13850	
623.54	12961	
623.72	14988	
623.91	15280	
624.1	14076	
624.29	12733	
624.48	16338	
624.67	15561	
624.86	14079	
625.05	13046	
625.24	16455	
625.43	14711	
625.62	15872	
625.81	13327	
626	15783	
626.19	15123	
626.38	14375	
626.56	13433	
626.75	14977	
626.94	15874	
627.13	14174	
627.32	12699	
627.51	15575	
627.7	16944	
627.89	12903	
628.08	14052	
628.27	14620	
628.46	14890	
628.65	13076	
628.83	12867	
629.02	15339	
629.21	14696	
629.4	13655	
629.59	13738	
629.78	14620	
629.97	15633	
630.16	13878	
630.35	13437	
630.54	16083	
630.72	15705	
630.91	13373	
631.1	13873	
631.29	15350	
631.48	15358	
631.67	13946	
631.86	13379	
632.05	14809	
632.24	14936	
632.42	13035	
632.61	13733	
632.8	14867	
632.99	14521	
633.18	13721	
633.37	14057	
633.56	15109	
633.75	14906	
633.93	13701	
634.12	13311	
634.31	16018	
634.5	15739	
634.69	13345	
634.88	13762	
635.07	14944	
635.25	15507	
635.44	14164	
635.63	14493	
635.82	14650	
636.01	14241	
636.2	14093	
636.39	13775	
636.57	15786	
636.76	15498	
636.95	13027	
637.14	14472	
637.33	15281	
637.52	16184	
637.7	12793	
637.89	13843	
638.08	14651	
638.27	16270	
638.46	13848	
638.65	14286	
638.83	16066	
639.02	14328	
639.21	13699	
639.4	14230	
639.59	14879	
639.78	14502	
639.96	12781	
640.15	12770	
640.34	14618	
640.53	14796	
640.72	12487	
640.91	12790	
641.09	13836	
641.28	15458	
641.47	12831	
641.66	13655	
641.85	14646	
642.03	14920	
642.22	13372	
642.41	12826	
642.6	13965	
642.79	13338	
642.97	12417	
643.16	13306	
643.35	13880	
643.54	13582	
643.73	12270	
643.91	13158	
644.1	13343	
644.29	14239	
644.48	12138	
644.67	12242	
644.85	13437	
645.04	13801	
645.23	11518	
645.42	11917	
645.6	13110	
645.79	14330	
645.98	11690	
646.17	10635	
646.36	12537	
646.54	13141	
646.73	12280	
646.92	11160	
647.11	12669	
647.29	13887	
647.48	11232	
647.67	10822	
647.86	13960	
648.05	14099	
648.23	11441	
648.42	12902	
648.61	13424	
648.8	13119	
648.98	11097	
649.17	11422	
649.36	12652	
649.55	12231	
649.73	11071	
649.92	11995	
650.11	12575	
650.3	12870	
650.48	11122	
650.67	10953	
650.86	13039	
651.05	11974	
651.23	11117	
651.42	11168	
651.61	12563	
651.79	12580	
651.98	11350	
652.17	10835	
652.36	12838	
652.54	11970	
652.73	10908	
652.92	10630	
653.11	12979	
653.29	12947	
653.48	10021	
653.67	11036	
653.85	12523	
654.04	13645	
654.23	11184	
654.42	10468	
654.6	11633	
654.79	12321	
654.98	9775.6	
655.16	10330	
655.35	11153	
655.54	11066	
655.73	9843.9	
655.91	9708.7	
656.1	12349	
656.29	11250	
656.47	9493	
656.66	11304	
656.85	11472	
657.03	11624	
657.22	10119	
657.41	10374	
657.59	11860	
657.78	11587	
657.97	9880.1	
658.16	10671	
658.34	12551	
658.53	12850	
658.72	11680	
658.9	12166	
659.09	11927	
659.28	12073	
659.46	10509	
659.65	10322	
659.84	11749	
660.02	12308	
660.21	10251	
660.4	10322	
660.58	12697	
660.77	12033	
660.96	10800	
661.14	9831.6	
661.33	13217	
661.52	13099	
661.7	9687.6	
661.89	13671	
662.08	11592	
662.26	11061	
662.45	10028	
662.64	10037	
662.82	12231	
663.01	11464	
663.2	10058	
663.38	10993	
663.57	12121	
663.75	12052	
663.94	10406	
664.13	11686	
664.31	11458	
664.5	12205	
664.69	10572	
664.87	11354	
665.06	11189	
665.25	12020	
665.43	11574	
665.62	11587	
665.8	12146	
665.99	11555	
666.18	10372	
666.36	10452	
666.55	12245	
666.74	12172	
666.92	9897.2	
667.11	11642	
667.29	11630	
667.48	12217	
667.67	11228	
667.85	10398	
668.04	11593	
668.22	11540	
668.41	10318	
668.6	10607	
668.78	11468	
668.97	11569	
669.15	10649	
669.34	9590	
669.53	11346	
669.71	11640	
669.9	9764	
670.08	10556	
670.27	11379	
670.46	11885	
670.64	10740	
670.83	10999	
671.01	11241	
671.2	11842	
671.38	9927.9	
671.57	9756.5	
671.76	12369	
671.94	13158	
672.13	9824.8	
672.31	10765	
672.5	12083	
672.69	11238	
672.87	9891.7	
673.06	10191	
673.24	11765	
673.43	11342	
673.61	10619	
673.8	10247	
673.98	11964	
674.17	12186	
674.36	10836	
674.54	10696	
674.73	11783	
674.91	11932	
675.1	10422	
675.28	9957.9	
675.47	11500	
675.65	12183	
675.84	10080	
676.03	10615	
676.21	11226	
676.4	10722	
676.58	11017	
676.77	10742	
676.95	12833	
677.14	11168	
677.32	9807.7	
677.51	9568.1	
677.69	11949	
677.88	10891	
678.06	9716.9	
678.25	9709.4	
678.44	11536	
678.62	11277	
678.81	9389.9	
678.99	10509	
679.18	12358	
679.36	11906	
679.55	10089	
679.73	10789	
679.92	11755	
680.1	11269	
680.29	11394	
680.47	10111	
680.66	11077	
680.84	12061	
681.03	9309.4	
681.21	10503	
681.4	11196	
681.58	11006	
681.77	9771.5	
681.95	9736.7	
682.14	11974	
682.32	12416	
682.51	10669	
682.69	9371.5	
682.88	11021	
683.06	11660	
683.25	10295	
683.43	10875	
683.62	11346	
683.8	11700	
683.99	10875	
684.17	10069	
684.36	12451	
684.54	10986	
684.73	8893.6	
684.91	9199.5	
685.1	10987	
685.28	10324	
685.46	9477.3	
685.65	9609.1	
685.83	11135	
686.02	10535	
686.2	9052.7	
686.39	9177.6	
686.57	10224	
686.76	12008	
686.94	9154.4	
687.13	9274.6	
687.31	11196	
687.5	10750	
687.68	8840.4	
687.86	10097	
688.05	12558	
688.23	10266	
688.42	10196	
688.6	9374.2	
688.79	10728	
688.97	10674	
689.16	9914.2	
689.34	8623.3	
689.52	11631	
689.71	11820	
689.89	10133	
690.08	9325.1	
690.26	11078	
690.45	10852	
690.63	10296	
690.81	9536.7	
691	10515	
691.18	10570	
691.37	9571.5	
691.55	11899	
691.74	10553	
691.92	12626	
692.1	9617.3	
692.29	8899.1	
692.47	10749	
692.66	9942.9	
692.84	9214.5	
693.02	9783.8	
693.21	10228	
693.39	10648	
693.58	10094	
693.76	9426.8	
693.94	12104	
694.13	11920	
694.31	9572.2	
694.5	10711	
694.68	10752	
694.86	11145	
695.05	10017	
695.23	10106	
695.42	11692	
695.6	14109	
695.78	10649	
695.97	9702.6	
696.15	11647	
696.34	11028	
696.52	9355.8	
696.7	10208	
696.89	11204	
697.07	10576	
697.25	10037	
697.44	11730	
697.62	11046	
697.81	11461	
697.99	9637.1	
698.17	10250	
698.36	10432	
698.54	11103	
698.72	10047	
698.91	8989.9	
699.09	10727	
699.28	10477	
699.46	9587.2	
699.64	9483.5	
699.83	10434	
700.01	11810	
700.19	10355	
700.38	8742.1	
700.56	11957	
700.74	10669	
700.93	9126.4	
701.11	10035	
701.29	11292	
701.48	12463	
701.66	9392.7	
701.84	9598.8	
702.03	10815	
702.21	11658	
702.39	9071.8	
702.58	9635.7	
702.76	11327	
702.94	11542	
703.13	9060.2	
703.31	11626	
703.49	10537	
703.68	11604	
703.86	9194	
704.04	10200	
704.23	11053	
704.41	11627	
704.59	9383.1	
704.78	10748	
704.96	12308	
705.14	11609	
705.33	9277.3	
705.51	10095	
705.69	10986	
705.87	11806	
706.06	10380	
706.24	9053.4	
706.42	11136	
706.61	11512	
706.79	10362	
706.97	9151	
707.16	10676	
707.34	11292	
707.52	10303	
707.7	9423.4	
707.89	10816	
708.07	10456	
708.25	10234	
708.44	10395	
708.62	10694	
708.8	11882	
708.98	10514	
709.17	9503.9	
709.35	11114	
709.53	11188	
709.72	9099.1	
709.9	9299.8	
710.08	11338	
710.26	11209	
710.45	10724	
710.63	9416.6	
710.81	10940	
710.99	10922	
711.18	9953.8	
711.36	9432.9	
711.54	10715	
711.72	11426	
711.91	9420.7	
712.09	8796	
712.27	10739	
712.45	11523	
712.64	9592.7	
712.82	8507.9	
713	9868.5	
713.18	9987.9	
713.37	8406.9	
713.55	9677.3	
713.73	10746	
713.91	9185.8	
714.1	8537.3	
714.28	7756.3	
714.46	9946.3	
714.64	9103.2	
714.83	6889.4	
715.01	7717.4	
715.19	8921.6	
715.37	8238.3	
715.55	7273.7	
715.74	7575.4	
715.92	9718.3	
716.1	7539.3	
716.28	8753	
716.47	7651.9	
716.65	8255.4	
716.83	8576.2	
717.01	7522.9	
717.19	7560.4	
717.38	10619	
717.56	8140	
717.74	7909.3	
717.92	6989	
718.1	9642.5	
718.29	8779	
718.47	6861.4	
718.65	7575.4	
718.83	9712.8	
719.01	9744.2	
719.2	6890	
719.38	8048.5	
719.56	9354.4	
719.74	11131	
719.92	7494.9	
720.11	8667.7	
720.29	9337.4	
720.47	8284	
720.65	6784.9	
720.83	7659.4	
721.02	8583.7	
721.2	8119.5	
721.38	7636.9	
721.56	6852.5	
721.74	7641.7	
721.92	7909.3	
722.11	8228.1	
722.29	7826	
722.47	9171.5	
722.65	8265.6	
722.83	6793.8	
723.01	7724.9	
723.2	8344.1	
723.38	8653.4	
723.56	6224.5	
723.74	7464.8	
723.92	7795.9	
724.1	9110.7	
724.29	6701.6	
724.47	7865.6	
724.65	7859.4	
724.83	7843	
725.01	6568.5	
725.19	7546.1	
725.37	7910.6	
725.56	7897.7	
725.74	6355.5	
725.92	6729.6	
726.1	7753.6	
726.28	8128.4	
726.46	7144.7	
726.64	6842.9	
726.83	8016.4	
727.01	8366.6	
727.19	6470.9	
727.37	7305.8	
727.55	8212.4	
727.73	8759.8	
727.91	6374.6	
728.09	6238.8	
728.28	8785.1	
728.46	9462.3	
728.64	7506.5	
728.82	7417.1	
729	10088	
729.18	9290.3	
729.36	6687.3	
729.54	9166.7	
729.72	10529	
729.91	8592.6	
730.09	8841.1	
730.27	7579.5	
730.45	8641.7	
730.63	9383.1	
730.81	8211.7	
730.99	7228	
731.17	9846.6	
731.35	8330.5	
731.53	7789.1	
731.71	7334.5	
731.9	9503.3	
732.08	9642.5	
732.26	7587	
732.44	7243	
732.62	9714.9	
732.8	9260.9	
732.98	7955	
733.16	7038.9	
733.34	9092.3	
733.52	7847.1	
733.7	7486	
733.88	7886.7	
734.07	8959.2	
734.25	8734.6	
734.43	6891.4	
734.61	8707.3	
734.79	10333	
734.97	8696.4	
735.15	7027.3	
735.33	7401.4	
735.51	9047.2	
735.69	8543.4	
735.87	8704.5	
736.05	7644.4	
736.23	8760.5	
736.41	8578.9	
736.59	7438.9	
736.77	7640.3	
736.95	9372.2	
737.13	8701.1	
737.32	7036.8	
737.5	7449.1	
737.68	9785.9	
737.86	8523	
738.04	6868.9	
738.22	8807.6	
738.4	8259.5	
738.58	8555	
738.76	7539.3	
738.94	6355.5	
739.12	8450.6	
739.3	8307.9	
739.48	8239	
739.66	7949.5	
739.84	8677.2	
740.02	8757.8	
740.2	6460	
740.38	6847	
740.56	9112.1	
740.74	7868.3	
740.92	7595.2	
741.1	7574.8	
741.28	8454.7	
741.46	8330.5	
741.64	7008.1	
741.82	7617.8	
742	8492.2	
742.18	8462.9	
742.36	7250.5	
742.54	6822.5	
742.72	8972.2	
742.9	7708.6	
743.08	7636.2	
743.26	6339.1	
743.44	9314.8	
743.62	9041.1	
743.8	7718.8	
743.98	6731	
744.16	8691.6	
744.34	8381	
744.52	7600.7	
744.7	7552.9	
744.88	8849.3	
745.06	8282	
745.24	7693.5	
745.42	7787.1	
745.6	8869.1	
745.78	8453.3	
745.96	6294.1	
746.14	6561	
746.32	9610.4	
746.5	8748.9	
746.68	7138.5	
746.86	6674.3	
747.03	9288.9	
747.21	7369.3	
747.39	7217.7	
747.57	6591	
747.75	8323.6	
747.93	8740.7	
748.11	6594.5	
748.29	6505	
748.47	10071	
748.65	8042.4	
748.83	7380.9	
749.01	7073	
749.19	8512	
749.37	7617.1	
749.55	6818.4	
749.73	7054.6	
749.91	8092.9	
750.09	7841	
750.26	6975.4	
750.44	6373.3	
750.62	8172.1	
750.8	8079.9	
750.98	6226.5	
751.16	6582.9	
751.34	8208.9	
751.52	7523.6	
751.7	7425.9	
751.88	6145.3	
752.06	8752.3	
752.24	8434.2	
752.42	6083.1	
752.59	6501.6	
752.77	8058.1	
752.95	9418.6	
753.13	7280.5	
753.31	6647	
753.49	7703.1	
753.67	8135.2	
753.85	6909.8	
754.03	6419	
754.21	8374.1	
754.38	8783.1	
754.56	6425.2	
754.74	5429.8	
754.92	7421.2	
755.1	8100.4	
755.28	5281	
755.46	5193.6	
755.64	8637	
755.82	8497.7	
755.99	5107	
756.17	5057.1	
756.35	5550.7	
756.53	7212.9	
756.71	3768.9	
756.89	4807.9	
757.07	6735.8	
757.25	5820.3	
757.42	5532.9	
757.6	6554.9	
757.78	7055.9	
757.96	6087.9	
758.14	5404.6	
758.32	4805.2	
758.5	5557.5	
758.67	6459.3	
758.85	5143.8	
759.03	5173.9	
759.21	6567.2	
759.39	5969.1	
759.57	4634.6	
759.75	5919.3	
759.92	7139.9	
760.1	6490.7	
760.28	6339.1	
760.46	6607.4	
760.64	6325.5	
760.82	6129.6	
760.99	6285.2	
761.17	5425.8	
761.35	7322.9	
761.53	6294.8	
761.71	5648.3	
761.89	6389	
762.06	7333.8	
762.24	6778.1	
762.42	5760.3	
762.6	5588.2	
762.78	6870.3	
762.96	7590.5	
763.13	6248.4	
763.31	5874.3	
763.49	7808.9	
763.67	6833.4	
763.85	6821.1	
764.02	7471.7	
764.2	8090.8	
764.38	7167.9	
764.56	5771.9	
764.74	6715.3	
764.91	8142	
765.09	6946.7	
765.27	5369.8	
765.45	5154.1	
765.63	8171.4	
765.8	8064.9	
765.98	4804.5	
766.16	5291.3	
766.34	6371.2	
766.52	6234.7	
766.69	6247.7	
766.87	5058.5	
767.05	6900.3	
767.23	7798.7	
767.41	5339.1	
767.58	5638.7	
767.76	7475.1	
767.94	7520.1	
768.12	5335.6	
768.29	6234.7	
768.47	6876.4	
768.65	7668.3	
768.83	5029.1	
769	6197.2	
769.18	6340.5	
769.36	7155.6	
769.54	6175.3	
769.72	4990.9	
769.89	7342.7	
770.07	7552.9	
770.25	5304.2	
770.43	6591.7	
770.6	8151.6	
770.78	8630.1	
770.96	5468.1	
771.14	6111.8	
771.31	7262.1	
771.49	6544.6	
771.67	4422.9	
771.85	4827.1	
772.02	5703.6	
772.2	6488.6	
772.38	5565.7	
772.55	5027.1	
772.73	6722.8	
772.91	6490	
773.09	5354.1	
773.26	5448.3	
773.44	6639.5	
773.62	6358.9	
773.8	4803.2	
773.97	4517.1	
774.15	6668.9	
774.33	6252.4	
774.5	4698	
774.68	5113.8	
774.86	6692.1	
775.04	6281.1	
775.21	4764.9	
775.39	4712.4	
775.57	6520	
775.74	7037.5	
775.92	4529.4	
776.1	4476.9	
776.27	6483.2	
776.45	7834.2	
776.63	4734.2	
776.81	4153.3	
776.98	6090.7	
777.16	7285.3	
777.34	4777.9	
777.51	4788.8	
777.69	6036.7	
777.87	5831.2	
778.04	4760.2	
778.22	5563	
778.4	5898.8	
778.57	6618.4	
778.75	3954.6	
778.93	4333.5	
779.1	5550.7	
779.28	5456.5	
779.46	4066.6	
779.64	4544.4	
779.81	6717.3	
779.99	7573.4	
780.17	5378.6	
780.34	5515.2	
780.52	6065.4	
780.69	6253.1	
780.87	4907.6	
781.05	4409.3	
781.22	6137.8	
781.4	6181.5	
781.58	4532.8	
781.75	3653.6	
781.93	6106.4	
782.11	5444.9	
782.28	5488.6	
782.46	4457.1	
782.64	5270.8	
782.81	6320.7	
782.99	4611.3	
783.17	4554.7	
783.34	6124.1	
783.52	5272.2	
783.69	4755.4	
783.87	5601.2	
784.05	5378	
784.22	5431.2	
784.4	5528.2	
784.58	4791.6	
784.75	6417	
784.93	5416.9	
785.1	4438.6	
785.28	5137	
785.46	6120	
785.63	5371.8	
785.81	4348.5	
785.99	4218.1	
786.16	5493.3	
786.34	6025.8	
786.51	4310.3	
786.69	4712.4	
786.87	5098.8	
787.04	5629.9	
787.22	4091.2	
787.39	5094.7	
787.57	5319.9	
787.75	6563.7	
787.92	5324.7	
788.1	5283.1	
788.27	5378	
788.45	5117.2	
788.63	4913.1	
788.8	3624.2	
788.98	5874.9	
789.15	5024.3	
789.33	3707.5	
789.5	4423.6	
789.68	6362.4	
789.86	6453.8	
790.03	4875.5	
790.21	4242	
790.38	6246.3	
790.56	5501.5	
790.73	4091.2	
790.91	4119.8	
791.09	5356.1	
791.26	6133.7	
791.44	4327.4	
791.61	3749.1	
791.79	5296	
791.96	5423	
792.14	3842.7	
792.32	3442	
792.49	5330.2	
792.67	5413.5	
792.84	3958	
793.02	3750.5	
793.19	5767.8	
793.37	6687.3	
793.54	3449.5	
793.72	3820.8	
793.89	6726.2	
794.07	5352	
794.25	4494.6	
794.42	3504.8	
794.6	6459.3	
794.77	6027.2	
794.95	4714.4	
795.12	4124.6	
795.3	5245.5	
795.47	6007.4	
795.65	4558.1	
795.82	4339	
796	5059.8	
796.17	7172	
796.35	4222.2	
796.52	4956.8	
796.7	5865.4	
796.87	6019.7	
797.05	5188.2	
797.22	5197.7	
797.4	5902.9	
797.57	6972.7	
797.75	4315.1	
797.92	4096.6	
798.1	6208.8	
798.27	5211.4	
798.45	3512.3	
798.62	3767.6	
798.8	5584.1	
798.97	6139.8	
799.15	4598.4	
799.32	4350.6	
799.5	4838.7	
799.67	5621.7	
799.85	4722.6	
800.02	3447.4	
800.2	5163.6	
800.37	5608	
800.55	4850.3	
800.72	4049.5	
800.9	6048.3	
801.07	6627.9	
801.25	5494.7	
801.42	4494.6	
801.6	6072.9	
801.77	5827.2	
801.95	4192.2	
802.12	3975.1	
802.29	5737.7	
802.47	5765.7	
802.64	4410	
802.82	3378.5	
802.99	5184.1	
803.17	6299.6	
803.34	4293.9	
803.52	3886.4	
803.69	6997.2	
803.87	4931.5	
804.04	4293.9	
804.21	4415.4	
804.39	6380.8	
804.56	5451.7	
804.74	3650.8	
804.91	4538.3	
805.09	5251	
805.26	5392.3	
805.44	3723.2	
805.61	4095.3	
805.78	5924.8	
805.96	5992.4	
806.13	4482.3	
806.31	4816.8	
806.48	4746.5	
806.66	5325.4	
806.83	4472.1	
807	4383.3	
807.18	5201.2	
807.35	5562.3	
807.53	4021.5	
807.7	3425.6	
807.87	6504.3	
808.05	5283.1	
808.22	4861.2	
808.4	3474	
808.57	5278.3	
808.74	4827.1	
808.92	3941	
809.09	5067.4	
809.27	5074.2	
809.44	5809.4	
809.61	3512.3	
809.79	3880.9	
809.96	6426.5	
810.14	6075	
810.31	3388	
810.48	4123.9	
810.66	5362.9	
810.83	6150.7	
811.01	3945.1	
811.18	4361.5	
811.35	6075	
811.53	4607.9	
811.7	4786.8	
811.87	4454.3	
812.05	5220.3	
812.22	5152.7	
812.39	3780.6	
812.57	3674.1	
812.74	5205.3	
812.92	7100.3	
813.09	4167.6	
813.26	4547.9	
813.44	6739.9	
813.61	5134.9	
813.78	3437.2	
813.96	4652.3	
814.13	5281.7	
814.3	4863.2	
814.48	5046.2	
814.65	4171	
814.82	6625.9	
815	5025	
815.17	4280.9	
815.34	5270.8	
815.52	5210.7	
815.69	5120.6	
815.87	4245.4	
816.04	3641.3	
816.21	5275.6	
816.38	4533.5	
816.56	4162.2	
816.73	3857	
816.9	6677.7	
817.08	6081.1	
817.25	3841.3	
817.42	4915.8	
817.6	4706.2	
817.77	5231.2	
817.94	4367	
818.12	3751.9	
818.29	4940.4	
818.46	7884	
818.64	4007.9	
818.81	3721.2	
818.98	4878.3	
819.16	7168.6	
819.33	4630.5	
819.5	4233.2	
819.67	5607.3	
819.85	6352.8	
820.02	4138.3	
820.19	4472.8	
820.37	5463.3	
820.54	4990.2	
820.71	4362.2	
820.88	5354.1	
821.06	5510.4	
821.23	5042.1	
821.4	4404.5	
821.58	4347.2	
821.75	6038.8	
821.92	5427.1	
822.09	3478.1	
822.27	3545.7	
822.44	5272.2	
822.61	5142.4	
822.79	3483.6	
822.96	6804	
823.13	5806.7	
823.3	4964.3	
823.48	4004.5	
823.65	3601	
823.82	5987.6	
823.99	4773.1	
824.17	5133.6	
824.34	3700.7	
824.51	6973.3	
824.68	5273.5	
824.86	3870	
825.03	4377.9	
825.2	5224.4	
825.37	6396.5	
825.55	3773	
825.72	4261.1	
825.89	7029.3	
826.06	6469.5	
826.24	4123.9	
826.41	4202.4	
826.58	6391.7	
826.75	5530.2	
826.92	3273.3	
827.1	3700.7	
827.27	8813.1	
827.44	6952.2	
827.61	3985.3	
827.79	4773.8	
827.96	4944.5	
828.13	5351.3	
828.3	4054.3	
828.47	3450.1	
828.65	5464	
828.82	5382.1	
828.99	5391.6	
829.16	4631.8	
829.34	5863.3	
829.51	5604.6	
829.68	4275.5	
829.85	4522.6	
830.02	6101.6	
830.2	5889.3	
830.37	3297.2	
830.54	5162.2	
830.71	6719.4	
830.88	5172.5	
831.05	3433.1	
831.23	3930.1	
831.4	6433.4	
831.57	7247.8	
831.74	3960.8	
831.91	3500	
832.09	5452.4	
832.26	5883.1	
832.43	4086.4	
832.6	4614.8	
832.77	5504.3	
832.94	6326.9	
833.12	3259.7	
833.29	4068.6	
833.46	5086.5	
833.63	7471.7	
833.8	4494.6	
833.97	4177.2	
834.15	5856.5	
834.32	5624.4	
834.49	4246.1	
834.66	4369	
834.83	6113.2	
835	4952	
835.17	3958.7	
835.35	4031.1	
835.52	5780.1	
835.69	5668.8	
835.86	4145.1	
836.03	3450.8	
836.2	5797.1	
836.37	5429.8	
836.55	4129.4	
836.72	3848.8	
836.89	5409.4	
837.06	5935	
837.23	4251.6	
837.4	4547.9	
837.57	6790.4	
837.75	7484.6	
837.92	3797.6	
838.09	4040.6	
838.26	5401.2	
838.43	6207.4	
838.6	4351.3	
838.77	3825.6	
838.94	7087.3	
839.11	6813.6	
839.29	4109.6	
839.46	3166.2	
839.63	5783.5	
839.8	5485.1	
839.97	3950.5	
840.14	3986.7	
840.31	5597.8	
840.48	5855.8	
840.65	3257.6	
840.82	3872.7	
841	5812.1	
841.17	5851	
841.34	3678.2	
841.51	3737.5	
841.68	5728.9	
841.85	5554.8	
842.02	3852.2	
842.19	3121.8	
842.36	5576.6	
842.53	5608.7	
842.7	3590.8	
842.87	4492.6	
843.05	7340.6	
843.22	5513.1	
843.39	3462.4	
843.56	3771	
843.73	5204.6	
843.9	5928.2	
844.07	5971.2	
844.24	4976.6	
844.41	8751.7	
844.58	5058.5	
844.75	3507.5	
844.92	3820.1	
845.09	5843.5	
845.26	5868.8	
845.43	3630.4	
845.6	3813.3	
845.77	5840.1	
845.94	5551.4	
846.12	4043.4	
846.29	4288.4	
846.46	6016.2	
846.63	5883.8	
846.8	3632.4	
846.97	4330.8	
847.14	6343.2	
847.31	5791	
847.48	4173.8	
847.65	4534.9	
847.82	6085.2	
847.99	6098.9	
848.16	4939.7	
848.33	4518.5	
848.5	5357.5	
848.67	6371.9	
848.84	3595.6	
849.01	3788.1	
849.18	5218.9	
849.35	4847.5	
849.52	4566.3	
849.69	3558.7	
849.86	6037.4	
850.03	6297.5	
850.2	3648.8	
850.37	4508.9	
850.54	6260.6	
850.71	5496.7	
850.88	4366.3	
851.05	3586.7	
851.22	5726.1	
851.39	6345.3	
851.56	3457.7	
851.73	4171	
851.9	5070.1	
852.07	6126.2	
852.24	4009.2	
852.41	3631	
852.58	5644.2	
852.75	5160.9	
852.92	4116.4	
853.09	3540.3	
853.26	5408	
853.43	6343.2	
853.6	3584.6	
853.77	3081.5	
853.94	6434	
854.11	5713.2	
854.28	5410.7	
854.44	3918.4	
854.61	6905.1	
854.78	6156.9	
854.95	3638.6	
855.12	4560.1	
855.29	4670.7	
855.46	6662	
855.63	3553.2	
855.8	5098.1	
855.97	5367	
856.14	6188.3	
856.31	5214.1	
856.48	3936.9	
856.65	5388.9	
856.82	5057.1	
856.99	3420.8	
857.16	3961.5	
857.33	7223.9	
857.49	5431.9	
857.66	3880.2	
857.83	4278.9	
858	5444.9	
858.17	5689.9	
858.34	3438.5	
858.51	3558.7	
858.68	6650.4	
858.85	6566.5	
859.02	4214.7	
859.19	4543.8	
859.36	5057.8	
859.52	5157.5	
859.69	3621.5	
859.86	4289.1	
860.03	5199.1	
860.2	6518	
860.37	3280.8	
860.54	3641.3	
860.71	6106.4	
860.88	6533.7	
861.05	4052.9	
861.21	4578.6	
861.38	6546	
861.55	4981.3	
861.72	3358	
861.89	4071.4	
862.06	6100.2	
862.23	6652.5	
862.4	3537.5	
862.56	3800.3	
862.73	5969.1	
862.9	5593	
863.07	4295.3	
863.24	3250.8	
863.41	4984.1	
863.58	5122.7	
863.75	3710.2	
863.91	4236.6	
864.08	6492.7	
864.25	5980.1	
864.42	4641.4	
864.59	5154.7	
864.76	6825.9	
864.93	5132.2	
865.09	3514.3	
865.26	3819.5	
865.43	6352.1	
865.6	6750.8	
865.77	3145.7	
865.94	3572.3	
866.1	6437.4	
866.27	6143.9	
866.44	5508.4	
866.61	3444	
866.78	5500.8	
866.95	5978	
867.11	3480.2	
867.28	3184.6	
867.45	6213.5	
867.62	5131.5	
867.79	4229.1	
867.96	3626.3	
868.12	5087.8	
868.29	6149.4	
868.46	3651.5	
868.63	4872.8	
868.8	6285.2	
868.97	6068.8	
869.13	3799.7	
869.3	3768.9	
869.47	5971.9	
869.64	6146	
869.81	3695.9	
869.97	3654.3	
870.14	5806.7	
870.31	6554.9	
870.48	3459	
870.65	4561.5	
870.81	5427.1	
870.98	5344.5	
871.15	4095.3	
871.32	3742.3	
871.48	5874.9	
871.65	6605.4	
871.82	3593.5	
871.99	3993.5	
872.16	7116.7	
872.32	6466.8	
872.49	3624.9	
872.66	3648.8	
872.83	6083.1	
872.99	5373.2	
873.16	4179.2	
873.33	3628.3	
873.5	5667.4	
873.67	5673.6	
873.83	3801	
874	4824.3	
874.17	5836.7	
874.34	6996.5	
874.5	4730.8	
874.67	4541.7	
874.84	6526.2	
875.01	5105.6	
875.17	5111.7	
875.34	3618.1	
875.51	5734.3	
875.68	6943.3	
875.84	4433.2	
876.01	5382.1	
876.18	6013.5	
876.34	5967.1	
876.51	3676.8	
876.68	3562.1	
876.85	5480.4	
877.01	6339.1	
877.18	5193	
877.35	3585.3	
877.52	5621.7	
877.68	4997.7	
877.85	3535.5	
878.02	3551.9	
878.18	5547.3	
878.35	5281.7	
878.52	2874	
878.69	4104.8	
878.85	6010.8	
879.02	6062	
879.19	5177.9	
879.35	3926	
879.52	6000.5	
879.69	6264.7	
879.86	3069.9	
880.02	4078.9	
880.19	5572.5	
880.36	6891.4	
880.52	4229.1	
880.69	4296	
880.86	6125.5	
881.02	6184.2	
881.19	3940.3	
881.36	3945.8	
881.52	6001.2	
881.69	5340.4	
881.86	3878.9	
882.02	3792.8	
882.19	6302.3	
882.36	7434.1	
882.52	3760.1	
882.69	5113.8	
882.86	5824.4	
883.02	5667.4	
883.19	4433.2	
883.36	4166.3	
883.52	6136.4	
883.69	7083.9	
883.86	3718.4	
884.02	3257.6	
884.19	6079.1	
884.36	5652.4	
884.52	4113	
884.69	3861.8	
884.86	5251.7	
885.02	6763.8	
885.19	4110.3	
885.36	4223.6	
885.52	5602.6	
885.69	5851.7	
885.86	5322.7	
886.02	4615.4	
886.19	6046.3	
886.35	5504.3	
886.52	4017.4	
886.69	5109	
886.85	5091.9	
887.02	6433.4	
887.19	6433.4	
887.35	6433.4	
887.52	6433.4	
887.68	6433.4	
887.85	6433.4	
888.02	6433.4	
888.18	6433.4	
888.35	6433.4	
888.51	6433.4	
888.68	6433.4	
888.85	6433.4	
889.01	6433.4	
889.18	6433.4	
889.35	6433.4	
889.51	6433.4	
889.68	6433.4	
889.84	6433.4	
890.01	6433.4	
890.17	6433.4	
890.34	6433.4	
890.51	6433.4	
890.67	6433.4	
890.84	6433.4	
891	6433.4	
891.17	6433.4	
891.34	6433.4	
891.5	6433.4	
891.67	6433.4	
891.83	6433.4	
892	6433.4	
892.16	6433.4	
892.33	6433.4	
892.5	6433.4	
892.66	6433.4	
892.83	6433.4	
892.99	6433.4	
893.16	6433.4	
893.32	6433.4	
893.49	6433.4	
893.65	6433.4	
893.82	6433.4	
893.99	6433.4	
894.15	6433.4	
894.32	6433.4	
894.48	6433.4	
894.65	6433.4	
894.81	6433.4	
894.98	6433.4	
895.14	6433.4	
895.31	6433.4	
895.47	6433.4	
895.64	6433.4	
895.81	6433.4	
895.97	6433.4	
896.14	6433.4	
896.3	6433.4	
896.47	6433.4	
896.63	6433.4	
896.8	6433.4	
896.96	6433.4	
897.13	6433.4	
897.29	6433.4	
897.46	6433.4	
897.62	6433.4	
897.79	6433.4	
897.95	6433.4	
898.12	6433.4	
898.28	6433.4	
898.45	6433.4	
898.61	6433.4	
898.78	6433.4	
898.94	6433.4	
899.11	6433.4	
899.27	6433.4	
899.44	6433.4	
899.6	6433.4	
899.77	6433.4	
899.93	6433.4	
900.1	6433.4	
900.26	6433.4	
900.43	6433.4	
900.59	6433.4	
900.76	6433.4	
900.92	6433.4	
901.09	6433.4	
901.25	6433.4	
901.42	6433.4	
901.58	6433.4	
901.75	6433.4	
901.91	6433.4	
902.07	6433.4	
902.24	6433.4	
902.4	6433.4	
902.57	6433.4	
902.73	6433.4	
902.9	6433.4	
903.06	6433.4	
903.23	6433.4	
903.39	6433.4	
903.56	6433.4	
903.72	6433.4	
903.88	6433.4	
904.05	6433.4	
904.21	6433.4	
904.38	6433.4	
904.54	6433.4	
904.71	6433.4	
904.87	6433.4	
905.03	6433.4	
905.2	6433.4	
905.36	6433.4	
905.53	6433.4	
905.69	6433.4	
905.86	6433.4	
906.02	6433.4	
906.18	6433.4	
906.35	6433.4	
906.51	6433.4	
906.68	6433.4	
906.84	6433.4	
907.01	6433.4	
907.17	6433.4	
907.33	6433.4	
907.5	6433.4	
907.66	6433.4	
907.83	6433.4	
907.99	6433.4	
908.15	6433.4	
908.32	6433.4	
908.48	6433.4	
908.65	6433.4	
908.81	6433.4	
908.97	6433.4	
909.14	6433.4	
909.3	6433.4	
909.47	6433.4	
909.63	6433.4	
909.79	6433.4	
909.96	6433.4	
910.12	6433.4	
910.28	6433.4	
910.45	6433.4	
910.61	6433.4	
910.78	6433.4	
910.94	6433.4	
911.1	6433.4	
911.27	6433.4	
911.43	6433.4	
911.59	6433.4	
911.76	6433.4	
911.92	6433.4	
912.08	6433.4	
912.25	6433.4	
912.41	6433.4	
912.57	6433.4	
912.74	6433.4	
912.9	6433.4	
913.07	6433.4	
913.23	6433.4	
913.39	6433.4	
913.56	6433.4	
913.72	6433.4	
913.88	6433.4	
914.05	6433.4	
914.21	6433.4	
914.37	6433.4	
914.54	6433.4	
914.7	6433.4	
914.86	6433.4	
915.03	6433.4	
915.19	6433.4	
