Wavelength	Intensities	
nm	a.u.	
179.22	1920.3	
179.44	1919.6	
179.65	1921	
179.86	1918.3	
180.08	1858.9	
180.29	4947.2	
180.51	3469.3	
180.72	5668.1	
180.94	6708.5	
181.15	3326.6	
181.37	3190.1	
181.58	5502.9	
181.79	5847.6	
182.01	3405.1	
182.22	3672.7	
182.44	5799.2	
182.65	4881	
182.87	4612.7	
183.08	4003.1	
183.29	6096.1	
183.51	5052.3	
183.72	3702	
183.94	5350	
184.15	5388.2	
184.37	5474.9	
184.58	3211.9	
184.79	4456.4	
185.01	4988.9	
185.22	5769.8	
185.44	4740.4	
185.65	3962.1	
185.86	5330.9	
186.08	4894.6	
186.29	3108.1	
186.51	3359.4	
186.72	5034.6	
186.94	5914.5	
187.15	3940.3	
187.36	4047.5	
187.58	7759.8	
187.79	5484.5	
188.01	4263.9	
188.22	6567.2	
188.43	6687.3	
188.65	5785.5	
188.86	3397.6	
189.08	4054.3	
189.29	5251.7	
189.5	5272.2	
189.72	3734.8	
189.93	3867.2	
190.15	5924.8	
190.36	7123.5	
190.57	4111.6	
190.79	4035.9	
191	6141.9	
191.22	6034.7	
191.43	4108.2	
191.64	3427.6	
191.86	6283.2	
192.07	6062.7	
192.29	3576.4	
192.5	3759.4	
192.71	5950.7	
192.93	5087.8	
193.14	3691.8	
193.35	3792.8	
193.57	5151.3	
193.78	5956.2	
194	3016	
194.21	3674.1	
194.42	4975.9	
194.64	5449.6	
194.85	4075.5	
195.07	4752.7	
195.28	5484.5	
195.49	4717.8	
195.71	4954.7	
195.92	3432.4	
196.13	5609.4	
196.35	5745.2	
196.56	5396.4	
196.78	4057.7	
196.99	7119.4	
197.2	6663.4	
197.42	4644.8	
197.63	4111.6	
197.84	4863.2	
198.06	5638.1	
198.27	3796.9	
198.48	5044.8	
198.7	5203.2	
198.91	5332.9	
199.13	4074.8	
199.34	4129.4	
199.55	5840.1	
199.77	4711.7	
199.98	3573.7	
200.19	4108.9	
200.41	5246.2	
200.62	5035.3	
200.83	4237.9	
201.05	4662.5	
201.26	5318.6	
201.47	5104.9	
201.69	3568.9	
201.9	3465.2	
202.11	5395	
202.33	6452.5	
202.54	3863.8	
202.76	4313	
202.97	5589.6	
203.18	5546.6	
203.4	4259.1	
203.61	4163.5	
203.82	5491.3	
204.04	5080.3	
204.25	4089.8	
204.46	4067.9	
204.68	5455.1	
204.89	5728.2	
205.1	3982.6	
205.32	3476.1	
205.53	5926.1	
205.74	5991.7	
205.96	2972.3	
206.17	4154	
206.38	5853.8	
206.6	5966.4	
206.81	4633.9	
207.02	3769.6	
207.24	5698.8	
207.45	6121.4	
207.66	3876.1	
207.88	3287	
208.09	5654.4	
208.3	5416.9	
208.52	3540.3	
208.73	3948.5	
208.94	5433.3	
209.15	6135.7	
209.37	3850.9	
209.58	4076.8	
209.79	5951.4	
210.01	5240.8	
210.22	3103.4	
210.43	3282.2	
210.65	5468.1	
210.86	5882.4	
211.07	3898	
211.29	3558	
211.5	5799.8	
211.71	5365	
211.93	3573	
212.14	3594.9	
212.35	5340.4	
212.56	5595.1	
212.78	4143	
212.99	3387.3	
213.2	6425.8	
213.42	5171.8	
213.63	3712.3	
213.84	3960.8	
214.06	4815.5	
214.27	4956.1	
214.48	3847.5	
214.69	4174.4	
214.91	6111.1	
215.12	6210.8	
215.33	4222.9	
215.55	4614.1	
215.76	6723.5	
215.97	5786.9	
216.18	4021.5	
216.4	3970.3	
216.61	5115.8	
216.82	5940.5	
217.04	3560.7	
217.25	3751.2	
217.46	6067.4	
217.67	5847.6	
217.89	3210.5	
218.1	3362.8	
218.31	5549.3	
218.53	5577.3	
218.74	3740.3	
218.95	3687	
219.16	5455.1	
219.38	6382.8	
219.59	3637.9	
219.8	4343.7	
220.01	6984.3	
220.23	5434.6	
220.44	4835.9	
220.65	3523.9	
220.87	5469.4	
221.08	6055.8	
221.29	3303.4	
221.5	4414.7	
221.72	7509.2	
221.93	5096.7	
222.14	4158.1	
222.35	4893.3	
222.57	5468.8	
222.78	5788.9	
222.99	3910.3	
223.2	4202.4	
223.42	5754.1	
223.63	5843.5	
223.84	3005.7	
224.05	2954.5	
224.27	6858	
224.48	6338.5	
224.69	4879.6	
224.9	4082.3	
225.12	5641.5	
225.33	5380	
225.54	3312.2	
225.75	3686.3	
225.97	5044.8	
226.18	5339.1	
226.39	3966.9	
226.6	3702.7	
226.82	5203.9	
227.03	5027.8	
227.24	4117.1	
227.45	3390.8	
227.67	5842.9	
227.88	6374.6	
228.09	4584	
228.3	4585.4	
228.52	5882.4	
228.73	5442.8	
228.94	3755.3	
229.15	3383.9	
229.36	5340.4	
229.58	5295.4	
229.79	3867.2	
230	4517.8	
230.21	6495.5	
230.43	5517.9	
230.64	4019.5	
230.85	4251.6	
231.06	5898.8	
231.28	5838.8	
231.49	3329.3	
231.7	4014	
231.91	5799.8	
232.12	5505.6	
232.34	3474	
232.55	4022.2	
232.76	6062.7	
232.97	5614.8	
233.18	3568.9	
233.4	4063.2	
233.61	5681.1	
233.82	5211.4	
234.03	3761.4	
234.25	3691.1	
234.46	7499.7	
234.67	5500.2	
234.88	4199.7	
235.09	3633.1	
235.31	5760.9	
235.52	5339.1	
235.73	4039.3	
235.94	3435.1	
236.15	5128.8	
236.37	6618.4	
236.58	3615.3	
236.79	3962.8	
237	5751.4	
237.21	4952	
237.43	4313.7	
237.64	3300.6	
237.85	9895.1	
238.06	5059.2	
238.27	4306.9	
238.48	3422.8	
238.7	5747.3	
238.91	5279.7	
239.12	3873.4	
239.33	3946.4	
239.54	5044.1	
239.76	5342.5	
239.97	3847.5	
240.18	3931.4	
240.39	6873.7	
240.6	5747.3	
240.82	4092.5	
241.03	3293.1	
241.24	5404.6	
241.45	6341.2	
241.66	3583.3	
241.87	4195.6	
242.09	6193.1	
242.3	6530.3	
242.51	4317.1	
242.72	3902.7	
242.93	5881.1	
243.14	5337	
243.36	4575.2	
243.57	4949.3	
243.78	6285.9	
243.99	5808	
244.2	3925.3	
244.41	3592.8	
244.63	5018.2	
244.84	5742.5	
245.05	4196.3	
245.26	3893.2	
245.47	5758.9	
245.68	6004	
245.9	5227.1	
246.11	4192.2	
246.32	5270.8	
246.53	5704.3	
246.74	6337.8	
246.95	3234.4	
247.16	4932.9	
247.38	5471.5	
247.59	3287	
247.8	3969.6	
248.01	5124	
248.22	5376.6	
248.43	3568.2	
248.64	3847.5	
248.86	4800.4	
249.07	5201.8	
249.28	3450.8	
249.49	4032.5	
249.7	5945.3	
249.91	6071.5	
250.12	3291.8	
250.34	3336.1	
250.55	5541.8	
250.76	5450.3	
250.97	4094.6	
251.18	4091.2	
251.39	6130.9	
251.6	5591	
251.81	4220.9	
252.03	4128.7	
252.24	5164.3	
252.45	5998.5	
252.66	3407.1	
252.87	4354.7	
253.08	5492	
253.29	7158.3	
253.5	3469.3	
253.72	4802.5	
253.93	5265.3	
254.14	6510.5	
254.35	3748.5	
254.56	3860.4	
254.77	5694	
254.98	5071.5	
255.19	3662.5	
255.41	4790.2	
255.62	5556.1	
255.83	6074.3	
256.04	4235.9	
256.25	4095.3	
256.46	6691.4	
256.67	5145.9	
256.88	4049.5	
257.09	4479.6	
257.31	5054.4	
257.52	5124.7	
257.73	5091.9	
257.94	3707.5	
258.15	5319.3	
258.36	5481	
258.57	4711	
258.78	2940.9	
258.99	5983.5	
259.2	5301.5	
259.41	3805.1	
259.63	3846.1	
259.84	6296.1	
260.05	6771.9	
260.26	4954.7	
260.47	3637.9	
260.68	6059.3	
260.89	5313.8	
261.1	4498.7	
261.31	3536.8	
261.52	5948	
261.73	6393.1	
261.95	4898.1	
262.16	4252.9	
262.37	6183.5	
262.58	6269.5	
262.79	4874.8	
263	3864.5	
263.21	5412.1	
263.42	4980.7	
263.63	3857	
263.84	3799.7	
264.05	6035.4	
264.26	6396.5	
264.47	4721.3	
264.69	4244.1	
264.9	6167.1	
265.11	5644.2	
265.32	3653.6	
265.53	3749.1	
265.74	5572.5	
265.95	4846.9	
266.16	3983.3	
266.37	4431.8	
266.58	5566.4	
266.79	5253	
267	3734.1	
267.21	3420.1	
267.42	5104.2	
267.63	5425.8	
267.84	3916.4	
268.06	3366.2	
268.27	5862.7	
268.48	6105	
268.69	3810.6	
268.9	4523.3	
269.11	6108.4	
269.32	4935.6	
269.53	3921.2	
269.74	3633.1	
269.95	5739.8	
270.16	4752.7	
270.37	3906.2	
270.58	4554.7	
270.79	5338.4	
271	5995.1	
271.21	4197.7	
271.42	3969	
271.63	5558.2	
271.84	5062.6	
272.05	3121.1	
272.26	3521.8	
272.47	5459.9	
272.68	5681.7	
272.89	3747.8	
273.11	4405.2	
273.32	5247.6	
273.53	6470.9	
273.74	4257.7	
273.95	4157.4	
274.16	6173.9	
274.37	5524.7	
274.58	4310.3	
274.79	3443.3	
275	5530.9	
275.21	6165.8	
275.42	5146.5	
275.63	4425.7	
275.84	5674.2	
276.05	7152.2	
276.26	4186	
276.47	3903.4	
276.68	5296.7	
276.89	6485.2	
277.1	4392.9	
277.31	3401	
277.52	5748.6	
277.73	5860.6	
277.94	3487	
278.15	3780.6	
278.36	5686.5	
278.57	5124.7	
278.78	3791.5	
278.99	4277.5	
279.2	5047.6	
279.41	5063.9	
279.62	4963.6	
279.83	3504.1	
280.04	6666.1	
280.25	4982.7	
280.46	4947.2	
280.67	3872.7	
280.88	5025.7	
281.09	6072.2	
281.3	4105.5	
281.51	5279.7	
281.72	5153.4	
281.93	5961	
282.14	3626.3	
282.35	3972.4	
282.56	5931.6	
282.77	5972.6	
282.98	3804.4	
283.19	4676.2	
283.4	7319.4	
283.61	5373.2	
283.82	3384.6	
284.03	4941.7	
284.24	5542.5	
284.45	6066.8	
284.66	4849.6	
284.87	4692.6	
285.08	6016.9	
285.29	6206.7	
285.5	3348.4	
285.71	3820.1	
285.92	6051.7	
286.12	6748.1	
286.33	4831.2	
286.54	3904.8	
286.75	6002.6	
286.96	5450.3	
287.17	3478.8	
287.38	4815.5	
287.59	5119.2	
287.8	4984.1	
288.01	3850.2	
288.22	4437.9	
288.43	5972.6	
288.64	4954.7	
288.85	4513	
289.06	4343.1	
289.27	5906.3	
289.48	6468.9	
289.69	4908.3	
289.9	4405.2	
290.11	6127.5	
290.32	5144.5	
290.53	4655.7	
290.74	4291.9	
290.94	5920	
291.15	5898.8	
291.36	3654.9	
291.57	4404.5	
291.78	5165	
291.99	4858.5	
292.2	3504.1	
292.41	4286.4	
292.62	5984.2	
292.83	5833.3	
293.04	5304.2	
293.25	3514.3	
293.46	5253.7	
293.67	6048.3	
293.88	3728	
294.09	3547.1	
294.29	4972.5	
294.5	5601.2	
294.71	3925.3	
294.92	3757.3	
295.13	5253	
295.34	6599.2	
295.55	3306.1	
295.76	3528	
295.97	5840.8	
296.18	6666.8	
296.39	3494.5	
296.6	3730	
296.81	5563	
297.01	5878.4	
297.22	3901.4	
297.43	3646.7	
297.64	5064.6	
297.85	5122	
298.06	3048.1	
298.27	3287	
298.48	5522.7	
298.69	5171.8	
298.9	4003.1	
299.11	3573	
299.31	4972.5	
299.52	4988.9	
299.73	4270.7	
299.94	4190.8	
300.15	5469.4	
300.36	5098.8	
300.57	4201.7	
300.78	4172.4	
300.99	5265.3	
301.2	5523.4	
301.4	3616	
301.61	3986	
301.82	5809.4	
302.03	5919.3	
302.24	4587.4	
302.45	3495.2	
302.66	5839.4	
302.87	6190.3	
303.08	3687	
303.29	5064.6	
303.49	5246.9	
303.7	5504.9	
303.91	3302	
304.12	4799.8	
304.33	4935.6	
304.54	5648.3	
304.75	3725.9	
304.96	3501.3	
305.16	5767.1	
305.37	6576.7	
305.58	3203	
305.79	3332	
306	5710.4	
306.21	4894.6	
306.42	3632.4	
306.63	5651	
306.83	5313.8	
307.04	6112.5	
307.25	4102.8	
307.46	4024.9	
307.67	4627	
307.88	5935.7	
308.09	3547.1	
308.29	3803.1	
308.5	5556.8	
308.71	6072.2	
308.92	3982.6	
309.13	3499.3	
309.34	5289.9	
309.55	5393.7	
309.75	4609.3	
309.96	4268.6	
310.17	5913.9	
310.38	5122.7	
310.59	4488.5	
310.8	3428.3	
311.01	5233.2	
311.21	5369.1	
311.42	3463.1	
311.63	3601	
311.84	5234.6	
312.05	5647.6	
312.26	4070	
312.46	4501.4	
312.67	5253.7	
312.88	4950.6	
313.09	3536.8	
313.3	3482.2	
313.51	6296.8	
313.71	6654.5	
313.92	3538.9	
314.13	3773	
314.34	5658.5	
314.55	5388.9	
314.76	4576.5	
314.96	4031.1	
315.17	5555.5	
315.38	5957.5	
315.59	3609.2	
315.8	3411.2	
316.01	6322.1	
316.21	6434	
316.42	3450.8	
316.63	3959.4	
316.84	5326.1	
317.05	6159.6	
317.26	4268.6	
317.46	3760.1	
317.67	5394.3	
317.88	5823.1	
318.09	4528.7	
318.3	3284.9	
318.5	5158.8	
318.71	5767.8	
318.92	5817.6	
319.13	4248.9	
319.34	5899.5	
319.54	6074.3	
319.75	3300.6	
319.96	3172.3	
320.17	5871.5	
320.38	6037.4	
320.58	3199.6	
320.79	3895.2	
321	6075.6	
321.21	6207.4	
321.42	3940.3	
321.62	3259.7	
321.83	5058.5	
322.04	5493.3	
322.25	3747.1	
322.46	3565.5	
322.66	5591	
322.87	5757.5	
323.08	4409.3	
323.29	3537.5	
323.5	6468.9	
323.7	5030.5	
323.91	4887.1	
324.12	4418.2	
324.33	5560.9	
324.53	5805.3	
324.74	4220.2	
324.95	4467.3	
325.16	4891.9	
325.37	5318.6	
325.57	3565.5	
325.78	3612.6	
325.99	5597.1	
326.2	4960.9	
326.4	5199.1	
326.61	3324.5	
326.82	5360.9	
327.03	5590.3	
327.24	5098.8	
327.44	4813.4	
327.65	5711.1	
327.86	4618.2	
328.07	4230.4	
328.27	3424.9	
328.48	6169.2	
328.69	5059.8	
328.9	5156.8	
329.1	3807.2	
329.31	5340.4	
329.52	6348	
329.73	3599	
329.93	4036.5	
330.14	5477.6	
330.35	5683.8	
330.56	5923.4	
330.76	4462.5	
330.97	5251.7	
331.18	5651	
331.39	4047.5	
331.59	3231.7	
331.8	6082.5	
332.01	6214.2	
332.22	3691.8	
332.42	4177.9	
332.63	5604.6	
332.84	5172.5	
333.05	3947.8	
333.25	3653.6	
333.46	5202.5	
333.67	5515.2	
333.88	3682.9	
334.08	4144.4	
334.29	7320.1	
334.5	6176	
334.7	3444	
334.91	5106.3	
335.12	5004.6	
335.33	5913.2	
335.53	3984.7	
335.74	5900.2	
335.95	5228.5	
336.16	5083.1	
336.36	3932.1	
336.57	4642.1	
336.78	4953.4	
336.98	6085.9	
337.19	4901.5	
337.4	3843.4	
337.61	6584.2	
337.81	5009.3	
338.02	3645.4	
338.23	4762.9	
338.43	6260.6	
338.64	5110.4	
338.85	3609.9	
339.05	4670.1	
339.26	6369.9	
339.47	4893.3	
339.68	3609.2	
339.88	5402.5	
340.09	5754.1	
340.3	5987.6	
340.5	4242.7	
340.71	3260.4	
340.92	4960.9	
341.13	6230.6	
341.33	3465.2	
341.54	4261.1	
341.75	5705	
341.95	5364.3	
342.16	4119.8	
342.37	4327.4	
342.57	5034.6	
342.78	5386.8	
342.99	4521.2	
343.19	3175.7	
343.4	5848.3	
343.61	5753.4	
343.81	3807.2	
344.02	3542.3	
344.23	5831.2	
344.43	6320.7	
344.64	4438.6	
344.85	4363.5	
345.06	5773.2	
345.26	6101.6	
345.47	4108.2	
345.68	4891.9	
345.88	4818.9	
346.09	5965.1	
346.3	4214.7	
346.5	3130.7	
346.71	5489.2	
346.92	5143.8	
347.12	3252.2	
347.33	4145.1	
347.54	6030.6	
347.74	6478.4	
347.95	4108.9	
348.16	3052.2	
348.36	5324.7	
348.57	4969.7	
348.78	4079.6	
348.98	4392.2	
349.19	5442.1	
349.39	4909	
349.6	3287	
349.81	3719.1	
350.01	5738.4	
350.22	5150	
350.43	3959.4	
350.63	4741.7	
350.84	5534.3	
351.05	5248.9	
351.25	3586.7	
351.46	3279.5	
351.67	6099.5	
351.87	5188.9	
352.08	3839.9	
352.29	4387.4	
352.49	5894.1	
352.7	6066.8	
352.9	3538.9	
353.11	4420.9	
353.32	6593.1	
353.52	5287.2	
353.73	3484.3	
353.94	4465.9	
354.14	5775.3	
354.35	5622.4	
354.55	3536.8	
354.76	3990.1	
354.97	5767.1	
355.17	5551.4	
355.38	3366.2	
355.59	4732.9	
355.79	5123.3	
356	5607.3	
356.2	3938.9	
356.41	3418.1	
356.62	4889.9	
356.82	5386.2	
357.03	4230.4	
357.24	3788.1	
357.44	5177.9	
357.65	5308.3	
357.85	5136.3	
358.06	4040.6	
358.27	4889.2	
358.47	5127.4	
358.68	3363.4	
358.88	4285	
359.09	5710.4	
359.3	6174.6	
359.5	4982.7	
359.71	4448.2	
359.91	6625.9	
360.12	5963.7	
360.33	4246.1	
360.53	4772.4	
360.74	5237.3	
360.94	5192.3	
361.15	4480.3	
361.36	3663.8	
361.56	5987.6	
361.77	5389.6	
361.97	4945.2	
362.18	3934.1	
362.38	6032.6	
362.59	5068	
362.8	3572.3	
363	3407.8	
363.21	4846.9	
363.41	5664.7	
363.62	4078.2	
363.83	5201.2	
364.03	5588.2	
364.24	6693.4	
364.44	5236.7	
364.65	5310.4	
364.85	5335	
365.06	4967	
365.27	3744.4	
365.47	3798.3	
365.68	6481.1	
365.88	5317.2	
366.09	4227	
366.29	3872	
366.5	5713.8	
366.71	6163.7	
366.91	5191.6	
367.12	4385.4	
367.32	6685.9	
367.53	5999.2	
367.73	4224.3	
367.94	5326.1	
368.14	5942.5	
368.35	6841.6	
368.56	4293.9	
368.76	3618.8	
368.97	5959.6	
369.17	7723.6	
369.38	3710.2	
369.58	4061.8	
369.79	5089.9	
369.99	6351.4	
370.2	5119.9	
370.4	4104.1	
370.61	5694.7	
370.82	6987.7	
371.02	4055	
371.23	3359.4	
371.43	4921.3	
371.64	6298.9	
371.84	4074.1	
372.05	5383.4	
372.25	7660.8	
372.46	6069.5	
372.66	4077.5	
372.87	4068.6	
373.07	6043.6	
373.28	7740	
373.48	5112.4	
373.69	4846.2	
373.9	5474.2	
374.1	5596.4	
374.31	5056.4	
374.51	4639.3	
374.72	6430.6	
374.92	5231.9	
375.13	5242.1	
375.33	4431.1	
375.54	6006	
375.74	5403.2	
375.95	4510.3	
376.15	5771.2	
376.36	5958.9	
376.56	5794.4	
376.77	4539	
376.97	5052.3	
377.18	7081.2	
377.38	6044.9	
377.59	5394.3	
377.79	4017.4	
378	5938.4	
378.2	6328.2	
378.41	4121.9	
378.61	3964.2	
378.82	6332.3	
379.02	5341.1	
379.23	4239.3	
379.43	5411.4	
379.64	6443.6	
379.84	5989.6	
380.05	4061.1	
380.25	3965.6	
380.46	6126.8	
380.66	5726.8	
380.87	5465.3	
381.07	5872.2	
381.28	6775.4	
381.48	6152.1	
381.69	4115.1	
381.89	4118.5	
382.1	5032.5	
382.3	6342.6	
382.51	5266.7	
382.71	6192.4	
382.91	6207.4	
383.12	6685.3	
383.32	4445.5	
383.53	4714.4	
383.73	5963.7	
383.94	5730.9	
384.14	4622.9	
384.35	3665.2	
384.55	5578.7	
384.76	6144.6	
384.96	4422.9	
385.17	4820.2	
385.37	6090	
385.58	5363.6	
385.78	4805.2	
385.98	3638.6	
386.19	5584.1	
386.39	5980.8	
386.6	4310.3	
386.8	4501.4	
387.01	6152.8	
387.21	6150.1	
387.42	4917.2	
387.62	5513.8	
387.83	5391.6	
388.03	6128.2	
388.23	4573.8	
388.44	5420.3	
388.64	5149.3	
388.85	5254.4	
389.05	4928.8	
389.26	5562.3	
389.46	7198.6	
389.67	6564.4	
389.87	4878.3	
390.07	4972.5	
390.28	5749.3	
390.48	5320.6	
390.69	4093.9	
390.89	4409.3	
391.1	5488.6	
391.3	6528.2	
391.5	5685.2	
391.71	6291.4	
391.91	6178.7	
392.12	7273	
392.32	5655.8	
392.53	4889.9	
392.73	5567.1	
392.93	5796.4	
393.14	4460.5	
393.34	5364.3	
393.55	6343.2	
393.75	5675.6	
393.95	4567.7	
394.16	4542.4	
394.36	5532.9	
394.57	6257.9	
394.77	4066.6	
394.98	4506.2	
395.18	5491.3	
395.38	5632.6	
395.59	5438.7	
395.79	4317.8	
396	5617.6	
396.2	6090.7	
396.4	5150.6	
396.61	5091.9	
396.81	6324.8	
397.02	5595.7	
397.22	5402.5	
397.42	5502.2	
397.63	6354.8	
397.83	5543.9	
398.04	4238.6	
398.24	4780	
398.44	6047.7	
398.65	5133.6	
398.85	4078.2	
399.05	4216.1	
399.26	5465.3	
399.46	7294.9	
399.67	4659.8	
399.87	4397.7	
400.07	5890	
400.28	6293.4	
400.48	4438.6	
400.69	5507.7	
400.89	6505.7	
401.09	6957.6	
401.3	4300.7	
401.5	5506.3	
401.7	7181.5	
401.91	7370.6	
402.11	4675.5	
402.32	4878.9	
402.52	6446.3	
402.72	6258.6	
402.93	4989.5	
403.13	3838.6	
403.33	7051.2	
403.54	5760.9	
403.74	4776.5	
403.94	5692.7	
404.15	5961.6	
404.35	7167.2	
404.56	4611.3	
404.76	6528.2	
404.96	6554.2	
405.17	6277	
405.37	5556.8	
405.57	5114.5	
405.78	6536.4	
405.98	5883.1	
406.18	4477.5	
406.39	5430.5	
406.59	6427.2	
406.79	6028.5	
407	4314.4	
407.2	4486.4	
407.4	6516.6	
407.61	6759.7	
407.81	4580.6	
408.01	7055.3	
408.22	5606.7	
408.42	7594.6	
408.62	5691.3	
408.83	5154.1	
409.03	6138.4	
409.23	5900.2	
409.44	5279.7	
409.64	5504.9	
409.84	7075	
410.05	6980.8	
410.25	5319.9	
410.45	5144.5	
410.66	6466.1	
410.86	8961.2	
411.06	5628.5	
411.27	5399.8	
411.47	8793.3	
411.67	6645.7	
411.88	5686.5	
412.08	5900.2	
412.28	7283.9	
412.49	7787.1	
412.69	5338.4	
412.89	5395	
413.09	7598	
413.3	7423.2	
413.5	5508.4	
413.7	5098.8	
413.91	6642.2	
414.11	7573.4	
414.31	5298.8	
414.52	5717.2	
414.72	7264.1	
414.92	7116.7	
415.12	5393	
415.33	5860.6	
415.53	7579.5	
415.73	7706.5	
415.94	6177.4	
416.14	5644.9	
416.34	6497.5	
416.55	6242.9	
416.75	6903.7	
416.95	6269.5	
417.15	7529.7	
417.36	8277.9	
417.56	7167.9	
417.76	6137.1	
417.97	7968.6	
418.17	7617.1	
418.37	5615.5	
418.57	5799.2	
418.78	7254.6	
418.98	6879.1	
419.18	6546	
419.38	6546	
419.59	6993.1	
419.79	6578.1	
419.99	5555.5	
420.2	5917.3	
420.4	7586.4	
420.6	7703.8	
420.8	5522	
421.01	5358.9	
421.21	7335.1	
421.41	7570	
421.61	5884.5	
421.82	5512.4	
422.02	6817	
422.22	7820.5	
422.42	6392.4	
422.63	5961.6	
422.83	6940.6	
423.03	8212.4	
423.23	6039.5	
423.44	4916.5	
423.64	7032	
423.84	6757.6	
424.04	5471.5	
424.25	5066.7	
424.45	7909.9	
424.65	7948.2	
424.85	4833.2	
425.06	5553.4	
425.26	7836.9	
425.46	6941.2	
425.66	5949.3	
425.87	5629.9	
426.07	7651.9	
426.27	7456	
426.47	5853.8	
426.67	5180	
426.88	7922.9	
427.08	7430.7	
427.28	6120.7	
427.48	5098.1	
427.69	6222.4	
427.89	7012.2	
428.09	6032.6	
428.29	5121.3	
428.5	7734.5	
428.7	7178.8	
428.9	5016.2	
429.1	5641.5	
429.3	7204.8	
429.51	7569.3	
429.71	5375.9	
429.91	6100.9	
430.11	7514	
430.31	7700.4	
430.52	5621	
430.72	6007.4	
430.92	7992.5	
431.12	7453.9	
431.32	5392.3	
431.53	5708.4	
431.73	6319.3	
431.93	8073.1	
432.13	5248.9	
432.33	5093.3	
432.54	6861.4	
432.74	7203.4	
432.94	5021.6	
433.14	6180.1	
433.34	7434.1	
433.55	6832	
433.75	6094.8	
433.95	7898.3	
434.15	7119.4	
434.35	6922.8	
434.56	5262.6	
434.76	4755.4	
434.96	7115.3	
435.16	7460.8	
435.36	5057.8	
435.56	6238.1	
435.77	6737.1	
435.97	6939.2	
436.17	7110.5	
436.37	6275	
436.57	6769.2	
436.78	6631.3	
436.98	8049.9	
437.18	6855.9	
437.38	7438.2	
437.58	6886.6	
437.78	6831.3	
437.99	5479	
438.19	7443	
438.39	8811.7	
438.59	5373.2	
438.79	4913.1	
438.99	8154.3	
439.2	6931	
439.4	5165.7	
439.6	5140.4	
439.8	7359	
440	8437.6	
440.2	6202.6	
440.4	6378.7	
440.61	7718.1	
440.81	8321.6	
441.01	5305.6	
441.21	6181.5	
441.41	8047.8	
441.61	7634.8	
441.81	6435.4	
442.02	7555	
442.22	8542.1	
442.42	7790.5	
442.62	5309	
442.82	5474.2	
443.02	8017.1	
443.22	7221.8	
443.43	5838.1	
443.63	5431.9	
443.83	6937.8	
444.03	6975.4	
444.23	6769.9	
444.43	6215.6	
444.63	7312.6	
444.83	8552.3	
445.04	5460.6	
445.24	6750.1	
445.44	7596.6	
445.64	7753.6	
445.84	6268.1	
446.04	6172.6	
446.24	6939.2	
446.44	8094.9	
446.65	5427.8	
446.85	5750.7	
447.05	7143.3	
447.25	8030.1	
447.45	5889.3	
447.65	5272.2	
447.85	7287.4	
448.05	6935.8	
448.25	6354.8	
448.46	6182.1	
448.66	7338.6	
448.86	7034.1	
449.06	5127.4	
449.26	6309.8	
449.46	7737.9	
449.66	6647.7	
449.86	5817.6	
450.06	5863.3	
450.26	6901	
450.47	7478.5	
450.67	6107.7	
450.87	6403.3	
451.07	7602.1	
451.27	7368.6	
451.47	5341.1	
451.67	5948	
451.87	7005.4	
452.07	8163.9	
452.27	5601.9	
452.47	5633.3	
452.67	7295.5	
452.88	7963.9	
453.08	4916.5	
453.28	7015	
453.48	8537.3	
453.68	7206.1	
453.88	5479.7	
454.08	5750.7	
454.28	7742.7	
454.48	7347.4	
454.68	6354.2	
454.88	6875	
455.08	7833.5	
455.28	7528.3	
455.48	5348.6	
455.68	6035.4	
455.89	8279.9	
456.09	7855.3	
456.29	5723.4	
456.49	5768.4	
456.69	8115.4	
456.89	7374.1	
457.09	6300.2	
457.29	6692.8	
457.49	7718.1	
457.69	7883.3	
457.89	6128.9	
458.09	5522	
458.29	7514.7	
458.49	8137.3	
458.69	6524.8	
458.89	5895.4	
459.09	8332.5	
459.29	8524.3	
459.49	5982.1	
459.69	6822.5	
459.9	7962.5	
460.1	7403.4	
460.3	5889.3	
460.5	5698.1	
460.7	7952.9	
460.9	7595.2	
461.1	5415.5	
461.3	6663.4	
461.5	8598.7	
461.7	8125.7	
461.9	5793.7	
462.1	6331.6	
462.3	7677.8	
462.5	8311.3	
462.7	5806	
462.9	5979.4	
463.1	9170.8	
463.3	8976.9	
463.5	6204	
463.7	7090.1	
463.9	7854.6	
464.1	8215.8	
464.3	6214.2	
464.5	6445	
464.7	8451.3	
464.9	8082.6	
465.1	7879.2	
465.3	6794.5	
465.5	8798.1	
465.7	8775.5	
465.9	7102.4	
466.1	6877.1	
466.3	8652.7	
466.5	8417.2	
466.7	7830.1	
466.9	6569.9	
467.1	8335.2	
467.3	9371.5	
467.5	7712	
467.7	6599.2	
467.9	9512.8	
468.1	10452	
468.3	7375.4	
468.5	7836.9	
468.7	8273.1	
468.9	8352.3	
469.1	6754.2	
469.3	7508.5	
469.5	10209	
469.7	7815	
469.9	7243	
470.1	6528.2	
470.3	8229.4	
470.5	8301.8	
470.7	7952.9	
470.9	6615.6	
471.1	8003.5	
471.3	8444.5	
471.5	6369.2	
471.69	8450.6	
471.89	7838.3	
472.09	7402	
472.29	7332.4	
472.49	7666.9	
472.69	7587.7	
472.89	8514.1	
473.09	6258.6	
473.29	6445	
473.49	7785.7	
473.69	7955.7	
473.89	7492.8	
474.09	6691.4	
474.29	9159.2	
474.49	8938	
474.69	7396.6	
474.89	6796.5	
475.09	8020.5	
475.29	7925	
475.49	6071.5	
475.69	6452.5	
475.88	9527.2	
476.08	8249.2	
476.28	6065.4	
476.48	6610.8	
476.68	8654	
476.88	8565.3	
477.08	6451.8	
477.28	6756.9	
477.48	8107.2	
477.68	8721.6	
477.88	6212.9	
478.08	6455.9	
478.28	8974.9	
478.48	8153	
478.67	6558.3	
478.87	6075.6	
479.07	8783.1	
479.27	8268.3	
479.47	6815	
479.67	6730.3	
479.87	8576.9	
480.07	9176.9	
480.27	6043.6	
480.47	7694.2	
480.67	8202.8	
480.87	8903.2	
481.06	6256.5	
481.26	7103	
481.46	8164.6	
481.66	8150.9	
481.86	6722.8	
482.06	7823.2	
482.26	7862.8	
482.46	8974.9	
482.66	6720.8	
482.86	6275	
483.05	8262.9	
483.25	7661.5	
483.45	9314.2	
483.65	6711.9	
483.85	7840.3	
484.05	8112	
484.25	7176.8	
484.45	7649.8	
484.65	9051.3	
484.84	9006.3	
485.04	6664.1	
485.24	6623.8	
485.44	9305.3	
485.64	7580.2	
485.84	5892.7	
486.04	7333.8	
486.24	7920.9	
486.44	8339.3	
486.63	5743.9	
486.83	6688.7	
487.03	7819.1	
487.23	8049.2	
487.43	5986.2	
487.63	8359.1	
487.83	8049.9	
488.02	9088.2	
488.22	6963.1	
488.42	7596.6	
488.62	9053.4	
488.82	7900.4	
489.02	6621.8	
489.22	6697.5	
489.41	8853.4	
489.61	8552.3	
489.81	6277	
490.01	6278.4	
490.21	8619.2	
490.41	9386.5	
490.61	6212.9	
490.8	6380.1	
491	8070.4	
491.2	7492.2	
491.4	6960.4	
491.6	6065.4	
491.8	8174.8	
491.99	8428.1	
492.19	6046.3	
492.39	6409.5	
492.59	8802.9	
492.79	8869.8	
492.99	7231.4	
493.18	6383.5	
493.38	8933.9	
493.58	9706.7	
493.78	7091.4	
493.98	6667.5	
494.18	8602.8	
494.37	7992.5	
494.57	7191.1	
494.77	7187.7	
494.97	8815.1	
495.17	9149.6	
495.37	6681.8	
495.56	7085.3	
495.76	9258.2	
495.96	8797.4	
496.16	7888.8	
496.36	6795.8	
496.55	8989.9	
496.75	8526.4	
496.95	7175.4	
497.15	6966.5	
497.35	8946.2	
497.54	8972.2	
497.74	6893.5	
497.94	8626	
498.14	9676	
498.34	9430.2	
498.53	6591.7	
498.73	7387	
498.93	8251.3	
499.13	8859.5	
499.33	7138.5	
499.52	7636.9	
499.72	8819.2	
499.92	9248.6	
500.12	6778.8	
500.32	7011.6	
500.51	9119.6	
500.71	8878.6	
500.91	7867.6	
501.11	7405.5	
501.31	8976.2	
501.5	9540.8	
501.7	8147.5	
501.9	7102.4	
502.1	8857.5	
502.29	9171.5	
502.49	7460.1	
502.69	7925.6	
502.89	9021.3	
503.09	8919.6	
503.28	6529.6	
503.48	6665.5	
503.68	8203.5	
503.88	8155	
504.07	7688.8	
504.27	7109.2	
504.47	8658.8	
504.67	8843.1	
504.86	7544.7	
505.06	7157.7	
505.26	8211.7	
505.46	10044	
505.65	7073	
505.85	7251.2	
506.05	8154.3	
506.25	8725.7	
506.44	6322.8	
506.64	7474.4	
506.84	8087.4	
507.04	9105.3	
507.23	6705	
507.43	7228	
507.63	10112	
507.83	8328.4	
508.02	7172.7	
508.22	6833.4	
508.42	10376	
508.62	8029.4	
508.81	7074.4	
509.01	7637.6	
509.21	8018.5	
509.4	8327.7	
509.6	7326.9	
509.8	6593.8	
510	8299.7	
510.19	9783.8	
510.39	6620.4	
510.59	6741.9	
510.79	8025.3	
510.98	9536	
511.18	6718.7	
511.38	6770.6	
511.57	8865.7	
511.77	8663.6	
511.97	7563.8	
512.17	6452.5	
512.36	8847.9	
512.56	8825.4	
512.76	6569.9	
512.95	6323.4	
513.15	8957.1	
513.35	7593.2	
513.55	7435.5	
513.74	6526.9	
513.94	8868.4	
514.14	8272.4	
514.33	7437.5	
514.53	7281.2	
514.73	8217.1	
514.92	8374.8	
515.12	6797.9	
515.32	6554.9	
515.51	8489.5	
515.71	9096.4	
515.91	8370	
516.11	6512.5	
516.3	10236	
516.5	8000.7	
516.7	7185	
516.89	7684.7	
517.09	8250.6	
517.29	8133.8	
517.48	7464.8	
517.68	6789.7	
517.88	7925	
518.07	8527.7	
518.27	7434.1	
518.47	6285.9	
518.66	9187.2	
518.86	7651.2	
519.06	6246.3	
519.25	6679.1	
519.45	8085.4	
519.65	9693.7	
519.84	7445.7	
520.04	8044.4	
520.24	9830.2	
520.43	8683.4	
520.63	6979.5	
520.83	6735.1	
521.02	7792.5	
521.22	8583	
521.42	7251.9	
521.61	7851.9	
521.81	8163.9	
522.01	8409	
522.2	7137.2	
522.4	6912.6	
522.6	8776.9	
522.79	7631.4	
522.99	7012.2	
523.18	6262.7	
523.38	8436.3	
523.58	8463.6	
523.77	8371.4	
523.97	6217.6	
524.17	10376	
524.36	9552.4	
524.56	7622.5	
524.76	7176.1	
524.95	8393.3	
525.15	8122.2	
525.34	6941.2	
525.54	7030.7	
525.74	8782.4	
525.93	7675.8	
526.13	8140.7	
526.33	6913.3	
526.52	9112.8	
526.72	8570.7	
526.91	8200.7	
527.11	7503.8	
527.31	9214.5	
527.5	9566.7	
527.7	7346.7	
527.89	6341.9	
528.09	8033.5	
528.29	8753.7	
528.48	7752.9	
528.68	7434.8	
528.87	9023.4	
529.07	9070.5	
529.27	7223.2	
529.46	6640.2	
529.66	8602.2	
529.85	8981	
530.05	6438.1	
530.25	7243	
530.44	9962	
530.64	8530.5	
530.83	6919.4	
531.03	7259.4	
531.23	8959.2	
531.42	8875.2	
531.62	8051.2	
531.81	7193.1	
532.01	9150.3	
532.21	9713.5	
532.4	6860	
532.6	7311.2	
532.79	10135	
532.99	9085.5	
533.18	7154.2	
533.38	8279.9	
533.58	8519.6	
533.77	9450	
533.97	7217.7	
534.16	7998.7	
534.36	9602.2	
534.55	8576.2	
534.75	8207.6	
534.95	7204.1	
535.14	9398.1	
535.34	8610.3	
535.53	6814.3	
535.73	8825.4	
535.92	9927.2	
536.12	8740.7	
536.31	6945.3	
536.51	8172.8	
536.71	9130.5	
536.9	8635.6	
537.1	7206.8	
537.29	7281.9	
537.49	9531.2	
537.68	8532.5	
537.88	7658.7	
538.07	6870.9	
538.27	8809	
538.46	9880.1	
538.66	6840.2	
538.86	7194.5	
539.05	8815.1	
539.25	9297.1	
539.44	7477.1	
539.64	7015	
539.83	8614.4	
540.03	9594.7	
540.22	6922.1	
540.42	7126.2	
540.61	8938	
540.81	9000.8	
541	7536.5	
541.2	8097.7	
541.39	8410.3	
541.59	8747.6	
541.78	7789.8	
541.98	6918.7	
542.18	8045.8	
542.37	7972.1	
542.57	7311.2	
542.76	7821.2	
542.96	8026	
543.15	8831.5	
543.35	7324.9	
543.54	6664.8	
543.74	9133.3	
543.93	8703.2	
544.13	7314.7	
544.32	8392.6	
544.52	9156.5	
544.71	8251.9	
544.91	6357.6	
545.1	7675.8	
545.3	8271.1	
545.49	8990.6	
545.69	6333.7	
545.88	6956.9	
546.08	9901.9	
546.27	9557.2	
546.47	7530.4	
546.66	6715.3	
546.86	9187.2	
547.05	9880.8	
547.24	7047.1	
547.44	6845	
547.63	8024.6	
547.83	9310.7	
548.02	7263.5	
548.22	7441	
548.41	7925	
548.61	9228.8	
548.8	6773.3	
549	6684.6	
549.19	8607.6	
549.39	8870.4	
549.58	6384.9	
549.78	6969.9	
549.97	8938.7	
550.17	8449.2	
550.36	8746.2	
550.55	8952.4	
550.75	8383	
550.94	9450.7	
551.14	6701	
551.33	7101	
551.53	7782.3	
551.72	8747.6	
551.92	7170.6	
552.11	6848.4	
552.31	8882	
552.5	8945.5	
552.69	8602.2	
552.89	6440.2	
553.08	8796	
553.28	8399.4	
553.47	6883.9	
553.67	7937.9	
553.86	9546.3	
554.06	7666.2	
554.25	6098.9	
554.44	6678.4	
554.64	10274	
554.83	9673.9	
555.03	6565.8	
555.22	6894.1	
555.42	8973.5	
555.61	8641.7	
555.8	6805.4	
556	7138.5	
556.19	7752.9	
556.39	9035	
556.58	6833.4	
556.78	6799.9	
556.97	8597.4	
557.16	8206.9	
557.36	8114.7	
557.55	6427.2	
557.75	7573.4	
557.94	9388.6	
558.13	6609.5	
558.33	6257.9	
558.52	9099.8	
558.72	7969.3	
558.91	6435.4	
559.1	6616.3	
559.3	7592.5	
559.49	7417.7	
559.69	5952.8	
559.88	7079.8	
560.07	8608.3	
560.27	8932.6	
560.46	7177.4	
560.66	7342.7	
560.85	8206.9	
561.04	7383.6	
561.24	6378.1	
561.43	6608.1	
561.63	7741.3	
561.82	7955	
562.01	7854	
562.21	6946	
562.4	8486.1	
562.59	9493	
562.79	6798.6	
562.98	6398.5	
563.18	8426	
563.37	9904	
563.56	7288	
563.76	6292	
563.95	7821.2	
564.14	7737.9	
564.34	6652.5	
564.53	6421.7	
564.73	8345.5	
564.92	8659.5	
565.11	6860	
565.31	6284.5	
565.5	8939.4	
565.69	7912.7	
565.89	6454.5	
566.08	6730.3	
566.27	8783.1	
566.47	9135.3	
566.66	7444.4	
566.85	6026.5	
567.05	8367.3	
567.24	7730.4	
567.44	6326.2	
567.63	7765.2	
567.82	8512	
568.02	8289.5	
568.21	6264.1	
568.4	6673.6	
568.6	8209.6	
568.79	8273.1	
568.98	6156.9	
569.18	6353.5	
569.37	8114.7	
569.56	10181	
569.76	6640.9	
569.95	7632.1	
570.14	8503.8	
570.34	8374.1	
570.53	6156.2	
570.72	6168.5	
570.91	8927.1	
571.11	8065.6	
571.3	6744	
571.49	7611.6	
571.69	8183.7	
571.88	7720.2	
572.07	7168.6	
572.27	7222.5	
572.46	7707.9	
572.65	8756.4	
572.85	6374	
573.04	6735.1	
573.23	9024	
573.43	8149.6	
573.62	6117.3	
573.81	6783.6	
574	8232.2	
574.2	8087.4	
574.39	6495.5	
574.58	6726.2	
574.78	9039.1	
574.97	8301.8	
575.16	7036.1	
575.36	7165.8	
575.55	8686.1	
575.74	8847.9	
575.93	6085.2	
576.13	7020.4	
576.32	8003.5	
576.51	8589.2	
576.71	6466.1	
576.9	7915.4	
577.09	8929.1	
577.28	8449.9	
577.48	7058.7	
577.67	6059.3	
577.86	8103.8	
578.05	8399.4	
578.25	6668.9	
578.44	6712.6	
578.63	8212.4	
578.83	9475.3	
579.02	6019.7	
579.21	7629.4	
579.4	8372.8	
579.6	8073.1	
579.79	6859.3	
579.98	9085.5	
580.17	8684.8	
580.37	8794	
580.56	6309.8	
580.75	7061.4	
580.94	9312.1	
581.14	9110.7	
581.33	7555	
581.52	6439.5	
581.71	8615.1	
581.91	9304.6	
582.1	6053.1	
582.29	6759.7	
582.48	8305.9	
582.68	8159.8	
582.87	7196.6	
583.06	6751.5	
583.25	8463.6	
583.45	7874.4	
583.64	7421.8	
583.83	8230.8	
584.02	8017.1	
584.21	8475.9	
584.41	7561.8	
584.6	6685.9	
584.79	8121.6	
584.98	9002.9	
585.18	6178	
585.37	6178	
585.56	7681.2	
585.75	8535.9	
585.94	6395.1	
586.14	7064.1	
586.33	9134.6	
586.52	8074.5	
586.71	6933.1	
586.91	6587.6	
587.1	7562.5	
587.29	8586.5	
587.48	6591.7	
587.67	6454.5	
587.87	8418.5	
588.06	8615.1	
588.25	7845.1	
588.44	7078.5	
588.63	8036.2	
588.83	8643.8	
589.02	6440.2	
589.21	6333	
589.4	7775.5	
589.59	7643.7	
589.78	5565.7	
589.98	5924.8	
590.17	7310.6	
590.36	8019.2	
590.55	5381.4	
590.74	6275.7	
590.94	9453.4	
591.13	7993.9	
591.32	6026.5	
591.51	5585.5	
591.7	8469	
591.89	7850.5	
592.09	5715.9	
592.28	6217.6	
592.47	7105.1	
592.66	8966.7	
592.85	5677.7	
593.05	5851	
593.24	7715.4	
593.43	8421.2	
593.62	5980.1	
593.81	6522.8	
594	7768.6	
594.19	8008.9	
594.39	5866.7	
594.58	5768.4	
594.77	8051.2	
594.96	8696.4	
595.15	5774.6	
595.34	6432.7	
595.54	8117.5	
595.73	7153.6	
595.92	5199.1	
596.11	6318.7	
596.3	8671.8	
596.49	7241.6	
596.68	6133	
596.88	6675	
597.07	8295	
597.26	7071	
597.45	5631.9	
597.64	6847.7	
597.83	7349.5	
598.02	8028.7	
598.22	5683.8	
598.41	6399.2	
598.6	7851.9	
598.79	7258	
598.98	5755.5	
599.17	6756.9	
599.36	7793.2	
599.55	9086.2	
599.74	7951.6	
599.94	7572.7	
600.13	8372.1	
600.32	7210.9	
600.51	5509.7	
600.7	5662.6	
600.89	9092.3	
601.08	9123	
601.27	5466.7	
601.47	6414.2	
601.66	8357.1	
601.85	9006.3	
602.04	6185.5	
602.23	6397.2	
602.42	7331	
602.61	8030.1	
602.8	5961.6	
602.99	5890.6	
603.18	7692.9	
603.37	7892.9	
603.57	6503.7	
603.76	7112.6	
603.95	8673.1	
604.14	8254.7	
604.33	5898.8	
604.52	6194.4	
604.71	7986.4	
604.9	7522.9	
605.09	6836.8	
605.28	6703	
605.47	8514.1	
605.66	8116.8	
605.86	6432.7	
606.05	5847	
606.24	8468.4	
606.43	7044.3	
606.62	6221	
606.81	7043.6	
607	8327.7	
607.19	7669	
607.38	5695.4	
607.57	5909.8	
607.76	7359.7	
607.95	6838.9	
608.14	6289.3	
608.33	6870.9	
608.52	7370	
608.72	8317.5	
608.91	5533.6	
609.1	5512.4	
609.29	7489.4	
609.48	6977.4	
609.67	6501.6	
609.86	5518.6	
610.05	7111.9	
610.24	7525.6	
610.43	5377.3	
610.62	4999.1	
610.81	8588.5	
611	8355	
611.19	5559.6	
611.38	6283.2	
611.57	7692.9	
611.76	9106	
611.95	5417.6	
612.14	5174.5	
612.33	7617.1	
612.52	7060.7	
612.71	5907	
612.9	5096.7	
613.09	6697.5	
613.28	9091.6	
613.47	5639.4	
613.66	6544.6	
613.85	7714.7	
614.04	7238.2	
614.24	5649	
614.43	4871.4	
614.62	7858.7	
614.81	7735.9	
615	6298.9	
615.19	6319.3	
615.38	7060	
615.57	7440.3	
615.76	6096.1	
615.95	7049.8	
616.14	7845.1	
616.33	7538.6	
616.52	6427.9	
616.71	6670.9	
616.9	7821.2	
617.09	7591.8	
617.28	5773.2	
617.47	7048.4	
617.66	6839.5	
617.85	6830	
618.04	6718.7	
618.22	6099.5	
618.41	7195.9	
618.6	8118.8	
618.79	5990.3	
618.98	5657.9	
619.17	8301.8	
619.36	6754.2	
619.55	5779.4	
619.74	5835.3	
619.93	7637.6	
620.12	7068.9	
620.31	6359.6	
620.5	6620.4	
620.69	8244.4	
620.88	8552.3	
621.07	7315.3	
621.26	6227.2	
621.45	7694.2	
621.64	7843	
621.83	6404.7	
622.02	5498.1	
622.21	7787.7	
622.4	7561.8	
622.59	7036.1	
622.78	6666.8	
622.97	7152.9	
623.16	8184.4	
623.35	6264.7	
623.54	5451	
623.72	7326.3	
623.91	7516	
624.1	6642.2	
624.29	5165.7	
624.48	8564.6	
624.67	7817.8	
624.86	6419	
625.05	5484.5	
625.24	8729.1	
625.43	7077.1	
625.62	8208.3	
625.81	5673.6	
626	8140.7	
626.19	7373.4	
626.38	6540.5	
626.56	5845.6	
626.75	7178.1	
626.94	7923.6	
627.13	6515.3	
627.32	5135.6	
627.51	7802.8	
627.7	9176.3	
627.89	5363.6	
628.08	6499.6	
628.27	7027.9	
628.46	7223.2	
628.65	5662	
628.83	5309	
629.02	7791.8	
629.21	7077.1	
629.4	6084.5	
629.59	6217.6	
629.78	7065.5	
629.97	8051.2	
630.16	6355.5	
630.35	5796.4	
630.54	8460.8	
630.72	8189.8	
630.91	5715.2	
631.1	6366.5	
631.29	7541.3	
631.48	7785	
631.67	6401.3	
631.86	5816.9	
632.05	7215.7	
632.24	7299.6	
632.42	5520.6	
632.61	6240.8	
632.8	7449.1	
632.99	7066.2	
633.18	6124.1	
633.37	6546	
633.56	7662.8	
633.75	7423.9	
633.93	6117.3	
634.12	5791	
634.31	8432.2	
634.5	8054.7	
634.69	5801.9	
634.88	6404	
635.07	7283.9	
635.25	8077.9	
635.44	6796.5	
635.63	6952.2	
635.82	7240.3	
636.01	6726.9	
636.2	6698.2	
636.39	6313.2	
636.57	8432.9	
636.76	8115.4	
636.95	5646.9	
637.14	7053.2	
637.33	7699	
637.52	8687.5	
637.7	5408.7	
637.89	6356.2	
638.08	7286.7	
638.27	8781	
638.46	6506.4	
638.65	6994.5	
638.83	8753.7	
639.02	7066.9	
639.21	6374	
639.4	6897.6	
639.59	7633.5	
639.78	7097.6	
639.96	5740.5	
640.15	5753.4	
640.34	7505.1	
640.53	7690.8	
640.72	5391.6	
640.91	5773.9	
641.09	6937.8	
641.28	8288.8	
641.47	6053.1	
641.66	6641.6	
641.85	7629.4	
642.03	7900.4	
642.22	6424.5	
642.41	5890	
642.6	7038.2	
642.79	6452.5	
642.97	5586.9	
643.16	6401.3	
643.35	6987	
643.54	6862.1	
643.73	5554.1	
643.91	6335	
644.1	6664.8	
644.29	7344.7	
644.48	5627.8	
644.67	5743.9	
644.85	6873	
645.04	7253.2	
645.23	5221	
645.42	5557.5	
645.6	6750.8	
645.79	7973.4	
645.98	5512.4	
646.17	4619.5	
646.36	6548	
646.54	7172.7	
646.73	6492.7	
646.92	5236.7	
647.11	6855.2	
647.29	7954.3	
647.48	5257.1	
647.67	5063.9	
647.86	8044.4	
648.05	8095.6	
648.23	5621	
648.42	6982.9	
648.61	7447.1	
648.8	7217	
648.98	5208	
649.17	5648.3	
649.36	6883.9	
649.55	6227.9	
649.73	5331.5	
649.92	6075.6	
650.11	6704.4	
650.3	7012.2	
650.48	5388.2	
650.67	5085.8	
650.86	7289.4	
651.05	6216.3	
651.23	5393	
651.42	5435.3	
651.61	6763.1	
651.79	6853.9	
651.98	5607.3	
652.17	5220.3	
652.36	7238.9	
652.54	6276.3	
652.73	5340.4	
652.92	5118.6	
653.11	7260	
653.29	7422.5	
653.48	4532.8	
653.67	5570.5	
653.85	7051.8	
654.04	8102.4	
654.23	5905.7	
654.42	5298.8	
654.6	6578.8	
654.79	7296.2	
654.98	4816.8	
655.16	5347.9	
655.35	6230.6	
655.54	6176.7	
655.73	4944.5	
655.91	4906.3	
656.1	7353.6	
656.29	6178.7	
656.47	4462.5	
656.66	6172.6	
656.85	6361.7	
657.03	6536.4	
657.22	4914.4	
657.41	4978.6	
657.59	6462	
657.78	6273.6	
657.97	4588.8	
658.16	5403.2	
658.34	7167.9	
658.53	7573.4	
658.72	6307.1	
658.9	6846.4	
659.09	6558.3	
659.28	6750.8	
659.46	5124	
659.65	5044.1	
659.84	6386.2	
660.02	6849.1	
660.21	4872.8	
660.4	4833.9	
660.58	7333.1	
660.77	6692.8	
660.96	5561.6	
661.14	4553.3	
661.33	7862.2	
661.52	7762.5	
661.7	4469.4	
661.89	8261.5	
662.08	6283.9	
662.26	5919.3	
662.45	4734.9	
662.64	4869.4	
662.82	7019.8	
663.01	6108.4	
663.2	4962.2	
663.38	5715.2	
663.57	6887.3	
663.75	6794.5	
663.94	5221.6	
664.13	6645	
664.31	6296.1	
664.5	6992.4	
664.69	5645.6	
664.87	6152.8	
665.06	5967.1	
665.25	6821.1	
665.43	6334.4	
665.62	6407.4	
665.8	7179.5	
665.99	6439.5	
666.18	5274.9	
666.36	5351.3	
666.55	7135.1	
666.74	7006.8	
666.92	4830.5	
667.11	6532.3	
667.29	6394.4	
667.48	7053.2	
667.67	6126.2	
667.85	5328.8	
668.04	6511.2	
668.22	6482.5	
668.41	5340.4	
668.6	5448.3	
668.78	6271.6	
668.97	6471.6	
669.15	5691.3	
669.34	4640.7	
669.53	6271.6	
669.71	6563.1	
669.9	4795	
670.08	5520	
670.27	6262.7	
670.46	6835.4	
670.64	5683.1	
670.83	5939.8	
671.01	6143.9	
671.2	6785.6	
671.38	4901.5	
671.57	4785.4	
671.76	7423.9	
671.94	8071	
672.13	4654.4	
672.31	5847.6	
672.5	6921.5	
672.69	6289.3	
672.87	4953.4	
673.06	5223.7	
673.24	6814.3	
673.43	6311.8	
673.61	5536.3	
673.8	5176.6	
673.98	7019.1	
674.17	7121.5	
674.36	5784.8	
674.54	5631.2	
674.73	6758.3	
674.91	6995.2	
675.1	5347.2	
675.28	4976.6	
675.47	6525.5	
675.65	7044.3	
675.84	5179.3	
676.03	5588.2	
676.21	6271.6	
676.4	5850.4	
676.58	6065.4	
676.77	5739.8	
676.95	7717.4	
677.14	6226.5	
677.32	4937	
677.51	4644.8	
677.69	6980.8	
677.88	5870.2	
678.06	4773.8	
678.25	4800.4	
678.44	6532.3	
678.62	6232	
678.81	4597.7	
678.99	5623.7	
679.18	7345.4	
679.36	6870.9	
679.55	5119.2	
679.73	5754.8	
679.92	6808.1	
680.1	6247	
680.29	6381.5	
680.47	5175.2	
680.66	6163	
680.84	7096.2	
681.03	4409.3	
681.21	5681.7	
681.4	6266.8	
681.58	6102.9	
681.77	4917.2	
681.95	4829.1	
682.14	7077.8	
682.32	7441.6	
682.51	5864	
682.69	4584.7	
682.88	6118.6	
683.06	6869.6	
683.25	5510.4	
683.43	5991.7	
683.62	6446.3	
683.8	6898.2	
683.99	6109.8	
684.17	5399.8	
684.36	7752.9	
684.54	6358.3	
684.73	4574.5	
684.91	4775.2	
685.1	6823.8	
685.28	6189.6	
685.46	5360.9	
685.65	5469.4	
685.83	7072.3	
686.02	6425.2	
686.2	4945.8	
686.39	5009.3	
686.57	6115.2	
686.76	7718.8	
686.94	4863.9	
687.13	5014.8	
687.31	6953.5	
687.5	6365.1	
687.68	4482.3	
687.86	5863.3	
688.05	8147.5	
688.23	5820.3	
688.42	5898.8	
688.6	4911.7	
688.79	6220.4	
688.97	6204.7	
689.16	5369.1	
689.34	4219.5	
689.52	7012.2	
689.71	7225.9	
689.89	5640.8	
690.08	4889.2	
690.26	6477.7	
690.45	6383.5	
690.63	5748.6	
690.81	5068.7	
691	6235.4	
691.18	6206.7	
691.37	5233.9	
691.55	7445	
691.74	6095.4	
691.92	8219.9	
692.1	5260.5	
692.29	4638	
692.47	6366.5	
692.66	5640.1	
692.84	4796.3	
693.02	5431.2	
693.21	5741.1	
693.39	6264.7	
693.58	5541.1	
693.76	4911.7	
693.94	7533.1	
694.13	7312.6	
694.31	4888.5	
694.5	5982.1	
694.68	6092	
694.86	6402	
695.05	5181.4	
695.23	5324	
695.42	6854.6	
695.6	9261.6	
695.78	5848.3	
695.97	4920.6	
696.15	6814.3	
696.34	6229.9	
696.52	4674.8	
696.7	5513.8	
696.89	6624.5	
697.07	6029.9	
697.25	5461.2	
697.44	7121.5	
697.62	6578.8	
697.81	6995.2	
697.99	5151.3	
698.17	5595.7	
698.36	5909.8	
698.54	6615.6	
698.72	5547.3	
698.91	4430.4	
699.09	6111.1	
699.28	6055.2	
699.46	5126.1	
699.64	5031.9	
699.83	5959.6	
700.01	7329.7	
700.19	5816.9	
700.38	4239.3	
700.56	7253.9	
700.74	6097.5	
700.93	4653.7	
701.11	5523.4	
701.29	6591.7	
701.48	7699	
701.66	4844.1	
701.84	4904.9	
702.03	6158.9	
702.21	6799.9	
702.39	4386.7	
702.58	5030.5	
702.76	6588.3	
702.94	6738.5	
703.13	4419.5	
703.31	6905.8	
703.49	5892	
703.68	6765.8	
703.86	4538.3	
704.04	5623.7	
704.23	6335.7	
704.41	6818.4	
704.59	4720.6	
704.78	6123.4	
704.96	7474.4	
705.14	6861.4	
705.33	4476.2	
705.51	5401.9	
705.69	6177.4	
705.87	7058.7	
706.06	5667.4	
706.24	4489.1	
706.42	6516	
706.61	6790.4	
706.79	5756.2	
706.97	4499.4	
707.16	5988.9	
707.34	6622.4	
707.52	5705.6	
707.7	4738.3	
707.89	6208.1	
708.07	5814.2	
708.25	5640.1	
708.44	5766.4	
708.62	6074.3	
708.8	7242.3	
708.98	5944.6	
709.17	4820.2	
709.35	6445.6	
709.53	6542.6	
709.72	4530.8	
709.9	4734.9	
710.08	6731.7	
710.26	6754.9	
710.45	6204	
710.63	4955.4	
710.81	6423.8	
710.99	6449.1	
711.18	5508.4	
711.36	4962.2	
711.54	6221	
711.72	7039.6	
711.91	5120.6	
712.09	4520.5	
712.27	6442.2	
712.45	7538.6	
712.64	5494	
712.82	4370.4	
713	5864.7	
713.18	6066.8	
713.37	4576.5	
713.55	5735	
713.73	6941.9	
713.91	5627.8	
714.1	4975.9	
714.28	4412	
714.46	6718.7	
714.64	5917.9	
714.83	3986.7	
715.01	4883.7	
715.19	6059.3	
715.37	5469.4	
715.55	4607.2	
715.74	4931.5	
715.92	7086	
716.1	5021.6	
716.28	6063.4	
716.47	5075.5	
716.65	5793.7	
716.83	5782.8	
717.01	4904.9	
717.19	5023.7	
717.38	8012.3	
717.56	5543.2	
717.74	5173.2	
717.92	4314.4	
718.1	6821.1	
718.29	5942.5	
718.47	3891.8	
718.65	4645.5	
718.83	6557.6	
719.01	6431.3	
719.2	3709.6	
719.38	4823	
719.56	6169.2	
719.74	7732.4	
719.92	4403.8	
720.11	5449.6	
720.29	6209.4	
720.47	5340.4	
720.65	3960.8	
720.83	4857.8	
721.02	5775.3	
721.2	5490.6	
721.38	4921.3	
721.56	4207.9	
721.74	5043.5	
721.92	5311.7	
722.11	5544.5	
722.29	5216.9	
722.47	6561	
722.65	5757.5	
722.83	4272.7	
723.01	5244.2	
723.2	5752.1	
723.38	6023.1	
723.56	3683.6	
723.74	4906.9	
723.92	5285.8	
724.1	6445	
724.29	4197.7	
724.47	5459.2	
724.65	5351.3	
724.83	5255.1	
725.01	4066.6	
725.19	5038	
725.37	5371.8	
725.56	5382.7	
725.74	3924.6	
725.92	4190.1	
726.1	5195	
726.28	5600.5	
726.46	4681	
726.64	4340.3	
726.83	5600.5	
727.01	5841.5	
727.19	3949.2	
727.37	4754.7	
727.55	5726.8	
727.73	6195.8	
727.91	3879.5	
728.09	3741	
728.28	6244.9	
728.46	6926.9	
728.64	4890.5	
728.82	4868	
729	7356.3	
729.18	6529.6	
729.36	3986	
729.54	6421.7	
729.72	7581.6	
729.91	5805.3	
730.09	6044.2	
730.27	4700.1	
730.45	5677.7	
730.63	6363.7	
730.81	5280.3	
730.99	4261.8	
731.17	6845.7	
731.35	5395	
731.53	4856.4	
731.71	4398.4	
731.9	6581.5	
732.08	6830	
732.26	4685.1	
732.44	4384.7	
732.62	6873	
732.8	6318	
732.98	5199.8	
733.16	4176.5	
733.34	6258.6	
733.52	5081	
733.7	4724.7	
733.88	5085.1	
734.07	6199.2	
734.25	5883.8	
734.43	4136.9	
734.61	5784.8	
734.79	7438.9	
734.97	5816.2	
735.15	4356	
735.33	4650.3	
735.51	6162.3	
735.69	5801.9	
735.87	5889.3	
736.05	4845.5	
736.23	6025.8	
736.41	5737.7	
736.59	4721.3	
736.77	4848.9	
736.95	6486.6	
737.13	5859.2	
737.32	4361.5	
737.5	4603.8	
737.68	7016.3	
737.86	5769.1	
738.04	4136.9	
738.22	6159.6	
738.4	5592.3	
738.58	5894.7	
738.76	4836.6	
738.94	3704.1	
739.12	5724.1	
739.3	5601.9	
739.48	5412.8	
739.66	5197.1	
739.84	5961	
740.02	5945.9	
740.2	3850.2	
740.38	4245.4	
740.56	6383.5	
740.74	5201.8	
740.92	4932.2	
741.1	4851	
741.28	5824.4	
741.46	5688.6	
741.64	4447.5	
741.82	5039.4	
742	5890.6	
742.18	5821	
742.36	4686.4	
742.54	4279.6	
742.72	6391.7	
742.9	5110.4	
743.08	5091.3	
743.26	3852.9	
743.44	6653.2	
743.62	6518	
743.8	5249.6	
743.98	4294.6	
744.16	6205.3	
744.34	5834	
744.52	5236.7	
744.7	5130.2	
744.88	6340.5	
745.06	5920.7	
745.24	5231.2	
745.42	5341.1	
745.6	6481.8	
745.78	6236.7	
745.96	4044.1	
746.14	4347.2	
746.32	7277.1	
746.5	6511.9	
746.68	4965	
746.86	4417.5	
747.03	6943.3	
747.21	5259.2	
747.39	4961.5	
747.57	4420.9	
747.75	6098.9	
747.93	6554.2	
748.11	4485.1	
748.29	4373.1	
748.47	7685.3	
748.65	5829.2	
748.83	5173.9	
749.01	4807.9	
749.19	6303	
749.37	5483.8	
749.55	4735.6	
749.73	4866	
749.91	6033.3	
750.09	5745.9	
750.26	4865.3	
750.44	4232.5	
750.62	6053.8	
750.8	5961	
750.98	4121.2	
751.16	4459.8	
751.34	6079.1	
751.52	5373.9	
751.7	5330.9	
751.88	4139.6	
752.06	6574.7	
752.24	6328.2	
752.42	4087.1	
752.59	4442	
752.77	6031.3	
752.95	7306.5	
753.13	5229.8	
753.31	4569.7	
753.49	5671.5	
753.67	6152.8	
753.85	4868.7	
754.03	4474.1	
754.21	6421.7	
754.38	6881.2	
754.56	4693.9	
754.74	3677.5	
754.92	5717.9	
755.1	6515.3	
755.28	3751.2	
755.46	3850.2	
755.64	7204.1	
755.82	7450.5	
755.99	4204.5	
756.17	4296.6	
756.35	4941.7	
756.53	6535.1	
756.71	3185.3	
756.89	4119.1	
757.07	6112.5	
757.25	5167.7	
757.42	4705.5	
757.6	5629.9	
757.78	6127.5	
757.96	5066	
758.14	4416.1	
758.32	3866.6	
758.5	4638	
758.67	5533.6	
758.85	4186.7	
759.03	4345.8	
759.21	5723.4	
759.39	5133.6	
759.57	3730.7	
759.75	5027.1	
759.92	6314.6	
760.1	5556.8	
760.28	5368.4	
760.46	5622.4	
760.64	5356.8	
760.82	5103.5	
760.99	5186.1	
761.17	4301.4	
761.35	6143.9	
761.53	5133.6	
761.71	4377.9	
761.89	5116.5	
762.06	6061.3	
762.24	5544.5	
762.42	4397.7	
762.6	4193.6	
762.78	5582.1	
762.96	5496.7	
763.13	4867.3	
763.31	4489.1	
763.49	6417.7	
763.67	5459.9	
763.85	5436	
764.02	6012.8	
764.2	6617.7	
764.38	5786.9	
764.56	4394.3	
764.74	5311.7	
764.91	6834.1	
765.09	5608.7	
765.27	4085	
765.45	3865.9	
765.63	6819.1	
765.8	6686.6	
765.98	3602.4	
766.16	4002.4	
766.34	5184.1	
766.52	4949.3	
766.69	4952	
766.87	3768.9	
767.05	5675.6	
767.23	6382.8	
767.41	4117.1	
767.58	4385.4	
767.76	6232.7	
767.94	6318	
768.12	4290.5	
768.29	5094.7	
768.47	5780.1	
768.65	6552.8	
768.83	3860.4	
769	5064.6	
769.18	5264	
769.36	6030.6	
769.54	5134.9	
769.72	3877.5	
769.89	6345.3	
770.07	6479.1	
770.25	4261.8	
770.43	5578	
770.6	7172	
770.78	7475.1	
770.96	4458.4	
771.14	5145.9	
771.31	6156.2	
771.49	5605.3	
771.67	3571.7	
771.85	3824.2	
772.02	4732.2	
772.2	5575.9	
772.38	4556	
772.55	4123.9	
772.73	5840.1	
772.91	5666.7	
773.09	4544.4	
773.26	4610	
773.44	5823.1	
773.62	5489.9	
773.8	3967.6	
773.97	3708.2	
774.15	5917.9	
774.33	5530.2	
774.5	3899.3	
774.68	4319.8	
774.86	6092	
775.04	5504.9	
775.21	3962.8	
775.39	4037.2	
775.57	5776.6	
775.74	6220.4	
775.92	3852.9	
776.1	3715	
776.27	5756.8	
776.45	7106.5	
776.63	4031.1	
776.81	3532.1	
776.98	5453.1	
777.16	6528.9	
777.34	4171.7	
777.51	4133.5	
777.69	5451	
777.87	5216.9	
778.04	4177.2	
778.22	4844.1	
778.4	5261.2	
778.57	5889.3	
778.75	3423.5	
778.93	3820.8	
779.1	5005.9	
779.28	4864.6	
779.46	3476.8	
779.64	3966.2	
779.81	6149.4	
779.99	7060	
780.17	4787.5	
780.34	4959.5	
780.52	5562.3	
780.69	5728.9	
780.87	4345.1	
781.05	3876.8	
781.22	5549.3	
781.4	5641.5	
781.58	4026.3	
781.75	3182.5	
781.93	5638.1	
782.11	5029.8	
782.28	4962.2	
782.46	3953.9	
782.64	4889.9	
782.81	5801.2	
782.99	4164.2	
783.17	4096.6	
783.34	5786.9	
783.52	4893.3	
783.69	4317.1	
783.87	5153.4	
784.05	4966.3	
784.22	5049.6	
784.4	5191.6	
784.58	4485.1	
784.75	5967.8	
784.93	5079.6	
785.1	4038.6	
785.28	4740.4	
785.46	5668.1	
785.63	5067.4	
785.81	4050.2	
785.99	3900	
786.16	5200.5	
786.34	5647.6	
786.51	3962.8	
786.69	4356.7	
786.87	4767	
787.04	5303.6	
787.22	3793.5	
787.39	4792.2	
787.57	4958.1	
787.75	6209.4	
787.92	5003.9	
788.1	4874.2	
788.27	5055.1	
788.45	4808.6	
788.63	4629.1	
788.8	3275.4	
788.98	5593.7	
789.15	4777.2	
789.33	3444	
789.5	4092.5	
789.68	6070.2	
789.86	6135	
790.03	4534.2	
790.21	3953.3	
790.38	5996.5	
790.56	5190.2	
790.73	3777.1	
790.91	3797.6	
791.09	5048.9	
791.26	5841.5	
791.44	4051.6	
791.61	3508.9	
791.79	5096	
791.96	5114.5	
792.14	3594.2	
792.32	3137.5	
792.49	5040.1	
792.67	5166.3	
792.84	3654.9	
793.02	3531.4	
793.19	5509	
793.37	6304.3	
793.54	3247.4	
793.72	3600.3	
793.89	6462.7	
794.07	5067.4	
794.25	4213.4	
794.42	3306.1	
794.6	6158.2	
794.77	5740.5	
794.95	4487.1	
795.12	3873.4	
795.3	5008.6	
795.47	5722	
795.65	4350.6	
795.82	4162.2	
796	4863.2	
796.17	6922.1	
796.35	3957.4	
796.52	4692.6	
796.7	5639.4	
796.87	5758.9	
797.05	4981.3	
797.22	4816.8	
797.4	5700.9	
797.57	6726.9	
797.75	4110.3	
797.92	3885	
798.1	5995.8	
798.27	5053.7	
798.45	3250.1	
798.62	3575.1	
798.8	5374.6	
798.97	5941.8	
799.15	4395.6	
799.32	4184	
799.5	4551.3	
799.67	5496.1	
799.85	4470.7	
800.02	3246.7	
800.2	4941.1	
800.37	5399.1	
800.55	4734.2	
800.72	3916.4	
800.9	5859.9	
801.07	6321.4	
801.25	5313.1	
801.42	4255.7	
801.6	5863.3	
801.77	5631.2	
801.95	3981.3	
802.12	3809.2	
802.29	5589.6	
802.47	5647.6	
802.64	4243.4	
802.82	3152.5	
802.99	5003.2	
803.17	6079.7	
803.34	4134.8	
803.52	3698.6	
803.69	6761	
803.87	4810.7	
804.04	4083.6	
804.21	4216.8	
804.39	6178	
804.56	5225.1	
804.74	3430.3	
804.91	4316.4	
805.09	5096.7	
805.26	5193.6	
805.44	3526.6	
805.61	3892.5	
805.78	5770.5	
805.96	5827.8	
806.13	4312.3	
806.31	4657.1	
806.48	4592.2	
806.66	5135.6	
806.83	4225.6	
807	4195.6	
807.18	5003.9	
807.35	5438	
807.53	4176.5	
807.7	3300	
807.87	6296.1	
808.05	5130.8	
808.22	4607.9	
808.4	3282.9	
808.57	5087.2	
808.74	4752	
808.92	3786.7	
809.09	4897.4	
809.27	4945.8	
809.44	5657.2	
809.61	3355.9	
809.79	3733.4	
809.96	6316.6	
810.14	5921.4	
810.31	3248.8	
810.48	4018.1	
810.66	5193.6	
810.83	5939.8	
811.01	3842	
811.18	4231.1	
811.35	5892.7	
811.53	4502.1	
811.7	4592.2	
811.87	4278.2	
812.05	5174.5	
812.22	5035.3	
812.39	3707.5	
812.57	3532.7	
812.74	5138.4	
812.92	6891.4	
813.09	4005.8	
813.26	4467.3	
813.44	6618.4	
813.61	5055.8	
813.78	3345	
813.96	4524.6	
814.13	5126.7	
814.3	4777.2	
814.48	4853.7	
814.65	3997	
814.82	6459.3	
815	4861.9	
815.17	4126	
815.34	5065.3	
815.52	5044.8	
815.69	5048.9	
815.87	4119.8	
816.04	3585.3	
816.21	5119.9	
816.38	4515.8	
816.56	3935.5	
816.73	3687.7	
816.9	6550.8	
817.08	5877.7	
817.25	3756	
817.42	4715.8	
817.6	4648.2	
817.77	5152	
817.94	4236.6	
818.12	3675.4	
818.29	4851	
818.46	7709.9	
818.64	3837.2	
818.81	3639.9	
818.98	4806.6	
819.16	6952.2	
819.33	4488.5	
819.5	4154.6	
819.67	5563	
819.85	6255.2	
820.02	4078.9	
820.19	4345.8	
820.37	5388.2	
820.54	4911	
820.71	4285	
820.88	5177.9	
821.06	5410.1	
821.23	4913.1	
821.4	4235.9	
821.58	4138.3	
821.75	5870.8	
821.92	5260.5	
822.09	3366.9	
822.27	3483.6	
822.44	5175.2	
822.61	5044.1	
822.79	3427.6	
822.96	6590.4	
823.13	5653.8	
823.3	4838	
823.48	3929.4	
823.65	3513.6	
823.82	5870.8	
823.99	4657.8	
824.17	5044.1	
824.34	3553.9	
824.51	6797.2	
824.68	5232.6	
824.86	3738.9	
825.03	4212.7	
825.2	5111	
825.37	6287.3	
825.55	3666.5	
825.72	4156	
825.89	6933.1	
826.06	6344.6	
826.24	4065.9	
826.41	4061.8	
826.58	6294.8	
826.75	5448.3	
826.92	3142.3	
827.1	3548.4	
827.27	8594	
827.44	6853.2	
827.61	3846.1	
827.79	4663.2	
827.96	4827.1	
828.13	5223.7	
828.3	4061.8	
828.47	3333.4	
828.65	5315.2	
828.82	5313.8	
828.99	5276.3	
829.16	4601.8	
829.34	5778	
829.51	5508.4	
829.68	4157.4	
829.85	4376.5	
830.02	6083.8	
830.2	5769.1	
830.37	3192.1	
830.54	5055.8	
830.71	6581.5	
830.88	5070.8	
831.05	3285.6	
831.23	3798.3	
831.4	6337.1	
831.57	7081.2	
831.74	3829	
831.91	3413.3	
832.09	5321.3	
832.26	5728.2	
832.43	3969	
832.6	4493.2	
832.77	5373.9	
832.94	6151.4	
833.12	3187.3	
833.29	3930.1	
833.46	5534.3	
833.63	7352.9	
833.8	4394.9	
833.97	4034.5	
834.15	5836.7	
834.32	5521.3	
834.49	4173.1	
834.66	4200.4	
834.83	6006.7	
835	4806.6	
835.17	3851.5	
835.35	3874.1	
835.52	5618.3	
835.69	5552.7	
835.86	4002.4	
836.03	3367.5	
836.2	5704.3	
836.37	5278.3	
836.55	4008.6	
836.72	3728.7	
836.89	5300.1	
837.06	5848.3	
837.23	4063.2	
837.4	4511	
837.57	6606.7	
837.75	7303.7	
837.92	3676.8	
838.09	3921.9	
838.26	5304.9	
838.43	6060.6	
838.6	4186	
838.77	3720.5	
838.94	6887.3	
839.11	6600.6	
839.29	3946.4	
839.46	3138.2	
839.63	5695.4	
839.8	5420.3	
839.97	3878.2	
840.14	3852.9	
840.31	5544.5	
840.48	5771.9	
840.65	3229.6	
840.82	3838.6	
841	5713.8	
841.17	5711.1	
841.34	3583.9	
841.51	3588	
841.68	5643.5	
841.85	5475.6	
842.02	3672	
842.19	3025.5	
842.36	5489.9	
842.53	5503.6	
842.7	3599.6	
842.87	4339.6	
843.05	7294.9	
843.22	5415.5	
843.39	3392.8	
843.56	3647.4	
843.73	5164.3	
843.9	5756.8	
844.07	5851.7	
844.24	4863.2	
844.41	8537.3	
844.58	4988.2	
844.75	3471.3	
844.92	3760.1	
845.09	5806	
845.26	5713.2	
845.43	3560.1	
845.6	3717.1	
845.77	5713.8	
845.94	5496.1	
846.12	3977.2	
846.29	4171.7	
846.46	5898.1	
846.63	5740.5	
846.8	3563.5	
846.97	4246.8	
847.14	6207.4	
847.31	5634.6	
847.48	4022.9	
847.65	4424.3	
847.82	6057.9	
847.99	5999.9	
848.16	4726	
848.33	4395.6	
848.5	5281	
848.67	6202.6	
848.84	3484.3	
849.01	3706.8	
849.18	5122.7	
849.35	4790.2	
849.52	4413.4	
849.69	3494.5	
849.86	5969.8	
850.03	6217	
850.2	3565.5	
850.37	4372.4	
850.54	6114.6	
850.71	5370.5	
850.88	4242.7	
851.05	3469.9	
851.22	5634	
851.39	6336.4	
851.56	3353.9	
851.73	4099.4	
851.9	4986.1	
852.07	5966.4	
852.24	3953.9	
852.41	3527.3	
852.58	5556.8	
852.75	5160.9	
852.92	4000.4	
853.09	3439.2	
853.26	5340.4	
853.43	6205.3	
853.6	3532.1	
853.77	3007.8	
853.94	6313.9	
854.11	5645.6	
854.28	5195.7	
854.44	3900.7	
854.61	6750.8	
854.78	6054.5	
854.95	3495.2	
855.12	4459.8	
855.29	4599.1	
855.46	6305	
855.63	3540.9	
855.8	4898.1	
855.97	5307.7	
856.14	6052.4	
856.31	5056.4	
856.48	3863.8	
856.65	5262.6	
856.82	4911	
856.99	3405.8	
857.16	3824.2	
857.33	7068.9	
857.49	5419.6	
857.66	3871.3	
857.83	4109.6	
858	5383.4	
858.17	5605.3	
858.34	3358	
858.51	3510.9	
858.68	6464.8	
858.85	6460	
859.02	4121.2	
859.19	4441.4	
859.36	5002.5	
859.52	5047.6	
859.69	3495.9	
859.86	4273.4	
860.03	5077.6	
860.2	6315.3	
860.37	3196.2	
860.54	3621.5	
860.71	5930.2	
860.88	6433.4	
861.05	4017.4	
861.21	4522.6	
861.38	6394.4	
861.55	4927.4	
861.72	3280.8	
861.89	3945.8	
862.06	6016.2	
862.23	6579.4	
862.4	3480.9	
862.56	3676.1	
862.73	5812.8	
862.9	5529.5	
863.07	4124.6	
863.24	3176.4	
863.41	4918.5	
863.58	5049.6	
863.75	3672	
863.91	4090.5	
864.08	6290.7	
864.25	5913.9	
864.42	4491.2	
864.59	4987.5	
864.76	6681.8	
864.93	5019.6	
865.09	3457	
865.26	3779.2	
865.43	6225.1	
865.6	6642.9	
865.77	3089	
865.94	3507.5	
866.1	6340.5	
866.27	6053.8	
866.44	5347.2	
866.61	3308.2	
866.78	5435.3	
866.95	5877	
867.11	3454.9	
867.28	3121.1	
867.45	6064	
867.62	5046.9	
867.79	4188.1	
867.96	3512.9	
868.12	5061.2	
868.29	6040.8	
868.46	3601	
868.63	4722.6	
868.8	6165.1	
868.97	5949.3	
869.13	3702	
869.3	3710.2	
869.47	5777.3	
869.64	6146	
869.81	3563.5	
869.97	3559.4	
870.14	5774.6	
870.31	6530.3	
870.48	3452.9	
870.65	4410	
870.81	5352	
870.98	5292	
871.15	4005.8	
871.32	3738.2	
871.48	5811.5	
871.65	6437.4	
871.82	3503.4	
871.99	3884.3	
872.16	6944	
872.32	6392.4	
872.49	3540.3	
872.66	3553.9	
872.83	5924.1	
872.99	5233.2	
873.16	4062.5	
873.33	3516.4	
873.5	5618.9	
873.67	5649.7	
873.83	3713.6	
874	4762.9	
874.17	5706.3	
874.34	6849.1	
874.5	4615.4	
874.67	4461.8	
874.84	6423.1	
875.01	5053.7	
875.17	5070.1	
875.34	3537.5	
875.51	5685.8	
875.68	6848.4	
875.84	4306.9	
876.01	5221	
876.18	5893.4	
876.34	5857.9	
876.51	3585.3	
876.68	3441.3	
876.85	5399.8	
877.01	6256.5	
877.18	5096	
877.35	3498.6	
877.52	5524.7	
877.68	4956.1	
877.85	3400.3	
878.02	3544.4	
878.18	5461.2	
878.35	5163.6	
878.52	2811.9	
878.69	4273.4	
878.85	5991	
879.02	5927.5	
879.19	5085.8	
879.35	3831.7	
879.52	5881.1	
879.69	6124.8	
879.86	3050.8	
880.02	3969	
880.19	5473.5	
880.36	6742.6	
880.52	4109.6	
880.69	4257	
880.86	6044.9	
881.02	6111.8	
881.19	3919.8	
881.36	3819.5	
881.52	5887.2	
881.69	5180.7	
881.86	3809.2	
882.02	3743	
882.19	6231.3	
882.36	7273	
882.52	3646.1	
882.69	5028.4	
882.86	5720.7	
883.02	5545.2	
883.19	4334.9	
883.36	4052.2	
883.52	6032.6	
883.69	6904.4	
883.86	3626.3	
884.02	3239.2	
884.19	5978	
884.36	5519.3	
884.52	3999.7	
884.69	3751.2	
884.86	5287.2	
885.02	6689.3	
885.19	3945.8	
885.36	4071.4	
885.52	5558.2	
885.69	5641.5	
885.86	5122.7	
886.02	4543.1	
886.19	5961	
886.35	5449	
886.52	3921.2	
886.69	5006.6	
886.85	5036.6	
887.02	6347.3	
887.19	6347.3	
887.35	6347.3	
887.52	6347.3	
887.68	6347.3	
887.85	6347.3	
888.02	6347.3	
888.18	6347.3	
888.35	6347.3	
888.51	6347.3	
888.68	6347.3	
888.85	6347.3	
889.01	6347.3	
889.18	6347.3	
889.35	6347.3	
889.51	6347.3	
889.68	6347.3	
889.84	6347.3	
890.01	6347.3	
890.17	6347.3	
890.34	6347.3	
890.51	6347.3	
890.67	6347.3	
890.84	6347.3	
891	6347.3	
891.17	6347.3	
891.34	6347.3	
891.5	6347.3	
891.67	6347.3	
891.83	6347.3	
892	6347.3	
892.16	6347.3	
892.33	6347.3	
892.5	6347.3	
892.66	6347.3	
892.83	6347.3	
892.99	6347.3	
893.16	6347.3	
893.32	6347.3	
893.49	6347.3	
893.65	6347.3	
893.82	6347.3	
893.99	6347.3	
894.15	6347.3	
894.32	6347.3	
894.48	6347.3	
894.65	6347.3	
894.81	6347.3	
894.98	6347.3	
895.14	6347.3	
895.31	6347.3	
895.47	6347.3	
895.64	6347.3	
895.81	6347.3	
895.97	6347.3	
896.14	6347.3	
896.3	6347.3	
896.47	6347.3	
896.63	6347.3	
896.8	6347.3	
896.96	6347.3	
897.13	6347.3	
897.29	6347.3	
897.46	6347.3	
897.62	6347.3	
897.79	6347.3	
897.95	6347.3	
898.12	6347.3	
898.28	6347.3	
898.45	6347.3	
898.61	6347.3	
898.78	6347.3	
898.94	6347.3	
899.11	6347.3	
899.27	6347.3	
899.44	6347.3	
899.6	6347.3	
899.77	6347.3	
899.93	6347.3	
900.1	6347.3	
900.26	6347.3	
900.43	6347.3	
900.59	6347.3	
900.76	6347.3	
900.92	6347.3	
901.09	6347.3	
901.25	6347.3	
901.42	6347.3	
901.58	6347.3	
901.75	6347.3	
901.91	6347.3	
902.07	6347.3	
902.24	6347.3	
902.4	6347.3	
902.57	6347.3	
902.73	6347.3	
902.9	6347.3	
903.06	6347.3	
903.23	6347.3	
903.39	6347.3	
903.56	6347.3	
903.72	6347.3	
903.88	6347.3	
904.05	6347.3	
904.21	6347.3	
904.38	6347.3	
904.54	6347.3	
904.71	6347.3	
904.87	6347.3	
905.03	6347.3	
905.2	6347.3	
905.36	6347.3	
905.53	6347.3	
905.69	6347.3	
905.86	6347.3	
906.02	6347.3	
906.18	6347.3	
906.35	6347.3	
906.51	6347.3	
906.68	6347.3	
906.84	6347.3	
907.01	6347.3	
907.17	6347.3	
907.33	6347.3	
907.5	6347.3	
907.66	6347.3	
907.83	6347.3	
907.99	6347.3	
908.15	6347.3	
908.32	6347.3	
908.48	6347.3	
908.65	6347.3	
908.81	6347.3	
908.97	6347.3	
909.14	6347.3	
909.3	6347.3	
909.47	6347.3	
909.63	6347.3	
909.79	6347.3	
909.96	6347.3	
910.12	6347.3	
910.28	6347.3	
910.45	6347.3	
910.61	6347.3	
910.78	6347.3	
910.94	6347.3	
911.1	6347.3	
911.27	6347.3	
911.43	6347.3	
911.59	6347.3	
911.76	6347.3	
911.92	6347.3	
912.08	6347.3	
912.25	6347.3	
912.41	6347.3	
912.57	6347.3	
912.74	6347.3	
912.9	6347.3	
913.07	6347.3	
913.23	6347.3	
913.39	6347.3	
913.56	6347.3	
913.72	6347.3	
913.88	6347.3	
914.05	6347.3	
914.21	6347.3	
914.37	6347.3	
914.54	6347.3	
914.7	6347.3	
914.86	6347.3	
915.03	6347.3	
915.19	6347.3	
