Wavelength	Intensities	
nm	a.u.	
179.22	1669.4	
179.44	1663	
179.65	1675.9	
179.86	1650	
180.08	1701.9	
180.29	3938.2	
180.51	2970.2	
180.72	4885.8	
180.94	5537.7	
181.15	2694.4	
181.37	2674	
181.58	4793.6	
181.79	4955.4	
182.01	2843.3	
182.22	2995.5	
182.44	4952.7	
182.65	4301.4	
182.87	3648.1	
183.08	3254.2	
183.29	5227.8	
183.51	4402.5	
183.72	2943.6	
183.94	4144.4	
184.15	4676.2	
184.37	4709	
184.58	2676	
184.79	3438.5	
185.01	4428.4	
185.22	5002.5	
185.44	3577.8	
185.65	3206.4	
185.86	4680.3	
186.08	4330.8	
186.29	2587.9	
186.51	2792.7	
186.72	4448.2	
186.94	5072.1	
187.15	3147	
187.36	3224.9	
187.58	6326.2	
187.79	4783.4	
188.01	3285.6	
188.22	4938.3	
188.43	5587.5	
188.65	4887.1	
188.86	2763.4	
189.08	3266.5	
189.29	4506.2	
189.5	4531.5	
189.72	2991.4	
189.93	3074	
190.15	5060.5	
190.36	5883.8	
190.57	3263.1	
190.79	3186	
191	5098.1	
191.22	5087.8	
191.43	3292.5	
191.64	2867.2	
191.86	5323.4	
192.07	5128.8	
192.29	2941.6	
192.5	2955.2	
192.71	5074.2	
192.93	4491.2	
193.14	2935.4	
193.35	3043.3	
193.57	4521.2	
193.78	5094.7	
194	2450.1	
194.21	2919.7	
194.42	4327.4	
194.64	4727.4	
194.85	3189.4	
195.07	3685	
195.28	4688.5	
195.49	4215.4	
195.71	3835.8	
195.92	2833.7	
196.13	4853.7	
196.35	4900.1	
196.56	4046.8	
196.78	3244	
196.99	5864.7	
197.2	5491.3	
197.42	3607.8	
197.63	3186	
197.84	4300.7	
198.06	4881.7	
198.27	3009.8	
198.48	3865.9	
198.7	4538.3	
198.91	4652.3	
199.13	3254.2	
199.34	3229	
199.55	5070.8	
199.77	4121.2	
199.98	2873.3	
200.19	3277.4	
200.41	4681	
200.62	4366.3	
200.83	3288.4	
201.05	3571	
201.26	4688.5	
201.47	4455.7	
201.69	2977.1	
201.9	2845.3	
202.11	4743.1	
202.33	5397.8	
202.54	3062.4	
202.76	3395.5	
202.97	4718.5	
203.18	4840	
203.4	3369.6	
203.61	3343	
203.82	4711	
204.04	4397	
204.25	3290.4	
204.46	3177.8	
204.68	4696	
204.89	4894	
205.1	3177.8	
205.32	2771.6	
205.53	4988.9	
205.74	5042.8	
205.96	2510.8	
206.17	3189.4	
206.38	4903.5	
206.6	5051.7	
206.81	3689.8	
207.02	3061	
207.24	4878.9	
207.45	5181.4	
207.66	3108.8	
207.88	2732	
208.09	4797	
208.3	4667.3	
208.52	2901.3	
208.73	3199.6	
208.94	4698	
209.15	5195.7	
209.37	3173.7	
209.58	3264.5	
209.79	5122	
210.01	4562.9	
210.22	2605	
210.43	2672.6	
210.65	4626.4	
210.86	4996.4	
211.07	3058.3	
211.29	2880.8	
211.5	4934.9	
211.71	4662.5	
211.93	2910.2	
212.14	2932	
212.35	4617.5	
212.56	4760.8	
212.78	3244	
212.99	2777.7	
213.2	5320.6	
213.42	4575.8	
213.63	2970.2	
213.84	3117.7	
214.06	4284.4	
214.27	4313.7	
214.48	3104.7	
214.69	3293.8	
214.91	5225.7	
215.12	5199.1	
215.33	3268.6	
215.55	3520.5	
215.76	5612.1	
215.97	4913.8	
216.18	3188	
216.4	3160.7	
216.61	4462.5	
216.82	5019.6	
217.04	2902.7	
217.25	3058.3	
217.46	5180	
217.67	4934.2	
217.89	2620.7	
218.1	2721.1	
218.31	4763.6	
218.53	4844.8	
218.74	3073.3	
218.95	2912.9	
219.16	4673.5	
219.38	5416.2	
219.59	2951.8	
219.8	3475.4	
220.01	5713.8	
220.23	4667.3	
220.44	3661.1	
220.65	2868.5	
220.87	4773.1	
221.08	5175.2	
221.29	2756.6	
221.5	3473.4	
221.72	6111.1	
221.93	4477.5	
222.14	3276.8	
222.35	3784	
222.57	4771.8	
222.78	5024.3	
222.99	3147.7	
223.2	3276.1	
223.42	4842.8	
223.63	5008	
223.84	2494.4	
224.05	2472.6	
224.27	5678.3	
224.48	5298.8	
224.69	3743	
224.9	3257	
225.12	4864.6	
225.33	4673.5	
225.54	2712.2	
225.75	2918.4	
225.97	4430.4	
226.18	4603.2	
226.39	3126.6	
226.6	2940.9	
226.82	4548.5	
227.03	4393.6	
227.24	3264.5	
227.45	2771.6	
227.67	4993.6	
227.88	5310.4	
228.09	3612.6	
228.3	3549.1	
228.52	4925.4	
228.73	4653	
228.94	3027.6	
229.15	2766.1	
229.36	4696	
229.58	4646.2	
229.79	3096.5	
230	3445.4	
230.21	5498.1	
230.43	4749.2	
230.64	3233.1	
230.85	3269.2	
231.06	5087.8	
231.28	5031.9	
231.49	2744.3	
231.7	3169.6	
231.91	4938.3	
232.12	4733.5	
232.34	2825.5	
232.55	3174.4	
232.76	5148.6	
232.97	4781.3	
233.18	2874.7	
233.4	3195.5	
233.61	4816.8	
233.82	4542.4	
234.03	3053.5	
234.25	2999.6	
234.46	6132.3	
234.67	4696	
234.88	3302.7	
235.09	2966.1	
235.31	4820.2	
235.52	4641.4	
235.73	3201	
235.94	2788.7	
236.15	4490.5	
236.37	5524.7	
236.58	2876	
236.79	3103.4	
237	4890.5	
237.21	4261.1	
237.43	3336.8	
237.64	2729.3	
237.85	7667.6	
238.06	4394.3	
238.27	3309.5	
238.48	2794.8	
238.7	4956.1	
238.91	4595	
239.12	3033.7	
239.33	3214.6	
239.54	4431.1	
239.76	4637.3	
239.97	3084.9	
240.18	3130	
240.39	5647.6	
240.6	4917.2	
240.82	3254.2	
241.03	2730.6	
241.24	4687.8	
241.45	5261.2	
241.66	2881.5	
241.87	3325.9	
242.09	5238	
242.3	5520	
242.51	3355.9	
242.72	3130	
242.93	5025	
243.14	4644.8	
243.36	3599	
243.57	3778.5	
243.78	5319.9	
243.99	4968.4	
244.2	3127.9	
244.41	2871.3	
244.63	4397.7	
244.84	4883.7	
245.05	3345	
245.26	3102	
245.47	4917.9	
245.68	4990.9	
245.9	3994.9	
246.11	3313.6	
246.32	4577.2	
246.53	4930.8	
246.74	4898.1	
246.95	2691.7	
247.16	4391.5	
247.38	4728.1	
247.59	2674.6	
247.8	3140.2	
248.01	4370.4	
248.22	4655.7	
248.43	2861.7	
248.64	3072.6	
248.86	4291.9	
249.07	4524.6	
249.28	2865.1	
249.49	3220.8	
249.7	5130.2	
249.91	5140.4	
250.12	2684.9	
250.34	2742.9	
250.55	4832.5	
250.76	4686.4	
250.97	3255.6	
251.18	3255.6	
251.39	5146.5	
251.6	4807.9	
251.81	3251.5	
252.03	3280.2	
252.24	4508.9	
252.45	4980.7	
252.66	2802.3	
252.87	3353.2	
253.08	4726	
253.29	5856.5	
253.5	2779.1	
253.72	3753.2	
253.93	4620.2	
254.14	5402.5	
254.35	2996.2	
254.56	3084.9	
254.77	4889.2	
254.98	4403.8	
255.19	2986.6	
255.41	3665.2	
255.62	4845.5	
255.83	5096.7	
256.04	3322.5	
256.25	3209.8	
256.46	5603.9	
256.67	4493.2	
256.88	3205.8	
257.09	3552.5	
257.31	4429.1	
257.52	4446.8	
257.73	3960.1	
257.94	2965.5	
258.15	4682.3	
258.36	4674.8	
258.57	3719.1	
258.78	2456.9	
258.99	5091.9	
259.2	4579.9	
259.41	2998.2	
259.63	3098.6	
259.84	5284.4	
260.05	5574.6	
260.26	3805.8	
260.47	2942.9	
260.68	5076.9	
260.89	4611.3	
261.1	3506.1	
261.31	2896.5	
261.52	5237.3	
261.73	5394.3	
261.95	3800.3	
262.16	3323.9	
262.37	5235.3	
262.58	5268.1	
262.79	3777.1	
263	3061.7	
263.21	4787.5	
263.42	4250.2	
263.63	3292.5	
263.84	3013.9	
264.05	5029.8	
264.26	5334.3	
264.47	3661.8	
264.69	3235.1	
264.9	5326.1	
265.11	4801.1	
265.32	2876	
265.53	2979.8	
265.74	4807.9	
265.95	4220.2	
266.16	3196.2	
266.37	3429	
266.58	4814.8	
266.79	4524	
267	3012.6	
267.21	2840.5	
267.42	4370.4	
267.63	4672.8	
267.84	3121.1	
268.06	2789.3	
268.27	5018.9	
268.48	5193	
268.69	3061	
268.9	3611.3	
269.11	5208.7	
269.32	4282.3	
269.53	3182.5	
269.74	2967.5	
269.95	4859.1	
270.16	4267.3	
270.37	3169.6	
270.58	3599	
270.79	4629.1	
271	5033.9	
271.21	3300.6	
271.42	3174.4	
271.63	4886.5	
271.84	4356.7	
272.05	2580.4	
272.26	2856.9	
272.47	4743.1	
272.68	4842.8	
272.89	3046.7	
273.11	3420.1	
273.32	4474.1	
273.53	5302.9	
273.74	3345.7	
273.95	3268.6	
274.16	5130.2	
274.37	4691.9	
274.58	3418.7	
274.79	2824.8	
275	4859.1	
275.21	5139.7	
275.42	4004.5	
275.63	3459	
275.84	4931.5	
276.05	5982.8	
276.26	3324.5	
276.47	3093.8	
276.68	4633.2	
276.89	5406	
277.1	3463.8	
277.31	2818	
277.52	4861.2	
277.73	5127.4	
277.94	2776.4	
278.15	3030.3	
278.36	4863.2	
278.57	4446.8	
278.78	3031	
278.99	3349.8	
279.2	4476.2	
279.41	4437.3	
279.62	3881.6	
279.83	2833.7	
280.04	5578	
280.25	4407.9	
280.46	3850.9	
280.67	3170.9	
280.88	4506.2	
281.09	5142.4	
281.3	3302.7	
281.51	4064.5	
281.72	4467.3	
281.93	5020.9	
282.14	2968.2	
282.35	3228.3	
282.56	5104.2	
282.77	5013.4	
282.98	3041.2	
283.19	3663.1	
283.4	6009.4	
283.61	4629.8	
283.82	2876	
284.03	3832.4	
284.24	4870.1	
284.45	5070.8	
284.66	3834.5	
284.87	3622.9	
285.08	5122	
285.29	5246.2	
285.5	2727.9	
285.71	3109.5	
285.92	5160.9	
286.12	5636.7	
286.33	3765.5	
286.54	3120.4	
286.75	4982.7	
286.96	4653	
287.17	2857.6	
287.38	3658.4	
287.59	4503.5	
287.8	4476.9	
288.01	3084.2	
288.22	3525.2	
288.43	4997.7	
288.64	4296	
288.85	3647.4	
289.06	3383.2	
289.27	5021.6	
289.48	5337.7	
289.69	3846.8	
289.9	3535.5	
290.11	5205.9	
290.32	4504.2	
290.53	3573.7	
290.74	3310.9	
290.94	5016.8	
291.15	5015.5	
291.36	3031.7	
291.57	3430.3	
291.78	4532.2	
291.99	4249.5	
292.2	2955.9	
292.41	3343.7	
292.62	5084.4	
292.83	4977.2	
293.04	4065.9	
293.25	2936.1	
293.46	4592.9	
293.67	5164.3	
293.88	2935.4	
294.09	2869.2	
294.29	4374.5	
294.5	4791.6	
294.71	3186	
294.92	2971.6	
295.13	4595	
295.34	5552.7	
295.55	2686.3	
295.76	2656.2	
295.97	4980	
296.18	5511.8	
296.39	2822.1	
296.6	2925.9	
296.81	4755.4	
297.01	4970.4	
297.22	3097.2	
297.43	2994.8	
297.64	4532.8	
297.85	4436.6	
298.06	2538.1	
298.27	2691.7	
298.48	4726.7	
298.69	4464.6	
298.9	3181.2	
299.11	2911.5	
299.31	4412.7	
299.52	4407.9	
299.73	3367.5	
299.94	3325.9	
300.15	4738.3	
300.36	4455	
300.57	3282.9	
300.78	3321.1	
300.99	4561.5	
301.2	4821.6	
301.4	3020.8	
301.61	3164.8	
301.82	4947.2	
302.03	5016.8	
302.24	3512.3	
302.45	2871.3	
302.66	4881	
302.87	5191.6	
303.08	2999.6	
303.29	3892.5	
303.49	4603.8	
303.7	4716.5	
303.91	2682.8	
304.12	3766.2	
304.33	4296	
304.54	4807.9	
304.75	2986.6	
304.96	2898.6	
305.16	4939.7	
305.37	5401.2	
305.58	2661.7	
305.79	2668.5	
306	4919.2	
306.21	4246.8	
306.42	3004.4	
306.63	4314.4	
306.83	4567.7	
307.04	5044.1	
307.25	3259	
307.46	3179.1	
307.67	4191.5	
307.88	4949.3	
308.09	2958.6	
308.29	3025.5	
308.5	4786.8	
308.71	5127.4	
308.92	3122.5	
309.13	2878.1	
309.34	4698.7	
309.55	4635.2	
309.75	3607.8	
309.96	3313.6	
310.17	5004.6	
310.38	4520.5	
310.59	3399.6	
310.8	3317.7	
311.01	5459.2	
311.21	4681	
311.42	2837.1	
311.63	2987.3	
311.84	4589.5	
312.05	4767	
312.26	3300.6	
312.46	3561.4	
312.67	4599.7	
312.88	4339.6	
313.09	2899.9	
313.3	2829.6	
313.51	5293.3	
313.71	5572.5	
313.92	2878.1	
314.13	3013.2	
314.34	4848.2	
314.55	4661.9	
314.76	3577.1	
314.96	3165.5	
315.17	4777.2	
315.38	4857.8	
315.59	2948.4	
315.8	2780.5	
316.01	5236.7	
316.21	5364.3	
316.42	2773.6	
316.63	3195.5	
316.84	4615.4	
317.05	5186.1	
317.26	3354.6	
317.46	2994.8	
317.67	4666.6	
317.88	4939.7	
318.09	3547.1	
318.3	2740.2	
318.5	4569	
318.71	4965	
318.92	4373.8	
319.13	3363.4	
319.34	5095.3	
319.54	5151.3	
319.75	2740.2	
319.96	2633.7	
320.17	4969.1	
320.38	5080.3	
320.58	2670.6	
320.79	3155.9	
321	5169.8	
321.21	5255.1	
321.42	3175.7	
321.62	2682.8	
321.83	4461.2	
322.04	4734.2	
322.25	3094.5	
322.46	2902	
322.66	4812.7	
322.87	4983.4	
323.08	3477.5	
323.29	2828.9	
323.5	5440.1	
323.7	4356	
323.91	3801.7	
324.12	3460.4	
324.33	4830.5	
324.53	4921.3	
324.74	3352.5	
324.95	3441.3	
325.16	4326	
325.37	4563.6	
325.57	2884.2	
325.78	2919	
325.99	4823	
326.2	4344.4	
326.4	4057.7	
326.61	2676	
326.82	4598.4	
327.03	4775.9	
327.24	3959.4	
327.44	3713.6	
327.65	4854.4	
327.86	4105.5	
328.07	3328.6	
328.27	2777	
328.48	5203.9	
328.69	4389.5	
328.9	3953.3	
329.1	3061.7	
329.31	4663.9	
329.52	5285.1	
329.73	2924.5	
329.93	3155.9	
330.14	4754	
330.35	4837.3	
330.56	4508.3	
330.76	3421.5	
330.97	4575.8	
331.18	4907.6	
331.39	3174.4	
331.59	2631	
331.8	5146.5	
332.01	5246.9	
332.22	2992.1	
332.42	3284.9	
332.63	4769	
332.84	4460.5	
333.05	3265.8	
333.25	2924.5	
333.46	4493.2	
333.67	4724	
333.88	3029.6	
334.08	3300	
334.29	6025.1	
334.5	5174.5	
334.7	2867.2	
334.91	3973.7	
335.12	4372.4	
335.33	5010	
335.53	3196.2	
335.74	4465.3	
335.95	4631.8	
336.16	4427	
336.36	3125.2	
336.57	3650.2	
336.78	4378.6	
336.98	5124.7	
337.19	3769.6	
337.4	3117	
337.61	5569.1	
337.81	4415.4	
338.02	2967.5	
338.23	3715	
338.43	5272.2	
338.64	4534.9	
338.85	2936.1	
339.05	3711.6	
339.26	5300.1	
339.47	4276.2	
339.68	2882.2	
339.88	4100.7	
340.09	4975.9	
340.3	5082.4	
340.5	3354.6	
340.71	2669.9	
340.92	4401.1	
341.13	5184.1	
341.33	2791.4	
341.54	3320.4	
341.75	4888.5	
341.95	4530.1	
342.16	3262.4	
342.37	3471.3	
342.57	4464.6	
342.78	4652.3	
342.99	3506.1	
343.19	2616.6	
343.4	4985.4	
343.61	4922	
343.81	3091.8	
344.02	2831.7	
344.23	5039.4	
344.43	5212.8	
344.64	3475.4	
344.85	3429	
345.06	4906.3	
345.26	5199.8	
345.47	3334.1	
345.68	3799	
345.88	4283.7	
346.09	5050.3	
346.3	3396.2	
346.5	2603.7	
346.71	4653	
346.92	4542.4	
347.12	2764.1	
347.33	3278.8	
347.54	5118.6	
347.74	5423	
347.95	3338.9	
348.16	2549.7	
348.36	4564.2	
348.57	4403.1	
348.78	3356.6	
348.98	3484.3	
349.19	4728.8	
349.39	4310.3	
349.6	2739.5	
349.81	2960	
350.01	4949.3	
350.22	4493.9	
350.43	3257	
350.63	3820.8	
350.84	4696.7	
351.05	4548.5	
351.25	2996.2	
351.46	2707.4	
351.67	5166.3	
351.87	4440	
352.08	3144.3	
352.29	3465.2	
352.49	5096.7	
352.7	5114.5	
352.9	2886.3	
353.11	3503.4	
353.32	5532.9	
353.52	4596.3	
353.73	2924.5	
353.94	3561.4	
354.14	4992.9	
354.35	4823.6	
354.55	2988	
354.76	3296.5	
354.97	4997.7	
355.17	4713.1	
355.38	2839.8	
355.59	3841.3	
355.79	4580.6	
356	4859.1	
356.2	3325.2	
356.41	2913.6	
356.62	4438.6	
356.82	4785.4	
357.03	3528	
357.24	3179.1	
357.44	4585.4	
357.65	4664.6	
357.85	4100.7	
358.06	3399.6	
358.27	4401.1	
358.47	4576.5	
358.68	2908.1	
358.88	3528.7	
359.09	5039.4	
359.3	5240.8	
359.5	4022.9	
359.71	3688.4	
359.91	5612.1	
360.12	5210	
360.33	3581.2	
360.53	3945.8	
360.74	4685.1	
360.94	4781.3	
361.15	3799	
361.36	3215.3	
361.56	5343.2	
361.77	4947.2	
361.97	4174.4	
362.18	3396.9	
362.38	5358.9	
362.59	4659.1	
362.8	3179.1	
363	3124.5	
363.21	4577.2	
363.41	5038.7	
363.62	3674.7	
363.83	4394.9	
364.03	5248.3	
364.24	5853.8	
364.44	4584	
364.65	4462.5	
364.85	5066.7	
365.06	4709.6	
365.27	3393.5	
365.47	3480.9	
365.68	5827.2	
365.88	5027.8	
366.09	3790.1	
366.29	3562.8	
366.5	5270.1	
366.71	5525.4	
366.91	4586.8	
367.12	3964.2	
367.32	6128.2	
367.53	5501.5	
367.73	3976.5	
367.94	4721.3	
368.14	5522.7	
368.35	6146	
368.56	3876.1	
368.76	3796.3	
368.97	5653.1	
369.17	6803.4	
369.38	3578.5	
369.58	3812.6	
369.79	4841.4	
369.99	5865.4	
370.2	4566.3	
370.4	3901.4	
370.61	5386.2	
370.82	6308.4	
371.02	3820.1	
371.23	3303.4	
371.43	4895.3	
371.64	5898.8	
371.84	3937.6	
372.05	4786.1	
372.25	6864.8	
372.46	5662.6	
372.66	4006.5	
372.87	4030.4	
373.07	5900.2	
373.28	7069.6	
373.48	4754	
373.69	4587.4	
373.9	5618.3	
374.1	5530.2	
374.31	4939	
374.51	4468	
374.72	6272.9	
374.92	5395.7	
375.13	5107.6	
375.33	4463.9	
375.54	6039.5	
375.74	5703.6	
375.95	4649.6	
376.15	5550	
376.36	6165.1	
376.56	6038.1	
376.77	4803.2	
376.97	5055.1	
377.18	7107.8	
377.38	6321.4	
377.59	5393.7	
377.79	4543.1	
378	6197.2	
378.2	6570.6	
378.41	4616.1	
378.61	4541.7	
378.82	6726.2	
379.02	6126.8	
379.23	4844.1	
379.43	5701.5	
379.64	6860	
379.84	6522.8	
380.05	4665.3	
380.25	4622.9	
380.46	6628.6	
380.66	6198.5	
380.87	5680.4	
381.07	5857.9	
381.28	7053.2	
381.48	6513.2	
381.69	4697.4	
381.89	4702.1	
382.1	5666	
382.3	6505	
382.51	5506.3	
382.71	6181.5	
382.91	6479.8	
383.12	6831.3	
383.32	4879.6	
383.53	5031.2	
383.73	6312.5	
383.94	6238.8	
384.14	5052.3	
384.35	4355.3	
384.55	6051.7	
384.76	6460.7	
384.96	4884.4	
385.17	5046.9	
385.37	6476.4	
385.58	5766.4	
385.78	4973.8	
385.98	4103.4	
386.19	5918.6	
386.39	6326.2	
386.6	4603.2	
386.8	4749.9	
387.01	6384.2	
387.21	6450.4	
387.42	5057.8	
387.62	5631.9	
387.83	5916.6	
388.03	6253.1	
388.23	5010	
388.44	5528.8	
388.64	5711.8	
388.85	5989.6	
389.05	5290.6	
389.26	5748	
389.46	7520.8	
389.67	7098.3	
389.87	5375.9	
390.07	5450.3	
390.28	6389	
390.48	6080.4	
390.69	4953.4	
390.89	5162.2	
391.1	6311.8	
391.3	6954.9	
391.5	5949.3	
391.71	6347.3	
391.91	6851.8	
392.12	7465.5	
392.32	6086.6	
392.53	5453.7	
392.73	6455.2	
392.93	6541.9	
393.14	5282.4	
393.34	6021	
393.55	6819.7	
393.75	6460	
393.95	5187.5	
394.16	5104.2	
394.36	6348.7	
394.57	6634.7	
394.77	4743.8	
394.98	5015.5	
395.18	6244.3	
395.38	6453.8	
395.59	5797.1	
395.79	5069.4	
396	6538.5	
396.2	6870.9	
396.4	5861.3	
396.61	5837.4	
396.81	7202	
397.02	6756.9	
397.22	6374	
397.42	6271.6	
397.63	7382.2	
397.83	6748.1	
398.04	5394.3	
398.24	5978.7	
398.44	7174.7	
398.65	6520.7	
398.85	5398.4	
399.05	5485.8	
399.26	6909.8	
399.46	8196	
399.67	5864.7	
399.87	5642.2	
400.07	7268.9	
400.28	7620.5	
400.48	5816.9	
400.69	6662.7	
400.89	7869.7	
401.09	8108.6	
401.3	5955.5	
401.5	6782.2	
401.7	8494.3	
401.91	8594	
402.11	6358.3	
402.32	6279.1	
402.52	7987.1	
402.72	7899	
402.93	6610.8	
403.13	5655.1	
403.33	8428.8	
403.54	7178.8	
403.74	6044.9	
403.94	6589.7	
404.15	7116	
404.35	8062.2	
404.56	5732.3	
404.76	7075	
404.96	7576.8	
405.17	7230.7	
405.37	6670.9	
405.57	6234.7	
405.78	7863.5	
405.98	7288	
406.18	6686.6	
406.39	6742.6	
406.59	7798.7	
406.79	7475.1	
407	5891.3	
407.2	5829.2	
407.4	8064.9	
407.61	7910.6	
407.81	6088.6	
408.01	7478.5	
408.22	7140.6	
408.42	8635.6	
408.62	7073.7	
408.83	6858.6	
409.03	8054.7	
409.23	8137.3	
409.44	7262.1	
409.64	7550.2	
409.84	9295.7	
410.05	9368.1	
410.25	7730.4	
410.45	7662.1	
410.66	9379	
410.86	10972	
411.06	8482	
411.27	8232.8	
411.47	11218	
411.67	9653.4	
411.88	8408.3	
412.08	8933.2	
412.28	10296	
412.49	10725	
412.69	8660.2	
412.89	8796	
413.09	10577	
413.3	10673	
413.5	8930.5	
413.7	8675.2	
413.91	10172	
414.11	10811	
414.31	8934.6	
414.52	9419.3	
414.72	10800	
414.92	10723	
415.12	8924.4	
415.33	9413.8	
415.53	11086	
415.73	11171	
415.94	9549	
416.14	9297.8	
416.34	10507	
416.55	10078	
416.75	10257	
416.95	9871.2	
417.15	11378	
417.36	11523	
417.56	10559	
417.76	9870.5	
417.97	11509	
418.17	11331	
418.37	9423.4	
418.57	9686.2	
418.78	11213	
418.98	10962	
419.18	10383	
419.38	10253	
419.59	10972	
419.79	10597	
419.99	9414.5	
420.2	9734.7	
420.4	11351	
420.6	11230	
420.8	9314.8	
421.01	9225.4	
421.21	11374	
421.41	11292	
421.61	9519	
421.82	9534.7	
422.02	10950	
422.22	11516	
422.42	10086	
422.63	9491	
422.83	11002	
423.03	11789	
423.23	9626.8	
423.44	8909.3	
423.64	10941	
423.84	10359	
424.04	9212.4	
424.25	8951.7	
424.45	11292	
424.65	11224	
424.85	8780.3	
425.06	9125.1	
425.26	11473	
425.46	10553	
425.66	9406.3	
425.87	9103.9	
426.07	11004	
426.27	10863	
426.47	9353.1	
426.67	8638.3	
426.88	11244	
427.08	10828	
427.28	9624.8	
427.48	8655.4	
427.69	9945.6	
427.89	10535	
428.09	9348.3	
428.29	8589.2	
428.5	10794	
428.7	10549	
428.9	8660.9	
429.1	8968.7	
429.3	10593	
429.51	10796	
429.71	8716.2	
429.91	9521.7	
430.11	10963	
430.31	11154	
430.52	9180.4	
430.72	9605	
430.92	11366	
431.12	10913	
431.32	9095	
431.53	9216.5	
431.73	10264	
431.93	11407	
432.13	8954.4	
432.33	8993.3	
432.54	10643	
432.74	10850	
432.94	9061.6	
433.14	9656.9	
433.34	11092	
433.55	10908	
433.75	9663.7	
433.95	11234	
434.15	11080	
434.35	10894	
434.56	9213.1	
434.76	9147.6	
434.96	11224	
435.16	11507	
435.36	9315.5	
435.56	10260	
435.77	11168	
435.97	11254	
436.17	11045	
436.37	10287	
436.57	11176	
436.78	11247	
436.98	10010	
437.18	10656	
437.38	11888	
437.58	11153	
437.78	10899	
437.99	9793.4	
438.19	11509	
438.39	12210	
438.59	9670.5	
438.79	9168.1	
438.99	11880	
439.2	10961	
439.4	9039.7	
439.6	9074.5	
439.8	11200	
440	11935	
440.2	10034	
440.4	10152	
440.61	11729	
440.81	12212	
441.01	9790.7	
441.21	10662	
441.41	12680	
441.61	12103	
441.81	11028	
442.02	11669	
442.22	12844	
442.42	12268	
442.62	10184	
442.82	10018	
443.02	12736	
443.22	12129	
443.43	10490	
443.63	10114	
443.83	11666	
444.03	11788	
444.23	11325	
444.43	10862	
444.63	12306	
444.83	12973	
445.04	10581	
445.24	11528	
445.44	12401	
445.64	12518	
445.84	10788	
446.04	10937	
446.24	11931	
446.44	12553	
446.65	10001	
446.85	10577	
447.05	11605	
447.25	12323	
447.45	10347	
447.65	9961.3	
447.85	11757	
448.05	11201	
448.25	10672	
448.46	10458	
448.66	11738	
448.86	11531	
449.06	9883.5	
449.26	10645	
449.46	12207	
449.66	11418	
449.86	10430	
450.06	10305	
450.26	11578	
450.47	12095	
450.67	10338	
450.87	10811	
451.07	12243	
451.27	12097	
451.47	10047	
451.67	10872	
451.87	11882	
452.07	12457	
452.27	10472	
452.47	10233	
452.67	12009	
452.88	12399	
453.08	9699.9	
453.28	11237	
453.48	13050	
453.68	11680	
453.88	10378	
454.08	10231	
454.28	12341	
454.48	11934	
454.68	10844	
454.88	11052	
455.08	12441	
455.28	12459	
455.48	10039	
455.68	10960	
455.89	12975	
456.09	12671	
456.29	10695	
456.49	10993	
456.69	13188	
456.89	12349	
457.09	11340	
457.29	11699	
457.49	12854	
457.69	13166	
457.89	11578	
458.09	10879	
458.29	12911	
458.49	13448	
458.69	11893	
458.89	11607	
459.09	13917	
459.29	13872	
459.49	11568	
459.69	12188	
459.9	13448	
460.1	13447	
460.3	11376	
460.5	11313	
460.7	13489	
460.9	13297	
461.1	11111	
461.3	12181	
461.5	14240	
461.7	13808	
461.9	11831	
462.1	11831	
462.3	13755	
462.5	14269	
462.7	11980	
462.9	12154	
463.1	14993	
463.3	14947	
463.5	12248	
463.7	13366	
463.9	14268	
464.1	14571	
464.3	12986	
464.5	12918	
464.7	14812	
464.9	14873	
465.1	14060	
465.3	13278	
465.5	15080	
465.7	15289	
465.9	13838	
466.1	13127	
466.3	15300	
466.5	14914	
466.7	14571	
466.9	13394	
467.1	15289	
467.3	15821	
467.5	14481	
467.7	13611	
467.9	16049	
468.1	16718	
468.3	13867	
468.5	14494	
468.7	15393	
468.9	15196	
469.1	13916	
469.3	14477	
469.5	16913	
469.7	15302	
469.9	14147	
470.1	14054	
470.3	15621	
470.5	15621	
470.7	14928	
470.9	13801	
471.1	15473	
471.3	15201	
471.5	13812	
471.69	14914	
471.89	15109	
472.09	14745	
472.29	14227	
472.49	14105	
472.69	14994	
472.89	15370	
473.09	13565	
473.29	13357	
473.49	14872	
473.69	14714	
473.89	13995	
474.09	13272	
474.29	15655	
474.49	15378	
474.69	13900	
474.89	13222	
475.09	14638	
475.29	14766	
475.49	12782	
475.69	13239	
475.88	15549	
476.08	14896	
476.28	12888	
476.48	12898	
476.68	15008	
476.88	14723	
477.08	12796	
477.28	13153	
477.48	14166	
477.68	14537	
477.88	12674	
478.08	12652	
478.28	15120	
478.48	14268	
478.67	12964	
478.87	12106	
479.07	15089	
479.27	14272	
479.47	12854	
479.67	12987	
479.87	14738	
480.07	15270	
480.27	12453	
480.47	13417	
480.67	14328	
480.87	14837	
481.06	12501	
481.26	13123	
481.46	14447	
481.66	14263	
481.86	12991	
482.06	13562	
482.26	14127	
482.46	14736	
482.66	12820	
482.86	12460	
483.05	14528	
483.25	13766	
483.45	14446	
483.65	12755	
483.85	14117	
484.05	14369	
484.25	13055	
484.45	13617	
484.65	14683	
484.84	15115	
485.04	12759	
485.24	12912	
485.44	15335	
485.64	14042	
485.84	12579	
486.04	13470	
486.24	14446	
486.44	14712	
486.63	12485	
486.83	13327	
487.03	14585	
487.23	14809	
487.43	12667	
487.63	14599	
487.83	14829	
488.02	15545	
488.22	13697	
488.42	14212	
488.62	15503	
488.82	14699	
489.02	13310	
489.22	13487	
489.41	15451	
489.61	15369	
489.81	13276	
490.01	13304	
490.21	15621	
490.41	16053	
490.61	13458	
490.8	13438	
491	15332	
491.2	14614	
491.4	13759	
491.6	13114	
491.8	15015	
491.99	14795	
492.19	12798	
492.39	13129	
492.59	15279	
492.79	15302	
492.99	13592	
493.18	13124	
493.38	15419	
493.58	16322	
493.78	13721	
493.98	13452	
494.18	15368	
494.37	15298	
494.57	14357	
494.77	14276	
494.97	15971	
495.17	16366	
495.37	14249	
495.56	14502	
495.76	16608	
495.96	16359	
496.16	15272	
496.36	14700	
496.55	16758	
496.75	16449	
496.95	15003	
497.15	15069	
497.35	16707	
497.54	16748	
497.74	14797	
497.94	16152	
498.14	17335	
498.34	17141	
498.53	14531	
498.73	15126	
498.93	16541	
499.13	16787	
499.33	15117	
499.52	15398	
499.72	17081	
499.92	16993	
500.12	15027	
500.32	15198	
500.51	17100	
500.71	17176	
500.91	15670	
501.11	15524	
501.31	17057	
501.5	17341	
501.7	16077	
501.9	15276	
502.1	16855	
502.29	17230	
502.49	15623	
502.69	15732	
502.89	16935	
503.09	17112	
503.28	14602	
503.48	14697	
503.68	16267	
503.88	16291	
504.07	15230	
504.27	14752	
504.47	16468	
504.67	16389	
504.86	15106	
505.06	14764	
505.26	16041	
505.46	17105	
505.65	14543	
505.85	14749	
506.05	15748	
506.25	16068	
506.44	13904	
506.64	14265	
506.84	15373	
507.04	15853	
507.23	13823	
507.43	13980	
507.63	16520	
507.83	15257	
508.02	13984	
508.22	13448	
508.42	16780	
508.62	15003	
508.81	13611	
509.01	14109	
509.21	14803	
509.4	14963	
509.6	13654	
509.8	13327	
510	14791	
510.19	15897	
510.39	13103	
510.59	13292	
510.79	14885	
510.98	15930	
511.18	13475	
511.38	13592	
511.57	15517	
511.77	15232	
511.97	13882	
512.17	13188	
512.36	15431	
512.56	15251	
512.76	13143	
512.95	12954	
513.15	15401	
513.35	14385	
513.55	13687	
513.74	13120	
513.94	15214	
514.14	14801	
514.33	13966	
514.53	13662	
514.73	14831	
514.92	14930	
515.12	13302	
515.32	13137	
515.51	15074	
515.71	15380	
515.91	14507	
516.11	13248	
516.3	16340	
516.5	14943	
516.7	13622	
516.89	14093	
517.09	14863	
517.29	14975	
517.48	13728	
517.68	13374	
517.88	14793	
518.07	15098	
518.27	13774	
518.47	12942	
518.66	15461	
518.86	14440	
519.06	12823	
519.25	13038	
519.45	14672	
519.65	15842	
519.84	13684	
520.04	14257	
520.24	16206	
520.43	15199	
520.63	13424	
520.83	13274	
521.02	14571	
521.22	15040	
521.42	13420	
521.61	13888	
521.81	14563	
522.01	14663	
522.2	13181	
522.4	12880	
522.6	14959	
522.79	14027	
522.99	13098	
523.18	12887	
523.38	14881	
523.58	15020	
523.77	14196	
523.97	12898	
524.17	16363	
524.36	15959	
524.56	14032	
524.76	13859	
524.95	15382	
525.15	15142	
525.34	13780	
525.54	13999	
525.74	15854	
525.93	15194	
526.13	14957	
526.33	14067	
526.52	16238	
526.72	15787	
526.91	14982	
527.11	14582	
527.31	16208	
527.5	16576	
527.7	14465	
527.89	13779	
528.09	15513	
528.29	15923	
528.48	14690	
528.68	14391	
528.87	16184	
529.07	16181	
529.27	14523	
529.46	14171	
529.66	16229	
529.85	16485	
530.05	14214	
530.25	14793	
530.44	17124	
530.64	15907	
530.83	14249	
531.03	14648	
531.23	16248	
531.42	16016	
531.62	14971	
531.81	14393	
532.01	16508	
532.21	16542	
532.4	14450	
532.6	14760	
532.79	17196	
532.99	16668	
533.18	15016	
533.38	15647	
533.58	16590	
533.77	16927	
533.97	15180	
534.16	15732	
534.36	17372	
534.55	16591	
534.75	15838	
534.95	15125	
535.14	17505	
535.34	16612	
535.53	15069	
535.73	16375	
535.92	17801	
536.12	16726	
536.31	14928	
536.51	15745	
536.71	16867	
536.9	16419	
537.1	14918	
537.29	15130	
537.49	17036	
537.68	16571	
537.88	15329	
538.07	14669	
538.27	16537	
538.46	17302	
538.66	14611	
538.86	14968	
539.05	16599	
539.25	16886	
539.44	15438	
539.64	14854	
539.83	16567	
540.03	17167	
540.22	14790	
540.42	14732	
540.61	16318	
540.81	16760	
541	14900	
541.2	15397	
541.39	15990	
541.59	16377	
541.78	15262	
541.98	14317	
542.18	15886	
542.37	15734	
542.57	14603	
542.76	15083	
542.96	15511	
543.15	16142	
543.35	14476	
543.54	13899	
543.74	16024	
543.93	15772	
544.13	14201	
544.32	14913	
544.52	15774	
544.71	15203	
544.91	13355	
545.1	14222	
545.3	15201	
545.49	15447	
545.69	13092	
545.88	13702	
546.08	16212	
546.27	15861	
546.47	13944	
546.66	13269	
546.86	15584	
547.05	15943	
547.24	13530	
547.44	13564	
547.63	14750	
547.83	15597	
548.02	13721	
548.22	13719	
548.41	14531	
548.61	15458	
548.8	13143	
549	13103	
549.19	14909	
549.39	15319	
549.58	12747	
549.78	13347	
549.97	15089	
550.17	14620	
550.36	13844	
550.55	14521	
550.75	14604	
550.94	15217	
551.14	12912	
551.33	13051	
551.53	14046	
551.72	14790	
551.92	13054	
552.11	12836	
552.31	14838	
552.5	14769	
552.69	14061	
552.89	12549	
553.08	14617	
553.28	14399	
553.47	12792	
553.67	13665	
553.86	15014	
554.06	13768	
554.25	12078	
554.44	12579	
554.64	15501	
554.83	15157	
555.03	12503	
555.22	12721	
555.42	14703	
555.61	14318	
555.8	12514	
556	12620	
556.19	13865	
556.39	14414	
556.58	12454	
556.78	12397	
556.97	14235	
557.16	13855	
557.36	13259	
557.55	12146	
557.75	13405	
557.94	14773	
558.13	12205	
558.33	12068	
558.52	14641	
558.72	13565	
558.91	12056	
559.1	12092	
559.3	13411	
559.49	13165	
559.69	11757	
559.88	12331	
560.07	13829	
560.27	14150	
560.46	12391	
560.66	12620	
560.85	13760	
561.04	13062	
561.24	11740	
561.43	11792	
561.63	13205	
561.82	13383	
562.01	12637	
562.21	12029	
562.4	13554	
562.59	14286	
562.79	11923	
562.98	11788	
563.18	13549	
563.37	14687	
563.56	12224	
563.76	11836	
563.95	13221	
564.14	13289	
564.34	12068	
564.53	11712	
564.73	13614	
564.92	13854	
565.11	12067	
565.31	11634	
565.5	14033	
565.69	13222	
565.89	11811	
566.08	12066	
566.27	13721	
566.47	14175	
566.66	12495	
566.85	11440	
567.05	13706	
567.24	13231	
567.44	11539	
567.63	12675	
567.82	13827	
568.02	13456	
568.21	11650	
568.4	11914	
568.6	13374	
568.79	13256	
568.98	11486	
569.18	11682	
569.37	13424	
569.56	14822	
569.76	11876	
569.95	12600	
570.14	13590	
570.34	13526	
570.53	11508	
570.72	11347	
570.91	14003	
571.11	13245	
571.3	11649	
571.49	12198	
571.69	13267	
571.88	12708	
572.07	12149	
572.27	11972	
572.46	12704	
572.65	13323	
572.85	11364	
573.04	11539	
573.23	13774	
573.43	13151	
573.62	11249	
573.81	11700	
574	13299	
574.2	12994	
574.39	11655	
574.58	11656	
574.78	13903	
574.97	13268	
575.16	11996	
575.36	12053	
575.55	13747	
575.74	13676	
575.93	11222	
576.13	12297	
576.32	13173	
576.51	13548	
576.71	11728	
576.9	12635	
577.09	13881	
577.28	13529	
577.48	11975	
577.67	11297	
577.86	13107	
578.05	13423	
578.25	11736	
578.44	11723	
578.63	13221	
578.83	14177	
579.02	11221	
579.21	12480	
579.4	13401	
579.6	13272	
579.79	11708	
579.98	13385	
580.17	13778	
580.37	13678	
580.56	11368	
580.75	11988	
580.94	14015	
581.14	13981	
581.33	12370	
581.52	11577	
581.71	13525	
581.91	14083	
582.1	11480	
582.29	11789	
582.48	13264	
582.68	13444	
582.87	12137	
583.06	11914	
583.25	13745	
583.45	13169	
583.64	12398	
583.83	12968	
584.02	13321	
584.21	13766	
584.41	12309	
584.6	11869	
584.79	13512	
584.98	14012	
585.18	11595	
585.37	11497	
585.56	13268	
585.75	13706	
585.94	11550	
586.14	12130	
586.33	13958	
586.52	13250	
586.71	11910	
586.91	11652	
587.1	12667	
587.29	13480	
587.48	11426	
587.67	11389	
587.87	13205	
588.06	13139	
588.25	12143	
588.44	11523	
588.63	12776	
588.83	13106	
589.02	11080	
589.21	10830	
589.4	12351	
589.59	12204	
589.78	9865.7	
589.98	10106	
590.17	11497	
590.36	11774	
590.55	9237.7	
590.74	9667.8	
590.94	12355	
591.13	11215	
591.32	9283.4	
591.51	8943.5	
591.7	11410	
591.89	10985	
592.09	8921	
592.28	9412.5	
592.47	10490	
592.66	11936	
592.85	9103.9	
593.05	9303.9	
593.24	10975	
593.43	11767	
593.62	9404.3	
593.81	9672.6	
594	11031	
594.19	11217	
594.39	9329.2	
594.58	9332.6	
594.77	11428	
594.96	11752	
595.15	9330.5	
595.34	9824.8	
595.54	11175	
595.73	10692	
595.92	8761.2	
596.11	9478.7	
596.3	11499	
596.49	10643	
596.68	9400.9	
596.88	9584.5	
597.07	11359	
597.26	10482	
597.45	9064.3	
597.64	9920.4	
597.83	10845	
598.02	11174	
598.22	9183.1	
598.41	9650.7	
598.6	11030	
598.79	10621	
598.98	9150.3	
599.17	9816.6	
599.36	11185	
599.55	11845	
599.74	10585	
599.94	10524	
600.13	11558	
600.32	10681	
600.51	9019.9	
600.7	9203.6	
600.89	12019	
601.08	12039	
601.27	9000.1	
601.47	9722.4	
601.66	11493	
601.85	11928	
602.04	9548.3	
602.23	9590	
602.42	10792	
602.61	11299	
602.8	9371.5	
602.99	9254.1	
603.18	11049	
603.37	11169	
603.57	9686.2	
603.76	10085	
603.95	11727	
604.14	11428	
604.33	9392	
604.52	9607.7	
604.71	11366	
604.9	10841	
605.09	9977.7	
605.28	9837.8	
605.47	11779	
605.66	11398	
605.86	9721.7	
606.05	9372.2	
606.24	11726	
606.43	10542	
606.62	9525.1	
606.81	10010	
607	11495	
607.19	11008	
607.38	9010.4	
607.57	9225.4	
607.76	10704	
607.95	10324	
608.14	9516.2	
608.33	9904.7	
608.52	10655	
608.72	11343	
608.91	8880	
609.1	8845.9	
609.29	10838	
609.48	10333	
609.67	9556.5	
609.86	8808.3	
610.05	10375	
610.24	10546	
610.43	8680	
610.62	8415.8	
610.81	11497	
611	11269	
611.19	8768	
611.38	9381.1	
611.57	10767	
611.76	11643	
611.95	8612.4	
612.14	8462.9	
612.33	10620	
612.52	10358	
612.71	8991.9	
612.9	8398	
613.09	10022	
613.28	11662	
613.47	8822	
613.66	9392.7	
613.85	10785	
614.04	10272	
614.24	8865	
614.43	8146.1	
614.62	10788	
614.81	10568	
615	9047.9	
615.19	9077.3	
615.38	10129	
615.57	10470	
615.76	8947.6	
615.95	9640.5	
616.14	10733	
616.33	10391	
616.52	9235	
616.71	9377.6	
616.9	10643	
617.09	10447	
617.28	8802.2	
617.47	9575.6	
617.66	9954.5	
617.85	9999.5	
618.04	9343.5	
618.22	8990.6	
618.41	10316	
618.6	10970	
618.79	8987.2	
618.98	8757.1	
619.17	11247	
619.36	9871.2	
619.55	8981.7	
619.74	8924.4	
619.93	10662	
620.12	10290	
620.31	9372.9	
620.5	9448.6	
620.69	11078	
620.88	11451	
621.07	9818	
621.26	9334.6	
621.45	10765	
621.64	10805	
621.83	9269.8	
622.02	8615.8	
622.21	10882	
622.4	10611	
622.59	9796.8	
622.78	9562.6	
622.97	10416	
623.16	11135	
623.35	9260.2	
623.54	8699.8	
623.72	10557	
623.91	10637	
624.1	9449.3	
624.29	8398	
624.48	11445	
624.67	10819	
624.86	9295.7	
625.05	8718.2	
625.24	11406	
625.43	10312	
625.62	10501	
625.81	8733.9	
626	10854	
626.19	10378	
626.38	9304.6	
626.56	8754.4	
626.75	10230	
626.94	10795	
627.13	9306.7	
627.32	8298.4	
627.51	10658	
627.7	11413	
627.89	8230.8	
628.08	9106	
628.27	9873.3	
628.46	10053	
628.65	8372.8	
628.83	8109.3	
629.02	10377	
629.21	9899.9	
629.4	8645.8	
629.59	8729.8	
629.78	9876.7	
629.97	10529	
630.16	8844.5	
630.35	8566.7	
630.54	10895	
630.72	10686	
630.91	8581.7	
631.1	8976.9	
631.29	10374	
631.48	10353	
631.67	9026.1	
631.86	8597.4	
632.05	10173	
632.24	10075	
632.42	8271.7	
632.61	8760.5	
632.8	10094	
632.99	9851.4	
633.18	8771.5	
633.37	9014.5	
633.56	10305	
633.75	10215	
633.93	8725.7	
634.12	8616.5	
634.31	11003	
634.5	10634	
634.69	8555.7	
634.88	8928.5	
635.07	10277	
635.25	10615	
635.44	9262.3	
635.63	9360.6	
635.82	10058	
636.01	9608.4	
636.2	9132.6	
636.39	8776.9	
636.57	10854	
636.76	10466	
636.95	8443.1	
637.14	9359.9	
637.33	10391	
637.52	11054	
637.7	8250.6	
637.89	8989.9	
638.08	10141	
638.27	11144	
638.46	8939.4	
638.65	9354.4	
638.83	10920	
639.02	9874.6	
639.21	8860.2	
639.4	9215.2	
639.59	10062	
639.78	9867.1	
639.96	8271.1	
640.15	8307.9	
640.34	10097	
640.53	10101	
640.72	8066.3	
640.91	8299.1	
641.09	9615.2	
641.28	10479	
641.47	8290.9	
641.66	8877.3	
641.85	10123	
642.03	10159	
642.22	8630.8	
642.41	8284.7	
642.6	9559.9	
642.79	9075.2	
642.97	8129.1	
643.16	8524.3	
643.35	9424.1	
643.54	9255.5	
643.73	7929.1	
643.91	8484.1	
644.1	9232.2	
644.29	9640.5	
644.48	7885.4	
644.67	7963.2	
644.85	9103.2	
645.04	9439.1	
645.23	7538.6	
645.42	7696.9	
645.6	8981.7	
645.79	9755.8	
645.98	7449.1	
646.17	6744.6	
646.36	8600.8	
646.54	8969.4	
646.73	7912.7	
646.92	7038.2	
647.11	8573.5	
647.29	9306.7	
647.48	7083.9	
647.67	6914.6	
647.86	9428.2	
648.05	9392.7	
648.23	7249.1	
648.42	8015.7	
648.61	8953	
648.8	8685.4	
648.98	6859.3	
649.17	7197.2	
649.36	8448.6	
649.55	8205.5	
649.73	7001.3	
649.92	7516.7	
650.11	8439.7	
650.3	8688.2	
650.48	7185.6	
650.67	6992.4	
650.86	8886.8	
651.05	7980.9	
651.23	7002.7	
651.42	6978.1	
651.61	8449.9	
651.79	8374.8	
651.98	7174	
652.17	6833.4	
652.36	8720.9	
652.54	8092.2	
652.73	6894.1	
652.92	6821.1	
653.11	8779	
653.29	8747.6	
653.48	6354.8	
653.67	7043.6	
653.85	8473.8	
654.04	9245.2	
654.23	7137.9	
654.42	6787	
654.6	8045.1	
654.79	8570.7	
654.98	6398.5	
655.16	6773.3	
655.35	7751.6	
655.54	7593.2	
655.73	6263.4	
655.91	6242.9	
656.1	8368	
656.29	7495.6	
656.47	5907	
656.66	7193.1	
656.85	7838.9	
657.03	7707.9	
657.22	6402.6	
657.41	6475.7	
657.59	7864.2	
657.78	7746.1	
657.97	6279.1	
658.16	6731.7	
658.34	8513.4	
658.53	8739.4	
658.72	7400	
658.9	7688.1	
659.09	8128.4	
659.28	8154.3	
659.46	6630.6	
659.65	6606.1	
659.84	7980.3	
660.02	8535.9	
660.21	6591	
660.4	6516	
660.58	8652	
660.77	8219.2	
660.96	6940.6	
661.14	6315.3	
661.33	9017.9	
661.52	8914.1	
661.7	6196.5	
661.89	8681.3	
662.08	7903.1	
662.26	7554.3	
662.45	6427.9	
662.64	6415.6	
662.82	8473.1	
663.01	7801.4	
663.2	6462.7	
663.38	6932.4	
663.57	8272.4	
663.75	8213.7	
663.94	6730.3	
664.13	7602.1	
664.31	7833.5	
664.5	8340.7	
664.69	6968.6	
664.87	7176.8	
665.06	7692.9	
665.25	8163.2	
665.43	7391.1	
665.62	7429.3	
665.8	8405.5	
665.99	7882.6	
666.18	6624.5	
666.36	6690	
666.55	8370.7	
666.74	8286.8	
666.92	6371.2	
667.11	7399.3	
667.29	7852.6	
667.48	8251.9	
667.67	7262.8	
667.85	6500.3	
668.04	7798.7	
668.22	7845.1	
668.41	6585.6	
668.6	6831.3	
668.78	7634.8	
668.97	7788.4	
669.15	6824.5	
669.34	6139.1	
669.53	7641.7	
669.71	7928.4	
669.9	6251.8	
670.08	6690.7	
670.27	7591.8	
670.46	8124.3	
670.64	6814.3	
670.83	7000.6	
671.01	7479.9	
671.2	7882.6	
671.38	6365.8	
671.57	6141.9	
671.76	8471.8	
671.94	8746.2	
672.13	6075.6	
672.31	6903.7	
672.5	8183	
672.69	7546.1	
672.87	6252.4	
673.06	6464.8	
673.24	8039	
673.43	7693.5	
673.61	6683.2	
673.8	6356.9	
673.98	8121.6	
674.17	8133.2	
674.36	6886	
674.54	6662	
674.73	7850.5	
674.91	8214.4	
675.1	6556.2	
675.28	6215.6	
675.47	7860.1	
675.65	8129.1	
675.84	6339.1	
676.03	6604.7	
676.21	7636.2	
676.4	7174.7	
676.58	6886.6	
676.77	6710.5	
676.95	8667.7	
677.14	7510.6	
677.32	6099.5	
677.51	6007.4	
677.69	8077.2	
677.88	7307.8	
678.06	6088.6	
678.25	6116.6	
678.44	7646.4	
678.62	7401.4	
678.81	5883.8	
678.99	6639.5	
679.18	8227.4	
679.36	7892.2	
679.55	6255.2	
679.73	6689.3	
679.92	7951.6	
680.1	7478.5	
680.29	7110.5	
680.47	6190.3	
680.66	7436.2	
680.84	7996.6	
681.03	5793.7	
681.21	6539.2	
681.4	7380.9	
681.58	7392.5	
681.77	6092	
681.95	5993	
682.14	8033.5	
682.32	8165.3	
682.51	6686.6	
682.69	5790.3	
682.88	7301.7	
683.06	7704.5	
683.25	6455.2	
683.43	6756.2	
683.62	7590.5	
683.8	7806.2	
683.99	6753.5	
684.17	6211.5	
684.36	8309.3	
684.54	7397.9	
684.73	5683.8	
684.91	5743.2	
685.1	7514	
685.28	6972.7	
685.46	5992.4	
685.65	5906.3	
685.83	7385	
686.02	6912.6	
686.2	5391.6	
686.39	5434.6	
686.57	6567.2	
686.76	7707.2	
686.94	5426.4	
687.13	5481.7	
687.31	7162.4	
687.5	6969.9	
687.68	5139	
687.86	6014.9	
688.05	8228.1	
688.23	6423.1	
688.42	6047	
688.6	5533.6	
688.79	6910.5	
688.97	6855.2	
689.16	5793.7	
689.34	4988.2	
689.52	7415.7	
689.71	7600	
689.89	6014.9	
690.08	5509.7	
690.26	7141.9	
690.45	6898.2	
690.63	6130.9	
690.81	5627.8	
691	6984.9	
691.18	6795.2	
691.37	5762.3	
691.55	7174.7	
691.74	6696.9	
691.92	8216.5	
692.1	5637.4	
692.29	5296	
692.47	6849.8	
692.66	6384.2	
692.84	5326.8	
693.02	5709.7	
693.21	6413.6	
693.39	6820.4	
693.58	5867.4	
693.76	5371.8	
693.94	7671	
694.13	7624.6	
694.31	5440.1	
694.5	6219.7	
694.68	6840.2	
694.86	7024.5	
695.05	5857.2	
695.23	5929.6	
695.42	7405.5	
695.6	8968.7	
695.78	6311.8	
695.97	5576.6	
696.15	7505.1	
696.34	6995.9	
696.52	5532.2	
696.7	6030.6	
696.89	7293.5	
697.07	6681.2	
697.25	5888.6	
697.44	6967.9	
697.62	7101	
697.81	7271.7	
697.99	5605.3	
698.17	5933.6	
698.36	6668.2	
698.54	7078.5	
698.72	5906.3	
698.91	5172.5	
699.09	6785.6	
699.28	6606.7	
699.46	5621	
699.64	5459.2	
699.83	6619.7	
700.01	7387.7	
700.19	6078.4	
700.38	4895.3	
700.56	7437.5	
700.74	6661.4	
700.93	5203.9	
701.11	5850.4	
701.29	7146.7	
701.48	7925	
701.66	5453.7	
701.84	5522	
702.03	6891.4	
702.21	7430.7	
702.39	5248.3	
702.58	5668.8	
702.76	7146.7	
702.94	7236.8	
703.13	5207.3	
703.31	6917.4	
703.49	6654.5	
703.68	7380.9	
703.86	5283.8	
704.04	6030.6	
704.23	6979.5	
704.41	7283.9	
704.59	5442.8	
704.78	6270.9	
704.96	8192.6	
705.14	7246.4	
705.33	5255.1	
705.51	5865.4	
705.69	6797.9	
705.87	7492.2	
706.06	5953.4	
706.24	5238	
706.42	7156.3	
706.61	7284.6	
706.79	6102.3	
706.97	5187.5	
707.16	6711.9	
707.34	7137.9	
707.52	5984.8	
707.7	5396.4	
707.89	6806.8	
708.07	6511.2	
708.25	6064	
708.44	6034.7	
708.62	6668.2	
708.8	7433.4	
708.98	6189.6	
709.17	5464	
709.35	7014.3	
709.53	7002	
709.72	5244.8	
709.9	5366.4	
710.08	7240.3	
710.26	7291.5	
710.45	6373.3	
710.63	5427.1	
710.81	6928.3	
710.99	6939.9	
711.18	5910.4	
711.36	5468.1	
711.54	6741.9	
711.72	7380.9	
711.91	5550	
712.09	5121.3	
712.27	6817.7	
712.45	7209.5	
712.64	5603.9	
712.82	4851	
713	6350.8	
713.18	6467.5	
713.37	4877.6	
713.55	5752.7	
713.73	6993.8	
713.91	6005.3	
714.1	4999.8	
714.28	4684.4	
714.46	6551.5	
714.64	5980.8	
714.83	4099.4	
715.01	4650.9	
715.19	6024.4	
715.37	5392.3	
715.55	4300.1	
715.74	4668	
715.92	6468.2	
716.1	5011.4	
716.28	5266.7	
716.47	4656.4	
716.65	5644.2	
716.83	5612.1	
717.01	4528.7	
717.19	4543.1	
717.38	7158.3	
717.56	5374.6	
717.74	4686.4	
717.92	4113.7	
718.1	6269.5	
718.29	5659.9	
718.47	3851.5	
718.65	4293.9	
718.83	6233.3	
719.01	6130.9	
719.2	3900	
719.38	4680.3	
719.56	6165.1	
719.74	7146.7	
719.92	4430.4	
720.11	5171.1	
720.29	6182.8	
720.47	5583.4	
720.65	4095.3	
720.83	4669.4	
721.02	5692	
721.2	5537	
721.38	4612.7	
721.56	4037.2	
721.74	5060.5	
721.92	5181.4	
722.11	4904.2	
722.29	4724.7	
722.47	6168.5	
722.65	5520.6	
722.83	4001.7	
723.01	4670.1	
723.2	5623	
723.38	5827.8	
723.56	3579.8	
723.74	4489.8	
723.92	5186.1	
724.1	5967.8	
724.29	3984.7	
724.47	4867.3	
724.65	5254.4	
724.83	5184.1	
725.01	3928	
725.19	4519.9	
725.37	5248.9	
725.56	5223.7	
725.74	3831.1	
725.92	3997.6	
726.1	5231.2	
726.28	5436	
726.46	4322.6	
726.64	4098.7	
726.83	5469.4	
727.01	5579.3	
727.19	3820.8	
727.37	4362.2	
727.55	5573.9	
727.73	5856.5	
727.91	3815.4	
728.09	3712.3	
728.28	5886.5	
728.46	5949.3	
728.64	4438.6	
728.82	4423.6	
729	6647.7	
729.18	6150.1	
729.36	3859.1	
729.54	5527.5	
729.72	6948.8	
729.91	5715.2	
730.09	5403.2	
730.27	4395.6	
730.45	5558.2	
730.63	6093.4	
730.81	4825	
730.99	4209.3	
731.17	6477.7	
731.35	5444.2	
731.53	4541.7	
731.71	4373.1	
731.9	6271.6	
732.08	6381.5	
732.26	4536.3	
732.44	4263.9	
732.62	6443.6	
732.8	6044.2	
732.98	4790.9	
733.16	4086.4	
733.34	6020.3	
733.52	5100.8	
733.7	4481.6	
733.88	4577.2	
734.07	5917.9	
734.25	5689.3	
734.43	4071.4	
734.61	5129.5	
734.79	6804	
734.97	5671.5	
735.15	4122.6	
735.33	4483.7	
735.51	5870.8	
735.69	5689.9	
735.87	5132.2	
736.05	4568.3	
736.23	5732.9	
736.41	5492	
736.59	4416.8	
736.77	4487.8	
736.95	6119.3	
737.13	5635.3	
737.32	4174.4	
737.5	4310.3	
737.68	6543.3	
737.86	5601.9	
738.04	4102.1	
738.22	5317.9	
738.4	5540.4	
738.58	5732.3	
738.76	4508.9	
738.94	3777.8	
739.12	5532.9	
739.3	5455.1	
739.48	4862.6	
739.66	4694.6	
739.84	5679.7	
740.02	5685.8	
740.2	3773	
740.38	4006.5	
740.56	6005.3	
740.74	5092.6	
740.92	4503.5	
741.1	4403.8	
741.28	5564.3	
741.46	5431.9	
741.64	4158.7	
741.82	4562.9	
742	5645.6	
742.18	5573.9	
742.36	4289.8	
742.54	4039.3	
742.72	6037.4	
742.9	5036.6	
743.08	4583.4	
743.26	3695.2	
743.44	6147.3	
743.62	5918.6	
743.8	4649.6	
743.98	4014.7	
744.16	5740.5	
744.34	5574.6	
744.52	4545.8	
744.7	4586.8	
744.88	5871.5	
745.06	5509	
745.24	4600.4	
745.42	4625.7	
745.6	5930.9	
745.78	5825.1	
745.96	3719.1	
746.14	3957.4	
746.32	6457.9	
746.5	5825.1	
746.68	4403.8	
746.86	3969	
747.03	6099.5	
747.21	4999.8	
747.39	4334.2	
747.57	3938.2	
747.75	5592.3	
747.93	5793	
748.11	3921.9	
748.29	3856.3	
748.47	6736.5	
748.65	5332.2	
748.83	4459.8	
749.01	4248.9	
749.19	5694	
749.37	5063.3	
749.55	4126.7	
749.73	4181.3	
749.91	5571.8	
750.09	5285.1	
750.26	4197.7	
750.44	3820.1	
750.62	5472.9	
750.8	5470.8	
750.98	3640.6	
751.16	3938.9	
751.34	5558.9	
751.52	5105.6	
751.7	4528.7	
751.88	3670	
752.06	5885.9	
752.24	5644.2	
752.42	3611.9	
752.59	3919.8	
752.77	5376.6	
752.95	6252.4	
753.13	4440.7	
753.31	3960.1	
753.49	5167.7	
753.67	5449	
753.85	4152.6	
754.03	3805.1	
754.21	5713.2	
754.38	5899.5	
754.56	3952.6	
754.74	3287.7	
754.92	5149.3	
755.1	5558.2	
755.28	3330.7	
755.46	3309.5	
755.64	6156.2	
755.82	6247.7	
755.99	3492.5	
756.17	3507.5	
756.35	4376.5	
756.53	5386.8	
756.71	2753.8	
756.89	3354.6	
757.07	5149.3	
757.25	4521.2	
757.42	3753.2	
757.6	4304.8	
757.78	5260.5	
757.96	4529.4	
758.14	3493.2	
758.32	3233.7	
758.5	4186.7	
758.67	4811.4	
758.85	3390.1	
759.03	3448.8	
759.21	4930.8	
759.39	4513.7	
759.57	3083.6	
759.75	3908.2	
759.92	5449	
760.1	4927.4	
760.28	4172.4	
760.46	4392.2	
760.64	4691.9	
760.82	4609.3	
760.99	4141	
761.17	3456.3	
761.35	5307.7	
761.53	4569	
761.71	3525.2	
761.89	4105.5	
762.06	5240.1	
762.24	4912.4	
762.42	3667.2	
762.6	3441.3	
762.78	4885.8	
762.96	5329.5	
763.13	3922.5	
763.31	3653.6	
763.49	5450.3	
763.67	4860.5	
763.85	4285.7	
764.02	4695.3	
764.2	5712.5	
764.38	4987.5	
764.56	3594.9	
764.74	4241.3	
764.91	5757.5	
765.09	4883.7	
765.27	3367.5	
765.45	3224.2	
765.63	5807.4	
765.8	5644.2	
765.98	3140.9	
766.16	3280.2	
766.34	4633.2	
766.52	4414.1	
766.69	3947.1	
766.87	3212.6	
767.05	4932.2	
767.23	5400.5	
767.41	3413.3	
767.58	3643.3	
767.76	5275.6	
767.94	5418.9	
768.12	3489.7	
768.29	4023.6	
768.47	4898.1	
768.65	5547.9	
768.83	3209.8	
769	3986	
769.18	4628.4	
769.36	5153.4	
769.54	3990.1	
769.72	3218	
769.89	5423	
770.07	5384.1	
770.25	3515	
770.43	4414.1	
770.6	5971.2	
770.78	6208.8	
770.96	3627.6	
771.14	4106.2	
771.31	5370.5	
771.49	4827.7	
771.67	3076.7	
771.85	3187.3	
772.02	4287.8	
772.2	4822.3	
772.38	3749.8	
772.55	3381.2	
772.73	5062.6	
772.91	4847.5	
773.09	3644.7	
773.26	3658.4	
773.44	5061.9	
773.62	4805.2	
773.8	3297.9	
773.97	3128.6	
774.15	5046.9	
774.33	4810	
774.5	3206.4	
774.68	3455.6	
774.86	5142.4	
775.04	4853	
775.21	3253.5	
775.39	3255.6	
775.57	4997	
775.74	5206.6	
775.92	3106.1	
776.1	3025.5	
776.27	4977.2	
776.45	5846.3	
776.63	3248.8	
776.81	2934.1	
776.98	4685.1	
777.16	5370.5	
777.34	3352.5	
777.51	3591.5	
777.69	4762.2	
777.87	4539.7	
778.04	3478.1	
778.22	3786	
778.4	4628.4	
778.57	5040.1	
778.75	2917	
778.93	3080.1	
779.1	4444.8	
779.28	4284.4	
779.46	2818.7	
779.64	3170.9	
779.81	5156.1	
779.99	5735.7	
780.17	3750.5	
780.34	3856.3	
780.52	4835.9	
780.69	4887.8	
780.87	3508.2	
781.05	3087	
781.22	4859.8	
781.4	4834.6	
781.58	3270.6	
781.75	2659.6	
781.93	4906.3	
782.11	4322.6	
782.28	3880.9	
782.46	3274.7	
782.64	4267.3	
782.81	4984.8	
782.99	3322.5	
783.17	3257.6	
783.34	4833.9	
783.52	4403.1	
783.69	3362.8	
783.87	4018.8	
784.05	4442.7	
784.22	4373.8	
784.4	4020.2	
784.58	3484.3	
784.75	5148.6	
784.93	4510.3	
785.1	3241.9	
785.28	3712.3	
785.46	4906.9	
785.63	4328	
785.81	3263.8	
785.99	3101.3	
786.16	4562.9	
786.34	4780.6	
786.51	3167.5	
786.69	3461.7	
786.87	4178.5	
787.04	4583.4	
787.22	3076.7	
787.39	3711.6	
787.57	4429.1	
787.75	5218.2	
787.92	3879.5	
788.1	3822.2	
788.27	4387.4	
788.45	4126	
788.63	3579.8	
788.8	2702.6	
788.98	4712.4	
789.15	4080.9	
789.33	2860.3	
789.5	3216	
789.68	5026.4	
789.86	5127.4	
790.03	3575.1	
790.21	3158.7	
790.38	5154.7	
790.56	4499.4	
790.73	3063.8	
790.91	3053.5	
791.09	4428.4	
791.26	4950.6	
791.44	3263.8	
791.61	2854.2	
791.79	4428.4	
791.96	4418.8	
792.14	2930.6	
792.32	2628.2	
792.49	4358.8	
792.67	4486.4	
792.84	3059.7	
793.02	2841.2	
793.19	4778.6	
793.37	5213.4	
793.54	2611.2	
793.72	2880.8	
793.89	5253	
794.07	4382.7	
794.25	3183.2	
794.42	2721.8	
794.6	5170.4	
794.77	4782	
794.95	3478.1	
795.12	3072.6	
795.3	4410	
795.47	4749.2	
795.65	3442.6	
795.82	3235.8	
796	4245.4	
796.17	5632.6	
796.35	3164.8	
796.52	3710.9	
796.7	4801.8	
796.87	4896	
797.05	3201.7	
797.22	3818.8	
797.4	4863.2	
797.57	5532.2	
797.75	3302.7	
797.92	3089.7	
798.1	5102.9	
798.27	4309.6	
798.45	2691	
798.62	2923.1	
798.8	4622.3	
798.97	4968.4	
799.15	3460.4	
799.32	3296.5	
799.5	4095.3	
799.67	4608.6	
799.85	3550.5	
800.02	2710.1	
800.2	4322.6	
800.37	4533.5	
800.55	3642.7	
800.72	3106.8	
800.9	4885.1	
801.07	5259.9	
801.25	4005.8	
801.42	3384.6	
801.6	4949.9	
801.77	4647.5	
801.95	3149.1	
802.12	3036.5	
802.29	4752	
802.47	4638.6	
802.64	3419.4	
802.82	2686.3	
802.99	4378.6	
803.17	5079.6	
803.34	3304.7	
803.52	2970.2	
803.69	5485.1	
803.87	4222.2	
804.04	3298.6	
804.21	3386.7	
804.39	5232.6	
804.56	4506.9	
804.74	2810.5	
804.91	3431.7	
805.09	4375.8	
805.26	4430.4	
805.44	2877.4	
805.61	3149.1	
805.78	4885.8	
805.96	4857.8	
806.13	3364.8	
806.31	3605.1	
806.48	4067.9	
806.66	4396.3	
806.83	3325.9	
807	3300.6	
807.18	4414.1	
807.35	4715.1	
807.53	3277.4	
807.7	2745	
807.87	5192.3	
808.05	4367	
808.22	3577.1	
808.4	2667.8	
808.57	4347.8	
808.74	4149.9	
808.92	2994.8	
809.09	3753.9	
809.27	4368.3	
809.44	4803.2	
809.61	2781.8	
809.79	3005.7	
809.96	5381.4	
810.14	4887.8	
810.31	2719	
810.48	3224.2	
810.66	4478.9	
810.83	4925.4	
811.01	3039.2	
811.18	3334.1	
811.35	4949.9	
811.53	3923.9	
811.7	3584.6	
811.87	3401.7	
812.05	4459.8	
812.22	4411.3	
812.39	2990	
812.57	2827.6	
812.74	4491.9	
812.92	5620.3	
813.09	3255.6	
813.26	3383.9	
813.44	5424.4	
813.61	4277.5	
813.78	2693.8	
813.96	3521.1	
814.13	4463.9	
814.3	4179.9	
814.48	3747.1	
814.65	3164.1	
814.82	5227.1	
815	4154.6	
815.17	3250.1	
815.34	3891.8	
815.52	4362.9	
815.69	4339.6	
815.87	3173	
816.04	3170.9	
816.21	4452.3	
816.38	4048.8	
816.56	3187.3	
816.73	3023.5	
816.9	5427.1	
817.08	4913.1	
817.25	3007.1	
817.42	3662.5	
817.6	4078.2	
817.77	4389.5	
817.94	3293.1	
818.12	2937.5	
818.29	4219.5	
818.46	6099.5	
818.64	3107.5	
818.81	2887	
818.98	4164.9	
819.16	5769.8	
819.33	3459	
819.5	3227.6	
819.67	4674.8	
819.85	5130.8	
820.02	3237.2	
820.19	3381.9	
820.37	4576.5	
820.54	4336.2	
820.71	3299.3	
820.88	3953.3	
821.06	4560.1	
821.23	4262.5	
821.4	3421.5	
821.58	3306.1	
821.75	4887.8	
821.92	4509.6	
822.09	2745.6	
822.27	2803	
822.44	4434.5	
822.61	4348.5	
822.79	2715.6	
822.96	4941.7	
823.13	4695.3	
823.3	4134.2	
823.48	3149.8	
823.65	2808.4	
823.82	4956.1	
823.99	4037.9	
824.17	3889.8	
824.34	2891.7	
824.51	5551.4	
824.68	4428.4	
824.86	3002.3	
825.03	3284.9	
825.2	4448.2	
825.37	5117.9	
825.55	3006.4	
825.72	3279.5	
825.89	5565.7	
826.06	5238.7	
826.24	3229	
826.41	3175.7	
826.58	5225.7	
826.75	4586.8	
826.92	2643.9	
827.1	2840.5	
827.27	6826.6	
827.44	5512.4	
827.61	2977.1	
827.79	3553.9	
827.96	4286.4	
828.13	4413.4	
828.3	3152.5	
828.47	2711.5	
828.65	4723.3	
828.82	4623.6	
828.99	3946.4	
829.16	3415.3	
829.34	4943.8	
829.51	4797.7	
829.68	3213.9	
829.85	3278.1	
830.02	5221	
830.2	4954.7	
830.37	2575	
830.54	3809.2	
830.71	5461.2	
830.88	4449.6	
831.05	2592	
831.23	2959.3	
831.4	5345.9	
831.57	5784.1	
831.74	3039.2	
831.91	2730.6	
832.09	4765.6	
832.26	4898.7	
832.43	3086.3	
832.6	3472.7	
832.77	4631.8	
832.94	5165	
833.12	2569.5	
833.29	3102.7	
833.46	4790.2	
833.63	5954.1	
833.8	3333.4	
833.97	3099.3	
834.15	4962.9	
834.32	4779.3	
834.49	3244.7	
834.66	3295.9	
834.83	5079.6	
835	4261.1	
835.17	3011.9	
835.35	3026.2	
835.52	4864.6	
835.69	4730.8	
835.86	3166.2	
836.03	2603	
836.2	4901.5	
836.37	4590.9	
836.55	3081.5	
836.72	2847.4	
836.89	4589.5	
837.06	5008.6	
837.23	3157.3	
837.4	3386	
837.57	5580.7	
837.75	5974.6	
837.92	2853.5	
838.09	3018.7	
838.26	4621.6	
838.43	5085.8	
838.6	3261.7	
838.77	2964.8	
838.94	5706.3	
839.11	5535.7	
839.29	3113.6	
839.46	2518.3	
839.63	4924	
839.8	4702.8	
839.97	3024.8	
840.14	3020.8	
840.31	4831.2	
840.48	4891.9	
840.65	2575.7	
840.82	2937.5	
841	4860.5	
841.17	4746.5	
841.34	2809.1	
841.51	2916.3	
841.68	4859.8	
841.85	4644.1	
842.02	2906.1	
842.19	2462.3	
842.36	4743.1	
842.53	4719.2	
842.7	2777.7	
842.87	3345	
843.05	5936.4	
843.22	4630.5	
843.39	2676.7	
843.56	2897.9	
843.73	4592.9	
843.9	5010	
844.07	4315.1	
844.24	3650.2	
844.41	6657.9	
844.58	4318.5	
844.75	2735.4	
844.92	2917	
845.09	4892.6	
845.26	4801.8	
845.43	2792.1	
845.6	2942.2	
845.77	4951.3	
845.94	4696	
846.12	3054.2	
846.29	3208.5	
846.46	5117.9	
846.63	4840	
846.8	2813.2	
846.97	3250.8	
847.14	5246.9	
847.31	4840	
847.48	3148.4	
847.65	3388	
847.82	5099.4	
847.99	4997.7	
848.16	3617.4	
848.33	3322.5	
848.5	4551.3	
848.67	5226.4	
848.84	2741.5	
849.01	2899.2	
849.18	4485.7	
849.35	4281.6	
849.52	3401	
849.69	2769.5	
849.86	5044.1	
850.03	5093.3	
850.2	2839.8	
850.37	3286.3	
850.54	5145.9	
850.71	4644.1	
850.88	3338.2	
851.05	2730.6	
851.22	4756.1	
851.39	5207.3	
851.56	2581.8	
851.73	3155.2	
851.9	4371.7	
852.07	5072.8	
852.24	3105.4	
852.41	2735.4	
852.58	4821.6	
852.75	4370.4	
852.92	3107.5	
853.09	2703.3	
853.26	4547.9	
853.43	5268.1	
853.6	2796.8	
853.77	2426.8	
853.94	5319.9	
854.11	4358.1	
854.28	3971.7	
854.44	2997.5	
854.61	5580.7	
854.78	5057.1	
854.95	2719	
855.12	3370.3	
855.29	4055.7	
855.46	5422.3	
855.63	2791.4	
855.8	3745.7	
855.97	4560.1	
856.14	5074.9	
856.31	3889.8	
856.48	2990	
856.65	4598.4	
856.82	4304.1	
856.99	2690.3	
857.16	3010.5	
857.33	5700.9	
857.49	4650.9	
857.66	2983.2	
857.83	3176.4	
858	4653.7	
858.17	4817.5	
858.34	2664.4	
858.51	2803	
858.68	5292	
858.85	5317.2	
859.02	3166.8	
859.19	3375.7	
859.36	4386.1	
859.52	4380.6	
859.69	2802.3	
859.86	3252.2	
860.03	4425	
860.2	5315.8	
860.37	2572.9	
860.54	2817.3	
860.71	5018.9	
860.88	5310.4	
861.05	3134.8	
861.21	3481.5	
861.38	5335.6	
861.55	4199.7	
861.72	2580.4	
861.89	3098.6	
862.06	5057.8	
862.23	5395.7	
862.4	2723.8	
862.56	2850.8	
862.73	4917.9	
862.9	4693.3	
863.07	3223.5	
863.24	2606.4	
863.41	4324.6	
863.58	4362.9	
863.75	2792.7	
863.91	3169.6	
864.08	5202.5	
864.25	4965	
864.42	3434.4	
864.59	3734.8	
864.76	5518.6	
864.93	4290.5	
865.09	2717.7	
865.26	2939.5	
865.43	5223	
865.6	5509.7	
865.77	2486.9	
865.94	2728.6	
866.1	5223.7	
866.27	4952.7	
866.44	4067.9	
866.61	2700.6	
866.78	4682.3	
866.95	4910.3	
867.11	2702.6	
867.28	2509.4	
867.45	5141.1	
867.62	4386.1	
867.79	3164.1	
867.96	2736.8	
868.12	4348.5	
868.29	5040.7	
868.46	2801.6	
868.63	3627.6	
868.8	5117.9	
868.97	4952	
869.13	2871.9	
869.3	2889	
869.47	4913.1	
869.64	5053	
869.81	2840.5	
869.97	2806.4	
870.14	4852.3	
870.31	5314.5	
870.48	2719	
870.65	3445.4	
870.81	4666.6	
870.98	4713.1	
871.15	3014.6	
871.32	2924.5	
871.48	4965	
871.65	5331.5	
871.82	2750.4	
871.99	3039.9	
872.16	5642.8	
872.32	5197.1	
872.49	2826.9	
872.66	2871.3	
872.83	5081.7	
872.99	4504.2	
873.16	3150.5	
873.33	2769.5	
873.5	4724	
873.67	4774.5	
873.83	2985.3	
874	3628.3	
874.17	4818.9	
874.34	5613.5	
874.5	3523.2	
874.67	3367.5	
874.84	5261.2	
875.01	4227	
875.17	3787.4	
875.34	2725.2	
875.51	4825	
875.68	5682.4	
875.84	3277.4	
876.01	3922.5	
876.18	4980	
876.34	4955.4	
876.51	2803	
876.68	2807.8	
876.85	4577.2	
877.01	5184.1	
877.18	3807.2	
877.35	2752.5	
877.52	4833.2	
877.68	4285.7	
877.85	2710.8	
878.02	2760.7	
878.18	4601.8	
878.35	4509.6	
878.52	2304.6	
878.69	3066.5	
878.85	5102.9	
879.02	4986.1	
879.19	3861.1	
879.35	2991.4	
879.52	4984.8	
879.69	5096	
879.86	2396.1	
880.02	3093.8	
880.19	4755.4	
880.36	5606.7	
880.52	3166.2	
880.69	3240.6	
880.86	5090.6	
881.02	5113.8	
881.19	3046	
881.36	2969.6	
881.52	4993.6	
881.69	4466.6	
881.86	2977.1	
882.02	2922.5	
882.19	5185.5	
882.36	5886.5	
882.52	2860.3	
882.69	3755.3	
882.86	4828.4	
883.02	4782.7	
883.19	3320.4	
883.36	3145	
883.52	5096	
883.69	5688.6	
883.86	2856.2	
884.02	2562.7	
884.19	5059.2	
884.36	4717.2	
884.52	3132	
884.69	2937.5	
884.86	4521.9	
885.02	5418.9	
885.19	3037.1	
885.36	3125.2	
885.52	4688.5	
885.69	4941.7	
885.86	3905.5	
886.02	3494.5	
886.19	5059.8	
886.35	4521.2	
886.52	3027.6	
886.69	3697.3	
886.85	4382.7	
887.02	5275.6	
887.19	5275.6	
887.35	5275.6	
887.52	5275.6	
887.68	5275.6	
887.85	5275.6	
888.02	5275.6	
888.18	5275.6	
888.35	5275.6	
888.51	5275.6	
888.68	5275.6	
888.85	5275.6	
889.01	5275.6	
889.18	5275.6	
889.35	5275.6	
889.51	5275.6	
889.68	5275.6	
889.84	5275.6	
890.01	5275.6	
890.17	5275.6	
890.34	5275.6	
890.51	5275.6	
890.67	5275.6	
890.84	5275.6	
891	5275.6	
891.17	5275.6	
891.34	5275.6	
891.5	5275.6	
891.67	5275.6	
891.83	5275.6	
892	5275.6	
892.16	5275.6	
892.33	5275.6	
892.5	5275.6	
892.66	5275.6	
892.83	5275.6	
892.99	5275.6	
893.16	5275.6	
893.32	5275.6	
893.49	5275.6	
893.65	5275.6	
893.82	5275.6	
893.99	5275.6	
894.15	5275.6	
894.32	5275.6	
894.48	5275.6	
894.65	5275.6	
894.81	5275.6	
894.98	5275.6	
895.14	5275.6	
895.31	5275.6	
895.47	5275.6	
895.64	5275.6	
895.81	5275.6	
895.97	5275.6	
896.14	5275.6	
896.3	5275.6	
896.47	5275.6	
896.63	5275.6	
896.8	5275.6	
896.96	5275.6	
897.13	5275.6	
897.29	5275.6	
897.46	5275.6	
897.62	5275.6	
897.79	5275.6	
897.95	5275.6	
898.12	5275.6	
898.28	5275.6	
898.45	5275.6	
898.61	5275.6	
898.78	5275.6	
898.94	5275.6	
899.11	5275.6	
899.27	5275.6	
899.44	5275.6	
899.6	5275.6	
899.77	5275.6	
899.93	5275.6	
900.1	5275.6	
900.26	5275.6	
900.43	5275.6	
900.59	5275.6	
900.76	5275.6	
900.92	5275.6	
901.09	5275.6	
901.25	5275.6	
901.42	5275.6	
901.58	5275.6	
901.75	5275.6	
901.91	5275.6	
902.07	5275.6	
902.24	5275.6	
902.4	5275.6	
902.57	5275.6	
902.73	5275.6	
902.9	5275.6	
903.06	5275.6	
903.23	5275.6	
903.39	5275.6	
903.56	5275.6	
903.72	5275.6	
903.88	5275.6	
904.05	5275.6	
904.21	5275.6	
904.38	5275.6	
904.54	5275.6	
904.71	5275.6	
904.87	5275.6	
905.03	5275.6	
905.2	5275.6	
905.36	5275.6	
905.53	5275.6	
905.69	5275.6	
905.86	5275.6	
906.02	5275.6	
906.18	5275.6	
906.35	5275.6	
906.51	5275.6	
906.68	5275.6	
906.84	5275.6	
907.01	5275.6	
907.17	5275.6	
907.33	5275.6	
907.5	5275.6	
907.66	5275.6	
907.83	5275.6	
907.99	5275.6	
908.15	5275.6	
908.32	5275.6	
908.48	5275.6	
908.65	5275.6	
908.81	5275.6	
908.97	5275.6	
909.14	5275.6	
909.3	5275.6	
909.47	5275.6	
909.63	5275.6	
909.79	5275.6	
909.96	5275.6	
910.12	5275.6	
910.28	5275.6	
910.45	5275.6	
910.61	5275.6	
910.78	5275.6	
910.94	5275.6	
911.1	5275.6	
911.27	5275.6	
911.43	5275.6	
911.59	5275.6	
911.76	5275.6	
911.92	5275.6	
912.08	5275.6	
912.25	5275.6	
912.41	5275.6	
912.57	5275.6	
912.74	5275.6	
912.9	5275.6	
913.07	5275.6	
913.23	5275.6	
913.39	5275.6	
913.56	5275.6	
913.72	5275.6	
913.88	5275.6	
914.05	5275.6	
914.21	5275.6	
914.37	5275.6	
914.54	5275.6	
914.7	5275.6	
914.86	5275.6	
915.03	5275.6	
915.19	5275.6	
