Wavelength	Intensities	
nm	a.u.	
179.22	1780.4	
179.44	1787.2	
179.65	1773.5	
179.86	1800.8	
180.08	1790.6	
180.29	4364.9	
180.51	3186.6	
180.72	5180	
180.94	5961.6	
181.15	2949.1	
181.37	2942.2	
181.58	5069.4	
181.79	5403.9	
182.01	3066.5	
182.22	3234.4	
182.44	5328.8	
182.65	4551.3	
182.87	4050.2	
183.08	3573	
183.29	5581.4	
183.51	4660.5	
183.72	3286.3	
183.94	4607.9	
184.15	5032.5	
184.37	4984.8	
184.58	2925.9	
184.79	3908.2	
185.01	4659.8	
185.22	5383.4	
185.44	4080.9	
185.65	3478.1	
185.86	4980.7	
186.08	4573.1	
186.29	2852.8	
186.51	3093.1	
186.72	4735.6	
186.94	5394.3	
187.15	3454.9	
187.36	3591.5	
187.58	6924.9	
187.79	5071.5	
188.01	3652.9	
188.22	5687.2	
188.43	6041.5	
188.65	5309.7	
188.86	3052.8	
189.08	3567.6	
189.29	4857.8	
189.5	4837.3	
189.72	3302.7	
189.93	3390.1	
190.15	5457.8	
190.36	6417	
190.57	3635.8	
190.79	3549.8	
191	5555.5	
191.22	5516.5	
191.43	3682.9	
191.64	3094.5	
191.86	5733.6	
192.07	5480.4	
192.29	3147.7	
192.5	3305.4	
192.71	5556.1	
192.93	4761.5	
193.14	3310.9	
193.35	3403	
193.57	4804.5	
193.78	5518.6	
194	2707.4	
194.21	3252.2	
194.42	4612.7	
194.64	5046.2	
194.85	3575.8	
195.07	4127.3	
195.28	5017.5	
195.49	4406.5	
195.71	4358.1	
195.92	3104.7	
196.13	5192.3	
196.35	5233.2	
196.56	4639.3	
196.78	3610.6	
196.99	6429.9	
197.2	5941.8	
197.42	3998.3	
197.63	3648.8	
197.84	4536.9	
198.06	5172.5	
198.27	3323.2	
198.48	4398.4	
198.7	4798.4	
198.91	5000.5	
199.13	3563.5	
199.34	3607.8	
199.55	5402.5	
199.77	4347.8	
199.98	3209.8	
200.19	3684.3	
200.41	4968.4	
200.62	4716.5	
200.83	3758	
201.05	4014.7	
201.26	4940.4	
201.47	4670.7	
201.69	3190.7	
201.9	3117.7	
202.11	5014.8	
202.33	5842.2	
202.54	3426.9	
202.76	3807.2	
202.97	5078.3	
203.18	5147.9	
203.4	3765.5	
203.61	3678.8	
203.82	5081.7	
204.04	4802.5	
204.25	3697.3	
204.46	3561.4	
204.68	5005.9	
204.89	5216.9	
205.1	3604.4	
205.32	3123.8	
205.53	5368.4	
205.74	5472.2	
205.96	2613.9	
206.17	3635.8	
206.38	5300.1	
206.6	5496.7	
206.81	4133.5	
207.02	3406.5	
207.24	5295.4	
207.45	5558.9	
207.66	3418.7	
207.88	2986.6	
208.09	5150	
208.3	4983.4	
208.52	3168.2	
208.73	3491.8	
208.94	5032.5	
209.15	5619.6	
209.37	3447.4	
209.58	3949.8	
209.79	5474.2	
210.01	4835.9	
210.22	2861.7	
210.43	2934.1	
210.65	5047.6	
210.86	5392.3	
211.07	3464.5	
211.29	3213.9	
211.5	5314.5	
211.71	4919.2	
211.93	3173	
212.14	3171.6	
212.35	4985.4	
212.56	5098.8	
212.78	3662.5	
212.99	3028.9	
213.2	5842.2	
213.42	4803.2	
213.63	3274	
213.84	3521.8	
214.06	4491.2	
214.27	4615.4	
214.48	3439.9	
214.69	3620.8	
214.91	5588.9	
215.12	5671.5	
215.33	3697.3	
215.55	4017.4	
215.76	6047.7	
215.97	5301.5	
216.18	3553.2	
216.4	3519.8	
216.61	4710.3	
216.82	5471.5	
217.04	3220.1	
217.25	3317	
217.46	5562.3	
217.67	5345.2	
217.89	2863.7	
218.1	3046.7	
218.31	5039.4	
218.53	5186.1	
218.74	3378.5	
218.95	3250.8	
219.16	5001.1	
219.38	5823.1	
219.59	3269.2	
219.8	3846.8	
220.01	6326.9	
220.23	5065.3	
220.44	4200.4	
220.65	3123.8	
220.87	5145.9	
221.08	5548.6	
221.29	2999.6	
221.5	3901.4	
221.72	6737.8	
221.93	4743.8	
222.14	3590.1	
222.35	4248.2	
222.57	5085.8	
222.78	5382.7	
222.99	3477.5	
223.2	3724.6	
223.42	5264.6	
223.63	5387.5	
223.84	2707.4	
224.05	2734	
224.27	6268.1	
224.48	5784.8	
224.69	4238.6	
224.9	3630.4	
225.12	5238	
225.33	5004.6	
225.54	2925.9	
225.75	3238.5	
225.97	4681.7	
226.18	4986.8	
226.39	3470.6	
226.6	3263.8	
226.82	4820.2	
227.03	4695.3	
227.24	3605.1	
227.45	3062.4	
227.67	5356.1	
227.88	5810.8	
228.09	4007.2	
228.3	4083	
228.52	5368.4	
228.73	4909	
228.94	3352.5	
229.15	3033	
229.36	4988.2	
229.58	4927.4	
229.79	3430.3	
230	3911.6	
230.21	5898.8	
230.43	5052.3	
230.64	3571.7	
230.85	3752.6	
231.06	5452.4	
231.28	5412.8	
231.49	2976.4	
231.7	3551.9	
231.91	5318.6	
232.12	4996.4	
232.34	3089.7	
232.55	3509.5	
232.76	5620.3	
232.97	5114.5	
233.18	3174.4	
233.4	3633.8	
233.61	5181.4	
233.82	4822.3	
234.03	3343.7	
234.25	3291.8	
234.46	6771.3	
234.67	5126.7	
234.88	3673.4	
235.09	3235.1	
235.31	5250.3	
235.52	4934.9	
235.73	3573	
235.94	3063.8	
236.15	4817.5	
236.37	5992.4	
236.58	3190.1	
236.79	3488.4	
237	5348.6	
237.21	4545.1	
237.43	3702	
237.64	2948.4	
237.85	8585.8	
238.06	4642.1	
238.27	3809.2	
238.48	3088.3	
238.7	5313.8	
238.91	4882.4	
239.12	3461.7	
239.33	3505.4	
239.54	4691.2	
239.76	4889.2	
239.97	3476.8	
240.18	3487	
240.39	6059.9	
240.6	5258.5	
240.82	3618.8	
241.03	2977.7	
241.24	5008	
241.45	5677.7	
241.66	3192.8	
241.87	3742.3	
242.09	5668.8	
242.3	5920	
242.51	3789.4	
242.72	3467.2	
242.93	5364.3	
243.14	4956.1	
243.36	3984.7	
243.57	4280.9	
243.78	5788.9	
243.99	5339.1	
244.2	3461.7	
244.41	3163.4	
244.63	4614.1	
244.84	5234.6	
245.05	3737.5	
245.26	3463.8	
245.47	5289.9	
245.68	5459.9	
245.9	4543.8	
246.11	3639.2	
246.32	4844.1	
246.53	5253.7	
246.74	5496.7	
246.95	2958.6	
247.16	4668.7	
247.38	5049.6	
247.59	2967.5	
247.8	3478.8	
248.01	4745.8	
248.22	4953.4	
248.43	3235.1	
248.64	3412.6	
248.86	4526	
249.07	4870.8	
249.28	3081.5	
249.49	3524.6	
249.7	5474.9	
249.91	5588.2	
250.12	2896.5	
250.34	3001.6	
250.55	5160.2	
250.76	5042.8	
250.97	3573.7	
251.18	3625.6	
251.39	5540.4	
251.6	5196.4	
251.81	3652.2	
252.03	3581.9	
252.24	4818.2	
252.45	5457.8	
252.66	3121.8	
252.87	3785.3	
253.08	4995.7	
253.29	6435.4	
253.5	3094.5	
253.72	4177.2	
253.93	4875.5	
254.14	5843.5	
254.35	3332.7	
254.56	3416.7	
254.77	5259.2	
254.98	4669.4	
255.19	3272	
255.41	4137.6	
255.62	5078.3	
255.83	5559.6	
256.04	3734.8	
256.25	3656.3	
256.46	6077	
256.67	4741.7	
256.88	3593.5	
257.09	3946.4	
257.31	4741.7	
257.52	4795	
257.73	4471.4	
257.94	3292.5	
258.15	4953.4	
258.36	5040.1	
258.57	4137.6	
258.78	2691	
258.99	5409.4	
259.2	4924	
259.41	3312.9	
259.63	3495.9	
259.84	5714.5	
260.05	6113.9	
260.26	4261.1	
260.47	3279.5	
260.68	5447.6	
260.89	4939	
261.1	3965.6	
261.31	3210.5	
261.52	5575.3	
261.73	5838.8	
261.95	4236.6	
262.16	3776.5	
262.37	5666.7	
262.58	5719.3	
262.79	4200.4	
263	3413.3	
263.21	5086.5	
263.42	4872.8	
263.63	3462.4	
263.84	3360	
264.05	5496.7	
264.26	5768.4	
264.47	4142.4	
264.69	3770.3	
264.9	5623.7	
265.11	5201.8	
265.32	3268.6	
265.53	3314.3	
265.74	5143.8	
265.95	4549.2	
266.16	3568.2	
266.37	3863.2	
266.58	5142.4	
266.79	4844.1	
267	3299.3	
267.21	3009.1	
267.42	4640	
267.63	5040.1	
267.84	3457.7	
268.06	3005.1	
268.27	5399.1	
268.48	5702.9	
268.69	3390.1	
268.9	3945.8	
269.11	5640.8	
269.32	4593.6	
269.53	3497.9	
269.74	3229.6	
269.95	5261.2	
270.16	4455	
270.37	3514.3	
270.58	4059.8	
270.79	4909	
271	5488.6	
271.21	3652.9	
271.42	3560.1	
271.63	5171.8	
271.84	4644.8	
272.05	2819.4	
272.26	3171.6	
272.47	4972.5	
272.68	5240.1	
272.89	3341.6	
273.11	3815.4	
273.32	4842.1	
273.53	5797.8	
273.74	3732.8	
273.95	3635.1	
274.16	5542.5	
274.37	5080.3	
274.58	3822.9	
274.79	3059.7	
275	5187.5	
275.21	5561.6	
275.42	4482.3	
275.63	3832.4	
275.84	5293.3	
276.05	6481.8	
276.26	3616.7	
276.47	3498.6	
276.68	4980	
276.89	5906.3	
277.1	3850.9	
277.31	2994.1	
277.52	5244.8	
277.73	5460.6	
277.94	3028.3	
278.15	3387.3	
278.36	5186.1	
278.57	4738.3	
278.78	3313.6	
278.99	3733.4	
279.2	4755.4	
279.41	4688.5	
279.62	4344.4	
279.83	3123.2	
280.04	6052.4	
280.25	4646.8	
280.46	4326.7	
280.67	3506.1	
280.88	4725.3	
281.09	5552.7	
281.3	3635.8	
281.51	4567	
281.72	4752.7	
281.93	5427.8	
282.14	3289	
282.35	3464.5	
282.56	5431.2	
282.77	5382.1	
282.98	3409.2	
283.19	4052.9	
283.4	6591	
283.61	4934.9	
283.82	3104.7	
284.03	4263.9	
284.24	5159.5	
284.45	5547.9	
284.66	4288.4	
284.87	4059.8	
285.08	5551.4	
285.29	5641.5	
285.5	2994.1	
285.71	3398.3	
285.92	5548.6	
286.12	6041.5	
286.33	4233.8	
286.54	3424.9	
286.75	5383.4	
286.96	4947.9	
287.17	3177.1	
287.38	4132.1	
287.59	4730.1	
287.8	4728.1	
288.01	3392.1	
288.22	3912.3	
288.43	5455.8	
288.64	4584.7	
288.85	4026.3	
289.06	3852.9	
289.27	5579.3	
289.48	5770.5	
289.69	4286.4	
289.9	3855	
290.11	5599.8	
290.32	4799.8	
290.53	4081.6	
290.74	3738.2	
290.94	5359.5	
291.15	5498.8	
291.36	3309.5	
291.57	3874.8	
291.78	4872.1	
291.99	4523.3	
292.2	3162.1	
292.41	3751.9	
292.62	5459.9	
292.83	5302.9	
293.04	4568.3	
293.25	3177.1	
293.46	4872.8	
293.67	5531.6	
293.88	3294.5	
294.09	3166.8	
294.29	4711	
294.5	5134.9	
294.71	3502.7	
294.92	3375.7	
295.13	4834.6	
295.34	6016.2	
295.55	2968.2	
295.76	2960	
295.97	5382.7	
296.18	5987.6	
296.39	3121.1	
296.6	3289.7	
296.81	5117.9	
297.01	5356.8	
297.22	3446	
297.43	3288.4	
297.64	4764.3	
297.85	4697.4	
298.06	2772.9	
298.27	2958.6	
298.48	5010.7	
298.69	4767	
298.9	3531.4	
299.11	3235.8	
299.31	4648.9	
299.52	4644.1	
299.73	3784	
299.94	3673.4	
300.15	5016.2	
300.36	4767	
300.57	3687.7	
300.78	3690.4	
300.99	4908.3	
301.2	5117.2	
301.4	3292.5	
301.61	3559.4	
301.82	5356.8	
302.03	5324	
302.24	3908.2	
302.45	3130.7	
302.66	5239.4	
302.87	5580	
303.08	3261	
303.29	4437.9	
303.49	4918.5	
303.7	5052.3	
303.91	2955.2	
304.12	4189.5	
304.33	4564.2	
304.54	5126.1	
304.75	3324.5	
304.96	3199.6	
305.16	5313.1	
305.37	5937.7	
305.58	2925.9	
305.79	3005.1	
306	5327.4	
306.21	4502.8	
306.42	3270.6	
306.63	4881.7	
306.83	4878.9	
307.04	5517.9	
307.25	3571.7	
307.46	3595.6	
307.67	4440	
307.88	5362.3	
308.09	3278.8	
308.29	3353.9	
308.5	5105.6	
308.71	5484.5	
308.92	3508.9	
309.13	3201	
309.34	4958.8	
309.55	4953.4	
309.75	4023.6	
309.96	3757.3	
310.17	5342.5	
310.38	4749.9	
310.59	3812.6	
310.8	3049.4	
311.01	4852.3	
311.21	4939.7	
311.42	3110.9	
311.63	3241.3	
311.84	4868.7	
312.05	5101.5	
312.26	3639.2	
312.46	4020.2	
312.67	4948.6	
312.88	4618.9	
313.09	3171.6	
313.3	3117.7	
313.51	5746.6	
313.71	6046.3	
313.92	3213.3	
314.13	3313.6	
314.34	5267.4	
314.55	4995	
314.76	3977.2	
314.96	3493.2	
315.17	5132.2	
315.38	5351.3	
315.59	3248.1	
315.8	3072.6	
316.01	5763.7	
316.21	5879.7	
316.42	3128.6	
316.63	3553.9	
316.84	4878.9	
317.05	5589.6	
317.26	3679.5	
317.46	3378.5	
317.67	4943.1	
317.88	5378.6	
318.09	4011.3	
318.3	2988.7	
318.5	4838	
318.71	5275.6	
318.92	5035.3	
319.13	3764.2	
319.34	5395.7	
319.54	5569.1	
319.75	2923.8	
319.96	2889.7	
320.17	5321.3	
320.38	5484.5	
320.58	2924.5	
320.79	3530	
321	5522.7	
321.21	5571.8	
321.42	3487.7	
321.62	2925.9	
321.83	4774.5	
322.04	5079	
322.25	3379.8	
322.46	3241.9	
322.66	5099.4	
322.87	5300.8	
323.08	3958.7	
323.29	3138.2	
323.5	5973.9	
323.7	4633.9	
323.91	4238.6	
324.12	3836.5	
324.33	5112.4	
324.53	5261.2	
324.74	3727.3	
324.95	3928	
325.16	4566.3	
325.37	4830.5	
325.57	3204.4	
325.78	3285.6	
325.99	5161.6	
326.2	4625.7	
326.4	4442	
326.61	2925.2	
326.82	4969.7	
327.03	5139.7	
327.24	4421.6	
327.44	4175.1	
327.65	5275.6	
327.86	4367	
328.07	3750.5	
328.27	3069.2	
328.48	5688.6	
328.69	4657.1	
328.9	4543.1	
329.1	3375.1	
329.31	4930.1	
329.52	5722	
329.73	3177.8	
329.93	3559.4	
330.14	5059.8	
330.35	5238	
330.56	5055.1	
330.76	3882.3	
330.97	4861.9	
331.18	5134.3	
331.39	3487.7	
331.59	2918.4	
331.8	5539.8	
332.01	5636	
332.22	3288.4	
332.42	3686.3	
332.63	5151.3	
332.84	4809.3	
333.05	3602.4	
333.25	3184.6	
333.46	4837.3	
333.67	5036	
333.88	3302	
334.08	3620.8	
334.29	6744.6	
334.5	5615.5	
334.7	3082.9	
334.91	4429.1	
335.12	4653.7	
335.33	5429.2	
335.53	3518.4	
335.74	5019.6	
335.95	4913.8	
336.16	4675.5	
336.36	3467.2	
336.57	4027.7	
336.78	4618.9	
336.98	5536.3	
337.19	4314.4	
337.4	3470.6	
337.61	5971.2	
337.81	4640.7	
338.02	3286.3	
338.23	4155.3	
338.43	5670.8	
338.64	4771.1	
338.85	3238.5	
339.05	4177.2	
339.26	5768.4	
339.47	4562.2	
339.68	3232.4	
339.88	4625	
340.09	5228.5	
340.3	5492	
340.5	3728.7	
340.71	2883.5	
340.92	4611.3	
341.13	5635.3	
341.33	3059.7	
341.54	3692.5	
341.75	5219.6	
341.95	4844.1	
342.16	3565.5	
342.37	3865.9	
342.57	4652.3	
342.78	4991.6	
342.99	3956	
343.19	2930	
343.4	5395.7	
343.61	5294.7	
343.81	3424.9	
344.02	3130.7	
344.23	5397.1	
344.43	5774.6	
344.64	3964.9	
344.85	3869.3	
345.06	5270.1	
345.26	5536.3	
345.47	3646.1	
345.68	4191.5	
345.88	4497.3	
346.09	5442.8	
346.3	3794.9	
346.5	2853.5	
346.71	5012.7	
346.92	4799.8	
347.12	2992.8	
347.33	3693.9	
347.54	5536.3	
347.74	5849.7	
347.95	3700.7	
348.16	2746.3	
348.36	4866.7	
348.57	4761.5	
348.78	3661.1	
348.98	3890.5	
349.19	4988.2	
349.39	4603.2	
349.6	3001	
349.81	3252.9	
350.01	5296.7	
350.22	4814.1	
350.43	3511.6	
350.63	4246.8	
350.84	5115.8	
351.05	4868.7	
351.25	3304.1	
351.46	2933.4	
351.67	5535	
351.87	4737.6	
352.08	3430.3	
352.29	3851.5	
352.49	5475.6	
352.7	5544.5	
352.9	3168.9	
353.11	3881.6	
353.32	5984.2	
353.52	4958.8	
353.73	3106.1	
353.94	3982.6	
354.14	5369.1	
354.35	5208.7	
354.55	3216.7	
354.76	3544.4	
354.97	5305.6	
355.17	5138.4	
355.38	3125.2	
355.59	4192.2	
355.79	4832.5	
356	5160.9	
356.2	3641.3	
356.41	3136.1	
356.62	4628.4	
356.82	5051	
357.03	3857.7	
357.24	3466.5	
357.44	4812	
357.65	4930.1	
357.85	4552	
358.06	3644	
358.27	4612	
358.47	4775.2	
358.68	3095.2	
358.88	3940.3	
359.09	5391.6	
359.3	5708.4	
359.5	4406.5	
359.71	4008.6	
359.91	6043.6	
360.12	5524.1	
360.33	3932.1	
360.53	4300.1	
360.74	4939.7	
360.94	4994.3	
361.15	4014.7	
361.36	3377.8	
361.56	5648.3	
361.77	5188.9	
361.97	4549.2	
362.18	3595.6	
362.38	5682.4	
362.59	4816.1	
362.8	3415.3	
363	3232.4	
363.21	4715.8	
363.41	5240.8	
363.62	3831.7	
363.83	4692.6	
364.03	5410.1	
364.24	6127.5	
364.44	4876.9	
364.65	4768.4	
364.85	5178.6	
365.06	4887.8	
365.27	3614	
365.47	3641.3	
365.68	5980.8	
365.88	5141.1	
366.09	3943	
366.29	3664.5	
366.5	5374.6	
366.71	5806.7	
366.91	4787.5	
367.12	4160.1	
367.32	6326.9	
367.53	5659.2	
367.73	4096.6	
367.94	4928.1	
368.14	5687.9	
368.35	6306.4	
368.56	4080.9	
368.76	3661.8	
368.97	5667.4	
369.17	7052.5	
369.38	3629.7	
369.58	3917.8	
369.79	4931.5	
369.99	6006.7	
370.2	4717.8	
370.4	3907.5	
370.61	5477.6	
370.82	6513.9	
371.02	3887.7	
371.23	3297.2	
371.43	4870.8	
371.64	6006.7	
371.84	3998.3	
372.05	4945.2	
372.25	7145.4	
372.46	5821	
372.66	3993.5	
372.87	3973.1	
373.07	5911.8	
373.28	7229.3	
373.48	4871.4	
373.69	4629.1	
373.9	5511.8	
374.1	5539.1	
374.31	4893.3	
374.51	4474.1	
374.72	6256.5	
374.92	5244.2	
375.13	5073.5	
375.33	4379.9	
375.54	5911.1	
375.74	5417.6	
375.95	4530.8	
376.15	5530.9	
376.36	6002.6	
376.56	5821.7	
376.77	4615.4	
376.97	4960.2	
377.18	6997.2	
377.38	6216.3	
377.59	5272.2	
377.79	4225	
378	6044.9	
378.2	6336.4	
378.41	4393.6	
378.61	4268.6	
378.82	6468.2	
379.02	5687.9	
379.23	4562.9	
379.43	5380	
379.64	6558.3	
379.84	6210.8	
380.05	4392.9	
380.25	4245.4	
380.46	6300.2	
380.66	5894.7	
380.87	5534.3	
381.07	5779.4	
381.28	6822.5	
381.48	6256.5	
381.69	4399.7	
381.89	4387.4	
382.1	5307.7	
382.3	6323.4	
382.51	5300.8	
382.71	6079.1	
382.91	6215.6	
383.12	6681.2	
383.32	4651.6	
383.53	4782	
383.73	6030.6	
383.94	5892	
384.14	4790.2	
384.35	3980.6	
384.55	5851.7	
384.76	6236.1	
384.96	4613.4	
385.17	4882.4	
385.37	6196.5	
385.58	5509.7	
385.78	4780	
385.98	3889.8	
386.19	5748	
386.39	6084.5	
386.6	4446.8	
386.8	4624.3	
387.01	6287.9	
387.21	6268.1	
387.42	4994.3	
387.62	5495.4	
387.83	5677.7	
388.03	6268.1	
388.23	4783.4	
388.44	5457.8	
388.64	5575.3	
388.85	5707	
389.05	5243.5	
389.26	5726.1	
389.46	7223.2	
389.67	6918.7	
389.87	5218.2	
390.07	5272.8	
390.28	6159.6	
390.48	5741.1	
390.69	4551.3	
390.89	4799.8	
391.1	5993.7	
391.3	6763.1	
391.5	5876.3	
391.71	6382.2	
391.91	6619.7	
392.12	7506.5	
392.32	5980.8	
392.53	5312.4	
392.73	6039.5	
392.93	6184.9	
393.14	5006.6	
393.34	5619.6	
393.55	6548.7	
393.75	6125.5	
393.95	4831.8	
394.16	4797.7	
394.36	5945.3	
394.57	6449.7	
394.77	4440.7	
394.98	4815.5	
395.18	6001.2	
395.38	6092.7	
395.59	5812.1	
395.79	4896.7	
396	6248.4	
396.2	6771.3	
396.4	5816.9	
396.61	5669.5	
396.81	6897.6	
397.02	6252.4	
397.22	5999.2	
397.42	6041.5	
397.63	7010.2	
397.83	6419	
398.04	5084.4	
398.24	5591.6	
398.44	6731.7	
398.65	5999.2	
398.85	4883	
399.05	5045.5	
399.26	6411.5	
399.46	7875.1	
399.67	5449.6	
399.87	5208	
400.07	6829.3	
400.28	7157	
400.48	5388.2	
400.69	6402	
400.89	7415.7	
401.09	7819.8	
401.3	5449	
401.5	6361	
401.7	8071	
401.91	8260.1	
402.11	5786.9	
402.32	5869.5	
402.52	7516	
402.72	7295.5	
402.93	6028.5	
403.13	4835.3	
403.33	7883.3	
403.54	6571.2	
403.74	5420.3	
403.94	6094.8	
404.15	6567.8	
404.35	7597.3	
404.56	5214.8	
404.76	6864.8	
404.96	7206.8	
405.17	6989.7	
405.37	6567.2	
405.57	5957.5	
405.78	7523.6	
405.98	6886	
406.18	5650.3	
406.39	6318	
406.59	7359.7	
406.79	6899.6	
407	5199.1	
407.2	5285.8	
407.4	7220.5	
407.61	7447.8	
407.81	5416.9	
408.01	7606.2	
408.22	6642.2	
408.42	8430.1	
408.62	6812.2	
408.83	6527.6	
409.03	7637.6	
409.23	7644.4	
409.44	6713.9	
409.64	7066.2	
409.84	8755.7	
410.05	8692.9	
410.25	7189.1	
410.45	6916.7	
410.66	8555.7	
410.86	10508	
411.06	7700.4	
411.27	7438.2	
411.47	10592	
411.67	8732.5	
411.88	7702.4	
412.08	8110.6	
412.28	9469.8	
412.49	9963.4	
412.69	7740	
412.89	7768.6	
413.09	9736.7	
413.3	9729.9	
413.5	8079.2	
413.7	7621.2	
413.91	9090.9	
414.11	9929.9	
414.31	7919.5	
414.52	8369.4	
414.72	9727.2	
414.92	9858.2	
415.12	8008.2	
415.33	8464.3	
415.53	10108	
415.73	10211	
415.94	8808.3	
416.14	8286.8	
416.34	9361.9	
416.55	9048.6	
416.75	9410.4	
416.95	8964	
417.15	10322	
417.36	10768	
417.56	9744.2	
417.76	9041.8	
417.97	10680	
418.17	10550	
418.37	8607.6	
418.57	8874.5	
418.78	10512	
418.98	9972.2	
419.18	9433.6	
419.38	9346.9	
419.59	9978.4	
419.79	9511.4	
419.99	8391.9	
420.2	8772.8	
420.4	10422	
420.6	10449	
420.8	8615.1	
421.01	8423.3	
421.21	10536	
421.41	10548	
421.61	8906.6	
421.82	8598.1	
422.02	9940.2	
422.22	10688	
422.42	9398.1	
422.63	8712.1	
422.83	10019	
423.03	11171	
423.23	8953	
423.44	8021.9	
423.64	10084	
423.84	9639.1	
424.04	8518.2	
424.25	8084	
424.45	10773	
424.65	10628	
424.85	7894.2	
425.06	8492.2	
425.26	10740	
425.46	9727.9	
425.66	8839	
425.87	8549.6	
426.07	10443	
426.27	10200	
426.47	8658.8	
426.67	8011.7	
426.88	10575	
427.08	10123	
427.28	8873.2	
427.48	7961.1	
427.69	9200.2	
427.89	9768.1	
428.09	8901.2	
428.29	8034.9	
428.5	10407	
428.7	10067	
428.9	8037.6	
429.1	8444.5	
429.3	9973.6	
429.51	10378	
429.71	8208.9	
429.91	9095	
430.11	10427	
430.31	10776	
430.52	8766.7	
430.72	9046.6	
430.92	10931	
431.12	10528	
431.32	8556.4	
431.53	8751.7	
431.73	9655.5	
431.93	10929	
432.13	8299.1	
432.33	8458.1	
432.54	10112	
432.74	10457	
432.94	8480	
433.14	9323.7	
433.34	10625	
433.55	10463	
433.75	9228.8	
433.95	11054	
434.15	10600	
434.35	10402	
434.56	8671.1	
434.76	8376.9	
434.96	10697	
435.16	11075	
435.36	8747.6	
435.56	9870.5	
435.77	10561	
435.97	10690	
436.17	10505	
436.37	9897.2	
436.57	10610	
436.78	10705	
436.98	11292	
437.18	10388	
437.38	11372	
437.58	10750	
437.78	10480	
437.99	9235.7	
438.19	10950	
438.39	12248	
438.59	8987.2	
438.79	8387.8	
438.99	11459	
439.2	10387	
439.4	8484.7	
439.6	8600.1	
439.8	10873	
440	11989	
440.2	9986.6	
440.4	10163	
440.61	11839	
440.81	12297	
441.01	9635	
441.21	10558	
441.41	12536	
441.61	11806	
441.81	10812	
442.02	11596	
442.22	12719	
442.42	11983	
442.62	9809.1	
442.82	9645.3	
443.02	12271	
443.22	11710	
443.43	10403	
443.63	9901.9	
443.83	11559	
444.03	11663	
444.23	11224	
444.43	10826	
444.63	12215	
444.83	12996	
445.04	10368	
445.24	11345	
445.44	12207	
445.64	12297	
445.84	10544	
446.04	10607	
446.24	11396	
446.44	12279	
446.65	9680.7	
446.85	10301	
447.05	11193	
447.25	12263	
447.45	10278	
447.65	9765.4	
447.85	11774	
448.05	11234	
448.25	10648	
448.46	10486	
448.66	11682	
448.86	11314	
449.06	9648.7	
449.26	10580	
449.46	12135	
449.66	11340	
449.86	10523	
450.06	10377	
450.26	11602	
450.47	12241	
450.67	10571	
450.87	11003	
451.07	12291	
451.27	12099	
451.47	10068	
451.67	10784	
451.87	11977	
452.07	12623	
452.27	10564	
452.47	10355	
452.67	11927	
452.88	12555	
453.08	9709.4	
453.28	11458	
453.48	13209	
453.68	11783	
453.88	10370	
454.08	10426	
454.28	12532	
454.48	12215	
454.68	11133	
454.88	11422	
455.08	12687	
455.28	12723	
455.48	10258	
455.68	11310	
455.89	13392	
456.09	13152	
456.29	10829	
456.49	11171	
456.69	13364	
456.89	12588	
457.09	11607	
457.29	12148	
457.49	13155	
457.69	13472	
457.89	11844	
458.09	11201	
458.29	13134	
458.49	13923	
458.69	12255	
458.89	11883	
459.09	14239	
459.29	14309	
459.49	11937	
459.69	12706	
459.9	13682	
460.1	13611	
460.3	11635	
460.5	11469	
460.7	13889	
460.9	13603	
461.1	11403	
461.3	12600	
461.5	14774	
461.7	14403	
461.9	12286	
462.1	12509	
462.3	14169	
462.5	14572	
462.7	12396	
462.9	12669	
463.1	15661	
463.3	15672	
463.5	12932	
463.7	14158	
463.9	14838	
464.1	15165	
464.3	13628	
464.5	13502	
464.7	15511	
464.9	15599	
465.1	14830	
465.3	13936	
465.5	15670	
465.7	16135	
465.9	14421	
466.1	13732	
466.3	16106	
466.5	15559	
466.7	15284	
466.9	13972	
467.1	16038	
467.3	16741	
467.5	15455	
467.7	14472	
467.9	17006	
468.1	17869	
468.3	14920	
468.5	15549	
468.7	16253	
468.9	16120	
469.1	14950	
469.3	15541	
469.5	18142	
469.7	16152	
469.9	15055	
470.1	14825	
470.3	16361	
470.5	16417	
470.7	15941	
470.9	14672	
471.1	16285	
471.3	16124	
471.5	14586	
471.69	16126	
471.89	15995	
472.09	15361	
472.29	15175	
472.49	15233	
472.69	15791	
472.89	16374	
473.09	14535	
473.29	14252	
473.49	15740	
473.69	15689	
473.89	15085	
474.09	14528	
474.29	16763	
474.49	16449	
474.69	15189	
474.89	14526	
475.09	15904	
475.29	15894	
475.49	14053	
475.69	14442	
475.88	16879	
476.08	16039	
476.28	14061	
476.48	14104	
476.68	16101	
476.88	15973	
477.08	13906	
477.28	14258	
477.48	15274	
477.68	15963	
477.88	13837	
478.08	14059	
478.28	16546	
478.48	15632	
478.67	14259	
478.87	13453	
479.07	16517	
479.27	15750	
479.47	14350	
479.67	14405	
479.87	16133	
480.07	16647	
480.27	13780	
480.47	15010	
480.67	15883	
480.87	16673	
481.06	14024	
481.26	14792	
481.46	16016	
481.66	15837	
481.86	14478	
482.06	15288	
482.26	15628	
482.46	16235	
482.66	14408	
482.86	13960	
483.05	16193	
483.25	15453	
483.45	16570	
483.65	14508	
483.85	15834	
484.05	16090	
484.25	14949	
484.45	15453	
484.65	16765	
484.84	17067	
485.04	14518	
485.24	14659	
485.44	17318	
485.64	15887	
485.84	14339	
486.04	15354	
486.24	16310	
486.44	16516	
486.63	14283	
486.83	15167	
487.03	16485	
487.23	16781	
487.43	14447	
487.63	16741	
487.83	16953	
488.02	17672	
488.22	15672	
488.42	16349	
488.62	17452	
488.82	16690	
489.02	15188	
489.22	15603	
489.41	17409	
489.61	17344	
489.81	15030	
490.01	15125	
490.21	17547	
490.41	18183	
490.61	15375	
490.8	15272	
491	17318	
491.2	16378	
491.4	15648	
491.6	14741	
491.8	16651	
491.99	16595	
492.19	14498	
492.39	14730	
492.59	17292	
492.79	17365	
492.99	15953	
493.18	15352	
493.38	17708	
493.58	18798	
493.78	16350	
493.98	15928	
494.18	17978	
494.37	17762	
494.57	16907	
494.77	16727	
494.97	18847	
495.17	19127	
495.37	16947	
495.56	17131	
495.76	19534	
495.96	19126	
496.16	18096	
496.36	17318	
496.55	19491	
496.75	19157	
496.95	17611	
497.15	17512	
497.35	19170	
497.54	19284	
497.74	17145	
497.94	18912	
498.14	20309	
498.34	19933	
498.53	17422	
498.73	18094	
498.93	19306	
499.13	19820	
499.33	18177	
499.52	18356	
499.72	20128	
499.92	20192	
500.12	17967	
500.32	18217	
500.51	20242	
500.71	20152	
500.91	18926	
501.11	18341	
501.31	20148	
501.5	20432	
501.7	19127	
501.9	18348	
502.1	19879	
502.29	20280	
502.49	18826	
502.69	18914	
502.89	19903	
503.09	19960	
503.28	17489	
503.48	17480	
503.68	18969	
503.88	19090	
504.07	18283	
504.27	17701	
504.47	19626	
504.67	19435	
504.86	18269	
505.06	17897	
505.26	18994	
505.46	20286	
505.65	17680	
505.85	17536	
506.05	18700	
506.25	19173	
506.44	16685	
506.64	17389	
506.84	18503	
507.04	19119	
507.23	16751	
507.43	17270	
507.63	20098	
507.83	18577	
508.02	17339	
508.22	17008	
508.42	20377	
508.62	18413	
508.81	17078	
509.01	17582	
509.21	18048	
509.4	18422	
509.6	17277	
509.8	17005	
510	18449	
510.19	19819	
510.39	16744	
510.59	16989	
510.79	18504	
510.98	19769	
511.18	17189	
511.38	17283	
511.57	19146	
511.77	19138	
511.97	17572	
512.17	16756	
512.36	18994	
512.56	18708	
512.76	16550	
512.95	16440	
513.15	19164	
513.35	17927	
513.55	17643	
513.74	16666	
513.94	19146	
514.14	18555	
514.33	17586	
514.53	17428	
514.73	18542	
514.92	18665	
515.12	17036	
515.32	16863	
515.51	18897	
515.71	19193	
515.91	18546	
516.11	16991	
516.3	20393	
516.5	18761	
516.7	17475	
516.89	18090	
517.09	18664	
517.29	18644	
517.48	17801	
517.68	17171	
517.88	18356	
518.07	18905	
518.27	17752	
518.47	16790	
518.66	19419	
518.86	18219	
519.06	16597	
519.25	17104	
519.45	18504	
519.65	20134	
519.84	17677	
520.04	18321	
520.24	20321	
520.43	19144	
520.63	17307	
520.83	16830	
521.02	18167	
521.22	18479	
521.42	17023	
521.61	17641	
521.81	18307	
522.01	18342	
522.2	17324	
522.4	17022	
522.6	19136	
522.79	18076	
522.99	17205	
523.18	16972	
523.38	19204	
523.58	19368	
523.77	19013	
523.97	17420	
524.17	21437	
524.36	20808	
524.56	18968	
524.76	18652	
524.95	20056	
525.15	19733	
525.34	18588	
525.54	18712	
525.74	20578	
525.93	19885	
526.13	20082	
526.33	19153	
526.52	21314	
526.72	20786	
526.91	20155	
527.11	19542	
527.31	21401	
527.5	21785	
527.7	19660	
527.89	18987	
528.09	20733	
528.29	21569	
528.48	20252	
528.68	19930	
528.87	21577	
529.07	21422	
529.27	19743	
529.46	19310	
529.66	21318	
529.85	21821	
530.05	19209	
530.25	19863	
530.44	22544	
530.64	20998	
530.83	19402	
531.03	19906	
531.23	21578	
531.42	21532	
531.62	20766	
531.81	20076	
532.01	22294	
532.21	22711	
532.4	20509	
532.6	20971	
532.79	23287	
532.99	22907	
533.18	21132	
533.38	21774	
533.58	22580	
533.77	23049	
533.97	21326	
534.16	21974	
534.36	23550	
534.55	22844	
534.75	22426	
534.95	21533	
535.14	23935	
535.34	23052	
535.53	21095	
535.73	22642	
535.92	23956	
536.12	22691	
536.31	20962	
536.51	21970	
536.71	22842	
536.9	22770	
537.1	21095	
537.29	21444	
537.49	23404	
537.68	22556	
537.88	21638	
538.07	20918	
538.27	23078	
538.46	23880	
538.66	21074	
538.86	21441	
539.05	22955	
539.25	23648	
539.44	21979	
539.64	21223	
539.83	22887	
540.03	23619	
540.22	21071	
540.42	20835	
540.61	22723	
540.81	23038	
541	21143	
541.2	22015	
541.39	22290	
541.59	22666	
541.78	21772	
541.98	20687	
542.18	21876	
542.37	21942	
542.57	20881	
542.76	21421	
542.96	21846	
543.15	22225	
543.35	20560	
543.54	19994	
543.74	22091	
543.93	21819	
544.13	20217	
544.32	21158	
544.52	21906	
544.71	21331	
544.91	19592	
545.1	20479	
545.3	21612	
545.49	22014	
545.69	19454	
545.88	19850	
546.08	22779	
546.27	22232	
546.47	20405	
546.66	19551	
546.86	21921	
547.05	22443	
547.24	19960	
547.44	19882	
547.63	21038	
547.83	22065	
548.02	20084	
548.22	20060	
548.41	20635	
548.61	21816	
548.8	19280	
549	19355	
549.19	21115	
549.39	21583	
549.58	19071	
549.78	19536	
549.97	21334	
550.17	20864	
550.36	19901	
550.55	20790	
550.75	20701	
550.94	21467	
551.14	18931	
551.33	19055	
551.53	20197	
551.72	21131	
551.92	19195	
552.11	18901	
552.31	21005	
552.5	20920	
552.69	20390	
552.89	18554	
553.08	20958	
553.28	20569	
553.47	18817	
553.67	19837	
553.86	21190	
554.06	19799	
554.25	18039	
554.44	18472	
554.64	21592	
554.83	21382	
555.03	18553	
555.22	18826	
555.42	20623	
555.61	20387	
555.8	18546	
556	18681	
556.19	19645	
556.39	20590	
556.58	18551	
556.78	18476	
556.97	20395	
557.16	19965	
557.36	19718	
557.55	18297	
557.75	19323	
557.94	20937	
558.13	18110	
558.33	18092	
558.52	20685	
558.72	19543	
558.91	18102	
559.1	17985	
559.3	19402	
559.49	18890	
559.69	17544	
559.88	18356	
560.07	19815	
560.27	20331	
560.46	18705	
560.66	18707	
560.85	19744	
561.04	18738	
561.24	17817	
561.43	17810	
561.63	19133	
561.82	19379	
562.01	18920	
562.21	18002	
562.4	19583	
562.59	20677	
562.79	18088	
562.98	17784	
563.18	19729	
563.37	21162	
563.56	18450	
563.76	17988	
563.95	19340	
564.14	19288	
564.34	18247	
564.53	17865	
564.73	19839	
564.92	20175	
565.11	18489	
565.31	18028	
565.5	20403	
565.69	19502	
565.89	18236	
566.08	18449	
566.27	20286	
566.47	20898	
566.66	19011	
566.85	17920	
567.05	20044	
567.24	19537	
567.44	18039	
567.63	19211	
567.82	20302	
568.02	19976	
568.21	18090	
568.4	18439	
568.6	20134	
568.79	19953	
568.98	18139	
569.18	18444	
569.37	20345	
569.56	22059	
569.76	18795	
569.95	19445	
570.14	20361	
570.34	20444	
570.53	18224	
570.72	18186	
570.91	20945	
571.11	19987	
571.3	18591	
571.49	19499	
571.69	20235	
571.88	19801	
572.07	19254	
572.27	18987	
572.46	19715	
572.65	20745	
572.85	18509	
573.04	18751	
573.23	20803	
573.43	20264	
573.62	18398	
573.81	18976	
574	20637	
574.2	20385	
574.39	19151	
574.58	19101	
574.78	21613	
574.97	20929	
575.16	19609	
575.36	19765	
575.55	21399	
575.74	21432	
575.93	18675	
576.13	19880	
576.32	20818	
576.51	21443	
576.71	19230	
576.9	20552	
577.09	21599	
577.28	21108	
577.48	19631	
577.67	18738	
577.86	20805	
578.05	21235	
578.25	19433	
578.44	19609	
578.63	20822	
578.83	22208	
579.02	18879	
579.21	20424	
579.4	21074	
579.6	21050	
579.79	19523	
579.98	21414	
580.17	21357	
580.37	21630	
580.56	18967	
580.75	19864	
580.94	21726	
581.14	21754	
581.33	20219	
581.52	19228	
581.71	21358	
581.91	21837	
582.1	19106	
582.29	19438	
582.48	21005	
582.68	21080	
582.87	19949	
583.06	19674	
583.25	21300	
583.45	20766	
583.64	20173	
583.83	20949	
584.02	20927	
584.21	21433	
584.41	20154	
584.6	19681	
584.79	21199	
584.98	21807	
585.18	19118	
585.37	19187	
585.56	20776	
585.75	21450	
585.94	19095	
586.14	19859	
586.33	21579	
586.52	20872	
586.71	19422	
586.91	19073	
587.1	20152	
587.29	20931	
587.48	18765	
587.67	18639	
587.87	20727	
588.06	20598	
588.25	19809	
588.44	19150	
588.63	20094	
588.83	20825	
589.02	18587	
589.21	18170	
589.4	19579	
589.59	19568	
589.78	17084	
589.98	17226	
590.17	18418	
590.36	18775	
590.55	16010	
590.74	16431	
590.94	19495	
591.13	18234	
591.32	16341	
591.51	16118	
591.7	18714	
591.89	18528	
592.09	16363	
592.28	16817	
592.47	17808	
592.66	19631	
592.85	16380	
593.05	16612	
593.24	18222	
593.43	19045	
593.62	16721	
593.81	17105	
594	18279	
594.19	18623	
594.39	16483	
594.58	16378	
594.77	18656	
594.96	19128	
595.15	16435	
595.34	16931	
595.54	18277	
595.73	17567	
595.92	15661	
596.11	16355	
596.3	18697	
596.49	17570	
596.68	16359	
596.88	16669	
597.07	18383	
597.26	17466	
597.45	16005	
597.64	17017	
597.83	17652	
598.02	18227	
598.22	15844	
598.41	16505	
598.6	18002	
598.79	17415	
598.98	15757	
599.17	16630	
599.36	17940	
599.55	18802	
599.74	17509	
599.94	17382	
600.13	18305	
600.32	17152	
600.51	15377	
600.7	15576	
600.89	18628	
601.08	18822	
601.27	15425	
601.47	16343	
601.66	18029	
601.85	18525	
602.04	16016	
602.23	16055	
602.42	17088	
602.61	17734	
602.8	15713	
602.99	15520	
603.18	17404	
603.37	17551	
603.57	15924	
603.76	16535	
603.95	18138	
604.14	17860	
604.33	15722	
604.52	15922	
604.71	17623	
604.9	17230	
605.09	16645	
605.28	16286	
605.47	18105	
605.66	17535	
605.86	16001	
606.05	15504	
606.24	18065	
606.43	16641	
606.62	15857	
606.81	16358	
607	17711	
607.19	17148	
607.38	15274	
607.57	15275	
607.76	16953	
607.95	16302	
608.14	15642	
608.33	16253	
608.52	16722	
608.72	17630	
608.91	14909	
609.1	14932	
609.29	16868	
609.48	16320	
609.67	15498	
609.86	14727	
610.05	16368	
610.24	16633	
610.43	14684	
610.62	14351	
610.81	17550	
611	17552	
611.19	14703	
611.38	15257	
611.57	16926	
611.76	17917	
611.95	14470	
612.14	14349	
612.33	16675	
612.52	16283	
612.71	14910	
612.9	14284	
613.09	15898	
613.28	17970	
613.47	14853	
613.66	15553	
613.85	16725	
614.04	16277	
614.24	14698	
614.43	13978	
614.62	16806	
614.81	16744	
615	15209	
615.19	15215	
615.38	16061	
615.57	16479	
615.76	15130	
615.95	16025	
616.14	16936	
616.33	16526	
616.52	15299	
616.71	15570	
616.9	16763	
617.09	16761	
617.28	14848	
617.47	15833	
617.66	16079	
617.85	16143	
618.04	15692	
618.22	15233	
618.41	16675	
618.6	17446	
618.79	15395	
618.98	15264	
619.17	17838	
619.36	16348	
619.55	15386	
619.74	15368	
619.93	17362	
620.12	16755	
620.31	16006	
620.5	16249	
620.69	17802	
620.88	18353	
621.07	16820	
621.26	16037	
621.45	17747	
621.64	17678	
621.83	16241	
622.02	15467	
622.21	17664	
622.4	17531	
622.59	16750	
622.78	16463	
622.97	17086	
623.16	18105	
623.35	16215	
623.54	15528	
623.72	17473	
623.91	17553	
624.1	16607	
624.29	15302	
624.48	18555	
624.67	17857	
624.86	16628	
625.05	15578	
625.24	18601	
625.43	17236	
625.62	17780	
625.81	15928	
626	18048	
626.19	17648	
626.38	16536	
626.56	15983	
626.75	17536	
626.94	18279	
627.13	16432	
627.32	15496	
627.51	17974	
627.7	18922	
627.89	15356	
628.08	16513	
628.27	17165	
628.46	17274	
628.65	15685	
628.83	15343	
629.02	17795	
629.21	17202	
629.4	16015	
629.59	16237	
629.78	17127	
629.97	18018	
630.16	16214	
630.35	15781	
630.54	18333	
630.72	18097	
630.91	15811	
631.1	16154	
631.29	17683	
631.48	17763	
631.67	16260	
631.86	15741	
632.05	17275	
632.24	17265	
632.42	15428	
632.61	15965	
632.8	17257	
632.99	17095	
633.18	16232	
633.37	16212	
633.56	17477	
633.75	17372	
633.93	16104	
634.12	15707	
634.31	18227	
634.5	17802	
634.69	15980	
634.88	16118	
635.07	17425	
635.25	17828	
635.44	16537	
635.63	16720	
635.82	17095	
636.01	16639	
636.2	16293	
636.39	15967	
636.57	18011	
636.76	17722	
636.95	15531	
637.14	16595	
637.33	17589	
637.52	18180	
637.7	15201	
637.89	16154	
638.08	17144	
638.27	18234	
638.46	16068	
638.65	16358	
638.83	17981	
639.02	16688	
639.21	15732	
639.4	16242	
639.59	16920	
639.78	16440	
639.96	15039	
640.15	14925	
640.34	16746	
640.53	16936	
640.72	14680	
640.91	14844	
641.09	16070	
641.28	17350	
641.47	14933	
641.66	15666	
641.85	16812	
642.03	16696	
642.22	15242	
642.41	14849	
642.6	16098	
642.79	15458	
642.97	14547	
643.16	15124	
643.35	15920	
643.54	15649	
643.73	14259	
643.91	14951	
644.1	15332	
644.29	16061	
644.48	14089	
644.67	14248	
644.85	15352	
645.04	15765	
645.23	13506	
645.42	13995	
645.6	15094	
645.79	16032	
645.98	13675	
646.17	12814	
646.36	14663	
646.54	14844	
646.73	13878	
646.92	13001	
647.11	14432	
647.29	15326	
647.48	12926	
647.67	12682	
647.86	15313	
648.05	15588	
648.23	13056	
648.42	14147	
648.61	14902	
648.8	14769	
648.98	12695	
649.17	13092	
649.36	14226	
649.55	13934	
649.73	12762	
649.92	13516	
650.11	14233	
650.3	14532	
650.48	12765	
650.67	12727	
650.86	14594	
651.05	13678	
651.23	12683	
651.42	12563	
651.61	14142	
651.79	13971	
651.98	12850	
652.17	12454	
652.36	14269	
652.54	13581	
652.73	12418	
652.92	12161	
653.11	14329	
653.29	14165	
653.48	11609	
653.67	12416	
653.85	13821	
654.04	14799	
654.23	12456	
654.42	11858	
654.6	12987	
654.79	13545	
654.98	11191	
655.16	11452	
655.35	12229	
655.54	12209	
655.73	10853	
655.91	10901	
656.1	13210	
656.29	12485	
656.47	10705	
656.66	12349	
656.85	12846	
657.03	12973	
657.22	11467	
657.41	11484	
657.59	13164	
657.78	12940	
657.97	11328	
658.16	11882	
658.34	13546	
658.53	14045	
658.72	12650	
658.9	13064	
659.09	13284	
659.28	13171	
659.46	11559	
659.65	11643	
659.84	13000	
660.02	13548	
660.21	11543	
660.4	11470	
660.58	13757	
660.77	13196	
660.96	11929	
661.14	11129	
661.33	14108	
661.52	14182	
661.7	10970	
661.89	14122	
662.08	12771	
662.26	12359	
662.45	11286	
662.64	11389	
662.82	13310	
663.01	12601	
663.2	11185	
663.38	11885	
663.57	13192	
663.75	13132	
663.94	11411	
664.13	12424	
664.31	12632	
664.5	13076	
664.69	11801	
664.87	12258	
665.06	12312	
665.25	13040	
665.43	12391	
665.62	12407	
665.8	13123	
665.99	12547	
666.18	11459	
666.36	11444	
666.55	13164	
666.74	13061	
666.92	10959	
667.11	12343	
667.29	12662	
667.48	13164	
667.67	12048	
667.85	11231	
668.04	12516	
668.22	12560	
668.41	11471	
668.6	11462	
668.78	12340	
668.97	12583	
669.15	11550	
669.34	10671	
669.53	12439	
669.71	12639	
669.9	10789	
670.08	11333	
670.27	12249	
670.46	12755	
670.64	11488	
670.83	11745	
671.01	12054	
671.2	12628	
671.38	10988	
671.57	10729	
671.76	13310	
671.94	13697	
672.13	10756	
672.31	11510	
672.5	13018	
672.69	12299	
672.87	10840	
673.06	11152	
673.24	12631	
673.43	12497	
673.61	11327	
673.8	11060	
673.98	12855	
674.17	12991	
674.36	11619	
674.54	11598	
674.73	12497	
674.91	12803	
675.1	11185	
675.28	10812	
675.47	12503	
675.65	12938	
675.84	11082	
676.03	11330	
676.21	12220	
676.4	11778	
676.58	11756	
676.77	11583	
676.95	13454	
677.14	12111	
677.32	10769	
677.51	10706	
677.69	12876	
677.88	12021	
678.06	10740	
678.25	10745	
678.44	12468	
678.62	12160	
678.81	10469	
678.99	11346	
679.18	13063	
679.36	12708	
679.55	10946	
679.73	11561	
679.92	12689	
680.1	12229	
680.29	12092	
680.47	11013	
680.66	12095	
680.84	12742	
681.03	10419	
681.21	11256	
681.4	12263	
681.58	11950	
681.77	10720	
681.95	10672	
682.14	12872	
682.32	13046	
682.51	11426	
682.69	10401	
682.88	12016	
683.06	12372	
683.25	11135	
683.43	11520	
683.62	12285	
683.8	12556	
683.99	11516	
684.17	10931	
684.36	13124	
684.54	11925	
684.73	9928.6	
684.91	9935.4	
685.1	11752	
685.28	11176	
685.46	10180	
685.65	10213	
685.83	11723	
686.02	11284	
686.2	9781.8	
686.39	10045	
686.57	11381	
686.76	12528	
686.94	10069	
687.13	10266	
687.31	12007	
687.5	11573	
687.68	9702.6	
687.86	10824	
688.05	13139	
688.23	11234	
688.42	10929	
688.6	10316	
688.79	11753	
688.97	11680	
689.16	10761	
689.34	9830.2	
689.52	12416	
689.71	12565	
689.89	10912	
690.08	10448	
690.26	12072	
690.45	11895	
690.63	11120	
690.81	10731	
691	11830	
691.18	11812	
691.37	10652	
691.55	12295	
691.74	11575	
691.92	13308	
692.1	10499	
692.29	10112	
692.47	11832	
692.66	11278	
692.84	10376	
693.02	10761	
693.21	11387	
693.39	11825	
693.58	10987	
693.76	10464	
693.94	13067	
694.13	12853	
694.31	10683	
694.5	11551	
694.68	11997	
694.86	12387	
695.05	11063	
695.23	11215	
695.42	12802	
695.6	14748	
695.78	11749	
695.97	10821	
696.15	12835	
696.34	12162	
696.52	10697	
696.7	11293	
696.89	12482	
697.07	11873	
697.25	11060	
697.44	12579	
697.62	12440	
697.81	12602	
697.99	10897	
698.17	11271	
698.36	11707	
698.54	12396	
698.72	11245	
698.91	10241	
699.09	12108	
699.28	11935	
699.46	10809	
699.64	10781	
699.83	11859	
700.01	12813	
700.19	11415	
700.38	10155	
700.56	12913	
700.74	12089	
700.93	10511	
701.11	11327	
701.29	12447	
701.48	13571	
701.66	10917	
701.84	10844	
702.03	12381	
702.21	12956	
702.39	10492	
702.58	11272	
702.76	12759	
702.94	12813	
703.13	10593	
703.31	12676	
703.49	12149	
703.68	13045	
703.86	10724	
704.04	11616	
704.23	12548	
704.41	12794	
704.59	10940	
704.78	11845	
704.96	13627	
705.14	12952	
705.33	10748	
705.51	11389	
705.69	12514	
705.87	13136	
706.06	11583	
706.24	10632	
706.42	12607	
706.61	12842	
706.79	11662	
706.97	10703	
707.16	12221	
707.34	12656	
707.52	11602	
707.7	10942	
707.89	12473	
708.07	11903	
708.25	11716	
708.44	11815	
708.62	12241	
708.8	13177	
708.98	11858	
709.17	10918	
709.35	12501	
709.53	12532	
709.72	10636	
709.9	11138	
710.08	12792	
710.26	12736	
710.45	11916	
710.63	10893	
710.81	12422	
710.99	12371	
711.18	11367	
711.36	10798	
711.54	12189	
711.72	12766	
711.91	10945	
712.09	10429	
712.27	12122	
712.45	12649	
712.64	10824	
712.82	9985.9	
713	11407	
713.18	11495	
713.37	9877.4	
713.55	10983	
713.73	12080	
713.91	10774	
714.1	9809.8	
714.28	9134.6	
714.46	11053	
714.64	10209	
714.83	8325.7	
715.01	8815.1	
715.19	10046	
715.37	9394	
715.55	8250.6	
715.74	8533.9	
715.92	10598	
716.1	8776.9	
716.28	9344.2	
716.47	8409.6	
716.65	9320.3	
716.83	9391.3	
717.01	8335.9	
717.19	8396.7	
717.38	11169	
717.56	9077.3	
717.74	8625.4	
717.92	7894.2	
718.1	10264	
718.29	9652.1	
718.47	7856	
718.65	8516.1	
718.83	10618	
719.01	10841	
719.2	8237.6	
719.38	9178.3	
719.56	10460	
719.74	11865	
719.92	8817.2	
720.11	9570.2	
720.29	10370	
720.47	9580.4	
720.65	8150.2	
720.83	8666.3	
721.02	9574.9	
721.2	9305.3	
721.38	8585.8	
721.56	7826.7	
721.74	8848.6	
721.92	8913.4	
722.11	8905.9	
722.29	8616.5	
722.47	9935.4	
722.65	9317.6	
722.83	7849.2	
723.01	8509.3	
723.2	9288.9	
723.38	9570.2	
723.56	7323.5	
723.74	8347.5	
723.92	8837.7	
724.1	9909.4	
724.29	7782.3	
724.47	8697	
724.65	8890.2	
724.83	8829.5	
725.01	7509.2	
725.19	8301.8	
725.37	8787.8	
725.56	8921	
725.74	7418.4	
725.92	7695.6	
726.1	8929.1	
726.28	9000.8	
726.46	7935.2	
726.64	7706.5	
726.83	8966.7	
727.01	9228.1	
727.19	7352.2	
727.37	8073.8	
727.55	9165.3	
727.73	9627.5	
727.91	7333.8	
728.09	7225.9	
728.28	9566.1	
728.46	9824.1	
728.64	8169.3	
728.82	8132.5	
729	10583	
729.18	10050	
729.36	7702.4	
729.54	9507.4	
729.72	11009	
729.91	9589.3	
730.09	9451.4	
730.27	8475.9	
730.45	9573.6	
730.63	10068	
730.81	8911.4	
730.99	8180.3	
731.17	10615	
731.35	9286.9	
731.53	8649.3	
731.71	8173.4	
731.9	10330	
732.08	10426	
732.26	8443.1	
732.44	8058.1	
732.62	10381	
732.8	9979.8	
732.98	8737.3	
733.16	7871	
733.34	9848.7	
733.52	8774.2	
733.7	8280.6	
733.88	8531.2	
734.07	9617.3	
734.25	9521	
734.43	7771.4	
734.61	9030.9	
734.79	10835	
734.97	9400.2	
735.15	7844.4	
735.33	8137.9	
735.51	9640.5	
735.69	9330.5	
735.87	9030.2	
736.05	8217.1	
736.23	9443.2	
736.41	9284.1	
736.59	8146.1	
736.77	8204.8	
736.95	9785.9	
737.13	9375.6	
737.32	7743.4	
737.5	8013.7	
737.68	10342	
737.86	9149.6	
738.04	7512.6	
738.22	9053.4	
738.4	8939.4	
738.58	9183.1	
738.76	7915.4	
738.94	7139.9	
739.12	9118.2	
739.3	9129.8	
739.48	8555.7	
739.66	8339.3	
739.84	9239.8	
740.02	9241.1	
740.2	7267.6	
740.38	7464.8	
740.56	9619.3	
740.74	8533.2	
740.92	8081.3	
741.1	7825.3	
741.28	9028.1	
741.46	8775.5	
741.64	7464.8	
741.82	7938.6	
742	9029.5	
742.18	8810.4	
742.36	7716.7	
742.54	7266.2	
742.72	9370.1	
742.9	8249.9	
743.08	8082	
743.26	6913.3	
743.44	9481.4	
743.62	9357.9	
743.8	8062.2	
743.98	7236.2	
744.16	9037	
744.34	8757.1	
744.52	7860.8	
744.7	7735.2	
744.88	9148.3	
745.06	8596	
745.24	7790.5	
745.42	7811.6	
745.6	9073.9	
745.78	8763.9	
745.96	6690	
746.14	6878.4	
746.32	9512.1	
746.5	8889.5	
746.68	7416.4	
746.86	6838.9	
747.03	9278.7	
747.21	7731.8	
747.39	7311.2	
747.57	6848.4	
747.75	8516.8	
747.93	8811.7	
748.11	6851.1	
748.29	6692.8	
748.47	9865.7	
748.65	8183.7	
748.83	7407.5	
749.01	7134.4	
749.19	8639.7	
749.37	7811	
749.55	6994.5	
749.73	7043.6	
749.91	8320.2	
750.09	8041.7	
750.26	7050.5	
750.44	6559	
750.62	8240.3	
750.8	8190.5	
750.98	6419	
751.16	6759	
751.34	8379.6	
751.52	7714.7	
751.7	7381.6	
751.88	6361.7	
752.06	8703.9	
752.24	8439.7	
752.42	6251.1	
752.59	6641.6	
752.77	8061.5	
752.95	9144.9	
753.13	7223.9	
753.31	6664.8	
753.49	7841.7	
753.67	8231.5	
753.85	6834.1	
754.03	6418.3	
754.21	8340.7	
754.38	8552.3	
754.56	6486.6	
754.74	5544.5	
754.92	7408.9	
755.1	7909.9	
755.28	5410.7	
755.46	5281	
755.64	8200.1	
755.82	8090.8	
755.99	4981.3	
756.17	4919.2	
756.35	5537.7	
756.53	6747.4	
756.71	3749.1	
756.89	4595.6	
757.07	6470.2	
757.25	5711.8	
757.42	5153.4	
757.6	5938.4	
757.78	6788.3	
757.96	5940.5	
758.14	5133.6	
758.32	4777.9	
758.5	5584.8	
758.67	6336.4	
758.85	4937.7	
759.03	5023	
759.21	6396.5	
759.39	5872.2	
759.57	4625	
759.75	5532.2	
759.92	7106.5	
760.1	6502.3	
760.28	5866.7	
760.46	6178	
760.64	6342.6	
760.82	6114.6	
760.99	5956.9	
761.17	5248.3	
761.35	7098.3	
761.53	6221	
761.71	5429.8	
761.89	6053.1	
762.06	7109.2	
762.24	6642.2	
762.42	5552	
762.6	5418.9	
762.78	6695.5	
762.96	7299.6	
763.13	6021	
763.31	5712.5	
763.49	7499.7	
763.67	6757.6	
763.85	6397.9	
764.02	6880.5	
764.2	7625.3	
764.38	6961.7	
764.56	5484.5	
764.74	6237.4	
764.91	7742	
765.09	6766.5	
765.27	5281	
765.45	5033.2	
765.63	7752.2	
765.8	7558.4	
765.98	4829.8	
766.16	5085.8	
766.34	6297.5	
766.52	6094.1	
766.69	5896.1	
766.87	4926.7	
767.05	6638.8	
767.23	7286	
767.41	5100.1	
767.58	5279.7	
767.76	7042.3	
767.94	7136.5	
768.12	5171.1	
768.29	5771.9	
768.47	6556.9	
768.65	7120.1	
768.83	4758.8	
769	5728.9	
769.18	6165.8	
769.36	6736.5	
769.54	5667.4	
769.72	4676.9	
769.89	6975.4	
770.07	7004.1	
770.25	4971.8	
770.43	6014.9	
770.6	7591.8	
770.78	7918.8	
770.96	5027.8	
771.14	5531.6	
771.31	6768.5	
771.49	6156.9	
771.67	4341	
771.85	4485.7	
772.02	5505.6	
772.2	6087.2	
772.38	5100.8	
772.55	4631.8	
772.73	6393.1	
772.91	6077.7	
773.09	4907.6	
773.26	5033.2	
773.44	6264.1	
773.62	5965.7	
773.8	4412.7	
773.97	4240.7	
774.15	6252.4	
774.33	5981.4	
774.5	4418.8	
774.68	4669.4	
774.86	6436.8	
775.04	5870.8	
775.21	4403.1	
775.39	4306.9	
775.57	6114.6	
775.74	6482.5	
775.92	4159.4	
776.1	4111	
776.27	6058.6	
776.45	7109.9	
776.63	4351.9	
776.81	3917.8	
776.98	5700.9	
777.16	6602.7	
777.34	4337.6	
777.51	4688.5	
777.69	5637.4	
777.87	5459.2	
778.04	4423.6	
778.22	4898.1	
778.4	5479	
778.57	6094.8	
778.75	3737.5	
778.93	3967.6	
779.1	5324.7	
779.28	5122	
779.46	3661.8	
779.64	4118.5	
779.81	6091.3	
779.99	6885.3	
780.17	4737	
780.34	4851.6	
780.52	5619.6	
780.69	5852.4	
780.87	4350.6	
781.05	4050.2	
781.22	5661.3	
781.4	5707.7	
781.58	4075.5	
781.75	3327.3	
781.93	5673.6	
782.11	5129.5	
782.28	4853	
782.46	4086.4	
782.64	4978.6	
782.81	5779.4	
782.99	4098	
783.17	4009.2	
783.34	5655.1	
783.52	5012.7	
783.69	4223.6	
783.87	4932.2	
784.05	5192.3	
784.22	5024.3	
784.4	4849.6	
784.58	4278.2	
784.75	5876.3	
784.93	5125.4	
785.1	3985.3	
785.28	4481.6	
785.46	5546.6	
785.63	5076.9	
785.81	3921.9	
785.99	3792.8	
786.16	5201.8	
786.34	5481.7	
786.51	3800.3	
786.69	4178.5	
786.87	4743.1	
787.04	5231.2	
787.22	3697.3	
787.39	4448.2	
787.57	4996.4	
787.75	5963	
787.92	4673.5	
788.1	4551.3	
788.27	4938.3	
788.45	4771.1	
788.63	4343.7	
788.8	3198.9	
788.98	5486.5	
789.15	4681.7	
789.33	3362.8	
789.5	3889.1	
789.68	5775.3	
789.86	5826.5	
790.03	4217.5	
790.21	3717.1	
790.38	5754.8	
790.56	5094	
790.73	3685.7	
790.91	3652.9	
791.09	4977.2	
791.26	5521.3	
791.44	3868.6	
791.61	3351.8	
791.79	4941.1	
791.96	4970.4	
792.14	3472.7	
792.32	3118.4	
792.49	4850.3	
792.67	5033.9	
792.84	3554.6	
793.02	3343	
793.19	5444.2	
793.37	5872.9	
793.54	3114.3	
793.72	3360	
793.89	5917.3	
794.07	4902.2	
794.25	3847.5	
794.42	3154.6	
794.6	5811.5	
794.77	5489.9	
794.95	4063.2	
795.12	3641.3	
795.3	4898.1	
795.47	5371.1	
795.65	3991.5	
795.82	3781.9	
796	4707.6	
796.17	6323.4	
796.35	3717.1	
796.52	4349.2	
796.7	5324	
796.87	5474.9	
797.05	3700.7	
797.22	4441.4	
797.4	5387.5	
797.57	6183.5	
797.75	3870.7	
797.92	3582.6	
798.1	5701.5	
798.27	4786.1	
798.45	3145	
798.62	3332.7	
798.8	5091.3	
798.97	5546.6	
799.15	4016.1	
799.32	3822.2	
799.5	4491.2	
799.67	5186.1	
799.85	4154.6	
800.02	3106.1	
800.2	4848.9	
800.37	5090.6	
800.55	4307.6	
800.72	3596.9	
800.9	5523.4	
801.07	5837.4	
801.25	4748.6	
801.42	3935.5	
801.6	5571.2	
801.77	5196.4	
801.95	3676.1	
802.12	3527.3	
802.29	5326.1	
802.47	5186.1	
802.64	3910.9	
802.82	2976.4	
802.99	4771.8	
803.17	5577.3	
803.34	3799	
803.52	3450.1	
803.69	6217	
803.87	4539.7	
804.04	3861.1	
804.21	3825.6	
804.39	5811.5	
804.56	4941.7	
804.74	3239.2	
804.91	3902.7	
805.09	4850.3	
805.26	4918.5	
805.44	3316.3	
805.61	3608.5	
805.78	5412.1	
805.96	5424.4	
806.13	3914.4	
806.31	4197	
806.48	4357.4	
806.66	4872.1	
806.83	3882.3	
807	3775.8	
807.18	4768.4	
807.35	5082.4	
807.53	3767.6	
807.7	3087.7	
807.87	5812.1	
808.05	4817.5	
808.22	4099.4	
808.4	3050.8	
808.57	4765.6	
808.74	4519.9	
808.92	3518.4	
809.09	4336.9	
809.27	4711.7	
809.44	5237.3	
809.61	3121.8	
809.79	3410.6	
809.96	5870.8	
810.14	5380	
810.31	2977.7	
810.48	3651.5	
810.66	4856.4	
810.83	5454.4	
811.01	3464.5	
811.18	3829.7	
811.35	5418.9	
811.53	4283	
811.7	4111	
811.87	3844	
812.05	4829.1	
812.22	4685.1	
812.39	3362.8	
812.57	3248.1	
812.74	4857.1	
812.92	6182.8	
813.09	3639.2	
813.26	3872.7	
813.44	6008.7	
813.61	4714.4	
813.78	3067.2	
813.96	4055	
814.13	4790.9	
814.3	4536.9	
814.48	4335.5	
814.65	3631	
814.82	6049.7	
815	4587.4	
815.17	3696.6	
815.34	4468.7	
815.52	4734.9	
815.69	4703.5	
815.87	3670	
816.04	3611.3	
816.21	4858.5	
816.38	4315.8	
816.56	3603.1	
816.73	3357.3	
816.9	5988.9	
817.08	5397.1	
817.25	3364.1	
817.42	4194.2	
817.6	4383.3	
817.77	4760.2	
817.94	3766.9	
818.12	3326.6	
818.29	4602.5	
818.46	6737.1	
818.64	3467.9	
818.81	3264.5	
818.98	4500.8	
819.16	6324.8	
819.33	3923.2	
819.5	3749.1	
819.67	5132.9	
819.85	5682.4	
820.02	3610.6	
820.19	3857.7	
820.37	4960.9	
820.54	4716.5	
820.71	3705.5	
820.88	4663.9	
821.06	4971.1	
821.23	4559.5	
821.4	3796.3	
821.58	3667.2	
821.75	5380	
821.92	4923.3	
822.09	3074.7	
822.27	3087.7	
822.44	4746.5	
822.61	4710.3	
822.79	3091.8	
822.96	5810.1	
823.13	5129.5	
823.3	4546.5	
823.48	3529.3	
823.65	3161.4	
823.82	5345.2	
823.99	4401.1	
824.17	4394.3	
824.34	3237.8	
824.51	6204.7	
824.68	4827.1	
824.86	3339.6	
825.03	3690.4	
825.2	4782	
825.37	5630.5	
825.55	3317.7	
825.72	3723.9	
825.89	6100.9	
826.06	5780.7	
826.24	3647.4	
826.41	3678.8	
826.58	5724.1	
826.75	4990.2	
826.92	2937.5	
827.1	3180.5	
827.27	7610.9	
827.44	6126.2	
827.61	3413.3	
827.79	4119.8	
827.96	4566.3	
828.13	4803.9	
828.3	3538.2	
828.47	3031	
828.65	5040.7	
828.82	4938.3	
828.99	4549.2	
829.16	4046.1	
829.34	5326.8	
829.51	5203.9	
829.68	3706.1	
829.85	3725.9	
830.02	5605.3	
830.2	5382.7	
830.37	2902	
830.54	4407.9	
830.71	6015.6	
830.88	4787.5	
831.05	2895.1	
831.23	3376.4	
831.4	5846.3	
831.57	6379.4	
831.74	3438.5	
831.91	3061	
832.09	5051	
832.26	5324.7	
832.43	3487.7	
832.6	3951.9	
832.77	5020.9	
832.94	5670.8	
833.12	2813.2	
833.29	3455.6	
833.46	4995	
833.63	6623.8	
833.8	3816.7	
833.97	3562.8	
834.15	5404.6	
834.32	5111	
834.49	3708.2	
834.66	3741	
834.83	5494	
835	4521.9	
835.17	3424.9	
835.35	3422.2	
835.52	5230.5	
835.69	5137.7	
835.86	3555.3	
836.03	2975	
836.2	5328.8	
836.37	4981.3	
836.55	3532.7	
836.72	3319.1	
836.89	4906.9	
837.06	5383.4	
837.23	3611.3	
837.4	3890.5	
837.57	5999.2	
837.75	6559.6	
837.92	3265.8	
838.09	3495.2	
838.26	4932.2	
838.43	5533.6	
838.6	3728.7	
838.77	3330.7	
838.94	6236.1	
839.11	6051.1	
839.29	3506.8	
839.46	2847.4	
839.63	5311.1	
839.8	5081.7	
839.97	3459	
840.14	3409.9	
840.31	5140.4	
840.48	5354.1	
840.65	2913.6	
840.82	3320.4	
841	5199.8	
841.17	5211.4	
841.34	3225.6	
841.51	3165.5	
841.68	5281.7	
841.85	4970.4	
842.02	3332	
842.19	2784.6	
842.36	5098.8	
842.53	5089.9	
842.7	3213.3	
842.87	3894.6	
843.05	6560.3	
843.22	5051.7	
843.39	3039.2	
843.56	3315	
843.73	4857.1	
843.9	5393	
844.07	5038	
844.24	4203.1	
844.41	7502.4	
844.58	4670.7	
844.75	3064.4	
844.92	3255.6	
845.09	5207.3	
845.26	5272.2	
845.43	3141.6	
845.6	3332	
845.77	5285.8	
845.94	5051.7	
846.12	3452.9	
846.29	3626.3	
846.46	5457.8	
846.63	5279	
846.8	3180.5	
846.97	3733.4	
847.14	5674.9	
847.31	5216.2	
847.48	3523.9	
847.65	3904.1	
847.82	5572.5	
847.99	5489.9	
848.16	4165.6	
848.33	3867.2	
848.5	4887.8	
848.67	5720	
848.84	3118.4	
849.01	3276.1	
849.18	4817.5	
849.35	4578.6	
849.52	3906.8	
849.69	3059	
849.86	5453.7	
850.03	5567.1	
850.2	3146.4	
850.37	3831.7	
850.54	5534.3	
850.71	4956.1	
850.88	3730	
851.05	3104.7	
851.22	5120.6	
851.39	5808.7	
851.56	2970.2	
851.73	3533.4	
851.9	4661.9	
852.07	5524.1	
852.24	3468.6	
852.41	3096.5	
852.58	5143.1	
852.75	4777.2	
852.92	3542.3	
853.09	3037.8	
853.26	4940.4	
853.43	5612.8	
853.6	3126.6	
853.77	2721.8	
853.94	5790.3	
854.11	5147.2	
854.28	4556	
854.44	3412.6	
854.61	6115.9	
854.78	5552	
854.95	3028.3	
855.12	3865.2	
855.29	4321.2	
855.46	5810.8	
855.63	3164.8	
855.8	4349.2	
855.97	4892.6	
856.14	5556.1	
856.31	4317.1	
856.48	3390.1	
856.65	4868.7	
856.82	4661.9	
856.99	2977.7	
857.16	3434.4	
857.33	6343.2	
857.49	4995	
857.66	3316.3	
857.83	3592.1	
858	4975.9	
858.17	5203.2	
858.34	2945	
858.51	3170.9	
858.68	5837.4	
858.85	5870.2	
859.02	3668.6	
859.19	3786	
859.36	4628.4	
859.52	4715.1	
859.69	3175.7	
859.86	3639.9	
860.03	4724.7	
860.2	5722.7	
860.37	2843.9	
860.54	3181.9	
860.71	5457.2	
860.88	5783.5	
861.05	3517.7	
861.21	3978.5	
861.38	5802.6	
861.55	4532.2	
861.72	2862.4	
861.89	3473.4	
862.06	5489.9	
862.23	5933	
862.4	3052.8	
862.56	3190.7	
862.73	5375.2	
862.9	5090.6	
863.07	3664.5	
863.24	2878.8	
863.41	4584	
863.58	4642.1	
863.75	3190.7	
863.91	3622.2	
864.08	5707	
864.25	5421	
864.42	3866.6	
864.59	4340.3	
864.76	6022.4	
864.93	4727.4	
865.09	3024.2	
865.26	3314.3	
865.43	5708.4	
865.6	6061.3	
865.77	2772.3	
865.94	3146.4	
866.1	5707	
866.27	5396.4	
866.44	4657.1	
866.61	2975	
866.78	5010.7	
866.95	5362.9	
867.11	3039.2	
867.28	2855.6	
867.45	5549.3	
867.62	4737	
867.79	3604.4	
867.96	3076.7	
868.12	4585.4	
868.29	5466	
868.46	2728.6	
868.63	4106.2	
868.8	5640.1	
868.97	5378	
869.13	3262.4	
869.3	3249.4	
869.47	5348.6	
869.64	5515.2	
869.81	3136.1	
869.97	3127.9	
870.14	5189.6	
870.31	5765	
870.48	3075.4	
870.65	3997	
870.81	4941.7	
870.98	4952	
871.15	3505.4	
871.32	3239.9	
871.48	5356.1	
871.65	5851.7	
871.82	3154.6	
871.99	3403.7	
872.16	6230.6	
872.32	5661.3	
872.49	3170.3	
872.66	3162.7	
872.83	5457.8	
872.99	4775.2	
873.16	3567.6	
873.33	3108.8	
873.5	5126.7	
873.67	5173.9	
873.83	3303.4	
874	4072	
874.17	5228.5	
874.34	6109.8	
874.5	3957.4	
874.67	3762.8	
874.84	5715.2	
875.01	4562.9	
875.17	4358.8	
875.34	3155.2	
875.51	5216.9	
875.68	6204.7	
875.84	3716.4	
876.01	4423.6	
876.18	5393.7	
876.34	5359.5	
876.51	3123.2	
876.68	3069.2	
876.85	4934.2	
877.01	5664	
877.18	4405.9	
877.35	3037.8	
877.52	5129.5	
877.68	4629.8	
877.85	3050.8	
878.02	3042.6	
878.18	5022.3	
878.35	4836.6	
878.52	2528.6	
878.69	3469.9	
878.85	5507.7	
879.02	5381.4	
879.19	4370.4	
879.35	3374.4	
879.52	5421.7	
879.69	5576.6	
879.86	2702.6	
880.02	3434.4	
880.19	5058.5	
880.36	6115.9	
880.52	3517.7	
880.69	3605.1	
880.86	5477	
881.02	5547.3	
881.19	3435.8	
881.36	3332.7	
881.52	5322	
881.69	4777.9	
881.86	3328.6	
882.02	3323.2	
882.19	5624.4	
882.36	6505	
882.52	3157.3	
882.69	4303.5	
882.86	5208	
883.02	5166.3	
883.19	3760.1	
883.36	3518.4	
883.52	5421	
883.69	6190.3	
883.86	3179.1	
884.02	2843.3	
884.19	5429.8	
884.36	5114.5	
884.52	3458.3	
884.69	3323.2	
884.86	4846.9	
885.02	5930.2	
885.19	3429	
885.36	3562.8	
885.52	5038.7	
885.69	5230.5	
885.86	4385.4	
886.02	3935.5	
886.19	5456.5	
886.35	4959.5	
886.52	3416.7	
886.69	4212	
886.85	4689.8	
887.02	5759.6	
887.19	5759.6	
887.35	5759.6	
887.52	5759.6	
887.68	5759.6	
887.85	5759.6	
888.02	5759.6	
888.18	5759.6	
888.35	5759.6	
888.51	5759.6	
888.68	5759.6	
888.85	5759.6	
889.01	5759.6	
889.18	5759.6	
889.35	5759.6	
889.51	5759.6	
889.68	5759.6	
889.84	5759.6	
890.01	5759.6	
890.17	5759.6	
890.34	5759.6	
890.51	5759.6	
890.67	5759.6	
890.84	5759.6	
891	5759.6	
891.17	5759.6	
891.34	5759.6	
891.5	5759.6	
891.67	5759.6	
891.83	5759.6	
892	5759.6	
892.16	5759.6	
892.33	5759.6	
892.5	5759.6	
892.66	5759.6	
892.83	5759.6	
892.99	5759.6	
893.16	5759.6	
893.32	5759.6	
893.49	5759.6	
893.65	5759.6	
893.82	5759.6	
893.99	5759.6	
894.15	5759.6	
894.32	5759.6	
894.48	5759.6	
894.65	5759.6	
894.81	5759.6	
894.98	5759.6	
895.14	5759.6	
895.31	5759.6	
895.47	5759.6	
895.64	5759.6	
895.81	5759.6	
895.97	5759.6	
896.14	5759.6	
896.3	5759.6	
896.47	5759.6	
896.63	5759.6	
896.8	5759.6	
896.96	5759.6	
897.13	5759.6	
897.29	5759.6	
897.46	5759.6	
897.62	5759.6	
897.79	5759.6	
897.95	5759.6	
898.12	5759.6	
898.28	5759.6	
898.45	5759.6	
898.61	5759.6	
898.78	5759.6	
898.94	5759.6	
899.11	5759.6	
899.27	5759.6	
899.44	5759.6	
899.6	5759.6	
899.77	5759.6	
899.93	5759.6	
900.1	5759.6	
900.26	5759.6	
900.43	5759.6	
900.59	5759.6	
900.76	5759.6	
900.92	5759.6	
901.09	5759.6	
901.25	5759.6	
901.42	5759.6	
901.58	5759.6	
901.75	5759.6	
901.91	5759.6	
902.07	5759.6	
902.24	5759.6	
902.4	5759.6	
902.57	5759.6	
902.73	5759.6	
902.9	5759.6	
903.06	5759.6	
903.23	5759.6	
903.39	5759.6	
903.56	5759.6	
903.72	5759.6	
903.88	5759.6	
904.05	5759.6	
904.21	5759.6	
904.38	5759.6	
904.54	5759.6	
904.71	5759.6	
904.87	5759.6	
905.03	5759.6	
905.2	5759.6	
905.36	5759.6	
905.53	5759.6	
905.69	5759.6	
905.86	5759.6	
906.02	5759.6	
906.18	5759.6	
906.35	5759.6	
906.51	5759.6	
906.68	5759.6	
906.84	5759.6	
907.01	5759.6	
907.17	5759.6	
907.33	5759.6	
907.5	5759.6	
907.66	5759.6	
907.83	5759.6	
907.99	5759.6	
908.15	5759.6	
908.32	5759.6	
908.48	5759.6	
908.65	5759.6	
908.81	5759.6	
908.97	5759.6	
909.14	5759.6	
909.3	5759.6	
909.47	5759.6	
909.63	5759.6	
909.79	5759.6	
909.96	5759.6	
910.12	5759.6	
910.28	5759.6	
910.45	5759.6	
910.61	5759.6	
910.78	5759.6	
910.94	5759.6	
911.1	5759.6	
911.27	5759.6	
911.43	5759.6	
911.59	5759.6	
911.76	5759.6	
911.92	5759.6	
912.08	5759.6	
912.25	5759.6	
912.41	5759.6	
912.57	5759.6	
912.74	5759.6	
912.9	5759.6	
913.07	5759.6	
913.23	5759.6	
913.39	5759.6	
913.56	5759.6	
913.72	5759.6	
913.88	5759.6	
914.05	5759.6	
914.21	5759.6	
914.37	5759.6	
914.54	5759.6	
914.7	5759.6	
914.86	5759.6	
915.03	5759.6	
915.19	5759.6	
