Wavelength	Intensities	
nm	a.u.	
179.22	1614.1	
179.44	1616.5	
179.65	1611.8	
179.86	1621.3	
180.08	1612.4	
180.29	3631.7	
180.51	2861.7	
180.72	4760.2	
180.94	5190.9	
181.15	2564.1	
181.37	2519	
181.58	4569.7	
181.79	4666.6	
182.01	2628.2	
182.22	2785.2	
182.44	4775.2	
182.65	4147.1	
182.87	3328.6	
183.08	3009.1	
183.29	4954.7	
183.51	4194.2	
183.72	2761.3	
183.94	3825.6	
184.15	4526	
184.37	4404.5	
184.58	2528.6	
184.79	3167.5	
185.01	4293.2	
185.22	4819.6	
185.44	3315.7	
185.65	2945	
185.86	4533.5	
186.08	4211.3	
186.29	2439.8	
186.51	2611.2	
186.72	4308.9	
186.94	4868.7	
187.15	2951.1	
187.36	3026.9	
187.58	5957.5	
187.79	4604.5	
188.01	3048.1	
188.22	4571.7	
188.43	5266.7	
188.65	4793.6	
188.86	2631.6	
189.08	3037.8	
189.29	4355.3	
189.5	4366.3	
189.72	2826.9	
189.93	2874.7	
190.15	4846.9	
190.36	5547.9	
190.57	3021.4	
190.79	2940.2	
191	4900.8	
191.22	4859.8	
191.43	3072.6	
191.64	2615.3	
191.86	5046.9	
192.07	4856.4	
192.29	2764.8	
192.5	2755.9	
192.71	4863.2	
192.93	4404.5	
193.14	2778.4	
193.35	2881.5	
193.57	4306.9	
193.78	4955.4	
194	2345.6	
194.21	2751.8	
194.42	4206.5	
194.64	4546.5	
194.85	2986.6	
195.07	3358.7	
195.28	4476.9	
195.49	4080.2	
195.71	3603.7	
195.92	2718.3	
196.13	4673.5	
196.35	4719.9	
196.56	3745.7	
196.78	3007.8	
196.99	5610.8	
197.2	5162.2	
197.42	3333.4	
197.63	2998.9	
197.84	4140.3	
198.06	4635.9	
198.27	2805	
198.48	3506.8	
198.7	4357.4	
198.91	4552	
199.13	3042.6	
199.34	3069.2	
199.55	4939	
199.77	3958	
199.98	2774.3	
200.19	3083.6	
200.41	4485.1	
200.62	4259.1	
200.83	3099.9	
201.05	3390.1	
201.26	4502.8	
201.47	4316.4	
201.69	2762	
201.9	2663.7	
202.11	4562.9	
202.33	5134.3	
202.54	2892.4	
202.76	3177.8	
202.97	4511	
203.18	4662.5	
203.4	3135.4	
203.61	3192.8	
203.82	4584.7	
204.04	4331.5	
204.25	3039.2	
204.46	2973	
204.68	4520.5	
204.89	4633.9	
205.1	2939.5	
205.32	2599.6	
205.53	4777.2	
205.74	4887.1	
205.96	2368.1	
206.17	3008.5	
206.38	4756.7	
206.6	4847.5	
206.81	3408.5	
207.02	2867.2	
207.24	4726.7	
207.45	4883	
207.66	2979.1	
207.88	2548.4	
208.09	4623.6	
208.3	4496	
208.52	2719	
208.73	2999.6	
208.94	4544.4	
209.15	4917.9	
209.37	2932	
209.58	2996.9	
209.79	4876.2	
210.01	4360.8	
210.22	2447.3	
210.43	2551.8	
210.65	4450.9	
210.86	4743.8	
211.07	2895.1	
211.29	2708.1	
211.5	4603.8	
211.71	4442.7	
211.93	2715.6	
212.14	2721.1	
212.35	4481.6	
212.56	4504.2	
212.78	3032.4	
212.99	2564.1	
213.2	5152.7	
213.42	4401.1	
213.63	2822.8	
213.84	2903.3	
214.06	4166.9	
214.27	4169	
214.48	2867.2	
214.69	3136.1	
214.91	4955.4	
215.12	4990.9	
215.33	3046.7	
215.55	3299.3	
215.76	5294.7	
215.97	4726	
216.18	2957.3	
216.4	2919.7	
216.61	4267.3	
216.82	4812	
217.04	2751.8	
217.25	2837.8	
217.46	4900.1	
217.67	4754	
217.89	2532.7	
218.1	2587.3	
218.31	4556.7	
218.53	4701.5	
218.74	2910.2	
218.95	2759.3	
219.16	4472.1	
219.38	5116.5	
219.59	2741.5	
219.8	3223.5	
220.01	5459.9	
220.23	4569.7	
220.44	3409.9	
220.65	2734.7	
220.87	4635.9	
221.08	4894	
221.29	2564.7	
221.5	3215.3	
221.72	5672.9	
221.93	4276.8	
222.14	3001	
222.35	3507.5	
222.57	4513	
222.78	4783.4	
222.99	2933.4	
223.2	3074.7	
223.42	4685.8	
223.63	4748.6	
223.84	2308.7	
224.05	2394.8	
224.27	5361.6	
224.48	5076.2	
224.69	3524.6	
224.9	3072.6	
225.12	4597	
225.33	4468	
225.54	2566.1	
225.75	2744.3	
225.97	4261.8	
226.18	4507.6	
226.39	2897.2	
226.6	2794.8	
226.82	4348.5	
227.03	4197	
227.24	3001.6	
227.45	2609.8	
227.67	4788.2	
227.88	4957.4	
228.09	3414.6	
228.3	3323.2	
228.52	4714.4	
228.73	4463.2	
228.94	2824.1	
229.15	2615.9	
229.36	4484.4	
229.58	4575.8	
229.79	2899.9	
230	3250.1	
230.21	5222.3	
230.43	4577.9	
230.64	3050.1	
230.85	3102	
231.06	4822.3	
231.28	4812.7	
231.49	2601.6	
231.7	3015.3	
231.91	4803.9	
232.12	4505.5	
232.34	2742.9	
232.55	2980.5	
232.76	4958.1	
232.97	4588.8	
233.18	2689.7	
233.4	3020.1	
233.61	4578.6	
233.82	4313.7	
234.03	2881.5	
234.25	2806.4	
234.46	5831.2	
234.67	4543.8	
234.88	3078.8	
235.09	2745	
235.31	4627	
235.52	4420.2	
235.73	2962	
235.94	2617.3	
236.15	4334.2	
236.37	5173.9	
236.58	2726.5	
236.79	2903.3	
237	4693.3	
237.21	4184.7	
237.43	3096.5	
237.64	2549.7	
237.85	7057.3	
238.06	4276.8	
238.27	3052.8	
238.48	2629.6	
238.7	4751.3	
238.91	4359.4	
239.12	2909.5	
239.33	3000.3	
239.54	4189.5	
239.76	4454.3	
239.97	2923.1	
240.18	2952.5	
240.39	5237.3	
240.6	4552	
240.82	3067.2	
241.03	2608.4	
241.24	4458.4	
241.45	5028.4	
241.66	2697.2	
241.87	3155.2	
242.09	5061.9	
242.3	5169.1	
242.51	3116.3	
242.72	2883.5	
242.93	4760.2	
243.14	4482.3	
243.36	3353.2	
243.57	3486.3	
243.78	5072.8	
243.99	4757.4	
244.2	2917.7	
244.41	2648	
244.63	4213.4	
244.84	4697.4	
245.05	3048.7	
245.26	2858.3	
245.47	4764.3	
245.68	4805.9	
245.9	3673.4	
246.11	3037.8	
246.32	4354.7	
246.53	4635.2	
246.74	4447.5	
246.95	2563.4	
247.16	4272.1	
247.38	4533.5	
247.59	2560.6	
247.8	2929.3	
248.01	4260.5	
248.22	4511.7	
248.43	2719.7	
248.64	2887.6	
248.86	4217.5	
249.07	4312.3	
249.28	2703.3	
249.49	2992.8	
249.7	4891.2	
249.91	4831.8	
250.12	2523.8	
250.34	2600.2	
250.55	4590.2	
250.76	4550.6	
250.97	3067.9	
251.18	3029.6	
251.39	4884.4	
251.6	4637.3	
251.81	3061	
252.03	3020.1	
252.24	4411.3	
252.45	4745.8	
252.66	2610.5	
252.87	3163.4	
253.08	4513.7	
253.29	5603.2	
253.5	2634.4	
253.72	3474	
253.93	4497.3	
254.14	5143.1	
254.35	2863.1	
254.56	2845.3	
254.77	4625	
254.98	4274.8	
255.19	2799.6	
255.41	3459.7	
255.62	4674.1	
255.83	4889.2	
256.04	3150.5	
256.25	2957.9	
256.46	5279.7	
256.67	4331.5	
256.88	3005.7	
257.09	3259.7	
257.31	4222.2	
257.52	4298	
257.73	3656.3	
257.94	2801.6	
258.15	4499.4	
258.36	4473.4	
258.57	3393.5	
258.78	2332	
258.99	4795	
259.2	4397	
259.41	2813.9	
259.63	2897.2	
259.84	5070.1	
260.05	5259.9	
260.26	3534.1	
260.47	2784.6	
260.68	4842.8	
260.89	4407.2	
261.1	3297.2	
261.31	2766.8	
261.52	4955.4	
261.73	5110.4	
261.95	3539.6	
262.16	3073.3	
262.37	4928.1	
262.58	5036.6	
262.79	3545	
263	2850.8	
263.21	4587.4	
263.42	4115.7	
263.63	3086.3	
263.84	2872.6	
264.05	4868	
264.26	5059.8	
264.47	3379.8	
264.69	3095.8	
264.9	5075.5	
265.11	4620.2	
265.32	2738.8	
265.53	2796.8	
265.74	4564.9	
265.95	4108.9	
266.16	2966.1	
266.37	3191.4	
266.58	4591.5	
266.79	4392.9	
267	2831	
267.21	2696.5	
267.42	4250.9	
267.63	4528.7	
267.84	2937.5	
268.06	2598.9	
268.27	4874.2	
268.48	4937.7	
268.69	2885.6	
268.9	3320.4	
269.11	4976.6	
269.32	4121.9	
269.53	2919.7	
269.74	2725.2	
269.95	4652.3	
270.16	4134.8	
270.37	2983.2	
270.58	3308.2	
270.79	4389.5	
271	4848.2	
271.21	3055.6	
271.42	2968.2	
271.63	4682.3	
271.84	4173.8	
272.05	2500.6	
272.26	2668.5	
272.47	4488.5	
272.68	4590.9	
272.89	2869.9	
273.11	3115	
273.32	4298.7	
273.53	5072.1	
273.74	3100.6	
273.95	3026.9	
274.16	4765.6	
274.37	4515.8	
274.58	3248.8	
274.79	2678.1	
275	4642.7	
275.21	4863.9	
275.42	3729.4	
275.63	3179.8	
275.84	4713.7	
276.05	5543.2	
276.26	3041.2	
276.47	2865.1	
276.68	4475.5	
276.89	5181.4	
277.1	3194.1	
277.31	2592.7	
277.52	4672.1	
277.73	4922.6	
277.94	2575.7	
278.15	2830.3	
278.36	4668	
278.57	4291.9	
278.78	2811.2	
278.99	3112.9	
279.2	4356.7	
279.41	4246.8	
279.62	3639.9	
279.83	2624.8	
280.04	5274.2	
280.25	4242	
280.46	3535.5	
280.67	2920.4	
280.88	4298.7	
281.09	4912.4	
281.3	3114.3	
281.51	3695.9	
281.72	4338.3	
281.93	4821.6	
282.14	2808.4	
282.35	2987.3	
282.56	4858.5	
282.77	4780.6	
282.98	2838.5	
283.19	3336.8	
283.4	5685.8	
283.61	4433.9	
283.82	2711.5	
284.03	3491.8	
284.24	4703.5	
284.45	4890.5	
284.66	3565.5	
284.87	3349.8	
285.08	4934.9	
285.29	4958.8	
285.5	2582.5	
285.71	2891.7	
285.92	4883.7	
286.12	5321.3	
286.33	3565.5	
286.54	2990.7	
286.75	4795.7	
286.96	4442	
287.17	2681.5	
287.38	3376.4	
287.59	4292.5	
287.8	4330.8	
288.01	2841.9	
288.22	3190.7	
288.43	4723.3	
288.64	4074.8	
288.85	3310.9	
289.06	3203.7	
289.27	4827.7	
289.48	5040.1	
289.69	3558	
289.9	3235.1	
290.11	4994.3	
290.32	4404.5	
290.53	3296.5	
290.74	3072	
290.94	4816.8	
291.15	4807.9	
291.36	2799.6	
291.57	3225.6	
291.78	4414.1	
291.99	4171.7	
292.2	2729.3	
292.41	3143.6	
292.62	4883.7	
292.83	4709.6	
293.04	3710.2	
293.25	2778.4	
293.46	4433.9	
293.67	4890.5	
293.88	2704	
294.09	2689	
294.29	4256.4	
294.5	4620.2	
294.71	2923.1	
294.92	2800.3	
295.13	4397.7	
295.34	5238	
295.55	2538.1	
295.76	2625.5	
295.97	4771.1	
296.18	5242.8	
296.39	2690.3	
296.6	2755.9	
296.81	4547.2	
297.01	4772.4	
297.22	2876.7	
297.43	2797.5	
297.64	4421.6	
297.85	4212	
298.06	2404.3	
298.27	2566.8	
298.48	4465.3	
298.69	4279.6	
298.9	3017.3	
299.11	2790.7	
299.31	4265.2	
299.52	4231.1	
299.73	3154.6	
299.94	3071.3	
300.15	4498	
300.36	4285	
300.57	3110.9	
300.78	3092.4	
300.99	4412	
301.2	4587.4	
301.4	2821.4	
301.61	2923.1	
301.82	4789.5	
302.03	4771.1	
302.24	3287.7	
302.45	2686.3	
302.66	4702.1	
302.87	4891.9	
303.08	2767.5	
303.29	3586	
303.49	4397	
303.7	4497.3	
303.91	2546.3	
304.12	3475.4	
304.33	4147.8	
304.54	4619.5	
304.75	2871.3	
304.96	2695.8	
305.16	4726.7	
305.37	5175.9	
305.58	2512.2	
305.79	2539.5	
306	4698	
306.21	4112.3	
306.42	2769.5	
306.63	4012.7	
306.83	4392.9	
307.04	4741	
307.25	3009.1	
307.46	2929.3	
307.67	4053.6	
307.88	4751.3	
308.09	2818.7	
308.29	2807.8	
308.5	4635.2	
308.71	4838	
308.92	2948.4	
309.13	2717	
309.34	4518.5	
309.55	4446.8	
309.75	3390.8	
309.96	3103.4	
310.17	4788.8	
310.38	4312.3	
310.59	3199.6	
310.8	2628.2	
311.01	5176.6	
311.21	4488.5	
311.42	2712.9	
311.63	2755.2	
311.84	4341	
312.05	4567	
312.26	3117.7	
312.46	3282.9	
312.67	4452.3	
312.88	4190.8	
313.09	2680.8	
313.3	2690.3	
313.51	4993.6	
313.71	5268.7	
313.92	2716.3	
314.13	2805.7	
314.34	4601.8	
314.55	4493.9	
314.76	3327.9	
314.96	3038.5	
315.17	4637.3	
315.38	4670.7	
315.59	2732.7	
315.8	2677.4	
316.01	4973.2	
316.21	5067.4	
316.42	2648.7	
316.63	2972.3	
316.84	4446.8	
317.05	4913.8	
317.26	3121.8	
317.46	2824.8	
317.67	4553.3	
317.88	4761.5	
318.09	3343.7	
318.3	2540.2	
318.5	4397.7	
318.71	4658.4	
318.92	4042.7	
319.13	3092.4	
319.34	4816.8	
319.54	4938.3	
319.75	2615.9	
319.96	2464.4	
320.17	4721.3	
320.38	4830.5	
320.58	2571.6	
320.79	2885.6	
321	4917.2	
321.21	4941.7	
321.42	2958.6	
321.62	2562.7	
321.83	4339	
322.04	4504.2	
322.25	2891	
322.46	2693.8	
322.66	4558.8	
322.87	4721.3	
323.08	3250.1	
323.29	2624.1	
323.5	5223.7	
323.7	4212	
323.91	3510.2	
324.12	3188.7	
324.33	4621.6	
324.53	4738.3	
324.74	3099.3	
324.95	3215.3	
325.16	4184	
325.37	4412	
325.57	2704	
325.78	2779.1	
325.99	4599.7	
326.2	4116.4	
326.4	3686.3	
326.61	2542.9	
326.82	4502.1	
327.03	4574.5	
327.24	3679.5	
327.44	3430.3	
327.65	4737	
327.86	3952.6	
328.07	3099.3	
328.27	2669.9	
328.48	4997	
328.69	4216.1	
328.9	3704.1	
329.1	2781.8	
329.31	4475.5	
329.52	4977.9	
329.73	2750.4	
329.93	2945	
330.14	4601.1	
330.35	4615.4	
330.56	4155.3	
330.76	3250.8	
330.97	4433.9	
331.18	4569	
331.39	2973	
331.59	2489.6	
331.8	4917.2	
332.01	4932.9	
332.22	2825.5	
332.42	3059	
332.63	4627.7	
332.84	4301.4	
333.05	3045.3	
333.25	2790.7	
333.46	4284.4	
333.67	4500.8	
333.88	2860.3	
334.08	3007.8	
334.29	5753.4	
334.5	4878.3	
334.7	2682.8	
334.91	3616	
335.12	4184	
335.33	4702.8	
335.53	3022.1	
335.74	4045.4	
335.95	4480.3	
336.16	4197	
336.36	2981.2	
336.57	3362.8	
336.78	4177.2	
336.98	4891.9	
337.19	3549.1	
337.4	2933.4	
337.61	5283.1	
337.81	4227.7	
338.02	2797.5	
338.23	3393.5	
338.43	5064.6	
338.64	4296.6	
338.85	2723.1	
339.05	3422.2	
339.26	5130.8	
339.47	4154	
339.68	2740.9	
339.88	3771.7	
340.09	4773.1	
340.3	4827.1	
340.5	3097.9	
340.71	2522.4	
340.92	4214.7	
341.13	4924.7	
341.33	2667.1	
341.54	3099.3	
341.75	4669.4	
341.95	4407.2	
342.16	3038.5	
342.37	3235.8	
342.57	4257.7	
342.78	4432.5	
342.99	3196.2	
343.19	2529.2	
343.4	4799.1	
343.61	4700.1	
343.81	2915.6	
344.02	2645.3	
344.23	4798.4	
344.43	4995	
344.64	3272	
344.85	3207.8	
345.06	4743.1	
345.26	4833.9	
345.47	3109.5	
345.68	3544.4	
345.88	4130.8	
346.09	4786.1	
346.3	3107.5	
346.5	2483.5	
346.71	4446.8	
346.92	4317.1	
347.12	2618.7	
347.33	3026.9	
347.54	4824.3	
347.74	5058.5	
347.95	3043.3	
348.16	2480.1	
348.36	4355.3	
348.57	4240	
348.78	3114.3	
348.98	3194.8	
349.19	4504.8	
349.39	4088.4	
349.6	2585.9	
349.81	2760.7	
350.01	4730.1	
350.22	4294.6	
350.43	3031	
350.63	3490.4	
350.84	4509.6	
351.05	4302.1	
351.25	2755.2	
351.46	2561.3	
351.67	4817.5	
351.87	4282.3	
352.08	2936.1	
352.29	3225.6	
352.49	4818.9	
352.7	4582	
352.9	2678.1	
353.11	3204.4	
353.32	5231.9	
353.52	4407.9	
353.73	2748.4	
353.94	3278.1	
354.14	4730.8	
354.35	4481.6	
354.55	2783.2	
354.76	3001.6	
354.97	4728.8	
355.17	4493.2	
355.38	2709.5	
355.59	3475.4	
355.79	4288.4	
356	4506.9	
356.2	3010.5	
356.41	2722.4	
356.62	4224.3	
356.82	4502.8	
357.03	3211.2	
357.24	2861.7	
357.44	4314.4	
357.65	4422.2	
357.85	3670.6	
358.06	3033	
358.27	4111.6	
358.47	4304.1	
358.68	2681.5	
358.88	3220.1	
359.09	4658.4	
359.3	4791.6	
359.5	3667.9	
359.71	3265.1	
359.91	5085.8	
360.12	4742.4	
360.33	3218.7	
360.53	3526.6	
360.74	4368.3	
360.94	4446.1	
361.15	3383.2	
361.36	2820.1	
361.56	4909.7	
361.77	4556.7	
361.97	3704.8	
362.18	3026.9	
362.38	4938.3	
362.59	4317.8	
362.8	2876.7	
363	2730.6	
363.21	4164.9	
363.41	4624.3	
363.62	3194.8	
363.83	3775.8	
364.03	4795	
364.24	5269.4	
364.44	3942.3	
364.65	3860.4	
364.85	4534.2	
365.06	4350.6	
365.27	2967.5	
365.47	3074	
365.68	5122	
365.88	4518.5	
366.09	3267.9	
366.29	3008.5	
366.5	4691.9	
366.71	4930.8	
366.91	3890.5	
367.12	3410.6	
367.32	5347.9	
367.53	4889.9	
367.73	3383.2	
367.94	3956.7	
368.14	4874.8	
368.35	5332.9	
368.56	3284.3	
368.76	3188.7	
368.97	4970.4	
369.17	5891.3	
369.38	3050.1	
369.58	3176.4	
369.79	4326	
369.99	5195	
370.2	3791.5	
370.4	3212.6	
370.61	4739.7	
370.82	5528.2	
371.02	3168.9	
371.23	2740.2	
371.43	4369	
371.64	5224.4	
371.84	3316.3	
372.05	3962.1	
372.25	5885.9	
372.46	4896.7	
372.66	3220.1	
372.87	3212.6	
373.07	4973.8	
373.28	6023.8	
373.48	3903.4	
373.69	3647.4	
373.9	4719.9	
374.1	4715.1	
374.31	3871.3	
374.51	3524.6	
374.72	5248.9	
374.92	4536.3	
375.13	3921.9	
375.33	3491.8	
375.54	4944.5	
375.74	4706.2	
375.95	3583.9	
376.15	4317.8	
376.36	5117.9	
376.56	4999.8	
376.77	3588	
376.97	3908.9	
377.18	5765	
377.38	5132.2	
377.59	4010.6	
377.79	3403	
378	4986.1	
378.2	5220.3	
378.41	3407.1	
378.61	3313.6	
378.82	5299.5	
379.02	4815.5	
379.23	3528	
379.43	4156	
379.64	5536.3	
379.84	5104.9	
380.05	3451.5	
380.25	3341.6	
380.46	5218.2	
380.66	4943.8	
380.87	4189.5	
381.07	4487.1	
381.28	5564.3	
381.48	5195	
381.69	3392.8	
381.89	3489.1	
382.1	4614.1	
382.3	5169.8	
382.51	4058.4	
382.71	4662.5	
382.91	5105.6	
383.12	5449	
383.32	3635.8	
383.53	3758	
383.73	5029.1	
383.94	5018.9	
384.14	3806.5	
384.35	3231	
384.55	4894	
384.76	5098.1	
384.96	3618.1	
385.17	3799.7	
385.37	5140.4	
385.58	4633.2	
385.78	3807.9	
385.98	3153.2	
386.19	4851.6	
386.39	5139.7	
386.6	3477.5	
386.8	3560.1	
387.01	5180.7	
387.21	5208.7	
387.42	3843.4	
387.62	4227	
387.83	4850.3	
388.03	5019.6	
388.23	3756	
388.44	4194.9	
388.64	4657.1	
388.85	4718.5	
389.05	3936.2	
389.26	4280.3	
389.46	6092	
389.67	5591.6	
389.87	3994.9	
390.07	3926.6	
390.28	5077.6	
390.48	4778.6	
390.69	3501.3	
390.89	3742.3	
391.1	4986.8	
391.3	5514.5	
391.5	4429.1	
391.71	4816.8	
391.91	5427.1	
392.12	5868.8	
392.32	4521.2	
392.53	3960.8	
392.73	5085.1	
392.93	5061.2	
393.14	3761.4	
393.34	4328	
393.55	5338.4	
393.75	5003.9	
393.95	3792.8	
394.16	3679.5	
394.36	4947.9	
394.57	5356.1	
394.77	3445.4	
394.98	3693.2	
395.18	5007.3	
395.38	4973.2	
395.59	4293.2	
395.79	3633.8	
396	5085.1	
396.2	5442.1	
396.4	4200.4	
396.61	4242	
396.81	5400.5	
397.02	5097.4	
397.22	4477.5	
397.42	4464.6	
397.63	5599.8	
397.83	5170.4	
398.04	3781.2	
398.24	4095.9	
398.44	5402.5	
398.65	4895.3	
398.85	3706.1	
399.05	3732.1	
399.26	5233.9	
399.46	6136.4	
399.67	4063.9	
399.87	3854.3	
400.07	5408	
400.28	5531.6	
400.48	3848.1	
400.69	4528.7	
400.89	5748	
401.09	6037.4	
401.3	3938.2	
401.5	4590.2	
401.7	6143.9	
401.91	6335	
402.11	4275.5	
402.32	4279.6	
402.52	5913.2	
402.72	5740.5	
402.93	4434.5	
403.13	3657	
403.33	6265.4	
403.54	5371.1	
403.74	4197.7	
403.94	4700.1	
404.15	5443.5	
404.35	6128.9	
404.56	3938.9	
404.76	5063.3	
404.96	5721.3	
405.17	5519.3	
405.37	4580.6	
405.57	4306.9	
405.78	5774.6	
405.98	5420.3	
406.18	4072	
406.39	4624.3	
406.59	5797.8	
406.79	5431.9	
407	3956	
407.2	3974.4	
407.4	6100.2	
407.61	5907	
407.81	4085.7	
408.01	5189.6	
408.22	5225.7	
408.42	6334.4	
408.62	4813.4	
408.83	4526.7	
409.03	5714.5	
409.23	5702.2	
409.44	4650.3	
409.64	4823	
409.84	6504.3	
410.05	6535.1	
410.25	4930.8	
410.45	4758.8	
410.66	6275	
410.86	7782.3	
411.06	5157.5	
411.27	5040.1	
411.47	7813.7	
411.67	6461.3	
411.88	5213.4	
412.08	5447.6	
412.28	6887.3	
412.49	7202	
412.69	5238	
412.89	5315.8	
413.09	7169.9	
413.3	7131	
413.5	5423.7	
413.7	5175.2	
413.91	6642.9	
414.11	7238.9	
414.31	5314.5	
414.52	5694	
414.72	7087.3	
414.92	6974.7	
415.12	5313.8	
415.33	5750	
415.53	7296.2	
415.73	7399.3	
415.94	5943.9	
416.14	5610.8	
416.34	6784.2	
416.55	6564.4	
416.75	6397.9	
416.95	6058.6	
417.15	7529	
417.36	7712.7	
417.56	6625.9	
417.76	6016.9	
417.97	7609.6	
418.17	7495.6	
418.37	5788.9	
418.57	5779.4	
418.78	7471.7	
418.98	7151.5	
419.18	6451.8	
419.38	6254.5	
419.59	7188.4	
419.79	6941.2	
419.99	5808	
420.2	5914.5	
420.4	7605.5	
420.6	7494.9	
420.8	5625.8	
421.01	5541.1	
421.21	7475.1	
421.41	7516.7	
421.61	5939.1	
421.82	5692	
422.02	7182.2	
422.22	7736.5	
422.42	6280.4	
422.63	5952.8	
422.83	7219.8	
423.03	8042.4	
423.23	6069.5	
423.44	5386.8	
423.64	7206.1	
423.84	6921.5	
424.04	5634.6	
424.25	5494	
424.45	7728.4	
424.65	7669.6	
424.85	5363.6	
425.06	5671.5	
425.26	7817.1	
425.46	7144.7	
425.66	5955.5	
425.87	5771.9	
426.07	7591.8	
426.27	7365.2	
426.47	5902.9	
426.67	5417.6	
426.88	7763.8	
427.08	7420.5	
427.28	6040.8	
427.48	5372.5	
427.69	6792.4	
427.89	7124.9	
428.09	5969.1	
428.29	5445.5	
428.5	7464.2	
428.7	7345.4	
428.9	5445.5	
429.1	5692	
429.3	7222.5	
429.51	7458	
429.71	5611.4	
429.91	6171.2	
430.11	7599.3	
430.31	7963.2	
430.52	5760.3	
430.72	6079.1	
430.92	7970	
431.12	7565.2	
431.32	5732.3	
431.53	5973.9	
431.73	7011.6	
431.93	7956.4	
432.13	5626.5	
432.33	5525.4	
432.54	7239.6	
432.74	7453.9	
432.94	5621.7	
433.14	6280.4	
433.34	7750.9	
433.55	7473	
433.75	6297.5	
433.95	7537.2	
434.15	7674.4	
434.35	7391.8	
434.56	5854.5	
434.76	5642.8	
434.96	7644.4	
435.16	7824.6	
435.36	5831.2	
435.56	6613.6	
435.77	7503.1	
435.97	7655.3	
436.17	7010.9	
436.37	6627.2	
436.57	7563.1	
436.78	7580.2	
436.98	7658.7	
437.18	6956.9	
437.38	8045.8	
437.58	7655.3	
437.78	7032.7	
437.99	6229.2	
438.19	8011.7	
438.39	8512	
438.59	6209.4	
438.79	5779.4	
438.99	8367.3	
439.2	7610.9	
439.4	5724.8	
439.6	5812.1	
439.8	7752.2	
440	8367.3	
440.2	6476.4	
440.4	6599.9	
440.61	8041	
440.81	8521.6	
441.01	6151.4	
441.21	6853.9	
441.41	8699.8	
441.61	8294.3	
441.81	7054.6	
442.02	7731.8	
442.22	8948.9	
442.42	8498.4	
442.62	6450.4	
442.82	6457.2	
443.02	8820.6	
443.22	8268.3	
443.43	6811.5	
443.63	6406.7	
443.83	8042.4	
444.03	8044.4	
444.23	7393.8	
444.43	7038.9	
444.63	8448.6	
444.83	9071.8	
445.04	6706.4	
445.24	7428	
445.44	8634.2	
445.64	8699.8	
445.84	7082.6	
446.04	7122.8	
446.24	8200.7	
446.44	8817.9	
446.65	6494.8	
446.85	6796.5	
447.05	7972.7	
447.25	8705.9	
447.45	6836.8	
447.65	6438.8	
447.85	8245.8	
448.05	7892.9	
448.25	7026.6	
448.46	6972.7	
448.66	8353	
448.86	8012.3	
449.06	6395.1	
449.26	7061.4	
449.46	8620.6	
449.66	8039	
449.86	6976.7	
450.06	6839.5	
450.26	8170.7	
450.47	8524.3	
450.67	6913.3	
450.87	7292.8	
451.07	8759.2	
451.27	8539.3	
451.47	6637.5	
451.67	7231.4	
451.87	8435.6	
452.07	8961.9	
452.27	6899.6	
452.47	6804.7	
452.67	8527.1	
452.88	8819.9	
453.08	6288.6	
453.28	7698.3	
453.48	9400.2	
453.68	8389.2	
453.88	6878.4	
454.08	6920.8	
454.28	8886.1	
454.48	8555	
454.68	7288	
454.88	7578.2	
455.08	8877.3	
455.28	8814.5	
455.48	6693.4	
455.68	7408.2	
455.89	9378.3	
456.09	9129.2	
456.29	7147.4	
456.49	7302.4	
456.69	9392.7	
456.89	8690.9	
457.09	7612.3	
457.29	7985	
457.49	9127.8	
457.69	9364.7	
457.89	7822.6	
458.09	7137.2	
458.29	9243.2	
458.49	9599.5	
458.69	7991.2	
458.89	7613	
459.09	9884.9	
459.29	9876	
459.49	7675.8	
459.69	8230.8	
459.9	9657.5	
460.1	9405.6	
460.3	7615.7	
460.5	7447.8	
460.7	9665	
460.9	9418.6	
461.1	7417.1	
461.3	8247.2	
461.5	10126	
461.7	9903.3	
461.9	7912.7	
462.1	8049.9	
462.3	9813.2	
462.5	10084	
462.7	8004.8	
462.9	8079.9	
463.1	10818	
463.3	10681	
463.5	8270.4	
463.7	9190.6	
463.9	10112	
464.1	10402	
464.3	8676.6	
464.5	8743.5	
464.7	10542	
464.9	10572	
465.1	9568.8	
465.3	9114.8	
465.5	10832	
465.7	11049	
465.9	9377.6	
466.1	8966.7	
466.3	11024	
466.5	10650	
466.7	9891	
466.9	9026.1	
467.1	10946	
467.3	11465	
467.5	10025	
467.7	9246.6	
467.9	11631	
468.1	12271	
468.3	9646.6	
468.5	10023	
468.7	10976	
468.9	10934	
469.1	9568.1	
469.3	10106	
469.5	12430	
469.7	10943	
469.9	9873.9	
470.1	9530.6	
470.3	11225	
470.5	11224	
470.7	10350	
470.9	9610.4	
471.1	11144	
471.3	11166	
471.5	9461.6	
471.69	10524	
471.89	11002	
472.09	10552	
472.29	9824.8	
472.49	9852.1	
472.69	10750	
472.89	11151	
473.09	9401.5	
473.29	9224.7	
473.49	10870	
473.69	10748	
473.89	9871.2	
474.09	9364	
474.29	11676	
474.49	11351	
474.69	10081	
474.89	9447.3	
475.09	10886	
475.29	10880	
475.49	9146.9	
475.69	9454.8	
475.88	11706	
476.08	11187	
476.28	9119.6	
476.48	9236.3	
476.68	11280	
476.88	11107	
477.08	9160.6	
477.28	9436.4	
477.48	10667	
477.68	11118	
477.88	9043.1	
478.08	9192	
478.28	11426	
478.48	10827	
478.67	9308.7	
478.87	8720.3	
479.07	11379	
479.27	10862	
479.47	9381.1	
479.67	9475.3	
479.87	11280	
480.07	11648	
480.27	9155.1	
480.47	10001	
480.67	11012	
480.87	11477	
481.06	9238.4	
481.26	9886.9	
481.46	11125	
481.66	10935	
481.86	9663	
482.06	10148	
482.26	10839	
482.46	11318	
482.66	9578.3	
482.86	9188.6	
483.05	11311	
483.25	10713	
483.45	11116	
483.65	9504.6	
483.85	10904	
484.05	11069	
484.25	9729.2	
484.45	10231	
484.65	11529	
484.84	11882	
485.04	9557.9	
485.24	9669.1	
485.44	12054	
485.64	10922	
485.84	9323.7	
486.04	10175	
486.24	11299	
486.44	11383	
486.63	9342.2	
486.83	9943.6	
487.03	11301	
487.23	11505	
487.43	9395.4	
487.63	10985	
487.83	11574	
488.02	11998	
488.22	10147	
488.42	10682	
488.62	12018	
488.82	11441	
489.02	10025	
489.22	10228	
489.41	11969	
489.61	11889	
489.81	9940.2	
490.01	9955.2	
490.21	12213	
490.41	12741	
490.61	10062	
490.8	10122	
491	11994	
491.2	11456	
491.4	10415	
491.6	9891.7	
491.8	11850	
491.99	11796	
492.19	9701.9	
492.39	9820.7	
492.59	12095	
492.79	12091	
492.99	10478	
493.18	9986.6	
493.38	12211	
493.58	12908	
493.78	10593	
493.98	10251	
494.18	12274	
494.37	12015	
494.57	10995	
494.77	10925	
494.97	12759	
495.17	13020	
495.37	10825	
495.56	11151	
495.76	13102	
495.96	13041	
496.16	11918	
496.36	11314	
496.55	13340	
496.75	13076	
496.95	11590	
497.15	11683	
497.35	13358	
497.54	13381	
497.74	11414	
497.94	12605	
498.14	13876	
498.34	13508	
498.53	11327	
498.73	11759	
498.93	13138	
499.13	13421	
499.33	11751	
499.52	12082	
499.72	13695	
499.92	13672	
500.12	11710	
500.32	11990	
500.51	13773	
500.71	13727	
500.91	12390	
501.11	12040	
501.31	13885	
501.5	14150	
501.7	12805	
501.9	12155	
502.1	13634	
502.29	13877	
502.49	12341	
502.69	12454	
502.89	13839	
503.09	13863	
503.28	11472	
503.48	11630	
503.68	13235	
503.88	13369	
504.07	12271	
504.27	11729	
504.47	13504	
504.67	13467	
504.86	12112	
505.06	11891	
505.26	13232	
505.46	14131	
505.65	11832	
505.85	11747	
506.05	13126	
506.25	13466	
506.44	11247	
506.64	11610	
506.84	12775	
507.04	13300	
507.23	11226	
507.43	11429	
507.63	13940	
507.83	12904	
508.02	11548	
508.22	11146	
508.42	14201	
508.62	12682	
508.81	11311	
509.01	11909	
509.21	12572	
509.4	12920	
509.6	11557	
509.8	11194	
510	12829	
510.19	13632	
510.39	11015	
510.59	11245	
510.79	12810	
510.98	13717	
511.18	11364	
511.38	11500	
511.57	13396	
511.77	13151	
511.97	11738	
512.17	11185	
512.36	13385	
512.56	13078	
512.76	11090	
512.95	10862	
513.15	13364	
513.35	12513	
513.55	11715	
513.74	11129	
513.94	13266	
514.14	12857	
514.33	11702	
514.53	11572	
514.73	12894	
514.92	13050	
515.12	11265	
515.32	11151	
515.51	13146	
515.71	13390	
515.91	12329	
516.11	11283	
516.3	14293	
516.5	12957	
516.7	11724	
516.89	12056	
517.09	13078	
517.29	13096	
517.48	11928	
517.68	11480	
517.88	12842	
518.07	13285	
518.27	11905	
518.47	11249	
518.66	13665	
518.86	12712	
519.06	11157	
519.25	11348	
519.45	13042	
519.65	13998	
519.84	11878	
520.04	12404	
520.24	14257	
520.43	13412	
520.63	11621	
520.83	11602	
521.02	12917	
521.22	13340	
521.42	11857	
521.61	12109	
521.81	13063	
522.01	13089	
522.2	11672	
522.4	11391	
522.6	13422	
522.79	12537	
522.99	11645	
523.18	11226	
523.38	13436	
523.58	13480	
523.77	12667	
523.97	11446	
524.17	14739	
524.36	14247	
524.56	12628	
524.76	12268	
524.95	13853	
525.15	13623	
525.34	12331	
525.54	12564	
525.74	14319	
525.93	13653	
526.13	13474	
526.33	12620	
526.52	14688	
526.72	14416	
526.91	13467	
527.11	13047	
527.31	14919	
527.5	15108	
527.7	13214	
527.89	12658	
528.09	14231	
528.29	14607	
528.48	13319	
528.68	13011	
528.87	14917	
529.07	14903	
529.27	13227	
529.46	12910	
529.66	14926	
529.85	15115	
530.05	12939	
530.25	13485	
530.44	15724	
530.64	14824	
530.83	13264	
531.03	13398	
531.23	15212	
531.42	14828	
531.62	13693	
531.81	13166	
532.01	15209	
532.21	15442	
532.4	13364	
532.6	13687	
532.79	15872	
532.99	15758	
533.18	13903	
533.38	14466	
533.58	15737	
533.77	15856	
533.97	14171	
534.16	14609	
534.36	16150	
534.55	15769	
534.75	14789	
534.95	14208	
535.14	16346	
535.34	15700	
535.53	14001	
535.73	15260	
535.92	16817	
536.12	15705	
536.31	14216	
536.51	14782	
536.71	15978	
536.9	15608	
537.1	14037	
537.29	14189	
537.49	16059	
537.68	15552	
537.88	14476	
538.07	13729	
538.27	15803	
538.46	16490	
538.66	13867	
538.86	14177	
539.05	15900	
539.25	16231	
539.44	14695	
539.64	14090	
539.83	15828	
540.03	16516	
540.22	14036	
540.42	14066	
540.61	15924	
540.81	16057	
541	14251	
541.2	14786	
541.39	15578	
541.59	15767	
541.78	14724	
541.98	13920	
542.18	15141	
542.37	15154	
542.57	14011	
542.76	14521	
542.96	15275	
543.15	15602	
543.35	14007	
543.54	13511	
543.74	15370	
543.93	15470	
544.13	13723	
544.32	14276	
544.52	15441	
544.71	14904	
544.91	13138	
545.1	13773	
545.3	14919	
545.49	15304	
545.69	13027	
545.88	13413	
546.08	15977	
546.27	15516	
546.47	13654	
546.66	13192	
546.86	15326	
547.05	15538	
547.24	13393	
547.44	13459	
547.63	14573	
547.83	15463	
548.02	13543	
548.22	13616	
548.41	14529	
548.61	15296	
548.8	13146	
549	13054	
549.19	14999	
549.39	15055	
549.58	12843	
549.78	13203	
549.97	15087	
550.17	14626	
550.36	13605	
550.55	14375	
550.75	14621	
550.94	15214	
551.14	12889	
551.33	12985	
551.53	14165	
551.72	14637	
551.92	13104	
552.11	12934	
552.31	14846	
552.5	14659	
552.69	13927	
552.89	12552	
553.08	14734	
553.28	14397	
553.47	12866	
553.67	13548	
553.86	14941	
554.06	14005	
554.25	12190	
554.44	12672	
554.64	15409	
554.83	15184	
555.03	12577	
555.22	12873	
555.42	14758	
555.61	14604	
555.8	12645	
556	12804	
556.19	14005	
556.39	14515	
556.58	12570	
556.78	12609	
556.97	14410	
557.16	14132	
557.36	13471	
557.55	12389	
557.75	13628	
557.94	14900	
558.13	12353	
558.33	12349	
558.52	14820	
558.72	13872	
558.91	12358	
559.1	12452	
559.3	13817	
559.49	13515	
559.69	12260	
559.88	12571	
560.07	14193	
560.27	14459	
560.46	12781	
560.66	12767	
560.85	14146	
561.04	13422	
561.24	12249	
561.43	12238	
561.63	13657	
561.82	13867	
562.01	12950	
562.21	12443	
562.4	13938	
562.59	14724	
562.79	12334	
562.98	12159	
563.18	14011	
563.37	14941	
563.56	12724	
563.76	12357	
563.95	13731	
564.14	13777	
564.34	12480	
564.53	12231	
564.73	14235	
564.92	14526	
565.11	12639	
565.31	12255	
565.5	14563	
565.69	13820	
565.89	12392	
566.08	12611	
566.27	14579	
566.47	14754	
566.66	13123	
566.85	12215	
567.05	14397	
567.24	13951	
567.44	12387	
567.63	13283	
567.82	14500	
568.02	14298	
568.21	12452	
568.4	12586	
568.6	14258	
568.79	14261	
568.98	12451	
569.18	12500	
569.37	14513	
569.56	15559	
569.76	12830	
569.95	13525	
570.14	14595	
570.34	14502	
570.53	12487	
570.72	12436	
570.91	14956	
571.11	14375	
571.3	12878	
571.49	13478	
571.69	14567	
571.88	14081	
572.07	13147	
572.27	13150	
572.46	14086	
572.65	14628	
572.85	12671	
573.04	12934	
573.23	14945	
573.43	14450	
573.62	12737	
573.81	13004	
574	14609	
574.2	14373	
574.39	13067	
574.58	12953	
574.78	15341	
574.97	14802	
575.16	13435	
575.36	13565	
575.55	15146	
575.74	15270	
575.93	12946	
576.13	13703	
576.32	14697	
576.51	15322	
576.71	13327	
576.9	14224	
577.09	15488	
577.28	15042	
577.48	13493	
577.67	12947	
577.86	15026	
578.05	15242	
578.25	13621	
578.44	13392	
578.63	14953	
578.83	15784	
579.02	12981	
579.21	14133	
579.4	15139	
579.6	15093	
579.79	13643	
579.98	14900	
580.17	15266	
580.37	15477	
580.56	13112	
580.75	13782	
580.94	15590	
581.14	15689	
581.33	14062	
581.52	13272	
581.71	15247	
581.91	15728	
582.1	13201	
582.29	13478	
582.48	15233	
582.68	15163	
582.87	13810	
583.06	13701	
583.25	15457	
583.45	14876	
583.64	14175	
583.83	14590	
584.02	15304	
584.21	15555	
584.41	14062	
584.6	13740	
584.79	15337	
584.98	15745	
585.18	13326	
585.37	13349	
585.56	14951	
585.75	15594	
585.94	13398	
586.14	13889	
586.33	15599	
586.52	15127	
586.71	13685	
586.91	13451	
587.1	14500	
587.29	15326	
587.48	13356	
587.67	13396	
587.87	15132	
588.06	15020	
588.25	14015	
588.44	13386	
588.63	14687	
588.83	15107	
589.02	13085	
589.21	12860	
589.4	14398	
589.59	14390	
589.78	12165	
589.98	12261	
590.17	13671	
590.36	14091	
590.55	11495	
590.74	11867	
590.94	14282	
591.13	13500	
591.32	11662	
591.51	11325	
591.7	13675	
591.89	13425	
592.09	11387	
592.28	11673	
592.47	12800	
592.66	14278	
592.85	11520	
593.05	11601	
593.24	13320	
593.43	14027	
593.62	11849	
593.81	12165	
594	13551	
594.19	13468	
594.39	11579	
594.58	11555	
594.77	13596	
594.96	13990	
595.15	11616	
595.34	11944	
595.54	13401	
595.73	12908	
595.92	11101	
596.11	11639	
596.3	13831	
596.49	13093	
596.68	11529	
596.88	11706	
597.07	13514	
597.26	12716	
597.45	11221	
597.64	11973	
597.83	13041	
598.02	13364	
598.22	11244	
598.41	11703	
598.6	13282	
598.79	12787	
598.98	11226	
599.17	11936	
599.36	13396	
599.55	13870	
599.74	12542	
599.94	12408	
600.13	13545	
600.32	12874	
600.51	11127	
600.7	11258	
600.89	13972	
601.08	13948	
601.27	11067	
601.47	11615	
601.66	13421	
601.85	13665	
602.04	11492	
602.23	11555	
602.42	12791	
602.61	13168	
602.8	11255	
602.99	11235	
603.18	12981	
603.37	13153	
603.57	11554	
603.76	11974	
603.95	13679	
604.14	13244	
604.33	11331	
604.52	11486	
604.71	13246	
604.9	12820	
605.09	11822	
605.28	11785	
605.47	13491	
605.66	13150	
605.86	11714	
606.05	11260	
606.24	13480	
606.43	12436	
606.62	11570	
606.81	11860	
607	13332	
607.19	12747	
607.38	11004	
607.57	11136	
607.76	12637	
607.95	12280	
608.14	11428	
608.33	11804	
608.52	12638	
608.72	13247	
608.91	10728	
609.1	10815	
609.29	12672	
609.48	12357	
609.67	11307	
609.86	10730	
610.05	12455	
610.24	12503	
610.43	10702	
610.62	10399	
610.81	13270	
611	13155	
611.19	10683	
611.38	11221	
611.57	12840	
611.76	13416	
611.95	10621	
612.14	10372	
612.33	12499	
612.52	12210	
612.71	10865	
612.9	10361	
613.09	11972	
613.28	13614	
613.47	10751	
613.66	11264	
613.85	12636	
614.04	12173	
614.24	10806	
614.43	10290	
614.62	12655	
614.81	12660	
615	11059	
615.19	11183	
615.38	12128	
615.57	12417	
615.76	11010	
615.95	11598	
616.14	12902	
616.33	12551	
616.52	11314	
616.71	11397	
616.9	12757	
617.09	12631	
617.28	10933	
617.47	11521	
617.66	12190	
617.85	12172	
618.04	11351	
618.22	11075	
618.41	12506	
618.6	13181	
618.79	11217	
618.98	11040	
619.17	13317	
619.36	12286	
619.55	11280	
619.74	11134	
619.93	12999	
620.12	12646	
620.31	11618	
620.5	11922	
620.69	13487	
620.88	13791	
621.07	12290	
621.26	11811	
621.45	13330	
621.64	13335	
621.83	11796	
622.02	11299	
622.21	13323	
622.4	13295	
622.59	12129	
622.78	12112	
622.97	12966	
623.16	13632	
623.35	11932	
623.54	11155	
623.72	13154	
623.91	13139	
624.1	12082	
624.29	11182	
624.48	13990	
624.67	13442	
624.86	12025	
625.05	11396	
625.24	14151	
625.43	13071	
625.62	12981	
625.81	11572	
626	13586	
626.19	13199	
626.38	11981	
626.56	11641	
626.75	13159	
626.94	13614	
627.13	12050	
627.32	11120	
627.51	13571	
627.7	14268	
627.89	11149	
628.08	12050	
628.27	12911	
628.46	13080	
628.65	11354	
628.83	11145	
629.02	13375	
629.21	12831	
629.4	11574	
629.59	11768	
629.78	12914	
629.97	13467	
630.16	11840	
630.35	11403	
630.54	13957	
630.72	13612	
630.91	11591	
631.1	11647	
631.29	13279	
631.48	13342	
631.67	11901	
631.86	11481	
632.05	13128	
632.24	13078	
632.42	11355	
632.61	11658	
632.8	13013	
632.99	12807	
633.18	11665	
633.37	11948	
633.56	13201	
633.75	13244	
633.93	11757	
634.12	11559	
634.31	13864	
634.5	13452	
634.69	11632	
634.88	11806	
635.07	13123	
635.25	13566	
635.44	12057	
635.63	12250	
635.82	12959	
636.01	12416	
636.2	12039	
636.39	11774	
636.57	13767	
636.76	13325	
636.95	11301	
637.14	12134	
637.33	13290	
637.52	13838	
637.7	11127	
637.89	11884	
638.08	12956	
638.27	13815	
638.46	11846	
638.65	12028	
638.83	13719	
639.02	12914	
639.21	11621	
639.4	11959	
639.59	13089	
639.78	12749	
639.96	11043	
640.15	11213	
640.34	12818	
640.53	12900	
640.72	10828	
640.91	11129	
641.09	12398	
641.28	13132	
641.47	11116	
641.66	11577	
641.85	12835	
642.03	12861	
642.22	11326	
642.41	11058	
642.6	12394	
642.79	11944	
642.97	10763	
643.16	11303	
643.35	12246	
643.54	12043	
643.73	10769	
643.91	11118	
644.1	11907	
644.29	12481	
644.48	10615	
644.67	10580	
644.85	11906	
645.04	12220	
645.23	10187	
645.42	10544	
645.6	11662	
645.79	12465	
645.98	10292	
646.17	9582.4	
646.36	11365	
646.54	11581	
646.73	10492	
646.92	9747	
647.11	11282	
647.29	11966	
647.48	9747.6	
647.67	9602.2	
647.86	12060	
648.05	12091	
648.23	9853.5	
648.42	10662	
648.61	11600	
648.8	11409	
648.98	9578.3	
649.17	9786.6	
649.36	11101	
649.55	10890	
649.73	9520.3	
649.92	10057	
650.11	11034	
650.3	11256	
650.48	9612.5	
650.67	9546.3	
650.86	11486	
651.05	10766	
651.23	9637.7	
651.42	9579.7	
651.61	10996	
651.79	10858	
651.98	9742.9	
652.17	9310.7	
652.36	11148	
652.54	10554	
652.73	9444.5	
652.92	9293.7	
653.11	11217	
653.29	11413	
653.48	8897.1	
653.67	9482.1	
653.85	11034	
654.04	11587	
654.23	9574.9	
654.42	9273.2	
654.6	10500	
654.79	10927	
654.98	8787.8	
655.16	9043.8	
655.35	9956.5	
655.54	9793.4	
655.73	8545.5	
655.91	8347.5	
656.1	10441	
656.29	9665.7	
656.47	8106.5	
656.66	9307.3	
656.85	10020	
657.03	10041	
657.22	8718.2	
657.41	8753	
657.59	10236	
657.78	10194	
657.97	8665	
658.16	9069.1	
658.34	10801	
658.53	11008	
658.72	9622	
658.9	9951.8	
659.09	10497	
659.28	10508	
659.46	8975.6	
659.65	8862.9	
659.84	10303	
660.02	10762	
660.21	8971.5	
660.4	8757.8	
660.58	10976	
660.77	10541	
660.96	9214.5	
661.14	8554.4	
661.33	11247	
661.52	11196	
661.7	8536.6	
661.89	10695	
662.08	10266	
662.26	9957.9	
662.45	8731.2	
662.64	8753	
662.82	10697	
663.01	10003	
663.2	8753.7	
663.38	9192	
663.57	10536	
663.75	10445	
663.94	8877.3	
664.13	9684.8	
664.31	10159	
664.5	10514	
664.69	8996.7	
664.87	9373.6	
665.06	9960	
665.25	10406	
665.43	9608.4	
665.62	9448.6	
665.8	10537	
665.99	10098	
666.18	8917.5	
666.36	8927.1	
666.55	10549	
666.74	10376	
666.92	8615.8	
667.11	9644.6	
667.29	10191	
667.48	10530	
667.67	9290.3	
667.85	8647.2	
668.04	10144	
668.22	10050	
668.41	8850	
668.6	8994.7	
668.78	9973.6	
668.97	10042	
669.15	9016.5	
669.34	8420.6	
669.53	10022	
669.71	10205	
669.9	8429.4	
670.08	8822	
670.27	9875.3	
670.46	10256	
670.64	8875.9	
670.83	9173.5	
671.01	9734.7	
671.2	10170	
671.38	8516.1	
671.57	8400.8	
671.76	10649	
671.94	10973	
672.13	8326.4	
672.31	8994	
672.5	10585	
672.69	9840.5	
672.87	8467	
673.06	8770.8	
673.24	10197	
673.43	9964.7	
673.61	8862.2	
673.8	8664.3	
673.98	10264	
674.17	10451	
674.36	9028.1	
674.54	8942.1	
674.73	10031	
674.91	10445	
675.1	8748.2	
675.28	8426	
675.47	10025	
675.65	10328	
675.84	8662.2	
676.03	8834.3	
676.21	9880.1	
676.4	9486.2	
676.58	9119.6	
676.77	8944.8	
676.95	10768	
677.14	9820	
677.32	8258.1	
677.51	8393.9	
677.69	10413	
677.88	9650.7	
678.06	8335.2	
678.25	8364.6	
678.44	9992.7	
678.62	9753.8	
678.81	8155	
678.99	8901.8	
679.18	10609	
679.36	10213	
679.55	8625.4	
679.73	8900.5	
679.92	10115	
680.1	9790	
680.29	9346.9	
680.47	8514.1	
680.66	9802.9	
680.84	10251	
681.03	8133.8	
681.21	8727.1	
681.4	9885.5	
681.58	9752.4	
681.77	8404.2	
681.95	8277.2	
682.14	10288	
682.32	10588	
682.51	8963.3	
682.69	8135.9	
682.88	9675.3	
683.06	9936.1	
683.25	8716.2	
683.43	8978.3	
683.62	9968.1	
683.8	10094	
683.99	8971.5	
684.17	8581.7	
684.36	10679	
684.54	9620.7	
684.73	7851.9	
684.91	7931.8	
685.1	9655.5	
685.28	9152.4	
685.46	7915.4	
685.65	7977.5	
685.83	9349.7	
686.02	8948.3	
686.2	7484.6	
686.39	7520.8	
686.57	8632.2	
686.76	9737.4	
686.94	7604.8	
687.13	7720.8	
687.31	9303.9	
687.5	9142.8	
687.68	7438.9	
687.86	8105.9	
688.05	10278	
688.23	8795.3	
688.42	8250.6	
688.6	7783	
688.79	9151.7	
688.97	9155.1	
689.16	8086.7	
689.34	7370	
689.52	9680.7	
689.71	9880.8	
689.89	8333.9	
690.08	7985.7	
690.26	9562.6	
690.45	9324.4	
690.63	8391.2	
690.81	8070.4	
691	9389.3	
691.18	9265.7	
691.37	8084	
691.55	9454.1	
691.74	9172.9	
691.92	10393	
692.1	8041.7	
692.29	7698.3	
692.47	9269.1	
692.66	8791.9	
692.84	7816.4	
693.02	8008.2	
693.21	8916.2	
693.39	9331.2	
693.58	8207.6	
693.76	7913.4	
693.94	10093	
694.13	10024	
694.31	8023.9	
694.5	8732.5	
694.68	9281.4	
694.86	9642.5	
695.05	8316.1	
695.23	8583.7	
695.42	9928.6	
695.6	11415	
695.78	8823.3	
695.97	8189.8	
696.15	10070	
696.34	9570.8	
696.52	8112.7	
696.7	8501.1	
696.89	9742.2	
697.07	9385.2	
697.25	8460.8	
697.44	9453.4	
697.62	9674.6	
697.81	9795.4	
697.99	8143.4	
698.17	8447.2	
698.36	9202.9	
698.54	9657.5	
698.72	8380.3	
698.91	7712	
699.09	9345.6	
699.28	9163.3	
699.46	8110	
699.64	7987.1	
699.83	9229.5	
700.01	9809.8	
700.19	8526.4	
700.38	7555.6	
700.56	9953.8	
700.74	9186.5	
700.93	7834.2	
701.11	8321.6	
701.29	9636.4	
701.48	10421	
701.66	7987.8	
701.84	8086.1	
702.03	9521	
702.21	9958.6	
702.39	7795.9	
702.58	8211	
702.76	9814.5	
702.94	9892.4	
703.13	7864.9	
703.31	9312.8	
703.49	9355.1	
703.68	10368	
703.86	7960.5	
704.04	8604.9	
704.23	9715.6	
704.41	9882.8	
704.59	8028	
704.78	8754.4	
704.96	10619	
705.14	9823.4	
705.33	7919.5	
705.51	8409	
705.69	9476.6	
705.87	10014	
706.06	8552.3	
706.24	7860.8	
706.42	9686.9	
706.61	9833.7	
706.79	8550.3	
706.97	7848.5	
707.16	9309.4	
707.34	9628.2	
707.52	8342.1	
707.7	7921.5	
707.89	9350.3	
708.07	9099.1	
708.25	8420.6	
708.44	8699.1	
708.62	9306.7	
708.8	10028	
708.98	8604.9	
709.17	8070.4	
709.35	9484.8	
709.53	9524.4	
709.72	7746.8	
709.9	7890.8	
710.08	9740.8	
710.26	9705.3	
710.45	8726.4	
710.63	7936.6	
710.81	9316.2	
710.99	9313.5	
711.18	8243.1	
711.36	7873.1	
711.54	9291.6	
711.72	9643.9	
711.91	7919.5	
712.09	7501.7	
712.27	9329.9	
712.45	9536.7	
712.64	7825.3	
712.82	7227.3	
713	8763.3	
713.18	8767.4	
713.37	7242.3	
713.55	7881.3	
713.73	9235	
713.91	8196.7	
714.1	7112.6	
714.28	6719.4	
714.46	8497.7	
714.64	7919.5	
714.83	6082.5	
715.01	6446.3	
715.19	7746.1	
715.37	7064.8	
715.55	5923.4	
715.74	6116.6	
715.92	8006.9	
716.1	6678.4	
716.28	6756.2	
716.47	6100.2	
716.65	7161.1	
716.83	7144	
717.01	5959.6	
717.19	5939.1	
717.38	8363.2	
717.56	6836.8	
717.74	6113.9	
717.92	5616.9	
718.1	7670.3	
718.29	7152.2	
718.47	5484.5	
718.65	5912.5	
718.83	7857.4	
719.01	7877.9	
719.2	5695.4	
719.38	6412.2	
719.56	7791.2	
719.74	8780.3	
719.92	6200.6	
720.11	6866.8	
720.29	7858.7	
720.47	7354.3	
720.65	5724.8	
720.83	6206	
721.02	7160.4	
721.2	7040.9	
721.38	6036	
721.56	5567.1	
721.74	6604.7	
721.92	6679.1	
722.11	6258.6	
722.29	6061.3	
722.47	7501.7	
722.65	6935.1	
722.83	5494.7	
723.01	5973.2	
723.2	7017.7	
723.38	7221.1	
723.56	5130.8	
723.74	5902.2	
723.92	6673	
724.1	7316	
724.29	5408.7	
724.47	6130.3	
724.65	6726.9	
724.83	6543.3	
725.01	5334.3	
725.19	5781.4	
725.37	6613.6	
725.56	6488.6	
725.74	5193.6	
725.92	5318.6	
726.1	6528.2	
726.28	6834.8	
726.46	5565.7	
726.64	5422.3	
726.83	6836.1	
727.01	6890.7	
727.19	5231.2	
727.37	5737.7	
727.55	6901.7	
727.73	7206.1	
727.91	5194.3	
728.09	5019.6	
728.28	7201.3	
728.46	7261.4	
728.64	5811.5	
728.82	5687.2	
729	7836.2	
729.18	7428	
729.36	5219.6	
729.54	6669.6	
729.72	8116.1	
729.91	7124.2	
730.09	6656.6	
730.27	5759.6	
730.45	7014.3	
730.63	7442.3	
730.81	6154.8	
730.99	5619.6	
731.17	7872.4	
731.35	6913.3	
731.53	5935	
731.71	5759.6	
731.9	7617.1	
732.08	7713.3	
732.26	5813.5	
732.44	5588.2	
732.62	7667.6	
732.8	7373.4	
732.98	6101.6	
733.16	5421.7	
733.34	7384.3	
733.52	6399.2	
733.7	5671.5	
733.88	5886.5	
734.07	7163.8	
734.25	7054.6	
734.43	5338.4	
734.61	6332.3	
734.79	7931.8	
734.97	6939.2	
735.15	5465.3	
735.33	5631.2	
735.51	7205.4	
735.69	6890	
735.87	6328.2	
736.05	5760.3	
736.23	7040.2	
736.41	6691.4	
736.59	5563	
736.77	5779.4	
736.95	7366.5	
737.13	6817.7	
737.32	5446.9	
737.5	5541.1	
737.68	7679.2	
737.86	6848.4	
738.04	5322.7	
738.22	6412.9	
738.4	6695.5	
738.58	6870.3	
738.76	5556.1	
738.94	4975.2	
739.12	6743.3	
739.3	6634.7	
739.48	5907.7	
739.66	5717.2	
739.84	6931.7	
740.02	6851.1	
740.2	5051.7	
740.38	5233.2	
740.56	7120.1	
740.74	6249.7	
740.92	5590.3	
741.1	5468.8	
741.28	6692.8	
741.46	6498.9	
741.64	5256.5	
741.82	5606	
742	6695.5	
742.18	6550.8	
742.36	5347.9	
742.54	5072.1	
742.72	6983.6	
742.9	6055.8	
743.08	5457.8	
743.26	4794.3	
743.44	6982.2	
743.62	6923.5	
743.8	5569.8	
743.98	5013.4	
744.16	6698.2	
744.34	6424.5	
744.52	5466	
744.7	5467.4	
744.88	6825.9	
745.06	6414.9	
745.24	5393.7	
745.42	5465.3	
745.6	6775.4	
745.78	6721.4	
745.96	4653.7	
746.14	4779.3	
746.32	7212.3	
746.5	6614.9	
746.68	5155.4	
746.86	4801.1	
747.03	6862.1	
747.21	5876.3	
747.39	5203.2	
747.57	4751.3	
747.75	6342.6	
747.93	6632.7	
748.11	4730.1	
748.29	4688.5	
748.47	7417.1	
748.65	6120	
748.83	5170.4	
749.01	5059.8	
749.19	6470.2	
749.37	5833.3	
749.55	4973.8	
749.73	4939	
749.91	6302.3	
750.09	6096.1	
750.26	4932.2	
750.44	4619.5	
750.62	6268.8	
750.8	6122.7	
750.98	4538.3	
751.16	4764.3	
751.34	6353.5	
751.52	5813.5	
751.7	5147.9	
751.88	4412	
752.06	6554.9	
752.24	6299.6	
752.42	4425	
752.59	4599.1	
752.77	6156.2	
752.95	6941.9	
753.13	5109	
753.31	4699.4	
753.49	5943.9	
753.67	6215.6	
753.85	4782.7	
754.03	4506.2	
754.21	6317.3	
754.38	6547.4	
754.56	4501.4	
754.74	3903.4	
754.92	5680.4	
755.1	5994.4	
755.28	3753.9	
755.46	3736.9	
755.64	6348.7	
755.82	6414.9	
755.99	3718.4	
756.17	3708.9	
756.35	4564.9	
756.53	5473.5	
756.71	2888.3	
756.89	3756	
757.07	5117.2	
757.25	4631.8	
757.42	3834.5	
757.6	4405.2	
757.78	5375.2	
757.96	4763.6	
758.14	3710.9	
758.32	3453.6	
758.5	4461.2	
758.67	5039.4	
758.85	3592.1	
759.03	3645.4	
759.21	5102.2	
759.39	4719.9	
759.57	3327.3	
759.75	4035.9	
759.92	5589.6	
760.1	5243.5	
760.28	4328.7	
760.46	4530.1	
760.64	5063.3	
760.82	4926	
760.99	4296.6	
761.17	3824.2	
761.35	5664	
761.53	4934.9	
761.71	4042	
761.89	4360.8	
762.06	5524.7	
762.24	5283.8	
762.42	4076.1	
762.6	3876.8	
762.78	5268.1	
762.96	5715.9	
763.13	4324.6	
763.31	4053.6	
763.49	5726.8	
763.67	5246.2	
763.85	4626.4	
764.02	4942.4	
764.2	6064.7	
764.38	5382.1	
764.56	3981.9	
764.74	4514.4	
764.91	6019.7	
765.09	5300.8	
765.27	3841.3	
765.45	3687	
765.63	6165.8	
765.8	5960.3	
765.98	3574.4	
766.16	3704.1	
766.34	4999.1	
766.52	4880.3	
766.69	4286.4	
766.87	3590.1	
767.05	5285.8	
767.23	5754.1	
767.41	3777.8	
767.58	3886.4	
767.76	5599.1	
767.94	5632.6	
768.12	3788.1	
768.29	4216.1	
768.47	5165.7	
768.65	5694	
768.83	3544.4	
769	4280.9	
769.18	5003.2	
769.36	5386.8	
769.54	4250.2	
769.72	3528	
769.89	5626.5	
770.07	5617.6	
770.25	3823.6	
770.43	4526.7	
770.6	6073.6	
770.78	6193.7	
770.96	3839.3	
771.14	4162.2	
771.31	5509.7	
771.49	5064.6	
771.67	3282.9	
771.85	3386.7	
772.02	4569.7	
772.2	4990.9	
772.38	3915	
772.55	3489.7	
772.73	5212.1	
772.91	5076.2	
773.09	3793.5	
773.26	3829	
773.44	5140.4	
773.62	5003.9	
773.8	3495.2	
773.97	3294.5	
774.15	5183.4	
774.33	4986.8	
774.5	3368.9	
774.68	3592.8	
774.86	5227.1	
775.04	5009.3	
775.21	3439.9	
775.39	3396.2	
775.57	5100.8	
775.74	5212.1	
775.92	3275.4	
776.1	3145.7	
776.27	5079	
776.45	5818.3	
776.63	3373.7	
776.81	3052.8	
776.98	4878.9	
777.16	5493.3	
777.34	3388.7	
777.51	3649.5	
777.69	4880.3	
777.87	4633.9	
778.04	3475.4	
778.22	3799	
778.4	4715.8	
778.57	5047.6	
778.75	2968.9	
778.93	3193.5	
779.1	4552	
779.28	4414.1	
779.46	2983.9	
779.64	3332	
779.81	5143.8	
779.99	5681.1	
780.17	3713	
780.34	3853.6	
780.52	4837.3	
780.69	4937.7	
780.87	3474	
781.05	3190.1	
781.22	4843.4	
781.4	4911.7	
781.58	3278.1	
781.75	2752.5	
781.93	4896	
782.11	4393.6	
782.28	3816	
782.46	3206.4	
782.64	4317.8	
782.81	4956.1	
782.99	3362.8	
783.17	3263.8	
783.34	4821.6	
783.52	4433.9	
783.69	3360.7	
783.87	3884.3	
784.05	4457.1	
784.22	4459.8	
784.4	3880.2	
784.58	3394.2	
784.75	5064.6	
784.93	4483.7	
785.1	3175	
785.28	3569.6	
785.46	4866	
785.63	4373.1	
785.81	3169.6	
785.99	3087.7	
786.16	4542.4	
786.34	4719.9	
786.51	3136.1	
786.69	3390.8	
786.87	4197	
787.04	4610	
787.22	3053.5	
787.39	3616	
787.57	4388.8	
787.75	5083.7	
787.92	3768.9	
788.1	3708.9	
788.27	4398.4	
788.45	4149.2	
788.63	3487	
788.8	2700.6	
788.98	4783.4	
789.15	4087.7	
789.33	2838.5	
789.5	3131.3	
789.68	4943.1	
789.86	5009.3	
790.03	3394.8	
790.21	3055.6	
790.38	4985.4	
790.56	4489.1	
790.73	3007.8	
790.91	2961.4	
791.09	4319.8	
791.26	4802.5	
791.44	3168.2	
791.61	2765.4	
791.79	4389.5	
791.96	4340.3	
792.14	2820.7	
792.32	2562.7	
792.49	4382.7	
792.67	4460.5	
792.84	2930	
793.02	2787.3	
793.19	4710.3	
793.37	5053.7	
793.54	2621.4	
793.72	2860.3	
793.89	5155.4	
794.07	4318.5	
794.25	3254.9	
794.42	2646.7	
794.6	5030.5	
794.77	4736.3	
794.95	3363.4	
795.12	2984.6	
795.3	4358.8	
795.47	4656.4	
795.65	3261.7	
795.82	3125.9	
796	4218.8	
796.17	5330.2	
796.35	3075.4	
796.52	3549.1	
796.7	4721.9	
796.87	4719.2	
797.05	3013.2	
797.22	3601	
797.4	4744.5	
797.57	5284.4	
797.75	3209.2	
797.92	2962	
798.1	4912.4	
798.27	4175.1	
798.45	2663.7	
798.62	2843.3	
798.8	4506.2	
798.97	4880.3	
799.15	3271.3	
799.32	3134.1	
799.5	4006.5	
799.67	4458.4	
799.85	3396.2	
800.02	2609.1	
800.2	4292.5	
800.37	4423.6	
800.55	3424.2	
800.72	2982.5	
800.9	4840.7	
801.07	5025.7	
801.25	3896.6	
801.42	3190.7	
801.6	4795.7	
801.77	4470	
801.95	3079.5	
802.12	2906.8	
802.29	4653.7	
802.47	4563.6	
802.64	3252.9	
802.82	2540.8	
802.99	4323.9	
803.17	4823.6	
803.34	3181.9	
803.52	2863.7	
803.69	5285.1	
803.87	4100	
804.04	3127.9	
804.21	3188.7	
804.39	5048.9	
804.56	4375.1	
804.74	2713.6	
804.91	3180.5	
805.09	4199.7	
805.26	4331.5	
805.44	2770.2	
805.61	2979.1	
805.78	4771.1	
805.96	4642.7	
806.13	3209.2	
806.31	3396.9	
806.48	3979.9	
806.66	4288.4	
806.83	3145.7	
807	3112.9	
807.18	4314.4	
807.35	4498	
807.53	3155.9	
807.7	2603	
807.87	5041.4	
808.05	4257.7	
808.22	3310.9	
808.4	2611.2	
808.57	4164.2	
808.74	3986	
808.92	2935.4	
809.09	3527.3	
809.27	4291.9	
809.44	4571.7	
809.61	2625.5	
809.79	2844.6	
809.96	5149.3	
810.14	4698.7	
810.31	2575.7	
810.48	3038.5	
810.66	4265.9	
810.83	4692.6	
811.01	2865.8	
811.18	3115.6	
811.35	4713.7	
811.53	3842.7	
811.7	3360.7	
811.87	3177.8	
812.05	4357.4	
812.22	4229.7	
812.39	2822.1	
812.57	2733.4	
812.74	4349.2	
812.92	5359.5	
813.09	3039.2	
813.26	3135.4	
813.44	5168.4	
813.61	4120.5	
813.78	2539.5	
813.96	3306.1	
814.13	4312.3	
814.3	4061.1	
814.48	3538.2	
814.65	2981.2	
814.82	5098.1	
815	3992.9	
815.17	3022.8	
815.34	3564.8	
815.52	4164.9	
815.69	4198.3	
815.87	3024.2	
816.04	3007.8	
816.21	4235.9	
816.38	3871.3	
816.56	2981.2	
816.73	2772.9	
816.9	5233.2	
817.08	4677.6	
817.25	2825.5	
817.42	3375.1	
817.6	3959.4	
817.77	4219.5	
817.94	3090.4	
818.12	2734.7	
818.29	4093.2	
818.46	5695.4	
818.64	2912.9	
818.81	2745.6	
818.98	4081.6	
819.16	5432.6	
819.33	3293.1	
819.5	3074.7	
819.67	4500.8	
819.85	4889.2	
820.02	3053.5	
820.19	3147.7	
820.37	4419.5	
820.54	4144.4	
820.71	3139.5	
820.88	3770.3	
821.06	4350.6	
821.23	4094.6	
821.4	3177.8	
821.58	3102.7	
821.75	4655.7	
821.92	4351.9	
822.09	2608.4	
822.27	2635.1	
822.44	4283.7	
822.61	4204.5	
822.79	2622.8	
822.96	4560.1	
823.13	4504.8	
823.3	3983.3	
823.48	2937.5	
823.65	2650.1	
823.82	4785.4	
823.99	4017.4	
824.17	3637.2	
824.34	2755.2	
824.51	5343.2	
824.68	4269.3	
824.86	2788	
825.03	3110.2	
825.2	4244.1	
825.37	4852.3	
825.55	2796.2	
825.72	3019.4	
825.89	5294.7	
826.06	4978.6	
826.24	2970.9	
826.41	2975.7	
826.58	4976.6	
826.75	4394.3	
826.92	2534	
827.1	2720.4	
827.27	6399.2	
827.44	5175.2	
827.61	2876	
827.79	3353.9	
827.96	4156.7	
828.13	4237.9	
828.3	2998.9	
828.47	2590.7	
828.65	4558.8	
828.82	4427.7	
828.99	3631.7	
829.16	3191.4	
829.34	4726	
829.51	4629.8	
829.68	3018.7	
829.85	3091.1	
830.02	5024.3	
830.2	4799.1	
830.37	2444.6	
830.54	3524.6	
830.71	5250.3	
830.88	4273.4	
831.05	2436.4	
831.23	2732.7	
831.4	5144.5	
831.57	5395.7	
831.74	2802.3	
831.91	2590	
832.09	4620.2	
832.26	4713.7	
832.43	2876	
832.6	3190.7	
832.77	4539	
832.94	5041.4	
833.12	2435.7	
833.29	2895.8	
833.46	4512.4	
833.63	5612.1	
833.8	3132	
833.97	2878.8	
834.15	4763.6	
834.32	4618.9	
834.49	3017.3	
834.66	3031.7	
834.83	4801.8	
835	4123.2	
835.17	2818	
835.35	2803.7	
835.52	4733.5	
835.69	4577.2	
835.86	2954.5	
836.03	2497.2	
836.2	4746.5	
836.37	4490.5	
836.55	2880.8	
836.72	2702.6	
836.89	4437.3	
837.06	4845.5	
837.23	2947	
837.4	3153.2	
837.57	5249.6	
837.75	5599.8	
837.92	2680.8	
838.09	2836.4	
838.26	4447.5	
838.43	4784.1	
838.6	3053.5	
838.77	2730.6	
838.94	5368.4	
839.11	5248.3	
839.29	2953.2	
839.46	2381.1	
839.63	4693.3	
839.8	4535.6	
839.97	2863.7	
840.14	2844.6	
840.31	4673.5	
840.48	4757.4	
840.65	2439.8	
840.82	2792.7	
841	4659.1	
841.17	4572.4	
841.34	2628.9	
841.51	2696.5	
841.68	4691.9	
841.85	4521.9	
842.02	2779.1	
842.19	2359.3	
842.36	4560.8	
842.53	4615.4	
842.7	2627.5	
842.87	3139.5	
843.05	5610.8	
843.22	4502.8	
843.39	2557.9	
843.56	2765.4	
843.73	4380.6	
843.9	4782.7	
844.07	3977.8	
844.24	3338.9	
844.41	6221.7	
844.58	4216.8	
844.75	2568.2	
844.92	2740.2	
845.09	4729.4	
845.26	4650.3	
845.43	2598.9	
845.6	2760	
845.77	4696.7	
845.94	4538.3	
846.12	2898.6	
846.29	3032.4	
846.46	4866	
846.63	4676.2	
846.8	2615.3	
846.97	3028.9	
847.14	5010	
847.31	4721.3	
847.48	2882.2	
847.65	3170.9	
847.82	4854.4	
847.99	4746.5	
848.16	3343.7	
848.33	3162.7	
848.5	4405.2	
848.67	4981.3	
848.84	2563.4	
849.01	2739.5	
849.18	4345.1	
849.35	4151.2	
849.52	3127.2	
849.69	2628.2	
849.86	4873.5	
850.03	4904.2	
850.2	2624.8	
850.37	3056.3	
850.54	4863.9	
850.71	4403.1	
850.88	3047.4	
851.05	2560	
851.22	4593.6	
851.39	5031.9	
851.56	2493.1	
851.73	2871.3	
851.9	4201.1	
852.07	4808.6	
852.24	2839.2	
852.41	2603	
852.58	4623.6	
852.75	4255	
852.92	2863.7	
853.09	2587.3	
853.26	4368.3	
853.43	4925.4	
853.6	2622.1	
853.77	2316.3	
853.94	5063.3	
854.11	4229.7	
854.28	3697.9	
854.44	2809.1	
854.61	5281	
854.78	4878.9	
854.95	2600.9	
855.12	3197.6	
855.29	3891.8	
855.46	5184.1	
855.63	2617.3	
855.8	3431.7	
855.97	4313	
856.14	4953.4	
856.31	3498.6	
856.48	2848	
856.65	4474.8	
856.82	4190.8	
856.99	2529.9	
857.16	2785.2	
857.33	5431.2	
857.49	4500.8	
857.66	2822.8	
857.83	2943.6	
858	4490.5	
858.17	4574.5	
858.34	2478	
858.51	2667.8	
858.68	5072.1	
858.85	5063.9	
859.02	2981.2	
859.19	3110.9	
859.36	4281.6	
859.52	4178.5	
859.69	2600.9	
859.86	3003.7	
860.03	4250.2	
860.2	5060.5	
860.37	2438.4	
860.54	2637.1	
860.71	4767.7	
860.88	5077.6	
861.05	2880.8	
861.21	3214.6	
861.38	5066	
861.55	4080.2	
861.72	2454.8	
861.89	2891	
862.06	4834.6	
862.23	5111.7	
862.4	2484.9	
862.56	2669.2	
862.73	4758.8	
862.9	4508.3	
863.07	2973.7	
863.24	2418	
863.41	4159.4	
863.58	4192.2	
863.75	2661.7	
863.91	2991.4	
864.08	4934.2	
864.25	4782	
864.42	3166.8	
864.59	3517.7	
864.76	5252.4	
864.93	4194.2	
865.09	2551.1	
865.26	2778.4	
865.43	5016.8	
865.6	5208	
865.77	2383.8	
865.94	2545.6	
866.1	4956.8	
866.27	4728.1	
866.44	3674.7	
866.61	2508.1	
866.78	4489.1	
866.95	4758.8	
867.11	2551.1	
867.28	2399.5	
867.45	4961.5	
867.62	4191.5	
867.79	2945	
867.96	2529.9	
868.12	4115.7	
868.29	4833.2	
868.46	2625.5	
868.63	3317	
868.8	4891.2	
868.97	4710.3	
869.13	2688.3	
869.3	2736.1	
869.47	4701.5	
869.64	4915.1	
869.81	2585.9	
869.97	2639.1	
870.14	4622.9	
870.31	5055.8	
870.48	2527.9	
870.65	3179.8	
870.81	4493.9	
870.98	4405.9	
871.15	2897.9	
871.32	2716.3	
871.48	4724.7	
871.65	5107	
871.82	2547	
871.99	2859	
872.16	5388.9	
872.32	4985.4	
872.49	2674.6	
872.66	2693.8	
872.83	4844.8	
872.99	4350.6	
873.16	2930	
873.33	2588.6	
873.5	4507.6	
873.67	4573.1	
873.83	2725.2	
874	3297.9	
874.17	4638	
874.34	5167	
874.5	3277.4	
874.67	3151.1	
874.84	5057.1	
875.01	4089.8	
875.17	3441.3	
875.34	2557.2	
875.51	4648.2	
875.68	5401.2	
875.84	3028.3	
876.01	3617.4	
876.18	4728.8	
876.34	4726	
876.51	2594.1	
876.68	2568.2	
876.85	4389.5	
877.01	5028.4	
877.18	3532.7	
877.35	2579.8	
877.52	4661.9	
877.68	4203.1	
877.85	2627.5	
878.02	2556.5	
878.18	4409.3	
878.35	4338.3	
878.52	2114.9	
878.69	3030.3	
878.85	4876.2	
879.02	4719.2	
879.19	3509.5	
879.35	2763.4	
879.52	4772.4	
879.69	4805.2	
879.86	2349.7	
880.02	2862.4	
880.19	4516.5	
880.36	5292.6	
880.52	2897.9	
880.69	3041.9	
880.86	4823.6	
881.02	4835.9	
881.19	2835.8	
881.36	2792.7	
881.52	4766.3	
881.69	4269.3	
881.86	2785.2	
882.02	2728.6	
882.19	4953.4	
882.36	5575.9	
882.52	2721.1	
882.69	3493.8	
882.86	4605.2	
883.02	4627	
883.19	3052.2	
883.36	2904.7	
883.52	4843.4	
883.69	5340.4	
883.86	2658.3	
884.02	2432.3	
884.19	4780	
884.36	4528.7	
884.52	2878.8	
884.69	2785.9	
884.86	4402.5	
885.02	5102.2	
885.19	2851.5	
885.36	2917.7	
885.52	4472.8	
885.69	4687.1	
885.86	3616.7	
886.02	3231	
886.19	4848.9	
886.35	4384	
886.52	2846.7	
886.69	3493.2	
886.85	4186	
887.02	5012.7	
887.19	5012.7	
887.35	5012.7	
887.52	5012.7	
887.68	5012.7	
887.85	5012.7	
888.02	5012.7	
888.18	5012.7	
888.35	5012.7	
888.51	5012.7	
888.68	5012.7	
888.85	5012.7	
889.01	5012.7	
889.18	5012.7	
889.35	5012.7	
889.51	5012.7	
889.68	5012.7	
889.84	5012.7	
890.01	5012.7	
890.17	5012.7	
890.34	5012.7	
890.51	5012.7	
890.67	5012.7	
890.84	5012.7	
891	5012.7	
891.17	5012.7	
891.34	5012.7	
891.5	5012.7	
891.67	5012.7	
891.83	5012.7	
892	5012.7	
892.16	5012.7	
892.33	5012.7	
892.5	5012.7	
892.66	5012.7	
892.83	5012.7	
892.99	5012.7	
893.16	5012.7	
893.32	5012.7	
893.49	5012.7	
893.65	5012.7	
893.82	5012.7	
893.99	5012.7	
894.15	5012.7	
894.32	5012.7	
894.48	5012.7	
894.65	5012.7	
894.81	5012.7	
894.98	5012.7	
895.14	5012.7	
895.31	5012.7	
895.47	5012.7	
895.64	5012.7	
895.81	5012.7	
895.97	5012.7	
896.14	5012.7	
896.3	5012.7	
896.47	5012.7	
896.63	5012.7	
896.8	5012.7	
896.96	5012.7	
897.13	5012.7	
897.29	5012.7	
897.46	5012.7	
897.62	5012.7	
897.79	5012.7	
897.95	5012.7	
898.12	5012.7	
898.28	5012.7	
898.45	5012.7	
898.61	5012.7	
898.78	5012.7	
898.94	5012.7	
899.11	5012.7	
899.27	5012.7	
899.44	5012.7	
899.6	5012.7	
899.77	5012.7	
899.93	5012.7	
900.1	5012.7	
900.26	5012.7	
900.43	5012.7	
900.59	5012.7	
900.76	5012.7	
900.92	5012.7	
901.09	5012.7	
901.25	5012.7	
901.42	5012.7	
901.58	5012.7	
901.75	5012.7	
901.91	5012.7	
902.07	5012.7	
902.24	5012.7	
902.4	5012.7	
902.57	5012.7	
902.73	5012.7	
902.9	5012.7	
903.06	5012.7	
903.23	5012.7	
903.39	5012.7	
903.56	5012.7	
903.72	5012.7	
903.88	5012.7	
904.05	5012.7	
904.21	5012.7	
904.38	5012.7	
904.54	5012.7	
904.71	5012.7	
904.87	5012.7	
905.03	5012.7	
905.2	5012.7	
905.36	5012.7	
905.53	5012.7	
905.69	5012.7	
905.86	5012.7	
906.02	5012.7	
906.18	5012.7	
906.35	5012.7	
906.51	5012.7	
906.68	5012.7	
906.84	5012.7	
907.01	5012.7	
907.17	5012.7	
907.33	5012.7	
907.5	5012.7	
907.66	5012.7	
907.83	5012.7	
907.99	5012.7	
908.15	5012.7	
908.32	5012.7	
908.48	5012.7	
908.65	5012.7	
908.81	5012.7	
908.97	5012.7	
909.14	5012.7	
909.3	5012.7	
909.47	5012.7	
909.63	5012.7	
909.79	5012.7	
909.96	5012.7	
910.12	5012.7	
910.28	5012.7	
910.45	5012.7	
910.61	5012.7	
910.78	5012.7	
910.94	5012.7	
911.1	5012.7	
911.27	5012.7	
911.43	5012.7	
911.59	5012.7	
911.76	5012.7	
911.92	5012.7	
912.08	5012.7	
912.25	5012.7	
912.41	5012.7	
912.57	5012.7	
912.74	5012.7	
912.9	5012.7	
913.07	5012.7	
913.23	5012.7	
913.39	5012.7	
913.56	5012.7	
913.72	5012.7	
913.88	5012.7	
914.05	5012.7	
914.21	5012.7	
914.37	5012.7	
914.54	5012.7	
914.7	5012.7	
914.86	5012.7	
915.03	5012.7	
915.19	5012.7	
