Wavelength	Intensities	
nm	a.u.	
179.22	1893.5	
179.44	1898.8	
179.65	1888.2	
179.86	1909.4	
180.08	1923	
180.29	4941.1	
180.51	3562.1	
180.72	5666	
180.94	6610.8	
181.15	3227.6	
181.37	3205.8	
181.58	5418.9	
181.79	5806	
182.01	3429	
182.22	3645.4	
182.44	5777.3	
182.65	4848.9	
182.87	4552	
183.08	4049.5	
183.29	6153.5	
183.51	4993.6	
183.72	3684.3	
183.94	5395.7	
184.15	5363.6	
184.37	5438.7	
184.58	3218	
184.79	4433.2	
185.01	4969.7	
185.22	5771.9	
185.44	4685.1	
185.65	3938.9	
185.86	5311.1	
186.08	4895.3	
186.29	3128.6	
186.51	3401.7	
186.72	5061.9	
186.94	5979.4	
187.15	3951.9	
187.36	4034.5	
187.58	7795.9	
187.79	5528.2	
188.01	4226.3	
188.22	6620.4	
188.43	6649.1	
188.65	5803.3	
188.86	3379.8	
189.08	4083.6	
189.29	5279.7	
189.5	5212.1	
189.72	3768.3	
189.93	3854.3	
190.15	6007.4	
190.36	7213.6	
190.57	4139.6	
190.79	3980.6	
191	6027.9	
191.22	6058.6	
191.43	4118.5	
191.64	3365.5	
191.86	6253.8	
192.07	6033.3	
192.29	3536.8	
192.5	3752.6	
192.71	6025.1	
192.93	5097.4	
193.14	3741.6	
193.35	3816	
193.57	5154.1	
193.78	6032.6	
194	2961.4	
194.21	3703.4	
194.42	4950.6	
194.64	5397.8	
194.85	4008.6	
195.07	4676.2	
195.28	5492.7	
195.49	4698.7	
195.71	5001.1	
195.92	3479.5	
196.13	5587.5	
196.35	5808.7	
196.56	5358.2	
196.78	4007.9	
196.99	7077.1	
197.2	6670.2	
197.42	4597	
197.63	4096.6	
197.84	4872.1	
198.06	5677	
198.27	3708.2	
198.48	5021.6	
198.7	5193.6	
198.91	5344.5	
199.13	4143	
199.34	4054.3	
199.55	5879.7	
199.77	4734.2	
199.98	3593.5	
200.19	4184.7	
200.41	5276.3	
200.62	4981.3	
200.83	4257.7	
201.05	4609.3	
201.26	5366.4	
201.47	5068	
201.69	3663.8	
201.9	3470.6	
202.11	5385.5	
202.33	6393.8	
202.54	3874.8	
202.76	4321.2	
202.97	5520	
203.18	5521.3	
203.4	4322.6	
203.61	4193.6	
203.82	5418.9	
204.04	5127.4	
204.25	4154.6	
204.46	4018.1	
204.68	5390.9	
204.89	5685.2	
205.1	3992.2	
205.32	3465.2	
205.53	5868.1	
205.74	5978	
205.96	2926.5	
206.17	4222.2	
206.38	5803.3	
206.6	5950.7	
206.81	4732.2	
207.02	3885	
207.24	5674.2	
207.45	6135.7	
207.66	3889.8	
207.88	3300	
208.09	5651	
208.3	5440.1	
208.52	3552.5	
208.73	3839.3	
208.94	5437.4	
209.15	6172.6	
209.37	3902.1	
209.58	4118.5	
209.79	5972.6	
210.01	5210	
210.22	3099.3	
210.43	3277.4	
210.65	5431.9	
210.86	5867.4	
211.07	3887	
211.29	3568.9	
211.5	5786.9	
211.71	5303.6	
211.93	3574.4	
212.14	3571	
212.35	5378	
212.56	5616.2	
212.78	4113	
212.99	3381.9	
213.2	6442.2	
213.42	5197.7	
213.63	3671.3	
213.84	3966.9	
214.06	4813.4	
214.27	4942.4	
214.48	3831.1	
214.69	4181.3	
214.91	6086.6	
215.12	6167.8	
215.33	4248.2	
215.55	4582.7	
215.76	6738.5	
215.97	5864.7	
216.18	4030.4	
216.4	3956.7	
216.61	5104.9	
216.82	5942.5	
217.04	3633.8	
217.25	3717.7	
217.46	6101.6	
217.67	5823.7	
217.89	3196.9	
218.1	3306.8	
218.31	5504.3	
218.53	5664.7	
218.74	3753.2	
218.95	3657.7	
219.16	5351.3	
219.38	6356.9	
219.59	3617.4	
219.8	4422.9	
220.01	7023.9	
220.23	5470.1	
220.44	4824.3	
220.65	3564.1	
220.87	5531.6	
221.08	6092	
221.29	3307.5	
221.5	4403.8	
221.72	7449.1	
221.93	5173.2	
222.14	4148.5	
222.35	4877.6	
222.57	5451	
222.78	5806	
222.99	3956.7	
223.2	4187.4	
223.42	5731.6	
223.63	5942.5	
223.84	2980.5	
224.05	2991.4	
224.27	6997.9	
224.48	6363.7	
224.69	4845.5	
224.9	4153.3	
225.12	5687.2	
225.33	5396.4	
225.54	3295.9	
225.75	3651.5	
225.97	4986.8	
226.18	5263.3	
226.39	3901.4	
226.6	3654.3	
226.82	5192.3	
227.03	5053	
227.24	4173.1	
227.45	3355.3	
227.67	5819	
227.88	6361	
228.09	4524.6	
228.3	4590.2	
228.52	5825.1	
228.73	5391.6	
228.94	3823.6	
229.15	3367.5	
229.36	5337	
229.58	5295.4	
229.79	3822.2	
230	4429.8	
230.21	6503	
230.43	5490.6	
230.64	4084.3	
230.85	4224.3	
231.06	5820.3	
231.28	5882.4	
231.49	3397.6	
231.7	4003.8	
231.91	5767.1	
232.12	5503.6	
232.34	3493.2	
232.55	3954.6	
232.76	6088.6	
232.97	5645.6	
233.18	3558	
233.4	3986.7	
233.61	5631.9	
233.82	5214.1	
234.03	3774.4	
234.25	3722.5	
234.46	7635.5	
234.67	5475.6	
234.88	4204.5	
235.09	3627.6	
235.31	5767.1	
235.52	5356.8	
235.73	4030.4	
235.94	3472.7	
236.15	5152.7	
236.37	6591.7	
236.58	3635.1	
236.79	3908.9	
237	5700.9	
237.21	4980.7	
237.43	4207.9	
237.64	3319.1	
237.85	9933.3	
238.06	4960.2	
238.27	4316.4	
238.48	3368.2	
238.7	5791.7	
238.91	5309.7	
239.12	3932.1	
239.33	3953.9	
239.54	5026.4	
239.76	5380	
239.97	3882.3	
240.18	3928.7	
240.39	6832	
240.6	5694	
240.82	4035.9	
241.03	3335.5	
241.24	5427.8	
241.45	6290	
241.66	3583.9	
241.87	4174.4	
242.09	6202.6	
242.3	6535.1	
242.51	4300.7	
242.72	3978.5	
242.93	5944.6	
243.14	5425.8	
243.36	4517.1	
243.57	4951.3	
243.78	6328.9	
243.99	5831.9	
244.2	3978.5	
244.41	3600.3	
244.63	5016.2	
244.84	5790.3	
245.05	4225	
245.26	4014	
245.47	5715.2	
245.68	5988.9	
245.9	5201.8	
246.11	4082.3	
246.32	5324	
246.53	5701.5	
246.74	6361.7	
246.95	3239.9	
247.16	4952	
247.38	5463.3	
247.59	3247.4	
247.8	3918.4	
248.01	5131.5	
248.22	5368.4	
248.43	3596.2	
248.64	3797.6	
248.86	4829.8	
249.07	5174.5	
249.28	3431.7	
249.49	4007.9	
249.7	6032	
249.91	6135.7	
250.12	3241.9	
250.34	3362.8	
250.55	5580.7	
250.76	5452.4	
250.97	4101.4	
251.18	4136.9	
251.39	6190.3	
251.6	5629.2	
251.81	4192.2	
252.03	4123.2	
252.24	5202.5	
252.45	5923.4	
252.66	3450.1	
252.87	4382.7	
253.08	5480.4	
253.29	7229.3	
253.5	3448.8	
253.72	4775.9	
253.93	5240.8	
254.14	6460	
254.35	3768.9	
254.56	3878.9	
254.77	5683.1	
254.98	5080.3	
255.19	3692.5	
255.41	4788.2	
255.62	5554.1	
255.83	6150.7	
256.04	4240	
256.25	4107.5	
256.46	6759.7	
256.67	5087.2	
256.88	4060.4	
257.09	4507.6	
257.31	5150.6	
257.52	5171.8	
257.73	5122	
257.94	3715.7	
258.15	5264	
258.36	5426.4	
258.57	4771.1	
258.78	2953.9	
258.99	5959.6	
259.2	5242.1	
259.41	3731.4	
259.63	3854.3	
259.84	6245.6	
260.05	6772.6	
260.26	4986.8	
260.47	3648.8	
260.68	6023.1	
260.89	5365	
261.1	4485.1	
261.31	3583.9	
261.52	6044.9	
261.73	6419.7	
261.95	4898.7	
262.16	4283	
262.37	6249.7	
262.58	6266.1	
262.79	4889.2	
263	3814	
263.21	5433.3	
263.42	4950.6	
263.63	3861.1	
263.84	3836.5	
264.05	5965.1	
264.26	6423.1	
264.47	4659.8	
264.69	4253.6	
264.9	6128.9	
265.11	5687.2	
265.32	3673.4	
265.53	3730.7	
265.74	5581.4	
265.95	4882.4	
266.16	4027	
266.37	4491.9	
266.58	5558.2	
266.79	5320.6	
267	3668.6	
267.21	3442.6	
267.42	5066	
267.63	5451.7	
267.84	3919.8	
268.06	3347.1	
268.27	5864	
268.48	6201.9	
268.69	3799	
268.9	4532.8	
269.11	6140.5	
269.32	4909	
269.53	3927.3	
269.74	3638.6	
269.95	5814.9	
270.16	4842.1	
270.37	3953.9	
270.58	4547.9	
270.79	5236.7	
271	5960.3	
271.21	4227.7	
271.42	3981.9	
271.63	5545.2	
271.84	5045.5	
272.05	3133.4	
272.26	3536.8	
272.47	5456.5	
272.68	5642.8	
272.89	3771	
273.11	4328.7	
273.32	5263.3	
273.53	6418.3	
273.74	4234.5	
273.95	4127.3	
274.16	6154.8	
274.37	5484.5	
274.58	4390.2	
274.79	3437.9	
275	5593.7	
275.21	6185.5	
275.42	5196.4	
275.63	4437.9	
275.84	5718.6	
276.05	7222.5	
276.26	4121.9	
276.47	3876.1	
276.68	5279.7	
276.89	6488.6	
277.1	4433.2	
277.31	3442	
277.52	5767.1	
277.73	5909.1	
277.94	3383.9	
278.15	3807.2	
278.36	5658.5	
278.57	5101.5	
278.78	3803.8	
278.99	4334.2	
279.2	5048.2	
279.41	5023	
279.62	4931.5	
279.83	3481.5	
280.04	6722.1	
280.25	5008.6	
280.46	4977.9	
280.67	3963.5	
280.88	5070.1	
281.09	6161	
281.3	4160.8	
281.51	5242.8	
281.72	5152	
281.93	5995.8	
282.14	3702	
282.35	4022.2	
282.56	5905.7	
282.77	5922	
282.98	3824.9	
283.19	4691.2	
283.4	7311.2	
283.61	5350.7	
283.82	3411.9	
284.03	4907.6	
284.24	5546.6	
284.45	6122.1	
284.66	4826.4	
284.87	4650.3	
285.08	5965.1	
285.29	6155.5	
285.5	3338.9	
285.71	3829.7	
285.92	6076.3	
286.12	6719.4	
286.33	4874.8	
286.54	3816.7	
286.75	5986.9	
286.96	5345.9	
287.17	3504.8	
287.38	4735.6	
287.59	5050.3	
287.8	4947.9	
288.01	3841.3	
288.22	4502.8	
288.43	5980.1	
288.64	4988.2	
288.85	4547.2	
289.06	4389.5	
289.27	5865.4	
289.48	6335.7	
289.69	4911	
289.9	4457.1	
290.11	6143.9	
290.32	5124.7	
290.53	4703.5	
290.74	4240	
290.94	5868.8	
291.15	5931.6	
291.36	3686.3	
291.57	4383.3	
291.78	5188.9	
291.99	4878.9	
292.2	3558	
292.41	4328	
292.62	6087.9	
292.83	5844.2	
293.04	5281	
293.25	3599.6	
293.46	5248.3	
293.67	6058.6	
293.88	3705.5	
294.09	3497.2	
294.29	4980	
294.5	5629.9	
294.71	3984.7	
294.92	3801.7	
295.13	5301.5	
295.34	6560.3	
295.55	3322.5	
295.76	3464.5	
295.97	5894.1	
296.18	6679.8	
296.39	3506.1	
296.6	3724.6	
296.81	5558.9	
297.01	5930.9	
297.22	3852.9	
297.43	3667.2	
297.64	5115.1	
297.85	5098.1	
298.06	3048.1	
298.27	3295.9	
298.48	5507	
298.69	5160.2	
298.9	4003.1	
299.11	3581.9	
299.31	4940.4	
299.52	4978.6	
299.73	4267.3	
299.94	4169	
300.15	5481	
300.36	5053.7	
300.57	4277.5	
300.78	4198.3	
300.99	5343.8	
301.2	5609.4	
301.4	3665.9	
301.61	4014	
301.82	5788.9	
302.03	5953.4	
302.24	4453	
302.45	3507.5	
302.66	5725.4	
302.87	6256.5	
303.08	3687	
303.29	5080.3	
303.49	5199.8	
303.7	5512.4	
303.91	3297.2	
304.12	4796.3	
304.33	4988.2	
304.54	5604.6	
304.75	3715	
304.96	3491.8	
305.16	5803.3	
305.37	6621.1	
305.58	3235.8	
305.79	3333.4	
306	5847.6	
306.21	4868.7	
306.42	3707.5	
306.63	5638.7	
306.83	5339.1	
307.04	6029.9	
307.25	4091.8	
307.46	3970.3	
307.67	4668.7	
307.88	5919.3	
308.09	3589.4	
308.29	3760.8	
308.5	5547.9	
308.71	6021	
308.92	3926	
309.13	3600.3	
309.34	5393.7	
309.55	5411.4	
309.75	4615.4	
309.96	4217.5	
310.17	5960.3	
310.38	5179.3	
310.59	4445.5	
310.8	3488.4	
311.01	5312.4	
311.21	5317.2	
311.42	3482.2	
311.63	3642.7	
311.84	5197.7	
312.05	5610.8	
312.26	4118.5	
312.46	4511.7	
312.67	5300.8	
312.88	5025.7	
313.09	3574.4	
313.3	3497.9	
313.51	6264.1	
313.71	6645.7	
313.92	3544.4	
314.13	3777.1	
314.34	5603.9	
314.55	5454.4	
314.76	4605.9	
314.96	4001.7	
315.17	5558.2	
315.38	5978.7	
315.59	3519.8	
315.8	3418.1	
316.01	6343.2	
316.21	6441.5	
316.42	3396.2	
316.63	3964.2	
316.84	5290.6	
317.05	6221	
317.26	4235.2	
317.46	3777.1	
317.67	5420.3	
317.88	5828.5	
318.09	4568.3	
318.3	3342.3	
318.5	5174.5	
318.71	5799.2	
318.92	5771.9	
319.13	4174.4	
319.34	5986.9	
319.54	6139.1	
319.75	3274	
319.96	3162.1	
320.17	5862.7	
320.38	6093.4	
320.58	3267.2	
320.79	3892.5	
321	6030.6	
321.21	6204.7	
321.42	3882.9	
321.62	3272.7	
321.83	5050.3	
322.04	5468.8	
322.25	3756	
322.46	3557.3	
322.66	5582.1	
322.87	5762.3	
323.08	4411.3	
323.29	3483.6	
323.5	6516.6	
323.7	5014.1	
323.91	4944.5	
324.12	4403.8	
324.33	5603.2	
324.53	5911.8	
324.74	4272.7	
324.95	4470.7	
325.16	4860.5	
325.37	5300.1	
325.57	3566.9	
325.78	3589.4	
325.99	5562.3	
326.2	4967.7	
326.4	5306.3	
326.61	3321.1	
326.82	5395	
327.03	5567.1	
327.24	5122	
327.44	4836.6	
327.65	5771.9	
327.86	4612.7	
328.07	4220.9	
328.27	3433.1	
328.48	6150.1	
328.69	5061.2	
328.9	5129.5	
329.1	3840.6	
329.31	5366.4	
329.52	6315.9	
329.73	3604.4	
329.93	4067.9	
330.14	5468.8	
330.35	5714.5	
330.56	5885.2	
330.76	4445.5	
330.97	5313.8	
331.18	5701.5	
331.39	4019.5	
331.59	3276.8	
331.8	6051.7	
332.01	6220.4	
332.22	3713.6	
332.42	4217.5	
332.63	5563.6	
332.84	5124	
333.05	4040.6	
333.25	3680.2	
333.46	5259.9	
333.67	5522.7	
333.88	3706.8	
334.08	4166.3	
334.29	7447.1	
334.5	6175.3	
334.7	3503.4	
334.91	5107	
335.12	5004.6	
335.33	5918.6	
335.53	3980.6	
335.74	5862.7	
335.95	5239.4	
336.16	5113.8	
336.36	3942.3	
336.57	4532.8	
336.78	4911	
336.98	6098.2	
337.19	4868	
337.4	3867.2	
337.61	6634.7	
337.81	5016.2	
338.02	3659.7	
338.23	4711	
338.43	6287.9	
338.64	5143.8	
338.85	3614	
339.05	4782.7	
339.26	6318.7	
339.47	4899.4	
339.68	3601.7	
339.88	5374.6	
340.09	5698.8	
340.3	5978.7	
340.5	4201.1	
340.71	3230.3	
340.92	4927.4	
341.13	6311.2	
341.33	3448.1	
341.54	4246.1	
341.75	5718.6	
341.95	5283.8	
342.16	4091.8	
342.37	4412.7	
342.57	5080.3	
342.78	5436.7	
342.99	4517.8	
343.19	3205.1	
343.4	5949.3	
343.61	5741.1	
343.81	3886.4	
344.02	3520.5	
344.23	5854.5	
344.43	6326.2	
344.64	4478.9	
344.85	4310.3	
345.06	5749.3	
345.26	6117.3	
345.47	4179.9	
345.68	4867.3	
345.88	4814.1	
346.09	5932.3	
346.3	4341.7	
346.5	3181.9	
346.71	5477.6	
346.92	5169.1	
347.12	3232.4	
347.33	4182	
347.54	5969.1	
347.74	6489.3	
347.95	4139.6	
348.16	3065.8	
348.36	5250.3	
348.57	4974.5	
348.78	4055	
348.98	4468.7	
349.19	5394.3	
349.39	4975.9	
349.6	3265.8	
349.81	3682.2	
350.01	5748.6	
350.22	5184.8	
350.43	3964.9	
350.63	4823	
350.84	5522.7	
351.05	5268.7	
351.25	3601	
351.46	3247.4	
351.67	6044.9	
351.87	5210	
352.08	3863.2	
352.29	4395.6	
352.49	5874.3	
352.7	6033.3	
352.9	3501.3	
353.11	4435.9	
353.32	6666.1	
353.52	5288.5	
353.73	3469.9	
353.94	4416.1	
354.14	5769.8	
354.35	5625.1	
354.55	3601	
354.76	3959.4	
354.97	5805.3	
355.17	5528.8	
355.38	3350.5	
355.59	4698.7	
355.79	5184.1	
356	5662.6	
356.2	3931.4	
356.41	3418.7	
356.62	4885.1	
356.82	5454.4	
357.03	4228.4	
357.24	3775.8	
357.44	5188.2	
357.65	5324.7	
357.85	5158.2	
358.06	4019.5	
358.27	4950.6	
358.47	5203.9	
358.68	3342.3	
358.88	4201.7	
359.09	5736.4	
359.3	6139.8	
359.5	4992.9	
359.71	4462.5	
359.91	6663.4	
360.12	5978	
360.33	4214	
360.53	4709.6	
360.74	5158.8	
360.94	5223.7	
361.15	4514.4	
361.36	3631	
361.56	6025.1	
361.77	5433.3	
361.97	4945.2	
362.18	3867.9	
362.38	6054.5	
362.59	5077.6	
362.8	3584.6	
363	3424.9	
363.21	4906.3	
363.41	5597.1	
363.62	4170.3	
363.83	5257.1	
364.03	5631.2	
364.24	6682.5	
364.44	5272.2	
364.65	5340.4	
364.85	5417.6	
365.06	5281	
365.27	3815.4	
365.47	3896.6	
365.68	6433.4	
365.88	5481	
366.09	4256.4	
366.29	3914.4	
366.5	5696.8	
366.71	6171.2	
366.91	5293.3	
367.12	4445.5	
367.32	6746	
367.53	6029.9	
367.73	4416.1	
367.94	5340.4	
368.14	5946.6	
368.35	6923.5	
368.56	4384.7	
368.76	3667.2	
368.97	6032	
369.17	7845.1	
369.38	3815.4	
369.58	4119.8	
369.79	5083.7	
369.99	6418.3	
370.2	5085.1	
370.4	4220.2	
370.61	5780.7	
370.82	7002	
371.02	4129.4	
371.23	3386.7	
371.43	4958.1	
371.64	6365.8	
371.84	4141	
372.05	5462.6	
372.25	7724.3	
372.46	6186.9	
372.66	4180.6	
372.87	4113	
373.07	6217	
373.28	7873.8	
373.48	5302.2	
373.69	5003.9	
373.9	5638.1	
374.1	5700.9	
374.31	5184.1	
374.51	4750.6	
374.72	6567.2	
374.92	5350	
375.13	5464	
375.33	4629.1	
375.54	6169.2	
375.74	5534.3	
375.95	4638	
376.15	5953.4	
376.36	6155.5	
376.56	5976	
376.77	4792.2	
376.97	5244.2	
377.18	7344	
377.38	6278.4	
377.59	5597.1	
377.79	4270.7	
378	6109.8	
378.2	6590.4	
378.41	4299.4	
378.61	4293.2	
378.82	6587	
379.02	5728.2	
379.23	4545.8	
379.43	5726.8	
379.64	6715.3	
379.84	6301.6	
380.05	4348.5	
380.25	4235.9	
380.46	6505	
380.66	6024.4	
380.87	5731.6	
381.07	6175.3	
381.28	7078.5	
381.48	6389	
381.69	4374.5	
381.89	4401.8	
382.1	5269.4	
382.3	6568.5	
382.51	5544.5	
382.71	6409.5	
382.91	6454.5	
383.12	6994.5	
383.32	4740.4	
383.53	4961.5	
383.73	6274.3	
383.94	6022.4	
384.14	4872.8	
384.35	3994.2	
384.55	5930.2	
384.76	6427.2	
384.96	4710.3	
385.17	5063.9	
385.37	6352.8	
385.58	5643.5	
385.78	5115.8	
385.98	3875.4	
386.19	5896.1	
386.39	6277	
386.6	4530.8	
386.8	4794.3	
387.01	6438.1	
387.21	6428.6	
387.42	5175.9	
387.62	5816.2	
387.83	5763	
388.03	6462.7	
388.23	4910.3	
388.44	5763	
388.64	5508.4	
388.85	5589.6	
389.05	5259.9	
389.26	5949.3	
389.46	7567.2	
389.67	6926.2	
389.87	5301.5	
390.07	5282.4	
390.28	6183.5	
390.48	5756.2	
390.69	4503.5	
390.89	4801.8	
391.1	5865.4	
391.3	6931	
391.5	6111.8	
391.71	6739.2	
391.91	6597.2	
392.12	7695.6	
392.32	6160.3	
392.53	5263.3	
392.73	5972.6	
392.93	6233.3	
393.14	4915.8	
393.34	5791.7	
393.55	6562.4	
393.75	6055.8	
393.95	5001.1	
394.16	4928.1	
394.36	5887.2	
394.57	6653.9	
394.77	4448.2	
394.98	4919.9	
395.18	5979.4	
395.38	6257.9	
395.59	5957.5	
395.79	4879.6	
396	6132.3	
396.2	6807.4	
396.4	5758.2	
396.61	5693.4	
396.81	6977.4	
397.02	6206	
397.22	6105	
397.42	6158.9	
397.63	6964.5	
397.83	6150.1	
398.04	4866.7	
398.24	5514.5	
398.44	6702.3	
398.65	5812.1	
398.85	4739.7	
399.05	4870.8	
399.26	6221	
399.46	8112.7	
399.67	5445.5	
399.87	5068	
400.07	6607.4	
400.28	7103	
400.48	5294	
400.69	6434.7	
400.89	7438.9	
401.09	7804.1	
401.3	5215.5	
401.5	6331.6	
401.7	8106.5	
401.91	8381.7	
402.11	5446.9	
402.32	5616.2	
402.52	7342.7	
402.72	7075.7	
402.93	5844.2	
403.13	4581.3	
403.33	7935.9	
403.54	6470.2	
403.74	5498.1	
403.94	6449.1	
404.15	6746	
404.35	8036.2	
404.56	5299.5	
404.76	7271	
404.96	7269.6	
405.17	7078.5	
405.37	6728.9	
405.57	5963.7	
405.78	7340.6	
405.98	6660	
406.18	5442.8	
406.39	6421.7	
406.59	7406.8	
406.79	6945.3	
407	5223	
407.2	5330.9	
407.4	7419.8	
407.61	7746.1	
407.81	5504.3	
408.01	7665.5	
408.22	6504.3	
408.42	8809.7	
408.62	6930.3	
408.83	6393.1	
409.03	7467.6	
409.23	7249.1	
409.44	6570.6	
409.64	6885.3	
409.84	8600.1	
410.05	8434.2	
410.25	6888	
410.45	6520.7	
410.66	8082	
410.86	10667	
411.06	7299.6	
411.27	7098.3	
411.47	10619	
411.67	8375.5	
411.88	7338.6	
412.08	7794.6	
412.28	9148.3	
412.49	9596.8	
412.69	7344.7	
412.89	7291.5	
413.09	9583.1	
413.3	9423.4	
413.5	7496.9	
413.7	7019.1	
413.91	8572.8	
414.11	9584.5	
414.31	7316	
414.52	7959.1	
414.72	9282.1	
414.92	9227.5	
415.12	7311.9	
415.33	7923.6	
415.53	9712.2	
415.73	9919	
415.94	8402.1	
416.14	7774.8	
416.34	8696.4	
416.55	8468.4	
416.75	9050.7	
416.95	8546.9	
417.15	9782.5	
417.36	10570	
417.56	9471.9	
417.76	8454	
417.97	10216	
418.17	9998.2	
418.37	7939.3	
418.57	8135.2	
418.78	9627.5	
418.98	9212.4	
419.18	8952.4	
419.38	8968.1	
419.59	9437.7	
419.79	8836.3	
419.99	7989.8	
420.2	8303.1	
420.4	9943.6	
420.6	10056	
420.8	7983	
421.01	7763.2	
421.21	9869.8	
421.41	10002	
421.61	8324.3	
421.82	8011	
422.02	9245.9	
422.22	10255	
422.42	8807.6	
422.63	8274.5	
422.83	9377	
423.03	10654	
423.23	8327.7	
423.44	7353.6	
423.64	9488.2	
423.84	9055.4	
424.04	7804.1	
424.25	7472.4	
424.45	10249	
424.65	10284	
424.85	7199.3	
425.06	7826	
425.26	10231	
425.46	9313.5	
425.66	8271.7	
425.87	7944.1	
426.07	10142	
426.27	9876	
426.47	8205.5	
426.67	7363.1	
426.88	10297	
427.08	9828.2	
427.28	8508.6	
427.48	7369.3	
427.69	8567.3	
427.89	9428.2	
428.09	8378.2	
428.29	7439.6	
428.5	10098	
428.7	9586.5	
428.9	7431.4	
429.1	8084.7	
429.3	9558.6	
429.51	10011	
429.71	7720.2	
429.91	8695.7	
430.11	9962	
430.31	10221	
430.52	8203.5	
430.72	8549.6	
430.92	10661	
431.12	9933.3	
431.32	7884	
431.53	8277.9	
431.73	9054.1	
431.93	10726	
432.13	7792.5	
432.33	7642.3	
432.54	9529.9	
432.74	9921.7	
432.94	7852.6	
433.14	8776.2	
433.34	10069	
433.55	9687.6	
433.75	8877.3	
433.95	10869	
434.15	10057	
434.35	9760.6	
434.56	8135.9	
434.76	7654.6	
434.96	10028	
435.16	10369	
435.36	8059.4	
435.56	9306.7	
435.77	9889	
435.97	9981.8	
436.17	10242	
436.37	9383.8	
436.57	9833	
436.78	9842.5	
436.98	9295.7	
437.18	9818	
437.38	10653	
437.58	9924.5	
437.78	9994.8	
437.99	8458.8	
438.19	10406	
438.39	11223	
438.59	8505.9	
438.79	7907.2	
438.99	11250	
439.2	10099	
439.4	8092.2	
439.6	8137.9	
439.8	10605	
440	11853	
440.2	9581.8	
440.4	9591.3	
440.61	11119	
440.81	11863	
441.01	8795.3	
441.21	9858.2	
441.41	11769	
441.61	11188	
441.81	10149	
442.02	11224	
442.22	12288	
442.42	11430	
442.62	8990.6	
442.82	8852	
443.02	11883	
443.22	11053	
443.43	9594.7	
443.63	9163.3	
443.83	10718	
444.03	10838	
444.23	10646	
444.43	10108	
444.63	11221	
444.83	12469	
445.04	9300.5	
445.24	10656	
445.44	11395	
445.64	11609	
445.84	9919	
446.04	10030	
446.24	10701	
446.44	11802	
446.65	8976.9	
446.85	9611.1	
447.05	10918	
447.25	11747	
447.45	9701.2	
447.65	8996.7	
447.85	11090	
448.05	10682	
448.25	10171	
448.46	9963.4	
448.66	11177	
448.86	10785	
449.06	8895.7	
449.26	10160	
449.46	11606	
449.66	10376	
449.86	9784.5	
450.06	9794.1	
450.26	10751	
450.47	11447	
450.67	9919	
450.87	10343	
451.07	11480	
451.27	11366	
451.47	9165.3	
451.67	9949	
451.87	11068	
452.07	12014	
452.27	9684.8	
452.47	9527.8	
452.67	11325	
452.88	12042	
453.08	8711.4	
453.28	11125	
453.48	12739	
453.68	11202	
453.88	9652.1	
454.08	9889.6	
454.28	11932	
454.48	11567	
454.68	10540	
454.88	11063	
455.08	12085	
455.28	12085	
455.48	9569.5	
455.68	10501	
455.89	12808	
456.09	12532	
456.29	10124	
456.49	10419	
456.69	12818	
456.89	12026	
457.09	11202	
457.29	11528	
457.49	12492	
457.69	12709	
457.89	11211	
458.09	10349	
458.29	12382	
458.49	13335	
458.69	11591	
458.89	11058	
459.09	13627	
459.29	13638	
459.49	11026	
459.69	12003	
459.9	13059	
460.1	12840	
460.3	11022	
460.5	10826	
460.7	13227	
460.9	12901	
461.1	10641	
461.3	12139	
461.5	14044	
461.7	13714	
461.9	11534	
462.1	11800	
462.3	13390	
462.5	13980	
462.7	11607	
462.9	11858	
463.1	15307	
463.3	15136	
463.5	12113	
463.7	13394	
463.9	13901	
464.1	14370	
464.3	12669	
464.5	12664	
464.7	14738	
464.9	14666	
465.1	14293	
465.3	13254	
465.5	15138	
465.7	15341	
465.9	13794	
466.1	13160	
466.3	15233	
466.5	14855	
466.7	14879	
466.9	13372	
467.1	15118	
467.3	16201	
467.5	14891	
467.7	13575	
467.9	16419	
468.1	17460	
468.3	14345	
468.5	14995	
468.7	15415	
468.9	15296	
469.1	13994	
469.3	14834	
469.5	17537	
469.7	15160	
469.9	14437	
470.1	13810	
470.3	15384	
470.5	15509	
470.7	15125	
470.9	13804	
471.1	15382	
471.3	15416	
471.5	13749	
471.69	15737	
471.89	15106	
472.09	14440	
472.29	14561	
472.49	14721	
472.69	14988	
472.89	15637	
473.09	13592	
473.29	13478	
473.49	14814	
473.69	14930	
473.89	14563	
474.09	13646	
474.29	16289	
474.49	15934	
474.69	14690	
474.89	13848	
475.09	15014	
475.29	15052	
475.49	13152	
475.69	13621	
475.88	16446	
476.08	15223	
476.28	13173	
476.48	13368	
476.68	15501	
476.88	15244	
477.08	13224	
477.28	13763	
477.48	14614	
477.68	15522	
477.88	13048	
478.08	13383	
478.28	16091	
478.48	15003	
478.67	13561	
478.87	12758	
479.07	15900	
479.27	15070	
479.47	13716	
479.67	13772	
479.87	15681	
480.07	16236	
480.27	13024	
480.47	14638	
480.67	15179	
480.87	15987	
481.06	13203	
481.26	14210	
481.46	15158	
481.66	15056	
481.86	13813	
482.06	14896	
482.26	14812	
482.46	15735	
482.66	13781	
482.86	13422	
483.05	15390	
483.25	14692	
483.45	16328	
483.65	13987	
483.85	15109	
484.05	15486	
484.25	14419	
484.45	15104	
484.65	16369	
484.84	16485	
485.04	14113	
485.24	14029	
485.44	16766	
485.64	15053	
485.84	13591	
486.04	15051	
486.24	15645	
486.44	16098	
486.63	13492	
486.83	14652	
487.03	15830	
487.23	16128	
487.43	13749	
487.63	16410	
487.83	16236	
488.02	17367	
488.22	15307	
488.42	15972	
488.62	17217	
488.82	16130	
489.02	14651	
489.22	15200	
489.41	17018	
489.61	16798	
489.81	14534	
490.01	14628	
490.21	17208	
490.41	17601	
490.61	14468	
490.8	14544	
491	16401	
491.2	15490	
491.4	15180	
491.6	14248	
491.8	16344	
491.99	16432	
492.19	14176	
492.39	14506	
492.59	17273	
492.79	17307	
492.99	15851	
493.18	14923	
493.38	17498	
493.58	18643	
493.78	15973	
493.98	15548	
494.18	17656	
494.37	17358	
494.57	16801	
494.77	16585	
494.97	18299	
495.17	18798	
495.37	16400	
495.56	16649	
495.76	19004	
495.96	18600	
496.16	17774	
496.36	16733	
496.55	18970	
496.75	18502	
496.95	17247	
497.15	17208	
497.35	18868	
497.54	19166	
497.74	16862	
497.94	18808	
498.14	19898	
498.34	19680	
498.53	17078	
498.73	17824	
498.93	18814	
499.13	19430	
499.33	17862	
499.52	18137	
499.72	19618	
499.92	19806	
500.12	17552	
500.32	17759	
500.51	19787	
500.71	19729	
500.91	18676	
501.11	18103	
501.31	19715	
501.5	20080	
501.7	18865	
501.9	17776	
502.1	19383	
502.29	19779	
502.49	18383	
502.69	18624	
502.89	19581	
503.09	19510	
503.28	17004	
503.48	17072	
503.68	18570	
503.88	18639	
504.07	17998	
504.27	17424	
504.47	18984	
504.67	19037	
504.86	17867	
505.06	17376	
505.26	18284	
505.46	20168	
505.65	17088	
505.85	17312	
506.05	18159	
506.25	18596	
506.44	16066	
506.64	16997	
506.84	17712	
507.04	18510	
507.23	16158	
507.43	16631	
507.63	19498	
507.83	17731	
508.02	16339	
508.22	15982	
508.42	19729	
508.62	17218	
508.81	16119	
509.01	16881	
509.21	17010	
509.4	17502	
509.6	16467	
509.8	15892	
510	17438	
510.19	19240	
510.39	16004	
510.59	16011	
510.79	17528	
510.98	19062	
511.18	16182	
511.38	16378	
511.57	18136	
511.77	18243	
511.97	16877	
512.17	15745	
512.36	18247	
512.56	18086	
512.76	15992	
512.95	15632	
513.15	18536	
513.35	17049	
513.55	17036	
513.74	16141	
513.94	18426	
514.14	17841	
514.33	17285	
514.53	17148	
514.73	18050	
514.92	18293	
515.12	16737	
515.32	16645	
515.51	18459	
515.71	19237	
515.91	18360	
516.11	16645	
516.3	20382	
516.5	18114	
516.7	17311	
516.89	17940	
517.09	18382	
517.29	18228	
517.48	17720	
517.68	17129	
517.88	18232	
518.07	18865	
518.27	17567	
518.47	16638	
518.66	19371	
518.86	18117	
519.06	16392	
519.25	17007	
519.45	18450	
519.65	20018	
519.84	17542	
520.04	18248	
520.24	20250	
520.43	18781	
520.63	17164	
520.83	16750	
521.02	17907	
521.22	18594	
521.42	17256	
521.61	18099	
521.81	18256	
522.01	18443	
522.2	17331	
522.4	17103	
522.6	19295	
522.79	18067	
522.99	17484	
523.18	16824	
523.38	19344	
523.58	19457	
523.77	19407	
523.97	16991	
524.17	21448	
524.36	20730	
524.56	18929	
524.76	18542	
524.95	19932	
525.15	19614	
525.34	18520	
525.54	18643	
525.74	20441	
525.93	19383	
526.13	19998	
526.33	18688	
526.52	21072	
526.72	20420	
526.91	20287	
527.11	19462	
527.31	21400	
527.5	21701	
527.7	19624	
527.89	18531	
528.09	20316	
528.29	21033	
528.48	19908	
528.68	19562	
528.87	21425	
529.07	21054	
529.27	19293	
529.46	18720	
529.66	20695	
529.85	20954	
530.05	18505	
530.25	19435	
530.44	22213	
530.64	20724	
530.83	19217	
531.03	19584	
531.23	21420	
531.42	21238	
531.62	20667	
531.81	19788	
532.01	21956	
532.21	22441	
532.4	19995	
532.6	20357	
532.79	23051	
532.99	22345	
533.18	20573	
533.38	21367	
533.58	22047	
533.77	22808	
533.97	20742	
534.16	21522	
534.36	23197	
534.55	22147	
534.75	21746	
534.95	20735	
535.14	23127	
535.34	22280	
535.53	20154	
535.73	22408	
535.92	23599	
536.12	22040	
536.31	20306	
536.51	21615	
536.71	22356	
536.9	22056	
537.1	20478	
537.29	20844	
537.49	22802	
537.68	21963	
537.88	21420	
538.07	20477	
538.27	22427	
538.46	23458	
538.66	20259	
538.86	20962	
539.05	22392	
539.25	22876	
539.44	21155	
539.64	20424	
539.83	22016	
540.03	22951	
540.22	20392	
540.42	20330	
540.61	22267	
540.81	22319	
541	20588	
541.2	21409	
541.39	21532	
541.59	22011	
541.78	21131	
541.98	19919	
542.18	20988	
542.37	21067	
542.57	19979	
542.76	20929	
542.96	20626	
543.15	21543	
543.35	19711	
543.54	19004	
543.74	21507	
543.93	20876	
544.13	19375	
544.32	20480	
544.52	21070	
544.71	20192	
544.91	18453	
545.1	19739	
545.3	20299	
545.49	21148	
545.69	18462	
545.88	18916	
546.08	22159	
546.27	21430	
546.47	19538	
546.66	18726	
546.86	21094	
547.05	21865	
547.24	18944	
547.44	18757	
547.63	20030	
547.83	21336	
548.02	19174	
548.22	19247	
548.41	19676	
548.61	21170	
548.8	18533	
549	18415	
549.19	20107	
549.39	20560	
549.58	17964	
549.78	18621	
549.97	20674	
550.17	20018	
550.36	19384	
550.55	20669	
550.75	20168	
550.94	21041	
551.14	18288	
551.33	18499	
551.53	19526	
551.72	20548	
551.92	18865	
552.11	18553	
552.31	20499	
552.5	20478	
552.69	20152	
552.89	18049	
553.08	20551	
553.28	20226	
553.47	18435	
553.67	19674	
553.86	21027	
554.06	19257	
554.25	17481	
554.44	18206	
554.64	21719	
554.83	21282	
555.03	17980	
555.22	18518	
555.42	20441	
555.61	20063	
555.8	18168	
556	18559	
556.19	19247	
556.39	20441	
556.58	18288	
556.78	18256	
556.97	20129	
557.16	19667	
557.36	19631	
557.55	17841	
557.75	18690	
557.94	20758	
558.13	17944	
558.33	17565	
558.52	20521	
558.72	19258	
558.91	17738	
559.1	17925	
559.3	18921	
559.49	18439	
559.69	17198	
559.88	18247	
560.07	19691	
560.27	19975	
560.46	18430	
560.66	18563	
560.85	19436	
561.04	18458	
561.24	17443	
561.43	17548	
561.63	18737	
561.82	18895	
562.01	19090	
562.21	17993	
562.4	19544	
562.59	20770	
562.79	17890	
562.98	17574	
563.18	19429	
563.37	21160	
563.56	18467	
563.76	17637	
563.95	19007	
564.14	19025	
564.34	18008	
564.53	17820	
564.73	19533	
564.92	20042	
565.11	18328	
565.31	17576	
565.5	20235	
565.69	19019	
565.89	17743	
566.08	18202	
566.27	20206	
566.47	20645	
566.66	18783	
566.85	17355	
567.05	19721	
567.24	19155	
567.44	17619	
567.63	19173	
567.82	19901	
568.02	19588	
568.21	17627	
568.4	17973	
568.6	19484	
568.79	19433	
568.98	17516	
569.18	17647	
569.37	19515	
569.56	21420	
569.76	17809	
569.95	18830	
570.14	19500	
570.34	19371	
570.53	17105	
570.72	16946	
570.91	19779	
571.11	18756	
571.3	17397	
571.49	18153	
571.69	18831	
571.88	18358	
572.07	17906	
572.27	17922	
572.46	18498	
572.65	19544	
572.85	17182	
573.04	17695	
573.23	20053	
573.43	19069	
573.62	17175	
573.81	17912	
574	19325	
574.2	19183	
574.39	17669	
574.58	17734	
574.78	20348	
574.97	19597	
575.16	18363	
575.36	18469	
575.55	19995	
575.74	20130	
575.93	17422	
576.13	18518	
576.32	19275	
576.51	19990	
576.71	17798	
576.9	19292	
577.09	20302	
577.28	19727	
577.48	18387	
577.67	17454	
577.86	19519	
578.05	20093	
578.25	18180	
578.44	18243	
578.63	19680	
578.83	20945	
579.02	17587	
579.21	19207	
579.4	20084	
579.6	19764	
579.79	18581	
579.98	20901	
580.17	20448	
580.37	20611	
580.56	18112	
580.75	19014	
580.94	21266	
581.14	21063	
581.33	19583	
581.52	18353	
581.71	20887	
581.91	21364	
582.1	18359	
582.29	18968	
582.48	20470	
582.68	20474	
582.87	19492	
583.06	19299	
583.25	20928	
583.45	20967	
583.64	20088	
583.83	20928	
584.02	20577	
584.21	21094	
584.41	19774	
584.6	19204	
584.79	20764	
584.98	21619	
585.18	18548	
585.37	18637	
585.56	20188	
585.75	21072	
585.94	18696	
586.14	19499	
586.33	21315	
586.52	20251	
586.71	18925	
586.91	18643	
587.1	19280	
587.29	20345	
587.48	18089	
587.67	17976	
587.87	19847	
588.06	19731	
588.25	18923	
588.44	17740	
588.63	18482	
588.83	18957	
589.02	16285	
589.21	15888	
589.4	17051	
589.59	16713	
589.78	14108	
589.98	14097	
590.17	15431	
590.36	16001	
590.55	13067	
590.74	13796	
590.94	17003	
591.13	15352	
591.32	13476	
591.51	13059	
591.7	15896	
591.89	15511	
592.09	13357	
592.28	13868	
592.47	14755	
592.66	16937	
592.85	13510	
593.05	13848	
593.24	15751	
593.43	16677	
593.62	14160	
593.81	14734	
594	16040	
594.19	16287	
594.39	14089	
594.58	14179	
594.77	16356	
594.96	16774	
595.15	13824	
595.34	14594	
595.54	16115	
595.73	15083	
595.92	13067	
596.11	14374	
596.3	16739	
596.49	15502	
596.68	14317	
596.88	14863	
597.07	16666	
597.26	15461	
597.45	13939	
597.64	15264	
597.83	15868	
598.02	16577	
598.22	14270	
598.41	14986	
598.6	16462	
598.79	15840	
598.98	14486	
599.17	15595	
599.36	16668	
599.55	17812	
599.74	16850	
599.94	16677	
600.13	17451	
600.32	16234	
600.51	14575	
600.7	14838	
600.89	18321	
601.08	18405	
601.27	14732	
601.47	16098	
601.66	17680	
601.85	18462	
602.04	15692	
602.23	15816	
602.42	16901	
602.61	17639	
602.8	15615	
602.99	15458	
603.18	17465	
603.37	17716	
603.57	16223	
603.76	16890	
603.95	18577	
604.14	18186	
604.33	15795	
604.52	16199	
604.71	17922	
604.9	17401	
605.09	16596	
605.28	16522	
605.47	18721	
605.66	18232	
605.86	16491	
606.05	15901	
606.24	18587	
606.43	17038	
606.62	16143	
606.81	17064	
607	18220	
607.19	17645	
607.38	15547	
607.57	15825	
607.76	17339	
607.95	16694	
608.14	16110	
608.33	16840	
608.52	17270	
608.72	18286	
608.91	15287	
609.1	15232	
609.29	17165	
609.48	16664	
609.67	16143	
609.86	15174	
610.05	16774	
610.24	17177	
610.43	15066	
610.62	14760	
610.81	18245	
611	18108	
611.19	15099	
611.38	15881	
611.57	17412	
611.76	18859	
611.95	14923	
612.14	14604	
612.33	17219	
612.52	16698	
612.71	15431	
612.9	14602	
613.09	16156	
613.28	18750	
613.47	15102	
613.66	16070	
613.85	17259	
614.04	16702	
614.24	15169	
614.43	14448	
614.62	17450	
614.81	17358	
615	15662	
615.19	15905	
615.38	16526	
615.57	17077	
615.76	15577	
615.95	16641	
616.14	17376	
616.33	17022	
616.52	16069	
616.71	16347	
616.9	17381	
617.09	17289	
617.28	15452	
617.47	16666	
617.66	16519	
617.85	16761	
618.04	16673	
618.22	15835	
618.41	17141	
618.6	18214	
618.79	16009	
618.98	15672	
619.17	18570	
619.36	16679	
619.55	15917	
619.74	15861	
619.93	17945	
620.12	17216	
620.31	16632	
620.5	16843	
620.69	18460	
620.88	19030	
621.07	17602	
621.26	16763	
621.45	18245	
621.64	18384	
621.83	16751	
622.02	15838	
622.21	18162	
622.4	18022	
622.59	17439	
622.78	17150	
622.97	17445	
623.16	18579	
623.35	16706	
623.54	15769	
623.72	17815	
623.91	17884	
624.1	16775	
624.29	15487	
624.48	18960	
624.67	18111	
624.86	16739	
625.05	15765	
625.24	19005	
625.43	17314	
625.62	18474	
625.81	15958	
626	18243	
626.19	17529	
626.38	16599	
626.56	15767	
626.75	17027	
626.94	17886	
627.13	15935	
627.32	14692	
627.51	17296	
627.7	18712	
627.89	14544	
628.08	15958	
628.27	16372	
628.46	16552	
628.65	14911	
628.83	14579	
629.02	17171	
629.21	16458	
629.4	15488	
629.59	15758	
629.78	16713	
629.97	17630	
630.16	16005	
630.35	15468	
630.54	18159	
630.72	17855	
630.91	15380	
631.1	15933	
631.29	17305	
631.48	17374	
631.67	16094	
631.86	15337	
632.05	16922	
632.24	16995	
632.42	15041	
632.61	15986	
632.8	17068	
632.99	16737	
633.18	15947	
633.37	16256	
633.56	17416	
633.75	17260	
633.93	16029	
634.12	15651	
634.31	18409	
634.5	18023	
634.69	15742	
634.88	16178	
635.07	17327	
635.25	17841	
635.44	16593	
635.63	16953	
635.82	17038	
636.01	16569	
636.2	16596	
636.39	16119	
636.57	18320	
636.76	17849	
636.95	15680	
637.14	16943	
637.33	17606	
637.52	18714	
637.7	15335	
637.89	16337	
638.08	17120	
638.27	18529	
638.46	16434	
638.65	16666	
638.83	18519	
639.02	16983	
639.21	16167	
639.4	16553	
639.59	17324	
639.78	16845	
639.96	15193	
640.15	15228	
640.34	17206	
640.53	17275	
640.72	14876	
640.91	15177	
641.09	16457	
641.28	17896	
641.47	15180	
641.66	16179	
641.85	17125	
642.03	17234	
642.22	15698	
642.41	15194	
642.6	16365	
642.79	15563	
642.97	14825	
643.16	15489	
643.35	16054	
643.54	15777	
643.73	14462	
643.91	15210	
644.1	15239	
644.29	15889	
644.48	13952	
644.67	13980	
644.85	14977	
645.04	15134	
645.23	13005	
645.42	13207	
645.6	14222	
645.79	15251	
645.98	12686	
646.17	11550	
646.36	13289	
646.54	13865	
646.73	12966	
646.92	11780	
647.11	13202	
647.29	14278	
647.48	11730	
647.67	11387	
647.86	14382	
648.05	14730	
648.23	12186	
648.42	13601	
648.61	14251	
648.8	14184	
648.98	12114	
649.17	12599	
649.36	13757	
649.55	13308	
649.73	12327	
649.92	13027	
650.11	13668	
650.3	13872	
650.48	12227	
650.67	11860	
650.86	14072	
651.05	13054	
651.23	12138	
651.42	12153	
651.61	13555	
651.79	14102	
651.98	12400	
652.17	11996	
652.36	14054	
652.54	13153	
652.73	12040	
652.92	11789	
653.11	14044	
653.29	14076	
653.48	11101	
653.67	12115	
653.85	13471	
654.04	14513	
654.23	12032	
654.42	11410	
654.6	12634	
654.79	13260	
654.98	10737	
655.16	11209	
655.35	12073	
655.54	12190	
655.73	11028	
655.91	10772	
656.1	13420	
656.29	12258	
656.47	10690	
656.66	12558	
656.85	12923	
657.03	13040	
657.22	11555	
657.41	11652	
657.59	13276	
657.78	13015	
657.97	11405	
658.16	12256	
658.34	14003	
658.53	14516	
658.72	13164	
658.9	13730	
659.09	13431	
659.28	13685	
659.46	12101	
659.65	12053	
659.84	13411	
660.02	14074	
660.21	12010	
660.4	11880	
660.58	14461	
660.77	13953	
660.96	12696	
661.14	11579	
661.33	14882	
661.52	14834	
661.7	11497	
661.89	15315	
662.08	13266	
662.26	12838	
662.45	11898	
662.64	11913	
662.82	14050	
663.01	13208	
663.2	11839	
663.38	12867	
663.57	13994	
663.75	13736	
663.94	12306	
664.13	13592	
664.31	13324	
664.5	14085	
664.69	12496	
664.87	13192	
665.06	13004	
665.25	13892	
665.43	13382	
665.62	13429	
665.8	14166	
665.99	13269	
666.18	12228	
666.36	12314	
666.55	14081	
666.74	13996	
666.92	11776	
667.11	13402	
667.29	13336	
667.48	14029	
667.67	13114	
667.85	12224	
668.04	13384	
668.22	13431	
668.41	12207	
668.6	12320	
668.78	13130	
668.97	13319	
669.15	12572	
669.34	11295	
669.53	13162	
669.71	13607	
669.9	11465	
670.08	12301	
670.27	13168	
670.46	13728	
670.64	12465	
670.83	12774	
671.01	12827	
671.2	13592	
671.38	11673	
671.57	11493	
671.76	14110	
671.94	14790	
672.13	11508	
672.31	12609	
672.5	13887	
672.69	12987	
672.87	11671	
673.06	11971	
673.24	13703	
673.43	13043	
673.61	12362	
673.8	11942	
673.98	13747	
674.17	13842	
674.36	12472	
674.54	12306	
674.73	13345	
674.91	13689	
675.1	12052	
675.28	11651	
675.47	13243	
675.65	13776	
675.84	11834	
676.03	12231	
676.21	13002	
676.4	12398	
676.58	12636	
676.77	12442	
676.95	14386	
677.14	12799	
677.32	11424	
677.51	11218	
677.69	13662	
677.88	12426	
678.06	11310	
678.25	11425	
678.44	13270	
678.62	12767	
678.81	10934	
678.99	12139	
679.18	13941	
679.36	13495	
679.55	11695	
679.73	12315	
679.92	13443	
680.1	12764	
680.29	12957	
680.47	11597	
680.66	12668	
680.84	13643	
681.03	10784	
681.21	12060	
681.4	12836	
681.58	12447	
681.77	11286	
681.95	11148	
682.14	13435	
682.32	13867	
682.51	12220	
682.69	10743	
682.88	12444	
683.06	13052	
683.25	11737	
683.43	12207	
683.62	12501	
683.8	12983	
683.99	12076	
684.17	10983	
684.36	13248	
684.54	11648	
684.73	9417.9	
684.91	9512.8	
685.1	11365	
685.28	10677	
685.46	9683.5	
685.65	9777	
685.83	11288	
686.02	10599	
686.2	9139.4	
686.39	9315.5	
686.57	10541	
686.76	12296	
686.94	9351	
687.13	9422.7	
687.31	11462	
687.5	10923	
687.68	9047.2	
687.86	10471	
688.05	12686	
688.23	10440	
688.42	10472	
688.6	9626.1	
688.79	11050	
688.97	10965	
689.16	10146	
689.34	8817.2	
689.52	11697	
689.71	11749	
689.89	10131	
690.08	9299.8	
690.26	10830	
690.45	10677	
690.63	10032	
690.81	9239.1	
691	10363	
691.18	10152	
691.37	9092.3	
691.55	11306	
691.74	9974.3	
691.92	12116	
692.1	9029.5	
692.29	8385.1	
692.47	10300	
692.66	9534	
692.84	8733.9	
693.02	9484.8	
693.21	9880.8	
693.39	10455	
693.58	9817.3	
693.76	9187.9	
693.94	11929	
694.13	11794	
694.31	9568.8	
694.5	10804	
694.68	10947	
694.86	11325	
695.05	10099	
695.23	10323	
695.42	11797	
695.6	14181	
695.78	10691	
695.97	9691.7	
696.15	11611	
696.34	10759	
696.52	9145.5	
696.7	9961.3	
696.89	10879	
697.07	10230	
697.25	9569.5	
697.44	11199	
697.62	10609	
697.81	11040	
697.99	9128.5	
698.17	9673.9	
698.36	9755.8	
698.54	10458	
698.72	9429.5	
698.91	8353	
699.09	10070	
699.28	10002	
699.46	9097.1	
699.64	8852	
699.83	9956.5	
700.01	11217	
700.19	9980.4	
700.38	8373.5	
700.56	11491	
700.74	10406	
700.93	8981.7	
701.11	9958.6	
701.29	11093	
701.48	12243	
701.66	9249.3	
701.84	9400.2	
702.03	10715	
702.21	11486	
702.39	8809	
702.58	9536.7	
702.76	11054	
702.94	11178	
703.13	8794	
703.31	11298	
703.49	10287	
703.68	11878	
703.86	8955.8	
704.04	10086	
704.23	10908	
704.41	11259	
704.59	9271.2	
704.78	10464	
704.96	12030	
705.14	11313	
705.33	9034.3	
705.51	9900.6	
705.69	10880	
705.87	11687	
706.06	10299	
706.24	9002.9	
706.42	11110	
706.61	11495	
706.79	10294	
706.97	9014.5	
707.16	10566	
707.34	11198	
707.52	10193	
707.7	9353.1	
707.89	10691	
708.07	10323	
708.25	10177	
708.44	10432	
708.62	10487	
708.8	11877	
708.98	10578	
709.17	9465.7	
709.35	11140	
709.53	11174	
709.72	9102.5	
709.9	9185.1	
710.08	11376	
710.26	11310	
710.45	10770	
710.63	9296.4	
710.81	10791	
710.99	10761	
711.18	9842.5	
711.36	9172.9	
711.54	10407	
711.72	11049	
711.91	9099.1	
712.09	8331.1	
712.27	10207	
712.45	10728	
712.64	8877.3	
712.82	7828	
713	9262.3	
713.18	9231.6	
713.37	7456.7	
713.55	8621.3	
713.73	9532.6	
713.91	7860.1	
714.1	7126.9	
714.28	6311.2	
714.46	8520.9	
714.64	7481.2	
714.83	5364.3	
715.01	6219.7	
715.19	7292.1	
715.37	6621.1	
715.55	5705.6	
715.74	6042.2	
715.92	8226.7	
716.1	6047.7	
716.28	7095.5	
716.47	6139.1	
716.65	6716	
716.83	6911.9	
717.01	5926.1	
717.19	6060.6	
717.38	9170.1	
717.56	6695.5	
717.74	6413.6	
717.92	5618.9	
718.1	8226	
718.29	7510.6	
718.47	5489.9	
718.65	6380.1	
718.83	8569.4	
719.01	8611	
719.2	5706.3	
719.38	6894.8	
719.56	8269.7	
719.74	9757.2	
719.92	6306.4	
720.11	7339.9	
720.29	8042.4	
720.47	6924.9	
720.65	5542.5	
720.83	6445.6	
721.02	7159.7	
721.2	6832.7	
721.38	6182.1	
721.56	5462.6	
721.74	6294.1	
721.92	6524.1	
722.11	6784.2	
722.29	6501.6	
722.47	7744.7	
722.65	6862.1	
722.83	5518.6	
723.01	6427.9	
723.2	6996.5	
723.38	7279.8	
723.56	4772.4	
723.74	6070.2	
723.92	6440.2	
724.1	7661.5	
724.29	5360.2	
724.47	6627.2	
724.65	6580.8	
724.83	6492.1	
725.01	5328.1	
725.19	6226.5	
725.37	6556.9	
725.56	6689.3	
725.74	5160.2	
725.92	5535.7	
726.1	6501.6	
726.28	6827.9	
726.46	5940.5	
726.64	5561.6	
726.83	6773.3	
727.01	7105.8	
727.19	5135.6	
727.37	6023.8	
727.55	6899.6	
727.73	7566.6	
727.91	5152.7	
728.09	4978.6	
728.28	7625.3	
728.46	8365.3	
728.64	6448.4	
728.82	6426.5	
729	9043.8	
729.18	8398	
729.36	5889.3	
729.54	8344.1	
729.72	9708.1	
729.91	7912	
730.09	8075.1	
730.27	6902.3	
730.45	7841	
730.63	8697.7	
730.81	7618.4	
730.99	6612.2	
731.17	9226.1	
731.35	7750.2	
731.53	7250.5	
731.71	6818.4	
731.9	8828.8	
732.08	9093.7	
732.26	6904.4	
732.44	6521.4	
732.62	9012.4	
732.8	8613.8	
732.98	7382.2	
733.16	6300.9	
733.34	8501.1	
733.52	7232.7	
733.7	6879.1	
733.88	7208.2	
734.07	8358.4	
734.25	8227.4	
734.43	6397.2	
734.61	8170	
734.79	9884.9	
734.97	8064.2	
735.15	6602.7	
735.33	7080.5	
735.51	8477.2	
735.69	8230.8	
735.87	8346.8	
736.05	7313.3	
736.23	8462.2	
736.41	8275.8	
736.59	7173.4	
736.77	7326.3	
736.95	9110	
737.13	8462.2	
737.32	6911.2	
737.5	7216.4	
737.68	9638.4	
737.86	8438.3	
738.04	6736.5	
738.22	8725.7	
738.4	8174.8	
738.58	8513.4	
738.76	7442.3	
738.94	6337.8	
739.12	8353.7	
739.3	8201.4	
739.48	8230.8	
739.66	7980.9	
739.84	8688.8	
740.02	8775.5	
740.2	6584.2	
740.38	6970.6	
740.56	9149	
740.74	8000	
740.92	7671.7	
741.1	7546.8	
741.28	8457.4	
741.46	8398	
741.64	7131.7	
741.82	7692.2	
742	8557.8	
742.18	8518.2	
742.36	7282.6	
742.54	6899.6	
742.72	9194	
742.9	7673.1	
743.08	7777.5	
743.26	6520.7	
743.44	9368.1	
743.62	9146.2	
743.8	7849.2	
743.98	6914.6	
744.16	8931.9	
744.34	8519.6	
744.52	7779.6	
744.7	7690.8	
744.88	8921.6	
745.06	8438.3	
745.24	7735.9	
745.42	7832.8	
745.6	8914.1	
745.78	8655.4	
745.96	6397.2	
746.14	6815.6	
746.32	9751.7	
746.5	8847.2	
746.68	7344.7	
746.86	6698.2	
747.03	9389.3	
747.21	7537.9	
747.39	7339.9	
747.57	6783.6	
747.75	8412.4	
747.93	8883.4	
748.11	6738.5	
748.29	6695.5	
748.47	10127	
748.65	8118.1	
748.83	7490.8	
749.01	7221.8	
749.19	8702.5	
749.37	7847.8	
749.55	7074.4	
749.73	7146.7	
749.91	8261.5	
750.09	7965.2	
750.26	7195.9	
750.44	6569.9	
750.62	8338.6	
750.8	8392.6	
750.98	6443.6	
751.16	6691.4	
751.34	8318.2	
751.52	7650.5	
751.7	7550.9	
751.88	6348	
752.06	8936.7	
752.24	8577.6	
752.42	6313.2	
752.59	6748.1	
752.77	8199.4	
752.95	9583.8	
753.13	7535.2	
753.31	6780.1	
753.49	7758.4	
753.67	8344.1	
753.85	7024.5	
754.03	6565.1	
754.21	8537.3	
754.38	8876.6	
754.56	6619	
754.74	5477.6	
754.92	7383.6	
755.1	8189.1	
755.28	5216.9	
755.46	4855.1	
755.64	8217.1	
755.82	8145.5	
755.99	4657.1	
756.17	4726.7	
756.35	5148.6	
756.53	6799.9	
756.71	3393.5	
756.89	4444.8	
757.07	6432	
757.25	5385.5	
757.42	5097.4	
757.6	6051.1	
757.78	6706.4	
757.96	5596.4	
758.14	4922	
758.32	4316.4	
758.5	4967	
758.67	5917.9	
758.85	4566.3	
759.03	4712.4	
759.21	6044.9	
759.39	5464	
759.57	4157.4	
759.75	5300.1	
759.92	6813.6	
760.1	6004.6	
760.28	5836.7	
760.46	6144.6	
760.64	5977.3	
760.82	5653.1	
760.99	5714.5	
761.17	5115.8	
761.35	6995.2	
761.53	5954.1	
761.71	5376.6	
761.89	6146.6	
762.06	7067.5	
762.24	6590.4	
762.42	5595.1	
762.6	5492.7	
762.78	6716	
762.96	7561.1	
763.13	6206.7	
763.31	5829.9	
763.49	7757	
763.67	6848.4	
763.85	6815.6	
764.02	7417.1	
764.2	8172.1	
764.38	7239.6	
764.56	5877.7	
764.74	6821.8	
764.91	8300.4	
765.09	7104.4	
765.27	5599.1	
765.45	5351.3	
765.63	8272.4	
765.8	8131.1	
765.98	5007.3	
766.16	5483.8	
766.34	6597.2	
766.52	6398.5	
766.69	6477.7	
766.87	5155.4	
767.05	7065.5	
767.23	7798.7	
767.41	5505.6	
767.58	5774.6	
767.76	7576.8	
767.94	7672.4	
768.12	5616.9	
768.29	6419	
768.47	7062.1	
768.65	7862.8	
768.83	5167.7	
769	6417.7	
769.18	6541.9	
769.36	7317.4	
769.54	6110.5	
769.72	5111	
769.89	7600	
770.07	7732.4	
770.25	5449	
770.43	6787	
770.6	8202.8	
770.78	8712.7	
770.96	5612.8	
771.14	6265.4	
771.31	7303.1	
771.49	6726.2	
771.67	4686.4	
771.85	4962.9	
772.02	5799.8	
772.2	6657.9	
772.38	5714.5	
772.55	5048.2	
772.73	6865.5	
772.91	6636.1	
773.09	5528.8	
773.26	5647.6	
773.44	6763.1	
773.62	6452.5	
773.8	4919.9	
773.97	4609.3	
774.15	6894.8	
774.33	6457.9	
774.5	4821.6	
774.68	5241.4	
774.86	7056.6	
775.04	6369.9	
775.21	4829.8	
775.39	4851.6	
775.57	6630.6	
775.74	7102.4	
775.92	4725.3	
776.1	4618.2	
776.27	6600.6	
776.45	7938.6	
776.63	4809.3	
776.81	4227.7	
776.98	6177.4	
777.16	7339.9	
777.34	4902.8	
777.51	4827.7	
777.69	6173.9	
777.87	5952.1	
778.04	4908.3	
778.22	5590.3	
778.4	5895.4	
778.57	6538.5	
778.75	4088.4	
778.93	4354	
779.1	5593.7	
779.28	5541.1	
779.46	4066.6	
779.64	4576.5	
779.81	6669.6	
779.99	7612.3	
780.17	5425.1	
780.34	5569.8	
780.52	6120	
780.69	6290	
780.87	4925.4	
781.05	4348.5	
781.22	6128.9	
781.4	6126.8	
781.58	4473.4	
781.75	3545.7	
781.93	6102.9	
782.11	5423	
782.28	5429.2	
782.46	4441.4	
782.64	5285.8	
782.81	6351.4	
782.99	4515.1	
783.17	4543.8	
783.34	6134.3	
783.52	5178.6	
783.69	4681	
783.87	5526.8	
784.05	5275.6	
784.22	5322.7	
784.4	5459.2	
784.58	4743.8	
784.75	6279.1	
784.93	5311.7	
785.1	4365.6	
785.28	5042.1	
785.46	5969.8	
785.63	5267.4	
785.81	4319.2	
785.99	4229.1	
786.16	5464.7	
786.34	5881.1	
786.51	4243.4	
786.69	4639.3	
786.87	5029.8	
787.04	5627.8	
787.22	4029.7	
787.39	5036.6	
787.57	5259.2	
787.75	6447.7	
787.92	5225.1	
788.1	5231.2	
788.27	5352.7	
788.45	5104.9	
788.63	4874.8	
788.8	3510.2	
788.98	5839.4	
789.15	4971.8	
789.33	3644.7	
789.5	4270.7	
789.68	6322.8	
789.86	6308.4	
790.03	4825	
790.21	4144.4	
790.38	6241.5	
790.56	5362.9	
790.73	3980.6	
790.91	4036.5	
791.09	5233.9	
791.26	6021.7	
791.44	4296.6	
791.61	3641.3	
791.79	5155.4	
791.96	5286.5	
792.14	3798.3	
792.32	3388	
792.49	5229.1	
792.67	5395.7	
792.84	3858.4	
793.02	3617.4	
793.19	5694.7	
793.37	6448.4	
793.54	3321.1	
793.72	3743	
793.89	6657.3	
794.07	5270.1	
794.25	4339.6	
794.42	3411.9	
794.6	6354.8	
794.77	5923.4	
794.95	4654.4	
795.12	4049.5	
795.3	5171.1	
795.47	5850.4	
795.65	4397	
795.82	4227.7	
796	5031.2	
796.17	7023.9	
796.35	4162.2	
796.52	4861.9	
796.7	5784.8	
796.87	5797.8	
797.05	5056.4	
797.22	4971.8	
797.4	5767.1	
797.57	6845.7	
797.75	4272.1	
797.92	3941.7	
798.1	6066.8	
798.27	5126.1	
798.45	3404.4	
798.62	3674.7	
798.8	5470.1	
798.97	6009.4	
799.15	4482.3	
799.32	4237.2	
799.5	4692.6	
799.67	5603.2	
799.85	4574.5	
800.02	3336.8	
800.2	5060.5	
800.37	5472.2	
800.55	4804.5	
800.72	3999	
800.9	6018.3	
801.07	6407.4	
801.25	5384.8	
801.42	4368.3	
801.6	6033.3	
801.77	5728.9	
801.95	4119.8	
802.12	3837.9	
802.29	5683.1	
802.47	5644.9	
802.64	4336.2	
802.82	3233.1	
802.99	5081.7	
803.17	6217	
803.34	4192.9	
803.52	3772.4	
803.69	6858.6	
803.87	4865.3	
804.04	4113.7	
804.21	4268	
804.39	6272.2	
804.56	5342.5	
804.74	3568.2	
804.91	4311	
805.09	5143.1	
805.26	5257.1	
805.44	3596.2	
805.61	3977.2	
805.78	5783.5	
805.96	5878.4	
806.13	4371	
806.31	4656.4	
806.48	4618.2	
806.66	5235.3	
806.83	4343.1	
807	4285.7	
807.18	5044.1	
807.35	5461.2	
807.53	4216.1	
807.7	3373.7	
807.87	6377.4	
808.05	5166.3	
808.22	4629.1	
808.4	3351.2	
808.57	5139.7	
808.74	4719.2	
808.92	3844	
809.09	4855.7	
809.27	5025.7	
809.44	5651	
809.61	3336.8	
809.79	3745.1	
809.96	6294.8	
810.14	5945.3	
810.31	3198.2	
810.48	4059.8	
810.66	5163.6	
810.83	5951.4	
811.01	3794.2	
811.18	4305.5	
811.35	5907	
811.53	4588.1	
811.7	4657.8	
811.87	4306.2	
812.05	5088.5	
812.22	5055.1	
812.39	3680.9	
812.57	3586.7	
812.74	5142.4	
812.92	6916	
813.09	4047.5	
813.26	4380.6	
813.44	6572.6	
813.61	5076.9	
813.78	3397.6	
813.96	4472.8	
814.13	5166.3	
814.3	4786.8	
814.48	4918.5	
814.65	4049.5	
814.82	6434.7	
815	4959.5	
815.17	4157.4	
815.34	5089.2	
815.52	5010	
815.69	5076.9	
815.87	4125.3	
816.04	3514.3	
816.21	5168.4	
816.38	4493.9	
816.56	3984.7	
816.73	3694.5	
816.9	6469.5	
817.08	5997.1	
817.25	3743.7	
817.42	4789.5	
817.6	4677.6	
817.77	5115.1	
817.94	4238.6	
818.12	3671.3	
818.29	4870.8	
818.46	7737.9	
818.64	3863.8	
818.81	3590.8	
818.98	4743.1	
819.16	7033.4	
819.33	4522.6	
819.5	4117.8	
819.67	5511.1	
819.85	6205.3	
820.02	4068.6	
820.19	4332.8	
820.37	5423.7	
820.54	4908.3	
820.71	4261.1	
820.88	5261.2	
821.06	5386.8	
821.23	4866.7	
821.4	4241.3	
821.58	4188.1	
821.75	5879	
821.92	5261.9	
822.09	3341.6	
822.27	3442	
822.44	5157.5	
822.61	5058.5	
822.79	3395.5	
822.96	6599.2	
823.13	5715.9	
823.3	4918.5	
823.48	3949.8	
823.65	3566.9	
823.82	5818.3	
823.99	4663.2	
824.17	5038	
824.34	3622.2	
824.51	6782.2	
824.68	5191.6	
824.86	3747.1	
825.03	4211.3	
825.2	5128.8	
825.37	6312.5	
825.55	3695.9	
825.72	4171.7	
825.89	6899.6	
826.06	6388.3	
826.24	4074.1	
826.41	4064.5	
826.58	6324.8	
826.75	5452.4	
826.92	3235.8	
827.1	3547.8	
827.27	8609.7	
827.44	6808.8	
827.61	3810.6	
827.79	4683.7	
827.96	4896.7	
828.13	5250.3	
828.3	4043.4	
828.47	3373	
828.65	5372.5	
828.82	5283.8	
828.99	5241.4	
829.16	4595	
829.34	5780.7	
829.51	5497.4	
829.68	4197.7	
829.85	4308.2	
830.02	6048.3	
830.2	5850.4	
830.37	3175.7	
830.54	5061.2	
830.71	6597.2	
830.88	5066.7	
831.05	3284.3	
831.23	3810.6	
831.4	6260	
831.57	7133.1	
831.74	3879.5	
831.91	3392.8	
832.09	5360.9	
832.26	5750.7	
832.43	3998.3	
832.6	4526.7	
832.77	5316.5	
832.94	6201.2	
833.12	3117.7	
833.29	3921.2	
833.46	5599.8	
833.63	7397.3	
833.8	4294.6	
833.97	4026.3	
834.15	5794.4	
834.32	5582.8	
834.49	4150.5	
834.66	4252.9	
834.83	5999.2	
835	4878.9	
835.17	3820.1	
835.35	3926.6	
835.52	5679.7	
835.69	5568.4	
835.86	4120.5	
836.03	3360.7	
836.2	5722.7	
836.37	5360.9	
836.55	4049.5	
836.72	3708.9	
836.89	5300.8	
837.06	5781.4	
837.23	4074.1	
837.4	4506.9	
837.57	6657.3	
837.75	7378.1	
837.92	3678.8	
838.09	3928.7	
838.26	5339.1	
838.43	6060.6	
838.6	4246.1	
838.77	3824.2	
838.94	6905.1	
839.11	6647	
839.29	3999	
839.46	3154.6	
839.63	5711.8	
839.8	5505.6	
839.97	3915.7	
840.14	3820.8	
840.31	5483.8	
840.48	5803.9	
840.65	3232.4	
840.82	3820.1	
841	5814.9	
841.17	5715.2	
841.34	3610.6	
841.51	3623.5	
841.68	5614.8	
841.85	5390.9	
842.02	3753.9	
842.19	3091.1	
842.36	5507.7	
842.53	5530.2	
842.7	3577.1	
842.87	4418.2	
843.05	7249.8	
843.22	5414.8	
843.39	3357.3	
843.56	3646.1	
843.73	5225.7	
843.9	5797.1	
844.07	5844.2	
844.24	4891.9	
844.41	8485.4	
844.58	4988.9	
844.75	3434.4	
844.92	3722.5	
845.09	5778	
845.26	5730.9	
845.43	3512.9	
845.6	3766.9	
845.77	5765	
845.94	5432.6	
846.12	3918.4	
846.29	4175.8	
846.46	5954.1	
846.63	5788.2	
846.8	3608.5	
846.97	4228.4	
847.14	6204	
847.31	5732.3	
847.48	4031.1	
847.65	4465.9	
847.82	6070.2	
847.99	5974.6	
848.16	4707.6	
848.33	4458.4	
848.5	5244.2	
848.67	6230.6	
848.84	3483.6	
849.01	3685	
849.18	5132.9	
849.35	4773.1	
849.52	4444.8	
849.69	3454.2	
849.86	5965.7	
850.03	6201.9	
850.2	3524.6	
850.37	4321.9	
850.54	6088.6	
850.71	5393	
850.88	4304.8	
851.05	3502	
851.22	5666.7	
851.39	6328.2	
851.56	3325.2	
851.73	4087.7	
851.9	5027.8	
852.07	6001.2	
852.24	3947.8	
852.41	3540.9	
852.58	5570.5	
852.75	5089.9	
852.92	3972.4	
853.09	3442.6	
853.26	5329.5	
853.43	6195.1	
853.6	3566.2	
853.77	2994.1	
853.94	6290	
854.11	5678.3	
854.28	5281	
854.44	3834.5	
854.61	6792.4	
854.78	5872.2	
854.95	3535.5	
855.12	4446.1	
855.29	4573.8	
855.46	6427.2	
855.63	3508.9	
855.8	4903.5	
855.97	5278.3	
856.14	6086.6	
856.31	4974.5	
856.48	3867.9	
856.65	5237.3	
856.82	4964.3	
856.99	3406.5	
857.16	3830.4	
857.33	6997.9	
857.49	5393	
857.66	3865.9	
857.83	4187.4	
858	5356.8	
858.17	5507	
858.34	3386	
858.51	3558	
858.68	6408.8	
858.85	6516.6	
859.02	4137.6	
859.19	4345.1	
859.36	4985.4	
859.52	5049.6	
859.69	3558	
859.86	4160.8	
860.03	5113.1	
860.2	6281.8	
860.37	3258.3	
860.54	3618.8	
860.71	6003.3	
860.88	6405.4	
861.05	3947.8	
861.21	4547.9	
861.38	6450.4	
861.55	4888.5	
861.72	3216.7	
861.89	4005.8	
862.06	6066.1	
862.23	6559.6	
862.4	3467.9	
862.56	3689.8	
862.73	5819	
862.9	5545.2	
863.07	4160.8	
863.24	3221.5	
863.41	4901.5	
863.58	5080.3	
863.75	3646.1	
863.91	4176.5	
864.08	6347.3	
864.25	5894.1	
864.42	4517.1	
864.59	4981.3	
864.76	6715.3	
864.93	5048.9	
865.09	3456.3	
865.26	3781.2	
865.43	6234.7	
865.6	6658.6	
865.77	3072.6	
865.94	3528	
866.1	6311.2	
866.27	6003.3	
866.44	5439.4	
866.61	3362.1	
866.78	5354.8	
866.95	5851	
867.11	3374.4	
867.28	3140.9	
867.45	6121.4	
867.62	5140.4	
867.79	4123.2	
867.96	3508.2	
868.12	5064.6	
868.29	6007.4	
868.46	3529.3	
868.63	4817.5	
868.8	6120	
868.97	5912.5	
869.13	3647.4	
869.3	3648.1	
869.47	5882.4	
869.64	6063.4	
869.81	3623.5	
869.97	3534.1	
870.14	5708.4	
870.31	6451.1	
870.48	3468.6	
870.65	4444.8	
870.81	5347.2	
870.98	5314.5	
871.15	4031.8	
871.32	3627	
871.48	5855.8	
871.65	6424.5	
871.82	3510.9	
871.99	3908.2	
872.16	6913.3	
872.32	6258.6	
872.49	3592.8	
872.66	3591.5	
872.83	5971.2	
872.99	5298.1	
873.16	4081.6	
873.33	3467.2	
873.5	5565.7	
873.67	5584.8	
873.83	3727.3	
874	4758.8	
874.17	5682.4	
874.34	6787.7	
874.5	4635.2	
874.67	4435.9	
874.84	6420.4	
875.01	5003.9	
875.17	4945.2	
875.34	3527.3	
875.51	5670.8	
875.68	6829.3	
875.84	4304.8	
876.01	5293.3	
876.18	5936.4	
876.34	5872.2	
876.51	3611.3	
876.68	3464.5	
876.85	5387.5	
877.01	6254.5	
877.18	5087.8	
877.35	3485	
877.52	5550.7	
877.68	4934.2	
877.85	3440.6	
878.02	3500.7	
878.18	5434.6	
878.35	5173.2	
878.52	2812.5	
878.69	3930.7	
878.85	5970.5	
879.02	5906.3	
879.19	5081	
879.35	3818.8	
879.52	5918.6	
879.69	6149.4	
879.86	3065.1	
880.02	3957.4	
880.19	5494	
880.36	6735.8	
880.52	4114.4	
880.69	4268.6	
880.86	5984.8	
881.02	6083.1	
881.19	3899.3	
881.36	3822.9	
881.52	5973.2	
881.69	5181.4	
881.86	3797.6	
882.02	3760.8	
882.19	6178	
882.36	7312.6	
882.52	3631.7	
882.69	5014.1	
882.86	5711.1	
883.02	5597.8	
883.19	4271.4	
883.36	4093.2	
883.52	6055.8	
883.69	6984.3	
883.86	3580.5	
884.02	3181.2	
884.19	6010.1	
884.36	5512.4	
884.52	4012	
884.69	3759.4	
884.86	5266	
885.02	6586.3	
885.19	3975.1	
885.36	4107.5	
885.52	5547.3	
885.69	5685.2	
885.86	5215.5	
886.02	4565.6	
886.19	6034	
886.35	5401.2	
886.52	3908.2	
886.69	4944.5	
886.85	5027.8	
887.02	6381.5	
887.19	6381.5	
887.35	6381.5	
887.52	6381.5	
887.68	6381.5	
887.85	6381.5	
888.02	6381.5	
888.18	6381.5	
888.35	6381.5	
888.51	6381.5	
888.68	6381.5	
888.85	6381.5	
889.01	6381.5	
889.18	6381.5	
889.35	6381.5	
889.51	6381.5	
889.68	6381.5	
889.84	6381.5	
890.01	6381.5	
890.17	6381.5	
890.34	6381.5	
890.51	6381.5	
890.67	6381.5	
890.84	6381.5	
891	6381.5	
891.17	6381.5	
891.34	6381.5	
891.5	6381.5	
891.67	6381.5	
891.83	6381.5	
892	6381.5	
892.16	6381.5	
892.33	6381.5	
892.5	6381.5	
892.66	6381.5	
892.83	6381.5	
892.99	6381.5	
893.16	6381.5	
893.32	6381.5	
893.49	6381.5	
893.65	6381.5	
893.82	6381.5	
893.99	6381.5	
894.15	6381.5	
894.32	6381.5	
894.48	6381.5	
894.65	6381.5	
894.81	6381.5	
894.98	6381.5	
895.14	6381.5	
895.31	6381.5	
895.47	6381.5	
895.64	6381.5	
895.81	6381.5	
895.97	6381.5	
896.14	6381.5	
896.3	6381.5	
896.47	6381.5	
896.63	6381.5	
896.8	6381.5	
896.96	6381.5	
897.13	6381.5	
897.29	6381.5	
897.46	6381.5	
897.62	6381.5	
897.79	6381.5	
897.95	6381.5	
898.12	6381.5	
898.28	6381.5	
898.45	6381.5	
898.61	6381.5	
898.78	6381.5	
898.94	6381.5	
899.11	6381.5	
899.27	6381.5	
899.44	6381.5	
899.6	6381.5	
899.77	6381.5	
899.93	6381.5	
900.1	6381.5	
900.26	6381.5	
900.43	6381.5	
900.59	6381.5	
900.76	6381.5	
900.92	6381.5	
901.09	6381.5	
901.25	6381.5	
901.42	6381.5	
901.58	6381.5	
901.75	6381.5	
901.91	6381.5	
902.07	6381.5	
902.24	6381.5	
902.4	6381.5	
902.57	6381.5	
902.73	6381.5	
902.9	6381.5	
903.06	6381.5	
903.23	6381.5	
903.39	6381.5	
903.56	6381.5	
903.72	6381.5	
903.88	6381.5	
904.05	6381.5	
904.21	6381.5	
904.38	6381.5	
904.54	6381.5	
904.71	6381.5	
904.87	6381.5	
905.03	6381.5	
905.2	6381.5	
905.36	6381.5	
905.53	6381.5	
905.69	6381.5	
905.86	6381.5	
906.02	6381.5	
906.18	6381.5	
906.35	6381.5	
906.51	6381.5	
906.68	6381.5	
906.84	6381.5	
907.01	6381.5	
907.17	6381.5	
907.33	6381.5	
907.5	6381.5	
907.66	6381.5	
907.83	6381.5	
907.99	6381.5	
908.15	6381.5	
908.32	6381.5	
908.48	6381.5	
908.65	6381.5	
908.81	6381.5	
908.97	6381.5	
909.14	6381.5	
909.3	6381.5	
909.47	6381.5	
909.63	6381.5	
909.79	6381.5	
909.96	6381.5	
910.12	6381.5	
910.28	6381.5	
910.45	6381.5	
910.61	6381.5	
910.78	6381.5	
910.94	6381.5	
911.1	6381.5	
911.27	6381.5	
911.43	6381.5	
911.59	6381.5	
911.76	6381.5	
911.92	6381.5	
912.08	6381.5	
912.25	6381.5	
912.41	6381.5	
912.57	6381.5	
912.74	6381.5	
912.9	6381.5	
913.07	6381.5	
913.23	6381.5	
913.39	6381.5	
913.56	6381.5	
913.72	6381.5	
913.88	6381.5	
914.05	6381.5	
914.21	6381.5	
914.37	6381.5	
914.54	6381.5	
914.7	6381.5	
914.86	6381.5	
915.03	6381.5	
915.19	6381.5	
