Wavelength	Intensities	
nm	a.u.	
179.22	1721.5	
179.44	1725.4	
179.65	1717.6	
179.86	1733.3	
180.08	1767.4	
180.29	4170.3	
180.51	3058.3	
180.72	5163.6	
180.94	5820.3	
181.15	2865.8	
181.37	2798.2	
181.58	4961.5	
181.79	5191.6	
182.01	2910.2	
182.22	3086.3	
182.44	5197.7	
182.65	4461.8	
182.87	3852.2	
183.08	3398.3	
183.29	5462.6	
183.51	4555.4	
183.72	3124.5	
183.94	4394.9	
184.15	4869.4	
184.37	4861.9	
184.58	2786.6	
184.79	3684.3	
185.01	4576.5	
185.22	5141.8	
185.44	3869.3	
185.65	3305.4	
185.86	4836.6	
186.08	4460.5	
186.29	2723.1	
186.51	2886.3	
186.72	4589.5	
186.94	5259.9	
187.15	3347.1	
187.36	3380.5	
187.58	6578.1	
187.79	4922	
188.01	3543	
188.22	5372.5	
188.43	5862.7	
188.65	5139	
188.86	2906.1	
189.08	3432.4	
189.29	4681.7	
189.5	4671.4	
189.72	3176.4	
189.93	3205.8	
190.15	5268.7	
190.36	6128.9	
190.57	3360	
190.79	3367.5	
191	5346.6	
191.22	5304.9	
191.43	3507.5	
191.64	2953.2	
191.86	5555.5	
192.07	5331.5	
192.29	3093.1	
192.5	3087.7	
192.71	5316.5	
192.93	4709	
193.14	3168.2	
193.35	3231.7	
193.57	4667.3	
193.78	5389.6	
194	2588.6	
194.21	3110.9	
194.42	4473.4	
194.64	4881.7	
194.85	3409.2	
195.07	3904.8	
195.28	4843.4	
195.49	4326	
195.71	4158.1	
195.92	2978.4	
196.13	5023.7	
196.35	5115.1	
196.56	4406.5	
196.78	3440.6	
196.99	6169.8	
197.2	5709.1	
197.42	3829	
197.63	3469.3	
197.84	4448.2	
198.06	5063.3	
198.27	3137.5	
198.48	4102.8	
198.7	4654.4	
198.91	4873.5	
199.13	3429.7	
199.34	3484.3	
199.55	5251	
199.77	4237.2	
199.98	3099.3	
200.19	3494.5	
200.41	4843.4	
200.62	4522.6	
200.83	3599	
201.05	3841.3	
201.26	4856.4	
201.47	4656.4	
201.69	3067.9	
201.9	3014.6	
202.11	4877.6	
202.33	5629.9	
202.54	3284.9	
202.76	3653.6	
202.97	4905.6	
203.18	4965	
203.4	3546.4	
203.61	3598.3	
203.82	4900.8	
204.04	4598.4	
204.25	3469.3	
204.46	3429	
204.68	4908.3	
204.89	5081	
205.1	3384.6	
205.32	2998.2	
205.53	5250.3	
205.74	5329.5	
205.96	2551.8	
206.17	3495.9	
206.38	5133.6	
206.6	5298.1	
206.81	3929.4	
207.02	3155.2	
207.24	5031.2	
207.45	5402.5	
207.66	3236.5	
207.88	2876	
208.09	5067.4	
208.3	4810	
208.52	3073.3	
208.73	3364.1	
208.94	4895.3	
209.15	5431.9	
209.37	3275.4	
209.58	3756	
209.79	5304.2	
210.01	4758.1	
210.22	2690.3	
210.43	2862.4	
210.65	4860.5	
210.86	5193.6	
211.07	3271.3	
211.29	3084.9	
211.5	5109.7	
211.71	4803.9	
211.93	3044	
212.14	3033.7	
212.35	4797	
212.56	4947.9	
212.78	3463.1	
212.99	2865.1	
213.2	5637.4	
213.42	4715.8	
213.63	3127.2	
213.84	3371	
214.06	4404.5	
214.27	4454.3	
214.48	3270.6	
214.69	3489.7	
214.91	5420.3	
215.12	5472.9	
215.33	3510.2	
215.55	3811.3	
215.76	5857.9	
215.97	5150	
216.18	3380.5	
216.4	3403	
216.61	4607.2	
216.82	5257.8	
217.04	3082.2	
217.25	3239.2	
217.46	5407.3	
217.67	5184.8	
217.89	2791.4	
218.1	2894.5	
218.31	4924.7	
218.53	5027.8	
218.74	3222.8	
218.95	3078.8	
219.16	4883.7	
219.38	5656.5	
219.59	3089	
219.8	3631.7	
220.01	6098.9	
220.23	4961.5	
220.44	3981.9	
220.65	3028.9	
220.87	4877.6	
221.08	5413.5	
221.29	2895.8	
221.5	3764.8	
221.72	6443.6	
221.93	4608.6	
222.14	3495.2	
222.35	4019.5	
222.57	4862.6	
222.78	5148.6	
222.99	3319.1	
223.2	3484.3	
223.42	5175.9	
223.63	5222.3	
223.84	2606.4	
224.05	2599.6	
224.27	5983.5	
224.48	5591.6	
224.69	4043.4	
224.9	3427.6	
225.12	5059.2	
225.33	4852.3	
225.54	2823.5	
225.75	3058.3	
225.97	4534.2	
226.18	4806.6	
226.39	3317	
226.6	3136.8	
226.82	4727.4	
227.03	4542.4	
227.24	3482.2	
227.45	2912.2	
227.67	5222.3	
227.88	5584.8	
228.09	3854.3	
228.3	3850.2	
228.52	5197.1	
228.73	4844.1	
228.94	3207.8	
229.15	2865.8	
229.36	4833.9	
229.58	4831.8	
229.79	3304.1	
230	3727.3	
230.21	5688.6	
230.43	4956.8	
230.64	3387.3	
230.85	3556	
231.06	5255.8	
231.28	5183.4	
231.49	2861.7	
231.7	3383.2	
231.91	5152	
232.12	4844.1	
232.34	3021.4	
232.55	3344.3	
232.76	5405.3	
232.97	4954.7	
233.18	3054.2	
233.4	3448.1	
233.61	5027.1	
233.82	4691.2	
234.03	3238.5	
234.25	3180.5	
234.46	6552.8	
234.67	4854.4	
234.88	3487.7	
235.09	3096.5	
235.31	5081.7	
235.52	4782	
235.73	3390.1	
235.94	2940.2	
236.15	4630.5	
236.37	5821.7	
236.58	3011.9	
236.79	3309.5	
237	5190.9	
237.21	4499.4	
237.43	3561.4	
237.64	2865.8	
237.85	8187.1	
238.06	4528.7	
238.27	3586.7	
238.48	2916.3	
238.7	5145.2	
238.91	4758.1	
239.12	3301.3	
239.33	3354.6	
239.54	4545.8	
239.76	4746.5	
239.97	3302.7	
240.18	3289	
240.39	5853.1	
240.6	5074.2	
240.82	3441.3	
241.03	2878.1	
241.24	4855.7	
241.45	5515.9	
241.66	3079.5	
241.87	3582.6	
242.09	5468.1	
242.3	5710.4	
242.51	3599	
242.72	3273.3	
242.93	5273.5	
243.14	4808.6	
243.36	3805.8	
243.57	4046.8	
243.78	5560.2	
243.99	5145.9	
244.2	3358.7	
244.41	3030.3	
244.63	4487.8	
244.84	5078.3	
245.05	3523.2	
245.26	3299.3	
245.47	5098.8	
245.68	5196.4	
245.9	4285	
246.11	3442.6	
246.32	4714.4	
246.53	5061.9	
246.74	5237.3	
246.95	2839.8	
247.16	4545.1	
247.38	4891.2	
247.59	2857.6	
247.8	3349.1	
248.01	4552.6	
248.22	4842.1	
248.43	3045.3	
248.64	3229	
248.86	4408.6	
249.07	4704.9	
249.28	2937.5	
249.49	3428.3	
249.7	5339.7	
249.91	5405.3	
250.12	2813.9	
250.34	2904	
250.55	4980.7	
250.76	4918.5	
250.97	3476.8	
251.18	3448.1	
251.39	5371.8	
251.6	4992.9	
251.81	3472	
252.03	3435.8	
252.24	4700.8	
252.45	5249.6	
252.66	2927.9	
252.87	3629	
253.08	4874.8	
253.29	6169.2	
253.5	2920.4	
253.72	4026.3	
253.93	4788.8	
254.14	5644.2	
254.35	3162.1	
254.56	3250.8	
254.77	5010	
254.98	4601.8	
255.19	3169.6	
255.41	3927.3	
255.62	4979.3	
255.83	5367	
256.04	3557.3	
256.25	3415.3	
256.46	5819.6	
256.67	4595.6	
256.88	3433.1	
257.09	3756.7	
257.31	4567	
257.52	4593.6	
257.73	4237.2	
257.94	3213.3	
258.15	4792.2	
258.36	4876.2	
258.57	3917.1	
258.78	2613.2	
258.99	5270.8	
259.2	4783.4	
259.41	3168.9	
259.63	3295.9	
259.84	5512.4	
260.05	5829.2	
260.26	4096.6	
260.47	3166.8	
260.68	5336.3	
260.89	4863.2	
261.1	3805.8	
261.31	3117.7	
261.52	5406.6	
261.73	5592.3	
261.95	4044.7	
262.16	3521.1	
262.37	5459.2	
262.58	5509	
262.79	4069.3	
263	3204.4	
263.21	4996.4	
263.42	4755.4	
263.63	3317	
263.84	3200.3	
264.05	5270.1	
264.26	5611.4	
264.47	3902.7	
264.69	3577.1	
264.9	5523.4	
265.11	5036.6	
265.32	3064.4	
265.53	3105.4	
265.74	4952.7	
265.95	4382	
266.16	3384.6	
266.37	3659	
266.58	4987.5	
266.79	4706.2	
267	3130.7	
267.21	2921.8	
267.42	4562.2	
267.63	4863.9	
267.84	3324.5	
268.06	2909.5	
268.27	5221	
268.48	5405.3	
268.69	3222.8	
268.9	3725.9	
269.11	5472.2	
269.32	4408.6	
269.53	3304.7	
269.74	3096.5	
269.95	5162.9	
270.16	4354	
270.37	3403	
270.58	3822.9	
270.79	4746.5	
271	5310.4	
271.21	3530	
271.42	3370.3	
271.63	5058.5	
271.84	4590.2	
272.05	2710.8	
272.26	2988.7	
272.47	4902.8	
272.68	5044.8	
272.89	3235.8	
273.11	3581.2	
273.32	4666.6	
273.53	5568.4	
273.74	3532.1	
273.95	3442.6	
274.16	5312.4	
274.37	4911	
274.58	3611.3	
274.79	2911.5	
275	5025.7	
275.21	5387.5	
275.42	4293.2	
275.63	3630.4	
275.84	5139.7	
276.05	6209.4	
276.26	3469.9	
276.47	3243.3	
276.68	4815.5	
276.89	5684.5	
277.1	3736.2	
277.31	2885.6	
277.52	5087.2	
277.73	5265.3	
277.94	2911.5	
278.15	3195.5	
278.36	5091.9	
278.57	4627.7	
278.78	3226.9	
278.99	3552.5	
279.2	4657.8	
279.41	4569.7	
279.62	4100	
279.83	2968.9	
280.04	5853.1	
280.25	4588.1	
280.46	4093.9	
280.67	3340.2	
280.88	4597	
281.09	5366.4	
281.3	3514.3	
281.51	4376.5	
281.72	4654.4	
281.93	5228.5	
282.14	3209.2	
282.35	3366.9	
282.56	5251	
282.77	5274.9	
282.98	3213.9	
283.19	3830.4	
283.4	6352.1	
283.61	4885.8	
283.82	3011.2	
284.03	4050.2	
284.24	4993.6	
284.45	5380	
284.66	4101.4	
284.87	3861.1	
285.08	5386.2	
285.29	5414.1	
285.5	2910.2	
285.71	3290.4	
285.92	5321.3	
286.12	5835.3	
286.33	4018.8	
286.54	3270.6	
286.75	5245.5	
286.96	4827.7	
287.17	3012.6	
287.38	3880.9	
287.59	4627.7	
287.8	4584	
288.01	3251.5	
288.22	3657	
288.43	5243.5	
288.64	4501.4	
288.85	3796.9	
289.06	3649.5	
289.27	5208.7	
289.48	5588.2	
289.69	4083	
289.9	3695.9	
290.11	5416.9	
290.32	4709	
290.53	3841.3	
290.74	3609.2	
290.94	5216.2	
291.15	5236	
291.36	3177.1	
291.57	3688.4	
291.78	4702.8	
291.99	4455	
292.2	3054.2	
292.41	3549.1	
292.62	5277.6	
292.83	5117.9	
293.04	4397	
293.25	3046	
293.46	4783.4	
293.67	5351.3	
293.88	3161.4	
294.09	3030.3	
294.29	4543.1	
294.5	4986.1	
294.71	3346.4	
294.92	3152.5	
295.13	4778.6	
295.34	5778.7	
295.55	2840.5	
295.76	2839.2	
295.97	5138.4	
296.18	5765	
296.39	2958.6	
296.6	3157.3	
296.81	4883	
297.01	5169.8	
297.22	3257.6	
297.43	3159.3	
297.64	4674.1	
297.85	4564.2	
298.06	2643.2	
298.27	2846	
298.48	4870.8	
298.69	4683	
298.9	3396.9	
299.11	3064.4	
299.31	4502.1	
299.52	4534.2	
299.73	3575.1	
299.94	3497.9	
300.15	4879.6	
300.36	4612.7	
300.57	3551.9	
300.78	3469.3	
300.99	4743.1	
301.2	4926.7	
301.4	3091.8	
301.61	3321.1	
301.82	5180	
302.03	5224.4	
302.24	3713.6	
302.45	2989.4	
302.66	5131.5	
302.87	5398.4	
303.08	3177.8	
303.29	4183.3	
303.49	4685.1	
303.7	4830.5	
303.91	2806.4	
304.12	3937.6	
304.33	4453.6	
304.54	4984.1	
304.75	3125.2	
304.96	3018.7	
305.16	5199.8	
305.37	5694.7	
305.58	2794.1	
305.79	2833.7	
306	5137.7	
306.21	4405.9	
306.42	3142.3	
306.63	4613.4	
306.83	4751.3	
307.04	5282.4	
307.25	3459	
307.46	3398.9	
307.67	4277.5	
307.88	5218.2	
308.09	3117.7	
308.29	3205.1	
308.5	4934.9	
308.71	5298.8	
308.92	3354.6	
309.13	3033	
309.34	4848.2	
309.55	4771.8	
309.75	3829.7	
309.96	3501.3	
310.17	5167.7	
310.38	4648.2	
310.59	3667.2	
310.8	2973	
311.01	4752.7	
311.21	4831.8	
311.42	3033	
311.63	3123.2	
311.84	4741	
312.05	4947.2	
312.26	3534.1	
312.46	3716.4	
312.67	4758.8	
312.88	4491.9	
313.09	3050.1	
313.3	2985.3	
313.51	5487.2	
313.71	5759.6	
313.92	3037.1	
314.13	3203.7	
314.34	5101.5	
314.55	4823	
314.76	3777.8	
314.96	3349.8	
315.17	5047.6	
315.38	5171.8	
315.59	3078.8	
315.8	2930.6	
316.01	5492.7	
316.21	5615.5	
316.42	3008.5	
316.63	3364.1	
316.84	4770.4	
317.05	5339.1	
317.26	3536.2	
317.46	3213.9	
317.67	4801.1	
317.88	5175.9	
318.09	3784	
318.3	2897.2	
318.5	4695.3	
318.71	5116.5	
318.92	4718.5	
319.13	3525.9	
319.34	5284.4	
319.54	5410.7	
319.75	2893.8	
319.96	2768.9	
320.17	5155.4	
320.38	5307	
320.58	2830.3	
320.79	3316.3	
321	5320.6	
321.21	5401.9	
321.42	3392.8	
321.62	2842.6	
321.83	4613.4	
322.04	4897.4	
322.25	3156.6	
322.46	3058.3	
322.66	4961.5	
322.87	5137	
323.08	3721.2	
323.29	2975	
323.5	5754.1	
323.7	4570.4	
323.91	4031.1	
324.12	3682.2	
324.33	5010	
324.53	5116.5	
324.74	3522.5	
324.95	3633.1	
325.16	4433.9	
325.37	4730.8	
325.57	3040.6	
325.78	3076.7	
325.99	4995	
326.2	4480.3	
326.4	4261.8	
326.61	2861	
326.82	4848.2	
327.03	4960.9	
327.24	4193.6	
327.44	3965.6	
327.65	5111	
327.86	4242.7	
328.07	3586.7	
328.27	2963.4	
328.48	5411.4	
328.69	4528.1	
328.9	4264.6	
329.1	3225.6	
329.31	4791.6	
329.52	5515.9	
329.73	3012.6	
329.93	3381.9	
330.14	4959.5	
330.35	5072.8	
330.56	4829.8	
330.76	3664.5	
330.97	4706.2	
331.18	5036	
331.39	3362.1	
331.59	2768.9	
331.8	5331.5	
332.01	5433.9	
332.22	3134.8	
332.42	3509.5	
332.63	5026.4	
332.84	4615.4	
333.05	3411.2	
333.25	3069.2	
333.46	4700.1	
333.67	4884.4	
333.88	3190.7	
334.08	3471.3	
334.29	6862.7	
334.5	5358.9	
334.7	3003	
334.91	4158.1	
335.12	4454.3	
335.33	5167	
335.53	3342.3	
335.74	4746.5	
335.95	4726.7	
336.16	4539	
336.36	3366.2	
336.57	3764.2	
336.78	4504.2	
336.98	5320.6	
337.19	4060.4	
337.4	3278.8	
337.61	5810.8	
337.81	4547.2	
338.02	3175.7	
338.23	3860.4	
338.43	5501.5	
338.64	4629.8	
338.85	3079.5	
339.05	3923.9	
339.26	5572.5	
339.47	4453.6	
339.68	3065.1	
339.88	4360.1	
340.09	5083.7	
340.3	5284.4	
340.5	3543.7	
340.71	2813.9	
340.92	4491.9	
341.13	5391.6	
341.33	2949.1	
341.54	3554.6	
341.75	5076.9	
341.95	4742.4	
342.16	3398.9	
342.37	3638.6	
342.57	4593.6	
342.78	4809.3	
342.99	3663.8	
343.19	2785.2	
343.4	5172.5	
343.61	5060.5	
343.81	3243.3	
344.02	2965.5	
344.23	5166.3	
344.43	5529.5	
344.64	3748.5	
344.85	3657	
345.06	5089.2	
345.26	5382.1	
345.47	3472	
345.68	4028.4	
345.88	4390.8	
346.09	5308.3	
346.3	3591.5	
346.5	2738.8	
346.71	4796.3	
346.92	4656.4	
347.12	2852.1	
347.33	3427.6	
347.54	5371.8	
347.74	5600.5	
347.95	3516.4	
348.16	2655.5	
348.36	4770.4	
348.57	4532.2	
348.78	3524.6	
348.98	3686.3	
349.19	4822.3	
349.39	4432.5	
349.6	2852.1	
349.81	3087	
350.01	5132.2	
350.22	4674.8	
350.43	3378.5	
350.63	3966.9	
350.84	4911.7	
351.05	4676.2	
351.25	3091.8	
351.46	2877.4	
351.67	5325.4	
351.87	4644.1	
352.08	3263.1	
352.29	3693.9	
352.49	5184.8	
352.7	5233.9	
352.9	2955.9	
353.11	3654.3	
353.32	5763.7	
353.52	4687.8	
353.73	2955.9	
353.94	3641.3	
354.14	5033.2	
354.35	4931.5	
354.55	3067.2	
354.76	3359.4	
354.97	5079	
355.17	4825	
355.38	2947.7	
355.59	3879.5	
355.79	4616.1	
356	4908.3	
356.2	3364.8	
356.41	2978.4	
356.62	4426.3	
356.82	4797	
357.03	3621.5	
357.24	3209.8	
357.44	4636.6	
357.65	4663.2	
357.85	4152.6	
358.06	3428.3	
358.27	4354	
358.47	4542.4	
358.68	2856.2	
358.88	3518.4	
359.09	5042.1	
359.3	5267.4	
359.5	3992.9	
359.71	3648.1	
359.91	5636.7	
360.12	5112.4	
360.33	3540.9	
360.53	3842	
360.74	4615.4	
360.94	4618.9	
361.15	3702.7	
361.36	3083.6	
361.56	5236.7	
361.77	4751.3	
361.97	4064.5	
362.18	3226.2	
362.38	5255.8	
362.59	4538.3	
362.8	3059	
363	2901.3	
363.21	4337.6	
363.41	4842.8	
363.62	3392.8	
363.83	4196.3	
364.03	4967.7	
364.24	5669.5	
364.44	4379.2	
364.65	4313	
364.85	4758.1	
365.06	4478.9	
365.27	3140.2	
365.47	3204.4	
365.68	5552.7	
365.88	4769	
366.09	3469.3	
366.29	3223.5	
366.5	4917.2	
366.71	5223.7	
366.91	4239.3	
367.12	3605.1	
367.32	5698.8	
367.53	5180	
367.73	3560.7	
367.94	4362.9	
368.14	5151.3	
368.35	5757.5	
368.56	3565.5	
368.76	3112.2	
368.97	5240.1	
369.17	6449.7	
369.38	3185.3	
369.58	3372.3	
369.79	4450.2	
369.99	5502.9	
370.2	4207.9	
370.4	3450.8	
370.61	4942.4	
370.82	5894.7	
371.02	3432.4	
371.23	2833.7	
371.43	4445.5	
371.64	5412.1	
371.84	3400.3	
372.05	4303.5	
372.25	6456.6	
372.46	5144.5	
372.66	3392.8	
372.87	3360	
373.07	5276.3	
373.28	6534.4	
373.48	4153.3	
373.69	3918.4	
373.9	4819.6	
374.1	4852.3	
374.31	4141.7	
374.51	3710.2	
374.72	5470.8	
374.92	4574.5	
375.13	4305.5	
375.33	3624.9	
375.54	5124	
375.74	4667.3	
375.95	3585.3	
376.15	4592.2	
376.36	5098.1	
376.56	5008.6	
376.77	3732.8	
376.97	4016.7	
377.18	5976	
377.38	5156.8	
377.59	4293.2	
377.79	3300	
378	5046.2	
378.2	5354.8	
378.41	3302	
378.61	3280.2	
378.82	5445.5	
379.02	4739.7	
379.23	3430.3	
379.43	4333.5	
379.64	5581.4	
379.84	5180	
380.05	3368.9	
380.25	3287.7	
380.46	5193.6	
380.66	4917.9	
380.87	4358.8	
381.07	4668	
381.28	5727.5	
381.48	5260.5	
381.69	3358.7	
381.89	3410.6	
382.1	4455	
382.3	5353.4	
382.51	4236.6	
382.71	4868	
382.91	5203.2	
383.12	5643.5	
383.32	3703.4	
383.53	3834.5	
383.73	5153.4	
383.94	5047.6	
384.14	3842	
384.35	3115	
384.55	4938.3	
384.76	5210.7	
384.96	3704.1	
385.17	3872	
385.37	5293.3	
385.58	4706.9	
385.78	3932.1	
385.98	3064.4	
386.19	4904.2	
386.39	5193.6	
386.6	3454.2	
386.8	3644	
387.01	5240.1	
387.21	5312.4	
387.42	3951.9	
387.62	4406.5	
387.83	4759.5	
388.03	5142.4	
388.23	3720.5	
388.44	4351.3	
388.64	4473.4	
388.85	4639.3	
389.05	3933.5	
389.26	4364.2	
389.46	6182.8	
389.67	5649	
389.87	3958.7	
390.07	3947.8	
390.28	5013.4	
390.48	4672.8	
390.69	3343	
390.89	3621.5	
391.1	4792.2	
391.3	5506.3	
391.5	4491.9	
391.71	5002.5	
391.91	5415.5	
392.12	6038.8	
392.32	4634.6	
392.53	3959.4	
392.73	4861.2	
392.93	5008.6	
393.14	3687.7	
393.34	4298.7	
393.55	5317.2	
393.75	5021.6	
393.95	3711.6	
394.16	3675.4	
394.36	4860.5	
394.57	5343.8	
394.77	3355.9	
394.98	3563.5	
395.18	4767.7	
395.38	4840.7	
395.59	4345.1	
395.79	3485	
396	4861.2	
396.2	5270.8	
396.4	4177.2	
396.61	4054.3	
396.81	5354.8	
397.02	4836.6	
397.22	4312.3	
397.42	4410	
397.63	5432.6	
397.83	4848.9	
398.04	3495.9	
398.24	3807.2	
398.44	5203.2	
398.65	4450.9	
398.85	3364.8	
399.05	3443.3	
399.26	4818.9	
399.46	6108.4	
399.67	3772.4	
399.87	3540.9	
400.07	5086.5	
400.28	5353.4	
400.48	3657	
400.69	4408.6	
400.89	5470.1	
401.09	5860.6	
401.3	3501.3	
401.5	4402.5	
401.7	6032	
401.91	6189.6	
402.11	3867.9	
402.32	3944.4	
402.52	5565.7	
402.72	5556.8	
402.93	4165.6	
403.13	3313.6	
403.33	6130.9	
403.54	5095.3	
403.74	3882.3	
403.94	4561.5	
404.15	5175.2	
404.35	6072.9	
404.56	3725.3	
404.76	5196.4	
404.96	5522	
405.17	5325.4	
405.37	4656.4	
405.57	4133.5	
405.78	5522.7	
405.98	5115.1	
406.18	3781.2	
406.39	4479.6	
406.59	5520.6	
406.79	5205.9	
407	3616	
407.2	3727.3	
407.4	5593.7	
407.61	5673.6	
407.81	3693.9	
408.01	5173.9	
408.22	4648.2	
408.42	6257.2	
408.62	4496	
408.83	4083	
409.03	5201.2	
409.23	5096.7	
409.44	4162.8	
409.64	4377.9	
409.84	5973.9	
410.05	5881.1	
410.25	4287.8	
410.45	4117.1	
410.66	5565	
410.86	7408.9	
411.06	4492.6	
411.27	4335.5	
411.47	7276.4	
411.67	5700.9	
411.88	4514.4	
412.08	4724.7	
412.28	6143.2	
412.49	6518	
412.69	4378.6	
412.89	4420.2	
413.09	6424.5	
413.3	6289.3	
413.5	4450.9	
413.7	4119.1	
413.91	5788.9	
414.11	6383.5	
414.31	4315.8	
414.52	4627.7	
414.72	6148	
414.92	6037.4	
415.12	4343.7	
415.33	4748.6	
415.53	6405.4	
415.73	6447.7	
415.94	5015.5	
416.14	4593.6	
416.34	5653.8	
416.55	5380.7	
416.75	5559.6	
416.95	5091.3	
417.15	6364.4	
417.36	6862.7	
417.56	5723.4	
417.76	4969.1	
417.97	6719.4	
418.17	6457.2	
418.37	4668.7	
418.57	4698.7	
418.78	6314.6	
418.98	6076.3	
419.18	5315.8	
419.38	5260.5	
419.59	6023.8	
419.79	5743.2	
419.99	4573.1	
420.2	4883.7	
420.4	6388.3	
420.6	6528.9	
420.8	4442.7	
421.01	4422.2	
421.21	6366.5	
421.41	6388.3	
421.61	4758.1	
421.82	4578.6	
422.02	5969.8	
422.22	6640.9	
422.42	5263.3	
422.63	4966.3	
422.83	5948.7	
423.03	6939.9	
423.23	4978.6	
423.44	4126.7	
423.64	6114.6	
423.84	5795.1	
424.04	4500.8	
424.25	4243.4	
424.45	6754.2	
424.65	6730.3	
424.85	4132.1	
425.06	4543.8	
425.26	6873.7	
425.46	5925.5	
425.66	4961.5	
425.87	4726	
426.07	6593.8	
426.27	6492.7	
426.47	4768.4	
426.67	4276.2	
426.88	6866.8	
427.08	6447	
427.28	5064.6	
427.48	4233.8	
427.69	5554.1	
427.89	6053.1	
428.09	4891.9	
428.29	4228.4	
428.5	6537.8	
428.7	6263.4	
428.9	4218.1	
429.1	4599.7	
429.3	6219	
429.51	6440.9	
429.71	4538.3	
429.91	5136.3	
430.11	6457.9	
430.31	6836.8	
430.52	4730.1	
430.72	4930.8	
430.92	6908.5	
431.12	6456.6	
431.32	4472.8	
431.53	4840	
431.73	5591	
431.93	6897.6	
432.13	4342.4	
432.33	4338.3	
432.54	5987.6	
432.74	6221	
432.94	4252.3	
433.14	5118.6	
433.34	6524.1	
433.55	6124.8	
433.75	5042.1	
433.95	6457.9	
434.15	6279.8	
434.35	6070.9	
434.56	4466.6	
434.76	4079.6	
434.96	6253.1	
435.16	6440.2	
435.36	4318.5	
435.56	5276.3	
435.77	5924.1	
435.97	6214.9	
436.17	5790.3	
436.37	5206.6	
436.57	5982.1	
436.78	5918.6	
436.98	5556.8	
437.18	5677.7	
437.38	6491.4	
437.58	6111.1	
437.78	5784.8	
437.99	4752	
438.19	6622.4	
438.39	7706.5	
438.59	4672.1	
438.79	4257.7	
438.99	7023.2	
439.2	6109.1	
439.4	4353.3	
439.6	4300.1	
439.8	6342.6	
440	7199.3	
440.2	5169.8	
440.4	5214.1	
440.61	6657.3	
440.81	7040.9	
441.01	4566.3	
441.21	5221.6	
441.41	7095.5	
441.61	6724.8	
441.81	5537.7	
442.02	6309.8	
442.22	7413	
442.42	6829.3	
442.62	4619.5	
442.82	4661.9	
443.02	7086	
443.22	6418.3	
443.43	4972.5	
443.63	4644.1	
443.83	6247.7	
444.03	6212.2	
444.23	5569.8	
444.43	5317.9	
444.63	6580.1	
444.83	7496.2	
445.04	4807.9	
445.24	5795.8	
445.44	6857.3	
445.64	6883.2	
445.84	5289.2	
446.04	5441.5	
446.24	6247.7	
446.44	7111.2	
446.65	4746.5	
446.85	5016.2	
447.05	6621.1	
447.25	6978.8	
447.45	5161.6	
447.65	4656.4	
447.85	6557.6	
448.05	6231.3	
448.25	5526.8	
448.46	5261.2	
448.66	6556.2	
448.86	6240.8	
449.06	4519.2	
449.26	5420.3	
449.46	6844.3	
449.66	6113.9	
449.86	5046.9	
450.06	5051.7	
450.26	6216.3	
450.47	6757.6	
450.67	5311.7	
450.87	5555.5	
451.07	6871.6	
451.27	6605.4	
451.47	4717.8	
451.67	5121.3	
451.87	6346	
452.07	7232.1	
452.27	4924.7	
452.47	4923.3	
452.67	6625.2	
452.88	6946.7	
453.08	4394.3	
453.28	5983.5	
453.48	7598	
453.68	6507.8	
453.88	4841.4	
454.08	5041.4	
454.28	6862.7	
454.48	6612.2	
454.68	5431.2	
454.88	5870.2	
455.08	6990.4	
455.28	6804.7	
455.48	4752	
455.68	5283.8	
455.89	7333.8	
456.09	7120.1	
456.29	5066.7	
456.49	5150.6	
456.69	7322.2	
456.89	6684.6	
457.09	5517.9	
457.29	5806	
457.49	6988.4	
457.69	7078.5	
457.89	5378.6	
458.09	4854.4	
458.29	6801.3	
458.49	7413.6	
458.69	5732.9	
458.89	5261.2	
459.09	7604.8	
459.29	7655.3	
459.49	5386.8	
459.69	5981.4	
459.9	7259.4	
460.1	6815.6	
460.3	5274.9	
460.5	5072.8	
460.7	7264.8	
460.9	6834.8	
461.1	4874.2	
461.3	5803.9	
461.5	7727	
461.7	7415.7	
461.9	5230.5	
462.1	5558.2	
462.3	7026.6	
462.5	7488.7	
462.7	5369.8	
462.9	5446.9	
463.1	8376.2	
463.3	7993.9	
463.5	5542.5	
463.7	6356.9	
463.9	7235.5	
464.1	7595.2	
464.3	5746.6	
464.5	5898.8	
464.7	7839.6	
464.9	7473	
465.1	6950.1	
465.3	6221.7	
465.5	7998	
465.7	8096.3	
465.9	6414.2	
466.1	6187.6	
466.3	7939.3	
466.5	7741.3	
466.7	6981.5	
466.9	6099.5	
467.1	7854	
467.3	8484.7	
467.5	6879.1	
467.7	6061.3	
467.9	8720.9	
468.1	9286.9	
468.3	6636.8	
468.5	6961	
468.7	7795.3	
468.9	7733.8	
469.1	6288.6	
469.3	6795.8	
469.5	9327.1	
469.7	7472.4	
469.9	6611.5	
470.1	6148.7	
470.3	7888.1	
470.5	7812.3	
470.7	7152.2	
470.9	6178.7	
471.1	7658	
471.3	7980.3	
471.5	6068.1	
471.69	7510.6	
471.89	7590.5	
472.09	7165.2	
472.29	6664.1	
472.49	6944	
472.69	7365.2	
472.89	7867.6	
473.09	5963	
473.29	6107	
473.49	7549.5	
473.69	7576.1	
473.89	6827.9	
474.09	6247	
474.29	8544.1	
474.49	8363.2	
474.69	6865.5	
474.89	6366.5	
475.09	7649.2	
475.29	7660.8	
475.49	5898.8	
475.69	6083.8	
475.88	8852	
476.08	7961.8	
476.28	5863.3	
476.48	6040.1	
476.68	8328.4	
476.88	8120.2	
477.08	6127.5	
477.28	6316.6	
477.48	7742.7	
477.68	8230.8	
477.88	5908.4	
478.08	6152.1	
478.28	8507.3	
478.48	7740.6	
478.67	6283.9	
478.87	5728.2	
479.07	8380.3	
479.27	7863.5	
479.47	6356.9	
479.67	6361.7	
479.87	8226.7	
480.07	8576.2	
480.27	5844.9	
480.47	7062.8	
480.67	7832.1	
480.87	8458.8	
481.06	6027.9	
481.26	6793.8	
481.46	7859.4	
481.66	7821.2	
481.86	6496.8	
482.06	7267.6	
482.26	7728.4	
482.46	8372.8	
482.66	6374	
482.86	6021.7	
483.05	8021.9	
483.25	7412.3	
483.45	8311.3	
483.65	6345.3	
483.85	7625.3	
484.05	7823.2	
484.25	6700.3	
484.45	7130.3	
484.65	8552.3	
484.84	8602.8	
485.04	6354.2	
485.24	6338.5	
485.44	8826.1	
485.64	7466.9	
485.84	5861.3	
486.04	6969.9	
486.24	7858.7	
486.44	8060.1	
486.63	5788.2	
486.83	6528.2	
487.03	7791.2	
487.23	7942	
487.43	6012.8	
487.63	7872.4	
487.83	8028.7	
488.02	8696.4	
488.22	6752.2	
488.42	7220.5	
488.62	8712.1	
488.82	7804.8	
489.02	6506.4	
489.22	6438.8	
489.41	8518.9	
489.61	8361.2	
489.81	6220.4	
490.01	6255.9	
490.21	8588.5	
490.41	9100.5	
490.61	6251.8	
490.8	6331	
491	8183.7	
491.2	7573.4	
491.4	6852.5	
491.6	6130.3	
491.8	8240.3	
491.99	8198	
492.19	5969.1	
492.39	6287.3	
492.59	8525.7	
492.79	8539.3	
492.99	7015.7	
493.18	6232	
493.38	8679.3	
493.58	9256.1	
493.78	6918	
493.98	6496.8	
494.18	8482.7	
494.37	8083.3	
494.57	7121.5	
494.77	6930.3	
494.97	8741.4	
495.17	8914.1	
495.37	6731	
495.56	7014.3	
495.76	9067	
495.96	8887.5	
496.16	7772	
496.36	6903.7	
496.55	9065	
496.75	8562.6	
496.95	7251.2	
497.15	7068.9	
497.35	8998.1	
497.54	8917.5	
497.74	6984.3	
497.94	8285.4	
498.14	9628.2	
498.34	9370.1	
498.53	6764.4	
498.73	7397.3	
498.93	8440.4	
499.13	8966	
499.33	7292.1	
499.52	7615.7	
499.72	9082.1	
499.92	9277.3	
500.12	7083.2	
500.32	7237.5	
500.51	9243.2	
500.71	9093.7	
500.91	7838.3	
501.11	7522.2	
501.31	9201.5	
501.5	9553.1	
501.7	8060.8	
501.9	7313.3	
502.1	8951	
502.29	9292.3	
502.49	7697.6	
502.69	7958.4	
502.89	9192.6	
503.09	9277.3	
503.28	6882.5	
503.48	7030	
503.68	8570.7	
503.88	8510	
504.07	7751.6	
504.27	7309.9	
504.47	8914.1	
504.67	8971.5	
504.86	7714.7	
505.06	7448.5	
505.26	8710.7	
505.46	10041	
505.65	7316	
505.85	7450.5	
506.05	8528.4	
506.25	9048.6	
506.44	6737.8	
506.64	7516.7	
506.84	8490.2	
507.04	9154.4	
507.23	6924.9	
507.43	7331	
507.63	10008	
507.83	8542.8	
508.02	7314.7	
508.22	7077.1	
508.42	10190	
508.62	8396	
508.81	7203.4	
509.01	7684	
509.21	8400.1	
509.4	8649.3	
509.6	7342.7	
509.8	6922.8	
510	8541.4	
510.19	9673.9	
510.39	6894.8	
510.59	6950.1	
510.79	8430.1	
510.98	9554.5	
511.18	7082.6	
511.38	7161.7	
511.57	9209	
511.77	8979	
511.97	7617.1	
512.17	6870.9	
512.36	9078	
512.56	8970.8	
512.76	6885.3	
512.95	6785.6	
513.15	9193.3	
513.35	8084	
513.55	7549.5	
513.74	6964.5	
513.94	9184.5	
514.14	8667.7	
514.33	7726.3	
514.53	7498.3	
514.73	8664.3	
514.92	8777.6	
515.12	7104.4	
515.32	6867.5	
515.51	8848.6	
515.71	9210.4	
515.91	8402.1	
516.11	7033.4	
516.3	10196	
516.5	8646.5	
516.7	7485.3	
516.89	8012.3	
517.09	8666.3	
517.29	8689.5	
517.48	7830.1	
517.68	7262.8	
517.88	8469	
518.07	9077.3	
518.27	7628	
518.47	6840.9	
518.66	9385.8	
518.86	8344.1	
519.06	6825.2	
519.25	7092.8	
519.45	8658.1	
519.65	9856.9	
519.84	7660.1	
520.04	8250.6	
520.24	10106	
520.43	9216.5	
520.63	7491.5	
520.83	7309.2	
521.02	8665.6	
521.22	9095.7	
521.42	7633.5	
521.61	8129.8	
521.81	8783.7	
522.01	8880.7	
522.2	7545.4	
522.4	7308.5	
522.6	9387.2	
522.79	8271.1	
522.99	7392.5	
523.18	6873	
523.38	9005.6	
523.58	9119.6	
523.77	8478.6	
523.97	6978.1	
524.17	10551	
524.36	9878.7	
524.56	8148.9	
524.76	7856.7	
524.95	9151	
525.15	8882	
525.34	7796.6	
525.54	7706.5	
525.74	9498.5	
525.93	8754.4	
526.13	8718.9	
526.33	7763.8	
526.52	9923.8	
526.72	9456.8	
526.91	8774.9	
527.11	8161.8	
527.31	9913.5	
527.5	10157	
527.7	8146.8	
527.89	7347.4	
528.09	9097.8	
528.29	9592	
528.48	8413.7	
528.68	8179.6	
528.87	9796.1	
529.07	9910.8	
529.27	8116.1	
529.46	7829.4	
529.66	9644.6	
529.85	10034	
530.05	7709.2	
530.25	8239.7	
530.44	10744	
530.64	9501.2	
530.83	8005.5	
531.03	8136.6	
531.23	9962.7	
531.42	9715.6	
531.62	8793.3	
531.81	8109.3	
532.01	10143	
532.21	10414	
532.4	8017.8	
532.6	8231.5	
532.79	10756	
532.99	10207	
533.18	8454.7	
533.38	9204.3	
533.58	9916.3	
533.77	10419	
533.97	8396.7	
534.16	9084.1	
534.36	10694	
534.55	9993.4	
534.75	9177.6	
534.95	8512.7	
535.14	10636	
535.34	9921	
535.53	8229.4	
535.73	9885.5	
535.92	11129	
536.12	10022	
536.31	8277.2	
536.51	9290.3	
536.71	10419	
536.9	9925.8	
537.1	8417.8	
537.29	8585.8	
537.49	10629	
537.68	9920.4	
537.88	8868.4	
538.07	8146.1	
538.27	10190	
538.46	10880	
538.66	8129.1	
538.86	8458.8	
539.05	10204	
539.25	10471	
539.44	8891.6	
539.64	8422.6	
539.83	10000	
540.03	10860	
540.22	8340.7	
540.42	8467.7	
540.61	10149	
540.81	10344	
541	8793.3	
541.2	9253.4	
541.39	9846	
541.59	10058	
541.78	9034.3	
541.98	8213.7	
542.18	9605	
542.37	9556.5	
542.57	8585.8	
542.76	8968.7	
542.96	9544.2	
543.15	10127	
543.35	8621.9	
543.54	8012.3	
543.74	10273	
543.93	9942.9	
544.13	8515.5	
544.32	9379	
544.52	10155	
544.71	9531.9	
544.91	7705.1	
545.1	8763.3	
545.3	9603.6	
545.49	9962.7	
545.69	7752.9	
545.88	8181.6	
546.08	10997	
546.27	10496	
546.47	8651.3	
546.66	7956.4	
546.86	10230	
547.05	10676	
547.24	8182.3	
547.44	8161.2	
547.63	9442.5	
547.83	10342	
548.02	8388.5	
548.22	8609.7	
548.41	9231.6	
548.61	10300	
548.8	8028.7	
549	7961.8	
549.19	9845.3	
549.39	10112	
549.58	7774.8	
549.78	8196.7	
549.97	10127	
550.17	9638.4	
550.36	8851.3	
550.55	9612.5	
550.75	9622.7	
550.94	10468	
551.14	7908.6	
551.33	8110	
551.53	9216.5	
551.72	9905.3	
551.92	8195.3	
552.11	8038.3	
552.31	9962.7	
552.5	9996.1	
552.69	9339.4	
552.89	7782.3	
553.08	9968.1	
553.28	9676.7	
553.47	8033.5	
553.67	9033.6	
553.86	10455	
554.06	9046.6	
554.25	7386.3	
554.44	7834.2	
554.64	10963	
554.83	10606	
555.03	7775.5	
555.22	8174.1	
555.42	10097	
555.61	9872.6	
555.8	7987.1	
556	8157.1	
556.19	9126.4	
556.39	10004	
556.58	8103.1	
556.78	8038.3	
556.97	9740.8	
557.16	9467.1	
557.36	9004.2	
557.55	7780.9	
557.75	8898.4	
557.94	10407	
558.13	7768.6	
558.33	7647.1	
558.52	10234	
558.72	9214.5	
558.91	7737.2	
559.1	7922.9	
559.3	8975.6	
559.49	8780.3	
559.69	7441.6	
559.88	8029.4	
560.07	9682.8	
560.27	10045	
560.46	8239	
560.66	8483.4	
560.85	9585.2	
561.04	8819.2	
561.24	7698.3	
561.43	7783.6	
561.63	9039.7	
561.82	9254.8	
562.01	8673.1	
562.21	7965.2	
562.4	9672.6	
562.59	10358	
562.79	7875.8	
562.98	7707.2	
563.18	9556.5	
563.37	10676	
563.56	8345.5	
563.76	7641	
563.95	9116.9	
564.14	9094.3	
564.34	7905.2	
564.53	7698.3	
564.73	9541.5	
564.92	9837.8	
565.11	8043.1	
565.31	7511.9	
565.5	10108	
565.69	9110.7	
565.89	7776.8	
566.08	8007.6	
566.27	9951.8	
566.47	10348	
566.66	8520.2	
566.85	7462.1	
567.05	9762	
567.24	9226.1	
567.44	7788.4	
567.63	8741.4	
567.82	9914.9	
568.02	9610.4	
568.21	7677.2	
568.4	8006.9	
568.6	9542.2	
568.79	9454.8	
568.98	7616.4	
569.18	7618.4	
569.37	9511.4	
569.56	11122	
569.76	8038.3	
569.95	8710	
570.14	9753.1	
570.34	9794.8	
570.53	7666.9	
570.72	7617.1	
570.91	10198	
571.11	9402.9	
571.3	8075.8	
571.49	8754.4	
571.69	9529.2	
571.88	9178.3	
572.07	8485.4	
572.27	8348.2	
572.46	9092.3	
572.65	9878.7	
572.85	7770.7	
573.04	7976.2	
573.23	10233	
573.43	9649.3	
573.62	7617.8	
573.81	8185.7	
574	9744.2	
574.2	9433.6	
574.39	8033.5	
574.58	8182.3	
574.78	10389	
574.97	9781.8	
575.16	8448.6	
575.36	8550.3	
575.55	10149	
575.74	10187	
575.93	7629.4	
576.13	8514.8	
576.32	9672.6	
576.51	10053	
576.71	8069	
576.9	9235	
577.09	10406	
577.28	9931.3	
577.48	8460.2	
577.67	7736.5	
577.86	9665	
578.05	9949	
578.25	8262.9	
578.44	8285.4	
578.63	9743.6	
578.83	10882	
579.02	7721.5	
579.21	9046.6	
579.4	9846.6	
579.6	9729.9	
579.79	8338.6	
579.98	10092	
580.17	10249	
580.37	10314	
580.56	7970.7	
580.75	8533.9	
580.94	10602	
581.14	10540	
581.33	8858.1	
581.52	8037.6	
581.71	10131	
581.91	10642	
582.1	7879.9	
582.29	8331.8	
582.48	9877.4	
582.68	9863.7	
582.87	8704.5	
583.06	8447.9	
583.25	10195	
583.45	9972.9	
583.64	9003.6	
583.83	9413.1	
584.02	9805.7	
584.21	10109	
584.41	8878.6	
584.6	8426.7	
584.79	9940.8	
584.98	10485	
585.18	7958.4	
585.37	7978.9	
585.56	9642.5	
585.75	10187	
585.94	8043.7	
586.14	8667.7	
586.33	10599	
586.52	9926.5	
586.71	8506.6	
586.91	8295	
587.1	9332.6	
587.29	10197	
587.48	8232.8	
587.67	8199.4	
587.87	9949	
588.06	10015	
588.25	9133.9	
588.44	8518.2	
588.63	9751.1	
588.83	10141	
589.02	8026	
589.21	7958.4	
589.4	9441.8	
589.59	9382.4	
589.78	7199.3	
589.98	7445.7	
590.17	8914.1	
590.36	9184.5	
590.55	6825.9	
590.74	7501	
590.94	10202	
591.13	9055.4	
591.32	7293.5	
591.51	6761.7	
591.7	9357.2	
591.89	9073.2	
592.09	6875	
592.28	7382.9	
592.47	8352.3	
592.66	9923.1	
592.85	7001.3	
593.05	7256	
593.24	8919.6	
593.43	9639.8	
593.62	7244.3	
593.81	7618.4	
594	8996.7	
594.19	9151.7	
594.39	7162.4	
594.58	7050.5	
594.77	9245.2	
594.96	9654.1	
595.15	7130.3	
595.34	7689.4	
595.54	9196.1	
595.73	8570.1	
595.92	6580.8	
596.11	7428	
596.3	9568.8	
596.49	8508.6	
596.68	7292.8	
596.88	7643.7	
597.07	9353.8	
597.26	8401.5	
597.45	6949.4	
597.64	7890.8	
597.83	8654.7	
598.02	9146.2	
598.22	6994.5	
598.41	7559.7	
598.6	9026.1	
598.79	8629.5	
598.98	7023.2	
599.17	7759.1	
599.36	9012.4	
599.55	9876.7	
599.74	8634.9	
599.94	8486.8	
600.13	9483.5	
600.32	8460.8	
600.51	6936.5	
600.7	6987	
600.89	9873.3	
601.08	9990.7	
601.27	6910.5	
601.47	7524.2	
601.66	9445.2	
601.85	9882.8	
602.04	7328.3	
602.23	7598	
602.42	8691.6	
602.61	9209.7	
602.8	7234.8	
602.99	7047.7	
603.18	8924.4	
603.37	9099.8	
603.57	7527	
603.76	8061.5	
603.95	9720.3	
604.14	9310.7	
604.33	7178.1	
604.52	7417.1	
604.71	9277.3	
604.9	8758.5	
605.09	7922.2	
605.28	7810.3	
605.47	9570.2	
605.66	9222	
605.86	7600.7	
606.05	7243	
606.24	9586.5	
606.43	8317.5	
606.62	7466.2	
606.81	8042.4	
607	9431.6	
607.19	8811.7	
607.38	7008.1	
607.57	7071.6	
607.76	8700.5	
607.95	8241	
608.14	7526.3	
608.33	7976.8	
608.52	8641.1	
608.72	9364	
608.91	6889.4	
609.1	6683.2	
609.29	8736.6	
609.48	8333.2	
609.67	7616.4	
609.86	6849.8	
610.05	8427.4	
610.24	8698.4	
610.43	6621.8	
610.62	6442.9	
610.81	9598.8	
611	9394	
611.19	6807.4	
611.38	7401.4	
611.57	8909.3	
611.76	9925.8	
611.95	6670.9	
612.14	6591.7	
612.33	8742.1	
612.52	8420.6	
612.71	7143.3	
612.9	6491.4	
613.09	8121.6	
613.28	9952.4	
613.47	7012.2	
613.66	7596.6	
613.85	8819.9	
614.04	8386.4	
614.24	6962.4	
614.43	6310.5	
614.62	8922.3	
614.81	8922.3	
615	7350.8	
615.19	7400.7	
615.38	8309.3	
615.57	8680.7	
615.76	7273	
615.95	7985.7	
616.14	9078	
616.33	8756.4	
616.52	7521.5	
616.71	7695.6	
616.9	8894.3	
617.09	8708	
617.28	6979.5	
617.47	8016.4	
617.66	8155.7	
617.85	8184.4	
618.04	7625.3	
618.22	7209.5	
618.41	8570.1	
618.6	9207	
618.79	7224.6	
618.98	7006.1	
619.17	9493	
619.36	8150.9	
619.55	7163.1	
619.74	7289.4	
619.93	8897.1	
620.12	8521.6	
620.31	7608.2	
620.5	7879.9	
620.69	9413.8	
620.88	9796.1	
621.07	8276.5	
621.26	7598.6	
621.45	9138	
621.64	9129.8	
621.83	7711.3	
622.02	7081.2	
622.21	9168.8	
622.4	9059.5	
622.59	8105.9	
622.78	8056.7	
622.97	8655.4	
623.16	9553.8	
623.35	7685.3	
623.54	7001.3	
623.72	8797.4	
623.91	8951	
624.1	7920.2	
624.29	6832	
624.48	9746.3	
624.67	9194.7	
624.86	7762.5	
625.05	6993.8	
625.24	9909.4	
625.43	8645.2	
625.62	9103.2	
625.81	7202.7	
626	9477.3	
626.19	8903.9	
626.38	7770	
626.56	7361.1	
626.75	8764.6	
626.94	9239.1	
627.13	7830.1	
627.32	6781.5	
627.51	9300.5	
627.7	10172	
627.89	6886.6	
628.08	7844.4	
628.27	8611	
628.46	8816.5	
628.65	7088.7	
628.83	6775.4	
629.02	9207.7	
629.21	8584.4	
629.4	7470.3	
629.59	7684	
629.78	8604.2	
629.97	9304.6	
630.16	7733.1	
630.35	7200.7	
630.54	9707.4	
630.72	9457.5	
630.91	7192.5	
631.1	7632.8	
631.29	9040.4	
631.48	9110	
631.67	7705.8	
631.86	7329	
632.05	8774.2	
632.24	8726.4	
632.42	7030.7	
632.61	7561.8	
632.8	8792.6	
632.99	8458.1	
633.18	7527.7	
633.37	7805.5	
633.56	9054.1	
633.75	8853.4	
633.93	7539.3	
634.12	7311.9	
634.31	9684.2	
634.5	9349.7	
634.69	7169.3	
634.88	7724.3	
635.07	8869.8	
635.25	9385.2	
635.44	8017.1	
635.63	8129.8	
635.82	8789.9	
636.01	8184.4	
636.2	7940	
636.39	7579.5	
636.57	9625.5	
636.76	9301.2	
636.95	7179.5	
637.14	8174.1	
637.33	9129.2	
637.52	9737.4	
637.7	6919.4	
637.89	7670.3	
638.08	8847.2	
638.27	9875.3	
638.46	7774.1	
638.65	8135.2	
638.83	9855.5	
639.02	8578.9	
639.21	7638.2	
639.4	8105.9	
639.59	8941.4	
639.78	8564.6	
639.96	7107.8	
640.15	7108.5	
640.34	8799.4	
640.53	8886.8	
640.72	6804.7	
640.91	7069.6	
641.09	8279.9	
641.28	9321	
641.47	7078.5	
641.66	7695.6	
641.85	8866.3	
642.03	8961.9	
642.22	7403.4	
642.41	7083.2	
642.6	8431.5	
642.79	7894.9	
642.97	6909.2	
643.16	7420.5	
643.35	8264.2	
643.54	8094.9	
643.73	6831.3	
643.91	7423.9	
644.1	8036.2	
644.29	8563.2	
644.48	6855.9	
644.67	6838.9	
644.85	8097.7	
645.04	8431.5	
645.23	6418.3	
645.42	6722.8	
645.6	8013	
645.79	8837	
645.98	6664.1	
646.17	5886.5	
646.36	7704.5	
646.54	8171.4	
646.73	7175.4	
646.92	6223.8	
647.11	7848.5	
647.29	8632.2	
647.48	6279.1	
647.67	6154.8	
647.86	8808.3	
648.05	8781.7	
648.23	6477	
648.42	7531.1	
648.61	8356.4	
648.8	8056	
648.98	6233.3	
649.17	6492.1	
649.36	7742	
649.55	7373.4	
649.73	6354.2	
649.92	6861.4	
650.11	7662.1	
650.3	8008.9	
650.48	6358.3	
650.67	6085.2	
650.86	8178.9	
651.05	7338.6	
651.23	6279.1	
651.42	6285.9	
651.61	7724.9	
651.79	7710.6	
651.98	6488	
652.17	6140.5	
652.36	8032.1	
652.54	7286	
652.73	6118	
652.92	6045.6	
653.11	8139.3	
653.29	8109.3	
653.48	5594.4	
653.67	6404.7	
653.85	7810.3	
654.04	8806.9	
654.23	6526.9	
654.42	6210.8	
654.6	7405.5	
654.79	7931.1	
654.98	5676.3	
655.16	6182.8	
655.35	7068.9	
655.54	6918.7	
655.73	5719.3	
655.91	5604.6	
656.1	7916.1	
656.29	6860	
656.47	5259.9	
656.66	6748.1	
656.85	7208.8	
657.03	7205.4	
657.22	5844.2	
657.41	5879	
657.59	7356.3	
657.78	7223.9	
657.97	5578.7	
658.16	6152.1	
658.34	7871	
658.53	8246.5	
658.72	6888.7	
658.9	7310.6	
659.09	7554.3	
659.28	7534.5	
659.46	5945.9	
659.65	5912.5	
659.84	7377.5	
660.02	7777.5	
660.21	5957.5	
660.4	5780.7	
660.58	8031.5	
660.77	7563.8	
660.96	6346	
661.14	5605.3	
661.33	8419.9	
661.52	8425.3	
661.7	5569.8	
661.89	8360.5	
662.08	7279.2	
662.26	6832	
662.45	5819	
662.64	5835.3	
662.82	7829.4	
663.01	7169.9	
663.2	5889.3	
663.38	6459.3	
663.57	7718.8	
663.75	7603.4	
663.94	6036	
664.13	7060	
664.31	7180.2	
664.5	7740	
664.69	6488.6	
664.87	6740.5	
665.06	7072.3	
665.25	7606.8	
665.43	6887.3	
665.62	6974.7	
665.8	7778.2	
665.99	7280.5	
666.18	6078.4	
666.36	6049	
666.55	7805.5	
666.74	7733.8	
666.92	5771.9	
667.11	7066.9	
667.29	7336.5	
667.48	7822.6	
667.67	6623.1	
667.85	5977.3	
668.04	7363.8	
668.22	7293.5	
668.41	6110.5	
668.6	6231.3	
668.78	7172	
668.97	7264.1	
669.15	6414.9	
669.34	5553.4	
669.53	7171.3	
669.71	7406.8	
669.9	5670.1	
670.08	6204	
670.27	7051.2	
670.46	7653.3	
670.64	6402.6	
670.83	6619	
671.01	6980.2	
671.2	7449.1	
671.38	5779.4	
671.57	5731.6	
671.76	8017.1	
671.94	8477.9	
672.13	5614.8	
672.31	6391	
672.5	7758.4	
672.69	7221.1	
672.87	5810.8	
673.06	6004	
673.24	7552.2	
673.43	7214.3	
673.61	6262.7	
673.8	5898.8	
673.98	7582.9	
674.17	7737.2	
674.36	6418.3	
674.54	6316.6	
674.73	7387	
674.91	7713.3	
675.1	6062.7	
675.28	5750	
675.47	7324.9	
675.65	7720.2	
675.84	5887.9	
676.03	6148	
676.21	7120.1	
676.4	6767.9	
676.58	6528.2	
676.77	6399.9	
676.95	8268.3	
677.14	7111.9	
677.32	5674.2	
677.51	5552	
677.69	7699.7	
677.88	6875	
678.06	5623	
678.25	5736.4	
678.44	7308.5	
678.62	7124.9	
678.81	5485.8	
678.99	6195.1	
679.18	7923.6	
679.36	7620.5	
679.55	5885.9	
679.73	6366.5	
679.92	7623.9	
680.1	7148.1	
680.29	6854.6	
680.47	5898.8	
680.66	7036.1	
680.84	7692.9	
681.03	5453.1	
681.21	6330.3	
681.4	7094.2	
681.58	6995.2	
681.77	5726.8	
681.95	5713.8	
682.14	7839.6	
682.32	8058.1	
682.51	6429.9	
682.69	5502.9	
682.88	7006.1	
683.06	7456	
683.25	6222.4	
683.43	6477	
683.62	7276.4	
683.8	7550.9	
683.99	6587.6	
684.17	5989.6	
684.36	8213	
684.54	7202	
684.73	5410.1	
684.91	5510.4	
685.1	7346.7	
685.28	6785.6	
685.46	5856.5	
685.65	5912.5	
685.83	7459.4	
686.02	6901	
686.2	5413.5	
686.39	5543.2	
686.57	6745.3	
686.76	7857.4	
686.94	5435.3	
687.13	5665.4	
687.31	7277.8	
687.5	7015	
687.68	5135.6	
687.86	6161.7	
688.05	8254.7	
688.23	6582.2	
688.42	6144.6	
688.6	5495.4	
688.79	6810.2	
688.97	6879.8	
689.16	5875.6	
689.34	4989.5	
689.52	7489.4	
689.71	7539.3	
689.89	6111.8	
690.08	5565.7	
690.26	7170.6	
690.45	6954.2	
690.63	6270.9	
690.81	5569.8	
691	6910.5	
691.18	6848.4	
691.37	5793.7	
691.55	7447.1	
691.74	6861.4	
691.92	8410.3	
692.1	5689.3	
692.29	5304.2	
692.47	6883.9	
692.66	6432.7	
692.84	5430.5	
693.02	5887.9	
693.21	6447.7	
693.39	6989	
693.58	5910.4	
693.76	5477.6	
693.94	7922.9	
694.13	7632.1	
694.31	5525.4	
694.5	6384.9	
694.68	6793.1	
694.86	7109.2	
695.05	5913.2	
695.23	6191.7	
695.42	7404.1	
695.6	9167.4	
695.78	6333.7	
695.97	5651	
696.15	7547.4	
696.34	6980.2	
696.52	5458.5	
696.7	6143.2	
696.89	7271	
697.07	6746	
697.25	6077	
697.44	7107.8	
697.62	7183.6	
697.81	7432.8	
697.99	5691.3	
698.17	6141.9	
698.36	6662.7	
698.54	7202	
698.72	6087.2	
698.91	5241.4	
699.09	6932.4	
699.28	6652.5	
699.46	5702.2	
699.64	5636.7	
699.83	6740.5	
700.01	7567.9	
700.19	6266.8	
700.38	5065.3	
700.56	7664.9	
700.74	6765.1	
700.93	5368.4	
701.11	5937.7	
701.29	7249.8	
701.48	8156.4	
701.66	5541.8	
701.84	5703.6	
702.03	6972.7	
702.21	7558.4	
702.39	5341.8	
702.58	5739.1	
702.76	7315.3	
702.94	7359.7	
703.13	5227.8	
703.31	7162.4	
703.49	6745.3	
703.68	7531.7	
703.86	5367	
704.04	6230.6	
704.23	7086.7	
704.41	7417.7	
704.59	5538.4	
704.78	6594.5	
704.96	8127.7	
705.14	7510.6	
705.33	5456.5	
705.51	6014.2	
705.69	6992.4	
705.87	7753.6	
706.06	6294.1	
706.24	5416.9	
706.42	7260	
706.61	7539.3	
706.79	6260.6	
706.97	5365	
707.16	6877.1	
707.34	7291.5	
707.52	6298.9	
707.7	5618.3	
707.89	7015.7	
708.07	6722.1	
708.25	6298.2	
708.44	6355.5	
708.62	6918	
708.8	7787.1	
708.98	6465.4	
709.17	5694	
709.35	7294.9	
709.53	7276.4	
709.72	5497.4	
709.9	5796.4	
710.08	7441.6	
710.26	7473.7	
710.45	6723.5	
710.63	5682.4	
710.81	7217.7	
710.99	7197.9	
711.18	6223.8	
711.36	5795.8	
711.54	7035.5	
711.72	7651.2	
711.91	5723.4	
712.09	5355.4	
712.27	7148.8	
712.45	7622.5	
712.64	6012.2	
712.82	5150	
713	6676.4	
713.18	6737.1	
713.37	5242.8	
713.55	6161	
713.73	7410.2	
713.91	6268.1	
714.1	5462.6	
714.28	5042.1	
714.46	6938.5	
714.64	6362.4	
714.83	4511.7	
715.01	5104.2	
715.19	6357.6	
715.37	5806.7	
715.55	4841.4	
715.74	4956.1	
715.92	6966.5	
716.1	5434.6	
716.28	5980.1	
716.47	5100.1	
716.65	6055.2	
716.83	6034.7	
717.01	4968.4	
717.19	4958.8	
717.38	7630.7	
717.56	5755.5	
717.74	5154.1	
717.92	4540.3	
718.1	6782.2	
718.29	6120.7	
718.47	4260.5	
718.65	4802.5	
718.83	6788.3	
719.01	6782.2	
719.2	4265.9	
719.38	5221.6	
719.56	6552.1	
719.74	7817.8	
719.92	4848.9	
720.11	5676.3	
720.29	6699.6	
720.47	5895.4	
720.65	4450.2	
720.83	5136.3	
721.02	6153.5	
721.2	5854.5	
721.38	5120.6	
721.56	4446.1	
721.74	5457.2	
721.92	5619.6	
722.11	5500.8	
722.29	5231.9	
722.47	6670.2	
722.65	5948	
722.83	4485.1	
723.01	5164.3	
723.2	6023.1	
723.38	6227.9	
723.56	4131.4	
723.74	5046.2	
723.92	5638.1	
724.1	6582.2	
724.29	4437.3	
724.47	5387.5	
724.65	5743.2	
724.83	5630.5	
725.01	4379.9	
725.19	4960.9	
725.37	5657.2	
725.56	5651.7	
725.74	4250.9	
725.92	4527.4	
726.1	5612.8	
726.28	5851.7	
726.46	4870.1	
726.64	4579.3	
726.83	5933	
727.01	6073.6	
727.19	4310.3	
727.37	4911.7	
727.55	6006	
727.73	6428.6	
727.91	4284.4	
728.09	4121.9	
728.28	6380.1	
728.46	6694.1	
728.64	4968.4	
728.82	4958.8	
729	7271.7	
729.18	6716.7	
729.36	4363.5	
729.54	6258.6	
729.72	7540.6	
729.91	6152.1	
730.09	5938.4	
730.27	5000.5	
730.45	6040.8	
730.63	6535.1	
730.81	5413.5	
730.99	4670.7	
731.17	7071.6	
731.35	5935.7	
731.53	5113.8	
731.71	4836.6	
731.9	6797.9	
732.08	6920.1	
732.26	4971.1	
732.44	4727.4	
732.62	6979.5	
732.8	6608.1	
732.98	5367.7	
733.16	4549.2	
733.34	6627.9	
733.52	5511.1	
733.7	4977.9	
733.88	5096	
734.07	6458.6	
734.25	6197.2	
734.43	4531.5	
734.61	5743.9	
734.79	7410.2	
734.97	6249	
735.15	4650.3	
735.33	4945.8	
735.51	6509.8	
735.69	6233.3	
735.87	5804.6	
736.05	5062.6	
736.23	6328.9	
736.41	6046.3	
736.59	4930.1	
736.77	4953.4	
736.95	6762.4	
737.13	6119.3	
737.32	4646.2	
737.5	4805.2	
737.68	7116.7	
737.86	6072.9	
738.04	4489.8	
738.22	5965.1	
738.4	5963.7	
738.58	6240.2	
738.76	4981.3	
738.94	4187.4	
739.12	6042.2	
739.3	5927.5	
739.48	5520	
739.66	5245.5	
739.84	6212.9	
740.02	6260.6	
740.2	4310.3	
740.38	4487.8	
740.56	6532.3	
740.74	5577.3	
740.92	5059.8	
741.1	4907.6	
741.28	6072.9	
741.46	5861.3	
741.64	4700.1	
741.82	5104.2	
742	6132.3	
742.18	5977.3	
742.36	4813.4	
742.54	4493.9	
742.72	6566.5	
742.9	5480.4	
743.08	5145.2	
743.26	4164.2	
743.44	6645	
743.62	6463.4	
743.8	5311.7	
743.98	4443.4	
744.16	6247	
744.34	6047.7	
744.52	5154.1	
744.7	5109	
744.88	6407.4	
745.06	5976.7	
745.24	5149.3	
745.42	5250.3	
745.6	6473.6	
745.78	6268.1	
745.96	4229.7	
746.14	4429.1	
746.32	7073.7	
746.5	6482.5	
746.68	4872.1	
746.86	4421.6	
747.03	6721.4	
747.21	5442.1	
747.39	4919.2	
747.57	4425	
747.75	6072.2	
747.93	6328.9	
748.11	4437.9	
748.29	4328.7	
748.47	7365.2	
748.65	5797.1	
748.83	4999.1	
749.01	4790.2	
749.19	6201.2	
749.37	5510.4	
749.55	4659.1	
749.73	4706.2	
749.91	5948	
750.09	5687.2	
750.26	4773.1	
750.44	4268	
750.62	6012.8	
750.8	5949.3	
750.98	4147.8	
751.16	4394.9	
751.34	6027.2	
751.52	5461.2	
751.7	5039.4	
751.88	4147.8	
752.06	6448.4	
752.24	6105	
752.42	4042	
752.59	4395.6	
752.77	5896.8	
752.95	6929	
753.13	5042.8	
753.31	4422.2	
753.49	5616.2	
753.67	5938.4	
753.85	4685.1	
754.03	4268	
754.21	6201.9	
754.38	6462	
754.56	4424.3	
754.74	3637.9	
754.92	5542.5	
755.1	6057.2	
755.28	3673.4	
755.46	3680.2	
755.64	6679.8	
755.82	6733.7	
755.99	3849.5	
756.17	3865.9	
756.35	4650.3	
756.53	5831.9	
756.71	2988.7	
756.89	3736.2	
757.07	5499.5	
757.25	4853.7	
757.42	4112.3	
757.6	4896.7	
757.78	5642.8	
757.96	4876.2	
758.14	3898	
758.32	3535.5	
758.5	4397	
758.67	5124	
758.85	3721.8	
759.03	3933.5	
759.21	5314.5	
759.39	4813.4	
759.57	3478.1	
759.75	4347.8	
759.92	5838.1	
760.1	5274.2	
760.28	4656.4	
760.46	4911	
760.64	5031.2	
760.82	4904.2	
760.99	4378.6	
761.17	3924.6	
761.35	5806	
761.53	4905.6	
761.71	4033.1	
761.89	4527.4	
762.06	5683.1	
762.24	5217.5	
762.42	4059.8	
762.6	3861.8	
762.78	5283.1	
762.96	5808.7	
763.13	4412.7	
763.31	4121.2	
763.49	5921.4	
763.67	5246.2	
763.85	4713.1	
764.02	5233.2	
764.2	6130.3	
764.38	5446.2	
764.56	4003.1	
764.74	4760.2	
764.91	6178.7	
765.09	5245.5	
765.27	3779.2	
765.45	3566.2	
765.63	6258.6	
765.8	6112.5	
765.98	3403.7	
766.16	3652.9	
766.34	4937.7	
766.52	4752	
766.69	4384	
766.87	3525.9	
767.05	5288.5	
767.23	5909.8	
767.41	3773.7	
767.58	4029.7	
767.76	5768.4	
767.94	5851.7	
768.12	3871.3	
768.29	4390.2	
768.47	5343.2	
768.65	5887.9	
768.83	3558	
769	4464.6	
769.18	4933.6	
769.36	5544.5	
769.54	4478.2	
769.72	3515	
769.89	5760.3	
770.07	5809.4	
770.25	3921.9	
770.43	4885.1	
770.6	6379.4	
770.78	6682.5	
770.96	3981.9	
771.14	4449.6	
771.31	5744.6	
771.49	5193.6	
771.67	3324.5	
771.85	3528	
772.02	4618.2	
772.2	5141.8	
772.38	4030.4	
772.55	3646.7	
772.73	5324.7	
772.91	5200.5	
773.09	3916.4	
773.26	4048.2	
773.44	5339.7	
773.62	5100.8	
773.8	3607.8	
773.97	3358.7	
774.15	5372.5	
774.33	5144.5	
774.5	3465.2	
774.68	3733.4	
774.86	5475.6	
775.04	5076.9	
775.21	3571	
775.39	3465.8	
775.57	5270.1	
775.74	5553.4	
775.92	3426.3	
776.1	3291.8	
776.27	5281	
776.45	6268.1	
776.63	3581.9	
776.81	3159.3	
776.98	5003.2	
777.16	5840.1	
777.34	3644.7	
777.51	3888.4	
777.69	5016.8	
777.87	4805.2	
778.04	3674.1	
778.22	4130.8	
778.4	4801.8	
778.57	5351.3	
778.75	3080.1	
778.93	3321.8	
779.1	4691.2	
779.28	4492.6	
779.46	3091.1	
779.64	3484.3	
779.81	5506.3	
779.99	6156.2	
780.17	4095.3	
780.34	4189.5	
780.52	5049.6	
780.69	5120.6	
780.87	3766.2	
781.05	3375.1	
781.22	5080.3	
781.4	5117.2	
781.58	3509.5	
781.75	2833	
781.93	5068.7	
782.11	4571.7	
782.28	4205.8	
782.46	3489.7	
782.64	4450.2	
782.81	5191.6	
782.99	3595.6	
783.17	3523.9	
783.34	5098.1	
783.52	4597	
783.69	3722.5	
783.87	4308.9	
784.05	4603.8	
784.22	4604.5	
784.4	4295.3	
784.58	3758	
784.75	5345.9	
784.93	4707.6	
785.1	3500	
785.28	4031.8	
785.46	5155.4	
785.63	4582	
785.81	3499.3	
785.99	3432.4	
786.16	4719.9	
786.34	5001.1	
786.51	3392.1	
786.69	3759.4	
786.87	4385.4	
787.04	4783.4	
787.22	3281.5	
787.39	4018.1	
787.57	4595	
787.75	5481	
787.92	4168.3	
788.1	4134.8	
788.27	4611.3	
788.45	4396.3	
788.63	3890.5	
788.8	2839.8	
788.98	5031.9	
789.15	4270.7	
789.33	3040.6	
789.5	3461.1	
789.68	5344.5	
789.86	5412.8	
790.03	3827	
790.21	3390.8	
790.38	5397.1	
790.56	4708.3	
790.73	3268.6	
790.91	3313.6	
791.09	4536.9	
791.26	5186.8	
791.44	3533.4	
791.61	3061	
791.79	4612	
791.96	4550.6	
792.14	3102	
792.32	2781.1	
792.49	4583.4	
792.67	4695.3	
792.84	3248.8	
793.02	3018.7	
793.19	4910.3	
793.37	5544.5	
793.54	2789.3	
793.72	3033.7	
793.89	5570.5	
794.07	4564.2	
794.25	3485	
794.42	2885.6	
794.6	5398.4	
794.77	5094.7	
794.95	3805.1	
795.12	3324.5	
795.3	4642.7	
795.47	5059.8	
795.65	3605.1	
795.82	3500	
796	4468.7	
796.17	5892	
796.35	3457	
796.52	4009.9	
796.7	5023	
796.87	5118.6	
797.05	3401.7	
797.22	4009.9	
797.4	5112.4	
797.57	5842.2	
797.75	3519.1	
797.92	3301.3	
798.1	5338.4	
798.27	4540.3	
798.45	2923.8	
798.62	3070.6	
798.8	4868.7	
798.97	5292	
799.15	3734.8	
799.32	3494.5	
799.5	4258.4	
799.67	4881.7	
799.85	3814	
800.02	2824.8	
800.2	4567.7	
800.37	4741.7	
800.55	3872	
800.72	3309.5	
800.9	5193	
801.07	5530.9	
801.25	4397	
801.42	3625.6	
801.6	5267.4	
801.77	4894.6	
801.95	3346.4	
802.12	3263.8	
802.29	5008	
802.47	4937	
802.64	3591.5	
802.82	2796.2	
802.99	4599.1	
803.17	5281	
803.34	3543	
803.52	3171.6	
803.69	5849	
803.87	4412.7	
804.04	3485	
804.21	3560.1	
804.39	5532.2	
804.56	4712.4	
804.74	3056.9	
804.91	3662.5	
805.09	4543.1	
805.26	4635.2	
805.44	3111.5	
805.61	3308.2	
805.78	5092.6	
805.96	5114.5	
806.13	3632.4	
806.31	3907.5	
806.48	4190.8	
806.66	4612	
806.83	3587.4	
807	3544.4	
807.18	4575.2	
807.35	4873.5	
807.53	3478.8	
807.7	2895.8	
807.87	5458.5	
808.05	4640.7	
808.22	3846.1	
808.4	2908.8	
808.57	4524	
808.74	4264.6	
808.92	3242.6	
809.09	4101.4	
809.27	4576.5	
809.44	5005.2	
809.61	2907.4	
809.79	3192.8	
809.96	5575.9	
810.14	5163.6	
810.31	2822.1	
810.48	3448.1	
810.66	4636.6	
810.83	5171.8	
811.01	3226.9	
811.18	3571	
811.35	5181.4	
811.53	4145.8	
811.7	3873.4	
811.87	3643.3	
812.05	4627	
812.22	4516.5	
812.39	3151.8	
812.57	3030.3	
812.74	4696.7	
812.92	5928.9	
813.09	3403.7	
813.26	3668.6	
813.44	5679	
813.61	4513	
813.78	2889	
813.96	3773	
814.13	4679.6	
814.3	4402.5	
814.48	4034.5	
814.65	3401	
814.82	5533.6	
815	4372.4	
815.17	3490.4	
815.34	4193.6	
815.52	4536.9	
815.69	4511	
815.87	3437.9	
816.04	3427.6	
816.21	4591.5	
816.38	4102.1	
816.56	3415.3	
816.73	3134.1	
816.9	5700.9	
817.08	5139.7	
817.25	3197.6	
817.42	3880.2	
817.6	4266.6	
817.77	4593.6	
817.94	3517	
818.12	3130.7	
818.29	4359.4	
818.46	6472.3	
818.64	3252.2	
818.81	3048.1	
818.98	4362.2	
819.16	6008.7	
819.33	3752.6	
819.5	3510.2	
819.67	4890.5	
819.85	5382.1	
820.02	3446.7	
820.19	3620.1	
820.37	4831.2	
820.54	4516.5	
820.71	3545	
820.88	4376.5	
821.06	4782.7	
821.23	4400.4	
821.4	3570.3	
821.58	3517	
821.75	5167	
821.92	4759.5	
822.09	2916.3	
822.27	2970.2	
822.44	4588.8	
822.61	4536.3	
822.79	2910.8	
822.96	5380	
823.13	4945.2	
823.3	4320.5	
823.48	3304.7	
823.65	2992.1	
823.82	5160.9	
823.99	4252.9	
824.17	4173.1	
824.34	3107.5	
824.51	5887.2	
824.68	4635.2	
824.86	3203.7	
825.03	3503.4	
825.2	4590.2	
825.37	5449.6	
825.55	3190.7	
825.72	3473.4	
825.89	5887.2	
826.06	5535	
826.24	3377.1	
826.41	3421.5	
826.58	5507.7	
826.75	4846.9	
826.92	2762.7	
827.1	3069.2	
827.27	7245	
827.44	5863.3	
827.61	3205.8	
827.79	3808.5	
827.96	4420.2	
828.13	4664.6	
828.3	3458.3	
828.47	2880.1	
828.65	4915.8	
828.82	4777.2	
828.99	4244.8	
829.16	3804.4	
829.34	5152.7	
829.51	4937	
829.68	3445.4	
829.85	3544.4	
830.02	5422.3	
830.2	5159.5	
830.37	2708.1	
830.54	4089.8	
830.71	5743.9	
830.88	4616.1	
831.05	2785.9	
831.23	3192.1	
831.4	5575.9	
831.57	6105.7	
831.74	3242.6	
831.91	2848	
832.09	4932.2	
832.26	5137.7	
832.43	3276.1	
832.6	3703.4	
832.77	4851	
832.94	5403.9	
833.12	2685.6	
833.29	3275.4	
833.46	4558.1	
833.63	6329.6	
833.8	3575.1	
833.97	3341.6	
834.15	5190.9	
834.32	4981.3	
834.49	3403	
834.66	3517.7	
834.83	5311.1	
835	4403.8	
835.17	3248.1	
835.35	3224.9	
835.52	5032.5	
835.69	4938.3	
835.86	3384.6	
836.03	2859	
836.2	5103.5	
836.37	4776.5	
836.55	3311.6	
836.72	3116.3	
836.89	4790.9	
837.06	5223	
837.23	3345	
837.4	3665.9	
837.57	5799.8	
837.75	6240.8	
837.92	3078.1	
838.09	3254.9	
838.26	4739	
838.43	5289.9	
838.6	3488.4	
838.77	3177.1	
838.94	5993.7	
839.11	5762.3	
839.29	3320.4	
839.46	2659.6	
839.63	5137	
839.8	4829.1	
839.97	3205.8	
840.14	3212.6	
840.31	4999.1	
840.48	5212.1	
840.65	2719	
840.82	3163.4	
841	5096.7	
841.17	5046.9	
841.34	2945	
841.51	3011.2	
841.68	5029.1	
841.85	4849.6	
842.02	3149.1	
842.19	2628.2	
842.36	4918.5	
842.53	4911	
842.7	2996.2	
842.87	3554.6	
843.05	6236.1	
843.22	4844.8	
843.39	2904.7	
843.56	3074.7	
843.73	4741	
843.9	5139.7	
844.07	4677.6	
844.24	3954.6	
844.41	7093.5	
844.58	4530.1	
844.75	2887	
844.92	3165.5	
845.09	5061.9	
845.26	5124.7	
845.43	2961.4	
845.6	3118.4	
845.77	5101.5	
845.94	4876.9	
846.12	3298.6	
846.29	3444	
846.46	5270.8	
846.63	5127.4	
846.8	3047.4	
846.97	3547.8	
847.14	5427.8	
847.31	5037.3	
847.48	3316.3	
847.65	3721.8	
847.82	5281.7	
847.99	5255.1	
848.16	3945.1	
848.33	3581.2	
848.5	4722.6	
848.67	5451.7	
848.84	2926.5	
849.01	3106.8	
849.18	4610	
849.35	4364.2	
849.52	3659.7	
849.69	2882.2	
849.86	5306.3	
850.03	5365	
850.2	3028.9	
850.37	3590.8	
850.54	5325.4	
850.71	4796.3	
850.88	3547.8	
851.05	2877.4	
851.22	5031.2	
851.39	5498.8	
851.56	2805	
851.73	3394.2	
851.9	4543.1	
852.07	5227.1	
852.24	3284.3	
852.41	2948.4	
852.58	4998.4	
852.75	4535.6	
852.92	3299.3	
853.09	2958.6	
853.26	4730.8	
853.43	5408	
853.6	2970.2	
853.77	2552.5	
853.94	5528.8	
854.11	4500.1	
854.28	4239.3	
854.44	3221.5	
854.61	5821.7	
854.78	5376.6	
854.95	2922.5	
855.12	3667.2	
855.29	4210.6	
855.46	5752.7	
855.63	2968.2	
855.8	4013.3	
855.97	4729.4	
856.14	5360.9	
856.31	4066.6	
856.48	3189.4	
856.65	4782	
856.82	4487.1	
856.99	2839.2	
857.16	3233.7	
857.33	6047	
857.49	4810.7	
857.66	3222.1	
857.83	3392.1	
858	4858.5	
858.17	4967.7	
858.34	2833	
858.51	2977.7	
858.68	5638.1	
858.85	5673.6	
859.02	3405.1	
859.19	3654.3	
859.36	4546.5	
859.52	4554	
859.69	3041.9	
859.86	3389.4	
860.03	4547.2	
860.2	5599.1	
860.37	2732.7	
860.54	3007.1	
860.71	5242.8	
860.88	5569.1	
861.05	3261	
861.21	3753.2	
861.38	5540.4	
861.55	4413.4	
861.72	2737.5	
861.89	3293.1	
862.06	5366.4	
862.23	5713.8	
862.4	2925.9	
862.56	2997.5	
862.73	5201.8	
862.9	4907.6	
863.07	3426.9	
863.24	2766.1	
863.41	4463.2	
863.58	4518.5	
863.75	2972.3	
863.91	3442.6	
864.08	5446.9	
864.25	5192.3	
864.42	3678.8	
864.59	4092.5	
864.76	5795.8	
864.93	4543.8	
865.09	2899.9	
865.26	3120.4	
865.43	5448.3	
865.6	5794.4	
865.77	2627.5	
865.94	3005.1	
866.1	5434.6	
866.27	5246.2	
866.44	4373.8	
866.61	2830.3	
866.78	4838.7	
866.95	5173.2	
867.11	2899.2	
867.28	2650.8	
867.45	5309.7	
867.62	4533.5	
867.79	3373.7	
867.96	2953.9	
868.12	4512.4	
868.29	5284.4	
868.46	2987.3	
868.63	3923.9	
868.8	5434.6	
868.97	5249.6	
869.13	3102.7	
869.3	3067.9	
869.47	5129.5	
869.64	5291.3	
869.81	3019.4	
869.97	3027.6	
870.14	5096.7	
870.31	5543.2	
870.48	2904	
870.65	3654.3	
870.81	4794.3	
870.98	4833.2	
871.15	3371.6	
871.32	3121.8	
871.48	5212.8	
871.65	5625.1	
871.82	2930	
871.99	3297.9	
872.16	6002.6	
872.32	5439.4	
872.49	3011.2	
872.66	3002.3	
872.83	5241.4	
872.99	4681.7	
873.16	3349.8	
873.33	2989.4	
873.5	4958.8	
873.67	5001.8	
873.83	3113.6	
874	3916.4	
874.17	5104.9	
874.34	5929.6	
874.5	3803.8	
874.67	3650.8	
874.84	5526.8	
875.01	4480.3	
875.17	4099.4	
875.34	2931.3	
875.51	5012.7	
875.68	5953.4	
875.84	3574.4	
876.01	4195.6	
876.18	5233.9	
876.34	5184.1	
876.51	2984.6	
876.68	2899.2	
876.85	4800.4	
877.01	5492	
877.18	4130.8	
877.35	2953.2	
877.52	5010	
877.68	4534.2	
877.85	2928.6	
878.02	2889	
878.18	4773.1	
878.35	4702.1	
878.52	2424.1	
878.69	3280.8	
878.85	5323.4	
879.02	5195.7	
879.19	4140.3	
879.35	3145	
879.52	5216.9	
879.69	5330.2	
879.86	2613.9	
880.02	3285.6	
880.19	4926	
880.36	5868.1	
880.52	3378.5	
880.69	3506.8	
880.86	5271.5	
881.02	5361.6	
881.19	3291.8	
881.36	3145.7	
881.52	5186.1	
881.69	4697.4	
881.86	3186	
882.02	3131.3	
882.19	5422.3	
882.36	6226.5	
882.52	3030.3	
882.69	4084.3	
882.86	5037.3	
883.02	4986.1	
883.19	3597.6	
883.36	3330.7	
883.52	5257.8	
883.69	5978	
883.86	3028.9	
884.02	2708.8	
884.19	5238.7	
884.36	4932.2	
884.52	3319.1	
884.69	3186	
884.86	4702.1	
885.02	5720	
885.19	3267.9	
885.36	3382.6	
885.52	4853	
885.69	5089.9	
885.86	4180.6	
886.02	3679.5	
886.19	5320.6	
886.35	4768.4	
886.52	3286.3	
886.69	4105.5	
886.85	4519.2	
887.02	5532.9	
887.19	5532.9	
887.35	5532.9	
887.52	5532.9	
887.68	5532.9	
887.85	5532.9	
888.02	5532.9	
888.18	5532.9	
888.35	5532.9	
888.51	5532.9	
888.68	5532.9	
888.85	5532.9	
889.01	5532.9	
889.18	5532.9	
889.35	5532.9	
889.51	5532.9	
889.68	5532.9	
889.84	5532.9	
890.01	5532.9	
890.17	5532.9	
890.34	5532.9	
890.51	5532.9	
890.67	5532.9	
890.84	5532.9	
891	5532.9	
891.17	5532.9	
891.34	5532.9	
891.5	5532.9	
891.67	5532.9	
891.83	5532.9	
892	5532.9	
892.16	5532.9	
892.33	5532.9	
892.5	5532.9	
892.66	5532.9	
892.83	5532.9	
892.99	5532.9	
893.16	5532.9	
893.32	5532.9	
893.49	5532.9	
893.65	5532.9	
893.82	5532.9	
893.99	5532.9	
894.15	5532.9	
894.32	5532.9	
894.48	5532.9	
894.65	5532.9	
894.81	5532.9	
894.98	5532.9	
895.14	5532.9	
895.31	5532.9	
895.47	5532.9	
895.64	5532.9	
895.81	5532.9	
895.97	5532.9	
896.14	5532.9	
896.3	5532.9	
896.47	5532.9	
896.63	5532.9	
896.8	5532.9	
896.96	5532.9	
897.13	5532.9	
897.29	5532.9	
897.46	5532.9	
897.62	5532.9	
897.79	5532.9	
897.95	5532.9	
898.12	5532.9	
898.28	5532.9	
898.45	5532.9	
898.61	5532.9	
898.78	5532.9	
898.94	5532.9	
899.11	5532.9	
899.27	5532.9	
899.44	5532.9	
899.6	5532.9	
899.77	5532.9	
899.93	5532.9	
900.1	5532.9	
900.26	5532.9	
900.43	5532.9	
900.59	5532.9	
900.76	5532.9	
900.92	5532.9	
901.09	5532.9	
901.25	5532.9	
901.42	5532.9	
901.58	5532.9	
901.75	5532.9	
901.91	5532.9	
902.07	5532.9	
902.24	5532.9	
902.4	5532.9	
902.57	5532.9	
902.73	5532.9	
902.9	5532.9	
903.06	5532.9	
903.23	5532.9	
903.39	5532.9	
903.56	5532.9	
903.72	5532.9	
903.88	5532.9	
904.05	5532.9	
904.21	5532.9	
904.38	5532.9	
904.54	5532.9	
904.71	5532.9	
904.87	5532.9	
905.03	5532.9	
905.2	5532.9	
905.36	5532.9	
905.53	5532.9	
905.69	5532.9	
905.86	5532.9	
906.02	5532.9	
906.18	5532.9	
906.35	5532.9	
906.51	5532.9	
906.68	5532.9	
906.84	5532.9	
907.01	5532.9	
907.17	5532.9	
907.33	5532.9	
907.5	5532.9	
907.66	5532.9	
907.83	5532.9	
907.99	5532.9	
908.15	5532.9	
908.32	5532.9	
908.48	5532.9	
908.65	5532.9	
908.81	5532.9	
908.97	5532.9	
909.14	5532.9	
909.3	5532.9	
909.47	5532.9	
909.63	5532.9	
909.79	5532.9	
909.96	5532.9	
910.12	5532.9	
910.28	5532.9	
910.45	5532.9	
910.61	5532.9	
910.78	5532.9	
910.94	5532.9	
911.1	5532.9	
911.27	5532.9	
911.43	5532.9	
911.59	5532.9	
911.76	5532.9	
911.92	5532.9	
912.08	5532.9	
912.25	5532.9	
912.41	5532.9	
912.57	5532.9	
912.74	5532.9	
912.9	5532.9	
913.07	5532.9	
913.23	5532.9	
913.39	5532.9	
913.56	5532.9	
913.72	5532.9	
913.88	5532.9	
914.05	5532.9	
914.21	5532.9	
914.37	5532.9	
914.54	5532.9	
914.7	5532.9	
914.86	5532.9	
915.03	5532.9	
915.19	5532.9	
