Wavelength	Intensities	
nm	a.u.	
179.22	1925.8	
179.44	1912.8	
179.65	1938.7	
179.86	1886.9	
180.08	1939.4	
180.29	5073.5	
180.51	3583.9	
180.72	5750	
180.94	6762.4	
181.15	3306.1	
181.37	3188	
181.58	5598.5	
181.79	5885.9	
182.01	3436.5	
182.22	3694.5	
182.44	5943.2	
182.65	4867.3	
182.87	4657.8	
183.08	4063.9	
183.29	6193.7	
183.51	5069.4	
183.72	3763.5	
183.94	5581.4	
184.15	5446.2	
184.37	5521.3	
184.58	3257	
184.79	4497.3	
185.01	5042.1	
185.22	5825.1	
185.44	4853.7	
185.65	4043.4	
185.86	5324.7	
186.08	4940.4	
186.29	3147	
186.51	3436.5	
186.72	5117.9	
186.94	6095.4	
187.15	3968.3	
187.36	4107.5	
187.58	7888.8	
187.79	5549.3	
188.01	4296.6	
188.22	6753.5	
188.43	6812.9	
188.65	5852.4	
188.86	3399.6	
189.08	4130.1	
189.29	5283.8	
189.5	5323.4	
189.72	3779.9	
189.93	3884.3	
190.15	6066.8	
190.36	7292.1	
190.57	4209.3	
190.79	4104.8	
191	6139.8	
191.22	6117.3	
191.43	4228.4	
191.64	3444.7	
191.86	6318.7	
192.07	6103.6	
192.29	3654.3	
192.5	3804.4	
192.71	6058.6	
192.93	5184.8	
193.14	3806.5	
193.35	3870.7	
193.57	5270.8	
193.78	6095.4	
194	3040.6	
194.21	3725.9	
194.42	5053	
194.64	5525.4	
194.85	4175.8	
195.07	4878.9	
195.28	5500.8	
195.49	4757.4	
195.71	5074.2	
195.92	3567.6	
196.13	5697.4	
196.35	5859.2	
196.56	5486.5	
196.78	4103.4	
196.99	7210.2	
197.2	6774.7	
197.42	4703.5	
197.63	4128.7	
197.84	4913.8	
198.06	5717.2	
198.27	3833.1	
198.48	5122	
198.7	5260.5	
198.91	5410.7	
199.13	4210.6	
199.34	4209.9	
199.55	5887.9	
199.77	4747.9	
199.98	3620.1	
200.19	4214	
200.41	5373.9	
200.62	5131.5	
200.83	4336.2	
201.05	4661.9	
201.26	5351.3	
201.47	5145.9	
201.69	3663.8	
201.9	3581.2	
202.11	5444.2	
202.33	6599.2	
202.54	3933.5	
202.76	4438.6	
202.97	5640.1	
203.18	5583.4	
203.4	4349.9	
203.61	4215.4	
203.82	5541.8	
204.04	5126.7	
204.25	4203.1	
204.46	4119.1	
204.68	5507	
204.89	5745.2	
205.1	4062.5	
205.32	3521.8	
205.53	5963	
205.74	6045.6	
205.96	3017.3	
206.17	4279.6	
206.38	5902.9	
206.6	6021	
206.81	4763.6	
207.02	3939.6	
207.24	5763.7	
207.45	6189	
207.66	3891.1	
207.88	3321.1	
208.09	5735.7	
208.3	5500.2	
208.52	3647.4	
208.73	4015.4	
208.94	5509.7	
209.15	6247	
209.37	3966.2	
209.58	4200.4	
209.79	6088.6	
210.01	5341.1	
210.22	3092.4	
210.43	3239.9	
210.65	5507	
210.86	5943.2	
211.07	3922.5	
211.29	3657.7	
211.5	5903.6	
211.71	5444.9	
211.93	3564.1	
212.14	3601	
212.35	5421	
212.56	5743.9	
212.78	4185.4	
212.99	3510.2	
213.2	6475	
213.42	5173.2	
213.63	3747.1	
213.84	4058.4	
214.06	4867.3	
214.27	4976.6	
214.48	3955.3	
214.69	4190.1	
214.91	6236.7	
215.12	6258.6	
215.33	4313.7	
215.55	4728.1	
215.76	6759	
215.97	5920.7	
216.18	4098.7	
216.4	3990.1	
216.61	5141.8	
216.82	5983.5	
217.04	3677.5	
217.25	3803.1	
217.46	6139.1	
217.67	5909.1	
217.89	3231.7	
218.1	3398.9	
218.31	5571.8	
218.53	5625.8	
218.74	3823.6	
218.95	3653.6	
219.16	5477	
219.38	6460.7	
219.59	3743	
219.8	4493.9	
220.01	7139.2	
220.23	5502.2	
220.44	4937.7	
220.65	3603.1	
220.87	5552	
221.08	6198.5	
221.29	3389.4	
221.5	4531.5	
221.72	7598	
221.93	5197.1	
222.14	4225	
222.35	4913.8	
222.57	5461.9	
222.78	5838.1	
222.99	3963.5	
223.2	4288.4	
223.42	5847	
223.63	5999.2	
223.84	3041.2	
224.05	3002.3	
224.27	7094.8	
224.48	6447.7	
224.69	4997.7	
224.9	4156	
225.12	5739.1	
225.33	5468.1	
225.54	3364.8	
225.75	3744.4	
225.97	5061.2	
226.18	5337.7	
226.39	4007.9	
226.6	3735.5	
226.82	5229.1	
227.03	5161.6	
227.24	4183.3	
227.45	3399.6	
227.67	5871.5	
227.88	6509.1	
228.09	4661.2	
228.3	4771.8	
228.52	5922	
228.73	5427.8	
228.94	3839.9	
229.15	3404.4	
229.36	5435.3	
229.58	5301.5	
229.79	3866.6	
230	4597.7	
230.21	6586.3	
230.43	5605.3	
230.64	4131.4	
230.85	4352.6	
231.06	5881.1	
231.28	5913.9	
231.49	3407.1	
231.7	4007.9	
231.91	5829.9	
232.12	5561.6	
232.34	3491.8	
232.55	4033.8	
232.76	6169.8	
232.97	5712.5	
233.18	3634.5	
233.4	4123.9	
233.61	5758.2	
233.82	5245.5	
234.03	3805.1	
234.25	3711.6	
234.46	7636.9	
234.67	5509	
234.88	4282.3	
235.09	3691.1	
235.31	5849.7	
235.52	5343.2	
235.73	4169.7	
235.94	3452.9	
236.15	5208	
236.37	6684.6	
236.58	3673.4	
236.79	4045.4	
237	5795.1	
237.21	5008.6	
237.43	4287.1	
237.64	3296.5	
237.85	10131	
238.06	5059.8	
238.27	4392.2	
238.48	3487	
238.7	5823.7	
238.91	5339.1	
239.12	3910.3	
239.33	3962.8	
239.54	5068.7	
239.76	5451	
239.97	3985.3	
240.18	3943	
240.39	6978.1	
240.6	5829.2	
240.82	4099.4	
241.03	3377.8	
241.24	5535	
241.45	6384.9	
241.66	3620.1	
241.87	4278.9	
242.09	6234	
242.3	6660	
242.51	4369.7	
242.72	3961.5	
242.93	5991	
243.14	5418.2	
243.36	4617.5	
243.57	4965.6	
243.78	6374.6	
243.99	5784.8	
244.2	4003.1	
244.41	3637.9	
244.63	5072.8	
244.84	5842.2	
245.05	4292.5	
245.26	4010.6	
245.47	5796.4	
245.68	6091.3	
245.9	5335	
246.11	4162.2	
246.32	5381.4	
246.53	5719.3	
246.74	6508.4	
246.95	3325.9	
247.16	4913.8	
247.38	5515.2	
247.59	3284.9	
247.8	3994.2	
248.01	5164.3	
248.22	5494.7	
248.43	3596.2	
248.64	3900	
248.86	4836.6	
249.07	5249.6	
249.28	3527.3	
249.49	4146.5	
249.7	6144.6	
249.91	6275	
250.12	3318.4	
250.34	3352.5	
250.55	5635.3	
250.76	5505.6	
250.97	4083.6	
251.18	4199	
251.39	6268.8	
251.6	5673.6	
251.81	4285	
252.03	4260.5	
252.24	5228.5	
252.45	6061.3	
252.66	3467.2	
252.87	4422.2	
253.08	5550.7	
253.29	7346.7	
253.5	3442.6	
253.72	4883	
253.93	5341.8	
254.14	6560.3	
254.35	3716.4	
254.56	3957.4	
254.77	5768.4	
254.98	5070.1	
255.19	3713.7	
255.41	4838.7	
255.62	5606	
255.83	6208.8	
256.04	4298.7	
256.25	4239.3	
256.46	6828.6	
256.67	5192.3	
256.88	4122.6	
257.09	4600.4	
257.31	5222.3	
257.52	5206.6	
257.73	5141.1	
257.94	3767.6	
258.15	5336.3	
258.36	5521.3	
258.57	4788.8	
258.78	2988.7	
258.99	6062	
259.2	5356.1	
259.41	3848.1	
259.63	3846.8	
259.84	6449.7	
260.05	6874.3	
260.26	5040.7	
260.47	3801	
260.68	6076.3	
260.89	5387.5	
261.1	4709.6	
261.31	3650.2	
261.52	6056.5	
261.73	6451.1	
261.95	4947.2	
262.16	4291.9	
262.37	6292	
262.58	6337.8	
262.79	4954.7	
263	3951.2	
263.21	5513.8	
263.42	5052.3	
263.63	3876.1	
263.84	3898	
264.05	6045.6	
264.26	6525.5	
264.47	5020.3	
264.69	4379.2	
264.9	6257.9	
265.11	5773.2	
265.32	3705.5	
265.53	3794.9	
265.74	5639.4	
265.95	4889.9	
266.16	4047.5	
266.37	4526.7	
266.58	5662	
266.79	5322.7	
267	3758.7	
267.21	3488.4	
267.42	5085.8	
267.63	5467.4	
267.84	3990.1	
268.06	3427.6	
268.27	5935.7	
268.48	6302.3	
268.69	3868.6	
268.9	4629.1	
269.11	6273.6	
269.32	4988.2	
269.53	4007.2	
269.74	3680.9	
269.95	5849	
270.16	4838.7	
270.37	4010.6	
270.58	4582	
270.79	5393	
271	6054.5	
271.21	4259.1	
271.42	4035.2	
271.63	5670.8	
271.84	5137.7	
272.05	3207.8	
272.26	3625.6	
272.47	5568.4	
272.68	5733.6	
272.89	3822.9	
273.11	4425	
273.32	5288.5	
273.53	6574	
273.74	4327.4	
273.95	4182	
274.16	6233.3	
274.37	5576.6	
274.58	4351.3	
274.79	3465.8	
275	5657.9	
275.21	6271.6	
275.42	5266	
275.63	4531.5	
275.84	5758.2	
276.05	7316.7	
276.26	4214	
276.47	3938.2	
276.68	5391.6	
276.89	6614.3	
277.1	4563.6	
277.31	3505.4	
277.52	5741.8	
277.73	5978	
277.94	3426.3	
278.15	3861.8	
278.36	5660.6	
278.57	5162.2	
278.78	3745.1	
278.99	4328.7	
279.2	5128.1	
279.41	5079.6	
279.62	5044.8	
279.83	3522.5	
280.04	6799.3	
280.25	4977.2	
280.46	5058.5	
280.67	3937.6	
280.88	5107	
281.09	6233.3	
281.3	4167.6	
281.51	5392.3	
281.72	5241.4	
281.93	6084.5	
282.14	3719.1	
282.35	4030.4	
282.56	6011.5	
282.77	6053.1	
282.98	3841.3	
283.19	4676.2	
283.4	7448.5	
283.61	5471.5	
283.82	3543.7	
284.03	5008.6	
284.24	5585.5	
284.45	6204	
284.66	4977.2	
284.87	4752	
285.08	6096.8	
285.29	6304.3	
285.5	3358.7	
285.71	3926.6	
285.92	6158.9	
286.12	6875	
286.33	4910.3	
286.54	3859.7	
286.75	6074.3	
286.96	5354.8	
287.17	3556	
287.38	4838.7	
287.59	5100.1	
287.8	5072.1	
288.01	3921.9	
288.22	4530.1	
288.43	6079.1	
288.64	5059.2	
288.85	4636.6	
289.06	4410	
289.27	5937.7	
289.48	6492.7	
289.69	5030.5	
289.9	4499.4	
290.11	6235.4	
290.32	5210.7	
290.53	4724	
290.74	4305.5	
290.94	5978.7	
291.15	6031.3	
291.36	3795.6	
291.57	4405.9	
291.78	5272.8	
291.99	4910.3	
292.2	3591.5	
292.41	4398.4	
292.62	6117.3	
292.83	5829.2	
293.04	5350.7	
293.25	3639.2	
293.46	5274.2	
293.67	6117.3	
293.88	3785.3	
294.09	3615.3	
294.29	5063.9	
294.5	5631.9	
294.71	4046.1	
294.92	3799.7	
295.13	5272.2	
295.34	6670.2	
295.55	3386.7	
295.76	3450.8	
295.97	5926.8	
296.18	6711.2	
296.39	3557.3	
296.6	3768.3	
296.81	5588.2	
297.01	6036.7	
297.22	3876.1	
297.43	3691.8	
297.64	5079.6	
297.85	5107	
298.06	3054.9	
298.27	3425.6	
298.48	5594.4	
298.69	5246.9	
298.9	4057	
299.11	3687	
299.31	5047.6	
299.52	5039.4	
299.73	4388.1	
299.94	4253.6	
300.15	5541.1	
300.36	5083.1	
300.57	4277.5	
300.78	4255.7	
300.99	5401.9	
301.2	5680.4	
301.4	3714.3	
301.61	4071.4	
301.82	5866.1	
302.03	5971.2	
302.24	4574.5	
302.45	3560.7	
302.66	5819	
302.87	6358.9	
303.08	3697.3	
303.29	5180	
303.49	5235.3	
303.7	5593	
303.91	3321.8	
304.12	4870.1	
304.33	4978.6	
304.54	5676.3	
304.75	3788.7	
304.96	3585.3	
305.16	5869.5	
305.37	6614.3	
305.58	3196.2	
305.79	3422.2	
306	5889.3	
306.21	4937.7	
306.42	3709.6	
306.63	5778	
306.83	5375.2	
307.04	6148	
307.25	4126	
307.46	4111.6	
307.67	4688.5	
307.88	6014.9	
308.09	3671.3	
308.29	3897.3	
308.5	5618.3	
308.71	6153.5	
308.92	4029	
309.13	3609.2	
309.34	5375.9	
309.55	5390.9	
309.75	4670.7	
309.96	4328.7	
310.17	5965.7	
310.38	5212.8	
310.59	4557.4	
310.8	3543.7	
311.01	6155.5	
311.21	5428.5	
311.42	3536.2	
311.63	3673.4	
311.84	5288.5	
312.05	5673.6	
312.26	4211.3	
312.46	4600.4	
312.67	5369.1	
312.88	5038.7	
313.09	3607.8	
313.3	3506.8	
313.51	6366.5	
313.71	6695.5	
313.92	3531.4	
314.13	3829	
314.34	5729.5	
314.55	5415.5	
314.76	4749.9	
314.96	4056.3	
315.17	5575.9	
315.38	5976.7	
315.59	3609.9	
315.8	3480.2	
316.01	6485.9	
316.21	6493.4	
316.42	3532.1	
316.63	3956.7	
316.84	5430.5	
317.05	6280.4	
317.26	4265.2	
317.46	3792.8	
317.67	5495.4	
317.88	5986.9	
318.09	4631.8	
318.3	3360	
318.5	5229.1	
318.71	5837.4	
318.92	5927.5	
319.13	4270	
319.34	6068.8	
319.54	6197.2	
319.75	3325.2	
319.96	3201.7	
320.17	5935.7	
320.38	6107.7	
320.58	3261.7	
320.79	3899.3	
321	6159.6	
321.21	6222.4	
321.42	4033.8	
321.62	3267.9	
321.83	5040.7	
322.04	5547.9	
322.25	3882.3	
322.46	3633.8	
322.66	5677	
322.87	5815.5	
323.08	4498.7	
323.29	3550.5	
323.5	6662.7	
323.7	5018.9	
323.91	4960.9	
324.12	4462.5	
324.33	5593	
324.53	5836	
324.74	4313.7	
324.95	4457.1	
325.16	4841.4	
325.37	5299.5	
325.57	3659	
325.78	3722.5	
325.99	5565.7	
326.2	5027.8	
326.4	5195.7	
326.61	3310.9	
326.82	5489.2	
327.03	5694	
327.24	5209.3	
327.44	4963.6	
327.65	5799.8	
327.86	4673.5	
328.07	4299.4	
328.27	3448.1	
328.48	6249.7	
328.69	5117.2	
328.9	5258.5	
329.1	3892.5	
329.31	5375.2	
329.52	6406	
329.73	3606.5	
329.93	4106.2	
330.14	5496.7	
330.35	5813.5	
330.56	6019.7	
330.76	4472.1	
330.97	5332.9	
331.18	5748	
331.39	4033.1	
331.59	3218	
331.8	6171.2	
332.01	6237.4	
332.22	3731.4	
332.42	4327.4	
332.63	5681.7	
332.84	5246.9	
333.05	4083.6	
333.25	3687.7	
333.46	5315.8	
333.67	5553.4	
333.88	3799.7	
334.08	4231.8	
334.29	7434.1	
334.5	6222.4	
334.7	3489.7	
334.91	5218.9	
335.12	5073.5	
335.33	5986.2	
335.53	4036.5	
335.74	6019.7	
335.95	5293.3	
336.16	5135.6	
336.36	4019.5	
336.57	4696.7	
336.78	5042.1	
336.98	6142.5	
337.19	5005.2	
337.4	3966.9	
337.61	6691.4	
337.81	5128.8	
338.02	3680.2	
338.23	4851.6	
338.43	6357.6	
338.64	5194.3	
338.85	3623.5	
339.05	4820.2	
339.26	6399.9	
339.47	4982.7	
339.68	3635.8	
339.88	5503.6	
340.09	5752.1	
340.3	6038.1	
340.5	4311	
340.71	3280.8	
340.92	4988.2	
341.13	6249	
341.33	3486.3	
341.54	4321.2	
341.75	5799.2	
341.95	5344.5	
342.16	4128	
342.37	4438.6	
342.57	5107.6	
342.78	5512.4	
342.99	4558.8	
343.19	3280.8	
343.4	5963	
343.61	5842.9	
343.81	3859.7	
344.02	3555.3	
344.23	5959.6	
344.43	6420.4	
344.64	4519.9	
344.85	4439.3	
345.06	5804.6	
345.26	6178.7	
345.47	4235.2	
345.68	4925.4	
345.88	4855.1	
346.09	6042.9	
346.3	4291.9	
346.5	3234.4	
346.71	5537.7	
346.92	5247.6	
347.12	3280.2	
347.33	4212.7	
347.54	6049.7	
347.74	6503.7	
347.95	4126	
348.16	3106.1	
348.36	5399.8	
348.57	5154.1	
348.78	4164.9	
348.98	4517.1	
349.19	5435.3	
349.39	4958.1	
349.6	3332.7	
349.81	3691.1	
350.01	5739.8	
350.22	5177.3	
350.43	3980.6	
350.63	4915.8	
350.84	5606	
351.05	5327.4	
351.25	3689.1	
351.46	3358	
351.67	6150.7	
351.87	5165	
352.08	3912.3	
352.29	4489.8	
352.49	6012.2	
352.7	6100.9	
352.9	3553.9	
353.11	4414.7	
353.32	6666.1	
353.52	5306.3	
353.73	3515.7	
353.94	4474.1	
354.14	5836.7	
354.35	5662	
354.55	3633.1	
354.76	4017.4	
354.97	5825.8	
355.17	5587.5	
355.38	3353.9	
355.59	4778.6	
355.79	5168.4	
356	5603.2	
356.2	3997.6	
356.41	3409.2	
356.62	4902.8	
356.82	5406.6	
357.03	4269.3	
357.24	3872.7	
357.44	5220.3	
357.65	5305.6	
357.85	5224.4	
358.06	4020.2	
358.27	4930.1	
358.47	5152	
358.68	3284.9	
358.88	4201.1	
359.09	5726.1	
359.3	6219.7	
359.5	4960.2	
359.71	4379.9	
359.91	6698.2	
360.12	5913.9	
360.33	4186	
360.53	4746.5	
360.74	5184.1	
360.94	5239.4	
361.15	4464.6	
361.36	3616.7	
361.56	6040.1	
361.77	5445.5	
361.97	4949.9	
362.18	3859.7	
362.38	5997.8	
362.59	4958.8	
362.8	3550.5	
363	3389.4	
363.21	4823.6	
363.41	5623	
363.62	4137.6	
363.83	5285.8	
364.03	5629.2	
364.24	6640.9	
364.44	5280.3	
364.65	5039.4	
364.85	5380	
365.06	5079	
365.27	3778.5	
365.47	3812.6	
365.68	6429.9	
365.88	5314.5	
366.09	4231.8	
366.29	3804.4	
366.5	5694	
366.71	6110.5	
366.91	5216.2	
367.12	4379.2	
367.32	6709.1	
367.53	5964.4	
367.73	4296.6	
367.94	5317.2	
368.14	5903.6	
368.35	6900.3	
368.56	4270	
368.76	3598.3	
368.97	5958.2	
369.17	7720.8	
369.38	3791.5	
369.58	4053.6	
369.79	4992.3	
369.99	6369.2	
370.2	5114.5	
370.4	4192.2	
370.61	5687.9	
370.82	6934.4	
371.02	4100	
371.23	3347.7	
371.43	4848.9	
371.64	6253.1	
371.84	4075.5	
372.05	5358.9	
372.25	7693.5	
372.46	5991.7	
372.66	4070	
372.87	4022.9	
373.07	6064	
373.28	7696.3	
373.48	5132.9	
373.69	4780.6	
373.9	5419.6	
374.1	5481.7	
374.31	5036	
374.51	4585.4	
374.72	6307.1	
374.92	5137	
375.13	5177.3	
375.33	4413.4	
375.54	5896.8	
375.74	5276.9	
375.95	4405.2	
376.15	5745.2	
376.36	5881.1	
376.56	5662.6	
376.77	4518.5	
376.97	4945.8	
377.18	7026.6	
377.38	6009.4	
377.59	5366.4	
377.79	3935.5	
378	5710.4	
378.2	6290.7	
378.41	4031.8	
378.61	3914.4	
378.82	6258.6	
379.02	5345.9	
379.23	4219.5	
379.43	5404.6	
379.64	6296.8	
379.84	6006.7	
380.05	3981.9	
380.25	3941.7	
380.46	6023.8	
380.66	5603.2	
380.87	5386.2	
381.07	5791	
381.28	6728.3	
381.48	6110.5	
381.69	4039.3	
381.89	4072.7	
382.1	4957.4	
382.3	6209.4	
382.51	5216.2	
382.71	6238.8	
382.91	6055.2	
383.12	6680.5	
383.32	4456.4	
383.53	4602.5	
383.73	5866.7	
383.94	5646.9	
384.14	4583.4	
384.35	3667.2	
384.55	5662.6	
384.76	6069.5	
384.96	4429.8	
385.17	4749.9	
385.37	6064.7	
385.58	5315.2	
385.78	4768.4	
385.98	3548.4	
386.19	5507.7	
386.39	5922.7	
386.6	4117.1	
386.8	4386.1	
387.01	6028.5	
387.21	6065.4	
387.42	4798.4	
387.62	5407.3	
387.83	5271.5	
388.03	6004.6	
388.23	4414.7	
388.44	5241.4	
388.64	4939.7	
388.85	5147.9	
389.05	4719.2	
389.26	5455.1	
389.46	7000.6	
389.67	6413.6	
389.87	4705.5	
390.07	4911	
390.28	5651	
390.48	5218.2	
390.69	3989.4	
390.89	4306.9	
391.1	5401.9	
391.3	6371.9	
391.5	5515.9	
391.71	6221	
391.91	6013.5	
392.12	7099.6	
392.32	5678.3	
392.53	4773.1	
392.73	5434.6	
392.93	5662.6	
393.14	4437.3	
393.34	5273.5	
393.55	6279.1	
393.75	5623	
393.95	4412	
394.16	4360.8	
394.36	5339.1	
394.57	6122.7	
394.77	3869.3	
394.98	4343.7	
395.18	5298.8	
395.38	5527.5	
395.59	5229.1	
395.79	4104.1	
396	5445.5	
396.2	5907.7	
396.4	4936.3	
396.61	4979.3	
396.81	6130.3	
397.02	5338.4	
397.22	5245.5	
397.42	5253.7	
397.63	6108.4	
397.83	5330.2	
398.04	4056.3	
398.24	4604.5	
398.44	5890	
398.65	4898.7	
398.85	3877.5	
399.05	4031.8	
399.26	5251.7	
399.46	7117.4	
399.67	4373.1	
399.87	4076.8	
400.07	5629.2	
400.28	6059.3	
400.48	4251.6	
400.69	5324.7	
400.89	6284.5	
401.09	6705.7	
401.3	4020.2	
401.5	5246.2	
401.7	6979.5	
401.91	7281.9	
402.11	4459.8	
402.32	4728.8	
402.52	6308.4	
402.72	6228.6	
402.93	4942.4	
403.13	3705.5	
403.33	7056.6	
403.54	5751.4	
403.74	4610.7	
403.94	5543.2	
404.15	5835.3	
404.35	7043.6	
404.56	4323.3	
404.76	6330.3	
404.96	6174.6	
405.17	5967.1	
405.37	5308.3	
405.57	4863.9	
405.78	6204	
405.98	5705.6	
406.18	4367	
406.39	5257.1	
406.59	6234	
406.79	5886.5	
407	4141.7	
407.2	4296.6	
407.4	6322.8	
407.61	6455.2	
407.81	4199	
408.01	6384.9	
408.22	5083.7	
408.42	7133.8	
408.62	5259.2	
408.83	4635.9	
409.03	5687.2	
409.23	5483.8	
409.44	4807.3	
409.64	5113.1	
409.84	6690	
410.05	6471.6	
410.25	4887.1	
410.45	4607.9	
410.66	5933	
410.86	8535.9	
411.06	5062.6	
411.27	4960.2	
411.47	8367.3	
411.67	6141.2	
411.88	5178.6	
412.08	5491.3	
412.28	6835.4	
412.49	7314	
412.69	4895.3	
412.89	4896.7	
413.09	7168.6	
413.3	6950.1	
413.5	4970.4	
413.7	4539.7	
413.91	6200.6	
414.11	7180.2	
414.31	4835.3	
414.52	5231.2	
414.72	6761	
414.92	6569.9	
415.12	4790.2	
415.33	5332.9	
415.53	7017.7	
415.73	7225.2	
415.94	5688.6	
416.14	5130.8	
416.34	5928.9	
416.55	5687.9	
416.75	6397.2	
416.95	5717.2	
417.15	7039.6	
417.36	7716.1	
417.56	6537.8	
417.76	5544.5	
417.97	7353.6	
418.17	7036.8	
418.37	5025.7	
418.57	5197.1	
418.78	6726.9	
418.98	6519.4	
419.18	6126.8	
419.38	6043.6	
419.59	6461.3	
419.79	6130.9	
419.99	5018.2	
420.2	5396.4	
420.4	6959	
420.6	7148.8	
420.8	4911.7	
421.01	4736.3	
421.21	6733	
421.41	6990.4	
421.61	5389.6	
421.82	5014.1	
422.02	6251.1	
422.22	7360.4	
422.42	5918.6	
422.63	5541.1	
422.83	6468.9	
423.03	7636.9	
423.23	5608.7	
423.44	4377.2	
423.64	6488.6	
423.84	6225.8	
424.04	4911	
424.25	4616.8	
424.45	7436.9	
424.65	7306.5	
424.85	4343.7	
425.06	4947.2	
425.26	7365.9	
425.46	5832.6	
425.66	5537	
425.87	5098.1	
426.07	7190.4	
426.27	7009.5	
426.47	5309.7	
426.67	4581.3	
426.88	7485.3	
427.08	6918	
427.28	5519.3	
427.48	4520.5	
427.69	5765.7	
427.89	6447.7	
428.09	5461.9	
428.29	4670.1	
428.5	7228.6	
428.7	6683.2	
428.9	4474.1	
429.1	5028.4	
429.3	6574	
429.51	6944	
429.71	4784.7	
429.91	5635.3	
430.11	6848.4	
430.31	7385.7	
430.52	5081.7	
430.72	5259.2	
430.92	7448.5	
431.12	6888.7	
431.32	4764.9	
431.53	5158.2	
431.73	5722.7	
431.93	7524.9	
432.13	4670.7	
432.33	4440.7	
432.54	6223.1	
432.74	6629.3	
432.94	4449.6	
433.14	5532.2	
433.34	6709.8	
433.55	6176	
433.75	5470.1	
433.95	7242.3	
434.15	6505	
434.35	6171.9	
434.56	4603.8	
434.76	4004.5	
434.96	6442.2	
435.16	6681.8	
435.36	4440	
435.56	5607.3	
435.77	6053.8	
435.97	6249	
436.17	6318.7	
436.37	5584.8	
436.57	6007.4	
436.78	5905	
436.98	7409.6	
437.18	6216.3	
437.38	6751.5	
437.58	6281.8	
437.78	6308.4	
437.99	4812	
438.19	6858.6	
438.39	8230.1	
438.59	4837.3	
438.79	4311	
438.99	7538.6	
439.2	6206	
439.4	4475.5	
439.6	4394.3	
439.8	6597.2	
440	7658.7	
440.2	5380.7	
440.4	5463.3	
440.61	6890	
440.81	7402	
441.01	4440.7	
441.21	5389.6	
441.41	7261.4	
441.61	6925.5	
441.81	5797.8	
442.02	6804	
442.22	7802.1	
442.42	6990.4	
442.62	4548.5	
442.82	4621.6	
443.02	7226.6	
443.22	6300.2	
443.43	5046.2	
443.63	4574.5	
443.83	6150.1	
444.03	6238.1	
444.23	5799.2	
444.43	5358.2	
444.63	6440.2	
444.83	7774.1	
445.04	4605.2	
445.24	5986.9	
445.44	6869.6	
445.64	6980.8	
445.84	5532.9	
446.04	5520.6	
446.24	6251.1	
446.44	7309.2	
446.65	4642.7	
446.85	5066	
447.05	6344.6	
447.25	7226.6	
447.45	5157.5	
447.65	4549.2	
447.85	6547.4	
448.05	6137.1	
448.25	5653.8	
448.46	5404.6	
448.66	6482.5	
448.86	6164.4	
449.06	4242.7	
449.26	5601.9	
449.46	6886	
449.66	5850.4	
449.86	4920.6	
450.06	5081.7	
450.26	6020.3	
450.47	6692.1	
450.67	5322	
450.87	5646.2	
451.07	6748.7	
451.27	6498.2	
451.47	4596.3	
451.67	5074.2	
451.87	6178.7	
452.07	7471	
452.27	4762.9	
452.47	4740.4	
452.67	6520	
452.88	6996.5	
453.08	4132.1	
453.28	6156.9	
453.48	7673.7	
453.68	6429.3	
453.88	4618.9	
454.08	4867.3	
454.28	6746.7	
454.48	6376.7	
454.68	5440.8	
454.88	5980.1	
455.08	6858.6	
455.28	6547.4	
455.48	4483	
455.68	5093.3	
455.89	7314	
456.09	6953.5	
456.29	4760.8	
456.49	4759.5	
456.69	7106.5	
456.89	6406.7	
457.09	5319.9	
457.29	5724.8	
457.49	6662	
457.69	6805.4	
457.89	5049.6	
458.09	4418.8	
458.29	6445	
458.49	7149.5	
458.69	5464	
458.89	4782	
459.09	7420.5	
459.29	7533.8	
459.49	5017.5	
459.69	5905.7	
459.9	6943.3	
460.1	6362.4	
460.3	4891.2	
460.5	4625.7	
460.7	6843.6	
460.9	6555.5	
461.1	4235.2	
461.3	5608	
461.5	7458	
461.7	7060.7	
461.9	4636.6	
462.1	5184.8	
462.3	6441.5	
462.5	7058.7	
462.7	4603.8	
462.9	4706.9	
463.1	8249.9	
463.3	7715.4	
463.5	5008	
463.7	5877.7	
463.9	6645.7	
464.1	6987.7	
464.3	4977.2	
464.5	5317.9	
464.7	7281.9	
464.9	6839.5	
465.1	6670.9	
465.3	5575.3	
465.5	7634.1	
465.7	7550.9	
465.9	5840.8	
466.1	5771.2	
466.3	7270.3	
466.5	7217.7	
466.7	6504.3	
466.9	5423.7	
467.1	7062.8	
467.3	7987.1	
467.5	6417	
467.7	5203.2	
467.9	8161.2	
468.1	9164	
468.3	6154.8	
468.5	6452.5	
468.7	6976.7	
468.9	6958.3	
469.1	5516.5	
469.3	6231.3	
469.5	8968.1	
469.7	6429.3	
469.9	6049.7	
470.1	5255.1	
470.3	6963.1	
470.5	6965.8	
470.7	6556.9	
470.9	5321.3	
471.1	6705.7	
471.3	7250.5	
471.5	5171.8	
471.69	7209.5	
471.89	6579.4	
472.09	6178.7	
472.29	6033.3	
472.49	6438.8	
472.69	6341.9	
472.89	7260	
473.09	5007.3	
473.29	5267.4	
473.49	6573.3	
473.69	6796.5	
473.89	6370.5	
474.09	5431.9	
474.29	8079.2	
474.49	7742.7	
474.69	6229.9	
474.89	5579.3	
475.09	6739.9	
475.29	6704.4	
475.49	4977.2	
475.69	5207.3	
475.88	8482.7	
476.08	7033.4	
476.28	4903.5	
476.48	5406.6	
476.68	7582.9	
476.88	7501.7	
477.08	5186.8	
477.28	5637.4	
477.48	6867.5	
477.68	7606.2	
477.88	5016.8	
478.08	5446.9	
478.28	7823.9	
478.48	6969.2	
478.67	5442.8	
478.87	4833.2	
479.07	7568.6	
479.27	7133.8	
479.47	5654.4	
479.67	5696.8	
479.87	7486	
480.07	8002.1	
480.27	4876.9	
480.47	6620.4	
480.67	7126.2	
480.87	7747.5	
481.06	5139	
481.26	6008.1	
481.46	6991.8	
481.66	6952.2	
481.86	5602.6	
482.06	6696.9	
482.26	6739.2	
482.46	7750.2	
482.66	5502.9	
482.86	5044.1	
483.05	7000	
483.25	6533	
483.45	8167.3	
483.65	5502.2	
483.85	6604	
484.05	6931	
484.25	6029.2	
484.45	6404.7	
484.65	7831.4	
484.84	7718.1	
485.04	5393.7	
485.24	5414.1	
485.44	8082	
485.64	6295.5	
485.84	4598.4	
486.04	6083.8	
486.24	6655.2	
486.44	7100.3	
486.63	4541	
486.83	5339.1	
487.03	6504.3	
487.23	6701	
487.43	4642.7	
487.63	7021.1	
487.83	6756.2	
488.02	7742.7	
488.22	5635.3	
488.42	6260.6	
488.62	7740	
488.82	6526.9	
489.02	5333.6	
489.22	5251	
489.41	7587.7	
489.61	7144	
489.81	4973.8	
490.01	5041.4	
490.21	7425.3	
490.41	7998.7	
490.61	4945.8	
490.8	5155.4	
491	6905.1	
491.2	6236.1	
491.4	5769.1	
491.6	4886.5	
491.8	6905.8	
491.99	7186.3	
492.19	4692.6	
492.39	5070.8	
492.59	7484.6	
492.79	7433.4	
492.99	5798.5	
493.18	4908.3	
493.38	7452.6	
493.58	8167.3	
493.78	5533.6	
493.98	5180	
494.18	7103	
494.37	6501.6	
494.57	5836.7	
494.77	5639.4	
494.97	7242.3	
495.17	7452.6	
495.37	5085.8	
495.56	5459.9	
495.76	7641.7	
495.96	7237.5	
496.16	6379.4	
496.36	5211.4	
496.55	7424.6	
496.75	7040.9	
496.95	5645.6	
497.15	5488.6	
497.35	7428	
497.54	7359	
497.74	5331.5	
497.94	7135.8	
498.14	8152.3	
498.34	7890.8	
498.53	4872.1	
498.73	5838.1	
498.93	6701.6	
499.13	7279.8	
499.33	5559.6	
499.52	6215.6	
499.72	7165.2	
499.92	7706.5	
500.12	5171.8	
500.32	5509.7	
500.51	7610.3	
500.71	7242.3	
500.91	6324.8	
501.11	5911.1	
501.31	7465.5	
501.5	7878.5	
501.7	6522.8	
501.9	5492	
502.1	7240.3	
502.29	7549.5	
502.49	5908.4	
502.69	6512.5	
502.89	7413.6	
503.09	7527	
503.28	5002.5	
503.48	5145.2	
503.68	6683.9	
503.88	6675	
504.07	6191.7	
504.27	5662.6	
504.47	7172	
504.67	7339.9	
504.86	6040.1	
505.06	5847	
505.26	6838.2	
505.46	8783.1	
505.65	5635.3	
505.85	5941.2	
506.05	6731	
506.25	7289.4	
506.44	5008.6	
506.64	6089.3	
506.84	6776	
507.04	7790.5	
507.23	5243.5	
507.43	5829.9	
507.63	8865	
507.83	7052.5	
508.02	5905	
508.22	5543.9	
508.42	9088.9	
508.62	6806.8	
508.81	5800.5	
509.01	6313.2	
509.21	6677.7	
509.4	6921.5	
509.6	5932.3	
509.8	5216.2	
510	6903.7	
510.19	8423.3	
510.39	5238	
510.59	5347.9	
510.79	6662	
510.98	8113.4	
511.18	5371.1	
511.38	5446.2	
511.57	7543.4	
511.77	7451.9	
511.97	6222.4	
512.17	5188.2	
512.36	7547.4	
512.56	7569.3	
512.76	5171.1	
512.95	5059.8	
513.15	7653.3	
513.35	6232.7	
513.55	6151.4	
513.74	5227.1	
513.94	7606.8	
514.14	6894.8	
514.33	6199.2	
514.53	5956.9	
514.73	6884.6	
514.92	7131	
515.12	5415.5	
515.32	5130.8	
515.51	7211.6	
515.71	7736.5	
515.91	7111.9	
516.11	5268.1	
516.3	8875.9	
516.5	6701.6	
516.7	5896.1	
516.89	6496.2	
517.09	6889.4	
517.29	6720.1	
517.48	6094.1	
517.68	5607.3	
517.88	6507.8	
518.07	7216.4	
518.27	6042.9	
518.47	5066	
518.66	7811.6	
518.86	6368.5	
519.06	4870.1	
519.25	5294	
519.45	6780.8	
519.65	8220.5	
519.84	5999.2	
520.04	6744.6	
520.24	8692.9	
520.43	7467.6	
520.63	5732.3	
520.83	5468.1	
521.02	6636.1	
521.22	7328.3	
521.42	6086.6	
521.61	6666.1	
521.81	6891.4	
522.01	7060.7	
522.2	5863.3	
522.4	5588.9	
522.6	7472.4	
522.79	6227.9	
522.99	5688.6	
523.18	4898.1	
523.38	7204.1	
523.58	7045.7	
523.77	6874.3	
523.97	4827.7	
524.17	9004.9	
524.36	8193.2	
524.56	6136.4	
524.76	5851	
524.95	7025.2	
525.15	6660.7	
525.34	5614.8	
525.54	5612.1	
525.74	7351.5	
525.93	6296.1	
526.13	6799.9	
526.33	5483.1	
526.52	7686.7	
526.72	7136.5	
526.91	6707.1	
527.11	6001.9	
527.31	7692.2	
527.5	8140	
527.7	5851	
527.89	4825.7	
528.09	6484.6	
528.29	7066.2	
528.48	6281.1	
528.68	5929.6	
528.87	7507.9	
529.07	7600	
529.27	5789.6	
529.46	5304.2	
529.66	7144	
529.85	7619.1	
530.05	5071.5	
530.25	5961	
530.44	8533.9	
530.64	7144	
530.83	5485.1	
531.03	5811.5	
531.23	7434.1	
531.42	7347.4	
531.62	6504.3	
531.81	5694.7	
532.01	7475.8	
532.21	7955.7	
532.4	5341.8	
532.6	5660.6	
532.79	8510.7	
532.99	7536.5	
533.18	5659.9	
533.38	6747.4	
533.58	6936.5	
533.77	7856.7	
533.97	5483.8	
534.16	6457.9	
534.36	8065.6	
534.55	7057.3	
534.75	6647.7	
534.95	5690.6	
535.14	7857.4	
535.34	7038.9	
535.53	5378.6	
535.73	7364.5	
535.92	8442.4	
536.12	7280.5	
536.31	5520	
536.51	6751.5	
536.71	7580.2	
536.9	7178.1	
537.1	5612.8	
537.29	5773.9	
537.49	8089.5	
537.68	6994.5	
537.88	6118	
538.07	5358.9	
538.27	7144	
538.46	8277.2	
538.66	5087.2	
538.86	5614.2	
539.05	7266.9	
539.25	7724.9	
539.44	5965.1	
539.64	5601.2	
539.83	7174.7	
540.03	8213.7	
540.22	5475.6	
540.42	5689.9	
540.61	7424.6	
540.81	7515.4	
541	6159.6	
541.2	6784.2	
541.39	6971.3	
541.59	7304.4	
541.78	6365.8	
541.98	5511.8	
542.18	6666.1	
542.37	6619.7	
542.57	5875.6	
542.76	6487.3	
542.96	6754.2	
543.15	7621.2	
543.35	6057.2	
543.54	5379.3	
543.74	7886	
543.93	7425.3	
544.13	6054.5	
544.32	7131.7	
544.52	7774.8	
544.71	6972	
544.91	5097.4	
545.1	6413.6	
545.3	6877.8	
545.49	7651.9	
545.69	5046.9	
545.88	5694	
546.08	8615.8	
546.27	8184.4	
546.47	6279.1	
546.66	5466	
546.86	7923.6	
547.05	8563.2	
547.24	5722.7	
547.44	5560.2	
547.63	6830.7	
547.83	7989.8	
548.02	5965.7	
548.22	6212.2	
548.41	6660.7	
548.61	8059.4	
548.8	5584.8	
549	5482.4	
549.19	7351.5	
549.39	7684	
549.58	5188.9	
549.78	5843.5	
549.97	7780.2	
550.17	7251.9	
550.36	6803.4	
550.55	7827.3	
550.75	7280.5	
550.94	8226.7	
551.14	5476.3	
551.33	5958.2	
551.53	6602.7	
551.72	7645.1	
551.92	5991.7	
552.11	5674.9	
552.31	7591.8	
552.5	7755.7	
552.69	7470.3	
552.89	5300.1	
553.08	7586.4	
553.28	7369.3	
553.47	5763	
553.67	6906.4	
553.86	8358.4	
554.06	6580.8	
554.25	4842.8	
554.44	5536.3	
554.64	9123.7	
554.83	8611	
555.03	5477	
555.22	5888.6	
555.42	7849.9	
555.61	7565.2	
555.8	5715.9	
556	6021	
556.19	6630	
556.39	8192.6	
556.58	5795.8	
556.78	5707.7	
556.97	7511.9	
557.16	7097.6	
557.36	7092.1	
557.55	5312.4	
557.75	6464.8	
557.94	8258.1	
558.13	5563	
558.33	5341.8	
558.52	8086.7	
558.72	6851.1	
558.91	5353.4	
559.1	5644.9	
559.3	6616.3	
559.49	6341.9	
559.69	4894.6	
559.88	5997.1	
560.07	7497.6	
560.27	7860.1	
560.46	6228.6	
560.66	6376	
560.85	7256	
561.04	6477	
561.24	5434.6	
561.43	5680.4	
561.63	6771.9	
561.82	7002	
562.01	6944.7	
562.21	5922.7	
562.4	7458	
562.59	8473.8	
562.79	5819	
562.98	5356.8	
563.18	7340.6	
563.37	8927.1	
563.56	6248.4	
563.76	5218.9	
563.95	6828.6	
564.14	6651.8	
564.34	5668.1	
564.53	5455.8	
564.73	7342.7	
564.92	7603.4	
565.11	5866.7	
565.31	5225.1	
565.5	7901.7	
565.69	6845.7	
565.89	5392.3	
566.08	5672.9	
566.27	7754.3	
566.47	8118.1	
566.66	6395.8	
566.85	4900.1	
567.05	7320.8	
567.24	6634.1	
567.44	5355.4	
567.63	6789	
567.82	7589.8	
568.02	7338.6	
568.21	5293.3	
568.4	5730.9	
568.6	7107.1	
568.79	7223.2	
568.98	5095.3	
569.18	5289.2	
569.37	7114	
569.56	9241.1	
569.76	5655.8	
569.95	6745.3	
570.14	7559.7	
570.34	7432.8	
570.53	5078.3	
570.72	5203.2	
570.91	8062.2	
571.11	7076.4	
571.3	5703.6	
571.49	6598.6	
571.69	7091.4	
571.88	6633.4	
572.07	6236.1	
572.27	6155.5	
572.46	6648.4	
572.65	7762.5	
572.85	5424.4	
573.04	5679.7	
573.23	7903.1	
573.43	7200	
573.62	5082.4	
573.81	5828.5	
574	7141.9	
574.2	7051.2	
574.39	5369.8	
574.58	5665.4	
574.78	8107.2	
574.97	7221.1	
575.16	5997.1	
575.36	6243.6	
575.55	7660.8	
575.74	7814.4	
575.93	5055.1	
576.13	6130.3	
576.32	6951.5	
576.51	7526.3	
576.71	5449	
576.9	6965.8	
577.09	7951.6	
577.28	7447.1	
577.48	5999.2	
577.67	4956.8	
577.86	7032.7	
578.05	7406.1	
578.25	5646.2	
578.44	5774.6	
578.63	7139.9	
578.83	8417.2	
579.02	4992.9	
579.21	6662.7	
579.4	7423.9	
579.6	6986.3	
579.79	5798.5	
579.98	8106.5	
580.17	7740	
580.37	7702.4	
580.56	5258.5	
580.75	6008.1	
580.94	8288.8	
581.14	8087.4	
581.33	6505	
581.52	5355.4	
581.71	7581.6	
581.91	8286.1	
582.1	4988.9	
582.29	5762.3	
582.48	7228	
582.68	7078.5	
582.87	6277	
583.06	5792.3	
583.25	7502.4	
583.45	6879.8	
583.64	6426.5	
583.83	7211.6	
584.02	6911.9	
584.21	7527	
584.41	6398.5	
584.6	5706.3	
584.79	7251.9	
584.98	7968.6	
585.18	5190.9	
585.37	5180.7	
585.56	6696.2	
585.75	7519.5	
585.94	5417.6	
586.14	6087.2	
586.33	8247.2	
586.52	7150.8	
586.71	5996.5	
586.91	5715.9	
587.1	6541.9	
587.29	7738.6	
587.48	5665.4	
587.67	5545.9	
587.87	7492.2	
588.06	7698.3	
588.25	6930.3	
588.44	6201.9	
588.63	7341.3	
588.83	7894.9	
589.02	5689.9	
589.21	5646.2	
589.4	7147.4	
589.59	6941.2	
589.78	4887.8	
589.98	5257.1	
590.17	6705.7	
590.36	7365.9	
590.55	4653	
590.74	5651	
590.94	8835.6	
591.13	7279.2	
591.32	5323.4	
591.51	4879.6	
591.7	7823.2	
591.89	7169.9	
592.09	4983.4	
592.28	5455.8	
592.47	6367.1	
592.66	8267.6	
592.85	4970.4	
593.05	5179.3	
593.24	6951.5	
593.43	7732.4	
593.62	5145.2	
593.81	5794.4	
594	6956.9	
594.19	7238.2	
594.39	5132.9	
594.58	5092.6	
594.77	7385	
594.96	8006.9	
595.15	5035.3	
595.34	5778	
595.54	7475.8	
595.73	6462.7	
595.92	4392.9	
596.11	5678.3	
596.3	7996.6	
596.49	6597.9	
596.68	5436	
596.88	5940.5	
597.07	7660.8	
597.26	6434	
597.45	4930.8	
597.64	6158.9	
597.83	6658.6	
598.02	7283.9	
598.22	4990.9	
598.41	5694	
598.6	7130.3	
598.79	6569.2	
598.98	5056.4	
599.17	6032.6	
599.36	7063.4	
599.55	8372.8	
599.74	7287.4	
599.94	6944.7	
600.13	7721.5	
600.32	6451.1	
600.51	4794.3	
600.7	4890.5	
600.89	8472.4	
601.08	8409	
601.27	4778.6	
601.47	5750	
601.66	7632.1	
601.85	8409.6	
602.04	5453.1	
602.23	5707	
602.42	6643.6	
602.61	7306.5	
602.8	5380.7	
602.99	5145.9	
603.18	7017.7	
603.37	7415.7	
603.57	5819	
603.76	6429.3	
603.95	8058.8	
604.14	7544	
604.33	5215.5	
604.52	5563.6	
604.71	7201.3	
604.9	6841.6	
605.09	6172.6	
605.28	6083.1	
605.47	7783.6	
605.66	7474.4	
605.86	5797.1	
606.05	5238	
606.24	7922.2	
606.43	6301.6	
606.62	5545.2	
606.81	6403.3	
607	7725.6	
607.19	7023.2	
607.38	5017.5	
607.57	5335.6	
607.76	6750.1	
607.95	6268.8	
608.14	5707.7	
608.33	6356.9	
608.52	6776.7	
608.72	7721.5	
608.91	4950.6	
609.1	4840	
609.29	6920.8	
609.48	6333	
609.67	5909.1	
609.86	4945.8	
610.05	6506.4	
610.24	6881.9	
610.43	4717.8	
610.62	4373.8	
610.81	8062.2	
611	7765.2	
611.19	4899.4	
611.38	5689.9	
611.57	7152.2	
611.76	8568	
611.95	4684.4	
612.14	4555.4	
612.33	6982.2	
612.52	6492.1	
612.71	5260.5	
612.9	4494.6	
613.09	6011.5	
613.28	8467.7	
613.47	4917.9	
613.66	6043.6	
613.85	7107.1	
614.04	6611.5	
614.24	5132.9	
614.43	4287.8	
614.62	7219.8	
614.81	7079.1	
615	5666	
615.19	5678.3	
615.38	6490	
615.57	6834.1	
615.76	5546.6	
615.95	6519.4	
616.14	7294.2	
616.33	6841.6	
616.52	5877.7	
616.71	6148.7	
616.9	7204.1	
617.09	6973.3	
617.28	5156.1	
617.47	6666.8	
617.66	6273.6	
617.85	6287.9	
618.04	6040.1	
618.22	5511.1	
618.41	6518	
618.6	7395.2	
618.79	5416.2	
618.98	5061.9	
619.17	7858.1	
619.36	6041.5	
619.55	5214.8	
619.74	5226.4	
619.93	7023.2	
620.12	6415.6	
620.31	5766.4	
620.5	6016.2	
620.69	7716.7	
620.88	8030.1	
621.07	6721.4	
621.26	5732.9	
621.45	7157.7	
621.64	7240.3	
621.83	5791	
622.02	4926.7	
622.21	7242.3	
622.4	6933.1	
622.59	6380.1	
622.78	6056.5	
622.97	6651.1	
623.16	7542	
623.35	5621.7	
623.54	4853.7	
623.72	6804	
623.91	6894.8	
624.1	5985.5	
624.29	4566.3	
624.48	8067.6	
624.67	7264.1	
624.86	5857.9	
625.05	4857.1	
625.24	8075.1	
625.43	6386.2	
625.62	7704.5	
625.81	5047.6	
626	7529	
626.19	6693.4	
626.38	5935	
626.56	5380	
626.75	6604.7	
626.94	7424.6	
627.13	5924.1	
627.32	4559.5	
627.51	7192.5	
627.7	8769.4	
627.89	4794.3	
628.08	5917.9	
628.27	6468.9	
628.46	6731	
628.65	5017.5	
628.83	4671.4	
629.02	7253.2	
629.21	6537.1	
629.4	5541.1	
629.59	5702.2	
629.78	6432	
629.97	7595.9	
630.16	5712.5	
630.35	5199.8	
630.54	7976.2	
630.72	7669.6	
630.91	5162.9	
631.1	5801.9	
631.29	7075	
631.48	7242.3	
631.67	5809.4	
631.86	5408.7	
632.05	6638.8	
632.24	6754.2	
632.42	5003.9	
632.61	5636	
632.8	6854.6	
632.99	6551.5	
633.18	5539.8	
633.37	5995.1	
633.56	7057.3	
633.75	6869.6	
633.93	5588.9	
634.12	5266	
634.31	7913.4	
634.5	7527.7	
634.69	5297.4	
634.88	5834	
635.07	6909.2	
635.25	7462.1	
635.44	6232	
635.63	6497.5	
635.82	6685.3	
636.01	6242.9	
636.2	6221	
636.39	5699.5	
636.57	7895.6	
636.76	7588.4	
636.95	5061.2	
637.14	6667.5	
637.33	7174.7	
637.52	8151.6	
637.7	4851.6	
637.89	5896.8	
638.08	6681.2	
638.27	8284	
638.46	5906.3	
638.65	6526.2	
638.83	8353.7	
639.02	6614.3	
639.21	5911.8	
639.4	6483.9	
639.59	7135.8	
639.78	6694.1	
639.96	5239.4	
640.15	5239.4	
640.34	6974	
640.53	7166.5	
640.72	4919.2	
640.91	5278.3	
641.09	6396.5	
641.28	7879.9	
641.47	5288.5	
641.66	6120.7	
641.85	7107.1	
642.03	7460.8	
642.22	5989.6	
642.41	5354.1	
642.6	6539.2	
642.79	5995.1	
642.97	5175.9	
643.16	5983.5	
643.35	6556.9	
643.54	6371.2	
643.73	5143.8	
643.91	5933.6	
644.1	6227.9	
644.29	6898.9	
644.48	5273.5	
644.67	5299.5	
644.85	6579.4	
645.04	6823.8	
645.23	4869.4	
645.42	5122.7	
645.6	6442.9	
645.79	7654.6	
645.98	5259.2	
646.17	4253.6	
646.36	6193.1	
646.54	6957.6	
646.73	6176	
646.92	4895.3	
647.11	6508.4	
647.29	7664.9	
647.48	4968.4	
647.67	4750.6	
647.86	7858.7	
648.05	7796.6	
648.23	5281.7	
648.42	6648.4	
648.61	7166.5	
648.8	6886.6	
648.98	4958.8	
649.17	5261.9	
649.36	6457.2	
649.55	5976	
649.73	5014.1	
649.92	5834	
650.11	6432	
650.3	6728.9	
650.48	5205.9	
650.67	4836.6	
650.86	7051.8	
651.05	5956.9	
651.23	5150.6	
651.42	5003.2	
651.61	6482.5	
651.79	6616.3	
651.98	5328.1	
652.17	4904.2	
652.36	6954.2	
652.54	5984.8	
652.73	4946.5	
652.92	4758.1	
653.11	7017	
653.29	7027.9	
653.48	4245.4	
653.67	5360.9	
653.85	6849.8	
654.04	7941.3	
654.23	5552.7	
654.42	5077.6	
654.6	6438.8	
654.79	7066.9	
654.98	4536.9	
655.16	5154.1	
655.35	5993.7	
655.54	6003.3	
655.73	4669.4	
655.91	4639.3	
656.1	7129	
656.29	5821.7	
656.47	4145.1	
656.66	5868.1	
656.85	6107	
657.03	6218.3	
657.22	4681	
657.41	4734.9	
657.59	6298.2	
657.78	6014.9	
657.97	4378.6	
658.16	5145.9	
658.34	6892.1	
658.53	7279.2	
658.72	6113.9	
658.9	6538.5	
659.09	6251.8	
659.28	6397.2	
659.46	4868.7	
659.65	4791.6	
659.84	6036.7	
660.02	6629.3	
660.21	4624.3	
660.4	4695.3	
660.58	7174.7	
660.77	6486.6	
660.96	5292	
661.14	4276.2	
661.33	7690.8	
661.52	7546.8	
661.7	4257.7	
661.89	8247.2	
662.08	6109.8	
662.26	5657.2	
662.45	4590.9	
662.64	4638	
662.82	6766.5	
663.01	5950.7	
663.2	4696	
663.38	5638.1	
663.57	6734.4	
663.75	6556.2	
663.94	5054.4	
664.13	6357.6	
664.31	6064	
664.5	6836.8	
664.69	5461.2	
664.87	5987.6	
665.06	5778.7	
665.25	6585.6	
665.43	6127.5	
665.62	6332.3	
665.8	6961	
665.99	6191.7	
666.18	5106.3	
666.36	5185.5	
666.55	6950.8	
666.74	6787.7	
666.92	4683.7	
667.11	6423.1	
667.29	6224.5	
667.48	6959.7	
667.67	6037.4	
667.85	4937	
668.04	6374.6	
668.22	6252.4	
668.41	5079	
668.6	5316.5	
668.78	6070.9	
668.97	6354.2	
669.15	5579.3	
669.34	4461.8	
669.53	6175.3	
669.71	6501.6	
669.9	4683.7	
670.08	5371.1	
670.27	6113.9	
670.46	6675	
670.64	5541.8	
670.83	5796.4	
671.01	5957.5	
671.2	6624.5	
671.38	4653	
671.57	4674.1	
671.76	7285.3	
671.94	7821.9	
672.13	4591.5	
672.31	5705	
672.5	6789.7	
672.69	6092.7	
672.87	4644.1	
673.06	5019.6	
673.24	6647	
673.43	6109.1	
673.61	5490.6	
673.8	5038.7	
673.98	6821.1	
674.17	7030.7	
674.36	5616.9	
674.54	5470.8	
674.73	6570.6	
674.91	6855.9	
675.1	5152.7	
675.28	4815.5	
675.47	6333	
675.65	7000.6	
675.84	5017.5	
676.03	5352.7	
676.21	6158.2	
676.4	5604.6	
676.58	5915.9	
676.77	5608	
676.95	7673.1	
677.14	6058.6	
677.32	4699.4	
677.51	4514.4	
677.69	6879.8	
677.88	5680.4	
678.06	4553.3	
678.25	4661.2	
678.44	6406.7	
678.62	6102.9	
678.81	4382.7	
678.99	5444.9	
679.18	7228	
679.36	6793.1	
679.55	4998.4	
679.73	5655.8	
679.92	6751.5	
680.1	6117.3	
680.29	6350.1	
680.47	5029.8	
680.66	6083.8	
680.84	6993.1	
681.03	4239.3	
681.21	5477.6	
681.4	6118	
681.58	6023.1	
681.77	4817.5	
681.95	4677.6	
682.14	7037.5	
682.32	7339.9	
682.51	5728.2	
682.69	4517.1	
682.88	6097.5	
683.06	6789	
683.25	5367	
683.43	5935.7	
683.62	6302.3	
683.8	6784.9	
683.99	6036.7	
684.17	5304.9	
684.36	7732.4	
684.54	6360.3	
684.73	4485.7	
684.91	4672.1	
685.1	6778.8	
685.28	6158.2	
685.46	5394.3	
685.65	5448.3	
685.83	6969.2	
686.02	6374	
686.2	4812.7	
686.39	5017.5	
686.57	6064.7	
686.76	7617.1	
686.94	4840.7	
687.13	4954.7	
687.31	6813.6	
687.5	6376.7	
687.68	4389.5	
687.86	5703.6	
688.05	7957	
688.23	5805.3	
688.42	5772.5	
688.6	4824.3	
688.79	6147.3	
688.97	6217.6	
689.16	5311.7	
689.34	4163.5	
689.52	6951.5	
689.71	7159.7	
689.89	5595.1	
690.08	4813.4	
690.26	6457.2	
690.45	6365.8	
690.63	5796.4	
690.81	5004.6	
691	6191	
691.18	6146.6	
691.37	5158.2	
691.55	7479.9	
691.74	6138.4	
691.92	8257.4	
692.1	5225.1	
692.29	4623.6	
692.47	6327.5	
692.66	5657.2	
692.84	4799.1	
693.02	5453.7	
693.21	5700.9	
693.39	6284.5	
693.58	5487.2	
693.76	4842.1	
693.94	7569.3	
694.13	7236.2	
694.31	4799.1	
694.5	6002.6	
694.68	6011.5	
694.86	6410.8	
695.05	5209.3	
695.23	5623.7	
695.42	6741.9	
695.6	9228.1	
695.78	5833.3	
695.97	4928.1	
696.15	6776	
696.34	6221.7	
696.52	4626.4	
696.7	5539.8	
696.89	6668.9	
697.07	6004	
697.25	5446.2	
697.44	7058	
697.62	6546.7	
697.81	6995.2	
697.99	5174.5	
698.17	5742.5	
698.36	5925.5	
698.54	6670.9	
698.72	5513.1	
698.91	4465.9	
699.09	6207.4	
699.28	6087.9	
699.46	5229.1	
699.64	5019.6	
699.83	5889.3	
700.01	7397.9	
700.19	5900.2	
700.38	4255	
700.56	7271	
700.74	6046.3	
700.93	4633.2	
701.11	5455.8	
701.29	6726.9	
701.48	7822.6	
701.66	4832.5	
701.84	4889.9	
702.03	6152.8	
702.21	6899.6	
702.39	4451.6	
702.58	5119.2	
702.76	6580.8	
702.94	6735.1	
703.13	4441.4	
703.31	7037.5	
703.49	5866.1	
703.68	7294.2	
703.86	4629.8	
704.04	5710.4	
704.23	6444.3	
704.41	6827.9	
704.59	4789.5	
704.78	5908.4	
704.96	7659.4	
705.14	6907.1	
705.33	4579.9	
705.51	5497.4	
705.69	6309.8	
705.87	7204.1	
706.06	5778	
706.24	4601.1	
706.42	6668.9	
706.61	6896.9	
706.79	5868.8	
706.97	4578.6	
707.16	5964.4	
707.34	6710.5	
707.52	5780.7	
707.7	4808.6	
707.89	6313.9	
708.07	5923.4	
708.25	5739.1	
708.44	5850.4	
708.62	6108.4	
708.8	7393.2	
708.98	5988.3	
709.17	4880.3	
709.35	6576	
709.53	6569.9	
709.72	4561.5	
709.9	5138.4	
710.08	6860	
710.26	6920.8	
710.45	6430.6	
710.63	5234.6	
710.81	6604.7	
710.99	6503	
711.18	5646.2	
711.36	5149.3	
711.54	6343.2	
711.72	7182.9	
711.91	5213.4	
712.09	4612	
712.27	6565.1	
712.45	7259.4	
712.64	5619.6	
712.82	4515.8	
713	5993.7	
713.18	6256.5	
713.37	4707.6	
713.55	5970.5	
713.73	7173.4	
713.91	5763	
714.1	5203.9	
714.28	4658.4	
714.46	6931.7	
714.64	6133	
714.83	4160.1	
715.01	5017.5	
715.19	6223.8	
715.37	5610.1	
715.55	4698.7	
715.74	5121.3	
715.92	7245	
716.1	5150.6	
716.28	6331.6	
716.47	5277.6	
716.65	5941.8	
716.83	5972.6	
717.01	5031.2	
717.19	5246.9	
717.38	8239.7	
717.56	5668.1	
717.74	5330.9	
717.92	4364.9	
718.1	6934.4	
718.29	6019.7	
718.47	4016.1	
718.65	4627.7	
718.83	6709.8	
719.01	6610.2	
719.2	3745.1	
719.38	5009.3	
719.56	6346.7	
719.74	7914.7	
719.92	4517.8	
720.11	5790.3	
720.29	6396.5	
720.47	5492.7	
720.65	4117.8	
720.83	5135.6	
721.02	5965.7	
721.2	5659.9	
721.38	5100.8	
721.56	4386.1	
721.74	5165	
721.92	5393.7	
722.11	5710.4	
722.29	5365.7	
722.47	6694.8	
722.65	5839.4	
722.83	4403.8	
723.01	5384.1	
723.2	5924.1	
723.38	6212.9	
723.56	3758.7	
723.74	5062.6	
723.92	5419.6	
724.1	6688.7	
724.29	4291.9	
724.47	5582.1	
724.65	5503.6	
724.83	5426.4	
725.01	4186	
725.19	5200.5	
725.37	5536.3	
725.56	5580	
725.74	4057.7	
725.92	4300.1	
726.1	5369.1	
726.28	5742.5	
726.46	4846.2	
726.64	4531.5	
726.83	5685.8	
727.01	5951.4	
727.19	4055.7	
727.37	4960.9	
727.55	5795.8	
727.73	6371.9	
727.91	4006.5	
728.09	3848.8	
728.28	6335.7	
728.46	7098.3	
728.64	5035.3	
728.82	4965	
729	7551.5	
729.18	6705.7	
729.36	4125.3	
729.54	6617	
729.72	7724.3	
729.91	5937.1	
730.09	6147.3	
730.27	4751.3	
730.45	5727.5	
730.63	6486.6	
730.81	5395.7	
730.99	4388.1	
731.17	7054.6	
731.35	5517.9	
731.53	4980.7	
731.71	4574.5	
731.9	6729.6	
732.08	6959.7	
732.26	4824.3	
732.44	4526.7	
732.62	6935.1	
732.8	6434	
732.98	5298.8	
733.16	4262.5	
733.34	6429.3	
733.52	5173.2	
733.7	4825.7	
733.88	5072.8	
734.07	6311.2	
734.25	5988.9	
734.43	4272.7	
734.61	5941.8	
734.79	7613.7	
734.97	5907	
735.15	4403.8	
735.33	4771.8	
735.51	6279.8	
735.69	5878.4	
735.87	6099.5	
736.05	5065.3	
736.23	6098.9	
736.41	5878.4	
736.59	4911	
736.77	4885.1	
736.95	6622.4	
737.13	5988.3	
737.32	4444.8	
737.5	4682.3	
737.68	7176.1	
737.86	5801.2	
738.04	4208.6	
738.22	6253.1	
738.4	5632.6	
738.58	6023.1	
738.76	4960.2	
738.94	3789.4	
739.12	5783.5	
739.3	5596.4	
739.48	5461.9	
739.66	5249.6	
739.84	6044.9	
740.02	6077.7	
740.2	3908.2	
740.38	4326.7	
740.56	6475	
740.74	5276.3	
740.92	5036	
741.1	4921.3	
741.28	5882.4	
741.46	5703.6	
741.64	4528.7	
741.82	5073.5	
742	5928.9	
742.18	5898.8	
742.36	4786.1	
742.54	4240.7	
742.72	6548	
742.9	5201.8	
743.08	5205.9	
743.26	3913.7	
743.44	6780.1	
743.62	6587	
743.8	5410.1	
743.98	4350.6	
744.16	6367.1	
744.34	5999.9	
744.52	5265.3	
744.7	5196.4	
744.88	6462	
745.06	5962.3	
745.24	5390.3	
745.42	5469.4	
745.6	6488	
745.78	6242.9	
745.96	4096.6	
746.14	4415.4	
746.32	7409.6	
746.5	6617	
746.68	5107.6	
746.86	4453	
747.03	7068.9	
747.21	5223.7	
747.39	5035.3	
747.57	4545.8	
747.75	6162.3	
747.93	6622.4	
748.11	4464.6	
748.29	4378.6	
748.47	7838.9	
748.65	5883.1	
748.83	5262.6	
749.01	4945.2	
749.19	6406.7	
749.37	5483.1	
749.55	4833.9	
749.73	4905.6	
749.91	6016.2	
750.09	5758.2	
750.26	4962.2	
750.44	4304.8	
750.62	6056.5	
750.8	6021	
750.98	4125.3	
751.16	4511	
751.34	6131.6	
751.52	5379.3	
751.7	5423	
751.88	4138.9	
752.06	6614.9	
752.24	6365.8	
752.42	4091.2	
752.59	4472.8	
752.77	6034.7	
752.95	7338.6	
753.13	5209.3	
753.31	4645.5	
753.49	5653.1	
753.67	6186.9	
753.85	4900.8	
754.03	4485.1	
754.21	6453.1	
754.38	6865.5	
754.56	4765.6	
754.74	3669.3	
754.92	5741.1	
755.1	6485.2	
755.28	3777.8	
755.46	3908.9	
755.64	7316	
755.82	7549.5	
755.99	4267.3	
756.17	4449.6	
756.35	4947.2	
756.53	6662.7	
756.71	3261	
756.89	4257	
757.07	6234	
757.25	5254.4	
757.42	4848.9	
757.6	5711.1	
757.78	6238.8	
757.96	5125.4	
758.14	4437.9	
758.32	3890.5	
758.5	4642.1	
758.67	5572.5	
758.85	4266.6	
759.03	4376.5	
759.21	5736.4	
759.39	5168.4	
759.57	3762.8	
759.75	5095.3	
759.92	6410.8	
760.1	5606	
760.28	5422.3	
760.46	5741.1	
760.64	5390.3	
760.82	5127.4	
760.99	5230.5	
761.17	4272.1	
761.35	6168.5	
761.53	5068.7	
761.71	4421.6	
761.89	5150	
762.06	6063.4	
762.24	5516.5	
762.42	4406.5	
762.6	4275.5	
762.78	5485.1	
762.96	6175.3	
763.13	4879.6	
763.31	4522.6	
763.49	6467.5	
763.67	5449	
763.85	5372.5	
764.02	5952.8	
764.2	6688	
764.38	5773.9	
764.56	4373.8	
764.74	5289.2	
764.91	6875.7	
765.09	5619.6	
765.27	3997	
765.45	3831.1	
765.63	6811.5	
765.8	6721.4	
765.98	3534.1	
766.16	3942.3	
766.34	5169.8	
766.52	4948.6	
766.69	4934.2	
766.87	3738.2	
767.05	5526.1	
767.23	6476.4	
767.41	4141	
767.58	4390.8	
767.76	6262	
767.94	6339.8	
768.12	4218.1	
768.29	5062.6	
768.47	5699.5	
768.65	6476.4	
768.83	3831.7	
769	5072.1	
769.18	5184.1	
769.36	5950.7	
769.54	5101.5	
769.72	3870	
769.89	6315.9	
770.07	6438.8	
770.25	4268	
770.43	5604.6	
770.6	7146.7	
770.78	7608.9	
770.96	4480.3	
771.14	5149.3	
771.31	6233.3	
771.49	5565.7	
771.67	3556	
771.85	3877.5	
772.02	4736.3	
772.2	5676.3	
772.38	4608.6	
772.55	4147.8	
772.73	5872.2	
772.91	5601.2	
773.09	4563.6	
773.26	4674.8	
773.44	5841.5	
773.62	5499.5	
773.8	4040	
773.97	3684.3	
774.15	5965.1	
774.33	5494	
774.5	3892.5	
774.68	4273.4	
774.86	6161.7	
775.04	5539.1	
775.21	3969	
775.39	4020.2	
775.57	5805.3	
775.74	6293.4	
775.92	3860.4	
776.1	3721.8	
776.27	5879	
776.45	7123.5	
776.63	4022.9	
776.81	3533.4	
776.98	5429.8	
777.16	6642.9	
777.34	4169.7	
777.51	4512.4	
777.69	5435.3	
777.87	5231.2	
778.04	4222.2	
778.22	4972.5	
778.4	5251.7	
778.57	5937.7	
778.75	3521.1	
778.93	3759.4	
779.1	5001.8	
779.28	4926	
779.46	3433.1	
779.64	4057	
779.81	6074.3	
779.99	7103	
780.17	4878.9	
780.34	5056.4	
780.52	5634	
780.69	5773.2	
780.87	4391.5	
781.05	3888.4	
781.22	5684.5	
781.4	5673.6	
781.58	4134.8	
781.75	3172.3	
781.93	5702.9	
782.11	5012.1	
782.28	5057.1	
782.46	4089.1	
782.64	4866	
782.81	5819	
782.99	4233.2	
783.17	4177.2	
783.34	5796.4	
783.52	4942.4	
783.69	4393.6	
783.87	5224.4	
784.05	5134.9	
784.22	5072.8	
784.4	5204.6	
784.58	4506.2	
784.75	6031.3	
784.93	5079	
785.1	4086.4	
785.28	4752	
785.46	5819.6	
785.63	5044.1	
785.81	4110.3	
785.99	3961.5	
786.16	5188.2	
786.34	5710.4	
786.51	3946.4	
786.69	4440	
786.87	4798.4	
787.04	5326.8	
787.22	3815.4	
787.39	4859.1	
787.57	5042.8	
787.75	6294.8	
787.92	5025.7	
788.1	5047.6	
788.27	5119.9	
788.45	4835.3	
788.63	4717.2	
788.8	3343	
788.98	5491.3	
789.15	4807.9	
789.33	3429	
789.5	4218.8	
789.68	6060.6	
789.86	6200.6	
790.03	4644.1	
790.21	3985.3	
790.38	6024.4	
790.56	5218.9	
790.73	3900	
790.91	3906.2	
791.09	5126.1	
791.26	5940.5	
791.44	4082.3	
791.61	3542.3	
791.79	5069.4	
791.96	5208	
792.14	3646.1	
792.32	3224.2	
792.49	5107	
792.67	5191.6	
792.84	3766.2	
793.02	3536.8	
793.19	5591.6	
793.37	6436.1	
793.54	3210.5	
793.72	3641.3	
793.89	6511.9	
794.07	5154.1	
794.25	4174.4	
794.42	3330.7	
794.6	6275	
794.77	5847	
794.95	4658.4	
795.12	3962.1	
795.3	5112.4	
795.47	5824.4	
795.65	4346.5	
795.82	4214.7	
796	4874.8	
796.17	7023.9	
796.35	4052.9	
796.52	4826.4	
796.7	5726.1	
796.87	5824.4	
797.05	5094.7	
797.22	4965.6	
797.4	5723.4	
797.57	6822.5	
797.75	4186	
797.92	3975.8	
798.1	6116.6	
798.27	5129.5	
798.45	3359.4	
798.62	3616	
798.8	5457.2	
798.97	6025.1	
799.15	4401.8	
799.32	4268	
799.5	4646.8	
799.67	5523.4	
799.85	4525.3	
800.02	3327.9	
800.2	5064.6	
800.37	5470.8	
800.55	4833.2	
800.72	3908.9	
800.9	5934.3	
801.07	6423.8	
801.25	5346.6	
801.42	4369	
801.6	5951.4	
801.77	5708.4	
801.95	4072	
802.12	3893.9	
802.29	5703.6	
802.47	5633.3	
802.64	4373.8	
802.82	3177.1	
802.99	5049.6	
803.17	6140.5	
803.34	4206.5	
803.52	3734.1	
803.69	6863.4	
803.87	4865.3	
804.04	4127.3	
804.21	4302.1	
804.39	6280.4	
804.56	5373.2	
804.74	3556.6	
804.91	4429.8	
805.09	5125.4	
805.26	5230.5	
805.44	3631	
805.61	4024.3	
805.78	5789.6	
805.96	5936.4	
806.13	4405.9	
806.31	4828.4	
806.48	4643.4	
806.66	5258.5	
806.83	4319.2	
807	4273.4	
807.18	5102.2	
807.35	5541.1	
807.53	4249.5	
807.7	3388.7	
807.87	6363.7	
808.05	5145.9	
808.22	4726.7	
808.4	3329.3	
808.57	5215.5	
808.74	4802.5	
808.92	3946.4	
809.09	5005.2	
809.27	5029.8	
809.44	5717.2	
809.61	3386	
809.79	3795.6	
809.96	6389	
810.14	5976.7	
810.31	3291.1	
810.48	4106.2	
810.66	5291.3	
810.83	6104.3	
811.01	3893.9	
811.18	4339	
811.35	5933	
811.53	4532.2	
811.7	4760.2	
811.87	4463.9	
812.05	5203.9	
812.22	5114.5	
812.39	3792.8	
812.57	3625.6	
812.74	5170.4	
812.92	6980.2	
813.09	4041.3	
813.26	4497.3	
813.44	6660.7	
813.61	5096	
813.78	3413.3	
813.96	4569.7	
814.13	5109	
814.3	4831.2	
814.48	4902.2	
814.65	4130.1	
814.82	6435.4	
815	4991.6	
815.17	4228.4	
815.34	5171.1	
815.52	5104.9	
815.69	5122.7	
815.87	4216.1	
816.04	4141	
816.21	5187.5	
816.38	4556.7	
816.56	4038.6	
816.73	3753.2	
816.9	6559.6	
817.08	6032.6	
817.25	3786.7	
817.42	4863.9	
817.6	4749.9	
817.77	5262.6	
817.94	4281.6	
818.12	3766.9	
818.29	4902.2	
818.46	7834.8	
818.64	3960.8	
818.81	3644	
818.98	4797	
819.16	7048.4	
819.33	4505.5	
819.5	4180.6	
819.67	5599.8	
819.85	6294.8	
820.02	4098	
820.19	4359.4	
820.37	5414.8	
820.54	4975.2	
820.71	4258.4	
820.88	5380	
821.06	5467.4	
821.23	4940.4	
821.4	4351.9	
821.58	4268.6	
821.75	5967.8	
821.92	5311.7	
822.09	3408.5	
822.27	3635.8	
822.44	5156.1	
822.61	5023.7	
822.79	3461.1	
822.96	6726.2	
823.13	5720	
823.3	4951.3	
823.48	3973.1	
823.65	3597.6	
823.82	5898.1	
823.99	4764.3	
824.17	5100.1	
824.34	3675.4	
824.51	6926.9	
824.68	5282.4	
824.86	3861.8	
825.03	4248.9	
825.2	5216.2	
825.37	6390.3	
825.55	3703.4	
825.72	4223.6	
825.89	6976.7	
826.06	6405.4	
826.24	4186.7	
826.41	4204.5	
826.58	6346	
826.75	5461.2	
826.92	3176.4	
827.1	3601	
827.27	8775.5	
827.44	6952.2	
827.61	3900	
827.79	4753.3	
827.96	4905.6	
828.13	5269.4	
828.3	4102.8	
828.47	3433.8	
828.65	5422.3	
828.82	5342.5	
828.99	5341.1	
829.16	4612.7	
829.34	5800.5	
829.51	5588.2	
829.68	4162.2	
829.85	4463.2	
830.02	6086.6	
830.2	5809.4	
830.37	3271.3	
830.54	5142.4	
830.71	6698.9	
830.88	5181.4	
831.05	3274.7	
831.23	3877.5	
831.4	6357.6	
831.57	7182.9	
831.74	3900	
831.91	3433.1	
832.09	5415.5	
832.26	5787.6	
832.43	4042	
832.6	4549.2	
832.77	5461.9	
832.94	6245.6	
833.12	3259.7	
833.29	3975.8	
833.46	5603.9	
833.63	7426.6	
833.8	4445.5	
833.97	4104.8	
834.15	5881.8	
834.32	5542.5	
834.49	4255.7	
834.66	4331.5	
834.83	6079.7	
835	4911	
835.17	3943.7	
835.35	3945.8	
835.52	5717.9	
835.69	5610.8	
835.86	4154	
836.03	3373	
836.2	5836	
836.37	5346.6	
836.55	4064.5	
836.72	3857	
836.89	5382.7	
837.06	5920	
837.23	4222.2	
837.4	4560.1	
837.57	6675	
837.75	7426.6	
837.92	3685	
838.09	4016.1	
838.26	5323.4	
838.43	6141.9	
838.6	4273.4	
838.77	3814	
838.94	7100.3	
839.11	6689.3	
839.29	4126	
839.46	3183.2	
839.63	5812.8	
839.8	5466.7	
839.97	3917.8	
840.14	3938.2	
840.31	5578	
840.48	5864.7	
840.65	3271.3	
840.82	3855	
841	5830.6	
841.17	5853.1	
841.34	3659.7	
841.51	3680.2	
841.68	5724.1	
841.85	5438.7	
842.02	3771	
842.19	3084.2	
842.36	5530.2	
842.53	5585.5	
842.7	3650.2	
842.87	4491.9	
843.05	7382.2	
843.22	5427.8	
843.39	3437.2	
843.56	3738.9	
843.73	5255.1	
843.9	5936.4	
844.07	5909.1	
844.24	4922.6	
844.41	8712.7	
844.58	5072.1	
844.75	3480.2	
844.92	3808.5	
845.09	5788.9	
845.26	5765.7	
845.43	3570.3	
845.6	3867.9	
845.77	5804.6	
845.94	5566.4	
846.12	3997	
846.29	4266.6	
846.46	6026.5	
846.63	5706.3	
846.8	3626.3	
846.97	4306.9	
847.14	6268.8	
847.31	5771.2	
847.48	4107.5	
847.65	4517.1	
847.82	6065.4	
847.99	6189.6	
848.16	4857.1	
848.33	4522.6	
848.5	5332.2	
848.67	6320.7	
848.84	3551.2	
849.01	3799.7	
849.18	5170.4	
849.35	4819.6	
849.52	4544.4	
849.69	3488.4	
849.86	6031.3	
850.03	6248.4	
850.2	3628.3	
850.37	4491.2	
850.54	6246.3	
850.71	5373.2	
850.88	4377.2	
851.05	3573.7	
851.22	5748	
851.39	6418.3	
851.56	3352.5	
851.73	4166.9	
851.9	5092.6	
852.07	6012.2	
852.24	4030.4	
852.41	3609.9	
852.58	5634.6	
852.75	5158.2	
852.92	4066.6	
853.09	3542.3	
853.26	5438.7	
853.43	6314.6	
853.6	3566.9	
853.77	3050.8	
853.94	6447.7	
854.11	5768.4	
854.28	5400.5	
854.44	3917.1	
854.61	6867.5	
854.78	6139.8	
854.95	3600.3	
855.12	4628.4	
855.29	4670.7	
855.46	6544.6	
855.63	3573.7	
855.8	5066	
855.97	5332.9	
856.14	6159.6	
856.31	5145.2	
856.48	3915.7	
856.65	5321.3	
856.82	5016.8	
856.99	3438.5	
857.16	3896.6	
857.33	7154.2	
857.49	5470.8	
857.66	3900	
857.83	4244.8	
858	5375.9	
858.17	5642.2	
858.34	3360.7	
858.51	3605.8	
858.68	6543.9	
858.85	6612.9	
859.02	4184.7	
859.19	4518.5	
859.36	5016.2	
859.52	5105.6	
859.69	3590.8	
859.86	4293.9	
860.03	5126.7	
860.2	6375.3	
860.37	3241.3	
860.54	3698.6	
860.71	6080.4	
860.88	6489.3	
861.05	4061.8	
861.21	4557.4	
861.38	6513.9	
861.55	4934.9	
861.72	3235.8	
861.89	4063.9	
862.06	6116.6	
862.23	6685.9	
862.4	3529.3	
862.56	3747.1	
862.73	5944.6	
862.9	5575.3	
863.07	4239.3	
863.24	3210.5	
863.41	4951.3	
863.58	5066	
863.75	3662.5	
863.91	4158.1	
864.08	6462	
864.25	5970.5	
864.42	4590.9	
864.59	5082.4	
864.76	6817.7	
864.93	5067.4	
865.09	3528	
865.26	3803.1	
865.43	6341.9	
865.6	6765.8	
865.77	3123.8	
865.94	3577.1	
866.1	6393.8	
866.27	6122.1	
866.44	5526.1	
866.61	3402.4	
866.78	5485.1	
866.95	5928.9	
867.11	3452.9	
867.28	3196.9	
867.45	6196.5	
867.62	5172.5	
867.79	4237.9	
867.96	3605.1	
868.12	5076.2	
868.29	6155.5	
868.46	3562.8	
868.63	4838	
868.8	6329.6	
868.97	6008.7	
869.13	3791.5	
869.3	3724.6	
869.47	5958.2	
869.64	6124.8	
869.81	3639.9	
869.97	3610.6	
870.14	5834.7	
870.31	6536.4	
870.48	3492.5	
870.65	4568.3	
870.81	5403.2	
870.98	5336.3	
871.15	4114.4	
871.32	3725.9	
871.48	5948.7	
871.65	6584.9	
871.82	3545	
871.99	3997	
872.16	7027.9	
872.32	6434	
872.49	3624.2	
872.66	3618.8	
872.83	6028.5	
872.99	5320.6	
873.16	4172.4	
873.33	3564.1	
873.5	5673.6	
873.67	5732.9	
873.83	3781.9	
874	4907.6	
874.17	5799.8	
874.34	6895.5	
874.5	4709	
874.67	4558.8	
874.84	6512.5	
875.01	5095.3	
875.17	5156.8	
875.34	3620.1	
875.51	5736.4	
875.68	6975.4	
875.84	4347.8	
876.01	5367	
876.18	6003.3	
876.34	5967.1	
876.51	3631	
876.68	3529.3	
876.85	5456.5	
877.01	6324.8	
877.18	5185.5	
877.35	3582.6	
877.52	5554.1	
877.68	5034.6	
877.85	3506.1	
878.02	3545	
878.18	5582.8	
878.35	5239.4	
878.52	2889	
878.69	4028.4	
878.85	6050.4	
879.02	6012.8	
879.19	5195	
879.35	3898	
879.52	5982.1	
879.69	6280.4	
879.86	3123.2	
880.02	4100.7	
880.19	5501.5	
880.36	6885.3	
880.52	4175.8	
880.69	4284.4	
880.86	6115.9	
881.02	6190.3	
881.19	3941.7	
881.36	3949.8	
881.52	6010.1	
881.69	5319.9	
881.86	3894.6	
882.02	3746.4	
882.19	6291.4	
882.36	7451.2	
882.52	3701.4	
882.69	5098.8	
882.86	5836.7	
883.02	5700.2	
883.19	4438.6	
883.36	4194.9	
883.52	6150.7	
883.69	7046.4	
883.86	3683.6	
884.02	3244.7	
884.19	6110.5	
884.36	5554.1	
884.52	4100	
884.69	3855	
884.86	5336.3	
885.02	6743.3	
885.19	4046.1	
885.36	4154	
885.52	5642.2	
885.69	5758.9	
885.86	5276.3	
886.02	4675.5	
886.19	6092	
886.35	5484.5	
886.52	3959.4	
886.69	5103.5	
886.85	5154.7	
887.02	6498.9	
887.19	6498.9	
887.35	6498.9	
887.52	6498.9	
887.68	6498.9	
887.85	6498.9	
888.02	6498.9	
888.18	6498.9	
888.35	6498.9	
888.51	6498.9	
888.68	6498.9	
888.85	6498.9	
889.01	6498.9	
889.18	6498.9	
889.35	6498.9	
889.51	6498.9	
889.68	6498.9	
889.84	6498.9	
890.01	6498.9	
890.17	6498.9	
890.34	6498.9	
890.51	6498.9	
890.67	6498.9	
890.84	6498.9	
891	6498.9	
891.17	6498.9	
891.34	6498.9	
891.5	6498.9	
891.67	6498.9	
891.83	6498.9	
892	6498.9	
892.16	6498.9	
892.33	6498.9	
892.5	6498.9	
892.66	6498.9	
892.83	6498.9	
892.99	6498.9	
893.16	6498.9	
893.32	6498.9	
893.49	6498.9	
893.65	6498.9	
893.82	6498.9	
893.99	6498.9	
894.15	6498.9	
894.32	6498.9	
894.48	6498.9	
894.65	6498.9	
894.81	6498.9	
894.98	6498.9	
895.14	6498.9	
895.31	6498.9	
895.47	6498.9	
895.64	6498.9	
895.81	6498.9	
895.97	6498.9	
896.14	6498.9	
896.3	6498.9	
896.47	6498.9	
896.63	6498.9	
896.8	6498.9	
896.96	6498.9	
897.13	6498.9	
897.29	6498.9	
897.46	6498.9	
897.62	6498.9	
897.79	6498.9	
897.95	6498.9	
898.12	6498.9	
898.28	6498.9	
898.45	6498.9	
898.61	6498.9	
898.78	6498.9	
898.94	6498.9	
899.11	6498.9	
899.27	6498.9	
899.44	6498.9	
899.6	6498.9	
899.77	6498.9	
899.93	6498.9	
900.1	6498.9	
900.26	6498.9	
900.43	6498.9	
900.59	6498.9	
900.76	6498.9	
900.92	6498.9	
901.09	6498.9	
901.25	6498.9	
901.42	6498.9	
901.58	6498.9	
901.75	6498.9	
901.91	6498.9	
902.07	6498.9	
902.24	6498.9	
902.4	6498.9	
902.57	6498.9	
902.73	6498.9	
902.9	6498.9	
903.06	6498.9	
903.23	6498.9	
903.39	6498.9	
903.56	6498.9	
903.72	6498.9	
903.88	6498.9	
904.05	6498.9	
904.21	6498.9	
904.38	6498.9	
904.54	6498.9	
904.71	6498.9	
904.87	6498.9	
905.03	6498.9	
905.2	6498.9	
905.36	6498.9	
905.53	6498.9	
905.69	6498.9	
905.86	6498.9	
906.02	6498.9	
906.18	6498.9	
906.35	6498.9	
906.51	6498.9	
906.68	6498.9	
906.84	6498.9	
907.01	6498.9	
907.17	6498.9	
907.33	6498.9	
907.5	6498.9	
907.66	6498.9	
907.83	6498.9	
907.99	6498.9	
908.15	6498.9	
908.32	6498.9	
908.48	6498.9	
908.65	6498.9	
908.81	6498.9	
908.97	6498.9	
909.14	6498.9	
909.3	6498.9	
909.47	6498.9	
909.63	6498.9	
909.79	6498.9	
909.96	6498.9	
910.12	6498.9	
910.28	6498.9	
910.45	6498.9	
910.61	6498.9	
910.78	6498.9	
910.94	6498.9	
911.1	6498.9	
911.27	6498.9	
911.43	6498.9	
911.59	6498.9	
911.76	6498.9	
911.92	6498.9	
912.08	6498.9	
912.25	6498.9	
912.41	6498.9	
912.57	6498.9	
912.74	6498.9	
912.9	6498.9	
913.07	6498.9	
913.23	6498.9	
913.39	6498.9	
913.56	6498.9	
913.72	6498.9	
913.88	6498.9	
914.05	6498.9	
914.21	6498.9	
914.37	6498.9	
914.54	6498.9	
914.7	6498.9	
914.86	6498.9	
915.03	6498.9	
915.19	6498.9	
