Wavelength	Intensities	
nm	a.u.	
179.22	1645.4	
179.44	1646.9	
179.65	1643.8	
179.86	1650	
180.08	1645.9	
180.29	3764.8	
180.51	2936.8	
180.72	4923.3	
180.94	5385.5	
181.15	2693.8	
181.37	2620	
181.58	4689.2	
181.79	4861.9	
182.01	2719	
182.22	2897.9	
182.44	4937.7	
182.65	4221.5	
182.87	3489.7	
183.08	3156.6	
183.29	5123.3	
183.51	4347.8	
183.72	2837.8	
183.94	3941	
184.15	4618.2	
184.37	4565.6	
184.58	2594.8	
184.79	3360	
185.01	4344.4	
185.22	4900.8	
185.44	3452.2	
185.65	3029.6	
185.86	4625	
186.08	4287.1	
186.29	2517.6	
186.51	2729.3	
186.72	4404.5	
186.94	5020.3	
187.15	3068.5	
187.36	3231.7	
187.58	6174.6	
187.79	4719.2	
188.01	3209.8	
188.22	4789.5	
188.43	5406	
188.65	4860.5	
188.86	2734.7	
189.08	3179.8	
189.29	4457.7	
189.5	4413.4	
189.72	2938.2	
189.93	3035.1	
190.15	5051.7	
190.36	5722	
190.57	3229	
190.79	3115	
191	5010	
191.22	4973.8	
191.43	3174.4	
191.64	2772.9	
191.86	5201.2	
192.07	4985.4	
192.29	2809.8	
192.5	2872.6	
192.71	5001.1	
192.93	4453	
193.14	2894.5	
193.35	2992.1	
193.57	4448.2	
193.78	5013.4	
194	2414.6	
194.21	2866.5	
194.42	4320.5	
194.64	4596.3	
194.85	3121.8	
195.07	3557.3	
195.28	4603.2	
195.49	4147.1	
195.71	3757.3	
195.92	2769.5	
196.13	4764.9	
196.35	4780.6	
196.56	3951.2	
196.78	3100.6	
196.99	5771.2	
197.2	5360.9	
197.42	3480.9	
197.63	3167.5	
197.84	4252.3	
198.06	4776.5	
198.27	2924.5	
198.48	3775.8	
198.7	4467.3	
198.91	4640	
199.13	3124.5	
199.34	3173.7	
199.55	4996.4	
199.77	4086.4	
199.98	2848	
200.19	3163.4	
200.41	4582	
200.62	4349.9	
200.83	3246	
201.05	3463.1	
201.26	4616.1	
201.47	4386.1	
201.69	2834.4	
201.9	2755.9	
202.11	4671.4	
202.33	5345.2	
202.54	3016.7	
202.76	3308.8	
202.97	4672.1	
203.18	4745.8	
203.4	3259	
203.61	3338.2	
203.82	4680.3	
204.04	4407.9	
204.25	3254.9	
204.46	3102.7	
204.68	4651.6	
204.89	4791.6	
205.1	3079.5	
205.32	2756.6	
205.53	4904.2	
205.74	5022.3	
205.96	2390	
206.17	3230.3	
206.38	4864.6	
206.6	4995	
206.81	3553.2	
207.02	3003.7	
207.24	4825	
207.45	5104.9	
207.66	2981.8	
207.88	2727.2	
208.09	4784.1	
208.3	4629.8	
208.52	2822.1	
208.73	3050.8	
208.94	4627.7	
209.15	5044.1	
209.37	2983.9	
209.58	3085.6	
209.79	4974.5	
210.01	4527.4	
210.22	2518.3	
210.43	2662.4	
210.65	4545.8	
210.86	4833.9	
211.07	2983.9	
211.29	2804.4	
211.5	4816.1	
211.71	4589.5	
211.93	2772.3	
212.14	2820.1	
212.35	4625	
212.56	4713.1	
212.78	3179.1	
212.99	2666.5	
213.2	5255.8	
213.42	4491.9	
213.63	2895.1	
213.84	3049.4	
214.06	4233.2	
214.27	4265.9	
214.48	3024.8	
214.69	3201.7	
214.91	5114.5	
215.12	5139.7	
215.33	3194.8	
215.55	3444.7	
215.76	5497.4	
215.97	4863.2	
216.18	3156.6	
216.4	3072.6	
216.61	4401.1	
216.82	4939.7	
217.04	2861.7	
217.25	2916.3	
217.46	4992.9	
217.67	4871.4	
217.89	2627.5	
218.1	2675.3	
218.31	4650.3	
218.53	4737	
218.74	2973	
218.95	2885.6	
219.16	4635.2	
219.38	5230.5	
219.59	2884.2	
219.8	3347.1	
220.01	5623	
220.23	4632.5	
220.44	3600.3	
220.65	2797.5	
220.87	4656.4	
221.08	5080.3	
221.29	2702.6	
221.5	3387.3	
221.72	5896.1	
221.93	4393.6	
222.14	3211.9	
222.35	3664.5	
222.57	4620.9	
222.78	4908.3	
222.99	3062.4	
223.2	3224.9	
223.42	4815.5	
223.63	4916.5	
223.84	2448.7	
224.05	2421.4	
224.27	5594.4	
224.48	5210.7	
224.69	3732.8	
224.9	3165.5	
225.12	4761.5	
225.33	4611.3	
225.54	2566.8	
225.75	2880.8	
225.97	4315.1	
226.18	4543.8	
226.39	3054.9	
226.6	2899.2	
226.82	4504.8	
227.03	4317.1	
227.24	3151.1	
227.45	2714.2	
227.67	4973.8	
227.88	5218.2	
228.09	3528	
228.3	3448.1	
228.52	4894	
228.73	4563.6	
228.94	2964.8	
229.15	2717	
229.36	4601.8	
229.58	4526	
229.79	3010.5	
230	3405.8	
230.21	5403.2	
230.43	4659.1	
230.64	3135.4	
230.85	3218.7	
231.06	4960.9	
231.28	4895.3	
231.49	2659.6	
231.7	3132	
231.91	4859.1	
232.12	4601.8	
232.34	2778.4	
232.55	3077.4	
232.76	5025	
232.97	4739	
233.18	2866.5	
233.4	3124.5	
233.61	4768.4	
233.82	4517.8	
234.03	2959.3	
234.25	2951.1	
234.46	6042.2	
234.67	4627.7	
234.88	3214.6	
235.09	2896.5	
235.31	4731.5	
235.52	4521.9	
235.73	3147	
235.94	2689	
236.15	4384	
236.37	5431.2	
236.58	2820.7	
236.79	2971.6	
237	4840.7	
237.21	4296.6	
237.43	3310.9	
237.64	2614.6	
237.85	7384.3	
238.06	4345.1	
238.27	3228.3	
238.48	2749.7	
238.7	4915.1	
238.91	4582	
239.12	3006.4	
239.33	3110.9	
239.54	4393.6	
239.76	4549.9	
239.97	2991.4	
240.18	3011.9	
240.39	5451	
240.6	4751.3	
240.82	3207.1	
241.03	2687.6	
241.24	4582.7	
241.45	5212.8	
241.66	2809.8	
241.87	3269.2	
242.09	5145.9	
242.3	5326.1	
242.51	3272.7	
242.72	3001	
242.93	4919.9	
243.14	4577.2	
243.36	3482.2	
243.57	3741.6	
243.78	5216.9	
243.99	4855.1	
244.2	3049.4	
244.41	2803	
244.63	4311.7	
244.84	4777.2	
245.05	3210.5	
245.26	2992.1	
245.47	4891.9	
245.68	4928.1	
245.9	3887.7	
246.11	3236.5	
246.32	4444.1	
246.53	4790.2	
246.74	4721.9	
246.95	2654.2	
247.16	4344.4	
247.38	4599.1	
247.59	2637.8	
247.8	3065.8	
248.01	4309.6	
248.22	4582	
248.43	2820.1	
248.64	2989.4	
248.86	4259.1	
249.07	4465.9	
249.28	2775	
249.49	3157.3	
249.7	5010	
249.91	5066	
250.12	2615.9	
250.34	2637.8	
250.55	4690.5	
250.76	4652.3	
250.97	3104	
251.18	3120.4	
251.39	5064.6	
251.6	4748.6	
251.81	3166.2	
252.03	3167.5	
252.24	4463.2	
252.45	4900.8	
252.66	2671.2	
252.87	3295.9	
253.08	4593.6	
253.29	5718.6	
253.5	2746.3	
253.72	3599.6	
253.93	4519.9	
254.14	5254.4	
254.35	2918.4	
254.56	2939.5	
254.77	4811.4	
254.98	4385.4	
255.19	2938.2	
255.41	3610.6	
255.62	4743.1	
255.83	5025.7	
256.04	3264.5	
256.25	3141.6	
256.46	5439.4	
256.67	4429.1	
256.88	3145.7	
257.09	3401.7	
257.31	4332.1	
257.52	4369.7	
257.73	3831.1	
257.94	2934.1	
258.15	4560.8	
258.36	4625.7	
258.57	3561.4	
258.78	2391.3	
258.99	4962.9	
259.2	4504.2	
259.41	2926.5	
259.63	3026.2	
259.84	5175.2	
260.05	5474.9	
260.26	3682.2	
260.47	2908.1	
260.68	5042.1	
260.89	4545.8	
261.1	3473.4	
261.31	2808.4	
261.52	5085.8	
261.73	5320.6	
261.95	3704.1	
262.16	3250.1	
262.37	5038.7	
262.58	5184.1	
262.79	3657	
263	2973	
263.21	4665.3	
263.42	4197.7	
263.63	3187.3	
263.84	2980.5	
264.05	5047.6	
264.26	5233.2	
264.47	3536.2	
264.69	3213.9	
264.9	5209.3	
265.11	4713.7	
265.32	2844.6	
265.53	2905.4	
265.74	4761.5	
265.95	4211.3	
266.16	3089	
266.37	3304.7	
266.58	4751.3	
266.79	4444.8	
267	2925.2	
267.21	2724.5	
267.42	4263.2	
267.63	4643.4	
267.84	2998.2	
268.06	2635.7	
268.27	4973.2	
268.48	5048.2	
268.69	2988.7	
268.9	3448.1	
269.11	5099.4	
269.32	4173.8	
269.53	3022.1	
269.74	2855.6	
269.95	4790.2	
270.16	4196.3	
270.37	3003.7	
270.58	3507.5	
270.79	4541	
271	4988.2	
271.21	3244	
271.42	3110.2	
271.63	4806.6	
271.84	4312.3	
272.05	2519.7	
272.26	2763.4	
272.47	4605.9	
272.68	4726.7	
272.89	2960	
273.11	3250.1	
273.32	4449.6	
273.53	5289.2	
273.74	3245.3	
273.95	3151.1	
274.16	4988.2	
274.37	4559.5	
274.58	3317.7	
274.79	2747	
275	4756.7	
275.21	5029.8	
275.42	3892.5	
275.63	3325.2	
275.84	4823.6	
276.05	5810.8	
276.26	3203	
276.47	3031.7	
276.68	4574.5	
276.89	5353.4	
277.1	3365.5	
277.31	2681.5	
277.52	4786.1	
277.73	5097.4	
277.94	2675.3	
278.15	2923.1	
278.36	4774.5	
278.57	4389.5	
278.78	2956.6	
278.99	3259	
279.2	4406.5	
279.41	4365.6	
279.62	3705.5	
279.83	2783.9	
280.04	5487.9	
280.25	4311.7	
280.46	3699.3	
280.67	3032.4	
280.88	4358.1	
281.09	5074.2	
281.3	3211.9	
281.51	3904.1	
281.72	4438.6	
281.93	4966.3	
282.14	2886.3	
282.35	3113.6	
282.56	5005.9	
282.77	4958.1	
282.98	2934.7	
283.19	3565.5	
283.4	5816.9	
283.61	4532.2	
283.82	2807.8	
284.03	3689.8	
284.24	4778.6	
284.45	4959.5	
284.66	3659.7	
284.87	3504.8	
285.08	5005.9	
285.29	5169.8	
285.5	2736.1	
285.71	2966.8	
285.92	5066.7	
286.12	5470.1	
286.33	3656.3	
286.54	3036.5	
286.75	4953.4	
286.96	4539	
287.17	2818	
287.38	3536.8	
287.59	4448.2	
287.8	4435.9	
288.01	2978.4	
288.22	3298.6	
288.43	4914.4	
288.64	4214	
288.85	3505.4	
289.06	3349.1	
289.27	4941.7	
289.48	5277.6	
289.69	3661.1	
289.9	3380.5	
290.11	5154.1	
290.32	4498.7	
290.53	3559.4	
290.74	3209.2	
290.94	4931.5	
291.15	4956.1	
291.36	2934.1	
291.57	3377.1	
291.78	4540.3	
291.99	4171	
292.2	2825.5	
292.41	3277.4	
292.62	5033.2	
292.83	4859.8	
293.04	3889.8	
293.25	2865.8	
293.46	4530.8	
293.67	5011.4	
293.88	2851.5	
294.09	2819.4	
294.29	4289.8	
294.5	4771.1	
294.71	3079.5	
294.92	2961.4	
295.13	4521.2	
295.34	5350.7	
295.55	2641.2	
295.76	2602.3	
295.97	4897.4	
296.18	5393.7	
296.39	2755.2	
296.6	2882.2	
296.81	4676.9	
297.01	4960.9	
297.22	2988.7	
297.43	2910.8	
297.64	4498.7	
297.85	4313	
298.06	2479.4	
298.27	2658.3	
298.48	4597	
298.69	4418.2	
298.9	3146.4	
299.11	2848.7	
299.31	4300.7	
299.52	4357.4	
299.73	3341.6	
299.94	3184.6	
300.15	4700.8	
300.36	4378.6	
300.57	3251.5	
300.78	3193.5	
300.99	4483.7	
301.2	4686.4	
301.4	2924.5	
301.61	3083.6	
301.82	4849.6	
302.03	4986.1	
302.24	3408.5	
302.45	2762.7	
302.66	4813.4	
302.87	5001.8	
303.08	2884.9	
303.29	3753.2	
303.49	4521.9	
303.7	4599.7	
303.91	2682.8	
304.12	3606.5	
304.33	4275.5	
304.54	4752	
304.75	2902.7	
304.96	2745	
305.16	4855.7	
305.37	5311.1	
305.58	2592.7	
305.79	2693.8	
306	4893.3	
306.21	4178.5	
306.42	2899.2	
306.63	4218.1	
306.83	4490.5	
307.04	4938.3	
307.25	3154.6	
307.46	3104	
307.67	4126	
307.88	4881	
308.09	2903.3	
308.29	2959.3	
308.5	4663.9	
308.71	5008	
308.92	3061.7	
309.13	2801.6	
309.34	4607.9	
309.55	4538.3	
309.75	3530	
309.96	3229.6	
310.17	4950.6	
310.38	4384.7	
310.59	3315.7	
310.8	2800.3	
311.01	4510.3	
311.21	4583.4	
311.42	2766.1	
311.63	2871.3	
311.84	4491.9	
312.05	4715.1	
312.26	3230.3	
312.46	3458.3	
312.67	4547.9	
312.88	4274.8	
313.09	2771.6	
313.3	2715.6	
313.51	5158.2	
313.71	5425.1	
313.92	2833.7	
314.13	2931.3	
314.34	4794.3	
314.55	4629.8	
314.76	3476.1	
314.96	3031.7	
315.17	4785.4	
315.38	4889.2	
315.59	2816.6	
315.8	2709.5	
316.01	5124	
316.21	5270.8	
316.42	2746.3	
316.63	3089	
316.84	4547.9	
317.05	5049.6	
317.26	3280.2	
317.46	2978.4	
317.67	4601.8	
317.88	4879.6	
318.09	3463.1	
318.3	2656.2	
318.5	4476.2	
318.71	4775.9	
318.92	4237.2	
319.13	3236.5	
319.34	4945.8	
319.54	5042.1	
319.75	2659.6	
319.96	2577.7	
320.17	4833.9	
320.38	5003.2	
320.58	2579.8	
320.79	3033.7	
321	5023	
321.21	5146.5	
321.42	3094.5	
321.62	2619.4	
321.83	4417.5	
322.04	4687.1	
322.25	3031.7	
322.46	2824.8	
322.66	4716.5	
322.87	4882.4	
323.08	3363.4	
323.29	2751.8	
323.5	5353.4	
323.7	4336.2	
323.91	3599.6	
324.12	3330.7	
324.33	4773.8	
324.53	4900.8	
324.74	3220.1	
324.95	3359.4	
325.16	4285.7	
325.37	4526	
325.57	2814.6	
325.78	2826.2	
325.99	4817.5	
326.2	4305.5	
326.4	3837.2	
326.61	2653.5	
326.82	4605.2	
327.03	4687.8	
327.24	3825.6	
327.44	3629	
327.65	4823	
327.86	4057	
328.07	3226.9	
328.27	2745.6	
328.48	5177.3	
328.69	4307.6	
328.9	3819.5	
329.1	2978.4	
329.31	4610.7	
329.52	5117.2	
329.73	2843.3	
329.93	3110.2	
330.14	4677.6	
330.35	4771.1	
330.56	4333.5	
330.76	3328.6	
330.97	4468	
331.18	4684.4	
331.39	3119.7	
331.59	2561.3	
331.8	5027.8	
332.01	5103.5	
332.22	2917	
332.42	3192.8	
332.63	4700.1	
332.84	4364.2	
333.05	3121.8	
333.25	2889.7	
333.46	4422.9	
333.67	4641.4	
333.88	2936.8	
334.08	3206.4	
334.29	5861.3	
334.5	5013.4	
334.7	2761.3	
334.91	3851.5	
335.12	4303.5	
335.33	4872.8	
335.53	3096.5	
335.74	4341	
335.95	4577.9	
336.16	4266.6	
336.36	3076	
336.57	3471.3	
336.78	4271.4	
336.98	5054.4	
337.19	3700.7	
337.4	3016.7	
337.61	5429.2	
337.81	4327.4	
338.02	2861	
338.23	3543	
338.43	5222.3	
338.64	4420.9	
338.85	2866.5	
339.05	3587.4	
339.26	5243.5	
339.47	4202.4	
339.68	2839.8	
339.88	3941.7	
340.09	4866	
340.3	4958.8	
340.5	3219.4	
340.71	2613.9	
340.92	4326.7	
341.13	5081	
341.33	2691	
341.54	3295.9	
341.75	4875.5	
341.95	4478.9	
342.16	3135.4	
342.37	3440.6	
342.57	4302.8	
342.78	4560.8	
342.99	3355.3	
343.19	2597.5	
343.4	4915.8	
343.61	4862.6	
343.81	3016	
344.02	2755.9	
344.23	4898.7	
344.43	5145.9	
344.64	3408.5	
344.85	3336.1	
345.06	4842.8	
345.26	5041.4	
345.47	3237.2	
345.68	3666.5	
345.88	4216.8	
346.09	4939	
346.3	3260.4	
346.5	2528.6	
346.71	4566.3	
346.92	4425	
347.12	2749.7	
347.33	3151.8	
347.54	5029.1	
347.74	5201.8	
347.95	3153.2	
348.16	2536.8	
348.36	4485.7	
348.57	4317.8	
348.78	3278.1	
348.98	3373.7	
349.19	4618.9	
349.39	4204.5	
349.6	2710.8	
349.81	2953.9	
350.01	4853	
350.22	4446.1	
350.43	3176.4	
350.63	3642	
350.84	4590.9	
351.05	4473.4	
351.25	2880.1	
351.46	2697.9	
351.67	5040.7	
351.87	4416.8	
352.08	3084.9	
352.29	3383.2	
352.49	4904.9	
352.7	4773.1	
352.9	2766.8	
353.11	3391.4	
353.32	5457.2	
353.52	4526.7	
353.73	2869.2	
353.94	3495.2	
354.14	4900.8	
354.35	4669.4	
354.55	2937.5	
354.76	3175	
354.97	4857.1	
355.17	4584	
355.38	2808.4	
355.59	3605.8	
355.79	4460.5	
356	4627.7	
356.2	3178.4	
356.41	2822.8	
356.62	4367	
356.82	4618.9	
357.03	3389.4	
357.24	3069.9	
357.44	4472.1	
357.65	4551.3	
357.85	3868.6	
358.06	3171.6	
358.27	4278.2	
358.47	4371	
358.68	2837.8	
358.88	3362.8	
359.09	4853.7	
359.3	5084.4	
359.5	3820.8	
359.71	3426.9	
359.91	5335.6	
360.12	4929.5	
360.33	3419.4	
360.53	3706.8	
360.74	4599.7	
360.94	4564.2	
361.15	3514.3	
361.36	3028.3	
361.56	5055.8	
361.77	4771.1	
361.97	3788.1	
362.18	3151.8	
362.38	5091.3	
362.59	4486.4	
362.8	3012.6	
363	2914.9	
363.21	4367	
363.41	4760.2	
363.62	3333.4	
363.83	4003.8	
364.03	4939.7	
364.24	5384.8	
364.44	4094.6	
364.65	4074.8	
364.85	4690.5	
365.06	4631.8	
365.27	3099.3	
365.47	3246	
365.68	5381.4	
365.88	4745.1	
366.09	3426.3	
366.29	3169.6	
366.5	4833.9	
366.71	5093.3	
366.91	3974.4	
367.12	3564.8	
367.32	5541.8	
367.53	5034.6	
367.73	3523.9	
367.94	4126.7	
368.14	5110.4	
368.35	5496.1	
368.56	3468.6	
368.76	3073.3	
368.97	5198.4	
369.17	6156.9	
369.38	3168.2	
369.58	3392.1	
369.79	4431.8	
369.99	5371.8	
370.2	4027	
370.4	3392.1	
370.61	4908.3	
370.82	5711.8	
371.02	3405.1	
371.23	2950.4	
371.43	4502.8	
371.64	5399.8	
371.84	3422.2	
372.05	4100	
372.25	6124.8	
372.46	5029.8	
372.66	3361.4	
372.87	3386	
373.07	5168.4	
373.28	6281.8	
373.48	4016.7	
373.69	3856.3	
373.9	4860.5	
374.1	4846.9	
374.31	4037.2	
374.51	3629.7	
374.72	5337	
374.92	4731.5	
375.13	4136.2	
375.33	3644	
375.54	5055.1	
375.74	4863.2	
375.95	3690.4	
376.15	4478.2	
376.36	5246.2	
376.56	5089.9	
376.77	3790.8	
376.97	4013.3	
377.18	5961.6	
377.38	5264.6	
377.59	4220.9	
377.79	3497.9	
378	5155.4	
378.2	5443.5	
378.41	3597.6	
378.61	3407.1	
378.82	5482.4	
379.02	4981.3	
379.23	3637.9	
379.43	4264.6	
379.64	5582.1	
379.84	5286.5	
380.05	3497.2	
380.25	3517.7	
380.46	5377.3	
380.66	5088.5	
380.87	4289.8	
381.07	4580.6	
381.28	5713.2	
381.48	5316.5	
381.69	3530	
381.89	3564.1	
382.1	4674.1	
382.3	5350	
382.51	4215.4	
382.71	4792.2	
382.91	5208.7	
383.12	5605.3	
383.32	3764.8	
383.53	3781.9	
383.73	5224.4	
383.94	5115.1	
384.14	3869.3	
384.35	3321.8	
384.55	4986.8	
384.76	5244.2	
384.96	3756	
385.17	3848.8	
385.37	5288.5	
385.58	4751.3	
385.78	3865.2	
385.98	3158.7	
386.19	4868	
386.39	5225.7	
386.6	3586	
386.8	3723.9	
387.01	5246.2	
387.21	5346.6	
387.42	4000.4	
387.62	4412	
387.83	4926	
388.03	5110.4	
388.23	3788.1	
388.44	4327.4	
388.64	4764.9	
388.85	4822.3	
389.05	3977.2	
389.26	4386.1	
389.46	6190.3	
389.67	5706.3	
389.87	4037.9	
390.07	4091.8	
390.28	5053.7	
390.48	4857.8	
390.69	3502.7	
390.89	3755.3	
391.1	5032.5	
391.3	5534.3	
391.5	4499.4	
391.71	4878.3	
391.91	5509	
392.12	5922.7	
392.32	4549.2	
392.53	3987.4	
392.73	5068.7	
392.93	5226.4	
393.14	3889.1	
393.34	4345.1	
393.55	5399.8	
393.75	5141.1	
393.95	3788.7	
394.16	3735.5	
394.36	5010	
394.57	5414.1	
394.77	3478.8	
394.98	3668.6	
395.18	4955.4	
395.38	5057.8	
395.59	4358.1	
395.79	3673.4	
396	5126.7	
396.2	5399.8	
396.4	4259.8	
396.61	4253.6	
396.81	5535.7	
397.02	5023.7	
397.22	4434.5	
397.42	4429.1	
397.63	5588.2	
397.83	5069.4	
398.04	3783.3	
398.24	4066.6	
398.44	5452.4	
398.65	4779.3	
398.85	3689.8	
399.05	3700	
399.26	5126.1	
399.46	6151.4	
399.67	3939.6	
399.87	3792.8	
400.07	5373.9	
400.28	5524.1	
400.48	3835.8	
400.69	4544.4	
400.89	5672.2	
401.09	6019	
401.3	3880.2	
401.5	4554.7	
401.7	6128.9	
401.91	6270.2	
402.11	4082.3	
402.32	4208.6	
402.52	5810.8	
402.72	5674.2	
402.93	4328.7	
403.13	3568.9	
403.33	6171.9	
403.54	5244.2	
403.74	4043.4	
403.94	4558.1	
404.15	5295.4	
404.35	6083.8	
404.56	3868.6	
404.76	5083.7	
404.96	5625.1	
405.17	5474.9	
405.37	4716.5	
405.57	4242	
405.78	5658.5	
405.98	5260.5	
406.18	4057	
406.39	4535.6	
406.59	5685.2	
406.79	5319.3	
407	3786.7	
407.2	3846.1	
407.4	5812.1	
407.61	5829.2	
407.81	3846.1	
408.01	5120.6	
408.22	4960.9	
408.42	6266.1	
408.62	4679.6	
408.83	4439.3	
409.03	5551.4	
409.23	5460.6	
409.44	4396.3	
409.64	4662.5	
409.84	6204.7	
410.05	6171.2	
410.25	4687.8	
410.45	4455.7	
410.66	5915.2	
410.86	7546.8	
411.06	4818.2	
411.27	4661.2	
411.47	7397.9	
411.67	6072.9	
411.88	4872.1	
412.08	5090.6	
412.28	6419.7	
412.49	6841.6	
412.69	4802.5	
412.89	4838.7	
413.09	6702.3	
413.3	6572.6	
413.5	4891.2	
413.7	4681.7	
413.91	6172.6	
414.11	6700.3	
414.31	4837.3	
414.52	5054.4	
414.72	6556.9	
414.92	6460	
415.12	4757.4	
415.33	5199.8	
415.53	6749.4	
415.73	6877.1	
415.94	5380.7	
416.14	4938.3	
416.34	6181.5	
416.55	5973.2	
416.75	5797.8	
416.95	5380	
417.15	6802.7	
417.36	7139.9	
417.56	6003.3	
417.76	5226.4	
417.97	6948.8	
418.17	6841.6	
418.37	5117.2	
418.57	5152.7	
418.78	6757.6	
418.98	6485.2	
419.18	5751.4	
419.38	5607.3	
419.59	6448.4	
419.79	6149.4	
419.99	4981.3	
420.2	5147.2	
420.4	6770.6	
420.6	6832	
420.8	4945.8	
421.01	4852.3	
421.21	6749.4	
421.41	6745.3	
421.61	5132.2	
421.82	5051	
422.02	6475	
422.22	7027.3	
422.42	5452.4	
422.63	5205.3	
422.83	6392.4	
423.03	7234.1	
423.23	5291.3	
423.44	4634.6	
423.64	6454.5	
423.84	6156.2	
424.04	4923.3	
424.25	4601.8	
424.45	7012.9	
424.65	6999.3	
424.85	4505.5	
425.06	4846.9	
425.26	7116	
425.46	6348	
425.66	5200.5	
425.87	4986.8	
426.07	6759.7	
426.27	6722.8	
426.47	5035.3	
426.67	4638.6	
426.88	7057.3	
427.08	6671.6	
427.28	5307	
427.48	4666.6	
427.69	6029.2	
427.89	6355.5	
428.09	5188.2	
428.29	4567.7	
428.5	6795.8	
428.7	6526.9	
428.9	4616.8	
429.1	4915.8	
429.3	6556.2	
429.51	6642.2	
429.71	4844.1	
429.91	5275.6	
430.11	6774	
430.31	6892.8	
430.52	4999.8	
430.72	5205.9	
430.92	7092.1	
431.12	6794.5	
431.32	4767.7	
431.53	5163.6	
431.73	6086.6	
431.93	7107.8	
432.13	4728.8	
432.33	4678.2	
432.54	6352.1	
432.74	6484.6	
432.94	4681.7	
433.14	5320.6	
433.34	6816.3	
433.55	6494.1	
433.75	5406	
433.95	6461.3	
434.15	6663.4	
434.35	6423.8	
434.56	4842.8	
434.76	4558.1	
434.96	6546	
435.16	6806.8	
435.36	4743.8	
435.56	5590.3	
435.77	6450.4	
435.97	6500.9	
436.17	6027.9	
436.37	5471.5	
436.57	6379.4	
436.78	6386.9	
436.98	5758.9	
437.18	5894.7	
437.38	6772.6	
437.58	6490	
437.78	5954.8	
437.99	5041.4	
438.19	6858	
438.39	7387	
438.59	4913.1	
438.79	4619.5	
438.99	7344.7	
439.2	6431.3	
439.4	4595	
439.6	4683	
439.8	6573.3	
440	7366.5	
440.2	5418.2	
440.4	5551.4	
440.61	7111.9	
440.81	7342.7	
441.01	5033.2	
441.21	5574.6	
441.41	7350.8	
441.61	6984.3	
441.81	5822.4	
442.02	6402	
442.22	7648.5	
442.42	7141.9	
442.62	5011.4	
442.82	5072.1	
443.02	7413	
443.22	6780.1	
443.43	5365	
443.63	5031.9	
443.83	6673	
444.03	6644.3	
444.23	5864	
444.43	5610.1	
444.63	6904.4	
444.83	7622.5	
445.04	5199.1	
445.24	5998.5	
445.44	7152.2	
445.64	7217.7	
445.84	5586.2	
446.04	5708.4	
446.24	6685.3	
446.44	7279.8	
446.65	5050.3	
446.85	5329.5	
447.05	6760.3	
447.25	7266.9	
447.45	5326.8	
447.65	4902.2	
447.85	6832.7	
448.05	6554.9	
448.25	5667.4	
448.46	5507	
448.66	6838.2	
448.86	6599.2	
449.06	4852.3	
449.26	5634	
449.46	7051.8	
449.66	6537.8	
449.86	5318.6	
450.06	5351.3	
450.26	6660.7	
450.47	7010.9	
450.67	5406	
450.87	5764.3	
451.07	7222.5	
451.27	6862.1	
451.47	5073.5	
451.67	5715.2	
451.87	6662	
452.07	7444.4	
452.27	5239.4	
452.47	5119.2	
452.67	6997.9	
452.88	7126.2	
453.08	4770.4	
453.28	6121.4	
453.48	7746.8	
453.68	6838.9	
453.88	5216.9	
454.08	5240.1	
454.28	7200.7	
454.48	6929	
454.68	5668.8	
454.88	5956.9	
455.08	7250.5	
455.28	7043.6	
455.48	5046.2	
455.68	5594.4	
455.89	7646.4	
456.09	7320.1	
456.29	5253.7	
456.49	5441.5	
456.69	7479.2	
456.89	6987	
457.09	5765.7	
457.29	6003.3	
457.49	7283.9	
457.69	7260	
457.89	5683.1	
458.09	5274.9	
458.29	7159	
458.49	7666.2	
458.69	6038.8	
458.89	5610.1	
459.09	7840.3	
459.29	7871	
459.49	5646.9	
459.69	6154.1	
459.9	7447.8	
460.1	7217	
460.3	5532.9	
460.5	5340.4	
460.7	7500.3	
460.9	7178.8	
461.1	5195	
461.3	6045.6	
461.5	7946.1	
461.7	7708.6	
461.9	5618.9	
462.1	5836.7	
462.3	7481.9	
462.5	7814.4	
462.7	5657.9	
462.9	5771.2	
463.1	8461.5	
463.3	8271.7	
463.5	5834.7	
463.7	6584.9	
463.9	7622.5	
464.1	7843.7	
464.3	6140.5	
464.5	6166.4	
464.7	8039	
464.9	7809.6	
465.1	7129	
465.3	6350.8	
465.5	8228.7	
465.7	8318.8	
465.9	6651.8	
466.1	6317.3	
466.3	8091.5	
466.5	8057.4	
466.7	7080.5	
466.9	6275.7	
467.1	8084	
467.3	8648.6	
467.5	7078.5	
467.7	6294.1	
467.9	8890.2	
468.1	9458.9	
468.3	6851.8	
468.5	7098.3	
468.7	8026.7	
468.9	8021.9	
469.1	6594.5	
469.3	7019.1	
469.5	9383.1	
469.7	7821.2	
469.9	6858.6	
470.1	6314.6	
470.3	8181	
470.5	8091.5	
470.7	7271	
470.9	6384.2	
471.1	7848.5	
471.3	8150.2	
471.5	6339.1	
471.69	7561.8	
471.89	7810.3	
472.09	7453.2	
472.29	6881.2	
472.49	6952.9	
472.69	7645.1	
472.89	8157.1	
473.09	6272.2	
473.29	6208.1	
473.49	7798.7	
473.69	7752.9	
473.89	6860	
474.09	6326.9	
474.29	8669.1	
474.49	8329.1	
474.69	6819.1	
474.89	6375.3	
475.09	7815	
475.29	7765.9	
475.49	6070.9	
475.69	6214.9	
475.88	8814.5	
476.08	8075.8	
476.28	5995.1	
476.48	6132.3	
476.68	8340.7	
476.88	8034.9	
477.08	6182.8	
477.28	6354.8	
477.48	7818.5	
477.68	8231.5	
477.88	5973.2	
478.08	6280.4	
478.28	8450.6	
478.48	7869.7	
478.67	6294.1	
478.87	5859.9	
479.07	8346.2	
479.27	7971.4	
479.47	6397.9	
479.67	6380.8	
479.87	8151.6	
480.07	8516.8	
480.27	5958.2	
480.47	6937.2	
480.67	7889.5	
480.87	8434.9	
481.06	6124.8	
481.26	6682.5	
481.46	7991.9	
481.66	7851.9	
481.86	6382.8	
482.06	7111.9	
482.26	7694.2	
482.46	8269.7	
482.66	6287.3	
482.86	5968.5	
483.05	7970.7	
483.25	7493.5	
483.45	8013	
483.65	6337.8	
483.85	7613	
484.05	7877.2	
484.25	6711.2	
484.45	7012.9	
484.65	8395.3	
484.84	8430.8	
485.04	6393.8	
485.24	6348	
485.44	8785.1	
485.64	7476.5	
485.84	5926.8	
486.04	6855.9	
486.24	7843	
486.44	8085.4	
486.63	5860.6	
486.83	6570.6	
487.03	7845.8	
487.23	7912	
487.43	5980.1	
487.63	7593.2	
487.83	8048.5	
488.02	8533.2	
488.22	6664.8	
488.42	7060.7	
488.62	8682.7	
488.82	7814.4	
489.02	6445	
489.22	6478.4	
489.41	8424.7	
489.61	8348.2	
489.81	6219	
490.01	6307.7	
490.21	8409.6	
490.41	8945.5	
490.61	6264.1	
490.8	6361.7	
491	8142	
491.2	7614.3	
491.4	6696.2	
491.6	6171.9	
491.8	8040.3	
491.99	8061.5	
492.19	6011.5	
492.39	6239.5	
492.59	8372.8	
492.79	8497	
492.99	6832	
493.18	6248.4	
493.38	8528.4	
493.58	9143.5	
493.78	6825.9	
493.98	6482.5	
494.18	8391.9	
494.37	8031.5	
494.57	6978.8	
494.77	6836.1	
494.97	8617.2	
495.17	8784.4	
495.37	6701	
495.56	6916.7	
495.76	8914.8	
495.96	8766	
496.16	7581.6	
496.36	6877.1	
496.55	8904.6	
496.75	8524.3	
496.95	7141.3	
497.15	7008.1	
497.35	8854.7	
497.54	8871.1	
497.74	6905.8	
497.94	8099.7	
498.14	9370.1	
498.34	9185.1	
498.53	6761	
498.73	7265.5	
498.93	8417.8	
499.13	8864.3	
499.33	7075.7	
499.52	7460.8	
499.72	8929.8	
499.92	9007.6	
500.12	7006.1	
500.32	7089.4	
500.51	9054.1	
500.71	8922.3	
500.91	7718.8	
501.11	7518.8	
501.31	8960.5	
501.5	9282.8	
501.7	7955.7	
501.9	7166.5	
502.1	8837.7	
502.29	9093	
502.49	7407.5	
502.69	7750.2	
502.89	8998.1	
503.09	8991.3	
503.28	6782.9	
503.48	6754.2	
503.68	8503.8	
503.88	8484.7	
504.07	7449.1	
504.27	7071	
504.47	8656.1	
504.67	8740	
504.86	7400	
505.06	7172	
505.26	8462.9	
505.46	9542.2	
505.65	7043	
505.85	7140.6	
506.05	8419.9	
506.25	8718.2	
506.44	6589.7	
506.64	7187	
506.84	8172.8	
507.04	8779	
507.23	6709.1	
507.43	7062.1	
507.63	9491.7	
507.83	8346.8	
508.02	7079.1	
508.22	6772.6	
508.42	9697.8	
508.62	8163.2	
508.81	6866.2	
509.01	7282.6	
509.21	8088.8	
509.4	8333.2	
509.6	7008.8	
509.8	6588.3	
510	8303.8	
510.19	9230.2	
510.39	6693.4	
510.59	6722.8	
510.79	8246.5	
510.98	9078	
511.18	6783.6	
511.38	6850.5	
511.57	8810.4	
511.77	8474.5	
511.97	7171.3	
512.17	6580.8	
512.36	8810.4	
512.56	8581	
512.76	6572.6	
512.95	6363	
513.15	8981	
513.35	7856	
513.55	7242.3	
513.74	6621.1	
513.94	8863.6	
514.14	8385.1	
514.33	7256	
514.53	7094.2	
514.73	8383	
514.92	8378.9	
515.12	6783.6	
515.32	6599.9	
515.51	8478.6	
515.71	8714.1	
515.91	7942.7	
516.11	6665.5	
516.3	9736.7	
516.5	8370	
516.7	7068.9	
516.89	7484.6	
517.09	8357.1	
517.29	8289.5	
517.48	7447.8	
517.68	6905.1	
517.88	8064.9	
518.07	8654.7	
518.27	7240.9	
518.47	6539.8	
518.66	8991.3	
518.86	8114.7	
519.06	6537.8	
519.25	6751.5	
519.45	8297	
519.65	9323	
519.84	7310.6	
520.04	7754.3	
520.24	9725.8	
520.43	8752.3	
520.63	7122.2	
520.83	6935.8	
521.02	8279.3	
521.22	8651.3	
521.42	7111.2	
521.61	7557.7	
521.81	8390.5	
522.01	8512.7	
522.2	7063.4	
522.4	6972.7	
522.6	8876.6	
522.79	8002.1	
522.99	7032.7	
523.18	6579.4	
523.38	8770.8	
523.58	8782.4	
523.77	7875.1	
523.97	6669.6	
524.17	10034	
524.36	9610.4	
524.56	7613.7	
524.76	7358.4	
524.95	8740.7	
525.15	8649.3	
525.34	7266.9	
525.54	7367.2	
525.74	9129.2	
525.93	8479.3	
526.13	8198	
526.33	7382.9	
526.52	9373.6	
526.72	9008.3	
526.91	8202.1	
527.11	7671.7	
527.31	9326.4	
527.5	9653.4	
527.7	7593.9	
527.89	7055.9	
528.09	8863.6	
528.29	9189.9	
528.48	7952.3	
528.68	7743.4	
528.87	9455.5	
529.07	9425.4	
529.27	7701	
529.46	7407.5	
529.66	9263	
529.85	9422.7	
530.05	7217	
530.25	7698.3	
530.44	10135	
530.64	9015.8	
530.83	7444.4	
531.03	7672.4	
531.23	9568.8	
531.42	9241.1	
531.62	8220.5	
531.81	7659.4	
532.01	9638.4	
532.21	9794.1	
532.4	7574.8	
532.6	7817.1	
532.79	10317	
532.99	9767.4	
533.18	7971.4	
533.38	8527.7	
533.58	9480	
533.77	9824.8	
533.97	7972.7	
534.16	8449.2	
534.36	10099	
534.55	9478.7	
534.75	8587.1	
534.95	8033.5	
535.14	10136	
535.34	9522.4	
535.53	7829.4	
535.73	9063.6	
535.92	10474	
536.12	9540.8	
536.31	7862.2	
536.51	8535.9	
536.71	9817.3	
536.9	9447.3	
537.1	7894.9	
537.29	8045.1	
537.49	10118	
537.68	9413.8	
537.88	8328.4	
538.07	7642.3	
538.27	9544.2	
538.46	10405	
538.66	7781.6	
538.86	8058.8	
539.05	9747.6	
539.25	9944.9	
539.44	8252.6	
539.64	7901.7	
539.83	9528.5	
540.03	10148	
540.22	7813	
540.42	7839.6	
540.61	9607.7	
540.81	9714.2	
541	8125	
541.2	8668.4	
541.39	9265.7	
541.59	9569.5	
541.78	8398.7	
541.98	7727.7	
542.18	9082.7	
542.37	8996	
542.57	8054	
542.76	8291.5	
542.96	9077.3	
543.15	9528.5	
543.35	7965.2	
543.54	7497.6	
543.74	9526.5	
543.93	9447.3	
544.13	7780.9	
544.32	8581.7	
544.52	9605	
544.71	9100.5	
544.91	7138.5	
545.1	8002.1	
545.3	9097.8	
545.49	9574.9	
545.69	7167.9	
545.88	7580.9	
546.08	10211	
546.27	9789.3	
546.47	7892.9	
546.66	7359.7	
546.86	9648	
547.05	9993.4	
547.24	7615	
547.44	7601.4	
547.63	8924.4	
547.83	9609.1	
548.02	7734.5	
548.22	7844.4	
548.41	8798.1	
548.61	9680.7	
548.8	7417.1	
549	7320.1	
549.19	9224.1	
549.39	9435.7	
549.58	7176.1	
549.78	7573.4	
549.97	9456.2	
550.17	9070.5	
550.36	8181.6	
550.55	8912.1	
550.75	8994	
550.94	9705.3	
551.14	7375.4	
551.33	7642.3	
551.53	8561.9	
551.72	9245.9	
551.92	7651.2	
552.11	7415.7	
552.31	9441.1	
552.5	9327.8	
552.69	8545.5	
552.89	7090.8	
553.08	9288.9	
553.28	9073.9	
553.47	7432.1	
553.67	8156.4	
553.86	9605.7	
554.06	8511.4	
554.25	6860	
554.44	7247.1	
554.64	10206	
554.83	9854.8	
555.03	7249.1	
555.22	7551.5	
555.42	9389.3	
555.61	9146.9	
555.8	7441	
556	7602.7	
556.19	8611	
556.39	9383.8	
556.58	7422.5	
556.78	7431.4	
556.97	9123	
557.16	8873.8	
557.36	8205.5	
557.55	7180.9	
557.75	8368.7	
557.94	9734.7	
558.13	7179.5	
558.33	7045	
558.52	9526.5	
558.72	8626	
558.91	7060	
559.1	7292.1	
559.3	8511.4	
559.49	8259.5	
559.69	6834.1	
559.88	7423.9	
560.07	8998.1	
560.27	9389.9	
560.46	7670.3	
560.66	7636.2	
560.85	8943.5	
561.04	8281.3	
561.24	7038.9	
561.43	7103.7	
561.63	8503.8	
561.82	8675.9	
562.01	7929.7	
562.21	7362.4	
562.4	8994	
562.59	9562	
562.79	7337.9	
562.98	7075.7	
563.18	8880	
563.37	9814.5	
563.56	7600.7	
563.76	6931.7	
563.95	8596	
564.14	8616.5	
564.34	7284.6	
564.53	7068.9	
564.73	9020.6	
564.92	9035.6	
565.11	7447.8	
565.31	6931.7	
565.5	9342.2	
565.69	8445.8	
565.89	7169.3	
566.08	7339.2	
566.27	9273.9	
566.47	9536.7	
566.66	7825.3	
566.85	6908.5	
567.05	9058.8	
567.24	8643.1	
567.44	7032	
567.63	8006.2	
567.82	9164.7	
568.02	8880	
568.21	7120.1	
568.4	7279.8	
568.6	8800.8	
568.79	8854.7	
568.98	7015	
569.18	7096.2	
569.37	8850	
569.56	10108	
569.76	7363.8	
569.95	7938.6	
570.14	9088.9	
570.34	8954.4	
570.53	6999.3	
570.72	6925.5	
570.91	9365.4	
571.11	8745.5	
571.3	7279.8	
571.49	7789.8	
571.69	8812.4	
571.88	8497	
572.07	7552.2	
572.27	7534.5	
572.46	8394.6	
572.65	9155.1	
572.85	7138.5	
573.04	7257.3	
573.23	9351	
573.43	8845.2	
573.62	6977.4	
573.81	7370	
574	8994.7	
574.2	8632.2	
574.39	7247.1	
574.58	7295.5	
574.78	9454.8	
574.97	8946.9	
575.16	7677.8	
575.36	7712.7	
575.55	9333.3	
575.74	9392.7	
575.93	7019.8	
576.13	7567.2	
576.32	8755.7	
576.51	9147.6	
576.71	7396.6	
576.9	8205.5	
577.09	9480.7	
577.28	9087.5	
577.48	7636.9	
577.67	6942.6	
577.86	8865.7	
578.05	9086.8	
578.25	7459.4	
578.44	7450.5	
578.63	8841.8	
578.83	9842.5	
579.02	6966.5	
579.21	8017.1	
579.4	9048.6	
579.6	8834.9	
579.79	7477.8	
579.98	8912.1	
580.17	9281.4	
580.37	9403.6	
580.56	7114.6	
580.75	7682.6	
580.94	9603.6	
581.14	9587.9	
581.33	7991.2	
581.52	7301.7	
581.71	9181	
581.91	9719.7	
582.1	7141.9	
582.29	7423.9	
582.48	8979	
582.68	9022.7	
582.87	7771.4	
583.06	7558.4	
583.25	9319.6	
583.45	8751	
583.64	8069.7	
583.83	8435.6	
584.02	8981.7	
584.21	9327.8	
584.41	7996	
584.6	7519.5	
584.79	9101.9	
584.98	9578.3	
585.18	7210.9	
585.37	7137.9	
585.56	8870.4	
585.75	9306	
585.94	7374.1	
586.14	7819.8	
586.33	9665	
586.52	8913.4	
586.71	7556.3	
586.91	7307.8	
587.1	8458.1	
587.29	9222	
587.48	7322.9	
587.67	7176.1	
587.87	9170.1	
588.06	9038.4	
588.25	8159.8	
588.44	7572	
588.63	8772.8	
588.83	9137.4	
589.02	7187.7	
589.21	7014.3	
589.4	8656.1	
589.59	8408.3	
589.78	6442.2	
589.98	6539.8	
590.17	8001.4	
590.36	8370.7	
590.55	5971.2	
590.74	6500.3	
590.94	9125.1	
591.13	8111.3	
591.32	6350.1	
591.51	6051.7	
591.7	8476.5	
591.89	8158.4	
592.09	6136.4	
592.28	6597.2	
592.47	7615	
592.66	8966	
592.85	6260	
593.05	6369.9	
593.24	8123.6	
593.43	8708.6	
593.62	6517.3	
593.81	6778.1	
594	8187.1	
594.19	8375.5	
594.39	6506.4	
594.58	6329.6	
594.77	8444.5	
594.96	8823.3	
595.15	6447.7	
595.34	6786.3	
595.54	8304.5	
595.73	7718.1	
595.92	5782.1	
596.11	6661.4	
596.3	8613.1	
596.49	7895.6	
596.68	6534.4	
596.88	6831.3	
597.07	8477.9	
597.26	7772	
597.45	6212.2	
597.64	7058	
597.83	7886	
598.02	8369.4	
598.22	6371.2	
598.41	6716.7	
598.6	8260.1	
598.79	7910.6	
598.98	6308.4	
599.17	6877.8	
599.36	8240.3	
599.55	8994.7	
599.74	7700.4	
599.94	7511.3	
600.13	8671.8	
600.32	7811.6	
600.51	6126.8	
600.7	6311.2	
600.89	9000.1	
601.08	9074.5	
601.27	6159.6	
601.47	6747.4	
601.66	8568	
601.85	9013.8	
602.04	6668.9	
602.23	6767.2	
602.42	7919.5	
602.61	8434.2	
602.8	6524.1	
602.99	6380.8	
603.18	8226.7	
603.37	8365.3	
603.57	6803.4	
603.76	7245.7	
603.95	8852	
604.14	8497	
604.33	6513.9	
604.52	6684.6	
604.71	8436.9	
604.9	8030.1	
605.09	7107.1	
605.28	6879.8	
605.47	8784.4	
605.66	8458.1	
605.86	6879.8	
606.05	6436.1	
606.24	8709.3	
606.43	7709.2	
606.62	6676.4	
606.81	7116	
607	8623.3	
607.19	8040.3	
607.38	6225.1	
607.57	6419	
607.76	7961.8	
607.95	7555	
608.14	6785.6	
608.33	7099.6	
608.52	7925.6	
608.72	8617.9	
608.91	6161.7	
609.1	6118	
609.29	8023.9	
609.48	7709.2	
609.67	6766.5	
609.86	6133	
610.05	7770.7	
610.24	7977.5	
610.43	6023.1	
610.62	5882.4	
610.81	8706.6	
611	8568.7	
611.19	6246.3	
611.38	6651.8	
611.57	8171.4	
611.76	9007	
611.95	6011.5	
612.14	5937.1	
612.33	7991.2	
612.52	7728.4	
612.71	6374	
612.9	5820.3	
613.09	7479.9	
613.28	9043.8	
613.47	6221.7	
613.66	6819.1	
613.85	8116.8	
614.04	7755	
614.24	6212.2	
614.43	5700.9	
614.62	8241	
614.81	8182.3	
615	6580.1	
615.19	6560.3	
615.38	7635.5	
615.57	7992.5	
615.76	6546.7	
615.95	7152.9	
616.14	8178.2	
616.33	8030.1	
616.52	6746.7	
616.71	6864.8	
616.9	8103.1	
617.09	8020.5	
617.28	6354.8	
617.47	7115.3	
617.66	7634.8	
617.85	7582.9	
618.04	6950.8	
618.22	6560.3	
618.41	7838.9	
618.6	8539.3	
618.79	6548.7	
618.98	6362.4	
619.17	8709.3	
619.36	7464.2	
619.55	6470.2	
619.74	6524.8	
619.93	8268.3	
620.12	7787.1	
620.31	6898.9	
620.5	7003.4	
620.69	8556.4	
620.88	8874.5	
621.07	7397.9	
621.26	6846.4	
621.45	8290.2	
621.64	8303.8	
621.83	6898.9	
622.02	6308.4	
622.21	8464.9	
622.4	8211.7	
622.59	7245.7	
622.78	7131.7	
622.97	8082.7	
623.16	8591.2	
623.35	6914.6	
623.54	6251.1	
623.72	8045.8	
623.91	8297	
624.1	7041.6	
624.29	6173.9	
624.48	8997.4	
624.67	8489.5	
624.86	6994.5	
625.05	6307.7	
625.24	9047.9	
625.43	7961.1	
625.62	8156.4	
625.81	6451.1	
626	8605.6	
626.19	8153.6	
626.38	6897.6	
626.56	6599.2	
626.75	8010.3	
626.94	8538	
627.13	7007.5	
627.32	6062.7	
627.51	8426	
627.7	9176.9	
627.89	6137.8	
628.08	6916.7	
628.27	7802.1	
628.46	7978.2	
628.65	6339.1	
628.83	6102.3	
629.02	8402.1	
629.21	7854	
629.4	6597.9	
629.59	6722.8	
629.78	7767.9	
629.97	8421.2	
630.16	6854.6	
630.35	6520.7	
630.54	8924.4	
630.72	8684.8	
630.91	6523.5	
631.1	6790.4	
631.29	8154.3	
631.48	8295	
631.67	6924.9	
631.86	6498.2	
632.05	8075.1	
632.24	7983.7	
632.42	6316.6	
632.61	6737.8	
632.8	8026	
632.99	7804.1	
633.18	6779.5	
633.37	7010.2	
633.56	8319.5	
633.75	8215.8	
633.93	6819.7	
634.12	6531	
634.31	8844.5	
634.5	8527.1	
634.69	6581.5	
634.88	6907.8	
635.07	8166.6	
635.25	8526.4	
635.44	7258.7	
635.63	7336.5	
635.82	8088.1	
636.01	7467.6	
636.2	7113.3	
636.39	6823.8	
636.57	8792.6	
636.76	8523	
636.95	6408.8	
637.14	7282.6	
637.33	8265.6	
637.52	8897.7	
637.7	6259.3	
637.89	7027.9	
638.08	8051.2	
638.27	8975.6	
638.46	7056.6	
638.65	7205.4	
638.83	8928.5	
639.02	7906.5	
639.21	6819.7	
639.4	7209.5	
639.59	8187.8	
639.78	7908.6	
639.96	6376.7	
640.15	6388.3	
640.34	8120.9	
640.53	8099	
640.72	6171.9	
640.91	6402.6	
641.09	7669.6	
641.28	8509.3	
641.47	6401.3	
641.66	6987.7	
641.85	8180.3	
642.03	8276.5	
642.22	6741.2	
642.41	6416.3	
642.6	7695.6	
642.79	7272.3	
642.97	6243.6	
643.16	6666.8	
643.35	7671	
643.54	7449.1	
643.73	6189	
643.91	6655.9	
644.1	7477.1	
644.29	7817.8	
644.48	6095.4	
644.67	6170.5	
644.85	7387	
645.04	7724.9	
645.23	5763	
645.42	6100.2	
645.6	7386.3	
645.79	8083.3	
645.98	5965.1	
646.17	5233.2	
646.36	7048.4	
646.54	7408.2	
646.73	6381.5	
646.92	5564.3	
647.11	7118.7	
647.29	7823.2	
647.48	5575.3	
647.67	5466	
647.86	8034.9	
648.05	7934.5	
648.23	5834.7	
648.42	6679.8	
648.61	7605.5	
648.8	7509.9	
648.98	5543.2	
649.17	5888.6	
649.36	7132.4	
649.55	6847	
649.73	5641.5	
649.92	6225.8	
650.11	7057.3	
650.3	7335.8	
650.48	5717.9	
650.67	5580	
650.86	7536.5	
651.05	6726.2	
651.23	5643.5	
651.42	5600.5	
651.61	7096.2	
651.79	7015	
651.98	5881.1	
652.17	5545.9	
652.36	7425.3	
652.54	6760.3	
652.73	5624.4	
652.92	5480.4	
653.11	7397.9	
653.29	7380.2	
653.48	5010.7	
653.67	5697.4	
653.85	7225.2	
654.04	7962.5	
654.23	5826.5	
654.42	5485.8	
654.6	6853.9	
654.79	7301	
654.98	5107	
655.16	5507.7	
655.35	6471.6	
655.54	6298.2	
655.73	5122	
655.91	4990.2	
656.1	7210.9	
656.29	6401.3	
656.47	4905.6	
656.66	6006.7	
656.85	6690.7	
657.03	6705	
657.22	5233.2	
657.41	5307.7	
657.59	6787	
657.78	6623.1	
657.97	5002.5	
658.16	5577.3	
658.34	7309.2	
658.53	7529.7	
658.72	6161	
658.9	6498.9	
659.09	6977.4	
659.28	6937.2	
659.46	5382.7	
659.65	5319.9	
659.84	6729.6	
660.02	7176.8	
660.21	5403.9	
660.4	5264.6	
660.58	7454.6	
660.77	6929	
660.96	5697.4	
661.14	4990.9	
661.33	7674.4	
661.52	7607.5	
661.7	5020.3	
661.89	7469.6	
662.08	6673.6	
662.26	6287.3	
662.45	5173.2	
662.64	5248.3	
662.82	7159.7	
663.01	6547.4	
663.2	5329.5	
663.38	5828.5	
663.57	7042.3	
663.75	6939.9	
663.94	5486.5	
664.13	6203.3	
664.31	6754.2	
664.5	7088	
664.69	5792.3	
664.87	5978	
665.06	6473.6	
665.25	7019.1	
665.43	6224.5	
665.62	6090	
665.8	7174.7	
665.99	6631.3	
666.18	5429.2	
666.36	5525.4	
666.55	7146.7	
666.74	7066.2	
666.92	5214.8	
667.11	6346.7	
667.29	6761	
667.48	7090.1	
667.67	5939.1	
667.85	5340.4	
668.04	6691.4	
668.22	6753.5	
668.41	5534.3	
668.6	5653.8	
668.78	6561	
668.97	6692.8	
669.15	5719.3	
669.34	4985.4	
669.53	6583.5	
669.71	6825.9	
669.9	5198.4	
670.08	5550.7	
670.27	6603.3	
670.46	6989	
670.64	5692	
670.83	5846.3	
671.01	6391.7	
671.2	6800.6	
671.38	5230.5	
671.57	5066	
671.76	7358.4	
671.94	7706.5	
672.13	5018.9	
672.31	5745.9	
672.5	7139.9	
672.69	6624.5	
672.87	5167.7	
673.06	5364.3	
673.24	6997.2	
673.43	6591.7	
673.61	5754.1	
673.8	5281.7	
673.98	7016.3	
674.17	7122.8	
674.36	5870.2	
674.54	5610.8	
674.73	6808.1	
674.91	7152.9	
675.1	5530.2	
675.28	5187.5	
675.47	6707.8	
675.65	7051.2	
675.84	5437.4	
676.03	5510.4	
676.21	6637.5	
676.4	6183.5	
676.58	5952.1	
676.77	5791.7	
676.95	7686.7	
677.14	6602	
677.32	5117.2	
677.51	5097.4	
677.69	7157.7	
677.88	6457.2	
678.06	5082.4	
678.25	5175.9	
678.44	6726.9	
678.62	6533	
678.81	5010.7	
678.99	5601.2	
679.18	7376.8	
679.36	6993.8	
679.55	5369.8	
679.73	5792.3	
679.92	6812.9	
680.1	6556.2	
680.29	6225.1	
680.47	5360.2	
680.66	6526.9	
680.84	7120.1	
681.03	4893.3	
681.21	5588.2	
681.4	6522.1	
681.58	6434.7	
681.77	5251	
681.95	5171.8	
682.14	7128.3	
682.32	7311.9	
682.51	5758.2	
682.69	4950.6	
682.88	6418.3	
683.06	6927.6	
683.25	5556.1	
683.43	5812.1	
683.62	6753.5	
683.8	6984.9	
683.99	5965.7	
684.17	5472.9	
684.36	7529	
684.54	6617	
684.73	4840	
684.91	4943.8	
685.1	6685.3	
685.28	6235.4	
685.46	5251.7	
685.65	5216.9	
685.83	6638.1	
686.02	6305.7	
686.2	4897.4	
686.39	4993.6	
686.57	6194.4	
686.76	7199.3	
686.94	4985.4	
687.13	5126.1	
687.31	6706.4	
687.5	6454.5	
687.68	4732.9	
687.86	5539.1	
688.05	7673.1	
688.23	6053.8	
688.42	5629.2	
688.6	4990.9	
688.79	6412.2	
688.97	6371.2	
689.16	5303.6	
689.34	4654.4	
689.52	6907.8	
689.71	7121.5	
689.89	5597.1	
690.08	5107.6	
690.26	6686.6	
690.45	6464.8	
690.63	5568.4	
690.81	5229.8	
691	6500.3	
691.18	6402	
691.37	5238.7	
691.55	6677.7	
691.74	6314.6	
691.92	7705.8	
692.1	5259.2	
692.29	4960.9	
692.47	6537.8	
692.66	6079.1	
692.84	5134.3	
693.02	5373.9	
693.21	6158.9	
693.39	6561.7	
693.58	5567.7	
693.76	5106.3	
693.94	7367.2	
694.13	7306.5	
694.31	5146.5	
694.5	5989.6	
694.68	6513.2	
694.86	6842.3	
695.05	5557.5	
695.23	5552	
695.42	7104.4	
695.6	8597.4	
695.78	5982.1	
695.97	5340.4	
696.15	7256	
696.34	6639.5	
696.52	5204.6	
696.7	5760.3	
696.89	6867.5	
697.07	6462.7	
697.25	5689.3	
697.44	6619.7	
697.62	6924.9	
697.81	6996.5	
697.99	5421	
698.17	5765.7	
698.36	6510.5	
698.54	6941.2	
698.72	5618.3	
698.91	5044.8	
699.09	6638.8	
699.28	6445.6	
699.46	5554.8	
699.64	5350.7	
699.83	6498.2	
700.01	7289.4	
700.19	5946.6	
700.38	4922	
700.56	7238.9	
700.74	6597.2	
700.93	5158.2	
701.11	5720.7	
701.29	7000.6	
701.48	7819.1	
701.66	5389.6	
701.84	5416.2	
702.03	6828.6	
702.21	7256	
702.39	5092.6	
702.58	5544.5	
702.76	7168.6	
702.94	7124.9	
703.13	5124.7	
703.31	6784.9	
703.49	6653.9	
703.68	7267.6	
703.86	5285.1	
704.04	5972.6	
704.23	7055.9	
704.41	7328.3	
704.59	5475.6	
704.78	6217	
704.96	8128.4	
705.14	7228	
705.33	5351.3	
705.51	5874.3	
705.69	6838.2	
705.87	7480.5	
706.06	6001.2	
706.24	5214.1	
706.42	7204.1	
706.61	7282.6	
706.79	6128.2	
706.97	5294	
707.16	6802.7	
707.34	7154.9	
707.52	6009.4	
707.7	5520.6	
707.89	6837.5	
708.07	6645.7	
708.25	6049.7	
708.44	6233.3	
708.62	6815	
708.8	7590.5	
708.98	6265.4	
709.17	5655.8	
709.35	7158.3	
709.53	7115.3	
709.72	5295.4	
709.9	5446.2	
710.08	7390.4	
710.26	7343.3	
710.45	6454.5	
710.63	5730.9	
710.81	7109.2	
710.99	7036.1	
711.18	5984.8	
711.36	5588.2	
711.54	6971.3	
711.72	7485.3	
711.91	5661.3	
712.09	5240.1	
712.27	7023.9	
712.45	7414.3	
712.64	5831.9	
712.82	5074.9	
713	6656.6	
713.18	6720.8	
713.37	5102.2	
713.55	5973.2	
713.73	7301	
713.91	6238.8	
714.1	5283.8	
714.28	4981.3	
714.46	6801.3	
714.64	6239.5	
714.83	4462.5	
715.01	4925.4	
715.19	6362.4	
715.37	5753.4	
715.55	4668.7	
715.74	4815.5	
715.92	6736.5	
716.1	5376.6	
716.28	5620.3	
716.47	4934.2	
716.65	5918.6	
716.83	5894.1	
717.01	4807.3	
717.19	4823.6	
717.38	7380.2	
717.56	5699.5	
717.74	4990.9	
717.92	4419.5	
718.1	6649.1	
718.29	6021.7	
718.47	4236.6	
718.65	4758.8	
718.83	6651.8	
719.01	6599.2	
719.2	4242	
719.38	5061.9	
719.56	6492.7	
719.74	7506.5	
719.92	4881.7	
720.11	5487.2	
720.29	6564.4	
720.47	5910.4	
720.65	4440.7	
720.83	5024.4	
721.02	6085.2	
721.2	5892.7	
721.38	5072.1	
721.56	4495.3	
721.74	5494	
721.92	5608.7	
722.11	5203.2	
722.29	5038.7	
722.47	6552.1	
722.65	5958.2	
722.83	4484.4	
723.01	5066.7	
723.2	5926.8	
723.38	6209.4	
723.56	4117.1	
723.74	4837.3	
723.92	5659.9	
724.1	6397.9	
724.29	4428.4	
724.47	5155.4	
724.65	5744.6	
724.83	5531.6	
725.01	4347.8	
725.19	4930.1	
725.37	5656.5	
725.56	5627.8	
725.74	4270.7	
725.92	4402.5	
726.1	5636	
726.28	5842.2	
726.46	4710.3	
726.64	4484.4	
726.83	5896.8	
727.01	5988.3	
727.19	4244.1	
727.37	4795.7	
727.55	5978.7	
727.73	6242.9	
727.91	4243.4	
728.09	4193.6	
728.28	6329.6	
728.46	6363	
728.64	4938.3	
728.82	4858.5	
729	7059.3	
729.18	6591.7	
729.36	4407.2	
729.54	5936.4	
729.72	7370	
729.91	6175.3	
730.09	5789.6	
730.27	4938.3	
730.45	6169.2	
730.63	6549.4	
730.81	5289.2	
730.99	4736.3	
731.17	6997.2	
731.35	5928.2	
731.53	5032.5	
731.71	4824.3	
731.9	6746.7	
732.08	6817.7	
732.26	4980	
732.44	4709	
732.62	6871.6	
732.8	6514.6	
732.98	5192.3	
733.16	4611.3	
733.34	6557.6	
733.52	5574.6	
733.7	4874.8	
733.88	5068.7	
734.07	6414.9	
734.25	6166.4	
734.43	4583.4	
734.61	5625.1	
734.79	7330.4	
734.97	6174.6	
735.15	4595.6	
735.33	4937	
735.51	6396.5	
735.69	6200.6	
735.87	5562.3	
736.05	5012.1	
736.23	6193.1	
736.41	6072.2	
736.59	4906.3	
736.77	4963.6	
736.95	6561	
737.13	6161.7	
737.32	4643.4	
737.5	4841.4	
737.68	6974	
737.86	6095.4	
738.04	4519.2	
738.22	5800.5	
738.4	5945.9	
738.58	6171.2	
738.76	4965	
738.94	4229.7	
739.12	6057.2	
739.3	6059.9	
739.48	5332.2	
739.66	5109.7	
739.84	6242.2	
740.02	6154.1	
740.2	4297.3	
740.38	4595.6	
740.56	6494.1	
740.74	5608.7	
740.92	5026.4	
741.1	4924.7	
741.28	6176	
741.46	5900.2	
741.64	4622.3	
741.82	5018.9	
742	6120.7	
742.18	6042.9	
742.36	4796.3	
742.54	4465.3	
742.72	6520	
742.9	5518.6	
743.08	5014.8	
743.26	4173.8	
743.44	6546.7	
743.62	6434	
743.8	5200.5	
743.98	4503.5	
744.16	6300.2	
744.34	5987.6	
744.52	5008.6	
744.7	5048.9	
744.88	6352.8	
745.06	5948	
745.24	5000.5	
745.42	5111	
745.6	6389.7	
745.78	6247.7	
745.96	4250.9	
746.14	4468.7	
746.32	6968.6	
746.5	6287.3	
746.68	4758.1	
746.86	4451.6	
747.03	6534.4	
747.21	5430.5	
747.39	4771.1	
747.57	4414.7	
747.75	6027.9	
747.93	6256.5	
748.11	4334.2	
748.29	4285	
748.47	7122.8	
748.65	5799.2	
748.83	4913.8	
749.01	4659.1	
749.19	6128.2	
749.37	5526.1	
749.55	4633.2	
749.73	4703.5	
749.91	5982.8	
750.09	5780.1	
750.26	4619.5	
750.44	4253.6	
750.62	5886.5	
750.8	5873.6	
750.98	4136.2	
751.16	4403.8	
751.34	6047.7	
751.52	5464.7	
751.7	4914.4	
751.88	4035.9	
752.06	6277.7	
752.24	6094.1	
752.42	4021.5	
752.59	4328	
752.77	5801.9	
752.95	6747.4	
753.13	4820.2	
753.31	4424.3	
753.49	5684.5	
753.67	5894.1	
753.85	4607.9	
754.03	4240.7	
754.21	6113.2	
754.38	6264.7	
754.56	4311	
754.74	3667.2	
754.92	5508.4	
755.1	5913.2	
755.28	3639.2	
755.46	3650.2	
755.64	6375.3	
755.82	6369.9	
755.99	3621.5	
756.17	3646.1	
756.35	4459.8	
756.53	5564.3	
756.71	2770.2	
756.89	3414.6	
757.07	5193.6	
757.25	4569.7	
757.42	3872	
757.6	4498	
757.78	5368.4	
757.96	4656.4	
758.14	3678.8	
758.32	3357.3	
758.5	4358.8	
758.67	4872.8	
758.85	3546.4	
759.03	3666.5	
759.21	5040.1	
759.39	4682.3	
759.57	3197.6	
759.75	4055	
759.92	5656.5	
760.1	5128.1	
760.28	4317.1	
760.46	4513.7	
760.64	4975.2	
760.82	4792.9	
760.99	4284.4	
761.17	3713.7	
761.35	5523.4	
761.53	4769	
761.71	3797.6	
761.89	4311.7	
762.06	5546.6	
762.24	5137	
762.42	3932.1	
762.6	3820.8	
762.78	5137.7	
762.96	5618.3	
763.13	4238.6	
763.31	3976.5	
763.49	5677	
763.67	5152.7	
763.85	4640.7	
764.02	4943.8	
764.2	6004.6	
764.38	5291.3	
764.56	3863.2	
764.74	4503.5	
764.91	5999.2	
765.09	5143.1	
765.27	3690.4	
765.45	3534.1	
765.63	6061.3	
765.8	5884.5	
765.98	3380.5	
766.16	3627	
766.34	4867.3	
766.52	4652.3	
766.69	4231.1	
766.87	3474.7	
767.05	5159.5	
767.23	5730.9	
767.41	3713.6	
767.58	3865.2	
767.76	5577.3	
767.94	5644.2	
768.12	3672	
768.29	4175.8	
768.47	5137.7	
768.65	5683.1	
768.83	3444	
769	4196.3	
769.18	4883.7	
769.36	5353.4	
769.54	4231.8	
769.72	3424.2	
769.89	5578	
770.07	5618.9	
770.25	3698.6	
770.43	4565.6	
770.6	6107	
770.78	6374	
770.96	3803.1	
771.14	4228.4	
771.31	5509	
771.49	4973.8	
771.67	3195.5	
771.85	3353.9	
772.02	4456.4	
772.2	4970.4	
772.38	3885.7	
772.55	3505.4	
772.73	5210	
772.91	5003.9	
773.09	3827.7	
773.26	3848.1	
773.44	5132.9	
773.62	4965	
773.8	3410.6	
773.97	3252.9	
774.15	5171.8	
774.33	4974.5	
774.5	3368.9	
774.68	3595.6	
774.86	5316.5	
775.04	4891.9	
775.21	3381.9	
775.39	3287.7	
775.57	5143.1	
775.74	5283.8	
775.92	3207.1	
776.1	3125.9	
776.27	5025	
776.45	5908.4	
776.63	3350.5	
776.81	3040.6	
776.98	4848.2	
777.16	5485.1	
777.34	3392.1	
777.51	3676.1	
777.69	4787.5	
777.87	4579.9	
778.04	3510.2	
778.22	3828.3	
778.4	4633.2	
778.57	5119.9	
778.75	2897.2	
778.93	3139.5	
779.1	4510.3	
779.28	4358.8	
779.46	2898.6	
779.64	3280.8	
779.81	5210.7	
779.99	5780.7	
780.17	3765.5	
780.34	3841.3	
780.52	4821.6	
780.69	4922.6	
780.87	3472	
781.05	3158	
781.22	4899.4	
781.4	4895.3	
781.58	3317	
781.75	2627.5	
781.93	4941.1	
782.11	4381.3	
782.28	3898.6	
782.46	3266.5	
782.64	4261.1	
782.81	4980.7	
782.99	3386.7	
783.17	3241.9	
783.34	4894.6	
783.52	4428.4	
783.69	3399.6	
783.87	3984.7	
784.05	4505.5	
784.22	4412.7	
784.4	3964.9	
784.58	3496.6	
784.75	5085.8	
784.93	4470	
785.1	3218	
785.28	3700	
785.46	4862.6	
785.63	4313.7	
785.81	3259	
785.99	3083.6	
786.16	4606.6	
786.34	4768.4	
786.51	3161.4	
786.69	3378.5	
786.87	4163.5	
787.04	4556.7	
787.22	3061	
787.39	3722.5	
787.57	4369	
787.75	5177.9	
787.92	3831.1	
788.1	3756.7	
788.27	4371	
788.45	4184	
788.63	3654.9	
788.8	2665.1	
788.98	4715.1	
789.15	4125.3	
789.33	2818.7	
789.5	3192.8	
789.68	5032.5	
789.86	5080.3	
790.03	3523.9	
790.21	3158.7	
790.38	5072.8	
790.56	4469.4	
790.73	3013.2	
790.91	3006.4	
791.09	4429.1	
791.26	4883	
791.44	3207.8	
791.61	2804.4	
791.79	4379.2	
791.96	4351.3	
792.14	2895.8	
792.32	2614.6	
792.49	4367.6	
792.67	4472.1	
792.84	3009.1	
793.02	2793.4	
793.19	4725.3	
793.37	5164.3	
793.54	2587.3	
793.72	2811.9	
793.89	5214.8	
794.07	4281.6	
794.25	3254.9	
794.42	2647.3	
794.6	5139.7	
794.77	4767	
794.95	3512.3	
795.12	3078.1	
795.3	4410	
795.47	4767.7	
795.65	3309.5	
795.82	3193.5	
796	4271.4	
796.17	5580.7	
796.35	3123.8	
796.52	3644	
796.7	4750.6	
796.87	4828.4	
797.05	3145.7	
797.22	3645.4	
797.4	4796.3	
797.57	5458.5	
797.75	3251.5	
797.92	3049.4	
798.1	4991.6	
798.27	4264.6	
798.45	2672.6	
798.62	2846.7	
798.8	4597	
798.97	4937	
799.15	3414.6	
799.32	3229.6	
799.5	4115.7	
799.67	4585.4	
799.85	3494.5	
800.02	2667.1	
800.2	4324.6	
800.37	4545.8	
800.55	3503.4	
800.72	3050.8	
800.9	4921.3	
801.07	5162.9	
801.25	3999.7	
801.42	3302.7	
801.6	4911	
801.77	4617.5	
801.95	3151.8	
802.12	2955.9	
802.29	4692.6	
802.47	4550.6	
802.64	3321.1	
802.82	2587.3	
802.99	4344.4	
803.17	5006.6	
803.34	3274	
803.52	2927.9	
803.69	5481.7	
803.87	4109.6	
804.04	3228.3	
804.21	3276.8	
804.39	5087.8	
804.56	4453	
804.74	2803.7	
804.91	3307.5	
805.09	4308.9	
805.26	4360.1	
805.44	2884.2	
805.61	3069.2	
805.78	4831.8	
805.96	4760.8	
806.13	3274.7	
806.31	3519.8	
806.48	3973.7	
806.66	4376.5	
806.83	3377.8	
807	3201.7	
807.18	4293.2	
807.35	4587.4	
807.53	3054.9	
807.7	2682.8	
807.87	5150.6	
808.05	4338.3	
808.22	3490.4	
808.4	2666.5	
808.57	4271.4	
808.74	4097.3	
808.92	2975.7	
809.09	3684.3	
809.27	4364.9	
809.44	4679.6	
809.61	2708.1	
809.79	2899.2	
809.96	5251	
810.14	4763.6	
810.31	2633	
810.48	3120.4	
810.66	4409.3	
810.83	4914.4	
811.01	2983.9	
811.18	3299.3	
811.35	4876.9	
811.53	3888.4	
811.7	3525.9	
811.87	3306.1	
812.05	4419.5	
812.22	4300.1	
812.39	2951.8	
812.57	2794.1	
812.74	4369	
812.92	5481	
813.09	3145	
813.26	3269.2	
813.44	5299.5	
813.61	4218.1	
813.78	2707.4	
813.96	3371	
814.13	4409.3	
814.3	4156	
814.48	3673.4	
814.65	3067.9	
814.82	5064.6	
815	4125.3	
815.17	3122.5	
815.34	3770.3	
815.52	4274.8	
815.69	4301.4	
815.87	3132.7	
816.04	3149.1	
816.21	4293.9	
816.38	3939.6	
816.56	3082.2	
816.73	2845.3	
816.9	5296	
817.08	4812.7	
817.25	2933.4	
817.42	3574.4	
817.6	4048.2	
817.77	4316.4	
817.94	3237.2	
818.12	2850.8	
818.29	4143.7	
818.46	5954.8	
818.64	2977.7	
818.81	2855.6	
818.98	4164.9	
819.16	5620.3	
819.33	3362.1	
819.5	3193.5	
819.67	4621.6	
819.85	5074.2	
820.02	3207.8	
820.19	3267.9	
820.37	4497.3	
820.54	4231.1	
820.71	3205.8	
820.88	3859.7	
821.06	4475.5	
821.23	4149.9	
821.4	3239.2	
821.58	3184.6	
821.75	4791.6	
821.92	4426.3	
822.09	2654.2	
822.27	2728.6	
822.44	4345.1	
822.61	4306.2	
822.79	2717.7	
822.96	4800.4	
823.13	4589.5	
823.3	4123.9	
823.48	3028.3	
823.65	2798.9	
823.82	4882.4	
823.99	4046.8	
824.17	3752.6	
824.34	2847.4	
824.51	5468.8	
824.68	4369.7	
824.86	2919.7	
825.03	3258.3	
825.2	4362.2	
825.37	5038.7	
825.55	2912.2	
825.72	3164.8	
825.89	5477.6	
826.06	5159.5	
826.24	3092.4	
826.41	3069.2	
826.58	5195.7	
826.75	4546.5	
826.92	2589.3	
827.1	2751.1	
827.27	6620.4	
827.44	5335	
827.61	2974.3	
827.79	3482.9	
827.96	4225	
828.13	4346.5	
828.3	3119.1	
828.47	2650.1	
828.65	4620.2	
828.82	4550.6	
828.99	3751.2	
829.16	3377.8	
829.34	4865.3	
829.51	4673.5	
829.68	3201.7	
829.85	3249.4	
830.02	5179.3	
830.2	4859.8	
830.37	2523.8	
830.54	3704.1	
830.71	5337	
830.88	4410.6	
831.05	2527.2	
831.23	2861	
831.4	5276.9	
831.57	5621	
831.74	2966.1	
831.91	2679.4	
832.09	4669.4	
832.26	4844.8	
832.43	3033.7	
832.6	3405.1	
832.77	4625.7	
832.94	5155.4	
833.12	2512.2	
833.29	2944.3	
833.46	4651.6	
833.63	5752.1	
833.8	3291.8	
833.97	3061	
834.15	4897.4	
834.32	4687.1	
834.49	3184.6	
834.66	3169.6	
834.83	4930.1	
835	4257	
835.17	2937.5	
835.35	2929.3	
835.52	4787.5	
835.69	4693.9	
835.86	3095.2	
836.03	2592.7	
836.2	4805.9	
836.37	4537.6	
836.55	3044	
836.72	2852.1	
836.89	4547.9	
837.06	4958.1	
837.23	3060.3	
837.4	3254.9	
837.57	5412.8	
837.75	5795.1	
837.92	2759.3	
838.09	2974.3	
838.26	4555.4	
838.43	4989.5	
838.6	3173.7	
838.77	2872.6	
838.94	5571.8	
839.11	5388.9	
839.29	3012.6	
839.46	2484.9	
839.63	4917.2	
839.8	4640.7	
839.97	3007.8	
840.14	2925.9	
840.31	4727.4	
840.48	4819.6	
840.65	2581.1	
840.82	2897.2	
841	4771.8	
841.17	4718.5	
841.34	2727.9	
841.51	2849.4	
841.68	4846.2	
841.85	4555.4	
842.02	2880.8	
842.19	2407.7	
842.36	4717.8	
842.53	4648.2	
842.7	2770.2	
842.87	3218	
843.05	5742.5	
843.22	4519.9	
843.39	2623.4	
843.56	2846	
843.73	4503.5	
843.9	4913.1	
844.07	4252.9	
844.24	3500.7	
844.41	6420.4	
844.58	4293.9	
844.75	2652.8	
844.92	2835.8	
845.09	4781.3	
845.26	4816.1	
845.43	2747.7	
845.6	2876.7	
845.77	4807.3	
845.94	4616.1	
846.12	2977.1	
846.29	3078.1	
846.46	4999.1	
846.63	4741	
846.8	2760	
846.97	3223.5	
847.14	5177.3	
847.31	4788.8	
847.48	3035.8	
847.65	3373.7	
847.82	4972.5	
847.99	4989.5	
848.16	3517.7	
848.33	3284.9	
848.5	4483.7	
848.67	5111.7	
848.84	2669.2	
849.01	2857.6	
849.18	4453.6	
849.35	4190.8	
849.52	3310.2	
849.69	2664.4	
849.86	5001.1	
850.03	4996.4	
850.2	2729.3	
850.37	3266.5	
850.54	5031.9	
850.71	4569.7	
850.88	3216.7	
851.05	2652.1	
851.22	4699.4	
851.39	5188.2	
851.56	2560	
851.73	3107.5	
851.9	4339	
852.07	4968.4	
852.24	3020.8	
852.41	2696.5	
852.58	4775.2	
852.75	4393.6	
852.92	2991.4	
853.09	2689.7	
853.26	4467.3	
853.43	5097.4	
853.6	2715.6	
853.77	2372.2	
853.94	5193.6	
854.11	4265.9	
854.28	3867.9	
854.44	2925.9	
854.61	5418.2	
854.78	5027.8	
854.95	2736.1	
855.12	3294.5	
855.29	4034.5	
855.46	5390.3	
855.63	2734	
855.8	3629	
855.97	4465.9	
856.14	5068.7	
856.31	3756	
856.48	2945.7	
856.65	4559.5	
856.82	4280.3	
856.99	2617.3	
857.16	2928.6	
857.33	5608	
857.49	4629.1	
857.66	2895.1	
857.83	3077.4	
858	4569.7	
858.17	4764.3	
858.34	2669.2	
858.51	2672.6	
858.68	5198.4	
858.85	5246.2	
859.02	3131.3	
859.19	3222.1	
859.36	4345.1	
859.52	4298	
859.69	2783.2	
859.86	3099.3	
860.03	4377.2	
860.2	5177.3	
860.37	2508.8	
860.54	2751.1	
860.71	4934.2	
860.88	5254.4	
861.05	3024.8	
861.21	3353.2	
861.38	5223	
861.55	4156	
861.72	2529.2	
861.89	2993.4	
862.06	4995	
862.23	5241.4	
862.4	2676.7	
862.56	2800.3	
862.73	4849.6	
862.9	4599.7	
863.07	3116.3	
863.24	2501.9	
863.41	4273.4	
863.58	4334.2	
863.75	2753.8	
863.91	3106.1	
864.08	5114.5	
864.25	4892.6	
864.42	3316.3	
864.59	3715.7	
864.76	5408.7	
864.93	4302.1	
865.09	2646	
865.26	2906.8	
865.43	5155.4	
865.6	5383.4	
865.77	2410.5	
865.94	2684.9	
866.1	5112.4	
866.27	4838.7	
866.44	3923.9	
866.61	2605	
866.78	4599.7	
866.95	4892.6	
867.11	2684.2	
867.28	2499.2	
867.45	5055.8	
867.62	4303.5	
867.79	3080.8	
867.96	2665.8	
868.12	4306.9	
868.29	4965.6	
868.46	2669.2	
868.63	3521.1	
868.8	5048.9	
868.97	4908.3	
869.13	2799.6	
869.3	2826.9	
869.47	4775.9	
869.64	4994.3	
869.81	2749.7	
869.97	2708.1	
870.14	4741	
870.31	5193.6	
870.48	2650.8	
870.65	3300	
870.81	4574.5	
870.98	4560.8	
871.15	3065.1	
871.32	2811.2	
871.48	4842.1	
871.65	5289.2	
871.82	2671.9	
871.99	2950.4	
872.16	5548.6	
872.32	5110.4	
872.49	2745.6	
872.66	2790	
872.83	4964.3	
872.99	4358.8	
873.16	3037.1	
873.33	2714.2	
873.5	4745.8	
873.67	4760.8	
873.83	2850.1	
874	3531.4	
874.17	4809.3	
874.34	5389.6	
874.5	3434.4	
874.67	3294.5	
874.84	5128.1	
875.01	4187.4	
875.17	3708.2	
875.34	2729.9	
875.51	4727.4	
875.68	5574.6	
875.84	3253.5	
876.01	3791.5	
876.18	4867.3	
876.34	4884.4	
876.51	2717	
876.68	2717	
876.85	4549.9	
877.01	5129.5	
877.18	3725.3	
877.35	2647.3	
877.52	4783.4	
877.68	4296.6	
877.85	2689	
878.02	2671.9	
878.18	4533.5	
878.35	4421.6	
878.52	2250	
878.69	3145	
878.85	4973.8	
879.02	4878.9	
879.19	3694.5	
879.35	2920.4	
879.52	4898.1	
879.69	5014.1	
879.86	2427.5	
880.02	3027.6	
880.19	4609.3	
880.36	5436	
880.52	3041.9	
880.69	3149.8	
880.86	5010.7	
881.02	4988.9	
881.19	2947	
881.36	2886.3	
881.52	4930.8	
881.69	4433.9	
881.86	2926.5	
882.02	2887	
882.19	5096.7	
882.36	5694.7	
882.52	2817.3	
882.69	3648.8	
882.86	4705.5	
883.02	4732.2	
883.19	3219.4	
883.36	3036.5	
883.52	4972.5	
883.69	5545.2	
883.86	2761.3	
884.02	2517	
884.19	4917.9	
884.36	4660.5	
884.52	3004.4	
884.69	2833	
884.86	4475.5	
885.02	5305.6	
885.19	3020.1	
885.36	3056.3	
885.52	4617.5	
885.69	4770.4	
885.86	3754.6	
886.02	3362.1	
886.19	4965.6	
886.35	4529.4	
886.52	2981.8	
886.69	3672	
886.85	4313.7	
887.02	5178.6	
887.19	5178.6	
887.35	5178.6	
887.52	5178.6	
887.68	5178.6	
887.85	5178.6	
888.02	5178.6	
888.18	5178.6	
888.35	5178.6	
888.51	5178.6	
888.68	5178.6	
888.85	5178.6	
889.01	5178.6	
889.18	5178.6	
889.35	5178.6	
889.51	5178.6	
889.68	5178.6	
889.84	5178.6	
890.01	5178.6	
890.17	5178.6	
890.34	5178.6	
890.51	5178.6	
890.67	5178.6	
890.84	5178.6	
891	5178.6	
891.17	5178.6	
891.34	5178.6	
891.5	5178.6	
891.67	5178.6	
891.83	5178.6	
892	5178.6	
892.16	5178.6	
892.33	5178.6	
892.5	5178.6	
892.66	5178.6	
892.83	5178.6	
892.99	5178.6	
893.16	5178.6	
893.32	5178.6	
893.49	5178.6	
893.65	5178.6	
893.82	5178.6	
893.99	5178.6	
894.15	5178.6	
894.32	5178.6	
894.48	5178.6	
894.65	5178.6	
894.81	5178.6	
894.98	5178.6	
895.14	5178.6	
895.31	5178.6	
895.47	5178.6	
895.64	5178.6	
895.81	5178.6	
895.97	5178.6	
896.14	5178.6	
896.3	5178.6	
896.47	5178.6	
896.63	5178.6	
896.8	5178.6	
896.96	5178.6	
897.13	5178.6	
897.29	5178.6	
897.46	5178.6	
897.62	5178.6	
897.79	5178.6	
897.95	5178.6	
898.12	5178.6	
898.28	5178.6	
898.45	5178.6	
898.61	5178.6	
898.78	5178.6	
898.94	5178.6	
899.11	5178.6	
899.27	5178.6	
899.44	5178.6	
899.6	5178.6	
899.77	5178.6	
899.93	5178.6	
900.1	5178.6	
900.26	5178.6	
900.43	5178.6	
900.59	5178.6	
900.76	5178.6	
900.92	5178.6	
901.09	5178.6	
901.25	5178.6	
901.42	5178.6	
901.58	5178.6	
901.75	5178.6	
901.91	5178.6	
902.07	5178.6	
902.24	5178.6	
902.4	5178.6	
902.57	5178.6	
902.73	5178.6	
902.9	5178.6	
903.06	5178.6	
903.23	5178.6	
903.39	5178.6	
903.56	5178.6	
903.72	5178.6	
903.88	5178.6	
904.05	5178.6	
904.21	5178.6	
904.38	5178.6	
904.54	5178.6	
904.71	5178.6	
904.87	5178.6	
905.03	5178.6	
905.2	5178.6	
905.36	5178.6	
905.53	5178.6	
905.69	5178.6	
905.86	5178.6	
906.02	5178.6	
906.18	5178.6	
906.35	5178.6	
906.51	5178.6	
906.68	5178.6	
906.84	5178.6	
907.01	5178.6	
907.17	5178.6	
907.33	5178.6	
907.5	5178.6	
907.66	5178.6	
907.83	5178.6	
907.99	5178.6	
908.15	5178.6	
908.32	5178.6	
908.48	5178.6	
908.65	5178.6	
908.81	5178.6	
908.97	5178.6	
909.14	5178.6	
909.3	5178.6	
909.47	5178.6	
909.63	5178.6	
909.79	5178.6	
909.96	5178.6	
910.12	5178.6	
910.28	5178.6	
910.45	5178.6	
910.61	5178.6	
910.78	5178.6	
910.94	5178.6	
911.1	5178.6	
911.27	5178.6	
911.43	5178.6	
911.59	5178.6	
911.76	5178.6	
911.92	5178.6	
912.08	5178.6	
912.25	5178.6	
912.41	5178.6	
912.57	5178.6	
912.74	5178.6	
912.9	5178.6	
913.07	5178.6	
913.23	5178.6	
913.39	5178.6	
913.56	5178.6	
913.72	5178.6	
913.88	5178.6	
914.05	5178.6	
914.21	5178.6	
914.37	5178.6	
914.54	5178.6	
914.7	5178.6	
914.86	5178.6	
915.03	5178.6	
915.19	5178.6	
