Wavelength	Intensities	
nm	a.u.	
179.22	1703.2	
179.44	1707.3	
179.65	1699.1	
179.86	1715.5	
180.08	1710.7	
180.29	3990.8	
180.51	3044.6	
180.72	5049.6	
180.94	5633.3	
181.15	2764.1	
181.37	2749.1	
181.58	4875.5	
181.79	5053.7	
182.01	2838.5	
182.22	3020.1	
182.44	5085.8	
182.65	4362.2	
182.87	3706.8	
183.08	3325.9	
183.29	5279.7	
183.51	4455.7	
183.72	2983.9	
183.94	4206.5	
184.15	4771.1	
184.37	4753.3	
184.58	2671.2	
184.79	3528	
185.01	4509.6	
185.22	5099.4	
185.44	3688.4	
185.65	3238.5	
185.86	4801.8	
186.08	4410.6	
186.29	2694.4	
186.51	2825.5	
186.72	4453	
186.94	5065.3	
187.15	3237.2	
187.36	3325.2	
187.58	6455.9	
187.79	4819.6	
188.01	3398.9	
188.22	5101.5	
188.43	5626.5	
188.65	5072.8	
188.86	2861.7	
189.08	3315	
189.29	4620.2	
189.5	4593.6	
189.72	3062.4	
189.93	3144.3	
190.15	5180	
190.36	5963.7	
190.57	3386	
190.79	3213.9	
191	5154.1	
191.22	5158.8	
191.43	3343	
191.64	2872.6	
191.86	5380.7	
192.07	5235.3	
192.29	2949.8	
192.5	3083.6	
192.71	5217.5	
192.93	4579.3	
193.14	3063.8	
193.35	3115.6	
193.57	4586.1	
193.78	5252.4	
194	2551.8	
194.21	2971.6	
194.42	4440	
194.64	4765.6	
194.85	3308.2	
195.07	3768.3	
195.28	4791.6	
195.49	4237.9	
195.71	3956.7	
195.92	2881.5	
196.13	4968.4	
196.35	4980.7	
196.56	4149.9	
196.78	3344.3	
196.99	5999.9	
197.2	5593	
197.42	3667.2	
197.63	3332	
197.84	4344.4	
198.06	4857.8	
198.27	3082.9	
198.48	3988.8	
198.7	4601.1	
198.91	4789.5	
199.13	3338.2	
199.34	3342.3	
199.55	5151.3	
199.77	4216.1	
199.98	2984.6	
200.19	3355.9	
200.41	4747.2	
200.62	4449.6	
200.83	3400.3	
201.05	3620.8	
201.26	4700.1	
201.47	4513	
201.69	2957.3	
201.9	2927.9	
202.11	4773.8	
202.33	5428.5	
202.54	3147.7	
202.76	3495.2	
202.97	4829.1	
203.18	4846.9	
203.4	3394.2	
203.61	3468.6	
203.82	4816.1	
204.04	4496	
204.25	3375.1	
204.46	3267.9	
204.68	4738.3	
204.89	4930.1	
205.1	3258.3	
205.32	2873.3	
205.53	5020.3	
205.74	5165	
205.96	2497.8	
206.17	3348.4	
206.38	5029.1	
206.6	5169.1	
206.81	3770.3	
207.02	3083.6	
207.24	4989.5	
207.45	5271.5	
207.66	3208.5	
207.88	2800.3	
208.09	4887.8	
208.3	4772.4	
208.52	2955.9	
208.73	3239.9	
208.94	4727.4	
209.15	5345.2	
209.37	3102	
209.58	3557.3	
209.79	5135.6	
210.01	4618.9	
210.22	2644.6	
210.43	2744.3	
210.65	4718.5	
210.86	5043.5	
211.07	3175	
211.29	2949.8	
211.5	4995.7	
211.71	4717.2	
211.93	3002.3	
212.14	2936.1	
212.35	4713.7	
212.56	4857.8	
212.78	3306.8	
212.99	2803	
213.2	5459.2	
213.42	4558.1	
213.63	3063.1	
213.84	3188	
214.06	4313	
214.27	4367.6	
214.48	3085.6	
214.69	3386	
214.91	5271.5	
215.12	5278.3	
215.33	3375.1	
215.55	3657.7	
215.76	5616.9	
215.97	4980.7	
216.18	3232.4	
216.4	3218.7	
216.61	4490.5	
216.82	5129.5	
217.04	3012.6	
217.25	3080.1	
217.46	5193	
217.67	5023	
217.89	2706.7	
218.1	2770.9	
218.31	4803.2	
218.53	4901.5	
218.74	3084.9	
218.95	3022.1	
219.16	4736.3	
219.38	5358.2	
219.59	3015.3	
219.8	3520.5	
220.01	5832.6	
220.23	4740.4	
220.44	3814	
220.65	2917.7	
220.87	4827.1	
221.08	5212.1	
221.29	2774.3	
221.5	3525.9	
221.72	6141.2	
221.93	4549.2	
222.14	3320.4	
222.35	3842	
222.57	4745.8	
222.78	5076.9	
222.99	3190.1	
223.2	3401	
223.42	4998.4	
223.63	5048.9	
223.84	2525.1	
224.05	2529.2	
224.27	5819.6	
224.48	5386.8	
224.69	3867.9	
224.9	3385.3	
225.12	4900.8	
225.33	4743.1	
225.54	2749.7	
225.75	3025.5	
225.97	4450.9	
226.18	4670.1	
226.39	3152.5	
226.6	2993.4	
226.82	4577.2	
227.03	4495.3	
227.24	3361.4	
227.45	2847.4	
227.67	5063.3	
227.88	5409.4	
228.09	3743.7	
228.3	3665.9	
228.52	5065.3	
228.73	4700.1	
228.94	3094.5	
229.15	2809.1	
229.36	4726.7	
229.58	4688.5	
229.79	3157.3	
230	3592.8	
230.21	5583.4	
230.43	4805.2	
230.64	3283.6	
230.85	3410.6	
231.06	5101.5	
231.28	5124	
231.49	2808.4	
231.7	3231.7	
231.91	5002.5	
232.12	4787.5	
232.34	2921.1	
232.55	3209.8	
232.76	5270.1	
232.97	4891.9	
233.18	2958.6	
233.4	3282.2	
233.61	4949.9	
233.82	4511	
234.03	3089	
234.25	3065.8	
234.46	6271.6	
234.67	4808.6	
234.88	3362.8	
235.09	3055.6	
235.31	4874.2	
235.52	4662.5	
235.73	3299.3	
235.94	2832.3	
236.15	4538.3	
236.37	5634.6	
236.58	2919	
236.79	3201.7	
237	4973.8	
237.21	4377.9	
237.43	3399.6	
237.64	2781.1	
237.85	7860.8	
238.06	4446.8	
238.27	3465.8	
238.48	2850.8	
238.7	5072.1	
238.91	4687.1	
239.12	3173.7	
239.33	3354.6	
239.54	4480.3	
239.76	4682.3	
239.97	3181.9	
240.18	3188	
240.39	5748	
240.6	4949.3	
240.82	3361.4	
241.03	2790	
241.24	4715.8	
241.45	5432.6	
241.66	2994.8	
241.87	3501.3	
242.09	5335.6	
242.3	5601.2	
242.51	3467.9	
242.72	3222.1	
242.93	5101.5	
243.14	4684.4	
243.36	3616	
243.57	3862.5	
243.78	5412.8	
243.99	5040.1	
244.2	3212.6	
244.41	2898.6	
244.63	4416.1	
244.84	4984.1	
245.05	3414.6	
245.26	3162.7	
245.47	5048.9	
245.68	5096	
245.9	4066.6	
246.11	3353.2	
246.32	4586.1	
246.53	4986.8	
246.74	4964.3	
246.95	2775	
247.16	4467.3	
247.38	4795.7	
247.59	2732.7	
247.8	3166.8	
248.01	4481.6	
248.22	4730.1	
248.43	2936.8	
248.64	3188.7	
248.86	4332.8	
249.07	4580.6	
249.28	2885.6	
249.49	3289.7	
249.7	5155.4	
249.91	5160.9	
250.12	2755.9	
250.34	2811.2	
250.55	4840	
250.76	4786.8	
250.97	3364.1	
251.18	3353.9	
251.39	5188.2	
251.6	4833.2	
251.81	3327.3	
252.03	3278.8	
252.24	4577.2	
252.45	5138.4	
252.66	2864.4	
252.87	3465.2	
253.08	4797	
253.29	5950	
253.5	2847.4	
253.72	3873.4	
253.93	4687.1	
254.14	5517.9	
254.35	3059	
254.56	3150.5	
254.77	4945.2	
254.98	4488.5	
255.19	3082.9	
255.41	3780.6	
255.62	4894	
255.83	5241.4	
256.04	3398.9	
256.25	3302.7	
256.46	5620.3	
256.67	4540.3	
256.88	3335.5	
257.09	3645.4	
257.31	4526.7	
257.52	4506.9	
257.73	4024.9	
257.94	3094.5	
258.15	4697.4	
258.36	4772.4	
258.57	3738.9	
258.78	2471.9	
258.99	5165.7	
259.2	4583.4	
259.41	3077.4	
259.63	3174.4	
259.84	5363.6	
260.05	5656.5	
260.26	3919.8	
260.47	3002.3	
260.68	5189.6	
260.89	4687.1	
261.1	3619.4	
261.31	2908.8	
261.52	5267.4	
261.73	5464	
261.95	3850.9	
262.16	3401.7	
262.37	5255.1	
262.58	5335	
262.79	3849.5	
263	3069.2	
263.21	4743.1	
263.42	4592.2	
263.63	3340.2	
263.84	3110.9	
264.05	5164.3	
264.26	5397.8	
264.47	3680.2	
264.69	3281.5	
264.9	5354.8	
265.11	4890.5	
265.32	2939.5	
265.53	3074.7	
265.74	4895.3	
265.95	4300.1	
266.16	3250.1	
266.37	3561.4	
266.58	4855.7	
266.79	4591.5	
267	3058.3	
267.21	2906.1	
267.42	4461.8	
267.63	4745.1	
267.84	3180.5	
268.06	2745	
268.27	5150	
268.48	5276.3	
268.69	3150.5	
268.9	3578.5	
269.11	5265.3	
269.32	4328	
269.53	3182.5	
269.74	2946.3	
269.95	4975.2	
270.16	4298	
270.37	3233.1	
270.58	3663.1	
270.79	4657.8	
271	5085.1	
271.21	3372.3	
271.42	3222.8	
271.63	4959.5	
271.84	4379.9	
272.05	2671.2	
272.26	2918.4	
272.47	4732.2	
272.68	4898.1	
272.89	3133.4	
273.11	3517.7	
273.32	4606.6	
273.53	5440.1	
273.74	3402.4	
273.95	3373	
274.16	5137	
274.37	4768.4	
274.58	3507.5	
274.79	2869.2	
275	4920.6	
275.21	5269.4	
275.42	4122.6	
275.63	3523.9	
275.84	4978.6	
276.05	6038.1	
276.26	3311.6	
276.47	3151.8	
276.68	4700.8	
276.89	5583.4	
277.1	3562.1	
277.31	2843.9	
277.52	4922.6	
277.73	5185.5	
277.94	2826.2	
278.15	3067.2	
278.36	4907.6	
278.57	4523.3	
278.78	3107.5	
278.99	3407.1	
279.2	4595	
279.41	4471.4	
279.62	3944.4	
279.83	2874.7	
280.04	5651	
280.25	4461.8	
280.46	3965.6	
280.67	3196.2	
280.88	4493.2	
281.09	5205.9	
281.3	3380.5	
281.51	4113	
281.72	5109.7	
281.93	5154.7	
282.14	3011.2	
282.35	3259	
282.56	5153.4	
282.77	5115.1	
282.98	3117	
283.19	3962.8	
283.4	6096.8	
283.61	4760.8	
283.82	2909.5	
284.03	3909.6	
284.24	4932.9	
284.45	5213.4	
284.66	3924.6	
284.87	3708.2	
285.08	5205.9	
285.29	5367	
285.5	2792.1	
285.71	3152.5	
285.92	5214.8	
286.12	5715.2	
286.33	3825.6	
286.54	3145.7	
286.75	5129.5	
286.96	4660.5	
287.17	2919	
287.38	3766.2	
287.59	4548.5	
287.8	4532.8	
288.01	3131.3	
288.22	3503.4	
288.43	4778.6	
288.64	4347.2	
288.85	3669.3	
289.06	3556.6	
289.27	5100.8	
289.48	5455.8	
289.69	3902.7	
289.9	3519.1	
290.11	5297.4	
290.32	4563.6	
290.53	3738.9	
290.74	3405.8	
290.94	5093.3	
291.15	5156.8	
291.36	3031.7	
291.57	3541.6	
291.78	4633.9	
291.99	4356.7	
292.2	2970.9	
292.41	3489.1	
292.62	5197.1	
292.83	5053	
293.04	4186.7	
293.25	3034.4	
293.46	4605.2	
293.67	5162.2	
293.88	3013.2	
294.09	2986.6	
294.29	4451.6	
294.5	4902.8	
294.71	3238.5	
294.92	3119.7	
295.13	4672.1	
295.34	5631.2	
295.55	2768.2	
295.76	2747.7	
295.97	5057.1	
296.18	5567.1	
296.39	2855.6	
296.6	3052.8	
296.81	4841.4	
297.01	5050.3	
297.22	3139.5	
297.43	3072.6	
297.64	4614.1	
297.85	4444.8	
298.06	2611.8	
298.27	2786.6	
298.48	4758.8	
298.69	4545.1	
298.9	3304.7	
299.11	2984.6	
299.31	4446.8	
299.52	4459.8	
299.73	3482.9	
299.94	3360.7	
300.15	4791.6	
300.36	4539	
300.57	3407.1	
300.78	3330.7	
300.99	4643.4	
301.2	4804.5	
301.4	3045.3	
301.61	3248.1	
301.82	5001.1	
302.03	5067.4	
302.24	3640.6	
302.45	2943.6	
302.66	5030.5	
302.87	5245.5	
303.08	3065.1	
303.29	3967.6	
303.49	4624.3	
303.7	4771.1	
303.91	2783.2	
304.12	3827	
304.33	4401.1	
304.54	4913.8	
304.75	3050.1	
304.96	2895.8	
305.16	5064.6	
305.37	5522.7	
305.58	2679.4	
305.79	2782.5	
306	5006.6	
306.21	4332.8	
306.42	3074	
306.63	4377.2	
306.83	4663.2	
307.04	5119.9	
307.25	3302	
307.46	3237.8	
307.67	4214.7	
307.88	5085.8	
308.09	2993.4	
308.29	3063.8	
308.5	4884.4	
308.71	5162.9	
308.92	3249.4	
309.13	2939.5	
309.34	4744.5	
309.55	4643.4	
309.75	3707.5	
309.96	3439.2	
310.17	5059.8	
310.38	4519.9	
310.59	3533.4	
310.8	3402.4	
311.01	4620.2	
311.21	4719.2	
311.42	2921.1	
311.63	2953.9	
311.84	4605.9	
312.05	4863.2	
312.26	3321.1	
312.46	3594.2	
312.67	4635.9	
312.88	4397.7	
313.09	2935.4	
313.3	2879.4	
313.51	5421.7	
313.71	5569.8	
313.92	2945	
314.13	3110.2	
314.34	4919.9	
314.55	4690.5	
314.76	3633.1	
314.96	3226.2	
315.17	4872.8	
315.38	5006.6	
315.59	3020.1	
315.8	2818.7	
316.01	5363.6	
316.21	5492.7	
316.42	2896.5	
316.63	3219.4	
316.84	4635.9	
317.05	5227.8	
317.26	3416	
317.46	3100.6	
317.67	4687.8	
317.88	5058.5	
318.09	3669.3	
318.3	2779.1	
318.5	4594.3	
318.71	4932.2	
318.92	4547.9	
319.13	3439.9	
319.34	5131.5	
319.54	5205.9	
319.75	2785.9	
319.96	2660.3	
320.17	5038.7	
320.38	5189.6	
320.58	2732.7	
320.79	3206.4	
321	5207.3	
321.21	5252.4	
321.42	3265.1	
321.62	2733.4	
321.83	4541	
322.04	4783.4	
322.25	3144.3	
322.46	2941.6	
322.66	4831.2	
322.87	5019.6	
323.08	3536.2	
323.29	2843.3	
323.5	5560.2	
323.7	4412	
323.91	3887	
324.12	3441.3	
324.33	4893.3	
324.53	5014.8	
324.74	3338.9	
324.95	3543	
325.16	4358.8	
325.37	4654.4	
325.57	2933.4	
325.78	3031	
325.99	4852.3	
326.2	4377.9	
326.4	4084.3	
326.61	2746.3	
326.82	4753.3	
327.03	4797	
327.24	4043.4	
327.44	3807.2	
327.65	4973.2	
327.86	4153.3	
328.07	3434.4	
328.27	2855.6	
328.48	5279	
328.69	4453.6	
328.9	4074.8	
329.1	3110.9	
329.31	4644.1	
329.52	5359.5	
329.73	2994.8	
329.93	3218	
330.14	4846.9	
330.35	4948.6	
330.56	4620.9	
330.76	3545.7	
330.97	4657.1	
331.18	4886.5	
331.39	3263.1	
331.59	2686.9	
331.8	5210.7	
332.01	5294.7	
332.22	3022.8	
332.42	3343	
332.63	4919.2	
332.84	4539	
333.05	3298.6	
333.25	3038.5	
333.46	4567	
333.67	4763.6	
333.88	3089.7	
334.08	3375.1	
334.29	6124.1	
334.5	5205.9	
334.7	2898.6	
334.91	4029.7	
335.12	4432.5	
335.33	5055.1	
335.53	3231	
335.74	4523.3	
335.95	4680.3	
336.16	4425.7	
336.36	3235.8	
336.57	3700.7	
336.78	4422.2	
336.98	5195	
337.19	3906.2	
337.4	3162.7	
337.61	5618.9	
337.81	4418.8	
338.02	2994.1	
338.23	3783.3	
338.43	5331.5	
338.64	4554.7	
338.85	2964.1	
339.05	3851.5	
339.26	5396.4	
339.47	4332.1	
339.68	2940.9	
339.88	4154	
340.09	5008	
340.3	5160.9	
340.5	3376.4	
340.71	2676.7	
340.92	4389.5	
341.13	5341.8	
341.33	2814.6	
341.54	3409.9	
341.75	4955.4	
341.95	4674.8	
342.16	3289	
342.37	3512.9	
342.57	4446.8	
342.78	4701.5	
342.99	3570.3	
343.19	2798.9	
343.4	5086.5	
343.61	4970.4	
343.81	3187.3	
344.02	2901.3	
344.23	5111	
344.43	5354.8	
344.64	3556.6	
344.85	3506.8	
345.06	5032.5	
345.26	5162.2	
345.47	3433.8	
345.68	3823.6	
345.88	4332.8	
346.09	5143.8	
346.3	3450.1	
346.5	2663.7	
346.71	4792.9	
346.92	4536.9	
347.12	2794.1	
347.33	3377.8	
347.54	5119.2	
347.74	5450.3	
347.95	3292.5	
348.16	2613.2	
348.36	4633.9	
348.57	4426.3	
348.78	3371.6	
348.98	3528.7	
349.19	4732.9	
349.39	4290.5	
349.6	2779.8	
349.81	3077.4	
350.01	5008	
350.22	4519.9	
350.43	3293.8	
350.63	3764.8	
350.84	4822.3	
351.05	4549.9	
351.25	2989.4	
351.46	2720.4	
351.67	5126.1	
351.87	4497.3	
352.08	3157.3	
352.29	3544.4	
352.49	5121.3	
352.7	4823.6	
352.9	2923.8	
353.11	3493.8	
353.32	5585.5	
353.52	4607.9	
353.73	2895.8	
353.94	3635.1	
354.14	5016.2	
354.35	4773.1	
354.55	2957.9	
354.76	3231	
354.97	4922.6	
355.17	4747.2	
355.38	2811.9	
355.59	3781.9	
355.79	4526	
356	4827.7	
356.2	3231.7	
356.41	2893.1	
356.62	4379.9	
356.82	4678.2	
357.03	3467.2	
357.24	3107.5	
357.44	4481.6	
357.65	4593.6	
357.85	4113	
358.06	3312.9	
358.27	4260.5	
358.47	4479.6	
358.68	2788.7	
358.88	3443.3	
359.09	4958.1	
359.3	5236.7	
359.5	3938.2	
359.71	3512.9	
359.91	5526.1	
360.12	4981.3	
360.33	3463.8	
360.53	3790.1	
360.74	4498.7	
360.94	4579.3	
361.15	3588.7	
361.36	3051.5	
361.56	5170.4	
361.77	4698	
361.97	3919.8	
362.18	3154.6	
362.38	5143.8	
362.59	4431.1	
362.8	2972.3	
363	2872.6	
363.21	4296	
363.41	4776.5	
363.62	3329.3	
363.83	4052.2	
364.03	4909.7	
364.24	5518.6	
364.44	4192.2	
364.65	4170.3	
364.85	4658.4	
365.06	4497.3	
365.27	3063.8	
365.47	3165.5	
365.68	5412.1	
365.88	4696	
366.09	3379.1	
366.29	3116.3	
366.5	4837.3	
366.71	5189.6	
366.91	4120.5	
367.12	3543	
367.32	5666.7	
367.53	5079	
367.73	3571	
367.94	4263.9	
368.14	5029.1	
368.35	5603.2	
368.56	3502.7	
368.76	2998.9	
368.97	5177.3	
369.17	6318.7	
369.38	3093.1	
369.58	3282.2	
369.79	4400.4	
369.99	5333.6	
370.2	4116.4	
370.4	3423.5	
370.61	4895.3	
370.82	5815.5	
371.02	3353.2	
371.23	2807.8	
371.43	4388.8	
371.64	5374.6	
371.84	3326.6	
372.05	4184.7	
372.25	6165.1	
372.46	5086.5	
372.66	3373	
372.87	3267.2	
373.07	5161.6	
373.28	6347.3	
373.48	4043.4	
373.69	3773.7	
373.9	4814.8	
374.1	4754	
374.31	4037.9	
374.51	3699.3	
374.72	5354.8	
374.92	4521.2	
375.13	4153.3	
375.33	3543.7	
375.54	5009.3	
375.74	4715.8	
375.95	3588.7	
376.15	4459.1	
376.36	5130.8	
376.56	4955.4	
376.77	3647.4	
376.97	3919.8	
377.18	5837.4	
377.38	5183.4	
377.59	4259.8	
377.79	3332	
378	5011.4	
378.2	5251	
378.41	3361.4	
378.61	3280.8	
378.82	5393	
379.02	4703.5	
379.23	3458.3	
379.43	4250.2	
379.64	5494	
379.84	5174.5	
380.05	3418.7	
380.25	3286.3	
380.46	5149.3	
380.66	4898.7	
380.87	4319.8	
381.07	4522.6	
381.28	5699.5	
381.48	5188.9	
381.69	3356.6	
381.89	3396.9	
382.1	4405.9	
382.3	5315.2	
382.51	4182	
382.71	4801.8	
382.91	5122	
383.12	5517.9	
383.32	3643.3	
383.53	3774.4	
383.73	5133.6	
383.94	4997.7	
384.14	3764.2	
384.35	3106.1	
384.55	4816.8	
384.76	5230.5	
384.96	3658.4	
385.17	3850.2	
385.37	5200.5	
385.58	4689.8	
385.78	3865.2	
385.98	3084.2	
386.19	4830.5	
386.39	5132.2	
386.6	3436.5	
386.8	3629	
387.01	5191.6	
387.21	5190.9	
387.42	3919.1	
387.62	4345.1	
387.83	4757.4	
388.03	5029.1	
388.23	3695.2	
388.44	4212.7	
388.64	4481.6	
388.85	4616.1	
389.05	3915.7	
389.26	4349.9	
389.46	5976.7	
389.67	5573.9	
389.87	3977.8	
390.07	3941	
390.28	4928.8	
390.48	4620.2	
390.69	3372.3	
390.89	3629.7	
391.1	4845.5	
391.3	5371.8	
391.5	4478.2	
391.71	4894	
391.91	5303.6	
392.12	5890	
392.32	4498	
392.53	3937.6	
392.73	4872.1	
392.93	4945.8	
393.14	3699.3	
393.34	4243.4	
393.55	5304.2	
393.75	4966.3	
393.95	3703.4	
394.16	3605.8	
394.36	4857.1	
394.57	5307.7	
394.77	3332.7	
394.98	3586.7	
395.18	4704.2	
395.38	4900.8	
395.59	4236.6	
395.79	3489.7	
396	4840	
396.2	5239.4	
396.4	4089.8	
396.61	4098	
396.81	5391.6	
397.02	4789.5	
397.22	4272.7	
397.42	4351.3	
397.63	5451	
397.83	4825.7	
398.04	3495.9	
398.24	3908.2	
398.44	5199.8	
398.65	4472.8	
398.85	3424.9	
399.05	3446	
399.26	4788.2	
399.46	6073.6	
399.67	3743.7	
399.87	3548.4	
400.07	5084.4	
400.28	5313.8	
400.48	3605.8	
400.69	4383.3	
400.89	5451.7	
401.09	5818.3	
401.3	3522.5	
401.5	4326	
401.7	6010.1	
401.91	6167.1	
402.11	3878.9	
402.32	3981.9	
402.52	5581.4	
402.72	5461.9	
402.93	4173.1	
403.13	3345	
403.33	6137.8	
403.54	5163.6	
403.74	3937.6	
403.94	4584.7	
404.15	5184.8	
404.35	6036.7	
404.56	3713.6	
404.76	5004.6	
404.96	5487.9	
405.17	5303.6	
405.37	4371.7	
405.57	4067.9	
405.78	5515.2	
405.98	5070.8	
406.18	3784.6	
406.39	4391.5	
406.59	5550	
406.79	5146.5	
407	3609.2	
407.2	3667.9	
407.4	5564.3	
407.61	5679	
407.81	3657.7	
408.01	4938.3	
408.22	4720.6	
408.42	6143.9	
408.62	4461.2	
408.83	4076.8	
409.03	5218.9	
409.23	5109.7	
409.44	4242	
409.64	4361.5	
409.84	5995.8	
410.05	5817.6	
410.25	4246.8	
410.45	4150.6	
410.66	5522.7	
410.86	7421.2	
411.06	4503.5	
411.27	4286.4	
411.47	7266.9	
411.67	5654.4	
411.88	4506.9	
412.08	4792.9	
412.28	6197.2	
412.49	6574.7	
412.69	4431.1	
412.89	4459.8	
413.09	6390.3	
413.3	6327.5	
413.5	4568.3	
413.7	4289.1	
413.91	5795.1	
414.11	6336.4	
414.31	4375.8	
414.52	4634.6	
414.72	6222.4	
414.92	6074.3	
415.12	4425	
415.33	4786.1	
415.53	6354.8	
415.73	6534.4	
415.94	5098.1	
416.14	4574.5	
416.34	5716.6	
416.55	5496.1	
416.75	5562.3	
416.95	5138.4	
417.15	6490	
417.36	7017.7	
417.56	5685.8	
417.76	4979.3	
417.97	6664.8	
418.17	6425.8	
418.37	4739	
418.57	4703.5	
418.78	6434.7	
418.98	6130.9	
419.18	5336.3	
419.38	5382.7	
419.59	6116.6	
419.79	5808	
419.99	4709.6	
420.2	4863.2	
420.4	6475.7	
420.6	6549.4	
420.8	4666	
421.01	4428.4	
421.21	6434	
421.41	6468.2	
421.61	4907.6	
421.82	4704.9	
422.02	6022.4	
422.22	6779.5	
422.42	5240.8	
422.63	5016.2	
422.83	6023.1	
423.03	7022.5	
423.23	5037.3	
423.44	4284.4	
423.64	6155.5	
423.84	5920	
424.04	4601.1	
424.25	4336.9	
424.45	6822.5	
424.65	6681.8	
424.85	4217.5	
425.06	4646.8	
425.26	6920.8	
425.46	6050.4	
425.66	5039.4	
425.87	4713.1	
426.07	6683.9	
426.27	6466.1	
426.47	4886.5	
426.67	4379.2	
426.88	6930.3	
427.08	6450.4	
427.28	5055.1	
427.48	4349.2	
427.69	5702.2	
427.89	6121.4	
428.09	4958.1	
428.29	4311.7	
428.5	6635.4	
428.7	6328.2	
428.9	4334.2	
429.1	4710.3	
429.3	6296.8	
429.51	6475.7	
429.71	4512.4	
429.91	5177.9	
430.11	6535.8	
430.31	6607.4	
430.52	4803.2	
430.72	4960.9	
430.92	6948.8	
431.12	6436.1	
431.32	4548.5	
431.53	4849.6	
431.73	5737	
431.93	6896.2	
432.13	4463.9	
432.33	4433.9	
432.54	6120	
432.74	6311.8	
432.94	4365.6	
433.14	5122	
433.34	6599.2	
433.55	6214.2	
433.75	5089.9	
433.95	6364.4	
434.15	6345.3	
434.35	6054.5	
434.56	4532.8	
434.76	4190.1	
434.96	6302.3	
435.16	6503.7	
435.36	4400.4	
435.56	5326.1	
435.77	6156.9	
435.97	6281.1	
436.17	5857.2	
436.37	5272.2	
436.57	6081.8	
436.78	6090	
436.98	6551.5	
437.18	5710.4	
437.38	6632.7	
437.58	6268.8	
437.78	5838.1	
437.99	4810	
438.19	6632	
438.39	7190.4	
438.59	4810.7	
438.79	4391.5	
438.99	7180.9	
439.2	6305.7	
439.4	4473.4	
439.6	4409.3	
439.8	6401.3	
440	7271.7	
440.2	5180.7	
440.4	5263.3	
440.61	6653.9	
440.81	7122.8	
441.01	4669.4	
441.21	5366.4	
441.41	7174	
441.61	6726.9	
441.81	5590.3	
442.02	6312.5	
442.22	7527	
442.42	6959	
442.62	4762.9	
442.82	4771.8	
443.02	7235.5	
443.22	6582.9	
443.43	5087.2	
443.63	4706.9	
443.83	6345.3	
444.03	6348	
444.23	5736.4	
444.43	5408.7	
444.63	6667.5	
444.83	7577.5	
445.04	4840	
445.24	5808.7	
445.44	6925.5	
445.64	6959.7	
445.84	5504.9	
446.04	5510.4	
446.24	6414.9	
446.44	7230.7	
446.65	4901.5	
446.85	5163.6	
447.05	6701	
447.25	7147.4	
447.45	5244.8	
447.65	4756.7	
447.85	6670.9	
448.05	6311.8	
448.25	5478.3	
448.46	5302.9	
448.66	6758.3	
448.86	6421.7	
449.06	4690.5	
449.26	5506.3	
449.46	6939.9	
449.66	6227.9	
449.86	5254.4	
450.06	5120.6	
450.26	6370.5	
450.47	6809.5	
450.67	5354.1	
450.87	5615.5	
451.07	7000.6	
451.27	6738.5	
451.47	4822.3	
451.67	5386.2	
451.87	6542.6	
452.07	7389.1	
452.27	5065.3	
452.47	5012.1	
452.67	6783.6	
452.88	7120.8	
453.08	4569.7	
453.28	6038.1	
453.48	7707.2	
453.68	6628.6	
453.88	4993.6	
454.08	5132.2	
454.28	7004.1	
454.48	6735.1	
454.68	5554.8	
454.88	5905.7	
455.08	7139.9	
455.28	6862.7	
455.48	4865.3	
455.68	5377.3	
455.89	7413.6	
456.09	7179.5	
456.29	5220.3	
456.49	5241.4	
456.69	7380.9	
456.89	6791.1	
457.09	5638.1	
457.29	5879	
457.49	7120.8	
457.69	7154.9	
457.89	5513.1	
458.09	5026.4	
458.29	6920.1	
458.49	7516	
458.69	5919.3	
458.89	5403.2	
459.09	7795.3	
459.29	7817.8	
459.49	5524.1	
459.69	6155.5	
459.9	7392.5	
460.1	6997.2	
460.3	5421.7	
460.5	5262.6	
460.7	7437.5	
460.9	7062.1	
461.1	5042.1	
461.3	6024.4	
461.5	7899	
461.7	7575.4	
461.9	5409.4	
462.1	5713.8	
462.3	7274.4	
462.5	7619.1	
462.7	5492	
462.9	5564.3	
463.1	8348.9	
463.3	8196	
463.5	5732.9	
463.7	6450.4	
463.9	7369.3	
464.1	7701	
464.3	5916.6	
464.5	6133.7	
464.7	7945.4	
464.9	7712	
465.1	7086.7	
465.3	6309.8	
465.5	8164.6	
465.7	8229.4	
465.9	6638.8	
466.1	6305	
466.3	8063.5	
466.5	7911.3	
466.7	7115.3	
466.9	6220.4	
467.1	7982.3	
467.3	8669.1	
467.5	7041.6	
467.7	6257.2	
467.9	8825.4	
468.1	9537.4	
468.3	6748.7	
468.5	7111.9	
468.7	8005.5	
468.9	7925	
469.1	6527.6	
469.3	6985.6	
469.5	9544.9	
469.7	7806.2	
469.9	6886	
470.1	6298.2	
470.3	8109.3	
470.5	8097.7	
470.7	7266.9	
470.9	6494.1	
471.1	7940	
471.3	8120.2	
471.5	6299.6	
471.69	7695.6	
471.89	7820.5	
472.09	7476.5	
472.29	6917.4	
472.49	6988.4	
472.69	7653.3	
472.89	8129.1	
473.09	6313.9	
473.29	6357.6	
473.49	7704.5	
473.69	7743.4	
473.89	6923.5	
474.09	6443.6	
474.29	8771.5	
474.49	8413.7	
474.69	7075	
474.89	6482.5	
475.09	7811.6	
475.29	7795.9	
475.49	6124.8	
475.69	6258.6	
475.88	9029.5	
476.08	8163.2	
476.28	6041.5	
476.48	6314.6	
476.68	8549.6	
476.88	8280.6	
477.08	6319.3	
477.28	6441.5	
477.48	7897.7	
477.68	8332.5	
477.88	6124.8	
478.08	6294.8	
478.28	8677.2	
478.48	7981.6	
478.67	6396.5	
478.87	5876.3	
479.07	8458.1	
479.27	8011.7	
479.47	6457.2	
479.67	6526.2	
479.87	8401.5	
480.07	8800.1	
480.27	6035.4	
480.47	7118.1	
480.67	8041	
480.87	8548.2	
481.06	6182.1	
481.26	6858.6	
481.46	8055.3	
481.66	8008.2	
481.86	6522.8	
482.06	7264.8	
482.26	7842.4	
482.46	8527.7	
482.66	6488	
482.86	6215.6	
483.05	8217.1	
483.25	7664.2	
483.45	8372.8	
483.65	6500.3	
483.85	7795.3	
484.05	7988.4	
484.25	6957.6	
484.45	7272.3	
484.65	8667.7	
484.84	8738.7	
485.04	6496.8	
485.24	6522.8	
485.44	8984.4	
485.64	7626	
485.84	6053.8	
486.04	6995.9	
486.24	8014.4	
486.44	8275.8	
486.63	6044.2	
486.83	6726.9	
487.03	7937.2	
487.23	8095.6	
487.43	6121.4	
487.63	7884	
487.83	8193.2	
488.02	8794.7	
488.22	6860.7	
488.42	7356.3	
488.62	8816.5	
488.82	7999.4	
489.02	6644.3	
489.22	6640.2	
489.41	8734.6	
489.61	8535.9	
489.81	6504.3	
490.01	6458.6	
490.21	8775.5	
490.41	9325.1	
490.61	6590.4	
490.8	6593.8	
491	8510	
491.2	7932.5	
491.4	7109.9	
491.6	6466.8	
491.8	8456.1	
491.99	8486.8	
492.19	6247	
492.39	6485.2	
492.59	8689.5	
492.79	8815.1	
492.99	7152.2	
493.18	6450.4	
493.38	8867.7	
493.58	9357.2	
493.78	6954.9	
493.98	6804.7	
494.18	8607.6	
494.37	8208.3	
494.57	7322.9	
494.77	7219.8	
494.97	8768	
495.17	9069.1	
495.37	6947.4	
495.56	7219.8	
495.76	9289.6	
495.96	9023.4	
496.16	7928.4	
496.36	7182.9	
496.55	9288.9	
496.75	8901.2	
496.95	7457.3	
497.15	7407.5	
497.35	9200.8	
497.54	9253.4	
497.74	7228.6	
497.94	8561.9	
498.14	9753.1	
498.34	9518.3	
498.53	7011.6	
498.73	7640.3	
498.93	8775.5	
499.13	9243.8	
499.33	7578.8	
499.52	7781.6	
499.72	9283.4	
499.92	9396.8	
500.12	7321.5	
500.32	7499	
500.51	9503.9	
500.71	9352.4	
500.91	8127.7	
501.11	7951.6	
501.31	9461.6	
501.5	9768.8	
501.7	8399.4	
501.9	7541.3	
502.1	9313.5	
502.29	9658.9	
502.49	7998	
502.69	8272.4	
502.89	9520.3	
503.09	9497.1	
503.28	7210.2	
503.48	7380.2	
503.68	9018.6	
503.88	8944.2	
504.07	8066.3	
504.27	7695.6	
504.47	9232.2	
504.67	9161.2	
504.86	8028.7	
505.06	7722.9	
505.26	9037	
505.46	10141	
505.65	7572.7	
505.85	7770	
506.05	8942.1	
506.25	9341.5	
506.44	7040.2	
506.64	7773.4	
506.84	8742.8	
507.04	9394	
507.23	7161.1	
507.43	7531.1	
507.63	10126	
507.83	8947.6	
508.02	7574.8	
508.22	7355.6	
508.42	10366	
508.62	8746.2	
508.81	7518.8	
509.01	7907.9	
509.21	8630.8	
509.4	8887.5	
509.6	7726.3	
509.8	7088	
510	8844.5	
510.19	9873.9	
510.39	7085.3	
510.59	7189.7	
510.79	8719.6	
510.98	9785.2	
511.18	7320.8	
511.38	7409.6	
511.57	9461.6	
511.77	9189.9	
511.97	7908.6	
512.17	7186.3	
512.36	9453.4	
512.56	9208.4	
512.76	7076.4	
512.95	7019.1	
513.15	9569.5	
513.35	8300.4	
513.55	7731.1	
513.74	7103.7	
513.94	9342.2	
514.14	8876.6	
514.33	7946.1	
514.53	7702.4	
514.73	8923.7	
514.92	9028.8	
515.12	7339.2	
515.32	7106.5	
515.51	9121	
515.71	9430.9	
515.91	8500.4	
516.11	7253.2	
516.3	10273	
516.5	8785.8	
516.7	7695.6	
516.89	8125.7	
517.09	8988.5	
517.29	8902.5	
517.48	7940	
517.68	7441.6	
517.88	8729.1	
518.07	9225.4	
518.27	7856	
518.47	7116.7	
518.66	9560.6	
518.86	8568.7	
519.06	7044.3	
519.25	7400	
519.45	8811	
519.65	9960	
519.84	7918.1	
520.04	8413.1	
520.24	10285	
520.43	9325.8	
520.63	7709.2	
520.83	7488.1	
521.02	8921.6	
521.22	9339.4	
521.42	7897	
521.61	8236.9	
521.81	8942.1	
522.01	9029.5	
522.2	7713.3	
522.4	7469.6	
522.6	9349	
522.79	8449.9	
522.99	7535.2	
523.18	7017.7	
523.38	9189.9	
523.58	9300.5	
523.77	8549.6	
523.97	7204.8	
524.17	10706	
524.36	10023	
524.56	8183.7	
524.76	7926.3	
524.95	9347.6	
525.15	9112.8	
525.34	7928.4	
525.54	7961.1	
525.74	9753.8	
525.93	9045.2	
526.13	8878.6	
526.33	7885.4	
526.52	10139	
526.72	9738.1	
526.91	9009.7	
527.11	8363.9	
527.31	10015	
527.5	10361	
527.7	8401.5	
527.89	7603.4	
528.09	9249.3	
528.29	9655.5	
528.48	8609	
528.68	8353	
528.87	9998.2	
529.07	10127	
529.27	8363.9	
529.46	8035.5	
529.66	10056	
529.85	10391	
530.05	8041	
530.25	8553.7	
530.44	11022	
530.64	9949	
530.83	8306.6	
531.03	8398.7	
531.23	10176	
531.42	10031	
531.62	8976.2	
531.81	8333.2	
532.01	10404	
532.21	10638	
532.4	8172.8	
532.6	8507.9	
532.79	11006	
532.99	10490	
533.18	8578.3	
533.38	9443.2	
533.58	10265	
533.77	10748	
533.97	8680.7	
534.16	9298.5	
534.36	10950	
534.55	10178	
534.75	9411.1	
534.95	8832.2	
535.14	10945	
535.34	10227	
535.53	8639	
535.73	10087	
535.92	11378	
536.12	10422	
536.31	8673.8	
536.51	9665	
536.71	10592	
536.9	10312	
537.1	8757.8	
537.29	8822	
537.49	10897	
537.68	10142	
537.88	9112.1	
538.07	8584.4	
538.27	10413	
538.46	11160	
538.66	8506.6	
538.86	8749.6	
539.05	10584	
539.25	10821	
539.44	9098.4	
539.64	8774.9	
539.83	10310	
540.03	11222	
540.22	8719.6	
540.42	8750.3	
540.61	10694	
540.81	10716	
541	8948.9	
541.2	9563.3	
541.39	10139	
541.59	10441	
541.78	9323.7	
541.98	8656.1	
542.18	9975.7	
542.37	9984.5	
542.57	8895.7	
542.76	9389.9	
542.96	9995.5	
543.15	10520	
543.35	9044.5	
543.54	8426	
543.74	10542	
543.93	10293	
544.13	8807.6	
544.32	9651.4	
544.52	10585	
544.71	9966.1	
544.91	8186.4	
545.1	9055.4	
545.3	9949	
545.49	10414	
545.69	8082	
545.88	8532.5	
546.08	11155	
546.27	10801	
546.47	8976.9	
546.66	8357.1	
546.86	10598	
547.05	10915	
547.24	8556.4	
547.44	8464.9	
547.63	9841.9	
547.83	10585	
548.02	8730.5	
548.22	8880	
548.41	9742.9	
548.61	10689	
548.8	8393.9	
549	8376.9	
549.19	10212	
549.39	10423	
549.58	8131.1	
549.78	8527.7	
549.97	10477	
550.17	9944.3	
550.36	9214.5	
550.55	9920.4	
550.75	10019	
550.94	10710	
551.14	8217.8	
551.33	8520.2	
551.53	9480	
551.72	10232	
551.92	8543.4	
552.11	8363.2	
552.31	10259	
552.5	10305	
552.69	9648.7	
552.89	8024.6	
553.08	10279	
553.28	10050	
553.47	8475.2	
553.67	9291	
553.86	10645	
554.06	9460.9	
554.25	7787.7	
554.44	8166.6	
554.64	11297	
554.83	10845	
555.03	8069.7	
555.22	8419.2	
555.42	10407	
555.61	10202	
555.8	8287.4	
556	8486.8	
556.19	9480	
556.39	10362	
556.58	8318.8	
556.78	8343.4	
556.97	10099	
557.16	9753.8	
557.36	9190.6	
557.55	8011	
557.75	9217.9	
557.94	10725	
558.13	8174.8	
558.33	7988.4	
558.52	10475	
558.72	9598.1	
558.91	8086.1	
559.1	8110.6	
559.3	9351.7	
559.49	9115.5	
559.69	7740.6	
559.88	8376.9	
560.07	9934	
560.27	10278	
560.46	8643.8	
560.66	8767.4	
560.85	9889	
561.04	9203.6	
561.24	8006.2	
561.43	8138.6	
561.63	9426.1	
561.82	9645.9	
562.01	8884.1	
562.21	8294.3	
562.4	9753.8	
562.59	10579	
562.79	8191.2	
562.98	7923.6	
563.18	9805.7	
563.37	10950	
563.56	8609.7	
563.76	7920.9	
563.95	9527.2	
564.14	9516.2	
564.34	8285.4	
564.53	8021.2	
564.73	9945.6	
564.92	10068	
565.11	8378.9	
565.31	7944.8	
565.5	10367	
565.69	9480.7	
565.89	8187.1	
566.08	8333.9	
566.27	10297	
566.47	10535	
566.66	8857.5	
566.85	7834.8	
567.05	10019	
567.24	9521.7	
567.44	8110	
567.63	9102.5	
567.82	10187	
568.02	9940.8	
568.21	8130.4	
568.4	8383.7	
568.6	9927.9	
568.79	9817.3	
568.98	7983.7	
569.18	8022.6	
569.37	9919.7	
569.56	11470	
569.76	8406.9	
569.95	9138.7	
570.14	10253	
570.34	10161	
570.53	8115.4	
570.72	7978.2	
570.91	10677	
571.11	9841.9	
571.3	8450.6	
571.49	9157.8	
571.69	10023	
571.88	9512.8	
572.07	8788.5	
572.27	8789.2	
572.46	9596.8	
572.65	10408	
572.85	8269.7	
573.04	8446.5	
573.23	10619	
573.43	10089	
573.62	8101.8	
573.81	8619.2	
574	10138	
574.2	9891.7	
574.39	8347.5	
574.58	8467	
574.78	10744	
574.97	10154	
575.16	8805.6	
575.36	9000.8	
575.55	10584	
575.74	10597	
575.93	8155	
576.13	9035.6	
576.32	10138	
576.51	10516	
576.71	8572.1	
576.9	9596.8	
577.09	10899	
577.28	10477	
577.48	8882	
577.67	8282.7	
577.86	10184	
578.05	10343	
578.25	8685.4	
578.44	8671.8	
578.63	10258	
578.83	11261	
579.02	8307.9	
579.21	9524.4	
579.4	10482	
579.6	10290	
579.79	8858.8	
579.98	10505	
580.17	10656	
580.37	10933	
580.56	8408.3	
580.75	9038.4	
580.94	11017	
581.14	10967	
581.33	9225.4	
581.52	8563.9	
581.71	10602	
581.91	11112	
582.1	8305.2	
582.29	8749.6	
582.48	10226	
582.68	10301	
582.87	9185.1	
583.06	8942.8	
583.25	10781	
583.45	10494	
583.64	9387.2	
583.83	9916.3	
584.02	10351	
584.21	10642	
584.41	9335.3	
584.6	8844.5	
584.79	10553	
584.98	10916	
585.18	8450.6	
585.37	8557.8	
585.56	10228	
585.75	10728	
585.94	8544.1	
586.14	9191.3	
586.33	11058	
586.52	10382	
586.71	9017.9	
586.91	8856.8	
587.1	9979.1	
587.29	10764	
587.48	8680	
587.67	8667	
587.87	10664	
588.06	10479	
588.25	9566.1	
588.44	9028.8	
588.63	10256	
588.83	10659	
589.02	8625.4	
589.21	8520.9	
589.4	10145	
589.59	10069	
589.78	7953.6	
589.98	8247.2	
590.17	9665.7	
590.36	10001	
590.55	7542	
590.74	8150.2	
590.94	10798	
591.13	9686.2	
591.32	7813	
591.51	7522.2	
591.7	9865.1	
591.89	9594.7	
592.09	7515.4	
592.28	7921.5	
592.47	9034.3	
592.66	10573	
592.85	7710.6	
593.05	7830.1	
593.24	9555.8	
593.43	10318	
593.62	7909.3	
593.81	8243.1	
594	9615.2	
594.19	9804.3	
594.39	7791.2	
594.58	7748.8	
594.77	9826.8	
594.96	10258	
595.15	7715.4	
595.34	8248.5	
595.54	9790	
595.73	9090.3	
595.92	7246.4	
596.11	8036.9	
596.3	10135	
596.49	9267.7	
596.68	7860.1	
596.88	8138.6	
597.07	9957.9	
597.26	8996.7	
597.45	7477.8	
597.64	8349.6	
597.83	9297.1	
598.02	9743.6	
598.22	7596.6	
598.41	8094.3	
598.6	9600.2	
598.79	9084.8	
598.98	7606.8	
599.17	8250.6	
599.36	9658.9	
599.55	10415	
599.74	9082.1	
599.94	8941.4	
600.13	9963.4	
600.32	9084.8	
600.51	7430	
600.7	7477.1	
600.89	10342	
601.08	10380	
601.27	7377.5	
601.47	8142	
601.66	9815.9	
601.85	10301	
602.04	7912	
602.23	7935.9	
602.42	9044.5	
602.61	9607	
602.8	7858.7	
602.99	7560.4	
603.18	9408.4	
603.37	9586.5	
603.57	8073.1	
603.76	8557.8	
603.95	10101	
604.14	9769.5	
604.33	7615.7	
604.52	7851.2	
604.71	9667.1	
604.9	9194	
605.09	8282	
605.28	8209.6	
605.47	10118	
605.66	9780.4	
605.86	8131.1	
606.05	7659.4	
606.24	10013	
606.43	8908	
606.62	7966.6	
606.81	8479.3	
607	9876	
607.19	9308	
607.38	7481.2	
607.57	7561.1	
607.76	9136.7	
607.95	8744.8	
608.14	7920.9	
608.33	8389.8	
608.52	9168.1	
608.72	9819.3	
608.91	7357.7	
609.1	7340.6	
609.29	9237	
609.48	8909.3	
609.67	7972.1	
609.86	7313.3	
610.05	8973.5	
610.24	9166.7	
610.43	7243.7	
610.62	6966.5	
610.81	10084	
611	9729.9	
611.19	7352.2	
611.38	7871.7	
611.57	9422	
611.76	10269	
611.95	7231.4	
612.14	6994.5	
612.33	9177.6	
612.52	8864.3	
612.71	7576.1	
612.9	7005.4	
613.09	8574.2	
613.28	10232	
613.47	7507.9	
613.66	8038.3	
613.85	9325.8	
614.04	8843.1	
614.24	7348.1	
614.43	6868.2	
614.62	9412.5	
614.81	9307.3	
615	7776.8	
615.19	7811.6	
615.38	8875.9	
615.57	9166	
615.76	7735.9	
615.95	8527.1	
616.14	9587.2	
616.33	9192.6	
616.52	7927.7	
616.71	8133.2	
616.9	9353.1	
617.09	9116.9	
617.28	7502.4	
617.47	8397.4	
617.66	8834.3	
617.85	8698.4	
618.04	8108.6	
618.22	7721.5	
618.41	9039.1	
618.6	9760.6	
618.79	7811.6	
618.98	7593.2	
619.17	10111	
619.36	8758.5	
619.55	7718.8	
619.74	7722.9	
619.93	9446.6	
620.12	9101.2	
620.31	8162.5	
620.5	8280.6	
620.69	9879.4	
620.88	10281	
621.07	8834.3	
621.26	8026.7	
621.45	9656.9	
621.64	9585.2	
621.83	8264.9	
622.02	7544.7	
622.21	9774.3	
622.4	9572.2	
622.59	8561.2	
622.78	8454	
622.97	9291	
623.16	10097	
623.35	8156.4	
623.54	7458.7	
623.72	9404.3	
623.91	9511.4	
624.1	8416.5	
624.29	7475.8	
624.48	10404	
624.67	9802.3	
624.86	8295.6	
625.05	7550.2	
625.24	10422	
625.43	9290.3	
625.62	9538.8	
625.81	7865.6	
626	10019	
626.19	9478.7	
626.38	8355.7	
626.56	7937.9	
626.75	9303.9	
626.94	9852.8	
627.13	8329.1	
627.32	7449.8	
627.51	9846.6	
627.7	10738	
627.89	7562.5	
628.08	8427.4	
628.27	9207	
628.46	9346.2	
628.65	7714	
628.83	7523.6	
629.02	9802.9	
629.21	9146.9	
629.4	8175.5	
629.59	8273.8	
629.78	9273.2	
629.97	9848.7	
630.16	8224.6	
630.35	7837.6	
630.54	10363	
630.72	10076	
630.91	7919.5	
631.1	8163.9	
631.29	9563.3	
631.48	9666.4	
631.67	8323.6	
631.86	7854.6	
632.05	9437	
632.24	9444.5	
632.42	7666.9	
632.61	8079.2	
632.8	9413.1	
632.99	9141.4	
633.18	8106.5	
633.37	8272.4	
633.56	9691	
633.75	9542.2	
633.93	8157.7	
634.12	7906.5	
634.31	10398	
634.5	9949	
634.69	7925.6	
634.88	8270.4	
635.07	9428.8	
635.25	9936.7	
635.44	8639.7	
635.63	8735.3	
635.82	9392.7	
636.01	8887.5	
636.2	8566.7	
636.39	8087.4	
636.57	10222	
636.76	9906.7	
636.95	7788.4	
637.14	8740	
637.33	9782.5	
637.52	10284	
637.7	7578.8	
637.89	8333.9	
638.08	9446.6	
638.27	10390	
638.46	8369.4	
638.65	8701.8	
638.83	10419	
639.02	9236.3	
639.21	8381	
639.4	8621.9	
639.59	9566.1	
639.78	9297.1	
639.96	7691.5	
640.15	7699	
640.34	9537.4	
640.53	9502.6	
640.72	7484.6	
640.91	7733.1	
641.09	8908.7	
641.28	9972.9	
641.47	7740.6	
641.66	8328.4	
641.85	9478.7	
642.03	9613.8	
642.22	8072.4	
642.41	7802.8	
642.6	9106	
642.79	8598.7	
642.97	7547.4	
643.16	8114.7	
643.35	9043.8	
643.54	8840.4	
643.73	7542.7	
643.91	8133.2	
644.1	8754.4	
644.29	9278	
644.48	7508.5	
644.67	7598	
644.85	8882	
645.04	9185.1	
645.23	7186.3	
645.42	7438.2	
645.6	8770.8	
645.79	9559.2	
645.98	7286	
646.17	6637.5	
646.36	8490.9	
646.54	8816.5	
646.73	7912.7	
646.92	7060	
647.11	8608.3	
647.29	9298.5	
647.48	7034.1	
647.67	6821.8	
647.86	9551	
648.05	9385.8	
648.23	7232.1	
648.42	8222.6	
648.61	8955.1	
648.8	8845.2	
648.98	6905.1	
649.17	7138.5	
649.36	8433.5	
649.55	8081.3	
649.73	6974.7	
649.92	7524.9	
650.11	8323.6	
650.3	8617.9	
650.48	7041.6	
650.67	6873.7	
650.86	8884.1	
651.05	8018.5	
651.23	6996.5	
651.42	7093.5	
651.61	8417.8	
651.79	8399.4	
651.98	7129	
652.17	6750.8	
652.36	8715.5	
652.54	8010.3	
652.73	6805.4	
652.92	6744.6	
653.11	8789.9	
653.29	8807.6	
653.48	6327.5	
653.67	7105.8	
653.85	8576.9	
654.04	9397.4	
654.23	7237.5	
654.42	6924.2	
654.6	8213.7	
654.79	8623.3	
654.98	6443.6	
655.16	6862.7	
655.35	7776.1	
655.54	7662.1	
655.73	6343.9	
655.91	6256.5	
656.1	8433.5	
656.29	7577.5	
656.47	5875.6	
656.66	7183.6	
656.85	7784.3	
657.03	7847.1	
657.22	6343.2	
657.41	6526.2	
657.59	8045.1	
657.78	7802.1	
657.97	6213.5	
658.16	6802.7	
658.34	8474.5	
658.53	8772.8	
658.72	7475.8	
658.9	7881.9	
659.09	8224	
659.28	8183.7	
659.46	6630	
659.65	6572.6	
659.84	7977.5	
660.02	8412.4	
660.21	6673.6	
660.4	6472.9	
660.58	8688.8	
660.77	8207.6	
660.96	6920.1	
661.14	6210.1	
661.33	9056.8	
661.52	8992.6	
661.7	6240.8	
661.89	8894.3	
662.08	7869	
662.26	7569.3	
662.45	6474.3	
662.64	6556.2	
662.82	8397.4	
663.01	7781.6	
663.2	6479.1	
663.38	7086	
663.57	8305.9	
663.75	8254	
663.94	6752.8	
664.13	7638.2	
664.31	7954.3	
664.5	8421.9	
664.69	6928.3	
664.87	7291.5	
665.06	7664.2	
665.25	8136.6	
665.43	7482.6	
665.62	7504.4	
665.8	8442.4	
665.99	7983	
666.18	6687.3	
666.36	6666.1	
666.55	8375.5	
666.74	8332.5	
666.92	6363	
667.11	7598	
667.29	7985.7	
667.48	8355	
667.67	7271	
667.85	6630.6	
668.04	7908.6	
668.22	7890.8	
668.41	6815.6	
668.6	6875.7	
668.78	7836.2	
668.97	7985.7	
669.15	6933.1	
669.34	6167.8	
669.53	7783.6	
669.71	8034.9	
669.9	6346.7	
670.08	6799.9	
670.27	7714.7	
670.46	8251.9	
670.64	6907.1	
670.83	7151.5	
671.01	7520.8	
671.2	8026.7	
671.38	6413.6	
671.57	6301.6	
671.76	8662.2	
671.94	9024.7	
672.13	6248.4	
672.31	7045	
672.5	8243.8	
672.69	7844.4	
672.87	6376	
673.06	6728.3	
673.24	8181.6	
673.43	7855.3	
673.61	6870.3	
673.8	6558.3	
673.98	8292.9	
674.17	8410.3	
674.36	6995.9	
674.54	6923.5	
674.73	7955.7	
674.91	8371.4	
675.1	6691.4	
675.28	6392.4	
675.47	7928.4	
675.65	8406.2	
675.84	6550.8	
676.03	6763.1	
676.21	7809.6	
676.4	7353.6	
676.58	7167.2	
676.77	6972.7	
676.95	8962.6	
677.14	7790.5	
677.32	6300.2	
677.51	6143.2	
677.69	8311.3	
677.88	7538.6	
678.06	6229.2	
678.25	6403.3	
678.44	7958.4	
678.62	7686.7	
678.81	6158.9	
678.99	6900.3	
679.18	8537.3	
679.36	8239.7	
679.55	6573.3	
679.73	7019.1	
679.92	8212.4	
680.1	7774.1	
680.29	7436.2	
680.47	6563.1	
680.66	7758.4	
680.84	8352.3	
681.03	6023.1	
681.21	6735.1	
681.4	7714.7	
681.58	7698.3	
681.77	6410.8	
681.95	6283.2	
682.14	8366	
682.32	8658.8	
682.51	7111.2	
682.69	6133.7	
682.88	7707.9	
683.06	8056.7	
683.25	6837.5	
683.43	7166.5	
683.62	7968	
683.8	8177.5	
683.99	7204.8	
684.17	6716	
684.36	8886.1	
684.54	7791.8	
684.73	6114.6	
684.91	6222.4	
685.1	8089.5	
685.28	7613	
685.46	6621.1	
685.65	6552.1	
685.83	7974.1	
686.02	7395.9	
686.2	5855.1	
686.39	5997.8	
686.57	7197.9	
686.76	8301.1	
686.94	5992.4	
687.13	6135.7	
687.31	7800.7	
687.5	7544.7	
687.68	5747.3	
687.86	6642.2	
688.05	8886.1	
688.23	7179.5	
688.42	6668.2	
688.6	6072.2	
688.79	7421.2	
688.97	7493.5	
689.16	6459.3	
689.34	5670.1	
689.52	8160.5	
689.71	8232.2	
689.89	6744.6	
690.08	6119.3	
690.26	7793.9	
690.45	7641.7	
690.63	6887.3	
690.81	6367.1	
691	7687.4	
691.18	7547.4	
691.37	6481.1	
691.55	8080.6	
691.74	7536.5	
691.92	8957.8	
692.1	6516.6	
692.29	5993.7	
692.47	7624.6	
692.66	7115.3	
692.84	6120	
693.02	6532.3	
693.21	7130.3	
693.39	7533.8	
693.58	6611.5	
693.76	6144.6	
693.94	8445.1	
694.13	8274.5	
694.31	6233.3	
694.5	6858	
694.68	7505.1	
694.86	7808.9	
695.05	6468.9	
695.23	6627.9	
695.42	8145.5	
695.6	9799.5	
695.78	7038.2	
695.97	6436.8	
696.15	8174.1	
696.34	7690.1	
696.52	6251.1	
696.7	6797.9	
696.89	8067.6	
697.07	7419.1	
697.25	6749.4	
697.44	7772	
697.62	7903.8	
697.81	8130.4	
697.99	6484.6	
698.17	6748.7	
698.36	7428	
698.54	7888.8	
698.72	6681.2	
698.91	6014.2	
699.09	7692.2	
699.28	7494.9	
699.46	6440.2	
699.64	6294.1	
699.83	7462.8	
700.01	8190.5	
700.19	6904.4	
700.38	5739.8	
700.56	8237.6	
700.74	7458	
700.93	5962.3	
701.11	6659.3	
701.29	7918.1	
701.48	8733.9	
701.66	6229.9	
701.84	6214.2	
702.03	7626	
702.21	8256.7	
702.39	5961.6	
702.58	6429.3	
702.76	7933.8	
702.94	8034.2	
703.13	6008.1	
703.31	7742.7	
703.49	7548.1	
703.68	8211	
703.86	5973.9	
704.04	6775.4	
704.23	7812.3	
704.41	8055.3	
704.59	6201.2	
704.78	7030	
704.96	9022	
705.14	8030.1	
705.33	6025.8	
705.51	6637.5	
705.69	7627.3	
705.87	8273.8	
706.06	6816.3	
706.24	5986.9	
706.42	7936.6	
706.61	8056.7	
706.79	6808.1	
706.97	6006.7	
707.16	7468.9	
707.34	7821.9	
707.52	6801.3	
707.7	6141.2	
707.89	7499	
708.07	7280.5	
708.25	6829.3	
708.44	7018.4	
708.62	7430.7	
708.8	8349.6	
708.98	6965.1	
709.17	6175.3	
709.35	7656	
709.53	7748.1	
709.72	5937.1	
709.9	6238.8	
710.08	7950.9	
710.26	8047.8	
710.45	7095.5	
710.63	6194.4	
710.81	7621.9	
710.99	7617.1	
711.18	6670.2	
711.36	6199.2	
711.54	7494.2	
711.72	8072.4	
711.91	6275.7	
712.09	5861.3	
712.27	7621.2	
712.45	7931.1	
712.64	6343.2	
712.82	5685.8	
713	7078.5	
713.18	7226.6	
713.37	5706.3	
713.55	6704.4	
713.73	7903.8	
713.91	6820.4	
714.1	5902.2	
714.28	5532.9	
714.46	7544.7	
714.64	6876.4	
714.83	5008	
715.01	5513.1	
715.19	6800.6	
715.37	6197.8	
715.55	5135.6	
715.74	5329.5	
715.92	7285.3	
716.1	5849	
716.28	6152.8	
716.47	5340.4	
716.65	6384.9	
716.83	6376.7	
717.01	5268.7	
717.19	5263.3	
717.38	7901.7	
717.56	6033.3	
717.74	5373.2	
717.92	4850.3	
718.1	6905.1	
718.29	6242.9	
718.47	4442.7	
718.65	4915.1	
718.83	6908.5	
719.01	6955.6	
719.2	4547.9	
719.38	5333.6	
719.56	6751.5	
719.74	7914	
719.92	5069.4	
720.11	5894.7	
720.29	6851.8	
720.47	6164.4	
720.65	4773.1	
720.83	5311.1	
721.02	6361	
721.2	6142.5	
721.38	5340.4	
721.56	4660.5	
721.74	5748.6	
721.92	5823.1	
722.11	5598.5	
722.29	5335.6	
722.47	6724.8	
722.65	6159.6	
722.83	4662.5	
723.01	5320.6	
723.2	6132.3	
723.38	6374.6	
723.56	4250.2	
723.74	5126.1	
723.92	5809.4	
724.1	6632	
724.29	4586.8	
724.47	5458.5	
724.65	5917.3	
724.83	5749.3	
725.01	4487.8	
725.19	5094	
725.37	5747.3	
725.56	5737.7	
725.74	4361.5	
725.92	4575.2	
726.1	5754.1	
726.28	6019	
726.46	4856.4	
726.64	4644.8	
726.83	5976.7	
727.01	6097.5	
727.19	4356.7	
727.37	4944.5	
727.55	6120	
727.73	6440.9	
727.91	4330.1	
728.09	4221.5	
728.28	6453.1	
728.46	6756.9	
728.64	4962.9	
728.82	4925.4	
729	7175.4	
729.18	6680.5	
729.36	4361.5	
729.54	6102.3	
729.72	7347.4	
729.91	6113.2	
730.09	5894.1	
730.27	4851.6	
730.45	6011.5	
730.63	6451.8	
730.81	5347.2	
730.99	4640.7	
731.17	6972.7	
731.35	5802.6	
731.53	5000.5	
731.71	4711.7	
731.9	6746.7	
732.08	6742.6	
732.26	4930.8	
732.44	4691.9	
732.62	6799.3	
732.8	6412.9	
732.98	5184.1	
733.16	4429.1	
733.34	6425.2	
733.52	5390.9	
733.7	4814.8	
733.88	4980	
734.07	6275	
734.25	6045.6	
734.43	4363.5	
734.61	5509	
734.79	7232.1	
734.97	5953.4	
735.15	4498	
735.33	4746.5	
735.51	6268.8	
735.69	5957.5	
735.87	5502.2	
736.05	4874.8	
736.23	6150.7	
736.41	5842.9	
736.59	4655.7	
736.77	4777.9	
736.95	6454.5	
737.13	5929.6	
737.32	4446.8	
737.5	4590.2	
737.68	6774	
737.86	5824.4	
738.04	4226.3	
738.22	5659.2	
738.4	5790.3	
738.58	5912.5	
738.76	4700.8	
738.94	3899.3	
739.12	5787.6	
739.3	5648.3	
739.48	5161.6	
739.66	4892.6	
739.84	5946.6	
740.02	5894.7	
740.2	3987.4	
740.38	4202.4	
740.56	6178	
740.74	5321.3	
740.92	4715.8	
741.1	4543.1	
741.28	5758.2	
741.46	5558.9	
741.64	4346.5	
741.82	4734.2	
742	5792.3	
742.18	5718.6	
742.36	4485.7	
742.54	4192.2	
742.72	6197.2	
742.9	5183.4	
743.08	4709.6	
743.26	3803.8	
743.44	6204.7	
743.62	6120	
743.8	4866.7	
743.98	4085.7	
744.16	5938.4	
744.34	5642.2	
744.52	4761.5	
744.7	4699.4	
744.88	6001.9	
745.06	5666	
745.24	4820.2	
745.42	4816.1	
745.6	6110.5	
745.78	5895.4	
745.96	3837.2	
746.14	4076.1	
746.32	6593.8	
746.5	6036.7	
746.68	4504.2	
746.86	4064.5	
747.03	6287.3	
747.21	5074.2	
747.39	4511	
747.57	4060.4	
747.75	5685.8	
747.93	6021.7	
748.11	4035.9	
748.29	4014.7	
748.47	6881.2	
748.65	5406	
748.83	4568.3	
749.01	4403.8	
749.19	5834	
749.37	5189.6	
749.55	4270	
749.73	4278.9	
749.91	5601.9	
750.09	5386.2	
750.26	4382.7	
750.44	3879.5	
750.62	5630.5	
750.8	5500.2	
750.98	3758.7	
751.16	4065.2	
751.34	5640.8	
751.52	5135.6	
751.7	4625	
751.88	3720.5	
752.06	5973.2	
752.24	5765	
752.42	3619.4	
752.59	3941	
752.77	5550.7	
752.95	6463.4	
753.13	4528.7	
753.31	3994.9	
753.49	5211.4	
753.67	5541.1	
753.85	4297.3	
754.03	3899.3	
754.21	5780.7	
754.38	6014.9	
754.56	4042.7	
754.74	3348.4	
754.92	5108.3	
755.1	5607.3	
755.28	3309.5	
755.46	3386.7	
755.64	6300.2	
755.82	6371.2	
755.99	3573	
756.17	3666.5	
756.35	4508.9	
756.53	5639.4	
756.71	2820.7	
756.89	3531.4	
757.07	5315.2	
757.25	4666	
757.42	3917.1	
757.6	4584.7	
757.78	5370.5	
757.96	4571.1	
758.14	3626.3	
758.32	3323.2	
758.5	4238.6	
758.67	4909	
758.85	3521.1	
759.03	3642	
759.21	5147.9	
759.39	4663.9	
759.57	3230.3	
759.75	4057.7	
759.92	5601.9	
760.1	5057.1	
760.28	4396.3	
760.46	4519.9	
760.64	4813.4	
760.82	4715.8	
760.99	4196.3	
761.17	3564.8	
761.35	5473.5	
761.53	4620.2	
761.71	3646.7	
761.89	4184	
762.06	5325.4	
762.24	4949.9	
762.42	3816.7	
762.6	3582.6	
762.78	4956.8	
762.96	5431.9	
763.13	4043.4	
763.31	3704.1	
763.49	5464	
763.67	4943.1	
763.85	4417.5	
764.02	4835.9	
764.2	5745.2	
764.38	5034.6	
764.56	3715.7	
764.74	4339	
764.91	5808	
765.09	4953.4	
765.27	3484.3	
765.45	3265.8	
765.63	5903.6	
765.8	5715.9	
765.98	3084.9	
766.16	3292.5	
766.34	4638	
766.52	4474.1	
766.69	4078.2	
766.87	3211.9	
767.05	5049.6	
767.23	5517.9	
767.41	3506.8	
767.58	3688.4	
767.76	5365	
767.94	5480.4	
768.12	3540.9	
768.29	4092.5	
768.47	4963.6	
768.65	5536.3	
768.83	3264.5	
769	4080.9	
769.18	4681	
769.36	5179.3	
769.54	4095.9	
769.72	3269.9	
769.89	5453.1	
770.07	5493.3	
770.25	3570.3	
770.43	4542.4	
770.6	6040.8	
770.78	6233.3	
770.96	3691.8	
771.14	4123.2	
771.31	5354.8	
771.49	4861.9	
771.67	3059	
771.85	3225.6	
772.02	4335.5	
772.2	4890.5	
772.38	3761.4	
772.55	3403	
772.73	5125.4	
772.91	4883.7	
773.09	3676.8	
773.26	3783.3	
773.44	5090.6	
773.62	4833.9	
773.8	3302	
773.97	3125.2	
774.15	5143.8	
774.33	4845.5	
774.5	3276.8	
774.68	3555.3	
774.86	5190.9	
775.04	4875.5	
775.21	3324.5	
775.39	3314.3	
775.57	5087.8	
775.74	5275.6	
775.92	3149.1	
776.1	3122.5	
776.27	5010.7	
776.45	5943.9	
776.63	3280.8	
776.81	2998.2	
776.98	4823.6	
777.16	5502.2	
777.34	3412.6	
777.51	3659.7	
777.69	4829.1	
777.87	4592.9	
778.04	3442.6	
778.22	3892.5	
778.4	4611.3	
778.57	5122.7	
778.75	2942.2	
778.93	3151.8	
779.1	4505.5	
779.28	4340.3	
779.46	2941.6	
779.64	3284.3	
779.81	5279	
779.99	5866.7	
780.17	3863.8	
780.34	4001	
780.52	4847.5	
780.69	5001.8	
780.87	3627	
781.05	3248.1	
781.22	4912.4	
781.4	4954	
781.58	3340.2	
781.75	2686.3	
781.93	4960.9	
782.11	4428.4	
782.28	4058.4	
782.46	3343	
782.64	4311	
782.81	5044.1	
782.99	3422.2	
783.17	3338.9	
783.34	4982.7	
783.52	4403.8	
783.69	3480.2	
783.87	4143.7	
784.05	4458.4	
784.22	4500.1	
784.4	4130.1	
784.58	3609.2	
784.75	5181.4	
784.93	4551.3	
785.1	3340.2	
785.28	3827	
785.46	5029.8	
785.63	4440	
785.81	3307.5	
785.99	3154.6	
786.16	4612.7	
786.34	4844.1	
786.51	3268.6	
786.69	3577.1	
786.87	4263.2	
787.04	4702.8	
787.22	3125.9	
787.39	3824.2	
787.57	4463.2	
787.75	5310.4	
787.92	4040.6	
788.1	3932.1	
788.27	4470	
788.45	4208.6	
788.63	3753.2	
788.8	2803.7	
788.98	4914.4	
789.15	4194.2	
789.33	2873.3	
789.5	3310.2	
789.68	5141.8	
789.86	5245.5	
790.03	3670.6	
790.21	3225.6	
790.38	5273.5	
790.56	4607.2	
790.73	3142.9	
790.91	3170.9	
791.09	4491.2	
791.26	5003.9	
791.44	3371	
791.61	2865.8	
791.79	4461.2	
791.96	4528.1	
792.14	2968.2	
792.32	2665.1	
792.49	4511	
792.67	4555.4	
792.84	3075.4	
793.02	2938.8	
793.19	4810	
793.37	5345.2	
793.54	2668.5	
793.72	2938.8	
793.89	5379.3	
794.07	4508.3	
794.25	3305.4	
794.42	2791.4	
794.6	5330.2	
794.77	4980.7	
794.95	3650.2	
795.12	3237.2	
795.3	4523.3	
795.47	4944.5	
795.65	3538.9	
795.82	3348.4	
796	4369	
796.17	5769.1	
796.35	3254.2	
796.52	3848.1	
796.7	4907.6	
796.87	4939	
797.05	3257.6	
797.22	3846.1	
797.4	4908.3	
797.57	5625.1	
797.75	3404.4	
797.92	3137.5	
798.1	5217.5	
798.27	4315.1	
798.45	2799.6	
798.62	3001.6	
798.8	4673.5	
798.97	5060.5	
799.15	3554.6	
799.32	3377.1	
799.5	4204.5	
799.67	4725.3	
799.85	3641.3	
800.02	2693.8	
800.2	4442	
800.37	4620.9	
800.55	3762.1	
800.72	3158.7	
800.9	5055.8	
801.07	5339.1	
801.25	4162.2	
801.42	3450.8	
801.6	5080.3	
801.77	4741.7	
801.95	3261.7	
802.12	3067.9	
802.29	4894.6	
802.47	4764.3	
802.64	3515.7	
802.82	2726.5	
802.99	4405.2	
803.17	5141.1	
803.34	3379.1	
803.52	3057.6	
803.69	5687.9	
803.87	4208.6	
804.04	3325.9	
804.21	3435.1	
804.39	5326.8	
804.56	4588.1	
804.74	2938.8	
804.91	3457.7	
805.09	4494.6	
805.26	4533.5	
805.44	2947.7	
805.61	3198.2	
805.78	4977.9	
805.96	4956.1	
806.13	3455.6	
806.31	3693.2	
806.48	4092.5	
806.66	4518.5	
806.83	3473.4	
807	3381.9	
807.18	4476.2	
807.35	4725.3	
807.53	3378.5	
807.7	2792.1	
807.87	5302.2	
808.05	4488.5	
808.22	3719.1	
808.4	2787.3	
808.57	4442.7	
808.74	4222.9	
808.92	3220.1	
809.09	3921.9	
809.27	4432.5	
809.44	4803.2	
809.61	2796.2	
809.79	3059.7	
809.96	5444.9	
810.14	5032.5	
810.31	2771.6	
810.48	3312.2	
810.66	4557.4	
810.83	5093.3	
811.01	3126.6	
811.18	3444	
811.35	5014.1	
811.53	3985.3	
811.7	3661.1	
811.87	3491.8	
812.05	4541.7	
812.22	4416.1	
812.39	3062.4	
812.57	2942.2	
812.74	4579.9	
812.92	5714.5	
813.09	3297.9	
813.26	3491.1	
813.44	5526.1	
813.61	4392.2	
813.78	2788	
813.96	3577.1	
814.13	4554	
814.3	4298	
814.48	3884.3	
814.65	3231	
814.82	5367.7	
815	4189.5	
815.17	3324.5	
815.34	3994.9	
815.52	4455.7	
815.69	4427	
815.87	3315.7	
816.04	3242.6	
816.21	4422.9	
816.38	4086.4	
816.56	3257	
816.73	3033.7	
816.9	5525.4	
817.08	5008.6	
817.25	3099.3	
817.42	3732.1	
817.6	4122.6	
817.77	4477.5	
817.94	3381.2	
818.12	2998.9	
818.29	4305.5	
818.46	6189.6	
818.64	3206.4	
818.81	2944.3	
818.98	4277.5	
819.16	5797.1	
819.33	3631.7	
819.5	3325.9	
819.67	4715.8	
819.85	5310.4	
820.02	3323.2	
820.19	3486.3	
820.37	4687.8	
820.54	4375.8	
820.71	3379.8	
820.88	4141.7	
821.06	4599.1	
821.23	4304.8	
821.4	3397.6	
821.58	3329.3	
821.75	5028.4	
821.92	4614.8	
822.09	2770.2	
822.27	2830.3	
822.44	4466.6	
822.61	4377.9	
822.79	2825.5	
822.96	5071.5	
823.13	4730.8	
823.3	4231.1	
823.48	3215.3	
823.65	2874	
823.82	5033.2	
823.99	4186	
824.17	3995.6	
824.34	2912.2	
824.51	5752.7	
824.68	4486.4	
824.86	3132	
825.03	3394.8	
825.2	4460.5	
825.37	5256.5	
825.55	3056.9	
825.72	3280.2	
825.89	5717.2	
826.06	5339.1	
826.24	3218.7	
826.41	3267.9	
826.58	5299.5	
826.75	4714.4	
826.92	2674.6	
827.1	2899.9	
827.27	6992.4	
827.44	5563.6	
827.61	3127.2	
827.79	3756.7	
827.96	4285	
828.13	4503.5	
828.3	3251.5	
828.47	2825.5	
828.65	4738.3	
828.82	4681	
828.99	4047.5	
829.16	3551.9	
829.34	4984.8	
829.51	4835.3	
829.68	3317	
829.85	3426.9	
830.02	5358.2	
830.2	4997.7	
830.37	2617.3	
830.54	3973.1	
830.71	5631.9	
830.88	4519.9	
831.05	2640.5	
831.23	3031.7	
831.4	5433.9	
831.57	5928.2	
831.74	3108.1	
831.91	2807.1	
832.09	4775.2	
832.26	4984.1	
832.43	3188	
832.6	3520.5	
832.77	4760.2	
832.94	5298.1	
833.12	2613.9	
833.29	3149.8	
833.46	4395.6	
833.63	6053.8	
833.8	3504.1	
833.97	3200.3	
834.15	5044.1	
834.32	4829.1	
834.49	3264.5	
834.66	3401	
834.83	5150	
835	4373.8	
835.17	3097.9	
835.35	3062.4	
835.52	4922.6	
835.69	4867.3	
835.86	3203.7	
836.03	2694.4	
836.2	4967.7	
836.37	4685.1	
836.55	3166.2	
836.72	2994.8	
836.89	4657.8	
837.06	5091.3	
837.23	3229	
837.4	3493.2	
837.57	5668.1	
837.75	6018.3	
837.92	2949.1	
838.09	3084.9	
838.26	4618.9	
838.43	5153.4	
838.6	3315.7	
838.77	3052.8	
838.94	5813.5	
839.11	5580.7	
839.29	3224.2	
839.46	2564.1	
839.63	5019.6	
839.8	4756.7	
839.97	3111.5	
840.14	3093.1	
840.31	4846.9	
840.48	4992.3	
840.65	2626.2	
840.82	3037.8	
841	4997.7	
841.17	4906.9	
841.34	2863.1	
841.51	2983.2	
841.68	4904.2	
841.85	4720.6	
842.02	3003	
842.19	2512.2	
842.36	4818.2	
842.53	4835.9	
842.7	2839.8	
842.87	3430.3	
843.05	6152.1	
843.22	4726	
843.39	2732.7	
843.56	2983.2	
843.73	4574.5	
843.9	5039.4	
844.07	4474.1	
844.24	3758.7	
844.41	6871.6	
844.58	4341	
844.75	2808.4	
844.92	3022.1	
845.09	4949.3	
845.26	4944.5	
845.43	2867.2	
845.6	3034.4	
845.77	5016.8	
845.94	4805.9	
846.12	3145	
846.29	3280.8	
846.46	5156.8	
846.63	4926	
846.8	2847.4	
846.97	3364.1	
847.14	5332.2	
847.31	4943.1	
847.48	3164.1	
847.65	3478.8	
847.82	5165.7	
847.99	5111.7	
848.16	3800.3	
848.33	3502	
848.5	4601.1	
848.67	5393.7	
848.84	2850.1	
849.01	2964.8	
849.18	4582.7	
849.35	4283	
849.52	3498.6	
849.69	2788	
849.86	5164.3	
850.03	5193.6	
850.2	2885.6	
850.37	3394.8	
850.54	5195.7	
850.71	4700.8	
850.88	3359.4	
851.05	2859	
851.22	4913.1	
851.39	5357.5	
851.56	2725.2	
851.73	3245.3	
851.9	4447.5	
852.07	5175.2	
852.24	3188	
852.41	2863.7	
852.58	4870.8	
852.75	4467.3	
852.92	3200.3	
853.09	2777.7	
853.26	4632.5	
853.43	5320.6	
853.6	2862.4	
853.77	2527.2	
853.94	5397.8	
854.11	4401.8	
854.28	4085.7	
854.44	3097.9	
854.61	5653.1	
854.78	5193.6	
854.95	2788	
855.12	3506.8	
855.29	4084.3	
855.46	5347.2	
855.63	2858.3	
855.8	3848.8	
855.97	4600.4	
856.14	5217.5	
856.31	3919.1	
856.48	3083.6	
856.65	4719.9	
856.82	4397	
856.99	2751.1	
857.16	3080.1	
857.33	5895.4	
857.49	4710.3	
857.66	3054.2	
857.83	3273.3	
858	4734.9	
858.17	4869.4	
858.34	2707.4	
858.51	2899.2	
858.68	5485.8	
858.85	5442.8	
859.02	3269.2	
859.19	3445.4	
859.36	4463.9	
859.52	4389.5	
859.69	2857.6	
859.86	3355.9	
860.03	4464.6	
860.2	5358.2	
860.37	2592.7	
860.54	2909.5	
860.71	5094.7	
860.88	5388.9	
861.05	3116.3	
861.21	3518.4	
861.38	5363.6	
861.55	4316.4	
861.72	2664.4	
861.89	3181.2	
862.06	5168.4	
862.23	5515.9	
862.4	2774.3	
862.56	2974.3	
862.73	5079.6	
862.9	4773.8	
863.07	3294.5	
863.24	2643.9	
863.41	4392.2	
863.58	4430.4	
863.75	2909.5	
863.91	3295.9	
864.08	5340.4	
864.25	5083.1	
864.42	3510.9	
864.59	3902.7	
864.76	5565	
864.93	4417.5	
865.09	2770.9	
865.26	3043.3	
865.43	5337.7	
865.6	5568.4	
865.77	2498.5	
865.94	2802.3	
866.1	5342.5	
866.27	5080.3	
866.44	4160.1	
866.61	2742.2	
866.78	4709.6	
866.95	5011.4	
867.11	2790.7	
867.28	2555.9	
867.45	5231.2	
867.62	4465.3	
867.79	3264.5	
867.96	3026.9	
868.12	4381.3	
868.29	5116.5	
868.46	2863.1	
868.63	3759.4	
868.8	5246.9	
868.97	5068.7	
869.13	3018	
869.3	2927.9	
869.47	5001.8	
869.64	5188.2	
869.81	2899.9	
869.97	2885.6	
870.14	4919.9	
870.31	5442.1	
870.48	2774.3	
870.65	3551.9	
870.81	4724	
870.98	4741.7	
871.15	3207.1	
871.32	3015.3	
871.48	4975.2	
871.65	5479.7	
871.82	2796.8	
871.99	3168.2	
872.16	5814.2	
872.32	5345.9	
872.49	2831.7	
872.66	2848	
872.83	5085.1	
872.99	4545.1	
873.16	3243.3	
873.33	2788	
873.5	4820.9	
873.67	4930.8	
873.83	3052.8	
874	3678.8	
874.17	4907.6	
874.34	5732.3	
874.5	3615.3	
874.67	3485.6	
874.84	5382.1	
875.01	4320.5	
875.17	3922.5	
875.34	2844.6	
875.51	4883.7	
875.68	5794.4	
875.84	3433.8	
876.01	4076.8	
876.18	5036	
876.34	5068	
876.51	2856.9	
876.68	2807.8	
876.85	4674.8	
877.01	5311.7	
877.18	3967.6	
877.35	2839.8	
877.52	4860.5	
877.68	4412	
877.85	2840.5	
878.02	2823.5	
878.18	4745.8	
878.35	4606.6	
878.52	2292.4	
878.69	3149.8	
878.85	5227.1	
879.02	5020.9	
879.19	3879.5	
879.35	3052.2	
879.52	5153.4	
879.69	5203.9	
879.86	2527.9	
880.02	3192.1	
880.19	4772.4	
880.36	5718.6	
880.52	3197.6	
880.69	3335.5	
880.86	5171.1	
881.02	5224.4	
881.19	3056.9	
881.36	3037.8	
881.52	5039.4	
881.69	4590.2	
881.86	3077.4	
882.02	3005.7	
882.19	5313.8	
882.36	6027.2	
882.52	2912.2	
882.69	3879.5	
882.86	4924.7	
883.02	4870.8	
883.19	3423.5	
883.36	3233.1	
883.52	5194.3	
883.69	5806	
883.86	2904.7	
884.02	2598.2	
884.19	5120.6	
884.36	4771.1	
884.52	3159.3	
884.69	3053.5	
884.86	4620.9	
885.02	5558.9	
885.19	3141.6	
885.36	3229.6	
885.52	4743.8	
885.69	4973.2	
885.86	4003.8	
886.02	3556	
886.19	5106.3	
886.35	4627	
886.52	3164.1	
886.69	3925.3	
886.85	4455.7	
887.02	5354.8	
887.19	5354.8	
887.35	5354.8	
887.52	5354.8	
887.68	5354.8	
887.85	5354.8	
888.02	5354.8	
888.18	5354.8	
888.35	5354.8	
888.51	5354.8	
888.68	5354.8	
888.85	5354.8	
889.01	5354.8	
889.18	5354.8	
889.35	5354.8	
889.51	5354.8	
889.68	5354.8	
889.84	5354.8	
890.01	5354.8	
890.17	5354.8	
890.34	5354.8	
890.51	5354.8	
890.67	5354.8	
890.84	5354.8	
891	5354.8	
891.17	5354.8	
891.34	5354.8	
891.5	5354.8	
891.67	5354.8	
891.83	5354.8	
892	5354.8	
892.16	5354.8	
892.33	5354.8	
892.5	5354.8	
892.66	5354.8	
892.83	5354.8	
892.99	5354.8	
893.16	5354.8	
893.32	5354.8	
893.49	5354.8	
893.65	5354.8	
893.82	5354.8	
893.99	5354.8	
894.15	5354.8	
894.32	5354.8	
894.48	5354.8	
894.65	5354.8	
894.81	5354.8	
894.98	5354.8	
895.14	5354.8	
895.31	5354.8	
895.47	5354.8	
895.64	5354.8	
895.81	5354.8	
895.97	5354.8	
896.14	5354.8	
896.3	5354.8	
896.47	5354.8	
896.63	5354.8	
896.8	5354.8	
896.96	5354.8	
897.13	5354.8	
897.29	5354.8	
897.46	5354.8	
897.62	5354.8	
897.79	5354.8	
897.95	5354.8	
898.12	5354.8	
898.28	5354.8	
898.45	5354.8	
898.61	5354.8	
898.78	5354.8	
898.94	5354.8	
899.11	5354.8	
899.27	5354.8	
899.44	5354.8	
899.6	5354.8	
899.77	5354.8	
899.93	5354.8	
900.1	5354.8	
900.26	5354.8	
900.43	5354.8	
900.59	5354.8	
900.76	5354.8	
900.92	5354.8	
901.09	5354.8	
901.25	5354.8	
901.42	5354.8	
901.58	5354.8	
901.75	5354.8	
901.91	5354.8	
902.07	5354.8	
902.24	5354.8	
902.4	5354.8	
902.57	5354.8	
902.73	5354.8	
902.9	5354.8	
903.06	5354.8	
903.23	5354.8	
903.39	5354.8	
903.56	5354.8	
903.72	5354.8	
903.88	5354.8	
904.05	5354.8	
904.21	5354.8	
904.38	5354.8	
904.54	5354.8	
904.71	5354.8	
904.87	5354.8	
905.03	5354.8	
905.2	5354.8	
905.36	5354.8	
905.53	5354.8	
905.69	5354.8	
905.86	5354.8	
906.02	5354.8	
906.18	5354.8	
906.35	5354.8	
906.51	5354.8	
906.68	5354.8	
906.84	5354.8	
907.01	5354.8	
907.17	5354.8	
907.33	5354.8	
907.5	5354.8	
907.66	5354.8	
907.83	5354.8	
907.99	5354.8	
908.15	5354.8	
908.32	5354.8	
908.48	5354.8	
908.65	5354.8	
908.81	5354.8	
908.97	5354.8	
909.14	5354.8	
909.3	5354.8	
909.47	5354.8	
909.63	5354.8	
909.79	5354.8	
909.96	5354.8	
910.12	5354.8	
910.28	5354.8	
910.45	5354.8	
910.61	5354.8	
910.78	5354.8	
910.94	5354.8	
911.1	5354.8	
911.27	5354.8	
911.43	5354.8	
911.59	5354.8	
911.76	5354.8	
911.92	5354.8	
912.08	5354.8	
912.25	5354.8	
912.41	5354.8	
912.57	5354.8	
912.74	5354.8	
912.9	5354.8	
913.07	5354.8	
913.23	5354.8	
913.39	5354.8	
913.56	5354.8	
913.72	5354.8	
913.88	5354.8	
914.05	5354.8	
914.21	5354.8	
914.37	5354.8	
914.54	5354.8	
914.7	5354.8	
914.86	5354.8	
915.03	5354.8	
915.19	5354.8	
