Wavelength	Intensities	
nm	a.u.	
179.22	1915	
179.44	1922.7	
179.65	1907.3	
179.86	1938.1	
180.08	1903.9	
180.29	4923.3	
180.51	3500.7	
180.72	5612.1	
180.94	6648.4	
181.15	3264.5	
181.37	3191.4	
181.58	5481.7	
181.79	5825.8	
182.01	3380.5	
182.22	3582.6	
182.44	5790.3	
182.65	4853.7	
182.87	4571.1	
183.08	4014.7	
183.29	6083.8	
183.51	4958.1	
183.72	3631.7	
183.94	5403.2	
184.15	5389.6	
184.37	5467.4	
184.58	3248.8	
184.79	4444.8	
185.01	5044.8	
185.22	5807.4	
185.44	4778.6	
185.65	3961.5	
185.86	5325.4	
186.08	4899.4	
186.29	3117.7	
186.51	3372.3	
186.72	5093.3	
186.94	5925.5	
187.15	3943	
187.36	4058.4	
187.58	7832.8	
187.79	5576.6	
188.01	4252.3	
188.22	6602	
188.43	6656.6	
188.65	5730.9	
188.86	3349.8	
189.08	4119.8	
189.29	5261.9	
189.5	5259.2	
189.72	3781.2	
189.93	3829.7	
190.15	6012.2	
190.36	7245.7	
190.57	4145.1	
190.79	3978.5	
191	6094.1	
191.22	6016.2	
191.43	4114.4	
191.64	3441.3	
191.86	6135	
192.07	5941.8	
192.29	3595.6	
192.5	3771.7	
192.71	5991	
192.93	5160.9	
193.14	3741.6	
193.35	3800.3	
193.57	5185.5	
193.78	6023.1	
194	2997.5	
194.21	3652.9	
194.42	4990.9	
194.64	5435.3	
194.85	4077.5	
195.07	4782	
195.28	5492	
195.49	4742.4	
195.71	5056.4	
195.92	3491.1	
196.13	5639.4	
196.35	5782.8	
196.56	5371.8	
196.78	4024.3	
196.99	7086	
197.2	6684.6	
197.42	4568.3	
197.63	4073.4	
197.84	4849.6	
198.06	5658.5	
198.27	3748.5	
198.48	4993.6	
198.7	5251	
198.91	5347.9	
199.13	4057.7	
199.34	4102.1	
199.55	5862.7	
199.77	4683	
199.98	3644.7	
200.19	4136.2	
200.41	5334.3	
200.62	5020.3	
200.83	4261.8	
201.05	4558.1	
201.26	5291.3	
201.47	5074.9	
201.69	3663.1	
201.9	3469.9	
202.11	5397.1	
202.33	6466.8	
202.54	3858.4	
202.76	4306.2	
202.97	5572.5	
203.18	5574.6	
203.4	4250.9	
203.61	4138.3	
203.82	5498.1	
204.04	5140.4	
204.25	4168.3	
204.46	4012.7	
204.68	5474.2	
204.89	5672.9	
205.1	3996.3	
205.32	3476.1	
205.53	5850.4	
205.74	6013.5	
205.96	2921.8	
206.17	4240	
206.38	5827.2	
206.6	5945.9	
206.81	4701.5	
207.02	3848.8	
207.24	5688.6	
207.45	6098.9	
207.66	3923.2	
207.88	3314.3	
208.09	5662.6	
208.3	5490.6	
208.52	3586.7	
208.73	3892.5	
208.94	5438	
209.15	6165.1	
209.37	3877.5	
209.58	4155.3	
209.79	6052.4	
210.01	5261.9	
210.22	3101.3	
210.43	3272.7	
210.65	5457.8	
210.86	5905.7	
211.07	3852.9	
211.29	3590.1	
211.5	5792.3	
211.71	5361.6	
211.93	3571.7	
212.14	3598.3	
212.35	5357.5	
212.56	5637.4	
212.78	4108.9	
212.99	3382.6	
213.2	6462.7	
213.42	5191.6	
213.63	3674.7	
213.84	3927.3	
214.06	4840.7	
214.27	4894	
214.48	3888.4	
214.69	4111	
214.91	6143.2	
215.12	6203.3	
215.33	4290.5	
215.55	4681	
215.76	6698.2	
215.97	5903.6	
216.18	4040	
216.4	3969.6	
216.61	5117.2	
216.82	5931.6	
217.04	3561.4	
217.25	3724.6	
217.46	6112.5	
217.67	5859.9	
217.89	3212.6	
218.1	3346.4	
218.31	5528.2	
218.53	5644.2	
218.74	3762.1	
218.95	3639.2	
219.16	5367.7	
219.38	6356.2	
219.59	3633.8	
219.8	4361.5	
220.01	7015.7	
220.23	5450.3	
220.44	4823.6	
220.65	3571.7	
220.87	5493.3	
221.08	6090.7	
221.29	3364.1	
221.5	4466.6	
221.72	7517.4	
221.93	5169.8	
222.14	4200.4	
222.35	4855.7	
222.57	5431.9	
222.78	5834	
222.99	3904.1	
223.2	4212.7	
223.42	5772.5	
223.63	5866.7	
223.84	2975	
224.05	2941.6	
224.27	6997.2	
224.48	6376	
224.69	4927.4	
224.9	4145.8	
225.12	5644.9	
225.33	5402.5	
225.54	3270.6	
225.75	3707.5	
225.97	4975.9	
226.18	5286.5	
226.39	3951.9	
226.6	3657	
226.82	5187.5	
227.03	5077.6	
227.24	4092.5	
227.45	3377.8	
227.67	5771.2	
227.88	6400.6	
228.09	4547.9	
228.3	4639.3	
228.52	5874.9	
228.73	5354.1	
228.94	3781.9	
229.15	3395.5	
229.36	5358.9	
229.58	5244.2	
229.79	3839.3	
230	4508.9	
230.21	6536.4	
230.43	5494.7	
230.64	4021.5	
230.85	4257.7	
231.06	5921.4	
231.28	5866.1	
231.49	3362.1	
231.7	3975.1	
231.91	5765.7	
232.12	5459.2	
232.34	3476.1	
232.55	3986	
232.76	6105.7	
232.97	5620.3	
233.18	3614	
233.4	4092.5	
233.61	5655.8	
233.82	5302.9	
234.03	3815.4	
234.25	3700.7	
234.46	7623.2	
234.67	5522	
234.88	4158.1	
235.09	3600.3	
235.31	5780.7	
235.52	5355.4	
235.73	4046.1	
235.94	3458.3	
236.15	5152.7	
236.37	6639.5	
236.58	3585.3	
236.79	3930.1	
237	5777.3	
237.21	4951.3	
237.43	4250.9	
237.64	3258.3	
237.85	9912.9	
238.06	4984.1	
238.27	4321.2	
238.48	3445.4	
238.7	5780.7	
238.91	5264	
239.12	3923.9	
239.33	3942.3	
239.54	5102.2	
239.76	5347.9	
239.97	3858.4	
240.18	3926	
240.39	6864.1	
240.6	5740.5	
240.82	4029	
241.03	3328.6	
241.24	5425.1	
241.45	6306.4	
241.66	3579.8	
241.87	4232.5	
242.09	6200.6	
242.3	6513.2	
242.51	4250.2	
242.72	3951.9	
242.93	5947.3	
243.14	5373.9	
243.36	4530.8	
243.57	4891.9	
243.78	6339.1	
243.99	5864.7	
244.2	3951.2	
244.41	3605.8	
244.63	4986.1	
244.84	5769.1	
245.05	4211.3	
245.26	3960.8	
245.47	5750	
245.68	6024.4	
245.9	5315.8	
246.11	4164.2	
246.32	5282.4	
246.53	5649.7	
246.74	6303	
246.95	3282.2	
247.16	4929.5	
247.38	5440.8	
247.59	3267.2	
247.8	3930.7	
248.01	5145.2	
248.22	5397.1	
248.43	3602.4	
248.64	3834.5	
248.86	4827.1	
249.07	5192.3	
249.28	3462.4	
249.49	4048.8	
249.7	6008.1	
249.91	6178	
250.12	3336.8	
250.34	3321.8	
250.55	5526.8	
250.76	5453.7	
250.97	4128.7	
251.18	4062.5	
251.39	6193.7	
251.6	5672.9	
251.81	4169	
252.03	4118.5	
252.24	5197.1	
252.45	6018.3	
252.66	3424.9	
252.87	4419.5	
253.08	5450.3	
253.29	7158.3	
253.5	3452.2	
253.72	4814.8	
253.93	5294	
254.14	6500.9	
254.35	3702.7	
254.56	3808.5	
254.77	5691.3	
254.98	5066.7	
255.19	3667.2	
255.41	4744.5	
255.62	5492	
255.83	6151.4	
256.04	4203.1	
256.25	4158.7	
256.46	6564.4	
256.67	5066.7	
256.88	4035.2	
257.09	4531.5	
257.31	5146.5	
257.52	5130.2	
257.73	5087.8	
257.94	3718.4	
258.15	5274.9	
258.36	5461.2	
258.57	4715.1	
258.78	2947	
258.99	5944.6	
259.2	5251.7	
259.41	3765.5	
259.63	3790.8	
259.84	6292	
260.05	6860.7	
260.26	4917.2	
260.47	3612.6	
260.68	6069.5	
260.89	5330.2	
261.1	4487.8	
261.31	3564.8	
261.52	5970.5	
261.73	6435.4	
261.95	4777.2	
262.16	4251.6	
262.37	6148	
262.58	6259.3	
262.79	4872.1	
263	3807.9	
263.21	5399.8	
263.42	5009.3	
263.63	3892.5	
263.84	3814.7	
264.05	6034.7	
264.26	6419.7	
264.47	4701.5	
264.69	4232.5	
264.9	6190.3	
265.11	5701.5	
265.32	3571.7	
265.53	3745.7	
265.74	5568.4	
265.95	4851.6	
266.16	4073.4	
266.37	4412.7	
266.58	5618.3	
266.79	5298.1	
267	3713.6	
267.21	3491.8	
267.42	5029.8	
267.63	5437.4	
267.84	3922.5	
268.06	3346.4	
268.27	5889.3	
268.48	6160.3	
268.69	3818.1	
268.9	4534.2	
269.11	6183.5	
269.32	4942.4	
269.53	3933.5	
269.74	3645.4	
269.95	5791.7	
270.16	4838	
270.37	3945.8	
270.58	4569.7	
270.79	5293.3	
271	5967.8	
271.21	4253.6	
271.42	4036.5	
271.63	5593.7	
271.84	5148.6	
272.05	3127.9	
272.26	3524.6	
272.47	5479	
272.68	5650.3	
272.89	3778.5	
273.11	4422.2	
273.32	5273.5	
273.53	6414.2	
273.74	4232.5	
273.95	4136.2	
274.16	6124.1	
274.37	5457.8	
274.58	4342.4	
274.79	3461.7	
275	5598.5	
275.21	6121.4	
275.42	5180.7	
275.63	4442.7	
275.84	5735	
276.05	7219.1	
276.26	4153.3	
276.47	3880.9	
276.68	5319.9	
276.89	6465.4	
277.1	4440	
277.31	3435.1	
277.52	5794.4	
277.73	5906.3	
277.94	3403	
278.15	3837.2	
278.36	5668.1	
278.57	5081	
278.78	3780.6	
278.99	4305.5	
279.2	5100.1	
279.41	4999.8	
279.62	4954	
279.83	3465.8	
280.04	6690.7	
280.25	4915.1	
280.46	4937	
280.67	3917.1	
280.88	5036.6	
281.09	6150.7	
281.3	4128	
281.51	5244.8	
281.72	5137	
281.93	6029.9	
282.14	3672	
282.35	3961.5	
282.56	5913.2	
282.77	5950.7	
282.98	3825.6	
283.19	4629.1	
283.4	7286.7	
283.61	5408.7	
283.82	3390.1	
284.03	4884.4	
284.24	5545.9	
284.45	6133	
284.66	4882.4	
284.87	4707.6	
285.08	5999.2	
285.29	6229.2	
285.5	3344.3	
285.71	3852.9	
285.92	6117.3	
286.12	6746	
286.33	4873.5	
286.54	3828.3	
286.75	5945.3	
286.96	5350.7	
287.17	3515.7	
287.38	4743.1	
287.59	5081	
287.8	5046.9	
288.01	3855.6	
288.22	4500.8	
288.43	5968.5	
288.64	4992.3	
288.85	4564.9	
289.06	4360.1	
289.27	5884.5	
289.48	6404.7	
289.69	4870.1	
289.9	4450.9	
290.11	6153.5	
290.32	5139.7	
290.53	4732.9	
290.74	4248.2	
290.94	5966.4	
291.15	5976	
291.36	3718.4	
291.57	4369.7	
291.78	5132.2	
291.99	4872.8	
292.2	3596.9	
292.41	4271.4	
292.62	6074.3	
292.83	5846.3	
293.04	5298.1	
293.25	3563.5	
293.46	5279	
293.67	6087.9	
293.88	3666.5	
294.09	3611.9	
294.29	5016.2	
294.5	5649.7	
294.71	3970.3	
294.92	3775.8	
295.13	5254.4	
295.34	6625.2	
295.55	3317	
295.76	3423.5	
295.97	5850.4	
296.18	6677.7	
296.39	3451.5	
296.6	3719.8	
296.81	5543.9	
297.01	5879	
297.22	3831.7	
297.43	3629.7	
297.64	5032.5	
297.85	5072.8	
298.06	3047.4	
298.27	3304.1	
298.48	5527.5	
298.69	5211.4	
298.9	3983.3	
299.11	3636.5	
299.31	4989.5	
299.52	5014.8	
299.73	4370.4	
299.94	4233.2	
300.15	5473.5	
300.36	5082.4	
300.57	4178.5	
300.78	4207.2	
300.99	5352	
301.2	5603.2	
301.4	3583.3	
301.61	3999	
301.82	5786.9	
302.03	5862	
302.24	4481	
302.45	3564.1	
302.66	5744.6	
302.87	6251.8	
303.08	3725.3	
303.29	5029.1	
303.49	5201.2	
303.7	5525.4	
303.91	3241.9	
304.12	4879.6	
304.33	4956.8	
304.54	5593	
304.75	3762.8	
304.96	3528.7	
305.16	5809.4	
305.37	6579.4	
305.58	3190.7	
305.79	3304.1	
306	5740.5	
306.21	4874.8	
306.42	3623.5	
306.63	5674.9	
306.83	5292	
307.04	6107.7	
307.25	4072	
307.46	4076.1	
307.67	4640.7	
307.88	5962.3	
308.09	3610.6	
308.29	3760.8	
308.5	5569.8	
308.71	6129.6	
308.92	4001	
309.13	3561.4	
309.34	5388.2	
309.55	5392.3	
309.75	4613.4	
309.96	4181.3	
310.17	5907	
310.38	5188.2	
310.59	4457.1	
310.8	3516.4	
311.01	5246.2	
311.21	5348.6	
311.42	3497.2	
311.63	3624.2	
311.84	5174.5	
312.05	5636	
312.26	4111	
312.46	4542.4	
312.67	5248.9	
312.88	5000.5	
313.09	3550.5	
313.3	3467.2	
313.51	6250.4	
313.71	6655.9	
313.92	3513.6	
314.13	3794.2	
314.34	5662.6	
314.55	5343.8	
314.76	4601.8	
314.96	3958.7	
315.17	5528.8	
315.38	5926.8	
315.59	3639.9	
315.8	3497.2	
316.01	6316.6	
316.21	6389.7	
316.42	3379.8	
316.63	3934.8	
316.84	5367	
317.05	6207.4	
317.26	4208.6	
317.46	3757.3	
317.67	5365.7	
317.88	5864.7	
318.09	4480.3	
318.3	3327.9	
318.5	5154.7	
318.71	5794.4	
318.92	5806	
319.13	4251.6	
319.34	5988.3	
319.54	6085.9	
319.75	3356.6	
319.96	3158.7	
320.17	5823.1	
320.38	6093.4	
320.58	3260.4	
320.79	3939.6	
321	6019.7	
321.21	6257.9	
321.42	3984.7	
321.62	3237.2	
321.83	5069.4	
322.04	5480.4	
322.25	3809.9	
322.46	3536.2	
322.66	5509	
322.87	5677.7	
323.08	4446.8	
323.29	3506.8	
323.5	6648.4	
323.7	5016.8	
323.91	4915.1	
324.12	4316.4	
324.33	5556.1	
324.53	5800.5	
324.74	4209.3	
324.95	4399.7	
325.16	4890.5	
325.37	5233.2	
325.57	3596.2	
325.78	3659	
325.99	5488.6	
326.2	4890.5	
326.4	5105.6	
326.61	3298.6	
326.82	5367.7	
327.03	5530.2	
327.24	5104.9	
327.44	4913.1	
327.65	5689.3	
327.86	4668.7	
328.07	4326	
328.27	3409.2	
328.48	6173.3	
328.69	5069.4	
328.9	5191.6	
329.1	3798.3	
329.31	5348.6	
329.52	6298.2	
329.73	3581.9	
329.93	4034.5	
330.14	5479	
330.35	5728.2	
330.56	5926.8	
330.76	4484.4	
330.97	5302.2	
331.18	5660.6	
331.39	3966.9	
331.59	3178.4	
331.8	6059.9	
332.01	6244.9	
332.22	3676.8	
332.42	4237.2	
332.63	5580.7	
332.84	5199.1	
333.05	3981.9	
333.25	3672.7	
333.46	5203.2	
333.67	5493.3	
333.88	3754.6	
334.08	4175.1	
334.29	8610.3	
334.5	6154.8	
334.7	3433.8	
334.91	5089.9	
335.12	4992.9	
335.33	5938.4	
335.53	4017.4	
335.74	5869.5	
335.95	5211.4	
336.16	5061.2	
336.36	4091.2	
336.57	4559.5	
336.78	4988.9	
336.98	6174.6	
337.19	4909	
337.4	3898.6	
337.61	6571.2	
337.81	5020.3	
338.02	3622.2	
338.23	4765.6	
338.43	6250.4	
338.64	5174.5	
338.85	3613.3	
339.05	4764.3	
339.26	6323.4	
339.47	4859.8	
339.68	3540.9	
339.88	5355.4	
340.09	5705.6	
340.3	6010.1	
340.5	4220.2	
340.71	3158.7	
340.92	4951.3	
341.13	6214.9	
341.33	3484.3	
341.54	4229.7	
341.75	5786.2	
341.95	5354.1	
342.16	4040.6	
342.37	4442.7	
342.57	4994.3	
342.78	5358.9	
342.99	4492.6	
343.19	3236.5	
343.4	5851.7	
343.61	5770.5	
343.81	3788.7	
344.02	3523.9	
344.23	5828.5	
344.43	6321.4	
344.64	4457.7	
344.85	4332.8	
345.06	5779.4	
345.26	6102.9	
345.47	4160.8	
345.68	4947.2	
345.88	4786.1	
346.09	5965.7	
346.3	4244.1	
346.5	3176.4	
346.71	5468.1	
346.92	5146.5	
347.12	3257	
347.33	4154.6	
347.54	6006	
347.74	6423.8	
347.95	4128.7	
348.16	3048.7	
348.36	5306.3	
348.57	4963.6	
348.78	4084.3	
348.98	4366.3	
349.19	5397.1	
349.39	4932.9	
349.6	3278.1	
349.81	3674.1	
350.01	5697.4	
350.22	5162.9	
350.43	3880.9	
350.63	4769	
350.84	5563.6	
351.05	5227.1	
351.25	3566.2	
351.46	3193.5	
351.67	6109.1	
351.87	5145.9	
352.08	3873.4	
352.29	4371	
352.49	5879.7	
352.7	5618.9	
352.9	3539.6	
353.11	4376.5	
353.32	6582.2	
353.52	5226.4	
353.73	3407.8	
353.94	4450.2	
354.14	5636.7	
354.35	5547.3	
354.55	3568.9	
354.76	3912.3	
354.97	5685.8	
355.17	5478.3	
355.38	3368.9	
355.59	4661.2	
355.79	5076.2	
356	5519.3	
356.2	3903.4	
356.41	3412.6	
356.62	4874.8	
356.82	5375.2	
357.03	4163.5	
357.24	3719.8	
357.44	5149.3	
357.65	5222.3	
357.85	5026.4	
358.06	3950.5	
358.27	4846.9	
358.47	5108.3	
358.68	3304.1	
358.88	4169	
359.09	5631.2	
359.3	6140.5	
359.5	4928.1	
359.71	4293.9	
359.91	6548	
360.12	5839.4	
360.33	4141	
360.53	4627	
360.74	5074.9	
360.94	5084.4	
361.15	4394.9	
361.36	3536.8	
361.56	5940.5	
361.77	5310.4	
361.97	4870.8	
362.18	3802.4	
362.38	5931.6	
362.59	4961.5	
362.8	3499.3	
363	3310.2	
363.21	4770.4	
363.41	5433.9	
363.62	4048.2	
363.83	5087.8	
364.03	5504.9	
364.24	6527.6	
364.44	5066	
364.65	5208.7	
364.85	5246.2	
365.06	5113.8	
365.27	3664.5	
365.47	3680.2	
365.68	6263.4	
365.88	5162.2	
366.09	4063.2	
366.29	3694.5	
366.5	5509	
366.71	5905.7	
366.91	5083.7	
367.12	4181.3	
367.32	6537.8	
367.53	5775.3	
367.73	4175.8	
367.94	5160.2	
368.14	5739.1	
368.35	6671.6	
368.56	4135.5	
368.76	3865.9	
368.97	5854.5	
369.17	7599.3	
369.38	3611.9	
369.58	3888.4	
369.79	4852.3	
369.99	6166.4	
370.2	4990.9	
370.4	4052.9	
370.61	5463.3	
370.82	6825.2	
371.02	3869.3	
371.23	3244	
371.43	4760.2	
371.64	6122.7	
371.84	3921.2	
372.05	5141.1	
372.25	7464.8	
372.46	5888.6	
372.66	3879.5	
372.87	3802.4	
373.07	5891.3	
373.28	7544.7	
373.48	4896.7	
373.69	4610.7	
373.9	5290.6	
374.1	5375.2	
374.31	4833.9	
374.51	4384.7	
374.72	6187.6	
374.92	4987.5	
375.13	5022.3	
375.33	4184	
375.54	5726.8	
375.74	5137	
375.95	4242.7	
376.15	5540.4	
376.36	5704.3	
376.56	5506.3	
376.77	4255	
376.97	4681.7	
377.18	6783.6	
377.38	5783.5	
377.59	5085.1	
377.79	3773	
378	5548.6	
378.2	5992.4	
378.41	3849.5	
378.61	3689.1	
378.82	6038.8	
379.02	5144.5	
379.23	4005.8	
379.43	5119.2	
379.64	6137.8	
379.84	5721.3	
380.05	3777.1	
380.25	3745.7	
380.46	5844.2	
380.66	5406.6	
380.87	5180	
381.07	5563.6	
381.28	6498.9	
381.48	5827.8	
381.69	3774.4	
381.89	3853.6	
382.1	4730.1	
382.3	5979.4	
382.51	5029.8	
382.71	5885.2	
382.91	5911.1	
383.12	6436.1	
383.32	4248.2	
383.53	4476.2	
383.73	5680.4	
383.94	5459.2	
384.14	4348.5	
384.35	3526.6	
384.55	5415.5	
384.76	5843.5	
384.96	4186	
385.17	4556	
385.37	5865.4	
385.58	5131.5	
385.78	4553.3	
385.98	3395.5	
386.19	5345.2	
386.39	5783.5	
386.6	3971	
386.8	4231.1	
387.01	5884.5	
387.21	5948	
387.42	4689.8	
387.62	5224.4	
387.83	5130.8	
388.03	5829.2	
388.23	4268	
388.44	5059.2	
388.64	4887.8	
388.85	4957.4	
389.05	4620.9	
389.26	5276.3	
389.46	6892.8	
389.67	6284.5	
389.87	4615.4	
390.07	4652.3	
390.28	5477	
390.48	5023	
390.69	3775.8	
390.89	4119.1	
391.1	5231.9	
391.3	6215.6	
391.5	5283.8	
391.71	6027.2	
391.91	5835.3	
392.12	6944	
392.32	5395	
392.53	4595	
392.73	5255.8	
392.93	5565	
393.14	4303.5	
393.34	5123.3	
393.55	6027.2	
393.75	5520.6	
393.95	4286.4	
394.16	4227.7	
394.36	5235.3	
394.57	5944.6	
394.77	3792.8	
394.98	4202.4	
395.18	5223.7	
395.38	5387.5	
395.59	5122.7	
395.79	3998.3	
396	5326.8	
396.2	5827.2	
396.4	4851.6	
396.61	4676.9	
396.81	6018.3	
397.02	5236.7	
397.22	5048.9	
397.42	5129.5	
397.63	6018.3	
397.83	5159.5	
398.04	3906.2	
398.24	4470.7	
398.44	5760.3	
398.65	4794.3	
398.85	3764.2	
399.05	3934.1	
399.26	5122.7	
399.46	6928.3	
399.67	4273.4	
399.87	4001	
400.07	5500.2	
400.28	5843.5	
400.48	4090.5	
400.69	5141.1	
400.89	6092.7	
401.09	6591.7	
401.3	3912.3	
401.5	5182.7	
401.7	6770.6	
401.91	7020.4	
402.11	4225.6	
402.32	4582.7	
402.52	6059.3	
402.72	6124.8	
402.93	4773.8	
403.13	3599	
403.33	6879.1	
403.54	5625.1	
403.74	4505.5	
403.94	5361.6	
404.15	5721.3	
404.35	6901	
404.56	4268	
404.76	6157.6	
404.96	6112.5	
405.17	5894.1	
405.37	5550.7	
405.57	4795	
405.78	6100.2	
405.98	5571.2	
406.18	4185.4	
406.39	5278.3	
406.59	6122.1	
406.79	5742.5	
407	4083	
407.2	4216.1	
407.4	6197.2	
407.61	6426.5	
407.81	4231.1	
408.01	6668.2	
408.22	5037.3	
408.42	7253.2	
408.62	5214.1	
408.83	4702.1	
409.03	5784.1	
409.23	5491.3	
409.44	4676.9	
409.64	5063.3	
409.84	6625.2	
410.05	6500.9	
410.25	4914.4	
410.45	4651.6	
410.66	5934.3	
410.86	8531.2	
411.06	5068.7	
411.27	4884.4	
411.47	8245.1	
411.67	6124.1	
411.88	5237.3	
412.08	5397.8	
412.28	6741.9	
412.49	7322.2	
412.69	4896	
412.89	4874.2	
413.09	7144.7	
413.3	6914.6	
413.5	4994.3	
413.7	4597	
413.91	6268.1	
414.11	7155.6	
414.31	4732.2	
414.52	5298.8	
414.72	6756.2	
414.92	6689.3	
415.12	4898.1	
415.33	5359.5	
415.53	7004.1	
415.73	7263.5	
415.94	5782.1	
416.14	5197.7	
416.34	5979.4	
416.55	5743.9	
416.75	6395.8	
416.95	5840.8	
417.15	7002.7	
417.36	7771.4	
417.56	6631.3	
417.76	5626.5	
417.97	7449.1	
418.17	7036.1	
418.37	5194.3	
418.57	5292	
418.78	6881.2	
418.98	6530.3	
419.18	6105	
419.38	6132.3	
419.59	6627.2	
419.79	6178	
419.99	5217.5	
420.2	5525.4	
420.4	7159	
420.6	7406.8	
420.8	5066.7	
421.01	4870.1	
421.21	6929.6	
421.41	7120.1	
421.61	5468.8	
421.82	5145.9	
422.02	6440.9	
422.22	7460.8	
422.42	6041.5	
422.63	5642.8	
422.83	6604.7	
423.03	7798	
423.23	5692.7	
423.44	4556.7	
423.64	6730.3	
423.84	6431.3	
424.04	5048.9	
424.25	4734.9	
424.45	7596.6	
424.65	7475.8	
424.85	4594.3	
425.06	5208.7	
425.26	7562.5	
425.46	6457.9	
425.66	5664.7	
425.87	5408.7	
426.07	7320.8	
426.27	7189.1	
426.47	5465.3	
426.67	4853	
426.88	7690.8	
427.08	7111.2	
427.28	5763.7	
427.48	4753.3	
427.69	6042.9	
427.89	6680.5	
428.09	5815.5	
428.29	4900.1	
428.5	7496.2	
428.7	6931.7	
428.9	4733.5	
429.1	5353.4	
429.3	6851.8	
429.51	7339.2	
429.71	5089.9	
429.91	5922	
430.11	7116	
430.31	7449.8	
430.52	5381.4	
430.72	5679	
430.92	7816.4	
431.12	7142.6	
431.32	5089.9	
431.53	5530.9	
431.73	6105	
431.93	7815	
432.13	5045.5	
432.33	4861.2	
432.54	6590.4	
432.74	6972	
432.94	4767.7	
433.14	5832.6	
433.34	7129.7	
433.55	6587.6	
433.75	5822.4	
433.95	7675.8	
434.15	6903	
434.35	6602.7	
434.56	4994.3	
434.76	4455.7	
434.96	6897.6	
435.16	7223.2	
435.36	4923.3	
435.56	6058.6	
435.77	6539.8	
435.97	6810.2	
436.17	6823.1	
436.37	6049.7	
436.57	6578.8	
436.78	6409.5	
436.98	7133.1	
437.18	6648.4	
437.38	7214.3	
437.58	6645	
437.78	6739.2	
437.99	5354.8	
438.19	7253.2	
438.39	8120.2	
438.59	5295.4	
438.79	4887.8	
438.99	8026	
439.2	6865.5	
439.4	5032.5	
439.6	4899.4	
439.8	7210.2	
440	8222.6	
440.2	6037.4	
440.4	6151.4	
440.61	7533.8	
440.81	8033.5	
441.01	5145.9	
441.21	6135	
441.41	7908.6	
441.61	7533.1	
441.81	6453.8	
442.02	7449.8	
442.22	8494.3	
442.42	7685.3	
442.62	5169.1	
442.82	5351.3	
443.02	7948.2	
443.22	7061.4	
443.43	5791.7	
443.63	5274.2	
443.83	6810.9	
444.03	6961	
444.23	6537.1	
444.43	6163.7	
444.63	7176.1	
444.83	8500.4	
445.04	5297.4	
445.24	6756.9	
445.44	7586.4	
445.64	7705.8	
445.84	6226.5	
446.04	6242.2	
446.24	7014.3	
446.44	7970.7	
446.65	5435.3	
446.85	5816.9	
447.05	7404.1	
447.25	7977.5	
447.45	5894.7	
447.65	5271.5	
447.85	7352.9	
448.05	6986.3	
448.25	6388.3	
448.46	6106.4	
448.66	7309.2	
448.86	7015	
449.06	5109	
449.26	6420.4	
449.46	7736.5	
449.66	6627.9	
449.86	5782.1	
450.06	5805.3	
450.26	6982.2	
450.47	7555	
450.67	6117.3	
450.87	6535.1	
451.07	7621.9	
451.27	7383.6	
451.47	5441.5	
451.67	6071.5	
451.87	7053.2	
452.07	8224	
452.27	5646.2	
452.47	5629.9	
452.67	7406.8	
452.88	8047.2	
453.08	4997.7	
453.28	7073	
453.48	8628.8	
453.68	7344	
453.88	5633.3	
454.08	5875.6	
454.28	7765.9	
454.48	7467.6	
454.68	6474.3	
454.88	7030	
455.08	7934.5	
455.28	7595.2	
455.48	5515.2	
455.68	6141.2	
455.89	8445.8	
456.09	8074.5	
456.29	5863.3	
456.49	5927.5	
456.69	8254	
456.89	7546.8	
457.09	6587.6	
457.29	6886.6	
457.49	7941.3	
457.69	8105.9	
457.89	6328.9	
458.09	5742.5	
458.29	7679.2	
458.49	8356.4	
458.69	6726.2	
458.89	6115.9	
459.09	8609.7	
459.29	8787.8	
459.49	6275.7	
459.69	7064.1	
459.9	8225.3	
460.1	7759.8	
460.3	6210.8	
460.5	5908.4	
460.7	8232.2	
460.9	7948.8	
461.1	5595.1	
461.3	7031.4	
461.5	8894.3	
461.7	8518.9	
461.9	6138.4	
462.1	6601.3	
462.3	8010.3	
462.5	8637.6	
462.7	6219.7	
462.9	6364.4	
463.1	9628.2	
463.3	9228.8	
463.5	6423.8	
463.7	7482.6	
463.9	8254.7	
464.1	8669.7	
464.3	6598.6	
464.5	6939.9	
464.7	8813.8	
464.9	8545.5	
465.1	8317.5	
465.3	7333.1	
465.5	9278	
465.7	9346.9	
465.9	7604.8	
466.1	7504.4	
466.3	9059.5	
466.5	8924.4	
466.7	8377.6	
466.9	7084.6	
467.1	8907.3	
467.3	9835	
467.5	8328.4	
467.7	7099.6	
467.9	9968.1	
468.1	10875	
468.3	7936.6	
468.5	8387.8	
468.7	8880.7	
468.9	8910.7	
469.1	7421.8	
469.3	8217.8	
469.5	10830	
469.7	8432.2	
469.9	7881.3	
470.1	7096.9	
470.3	8888.9	
470.5	8948.3	
470.7	8426.7	
470.9	7312.6	
471.1	8707.3	
471.3	9140.1	
471.5	7254.6	
471.69	9103.2	
471.89	8502.5	
472.09	8053.3	
472.29	7944.8	
472.49	8340	
472.69	8335.2	
472.89	9200.8	
473.09	7068.9	
473.29	7122.2	
473.49	8535.9	
473.69	8671.1	
473.89	8185	
474.09	7348.1	
474.29	9958.6	
474.49	9648	
474.69	8243.1	
474.89	7372.7	
475.09	8630.1	
475.29	8601.5	
475.49	6891.4	
475.69	7074.4	
475.88	10317	
476.08	9018.6	
476.28	6851.1	
476.48	7298.3	
476.68	9380.4	
476.88	9285.5	
477.08	7126.2	
477.28	7545.4	
477.48	8783.1	
477.68	9459.6	
477.88	6999.3	
478.08	7350.8	
478.28	9747.6	
478.48	8935.3	
478.67	7329.7	
478.87	6746.7	
479.07	9639.1	
479.27	9178.3	
479.47	7576.8	
479.67	7608.9	
479.87	9452.1	
480.07	10052	
480.27	6880.5	
480.47	8580.3	
480.67	9130.5	
480.87	9862.3	
481.06	7150.8	
481.26	8046.5	
481.46	9060.2	
481.66	8964.6	
481.86	7583.6	
482.06	8637.6	
482.26	8757.1	
482.46	9850.7	
482.66	7621.9	
482.86	7236.2	
483.05	9159.2	
483.25	8589.9	
483.45	10144	
483.65	7565.9	
483.85	8824.7	
484.05	9110	
484.25	8055.3	
484.45	8645.2	
484.65	10004	
484.84	10036	
485.04	7656.7	
485.24	7564.5	
485.44	10273	
485.64	8548.2	
485.84	7017.7	
486.04	8291.5	
486.24	8964	
486.44	9491.7	
486.63	6916.7	
486.83	7666.2	
487.03	8940.1	
487.23	9215.9	
487.43	6997.9	
487.63	9425.4	
487.83	9297.1	
488.02	10275	
488.22	8066.3	
488.42	8811.7	
488.62	10079	
488.82	9048.6	
489.02	7773.4	
489.22	7806.2	
489.41	9934.7	
489.61	9631.6	
489.81	7507.2	
490.01	7428.7	
490.21	9794.1	
490.41	10553	
490.61	7400.7	
490.8	7524.2	
491	9398.1	
491.2	8672.5	
491.4	8170	
491.6	7350.8	
491.8	9512.8	
491.99	9655.5	
492.19	7301	
492.39	7688.1	
492.59	10150	
492.79	10141	
492.99	8594.6	
493.18	7702.4	
493.38	10238	
493.58	10971	
493.78	8449.9	
493.98	8015.1	
494.18	9939.5	
494.37	9380.4	
494.57	8731.9	
494.77	8624.7	
494.97	10208	
495.17	10532	
495.37	8181.6	
495.56	8507.9	
495.76	10741	
495.96	10362	
496.16	9469.1	
496.36	8311.3	
496.55	10585	
496.75	10065	
496.95	8813.1	
497.15	8667	
497.35	10559	
497.54	10607	
497.74	8370	
497.94	10290	
498.14	11346	
498.34	11152	
498.53	8221.9	
498.73	9008.3	
498.93	10041	
499.13	10636	
499.33	8831.5	
499.52	9446.6	
499.72	10593	
499.92	10862	
500.12	8600.8	
500.32	8816.5	
500.51	10899	
500.71	10687	
500.91	9713.5	
501.11	9185.8	
501.31	10849	
501.5	11254	
501.7	9977.7	
501.9	8827.4	
502.1	10597	
502.29	10884	
502.49	9307.3	
502.69	9785.9	
502.89	10858	
503.09	10900	
503.28	8288.8	
503.48	8439	
503.68	10056	
503.88	10085	
504.07	9451.4	
504.27	8837	
504.47	10417	
504.67	10533	
504.86	9397.4	
505.06	9020.6	
505.26	10051	
505.46	12007	
505.65	8954.4	
505.85	9199.5	
506.05	9996.1	
506.25	10486	
506.44	8254	
506.64	9196.7	
506.84	9901.9	
507.04	10882	
507.23	8389.8	
507.43	9082.7	
507.63	11996	
507.83	10243	
508.02	8991.9	
508.22	8624	
508.42	12280	
508.62	9876	
508.81	8900.5	
509.01	9503.3	
509.21	9822.1	
509.4	10159	
509.6	9089.6	
509.8	8466.3	
510	10246	
510.19	11645	
510.39	8448.6	
510.59	8592.6	
510.79	9936.7	
510.98	11440	
511.18	8702.5	
511.38	8767.4	
511.57	10789	
511.77	10651	
511.97	9434.3	
512.17	8464.3	
512.36	10736	
512.56	10839	
512.76	8523	
512.95	8349.6	
513.15	11021	
513.35	9602.2	
513.55	9467.8	
513.74	8609.7	
513.94	11010	
514.14	10279	
514.33	9666.4	
514.53	9335.3	
514.73	10288	
514.92	10649	
515.12	8856.8	
515.32	8670.4	
515.51	10578	
515.71	11182	
515.91	10426	
516.11	8696.4	
516.3	12460	
516.5	10226	
516.7	9265	
516.89	9955.9	
517.09	10442	
517.29	10256	
517.48	9891	
517.68	9151.7	
517.88	10151	
518.07	10783	
518.27	9646.6	
518.47	8613.8	
518.66	11289	
518.86	9925.1	
519.06	8443.8	
519.25	8892.3	
519.45	10393	
519.65	11949	
519.84	9449.3	
520.04	10230	
520.24	12149	
520.43	10915	
520.63	9200.2	
520.83	8997.4	
521.02	10167	
521.22	10826	
521.42	9591.3	
521.61	10251	
521.81	10460	
522.01	10649	
522.2	9567.4	
522.4	9282.1	
522.6	11361	
522.79	10103	
522.99	9437	
523.18	8804.2	
523.38	11038	
523.58	11152	
523.77	10906	
523.97	8876.6	
524.17	13009	
524.36	12411	
524.56	10428	
524.76	9960.6	
524.95	11305	
525.15	10912	
525.34	9742.2	
525.54	9704.6	
525.74	11560	
525.93	10615	
526.13	11004	
526.33	9789.3	
526.52	12052	
526.72	11484	
526.91	11107	
527.11	10507	
527.31	12222	
527.5	12677	
527.7	10328	
527.89	9343.5	
528.09	11030	
528.29	11733	
528.48	10891	
528.68	10456	
528.87	12166	
529.07	12073	
529.27	10312	
529.46	9777.7	
529.66	11526	
529.85	12108	
530.05	9577	
530.25	10408	
530.44	13102	
530.64	11723	
530.83	10249	
531.03	10578	
531.23	12315	
531.42	12153	
531.62	11425	
531.81	10545	
532.01	12530	
532.21	13056	
532.4	10357	
532.6	10746	
532.79	13428	
532.99	12754	
533.18	10772	
533.38	11791	
533.58	12215	
533.77	12921	
533.97	10836	
534.16	11678	
534.36	13287	
534.55	12268	
534.75	11904	
534.95	10828	
535.14	13145	
535.34	12273	
535.53	10468	
535.73	12566	
535.92	13613	
536.12	12411	
536.31	10617	
536.51	11979	
536.71	12818	
536.9	12377	
537.1	10819	
537.29	11011	
537.49	13292	
537.68	12312	
537.88	11546	
538.07	10755	
538.27	12511	
538.46	13715	
538.66	10535	
538.86	11154	
539.05	12623	
539.25	12948	
539.44	11194	
539.64	10860	
539.83	12429	
540.03	13493	
540.22	10647	
540.42	10943	
540.61	12648	
540.81	12886	
541	11256	
541.2	12133	
541.39	12131	
541.59	12613	
541.78	11628	
541.98	10679	
542.18	11800	
542.37	11779	
542.57	11043	
542.76	11662	
542.96	11718	
543.15	12583	
543.35	11047	
543.54	10383	
543.74	12940	
543.93	12433	
544.13	10944	
544.32	12108	
544.52	12768	
544.71	11890	
544.91	9955.2	
545.1	11370	
545.3	11972	
545.49	12727	
545.69	10077	
545.88	10623	
546.08	13646	
546.27	13199	
546.47	11232	
546.66	10352	
546.86	12835	
547.05	13480	
547.24	10649	
547.44	10525	
547.63	11842	
547.83	13047	
548.02	10932	
548.22	11189	
548.41	11550	
548.61	12964	
548.8	10404	
549	10390	
549.19	12147	
549.39	12568	
549.58	9954.5	
549.78	10636	
549.97	12658	
550.17	12056	
550.36	11615	
550.55	12576	
550.75	12080	
550.94	12852	
551.14	10402	
551.33	10651	
551.53	11465	
551.72	12402	
551.92	10683	
552.11	10430	
552.31	12390	
552.5	12534	
552.69	12139	
552.89	10071	
553.08	12314	
553.28	12171	
553.47	10505	
553.67	11716	
553.86	13061	
554.06	11326	
554.25	9538.1	
554.44	10312	
554.64	13878	
554.83	13381	
555.03	10112	
555.22	10711	
555.42	12630	
555.61	12267	
555.8	10501	
556	10705	
556.19	11415	
556.39	12639	
556.58	10477	
556.78	10352	
556.97	12216	
557.16	11867	
557.36	11773	
557.55	10020	
557.75	11110	
557.94	12935	
558.13	10134	
558.33	9951.1	
558.52	12766	
558.72	11658	
558.91	10049	
559.1	10227	
559.3	11280	
559.49	11038	
559.69	9579	
559.88	10631	
560.07	12020	
560.27	12560	
560.46	10656	
560.66	10886	
560.85	11823	
561.04	10987	
561.24	9859.6	
561.43	10150	
561.63	11269	
561.82	11569	
562.01	11454	
562.21	10559	
562.4	12047	
562.59	13130	
562.79	10322	
562.98	10000	
563.18	11884	
563.37	13503	
563.56	10833	
563.76	10056	
563.95	11504	
564.14	11430	
564.34	10345	
564.53	10157	
564.73	12022	
564.92	12497	
565.11	10575	
565.31	9882.8	
565.5	12580	
565.69	11566	
565.89	10137	
566.08	10444	
566.27	12486	
566.47	12944	
566.66	11068	
566.85	9766.8	
567.05	12086	
567.24	11407	
567.44	10112	
567.63	11521	
567.82	12359	
568.02	12084	
568.21	10110	
568.4	10461	
568.6	11970	
568.79	12004	
568.98	9922.4	
569.18	10127	
569.37	11952	
569.56	14007	
569.76	10482	
569.95	11386	
570.14	12346	
570.34	12232	
570.53	10009	
570.72	9932	
570.91	12654	
571.11	11847	
571.3	10505	
571.49	11381	
571.69	11895	
571.88	11433	
572.07	11034	
572.27	11014	
572.46	11521	
572.65	12552	
572.85	10206	
573.04	10587	
573.23	12913	
573.43	12137	
573.62	10099	
573.81	10793	
574	12136	
574.2	12023	
574.39	10563	
574.58	10690	
574.78	13070	
574.97	12339	
575.16	11023	
575.36	11265	
575.55	12697	
575.74	12867	
575.93	10067	
576.13	11243	
576.32	12025	
576.51	12566	
576.71	10553	
576.9	11968	
577.09	13026	
577.28	12512	
577.48	11138	
577.67	9992	
577.86	12174	
578.05	12579	
578.25	10731	
578.44	10810	
578.63	12276	
578.83	13538	
579.02	10110	
579.21	11661	
579.4	12571	
579.6	12250	
579.79	10897	
579.98	13244	
580.17	13084	
580.37	12947	
580.56	10372	
580.75	11203	
580.94	13518	
581.14	13372	
581.33	11768	
581.52	10578	
581.71	12838	
581.91	13487	
582.1	10253	
582.29	10856	
582.48	12418	
582.68	12523	
582.87	11385	
583.06	11045	
583.25	12766	
583.45	12172	
583.64	11779	
583.83	12656	
584.02	12263	
584.21	12837	
584.41	11684	
584.6	11034	
584.79	12495	
584.98	13344	
585.18	10547	
585.37	10419	
585.56	12016	
585.75	12859	
585.94	10564	
586.14	11417	
586.33	13358	
586.52	12465	
586.71	11129	
586.91	10798	
587.1	11759	
587.29	12767	
587.48	10579	
587.67	10492	
587.87	12498	
588.06	12566	
588.25	11871	
588.44	11052	
588.63	11973	
588.83	12501	
589.02	10202	
589.21	10099	
589.4	11527	
589.59	11428	
589.78	9232.9	
589.98	9405	
590.17	10809	
590.36	11526	
590.55	8786.5	
590.74	9568.8	
590.94	12878	
591.13	11430	
591.32	9474.6	
591.51	8915.5	
591.7	11916	
591.89	11354	
592.09	9153.7	
592.28	9552.4	
592.47	10513	
592.66	12637	
592.85	9192.6	
593.05	9420.7	
593.24	11185	
593.43	12045	
593.62	9499.8	
593.81	10054	
594	11259	
594.19	11525	
594.39	9310.1	
594.58	9287.5	
594.77	11591	
594.96	12224	
595.15	9336	
595.34	9929.2	
595.54	11533	
595.73	10677	
595.92	8556.4	
596.11	9727.9	
596.3	12061	
596.49	10851	
596.68	9604.3	
596.88	10124	
597.07	11907	
597.26	10627	
597.45	9098.4	
597.64	10285	
597.83	10817	
598.02	11566	
598.22	9235	
598.41	9907.4	
598.6	11336	
598.79	10718	
598.98	9275.9	
599.17	10135	
599.36	11303	
599.55	12517	
599.74	11391	
599.94	11134	
600.13	11970	
600.32	10673	
600.51	9033.6	
600.7	9190.6	
600.89	12693	
601.08	12523	
601.27	8984.4	
601.47	9958.6	
601.66	11774	
601.85	12566	
602.04	9681.4	
602.23	9737.4	
602.42	10819	
602.61	11489	
602.8	9612.5	
602.99	9415.2	
603.18	11248	
603.37	11652	
603.57	10098	
603.76	10746	
603.95	12261	
604.14	11945	
604.33	9425.4	
604.52	9901.9	
604.71	11578	
604.9	11080	
605.09	10368	
605.28	10138	
605.47	12076	
605.66	11774	
605.86	10111	
606.05	9538.1	
606.24	12104	
606.43	10593	
606.62	9736	
606.81	10663	
607	11896	
607.19	11349	
607.38	9161.9	
607.57	9373.6	
607.76	11049	
607.95	10453	
608.14	9948.3	
608.33	10594	
608.52	10998	
608.72	11912	
608.91	9051.3	
609.1	9136	
609.29	11021	
609.48	10545	
609.67	9970.9	
609.86	9055.4	
610.05	10601	
610.24	10964	
610.43	8991.9	
610.62	8468.4	
610.81	12083	
611	11908	
611.19	9115.5	
611.38	9771.5	
611.57	11293	
611.76	12671	
611.95	8852.7	
612.14	8697	
612.33	11080	
612.52	10525	
612.71	9383.8	
612.9	8613.8	
613.09	10273	
613.28	12667	
613.47	9045.2	
613.66	10148	
613.85	11227	
614.04	10770	
614.24	9168.8	
614.43	8448.6	
614.62	11435	
614.81	11316	
615	9757.2	
615.19	9803.6	
615.38	10560	
615.57	11017	
615.76	9667.1	
615.95	10532	
616.14	11460	
616.33	11055	
616.52	10086	
616.71	10357	
616.9	11500	
617.09	11314	
617.28	9384.5	
617.47	10746	
617.66	10573	
617.85	10576	
618.04	10438	
618.22	9818.6	
618.41	10918	
618.6	11982	
618.79	9769.5	
618.98	9356.5	
619.17	12261	
619.36	10543	
619.55	9598.1	
619.74	9708.7	
619.93	11475	
620.12	10963	
620.31	10275	
620.5	10490	
620.69	12074	
620.88	12585	
621.07	11237	
621.26	10193	
621.45	11750	
621.64	11826	
621.83	10409	
622.02	9437.7	
622.21	11815	
622.4	11617	
622.59	10814	
622.78	10705	
622.97	11199	
623.16	12208	
623.35	10350	
623.54	9480.7	
623.72	11381	
623.91	11568	
624.1	10579	
624.29	9213.1	
624.48	12706	
624.67	11790	
624.86	10546	
625.05	9480	
625.24	12769	
625.43	11101	
625.62	12276	
625.81	9800.9	
626	12166	
626.19	11469	
626.38	10517	
626.56	9786.6	
626.75	11234	
626.94	11718	
627.13	10408	
627.32	9170.1	
627.51	11710	
627.7	13202	
627.89	9270.5	
628.08	10456	
628.27	11022	
628.46	11331	
628.65	9574.9	
628.83	9235	
629.02	11751	
629.21	11145	
629.4	10134	
629.59	10228	
629.78	11043	
629.97	12137	
630.16	10412	
630.35	9742.9	
630.54	12562	
630.72	12215	
630.91	9799.5	
631.1	10401	
631.29	11665	
631.48	11894	
631.67	10457	
631.86	9895.1	
632.05	11359	
632.24	11472	
632.42	9541.5	
632.61	10096	
632.8	11408	
632.99	11063	
633.18	10249	
633.37	10596	
633.56	11704	
633.75	11587	
633.93	10177	
634.12	9846.6	
634.31	12564	
634.5	12211	
634.69	9903.3	
634.88	10432	
635.07	11525	
635.25	12211	
635.44	10855	
635.63	11153	
635.82	11360	
636.01	10866	
636.2	10834	
636.39	10408	
636.57	12454	
636.76	12194	
636.95	9685.5	
637.14	11157	
637.33	11848	
637.52	12719	
637.7	9375.6	
637.89	10488	
638.08	11410	
638.27	12841	
638.46	10533	
638.65	10938	
638.83	12696	
639.02	11157	
639.21	10432	
639.4	10835	
639.59	11641	
639.78	11275	
639.96	9638.4	
640.15	9677.3	
640.34	11475	
640.53	11634	
640.72	9176.3	
640.91	9716.9	
641.09	10839	
641.28	12191	
641.47	9582.4	
641.66	10505	
641.85	11469	
642.03	11746	
642.22	10244	
642.41	9678	
642.6	10836	
642.79	10301	
642.97	9368.1	
643.16	10253	
643.35	10931	
643.54	10626	
643.73	9250.7	
643.91	10129	
644.1	10398	
644.29	11026	
644.48	9127.8	
644.67	9298.5	
644.85	10553	
645.04	10765	
645.23	8680	
645.42	9015.8	
645.6	10175	
645.79	11413	
645.98	8996	
646.17	7860.1	
646.36	9843.9	
646.54	10462	
646.73	9605	
646.92	8275.2	
647.11	9996.1	
647.29	11037	
647.48	8460.8	
647.67	8203.5	
647.86	11392	
648.05	11434	
648.23	8753	
648.42	10204	
648.61	10727	
648.8	10514	
648.98	8519.6	
649.17	8905.9	
649.36	10073	
649.55	9504.6	
649.73	8563.2	
649.92	9289.6	
650.11	9876	
650.3	10263	
650.48	8677.2	
650.67	8372.8	
650.86	10568	
651.05	9399.5	
651.23	8658.8	
651.42	8569.4	
651.61	10013	
651.79	10058	
651.98	8743.5	
652.17	8389.2	
652.36	10404	
652.54	9480	
652.73	8400.8	
652.92	8122.2	
653.11	10355	
653.29	10449	
653.48	7521.5	
653.67	8628.1	
653.85	10048	
654.04	11126	
654.23	8742.8	
654.42	8152.3	
654.6	9453.4	
654.79	10051	
654.98	7637.6	
655.16	8201.4	
655.35	9013.8	
655.54	9075.9	
655.73	7783	
655.91	7720.2	
656.1	10335	
656.29	9090.3	
656.47	7382.2	
656.66	9080.7	
656.85	9400.2	
657.03	9496.4	
657.22	7922.9	
657.41	8118.1	
657.59	9566.1	
657.78	9341.5	
657.97	7632.1	
658.16	8460.8	
658.34	10241	
658.53	10768	
658.72	9389.3	
658.9	9851.4	
659.09	9626.1	
659.28	9783.1	
659.46	8247.2	
659.65	8156.4	
659.84	9490.3	
660.02	10005	
660.21	7939.3	
660.4	7977.5	
660.58	10454	
660.77	9850	
660.96	8583.7	
661.14	7600.7	
661.33	10961	
661.52	10873	
661.7	7578.8	
661.89	11400	
662.08	9275.9	
662.26	8998.1	
662.45	7787.7	
662.64	7989.8	
662.82	10099	
663.01	9278.7	
663.2	8071.7	
663.38	8796.7	
663.57	9949.7	
663.75	9911.5	
663.94	8216.5	
664.13	9620	
664.31	9279.3	
664.5	9965.4	
664.69	8671.8	
664.87	9192	
665.06	9048.6	
665.25	9739.5	
665.43	9342.2	
665.62	9377	
665.8	10206	
665.99	9487.6	
666.18	8290.2	
666.36	8395.3	
666.55	10131	
666.74	10001	
666.92	7843	
667.11	9519	
667.29	9528.5	
667.48	10041	
667.67	9106.6	
667.85	8269.7	
668.04	9422.7	
668.22	9497.8	
668.41	8293.6	
668.6	8418.5	
668.78	9116.2	
668.97	9472.5	
669.15	8667	
669.34	7556.3	
669.53	9177.6	
669.71	9540.8	
669.9	7689.4	
670.08	8431.5	
670.27	9136.7	
670.46	9826.8	
670.64	8698.4	
670.83	8927.1	
671.01	9160.6	
671.2	9813.9	
671.38	7781.6	
671.57	7620.5	
671.76	10386	
671.94	10988	
672.13	7649.2	
672.31	8730.5	
672.5	10023	
672.69	9216.5	
672.87	7854	
673.06	8176.2	
673.24	9765.4	
673.43	9366.7	
673.61	8529.1	
673.8	8162.5	
673.98	9914.9	
674.17	10160	
674.36	8761.9	
674.54	8546.2	
674.73	9705.3	
674.91	9879.4	
675.1	8314.8	
675.28	7930.4	
675.47	9451.4	
675.65	10036	
675.84	8198.7	
676.03	8459.5	
676.21	9186.5	
676.4	8725.7	
676.58	8959.9	
676.77	8740	
676.95	10680	
677.14	9121.7	
677.32	7797.3	
677.51	7600	
677.69	10010	
677.88	8841.8	
678.06	7699	
678.25	7748.1	
678.44	9459.6	
678.62	9256.1	
678.81	7475.8	
678.99	8557.8	
679.18	10365	
679.36	9911.5	
679.55	8150.9	
679.73	8804.9	
679.92	9858.9	
680.1	9280	
680.29	9439.1	
680.47	8169.3	
680.66	9065	
680.84	10068	
681.03	7365.9	
681.21	8449.9	
681.4	9245.9	
681.58	9056.8	
681.77	7834.2	
681.95	7740.6	
682.14	10109	
682.32	10444	
682.51	8760.5	
682.69	7557	
682.88	9100.5	
683.06	9688.3	
683.25	8413.7	
683.43	8851.3	
683.62	9388.6	
683.8	9705.3	
683.99	8865	
684.17	8023.3	
684.36	10389	
684.54	8951	
684.73	6931.7	
684.91	7176.1	
685.1	9247.9	
685.28	8617.2	
685.46	7761.1	
685.65	7815.7	
685.83	9501.9	
686.02	8742.8	
686.2	7370.6	
686.39	7504.4	
686.57	8596.7	
686.76	10244	
686.94	7333.1	
687.13	7582.9	
687.31	9359.9	
687.5	8959.2	
687.68	7066.2	
687.86	8313.4	
688.05	10768	
688.23	8475.2	
688.42	8419.9	
688.6	7635.5	
688.79	9001.5	
688.97	8903.9	
689.16	8079.9	
689.34	6922.1	
689.52	9691.7	
689.71	9989.3	
689.89	8295	
690.08	7565.2	
690.26	9166	
690.45	9091.6	
690.63	8478.6	
690.81	7765.2	
691	8865.7	
691.18	8835.6	
691.37	7902.4	
691.55	10107	
691.74	8753	
691.92	10864	
692.1	7909.3	
692.29	7259.4	
692.47	9132.6	
692.66	8294.3	
692.84	7634.8	
693.02	8271.1	
693.21	8627.4	
693.39	9131.2	
693.58	8355.7	
693.76	7725.6	
693.94	10519	
694.13	10247	
694.31	7877.9	
694.5	9069.8	
694.68	9106	
694.86	9524.4	
695.05	8290.2	
695.23	8685.4	
695.42	9967.5	
695.6	12252	
695.78	8910	
695.97	7991.9	
696.15	9932	
696.34	9288.9	
696.52	7744.1	
696.7	8623.3	
696.89	9586.5	
697.07	9042.5	
697.25	8387.1	
697.44	10039	
697.62	9528.5	
697.81	9897.2	
697.99	8056	
698.17	8568.7	
698.36	8834.3	
698.54	9520.3	
698.72	8454	
698.91	7413.6	
699.09	9071.8	
699.28	8996.7	
699.46	8101.8	
699.64	8063.5	
699.83	9014.5	
700.01	10300	
700.19	8961.2	
700.38	7331	
700.56	10471	
700.74	9285.5	
700.93	7770	
701.11	8722.3	
701.29	9867.8	
701.48	10936	
701.66	8045.8	
701.84	8135.9	
702.03	9478	
702.21	10251	
702.39	7581.6	
702.58	8299.1	
702.76	9927.9	
702.94	10041	
703.13	7718.1	
703.31	10297	
703.49	9250	
703.68	10669	
703.86	7917.4	
704.04	8880.7	
704.23	9732.6	
704.41	10163	
704.59	8211	
704.78	9438.4	
704.96	11015	
705.14	10269	
705.33	7899.7	
705.51	8728.4	
705.69	9663.7	
705.87	10551	
706.06	9170.1	
706.24	8041.7	
706.42	9937.4	
706.61	10385	
706.79	9106.6	
706.97	7907.9	
707.16	9416.6	
707.34	10081	
707.52	9056.1	
707.7	8393.3	
707.89	9577	
708.07	9286.2	
708.25	9149	
708.44	9295.7	
708.62	9648	
708.8	10835	
708.98	9398.1	
709.17	8305.9	
709.35	9985.9	
709.53	10035	
709.72	8038.3	
709.9	8161.8	
710.08	10188	
710.26	10249	
710.45	9707.4	
710.63	8357.1	
710.81	9871.2	
710.99	9914.2	
711.18	8922.3	
711.36	8429.4	
711.54	9678.7	
711.72	10331	
711.91	8500.4	
712.09	7796.6	
712.27	9761.3	
712.45	10354	
712.64	8607.6	
712.82	7404.8	
713	8871.8	
713.18	9035	
713.37	7342	
713.55	8598.1	
713.73	9720.3	
713.91	8101.8	
714.1	7432.8	
714.28	6903	
714.46	9043.1	
714.64	8125.7	
714.83	6039.5	
715.01	6876.4	
715.19	8063.5	
715.37	7439.6	
715.55	6481.8	
715.74	6850.5	
715.92	9041.1	
716.1	6901.7	
716.28	7952.9	
716.47	6946.7	
716.65	7577.5	
716.83	7708.6	
717.01	6824.5	
717.19	6883.2	
717.38	10044	
717.56	7522.9	
717.74	7260.7	
717.92	6472.9	
718.1	8938.7	
718.29	8227.4	
718.47	6244.9	
718.65	6959.7	
718.83	9058.2	
719.01	9019.3	
719.2	6240.8	
719.38	7369.3	
719.56	8659.5	
719.74	10300	
719.92	6853.2	
720.11	7837.6	
720.29	8606.2	
720.47	7604.1	
720.65	6249	
720.83	7101	
721.02	7908.6	
721.2	7638.9	
721.38	7077.8	
721.56	6206	
721.74	7084.6	
721.92	7289.4	
722.11	7611.6	
722.29	7326.3	
722.47	8644.5	
722.65	7732.4	
722.83	6333	
723.01	7243	
723.2	7805.5	
723.38	8099	
723.56	5698.1	
723.74	6980.2	
723.92	7243.7	
724.1	8526.4	
724.29	6164.4	
724.47	7354.3	
724.65	7385.7	
724.83	7339.2	
725.01	6128.9	
725.19	7000.6	
725.37	7388.4	
725.56	7476.5	
725.74	5980.8	
725.92	6223.1	
726.1	7344	
726.28	7616.4	
726.46	6668.2	
726.64	6370.5	
726.83	7600	
727.01	7895.6	
727.19	5942.5	
727.37	6869.6	
727.55	7742.7	
727.73	8329.8	
727.91	6040.8	
728.09	5857.9	
728.28	8391.9	
728.46	9181	
728.64	7142.6	
728.82	7058.7	
729	9723.1	
729.18	9088.2	
729.36	6437.4	
729.54	8741.4	
729.72	10124	
729.91	8402.1	
730.09	8512	
730.27	7266.9	
730.45	8279.3	
730.63	9057.5	
730.81	7952.3	
730.99	6965.8	
731.17	9562.6	
731.35	8094.3	
731.53	7560.4	
731.71	7094.2	
731.9	9288.9	
732.08	9389.9	
732.26	7287.4	
732.44	6974	
732.62	9422	
732.8	8940.7	
732.98	7822.6	
733.16	6760.3	
733.34	8940.7	
733.52	7685.3	
733.7	7195.9	
733.88	7630.7	
734.07	8755.1	
734.25	8557.1	
734.43	6687.3	
734.61	8434.2	
734.79	10125	
734.97	8488.1	
735.15	6911.9	
735.33	7218.4	
735.51	8734.6	
735.69	8492.2	
735.87	8512.7	
736.05	7602.7	
736.23	8700.5	
736.41	8463.6	
736.59	7352.9	
736.77	7542.7	
736.95	9253.4	
737.13	8576.9	
737.32	7072.3	
737.5	7337.2	
737.68	9694.4	
737.86	8456.1	
738.04	6811.5	
738.22	8759.8	
738.4	8218.5	
738.58	8495	
738.76	7503.8	
738.94	6379.4	
739.12	8342.1	
739.3	8351.6	
739.48	8142	
739.66	7886	
739.84	8854.1	
740.02	8692.3	
740.2	6547.4	
740.38	6930.3	
740.56	9106.6	
740.74	7922.2	
740.92	7545.4	
741.1	7475.8	
741.28	8434.9	
741.46	8215.8	
741.64	7053.9	
741.82	7552.2	
742	8503.8	
742.18	8481.3	
742.36	7388.4	
742.54	6771.9	
742.72	9043.8	
742.9	7720.8	
743.08	7632.1	
743.26	6403.3	
743.44	9289.6	
743.62	9150.3	
743.8	7853.3	
743.98	6902.3	
744.16	8723.7	
744.34	8393.9	
744.52	7761.1	
744.7	7664.9	
744.88	8806.3	
745.06	8328.4	
745.24	7661.5	
745.42	7733.8	
745.6	8909.3	
745.78	8512.7	
745.96	6389.7	
746.14	6688	
746.32	9709.4	
746.5	8901.8	
746.68	7275.8	
746.86	6709.1	
747.03	9224.7	
747.21	7537.2	
747.39	7288	
747.57	6688.7	
747.75	8389.8	
747.93	8919.6	
748.11	6767.9	
748.29	6649.8	
748.47	10014	
748.65	8051.2	
748.83	7492.2	
749.01	7215.7	
749.19	8715.5	
749.37	7796.6	
749.55	7049.1	
749.73	7182.2	
749.91	8316.1	
750.09	7953.6	
750.26	7234.8	
750.44	6543.9	
750.62	8342.7	
750.8	8304.5	
750.98	6422.4	
751.16	6720.1	
751.34	8403.5	
751.52	7656	
751.7	7524.2	
751.88	6425.8	
752.06	8824.7	
752.24	8711.4	
752.42	6233.3	
752.59	6677.1	
752.77	8150.2	
752.95	9659.6	
753.13	7532.4	
753.31	6769.2	
753.49	7894.2	
753.67	8308.6	
753.85	7049.1	
754.03	6612.2	
754.21	8615.1	
754.38	8866.3	
754.56	6709.1	
754.74	5624.4	
754.92	7511.9	
755.1	8172.1	
755.28	5330.2	
755.46	5104.9	
755.64	8364.6	
755.82	8349.6	
755.99	4895.3	
756.17	4947.2	
756.35	5362.3	
756.53	6969.9	
756.71	3594.2	
756.89	4610.7	
757.07	6644.3	
757.25	5754.1	
757.42	5417.6	
757.6	6391.7	
757.78	7081.9	
757.96	6053.1	
758.14	5292	
758.32	4717.2	
758.5	5476.3	
758.67	6266.1	
758.85	5068.7	
759.03	5087.2	
759.21	6454.5	
759.39	5877	
759.57	4574.5	
759.75	5774.6	
759.92	7180.9	
760.1	6534.4	
760.28	6253.1	
760.46	6660	
760.64	6343.2	
760.82	6150.1	
760.99	6272.9	
761.17	5532.2	
761.35	7404.8	
761.53	6374	
761.71	5727.5	
761.89	6579.4	
762.06	7482.6	
762.24	7003.4	
762.42	5968.5	
762.6	5690.6	
762.78	7080.5	
762.96	7722.9	
763.13	6466.1	
763.31	6135	
763.49	7985.7	
763.67	7064.8	
763.85	7048.4	
764.02	7614.3	
764.2	8359.8	
764.38	7471	
764.56	5987.6	
764.74	6960.4	
764.91	8460.8	
765.09	7301	
765.27	5670.1	
765.45	5481.7	
765.63	8398	
765.8	8321.6	
765.98	5245.5	
766.16	5559.6	
766.34	6746.7	
766.52	6528.9	
766.69	6506.4	
766.87	5309	
767.05	7141.9	
767.23	8053.3	
767.41	5623	
767.58	5827.2	
767.76	7707.9	
767.94	7794.6	
768.12	5655.8	
768.29	6526.9	
768.47	7187.7	
768.65	7854.6	
768.83	5225.7	
769	6454.5	
769.18	6593.8	
769.36	7427.3	
769.54	6186.2	
769.72	5233.9	
769.89	7658.7	
770.07	7708.6	
770.25	5565.7	
770.43	6823.8	
770.6	8378.2	
770.78	8824	
770.96	5689.9	
771.14	6318	
771.31	7481.9	
771.49	6823.1	
771.67	4846.9	
771.85	5087.2	
772.02	5994.4	
772.2	6763.8	
772.38	5820.3	
772.55	5261.2	
772.73	7020.4	
772.91	6790.4	
773.09	5630.5	
773.26	5777.3	
773.44	6907.8	
773.62	6584.9	
773.8	5102.2	
773.97	4801.8	
774.15	6953.5	
774.33	6552.1	
774.5	4945.8	
774.68	5300.1	
774.86	7132.4	
775.04	6472.3	
775.21	4986.8	
775.39	4900.1	
775.57	6640.9	
775.74	7217.7	
775.92	4758.8	
776.1	4682.3	
776.27	6636.1	
776.45	8032.1	
776.63	4838	
776.81	4361.5	
776.98	6264.7	
777.16	7473.7	
777.34	5085.1	
777.51	5362.9	
777.69	6235.4	
777.87	5994.4	
778.04	5040.1	
778.22	5683.1	
778.4	6023.1	
778.57	6697.5	
778.75	4209.9	
778.93	4414.7	
779.1	5799.2	
779.28	5620.3	
779.46	4237.9	
779.64	4717.2	
779.81	6827.9	
779.99	7641	
780.17	5528.8	
780.34	5662.6	
780.52	6153.5	
780.69	6426.5	
780.87	5033.2	
781.05	4540.3	
781.22	6195.1	
781.4	6329.6	
781.58	4674.8	
781.75	3761.4	
781.93	6265.4	
782.11	5588.9	
782.28	5507	
782.46	4620.9	
782.64	5409.4	
782.81	6437.4	
782.99	4635.9	
783.17	4638	
783.34	6262	
783.52	5408	
783.69	4856.4	
783.87	5670.8	
784.05	5429.8	
784.22	5490.6	
784.4	5677.7	
784.58	4872.1	
784.75	6464.8	
784.93	5502.2	
785.1	4498.7	
785.28	5115.8	
785.46	6096.1	
785.63	5447.6	
785.81	4489.1	
785.99	4316.4	
786.16	5583.4	
786.34	6041.5	
786.51	4283.7	
786.69	4736.3	
786.87	5194.3	
787.04	5739.8	
787.22	4101.4	
787.39	5173.2	
787.57	5436.7	
787.75	6587.6	
787.92	5363.6	
788.1	5336.3	
788.27	5472.9	
788.45	5227.8	
788.63	4947.9	
788.8	3577.1	
788.98	5831.9	
789.15	5117.2	
789.33	3724.6	
789.5	4453	
789.68	6337.1	
789.86	6508.4	
790.03	4851	
790.21	4290.5	
790.38	6267.5	
790.56	5513.8	
790.73	4081.6	
790.91	4165.6	
791.09	5324	
791.26	6148	
791.44	4358.1	
791.61	3760.8	
791.79	5339.7	
791.96	5377.3	
792.14	3931.4	
792.32	3420.8	
792.49	5326.8	
792.67	5414.8	
792.84	3926.6	
793.02	3769.6	
793.19	5797.8	
793.37	6533.7	
793.54	3416	
793.72	3807.2	
793.89	6711.9	
794.07	5288.5	
794.25	4483	
794.42	3564.8	
794.6	6403.3	
794.77	6022.4	
794.95	4710.3	
795.12	4143	
795.3	5256.5	
795.47	5943.9	
795.65	4540.3	
795.82	4328	
796	5074.9	
796.17	7073.7	
796.35	4192.2	
796.52	4944.5	
796.7	5812.1	
796.87	5968.5	
797.05	5241.4	
797.22	5081	
797.4	5874.9	
797.57	6984.9	
797.75	4318.5	
797.92	4069.3	
798.1	6180.1	
798.27	5242.8	
798.45	3470.6	
798.62	3766.2	
798.8	5578.7	
798.97	6033.3	
799.15	4560.8	
799.32	4278.2	
799.5	4838	
799.67	5627.8	
799.85	4677.6	
800.02	3376.4	
800.2	5151.3	
800.37	5522.7	
800.55	4819.6	
800.72	4012.7	
800.9	5978	
801.07	6483.9	
801.25	5421.7	
801.42	4428.4	
801.6	6091.3	
801.77	5784.1	
801.95	3979.2	
802.12	3898	
802.29	5763	
802.47	5808.7	
802.64	4390.8	
802.82	3318.4	
802.99	5142.4	
803.17	6286.6	
803.34	4272.1	
803.52	3874.1	
803.69	6935.8	
803.87	4944.5	
804.04	4231.1	
804.21	4359.4	
804.39	6320	
804.56	5388.2	
804.74	3644	
804.91	4486.4	
805.09	5187.5	
805.26	5252.4	
805.44	3712.3	
805.61	3999	
805.78	5901.6	
805.96	5990.3	
806.13	4397.7	
806.31	4754.7	
806.48	4715.8	
806.66	5276.9	
806.83	4386.1	
807	4352.6	
807.18	5151.3	
807.35	5554.1	
807.53	4316.4	
807.7	3354.6	
807.87	6367.8	
808.05	5182	
808.22	4725.3	
808.4	3405.1	
808.57	5173.2	
808.74	4809.3	
808.92	3882.3	
809.09	4932.2	
809.27	5046.2	
809.44	5712.5	
809.61	3454.9	
809.79	3874.1	
809.96	6363.7	
810.14	6004.6	
810.31	3321.8	
810.48	4033.8	
810.66	5230.5	
810.83	6133	
811.01	3870	
811.18	4689.8	
811.35	5923.4	
811.53	4625	
811.7	4650.9	
811.87	4384	
812.05	5162.2	
812.22	5088.5	
812.39	3769.6	
812.57	3670	
812.74	5180.7	
812.92	6928.3	
813.09	4095.9	
813.26	4434.5	
813.44	6616.3	
813.61	5107.6	
813.78	3366.2	
813.96	4558.8	
814.13	5180.7	
814.3	4816.1	
814.48	4928.1	
814.65	4090.5	
814.82	6434.7	
815	4930.1	
815.17	4206.5	
815.34	5129.5	
815.52	5169.1	
815.69	5097.4	
815.87	4180.6	
816.04	3569.6	
816.21	5193.6	
816.38	4561.5	
816.56	4043.4	
816.73	3708.2	
816.9	6550.8	
817.08	5970.5	
817.25	3782.6	
817.42	4825	
817.6	4730.1	
817.77	5231.2	
817.94	4258.4	
818.12	3714.3	
818.29	4876.9	
818.46	7762.5	
818.64	3930.1	
818.81	3693.9	
818.98	4863.9	
819.16	7078.5	
819.33	4475.5	
819.5	4169	
819.67	5563.6	
819.85	6198.5	
820.02	4083	
820.19	4290.5	
820.37	5367.7	
820.54	5003.9	
820.71	4309.6	
820.88	5339.1	
821.06	5390.9	
821.23	4933.6	
821.4	4296.6	
821.58	4250.9	
821.75	5925.5	
821.92	5319.3	
822.09	3465.8	
822.27	3514.3	
822.44	5133.6	
822.61	5032.5	
822.79	3489.1	
822.96	6640.2	
823.13	5697.4	
823.3	4870.1	
823.48	3981.3	
823.65	3561.4	
823.82	5845.6	
823.99	4726.7	
824.17	5033.9	
824.34	3704.8	
824.51	6862.1	
824.68	5244.8	
824.86	3808.5	
825.03	4263.2	
825.2	5126.7	
825.37	6328.9	
825.55	3803.1	
825.72	4171.7	
825.89	6925.5	
826.06	6344.6	
826.24	4134.8	
826.41	4070	
826.58	6285.2	
826.75	5503.6	
826.92	3203	
827.1	3590.1	
827.27	8598.1	
827.44	6802.7	
827.61	3845.4	
827.79	4749.2	
827.96	4929.5	
828.13	5291.3	
828.3	4028.4	
828.47	3437.2	
828.65	5464.7	
828.82	5362.9	
828.99	5261.2	
829.16	4626.4	
829.34	5814.2	
829.51	5621.7	
829.68	4160.8	
829.85	4383.3	
830.02	6070.9	
830.2	5831.2	
830.37	3271.3	
830.54	5113.8	
830.71	6642.9	
830.88	5189.6	
831.05	3259.7	
831.23	3809.9	
831.4	6358.9	
831.57	7103	
831.74	3887	
831.91	3432.4	
832.09	5408	
832.26	5809.4	
832.43	4098	
832.6	4551.3	
832.77	5470.1	
832.94	6157.6	
833.12	3192.8	
833.29	3964.2	
833.46	5638.1	
833.63	7301	
833.8	4433.9	
833.97	4053.6	
834.15	5778	
834.32	5556.8	
834.49	4213.4	
834.66	4282.3	
834.83	6059.3	
835	4848.2	
835.17	3920.5	
835.35	3884.3	
835.52	5694.7	
835.69	5548.6	
835.86	4119.1	
836.03	3377.1	
836.2	5711.8	
836.37	5370.5	
836.55	4011.3	
836.72	3824.9	
836.89	5335	
837.06	5753.4	
837.23	4111.6	
837.4	4496.7	
837.57	6644.3	
837.75	7352.2	
837.92	3674.1	
838.09	3917.1	
838.26	5309.7	
838.43	6100.2	
838.6	4233.2	
838.77	3707.5	
838.94	7024.5	
839.11	6677.1	
839.29	4047.5	
839.46	3159.3	
839.63	5780.1	
839.8	5469.4	
839.97	3910.3	
840.14	3908.9	
840.31	5545.2	
840.48	5778.7	
840.65	3240.6	
840.82	3840.6	
841	5810.8	
841.17	5717.2	
841.34	3596.9	
841.51	3670.6	
841.68	5688.6	
841.85	5472.2	
842.02	3751.9	
842.19	3079.5	
842.36	5526.8	
842.53	5457.8	
842.7	3578.5	
842.87	4405.9	
843.05	7293.5	
843.22	5438	
843.39	3385.3	
843.56	3749.1	
843.73	5208	
843.9	5829.2	
844.07	5841.5	
844.24	4884.4	
844.41	8589.2	
844.58	4945.2	
844.75	3511.6	
844.92	3806.5	
845.09	5784.1	
845.26	5773.9	
845.43	3566.9	
845.6	3789.4	
845.77	5810.8	
845.94	5463.3	
846.12	3930.7	
846.29	4186.7	
846.46	5992.4	
846.63	5776.6	
846.8	3575.8	
846.97	4240.7	
847.14	6247.7	
847.31	5750.7	
847.48	4045.4	
847.65	4437.3	
847.82	6049.7	
847.99	5982.8	
848.16	4824.3	
848.33	4430.4	
848.5	5281.7	
848.67	6235.4	
848.84	3509.5	
849.01	3732.8	
849.18	5080.3	
849.35	4785.4	
849.52	4462.5	
849.69	3499.3	
849.86	5995.1	
850.03	6189	
850.2	3556.6	
850.37	4361.5	
850.54	6077	
850.71	5464	
850.88	4291.2	
851.05	3531.4	
851.22	5662.6	
851.39	6340.5	
851.56	3418.1	
851.73	4102.1	
851.9	4997	
852.07	5973.2	
852.24	3994.2	
852.41	3518.4	
852.58	5599.1	
852.75	5079	
852.92	4009.2	
853.09	3489.7	
853.26	5381.4	
853.43	6234.7	
853.6	3546.4	
853.77	3080.1	
853.94	6312.5	
854.11	5054.4	
854.28	5260.5	
854.44	3878.9	
854.61	6769.2	
854.78	5872.2	
854.95	3494.5	
855.12	4457.7	
855.29	4628.4	
855.46	6504.3	
855.63	3568.9	
855.8	4944.5	
855.97	5319.3	
856.14	6150.7	
856.31	5070.1	
856.48	3930.1	
856.65	5279	
856.82	4976.6	
856.99	3466.5	
857.16	3885	
857.33	7077.1	
857.49	5399.8	
857.66	3803.8	
857.83	4199.7	
858	5373.2	
858.17	5563	
858.34	3289.7	
858.51	3580.5	
858.68	6500.9	
858.85	6477.7	
859.02	4105.5	
859.19	4450.9	
859.36	5047.6	
859.52	5096	
859.69	3581.9	
859.86	4246.1	
860.03	5150.6	
860.2	6292.7	
860.37	3196.9	
860.54	3616	
860.71	5939.1	
860.88	6404	
861.05	3989.4	
861.21	4473.4	
861.38	6492.1	
861.55	4932.9	
861.72	3264.5	
861.89	3962.8	
862.06	6100.2	
862.23	6632	
862.4	3502	
862.56	3697.3	
862.73	5889.3	
862.9	5569.8	
863.07	4223.6	
863.24	3251.5	
863.41	4958.8	
863.58	5016.8	
863.75	3603.7	
863.91	4154.6	
864.08	6364.4	
864.25	5948.7	
864.42	4475.5	
864.59	5010	
864.76	6663.4	
864.93	5083.1	
865.09	3514.3	
865.26	3803.8	
865.43	6238.8	
865.6	6685.3	
865.77	3106.1	
865.94	3561.4	
866.1	6369.9	
866.27	5989.6	
866.44	5313.8	
866.61	3378.5	
866.78	5444.2	
866.95	5916.6	
867.11	3414	
867.28	3164.8	
867.45	6077.7	
867.62	5218.2	
867.79	4128.7	
867.96	3530.7	
868.12	5080.3	
868.29	6078.4	
868.46	3083.6	
868.63	4798.4	
868.8	6201.2	
868.97	5898.8	
869.13	3706.1	
869.3	3702.7	
869.47	5911.8	
869.64	6105	
869.81	3645.4	
869.97	3607.2	
870.14	5743.2	
870.31	6427.9	
870.48	3467.9	
870.65	4566.3	
870.81	5366.4	
870.98	5337.7	
871.15	4025.6	
871.32	3794.9	
871.48	5867.4	
871.65	6488.6	
871.82	3537.5	
871.99	3885.7	
872.16	6965.1	
872.32	6331.6	
872.49	3581.9	
872.66	3615.3	
872.83	6024.4	
872.99	5216.9	
873.16	4086.4	
873.33	3490.4	
873.5	5619.6	
873.67	5601.2	
873.83	3739.6	
874	4762.2	
874.17	5754.8	
874.34	6879.8	
874.5	4631.1	
874.67	4473.4	
874.84	6466.8	
875.01	5067.4	
875.17	5014.1	
875.34	3553.2	
875.51	5682.4	
875.68	6864.8	
875.84	4276.8	
876.01	5251.7	
876.18	5950	
876.34	5844.2	
876.51	3566.9	
876.68	3489.1	
876.85	5422.3	
877.01	6271.6	
877.18	5105.6	
877.35	3581.2	
877.52	5500.8	
877.68	4982	
877.85	3500.7	
878.02	3480.2	
878.18	5523.4	
878.35	5248.9	
878.52	2819.4	
878.69	3986	
878.85	6001.2	
879.02	5925.5	
879.19	5068.7	
879.35	3855	
879.52	5845.6	
879.69	6201.9	
879.86	3062.4	
880.02	3981.9	
880.19	5550.7	
880.36	6750.8	
880.52	4024.9	
880.69	4235.2	
880.86	6044.2	
881.02	6174.6	
881.19	3899.3	
881.36	3917.1	
881.52	5868.8	
881.69	5221	
881.86	3800.3	
882.02	3673.4	
882.19	6146.6	
882.36	7283.3	
882.52	3652.9	
882.69	5070.8	
882.86	5773.9	
883.02	5629.2	
883.19	4319.8	
883.36	4065.9	
883.52	6037.4	
883.69	6924.2	
883.86	3641.3	
884.02	3167.5	
884.19	6055.8	
884.36	5518.6	
884.52	3992.2	
884.69	3762.8	
884.86	5200.5	
885.02	6621.1	
885.19	3993.5	
885.36	4146.5	
885.52	5591.6	
885.69	5657.2	
885.86	5193	
886.02	4553.3	
886.19	5992.4	
886.35	5442.8	
886.52	3967.6	
886.69	5001.8	
886.85	5115.8	
887.02	6340.5	
887.19	6340.5	
887.35	6340.5	
887.52	6340.5	
887.68	6340.5	
887.85	6340.5	
888.02	6340.5	
888.18	6340.5	
888.35	6340.5	
888.51	6340.5	
888.68	6340.5	
888.85	6340.5	
889.01	6340.5	
889.18	6340.5	
889.35	6340.5	
889.51	6340.5	
889.68	6340.5	
889.84	6340.5	
890.01	6340.5	
890.17	6340.5	
890.34	6340.5	
890.51	6340.5	
890.67	6340.5	
890.84	6340.5	
891	6340.5	
891.17	6340.5	
891.34	6340.5	
891.5	6340.5	
891.67	6340.5	
891.83	6340.5	
892	6340.5	
892.16	6340.5	
892.33	6340.5	
892.5	6340.5	
892.66	6340.5	
892.83	6340.5	
892.99	6340.5	
893.16	6340.5	
893.32	6340.5	
893.49	6340.5	
893.65	6340.5	
893.82	6340.5	
893.99	6340.5	
894.15	6340.5	
894.32	6340.5	
894.48	6340.5	
894.65	6340.5	
894.81	6340.5	
894.98	6340.5	
895.14	6340.5	
895.31	6340.5	
895.47	6340.5	
895.64	6340.5	
895.81	6340.5	
895.97	6340.5	
896.14	6340.5	
896.3	6340.5	
896.47	6340.5	
896.63	6340.5	
896.8	6340.5	
896.96	6340.5	
897.13	6340.5	
897.29	6340.5	
897.46	6340.5	
897.62	6340.5	
897.79	6340.5	
897.95	6340.5	
898.12	6340.5	
898.28	6340.5	
898.45	6340.5	
898.61	6340.5	
898.78	6340.5	
898.94	6340.5	
899.11	6340.5	
899.27	6340.5	
899.44	6340.5	
899.6	6340.5	
899.77	6340.5	
899.93	6340.5	
900.1	6340.5	
900.26	6340.5	
900.43	6340.5	
900.59	6340.5	
900.76	6340.5	
900.92	6340.5	
901.09	6340.5	
901.25	6340.5	
901.42	6340.5	
901.58	6340.5	
901.75	6340.5	
901.91	6340.5	
902.07	6340.5	
902.24	6340.5	
902.4	6340.5	
902.57	6340.5	
902.73	6340.5	
902.9	6340.5	
903.06	6340.5	
903.23	6340.5	
903.39	6340.5	
903.56	6340.5	
903.72	6340.5	
903.88	6340.5	
904.05	6340.5	
904.21	6340.5	
904.38	6340.5	
904.54	6340.5	
904.71	6340.5	
904.87	6340.5	
905.03	6340.5	
905.2	6340.5	
905.36	6340.5	
905.53	6340.5	
905.69	6340.5	
905.86	6340.5	
906.02	6340.5	
906.18	6340.5	
906.35	6340.5	
906.51	6340.5	
906.68	6340.5	
906.84	6340.5	
907.01	6340.5	
907.17	6340.5	
907.33	6340.5	
907.5	6340.5	
907.66	6340.5	
907.83	6340.5	
907.99	6340.5	
908.15	6340.5	
908.32	6340.5	
908.48	6340.5	
908.65	6340.5	
908.81	6340.5	
908.97	6340.5	
909.14	6340.5	
909.3	6340.5	
909.47	6340.5	
909.63	6340.5	
909.79	6340.5	
909.96	6340.5	
910.12	6340.5	
910.28	6340.5	
910.45	6340.5	
910.61	6340.5	
910.78	6340.5	
910.94	6340.5	
911.1	6340.5	
911.27	6340.5	
911.43	6340.5	
911.59	6340.5	
911.76	6340.5	
911.92	6340.5	
912.08	6340.5	
912.25	6340.5	
912.41	6340.5	
912.57	6340.5	
912.74	6340.5	
912.9	6340.5	
913.07	6340.5	
913.23	6340.5	
913.39	6340.5	
913.56	6340.5	
913.72	6340.5	
913.88	6340.5	
914.05	6340.5	
914.21	6340.5	
914.37	6340.5	
914.54	6340.5	
914.7	6340.5	
914.86	6340.5	
915.03	6340.5	
915.19	6340.5	
