Wavelength	Intensities	
nm	a.u.	
179.22	1878.7	
179.44	1865	
179.65	1892.3	
179.86	1837.7	
180.08	1834.3	
180.29	4647.5	
180.51	3429	
180.72	5473.5	
180.94	6367.1	
181.15	3131.3	
181.37	3095.2	
181.58	5345.9	
181.79	5627.1	
182.01	3231.7	
182.22	3435.8	
182.44	5611.4	
182.65	4681.7	
182.87	4369.7	
183.08	3791.5	
183.29	5895.4	
183.51	4869.4	
183.72	3500.7	
183.94	5112.4	
184.15	5279	
184.37	5266.7	
184.58	3087.7	
184.79	4126	
185.01	4890.5	
185.22	5549.3	
185.44	4401.1	
185.65	3743.7	
185.86	5158.8	
186.08	4782.7	
186.29	3011.2	
186.51	3265.1	
186.72	4929.5	
186.94	5764.3	
187.15	3774.4	
187.36	3792.8	
187.58	7407.5	
187.79	5339.7	
188.01	4021.5	
188.22	6122.1	
188.43	6406	
188.65	5564.3	
188.86	3180.5	
189.08	3907.5	
189.29	5036.6	
189.5	5087.8	
189.72	3547.1	
189.93	3645.4	
190.15	5786.2	
190.36	6936.5	
190.57	3910.3	
190.79	3792.2	
191	5893.4	
191.22	5769.8	
191.43	3875.4	
191.64	3216	
191.86	6006.7	
192.07	5791.7	
192.29	3405.8	
192.5	3577.8	
192.71	5853.8	
192.93	5022.3	
193.14	3500.7	
193.35	3620.1	
193.57	4981.3	
193.78	5748.6	
194	2865.1	
194.21	3463.8	
194.42	4843.4	
194.64	5275.6	
194.85	3823.6	
195.07	4495.3	
195.28	5292.6	
195.49	4636.6	
195.71	4785.4	
195.92	3375.7	
196.13	5412.8	
196.35	5575.9	
196.56	5090.6	
196.78	3868.6	
196.99	6759	
197.2	6356.9	
197.42	4413.4	
197.63	3916.4	
197.84	4683.7	
198.06	5436	
198.27	3576.4	
198.48	4761.5	
198.7	5019.6	
198.91	5210	
199.13	3862.5	
199.34	3831.1	
199.55	5679.7	
199.77	4618.2	
199.98	3442.6	
200.19	3898	
200.41	5091.3	
200.62	4872.1	
200.83	4035.9	
201.05	4306.2	
201.26	5173.9	
201.47	4924	
201.69	3459	
201.9	3360	
202.11	5160.2	
202.33	6238.1	
202.54	3672	
202.76	4117.8	
202.97	5330.9	
203.18	5315.2	
203.4	4042.7	
203.61	3915	
203.82	5311.7	
204.04	4941.7	
204.25	3951.9	
204.46	3795.6	
204.68	5257.1	
204.89	5508.4	
205.1	3752.6	
205.32	3260.4	
205.53	5653.1	
205.74	5784.8	
205.96	2865.8	
206.17	3997.6	
206.38	5584.8	
206.6	5694.7	
206.81	4505.5	
207.02	3613.3	
207.24	5468.8	
207.45	5861.3	
207.66	3685	
207.88	3213.3	
208.09	5488.6	
208.3	5281	
208.52	3390.8	
208.73	3746.4	
208.94	5301.5	
209.15	5919.3	
209.37	3648.1	
209.58	3835.2	
209.79	5760.3	
210.01	5068	
210.22	2971.6	
210.43	3075.4	
210.65	5219.6	
210.86	5621.7	
211.07	3704.1	
211.29	3403.7	
211.5	5580	
211.71	5160.2	
211.93	3411.9	
212.14	3395.5	
212.35	5186.1	
212.56	5443.5	
212.78	3918.4	
212.99	3237.8	
213.2	6169.2	
213.42	5043.5	
213.63	3535.5	
213.84	3750.5	
214.06	4690.5	
214.27	4773.8	
214.48	3702	
214.69	3902.1	
214.91	5857.9	
215.12	5931.6	
215.33	3972.4	
215.55	4290.5	
215.76	6404	
215.97	5608.7	
216.18	3850.2	
216.4	3758.7	
216.61	4914.4	
216.82	5700.2	
217.04	3396.2	
217.25	3545.7	
217.46	5840.1	
217.67	5547.3	
217.89	3074	
218.1	3147	
218.31	5307	
218.53	5436	
218.74	3613.3	
218.95	3501.3	
219.16	5206.6	
219.38	6141.9	
219.59	3420.8	
219.8	4100	
220.01	6709.1	
220.23	5246.9	
220.44	4515.1	
220.65	3409.9	
220.87	5304.2	
221.08	5864	
221.29	3160.7	
221.5	4269.3	
221.72	7156.3	
221.93	5029.8	
222.14	3938.2	
222.35	4622.3	
222.57	5243.5	
222.78	5615.5	
222.99	3738.2	
223.2	3971	
223.42	5587.5	
223.63	5634.6	
223.84	2895.8	
224.05	2840.5	
224.27	6640.9	
224.48	6060.6	
224.69	4570.4	
224.9	3908.9	
225.12	5408.7	
225.33	5235.3	
225.54	3140.2	
225.75	3441.3	
225.97	4846.2	
226.18	5081.7	
226.39	3766.2	
226.6	3511.6	
226.82	5030.5	
227.03	4910.3	
227.24	3865.2	
227.45	3265.1	
227.67	5581.4	
227.88	6167.8	
228.09	4323.3	
228.3	4333.5	
228.52	5599.1	
228.73	5165	
228.94	3648.1	
229.15	3189.4	
229.36	5207.3	
229.58	5112.4	
229.79	3633.8	
230	4280.3	
230.21	6282.5	
230.43	5345.2	
230.64	3852.2	
230.85	4062.5	
231.06	5575.3	
231.28	5715.9	
231.49	3218	
231.7	3787.4	
231.91	5532.2	
232.12	5312.4	
232.34	3326.6	
232.55	3790.1	
232.76	5871.5	
232.97	5417.6	
233.18	3343.7	
233.4	3871.3	
233.61	5436	
233.82	5023	
234.03	3592.8	
234.25	3485.6	
234.46	7251.9	
234.67	5245.5	
234.88	3962.8	
235.09	3430.3	
235.31	5575.3	
235.52	5189.6	
235.73	3865.9	
235.94	3260.4	
236.15	4958.1	
236.37	6374.6	
236.58	3451.5	
236.79	3692.5	
237	5539.8	
237.21	4814.1	
237.43	3999	
237.64	3102.7	
237.85	9355.8	
238.06	4855.1	
238.27	4016.1	
238.48	3289.7	
238.7	5577.3	
238.91	5098.1	
239.12	3614	
239.33	3803.8	
239.54	4923.3	
239.76	5167.7	
239.97	3672.7	
240.18	3716.4	
240.39	6489.3	
240.6	5468.8	
240.82	3855.6	
241.03	3211.9	
241.24	5220.3	
241.45	5989.6	
241.66	3394.8	
241.87	4087.7	
242.09	5982.1	
242.3	6268.1	
242.51	4068.6	
242.72	3732.1	
242.93	5658.5	
243.14	5197.1	
243.36	4274.1	
243.57	4680.3	
243.78	6007.4	
243.99	5541.8	
244.2	3764.2	
244.41	3360	
244.63	4816.8	
244.84	5558.9	
245.05	4005.1	
245.26	3678.2	
245.47	5524.7	
245.68	5780.1	
245.9	4914.4	
246.11	3930.1	
246.32	5157.5	
246.53	5519.3	
246.74	5987.6	
246.95	3175.7	
247.16	4825.7	
247.38	5266.7	
247.59	3140.2	
247.8	3727.3	
248.01	4945.8	
248.22	5186.8	
248.43	3353.2	
248.64	3659	
248.86	4697.4	
249.07	5000.5	
249.28	3319.8	
249.49	3859.7	
249.7	5755.5	
249.91	5890	
250.12	3120.4	
250.34	3188	
250.55	5372.5	
250.76	5243.5	
250.97	3865.9	
251.18	3902.1	
251.39	5858.6	
251.6	5408.7	
251.81	3915.7	
252.03	3926.6	
252.24	5035.3	
252.45	5791.7	
252.66	3280.2	
252.87	4103.4	
253.08	5248.9	
253.29	6822.5	
253.5	3297.2	
253.72	4495.3	
253.93	5099.4	
254.14	6155.5	
254.35	3560.7	
254.56	3640.6	
254.77	5472.2	
254.98	4913.1	
255.19	3497.2	
255.41	4473.4	
255.62	5346.6	
255.83	5866.1	
256.04	3954.6	
256.25	3936.9	
256.46	6427.9	
256.67	4912.4	
256.88	3888.4	
257.09	4259.8	
257.31	4930.1	
257.52	4999.8	
257.73	4874.8	
257.94	3540.3	
258.15	5075.5	
258.36	5291.3	
258.57	4459.1	
258.78	2807.8	
258.99	5756.2	
259.2	5074.9	
259.41	3593.5	
259.63	3613.3	
259.84	6038.8	
260.05	6417	
260.26	4655.7	
260.47	3454.2	
260.68	5758.2	
260.89	5167	
261.1	4256.4	
261.31	3396.2	
261.52	5780.1	
261.73	6203.3	
261.95	4633.2	
262.16	3978.5	
262.37	5972.6	
262.58	6010.8	
262.79	4559.5	
263	3560.7	
263.21	5302.2	
263.42	5153.4	
263.63	3718.4	
263.84	3583.3	
264.05	5744.6	
264.26	6172.6	
264.47	4473.4	
264.69	4063.2	
264.9	5968.5	
265.11	5414.1	
265.32	3411.9	
265.53	3534.8	
265.74	5376.6	
265.95	4709.6	
266.16	3778.5	
266.37	4185.4	
266.58	5378	
266.79	5091.9	
267	3551.2	
267.21	3250.1	
267.42	4829.8	
267.63	5264.6	
267.84	3743	
268.06	3192.1	
268.27	5695.4	
268.48	5883.8	
268.69	3649.5	
268.9	4259.8	
269.11	5984.2	
269.32	4743.1	
269.53	3753.2	
269.74	3452.2	
269.95	5575.9	
270.16	4663.2	
270.37	3794.9	
270.58	4335.5	
270.79	5141.8	
271	5819.6	
271.21	4019.5	
271.42	3820.8	
271.63	5425.8	
271.84	4887.8	
272.05	3037.8	
272.26	3346.4	
272.47	5276.9	
272.68	5449.6	
272.89	3556.6	
273.11	4128.7	
273.32	5038	
273.53	6122.1	
273.74	3981.3	
273.95	3881.6	
274.16	5872.9	
274.37	5314.5	
274.58	4104.8	
274.79	3276.1	
275	5376.6	
275.21	5942.5	
275.42	4877.6	
275.63	4210.6	
275.84	5489.9	
276.05	6930.3	
276.26	3977.8	
276.47	3710.9	
276.68	5113.8	
276.89	6227.9	
277.1	4242	
277.31	3284.3	
277.52	5537	
277.73	5698.1	
277.94	3213.3	
278.15	3627	
278.36	5470.8	
278.57	4902.8	
278.78	3590.8	
278.99	4032.5	
279.2	4924	
279.41	4846.9	
279.62	4698.7	
279.83	3362.8	
280.04	6468.9	
280.25	4827.7	
280.46	4748.6	
280.67	3715	
280.88	4905.6	
281.09	5945.3	
281.3	3913	
281.51	4892.6	
281.72	4958.1	
281.93	5707.7	
282.14	3459	
282.35	3725.3	
282.56	5734.3	
282.77	5732.3	
282.98	3622.2	
283.19	4440.7	
283.4	7017.7	
283.61	5197.7	
283.82	3320.4	
284.03	4569	
284.24	5382.7	
284.45	5907.7	
284.66	4623.6	
284.87	4444.1	
285.08	5772.5	
285.29	5993	
285.5	3186.6	
285.71	3664.5	
285.92	5842.2	
286.12	6474.3	
286.33	4579.9	
286.54	3662.5	
286.75	5730.2	
286.96	5169.1	
287.17	3398.3	
287.38	4496.7	
287.59	4934.9	
287.8	4854.4	
288.01	3667.2	
288.22	4159.4	
288.43	5761.6	
288.64	4762.2	
288.85	4335.5	
289.06	4105.5	
289.27	5735.7	
289.48	6112.5	
289.69	4643.4	
289.9	4244.1	
290.11	5870.8	
290.32	5010	
290.53	4368.3	
290.74	4052.2	
290.94	5705	
291.15	5761.6	
291.36	3563.5	
291.57	4123.2	
291.78	5056.4	
291.99	4779.3	
292.2	3396.2	
292.41	3998.3	
292.62	5761.6	
292.83	5591.6	
293.04	4939	
293.25	3414.6	
293.46	5075.5	
293.67	5803.3	
293.88	3516.4	
294.09	3326.6	
294.29	4847.5	
294.5	5398.4	
294.71	3717.1	
294.92	3555.3	
295.13	5062.6	
295.34	6297.5	
295.55	3166.8	
295.76	3222.1	
295.97	5666.7	
296.18	6348	
296.39	3340.9	
296.6	3537.5	
296.81	5359.5	
297.01	5709.1	
297.22	3707.5	
297.43	3456.3	
297.64	4952.7	
297.85	4902.2	
298.06	2898.6	
298.27	3212.6	
298.48	5315.8	
298.69	5031.2	
298.9	3834.5	
299.11	3448.1	
299.31	4812	
299.52	4798.4	
299.73	4035.9	
299.94	3990.1	
300.15	5332.9	
300.36	4960.2	
300.57	4005.8	
300.78	3944.4	
300.99	5143.8	
301.2	5342.5	
301.4	3459.7	
301.61	3820.8	
301.82	5585.5	
302.03	5702.2	
302.24	4285	
302.45	3318.4	
302.66	5565.7	
302.87	5939.1	
303.08	3485.6	
303.29	4808.6	
303.49	5051.7	
303.7	5281	
303.91	3134.1	
304.12	4550.6	
304.33	4782.7	
304.54	5453.7	
304.75	3556	
304.96	3310.9	
305.16	5582.8	
305.37	6289.3	
305.58	3080.8	
305.79	3188	
306	5629.9	
306.21	4732.2	
306.42	3592.8	
306.63	5327.4	
306.83	5142.4	
307.04	5819.6	
307.25	3849.5	
307.46	3852.2	
307.67	4532.8	
307.88	5662.6	
308.09	3410.6	
308.29	3609.9	
308.5	5340.4	
308.71	5803.3	
308.92	3764.8	
309.13	3394.2	
309.34	5125.4	
309.55	5223	
309.75	4398.4	
309.96	3963.5	
310.17	5662.6	
310.38	5012.7	
310.59	4156.7	
310.8	3257	
311.01	5612.1	
311.21	5203.9	
311.42	3375.1	
311.63	3453.6	
311.84	5067.4	
312.05	5408.7	
312.26	3894.6	
312.46	4319.8	
312.67	5100.8	
312.88	4842.8	
313.09	3390.8	
313.3	3302	
313.51	6015.6	
313.71	6380.8	
313.92	3403.7	
314.13	3581.9	
314.34	5470.1	
314.55	5233.2	
314.76	4332.8	
314.96	3754.6	
315.17	5372.5	
315.38	5606	
315.59	3459	
315.8	3280.8	
316.01	6100.2	
316.21	6169.2	
316.42	3314.3	
316.63	3753.9	
316.84	5161.6	
317.05	5937.1	
317.26	3997.6	
317.46	3609.2	
317.67	5204.6	
317.88	5614.8	
318.09	4283	
318.3	3175	
318.5	5018.2	
318.71	5539.8	
318.92	5462.6	
319.13	4024.3	
319.34	5720.7	
319.54	5911.8	
319.75	3153.2	
319.96	3028.9	
320.17	5656.5	
320.38	5873.6	
320.58	3121.1	
320.79	3683.6	
321	5840.1	
321.21	5877	
321.42	3736.9	
321.62	3149.1	
321.83	4889.9	
322.04	5311.7	
322.25	3532.1	
322.46	3405.8	
322.66	5366.4	
322.87	5541.1	
323.08	4175.1	
323.29	3349.8	
323.5	6209.4	
323.7	4889.2	
323.91	4678.9	
324.12	4065.9	
324.33	5340.4	
324.53	5634.6	
324.74	3962.8	
324.95	4238.6	
325.16	4737.6	
325.37	5128.1	
325.57	3435.1	
325.78	3458.3	
325.99	5373.9	
326.2	4804.5	
326.4	4772.4	
326.61	3153.2	
326.82	5248.3	
327.03	5374.6	
327.24	4813.4	
327.44	4517.1	
327.65	5511.8	
327.86	4515.1	
328.07	3986.7	
328.27	3300	
328.48	5941.8	
328.69	4859.8	
328.9	4886.5	
329.1	3637.9	
329.31	5198.4	
329.52	6068.8	
329.73	3444	
329.93	3799.7	
330.14	5297.4	
330.35	5493.3	
330.56	5504.3	
330.76	4192.9	
330.97	5092.6	
331.18	5457.8	
331.39	3801.7	
331.59	3089	
331.8	5802.6	
332.01	5924.1	
332.22	3525.9	
332.42	3990.1	
332.63	5403.2	
332.84	4981.3	
333.05	3818.8	
333.25	3494.5	
333.46	5078.3	
333.67	5284.4	
333.88	3576.4	
334.08	3974.4	
334.29	7021.1	
334.5	5911.1	
334.7	3340.2	
334.91	4838.7	
335.12	4878.3	
335.33	5677.7	
335.53	3749.1	
335.74	5575.9	
335.95	5068	
336.16	4896	
336.36	3805.8	
336.57	4298	
336.78	4836.6	
336.98	5834	
337.19	4576.5	
337.4	3730	
337.61	6320.7	
337.81	4846.2	
338.02	3470.6	
338.23	4415.4	
338.43	5974.6	
338.64	4965.6	
338.85	3383.9	
339.05	4471.4	
339.26	6058.6	
339.47	4705.5	
339.68	3393.5	
339.88	4990.2	
340.09	5511.1	
340.3	5696.8	
340.5	3961.5	
340.71	3048.1	
340.92	4784.1	
341.13	5950	
341.33	3341.6	
341.54	3975.8	
341.75	5507.7	
341.95	5144.5	
342.16	3878.9	
342.37	4184	
342.57	4866.7	
342.78	5272.2	
342.99	4253.6	
343.19	3078.8	
343.4	5699.5	
343.61	5478.3	
343.81	3631.7	
344.02	3335.5	
344.23	5662	
344.43	6032.6	
344.64	4262.5	
344.85	4136.2	
345.06	5479	
345.26	5818.3	
345.47	3949.2	
345.68	4659.8	
345.88	4670.7	
346.09	5690.6	
346.3	4067.9	
346.5	3082.9	
346.71	5228.5	
346.92	4998.4	
347.12	3189.4	
347.33	3916.4	
347.54	5812.1	
347.74	6182.1	
347.95	3933.5	
348.16	2869.2	
348.36	5058.5	
348.57	4910.3	
348.78	3884.3	
348.98	4231.1	
349.19	5221.6	
349.39	4712.4	
349.6	3220.1	
349.81	3467.9	
350.01	5537	
350.22	4970.4	
350.43	3755.3	
350.63	4558.1	
350.84	5299.5	
351.05	5110.4	
351.25	3463.8	
351.46	3176.4	
351.67	5781.4	
351.87	4990.9	
352.08	3635.8	
352.29	4141	
352.49	5662.6	
352.7	5788.9	
352.9	3297.2	
353.11	4187.4	
353.32	6373.3	
353.52	5109.7	
353.73	3349.1	
353.94	4164.9	
354.14	5569.8	
354.35	5316.5	
354.55	3426.9	
354.76	3718.4	
354.97	5508.4	
355.17	5299.5	
355.38	3175	
355.59	4375.1	
355.79	4974.5	
356	5390.9	
356.2	3777.8	
356.41	3272	
356.62	4646.8	
356.82	5262.6	
357.03	4001	
357.24	3596.9	
357.44	4974.5	
357.65	5046.9	
357.85	4795	
358.06	3754.6	
358.27	4749.9	
358.47	4868	
358.68	3178.4	
358.88	3929.4	
359.09	5528.8	
359.3	5809.4	
359.5	4639.3	
359.71	4029.7	
359.91	6248.4	
360.12	5631.9	
360.33	3913	
360.53	4457.1	
360.74	4935.6	
360.94	5038.7	
361.15	4190.8	
361.36	3423.5	
361.56	5706.3	
361.77	5183.4	
361.97	4563.6	
362.18	3548.4	
362.38	5742.5	
362.59	4876.9	
362.8	3391.4	
363	3215.3	
363.21	4659.1	
363.41	5268.7	
363.62	3893.9	
363.83	4775.9	
364.03	5356.1	
364.24	6311.2	
364.44	4896	
364.65	4878.9	
364.85	5102.9	
365.06	4828.4	
365.27	3561.4	
365.47	3552.5	
365.68	6157.6	
365.88	5104.9	
366.09	3926	
366.29	3551.2	
366.5	5373.2	
366.71	5782.8	
366.91	4818.2	
367.12	4072.7	
367.32	6309.8	
367.53	5625.1	
367.73	4046.1	
367.94	4928.8	
368.14	5552	
368.35	6401.3	
368.56	4020.2	
368.76	3407.1	
368.97	5674.9	
369.17	7261.4	
369.38	3540.3	
369.58	3805.1	
369.79	4754.7	
369.99	5983.5	
370.2	4708.3	
370.4	3852.9	
370.61	5414.8	
370.82	6509.8	
371.02	3776.5	
371.23	3156.6	
371.43	4709	
371.64	5976.7	
371.84	3794.2	
372.05	4926.7	
372.25	7205.4	
372.46	5694.7	
372.66	3758	
372.87	3767.6	
373.07	5743.2	
373.28	7221.8	
373.48	4711	
373.69	4404.5	
373.9	5221.6	
374.1	5247.6	
374.31	4622.3	
374.51	4176.5	
374.72	5969.8	
374.92	4901.5	
375.13	4762.9	
375.33	4102.8	
375.54	5583.4	
375.74	5079.6	
375.95	4132.8	
376.15	5315.2	
376.36	5582.1	
376.56	5434.6	
376.77	4127.3	
376.97	4585.4	
377.18	6568.5	
377.38	5659.9	
377.59	4868	
377.79	3709.6	
378	5446.2	
378.2	5795.8	
378.41	3777.1	
378.61	3638.6	
378.82	5899.5	
379.02	5079	
379.23	3885	
379.43	4947.9	
379.64	6016.9	
379.84	5629.2	
380.05	3741	
380.25	3671.3	
380.46	5694.7	
380.66	5322.7	
380.87	4992.9	
381.07	5309	
381.28	6314.6	
381.48	5748.6	
381.69	3802.4	
381.89	3780.6	
382.1	4802.5	
382.3	5940.5	
382.51	4829.8	
382.71	5637.4	
382.91	5810.8	
383.12	6245.6	
383.32	4113	
383.53	4309.6	
383.73	5675.6	
383.94	5393.7	
384.14	4222.2	
384.35	3459.7	
384.55	5354.1	
384.76	5817.6	
384.96	4065.9	
385.17	4470.7	
385.37	5702.2	
385.58	5066.7	
385.78	4398.4	
385.98	3420.1	
386.19	5248.3	
386.39	5655.1	
386.6	3910.9	
386.8	4122.6	
387.01	5730.9	
387.21	5793	
387.42	4557.4	
387.62	5053.7	
387.83	5100.1	
388.03	5691.3	
388.23	4143.7	
388.44	4924.7	
388.64	4821.6	
388.85	4911.7	
389.05	4444.1	
389.26	5131.5	
389.46	6698.9	
389.67	6141.2	
389.87	4479.6	
390.07	4540.3	
390.28	5416.9	
390.48	4991.6	
390.69	3799	
390.89	4020.2	
391.1	5213.4	
391.3	6024.4	
391.5	5139	
391.71	5833.3	
391.91	5878.4	
392.12	6811.5	
392.32	5300.8	
392.53	4532.8	
392.73	5258.5	
392.93	5504.3	
393.14	4225.6	
393.34	4971.8	
393.55	5918.6	
393.75	5427.8	
393.95	4233.8	
394.16	4205.8	
394.36	5262.6	
394.57	5789.6	
394.77	3737.5	
394.98	4079.6	
395.18	5145.9	
395.38	5419.6	
395.59	4924	
395.79	3907.5	
396	5272.2	
396.2	5779.4	
396.4	4707.6	
396.61	4695.3	
396.81	5864.7	
397.02	5224.4	
397.22	4973.2	
397.42	5017.5	
397.63	5890.6	
397.83	5185.5	
398.04	3908.2	
398.24	4334.2	
398.44	5672.2	
398.65	4811.4	
398.85	3721.2	
399.05	3881.6	
399.26	5193.6	
399.46	6743.3	
399.67	4242.7	
399.87	3942.3	
400.07	5500.8	
400.28	5842.2	
400.48	4080.9	
400.69	5056.4	
400.89	6027.2	
401.09	6448.4	
401.3	3973.1	
401.5	5084.4	
401.7	6724.8	
401.91	6906.4	
402.11	4306.2	
402.32	4462.5	
402.52	6057.9	
402.72	5978.7	
402.93	4706.9	
403.13	3642	
403.33	6820.4	
403.54	5535.7	
403.74	4418.2	
403.94	5263.3	
404.15	5590.3	
404.35	6738.5	
404.56	4218.8	
404.76	5912.5	
404.96	6020.3	
405.17	5863.3	
405.37	5370.5	
405.57	4682.3	
405.78	6130.9	
405.98	5563	
406.18	4272.7	
406.39	5101.5	
406.59	6051.7	
406.79	5641.5	
407	4059.1	
407.2	4189.5	
407.4	6156.9	
407.61	6317.3	
407.81	4181.3	
408.01	6364.4	
408.22	5139	
408.42	7010.2	
408.62	5195	
408.83	4619.5	
409.03	5786.2	
409.23	5530.2	
409.44	4762.2	
409.64	5035.3	
409.84	6521.4	
410.05	6503	
410.25	4855.7	
410.45	4678.9	
410.66	5995.8	
410.86	8378.2	
411.06	4992.9	
411.27	4903.5	
411.47	8101.8	
411.67	6130.3	
411.88	5210	
412.08	5396.4	
412.28	6744.6	
412.49	7249.8	
412.69	4983.4	
412.89	4943.8	
413.09	7040.2	
413.3	6878.4	
413.5	5067.4	
413.7	4615.4	
413.91	6335.1	
414.11	7131	
414.31	4905.6	
414.52	5238.7	
414.72	6718.7	
414.92	6659.3	
415.12	4874.8	
415.33	5433.3	
415.53	6987.7	
415.73	7178.8	
415.94	5741.1	
416.14	5160.2	
416.34	6100.9	
416.55	5890.6	
416.75	6341.9	
416.95	5814.2	
417.15	6987.7	
417.36	7750.9	
417.56	6503.7	
417.76	5552	
417.97	7349.5	
418.17	7077.8	
418.37	5279.7	
418.57	5332.9	
418.78	6933.1	
418.98	6639.5	
419.18	6079.7	
419.38	6064	
419.59	6629.3	
419.79	6240.8	
419.99	5116.5	
420.2	5582.1	
420.4	7078.5	
420.6	7214.3	
420.8	5076.2	
421.01	4936.3	
421.21	6946	
421.41	7107.1	
421.61	5507.7	
421.82	5231.2	
422.02	6530.3	
422.22	7354.3	
422.42	5947.3	
422.63	5618.3	
422.83	6672.3	
423.03	7716.1	
423.23	5621.7	
423.44	4644.8	
423.64	6689.3	
423.84	6446.3	
424.04	5103.5	
424.25	4856.4	
424.45	7645.8	
424.65	7484.6	
424.85	4603.8	
425.06	5156.1	
425.26	7489.4	
425.46	6139.8	
425.66	5683.1	
425.87	5358.9	
426.07	7347.4	
426.27	7145.4	
426.47	5470.8	
426.67	4907.6	
426.88	7613.7	
427.08	7152.9	
427.28	5679.7	
427.48	4790.9	
427.69	6130.9	
427.89	6580.1	
428.09	5637.4	
428.29	4922.6	
428.5	7346.7	
428.7	6916	
428.9	4792.9	
429.1	5215.5	
429.3	6837.5	
429.51	7079.8	
429.71	5090.6	
429.91	5926.1	
430.11	7130.3	
430.31	7376.8	
430.52	5419.6	
430.72	5668.8	
430.92	7654.6	
431.12	7149.5	
431.32	5098.1	
431.53	5494.7	
431.73	6140.5	
431.93	7730.4	
432.13	5062.6	
432.33	4883	
432.54	6635.4	
432.74	7014.3	
432.94	4824.3	
433.14	5857.2	
433.34	7146	
433.55	6632.7	
433.75	5737.7	
433.95	7426.6	
434.15	6940.6	
434.35	6599.2	
434.56	5018.9	
434.76	4599.1	
434.96	6808.1	
435.16	7245.7	
435.36	4904.9	
435.56	5959.6	
435.77	6597.2	
435.97	6731.7	
436.17	6630	
436.37	6029.2	
436.57	6544.6	
436.78	6503.7	
436.98	6220.4	
437.18	6492.1	
437.38	7304.4	
437.58	6806.1	
437.78	6634.1	
437.99	5359.5	
438.19	7290.8	
438.39	7997.3	
438.59	5371.1	
438.79	4764.9	
438.99	7959.8	
439.2	6743.3	
439.4	4958.8	
439.6	4937	
439.8	7101	
440	8092.9	
440.2	5985.5	
440.4	6091.3	
440.61	7535.8	
440.81	7971.4	
441.01	5142.4	
441.21	6110.5	
441.41	7886	
441.61	7404.1	
441.81	6326.2	
442.02	7340.6	
442.22	8368.7	
442.42	7654.6	
442.62	5325.4	
442.82	5299.5	
443.02	7952.9	
443.22	7098.9	
443.43	5717.9	
443.63	5296	
443.83	6910.5	
444.03	6941.2	
444.23	6436.8	
444.43	6122.7	
444.63	7274.4	
444.83	8388.5	
445.04	5458.5	
445.24	6649.8	
445.44	7652.6	
445.64	7645.1	
445.84	6075.6	
446.04	6189	
446.24	6984.9	
446.44	7996.6	
446.65	5435.3	
446.85	5778	
447.05	7066.9	
447.25	7901.1	
447.45	5863.3	
447.65	5348.6	
447.85	7322.2	
448.05	6911.2	
448.25	6321.4	
448.46	6112.5	
448.66	7309.2	
448.86	7021.8	
449.06	5186.8	
449.26	6266.8	
449.46	7722.2	
449.66	6808.8	
449.86	5860.6	
450.06	5813.5	
450.26	6953.5	
450.47	7537.9	
450.67	6092.7	
450.87	6438.1	
451.07	7640.3	
451.27	7372	
451.47	5449	
451.67	6015.6	
451.87	7074.4	
452.07	8170	
452.27	5700.2	
452.47	5639.4	
452.67	7425.3	
452.88	7931.1	
453.08	5038	
453.28	6937.2	
453.48	8510.7	
453.68	7318.8	
453.88	5642.8	
454.08	5838.8	
454.28	7776.1	
454.48	7358.4	
454.68	6268.1	
454.88	6769.2	
455.08	7887.4	
455.28	7573.4	
455.48	5477.6	
455.68	6082.5	
455.89	8352.3	
456.09	7966.6	
456.29	5907	
456.49	5935.7	
456.69	8241.7	
456.89	7499.7	
457.09	6432.7	
457.29	6778.8	
457.49	7823.9	
457.69	8001.4	
457.89	6257.2	
458.09	5710.4	
458.29	7561.8	
458.49	8322.9	
458.69	6656.6	
458.89	6224.5	
459.09	8443.1	
459.29	8652.7	
459.49	6204	
459.69	6980.2	
459.9	8116.8	
460.1	7645.8	
460.3	6087.9	
460.5	5925.5	
460.7	8146.1	
460.9	7750.2	
461.1	5685.2	
461.3	6906.4	
461.5	8779.6	
461.7	8376.9	
461.9	6055.2	
462.1	6515.3	
462.3	7970	
462.5	8508.6	
462.7	6243.6	
462.9	6307.1	
463.1	9536	
463.3	9200.8	
463.5	6487.3	
463.7	7343.3	
463.9	8217.1	
464.1	8576.2	
464.3	6653.2	
464.5	6879.1	
464.7	8788.5	
464.9	8623.3	
465.1	8094.9	
465.3	7174.7	
465.5	9119.6	
465.7	9124.4	
465.9	7501	
466.1	7268.9	
466.3	8994	
466.5	8826.1	
466.7	8206.2	
466.9	7044.3	
467.1	8811.7	
467.3	9668.5	
467.5	8101.1	
467.7	7008.1	
467.9	9932.6	
468.1	10776	
468.3	7843.7	
468.5	8174.1	
468.7	8824	
468.9	8830.2	
469.1	7289.4	
469.3	8028	
469.5	10784	
469.7	8456.1	
469.9	7821.2	
470.1	7180.9	
470.3	8835.6	
470.5	8898.4	
470.7	8273.8	
470.9	7175.4	
471.1	8643.8	
471.3	9016.5	
471.5	7074.4	
471.69	8961.2	
471.89	8495	
472.09	8103.1	
472.29	7920.9	
472.49	8152.3	
472.69	8343.4	
472.89	9100.5	
473.09	7046.4	
473.29	7137.2	
473.49	8419.9	
473.69	8639.7	
473.89	8043.1	
474.09	7266.9	
474.29	9859.6	
474.49	9500.5	
474.69	8026.7	
474.89	7327.6	
475.09	8659.5	
475.29	8701.1	
475.49	6929	
475.69	7164.5	
475.88	10161	
476.08	8898.4	
476.28	6832	
476.48	7219.1	
476.68	9404.3	
476.88	9244.5	
477.08	7113.3	
477.28	7445	
477.48	8721.6	
477.68	9369.5	
477.88	6969.2	
478.08	7277.1	
478.28	9680.1	
478.48	8813.1	
478.67	7309.2	
478.87	6707.8	
479.07	9555.8	
479.27	8924.4	
479.47	7589.8	
479.67	7583.6	
479.87	9346.9	
480.07	9879.4	
480.27	6931	
480.47	8538.7	
480.67	9078	
480.87	9659.6	
481.06	7163.8	
481.26	7971.4	
481.46	9017.9	
481.66	8957.1	
481.86	7654.6	
482.06	8533.2	
482.26	8781	
482.46	9629.5	
482.66	7484.6	
482.86	7274.4	
483.05	9100.5	
483.25	8533.9	
483.45	9891.7	
483.65	7539.9	
483.85	8718.9	
484.05	9023.4	
484.25	7978.2	
484.45	8492.2	
484.65	9901.9	
484.84	9897.8	
485.04	7502.4	
485.24	7475.1	
485.44	10185	
485.64	8533.9	
485.84	6921.5	
486.04	8289.5	
486.24	8920.3	
486.44	9265.7	
486.63	6831.3	
486.83	7654.6	
487.03	8859.5	
487.23	9049.3	
487.43	7071	
487.63	9243.2	
487.83	9174.9	
488.02	10060	
488.22	7935.2	
488.42	8546.2	
488.62	9957.9	
488.82	9043.1	
489.02	7625.3	
489.22	7670.3	
489.41	9911.5	
489.61	9495.7	
489.81	7437.5	
490.01	7441	
490.21	9925.1	
490.41	10454	
490.61	7449.8	
490.8	7504.4	
491	9324.4	
491.2	8634.2	
491.4	8087.4	
491.6	7243.7	
491.8	9325.1	
491.99	9509.4	
492.19	7083.2	
492.39	7363.8	
492.59	9783.8	
492.79	9869.8	
492.99	8274.5	
493.18	7449.8	
493.38	9934.7	
493.58	10750	
493.78	8254.7	
493.98	7818.5	
494.18	9807.7	
494.37	9252.7	
494.57	8455.4	
494.77	8415.1	
494.97	10004	
495.17	10364	
495.37	8053.3	
495.56	8333.2	
495.76	10462	
495.96	10237	
496.16	9239.1	
496.36	8243.8	
496.55	10438	
496.75	10015	
496.95	8600.1	
497.15	8477.9	
497.35	10359	
497.54	10356	
497.74	8238.3	
497.94	9931.3	
498.14	11133	
498.34	10920	
498.53	8136.6	
498.73	8772.1	
498.93	9767.4	
499.13	10327	
499.33	8723	
499.52	8985.8	
499.72	10475	
499.92	10702	
500.12	8415.1	
500.32	8718.9	
500.51	10729	
500.71	10501	
500.91	9364.7	
501.11	9009.7	
501.31	10613	
501.5	11075	
501.7	9682.8	
501.9	8652.7	
502.1	10434	
502.29	10852	
502.49	9187.9	
502.69	9534	
502.89	10673	
503.09	10703	
503.28	8143.4	
503.48	8342.7	
503.68	9851.4	
503.88	9884.9	
504.07	9235	
504.27	8771.5	
504.47	10350	
504.67	10416	
504.86	9263	
505.06	8829.5	
505.26	9979.1	
505.46	11711	
505.65	8797.4	
505.85	8989.2	
506.05	9913.5	
506.25	10277	
506.44	8085.4	
506.64	8949.6	
506.84	9791.3	
507.04	10690	
507.23	8205.5	
507.43	8906.6	
507.63	11679	
507.83	10050	
508.02	8800.1	
508.22	8450.6	
508.42	11985	
508.62	9865.7	
508.81	8712.1	
509.01	9323.7	
509.21	9621.4	
509.4	9992.7	
509.6	8921	
509.8	8244.4	
510	9962.7	
510.19	11397	
510.39	8286.8	
510.59	8342.1	
510.79	9732.6	
510.98	11206	
511.18	8407.6	
511.38	8538.7	
511.57	10629	
511.77	10424	
511.97	9228.1	
512.17	8168.7	
512.36	10610	
512.56	10503	
512.76	8221.9	
512.95	8015.7	
513.15	10662	
513.35	9321.7	
513.55	9035.6	
513.74	8286.1	
513.94	10645	
514.14	9980.4	
514.33	9136.7	
514.53	8905.3	
514.73	9934.7	
514.92	10221	
515.12	8484.7	
515.32	8295	
515.51	10350	
515.71	10794	
515.91	10066	
516.11	8426	
516.3	11986	
516.5	9928.6	
516.7	8929.8	
516.89	9583.1	
517.09	10062	
517.29	9976.3	
517.48	9231.6	
517.68	8670.4	
517.88	9790	
518.07	10448	
518.27	9161.9	
518.47	8344.1	
518.66	11001	
518.86	9652.8	
519.06	8101.1	
519.25	8617.2	
519.45	10094	
519.65	11488	
519.84	9196.7	
520.04	9928.6	
520.24	11785	
520.43	10627	
520.63	8929.1	
520.83	8705.2	
521.02	9914.9	
521.22	10484	
521.42	9174.9	
521.61	9591.3	
521.81	10200	
522.01	10261	
522.2	9073.2	
522.4	8809.7	
522.6	10711	
522.79	9544.9	
522.99	8983.8	
523.18	8375.5	
523.38	10587	
523.58	10525	
523.77	10157	
523.97	8286.8	
524.17	12403	
524.36	11672	
524.56	9757.9	
524.76	9394	
524.95	10669	
525.15	10359	
525.34	9241.1	
525.54	9265.7	
525.74	11133	
525.93	10087	
526.13	10393	
526.33	9284.1	
526.52	11532	
526.72	10851	
526.91	10431	
527.11	9726.5	
527.31	11645	
527.5	12050	
527.7	9808.4	
527.89	8796	
528.09	10662	
528.29	11174	
528.48	10173	
528.68	9842.5	
528.87	11428	
529.07	11448	
529.27	9661	
529.46	9168.8	
529.66	11062	
529.85	11560	
530.05	9039.7	
530.25	9876	
530.44	12439	
530.64	10958	
530.83	9465.7	
531.03	9777	
531.23	11492	
531.42	11276	
531.62	10365	
531.81	9700.5	
532.01	11721	
532.21	12211	
532.4	9594.7	
532.6	9926.5	
532.79	12690	
532.99	11863	
533.18	9941.5	
533.38	10856	
533.58	11444	
533.77	12146	
533.97	10020	
534.16	10811	
534.36	12359	
534.55	11477	
534.75	10953	
534.95	10198	
535.14	12353	
535.34	11482	
535.53	9697.8	
535.73	11553	
535.92	12739	
536.12	11505	
536.31	9706	
536.51	10962	
536.71	11901	
536.9	11522	
537.1	10062	
537.29	10137	
537.49	12366	
537.68	11346	
537.88	10480	
538.07	9665.7	
538.27	11716	
538.46	12615	
538.66	9649.3	
538.86	10057	
539.05	11710	
539.25	12122	
539.44	10354	
539.64	9951.1	
539.83	11472	
540.03	12443	
540.22	9760.6	
540.42	9830.9	
540.61	11686	
540.81	11784	
541	10322	
541.2	11060	
541.39	11316	
541.59	11656	
541.78	10640	
541.98	9781.1	
542.18	10944	
542.37	10965	
542.57	10066	
542.76	10606	
542.96	11030	
543.15	11572	
543.35	10034	
543.54	9473.9	
543.74	11878	
543.93	11538	
544.13	10039	
544.32	11084	
544.52	11727	
544.71	10974	
544.91	9164.7	
545.1	10316	
545.3	11054	
545.49	11673	
545.69	9179.7	
545.88	9699.2	
546.08	12597	
546.27	12209	
546.47	10204	
546.66	9503.9	
546.86	11950	
547.05	12506	
547.24	9687.6	
547.44	9585.2	
547.63	10873	
547.83	12107	
548.02	9932.6	
548.22	10157	
548.41	10724	
548.61	12011	
548.8	9468.4	
549	9412.5	
549.19	11348	
549.39	11658	
549.58	9206.3	
549.78	9670.5	
549.97	11650	
550.17	11161	
550.36	10490	
550.55	11516	
550.75	11143	
550.94	11892	
551.14	9325.8	
551.33	9661	
551.53	10503	
551.72	11417	
551.92	9800.2	
552.11	9445.2	
552.31	11470	
552.5	11480	
552.69	11169	
552.89	9132.6	
553.08	11480	
553.28	11145	
553.47	9494.4	
553.67	10610	
553.86	11996	
554.06	10337	
554.25	8748.9	
554.44	9262.3	
554.64	12725	
554.83	12308	
555.03	9199.5	
555.22	9579	
555.42	11502	
555.61	11242	
555.8	9376.3	
556	9633	
556.19	10477	
556.39	11753	
556.58	9460.9	
556.78	9353.8	
556.97	11166	
557.16	10985	
557.36	10545	
557.55	9108.7	
557.75	10232	
557.94	11914	
558.13	9198.8	
558.33	9024	
558.52	11710	
558.72	10619	
558.91	9095	
559.1	9269.8	
559.3	10415	
559.49	10046	
559.69	8569.4	
559.88	9559.2	
560.07	11099	
560.27	11523	
560.46	9770.9	
560.66	9914.2	
560.85	10991	
561.04	10183	
561.24	8981.7	
561.43	9245.2	
561.63	10393	
561.82	10687	
562.01	10324	
562.21	9549	
562.4	11052	
562.59	12101	
562.79	9358.5	
562.98	9101.9	
563.18	11016	
563.37	12469	
563.56	9901.2	
563.76	9004.2	
563.95	10505	
564.14	10420	
564.34	9474.6	
564.53	9129.8	
564.73	11088	
564.92	11364	
565.11	9629.5	
565.31	8928.5	
565.5	11816	
565.69	10639	
565.89	9254.1	
566.08	9464.3	
566.27	11473	
566.47	12017	
566.66	10088	
566.85	8872.5	
567.05	11203	
567.24	10566	
567.44	9196.7	
567.63	10525	
567.82	11465	
568.02	11163	
568.21	9172.9	
568.4	9630.9	
568.6	11034	
568.79	10935	
568.98	9164	
569.18	9266.4	
569.37	11027	
569.56	13116	
569.76	9582.4	
569.95	10533	
570.14	11487	
570.34	11372	
570.53	9178.3	
570.72	9176.9	
570.91	11920	
571.11	11005	
571.3	9633.6	
571.49	10613	
571.69	11201	
571.88	10734	
572.07	10148	
572.27	10122	
572.46	10708	
572.65	11769	
572.85	9572.2	
573.04	9815.9	
573.23	12008	
573.43	11333	
573.62	9391.3	
573.81	9869.2	
574	11370	
574.2	11207	
574.39	9675.3	
574.58	9862.3	
574.78	12235	
574.97	11628	
575.16	10273	
575.36	10481	
575.55	12032	
575.74	12126	
575.93	9399.5	
576.13	10525	
576.32	11355	
576.51	11923	
576.71	9824.1	
576.9	11109	
577.09	12290	
577.28	11730	
577.48	10360	
577.67	9409.1	
577.86	11443	
578.05	11695	
578.25	10041	
578.44	10015	
578.63	11538	
578.83	12654	
579.02	9501.2	
579.21	11003	
579.4	11878	
579.6	11587	
579.79	10146	
579.98	12125	
580.17	12078	
580.37	12135	
580.56	9717.6	
580.75	10466	
580.94	12622	
581.14	12367	
581.33	10879	
581.52	9683.5	
581.71	12053	
581.91	12597	
582.1	9521	
582.29	10172	
582.48	11709	
582.68	11535	
582.87	10592	
583.06	10150	
583.25	12043	
583.45	11379	
583.64	10804	
583.83	11487	
584.02	11462	
584.21	11970	
584.41	10873	
584.6	10238	
584.79	11714	
584.98	12372	
585.18	9539.4	
585.37	9646.6	
585.56	11204	
585.75	12024	
585.94	9824.8	
586.14	10546	
586.33	12498	
586.52	11588	
586.71	10299	
586.91	10006	
587.1	10886	
587.29	11977	
587.48	9820	
587.67	9814.5	
587.87	11796	
588.06	11789	
588.25	11039	
588.44	10397	
588.63	11478	
588.83	11988	
589.02	9818.6	
589.21	9729.9	
589.4	11152	
589.59	11004	
589.78	8918.2	
589.98	9106.6	
590.17	10587	
590.36	11107	
590.55	8553	
590.74	9131.9	
590.94	12268	
591.13	10912	
591.32	8991.9	
591.51	8538	
591.7	11417	
591.89	11019	
592.09	8756.4	
592.28	9233.6	
592.47	10133	
592.66	12016	
592.85	8790.6	
593.05	9015.2	
593.24	10787	
593.43	11497	
593.62	9035	
593.81	9606.3	
594	10824	
594.19	11047	
594.39	8991.9	
594.58	8875.2	
594.77	11107	
594.96	11628	
595.15	8785.8	
595.34	9433.6	
595.54	11034	
595.73	10241	
595.92	8241.7	
596.11	9387.2	
596.3	11388	
596.49	10316	
596.68	9158.5	
596.88	9576.3	
597.07	11295	
597.26	10090	
597.45	8473.1	
597.64	9747.6	
597.83	10397	
598.02	11091	
598.22	8641.1	
598.41	9298.5	
598.6	10773	
598.79	10284	
598.98	8716.2	
599.17	9510.8	
599.36	10761	
599.55	11781	
599.74	10499	
599.94	10402	
600.13	11178	
600.32	10168	
600.51	8370	
600.7	8579.6	
600.89	11897	
601.08	11824	
601.27	8374.8	
601.47	9204.3	
601.66	11166	
601.85	11721	
602.04	9046.6	
602.23	8997.4	
602.42	10167	
602.61	10752	
602.8	8904.6	
602.99	8673.8	
603.18	10615	
603.37	10779	
603.57	9252.7	
603.76	9826.8	
603.95	11568	
604.14	10946	
604.33	8703.9	
604.52	9065	
604.71	10830	
604.9	10429	
605.09	10020	
605.28	9463	
605.47	11255	
605.66	10927	
605.86	9284.8	
606.05	8705.2	
606.24	11319	
606.43	9958.6	
606.62	9129.2	
606.81	9805	
607	11107	
607.19	10447	
607.38	8536.6	
607.57	8778.3	
607.76	10304	
607.95	9768.1	
608.14	9207.7	
608.33	9688.9	
608.52	10247	
608.72	11086	
608.91	8397.4	
609.1	8312.7	
609.29	10336	
609.48	9942.2	
609.67	9241.1	
609.86	8348.9	
610.05	9888.3	
610.24	10238	
610.43	8198.7	
610.62	7890.8	
610.81	11334	
611	11191	
611.19	8286.8	
611.38	9002.9	
611.57	10518	
611.76	11894	
611.95	8133.8	
612.14	8000.7	
612.33	10322	
612.52	9923.1	
612.71	8777.6	
612.9	7924.3	
613.09	9509.4	
613.28	11774	
613.47	8525.7	
613.66	9373.6	
613.85	10526	
614.04	10078	
614.24	8570.1	
614.43	7774.1	
614.62	10715	
614.81	10578	
615	8994.7	
615.19	9162.6	
615.38	9897.2	
615.57	10284	
615.76	8903.2	
615.95	9747	
616.14	10632	
616.33	10402	
616.52	9248.6	
616.71	9540.1	
616.9	10628	
617.09	10576	
617.28	8598.1	
617.47	9811.1	
617.66	9821.4	
617.85	9832.3	
618.04	9600.2	
618.22	9095.7	
618.41	10185	
618.6	11056	
618.79	9060.9	
618.98	8663.6	
619.17	11405	
619.36	9764	
619.55	8908.7	
619.74	8903.2	
619.93	10748	
620.12	10273	
620.31	9505.3	
620.5	9674.6	
620.69	11657	
620.88	11666	
621.07	10432	
621.26	9378.3	
621.45	10899	
621.64	10999	
621.83	9553.1	
622.02	8763.3	
622.21	11154	
622.4	10805	
622.59	10165	
622.78	9942.2	
622.97	10477	
623.16	11422	
623.35	9555.8	
623.54	8798.8	
623.72	10776	
623.91	10838	
624.1	9836.4	
624.29	8700.5	
624.48	11875	
624.67	11172	
624.86	9777.7	
625.05	8794	
625.24	12041	
625.43	10406	
625.62	11355	
625.81	9081.4	
626	11416	
626.19	10712	
626.38	9829.6	
626.56	9171.5	
626.75	10612	
626.94	11091	
627.13	9773.6	
627.32	8581	
627.51	11296	
627.7	12405	
627.89	8667.7	
628.08	9864.4	
628.27	10499	
628.46	10706	
628.65	9010.4	
628.83	8801.5	
629.02	11151	
629.21	10600	
629.4	9364.7	
629.59	9511.4	
629.78	10542	
629.97	11480	
630.16	9598.8	
630.35	9116.2	
630.54	11791	
630.72	11584	
630.91	9116.9	
631.1	9581.1	
631.29	11068	
631.48	11135	
631.67	9749	
631.86	9170.1	
632.05	10622	
632.24	10702	
632.42	8850	
632.61	9388.6	
632.8	10686	
632.99	10310	
633.18	9409.1	
633.37	9778.4	
633.56	10988	
633.75	10835	
633.93	9370.1	
634.12	9141.4	
634.31	11736	
634.5	11398	
634.69	9240.4	
634.88	9594.7	
635.07	10692	
635.25	11326	
635.44	10032	
635.63	10265	
635.82	10525	
636.01	10084	
636.2	9951.1	
636.39	9453.4	
636.57	11598	
636.76	11271	
636.95	8966	
637.14	10219	
637.33	11030	
637.52	11830	
637.7	8697.7	
637.89	9669.1	
638.08	10690	
638.27	11951	
638.46	9704.6	
638.65	9941.5	
638.83	11903	
639.02	10356	
639.21	9600.2	
639.4	10046	
639.59	10808	
639.78	10423	
639.96	8808.3	
640.15	8772.8	
640.34	10555	
640.53	10759	
640.72	8555	
640.91	8804.2	
641.09	10058	
641.28	11286	
641.47	8824.7	
641.66	9755.2	
641.85	10692	
642.03	11002	
642.22	9325.1	
642.41	8870.4	
642.6	10189	
642.79	9549	
642.97	8630.8	
643.16	9415.9	
643.35	10137	
643.54	9899.9	
643.73	8591.9	
643.91	9368.8	
644.1	9725.8	
644.29	10365	
644.48	8650.6	
644.67	8641.1	
644.85	9919	
645.04	10143	
645.23	8038.3	
645.42	8488.8	
645.6	9777	
645.79	10788	
645.98	8369.4	
646.17	7514	
646.36	9384.5	
646.54	9877.4	
646.73	9038.4	
646.92	8030.1	
647.11	9531.9	
647.29	10582	
647.48	7994.6	
647.67	7755	
647.86	10692	
648.05	10758	
648.23	8337.3	
648.42	9568.8	
648.61	10171	
648.8	9824.8	
648.98	7795.9	
649.17	8184.4	
649.36	9466.4	
649.55	8942.8	
649.73	7969.3	
649.92	8685.4	
650.11	9275.3	
650.3	9728.5	
650.48	8028	
650.67	7845.8	
650.86	9884.9	
651.05	8860.2	
651.23	7936.6	
651.42	7882.6	
651.61	9336	
651.79	9385.8	
651.98	8167.3	
652.17	7752.9	
652.36	9717.6	
652.54	8914.8	
652.73	7803.4	
652.92	7586.4	
653.11	9755.8	
653.29	9755.2	
653.48	7137.2	
653.67	7979.6	
653.85	9534	
654.04	10465	
654.23	8142.7	
654.42	7724.3	
654.6	8931.9	
654.79	9548.3	
654.98	7047.7	
655.16	7604.8	
655.35	8456.7	
655.54	8367.3	
655.73	7088	
655.91	7083.9	
656.1	9569.5	
656.29	8377.6	
656.47	6771.3	
656.66	8441	
656.85	8760.5	
657.03	8832.2	
657.22	7385.7	
657.41	7412.3	
657.59	8847.2	
657.78	8638.3	
657.97	7022.5	
658.16	7705.8	
658.34	9518.3	
658.53	9892.4	
658.72	8611.7	
658.9	9061.6	
659.09	8915.5	
659.28	9016.5	
659.46	7438.9	
659.65	7440.3	
659.84	8756.4	
660.02	9242.5	
660.21	7221.8	
660.4	7264.1	
660.58	9689.6	
660.77	9062.9	
660.96	7787.7	
661.14	6963.8	
661.33	10006	
661.52	10048	
661.7	6849.1	
661.89	10377	
662.08	8656.1	
662.26	8239	
662.45	7000	
662.64	7249.1	
662.82	9332.6	
663.01	8597.4	
663.2	7230.7	
663.38	7964.6	
663.57	9185.1	
663.75	9092.3	
663.94	7602.1	
664.13	8654.7	
664.31	8639.7	
664.5	9320.3	
664.69	7863.5	
664.87	8350.9	
665.06	8338.6	
665.25	9013.8	
665.43	8544.1	
665.62	8531.8	
665.8	9296.4	
665.99	8662.2	
666.18	7478.5	
666.36	7619.8	
666.55	9295	
666.74	9181	
666.92	7141.3	
667.11	8682.7	
667.29	8716.8	
667.48	9214.5	
667.67	8253.3	
667.85	7348.1	
668.04	8768.7	
668.22	8819.2	
668.41	7611.6	
668.6	7665.5	
668.78	8501.1	
668.97	8705.2	
669.15	7837.6	
669.34	6842.9	
669.53	8552.3	
669.71	8815.1	
669.9	7124.2	
670.08	7690.1	
670.27	8488.1	
670.46	9054.8	
670.64	7820.5	
670.83	8121.6	
671.01	8396.7	
671.2	8975.6	
671.38	7101.7	
671.57	6952.2	
671.76	9585.2	
671.94	10189	
672.13	7044.3	
672.31	8020.5	
672.5	9166.7	
672.69	8527.7	
672.87	7057.3	
673.06	7404.1	
673.24	9062.3	
673.43	8668.4	
673.61	7868.3	
673.8	7416.4	
673.98	9275.9	
674.17	9253.4	
674.36	8021.2	
674.54	7852.6	
674.73	8968.1	
674.91	9244.5	
675.1	7516.7	
675.28	7166.5	
675.47	8791.9	
675.65	9243.8	
675.84	7432.8	
676.03	7805.5	
676.21	8607.6	
676.4	8142.7	
676.58	8108.6	
676.77	7963.2	
676.95	9957.2	
677.14	8595.3	
677.32	7161.1	
677.51	6950.8	
677.69	9230.9	
677.88	8154.3	
678.06	6962.4	
678.25	7151.5	
678.44	8784.4	
678.62	8447.2	
678.81	6736.5	
678.99	7816.4	
679.18	9515.5	
679.36	9103.2	
679.55	7324.2	
679.73	7898.3	
679.92	9009	
680.1	8517.5	
680.29	8487.5	
680.47	7339.2	
680.66	8473.8	
680.84	9251.4	
681.03	6720.1	
681.21	7783	
681.4	8521.6	
681.58	8353	
681.77	7139.2	
681.95	7093.5	
682.14	9300.5	
682.32	9626.1	
682.51	7896.3	
682.69	6768.5	
682.88	8430.8	
683.06	8979.7	
683.25	7690.8	
683.43	8143.4	
683.62	8714.8	
683.8	9112.1	
683.99	8179.6	
684.17	7535.2	
684.36	9850	
684.54	8562.6	
684.73	6664.8	
684.91	6748.1	
685.1	8789.2	
685.28	8188.5	
685.46	7253.9	
685.65	7430.7	
685.83	8927.8	
686.02	8339.3	
686.2	6874.3	
686.39	7008.1	
686.57	8034.9	
686.76	9620	
686.94	6868.2	
687.13	7152.2	
687.31	8796	
687.5	8449.2	
687.68	6546	
687.86	7736.5	
688.05	10043	
688.23	7935.9	
688.42	7737.9	
688.6	7062.1	
688.79	8338.6	
688.97	8333.9	
689.16	7497.6	
689.34	6492.7	
689.52	9101.2	
689.71	9300.5	
689.89	7707.9	
690.08	6922.8	
690.26	8619.2	
690.45	8528.4	
690.63	7907.2	
690.81	7167.2	
691	8337.3	
691.18	8286.1	
691.37	7245	
691.55	9390.6	
691.74	8280.6	
691.92	10103	
692.1	7305.8	
692.29	6702.3	
692.47	8438.3	
692.66	7814.4	
692.84	6906.4	
693.02	7364.5	
693.21	8002.8	
693.39	8431.5	
693.58	7589.1	
693.76	6989	
693.94	9565.4	
694.13	9366	
694.31	7008.1	
694.5	8085.4	
694.68	8278.6	
694.86	8688.2	
695.05	7417.7	
695.23	7512.6	
695.42	8921.6	
695.6	11148	
695.78	7881.9	
695.97	7024.5	
696.15	8989.2	
696.34	8443.8	
696.52	6851.1	
696.7	7759.8	
696.89	8729.8	
697.07	8131.8	
697.25	7477.8	
697.44	8956.4	
697.62	8701.8	
697.81	9022.7	
697.99	7181.5	
698.17	7729.7	
698.36	8036.9	
698.54	8778.3	
698.72	7528.3	
698.91	6548.7	
699.09	8297	
699.28	8182.3	
699.46	7291.5	
699.64	7111.2	
699.83	8159.1	
700.01	9252	
700.19	7799.3	
700.38	6327.5	
700.56	9148.3	
700.74	8201.4	
700.93	6709.8	
701.11	7583.6	
701.29	8667	
701.48	9738.1	
701.66	6944.7	
701.84	7025.2	
702.03	8279.3	
702.21	8979	
702.39	6546.7	
702.58	7182.9	
702.76	8741.4	
702.94	8791.2	
703.13	6546.7	
703.31	8807.6	
703.49	8056	
703.68	9143.5	
703.86	6735.8	
704.04	7632.1	
704.23	8497	
704.41	8901.2	
704.59	6820.4	
704.78	7957	
704.96	9601.6	
705.14	8920.3	
705.33	6662.7	
705.51	7448.5	
705.69	8277.9	
705.87	9062.9	
706.06	7677.2	
706.24	6501.6	
706.42	8587.8	
706.61	8856.1	
706.79	7638.2	
706.97	6625.2	
707.16	8053.3	
707.34	8588.5	
707.52	7574.8	
707.7	6825.2	
707.89	8154.3	
708.07	7912.7	
708.25	7556.3	
708.44	7806.9	
708.62	8071.7	
708.8	9118.9	
708.98	7775.5	
709.17	6756.9	
709.35	8436.3	
709.53	8402.8	
709.72	6486.6	
709.9	6969.2	
710.08	8671.8	
710.26	8615.8	
710.45	8006.9	
710.63	6884.6	
710.81	8307.9	
710.99	8368.7	
711.18	7326.3	
711.36	6878.4	
711.54	8108.6	
711.72	8791.2	
711.91	6908.5	
712.09	6358.9	
712.27	8183	
712.45	8845.2	
712.64	7092.1	
712.82	6114.6	
713	7632.8	
713.18	7723.6	
713.37	6241.5	
713.55	7249.8	
713.73	8529.8	
713.91	7106.5	
714.1	6510.5	
714.28	5976.7	
714.46	8142.7	
714.64	7358.4	
714.83	5389.6	
715.01	6125.5	
715.19	7363.8	
715.37	6741.9	
715.55	5838.8	
715.74	6092	
715.92	8149.6	
716.1	6279.1	
716.28	7154.2	
716.47	6141.9	
716.65	6907.8	
716.83	6972.7	
717.01	6032	
717.19	6035.4	
717.38	8912.1	
717.56	6693.4	
717.74	6279.1	
717.92	5456.5	
718.1	7842.4	
718.29	7150.8	
718.47	5150	
718.65	5784.1	
718.83	7811	
719.01	7795.3	
719.2	5030.5	
719.38	6152.8	
719.56	7424.6	
719.74	8906.6	
719.92	5714.5	
720.11	6665.5	
720.29	7518.8	
720.47	6607.4	
720.65	5141.1	
720.83	5987.6	
721.02	6941.9	
721.2	6724.8	
721.38	5985.5	
721.56	5357.5	
721.74	6219.7	
721.92	6449.1	
722.11	6528.2	
722.29	6229.9	
722.47	7548.1	
722.65	6753.5	
722.83	5332.9	
723.01	6154.1	
723.2	6857.3	
723.38	7146	
723.56	4754.7	
723.74	5863.3	
723.92	6300.2	
724.1	7515.4	
724.29	5217.5	
724.47	6291.4	
724.65	6384.2	
724.83	6333.7	
725.01	5175.9	
725.19	5963.7	
725.37	6410.1	
725.56	6367.8	
725.74	4990.9	
725.92	5214.1	
726.1	6327.5	
726.28	6597.2	
726.46	5659.9	
726.64	5299.5	
726.83	6555.5	
727.01	6822.5	
727.19	4926.7	
727.37	5740.5	
727.55	6711.9	
727.73	7178.1	
727.91	4926.7	
728.09	4770.4	
728.28	7241.6	
728.46	7696.9	
728.64	5821.7	
728.82	5763.7	
729	8206.9	
729.18	7492.8	
729.36	5059.2	
729.54	7185.6	
729.72	8468.4	
729.91	6848.4	
730.09	6834.8	
730.27	5588.9	
730.45	6721.4	
730.63	7342	
730.81	6255.9	
730.99	5331.5	
731.17	7908.6	
731.35	6458.6	
731.53	5848.3	
731.71	5390.9	
731.9	7483.3	
732.08	7746.8	
732.26	5692	
732.44	5355.4	
732.62	7699.7	
732.8	7287.4	
732.98	6120.7	
733.16	5055.1	
733.34	7305.1	
733.52	6066.8	
733.7	5674.9	
733.88	5876.3	
734.07	7071	
734.25	6850.5	
734.43	5131.5	
734.61	6637.5	
734.79	8329.1	
734.97	6795.8	
735.15	5218.2	
735.33	5626.5	
735.51	7118.7	
735.69	6725.5	
735.87	6674.3	
736.05	5724.1	
736.23	6892.1	
736.41	6691.4	
736.59	5558.9	
736.77	5614.2	
736.95	7296.2	
737.13	6719.4	
737.32	5270.1	
737.5	5464.7	
737.68	7802.1	
737.86	6679.1	
738.04	5040.1	
738.22	6818.4	
738.4	6426.5	
738.58	6734.4	
738.76	5712.5	
738.94	4622.9	
739.12	6574.7	
739.3	6516	
739.48	6184.2	
739.66	5972.6	
739.84	6785.6	
740.02	6826.6	
740.2	4691.9	
740.38	5047.6	
740.56	7236.2	
740.74	6074.3	
740.92	5671.5	
741.1	5602.6	
741.28	6621.1	
741.46	6442.2	
741.64	5206.6	
741.82	5714.5	
742	6614.3	
742.18	6569.9	
742.36	5428.5	
742.54	5074.2	
742.72	7140.6	
742.9	5927.5	
743.08	5822.4	
743.26	4668.7	
743.44	7359.7	
743.62	7178.8	
743.8	5994.4	
743.98	5068	
744.16	6905.8	
744.34	6625.2	
744.52	5818.3	
744.7	5788.9	
744.88	7021.1	
745.06	6591.7	
745.24	5797.1	
745.42	6010.1	
745.6	7125.6	
745.78	6844.3	
745.96	4722.6	
746.14	5069.4	
746.32	7817.1	
746.5	7086	
746.68	5532.9	
746.86	4995	
747.03	7464.8	
747.21	5851	
747.39	5467.4	
747.57	5008.6	
747.75	6750.1	
747.93	7063.4	
748.11	5020.9	
748.29	4919.9	
748.47	8256.7	
748.65	6432.7	
748.83	5705	
749.01	5416.9	
749.19	6944.7	
749.37	6137.1	
749.55	5333.6	
749.73	5433.9	
749.91	6621.8	
750.09	6356.9	
750.26	5457.2	
750.44	4836.6	
750.62	6695.5	
750.8	6541.9	
750.98	4730.8	
751.16	5037.3	
751.34	6615.6	
751.52	6000.5	
751.7	5815.5	
751.88	4672.8	
752.06	7170.6	
752.24	7038.2	
752.42	4635.9	
752.59	5026.4	
752.77	6601.3	
752.95	7763.2	
753.13	5684.5	
753.31	5130.8	
753.49	6219.7	
753.67	6671.6	
753.85	5352.7	
754.03	4999.8	
754.21	7065.5	
754.38	7266.9	
754.56	5149.3	
754.74	4250.9	
754.92	6186.2	
755.1	6894.8	
755.28	4218.1	
755.46	4207.2	
755.64	7567.2	
755.82	7539.3	
755.99	4423.6	
756.17	4437.9	
756.35	5074.2	
756.53	6588.3	
756.71	3379.8	
756.89	4311.7	
757.07	6169.2	
757.25	5298.8	
757.42	4878.3	
757.6	5675.6	
757.78	6311.2	
757.96	5443.5	
758.14	4622.3	
758.32	4100.7	
758.5	5010.7	
758.67	5784.1	
758.85	4461.2	
759.03	4534.2	
759.21	5949.3	
759.39	5368.4	
759.57	3999	
759.75	5122.7	
759.92	6542.6	
760.1	5872.9	
760.28	5481	
760.46	5743.9	
760.64	5644.9	
760.82	5459.9	
760.99	5356.8	
761.17	4515.8	
761.35	6515.3	
761.53	5498.8	
761.71	4676.9	
761.89	5343.2	
762.06	6380.1	
762.24	5860.6	
762.42	4773.8	
762.6	4524	
762.78	5967.8	
762.96	6520.7	
763.13	5182	
763.31	4868.7	
763.49	6732.4	
763.67	5847.6	
763.85	5731.6	
764.02	6145.3	
764.2	6898.9	
764.38	6135.7	
764.56	4703.5	
764.74	5554.1	
764.91	7048.4	
765.09	5952.8	
765.27	4396.3	
765.45	4195.6	
765.63	7059.3	
765.8	6963.1	
765.98	3997	
766.16	4300.7	
766.34	5550.7	
766.52	5278.3	
766.69	5169.8	
766.87	4178.5	
767.05	5965.1	
767.23	6589.7	
767.41	4419.5	
767.58	4657.8	
767.76	6490	
767.94	6496.2	
768.12	4490.5	
768.29	5179.3	
768.47	5948.7	
768.65	6700.3	
768.83	4180.6	
769	5262.6	
769.18	5547.3	
769.36	6201.9	
769.54	5231.9	
769.72	4123.9	
769.89	6475	
770.07	6546.7	
770.25	4468	
770.43	5632.6	
770.6	7180.9	
770.78	7591.1	
770.96	4627	
771.14	5169.1	
771.31	6367.1	
771.49	5735.7	
771.67	3861.8	
771.85	4033.8	
772.02	5007.3	
772.2	5693.4	
772.38	4826.4	
772.55	4214	
772.73	5973.2	
772.91	5831.2	
773.09	4614.1	
773.26	4724.7	
773.44	5935	
773.62	5562.3	
773.8	4146.5	
773.97	3935.5	
774.15	5969.8	
774.33	5591	
774.5	3999.7	
774.68	4401.8	
774.86	5909.8	
775.04	5600.5	
775.21	4127.3	
775.39	4009.9	
775.57	5839.4	
775.74	6223.1	
775.92	3908.9	
776.1	3801.7	
776.27	5805.3	
776.45	6980.2	
776.63	4083	
776.81	3605.8	
776.98	5498.1	
777.16	6506.4	
777.34	4199.7	
777.51	4541	
777.69	5421	
777.87	5294.7	
778.04	4190.1	
778.22	4881.7	
778.4	5313.8	
778.57	5980.1	
778.75	3523.2	
778.93	3851.5	
779.1	5111.7	
779.28	4969.1	
779.46	3510.2	
779.64	3988.8	
779.81	6110.5	
779.99	6874.3	
780.17	4783.4	
780.34	4971.8	
780.52	5528.2	
780.69	5722.7	
780.87	4214.7	
781.05	3848.1	
781.22	5573.2	
781.4	5606.7	
781.58	4088.4	
781.75	3229	
781.93	5610.8	
782.11	5059.2	
782.28	4874.2	
782.46	3983.3	
782.64	4835.3	
782.81	5729.5	
782.99	4105.5	
783.17	4030.4	
783.34	5641.5	
783.52	4919.2	
783.69	4280.9	
783.87	5005.9	
784.05	5015.5	
784.22	4982	
784.4	4922.6	
784.58	4364.9	
784.75	5937.7	
784.93	5016.8	
785.1	4014	
785.28	4624.3	
785.46	5609.4	
785.63	4965.6	
785.81	3960.1	
785.99	3804.4	
786.16	5159.5	
786.34	5549.3	
786.51	3848.8	
786.69	4219.5	
786.87	4724.7	
787.04	5289.2	
787.22	3674.1	
787.39	4639.3	
787.57	4976.6	
787.75	6040.1	
787.92	4782	
788.1	4725.3	
788.27	4969.1	
788.45	4738.3	
788.63	4490.5	
788.8	3214.6	
788.98	5369.8	
789.15	4678.2	
789.33	3408.5	
789.5	3990.1	
789.68	5842.2	
789.86	6002.6	
790.03	4402.5	
790.21	3801.7	
790.38	5886.5	
790.56	5080.3	
790.73	3718.4	
790.91	3695.9	
791.09	4915.8	
791.26	5729.5	
791.44	3936.2	
791.61	3433.8	
791.79	4969.7	
791.96	4999.8	
792.14	3440.6	
792.32	3071.3	
792.49	4995	
792.67	5074.9	
792.84	3558	
793.02	3448.1	
793.19	5412.1	
793.37	6108.4	
793.54	3164.1	
793.72	3491.8	
793.89	6258.6	
794.07	4971.8	
794.25	4061.1	
794.42	3198.2	
794.6	6025.8	
794.77	5583.4	
794.95	4280.3	
795.12	3781.9	
795.3	4950.6	
795.47	5580	
795.65	4134.2	
795.82	3980.6	
796	4769	
796.17	6616.3	
796.35	3860.4	
796.52	4545.8	
796.7	5487.2	
796.87	5563.6	
797.05	4778.6	
797.22	4729.4	
797.4	5578	
797.57	6500.9	
797.75	3982.6	
797.92	3747.8	
798.1	5892.7	
798.27	4861.2	
798.45	3198.9	
798.62	3477.5	
798.8	5259.9	
798.97	5714.5	
799.15	4233.8	
799.32	4065.2	
799.5	4549.9	
799.67	5279	
799.85	4317.1	
800.02	3170.9	
800.2	4941.1	
800.37	5224.4	
800.55	4489.1	
800.72	3797.6	
800.9	5669.5	
801.07	6128.2	
801.25	4995.7	
801.42	4090.5	
801.6	5750	
801.77	5510.4	
801.95	3833.8	
802.12	3625.6	
802.29	5424.4	
802.47	5361.6	
802.64	4102.1	
802.82	3097.9	
802.99	4884.4	
803.17	5845.6	
803.34	3971	
803.52	3601	
803.69	6475.7	
803.87	4734.9	
804.04	3958.7	
804.21	3993.5	
804.39	5942.5	
804.56	5089.9	
804.74	3393.5	
804.91	4074.1	
805.09	4886.5	
805.26	5023.7	
805.44	3460.4	
805.61	3805.1	
805.78	5588.2	
805.96	5611.4	
806.13	4145.8	
806.31	4310.3	
806.48	4465.9	
806.66	4990.9	
806.83	4113.7	
807	3998.3	
807.18	4936.3	
807.35	5257.1	
807.53	3999.7	
807.7	3229	
807.87	6008.1	
808.05	5010	
808.22	4382.7	
808.4	3228.3	
808.57	4961.5	
808.74	4648.2	
808.92	3656.3	
809.09	4644.8	
809.27	4818.9	
809.44	5468.8	
809.61	3229	
809.79	3629.7	
809.96	6072.2	
810.14	5700.9	
810.31	3127.9	
810.48	3823.6	
810.66	5032.5	
810.83	5763	
811.01	3640.6	
811.18	4045.4	
811.35	5742.5	
811.53	4444.1	
811.7	4380.6	
811.87	4132.1	
812.05	4952.7	
812.22	4942.4	
812.39	3575.1	
812.57	3420.1	
812.74	4999.8	
812.92	6601.3	
813.09	3843.4	
813.26	4231.8	
813.44	6325.5	
813.61	4947.2	
813.78	3195.5	
813.96	4283	
814.13	5010	
814.3	4658.4	
814.48	4573.1	
814.65	3863.8	
814.82	6154.8	
815	4732.9	
815.17	3967.6	
815.34	4811.4	
815.52	4877.6	
815.69	4888.5	
815.87	3858.4	
816.04	3420.1	
816.21	5010	
816.38	4388.8	
816.56	3771.7	
816.73	3527.3	
816.9	6255.9	
817.08	5681.1	
817.25	3553.2	
817.42	4463.9	
817.6	4535.6	
817.77	4952	
817.94	3990.1	
818.12	3528.7	
818.29	4731.5	
818.46	7328.3	
818.64	3648.1	
818.81	3456.3	
818.98	4697.4	
819.16	6685.3	
819.33	4222.9	
819.5	4000.4	
819.67	5315.8	
819.85	5922.7	
820.02	3868.6	
820.19	4071.4	
820.37	5182.7	
820.54	4784.1	
820.71	3971.7	
820.88	4969.1	
821.06	5174.5	
821.23	4730.8	
821.4	4035.2	
821.58	3941.7	
821.75	5590.3	
821.92	5100.1	
822.09	3220.8	
822.27	3302.7	
822.44	4959.5	
822.61	4878.3	
822.79	3226.2	
822.96	6197.2	
823.13	5452.4	
823.3	4767	
823.48	3734.8	
823.65	3378.5	
823.82	5657.9	
823.99	4562.2	
824.17	4728.1	
824.34	3444.7	
824.51	6496.2	
824.68	4988.2	
824.86	3595.6	
825.03	3992.9	
825.2	4939.7	
825.37	6033.3	
825.55	3552.5	
825.72	3893.9	
825.89	6563.7	
826.06	6109.1	
826.24	3876.1	
826.41	3852.9	
826.58	6023.8	
826.75	5292.6	
826.92	3079.5	
827.1	3403	
827.27	8142.7	
827.44	6483.9	
827.61	3666.5	
827.79	4414.7	
827.96	4741	
828.13	4981.3	
828.3	3838.6	
828.47	3212.6	
828.65	5193	
828.82	5110.4	
828.99	4919.2	
829.16	4341	
829.34	5584.1	
829.51	5377.3	
829.68	4002.4	
829.85	4047.5	
830.02	5847.6	
830.2	5554.1	
830.37	3092.4	
830.54	4781.3	
830.71	6333	
830.88	4930.8	
831.05	3128.6	
831.23	3532.1	
831.4	6124.1	
831.57	6775.4	
831.74	3665.2	
831.91	3250.8	
832.09	5227.8	
832.26	5545.2	
832.43	3827	
832.6	4274.8	
832.77	5183.4	
832.94	5877.7	
833.12	3044	
833.29	3694.5	
833.46	4953.4	
833.63	7006.8	
833.8	4085	
833.97	3774.4	
834.15	5571.8	
834.32	5386.8	
834.49	4002.4	
834.66	4033.8	
834.83	5722	
835	4687.1	
835.17	3644.7	
835.35	3652.9	
835.52	5485.8	
835.69	5328.8	
835.86	3805.8	
836.03	3168.9	
836.2	5528.8	
836.37	5145.2	
836.55	3780.6	
836.72	3549.1	
836.89	5087.8	
837.06	5658.5	
837.23	3883.6	
837.4	4216.8	
837.57	6355.5	
837.75	6993.1	
837.92	3437.2	
838.09	3696.6	
838.26	5131.5	
838.43	5806.7	
838.6	3994.9	
838.77	3520.5	
838.94	6664.1	
839.11	6348.7	
839.29	3758.7	
839.46	2967.5	
839.63	5532.2	
839.8	5262.6	
839.97	3651.5	
840.14	3682.9	
840.31	5307	
840.48	5517.9	
840.65	3087.7	
840.82	3735.5	
841	5538.4	
841.17	5492	
841.34	3383.9	
841.51	3446.7	
841.68	5457.8	
841.85	5233.2	
842.02	3484.3	
842.19	2876.7	
842.36	5270.8	
842.53	5260.5	
842.7	3411.9	
842.87	4123.2	
843.05	6888.7	
843.22	5258.5	
843.39	3282.2	
843.56	3460.4	
843.73	5020.9	
843.9	5590.3	
844.07	5461.2	
844.24	4518.5	
844.41	8104.5	
844.58	4884.4	
844.75	3291.8	
844.92	3522.5	
845.09	5584.8	
845.26	5476.3	
845.43	3336.8	
845.6	3521.8	
845.77	5527.5	
845.94	5229.8	
846.12	3708.2	
846.29	3936.2	
846.46	5783.5	
846.63	5468.1	
846.8	3361.4	
846.97	3966.2	
847.14	6027.2	
847.31	5487.2	
847.48	3794.2	
847.65	4123.2	
847.82	5752.7	
847.99	5805.3	
848.16	4517.8	
848.33	4199	
848.5	5072.8	
848.67	6019.7	
848.84	3411.9	
849.01	3488.4	
849.18	5027.1	
849.35	4687.8	
849.52	4197.7	
849.69	3302.7	
849.86	5722.7	
850.03	5939.8	
850.2	3361.4	
850.37	4193.6	
850.54	5844.2	
850.71	5193.6	
850.88	4031.8	
851.05	3358	
851.22	5446.2	
851.39	6083.8	
851.56	3173.7	
851.73	3841.3	
851.9	4898.1	
852.07	5831.2	
852.24	3781.2	
852.41	3332.7	
852.58	5399.1	
852.75	4977.2	
852.92	3766.2	
853.09	3260.4	
853.26	5122	
853.43	5936.4	
853.6	3331.4	
853.77	2835.8	
853.94	6062	
854.11	4853	
854.28	5023	
854.44	3601.7	
854.61	6452.5	
854.78	5902.2	
854.95	3317.7	
855.12	4217.5	
855.29	4467.3	
855.46	6260	
855.63	3345	
855.8	4654.4	
855.97	5097.4	
856.14	5830.6	
856.31	4814.1	
856.48	3644	
856.65	5120.6	
856.82	4797.7	
856.99	3204.4	
857.16	3631.7	
857.33	6791.7	
857.49	5200.5	
857.66	3623.5	
857.83	3864.5	
858	5150.6	
858.17	5395	
858.34	3203.7	
858.51	3402.4	
858.68	6154.8	
858.85	6226.5	
859.02	3868.6	
859.19	4197	
859.36	4912.4	
859.52	4891.2	
859.69	3371.6	
859.86	3994.9	
860.03	4894.6	
860.2	6069.5	
860.37	3066.5	
860.54	3394.2	
860.71	5692.7	
860.88	6165.1	
861.05	3757.3	
861.21	4190.1	
861.38	6175.3	
861.55	4770.4	
861.72	3107.5	
861.89	3749.1	
862.06	5731.6	
862.23	6229.9	
862.4	3246	
862.56	3457.7	
862.73	5662.6	
862.9	5365.7	
863.07	3997	
863.24	3019.4	
863.41	4762.9	
863.58	4926.7	
863.75	3435.8	
863.91	3839.9	
864.08	6058.6	
864.25	5679.7	
864.42	4250.2	
864.59	4617.5	
864.76	6419	
864.93	4831.2	
865.09	3285.6	
865.26	3587.4	
865.43	6010.1	
865.6	6403.3	
865.77	2976.4	
865.94	3294.5	
866.1	6013.5	
866.27	5766.4	
866.44	5066	
866.61	3168.9	
866.78	5212.8	
866.95	5655.8	
867.11	3257.6	
867.28	2977.7	
867.45	5879	
867.62	4872.1	
867.79	3900.7	
867.96	3332	
868.12	4805.9	
868.29	5805.3	
868.46	2871.3	
868.63	4432.5	
868.8	5915.9	
868.97	5689.9	
869.13	3516.4	
869.3	3500.7	
869.47	5646.2	
869.64	5836	
869.81	3390.1	
869.97	3377.1	
870.14	5528.2	
870.31	6197.8	
870.48	3269.2	
870.65	4205.2	
870.81	5114.5	
870.98	5266.7	
871.15	3723.2	
871.32	3489.7	
871.48	5613.5	
871.65	6229.9	
871.82	3347.7	
871.99	3730.7	
872.16	6689.3	
872.32	6038.1	
872.49	3445.4	
872.66	3403	
872.83	5734.3	
872.99	5042.8	
873.16	3852.9	
873.33	3308.2	
873.5	5367	
873.67	5388.9	
873.83	3510.2	
874	4522.6	
874.17	5556.8	
874.34	6604.7	
874.5	4358.8	
874.67	4166.9	
874.84	6141.9	
875.01	4830.5	
875.17	4739	
875.34	3348.4	
875.51	5427.1	
875.68	6552.8	
875.84	4066.6	
876.01	4917.2	
876.18	5663.3	
876.34	5634.6	
876.51	3386	
876.68	3284.9	
876.85	5165.7	
877.01	5978.7	
877.18	4754.7	
877.35	3304.1	
877.52	5329.5	
877.68	4795	
877.85	3312.9	
878.02	3327.3	
878.18	5303.6	
878.35	5047.6	
878.52	2712.2	
878.69	3739.6	
878.85	5791.7	
879.02	5715.9	
879.19	4760.2	
879.35	3583.9	
879.52	5657.9	
879.69	5976.7	
879.86	2880.8	
880.02	3738.9	
880.19	5298.1	
880.36	6450.4	
880.52	3870.7	
880.69	4024.3	
880.86	5778	
881.02	5796.4	
881.19	3686.3	
881.36	3672	
881.52	5708.4	
881.69	5037.3	
881.86	3654.3	
882.02	3564.1	
882.19	5936.4	
882.36	6985.6	
882.52	3413.3	
882.69	4693.9	
882.86	5491.3	
883.02	5390.9	
883.19	4071.4	
883.36	3822.2	
883.52	5773.9	
883.69	6604	
883.86	3349.8	
884.02	3094.5	
884.19	5760.9	
884.36	5259.9	
884.52	3768.3	
884.69	3519.8	
884.86	5129.5	
885.02	6280.4	
885.19	3736.2	
885.36	3880.9	
885.52	5335.6	
885.69	5433.9	
885.86	4858.5	
886.02	4194.9	
886.19	5732.9	
886.35	5259.9	
886.52	3740.3	
886.69	4732.2	
886.85	4878.9	
887.02	6072.9	
887.19	6072.9	
887.35	6072.9	
887.52	6072.9	
887.68	6072.9	
887.85	6072.9	
888.02	6072.9	
888.18	6072.9	
888.35	6072.9	
888.51	6072.9	
888.68	6072.9	
888.85	6072.9	
889.01	6072.9	
889.18	6072.9	
889.35	6072.9	
889.51	6072.9	
889.68	6072.9	
889.84	6072.9	
890.01	6072.9	
890.17	6072.9	
890.34	6072.9	
890.51	6072.9	
890.67	6072.9	
890.84	6072.9	
891	6072.9	
891.17	6072.9	
891.34	6072.9	
891.5	6072.9	
891.67	6072.9	
891.83	6072.9	
892	6072.9	
892.16	6072.9	
892.33	6072.9	
892.5	6072.9	
892.66	6072.9	
892.83	6072.9	
892.99	6072.9	
893.16	6072.9	
893.32	6072.9	
893.49	6072.9	
893.65	6072.9	
893.82	6072.9	
893.99	6072.9	
894.15	6072.9	
894.32	6072.9	
894.48	6072.9	
894.65	6072.9	
894.81	6072.9	
894.98	6072.9	
895.14	6072.9	
895.31	6072.9	
895.47	6072.9	
895.64	6072.9	
895.81	6072.9	
895.97	6072.9	
896.14	6072.9	
896.3	6072.9	
896.47	6072.9	
896.63	6072.9	
896.8	6072.9	
896.96	6072.9	
897.13	6072.9	
897.29	6072.9	
897.46	6072.9	
897.62	6072.9	
897.79	6072.9	
897.95	6072.9	
898.12	6072.9	
898.28	6072.9	
898.45	6072.9	
898.61	6072.9	
898.78	6072.9	
898.94	6072.9	
899.11	6072.9	
899.27	6072.9	
899.44	6072.9	
899.6	6072.9	
899.77	6072.9	
899.93	6072.9	
900.1	6072.9	
900.26	6072.9	
900.43	6072.9	
900.59	6072.9	
900.76	6072.9	
900.92	6072.9	
901.09	6072.9	
901.25	6072.9	
901.42	6072.9	
901.58	6072.9	
901.75	6072.9	
901.91	6072.9	
902.07	6072.9	
902.24	6072.9	
902.4	6072.9	
902.57	6072.9	
902.73	6072.9	
902.9	6072.9	
903.06	6072.9	
903.23	6072.9	
903.39	6072.9	
903.56	6072.9	
903.72	6072.9	
903.88	6072.9	
904.05	6072.9	
904.21	6072.9	
904.38	6072.9	
904.54	6072.9	
904.71	6072.9	
904.87	6072.9	
905.03	6072.9	
905.2	6072.9	
905.36	6072.9	
905.53	6072.9	
905.69	6072.9	
905.86	6072.9	
906.02	6072.9	
906.18	6072.9	
906.35	6072.9	
906.51	6072.9	
906.68	6072.9	
906.84	6072.9	
907.01	6072.9	
907.17	6072.9	
907.33	6072.9	
907.5	6072.9	
907.66	6072.9	
907.83	6072.9	
907.99	6072.9	
908.15	6072.9	
908.32	6072.9	
908.48	6072.9	
908.65	6072.9	
908.81	6072.9	
908.97	6072.9	
909.14	6072.9	
909.3	6072.9	
909.47	6072.9	
909.63	6072.9	
909.79	6072.9	
909.96	6072.9	
910.12	6072.9	
910.28	6072.9	
910.45	6072.9	
910.61	6072.9	
910.78	6072.9	
910.94	6072.9	
911.1	6072.9	
911.27	6072.9	
911.43	6072.9	
911.59	6072.9	
911.76	6072.9	
911.92	6072.9	
912.08	6072.9	
912.25	6072.9	
912.41	6072.9	
912.57	6072.9	
912.74	6072.9	
912.9	6072.9	
913.07	6072.9	
913.23	6072.9	
913.39	6072.9	
913.56	6072.9	
913.72	6072.9	
913.88	6072.9	
914.05	6072.9	
914.21	6072.9	
914.37	6072.9	
914.54	6072.9	
914.7	6072.9	
914.86	6072.9	
915.03	6072.9	
915.19	6072.9	
