Wavelength	Intensities	
nm	a.u.	
179.22	1909	
179.44	1909.4	
179.65	1908.7	
179.86	1910.1	
180.08	1896.4	
180.29	4835.9	
180.51	3472	
180.72	5635.3	
180.94	6559.6	
181.15	3232.4	
181.37	3176.4	
181.58	5468.8	
181.79	5756.2	
182.01	3409.9	
182.22	3635.8	
182.44	5728.9	
182.65	4783.4	
182.87	4513	
183.08	3986.7	
183.29	6107	
183.51	5044.8	
183.72	3674.7	
183.94	5321.3	
184.15	5381.4	
184.37	5429.2	
184.58	3199.6	
184.79	4445.5	
185.01	4961.5	
185.22	5732.9	
185.44	4659.8	
185.65	3943.7	
185.86	5304.9	
186.08	4883	
186.29	3108.8	
186.51	3401.7	
186.72	5042.1	
186.94	5902.9	
187.15	3950.5	
187.36	4065.9	
187.58	7774.1	
187.79	5522.7	
188.01	4187.4	
188.22	6574	
188.43	6631.3	
188.65	5796.4	
188.86	3290.4	
189.08	4042	
189.29	5224.4	
189.5	5193	
189.72	3756.7	
189.93	3810.6	
190.15	5961.6	
190.36	7172	
190.57	4115.1	
190.79	3986.7	
191	6047.7	
191.22	6034.7	
191.43	4127.3	
191.64	3394.8	
191.86	6307.7	
192.07	5988.9	
192.29	3536.2	
192.5	3777.1	
192.71	6005.3	
192.93	5138.4	
193.14	3723.2	
193.35	3848.8	
193.57	5205.3	
193.78	6085.9	
194	2984.6	
194.21	3644	
194.42	4934.2	
194.64	5447.6	
194.85	4037.9	
195.07	4725.3	
195.28	5458.5	
195.49	4757.4	
195.71	4934.2	
195.92	3480.2	
196.13	5629.2	
196.35	5739.1	
196.56	5345.9	
196.78	4050.2	
196.99	7121.5	
197.2	6569.2	
197.42	4588.8	
197.63	4065.2	
197.84	4849.6	
198.06	5625.1	
198.27	3751.2	
198.48	5024.3	
198.7	5202.5	
198.91	5300.1	
199.13	4044.1	
199.34	4078.9	
199.55	5867.4	
199.77	4653.7	
199.98	3600.3	
200.19	4164.2	
200.41	5341.8	
200.62	5020.9	
200.83	4243.4	
201.05	4622.9	
201.26	5344.5	
201.47	5035.3	
201.69	3640.6	
201.9	3510.2	
202.11	5424.4	
202.33	6414.2	
202.54	3819.5	
202.76	4300.1	
202.97	5553.4	
203.18	5498.8	
203.4	4278.9	
203.61	4159.4	
203.82	5514.5	
204.04	5079	
204.25	4105.5	
204.46	4021.5	
204.68	5427.8	
204.89	5644.9	
205.1	3975.1	
205.32	3383.2	
205.53	5844.9	
205.74	5924.8	
205.96	2937.5	
206.17	4149.2	
206.38	5803.3	
206.6	5911.8	
206.81	4631.1	
207.02	3768.9	
207.24	5666	
207.45	6113.9	
207.66	3842	
207.88	3375.1	
208.09	5613.5	
208.3	5411.4	
208.52	3530	
208.73	3887.7	
208.94	5425.1	
209.15	6138.4	
209.37	3877.5	
209.58	4030.4	
209.79	5991.7	
210.01	5227.1	
210.22	3110.2	
210.43	3195.5	
210.65	5429.8	
210.86	5873.6	
211.07	3914.4	
211.29	3515	
211.5	5769.8	
211.71	5336.3	
211.93	3560.7	
212.14	3523.2	
212.35	5315.2	
212.56	5524.1	
212.78	4065.2	
212.99	3382.6	
213.2	6352.8	
213.42	5169.1	
213.63	3645.4	
213.84	3919.1	
214.06	4764.9	
214.27	4929.5	
214.48	3905.5	
214.69	4132.1	
214.91	6048.3	
215.12	6162.3	
215.33	4212.7	
215.55	4629.1	
215.76	6674.3	
215.97	5841.5	
216.18	4031.1	
216.4	3906.2	
216.61	5077.6	
216.82	5888.6	
217.04	3589.4	
217.25	3748.5	
217.46	6097.5	
217.67	5839.4	
217.89	3222.1	
218.1	3302	
218.31	5483.8	
218.53	5644.9	
218.74	3762.1	
218.95	3652.2	
219.16	5285.8	
219.38	6388.3	
219.59	3663.1	
219.8	4308.9	
220.01	7016.3	
220.23	5465.3	
220.44	4786.1	
220.65	3504.8	
220.87	5497.4	
221.08	6068.1	
221.29	3297.9	
221.5	4425	
221.72	7497.6	
221.93	5158.2	
222.14	4115.7	
222.35	4833.9	
222.57	5423	
222.78	5778.7	
222.99	3862.5	
223.2	4192.2	
223.42	5709.1	
223.63	5873.6	
223.84	2976.4	
224.05	2989.4	
224.27	6908.5	
224.48	6303.6	
224.69	4812.7	
224.9	4103.4	
225.12	5616.9	
225.33	5407.3	
225.54	3231.7	
225.75	3652.2	
225.97	4948.6	
226.18	5250.3	
226.39	3955.3	
226.6	3648.8	
226.82	5208.7	
227.03	5078.3	
227.24	4072	
227.45	3422.2	
227.67	5786.2	
227.88	6374.6	
228.09	4500.1	
228.3	4579.3	
228.52	5860.6	
228.73	5392.3	
228.94	3733.4	
229.15	3396.9	
229.36	5380	
229.58	5272.8	
229.79	3813.3	
230	4444.1	
230.21	6477	
230.43	5488.6	
230.64	4100	
230.85	4215.4	
231.06	5857.9	
231.28	5860.6	
231.49	3381.9	
231.7	3933.5	
231.91	5769.1	
232.12	5470.1	
232.34	3489.7	
232.55	3942.3	
232.76	6039.5	
232.97	5587.5	
233.18	3570.3	
233.4	3988.8	
233.61	5639.4	
233.82	5165.7	
234.03	3713.6	
234.25	3688.4	
234.46	7599.3	
234.67	5493.3	
234.88	4218.1	
235.09	3665.2	
235.31	5774.6	
235.52	5334.3	
235.73	4080.9	
235.94	3397.6	
236.15	5143.1	
236.37	6587.6	
236.58	3568.2	
236.79	3936.9	
237	5827.8	
237.21	4909.7	
237.43	4221.5	
237.64	3319.8	
237.85	9851.4	
238.06	4948.6	
238.27	4219.5	
238.48	3353.9	
238.7	5776	
238.91	5311.7	
239.12	3812.6	
239.33	3873.4	
239.54	5061.2	
239.76	5354.1	
239.97	3847.5	
240.18	3898.6	
240.39	6812.9	
240.6	5705	
240.82	4022.2	
241.03	3338.9	
241.24	5465.3	
241.45	6302.3	
241.66	3527.3	
241.87	4261.1	
242.09	6176.7	
242.3	6594.5	
242.51	4249.5	
242.72	3911.6	
242.93	5903.6	
243.14	5394.3	
243.36	4516.5	
243.57	4939.7	
243.78	6216.3	
243.99	5704.3	
244.2	3910.9	
244.41	3482.9	
244.63	5016.2	
244.84	5715.9	
245.05	4203.1	
245.26	3891.8	
245.47	5722	
245.68	5932.3	
245.9	5205.9	
246.11	4115.7	
246.32	5251	
246.53	5671.5	
246.74	6336.4	
246.95	3235.1	
247.16	4912.4	
247.38	5437.4	
247.59	3246	
247.8	3873.4	
248.01	5119.2	
248.22	5372.5	
248.43	3540.3	
248.64	3777.1	
248.86	4780	
249.07	5197.7	
249.28	3435.1	
249.49	3992.9	
249.7	5972.6	
249.91	6102.3	
250.12	3269.9	
250.34	3267.9	
250.55	5511.1	
250.76	5451.7	
250.97	4043.4	
251.18	4095.9	
251.39	6182.1	
251.6	5618.9	
251.81	4190.1	
252.03	4138.9	
252.24	5263.3	
252.45	5968.5	
252.66	3378.5	
252.87	4412.7	
253.08	5446.2	
253.29	7137.9	
253.5	3410.6	
253.72	4804.5	
253.93	5296	
254.14	6460.7	
254.35	3779.9	
254.56	3765.5	
254.77	5689.9	
254.98	4974.5	
255.19	3722.5	
255.41	4746.5	
255.62	5543.2	
255.83	6143.2	
256.04	4231.1	
256.25	4143.7	
256.46	6681.2	
256.67	5074.9	
256.88	4009.2	
257.09	4431.8	
257.31	5111	
257.52	5151.3	
257.73	5099.4	
257.94	3694.5	
258.15	5292.6	
258.36	5477	
258.57	4657.8	
258.78	3044.6	
258.99	5942.5	
259.2	5195.7	
259.41	3728	
259.63	3830.4	
259.84	6262	
260.05	6698.9	
260.26	4894	
260.47	3570.3	
260.68	6010.8	
260.89	5339.7	
261.1	4480.3	
261.31	3554.6	
261.52	6014.9	
261.73	6407.4	
261.95	4841.4	
262.16	4256.4	
262.37	6134.3	
262.58	6257.9	
262.79	4813.4	
263	3801.7	
263.21	5403.9	
263.42	4965.6	
263.63	3915.7	
263.84	3777.8	
264.05	5980.1	
264.26	6389.7	
264.47	4699.4	
264.69	4220.2	
264.9	6148.7	
265.11	5654.4	
265.32	3632.4	
265.53	3702	
265.74	5599.1	
265.95	4887.8	
266.16	4006.5	
266.37	4397	
266.58	5532.9	
266.79	5241.4	
267	3710.9	
267.21	3401	
267.42	5008	
267.63	5411.4	
267.84	3877.5	
268.06	3383.9	
268.27	5874.3	
268.48	6177.4	
268.69	3803.8	
268.9	4568.3	
269.11	6128.9	
269.32	4904.9	
269.53	3936.9	
269.74	3663.8	
269.95	5750	
270.16	4775.2	
270.37	3914.4	
270.58	4511.7	
270.79	5272.8	
271	5953.4	
271.21	4235.9	
271.42	3916.4	
271.63	5567.1	
271.84	5085.8	
272.05	3130	
272.26	3481.5	
272.47	5459.9	
272.68	5593	
272.89	3738.9	
273.11	4336.9	
273.32	5236.7	
273.53	6355.5	
273.74	4283.7	
273.95	4101.4	
274.16	6086.6	
274.37	5462.6	
274.58	4270	
274.79	3420.8	
275	5536.3	
275.21	6079.1	
275.42	5157.5	
275.63	4405.2	
275.84	5651	
276.05	7179.5	
276.26	4121.9	
276.47	3814.7	
276.68	5245.5	
276.89	6421.7	
277.1	4429.1	
277.31	3422.2	
277.52	5692	
277.73	5846.3	
277.94	3409.2	
278.15	3790.1	
278.36	5640.1	
278.57	5103.5	
278.78	3713	
278.99	4270.7	
279.2	5072.8	
279.41	5016.8	
279.62	4971.8	
279.83	3460.4	
280.04	6672.3	
280.25	4965	
280.46	4926.7	
280.67	3926	
280.88	5065.3	
281.09	6110.5	
281.3	4117.8	
281.51	5236	
281.72	5115.8	
281.93	5960.3	
282.14	3633.1	
282.35	3956.7	
282.56	5884.5	
282.77	5906.3	
282.98	3784.6	
283.19	4623.6	
283.4	7262.1	
283.61	5343.8	
283.82	3383.2	
284.03	4909.7	
284.24	5506.3	
284.45	6111.8	
284.66	4848.2	
284.87	4688.5	
285.08	6004.6	
285.29	6203.3	
285.5	3369.6	
285.71	3818.8	
285.92	6055.2	
286.12	6787.7	
286.33	4856.4	
286.54	3801.7	
286.75	5939.1	
286.96	5328.1	
287.17	3490.4	
287.38	4754.7	
287.59	5020.9	
287.8	5001.1	
288.01	3846.1	
288.22	4405.9	
288.43	5922.7	
288.64	4973.2	
288.85	4508.3	
289.06	4309.6	
289.27	5881.1	
289.48	6391.7	
289.69	4883.7	
289.9	4427.7	
290.11	6057.9	
290.32	5143.8	
290.53	4618.2	
290.74	4230.4	
290.94	5881.1	
291.15	5913.9	
291.36	3714.3	
291.57	4492.6	
291.78	5184.1	
291.99	4906.9	
292.2	3553.9	
292.41	4266.6	
292.62	6032	
292.83	5791.7	
293.04	5188.2	
293.25	3581.2	
293.46	5208.7	
293.67	6055.8	
293.88	3646.7	
294.09	3569.6	
294.29	4941.1	
294.5	5600.5	
294.71	3925.3	
294.92	3757.3	
295.13	5198.4	
295.34	6591.7	
295.55	3279.5	
295.76	3631.7	
295.97	5868.1	
296.18	6652.5	
296.39	3473.4	
296.6	3672	
296.81	5649.7	
297.01	5869.5	
297.22	3834.5	
297.43	3646.7	
297.64	5126.1	
297.85	5038.7	
298.06	3038.5	
298.27	3356.6	
298.48	5483.8	
298.69	5128.1	
298.9	3947.8	
299.11	3585.3	
299.31	4945.2	
299.52	4947.2	
299.73	4284.4	
299.94	4160.1	
300.15	5488.6	
300.36	5083.7	
300.57	4175.8	
300.78	4194.2	
300.99	5328.1	
301.2	5602.6	
301.4	3571.7	
301.61	4006.5	
301.82	5746.6	
302.03	5920.7	
302.24	4435.9	
302.45	3479.5	
302.66	5757.5	
302.87	6242.9	
303.08	3655.6	
303.29	4997.7	
303.49	5201.8	
303.7	5526.8	
303.91	3250.1	
304.12	4801.1	
304.33	4966.3	
304.54	5547.3	
304.75	3676.1	
304.96	3481.5	
305.16	5816.9	
305.37	6507.8	
305.58	3186.6	
305.79	3295.9	
306	5751.4	
306.21	4883	
306.42	3596.9	
306.63	5620.3	
306.83	5201.8	
307.04	6044.2	
307.25	4069.3	
307.46	4044.1	
307.67	4642.7	
307.88	5980.1	
308.09	3579.2	
308.29	3773	
308.5	5500.8	
308.71	6064.7	
308.92	3947.8	
309.13	3535.5	
309.34	5375.9	
309.55	5396.4	
309.75	4586.1	
309.96	4209.3	
310.17	5882.4	
310.38	5143.1	
310.59	4399.7	
310.8	3429	
311.01	5204.6	
311.21	5291.3	
311.42	3480.2	
311.63	3586	
311.84	5195	
312.05	5613.5	
312.26	4061.1	
312.46	4477.5	
312.67	5234.6	
312.88	4980.7	
313.09	3539.6	
313.3	3469.9	
313.51	6198.5	
313.71	6624.5	
313.92	3478.8	
314.13	3756.7	
314.34	5584.8	
314.55	5383.4	
314.76	4513.7	
314.96	3958	
315.17	5513.1	
315.38	5803.9	
315.59	3537.5	
315.8	3393.5	
316.01	6325.5	
316.21	6336.4	
316.42	3462.4	
316.63	3926	
316.84	5313.8	
317.05	6141.9	
317.26	4175.1	
317.46	3762.8	
317.67	5378.6	
317.88	5859.9	
318.09	4524	
318.3	3246	
318.5	5124.7	
318.71	5797.8	
318.92	5738.4	
319.13	4225.6	
319.34	5999.2	
319.54	6124.1	
319.75	3309.5	
319.96	3157.3	
320.17	5845.6	
320.38	5978.7	
320.58	3218.7	
320.79	3912.3	
321	6044.9	
321.21	6223.1	
321.42	3932.8	
321.62	3237.8	
321.83	5077.6	
322.04	5479	
322.25	3768.3	
322.46	3562.1	
322.66	5594.4	
322.87	5737.7	
323.08	4399	
323.29	3505.4	
323.5	6535.1	
323.7	5017.5	
323.91	4825	
324.12	4349.9	
324.33	5491.3	
324.53	5791	
324.74	4185.4	
324.95	4376.5	
325.16	4875.5	
325.37	5277.6	
325.57	3543.7	
325.78	3612.6	
325.99	5524.7	
326.2	4961.5	
326.4	5197.1	
326.61	3274.7	
326.82	5425.8	
327.03	5578.7	
327.24	5028.4	
327.44	4759.5	
327.65	5717.9	
327.86	4590.2	
328.07	4092.5	
328.27	3453.6	
328.48	6089.3	
328.69	5011.4	
328.9	5141.8	
329.1	3820.1	
329.31	5371.8	
329.52	6257.9	
329.73	3571.7	
329.93	4052.2	
330.14	5428.5	
330.35	5687.9	
330.56	5825.8	
330.76	4431.8	
330.97	5207.3	
331.18	5606	
331.39	3885.7	
331.59	3208.5	
331.8	6049	
332.01	6212.9	
332.22	3697.3	
332.42	4218.8	
332.63	5603.2	
332.84	5180.7	
333.05	3987.4	
333.25	3640.6	
333.46	5205.3	
333.67	5445.5	
333.88	3735.5	
334.08	4156	
334.29	7293.5	
334.5	6078.4	
334.7	3433.1	
334.91	5090.6	
335.12	5038	
335.33	5893.4	
335.53	3988.8	
335.74	5849.7	
335.95	5227.8	
336.16	5016.8	
336.36	3913	
336.57	4628.4	
336.78	5005.2	
336.98	6092	
337.19	4924	
337.4	3853.6	
337.61	6587.6	
337.81	4944.5	
338.02	3671.3	
338.23	4726	
338.43	6227.2	
338.64	5137.7	
338.85	3646.7	
339.05	4698.7	
339.26	6343.9	
339.47	4875.5	
339.68	3592.8	
339.88	5299.5	
340.09	5685.8	
340.3	5917.9	
340.5	4115.7	
340.71	3158	
340.92	4873.5	
341.13	6182.8	
341.33	3506.1	
341.54	4171.7	
341.75	5659.2	
341.95	5325.4	
342.16	4034.5	
342.37	4400.4	
342.57	5086.5	
342.78	5451	
342.99	4463.9	
343.19	3224.9	
343.4	5875.6	
343.61	5685.8	
343.81	3807.9	
344.02	3493.2	
344.23	5840.8	
344.43	6290	
344.64	4429.8	
344.85	4345.8	
345.06	5721.3	
345.26	6076.3	
345.47	4181.3	
345.68	4884.4	
345.88	4776.5	
346.09	6003.3	
346.3	4188.1	
346.5	3149.1	
346.71	5430.5	
346.92	5173.2	
347.12	3249.4	
347.33	4121.2	
347.54	6003.3	
347.74	6493.4	
347.95	4073.4	
348.16	3020.1	
348.36	5262.6	
348.57	4898.1	
348.78	4061.8	
348.98	4387.4	
349.19	5438	
349.39	4878.9	
349.6	3306.1	
349.81	3633.1	
350.01	5670.1	
350.22	5195.7	
350.43	3939.6	
350.63	4777.9	
350.84	5518.6	
351.05	5223.7	
351.25	3574.4	
351.46	3247.4	
351.67	6012.8	
351.87	5117.9	
352.08	3841.3	
352.29	4384.7	
352.49	5851.7	
352.7	6017.6	
352.9	3509.5	
353.11	4304.8	
353.32	6525.5	
353.52	5240.8	
353.73	3410.6	
353.94	4353.3	
354.14	5686.5	
354.35	5550.7	
354.55	3525.2	
354.76	3941.7	
354.97	5671.5	
355.17	5504.9	
355.38	3287	
355.59	4650.9	
355.79	5068.7	
356	5578.7	
356.2	3919.1	
356.41	3347.1	
356.62	4826.4	
356.82	5293.3	
357.03	4184	
357.24	3769.6	
357.44	5131.5	
357.65	5242.1	
357.85	5014.1	
358.06	3931.4	
358.27	4812.7	
358.47	4983.4	
358.68	3259.7	
358.88	4104.1	
359.09	5617.6	
359.3	5997.1	
359.5	4809.3	
359.71	4276.8	
359.91	6494.8	
360.12	5785.5	
360.33	4139.6	
360.53	4572.4	
360.74	5055.1	
360.94	5167	
361.15	4385.4	
361.36	3520.5	
361.56	5897.5	
361.77	5324	
361.97	4791.6	
362.18	3786	
362.38	5897.5	
362.59	4878.3	
362.8	3463.8	
363	3209.2	
363.21	4713.7	
363.41	5416.9	
363.62	3987.4	
363.83	5026.4	
364.03	5443.5	
364.24	6423.1	
364.44	5091.3	
364.65	5082.4	
364.85	5218.2	
365.06	5069.4	
365.27	3590.1	
365.47	3622.2	
365.68	6242.2	
365.88	5183.4	
366.09	4021.5	
366.29	3673.4	
366.5	5487.9	
366.71	5881.8	
366.91	5035.3	
367.12	4241.3	
367.32	6490	
367.53	5690.6	
367.73	4152.6	
367.94	5079.6	
368.14	5683.8	
368.35	6610.8	
368.56	4182.6	
368.76	3431	
368.97	5755.5	
369.17	7441	
369.38	3556	
369.58	3872	
369.79	4791.6	
369.99	6185.5	
370.2	4901.5	
370.4	3947.8	
370.61	5510.4	
370.82	6636.1	
371.02	3867.9	
371.23	3166.8	
371.43	4703.5	
371.64	6042.9	
371.84	3804.4	
372.05	5128.8	
372.25	7402.7	
372.46	5749.3	
372.66	3852.9	
372.87	3790.1	
373.07	5782.1	
373.28	7417.7	
373.48	4924.7	
373.69	4509.6	
373.9	5238.7	
374.1	5277.6	
374.31	4799.8	
374.51	4291.9	
374.72	6127.5	
374.92	4898.7	
375.13	4913.8	
375.33	4117.8	
375.54	5628.5	
375.74	5083.1	
375.95	4132.8	
376.15	5442.8	
376.36	5666.7	
376.56	5507	
376.77	4208.6	
376.97	4703.5	
377.18	6666.1	
377.38	5709.1	
377.59	4980	
377.79	3698.6	
378	5441.5	
378.2	5977.3	
378.41	3715.7	
378.61	3633.8	
378.82	5950	
379.02	5062.6	
379.23	3889.1	
379.43	5011.4	
379.64	6042.2	
379.84	5565	
380.05	3691.1	
380.25	3639.2	
380.46	5713.8	
380.66	5350.7	
380.87	5059.2	
381.07	5464.7	
381.28	6355.5	
381.48	5784.1	
381.69	3808.5	
381.89	3798.3	
382.1	4693.3	
382.3	5922	
382.51	4883.7	
382.71	5779.4	
382.91	5874.9	
383.12	6335.7	
383.32	4133.5	
383.53	4386.1	
383.73	5606.7	
383.94	5362.3	
384.14	4259.1	
384.35	3427.6	
384.55	5367.7	
384.76	5810.8	
384.96	4156.7	
385.17	4460.5	
385.37	5789.6	
385.58	5032.5	
385.78	4502.1	
385.98	3343.7	
386.19	5310.4	
386.39	5679	
386.6	3965.6	
386.8	4177.9	
387.01	5742.5	
387.21	5820.3	
387.42	4542.4	
387.62	5151.3	
387.83	5098.8	
388.03	5762.3	
388.23	4175.1	
388.44	4992.9	
388.64	4668	
388.85	4849.6	
389.05	4527.4	
389.26	5137.7	
389.46	6732.4	
389.67	6153.5	
389.87	4418.8	
390.07	4532.8	
390.28	5364.3	
390.48	4933.6	
390.69	3692.5	
390.89	3955.3	
391.1	5134.9	
391.3	6079.1	
391.5	5237.3	
391.71	5881.1	
391.91	5807.4	
392.12	6820.4	
392.32	5361.6	
392.53	4510.3	
392.73	5227.1	
392.93	5382.1	
393.14	4204.5	
393.34	5305.6	
393.55	5853.1	
393.75	5436	
393.95	4220.2	
394.16	4134.8	
394.36	5144.5	
394.57	5842.2	
394.77	3609.9	
394.98	4114.4	
395.18	5074.2	
395.38	5259.9	
395.59	4989.5	
395.79	3851.5	
396	5259.9	
396.2	5726.8	
396.4	4711.7	
396.61	4605.2	
396.81	5924.8	
397.02	5125.4	
397.22	4902.8	
397.42	4991.6	
397.63	5840.1	
397.83	5031.2	
398.04	3814	
398.24	4323.3	
398.44	5674.9	
398.65	4701.5	
398.85	3547.1	
399.05	3771.7	
399.26	4956.1	
399.46	6784.2	
399.67	4158.1	
399.87	3852.2	
400.07	5387.5	
400.28	5734.3	
400.48	3973.7	
400.69	4953.4	
400.89	5941.8	
401.09	6457.2	
401.3	3775.8	
401.5	4996.4	
401.7	6625.2	
401.91	6833.4	
402.11	4134.8	
402.32	4412	
402.52	5964.4	
402.72	5907	
402.93	4577.9	
403.13	3457.7	
403.33	6795.2	
403.54	5520	
403.74	4363.5	
403.94	5301.5	
404.15	5554.1	
404.35	6726.9	
404.56	4175.8	
404.76	5935.7	
404.96	5976	
405.17	5742.5	
405.37	5270.8	
405.57	4576.5	
405.78	5995.1	
405.98	5497.4	
406.18	4111.6	
406.39	5076.2	
406.59	5926.1	
406.79	5569.1	
407	3962.8	
407.2	4022.9	
407.4	6037.4	
407.61	6248.4	
407.81	4028.4	
408.01	6150.7	
408.22	4920.6	
408.42	7080.5	
408.62	5019.6	
408.83	4468	
409.03	5360.2	
409.23	5295.4	
409.44	4536.3	
409.64	4891.9	
409.84	6380.8	
410.05	6276.3	
410.25	4646.8	
410.45	4435.2	
410.66	5664	
410.86	8265.6	
411.06	4780.6	
411.27	4650.3	
411.47	7925.6	
411.67	5881.1	
411.88	4987.5	
412.08	5147.2	
412.28	6507.8	
412.49	6997.9	
412.69	4610	
412.89	4671.4	
413.09	6784.2	
413.3	6689.3	
413.5	4699.4	
413.7	4240	
413.91	5907	
414.11	6799.3	
414.31	4501.4	
414.52	4859.8	
414.72	6470.9	
414.92	6331.6	
415.12	4515.8	
415.33	4995	
415.53	6693.4	
415.73	6847.7	
415.94	5436	
416.14	4891.9	
416.34	5636.7	
416.55	5448.3	
416.75	6070.2	
416.95	5471.5	
417.15	6683.2	
417.36	7486	
417.56	6205.3	
417.76	5275.6	
417.97	7027.9	
418.17	6710.5	
418.37	4837.3	
418.57	4915.1	
418.78	6428.6	
418.98	6149.4	
419.18	5795.8	
419.38	5736.4	
419.59	6234.7	
419.79	5853.1	
419.99	4812.7	
420.2	5202.5	
420.4	6764.4	
420.6	6926.9	
420.8	4722.6	
421.01	4545.8	
421.21	6482.5	
421.41	6785.6	
421.61	5179.3	
421.82	4753.3	
422.02	6068.8	
422.22	7017.7	
422.42	5591.6	
422.63	5279.7	
422.83	6229.9	
423.03	7375.4	
423.23	5285.8	
423.44	4274.1	
423.64	6319.3	
423.84	6082.5	
424.04	4801.8	
424.25	4388.8	
424.45	7285.3	
424.65	7228.6	
424.85	4244.1	
425.06	4868.7	
425.26	7160.4	
425.46	6262	
425.66	5344.5	
425.87	4944.5	
426.07	6956.3	
426.27	6839.5	
426.47	5182.7	
426.67	4463.2	
426.88	7357.7	
427.08	6870.3	
427.28	5335	
427.48	4439.3	
427.69	5689.3	
427.89	6338.5	
428.09	5387.5	
428.29	4531.5	
428.5	7111.9	
428.7	6597.2	
428.9	4407.2	
429.1	5003.9	
429.3	6536.4	
429.51	6991.1	
429.71	4810	
429.91	5542.5	
430.11	6755.6	
430.31	7062.8	
430.52	4978.6	
430.72	5355.4	
430.92	7347.4	
431.12	6809.5	
431.32	4711	
431.53	5180.7	
431.73	5700.2	
431.93	7502.4	
432.13	4593.6	
432.33	4458.4	
432.54	6130.9	
432.74	6576.7	
432.94	4369.7	
433.14	5544.5	
433.34	6759	
433.55	6213.5	
433.75	5438	
433.95	7197.2	
434.15	6496.8	
434.35	6217	
434.56	4653	
434.76	4044.7	
434.96	6546	
435.16	6696.2	
435.36	4483.7	
435.56	5627.1	
435.77	6114.6	
435.97	6267.5	
436.17	6362.4	
436.37	5523.4	
436.57	6111.1	
436.78	6034	
436.98	7378.8	
437.18	6177.4	
437.38	6728.3	
437.58	6287.9	
437.78	6287.3	
437.99	4862.6	
438.19	6885.3	
438.39	7673.7	
438.59	4912.4	
438.79	4460.5	
438.99	7559.1	
439.2	6365.1	
439.4	4556	
439.6	4442.7	
439.8	6679.8	
440	7795.3	
440.2	5548.6	
440.4	5646.2	
440.61	7019.1	
440.81	7553.6	
441.01	4616.8	
441.21	5594.4	
441.41	7432.8	
441.61	7083.9	
441.81	5837.4	
442.02	6914.6	
442.22	8005.5	
442.42	7075	
442.62	4718.5	
442.82	4806.6	
443.02	7436.2	
443.22	6599.9	
443.43	5174.5	
443.63	4724	
443.83	6310.5	
444.03	6421.7	
444.23	5963.7	
444.43	5591.6	
444.63	6692.1	
444.83	7964.6	
445.04	4889.9	
445.24	6193.1	
445.44	7001.3	
445.64	7090.8	
445.84	5704.3	
446.04	5700.9	
446.24	6413.6	
446.44	7495.6	
446.65	4928.8	
446.85	5271.5	
447.05	6618.4	
447.25	7417.7	
447.45	5392.3	
447.65	4693.9	
447.85	6780.1	
448.05	6434	
448.25	5866.7	
448.46	5642.2	
448.66	6825.9	
448.86	6457.9	
449.06	4602.5	
449.26	5911.1	
449.46	7234.8	
449.66	6151.4	
449.86	5279	
450.06	5355.4	
450.26	6356.9	
450.47	7054.6	
450.67	5621	
450.87	5900.2	
451.07	7126.2	
451.27	6935.1	
451.47	4918.5	
451.67	5460.6	
451.87	6455.9	
452.07	7674.4	
452.27	5070.8	
452.47	5154.1	
452.67	6836.8	
452.88	7512.6	
453.08	4504.2	
453.28	6526.9	
453.48	8110.6	
453.68	6820.4	
453.88	4977.2	
454.08	5251	
454.28	7247.8	
454.48	6894.8	
454.68	5835.3	
454.88	6354.2	
455.08	7355.6	
455.28	7000	
455.48	4967.7	
455.68	5479.7	
455.89	7844.4	
456.09	7402	
456.29	5298.1	
456.49	5299.5	
456.69	7703.8	
456.89	7020.4	
457.09	5836	
457.29	6212.9	
457.49	7230.7	
457.69	7395.9	
457.89	5637.4	
458.09	4958.8	
458.29	6947.4	
458.49	7669.6	
458.69	6000.5	
458.89	5435.3	
459.09	7962.5	
459.29	8043.1	
459.49	5585.5	
459.69	6425.8	
459.9	7582.3	
460.1	7006.8	
460.3	5511.8	
460.5	5265.3	
460.7	7502.4	
460.9	7178.8	
461.1	4885.1	
461.3	6277	
461.5	8110	
461.7	7786.4	
461.9	5397.1	
462.1	5914.5	
462.3	7159	
462.5	7886.7	
462.7	5396.4	
462.9	5525.4	
463.1	8904.6	
463.3	8524.3	
463.5	5670.1	
463.7	6708.5	
463.9	7428.7	
464.1	7804.8	
464.3	5842.2	
464.5	6107	
464.7	8049.2	
464.9	7673.7	
465.1	7495.6	
465.3	6430.6	
465.5	8455.4	
465.7	8395.3	
465.9	6760.3	
466.1	6595.8	
466.3	8254	
466.5	8088.1	
466.7	7430	
466.9	6307.7	
467.1	7933.1	
467.3	8993.3	
467.5	7363.8	
467.7	6178	
467.9	9106	
468.1	10082	
468.3	7136.5	
468.5	7490.8	
468.7	7906.5	
468.9	7944.8	
469.1	6501.6	
469.3	7249.1	
469.5	9887.6	
469.7	7527.7	
469.9	7048.4	
470.1	6300.9	
470.3	7983	
470.5	7961.8	
470.7	7600	
470.9	6382.8	
471.1	7749.5	
471.3	8301.1	
471.5	6189	
471.69	8150.9	
471.89	7609.6	
472.09	7185.6	
472.29	7007.5	
472.49	7434.8	
472.69	7430	
472.89	8264.9	
473.09	6160.3	
473.29	6335.7	
473.49	7660.8	
473.69	7787.1	
473.89	7315.3	
474.09	6452.5	
474.29	9037.7	
474.49	8752.3	
474.69	7214.3	
474.89	6544.6	
475.09	7773.4	
475.29	7780.9	
475.49	5943.9	
475.69	6262	
475.88	9394.7	
476.08	8043.1	
476.28	5925.5	
476.48	6478.4	
476.68	8613.1	
476.88	8438.3	
477.08	6344.6	
477.28	6683.2	
477.48	7968.6	
477.68	8680	
477.88	6185.5	
478.08	6421.1	
478.28	8919.6	
478.48	8087.4	
478.67	6546.7	
478.87	5913.2	
479.07	8705.9	
479.27	8187.8	
479.47	6763.8	
479.67	6752.2	
479.87	8525	
480.07	9080	
480.27	5989.6	
480.47	7632.8	
480.67	8250.6	
480.87	8943.5	
481.06	6130.3	
481.26	7083.2	
481.46	8127.7	
481.66	8140.7	
481.86	6772.6	
482.06	7793.2	
482.26	7931.8	
482.46	9032.2	
482.66	6733.7	
482.86	6307.1	
483.05	8297	
483.25	7644.4	
483.45	9204.9	
483.65	6771.9	
483.85	7864.2	
484.05	8213	
484.25	7172.7	
484.45	7692.9	
484.65	9056.1	
484.84	9050.7	
485.04	6672.3	
485.24	6737.1	
485.44	9277.3	
485.64	7591.8	
485.84	5977.3	
486.04	7370	
486.24	8025.3	
486.44	8440.4	
486.63	5850.4	
486.83	6696.2	
487.03	8003.5	
487.23	8076.5	
487.43	6083.8	
487.63	8443.1	
487.83	8185.7	
488.02	9256.1	
488.22	7109.9	
488.42	7626	
488.62	9065.7	
488.82	8026.7	
489.02	6716	
489.22	6724.8	
489.41	8921.6	
489.61	8558.5	
489.81	6395.8	
490.01	6457.9	
490.21	8851.3	
490.41	9418.6	
490.61	6384.9	
490.8	6559	
491	8362.5	
491.2	7641.7	
491.4	7182.2	
491.6	6266.8	
491.8	8398.7	
491.99	8627.4	
492.19	6292	
492.39	6696.9	
492.59	9042.5	
492.79	9103.2	
492.99	7526.3	
493.18	6533.7	
493.38	9090.3	
493.58	9889	
493.78	7314.7	
493.98	6898.9	
494.18	8841.8	
494.37	8306.6	
494.57	7567.9	
494.77	7448.5	
494.97	9050.7	
495.17	9324.4	
495.37	6967.2	
495.56	7263.5	
495.76	9527.2	
495.96	9073.2	
496.16	8225.3	
496.36	7054.6	
496.55	9280.7	
496.75	8821.3	
496.95	7570	
497.15	7324.2	
497.35	9274.6	
497.54	9298.5	
497.74	7244.3	
497.94	9051.3	
498.14	10087	
498.34	9858.2	
498.53	6944.7	
498.73	7854	
498.93	8702.5	
499.13	9319.6	
499.33	7546.8	
499.52	8116.1	
499.72	9278	
499.92	9671.2	
500.12	7191.8	
500.32	7400.7	
500.51	9637.1	
500.71	9316.9	
500.91	8390.5	
501.11	8000	
501.31	9654.1	
501.5	9908.8	
501.7	8589.2	
501.9	7468.9	
502.1	9333.3	
502.29	9611.8	
502.49	8058.1	
502.69	8475.9	
502.89	9490.3	
503.09	9626.1	
503.28	7020.4	
503.48	7146	
503.68	8734.6	
503.88	8844.5	
504.07	8133.2	
504.27	7651.9	
504.47	9179	
504.67	9286.9	
504.86	8043.1	
505.06	7744.1	
505.26	8874.5	
505.46	10770	
505.65	7606.8	
505.85	7828.7	
506.05	8722.3	
506.25	9303.2	
506.44	7025.9	
506.64	7995.3	
506.84	8753	
507.04	9582.4	
507.23	7252.5	
507.43	7765.2	
507.63	10819	
507.83	8992.6	
508.02	7830.7	
508.22	7460.8	
508.42	10995	
508.62	8676.6	
508.81	7762.5	
509.01	8315.4	
509.21	8700.5	
509.4	8931.2	
509.6	7997.3	
509.8	7347.4	
510	8982.4	
510.19	10413	
510.39	7333.1	
510.59	7349.5	
510.79	8676.6	
510.98	10188	
511.18	7352.9	
511.38	7615.7	
511.57	9532.6	
511.77	9451.4	
511.97	8235.6	
512.17	7242.3	
512.36	9628.9	
512.56	9656.9	
512.76	7251.9	
512.95	7043.6	
513.15	9759.9	
513.35	8356.4	
513.55	8239	
513.74	7344.7	
513.94	9754.5	
514.14	9041.8	
514.33	8344.8	
514.53	8124.3	
514.73	8981.7	
514.92	9311.4	
515.12	7665.5	
515.32	7430	
515.51	9323	
515.71	9966.8	
515.91	9228.1	
516.11	7520.1	
516.3	11028	
516.5	8911.4	
516.7	8049.9	
516.89	8644.5	
517.09	9165.3	
517.29	8957.1	
517.48	8529.8	
517.68	7665.5	
517.88	8811.7	
518.07	9491.7	
518.27	8281.3	
518.47	7384.3	
518.66	10137	
518.86	8678.6	
519.06	7220.5	
519.25	7638.2	
519.45	9078	
519.65	10509	
519.84	8166.6	
520.04	8931.2	
520.24	10884	
520.43	9565.4	
520.63	7948.8	
520.83	7751.6	
521.02	8904.6	
521.22	9607.7	
521.42	8329.8	
521.61	8893.6	
521.81	9211.1	
522.01	9398.8	
522.2	8190.5	
522.4	8011.7	
522.6	10036	
522.79	8788.5	
522.99	8185	
523.18	7428	
523.38	9777.7	
523.58	9759.3	
523.77	9417.2	
523.97	7427.3	
524.17	11598	
524.36	10800	
524.56	8976.2	
524.76	8574.2	
524.95	9844.6	
525.15	9438.4	
525.34	8305.2	
525.54	8346.2	
525.74	10074	
525.93	9099.1	
526.13	9521	
526.33	8347.5	
526.52	10578	
526.72	10010	
526.91	9685.5	
527.11	8873.8	
527.31	10673	
527.5	11139	
527.7	8893.6	
527.89	7835.5	
528.09	9538.1	
528.29	10123	
528.48	9237.7	
528.68	8880	
528.87	10659	
529.07	10548	
529.27	8718.2	
529.46	8239.7	
529.66	10032	
529.85	10535	
530.05	8094.3	
530.25	8923	
530.44	11615	
530.64	10131	
530.83	8693.6	
531.03	8933.9	
531.23	10630	
531.42	10540	
531.62	9760.6	
531.81	8956.4	
532.01	10834	
532.21	11495	
532.4	8680	
532.6	9060.2	
532.79	11654	
532.99	10947	
533.18	9141.4	
533.38	10165	
533.58	10590	
533.77	11203	
533.97	9093	
534.16	9962.7	
534.36	11610	
534.55	10602	
534.75	10165	
534.95	9069.8	
535.14	11363	
535.34	10466	
535.53	8761.2	
535.73	10885	
535.92	11930	
536.12	10750	
536.31	8956.4	
536.51	10161	
536.71	11145	
536.9	10657	
537.1	9232.2	
537.29	9290.3	
537.49	11452	
537.68	10623	
537.88	9746.3	
538.07	8895.7	
538.27	10829	
538.46	11912	
538.66	8780.3	
538.86	9287.5	
539.05	10903	
539.25	11306	
539.44	9617.3	
539.64	9160.6	
539.83	10647	
540.03	11792	
540.22	8983.1	
540.42	9106	
540.61	11011	
540.81	11064	
541	9585.2	
541.2	10284	
541.39	10501	
541.59	10849	
541.78	9958.6	
541.98	8963.3	
542.18	10081	
542.37	10107	
542.57	9409.1	
542.76	9970.2	
542.96	10172	
543.15	10842	
543.35	9399.5	
543.54	8654.7	
543.74	11159	
543.93	10832	
544.13	9343.5	
544.32	10537	
544.52	11108	
544.71	10269	
544.91	8444.5	
545.1	9783.1	
545.3	10345	
545.49	11092	
545.69	8471.8	
545.88	8996.7	
546.08	12014	
546.27	11560	
546.47	9554.5	
546.66	8796.7	
546.86	11222	
547.05	11992	
547.24	9095.7	
547.44	8973.5	
547.63	10100	
547.83	11432	
548.02	9441.1	
548.22	9438.4	
548.41	9946.3	
548.61	11409	
548.8	8794	
549	8797.4	
549.19	10628	
549.39	11005	
549.58	8489.5	
549.78	9123	
549.97	11064	
550.17	10587	
550.36	9959.3	
550.55	10972	
550.75	10558	
550.94	11469	
551.14	8719.6	
551.33	9183.1	
551.53	9871.9	
551.72	10905	
551.92	9160.6	
552.11	8871.1	
552.31	10909	
552.5	11021	
552.69	10672	
552.89	8549.6	
553.08	11028	
553.28	10600	
553.47	8943.5	
553.67	10183	
553.86	11569	
554.06	9828.2	
554.25	8094.9	
554.44	8737.3	
554.64	12348	
554.83	11759	
555.03	8716.8	
555.22	8982.4	
555.42	11134	
555.61	10774	
555.8	8964.6	
556	9237	
556.19	9951.1	
556.39	11216	
556.58	8887.5	
556.78	8921.6	
556.97	10684	
557.16	10464	
557.36	10247	
557.55	8503.8	
557.75	9528.5	
557.94	11578	
558.13	8666.3	
558.33	8425.3	
558.52	11226	
558.72	10009	
558.91	8603.5	
559.1	8787.8	
559.3	9867.8	
559.49	9497.1	
559.69	8159.1	
559.88	9200.8	
560.07	10638	
560.27	11075	
560.46	9314.8	
560.66	9494.4	
560.85	10399	
561.04	9544.2	
561.24	8606.2	
561.43	8667	
561.63	9912.9	
561.82	10183	
562.01	10099	
562.21	9071.1	
562.4	10555	
562.59	11572	
562.79	8908.7	
562.98	8665.6	
563.18	10467	
563.37	12003	
563.56	9359.9	
563.76	8410.3	
563.95	10065	
564.14	9919	
564.34	8904.6	
564.53	8680	
564.73	10525	
564.92	11091	
565.11	9135.3	
565.31	8466.3	
565.5	11171	
565.69	10141	
565.89	8707.3	
566.08	9024	
566.27	11105	
566.47	11540	
566.66	9661	
566.85	8263.6	
567.05	10649	
567.24	10002	
567.44	8608.3	
567.63	10017	
567.82	10787	
568.02	10602	
568.21	8695.7	
568.4	9007	
568.6	10527	
568.79	10526	
568.98	8430.1	
569.18	8697.7	
569.37	10456	
569.56	12446	
569.76	9009	
569.95	10021	
570.14	10918	
570.34	10819	
570.53	8430.1	
570.72	8497	
570.91	11323	
571.11	10376	
571.3	8927.8	
571.49	9944.3	
571.69	10510	
571.88	10025	
572.07	9563.3	
572.27	9510.8	
572.46	9970.9	
572.65	11195	
572.85	8794.7	
573.04	9138.7	
573.23	11303	
573.43	10720	
573.62	8608.3	
573.81	9245.9	
574	10734	
574.2	10478	
574.39	8991.9	
574.58	9139.4	
574.78	11509	
574.97	10682	
575.16	9448	
575.36	9721.7	
575.55	11140	
575.74	11306	
575.93	8671.1	
576.13	9725.1	
576.32	10546	
576.51	11159	
576.71	9074.5	
576.9	10418	
577.09	11525	
577.28	10925	
577.48	9572.9	
577.67	8552.3	
577.86	10598	
578.05	11057	
578.25	9207.7	
578.44	9339.4	
578.63	10647	
578.83	12024	
579.02	8559.1	
579.21	10208	
579.4	10960	
579.6	10618	
579.79	9415.2	
579.98	11585	
580.17	11258	
580.37	11264	
580.56	8868.4	
580.75	9636.4	
580.94	11934	
581.14	11662	
581.33	10116	
581.52	9121.7	
581.71	11277	
581.91	11897	
582.1	8716.2	
582.29	9394	
582.48	10872	
582.68	10835	
582.87	9852.8	
583.06	9514.9	
583.25	11173	
583.45	10581	
583.64	10173	
583.83	10867	
584.02	10671	
584.21	11224	
584.41	10073	
584.6	9314.2	
584.79	10880	
584.98	11729	
585.18	8819.9	
585.37	8851.3	
585.56	10391	
585.75	11200	
585.94	9041.8	
586.14	9825.5	
586.33	11758	
586.52	10821	
586.71	9420	
586.91	9184.5	
587.1	10128	
587.29	11199	
587.48	9172.2	
587.67	8980.3	
587.87	10981	
588.06	11093	
588.25	10304	
588.44	9588.6	
588.63	10591	
588.83	11161	
589.02	8888.2	
589.21	8643.8	
589.4	10147	
589.59	9968.1	
589.78	7884.7	
589.98	8164.6	
590.17	9660.3	
590.36	10202	
590.55	7568.6	
590.74	8453.3	
590.94	11652	
591.13	10135	
591.32	8256.7	
591.51	7785	
591.7	10712	
591.89	10043	
592.09	7830.1	
592.28	8432.9	
592.47	9368.1	
592.66	11282	
592.85	7882.6	
593.05	8196.7	
593.24	9891	
593.43	10763	
593.62	8234.2	
593.81	8714.8	
594	10115	
594.19	10139	
594.39	8118.1	
594.58	8059.4	
594.77	10208	
594.96	10902	
595.15	7942.7	
595.34	8747.6	
595.54	10345	
595.73	9365.4	
595.92	7403.4	
596.11	8540.7	
596.3	10869	
596.49	9530.6	
596.68	8355	
596.88	8797.4	
597.07	10628	
597.26	9321	
597.45	7845.1	
597.64	9154.4	
597.83	9652.8	
598.02	10272	
598.22	7953.6	
598.41	8653.4	
598.6	10066	
598.79	9460.9	
598.98	7981.6	
599.17	9082.1	
599.36	10050	
599.55	11252	
599.74	10120	
599.94	9891.7	
600.13	10688	
600.32	9430.2	
600.51	7750.2	
600.7	7872.4	
600.89	11258	
601.08	11338	
601.27	7740.6	
601.47	8742.8	
601.66	10513	
601.85	11259	
602.04	8400.1	
602.23	8720.9	
602.42	9641.2	
602.61	10219	
602.8	8372.8	
602.99	8084	
603.18	9968.8	
603.37	10228	
603.57	8800.8	
603.76	9308.7	
603.95	10996	
604.14	10674	
604.33	8243.1	
604.52	8503.2	
604.71	10239	
604.9	9815.2	
605.09	9155.8	
605.28	8972.2	
605.47	10800	
605.66	10504	
605.86	8746.9	
606.05	8204.2	
606.24	10778	
606.43	9312.1	
606.62	8516.1	
606.81	9281.4	
607	10623	
607.19	9986.6	
607.38	7836.2	
607.57	8239.7	
607.76	9688.3	
607.95	9166	
608.14	8572.8	
608.33	9210.4	
608.52	9666.4	
608.72	10636	
608.91	7827.3	
609.1	7666.9	
609.29	9764.7	
609.48	9314.8	
609.67	8787.8	
609.86	7849.2	
610.05	9331.2	
610.24	9704.6	
610.43	7662.8	
610.62	7359.7	
610.81	10915	
611	10572	
611.19	7795.3	
611.38	8572.1	
611.57	10058	
611.76	11436	
611.95	7591.1	
612.14	7326.3	
612.33	9896.5	
612.52	9432.3	
612.71	8217.8	
612.9	7324.2	
613.09	8968.1	
613.28	11352	
613.47	7828.7	
613.66	8859.5	
613.85	9841.2	
614.04	9515.5	
614.24	7970	
614.43	7194.5	
614.62	10090	
614.81	10038	
615	8563.9	
615.19	8583.7	
615.38	9396.1	
615.57	9649.3	
615.76	8426	
615.95	9322.4	
616.14	10120	
616.33	9899.9	
616.52	8615.8	
616.71	9032.2	
616.9	10254	
617.09	10061	
617.28	8061.5	
617.47	9437	
617.66	9309.4	
617.85	9275.9	
618.04	9149.6	
618.22	8496.3	
618.41	9582.4	
618.6	10479	
618.79	8429.4	
618.98	8243.1	
619.17	10948	
619.36	9193.3	
619.55	8381	
619.74	8359.8	
619.93	10207	
620.12	9606.3	
620.31	8972.8	
620.5	9099.1	
620.69	10766	
620.88	11148	
621.07	9852.1	
621.26	8776.9	
621.45	10378	
621.64	10481	
621.83	8925	
622.02	8170	
622.21	10317	
622.4	10219	
622.59	9617.9	
622.78	9291	
622.97	9747.6	
623.16	10770	
623.35	8791.2	
623.54	8052.6	
623.72	10142	
623.91	10110	
624.1	9208.4	
624.29	7861.5	
624.48	11252	
624.67	10583	
624.86	9069.1	
625.05	8172.1	
625.24	11401	
625.43	9804.3	
625.62	10836	
625.81	8339.3	
626	10864	
626.19	10144	
626.38	9179	
626.56	8442.4	
626.75	9871.9	
626.94	10673	
627.13	9090.9	
627.32	7818.5	
627.51	10542	
627.7	11914	
627.89	7972.1	
628.08	9205.6	
628.27	9690.3	
628.46	9917.6	
628.65	8241	
628.83	7946.1	
629.02	10542	
629.21	9749.7	
629.4	8694.3	
629.59	8884.1	
629.78	9782.5	
629.97	10699	
630.16	8987.2	
630.35	8381	
630.54	11156	
630.72	10854	
630.91	8357.1	
631.1	8959.2	
631.29	10314	
631.48	10515	
631.67	9187.9	
631.86	8604.2	
632.05	9934	
632.24	10109	
632.42	8198.7	
632.61	8787.2	
632.8	10091	
632.99	9663.7	
633.18	8899.1	
633.37	9297.1	
633.56	10412	
633.75	10094	
633.93	8913.4	
634.12	8527.1	
634.31	11214	
634.5	10744	
634.69	8537.3	
634.88	9020.6	
635.07	10127	
635.25	10681	
635.44	9513.5	
635.63	9686.9	
635.82	9843.2	
636.01	9416.6	
636.2	9423.4	
636.39	8862.2	
636.57	11054	
636.76	10873	
636.95	8370	
637.14	9722.4	
637.33	10424	
637.52	11292	
637.7	8073.8	
637.89	9011.1	
638.08	10014	
638.27	11538	
638.46	9306	
638.65	9633	
638.83	11452	
639.02	9780.4	
639.21	8972.8	
639.4	9554.5	
639.59	10352	
639.78	9867.1	
639.96	8284.7	
640.15	8311.3	
640.34	10178	
640.53	10255	
640.72	7991.9	
640.91	8401.5	
641.09	9414.5	
641.28	10909	
641.47	8297	
641.66	9183.8	
641.85	10164	
642.03	10453	
642.22	8896.4	
642.41	8378.9	
642.6	9612.5	
642.79	9078	
642.97	8032.1	
643.16	8880.7	
643.35	9645.9	
643.54	9297.8	
643.73	7992.5	
643.91	8845.2	
644.1	9100.5	
644.29	9760.6	
644.48	8103.1	
644.67	8070.4	
644.85	9379.7	
645.04	9487.6	
645.23	7619.8	
645.42	7759.8	
645.6	9063.6	
645.79	10169	
645.98	7834.8	
646.17	6846.4	
646.36	8727.1	
646.54	9391.3	
646.73	8472.4	
646.92	7309.2	
647.11	8941.4	
647.29	10109	
647.48	7503.8	
647.67	7140.6	
647.86	10311	
648.05	10336	
648.23	7727	
648.42	9050.7	
648.61	9696.4	
648.8	9440.5	
648.98	7472.4	
649.17	7860.1	
649.36	9054.1	
649.55	8525.7	
649.73	7552.9	
649.92	8273.8	
650.11	8894.3	
650.3	9133.3	
650.48	7598	
650.67	7305.1	
650.86	9531.2	
651.05	8299.1	
651.23	7532.4	
651.42	7470.3	
651.61	8912.1	
651.79	9068.4	
651.98	7739.3	
652.17	7301	
652.36	9421.3	
652.54	8323.6	
652.73	7317.4	
652.92	7152.2	
653.11	9388.6	
653.29	9387.9	
653.48	6580.8	
653.67	7569.3	
653.85	8977.6	
654.04	10118	
654.23	7772.7	
654.42	7169.3	
654.6	8398.7	
654.79	9020.6	
654.98	6682.5	
655.16	7179.5	
655.35	8079.9	
655.54	8095.6	
655.73	6801.3	
655.91	6777.4	
656.1	9282.1	
656.29	8119.5	
656.47	6374	
656.66	8154.3	
656.85	8488.8	
657.03	8533.9	
657.22	7025.2	
657.41	7148.8	
657.59	8521.6	
657.78	8275.2	
657.97	6679.1	
658.16	7395.9	
658.34	9176.9	
658.53	9684.8	
658.72	8392.6	
658.9	8864.3	
659.09	8697.7	
659.28	8713.4	
659.46	7171.3	
659.65	7152.2	
659.84	8451.3	
660.02	9020.6	
660.21	7004.7	
660.4	6957.6	
660.58	9454.8	
660.77	8811	
660.96	7561.8	
661.14	6600.6	
661.33	9818	
661.52	9735.4	
661.7	6576.7	
661.89	10306	
662.08	8417.2	
662.26	7977.5	
662.45	6805.4	
662.64	6996.5	
662.82	9086.8	
663.01	8233.5	
663.2	6941.2	
663.38	7742	
663.57	8914.8	
663.75	8763.9	
663.94	7291.5	
664.13	8642.4	
664.31	8215.1	
664.5	9088.2	
664.69	7689.4	
664.87	8148.2	
665.06	8012.3	
665.25	8902.5	
665.43	8311.3	
665.62	8380.3	
665.8	9149	
665.99	8405.5	
666.18	7243	
666.36	7421.2	
666.55	9040.4	
666.74	9000.1	
666.92	6896.9	
667.11	8540	
667.29	8444.5	
667.48	9053.4	
667.67	8172.8	
667.85	7266.9	
668.04	8452	
668.22	8430.8	
668.41	7311.2	
668.6	7445.7	
668.78	8247.9	
668.97	8481.3	
669.15	7709.2	
669.34	6539.8	
669.53	8218.5	
669.71	8576.2	
669.9	6804	
670.08	7484.6	
670.27	8272.4	
670.46	8901.2	
670.64	7659.4	
670.83	7925.6	
671.01	8124.3	
671.2	8744.1	
671.38	6840.2	
671.57	6688	
671.76	9351.7	
671.94	10025	
672.13	6717.3	
672.31	7750.2	
672.5	9111.4	
672.69	8215.1	
672.87	6873.7	
673.06	7210.2	
673.24	8859.5	
673.43	8272.4	
673.61	7697.6	
673.8	7144	
673.98	9017.2	
674.17	9086.2	
674.36	7713.3	
674.54	7559.1	
674.73	8723	
674.91	8962.6	
675.1	7293.5	
675.28	6920.1	
675.47	8500.4	
675.65	9022.7	
675.84	7248.4	
676.03	7598	
676.21	8275.2	
676.4	7806.9	
676.58	7961.1	
676.77	7669	
676.95	9809.1	
677.14	8187.8	
677.32	6825.2	
677.51	6596.5	
677.69	9079.3	
677.88	7887.4	
678.06	6708.5	
678.25	6783.6	
678.44	8529.1	
678.62	8279.3	
678.81	6447	
678.99	7586.4	
679.18	9332.6	
679.36	8925	
679.55	7061.4	
679.73	7757	
679.92	8894.3	
680.1	8278.6	
680.29	8430.8	
680.47	7103.7	
680.66	8208.9	
680.84	9068.4	
681.03	6400.6	
681.21	7457.3	
681.4	8294.3	
681.58	8118.1	
681.77	6893.5	
681.95	6882.5	
682.14	9142.8	
682.32	9445.9	
682.51	7760.4	
682.69	6604	
682.88	8179.6	
683.06	8825.4	
683.25	7471.7	
683.43	7856	
683.62	8403.5	
683.8	8787.2	
683.99	7928.4	
684.17	7230.7	
684.36	9536.7	
684.54	8147.5	
684.73	6242.9	
684.91	6389	
685.1	8467.7	
685.28	7823.9	
685.46	7101.7	
685.65	7185.6	
685.83	8800.1	
686.02	8185.7	
686.2	6535.8	
686.39	6802	
686.57	7776.8	
686.76	9482.1	
686.94	6664.1	
687.13	6860	
687.31	8615.1	
687.5	8270.4	
687.68	6275	
687.86	7638.2	
688.05	9766.1	
688.23	7692.9	
688.42	7620.5	
688.6	6793.8	
688.79	8253.3	
688.97	8196	
689.16	7334.5	
689.34	6208.8	
689.52	8946.9	
689.71	9159.2	
689.89	7525.6	
690.08	6842.9	
690.26	8389.8	
690.45	8202.8	
690.63	7705.1	
690.81	6945.3	
691	8049.9	
691.18	8017.8	
691.37	7125.6	
691.55	9310.1	
691.74	7931.8	
691.92	10119	
692.1	7068.2	
692.29	6504.3	
692.47	8297	
692.66	7561.8	
692.84	6794.5	
693.02	7493.5	
693.21	7808.2	
693.39	8342.7	
693.58	7438.2	
693.76	6962.4	
693.94	9571.5	
694.13	9383.8	
694.31	7023.2	
694.5	8054	
694.68	8242.4	
694.86	8602.8	
695.05	7436.9	
695.23	7838.3	
695.42	8985.1	
695.6	11438	
695.78	8104.5	
695.97	7062.1	
696.15	9031.5	
696.34	8389.2	
696.52	6787.7	
696.7	7707.2	
696.89	8726.4	
697.07	8161.8	
697.25	7521.5	
697.44	9177.6	
697.62	8688.8	
697.81	9071.8	
697.99	7256	
698.17	7862.2	
698.36	8069	
698.54	8739.4	
698.72	7595.9	
698.91	6595.1	
699.09	8424.7	
699.28	8269	
699.46	7313.3	
699.64	7195.2	
699.83	8176.2	
700.01	9574.3	
700.19	8028	
700.38	6494.1	
700.56	9540.8	
700.74	8387.1	
700.93	6915.3	
701.11	7728.4	
701.29	8846.5	
701.48	10041	
701.66	7250.5	
701.84	7271	
702.03	8527.1	
702.21	9316.9	
702.39	6753.5	
702.58	7404.1	
702.76	8990.6	
702.94	9153.1	
703.13	6873.7	
703.31	9303.9	
703.49	8321.6	
703.68	9266.4	
703.86	7018.4	
704.04	8064.2	
704.23	8900.5	
704.41	9316.2	
704.59	7201.3	
704.78	8501.8	
704.96	10070	
705.14	9354.4	
705.33	7006.1	
705.51	7920.2	
705.69	8781.7	
705.87	9578.3	
706.06	8233.5	
706.24	7055.3	
706.42	9051.3	
706.61	9370.1	
706.79	8193.9	
706.97	7084.6	
707.16	8602.8	
707.34	9174.9	
707.52	8155	
707.7	7298.3	
707.89	8671.1	
708.07	8400.1	
708.25	8235.6	
708.44	8355	
708.62	8628.1	
708.8	9882.8	
708.98	8566	
709.17	7484.6	
709.35	9119.6	
709.53	9120.3	
709.72	7175.4	
709.9	7299.6	
710.08	9383.1	
710.26	9452.1	
710.45	8824.7	
710.63	7447.8	
710.81	9084.8	
710.99	9053.4	
711.18	8072.4	
711.36	7639.6	
711.54	8813.1	
711.72	9590	
711.91	7689.4	
712.09	7006.1	
712.27	8904.6	
712.45	9542.2	
712.64	7847.1	
712.82	6681.2	
713	8214.4	
713.18	8382.3	
713.37	6810.2	
713.55	7979.6	
713.73	9052	
713.91	7531.7	
714.1	6899.6	
714.28	6206	
714.46	8588.5	
714.64	7638.9	
714.83	5609.4	
715.01	6520	
715.19	7732.4	
715.37	7133.8	
715.55	6076.3	
715.74	6410.8	
715.92	8591.2	
716.1	6530.3	
716.28	7613	
716.47	6582.9	
716.65	7238.2	
716.83	7392.5	
717.01	6468.9	
717.19	6503.7	
717.38	9669.1	
717.56	7105.8	
717.74	6858	
717.92	6047	
718.1	8520.2	
718.29	7785.7	
718.47	5769.1	
718.65	6456.6	
718.83	8568	
719.01	8486.8	
719.2	5698.8	
719.38	6841.6	
719.56	8137.3	
719.74	9780.4	
719.92	6363.7	
720.11	7350.8	
720.29	8102.4	
720.47	7219.1	
720.65	5698.1	
720.83	6576.7	
721.02	7475.8	
721.2	7143.3	
721.38	6552.8	
721.56	5892.7	
721.74	6756.9	
721.92	6897.6	
722.11	7206.1	
722.29	6808.8	
722.47	8180.3	
722.65	7342	
722.83	5910.4	
723.01	6814.3	
723.2	7487.4	
723.38	7759.8	
723.56	5338.4	
723.74	6461.3	
723.92	6890	
724.1	8135.2	
724.29	5825.1	
724.47	7143.3	
724.65	6965.8	
724.83	6905.1	
725.01	5705	
725.19	6638.8	
725.37	6990.4	
725.56	7099.6	
725.74	5563	
725.92	5836.7	
726.1	6967.9	
726.28	7290.1	
726.46	6237.4	
726.64	6035.4	
726.83	7232.7	
727.01	7559.7	
727.19	5652.4	
727.37	6550.8	
727.55	7288	
727.73	7903.8	
727.91	5646.2	
728.09	5518.6	
728.28	7957.7	
728.46	8703.9	
728.64	6705	
728.82	6692.8	
729	9275.3	
729.18	8440.4	
729.36	5889.3	
729.54	8371.4	
729.72	9636.4	
729.91	7873.8	
730.09	8044.4	
730.27	6702.3	
730.45	7742	
730.63	8528.4	
730.81	7405.5	
730.99	6405.4	
731.17	8970.1	
731.35	7517.4	
731.53	6992.4	
731.71	6590.4	
731.9	8641.1	
732.08	8940.1	
732.26	6702.3	
732.44	6457.2	
732.62	9010.4	
732.8	8436.9	
732.98	7198.6	
733.16	6287.3	
733.34	8366	
733.52	7098.9	
733.7	6825.2	
733.88	7040.2	
734.07	8293.6	
734.25	7972.7	
734.43	6254.5	
734.61	7931.1	
734.79	9630.9	
734.97	7867.6	
735.15	6485.9	
735.33	6718.7	
735.51	8279.3	
735.69	7839.6	
735.87	7875.1	
736.05	6987	
736.23	8102.4	
736.41	7925.6	
736.59	6817	
736.77	6966.5	
736.95	8643.8	
737.13	8000	
737.32	6465.4	
737.5	6671.6	
737.68	9238.4	
737.86	7875.1	
738.04	6255.9	
738.22	8234.2	
738.4	7664.2	
738.58	7968	
738.76	6978.1	
738.94	5871.5	
739.12	7854.6	
739.3	7774.8	
739.48	7589.8	
739.66	7359.7	
739.84	8154.3	
740.02	8097	
740.2	5980.8	
740.38	6376.7	
740.56	8521.6	
740.74	7363.8	
740.92	7006.8	
741.1	6883.9	
741.28	7927.7	
741.46	7738.6	
741.64	6599.9	
741.82	7084.6	
742	7946.1	
742.18	7881.3	
742.36	6741.2	
742.54	6367.8	
742.72	8532.5	
742.9	7210.9	
743.08	7199.3	
743.26	5931.6	
743.44	8723.7	
743.62	8594	
743.8	7271	
743.98	6313.9	
744.16	8250.6	
744.34	7909.9	
744.52	7152.2	
744.7	7107.1	
744.88	8400.1	
745.06	7894.9	
745.24	7135.8	
745.42	7323.5	
745.6	8363.9	
745.78	8103.1	
745.96	5885.2	
746.14	6197.2	
746.32	9214.5	
746.5	8372.1	
746.68	6876.4	
746.86	6295.5	
747.03	8800.1	
747.21	7072.3	
747.39	6881.2	
747.57	6321.4	
747.75	7971.4	
747.93	8312.7	
748.11	6249.7	
748.29	6208.1	
748.47	9613.8	
748.65	7628.7	
748.83	7058.7	
749.01	6762.4	
749.19	8187.8	
749.37	7340.6	
749.55	6595.1	
749.73	6763.1	
749.91	7797.3	
750.09	7537.2	
750.26	6733.7	
750.44	6064	
750.62	7913.4	
750.8	7798	
750.98	5958.2	
751.16	6218.3	
751.34	7873.8	
751.52	7186.3	
751.7	7098.3	
751.88	5920.7	
752.06	8365.3	
752.24	8180.3	
752.42	5843.5	
752.59	6249.7	
752.77	7723.6	
752.95	9066.4	
753.13	6976.7	
753.31	6391.7	
753.49	7466.2	
753.67	7944.1	
753.85	6617.7	
754.03	6128.9	
754.21	8143.4	
754.38	8488.8	
754.56	6197.2	
754.74	5222.3	
754.92	7281.9	
755.1	7914	
755.28	5036.6	
755.46	4894.6	
755.64	8232.2	
755.82	8185.7	
755.99	4793.6	
756.17	4905.6	
756.35	5386.8	
756.53	6976.1	
756.71	3593.5	
756.89	4570.4	
757.07	6535.1	
757.25	5688.6	
757.42	5349.3	
757.6	6309.8	
757.78	6895.5	
757.96	5922.7	
758.14	5147.2	
758.32	4631.1	
758.5	5347.9	
758.67	6157.6	
758.85	4788.8	
759.03	4960.2	
759.21	6346	
759.39	5791	
759.57	4444.8	
759.75	5588.2	
759.92	7052.5	
760.1	6341.2	
760.28	6140.5	
760.46	6434.7	
760.64	6207.4	
760.82	5995.1	
760.99	6133.7	
761.17	5246.2	
761.35	7202.7	
761.53	6178	
761.71	5428.5	
761.89	6270.2	
762.06	7159.7	
762.24	6675	
762.42	5621	
762.6	5498.8	
762.78	6750.8	
762.96	6826.6	
763.13	6150.7	
763.31	5860.6	
763.49	7668.3	
763.67	6779.5	
763.85	6747.4	
764.02	7326.3	
764.2	7924.3	
764.38	7073	
764.56	5694.7	
764.74	6578.1	
764.91	8034.9	
765.09	6891.4	
765.27	5408.7	
765.45	5158.8	
765.63	7980.9	
765.8	7989.1	
765.98	4906.9	
766.16	5242.8	
766.34	6455.9	
766.52	6239.5	
766.69	6252.4	
766.87	5076.2	
767.05	6871.6	
767.23	7592.5	
767.41	5316.5	
767.58	5586.9	
767.76	7403.4	
767.94	7447.1	
768.12	5366.4	
768.29	6156.2	
768.47	6888.7	
768.65	7645.1	
768.83	4975.2	
769	6171.9	
769.18	6354.8	
769.36	7136.5	
769.54	6056.5	
769.72	4938.3	
769.89	7294.9	
770.07	7480.5	
770.25	5215.5	
770.43	6550.1	
770.6	8131.8	
770.78	8649.9	
770.96	5430.5	
771.14	5270.1	
771.31	7199.3	
771.49	6500.3	
771.67	4568.3	
771.85	4856.4	
772.02	5705	
772.2	6498.2	
772.38	5580	
772.55	5054.4	
772.73	6741.9	
772.91	6517.3	
773.09	5331.5	
773.26	5511.8	
773.44	6666.8	
773.62	6354.8	
773.8	4844.8	
773.97	4573.8	
774.15	6677.1	
774.33	6284.5	
774.5	4723.3	
774.68	5160.9	
774.86	6855.2	
775.04	6315.9	
775.21	4795.7	
775.39	4745.8	
775.57	6522.1	
775.74	7002.7	
775.92	4590.9	
776.1	4453.6	
776.27	6554.9	
776.45	7821.2	
776.63	4711.7	
776.81	4306.9	
776.98	6131.6	
777.16	7258	
777.34	4900.1	
777.51	4714.4	
777.69	6072.2	
777.87	5848.3	
778.04	4811.4	
778.22	5487.9	
778.4	5752.7	
778.57	6477.7	
778.75	4027.7	
778.93	4375.1	
779.1	5649.7	
779.28	5494	
779.46	4052.2	
779.64	4548.5	
779.81	6682.5	
779.99	7604.8	
780.17	5372.5	
780.34	5537	
780.52	6049	
780.69	6259.3	
780.87	4911.7	
781.05	4418.2	
781.22	6081.8	
781.4	6154.1	
781.58	4505.5	
781.75	3626.3	
781.93	6114.6	
782.11	5465.3	
782.28	5392.3	
782.46	4502.1	
782.64	5317.2	
782.81	6313.9	
782.99	4558.1	
783.17	4564.9	
783.34	6186.9	
783.52	5317.2	
783.69	4696.7	
783.87	5591	
784.05	5399.1	
784.22	5366.4	
784.4	5551.4	
784.58	4787.5	
784.75	6252.4	
784.93	5386.2	
785.1	4458.4	
785.28	5058.5	
785.46	6039.5	
785.63	5365.7	
785.81	4414.1	
785.99	4178.5	
786.16	5547.3	
786.34	5863.3	
786.51	4233.2	
786.69	4696.7	
786.87	5099.4	
787.04	5646.9	
787.22	4065.2	
787.39	5100.8	
787.57	5313.8	
787.75	6496.8	
787.92	5272.2	
788.1	5190.2	
788.27	5350.7	
788.45	5146.5	
788.63	4897.4	
788.8	3538.9	
788.98	5708.4	
789.15	5023	
789.33	3640.6	
789.5	4404.5	
789.68	6253.8	
789.86	6372.6	
790.03	4797	
790.21	4172.4	
790.38	6180.1	
790.56	5440.1	
790.73	4021.5	
790.91	4027.7	
791.09	5346.6	
791.26	6034	
791.44	4296	
791.61	3709.6	
791.79	5265.3	
791.96	5360.2	
792.14	3817.4	
792.32	3355.9	
792.49	5322	
792.67	5348.6	
792.84	3930.1	
793.02	3647.4	
793.19	5679	
793.37	6476.4	
793.54	3409.9	
793.72	3800.3	
793.89	6616.3	
794.07	5289.9	
794.25	4408.6	
794.42	3508.2	
794.6	6326.9	
794.77	5933	
794.95	4648.2	
795.12	4072	
795.3	5195.7	
795.47	5894.7	
795.65	4475.5	
795.82	4310.3	
796	5046.2	
796.17	7021.1	
796.35	4106.2	
796.52	4961.5	
796.7	5767.1	
796.87	5914.5	
797.05	5137	
797.22	4983.4	
797.4	5849	
797.57	6905.1	
797.75	4324.6	
797.92	4031.8	
798.1	6212.2	
798.27	5186.8	
798.45	3461.1	
798.62	3691.1	
798.8	5500.2	
798.97	6084.5	
799.15	4473.4	
799.32	4285.7	
799.5	4760.8	
799.67	5601.9	
799.85	4631.1	
800.02	3383.2	
800.2	5168.4	
800.37	5492.7	
800.55	4802.5	
800.72	4017.4	
800.9	5956.2	
801.07	6466.8	
801.25	5319.3	
801.42	4444.8	
801.6	6034	
801.77	5752.1	
801.95	4099.4	
802.12	3857.7	
802.29	5682.4	
802.47	5707	
802.64	4397.7	
802.82	3300	
802.99	5115.1	
803.17	6219	
803.34	4220.2	
803.52	3919.1	
803.69	6838.9	
803.87	4915.1	
804.04	4179.9	
804.21	4375.8	
804.39	6303.6	
804.56	5370.5	
804.74	3566.9	
804.91	4339	
805.09	5207.3	
805.26	5309.7	
805.44	3692.5	
805.61	4053.6	
805.78	5812.8	
805.96	5862	
806.13	4376.5	
806.31	4686.4	
806.48	4659.1	
806.66	5265.3	
806.83	4345.1	
807	4263.9	
807.18	5085.8	
807.35	5560.2	
807.53	4206.5	
807.7	3375.7	
807.87	6369.2	
808.05	5174.5	
808.22	4704.9	
808.4	3420.8	
808.57	5217.5	
808.74	4762.2	
808.92	3850.2	
809.09	4893.3	
809.27	5055.8	
809.44	5733.6	
809.61	3401	
809.79	3820.1	
809.96	6330.3	
810.14	5954.1	
810.31	3315.7	
810.48	4108.9	
810.66	5263.3	
810.83	5998.5	
811.01	3867.9	
811.18	4317.8	
811.35	5903.6	
811.53	4615.4	
811.7	4696	
811.87	4336.9	
812.05	5184.1	
812.22	5119.2	
812.39	3762.1	
812.57	3582.6	
812.74	5189.6	
812.92	6932.4	
813.09	4088.4	
813.26	4480.3	
813.44	6542.6	
813.61	5147.2	
813.78	3411.2	
813.96	4586.8	
814.13	5214.8	
814.3	4804.5	
814.48	4904.2	
814.65	4041.3	
814.82	6447.7	
815	4973.2	
815.17	4203.1	
815.34	5097.4	
815.52	5091.9	
815.69	5096	
815.87	4134.2	
816.04	3612.6	
816.21	5170.4	
816.38	4525.3	
816.56	4016.1	
816.73	3732.1	
816.9	6492.7	
817.08	5919.3	
817.25	3753.9	
817.42	4800.4	
817.6	4717.8	
817.77	5161.6	
817.94	4287.8	
818.12	3717.7	
818.29	4859.1	
818.46	7711.3	
818.64	3878.9	
818.81	3653.6	
818.98	4825	
819.16	7023.9	
819.33	4449.6	
819.5	4186	
819.67	5558.2	
819.85	6251.1	
820.02	4041.3	
820.19	4378.6	
820.37	5327.4	
820.54	4964.3	
820.71	4281.6	
820.88	5233.9	
821.06	5474.9	
821.23	4945.2	
821.4	4296.6	
821.58	4219.5	
821.75	5908.4	
821.92	5395	
822.09	3321.1	
822.27	3474.7	
822.44	5205.9	
822.61	5042.1	
822.79	3452.2	
822.96	6617.7	
823.13	5685.2	
823.3	4905.6	
823.48	3966.9	
823.65	3581.2	
823.82	5843.5	
823.99	4722.6	
824.17	5031.2	
824.34	3648.8	
824.51	6791.7	
824.68	5266	
824.86	3844.7	
825.03	4233.2	
825.2	5100.1	
825.37	6241.5	
825.55	3732.1	
825.72	4221.5	
825.89	6875.7	
826.06	6376.7	
826.24	4030.4	
826.41	4100.7	
826.58	6273.6	
826.75	5503.6	
826.92	3185.3	
827.1	3569.6	
827.27	8631.5	
827.44	6782.2	
827.61	3859.1	
827.79	4670.1	
827.96	4900.8	
828.13	5297.4	
828.3	4061.1	
828.47	3412.6	
828.65	5361.6	
828.82	5364.3	
828.99	5279	
829.16	4577.2	
829.34	5782.1	
829.51	5563	
829.68	4214	
829.85	4396.3	
830.02	6067.4	
830.2	5791	
830.37	3250.8	
830.54	5130.8	
830.71	6559	
830.88	5115.1	
831.05	3315.7	
831.23	3803.1	
831.4	6291.4	
831.57	7128.3	
831.74	3913	
831.91	3394.2	
832.09	5360.2	
832.26	5780.1	
832.43	4033.8	
832.6	4593.6	
832.77	5399.8	
832.94	6161	
833.12	3225.6	
833.29	3964.9	
833.46	5354.8	
833.63	7389.8	
833.8	4375.8	
833.97	4044.7	
834.15	5808.7	
834.32	5539.8	
834.49	4207.2	
834.66	4285.7	
834.83	6083.1	
835	4941.7	
835.17	3886.4	
835.35	3881.6	
835.52	5703.6	
835.69	5623	
835.86	4121.2	
836.03	3347.1	
836.2	5750.7	
836.37	5339.7	
836.55	4048.2	
836.72	3773.7	
836.89	5333.6	
837.06	5743.2	
837.23	4121.2	
837.4	4482.3	
837.57	6612.2	
837.75	7384.3	
837.92	3665.9	
838.09	3945.8	
838.26	5362.3	
838.43	6069.5	
838.6	4222.9	
838.77	3736.2	
838.94	6927.6	
839.11	6681.2	
839.29	4031.8	
839.46	3185.3	
839.63	5775.3	
839.8	5448.3	
839.97	3888.4	
840.14	3864.5	
840.31	5569.1	
840.48	5793	
840.65	3226.2	
840.82	3851.5	
841	5767.8	
841.17	5662	
841.34	3605.8	
841.51	3627.6	
841.68	5687.9	
841.85	5408	
842.02	3736.2	
842.19	3066.5	
842.36	5558.9	
842.53	5477	
842.7	3614.7	
842.87	4410	
843.05	7214.3	
843.22	5415.5	
843.39	3388.7	
843.56	3751.9	
843.73	5216.2	
843.9	5864	
844.07	5882.4	
844.24	4872.8	
844.41	8516.8	
844.58	4924.7	
844.75	3426.3	
844.92	3833.8	
845.09	5803.9	
845.26	5765	
845.43	3585.3	
845.6	3762.1	
845.77	5750.7	
845.94	5477.6	
846.12	3963.5	
846.29	4151.9	
846.46	5932.3	
846.63	5746.6	
846.8	3583.3	
846.97	4240.7	
847.14	6197.2	
847.31	5698.1	
847.48	4029	
847.65	4442	
847.82	6013.5	
847.99	6061.3	
848.16	4820.9	
848.33	4425.7	
848.5	5300.8	
848.67	6259.3	
848.84	3553.9	
849.01	3722.5	
849.18	5190.2	
849.35	4810.7	
849.52	4505.5	
849.69	3501.3	
849.86	5994.4	
850.03	6189	
850.2	3587.4	
850.37	4378.6	
850.54	6148.7	
850.71	5370.5	
850.88	4332.1	
851.05	3476.1	
851.22	5672.9	
851.39	6406.7	
851.56	3403.7	
851.73	4132.8	
851.9	5032.5	
852.07	5960.3	
852.24	3975.8	
852.41	3508.9	
852.58	5582.1	
852.75	5102.2	
852.92	4029	
853.09	3469.3	
853.26	5354.1	
853.43	6195.1	
853.6	3512.9	
853.77	3007.8	
853.94	6304.3	
854.11	5695.4	
854.28	5292.6	
854.44	3860.4	
854.61	6769.9	
854.78	5823.1	
854.95	3558.7	
855.12	4448.9	
855.29	4631.8	
855.46	6490.7	
855.63	3555.3	
855.8	4918.5	
855.97	5302.2	
856.14	6035.4	
856.31	5008	
856.48	3864.5	
856.65	5283.8	
856.82	5020.9	
856.99	3375.7	
857.16	3797.6	
857.33	6990.4	
857.49	5415.5	
857.66	3831.1	
857.83	4115.7	
858	5370.5	
858.17	5534.3	
858.34	3371	
858.51	3562.1	
858.68	6447.7	
858.85	6561.7	
859.02	4127.3	
859.19	4453.6	
859.36	5004.6	
859.52	5077.6	
859.69	3541.6	
859.86	4201.1	
860.03	5096.7	
860.2	6311.8	
860.37	3206.4	
860.54	3627	
860.71	5981.4	
860.88	6384.9	
861.05	3906.2	
861.21	4455.7	
861.38	6386.9	
861.55	4900.8	
861.72	3231.7	
861.89	3969.6	
862.06	6019.7	
862.23	6534.4	
862.4	3430.3	
862.56	3728	
862.73	5853.8	
862.9	5554.1	
863.07	4163.5	
863.24	3174.4	
863.41	4931.5	
863.58	5058.5	
863.75	3613.3	
863.91	4095.3	
864.08	6438.1	
864.25	5864	
864.42	4450.9	
864.59	5040.7	
864.76	6716.7	
864.93	5104.2	
865.09	3450.8	
865.26	3826.3	
865.43	6208.1	
865.6	6618.4	
865.77	3047.4	
865.94	3558.7	
866.1	6317.3	
866.27	6030.6	
866.44	5337.7	
866.61	3356.6	
866.78	5438	
866.95	5918.6	
867.11	3425.6	
867.28	3132	
867.45	6101.6	
867.62	5131.5	
867.79	4080.2	
867.96	3476.8	
868.12	5019.6	
868.29	6078.4	
868.46	3554.6	
868.63	4717.2	
868.8	6164.4	
868.97	5948.7	
869.13	3770.3	
869.3	3730.7	
869.47	5878.4	
869.64	6108.4	
869.81	3635.1	
869.97	3539.6	
870.14	5771.2	
870.31	6448.4	
870.48	3415.3	
870.65	4496.7	
870.81	5369.8	
870.98	5220.3	
871.15	4048.8	
871.32	3661.1	
871.48	5840.8	
871.65	6458.6	
871.82	3540.9	
871.99	3957.4	
872.16	6893.5	
872.32	6299.6	
872.49	3612.6	
872.66	3612.6	
872.83	6032.6	
872.99	5253.7	
873.16	4115.1	
873.33	3553.9	
873.5	5625.8	
873.67	5609.4	
873.83	3708.2	
874	4812	
874.17	5715.9	
874.34	6860	
874.5	4629.1	
874.67	4471.4	
874.84	6375.3	
875.01	5044.1	
875.17	5006.6	
875.34	3566.9	
875.51	5642.8	
875.68	6819.7	
875.84	4295.3	
876.01	5241.4	
876.18	5956.2	
876.34	5882.4	
876.51	3549.8	
876.68	3460.4	
876.85	5421.7	
877.01	6244.9	
877.18	5084.4	
877.35	3510.9	
877.52	5537.7	
877.68	4944.5	
877.85	3459	
878.02	3508.9	
878.18	5537.7	
878.35	5221	
878.52	2875.3	
878.69	3971	
878.85	5944.6	
879.02	5978.7	
879.19	5024.3	
879.35	3837.2	
879.52	5877.7	
879.69	6118.6	
879.86	3108.1	
880.02	4033.8	
880.19	5490.6	
880.36	6711.9	
880.52	4108.2	
880.69	4251.6	
880.86	6010.8	
881.02	6139.8	
881.19	3851.5	
881.36	3912.3	
881.52	5862	
881.69	5240.1	
881.86	3805.8	
882.02	3717.1	
882.19	6175.3	
882.36	7275.1	
882.52	3616.7	
882.69	5012.1	
882.86	5772.5	
883.02	5583.4	
883.19	4373.8	
883.36	4055	
883.52	6072.9	
883.69	6864.8	
883.86	3569.6	
884.02	3218	
884.19	6027.2	
884.36	5517.2	
884.52	4031.8	
884.69	3764.8	
884.86	5238	
885.02	6623.1	
885.19	3950.5	
885.36	4124.6	
885.52	5554.8	
885.69	5703.6	
885.86	5132.2	
886.02	4571.7	
886.19	5991	
886.35	5358.2	
886.52	3899.3	
886.69	4969.1	
886.85	5057.8	
887.02	6350.8	
887.19	6350.8	
887.35	6350.8	
887.52	6350.8	
887.68	6350.8	
887.85	6350.8	
888.02	6350.8	
888.18	6350.8	
888.35	6350.8	
888.51	6350.8	
888.68	6350.8	
888.85	6350.8	
889.01	6350.8	
889.18	6350.8	
889.35	6350.8	
889.51	6350.8	
889.68	6350.8	
889.84	6350.8	
890.01	6350.8	
890.17	6350.8	
890.34	6350.8	
890.51	6350.8	
890.67	6350.8	
890.84	6350.8	
891	6350.8	
891.17	6350.8	
891.34	6350.8	
891.5	6350.8	
891.67	6350.8	
891.83	6350.8	
892	6350.8	
892.16	6350.8	
892.33	6350.8	
892.5	6350.8	
892.66	6350.8	
892.83	6350.8	
892.99	6350.8	
893.16	6350.8	
893.32	6350.8	
893.49	6350.8	
893.65	6350.8	
893.82	6350.8	
893.99	6350.8	
894.15	6350.8	
894.32	6350.8	
894.48	6350.8	
894.65	6350.8	
894.81	6350.8	
894.98	6350.8	
895.14	6350.8	
895.31	6350.8	
895.47	6350.8	
895.64	6350.8	
895.81	6350.8	
895.97	6350.8	
896.14	6350.8	
896.3	6350.8	
896.47	6350.8	
896.63	6350.8	
896.8	6350.8	
896.96	6350.8	
897.13	6350.8	
897.29	6350.8	
897.46	6350.8	
897.62	6350.8	
897.79	6350.8	
897.95	6350.8	
898.12	6350.8	
898.28	6350.8	
898.45	6350.8	
898.61	6350.8	
898.78	6350.8	
898.94	6350.8	
899.11	6350.8	
899.27	6350.8	
899.44	6350.8	
899.6	6350.8	
899.77	6350.8	
899.93	6350.8	
900.1	6350.8	
900.26	6350.8	
900.43	6350.8	
900.59	6350.8	
900.76	6350.8	
900.92	6350.8	
901.09	6350.8	
901.25	6350.8	
901.42	6350.8	
901.58	6350.8	
901.75	6350.8	
901.91	6350.8	
902.07	6350.8	
902.24	6350.8	
902.4	6350.8	
902.57	6350.8	
902.73	6350.8	
902.9	6350.8	
903.06	6350.8	
903.23	6350.8	
903.39	6350.8	
903.56	6350.8	
903.72	6350.8	
903.88	6350.8	
904.05	6350.8	
904.21	6350.8	
904.38	6350.8	
904.54	6350.8	
904.71	6350.8	
904.87	6350.8	
905.03	6350.8	
905.2	6350.8	
905.36	6350.8	
905.53	6350.8	
905.69	6350.8	
905.86	6350.8	
906.02	6350.8	
906.18	6350.8	
906.35	6350.8	
906.51	6350.8	
906.68	6350.8	
906.84	6350.8	
907.01	6350.8	
907.17	6350.8	
907.33	6350.8	
907.5	6350.8	
907.66	6350.8	
907.83	6350.8	
907.99	6350.8	
908.15	6350.8	
908.32	6350.8	
908.48	6350.8	
908.65	6350.8	
908.81	6350.8	
908.97	6350.8	
909.14	6350.8	
909.3	6350.8	
909.47	6350.8	
909.63	6350.8	
909.79	6350.8	
909.96	6350.8	
910.12	6350.8	
910.28	6350.8	
910.45	6350.8	
910.61	6350.8	
910.78	6350.8	
910.94	6350.8	
911.1	6350.8	
911.27	6350.8	
911.43	6350.8	
911.59	6350.8	
911.76	6350.8	
911.92	6350.8	
912.08	6350.8	
912.25	6350.8	
912.41	6350.8	
912.57	6350.8	
912.74	6350.8	
912.9	6350.8	
913.07	6350.8	
913.23	6350.8	
913.39	6350.8	
913.56	6350.8	
913.72	6350.8	
913.88	6350.8	
914.05	6350.8	
914.21	6350.8	
914.37	6350.8	
914.54	6350.8	
914.7	6350.8	
914.86	6350.8	
915.03	6350.8	
915.19	6350.8	
