Wavelength	Intensities	
nm	a.u.	
179.22	1729.7	
179.44	1725.4	
179.65	1733.9	
179.86	1716.9	
180.08	1727.1	
180.29	4162.8	
180.51	3068.5	
180.72	5121.3	
180.94	5734.3	
181.15	2842.6	
181.37	2805	
181.58	4922.6	
181.79	5175.9	
182.01	2944.3	
182.22	3129.3	
182.44	5145.9	
182.65	4405.2	
182.87	3830.4	
183.08	3472.7	
183.29	5425.1	
183.51	4520.5	
183.72	3130	
183.94	4433.9	
184.15	4925.4	
184.37	4890.5	
184.58	2864.4	
184.79	3691.1	
185.01	4577.2	
185.22	5209.3	
185.44	3895.2	
185.65	3370.3	
185.86	4872.8	
186.08	4494.6	
186.29	2779.8	
186.51	2969.6	
186.72	4613.4	
186.94	5326.1	
187.15	3394.8	
187.36	3442.6	
187.58	6701.6	
187.79	5012.1	
188.01	3604.4	
188.22	5354.1	
188.43	5879.7	
188.65	5178.6	
188.86	2940.9	
189.08	3473.4	
189.29	4734.2	
189.5	4674.1	
189.72	3207.1	
189.93	3248.8	
190.15	5343.2	
190.36	6184.2	
190.57	3545.7	
190.79	3425.6	
191	5410.7	
191.22	5345.2	
191.43	3495.2	
191.64	3016.7	
191.86	5553.4	
192.07	5403.2	
192.29	3040.6	
192.5	3161.4	
192.71	5330.9	
192.93	4720.6	
193.14	3169.6	
193.35	3265.1	
193.57	4702.8	
193.78	5374.6	
194	2637.8	
194.21	3090.4	
194.42	4515.8	
194.64	4917.2	
194.85	3461.1	
195.07	3962.1	
195.28	4988.2	
195.49	4352.6	
195.71	4144.4	
195.92	3020.1	
196.13	5102.9	
196.35	5095.3	
196.56	4413.4	
196.78	3429.7	
196.99	6136.4	
197.2	5745.9	
197.42	3839.9	
197.63	3459	
197.84	4470.7	
198.06	5052.3	
198.27	3240.6	
198.48	4173.1	
198.7	4713.1	
198.91	4926	
199.13	3489.7	
199.34	3477.5	
199.55	5349.3	
199.77	4335.5	
199.98	3090.4	
200.19	3519.1	
200.41	4869.4	
200.62	4612	
200.83	3573	
201.05	3867.9	
201.26	4874.8	
201.47	4677.6	
201.69	3152.5	
201.9	3020.1	
202.11	4914.4	
202.33	5696.1	
202.54	3279.5	
202.76	3696.6	
202.97	4987.5	
203.18	5055.1	
203.4	3551.2	
203.61	3627.6	
203.82	4937	
204.04	4678.9	
204.25	3467.9	
204.46	3396.9	
204.68	4950.6	
204.89	5117.2	
205.1	3439.2	
205.32	3005.7	
205.53	5114.5	
205.74	5338.4	
205.96	2562.7	
206.17	3513.6	
206.38	5202.5	
206.6	5287.9	
206.81	3952.6	
207.02	3248.1	
207.24	5107.6	
207.45	5435.3	
207.66	3377.1	
207.88	2938.8	
208.09	4993.6	
208.3	4900.8	
208.52	3091.8	
208.73	3397.6	
208.94	4950.6	
209.15	5467.4	
209.37	3332	
209.58	3724.6	
209.79	5304.9	
210.01	4748.6	
210.22	2755.2	
210.43	2922.5	
210.65	4869.4	
210.86	5229.1	
211.07	3349.8	
211.29	3078.8	
211.5	5156.1	
211.71	4829.8	
211.93	3072.6	
212.14	3127.2	
212.35	4891.9	
212.56	4980	
212.78	3500.7	
212.99	2897.2	
213.2	5664.7	
213.42	4751.3	
213.63	3164.1	
213.84	3330	
214.06	4421.6	
214.27	4537.6	
214.48	3343.7	
214.69	3525.2	
214.91	5448.3	
215.12	5477.6	
215.33	3515	
215.55	3820.8	
215.76	5861.3	
215.97	5168.4	
216.18	3422.2	
216.4	3391.4	
216.61	4630.5	
216.82	5274.2	
217.04	3107.5	
217.25	3222.1	
217.46	5469.4	
217.67	5248.3	
217.89	2853.5	
218.1	2873.3	
218.31	5010	
218.53	5063.9	
218.74	3260.4	
218.95	3153.2	
219.16	4888.5	
219.38	5623.7	
219.59	3171.6	
219.8	3751.2	
220.01	6115.2	
220.23	4904.2	
220.44	4048.8	
220.65	3080.1	
220.87	4892.6	
221.08	5414.8	
221.29	2919.7	
221.5	3745.1	
221.72	6345.3	
221.93	4659.8	
222.14	3564.1	
222.35	4058.4	
222.57	4946.5	
222.78	5249.6	
222.99	3366.2	
223.2	3524.6	
223.42	5214.8	
223.63	5249.6	
223.84	2624.1	
224.05	2635.1	
224.27	6032	
224.48	5575.9	
224.69	4064.5	
224.9	3508.9	
225.12	5055.8	
225.33	4890.5	
225.54	2843.9	
225.75	3152.5	
225.97	4560.1	
226.18	4864.6	
226.39	3353.9	
226.6	3168.9	
226.82	4698.7	
227.03	4588.8	
227.24	3488.4	
227.45	3007.1	
227.67	5213.4	
227.88	5600.5	
228.09	3827	
228.3	3829	
228.52	5253	
228.73	4863.2	
228.94	3227.6	
229.15	2915.6	
229.36	4878.9	
229.58	4823	
229.79	3283.6	
230	3767.6	
230.21	5728.9	
230.43	4940.4	
230.64	3439.2	
230.85	3629.7	
231.06	5302.2	
231.28	5266.7	
231.49	2938.8	
231.7	3393.5	
231.91	5216.2	
232.12	4911	
232.34	3033	
232.55	3396.2	
232.76	5450.3	
232.97	5030.5	
233.18	3125.9	
233.4	3497.9	
233.61	5145.2	
233.82	4699.4	
234.03	3203.7	
234.25	3226.2	
234.46	6516	
234.67	4905.6	
234.88	3525.2	
235.09	3133.4	
235.31	5150.6	
235.52	4811.4	
235.73	3438.5	
235.94	2977.1	
236.15	4701.5	
236.37	5804.6	
236.58	3112.9	
236.79	3357.3	
237	5167.7	
237.21	4496.7	
237.43	3534.1	
237.64	2876	
237.85	8180.3	
238.06	4564.9	
238.27	3575.8	
238.48	2975.7	
238.7	5205.3	
238.91	4786.8	
239.12	3310.2	
239.33	3430.3	
239.54	4745.8	
239.76	4841.4	
239.97	3354.6	
240.18	3347.1	
240.39	5859.9	
240.6	5091.3	
240.82	3544.4	
241.03	2909.5	
241.24	4891.2	
241.45	5603.9	
241.66	3064.4	
241.87	3607.8	
242.09	5537	
242.3	5758.2	
242.51	3654.9	
242.72	3344.3	
242.93	5231.2	
243.14	4836.6	
243.36	3855.6	
243.57	4058.4	
243.78	5558.2	
243.99	5175.9	
244.2	3358.7	
244.41	3031	
244.63	4560.8	
244.84	5127.4	
245.05	3631	
245.26	3351.8	
245.47	5158.8	
245.68	5305.6	
245.9	4346.5	
246.11	3523.2	
246.32	4774.5	
246.53	5196.4	
246.74	5224.4	
246.95	2876.7	
247.16	4569	
247.38	4955.4	
247.59	2878.8	
247.8	3336.1	
248.01	4658.4	
248.22	4851.6	
248.43	3062.4	
248.64	3246	
248.86	4489.8	
249.07	4714.4	
249.28	3017.3	
249.49	3485.6	
249.7	5340.4	
249.91	5418.9	
250.12	2870.6	
250.34	2936.8	
250.55	5005.9	
250.76	4941.7	
250.97	3497.9	
251.18	3521.8	
251.39	5418.9	
251.6	5087.2	
251.81	3528.7	
252.03	3484.3	
252.24	4732.9	
252.45	5272.8	
252.66	3005.7	
252.87	3631	
253.08	4924.7	
253.29	6145.3	
253.5	2985.3	
253.72	3995.6	
253.93	4815.5	
254.14	5634	
254.35	3162.7	
254.56	3309.5	
254.77	5070.1	
254.98	4595.6	
255.19	3236.5	
255.41	3988.1	
255.62	5047.6	
255.83	5438.7	
256.04	3568.9	
256.25	3413.3	
256.46	5866.7	
256.67	4671.4	
256.88	3431	
257.09	3775.8	
257.31	4615.4	
257.52	4666	
257.73	4266.6	
257.94	3224.2	
258.15	4845.5	
258.36	4905.6	
258.57	3908.2	
258.78	2620.7	
258.99	5267.4	
259.2	4784.7	
259.41	3208.5	
259.63	3343.7	
259.84	5618.9	
260.05	5879	
260.26	4074.1	
260.47	3199.6	
260.68	5380.7	
260.89	4836.6	
261.1	3809.9	
261.31	3067.9	
261.52	5369.8	
261.73	5662	
261.95	4104.8	
262.16	3605.8	
262.37	5481.7	
262.58	5537.7	
262.79	4065.9	
263	3252.2	
263.21	4939.7	
263.42	4808.6	
263.63	3531.4	
263.84	3209.2	
264.05	5271.5	
264.26	5608	
264.47	3936.2	
264.69	3616.7	
264.9	5507	
265.11	5045.5	
265.32	3201	
265.53	3199.6	
265.74	5008.6	
265.95	4405.2	
266.16	3443.3	
266.37	3732.8	
266.58	5000.5	
266.79	4771.8	
267	3177.8	
267.21	2996.2	
267.42	4554.7	
267.63	4898.7	
267.84	3289.7	
268.06	2942.9	
268.27	5282.4	
268.48	5496.7	
268.69	3301.3	
268.9	3819.5	
269.11	5458.5	
269.32	4439.3	
269.53	3414.6	
269.74	3112.2	
269.95	5080.3	
270.16	4427.7	
270.37	3351.2	
270.58	3801	
270.79	4863.2	
271	5355.4	
271.21	3537.5	
271.42	3375.7	
271.63	5005.9	
271.84	4569	
272.05	2739.5	
272.26	3018.7	
272.47	4900.8	
272.68	5073.5	
272.89	3239.9	
273.11	3674.1	
273.32	4711	
273.53	5623.7	
273.74	3570.3	
273.95	3496.6	
274.16	5377.3	
274.37	4903.5	
274.58	3676.8	
274.79	2983.9	
275	5029.1	
275.21	5423	
275.42	4343.7	
275.63	3716.4	
275.84	5154.7	
276.05	6227.2	
276.26	3510.9	
276.47	3372.3	
276.68	4810.7	
276.89	5735	
277.1	3734.8	
277.31	3003.7	
277.52	5123.3	
277.73	5356.1	
277.94	2987.3	
278.15	3273.3	
278.36	5074.9	
278.57	4651.6	
278.78	3222.8	
278.99	3580.5	
279.2	4670.1	
279.41	4592.9	
279.62	4182	
279.83	3086.3	
280.04	5872.9	
280.25	4554	
280.46	4128	
280.67	3368.9	
280.88	4631.8	
281.09	5390.9	
281.3	3491.8	
281.51	4366.3	
281.72	4717.8	
281.93	5294	
282.14	3227.6	
282.35	3372.3	
282.56	5328.1	
282.77	5335.6	
282.98	3281.5	
283.19	3907.5	
283.4	6363	
283.61	4890.5	
283.82	3048.1	
284.03	4100	
284.24	5020.3	
284.45	5455.8	
284.66	4087.1	
284.87	3896.6	
285.08	5365	
285.29	5504.3	
285.5	2935.4	
285.71	3272.7	
285.92	5420.3	
286.12	5956.2	
286.33	4076.8	
286.54	3307.5	
286.75	5314.5	
286.96	4773.1	
287.17	3063.8	
287.38	3973.1	
287.59	4703.5	
287.8	4628.4	
288.01	3304.7	
288.22	3702.7	
288.43	5315.2	
288.64	4489.1	
288.85	3840.6	
289.06	3705.5	
289.27	5271.5	
289.48	5599.8	
289.69	4070	
289.9	3729.4	
290.11	5491.3	
290.32	4689.8	
290.53	3860.4	
290.74	3622.2	
290.94	5287.2	
291.15	5281	
291.36	3175	
291.57	3654.9	
291.78	4800.4	
291.99	4463.2	
292.2	3074	
292.41	3564.1	
292.62	5388.9	
292.83	5178.6	
293.04	4382.7	
293.25	3104	
293.46	4855.1	
293.67	5369.1	
293.88	3147	
294.09	3068.5	
294.29	4601.1	
294.5	5042.8	
294.71	3402.4	
294.92	3211.9	
295.13	4775.2	
295.34	5872.9	
295.55	2876	
295.76	2888.3	
295.97	5226.4	
296.18	5891.3	
296.39	3047.4	
296.6	3170.3	
296.81	4984.8	
297.01	5267.4	
297.22	3331.4	
297.43	3164.8	
297.64	4691.9	
297.85	4648.9	
298.06	2705.4	
298.27	2939.5	
298.48	4884.4	
298.69	4713.1	
298.9	3452.2	
299.11	3099.9	
299.31	4564.9	
299.52	4585.4	
299.73	3650.2	
299.94	3609.9	
300.15	4958.8	
300.36	4691.9	
300.57	3558.7	
300.78	3551.2	
300.99	4801.8	
301.2	5020.3	
301.4	3172.3	
301.61	3395.5	
301.82	5224.4	
302.03	5288.5	
302.24	3791.5	
302.45	2996.9	
302.66	5162.2	
302.87	5459.9	
303.08	3207.8	
303.29	4212	
303.49	4811.4	
303.7	4917.2	
303.91	2874.7	
304.12	4003.1	
304.33	4537.6	
304.54	4999.1	
304.75	3210.5	
304.96	3054.9	
305.16	5152.7	
305.37	5801.9	
305.58	2889	
305.79	2914.9	
306	5201.8	
306.21	4482.3	
306.42	3213.3	
306.63	4646.8	
306.83	4771.8	
307.04	5332.9	
307.25	3469.3	
307.46	3474.7	
307.67	4386.7	
307.88	5247.6	
308.09	3164.8	
308.29	3241.9	
308.5	4997.7	
308.71	5376.6	
308.92	3327.3	
309.13	3085.6	
309.34	4912.4	
309.55	4834.6	
309.75	3891.8	
309.96	3588	
310.17	5244.2	
310.38	4670.1	
310.59	3747.1	
310.8	3075.4	
311.01	4826.4	
311.21	4862.6	
311.42	3102	
311.63	3143.6	
311.84	4735.6	
312.05	4997.7	
312.26	3561.4	
312.46	3850.2	
312.67	4869.4	
312.88	4575.8	
313.09	3069.2	
313.3	3018	
313.51	5524.7	
313.71	5822.4	
313.92	3167.5	
314.13	3252.9	
314.34	5150.6	
314.55	4852.3	
314.76	3846.8	
314.96	3424.2	
315.17	5019.6	
315.38	5128.8	
315.59	3129.3	
315.8	2990.7	
316.01	5572.5	
316.21	5595.1	
316.42	3035.8	
316.63	3380.5	
316.84	4777.2	
317.05	5461.2	
317.26	3624.2	
317.46	3239.2	
317.67	4881	
317.88	5227.8	
318.09	3910.9	
318.3	2884.2	
318.5	4778.6	
318.71	5110.4	
318.92	4837.3	
319.13	3603.1	
319.34	5283.1	
319.54	5441.5	
319.75	2929.3	
319.96	2812.5	
320.17	5156.1	
320.38	5414.8	
320.58	2875.3	
320.79	3377.1	
321	5390.9	
321.21	5499.5	
321.42	3390.1	
321.62	2873.3	
321.83	4687.1	
322.04	4941.1	
322.25	3300.6	
322.46	3076	
322.66	5043.5	
322.87	5197.1	
323.08	3713.7	
323.29	3052.2	
323.5	5817.6	
323.7	4564.2	
323.91	4077.5	
324.12	3671.3	
324.33	5027.8	
324.53	5243.5	
324.74	3563.5	
324.95	3751.9	
325.16	4487.1	
325.37	4799.8	
325.57	3080.1	
325.78	3115.6	
325.99	5073.5	
326.2	4524.6	
326.4	4298.7	
326.61	2884.2	
326.82	4928.1	
327.03	5039.4	
327.24	4272.1	
327.44	3990.8	
327.65	5171.1	
327.86	4270.7	
328.07	3585.3	
328.27	3072.6	
328.48	5493.3	
328.69	4550.6	
328.9	4312.3	
329.1	3289.7	
329.31	4835.9	
329.52	5561.6	
329.73	3171.6	
329.93	3422.2	
330.14	4980	
330.35	5122.7	
330.56	4928.8	
330.76	3753.9	
330.97	4810	
331.18	5039.4	
331.39	3412.6	
331.59	2868.5	
331.8	5390.3	
332.01	5465.3	
332.22	3229.6	
332.42	3599.6	
332.63	5039.4	
332.84	4657.1	
333.05	3452.2	
333.25	3220.8	
333.46	4747.9	
333.67	4955.4	
333.88	3281.5	
334.08	3556	
334.29	6378.1	
334.5	5427.1	
334.7	3076.7	
334.91	4261.1	
335.12	4607.2	
335.33	5253	
335.53	3435.8	
335.74	4857.8	
335.95	4776.5	
336.16	4610.7	
336.36	3433.1	
336.57	3843.4	
336.78	4560.1	
336.98	5339.7	
337.19	4070	
337.4	3371.6	
337.61	5844.2	
337.81	4554	
338.02	3192.1	
338.23	3969.6	
338.43	5543.9	
338.64	4657.8	
338.85	3143.6	
339.05	3955.3	
339.26	5592.3	
339.47	4530.8	
339.68	3138.2	
339.88	4493.9	
340.09	5177.9	
340.3	5318.6	
340.5	3600.3	
340.71	2876.7	
340.92	4605.9	
341.13	5489.2	
341.33	3002.3	
341.54	3631	
341.75	5135.6	
341.95	4836.6	
342.16	3464.5	
342.37	3738.9	
342.57	4700.1	
342.78	4921.3	
342.99	3777.8	
343.19	2878.1	
343.4	5279.7	
343.61	5136.3	
343.81	3334.1	
344.02	3097.9	
344.23	5309	
344.43	5601.2	
344.64	3838.6	
344.85	3680.9	
345.06	5126.7	
345.26	5408.7	
345.47	3590.1	
345.68	4138.9	
345.88	4450.2	
346.09	5351.3	
346.3	3642.7	
346.5	2808.4	
346.71	4927.4	
346.92	4804.5	
347.12	2956.6	
347.33	3577.8	
347.54	5376.6	
347.74	5716.6	
347.95	3545	
348.16	2757.2	
348.36	4833.2	
348.57	4665.3	
348.78	3606.5	
348.98	3828.3	
349.19	4873.5	
349.39	4497.3	
349.6	2950.4	
349.81	3267.2	
350.01	5186.8	
350.22	4739	
350.43	3497.2	
350.63	4114.4	
350.84	4969.7	
351.05	4782.7	
351.25	3188.7	
351.46	2940.9	
351.67	5414.8	
351.87	4757.4	
352.08	3443.3	
352.29	3812	
352.49	5376.6	
352.7	5428.5	
352.9	3137.5	
353.11	3840.6	
353.32	5857.9	
353.52	4894.6	
353.73	3076.7	
353.94	3861.1	
354.14	5253.7	
354.35	5104.9	
354.55	3258.3	
354.76	3566.2	
354.97	5244.8	
355.17	5024.3	
355.38	3093.1	
355.59	4123.9	
355.79	4824.3	
356	5116.5	
356.2	3583.3	
356.41	3212.6	
356.62	4647.5	
356.82	5070.8	
357.03	3958.7	
357.24	3482.9	
357.44	4851.6	
357.65	4940.4	
357.85	4452.3	
358.06	3715	
358.27	4722.6	
358.47	4859.1	
358.68	3186.6	
358.88	3865.2	
359.09	5349.3	
359.3	5607.3	
359.5	4424.3	
359.71	4001.7	
359.91	5980.8	
360.12	5493.3	
360.33	3951.9	
360.53	4282.3	
360.74	5001.1	
360.94	5066	
361.15	4115.1	
361.36	3455.6	
361.56	5687.2	
361.77	5224.4	
361.97	4502.1	
362.18	3684.3	
362.38	5707	
362.59	4936.3	
362.8	3452.9	
363	3454.9	
363.21	4881.7	
363.41	5305.6	
363.62	3928.7	
363.83	4764.3	
364.03	5480.4	
364.24	6225.8	
364.44	4884.4	
364.65	4809.3	
364.85	5325.4	
365.06	5128.8	
365.27	3766.9	
365.47	3846.1	
365.68	6103.6	
365.88	5362.3	
366.09	4115.1	
366.29	3845.4	
366.5	5593	
366.71	5872.2	
366.91	4890.5	
367.12	4310.3	
367.32	6481.1	
367.53	5778	
367.73	4304.1	
367.94	5119.2	
368.14	5775.3	
368.35	6492.1	
368.56	4300.7	
368.76	4091.8	
368.97	5921.4	
369.17	7180.9	
369.38	3842.7	
369.58	4103.4	
369.79	5174.5	
369.99	6225.8	
370.2	4957.4	
370.4	4167.6	
370.61	5724.1	
370.82	6731.7	
371.02	4132.8	
371.23	3593.5	
371.43	5170.4	
371.64	6296.8	
371.84	4260.5	
372.05	5046.9	
372.25	7348.8	
372.46	6047	
372.66	4322.6	
372.87	4330.8	
373.07	6096.1	
373.28	7494.2	
373.48	5107.6	
373.69	4916.5	
373.9	5856.5	
374.1	5934.3	
374.31	5202.5	
374.51	4757.4	
374.72	6544.6	
374.92	5671.5	
375.13	5437.4	
375.33	4766.3	
375.54	6326.9	
375.74	5863.3	
375.95	4911	
376.15	5893.4	
376.36	6457.2	
376.56	6403.3	
376.77	5072.8	
376.97	5339.7	
377.18	7414.3	
377.38	6533	
377.59	5681.7	
377.79	4776.5	
378	6478.4	
378.2	6851.1	
378.41	4922.6	
378.61	4856.4	
378.82	6959	
379.02	6345.3	
379.23	5173.9	
379.43	5980.1	
379.64	7120.8	
379.84	6809.5	
380.05	4945.8	
380.25	4881	
380.46	6859.3	
380.66	6568.5	
380.87	5959.6	
381.07	6227.2	
381.28	7319.4	
381.48	6950.1	
381.69	4943.8	
381.89	5023.7	
382.1	6012.8	
382.3	6935.1	
382.51	5801.9	
382.71	6549.4	
382.91	6808.1	
383.12	7265.5	
383.32	5228.5	
383.53	5353.4	
383.73	6629.3	
383.94	6537.8	
384.14	5410.7	
384.35	4582	
384.55	6415.6	
384.76	6800.6	
384.96	5253.7	
385.17	5413.5	
385.37	6775.4	
385.58	6142.5	
385.78	5433.3	
385.98	4550.6	
386.19	6266.8	
386.39	6677.1	
386.6	4910.3	
386.8	5134.3	
387.01	6739.2	
387.21	6817.7	
387.42	5552	
387.62	5961	
387.83	6291.4	
388.03	6713.2	
388.23	5322	
388.44	5888.6	
388.64	6210.8	
388.85	6347.3	
389.05	5753.4	
389.26	6252.4	
389.46	7936.6	
389.67	7507.2	
389.87	5877	
390.07	5973.9	
390.28	6943.3	
390.48	6544.6	
390.69	5354.8	
390.89	5618.3	
391.1	6773.3	
391.3	7492.8	
391.5	6496.8	
391.71	6965.1	
391.91	7375.4	
392.12	8023.9	
392.32	6607.4	
392.53	5952.1	
392.73	6989	
392.93	7101.7	
393.14	5803.3	
393.34	6363.7	
393.55	7295.5	
393.75	7019.8	
393.95	5717.2	
394.16	5580	
394.36	6808.8	
394.57	7287.4	
394.77	5301.5	
394.98	5580.7	
395.18	6794.5	
395.38	6983.6	
395.59	6414.2	
395.79	5595.7	
396	7152.9	
396.2	7604.1	
396.4	6520	
396.61	6485.9	
396.81	7721.5	
397.02	7288.7	
397.22	6933.1	
397.42	6960.4	
397.63	7963.2	
397.83	7475.1	
398.04	5980.8	
398.24	6614.3	
398.44	7667.6	
398.65	7212.3	
398.85	6072.2	
399.05	6164.4	
399.26	7644.4	
399.46	8896.4	
399.67	6464.8	
399.87	6237.4	
400.07	7884.7	
400.28	8176.9	
400.48	6463.4	
400.69	7372.7	
400.89	8538	
401.09	8872.5	
401.3	6657.9	
401.5	7452.6	
401.7	9298.5	
401.91	9439.8	
402.11	7058	
402.32	7114	
402.52	8845.9	
402.72	8570.1	
402.93	7369.3	
403.13	6307.1	
403.33	9295.7	
403.54	7911.3	
403.74	6850.5	
403.94	7309.2	
404.15	7885.4	
404.35	8754.4	
404.56	6389.7	
404.76	7926.3	
404.96	8226	
405.17	7982.3	
405.37	7135.1	
405.57	6978.1	
405.78	8609	
405.98	7916.1	
406.18	6910.5	
406.39	7642.3	
406.59	8699.8	
406.79	8322.9	
407	6779.5	
407.2	6675	
407.4	8717.5	
407.61	8791.2	
407.81	6778.1	
408.01	8440.4	
408.22	7902.4	
408.42	9673.2	
408.62	8100.4	
408.83	7863.5	
409.03	8980.3	
409.23	9109.4	
409.44	8271.7	
409.64	8470.4	
409.84	10470	
410.05	10584	
410.25	8911.4	
410.45	8709.3	
410.66	10667	
410.86	12222	
411.06	9675.3	
411.27	9366	
411.47	12642	
411.67	10968	
411.88	9643.9	
412.08	10339	
412.28	11633	
412.49	12168	
412.69	10065	
412.89	10193	
413.09	12090	
413.3	12209	
413.5	10548	
413.7	10212	
413.91	11600	
414.11	12589	
414.31	10479	
414.52	11069	
414.72	12179	
414.92	12319	
415.12	10609	
415.33	11049	
415.53	12845	
415.73	12846	
415.94	11357	
416.14	10892	
416.34	12151	
416.55	11832	
416.75	11989	
416.95	11710	
417.15	13173	
417.36	13354	
417.56	12393	
417.76	11869	
417.97	13414	
418.17	13334	
418.37	11386	
418.57	11758	
418.78	13322	
418.98	12941	
419.18	12417	
419.38	12180	
419.59	13037	
419.79	12430	
419.99	11531	
420.2	11794	
420.4	13265	
420.6	13222	
420.8	11400	
421.01	11193	
421.21	13411	
421.41	13381	
421.61	11761	
421.82	11628	
422.02	13229	
422.22	13633	
422.42	12304	
422.63	11547	
422.83	13154	
423.03	14207	
423.23	11850	
423.44	11222	
423.64	13108	
423.84	12544	
424.04	11534	
424.25	11092	
424.45	13557	
424.65	13490	
424.85	10961	
425.06	11414	
425.26	13778	
425.46	12815	
425.66	11613	
425.87	11406	
426.07	13394	
426.27	13138	
426.47	11686	
426.67	10942	
426.88	13572	
427.08	13213	
427.28	12040	
427.48	10955	
427.69	12184	
427.89	12702	
428.09	11740	
428.29	10920	
428.5	13275	
428.7	13033	
428.9	11112	
429.1	11411	
429.3	13032	
429.51	13364	
429.71	11082	
429.91	12141	
430.11	13422	
430.31	13811	
430.52	11817	
430.72	12284	
430.92	14010	
431.12	13734	
431.32	11865	
431.53	11912	
431.73	13054	
431.93	14278	
432.13	11603	
432.33	11710	
432.54	13377	
432.74	13637	
432.94	11845	
433.14	12544	
433.34	13869	
433.55	13837	
433.75	12654	
433.95	14422	
434.15	13975	
434.35	13947	
434.56	12044	
434.76	12195	
434.96	14268	
435.16	14769	
435.36	12292	
435.56	13562	
435.77	14386	
435.97	14521	
436.17	14384	
436.37	13685	
436.57	14430	
436.78	14800	
436.98	14661	
437.18	14055	
437.38	15511	
437.58	14637	
437.78	14320	
437.99	13238	
438.19	14972	
438.39	16201	
438.59	13249	
438.79	12538	
438.99	15497	
439.2	14468	
439.4	12247	
439.6	12352	
439.8	14578	
440	15438	
440.2	13383	
440.4	13501	
440.61	15242	
440.81	15827	
441.01	13391	
441.21	14607	
441.41	16696	
441.61	15950	
441.81	15199	
442.02	15933	
442.22	17094	
442.42	16408	
442.62	14371	
442.82	14072	
443.02	16916	
443.22	16309	
443.43	14807	
443.63	14177	
443.83	15825	
444.03	15909	
444.23	15693	
444.43	15129	
444.63	16804	
444.83	17581	
445.04	15038	
445.24	15993	
445.44	16777	
445.64	17037	
445.84	15201	
446.04	15621	
446.24	16238	
446.44	17025	
446.65	14285	
446.85	14924	
447.05	15681	
447.25	16757	
447.45	14653	
447.65	14250	
447.85	16055	
448.05	15484	
448.25	15191	
448.46	15139	
448.66	16378	
448.86	15791	
449.06	14395	
449.26	15072	
449.46	16799	
449.66	15894	
449.86	15276	
450.06	14957	
450.26	16169	
450.47	16924	
450.67	14979	
450.87	15634	
451.07	16905	
451.27	17063	
451.47	14803	
451.67	15768	
451.87	16851	
452.07	17262	
452.27	15491	
452.47	15102	
452.67	16753	
452.88	17437	
453.08	14737	
453.28	16623	
453.48	18342	
453.68	16754	
453.88	15620	
454.08	15528	
454.28	17662	
454.48	17320	
454.68	15964	
454.88	16300	
455.08	17473	
455.28	18006	
455.48	15077	
455.68	16311	
455.89	18561	
456.09	18431	
456.29	16039	
456.49	16549	
456.69	18794	
456.89	18079	
457.09	17114	
457.29	17730	
457.49	18703	
457.69	18938	
457.89	17569	
458.09	16739	
458.29	19210	
458.49	19611	
458.69	18189	
458.89	17796	
459.09	20418	
459.29	20353	
459.49	17841	
459.69	18811	
459.9	19871	
460.1	20157	
460.3	17705	
460.5	17740	
460.7	20142	
460.9	19784	
461.1	17570	
461.3	18762	
461.5	20933	
461.7	20427	
461.9	18865	
462.1	18727	
462.3	20626	
462.5	21310	
462.7	18972	
462.9	19331	
463.1	22270	
463.3	22428	
463.5	19345	
463.7	21107	
463.9	21641	
464.1	21982	
464.3	21003	
464.5	20470	
464.7	22689	
464.9	23150	
465.1	22104	
465.3	21459	
465.5	22894	
465.7	23428	
465.9	22223	
466.1	20980	
466.3	23721	
466.5	23042	
466.7	23251	
466.9	21532	
467.1	23652	
467.3	24245	
467.5	23180	
467.7	22261	
467.9	24694	
468.1	25432	
468.3	22629	
468.5	23616	
468.7	24257	
468.9	24116	
469.1	23160	
469.3	23853	
469.5	26320	
469.7	24536	
469.9	23113	
470.1	23317	
470.3	24848	
470.5	24839	
470.7	24415	
470.9	23010	
471.1	25049	
471.3	24247	
471.5	23270	
471.69	24644	
471.89	24253	
472.09	23708	
472.29	23767	
472.49	22986	
472.69	24464	
472.89	24641	
473.09	23183	
473.29	22271	
473.49	24260	
473.69	23769	
473.89	23404	
474.09	22685	
474.29	24825	
474.49	24554	
474.69	23349	
474.89	22555	
475.09	24057	
475.29	24135	
475.49	22160	
475.69	22552	
475.88	24829	
476.08	24455	
476.28	22501	
476.48	22121	
476.68	24100	
476.88	24003	
477.08	21893	
477.28	22733	
477.48	23138	
477.68	23538	
477.88	22005	
478.08	21942	
478.28	24462	
478.48	23487	
478.67	22215	
478.87	21269	
479.07	24772	
479.27	23658	
479.47	22461	
479.67	22589	
479.87	24330	
480.07	24823	
480.27	22190	
480.47	23285	
480.67	23897	
480.87	24786	
481.06	22345	
481.26	23253	
481.46	24189	
481.66	24113	
481.86	22871	
482.06	23571	
482.26	24074	
482.46	24554	
482.66	22674	
482.86	22569	
483.05	24774	
483.25	23925	
483.45	24565	
483.65	22921	
483.85	24155	
484.05	24644	
484.25	23264	
484.45	24156	
484.65	25075	
484.84	25933	
485.04	23256	
485.24	23190	
485.44	26045	
485.64	24402	
485.84	23392	
486.04	24577	
486.24	25049	
486.44	25484	
486.63	23466	
486.83	24279	
487.03	25621	
487.23	26148	
487.43	23466	
487.63	25696	
487.83	26095	
488.02	26749	
488.22	25172	
488.42	25769	
488.62	26943	
488.82	26172	
489.02	24596	
489.22	25343	
489.41	26575	
489.61	26897	
489.81	24922	
490.01	24905	
490.21	27237	
490.41	27933	
490.61	25243	
490.8	25212	
491	27254	
491.2	26456	
491.4	25572	
491.6	25174	
491.8	26820	
491.99	26547	
492.19	24471	
492.39	24570	
492.59	26790	
492.79	26891	
492.99	25123	
493.18	24579	
493.38	26935	
493.58	28421	
493.78	25817	
493.98	25320	
494.18	27627	
494.37	27808	
494.57	27443	
494.77	27212	
494.97	29244	
495.17	29646	
495.37	27446	
495.56	27797	
495.76	30245	
495.96	30122	
496.16	29144	
496.36	28520	
496.55	30870	
496.75	30872	
496.95	29133	
497.15	29248	
497.35	31019	
497.54	31285	
497.74	28971	
497.94	30618	
498.14	31778	
498.34	31310	
498.53	28918	
498.73	29596	
498.93	31167	
499.13	31449	
499.33	29999	
499.52	29724	
499.72	32187	
499.92	31738	
500.12	29761	
500.32	30332	
500.51	32217	
500.71	32680	
500.91	31147	
501.11	30881	
501.31	32562	
501.5	32591	
501.7	31406	
501.9	30558	
502.1	32105	
502.29	32616	
502.49	31288	
502.69	31100	
502.89	32339	
503.09	32671	
503.28	29874	
503.48	29917	
503.68	31439	
503.88	31726	
504.07	30502	
504.27	29786	
504.47	31544	
504.67	31505	
504.86	30303	
505.06	30002	
505.26	31014	
505.46	32490	
505.65	29713	
505.85	29619	
506.05	30827	
506.25	31070	
506.44	28311	
506.64	28913	
506.84	30106	
507.04	30407	
507.23	28448	
507.43	28850	
507.63	31394	
507.83	29871	
508.02	28706	
508.22	28409	
508.42	31832	
508.62	30163	
508.81	28525	
509.01	29427	
509.21	29563	
509.4	29963	
509.6	28492	
509.8	28263	
510	29630	
510.19	31068	
510.39	27968	
510.59	28121	
510.79	29992	
510.98	31139	
511.18	28581	
511.38	28927	
511.57	30817	
511.77	30685	
511.97	29304	
512.17	28295	
512.36	30872	
512.56	30210	
512.76	28410	
512.95	27973	
513.15	30552	
513.35	29638	
513.55	28716	
513.74	28097	
513.94	30507	
514.14	29862	
514.33	29063	
514.53	28836	
514.73	30023	
514.92	30265	
515.12	28583	
515.32	28597	
515.51	30371	
515.71	30814	
515.91	29814	
516.11	28695	
516.3	31963	
516.5	30379	
516.7	29190	
516.89	29732	
517.09	30256	
517.29	30668	
517.48	29728	
517.68	28961	
517.88	30245	
518.07	30699	
518.27	29462	
518.47	28775	
518.66	31005	
518.86	29998	
519.06	28220	
519.25	28623	
519.45	30204	
519.65	31773	
519.84	29159	
520.04	30253	
520.24	31987	
520.43	31208	
520.63	29283	
520.83	29196	
521.02	30571	
521.22	30810	
521.42	29104	
521.61	29796	
521.81	29979	
522.01	29971	
522.2	28812	
522.4	28299	
522.6	30475	
522.79	29724	
522.99	28724	
523.18	28808	
523.38	30894	
523.58	30982	
523.77	30754	
523.97	29223	
524.17	32968	
524.36	32679	
524.56	31025	
524.76	30980	
524.95	32740	
525.15	32202	
525.34	31390	
525.54	31908	
525.74	33806	
525.93	32892	
526.13	33283	
526.33	32427	
526.52	34683	
526.72	34168	
526.91	33641	
527.11	33322	
527.31	34708	
527.5	35287	
527.7	33276	
527.89	32518	
528.09	33937	
528.29	34867	
528.48	33232	
528.68	33049	
528.87	35076	
529.07	34906	
529.27	33484	
529.46	33682	
529.66	35822	
529.85	36040	
530.05	33826	
530.25	34365	
530.44	37033	
530.64	35453	
530.83	33882	
531.03	34250	
531.23	35943	
531.42	35077	
531.62	34243	
531.81	33355	
532.01	35721	
532.21	36421	
532.4	34346	
532.6	34940	
532.79	37222	
532.99	37281	
533.18	35803	
533.38	36457	
533.58	37627	
533.77	37797	
533.97	36626	
534.16	36941	
534.36	38697	
534.55	37956	
534.75	37212	
534.95	36796	
535.14	39172	
535.34	38286	
535.53	36502	
535.73	38429	
535.92	39581	
536.12	38201	
536.31	36635	
536.51	37517	
536.71	38244	
536.9	37719	
537.1	36186	
537.29	36465	
537.49	38303	
537.68	37500	
537.88	36775	
538.07	35977	
538.27	37960	
538.46	38796	
538.66	36138	
538.86	36600	
539.05	37983	
539.25	38481	
539.44	37366	
539.64	36445	
539.83	38234	
540.03	39198	
540.22	36651	
540.42	36347	
540.61	38021	
540.81	38413	
541	35999	
541.2	37274	
541.39	37361	
541.59	37698	
541.78	36868	
541.98	35723	
542.18	37216	
542.37	37175	
542.57	35725	
542.76	36821	
542.96	36767	
543.15	37267	
543.35	35635	
543.54	34989	
543.74	36812	
543.93	36683	
544.13	34824	
544.32	35585	
544.52	36199	
544.71	35633	
544.91	33619	
545.1	34331	
545.3	35637	
545.49	36280	
545.69	33727	
545.88	33879	
546.08	37177	
546.27	36453	
546.47	34521	
546.66	33751	
546.86	36113	
547.05	36284	
547.24	33801	
547.44	34211	
547.63	34996	
547.83	36212	
548.02	34435	
548.22	34174	
548.41	34854	
548.61	35902	
548.8	33617	
549	33483	
549.19	34957	
549.39	35697	
549.58	33107	
549.78	33662	
549.97	35443	
550.17	34825	
550.36	33656	
550.55	34746	
550.75	34461	
550.94	35085	
551.14	32679	
551.33	32594	
551.53	33925	
551.72	34746	
551.92	32592	
552.11	32499	
552.31	34469	
552.5	34450	
552.69	33759	
552.89	32119	
553.08	34551	
553.28	33861	
553.47	32620	
553.67	33252	
553.86	34463	
554.06	33281	
554.25	31395	
554.44	31938	
554.64	34886	
554.83	34630	
555.03	31941	
555.22	32167	
555.42	34047	
555.61	33845	
555.8	31824	
556	32120	
556.19	33099	
556.39	33908	
556.58	31670	
556.78	31693	
556.97	33462	
557.16	33144	
557.36	32634	
557.55	31599	
557.75	32291	
557.94	34061	
558.13	31437	
558.33	31310	
558.52	33942	
558.72	33013	
558.91	31447	
559.1	31552	
559.3	32821	
559.49	32195	
559.69	30996	
559.88	31537	
560.07	33042	
560.27	33371	
560.46	31733	
560.66	31645	
560.85	32774	
561.04	31911	
561.24	31060	
561.43	30657	
561.63	32085	
561.82	32245	
562.01	31927	
562.21	30908	
562.4	32354	
562.59	33478	
562.79	30687	
562.98	30595	
563.18	32564	
563.37	33823	
563.56	31548	
563.76	31260	
563.95	32571	
564.14	32703	
564.34	31816	
564.53	31207	
564.73	32983	
564.92	33699	
565.11	31734	
565.31	31284	
565.5	33718	
565.69	32862	
565.89	31583	
566.08	31918	
566.27	33578	
566.47	34499	
566.66	32669	
566.85	31743	
567.05	33641	
567.24	33174	
567.44	32159	
567.63	32934	
567.82	33890	
568.02	33770	
568.21	31987	
568.4	32387	
568.6	34027	
568.79	33686	
568.98	31717	
569.18	32201	
569.37	34159	
569.56	35620	
569.76	32681	
569.95	33405	
570.14	34441	
570.34	34744	
570.53	32405	
570.72	32471	
570.91	35235	
571.11	34429	
571.3	32877	
571.49	33302	
571.69	34587	
571.88	34024	
572.07	33463	
572.27	33123	
572.46	34211	
572.65	34957	
572.85	33182	
573.04	33297	
573.23	35297	
573.43	34621	
573.62	32792	
573.81	33498	
574	35117	
574.2	34779	
574.39	33618	
574.58	33599	
574.78	36356	
574.97	35865	
575.16	34693	
575.36	34853	
575.55	36502	
575.74	36678	
575.93	34140	
576.13	35407	
576.32	35977	
576.51	36878	
576.71	34732	
576.9	36019	
577.09	37048	
577.28	36549	
577.48	35147	
577.67	34458	
577.86	36319	
578.05	36870	
578.25	34782	
578.44	35001	
578.63	36282	
578.83	37482	
579.02	34396	
579.21	36156	
579.4	36740	
579.6	37044	
579.79	35155	
579.98	37173	
580.17	37378	
580.37	37397	
580.56	34798	
580.75	35659	
580.94	37482	
581.14	37395	
581.33	36216	
581.52	34872	
581.71	37297	
581.91	37718	
582.1	35134	
582.29	35216	
582.48	37094	
582.68	37205	
582.87	35773	
583.06	35785	
583.25	37425	
583.45	37027	
583.64	36661	
583.83	37049	
584.02	37182	
584.21	37726	
584.41	36094	
584.6	35880	
584.79	37389	
584.98	38100	
585.18	35559	
585.37	35549	
585.56	37156	
585.75	37916	
585.94	35334	
586.14	36162	
586.33	37721	
586.52	37281	
586.71	35601	
586.91	35308	
587.1	36041	
587.29	37299	
587.48	34625	
587.67	34787	
587.87	36394	
588.06	36258	
588.25	35439	
588.44	34760	
588.63	35870	
588.83	36292	
589.02	34013	
589.21	33789	
589.4	34818	
589.59	35521	
589.78	32709	
589.98	32660	
590.17	33927	
590.36	34189	
590.55	31103	
590.74	30978	
590.94	33867	
591.13	32316	
591.32	30154	
591.51	29656	
591.7	32232	
591.89	31995	
592.09	29822	
592.28	30252	
592.47	31373	
592.66	33422	
592.85	30472	
593.05	30786	
593.24	32269	
593.43	33185	
593.62	31077	
593.81	31391	
594	32735	
594.19	32578	
594.39	30690	
594.58	30456	
594.77	32651	
594.96	32818	
595.15	30560	
595.34	31109	
595.54	32286	
595.73	31772	
595.92	29773	
596.11	30563	
596.3	32595	
596.49	31446	
596.68	29951	
596.88	30522	
597.07	32060	
597.26	31286	
597.45	29311	
597.64	30498	
597.83	31407	
598.02	32029	
598.22	29657	
598.41	30018	
598.6	31742	
598.79	31296	
598.98	29753	
599.17	30556	
599.36	31801	
599.55	32306	
599.74	31252	
599.94	31165	
600.13	31760	
600.32	30917	
600.51	29220	
600.7	29368	
600.89	32083	
601.08	32497	
601.27	29201	
601.47	30085	
601.66	31733	
601.85	32037	
602.04	29745	
602.23	29713	
602.42	30952	
602.61	31128	
602.8	29253	
602.99	28836	
603.18	30761	
603.37	31027	
603.57	29166	
603.76	29895	
603.95	31515	
604.14	31197	
604.33	28996	
604.52	29288	
604.71	31156	
604.9	30702	
605.09	29500	
605.28	29630	
605.47	31866	
605.66	31071	
605.86	29475	
606.05	29147	
606.24	31451	
606.43	30276	
606.62	29535	
606.81	29870	
607	31174	
607.19	30846	
607.38	28616	
607.57	28751	
607.76	30352	
607.95	29732	
608.14	29025	
608.33	29482	
608.52	30218	
608.72	31214	
608.91	28389	
609.1	28352	
609.29	30156	
609.48	29682	
609.67	28665	
609.86	27974	
610.05	29506	
610.24	29737	
610.43	27967	
610.62	27806	
610.81	30481	
611	30408	
611.19	27945	
611.38	28440	
611.57	30000	
611.76	31034	
611.95	27747	
612.14	27476	
612.33	29702	
612.52	29327	
612.71	28152	
612.9	27514	
613.09	29077	
613.28	30894	
613.47	27739	
613.66	28530	
613.85	29888	
614.04	29476	
614.24	27783	
614.43	27209	
614.62	29909	
614.81	29706	
615	28101	
615.19	28190	
615.38	29018	
615.57	29798	
615.76	28190	
615.95	29143	
616.14	30226	
616.33	29841	
616.52	28521	
616.71	28839	
616.9	30055	
617.09	30065	
617.28	28089	
617.47	28902	
617.66	29158	
617.85	29207	
618.04	29063	
618.22	28352	
618.41	30194	
618.6	31112	
618.79	28709	
618.98	28956	
619.17	31638	
619.36	30193	
619.55	29304	
619.74	29336	
619.93	31056	
620.12	30811	
620.31	29759	
620.5	30154	
620.69	31849	
620.88	32480	
621.07	30835	
621.26	30463	
621.45	32135	
621.64	32220	
621.83	30618	
622.02	30033	
622.21	31986	
622.4	32073	
622.59	31235	
622.78	31057	
622.97	31656	
623.16	32572	
623.35	30891	
623.54	29944	
623.72	32111	
623.91	32066	
624.1	30798	
624.29	30133	
624.48	33226	
624.67	32458	
624.86	31112	
625.05	30399	
625.24	33303	
625.43	32068	
625.62	32575	
625.81	30614	
626	32595	
626.19	32312	
626.38	31255	
626.56	30780	
626.75	32335	
626.94	33116	
627.13	30985	
627.32	30322	
627.51	32829	
627.7	33938	
627.89	30285	
628.08	31335	
628.27	32017	
628.46	32123	
628.65	30114	
628.83	30115	
629.02	32133	
629.21	31668	
629.4	30595	
629.59	30814	
629.78	31956	
629.97	32447	
630.16	30934	
630.35	30431	
630.54	32993	
630.72	32636	
630.91	30551	
631.1	30743	
631.29	32519	
631.48	32545	
631.67	30965	
631.86	30150	
632.05	32164	
632.24	31931	
632.42	29881	
632.61	30637	
632.8	31784	
632.99	31701	
633.18	30785	
633.37	30697	
633.56	32242	
633.75	32236	
633.93	30620	
634.12	30479	
634.31	32604	
634.5	32548	
634.69	30632	
634.88	30348	
635.07	31939	
635.25	32354	
635.44	31014	
635.63	31410	
635.82	31844	
636.01	31166	
636.2	30922	
636.39	30466	
636.57	32474	
636.76	32017	
636.95	29859	
637.14	30776	
637.33	32110	
637.52	32500	
637.7	29637	
637.89	30675	
638.08	31770	
638.27	32436	
638.46	30606	
638.65	30485	
638.83	32311	
639.02	31201	
639.21	30208	
639.4	30714	
639.59	31555	
639.78	31112	
639.96	29221	
640.15	29345	
640.34	31236	
640.53	31035	
640.72	28885	
640.91	28963	
641.09	30353	
641.28	31358	
641.47	28816	
641.66	29685	
641.85	30859	
642.03	30658	
642.22	29132	
642.41	28635	
642.6	30185	
642.79	29621	
642.97	28414	
643.16	29080	
643.35	30074	
643.54	29619	
643.73	28102	
643.91	28750	
644.1	29200	
644.29	30019	
644.48	27822	
644.67	27977	
644.85	29029	
645.04	29668	
645.23	26960	
645.42	27616	
645.6	28487	
645.79	29169	
645.98	26473	
646.17	25784	
646.36	27466	
646.54	27661	
646.73	26478	
646.92	25903	
647.11	27222	
647.29	28372	
647.48	25907	
647.67	25424	
647.86	27919	
648.05	28192	
648.23	25673	
648.42	26553	
648.61	27375	
648.8	27340	
648.98	24920	
649.17	25334	
649.36	26471	
649.55	26434	
649.73	24839	
649.92	25665	
650.11	26607	
650.3	26812	
650.48	25062	
650.67	25205	
650.86	27101	
651.05	26129	
651.23	25055	
651.42	24850	
651.61	26281	
651.79	26144	
651.98	24901	
652.17	24531	
652.36	26230	
652.54	25638	
652.73	24677	
652.92	24479	
653.11	26117	
653.29	26596	
653.48	23874	
653.67	24668	
653.85	25927	
654.04	26867	
654.23	24396	
654.42	24055	
654.6	25066	
654.79	25321	
654.98	23096	
655.16	23175	
655.35	23794	
655.54	23498	
655.73	21822	
655.91	21568	
656.1	23703	
656.29	22868	
656.47	21109	
656.66	22657	
656.85	23382	
657.03	23524	
657.22	22322	
657.41	22619	
657.59	24220	
657.78	24227	
657.97	22685	
658.16	23349	
658.34	25107	
658.53	25591	
658.72	24026	
658.9	24428	
659.09	24745	
659.28	24918	
659.46	23301	
659.65	23208	
659.84	24558	
660.02	25164	
660.21	23176	
660.4	23089	
660.58	25366	
660.77	24892	
660.96	23566	
661.14	22812	
661.33	25880	
661.52	25618	
661.7	22754	
661.89	25561	
662.08	24462	
662.26	24219	
662.45	22883	
662.64	22900	
662.82	24899	
663.01	24348	
663.2	22735	
663.38	23469	
663.57	24498	
663.75	24384	
663.94	22898	
664.13	23832	
664.31	24060	
664.5	24518	
664.69	23159	
664.87	23585	
665.06	23852	
665.25	24641	
665.43	23725	
665.62	23802	
665.8	24631	
665.99	24067	
666.18	22808	
666.36	22811	
666.55	24451	
666.74	24287	
666.92	22503	
667.11	23426	
667.29	24010	
667.48	24248	
667.67	23301	
667.85	22610	
668.04	23826	
668.22	24017	
668.41	22575	
668.6	22831	
668.78	23817	
668.97	23795	
669.15	22795	
669.34	21955	
669.53	23548	
669.71	23827	
669.9	21964	
670.08	22508	
670.27	23683	
670.46	24003	
670.64	22580	
670.83	23018	
671.01	23309	
671.2	23635	
671.38	22094	
671.57	21862	
671.76	24214	
671.94	24787	
672.13	21742	
672.31	22557	
672.5	24154	
672.69	23457	
672.87	22110	
673.06	22328	
673.24	23946	
673.43	23597	
673.61	22408	
673.8	22197	
673.98	23799	
674.17	23888	
674.36	22479	
674.54	22331	
674.73	23497	
674.91	23819	
675.1	22304	
675.28	21907	
675.47	23415	
675.65	23881	
675.84	22035	
676.03	22201	
676.21	23187	
676.4	22958	
676.58	22603	
676.77	22662	
676.95	24468	
677.14	23158	
677.32	21722	
677.51	21751	
677.69	23789	
677.88	23072	
678.06	21630	
678.25	21911	
678.44	23580	
678.62	23163	
678.81	21344	
678.99	22388	
679.18	23882	
679.36	23544	
679.55	22014	
679.73	22460	
679.92	23635	
680.1	23155	
680.29	22936	
680.47	21907	
680.66	22929	
680.84	23580	
681.03	21285	
681.21	22162	
681.4	22986	
681.58	22964	
681.77	21462	
681.95	21568	
682.14	23588	
682.32	23739	
682.51	22440	
682.69	21054	
682.88	22727	
683.06	22803	
683.25	21805	
683.43	22099	
683.62	22958	
683.8	23330	
683.99	22173	
684.17	21493	
684.36	23791	
684.54	22608	
684.73	20590	
684.91	20605	
685.1	22345	
685.28	21534	
685.46	20081	
685.65	20046	
685.83	20999	
686.02	20306	
686.2	18525	
686.39	18633	
686.57	19893	
686.76	21275	
686.94	18663	
687.13	19192	
687.31	20784	
687.5	20656	
687.68	18991	
687.86	20108	
688.05	22295	
688.23	20487	
688.42	20139	
688.6	19637	
688.79	21004	
688.97	21101	
689.16	20200	
689.34	19217	
689.52	21908	
689.71	21985	
689.89	20478	
690.08	20091	
690.26	21738	
690.45	21549	
690.63	20456	
690.81	20502	
691	21531	
691.18	21385	
691.37	20253	
691.55	21861	
691.74	21171	
691.92	22747	
692.1	20034	
692.29	19467	
692.47	21223	
692.66	20432	
692.84	19456	
693.02	19912	
693.21	20809	
693.39	21029	
693.58	20314	
693.76	19675	
693.94	22097	
694.13	22196	
694.31	19842	
694.5	20691	
694.68	21252	
694.86	21629	
695.05	20620	
695.23	20823	
695.42	22438	
695.6	24107	
695.78	21377	
695.97	20650	
696.15	22590	
696.34	22136	
696.52	20291	
696.7	20932	
696.89	22116	
697.07	21601	
697.25	20521	
697.44	21692	
697.62	21847	
697.81	21818	
697.99	20007	
698.17	20686	
698.36	20891	
698.54	21519	
698.72	20297	
698.91	19216	
699.09	20863	
699.28	20775	
699.46	19744	
699.64	19559	
699.83	20687	
700.01	21187	
700.19	20152	
700.38	18901	
700.56	21321	
700.74	20594	
700.93	18984	
701.11	19838	
701.29	21008	
701.48	21933	
701.66	19334	
701.84	19640	
702.03	20974	
702.21	21790	
702.39	19218	
702.58	20003	
702.76	21421	
702.94	21357	
703.13	19124	
703.31	21261	
703.49	20813	
703.68	21683	
703.86	19095	
704.04	20093	
704.23	20934	
704.41	21254	
704.59	19233	
704.78	19826	
704.96	21898	
705.14	21145	
705.33	19071	
705.51	19410	
705.69	20560	
705.87	21263	
706.06	19850	
706.24	18816	
706.42	20676	
706.61	21151	
706.79	19455	
706.97	18703	
707.16	20043	
707.34	20474	
707.52	19088	
707.7	18871	
707.89	20213	
708.07	19787	
708.25	19223	
708.44	19471	
708.62	19850	
708.8	20588	
708.98	19306	
709.17	18424	
709.35	20007	
709.53	19756	
709.72	18002	
709.9	18195	
710.08	19891	
710.26	19979	
710.45	18970	
710.63	18047	
710.81	19424	
710.99	19380	
711.18	18189	
711.36	17711	
711.54	18964	
711.72	19419	
711.91	17523	
712.09	17004	
712.27	18644	
712.45	19108	
712.64	17068	
712.82	16378	
713	17663	
713.18	17618	
713.37	16133	
713.55	16815	
713.73	18021	
713.91	16537	
714.1	15692	
714.28	14902	
714.46	16754	
714.64	15638	
714.83	13362	
715.01	13416	
715.19	14584	
715.37	13715	
715.55	12409	
715.74	12629	
715.92	14506	
716.1	12752	
716.28	13360	
716.47	12287	
716.65	13028	
716.83	13054	
717.01	11878	
717.19	11878	
717.38	14551	
717.56	12704	
717.74	11983	
717.92	11292	
718.1	13563	
718.29	12897	
718.47	11156	
718.65	11882	
718.83	14108	
719.01	14244	
719.2	11893	
719.38	13112	
719.56	14461	
719.74	15614	
719.92	12856	
720.11	13581	
720.29	14369	
720.47	13605	
720.65	11981	
720.83	12409	
721.02	13238	
721.2	12869	
721.38	11742	
721.56	11085	
721.74	11948	
721.92	12064	
722.11	11878	
722.29	11585	
722.47	12920	
722.65	12240	
722.83	10722	
723.01	11363	
723.2	12087	
723.38	12413	
723.56	10220	
723.74	11028	
723.92	11673	
724.1	12622	
724.29	10453	
724.47	11408	
724.65	11789	
724.83	11527	
725.01	10230	
725.19	10799	
725.37	11276	
725.56	11323	
725.74	9905.3	
725.92	10152	
726.1	11371	
726.28	11578	
726.46	10432	
726.64	10053	
726.83	11414	
727.01	11467	
727.19	9713.5	
727.37	10401	
727.55	11563	
727.73	11885	
727.91	9640.5	
728.09	9495.1	
728.28	11812	
728.46	12052	
728.64	10278	
728.82	10285	
729	12607	
729.18	12093	
729.36	9611.1	
729.54	11420	
729.72	13038	
729.91	11781	
730.09	11460	
730.27	10484	
730.45	11636	
730.63	12164	
730.81	10922	
730.99	10211	
731.17	12636	
731.35	11442	
731.53	10696	
731.71	10391	
731.9	12253	
732.08	12256	
732.26	10357	
732.44	10096	
732.62	12198	
732.8	11842	
732.98	10502	
733.16	9755.8	
733.34	11721	
733.52	10520	
733.7	9823.4	
733.88	10066	
734.07	11252	
734.25	11154	
734.43	9439.8	
734.61	10557	
734.79	12365	
734.97	10883	
735.15	9413.8	
735.33	9741.5	
735.51	11140	
735.69	10813	
735.87	10746	
736.05	9658.9	
736.23	10831	
736.41	10546	
736.59	9358.5	
736.77	9506	
736.95	11206	
737.13	10512	
737.32	8933.2	
737.5	9215.9	
737.68	11464	
737.86	10341	
738.04	8770.8	
738.22	10144	
738.4	10066	
738.58	10272	
738.76	9058.2	
738.94	8349.6	
739.12	10101	
739.3	10101	
739.48	9443.2	
739.66	9274.6	
739.84	10253	
740.02	10256	
740.2	8271.1	
740.38	8460.8	
740.56	10396	
740.74	9415.2	
740.92	8974.9	
741.1	8658.1	
741.28	9674.6	
741.46	9527.2	
741.64	8202.1	
741.82	8624	
742	9673.9	
742.18	9564	
742.36	8315.4	
742.54	7978.9	
742.72	9900.6	
742.9	8926.4	
743.08	8493.6	
743.26	7559.7	
743.44	9966.1	
743.62	9806.4	
743.8	8474.5	
743.98	7694.2	
744.16	9445.2	
744.34	9208.4	
744.52	8348.2	
744.7	8204.8	
744.88	9432.9	
745.06	9039.1	
745.24	8139.3	
745.42	8141.4	
745.6	9452.7	
745.78	9157.2	
745.96	7131	
746.14	7342.7	
746.32	9843.2	
746.5	9061.6	
746.68	7632.8	
746.86	7129	
747.03	9431.6	
747.21	8086.1	
747.39	7447.8	
747.57	7088.7	
747.75	8768	
747.93	8969.4	
748.11	6891.4	
748.29	6921.5	
748.47	9981.8	
748.65	8305.9	
748.83	7552.9	
749.01	7299	
749.19	8607.6	
749.37	8075.1	
749.55	7092.1	
749.73	7120.8	
749.91	8427.4	
750.09	8217.1	
750.26	7133.1	
750.44	6661.4	
750.62	8399.4	
750.8	8266.3	
750.98	6552.1	
751.16	6715.3	
751.34	8310.7	
751.52	7840.3	
751.7	7351.5	
751.88	6385.6	
752.06	8775.5	
752.24	8382.3	
752.42	6272.2	
752.59	6511.9	
752.77	8026.7	
752.95	9103.9	
753.13	7058	
753.31	6582.2	
753.49	7759.1	
753.67	8073.8	
753.85	6692.8	
754.03	6292	
754.21	8107.2	
754.38	8323.6	
754.56	6195.8	
754.74	5460.6	
754.92	7157	
755.1	7621.9	
755.28	5082.4	
755.46	5003.9	
755.64	7887.4	
755.82	7851.9	
755.99	4936.3	
756.17	4883	
756.35	5563	
756.53	6718	
756.71	3814.7	
756.89	4524	
757.07	6355.5	
757.25	5629.9	
757.42	5091.3	
757.6	5702.2	
757.78	6549.4	
757.96	5771.2	
758.14	4909	
758.32	4496	
758.5	5440.1	
758.67	6128.2	
758.85	4802.5	
759.03	4778.6	
759.21	6228.6	
759.39	5723.4	
759.57	4431.1	
759.75	5317.9	
759.92	6724.2	
760.1	6367.1	
760.28	5678.3	
760.46	5922.7	
760.64	6178	
760.82	6036	
760.99	5526.8	
761.17	5066.7	
761.35	6929	
761.53	6085.9	
761.71	5216.9	
761.89	5788.2	
762.06	6864.8	
762.24	6484.6	
762.42	5322	
762.6	5148.6	
762.78	6510.5	
762.96	6993.8	
763.13	5748	
763.31	5451	
763.49	7129.7	
763.67	6531.7	
763.85	6115.2	
764.02	6450.4	
764.2	7374.1	
764.38	6642.2	
764.56	5292.6	
764.74	5912.5	
764.91	7445	
765.09	6488.6	
765.27	4986.1	
765.45	4844.8	
765.63	7466.2	
765.8	7251.9	
765.98	4683	
766.16	4838	
766.34	6172.6	
766.52	5978.7	
766.69	5560.2	
766.87	4691.2	
767.05	6443.6	
767.23	6894.1	
767.41	4870.8	
767.58	5108.3	
767.76	6824.5	
767.94	6856.6	
768.12	4940.4	
768.29	5461.9	
768.47	6315.9	
768.65	6944.7	
768.83	4565.6	
769	5455.1	
769.18	5959.6	
769.36	6466.8	
769.54	5406.6	
769.72	4577.2	
769.89	6694.8	
770.07	6731.7	
770.25	4797.7	
770.43	5728.9	
770.6	7300.3	
770.78	7653.9	
770.96	4887.8	
771.14	5357.5	
771.31	6617	
771.49	6087.9	
771.67	4221.5	
771.85	4355.3	
772.02	5444.9	
772.2	6004	
772.38	4859.1	
772.55	4551.3	
772.73	6247	
772.91	5988.3	
773.09	4782	
773.26	4833.2	
773.44	6090.7	
773.62	5820.3	
773.8	4417.5	
773.97	4177.9	
774.15	6137.8	
774.33	5808	
774.5	4237.2	
774.68	4494.6	
774.86	6066.8	
775.04	5803.3	
775.21	4279.6	
775.39	4236.6	
775.57	5951.4	
775.74	6327.5	
775.92	4104.1	
776.1	4040.6	
776.27	5917.3	
776.45	6944	
776.63	4242.7	
776.81	3862.5	
776.98	5644.9	
777.16	6442.9	
777.34	4306.2	
777.51	4528.1	
777.69	5606.7	
777.87	5439.4	
778.04	4321.9	
778.22	4817.5	
778.4	5395.7	
778.57	5973.2	
778.75	3726.6	
778.93	3995.6	
779.1	5330.9	
779.28	5163.6	
779.46	3730	
779.64	4042.7	
779.81	6106.4	
779.99	6744	
780.17	4711	
780.34	4804.5	
780.52	5593.7	
780.69	5750	
780.87	4285	
781.05	3980.6	
781.22	5664.7	
781.4	5643.5	
781.58	4049.5	
781.75	3381.2	
781.93	5642.2	
782.11	5079	
782.28	4784.7	
782.46	4022.9	
782.64	4945.8	
782.81	5773.9	
782.99	4078.2	
783.17	3988.1	
783.34	5590.3	
783.52	5007.3	
783.69	4117.1	
783.87	4827.7	
784.05	5104.9	
784.22	5066.7	
784.4	4774.5	
784.58	4244.1	
784.75	5807.4	
784.93	5108.3	
785.1	3906.2	
785.28	4416.1	
785.46	5604.6	
785.63	4980.7	
785.81	3928	
785.99	3717.1	
786.16	5160.9	
786.34	5408.7	
786.51	3821.5	
786.69	4122.6	
786.87	4812	
787.04	5216.9	
787.22	3708.9	
787.39	4434.5	
787.57	4945.8	
787.75	5898.2	
787.92	4567.7	
788.1	4458.4	
788.27	4967.7	
788.45	4790.9	
788.63	4291.9	
788.8	3252.2	
788.98	5407.3	
789.15	4661.2	
789.33	3394.2	
789.5	3813.3	
789.68	5680.4	
789.86	5790.3	
790.03	4192.9	
790.21	3734.8	
790.38	5701.5	
790.56	5107	
790.73	3705.5	
790.91	3652.2	
791.09	4937	
791.26	5530.2	
791.44	3868.6	
791.61	3429.7	
791.79	4950.6	
791.96	4934.2	
792.14	3516.4	
792.32	3156.6	
792.49	4914.4	
792.67	5059.8	
792.84	3579.2	
793.02	3389.4	
793.19	5257.8	
793.37	5873.6	
793.54	3132.7	
793.72	3341.6	
793.89	5911.8	
794.07	4802.5	
794.25	3742.3	
794.42	3132	
794.6	5723.4	
794.77	5341.1	
794.95	4078.9	
795.12	3641.3	
795.3	4893.3	
795.47	5358.9	
795.65	3971.7	
795.82	3778.5	
796	4777.2	
796.17	6211.5	
796.35	3636.5	
796.52	4224.3	
796.7	5275.6	
796.87	5385.5	
797.05	3716.4	
797.22	4335.5	
797.4	5341.1	
797.57	6075	
797.75	3734.1	
797.92	3646.1	
798.1	5565.7	
798.27	4747.9	
798.45	3199.6	
798.62	3343	
798.8	5074.9	
798.97	5453.1	
799.15	3868.6	
799.32	3725.9	
799.5	4530.1	
799.67	5057.8	
799.85	4050.9	
800.02	3112.2	
800.2	4808.6	
800.37	5039.4	
800.55	4171.7	
800.72	3536.8	
800.9	5405.3	
801.07	5710.4	
801.25	4657.1	
801.42	3845.4	
801.6	5444.2	
801.77	5160.9	
801.95	3648.8	
802.12	3442.6	
802.29	5261.2	
802.47	5132.9	
802.64	3837.9	
802.82	3004.4	
802.99	4806.6	
803.17	5535.7	
803.34	3724.6	
803.52	3371.6	
803.69	6016.2	
803.87	4538.3	
804.04	3731.4	
804.21	3732.1	
804.39	5646.2	
804.56	4879.6	
804.74	3213.3	
804.91	3829.7	
805.09	4755.4	
805.26	4815.5	
805.44	3278.8	
805.61	3538.9	
805.78	5291.3	
805.96	5316.5	
806.13	3792.8	
806.31	4007.2	
806.48	4388.8	
806.66	4743.8	
806.83	3710.9	
807	3706.1	
807.18	4729.4	
807.35	5059.2	
807.53	3674.7	
807.7	3072.6	
807.87	5698.8	
808.05	4785.4	
808.22	3959.4	
808.4	2995.5	
808.57	4731.5	
808.74	4440	
808.92	3330.7	
809.09	4227.7	
809.27	4697.4	
809.44	5079	
809.61	2985.3	
809.79	3280.8	
809.96	5668.8	
810.14	5285.8	
810.31	2965.5	
810.48	3543	
810.66	4748.6	
810.83	5335.6	
811.01	3403	
811.18	3672	
811.35	5298.1	
811.53	4229.7	
811.7	3973.7	
811.87	3715	
812.05	4775.9	
812.22	4635.2	
812.39	3276.1	
812.57	3165.5	
812.74	4709.6	
812.92	6012.8	
813.09	3522.5	
813.26	3794.2	
813.44	5833.3	
813.61	4665.3	
813.78	3020.1	
813.96	3874.1	
814.13	4737	
814.3	4445.5	
814.48	4117.8	
814.65	3503.4	
814.82	5617.6	
815	4490.5	
815.17	3601.7	
815.34	4346.5	
815.52	4600.4	
815.69	4618.2	
815.87	3543.7	
816.04	3487.7	
816.21	4660.5	
816.38	4191.5	
816.56	3466.5	
816.73	3226.2	
816.9	5812.1	
817.08	5304.9	
817.25	3308.8	
817.42	4021.5	
817.6	4351.3	
817.77	4667.3	
817.94	3661.8	
818.12	3215.3	
818.29	4470	
818.46	6583.5	
818.64	3369.6	
818.81	3158.7	
818.98	4431.8	
819.16	6143.9	
819.33	3763.5	
819.5	3586.7	
819.67	4983.4	
819.85	5504.9	
820.02	3517	
820.19	3679.5	
820.37	4909	
820.54	4600.4	
820.71	3648.8	
820.88	4358.8	
821.06	4840	
821.23	4510.3	
821.4	3639.2	
821.58	3563.5	
821.75	5219.6	
821.92	4803.9	
822.09	2917	
822.27	3238.5	
822.44	4681	
822.61	4633.2	
822.79	2981.8	
822.96	5418.2	
823.13	5025	
823.3	4465.9	
823.48	3416	
823.65	3084.2	
823.82	5233.2	
823.99	4373.1	
824.17	4248.9	
824.34	3137.5	
824.51	5953.4	
824.68	4689.2	
824.86	3260.4	
825.03	3594.2	
825.2	4692.6	
825.37	5482.4	
825.55	3297.9	
825.72	3580.5	
825.89	5976.7	
826.06	5555.5	
826.24	3491.1	
826.41	3556.6	
826.58	5590.3	
826.75	4881	
826.92	2856.2	
827.1	3107.5	
827.27	7331	
827.44	5883.8	
827.61	3355.3	
827.79	3947.1	
827.96	4523.3	
828.13	4682.3	
828.3	3532.1	
828.47	3006.4	
828.65	4921.3	
828.82	4845.5	
828.99	4316.4	
829.16	3819.5	
829.34	5197.1	
829.51	5065.3	
829.68	3549.1	
829.85	3644.7	
830.02	5485.8	
830.2	5296.7	
830.37	2818	
830.54	4224.3	
830.71	5870.2	
830.88	4696.7	
831.05	2833	
831.23	3231	
831.4	5644.2	
831.57	6186.9	
831.74	3314.3	
831.91	2983.9	
832.09	4965.6	
832.26	5177.9	
832.43	3383.9	
832.6	3749.8	
832.77	4922	
832.94	5480.4	
833.12	2810.5	
833.29	3379.8	
833.46	5055.8	
833.63	6352.1	
833.8	3684.3	
833.97	3400.3	
834.15	5225.7	
834.32	5025.7	
834.49	3594.9	
834.66	3620.8	
834.83	5321.3	
835	4492.6	
835.17	3267.2	
835.35	3295.9	
835.52	5127.4	
835.69	5054.4	
835.86	3416	
836.03	2876	
836.2	5180	
836.37	4894	
836.55	3361.4	
836.72	3218.7	
836.89	4868.7	
837.06	5284.4	
837.23	3445.4	
837.4	3702.7	
837.57	5871.5	
837.75	6389	
837.92	3095.8	
838.09	3364.8	
838.26	4842.8	
838.43	5397.8	
838.6	3511.6	
838.77	3193.5	
838.94	6039.5	
839.11	5861.3	
839.29	3409.9	
839.46	2777	
839.63	5203.9	
839.8	4947.2	
839.97	3297.2	
840.14	3287	
840.31	5022.3	
840.48	5229.8	
840.65	2770.9	
840.82	3250.8	
841	5167.7	
841.17	5029.8	
841.34	2989.4	
841.51	3104.7	
841.68	5163.6	
841.85	4855.1	
842.02	3136.1	
842.19	2698.5	
842.36	4995.7	
842.53	4997.7	
842.7	3102	
842.87	3672.7	
843.05	6352.1	
843.22	4899.4	
843.39	2925.9	
843.56	3131.3	
843.73	4767	
843.9	5283.8	
844.07	4766.3	
844.24	3979.2	
844.41	7088	
844.58	4581.3	
844.75	2958.6	
844.92	3177.1	
845.09	5111.7	
845.26	5131.5	
845.43	3048.1	
845.6	3198.9	
845.77	5166.3	
845.94	4947.9	
846.12	3362.1	
846.29	3461.1	
846.46	5356.1	
846.63	5152	
846.8	3021.4	
846.97	3553.9	
847.14	5535	
847.31	5130.2	
847.48	3362.8	
847.65	3710.2	
847.82	5317.9	
847.99	5330.9	
848.16	3999	
848.33	3672	
848.5	4801.8	
848.67	5534.3	
848.84	2998.9	
849.01	3105.4	
849.18	4708.3	
849.35	4391.5	
849.52	3730	
849.69	2941.6	
849.86	5390.9	
850.03	5466	
850.2	3031.7	
850.37	3557.3	
850.54	5421.7	
850.71	4804.5	
850.88	3526.6	
851.05	3003	
851.22	4996.4	
851.39	5487.2	
851.56	2837.1	
851.73	3427.6	
851.9	4519.9	
852.07	5328.1	
852.24	3339.6	
852.41	3020.1	
852.58	4999.1	
852.75	4673.5	
852.92	3298.6	
853.09	2966.8	
853.26	4743.8	
853.43	5443.5	
853.6	3024.8	
853.77	2572.2	
853.94	5577.3	
854.11	4522.6	
854.28	4353.3	
854.44	3262.4	
854.61	5871.5	
854.78	5313.8	
854.95	2986.6	
855.12	3738.2	
855.29	4218.8	
855.46	5697.4	
855.63	3022.8	
855.8	4049.5	
855.97	4745.1	
856.14	5376.6	
856.31	4138.3	
856.48	3235.1	
856.65	4794.3	
856.82	4498	
856.99	2824.1	
857.16	3269.9	
857.33	6058.6	
857.49	4902.8	
857.66	3209.8	
857.83	3413.3	
858	4865.3	
858.17	5030.5	
858.34	2839.2	
858.51	2994.1	
858.68	5644.2	
858.85	5655.1	
859.02	3454.9	
859.19	3627	
859.36	4638.6	
859.52	4595	
859.69	3001.6	
859.86	3522.5	
860.03	4603.2	
860.2	5571.8	
860.37	2783.2	
860.54	3061	
860.71	5325.4	
860.88	5642.2	
861.05	3306.1	
861.21	3731.4	
861.38	5624.4	
861.55	4397	
861.72	2768.9	
861.89	3317.7	
862.06	5287.2	
862.23	5743.2	
862.4	2884.2	
862.56	3087.7	
862.73	5182.7	
862.9	4961.5	
863.07	3433.1	
863.24	2733.4	
863.41	4496.7	
863.58	4573.1	
863.75	3091.8	
863.91	3387.3	
864.08	5570.5	
864.25	5239.4	
864.42	3700.7	
864.59	4108.2	
864.76	5811.5	
864.93	4552	
865.09	2948.4	
865.26	3151.1	
865.43	5515.9	
865.6	5785.5	
865.77	2644.6	
865.94	2928.6	
866.1	5469.4	
866.27	5246.2	
866.44	4371.7	
866.61	2833	
866.78	4855.7	
866.95	5162.9	
867.11	2894.5	
867.28	2715.6	
867.45	5429.8	
867.62	4567	
867.79	3465.8	
867.96	2998.2	
868.12	4546.5	
868.29	5323.4	
868.46	2987.3	
868.63	3910.9	
868.8	5448.3	
868.97	5272.8	
869.13	3124.5	
869.3	3103.4	
869.47	5122.7	
869.64	5350.7	
869.81	2965.5	
869.97	2963.4	
870.14	5023.7	
870.31	5580	
870.48	2893.8	
870.65	3751.9	
870.81	4787.5	
870.98	4856.4	
871.15	3404.4	
871.32	3142.9	
871.48	5214.8	
871.65	5597.1	
871.82	2973	
871.99	3293.1	
872.16	6014.2	
872.32	5483.8	
872.49	3035.8	
872.66	2984.6	
872.83	5286.5	
872.99	4661.2	
873.16	3447.4	
873.33	3003.7	
873.5	4948.6	
873.67	5009.3	
873.83	3131.3	
874	3969	
874.17	5076.9	
874.34	5891.3	
874.5	3775.8	
874.67	3674.7	
874.84	5579.3	
875.01	4457.7	
875.17	4016.7	
875.34	3001.6	
875.51	5061.2	
875.68	5954.1	
875.84	3521.1	
876.01	4235.2	
876.18	5302.9	
876.34	5216.2	
876.51	3022.8	
876.68	2893.1	
876.85	4811.4	
877.01	5482.4	
877.18	4161.5	
877.35	2981.2	
877.52	4968.4	
877.68	4500.1	
877.85	2915.6	
878.02	2985.3	
878.18	4821.6	
878.35	4684.4	
878.52	2421.4	
878.69	3322.5	
878.85	5360.9	
879.02	5177.9	
879.19	4138.3	
879.35	3166.8	
879.52	5218.9	
879.69	5370.5	
879.86	2634.4	
880.02	3301.3	
880.19	4894.6	
880.36	5853.8	
880.52	3408.5	
880.69	3525.2	
880.86	5351.3	
881.02	5332.9	
881.19	3273.3	
881.36	3218	
881.52	5202.5	
881.69	4625.7	
881.86	3213.3	
882.02	3091.1	
882.19	5412.1	
882.36	6200.6	
882.52	3011.2	
882.69	4103.4	
882.86	5031.9	
883.02	5046.9	
883.19	3601.7	
883.36	3307.5	
883.52	5286.5	
883.69	5920	
883.86	3053.5	
884.02	2713.6	
884.19	5266	
884.36	4962.2	
884.52	3345	
884.69	3186	
884.86	4737.6	
885.02	5702.9	
885.19	3337.5	
885.36	3389.4	
885.52	4889.9	
885.69	5061.2	
885.86	4192.9	
886.02	3748.5	
886.19	5277.6	
886.35	4777.9	
886.52	3283.6	
886.69	4007.9	
886.85	4538.3	
887.02	5448.3	
887.19	5448.3	
887.35	5448.3	
887.52	5448.3	
887.68	5448.3	
887.85	5448.3	
888.02	5448.3	
888.18	5448.3	
888.35	5448.3	
888.51	5448.3	
888.68	5448.3	
888.85	5448.3	
889.01	5448.3	
889.18	5448.3	
889.35	5448.3	
889.51	5448.3	
889.68	5448.3	
889.84	5448.3	
890.01	5448.3	
890.17	5448.3	
890.34	5448.3	
890.51	5448.3	
890.67	5448.3	
890.84	5448.3	
891	5448.3	
891.17	5448.3	
891.34	5448.3	
891.5	5448.3	
891.67	5448.3	
891.83	5448.3	
892	5448.3	
892.16	5448.3	
892.33	5448.3	
892.5	5448.3	
892.66	5448.3	
892.83	5448.3	
892.99	5448.3	
893.16	5448.3	
893.32	5448.3	
893.49	5448.3	
893.65	5448.3	
893.82	5448.3	
893.99	5448.3	
894.15	5448.3	
894.32	5448.3	
894.48	5448.3	
894.65	5448.3	
894.81	5448.3	
894.98	5448.3	
895.14	5448.3	
895.31	5448.3	
895.47	5448.3	
895.64	5448.3	
895.81	5448.3	
895.97	5448.3	
896.14	5448.3	
896.3	5448.3	
896.47	5448.3	
896.63	5448.3	
896.8	5448.3	
896.96	5448.3	
897.13	5448.3	
897.29	5448.3	
897.46	5448.3	
897.62	5448.3	
897.79	5448.3	
897.95	5448.3	
898.12	5448.3	
898.28	5448.3	
898.45	5448.3	
898.61	5448.3	
898.78	5448.3	
898.94	5448.3	
899.11	5448.3	
899.27	5448.3	
899.44	5448.3	
899.6	5448.3	
899.77	5448.3	
899.93	5448.3	
900.1	5448.3	
900.26	5448.3	
900.43	5448.3	
900.59	5448.3	
900.76	5448.3	
900.92	5448.3	
901.09	5448.3	
901.25	5448.3	
901.42	5448.3	
901.58	5448.3	
901.75	5448.3	
901.91	5448.3	
902.07	5448.3	
902.24	5448.3	
902.4	5448.3	
902.57	5448.3	
902.73	5448.3	
902.9	5448.3	
903.06	5448.3	
903.23	5448.3	
903.39	5448.3	
903.56	5448.3	
903.72	5448.3	
903.88	5448.3	
904.05	5448.3	
904.21	5448.3	
904.38	5448.3	
904.54	5448.3	
904.71	5448.3	
904.87	5448.3	
905.03	5448.3	
905.2	5448.3	
905.36	5448.3	
905.53	5448.3	
905.69	5448.3	
905.86	5448.3	
906.02	5448.3	
906.18	5448.3	
906.35	5448.3	
906.51	5448.3	
906.68	5448.3	
906.84	5448.3	
907.01	5448.3	
907.17	5448.3	
907.33	5448.3	
907.5	5448.3	
907.66	5448.3	
907.83	5448.3	
907.99	5448.3	
908.15	5448.3	
908.32	5448.3	
908.48	5448.3	
908.65	5448.3	
908.81	5448.3	
908.97	5448.3	
909.14	5448.3	
909.3	5448.3	
909.47	5448.3	
909.63	5448.3	
909.79	5448.3	
909.96	5448.3	
910.12	5448.3	
910.28	5448.3	
910.45	5448.3	
910.61	5448.3	
910.78	5448.3	
910.94	5448.3	
911.1	5448.3	
911.27	5448.3	
911.43	5448.3	
911.59	5448.3	
911.76	5448.3	
911.92	5448.3	
912.08	5448.3	
912.25	5448.3	
912.41	5448.3	
912.57	5448.3	
912.74	5448.3	
912.9	5448.3	
913.07	5448.3	
913.23	5448.3	
913.39	5448.3	
913.56	5448.3	
913.72	5448.3	
913.88	5448.3	
914.05	5448.3	
914.21	5448.3	
914.37	5448.3	
914.54	5448.3	
914.7	5448.3	
914.86	5448.3	
915.03	5448.3	
915.19	5448.3	
