Wavelength	Intensities	
nm	a.u.	
179.22	1841.8	
179.44	1837	
179.65	1846.6	
179.86	1827.5	
180.08	1843.9	
180.29	4613.4	
180.51	3352.5	
180.72	5438	
180.94	6266.8	
181.15	3093.1	
181.37	3025.5	
181.58	5251	
181.79	5531.6	
182.01	3197.6	
182.22	3453.6	
182.44	5561.6	
182.65	4688.5	
182.87	4287.1	
183.08	3734.8	
183.29	5767.8	
183.51	4790.9	
183.72	3409.2	
183.94	5016.8	
184.15	5167.7	
184.37	5183.4	
184.58	3052.8	
184.79	4115.7	
185.01	4820.9	
185.22	5485.8	
185.44	4323.9	
185.65	3642.7	
185.86	5092.6	
186.08	4742.4	
186.29	3009.8	
186.51	3190.1	
186.72	4866	
186.94	5638.7	
187.15	3648.8	
187.36	3781.2	
187.58	7270.3	
187.79	5328.1	
188.01	3897.3	
188.22	6034	
188.43	6337.8	
188.65	5535	
188.86	3160	
189.08	3784.6	
189.29	5001.1	
189.5	5029.1	
189.72	3523.2	
189.93	3599.6	
190.15	5663.3	
190.36	6707.8	
190.57	3790.1	
190.79	3685.7	
191	5803.9	
191.22	5700.2	
191.43	3857.7	
191.64	3136.1	
191.86	5950.7	
192.07	5732.9	
192.29	3334.1	
192.5	3425.6	
192.71	5737	
192.93	4930.8	
193.14	3503.4	
193.35	3569.6	
193.57	4958.1	
193.78	5599.1	
194	2792.1	
194.21	3440.6	
194.42	4762.2	
194.64	5229.1	
194.85	3746.4	
195.07	4418.8	
195.28	5169.1	
195.49	4503.5	
195.71	4683.7	
195.92	3220.1	
196.13	5366.4	
196.35	5479	
196.56	4921.3	
196.78	3793.5	
196.99	6647	
197.2	6302.3	
197.42	4225.6	
197.63	3795.6	
197.84	4666.6	
198.06	5389.6	
198.27	3525.2	
198.48	4650.3	
198.7	4992.9	
198.91	5116.5	
199.13	3865.2	
199.34	3790.8	
199.55	5599.1	
199.77	4491.9	
199.98	3353.2	
200.19	3804.4	
200.41	5150.6	
200.62	4787.5	
200.83	3951.9	
201.05	4254.3	
201.26	5111	
201.47	4883.7	
201.69	3373.7	
201.9	3298.6	
202.11	5136.3	
202.33	6074.3	
202.54	3554.6	
202.76	4041.3	
202.97	5295.4	
203.18	5326.1	
203.4	3938.2	
203.61	3837.2	
203.82	5244.8	
204.04	4875.5	
204.25	3830.4	
204.46	3734.8	
204.68	5155.4	
204.89	5396.4	
205.1	3695.9	
205.32	3207.1	
205.53	5581.4	
205.74	5673.6	
205.96	2747.7	
206.17	3856.3	
206.38	5528.2	
206.6	5679	
206.81	4332.8	
207.02	3572.3	
207.24	5425.1	
207.45	5820.3	
207.66	3545	
207.88	3090.4	
208.09	5399.1	
208.3	5165	
208.52	3315	
208.73	3635.1	
208.94	5152	
209.15	5844.9	
209.37	3646.7	
209.58	3838.6	
209.79	5656.5	
210.01	5005.2	
210.22	2915.6	
210.43	3048.7	
210.65	5177.3	
210.86	5568.4	
211.07	3635.8	
211.29	3293.8	
211.5	5488.6	
211.71	5162.2	
211.93	3355.9	
212.14	3388	
212.35	5137.7	
212.56	5324	
212.78	3800.3	
212.99	3158.7	
213.2	6008.7	
213.42	5008.6	
213.63	3448.8	
213.84	3695.9	
214.06	4584.7	
214.27	4730.1	
214.48	3603.1	
214.69	3852.9	
214.91	5839.4	
215.12	5922	
215.33	3899.3	
215.55	4243.4	
215.76	6275	
215.97	5505.6	
216.18	3722.5	
216.4	3707.5	
216.61	4846.9	
216.82	5651	
217.04	3336.8	
217.25	3526.6	
217.46	5811.5	
217.67	5569.1	
217.89	3031	
218.1	3119.1	
218.31	5246.9	
218.53	5305.6	
218.74	3560.7	
218.95	3390.1	
219.16	5068	
219.38	6029.9	
219.59	3398.9	
219.8	4044.1	
220.01	6633.4	
220.23	5193	
220.44	4434.5	
220.65	3312.9	
220.87	5253.7	
221.08	5765.7	
221.29	3185.3	
221.5	4076.8	
221.72	6972.7	
221.93	4973.8	
222.14	3863.8	
222.35	4506.9	
222.57	5193	
222.78	5542.5	
222.99	3644	
223.2	3936.9	
223.42	5487.9	
223.63	5599.8	
223.84	2826.2	
224.05	2806.4	
224.27	6517.3	
224.48	5994.4	
224.69	4443.4	
224.9	3825.6	
225.12	5397.8	
225.33	5130.8	
225.54	3041.2	
225.75	3411.9	
225.97	4807.9	
226.18	5058.5	
226.39	3677.5	
226.6	3432.4	
226.82	4988.9	
227.03	4869.4	
227.24	3773	
227.45	3173	
227.67	5540.4	
227.88	6001.2	
228.09	4200.4	
228.3	4201.7	
228.52	5533.6	
228.73	5193	
228.94	3525.9	
229.15	3211.2	
229.36	5127.4	
229.58	5054.4	
229.79	3525.2	
230	4143	
230.21	6167.1	
230.43	5298.8	
230.64	3755.3	
230.85	3962.8	
231.06	5560.2	
231.28	5570.5	
231.49	3127.9	
231.7	3702.7	
231.91	5454.4	
232.12	5187.5	
232.34	3258.3	
232.55	3676.1	
232.76	5737.7	
232.97	5370.5	
233.18	3335.5	
233.4	3732.1	
233.61	5404.6	
233.82	4947.2	
234.03	3521.8	
234.25	3484.3	
234.46	7107.8	
234.67	5236	
234.88	3926	
235.09	3397.6	
235.31	5446.2	
235.52	5101.5	
235.73	3752.6	
235.94	3252.2	
236.15	4934.2	
236.37	6243.6	
236.58	3363.4	
236.79	3647.4	
237	5507	
237.21	4764.3	
237.43	3948.5	
237.64	3082.2	
237.85	9104.6	
238.06	4767	
238.27	3998.3	
238.48	3166.2	
238.7	5550	
238.91	5068	
239.12	3613.3	
239.33	3698.6	
239.54	4840	
239.76	5098.8	
239.97	3564.8	
240.18	3637.9	
240.39	6412.9	
240.6	5421	
240.82	3795.6	
241.03	3183.2	
241.24	5189.6	
241.45	5979.4	
241.66	3316.3	
241.87	3947.1	
242.09	5849.7	
242.3	6247.7	
242.51	3936.9	
242.72	3686.3	
242.93	5561.6	
243.14	5128.8	
243.36	4211.3	
243.57	4444.1	
243.78	5963.7	
243.99	5430.5	
244.2	3691.1	
244.41	3309.5	
244.63	4734.9	
244.84	5457.8	
245.05	3855	
245.26	3637.2	
245.47	5495.4	
245.68	5625.8	
245.9	4809.3	
246.11	3806.5	
246.32	5083.1	
246.53	5413.5	
246.74	5907.7	
246.95	3090.4	
247.16	4749.2	
247.38	5195.7	
247.59	3069.2	
247.8	3652.9	
248.01	4872.8	
248.22	5120.6	
248.43	3306.8	
248.64	3594.2	
248.86	4631.1	
249.07	4959.5	
249.28	3233.7	
249.49	3746.4	
249.7	5664.7	
249.91	5814.9	
250.12	3065.8	
250.34	3108.8	
250.55	5270.8	
250.76	5178.6	
250.97	3789.4	
251.18	3814	
251.39	5765	
251.6	5363.6	
251.81	3844	
252.03	3874.8	
252.24	4940.4	
252.45	5668.1	
252.66	3182.5	
252.87	4057	
253.08	5214.8	
253.29	6745.3	
253.5	3183.9	
253.72	4453	
253.93	5033.9	
254.14	6070.2	
254.35	3454.9	
254.56	3571	
254.77	5439.4	
254.98	4776.5	
255.19	3454.9	
255.41	4399	
255.62	5309	
255.83	5764.3	
256.04	3947.8	
256.25	3818.8	
256.46	6282.5	
256.67	4906.3	
256.88	3781.9	
257.09	4119.8	
257.31	4855.7	
257.52	4883.7	
257.73	4785.4	
257.94	3477.5	
258.15	5043.5	
258.36	5202.5	
258.57	4375.1	
258.78	2761.3	
258.99	5696.8	
259.2	5036	
259.41	3549.8	
259.63	3576.4	
259.84	5937.1	
260.05	6351.4	
260.26	4560.8	
260.47	3412.6	
260.68	5711.1	
260.89	5079	
261.1	4235.2	
261.31	3375.7	
261.52	5866.7	
261.73	6046.3	
261.95	4491.2	
262.16	3944.4	
262.37	5827.2	
262.58	5916.6	
262.79	4439.3	
263	3543	
263.21	5211.4	
263.42	5114.5	
263.63	3562.1	
263.84	3530.7	
264.05	5703.6	
264.26	6047.7	
264.47	4422.2	
264.69	3885	
264.9	5907	
265.11	5392.3	
265.32	3340.9	
265.53	3422.8	
265.74	5324.7	
265.95	4631.8	
266.16	3743.7	
266.37	4114.4	
266.58	5284.4	
266.79	5018.2	
267	3489.7	
267.21	3252.9	
267.42	4806.6	
267.63	5209.3	
267.84	3631	
268.06	3152.5	
268.27	5629.2	
268.48	5858.6	
268.69	3564.1	
268.9	4184.7	
269.11	5870.8	
269.32	4709.6	
269.53	3663.1	
269.74	3427.6	
269.95	5483.8	
270.16	4582	
270.37	3665.2	
270.58	4260.5	
270.79	5132.2	
271	5654.4	
271.21	3867.2	
271.42	3652.2	
271.63	5281	
271.84	4820.2	
272.05	2936.1	
272.26	3334.1	
272.47	5173.9	
272.68	5362.3	
272.89	3530	
273.11	4042.7	
273.32	5002.5	
273.53	6086.6	
273.74	3900	
273.95	3876.1	
274.16	5763.7	
274.37	5238.7	
274.58	4064.5	
274.79	3211.2	
275	5323.4	
275.21	5854.5	
275.42	4764.9	
275.63	4121.9	
275.84	5421	
276.05	6709.8	
276.26	3844.7	
276.47	3645.4	
276.68	5018.9	
276.89	6138.4	
277.1	4135.5	
277.31	3253.5	
277.52	5358.9	
277.73	5565.7	
277.94	3209.2	
278.15	3565.5	
278.36	5373.2	
278.57	4858.5	
278.78	3498.6	
278.99	3915	
279.2	4867.3	
279.41	4799.1	
279.62	4582.7	
279.83	3315	
280.04	6271.6	
280.25	4777.2	
280.46	4519.9	
280.67	3660.4	
280.88	4822.3	
281.09	5833.3	
281.3	3816.7	
281.51	4861.9	
281.72	4945.2	
281.93	5646.9	
282.14	3420.8	
282.35	3691.1	
282.56	5680.4	
282.77	5621.7	
282.98	3565.5	
283.19	4323.3	
283.4	6860.7	
283.61	5145.2	
283.82	3239.2	
284.03	4547.2	
284.24	5268.1	
284.45	5806	
284.66	4564.9	
284.87	4315.8	
285.08	5790.3	
285.29	5866.1	
285.5	3097.9	
285.71	3598.3	
285.92	5780.7	
286.12	6310.5	
286.33	4483.7	
286.54	3599	
286.75	5606.7	
286.96	5066	
287.17	3287	
287.38	4378.6	
287.59	4901.5	
287.8	4818.9	
288.01	3594.9	
288.22	4076.8	
288.43	5649	
288.64	4709	
288.85	4257.7	
289.06	4104.8	
289.27	5649	
289.48	6055.8	
289.69	4510.3	
289.9	4076.8	
290.11	5834.7	
290.32	4952	
290.53	4225	
290.74	3937.6	
290.94	5614.2	
291.15	5572.5	
291.36	3482.2	
291.57	4050.2	
291.78	4962.9	
291.99	4661.2	
292.2	3276.8	
292.41	3917.1	
292.62	5717.9	
292.83	5513.1	
293.04	4839.4	
293.25	3383.2	
293.46	5029.1	
293.67	5716.6	
293.88	3407.8	
294.09	3321.1	
294.29	4808.6	
294.5	5331.5	
294.71	3715	
294.92	3519.1	
295.13	5023.7	
295.34	6227.2	
295.55	3059.7	
295.76	3123.8	
295.97	5594.4	
296.18	6235.4	
296.39	3222.8	
296.6	3459	
296.81	5255.8	
297.01	5536.3	
297.22	3590.8	
297.43	3460.4	
297.64	4870.1	
297.85	4888.5	
298.06	2869.2	
298.27	3118.4	
298.48	5285.1	
298.69	4937	
298.9	3723.9	
299.11	3377.8	
299.31	4745.8	
299.52	4790.9	
299.73	3992.9	
299.94	3889.8	
300.15	5201.8	
300.36	4861.9	
300.57	3932.8	
300.78	3902.7	
300.99	5081.7	
301.2	5309	
301.4	3411.2	
301.61	3754.6	
301.82	5504.9	
302.03	5653.1	
302.24	4179.2	
302.45	3269.2	
302.66	5440.1	
302.87	5856.5	
303.08	3435.1	
303.29	4693.3	
303.49	4971.1	
303.7	5218.9	
303.91	3053.5	
304.12	4511	
304.33	4739	
304.54	5331.5	
304.75	3461.7	
304.96	3308.2	
305.16	5479.7	
305.37	6137.1	
305.58	3005.7	
305.79	3124.5	
306	5487.9	
306.21	4612	
306.42	3480.2	
306.63	5173.9	
306.83	5048.9	
307.04	5672.2	
307.25	3803.8	
307.46	3755.3	
307.67	4474.8	
307.88	5638.1	
308.09	3448.8	
308.29	3485	
308.5	5290.6	
308.71	5814.9	
308.92	3713.7	
309.13	3321.8	
309.34	5091.3	
309.55	5081.7	
309.75	4270.7	
309.96	3958.7	
310.17	5575.9	
310.38	4925.4	
310.59	4094.6	
310.8	3226.2	
311.01	6199.9	
311.21	5109	
311.42	3334.8	
311.63	3364.1	
311.84	5002.5	
312.05	5337.7	
312.26	3809.9	
312.46	4216.8	
312.67	5068.7	
312.88	4758.8	
313.09	3302	
313.3	3285.6	
313.51	5894.1	
313.71	6267.5	
313.92	3300	
314.13	3536.8	
314.34	5358.2	
314.55	5129.5	
314.76	4239.3	
314.96	3696.6	
315.17	5313.8	
315.38	5556.1	
315.59	3359.4	
315.8	3166.2	
316.01	5991	
316.21	6029.2	
316.42	3212.6	
316.63	3736.9	
316.84	5068	
317.05	5845.6	
317.26	3915	
317.46	3568.2	
317.67	5143.1	
317.88	5528.8	
318.09	4218.8	
318.3	3069.2	
318.5	4997.7	
318.71	5490.6	
318.92	5276.3	
319.13	3956	
319.34	5683.8	
319.54	5757.5	
319.75	3122.5	
319.96	2981.8	
320.17	5540.4	
320.38	5772.5	
320.58	3084.9	
320.79	3653.6	
321	5717.9	
321.21	5759.6	
321.42	3687.7	
321.62	3032.4	
321.83	4847.5	
322.04	5199.1	
322.25	3564.8	
322.46	3336.1	
322.66	5283.1	
322.87	5479	
323.08	4152.6	
323.29	3266.5	
323.5	6232	
323.7	4787.5	
323.91	4530.8	
324.12	4075.5	
324.33	5275.6	
324.53	5466	
324.74	3907.5	
324.95	4121.2	
325.16	4659.8	
325.37	5045.5	
325.57	3351.8	
325.78	3383.9	
325.99	5315.2	
326.2	4742.4	
326.4	4718.5	
326.61	3102.7	
326.82	5147.9	
327.03	5322	
327.24	4721.9	
327.44	4425.7	
327.65	5443.5	
327.86	4435.2	
328.07	3876.1	
328.27	3195.5	
328.48	5880.4	
328.69	4810.7	
328.9	4726	
329.1	3609.9	
329.31	5069.4	
329.52	5954.1	
329.73	3302	
329.93	3739.6	
330.14	5214.1	
330.35	5396.4	
330.56	5411.4	
330.76	4104.1	
330.97	5043.5	
331.18	5404.6	
331.39	3720.5	
331.59	3005.7	
331.8	5718.6	
332.01	5894.1	
332.22	3442	
332.42	3920.5	
332.63	5294	
332.84	4927.4	
333.05	3729.4	
333.25	3426.9	
333.46	4969.7	
333.67	5227.1	
333.88	3517	
334.08	3841.3	
334.29	6888.7	
334.5	5804.6	
334.7	3282.9	
334.91	4731.5	
335.12	4773.8	
335.33	5575.9	
335.53	3706.1	
335.74	5427.8	
335.95	5031.2	
336.16	4809.3	
336.36	3739.6	
336.57	4157.4	
336.78	4797.7	
336.98	5795.1	
337.19	4589.5	
337.4	3583.9	
337.61	6204	
337.81	4829.8	
338.02	3428.3	
338.23	4366.3	
338.43	5905	
338.64	4882.4	
338.85	3365.5	
339.05	4345.1	
339.26	6039.5	
339.47	4667.3	
339.68	3388.7	
339.88	4887.1	
340.09	5485.8	
340.3	5709.7	
340.5	3846.1	
340.71	2984.6	
340.92	4758.8	
341.13	5843.5	
341.33	3251.5	
341.54	3903.4	
341.75	5413.5	
341.95	5063.9	
342.16	3730	
342.37	4070	
342.57	4805.2	
342.78	5163.6	
342.99	4118.5	
343.19	2999.6	
343.4	5569.1	
343.61	5440.8	
343.81	3618.8	
344.02	3251.5	
344.23	5601.2	
344.43	5964.4	
344.64	4103.4	
344.85	4048.8	
345.06	5468.8	
345.26	5789.6	
345.47	3865.2	
345.68	4506.9	
345.88	4552.6	
346.09	5597.1	
346.3	3913	
346.5	2949.1	
346.71	5166.3	
346.92	4906.9	
347.12	3088.3	
347.33	3779.9	
347.54	5673.6	
347.74	6108.4	
347.95	3767.6	
348.16	2849.4	
348.36	5000.5	
348.57	4819.6	
348.78	3825.6	
348.98	4126.7	
349.19	5156.8	
349.39	4711	
349.6	3102.7	
349.81	3395.5	
350.01	5388.2	
350.22	4901.5	
350.43	3666.5	
350.63	4394.9	
350.84	5222.3	
351.05	4986.8	
351.25	3362.1	
351.46	3041.2	
351.67	5674.9	
351.87	4865.3	
352.08	3585.3	
352.29	4064.5	
352.49	5604.6	
352.7	5666.7	
352.9	3234.4	
353.11	4069.3	
353.32	6251.1	
353.52	5022.3	
353.73	3166.8	
353.94	4078.2	
354.14	5476.3	
354.35	5244.2	
354.55	3282.2	
354.76	3654.3	
354.97	5402.5	
355.17	5137.7	
355.38	3115.6	
355.59	4338.3	
355.79	4868	
356	5256.5	
356.2	3615.3	
356.41	3234.4	
356.62	4631.8	
356.82	5102.2	
357.03	3867.2	
357.24	3512.9	
357.44	4887.1	
357.65	4988.9	
357.85	4610.7	
358.06	3640.6	
358.27	4649.6	
358.47	4883	
358.68	3078.8	
358.88	3867.2	
359.09	5438.7	
359.3	5705.6	
359.5	4500.1	
359.71	3989.4	
359.91	6154.1	
360.12	5465.3	
360.33	3863.8	
360.53	4259.1	
360.74	4889.9	
360.94	4915.8	
361.15	4080.2	
361.36	3338.2	
361.56	5598.5	
361.77	5076.2	
361.97	4467.3	
362.18	3492.5	
362.38	5547.9	
362.59	4705.5	
362.8	3260.4	
363	3110.9	
363.21	4534.9	
363.41	5251	
363.62	3728	
363.83	4629.1	
364.03	5214.1	
364.24	6120	
364.44	4724	
364.65	4763.6	
364.85	4990.2	
365.06	4640	
365.27	3378.5	
365.47	3419.4	
365.68	5880.4	
365.88	5010	
366.09	3771.7	
366.29	3459	
366.5	5167.7	
366.71	5608.7	
366.91	4696.7	
367.12	3941.7	
367.32	6101.6	
367.53	5452.4	
367.73	3903.4	
367.94	4708.3	
368.14	5399.1	
368.35	6244.9	
368.56	3809.9	
368.76	3718.4	
368.97	5543.9	
369.17	7113.3	
369.38	3405.1	
369.58	3678.8	
369.79	4658.4	
369.99	5892	
370.2	4556.7	
370.4	3722.5	
370.61	5253	
370.82	6380.1	
371.02	3629.7	
371.23	3015.3	
371.43	4592.9	
371.64	5782.1	
371.84	3703.4	
372.05	4759.5	
372.25	7017.7	
372.46	5515.9	
372.66	3651.5	
372.87	3572.3	
373.07	5567.1	
373.28	6965.8	
373.48	4498.7	
373.69	4321.2	
373.9	5025.7	
374.1	5059.8	
374.31	4403.1	
374.51	4041.3	
374.72	5728.2	
374.92	4793.6	
375.13	4552	
375.33	3807.9	
375.54	5391.6	
375.74	4853	
375.95	3921.2	
376.15	5124	
376.36	5435.3	
376.56	5276.9	
376.77	3917.8	
376.97	4304.1	
377.18	6337.1	
377.38	5372.5	
377.59	4692.6	
377.79	3506.8	
378	5212.8	
378.2	5558.2	
378.41	3516.4	
378.61	3463.1	
378.82	5713.8	
379.02	4845.5	
379.23	3683.6	
379.43	4673.5	
379.64	5765	
379.84	5436	
380.05	3476.1	
380.25	3458.3	
380.46	5479	
380.66	5107.6	
380.87	4762.2	
381.07	5017.5	
381.28	6053.8	
381.48	5481.7	
381.69	3547.8	
381.89	3566.2	
382.1	4554.7	
382.3	5635.3	
382.51	4567.7	
382.71	5442.8	
382.91	5524.7	
383.12	5939.8	
383.32	3923.2	
383.53	4170.3	
383.73	5392.3	
383.94	5184.8	
384.14	4052.2	
384.35	3267.9	
384.55	5178.6	
384.76	5547.3	
384.96	3922.5	
385.17	4209.3	
385.37	5554.8	
385.58	4863.2	
385.78	4176.5	
385.98	3206.4	
386.19	5054.4	
386.39	5458.5	
386.6	3698.6	
386.8	3906.2	
387.01	5534.3	
387.21	5529.5	
387.42	4280.9	
387.62	4823	
387.83	4863.2	
388.03	5467.4	
388.23	3921.9	
388.44	4646.2	
388.64	4676.9	
388.85	4727.4	
389.05	4218.8	
389.26	4790.2	
389.46	6462.7	
389.67	5831.9	
389.87	4175.8	
390.07	4263.9	
390.28	5141.8	
390.48	4769.7	
390.69	3574.4	
390.89	3809.9	
391.1	4970.4	
391.3	5835.3	
391.5	4894	
391.71	5466.7	
391.91	5505.6	
392.12	6552.8	
392.32	4962.2	
392.53	4252.3	
392.73	5055.1	
392.93	5216.2	
393.14	3926.6	
393.34	5039.4	
393.55	5700.2	
393.75	5103.5	
393.95	3919.8	
394.16	3871.3	
394.36	4918.5	
394.57	5598.5	
394.77	3424.9	
394.98	3907.5	
395.18	4913.8	
395.38	4972.5	
395.59	4572.4	
395.79	3680.2	
396	5013.4	
396.2	5395	
396.4	4445.5	
396.61	4342.4	
396.81	5621.7	
397.02	4912.4	
397.22	4591.5	
397.42	4615.4	
397.63	5621.7	
397.83	4843.4	
398.04	3609.2	
398.24	3960.1	
398.44	5381.4	
398.65	4498	
398.85	3433.1	
399.05	3560.7	
399.26	4827.1	
399.46	6427.2	
399.67	3910.9	
399.87	3639.9	
400.07	5158.2	
400.28	5474.9	
400.48	3762.1	
400.69	4640	
400.89	5702.9	
401.09	6152.8	
401.3	3575.1	
401.5	4596.3	
401.7	6258.6	
401.91	6528.9	
402.11	3941.7	
402.32	4199	
402.52	5709.1	
402.72	5621.7	
402.93	4384.7	
403.13	3373	
403.33	6482.5	
403.54	5259.2	
403.74	4119.8	
403.94	4992.3	
404.15	5386.8	
404.35	6346.7	
404.56	3901.4	
404.76	5524.7	
404.96	5756.2	
405.17	5478.3	
405.37	4967.7	
405.57	4294.6	
405.78	5698.8	
405.98	5247.6	
406.18	3903.4	
406.39	4754	
406.59	5676.3	
406.79	5328.8	
407	3715.7	
407.2	3831.1	
407.4	5718.6	
407.61	5849	
407.81	3773	
408.01	5304.2	
408.22	4681	
408.42	6483.2	
408.62	4655	
408.83	4151.2	
409.03	5237.3	
409.23	5087.2	
409.44	4273.4	
409.64	4493.9	
409.84	6044.9	
410.05	5985.5	
410.25	4330.1	
410.45	4080.9	
410.66	5473.5	
410.86	7710.6	
411.06	4504.2	
411.27	4339	
411.47	7460.1	
411.67	5622.4	
411.88	4605.9	
412.08	4822.3	
412.28	6212.9	
412.49	6692.1	
412.69	4361.5	
412.89	4369	
413.09	6449.1	
413.3	6339.8	
413.5	4504.2	
413.7	4065.2	
413.91	5600.5	
414.11	6475.7	
414.31	4271.4	
414.52	4610.7	
414.72	6174.6	
414.92	6045.6	
415.12	4274.8	
415.33	4780	
415.53	6432.7	
415.73	6504.3	
415.94	5158.8	
416.14	4555.4	
416.34	5457.8	
416.55	5161.6	
416.75	5664.7	
416.95	5117.9	
417.15	6382.8	
417.36	7071	
417.56	5750	
417.76	4928.8	
417.97	6712.6	
418.17	6367.1	
418.37	4543.1	
418.57	4596.3	
418.78	6263.4	
418.98	5912.5	
419.18	5429.2	
419.38	5337.7	
419.59	5997.8	
419.79	5604.6	
419.99	4504.2	
420.2	4861.2	
420.4	6476.4	
420.6	6641.6	
420.8	4428.4	
421.01	4280.9	
421.21	6213.5	
421.41	6359.6	
421.61	4809.3	
421.82	4542.4	
422.02	5841.5	
422.22	6736.5	
422.42	5261.2	
422.63	4996.4	
422.83	5913.2	
423.03	7034.1	
423.23	5023	
423.44	4018.8	
423.64	5997.1	
423.84	5773.2	
424.04	4507.6	
424.25	4132.8	
424.45	6916	
424.65	6855.9	
424.85	3984	
425.06	4521.2	
425.26	6855.2	
425.46	5834	
425.66	4952.7	
425.87	4693.9	
426.07	6656.6	
426.27	6506.4	
426.47	4788.2	
426.67	4249.5	
426.88	6980.2	
427.08	6405.4	
427.28	5053	
427.48	4239.3	
427.69	5466	
427.89	6033.3	
428.09	4967.7	
428.29	4243.4	
428.5	6668.2	
428.7	6221	
428.9	4117.8	
429.1	4555.4	
429.3	6142.5	
429.51	6520	
429.71	4495.3	
429.91	5162.9	
430.11	6377.4	
430.31	6675	
430.52	4695.3	
430.72	4984.1	
430.92	6916.7	
431.12	6483.9	
431.32	4473.4	
431.53	4832.5	
431.73	5509	
431.93	6970.6	
432.13	4366.3	
432.33	4178.5	
432.54	5906.3	
432.74	6252.4	
432.94	4170.3	
433.14	5115.1	
433.34	6354.2	
433.55	5877	
433.75	5072.8	
433.95	6630.6	
434.15	6273.6	
434.35	5940.5	
434.56	4330.1	
434.76	3850.2	
434.96	6163.7	
435.16	6335	
435.36	4250.9	
435.56	5242.8	
435.77	5893.4	
435.97	5997.8	
436.17	5835.3	
436.37	5195.7	
436.57	5819	
436.78	5700.9	
436.98	5137	
437.18	5701.5	
437.38	6430.6	
437.58	6090.7	
437.78	5886.5	
437.99	4676.2	
438.19	6481.1	
438.39	7273.7	
438.59	4551.3	
438.79	4093.9	
438.99	7158.3	
439.2	5946.6	
439.4	4233.8	
439.6	4150.5	
439.8	6266.8	
440	7254.6	
440.2	5097.4	
440.4	5199.8	
440.61	6535.8	
440.81	7081.2	
441.01	4323.3	
441.21	5096.7	
441.41	6948.1	
441.61	6655.2	
441.81	5491.3	
442.02	6410.8	
442.22	7475.8	
442.42	6664.8	
442.62	4416.1	
442.82	4541.7	
443.02	7002.7	
443.22	6161	
443.43	4809.3	
443.63	4491.9	
443.83	6026.5	
444.03	6032.6	
444.23	5478.3	
444.43	5167	
444.63	6358.3	
444.83	7367.2	
445.04	4545.8	
445.24	5734.3	
445.44	6712.6	
445.64	6776	
445.84	5289.2	
446.04	5259.2	
446.24	6172.6	
446.44	7145.4	
446.65	4641.4	
446.85	4941.1	
447.05	6175.3	
447.25	7091.4	
447.45	4994.3	
447.65	4407.9	
447.85	6481.1	
448.05	6071.5	
448.25	5369.8	
448.46	5155.4	
448.66	6384.2	
448.86	6165.1	
449.06	4283.7	
449.26	5397.8	
449.46	6786.3	
449.66	5843.5	
449.86	4874.8	
450.06	4873.5	
450.26	6007.4	
450.47	6632.7	
450.67	5184.1	
450.87	5470.1	
451.07	6700.3	
451.27	6469.5	
451.47	4524	
451.67	5031.2	
451.87	6123.4	
452.07	7242.3	
452.27	4690.5	
452.47	4751.3	
452.67	6406.7	
452.88	6985.6	
453.08	4184.7	
453.28	5984.8	
453.48	7545.4	
453.68	6408.8	
453.88	4694.6	
454.08	4906.9	
454.28	6682.5	
454.48	6352.1	
454.68	5378	
454.88	5800.5	
455.08	6887.3	
455.28	6565.8	
455.48	4499.4	
455.68	5128.8	
455.89	7231.4	
456.09	6951.5	
456.29	4830.5	
456.49	4868.7	
456.69	7159	
456.89	6416.3	
457.09	5343.8	
457.29	5614.8	
457.49	6778.8	
457.69	6835.4	
457.89	5156.1	
458.09	4575.2	
458.29	6505.7	
458.49	7144.7	
458.69	5456.5	
458.89	5014.8	
459.09	7421.2	
459.29	7512.6	
459.49	5134.3	
459.69	5834	
459.9	7038.2	
460.1	6528.2	
460.3	5027.1	
460.5	4846.2	
460.7	7004.7	
460.9	6707.8	
461.1	4545.1	
461.3	5664.7	
461.5	7520.1	
461.7	7138.5	
461.9	4884.4	
462.1	5279.7	
462.3	6708.5	
462.5	7250.5	
462.7	4897.4	
462.9	4944.5	
463.1	8200.1	
463.3	7793.2	
463.5	5190.2	
463.7	6015.6	
463.9	6894.1	
464.1	7225.9	
464.3	5197.1	
464.5	5567.1	
464.7	7467.6	
464.9	7056.6	
465.1	6764.4	
465.3	5823.1	
465.5	7882.6	
465.7	7697.6	
465.9	6068.1	
466.1	5991.7	
466.3	7496.2	
466.5	7402	
466.7	6712.6	
466.9	5685.2	
467.1	7395.9	
467.3	8231.5	
467.5	6642.2	
467.7	5574.6	
467.9	8469	
468.1	9205.6	
468.3	6319.3	
468.5	6717.3	
468.7	7334.5	
468.9	7382.9	
469.1	5913.9	
469.3	6504.3	
469.5	9235.7	
469.7	6963.1	
469.9	6394.4	
470.1	5689.9	
470.3	7413.6	
470.5	7447.1	
470.7	6809.5	
470.9	5840.8	
471.1	7179.5	
471.3	7632.1	
471.5	5630.5	
471.69	7396.6	
471.89	7166.5	
472.09	6649.8	
472.29	6354.2	
472.49	6692.8	
472.69	6860.7	
472.89	7772	
473.09	5561.6	
473.29	5705.6	
473.49	7027.3	
473.69	7136.5	
473.89	6619	
474.09	5872.9	
474.29	8313.4	
474.49	8059.4	
474.69	6556.2	
474.89	5986.2	
475.09	7159	
475.29	7142.6	
475.49	5520	
475.69	5677	
475.88	8682	
476.08	7539.9	
476.28	5384.8	
476.48	5836	
476.68	7981.6	
476.88	7701.7	
477.08	5754.1	
477.28	5973.9	
477.48	7380.9	
477.68	8039	
477.88	5612.8	
478.08	5791.7	
478.28	8267	
478.48	7479.2	
478.67	5917.9	
478.87	5366.4	
479.07	7988.4	
479.27	7546.8	
479.47	6126.8	
479.67	6092	
479.87	7880.6	
480.07	8369.4	
480.27	5383.4	
480.47	6922.1	
480.67	7617.8	
480.87	8163.9	
481.06	5717.9	
481.26	6447.7	
481.46	7482.6	
481.66	7417.7	
481.86	6227.2	
482.06	7094.8	
482.26	7302.4	
482.46	8080.6	
482.66	6113.9	
482.86	5689.3	
483.05	7593.2	
483.25	7008.1	
483.45	8270.4	
483.65	6094.8	
483.85	7291.5	
484.05	7489.4	
484.25	6490	
484.45	6827.9	
484.65	8238.3	
484.84	8309.3	
485.04	5965.1	
485.24	5952.8	
485.44	8576.2	
485.64	7063.4	
485.84	5292	
486.04	6683.9	
486.24	7277.8	
486.44	7660.1	
486.63	5304.2	
486.83	6069.5	
487.03	7172.7	
487.23	7468.9	
487.43	5389.6	
487.63	7447.8	
487.83	7521.5	
488.02	8335.9	
488.22	6266.8	
488.42	6792.4	
488.62	8410.3	
488.82	7337.2	
489.02	5994.4	
489.22	5976.7	
489.41	8160.5	
489.61	7850.5	
489.81	5800.5	
490.01	5831.9	
490.21	8157.7	
490.41	8771.5	
490.61	5716.6	
490.8	5898.2	
491	7737.2	
491.2	7166.5	
491.4	6535.1	
491.6	5685.8	
491.8	7721.5	
491.99	7899	
492.19	5527.5	
492.39	5851.7	
492.59	8140	
492.79	8149.6	
492.99	6505.7	
493.18	5760.9	
493.38	8206.2	
493.58	8791.2	
493.78	6402.6	
493.98	5986.2	
494.18	7922.2	
494.37	7462.8	
494.57	6605.4	
494.77	6526.9	
494.97	8087.4	
495.17	8430.1	
495.37	6111.8	
495.56	6392.4	
495.76	8597.4	
495.96	8228.7	
496.16	7290.1	
496.36	6319.3	
496.55	8533.2	
496.75	8071	
496.95	6748.7	
497.15	6647.7	
497.35	8381.7	
497.54	8470.4	
497.74	6414.2	
497.94	7962.5	
498.14	9129.2	
498.34	8910.7	
498.53	6068.8	
498.73	6842.9	
498.93	7755.7	
499.13	8325	
499.33	6699.6	
499.52	7039.6	
499.72	8368.7	
499.92	8637.6	
500.12	6395.1	
500.32	6640.9	
500.51	8628.8	
500.71	8539.3	
500.91	7298.3	
501.11	7037.5	
501.31	8592.6	
501.5	9045.9	
501.7	7658.7	
501.9	6707.1	
502.1	8396.7	
502.29	8744.8	
502.49	7107.1	
502.69	7628.7	
502.89	8641.7	
503.09	8647.2	
503.28	6253.8	
503.48	6386.2	
503.68	7929.7	
503.88	8013.7	
504.07	7225.2	
504.27	6817	
504.47	8311.3	
504.67	8424.7	
504.86	7200.7	
505.06	6875.7	
505.26	8058.8	
505.46	9699.9	
505.65	6866.8	
505.85	7092.8	
506.05	8082.6	
506.25	8424.7	
506.44	6218.3	
506.64	7114.6	
506.84	7914	
507.04	8827.4	
507.23	6398.5	
507.43	7037.5	
507.63	9787.2	
507.83	8112.7	
508.02	6945.3	
508.22	6601.3	
508.42	9917.6	
508.62	7992.5	
508.81	6853.2	
509.01	7354.3	
509.21	7862.8	
509.4	8076.5	
509.6	7002.7	
509.8	6435.4	
510	8056	
510.19	9258.9	
510.39	6419	
510.59	6548	
510.79	7802.1	
510.98	9107.3	
511.18	6501.6	
511.38	6694.8	
511.57	8824	
511.77	8561.2	
511.97	7265.5	
512.17	6338.5	
512.36	8708.6	
512.56	8609.7	
512.76	6407.4	
512.95	6217.6	
513.15	8851.3	
513.35	7460.8	
513.55	7191.8	
513.74	6433.4	
513.94	8647.9	
514.14	8140.7	
514.33	7266.9	
514.53	7118.1	
514.73	8084.7	
514.92	8280.6	
515.12	6546	
515.32	6359.6	
515.51	8354.3	
515.71	8815.8	
515.91	7873.1	
516.11	6529.6	
516.3	9917.6	
516.5	7951.6	
516.7	7034.1	
516.89	7549.5	
517.09	8153.6	
517.29	8015.1	
517.48	7279.2	
517.68	6731.7	
517.88	7871	
518.07	8489.5	
518.27	7262.8	
518.47	6298.2	
518.66	8948.9	
518.86	7722.9	
519.06	6133	
519.25	6552.1	
519.45	8031.5	
519.65	9325.8	
519.84	7301	
520.04	7892.9	
520.24	9824.1	
520.43	8575.5	
520.63	7012.9	
520.83	6713.2	
521.02	8039	
521.22	8624	
521.42	7269.6	
521.61	7793.9	
521.81	8172.8	
522.01	8335.2	
522.2	7087.3	
522.4	6832	
522.6	8626.7	
522.79	7651.9	
522.99	6896.9	
523.18	6185.5	
523.38	8393.9	
523.58	8371.4	
523.77	7998	
523.97	6293.4	
524.17	10088	
524.36	9420	
524.56	7467.6	
524.76	7127.6	
524.95	8514.1	
525.15	8196.7	
525.34	7023.2	
525.54	7109.2	
525.74	8856.8	
525.93	7985	
526.13	8177.5	
526.33	6987	
526.52	9155.1	
526.72	8658.1	
526.91	8126.3	
527.11	7464.2	
527.31	9185.1	
527.5	9608.4	
527.7	7287.4	
527.89	6450.4	
528.09	8200.7	
528.29	8701.8	
528.48	7736.5	
528.68	7378.1	
528.87	9166	
529.07	9167.4	
529.27	7352.2	
529.46	6940.6	
529.66	8869.1	
529.85	9189.2	
530.05	6888.7	
530.25	7604.1	
530.44	10207	
530.64	8730.5	
530.83	7243	
531.03	7458.7	
531.23	9159.2	
531.42	8936	
531.62	7984.3	
531.81	7310.6	
532.01	9230.2	
532.21	9586.5	
532.4	7032.7	
532.6	7403.4	
532.79	10267	
532.99	9192.6	
533.18	7526.3	
533.38	8404.2	
533.58	8903.9	
533.77	9611.8	
533.97	7408.2	
534.16	8223.3	
534.36	9827.5	
534.55	8953.7	
534.75	8359.1	
534.95	7578.8	
535.14	9741.5	
535.34	9029.5	
535.53	7295.5	
535.73	9002.9	
535.92	10230	
536.12	9217.9	
536.31	7402	
536.51	8456.1	
536.71	9506.7	
536.9	9057.5	
537.1	7486.7	
537.29	7663.5	
537.49	9837.8	
537.68	8900.5	
537.88	7891.5	
538.07	7214.3	
538.27	9106.6	
538.46	10086	
538.66	7092.8	
538.86	7566.6	
539.05	9254.8	
539.25	9605.7	
539.44	7829.4	
539.64	7494.9	
539.83	9143.5	
540.03	10041	
540.22	7398.6	
540.42	7538.6	
540.61	9403.6	
540.81	9435.7	
541	7923.6	
541.2	8434.2	
541.39	8817.2	
541.59	9232.2	
541.78	8237.6	
541.98	7399.3	
542.18	8593.3	
542.37	8553	
542.57	7771.4	
542.76	8299.1	
542.96	8697	
543.15	9357.9	
543.35	7847.8	
543.54	7220.5	
543.74	9583.1	
543.93	9130.5	
544.13	7772.7	
544.32	8715.5	
544.52	9496.4	
544.71	8675.9	
544.91	6814.3	
545.1	8080.6	
545.3	8820.6	
545.49	9498.5	
545.69	6869.6	
545.88	7431.4	
546.08	10286	
546.27	9890.3	
546.47	7909.9	
546.66	7233.4	
546.86	9587.9	
547.05	10148	
547.24	7425.9	
547.44	7284.6	
547.63	8658.1	
547.83	9701.2	
548.02	7663.5	
548.22	7875.1	
548.41	8422.6	
548.61	9667.8	
548.8	7244.3	
549	7182.9	
549.19	9052.7	
549.39	9530.6	
549.58	7026.6	
549.78	7550.2	
549.97	9431.6	
550.17	8964	
550.36	8327.7	
550.55	9233.6	
550.75	8983.1	
550.94	9841.2	
551.14	7124.9	
551.33	7524.9	
551.53	8272.4	
551.72	9150.3	
551.92	7478.5	
552.11	7330.4	
552.31	9282.1	
552.5	9323	
552.69	8856.1	
552.89	7049.1	
553.08	9295	
553.28	8854.7	
553.47	7348.8	
553.67	8382.3	
553.86	9926.5	
554.06	8303.1	
554.25	6567.8	
554.44	6997.9	
554.64	10480	
554.83	10110	
555.03	7036.8	
555.22	7442.3	
555.42	9497.8	
555.61	9222	
555.8	7277.8	
556	7579.5	
556.19	8360.5	
556.39	9504.6	
556.58	7331	
556.78	7281.9	
556.97	9092.3	
557.16	8763.3	
557.36	8446.5	
557.55	6939.9	
557.75	8084	
557.94	9746.3	
558.13	7102.4	
558.33	6928.3	
558.52	9620	
558.72	8555	
558.91	6978.1	
559.1	7219.1	
559.3	8299.1	
559.49	8022.6	
559.69	6634.1	
559.88	7536.5	
560.07	9056.1	
560.27	9417.2	
560.46	7729.7	
560.66	7826	
560.85	8877.3	
561.04	8090.2	
561.24	6973.3	
561.43	7097.6	
561.63	8295.6	
561.82	8585.8	
562.01	8357.1	
562.21	7458	
562.4	9007.6	
562.59	9785.2	
562.79	7325.6	
562.98	6944.7	
563.18	8904.6	
563.37	10281	
563.56	7763.8	
563.76	6890	
563.95	8398	
564.14	8339.3	
564.34	7197.9	
564.53	7065.5	
564.73	8873.8	
564.92	9211.1	
565.11	7413	
565.31	6815	
565.5	9500.5	
565.69	8452.6	
565.89	7130.3	
566.08	7380.2	
566.27	9316.9	
566.47	9762.7	
566.66	7932.5	
566.85	6731	
567.05	9019.3	
567.24	8462.2	
567.44	7118.1	
567.63	8353	
567.82	9252	
568.02	8934.6	
568.21	7012.2	
568.4	7411.6	
568.6	8882	
568.79	8876.6	
568.98	6923.5	
569.18	6962.4	
569.37	8892.3	
569.56	10673	
569.76	7408.9	
569.95	8195.3	
570.14	9265	
570.34	9192	
570.53	6926.2	
570.72	6974.7	
570.91	9603.6	
571.11	8885.5	
571.3	7454.6	
571.49	8350.3	
571.69	8977.6	
571.88	8527.7	
572.07	7934.5	
572.27	7897.7	
572.46	8501.8	
572.65	9523.1	
572.85	7273	
573.04	7529.7	
573.23	9697.1	
573.43	8945.5	
573.62	7028.6	
573.81	7630	
574	9082.7	
574.2	8790.6	
574.39	7337.9	
574.58	7518.1	
574.78	9842.5	
574.97	9200.8	
575.16	7851.2	
575.36	8027.4	
575.55	9504.6	
575.74	9613.2	
575.93	7034.1	
576.13	8051.2	
576.32	9015.8	
576.51	9538.8	
576.71	7475.1	
576.9	8679.3	
577.09	9816.6	
577.28	9377	
577.48	7842.4	
577.67	6996.5	
577.86	8912.8	
578.05	9291.6	
578.25	7604.8	
578.44	7748.8	
578.63	9154.4	
578.83	10260	
579.02	7079.8	
579.21	8558.5	
579.4	9327.1	
579.6	8981	
579.79	7805.5	
579.98	9742.2	
580.17	9633	
580.37	9718.3	
580.56	7228	
580.75	7967.3	
580.94	10092	
581.14	9958.6	
581.33	8304.5	
581.52	7363.8	
581.71	9435.7	
581.91	10287	
582.1	7096.9	
582.29	7690.1	
582.48	9215.2	
582.68	9091.6	
582.87	8041	
583.06	7757.7	
583.25	9491.7	
583.45	9391.3	
583.64	8413.1	
583.83	8998.1	
584.02	9039.7	
584.21	9364.7	
584.41	8386.4	
584.6	7738.6	
584.79	9174.9	
584.98	9954.5	
585.18	7209.5	
585.37	7251.9	
585.56	8848.6	
585.75	9574.9	
585.94	7467.6	
586.14	8048.5	
586.33	10057	
586.52	9288.9	
586.71	7950.2	
586.91	7716.1	
587.1	8657.4	
587.29	9597.5	
587.48	7637.6	
587.67	7527.7	
587.87	9413.8	
588.06	9544.2	
588.25	8755.7	
588.44	8096.3	
588.63	9271.2	
588.83	9770.9	
589.02	7708.6	
589.21	7533.8	
589.4	8968.1	
589.59	8942.8	
589.78	6761.7	
589.98	7159.7	
590.17	8632.2	
590.36	9054.1	
590.55	6569.2	
590.74	7288	
590.94	10294	
591.13	8869.8	
591.32	7030	
591.51	6570.6	
591.7	9239.8	
591.89	8762.6	
592.09	6596.5	
592.28	7223.2	
592.47	8101.8	
592.66	9824.1	
592.85	6747.4	
593.05	6941.2	
593.24	8704.5	
593.43	9466.4	
593.62	7013.6	
593.81	7434.8	
594	8763.9	
594.19	8936.7	
594.39	6900.3	
594.58	6809.5	
594.77	9022.7	
594.96	9544.9	
595.15	6852.5	
595.34	7436.2	
595.54	9127.1	
595.73	8269	
595.92	6269.5	
596.11	7302.4	
596.3	9552.4	
596.49	8281.3	
596.68	7124.2	
596.88	7434.1	
597.07	9123	
597.26	8160.5	
597.45	6643.6	
597.64	7715.4	
597.83	8284.7	
598.02	8987.9	
598.22	6644.3	
598.41	7348.1	
598.6	8777.6	
598.79	8193.9	
598.98	6705	
599.17	7600	
599.36	8656.1	
599.55	9820	
599.74	8578.3	
599.94	8283.4	
600.13	9234.3	
600.32	8180.3	
600.51	6412.2	
600.7	6599.2	
600.89	9723.1	
601.08	9875.3	
601.27	6419.7	
601.47	7274.4	
601.66	9124.4	
601.85	9753.1	
602.04	7020.4	
602.23	7130.3	
602.42	8258.8	
602.61	8851.3	
602.8	6984.3	
602.99	6642.9	
603.18	8561.2	
603.37	8762.6	
603.57	7319.4	
603.76	7702.4	
603.95	9443.9	
604.14	8972.2	
604.33	6775.4	
604.52	7007.5	
604.71	8693.6	
604.9	8389.8	
605.09	7836.9	
605.28	7484.6	
605.47	9278	
605.66	8933.9	
605.86	7264.8	
606.05	6850.5	
606.24	9257.5	
606.43	7965.2	
606.62	7124.2	
606.81	7764.5	
607	9182.4	
607.19	8538.7	
607.38	6537.1	
607.57	6679.8	
607.76	8309.3	
607.95	7768.6	
608.14	7122.2	
608.33	7756.3	
608.52	8297	
608.72	9137.4	
608.91	6447	
609.1	6322.8	
609.29	8400.1	
609.48	7941.3	
609.67	7249.8	
609.86	6476.4	
610.05	8004.1	
610.24	8320.2	
610.43	6297.5	
610.62	6027.2	
610.81	9347.6	
611	9166	
611.19	6473.6	
611.38	7089.4	
611.57	8612.4	
611.76	9753.1	
611.95	6313.9	
612.14	6134.3	
612.33	8433.5	
612.52	7971.4	
612.71	6694.8	
612.9	5976.7	
613.09	7618.4	
613.28	9731.3	
613.47	6578.8	
613.66	7392.5	
613.85	8499.1	
614.04	8032.1	
614.24	6613.6	
614.43	5926.1	
614.62	8667	
614.81	8553	
615	7139.9	
615.19	7115.3	
615.38	7929.7	
615.57	8255.4	
615.76	6886.6	
615.95	7811	
616.14	8684.1	
616.33	8342.1	
616.52	7245.7	
616.71	7441	
616.9	8635.6	
617.09	8519.5	
617.28	6612.2	
617.47	7892.9	
617.66	7767.3	
617.85	7929.1	
618.04	7490.1	
618.22	7033.4	
618.41	8122.2	
618.6	8961.9	
618.79	6880.5	
618.98	6689.3	
619.17	9169.4	
619.36	7769.3	
619.55	6792.4	
619.74	6781.5	
619.93	8576.2	
620.12	8051.9	
620.31	7272.3	
620.5	7481.2	
620.69	9515.5	
620.88	9430.2	
621.07	8200.7	
621.26	7267.6	
621.45	8740.7	
621.64	8747.6	
621.83	7382.2	
622.02	6599.9	
622.21	8813.1	
622.4	8565.3	
622.59	7843.7	
622.78	7572	
622.97	8204.8	
623.16	9100.5	
623.35	7314	
623.54	6534.4	
623.72	8458.8	
623.91	8587.1	
624.1	7593.9	
624.29	6312.5	
624.48	9583.1	
624.67	8912.1	
624.86	7460.1	
625.05	6648.4	
625.24	9624.1	
625.43	8131.8	
625.62	9068.4	
625.81	6830	
626	9036.3	
626.19	8519.6	
626.38	7537.2	
626.56	6922.8	
626.75	8405.5	
626.94	9039.7	
627.13	7552.9	
627.32	6414.9	
627.51	8990.6	
627.7	10210	
627.89	6536.4	
628.08	7583.6	
628.27	8141.4	
628.46	8496.3	
628.65	6735.8	
628.83	6509.1	
629.02	8925	
629.21	8320.9	
629.4	7232.1	
629.59	7381.6	
629.78	8226	
629.97	9175.6	
630.16	7396.6	
630.35	6932.4	
630.54	9503.3	
630.72	9249.3	
630.91	6905.1	
631.1	7423.9	
631.29	8734.6	
631.48	8951.7	
631.67	7470.3	
631.86	7064.8	
632.05	8441.7	
632.24	8442.4	
632.42	6709.8	
632.61	7247.1	
632.8	8488.1	
632.99	8161.2	
633.18	7261.4	
633.37	7559.1	
633.56	8685.4	
633.75	8667.7	
633.93	7168.6	
634.12	6946	
634.31	9479.4	
634.5	9095.7	
634.69	6943.3	
634.88	7459.4	
635.07	8542.8	
635.25	9033.6	
635.44	7821.2	
635.63	7987.1	
635.82	8406.2	
636.01	7904.5	
636.2	7743.4	
636.39	7306.5	
636.57	9383.8	
636.76	9074.5	
636.95	6698.2	
637.14	8021.2	
637.33	8757.8	
637.52	9729.2	
637.7	6524.1	
637.89	7462.8	
638.08	8385.1	
638.27	9768.8	
638.46	7569.3	
638.65	7976.2	
638.83	9737.4	
639.02	8211	
639.21	7462.1	
639.4	7910.6	
639.59	8740.7	
639.78	8306.6	
639.96	6812.2	
640.15	6746	
640.34	8605.6	
640.53	8724.3	
640.72	6567.8	
640.91	6887.3	
641.09	7965.2	
641.28	9235	
641.47	6795.8	
641.66	7574.1	
641.85	8665.6	
642.03	8882	
642.22	7335.1	
642.41	6876.4	
642.6	8203.5	
642.79	7574.1	
642.97	6601.3	
643.16	7406.8	
643.35	8152.3	
643.54	7905.2	
643.73	6632.7	
643.91	7348.1	
644.1	7845.8	
644.29	8441.7	
644.48	6721.4	
644.67	6789.7	
644.85	8023.9	
645.04	8333.9	
645.23	6360.3	
645.42	6646.3	
645.6	7920.2	
645.79	8960.5	
645.98	6634.1	
646.17	5780.7	
646.36	7622.5	
646.54	8183.7	
646.73	7273	
646.92	6199.9	
647.11	7879.9	
647.29	8811.7	
647.48	6240.2	
647.67	6128.2	
647.86	9054.1	
648.05	9007	
648.23	6559.6	
648.42	7774.1	
648.61	8489.5	
648.8	8155	
648.98	6159.6	
649.17	6436.8	
649.36	7817.8	
649.55	7274.4	
649.73	6224.5	
649.92	6910.5	
650.11	7623.2	
650.3	7968	
650.48	6374.6	
650.67	6230.6	
650.86	8282	
651.05	7230.7	
651.23	6269.5	
651.42	6343.9	
651.61	7677.2	
651.79	7803.4	
651.98	6400.6	
652.17	6105.7	
652.36	8094.9	
652.54	7249.1	
652.73	6240.8	
652.92	6012.8	
653.11	8177.5	
653.29	8199.4	
653.48	5578.7	
653.67	6504.3	
653.85	7942.7	
654.04	8843.1	
654.23	6675	
654.42	6242.9	
654.6	7529.7	
654.79	8117.5	
654.98	5763.7	
655.16	6237.4	
655.35	7081.2	
655.54	6957.6	
655.73	5709.7	
655.91	5637.4	
656.1	8034.2	
656.29	6819.1	
656.47	5249.6	
656.66	6824.5	
656.85	7206.1	
657.03	7219.1	
657.22	5696.1	
657.41	5819.6	
657.59	7302.4	
657.78	7138.5	
657.97	5523.4	
658.16	6262	
658.34	8028.7	
658.53	8374.8	
658.72	6982.2	
658.9	7474.4	
659.09	7354.9	
659.28	7468.3	
659.46	6002.6	
659.65	5893.4	
659.84	7254.6	
660.02	7728.4	
660.21	5769.1	
660.4	5775.3	
660.58	8111.3	
660.77	7509.2	
660.96	6350.1	
661.14	5470.8	
661.33	8738.7	
661.52	8555.7	
661.7	5444.2	
661.89	8817.2	
662.08	7249.1	
662.26	6764.4	
662.45	5715.2	
662.64	5767.1	
662.82	7871	
663.01	7095.5	
663.2	5894.7	
663.38	6510.5	
663.57	7742	
663.75	7595.2	
663.94	6109.1	
664.13	7273	
664.31	7160.4	
664.5	7809.6	
664.69	6308.4	
664.87	6868.9	
665.06	6972.7	
665.25	7626.6	
665.43	7100.3	
665.62	7148.1	
665.8	7910.6	
665.99	7266.2	
666.18	6081.8	
666.36	6184.2	
666.55	7935.2	
666.74	7770.7	
666.92	5717.9	
667.11	7272.3	
667.29	7337.2	
667.48	7811.6	
667.67	6803.4	
667.85	5998.5	
668.04	7355.6	
668.22	7299	
668.41	6193.1	
668.6	6277	
668.78	7091.4	
668.97	7329	
669.15	6513.2	
669.34	5570.5	
669.53	7211.6	
669.71	7410.2	
669.9	5691.3	
670.08	6327.5	
670.27	7042.3	
670.46	7631.4	
670.64	6479.8	
670.83	6689.3	
671.01	6978.1	
671.2	7632.1	
671.38	5668.1	
671.57	5638.7	
671.76	8189.1	
671.94	8654	
672.13	5575.3	
672.31	6537.1	
672.5	7821.9	
672.69	7135.8	
672.87	5722	
673.06	5994.4	
673.24	7610.9	
673.43	7217	
673.61	6404	
673.8	6021.7	
673.98	7688.1	
674.17	7889.5	
674.36	6531.7	
674.54	6490.7	
674.73	7485.3	
674.91	7706.5	
675.1	6178	
675.28	5776	
675.47	7378.1	
675.65	7822.6	
675.84	6004	
676.03	6319.3	
676.21	7103	
676.4	6632	
676.58	6743.3	
676.77	6421.1	
676.95	8528.4	
677.14	7089.4	
677.32	5696.8	
677.51	5534.3	
677.69	7795.3	
677.88	6782.2	
678.06	5666.7	
678.25	5749.3	
678.44	7362.4	
678.62	7159	
678.81	5470.1	
678.99	6346	
679.18	8155	
679.36	7733.8	
679.55	5973.2	
679.73	6494.8	
679.92	7719.5	
680.1	7132.4	
680.29	7081.2	
680.47	5931.6	
680.66	7053.9	
680.84	7783	
681.03	5294	
681.21	6281.8	
681.4	7051.8	
681.58	7075	
681.77	5746.6	
681.95	5647.6	
682.14	7946.8	
682.32	8213.7	
682.51	6543.9	
682.69	5500.2	
682.88	7025.9	
683.06	7542.7	
683.25	6237.4	
683.43	6672.3	
683.62	7331.7	
683.8	7658	
683.99	6865.5	
684.17	6194.4	
684.36	8538.7	
684.54	7241.6	
684.73	5435.3	
684.91	5617.6	
685.1	7503.8	
685.28	6995.2	
685.46	6129.6	
685.65	6159.6	
685.83	7754.3	
686.02	7129	
686.2	5652.4	
686.39	5707.7	
686.57	6923.5	
686.76	8256.7	
686.94	5644.2	
687.13	5728.9	
687.31	7533.1	
687.5	7144	
687.68	5258.5	
687.86	6405.4	
688.05	8643.1	
688.23	6602	
688.42	6384.2	
688.6	5743.2	
688.79	7004.1	
688.97	7006.1	
689.16	6125.5	
689.34	5077.6	
689.52	7707.9	
689.71	7910.6	
689.89	6341.2	
690.08	5611.4	
690.26	7349.5	
690.45	7226.6	
690.63	6570.6	
690.81	5865.4	
691	7114	
691.18	7030	
691.37	5954.1	
691.55	8015.1	
691.74	6939.2	
691.92	8837	
692.1	5944.6	
692.29	5485.8	
692.47	7156.3	
692.66	6526.2	
692.84	5662.6	
693.02	6091.3	
693.21	6649.1	
693.39	7048.4	
693.58	6215.6	
693.76	5733.6	
693.94	8150.9	
694.13	7962.5	
694.31	5627.8	
694.5	6606.7	
694.68	6929.6	
694.86	7201.3	
695.05	5970.5	
695.23	6094.8	
695.42	7587	
695.6	9680.1	
695.78	6581.5	
695.97	5670.8	
696.15	7704.5	
696.34	7086.7	
696.52	5500.8	
696.7	6307.7	
696.89	7404.8	
697.07	6823.8	
697.25	6201.2	
697.44	7531.7	
697.62	7405.5	
697.81	7703.8	
697.99	5864	
698.17	6322.1	
698.36	6776	
698.54	7358.4	
698.72	6229.2	
698.91	5287.9	
699.09	7017	
699.28	6825.9	
699.46	5825.1	
699.64	5699.5	
699.83	6781.5	
700.01	7903.8	
700.19	6462.7	
700.38	5027.1	
700.56	7821.9	
700.74	6880.5	
700.93	5350.7	
701.11	6120	
701.29	7286	
701.48	8393.3	
701.66	5612.8	
701.84	5607.3	
702.03	6954.2	
702.21	7592.5	
702.39	5260.5	
702.58	5797.1	
702.76	7333.1	
702.94	7374.1	
703.13	5231.9	
703.31	7431.4	
703.49	6682.5	
703.68	8142	
703.86	5348.6	
704.04	6274.3	
704.23	7151.5	
704.41	7503.1	
704.59	5446.9	
704.78	6673.6	
704.96	8191.9	
705.14	7477.8	
705.33	5347.2	
705.51	6066.8	
705.69	6950.1	
705.87	7694.9	
706.06	6238.1	
706.24	5296	
706.42	7180.9	
706.61	7506.5	
706.79	6324.1	
706.97	5307	
707.16	6735.1	
707.34	7234.8	
707.52	6214.2	
707.7	5534.3	
707.89	6772.6	
708.07	6531	
708.25	6331	
708.44	6393.1	
708.62	6673.6	
708.8	7776.8	
708.98	6456.6	
709.17	5539.1	
709.35	7096.2	
709.53	7165.8	
709.72	5246.9	
709.9	5625.1	
710.08	7329.7	
710.26	7375.4	
710.45	6731	
710.63	5502.2	
710.81	7066.2	
710.99	7000	
711.18	6098.9	
711.36	5610.1	
711.54	6935.1	
711.72	7539.3	
711.91	5677.7	
712.09	5190.9	
712.27	6964.5	
712.45	7649.8	
712.64	5934.3	
712.82	4945.2	
713	6475	
713.18	6635.4	
713.37	5090.6	
713.55	6224.5	
713.73	7480.5	
713.91	6156.9	
714.1	5528.2	
714.28	4990.2	
714.46	7193.1	
714.64	6473.6	
714.83	4572.4	
715.01	5256.5	
715.19	6554.2	
715.37	5915.9	
715.55	4916.5	
715.74	5217.5	
715.92	7309.9	
716.1	5456.5	
716.28	6244.9	
716.47	5380	
716.65	6153.5	
716.83	6147.3	
717.01	5227.8	
717.19	5208.7	
717.38	8177.5	
717.56	5853.8	
717.74	5358.9	
717.92	4575.2	
718.1	6950.8	
718.29	6174.6	
718.47	4181.3	
718.65	4891.9	
718.83	6815	
719.01	6750.8	
719.2	4035.9	
719.38	5116.5	
719.56	6501.6	
719.74	7986.4	
719.92	4696	
720.11	5856.5	
720.29	6549.4	
720.47	5748	
720.65	4383.3	
720.83	5162.2	
721.02	6107.7	
721.2	5810.8	
721.38	5206.6	
721.56	4500.8	
721.74	5440.8	
721.92	5575.3	
722.11	5614.2	
722.29	5393.7	
722.47	6738.5	
722.65	5939.1	
722.83	4490.5	
723.01	5399.1	
723.2	5975.3	
723.38	6278.4	
723.56	3994.2	
723.74	5115.1	
723.92	5566.4	
724.1	6642.9	
724.29	4422.2	
724.47	5488.6	
724.65	5653.1	
724.83	5509.7	
725.01	4278.2	
725.19	5066.7	
725.37	5563	
725.56	5588.9	
725.74	4145.1	
725.92	4425	
726.1	5464.7	
726.28	5786.2	
726.46	4823.6	
726.64	4532.2	
726.83	5743.2	
727.01	6003.3	
727.19	4121.2	
727.37	4870.1	
727.55	5915.2	
727.73	6363	
727.91	4065.9	
728.09	3923.2	
728.28	6392.4	
728.46	6848.4	
728.64	4924.7	
728.82	4904.9	
729	7263.5	
729.18	6596.5	
729.36	4176.5	
729.54	6343.2	
729.72	7626.6	
729.91	5902.2	
730.09	5946.6	
730.27	4726.7	
730.45	5824.4	
730.63	6435.4	
730.81	5317.9	
730.99	4365.6	
731.17	6934.4	
731.35	5554.1	
731.53	4919.2	
731.71	4507.6	
731.9	6556.2	
732.08	6841.6	
732.26	4767	
732.44	4511	
732.62	6916	
732.8	6379.4	
732.98	5166.3	
733.16	4263.2	
733.34	6380.1	
733.52	5220.3	
733.7	4721.9	
733.88	4925.4	
734.07	6184.9	
734.25	5997.1	
734.43	4206.5	
734.61	5711.8	
734.79	7259.4	
734.97	5819	
735.15	4335.5	
735.33	4714.4	
735.51	6141.9	
735.69	5791	
735.87	5835.3	
736.05	4813.4	
736.23	6014.2	
736.41	5788.2	
736.59	4732.2	
736.77	4838.7	
736.95	6472.9	
737.13	5870.2	
737.32	4403.1	
737.5	4532.2	
737.68	6926.9	
737.86	5797.8	
738.04	4192.2	
738.22	5905.7	
738.4	5603.2	
738.58	5920.7	
738.76	4705.5	
738.94	3745.7	
739.12	5675.6	
739.3	5614.8	
739.48	5285.8	
739.66	5045.5	
739.84	5922	
740.02	5982.1	
740.2	3852.9	
740.38	4229.7	
740.56	6347.3	
740.74	5169.1	
740.92	4846.2	
741.1	4711	
741.28	5743.2	
741.46	5541.1	
741.64	4381.3	
741.82	4833.9	
742	5735	
742.18	5778.7	
742.36	4560.1	
742.54	4179.9	
742.72	6305.7	
742.9	5113.8	
743.08	4880.3	
743.26	3822.2	
743.44	6477	
743.62	6361.7	
743.8	5126.7	
743.98	4269.3	
744.16	6098.2	
744.34	5741.8	
744.52	5009.3	
744.7	4871.4	
744.88	6133.7	
745.06	5712.5	
745.24	4990.9	
745.42	5122.7	
745.6	6275	
745.78	5832.6	
745.96	3849.5	
746.14	4207.9	
746.32	6963.1	
746.5	6224.5	
746.68	4689.2	
746.86	4267.3	
747.03	6608.1	
747.21	5085.8	
747.39	4747.9	
747.57	4274.1	
747.75	5899.5	
747.93	6273.6	
748.11	4260.5	
748.29	4153.3	
748.47	7415.7	
748.65	5668.8	
748.83	4902.2	
749.01	4661.2	
749.19	6116.6	
749.37	5302.9	
749.55	4450.9	
749.73	4642.1	
749.91	5840.8	
750.09	5540.4	
750.26	4600.4	
750.44	4107.5	
750.62	5784.8	
750.8	5738.4	
750.98	3971.7	
751.16	4234.5	
751.34	5814.2	
751.52	5208	
751.7	4921.3	
751.88	3885	
752.06	6305	
752.24	6001.2	
752.42	3860.4	
752.59	4239.3	
752.77	5678.3	
752.95	6954.9	
753.13	4896.7	
753.31	4306.9	
753.49	5408	
753.67	5871.5	
753.85	4575.2	
754.03	4178.5	
754.21	6175.3	
754.38	6452.5	
754.56	4370.4	
754.74	3454.9	
754.92	5427.8	
755.1	6113.2	
755.28	3614.7	
755.46	3637.9	
755.64	6879.8	
755.82	7049.8	
755.99	4036.5	
756.17	4147.1	
756.35	4767.7	
756.53	6268.1	
756.71	3128.6	
756.89	3964.2	
757.07	5833.3	
757.25	4958.8	
757.42	4428.4	
757.6	5250.3	
757.78	5875.6	
757.96	4860.5	
758.14	4074.1	
758.32	3663.1	
758.5	4491.2	
758.67	5289.9	
758.85	3932.8	
759.03	4061.8	
759.21	5490.6	
759.39	4927.4	
759.57	3592.8	
759.75	4649.6	
759.92	6070.9	
760.1	5378	
760.28	5011.4	
760.46	5168.4	
760.64	5075.5	
760.82	4987.5	
760.99	4799.8	
761.17	3984.7	
761.35	5952.1	
761.53	4857.8	
761.71	4106.2	
761.89	4779.3	
762.06	5728.9	
762.24	5242.8	
762.42	4201.7	
762.6	3910.9	
762.78	5294.7	
762.96	5905	
763.13	4558.1	
763.31	4206.5	
763.49	6019	
763.67	5225.1	
763.85	4982.7	
764.02	5431.9	
764.2	6303	
764.38	5461.2	
764.56	4073.4	
764.74	4881	
764.91	6351.4	
765.09	5315.2	
765.27	3803.1	
765.45	3524.6	
765.63	6352.1	
765.8	6281.1	
765.98	3336.1	
766.16	3682.2	
766.34	4910.3	
766.52	4797	
766.69	4554	
766.87	3525.2	
767.05	5267.4	
767.23	6055.8	
767.41	3835.8	
767.58	4082.3	
767.76	5879	
767.94	5903.6	
768.12	3906.8	
768.29	4565.6	
768.47	5429.8	
768.65	6036	
768.83	3557.3	
769	4616.1	
769.18	4948.6	
769.36	5683.8	
769.54	4676.9	
769.72	3605.1	
769.89	5914.5	
770.07	6046.3	
770.25	3945.1	
770.43	5145.2	
770.6	6665.5	
770.78	7051.2	
770.96	4102.1	
771.14	3945.1	
771.31	5900.2	
771.49	5246.2	
771.67	3325.2	
771.85	3558	
772.02	4536.3	
772.2	5252.4	
772.38	4292.5	
772.55	3794.2	
772.73	5562.3	
772.91	5299.5	
773.09	4132.1	
773.26	4264.6	
773.44	5578.7	
773.62	5142.4	
773.8	3689.8	
773.97	3490.4	
774.15	5543.9	
774.33	5192.3	
774.5	3599.6	
774.68	4033.8	
774.86	5756.2	
775.04	5244.2	
775.21	3693.9	
775.39	3739.6	
775.57	5504.3	
775.74	5855.8	
775.92	3564.8	
776.1	3444	
776.27	5497.4	
776.45	6656.6	
776.63	3710.2	
776.81	3347.7	
776.98	5160.9	
777.16	6138.4	
777.34	3840.6	
777.51	4126.7	
777.69	5128.1	
777.87	4986.8	
778.04	3872.7	
778.22	4480.3	
778.4	4999.1	
778.57	5615.5	
778.75	3194.8	
778.93	3500.7	
779.1	4820.2	
779.28	4670.1	
779.46	3211.9	
779.64	3661.8	
779.81	5768.4	
779.99	6559.6	
780.17	4432.5	
780.34	4668	
780.52	5203.2	
780.69	5412.8	
780.87	3904.1	
781.05	3608.5	
781.22	5330.2	
781.4	5387.5	
781.58	3752.6	
781.75	2962.7	
781.93	5359.5	
782.11	4717.8	
782.28	4567.7	
782.46	3771.7	
782.64	4696	
782.81	5514.5	
782.99	3788.7	
783.17	3799.7	
783.34	5433.9	
783.52	4719.2	
783.69	4022.2	
783.87	4781.3	
784.05	4803.2	
784.22	4791.6	
784.4	4700.8	
784.58	4129.4	
784.75	5652.4	
784.93	4870.1	
785.1	3794.2	
785.28	4346.5	
785.46	5511.8	
785.63	4817.5	
785.81	3818.1	
785.99	3578.5	
786.16	4988.2	
786.34	5304.2	
786.51	3670.6	
786.69	3988.8	
786.87	4560.8	
787.04	5073.5	
787.22	3517.7	
787.39	4472.8	
787.57	4839.4	
787.75	5828.5	
787.92	4602.5	
788.1	4564.9	
788.27	4836.6	
788.45	4614.8	
788.63	4282.3	
788.8	3085.6	
788.98	5302.2	
789.15	4601.8	
789.33	3266.5	
789.5	3846.8	
789.68	5689.3	
789.86	5762.3	
790.03	4192.9	
790.21	3699.3	
790.38	5657.9	
790.56	4972.5	
790.73	3532.7	
790.91	3578.5	
791.09	4867.3	
791.26	5490.6	
791.44	3808.5	
791.61	3283.6	
791.79	4841.4	
791.96	4902.2	
792.14	3396.9	
792.32	3007.8	
792.49	4799.8	
792.67	4957.4	
792.84	3466.5	
793.02	3258.3	
793.19	5257.1	
793.37	5946.6	
793.54	3068.5	
793.72	3352.5	
793.89	6054.5	
794.07	4839.4	
794.25	3833.1	
794.42	3121.1	
794.6	5857.2	
794.77	5484.5	
794.95	4160.8	
795.12	3659.7	
795.3	4859.1	
795.47	5462.6	
795.65	4031.1	
795.82	3844.7	
796	4690.5	
796.17	6513.2	
796.35	3763.5	
796.52	4481.6	
796.7	5358.2	
796.87	5508.4	
797.05	4629.1	
797.22	4517.1	
797.4	5422.3	
797.57	6323.4	
797.75	3844.7	
797.92	3681.6	
798.1	5730.2	
798.27	4797.7	
798.45	3156.6	
798.62	3360	
798.8	5122.7	
798.97	5581.4	
799.15	4104.1	
799.32	3908.9	
799.5	4472.8	
799.67	5279	
799.85	4207.9	
800.02	3046	
800.2	4792.9	
800.37	5132.9	
800.55	4359.4	
800.72	3629	
800.9	5557.5	
801.07	5935.7	
801.25	4893.3	
801.42	3975.1	
801.6	5631.9	
801.77	5326.8	
801.95	3695.2	
802.12	3548.4	
802.29	5322.7	
802.47	5278.3	
802.64	3969.6	
802.82	2980.5	
802.99	4827.7	
803.17	5785.5	
803.34	3879.5	
803.52	3428.3	
803.69	6374	
803.87	4595.6	
804.04	3798.3	
804.21	3902.7	
804.39	5906.3	
804.56	5053.7	
804.74	3304.1	
804.91	4076.1	
805.09	4840	
805.26	4948.6	
805.44	3328.6	
805.61	3676.8	
805.78	5516.5	
805.96	5516.5	
806.13	3964.2	
806.31	4277.5	
806.48	4457.7	
806.66	4954	
806.83	3986	
807	3934.1	
807.18	4820.2	
807.35	5184.1	
807.53	3725.3	
807.7	3132.7	
807.87	5924.8	
808.05	4968.4	
808.22	4233.8	
808.4	3123.2	
808.57	4887.8	
808.74	4565.6	
808.92	3562.1	
809.09	4549.9	
809.27	4777.2	
809.44	5327.4	
809.61	3144.3	
809.79	3519.8	
809.96	5993	
810.14	5527.5	
810.31	3024.8	
810.48	3741	
810.66	5004.6	
810.83	5676.3	
811.01	3603.7	
811.18	3945.1	
811.35	5568.4	
811.53	4336.2	
811.7	4248.9	
811.87	4022.9	
812.05	4912.4	
812.22	4786.8	
812.39	3426.9	
812.57	3355.3	
812.74	4912.4	
812.92	6453.8	
813.09	3786.7	
813.26	4078.2	
813.44	6229.2	
813.61	4816.1	
813.78	3220.1	
813.96	4179.2	
814.13	4917.2	
814.3	4616.1	
814.48	4536.9	
814.65	3687.7	
814.82	6219	
815	4692.6	
815.17	3860.4	
815.34	4740.4	
815.52	4823	
815.69	4816.8	
815.87	3803.1	
816.04	3294.5	
816.21	4930.8	
816.38	4341.7	
816.56	3725.9	
816.73	3433.8	
816.9	6204	
817.08	5543.9	
817.25	3526.6	
817.42	4354	
817.6	4491.9	
817.77	4917.9	
817.94	3916.4	
818.12	3446.7	
818.29	4719.2	
818.46	7197.2	
818.64	3638.6	
818.81	3429	
818.98	4588.8	
819.16	6574.7	
819.33	4147.1	
819.5	3790.8	
819.67	5221	
819.85	5800.5	
820.02	3765.5	
820.19	4085	
820.37	5178.6	
820.54	4696	
820.71	3900.7	
820.88	4882.4	
821.06	5134.3	
821.23	4696.7	
821.4	3930.1	
821.58	3864.5	
821.75	5517.2	
821.92	4999.8	
822.09	3147.7	
822.27	3355.3	
822.44	4872.1	
822.61	4825	
822.79	3188	
822.96	6007.4	
823.13	5393.7	
823.3	4577.2	
823.48	3686.3	
823.65	3316.3	
823.82	5540.4	
823.99	4409.3	
824.17	4591.5	
824.34	3375.1	
824.51	6407.4	
824.68	4917.9	
824.86	3553.2	
825.03	3874.8	
825.2	4913.1	
825.37	5856.5	
825.55	3462.4	
825.72	3846.1	
825.89	6459.3	
826.06	5933	
826.24	3746.4	
826.41	3760.8	
826.58	5941.8	
826.75	5159.5	
826.92	2990	
827.1	3263.8	
827.27	7985	
827.44	6386.9	
827.61	3582.6	
827.79	4388.1	
827.96	4664.6	
828.13	4995	
828.3	3710.9	
828.47	3142.3	
828.65	5150.6	
828.82	5080.3	
828.99	4817.5	
829.16	4242	
829.34	5522	
829.51	5257.1	
829.68	3907.5	
829.85	3971.7	
830.02	5801.2	
830.2	5507.7	
830.37	3028.3	
830.54	4634.6	
830.71	6178	
830.88	4900.1	
831.05	2998.2	
831.23	3553.9	
831.4	6016.2	
831.57	6682.5	
831.74	3585.3	
831.91	3173	
832.09	5150.6	
832.26	5478.3	
832.43	3736.9	
832.6	4136.9	
832.77	5146.5	
832.94	5868.1	
833.12	2916.3	
833.29	3672.7	
833.46	5224.4	
833.63	6886	
833.8	4036.5	
833.97	3708.9	
834.15	5531.6	
834.32	5282.4	
834.49	3880.9	
834.66	3994.2	
834.83	5713.2	
835	4673.5	
835.17	3556	
835.35	3566.9	
835.52	5369.8	
835.69	5292	
835.86	3765.5	
836.03	3065.8	
836.2	5485.8	
836.37	5061.2	
836.55	3672.7	
836.72	3513.6	
836.89	5113.8	
837.06	5600.5	
837.23	3759.4	
837.4	4048.8	
837.57	6215.6	
837.75	6804	
837.92	3377.1	
838.09	3627	
838.26	5031.9	
838.43	5810.8	
838.6	3895.2	
838.77	3486.3	
838.94	6533	
839.11	6270.9	
839.29	3725.9	
839.46	2945.7	
839.63	5447.6	
839.8	5226.4	
839.97	3577.1	
840.14	3605.8	
840.31	5245.5	
840.48	5519.3	
840.65	2984.6	
840.82	3535.5	
841	5476.3	
841.17	5369.8	
841.34	3349.1	
841.51	3340.2	
841.68	5393.7	
841.85	5150	
842.02	3439.9	
842.19	2925.9	
842.36	5267.4	
842.53	5226.4	
842.7	3362.8	
842.87	4053.6	
843.05	6887.3	
843.22	5180	
843.39	3170.3	
843.56	3347.7	
843.73	4970.4	
843.9	5495.4	
844.07	5341.8	
844.24	4467.3	
844.41	7860.8	
844.58	4809.3	
844.75	3227.6	
844.92	3445.4	
845.09	5474.2	
845.26	5436	
845.43	3246	
845.6	3508.9	
845.77	5513.8	
845.94	5195.7	
846.12	3575.1	
846.29	3818.1	
846.46	5603.9	
846.63	5455.1	
846.8	3300.6	
846.97	3881.6	
847.14	5906.3	
847.31	5384.1	
847.48	3690.4	
847.65	4041.3	
847.82	5742.5	
847.99	5687.2	
848.16	4415.4	
848.33	4021.5	
848.5	5081.7	
848.67	5970.5	
848.84	3300.6	
849.01	3458.3	
849.18	4900.8	
849.35	4603.8	
849.52	4100.7	
849.69	3267.9	
849.86	5652.4	
850.03	5836.7	
850.2	3319.8	
850.37	3989.4	
850.54	5806.7	
850.71	5164.3	
850.88	3968.3	
851.05	3252.2	
851.22	5409.4	
851.39	6000.5	
851.56	3119.7	
851.73	3771	
851.9	4769	
852.07	5703.6	
852.24	3611.9	
852.41	3293.8	
852.58	5343.2	
852.75	4925.4	
852.92	3743	
853.09	3211.2	
853.26	5062.6	
853.43	5847.6	
853.6	3306.8	
853.77	2826.9	
853.94	5970.5	
854.11	5371.8	
854.28	4786.1	
854.44	3558.7	
854.61	6386.9	
854.78	5769.1	
854.95	3306.1	
855.12	4062.5	
855.29	4416.8	
855.46	6253.8	
855.63	3325.9	
855.8	4526.7	
855.97	4983.4	
856.14	5794.4	
856.31	4584	
856.48	3614.7	
856.65	5059.2	
856.82	4751.3	
856.99	3159.3	
857.16	3578.5	
857.33	6566.5	
857.49	5111	
857.66	3594.2	
857.83	3857	
858	5111	
858.17	5331.5	
858.34	3170.3	
858.51	3272	
858.68	6074.3	
858.85	6086.6	
859.02	3805.1	
859.19	4022.2	
859.36	4774.5	
859.52	4864.6	
859.69	3289.7	
859.86	3893.2	
860.03	4861.2	
860.2	5964.4	
860.37	3033	
860.54	3332.7	
860.71	5704.3	
860.88	6050.4	
861.05	3713	
861.21	4119.1	
861.38	6044.9	
861.55	4667.3	
861.72	3044	
861.89	3685.7	
862.06	5758.2	
862.23	6198.5	
862.4	3186.6	
862.56	3365.5	
862.73	5597.8	
862.9	5235.3	
863.07	3903.4	
863.24	3003.7	
863.41	4709.6	
863.58	4869.4	
863.75	3364.8	
863.91	3801.7	
864.08	5963	
864.25	5600.5	
864.42	4172.4	
864.59	4573.8	
864.76	6315.3	
864.93	4866	
865.09	3189.4	
865.26	3495.9	
865.43	5920.7	
865.6	6314.6	
865.77	2862.4	
865.94	3265.8	
866.1	5963.7	
866.27	5672.9	
866.44	4956.1	
866.61	3076.7	
866.78	5147.2	
866.95	5559.6	
867.11	3199.6	
867.28	2912.9	
867.45	5796.4	
867.62	4814.8	
867.79	3809.2	
867.96	3282.9	
868.12	4755.4	
868.29	5744.6	
868.46	2864.4	
868.63	4422.9	
868.8	5888.6	
868.97	5637.4	
869.13	3463.8	
869.3	3431.7	
869.47	5534.3	
869.64	5786.9	
869.81	3342.3	
869.97	3303.4	
870.14	5472.2	
870.31	6097.5	
870.48	3182.5	
870.65	4186.7	
870.81	5089.2	
870.98	5187.5	
871.15	3695.2	
871.32	3345.7	
871.48	5560.9	
871.65	6136.4	
871.82	3283.6	
871.99	3631.7	
872.16	6533.7	
872.32	5938.4	
872.49	3271.3	
872.66	3340.9	
872.83	5631.9	
872.99	4987.5	
873.16	3809.2	
873.33	3254.9	
873.5	5313.8	
873.67	5317.2	
873.83	3496.6	
874	4412.7	
874.17	5431.9	
874.34	6419.7	
874.5	4293.2	
874.67	4077.5	
874.84	6017.6	
875.01	4778.6	
875.17	4622.3	
875.34	3246.7	
875.51	5288.5	
875.68	6407.4	
875.84	3977.8	
876.01	4794.3	
876.18	5614.8	
876.34	5518.6	
876.51	3338.9	
876.68	3243.3	
876.85	5139	
877.01	5896.1	
877.18	4625	
877.35	3257	
877.52	5297.4	
877.68	4766.3	
877.85	3237.8	
878.02	3215.3	
878.18	5207.3	
878.35	4941.7	
878.52	2648.7	
878.69	3676.1	
878.85	5631.9	
879.02	5583.4	
879.19	4672.8	
879.35	3558	
879.52	5616.2	
879.69	5778.7	
879.86	2854.9	
880.02	3704.8	
880.19	5255.1	
880.36	6354.8	
880.52	3771	
880.69	3907.5	
880.86	5698.8	
881.02	5743.9	
881.19	3631	
881.36	3525.2	
881.52	5600.5	
881.69	4930.1	
881.86	3526.6	
882.02	3435.8	
882.19	5851.7	
882.36	6873	
882.52	3362.8	
882.69	4610	
882.86	5425.8	
883.02	5346.6	
883.19	3944.4	
883.36	3730	
883.52	5709.1	
883.69	6563.7	
883.86	3332	
884.02	2964.1	
884.19	5649.7	
884.36	5240.1	
884.52	3729.4	
884.69	3503.4	
884.86	5001.1	
885.02	6190.3	
885.19	3706.8	
885.36	3791.5	
885.52	5261.2	
885.69	5421	
885.86	4738.3	
886.02	4213.4	
886.19	5634	
886.35	5160.2	
886.52	3630.4	
886.69	4644.8	
886.85	4880.3	
887.02	5988.9	
887.19	5988.9	
887.35	5988.9	
887.52	5988.9	
887.68	5988.9	
887.85	5988.9	
888.02	5988.9	
888.18	5988.9	
888.35	5988.9	
888.51	5988.9	
888.68	5988.9	
888.85	5988.9	
889.01	5988.9	
889.18	5988.9	
889.35	5988.9	
889.51	5988.9	
889.68	5988.9	
889.84	5988.9	
890.01	5988.9	
890.17	5988.9	
890.34	5988.9	
890.51	5988.9	
890.67	5988.9	
890.84	5988.9	
891	5988.9	
891.17	5988.9	
891.34	5988.9	
891.5	5988.9	
891.67	5988.9	
891.83	5988.9	
892	5988.9	
892.16	5988.9	
892.33	5988.9	
892.5	5988.9	
892.66	5988.9	
892.83	5988.9	
892.99	5988.9	
893.16	5988.9	
893.32	5988.9	
893.49	5988.9	
893.65	5988.9	
893.82	5988.9	
893.99	5988.9	
894.15	5988.9	
894.32	5988.9	
894.48	5988.9	
894.65	5988.9	
894.81	5988.9	
894.98	5988.9	
895.14	5988.9	
895.31	5988.9	
895.47	5988.9	
895.64	5988.9	
895.81	5988.9	
895.97	5988.9	
896.14	5988.9	
896.3	5988.9	
896.47	5988.9	
896.63	5988.9	
896.8	5988.9	
896.96	5988.9	
897.13	5988.9	
897.29	5988.9	
897.46	5988.9	
897.62	5988.9	
897.79	5988.9	
897.95	5988.9	
898.12	5988.9	
898.28	5988.9	
898.45	5988.9	
898.61	5988.9	
898.78	5988.9	
898.94	5988.9	
899.11	5988.9	
899.27	5988.9	
899.44	5988.9	
899.6	5988.9	
899.77	5988.9	
899.93	5988.9	
900.1	5988.9	
900.26	5988.9	
900.43	5988.9	
900.59	5988.9	
900.76	5988.9	
900.92	5988.9	
901.09	5988.9	
901.25	5988.9	
901.42	5988.9	
901.58	5988.9	
901.75	5988.9	
901.91	5988.9	
902.07	5988.9	
902.24	5988.9	
902.4	5988.9	
902.57	5988.9	
902.73	5988.9	
902.9	5988.9	
903.06	5988.9	
903.23	5988.9	
903.39	5988.9	
903.56	5988.9	
903.72	5988.9	
903.88	5988.9	
904.05	5988.9	
904.21	5988.9	
904.38	5988.9	
904.54	5988.9	
904.71	5988.9	
904.87	5988.9	
905.03	5988.9	
905.2	5988.9	
905.36	5988.9	
905.53	5988.9	
905.69	5988.9	
905.86	5988.9	
906.02	5988.9	
906.18	5988.9	
906.35	5988.9	
906.51	5988.9	
906.68	5988.9	
906.84	5988.9	
907.01	5988.9	
907.17	5988.9	
907.33	5988.9	
907.5	5988.9	
907.66	5988.9	
907.83	5988.9	
907.99	5988.9	
908.15	5988.9	
908.32	5988.9	
908.48	5988.9	
908.65	5988.9	
908.81	5988.9	
908.97	5988.9	
909.14	5988.9	
909.3	5988.9	
909.47	5988.9	
909.63	5988.9	
909.79	5988.9	
909.96	5988.9	
910.12	5988.9	
910.28	5988.9	
910.45	5988.9	
910.61	5988.9	
910.78	5988.9	
910.94	5988.9	
911.1	5988.9	
911.27	5988.9	
911.43	5988.9	
911.59	5988.9	
911.76	5988.9	
911.92	5988.9	
912.08	5988.9	
912.25	5988.9	
912.41	5988.9	
912.57	5988.9	
912.74	5988.9	
912.9	5988.9	
913.07	5988.9	
913.23	5988.9	
913.39	5988.9	
913.56	5988.9	
913.72	5988.9	
913.88	5988.9	
914.05	5988.9	
914.21	5988.9	
914.37	5988.9	
914.54	5988.9	
914.7	5988.9	
914.86	5988.9	
915.03	5988.9	
915.19	5988.9	
