Wavelength	Intensities	
nm	a.u.	
179.22	1881.1	
179.44	1881.4	
179.65	1880.7	
179.86	1882.1	
180.08	1891.6	
180.29	4842.8	
180.51	3474	
180.72	5565.7	
180.94	6561	
181.15	3161.4	
181.37	3118.4	
181.58	5438	
181.79	5729.5	
182.01	3340.2	
182.22	3581.9	
182.44	5683.8	
182.65	4831.2	
182.87	4488.5	
183.08	3936.2	
183.29	6031.3	
183.51	4952.7	
183.72	3573.7	
183.94	5311.7	
184.15	5356.1	
184.37	5378	
184.58	3192.8	
184.79	4473.4	
185.01	4981.3	
185.22	5682.4	
185.44	4609.3	
185.65	3874.8	
185.86	5306.3	
186.08	4855.1	
186.29	3139.5	
186.51	3365.5	
186.72	5066	
186.94	5926.1	
187.15	3882.9	
187.36	4036.5	
187.58	7742.7	
187.79	5501.5	
188.01	4182.6	
188.22	6455.2	
188.43	6608.1	
188.65	5747.3	
188.86	3344.3	
189.08	3997	
189.29	5171.1	
189.5	5198.4	
189.72	3709.6	
189.93	3797.6	
190.15	5939.8	
190.36	7071.6	
190.57	4086.4	
190.79	3962.1	
191	6043.6	
191.22	5900.9	
191.43	4066.6	
191.64	3358.7	
191.86	6190.3	
192.07	5971.9	
192.29	3486.3	
192.5	3708.9	
192.71	5961	
192.93	5125.4	
193.14	3666.5	
193.35	3797.6	
193.57	5155.4	
193.78	5935	
194	3001	
194.21	3614	
194.42	4978.6	
194.64	5365	
194.85	3937.6	
195.07	4691.2	
195.28	5503.6	
195.49	4702.1	
195.71	4913.8	
195.92	3461.1	
196.13	5628.5	
196.35	5715.9	
196.56	5261.9	
196.78	3964.2	
196.99	6952.2	
197.2	6608.8	
197.42	4566.3	
197.63	4105.5	
197.84	4829.1	
198.06	5558.2	
198.27	3654.9	
198.48	4928.8	
198.7	5170.4	
198.91	5307.7	
199.13	4058.4	
199.34	4050.9	
199.55	5811.5	
199.77	4678.2	
199.98	3609.2	
200.19	4063.2	
200.41	5247.6	
200.62	4955.4	
200.83	4201.7	
201.05	4476.9	
201.26	5289.2	
201.47	5026.4	
201.69	3582.6	
201.9	3428.3	
202.11	5366.4	
202.33	6412.9	
202.54	3844	
202.76	4265.2	
202.97	5480.4	
203.18	5468.1	
203.4	4238.6	
203.61	4076.8	
203.82	5408	
204.04	5068.7	
204.25	4088.4	
204.46	3945.8	
204.68	5409.4	
204.89	5606.7	
205.1	3935.5	
205.32	3457.7	
205.53	5784.8	
205.74	5963	
205.96	2902.7	
206.17	4094.6	
206.38	5732.9	
206.6	5870.8	
206.81	4556.7	
207.02	3780.6	
207.24	5583.4	
207.45	6003.3	
207.66	3901.4	
207.88	3276.1	
208.09	5588.2	
208.3	5399.8	
208.52	3555.3	
208.73	3912.3	
208.94	5386.2	
209.15	6104.3	
209.37	3917.8	
209.58	4046.8	
209.79	5905.7	
210.01	5198.4	
210.22	3109.5	
210.43	3216.7	
210.65	5417.6	
210.86	5814.9	
211.07	3809.9	
211.29	3489.7	
211.5	5797.8	
211.71	5355.4	
211.93	3510.9	
212.14	3515.7	
212.35	5332.2	
212.56	5593.7	
212.78	4065.2	
212.99	3389.4	
213.2	6354.2	
213.42	5216.9	
213.63	3603.7	
213.84	3922.5	
214.06	4800.4	
214.27	4848.9	
214.48	3857.7	
214.69	4110.3	
214.91	6096.1	
215.12	6154.8	
215.33	4069.3	
215.55	4528.7	
215.76	6597.2	
215.97	5715.2	
216.18	3943.7	
216.4	3917.1	
216.61	5065.3	
216.82	5879	
217.04	3591.5	
217.25	3650.8	
217.46	6036	
217.67	5810.1	
217.89	3224.9	
218.1	3346.4	
218.31	5451	
218.53	5591	
218.74	3737.5	
218.95	3595.6	
219.16	5352.7	
219.38	6288.6	
219.59	3555.3	
219.8	4311	
220.01	6963.8	
220.23	5429.8	
220.44	4724	
220.65	3499.3	
220.87	5470.8	
221.08	6026.5	
221.29	3261	
221.5	4407.9	
221.72	7375.4	
221.93	5107.6	
222.14	4091.2	
222.35	4740.4	
222.57	5453.1	
222.78	5776.6	
222.99	3881.6	
223.2	4186.7	
223.42	5720.7	
223.63	5864.7	
223.84	2932	
224.05	2934.1	
224.27	6841.6	
224.48	6281.8	
224.69	4945.8	
224.9	4096.6	
225.12	5633.3	
225.33	5390.9	
225.54	3225.6	
225.75	3625.6	
225.97	4948.6	
226.18	5285.1	
226.39	3913.7	
226.6	3627.6	
226.82	5121.3	
227.03	4969.1	
227.24	4008.6	
227.45	3379.8	
227.67	5756.8	
227.88	6352.1	
228.09	4466.6	
228.3	4502.8	
228.52	5796.4	
228.73	5281.7	
228.94	3800.3	
229.15	3300	
229.36	5271.5	
229.58	5264	
229.79	3813.3	
230	4397.7	
230.21	6491.4	
230.43	5436.7	
230.64	3974.4	
230.85	4162.2	
231.06	5788.9	
231.28	5810.8	
231.49	3315.7	
231.7	3941	
231.91	5731.6	
232.12	5400.5	
232.34	3420.8	
232.55	3903.4	
232.76	6046.3	
232.97	5579.3	
233.18	3568.9	
233.4	3946.4	
233.61	5549.3	
233.82	5141.8	
234.03	3693.9	
234.25	3635.8	
234.46	7485.3	
234.67	5483.1	
234.88	4111.6	
235.09	3607.2	
235.31	5786.9	
235.52	5204.6	
235.73	3992.2	
235.94	3381.2	
236.15	5109	
236.37	6470.2	
236.58	3554.6	
236.79	3875.4	
237	5682.4	
237.21	4914.4	
237.43	4147.8	
237.64	3227.6	
237.85	9779.1	
238.06	4984.8	
238.27	4171.7	
238.48	3358.7	
238.7	5733.6	
238.91	5233.9	
239.12	3859.7	
239.33	3907.5	
239.54	4973.2	
239.76	5380.7	
239.97	3850.9	
240.18	3850.2	
240.39	6725.5	
240.6	5689.3	
240.82	3998.3	
241.03	3330	
241.24	5383.4	
241.45	6242.2	
241.66	3507.5	
241.87	4212.7	
242.09	6072.9	
242.3	6479.1	
242.51	4189.5	
242.72	3867.2	
242.93	5838.8	
243.14	5354.8	
243.36	4451.6	
243.57	4934.9	
243.78	6296.8	
243.99	5761.6	
244.2	3920.5	
244.41	3546.4	
244.63	4930.8	
244.84	5670.8	
245.05	4115.7	
245.26	3929.4	
245.47	5711.1	
245.68	5891.3	
245.9	5182.7	
246.11	4008.6	
246.32	5230.5	
246.53	5646.9	
246.74	6265.4	
246.95	3276.1	
247.16	4900.8	
247.38	5442.1	
247.59	3263.1	
247.8	3882.3	
248.01	5044.1	
248.22	5325.4	
248.43	3534.1	
248.64	3797.6	
248.86	4796.3	
249.07	5122.7	
249.28	3435.8	
249.49	3942.3	
249.7	5933.6	
249.91	6089.3	
250.12	3224.2	
250.34	3263.8	
250.55	5464	
250.76	5438	
250.97	4024.3	
251.18	4050.9	
251.39	6057.2	
251.6	5569.8	
251.81	4059.1	
252.03	4035.2	
252.24	5202.5	
252.45	5905.7	
252.66	3361.4	
252.87	4291.2	
253.08	5403.2	
253.29	7200	
253.5	3397.6	
253.72	4741	
253.93	5240.1	
254.14	6423.1	
254.35	3707.5	
254.56	3755.3	
254.77	5622.4	
254.98	5074.2	
255.19	3669.3	
255.41	4691.2	
255.62	5491.3	
255.83	5997.1	
256.04	4156.7	
256.25	4052.9	
256.46	6581.5	
256.67	5077.6	
256.88	3956	
257.09	4471.4	
257.31	5084.4	
257.52	5156.8	
257.73	5014.1	
257.94	3664.5	
258.15	5270.1	
258.36	5408	
258.57	4623.6	
258.78	2943.6	
258.99	5862.7	
259.2	5214.1	
259.41	3736.2	
259.63	3762.1	
259.84	6190.3	
260.05	6712.6	
260.26	4869.4	
260.47	3627	
260.68	5975.3	
260.89	5296	
261.1	4469.4	
261.31	3542.3	
261.52	5994.4	
261.73	6367.1	
261.95	4797.7	
262.16	4193.6	
262.37	6105	
262.58	6172.6	
262.79	4748.6	
263	3763.5	
263.21	5439.4	
263.42	4930.1	
263.63	3839.9	
263.84	3749.1	
264.05	5993.7	
264.26	6322.1	
264.47	4686.4	
264.69	4133.5	
264.9	6158.9	
265.11	5650.3	
265.32	3655.6	
265.53	3693.2	
265.74	5536.3	
265.95	4825	
266.16	3921.2	
266.37	4409.3	
266.58	5547.9	
266.79	5259.2	
267	3663.8	
267.21	3432.4	
267.42	4969.1	
267.63	5464.7	
267.84	3865.9	
268.06	3365.5	
268.27	5787.6	
268.48	6103.6	
268.69	3789.4	
268.9	4445.5	
269.11	6094.1	
269.32	4919.2	
269.53	3864.5	
269.74	3596.2	
269.95	5728.2	
270.16	4859.1	
270.37	3835.8	
270.58	4508.9	
270.79	5262.6	
271	5920	
271.21	4125.3	
271.42	3898.6	
271.63	5565.7	
271.84	5092.6	
272.05	3116.3	
272.26	3505.4	
272.47	5386.2	
272.68	5621.7	
272.89	3768.9	
273.11	4316.4	
273.32	5229.1	
273.53	6364.4	
273.74	4220.2	
273.95	4100.7	
274.16	6019	
274.37	5418.9	
274.58	4244.1	
274.79	3414	
275	5545.2	
275.21	6134.3	
275.42	5074.2	
275.63	4349.2	
275.84	5652.4	
276.05	7101.7	
276.26	4098	
276.47	3824.9	
276.68	5227.1	
276.89	6378.1	
277.1	4405.9	
277.31	3445.4	
277.52	5677	
277.73	5823.1	
277.94	3363.4	
278.15	3715	
278.36	5616.9	
278.57	5063.3	
278.78	3751.2	
278.99	4246.8	
279.2	5029.8	
279.41	5014.8	
279.62	4913.1	
279.83	3489.1	
280.04	6621.8	
280.25	5003.9	
280.46	4826.4	
280.67	3859.1	
280.88	5068	
281.09	6096.8	
281.3	4097.3	
281.51	5156.8	
281.72	5130.8	
281.93	5881.1	
282.14	3607.2	
282.35	3942.3	
282.56	5940.5	
282.77	5870.8	
282.98	3756	
283.19	4646.2	
283.4	7245	
283.61	5360.9	
283.82	3459.7	
284.03	4850.3	
284.24	5457.8	
284.45	6062	
284.66	4843.4	
284.87	4663.9	
285.08	6038.1	
285.29	6114.6	
285.5	3271.3	
285.71	3796.9	
285.92	5946.6	
286.12	6661.4	
286.33	4764.3	
286.54	3786.7	
286.75	5921.4	
286.96	5235.3	
287.17	3436.5	
287.38	4726.7	
287.59	5067.4	
287.8	4997	
288.01	3821.5	
288.22	4341.7	
288.43	5950	
288.64	4954.7	
288.85	4524.6	
289.06	4276.2	
289.27	5819	
289.48	6362.4	
289.69	4841.4	
289.9	4398.4	
290.11	6085.9	
290.32	5145.9	
290.53	4552.6	
290.74	4216.8	
290.94	5827.2	
291.15	5888.6	
291.36	3667.9	
291.57	4260.5	
291.78	5105.6	
291.99	4846.2	
292.2	3510.2	
292.41	4201.7	
292.62	5919.3	
292.83	5709.7	
293.04	5221.6	
293.25	3553.2	
293.46	5242.8	
293.67	6034	
293.88	3666.5	
294.09	3471.3	
294.29	4980.7	
294.5	5560.9	
294.71	3923.2	
294.92	3734.1	
295.13	5197.1	
295.34	6539.2	
295.55	3295.9	
295.76	3390.1	
295.97	5806	
296.18	6567.8	
296.39	3471.3	
296.6	3672.7	
296.81	5553.4	
297.01	5844.2	
297.22	3756.7	
297.43	3618.8	
297.64	5064.6	
297.85	5006.6	
298.06	3005.7	
298.27	3304.1	
298.48	5505.6	
298.69	5139	
298.9	3947.8	
299.11	3620.1	
299.31	4932.9	
299.52	4987.5	
299.73	4212.7	
299.94	4156.7	
300.15	5400.5	
300.36	5055.8	
300.57	4138.9	
300.78	4162.8	
300.99	5310.4	
301.2	5548.6	
301.4	3641.3	
301.61	3913	
301.82	5742.5	
302.03	5858.6	
302.24	4433.9	
302.45	3497.2	
302.66	5726.1	
302.87	6155.5	
303.08	3702	
303.29	4982.7	
303.49	5204.6	
303.7	5360.2	
303.91	3244	
304.12	4732.9	
304.33	4949.9	
304.54	5582.8	
304.75	3673.4	
304.96	3523.2	
305.16	5741.1	
305.37	6416.3	
305.58	3241.9	
305.79	3321.8	
306	5742.5	
306.21	4818.9	
306.42	3652.2	
306.63	5550.7	
306.83	5307	
307.04	6058.6	
307.25	4047.5	
307.46	3999	
307.67	4670.7	
307.88	5922.7	
308.09	3602.4	
308.29	3712.3	
308.5	5498.8	
308.71	6012.8	
308.92	3959.4	
309.13	3588	
309.34	5299.5	
309.55	5352	
309.75	4538.3	
309.96	4164.9	
310.17	5879	
310.38	5162.2	
310.59	4376.5	
310.8	3414	
311.01	6133	
311.21	5317.9	
311.42	3476.8	
311.63	3553.9	
311.84	5195	
312.05	5597.1	
312.26	4047.5	
312.46	4429.1	
312.67	5278.3	
312.88	5008	
313.09	3566.9	
313.3	3486.3	
313.51	6152.8	
313.71	6589	
313.92	3552.5	
314.13	3696.6	
314.34	5637.4	
314.55	5391.6	
314.76	4568.3	
314.96	3954.6	
315.17	5517.2	
315.38	5791	
315.59	3527.3	
315.8	3349.1	
316.01	6278.4	
316.21	6262.7	
316.42	3442.6	
316.63	3933.5	
316.84	5322	
317.05	6120	
317.26	4159.4	
317.46	3698.6	
317.67	5418.2	
317.88	5827.2	
318.09	4539	
318.3	3318.4	
318.5	5130.2	
318.71	5763.7	
318.92	5685.2	
319.13	4114.4	
319.34	5950.7	
319.54	6044.9	
319.75	3348.4	
319.96	3192.8	
320.17	5748	
320.38	5966.4	
320.58	3269.2	
320.79	3884.3	
321	5953.4	
321.21	6090	
321.42	3872.7	
321.62	3259	
321.83	5020.3	
322.04	5481.7	
322.25	3775.8	
322.46	3616.7	
322.66	5565.7	
322.87	5714.5	
323.08	4336.9	
323.29	3467.9	
323.5	6461.3	
323.7	5014.1	
323.91	4749.9	
324.12	4358.1	
324.33	5530.9	
324.53	5765.7	
324.74	4175.1	
324.95	4379.9	
325.16	4846.9	
325.37	5258.5	
325.57	3588.7	
325.78	3675.4	
325.99	5504.9	
326.2	4926.7	
326.4	4930.8	
326.61	3250.8	
326.82	5395.7	
327.03	5519.3	
327.24	5012.1	
327.44	4761.5	
327.65	5703.6	
327.86	4610	
328.07	4191.5	
328.27	3414.6	
328.48	6119.3	
328.69	5010.7	
328.9	5133.6	
329.1	3806.5	
329.31	5334.3	
329.52	6183.5	
329.73	3603.7	
329.93	3977.2	
330.14	5464.7	
330.35	5668.8	
330.56	5851.7	
330.76	4405.9	
330.97	5251	
331.18	5640.8	
331.39	3988.1	
331.59	3249.4	
331.8	5993	
332.01	6139.8	
332.22	3700	
332.42	4218.1	
332.63	5517.2	
332.84	5202.5	
333.05	4018.1	
333.25	3678.2	
333.46	5167	
333.67	5445.5	
333.88	3715	
334.08	4183.3	
334.29	7190.4	
334.5	6085.9	
334.7	3396.2	
334.91	5044.8	
335.12	4978.6	
335.33	5866.7	
335.53	3858.4	
335.74	5812.1	
335.95	5188.2	
336.16	5096.7	
336.36	3943	
336.57	4559.5	
336.78	4972.5	
336.98	6056.5	
337.19	4799.1	
337.4	3867.9	
337.61	6601.3	
337.81	4925.4	
338.02	3725.3	
338.23	4726	
338.43	6266.1	
338.64	5072.8	
338.85	3635.1	
339.05	4652.3	
339.26	6244.3	
339.47	4911.7	
339.68	3583.3	
339.88	5256.5	
340.09	5647.6	
340.3	5900.2	
340.5	4178.5	
340.71	3216	
340.92	4923.3	
341.13	6130.9	
341.33	3482.2	
341.54	4203.8	
341.75	5682.4	
341.95	5327.4	
342.16	3967.6	
342.37	4356.7	
342.57	5066.7	
342.78	5378	
342.99	4406.5	
343.19	3244	
343.4	5874.9	
343.61	5724.8	
343.81	3789.4	
344.02	3524.6	
344.23	5875.6	
344.43	6298.2	
344.64	4428.4	
344.85	4308.9	
345.06	5722.7	
345.26	6055.8	
345.47	4094.6	
345.68	4859.1	
345.88	4885.8	
346.09	5928.9	
346.3	4244.8	
346.5	3195.5	
346.71	5461.9	
346.92	5190.9	
347.12	3276.1	
347.33	4133.5	
347.54	6068.8	
347.74	6394.4	
347.95	4134.2	
348.16	3097.9	
348.36	5243.5	
348.57	5093.3	
348.78	4078.2	
348.98	4407.9	
349.19	5460.6	
349.39	4874.8	
349.6	3317.7	
349.81	3648.1	
350.01	5692	
350.22	5198.4	
350.43	4031.1	
350.63	4810.7	
350.84	5496.1	
351.05	5262.6	
351.25	3663.1	
351.46	3305.4	
351.67	6025.8	
351.87	5164.3	
352.08	3867.9	
352.29	4369.7	
352.49	5917.3	
352.7	6089.3	
352.9	3539.6	
353.11	4376.5	
353.32	6643.6	
353.52	5274.9	
353.73	3506.1	
353.94	4482.3	
354.14	5820.3	
354.35	5604.6	
354.55	3680.9	
354.76	4065.2	
354.97	5780.1	
355.17	5664	
355.38	3490.4	
355.59	4744.5	
355.79	5307	
356	5673.6	
356.2	4055	
356.41	3550.5	
356.62	4987.5	
356.82	5528.2	
357.03	4323.9	
357.24	3975.8	
357.44	5324.7	
357.65	5481.7	
357.85	5244.2	
358.06	4195.6	
358.27	5090.6	
358.47	5369.8	
358.68	3487	
358.88	4346.5	
359.09	5902.2	
359.3	6310.5	
359.5	5109.7	
359.71	4567	
359.91	6733	
360.12	6076.3	
360.33	4459.8	
360.53	4913.8	
360.74	5406.6	
360.94	5474.2	
361.15	4731.5	
361.36	3918.4	
361.56	6308.4	
361.77	5640.8	
361.97	5203.2	
362.18	4186	
362.38	6308.4	
362.59	5385.5	
362.8	3917.1	
363	3707.5	
363.21	5175.9	
363.41	5900.2	
363.62	4521.2	
363.83	5543.2	
364.03	5997.8	
364.24	6942.6	
364.44	5577.3	
364.65	5522.7	
364.85	5735.7	
365.06	5636.7	
365.27	4170.3	
365.47	4173.1	
365.68	6795.2	
365.88	5776	
366.09	4579.9	
366.29	4319.2	
366.5	6114.6	
366.71	6475.7	
366.91	5611.4	
367.12	4929.5	
367.32	7147.4	
367.53	6455.9	
367.73	4805.2	
367.94	5750.7	
368.14	6374.6	
368.35	7324.9	
368.56	4824.3	
368.76	4635.9	
368.97	6507.8	
369.17	8090.2	
369.38	4202.4	
369.58	4532.8	
369.79	5581.4	
369.99	6797.2	
370.2	5577.3	
370.4	4653.7	
370.61	6171.9	
370.82	7395.2	
371.02	4569.7	
371.23	3936.2	
371.43	5472.9	
371.64	6873	
371.84	4711.7	
372.05	5926.8	
372.25	8194.6	
372.46	6719.4	
372.66	4745.1	
372.87	4812.7	
373.07	6806.1	
373.28	8324.3	
373.48	5838.8	
373.69	5537.7	
373.9	6284.5	
374.1	6351.4	
374.31	5882.4	
374.51	5409.4	
374.72	7198.6	
374.92	6019.7	
375.13	6189	
375.33	5291.3	
375.54	6898.2	
375.74	6285.2	
375.95	5468.1	
376.15	6659.3	
376.36	6993.1	
376.56	6802	
376.77	5627.1	
376.97	6090.7	
377.18	8161.8	
377.38	7145.4	
377.59	6468.9	
377.79	5302.9	
378	7173.4	
378.2	7571.3	
378.41	5429.2	
378.61	5301.5	
378.82	7570.7	
379.02	6842.9	
379.23	5584.8	
379.43	6712.6	
379.64	7690.1	
379.84	7475.1	
380.05	5444.2	
380.25	5397.1	
380.46	7468.3	
380.66	7055.9	
380.87	6784.9	
381.07	7045.7	
381.28	8057.4	
381.48	7436.2	
381.69	5468.1	
381.89	5527.5	
382.1	6348.7	
382.3	7561.8	
382.51	6541.2	
382.71	7452.6	
382.91	7378.8	
383.12	7975.5	
383.32	5725.4	
383.53	5876.3	
383.73	7193.1	
383.94	7120.1	
384.14	5891.3	
384.35	4936.3	
384.55	6998.6	
384.76	7440.3	
384.96	5715.9	
385.17	5990.3	
385.37	7406.1	
385.58	6598.6	
385.78	5989.6	
385.98	4851.6	
386.19	6802	
386.39	7213.6	
386.6	5468.1	
386.8	5743.9	
387.01	7368.6	
387.21	7460.1	
387.42	6203.3	
387.62	6909.8	
387.83	6816.3	
388.03	7408.2	
388.23	5989.6	
388.44	6834.1	
388.64	6589.7	
388.85	6876.4	
389.05	6470.9	
389.26	7168.6	
389.46	8778.3	
389.67	8381	
389.87	6593.1	
390.07	6649.8	
390.28	7521.5	
390.48	7086.7	
390.69	5905.7	
390.89	6171.2	
391.1	7223.2	
391.3	8190.5	
391.5	7386.3	
391.71	8060.8	
391.91	8075.1	
392.12	9139.4	
392.32	7470.3	
392.53	6737.1	
392.73	7481.9	
392.93	7569.3	
393.14	6341.9	
393.34	7111.9	
393.55	7991.9	
393.75	7447.8	
393.95	6143.2	
394.16	6161.7	
394.36	7357	
394.57	7864.9	
394.77	5741.8	
394.98	6082.5	
395.18	7388.4	
395.38	7537.2	
395.59	7345.4	
395.79	6426.5	
396	7728.4	
396.2	8335.9	
396.4	7424.6	
396.61	7415	
396.81	8586.5	
397.02	7907.9	
397.22	7847.1	
397.42	7806.2	
397.63	8727.8	
397.83	8111.3	
398.04	6664.1	
398.24	7406.8	
398.44	8584.4	
398.65	7710.6	
398.85	6595.8	
399.05	6799.3	
399.26	8108.6	
399.46	9944.3	
399.67	7296.2	
399.87	7049.8	
400.07	8627.4	
400.28	8985.8	
400.48	7259.4	
400.69	8398	
400.89	10055	
401.09	9864.4	
401.3	7430.7	
401.5	8514.8	
401.7	10322	
401.91	10466	
402.11	7807.5	
402.32	8005.5	
402.52	9663	
402.72	9389.9	
402.93	8051.9	
403.13	6802.7	
403.33	10005	
403.54	8443.8	
403.74	7357	
403.94	7947.5	
404.15	8317.5	
404.35	9602.9	
404.56	6959.7	
404.76	8888.9	
404.96	8998.1	
405.17	8846.5	
405.37	8699.1	
405.57	7932.5	
405.78	9564.7	
405.98	8776.9	
406.18	7787.7	
406.39	8499.1	
406.59	9432.3	
406.79	9056.1	
407	7185.6	
407.2	7277.8	
407.4	9306	
407.61	9525.8	
407.81	7464.2	
408.01	9172.9	
408.22	8676.6	
408.42	10972	
408.62	9310.7	
408.83	8987.2	
409.03	10201	
409.23	10140	
409.44	9656.2	
409.64	9789.3	
409.84	11639	
410.05	11854	
410.25	9986.6	
410.45	9869.8	
410.66	11724	
410.86	13964	
411.06	10919	
411.27	10722	
411.47	14390	
411.67	12149	
411.88	10991	
412.08	11699	
412.28	13114	
412.49	13527	
412.69	11424	
412.89	11477	
413.09	13596	
413.3	13577	
413.5	11726	
413.7	11377	
413.91	12796	
414.11	13895	
414.31	11684	
414.52	12463	
414.72	13492	
414.92	13740	
415.12	11888	
415.33	12505	
415.53	14165	
415.73	14471	
415.94	12807	
416.14	12299	
416.34	13385	
416.55	12990	
416.75	13629	
416.95	13123	
417.15	14679	
417.36	15035	
417.56	14302	
417.76	13309	
417.97	15144	
418.17	15081	
418.37	12938	
418.57	13257	
418.78	14795	
418.98	14285	
419.18	14106	
419.38	13892	
419.59	14515	
419.79	13779	
419.99	12833	
420.2	13256	
420.4	14856	
420.6	14880	
420.8	12921	
421.01	12821	
421.21	15104	
421.41	15165	
421.61	13302	
421.82	13216	
422.02	14665	
422.22	15320	
422.42	14106	
422.63	13054	
422.83	14674	
423.03	15909	
423.23	13434	
423.44	12487	
423.64	14722	
423.84	14085	
424.04	12964	
424.25	12541	
424.45	15083	
424.65	15118	
424.85	12200	
425.06	12945	
425.26	15369	
425.46	13842	
425.66	13248	
425.87	12907	
426.07	14898	
426.27	14685	
426.47	13017	
426.67	12301	
426.88	15130	
427.08	14687	
427.28	13622	
427.48	12227	
427.69	13497	
427.89	14241	
428.09	13345	
428.29	12375	
428.5	14990	
428.7	14541	
428.9	12463	
429.1	12895	
429.3	14669	
429.51	15050	
429.71	12605	
429.91	13795	
430.11	15276	
430.31	15759	
430.52	13434	
430.72	13932	
430.92	15900	
431.12	15532	
431.32	13405	
431.53	13571	
431.73	14362	
431.93	15959	
432.13	13080	
432.33	13183	
432.54	14936	
432.74	15375	
432.94	13437	
433.14	14315	
433.34	15570	
433.55	15625	
433.75	14517	
433.95	16655	
434.15	15778	
434.35	15806	
434.56	13751	
434.76	13932	
434.96	16006	
435.16	16611	
435.36	14022	
435.56	15498	
435.77	16070	
435.97	16215	
436.17	16445	
436.37	15756	
436.57	16264	
436.78	16507	
436.98	15334	
437.18	16237	
437.38	17416	
437.58	16421	
437.78	16299	
437.99	14894	
438.19	16717	
438.39	17419	
438.59	14668	
438.79	13919	
438.99	16975	
439.2	15856	
439.4	13658	
439.6	13932	
439.8	16367	
440	17856	
440.2	15761	
440.4	16034	
440.61	17889	
440.81	18570	
441.01	15801	
441.21	17185	
441.41	19206	
441.61	18398	
441.81	17511	
442.02	18448	
442.22	19204	
442.42	18507	
442.62	16168	
442.82	15976	
443.02	19002	
443.22	18425	
443.43	16999	
443.63	16352	
443.83	18021	
444.03	18201	
444.23	18276	
444.43	17529	
444.63	19130	
444.83	19968	
445.04	17432	
445.24	18517	
445.44	19056	
445.64	19409	
445.84	17236	
446.04	17509	
446.24	17953	
446.44	19110	
446.65	16104	
446.85	16864	
447.05	17476	
447.25	18848	
447.45	16661	
447.65	16237	
447.85	18265	
448.05	17443	
448.25	17419	
448.46	17275	
448.66	18404	
448.86	18077	
449.06	16460	
449.26	17561	
449.46	19140	
449.66	17864	
449.86	17693	
450.06	17391	
450.26	18602	
450.47	19158	
450.67	17449	
450.87	18078	
451.07	19109	
451.27	19254	
451.47	16911	
451.67	18012	
451.87	19062	
452.07	19654	
452.27	17631	
452.47	17288	
452.67	19125	
452.88	19764	
453.08	16406	
453.28	18921	
453.48	20799	
453.68	18783	
453.88	17647	
454.08	17671	
454.28	20063	
454.48	19596	
454.68	18406	
454.88	18908	
455.08	20160	
455.28	20607	
455.48	17504	
455.68	18918	
455.89	21197	
456.09	21015	
456.29	18398	
456.49	19131	
456.69	21645	
456.89	20441	
457.09	19756	
457.29	20497	
457.49	21308	
457.69	21848	
457.89	20373	
458.09	19470	
458.29	21777	
458.49	22667	
458.69	20915	
458.89	20598	
459.09	23352	
459.29	23300	
459.49	20562	
459.69	21463	
459.9	22459	
460.1	22656	
460.3	20166	
460.5	20098	
460.7	22797	
460.9	22560	
461.1	20145	
461.3	21777	
461.5	24035	
461.7	23561	
461.9	21751	
462.1	21739	
462.3	23845	
462.5	24298	
462.7	21962	
462.9	22474	
463.1	25559	
463.3	25942	
463.5	22663	
463.7	24593	
463.9	24980	
464.1	25519	
464.3	24374	
464.5	24006	
464.7	26004	
464.9	26528	
465.1	25899	
465.3	24788	
465.5	26226	
465.7	26925	
465.9	25460	
466.1	24346	
466.3	27172	
466.5	26384	
466.7	26917	
466.9	25027	
467.1	27125	
467.3	28074	
467.5	27197	
467.7	25822	
467.9	28353	
468.1	29536	
468.3	26341	
468.5	27474	
468.7	27785	
468.9	27714	
469.1	26890	
469.3	27865	
469.5	30298	
469.7	28140	
469.9	26910	
470.1	26679	
470.3	28373	
470.5	28179	
470.7	28033	
470.9	26583	
471.1	28231	
471.3	27482	
471.5	26672	
471.69	28325	
471.89	27501	
472.09	26972	
472.29	27521	
472.49	26618	
472.69	27710	
472.89	28183	
473.09	26506	
473.29	25639	
473.49	27337	
473.69	27131	
473.89	26961	
474.09	25976	
474.29	28498	
474.49	27929	
474.69	26936	
474.89	26102	
475.09	27328	
475.29	27683	
475.49	25383	
475.69	26359	
475.88	28214	
476.08	27450	
476.28	25537	
476.48	25447	
476.68	27521	
476.88	27329	
477.08	25142	
477.28	25872	
477.48	26405	
477.68	27069	
477.88	25421	
478.08	25392	
478.28	28184	
478.48	26884	
478.67	25979	
478.87	24448	
479.07	28478	
479.27	27067	
479.47	26011	
479.67	26182	
479.87	27921	
480.07	28510	
480.27	25413	
480.47	26811	
480.67	27394	
480.87	28435	
481.06	25585	
481.26	26706	
481.46	27737	
481.66	27661	
481.86	26215	
482.06	27480	
482.26	27254	
482.46	28175	
482.66	25980	
482.86	25981	
483.05	27843	
483.25	27125	
483.45	28673	
483.65	26554	
483.85	27803	
484.05	28214	
484.25	27091	
484.45	28202	
484.65	29150	
484.84	29621	
485.04	26898	
485.24	27021	
485.44	29990	
485.64	28001	
485.84	27001	
486.04	28383	
486.24	28738	
486.44	29205	
486.63	26787	
486.83	27986	
487.03	29057	
487.23	29844	
487.43	27244	
487.63	30052	
487.83	29991	
488.02	30818	
488.22	29161	
488.42	29840	
488.62	30852	
488.82	29938	
489.02	28278	
489.22	29363	
489.41	30744	
489.61	30919	
489.81	28642	
490.01	28598	
490.21	31077	
490.41	31854	
490.61	28786	
490.8	29000	
491	30822	
491.2	29521	
491.4	28858	
491.6	27958	
491.8	29714	
491.99	29579	
492.19	27439	
492.39	27937	
492.59	30425	
492.79	30690	
492.99	29344	
493.18	28625	
493.38	31432	
493.58	33230	
493.78	30431	
493.98	29984	
494.18	32175	
494.37	32313	
494.57	32102	
494.77	31898	
494.97	33473	
495.17	34334	
495.37	32047	
495.56	32619	
495.76	35160	
495.96	34756	
496.16	33986	
496.36	33320	
496.55	35448	
496.75	35067	
496.95	33572	
497.15	33193	
497.35	35011	
497.54	35517	
497.74	33164	
497.94	35174	
498.14	36261	
498.34	36186	
498.53	33568	
498.73	34370	
498.93	35757	
499.13	36229	
499.33	34820	
499.52	34968	
499.72	36877	
499.92	36549	
500.12	34640	
500.32	34792	
500.51	36778	
500.71	37264	
500.91	35936	
501.11	35568	
501.31	37192	
501.5	37074	
501.7	36282	
501.9	35249	
502.1	36683	
502.29	37133	
502.49	36031	
502.69	35641	
502.89	36870	
503.09	36983	
503.28	33918	
503.48	34051	
503.68	35318	
503.88	35516	
504.07	34863	
504.27	34113	
504.47	36074	
504.67	35558	
504.86	34638	
505.06	34323	
505.26	35157	
505.46	36717	
505.65	33774	
505.85	33811	
506.05	34488	
506.25	34854	
506.44	32345	
506.64	32815	
506.84	34123	
507.04	34701	
507.23	32247	
507.43	32707	
507.63	35767	
507.83	34284	
508.02	32754	
508.22	32780	
508.42	36350	
508.62	34081	
508.81	32308	
509.01	33462	
509.21	33310	
509.4	33968	
509.6	32751	
509.8	32477	
510	33870	
510.19	35730	
510.39	32636	
510.59	32817	
510.79	34166	
510.98	35946	
511.18	32795	
511.38	33252	
511.57	34842	
511.77	34835	
511.97	33361	
512.17	32128	
512.36	34840	
512.56	34396	
512.76	32213	
512.95	31853	
513.15	34612	
513.35	33493	
513.55	33163	
513.74	32442	
513.94	34944	
514.14	34260	
514.33	33580	
514.53	33328	
514.73	34075	
514.92	34603	
515.12	32950	
515.32	32926	
515.51	34899	
515.71	35233	
515.91	34680	
516.11	33318	
516.3	36941	
516.5	34730	
516.7	33647	
516.89	34379	
517.09	34527	
517.29	34770	
517.48	33888	
517.68	33170	
517.88	34393	
518.07	35228	
518.27	33879	
518.47	32777	
518.66	35293	
518.86	34200	
519.06	32458	
519.25	33008	
519.45	34370	
519.65	36435	
519.84	34023	
520.04	34925	
520.24	36706	
520.43	35218	
520.63	33476	
520.83	32991	
521.02	34027	
521.22	34175	
521.42	32814	
521.61	33470	
521.81	33713	
522.01	33877	
522.2	33063	
522.4	32546	
522.6	34802	
522.79	33862	
522.99	33239	
523.18	33142	
523.38	35633	
523.58	35957	
523.77	36302	
523.97	34022	
524.17	38399	
524.36	38021	
524.56	36074	
524.76	36095	
524.95	37702	
525.15	37093	
525.34	36165	
525.54	36534	
525.74	38553	
525.93	37744	
526.13	37973	
526.33	37441	
526.52	39289	
526.72	38922	
526.91	38672	
527.11	38051	
527.31	39641	
527.5	40364	
527.7	38303	
527.89	37743	
528.09	39509	
528.29	40658	
528.48	38824	
528.68	38556	
528.87	40124	
529.07	39718	
529.27	38385	
529.46	37759	
529.66	39836	
529.85	40546	
530.05	38010	
530.25	38526	
530.44	41516	
530.64	39493	
530.83	37927	
531.03	38394	
531.23	40035	
531.42	40277	
531.62	39505	
531.81	38849	
532.01	41284	
532.21	41986	
532.4	40001	
532.6	40764	
532.79	43086	
532.99	43087	
533.18	41281	
533.38	41880	
533.58	42764	
533.77	43254	
533.97	41775	
534.16	42548	
534.36	43918	
534.55	43261	
534.75	42776	
534.95	41906	
535.14	44584	
535.34	43134	
535.53	41369	
535.73	43251	
535.92	44566	
536.12	42592	
536.31	41118	
536.51	42145	
536.71	42682	
536.9	42449	
537.1	41123	
537.29	41417	
537.49	43205	
537.68	42376	
537.88	41953	
538.07	40985	
538.27	43277	
538.46	44231	
538.66	41253	
538.86	42051	
539.05	43248	
539.25	43778	
539.44	42741	
539.64	41600	
539.83	43074	
540.03	44000	
540.22	41381	
540.42	40716	
540.61	42415	
540.81	42834	
541	40819	
541.2	42329	
541.39	41863	
541.59	42682	
541.78	41873	
541.98	40301	
542.18	41456	
542.37	41445	
542.57	40305	
542.76	41341	
542.96	40779	
543.15	41673	
543.35	39793	
543.54	39179	
543.74	41005	
543.93	40953	
544.13	38974	
544.32	39957	
544.52	40641	
544.71	39980	
544.91	38203	
545.1	39250	
545.3	40015	
545.49	40895	
545.69	38076	
545.88	38421	
546.08	41615	
546.27	40999	
546.47	39018	
546.66	38148	
546.86	40563	
547.05	41074	
547.24	38324	
547.44	38504	
547.63	39188	
547.83	40462	
548.02	38823	
548.22	38529	
548.41	39107	
548.61	40089	
548.8	37810	
549	37698	
549.19	39295	
549.39	39885	
549.58	37251	
549.78	37618	
549.97	39502	
550.17	38610	
550.36	38111	
550.55	39249	
550.75	38631	
550.94	39204	
551.14	36679	
551.33	36648	
551.53	38084	
551.72	38831	
551.92	36979	
552.11	36798	
552.31	38803	
552.5	38613	
552.69	38203	
552.89	36215	
553.08	38427	
553.28	38368	
553.47	36570	
553.67	37519	
553.86	38812	
554.06	36941	
554.25	35279	
554.44	36117	
554.64	39199	
554.83	39116	
555.03	35907	
555.22	36324	
555.42	37941	
555.61	37567	
555.8	35700	
556	35815	
556.19	37004	
556.39	37911	
556.58	35746	
556.78	35613	
556.97	37545	
557.16	37431	
557.36	36850	
557.55	35603	
557.75	36375	
557.94	38434	
558.13	35503	
558.33	35245	
558.52	37949	
558.72	36882	
558.91	35196	
559.1	35191	
559.3	36313	
559.49	35759	
559.69	34574	
559.88	35543	
560.07	36727	
560.27	37106	
560.46	35547	
560.66	35510	
560.85	36610	
561.04	35522	
561.24	34626	
561.43	34311	
561.63	35691	
561.82	35888	
562.01	35764	
562.21	34977	
562.4	36306	
562.59	37696	
562.79	35005	
562.98	34764	
563.18	36732	
563.37	38373	
563.56	35848	
563.76	35330	
563.95	36641	
564.14	36534	
564.34	35521	
564.53	35112	
564.73	37001	
564.92	37627	
565.11	35940	
565.31	35383	
565.5	37976	
565.69	36865	
565.89	35559	
566.08	36114	
566.27	37882	
566.47	38777	
566.66	36691	
566.85	35665	
567.05	37630	
567.24	37184	
567.44	35904	
567.63	37100	
567.82	37842	
568.02	37761	
568.21	35886	
568.4	36235	
568.6	37836	
568.79	37926	
568.98	36069	
569.18	36526	
569.37	38332	
569.56	40180	
569.76	37096	
569.95	38097	
570.14	38570	
570.34	38792	
570.53	36321	
570.72	36572	
570.91	39133	
571.11	38351	
571.3	36777	
571.49	37575	
571.69	38345	
571.88	37829	
572.07	37786	
572.27	37184	
572.46	38049	
572.65	39000	
572.85	36811	
573.04	37367	
573.23	39665	
573.43	38680	
573.62	37184	
573.81	37820	
574	39438	
574.2	39380	
574.39	38095	
574.58	38393	
574.78	41047	
574.97	40374	
575.16	39168	
575.36	39359	
575.55	41174	
575.74	40820	
575.93	38194	
576.13	39729	
576.32	40038	
576.51	40955	
576.71	38641	
576.9	40267	
577.09	41067	
577.28	40591	
577.48	39217	
577.67	38268	
577.86	40302	
578.05	41021	
578.25	39219	
578.44	39418	
578.63	40562	
578.83	42216	
579.02	38540	
579.21	40620	
579.4	41029	
579.6	41131	
579.79	39350	
579.98	41824	
580.17	41311	
580.37	41542	
580.56	38706	
580.75	39964	
580.94	41934	
581.14	41682	
581.33	40639	
581.52	39221	
581.71	41592	
581.91	42097	
582.1	39316	
582.29	39653	
582.48	41138	
582.68	41142	
582.87	40152	
583.06	39727	
583.25	41415	
583.45	40997	
583.64	40876	
583.83	41381	
584.02	41086	
584.21	41891	
584.41	40557	
584.6	40148	
584.79	41325	
584.98	42477	
585.18	39445	
585.37	39311	
585.56	40865	
585.75	42043	
585.94	39094	
586.14	40137	
586.33	41585	
586.52	40834	
586.71	39395	
586.91	38978	
587.1	39484	
587.29	40545	
587.48	37986	
587.67	38367	
587.87	40047	
588.06	39868	
588.25	39444	
588.44	38642	
588.63	39335	
588.83	39860	
589.02	37299	
589.21	36921	
589.4	37943	
589.59	37932	
589.78	34866	
589.98	34833	
590.17	35866	
590.36	36300	
590.55	32866	
590.74	33180	
590.94	36308	
591.13	34886	
591.32	32875	
591.51	32561	
591.7	35758	
591.89	35573	
592.09	33218	
592.28	33857	
592.47	34871	
592.66	37066	
592.85	33721	
593.05	33957	
593.24	35385	
593.43	36407	
593.62	34020	
593.81	34385	
594	35532	
594.19	35876	
594.39	33594	
594.58	33637	
594.77	35763	
594.96	36146	
595.15	33328	
595.34	33969	
595.54	35261	
595.73	34396	
595.92	32286	
596.11	33087	
596.3	35419	
596.49	34209	
596.68	32941	
596.88	33563	
597.07	35112	
597.26	34116	
597.45	32393	
597.64	33873	
597.83	34339	
598.02	35035	
598.22	32520	
598.41	33193	
598.6	34503	
598.79	33822	
598.98	32220	
599.17	33223	
599.36	34450	
599.55	35417	
599.74	34419	
599.94	34148	
600.13	34802	
600.32	33470	
600.51	31966	
600.7	32130	
600.89	35188	
601.08	35364	
601.27	31799	
601.47	32706	
601.66	34365	
601.85	35152	
602.04	32428	
602.23	32283	
602.42	33552	
602.61	34050	
602.8	31957	
602.99	31458	
603.18	33275	
603.37	33949	
603.57	32066	
603.76	32757	
603.95	34606	
604.14	34158	
604.33	31935	
604.52	32378	
604.71	34047	
604.9	33529	
605.09	33088	
605.28	32441	
605.47	34616	
605.66	33984	
605.86	32319	
606.05	31863	
606.24	34203	
606.43	32830	
606.62	31813	
606.81	32467	
607	33918	
607.19	33382	
607.38	31063	
607.57	31439	
607.76	33002	
607.95	32240	
608.14	31717	
608.33	32163	
608.52	32641	
608.72	33809	
608.91	30861	
609.1	30880	
609.29	32544	
609.48	31841	
609.67	31442	
609.86	30357	
610.05	32015	
610.24	32236	
610.43	30493	
610.62	29841	
610.81	33181	
611	33237	
611.19	30505	
611.38	30984	
611.57	32539	
611.76	33843	
611.95	30059	
612.14	29754	
612.33	32455	
612.52	31810	
612.71	30500	
612.9	29760	
613.09	31404	
613.28	33637	
613.47	30096	
613.66	31169	
613.85	32267	
614.04	31683	
614.24	30325	
614.43	29446	
614.62	32350	
614.81	32346	
615	30746	
615.19	31102	
615.38	31549	
615.57	32111	
615.76	30623	
615.95	31832	
616.14	32619	
616.33	32293	
616.52	30966	
616.71	31292	
616.9	32376	
617.09	32615	
617.28	30429	
617.47	31872	
617.66	31851	
617.85	31982	
618.04	32096	
618.22	31389	
618.41	32701	
618.6	33961	
618.79	31537	
618.98	31790	
619.17	34398	
619.36	32817	
619.55	31890	
619.74	31993	
619.93	34054	
620.12	33548	
620.31	32860	
620.5	33225	
620.69	34904	
620.88	35485	
621.07	33994	
621.26	33299	
621.45	34832	
621.64	34948	
621.83	33194	
622.02	32597	
622.21	34759	
622.4	34797	
622.59	34325	
622.78	33964	
622.97	34559	
623.16	35469	
623.35	33393	
623.54	32605	
623.72	34970	
623.91	34972	
624.1	33779	
624.29	32759	
624.48	36196	
624.67	35254	
624.86	33957	
625.05	32811	
625.24	36160	
625.43	34615	
625.62	35607	
625.81	33275	
626	35425	
626.19	34906	
626.38	34262	
626.56	33313	
626.75	34928	
626.94	36052	
627.13	33993	
627.32	32724	
627.51	35538	
627.7	36831	
627.89	32503	
628.08	33942	
628.27	34391	
628.46	34668	
628.65	32869	
628.83	32810	
629.02	35060	
629.21	34663	
629.4	33463	
629.59	33495	
629.78	34519	
629.97	35196	
630.16	33532	
630.35	33163	
630.54	35757	
630.72	35238	
630.91	33219	
631.1	33368	
631.29	35072	
631.48	35060	
631.67	33614	
631.86	32673	
632.05	34560	
632.24	34567	
632.42	32490	
632.61	33229	
632.8	34407	
632.99	34359	
633.18	33325	
633.37	33447	
633.56	34519	
633.75	34611	
633.93	33249	
634.12	33013	
634.31	35491	
634.5	35304	
634.69	32936	
634.88	32873	
635.07	34396	
635.25	34882	
635.44	33710	
635.63	33948	
635.82	33956	
636.01	33503	
636.2	33241	
636.39	32903	
636.57	35027	
636.76	34516	
636.95	32293	
637.14	33560	
637.33	34146	
637.52	35414	
637.7	31797	
637.89	32814	
638.08	33963	
638.27	34902	
638.46	32744	
638.65	32957	
638.83	34425	
639.02	33243	
639.21	32117	
639.4	32643	
639.59	33374	
639.78	32944	
639.96	31008	
640.15	31223	
640.34	32746	
640.53	32776	
640.72	30571	
640.91	30683	
641.09	31845	
641.28	33153	
641.47	30942	
641.66	31653	
641.85	32854	
642.03	32428	
642.22	30958	
642.41	30543	
642.6	32041	
642.79	31181	
642.97	29737	
643.16	30657	
643.35	31455	
643.54	30992	
643.73	29599	
643.91	30342	
644.1	30473	
644.29	31462	
644.48	29071	
644.67	29286	
644.85	30332	
645.04	30328	
645.23	28045	
645.42	28685	
645.6	29549	
645.79	30615	
645.98	27901	
646.17	26835	
646.36	28287	
646.54	28670	
646.73	27529	
646.92	26617	
647.11	27951	
647.29	28921	
647.48	26430	
647.67	26101	
647.86	29079	
648.05	29644	
648.23	26553	
648.42	27818	
648.61	28491	
648.8	28308	
648.98	25963	
649.17	26452	
649.36	27622	
649.55	27451	
649.73	26116	
649.92	27055	
650.11	27767	
650.3	27856	
650.48	26047	
650.67	25881	
650.86	27749	
651.05	26803	
651.23	25883	
651.42	25602	
651.61	27048	
651.79	26928	
651.98	25976	
652.17	25407	
652.36	27290	
652.54	26430	
652.73	25322	
652.92	25017	
653.11	27216	
653.29	27150	
653.48	24165	
653.67	24955	
653.85	26398	
654.04	27453	
654.23	24737	
654.42	24020	
654.6	24833	
654.79	25338	
654.98	22596	
655.16	22674	
655.35	23365	
655.54	23455	
655.73	22136	
655.91	22014	
656.1	24589	
656.29	23647	
656.47	22263	
656.66	24066	
656.85	24581	
657.03	24766	
657.22	23257	
657.41	23638	
657.59	25153	
657.78	25074	
657.97	23281	
658.16	24058	
658.34	25598	
658.53	26237	
658.72	24926	
658.9	25267	
659.09	25190	
659.28	25332	
659.46	23843	
659.65	23655	
659.84	24965	
660.02	25694	
660.21	23532	
660.4	23570	
660.58	25992	
660.77	25305	
660.96	24351	
661.14	23085	
661.33	26366	
661.52	26160	
661.7	22942	
661.89	26630	
662.08	24597	
662.26	24321	
662.45	22898	
662.64	23000	
662.82	25288	
663.01	24537	
663.2	23055	
663.38	23926	
663.57	24931	
663.75	24733	
663.94	23350	
664.13	24478	
664.31	24293	
664.5	24978	
664.69	23336	
664.87	23906	
665.06	24032	
665.25	24844	
665.43	24221	
665.62	24304	
665.8	24997	
665.99	24141	
666.18	22963	
666.36	23135	
666.55	24639	
666.74	24860	
666.92	22627	
667.11	23931	
667.29	24131	
667.48	24548	
667.67	23726	
667.85	22853	
668.04	24034	
668.22	24366	
668.41	22831	
668.6	22984	
668.78	23834	
668.97	24150	
669.15	23240	
669.34	21951	
669.53	23692	
669.71	24060	
669.9	22083	
670.08	22730	
670.27	23849	
670.46	24236	
670.64	23012	
670.83	23264	
671.01	23466	
671.2	24114	
671.38	22348	
671.57	22104	
671.76	24621	
671.94	25367	
672.13	21957	
672.31	22978	
672.5	24410	
672.69	23580	
672.87	22302	
673.06	22485	
673.24	24099	
673.43	23649	
673.61	22936	
673.8	22460	
673.98	24253	
674.17	24464	
674.36	22898	
674.54	22959	
674.73	23856	
674.91	24238	
675.1	22730	
675.28	22075	
675.47	23690	
675.65	24359	
675.84	22167	
676.03	22917	
676.21	23454	
676.4	22913	
676.58	23021	
676.77	22881	
676.95	24917	
677.14	23267	
677.32	21878	
677.51	21794	
677.69	24104	
677.88	23034	
678.06	21861	
678.25	21863	
678.44	23666	
678.62	23326	
678.81	21616	
678.99	22653	
679.18	24428	
679.36	24043	
679.55	22250	
679.73	22898	
679.92	23664	
680.1	23287	
680.29	23474	
680.47	22035	
680.66	23013	
680.84	23952	
681.03	21414	
681.21	22522	
681.4	23287	
681.58	22988	
681.77	21872	
681.95	21701	
682.14	24048	
682.32	24163	
682.51	22595	
682.69	21168	
682.88	22799	
683.06	23139	
683.25	22050	
683.43	22579	
683.62	23066	
683.8	23439	
683.99	22479	
684.17	21658	
684.36	24037	
684.54	22339	
684.73	19914	
684.91	19709	
685.1	21584	
685.28	20587	
685.46	19488	
685.65	19570	
685.83	21003	
686.02	20463	
686.2	18997	
686.39	19424	
686.57	20306	
686.76	22299	
686.94	19564	
687.13	19798	
687.31	21602	
687.5	21363	
687.68	19329	
687.86	20601	
688.05	23033	
688.23	20921	
688.42	20900	
688.6	20329	
688.79	21493	
688.97	21628	
689.16	20863	
689.34	19555	
689.52	22418	
689.71	22738	
689.89	21068	
690.08	20269	
690.26	21970	
690.45	21992	
690.63	20975	
690.81	20615	
691	21504	
691.18	21561	
691.37	20269	
691.55	22380	
691.74	21160	
691.92	23120	
692.1	20080	
692.29	19377	
692.47	21251	
692.66	20610	
692.84	19660	
693.02	20263	
693.21	21066	
693.39	21265	
693.58	20725	
693.76	20134	
693.94	22726	
694.13	23057	
694.31	20425	
694.5	21655	
694.68	21896	
694.86	22430	
695.05	21222	
695.23	21201	
695.42	22935	
695.6	25037	
695.78	22085	
695.97	20652	
696.15	22895	
696.34	22147	
696.52	20381	
696.7	21150	
696.89	22072	
697.07	21423	
697.25	20811	
697.44	22296	
697.62	21820	
697.81	22146	
697.99	20203	
698.17	20857	
698.36	20874	
698.54	21543	
698.72	20562	
698.91	19425	
699.09	21070	
699.28	21004	
699.46	20166	
699.64	19803	
699.83	20920	
700.01	21837	
700.19	20504	
700.38	19171	
700.56	22242	
700.74	21175	
700.93	19738	
701.11	20452	
701.29	21805	
701.48	22812	
701.66	20033	
701.84	20149	
702.03	21429	
702.21	22276	
702.39	19592	
702.58	20473	
702.76	21825	
702.94	21997	
703.13	19444	
703.31	21973	
703.49	21097	
703.68	22131	
703.86	19478	
704.04	20722	
704.23	21295	
704.41	21805	
704.59	19735	
704.78	20708	
704.96	22676	
705.14	21728	
705.33	19598	
705.51	20192	
705.69	21122	
705.87	21907	
706.06	20476	
706.24	19325	
706.42	21228	
706.61	21832	
706.79	20416	
706.97	19295	
707.16	20831	
707.34	21138	
707.52	20149	
707.7	19471	
707.89	20809	
708.07	20403	
708.25	20045	
708.44	20501	
708.62	20547	
708.8	21625	
708.98	20211	
709.17	19320	
709.35	20860	
709.53	20590	
709.72	18721	
709.9	19078	
710.08	20879	
710.26	20955	
710.45	19946	
710.63	18951	
710.81	20246	
710.99	20280	
711.18	19258	
711.36	18623	
711.54	20106	
711.72	20549	
711.91	18346	
712.09	17819	
712.27	19620	
712.45	20071	
712.64	18272	
712.82	17264	
713	18428	
713.18	18540	
713.37	16858	
713.55	17738	
713.73	18771	
713.91	16797	
714.1	15931	
714.28	14987	
714.46	17046	
714.64	15820	
714.83	13441	
715.01	13988	
715.19	15199	
715.37	14273	
715.55	13264	
715.74	13522	
715.92	15667	
716.1	13573	
716.28	14393	
716.47	13287	
716.65	13965	
716.83	14098	
717.01	13001	
717.19	12993	
717.38	16257	
717.56	13799	
717.74	13580	
717.92	12783	
718.1	15303	
718.29	14707	
718.47	12966	
718.65	13962	
718.83	16123	
719.01	16231	
719.2	13464	
719.38	14759	
719.56	15928	
719.74	17628	
719.92	14118	
720.11	14850	
720.29	15535	
720.47	14480	
720.65	12902	
720.83	13550	
721.02	14185	
721.2	13879	
721.38	13139	
721.56	12288	
721.74	13145	
721.92	13228	
722.11	13575	
722.29	13083	
722.47	14470	
722.65	13676	
722.83	12174	
723.01	13004	
723.2	13743	
723.38	14089	
723.56	11603	
723.74	12747	
723.92	13201	
724.1	14379	
724.29	11985	
724.47	13164	
724.65	13118	
724.83	13031	
725.01	11746	
725.19	12549	
725.37	13008	
725.56	13157	
725.74	11620	
725.92	11985	
726.1	12885	
726.28	13166	
726.46	12028	
726.64	11864	
726.83	13002	
727.01	13449	
727.19	11409	
727.37	12457	
727.55	13326	
727.73	13776	
727.91	11465	
728.09	11192	
728.28	13854	
728.46	14263	
728.64	12562	
728.82	12446	
729	15109	
729.18	14297	
729.36	11871	
729.54	14111	
729.72	15722	
729.91	14015	
730.09	14021	
730.27	12860	
730.45	13977	
730.63	14551	
730.81	13565	
730.99	12795	
731.17	15245	
731.35	13801	
731.53	13158	
731.71	12772	
731.9	14820	
732.08	14895	
732.26	12744	
732.44	12473	
732.62	14953	
732.8	14321	
732.98	13154	
733.16	12137	
733.34	14174	
733.52	12977	
733.7	12377	
733.88	12828	
734.07	13928	
734.25	13776	
734.43	11874	
734.61	13481	
734.79	15335	
734.97	13518	
735.15	12025	
735.33	12276	
735.51	13756	
735.69	13540	
735.87	13482	
736.05	12469	
736.23	13614	
736.41	13349	
736.59	12111	
736.77	12460	
736.95	14100	
737.13	13516	
737.32	11828	
737.5	12204	
737.68	14492	
737.86	13228	
738.04	11626	
738.22	13403	
738.4	12859	
738.58	13112	
738.76	12082	
738.94	11132	
739.12	13077	
739.3	12920	
739.48	12650	
739.66	12547	
739.84	13357	
740.02	13254	
740.2	11101	
740.38	11383	
740.56	13617	
740.74	12348	
740.92	12019	
741.1	11771	
741.28	12695	
741.46	12615	
741.64	11353	
741.82	11939	
742	12667	
742.18	12622	
742.36	11525	
742.54	11060	
742.72	13161	
742.9	11900	
743.08	11871	
743.26	10469	
743.44	13267	
743.62	13104	
743.8	11773	
743.98	10722	
744.16	12642	
744.34	12385	
744.52	11500	
744.7	11378	
744.88	12620	
745.06	12109	
745.24	11429	
745.42	11360	
745.6	12558	
745.78	12177	
745.96	10004	
746.14	10277	
746.32	13190	
746.5	12301	
746.68	10729	
746.86	10212	
747.03	12689	
747.21	10832	
747.39	10571	
747.57	10107	
747.75	11712	
747.93	12197	
748.11	10090	
748.29	9989.3	
748.47	13370	
748.65	11357	
748.83	10759	
749.01	10460	
749.19	11917	
749.37	11038	
749.55	10115	
749.73	10385	
749.91	11498	
750.09	11186	
750.26	10245	
750.44	9683.5	
750.62	11515	
750.8	11472	
750.98	9516.9	
751.16	9720.3	
751.34	11521	
751.52	10733	
751.7	10607	
751.88	9361.9	
752.06	11909	
752.24	11642	
752.42	9300.5	
752.59	9673.9	
752.77	11141	
752.95	12545	
753.13	10380	
753.31	9727.2	
753.49	10862	
753.67	11303	
753.85	9948.3	
754.03	9488.2	
754.21	11331	
754.38	11688	
754.56	9370.8	
754.74	8243.8	
754.92	10153	
755.1	10867	
755.28	7840.3	
755.46	7509.2	
755.64	10438	
755.82	10260	
755.99	6666.8	
756.17	6518.7	
756.35	6782.2	
756.53	8259.5	
756.71	4921.3	
756.89	5844.9	
757.07	7792.5	
757.25	7009.5	
757.42	6746.7	
757.6	7864.2	
757.78	8563.9	
757.96	7770.7	
758.14	6989	
758.32	6592.4	
758.5	7296.2	
758.67	7933.1	
758.85	6556.2	
759.03	6701	
759.21	8033.5	
759.39	7456.7	
759.57	6203.3	
759.75	7292.8	
759.92	8858.1	
760.1	8083.3	
760.28	7927	
760.46	8230.8	
760.64	8105.2	
760.82	7919.5	
760.99	7976.8	
761.17	7210.2	
761.35	9221.3	
761.53	8177.5	
761.71	7410.9	
761.89	8259.5	
762.06	9245.2	
762.24	8723.7	
762.42	7698.3	
762.6	7613	
762.78	8910	
762.96	9529.9	
763.13	8243.1	
763.31	7967.3	
763.49	9894.4	
763.67	8998.1	
763.85	8808.3	
764.02	9344.9	
764.2	10026	
764.38	9194.7	
764.56	7676.5	
764.74	8550.3	
764.91	10118	
765.09	8986.5	
765.27	7382.9	
765.45	7127.6	
765.63	10099	
765.8	9890.3	
765.98	6822.5	
766.16	7105.1	
766.34	8315.4	
766.52	8107.2	
766.69	8081.3	
766.87	6863.4	
767.05	8590.5	
767.23	9351.7	
767.41	7096.2	
767.58	7260	
767.76	9002.9	
767.94	9122.3	
768.12	7101.7	
768.29	7685.3	
768.47	8452.6	
768.65	9192.6	
768.83	6516	
769	7747.5	
769.18	7863.5	
769.36	8568	
769.54	7538.6	
769.72	6406.7	
769.89	8833.6	
770.07	8909.3	
770.25	6646.3	
770.43	7970.7	
770.6	9430.9	
770.78	9783.8	
770.96	6833.4	
771.14	7360.4	
771.31	8475.9	
771.49	7826.7	
771.67	5695.4	
771.85	6094.1	
772.02	7002	
772.2	7699	
772.38	6685.3	
772.55	6251.8	
772.73	7907.9	
772.91	7598.6	
773.09	6474.3	
773.26	6543.9	
773.44	7718.8	
773.62	7333.8	
773.8	5821.7	
773.97	5620.3	
774.15	7733.8	
774.33	7322.9	
774.5	5700.2	
774.68	5996.5	
774.86	7756.3	
775.04	7191.8	
775.21	5713.2	
775.39	5623	
775.57	7453.9	
775.74	7827.3	
775.92	5365	
776.1	5297.4	
776.27	7291.5	
776.45	8611.7	
776.63	5441.5	
776.81	5011.4	
776.98	6860.7	
777.16	8064.9	
777.34	5576.6	
777.51	5770.5	
777.69	6832.7	
777.87	6560.3	
778.04	5508.4	
778.22	6189	
778.4	6457.9	
778.57	7179.5	
778.75	4805.9	
778.93	5016.8	
779.1	6281.8	
779.28	6113.9	
779.46	4575.8	
779.64	5087.2	
779.81	7257.3	
779.99	8136.6	
780.17	5938.4	
780.34	5985.5	
780.52	6624.5	
780.69	6749.4	
780.87	5379.3	
781.05	4905.6	
781.22	6602	
781.4	6649.1	
781.58	5003.2	
781.75	4143.7	
781.93	6591.7	
782.11	5892.7	
782.28	5896.8	
782.46	4979.3	
782.64	5695.4	
782.81	6673.6	
782.99	5007.3	
783.17	4926.7	
783.34	6598.6	
783.52	5716.6	
783.69	5059.8	
783.87	5931.6	
784.05	5773.9	
784.22	5816.9	
784.4	5900.9	
784.58	5149.3	
784.75	6746.7	
784.93	5731.6	
785.1	4762.9	
785.28	5321.3	
785.46	6400.6	
785.63	5702.2	
785.81	4706.9	
785.99	4549.2	
786.16	5842.2	
786.34	6250.4	
786.51	4577.2	
786.69	4945.2	
786.87	5413.5	
787.04	5888.6	
787.22	4366.3	
787.39	5294	
787.57	5592.3	
787.75	6787.7	
787.92	5512.4	
788.1	5396.4	
788.27	5638.7	
788.45	5324.7	
788.63	5160.2	
788.8	3736.9	
788.98	6108.4	
789.15	5236	
789.33	3895.9	
789.5	4579.9	
789.68	6500.3	
789.86	6621.1	
790.03	4997.7	
790.21	4369.7	
790.38	6432.7	
790.56	5653.1	
790.73	4315.1	
790.91	4324.6	
791.09	5454.4	
791.26	6228.6	
791.44	4473.4	
791.61	3859.7	
791.79	5468.8	
791.96	5560.2	
792.14	3960.1	
792.32	3566.9	
792.49	5378	
792.67	5560.9	
792.84	4113.7	
793.02	3848.1	
793.19	6285.9	
793.37	6628.6	
793.54	3605.1	
793.72	3909.6	
793.89	6773.3	
794.07	5415.5	
794.25	4483.7	
794.42	3646.7	
794.6	6518.7	
794.77	6047	
794.95	4800.4	
795.12	4197	
795.3	5377.3	
795.47	6036	
795.65	4635.2	
795.82	4400.4	
796	5201.8	
796.17	7178.1	
796.35	4279.6	
796.52	4997	
796.7	5844.9	
796.87	6023.8	
797.05	5206.6	
797.22	5197.7	
797.4	5911.1	
797.57	6944	
797.75	4373.1	
797.92	4147.8	
798.1	6255.2	
798.27	5291.3	
798.45	3575.1	
798.62	3821.5	
798.8	5667.4	
798.97	6107.7	
799.15	4644.8	
799.32	4369	
799.5	4867.3	
799.67	5761.6	
799.85	4696.7	
800.02	3436.5	
800.2	5253.7	
800.37	5633.3	
800.55	4926	
800.72	4091.8	
800.9	6078.4	
801.07	6484.6	
801.25	5377.3	
801.42	4500.1	
801.6	6018.3	
801.77	5772.5	
801.95	4153.3	
802.12	4024.9	
802.29	5866.1	
802.47	5769.8	
802.64	4432.5	
802.82	3404.4	
802.99	5227.8	
803.17	6251.8	
803.34	4313.7	
803.52	3901.4	
803.69	6923.5	
803.87	5032.5	
804.04	4274.1	
804.21	4419.5	
804.39	6322.8	
804.56	5427.1	
804.74	3655.6	
804.91	4453.6	
805.09	5248.9	
805.26	5269.4	
805.44	3731.4	
805.61	4031.8	
805.78	5862	
805.96	5954.8	
806.13	4419.5	
806.31	4742.4	
806.48	4821.6	
806.66	5254.4	
806.83	4396.3	
807	4362.2	
807.18	5199.8	
807.35	5656.5	
807.53	4314.4	
807.7	3383.9	
807.87	6417	
808.05	5225.7	
808.22	4713.7	
808.4	3402.4	
808.57	5257.1	
808.74	4829.8	
808.92	3908.9	
809.09	4932.2	
809.27	5051	
809.44	5707	
809.61	3446	
809.79	3792.8	
809.96	6368.5	
810.14	5995.1	
810.31	3327.9	
810.48	4102.1	
810.66	5228.5	
810.83	6077.7	
811.01	3860.4	
811.18	4343.7	
811.35	5933	
811.53	4639.3	
811.7	4682.3	
811.87	4343.1	
812.05	5197.7	
812.22	5059.8	
812.39	3767.6	
812.57	3660.4	
812.74	5190.2	
812.92	6832.7	
813.09	4057	
813.26	4435.2	
813.44	6603.3	
813.61	5131.5	
813.78	3437.9	
813.96	4508.9	
814.13	5162.9	
814.3	4847.5	
814.48	4934.2	
814.65	4063.2	
814.82	6451.1	
815	4947.9	
815.17	4174.4	
815.34	5076.2	
815.52	5128.1	
815.69	5128.1	
815.87	4092.5	
816.04	3632.4	
816.21	5211.4	
816.38	4577.2	
816.56	3996.3	
816.73	3729.4	
816.9	6474.3	
817.08	5962.3	
817.25	3768.9	
817.42	4768.4	
817.6	4689.8	
817.77	5178.6	
817.94	4237.9	
818.12	3732.1	
818.29	4910.3	
818.46	7613.7	
818.64	3891.1	
818.81	3680.9	
818.98	4835.9	
819.16	6962.4	
819.33	4448.9	
819.5	4193.6	
819.67	5545.9	
819.85	6179.4	
820.02	4124.6	
820.19	4365.6	
820.37	5354.8	
820.54	4932.2	
820.71	4309.6	
820.88	5241.4	
821.06	5421	
821.23	4989.5	
821.4	4268	
821.58	4251.6	
821.75	5897.5	
821.92	5283.8	
822.09	3396.9	
822.27	3496.6	
822.44	5152.7	
822.61	5061.2	
822.79	3463.8	
822.96	6634.7	
823.13	5657.9	
823.3	4896.7	
823.48	3887	
823.65	3559.4	
823.82	5867.4	
823.99	4713.7	
824.17	5022.3	
824.34	3623.5	
824.51	6718	
824.68	5197.1	
824.86	3783.3	
825.03	4216.8	
825.2	5208	
825.37	6227.9	
825.55	3739.6	
825.72	4166.3	
825.89	6858.6	
826.06	6339.1	
826.24	4009.9	
826.41	4040.6	
826.58	6285.9	
826.75	5454.4	
826.92	3202.3	
827.1	3564.8	
827.27	8536.6	
827.44	6861.4	
827.61	3842.7	
827.79	4649.6	
827.96	4937	
828.13	5248.9	
828.3	4005.1	
828.47	3393.5	
828.65	5345.9	
828.82	5287.9	
828.99	5213.4	
829.16	4542.4	
829.34	5720.7	
829.51	5528.8	
829.68	4122.6	
829.85	4345.1	
830.02	6096.1	
830.2	5787.6	
830.37	3209.8	
830.54	5016.8	
830.71	6550.1	
830.88	5129.5	
831.05	3304.7	
831.23	3778.5	
831.4	6279.1	
831.57	7038.9	
831.74	3829	
831.91	3419.4	
832.09	5400.5	
832.26	5745.9	
832.43	4047.5	
832.6	4450.9	
832.77	5375.9	
832.94	6171.9	
833.12	3148.4	
833.29	3994.2	
833.46	5055.1	
833.63	7315.3	
833.8	4306.2	
833.97	4018.1	
834.15	5825.8	
834.32	5546.6	
834.49	4179.2	
834.66	4267.3	
834.83	5973.9	
835	4870.8	
835.17	3867.2	
835.35	3912.3	
835.52	5663.3	
835.69	5554.1	
835.86	4105.5	
836.03	3302	
836.2	5677	
836.37	5370.5	
836.55	4012.7	
836.72	3755.3	
836.89	5294	
837.06	5890.6	
837.23	4139.6	
837.4	4388.1	
837.57	6550.1	
837.75	7275.1	
837.92	3650.2	
838.09	3898	
838.26	5347.2	
838.43	6032.6	
838.6	4179.2	
838.77	3767.6	
838.94	6890.7	
839.11	6632	
839.29	4030.4	
839.46	3156.6	
839.63	5722.7	
839.8	5471.5	
839.97	3922.5	
840.14	3851.5	
840.31	5522	
840.48	5740.5	
840.65	3208.5	
840.82	3985.3	
841	5717.9	
841.17	5679.7	
841.34	3536.2	
841.51	3605.8	
841.68	5664.7	
841.85	5438	
842.02	3715	
842.19	3078.1	
842.36	5489.2	
842.53	5464	
842.7	3583.9	
842.87	4360.8	
843.05	7221.8	
843.22	5401.2	
843.39	3342.3	
843.56	3611.9	
843.73	5227.1	
843.9	5827.2	
844.07	5764.3	
844.24	4788.8	
844.41	8488.1	
844.58	4918.5	
844.75	3434.4	
844.92	3722.5	
845.09	5720.7	
845.26	5690.6	
845.43	3510.9	
845.6	3736.9	
845.77	5751.4	
845.94	5472.2	
846.12	3859.1	
846.29	4118.5	
846.46	5887.9	
846.63	5651.7	
846.8	3548.4	
846.97	4200.4	
847.14	6169.2	
847.31	5651.7	
847.48	3951.2	
847.65	4353.3	
847.82	5982.1	
847.99	5974.6	
848.16	4739	
848.33	4360.8	
848.5	5202.5	
848.67	6172.6	
848.84	3477.5	
849.01	3671.3	
849.18	5137	
849.35	4818.9	
849.52	4415.4	
849.69	3462.4	
849.86	5922	
850.03	6117.3	
850.2	3599	
850.37	4305.5	
850.54	6110.5	
850.71	5395.7	
850.88	4218.1	
851.05	3416.7	
851.22	5663.3	
851.39	6315.9	
851.56	3387.3	
851.73	4074.1	
851.9	5015.5	
852.07	5974.6	
852.24	3923.9	
852.41	3536.2	
852.58	5512.4	
852.75	5055.8	
852.92	3952.6	
853.09	3444.7	
853.26	5255.1	
853.43	6120	
853.6	3539.6	
853.77	2951.8	
853.94	6223.8	
854.11	4946.5	
854.28	5242.1	
854.44	3782.6	
854.61	6653.9	
854.78	5895.4	
854.95	3484.3	
855.12	4459.1	
855.29	4579.3	
855.46	6193.7	
855.63	3500	
855.8	4829.8	
855.97	5216.2	
856.14	6019	
856.31	4970.4	
856.48	3794.9	
856.65	5289.2	
856.82	4961.5	
856.99	3374.4	
857.16	3766.9	
857.33	6976.7	
857.49	5361.6	
857.66	3783.3	
857.83	4107.5	
858	5293.3	
858.17	5553.4	
858.34	3309.5	
858.51	3510.9	
858.68	6376.7	
858.85	6447.7	
859.02	4038.6	
859.19	4299.4	
859.36	4956.8	
859.52	5059.8	
859.69	3517	
859.86	4173.8	
860.03	5080.3	
860.2	6296.1	
860.37	3159.3	
860.54	3530.7	
860.71	5915.2	
860.88	6365.8	
861.05	3932.8	
861.21	4403.1	
861.38	6307.7	
861.55	4946.5	
861.72	3234.4	
861.89	3908.9	
862.06	5971.9	
862.23	6500.9	
862.4	3439.9	
862.56	3654.9	
862.73	5825.1	
862.9	5497.4	
863.07	4098.7	
863.24	3136.1	
863.41	4912.4	
863.58	4988.9	
863.75	3562.1	
863.91	4034.5	
864.08	6277.7	
864.25	5887.2	
864.42	4403.1	
864.59	4874.2	
864.76	6628.6	
864.93	4995	
865.09	3451.5	
865.26	3751.9	
865.43	6163.7	
865.6	6531	
865.77	3067.2	
865.94	3439.2	
866.1	6175.3	
866.27	5954.8	
866.44	5327.4	
866.61	3308.2	
866.78	5406.6	
866.95	5879.7	
867.11	3401.7	
867.28	3106.8	
867.45	5977.3	
867.62	5073.5	
867.79	4017.4	
867.96	3495.9	
868.12	4985.4	
868.29	6011.5	
868.46	2999.6	
868.63	4664.6	
868.8	6118	
868.97	5845.6	
869.13	3670	
869.3	3620.1	
869.47	5783.5	
869.64	6077.7	
869.81	3590.8	
869.97	3515.7	
870.14	5748	
870.31	6382.8	
870.48	3383.2	
870.65	4401.1	
870.81	5331.5	
870.98	5190.9	
871.15	3949.8	
871.32	3666.5	
871.48	5788.2	
871.65	6380.8	
871.82	3474.7	
871.99	3829	
872.16	6791.1	
872.32	6158.9	
872.49	3518.4	
872.66	3528.7	
872.83	5958.2	
872.99	5162.2	
873.16	3998.3	
873.33	3453.6	
873.5	5510.4	
873.67	5528.8	
873.83	3650.2	
874	4623.6	
874.17	5631.2	
874.34	6684.6	
874.5	4446.1	
874.67	4400.4	
874.84	6326.9	
875.01	4990.2	
875.17	4955.4	
875.34	3469.3	
875.51	5646.2	
875.68	6759	
875.84	4252.3	
876.01	5145.2	
876.18	5865.4	
876.34	5786.2	
876.51	3502.7	
876.68	3435.1	
876.85	5328.1	
877.01	6148	
877.18	5008.6	
877.35	3463.8	
877.52	5455.8	
877.68	4906.3	
877.85	3355.9	
878.02	3418.7	
878.18	5435.3	
878.35	5208	
878.52	2795.5	
878.69	3926	
878.85	5893.4	
879.02	5812.1	
879.19	4951.3	
879.35	3762.1	
879.52	5836	
879.69	6021	
879.86	2987.3	
880.02	3948.5	
880.19	5478.3	
880.36	6659.3	
880.52	3966.9	
880.69	4113	
880.86	5991	
881.02	6073.6	
881.19	3826.3	
881.36	3780.6	
881.52	5808	
881.69	5113.1	
881.86	3719.8	
882.02	3676.8	
882.19	6128.2	
882.36	7159.7	
882.52	3605.8	
882.69	4866.7	
882.86	5662	
883.02	5550.7	
883.19	4277.5	
883.36	4007.9	
883.52	5892.7	
883.69	6754.9	
883.86	3500.7	
884.02	3135.4	
884.19	5907.7	
884.36	5414.1	
884.52	3908.2	
884.69	3682.9	
884.86	5223	
885.02	6569.2	
885.19	3863.8	
885.36	4013.3	
885.52	5500.2	
885.69	5617.6	
885.86	5156.8	
886.02	4427.7	
886.19	5849.7	
886.35	5384.8	
886.52	3878.9	
886.69	4902.2	
886.85	5024.3	
887.02	6302.3	
887.19	6302.3	
887.35	6302.3	
887.52	6302.3	
887.68	6302.3	
887.85	6302.3	
888.02	6302.3	
888.18	6302.3	
888.35	6302.3	
888.51	6302.3	
888.68	6302.3	
888.85	6302.3	
889.01	6302.3	
889.18	6302.3	
889.35	6302.3	
889.51	6302.3	
889.68	6302.3	
889.84	6302.3	
890.01	6302.3	
890.17	6302.3	
890.34	6302.3	
890.51	6302.3	
890.67	6302.3	
890.84	6302.3	
891	6302.3	
891.17	6302.3	
891.34	6302.3	
891.5	6302.3	
891.67	6302.3	
891.83	6302.3	
892	6302.3	
892.16	6302.3	
892.33	6302.3	
892.5	6302.3	
892.66	6302.3	
892.83	6302.3	
892.99	6302.3	
893.16	6302.3	
893.32	6302.3	
893.49	6302.3	
893.65	6302.3	
893.82	6302.3	
893.99	6302.3	
894.15	6302.3	
894.32	6302.3	
894.48	6302.3	
894.65	6302.3	
894.81	6302.3	
894.98	6302.3	
895.14	6302.3	
895.31	6302.3	
895.47	6302.3	
895.64	6302.3	
895.81	6302.3	
895.97	6302.3	
896.14	6302.3	
896.3	6302.3	
896.47	6302.3	
896.63	6302.3	
896.8	6302.3	
896.96	6302.3	
897.13	6302.3	
897.29	6302.3	
897.46	6302.3	
897.62	6302.3	
897.79	6302.3	
897.95	6302.3	
898.12	6302.3	
898.28	6302.3	
898.45	6302.3	
898.61	6302.3	
898.78	6302.3	
898.94	6302.3	
899.11	6302.3	
899.27	6302.3	
899.44	6302.3	
899.6	6302.3	
899.77	6302.3	
899.93	6302.3	
900.1	6302.3	
900.26	6302.3	
900.43	6302.3	
900.59	6302.3	
900.76	6302.3	
900.92	6302.3	
901.09	6302.3	
901.25	6302.3	
901.42	6302.3	
901.58	6302.3	
901.75	6302.3	
901.91	6302.3	
902.07	6302.3	
902.24	6302.3	
902.4	6302.3	
902.57	6302.3	
902.73	6302.3	
902.9	6302.3	
903.06	6302.3	
903.23	6302.3	
903.39	6302.3	
903.56	6302.3	
903.72	6302.3	
903.88	6302.3	
904.05	6302.3	
904.21	6302.3	
904.38	6302.3	
904.54	6302.3	
904.71	6302.3	
904.87	6302.3	
905.03	6302.3	
905.2	6302.3	
905.36	6302.3	
905.53	6302.3	
905.69	6302.3	
905.86	6302.3	
906.02	6302.3	
906.18	6302.3	
906.35	6302.3	
906.51	6302.3	
906.68	6302.3	
906.84	6302.3	
907.01	6302.3	
907.17	6302.3	
907.33	6302.3	
907.5	6302.3	
907.66	6302.3	
907.83	6302.3	
907.99	6302.3	
908.15	6302.3	
908.32	6302.3	
908.48	6302.3	
908.65	6302.3	
908.81	6302.3	
908.97	6302.3	
909.14	6302.3	
909.3	6302.3	
909.47	6302.3	
909.63	6302.3	
909.79	6302.3	
909.96	6302.3	
910.12	6302.3	
910.28	6302.3	
910.45	6302.3	
910.61	6302.3	
910.78	6302.3	
910.94	6302.3	
911.1	6302.3	
911.27	6302.3	
911.43	6302.3	
911.59	6302.3	
911.76	6302.3	
911.92	6302.3	
912.08	6302.3	
912.25	6302.3	
912.41	6302.3	
912.57	6302.3	
912.74	6302.3	
912.9	6302.3	
913.07	6302.3	
913.23	6302.3	
913.39	6302.3	
913.56	6302.3	
913.72	6302.3	
913.88	6302.3	
914.05	6302.3	
914.21	6302.3	
914.37	6302.3	
914.54	6302.3	
914.7	6302.3	
914.86	6302.3	
915.03	6302.3	
915.19	6302.3	
