Wavelength	Intensities	
nm	a.u.	
179.22	1763.6	
179.44	1760.6	
179.65	1766.7	
179.86	1754.4	
180.08	1802.9	
180.29	4319.2	
180.51	3168.2	
180.72	5281.7	
180.94	6049.7	
181.15	2928.6	
181.37	2961.4	
181.58	5056.4	
181.79	5322.7	
182.01	3030.3	
182.22	3237.2	
182.44	5350	
182.65	4521.2	
182.87	4007.9	
183.08	3529.3	
183.29	5620.3	
183.51	4644.1	
183.72	3229	
183.94	4654.4	
184.15	5003.2	
184.37	4981.3	
184.58	2919.7	
184.79	3882.3	
185.01	4685.1	
185.22	5333.6	
185.44	4094.6	
185.65	3489.7	
185.86	4986.1	
186.08	4561.5	
186.29	2842.6	
186.51	3034.4	
186.72	4659.1	
186.94	5464	
187.15	3443.3	
187.36	3578.5	
187.58	7001.3	
187.79	5096	
188.01	3711.6	
188.22	5644.2	
188.43	6041.5	
188.65	5292	
188.86	3053.5	
189.08	3604.4	
189.29	4867.3	
189.5	4797	
189.72	3350.5	
189.93	3383.9	
190.15	5462.6	
190.36	6431.3	
190.57	3605.1	
190.79	3492.5	
191	5586.9	
191.22	5503.6	
191.43	3665.9	
191.64	3056.3	
191.86	5689.9	
192.07	5442.1	
192.29	3160	
192.5	3329.3	
192.71	5530.9	
192.93	4751.3	
193.14	3297.9	
193.35	3334.1	
193.57	4797.7	
193.78	5487.2	
194	2695.1	
194.21	3254.2	
194.42	4603.8	
194.64	4998.4	
194.85	3558.7	
195.07	4152.6	
195.28	5001.8	
195.49	4450.2	
195.71	4381.3	
195.92	3135.4	
196.13	5219.6	
196.35	5268.7	
196.56	4561.5	
196.78	3635.1	
196.99	6421.1	
197.2	6005.3	
197.42	4063.9	
197.63	3607.2	
197.84	4557.4	
198.06	5182.7	
198.27	3336.8	
198.48	4356.7	
198.7	4784.1	
198.91	4998.4	
199.13	3596.2	
199.34	3648.1	
199.55	5315.8	
199.77	4354.7	
199.98	3190.7	
200.19	3615.3	
200.41	4933.6	
200.62	4717.2	
200.83	3730	
201.05	4027	
201.26	4915.8	
201.47	4706.2	
201.69	3222.1	
201.9	3142.9	
202.11	5006.6	
202.33	5856.5	
202.54	3434.4	
202.76	3829	
202.97	5033.2	
203.18	5142.4	
203.4	3741.6	
203.61	3713	
203.82	5117.9	
204.04	4722.6	
204.25	3623.5	
204.46	3551.9	
204.68	5013.4	
204.89	5251.7	
205.1	3536.2	
205.32	3078.8	
205.53	5362.9	
205.74	5482.4	
205.96	2670.6	
206.17	3708.2	
206.38	5365	
206.6	5468.1	
206.81	4090.5	
207.02	3363.4	
207.24	5222.3	
207.45	5599.8	
207.66	3433.1	
207.88	2991.4	
208.09	5176.6	
208.3	5025.7	
208.52	3188	
208.73	3507.5	
208.94	5035.3	
209.15	5614.2	
209.37	3432.4	
209.58	3909.6	
209.79	5486.5	
210.01	4825	
210.22	2813.2	
210.43	2895.8	
210.65	5025	
210.86	5375.9	
211.07	3419.4	
211.29	3157.3	
211.5	5314.5	
211.71	4970.4	
211.93	3239.9	
212.14	3200.3	
212.35	4949.3	
212.56	5116.5	
212.78	3659.7	
212.99	2975.7	
213.2	5796.4	
213.42	4822.3	
213.63	3272.7	
213.84	3489.7	
214.06	4520.5	
214.27	4590.9	
214.48	3429	
214.69	3657.7	
214.91	5619.6	
215.12	5611.4	
215.33	3710.2	
215.55	3988.8	
215.76	6089.3	
215.97	5296	
216.18	3536.2	
216.4	3486.3	
216.61	4729.4	
216.82	5375.2	
217.04	3150.5	
217.25	3279.5	
217.46	5554.8	
217.67	5335	
217.89	2877.4	
218.1	3035.1	
218.31	5100.8	
218.53	5219.6	
218.74	3358.7	
218.95	3244	
219.16	4981.3	
219.38	5798.5	
219.59	3207.8	
219.8	3788.7	
220.01	6312.5	
220.23	5061.2	
220.44	4158.1	
220.65	3222.8	
220.87	5052.3	
221.08	5524.1	
221.29	3039.2	
221.5	3866.6	
221.72	6723.5	
221.93	4735.6	
222.14	3661.8	
222.35	4227	
222.57	5098.1	
222.78	5348.6	
222.99	3463.8	
223.2	3695.2	
223.42	5255.8	
223.63	5427.1	
223.84	2684.2	
224.05	2692.4	
224.27	6234	
224.48	5758.9	
224.69	4207.9	
224.9	3606.5	
225.12	5236	
225.33	4953.4	
225.54	2941.6	
225.75	3232.4	
225.97	4650.9	
226.18	4952.7	
226.39	3439.9	
226.6	3280.8	
226.82	4808.6	
227.03	4709	
227.24	3592.8	
227.45	3023.5	
227.67	5331.5	
227.88	5765.7	
228.09	4040.6	
228.3	4007.2	
228.52	5368.4	
228.73	4986.8	
228.94	3337.5	
229.15	2996.2	
229.36	4919.9	
229.58	4943.1	
229.79	3433.8	
230	3890.5	
230.21	5909.1	
230.43	5107.6	
230.64	3573.7	
230.85	3715.7	
231.06	5374.6	
231.28	5359.5	
231.49	3028.9	
231.7	3540.9	
231.91	5341.1	
232.12	5062.6	
232.34	3093.1	
232.55	3532.7	
232.76	5535.7	
232.97	5104.9	
233.18	3218	
233.4	3573	
233.61	5248.9	
233.82	4786.1	
234.03	3345.7	
234.25	3281.5	
234.46	6736.5	
234.67	5004.6	
234.88	3738.2	
235.09	3210.5	
235.31	5223	
235.52	4895.3	
235.73	3576.4	
235.94	3063.8	
236.15	4776.5	
236.37	5930.9	
236.58	3260.4	
236.79	3489.7	
237	5285.1	
237.21	4549.9	
237.43	3748.5	
237.64	2957.9	
237.85	8559.1	
238.06	4651.6	
238.27	3727.3	
238.48	3080.1	
238.7	5321.3	
238.91	4898.7	
239.12	3448.1	
239.33	3493.8	
239.54	4678.9	
239.76	4896.7	
239.97	3420.1	
240.18	3433.1	
240.39	6074.3	
240.6	5225.1	
240.82	3577.8	
241.03	3032.4	
241.24	4977.2	
241.45	5758.2	
241.66	3192.8	
241.87	3712.3	
242.09	5683.1	
242.3	5942.5	
242.51	3791.5	
242.72	3500.7	
242.93	5402.5	
243.14	4986.8	
243.36	3973.7	
243.57	4270.7	
243.78	5745.2	
243.99	5335.6	
244.2	3452.9	
244.41	3201.7	
244.63	4659.8	
244.84	5272.8	
245.05	3716.4	
245.26	3493.2	
245.47	5324	
245.68	5393.7	
245.9	4549.2	
246.11	3662.5	
246.32	4888.5	
246.53	5188.2	
246.74	5511.1	
246.95	2905.4	
247.16	4686.4	
247.38	5070.1	
247.59	2940.2	
247.8	3497.2	
248.01	4700.8	
248.22	4973.2	
248.43	3142.9	
248.64	3434.4	
248.86	4546.5	
249.07	4803.2	
249.28	3115	
249.49	3588	
249.7	5440.8	
249.91	5567.1	
250.12	2919	
250.34	2993.4	
250.55	5115.8	
250.76	4997.7	
250.97	3604.4	
251.18	3627.6	
251.39	5565	
251.6	5146.5	
251.81	3639.2	
252.03	3653.6	
252.24	4831.2	
252.45	5403.9	
252.66	3054.9	
252.87	3810.6	
253.08	5064.6	
253.29	6350.8	
253.5	3015.3	
253.72	4170.3	
253.93	4926	
254.14	5887.9	
254.35	3310.2	
254.56	3433.1	
254.77	5212.1	
254.98	4673.5	
255.19	3319.8	
255.41	4203.8	
255.62	5179.3	
255.83	5588.9	
256.04	3696.6	
256.25	3612.6	
256.46	6019	
256.67	4754.7	
256.88	3599.6	
257.09	3951.9	
257.31	4716.5	
257.52	4763.6	
257.73	4425.7	
257.94	3339.6	
258.15	4886.5	
258.36	4987.5	
258.57	4056.3	
258.78	2726.5	
258.99	5465.3	
259.2	4868.7	
259.41	3304.1	
259.63	3439.9	
259.84	5777.3	
260.05	6037.4	
260.26	4256.4	
260.47	3212.6	
260.68	5496.7	
260.89	4899.4	
261.1	3978.5	
261.31	3176.4	
261.52	5552	
261.73	5754.1	
261.95	4270.7	
262.16	3687.7	
262.37	5593	
262.58	5668.8	
262.79	4233.2	
263	3420.8	
263.21	5128.8	
263.42	4894.6	
263.63	3405.8	
263.84	3336.1	
264.05	5507.7	
264.26	5808	
264.47	4125.3	
264.69	3751.9	
264.9	5672.9	
265.11	5141.1	
265.32	3208.5	
265.53	3291.8	
265.74	5143.8	
265.95	4504.2	
266.16	3584.6	
266.37	3842.7	
266.58	5117.9	
266.79	4840.7	
267	3300.6	
267.21	3089	
267.42	4662.5	
267.63	5015.5	
267.84	3439.9	
268.06	3022.1	
268.27	5410.1	
268.48	5683.8	
268.69	3418.1	
268.9	3981.9	
269.11	5635.3	
269.32	4536.3	
269.53	3506.1	
269.74	3252.2	
269.95	5340.4	
270.16	4502.8	
270.37	3521.8	
270.58	3977.2	
270.79	4891.2	
271	5494	
271.21	3712.3	
271.42	3518.4	
271.63	5188.2	
271.84	4669.4	
272.05	2842.6	
272.26	3082.9	
272.47	5065.3	
272.68	5204.6	
272.89	3312.9	
273.11	3735.5	
273.32	4805.2	
273.53	5792.3	
273.74	3711.6	
273.95	3624.2	
274.16	5511.8	
274.37	5032.5	
274.58	3802.4	
274.79	3094.5	
275	5201.8	
275.21	5568.4	
275.42	4486.4	
275.63	3904.8	
275.84	5216.2	
276.05	6512.5	
276.26	3642.7	
276.47	3428.3	
276.68	4944.5	
276.89	5834.7	
277.1	3829	
277.31	3104.7	
277.52	5190.9	
277.73	5419.6	
277.94	3037.1	
278.15	3390.1	
278.36	5192.3	
278.57	4757.4	
278.78	3334.8	
278.99	3805.8	
279.2	4752.7	
279.41	4672.1	
279.62	4372.4	
279.83	3130.7	
280.04	6057.2	
280.25	4644.8	
280.46	4326	
280.67	3482.9	
280.88	4786.1	
281.09	5596.4	
281.3	3632.4	
281.51	4559.5	
281.72	4804.5	
281.93	5465.3	
282.14	3336.1	
282.35	3538.9	
282.56	5514.5	
282.77	5373.2	
282.98	3338.2	
283.19	4073.4	
283.4	6612.2	
283.61	4951.3	
283.82	3136.1	
284.03	4276.8	
284.24	5177.3	
284.45	5562.3	
284.66	4287.1	
284.87	4125.3	
285.08	5508.4	
285.29	5665.4	
285.5	2980.5	
285.71	3398.9	
285.92	5501.5	
286.12	6101.6	
286.33	4216.8	
286.54	3354.6	
286.75	5466	
286.96	4891.9	
287.17	3135.4	
287.38	4134.8	
287.59	4759.5	
287.8	4722.6	
288.01	3386	
288.22	3870.7	
288.43	5399.8	
288.64	4561.5	
288.85	4027	
289.06	3819.5	
289.27	5388.2	
289.48	5741.8	
289.69	4272.1	
289.9	3917.8	
290.11	5616.9	
290.32	4788.8	
290.53	4040.6	
290.74	3779.2	
290.94	5430.5	
291.15	5464.7	
291.36	3275.4	
291.57	3861.1	
291.78	4853.7	
291.99	4537.6	
292.2	3217.4	
292.41	3725.3	
292.62	5466.7	
292.83	5289.2	
293.04	4545.8	
293.25	3189.4	
293.46	4900.8	
293.67	5492.7	
293.88	3224.9	
294.09	3233.7	
294.29	4652.3	
294.5	5118.6	
294.71	3515	
294.92	3329.3	
295.13	4866	
295.34	5877.7	
295.55	2947	
295.76	2930	
295.97	5332.2	
296.18	6012.2	
296.39	3107.5	
296.6	3272.7	
296.81	5130.8	
297.01	5427.1	
297.22	3409.2	
297.43	3278.1	
297.64	4772.4	
297.85	4709.6	
298.06	2788.7	
298.27	3001.6	
298.48	5060.5	
298.69	4754	
298.9	3528	
299.11	3168.2	
299.31	4604.5	
299.52	4687.8	
299.73	3733.4	
299.94	3644	
300.15	5039.4	
300.36	4715.8	
300.57	3712.3	
300.78	3674.7	
300.99	4866	
301.2	5101.5	
301.4	3252.2	
301.61	3502.7	
301.82	5345.9	
302.03	5380	
302.24	3908.2	
302.45	3170.9	
302.66	5269.4	
302.87	5593.7	
303.08	3295.9	
303.29	4343.7	
303.49	4851	
303.7	4987.5	
303.91	2947.7	
304.12	4171	
304.33	4539.7	
304.54	5156.1	
304.75	3285.6	
304.96	3186.6	
305.16	5277.6	
305.37	5941.2	
305.58	2940.9	
305.79	2995.5	
306	5382.1	
306.21	4494.6	
306.42	3222.8	
306.63	4859.1	
306.83	4906.9	
307.04	5450.3	
307.25	3627.6	
307.46	3548.4	
307.67	4326.7	
307.88	5347.9	
308.09	3251.5	
308.29	3343.7	
308.5	5126.1	
308.71	5539.1	
308.92	3469.9	
309.13	3181.9	
309.34	4965	
309.55	4932.9	
309.75	4067.9	
309.96	3700	
310.17	5371.1	
310.38	4783.4	
310.59	3928	
310.8	3082.9	
311.01	4883	
311.21	4954	
311.42	3190.7	
311.63	3260.4	
311.84	4797.7	
312.05	5115.8	
312.26	3644	
312.46	3962.1	
312.67	4883	
312.88	4634.6	
313.09	3126.6	
313.3	3094.5	
313.51	5721.3	
313.71	6013.5	
313.92	3176.4	
314.13	3344.3	
314.34	5174.5	
314.55	4965.6	
314.76	4046.1	
314.96	3521.8	
315.17	5102.9	
315.38	5347.2	
315.59	3201	
315.8	3059.7	
316.01	5709.7	
316.21	5810.1	
316.42	3069.9	
316.63	3516.4	
316.84	4900.1	
317.05	5595.7	
317.26	3743.7	
317.46	3418.7	
317.67	4985.4	
317.88	5335.6	
318.09	4006.5	
318.3	3004.4	
318.5	4838	
318.71	5274.2	
318.92	4997	
319.13	3723.2	
319.34	5447.6	
319.54	5603.9	
319.75	3000.3	
319.96	2856.2	
320.17	5322	
320.38	5468.1	
320.58	2863.7	
320.79	3431.7	
321	5449.6	
321.21	5625.8	
321.42	3549.1	
321.62	2897.2	
321.83	4714.4	
322.04	5018.2	
322.25	3380.5	
322.46	3201.7	
322.66	5131.5	
322.87	5242.8	
323.08	3866.6	
323.29	3152.5	
323.5	5941.2	
323.7	4600.4	
323.91	4254.3	
324.12	3837.9	
324.33	5107	
324.53	5329.5	
324.74	3696.6	
324.95	3865.9	
325.16	4584.7	
325.37	4880.3	
325.57	3138.9	
325.78	3255.6	
325.99	5093.3	
326.2	4588.1	
326.4	4448.9	
326.61	2983.2	
326.82	4987.5	
327.03	5113.1	
327.24	4417.5	
327.44	4164.2	
327.65	5250.3	
327.86	4314.4	
328.07	3665.9	
328.27	3079.5	
328.48	5573.9	
328.69	4644.1	
328.9	4530.1	
329.1	3358	
329.31	4900.1	
329.52	5733.6	
329.73	3190.7	
329.93	3498.6	
330.14	5059.8	
330.35	5202.5	
330.56	5147.9	
330.76	3872	
330.97	4873.5	
331.18	5147.2	
331.39	3499.3	
331.59	2878.1	
331.8	5526.8	
332.01	5651	
332.22	3305.4	
332.42	3693.9	
332.63	5134.9	
332.84	4721.3	
333.05	3523.9	
333.25	3220.1	
333.46	4803.2	
333.67	5049.6	
333.88	3330	
334.08	3636.5	
334.29	6653.2	
334.5	5584.1	
334.7	3093.8	
334.91	4463.2	
335.12	4634.6	
335.33	5361.6	
335.53	3473.4	
335.74	5024.3	
335.95	4941.7	
336.16	4652.3	
336.36	3523.9	
336.57	4005.8	
336.78	4566.3	
336.98	5491.3	
337.19	4296.6	
337.4	3447.4	
337.61	6029.9	
337.81	4626.4	
338.02	3297.9	
338.23	4098	
338.43	5636.7	
338.64	4730.1	
338.85	3259	
339.05	4173.8	
339.26	5762.3	
339.47	4523.3	
339.68	3206.4	
339.88	4631.1	
340.09	5282.4	
340.3	5399.1	
340.5	3730.7	
340.71	2885.6	
340.92	4642.7	
341.13	5588.9	
341.33	3077.4	
341.54	3712.3	
341.75	5213.4	
341.95	4919.2	
342.16	3551.2	
342.37	3836.5	
342.57	4715.8	
342.78	4959.5	
342.99	3890.5	
343.19	2930	
343.4	5388.9	
343.61	5273.5	
343.81	3393.5	
344.02	3142.3	
344.23	5414.8	
344.43	5730.9	
344.64	3926.6	
344.85	3805.1	
345.06	5275.6	
345.26	5502.9	
345.47	3722.5	
345.68	4250.2	
345.88	4531.5	
346.09	5464	
346.3	3731.4	
346.5	2850.1	
346.71	5010.7	
346.92	4795.7	
347.12	2976.4	
347.33	3629	
347.54	5388.2	
347.74	5829.2	
347.95	3683.6	
348.16	2720.4	
348.36	4824.3	
348.57	4722.6	
348.78	3648.1	
348.98	3885.7	
349.19	4952	
349.39	4556	
349.6	2961.4	
349.81	3287	
350.01	5243.5	
350.22	4829.1	
350.43	3494.5	
350.63	4257.7	
350.84	5059.8	
351.05	4807.3	
351.25	3183.9	
351.46	2951.1	
351.67	5493.3	
351.87	4713.1	
352.08	3421.5	
352.29	3931.4	
352.49	5438.7	
352.7	5477.6	
352.9	3115.6	
353.11	3815.4	
353.32	5988.9	
353.52	4882.4	
353.73	3097.2	
353.94	3857.7	
354.14	5241.4	
354.35	5047.6	
354.55	3159.3	
354.76	3505.4	
354.97	5205.9	
355.17	4986.8	
355.38	3034.4	
355.59	4078.9	
355.79	4737	
356	5071.5	
356.2	3485	
356.41	3078.1	
356.62	4502.1	
356.82	4977.9	
357.03	3779.9	
357.24	3393.5	
357.44	4769	
357.65	4833.9	
357.85	4465.9	
358.06	3524.6	
358.27	4510.3	
358.47	4695.3	
358.68	2988	
358.88	3700	
359.09	5217.5	
359.3	5517.2	
359.5	4251.6	
359.71	3818.1	
359.91	5834.7	
360.12	5317.9	
360.33	3706.8	
360.53	4123.9	
360.74	4745.8	
360.94	4764.3	
361.15	3893.9	
361.36	3225.6	
361.56	5421.7	
361.77	4939.7	
361.97	4275.5	
362.18	3409.2	
362.38	5451.7	
362.59	4605.2	
362.8	3202.3	
363	3059	
363.21	4457.7	
363.41	5046.9	
363.62	3555.3	
363.83	4407.9	
364.03	5155.4	
364.24	5941.2	
364.44	4545.8	
364.65	4527.4	
364.85	4922	
365.06	4605.9	
365.27	3326.6	
365.47	3311.6	
365.68	5803.3	
365.88	4911	
366.09	3631.7	
366.29	3355.9	
366.5	5144.5	
366.71	5455.8	
366.91	4482.3	
367.12	3729.4	
367.32	6021	
367.53	5337	
367.73	3760.1	
367.94	4573.1	
368.14	5340.4	
368.35	6038.8	
368.56	3741	
368.76	3342.3	
368.97	5417.6	
369.17	6804.7	
369.38	3334.1	
369.58	3564.8	
369.79	4556.7	
369.99	5681.7	
370.2	4445.5	
370.4	3515.7	
370.61	5146.5	
370.82	6192.4	
371.02	3562.1	
371.23	2981.2	
371.43	4478.2	
371.64	5713.8	
371.84	3548.4	
372.05	4539	
372.25	6639.5	
372.46	5376.6	
372.66	3529.3	
372.87	3508.9	
373.07	5395.7	
373.28	6776	
373.48	4359.4	
373.69	4102.1	
373.9	4977.9	
374.1	5003.9	
374.31	4326.7	
374.51	3917.1	
374.72	5656.5	
374.92	4722.6	
375.13	4458.4	
375.33	3799	
375.54	5275.6	
375.74	4853	
375.95	3861.1	
376.15	4925.4	
376.36	5342.5	
376.56	5175.9	
376.77	3933.5	
376.97	4304.1	
377.18	6251.8	
377.38	5448.3	
377.59	4479.6	
377.79	3475.4	
378	5190.2	
378.2	5591.6	
378.41	3525.2	
378.61	3439.9	
378.82	5652.4	
379.02	4858.5	
379.23	3660.4	
379.43	4552	
379.64	5687.2	
379.84	5346.6	
380.05	3550.5	
380.25	3430.3	
380.46	5463.3	
380.66	5088.5	
380.87	4629.1	
381.07	4949.9	
381.28	5945.3	
381.48	5462.6	
381.69	3586	
381.89	3609.2	
382.1	4585.4	
382.3	5491.3	
382.51	4486.4	
382.71	5259.9	
382.91	5461.2	
383.12	5850.4	
383.32	3880.2	
383.53	4027.7	
383.73	5359.5	
383.94	5237.3	
384.14	4083	
384.35	3300.6	
384.55	5109.7	
384.76	5419.6	
384.96	3895.2	
385.17	4153.3	
385.37	5511.1	
385.58	4833.9	
385.78	4156.7	
385.98	3215.3	
386.19	5031.9	
386.39	5395	
386.6	3596.9	
386.8	3893.2	
387.01	5489.2	
387.21	5502.2	
387.42	4229.1	
387.62	4709.6	
387.83	4983.4	
388.03	5354.8	
388.23	3912.3	
388.44	4560.1	
388.64	4557.4	
388.85	4761.5	
389.05	4158.7	
389.26	4673.5	
389.46	6153.5	
389.67	5799.8	
389.87	4184.7	
390.07	4244.1	
390.28	5103.5	
390.48	4784.7	
390.69	3516.4	
390.89	3784	
391.1	4979.3	
391.3	5755.5	
391.5	4732.2	
391.71	5303.6	
391.91	5547.3	
392.12	6331	
392.32	4917.2	
392.53	4208.6	
392.73	5061.2	
392.93	5168.4	
393.14	3960.1	
393.34	4614.1	
393.55	5560.9	
393.75	5181.4	
393.95	3952.6	
394.16	3900.7	
394.36	5050.3	
394.57	5599.8	
394.77	3517.7	
394.98	3780.6	
395.18	4917.9	
395.38	4998.4	
395.59	4573.1	
395.79	3667.2	
396	5076.2	
396.2	5416.2	
396.4	4536.3	
396.61	4375.8	
396.81	5585.5	
397.02	5061.9	
397.22	4618.2	
397.42	4642.1	
397.63	5612.8	
397.83	4926	
398.04	3629	
398.24	4085.7	
398.44	5418.9	
398.65	4622.3	
398.85	3594.2	
399.05	3639.9	
399.26	4941.1	
399.46	6464.1	
399.67	4002.4	
399.87	3715	
400.07	5285.8	
400.28	5550	
400.48	3806.5	
400.69	4705.5	
400.89	5810.8	
401.09	6203.3	
401.3	3758.7	
401.5	4704.9	
401.7	6333	
401.91	6503.7	
402.11	4044.7	
402.32	4261.1	
402.52	5850.4	
402.72	5702.9	
402.93	4403.8	
403.13	3440.6	
403.33	6456.6	
403.54	5352.7	
403.74	4163.5	
403.94	4928.8	
404.15	5473.5	
404.35	6358.9	
404.56	3985.3	
404.76	5551.4	
404.96	5801.9	
405.17	5569.8	
405.37	5018.2	
405.57	4425	
405.78	5767.1	
405.98	5339.7	
406.18	4011.3	
406.39	4754.7	
406.59	5767.8	
406.79	5408.7	
407	3834.5	
407.2	3915.7	
407.4	5818.3	
407.61	5966.4	
407.81	3898.6	
408.01	5526.1	
408.22	4909.7	
408.42	6580.1	
408.62	4787.5	
408.83	4428.4	
409.03	5464.7	
409.23	5254.4	
409.44	4483.7	
409.64	4696	
409.84	6295.5	
410.05	6186.9	
410.25	4569.7	
410.45	4424.3	
410.66	5778	
410.86	7827.3	
411.06	4810	
411.27	4664.6	
411.47	7647.8	
411.67	5946.6	
411.88	4870.1	
412.08	4982.7	
412.28	6468.9	
412.49	6893.5	
412.69	4686.4	
412.89	4743.1	
413.09	6795.2	
413.3	6702.3	
413.5	4817.5	
413.7	4491.9	
413.91	5984.8	
414.11	6766.5	
414.31	4608.6	
414.52	5018.2	
414.72	6483.2	
414.92	6359.6	
415.12	4657.1	
415.33	5070.1	
415.53	6733.7	
415.73	6891.4	
415.94	5345.2	
416.14	4952	
416.34	5958.9	
416.55	5748.6	
416.75	6044.9	
416.95	5512.4	
417.15	6836.1	
417.36	7410.2	
417.56	6099.5	
417.76	5346.6	
417.97	7073.7	
418.17	6857.3	
418.37	4933.6	
418.57	5042.1	
418.78	6665.5	
418.98	6378.7	
419.18	5863.3	
419.38	5678.3	
419.59	6382.2	
419.79	6081.8	
419.99	4912.4	
420.2	5257.8	
420.4	6822.5	
420.6	6931.7	
420.8	4934.2	
421.01	4789.5	
421.21	6660.7	
421.41	6851.8	
421.61	5207.3	
421.82	4919.2	
422.02	6293.4	
422.22	7166.5	
422.42	5621.7	
422.63	5319.9	
422.83	6369.9	
423.03	7413	
423.23	5362.9	
423.44	4477.5	
423.64	6443.6	
423.84	6147.3	
424.04	4949.9	
424.25	4635.9	
424.45	7204.8	
424.65	7151.5	
424.85	4503.5	
425.06	5003.2	
425.26	7253.9	
425.46	6312.5	
425.66	5316.5	
425.87	5118.6	
426.07	7019.8	
426.27	6851.1	
426.47	5251.7	
426.67	4683	
426.88	7387.7	
427.08	6825.9	
427.28	5432.6	
427.48	4600.4	
427.69	5896.8	
427.89	6464.1	
428.09	5378.6	
428.29	4756.7	
428.5	7008.1	
428.7	6582.2	
428.9	4607.2	
429.1	5076.9	
429.3	6558.3	
429.51	6911.9	
429.71	4945.2	
429.91	5551.4	
430.11	6882.5	
430.31	7028.6	
430.52	5148.6	
430.72	5384.8	
430.92	7320.1	
431.12	6903.7	
431.32	4900.1	
431.53	5251	
431.73	6034	
431.93	7426.6	
432.13	4734.9	
432.33	4730.1	
432.54	6473.6	
432.74	6673.6	
432.94	4640.7	
433.14	5515.2	
433.34	6884.6	
433.55	6499.6	
433.75	5562.3	
433.95	7004.7	
434.15	6759	
434.35	6547.4	
434.56	4926	
434.76	4487.8	
434.96	6683.9	
435.16	6941.2	
435.36	4803.2	
435.56	5773.2	
435.77	6440.9	
435.97	6567.8	
436.17	6394.4	
436.37	5700.9	
436.57	6442.9	
436.78	6372.6	
436.98	7210.9	
437.18	6243.6	
437.38	7031.4	
437.58	6540.5	
437.78	6287.9	
437.99	5117.9	
438.19	7066.2	
438.39	8292.2	
438.59	5178.6	
438.79	4723.3	
438.99	7571.3	
439.2	6651.1	
439.4	4832.5	
439.6	4769.7	
439.8	6830	
440	7841.7	
440.2	5737	
440.4	5795.8	
440.61	7269.6	
440.81	7764.5	
441.01	5055.1	
441.21	5835.3	
441.41	7576.8	
441.61	7241.6	
441.81	6166.4	
442.02	6915.3	
442.22	8046.5	
442.42	7363.8	
442.62	5156.1	
442.82	5180.7	
443.02	7695.6	
443.22	6940.6	
443.43	5583.4	
443.63	5123.3	
443.83	6792.4	
444.03	6800.6	
444.23	6195.8	
444.43	5880.4	
444.63	7109.9	
444.83	8102.4	
445.04	5385.5	
445.24	6415.6	
445.44	7428	
445.64	7447.8	
445.84	5952.1	
446.04	5971.2	
446.24	6872.3	
446.44	7667.6	
446.65	5238.7	
446.85	5662.6	
447.05	6972	
447.25	7770.7	
447.45	5735.7	
447.65	5152.7	
447.85	7235.5	
448.05	6771.3	
448.25	6061.3	
448.46	5844.9	
448.66	7154.9	
448.86	6855.9	
449.06	5083.7	
449.26	6061.3	
449.46	7448.5	
449.66	6698.2	
449.86	5635.3	
450.06	5703.6	
450.26	6819.7	
450.47	7329	
450.67	5829.2	
450.87	6237.4	
451.07	7498.3	
451.27	7232.1	
451.47	5254.4	
451.67	5838.8	
451.87	7002.7	
452.07	7942.7	
452.27	5560.9	
452.47	5486.5	
452.67	7303.1	
452.88	7599.3	
453.08	4992.9	
453.28	6575.3	
453.48	8351.6	
453.68	7094.2	
453.88	5488.6	
454.08	5639.4	
454.28	7616.4	
454.48	7305.8	
454.68	6111.8	
454.88	6597.2	
455.08	7703.1	
455.28	7450.5	
455.48	5452.4	
455.68	5966.4	
455.89	8076.5	
456.09	7844.4	
456.29	5794.4	
456.49	5788.2	
456.69	7948.2	
456.89	7265.5	
457.09	6266.8	
457.29	6619	
457.49	7694.9	
457.69	7800.7	
457.89	6139.8	
458.09	5530.9	
458.29	7498.3	
458.49	8133.2	
458.69	6509.8	
458.89	6054.5	
459.09	8397.4	
459.29	8466.3	
459.49	6052.4	
459.69	6789	
459.9	7985	
460.1	7694.9	
460.3	5976.7	
460.5	5858.6	
460.7	8023.3	
460.9	7673.7	
461.1	5642.2	
461.3	6653.2	
461.5	8564.6	
461.7	8277.9	
461.9	5997.8	
462.1	6373.3	
462.3	7874.4	
462.5	8400.8	
462.7	6090	
462.9	6240.8	
463.1	9233.6	
463.3	8920.3	
463.5	6339.8	
463.7	7282.6	
463.9	8062.9	
464.1	8403.5	
464.3	6523.5	
464.5	6724.2	
464.7	8692.3	
464.9	8389.2	
465.1	7872.4	
465.3	7130.3	
465.5	8963.3	
465.7	9006.3	
465.9	7330.4	
466.1	7034.8	
466.3	8901.2	
466.5	8703.2	
466.7	7966.6	
466.9	6963.1	
467.1	8761.2	
467.3	9446.6	
467.5	7907.2	
467.7	7077.8	
467.9	9763.3	
468.1	10490	
468.3	7609.6	
468.5	8005.5	
468.7	8686.8	
468.9	8675.9	
469.1	7206.1	
469.3	7860.8	
469.5	10456	
469.7	8436.9	
469.9	7678.5	
470.1	7155.6	
470.3	8849.3	
470.5	8813.1	
470.7	8191.9	
470.9	7221.8	
471.1	8581	
471.3	9017.2	
471.5	6953.5	
471.69	8784.4	
471.89	8477.9	
472.09	8114.7	
472.29	7777.5	
472.49	8000.7	
472.69	8267.6	
472.89	8957.1	
473.09	6922.8	
473.29	7019.1	
473.49	8443.8	
473.69	8520.2	
473.89	7840.3	
474.09	7212.9	
474.29	9754.5	
474.49	9372.2	
474.69	7914	
474.89	7331.7	
475.09	8579.6	
475.29	8593.3	
475.49	6820.4	
475.69	7021.1	
475.88	9866.4	
476.08	8948.9	
476.28	6776.7	
476.48	7037.5	
476.68	9230.9	
476.88	9058.8	
477.08	7010.9	
477.28	7305.1	
477.48	8631.5	
477.68	9123	
477.88	6847	
478.08	7133.8	
478.28	9484.8	
478.48	8751.7	
478.67	7198.6	
478.87	6648.4	
479.07	9348.3	
479.27	8912.8	
479.47	7401.4	
479.67	7407.5	
479.87	9243.8	
480.07	9629.5	
480.27	6797.9	
480.47	8159.1	
480.67	8842.4	
480.87	9518.3	
481.06	7049.1	
481.26	7733.1	
481.46	8955.1	
481.66	8813.1	
481.86	7573.4	
482.06	8284.7	
482.26	8645.2	
482.46	9441.8	
482.66	7362.4	
482.86	6959	
483.05	9031.5	
483.25	8449.9	
483.45	9450	
483.65	7389.8	
483.85	8565.3	
484.05	8995.4	
484.25	7817.1	
484.45	8172.1	
484.65	9625.5	
484.84	9652.8	
485.04	7467.6	
485.24	7370.6	
485.44	9897.8	
485.64	8545.5	
485.84	6858	
486.04	8108.6	
486.24	8819.2	
486.44	9256.1	
486.63	6750.8	
486.83	7630.7	
487.03	8821.3	
487.23	9030.9	
487.43	7062.1	
487.63	8948.3	
487.83	9047.2	
488.02	9929.2	
488.22	7776.8	
488.42	8362.5	
488.62	9781.1	
488.82	8844.5	
489.02	7496.2	
489.22	7696.3	
489.41	9678	
489.61	9484.8	
489.81	7317.4	
490.01	7378.8	
490.21	9680.7	
490.41	10235	
490.61	7370.6	
490.8	7404.8	
491	9296.4	
491.2	8686.8	
491.4	7922.2	
491.6	7178.8	
491.8	9249.3	
491.99	9403.6	
492.19	7129.7	
492.39	7404.1	
492.59	9604.3	
492.79	9788.6	
492.99	8183.7	
493.18	7425.3	
493.38	9865.1	
493.58	10456	
493.78	8051.9	
493.98	7706.5	
494.18	9608.4	
494.37	9258.2	
494.57	8332.5	
494.77	8183	
494.97	9888.3	
495.17	10212	
495.37	7869	
495.56	8197.3	
495.76	10381	
495.96	10053	
496.16	9053.4	
496.36	8279.9	
496.55	10390	
496.75	9909.4	
496.95	8535.9	
497.15	8411.7	
497.35	10356	
497.54	10281	
497.74	8344.8	
497.94	9691	
498.14	10988	
498.34	10656	
498.53	8045.1	
498.73	8800.8	
498.93	9824.8	
499.13	10407	
499.33	8589.2	
499.52	9161.9	
499.72	10446	
499.92	10578	
500.12	8390.5	
500.32	8555.7	
500.51	10624	
500.71	10398	
500.91	9179	
501.11	8974.9	
501.31	10564	
501.5	10989	
501.7	9602.9	
501.9	8734.6	
502.1	10388	
502.29	10821	
502.49	9082.1	
502.69	9508	
502.89	10685	
503.09	10671	
503.28	8234.2	
503.48	8282.7	
503.68	9955.2	
503.88	9961.3	
504.07	9117.6	
504.27	8735.3	
504.47	10348	
504.67	10355	
504.86	9053.4	
505.06	8810.4	
505.26	9999.5	
505.46	11461	
505.65	8665	
505.85	8853.4	
506.05	9986.6	
506.25	10428	
506.44	8172.8	
506.64	8834.9	
506.84	9852.8	
507.04	10676	
507.23	8387.1	
507.43	8885.5	
507.63	11514	
507.83	10088	
508.02	8770.8	
508.22	8503.8	
508.42	11830	
508.62	9857.6	
508.81	8696.4	
509.01	9176.3	
509.21	9728.5	
509.4	10079	
509.6	8904.6	
509.8	8467	
510	10114	
510.19	11234	
510.39	8311.3	
510.59	8478.6	
510.79	9879.4	
510.98	11139	
511.18	8486.1	
511.38	8722.3	
511.57	10678	
511.77	10555	
511.97	9114.8	
512.17	8374.8	
512.36	10673	
512.56	10492	
512.76	8412.4	
512.95	8248.5	
513.15	10715	
513.35	9578.3	
513.55	9103.9	
513.74	8429.4	
513.94	10743	
514.14	10166	
514.33	9222.7	
514.53	9013.1	
514.73	10114	
514.92	10436	
515.12	8735.3	
515.32	8495.7	
515.51	10484	
515.71	10907	
515.91	10105	
516.11	8578.3	
516.3	11878	
516.5	10124	
516.7	9108.7	
516.89	9641.8	
517.09	10329	
517.29	10212	
517.48	9436.4	
517.68	8838.4	
517.88	10015	
518.07	10644	
518.27	9357.9	
518.47	8537.3	
518.66	11206	
518.86	10058	
519.06	8477.9	
519.25	8901.8	
519.45	10375	
519.65	11638	
519.84	9437.7	
520.04	10062	
520.24	12000	
520.43	10896	
520.63	9235	
520.83	8991.3	
521.02	10279	
521.22	10830	
521.42	9335.3	
521.61	9835.7	
521.81	10479	
522.01	10699	
522.2	9404.3	
522.4	9196.7	
522.6	11161	
522.79	10086	
522.99	9336.7	
523.18	8820.6	
523.38	11000	
523.58	10987	
523.77	10643	
523.97	8896.4	
524.17	12701	
524.36	12098	
524.56	10166	
524.76	9856.2	
524.95	11268	
525.15	11075	
525.34	9857.6	
525.54	9873.3	
525.74	11674	
525.93	11005	
526.13	11032	
526.33	9949	
526.52	12230	
526.72	11792	
526.91	11193	
527.11	10542	
527.31	12267	
527.5	12688	
527.7	10630	
527.89	9727.9	
528.09	11459	
528.29	11998	
528.48	10908	
528.68	10617	
528.87	12392	
529.07	12327	
529.27	10738	
529.46	10265	
529.66	12117	
529.85	12502	
530.05	10079	
530.25	10826	
530.44	13490	
530.64	12127	
530.83	10540	
531.03	10835	
531.23	12689	
531.42	12527	
531.62	11490	
531.81	10862	
532.01	12872	
532.21	13227	
532.4	10804	
532.6	11202	
532.79	13627	
532.99	13091	
533.18	11336	
533.38	12125	
533.58	12811	
533.77	13471	
533.97	11480	
534.16	12167	
534.36	13835	
534.55	13097	
534.75	12380	
534.95	11655	
535.14	13795	
535.34	12910	
535.53	11237	
535.73	12993	
535.92	14291	
536.12	13089	
536.31	11465	
536.51	12499	
536.71	13346	
536.9	13139	
537.1	11508	
537.29	11731	
537.49	13902	
537.68	13094	
537.88	11958	
538.07	11413	
538.27	13230	
538.46	14130	
538.66	11263	
538.86	11753	
539.05	13504	
539.25	13758	
539.44	12183	
539.64	11658	
539.83	13287	
540.03	14151	
540.22	11574	
540.42	11536	
540.61	13468	
540.81	13626	
541	11955	
541.2	12621	
541.39	13069	
541.59	13450	
541.78	12379	
541.98	11514	
542.18	12803	
542.37	12647	
542.57	11860	
542.76	12383	
542.96	12876	
543.15	13369	
543.35	11938	
543.54	11310	
543.74	13517	
543.93	13154	
544.13	11644	
544.32	12809	
544.52	13319	
544.71	12680	
544.91	10907	
545.1	11983	
545.3	12894	
545.49	13368	
545.69	10895	
545.88	11391	
546.08	14238	
546.27	13724	
546.47	11859	
546.66	11128	
546.86	13668	
547.05	14007	
547.24	11470	
547.44	11355	
547.63	12745	
547.83	13610	
548.02	11700	
548.22	11832	
548.41	12418	
548.61	13612	
548.8	11250	
549	11226	
549.19	12942	
549.39	13362	
549.58	10996	
549.78	11564	
549.97	13401	
550.17	12908	
550.36	11978	
550.55	12959	
550.75	12805	
550.94	13560	
551.14	11103	
551.33	11293	
551.53	12286	
551.72	13140	
551.92	11437	
552.11	11211	
552.31	13135	
552.5	13202	
552.69	12658	
552.89	10834	
553.08	13077	
553.28	12861	
553.47	11226	
553.67	12152	
553.86	13711	
554.06	12103	
554.25	10400	
554.44	10977	
554.64	14102	
554.83	13768	
555.03	10963	
555.22	11252	
555.42	13200	
555.61	13016	
555.8	11103	
556	11245	
556.19	12308	
556.39	13264	
556.58	11161	
556.78	11166	
556.97	12927	
557.16	12571	
557.36	12185	
557.55	10729	
557.75	12021	
557.94	13565	
558.13	10925	
558.33	10675	
558.52	13356	
558.72	12280	
558.91	10808	
559.1	10928	
559.3	12088	
559.49	11790	
559.69	10448	
559.88	11264	
560.07	12682	
560.27	13178	
560.46	11433	
560.66	11370	
560.85	12482	
561.04	11826	
561.24	10596	
561.43	10708	
561.63	12026	
561.82	12254	
562.01	11784	
562.21	11134	
562.4	12652	
562.59	13421	
562.79	10864	
562.98	10525	
563.18	12544	
563.37	13836	
563.56	11254	
563.76	10639	
563.95	12166	
564.14	12083	
564.34	10970	
564.53	10749	
564.73	12673	
564.92	12936	
565.11	11093	
565.31	10553	
565.5	13239	
565.69	12277	
565.89	10828	
566.08	11164	
566.27	13105	
566.47	13538	
566.66	11585	
566.85	10520	
567.05	12719	
567.24	12283	
567.44	10881	
567.63	11974	
567.82	12968	
568.02	12732	
568.21	10840	
568.4	11158	
568.6	12707	
568.79	12575	
568.98	10684	
569.18	10861	
569.37	12727	
569.56	14362	
569.76	11125	
569.95	11961	
570.14	12961	
570.34	12875	
570.53	10759	
570.72	10719	
570.91	13393	
571.11	12668	
571.3	11029	
571.49	11906	
571.69	12723	
571.88	12267	
572.07	11526	
572.27	11363	
572.46	12271	
572.65	13162	
572.85	10912	
573.04	11247	
573.23	13473	
573.43	12720	
573.62	10684	
573.81	11327	
574	12870	
574.2	12628	
574.39	11080	
574.58	11245	
574.78	13567	
574.97	12980	
575.16	11675	
575.36	11848	
575.55	13376	
575.74	13378	
575.93	10807	
576.13	11858	
576.32	12840	
576.51	13293	
576.71	11212	
576.9	12327	
577.09	13601	
577.28	13175	
577.48	11583	
577.67	10923	
577.86	12809	
578.05	13241	
578.25	11386	
578.44	11551	
578.63	12948	
578.83	13999	
579.02	10935	
579.21	12235	
579.4	13176	
579.6	12972	
579.79	11436	
579.98	13412	
580.17	13387	
580.37	13538	
580.56	11026	
580.75	11774	
580.94	13792	
581.14	13773	
581.33	12156	
581.52	11203	
581.71	13256	
581.91	13793	
582.1	10789	
582.29	11397	
582.48	12907	
582.68	12910	
582.87	11849	
583.06	11531	
583.25	13180	
583.45	12606	
583.64	12054	
583.83	12572	
584.02	12888	
584.21	13143	
584.41	11958	
584.6	11480	
584.79	13028	
584.98	13697	
585.18	10985	
585.37	10968	
585.56	12530	
585.75	13244	
585.94	11118	
586.14	11883	
586.33	13645	
586.52	12982	
586.71	11524	
586.91	11166	
587.1	12218	
587.29	13191	
587.48	11049	
587.67	11012	
587.87	13027	
588.06	12828	
588.25	12111	
588.44	11570	
588.63	12568	
588.83	13208	
589.02	10973	
589.21	10854	
589.4	12384	
589.59	12129	
589.78	9992.7	
589.98	10158	
590.17	11671	
590.36	12190	
590.55	9497.8	
590.74	10151	
590.94	13161	
591.13	11936	
591.32	10054	
591.51	9607.7	
591.7	12217	
591.89	11863	
592.09	9704.6	
592.28	10135	
592.47	11237	
592.66	12925	
592.85	9699.9	
593.05	9981.8	
593.24	11746	
593.43	12429	
593.62	10146	
593.81	10542	
594	11847	
594.19	11902	
594.39	9866.4	
594.58	9898.5	
594.77	12044	
594.96	12433	
595.15	9848	
595.34	10342	
595.54	11940	
595.73	11230	
595.92	9280.7	
596.11	10184	
596.3	12278	
596.49	11216	
596.68	9954.5	
596.88	10296	
597.07	12122	
597.26	11065	
597.45	9567.4	
597.64	10570	
597.83	11452	
598.02	11886	
598.22	9598.8	
598.41	10188	
598.6	11677	
598.79	11253	
598.98	9600.2	
599.17	10402	
599.36	11736	
599.55	12540	
599.74	11370	
599.94	11110	
600.13	11993	
600.32	10989	
600.51	9319.6	
600.7	9526.5	
600.89	12598	
601.08	12600	
601.27	9336	
601.47	10176	
601.66	11878	
601.85	12416	
602.04	9901.2	
602.23	10070	
602.42	11113	
602.61	11734	
602.8	9756.5	
602.99	9541.5	
603.18	11400	
603.37	11626	
603.57	10090	
603.76	10607	
603.95	12277	
604.14	11815	
604.33	9642.5	
604.52	10016	
604.71	11615	
604.9	11224	
605.09	10516	
605.28	10249	
605.47	12054	
605.66	11753	
605.86	10157	
606.05	9607.7	
606.24	11971	
606.43	10762	
606.62	9852.8	
606.81	10534	
607	11908	
607.19	11385	
607.38	9368.1	
607.57	9566.7	
607.76	11153	
607.95	10670	
608.14	9868.5	
608.33	10469	
608.52	10985	
608.72	11962	
608.91	9228.8	
609.1	9112.8	
609.29	11187	
609.48	10692	
609.67	9841.9	
609.86	9097.1	
610.05	10733	
610.24	10983	
610.43	9011.1	
610.62	8620.6	
610.81	12019	
611	11744	
611.19	9183.8	
611.38	9777	
611.57	11304	
611.76	12271	
611.95	8946.9	
612.14	8723	
612.33	11123	
612.52	10693	
612.71	9461.6	
612.9	8766	
613.09	10315	
613.28	12371	
613.47	9333.3	
613.66	9871.2	
613.85	11262	
614.04	10738	
614.24	9190.6	
614.43	8556.4	
614.62	11376	
614.81	11246	
615	9682.1	
615.19	9672.6	
615.38	10640	
615.57	10961	
615.76	9515.5	
615.95	10348	
616.14	11249	
616.33	10939	
616.52	9840.5	
616.71	9983.2	
616.9	11285	
617.09	11145	
617.28	9252	
617.47	10346	
617.66	10528	
617.85	10606	
618.04	10122	
618.22	9569.5	
618.41	10818	
618.6	11818	
618.79	9643.2	
618.98	9358.5	
619.17	11955	
619.36	10546	
619.55	9558.6	
619.74	9626.1	
619.93	11331	
620.12	10969	
620.31	10124	
620.5	10330	
620.69	12201	
620.88	12325	
621.07	10856	
621.26	10068	
621.45	11579	
621.64	11643	
621.83	10185	
622.02	9506.7	
622.21	11575	
622.4	11471	
622.59	10598	
622.78	10432	
622.97	11189	
623.16	12070	
623.35	10198	
623.54	9554.5	
623.72	11424	
623.91	11499	
624.1	10440	
624.29	9170.8	
624.48	12418	
624.67	11751	
624.86	10333	
625.05	9522.4	
625.24	12552	
625.43	11230	
625.62	11737	
625.81	9754.5	
626	12018	
626.19	11574	
626.38	10477	
626.56	9995.5	
626.75	11336	
626.94	12043	
627.13	10443	
627.32	9388.6	
627.51	11907	
627.7	13054	
627.89	9437.7	
628.08	10492	
628.27	11254	
628.46	11347	
628.65	9755.8	
628.83	9483.5	
629.02	11797	
629.21	11206	
629.4	10088	
629.59	10270	
629.78	11241	
629.97	11949	
630.16	10426	
630.35	9745.6	
630.54	12463	
630.72	12178	
630.91	9846	
631.1	10364	
631.29	11656	
631.48	11753	
631.67	10384	
631.86	9833	
632.05	11402	
632.24	11515	
632.42	9615.2	
632.61	10227	
632.8	11517	
632.99	11122	
633.18	10142	
633.37	10386	
633.56	11706	
633.75	11614	
633.93	10238	
634.12	9884.2	
634.31	12454	
634.5	12069	
634.69	9821.4	
634.88	10346	
635.07	11440	
635.25	11964	
635.44	10561	
635.63	10804	
635.82	11319	
636.01	10779	
636.2	10541	
636.39	10258	
636.57	12224	
636.76	11957	
636.95	9609.1	
637.14	10847	
637.33	11711	
637.52	12375	
637.7	9467.8	
637.89	10321	
638.08	11310	
638.27	12425	
638.46	10364	
638.65	10651	
638.83	12442	
639.02	11062	
639.21	10227	
639.4	10706	
639.59	11439	
639.78	11072	
639.96	9480.7	
640.15	9679.4	
640.34	11305	
640.53	11360	
640.72	9293	
640.91	9459.6	
641.09	10852	
641.28	11982	
641.47	9484.8	
641.66	10131	
641.85	11294	
642.03	11411	
642.22	9933.3	
642.41	9458.2	
642.6	10759	
642.79	10231	
642.97	9310.7	
643.16	9924.5	
643.35	10761	
643.54	10596	
643.73	9229.5	
643.91	9818	
644.1	10400	
644.29	10910	
644.48	9159.2	
644.67	9241.1	
644.85	10400	
645.04	10851	
645.23	8740.7	
645.42	9030.2	
645.6	10307	
645.79	11367	
645.98	8910	
646.17	8099.7	
646.36	9934	
646.54	10402	
646.73	9501.2	
646.92	8395.3	
647.11	10095	
647.29	10892	
647.48	8548.9	
647.67	8258.8	
647.86	11006	
648.05	10972	
648.23	8705.9	
648.42	9777	
648.61	10501	
648.8	10261	
648.98	8439	
649.17	8695.7	
649.36	9881.4	
649.55	9506.7	
649.73	8414.4	
649.92	9090.9	
650.11	9788.6	
650.3	10041	
650.48	8484.1	
650.67	8224	
650.86	10318	
651.05	9367.4	
651.23	8418.5	
651.42	8355	
651.61	9804.3	
651.79	9816.6	
651.98	8583.7	
652.17	8162.5	
652.36	10090	
652.54	9312.1	
652.73	8283.4	
652.92	8032.8	
653.11	10122	
653.29	10195	
653.48	7601.4	
653.67	8462.2	
653.85	9802.3	
654.04	10739	
654.23	8626	
654.42	8062.2	
654.6	9328.5	
654.79	9884.9	
654.98	7559.1	
655.16	7948.8	
655.35	8923.7	
655.54	8760.5	
655.73	7573.4	
655.91	7329.7	
656.1	9673.9	
656.29	8798.1	
656.47	7123.5	
656.66	8590.5	
656.85	9005.6	
657.03	9097.8	
657.22	7696.3	
657.41	7805.5	
657.59	9305.3	
657.78	9032.2	
657.97	7536.5	
658.16	8006.9	
658.34	9700.5	
658.53	10213	
658.72	8772.8	
658.9	9281.4	
659.09	9471.9	
659.28	9501.9	
659.46	7831.4	
659.65	7819.8	
659.84	9189.9	
660.02	9618.6	
660.21	7662.8	
660.4	7653.3	
660.58	10040	
660.77	9446.6	
660.96	8156.4	
661.14	7324.9	
661.33	10363	
661.52	10281	
661.7	7297.6	
661.89	10377	
662.08	8995.4	
662.26	8587.8	
662.45	7556.3	
662.64	7594.6	
662.82	9676	
663.01	8825.4	
663.2	7586.4	
663.38	8313.4	
663.57	9492.3	
663.75	9363.3	
663.94	7883.3	
664.13	8839.7	
664.31	8953.7	
664.5	9590.6	
664.69	8195.3	
664.87	8507.3	
665.06	8680	
665.25	9353.8	
665.43	8625.4	
665.62	8791.9	
665.8	9621.4	
665.99	8996.7	
666.18	7816.4	
666.36	7886.7	
666.55	9524.4	
666.74	9405.6	
666.92	7404.1	
667.11	8739.4	
667.29	9028.1	
667.48	9480	
667.67	8524.3	
667.85	7699	
668.04	9043.8	
668.22	9014.5	
668.41	7816.4	
668.6	7931.1	
668.78	8807.6	
668.97	9031.5	
669.15	8071	
669.34	7139.2	
669.53	8780.3	
669.71	9101.2	
669.9	7367.2	
670.08	7892.9	
670.27	8772.1	
670.46	9236.3	
670.64	8036.9	
670.83	8314.8	
671.01	8698.4	
671.2	9159.9	
671.38	7374.1	
671.57	7388.4	
671.76	9730.6	
671.94	10208	
672.13	7174.7	
672.31	8047.2	
672.5	9499.8	
672.69	8763.9	
672.87	7415	
673.06	7740.6	
673.24	9278.7	
673.43	8862.2	
673.61	7927	
673.8	7641	
673.98	9402.9	
674.17	9509.4	
674.36	8106.5	
674.54	8011.7	
674.73	9100.5	
674.91	9406.3	
675.1	7733.1	
675.28	7362.4	
675.47	8977.6	
675.65	9508	
675.84	7649.8	
676.03	7890.1	
676.21	8915.5	
676.4	8294.3	
676.58	8333.2	
676.77	8098.4	
676.95	10107	
677.14	8751.7	
677.32	7304.4	
677.51	7247.1	
677.69	9538.8	
677.88	8515.5	
678.06	7239.6	
678.25	7431.4	
678.44	8990.6	
678.62	8774.2	
678.81	7069.6	
678.99	7965.9	
679.18	9662.3	
679.36	9360.6	
679.55	7613.7	
679.73	8148.2	
679.92	9306	
680.1	8884.8	
680.29	8655.4	
680.47	7658.7	
680.66	8822.6	
680.84	9555.1	
681.03	7094.8	
681.21	8015.7	
681.4	8919.6	
681.58	8717.5	
681.77	7384.3	
681.95	7355.6	
682.14	9569.5	
682.32	9753.8	
682.51	8260.8	
682.69	7206.8	
682.88	8860.2	
683.06	9151	
683.25	7903.8	
683.43	8308.6	
683.62	9054.8	
683.8	9438.4	
683.99	8426	
684.17	7836.2	
684.36	10118	
684.54	8862.9	
684.73	7082.6	
684.91	7316	
685.1	9196.1	
685.28	8556.4	
685.46	7630	
685.65	7711.3	
685.83	9190.6	
686.02	8673.1	
686.2	7179.5	
686.39	7297.6	
686.57	8373.5	
686.76	9716.2	
686.94	7193.8	
687.13	7424.6	
687.31	9117.6	
687.5	8824	
687.68	6968.6	
687.86	7995.3	
688.05	10329	
688.23	8479.3	
688.42	8140	
688.6	7557.7	
688.79	8934.6	
688.97	8913.4	
689.16	7865.6	
689.34	7068.2	
689.52	9527.2	
689.71	9721.7	
689.89	8262.9	
690.08	7653.9	
690.26	9331.9	
690.45	9209	
690.63	8360.5	
690.81	7853.3	
691	9106.6	
691.18	9054.8	
691.37	7958.4	
691.55	9820	
691.74	8928.5	
691.92	10709	
692.1	8019.8	
692.29	7511.3	
692.47	9157.8	
692.66	8634.2	
692.84	7664.9	
693.02	8271.1	
693.21	8885.5	
693.39	9241.8	
693.58	8429.4	
693.76	7850.5	
693.94	10387	
694.13	10219	
694.31	7974.8	
694.5	8982.4	
694.68	9275.9	
694.86	9697.8	
695.05	8340	
695.23	8587.1	
695.42	10069	
695.6	12073	
695.78	9081.4	
695.97	8316.8	
696.15	10289	
696.34	9676.7	
696.52	8184.4	
696.7	8954.4	
696.89	10004	
697.07	9531.9	
697.25	8737.3	
697.44	10142	
697.62	10090	
697.81	10215	
697.99	8615.8	
698.17	9082.7	
698.36	9506	
698.54	10064	
698.72	8944.8	
698.91	8118.1	
699.09	9747	
699.28	9714.9	
699.46	8705.9	
699.64	8609.7	
699.83	9700.5	
700.01	10523	
700.19	9314.2	
700.38	8083.3	
700.56	10724	
700.74	9807	
700.93	8349.6	
701.11	9158.5	
701.29	10416	
701.48	11361	
701.66	8572.1	
701.84	8790.6	
702.03	10142	
702.21	10865	
702.39	8476.5	
702.58	8966.7	
702.76	10608	
702.94	10639	
703.13	8514.8	
703.31	10673	
703.49	10115	
703.68	11063	
703.86	8729.8	
704.04	9582.4	
704.23	10575	
704.41	10874	
704.59	9004.2	
704.78	9938.1	
704.96	11643	
705.14	10957	
705.33	8939.4	
705.51	9510.8	
705.69	10540	
705.87	11210	
706.06	9786.6	
706.24	8775.5	
706.42	10888	
706.61	11117	
706.79	9813.2	
706.97	8817.2	
707.16	10328	
707.34	10955	
707.52	9771.5	
707.7	9146.9	
707.89	10611	
708.07	10208	
708.25	9924.5	
708.44	10107	
708.62	10483	
708.8	11410	
708.98	10068	
709.17	9184.5	
709.35	10882	
709.53	10847	
709.72	9033.6	
709.9	9400.2	
710.08	11120	
710.26	11136	
710.45	10292	
710.63	9252	
710.81	10712	
710.99	10759	
711.18	9740.1	
711.36	9312.1	
711.54	10683	
711.72	11239	
711.91	9353.1	
712.09	8865.7	
712.27	10735	
712.45	11202	
712.64	9484.8	
712.82	8621.3	
713	10105	
713.18	10189	
713.37	8580.3	
713.55	9578.3	
713.73	10871	
713.91	9534.7	
714.1	8647.9	
714.28	8129.1	
714.46	10107	
714.64	9355.1	
714.83	7372	
715.01	7963.2	
715.19	9213.8	
715.37	8455.4	
715.55	7523.6	
715.74	7754.3	
715.92	9736	
716.1	7979.6	
716.28	8573.5	
716.47	7754.3	
716.65	8533.9	
716.83	8582.4	
717.01	7548.1	
717.19	7511.9	
717.38	10432	
717.56	8412.4	
717.74	7898.3	
717.92	7073	
718.1	9430.9	
718.29	8821.3	
718.47	6954.2	
718.65	7565.2	
718.83	9666.4	
719.01	9671.9	
719.2	7174	
719.38	8293.6	
719.56	9582.4	
719.74	10987	
719.92	7834.2	
720.11	8697.7	
720.29	9499.2	
720.47	8712.7	
720.65	7344	
720.83	7918.1	
721.02	8885.5	
721.2	8583	
721.38	7763.8	
721.56	7112.6	
721.74	8049.2	
721.92	8228.1	
722.11	8078.6	
722.29	7918.8	
722.47	9231.6	
722.65	8530.5	
722.83	7177.4	
723.01	7793.9	
723.2	8680	
723.38	8844.5	
723.56	6584.2	
723.74	7712	
723.92	8165.3	
724.1	9232.9	
724.29	7030.7	
724.47	8051.2	
724.65	8350.3	
724.83	8142	
725.01	6888	
725.19	7602.7	
725.37	8130.4	
725.56	8215.8	
725.74	6752.8	
725.92	6993.8	
726.1	8164.6	
726.28	8382.3	
726.46	7316	
726.64	7046.4	
726.83	8372.8	
727.01	8572.8	
727.19	6745.3	
727.37	7488.7	
727.55	8561.2	
727.73	8901.8	
727.91	6719.4	
728.09	6633.4	
728.28	8996	
728.46	9209.7	
728.64	7539.3	
728.82	7526.3	
729	9836.4	
729.18	9265	
729.36	6838.9	
729.54	8887.5	
729.72	10238	
729.91	8816.5	
730.09	8658.8	
730.27	7675.8	
730.45	8752.3	
730.63	9325.8	
730.81	8112.7	
730.99	7453.9	
731.17	9839.1	
731.35	8603.5	
731.53	7785	
731.71	7524.2	
731.9	9503.3	
732.08	9574.3	
732.26	7666.2	
732.44	7396.6	
732.62	9712.2	
732.8	9203.6	
732.98	7986.4	
733.16	7172	
733.34	9174.9	
733.52	8077.9	
733.7	7501.7	
733.88	7762.5	
734.07	8914.1	
734.25	8772.8	
734.43	7073.7	
734.61	8404.9	
734.79	10086	
734.97	8637	
735.15	7160.4	
735.33	7449.1	
735.51	8816.5	
735.69	8616.5	
735.87	8302.5	
736.05	7476.5	
736.23	8742.1	
736.41	8463.6	
736.59	7458.7	
736.77	7476.5	
736.95	9071.1	
737.13	8596.7	
737.32	7152.2	
737.5	7188.4	
737.68	9514.2	
737.86	8453.3	
738.04	6832.7	
738.22	8404.9	
738.4	8182.3	
738.58	8426.7	
738.76	7249.8	
738.94	6436.1	
739.12	8305.2	
739.3	8199.4	
739.48	7776.8	
739.66	7544	
739.84	8456.1	
740.02	8421.9	
740.2	6504.3	
740.38	6683.9	
740.56	8798.1	
740.74	7817.1	
740.92	7318.1	
741.1	7084.6	
741.28	8205.5	
741.46	8020.5	
741.64	6750.8	
741.82	7258	
742	8292.9	
742.18	8051.2	
742.36	6978.1	
742.54	6565.1	
742.72	8626	
742.9	7448.5	
743.08	7256	
743.26	6200.6	
743.44	8705.2	
743.62	8572.8	
743.8	7292.1	
743.98	6427.9	
744.16	8313.4	
744.34	8006.9	
744.52	7128.3	
744.7	7075	
744.88	8346.8	
745.06	7828	
745.24	7068.9	
745.42	7145.4	
745.6	8368	
745.78	8147.5	
745.96	5996.5	
746.14	6185.5	
746.32	8856.1	
746.5	8205.5	
746.68	6658.6	
746.86	6209.4	
747.03	8536.6	
747.21	7127.6	
747.39	6627.9	
747.57	6184.2	
747.75	7811.6	
747.93	8144.1	
748.11	6085.9	
748.29	6098.9	
748.47	9178.3	
748.65	7531.7	
748.83	6701.6	
749.01	6447	
749.19	8023.9	
749.37	7185	
749.55	6410.1	
749.73	6414.2	
749.91	7596.6	
750.09	7335.1	
750.26	6404	
750.44	5888.6	
750.62	7649.8	
750.8	7616.4	
750.98	5795.1	
751.16	6064.7	
751.34	7683.3	
751.52	7054.6	
751.7	6694.1	
751.88	5672.2	
752.06	8148.9	
752.24	7884	
752.42	5648.3	
752.59	5950	
752.77	7438.9	
752.95	8535.9	
753.13	6574.7	
753.31	6027.2	
753.49	7130.3	
753.67	7602.1	
753.85	6229.9	
754.03	5825.1	
754.21	7654.6	
754.38	7956.4	
754.56	5879	
754.74	5037.3	
754.92	6808.8	
755.1	7384.3	
755.28	4846.9	
755.46	4800.4	
755.64	7765.9	
755.82	7800	
755.99	4721.9	
756.17	4745.8	
756.35	5321.3	
756.53	6687.3	
756.71	3571	
756.89	4420.9	
757.07	6230.6	
757.25	5524.1	
757.42	4838.7	
757.6	5738.4	
757.78	6456.6	
757.96	5655.8	
758.14	4868	
758.32	4468.7	
758.5	5267.4	
758.67	6023.8	
758.85	4635.9	
759.03	4699.4	
759.21	6137.1	
759.39	5652.4	
759.57	4225	
759.75	5312.4	
759.92	6730.3	
760.1	6240.2	
760.28	5651.7	
760.46	5821.7	
760.64	5946.6	
760.82	5777.3	
760.99	5576.6	
761.17	4881	
761.35	6732.4	
761.53	5880.4	
761.71	4916.5	
761.89	5633.3	
762.06	6638.1	
762.24	6209.4	
762.42	5145.9	
762.6	4921.3	
762.78	6290.7	
762.96	6819.7	
763.13	5543.9	
763.31	5164.3	
763.49	6981.5	
763.67	6295.5	
763.85	5933	
764.02	6343.2	
764.2	7229.3	
764.38	6463.4	
764.56	5073.5	
764.74	5893.4	
764.91	7316	
765.09	6277.7	
765.27	4823	
765.45	4630.5	
765.63	7382.9	
765.8	7098.9	
765.98	4396.3	
766.16	4636.6	
766.34	5881.1	
766.52	5664	
766.69	5410.1	
766.87	4468	
767.05	6221.7	
767.23	6842.9	
767.41	4721.9	
767.58	4915.8	
767.76	6694.8	
767.94	6704.4	
768.12	4781.3	
768.29	5326.1	
768.47	6175.3	
768.65	6791.1	
768.83	4410	
769	5341.1	
769.18	5749.3	
769.36	6345.3	
769.54	5370.5	
769.72	4373.1	
769.89	6634.1	
770.07	6678.4	
770.25	4643.4	
770.43	5745.2	
770.6	7305.1	
770.78	7613.7	
770.96	4790.2	
771.14	5278.3	
771.31	6516	
771.49	5860.6	
771.67	4033.8	
771.85	4190.1	
772.02	5201.2	
772.2	5913.9	
772.38	4914.4	
772.55	4402.5	
772.73	6129.6	
772.91	5915.9	
773.09	4681	
773.26	4770.4	
773.44	6035.4	
773.62	5716.6	
773.8	4219.5	
773.97	3975.1	
774.15	6075.6	
774.33	5719.3	
774.5	4130.8	
774.68	4365.6	
774.86	6197.8	
775.04	5688.6	
775.21	4179.2	
775.39	4144.4	
775.57	5890.6	
775.74	6293.4	
775.92	4019.5	
776.1	3922.5	
776.27	5899.5	
776.45	6957.6	
776.63	4062.5	
776.81	3710.9	
776.98	5543.2	
777.16	6497.5	
777.34	4212.7	
777.51	4454.3	
777.69	5540.4	
777.87	5315.8	
778.04	4248.9	
778.22	4769.7	
778.4	5311.1	
778.57	5820.3	
778.75	3557.3	
778.93	3859.7	
779.1	5241.4	
779.28	5010	
779.46	3530	
779.64	3970.3	
779.81	6044.9	
779.99	6716.7	
780.17	4689.8	
780.34	4783.4	
780.52	5509.7	
780.69	5707.7	
780.87	4224.3	
781.05	3789.4	
781.22	5532.9	
781.4	5597.8	
781.58	3957.4	
781.75	3226.9	
781.93	5575.9	
782.11	4980	
782.28	4764.9	
782.46	3966.2	
782.64	4870.8	
782.81	5671.5	
782.99	4052.9	
783.17	3958	
783.34	5541.1	
783.52	4929.5	
783.69	4113.7	
783.87	4816.8	
784.05	5063.3	
784.22	4982	
784.4	4799.8	
784.58	4203.8	
784.75	5784.8	
784.93	5012.7	
785.1	3913.7	
785.28	4399	
785.46	5509	
785.63	4956.8	
785.81	3822.2	
785.99	3713	
786.16	5020.3	
786.34	5429.8	
786.51	3773.7	
786.69	4080.2	
786.87	4710.3	
787.04	5094.7	
787.22	3643.3	
787.39	4450.2	
787.57	4924.7	
787.75	5811.5	
787.92	4557.4	
788.1	4562.2	
788.27	4933.6	
788.45	4681.7	
788.63	4280.3	
788.8	3149.1	
788.98	5315.8	
789.15	4617.5	
789.33	3220.8	
789.5	3789.4	
789.68	5737	
789.86	5845.6	
790.03	4179.2	
790.21	3691.8	
790.38	5686.5	
790.56	5029.1	
790.73	3624.9	
790.91	3603.7	
791.09	4870.8	
791.26	5519.3	
791.44	3849.5	
791.61	3321.8	
791.79	4826.4	
791.96	4906.9	
792.14	3394.8	
792.32	3038.5	
792.49	4883	
792.67	4960.2	
792.84	3469.3	
793.02	3283.6	
793.19	5649.7	
793.37	5913.2	
793.54	3042.6	
793.72	3343.7	
793.89	5933.6	
794.07	4848.2	
794.25	3781.2	
794.42	3095.8	
794.6	5780.1	
794.77	5391.6	
794.95	4074.8	
795.12	3612.6	
795.3	4833.2	
795.47	5414.1	
795.65	3943	
795.82	3823.6	
796	4698.7	
796.17	6299.6	
796.35	3716.4	
796.52	4317.1	
796.7	5251.7	
796.87	5378	
797.05	3732.8	
797.22	4391.5	
797.4	5393.7	
797.57	6253.1	
797.75	3810.6	
797.92	3556.6	
798.1	5616.9	
798.27	4713.7	
798.45	3155.2	
798.62	3319.1	
798.8	5162.9	
798.97	5542.5	
799.15	3984.7	
799.32	3752.6	
799.5	4466.6	
799.67	5142.4	
799.85	4121.9	
800.02	3074.7	
800.2	4749.9	
800.37	5032.5	
800.55	4243.4	
800.72	3564.1	
800.9	5433.9	
801.07	5850.4	
801.25	4690.5	
801.42	3882.9	
801.6	5512.4	
801.77	5202.5	
801.95	3639.9	
802.12	3405.8	
802.29	5243.5	
802.47	5182	
802.64	3851.5	
802.82	2974.3	
802.99	4804.5	
803.17	5627.1	
803.34	3814.7	
803.52	3410.6	
803.69	6154.8	
803.87	4515.1	
804.04	3788.7	
804.21	3871.3	
804.39	5721.3	
804.56	4941.7	
804.74	3193.5	
804.91	3883.6	
805.09	4775.9	
805.26	4899.4	
805.44	3269.2	
805.61	3582.6	
805.78	5359.5	
805.96	5330.2	
806.13	3794.9	
806.31	4116.4	
806.48	4362.2	
806.66	4851	
806.83	3841.3	
807	3774.4	
807.18	4786.8	
807.35	5133.6	
807.53	3780.6	
807.7	3030.3	
807.87	5760.3	
808.05	4824.3	
808.22	4083.6	
808.4	3064.4	
808.57	4735.6	
808.74	4472.1	
808.92	3435.8	
809.09	4333.5	
809.27	4697.4	
809.44	5142.4	
809.61	3056.3	
809.79	3409.9	
809.96	5792.3	
810.14	5454.4	
810.31	2978.4	
810.48	3624.2	
810.66	4807.9	
810.83	5530.9	
811.01	3441.3	
811.18	3762.1	
811.35	5425.8	
811.53	4230.4	
811.7	4122.6	
811.87	3876.8	
812.05	4816.1	
812.22	4712.4	
812.39	3330.7	
812.57	3259.7	
812.74	4786.1	
812.92	6225.8	
813.09	3603.1	
813.26	3895.9	
813.44	6034.7	
813.61	4638	
813.78	3035.8	
813.96	3980.6	
814.13	4767.7	
814.3	4502.8	
814.48	4302.8	
814.65	3567.6	
814.82	5999.9	
815	4525.3	
815.17	3742.3	
815.34	4452.3	
815.52	4698	
815.69	4722.6	
815.87	3652.9	
816.04	3611.9	
816.21	4752.7	
816.38	4233.8	
816.56	3532.7	
816.73	3329.3	
816.9	5916.6	
817.08	5415.5	
817.25	3442	
817.42	4177.2	
817.6	4376.5	
817.77	4784.1	
817.94	3756.7	
818.12	3342.3	
818.29	4533.5	
818.46	6802	
818.64	3507.5	
818.81	3263.8	
818.98	4500.8	
819.16	6326.2	
819.33	3966.9	
819.5	3669.3	
819.67	5077.6	
819.85	5707.7	
820.02	3625.6	
820.19	3820.1	
820.37	4950.6	
820.54	4657.8	
820.71	3719.8	
820.88	4587.4	
821.06	5025	
821.23	4564.2	
821.4	3748.5	
821.58	3680.2	
821.75	5371.8	
821.92	4919.2	
822.09	3024.2	
822.27	3116.3	
822.44	4756.1	
822.61	4678.9	
822.79	3039.2	
822.96	5709.1	
823.13	5121.3	
823.3	4506.9	
823.48	3534.8	
823.65	3147	
823.82	5347.2	
823.99	4423.6	
824.17	4397	
824.34	3222.1	
824.51	6184.2	
824.68	4791.6	
824.86	3385.3	
825.03	3708.9	
825.2	4744.5	
825.37	5633.3	
825.55	3355.3	
825.72	3611.3	
825.89	6158.2	
826.06	5781.4	
826.24	3603.1	
826.41	3633.8	
826.58	5745.2	
826.75	5096.7	
826.92	2920.4	
827.1	3211.2	
827.27	7563.1	
827.44	6132.3	
827.61	3444	
827.79	4096.6	
827.96	4590.2	
828.13	4839.4	
828.3	3565.5	
828.47	3023.5	
828.65	4992.9	
828.82	5016.2	
828.99	4505.5	
829.16	4018.1	
829.34	5350.7	
829.51	5111.7	
829.68	3674.1	
829.85	3758	
830.02	5618.9	
830.2	5322.7	
830.37	2865.8	
830.54	4435.2	
830.71	6027.9	
830.88	4765.6	
831.05	2926.5	
831.23	3302.7	
831.4	5814.2	
831.57	6468.9	
831.74	3424.2	
831.91	3035.1	
832.09	5029.8	
832.26	5291.3	
832.43	3530	
832.6	3953.9	
832.77	5008.6	
832.94	5650.3	
833.12	2827.6	
833.29	3450.1	
833.46	4685.1	
833.63	6545.3	
833.8	3777.8	
833.97	3528.7	
834.15	5329.5	
834.32	5093.3	
834.49	3691.1	
834.66	3770.3	
834.83	5485.1	
835	4547.9	
835.17	3436.5	
835.35	3381.2	
835.52	5231.2	
835.69	5118.6	
835.86	3570.3	
836.03	2952.5	
836.2	5315.8	
836.37	4953.4	
836.55	3535.5	
836.72	3312.9	
836.89	4883	
837.06	5388.2	
837.23	3572.3	
837.4	3893.2	
837.57	6077	
837.75	6504.3	
837.92	3228.3	
838.09	3399.6	
838.26	4945.2	
838.43	5490.6	
838.6	3693.9	
838.77	3349.1	
838.94	6255.9	
839.11	6070.9	
839.29	3489.7	
839.46	2794.1	
839.63	5342.5	
839.8	5077.6	
839.97	3401.7	
840.14	3373	
840.31	5118.6	
840.48	5352.7	
840.65	2887	
840.82	3387.3	
841	5289.2	
841.17	5203.2	
841.34	3088.3	
841.51	3174.4	
841.68	5277.6	
841.85	5008.6	
842.02	3302	
842.19	2739.5	
842.36	5091.9	
842.53	5090.6	
842.7	3163.4	
842.87	3852.9	
843.05	6531	
843.22	5014.1	
843.39	3001	
843.56	3310.9	
843.73	4826.4	
843.9	5348.6	
844.07	4982.7	
844.24	4147.8	
844.41	7406.1	
844.58	4611.3	
844.75	3123.8	
844.92	3339.6	
845.09	5266	
845.26	5261.9	
845.43	3130.7	
845.6	3295.2	
845.77	5268.1	
845.94	5010	
846.12	3456.3	
846.29	3642	
846.46	5464	
846.63	5298.1	
846.8	3198.9	
846.97	3730	
847.14	5651.7	
847.31	5256.5	
847.48	3541.6	
847.65	3863.2	
847.82	5546.6	
847.99	5437.4	
848.16	4156	
848.33	3837.9	
848.5	4888.5	
848.67	5677.7	
848.84	3122.5	
849.01	3203	
849.18	4761.5	
849.35	4502.1	
849.52	3941	
849.69	3118.4	
849.86	5472.2	
850.03	5623.7	
850.2	3158.7	
850.37	3801	
850.54	5536.3	
850.71	5010	
850.88	3783.3	
851.05	3067.9	
851.22	5138.4	
851.39	5746.6	
851.56	2986.6	
851.73	3547.8	
851.9	4701.5	
852.07	5496.7	
852.24	3470.6	
852.41	3149.8	
852.58	5171.1	
852.75	4792.9	
852.92	3489.7	
853.09	3069.2	
853.26	4915.1	
853.43	5629.2	
853.6	3156.6	
853.77	2696.5	
853.94	5793.7	
854.11	5197.7	
854.28	4554	
854.44	3362.8	
854.61	6178.7	
854.78	5485.1	
854.95	3114.3	
855.12	3869.3	
855.29	4300.7	
855.46	5877.7	
855.63	3082.2	
855.8	4239.3	
855.97	4840.7	
856.14	5586.9	
856.31	4311	
856.48	3426.9	
856.65	4908.3	
856.82	4654.4	
856.99	2985.9	
857.16	3372.3	
857.33	6301.6	
857.49	5003.9	
857.66	3421.5	
857.83	3617.4	
858	4945.8	
858.17	5171.1	
858.34	2973.7	
858.51	3097.9	
858.68	5830.6	
858.85	5834	
859.02	3590.8	
859.19	3829	
859.36	4618.2	
859.52	4697.4	
859.69	3166.2	
859.86	3667.9	
860.03	4711	
860.2	5757.5	
860.37	2846	
860.54	3155.9	
860.71	5431.9	
860.88	5782.8	
861.05	3450.8	
861.21	3922.5	
861.38	5845.6	
861.55	4508.3	
861.72	2876.7	
861.89	3493.2	
862.06	5468.8	
862.23	5897.5	
862.4	3019.4	
862.56	3258.3	
862.73	5341.8	
862.9	5039.4	
863.07	3630.4	
863.24	2852.1	
863.41	4580.6	
863.58	4699.4	
863.75	3209.8	
863.91	3586	
864.08	5674.2	
864.25	5349.3	
864.42	3873.4	
864.59	4330.1	
864.76	6053.8	
864.93	4632.5	
865.09	3043.3	
865.26	3358.7	
865.43	5636.7	
865.6	6049.7	
865.77	2779.1	
865.94	3110.9	
866.1	5724.1	
866.27	5429.2	
866.44	4605.2	
866.61	2969.6	
866.78	5006.6	
866.95	5352	
867.11	3017.3	
867.28	2795.5	
867.45	5544.5	
867.62	4736.3	
867.79	3541.6	
867.96	3123.8	
868.12	4630.5	
868.29	5515.9	
868.46	2771.6	
868.63	4055.7	
868.8	5584.8	
868.97	5411.4	
869.13	3299.3	
869.3	3253.5	
869.47	5300.8	
869.64	5556.8	
869.81	3117.7	
869.97	3109.5	
870.14	5227.8	
870.31	5814.9	
870.48	3072.6	
870.65	3929.4	
870.81	4935.6	
870.98	4969.1	
871.15	3461.1	
871.32	3218	
871.48	5285.8	
871.65	5848.3	
871.82	3088.3	
871.99	3437.9	
872.16	6249	
872.32	5676.3	
872.49	3160.7	
872.66	3135.4	
872.83	5451.7	
872.99	4842.1	
873.16	3561.4	
873.33	3063.1	
873.5	5074.9	
873.67	5148.6	
873.83	3325.9	
874	4085.7	
874.17	5248.9	
874.34	6094.1	
874.5	3965.6	
874.67	3850.9	
874.84	5767.8	
875.01	4588.8	
875.17	4338.3	
875.34	3112.2	
875.51	5163.6	
875.68	6145.3	
875.84	3748.5	
876.01	4453	
876.18	5440.1	
876.34	5312.4	
876.51	3142.9	
876.68	3017.3	
876.85	4941.7	
877.01	5619.6	
877.18	4338.3	
877.35	3095.2	
877.52	5112.4	
877.68	4613.4	
877.85	3099.9	
878.02	3080.8	
878.18	5008	
878.35	4826.4	
878.52	2490.3	
878.69	3411.2	
878.85	5458.5	
879.02	5454.4	
879.19	4314.4	
879.35	3354.6	
879.52	5451.7	
879.69	5513.1	
879.86	2701.3	
880.02	3506.8	
880.19	5048.2	
880.36	6079.7	
880.52	3532.7	
880.69	3659.7	
880.86	5468.1	
881.02	5496.1	
881.19	3360.7	
881.36	3420.1	
881.52	5404.6	
881.69	4791.6	
881.86	3338.2	
882.02	3246	
882.19	5616.9	
882.36	6469.5	
882.52	3191.4	
882.69	4293.2	
882.86	5183.4	
883.02	5164.3	
883.19	3728	
883.36	3549.1	
883.52	5488.6	
883.69	6128.2	
883.86	3201.7	
884.02	2867.8	
884.19	5406	
884.36	5121.3	
884.52	3498.6	
884.69	3311.6	
884.86	4820.9	
885.02	5939.1	
885.19	3515.7	
885.36	3578.5	
885.52	5042.8	
885.69	5249.6	
885.86	4463.9	
886.02	3936.9	
886.19	5464	
886.35	4973.2	
886.52	3440.6	
886.69	4278.2	
886.85	4678.9	
887.02	5693.4	
887.19	5693.4	
887.35	5693.4	
887.52	5693.4	
887.68	5693.4	
887.85	5693.4	
888.02	5693.4	
888.18	5693.4	
888.35	5693.4	
888.51	5693.4	
888.68	5693.4	
888.85	5693.4	
889.01	5693.4	
889.18	5693.4	
889.35	5693.4	
889.51	5693.4	
889.68	5693.4	
889.84	5693.4	
890.01	5693.4	
890.17	5693.4	
890.34	5693.4	
890.51	5693.4	
890.67	5693.4	
890.84	5693.4	
891	5693.4	
891.17	5693.4	
891.34	5693.4	
891.5	5693.4	
891.67	5693.4	
891.83	5693.4	
892	5693.4	
892.16	5693.4	
892.33	5693.4	
892.5	5693.4	
892.66	5693.4	
892.83	5693.4	
892.99	5693.4	
893.16	5693.4	
893.32	5693.4	
893.49	5693.4	
893.65	5693.4	
893.82	5693.4	
893.99	5693.4	
894.15	5693.4	
894.32	5693.4	
894.48	5693.4	
894.65	5693.4	
894.81	5693.4	
894.98	5693.4	
895.14	5693.4	
895.31	5693.4	
895.47	5693.4	
895.64	5693.4	
895.81	5693.4	
895.97	5693.4	
896.14	5693.4	
896.3	5693.4	
896.47	5693.4	
896.63	5693.4	
896.8	5693.4	
896.96	5693.4	
897.13	5693.4	
897.29	5693.4	
897.46	5693.4	
897.62	5693.4	
897.79	5693.4	
897.95	5693.4	
898.12	5693.4	
898.28	5693.4	
898.45	5693.4	
898.61	5693.4	
898.78	5693.4	
898.94	5693.4	
899.11	5693.4	
899.27	5693.4	
899.44	5693.4	
899.6	5693.4	
899.77	5693.4	
899.93	5693.4	
900.1	5693.4	
900.26	5693.4	
900.43	5693.4	
900.59	5693.4	
900.76	5693.4	
900.92	5693.4	
901.09	5693.4	
901.25	5693.4	
901.42	5693.4	
901.58	5693.4	
901.75	5693.4	
901.91	5693.4	
902.07	5693.4	
902.24	5693.4	
902.4	5693.4	
902.57	5693.4	
902.73	5693.4	
902.9	5693.4	
903.06	5693.4	
903.23	5693.4	
903.39	5693.4	
903.56	5693.4	
903.72	5693.4	
903.88	5693.4	
904.05	5693.4	
904.21	5693.4	
904.38	5693.4	
904.54	5693.4	
904.71	5693.4	
904.87	5693.4	
905.03	5693.4	
905.2	5693.4	
905.36	5693.4	
905.53	5693.4	
905.69	5693.4	
905.86	5693.4	
906.02	5693.4	
906.18	5693.4	
906.35	5693.4	
906.51	5693.4	
906.68	5693.4	
906.84	5693.4	
907.01	5693.4	
907.17	5693.4	
907.33	5693.4	
907.5	5693.4	
907.66	5693.4	
907.83	5693.4	
907.99	5693.4	
908.15	5693.4	
908.32	5693.4	
908.48	5693.4	
908.65	5693.4	
908.81	5693.4	
908.97	5693.4	
909.14	5693.4	
909.3	5693.4	
909.47	5693.4	
909.63	5693.4	
909.79	5693.4	
909.96	5693.4	
910.12	5693.4	
910.28	5693.4	
910.45	5693.4	
910.61	5693.4	
910.78	5693.4	
910.94	5693.4	
911.1	5693.4	
911.27	5693.4	
911.43	5693.4	
911.59	5693.4	
911.76	5693.4	
911.92	5693.4	
912.08	5693.4	
912.25	5693.4	
912.41	5693.4	
912.57	5693.4	
912.74	5693.4	
912.9	5693.4	
913.07	5693.4	
913.23	5693.4	
913.39	5693.4	
913.56	5693.4	
913.72	5693.4	
913.88	5693.4	
914.05	5693.4	
914.21	5693.4	
914.37	5693.4	
914.54	5693.4	
914.7	5693.4	
914.86	5693.4	
915.03	5693.4	
915.19	5693.4	
