Wavelength	Intensities	
nm	a.u.	
179.22	1908.9	
179.44	1909.7	
179.65	1908	
179.86	1911.4	
180.08	1903.2	
180.29	4976.6	
180.51	3491.1	
180.72	5653.1	
180.94	6612.9	
181.15	3254.2	
181.37	3218	
181.58	5488.6	
181.79	5776.6	
182.01	3386	
182.22	3622.9	
182.44	5806.7	
182.65	4866.7	
182.87	4519.9	
183.08	4019.5	
183.29	6040.1	
183.51	5023	
183.72	3626.3	
183.94	5358.2	
184.15	5450.3	
184.37	5436.7	
184.58	3228.3	
184.79	4483	
185.01	4983.4	
185.22	5737	
185.44	4702.8	
185.65	3962.1	
185.86	5302.2	
186.08	4917.2	
186.29	3110.9	
186.51	3374.4	
186.72	5057.1	
186.94	5987.6	
187.15	3880.2	
187.36	4060.4	
187.58	7761.8	
187.79	5546.6	
188.01	4239.3	
188.22	6638.1	
188.43	6643.6	
188.65	5748.6	
188.86	3443.3	
189.08	4048.8	
189.29	5212.1	
189.5	5195	
189.72	3734.8	
189.93	3855.6	
190.15	6006	
190.36	7164.5	
190.57	4155.3	
190.79	3992.9	
191	6035.4	
191.22	6019.7	
191.43	4187.4	
191.64	3377.1	
191.86	6148.7	
192.07	5955.5	
192.29	3522.5	
192.5	3820.8	
192.71	6044.9	
192.93	5154.1	
193.14	3763.5	
193.35	3796.9	
193.57	5222.3	
193.78	6033.3	
194	2995.5	
194.21	3697.9	
194.42	4974.5	
194.64	5464.7	
194.85	4007.2	
195.07	4780.6	
195.28	5453.1	
195.49	4713.7	
195.71	4975.2	
195.92	3489.1	
196.13	5638.7	
196.35	5743.2	
196.56	5307.7	
196.78	4027.7	
196.99	7054.6	
197.2	6643.6	
197.42	4652.3	
197.63	4061.1	
197.84	4903.5	
198.06	5654.4	
198.27	3746.4	
198.48	5078.3	
198.7	5189.6	
198.91	5322	
199.13	4105.5	
199.34	4108.9	
199.55	5890	
199.77	4732.9	
199.98	3575.1	
200.19	4141	
200.41	5234.6	
200.62	5047.6	
200.83	4224.3	
201.05	4545.8	
201.26	5362.9	
201.47	5027.8	
201.69	3627.6	
201.9	3527.3	
202.11	5429.2	
202.33	6411.5	
202.54	3867.9	
202.76	4298	
202.97	5559.6	
203.18	5573.9	
203.4	4285	
203.61	4227	
203.82	5461.2	
204.04	5119.2	
204.25	4179.9	
204.46	4032.5	
204.68	5451	
204.89	5638.1	
205.1	4027.7	
205.32	3456.3	
205.53	5877	
205.74	5969.8	
205.96	2962.7	
206.17	4164.9	
206.38	5810.8	
206.6	5979.4	
206.81	4689.8	
207.02	3802.4	
207.24	5662	
207.45	6143.2	
207.66	3863.8	
207.88	3278.8	
208.09	5600.5	
208.3	5433.9	
208.52	3525.9	
208.73	3874.8	
208.94	5421.7	
209.15	6201.9	
209.37	3947.8	
209.58	4087.7	
209.79	5933.6	
210.01	5199.8	
210.22	3117.7	
210.43	3233.7	
210.65	5417.6	
210.86	5847	
211.07	3857.7	
211.29	3639.2	
211.5	5834.7	
211.71	5327.4	
211.93	3545.7	
212.14	3575.1	
212.35	5365.7	
212.56	5618.3	
212.78	4087.1	
212.99	3426.3	
213.2	6408.8	
213.42	5210	
213.63	3727.3	
213.84	4008.6	
214.06	4845.5	
214.27	4916.5	
214.48	3855.6	
214.69	4139.6	
214.91	6102.3	
215.12	6236.1	
215.33	4243.4	
215.55	4704.2	
215.76	6716.7	
215.97	5843.5	
216.18	4019.5	
216.4	3928	
216.61	5104.2	
216.82	5949.3	
217.04	3592.8	
217.25	3747.1	
217.46	6136.4	
217.67	5820.3	
217.89	3216	
218.1	3328.6	
218.31	5500.8	
218.53	5647.6	
218.74	3788.7	
218.95	3681.6	
219.16	5364.3	
219.38	6386.9	
219.59	3650.2	
219.8	4388.8	
220.01	7104.4	
220.23	5474.2	
220.44	4801.8	
220.65	3554.6	
220.87	5567.1	
221.08	6087.9	
221.29	3297.2	
221.5	4442.7	
221.72	7423.9	
221.93	5125.4	
222.14	4160.1	
222.35	4818.2	
222.57	5530.9	
222.78	5817.6	
222.99	3906.2	
223.2	4243.4	
223.42	5720.7	
223.63	5905.7	
223.84	3035.8	
224.05	2976.4	
224.27	6978.1	
224.48	6313.9	
224.69	4854.4	
224.9	4098.7	
225.12	5603.9	
225.33	5396.4	
225.54	3252.9	
225.75	3665.2	
225.97	4992.9	
226.18	5233.9	
226.39	3949.8	
226.6	3638.6	
226.82	5201.8	
227.03	5047.6	
227.24	4067.9	
227.45	3411.9	
227.67	5801.2	
227.88	6418.3	
228.09	4578.6	
228.3	4683	
228.52	5851	
228.73	5425.1	
228.94	3783.3	
229.15	3365.5	
229.36	5372.5	
229.58	5289.9	
229.79	3846.1	
230	4476.2	
230.21	6508.4	
230.43	5594.4	
230.64	4071.4	
230.85	4260.5	
231.06	5851	
231.28	5874.3	
231.49	3387.3	
231.7	3969.6	
231.91	5771.9	
232.12	5544.5	
232.34	3475.4	
232.55	4003.8	
232.76	6041.5	
232.97	5640.1	
233.18	3577.8	
233.4	4048.8	
233.61	5690.6	
233.82	5289.9	
234.03	3775.8	
234.25	3751.9	
234.46	7560.4	
234.67	5475.6	
234.88	4173.8	
235.09	3620.8	
235.31	5781.4	
235.52	5347.9	
235.73	4077.5	
235.94	3473.4	
236.15	5170.4	
236.37	6591	
236.58	3624.2	
236.79	3960.1	
237	5754.1	
237.21	4939.7	
237.43	4224.3	
237.64	3354.6	
237.85	9908.1	
238.06	5020.9	
238.27	4339.6	
238.48	3435.8	
238.7	5773.9	
238.91	5345.2	
239.12	3900	
239.33	3957.4	
239.54	5077.6	
239.76	5400.5	
239.97	3878.2	
240.18	3939.6	
240.39	6898.9	
240.6	5710.4	
240.82	4029.7	
241.03	3361.4	
241.24	5400.5	
241.45	6303	
241.66	3533.4	
241.87	4213.4	
242.09	6216.3	
242.3	6556.9	
242.51	4331.5	
242.72	3956.7	
242.93	5901.6	
243.14	5409.4	
243.36	4514.4	
243.57	4912.4	
243.78	6337.8	
243.99	5833.3	
244.2	3911.6	
244.41	3546.4	
244.63	4928.8	
244.84	5794.4	
245.05	4252.9	
245.26	3967.6	
245.47	5740.5	
245.68	6014.9	
245.9	5244.2	
246.11	4203.8	
246.32	5256.5	
246.53	5694.7	
246.74	6335.7	
246.95	3304.1	
247.16	4918.5	
247.38	5444.9	
247.59	3289.7	
247.8	3919.1	
248.01	5097.4	
248.22	5375.2	
248.43	3594.2	
248.64	3828.3	
248.86	4859.1	
249.07	5217.5	
249.28	3446	
249.49	4025.6	
249.7	6044.9	
249.91	6131.6	
250.12	3271.3	
250.34	3283.6	
250.55	5570.5	
250.76	5436.7	
250.97	4030.4	
251.18	4143.7	
251.39	6160.3	
251.6	5644.9	
251.81	4116.4	
252.03	4141.7	
252.24	5174.5	
252.45	5955.5	
252.66	3418.7	
252.87	4391.5	
253.08	5496.7	
253.29	7255.3	
253.5	3437.2	
253.72	4732.2	
253.93	5329.5	
254.14	6455.2	
254.35	3732.1	
254.56	3822.9	
254.77	5653.8	
254.98	4982	
255.19	3654.9	
255.41	4764.9	
255.62	5584.8	
255.83	6161.7	
256.04	4232.5	
256.25	4167.6	
256.46	6496.8	
256.67	5093.3	
256.88	3981.3	
257.09	4517.8	
257.31	5106.3	
257.52	5113.1	
257.73	5148.6	
257.94	3645.4	
258.15	5324.7	
258.36	5479	
258.57	4676.2	
258.78	2987.3	
258.99	5948	
259.2	5246.2	
259.41	3821.5	
259.63	3901.4	
259.84	6309.1	
260.05	6848.4	
260.26	4992.3	
260.47	3704.8	
260.68	6032	
260.89	5347.2	
261.1	4501.4	
261.31	3590.1	
261.52	6000.5	
261.73	6423.1	
261.95	4882.4	
262.16	4263.2	
262.37	6130.9	
262.58	6227.2	
262.79	4855.1	
263	3820.1	
263.21	5558.9	
263.42	4943.1	
263.63	3805.8	
263.84	3798.3	
264.05	6062.7	
264.26	6364.4	
264.47	4679.6	
264.69	4245.4	
264.9	6194.4	
265.11	5671.5	
265.32	3682.9	
265.53	3731.4	
265.74	5602.6	
265.95	4814.8	
266.16	4022.2	
266.37	4459.1	
266.58	5595.7	
266.79	5314.5	
267	3708.2	
267.21	3440.6	
267.42	4991.6	
267.63	5444.9	
267.84	3959.4	
268.06	3373	
268.27	5846.3	
268.48	6212.2	
268.69	3910.3	
268.9	4579.9	
269.11	6121.4	
269.32	4969.1	
269.53	3969	
269.74	3621.5	
269.95	5760.9	
270.16	4807.3	
270.37	3930.1	
270.58	4542.4	
270.79	5262.6	
271	5989.6	
271.21	4212.7	
271.42	3981.9	
271.63	5537.7	
271.84	5098.8	
272.05	3100.6	
272.26	3579.2	
272.47	5396.4	
272.68	5669.5	
272.89	3813.3	
273.11	4382	
273.32	5291.3	
273.53	6383.5	
273.74	4271.4	
273.95	4147.8	
274.16	6093.4	
274.37	5537	
274.58	4298.7	
274.79	3437.9	
275	5574.6	
275.21	6171.2	
275.42	5117.2	
275.63	4419.5	
275.84	5712.5	
276.05	7175.4	
276.26	4181.3	
276.47	3927.3	
276.68	5259.2	
276.89	6474.3	
277.1	4421.6	
277.31	3438.5	
277.52	5689.3	
277.73	5822.4	
277.94	3431	
278.15	3818.8	
278.36	5649	
278.57	5133.6	
278.78	3771.7	
278.99	4194.9	
279.2	5045.5	
279.41	5023.7	
279.62	4980.7	
279.83	3487.7	
280.04	6628.6	
280.25	4971.8	
280.46	4922	
280.67	3949.8	
280.88	5082.4	
281.09	6146.6	
281.3	4182.6	
281.51	5225.7	
281.72	5141.1	
281.93	6011.5	
282.14	3675.4	
282.35	3986.7	
282.56	5972.6	
282.77	5954.1	
282.98	3792.2	
283.19	4696	
283.4	7373.4	
283.61	5362.3	
283.82	3429	
284.03	4917.9	
284.24	5551.4	
284.45	6137.8	
284.66	4887.8	
284.87	4709.6	
285.08	5992.4	
285.29	6217	
285.5	3346.4	
285.71	3837.2	
285.92	6040.8	
286.12	6766.5	
286.33	4898.1	
286.54	3837.2	
286.75	5963	
286.96	5360.2	
287.17	3448.1	
287.38	4765.6	
287.59	5057.8	
287.8	5047.6	
288.01	3851.5	
288.22	4397.7	
288.43	6021.7	
288.64	5003.9	
288.85	4549.2	
289.06	4378.6	
289.27	5929.6	
289.48	6440.9	
289.69	4830.5	
289.9	4392.9	
290.11	6151.4	
290.32	5180.7	
290.53	4655.7	
290.74	4280.3	
290.94	5896.1	
291.15	5995.8	
291.36	3702.7	
291.57	4460.5	
291.78	5154.1	
291.99	4833.9	
292.2	3570.3	
292.41	4335.5	
292.62	6062	
292.83	5822.4	
293.04	5257.8	
293.25	3609.9	
293.46	5253.7	
293.67	6038.8	
293.88	3732.8	
294.09	3559.4	
294.29	5010.7	
294.5	5607.3	
294.71	3926	
294.92	3805.1	
295.13	5257.1	
295.34	6569.2	
295.55	3337.5	
295.76	3465.8	
295.97	5902.2	
296.18	6660.7	
296.39	3510.2	
296.6	3723.9	
296.81	5520.6	
297.01	5905.7	
297.22	3833.1	
297.43	3693.9	
297.64	5055.1	
297.85	5108.3	
298.06	3036.5	
298.27	3310.2	
298.48	5488.6	
298.69	5171.1	
298.9	4030.4	
299.11	3608.5	
299.31	4944.5	
299.52	5031.9	
299.73	4289.8	
299.94	4199	
300.15	5427.8	
300.36	5057.8	
300.57	4288.4	
300.78	4143	
300.99	5308.3	
301.2	5585.5	
301.4	3650.8	
301.61	4040	
301.82	5786.9	
302.03	5907.7	
302.24	4469.4	
302.45	3530.7	
302.66	5760.3	
302.87	6282.5	
303.08	3723.9	
303.29	5074.9	
303.49	5195.7	
303.7	5503.6	
303.91	3260.4	
304.12	4784.7	
304.33	4976.6	
304.54	5548.6	
304.75	3707.5	
304.96	3485.6	
305.16	5802.6	
305.37	6563.7	
305.58	3221.5	
305.79	3390.8	
306	5788.2	
306.21	4858.5	
306.42	3672	
306.63	5691.3	
306.83	5317.9	
307.04	6138.4	
307.25	4122.6	
307.46	4046.8	
307.67	4640	
307.88	5995.8	
308.09	3538.9	
308.29	3796.3	
308.5	5542.5	
308.71	6050.4	
308.92	3994.9	
309.13	3599.6	
309.34	5433.9	
309.55	5383.4	
309.75	4588.1	
309.96	4287.1	
310.17	5855.8	
310.38	5182.7	
310.59	4460.5	
310.8	3501.3	
311.01	5242.1	
311.21	5296	
311.42	3532.1	
311.63	3616.7	
311.84	5188.2	
312.05	5599.1	
312.26	4145.8	
312.46	4523.3	
312.67	5294.7	
312.88	5039.4	
313.09	3590.1	
313.3	3487.7	
313.51	6269.5	
313.71	6694.8	
313.92	3508.2	
314.13	3772.4	
314.34	5666.7	
314.55	5363.6	
314.76	4595	
314.96	4053.6	
315.17	5486.5	
315.38	5939.8	
315.59	3622.2	
315.8	3357.3	
316.01	6367.8	
316.21	6393.1	
316.42	3421.5	
316.63	3933.5	
316.84	5343.8	
317.05	6209.4	
317.26	4222.2	
317.46	3834.5	
317.67	5427.8	
317.88	5897.5	
318.09	4526	
318.3	3286.3	
318.5	5154.1	
318.71	5799.8	
318.92	5795.8	
319.13	4188.1	
319.34	5969.8	
319.54	6137.1	
319.75	3335.5	
319.96	3160.7	
320.17	5855.1	
320.38	6087.9	
320.58	3213.3	
320.79	3932.8	
321	6072.9	
321.21	6231.3	
321.42	3917.1	
321.62	3279.5	
321.83	5088.5	
322.04	5489.9	
322.25	3819.5	
322.46	3643.3	
322.66	5621.7	
322.87	5758.9	
323.08	4423.6	
323.29	3525.2	
323.5	6503.7	
323.7	5018.9	
323.91	4945.2	
324.12	4405.9	
324.33	5508.4	
324.53	5795.1	
324.74	4227	
324.95	4412.7	
325.16	4850.3	
325.37	5318.6	
325.57	3603.7	
325.78	3639.9	
325.99	5524.1	
326.2	4935.6	
326.4	5173.9	
326.61	3343	
326.82	5428.5	
327.03	5563	
327.24	5034.6	
327.44	4885.1	
327.65	5740.5	
327.86	4628.4	
328.07	4194.2	
328.27	3425.6	
328.48	6190.3	
328.69	5057.1	
328.9	5205.9	
329.1	3857.7	
329.31	5328.1	
329.52	6303.6	
329.73	3501.3	
329.93	4027.7	
330.14	5468.1	
330.35	5688.6	
330.56	5942.5	
330.76	4474.8	
330.97	5289.9	
331.18	5678.3	
331.39	4024.9	
331.59	3209.2	
331.8	6021	
332.01	6167.1	
332.22	3695.9	
332.42	4208.6	
332.63	5591.6	
332.84	5205.9	
333.05	3977.2	
333.25	3687.7	
333.46	5233.9	
333.67	5497.4	
333.88	3713.6	
334.08	4145.1	
334.29	7320.8	
334.5	6212.2	
334.7	3500	
334.91	5157.5	
335.12	5030.5	
335.33	5877	
335.53	3932.8	
335.74	5928.2	
335.95	5257.8	
336.16	5083.1	
336.36	3936.9	
336.57	4582	
336.78	4975.2	
336.98	6066.8	
337.19	4859.8	
337.4	3924.6	
337.61	6612.2	
337.81	4988.9	
338.02	3692.5	
338.23	4764.3	
338.43	6241.5	
338.64	5158.8	
338.85	3611.3	
339.05	4714.4	
339.26	6333	
339.47	4960.9	
339.68	3616	
339.88	5381.4	
340.09	5700.2	
340.3	5963	
340.5	4190.8	
340.71	3209.2	
340.92	4965	
341.13	6209.4	
341.33	3495.9	
341.54	4242.7	
341.75	5699.5	
341.95	5340.4	
342.16	4013.3	
342.37	4440.7	
342.57	5040.7	
342.78	5419.6	
342.99	4526.7	
343.19	3203	
343.4	5916.6	
343.61	5724.8	
343.81	3800.3	
344.02	3551.2	
344.23	5852.4	
344.43	6227.9	
344.64	4474.1	
344.85	4370.4	
345.06	5771.2	
345.26	6074.3	
345.47	4151.2	
345.68	4859.1	
345.88	4829.1	
346.09	5940.5	
346.3	4277.5	
346.5	3206.4	
346.71	5475.6	
346.92	5188.2	
347.12	3306.1	
347.33	4100	
347.54	6053.8	
347.74	6500.9	
347.95	4117.8	
348.16	3031.7	
348.36	5346.6	
348.57	5010	
348.78	4067.9	
348.98	4406.5	
349.19	5414.8	
349.39	4913.1	
349.6	3281.5	
349.81	3621.5	
350.01	5662	
350.22	5190.2	
350.43	3937.6	
350.63	4812.7	
350.84	5510.4	
351.05	5267.4	
351.25	3646.1	
351.46	3264.5	
351.67	6132.3	
351.87	5132.9	
352.08	3893.2	
352.29	4375.8	
352.49	5902.2	
352.7	6068.1	
352.9	3496.6	
353.11	4401.1	
353.32	6589	
353.52	5212.8	
353.73	3424.9	
353.94	4449.6	
354.14	5770.5	
354.35	5588.9	
354.55	3579.8	
354.76	4027.7	
354.97	5749.3	
355.17	5492.7	
355.38	3370.3	
355.59	4698.7	
355.79	5136.3	
356	5607.3	
356.2	3953.9	
356.41	3446	
356.62	4914.4	
356.82	5377.3	
357.03	4306.9	
357.24	3820.8	
357.44	5182	
357.65	5347.2	
357.85	5100.8	
358.06	3990.8	
358.27	4926	
358.47	5186.8	
358.68	3334.8	
358.88	4173.8	
359.09	5668.8	
359.3	6124.1	
359.5	4945.8	
359.71	4382	
359.91	6575.3	
360.12	5943.9	
360.33	4224.3	
360.53	4710.3	
360.74	5164.3	
360.94	5277.6	
361.15	4441.4	
361.36	3647.4	
361.56	5987.6	
361.77	5380	
361.97	4941.7	
362.18	3864.5	
362.38	6039.5	
362.59	5044.8	
362.8	3610.6	
363	3401.7	
363.21	4846.2	
363.41	5515.2	
363.62	4134.2	
363.83	5132.2	
364.03	5604.6	
364.24	6628.6	
364.44	5253.7	
364.65	5156.8	
364.85	5365	
365.06	5209.3	
365.27	3776.5	
365.47	3785.3	
365.68	6376	
365.88	5338.4	
366.09	4215.4	
366.29	3880.9	
366.5	5636	
366.71	6068.1	
366.91	5229.8	
367.12	4274.8	
367.32	6718	
367.53	5909.1	
367.73	4292.5	
367.94	5267.4	
368.14	5888.6	
368.35	6799.3	
368.56	4308.9	
368.76	3594.2	
368.97	5952.8	
369.17	7643	
369.38	3721.8	
369.58	4074.1	
369.79	4999.8	
369.99	6318	
370.2	5083.7	
370.4	4175.8	
370.61	5688.6	
370.82	6851.1	
371.02	4061.1	
371.23	3327.9	
371.43	4922.6	
371.64	6237.4	
371.84	4075.5	
372.05	5329.5	
372.25	7626	
372.46	6016.9	
372.66	4060.4	
372.87	4033.8	
373.07	6135.7	
373.28	7662.8	
373.48	5128.8	
373.69	4819.6	
373.9	5515.2	
374.1	5578	
374.31	5034.6	
374.51	4568.3	
374.72	6380.8	
374.92	5222.3	
375.13	5223	
375.33	4410.6	
375.54	5968.5	
375.74	5357.5	
375.95	4495.3	
376.15	5756.8	
376.36	6024.4	
376.56	5737	
376.77	4552	
376.97	5038.7	
377.18	7055.9	
377.38	6066.1	
377.59	5371.1	
377.79	3979.2	
378	5869.5	
378.2	6305.7	
378.41	4140.3	
378.61	4046.1	
378.82	6348	
379.02	5406	
379.23	4252.9	
379.43	5492	
379.64	6391	
379.84	6085.9	
380.05	4153.3	
380.25	4022.9	
380.46	6106.4	
380.66	5689.9	
380.87	5482.4	
381.07	5855.1	
381.28	6771.3	
381.48	6122.7	
381.69	4133.5	
381.89	4190.1	
382.1	5082.4	
382.3	6323.4	
382.51	5291.3	
382.71	6235.4	
382.91	6193.1	
383.12	6696.9	
383.32	4591.5	
383.53	4680.3	
383.73	5963.7	
383.94	5803.9	
384.14	4598.4	
384.35	3772.4	
384.55	5694.7	
384.76	6120.7	
384.96	4487.1	
385.17	4847.5	
385.37	6191.7	
385.58	5369.1	
385.78	4855.1	
385.98	3678.8	
386.19	5620.3	
386.39	6044.9	
386.6	4354	
386.8	4522.6	
387.01	6192.4	
387.21	6231.3	
387.42	4960.2	
387.62	5615.5	
387.83	5528.2	
388.03	6140.5	
388.23	4643.4	
388.44	5485.1	
388.64	5272.2	
388.85	5403.2	
389.05	5048.2	
389.26	5627.1	
389.46	7221.8	
389.67	6622.4	
389.87	4955.4	
390.07	5020.3	
390.28	5868.8	
390.48	5421.7	
390.69	4199	
390.89	4534.9	
391.1	5649	
391.3	6585.6	
391.5	5783.5	
391.71	6351.4	
391.91	6322.1	
392.12	7357.7	
392.32	5822.4	
392.53	5005.2	
392.73	5677.7	
392.93	5862.7	
393.14	4657.1	
393.34	5454.4	
393.55	6402.6	
393.75	5887.2	
393.95	4693.3	
394.16	4612.7	
394.36	5599.1	
394.57	6365.8	
394.77	4095.9	
394.98	4640.7	
395.18	5636	
395.38	5824.4	
395.59	5584.8	
395.79	4481	
396	5813.5	
396.2	6303.6	
396.4	5358.2	
396.61	5308.3	
396.81	6512.5	
397.02	5780.1	
397.22	5559.6	
397.42	5663.3	
397.63	6419.7	
397.83	5724.8	
398.04	4454.3	
398.24	4957.4	
398.44	6303	
398.65	5360.9	
398.85	4310.3	
399.05	4423.6	
399.26	5802.6	
399.46	7525.6	
399.67	4902.8	
399.87	4577.9	
400.07	6179.4	
400.28	6497.5	
400.48	4686.4	
400.69	5808	
400.89	6850.5	
401.09	7202	
401.3	4567.7	
401.5	5698.8	
401.7	7420.5	
401.91	7645.8	
402.11	4898.1	
402.32	5120.6	
402.52	6649.8	
402.72	6571.2	
402.93	5257.8	
403.13	4091.2	
403.33	7327.6	
403.54	6101.6	
403.74	4977.9	
403.94	5939.1	
404.15	6282.5	
404.35	7405.5	
404.56	4859.1	
404.76	6751.5	
404.96	6700.3	
405.17	6522.8	
405.37	5784.1	
405.57	5353.4	
405.78	6718	
405.98	6233.3	
406.18	4840.7	
406.39	5779.4	
406.59	6740.5	
406.79	6315.3	
407	4700.8	
407.2	4804.5	
407.4	6839.5	
407.61	7026.6	
407.81	4828.4	
408.01	7020.4	
408.22	5895.4	
408.42	8014.4	
408.62	6095.4	
408.83	5578	
409.03	6586.3	
409.23	6392.4	
409.44	5693.4	
409.64	5946.6	
409.84	7546.1	
410.05	7484	
410.25	5801.9	
410.45	5587.5	
410.66	7035.5	
410.86	9491	
411.06	6139.8	
411.27	5963	
411.47	9322.4	
411.67	7257.3	
411.88	6210.8	
412.08	6490.7	
412.28	7878.5	
412.49	8427.4	
412.69	6105	
412.89	6092.7	
413.09	8233.5	
413.3	8097	
413.5	6177.4	
413.7	5896.8	
413.91	7349.5	
414.11	8348.9	
414.31	6027.2	
414.52	6520	
414.72	7942	
414.92	7817.1	
415.12	6048.3	
415.33	6617.7	
415.53	8251.9	
415.73	8463.6	
415.94	6952.2	
416.14	6402	
416.34	7280.5	
416.55	6891.4	
416.75	7761.1	
416.95	7065.5	
417.15	8387.8	
417.36	9077.3	
417.56	8004.1	
417.76	6937.8	
417.97	8804.9	
418.17	8468.4	
418.37	6457.9	
418.57	6599.9	
418.78	8163.9	
418.98	7787.1	
419.18	7406.8	
419.38	7351.5	
419.59	7890.1	
419.79	7474.4	
419.99	6412.2	
420.2	6911.9	
420.4	8463.6	
420.6	8590.5	
420.8	6350.8	
421.01	6180.1	
421.21	8176.2	
421.41	8425.3	
421.61	6748.7	
421.82	6375.3	
422.02	7692.9	
422.22	8680.7	
422.42	7299.6	
422.63	6888.7	
422.83	7838.9	
423.03	9081.4	
423.23	6946	
423.44	5827.8	
423.64	7907.9	
423.84	7650.5	
424.04	6340.5	
424.25	5978.7	
424.45	8861.6	
424.65	8811	
424.85	5729.5	
425.06	6378.1	
425.26	8709.3	
425.46	7780.9	
425.66	6845	
425.87	6420.4	
426.07	8497.7	
426.27	8329.1	
426.47	6757.6	
426.67	6052.4	
426.88	8809	
427.08	8279.3	
427.28	6968.6	
427.48	6007.4	
427.69	7137.2	
427.89	7905.2	
428.09	7021.8	
428.29	6082.5	
428.5	8587.1	
428.7	8036.2	
428.9	5993	
429.1	6589	
429.3	7999.4	
429.51	8546.2	
429.71	6364.4	
429.91	7159.7	
430.11	8427.4	
430.31	8658.8	
430.52	6593.8	
430.72	6886	
430.92	8916.9	
431.12	8417.2	
431.32	6418.3	
431.53	6698.2	
431.73	7336.5	
431.93	9119.6	
432.13	6296.1	
432.33	6135.7	
432.54	7957	
432.74	8317.5	
432.94	6126.8	
433.14	7221.8	
433.34	8363.9	
433.55	7974.1	
433.75	7126.2	
433.95	8925	
434.15	8271.1	
434.35	7937.2	
434.56	6396.5	
434.76	5896.1	
434.96	8264.9	
435.16	8612.4	
435.36	6305	
435.56	7483.3	
435.77	7983.7	
435.97	8247.2	
436.17	8193.9	
436.37	7455.3	
436.57	7965.2	
436.78	7948.2	
436.98	9151	
437.18	7937.2	
437.38	8701.8	
437.58	8107.2	
437.78	8060.8	
437.99	6566.5	
438.19	8517.5	
438.39	9490.3	
438.59	6625.9	
438.79	6114.6	
438.99	9394	
439.2	8220.5	
439.4	6326.2	
439.6	6285.9	
439.8	8580.3	
440	9835.7	
440.2	7556.3	
440.4	7606.2	
440.61	9005.6	
440.81	9628.9	
441.01	6720.1	
441.21	7708.6	
441.41	9550.4	
441.61	9106.6	
441.81	8002.8	
442.02	9013.1	
442.22	10060	
442.42	9303.9	
442.62	6862.7	
442.82	6761.7	
443.02	9510.8	
443.22	8689.5	
443.43	7344	
443.63	6969.9	
443.83	8455.4	
444.03	8551.6	
444.23	8259.5	
444.43	7708.6	
444.63	8773.5	
444.83	10066	
445.04	6946	
445.24	8297.7	
445.44	9106.6	
445.64	9324.4	
445.84	7667.6	
446.04	7735.2	
446.24	8467	
446.44	9625.5	
446.65	6821.1	
446.85	7327.6	
447.05	8514.1	
447.25	9516.2	
447.45	7485.3	
447.65	6705	
447.85	8781.7	
448.05	8431.5	
448.25	7952.9	
448.46	7692.9	
448.66	8873.2	
448.86	8500.4	
449.06	6671.6	
449.26	7904.5	
449.46	9272.5	
449.66	8228.7	
449.86	7475.8	
450.06	7446.4	
450.26	8468.4	
450.47	9178.3	
450.67	7633.5	
450.87	8004.1	
451.07	9192.6	
451.27	9030.2	
451.47	7032	
451.67	7587.7	
451.87	8727.1	
452.07	9747	
452.27	7302.4	
452.47	7279.2	
452.67	8950.3	
452.88	9549	
453.08	6507.8	
453.28	8667.7	
453.48	10306	
453.68	8923.7	
453.88	7172.7	
454.08	7518.8	
454.28	9465	
454.48	9037	
454.68	8030.1	
454.88	8643.8	
455.08	9561.3	
455.28	9385.2	
455.48	7012.9	
455.68	7875.8	
455.89	10148	
456.09	9807	
456.29	7613.7	
456.49	7708.6	
456.69	10010	
456.89	9282.8	
457.09	8231.5	
457.29	8672.5	
457.49	9773.6	
457.69	9901.9	
457.89	8200.1	
458.09	7477.8	
458.29	9607.7	
458.49	10262	
458.69	8609.7	
458.89	8097.7	
459.09	10479	
459.29	10660	
459.49	8113.4	
459.69	8979.7	
459.9	10014	
460.1	9697.1	
460.3	8011	
460.5	7781.6	
460.7	10090	
460.9	9906	
461.1	7507.9	
461.3	8914.1	
461.5	10865	
461.7	10458	
461.9	8193.9	
462.1	8576.2	
462.3	10127	
462.5	10737	
462.7	8243.8	
462.9	8422.6	
463.1	11739	
463.3	11527	
463.5	8557.8	
463.7	9662.3	
463.9	10456	
464.1	10801	
464.3	8918.2	
464.5	9047.9	
464.7	11015	
464.9	10856	
465.1	10509	
465.3	9512.8	
465.5	11482	
465.7	11442	
465.9	9817.3	
466.1	9605.7	
466.3	11494	
466.5	11055	
466.7	10703	
466.9	9417.2	
467.1	11191	
467.3	12202	
467.5	10689	
467.7	9484.1	
467.9	12298	
468.1	13424	
468.3	10271	
468.5	10715	
468.7	11196	
468.9	11303	
469.1	9799.5	
469.3	10467	
469.5	13280	
469.7	10879	
469.9	10106	
470.1	9639.1	
470.3	11261	
470.5	11269	
470.7	10903	
470.9	9607.7	
471.1	11117	
471.3	11510	
471.5	9551	
471.69	11570	
471.89	10763	
472.09	10352	
472.29	10284	
472.49	10570	
472.69	10636	
472.89	11430	
473.09	9336	
473.29	9429.5	
473.49	10830	
473.69	10821	
473.89	10484	
474.09	9599.5	
474.29	12225	
474.49	11913	
474.69	10495	
474.89	9721.7	
475.09	10977	
475.29	10899	
475.49	9086.2	
475.69	9385.8	
475.88	12470	
476.08	11176	
476.28	9105.3	
476.48	9539.4	
476.68	11619	
476.88	11478	
477.08	9182.4	
477.28	9646.6	
477.48	10926	
477.68	11643	
477.88	9120.3	
478.08	9500.5	
478.28	12037	
478.48	11166	
478.67	9627.5	
478.87	8895.7	
479.07	11946	
479.27	11192	
479.47	9821.4	
479.67	9816.6	
479.87	11640	
480.07	12206	
480.27	9112.8	
480.47	10815	
480.67	11373	
480.87	11973	
481.06	9258.9	
481.26	10170	
481.46	11219	
481.66	11129	
481.86	9802.9	
482.06	10972	
482.26	10892	
482.46	11888	
482.66	9766.1	
482.86	9389.9	
483.05	11441	
483.25	10836	
483.45	12440	
483.65	9835.7	
483.85	10942	
484.05	11323	
484.25	10275	
484.45	10914	
484.65	12260	
484.84	12371	
485.04	9822.7	
485.24	9842.5	
485.44	12595	
485.64	10930	
485.84	9141.4	
486.04	10681	
486.24	11308	
486.44	11744	
486.63	9262.3	
486.83	10086	
487.03	11342	
487.23	11567	
487.43	9422	
487.63	11934	
487.83	11720	
488.02	12677	
488.22	10530	
488.42	11250	
488.62	12476	
488.82	11433	
489.02	10062	
489.22	10219	
489.41	12292	
489.61	12071	
489.81	9893.1	
490.01	10010	
490.21	12313	
490.41	13002	
490.61	9867.1	
490.8	9777	
491	11749	
491.2	11026	
491.4	10499	
491.6	9527.8	
491.8	11728	
491.99	11920	
492.19	9583.8	
492.39	9909.4	
492.59	12572	
492.79	12551	
492.99	10973	
493.18	10046	
493.38	12676	
493.58	13510	
493.78	11023	
493.98	10539	
494.18	12484	
494.37	12058	
494.57	11400	
494.77	11296	
494.97	12981	
495.17	13339	
495.37	10886	
495.56	11198	
495.76	13433	
495.96	13083	
496.16	12154	
496.36	11161	
496.55	13254	
496.75	12942	
496.95	11456	
497.15	11327	
497.35	13268	
497.54	13422	
497.74	11162	
497.94	12938	
498.14	14134	
498.34	14049	
498.53	11027	
498.73	11980	
498.93	12798	
499.13	13497	
499.33	11650	
499.52	12197	
499.72	13409	
499.92	13806	
500.12	11305	
500.32	11712	
500.51	13775	
500.71	13658	
500.91	12517	
501.11	12207	
501.31	13862	
501.5	14079	
501.7	12751	
501.9	11679	
502.1	13409	
502.29	13747	
502.49	12237	
502.69	12682	
502.89	13685	
503.09	13596	
503.28	11052	
503.48	11079	
503.68	12615	
503.88	12837	
504.07	12181	
504.27	11586	
504.47	13168	
504.67	13220	
504.86	11944	
505.06	11729	
505.26	12765	
505.46	14531	
505.65	11463	
505.85	11727	
506.05	12579	
506.25	12992	
506.44	10725	
506.64	11729	
506.84	12423	
507.04	13374	
507.23	10875	
507.43	11568	
507.63	14431	
507.83	12618	
508.02	11250	
508.22	11073	
508.42	14600	
508.62	12370	
508.81	11295	
509.01	12015	
509.21	12258	
509.4	12641	
509.6	11585	
509.8	11100	
510	12543	
510.19	14158	
510.39	10941	
510.59	10959	
510.79	12356	
510.98	13861	
511.18	11044	
511.38	11162	
511.57	13186	
511.77	13219	
511.97	11697	
512.17	10758	
512.36	13145	
512.56	13170	
512.76	10894	
512.95	10613	
513.15	13400	
513.35	12045	
513.55	11807	
513.74	11041	
513.94	13322	
514.14	12646	
514.33	11992	
514.53	11775	
514.73	12631	
514.92	12820	
515.12	11340	
515.32	11078	
515.51	13079	
515.71	13583	
515.91	13105	
516.11	11224	
516.3	14896	
516.5	12586	
516.7	11580	
516.89	12293	
517.09	12670	
517.29	12563	
517.48	12052	
517.68	11300	
517.88	12357	
518.07	13067	
518.27	11925	
518.47	10978	
518.66	13766	
518.86	12302	
519.06	10733	
519.25	11289	
519.45	12536	
519.65	14209	
519.84	11770	
520.04	12698	
520.24	14549	
520.43	13121	
520.63	11438	
520.83	11225	
521.02	12304	
521.22	13025	
521.42	11797	
521.61	12254	
521.81	12695	
522.01	12884	
522.2	11715	
522.4	11542	
522.6	13401	
522.79	12282	
522.99	11700	
523.18	11069	
523.38	13494	
523.58	13426	
523.77	13241	
523.97	11241	
524.17	15317	
524.36	14296	
524.56	12816	
524.76	12388	
524.95	13725	
525.15	13222	
525.34	12119	
525.54	12247	
525.74	13999	
525.93	12926	
526.13	13487	
526.33	12123	
526.52	14415	
526.72	14003	
526.91	13438	
527.11	12859	
527.31	14612	
527.5	15061	
527.7	12800	
527.89	11861	
528.09	13582	
528.29	14292	
528.48	13219	
528.68	12890	
528.87	14452	
529.07	14442	
529.27	12523	
529.46	11956	
529.66	13914	
529.85	14416	
530.05	11854	
530.25	12663	
530.44	15484	
530.64	14033	
530.83	12447	
531.03	12785	
531.23	14550	
531.42	14441	
531.62	13720	
531.81	12851	
532.01	14857	
532.21	15350	
532.4	12854	
532.6	13134	
532.79	15694	
532.99	15069	
533.18	13186	
533.38	14308	
533.58	14681	
533.77	15344	
533.97	13204	
534.16	14231	
534.36	15773	
534.55	14764	
534.75	14272	
534.95	13248	
535.14	15459	
535.34	14729	
535.53	12837	
535.73	14891	
535.92	16061	
536.12	14739	
536.31	13026	
536.51	14046	
536.71	15082	
536.9	14738	
537.1	13102	
537.29	13309	
537.49	15466	
537.68	14508	
537.88	13784	
538.07	12926	
538.27	14818	
538.46	16008	
538.66	12755	
538.86	13400	
539.05	14824	
539.25	15358	
539.44	13603	
539.64	13207	
539.83	14721	
540.03	15696	
540.22	12984	
540.42	13054	
540.61	14812	
540.81	15051	
541	13506	
541.2	14217	
541.39	14332	
541.59	14738	
541.78	13860	
541.98	12736	
542.18	14001	
542.37	13979	
542.57	13027	
542.76	13644	
542.96	13808	
543.15	14659	
543.35	13010	
543.54	12338	
543.74	14770	
543.93	14354	
544.13	12950	
544.32	14107	
544.52	14595	
544.71	13865	
544.91	11897	
545.1	13263	
545.3	13895	
545.49	14614	
545.69	12020	
545.88	12499	
546.08	15571	
546.27	15091	
546.47	13050	
546.66	12332	
546.86	14798	
547.05	15372	
547.24	12509	
547.44	12434	
547.63	13548	
547.83	14921	
548.02	12719	
548.22	12962	
548.41	13371	
548.61	14800	
548.8	12239	
549	12119	
549.19	13941	
549.39	14314	
549.58	11793	
549.78	12405	
549.97	14457	
550.17	13748	
550.36	13279	
550.55	14300	
550.75	13812	
550.94	14715	
551.14	12013	
551.33	12316	
551.53	13178	
551.72	14120	
551.92	12452	
552.11	12165	
552.31	14136	
552.5	14186	
552.69	13917	
552.89	11701	
553.08	14012	
553.28	13724	
553.47	12185	
553.67	13278	
553.86	14682	
554.06	12953	
554.25	11202	
554.44	11862	
554.64	15483	
554.83	14926	
555.03	11764	
555.22	12108	
555.42	14175	
555.61	13833	
555.8	12028	
556	12398	
556.19	12950	
556.39	14201	
556.58	12015	
556.78	12056	
556.97	13747	
557.16	13407	
557.36	13282	
557.55	11518	
557.75	12722	
557.94	14511	
558.13	11727	
558.33	11416	
558.52	14277	
558.72	13038	
558.91	11517	
559.1	11827	
559.3	12695	
559.49	12511	
559.69	11006	
559.88	12202	
560.07	13527	
560.27	13919	
560.46	12382	
560.66	12542	
560.85	13281	
561.04	12453	
561.24	11399	
561.43	11576	
561.63	12802	
561.82	13003	
562.01	12953	
562.21	12044	
562.4	13533	
562.59	14613	
562.79	11867	
562.98	11474	
563.18	13487	
563.37	14902	
563.56	12351	
563.76	11376	
563.95	12947	
564.14	12914	
564.34	11877	
564.53	11575	
564.73	13519	
564.92	13894	
565.11	11997	
565.31	11484	
565.5	14141	
565.69	13075	
565.89	11627	
566.08	11940	
566.27	13997	
566.47	14441	
566.66	12600	
566.85	11176	
567.05	13693	
567.24	12919	
567.44	11630	
567.63	13005	
567.82	13845	
568.02	13526	
568.21	11505	
568.4	11994	
568.6	13502	
568.79	13540	
568.98	11416	
569.18	11627	
569.37	13513	
569.56	15634	
569.76	11956	
569.95	12914	
570.14	13898	
570.34	13869	
570.53	11482	
570.72	11528	
570.91	14228	
571.11	13415	
571.3	11885	
571.49	12947	
571.69	13449	
571.88	13035	
572.07	12448	
572.27	12446	
572.46	13105	
572.65	14029	
572.85	11659	
573.04	12157	
573.23	14349	
573.43	13709	
573.62	11610	
573.81	12299	
574	13691	
574.2	13577	
574.39	12003	
574.58	12205	
574.78	14642	
574.97	13826	
575.16	12596	
575.36	12837	
575.55	14386	
575.74	14505	
575.93	11588	
576.13	12882	
576.32	13620	
576.51	14317	
576.71	12035	
576.9	13589	
577.09	14584	
577.28	14083	
577.48	12646	
577.67	11649	
577.86	13719	
578.05	14083	
578.25	12374	
578.44	12425	
578.63	13873	
578.83	15143	
579.02	11740	
579.21	13274	
579.4	14157	
579.6	13844	
579.79	12439	
579.98	14831	
580.17	14558	
580.37	14732	
580.56	12011	
580.75	12796	
580.94	15115	
581.14	14820	
581.33	13329	
581.52	12200	
581.71	14530	
581.91	15079	
582.1	11927	
582.29	12615	
582.48	14108	
582.68	14061	
582.87	13193	
583.06	12713	
583.25	14432	
583.45	13838	
583.64	13448	
583.83	14154	
584.02	13905	
584.21	14381	
584.41	13375	
584.6	12594	
584.79	14141	
584.98	14979	
585.18	12110	
585.37	11985	
585.56	13588	
585.75	14574	
585.94	12093	
586.14	13005	
586.33	14950	
586.52	13934	
586.71	12580	
586.91	12264	
587.1	13283	
587.29	14577	
587.48	12194	
587.67	12116	
587.87	14229	
588.06	14103	
588.25	13402	
588.44	12719	
588.63	13405	
588.83	14065	
589.02	11671	
589.21	11523	
589.4	12957	
589.59	12881	
589.78	10436	
589.98	10701	
590.17	12126	
590.36	12772	
590.55	9854.8	
590.74	10800	
590.94	14122	
591.13	12587	
591.32	10740	
591.51	10196	
591.7	13149	
591.89	12509	
592.09	10424	
592.28	10806	
592.47	11813	
592.66	13807	
592.85	10413	
593.05	10687	
593.24	12544	
593.43	13206	
593.62	10729	
593.81	11308	
594	12536	
594.19	12745	
594.39	10645	
594.58	10473	
594.77	12767	
594.96	13310	
595.15	10434	
595.34	11195	
595.54	12694	
595.73	11715	
595.92	9824.1	
596.11	10862	
596.3	13317	
596.49	11888	
596.68	10679	
596.88	11258	
597.07	13170	
597.26	11693	
597.45	10216	
597.64	11516	
597.83	12084	
598.02	12723	
598.22	10229	
598.41	11097	
598.6	12461	
598.79	12039	
598.98	10440	
599.17	11400	
599.36	12527	
599.55	13655	
599.74	12482	
599.94	12351	
600.13	12924	
600.32	11827	
600.51	10212	
600.7	10297	
600.89	13733	
601.08	13909	
601.27	10071	
601.47	11252	
601.66	13001	
601.85	13695	
602.04	10806	
602.23	10805	
602.42	11972	
602.61	12648	
602.8	10649	
602.99	10506	
603.18	12374	
603.37	12670	
603.57	11101	
603.76	11711	
603.95	13340	
604.14	12889	
604.33	10577	
604.52	10914	
604.71	12613	
604.9	12196	
605.09	11524	
605.28	11307	
605.47	13241	
605.66	12838	
605.86	11108	
606.05	10534	
606.24	13142	
606.43	11601	
606.62	10843	
606.81	11598	
607	12956	
607.19	12279	
607.38	10285	
607.57	10525	
607.76	12095	
607.95	11519	
608.14	10944	
608.33	11616	
608.52	11944	
608.72	12962	
608.91	10187	
609.1	10021	
609.29	12094	
609.48	11580	
609.67	11002	
609.86	10107	
610.05	11658	
610.24	12079	
610.43	9893.7	
610.62	9525.1	
610.81	13160	
611	12876	
611.19	10038	
611.38	10774	
611.57	12265	
611.76	13700	
611.95	9768.1	
612.14	9720.3	
612.33	12120	
612.52	11712	
612.71	10456	
612.9	9533.3	
613.09	11092	
613.28	13680	
613.47	10165	
613.66	10972	
613.85	12226	
614.04	11758	
614.24	10185	
614.43	9371.5	
614.62	12372	
614.81	12252	
615	10777	
615.19	10775	
615.38	11511	
615.57	12020	
615.76	10595	
615.95	11637	
616.14	12399	
616.33	11905	
616.52	10857	
616.71	11260	
616.9	12452	
617.09	12136	
617.28	10365	
617.47	11661	
617.66	11559	
617.85	11512	
618.04	11410	
618.22	10716	
618.41	11952	
618.6	12850	
618.79	10770	
618.98	10342	
619.17	13261	
619.36	11537	
619.55	10620	
619.74	10694	
619.93	12474	
620.12	11985	
620.31	11155	
620.5	11557	
620.69	13084	
620.88	13551	
621.07	12290	
621.26	11174	
621.45	12832	
621.64	12697	
621.83	11344	
622.02	10488	
622.21	12796	
622.4	12521	
622.59	11839	
622.78	11684	
622.97	12143	
623.16	13268	
623.35	11297	
623.54	10414	
623.72	12385	
623.91	12596	
624.1	11450	
624.29	10198	
624.48	13708	
624.67	12698	
624.86	11409	
625.05	10460	
625.24	13795	
625.43	12060	
625.62	13201	
625.81	10686	
626	13209	
626.19	12350	
626.38	11451	
626.56	10808	
626.75	12140	
626.94	13005	
627.13	11378	
627.32	10094	
627.51	12690	
627.7	14154	
627.89	10249	
628.08	11360	
628.27	11899	
628.46	12203	
628.65	10385	
628.83	10206	
629.02	12639	
629.21	11897	
629.4	11007	
629.59	11269	
629.78	11920	
629.97	13031	
630.16	11360	
630.35	10658	
630.54	13343	
630.72	13138	
630.91	10701	
631.1	11301	
631.29	12549	
631.48	12846	
631.67	11377	
631.86	10796	
632.05	12086	
632.24	12297	
632.42	10435	
632.61	11090	
632.8	12353	
632.99	11964	
633.18	11169	
633.37	11424	
633.56	12504	
633.75	12410	
633.93	11067	
634.12	10705	
634.31	13362	
634.5	13028	
634.69	10860	
634.88	11309	
635.07	12375	
635.25	12973	
635.44	11638	
635.63	11905	
635.82	12203	
636.01	11710	
636.2	11544	
636.39	11146	
636.57	13317	
636.76	13008	
636.95	10588	
637.14	12027	
637.33	12622	
637.52	13650	
637.7	10281	
637.89	11293	
638.08	12335	
638.27	13747	
638.46	11370	
638.65	11770	
638.83	13580	
639.02	11940	
639.21	11208	
639.4	11607	
639.59	12331	
639.78	11942	
639.96	10356	
640.15	10408	
640.34	12174	
640.53	12375	
640.72	10039	
640.91	10368	
641.09	11576	
641.28	13033	
641.47	10444	
641.66	11258	
641.85	12282	
642.03	12437	
642.22	10981	
642.41	10484	
642.6	11700	
642.79	11054	
642.97	10100	
643.16	10920	
643.35	11541	
643.54	11269	
643.73	9985.2	
643.91	10827	
644.1	11016	
644.29	11754	
644.48	10030	
644.67	10087	
644.85	11249	
645.04	11432	
645.23	9430.9	
645.42	9671.9	
645.6	10826	
645.79	12077	
645.98	9585.9	
646.17	8510	
646.36	10511	
646.54	11025	
646.73	10124	
646.92	9060.9	
647.11	10544	
647.29	11714	
647.48	9040.4	
647.67	8708.6	
647.86	11873	
648.05	12096	
648.23	9434.3	
648.42	10696	
648.61	11427	
648.8	11161	
648.98	9032.2	
649.17	9271.8	
649.36	10650	
649.55	10223	
649.73	9181	
649.92	9893.7	
650.11	10512	
650.3	10823	
650.48	9260.2	
650.67	9078.6	
650.86	11189	
651.05	9961.3	
651.23	9153.1	
651.42	9108.7	
651.61	10548	
651.79	10720	
651.98	9305.3	
652.17	8959.9	
652.36	10934	
652.54	10014	
652.73	8856.1	
652.92	8720.3	
653.11	10930	
653.29	10926	
653.48	8044.4	
653.67	9115.5	
653.85	10688	
654.04	11682	
654.23	9243.2	
654.42	8715.5	
654.6	9872.6	
654.79	10546	
654.98	8127.7	
655.16	8628.8	
655.35	9450	
655.54	9456.2	
655.73	8234.2	
655.91	8050.6	
656.1	10712	
656.29	9482.8	
656.47	7798	
656.66	9619.3	
656.85	9899.9	
657.03	10009	
657.22	8406.9	
657.41	8538	
657.59	10066	
657.78	9800.2	
657.97	8127.7	
658.16	8862.9	
658.34	10608	
658.53	11109	
658.72	9802.9	
658.9	10411	
659.09	10067	
659.28	10229	
659.46	8694.3	
659.65	8649.3	
659.84	9906	
660.02	10576	
660.21	8481.3	
660.4	8495	
660.58	10903	
660.77	10292	
660.96	9078	
661.14	8055.3	
661.33	11396	
661.52	11308	
661.7	8049.2	
661.89	11797	
662.08	9846	
662.26	9394.7	
662.45	8286.8	
662.64	8456.7	
662.82	10495	
663.01	9720.3	
663.2	8406.9	
663.38	9342.2	
663.57	10366	
663.75	10228	
663.94	8768.7	
664.13	10103	
664.31	9717.6	
664.5	10445	
664.69	8842.4	
664.87	9540.8	
665.06	9482.8	
665.25	10259	
665.43	9735.4	
665.62	9985.9	
665.8	10589	
665.99	9814.5	
666.18	8691.6	
666.36	8806.3	
666.55	10523	
666.74	10478	
666.92	8290.2	
667.11	9972.9	
667.29	9888.3	
667.48	10465	
667.67	9567.4	
667.85	8649.3	
668.04	9893.7	
668.22	9898.5	
668.41	8695	
668.6	8845.2	
668.78	9664.4	
668.97	9867.1	
669.15	9036.3	
669.34	7974.8	
669.53	9636.4	
669.71	10044	
669.9	8093.6	
670.08	8898.4	
670.27	9719.7	
670.46	10200	
670.64	8974.9	
670.83	9349.7	
671.01	9486.2	
671.2	10150	
671.38	8226.7	
671.57	8085.4	
671.76	10701	
671.94	11376	
672.13	8064.2	
672.31	9095	
672.5	10471	
672.69	9635	
672.87	8217.1	
673.06	8604.9	
673.24	10183	
673.43	9778.4	
673.61	9061.6	
673.8	8530.5	
673.98	10329	
674.17	10565	
674.36	9040.4	
674.54	9003.6	
674.73	10063	
674.91	10372	
675.1	8763.3	
675.28	8320.2	
675.47	9894.4	
675.65	10427	
675.84	8501.1	
676.03	8867	
676.21	9633	
676.4	9183.1	
676.58	9222.7	
676.77	9073.9	
676.95	11153	
677.14	9501.9	
677.32	8110.6	
677.51	7923.6	
677.69	10361	
677.88	9135.3	
678.06	8054	
678.25	8056	
678.44	9863.7	
678.62	9568.1	
678.81	7881.9	
678.99	8938.7	
679.18	10605	
679.36	10243	
679.55	8364.6	
679.73	9110	
679.92	10167	
680.1	9491.7	
680.29	9731.3	
680.47	8399.4	
680.66	9512.8	
680.84	10400	
681.03	7660.1	
681.21	8857.5	
681.4	9576.3	
681.58	9366	
681.77	8143.4	
681.95	8101.1	
682.14	10355	
682.32	10639	
682.51	9055.4	
682.69	7821.9	
682.88	9375.6	
683.06	10044	
683.25	8709.3	
683.43	9161.2	
683.62	9622	
683.8	10083	
683.99	9099.1	
684.17	8398.7	
684.36	10628	
684.54	9245.2	
684.73	7333.1	
684.91	7374.7	
685.1	9459.6	
685.28	8800.1	
685.46	7989.1	
685.65	7993.2	
685.83	9624.8	
686.02	9015.8	
686.2	7533.8	
686.39	7666.9	
686.57	8734.6	
686.76	10318	
686.94	7600.7	
687.13	7769.3	
687.31	9566.7	
687.5	9176.3	
687.68	7230	
687.86	8491.6	
688.05	10842	
688.23	8661.5	
688.42	8521.6	
688.6	7775.5	
688.79	9158.5	
688.97	9145.5	
689.16	8243.8	
689.34	7119.4	
689.52	9785.2	
689.71	10174	
689.89	8510	
690.08	7714	
690.26	9361.9	
690.45	9222	
690.63	8531.2	
690.81	7880.6	
691	8925.7	
691.18	8979.7	
691.37	7926.3	
691.55	10265	
691.74	8848.6	
691.92	10938	
692.1	7864.9	
692.29	7343.3	
692.47	9092.3	
692.66	8350.3	
692.84	7539.3	
693.02	8271.7	
693.21	8561.9	
693.39	9078	
693.58	8333.9	
693.76	7886	
693.94	10414	
694.13	10278	
694.31	7828	
694.5	9028.8	
694.68	9079.3	
694.86	9496.4	
695.05	8217.8	
695.23	8361.9	
695.42	9907.4	
695.6	12345	
695.78	8850	
695.97	7887.4	
696.15	9863	
696.34	9232.2	
696.52	7574.1	
696.7	8441	
696.89	9445.9	
697.07	8854.1	
697.25	8327	
697.44	9905.3	
697.62	9372.9	
697.81	9859.6	
697.99	7918.8	
698.17	8523	
698.36	8615.8	
698.54	9392.7	
698.72	8314.1	
698.91	7208.2	
699.09	8987.9	
699.28	8845.9	
699.46	7878.5	
699.64	7776.1	
699.83	8725.7	
700.01	10017	
700.19	8529.8	
700.38	7060.7	
700.56	10170	
700.74	8956.5	
700.93	7408.9	
701.11	8406.9	
701.29	9460.9	
701.48	10578	
701.66	7748.8	
701.84	7759.8	
702.03	9113.5	
702.21	9787.2	
702.39	7260.7	
702.58	7973.4	
702.76	9534	
702.94	9611.1	
703.13	7329	
703.31	9780.4	
703.49	8660.2	
703.68	9794.1	
703.86	7427.3	
704.04	8505.9	
704.23	9281.4	
704.41	9704	
704.59	7633.5	
704.78	8884.8	
704.96	10397	
705.14	9770.9	
705.33	7473.7	
705.51	8271.1	
705.69	9114.1	
705.87	9942.2	
706.06	8581	
706.24	7456	
706.42	9449.3	
706.61	9723.8	
706.79	8629.5	
706.97	7356.3	
707.16	8914.1	
707.34	9546.3	
707.52	8572.8	
707.7	7575.4	
707.89	9068.4	
708.07	8696.4	
708.25	8534.6	
708.44	8680.7	
708.62	8900.5	
708.8	10051	
708.98	8673.1	
709.17	7670.3	
709.35	9263	
709.53	9281.4	
709.72	7354.3	
709.9	7451.2	
710.08	9540.8	
710.26	9609.1	
710.45	8948.9	
710.63	7529	
710.81	9129.2	
710.99	9185.8	
711.18	8241.7	
711.36	7724.9	
711.54	8892.3	
711.72	9563.3	
711.91	7613.7	
712.09	7051.8	
712.27	9070.5	
712.45	9632.3	
712.64	7889.5	
712.82	6797.9	
713	8260.1	
713.18	8404.9	
713.37	6700.3	
713.55	7957.7	
713.73	9041.8	
713.91	7544.7	
714.1	6825.2	
714.28	6275.7	
714.46	8475.9	
714.64	7636.2	
714.83	5563	
715.01	6311.8	
715.19	7611.6	
715.37	6873	
715.55	6031.3	
715.74	6369.9	
715.92	8449.2	
716.1	6431.3	
716.28	7433.4	
716.47	6480.5	
716.65	7147.4	
716.83	7187.7	
717.01	6291.4	
717.19	6318	
717.38	9441.8	
717.56	6942.6	
717.74	6721.4	
717.92	5818.3	
718.1	8335.9	
718.29	7599.3	
718.47	5537.7	
718.65	6313.9	
718.83	8296.3	
719.01	8268.3	
719.2	5479	
719.38	6563.7	
719.56	7939.3	
719.74	9502.6	
719.92	6042.2	
720.11	7208.8	
720.29	7870.3	
720.47	6890	
720.65	5526.8	
720.83	6416.3	
721.02	7225.9	
721.2	6935.8	
721.38	6385.6	
721.56	5663.3	
721.74	6470.2	
721.92	6623.8	
722.11	6877.1	
722.29	6581.5	
722.47	7916.1	
722.65	7084.6	
722.83	5596.4	
723.01	6610.8	
723.2	7120.8	
723.38	7453.9	
723.56	5050.3	
723.74	6313.2	
723.92	6643.6	
724.1	7841	
724.29	5655.8	
724.47	6700.3	
724.65	6640.9	
724.83	6585.6	
725.01	5389.6	
725.19	6341.9	
725.37	6671.6	
725.56	6827.9	
725.74	5281.7	
725.92	5562.3	
726.1	6626.5	
726.28	6829.3	
726.46	5944.6	
726.64	5681.1	
726.83	6925.5	
727.01	7146.7	
727.19	5223.7	
727.37	6167.8	
727.55	6914.6	
727.73	7534.5	
727.91	5231.2	
728.09	5103.5	
728.28	7636.2	
728.46	8303.8	
728.64	6361	
728.82	6174.6	
729	8795.3	
729.18	8103.1	
729.36	5499.5	
729.54	7902.4	
729.72	9117.6	
729.91	7421.8	
730.09	7617.1	
730.27	6363.7	
730.45	7344	
730.63	7977.5	
730.81	7002	
730.99	6004.6	
731.17	8606.2	
731.35	7119.4	
731.53	6488	
731.71	6051.1	
731.9	8209.6	
732.08	8500.4	
732.26	6332.3	
732.44	6012.2	
732.62	8496.3	
732.8	7861.5	
732.98	6739.9	
733.16	5772.5	
733.34	7854.6	
733.52	6669.6	
733.7	6248.4	
733.88	6589	
734.07	7765.2	
734.25	7512.6	
734.43	5748	
734.61	7407.5	
734.79	9052	
734.97	7335.1	
735.15	5849	
735.33	6240.8	
735.51	7716.7	
735.69	7455.3	
735.87	7546.1	
736.05	6454.5	
736.23	7575.4	
736.41	7419.1	
736.59	6220.4	
736.77	6440.9	
736.95	8021.9	
737.13	7532.4	
737.32	5902.2	
737.5	6162.3	
737.68	8699.1	
737.86	7320.1	
738.04	5763	
738.22	7686.7	
738.4	7090.1	
738.58	7428	
738.76	6428.6	
738.94	5317.9	
739.12	7270.3	
739.3	7207.5	
739.48	6986.3	
739.66	6757.6	
739.84	7602.7	
740.02	7595.9	
740.2	5414.8	
740.38	5831.9	
740.56	7991.2	
740.74	6778.8	
740.92	6503.7	
741.1	6371.2	
741.28	7294.9	
741.46	7234.8	
741.64	6020.3	
741.82	6553.5	
742	7349.5	
742.18	7259.4	
742.36	6163.7	
742.54	5707.7	
742.72	7940.7	
742.9	6653.2	
743.08	6595.8	
743.26	5369.1	
743.44	8135.9	
743.62	8009.6	
743.8	6752.2	
743.98	5789.6	
744.16	7659.4	
744.34	7311.2	
744.52	6679.8	
744.7	6551.5	
744.88	7789.1	
745.06	7275.8	
745.24	6660	
745.42	6707.1	
745.6	7903.8	
745.78	7610.9	
745.96	5339.1	
746.14	5692	
746.32	8609	
746.5	7819.8	
746.68	6308.4	
746.86	5754.1	
747.03	8257.4	
747.21	6543.3	
747.39	6263.4	
747.57	5703.6	
747.75	7370	
747.93	7862.2	
748.11	5660.6	
748.29	5599.1	
748.47	9071.8	
748.65	7060.7	
748.83	6434	
749.01	6150.1	
749.19	7621.2	
749.37	6773.3	
749.55	6010.8	
749.73	6145.3	
749.91	7278.5	
750.09	7000.6	
750.26	6182.1	
750.44	5513.1	
750.62	7312.6	
750.8	7252.5	
750.98	5441.5	
751.16	5763.7	
751.34	7397.9	
751.52	6739.2	
751.7	6564.4	
751.88	5371.1	
752.06	7916.8	
752.24	7552.2	
752.42	5286.5	
752.59	5705.6	
752.77	7272.3	
752.95	8594.6	
753.13	6460	
753.31	5842.9	
753.49	6870.9	
753.67	7336.5	
753.85	6150.7	
754.03	5681.1	
754.21	7645.1	
754.38	7944.1	
754.56	5817.6	
754.74	4754.7	
754.92	6740.5	
755.1	7408.2	
755.28	4644.1	
755.46	4576.5	
755.64	7890.1	
755.82	7892.9	
755.99	4577.9	
756.17	4633.2	
756.35	5094	
756.53	6853.2	
756.71	3422.2	
756.89	4460.5	
757.07	6488.6	
757.25	5485.8	
757.42	5110.4	
757.6	6123.4	
757.78	6614.9	
757.96	5638.1	
758.14	4886.5	
758.32	4342.4	
758.5	5130.8	
758.67	5988.9	
758.85	4611.3	
759.03	4737.6	
759.21	6136.4	
759.39	5544.5	
759.57	4166.3	
759.75	5486.5	
759.92	6782.9	
760.1	6081.1	
760.28	5925.5	
760.46	6098.9	
760.64	5910.4	
760.82	5727.5	
760.99	5594.4	
761.17	4954	
761.35	6875	
761.53	5867.4	
761.71	5103.5	
761.89	5834	
762.06	6904.4	
762.24	6327.5	
762.42	5262.6	
762.6	5109	
762.78	6399.2	
762.96	7049.1	
763.13	5730.2	
763.31	5403.9	
763.49	7274.4	
763.67	6362.4	
763.85	6293.4	
764.02	6930.3	
764.2	7588.4	
764.38	6718	
764.56	5244.8	
764.74	6264.7	
764.91	7684.7	
765.09	6526.2	
765.27	4941.7	
765.45	4792.9	
765.63	7676.5	
765.8	7534.5	
765.98	4508.9	
766.16	4849.6	
766.34	6048.3	
766.52	5867.4	
766.69	5868.1	
766.87	4642.7	
767.05	6457.9	
767.23	7304.4	
767.41	5031.9	
767.58	5194.3	
767.76	7078.5	
767.94	7172	
768.12	5098.8	
768.29	5875.6	
768.47	6505	
768.65	7279.2	
768.83	4601.1	
769	5801.2	
769.18	6027.9	
769.36	6736.5	
769.54	5616.2	
769.72	4628.4	
769.89	7029.3	
770.07	7150.1	
770.25	5001.1	
770.43	6269.5	
770.6	7806.9	
770.78	8295.6	
770.96	5141.8	
771.14	5884.5	
771.31	6886	
771.49	6215.6	
771.67	4227.7	
771.85	4541.7	
772.02	5456.5	
772.2	6225.8	
772.38	5292.6	
772.55	4707.6	
772.73	6457.2	
772.91	6267.5	
773.09	5080.3	
773.26	5145.9	
773.44	6444.3	
773.62	6094.1	
773.8	4610.7	
773.97	4276.2	
774.15	6509.1	
774.33	5984.2	
774.5	4446.8	
774.68	4827.1	
774.86	6626.5	
775.04	6065.4	
775.21	4493.2	
775.39	4475.5	
775.57	6354.8	
775.74	6734.4	
775.92	4321.2	
776.1	4285	
776.27	6331	
776.45	7561.1	
776.63	4510.3	
776.81	3938.2	
776.98	5887.2	
777.16	7042.3	
777.34	4563.6	
777.51	4556.7	
777.69	5857.9	
777.87	5631.9	
778.04	4672.1	
778.22	5335	
778.4	5710.4	
778.57	6327.5	
778.75	3861.1	
778.93	4195.6	
779.1	5432.6	
779.28	5360.2	
779.46	3866.6	
779.64	4417.5	
779.81	6469.5	
779.99	7380.2	
780.17	5113.8	
780.34	5319.3	
780.52	5891.3	
780.69	6113.9	
780.87	4736.3	
781.05	4265.2	
781.22	5913.9	
781.4	6050.4	
781.58	4440.7	
781.75	3457	
781.93	5852.4	
782.11	5344.5	
782.28	5266	
782.46	4328.7	
782.64	5139	
782.81	6182.8	
782.99	4420.2	
783.17	4340.3	
783.34	5925.5	
783.52	5193	
783.69	4649.6	
783.87	5448.3	
784.05	5263.3	
784.22	5289.9	
784.4	5382.1	
784.58	4636.6	
784.75	6220.4	
784.93	5295.4	
785.1	4303.5	
785.28	4975.2	
785.46	5995.8	
785.63	5230.5	
785.81	4268	
785.99	4096.6	
786.16	5385.5	
786.34	5838.1	
786.51	4156.7	
786.69	4544.4	
786.87	4989.5	
787.04	5575.3	
787.22	3946.4	
787.39	4945.2	
787.57	5236	
787.75	6414.9	
787.92	5161.6	
788.1	5116.5	
788.27	5284.4	
788.45	4957.4	
788.63	4792.9	
788.8	3419.4	
788.98	5618.9	
789.15	4900.8	
789.33	3651.5	
789.5	4316.4	
789.68	6215.6	
789.86	6357.6	
790.03	4703.5	
790.21	4065.9	
790.38	6139.8	
790.56	5356.1	
790.73	3952.6	
790.91	3996.3	
791.09	5138.4	
791.26	5989.6	
791.44	4205.8	
791.61	3629.7	
791.79	5158.8	
791.96	5300.8	
792.14	3766.9	
792.32	3321.1	
792.49	5233.9	
792.67	5246.9	
792.84	3817.4	
793.02	3583.3	
793.19	5685.2	
793.37	6404	
793.54	3346.4	
793.72	3634.5	
793.89	6580.1	
794.07	5207.3	
794.25	4332.8	
794.42	3422.8	
794.6	6262	
794.77	5907.7	
794.95	4569	
795.12	3972.4	
795.3	5188.2	
795.47	5886.5	
795.65	4443.4	
795.82	4261.8	
796	4966.3	
796.17	7007.5	
796.35	4108.9	
796.52	4808.6	
796.7	5653.1	
796.87	5812.1	
797.05	5044.1	
797.22	4980	
797.4	5836.7	
797.57	6836.1	
797.75	4186.7	
797.92	3973.1	
798.1	6135.7	
798.27	5173.2	
798.45	3347.1	
798.62	3664.5	
798.8	5510.4	
798.97	5976	
799.15	4457.1	
799.32	4242	
799.5	4698.7	
799.67	5562.3	
799.85	4583.4	
800.02	3353.2	
800.2	5063.9	
800.37	5465.3	
800.55	4760.2	
800.72	4001.7	
800.9	5956.2	
801.07	6434	
801.25	5334.3	
801.42	4369	
801.6	5997.1	
801.77	5723.4	
801.95	3857	
802.12	3820.8	
802.29	5690.6	
802.47	5619.6	
802.64	4351.9	
802.82	3233.7	
802.99	5053	
803.17	6077.7	
803.34	4203.8	
803.52	3777.8	
803.69	6888	
803.87	4885.8	
804.04	4137.6	
804.21	4272.1	
804.39	6244.9	
804.56	5343.2	
804.74	3594.9	
804.91	4331.5	
805.09	5139.7	
805.26	5275.6	
805.44	3611.3	
805.61	4015.4	
805.78	5824.4	
805.96	5831.9	
806.13	4351.9	
806.31	4622.9	
806.48	4674.1	
806.66	5191.6	
806.83	4340.3	
807	4214.7	
807.18	5051	
807.35	5468.1	
807.53	4169.7	
807.7	3366.2	
807.87	6332.3	
808.05	5144.5	
808.22	4617.5	
808.4	3337.5	
808.57	5145.9	
808.74	4756.7	
808.92	3818.1	
809.09	4906.3	
809.27	4969.7	
809.44	5596.4	
809.61	3476.1	
809.79	3793.5	
809.96	6291.4	
810.14	5941.8	
810.31	3336.1	
810.48	4036.5	
810.66	5289.9	
810.83	5938.4	
811.01	3886.4	
811.18	4255	
811.35	5905	
811.53	4532.8	
811.7	4683.7	
811.87	4340.3	
812.05	5115.8	
812.22	5046.2	
812.39	3697.9	
812.57	3607.8	
812.74	5153.4	
812.92	6849.8	
813.09	3985.3	
813.26	4425.7	
813.44	6589.7	
813.61	5068	
813.78	3372.3	
813.96	4506.2	
814.13	5147.2	
814.3	4812.7	
814.48	4879.6	
814.65	4077.5	
814.82	6350.1	
815	4949.9	
815.17	4164.9	
815.34	5041.4	
815.52	5057.1	
815.69	5113.8	
815.87	4121.9	
816.04	3581.2	
816.21	5158.2	
816.38	4501.4	
816.56	4001.7	
816.73	3717.7	
816.9	6526.2	
817.08	5943.2	
817.25	3758.7	
817.42	4738.3	
817.6	4703.5	
817.77	5175.2	
817.94	4261.8	
818.12	3719.1	
818.29	4887.8	
818.46	7686	
818.64	3861.1	
818.81	3621.5	
818.98	4827.1	
819.16	7103	
819.33	4463.9	
819.5	4160.8	
819.67	5491.3	
819.85	6180.1	
820.02	4080.9	
820.19	4278.2	
820.37	5425.1	
820.54	4941.1	
820.71	4227	
820.88	5275.6	
821.06	5399.8	
821.23	4896.7	
821.4	4247.5	
821.58	4158.1	
821.75	5909.1	
821.92	5281.7	
822.09	3338.9	
822.27	3503.4	
822.44	5159.5	
822.61	5085.1	
822.79	3441.3	
822.96	6603.3	
823.13	5658.5	
823.3	4894.6	
823.48	3995.6	
823.65	3590.1	
823.82	5893.4	
823.99	4692.6	
824.17	4996.4	
824.34	3570.3	
824.51	6833.4	
824.68	5251.7	
824.86	3813.3	
825.03	4229.7	
825.2	5101.5	
825.37	6240.2	
825.55	3693.9	
825.72	4176.5	
825.89	6939.9	
826.06	6357.6	
826.24	4063.2	
826.41	4018.1	
826.58	6303.6	
826.75	5478.3	
826.92	3164.8	
827.1	3528	
827.27	8570.1	
827.44	6878.4	
827.61	3835.8	
827.79	4703.5	
827.96	4826.4	
828.13	5268.7	
828.3	3992.2	
828.47	3420.8	
828.65	5360.9	
828.82	5311.1	
828.99	5278.3	
829.16	4564.9	
829.34	5809.4	
829.51	5542.5	
829.68	4162.2	
829.85	4358.1	
830.02	6065.4	
830.2	5883.8	
830.37	3244	
830.54	5021.6	
830.71	6647	
830.88	5069.4	
831.05	3215.3	
831.23	3788.1	
831.4	6352.1	
831.57	7082.6	
831.74	3878.9	
831.91	3398.9	
832.09	5333.6	
832.26	5691.3	
832.43	4033.8	
832.6	4489.8	
832.77	5363.6	
832.94	6213.5	
833.12	3159.3	
833.29	3938.2	
833.46	5270.8	
833.63	7350.2	
833.8	4380.6	
833.97	4065.2	
834.15	5779.4	
834.32	5518.6	
834.49	4181.3	
834.66	4264.6	
834.83	6079.7	
835	4862.6	
835.17	3835.2	
835.35	3873.4	
835.52	5708.4	
835.69	5588.9	
835.86	4065.2	
836.03	3334.8	
836.2	5694.7	
836.37	5350.7	
836.55	3979.9	
836.72	3801.7	
836.89	5352	
837.06	5802.6	
837.23	4067.3	
837.4	4499.4	
837.57	6634.1	
837.75	7303.1	
837.92	3650.2	
838.09	3917.1	
838.26	5300.1	
838.43	6108.4	
838.6	4216.8	
838.77	3738.9	
838.94	6970.6	
839.11	6653.9	
839.29	4053.6	
839.46	3121.8	
839.63	5709.1	
839.8	5485.1	
839.97	3877.5	
840.14	3837.9	
840.31	5493.3	
840.48	5756.2	
840.65	3180.5	
840.82	3807.9	
841	5726.8	
841.17	5679.7	
841.34	3558	
841.51	3645.4	
841.68	5675.6	
841.85	5397.1	
842.02	3748.5	
842.19	3052.8	
842.36	5495.4	
842.53	5498.1	
842.7	3368.9	
842.87	4404.5	
843.05	7255.3	
843.22	5464	
843.39	3404.4	
843.56	3682.2	
843.73	5177.3	
843.9	5852.4	
844.07	5744.6	
844.24	4816.1	
844.41	8512	
844.58	4952.7	
844.75	3413.3	
844.92	3803.1	
845.09	5685.8	
845.26	5730.2	
845.43	3523.2	
845.6	3763.5	
845.77	5752.1	
845.94	5410.7	
846.12	3966.2	
846.29	4153.3	
846.46	5947.3	
846.63	5733.6	
846.8	3527.3	
846.97	4246.1	
847.14	6238.1	
847.31	5698.1	
847.48	4000.4	
847.65	4396.3	
847.82	6051.1	
847.99	6085.9	
848.16	4815.5	
848.33	4399.7	
848.5	5336.3	
848.67	6280.4	
848.84	3532.1	
849.01	3714.3	
849.18	5113.8	
849.35	4820.2	
849.52	4515.1	
849.69	3489.7	
849.86	5909.8	
850.03	6143.2	
850.2	3554.6	
850.37	4328	
850.54	6098.2	
850.71	5369.1	
850.88	4257.7	
851.05	3509.5	
851.22	5698.1	
851.39	6326.9	
851.56	3340.9	
851.73	4050.9	
851.9	5027.1	
852.07	5978	
852.24	4012	
852.41	3497.2	
852.58	5601.2	
852.75	5066	
852.92	4010.6	
853.09	3470.6	
853.26	5332.2	
853.43	6185.5	
853.6	3532.1	
853.77	3058.3	
853.94	6326.9	
854.11	5029.8	
854.28	5284.4	
854.44	3806.5	
854.61	6768.5	
854.78	5853.1	
854.95	3530	
855.12	4426.3	
855.29	4588.8	
855.46	6440.2	
855.63	3536.2	
855.8	4909	
855.97	5239.4	
856.14	6071.5	
856.31	5051	
856.48	3876.1	
856.65	5292	
856.82	5001.1	
856.99	3381.9	
857.16	3806.5	
857.33	7075	
857.49	5373.2	
857.66	3818.8	
857.83	4116.4	
858	5357.5	
858.17	5550	
858.34	3381.2	
858.51	3517	
858.68	6460.7	
858.85	6491.4	
859.02	4091.2	
859.19	4378.6	
859.36	4992.3	
859.52	5074.2	
859.69	3579.2	
859.86	4190.1	
860.03	5072.1	
860.2	6340.5	
860.37	3235.1	
860.54	3590.8	
860.71	6037.4	
860.88	6380.1	
861.05	3992.9	
861.21	4459.1	
861.38	6431.3	
861.55	4911.7	
861.72	3256.3	
861.89	3964.9	
862.06	6019	
862.23	6567.2	
862.4	3480.2	
862.56	3777.1	
862.73	5841.5	
862.9	5504.9	
863.07	4133.5	
863.24	3216	
863.41	4870.1	
863.58	5045.5	
863.75	3648.1	
863.91	4102.8	
864.08	6340.5	
864.25	5996.5	
864.42	4489.1	
864.59	5011.4	
864.76	6691.4	
864.93	5033.9	
865.09	3437.9	
865.26	3760.8	
865.43	6223.1	
865.6	6650.4	
865.77	3057.6	
865.94	3497.9	
866.1	6229.2	
866.27	6006	
866.44	5352	
866.61	3337.5	
866.78	5468.1	
866.95	5868.8	
867.11	3434.4	
867.28	3132.7	
867.45	6050.4	
867.62	5099.4	
867.79	4108.2	
867.96	3515	
868.12	5075.5	
868.29	6049.7	
868.46	3050.1	
868.63	4713.7	
868.8	6196.5	
868.97	5902.9	
869.13	3704.1	
869.3	3749.1	
869.47	5879.7	
869.64	6087.9	
869.81	3562.1	
869.97	3543.7	
870.14	5756.2	
870.31	6498.2	
870.48	3444.7	
870.65	4508.3	
870.81	5351.3	
870.98	5322.7	
871.15	4087.7	
871.32	3657.7	
871.48	5862	
871.65	6464.8	
871.82	3545	
871.99	3887	
872.16	6891.4	
872.32	6311.8	
872.49	3529.3	
872.66	3581.2	
872.83	5942.5	
872.99	5214.1	
873.16	4071.4	
873.33	3485.6	
873.5	5569.8	
873.67	5603.9	
873.83	3743	
874	4752	
874.17	5776	
874.34	6787	
874.5	4625.7	
874.67	4387.4	
874.84	6405.4	
875.01	5016.8	
875.17	4989.5	
875.34	3455.6	
875.51	5653.1	
875.68	6906.4	
875.84	4323.3	
876.01	5225.1	
876.18	5962.3	
876.34	5890	
876.51	3527.3	
876.68	3497.9	
876.85	5371.1	
877.01	6280.4	
877.18	5064.6	
877.35	3553.2	
877.52	5552.7	
877.68	4944.5	
877.85	3441.3	
878.02	3457.7	
878.18	5526.8	
878.35	5231.2	
878.52	2810.5	
878.69	3938.2	
878.85	5992.4	
879.02	5892	
879.19	5104.2	
879.35	3829	
879.52	5886.5	
879.69	6217.6	
879.86	3070.6	
880.02	4040.6	
880.19	5510.4	
880.36	6708.5	
880.52	4015.4	
880.69	4255.7	
880.86	6077	
881.02	6027.2	
881.19	3916.4	
881.36	3885	
881.52	5911.8	
881.69	5244.8	
881.86	3865.9	
882.02	3760.1	
882.19	6207.4	
882.36	7233.4	
882.52	3622.9	
882.69	4980	
882.86	5737	
883.02	5594.4	
883.19	4359.4	
883.36	4058.4	
883.52	6057.2	
883.69	6964.5	
883.86	3588	
884.02	3180.5	
884.19	5973.9	
884.36	5519.3	
884.52	4001.7	
884.69	3719.8	
884.86	5242.8	
885.02	6636.8	
885.19	4005.1	
885.36	4070	
885.52	5517.9	
885.69	5743.9	
885.86	5155.4	
886.02	4537.6	
886.19	5975.3	
886.35	5452.4	
886.52	3944.4	
886.69	4981.3	
886.85	5067.4	
887.02	6401.3	
887.19	6401.3	
887.35	6401.3	
887.52	6401.3	
887.68	6401.3	
887.85	6401.3	
888.02	6401.3	
888.18	6401.3	
888.35	6401.3	
888.51	6401.3	
888.68	6401.3	
888.85	6401.3	
889.01	6401.3	
889.18	6401.3	
889.35	6401.3	
889.51	6401.3	
889.68	6401.3	
889.84	6401.3	
890.01	6401.3	
890.17	6401.3	
890.34	6401.3	
890.51	6401.3	
890.67	6401.3	
890.84	6401.3	
891	6401.3	
891.17	6401.3	
891.34	6401.3	
891.5	6401.3	
891.67	6401.3	
891.83	6401.3	
892	6401.3	
892.16	6401.3	
892.33	6401.3	
892.5	6401.3	
892.66	6401.3	
892.83	6401.3	
892.99	6401.3	
893.16	6401.3	
893.32	6401.3	
893.49	6401.3	
893.65	6401.3	
893.82	6401.3	
893.99	6401.3	
894.15	6401.3	
894.32	6401.3	
894.48	6401.3	
894.65	6401.3	
894.81	6401.3	
894.98	6401.3	
895.14	6401.3	
895.31	6401.3	
895.47	6401.3	
895.64	6401.3	
895.81	6401.3	
895.97	6401.3	
896.14	6401.3	
896.3	6401.3	
896.47	6401.3	
896.63	6401.3	
896.8	6401.3	
896.96	6401.3	
897.13	6401.3	
897.29	6401.3	
897.46	6401.3	
897.62	6401.3	
897.79	6401.3	
897.95	6401.3	
898.12	6401.3	
898.28	6401.3	
898.45	6401.3	
898.61	6401.3	
898.78	6401.3	
898.94	6401.3	
899.11	6401.3	
899.27	6401.3	
899.44	6401.3	
899.6	6401.3	
899.77	6401.3	
899.93	6401.3	
900.1	6401.3	
900.26	6401.3	
900.43	6401.3	
900.59	6401.3	
900.76	6401.3	
900.92	6401.3	
901.09	6401.3	
901.25	6401.3	
901.42	6401.3	
901.58	6401.3	
901.75	6401.3	
901.91	6401.3	
902.07	6401.3	
902.24	6401.3	
902.4	6401.3	
902.57	6401.3	
902.73	6401.3	
902.9	6401.3	
903.06	6401.3	
903.23	6401.3	
903.39	6401.3	
903.56	6401.3	
903.72	6401.3	
903.88	6401.3	
904.05	6401.3	
904.21	6401.3	
904.38	6401.3	
904.54	6401.3	
904.71	6401.3	
904.87	6401.3	
905.03	6401.3	
905.2	6401.3	
905.36	6401.3	
905.53	6401.3	
905.69	6401.3	
905.86	6401.3	
906.02	6401.3	
906.18	6401.3	
906.35	6401.3	
906.51	6401.3	
906.68	6401.3	
906.84	6401.3	
907.01	6401.3	
907.17	6401.3	
907.33	6401.3	
907.5	6401.3	
907.66	6401.3	
907.83	6401.3	
907.99	6401.3	
908.15	6401.3	
908.32	6401.3	
908.48	6401.3	
908.65	6401.3	
908.81	6401.3	
908.97	6401.3	
909.14	6401.3	
909.3	6401.3	
909.47	6401.3	
909.63	6401.3	
909.79	6401.3	
909.96	6401.3	
910.12	6401.3	
910.28	6401.3	
910.45	6401.3	
910.61	6401.3	
910.78	6401.3	
910.94	6401.3	
911.1	6401.3	
911.27	6401.3	
911.43	6401.3	
911.59	6401.3	
911.76	6401.3	
911.92	6401.3	
912.08	6401.3	
912.25	6401.3	
912.41	6401.3	
912.57	6401.3	
912.74	6401.3	
912.9	6401.3	
913.07	6401.3	
913.23	6401.3	
913.39	6401.3	
913.56	6401.3	
913.72	6401.3	
913.88	6401.3	
914.05	6401.3	
914.21	6401.3	
914.37	6401.3	
914.54	6401.3	
914.7	6401.3	
914.86	6401.3	
915.03	6401.3	
915.19	6401.3	
