Wavelength	Intensities	
nm	a.u.	
179.22	1903.1	
179.44	1897.4	
179.65	1908.7	
179.86	1886.2	
180.08	1884.1	
180.29	4867.3	
180.51	3491.8	
180.72	5629.2	
180.94	6584.9	
181.15	3272	
181.37	3153.2	
181.58	5499.5	
181.79	5824.4	
182.01	3353.9	
182.22	3666.5	
182.44	5756.2	
182.65	4827.1	
182.87	4516.5	
183.08	3968.3	
183.29	6019	
183.51	4932.2	
183.72	3667.2	
183.94	5388.2	
184.15	5370.5	
184.37	5377.3	
184.58	3201.7	
184.79	4373.1	
185.01	4952.7	
185.22	5728.9	
185.44	4671.4	
185.65	3896.6	
185.86	5272.2	
186.08	4880.3	
186.29	3089	
186.51	3362.8	
186.72	5023	
186.94	5868.1	
187.15	3915.7	
187.36	4022.2	
187.58	7684.7	
187.79	5500.2	
188.01	4220.9	
188.22	6465.4	
188.43	6651.1	
188.65	5696.8	
188.86	3334.1	
189.08	4021.5	
189.29	5175.9	
189.5	5212.1	
189.72	3767.6	
189.93	3791.5	
190.15	5950.7	
190.36	7115.3	
190.57	4090.5	
190.79	3943	
191	6071.5	
191.22	5938.4	
191.43	4110.3	
191.64	3297.2	
191.86	6227.9	
192.07	5889.3	
192.29	3437.9	
192.5	3707.5	
192.71	5893.4	
192.93	5100.1	
193.14	3653.6	
193.35	3762.1	
193.57	5209.3	
193.78	6025.1	
194	2996.2	
194.21	3630.4	
194.42	4934.9	
194.64	5412.8	
194.85	3937.6	
195.07	4660.5	
195.28	5467.4	
195.49	4717.8	
195.71	4969.1	
195.92	3422.8	
196.13	5597.8	
196.35	5716.6	
196.56	5285.1	
196.78	3984.7	
196.99	6967.2	
197.2	6588.3	
197.42	4584	
197.63	4001	
197.84	4821.6	
198.06	5573.2	
198.27	3685	
198.48	4955.4	
198.7	5152	
198.91	5268.1	
199.13	4093.2	
199.34	4024.9	
199.55	5785.5	
199.77	4635.2	
199.98	3508.9	
200.19	4059.1	
200.41	5279	
200.62	5018.9	
200.83	4204.5	
201.05	4516.5	
201.26	5338.4	
201.47	5045.5	
201.69	3557.3	
201.9	3444	
202.11	5368.4	
202.33	6356.2	
202.54	3851.5	
202.76	4237.9	
202.97	5502.9	
203.18	5492	
203.4	4196.3	
203.61	4104.8	
203.82	5433.3	
204.04	5040.1	
204.25	4116.4	
204.46	3979.9	
204.68	5383.4	
204.89	5632.6	
205.1	3937.6	
205.32	3350.5	
205.53	5831.9	
205.74	5948.7	
205.96	2906.1	
206.17	4150.6	
206.38	5763	
206.6	5885.2	
206.81	4614.1	
207.02	3776.5	
207.24	5621	
207.45	6034.7	
207.66	3826.3	
207.88	3260.4	
208.09	5554.8	
208.3	5386.2	
208.52	3529.3	
208.73	3771	
208.94	5390.3	
209.15	6108.4	
209.37	3885	
209.58	4057	
209.79	5909.1	
210.01	5160.2	
210.22	3114.3	
210.43	3192.8	
210.65	5432.6	
210.86	5846.3	
211.07	3824.9	
211.29	3525.9	
211.5	5806.7	
211.71	5378.6	
211.93	3549.1	
212.14	3568.2	
212.35	5351.3	
212.56	5554.8	
212.78	4089.8	
212.99	3283.6	
213.2	6353.5	
213.42	5168.4	
213.63	3634.5	
213.84	3943.7	
214.06	4801.1	
214.27	4870.1	
214.48	3818.8	
214.69	4042	
214.91	6066.1	
215.12	6187.6	
215.33	4190.8	
215.55	4600.4	
215.76	6671.6	
215.97	5830.6	
216.18	3964.2	
216.4	3855.6	
216.61	5114.5	
216.82	5913.9	
217.04	3526.6	
217.25	3685.7	
217.46	6032	
217.67	5812.1	
217.89	3203	
218.1	3321.1	
218.31	5498.8	
218.53	5556.8	
218.74	3745.7	
218.95	3601.7	
219.16	5316.5	
219.38	6337.8	
219.59	3618.1	
219.8	4334.2	
220.01	7002	
220.23	5358.9	
220.44	4698.7	
220.65	3533.4	
220.87	5459.9	
221.08	6080.4	
221.29	3258.3	
221.5	4409.3	
221.72	7419.1	
221.93	5109.7	
222.14	4079.6	
222.35	4739.7	
222.57	5399.8	
222.78	5727.5	
222.99	3887.7	
223.2	4143.7	
223.42	5724.1	
223.63	5829.9	
223.84	2946.3	
224.05	2961.4	
224.27	6934.4	
224.48	6272.9	
224.69	4810.7	
224.9	4044.1	
225.12	5596.4	
225.33	5379.3	
225.54	3280.8	
225.75	3615.3	
225.97	4955.4	
226.18	5238	
226.39	3899.3	
226.6	3613.3	
226.82	5126.1	
227.03	5002.5	
227.24	4084.3	
227.45	3383.2	
227.67	5728.9	
227.88	6320	
228.09	4541	
228.3	4506.9	
228.52	5864.7	
228.73	5376.6	
228.94	3736.9	
229.15	3364.1	
229.36	5281	
229.58	5187.5	
229.79	3814	
230	4432.5	
230.21	6413.6	
230.43	5498.1	
230.64	3986	
230.85	4160.8	
231.06	5781.4	
231.28	5811.5	
231.49	3315	
231.7	3939.6	
231.91	5740.5	
232.12	5370.5	
232.34	3398.9	
232.55	3878.2	
232.76	5971.2	
232.97	5568.4	
233.18	3530.7	
233.4	4049.5	
233.61	5695.4	
233.82	5157.5	
234.03	3730.7	
234.25	3625.6	
234.46	7542.7	
234.67	5440.1	
234.88	4170.3	
235.09	3571.7	
235.31	5699.5	
235.52	5231.2	
235.73	4035.2	
235.94	3392.8	
236.15	5145.2	
236.37	6549.4	
236.58	3553.9	
236.79	3859.1	
237	5744.6	
237.21	4921.3	
237.43	4145.8	
237.64	3235.8	
237.85	9861	
238.06	4950.6	
238.27	4273.4	
238.48	3392.1	
238.7	5750.7	
238.91	5237.3	
239.12	3894.6	
239.33	3884.3	
239.54	5044.8	
239.76	5300.1	
239.97	3820.1	
240.18	3845.4	
240.39	6718.7	
240.6	5640.8	
240.82	4027	
241.03	3263.1	
241.24	5403.9	
241.45	6276.3	
241.66	3538.2	
241.87	4205.2	
242.09	6113.2	
242.3	6510.5	
242.51	4189.5	
242.72	3896.6	
242.93	5850.4	
243.14	5325.4	
243.36	4472.1	
243.57	4835.3	
243.78	6236.7	
243.99	5755.5	
244.2	3895.2	
244.41	3512.3	
244.63	4967	
244.84	5700.9	
245.05	4169	
245.26	3949.2	
245.47	5659.9	
245.68	5926.1	
245.9	5189.6	
246.11	4103.4	
246.32	5255.1	
246.53	5620.3	
246.74	6293.4	
246.95	3256.3	
247.16	4846.2	
247.38	5364.3	
247.59	3258.3	
247.8	3920.5	
248.01	5098.8	
248.22	5315.2	
248.43	3560.1	
248.64	3805.8	
248.86	4829.8	
249.07	5172.5	
249.28	3368.9	
249.49	3979.2	
249.7	5922.7	
249.91	6121.4	
250.12	3255.6	
250.34	3233.7	
250.55	5517.9	
250.76	5429.8	
250.97	3936.2	
251.18	4060.4	
251.39	6081.8	
251.6	5566.4	
251.81	4095.9	
252.03	4053.6	
252.24	5101.5	
252.45	5901.6	
252.66	3349.1	
252.87	4356.7	
253.08	5466	
253.29	7150.1	
253.5	3396.2	
253.72	4780	
253.93	5246.2	
254.14	6399.9	
254.35	3691.8	
254.56	3760.8	
254.77	5694.7	
254.98	5007.3	
255.19	3605.8	
255.41	4684.4	
255.62	5470.1	
255.83	5966.4	
256.04	4206.5	
256.25	4054.3	
256.46	6696.2	
256.67	5066.7	
256.88	3991.5	
257.09	4468	
257.31	5045.5	
257.52	5130.8	
257.73	4967	
257.94	3691.8	
258.15	5253	
258.36	5372.5	
258.57	4597.7	
258.78	2962.7	
258.99	5898.8	
259.2	5259.9	
259.41	3717.1	
259.63	3805.8	
259.84	6224.5	
260.05	6679.1	
260.26	4849.6	
260.47	3551.2	
260.68	5991.7	
260.89	5255.8	
261.1	4512.4	
261.31	3543.7	
261.52	6001.2	
261.73	6299.6	
261.95	4805.2	
262.16	4128	
262.37	6087.2	
262.58	6218.3	
262.79	4780	
263	3759.4	
263.21	5410.1	
263.42	4962.9	
263.63	3816.7	
263.84	3729.4	
264.05	5991.7	
264.26	6324.8	
264.47	4623.6	
264.69	4182	
264.9	6115.2	
265.11	5547.3	
265.32	3515.7	
265.53	3644	
265.74	5538.4	
265.95	4790.2	
266.16	3959.4	
266.37	4390.8	
266.58	5524.1	
266.79	5205.9	
267	3704.1	
267.21	3410.6	
267.42	4972.5	
267.63	5384.8	
267.84	3859.1	
268.06	3301.3	
268.27	5849	
268.48	6102.9	
268.69	3766.2	
268.9	4465.3	
269.11	6172.6	
269.32	4845.5	
269.53	3862.5	
269.74	3637.9	
269.95	5711.1	
270.16	4729.4	
270.37	3900.7	
270.58	4503.5	
270.79	5246.2	
271	5949.3	
271.21	4192.2	
271.42	3971.7	
271.63	5502.9	
271.84	5050.3	
272.05	3127.9	
272.26	3474.7	
272.47	5427.8	
272.68	5594.4	
272.89	3741	
273.11	4312.3	
273.32	5206.6	
273.53	6346.7	
273.74	4204.5	
273.95	4032.5	
274.16	6075.6	
274.37	5500.2	
274.58	4280.9	
274.79	3401.7	
275	5522	
275.21	6092.7	
275.42	5170.4	
275.63	4393.6	
275.84	5663.3	
276.05	7147.4	
276.26	4064.5	
276.47	3830.4	
276.68	5239.4	
276.89	6420.4	
277.1	4390.8	
277.31	3431	
277.52	5651	
277.73	5844.2	
277.94	3352.5	
278.15	3755.3	
278.36	5569.8	
278.57	5039.4	
278.78	3721.2	
278.99	4251.6	
279.2	5012.1	
279.41	5021.6	
279.62	4902.8	
279.83	3437.9	
280.04	6615.6	
280.25	4874.2	
280.46	4896	
280.67	3931.4	
280.88	4989.5	
281.09	6100.2	
281.3	4059.1	
281.51	5109.7	
281.72	5095.3	
281.93	5947.3	
282.14	3629	
282.35	3930.7	
282.56	5897.5	
282.77	5915.9	
282.98	3713	
283.19	4575.2	
283.4	7253.9	
283.61	5392.3	
283.82	3338.9	
284.03	4863.9	
284.24	5502.2	
284.45	6038.8	
284.66	4820.2	
284.87	4603.2	
285.08	5958.2	
285.29	6110.5	
285.5	3301.3	
285.71	3797.6	
285.92	6022.4	
286.12	6689.3	
286.33	4825.7	
286.54	3779.9	
286.75	5887.9	
286.96	5268.7	
287.17	3424.2	
287.38	4722.6	
287.59	5036.6	
287.8	4944.5	
288.01	3808.5	
288.22	4402.5	
288.43	5950	
288.64	4941.1	
288.85	4507.6	
289.06	4315.8	
289.27	5863.3	
289.48	6324.8	
289.69	4790.9	
289.9	4373.8	
290.11	6016.2	
290.32	5074.9	
290.53	4601.8	
290.74	4244.1	
290.94	5847.6	
291.15	5851	
291.36	3678.2	
291.57	4312.3	
291.78	5156.1	
291.99	4818.9	
292.2	3480.9	
292.41	4190.1	
292.62	5958.2	
292.83	5764.3	
293.04	5246.2	
293.25	3495.9	
293.46	5261.2	
293.67	5965.1	
293.88	3611.3	
294.09	3494.5	
294.29	4929.5	
294.5	5567.1	
294.71	3956	
294.92	3685.7	
295.13	5156.8	
295.34	6486.6	
295.55	3225.6	
295.76	3385.3	
295.97	5791	
296.18	6603.3	
296.39	3421.5	
296.6	3673.4	
296.81	5484.5	
297.01	5839.4	
297.22	3760.8	
297.43	3636.5	
297.64	5071.5	
297.85	5071.5	
298.06	3063.1	
298.27	3268.6	
298.48	5477	
298.69	5134.3	
298.9	3953.9	
299.11	3547.8	
299.31	4932.9	
299.52	4929.5	
299.73	4257.7	
299.94	4149.9	
300.15	5410.1	
300.36	5031.2	
300.57	4113.7	
300.78	4123.9	
300.99	5207.3	
301.2	5541.1	
301.4	3607.8	
301.61	3932.1	
301.82	5767.8	
302.03	5775.3	
302.24	4398.4	
302.45	3407.1	
302.66	5667.4	
302.87	6141.9	
303.08	3629.7	
303.29	4983.4	
303.49	5202.5	
303.7	5458.5	
303.91	3267.2	
304.12	4807.3	
304.33	4936.3	
304.54	5567.1	
304.75	3660.4	
304.96	3435.8	
305.16	5801.9	
305.37	6454.5	
305.58	3151.1	
305.79	3284.9	
306	5760.9	
306.21	4824.3	
306.42	3622.9	
306.63	5576.6	
306.83	5294	
307.04	6023.8	
307.25	4033.1	
307.46	3986	
307.67	4609.3	
307.88	5883.1	
308.09	3618.1	
308.29	3700	
308.5	5509	
308.71	6014.2	
308.92	3901.4	
309.13	3500	
309.34	5317.9	
309.55	5350	
309.75	4600.4	
309.96	4153.3	
310.17	5819.6	
310.38	5156.8	
310.59	4383.3	
310.8	3453.6	
311.01	5278.3	
311.21	5302.2	
311.42	3457.7	
311.63	3580.5	
311.84	5167	
312.05	5548.6	
312.26	4073.4	
312.46	4491.9	
312.67	5210.7	
312.88	4977.2	
313.09	3497.2	
313.3	3428.3	
313.51	6210.8	
313.71	6545.3	
313.92	3469.9	
314.13	3743	
314.34	5551.4	
314.55	5375.2	
314.76	4527.4	
314.96	3955.3	
315.17	5455.8	
315.38	5771.9	
315.59	3534.8	
315.8	3320.4	
316.01	6394.4	
316.21	6368.5	
316.42	3436.5	
316.63	3869.3	
316.84	5316.5	
317.05	6103.6	
317.26	4186	
317.46	3761.4	
317.67	5343.8	
317.88	5738.4	
318.09	4476.9	
318.3	3261	
318.5	5077.6	
318.71	5702.2	
318.92	5728.9	
319.13	4100.7	
319.34	5937.7	
319.54	6069.5	
319.75	3293.1	
319.96	3141.6	
320.17	5790.3	
320.38	6016.2	
320.58	3208.5	
320.79	3863.8	
321	5999.9	
321.21	6135.7	
321.42	3905.5	
321.62	3239.2	
321.83	5032.5	
322.04	5424.4	
322.25	3735.5	
322.46	3510.2	
322.66	5507	
322.87	5623.7	
323.08	4397	
323.29	3404.4	
323.5	6522.1	
323.7	4982	
323.91	4795.7	
324.12	4348.5	
324.33	5527.5	
324.53	5737	
324.74	4164.9	
324.95	4339	
325.16	4810.7	
325.37	5205.3	
325.57	3556.6	
325.78	3540.3	
325.99	5480.4	
326.2	4934.9	
326.4	4977.2	
326.61	3246.7	
326.82	5348.6	
327.03	5482.4	
327.24	4977.2	
327.44	4745.8	
327.65	5671.5	
327.86	4603.2	
328.07	4163.5	
328.27	3384.6	
328.48	6094.8	
328.69	4970.4	
328.9	5083.1	
329.1	3803.8	
329.31	5205.3	
329.52	6251.8	
329.73	3473.4	
329.93	3975.1	
330.14	5433.3	
330.35	5664.7	
330.56	5838.1	
330.76	4407.2	
330.97	5223.7	
331.18	5621	
331.39	3936.9	
331.59	3150.5	
331.8	5959.6	
332.01	6098.2	
332.22	3657	
332.42	4122.6	
332.63	5483.8	
332.84	5135.6	
333.05	3964.2	
333.25	3567.6	
333.46	5128.1	
333.67	5418.9	
333.88	3674.7	
334.08	4108.2	
334.29	7430	
334.5	6034	
334.7	3440.6	
334.91	5102.9	
335.12	4978.6	
335.33	5843.5	
335.53	3904.1	
335.74	5799.2	
335.95	5226.4	
336.16	5040.7	
336.36	3920.5	
336.57	4444.8	
336.78	4933.6	
336.98	5989.6	
337.19	4893.3	
337.4	3782.6	
337.61	6571.9	
337.81	4913.8	
338.02	3582.6	
338.23	4643.4	
338.43	6194.4	
338.64	5043.5	
338.85	3565.5	
339.05	4653.7	
339.26	6269.5	
339.47	4846.9	
339.68	3575.1	
339.88	5279	
340.09	5706.3	
340.3	5885.9	
340.5	4134.8	
340.71	3182.5	
340.92	4874.8	
341.13	6102.9	
341.33	3414	
341.54	4233.8	
341.75	5598.5	
341.95	5322.7	
342.16	4026.3	
342.37	4314.4	
342.57	5003.9	
342.78	5392.3	
342.99	4401.8	
343.19	3138.2	
343.4	5846.3	
343.61	5681.7	
343.81	3780.6	
344.02	3482.2	
344.23	5864.7	
344.43	6284.5	
344.64	4371.7	
344.85	4276.2	
345.06	5745.2	
345.26	6015.6	
345.47	4091.2	
345.68	4900.8	
345.88	4805.2	
346.09	5842.9	
346.3	4138.9	
346.5	3161.4	
346.71	5411.4	
346.92	5093.3	
347.12	3225.6	
347.33	4114.4	
347.54	5921.4	
347.74	6390.3	
347.95	4033.8	
348.16	2995.5	
348.36	5193.6	
348.57	4914.4	
348.78	4019.5	
348.98	4280.3	
349.19	5345.9	
349.39	4866.7	
349.6	3253.5	
349.81	3591.5	
350.01	5627.1	
350.22	5127.4	
350.43	3926.6	
350.63	4677.6	
350.84	5464	
351.05	5229.1	
351.25	3592.1	
351.46	3180.5	
351.67	6006.7	
351.87	5085.1	
352.08	3855.6	
352.29	4302.8	
352.49	5884.5	
352.7	5945.3	
352.9	3392.1	
353.11	4278.2	
353.32	6547.4	
353.52	5148.6	
353.73	3399.6	
353.94	4375.1	
354.14	5709.7	
354.35	5511.1	
354.55	3463.1	
354.76	3925.3	
354.97	5654.4	
355.17	5388.9	
355.38	3315	
355.59	4668.7	
355.79	5096	
356	5528.8	
356.2	3839.3	
356.41	3405.8	
356.62	4789.5	
356.82	5322	
357.03	4125.3	
357.24	3695.2	
357.44	5088.5	
357.65	5229.8	
357.85	4997.7	
358.06	3919.1	
358.27	4830.5	
358.47	5014.8	
358.68	3238.5	
358.88	4125.3	
359.09	5640.8	
359.3	6012.8	
359.5	4830.5	
359.71	4217.5	
359.91	6399.2	
360.12	5730.2	
360.33	4078.9	
360.53	4638.6	
360.74	5064.6	
360.94	5120.6	
361.15	4349.9	
361.36	3530.7	
361.56	5830.6	
361.77	5281.7	
361.97	4783.4	
362.18	3762.8	
362.38	5833.3	
362.59	4934.2	
362.8	3463.1	
363	3263.1	
363.21	4730.1	
363.41	5363.6	
363.62	3983.3	
363.83	5082.4	
364.03	5466.7	
364.24	6471.6	
364.44	5111.7	
364.65	5087.8	
364.85	5266.7	
365.06	5068	
365.27	3631	
365.47	3644.7	
365.68	6290	
365.88	5196.4	
366.09	3988.8	
366.29	3727.3	
366.5	5431.9	
366.71	5942.5	
366.91	5005.9	
367.12	4158.1	
367.32	6458.6	
367.53	5745.2	
367.73	4098.7	
367.94	5084.4	
368.14	5675.6	
368.35	6601.3	
368.56	4076.1	
368.76	3465.2	
368.97	5760.3	
369.17	7392.5	
369.38	3594.2	
369.58	3889.8	
369.79	4813.4	
369.99	6144.6	
370.2	4876.9	
370.4	4014.7	
370.61	5524.1	
370.82	6731.7	
371.02	3862.5	
371.23	3199.6	
371.43	4760.2	
371.64	6053.1	
371.84	3876.8	
372.05	5032.5	
372.25	7382.2	
372.46	5782.8	
372.66	3891.8	
372.87	3844	
373.07	5820.3	
373.28	7380.2	
373.48	4886.5	
373.69	4671.4	
373.9	5307	
374.1	5307	
374.31	4848.2	
374.51	4328.7	
374.72	6091.3	
374.92	4947.9	
375.13	5016.8	
375.33	4123.2	
375.54	5666	
375.74	5139.7	
375.95	4222.9	
376.15	5456.5	
376.36	5732.3	
376.56	5530.2	
376.77	4216.1	
376.97	4755.4	
377.18	6727.6	
377.38	5762.3	
377.59	5010.7	
377.79	3691.1	
378	5541.8	
378.2	5905.7	
378.41	3866.6	
378.61	3684.3	
378.82	5983.5	
379.02	5046.9	
379.23	3878.2	
379.43	4988.2	
379.64	6064	
379.84	5655.1	
380.05	3753.9	
380.25	3713.6	
380.46	5769.8	
380.66	5336.3	
380.87	5020.9	
381.07	5436	
381.28	6370.5	
381.48	5796.4	
381.69	3807.9	
381.89	3768.3	
382.1	4786.8	
382.3	5972.6	
382.51	4863.2	
382.71	5856.5	
382.91	5787.6	
383.12	6383.5	
383.32	4123.9	
383.53	4351.3	
383.73	5612.8	
383.94	5461.9	
384.14	4306.9	
384.35	3451.5	
384.55	5355.4	
384.76	5834	
384.96	4147.8	
385.17	4468.7	
385.37	5780.7	
385.58	5091.3	
385.78	4511.7	
385.98	3381.9	
386.19	5356.1	
386.39	5689.3	
386.6	4002.4	
386.8	4167.6	
387.01	5793.7	
387.21	5855.8	
387.42	4556	
387.62	5179.3	
387.83	5140.4	
388.03	5803.9	
388.23	4128.7	
388.44	5024.3	
388.64	4741.7	
388.85	4863.9	
389.05	4506.9	
389.26	5074.2	
389.46	6732.4	
389.67	6146	
389.87	4431.8	
390.07	4571.7	
390.28	5432.6	
390.48	4987.5	
390.69	3695.2	
390.89	4058.4	
391.1	5160.2	
391.3	6135	
391.5	5187.5	
391.71	5789.6	
391.91	5786.2	
392.12	6915.3	
392.32	5330.2	
392.53	4518.5	
392.73	5228.5	
392.93	5419.6	
393.14	4194.9	
393.34	5005.2	
393.55	5969.1	
393.75	5431.2	
393.95	4202.4	
394.16	4155.3	
394.36	5147.9	
394.57	5922.7	
394.77	3658.4	
394.98	4123.9	
395.18	5134.9	
395.38	5378.6	
395.59	4960.2	
395.79	3894.6	
396	5229.1	
396.2	5728.9	
396.4	4755.4	
396.61	4631.8	
396.81	5862.7	
397.02	5115.1	
397.22	4928.8	
397.42	4985.4	
397.63	5839.4	
397.83	5065.3	
398.04	3796.3	
398.24	4364.9	
398.44	5649	
398.65	4711.7	
398.85	3661.1	
399.05	3792.2	
399.26	5094.7	
399.46	6797.9	
399.67	4149.2	
399.87	3875.4	
400.07	5480.4	
400.28	5761.6	
400.48	3998.3	
400.69	4992.9	
400.89	5957.5	
401.09	6370.5	
401.3	3816	
401.5	5006.6	
401.7	6606.1	
401.91	6817.7	
402.11	4136.2	
402.32	4415.4	
402.52	5928.9	
402.72	5833.3	
402.93	4594.3	
403.13	3483.6	
403.33	6717.3	
403.54	5481.7	
403.74	4326.7	
403.94	5248.9	
404.15	5556.8	
404.35	6716.7	
404.56	4103.4	
404.76	5995.1	
404.96	5992.4	
405.17	5816.2	
405.37	5459.9	
405.57	4556.7	
405.78	6016.9	
405.98	5429.8	
406.18	4070.7	
406.39	4940.4	
406.59	5930.9	
406.79	5575.9	
407	3917.8	
407.2	4036.5	
407.4	5991	
407.61	6231.3	
407.81	4008.6	
408.01	5959.6	
408.22	4977.9	
408.42	6963.1	
408.62	5033.9	
408.83	4414.7	
409.03	5492	
409.23	5325.4	
409.44	4592.9	
409.64	4851	
409.84	6361	
410.05	6217.6	
410.25	4611.3	
410.45	4365.6	
410.66	5612.8	
410.86	8137.9	
411.06	4734.2	
411.27	4633.2	
411.47	7875.8	
411.67	5766.4	
411.88	4835.3	
412.08	4991.6	
412.28	6442.9	
412.49	6957.6	
412.69	4597.7	
412.89	4582.7	
413.09	6752.2	
413.3	6545.3	
413.5	4633.9	
413.7	4168.3	
413.91	5864.7	
414.11	6746	
414.31	4448.2	
414.52	4847.5	
414.72	6356.2	
414.92	6236.1	
415.12	4390.2	
415.33	4869.4	
415.53	6580.1	
415.73	6834.1	
415.94	5332.9	
416.14	4730.1	
416.34	5603.9	
416.55	5360.2	
416.75	5983.5	
416.95	5416.2	
417.15	6586.3	
417.36	7316.7	
417.56	6072.9	
417.76	5122.7	
417.97	6908.5	
418.17	6627.2	
418.37	4666.6	
418.57	4724.7	
418.78	6375.3	
418.98	6055.8	
419.18	5655.8	
419.38	5608	
419.59	6093.4	
419.79	5734.3	
419.99	4693.3	
420.2	5088.5	
420.4	6582.2	
420.6	6853.2	
420.8	4595	
421.01	4483.7	
421.21	6352.8	
421.41	6550.1	
421.61	4986.1	
421.82	4643.4	
422.02	5894.1	
422.22	6868.9	
422.42	5438	
422.63	5198.4	
422.83	6052.4	
423.03	7217	
423.23	5174.5	
423.44	4069.3	
423.64	6075	
423.84	5888.6	
424.04	4594.3	
424.25	4241.3	
424.45	7163.8	
424.65	6993.8	
424.85	3991.5	
425.06	4638	
425.26	7010.9	
425.46	6068.1	
425.66	5091.3	
425.87	4888.5	
426.07	6805.4	
426.27	6614.9	
426.47	4953.4	
426.67	4300.7	
426.88	7152.9	
427.08	6612.9	
427.28	5101.5	
427.48	4299.4	
427.69	5502.2	
427.89	6189	
428.09	5200.5	
428.29	4339.6	
428.5	6837.5	
428.7	6356.9	
428.9	4181.3	
429.1	4860.5	
429.3	6285.9	
429.51	6725.5	
429.71	4536.3	
429.91	5287.9	
430.11	6500.3	
430.31	6665.5	
430.52	4716.5	
430.72	5027.1	
430.92	7061.4	
431.12	6623.8	
431.32	4493.9	
431.53	4931.5	
431.73	5549.3	
431.93	7193.8	
432.13	4397	
432.33	4268.6	
432.54	5958.9	
432.74	6340.5	
432.94	4160.8	
433.14	5184.1	
433.34	6445	
433.55	5880.4	
433.75	5198.4	
433.95	6866.8	
434.15	6169.8	
434.35	5863.3	
434.56	4375.8	
434.76	3794.2	
434.96	6163.7	
435.16	6386.9	
435.36	4121.9	
435.56	5300.8	
435.77	5801.9	
435.97	5942.5	
436.17	5987.6	
436.37	5210	
436.57	5829.2	
436.78	5678.3	
436.98	7008.1	
437.18	5770.5	
437.38	6389.7	
437.58	5996.5	
437.78	5953.4	
437.99	4631.8	
438.19	6457.9	
438.39	7307.2	
438.59	4523.3	
438.79	4072.7	
438.99	7181.5	
439.2	6036	
439.4	4300.7	
439.6	4147.8	
439.8	6322.1	
440	7408.9	
440.2	5138.4	
440.4	5242.8	
440.61	6637.5	
440.81	7182.9	
441.01	4265.2	
441.21	5133.6	
441.41	6926.9	
441.61	6635.4	
441.81	5451.7	
442.02	6388.3	
442.22	7420.5	
442.42	6673.6	
442.62	4289.8	
442.82	4390.8	
443.02	6976.7	
443.22	6067.4	
443.43	4782.7	
443.63	4313	
443.83	5918.6	
444.03	5868.8	
444.23	5475.6	
444.43	5048.9	
444.63	6102.3	
444.83	7366.5	
445.04	4345.1	
445.24	5606	
445.44	6569.9	
445.64	6608.1	
445.84	5195.7	
446.04	5184.8	
446.24	5948	
446.44	7018.4	
446.65	4429.8	
446.85	4747.9	
447.05	6105	
447.25	6886.6	
447.45	4873.5	
447.65	4200.4	
447.85	6354.8	
448.05	5972.6	
448.25	5304.2	
448.46	5093.3	
448.66	6278.4	
448.86	6011.5	
449.06	4113	
449.26	5250.3	
449.46	6664.8	
449.66	5674.2	
449.86	4691.9	
450.06	4709.6	
450.26	5813.5	
450.47	6383.5	
450.67	5031.9	
450.87	5399.1	
451.07	6535.1	
451.27	6268.8	
451.47	4338.3	
451.67	4829.1	
451.87	5932.3	
452.07	7130.3	
452.27	4463.2	
452.47	4557.4	
452.67	6278.4	
452.88	6873	
453.08	3880.9	
453.28	5924.1	
453.48	7442.3	
453.68	6169.8	
453.88	4405.2	
454.08	4640	
454.28	6524.1	
454.48	6341.2	
454.68	5165.7	
454.88	5742.5	
455.08	6688.7	
455.28	6341.9	
455.48	4291.9	
455.68	4814.8	
455.89	7024.5	
456.09	6744.6	
456.29	4574.5	
456.49	4601.8	
456.69	6886.6	
456.89	6226.5	
457.09	5132.9	
457.29	5358.9	
457.49	6494.8	
457.69	6579.4	
457.89	4878.9	
458.09	4285	
458.29	6227.2	
458.49	6958.3	
458.69	5202.5	
458.89	4618.9	
459.09	7093.5	
459.29	7248.4	
459.49	4787.5	
459.69	5506.3	
459.9	6655.2	
460.1	6159.6	
460.3	4633.9	
460.5	4447.5	
460.7	6631.3	
460.9	6363	
461.1	4130.8	
461.3	5423.7	
461.5	7223.2	
461.7	6832.7	
461.9	4393.6	
462.1	4967.7	
462.3	6325.5	
462.5	6925.5	
462.7	4519.9	
462.9	4582	
463.1	7879.2	
463.3	7443.7	
463.5	4778.6	
463.7	5698.1	
463.9	6353.5	
464.1	6814.3	
464.3	4754	
464.5	5049.6	
464.7	7019.1	
464.9	6604.7	
465.1	6395.8	
465.3	5283.1	
465.5	7353.6	
465.7	7242.3	
465.9	5593.7	
466.1	5617.6	
466.3	7049.8	
466.5	6959	
466.7	6169.2	
466.9	5199.1	
467.1	6842.9	
467.3	7802.8	
467.5	6158.9	
467.7	5097.4	
467.9	7957	
468.1	8840.4	
468.3	5851	
468.5	6279.8	
468.7	6761.7	
468.9	6724.2	
469.1	5280.3	
469.3	5919.3	
469.5	8605.6	
469.7	6186.2	
469.9	5771.2	
470.1	4945.2	
470.3	6752.2	
470.5	6748.7	
470.7	6266.8	
470.9	5093.3	
471.1	6478.4	
471.3	6935.8	
471.5	4912.4	
471.69	6879.8	
471.89	6408.1	
472.09	5899.5	
472.29	5738.4	
472.49	6232	
472.69	6119.3	
472.89	6982.9	
473.09	4849.6	
473.29	5042.1	
473.49	6348	
473.69	6485.9	
473.89	6027.2	
474.09	5205.3	
474.29	7743.4	
474.49	7468.9	
474.69	5935.7	
474.89	5328.1	
475.09	6481.1	
475.29	6372.6	
475.49	4661.9	
475.69	4943.8	
475.88	8179.6	
476.08	6829.3	
476.28	4644.8	
476.48	5189.6	
476.68	7294.9	
476.88	7126.9	
477.08	5029.8	
477.28	5364.3	
477.48	6709.1	
477.68	7410.2	
477.88	4820.9	
478.08	5195	
478.28	7612.3	
478.48	6740.5	
478.67	5251.7	
478.87	4696.7	
479.07	7388.4	
479.27	6785.6	
479.47	5412.8	
479.67	5368.4	
479.87	7171.3	
480.07	7712.7	
480.27	4637.3	
480.47	6287.3	
480.67	6870.9	
480.87	7530.4	
481.06	4961.5	
481.26	5687.9	
481.46	6789.7	
481.66	6778.8	
481.86	5391.6	
482.06	6507.8	
482.26	6497.5	
482.46	7740	
482.66	5294	
482.86	4913.1	
483.05	6862.7	
483.25	6304.3	
483.45	7852.6	
483.65	5273.5	
483.85	6429.9	
484.05	6756.9	
484.25	5756.8	
484.45	6219.7	
484.65	7604.1	
484.84	7531.1	
485.04	5212.1	
485.24	5235.3	
485.44	7864.2	
485.64	6111.1	
485.84	4449.6	
486.04	5871.5	
486.24	6500.3	
486.44	6866.8	
486.63	4412.7	
486.83	5197.7	
487.03	6386.9	
487.23	6518.7	
487.43	4487.1	
487.63	6785.6	
487.83	6615.6	
488.02	7656	
488.22	5360.9	
488.42	6046.3	
488.62	7439.6	
488.82	6397.9	
489.02	5152.7	
489.22	5076.2	
489.41	7352.9	
489.61	6929.6	
489.81	4840	
490.01	4866	
490.21	7079.8	
490.41	7843	
490.61	4756.1	
490.8	4916.5	
491	6691.4	
491.2	5996.5	
491.4	5558.9	
491.6	4616.8	
491.8	6744	
491.99	6983.6	
492.19	4610	
492.39	4971.1	
492.59	7283.3	
492.79	7358.4	
492.99	5700.2	
493.18	4786.1	
493.38	7354.3	
493.58	8079.9	
493.78	5531.6	
493.98	5103.5	
494.18	6965.8	
494.37	6401.3	
494.57	5711.1	
494.77	5476.3	
494.97	7098.3	
495.17	7326.3	
495.37	5015.5	
495.56	5280.3	
495.76	7393.8	
495.96	7093.5	
496.16	6193.1	
496.36	5143.8	
496.55	7233.4	
496.75	6780.1	
496.95	5511.8	
497.15	5386.2	
497.35	7260.7	
497.54	7172.7	
497.74	5199.1	
497.94	6797.2	
498.14	7887.4	
498.34	7741.3	
498.53	4782.7	
498.73	5619.6	
498.93	6559	
499.13	7111.9	
499.33	5354.1	
499.52	5933	
499.72	7090.8	
499.92	7398.6	
500.12	5060.5	
500.32	5318.6	
500.51	7421.8	
500.71	7085.3	
500.91	6072.2	
501.11	5679	
501.31	7274.4	
501.5	7720.8	
501.7	6352.8	
501.9	5255.8	
502.1	7077.1	
502.29	7365.2	
502.49	5696.1	
502.69	6223.8	
502.89	7253.9	
503.09	7205.4	
503.28	4852.3	
503.48	5011.4	
503.68	6522.1	
503.88	6543.9	
504.07	6015.6	
504.27	5434.6	
504.47	6938.5	
504.67	7090.8	
504.86	5866.1	
505.06	5587.5	
505.26	6652.5	
505.46	8456.7	
505.65	5474.2	
505.85	5656.5	
506.05	6642.9	
506.25	7148.1	
506.44	4924	
506.64	5873.6	
506.84	6608.1	
507.04	7463.5	
507.23	5124	
507.43	5690.6	
507.63	8525.7	
507.83	6819.7	
508.02	5647.6	
508.22	5268.1	
508.42	8851.3	
508.62	6625.9	
508.81	5577.3	
509.01	6164.4	
509.21	6546	
509.4	6754.9	
509.6	5748	
509.8	5130.2	
510	6738.5	
510.19	8139.3	
510.39	5064.6	
510.59	5176.6	
510.79	6464.1	
510.98	7798	
511.18	5139.7	
511.38	5261.9	
511.57	7264.8	
511.77	7181.5	
511.97	5963.7	
512.17	4972.5	
512.36	7282.6	
512.56	7333.1	
512.76	5085.8	
512.95	4812	
513.15	7427.3	
513.35	6076.3	
513.55	5926.1	
513.74	5121.3	
513.94	7420.5	
514.14	6673.6	
514.33	6019	
514.53	5678.3	
514.73	6699.6	
514.92	6862.1	
515.12	5236.7	
515.32	4997	
515.51	6933.7	
515.71	7531.1	
515.91	6711.2	
516.11	4993.6	
516.3	8691.6	
516.5	6515.3	
516.7	5660.6	
516.89	6248.4	
517.09	6648.4	
517.29	6540.5	
517.48	5863.3	
517.68	5328.8	
517.88	6459.3	
518.07	6997.2	
518.27	5825.8	
518.47	4926.7	
518.66	7640.3	
518.86	6264.7	
519.06	4793.6	
519.25	5157.5	
519.45	6618.4	
519.65	8019.8	
519.84	5760.9	
520.04	6490.7	
520.24	8428.1	
520.43	7182.9	
520.63	5545.2	
520.83	5171.1	
521.02	6444.3	
521.22	7109.9	
521.42	5829.9	
521.61	6348	
521.81	6698.2	
522.01	6941.2	
522.2	5651	
522.4	5451.7	
522.6	7351.5	
522.79	6141.9	
522.99	5473.5	
523.18	4770.4	
523.38	7017.7	
523.58	6911.9	
523.77	6682.5	
523.97	4718.5	
524.17	8777.6	
524.36	7957.7	
524.56	6036	
524.76	5631.2	
524.95	6832	
525.15	6488.6	
525.34	5311.1	
525.54	5387.5	
525.74	7165.8	
525.93	6148	
526.13	6553.5	
526.33	5272.8	
526.52	7473	
526.72	6946	
526.91	6519.4	
527.11	5814.2	
527.31	7505.8	
527.5	7862.2	
527.7	5600.5	
527.89	4664.6	
528.09	6337.8	
528.29	6884.6	
528.48	5991.7	
528.68	5707	
528.87	7261.4	
529.07	7428	
529.27	5535.7	
529.46	5052.3	
529.66	6922.1	
529.85	7336.5	
530.05	4864.6	
530.25	5713.2	
530.44	8283.4	
530.64	6819.1	
530.83	5302.2	
531.03	5567.7	
531.23	7232.1	
531.42	7183.6	
531.62	6259.3	
531.81	5457.2	
532.01	7355.6	
532.21	7752.2	
532.4	5207.3	
532.6	5516.5	
532.79	8043.7	
532.99	7305.8	
533.18	5434.6	
533.38	6490	
533.58	6834.8	
533.77	7610.3	
533.97	5326.8	
534.16	6192.4	
534.36	7773.4	
534.55	6797.2	
534.75	6391	
534.95	5338.4	
535.14	7651.9	
535.34	6804.7	
535.53	5119.2	
535.73	7097.6	
535.92	8157.7	
536.12	6970.6	
536.31	5261.2	
536.51	6427.9	
536.71	7340.6	
536.9	6918.7	
537.1	5459.2	
537.29	5595.1	
537.49	7668.3	
537.68	6769.9	
537.88	5951.4	
538.07	5115.1	
538.27	6970.6	
538.46	8049.2	
538.66	5033.9	
538.86	5502.2	
539.05	7032	
539.25	7456.7	
539.44	5688.6	
539.64	5389.6	
539.83	6848.4	
540.03	7935.2	
540.22	5207.3	
540.42	5409.4	
540.61	7233.4	
540.81	7208.8	
541	5933.6	
541.2	6442.2	
541.39	6698.9	
541.59	7066.9	
541.78	6140.5	
541.98	5286.5	
542.18	6422.4	
542.37	6361.7	
542.57	5702.9	
542.76	6158.2	
542.96	6502.3	
543.15	7247.8	
543.35	5728.9	
543.54	5148.6	
543.74	7617.8	
543.93	7231.4	
544.13	5752.1	
544.32	6918	
544.52	7503.1	
544.71	6656.6	
544.91	4857.1	
545.1	6152.8	
545.3	6655.9	
545.49	7388.4	
545.69	4807.3	
545.88	5453.1	
546.08	8339.3	
546.27	7890.8	
546.47	5922	
546.66	5280.3	
546.86	7585	
547.05	8290.2	
547.24	5486.5	
547.44	5318.6	
547.63	6582.2	
547.83	7707.9	
548.02	5685.2	
548.22	5991.7	
548.41	6485.2	
548.61	7778.9	
548.8	5310.4	
549	5223	
549.19	7085.3	
549.39	7420.5	
549.58	4973.2	
549.78	5574.6	
549.97	7477.8	
550.17	7008.8	
550.36	6500.9	
550.55	7434.1	
550.75	7018.4	
550.94	7948.8	
551.14	5210.7	
551.33	5651	
551.53	6324.8	
551.72	7344	
551.92	5665.4	
552.11	5392.3	
552.31	7346.7	
552.5	7531.1	
552.69	7066.2	
552.89	5083.7	
553.08	7386.3	
553.28	7024.5	
553.47	5501.5	
553.67	6591.7	
553.86	8082.6	
554.06	6370.5	
554.25	4659.8	
554.44	5264	
554.64	8845.2	
554.83	8279.9	
555.03	5220.3	
555.22	5623.7	
555.42	7627.3	
555.61	7239.6	
555.8	5464	
556	5837.4	
556.19	6493.4	
556.39	7673.1	
556.58	5517.2	
556.78	5487.2	
556.97	7175.4	
557.16	6853.9	
557.36	6701.6	
557.55	5083.7	
557.75	6219	
557.94	7929.7	
558.13	5315.8	
558.33	5010	
558.52	7692.9	
558.72	6640.9	
558.91	5139	
559.1	5406	
559.3	6404.7	
559.49	6167.1	
559.69	4738.3	
559.88	5693.4	
560.07	7191.8	
560.27	7688.1	
560.46	5898.8	
560.66	6012.2	
560.85	7030.7	
561.04	6262.7	
561.24	5076.9	
561.43	5296.7	
561.63	6481.1	
561.82	6805.4	
562.01	6662.7	
562.21	5643.5	
562.4	7238.9	
562.59	8137.9	
562.79	5537.7	
562.98	5128.1	
563.18	7095.5	
563.37	8532.5	
563.56	6014.9	
563.76	5042.8	
563.95	6578.1	
564.14	6445	
564.34	5403.2	
564.53	5182.7	
564.73	7055.3	
564.92	7386.3	
565.11	5524.7	
565.31	4893.3	
565.5	7645.1	
565.69	6511.9	
565.89	5208.7	
566.08	5371.8	
566.27	7488.1	
566.47	7862.8	
566.66	6134.3	
566.85	4704.9	
567.05	7071	
567.24	6456.6	
567.44	5113.8	
567.63	6396.5	
567.82	7311.2	
568.02	7090.8	
568.21	5139	
568.4	5466.7	
568.6	6879.8	
568.79	6861.4	
568.98	4869.4	
569.18	5003.2	
569.37	6866.2	
569.56	8895.7	
569.76	5432.6	
569.95	6339.1	
570.14	7243	
570.34	7092.1	
570.53	4947.9	
570.72	4876.9	
570.91	7602.7	
571.11	6683.9	
571.3	5413.5	
571.49	6341.9	
571.69	6839.5	
571.88	6479.8	
572.07	5878.4	
572.27	5924.1	
572.46	6416.3	
572.65	7460.1	
572.85	5126.1	
573.04	5468.8	
573.23	7666.2	
573.43	6890.7	
573.62	4799.1	
573.81	5485.8	
574	6900.3	
574.2	6729.6	
574.39	5159.5	
574.58	5332.2	
574.78	7709.2	
574.97	6953.5	
575.16	5681.1	
575.36	5864.7	
575.55	7318.1	
575.74	7451.2	
575.93	4724.7	
576.13	5684.5	
576.32	6774.7	
576.51	7252.5	
576.71	5282.4	
576.9	6515.3	
577.09	7602.7	
577.28	7062.1	
577.48	5681.1	
577.67	4660.5	
577.86	6773.3	
578.05	7032.7	
578.25	5326.8	
578.44	5429.2	
578.63	6820.4	
578.83	8000.7	
579.02	4743.8	
579.21	6348	
579.4	7094.2	
579.6	6687.3	
579.79	5500.2	
579.98	7711.3	
580.17	7425.9	
580.37	7443	
580.56	4990.9	
580.75	5679.7	
580.94	7890.1	
581.14	7699.7	
581.33	6115.2	
581.52	5109.7	
581.71	7157.7	
581.91	7941.3	
582.1	4745.1	
582.29	5361.6	
582.48	6886	
582.68	6739.9	
582.87	5842.9	
583.06	5478.3	
583.25	7215	
583.45	6526.2	
583.64	6093.4	
583.83	6853.9	
584.02	6700.3	
584.21	7113.3	
584.41	6135.7	
584.6	5327.4	
584.79	6875.7	
584.98	7625.3	
585.18	4900.1	
585.37	4863.2	
585.56	6341.2	
585.75	7206.8	
585.94	5079	
586.14	5796.4	
586.33	7910.6	
586.52	6834.1	
586.71	5614.8	
586.91	5413.5	
587.1	6341.9	
587.29	7331.7	
587.48	5393.7	
587.67	5152	
587.87	7161.7	
588.06	7367.9	
588.25	6583.5	
588.44	5864.7	
588.63	6905.8	
588.83	7472.4	
589.02	5312.4	
589.21	5237.3	
589.4	6766.5	
589.59	6554.9	
589.78	4559.5	
589.98	4904.2	
590.17	6365.8	
590.36	6965.1	
590.55	4368.3	
590.74	5347.9	
590.94	8309.3	
591.13	6919.4	
591.32	5044.8	
591.51	4598.4	
591.7	7363.8	
591.89	6768.5	
592.09	4674.1	
592.28	5162.2	
592.47	6005.3	
592.66	7866.2	
592.85	4670.1	
593.05	4951.3	
593.24	6671.6	
593.43	7400	
593.62	4883	
593.81	5396.4	
594	6601.3	
594.19	6851.8	
594.39	4826.4	
594.58	4745.1	
594.77	6903.7	
594.96	7612.3	
595.15	4754	
595.34	5339.7	
595.54	7097.6	
595.73	6212.2	
595.92	4190.8	
596.11	5384.8	
596.3	7565.9	
596.49	6268.8	
596.68	5176.6	
596.88	5603.9	
597.07	7346.7	
597.26	6122.7	
597.45	4620.2	
597.64	5832.6	
597.83	6400.6	
598.02	6993.8	
598.22	4659.8	
598.41	5511.8	
598.6	6830	
598.79	6286.6	
598.98	4787.5	
599.17	5741.8	
599.36	6827.2	
599.55	7998	
599.74	6870.9	
599.94	6566.5	
600.13	7376.8	
600.32	6252.4	
600.51	4516.5	
600.7	4575.8	
600.89	7968.6	
601.08	8026	
601.27	4487.1	
601.47	5453.1	
601.66	7299	
601.85	7930.4	
602.04	5168.4	
602.23	5479	
602.42	6374	
602.61	7023.2	
602.8	5087.2	
602.99	4874.2	
603.18	6747.4	
603.37	6961.7	
603.57	5582.1	
603.76	6067.4	
603.95	7712.7	
604.14	7346.1	
604.33	4923.3	
604.52	5263.3	
604.71	6901	
604.9	6597.2	
605.09	5868.1	
605.28	5672.2	
605.47	7514.7	
605.66	7179.5	
605.86	5524.1	
606.05	4976.6	
606.24	7494.9	
606.43	6136.4	
606.62	5335	
606.81	6084.5	
607	7436.2	
607.19	6619	
607.38	4725.3	
607.57	4987.5	
607.76	6522.1	
607.95	5935	
608.14	5412.1	
608.33	6069.5	
608.52	6472.3	
608.72	7363.1	
608.91	4687.8	
609.1	4533.5	
609.29	6598.6	
609.48	6113.2	
609.67	5595.1	
609.86	4655	
610.05	6207.4	
610.24	6625.2	
610.43	4476.9	
610.62	4171.7	
610.81	7758.4	
611	7492.8	
611.19	4712.4	
611.38	5378	
611.57	6898.2	
611.76	8263.6	
611.95	4480.3	
612.14	4362.2	
612.33	6716.7	
612.52	6188.3	
612.71	4986.1	
612.9	4240.7	
613.09	5865.4	
613.28	8117.5	
613.47	4693.9	
613.66	5732.3	
613.85	6804.7	
614.04	6346.7	
614.24	4837.3	
614.43	4008.6	
614.62	6931.7	
614.81	6890	
615	5444.2	
615.19	5448.3	
615.38	6180.8	
615.57	6533	
615.76	5240.8	
615.95	6217	
616.14	7001.3	
616.33	6631.3	
616.52	5640.1	
616.71	5871.5	
616.9	6965.1	
617.09	6731.7	
617.28	4883	
617.47	6170.5	
617.66	6022.4	
617.85	6063.4	
618.04	5778.7	
618.22	5271.5	
618.41	6338.5	
618.6	7150.8	
618.79	5117.9	
618.98	4788.8	
619.17	7474.4	
619.36	5785.5	
619.55	4976.6	
619.74	4975.2	
619.93	6711.2	
620.12	6134.3	
620.31	5516.5	
620.5	5647.6	
620.69	7281.9	
620.88	7667.6	
621.07	6383.5	
621.26	5352	
621.45	6890.7	
621.64	6923.5	
621.83	5516.5	
622.02	4539.7	
622.21	6938.5	
622.4	6665.5	
622.59	6006	
622.78	5720.7	
622.97	6294.1	
623.16	7303.1	
623.35	5386.2	
623.54	4470.7	
623.72	6442.2	
623.91	6557.6	
624.1	5672.2	
624.29	4293.2	
624.48	7694.2	
624.67	6903.7	
624.86	5508.4	
625.05	4589.5	
625.24	7732.4	
625.43	6109.8	
625.62	7390.4	
625.81	4823.6	
626	7273	
626.19	6479.8	
626.38	5560.9	
626.56	4969.7	
626.75	6334.4	
626.94	6965.8	
627.13	5558.9	
627.32	4270.7	
627.51	6942.6	
627.7	8359.1	
627.89	4443.4	
628.08	5570.5	
628.27	6107.7	
628.46	6328.2	
628.65	4716.5	
628.83	4345.1	
629.02	6915.3	
629.21	6196.5	
629.4	5192.3	
629.59	5378	
629.78	6107.7	
629.97	7176.8	
630.16	5367.7	
630.35	4885.1	
630.54	7574.1	
630.72	7266.2	
630.91	4890.5	
631.1	5444.2	
631.29	6757.6	
631.48	6833.4	
631.67	5514.5	
631.86	5022.3	
632.05	6248.4	
632.24	6429.9	
632.42	4581.3	
632.61	5285.8	
632.8	6572.6	
632.99	6137.1	
633.18	5234.6	
633.37	5592.3	
633.56	6740.5	
633.75	6533	
633.93	5255.8	
634.12	4868	
634.31	7582.3	
634.5	7127.6	
634.69	4971.8	
634.88	5459.2	
635.07	6492.1	
635.25	7056.6	
635.44	5926.8	
635.63	6105.7	
635.82	6324.1	
636.01	5885.2	
636.2	5838.1	
636.39	5365	
636.57	7518.8	
636.76	7268.2	
636.95	4837.3	
637.14	6180.1	
637.33	6868.9	
637.52	7733.1	
637.7	4580.6	
637.89	5571.2	
638.08	6408.8	
638.27	7972.1	
638.46	5613.5	
638.65	6151.4	
638.83	7987.1	
639.02	6232	
639.21	5511.1	
639.4	6078.4	
639.59	6794.5	
639.78	6432.7	
639.96	4909	
640.15	4874.8	
640.34	6698.2	
640.53	6800.6	
640.72	4650.9	
640.91	4986.1	
641.09	6068.1	
641.28	7469.6	
641.47	4952.7	
641.66	5765.7	
641.85	6806.8	
642.03	7094.2	
642.22	5614.2	
642.41	5083.7	
642.6	6256.5	
642.79	5666.7	
642.97	4849.6	
643.16	5626.5	
643.35	6273.6	
643.54	6142.5	
643.73	4810	
643.91	5607.3	
644.1	5965.1	
644.29	6507.1	
644.48	4905.6	
644.67	4976.6	
644.85	6293.4	
645.04	6500.9	
645.23	4539.7	
645.42	4802.5	
645.6	6092	
645.79	7236.2	
645.98	4868.7	
646.17	3915.7	
646.36	5901.6	
646.54	6539.8	
646.73	5785.5	
646.92	4539	
647.11	6095.4	
647.29	7221.1	
647.48	4628.4	
647.67	4442.7	
647.86	7456.7	
648.05	7445	
648.23	4982.7	
648.42	6280.4	
648.61	6824.5	
648.8	6587	
648.98	4636.6	
649.17	4977.2	
649.36	6178	
649.55	5616.2	
649.73	4689.8	
649.92	5483.8	
650.11	5956.2	
650.3	6407.4	
650.48	4866	
650.67	4619.5	
650.86	6685.3	
651.05	5560.9	
651.23	4798.4	
651.42	4786.8	
651.61	6102.9	
651.79	6272.9	
651.98	4980	
652.17	4620.2	
652.36	6647	
652.54	5666.7	
652.73	4640.7	
652.92	4479.6	
653.11	6656.6	
653.29	6765.8	
653.48	3936.9	
653.67	5019.6	
653.85	6471.6	
654.04	7532.4	
654.23	5249.6	
654.42	4782.7	
654.6	6064	
654.79	6747.4	
654.98	4248.9	
655.16	4848.2	
655.35	5716.6	
655.54	5646.2	
655.73	4361.5	
655.91	4309.6	
656.1	6847.7	
656.29	5594.4	
656.47	3852.2	
656.66	5639.4	
656.85	5879	
657.03	5891.3	
657.22	4410	
657.41	4490.5	
657.59	5917.9	
657.78	5771.9	
657.97	4089.1	
658.16	4849.6	
658.34	6635.4	
658.53	7015.7	
658.72	5767.8	
658.9	6217.6	
659.09	6015.6	
659.28	6117.3	
659.46	4556	
659.65	4483.7	
659.84	5810.1	
660.02	6375.3	
660.21	4398.4	
660.4	4394.3	
660.58	6820.4	
660.77	6124.1	
660.96	4982	
661.14	4060.4	
661.33	7376.1	
661.52	7181.5	
661.7	4006.5	
661.89	7758.4	
662.08	5734.3	
662.26	5382.1	
662.45	4333.5	
662.64	4449.6	
662.82	6459.3	
663.01	5672.2	
663.2	4496.7	
663.38	5156.8	
663.57	6448.4	
663.75	6270.2	
663.94	4782	
664.13	6023.1	
664.31	5788.2	
664.5	6484.6	
664.69	5122	
664.87	5565.7	
665.06	5536.3	
665.25	6313.9	
665.43	5820.3	
665.62	5907.7	
665.8	6657.3	
665.99	5909.8	
666.18	4825.7	
666.36	4894	
666.55	6602.7	
666.74	6507.1	
666.92	4436.6	
667.11	6096.8	
667.29	5986.9	
667.48	6614.3	
667.67	5668.8	
667.85	4812	
668.04	6104.3	
668.22	6034.7	
668.41	4855.7	
668.6	5027.8	
668.78	5792.3	
668.97	5968.5	
669.15	5205.3	
669.34	4170.3	
669.53	5803.3	
669.71	6168.5	
669.9	4425.7	
670.08	5033.9	
670.27	5833.3	
670.46	6421.1	
670.64	5219.6	
670.83	5542.5	
671.01	5714.5	
671.2	6348.7	
671.38	4397	
671.57	4325.3	
671.76	6984.9	
671.94	7465.5	
672.13	4287.8	
672.31	5481.7	
672.5	6563.1	
672.69	5844.2	
672.87	4492.6	
673.06	4758.1	
673.24	6378.1	
673.43	5812.8	
673.61	5176.6	
673.8	4766.3	
673.98	6531	
674.17	6724.2	
674.36	5283.8	
674.54	5229.8	
674.73	6295.5	
674.91	6597.9	
675.1	4879.6	
675.28	4569.7	
675.47	6087.9	
675.65	6676.4	
675.84	4744.5	
676.03	5113.1	
676.21	5864.7	
676.4	5353.4	
676.58	5572.5	
676.77	5304.9	
676.95	7318.8	
677.14	5767.1	
677.32	4456.4	
677.51	4261.1	
677.69	6598.6	
677.88	5394.3	
678.06	4304.8	
678.25	4445.5	
678.44	6068.8	
678.62	5809.4	
678.81	4180.6	
678.99	5202.5	
679.18	6853.2	
679.36	6399.9	
679.55	4648.2	
679.73	5335	
679.92	6449.7	
680.1	5877	
680.29	5861.3	
680.47	4715.1	
680.66	5750	
680.84	6594.5	
681.03	4020.2	
681.21	5172.5	
681.4	5797.1	
681.58	5633.3	
681.77	4531.5	
681.95	4441.4	
682.14	6660	
682.32	7017	
682.51	5324.7	
682.69	4203.8	
682.88	5743.9	
683.06	6419	
683.25	5094	
683.43	5507	
683.62	6023.8	
683.8	6491.4	
683.99	5629.9	
684.17	4955.4	
684.36	7395.9	
684.54	6000.5	
684.73	4181.3	
684.91	4410.6	
685.1	6462	
685.28	5803.3	
685.46	5003.2	
685.65	5118.6	
685.83	6677.1	
686.02	5945.9	
686.2	4512.4	
686.39	4633.2	
686.57	5869.5	
686.76	7251.9	
686.94	4437.9	
687.13	4654.4	
687.31	6496.8	
687.5	5927.5	
687.68	4040	
687.86	5413.5	
688.05	7724.3	
688.23	5426.4	
688.42	5408	
688.6	4532.8	
688.79	5809.4	
688.97	5834	
689.16	4936.3	
689.34	3812.6	
689.52	6534.4	
689.71	6790.4	
689.89	5134.9	
690.08	4442	
690.26	6047.7	
690.45	5943.2	
690.63	5387.5	
690.81	4653.7	
691	5796.4	
691.18	5706.3	
691.37	4743.1	
691.55	7019.1	
691.74	5753.4	
691.92	7769.3	
692.1	4808.6	
692.29	4161.5	
692.47	5967.8	
692.66	5258.5	
692.84	4425.7	
693.02	5039.4	
693.21	5280.3	
693.39	5890.6	
693.58	5087.2	
693.76	4521.2	
693.94	7043.6	
694.13	6850.5	
694.31	4416.1	
694.5	5520.6	
694.68	5659.2	
694.86	5965.1	
695.05	4727.4	
695.23	4913.1	
695.42	6397.9	
695.6	8677.2	
695.78	5358.9	
695.97	4498	
696.15	6391	
696.34	5788.2	
696.52	4265.9	
696.7	5150	
696.89	6192.4	
697.07	5579.3	
697.25	5076.9	
697.44	6543.9	
697.62	6144.6	
697.81	6526.2	
697.99	4787.5	
698.17	5191.6	
698.36	5442.1	
698.54	6197.8	
698.72	5023	
698.91	4060.4	
699.09	5769.8	
699.28	5611.4	
699.46	4632.5	
699.64	4618.9	
699.83	5558.9	
700.01	6915.3	
700.19	5362.9	
700.38	3765.5	
700.56	6759	
700.74	5677.7	
700.93	4218.1	
701.11	5034.6	
701.29	6258.6	
701.48	7219.8	
701.66	4320.5	
701.84	4433.2	
702.03	5773.2	
702.21	6421.1	
702.39	3964.9	
702.58	4561.5	
702.76	6160.3	
702.94	6274.3	
703.13	4019.5	
703.31	6440.2	
703.49	5433.9	
703.68	6999.3	
703.86	4163.5	
704.04	5160.2	
704.23	5938.4	
704.41	6397.2	
704.59	4326.7	
704.78	5641.5	
704.96	7053.2	
705.14	6422.4	
705.33	4111.6	
705.51	5003.9	
705.69	5804.6	
705.87	6641.6	
706.06	5294.7	
706.24	4073.4	
706.42	6105	
706.61	6394.4	
706.79	5225.1	
706.97	4136.9	
707.16	5527.5	
707.34	6178.7	
707.52	5254.4	
707.7	4343.1	
707.89	5663.3	
708.07	5416.2	
708.25	5228.5	
708.44	5347.2	
708.62	5658.5	
708.8	6793.8	
708.98	5517.2	
709.17	4386.7	
709.35	6045.6	
709.53	6092	
709.72	4091.8	
709.9	4344.4	
710.08	6334.4	
710.26	6339.1	
710.45	5841.5	
710.63	4463.2	
710.81	5986.9	
710.99	6034	
711.18	5118.6	
711.36	4648.2	
711.54	5808.7	
711.72	6609.5	
711.91	4762.9	
712.09	4170.3	
712.27	6072.9	
712.45	6703	
712.64	5046.9	
712.82	4009.2	
713	5533.6	
713.18	5715.9	
713.37	4145.8	
713.55	5459.9	
713.73	6690.7	
713.91	5294	
714.1	4646.2	
714.28	4207.9	
714.46	6404	
714.64	5670.8	
714.83	3704.1	
715.01	4579.3	
715.19	5886.5	
715.37	5185.5	
715.55	4293.2	
715.74	4645.5	
715.92	6812.2	
716.1	4761.5	
716.28	5799.2	
716.47	4802.5	
716.65	5444.9	
716.83	5717.9	
717.01	4650.9	
717.19	4817.5	
717.38	7674.4	
717.56	5210.7	
717.74	4947.9	
717.92	3993.5	
718.1	6440.2	
718.29	5612.1	
718.47	3528.7	
718.65	4210.6	
718.83	6247.7	
719.01	6118	
719.2	3383.9	
719.38	4449.6	
719.56	5839.4	
719.74	7405.5	
719.92	4052.2	
720.11	5216.2	
720.29	5901.6	
720.47	5057.8	
720.65	3685.7	
720.83	4597.7	
721.02	5563	
721.2	5231.9	
721.38	4691.2	
721.56	3921.9	
721.74	4761.5	
721.92	4975.9	
722.11	5208	
722.29	4888.5	
722.47	6287.3	
722.65	5373.2	
722.83	3958.7	
723.01	4941.7	
723.2	5545.9	
723.38	5793	
723.56	3402.4	
723.74	4579.9	
723.92	4995	
724.1	6239.5	
724.29	3868.6	
724.47	5147.2	
724.65	5099.4	
724.83	4978.6	
725.01	3781.9	
725.19	4686.4	
725.37	5101.5	
725.56	5124	
725.74	3641.3	
725.92	3964.2	
726.1	5001.1	
726.28	5354.8	
726.46	4364.2	
726.64	4080.9	
726.83	5292	
727.01	5603.9	
727.19	3622.2	
727.37	4482.3	
727.55	5412.8	
727.73	5930.9	
727.91	3631	
728.09	3414	
728.28	5924.8	
728.46	6669.6	
728.64	4603.2	
728.82	4558.1	
729	7064.1	
729.18	6210.1	
729.36	3707.5	
729.54	6094.8	
729.72	7304.4	
729.91	5498.1	
730.09	5616.2	
730.27	4376.5	
730.45	5346.6	
730.63	6070.2	
730.81	4919.2	
730.99	3941	
731.17	6531.7	
731.35	5108.3	
731.53	4545.1	
731.71	4123.2	
731.9	6236.7	
732.08	6501.6	
732.26	4391.5	
732.44	4071.4	
732.62	6537.8	
732.8	5941.2	
732.98	4830.5	
733.16	3867.9	
733.34	6081.8	
733.52	4781.3	
733.7	4417.5	
733.88	4696.7	
734.07	5854.5	
734.25	5612.8	
734.43	3761.4	
734.61	5413.5	
734.79	7101.7	
734.97	5453.1	
735.15	3997.6	
735.33	4349.9	
735.51	5922	
735.69	5481.7	
735.87	5532.9	
736.05	4553.3	
736.23	5717.9	
736.41	5439.4	
736.59	4388.1	
736.77	4504.2	
736.95	6156.9	
737.13	5569.8	
737.32	4049.5	
737.5	4269.3	
737.68	6651.8	
737.86	5411.4	
738.04	3824.9	
738.22	5773.2	
738.4	5287.2	
738.58	5595.7	
738.76	4484.4	
738.94	3483.6	
739.12	5356.1	
739.3	5241.4	
739.48	5130.8	
739.66	4818.2	
739.84	5671.5	
740.02	5664	
740.2	3545	
740.38	3928.7	
740.56	6065.4	
740.74	4900.8	
740.92	4639.3	
741.1	4480.3	
741.28	5470.1	
741.46	5382.7	
741.64	4158.1	
741.82	4673.5	
742	5569.8	
742.18	5520	
742.36	4341.7	
742.54	3958.7	
742.72	6131.6	
742.9	4844.1	
743.08	4768.4	
743.26	3606.5	
743.44	6347.3	
743.62	6244.3	
743.8	4898.1	
743.98	3944.4	
744.16	5922.7	
744.34	5653.1	
744.52	4861.2	
744.7	4800.4	
744.88	6066.8	
745.06	5604.6	
745.24	4971.1	
745.42	5061.9	
745.6	6100.9	
745.78	5915.2	
745.96	3697.9	
746.14	4102.8	
746.32	7049.1	
746.5	6212.2	
746.68	4677.6	
746.86	4118.5	
747.03	6656.6	
747.21	4878.9	
747.39	4689.8	
747.57	4159.4	
747.75	5943.9	
747.93	6219.7	
748.11	4146.5	
748.29	4018.1	
748.47	7356.3	
748.65	5536.3	
748.83	4864.6	
749.01	4586.1	
749.19	6031.3	
749.37	5193	
749.55	4416.1	
749.73	4515.1	
749.91	5711.1	
750.09	5418.2	
750.26	4636.6	
750.44	4024.9	
750.62	5738.4	
750.8	5740.5	
750.98	3829	
751.16	4207.9	
751.34	5805.3	
751.52	5090.6	
751.7	5034.6	
751.88	3822.9	
752.06	6303	
752.24	6118.6	
752.42	3774.4	
752.59	4147.1	
752.77	5680.4	
752.95	6894.1	
753.13	4830.5	
753.31	4292.5	
753.49	5415.5	
753.67	5816.9	
753.85	4657.1	
754.03	4214.7	
754.21	6140.5	
754.38	6504.3	
754.56	4454.3	
754.74	3451.5	
754.92	5522.7	
755.1	6142.5	
755.28	3542.3	
755.46	3636.5	
755.64	7030	
755.82	7218.4	
755.99	4067.9	
756.17	4168.3	
756.35	4773.8	
756.53	6428.6	
756.71	3085.6	
756.89	4031.8	
757.07	6036	
757.25	5030.5	
757.42	4518.5	
757.6	5520	
757.78	5996.5	
757.96	4967	
758.14	4195.6	
758.32	3704.1	
758.5	4465.9	
758.67	5610.8	
758.85	4012.7	
759.03	4222.9	
759.21	5555.5	
759.39	4954	
759.57	3566.2	
759.75	4812.7	
759.92	6217.6	
760.1	5358.9	
760.28	5089.2	
760.46	5409.4	
760.64	5186.1	
760.82	4908.3	
760.99	4723.3	
761.17	4059.1	
761.35	6042.2	
761.53	4898.1	
761.71	4189.5	
761.89	4878.3	
762.06	5794.4	
762.24	5311.7	
762.42	4246.8	
762.6	3956.7	
762.78	5291.3	
762.96	5997.8	
763.13	4629.1	
763.31	4263.2	
763.49	6156.9	
763.67	5245.5	
763.85	5177.3	
764.02	5719.3	
764.2	6390.3	
764.38	5528.8	
764.56	4147.1	
764.74	5027.1	
764.91	6533.7	
765.09	5406.6	
765.27	3779.2	
765.45	3644.7	
765.63	6593.1	
765.8	6400.6	
765.98	3379.8	
766.16	3704.8	
766.34	4950.6	
766.52	4745.1	
766.69	4702.8	
766.87	3591.5	
767.05	5455.1	
767.23	6287.3	
767.41	3878.2	
767.58	4212.7	
767.76	6001.2	
767.94	6121.4	
768.12	3993.5	
768.29	4847.5	
768.47	5502.9	
768.65	6269.5	
768.83	3632.4	
769	4886.5	
769.18	5053.7	
769.36	5780.7	
769.54	4820.9	
769.72	3742.3	
769.89	6130.9	
770.07	6220.4	
770.25	4029	
770.43	5280.3	
770.6	6924.9	
770.78	7298.3	
770.96	4266.6	
771.14	4928.8	
771.31	6059.3	
771.49	5341.8	
771.67	3403	
771.85	3733.4	
772.02	4641.4	
772.2	5367	
772.38	4373.1	
772.55	4001	
772.73	5678.3	
772.91	5463.3	
773.09	4343.1	
773.26	4463.2	
773.44	5720.7	
773.62	5366.4	
773.8	3819.5	
773.97	3598.3	
774.15	5745.9	
774.33	5244.8	
774.5	3729.4	
774.68	4130.1	
774.86	5955.5	
775.04	5386.8	
775.21	3858.4	
775.39	3863.8	
775.57	5701.5	
775.74	6111.8	
775.92	3710.2	
776.1	3591.5	
776.27	5676.3	
776.45	6936.5	
776.63	3851.5	
776.81	3394.2	
776.98	5257.1	
777.16	6458.6	
777.34	4015.4	
777.51	4006.5	
777.69	5256.5	
777.87	5068	
778.04	4017.4	
778.22	4698	
778.4	5057.8	
778.57	5786.9	
778.75	3344.3	
778.93	3646.7	
779.1	4958.1	
779.28	4791.6	
779.46	3351.8	
779.64	3865.9	
779.81	5952.8	
779.99	6875	
780.17	4705.5	
780.34	4864.6	
780.52	5410.7	
780.69	5612.8	
780.87	4159.4	
781.05	3766.9	
781.22	5473.5	
781.4	5565	
781.58	3968.3	
781.75	3024.8	
781.93	5371.8	
782.11	4900.1	
782.28	4818.2	
782.46	3905.5	
782.64	4752.7	
782.81	5759.6	
782.99	4045.4	
783.17	3955.3	
783.34	5557.5	
783.52	4799.1	
783.69	4189.5	
783.87	5048.9	
784.05	4952	
784.22	4941.1	
784.4	5060.5	
784.58	4286.4	
784.75	5880.4	
784.93	4935.6	
785.1	3944.4	
785.28	4579.3	
785.46	5591	
785.63	4880.3	
785.81	3932.1	
785.99	3842	
786.16	5090.6	
786.34	5496.7	
786.51	3833.1	
786.69	4218.1	
786.87	4737.6	
787.04	5200.5	
787.22	3712.3	
787.39	4650.9	
787.57	4903.5	
787.75	6052.4	
787.92	4838	
788.1	4799.8	
788.27	4995	
788.45	4742.4	
788.63	4536.9	
788.8	3235.8	
788.98	5486.5	
789.15	4642.1	
789.33	3353.9	
789.5	3990.8	
789.68	5979.4	
789.86	6034.7	
790.03	4476.9	
790.21	3885	
790.38	5853.8	
790.56	5065.3	
790.73	3669.3	
790.91	3741.6	
791.09	4971.8	
791.26	5748.6	
791.44	4031.1	
791.61	3367.5	
791.79	4967.7	
791.96	5076.2	
792.14	3521.8	
792.32	3102.7	
792.49	4949.9	
792.67	5096.7	
792.84	3612.6	
793.02	3452.9	
793.19	5431.2	
793.37	6244.9	
793.54	3110.9	
793.72	3563.5	
793.89	6381.5	
794.07	4971.8	
794.25	4177.2	
794.42	3235.1	
794.6	6137.8	
794.77	5715.9	
794.95	4394.9	
795.12	3813.3	
795.3	4977.9	
795.47	5656.5	
795.65	4187.4	
795.82	4098	
796	4875.5	
796.17	6743.3	
796.35	3923.9	
796.52	4702.8	
796.7	5576.6	
796.87	5669.5	
797.05	4913.8	
797.22	4825	
797.4	5617.6	
797.57	6675	
797.75	4083.6	
797.92	3849.5	
798.1	5900.9	
798.27	4953.4	
798.45	3218	
798.62	3469.9	
798.8	5307.7	
798.97	5829.9	
799.15	4295.3	
799.32	4102.8	
799.5	4556.7	
799.67	5395	
799.85	4436.6	
800.02	3204.4	
800.2	4979.3	
800.37	5326.8	
800.55	4591.5	
800.72	3842	
800.9	5822.4	
801.07	6236.1	
801.25	5170.4	
801.42	4149.9	
801.6	5872.2	
801.77	5584.1	
801.95	3931.4	
802.12	3709.6	
802.29	5582.8	
802.47	5528.8	
802.64	4177.9	
802.82	3175.7	
802.99	4924.7	
803.17	5992.4	
803.34	4027.7	
803.52	3689.8	
803.69	6697.5	
803.87	4778.6	
804.04	4061.1	
804.21	4095.3	
804.39	6105.7	
804.56	5181.4	
804.74	3401	
804.91	4229.7	
805.09	5040.7	
805.26	5111	
805.44	3476.8	
805.61	3833.1	
805.78	5710.4	
805.96	5718.6	
806.13	4257.7	
806.31	4558.8	
806.48	4583.4	
806.66	5065.3	
806.83	4212	
807	4070.7	
807.18	4995.7	
807.35	5433.9	
807.53	4086.4	
807.7	3245.3	
807.87	6253.8	
808.05	5081	
808.22	4547.2	
808.4	3295.9	
808.57	5088.5	
808.74	4680.3	
808.92	3738.2	
809.09	4828.4	
809.27	4949.3	
809.44	5585.5	
809.61	3345	
809.79	3723.9	
809.96	6242.2	
810.14	5840.8	
810.31	3199.6	
810.48	3986	
810.66	5165	
810.83	5931.6	
811.01	3775.1	
811.18	4218.8	
811.35	5809.4	
811.53	4500.8	
811.7	4580.6	
811.87	4255.7	
812.05	5111	
812.22	5018.9	
812.39	3662.5	
812.57	3540.9	
812.74	5040.7	
812.92	6822.5	
813.09	3966.2	
813.26	4315.8	
813.44	6492.1	
813.61	5002.5	
813.78	3308.2	
813.96	4422.9	
814.13	5077.6	
814.3	4724	
814.48	4763.6	
814.65	3933.5	
814.82	6306.4	
815	4885.1	
815.17	4085.7	
815.34	4994.3	
815.52	4951.3	
815.69	4984.8	
815.87	4012	
816.04	3521.8	
816.21	5110.4	
816.38	4446.8	
816.56	3906.8	
816.73	3617.4	
816.9	6417.7	
817.08	5859.9	
817.25	3727.3	
817.42	4653.7	
817.6	4659.8	
817.77	5110.4	
817.94	4143.7	
818.12	3679.5	
818.29	4844.1	
818.46	7595.2	
818.64	3819.5	
818.81	3534.8	
818.98	4733.5	
819.16	6886.6	
819.33	4347.8	
819.5	4027.7	
819.67	5465.3	
819.85	6079.1	
820.02	4009.2	
820.19	4257	
820.37	5306.3	
820.54	4865.3	
820.71	4183.3	
820.88	5234.6	
821.06	5236.7	
821.23	4872.8	
821.4	4186	
821.58	4145.8	
821.75	5819	
821.92	5318.6	
822.09	3313.6	
822.27	3400.3	
822.44	5104.2	
822.61	5005.2	
822.79	3397.6	
822.96	6478.4	
823.13	5613.5	
823.3	4766.3	
823.48	3856.3	
823.65	3523.2	
823.82	5855.1	
823.99	4616.1	
824.17	4955.4	
824.34	3539.6	
824.51	6719.4	
824.68	5155.4	
824.86	3708.2	
825.03	4138.3	
825.2	5082.4	
825.37	6149.4	
825.55	3655.6	
825.72	4070	
825.89	6787.7	
826.06	6254.5	
826.24	4007.2	
826.41	3994.2	
826.58	6238.1	
826.75	5360.9	
826.92	3122.5	
827.1	3510.2	
827.27	8389.8	
827.44	6733.7	
827.61	3859.7	
827.79	4586.8	
827.96	4754	
828.13	5203.2	
828.3	3938.2	
828.47	3342.3	
828.65	5312.4	
828.82	5250.3	
828.99	5158.2	
829.16	4505.5	
829.34	5727.5	
829.51	5438	
829.68	4089.1	
829.85	4276.2	
830.02	5998.5	
830.2	5710.4	
830.37	3178.4	
830.54	4973.2	
830.71	6561.7	
830.88	5044.1	
831.05	3201.7	
831.23	3693.9	
831.4	6201.9	
831.57	7074.4	
831.74	3747.8	
831.91	3330.7	
832.09	5346.6	
832.26	5711.8	
832.43	3926	
832.6	4450.9	
832.77	5349.3	
832.94	6115.2	
833.12	3132	
833.29	3869.3	
833.46	5484.5	
833.63	7215.7	
833.8	4309.6	
833.97	3986	
834.15	5718.6	
834.32	5517.9	
834.49	4127.3	
834.66	4176.5	
834.83	5925.5	
835	4755.4	
835.17	3817.4	
835.35	3764.8	
835.52	5648.3	
835.69	5460.6	
835.86	4040.6	
836.03	3274.7	
836.2	5646.2	
836.37	5261.2	
836.55	3965.6	
836.72	3719.1	
836.89	5211.4	
837.06	5663.3	
837.23	4006.5	
837.4	4396.3	
837.57	6524.1	
837.75	7174	
837.92	3599	
838.09	3800.3	
838.26	5283.1	
838.43	5954.8	
838.6	4136.9	
838.77	3661.8	
838.94	6872.3	
839.11	6592.4	
839.29	3880.2	
839.46	3117.7	
839.63	5648.3	
839.8	5415.5	
839.97	3793.5	
840.14	3790.1	
840.31	5464	
840.48	5701.5	
840.65	3122.5	
840.82	3735.5	
841	5639.4	
841.17	5582.1	
841.34	3525.2	
841.51	3552.5	
841.68	5590.3	
841.85	5339.1	
842.02	3633.1	
842.19	3066.5	
842.36	5376.6	
842.53	5355.4	
842.7	3454.2	
842.87	4343.7	
843.05	7159.7	
843.22	5334.3	
843.39	3336.8	
843.56	3568.9	
843.73	5111	
843.9	5764.3	
844.07	5758.2	
844.24	4769.7	
844.41	8409	
844.58	4922	
844.75	3381.9	
844.92	3693.2	
845.09	5683.1	
845.26	5679	
845.43	3474.7	
845.6	3663.8	
845.77	5700.2	
845.94	5461.2	
846.12	3876.1	
846.29	4096.6	
846.46	5915.9	
846.63	5653.8	
846.8	3526.6	
846.97	4169.7	
847.14	6085.9	
847.31	5616.9	
847.48	3880.2	
847.65	4367.6	
847.82	5979.4	
847.99	5918.6	
848.16	4724	
848.33	4352.6	
848.5	5201.8	
848.67	6186.2	
848.84	3481.5	
849.01	3633.1	
849.18	5137	
849.35	4755.4	
849.52	4400.4	
849.69	3425.6	
849.86	5864.7	
850.03	6097.5	
850.2	3454.9	
850.37	4251.6	
850.54	6081.8	
850.71	5345.9	
850.88	4136.2	
851.05	3429	
851.22	5551.4	
851.39	6275.7	
851.56	3249.4	
851.73	4042	
851.9	4971.8	
852.07	5912.5	
852.24	3878.9	
852.41	3448.1	
852.58	5567.7	
852.75	5056.4	
852.92	3942.3	
853.09	3406.5	
853.26	5270.1	
853.43	6111.8	
853.6	3476.8	
853.77	2983.9	
853.94	6289.3	
854.11	5587.5	
854.28	5178.6	
854.44	3784.6	
854.61	6645.7	
854.78	5786.9	
854.95	3522.5	
855.12	4427.7	
855.29	4563.6	
855.46	6393.8	
855.63	3441.3	
855.8	4863.9	
855.97	5200.5	
856.14	6043.6	
856.31	4984.1	
856.48	3764.8	
856.65	5240.1	
856.82	4947.2	
856.99	3343.7	
857.16	3775.8	
857.33	6946.7	
857.49	5302.2	
857.66	3756	
857.83	4048.8	
858	5264	
858.17	5454.4	
858.34	3296.5	
858.51	3492.5	
858.68	6380.1	
858.85	6440.2	
859.02	4042	
859.19	4289.8	
859.36	4940.4	
859.52	5059.2	
859.69	3507.5	
859.86	4145.8	
860.03	5025	
860.2	6294.8	
860.37	3149.1	
860.54	3483.6	
860.71	5960.3	
860.88	6320.7	
861.05	3929.4	
861.21	4455	
861.38	6330.3	
861.55	4891.2	
861.72	3123.8	
861.89	3899.3	
862.06	6007.4	
862.23	6483.2	
862.4	3418.7	
862.56	3665.9	
862.73	5780.7	
862.9	5500.8	
863.07	4098.7	
863.24	3142.3	
863.41	4815.5	
863.58	4966.3	
863.75	3562.1	
863.91	4048.8	
864.08	6254.5	
864.25	5864	
864.42	4307.6	
864.59	4877.6	
864.76	6617	
864.93	4999.8	
865.09	3386.7	
865.26	3746.4	
865.43	6202.6	
865.6	6546	
865.77	3058.3	
865.94	3474.7	
866.1	6248.4	
866.27	5965.7	
866.44	5282.4	
866.61	3319.8	
866.78	5414.8	
866.95	5864	
867.11	3346.4	
867.28	3111.5	
867.45	5990.3	
867.62	5035.3	
867.79	4071.4	
867.96	3420.1	
868.12	4948.6	
868.29	5937.1	
868.46	3513.6	
868.63	4634.6	
868.8	6105.7	
868.97	5885.9	
869.13	3710.2	
869.3	3633.8	
869.47	5797.1	
869.64	5969.8	
869.81	3560.1	
869.97	3515.7	
870.14	5711.1	
870.31	6397.9	
870.48	3462.4	
870.65	4418.2	
870.81	5309.7	
870.98	5252.4	
871.15	3964.2	
871.32	3654.3	
871.48	5785.5	
871.65	6450.4	
871.82	3483.6	
871.99	3833.8	
872.16	6793.8	
872.32	6168.5	
872.49	3511.6	
872.66	3430.3	
872.83	5859.9	
872.99	5131.5	
873.16	4020.2	
873.33	3429	
873.5	5588.2	
873.67	5541.8	
873.83	3699.3	
874	4652.3	
874.17	5682.4	
874.34	6791.7	
874.5	4496.7	
874.67	4375.1	
874.84	6324.1	
875.01	4934.2	
875.17	4873.5	
875.34	3435.8	
875.51	5612.1	
875.68	6775.4	
875.84	4259.1	
876.01	5180.7	
876.18	5857.2	
876.34	5829.2	
876.51	3521.8	
876.68	3431.7	
876.85	5401.2	
877.01	6157.6	
877.18	5068.7	
877.35	3491.1	
877.52	5468.8	
877.68	4931.5	
877.85	3419.4	
878.02	3468.6	
878.18	5500.2	
878.35	5126.7	
878.52	2795.5	
878.69	3917.8	
878.85	5912.5	
879.02	5882.4	
879.19	4962.2	
879.35	3723.9	
879.52	5874.3	
879.69	6064.7	
879.86	3003	
880.02	3906.2	
880.19	5420.3	
880.36	6641.6	
880.52	4048.2	
880.69	4145.1	
880.86	5959.6	
881.02	6019	
881.19	3839.3	
881.36	3773.7	
881.52	5830.6	
881.69	5218.9	
881.86	3844	
882.02	3718.4	
882.19	6146.6	
882.36	7224.6	
882.52	3549.1	
882.69	4999.1	
882.86	5728.9	
883.02	5510.4	
883.19	4230.4	
883.36	3992.9	
883.52	5981.4	
883.69	6856.6	
883.86	3541.6	
884.02	3162.7	
884.19	5911.8	
884.36	5483.8	
884.52	3994.9	
884.69	3665.9	
884.86	5169.8	
885.02	6630	
885.19	3917.8	
885.36	4032.5	
885.52	5472.9	
885.69	5661.3	
885.86	5091.9	
886.02	4498.7	
886.19	5926.1	
886.35	5426.4	
886.52	3882.3	
886.69	4872.8	
886.85	4985.4	
887.02	6346.7	
887.19	6346.7	
887.35	6346.7	
887.52	6346.7	
887.68	6346.7	
887.85	6346.7	
888.02	6346.7	
888.18	6346.7	
888.35	6346.7	
888.51	6346.7	
888.68	6346.7	
888.85	6346.7	
889.01	6346.7	
889.18	6346.7	
889.35	6346.7	
889.51	6346.7	
889.68	6346.7	
889.84	6346.7	
890.01	6346.7	
890.17	6346.7	
890.34	6346.7	
890.51	6346.7	
890.67	6346.7	
890.84	6346.7	
891	6346.7	
891.17	6346.7	
891.34	6346.7	
891.5	6346.7	
891.67	6346.7	
891.83	6346.7	
892	6346.7	
892.16	6346.7	
892.33	6346.7	
892.5	6346.7	
892.66	6346.7	
892.83	6346.7	
892.99	6346.7	
893.16	6346.7	
893.32	6346.7	
893.49	6346.7	
893.65	6346.7	
893.82	6346.7	
893.99	6346.7	
894.15	6346.7	
894.32	6346.7	
894.48	6346.7	
894.65	6346.7	
894.81	6346.7	
894.98	6346.7	
895.14	6346.7	
895.31	6346.7	
895.47	6346.7	
895.64	6346.7	
895.81	6346.7	
895.97	6346.7	
896.14	6346.7	
896.3	6346.7	
896.47	6346.7	
896.63	6346.7	
896.8	6346.7	
896.96	6346.7	
897.13	6346.7	
897.29	6346.7	
897.46	6346.7	
897.62	6346.7	
897.79	6346.7	
897.95	6346.7	
898.12	6346.7	
898.28	6346.7	
898.45	6346.7	
898.61	6346.7	
898.78	6346.7	
898.94	6346.7	
899.11	6346.7	
899.27	6346.7	
899.44	6346.7	
899.6	6346.7	
899.77	6346.7	
899.93	6346.7	
900.1	6346.7	
900.26	6346.7	
900.43	6346.7	
900.59	6346.7	
900.76	6346.7	
900.92	6346.7	
901.09	6346.7	
901.25	6346.7	
901.42	6346.7	
901.58	6346.7	
901.75	6346.7	
901.91	6346.7	
902.07	6346.7	
902.24	6346.7	
902.4	6346.7	
902.57	6346.7	
902.73	6346.7	
902.9	6346.7	
903.06	6346.7	
903.23	6346.7	
903.39	6346.7	
903.56	6346.7	
903.72	6346.7	
903.88	6346.7	
904.05	6346.7	
904.21	6346.7	
904.38	6346.7	
904.54	6346.7	
904.71	6346.7	
904.87	6346.7	
905.03	6346.7	
905.2	6346.7	
905.36	6346.7	
905.53	6346.7	
905.69	6346.7	
905.86	6346.7	
906.02	6346.7	
906.18	6346.7	
906.35	6346.7	
906.51	6346.7	
906.68	6346.7	
906.84	6346.7	
907.01	6346.7	
907.17	6346.7	
907.33	6346.7	
907.5	6346.7	
907.66	6346.7	
907.83	6346.7	
907.99	6346.7	
908.15	6346.7	
908.32	6346.7	
908.48	6346.7	
908.65	6346.7	
908.81	6346.7	
908.97	6346.7	
909.14	6346.7	
909.3	6346.7	
909.47	6346.7	
909.63	6346.7	
909.79	6346.7	
909.96	6346.7	
910.12	6346.7	
910.28	6346.7	
910.45	6346.7	
910.61	6346.7	
910.78	6346.7	
910.94	6346.7	
911.1	6346.7	
911.27	6346.7	
911.43	6346.7	
911.59	6346.7	
911.76	6346.7	
911.92	6346.7	
912.08	6346.7	
912.25	6346.7	
912.41	6346.7	
912.57	6346.7	
912.74	6346.7	
912.9	6346.7	
913.07	6346.7	
913.23	6346.7	
913.39	6346.7	
913.56	6346.7	
913.72	6346.7	
913.88	6346.7	
914.05	6346.7	
914.21	6346.7	
914.37	6346.7	
914.54	6346.7	
914.7	6346.7	
914.86	6346.7	
915.03	6346.7	
915.19	6346.7	
