Wavelength	Intensities	
nm	a.u.	
179.22	1700.7	
179.44	1698.1	
179.65	1703.2	
179.86	1693	
180.08	1701.9	
180.29	3967.6	
180.51	3041.9	
180.72	5010	
180.94	5606.7	
181.15	2732.7	
181.37	2745	
181.58	4821.6	
181.79	5050.3	
182.01	2845.3	
182.22	3031	
182.44	5029.8	
182.65	4337.6	
182.87	3681.6	
183.08	3320.4	
183.29	5322.7	
183.51	4457.1	
183.72	3041.2	
183.94	4213.4	
184.15	4805.9	
184.37	4739.7	
184.58	2680.8	
184.79	3532.1	
185.01	4433.2	
185.22	5025.7	
185.44	3730	
185.65	3212.6	
185.86	4741	
186.08	4344.4	
186.29	2633	
186.51	2835.8	
186.72	4507.6	
186.94	5161.6	
187.15	3227.6	
187.36	3259	
187.58	6526.2	
187.79	4859.8	
188.01	3445.4	
188.22	5125.4	
188.43	5673.6	
188.65	5030.5	
188.86	2820.1	
189.08	3328.6	
189.29	4597	
189.5	4572.4	
189.72	3048.1	
189.93	3146.4	
190.15	5142.4	
190.36	5976.7	
190.57	3370.3	
190.79	3229.6	
191	5225.7	
191.22	5210	
191.43	3392.8	
191.64	2876.7	
191.86	5436.7	
192.07	5209.3	
192.29	2932.7	
192.5	3044.6	
192.71	5177.3	
192.93	4602.5	
193.14	3043.3	
193.35	3143.6	
193.57	4568.3	
193.78	5225.7	
194	2513.5	
194.21	2987.3	
194.42	4391.5	
194.64	4805.2	
194.85	3259.7	
195.07	3752.6	
195.28	4823	
195.49	4190.8	
195.71	3886.4	
195.92	2878.8	
196.13	4902.2	
196.35	4990.9	
196.56	4205.2	
196.78	3282.9	
196.99	5987.6	
197.2	5616.9	
197.42	3730.7	
197.63	3319.1	
197.84	4398.4	
198.06	4978.6	
198.27	3041.2	
198.48	3992.2	
198.7	4583.4	
198.91	4762.2	
199.13	3326.6	
199.34	3345	
199.55	5201.8	
199.77	4164.9	
199.98	2977.1	
200.19	3336.8	
200.41	4717.2	
200.62	4434.5	
200.83	3412.6	
201.05	3667.2	
201.26	4724	
201.47	4490.5	
201.69	2953.9	
201.9	2875.3	
202.11	4788.2	
202.33	5500.2	
202.54	3178.4	
202.76	3495.2	
202.97	4827.1	
203.18	4900.1	
203.4	3455.6	
203.61	3459.7	
203.82	4812	
204.04	4519.9	
204.25	3340.2	
204.46	3319.8	
204.68	4841.4	
204.89	4917.9	
205.1	3220.8	
205.32	2889	
205.53	5053	
205.74	5221	
205.96	2525.1	
206.17	3345.7	
206.38	5008	
206.6	5167	
206.81	3810.6	
207.02	3119.7	
207.24	4989.5	
207.45	5276.3	
207.66	3170.3	
207.88	2813.9	
208.09	4891.9	
208.3	4790.2	
208.52	2968.2	
208.73	3250.1	
208.94	4716.5	
209.15	5342.5	
209.37	3168.2	
209.58	3575.1	
209.79	5160.9	
210.01	4639.3	
210.22	2648.7	
210.43	2746.3	
210.65	4730.8	
210.86	5074.2	
211.07	3222.1	
211.29	2905.4	
211.5	5009.3	
211.71	4709	
211.93	2982.5	
212.14	2969.6	
212.35	4774.5	
212.56	4796.3	
212.78	3324.5	
212.99	2784.6	
213.2	5439.4	
213.42	4605.2	
213.63	3030.3	
213.84	3203.7	
214.06	4326.7	
214.27	4415.4	
214.48	3159.3	
214.69	3407.1	
214.91	5320.6	
215.12	5354.1	
215.33	3353.9	
215.55	3668.6	
215.76	5694	
215.97	4975.9	
216.18	3273.3	
216.4	3277.4	
216.61	4496.7	
216.82	5178.6	
217.04	3003	
217.25	3089	
217.46	5224.4	
217.67	5045.5	
217.89	2691	
218.1	2794.8	
218.31	4828.4	
218.53	4910.3	
218.74	3124.5	
218.95	2993.4	
219.16	4758.8	
219.38	5453.7	
219.59	3004.4	
219.8	3521.1	
220.01	5954.8	
220.23	4805.9	
220.44	3818.8	
220.65	2989.4	
220.87	4842.8	
221.08	5270.1	
221.29	2867.2	
221.5	3601.7	
221.72	6169.8	
221.93	4529.4	
222.14	3353.2	
222.35	3872	
222.57	4736.3	
222.78	5093.3	
222.99	3247.4	
223.2	3424.2	
223.42	5013.4	
223.63	5107	
223.84	2557.9	
224.05	2536.1	
224.27	5799.8	
224.48	5403.2	
224.69	3956	
224.9	3343	
225.12	4885.1	
225.33	4667.3	
225.54	2732	
225.75	2986.6	
225.97	4501.4	
226.18	4693.3	
226.39	3171.6	
226.6	3016.7	
226.82	4604.5	
227.03	4477.5	
227.24	3295.9	
227.45	2863.7	
227.67	5069.4	
227.88	5415.5	
228.09	3684.3	
228.3	3672.7	
228.52	5069.4	
228.73	4704.2	
228.94	3125.9	
229.15	2803.7	
229.36	4762.9	
229.58	4727.4	
229.79	3155.9	
230	3556.6	
230.21	5550.7	
230.43	4795	
230.64	3338.2	
230.85	3394.8	
231.06	5098.1	
231.28	5150	
231.49	2847.4	
231.7	3258.3	
231.91	5065.3	
232.12	4787.5	
232.34	2906.8	
232.55	3243.3	
232.76	5280.3	
232.97	4877.6	
233.18	3002.3	
233.4	3296.5	
233.61	4934.2	
233.82	4553.3	
234.03	3099.3	
234.25	3076	
234.46	6351.4	
234.67	4826.4	
234.88	3369.6	
235.09	2955.2	
235.31	4945.8	
235.52	4713.7	
235.73	3260.4	
235.94	2859	
236.15	4553.3	
236.37	5615.5	
236.58	2946.3	
236.79	3208.5	
237	4995	
237.21	4369	
237.43	3410.6	
237.64	2755.9	
237.85	7903.8	
238.06	4399	
238.27	3392.8	
238.48	2820.7	
238.7	4997.7	
238.91	4674.8	
239.12	3134.1	
239.33	3267.9	
239.54	4515.8	
239.76	4668.7	
239.97	3151.1	
240.18	3254.2	
240.39	5720.7	
240.6	4993.6	
240.82	3328.6	
241.03	2753.2	
241.24	4726	
241.45	5372.5	
241.66	2979.1	
241.87	3422.2	
242.09	5415.5	
242.3	5565	
242.51	3483.6	
242.72	3231.7	
242.93	5046.9	
243.14	4734.2	
243.36	3706.8	
243.57	3892.5	
243.78	5423	
243.99	5012.7	
244.2	3224.9	
244.41	2927.9	
244.63	4397.7	
244.84	4934.9	
245.05	3387.3	
245.26	3175.7	
245.47	4994.3	
245.68	5104.2	
245.9	4102.8	
246.11	3372.3	
246.32	4627.7	
246.53	4941.1	
246.74	5049.6	
246.95	2734.7	
247.16	4416.8	
247.38	4820.2	
247.59	2786.6	
247.8	3205.8	
248.01	4489.1	
248.22	4752.7	
248.43	2949.1	
248.64	3168.2	
248.86	4337.6	
249.07	4571.7	
249.28	2914.9	
249.49	3329.3	
249.7	5214.1	
249.91	5248.9	
250.12	2757.2	
250.34	2828.9	
250.55	4790.2	
250.76	4767.7	
250.97	3353.9	
251.18	3385.3	
251.39	5214.8	
251.6	4818.2	
251.81	3291.8	
252.03	3379.8	
252.24	4593.6	
252.45	5081.7	
252.66	2862.4	
252.87	3485.6	
253.08	4775.2	
253.29	5935.7	
253.5	2889.7	
253.72	3828.3	
253.93	4674.8	
254.14	5528.2	
254.35	3077.4	
254.56	3196.9	
254.77	4873.5	
254.98	4477.5	
255.19	3070.6	
255.41	3770.3	
255.62	4849.6	
255.83	5242.8	
256.04	3446.7	
256.25	3347.7	
256.46	5688.6	
256.67	4495.3	
256.88	3312.9	
257.09	3601	
257.31	4503.5	
257.52	4481.6	
257.73	4071.4	
257.94	3107.5	
258.15	4685.8	
258.36	4732.9	
258.57	3756.7	
258.78	2501.3	
258.99	5137.7	
259.2	4607.9	
259.41	3036.5	
259.63	3191.4	
259.84	5335.6	
260.05	5603.9	
260.26	3902.1	
260.47	3003	
260.68	5212.1	
260.89	4640	
261.1	3623.5	
261.31	2934.1	
261.52	5304.2	
261.73	5470.8	
261.95	3868.6	
262.16	3429	
262.37	5263.3	
262.58	5341.8	
262.79	3915.7	
263	3149.1	
263.21	4847.5	
263.42	4631.1	
263.63	3351.2	
263.84	3066.5	
264.05	5174.5	
264.26	5438.7	
264.47	3801.7	
264.69	3389.4	
264.9	5340.4	
265.11	4878.9	
265.32	2971.6	
265.53	3057.6	
265.74	4850.3	
265.95	4333.5	
266.16	3213.9	
266.37	3534.8	
266.58	4884.4	
266.79	4609.3	
267	3070.6	
267.21	2796.8	
267.42	4446.1	
267.63	4752	
267.84	3200.3	
268.06	2779.1	
268.27	5153.4	
268.48	5277.6	
268.69	3172.3	
268.9	3561.4	
269.11	5300.1	
269.32	4390.8	
269.53	3242.6	
269.74	2954.5	
269.95	4987.5	
270.16	4309.6	
270.37	3252.2	
270.58	3650.2	
270.79	4641.4	
271	5137	
271.21	3364.1	
271.42	3265.8	
271.63	4988.2	
271.84	4433.9	
272.05	2700.6	
272.26	2902	
272.47	4823.6	
272.68	4890.5	
272.89	3140.2	
273.11	3508.9	
273.32	4575.8	
273.53	5472.9	
273.74	3419.4	
273.95	3300	
274.16	5198.4	
274.37	4793.6	
274.58	3541.6	
274.79	2936.8	
275	4928.8	
275.21	5225.1	
275.42	4106.9	
275.63	3579.2	
275.84	4988.2	
276.05	6089.3	
276.26	3375.7	
276.47	3151.8	
276.68	4691.9	
276.89	5518.6	
277.1	3583.3	
277.31	2814.6	
277.52	4922.6	
277.73	5171.8	
277.94	2828.2	
278.15	3110.9	
278.36	4893.3	
278.57	4512.4	
278.78	3093.1	
278.99	3381.9	
279.2	4565.6	
279.41	4485.1	
279.62	3950.5	
279.83	2904.7	
280.04	5664	
280.25	4433.2	
280.46	3906.2	
280.67	3208.5	
280.88	4496.7	
281.09	5264	
281.3	3363.4	
281.51	4160.1	
281.72	4531.5	
281.93	5127.4	
282.14	3082.9	
282.35	3265.8	
282.56	5235.3	
282.77	5070.1	
282.98	3106.8	
283.19	3693.2	
283.4	6084.5	
283.61	4696.7	
283.82	2957.9	
284.03	3868.6	
284.24	4885.1	
284.45	5229.8	
284.66	3901.4	
284.87	3760.8	
285.08	5212.8	
285.29	5319.3	
285.5	2801.6	
285.71	3223.5	
285.92	5143.1	
286.12	5720	
286.33	3904.1	
286.54	3151.8	
286.75	5128.1	
286.96	4721.3	
287.17	2981.2	
287.38	3706.8	
287.59	4515.8	
287.8	4563.6	
288.01	3176.4	
288.22	3517.7	
288.43	5066.7	
288.64	4372.4	
288.85	3713.6	
289.06	3538.9	
289.27	5099.4	
289.48	5439.4	
289.69	3879.5	
289.9	3554.6	
290.11	5287.2	
290.32	4596.3	
290.53	3703.4	
290.74	3439.2	
290.94	5107.6	
291.15	5138.4	
291.36	3001.6	
291.57	3481.5	
291.78	4616.8	
291.99	4325.3	
292.2	2909.5	
292.41	3422.8	
292.62	5214.1	
292.83	5025	
293.04	4150.5	
293.25	2992.8	
293.46	4650.3	
293.67	5212.1	
293.88	3005.1	
294.09	2954.5	
294.29	4465.3	
294.5	4861.9	
294.71	3223.5	
294.92	3050.1	
295.13	4627.7	
295.34	5595.7	
295.55	2761.3	
295.76	2693.8	
295.97	5067.4	
296.18	5614.8	
296.39	2875.3	
296.6	3013.2	
296.81	4833.9	
297.01	5101.5	
297.22	3188.7	
297.43	2994.1	
297.64	4585.4	
297.85	4444.1	
298.06	2587.3	
298.27	2774.3	
298.48	4750.6	
298.69	4595.6	
298.9	3224.2	
299.11	2966.1	
299.31	4459.1	
299.52	4435.2	
299.73	3469.3	
299.94	3431.7	
300.15	4805.2	
300.36	4528.1	
300.57	3378.5	
300.78	3376.4	
300.99	4635.9	
301.2	4803.2	
301.4	3063.8	
301.61	3235.8	
301.82	4919.2	
302.03	5059.2	
302.24	3622.9	
302.45	2931.3	
302.66	4999.8	
302.87	5212.1	
303.08	3056.3	
303.29	4029	
303.49	4644.1	
303.7	4790.2	
303.91	2757.2	
304.12	3818.8	
304.33	4391.5	
304.54	4926.7	
304.75	3054.9	
304.96	2977.1	
305.16	5066	
305.37	5542.5	
305.58	2701.3	
305.79	2794.1	
306	5039.4	
306.21	4308.9	
306.42	3040.6	
306.63	4434.5	
306.83	4672.1	
307.04	5209.3	
307.25	3304.7	
307.46	3306.1	
307.67	4248.2	
307.88	4993.6	
308.09	3059.7	
308.29	3065.1	
308.5	4839.4	
308.71	5195.7	
308.92	3200.3	
309.13	2940.2	
309.34	4754	
309.55	4687.1	
309.75	3700	
309.96	3421.5	
310.17	5054.4	
310.38	4521.9	
310.59	3550.5	
310.8	3377.8	
311.01	4612.7	
311.21	4689.2	
311.42	2952.5	
311.63	3016.7	
311.84	4632.5	
312.05	4853	
312.26	3330.7	
312.46	3591.5	
312.67	4659.1	
312.88	4412	
313.09	2936.1	
313.3	2921.8	
313.51	5418.2	
313.71	5640.1	
313.92	2950.4	
314.13	3074	
314.34	4919.9	
314.55	4704.2	
314.76	3680.9	
314.96	3254.9	
315.17	4916.5	
315.38	5038	
315.59	2988	
315.8	2837.1	
316.01	5366.4	
316.21	5457.8	
316.42	2887	
316.63	3201.7	
316.84	4678.9	
317.05	5201.2	
317.26	3448.1	
317.46	3090.4	
317.67	4775.9	
317.88	5069.4	
318.09	3648.8	
318.3	2754.5	
318.5	4604.5	
318.71	4965.6	
318.92	4557.4	
319.13	3443.3	
319.34	5126.7	
319.54	5223	
319.75	2800.3	
319.96	2648.7	
320.17	5001.1	
320.38	5184.1	
320.58	2729.9	
320.79	3196.9	
321	5261.2	
321.21	5338.4	
321.42	3255.6	
321.62	2729.3	
321.83	4509.6	
322.04	4746.5	
322.25	3080.8	
322.46	2973.7	
322.66	4891.2	
322.87	5023.7	
323.08	3504.1	
323.29	2868.5	
323.5	5535	
323.7	4420.9	
323.91	3861.1	
324.12	3502	
324.33	4898.1	
324.53	5030.5	
324.74	3402.4	
324.95	3541.6	
325.16	4324.6	
325.37	4660.5	
325.57	2955.2	
325.78	3028.9	
325.99	4918.5	
326.2	4386.1	
326.4	4032.5	
326.61	2758.6	
326.82	4717.8	
327.03	4848.9	
327.24	4051.6	
327.44	3813.3	
327.65	4928.1	
327.86	4139.6	
328.07	3427.6	
328.27	2907.4	
328.48	5312.4	
328.69	4438.6	
328.9	4102.8	
329.1	3110.2	
329.31	4702.1	
329.52	5405.3	
329.73	3009.8	
329.93	3222.8	
330.14	4840	
330.35	4973.2	
330.56	4592.9	
330.76	3588	
330.97	4648.9	
331.18	4872.1	
331.39	3234.4	
331.59	2717	
331.8	5250.3	
332.01	5285.8	
332.22	3053.5	
332.42	3407.1	
332.63	4857.1	
332.84	4528.7	
333.05	3274.7	
333.25	2998.9	
333.46	4622.3	
333.67	4780	
333.88	3133.4	
334.08	3312.9	
334.29	6068.1	
334.5	5176.6	
334.7	2887.6	
334.91	4004.5	
335.12	4446.1	
335.33	5064.6	
335.53	3223.5	
335.74	4551.3	
335.95	4648.9	
336.16	4437.9	
336.36	3217.4	
336.57	3676.8	
336.78	4459.8	
336.98	5193	
337.19	3857	
337.4	3110.2	
337.61	5649	
337.81	4442.7	
338.02	3005.1	
338.23	3770.3	
338.43	5309	
338.64	4542.4	
338.85	2994.8	
339.05	3784	
339.26	5406	
339.47	4362.2	
339.68	2941.6	
339.88	4270	
340.09	5014.1	
340.3	5122	
340.5	3407.1	
340.71	2698.5	
340.92	4354.7	
341.13	5246.2	
341.33	2883.5	
341.54	3433.1	
341.75	4928.8	
341.95	4627	
342.16	3334.1	
342.37	3571.7	
342.57	4432.5	
342.78	4691.2	
342.99	3581.9	
343.19	2760	
343.4	5077.6	
343.61	4960.2	
343.81	3155.9	
344.02	2893.8	
344.23	5055.8	
344.43	5322.7	
344.64	3575.8	
344.85	3548.4	
345.06	4997.7	
345.26	5223	
345.47	3408.5	
345.68	3872	
345.88	4283	
346.09	5195	
346.3	3440.6	
346.5	2690.3	
346.71	4728.1	
346.92	4595	
347.12	2799.6	
347.33	3370.3	
347.54	5214.1	
347.74	5508.4	
347.95	3340.2	
348.16	2617.3	
348.36	4604.5	
348.57	4464.6	
348.78	3386.7	
348.98	3568.9	
349.19	4719.2	
349.39	4351.3	
349.6	2799.6	
349.81	3026.9	
350.01	4973.2	
350.22	4524.6	
350.43	3254.9	
350.63	3825.6	
350.84	4818.2	
351.05	4536.3	
351.25	2970.9	
351.46	2776.4	
351.67	5134.3	
351.87	4470	
352.08	3161.4	
352.29	3543	
352.49	5157.5	
352.7	4850.3	
352.9	2908.1	
353.11	3515	
353.32	5591.6	
353.52	4636.6	
353.73	2918.4	
353.94	3614.7	
354.14	4979.3	
354.35	4756.1	
354.55	2981.8	
354.76	3287.7	
354.97	4997	
355.17	4764.9	
355.38	2839.2	
355.59	3741	
355.79	4531.5	
356	4782.7	
356.2	3244	
356.41	2906.1	
356.62	4377.9	
356.82	4703.5	
357.03	3470.6	
357.24	3145.7	
357.44	4519.9	
357.65	4613.4	
357.85	4110.3	
358.06	3302	
358.27	4320.5	
358.47	4526.7	
358.68	2850.1	
358.88	3474	
359.09	5008.6	
359.3	5205.3	
359.5	3941.7	
359.71	3562.8	
359.91	5554.8	
360.12	5027.8	
360.33	3482.2	
360.53	3835.2	
360.74	4597.7	
360.94	4602.5	
361.15	3585.3	
361.36	3046	
361.56	5190.2	
361.77	4765.6	
361.97	3952.6	
362.18	3218	
362.38	5200.5	
362.59	4478.2	
362.8	3015.3	
363	2874	
363.21	4298.7	
363.41	4816.8	
363.62	3393.5	
363.83	4070.7	
364.03	4928.1	
364.24	5601.9	
364.44	4188.1	
364.65	4178.5	
364.85	4717.8	
365.06	4474.1	
365.27	3107.5	
365.47	3186	
365.68	5490.6	
365.88	4769	
366.09	3452.9	
366.29	3199.6	
366.5	4889.2	
366.71	5223	
366.91	4184	
367.12	3562.1	
367.32	5676.3	
367.53	5120.6	
367.73	3577.1	
367.94	4258.4	
368.14	5072.1	
368.35	5662.6	
368.56	3497.2	
368.76	3323.2	
368.97	5205.9	
369.17	6335.7	
369.38	3100.6	
369.58	3369.6	
369.79	4420.9	
369.99	5483.8	
370.2	4126.7	
370.4	3397.6	
370.61	4962.2	
370.82	5818.3	
371.02	3417.4	
371.23	2857.6	
371.43	4463.9	
371.64	5408.7	
371.84	3417.4	
372.05	4231.1	
372.25	6284.5	
372.46	5125.4	
372.66	3463.8	
372.87	3413.3	
373.07	5180.7	
373.28	6445	
373.48	4137.6	
373.69	3859.1	
373.9	4853.7	
374.1	4896.7	
374.31	4137.6	
374.51	3790.8	
374.72	5457.2	
374.92	4644.8	
375.13	4306.2	
375.33	3736.9	
375.54	5122	
375.74	4816.1	
375.95	3795.6	
376.15	4583.4	
376.36	5229.8	
376.56	5111.7	
376.77	3779.9	
376.97	4087.7	
377.18	6008.7	
377.38	5255.1	
377.59	4324.6	
377.79	3503.4	
378	5095.3	
378.2	5410.7	
378.41	3497.9	
378.61	3379.8	
378.82	5495.4	
379.02	4846.2	
379.23	3487.7	
379.43	4367.6	
379.64	5567.7	
379.84	5321.3	
380.05	3508.9	
380.25	3346.4	
380.46	5344.5	
380.66	5061.9	
380.87	4435.9	
381.07	4696.7	
381.28	5834.7	
381.48	5300.8	
381.69	3506.1	
381.89	3510.2	
382.1	4556	
382.3	5407.3	
382.51	4291.9	
382.71	4969.7	
382.91	5281.7	
383.12	5672.2	
383.32	3700.7	
383.53	3854.3	
383.73	5163.6	
383.94	5076.2	
384.14	3930.1	
384.35	3224.2	
384.55	5008.6	
384.76	5293.3	
384.96	3647.4	
385.17	3929.4	
385.37	5331.5	
385.58	4725.3	
385.78	3957.4	
385.98	3147.7	
386.19	4934.9	
386.39	5255.1	
386.6	3565.5	
386.8	3725.9	
387.01	5317.2	
387.21	5371.1	
387.42	4048.2	
387.62	4474.8	
387.83	4902.8	
388.03	5209.3	
388.23	3854.3	
388.44	4337.6	
388.64	4623.6	
388.85	4717.2	
389.05	4024.9	
389.26	4466.6	
389.46	6235.4	
389.67	5731.6	
389.87	4033.8	
390.07	4061.8	
390.28	5125.4	
390.48	4711.7	
390.69	3485	
390.89	3729.4	
391.1	4971.1	
391.3	5660.6	
391.5	4605.9	
391.71	5039.4	
391.91	5466	
392.12	6089.3	
392.32	4608.6	
392.53	4062.5	
392.73	4991.6	
392.93	5157.5	
393.14	3849.5	
393.34	4401.1	
393.55	5435.3	
393.75	5100.1	
393.95	3833.8	
394.16	3771	
394.36	4997.7	
394.57	5474.9	
394.77	3497.9	
394.98	3784.6	
395.18	4965.6	
395.38	5099.4	
395.59	4454.3	
395.79	3648.8	
396	5106.3	
396.2	5455.1	
396.4	4346.5	
396.61	4280.9	
396.81	5547.3	
397.02	5011.4	
397.22	4528.1	
397.42	4526.7	
397.63	5638.7	
397.83	5093.3	
398.04	3699.3	
398.24	4102.1	
398.44	5416.2	
398.65	4717.8	
398.85	3588	
399.05	3639.9	
399.26	5012.1	
399.46	6267.5	
399.67	3987.4	
399.87	3813.3	
400.07	5318.6	
400.28	5599.1	
400.48	3850.9	
400.69	4603.2	
400.89	5726.1	
401.09	6131.6	
401.3	3836.5	
401.5	4661.9	
401.7	6231.3	
401.91	6462	
402.11	4158.7	
402.32	4209.3	
402.52	5819	
402.72	5685.8	
402.93	4382.7	
403.13	3511.6	
403.33	6270.2	
403.54	5289.2	
403.74	4093.2	
403.94	4702.8	
404.15	5387.5	
404.35	6255.2	
404.56	3992.9	
404.76	5272.2	
404.96	5778	
405.17	5592.3	
405.37	4646.8	
405.57	4349.2	
405.78	5776.6	
405.98	5365	
406.18	4016.7	
406.39	4601.8	
406.59	5754.8	
406.79	5368.4	
407	3862.5	
407.2	3943	
407.4	5805.3	
407.61	5898.8	
407.81	3982.6	
408.01	5626.5	
408.22	5131.5	
408.42	6587.6	
408.62	4833.2	
408.83	4525.3	
409.03	5585.5	
409.23	5586.9	
409.44	4597	
409.64	4714.4	
409.84	6414.2	
410.05	6325.5	
410.25	4705.5	
410.45	4560.1	
410.66	6103.6	
410.86	7820.5	
411.06	4980	
411.27	4851	
411.47	7656	
411.67	6208.8	
411.88	5031.2	
412.08	5319.9	
412.28	6608.8	
412.49	7055.3	
412.69	4945.2	
412.89	4926	
413.09	6930.3	
413.3	6841.6	
413.5	5057.8	
413.7	4749.2	
413.91	6341.2	
414.11	6938.5	
414.31	4969.7	
414.52	5234.6	
414.72	6722.8	
414.92	6602	
415.12	4936.3	
415.33	5326.1	
415.53	6922.1	
415.73	7068.9	
415.94	5563	
416.14	5173.9	
416.34	6323.4	
416.55	6036	
416.75	6073.6	
416.95	5573.2	
417.15	7127.6	
417.36	7447.1	
417.56	6173.9	
417.76	5581.4	
417.97	7350.2	
418.17	7121.5	
418.37	5298.8	
418.57	5371.8	
418.78	6908.5	
418.98	6610.8	
419.18	5936.4	
419.38	5891.3	
419.59	6606.7	
419.79	6391	
419.99	5182.7	
420.2	5500.8	
420.4	7081.9	
420.6	7157.7	
420.8	5163.6	
421.01	5119.9	
421.21	6969.2	
421.41	7018.4	
421.61	5421	
421.82	5177.9	
422.02	6686.6	
422.22	7325.6	
422.42	5732.3	
422.63	5517.2	
422.83	6698.2	
423.03	7513.3	
423.23	5563	
423.44	4784.7	
423.64	6677.1	
423.84	6445.6	
424.04	5201.8	
424.25	4876.2	
424.45	7401.4	
424.65	7303.7	
424.85	4762.9	
425.06	5175.2	
425.26	7391.1	
425.46	6603.3	
425.66	5487.9	
425.87	5315.8	
426.07	7137.9	
426.27	7021.8	
426.47	5341.8	
426.67	4943.8	
426.88	7416.4	
427.08	7016.3	
427.28	5656.5	
427.48	4954	
427.69	6258.6	
427.89	6702.3	
428.09	5586.2	
428.29	4898.7	
428.5	7110.5	
428.7	6886	
428.9	4892.6	
429.1	5246.9	
429.3	6834.1	
429.51	7058.7	
429.71	5151.3	
429.91	5741.8	
430.11	7078.5	
430.31	7318.8	
430.52	5337.7	
430.72	5558.9	
430.92	7507.9	
431.12	7050.5	
431.32	5113.8	
431.53	5425.8	
431.73	6332.3	
431.93	7633.5	
432.13	5131.5	
432.33	5054.4	
432.54	6737.8	
432.74	6863.4	
432.94	5006.6	
433.14	5741.1	
433.34	7197.2	
433.55	6879.1	
433.75	5786.9	
433.95	7001.3	
434.15	7082.6	
434.35	6761.7	
434.56	5194.3	
434.76	4911.7	
434.96	7041.6	
435.16	7240.3	
435.36	5119.9	
435.56	5973.9	
435.77	6824.5	
435.97	6926.9	
436.17	6492.7	
436.37	5954.1	
436.57	6761.7	
436.78	6799.3	
436.98	5909.1	
437.18	6353.5	
437.38	7253.2	
437.58	6893.5	
437.78	6484.6	
437.99	5452.4	
438.19	7258	
438.39	7885.4	
438.59	5450.3	
438.79	5017.5	
438.99	7776.8	
439.2	6849.1	
439.4	5089.9	
439.6	5175.2	
439.8	7092.8	
440	7985	
440.2	5912.5	
440.4	6032	
440.61	7580.2	
440.81	7992.5	
441.01	5414.1	
441.21	6138.4	
441.41	7930.4	
441.61	7548.8	
441.81	6303	
442.02	7128.3	
442.22	8201.4	
442.42	7696.9	
442.62	5573.2	
442.82	5569.1	
443.02	8015.7	
443.22	7333.8	
443.43	5971.2	
443.63	5571.2	
443.83	7116	
444.03	7162.4	
444.23	6490	
444.43	6221.7	
444.63	7539.3	
444.83	8388.5	
445.04	5747.3	
445.24	6756.9	
445.44	7744.7	
445.64	7767.3	
445.84	6272.9	
446.04	6277	
446.24	7212.3	
446.44	8002.8	
446.65	5576.6	
446.85	5922.7	
447.05	7423.2	
447.25	7975.5	
447.45	6020.3	
447.65	5577.3	
447.85	7509.9	
448.05	7131	
448.25	6340.5	
448.46	6134.3	
448.66	7458	
448.86	7234.8	
449.06	5540.4	
449.26	6313.9	
449.46	7767.3	
449.66	7045.7	
449.86	6051.7	
450.06	5879	
450.26	7211.6	
450.47	7729	
450.67	6127.5	
450.87	6406	
451.07	7780.2	
451.27	7533.8	
451.47	5708.4	
451.67	6137.1	
451.87	7372	
452.07	8181	
452.27	5956.2	
452.47	5862.7	
452.67	7621.2	
452.88	7966.6	
453.08	5361.6	
453.28	6830.7	
453.48	8555	
453.68	7570	
453.88	5915.2	
454.08	6011.5	
454.28	7908.6	
454.48	7666.9	
454.68	6426.5	
454.88	6793.1	
455.08	8018.5	
455.28	7857.4	
455.48	5761.6	
455.68	6282.5	
455.89	8471.8	
456.09	8045.1	
456.29	6069.5	
456.49	6242.2	
456.69	8366	
456.89	7737.9	
457.09	6567.8	
457.29	6899.6	
457.49	8036.9	
457.69	8194.6	
457.89	6725.5	
458.09	5981.4	
458.29	8024.6	
458.49	8590.5	
458.69	6929	
458.89	6457.2	
459.09	8712.7	
459.29	8739.4	
459.49	6479.8	
459.69	7117.4	
459.9	8409.6	
460.1	8081.3	
460.3	6447.7	
460.5	6298.2	
460.7	8409.6	
460.9	8114.7	
461.1	6105.7	
461.3	7091.4	
461.5	9036.3	
461.7	8621.3	
461.9	6470.2	
462.1	6787.7	
462.3	8370.7	
462.5	8783.1	
462.7	6658.6	
462.9	6723.5	
463.1	9646.6	
463.3	9333.3	
463.5	6871.6	
463.7	7656.7	
463.9	8718.2	
464.1	8933.2	
464.3	7185	
464.5	7261.4	
464.7	9124.4	
464.9	8905.9	
465.1	8287.4	
465.3	7559.1	
465.5	9394.7	
465.7	9476	
465.9	7837.6	
466.1	7537.2	
466.3	9388.6	
466.5	9152.4	
466.7	8430.1	
466.9	7475.8	
467.1	9336.7	
467.3	9925.1	
467.5	8438.3	
467.7	7623.9	
467.9	10300	
468.1	10821	
468.3	8109.3	
468.5	8498.4	
468.7	9376.3	
468.9	9241.8	
469.1	7891.5	
469.3	8437.6	
469.5	10888	
469.7	9194	
469.9	8182.3	
470.1	7765.9	
470.3	9478.7	
470.5	9502.6	
470.7	8706.6	
470.9	7819.1	
471.1	9227.5	
471.3	9506.7	
471.5	7660.1	
471.69	9110	
471.89	9115.5	
472.09	8771.5	
472.29	8269	
472.49	8454	
472.69	8974.2	
472.89	9473.2	
473.09	7574.8	
473.29	7706.5	
473.49	9133.3	
473.69	9151.7	
473.89	8355.7	
474.09	7726.3	
474.29	10092	
474.49	9800.9	
474.69	8385.7	
474.89	7878.5	
475.09	9192.6	
475.29	9142.1	
475.49	7396.6	
475.69	7661.5	
475.88	10235	
476.08	9450	
476.28	7362.4	
476.48	7499	
476.68	9736.7	
476.88	9516.9	
477.08	7563.8	
477.28	7841	
477.48	9135.3	
477.68	9606.3	
477.88	7415.7	
478.08	7575.4	
478.28	9952.4	
478.48	9116.2	
478.67	7755	
478.87	7124.9	
479.07	9738.8	
479.27	9296.4	
479.47	7756.3	
479.67	7845.1	
479.87	9678.7	
480.07	10094	
480.27	7397.3	
480.47	8503.2	
480.67	9359.9	
480.87	9931.3	
481.06	7556.3	
481.26	8240.3	
481.46	9454.8	
481.66	9300.5	
481.86	7965.9	
482.06	8669.1	
482.26	9171.5	
482.46	9815.2	
482.66	7834.8	
482.86	7546.1	
483.05	9560.6	
483.25	8937.3	
483.45	9707.4	
483.65	7925.6	
483.85	9181.7	
484.05	9437.7	
484.25	8284	
484.45	8606.9	
484.65	10015	
484.84	10133	
485.04	7903.8	
485.24	7993.2	
485.44	10398	
485.64	9052.7	
485.84	7505.1	
486.04	8495.7	
486.24	9341.5	
486.44	9657.5	
486.63	7453.2	
486.83	8096.3	
487.03	9385.2	
487.23	9625.5	
487.43	7593.2	
487.63	9306.7	
487.83	9693	
488.02	10286	
488.22	8424	
488.42	8875.2	
488.62	10356	
488.82	9476.6	
489.02	8112	
489.22	8183	
489.41	10173	
489.61	10043	
489.81	8033.5	
490.01	7901.7	
490.21	10210	
490.41	10778	
490.61	7998	
490.8	8186.4	
491	9848	
491.2	9389.3	
491.4	8424.7	
491.6	7819.8	
491.8	9813.2	
491.99	9906	
492.19	7753.6	
492.39	7826	
492.59	10203	
492.79	10337	
492.99	8658.1	
493.18	8081.3	
493.38	10434	
493.58	11073	
493.78	8720.9	
493.98	8352.3	
494.18	10320	
494.37	9914.9	
494.57	9007	
494.77	8861.6	
494.97	10538	
495.17	10811	
495.37	8688.2	
495.56	8951	
495.76	11032	
495.96	10757	
496.16	9723.1	
496.36	8930.5	
496.55	11027	
496.75	10641	
496.95	9247.9	
497.15	9170.1	
497.35	10971	
497.54	10993	
497.74	8997.4	
497.94	10459	
498.14	11610	
498.34	11484	
498.53	8973.5	
498.73	9423.4	
498.93	10564	
499.13	11116	
499.33	9503.3	
499.52	9728.5	
499.72	11301	
499.92	11297	
500.12	9196.1	
500.32	9400.2	
500.51	11409	
500.71	11114	
500.91	9983.2	
501.11	9663.7	
501.31	11428	
501.5	11602	
501.7	10253	
501.9	9445.9	
502.1	11077	
502.29	11406	
502.49	9829.6	
502.69	9945.6	
502.89	11271	
503.09	11214	
503.28	8985.1	
503.48	9125.7	
503.68	10674	
503.88	10787	
504.07	9742.2	
504.27	9358.5	
504.47	10953	
504.67	10955	
504.86	9639.1	
505.06	9366	
505.26	10786	
505.46	11866	
505.65	9367.4	
505.85	9516.9	
506.05	10628	
506.25	11019	
506.44	8787.8	
506.64	9372.2	
506.84	10563	
507.04	11135	
507.23	8925.7	
507.43	9360.6	
507.63	11821	
507.83	10733	
508.02	9413.1	
508.22	9071.8	
508.42	12135	
508.62	10469	
508.81	9286.2	
509.01	9763.3	
509.21	10460	
509.4	10689	
509.6	9293.7	
509.8	8984.4	
510	10611	
510.19	11652	
510.39	8906.6	
510.59	8989.9	
510.79	10547	
510.98	11486	
511.18	9059.5	
511.38	9225.4	
511.57	11226	
511.77	10932	
511.97	9605.7	
512.17	8874.5	
512.36	11153	
512.56	10974	
512.76	8872.5	
512.95	8667	
513.15	11159	
513.35	10074	
513.55	9492.3	
513.74	8837.7	
513.94	10917	
514.14	10479	
514.33	9637.7	
514.53	9346.9	
514.73	10482	
514.92	10620	
515.12	9002.9	
515.32	8866.3	
515.51	10800	
515.71	11169	
515.91	10307	
516.11	9001.5	
516.3	12091	
516.5	10592	
516.7	9417.9	
516.89	9814.5	
517.09	10529	
517.29	10585	
517.48	9697.1	
517.68	9117.6	
517.88	10256	
518.07	10835	
518.27	9528.5	
518.47	8684.1	
518.66	11243	
518.86	10155	
519.06	8560.5	
519.25	8921	
519.45	10297	
519.65	11523	
519.84	9363.3	
520.04	9839.1	
520.24	11809	
520.43	10871	
520.63	9062.3	
520.83	8914.1	
521.02	10279	
521.22	10686	
521.42	9228.8	
521.61	9710.8	
521.81	10466	
522.01	10555	
522.2	9235.7	
522.4	8897.7	
522.6	10923	
522.79	9932	
522.99	9025.4	
523.18	8665	
523.38	10808	
523.58	10854	
523.77	10158	
523.97	8676.6	
524.17	12228	
524.36	11715	
524.56	9912.9	
524.76	9469.8	
524.95	10958	
525.15	10821	
525.34	9613.2	
525.54	9679.4	
525.74	11502	
525.93	10617	
526.13	10533	
526.33	9724.4	
526.52	11804	
526.72	11387	
526.91	10630	
527.11	10132	
527.31	12017	
527.5	12181	
527.7	10128	
527.89	9388.6	
528.09	11135	
528.29	11604	
528.48	10389	
528.68	10045	
528.87	11858	
529.07	11920	
529.27	10159	
529.46	9863.7	
529.66	11719	
529.85	11966	
530.05	9686.9	
530.25	10234	
530.44	12771	
530.64	11622	
530.83	9943.6	
531.03	10129	
531.23	11985	
531.42	11869	
531.62	10771	
531.81	10138	
532.01	12168	
532.21	12450	
532.4	10068	
532.6	10426	
532.79	12972	
532.99	12271	
533.18	10517	
533.38	11171	
533.58	11951	
533.77	12504	
533.97	10490	
534.16	11105	
534.36	12790	
534.55	12084	
534.75	11282	
534.95	10469	
535.14	12821	
535.34	12017	
535.53	10284	
535.73	11767	
535.92	13129	
536.12	11991	
536.31	10473	
536.51	11255	
536.71	12390	
536.9	12032	
537.1	10407	
537.29	10537	
537.49	12632	
537.68	11978	
537.88	10955	
538.07	10264	
538.27	12273	
538.46	12970	
538.66	10243	
538.86	10438	
539.05	12305	
539.25	12609	
539.44	10926	
539.64	10534	
539.83	12205	
540.03	13024	
540.22	10467	
540.42	10522	
540.61	12263	
540.81	12402	
541	10735	
541.2	11317	
541.39	11793	
541.59	12144	
541.78	10861	
541.98	10290	
542.18	11667	
542.37	11523	
542.57	10490	
542.76	11049	
542.96	11504	
543.15	12151	
543.35	10445	
543.54	10052	
543.74	12167	
543.93	11989	
544.13	10392	
544.32	11155	
544.52	12129	
544.71	11493	
544.91	9646.6	
545.1	10589	
545.3	11499	
545.49	11944	
545.69	9572.2	
545.88	9984.5	
546.08	12775	
546.27	12317	
546.47	10444	
546.66	9835	
546.86	11989	
547.05	12519	
547.24	10098	
547.44	10035	
547.63	11347	
547.83	12131	
548.02	10300	
548.22	10458	
548.41	11183	
548.61	12177	
548.8	9914.9	
549	9893.1	
549.19	11671	
549.39	12020	
549.58	9726.5	
549.78	10090	
549.97	12030	
550.17	11532	
550.36	10735	
550.55	11512	
550.75	11553	
550.94	12272	
551.14	9757.2	
551.33	10092	
551.53	11166	
551.72	11762	
551.92	10118	
552.11	9886.2	
552.31	11830	
552.5	11680	
552.69	11095	
552.89	9604.3	
553.08	11757	
553.28	11520	
553.47	9846	
553.67	10636	
553.86	12142	
554.06	10834	
554.25	9213.8	
554.44	9693	
554.64	12622	
554.83	12233	
555.03	9568.8	
555.22	9785.2	
555.42	11714	
555.61	11495	
555.8	9725.1	
556	9848	
556.19	10972	
556.39	11791	
556.58	9641.8	
556.78	9777	
556.97	11455	
557.16	11183	
557.36	10592	
557.55	9522.4	
557.75	10674	
557.94	12126	
558.13	9569.5	
558.33	9461.6	
558.52	11926	
558.72	10921	
558.91	9443.9	
559.1	9602.2	
559.3	10865	
559.49	10555	
559.69	9144.9	
559.88	9869.2	
560.07	11364	
560.27	11632	
560.46	9951.8	
560.66	10066	
560.85	11213	
561.04	10637	
561.24	9362.6	
561.43	9417.2	
561.63	10819	
561.82	11086	
562.01	10391	
562.21	9719.7	
562.4	11389	
562.59	12028	
562.79	9667.8	
562.98	9358.5	
563.18	11359	
563.37	12321	
563.56	9967.5	
563.76	9369.5	
563.95	10996	
564.14	10922	
564.34	9739.5	
564.53	9463	
564.73	11360	
564.92	11509	
565.11	9830.2	
565.31	9321	
565.5	11731	
565.69	10955	
565.89	9553.1	
566.08	9624.1	
566.27	11697	
566.47	12000	
566.66	10170	
566.85	9225.4	
567.05	11488	
567.24	11114	
567.44	9453.4	
567.63	10505	
567.82	11645	
568.02	11396	
568.21	9419.3	
568.4	9710.8	
568.6	11363	
568.79	11337	
568.98	9459.6	
569.18	9625.5	
569.37	11347	
569.56	12796	
569.76	9890.3	
569.95	10648	
570.14	11727	
570.34	11616	
570.53	9675.3	
570.72	9595.4	
570.91	12265	
571.11	11488	
571.3	10116	
571.49	10676	
571.69	11588	
571.88	11200	
572.07	10330	
572.27	10301	
572.46	11182	
572.65	11854	
572.85	9792.7	
573.04	10138	
573.23	12078	
573.43	11600	
573.62	9611.8	
573.81	10092	
574	11756	
574.2	11450	
574.39	10034	
574.58	10084	
574.78	12418	
574.97	11724	
575.16	10484	
575.36	10481	
575.55	12205	
575.74	12219	
575.93	9805.7	
576.13	10630	
576.32	11606	
576.51	12243	
576.71	10297	
576.9	11157	
577.09	12440	
577.28	11972	
577.48	10478	
577.67	9763.3	
577.86	11712	
578.05	12025	
578.25	10414	
578.44	10399	
578.63	11800	
578.83	12794	
579.02	9935.4	
579.21	11022	
579.4	12030	
579.6	11878	
579.79	10362	
579.98	12086	
580.17	12225	
580.37	12354	
580.56	9984.5	
580.75	10509	
580.94	12613	
581.14	12593	
581.33	10867	
581.52	10096	
581.71	12116	
581.91	12660	
582.1	9968.8	
582.29	10380	
582.48	11807	
582.68	11949	
582.87	10651	
583.06	10553	
583.25	12308	
583.45	11966	
583.64	10935	
583.83	11422	
584.02	11830	
584.21	12178	
584.41	10720	
584.6	10482	
584.79	12071	
584.98	12519	
585.18	10023	
585.37	10018	
585.56	11647	
585.75	12200	
585.94	10111	
586.14	10582	
586.33	12603	
586.52	11839	
586.71	10529	
586.91	10412	
587.1	11254	
587.29	12353	
587.48	10239	
587.67	10142	
587.87	12116	
588.06	12032	
588.25	11108	
588.44	10623	
588.63	11744	
588.83	12124	
589.02	10088	
589.21	9915.6	
589.4	11501	
589.59	11439	
589.78	9290.3	
589.98	9482.1	
590.17	10936	
590.36	11346	
590.55	8853.4	
590.74	9497.1	
590.94	12166	
591.13	11060	
591.32	9190.6	
591.51	8877.3	
591.7	11275	
591.89	10985	
592.09	8811	
592.28	9252	
592.47	10314	
592.66	11951	
592.85	8942.8	
593.05	9151	
593.24	10914	
593.43	11515	
593.62	9254.1	
593.81	9448.6	
594	10865	
594.19	10940	
594.39	9059.5	
594.58	8971.5	
594.77	11085	
594.96	11514	
595.15	9110	
595.34	9519.6	
595.54	11036	
595.73	10436	
595.92	8585.1	
596.11	9325.1	
596.3	11388	
596.49	10493	
596.68	9166	
596.88	9452.7	
597.07	11157	
597.26	10246	
597.45	8740	
597.64	9680.7	
597.83	10529	
598.02	10937	
598.22	8766.7	
598.41	9328.5	
598.6	10875	
598.79	10322	
598.98	8856.1	
599.17	9519	
599.36	10763	
599.55	11551	
599.74	10399	
599.94	10261	
600.13	11242	
600.32	10299	
600.51	8505.2	
600.7	8666.3	
600.89	11592	
601.08	11709	
601.27	8546.2	
601.47	9249.3	
601.66	11027	
601.85	11566	
602.04	9069.1	
602.23	9218.6	
602.42	10509	
602.61	10892	
602.8	8896.4	
602.99	8793.3	
603.18	10652	
603.37	10835	
603.57	9258.9	
603.76	9661	
603.95	11383	
604.14	10918	
604.33	8921.6	
604.52	9150.3	
604.71	10961	
604.9	10416	
605.09	9577	
605.28	9344.9	
605.47	11336	
605.66	10912	
605.86	9366	
606.05	8841.8	
606.24	11280	
606.43	10105	
606.62	9206.3	
606.81	9590	
607	11065	
607.19	10570	
607.38	8644.5	
607.57	8865	
607.76	10340	
607.95	9966.1	
608.14	9166	
608.33	9557.2	
608.52	10342	
608.72	10987	
608.91	8503.8	
609.1	8422.6	
609.29	10372	
609.48	10003	
609.67	9088.9	
609.86	8361.2	
610.05	10176	
610.24	10314	
610.43	8413.7	
610.62	8144.1	
610.81	11136	
611	11052	
611.19	8531.2	
611.38	9052	
611.57	10527	
611.76	11475	
611.95	8320.9	
612.14	8202.1	
612.33	10312	
612.52	10088	
612.71	8724.3	
612.9	8132.5	
613.09	9745.6	
613.28	11473	
613.47	8618.5	
613.66	9271.2	
613.85	10483	
614.04	10109	
614.24	8590.5	
614.43	7968	
614.62	10681	
614.81	10508	
615	8926.4	
615.19	8949.6	
615.38	9919.7	
615.57	10289	
615.76	8873.8	
615.95	9586.5	
616.14	10615	
616.33	10342	
616.52	9103.2	
616.71	9260.9	
616.9	10574	
617.09	10434	
617.28	8599.4	
617.47	9470.5	
617.66	9806.4	
617.85	9876	
618.04	9250.7	
618.22	8852.7	
618.41	10129	
618.6	10884	
618.79	8850	
618.98	8662.2	
619.17	11114	
619.36	9852.8	
619.55	8772.1	
619.74	8757.8	
619.93	10616	
620.12	10234	
620.31	9359.2	
620.5	9495.1	
620.69	10959	
620.88	11449	
621.07	9979.1	
621.26	9177.6	
621.45	10817	
621.64	10774	
621.83	9339.4	
622.02	8648.6	
622.21	10859	
622.4	10759	
622.59	9651.4	
622.78	9515.5	
622.97	10462	
623.16	11148	
623.35	9331.2	
623.54	8656.1	
623.72	10499	
623.91	10668	
624.1	9524.4	
624.29	8598.1	
624.48	11531	
624.67	10785	
624.86	9325.1	
625.05	8784.4	
625.24	11514	
625.43	10383	
625.62	10623	
625.81	8875.9	
626	11119	
626.19	10634	
626.38	9611.8	
626.56	8996	
626.75	10421	
626.94	11056	
627.13	9440.5	
627.32	8497.7	
627.51	11006	
627.7	11753	
627.89	8501.1	
628.08	9369.5	
628.27	10253	
628.46	10447	
628.65	8735.3	
628.83	8554.4	
629.02	10851	
629.21	10181	
629.4	9019.3	
629.59	9193.3	
629.78	10253	
629.97	10931	
630.16	9192	
630.35	8796.7	
630.54	11285	
630.72	11102	
630.91	8862.2	
631.1	9165.3	
631.29	10617	
631.48	10692	
631.67	9353.8	
631.86	8847.2	
632.05	10417	
632.24	10430	
632.42	8559.1	
632.61	9076.6	
632.8	10386	
632.99	10049	
633.18	9086.2	
633.37	9289.6	
633.56	10622	
633.75	10479	
633.93	9043.8	
634.12	8820.6	
634.31	11155	
634.5	10970	
634.69	8828.1	
634.88	9349	
635.07	10449	
635.25	10863	
635.44	9564	
635.63	9734.7	
635.82	10343	
636.01	9833.7	
636.2	9534	
636.39	9194.7	
636.57	11214	
636.76	10927	
636.95	8770.1	
637.14	9708.1	
637.33	10692	
637.52	11280	
637.7	8616.5	
637.89	9407	
638.08	10342	
638.27	11478	
638.46	9351.7	
638.65	9718.3	
638.83	11347	
639.02	10287	
639.21	9212.4	
639.4	9600.9	
639.59	10534	
639.78	10372	
639.96	8648.6	
640.15	8789.9	
640.34	10515	
640.53	10504	
640.72	8538	
640.91	8697	
641.09	10073	
641.28	11002	
641.47	8699.8	
641.66	9221.3	
641.85	10466	
642.03	10583	
642.22	9045.2	
642.41	8730.5	
642.6	10059	
642.79	9588.6	
642.97	8559.1	
643.16	9037	
643.35	10017	
643.54	9911.5	
643.73	8447.9	
643.91	9032.2	
644.1	9735.4	
644.29	10158	
644.48	8492.2	
644.67	8486.8	
644.85	9738.8	
645.04	10047	
645.23	8151.6	
645.42	8463.6	
645.6	9697.1	
645.79	10537	
645.98	8346.8	
646.17	7464.8	
646.36	9421.3	
646.54	9716.2	
646.73	8777.6	
646.92	8073.1	
647.11	9473.9	
647.29	10324	
647.48	7888.8	
647.67	7792.5	
647.86	10327	
648.05	10369	
648.23	8165.3	
648.42	9085.5	
648.61	9977	
648.8	9742.2	
648.98	7792.5	
649.17	8107.9	
649.36	9281.4	
649.55	8994.7	
649.73	7859.4	
649.92	8491.6	
650.11	9263	
650.3	9428.2	
650.48	7897.7	
650.67	7786.4	
650.86	9751.7	
651.05	8869.8	
651.23	7922.9	
651.42	7820.5	
651.61	9340.8	
651.79	9181.7	
651.98	8043.7	
652.17	7619.8	
652.36	9517.6	
652.54	8777.6	
652.73	7739.3	
652.92	7525.6	
653.11	9531.2	
653.29	9523.1	
653.48	7137.2	
653.67	7785	
653.85	9295.7	
654.04	10040	
654.23	7851.9	
654.42	7598.6	
654.6	8841.1	
654.79	9211.1	
654.98	7064.1	
655.16	7441	
655.35	8507.9	
655.54	8334.6	
655.73	7010.9	
655.91	7041.6	
656.1	9179.7	
656.29	8262.9	
656.47	6685.9	
656.66	7928.4	
656.85	8479.3	
657.03	8583	
657.22	7062.1	
657.41	7211.6	
657.59	8667.7	
657.78	8536.6	
657.97	6956.9	
658.16	7505.8	
658.34	9253.4	
658.53	9618.6	
658.72	8251.3	
658.9	8583	
659.09	8922.3	
659.28	8841.1	
659.46	7335.8	
659.65	7206.1	
659.84	8695.7	
660.02	9118.2	
660.21	7274.4	
660.4	7186.3	
660.58	9391.3	
660.77	8789.2	
660.96	7559.7	
661.14	6965.1	
661.33	9828.9	
661.52	9711.5	
661.7	6887.3	
661.89	9478	
662.08	8537.3	
662.26	8224.6	
662.45	7150.1	
662.64	7090.8	
662.82	9169.4	
663.01	8436.3	
663.2	7155.6	
663.38	7620.5	
663.57	8944.8	
663.75	8884.8	
663.94	7323.5	
664.13	8257.4	
664.31	8509.3	
664.5	9044.5	
664.69	7489.4	
664.87	7993.2	
665.06	8380.3	
665.25	8788.5	
665.43	8191.9	
665.62	8185	
665.8	9124.4	
665.99	8588.5	
666.18	7423.2	
666.36	7317.4	
666.55	9066.4	
666.74	8911.4	
666.92	7120.8	
667.11	8246.5	
667.29	8587.1	
667.48	8923.7	
667.67	7970	
667.85	7188.4	
668.04	8567.3	
668.22	8589.9	
668.41	7313.3	
668.6	7520.1	
668.78	8364.6	
668.97	8627.4	
669.15	7651.2	
669.34	6851.1	
669.53	8404.9	
669.71	8740.7	
669.9	6955.6	
670.08	7466.9	
670.27	8344.8	
670.46	8871.8	
670.64	7471	
670.83	7781.6	
671.01	8236.2	
671.2	8718.2	
671.38	7016.3	
671.57	6902.3	
671.76	9241.1	
671.94	9650.7	
672.13	6862.7	
672.31	7611.6	
672.5	9021.3	
672.69	8402.8	
672.87	7100.3	
673.06	7167.9	
673.24	8714.1	
673.43	8449.2	
673.61	7494.9	
673.8	7207.5	
673.98	8846.5	
674.17	8917.5	
674.36	7623.9	
674.54	7505.8	
674.73	8581.7	
674.91	8944.2	
675.1	7241.6	
675.28	6927.6	
675.47	8512.7	
675.65	8952.4	
675.84	7168.6	
676.03	7404.8	
676.21	8331.8	
676.4	7925	
676.58	7690.1	
676.77	7589.1	
676.95	9572.2	
677.14	8294.3	
677.32	6933.7	
677.51	6809.5	
677.69	8984.4	
677.88	8137.9	
678.06	6892.8	
678.25	6988.4	
678.44	8569.4	
678.62	8357.8	
678.81	6773.3	
678.99	7505.1	
679.18	9130.5	
679.36	8822	
679.55	7137.2	
679.73	7555.6	
679.92	8774.2	
680.1	8359.8	
680.29	8027.4	
680.47	7058.7	
680.66	8314.8	
680.84	8953.7	
681.03	6647.7	
681.21	7368.6	
681.4	8320.2	
681.58	8169.3	
681.77	6914.6	
681.95	6821.1	
682.14	8989.9	
682.32	9131.2	
682.51	7587	
682.69	6720.1	
682.88	8219.2	
683.06	8594.6	
683.25	7275.1	
683.43	7625.3	
683.62	8458.8	
683.8	8794	
683.99	7756.3	
684.17	7161.1	
684.36	9344.9	
684.54	8290.2	
684.73	6563.1	
684.91	6735.8	
685.1	8367.3	
685.28	8103.8	
685.46	7021.8	
685.65	6972.7	
685.83	8468.4	
686.02	7914.7	
686.2	6479.8	
686.39	6553.5	
686.57	7755	
686.76	8927.8	
686.94	6474.3	
687.13	6587.6	
687.31	8368	
687.5	8017.8	
687.68	6281.8	
687.86	7077.1	
688.05	9421.3	
688.23	7664.2	
688.42	7235.5	
688.6	6604.7	
688.79	7939.3	
688.97	7967.3	
689.16	7044.3	
689.34	6098.2	
689.52	8569.4	
689.71	8805.6	
689.89	7182.9	
690.08	6663.4	
690.26	8282	
690.45	8082.6	
690.63	7309.2	
690.81	6789	
691	8113.4	
691.18	8011	
691.37	6925.5	
691.55	8522.3	
691.74	7875.1	
691.92	9456.8	
692.1	6864.1	
692.29	6469.5	
692.47	8100.4	
692.66	7592.5	
692.84	6508.4	
693.02	6953.5	
693.21	7638.9	
693.39	8060.8	
693.58	7071	
693.76	6603.3	
693.94	8877.9	
694.13	8747.6	
694.31	6592.4	
694.5	7417.1	
694.68	7958.4	
694.86	8234.9	
695.05	6968.6	
695.23	7027.3	
695.42	8574.8	
695.6	10248	
695.78	7514.7	
695.97	6748.7	
696.15	8658.8	
696.34	8122.9	
696.52	6632.7	
696.7	7257.3	
696.89	8441.7	
697.07	7934.5	
697.25	7234.1	
697.44	8187.1	
697.62	8376.9	
697.81	8530.5	
697.99	6833.4	
698.17	7173.4	
698.36	7847.1	
698.54	8396.7	
698.72	7163.1	
698.91	6287.3	
699.09	7965.2	
699.28	7856.7	
699.46	6834.8	
699.64	6791.7	
699.83	7927.7	
700.01	8568.7	
700.19	7335.8	
700.38	6188.3	
700.56	8726.4	
700.74	7888.8	
700.93	6518	
701.11	7062.8	
701.29	8355.7	
701.48	9151.7	
701.66	6643.6	
701.84	6665.5	
702.03	8010.3	
702.21	8527.1	
702.39	6302.3	
702.58	6804.7	
702.76	8408.3	
702.94	8394.6	
703.13	6242.9	
703.31	8108.6	
703.49	7811.6	
703.68	8463.6	
703.86	6438.1	
704.04	7110.5	
704.23	8181	
704.41	8433.5	
704.59	6483.2	
704.78	7361.1	
704.96	9346.9	
705.14	8338.6	
705.33	6309.1	
705.51	6937.8	
705.69	7841.7	
705.87	8573.5	
706.06	7129.7	
706.24	6349.4	
706.42	8211.7	
706.61	8443.8	
706.79	7119.4	
706.97	6316.6	
707.16	7746.1	
707.34	8181	
707.52	7081.2	
707.7	6434.7	
707.89	7751.6	
708.07	7618.4	
708.25	7056.6	
708.44	7110.5	
708.62	7809.6	
708.8	8563.9	
708.98	7328.3	
709.17	6437.4	
709.35	8069	
709.53	8053.3	
709.72	6219.7	
709.9	6501.6	
710.08	8225.3	
710.26	8183.7	
710.45	7376.1	
710.63	6413.6	
710.81	7947.5	
710.99	7888.1	
711.18	6807.4	
711.36	6394.4	
711.54	7694.9	
711.72	8236.2	
711.91	6436.1	
712.09	5991.7	
712.27	7699.7	
712.45	8178.9	
712.64	6518	
712.82	5798.5	
713	7279.2	
713.18	7368.6	
713.37	5788.9	
713.55	6663.4	
713.73	8047.8	
713.91	6903	
714.1	6072.2	
714.28	5554.1	
714.46	7495.6	
714.64	6822.5	
714.83	5068.7	
715.01	5591.6	
715.19	6832.7	
715.37	6279.1	
715.55	5179.3	
715.74	5341.8	
715.92	7370.6	
716.1	5837.4	
716.28	6240.8	
716.47	5476.3	
716.65	6430.6	
716.83	6422.4	
717.01	5306.3	
717.19	5365.7	
717.38	7983	
717.56	6169.2	
717.74	5457.8	
717.92	4885.8	
718.1	7126.2	
718.29	6442.9	
718.47	4552	
718.65	5020.9	
718.83	7017.7	
719.01	6953.5	
719.2	4626.4	
719.38	5383.4	
719.56	6752.8	
719.74	7901.1	
719.92	5100.8	
720.11	5870.8	
720.29	6909.8	
720.47	6135	
720.65	4726.7	
720.83	5344.5	
721.02	6389.7	
721.2	6140.5	
721.38	5317.2	
721.56	4736.3	
721.74	5647.6	
721.92	5860.6	
722.11	5552.7	
722.29	5350.7	
722.47	6768.5	
722.65	6174.6	
722.83	4714.4	
723.01	5305.6	
723.2	6215.6	
723.38	6412.9	
723.56	4218.1	
723.74	5157.5	
723.92	5791	
724.1	6630	
724.29	4635.9	
724.47	5439.4	
724.65	5873.6	
724.83	5751.4	
725.01	4493.9	
725.19	5165	
725.37	5766.4	
725.56	5769.1	
725.74	4438.6	
725.92	4580.6	
726.1	5759.6	
726.28	6016.2	
726.46	4859.8	
726.64	4613.4	
726.83	5988.9	
727.01	6102.9	
727.19	4332.8	
727.37	4887.8	
727.55	6087.9	
727.73	6439.5	
727.91	4283	
728.09	4161.5	
728.28	6391.7	
728.46	6637.5	
728.64	5032.5	
728.82	4906.9	
729	7197.2	
729.18	6653.9	
729.36	4271.4	
729.54	6031.3	
729.72	7381.6	
729.91	6079.7	
730.09	5834	
730.27	4869.4	
730.45	6070.2	
730.63	6519.4	
730.81	5291.3	
730.99	4621.6	
731.17	6956.9	
731.35	5836	
731.53	4981.3	
731.71	4717.2	
731.9	6668.9	
732.08	6800.6	
732.26	4893.3	
732.44	4609.3	
732.62	6805.4	
732.8	6298.9	
732.98	5170.4	
733.16	4456.4	
733.34	6379.4	
733.52	5466	
733.7	4747.9	
733.88	4916.5	
734.07	6210.1	
734.25	6041.5	
734.43	4412	
734.61	5531.6	
734.79	7157.7	
734.97	5922	
735.15	4508.9	
735.33	4711.7	
735.51	6219.7	
735.69	5993	
735.87	5466	
736.05	4794.3	
736.23	6135.7	
736.41	5814.9	
736.59	4666.6	
736.77	4810	
736.95	6346	
737.13	5926.8	
737.32	4399	
737.5	4605.9	
737.68	6799.3	
737.86	5793	
738.04	4236.6	
738.22	5650.3	
738.4	5701.5	
738.58	5973.9	
738.76	4665.3	
738.94	3910.9	
739.12	5772.5	
739.3	5709.7	
739.48	5134.9	
739.66	4915.8	
739.84	5930.9	
740.02	5897.5	
740.2	3974.4	
740.38	4187.4	
740.56	6141.2	
740.74	5294	
740.92	4649.6	
741.1	4599.1	
741.28	5746.6	
741.46	5527.5	
741.64	4342.4	
741.82	4769	
742	5762.3	
742.18	5653.1	
742.36	4492.6	
742.54	4175.1	
742.72	6222.4	
742.9	5156.8	
743.08	4799.8	
743.26	3810.6	
743.44	6256.5	
743.62	6178	
743.8	4894.6	
743.98	4144.4	
744.16	5962.3	
744.34	5652.4	
744.52	4762.9	
744.7	4693.3	
744.88	6008.1	
745.06	5651	
745.24	4748.6	
745.42	4845.5	
745.6	6030.6	
745.78	5933	
745.96	3839.9	
746.14	4108.9	
746.32	6694.8	
746.5	6038.1	
746.68	4470.7	
746.86	4070	
747.03	6261.3	
747.21	5103.5	
747.39	4521.2	
747.57	4051.6	
747.75	5754.8	
747.93	5983.5	
748.11	4027.7	
748.29	4007.9	
748.47	6919.4	
748.65	5502.9	
748.83	4599.1	
749.01	4367.6	
749.19	5858.6	
749.37	5172.5	
749.55	4301.4	
749.73	4305.5	
749.91	5632.6	
750.09	5428.5	
750.26	4377.9	
750.44	3958.7	
750.62	5636.7	
750.8	5586.9	
750.98	3830.4	
751.16	4093.9	
751.34	5671.5	
751.52	5185.5	
751.7	4627.7	
751.88	3775.8	
752.06	6054.5	
752.24	5803.3	
752.42	3723.2	
752.59	4028.4	
752.77	5533.6	
752.95	6442.9	
753.13	4572.4	
753.31	4114.4	
753.49	5322.7	
753.67	5612.1	
753.85	4291.2	
754.03	3943	
754.21	5842.9	
754.38	6047	
754.56	4087.1	
754.74	3372.3	
754.92	5242.8	
755.1	5743.2	
755.28	3391.4	
755.46	3407.1	
755.64	6397.2	
755.82	6399.9	
755.99	3639.2	
756.17	3730	
756.35	4489.8	
756.53	5641.5	
756.71	2912.9	
756.89	3573.7	
757.07	5341.8	
757.25	4665.3	
757.42	4009.2	
757.6	4568.3	
757.78	5421	
757.96	4638	
758.14	3699.3	
758.32	3342.3	
758.5	4343.7	
758.67	4915.8	
758.85	3561.4	
759.03	3655.6	
759.21	5084.4	
759.39	4647.5	
759.57	3266.5	
759.75	4139.6	
759.92	5613.5	
760.1	5143.1	
760.28	4405.2	
760.46	4618.9	
760.64	4883	
760.82	4747.2	
760.99	4272.1	
761.17	3694.5	
761.35	5533.6	
761.53	4700.1	
761.71	3809.9	
761.89	4328	
762.06	5420.3	
762.24	5005.9	
762.42	3850.2	
762.6	3690.4	
762.78	5016.8	
762.96	5477	
763.13	4162.8	
763.31	3849.5	
763.49	5603.2	
763.67	4992.9	
763.85	4538.3	
764.02	4896	
764.2	5882.4	
764.38	5206.6	
764.56	3788.7	
764.74	4463.9	
764.91	5899.5	
765.09	5048.2	
765.27	3611.3	
765.45	3393.5	
765.63	5935	
765.8	5797.8	
765.98	3216	
766.16	3489.1	
766.34	4706.2	
766.52	4603.2	
766.69	4165.6	
766.87	3308.2	
767.05	5034.6	
767.23	5573.9	
767.41	3586.7	
767.58	3802.4	
767.76	5503.6	
767.94	5548.6	
768.12	3650.8	
768.29	4165.6	
768.47	5042.8	
768.65	5687.2	
768.83	3335.5	
769	4193.6	
769.18	4798.4	
769.36	5295.4	
769.54	4210.6	
769.72	3386	
769.89	5585.5	
770.07	5551.4	
770.25	3704.8	
770.43	4580.6	
770.6	6105	
770.78	6337.1	
770.96	3783.3	
771.14	4271.4	
771.31	5504.9	
771.49	4937.7	
771.67	3168.2	
771.85	3293.8	
772.02	4453.6	
772.2	4949.3	
772.38	3938.2	
772.55	3462.4	
772.73	5152.7	
772.91	4992.3	
773.09	3812.6	
773.26	3857	
773.44	5161.6	
773.62	4866	
773.8	3385.3	
773.97	3242.6	
774.15	5255.8	
774.33	4914.4	
774.5	3325.9	
774.68	3601.7	
774.86	5356.1	
775.04	4999.8	
775.21	3405.8	
775.39	3327.3	
775.57	5111.7	
775.74	5312.4	
775.92	3228.3	
776.1	3167.5	
776.27	5094	
776.45	6040.8	
776.63	3375.1	
776.81	3046	
776.98	4870.1	
777.16	5629.2	
777.34	3381.2	
777.51	3717.7	
777.69	4851.6	
777.87	4635.9	
778.04	3594.9	
778.22	3938.2	
778.4	4657.8	
778.57	5186.8	
778.75	2979.1	
778.93	3205.1	
779.1	4552.6	
779.28	4377.9	
779.46	2973.7	
779.64	3276.1	
779.81	5311.7	
779.99	5958.2	
780.17	3965.6	
780.34	3978.5	
780.52	4947.9	
780.69	4996.4	
780.87	3596.2	
781.05	3238.5	
781.22	4920.6	
781.4	4982.7	
781.58	3412.6	
781.75	2721.1	
781.93	4915.8	
782.11	4422.9	
782.28	4005.8	
782.46	3389.4	
782.64	4365.6	
782.81	5118.6	
782.99	3467.9	
783.17	3393.5	
783.34	4986.1	
783.52	4436.6	
783.69	3493.2	
783.87	4110.3	
784.05	4579.9	
784.22	4520.5	
784.4	4128	
784.58	3624.2	
784.75	5229.1	
784.93	4577.2	
785.1	3325.9	
785.28	3826.3	
785.46	4999.8	
785.63	4444.8	
785.81	3386.7	
785.99	3231.7	
786.16	4617.5	
786.34	4932.2	
786.51	3230.3	
786.69	3558	
786.87	4252.3	
787.04	4674.1	
787.22	3107.5	
787.39	3870.7	
787.57	4484.4	
787.75	5257.1	
787.92	4083	
788.1	3910.3	
788.27	4500.1	
788.45	4222.2	
788.63	3713.6	
788.8	2775	
788.98	4786.8	
789.15	4152.6	
789.33	2918.4	
789.5	3340.2	
789.68	5169.8	
789.86	5237.3	
790.03	3738.2	
790.21	3212.6	
790.38	5211.4	
790.56	4635.2	
790.73	3192.8	
790.91	3131.3	
791.09	4521.9	
791.26	5025.7	
791.44	3340.9	
791.61	2923.8	
791.79	4476.9	
791.96	4490.5	
792.14	3024.2	
792.32	2714.2	
792.49	4406.5	
792.67	4577.2	
792.84	3089	
793.02	2917.7	
793.19	4889.9	
793.37	5318.6	
793.54	2667.8	
793.72	2977.7	
793.89	5378.6	
794.07	4446.1	
794.25	3359.4	
794.42	2773.6	
794.6	5277.6	
794.77	4992.3	
794.95	3666.5	
795.12	3183.2	
795.3	4504.2	
795.47	4901.5	
795.65	3496.6	
795.82	3369.6	
796	4339.6	
796.17	5717.2	
796.35	3351.8	
796.52	3815.4	
796.7	4853.7	
796.87	4995	
797.05	3269.2	
797.22	3939.6	
797.4	4960.2	
797.57	5627.1	
797.75	3442	
797.92	3250.1	
798.1	5180.7	
798.27	4349.2	
798.45	2807.1	
798.62	2933.4	
798.8	4717.8	
798.97	5075.5	
799.15	3525.2	
799.32	3405.1	
799.5	4131.4	
799.67	4723.3	
799.85	3625.6	
800.02	2695.8	
800.2	4439.3	
800.37	4650.3	
800.55	3779.2	
800.72	3180.5	
800.9	5117.9	
801.07	5340.4	
801.25	4175.8	
801.42	3480.2	
801.6	5111.7	
801.77	4777.2	
801.95	3276.1	
802.12	3100.6	
802.29	4873.5	
802.47	4799.8	
802.64	3448.1	
802.82	2695.1	
802.99	4425	
803.17	5112.4	
803.34	3428.3	
803.52	3030.3	
803.69	5691.3	
803.87	4308.2	
804.04	3367.5	
804.21	3442.6	
804.39	5299.5	
804.56	4554.7	
804.74	2890.4	
804.91	3512.3	
805.09	4397.7	
805.26	4491.9	
805.44	2947.7	
805.61	3256.3	
805.78	5004.6	
805.96	4920.6	
806.13	3452.9	
806.31	3675.4	
806.48	4102.8	
806.66	4500.1	
806.83	3489.7	
807	3376.4	
807.18	4465.3	
807.35	4703.5	
807.53	3363.4	
807.7	2785.9	
807.87	5327.4	
808.05	4461.2	
808.22	3672	
808.4	2803	
808.57	4410.6	
808.74	4216.1	
808.92	3142.9	
809.09	3882.3	
809.27	4423.6	
809.44	4780	
809.61	2803.7	
809.79	3083.6	
809.96	5444.9	
810.14	4982.7	
810.31	2704	
810.48	3324.5	
810.66	4529.4	
810.83	5028.4	
811.01	3168.2	
811.18	3414	
811.35	5043.5	
811.53	4017.4	
811.7	3678.8	
811.87	3434.4	
812.05	4489.1	
812.22	4455	
812.39	3028.3	
812.57	2889	
812.74	4524	
812.92	5668.1	
813.09	3316.3	
813.26	3510.9	
813.44	5497.4	
813.61	4366.3	
813.78	2792.7	
813.96	3577.8	
814.13	4506.2	
814.3	4255.7	
814.48	3855.6	
814.65	3259	
814.82	5360.2	
815	4249.5	
815.17	3331.4	
815.34	4013.3	
815.52	4425.7	
815.69	4403.1	
815.87	3274	
816.04	3268.6	
816.21	4447.5	
816.38	4039.3	
816.56	3290.4	
816.73	3057.6	
816.9	5488.6	
817.08	5042.8	
817.25	3048.1	
817.42	3750.5	
817.6	4161.5	
817.77	4463.9	
817.94	3395.5	
818.12	3032.4	
818.29	4296	
818.46	6176	
818.64	3189.4	
818.81	2969.6	
818.98	4285	
819.16	5872.9	
819.33	3561.4	
819.5	3417.4	
819.67	4767	
819.85	5279	
820.02	3283.6	
820.19	3488.4	
820.37	4654.4	
820.54	4374.5	
820.71	3451.5	
820.88	4129.4	
821.06	4645.5	
821.23	4315.8	
821.4	3461.1	
821.58	3349.8	
821.75	5030.5	
821.92	4620.2	
822.09	2839.2	
822.27	2894.5	
822.44	4525.3	
822.61	4413.4	
822.79	2819.4	
822.96	5140.4	
823.13	4770.4	
823.3	4203.8	
823.48	3168.9	
823.65	2894.5	
823.82	5029.1	
823.99	4153.3	
824.17	3955.3	
824.34	2940.9	
824.51	5764.3	
824.68	4552.6	
824.86	3125.9	
825.03	3387.3	
825.2	4436.6	
825.37	5287.9	
825.55	3049.4	
825.72	3351.2	
825.89	5709.7	
826.06	5378	
826.24	3297.2	
826.41	3291.1	
826.58	5352.7	
826.75	4731.5	
826.92	2723.1	
827.1	2907.4	
827.27	7025.9	
827.44	5640.1	
827.61	3108.8	
827.79	3741	
827.96	4316.4	
828.13	4513	
828.3	3297.9	
828.47	2822.8	
828.65	4796.3	
828.82	4704.2	
828.99	4070.7	
829.16	3592.8	
829.34	5040.7	
829.51	4784.1	
829.68	3345	
829.85	3400.3	
830.02	5283.1	
830.2	5006.6	
830.37	2607.1	
830.54	3929.4	
830.71	5587.5	
830.88	4451.6	
831.05	2669.9	
831.23	3008.5	
831.4	5479	
831.57	5905	
831.74	3040.6	
831.91	2813.9	
832.09	4801.8	
832.26	4982	
832.43	3203	
832.6	3579.8	
832.77	4742.4	
832.94	5317.9	
833.12	2575	
833.29	3164.1	
833.46	4801.1	
833.63	6118	
833.8	3410.6	
833.97	3152.5	
834.15	5126.1	
834.32	4838.7	
834.49	3320.4	
834.66	3403.7	
834.83	5141.8	
835	4325.3	
835.17	3084.9	
835.35	3059.7	
835.52	4956.1	
835.69	4774.5	
835.86	3305.4	
836.03	2680.8	
836.2	5023.7	
836.37	4603.2	
836.55	3164.8	
836.72	2992.1	
836.89	4655.7	
837.06	5089.9	
837.23	3274.7	
837.4	3504.1	
837.57	5652.4	
837.75	6062	
837.92	2946.3	
838.09	3124.5	
838.26	4691.2	
838.43	5176.6	
838.6	3359.4	
838.77	3013.2	
838.94	5806	
839.11	5603.2	
839.29	3207.8	
839.46	2560.6	
839.63	5039.4	
839.8	4759.5	
839.97	3119.7	
840.14	3071.3	
840.31	4860.5	
840.48	5089.9	
840.65	2659.6	
840.82	3072.6	
841	4949.9	
841.17	4915.8	
841.34	2879.4	
841.51	2986.6	
841.68	4903.5	
841.85	4726.7	
842.02	2957.3	
842.19	2519.7	
842.36	4886.5	
842.53	4874.8	
842.7	2908.1	
842.87	3493.8	
843.05	6143.9	
843.22	4694.6	
843.39	2762	
843.56	2927.9	
843.73	4639.3	
843.9	5086.5	
844.07	4485.7	
844.24	3725.3	
844.41	6825.9	
844.58	4449.6	
844.75	2800.3	
844.92	3023.5	
845.09	4951.3	
845.26	4958.8	
845.43	2905.4	
845.6	3034.4	
845.77	5008	
845.94	4768.4	
846.12	3166.2	
846.29	3357.3	
846.46	5158.8	
846.63	4928.1	
846.8	2908.1	
846.97	3375.1	
847.14	5336.3	
847.31	4920.6	
847.48	3248.1	
847.65	3491.1	
847.82	5113.1	
847.99	5186.8	
848.16	3700	
848.33	3430.3	
848.5	4595	
848.67	5339.7	
848.84	2835.1	
849.01	2981.2	
849.18	4554	
849.35	4334.9	
849.52	3470.6	
849.69	2814.6	
849.86	5143.8	
850.03	5258.5	
850.2	2872.6	
850.37	3442	
850.54	5125.4	
850.71	4712.4	
850.88	3439.9	
851.05	2854.9	
851.22	4896	
851.39	5385.5	
851.56	2669.2	
851.73	3218.7	
851.9	4440	
852.07	5129.5	
852.24	3157.3	
852.41	2826.2	
852.58	4872.8	
852.75	4503.5	
852.92	3197.6	
853.09	2798.9	
853.26	4599.1	
853.43	5338.4	
853.6	2838.5	
853.77	2439.8	
853.94	5390.3	
854.11	4447.5	
854.28	4119.1	
854.44	3078.8	
854.61	5666.7	
854.78	5257.1	
854.95	2817.3	
855.12	3544.4	
855.29	4049.5	
855.46	5474.2	
855.63	2891.7	
855.8	3870	
855.97	4625.7	
856.14	5248.9	
856.31	3850.2	
856.48	3087	
856.65	4667.3	
856.82	4361.5	
856.99	2817.3	
857.16	3030.3	
857.33	5839.4	
857.49	4746.5	
857.66	3056.9	
857.83	3258.3	
858	4741	
858.17	4863.2	
858.34	2689	
858.51	2915.6	
858.68	5409.4	
858.85	5477	
859.02	3303.4	
859.19	3447.4	
859.36	4447.5	
859.52	4494.6	
859.69	2876.7	
859.86	3361.4	
860.03	4487.8	
860.2	5380.7	
860.37	2664.4	
860.54	2884.2	
860.71	5105.6	
860.88	5489.2	
861.05	3158.7	
861.21	3588.7	
861.38	5432.6	
861.55	4272.1	
861.72	2659.6	
861.89	3149.1	
862.06	5220.3	
862.23	5512.4	
862.4	2834.4	
862.56	2918.4	
862.73	5056.4	
862.9	4806.6	
863.07	3294.5	
863.24	2603.7	
863.41	4375.1	
863.58	4433.9	
863.75	2874.7	
863.91	3264.5	
864.08	5345.9	
864.25	5073.5	
864.42	3528.7	
864.59	3851.5	
864.76	5645.6	
864.93	4446.8	
865.09	2801.6	
865.26	3020.8	
865.43	5274.9	
865.6	5587.5	
865.77	2557.2	
865.94	2837.8	
866.1	5306.3	
866.27	5055.8	
866.44	4203.8	
866.61	2811.9	
866.78	4700.8	
866.95	5058.5	
867.11	2766.8	
867.28	2590.7	
867.45	5274.2	
867.62	4360.8	
867.79	3269.2	
867.96	2815.3	
868.12	4371.7	
868.29	5129.5	
868.46	2873.3	
868.63	3677.5	
868.8	5246.9	
868.97	5062.6	
869.13	2976.4	
869.3	2996.2	
869.47	4992.3	
869.64	5235.3	
869.81	2885.6	
869.97	2895.1	
870.14	4871.4	
870.31	5399.8	
870.48	2774.3	
870.65	3534.8	
870.81	4673.5	
870.98	4726.7	
871.15	3213.3	
871.32	2988.7	
871.48	5036.6	
871.65	5500.2	
871.82	2830.3	
871.99	3157.3	
872.16	5801.2	
872.32	5285.1	
872.49	2891.7	
872.66	2906.1	
872.83	5155.4	
872.99	4542.4	
873.16	3209.2	
873.33	2828.9	
873.5	4830.5	
873.67	4864.6	
873.83	2994.1	
874	3781.2	
874.17	4883.7	
874.34	5705	
874.5	3611.3	
874.67	3448.8	
874.84	5378	
875.01	4373.8	
875.17	3860.4	
875.34	2859	
875.51	4897.4	
875.68	5825.8	
875.84	3388	
876.01	4047.5	
876.18	5060.5	
876.34	5068.7	
876.51	2888.3	
876.68	2848	
876.85	4705.5	
877.01	5342.5	
877.18	3979.9	
877.35	2823.5	
877.52	4869.4	
877.68	4408.6	
877.85	2859.6	
878.02	2794.8	
878.18	4717.2	
878.35	4569	
878.52	2332	
878.69	3181.2	
878.85	5195.7	
879.02	5031.2	
879.19	3945.1	
879.35	3079.5	
879.52	5075.5	
879.69	5170.4	
879.86	2549	
880.02	3151.1	
880.19	4781.3	
880.36	5684.5	
880.52	3220.1	
880.69	3317.7	
880.86	5172.5	
881.02	5213.4	
881.19	3140.2	
881.36	3049.4	
881.52	5014.1	
881.69	4532.8	
881.86	3087	
882.02	3034.4	
882.19	5235.3	
882.36	6000.5	
882.52	2952.5	
882.69	3919.1	
882.86	4894	
883.02	4890.5	
883.19	3426.9	
883.36	3224.2	
883.52	5115.8	
883.69	5760.3	
883.86	2874.7	
884.02	2619.4	
884.19	5090.6	
884.36	4826.4	
884.52	3181.9	
884.69	3000.3	
884.86	4608.6	
885.02	5593.7	
885.19	3123.8	
885.36	3256.3	
885.52	4787.5	
885.69	4944.5	
885.86	4061.1	
886.02	3566.2	
886.19	5173.2	
886.35	4663.2	
886.52	3169.6	
886.69	3820.8	
886.85	4450.2	
887.02	5341.1	
887.19	5341.1	
887.35	5341.1	
887.52	5341.1	
887.68	5341.1	
887.85	5341.1	
888.02	5341.1	
888.18	5341.1	
888.35	5341.1	
888.51	5341.1	
888.68	5341.1	
888.85	5341.1	
889.01	5341.1	
889.18	5341.1	
889.35	5341.1	
889.51	5341.1	
889.68	5341.1	
889.84	5341.1	
890.01	5341.1	
890.17	5341.1	
890.34	5341.1	
890.51	5341.1	
890.67	5341.1	
890.84	5341.1	
891	5341.1	
891.17	5341.1	
891.34	5341.1	
891.5	5341.1	
891.67	5341.1	
891.83	5341.1	
892	5341.1	
892.16	5341.1	
892.33	5341.1	
892.5	5341.1	
892.66	5341.1	
892.83	5341.1	
892.99	5341.1	
893.16	5341.1	
893.32	5341.1	
893.49	5341.1	
893.65	5341.1	
893.82	5341.1	
893.99	5341.1	
894.15	5341.1	
894.32	5341.1	
894.48	5341.1	
894.65	5341.1	
894.81	5341.1	
894.98	5341.1	
895.14	5341.1	
895.31	5341.1	
895.47	5341.1	
895.64	5341.1	
895.81	5341.1	
895.97	5341.1	
896.14	5341.1	
896.3	5341.1	
896.47	5341.1	
896.63	5341.1	
896.8	5341.1	
896.96	5341.1	
897.13	5341.1	
897.29	5341.1	
897.46	5341.1	
897.62	5341.1	
897.79	5341.1	
897.95	5341.1	
898.12	5341.1	
898.28	5341.1	
898.45	5341.1	
898.61	5341.1	
898.78	5341.1	
898.94	5341.1	
899.11	5341.1	
899.27	5341.1	
899.44	5341.1	
899.6	5341.1	
899.77	5341.1	
899.93	5341.1	
900.1	5341.1	
900.26	5341.1	
900.43	5341.1	
900.59	5341.1	
900.76	5341.1	
900.92	5341.1	
901.09	5341.1	
901.25	5341.1	
901.42	5341.1	
901.58	5341.1	
901.75	5341.1	
901.91	5341.1	
902.07	5341.1	
902.24	5341.1	
902.4	5341.1	
902.57	5341.1	
902.73	5341.1	
902.9	5341.1	
903.06	5341.1	
903.23	5341.1	
903.39	5341.1	
903.56	5341.1	
903.72	5341.1	
903.88	5341.1	
904.05	5341.1	
904.21	5341.1	
904.38	5341.1	
904.54	5341.1	
904.71	5341.1	
904.87	5341.1	
905.03	5341.1	
905.2	5341.1	
905.36	5341.1	
905.53	5341.1	
905.69	5341.1	
905.86	5341.1	
906.02	5341.1	
906.18	5341.1	
906.35	5341.1	
906.51	5341.1	
906.68	5341.1	
906.84	5341.1	
907.01	5341.1	
907.17	5341.1	
907.33	5341.1	
907.5	5341.1	
907.66	5341.1	
907.83	5341.1	
907.99	5341.1	
908.15	5341.1	
908.32	5341.1	
908.48	5341.1	
908.65	5341.1	
908.81	5341.1	
908.97	5341.1	
909.14	5341.1	
909.3	5341.1	
909.47	5341.1	
909.63	5341.1	
909.79	5341.1	
909.96	5341.1	
910.12	5341.1	
910.28	5341.1	
910.45	5341.1	
910.61	5341.1	
910.78	5341.1	
910.94	5341.1	
911.1	5341.1	
911.27	5341.1	
911.43	5341.1	
911.59	5341.1	
911.76	5341.1	
911.92	5341.1	
912.08	5341.1	
912.25	5341.1	
912.41	5341.1	
912.57	5341.1	
912.74	5341.1	
912.9	5341.1	
913.07	5341.1	
913.23	5341.1	
913.39	5341.1	
913.56	5341.1	
913.72	5341.1	
913.88	5341.1	
914.05	5341.1	
914.21	5341.1	
914.37	5341.1	
914.54	5341.1	
914.7	5341.1	
914.86	5341.1	
915.03	5341.1	
915.19	5341.1	
