Wavelength	Intensities	
nm	a.u.	
179.22	1687.4	
179.44	1679	
179.65	1695.7	
179.86	1662.3	
180.08	1688.2	
180.29	3985.3	
180.51	3027.6	
180.72	4994.3	
180.94	5586.2	
181.15	2781.8	
181.37	2715.6	
181.58	4848.9	
181.79	5013.4	
182.01	2860.3	
182.22	2994.1	
182.44	5014.8	
182.65	4349.9	
182.87	3657	
183.08	3284.3	
183.29	5300.8	
183.51	4444.1	
183.72	3004.4	
183.94	4204.5	
184.15	4786.8	
184.37	4705.5	
184.58	2683.5	
184.79	3493.2	
185.01	4536.9	
185.22	5063.9	
185.44	3705.5	
185.65	3192.8	
185.86	4776.5	
186.08	4410	
186.29	2624.8	
186.51	2824.1	
186.72	4519.9	
186.94	5147.9	
187.15	3219.4	
187.36	3252.9	
187.58	6402	
187.79	4834.6	
188.01	3350.5	
188.22	5077.6	
188.43	5674.9	
188.65	5024.3	
188.86	2876	
189.08	3358	
189.29	4617.5	
189.5	4618.2	
189.72	3087	
189.93	3171.6	
190.15	5207.3	
190.36	5962.3	
190.57	3330	
190.79	3198.9	
191	5200.5	
191.22	5218.9	
191.43	3308.8	
191.64	2851.5	
191.86	5440.1	
192.07	5147.9	
192.29	2912.2	
192.5	3047.4	
192.71	5195.7	
192.93	4593.6	
193.14	3083.6	
193.35	3155.9	
193.57	4624.3	
193.78	5180.7	
194	2498.5	
194.21	2996.2	
194.42	4433.9	
194.64	4781.3	
194.85	3280.8	
195.07	3804.4	
195.28	4804.5	
195.49	4300.1	
195.71	3942.3	
195.92	2887	
196.13	4961.5	
196.35	4962.2	
196.56	4231.1	
196.78	3317.7	
196.99	5988.9	
197.2	5635.3	
197.42	3678.2	
197.63	3344.3	
197.84	4368.3	
198.06	4919.9	
198.27	3108.8	
198.48	3895.9	
198.7	4607.9	
198.91	4796.3	
199.13	3335.5	
199.34	3323.2	
199.55	5169.1	
199.77	4197	
199.98	2956.6	
200.19	3327.3	
200.41	4780	
200.62	4489.1	
200.83	3400.3	
201.05	3621.5	
201.26	4731.5	
201.47	4539.7	
201.69	2969.6	
201.9	2919	
202.11	4757.4	
202.33	5473.5	
202.54	3089	
202.76	3512.9	
202.97	4856.4	
203.18	4871.4	
203.4	3465.2	
203.61	3450.8	
203.82	4806.6	
204.04	4514.4	
204.25	3290.4	
204.46	3262.4	
204.68	4620.9	
204.89	4877.6	
205.1	3209.2	
205.32	2800.9	
205.53	5024.3	
205.74	5184.8	
205.96	2547.7	
206.17	3368.9	
206.38	5046.9	
206.6	5159.5	
206.81	3734.8	
207.02	3088.3	
207.24	4939	
207.45	5282.4	
207.66	3177.1	
207.88	2814.6	
208.09	4930.8	
208.3	4768.4	
208.52	2947	
208.73	3196.2	
208.94	4743.8	
209.15	5296	
209.37	3149.8	
209.58	3562.1	
209.79	5174.5	
210.01	4659.1	
210.22	2652.8	
210.43	2762	
210.65	4756.1	
210.86	5018.9	
211.07	3147	
211.29	2951.1	
211.5	4988.9	
211.71	4711	
211.93	2983.9	
212.14	2927.2	
212.35	4741	
212.56	4840	
212.78	3337.5	
212.99	2777.7	
213.2	5435.3	
213.42	4640	
213.63	3069.2	
213.84	3175.7	
214.06	4301.4	
214.27	4390.8	
214.48	3168.9	
214.69	3344.3	
214.91	5253.7	
215.12	5354.8	
215.33	3332.7	
215.55	3620.1	
215.76	5710.4	
215.97	5063.9	
216.18	3244	
216.4	3234.4	
216.61	4488.5	
216.82	5113.8	
217.04	2960.7	
217.25	3092.4	
217.46	5216.9	
217.67	5053	
217.89	2707.4	
218.1	2774.3	
218.31	4807.9	
218.53	4930.1	
218.74	3099.9	
218.95	3020.8	
219.16	4719.2	
219.38	5435.3	
219.59	3024.2	
219.8	3523.2	
220.01	5822.4	
220.23	4760.8	
220.44	3784.6	
220.65	2957.3	
220.87	4865.3	
221.08	5270.8	
221.29	2795.5	
221.5	3582.6	
221.72	6210.1	
221.93	4524.6	
222.14	3341.6	
222.35	3873.4	
222.57	4798.4	
222.78	5058.5	
222.99	3175	
223.2	3361.4	
223.42	5030.5	
223.63	5081	
223.84	2527.9	
224.05	2544.9	
224.27	5782.1	
224.48	5384.1	
224.69	3872	
224.9	3318.4	
225.12	4843.4	
225.33	4725.3	
225.54	2754.5	
225.75	3022.8	
225.97	4436.6	
226.18	4671.4	
226.39	3180.5	
226.6	3025.5	
226.82	4597	
227.03	4425.7	
227.24	3286.3	
227.45	2816.6	
227.67	5074.2	
227.88	5414.8	
228.09	3704.1	
228.3	3689.8	
228.52	5036	
228.73	4709	
228.94	3106.8	
229.15	2792.1	
229.36	4663.2	
229.58	4694.6	
229.79	3176.4	
230	3577.1	
230.21	5582.8	
230.43	4810.7	
230.64	3238.5	
230.85	3368.9	
231.06	5119.2	
231.28	5077.6	
231.49	2762	
231.7	3255.6	
231.91	5035.3	
232.12	4782.7	
232.34	2887.6	
232.55	3183.2	
232.76	5192.3	
232.97	4829.1	
233.18	2916.3	
233.4	3297.2	
233.61	4910.3	
233.82	4532.2	
234.03	3110.2	
234.25	3060.3	
234.46	6318	
234.67	4821.6	
234.88	3429.7	
235.09	3011.9	
235.31	4964.3	
235.52	4681	
235.73	3312.2	
235.94	2841.2	
236.15	4595	
236.37	5601.2	
236.58	2976.4	
236.79	3141.6	
237	4977.2	
237.21	4379.9	
237.43	3416.7	
237.64	2719.7	
237.85	7852.6	
238.06	4442.7	
238.27	3401	
238.48	2822.8	
238.7	5053.7	
238.91	4632.5	
239.12	3121.8	
239.33	3288.4	
239.54	4625.7	
239.76	4646.8	
239.97	3200.3	
240.18	3183.9	
240.39	5642.2	
240.6	4936.3	
240.82	3337.5	
241.03	2813.9	
241.24	4724	
241.45	5341.8	
241.66	2973.7	
241.87	3402.4	
242.09	5339.1	
242.3	5569.8	
242.51	3444.7	
242.72	3189.4	
242.93	5034.6	
243.14	4714.4	
243.36	3704.8	
243.57	3895.2	
243.78	5407.3	
243.99	4976.6	
244.2	3177.8	
244.41	2887	
244.63	4418.2	
244.84	4948.6	
245.05	3347.1	
245.26	3169.6	
245.47	4991.6	
245.68	5058.5	
245.9	4107.5	
246.11	3355.3	
246.32	4573.8	
246.53	4937	
246.74	4976.6	
246.95	2780.5	
247.16	4465.3	
247.38	4794.3	
247.59	2771.6	
247.8	3213.9	
248.01	4506.2	
248.22	4739	
248.43	2956.6	
248.64	3192.8	
248.86	4326.7	
249.07	4577.9	
249.28	2904.7	
249.49	3308.2	
249.7	5138.4	
249.91	5214.1	
250.12	2710.8	
250.34	2808.4	
250.55	4803.9	
250.76	4777.2	
250.97	3291.1	
251.18	3334.8	
251.39	5221	
251.6	4904.2	
251.81	3338.2	
252.03	3323.2	
252.24	4597	
252.45	5091.3	
252.66	2836.4	
252.87	3436.5	
253.08	4822.3	
253.29	5938.4	
253.5	2841.9	
253.72	3809.2	
253.93	4665.3	
254.14	5496.7	
254.35	3083.6	
254.56	3181.9	
254.77	4911.7	
254.98	4463.2	
255.19	3050.1	
255.41	3789.4	
255.62	4893.3	
255.83	5257.8	
256.04	3382.6	
256.25	3329.3	
256.46	5663.3	
256.67	4501.4	
256.88	3273.3	
257.09	3626.3	
257.31	4444.1	
257.52	4524.6	
257.73	4063.9	
257.94	3052.2	
258.15	4690.5	
258.36	4709.6	
258.57	3753.2	
258.78	2507.4	
258.99	5145.2	
259.2	4648.2	
259.41	3069.9	
259.63	3167.5	
259.84	5466	
260.05	5658.5	
260.26	3893.2	
260.47	2951.8	
260.68	5238	
260.89	4658.4	
261.1	3672	
261.31	2956.6	
261.52	5272.8	
261.73	5454.4	
261.95	3906.2	
262.16	3412.6	
262.37	5296	
262.58	5375.9	
262.79	3843.4	
263	3126.6	
263.21	4864.6	
263.42	4635.2	
263.63	3326.6	
263.84	3076.7	
264.05	5168.4	
264.26	5443.5	
264.47	3787.4	
264.69	3317	
264.9	5317.2	
265.11	4939.7	
265.32	2996.2	
265.53	3032.4	
265.74	4861.2	
265.95	4328	
266.16	3245.3	
266.37	3581.2	
266.58	4863.2	
266.79	4573.1	
267	3030.3	
267.21	2893.8	
267.42	4431.1	
267.63	4779.3	
267.84	3194.8	
268.06	2811.2	
268.27	5144.5	
268.48	5266	
268.69	3151.8	
268.9	3625.6	
269.11	5295.4	
269.32	4359.4	
269.53	3216.7	
269.74	2990	
269.95	4940.4	
270.16	4339	
270.37	3244	
270.58	3633.8	
270.79	4657.8	
271	5190.2	
271.21	3416.7	
271.42	3218	
271.63	4931.5	
271.84	4447.5	
272.05	2636.4	
272.26	2917	
272.47	4775.9	
272.68	4874.8	
272.89	3142.9	
273.11	3509.5	
273.32	4589.5	
273.53	5418.9	
273.74	3375.7	
273.95	3292.5	
274.16	5113.1	
274.37	4726.7	
274.58	3495.2	
274.79	2927.2	
275	4934.9	
275.21	5146.5	
275.42	4070	
275.63	3520.5	
275.84	5008	
276.05	6029.9	
276.26	3349.1	
276.47	3132.7	
276.68	4684.4	
276.89	5519.3	
277.1	3539.6	
277.31	2880.8	
277.52	4964.3	
277.73	5156.1	
277.94	2859.6	
278.15	3102	
278.36	4976.6	
278.57	4521.9	
278.78	3070.6	
278.99	3405.1	
279.2	4552	
279.41	4462.5	
279.62	4008.6	
279.83	2850.8	
280.04	5620.3	
280.25	4450.9	
280.46	3966.9	
280.67	3186	
280.88	4485.1	
281.09	5229.1	
281.3	3364.1	
281.51	4114.4	
281.72	5115.8	
281.93	5090.6	
282.14	3009.8	
282.35	3233.1	
282.56	5191.6	
282.77	5055.8	
282.98	3129.3	
283.19	3710.9	
283.4	6081.1	
283.61	4730.1	
283.82	2880.8	
284.03	3882.9	
284.24	4882.4	
284.45	5221.6	
284.66	3900	
284.87	3707.5	
285.08	5238.7	
285.29	5304.2	
285.5	2828.9	
285.71	3091.8	
285.92	5211.4	
286.12	5670.8	
286.33	3835.2	
286.54	3142.9	
286.75	5100.1	
286.96	4697.4	
287.17	2930	
287.38	3742.3	
287.59	4560.8	
287.8	4517.8	
288.01	3163.4	
288.22	3538.2	
288.43	5027.1	
288.64	4356	
288.85	3711.6	
289.06	3507.5	
289.27	5103.5	
289.48	5408.7	
289.69	3929.4	
289.9	3519.1	
290.11	5253.7	
290.32	4543.8	
290.53	3682.2	
290.74	3420.8	
290.94	5087.8	
291.15	5109.7	
291.36	3041.2	
291.57	3500.7	
291.78	4632.5	
291.99	4361.5	
292.2	2931.3	
292.41	3465.2	
292.62	5228.5	
292.83	5017.5	
293.04	4194.2	
293.25	2981.2	
293.46	4624.3	
293.67	5169.8	
293.88	3024.2	
294.09	2966.1	
294.29	4465.3	
294.5	4891.2	
294.71	3227.6	
294.92	3037.1	
295.13	4626.4	
295.34	5625.1	
295.55	2751.8	
295.76	2759.3	
295.97	5104.2	
296.18	5573.9	
296.39	2883.5	
296.6	2985.9	
296.81	4798.4	
297.01	5058.5	
297.22	3148.4	
297.43	3006.4	
297.64	4589.5	
297.85	4520.5	
298.06	2650.1	
298.27	2783.2	
298.48	4737.6	
298.69	4550.6	
298.9	3274.7	
299.11	2977.7	
299.31	4438.6	
299.52	4460.5	
299.73	3522.5	
299.94	3399.6	
300.15	4821.6	
300.36	4536.3	
300.57	3401	
300.78	3442	
300.99	4683.7	
301.2	4861.2	
301.4	3023.5	
301.61	3252.9	
301.82	4974.5	
302.03	5114.5	
302.24	3612.6	
302.45	2913.6	
302.66	5005.2	
302.87	5272.2	
303.08	3011.2	
303.29	4000.4	
303.49	4608.6	
303.7	4700.8	
303.91	2776.4	
304.12	3812.6	
304.33	4391.5	
304.54	4891.2	
304.75	3095.2	
304.96	2949.8	
305.16	5028.4	
305.37	5542.5	
305.58	2739.5	
305.79	2792.7	
306	4969.1	
306.21	4282.3	
306.42	3051.5	
306.63	4390.8	
306.83	4674.1	
307.04	5110.4	
307.25	3320.4	
307.46	3300.6	
307.67	4246.8	
307.88	5029.8	
308.09	3010.5	
308.29	3112.2	
308.5	4825.7	
308.71	5208	
308.92	3242.6	
309.13	2910.2	
309.34	4653	
309.55	4750.6	
309.75	3727.3	
309.96	3342.3	
310.17	5053	
310.38	4555.4	
310.59	3523.9	
310.8	3326.6	
311.01	5563	
311.21	4681	
311.42	2917	
311.63	2988.7	
311.84	4610.7	
312.05	4833.2	
312.26	3387.3	
312.46	3631	
312.67	4584.7	
312.88	4390.8	
313.09	2940.2	
313.3	2938.2	
313.51	5392.3	
313.71	5653.8	
313.92	2981.2	
314.13	3080.8	
314.34	4969.7	
314.55	4691.2	
314.76	3636.5	
314.96	3293.1	
315.17	4884.4	
315.38	5059.2	
315.59	2995.5	
315.8	2849.4	
316.01	5391.6	
316.21	5430.5	
316.42	2871.3	
316.63	3192.1	
316.84	4636.6	
317.05	5300.1	
317.26	3383.2	
317.46	3149.8	
317.67	4740.4	
317.88	5025.7	
318.09	3637.2	
318.3	2719.7	
318.5	4586.8	
318.71	5012.7	
318.92	4489.1	
319.13	3443.3	
319.34	5142.4	
319.54	5221	
319.75	2760.7	
319.96	2651.4	
320.17	4980	
320.38	5195.7	
320.58	2723.8	
320.79	3171.6	
321	5261.2	
321.21	5297.4	
321.42	3221.5	
321.62	2693.8	
321.83	4466.6	
322.04	4773.1	
322.25	3115.6	
322.46	2940.2	
322.66	4859.1	
322.87	5033.9	
323.08	3562.8	
323.29	2878.8	
323.5	5585.5	
323.7	4418.8	
323.91	3807.9	
324.12	3549.1	
324.33	4911.7	
324.53	4992.9	
324.74	3430.3	
324.95	3554.6	
325.16	4381.3	
325.37	4622.9	
325.57	2981.8	
325.78	2985.9	
325.99	4849.6	
326.2	4441.4	
326.4	4072	
326.61	2792.7	
326.82	4721.9	
327.03	4894	
327.24	3994.9	
327.44	3819.5	
327.65	4996.4	
327.86	4142.4	
328.07	3398.9	
328.27	2884.2	
328.48	5257.1	
328.69	4407.2	
328.9	4078.9	
329.1	3102.7	
329.31	4767.7	
329.52	5339.7	
329.73	2964.8	
329.93	3261.7	
330.14	4854.4	
330.35	4883	
330.56	4683.7	
330.76	3497.9	
330.97	4710.3	
331.18	4827.1	
331.39	3257.6	
331.59	2615.3	
331.8	5213.4	
332.01	5317.2	
332.22	3051.5	
332.42	3386.7	
332.63	4854.4	
332.84	4453.6	
333.05	3252.2	
333.25	3005.7	
333.46	4560.1	
333.67	4769	
333.88	3095.2	
334.08	3349.1	
334.29	6079.7	
334.5	5230.5	
334.7	2885.6	
334.91	3993.5	
335.12	4423.6	
335.33	4971.8	
335.53	3224.2	
335.74	4526.7	
335.95	4657.1	
336.16	4423.6	
336.36	3231	
336.57	3616	
336.78	4398.4	
336.98	5221	
337.19	3930.7	
337.4	3136.1	
337.61	5638.1	
337.81	4366.3	
338.02	3031.7	
338.23	3723.2	
338.43	5385.5	
338.64	4528.1	
338.85	2980.5	
339.05	3834.5	
339.26	5446.2	
339.47	4337.6	
339.68	2945.7	
339.88	4162.8	
340.09	5024.3	
340.3	5176.6	
340.5	3395.5	
340.71	2659.6	
340.92	4421.6	
341.13	5260.5	
341.33	2806.4	
341.54	3411.9	
341.75	4960.2	
341.95	4663.2	
342.16	3248.1	
342.37	3517	
342.57	4446.8	
342.78	4726.7	
342.99	3571.7	
343.19	2757.9	
343.4	5128.8	
343.61	4968.4	
343.81	3133.4	
344.02	2901.3	
344.23	5106.3	
344.43	5298.1	
344.64	3607.8	
344.85	3528.7	
345.06	4967	
345.26	5130.8	
345.47	3399.6	
345.68	3898	
345.88	4318.5	
346.09	5124	
346.3	3433.8	
346.5	2647.3	
346.71	4756.7	
346.92	4487.8	
347.12	2825.5	
347.33	3378.5	
347.54	5224.4	
347.74	5455.8	
347.95	3368.9	
348.16	2607.7	
348.36	4612.7	
348.57	4429.8	
348.78	3401.7	
348.98	3507.5	
349.19	4719.9	
349.39	4261.8	
349.6	2755.9	
349.81	2978.4	
350.01	5051	
350.22	4494.6	
350.43	3263.1	
350.63	3823.6	
350.84	4840	
351.05	4578.6	
351.25	2966.8	
351.46	2785.9	
351.67	5161.6	
351.87	4420.9	
352.08	3164.8	
352.29	3572.3	
352.49	5083.7	
352.7	5139	
352.9	2832.3	
353.11	3532.7	
353.32	5569.8	
353.52	4603.8	
353.73	2881.5	
353.94	3569.6	
354.14	4971.8	
354.35	4753.3	
354.55	2963.4	
354.76	3244	
354.97	4984.1	
355.17	4726	
355.38	2856.2	
355.59	3765.5	
355.79	4523.3	
356	4756.1	
356.2	3222.1	
356.41	2884.2	
356.62	4347.2	
356.82	4647.5	
357.03	3420.1	
357.24	3024.8	
357.44	4477.5	
357.65	4608.6	
357.85	4060.4	
358.06	3267.2	
358.27	4307.6	
358.47	4411.3	
358.68	2798.2	
358.88	3390.8	
359.09	4851.6	
359.3	5152.7	
359.5	3877.5	
359.71	3520.5	
359.91	5448.3	
360.12	4969.1	
360.33	3367.5	
360.53	3695.9	
360.74	4518.5	
360.94	4545.8	
361.15	3530.7	
361.36	2988.7	
361.56	5107	
361.77	4669.4	
361.97	3848.1	
362.18	3163.4	
362.38	5110.4	
362.59	4407.2	
362.8	2895.8	
363	2794.8	
363.21	4253.6	
363.41	4757.4	
363.62	3330.7	
363.83	3979.2	
364.03	4868.7	
364.24	5418.9	
364.44	4067.9	
364.65	4042.7	
364.85	4625.7	
365.06	4416.8	
365.27	3054.9	
365.47	3091.1	
365.68	5352.7	
365.88	4613.4	
366.09	3401.7	
366.29	3073.3	
366.5	4777.9	
366.71	5091.3	
366.91	4012.7	
367.12	3502.7	
367.32	5548.6	
367.53	5021.6	
367.73	3478.1	
367.94	4128	
368.14	5025.7	
368.35	5531.6	
368.56	3378.5	
368.76	2979.8	
368.97	5070.8	
369.17	6209.4	
369.38	3099.9	
369.58	3264.5	
369.79	4330.8	
369.99	5358.2	
370.2	4005.1	
370.4	3304.7	
370.61	4855.7	
370.82	5708.4	
371.02	3253.5	
371.23	2780.5	
371.43	4341.7	
371.64	5297.4	
371.84	3269.9	
372.05	4067.3	
372.25	6150.7	
372.46	4948.6	
372.66	3211.9	
372.87	3277.4	
373.07	5038	
373.28	6246.3	
373.48	3928	
373.69	3703.4	
373.9	4716.5	
374.1	4709	
374.31	3969.6	
374.51	3587.4	
374.72	5305.6	
374.92	4509.6	
375.13	4019.5	
375.33	3401	
375.54	4899.4	
375.74	4614.8	
375.95	3553.2	
376.15	4418.2	
376.36	5063.9	
376.56	4832.5	
376.77	3498.6	
376.97	3853.6	
377.18	5758.9	
377.38	4993.6	
377.59	4050.2	
377.79	3170.9	
378	4867.3	
378.2	5139.7	
378.41	3284.3	
378.61	3132	
378.82	5201.8	
379.02	4630.5	
379.23	3320.4	
379.43	4103.4	
379.64	5369.1	
379.84	4896	
380.05	3254.9	
380.25	3164.1	
380.46	5059.2	
380.66	4743.1	
380.87	4186.7	
381.07	4410.6	
381.28	5551.4	
381.48	5048.9	
381.69	3221.5	
381.89	3295.9	
382.1	4416.1	
382.3	5137.7	
382.51	4085.7	
382.71	4688.5	
382.91	5065.3	
383.12	5468.1	
383.32	3482.9	
383.53	3644	
383.73	4942.4	
383.94	4842.1	
384.14	3657.7	
384.35	3004.4	
384.55	4767.7	
384.76	5017.5	
384.96	3538.2	
385.17	3763.5	
385.37	5068	
385.58	4627.7	
385.78	3721.8	
385.98	2991.4	
386.19	4742.4	
386.39	4972.5	
386.6	3335.5	
386.8	3601.7	
387.01	5039.4	
387.21	5121.3	
387.42	3774.4	
387.62	4222.2	
387.83	4660.5	
388.03	4928.1	
388.23	3576.4	
388.44	4090.5	
388.64	4365.6	
388.85	4428.4	
389.05	3810.6	
389.26	4206.5	
389.46	5884.5	
389.67	5449	
389.87	3786.7	
390.07	3839.3	
390.28	4791.6	
390.48	4556	
390.69	3228.3	
390.89	3460.4	
391.1	4692.6	
391.3	5300.8	
391.5	4305.5	
391.71	4739	
391.91	5132.9	
392.12	5756.2	
392.32	4397.7	
392.53	3796.9	
392.73	4765.6	
392.93	4857.1	
393.14	3614	
393.34	4169.7	
393.55	5173.2	
393.75	4827.1	
393.95	3604.4	
394.16	3526.6	
394.36	4723.3	
394.57	5199.8	
394.77	3220.1	
394.98	3525.9	
395.18	4661.9	
395.38	4711	
395.59	4057	
395.79	3316.3	
396	4758.1	
396.2	5158.8	
396.4	3952.6	
396.61	3954.6	
396.81	5166.3	
397.02	4674.8	
397.22	4171	
397.42	4131.4	
397.63	5281	
397.83	4610	
398.04	3343	
398.24	3723.2	
398.44	5026.4	
398.65	4341	
398.85	3213.3	
399.05	3332.7	
399.26	4705.5	
399.46	5924.8	
399.67	3540.9	
399.87	3355.3	
400.07	4916.5	
400.28	5139.7	
400.48	3444.7	
400.69	4179.2	
400.89	5248.9	
401.09	5689.3	
401.3	3444	
401.5	4133.5	
401.7	5731.6	
401.91	5954.1	
402.11	3753.9	
402.32	3791.5	
402.52	5416.2	
402.72	5283.1	
402.93	3947.8	
403.13	3195.5	
403.33	5922	
403.54	4976.6	
403.74	3742.3	
403.94	4370.4	
404.15	5043.5	
404.35	5859.2	
404.56	3604.4	
404.76	4868	
404.96	5332.9	
405.17	5202.5	
405.37	4461.2	
405.57	3934.8	
405.78	5358.2	
405.98	4999.1	
406.18	3583.9	
406.39	4234.5	
406.59	5290.6	
406.79	5000.5	
407	3497.2	
407.2	3497.9	
407.4	5455.8	
407.61	5522	
407.81	3542.3	
408.01	5032.5	
408.22	4564.2	
408.42	5948.7	
408.62	4178.5	
408.83	3811.3	
409.03	4941.7	
409.23	4917.9	
409.44	3913.7	
409.64	4129.4	
409.84	5707	
410.05	5607.3	
410.25	4013.3	
410.45	3861.1	
410.66	5248.3	
410.86	7037.5	
411.06	4199	
411.27	4093.2	
411.47	6930.3	
411.67	5369.1	
411.88	4274.8	
412.08	4349.9	
412.28	5857.9	
412.49	6180.8	
412.69	4136.9	
412.89	4122.6	
413.09	6088.6	
413.3	6026.5	
413.5	4177.9	
413.7	3923.2	
413.91	5515.9	
414.11	6114.6	
414.31	4011.3	
414.52	4343.1	
414.72	5829.9	
414.92	5787.6	
415.12	4092.5	
415.33	4468	
415.53	6038.8	
415.73	6111.8	
415.94	4730.8	
416.14	4306.2	
416.34	5369.1	
416.55	5243.5	
416.75	5175.9	
416.95	4716.5	
417.15	6077.7	
417.36	6647	
417.56	5344.5	
417.76	4549.2	
417.97	6260	
418.17	6119.3	
418.37	4351.3	
418.57	4339.6	
418.78	6027.9	
418.98	5819	
419.18	4986.8	
419.38	5023	
419.59	5768.4	
419.79	5487.9	
419.99	4356	
420.2	4593.6	
420.4	6154.1	
420.6	6165.8	
420.8	4255.7	
421.01	4173.1	
421.21	6036	
421.41	6152.8	
421.61	4511	
421.82	4365.6	
422.02	5745.2	
422.22	6380.1	
422.42	4943.1	
422.63	4620.2	
422.83	5742.5	
423.03	6642.9	
423.23	4719.9	
423.44	3971.7	
423.64	5853.8	
423.84	5541.1	
424.04	4317.8	
424.25	4102.8	
424.45	6458.6	
424.65	6493.4	
424.85	3916.4	
425.06	4356.7	
425.26	6554.2	
425.46	5747.3	
425.66	4654.4	
425.87	4444.1	
426.07	6283.2	
426.27	6176	
426.47	4563.6	
426.67	4140.3	
426.88	6653.2	
427.08	6150.7	
427.28	4769.7	
427.48	4030.4	
427.69	5425.8	
427.89	5836.7	
428.09	4675.5	
428.29	4074.1	
428.5	6235.4	
428.7	6029.9	
428.9	3967.6	
429.1	4396.3	
429.3	5972.6	
429.51	6223.1	
429.71	4250.2	
429.91	4865.3	
430.11	6199.9	
430.31	6312.5	
430.52	4483.7	
430.72	4638	
430.92	6565.8	
431.12	6178.7	
431.32	4259.8	
431.53	4584.7	
431.73	5441.5	
431.93	6629.3	
432.13	4156.7	
432.33	4100	
432.54	5788.2	
432.74	5944.6	
432.94	4052.2	
433.14	4799.8	
433.34	6281.1	
433.55	5871.5	
433.75	4794.3	
433.95	6055.2	
434.15	6032.6	
434.35	5791	
434.56	4298.7	
434.76	3846.8	
434.96	5976	
435.16	6201.2	
435.36	4143	
435.56	4926.7	
435.77	5803.9	
435.97	5911.1	
436.17	5502.2	
436.37	4910.3	
436.57	5706.3	
436.78	5695.4	
436.98	4911	
437.18	5352.7	
437.38	6220.4	
437.58	5857.9	
437.78	5525.4	
437.99	4516.5	
438.19	6296.8	
438.39	7433.4	
438.59	4502.1	
438.79	4125.3	
438.99	6768.5	
439.2	5913.9	
439.4	4116.4	
439.6	4209.9	
439.8	6061.3	
440	6867.5	
440.2	4842.1	
440.4	4912.4	
440.61	6471.6	
440.81	6800.6	
441.01	4328	
441.21	4982	
441.41	6776.7	
441.61	6509.8	
441.81	5230.5	
442.02	5942.5	
442.22	7202.7	
442.42	6579.4	
442.62	4407.2	
442.82	4502.1	
443.02	6774.7	
443.22	6180.1	
443.43	4799.1	
443.63	4385.4	
443.83	5972.6	
444.03	6028.5	
444.23	5284.4	
444.43	4977.9	
444.63	6285.9	
444.83	7111.9	
445.04	4593.6	
445.24	5469.4	
445.44	6673.6	
445.64	6632.7	
445.84	5186.1	
446.04	5164.3	
446.24	6097.5	
446.44	6913.9	
446.65	4588.1	
446.85	4843.4	
447.05	6213.5	
447.25	6873.7	
447.45	4895.3	
447.65	4416.8	
447.85	6418.3	
448.05	6019	
448.25	5175.9	
448.46	5051.7	
448.66	6376	
448.86	6062.7	
449.06	4370.4	
449.26	5182.7	
449.46	6589	
449.66	5933.6	
449.86	4870.8	
450.06	4814.8	
450.26	6046.3	
450.47	6485.2	
450.67	5029.8	
450.87	5256.5	
451.07	6714.6	
451.27	6429.9	
451.47	4536.9	
451.67	4950.6	
451.87	6157.6	
452.07	7017.7	
452.27	4733.5	
452.47	4752	
452.67	6438.8	
452.88	6785.6	
453.08	4272.7	
453.28	5728.2	
453.48	7363.1	
453.68	6356.2	
453.88	4688.5	
454.08	4780	
454.28	6719.4	
454.48	6402.6	
454.68	5243.5	
454.88	5550.7	
455.08	6778.1	
455.28	6476.4	
455.48	4621.6	
455.68	5086.5	
455.89	7096.2	
456.09	6894.1	
456.29	4853	
456.49	4854.4	
456.69	7122.2	
456.89	6451.8	
457.09	5280.3	
457.29	5603.9	
457.49	6773.3	
457.69	6752.8	
457.89	5165	
458.09	4733.5	
458.29	6525.5	
458.49	7137.9	
458.69	5440.8	
458.89	5012.7	
459.09	7342.7	
459.29	7366.5	
459.49	5189.6	
459.69	5703.6	
459.9	6980.2	
460.1	6660.7	
460.3	5089.9	
460.5	4955.4	
460.7	7020.4	
460.9	6734.4	
461.1	4717.8	
461.3	5663.3	
461.5	7520.1	
461.7	7202	
461.9	5068	
462.1	5370.5	
462.3	6870.3	
462.5	7275.1	
462.7	5064.6	
462.9	5180.7	
463.1	7951.6	
463.3	7757	
463.5	5292.6	
463.7	5991	
463.9	6994.5	
464.1	7279.8	
464.3	5453.1	
464.5	5650.3	
464.7	7570.7	
464.9	7176.8	
465.1	6617	
465.3	5861.3	
465.5	7772.7	
465.7	7717.4	
465.9	6116.6	
466.1	5993.7	
466.3	7628	
466.5	7574.1	
466.7	6619	
466.9	5774.6	
467.1	7582.3	
467.3	8213	
467.5	6601.3	
467.7	5799.2	
467.9	8487.5	
468.1	8992.6	
468.3	6353.5	
468.5	6563.7	
468.7	7572.7	
468.9	7488.1	
469.1	6079.7	
469.3	6511.2	
469.5	9059.5	
469.7	7255.3	
469.9	6386.9	
470.1	5842.9	
470.3	7684.7	
470.5	7647.8	
470.7	6867.5	
470.9	6064	
471.1	7465.5	
471.3	7845.8	
471.5	5908.4	
471.69	7253.9	
471.89	7404.8	
472.09	6984.3	
472.29	6494.1	
472.49	6722.1	
472.69	7262.1	
472.89	7712	
473.09	5839.4	
473.29	5878.4	
473.49	7364.5	
473.69	7393.8	
473.89	6571.2	
474.09	6038.8	
474.29	8361.9	
474.49	8080.6	
474.69	6614.3	
474.89	6120	
475.09	7459.4	
475.29	7368.6	
475.49	5677.7	
475.69	5929.6	
475.88	8692.3	
476.08	7791.8	
476.28	5681.1	
476.48	5897.5	
476.68	8113.4	
476.88	7838.9	
477.08	5933.6	
477.28	6047.7	
477.48	7590.5	
477.68	7987.1	
477.88	5723.4	
478.08	5917.3	
478.28	8105.2	
478.48	7542.7	
478.67	6023.8	
478.87	5614.8	
479.07	8113.4	
479.27	7707.2	
479.47	6182.1	
479.67	6264.1	
479.87	7948.8	
480.07	8381	
480.27	5622.4	
480.47	6793.1	
480.67	7735.9	
480.87	8231.5	
481.06	5850.4	
481.26	6532.3	
481.46	7752.2	
481.66	7600	
481.86	6249	
482.06	6987.7	
482.26	7616.4	
482.46	8339.3	
482.66	6189.6	
482.86	5907	
483.05	7836.2	
483.25	7318.8	
483.45	8066.9	
483.65	6268.8	
483.85	7454.6	
484.05	7621.2	
484.25	6501.6	
484.45	6838.9	
484.65	8333.9	
484.84	8280.6	
485.04	6141.2	
485.24	6128.9	
485.44	8606.9	
485.64	7305.8	
485.84	5666	
486.04	6655.2	
486.24	7615.7	
486.44	7909.3	
486.63	5644.9	
486.83	6378.7	
487.03	7628	
487.23	7731.8	
487.43	5813.5	
487.63	7457.3	
487.83	7875.1	
488.02	8487.5	
488.22	6533	
488.42	6965.8	
488.62	8452.6	
488.82	7663.5	
489.02	6297.5	
489.22	6343.9	
489.41	8339.3	
489.61	8082.6	
489.81	6053.8	
490.01	6115.9	
490.21	8362.5	
490.41	8961.2	
490.61	6126.2	
490.8	6257.2	
491	7996	
491.2	7555.6	
491.4	6735.1	
491.6	6151.4	
491.8	8054	
491.99	8062.2	
492.19	5937.7	
492.39	6133	
492.59	8316.8	
492.79	8322.9	
492.99	6703	
493.18	6107	
493.38	8503.8	
493.58	8957.1	
493.78	6632	
493.98	6346.7	
494.18	8236.9	
494.37	7881.9	
494.57	6929.6	
494.77	6699.6	
494.97	8497.7	
495.17	8692.9	
495.37	6509.1	
495.56	6804.7	
495.76	8856.8	
495.96	8632.2	
496.16	7531.7	
496.36	6757.6	
496.55	8897.7	
496.75	8464.9	
496.95	7182.2	
497.15	7048.4	
497.35	8922.3	
497.54	8771.5	
497.74	6920.1	
497.94	8097.7	
498.14	9341.5	
498.34	9150.3	
498.53	6623.1	
498.73	7195.9	
498.93	8317.5	
499.13	8761.9	
499.33	7153.6	
499.52	7404.1	
499.72	8872.5	
499.92	8968.1	
500.12	6881.9	
500.32	7040.9	
500.51	9099.1	
500.71	8975.6	
500.91	7648.5	
501.11	7438.2	
501.31	9101.2	
501.5	9318.3	
501.7	7980.3	
501.9	7213.6	
502.1	8856.8	
502.29	9094.3	
502.49	7451.9	
502.69	7884.7	
502.89	9022.7	
503.09	9115.5	
503.28	6830.7	
503.48	6976.1	
503.68	8593.3	
503.88	8498.4	
504.07	7600.7	
504.27	7222.5	
504.47	8847.2	
504.67	8873.2	
504.86	7532.4	
505.06	7318.1	
505.26	8714.1	
505.46	9882.8	
505.65	7272.3	
505.85	7435.5	
506.05	8546.9	
506.25	8962.6	
506.44	6778.1	
506.64	7423.2	
506.84	8517.5	
507.04	9054.1	
507.23	6944.7	
507.43	7287.4	
507.63	9904.7	
507.83	8550.3	
508.02	7280.5	
508.22	7084.6	
508.42	10077	
508.62	8481.3	
508.81	7277.8	
509.01	7613	
509.21	8372.8	
509.4	8602.2	
509.6	7376.1	
509.8	6864.8	
510	8505.9	
510.19	9531.2	
510.39	6860	
510.59	6968.6	
510.79	8407.6	
510.98	9418.6	
511.18	7114	
511.38	7073.7	
511.57	9126.4	
511.77	8935.3	
511.97	7514.7	
512.17	6897.6	
512.36	9081.4	
512.56	8965.3	
512.76	6904.4	
512.95	6657.3	
513.15	9207	
513.35	8101.1	
513.55	7608.2	
513.74	6926.9	
513.94	9175.6	
514.14	8621.3	
514.33	7696.9	
514.53	7507.2	
514.73	8701.1	
514.92	8785.1	
515.12	7075	
515.32	6924.2	
515.51	8890.2	
515.71	9127.1	
515.91	8200.7	
516.11	7004.7	
516.3	10094	
516.5	8608.3	
516.7	7460.8	
516.89	7905.8	
517.09	8688.2	
517.29	8694.3	
517.48	7684	
517.68	7212.3	
517.88	8453.3	
518.07	8996	
518.27	7624.6	
518.47	6903.7	
518.66	9395.4	
518.86	8405.5	
519.06	6728.9	
519.25	7019.1	
519.45	8669.7	
519.65	9655.5	
519.84	7627.3	
520.04	8169.3	
520.24	10064	
520.43	9142.1	
520.63	7518.8	
520.83	7299	
521.02	8712.1	
521.22	9088.9	
521.42	7712.7	
521.61	7975.5	
521.81	8801.5	
522.01	8940.1	
522.2	7496.9	
522.4	7322.2	
522.6	9207	
522.79	8277.9	
522.99	7354.9	
523.18	6876.4	
523.38	9036.3	
523.58	9036.3	
523.77	8336.6	
523.97	6879.1	
524.17	10406	
524.36	9861.7	
524.56	8084.7	
524.76	7770	
524.95	9084.1	
525.15	8997.4	
525.34	7718.8	
525.54	7682.6	
525.74	9557.9	
525.93	8821.3	
526.13	8583	
526.33	7802.1	
526.52	9800.9	
526.72	9443.2	
526.91	8706.6	
527.11	8261.5	
527.31	9854.1	
527.5	10246	
527.7	8063.5	
527.89	7419.1	
528.09	9086.8	
528.29	9480.7	
528.48	8344.1	
528.68	8095.6	
528.87	9851.4	
529.07	9891	
529.27	8247.2	
529.46	7918.1	
529.66	9826.8	
529.85	10041	
530.05	7776.1	
530.25	8387.1	
530.44	10790	
530.64	9708.1	
530.83	8133.2	
531.03	8334.6	
531.23	10105	
531.42	9930.6	
531.62	8783.7	
531.81	8108.6	
532.01	10145	
532.21	10417	
532.4	8149.6	
532.6	8400.1	
532.79	10952	
532.99	10252	
533.18	8542.1	
533.38	9326.4	
533.58	10053	
533.77	10632	
533.97	8611	
534.16	9142.1	
534.36	10791	
534.55	10045	
534.75	9329.9	
534.95	8587.1	
535.14	10843	
535.34	10196	
535.53	8449.9	
535.73	9903.3	
535.92	11203	
536.12	10314	
536.31	8553.7	
536.51	9430.9	
536.71	10535	
536.9	10144	
537.1	8635.6	
537.29	8764.6	
537.49	10826	
537.68	10023	
537.88	9106	
538.07	8348.2	
538.27	10308	
538.46	11116	
538.66	8357.8	
538.86	8665.6	
539.05	10344	
539.25	10667	
539.44	8916.2	
539.64	8663.6	
539.83	10214	
540.03	10953	
540.22	8556.4	
540.42	8654	
540.61	10529	
540.81	10584	
541	8976.2	
541.2	9486.9	
541.39	10182	
541.59	10273	
541.78	9296.4	
541.98	8646.5	
542.18	9832.3	
542.37	9919.7	
542.57	8940.1	
542.76	9366.7	
542.96	9901.2	
543.15	10386	
543.35	8867.7	
543.54	8338	
543.74	10532	
543.93	10299	
544.13	8815.1	
544.32	9611.8	
544.52	10522	
544.71	9850.7	
544.91	8037.6	
545.1	8906.6	
545.3	10056	
545.49	10440	
545.69	8095.6	
545.88	8520.2	
546.08	11094	
546.27	10689	
546.47	8955.8	
546.66	8375.5	
546.86	10604	
547.05	11025	
547.24	8490.9	
547.44	8518.2	
547.63	9811.8	
547.83	10514	
548.02	8685.4	
548.22	8851.3	
548.41	9644.6	
548.61	10650	
548.8	8384.4	
549	8381	
549.19	10231	
549.39	10395	
549.58	8142	
549.78	8624	
549.97	10415	
550.17	9907.4	
550.36	9209	
550.55	9929.2	
550.75	9957.2	
550.94	10763	
551.14	8248.5	
551.33	8462.9	
551.53	9429.5	
551.72	10217	
551.92	8471.1	
552.11	8369.4	
552.31	10290	
552.5	10262	
552.69	9565.4	
552.89	8000	
553.08	10301	
553.28	9982.5	
553.47	8397.4	
553.67	9148.3	
553.86	10658	
554.06	9300.5	
554.25	7724.9	
554.44	8192.6	
554.64	11191	
554.83	10854	
555.03	8046.5	
555.22	8396	
555.42	10369	
555.61	10129	
555.8	8279.3	
556	8427.4	
556.19	9549	
556.39	10389	
556.58	8236.2	
556.78	8374.1	
556.97	10021	
557.16	9818.6	
557.36	9118.2	
557.55	8023.3	
557.75	9251.4	
557.94	10615	
558.13	8198	
558.33	7956.4	
558.52	10496	
558.72	9587.2	
558.91	8058.1	
559.1	8187.1	
559.3	9365.4	
559.49	9127.8	
559.69	7707.9	
559.88	8439	
560.07	9901.2	
560.27	10313	
560.46	8532.5	
560.66	8705.9	
560.85	9854.1	
561.04	9198.8	
561.24	7955	
561.43	8033.5	
561.63	9407	
561.82	9646.6	
562.01	8987.9	
562.21	8257.4	
562.4	9890.3	
562.59	10537	
562.79	8120.2	
562.98	8000.7	
563.18	9824.1	
563.37	10832	
563.56	8602.2	
563.76	7999.4	
563.95	9526.5	
564.14	9521.7	
564.34	8336.6	
564.53	8084.7	
564.73	9947	
564.92	10195	
565.11	8442.4	
565.31	7837.6	
565.5	10431	
565.69	9448.6	
565.89	8098.4	
566.08	8320.9	
566.27	10288	
566.47	10623	
566.66	8884.1	
566.85	7994.6	
567.05	10079	
567.24	9617.3	
567.44	8116.1	
567.63	9159.9	
567.82	10334	
568.02	9974.3	
568.21	8164.6	
568.4	8484.7	
568.6	9869.8	
568.79	9987.9	
568.98	8072.4	
569.18	8112.7	
569.37	9904.7	
569.56	11424	
569.76	8406.9	
569.95	9161.2	
570.14	10305	
570.34	10165	
570.53	8187.1	
570.72	8129.1	
570.91	10679	
571.11	9995.5	
571.3	8469.7	
571.49	9175.6	
571.69	10161	
571.88	9723.8	
572.07	8910.7	
572.27	8854.7	
572.46	9581.8	
572.65	10289	
572.85	8325.7	
573.04	8638.3	
573.23	10660	
573.43	10146	
573.62	8155.7	
573.81	8566	
574	10146	
574.2	9945.6	
574.39	8458.8	
574.58	8546.2	
574.78	10803	
574.97	10264	
575.16	8909.3	
575.36	8960.5	
575.55	10602	
575.74	10682	
575.93	8211	
576.13	9050.7	
576.32	10098	
576.51	10604	
576.71	8729.1	
576.9	9660.3	
577.09	10885	
577.28	10454	
577.48	8979	
577.67	8255.4	
577.86	10213	
578.05	10512	
578.25	8786.5	
578.44	8806.9	
578.63	10274	
578.83	11191	
579.02	8348.9	
579.21	9411.8	
579.4	10530	
579.6	10210	
579.79	8770.8	
579.98	10542	
580.17	10708	
580.37	10906	
580.56	8561.9	
580.75	9030.9	
580.94	11055	
581.14	11094	
581.33	9415.9	
581.52	8648.6	
581.71	10639	
581.91	11194	
582.1	8557.1	
582.29	8870.4	
582.48	10408	
582.68	10368	
582.87	9123	
583.06	8854.7	
583.25	10772	
583.45	10130	
583.64	9561.3	
583.83	9895.1	
584.02	10404	
584.21	10638	
584.41	9515.5	
584.6	8925.7	
584.79	10506	
584.98	11017	
585.18	8539.3	
585.37	8515.5	
585.56	10253	
585.75	10709	
585.94	8719.6	
586.14	9223.4	
586.33	11185	
586.52	10399	
586.71	9099.8	
586.91	8871.8	
587.1	10001	
587.29	10733	
587.48	8680	
587.67	8733.2	
587.87	10655	
588.06	10613	
588.25	9684.2	
588.44	9063.6	
588.63	10291	
588.83	10716	
589.02	8786.5	
589.21	8630.1	
589.4	10254	
589.59	10109	
589.78	7941.3	
589.98	8340.7	
590.17	9703.3	
590.36	10047	
590.55	7653.9	
590.74	8176.9	
590.94	10933	
591.13	9929.2	
591.32	8066.3	
591.51	7672.4	
591.7	9976.3	
591.89	9764	
592.09	7707.2	
592.28	8067.6	
592.47	9207.7	
592.66	10710	
592.85	7811	
593.05	7908.6	
593.24	9680.7	
593.43	10357	
593.62	8032.1	
593.81	8391.2	
594	9704.6	
594.19	9949.7	
594.39	7889.5	
594.58	7942.7	
594.77	9987.3	
594.96	10411	
595.15	7968.6	
595.34	8268.3	
595.54	10036	
595.73	9349	
595.92	7486	
596.11	8199.4	
596.3	10271	
596.49	9312.8	
596.68	8093.6	
596.88	8320.2	
597.07	10048	
597.26	9176.3	
597.45	7712.7	
597.64	8572.1	
597.83	9525.8	
598.02	9936.1	
598.22	7675.1	
598.41	8338.6	
598.6	9679.4	
598.79	9196.7	
598.98	7762.5	
599.17	8490.9	
599.36	9788.6	
599.55	10612	
599.74	9194	
599.94	9106.6	
600.13	10134	
600.32	9172.9	
600.51	7529	
600.7	7646.4	
600.89	10529	
601.08	10617	
601.27	7424.6	
601.47	8103.8	
601.66	10015	
601.85	10482	
602.04	8000.7	
602.23	8116.8	
602.42	9301.2	
602.61	9686.9	
602.8	7907.2	
602.99	7759.8	
603.18	9518.3	
603.37	9654.1	
603.57	8131.8	
603.76	8478.6	
603.95	10219	
604.14	9796.8	
604.33	7790.5	
604.52	7991.9	
604.71	9688.3	
604.9	9346.2	
605.09	8473.1	
605.28	8312.7	
605.47	10117	
605.66	9839.8	
605.86	8219.2	
606.05	7821.2	
606.24	10198	
606.43	8985.8	
606.62	8038.3	
606.81	8523.6	
607	10043	
607.19	9527.8	
607.38	7614.3	
607.57	7802.1	
607.76	9320.3	
607.95	8901.8	
608.14	8163.2	
608.33	8529.8	
608.52	9259.5	
608.72	10013	
608.91	7494.9	
609.1	7433.4	
609.29	9350.3	
609.48	8974.9	
609.67	8096.3	
609.86	7402	
610.05	9149	
610.24	9326.4	
610.43	7416.4	
610.62	7096.9	
610.81	10158	
611	9972.2	
611.19	7504.4	
611.38	7976.2	
611.57	9546.9	
611.76	10377	
611.95	7326.9	
612.14	7187	
612.33	9385.8	
612.52	8949.6	
612.71	7647.1	
612.9	7182.2	
613.09	8792.6	
613.28	10432	
613.47	7668.3	
613.66	8279.3	
613.85	9434.3	
614.04	9070.5	
614.24	7555	
614.43	6975.4	
614.62	9577.7	
614.81	9506	
615	7931.8	
615.19	8004.8	
615.38	9017.9	
615.57	9187.9	
615.76	7841	
615.95	8570.1	
616.14	9593.4	
616.33	9317.6	
616.52	8175.5	
616.71	8241.7	
616.9	9491.7	
617.09	9443.2	
617.28	7729	
617.47	8477.9	
617.66	8890.2	
617.85	8921.6	
618.04	8335.9	
618.22	7954.3	
618.41	9132.6	
618.6	9895.8	
618.79	7870.3	
618.98	7638.2	
619.17	10140	
619.36	8899.1	
619.55	7830.7	
619.74	7874.4	
619.93	9595.4	
620.12	9217.2	
620.31	8363.9	
620.5	8409.6	
620.69	10024	
620.88	10472	
621.07	9013.1	
621.26	8293.6	
621.45	9794.1	
621.64	9886.2	
621.83	8346.2	
622.02	7784.3	
622.21	9970.2	
622.4	9764.7	
622.59	8782.4	
622.78	8619.9	
622.97	9397.4	
623.16	10301	
623.35	8404.9	
623.54	7737.9	
623.72	9545.6	
623.91	9811.1	
624.1	8593.3	
624.29	7703.8	
624.48	10646	
624.67	10071	
624.86	8660.2	
625.05	7802.8	
625.24	10628	
625.43	9461.6	
625.62	9760.6	
625.81	8096.3	
626	10120	
626.19	9777	
626.38	8637	
626.56	8123.6	
626.75	9584.5	
626.94	10137	
627.13	8593.3	
627.32	7688.1	
627.51	10214	
627.7	10996	
627.89	7660.1	
628.08	8622.6	
628.27	9454.8	
628.46	9680.7	
628.65	7974.8	
628.83	7677.8	
629.02	10017	
629.21	9508.7	
629.4	8332.5	
629.59	8475.2	
629.78	9516.9	
629.97	10196	
630.16	8489.5	
630.35	8127.7	
630.54	10579	
630.72	10327	
630.91	8056.7	
631.1	8520.2	
631.29	9948.3	
631.48	10088	
631.67	8602.2	
631.86	8180.3	
632.05	9723.1	
632.24	9662.3	
632.42	7846.5	
632.61	8383.7	
632.8	9753.8	
632.99	9408.4	
633.18	8321.6	
633.37	8693.6	
633.56	9950.4	
633.75	9809.8	
633.93	8415.8	
634.12	8201.4	
634.31	10632	
634.5	10176	
634.69	8240.3	
634.88	8574.8	
635.07	9808.4	
635.25	10216	
635.44	8796	
635.63	9054.1	
635.82	9661.6	
636.01	9223.4	
636.2	8804.2	
636.39	8443.8	
636.57	10509	
636.76	9972.9	
636.95	8063.5	
637.14	8990.6	
637.33	9958.6	
637.52	10637	
637.7	7886	
637.89	8594.6	
638.08	9735.4	
638.27	10722	
638.46	8607.6	
638.65	8945.5	
638.83	10699	
639.02	9567.4	
639.21	8578.9	
639.4	8901.2	
639.59	9852.1	
639.78	9552.4	
639.96	8078.6	
640.15	8125	
640.34	9852.8	
640.53	9835.7	
640.72	7787.7	
640.91	8038.3	
641.09	9263	
641.28	10298	
641.47	8048.5	
641.66	8633.6	
641.85	9856.9	
642.03	9910.1	
642.22	8523.6	
642.41	8064.9	
642.6	9346.2	
642.79	8809.7	
642.97	7886	
643.16	8410.3	
643.35	9318.3	
643.54	9126.4	
643.73	7740.6	
643.91	8365.3	
644.1	9082.7	
644.29	9540.1	
644.48	7706.5	
644.67	7899.7	
644.85	9201.5	
645.04	9491	
645.23	7534.5	
645.42	7799.3	
645.6	9078.6	
645.79	9854.8	
645.98	7606.8	
646.17	6924.2	
646.36	8708.6	
646.54	9140.8	
646.73	8286.8	
646.92	7264.8	
647.11	8903.9	
647.29	9708.1	
647.48	7294.9	
647.67	7189.1	
647.86	9742.9	
648.05	9889	
648.23	7536.5	
648.42	8431.5	
648.61	9299.8	
648.8	9157.2	
648.98	7220.5	
649.17	7547.4	
649.36	8659.5	
649.55	8331.8	
649.73	7234.1	
649.92	7850.5	
650.11	8732.5	
650.3	9067.7	
650.48	7340.6	
650.67	7316	
650.86	9185.1	
651.05	8432.2	
651.23	7347.4	
651.42	7358.4	
651.61	8718.9	
651.79	8686.8	
651.98	7448.5	
652.17	7191.1	
652.36	8994.7	
652.54	8240.3	
652.73	7084.6	
652.92	7173.4	
653.11	9017.9	
653.29	9196.7	
653.48	6686.6	
653.67	7397.9	
653.85	8870.4	
654.04	9713.5	
654.23	7524.9	
654.42	7192.5	
654.6	8515.5	
654.79	8921	
654.98	6726.9	
655.16	7065.5	
655.35	8145.5	
655.54	7962.5	
655.73	6695.5	
655.91	6552.8	
656.1	8672.5	
656.29	7788.4	
656.47	6255.9	
656.66	7494.9	
656.85	8119.5	
657.03	8176.2	
657.22	6642.2	
657.41	6793.8	
657.59	8228.1	
657.78	8072.4	
657.97	6464.8	
658.16	7080.5	
658.34	8838.4	
658.53	9058.8	
658.72	7736.5	
658.9	8146.8	
659.09	8486.1	
659.28	8467	
659.46	6898.9	
659.65	6858.6	
659.84	8272.4	
660.02	8742.1	
660.21	7024.5	
660.4	6778.1	
660.58	8950.3	
660.77	8476.5	
660.96	7265.5	
661.14	6608.1	
661.33	9336	
661.52	9247.9	
661.7	6511.9	
661.89	9080.7	
662.08	8203.5	
662.26	7918.1	
662.45	6683.2	
662.64	6835.4	
662.82	8779	
663.01	8127	
663.2	6806.1	
663.38	7293.5	
663.57	8640.4	
663.75	8458.1	
663.94	7067.5	
664.13	7821.2	
664.31	8230.8	
664.5	8673.8	
664.69	7190.4	
664.87	7618.4	
665.06	7899.7	
665.25	8543.4	
665.43	7864.2	
665.62	7724.3	
665.8	8760.5	
665.99	8279.9	
666.18	6968.6	
666.36	7085.3	
666.55	8784.4	
666.74	8649.3	
666.92	6752.2	
667.11	7884	
667.29	8295	
667.48	8561.9	
667.67	7626	
667.85	6847.7	
668.04	8262.9	
668.22	8197.3	
668.41	7030.7	
668.6	7351.5	
668.78	8090.8	
668.97	8275.8	
669.15	7251.2	
669.34	6546	
669.53	8106.5	
669.71	8305.9	
669.9	6679.8	
670.08	7116.7	
670.27	8094.9	
670.46	8541.4	
670.64	7284.6	
670.83	7518.8	
671.01	7920.9	
671.2	8410.3	
671.38	6771.9	
671.57	6619.7	
671.76	8892.3	
671.94	9354.4	
672.13	6511.2	
672.31	7348.8	
672.5	8614.4	
672.69	8107.9	
672.87	6707.1	
673.06	6935.1	
673.24	8503.2	
673.43	8174.8	
673.61	7223.2	
673.8	6888.7	
673.98	8567.3	
674.17	8677.9	
674.36	7368.6	
674.54	7225.2	
674.73	8395.3	
674.91	8612.4	
675.1	7077.8	
675.28	6691.4	
675.47	8228.7	
675.65	8674.5	
675.84	6917.4	
676.03	7185	
676.21	8194.6	
676.4	7688.1	
676.58	7523.6	
676.77	7357.7	
676.95	9302.6	
677.14	8106.5	
677.32	6636.8	
677.51	6608.1	
677.69	8683.4	
677.88	7906.5	
678.06	6564.4	
678.25	6713.9	
678.44	8291.5	
678.62	7998.7	
678.81	6550.8	
678.99	7161.1	
679.18	8899.8	
679.36	8596	
679.55	6993.1	
679.73	7381.6	
679.92	8570.7	
680.1	8097.7	
680.29	7782.3	
680.47	6866.2	
680.66	8075.8	
680.84	8736	
681.03	6398.5	
681.21	7103	
681.4	8152.3	
681.58	8077.9	
681.77	6696.9	
681.95	6778.1	
682.14	8714.8	
682.32	8985.8	
682.51	7367.2	
682.69	6503.7	
682.88	7990.5	
683.06	8436.3	
683.25	7120.1	
683.43	7548.8	
683.62	8344.1	
683.8	8518.2	
683.99	7637.6	
684.17	7045.7	
684.36	9178.3	
684.54	8217.1	
684.73	6521.4	
684.91	6685.3	
685.1	8490.9	
685.28	7946.1	
685.46	6920.1	
685.65	6933.7	
685.83	8409	
686.02	7902.4	
686.2	6350.8	
686.39	6474.3	
686.57	7481.2	
686.76	8683.4	
686.94	6377.4	
687.13	6488	
687.31	8222.6	
687.5	7934.5	
687.68	6087.2	
687.86	7006.8	
688.05	9198.1	
688.23	7574.8	
688.42	7090.1	
688.6	6593.1	
688.79	7916.1	
688.97	7990.5	
689.16	6852.5	
689.34	6083.1	
689.52	8471.1	
689.71	8617.9	
689.89	7181.5	
690.08	6688	
690.26	8253.3	
690.45	8101.8	
690.63	7290.1	
690.81	6799.9	
691	8164.6	
691.18	8031.5	
691.37	6902.3	
691.55	8495.7	
691.74	7901.1	
691.92	9461.6	
692.1	6854.6	
692.29	6498.2	
692.47	8131.1	
692.66	7568.6	
692.84	6617.7	
693.02	6981.5	
693.21	7743.4	
693.39	8082	
693.58	7083.9	
693.76	6587	
693.94	8969.4	
694.13	8809.7	
694.31	6782.9	
694.5	7519.5	
694.68	8011.7	
694.86	8324.3	
695.05	7049.8	
695.23	7167.9	
695.42	8596.7	
695.6	10305	
695.78	7608.2	
695.97	6918	
696.15	8722.3	
696.34	8254	
696.52	6790.4	
696.7	7392.5	
696.89	8482.7	
697.07	8066.9	
697.25	7299.6	
697.44	8399.4	
697.62	8630.1	
697.81	8622.6	
697.99	7041.6	
698.17	7360.4	
698.36	8034.2	
698.54	8551.6	
698.72	7296.2	
698.91	6526.9	
699.09	8219.2	
699.28	8070.4	
699.46	7034.8	
699.64	6858.6	
699.83	8017.1	
700.01	8787.2	
700.19	7513.3	
700.38	6393.1	
700.56	8871.8	
700.74	8089.5	
700.93	6610.8	
701.11	7262.1	
701.29	8534.6	
701.48	9339.4	
701.66	6776.7	
701.84	6951.5	
702.03	8256.7	
702.21	8818.6	
702.39	6588.3	
702.58	7041.6	
702.76	8609	
702.94	8741.4	
703.13	6645	
703.31	8352.3	
703.49	8124.3	
703.68	9204.3	
703.86	6721.4	
704.04	7445	
704.23	8441	
704.41	8643.8	
704.59	6901	
704.78	7631.4	
704.96	9672.6	
705.14	8772.1	
705.33	6713.2	
705.51	7260	
705.69	8217.8	
705.87	8878.6	
706.06	7496.9	
706.24	6730.3	
706.42	8566	
706.61	8813.8	
706.79	7546.8	
706.97	6648.4	
707.16	8099.7	
707.34	8445.1	
707.52	7437.5	
707.7	6882.5	
707.89	8149.6	
708.07	7894.2	
708.25	7550.9	
708.44	7574.1	
708.62	8183	
708.8	8995.4	
708.98	7606.8	
709.17	6882.5	
709.35	8445.8	
709.53	8556.4	
709.72	6682.5	
709.9	6911.9	
710.08	8703.2	
710.26	8546.9	
710.45	7789.8	
710.63	6847.7	
710.81	8272.4	
710.99	8321.6	
711.18	7245	
711.36	6901	
711.54	8218.5	
711.72	8727.8	
711.91	6916	
712.09	6538.5	
712.27	8284	
712.45	9025.4	
712.64	7077.8	
712.82	6300.9	
713	7814.4	
713.18	7897.7	
713.37	6286.6	
713.55	7309.2	
713.73	8454.7	
713.91	7448.5	
714.1	6419.7	
714.28	6125.5	
714.46	8031.5	
714.64	7306.5	
714.83	5480.4	
715.01	6051.1	
715.19	7364.5	
715.37	6755.6	
715.55	5685.2	
715.74	5786.2	
715.92	7830.7	
716.1	6279.1	
716.28	6688	
716.47	5909.1	
716.65	6825.2	
716.83	6889.4	
717.01	5743.2	
717.19	5694.7	
717.38	8331.1	
717.56	6543.3	
717.74	5954.1	
717.92	5335	
718.1	7395.2	
718.29	6804.7	
718.47	5090.6	
718.65	5580	
718.83	7484.6	
719.01	7466.2	
719.2	5177.3	
719.38	5933.6	
719.56	7385	
719.74	8471.8	
719.92	5702.9	
720.11	6520.7	
720.29	7484	
720.47	6740.5	
720.65	5317.2	
720.83	5942.5	
721.02	6967.9	
721.2	6640.9	
721.38	5858.6	
721.56	5175.2	
721.74	6309.8	
721.92	6371.2	
722.11	6077	
722.29	5915.2	
722.47	7355.6	
722.65	6635.4	
722.83	5176.6	
723.01	5867.4	
723.2	6646.3	
723.38	6931	
723.56	4710.3	
723.74	5685.2	
723.92	6322.1	
724.1	7211.6	
724.29	5124.7	
724.47	5999.2	
724.65	6507.1	
724.83	6215.6	
725.01	5079.6	
725.19	5677	
725.37	6299.6	
725.56	6348	
725.74	4924	
725.92	5146.5	
726.1	6286.6	
726.28	6566.5	
726.46	5430.5	
726.64	5160.9	
726.83	6470.9	
727.01	6707.1	
727.19	4911.7	
727.37	5513.1	
727.55	6584.2	
727.73	6995.9	
727.91	4824.3	
728.09	4775.2	
728.28	7020.4	
728.46	7226.6	
728.64	5569.1	
728.82	5551.4	
729	7761.1	
729.18	7255.3	
729.36	4944.5	
729.54	6642.9	
729.72	8062.9	
729.91	6748.1	
730.09	6457.2	
730.27	5515.2	
730.45	6728.3	
730.63	7166.5	
730.81	5900.9	
730.99	5210	
731.17	7562.5	
731.35	6406	
731.53	5575.3	
731.71	5418.9	
731.9	7311.9	
732.08	7443	
732.26	5504.9	
732.44	5282.4	
732.62	7453.2	
732.8	7047.1	
732.98	5829.2	
733.16	5068.7	
733.34	7058	
733.52	6130.9	
733.7	5477	
733.88	5601.9	
734.07	6935.1	
734.25	6697.5	
734.43	4987.5	
734.61	6169.2	
734.79	7800.7	
734.97	6606.7	
735.15	5099.4	
735.33	5337	
735.51	6832	
735.69	6567.8	
735.87	6102.9	
736.05	5494.7	
736.23	6770.6	
736.41	6436.8	
736.59	5326.1	
736.77	5418.9	
736.95	7051.2	
737.13	6595.8	
737.32	5078.3	
737.5	5279.7	
737.68	7443.7	
737.86	6501.6	
738.04	4858.5	
738.22	6194.4	
738.4	6322.8	
738.58	6566.5	
738.76	5272.2	
738.94	4536.9	
739.12	6384.9	
739.3	6389.7	
739.48	5671.5	
739.66	5551.4	
739.84	6558.3	
740.02	6563.1	
740.2	4617.5	
740.38	4866.7	
740.56	6738.5	
740.74	5886.5	
740.92	5319.3	
741.1	5220.3	
741.28	6334.4	
741.46	6222.4	
741.64	4996.4	
741.82	5328.8	
742	6391.7	
742.18	6269.5	
742.36	5051.7	
742.54	4825	
742.72	6741.9	
742.9	5766.4	
743.08	5261.2	
743.26	4378.6	
743.44	6855.2	
743.62	6754.9	
743.8	5421	
743.98	4739	
744.16	6472.9	
744.34	6239.5	
744.52	5324.7	
744.7	5296	
744.88	6565.1	
745.06	6188.3	
745.24	5265.3	
745.42	5382.1	
745.6	6622.4	
745.78	6441.5	
745.96	4383.3	
746.14	4618.9	
746.32	7067.5	
746.5	6554.9	
746.68	4963.6	
746.86	4609.3	
747.03	6858.6	
747.21	5674.9	
747.39	5007.3	
747.57	4581.3	
747.75	6184.2	
747.93	6437.4	
748.11	4612	
748.29	4481.6	
748.47	7461.4	
748.65	6023.8	
748.83	5155.4	
749.01	4885.8	
749.19	6326.9	
749.37	5700.9	
749.55	4808.6	
749.73	4892.6	
749.91	6096.8	
750.09	5879	
750.26	4910.3	
750.44	4407.2	
750.62	6073.6	
750.8	6040.8	
750.98	4304.1	
751.16	4590.2	
751.34	6128.9	
751.52	5660.6	
751.7	5137	
751.88	4239.3	
752.06	6477	
752.24	6245.6	
752.42	4246.1	
752.59	4431.1	
752.77	5993.7	
752.95	6872.3	
753.13	4995	
753.31	4521.2	
753.49	5761.6	
753.67	6079.1	
753.85	4806.6	
754.03	4422.2	
754.21	6283.2	
754.38	6567.2	
754.56	4506.9	
754.74	3809.9	
754.92	5584.1	
755.1	6109.1	
755.28	3776.5	
755.46	3723.2	
755.64	6591.7	
755.82	6645	
755.99	3846.8	
756.17	3950.5	
756.35	4644.1	
756.53	5811.5	
756.71	2991.4	
756.89	3688.4	
757.07	5546.6	
757.25	4884.4	
757.42	4129.4	
757.6	4801.1	
757.78	5617.6	
757.96	4887.1	
758.14	3910.9	
758.32	3543.7	
758.5	4524	
758.67	5167.7	
758.85	3781.9	
759.03	3857.7	
759.21	5328.8	
759.39	4885.8	
759.57	3493.2	
759.75	4296	
759.92	5802.6	
760.1	5367.7	
760.28	4611.3	
760.46	4777.2	
760.64	5152	
760.82	4982.7	
760.99	4555.4	
761.17	3919.8	
761.35	5769.1	
761.53	4959.5	
761.71	3968.3	
761.89	4530.1	
762.06	5670.1	
762.24	5345.9	
762.42	4152.6	
762.6	3989.4	
762.78	5265.3	
762.96	5787.6	
763.13	4369	
763.31	4171	
763.49	5853.1	
763.67	5275.6	
763.85	4799.1	
764.02	5223.7	
764.2	6109.1	
764.38	5418.2	
764.56	4073.4	
764.74	4747.9	
764.91	6200.6	
765.09	5349.3	
765.27	3837.9	
765.45	3681.6	
765.63	6232.7	
765.8	6001.9	
765.98	3484.3	
766.16	3656.3	
766.34	5031.2	
766.52	4792.2	
766.69	4381.3	
766.87	3551.2	
767.05	5344.5	
767.23	5905	
767.41	3835.2	
767.58	4013.3	
767.76	5697.4	
767.94	5761.6	
768.12	3911.6	
768.29	4336.2	
768.47	5300.1	
768.65	5902.2	
768.83	3523.2	
769	4399.7	
769.18	4973.2	
769.36	5495.4	
769.54	4369.7	
769.72	3587.4	
769.89	5760.3	
770.07	5737	
770.25	3829	
770.43	4745.8	
770.6	6282.5	
770.78	6514.6	
770.96	3934.1	
771.14	4386.7	
771.31	5618.9	
771.49	5157.5	
771.67	3344.3	
771.85	3489.7	
772.02	4603.2	
772.2	5153.4	
772.38	3953.3	
772.55	3633.8	
772.73	5376.6	
772.91	5177.3	
773.09	3953.3	
773.26	4011.3	
773.44	5257.8	
773.62	5076.9	
773.8	3552.5	
773.97	3335.5	
774.15	5349.3	
774.33	5090.6	
774.5	3459.7	
774.68	3732.8	
774.86	5295.4	
775.04	5088.5	
775.21	3525.9	
775.39	3537.5	
775.57	5305.6	
775.74	5481	
775.92	3376.4	
776.1	3304.7	
776.27	5229.8	
776.45	6120	
776.63	3516.4	
776.81	3198.2	
776.98	4971.8	
777.16	5694.7	
777.34	3530	
777.51	3888.4	
777.69	4938.3	
777.87	4751.3	
778.04	3688.4	
778.22	4126.7	
778.4	4764.3	
778.57	5268.1	
778.75	3072	
778.93	3256.3	
779.1	4650.3	
779.28	4541	
779.46	3103.4	
779.64	3418.7	
779.81	5360.2	
779.99	6077.7	
780.17	4030.4	
780.34	4078.9	
780.52	5015.5	
780.69	5110.4	
780.87	3678.8	
781.05	3388.7	
781.22	5081	
781.4	5057.1	
781.58	3431.7	
781.75	2798.2	
781.93	5028.4	
782.11	4547.9	
782.28	4078.2	
782.46	3427.6	
782.64	4465.3	
782.81	5166.3	
782.99	3582.6	
783.17	3462.4	
783.34	5108.3	
783.52	4533.5	
783.69	3596.9	
783.87	4203.8	
784.05	4584.7	
784.22	4551.3	
784.4	4154	
784.58	3652.2	
784.75	5304.9	
784.93	4640	
785.1	3394.8	
785.28	3918.4	
785.46	5071.5	
785.63	4545.8	
785.81	3414.6	
785.99	3289	
786.16	4728.1	
786.34	4917.9	
786.51	3370.3	
786.69	3603.7	
786.87	4338.3	
787.04	4752.7	
787.22	3170.9	
787.39	3869.3	
787.57	4595.6	
787.75	5330.9	
787.92	4086.4	
788.1	4003.1	
788.27	4554.7	
788.45	4305.5	
788.63	3804.4	
788.8	2781.1	
788.98	4978.6	
789.15	4241.3	
789.33	2969.6	
789.5	3332.7	
789.68	5211.4	
789.86	5263.3	
790.03	3738.9	
790.21	3315	
790.38	5282.4	
790.56	4622.9	
790.73	3213.9	
790.91	3184.6	
791.09	4571.7	
791.26	5057.1	
791.44	3438.5	
791.61	2974.3	
791.79	4523.3	
791.96	4509.6	
792.14	3112.9	
792.32	2772.9	
792.49	4505.5	
792.67	4679.6	
792.84	3151.8	
793.02	2927.2	
793.19	5165	
793.37	5394.3	
793.54	2719	
793.72	3024.2	
793.89	5438.7	
794.07	4534.2	
794.25	3371	
794.42	2828.2	
794.6	5338.4	
794.77	5036	
794.95	3637.2	
795.12	3256.3	
795.3	4532.8	
795.47	4950.6	
795.65	3589.4	
795.82	3381.2	
796	4392.9	
796.17	5726.1	
796.35	3319.8	
796.52	3840.6	
796.7	4901.5	
796.87	5035.3	
797.05	3310.2	
797.22	3863.8	
797.4	4937	
797.57	5666.7	
797.75	3416	
797.92	3246.7	
798.1	5240.1	
798.27	4409.3	
798.45	2805.7	
798.62	3019.4	
798.8	4739	
798.97	5106.3	
799.15	3507.5	
799.32	3416.7	
799.5	4167.6	
799.67	4739.7	
799.85	3737.5	
800.02	2783.2	
800.2	4490.5	
800.37	4672.8	
800.55	3717.7	
800.72	3237.8	
800.9	5010.7	
801.07	5396.4	
801.25	4197	
801.42	3555.3	
801.6	5154.7	
801.77	4769.7	
801.95	3321.8	
802.12	3072	
802.29	4879.6	
802.47	4852.3	
802.64	3461.7	
802.82	2727.9	
802.99	4504.2	
803.17	5152.7	
803.34	3391.4	
803.52	3108.1	
803.69	5689.3	
803.87	4274.8	
804.04	3390.8	
804.21	3424.2	
804.39	5360.2	
804.56	4583.4	
804.74	2966.8	
804.91	3485	
805.09	4470.7	
805.26	4527.4	
805.44	3074.7	
805.61	3237.2	
805.78	5052.3	
805.96	4934.9	
806.13	3492.5	
806.31	3678.2	
806.48	4161.5	
806.66	4512.4	
806.83	3480.2	
807	3365.5	
807.18	4487.1	
807.35	4784.7	
807.53	3363.4	
807.7	2812.5	
807.87	5337.7	
808.05	4549.9	
808.22	3731.4	
808.4	2813.9	
808.57	4434.5	
808.74	4199	
808.92	3181.9	
809.09	3901.4	
809.27	4451.6	
809.44	4844.1	
809.61	2806.4	
809.79	3065.8	
809.96	5472.2	
810.14	5040.7	
810.31	2708.1	
810.48	3309.5	
810.66	4561.5	
810.83	5094	
811.01	3196.2	
811.18	3411.9	
811.35	5042.1	
811.53	4000.4	
811.7	3743.7	
811.87	3439.2	
812.05	4555.4	
812.22	4441.4	
812.39	3071.3	
812.57	2973.7	
812.74	4592.2	
812.92	5762.3	
813.09	3290.4	
813.26	3527.3	
813.44	5533.6	
813.61	4364.9	
813.78	2792.1	
813.96	3644.7	
814.13	4524	
814.3	4289.8	
814.48	3895.9	
814.65	3318.4	
814.82	5359.5	
815	4283.7	
815.17	3363.4	
815.34	3992.9	
815.52	4414.7	
815.69	4393.6	
815.87	3319.8	
816.04	3276.1	
816.21	4479.6	
816.38	4016.1	
816.56	3291.8	
816.73	3055.6	
816.9	5524.7	
817.08	5094.7	
817.25	3080.8	
817.42	3713	
817.6	4187.4	
817.77	4458.4	
817.94	3428.3	
818.12	3035.8	
818.29	4298	
818.46	6242.2	
818.64	3187.3	
818.81	2938.2	
818.98	4299.4	
819.16	5844.2	
819.33	3539.6	
819.5	3355.9	
819.67	4721.9	
819.85	5261.9	
820.02	3314.3	
820.19	3445.4	
820.37	4625	
820.54	4360.1	
820.71	3397.6	
820.88	4120.5	
821.06	4680.3	
821.23	4331.5	
821.4	3441.3	
821.58	3316.3	
821.75	5017.5	
821.92	4605.9	
822.09	2833.7	
822.27	3042.6	
822.44	4496	
822.61	4350.6	
822.79	2807.8	
822.96	5109.7	
823.13	4714.4	
823.3	4225.6	
823.48	3220.1	
823.65	2908.1	
823.82	5043.5	
823.99	4154.6	
824.17	3962.1	
824.34	2955.9	
824.51	5707	
824.68	4530.1	
824.86	3118.4	
825.03	3394.2	
825.2	4500.1	
825.37	5316.5	
825.55	3069.2	
825.72	3362.1	
825.89	5686.5	
826.06	5431.9	
826.24	3246	
826.41	3265.1	
826.58	5396.4	
826.75	4724.7	
826.92	2704.7	
827.1	2970.2	
827.27	7003.4	
827.44	5619.6	
827.61	3158.7	
827.79	3653.6	
827.96	4302.1	
828.13	4520.5	
828.3	3287	
828.47	2745.6	
828.65	4778.6	
828.82	4653	
828.99	4060.4	
829.16	3583.3	
829.34	5062.6	
829.51	4894	
829.68	3321.8	
829.85	3408.5	
830.02	5322.7	
830.2	4952.7	
830.37	2650.1	
830.54	3963.5	
830.71	5618.9	
830.88	4493.2	
831.05	2654.2	
831.23	3024.2	
831.4	5415.5	
831.57	5920	
831.74	3166.2	
831.91	2744.3	
832.09	4782.7	
832.26	4985.4	
832.43	3196.2	
832.6	3589.4	
832.77	4744.5	
832.94	5272.2	
833.12	2634.4	
833.29	3133.4	
833.46	4839.4	
833.63	6103.6	
833.8	3474.7	
833.97	3206.4	
834.15	5061.9	
834.32	4824.3	
834.49	3310.9	
834.66	3397.6	
834.83	5173.2	
835	4343.7	
835.17	3133.4	
835.35	3085.6	
835.52	4963.6	
835.69	4841.4	
835.86	3293.8	
836.03	2732.7	
836.2	4997	
836.37	4667.3	
836.55	3213.3	
836.72	3053.5	
836.89	4669.4	
837.06	5085.1	
837.23	3284.9	
837.4	3545.7	
837.57	5671.5	
837.75	6073.6	
837.92	2972.3	
838.09	3148.4	
838.26	4704.9	
838.43	5106.3	
838.6	3360	
838.77	3014.6	
838.94	5778.7	
839.11	5645.6	
839.29	3192.1	
839.46	2578.4	
839.63	5042.8	
839.8	4728.8	
839.97	3129.3	
840.14	3091.1	
840.31	4889.2	
840.48	5017.5	
840.65	2613.2	
840.82	3046	
841	4958.1	
841.17	4879.6	
841.34	2860.3	
841.51	2969.6	
841.68	4949.3	
841.85	4693.9	
842.02	2968.9	
842.19	2498.5	
842.36	4853	
842.53	4780	
842.7	2910.8	
842.87	3461.1	
843.05	6090	
843.22	4726.7	
843.39	2729.3	
843.56	2970.9	
843.73	4596.3	
843.9	5095.3	
844.07	4517.8	
844.24	3703.4	
844.41	6840.2	
844.58	4427.7	
844.75	2775	
844.92	2994.8	
845.09	4946.5	
845.26	4943.1	
845.43	2807.8	
845.6	3034.4	
845.77	5006.6	
845.94	4776.5	
846.12	3158	
846.29	3353.9	
846.46	5191.6	
846.63	4934.9	
846.8	2877.4	
846.97	3298.6	
847.14	5340.4	
847.31	4968.4	
847.48	3211.9	
847.65	3497.9	
847.82	5149.3	
847.99	5122.7	
848.16	3707.5	
848.33	3537.5	
848.5	4655	
848.67	5320.6	
848.84	2815.3	
849.01	2973.7	
849.18	4595	
849.35	4332.8	
849.52	3488.4	
849.69	2824.1	
849.86	5223.7	
850.03	5239.4	
850.2	2866.5	
850.37	3457.7	
850.54	5145.9	
850.71	4752	
850.88	3344.3	
851.05	2839.8	
851.22	4928.8	
851.39	5365.7	
851.56	2753.8	
851.73	3239.2	
851.9	4433.9	
852.07	5128.8	
852.24	3134.1	
852.41	2821.4	
852.58	4900.8	
852.75	4465.3	
852.92	3202.3	
853.09	2790	
853.26	4605.9	
853.43	5309.7	
853.6	2873.3	
853.77	2493.7	
853.94	5390.3	
854.11	4410	
854.28	4076.1	
854.44	3088.3	
854.61	5663.3	
854.78	5215.5	
854.95	2825.5	
855.12	3496.6	
855.29	4070	
855.46	5341.8	
855.63	2880.8	
855.8	3853.6	
855.97	4612.7	
856.14	5228.5	
856.31	3956.7	
856.48	3119.1	
856.65	4645.5	
856.82	4355.3	
856.99	2777	
857.16	3077.4	
857.33	5788.9	
857.49	4717.8	
857.66	3041.2	
857.83	3198.9	
858	4681	
858.17	4856.4	
858.34	2635.7	
858.51	2846.7	
858.68	5469.4	
858.85	5442.8	
859.02	3248.1	
859.19	3418.7	
859.36	4472.1	
859.52	4469.4	
859.69	2882.9	
859.86	3287.7	
860.03	4491.9	
860.2	5406	
860.37	2669.9	
860.54	2884.9	
860.71	5094.7	
860.88	5382.7	
861.05	3201	
861.21	3518.4	
861.38	5399.8	
861.55	4274.8	
861.72	2622.1	
861.89	3221.5	
862.06	5143.8	
862.23	5457.8	
862.4	2752.5	
862.56	2935.4	
862.73	4974.5	
862.9	4791.6	
863.07	3243.3	
863.24	2666.5	
863.41	4371.7	
863.58	4414.1	
863.75	2882.9	
863.91	3247.4	
864.08	5307	
864.25	5081.7	
864.42	3534.1	
864.59	3956.7	
864.76	5615.5	
864.93	4410	
865.09	2775	
865.26	3007.8	
865.43	5317.2	
865.6	5579.3	
865.77	2534	
865.94	2843.9	
866.1	5352.7	
866.27	5046.2	
866.44	4179.9	
866.61	2793.4	
866.78	4710.3	
866.95	5033.2	
867.11	2814.6	
867.28	2557.9	
867.45	5216.9	
867.62	4431.1	
867.79	3304.1	
867.96	2832.3	
868.12	4406.5	
868.29	5112.4	
868.46	2867.8	
868.63	3739.6	
868.8	5272.8	
868.97	5102.9	
869.13	2968.9	
869.3	2957.9	
869.47	4990.9	
869.64	5158.8	
869.81	2838.5	
869.97	2878.8	
870.14	4928.8	
870.31	5413.5	
870.48	2775.7	
870.65	3493.2	
870.81	4736.3	
870.98	4730.8	
871.15	3215.3	
871.32	2950.4	
871.48	4991.6	
871.65	5522.7	
871.82	2790	
871.99	3078.8	
872.16	5783.5	
872.32	5298.8	
872.49	2936.8	
872.66	2840.5	
872.83	5137.7	
872.99	4560.8	
873.16	3297.2	
873.33	2867.2	
873.5	4846.9	
873.67	4824.3	
873.83	2982.5	
874	3724.6	
874.17	4925.4	
874.34	5595.7	
874.5	3578.5	
874.67	3450.1	
874.84	5371.1	
875.01	4339	
875.17	3855.6	
875.34	2881.5	
875.51	4902.8	
875.68	5819	
875.84	3407.8	
876.01	4086.4	
876.18	5099.4	
876.34	5048.2	
876.51	2860.3	
876.68	2783.9	
876.85	4712.4	
877.01	5237.3	
877.18	3923.9	
877.35	2783.9	
877.52	4866	
877.68	4349.2	
877.85	2805.7	
878.02	2807.8	
878.18	4704.2	
878.35	4541.7	
878.52	2366.8	
878.69	3103.4	
878.85	5144.5	
879.02	5051	
879.19	3987.4	
879.35	3078.8	
879.52	5076.9	
879.69	5132.2	
879.86	2507.4	
880.02	3127.9	
880.19	4747.2	
880.36	5597.1	
880.52	3226.2	
880.69	3336.8	
880.86	5178.6	
881.02	5169.1	
881.19	3078.1	
881.36	3060.3	
881.52	5040.1	
881.69	4568.3	
881.86	3029.6	
882.02	3008.5	
882.19	5313.1	
882.36	6046.3	
882.52	2912.2	
882.69	3824.9	
882.86	4876.2	
883.02	4820.2	
883.19	3337.5	
883.36	3232.4	
883.52	5182	
883.69	5751.4	
883.86	2886.3	
884.02	2596.8	
884.19	5127.4	
884.36	4792.2	
884.52	3229.6	
884.69	3048.1	
884.86	4614.8	
885.02	5503.6	
885.19	3162.7	
885.36	3244.7	
885.52	4736.3	
885.69	4887.1	
885.86	4027.7	
886.02	3516.4	
886.19	5151.3	
886.35	4623.6	
886.52	3147.7	
886.69	3865.9	
886.85	4457.1	
887.02	5398.4	
887.19	5398.4	
887.35	5398.4	
887.52	5398.4	
887.68	5398.4	
887.85	5398.4	
888.02	5398.4	
888.18	5398.4	
888.35	5398.4	
888.51	5398.4	
888.68	5398.4	
888.85	5398.4	
889.01	5398.4	
889.18	5398.4	
889.35	5398.4	
889.51	5398.4	
889.68	5398.4	
889.84	5398.4	
890.01	5398.4	
890.17	5398.4	
890.34	5398.4	
890.51	5398.4	
890.67	5398.4	
890.84	5398.4	
891	5398.4	
891.17	5398.4	
891.34	5398.4	
891.5	5398.4	
891.67	5398.4	
891.83	5398.4	
892	5398.4	
892.16	5398.4	
892.33	5398.4	
892.5	5398.4	
892.66	5398.4	
892.83	5398.4	
892.99	5398.4	
893.16	5398.4	
893.32	5398.4	
893.49	5398.4	
893.65	5398.4	
893.82	5398.4	
893.99	5398.4	
894.15	5398.4	
894.32	5398.4	
894.48	5398.4	
894.65	5398.4	
894.81	5398.4	
894.98	5398.4	
895.14	5398.4	
895.31	5398.4	
895.47	5398.4	
895.64	5398.4	
895.81	5398.4	
895.97	5398.4	
896.14	5398.4	
896.3	5398.4	
896.47	5398.4	
896.63	5398.4	
896.8	5398.4	
896.96	5398.4	
897.13	5398.4	
897.29	5398.4	
897.46	5398.4	
897.62	5398.4	
897.79	5398.4	
897.95	5398.4	
898.12	5398.4	
898.28	5398.4	
898.45	5398.4	
898.61	5398.4	
898.78	5398.4	
898.94	5398.4	
899.11	5398.4	
899.27	5398.4	
899.44	5398.4	
899.6	5398.4	
899.77	5398.4	
899.93	5398.4	
900.1	5398.4	
900.26	5398.4	
900.43	5398.4	
900.59	5398.4	
900.76	5398.4	
900.92	5398.4	
901.09	5398.4	
901.25	5398.4	
901.42	5398.4	
901.58	5398.4	
901.75	5398.4	
901.91	5398.4	
902.07	5398.4	
902.24	5398.4	
902.4	5398.4	
902.57	5398.4	
902.73	5398.4	
902.9	5398.4	
903.06	5398.4	
903.23	5398.4	
903.39	5398.4	
903.56	5398.4	
903.72	5398.4	
903.88	5398.4	
904.05	5398.4	
904.21	5398.4	
904.38	5398.4	
904.54	5398.4	
904.71	5398.4	
904.87	5398.4	
905.03	5398.4	
905.2	5398.4	
905.36	5398.4	
905.53	5398.4	
905.69	5398.4	
905.86	5398.4	
906.02	5398.4	
906.18	5398.4	
906.35	5398.4	
906.51	5398.4	
906.68	5398.4	
906.84	5398.4	
907.01	5398.4	
907.17	5398.4	
907.33	5398.4	
907.5	5398.4	
907.66	5398.4	
907.83	5398.4	
907.99	5398.4	
908.15	5398.4	
908.32	5398.4	
908.48	5398.4	
908.65	5398.4	
908.81	5398.4	
908.97	5398.4	
909.14	5398.4	
909.3	5398.4	
909.47	5398.4	
909.63	5398.4	
909.79	5398.4	
909.96	5398.4	
910.12	5398.4	
910.28	5398.4	
910.45	5398.4	
910.61	5398.4	
910.78	5398.4	
910.94	5398.4	
911.1	5398.4	
911.27	5398.4	
911.43	5398.4	
911.59	5398.4	
911.76	5398.4	
911.92	5398.4	
912.08	5398.4	
912.25	5398.4	
912.41	5398.4	
912.57	5398.4	
912.74	5398.4	
912.9	5398.4	
913.07	5398.4	
913.23	5398.4	
913.39	5398.4	
913.56	5398.4	
913.72	5398.4	
913.88	5398.4	
914.05	5398.4	
914.21	5398.4	
914.37	5398.4	
914.54	5398.4	
914.7	5398.4	
914.86	5398.4	
915.03	5398.4	
915.19	5398.4	
