Wavelength	Intensities	
nm	a.u.	
179.22	1183.6	
179.44	1183.4	
179.65	1183.7	
179.86	1183	
180.08	1200.8	
180.29	1397.4	
180.51	1303.2	
180.72	1303.2	
180.94	1329.1	
181.15	1383.1	
181.37	1313.4	
181.58	1312.7	
181.79	1308.7	
182.01	1316.8	
182.22	1307.3	
182.44	1309.3	
182.65	1305.2	
182.87	1387.8	
183.08	1395.3	
183.29	1351	
183.51	1331.9	
183.72	1309.3	
183.94	1353.7	
184.15	1310.7	
184.37	1331.9	
184.58	1344.8	
184.79	1330.5	
185.01	1306.6	
185.22	1329.1	
185.44	1353.7	
185.65	1338.7	
185.86	1338	
186.08	1310.7	
186.29	1295.7	
186.51	1290.9	
186.72	1359.9	
186.94	1329.8	
187.15	1385.8	
187.36	1361.2	
187.58	1351.7	
187.79	1396	
188.01	1282.7	
188.22	1387.2	
188.43	1375.6	
188.65	1333.2	
188.86	1333.9	
189.08	1384.4	
189.29	1302.5	
189.5	1284.8	
189.72	1324.4	
189.93	1299.8	
190.15	1314.1	
190.36	1373.5	
190.57	1288.2	
190.79	1344.8	
191	1323.7	
191.22	1313.4	
191.43	1374.2	
191.64	1314.8	
191.86	1353.7	
192.07	1366	
192.29	1351.7	
192.5	1308	
192.71	1368.7	
192.93	1328.4	
193.14	1337.3	
193.35	1374.2	
193.57	1360.5	
193.78	1373.5	
194	1288.9	
194.21	1341.4	
194.42	1255.4	
194.64	1355.8	
194.85	1293	
195.07	1363.3	
195.28	1383.1	
195.49	1303.2	
195.71	1296.4	
195.92	1324.4	
196.13	1391.3	
196.35	1295.7	
196.56	1331.2	
196.78	1359.9	
196.99	1407.6	
197.2	1340.7	
197.42	1326.4	
197.63	1361.9	
197.84	1345.5	
198.06	1335.3	
198.27	1320.3	
198.48	1369.4	
198.7	1318.2	
198.91	1343.5	
199.13	1398.8	
199.34	1346.2	
199.55	1415.1	
199.77	1237.7	
199.98	1336.6	
200.19	1333.9	
200.41	1342.8	
200.62	1315.5	
200.83	1346.2	
201.05	1327.1	
201.26	1314.1	
201.47	1405.6	
201.69	1361.9	
201.9	1342.8	
202.11	1343.5	
202.33	1350.3	
202.54	1299.8	
202.76	1340.7	
202.97	1329.1	
203.18	1368.7	
203.4	1357.8	
203.61	1311.4	
203.82	1339.4	
204.04	1292.3	
204.25	1325	
204.46	1363.9	
204.68	1394	
204.89	1353	
205.1	1380.3	
205.32	1338	
205.53	1329.1	
205.74	1336.6	
205.96	1327.8	
206.17	1348.9	
206.38	1319.6	
206.6	1380.3	
206.81	1296.4	
207.02	1319.6	
207.24	1353.7	
207.45	1334.6	
207.66	1351	
207.88	1271.1	
208.09	1368.7	
208.3	1348.2	
208.52	1314.1	
208.73	1359.2	
208.94	1321.6	
209.15	1400.1	
209.37	1372.8	
209.58	1385.1	
209.79	1308	
210.01	1423.3	
210.22	1361.9	
210.43	1345.5	
210.65	1327.8	
210.86	1364.6	
211.07	1267.7	
211.29	1356.4	
211.5	1310	
211.71	1411.1	
211.93	1326.4	
212.14	1338.7	
212.35	1325.7	
212.56	1337.3	
212.78	1333.2	
212.99	1267	
213.2	1384.4	
213.42	1345.5	
213.63	1328.4	
213.84	1337.3	
214.06	1338.7	
214.27	1305.2	
214.48	1276.6	
214.69	1327.8	
214.91	1345.5	
215.12	1353.7	
215.33	1355.8	
215.55	1294.3	
215.76	1388.5	
215.97	1402.2	
216.18	1286.8	
216.4	1382.4	
216.61	1283.4	
216.82	1345.5	
217.04	1332.5	
217.25	1302.5	
217.46	1308.7	
217.67	1308.7	
217.89	1309.3	
218.1	1308.7	
218.31	1326.4	
218.53	1315.5	
218.74	1343.5	
218.95	1330.5	
219.16	1366	
219.38	1407.6	
219.59	1323.7	
219.8	1353	
220.01	1331.2	
220.23	1348.9	
220.44	1348.2	
220.65	1328.4	
220.87	1389.9	
221.08	1363.3	
221.29	1333.9	
221.5	1382.4	
221.72	1354.4	
221.93	1290.9	
222.14	1329.1	
222.35	1386.5	
222.57	1336.6	
222.78	1387.2	
222.99	1380.3	
223.2	1344.2	
223.42	1311.4	
223.63	1307.3	
223.84	1271.8	
224.05	1327.1	
224.27	1305.9	
224.48	1381	
224.69	1372.1	
224.9	1321.6	
225.12	1312.7	
225.33	1346.9	
225.54	1305.2	
225.75	1326.4	
225.97	1361.2	
226.18	1338.7	
226.39	1318.2	
226.6	1321.6	
226.82	1329.8	
227.03	1341.4	
227.24	1338	
227.45	1328.4	
227.67	1336	
227.88	1368	
228.09	1344.2	
228.3	1415.8	
228.52	1328.4	
228.73	1344.2	
228.94	1288.9	
229.15	1373.5	
229.36	1327.8	
229.58	1351	
229.79	1441.1	
230	1318.9	
230.21	1387.8	
230.43	1359.2	
230.64	1352.3	
230.85	1307.3	
231.06	1350.3	
231.28	1378.3	
231.49	1330.5	
231.7	1402.2	
231.91	1398.1	
232.12	1321.6	
232.34	1317.5	
232.55	1347.6	
232.76	1401.5	
232.97	1357.8	
233.18	1312.7	
233.4	1348.2	
233.61	1319.6	
233.82	1291.6	
234.03	1344.2	
234.25	1400.8	
234.46	1448.6	
234.67	1388.5	
234.88	1379	
235.09	1381.7	
235.31	1314.8	
235.52	1348.9	
235.73	1299.1	
235.94	1310	
236.15	1269.1	
236.37	1412.4	
236.58	1354.4	
236.79	1278.6	
237	1346.9	
237.21	1340.1	
237.43	1377.6	
237.64	1285.4	
237.85	1410.4	
238.06	1373.5	
238.27	1313.4	
238.48	1339.4	
238.7	1321.6	
238.91	1361.2	
239.12	1298.4	
239.33	1379.6	
239.54	1292.3	
239.76	1335.3	
239.97	1340.7	
240.18	1375.6	
240.39	1389.9	
240.6	1356.4	
240.82	1358.5	
241.03	1333.9	
241.24	1324.4	
241.45	1345.5	
241.66	1393.3	
241.87	1311.4	
242.09	1353	
242.3	1293	
242.51	1308	
242.72	1327.1	
242.93	1328.4	
243.14	1277.9	
243.36	1339.4	
243.57	1327.1	
243.78	1375.6	
243.99	1303.9	
244.2	1314.8	
244.41	1285.4	
244.63	1284.8	
244.84	1322.3	
245.05	1346.9	
245.26	1329.8	
245.47	1335.3	
245.68	1338	
245.9	1344.8	
246.11	1328.4	
246.32	1290.2	
246.53	1398.8	
246.74	1447.9	
246.95	1304.6	
247.16	1383.1	
247.38	1304.6	
247.59	1311.4	
247.8	1311.4	
248.01	1280.7	
248.22	1336	
248.43	1293	
248.64	1321.6	
248.86	1275.2	
249.07	1353	
249.28	1314.8	
249.49	1406.3	
249.7	1318.2	
249.91	1315.5	
250.12	1292.3	
250.34	1371.5	
250.55	1295.7	
250.76	1289.5	
250.97	1340.1	
251.18	1301.1	
251.39	1307.3	
251.6	1356.4	
251.81	1336.6	
252.03	1342.1	
252.24	1256.1	
252.45	1324.4	
252.66	1336.6	
252.87	1312.7	
253.08	1312.7	
253.29	1414.5	
253.5	1354.4	
253.72	1318.9	
253.93	1307.3	
254.14	1402.2	
254.35	1307.3	
254.56	1372.1	
254.77	1342.1	
254.98	1338.7	
255.19	1362.6	
255.41	1338.7	
255.62	1334.6	
255.83	1383.7	
256.04	1335.3	
256.25	1332.5	
256.46	1400.1	
256.67	1290.2	
256.88	1338	
257.09	1312.7	
257.31	1269.7	
257.52	1291.6	
257.73	1394	
257.94	1383.1	
258.15	1327.1	
258.36	1270.4	
258.57	1320.9	
258.78	1327.1	
258.99	1352.3	
259.2	1325.7	
259.41	1353	
259.63	1325.7	
259.84	1302.5	
260.05	1382.4	
260.26	1410.4	
260.47	1323.7	
260.68	1398.1	
260.89	1368.7	
261.1	1370.1	
261.31	1359.9	
261.52	1393.3	
261.73	1355.8	
261.95	1370.8	
262.16	1310	
262.37	1320.9	
262.58	1307.3	
262.79	1350.3	
263	1302.5	
263.21	1278.6	
263.42	1376.9	
263.63	1319.6	
263.84	1333.2	
264.05	1265	
264.26	1370.8	
264.47	1411.1	
264.69	1349.6	
264.9	1388.5	
265.11	1283.4	
265.32	1311.4	
265.53	1262.2	
265.74	1333.2	
265.95	1315.5	
266.16	1303.9	
266.37	1363.3	
266.58	1305.9	
266.79	1340.1	
267	1363.9	
267.21	1375.6	
267.42	1326.4	
267.63	1333.9	
267.84	1390.6	
268.06	1358.5	
268.27	1306.6	
268.48	1351	
268.69	1298.4	
268.9	1351	
269.11	1280	
269.32	1275.2	
269.53	1317.5	
269.74	1279.3	
269.95	1329.8	
270.16	1332.5	
270.37	1322.3	
270.58	1342.8	
270.79	1340.7	
271	1398.8	
271.21	1318.9	
271.42	1368	
271.63	1331.9	
271.84	1350.3	
272.05	1321.6	
272.26	1290.2	
272.47	1345.5	
272.68	1314.1	
272.89	1338	
273.11	1398.8	
273.32	1277.2	
273.53	1361.9	
273.74	1340.1	
273.95	1317.5	
274.16	1265	
274.37	1375.6	
274.58	1404.2	
274.79	1338.7	
275	1323.7	
275.21	1318.9	
275.42	1342.8	
275.63	1288.2	
275.84	1378.3	
276.05	1308.7	
276.26	1294.3	
276.47	1340.7	
276.68	1363.3	
276.89	1363.3	
277.1	1288.9	
277.31	1331.9	
277.52	1326.4	
277.73	1628.8	
277.94	1348.9	
278.15	1323	
278.36	1362.6	
278.57	1317.5	
278.78	1300.5	
278.99	1359.2	
279.2	1291.6	
279.41	1362.6	
279.62	1441.8	
279.83	1341.4	
280.04	1374.2	
280.25	1360.5	
280.46	1344.8	
280.67	1360.5	
280.88	1337.3	
281.09	1335.3	
281.3	1346.2	
281.51	1367.4	
281.72	1353.7	
281.93	1303.9	
282.14	1348.2	
282.35	1355.8	
282.56	1323.7	
282.77	1355.1	
282.98	1326.4	
283.19	1286.8	
283.4	1396	
283.61	1314.8	
283.82	1336.6	
284.03	1310.7	
284.24	1357.8	
284.45	1360.5	
284.66	1347.6	
284.87	1368	
285.08	1340.1	
285.29	1340.7	
285.5	1309.3	
285.71	1314.8	
285.92	1301.8	
286.12	1389.2	
286.33	1374.2	
286.54	1345.5	
286.75	1327.1	
286.96	1340.1	
287.17	1278.6	
287.38	1359.9	
287.59	1372.1	
287.8	1323	
288.01	1330.5	
288.22	1311.4	
288.43	1251.3	
288.64	1343.5	
288.85	1308	
289.06	1333.2	
289.27	1379	
289.48	1334.6	
289.69	1357.1	
289.9	1331.2	
290.11	1397.4	
290.32	1346.2	
290.53	1331.2	
290.74	1323	
290.94	1303.9	
291.15	1398.8	
291.36	1298.4	
291.57	1312.1	
291.78	1358.5	
291.99	1314.1	
292.2	1351.7	
292.41	1372.1	
292.62	1348.9	
292.83	1433.6	
293.04	1396	
293.25	1361.2	
293.46	1303.2	
293.67	1303.9	
293.88	1277.9	
294.09	1347.6	
294.29	1418.6	
294.5	1356.4	
294.71	1327.1	
294.92	1339.4	
295.13	1295	
295.34	1394	
295.55	1271.1	
295.76	1312.1	
295.97	1357.8	
296.18	1336.6	
296.39	1314.1	
296.6	1359.2	
296.81	1255.4	
297.01	1467	
297.22	1331.2	
297.43	1377.6	
297.64	1371.5	
297.85	1363.3	
298.06	1370.1	
298.27	1330.5	
298.48	1321.6	
298.69	1366.7	
298.9	1305.2	
299.11	1367.4	
299.31	1296.4	
299.52	1363.3	
299.73	1272.5	
299.94	1325	
300.15	1376.9	
300.36	1341.4	
300.57	1297.7	
300.78	1308	
300.99	1319.6	
301.2	1369.4	
301.4	1309.3	
301.61	1318.9	
301.82	1310	
302.03	1378.3	
302.24	1330.5	
302.45	1296.4	
302.66	1372.1	
302.87	1289.5	
303.08	1349.6	
303.29	1396.7	
303.49	1323	
303.7	1294.3	
303.91	1356.4	
304.12	1351.7	
304.33	1307.3	
304.54	1422.7	
304.75	1322.3	
304.96	1264.3	
305.16	1346.2	
305.37	1361.2	
305.58	1312.7	
305.79	1285.4	
306	1348.2	
306.21	1365.3	
306.42	1316.2	
306.63	1362.6	
306.83	1331.2	
307.04	1290.2	
307.25	1314.8	
307.46	1335.3	
307.67	1379.6	
307.88	1355.8	
308.09	1345.5	
308.29	1307.3	
308.5	1357.1	
308.71	1327.1	
308.92	1293	
309.13	1274.5	
309.34	1342.8	
309.55	1331.9	
309.75	1357.8	
309.96	1369.4	
310.17	1303.2	
310.38	1310	
310.59	1283.4	
310.8	1383.7	
311.01	1281.3	
311.21	1415.1	
311.42	1381	
311.63	1336	
311.84	1342.1	
312.05	1352.3	
312.26	1258.1	
312.46	1371.5	
312.67	1310	
312.88	1292.3	
313.09	1300.5	
313.3	1323.7	
313.51	1363.9	
313.71	1505.3	
313.92	1265.6	
314.13	1374.9	
314.34	1361.2	
314.55	1353	
314.76	1293.6	
314.96	1335.3	
315.17	1353	
315.38	1293	
315.59	1327.8	
315.8	1280	
316.01	1342.8	
316.21	1327.1	
316.42	1304.6	
316.63	1364.6	
316.84	1317.5	
317.05	1324.4	
317.26	1314.8	
317.46	1370.1	
317.67	1344.8	
317.88	1323.7	
318.09	1348.9	
318.3	1281.3	
318.5	1294.3	
318.71	1400.8	
318.92	1298.4	
319.13	1359.2	
319.34	1346.9	
319.54	1376.2	
319.75	1314.1	
319.96	1308	
320.17	1273.2	
320.38	1358.5	
320.58	1326.4	
320.79	1282.7	
321	1340.7	
321.21	1425.4	
321.42	1381.7	
321.62	1341.4	
321.83	1304.6	
322.04	1382.4	
322.25	1304.6	
322.46	1302.5	
322.66	1329.1	
322.87	1385.8	
323.08	1286.1	
323.29	1316.2	
323.5	1367.4	
323.7	1304.6	
323.91	1370.8	
324.12	1382.4	
324.33	1314.1	
324.53	1357.8	
324.74	1367.4	
324.95	1312.7	
325.16	1303.2	
325.37	1345.5	
325.57	1282.7	
325.78	1347.6	
325.99	1336	
326.2	1333.9	
326.4	1383.1	
326.61	1305.2	
326.82	1370.1	
327.03	1345.5	
327.24	1314.1	
327.44	1375.6	
327.65	1331.9	
327.86	1318.2	
328.07	1376.9	
328.27	1361.9	
328.48	1381	
328.69	1305.9	
328.9	1400.8	
329.1	1293.6	
329.31	1335.3	
329.52	1343.5	
329.73	1338	
329.93	1311.4	
330.14	1342.1	
330.35	1383.1	
330.56	1328.4	
330.76	1329.8	
330.97	1333.2	
331.18	1348.2	
331.39	1340.1	
331.59	1376.9	
331.8	1368.7	
332.01	1382.4	
332.22	1308	
332.42	1348.2	
332.63	1327.8	
332.84	1308.7	
333.05	1342.8	
333.25	1335.3	
333.46	1316.2	
333.67	1331.2	
333.88	1351	
334.08	1323.7	
334.29	1394.7	
334.5	1325.7	
334.7	1340.1	
334.91	1350.3	
335.12	1272.5	
335.33	1357.8	
335.53	1271.1	
335.74	1425.4	
335.95	1332.5	
336.16	1313.4	
336.36	1321.6	
336.57	1373.5	
336.78	1277.9	
336.98	1371.5	
337.19	1311.4	
337.4	1344.2	
337.61	1374.9	
337.81	1273.8	
338.02	1361.9	
338.23	1329.8	
338.43	1385.8	
338.64	1418.6	
338.85	1286.8	
339.05	1355.1	
339.26	1402.2	
339.47	1274.5	
339.68	1346.9	
339.88	1360.5	
340.09	1321.6	
340.3	1359.2	
340.5	1365.3	
340.71	1338.7	
340.92	1330.5	
341.13	1363.9	
341.33	1323	
341.54	1343.5	
341.75	1327.1	
341.95	1284.8	
342.16	1364.6	
342.37	1355.8	
342.57	1379.6	
342.78	1323	
342.99	1306.6	
343.19	1349.6	
343.4	1310	
343.61	1318.2	
343.81	1359.9	
344.02	1311.4	
344.23	1310	
344.43	1350.3	
344.64	1381.7	
344.85	1336.6	
345.06	1323	
345.26	1334.6	
345.47	1312.7	
345.68	1334.6	
345.88	1319.6	
346.09	1385.8	
346.3	1329.1	
346.5	1275.9	
346.71	1347.6	
346.92	1333.9	
347.12	1293	
347.33	1323	
347.54	1391.9	
347.74	1379.6	
347.95	1351	
348.16	1294.3	
348.36	1350.3	
348.57	1323.7	
348.78	1344.8	
348.98	1272.5	
349.19	1318.2	
349.39	1343.5	
349.6	1339.4	
349.81	1342.8	
350.01	1375.6	
350.22	1314.8	
350.43	1316.8	
350.63	1344.8	
350.84	1329.1	
351.05	1311.4	
351.25	1335.3	
351.46	1353.7	
351.67	1358.5	
351.87	1368	
352.08	1273.2	
352.29	1300.5	
352.49	1332.5	
352.7	1308.7	
352.9	1292.3	
353.11	1347.6	
353.32	1356.4	
353.52	1336.6	
353.73	1258.8	
353.94	1344.2	
354.14	1383.1	
354.35	1258.8	
354.55	1301.1	
354.76	1318.9	
354.97	1427.4	
355.17	1372.1	
355.38	1323.7	
355.59	1337.3	
355.79	1320.9	
356	1308	
356.2	1338	
356.41	1301.1	
356.62	1282	
356.82	1383.1	
357.03	1344.2	
357.24	1314.1	
357.44	1301.1	
357.65	1316.2	
357.85	1295.7	
358.06	1303.2	
358.27	1363.3	
358.47	1268.4	
358.68	1291.6	
358.88	1305.2	
359.09	1371.5	
359.3	1368.7	
359.5	1315.5	
359.71	1371.5	
359.91	1344.2	
360.12	1288.9	
360.33	1396	
360.53	1336	
360.74	1295.7	
360.94	1306.6	
361.15	1299.8	
361.36	1258.1	
361.56	1342.8	
361.77	1346.2	
361.97	1360.5	
362.18	1313.4	
362.38	1360.5	
362.59	1320.9	
362.8	1293.6	
363	1293	
363.21	1257.5	
363.41	1329.8	
363.62	1319.6	
363.83	1338	
364.03	1370.1	
364.24	1343.5	
364.44	1455.4	
364.65	1359.2	
364.85	1327.8	
365.06	1310.7	
365.27	1312.1	
365.47	1353	
365.68	1314.8	
365.88	1362.6	
366.09	1290.2	
366.29	1321.6	
366.5	1293	
366.71	1359.9	
366.91	1316.8	
367.12	1372.1	
367.32	1361.2	
367.53	1297.7	
367.73	1416.5	
367.94	1346.9	
368.14	1358.5	
368.35	1304.6	
368.56	1345.5	
368.76	1352.3	
368.97	1280	
369.17	1352.3	
369.38	1302.5	
369.58	1311.4	
369.79	1266.3	
369.99	1388.5	
370.2	1391.9	
370.4	1309.3	
370.61	1320.9	
370.82	1369.4	
371.02	1336.6	
371.23	1323.7	
371.43	1366.7	
371.64	1376.9	
371.84	1327.1	
372.05	1347.6	
372.25	1362.6	
372.46	1284.1	
372.66	1338.7	
372.87	1349.6	
373.07	1323	
373.28	1423.3	
373.48	1310	
373.69	1356.4	
373.9	1316.2	
374.1	1316.8	
374.31	1289.5	
374.51	1301.8	
374.72	1317.5	
374.92	1369.4	
375.13	1344.2	
375.33	1309.3	
375.54	1407.6	
375.74	1348.9	
375.95	1289.5	
376.15	1320.9	
376.36	1379.6	
376.56	1338.7	
376.77	1359.9	
376.97	1344.2	
377.18	1396.7	
377.38	1313.4	
377.59	1283.4	
377.79	1313.4	
378	1339.4	
378.2	1360.5	
378.41	1310.7	
378.61	1400.1	
378.82	1321.6	
379.02	1357.8	
379.23	1282	
379.43	1325.7	
379.64	1413.1	
379.84	1342.8	
380.05	1297	
380.25	1340.1	
380.46	1376.9	
380.66	1301.8	
380.87	1347.6	
381.07	1388.5	
381.28	1379	
381.48	1362.6	
381.69	1322.3	
381.89	1314.1	
382.1	1331.2	
382.3	1359.9	
382.51	1307.3	
382.71	1336	
382.91	1303.2	
383.12	1333.2	
383.32	1336	
383.53	1350.3	
383.73	1305.9	
383.94	1399.4	
384.14	1378.3	
384.35	1344.2	
384.55	1260.9	
384.76	1329.1	
384.96	1370.1	
385.17	1338.7	
385.37	1357.1	
385.58	1325.7	
385.78	1324.4	
385.98	1386.5	
386.19	1370.1	
386.39	1396.7	
386.6	1336.6	
386.8	1311.4	
387.01	1319.6	
387.21	1372.8	
387.42	1372.1	
387.62	1293	
387.83	1389.9	
388.03	1280	
388.23	1369.4	
388.44	1394	
388.64	1332.5	
388.85	1301.1	
389.05	1366.7	
389.26	1322.3	
389.46	1432.2	
389.67	1377.6	
389.87	1375.6	
390.07	1340.7	
390.28	1333.9	
390.48	1333.2	
390.69	1299.8	
390.89	1333.9	
391.1	1369.4	
391.3	1357.8	
391.5	1384.4	
391.71	1390.6	
391.91	1378.3	
392.12	1400.1	
392.32	1359.2	
392.53	1333.9	
392.73	1282.7	
392.93	1335.3	
393.14	1326.4	
393.34	1299.8	
393.55	1341.4	
393.75	1310	
393.95	1306.6	
394.16	1291.6	
394.36	1325.7	
394.57	1379	
394.77	1344.8	
394.98	1294.3	
395.18	1256.8	
395.38	1346.9	
395.59	1396.7	
395.79	1349.6	
396	1285.4	
396.2	1409.7	
396.4	1386.5	
396.61	1327.8	
396.81	1324.4	
397.02	1318.9	
397.22	1365.3	
397.42	1376.9	
397.63	1358.5	
397.83	1347.6	
398.04	1297	
398.24	1356.4	
398.44	1340.7	
398.65	1276.6	
398.85	1288.2	
399.05	1328.4	
399.26	1333.2	
399.46	1385.8	
399.67	1330.5	
399.87	1370.8	
400.07	1336	
400.28	1401.5	
400.48	1336.6	
400.69	1340.7	
400.89	1340.1	
401.09	1385.8	
401.3	1376.2	
401.5	1338	
401.7	1346.9	
401.91	1439	
402.11	1354.4	
402.32	1318.2	
402.52	1355.8	
402.72	1377.6	
402.93	1378.3	
403.13	1270.4	
403.33	1450	
403.54	1398.1	
403.74	1351	
403.94	1378.3	
404.15	1273.2	
404.35	1426.1	
404.56	1290.9	
404.76	1351.7	
404.96	1331.9	
405.17	1412.4	
405.37	1337.3	
405.57	1360.5	
405.78	1365.3	
405.98	1355.1	
406.18	1344.2	
406.39	1344.8	
406.59	1275.9	
406.79	1399.4	
407	1352.3	
407.2	1382.4	
407.4	1365.3	
407.61	1394	
407.81	1316.2	
408.01	1421.3	
408.22	1259.5	
408.42	1382.4	
408.62	1374.2	
408.83	1359.9	
409.03	1273.2	
409.23	1310	
409.44	1329.8	
409.64	1370.1	
409.84	1364.6	
410.05	1415.8	
410.25	1393.3	
410.45	1387.2	
410.66	1385.8	
410.86	1493.7	
411.06	1349.6	
411.27	1361.9	
411.47	1419.9	
411.67	1315.5	
411.88	1348.2	
412.08	1409	
412.28	1400.8	
412.49	1405.6	
412.69	1340.1	
412.89	1375.6	
413.09	1387.2	
413.3	1406.3	
413.5	1366.7	
413.7	1410.4	
413.91	1256.8	
414.11	1361.9	
414.31	1359.9	
414.52	1387.2	
414.72	1359.9	
414.92	1394	
415.12	1387.2	
415.33	1402.9	
415.53	1331.9	
415.73	1395.3	
415.94	1388.5	
416.14	1340.1	
416.34	1389.2	
416.55	1354.4	
416.75	1351.7	
416.95	1417.9	
417.15	1447.9	
417.36	1479.3	
417.56	1409.7	
417.76	1395.3	
417.97	1460.2	
418.17	1447.2	
418.37	1436.3	
418.57	1412.4	
418.78	1384.4	
418.98	1378.3	
419.18	1461.6	
419.38	1413.1	
419.59	1388.5	
419.79	1374.2	
419.99	1368	
420.2	1388.5	
420.4	1420.6	
420.6	1418.6	
420.8	1338	
421.01	1366.7	
421.21	1381.7	
421.41	1417.9	
421.61	1376.2	
421.82	1366	
422.02	1410.4	
422.22	1395.3	
422.42	1364.6	
422.63	1386.5	
422.83	1403.5	
423.03	1432.9	
423.23	1397.4	
423.44	1411.7	
423.64	1318.2	
423.84	1396	
424.04	1353	
424.25	1363.9	
424.45	1382.4	
424.65	1443.8	
424.85	1333.9	
425.06	1378.3	
425.26	1383.1	
425.46	1404.2	
425.66	1362.6	
425.87	1371.5	
426.07	1393.3	
426.27	1398.1	
426.47	1409	
426.67	1362.6	
426.88	1463.6	
427.08	1406.3	
427.28	1454.7	
427.48	1372.1	
427.69	1405.6	
427.89	1369.4	
428.09	1389.9	
428.29	1370.8	
428.5	1346.9	
428.7	1402.2	
428.9	1411.7	
429.1	1384.4	
429.3	1362.6	
429.51	1403.5	
429.71	1351	
429.91	1398.8	
430.11	1427.4	
430.31	1482.7	
430.52	1424.7	
430.72	1356.4	
430.92	1415.1	
431.12	1418.6	
431.32	1413.1	
431.53	1400.1	
431.73	1409.7	
431.93	1412.4	
432.13	1370.8	
432.33	1359.2	
432.54	1381	
432.74	1437.7	
432.94	1378.3	
433.14	1389.9	
433.34	1442.5	
433.55	1426.8	
433.75	1402.2	
433.95	1432.2	
434.15	1460.2	
434.35	1425.4	
434.56	1385.1	
434.76	1398.8	
434.96	1382.4	
435.16	1427.4	
435.36	1340.7	
435.56	1407.6	
435.77	1439	
435.97	1415.1	
436.17	1415.1	
436.37	1437	
436.57	1338	
436.78	1348.2	
436.98	1402.2	
437.18	1463.6	
437.38	1370.1	
437.58	1356.4	
437.78	1410.4	
437.99	1403.5	
438.19	1446.5	
438.39	1431.5	
438.59	1361.9	
438.79	1388.5	
438.99	1447.2	
439.2	1372.1	
439.4	1338.7	
439.6	1379	
439.8	1356.4	
440	1457.5	
440.2	1402.2	
440.4	1403.5	
440.61	1416.5	
440.81	1458.2	
441.01	1363.9	
441.21	1396	
441.41	1477.3	
441.61	1421.3	
441.81	1379.6	
442.02	1413.8	
442.22	1412.4	
442.42	1459.5	
442.62	1464.3	
442.82	1441.1	
443.02	1472.5	
443.22	1422.7	
443.43	1402.9	
443.63	1368.7	
443.83	1397.4	
444.03	1414.5	
444.23	1445.2	
444.43	1404.9	
444.63	1417.9	
444.83	1505.3	
445.04	1397.4	
445.24	1458.8	
445.44	1426.8	
445.64	1456.8	
445.84	1422	
446.04	1467	
446.24	1391.3	
446.44	1485.5	
446.65	1363.3	
446.85	1430.2	
447.05	1448.6	
447.25	1458.2	
447.45	1428.1	
447.65	1337.3	
447.85	1462.9	
448.05	1451.3	
448.25	1456.8	
448.46	1405.6	
448.66	1394.7	
448.86	1359.9	
449.06	1383.7	
449.26	1435.6	
449.46	1457.5	
449.66	1473.9	
449.86	1434.3	
450.06	1397.4	
450.26	1400.1	
450.47	1461.6	
450.67	1409.7	
450.87	1415.1	
451.07	1463.6	
451.27	1401.5	
451.47	1430.8	
451.67	1412.4	
451.87	1426.1	
452.07	1444.5	
452.27	1475.9	
452.47	1399.4	
452.67	1469.1	
452.88	1467.7	
453.08	1394.7	
453.28	1452.7	
453.48	1516.9	
453.68	1452.7	
453.88	1452	
454.08	1411.7	
454.28	1530.5	
454.48	1486.8	
454.68	1442.5	
454.88	1447.9	
455.08	1485.5	
455.28	1480.7	
455.48	1415.1	
455.68	1429.5	
455.89	1433.6	
456.09	1474.5	
456.29	1467.7	
456.49	1447.9	
456.69	1452.7	
456.89	1466.3	
457.09	1435.6	
457.29	1508.7	
457.49	1449.3	
457.69	1475.9	
457.89	1494.3	
458.09	1460.2	
458.29	1468.4	
458.49	1511.4	
458.69	1486.8	
458.89	1462.9	
459.09	1552.4	
459.29	1467	
459.49	1462.2	
459.69	1456.8	
459.9	1481.4	
460.1	1472.5	
460.3	1485.5	
460.5	1476.6	
460.7	1522.3	
460.9	1493	
461.1	1446.5	
461.3	1446.5	
461.5	1529.8	
461.7	1458.8	
461.9	1409.7	
462.1	1522.3	
462.3	1514.1	
462.5	1486.1	
462.7	1424.7	
462.9	1484.1	
463.1	1548.3	
463.3	1519.6	
463.5	1569.4	
463.7	1521	
463.9	1493	
464.1	1522.3	
464.3	1514.1	
464.5	1540.1	
464.7	1486.1	
464.9	1541.4	
465.1	1516.9	
465.3	1480	
465.5	1544.2	
465.7	1577.6	
465.9	1574.2	
466.1	1522.3	
466.3	1526.4	
466.5	1488.2	
466.7	1544.2	
466.9	1576.9	
467.1	1553	
467.3	1594	
467.5	1545.5	
467.7	1551.7	
467.9	1562.6	
468.1	1610.4	
468.3	1495.7	
468.5	1553	
468.7	1519.6	
468.9	1498.4	
469.1	1572.2	
469.3	1600.1	
469.5	1611.8	
469.7	1536.7	
469.9	1587.2	
470.1	1602.9	
470.3	1587.2	
470.5	1517.5	
470.7	1590.6	
470.9	1596.7	
471.1	1526.4	
471.3	1592	
471.5	1510.7	
471.69	1585.8	
471.89	1513.4	
472.09	1508.7	
472.29	1579.7	
472.49	1598.1	
472.69	1543.5	
472.89	1568.1	
473.09	1516.2	
473.29	1549.6	
473.49	1597.4	
473.69	1505.9	
473.89	1515.5	
474.09	1572.8	
474.29	1517.5	
474.49	1512.1	
474.69	1570.8	
474.89	1574.9	
475.09	1545.5	
475.29	1597.4	
475.49	1531.2	
475.69	1515.5	
475.88	1540.8	
476.08	1568.7	
476.28	1551.7	
476.48	1505.9	
476.68	1624	
476.88	1518.2	
477.08	1572.8	
477.28	1487.5	
477.48	1518.2	
477.68	1555.1	
477.88	1528.5	
478.08	1590.6	
478.28	1521	
478.48	1529.8	
478.67	1658.9	
478.87	1525.1	
479.07	1542.1	
479.27	1551.7	
479.47	1566	
479.67	1554.4	
479.87	1587.9	
480.07	1543.5	
480.27	1550.3	
480.47	1538	
480.67	1527.1	
480.87	1624	
481.06	1579	
481.26	1565.3	
481.46	1583.1	
481.66	1551	
481.86	1607	
482.06	1585.8	
482.26	1567.4	
482.46	1529.1	
482.66	1493.7	
482.86	1588.5	
483.05	1591.3	
483.25	1575.6	
483.45	1624	
483.65	1589.9	
483.85	1538	
484.05	1540.8	
484.25	1583.1	
484.45	1572.8	
484.65	1548.3	
484.84	1572.2	
485.04	1551	
485.24	1555.1	
485.44	1589.2	
485.64	1538.7	
485.84	1556.5	
486.04	1626.1	
486.24	1623.4	
486.44	1614.5	
486.63	1550.3	
486.83	1663.6	
487.03	1564	
487.23	1542.8	
487.43	1592	
487.63	1598.1	
487.83	1521	
488.02	1576.3	
488.22	1561.2	
488.42	1579.7	
488.62	1588.5	
488.82	1577.6	
489.02	1611.8	
489.22	1568.1	
489.41	1564	
489.61	1576.9	
489.81	1551	
490.01	1550.3	
490.21	1638.4	
490.41	1583.8	
490.61	1574.2	
490.8	1613.8	
491	1613.8	
491.2	1559.2	
491.4	1647.2	
491.6	1581	
491.8	1589.9	
491.99	1594.7	
492.19	1604.9	
492.39	1609	
492.59	1546.2	
492.79	1707.3	
492.99	1636.3	
493.18	1635	
493.38	1617.9	
493.58	1637.7	
493.78	1631.5	
493.98	1588.5	
494.18	1570.8	
494.37	1557.8	
494.57	1569.4	
494.77	1654.1	
494.97	1602.2	
495.17	1645.2	
495.37	1581.7	
495.56	1669.8	
495.76	1615.2	
495.96	1665.7	
496.16	1759.2	
496.36	1693.7	
496.55	1697.1	
496.75	1615.2	
496.95	1676.6	
497.15	1637.7	
497.35	1723	
497.54	1688.2	
497.74	1693	
497.94	1735.3	
498.14	1691.6	
498.34	1696.4	
498.53	1632.2	
498.73	1619.3	
498.93	1665.7	
499.13	1678	
499.33	1688.9	
499.52	1666.4	
499.72	1710.7	
499.92	1689.6	
500.12	1622.7	
500.32	1649.3	
500.51	1725.1	
500.71	1704.6	
500.91	1682.1	
501.11	1705.3	
501.31	1665	
501.5	1697.8	
501.7	1782.4	
501.9	1699.1	
502.1	1655.4	
502.29	1725.1	
502.49	1698.4	
502.69	1677.3	
502.89	1701.9	
503.09	1747.6	
503.28	1703.9	
503.48	1688.9	
503.68	1670.5	
503.88	1665.7	
504.07	1734.6	
504.27	1661.6	
504.47	1702.5	
504.67	1645.2	
504.86	1701.2	
505.06	1694.4	
505.26	1724.4	
505.46	1701.9	
505.65	1664.3	
505.85	1748.3	
506.05	1715.5	
506.25	1694.4	
506.44	1632.9	
506.64	1622	
506.84	1684.8	
507.04	1663	
507.23	1738	
507.43	1641.1	
507.63	1656.1	
507.83	1653.4	
508.02	1646.6	
508.22	1652	
508.42	1688.9	
508.62	1640.4	
508.81	1629.5	
509.01	1678.7	
509.21	1618.6	
509.4	1689.6	
509.6	1669.1	
509.8	1632.2	
510	1639.7	
510.19	1645.9	
510.39	1635	
510.59	1690.3	
510.79	1637	
510.98	1680	
511.18	1699.8	
511.38	1636.3	
511.57	1706	
511.77	1666.4	
511.97	1617.2	
512.17	1639.1	
512.36	1680.7	
512.56	1662.3	
512.76	1703.9	
512.95	1652.7	
513.15	1665	
513.35	1624.7	
513.55	1745.6	
513.74	1652	
513.94	1659.5	
514.14	1671.1	
514.33	1676.6	
514.53	1641.8	
514.73	1704.6	
514.92	1647.2	
515.12	1664.3	
515.32	1697.8	
515.51	1686.8	
515.71	1667.7	
515.91	1679.3	
516.11	1653.4	
516.3	1771.5	
516.5	1658.9	
516.7	1675.9	
516.89	1680.7	
517.09	1681.4	
517.29	1664.3	
517.48	1695	
517.68	1711.4	
517.88	1589.2	
518.07	1660.9	
518.27	1721.7	
518.47	1651.3	
518.66	1704.6	
518.86	1680.7	
519.06	1638.4	
519.25	1685.5	
519.45	1662.3	
519.65	1773.5	
519.84	1698.4	
520.04	1761.9	
520.24	1712.8	
520.43	1712.8	
520.63	1716.9	
520.83	1645.2	
521.02	1693	
521.22	1643.2	
521.42	1667.7	
521.61	1718.9	
521.81	1643.8	
522.01	1667.7	
522.2	1656.1	
522.4	1657.5	
522.6	1699.1	
522.79	1699.8	
522.99	1665	
523.18	1655.4	
523.38	1684.1	
523.58	1744.9	
523.77	1723.7	
523.97	1662.3	
524.17	1727.1	
524.36	1709.4	
524.56	1764	
524.76	1697.8	
524.95	1731.9	
525.15	1707.3	
525.34	1764	
525.54	1765.3	
525.74	1758.5	
525.93	1704.6	
526.13	1748.3	
526.33	1742.8	
526.52	1730.5	
526.72	1707.3	
526.91	1750.3	
527.11	1784.5	
527.31	1764	
527.5	1792.7	
527.7	1779.7	
527.89	1657.5	
528.09	1707.3	
528.29	1736.7	
528.48	1813.1	
528.68	1726.4	
528.87	1771.5	
529.07	1712.1	
529.27	1743.5	
529.46	1743.5	
529.66	1738	
529.85	1746.9	
530.05	1802.9	
530.25	1738	
530.44	1774.2	
530.64	1768.1	
530.83	1813.8	
531.03	1746.9	
531.23	1837.7	
531.42	1766	
531.62	1813.1	
531.81	1826.1	
532.01	1711.4	
532.21	1747.6	
532.4	1749	
532.6	1765.3	
532.79	1798.8	
532.99	1788.6	
533.18	1811.8	
533.38	1821.3	
533.58	1842.5	
533.77	1841.8	
533.97	1826.8	
534.16	1835.7	
534.36	1815.9	
534.55	1824.1	
534.75	1760.6	
534.95	1827.5	
535.14	1853.4	
535.34	1816.5	
535.53	1828.2	
535.73	1815.2	
535.92	1839.1	
536.12	1749.6	
536.31	1828.2	
536.51	1864.3	
536.71	1845.2	
536.9	1783.1	
537.1	1771.5	
537.29	1861.6	
537.49	1842.5	
537.68	1817.9	
537.88	1832.2	
538.07	1851.4	
538.27	1804.3	
538.46	1888.2	
538.66	1774.9	
538.86	1824.1	
539.05	1903.9	
539.25	1805.6	
539.44	1853.4	
539.64	1805.6	
539.83	1855.5	
540.03	1854.8	
540.22	1773.5	
540.42	1808.4	
540.61	1938.7	
540.81	1826.8	
541	1783.1	
541.2	1797.4	
541.39	1828.8	
541.59	1824.1	
541.78	1826.1	
541.98	1771.5	
542.18	1833.6	
542.37	1799.5	
542.57	1753.7	
542.76	1785.8	
542.96	1716.2	
543.15	1789.2	
543.35	1825.4	
543.54	1806.3	
543.74	1748.3	
543.93	1809	
544.13	1756.5	
544.32	1828.8	
544.52	1787.2	
544.71	1824.7	
544.91	1749	
545.1	1740.8	
545.3	1767.4	
545.49	1822.7	
545.69	1737.4	
545.88	1792.7	
546.08	1876.6	
546.27	1746.9	
546.47	1807.7	
546.66	1720.3	
546.86	1750.3	
547.05	1766	
547.24	1713.5	
547.44	1814.5	
547.63	1773.5	
547.83	1740.8	
548.02	1777	
548.22	1802.9	
548.41	1778.3	
548.61	1820.6	
548.8	1711.4	
549	1740.1	
549.19	1822.7	
549.39	1798.8	
549.58	1675.2	
549.78	1758.5	
549.97	1770.8	
550.17	1706	
550.36	1813.1	
550.55	1829.5	
550.75	1772.2	
550.94	1863.7	
551.14	1807.7	
551.33	1717.6	
551.53	1729.9	
551.72	1721.7	
551.92	1783.1	
552.11	1722.3	
552.31	1835.7	
552.5	1775.6	
552.69	1863	
552.89	1770.1	
553.08	1733.3	
553.28	1796.1	
553.47	1718.9	
553.67	1749.6	
553.86	1752.4	
554.06	1674.6	
554.25	1697.8	
554.44	1735.3	
554.64	1843.9	
554.83	1703.9	
555.03	1765.3	
555.22	1751	
555.42	1815.9	
555.61	1775.6	
555.8	1692.3	
556	1665	
556.19	1776.3	
556.39	1695	
556.58	1679.3	
556.78	1761.9	
556.97	1777	
557.16	1779	
557.36	1729.9	
557.55	1790.6	
557.75	1685.5	
557.94	1766	
558.13	1736.7	
558.33	1756.5	
558.52	1738.7	
558.72	1695	
558.91	1761.9	
559.1	1730.5	
559.3	1701.9	
559.49	1774.2	
559.69	1729.2	
559.88	1725.1	
560.07	1712.1	
560.27	1742.1	
560.46	1676.6	
560.66	1736	
560.85	1740.8	
561.04	1706	
561.24	1731.9	
561.43	1718.2	
561.63	1664.3	
561.82	1706	
562.01	1707.3	
562.21	1755.1	
562.4	1728.5	
562.59	1743.5	
562.79	1698.4	
562.98	1702.5	
563.18	1764	
563.37	1759.2	
563.56	1716.2	
563.76	1730.5	
563.95	1653.4	
564.14	1746.9	
564.34	1753.1	
564.53	1698.4	
564.73	1733.3	
564.92	1710.1	
565.11	1659.5	
565.31	1699.1	
565.5	1721	
565.69	1733.3	
565.89	1718.9	
566.08	1742.8	
566.27	1746.9	
566.47	1770.8	
566.66	1747.6	
566.85	1765.3	
567.05	1684.1	
567.24	1726.4	
567.44	1716.2	
567.63	1766	
567.82	1750.3	
568.02	1725.8	
568.21	1754.4	
568.4	1672.5	
568.6	1722.3	
568.79	1761.3	
568.98	1769.4	
569.18	1718.2	
569.37	1680.7	
569.56	1727.1	
569.76	1748.3	
569.95	1716.9	
570.14	1756.5	
570.34	1703.9	
570.53	1733.3	
570.72	1751	
570.91	1786.5	
571.11	1729.2	
571.3	1729.2	
571.49	1804.3	
571.69	1783.1	
571.88	1699.8	
572.07	1748.3	
572.27	1781.1	
572.46	1709.4	
572.65	1724.4	
572.85	1660.2	
573.04	1767.4	
573.23	1768.1	
573.43	1753.7	
573.62	1785.8	
573.81	1738	
574	1717.6	
574.2	1763.3	
574.39	1787.9	
574.58	1729.9	
574.78	1772.9	
574.97	1754.4	
575.16	1845.9	
575.36	1721	
575.55	1823.4	
575.74	1802.2	
575.93	1705.3	
576.13	1743.5	
576.32	1720.3	
576.51	1800.8	
576.71	1735.3	
576.9	1815.2	
577.09	1817.9	
577.28	1763.3	
577.48	1796.1	
577.67	1760.6	
577.86	1782.4	
578.05	1794.7	
578.25	1776.3	
578.44	1807	
578.63	1791.3	
578.83	1820	
579.02	1764	
579.21	1820.6	
579.4	1809.7	
579.6	1858.2	
579.79	1763.3	
579.98	1844.5	
580.17	1823.4	
580.37	1825.4	
580.56	1755.1	
580.75	1771.5	
580.94	1765.3	
581.14	1860.9	
581.33	1817.9	
581.52	1769.4	
581.71	1801.5	
581.91	1801.5	
582.1	1848	
582.29	1773.5	
582.48	1737.4	
582.68	1815.9	
582.87	1782.4	
583.06	1830.2	
583.25	1861.6	
583.45	1811.8	
583.64	1814.5	
583.83	1811.8	
584.02	1748.3	
584.21	1867.1	
584.41	1850.7	
584.6	1791.3	
584.79	1798.8	
584.98	1835	
585.18	1777.6	
585.37	1776.3	
585.56	1852.7	
585.75	1826.8	
585.94	1744.9	
586.14	1807.7	
586.33	1852.7	
586.52	1823.4	
586.71	1768.1	
586.91	1765.3	
587.1	1818.6	
587.29	1766	
587.48	1767.4	
587.67	1778.3	
587.87	1794.7	
588.06	1792.7	
588.25	1787.2	
588.44	1819.3	
588.63	1735.3	
588.83	1808.4	
589.02	1789.9	
589.21	1735.3	
589.4	1738	
589.59	1783.8	
589.78	1658.9	
589.98	1692.3	
590.17	1727.1	
590.36	1718.9	
590.55	1717.6	
590.74	1711.4	
590.94	1706.6	
591.13	1733.3	
591.32	1698.4	
591.51	1678.7	
591.7	1699.1	
591.89	1674.6	
592.09	1716.9	
592.28	1727.1	
592.47	1671.1	
592.66	1686.8	
592.85	1677.3	
593.05	1682.1	
593.24	1680	
593.43	1691.6	
593.62	1666.4	
593.81	1680	
594	1693.7	
594.19	1783.8	
594.39	1670.5	
594.58	1699.8	
594.77	1702.5	
594.96	1719.6	
595.15	1749.6	
595.34	1650.7	
595.54	1634.3	
595.73	1645.2	
595.92	1657.5	
596.11	1746.9	
596.3	1679.3	
596.49	1688.2	
596.68	1663.6	
596.88	1641.1	
597.07	1696.4	
597.26	1688.2	
597.45	1640.4	
597.64	1718.9	
597.83	1709.4	
598.02	1657.5	
598.22	1643.2	
598.41	1658.9	
598.6	1656.8	
598.79	1657.5	
598.98	1619.9	
599.17	1730.5	
599.36	1708.7	
599.55	1757.8	
599.74	1730.5	
599.94	1786.5	
600.13	1670.5	
600.32	1681.4	
600.51	1611.8	
600.7	1587.9	
600.89	1673.2	
601.08	1742.1	
601.27	1681.4	
601.47	1703.2	
601.66	1673.2	
601.85	1625.4	
602.04	1728.5	
602.23	1663.6	
602.42	1666.4	
602.61	1718.9	
602.8	1654.8	
602.99	1667.7	
603.18	1678.7	
603.37	1761.9	
603.57	1668.4	
603.76	1685.5	
603.95	1739.4	
604.14	1665.7	
604.33	1710.1	
604.52	1635.6	
604.71	1693	
604.9	1656.8	
605.09	1757.2	
605.28	1729.9	
605.47	1716.9	
605.66	1682.1	
605.86	1690.9	
606.05	1761.9	
606.24	1721.7	
606.43	1687.5	
606.62	1728.5	
606.81	1730.5	
607	1723.7	
607.19	1710.1	
607.38	1652.7	
607.57	1719.6	
607.76	1630.9	
607.95	1622.7	
608.14	1723.7	
608.33	1668.4	
608.52	1665.7	
608.72	1688.2	
608.91	1673.2	
609.1	1598.8	
609.29	1714.1	
609.48	1658.9	
609.67	1656.1	
609.86	1646.6	
610.05	1657.5	
610.24	1630.2	
610.43	1681.4	
610.62	1701.9	
610.81	1746.2	
611	1706	
611.19	1671.8	
611.38	1635	
611.57	1673.9	
611.76	1759.9	
611.95	1701.9	
612.14	1683.4	
612.33	1675.9	
612.52	1670.5	
612.71	1637.7	
612.9	1667	
613.09	1680.7	
613.28	1716.2	
613.47	1650.7	
613.66	1705.3	
613.85	1677.3	
614.04	1666.4	
614.24	1695.7	
614.43	1632.9	
614.62	1624.7	
614.81	1665	
615	1679.3	
615.19	1696.4	
615.38	1632.9	
615.57	1680	
615.76	1684.8	
615.95	1714.8	
616.14	1687.5	
616.33	1638.4	
616.52	1689.6	
616.71	1643.8	
616.9	1694.4	
617.09	1619.9	
617.28	1705.3	
617.47	1690.3	
617.66	1704.6	
617.85	1699.8	
618.04	1656.1	
618.22	1612.4	
618.41	1600.8	
618.6	1735.3	
618.79	1651.3	
618.98	1706.6	
619.17	1705.3	
619.36	1641.1	
619.55	1667.7	
619.74	1732.6	
619.93	1712.1	
620.12	1684.8	
620.31	1717.6	
620.5	1708	
620.69	1731.2	
620.88	1720.3	
621.07	1699.1	
621.26	1700.5	
621.45	1721.7	
621.64	1706	
621.83	1706.6	
622.02	1719.6	
622.21	1679.3	
622.4	1770.8	
622.59	1723	
622.78	1768.8	
622.97	1731.9	
623.16	1682.1	
623.35	1772.2	
623.54	1668.4	
623.72	1703.9	
623.91	1675.2	
624.1	1783.8	
624.29	1701.9	
624.48	1743.5	
624.67	1729.9	
624.86	1714.8	
625.05	1664.3	
625.24	1820.6	
625.43	1800.2	
625.62	1724.4	
625.81	1690.9	
626	1663	
626.19	1701.9	
626.38	1739.4	
626.56	1699.1	
626.75	1701.2	
626.94	1745.6	
627.13	1717.6	
627.32	1705.3	
627.51	1781.1	
627.7	1800.8	
627.89	1696.4	
628.08	1696.4	
628.27	1673.2	
628.46	1744.2	
628.65	1728.5	
628.83	1654.1	
629.02	1681.4	
629.21	1712.8	
629.4	1738.7	
629.59	1746.9	
629.78	1675.9	
629.97	1721.7	
630.16	1740.8	
630.35	1715.5	
630.54	1765.3	
630.72	1714.8	
630.91	1762.6	
631.1	1673.9	
631.29	1697.8	
631.48	1652.7	
631.67	1725.8	
631.86	1695	
632.05	1746.9	
632.24	1708.7	
632.42	1712.8	
632.61	1712.8	
632.8	1667	
632.99	1665.7	
633.18	1708.7	
633.37	1713.5	
633.56	1682.1	
633.75	1746.2	
633.93	1703.2	
634.12	1693	
634.31	1790.6	
634.5	1738.7	
634.69	1707.3	
634.88	1777	
635.07	1729.9	
635.25	1780.4	
635.44	1693	
635.63	1777.6	
635.82	1736	
636.01	1649.3	
636.2	1738.7	
636.39	1684.8	
636.57	1727.1	
636.76	1670.5	
636.95	1719.6	
637.14	1692.3	
637.33	1717.6	
637.52	1731.2	
637.7	1630.2	
637.89	1999.5	
638.08	1680.7	
638.27	1729.2	
638.46	1738	
638.65	1688.2	
638.83	1738	
639.02	1682.1	
639.21	1668.4	
639.4	1683.4	
639.59	1719.6	
639.78	1673.9	
639.96	1711.4	
640.15	1703.9	
640.34	1704.6	
640.53	1637	
640.72	1654.8	
640.91	1664.3	
641.09	1687.5	
641.28	1688.9	
641.47	1677.3	
641.66	1680	
641.85	1626.8	
642.03	1660.2	
642.22	1651.3	
642.41	1731.9	
642.6	1655.4	
642.79	1610.4	
642.97	1691.6	
643.16	1645.2	
643.35	1697.1	
643.54	1645.2	
643.73	1638.4	
643.91	1712.1	
644.1	1637.7	
644.29	1690.3	
644.48	1690.3	
644.67	1670.5	
644.85	1580.3	
645.04	1672.5	
645.23	1652.7	
645.42	1691.6	
645.6	1666.4	
645.79	1720.3	
645.98	1624.7	
646.17	1609.7	
646.36	1581.7	
646.54	1609.7	
646.73	1663	
646.92	1652.7	
647.11	1611.1	
647.29	1636.3	
647.48	1576.9	
647.67	1598.8	
647.86	1740.1	
648.05	1613.8	
648.23	1640.4	
648.42	1632.9	
648.61	1626.8	
648.8	1687.5	
648.98	1583.1	
649.17	1595.4	
649.36	1656.1	
649.55	1616.5	
649.73	1607.7	
649.92	1618.6	
650.11	1546.2	
650.3	1640.4	
650.48	1572.8	
650.67	1587.2	
650.86	1650.7	
651.05	1601.5	
651.23	1524.4	
651.42	1574.9	
651.61	1553	
651.79	1600.8	
651.98	1587.2	
652.17	1561.9	
652.36	1630.9	
652.54	1572.2	
652.73	1623.4	
652.92	1566.7	
653.11	1609	
653.29	1606.3	
653.48	1531.9	
653.67	1559.2	
653.85	1601.5	
654.04	1617.9	
654.23	1642.5	
654.42	1615.2	
654.6	1641.1	
654.79	1546.9	
654.98	1587.2	
655.16	1675.9	
655.35	1604.2	
655.54	1553	
655.73	1579	
655.91	1559.2	
656.1	1575.6	
656.29	1591.3	
656.47	1521.6	
656.66	1658.2	
656.85	1533.2	
657.03	1485.5	
657.22	1530.5	
657.41	1577.6	
657.59	1589.2	
657.78	1598.8	
657.97	1544.2	
658.16	1574.2	
658.34	1590.6	
658.53	1613.1	
658.72	1609.7	
658.9	1594.7	
659.09	1635	
659.28	1572.2	
659.46	1531.9	
659.65	1548.9	
659.84	1510	
660.02	1587.2	
660.21	1599.5	
660.4	1529.8	
660.58	1629.5	
660.77	1523.7	
660.96	1535.3	
661.14	1548.9	
661.33	1589.2	
661.52	1639.7	
661.7	1537.3	
661.89	1680	
662.08	1574.9	
662.26	1544.9	
662.45	1602.9	
662.64	1533.2	
662.82	1729.2	
663.01	1611.8	
663.2	1574.2	
663.38	1671.1	
663.57	1626.1	
663.75	1590.6	
663.94	1607	
664.13	1617.2	
664.31	1600.8	
664.5	1634.3	
664.69	1590.6	
664.87	1597.4	
665.06	1547.6	
665.25	1624.7	
665.43	1569.4	
665.62	1596.1	
665.8	1572.2	
665.99	1576.3	
666.18	1535.3	
666.36	1576.3	
666.55	1577.6	
666.74	1599.5	
666.92	1582.4	
667.11	1639.7	
667.29	1645.2	
667.48	1669.8	
667.67	1624	
667.85	1600.1	
668.04	1667.7	
668.22	1612.4	
668.41	1622	
668.6	1824.7	
668.78	1563.3	
668.97	1608.3	
669.15	1559.2	
669.34	1538.7	
669.53	1605.6	
669.71	1580.3	
669.9	1506.6	
670.08	1566.7	
670.27	1516.2	
670.46	1568.1	
670.64	1562.6	
670.83	1581.7	
671.01	1490.2	
671.2	1570.8	
671.38	1600.1	
671.57	1565.3	
671.76	1617.2	
671.94	1577.6	
672.13	1546.9	
672.31	1591.3	
672.5	1555.1	
672.69	1527.8	
672.87	1560.6	
673.06	1594.7	
673.24	1556.5	
673.43	1493.7	
673.61	1508	
673.8	1576.3	
673.98	1553	
674.17	1597.4	
674.36	1583.1	
674.54	1599.5	
674.73	1526.4	
674.91	1606.3	
675.1	1549.6	
675.28	1524.4	
675.47	1517.5	
675.65	1597.4	
675.84	1615.8	
676.03	1519.6	
676.21	1577.6	
676.4	1481.4	
676.58	1613.1	
676.77	1555.1	
676.95	1563.3	
677.14	1570.1	
677.32	1532.6	
677.51	1518.9	
677.69	1568.7	
677.88	1529.1	
678.06	1551.7	
678.25	1569.4	
678.44	1514.8	
678.62	1557.8	
678.81	1508	
678.99	1536	
679.18	1547.6	
679.36	1564.6	
679.55	1527.1	
679.73	1565.3	
679.92	1573.5	
680.1	1529.1	
680.29	1619.9	
680.47	1545.5	
680.66	1548.3	
680.84	1548.3	
681.03	1460.9	
681.21	1557.8	
681.4	1553	
681.58	1602.9	
681.77	1512.8	
681.95	1561.2	
682.14	1563.3	
682.32	1527.1	
682.51	1495	
682.69	1523.7	
682.88	1499.1	
683.06	1512.1	
683.25	1572.8	
683.43	1539.4	
683.62	1566	
683.8	1532.6	
683.99	1584.4	
684.17	1526.4	
684.36	1585.1	
684.54	1499.8	
684.73	1594.7	
684.91	1458.8	
685.1	1533.2	
685.28	1484.1	
685.46	1544.9	
685.65	1537.3	
685.83	1508	
686.02	1488.9	
686.2	1471.8	
686.39	1514.1	
686.57	1467.7	
686.76	1574.2	
686.94	1437	
687.13	1483.4	
687.31	1533.9	
687.5	1509.4	
687.68	1521.6	
687.86	1553	
688.05	1593.3	
688.23	1602.2	
688.42	1583.1	
688.6	1570.1	
688.79	1518.9	
688.97	1579	
689.16	1578.3	
689.34	1540.1	
689.52	1540.8	
689.71	1550.3	
689.89	1524.4	
690.08	1540.8	
690.26	1516.9	
690.45	1516.2	
690.63	1531.9	
690.81	1570.8	
691	1531.9	
691.18	1519.6	
691.37	1585.8	
691.55	1561.9	
691.74	1512.1	
691.92	1584.4	
692.1	1514.1	
692.29	1491.6	
692.47	1485.5	
692.66	1465.7	
692.84	1480	
693.02	1507.3	
693.21	1473.2	
693.39	1494.3	
693.58	1473.9	
693.76	1522.3	
693.94	1563.3	
694.13	1559.9	
694.31	1475.9	
694.5	1586.5	
694.68	1504.6	
694.86	1534.6	
695.05	1504.6	
695.23	1542.1	
695.42	1529.8	
695.6	1602.9	
695.78	1516.9	
695.97	1507.3	
696.15	1559.2	
696.34	1545.5	
696.52	1527.1	
696.7	1564.6	
696.89	1548.9	
697.07	1523	
697.25	1542.1	
697.44	1578.3	
697.62	1546.9	
697.81	1572.8	
697.99	1576.9	
698.17	1553.7	
698.36	1566.7	
698.54	1588.5	
698.72	1564	
698.91	1520.3	
699.09	1584.4	
699.28	1525.7	
699.46	1602.9	
699.64	1545.5	
699.83	1545.5	
700.01	1559.9	
700.19	1527.8	
700.38	1533.9	
700.56	1475.9	
700.74	1568.1	
700.93	1512.1	
701.11	1581.7	
701.29	1578.3	
701.48	1604.2	
701.66	1505.3	
701.84	1588.5	
702.03	1610.4	
702.21	1596.7	
702.39	1482	
702.58	1474.5	
702.76	1586.5	
702.94	1502.5	
703.13	1499.8	
703.31	1556.5	
703.49	1494.3	
703.68	1542.8	
703.86	1522.3	
704.04	1474.5	
704.23	1518.2	
704.41	1619.9	
704.59	1524.4	
704.78	1523	
704.96	1617.2	
705.14	1502.5	
705.33	1476.6	
705.51	1518.9	
705.69	1465.7	
705.87	1522.3	
706.06	1491.6	
706.24	1477.3	
706.42	1480	
706.61	1521.6	
706.79	1498.4	
706.97	1437	
707.16	1486.8	
707.34	1540.1	
707.52	1535.3	
707.7	1480.7	
707.89	1426.8	
708.07	1418.6	
708.25	1570.8	
708.44	1507.3	
708.62	1498.4	
708.8	1552.4	
708.98	1527.1	
709.17	1437.7	
709.35	1501.2	
709.53	1527.8	
709.72	1488.2	
709.9	1464.3	
710.08	1529.1	
710.26	1482	
710.45	1513.4	
710.63	1531.9	
710.81	1467.7	
710.99	1516.9	
711.18	1495	
711.36	1494.3	
711.54	1465	
711.72	1542.1	
711.91	1488.9	
712.09	1485.5	
712.27	1493	
712.45	1511.4	
712.64	1533.2	
712.82	1542.1	
713	1516.2	
713.18	1499.8	
713.37	1462.9	
713.55	1483.4	
713.73	1512.8	
713.91	1456.1	
714.1	1418.6	
714.28	1446.5	
714.46	1513.4	
714.64	1407.6	
714.83	1407	
715.01	1445.2	
715.19	1452.7	
715.37	1386.5	
715.55	1417.2	
715.74	1424.7	
715.92	1428.8	
716.1	1391.3	
716.28	1430.8	
716.47	1417.9	
716.65	1361.2	
716.83	1385.8	
717.01	1412.4	
717.19	1458.8	
717.38	1432.9	
717.56	1389.9	
717.74	1425.4	
717.92	1379.6	
718.1	1392.6	
718.29	1361.9	
718.47	1407	
718.65	1383.1	
718.83	1470.4	
719.01	1465	
719.2	1415.8	
719.38	1448.6	
719.56	1506.6	
719.74	1510	
719.92	1521.6	
720.11	1501.8	
720.29	1503.2	
720.47	1463.6	
720.65	1473.2	
720.83	1482	
721.02	1425.4	
721.2	1456.8	
721.38	1403.5	
721.56	1389.9	
721.74	1337.3	
721.92	1374.2	
722.11	1450	
722.29	1442.5	
722.47	1434.3	
722.65	1488.2	
722.83	1387.8	
723.01	1422.7	
723.2	1370.1	
723.38	1377.6	
723.56	1361.2	
723.74	1419.2	
723.92	1315.5	
724.1	1372.8	
724.29	1417.2	
724.47	1488.2	
724.65	1303.2	
724.83	1372.8	
725.01	1413.1	
725.19	1429.5	
725.37	1320.3	
725.56	1356.4	
725.74	1373.5	
725.92	1390.6	
726.1	1317.5	
726.28	1385.1	
726.46	1430.2	
726.64	1401.5	
726.83	1387.8	
727.01	1371.5	
727.19	1352.3	
727.37	1365.3	
727.55	1411.7	
727.73	1402.9	
727.91	1363.9	
728.09	1352.3	
728.28	1356.4	
728.46	1462.9	
728.64	1392.6	
728.82	1387.8	
729	1441.8	
729.18	1410.4	
729.36	1318.9	
729.54	1417.9	
729.72	1419.2	
729.91	1404.2	
730.09	1437	
730.27	1457.5	
730.45	1418.6	
730.63	1409	
730.81	1396.7	
730.99	1405.6	
731.17	1465.7	
731.35	1369.4	
731.53	1425.4	
731.71	1436.3	
731.9	1432.2	
732.08	1434.3	
732.26	1450.6	
732.44	1384.4	
732.62	1402.9	
732.8	1432.9	
732.98	1445.9	
733.16	1366.7	
733.34	1383.1	
733.52	1353	
733.7	1416.5	
733.88	1394.7	
734.07	1388.5	
734.25	1427.4	
734.43	1402.9	
734.61	1467	
734.79	1440.4	
734.97	1328.4	
735.15	1381	
735.33	1441.1	
735.51	1377.6	
735.69	1383.7	
735.87	1490.2	
736.05	1400.1	
736.23	1395.3	
736.41	1384.4	
736.59	1363.3	
736.77	1439.7	
736.95	1405.6	
737.13	1357.8	
737.32	1409.7	
737.5	1414.5	
737.68	1398.8	
737.86	1369.4	
738.04	1444.5	
738.22	1485.5	
738.4	1336.6	
738.58	1377.6	
738.76	1389.2	
738.94	1409.7	
739.12	1396	
739.3	1468.4	
739.48	1410.4	
739.66	1362.6	
739.84	1398.8	
740.02	1399.4	
740.2	1373.5	
740.38	1301.1	
740.56	1433.6	
740.74	1311.4	
740.92	1442.5	
741.1	1381.7	
741.28	1394	
741.46	1376.9	
741.64	1442.5	
741.82	1363.9	
742	1413.1	
742.18	1346.2	
742.36	1407	
742.54	1432.9	
742.72	1380.3	
742.9	1345.5	
743.08	1411.7	
743.26	1338	
743.44	1417.2	
743.62	1361.2	
743.8	1396	
743.98	1404.9	
744.16	1402.9	
744.34	1402.9	
744.52	1398.8	
744.7	1425.4	
744.88	1394	
745.06	1387.8	
745.24	1413.1	
745.42	1433.6	
745.6	1459.5	
745.78	1483.4	
745.96	1379	
746.14	1434.3	
746.32	1450.6	
746.5	1327.1	
746.68	1394.7	
746.86	1389.2	
747.03	1407	
747.21	1369.4	
747.39	1433.6	
747.57	1355.1	
747.75	1359.9	
747.93	1398.8	
748.11	1366.7	
748.29	1338.7	
748.47	1471.8	
748.65	1431.5	
748.83	1495.7	
749.01	1437	
749.19	1450	
749.37	1411.1	
749.55	1461.6	
749.73	1424.7	
749.91	1411.7	
750.09	1396	
750.26	1377.6	
750.44	1353.7	
750.62	1398.1	
750.8	1372.1	
750.98	1372.8	
751.16	1330.5	
751.34	1402.9	
751.52	1324.4	
751.7	1385.1	
751.88	1330.5	
752.06	1374.9	
752.24	1408.3	
752.42	1353	
752.59	1310	
752.77	1394	
752.95	1399.4	
753.13	1392.6	
753.31	1385.1	
753.49	1318.9	
753.67	1417.2	
753.85	1347.6	
754.03	1424.7	
754.21	1362.6	
754.38	1454.7	
754.56	1398.8	
754.74	1321.6	
754.92	1376.2	
755.1	1395.3	
755.28	1248.6	
755.46	1358.5	
755.64	1407.6	
755.82	1393.3	
755.99	1336	
756.17	1348.9	
756.35	1342.8	
756.53	1396.7	
756.71	1309.3	
756.89	1327.8	
757.07	1326.4	
757.25	1350.3	
757.42	1357.8	
757.6	1349.6	
757.78	1320.9	
757.96	1329.1	
758.14	1371.5	
758.32	1383.7	
758.5	1329.1	
758.67	1349.6	
758.85	1342.8	
759.03	1380.3	
759.21	1382.4	
759.39	1303.2	
759.57	1301.1	
759.75	1421.3	
759.92	1357.1	
760.1	1376.9	
760.28	1334.6	
760.46	1389.9	
760.64	1388.5	
760.82	1425.4	
760.99	1376.2	
761.17	1325	
761.35	1404.9	
761.53	1345.5	
761.71	1348.9	
761.89	1316.8	
762.06	1355.8	
762.24	1367.4	
762.42	1340.1	
762.6	1376.9	
762.78	1312.1	
762.96	1370.8	
763.13	1383.7	
763.31	1329.8	
763.49	1348.2	
763.67	1353	
763.85	1405.6	
764.02	1407.6	
764.2	1385.1	
764.38	1324.4	
764.56	1327.1	
764.74	1447.9	
764.91	1342.1	
765.09	1341.4	
765.27	1378.3	
765.45	1344.2	
765.63	1372.1	
765.8	1370.1	
765.98	1263.6	
766.16	1377.6	
766.34	1317.5	
766.52	1281.3	
766.69	1336.6	
766.87	1291.6	
767.05	1318.2	
767.23	1395.3	
767.41	1305.2	
767.58	1357.1	
767.76	1366	
767.94	1357.1	
768.12	1391.9	
768.29	1413.1	
768.47	1283.4	
768.65	1418.6	
768.83	1312.7	
769	1348.2	
769.18	1342.8	
769.36	1329.1	
769.54	1366.7	
769.72	1376.9	
769.89	1387.2	
770.07	1353	
770.25	1385.8	
770.43	1426.8	
770.6	1348.2	
770.78	1328.4	
770.96	1364.6	
771.14	1321.6	
771.31	1375.6	
771.49	1327.1	
771.67	1320.9	
771.85	1307.3	
772.02	1289.5	
772.2	1304.6	
772.38	1319.6	
772.55	1346.9	
772.73	1327.8	
772.91	1342.8	
773.09	1354.4	
773.26	1321.6	
773.44	1379	
773.62	1435.6	
773.8	1328.4	
773.97	1390.6	
774.15	1356.4	
774.33	1407	
774.5	1334.6	
774.68	1339.4	
774.86	1331.2	
775.04	1376.2	
775.21	1372.8	
775.39	1297.7	
775.57	1340.1	
775.74	1342.1	
775.92	1284.8	
776.1	1327.1	
776.27	1368	
776.45	1383.1	
776.63	1288.9	
776.81	1378.3	
776.98	1359.2	
777.16	1373.5	
777.34	1296.4	
777.51	1417.9	
777.69	1323.7	
777.87	1374.2	
778.04	1390.6	
778.22	1297	
778.4	1373.5	
778.57	1369.4	
778.75	1313.4	
778.93	1331.9	
779.1	1299.8	
779.28	1305.2	
779.46	1300.5	
779.64	1333.2	
779.81	1323.7	
779.99	1455.4	
780.17	1320.9	
780.34	1329.1	
780.52	1311.4	
780.69	1307.3	
780.87	1325.7	
781.05	1361.9	
781.22	1374.2	
781.4	1362.6	
781.58	1318.2	
781.75	1320.9	
781.93	1378.3	
782.11	1306.6	
782.28	1360.5	
782.46	1316.8	
782.64	1379	
782.81	1353.7	
782.99	1274.5	
783.17	1363.3	
783.34	1298.4	
783.52	1389.2	
783.69	1285.4	
783.87	1328.4	
784.05	1285.4	
784.22	1308.7	
784.4	1325.7	
784.58	1333.2	
784.75	1391.9	
784.93	1378.3	
785.1	1284.1	
785.28	1357.1	
785.46	1315.5	
785.63	1364.6	
785.81	1371.5	
785.99	1323	
786.16	1295	
786.34	1318.9	
786.51	1306.6	
786.69	1357.1	
786.87	1339.4	
787.04	1305.2	
787.22	1259.5	
787.39	1366	
787.57	1282.7	
787.75	1354.4	
787.92	1344.2	
788.1	1363.9	
788.27	1327.1	
788.45	1274.5	
788.63	1342.8	
788.8	1329.1	
788.98	1323	
789.15	1330.5	
789.33	1299.8	
789.5	1316.8	
789.68	1335.3	
789.86	1370.8	
790.03	1324.4	
790.21	1335.3	
790.38	1415.8	
790.56	1297	
790.73	1360.5	
790.91	1330.5	
791.09	1290.2	
791.26	1366	
791.44	1343.5	
791.61	1281.3	
791.79	1363.9	
791.96	1347.6	
792.14	1358.5	
792.32	1318.9	
792.49	1249.3	
792.67	1352.3	
792.84	1353.7	
793.02	1374.9	
793.19	1400.1	
793.37	1305.2	
793.54	1326.4	
793.72	1286.8	
793.89	1396.7	
794.07	1275.2	
794.25	1326.4	
794.42	1267.7	
794.6	1393.3	
794.77	1423.3	
794.95	1344.8	
795.12	1366	
795.3	1297.7	
795.47	1410.4	
795.65	1353.7	
795.82	1353.7	
796	1269.7	
796.17	1385.1	
796.35	1334.6	
796.52	1424	
796.7	1333.9	
796.87	1346.9	
797.05	1346.2	
797.22	1392.6	
797.4	1412.4	
797.57	1380.3	
797.75	1338.7	
797.92	1329.1	
798.1	1344.2	
798.27	1258.1	
798.45	1338.7	
798.62	1303.2	
798.8	1357.8	
798.97	1344.8	
799.15	1345.5	
799.32	1351	
799.5	1275.9	
799.67	1320.3	
799.85	1309.3	
800.02	1302.5	
800.2	1387.8	
800.37	1277.2	
800.55	1380.3	
800.72	1337.3	
800.9	1293	
801.07	1357.1	
801.25	1343.5	
801.42	1330.5	
801.6	1361.9	
801.77	1327.1	
801.95	1346.9	
802.12	1350.3	
802.29	1398.1	
802.47	1325.7	
802.64	1356.4	
802.82	1299.8	
802.99	1305.2	
803.17	1338	
803.34	1307.3	
803.52	1293	
803.69	1315.5	
803.87	1360.5	
804.04	1286.8	
804.21	1299.8	
804.39	1376.2	
804.56	1325	
804.74	1344.8	
804.91	1359.2	
805.09	1317.5	
805.26	1331.2	
805.44	1323.7	
805.61	1341.4	
805.78	1370.1	
805.96	1302.5	
806.13	1368.7	
806.31	1356.4	
806.48	1296.4	
806.66	1356.4	
806.83	1380.3	
807	1314.1	
807.18	1318.9	
807.35	1430.8	
807.53	1327.1	
807.7	1322.3	
807.87	1352.3	
808.05	1353	
808.22	1322.3	
808.4	1357.8	
808.57	1326.4	
808.74	1325.7	
808.92	1352.3	
809.09	1344.8	
809.27	1353.7	
809.44	1303.2	
809.61	1333.2	
809.79	1311.4	
809.96	1395.3	
810.14	1368	
810.31	1358.5	
810.48	1400.1	
810.66	1286.8	
810.83	1346.9	
811.01	1328.4	
811.18	1348.2	
811.35	1406.3	
811.53	1353	
811.7	1329.8	
811.87	1335.3	
812.05	1338.7	
812.22	1333.9	
812.39	1321.6	
812.57	1344.8	
812.74	1353	
812.92	1368.7	
813.09	1288.2	
813.26	1343.5	
813.44	1386.5	
813.61	1327.8	
813.78	1296.4	
813.96	1298.4	
814.13	1333.9	
814.3	1423.3	
814.48	1342.8	
814.65	1350.3	
814.82	1318.9	
815	1330.5	
815.17	1327.1	
815.34	1344.2	
815.52	1333.2	
815.69	1343.5	
815.87	1294.3	
816.04	1281.3	
816.21	1252	
816.38	1325	
816.56	1339.4	
816.73	1366.7	
816.9	1378.3	
817.08	1297.7	
817.25	1310.7	
817.42	1350.3	
817.6	1326.4	
817.77	1334.6	
817.94	1344.8	
818.12	1298.4	
818.29	1288.9	
818.46	1387.2	
818.64	1376.2	
818.81	1308.7	
818.98	1287.5	
819.16	1344.8	
819.33	1299.8	
819.5	1320.9	
819.67	1390.6	
819.85	1362.6	
820.02	1419.2	
820.19	1299.1	
820.37	1346.9	
820.54	1340.1	
820.71	1338	
820.88	1394.7	
821.06	1329.8	
821.23	1347.6	
821.4	1314.1	
821.58	1405.6	
821.75	1352.3	
821.92	1344.8	
822.09	1322.3	
822.27	1293.6	
822.44	1375.6	
822.61	1351	
822.79	1282.7	
822.96	1423.3	
823.13	1350.3	
823.3	1351	
823.48	1303.2	
823.65	1330.5	
823.82	1386.5	
823.99	1357.1	
824.17	1385.1	
824.34	1355.8	
824.51	1368.7	
824.68	1362.6	
824.86	1312.7	
825.03	1353.7	
825.2	1294.3	
825.37	1390.6	
825.55	1330.5	
825.72	1328.4	
825.89	1370.1	
826.06	1450	
826.24	1295	
826.41	1323.7	
826.58	1321.6	
826.75	1282	
826.92	1336.6	
827.1	1321.6	
827.27	1376.2	
827.44	1352.3	
827.61	1286.1	
827.79	1331.2	
827.96	1338.7	
828.13	1315.5	
828.3	1331.9	
828.47	1333.9	
828.65	1285.4	
828.82	1308.7	
828.99	1280.7	
829.16	1326.4	
829.34	1273.8	
829.51	1358.5	
829.68	1351	
829.85	1295.7	
830.02	1386.5	
830.2	1352.3	
830.37	1319.6	
830.54	1348.2	
830.71	1316.8	
830.88	1384.4	
831.05	1320.9	
831.23	1333.2	
831.4	1367.4	
831.57	1341.4	
831.74	1332.5	
831.91	1334.6	
832.09	1430.2	
832.26	1372.1	
832.43	1317.5	
832.6	1347.6	
832.77	1325	
832.94	1370.1	
833.12	1328.4	
833.29	1303.2	
833.46	1320.9	
833.63	1374.9	
833.8	1318.9	
833.97	1334.6	
834.15	1387.8	
834.32	1335.3	
834.49	1392.6	
834.66	1348.9	
834.83	1338.7	
835	1341.4	
835.17	1336.6	
835.35	1332.5	
835.52	1326.4	
835.69	1318.9	
835.86	1281.3	
836.03	1294.3	
836.2	1381.7	
836.37	1330.5	
836.55	1299.8	
836.72	1338	
836.89	1324.4	
837.06	1390.6	
837.23	1350.3	
837.4	1300.5	
837.57	1346.2	
837.75	1363.9	
837.92	1327.1	
838.09	1351	
838.26	1353.7	
838.43	1304.6	
838.6	1299.1	
838.77	1372.1	
838.94	1324.4	
839.11	1376.9	
839.29	1342.8	
839.46	1300.5	
839.63	1313.4	
839.8	1314.8	
839.97	1288.2	
840.14	1328.4	
840.31	1312.1	
840.48	1363.9	
840.65	1337.3	
840.82	1276.6	
841	1394.7	
841.17	1306.6	
841.34	1288.2	
841.51	1338	
841.68	1348.9	
841.85	1318.9	
842.02	1301.1	
842.19	1320.3	
842.36	1315.5	
842.53	1339.4	
842.7	1321.6	
842.87	1305.2	
843.05	1347.6	
843.22	1331.9	
843.39	1321.6	
843.56	1372.1	
843.73	1310.7	
843.9	1342.8	
844.07	1332.5	
844.24	1299.8	
844.41	1423.3	
844.58	1368.7	
844.75	1268.4	
844.92	1324.4	
845.09	1323	
845.26	1332.5	
845.43	1308.7	
845.6	1306.6	
845.77	1323	
845.94	1388.5	
846.12	1333.9	
846.29	1353	
846.46	1329.8	
846.63	1381.7	
846.8	1337.3	
846.97	1345.5	
847.14	1340.1	
847.31	1350.3	
847.48	1329.8	
847.65	1308.7	
847.82	1302.5	
847.99	1382.4	
848.16	1341.4	
848.33	1369.4	
848.5	1362.6	
848.67	1388.5	
848.84	1297.7	
849.01	1308	
849.18	1347.6	
849.35	1297	
849.52	1292.3	
849.69	1296.4	
849.86	1363.9	
850.03	1287.5	
850.2	1313.4	
850.37	1318.2	
850.54	1359.2	
850.71	1274.5	
850.88	1326.4	
851.05	1275.2	
851.22	1327.1	
851.39	1325	
851.56	1287.5	
851.73	1320.9	
851.9	1320.9	
852.07	1347.6	
852.24	1308	
852.41	1261.5	
852.58	1361.2	
852.75	1332.5	
852.92	1313.4	
853.09	1292.3	
853.26	1297	
853.43	1315.5	
853.6	1368.7	
853.77	1308	
853.94	1387.2	
854.11	1333.2	
854.28	1334.6	
854.44	1340.7	
854.61	1329.1	
854.78	1347.6	
854.95	1316.2	
855.12	1303.9	
855.29	1314.1	
855.46	1332.5	
855.63	1327.1	
855.8	1311.4	
855.97	1329.1	
856.14	1384.4	
856.31	1310	
856.48	1329.8	
856.65	1361.2	
856.82	1330.5	
856.99	1357.1	
857.16	1338	
857.33	1372.8	
857.49	1317.5	
857.66	1333.9	
857.83	1360.5	
858	1314.1	
858.17	1341.4	
858.34	1262.9	
858.51	1333.9	
858.68	1333.2	
858.85	1391.9	
859.02	1338	
859.19	1306.6	
859.36	1287.5	
859.52	1269.7	
859.69	1303.9	
859.86	1282	
860.03	1305.2	
860.2	1352.3	
860.37	1353.7	
860.54	1288.2	
860.71	1285.4	
860.88	1353.7	
861.05	1299.1	
861.21	1346.2	
861.38	1358.5	
861.55	1303.9	
861.72	1320.9	
861.89	1308.7	
862.06	1348.9	
862.23	1348.9	
862.4	1277.2	
862.56	1309.3	
862.73	1350.3	
862.9	1340.1	
863.07	1297.7	
863.24	1324.4	
863.41	1282.7	
863.58	1386.5	
863.75	1284.8	
863.91	1332.5	
864.08	1340.7	
864.25	1293.6	
864.42	1295.7	
864.59	1327.1	
864.76	1351	
864.93	1354.4	
865.09	1286.8	
865.26	1348.9	
865.43	1342.1	
865.6	1383.1	
865.77	1302.5	
865.94	1292.3	
866.1	1293	
866.27	1353	
866.44	1325	
866.61	1288.9	
866.78	1306.6	
866.95	1338	
867.11	1329.8	
867.28	1297.7	
867.45	1335.3	
867.62	1322.3	
867.79	1268.4	
867.96	1332.5	
868.12	1323	
868.29	1334.6	
868.46	1288.9	
868.63	1351.7	
868.8	1355.1	
868.97	1383.7	
869.13	1320.9	
869.3	1372.1	
869.47	1328.4	
869.64	1379	
869.81	1282	
869.97	1290.9	
870.14	1320.9	
870.31	1381	
870.48	1292.3	
870.65	1393.3	
870.81	1340.7	
870.98	1322.3	
871.15	1265	
871.32	1348.2	
871.48	1326.4	
871.65	1415.1	
871.82	1308.7	
871.99	1325	
872.16	1339.4	
872.32	1362.6	
872.49	1382.4	
872.66	1294.3	
872.83	1447.2	
872.99	1357.1	
873.16	1399.4	
873.33	1320.9	
873.5	1289.5	
873.67	1325	
873.83	1355.1	
874	1363.9	
874.17	1337.3	
874.34	1313.4	
874.5	1392.6	
874.67	1352.3	
874.84	1300.5	
875.01	1331.2	
875.17	1316.2	
875.34	1336	
875.51	1381	
875.68	1489.6	
875.84	1347.6	
876.01	1354.4	
876.18	1325	
876.34	1307.3	
876.51	1297.7	
876.68	1313.4	
876.85	1299.8	
877.01	1411.7	
877.18	1303.9	
877.35	1306.6	
877.52	1321.6	
877.68	1325	
877.85	1288.9	
878.02	1331.2	
878.18	1301.1	
878.35	1285.4	
878.52	1228.1	
878.69	1273.2	
878.85	1471.1	
879.02	1331.2	
879.19	1343.5	
879.35	1286.1	
879.52	1300.5	
879.69	1318.9	
879.86	1272.5	
880.02	1334.6	
880.19	1330.5	
880.36	1363.9	
880.52	1286.8	
880.69	1340.7	
880.86	1333.2	
881.02	1301.8	
881.19	1361.9	
881.36	1308	
881.52	1376.9	
881.69	1341.4	
881.86	1370.8	
882.02	1355.8	
882.19	1318.2	
882.36	1428.8	
882.52	1310.7	
882.69	1332.5	
882.86	1301.8	
883.02	1331.2	
883.19	1370.8	
883.36	1365.3	
883.52	1308.7	
883.69	1319.6	
883.86	1311.4	
884.02	1265.6	
884.19	1357.1	
884.36	1309.3	
884.52	1382.4	
884.69	1361.2	
884.86	1332.5	
885.02	1339.4	
885.19	1295.7	
885.36	1339.4	
885.52	1300.5	
885.69	1420.6	
885.86	1385.8	
886.02	1330.5	
886.19	1303.9	
886.35	1310	
886.52	1379.6	
886.69	1331.9	
886.85	1315.5	
887.02	1348.2	
887.19	1348.2	
887.35	1348.2	
887.52	1348.2	
887.68	1348.2	
887.85	1348.2	
888.02	1348.2	
888.18	1348.2	
888.35	1348.2	
888.51	1348.2	
888.68	1348.2	
888.85	1348.2	
889.01	1348.2	
889.18	1348.2	
889.35	1348.2	
889.51	1348.2	
889.68	1348.2	
889.84	1348.2	
890.01	1348.2	
890.17	1348.2	
890.34	1348.2	
890.51	1348.2	
890.67	1348.2	
890.84	1348.2	
891	1348.2	
891.17	1348.2	
891.34	1348.2	
891.5	1348.2	
891.67	1348.2	
891.83	1348.2	
892	1348.2	
892.16	1348.2	
892.33	1348.2	
892.5	1348.2	
892.66	1348.2	
892.83	1348.2	
892.99	1348.2	
893.16	1348.2	
893.32	1348.2	
893.49	1348.2	
893.65	1348.2	
893.82	1348.2	
893.99	1348.2	
894.15	1348.2	
894.32	1348.2	
894.48	1348.2	
894.65	1348.2	
894.81	1348.2	
894.98	1348.2	
895.14	1348.2	
895.31	1348.2	
895.47	1348.2	
895.64	1348.2	
895.81	1348.2	
895.97	1348.2	
896.14	1348.2	
896.3	1348.2	
896.47	1348.2	
896.63	1348.2	
896.8	1348.2	
896.96	1348.2	
897.13	1348.2	
897.29	1348.2	
897.46	1348.2	
897.62	1348.2	
897.79	1348.2	
897.95	1348.2	
898.12	1348.2	
898.28	1348.2	
898.45	1348.2	
898.61	1348.2	
898.78	1348.2	
898.94	1348.2	
899.11	1348.2	
899.27	1348.2	
899.44	1348.2	
899.6	1348.2	
899.77	1348.2	
899.93	1348.2	
900.1	1348.2	
900.26	1348.2	
900.43	1348.2	
900.59	1348.2	
900.76	1348.2	
900.92	1348.2	
901.09	1348.2	
901.25	1348.2	
901.42	1348.2	
901.58	1348.2	
901.75	1348.2	
901.91	1348.2	
902.07	1348.2	
902.24	1348.2	
902.4	1348.2	
902.57	1348.2	
902.73	1348.2	
902.9	1348.2	
903.06	1348.2	
903.23	1348.2	
903.39	1348.2	
903.56	1348.2	
903.72	1348.2	
903.88	1348.2	
904.05	1348.2	
904.21	1348.2	
904.38	1348.2	
904.54	1348.2	
904.71	1348.2	
904.87	1348.2	
905.03	1348.2	
905.2	1348.2	
905.36	1348.2	
905.53	1348.2	
905.69	1348.2	
905.86	1348.2	
906.02	1348.2	
906.18	1348.2	
906.35	1348.2	
906.51	1348.2	
906.68	1348.2	
906.84	1348.2	
907.01	1348.2	
907.17	1348.2	
907.33	1348.2	
907.5	1348.2	
907.66	1348.2	
907.83	1348.2	
907.99	1348.2	
908.15	1348.2	
908.32	1348.2	
908.48	1348.2	
908.65	1348.2	
908.81	1348.2	
908.97	1348.2	
909.14	1348.2	
909.3	1348.2	
909.47	1348.2	
909.63	1348.2	
909.79	1348.2	
909.96	1348.2	
910.12	1348.2	
910.28	1348.2	
910.45	1348.2	
910.61	1348.2	
910.78	1348.2	
910.94	1348.2	
911.1	1348.2	
911.27	1348.2	
911.43	1348.2	
911.59	1348.2	
911.76	1348.2	
911.92	1348.2	
912.08	1348.2	
912.25	1348.2	
912.41	1348.2	
912.57	1348.2	
912.74	1348.2	
912.9	1348.2	
913.07	1348.2	
913.23	1348.2	
913.39	1348.2	
913.56	1348.2	
913.72	1348.2	
913.88	1348.2	
914.05	1348.2	
914.21	1348.2	
914.37	1348.2	
914.54	1348.2	
914.7	1348.2	
914.86	1348.2	
915.03	1348.2	
915.19	1348.2	
