Wavelength	Intensities	
nm	a.u.	
179.22	1617.9	
179.44	1636.3	
179.65	1599.5	
179.86	1673.2	
180.08	1648.6	
180.29	3782.6	
180.51	2932	
180.72	4917.2	
180.94	5415.5	
181.15	2632.3	
181.37	2583.2	
181.58	4661.9	
181.79	4869.4	
182.01	2693.8	
182.22	2923.1	
182.44	4923.3	
182.65	4282.3	
182.87	3562.8	
183.08	3145.7	
183.29	5114.5	
183.51	4276.2	
183.72	2885.6	
183.94	3900.7	
184.15	4564.2	
184.37	4552	
184.58	2604.3	
184.79	3332.7	
185.01	4364.9	
185.22	4945.2	
185.44	3478.8	
185.65	3089	
185.86	4607.9	
186.08	4251.6	
186.29	2559.3	
186.51	2703.3	
186.72	4372.4	
186.94	4947.9	
187.15	3062.4	
187.36	3115.6	
187.58	6146.6	
187.79	4650.3	
188.01	3194.8	
188.22	4741	
188.43	5482.4	
188.65	4850.3	
188.86	2750.4	
189.08	3152.5	
189.29	4459.1	
189.5	4463.9	
189.72	2893.8	
189.93	2995.5	
190.15	4958.8	
190.36	5782.8	
190.57	3145	
190.79	3105.4	
191	5008	
191.22	4975.9	
191.43	3203	
191.64	2711.5	
191.86	5142.4	
192.07	4965.6	
192.29	2763.4	
192.5	2945	
192.71	4988.9	
192.93	4425.7	
193.14	2876	
193.35	2983.2	
193.57	4390.8	
193.78	4975.2	
194	2446	
194.21	2804.4	
194.42	4290.5	
194.64	4617.5	
194.85	3102.7	
195.07	3572.3	
195.28	4575.2	
195.49	4098	
195.71	3696.6	
195.92	2707.4	
196.13	4747.2	
196.35	4815.5	
196.56	3945.8	
196.78	3127.2	
196.99	5686.5	
197.2	5418.2	
197.42	3461.7	
197.63	3179.8	
197.84	4230.4	
198.06	4785.4	
198.27	2899.9	
198.48	3641.3	
198.7	4456.4	
198.91	4605.9	
199.13	3169.6	
199.34	3154.6	
199.55	4993.6	
199.77	4018.8	
199.98	2858.3	
200.19	3142.3	
200.41	4543.8	
200.62	4342.4	
200.83	3235.1	
201.05	3467.9	
201.26	4590.9	
201.47	4420.2	
201.69	2838.5	
201.9	2786.6	
202.11	4595.6	
202.33	5274.9	
202.54	2928.6	
202.76	3291.8	
202.97	4595.6	
203.18	4719.2	
203.4	3248.8	
203.61	3276.8	
203.82	4672.1	
204.04	4360.8	
204.25	3169.6	
204.46	3086.3	
204.68	4603.8	
204.89	4748.6	
205.1	3113.6	
205.32	2692.4	
205.53	4852.3	
205.74	4995.7	
205.96	2443.2	
206.17	3186	
206.38	4853	
206.6	4954	
206.81	3558	
207.02	2976.4	
207.24	4764.9	
207.45	5072.8	
207.66	2985.9	
207.88	2659.6	
208.09	4750.6	
208.3	4588.1	
208.52	2792.1	
208.73	3034.4	
208.94	4614.1	
209.15	5132.9	
209.37	2976.4	
209.58	3111.5	
209.79	4994.3	
210.01	4476.9	
210.22	2517.6	
210.43	2618	
210.65	4584.7	
210.86	4804.5	
211.07	2987.3	
211.29	2800.3	
211.5	4765.6	
211.71	4524.6	
211.93	2806.4	
212.14	2798.2	
212.35	4572.4	
212.56	4700.1	
212.78	3113.6	
212.99	2666.5	
213.2	5261.2	
213.42	4480.3	
213.63	2886.3	
213.84	3024.8	
214.06	4188.1	
214.27	4239.3	
214.48	2981.2	
214.69	3227.6	
214.91	5059.8	
215.12	5158.2	
215.33	3187.3	
215.55	3379.8	
215.76	5450.3	
215.97	4803.9	
216.18	3076	
216.4	3047.4	
216.61	4356	
216.82	4973.2	
217.04	2822.8	
217.25	2897.2	
217.46	5057.1	
217.67	4921.3	
217.89	2600.2	
218.1	2669.9	
218.31	4635.2	
218.53	4760.2	
218.74	2982.5	
218.95	2807.1	
219.16	4564.2	
219.38	5278.3	
219.59	2859.6	
219.8	3277.4	
220.01	5572.5	
220.23	4636.6	
220.44	3579.8	
220.65	2802.3	
220.87	4655	
221.08	5110.4	
221.29	2702.6	
221.5	3371	
221.72	5893.4	
221.93	4396.3	
222.14	3145.7	
222.35	3611.3	
222.57	4655.7	
222.78	4872.1	
222.99	3039.2	
223.2	3159.3	
223.42	4818.2	
223.63	4930.1	
223.84	2427.5	
224.05	2409.1	
224.27	5549.3	
224.48	5105.6	
224.69	3677.5	
224.9	3186.6	
225.12	4708.3	
225.33	4571.7	
225.54	2592.7	
225.75	2869.2	
225.97	4336.9	
226.18	4519.2	
226.39	3056.9	
226.6	2910.2	
226.82	4429.1	
227.03	4311.7	
227.24	3183.9	
227.45	2702.6	
227.67	4937.7	
227.88	5154.1	
228.09	3502	
228.3	3431.7	
228.52	4812.7	
228.73	4573.1	
228.94	2874	
229.15	2655.5	
229.36	4574.5	
229.58	4557.4	
229.79	2998.9	
230	3382.6	
230.21	5401.9	
230.43	4639.3	
230.64	3086.3	
230.85	3158	
231.06	4961.5	
231.28	4900.1	
231.49	2662.4	
231.7	3140.9	
231.91	4827.1	
232.12	4615.4	
232.34	2798.2	
232.55	3075.4	
232.76	5057.1	
232.97	4646.8	
233.18	2834.4	
233.4	3124.5	
233.61	4716.5	
233.82	4427	
234.03	2953.9	
234.25	2931.3	
234.46	5997.8	
234.67	4636.6	
234.88	3173	
235.09	2904.7	
235.31	4734.9	
235.52	4559.5	
235.73	3120.4	
235.94	2732	
236.15	4422.2	
236.37	5331.5	
236.58	2832.3	
236.79	3010.5	
237	4862.6	
237.21	4186.7	
237.43	3202.3	
237.64	2658.9	
237.85	7326.3	
238.06	4308.2	
238.27	3197.6	
238.48	2728.6	
238.7	4818.9	
238.91	4502.1	
239.12	3002.3	
239.33	3131.3	
239.54	4344.4	
239.76	4509.6	
239.97	3020.8	
240.18	3050.1	
240.39	5456.5	
240.6	4758.8	
240.82	3173.7	
241.03	2700.6	
241.24	4569.7	
241.45	5228.5	
241.66	2812.5	
241.87	3248.8	
242.09	5122	
242.3	5319.3	
242.51	3251.5	
242.72	2986.6	
242.93	4861.9	
243.14	4579.9	
243.36	3448.8	
243.57	3622.9	
243.78	5205.9	
243.99	4838.7	
244.2	3031	
244.41	2764.1	
244.63	4300.1	
244.84	4768.4	
245.05	3222.1	
245.26	2988	
245.47	4853.7	
245.68	4992.9	
245.9	3833.1	
246.11	3118.4	
246.32	4447.5	
246.53	4742.4	
246.74	4666.6	
246.95	2630.3	
247.16	4385.4	
247.38	4605.2	
247.59	2668.5	
247.8	3013.9	
248.01	4311.7	
248.22	4596.3	
248.43	2821.4	
248.64	2976.4	
248.86	4271.4	
249.07	4497.3	
249.28	2800.9	
249.49	3171.6	
249.7	4943.1	
249.91	5014.1	
250.12	2621.4	
250.34	2702.6	
250.55	4717.2	
250.76	4594.3	
250.97	3105.4	
251.18	3122.5	
251.39	5023	
251.6	4717.8	
251.81	3189.4	
252.03	3130.7	
252.24	4463.2	
252.45	4886.5	
252.66	2658.3	
252.87	3272.7	
253.08	4648.9	
253.29	5641.5	
253.5	2745	
253.72	3624.9	
253.93	4539	
254.14	5239.4	
254.35	2909.5	
254.56	2979.1	
254.77	4806.6	
254.98	4304.1	
255.19	2919	
255.41	3547.1	
255.62	4752.7	
255.83	4981.3	
256.04	3175	
256.25	3068.5	
256.46	5453.1	
256.67	4397	
256.88	3095.8	
257.09	3388	
257.31	4273.4	
257.52	4394.9	
257.73	3799	
257.94	2912.9	
258.15	4583.4	
258.36	4532.2	
258.57	3515	
258.78	2405.7	
258.99	4972.5	
259.2	4503.5	
259.41	2874	
259.63	2962	
259.84	5204.6	
260.05	5343.8	
260.26	3633.8	
260.47	2862.4	
260.68	4992.3	
260.89	4540.3	
261.1	3416	
261.31	2818.7	
261.52	5069.4	
261.73	5252.4	
261.95	3637.2	
262.16	3257	
262.37	5077.6	
262.58	5150.6	
262.79	3607.2	
263	2955.2	
263.21	4639.3	
263.42	4164.2	
263.63	3235.8	
263.84	2952.5	
264.05	4904.2	
264.26	5195	
264.47	3561.4	
264.69	3109.5	
264.9	5195.7	
265.11	4684.4	
265.32	2846	
265.53	2879.4	
265.74	4634.6	
265.95	4146.5	
266.16	3069.9	
266.37	3316.3	
266.58	4672.1	
266.79	4418.2	
267	2912.2	
267.21	2740.9	
267.42	4307.6	
267.63	4625.7	
267.84	2950.4	
268.06	2641.2	
268.27	4909	
268.48	5052.3	
268.69	2995.5	
268.9	3410.6	
269.11	5059.2	
269.32	4185.4	
269.53	3044.6	
269.74	2824.1	
269.95	4768.4	
270.16	4203.1	
270.37	3072	
270.58	3459.7	
270.79	4520.5	
271	4960.2	
271.21	3180.5	
271.42	3081.5	
271.63	4766.3	
271.84	4232.5	
272.05	2523.8	
272.26	2755.2	
272.47	4614.1	
272.68	4651.6	
272.89	2951.1	
273.11	3291.1	
273.32	4420.9	
273.53	5201.2	
273.74	3188	
273.95	3175	
274.16	4939.7	
274.37	4614.1	
274.58	3323.2	
274.79	2675.3	
275	4746.5	
275.21	5036	
275.42	3855.6	
275.63	3367.5	
275.84	4825	
276.05	5769.1	
276.26	3151.8	
276.47	2963.4	
276.68	4590.2	
276.89	5293.3	
277.1	3344.3	
277.31	2690.3	
277.52	4805.2	
277.73	5038	
277.94	2689.7	
278.15	2914.9	
278.36	4748.6	
278.57	4388.1	
278.78	2912.9	
278.99	3210.5	
279.2	4409.3	
279.41	4313.7	
279.62	3799.7	
279.83	2754.5	
280.04	5414.8	
280.25	4296.6	
280.46	3679.5	
280.67	3052.2	
280.88	4386.7	
281.09	4998.4	
281.3	3121.8	
281.51	3850.9	
281.72	4390.2	
281.93	4949.3	
282.14	2859.6	
282.35	3125.2	
282.56	4985.4	
282.77	4918.5	
282.98	2998.9	
283.19	3472.7	
283.4	5811.5	
283.61	4513	
283.82	2778.4	
284.03	3687	
284.24	4769	
284.45	4993.6	
284.66	3692.5	
284.87	3528	
285.08	4975.2	
285.29	5102.2	
285.5	2669.2	
285.71	2996.9	
285.92	5020.9	
286.12	5461.2	
286.33	3620.1	
286.54	3007.8	
286.75	4943.8	
286.96	4525.3	
287.17	2787.3	
287.38	3550.5	
287.59	4422.9	
287.8	4387.4	
288.01	2952.5	
288.22	3325.2	
288.43	4838	
288.64	4221.5	
288.85	3465.8	
289.06	3259	
289.27	4945.8	
289.48	5146.5	
289.69	3689.1	
289.9	3364.1	
290.11	5088.5	
290.32	4425	
290.53	3466.5	
290.74	3250.8	
290.94	4941.7	
291.15	4943.1	
291.36	2856.9	
291.57	3321.1	
291.78	4469.4	
291.99	4174.4	
292.2	2830.3	
292.41	3221.5	
292.62	4971.8	
292.83	4842.1	
293.04	3885	
293.25	2862.4	
293.46	4558.1	
293.67	4982	
293.88	2815.3	
294.09	2770.9	
294.29	4356.7	
294.5	4714.4	
294.71	3009.1	
294.92	2929.3	
295.13	4474.1	
295.34	5364.3	
295.55	2631	
295.76	2578.4	
295.97	4917.2	
296.18	5364.3	
296.39	2704	
296.6	2861	
296.81	4644.1	
297.01	4885.8	
297.22	2994.1	
297.43	2890.4	
297.64	4447.5	
297.85	4326.7	
298.06	2471.9	
298.27	2638.5	
298.48	4567.7	
298.69	4384.7	
298.9	3097.2	
299.11	2790.7	
299.31	4323.3	
299.52	4287.8	
299.73	3257.6	
299.94	3203.7	
300.15	4684.4	
300.36	4390.2	
300.57	3200.3	
300.78	3185.3	
300.99	4512.4	
301.2	4669.4	
301.4	2947.7	
301.61	3032.4	
301.82	4879.6	
302.03	4858.5	
302.24	3396.9	
302.45	2703.3	
302.66	4814.1	
302.87	5033.9	
303.08	2895.1	
303.29	3719.8	
303.49	4500.8	
303.7	4590.2	
303.91	2647.3	
304.12	3612.6	
304.33	4233.8	
304.54	4738.3	
304.75	2864.4	
304.96	2799.6	
305.16	4874.8	
305.37	5283.8	
305.58	2554.5	
305.79	2678.1	
306	4801.8	
306.21	4207.2	
306.42	2811.2	
306.63	4142.4	
306.83	4497.3	
307.04	4903.5	
307.25	3132.7	
307.46	3093.8	
307.67	4073.4	
307.88	4797.7	
308.09	2834.4	
308.29	2906.8	
308.5	4661.9	
308.71	5002.5	
308.92	3018.7	
309.13	2811.2	
309.34	4605.2	
309.55	4586.1	
309.75	3528.7	
309.96	3203.7	
310.17	4873.5	
310.38	4385.4	
310.59	3303.4	
310.8	2738.1	
311.01	4494.6	
311.21	4577.2	
311.42	2813.2	
311.63	2828.2	
311.84	4516.5	
312.05	4681	
312.26	3177.8	
312.46	3450.1	
312.67	4491.2	
312.88	4309.6	
313.09	2788	
313.3	2695.1	
313.51	5136.3	
313.71	5369.1	
313.92	2778.4	
314.13	2876.7	
314.34	4775.9	
314.55	4538.3	
314.76	3429	
314.96	3095.2	
315.17	4750.6	
315.38	4780.6	
315.59	2822.1	
315.8	2695.1	
316.01	5109.7	
316.21	5288.5	
316.42	2722.4	
316.63	3074.7	
316.84	4487.1	
317.05	5062.6	
317.26	3203	
317.46	2905.4	
317.67	4612.7	
317.88	4924.7	
318.09	3394.2	
318.3	2643.9	
318.5	4452.3	
318.71	4803.9	
318.92	4204.5	
319.13	3263.1	
319.34	4939.7	
319.54	5041.4	
319.75	2643.9	
319.96	2564.7	
320.17	4860.5	
320.38	4924	
320.58	2594.8	
320.79	3041.9	
321	5045.5	
321.21	5109	
321.42	3044	
321.62	2613.9	
321.83	4385.4	
322.04	4609.3	
322.25	2960	
322.46	2770.2	
322.66	4704.9	
322.87	4853.7	
323.08	3379.8	
323.29	2737.5	
323.5	5328.1	
323.7	4343.1	
323.91	3605.8	
324.12	3291.8	
324.33	4752	
324.53	4829.8	
324.74	3160	
324.95	3309.5	
325.16	4242.7	
325.37	4439.3	
325.57	2803	
325.78	2835.1	
325.99	4696.7	
326.2	4245.4	
326.4	3823.6	
326.61	2654.2	
326.82	4552	
327.03	4685.1	
327.24	3857	
327.44	3539.6	
327.65	4806.6	
327.86	4044.7	
328.07	3216.7	
328.27	2693.1	
328.48	5135.6	
328.69	4297.3	
328.9	3822.9	
329.1	2953.2	
329.31	4579.3	
329.52	5104.9	
329.73	2833	
329.93	3093.8	
330.14	4624.3	
330.35	4739.7	
330.56	4330.8	
330.76	3347.1	
330.97	4474.8	
331.18	4683	
331.39	3072	
331.59	2590	
331.8	5043.5	
332.01	5087.8	
332.22	2856.2	
332.42	3181.2	
332.63	4659.1	
332.84	4296.6	
333.05	3121.1	
333.25	2816.6	
333.46	4356	
333.67	4604.5	
333.88	2930.6	
334.08	3136.8	
334.29	5869.5	
334.5	5010.7	
334.7	2772.9	
334.91	3770.3	
335.12	4292.5	
335.33	4841.4	
335.53	3020.1	
335.74	4321.2	
335.95	4526.7	
336.16	4262.5	
336.36	3039.9	
336.57	3430.3	
336.78	4285	
336.98	4958.8	
337.19	3715.7	
337.4	2971.6	
337.61	5454.4	
337.81	4283	
338.02	2866.5	
338.23	3556	
338.43	5227.8	
338.64	4358.8	
338.85	2820.1	
339.05	3562.1	
339.26	5167	
339.47	4210.6	
339.68	2810.5	
339.88	3920.5	
340.09	4840	
340.3	4895.3	
340.5	3183.2	
340.71	2566.8	
340.92	4276.2	
341.13	5040.7	
341.33	2701.3	
341.54	3151.8	
341.75	4802.5	
341.95	4433.9	
342.16	3083.6	
342.37	3263.1	
342.57	4311	
342.78	4531.5	
342.99	3383.2	
343.19	2581.8	
343.4	4855.7	
343.61	4771.1	
343.81	2955.9	
344.02	2686.9	
344.23	4858.5	
344.43	5119.2	
344.64	3343	
344.85	3310.9	
345.06	4815.5	
345.26	4958.1	
345.47	3179.8	
345.68	3620.8	
345.88	4214	
346.09	4896.7	
346.3	3237.2	
346.5	2540.8	
346.71	4558.8	
346.92	4418.8	
347.12	2653.5	
347.33	3188.7	
347.54	4944.5	
347.74	5193	
347.95	3106.8	
348.16	2483.5	
348.36	4449.6	
348.57	4255	
348.78	3224.2	
348.98	3355.9	
349.19	4575.2	
349.39	4190.8	
349.6	2607.7	
349.81	2860.3	
350.01	4819.6	
350.22	4375.8	
350.43	3074.7	
350.63	3599.6	
350.84	4600.4	
351.05	4378.6	
351.25	2805.7	
351.46	2662.4	
351.67	4961.5	
351.87	4319.8	
352.08	3001.6	
352.29	3313.6	
352.49	4883	
352.7	4639.3	
352.9	2749.7	
353.11	3255.6	
353.32	5332.9	
353.52	4400.4	
353.73	2709.5	
353.94	3280.2	
354.14	4788.8	
354.35	4586.8	
354.55	2798.9	
354.76	3003	
354.97	4721.9	
355.17	4524.6	
355.38	2703.3	
355.59	3511.6	
355.79	4326.7	
356	4535.6	
356.2	3016.7	
356.41	2721.1	
356.62	4197.7	
356.82	4478.9	
357.03	3269.9	
357.24	2923.8	
357.44	4355.3	
357.65	4401.8	
357.85	3758.7	
358.06	3091.1	
358.27	4133.5	
358.47	4221.5	
358.68	2613.2	
358.88	3158	
359.09	4719.9	
359.3	4859.8	
359.5	3621.5	
359.71	3255.6	
359.91	5150	
360.12	4700.1	
360.33	3239.9	
360.53	3469.9	
360.74	4334.9	
360.94	4377.9	
361.15	3312.9	
361.36	2788.7	
361.56	4844.8	
361.77	4485.7	
361.97	3644.7	
362.18	2901.3	
362.38	4839.4	
362.59	4203.1	
362.8	2726.5	
363	2669.9	
363.21	4046.8	
363.41	4551.3	
363.62	3078.8	
363.83	3654.9	
364.03	4629.1	
364.24	5116.5	
364.44	3781.9	
364.65	3719.8	
364.85	4418.8	
365.06	4246.1	
365.27	2854.2	
365.47	2930.6	
365.68	5053.7	
365.88	4431.1	
366.09	3087	
366.29	2848.7	
366.5	4498.7	
366.71	4833.2	
366.91	3723.9	
367.12	3229.6	
367.32	5244.8	
367.53	4726.7	
367.73	3258.3	
367.94	3841.3	
368.14	4764.9	
368.35	5283.1	
368.56	3140.9	
368.76	2772.9	
368.97	4810.7	
369.17	5821	
369.38	2878.8	
369.58	2992.1	
369.79	4131.4	
369.99	5004.6	
370.2	3682.9	
370.4	3067.2	
370.61	4549.2	
370.82	5429.8	
371.02	3032.4	
371.23	2627.5	
371.43	4198.3	
371.64	5003.2	
371.84	3001	
372.05	3727.3	
372.25	5748	
372.46	4655	
372.66	2968.2	
372.87	2934.1	
373.07	4766.3	
373.28	5859.9	
373.48	3626.3	
373.69	3414	
373.9	4416.1	
374.1	4418.2	
374.31	3588.7	
374.51	3273.3	
374.72	4878.3	
374.92	4211.3	
375.13	3628.3	
375.33	3130	
375.54	4605.2	
375.74	4351.9	
375.95	3173	
376.15	3969.6	
376.36	4653.7	
376.56	4549.9	
376.77	3168.2	
376.97	3418.7	
377.18	5328.8	
377.38	4657.8	
377.59	3547.1	
377.79	2846.7	
378	4450.2	
378.2	4694.6	
378.41	2879.4	
378.61	2862.4	
378.82	4843.4	
379.02	4310.3	
379.23	2975.7	
379.43	3681.6	
379.64	4973.8	
379.84	4610.7	
380.05	2917.7	
380.25	2882.2	
380.46	4675.5	
380.66	4431.8	
380.87	3762.8	
381.07	3967.6	
381.28	5072.8	
381.48	4686.4	
381.69	2915.6	
381.89	2933.4	
382.1	4081.6	
382.3	4745.1	
382.51	3609.2	
382.71	4164.2	
382.91	4622.3	
383.12	5019.6	
383.32	3151.1	
383.53	3254.9	
383.73	4614.1	
383.94	4478.2	
384.14	3265.8	
384.35	2755.2	
384.55	4394.9	
384.76	4667.3	
384.96	3140.2	
385.17	3334.1	
385.37	4705.5	
385.58	4257	
385.78	3307.5	
385.98	2727.9	
386.19	4374.5	
386.39	4625.7	
386.6	2984.6	
386.8	3179.8	
387.01	4681.7	
387.21	4722.6	
387.42	3374.4	
387.62	3739.6	
387.83	4302.8	
388.03	4465.9	
388.23	3199.6	
388.44	3700.7	
388.64	4138.9	
388.85	4111.6	
389.05	3317	
389.26	3717.1	
389.46	5445.5	
389.67	4970.4	
389.87	3339.6	
390.07	3329.3	
390.28	4338.3	
390.48	4177.2	
390.69	2799.6	
390.89	3034.4	
391.1	4351.9	
391.3	4837.3	
391.5	3803.8	
391.71	4143.7	
391.91	4691.2	
392.12	5190.2	
392.32	3787.4	
392.53	3327.9	
392.73	4337.6	
392.93	4421.6	
393.14	3134.8	
393.34	3618.1	
393.55	4698	
393.75	4362.9	
393.95	3188	
394.16	3069.2	
394.36	4360.8	
394.57	4778.6	
394.77	2827.6	
394.98	3033	
395.18	4302.8	
395.38	4258.4	
395.59	3586.7	
395.79	2919.7	
396	4385.4	
396.2	4680.3	
396.4	3407.8	
396.61	3337.5	
396.81	4645.5	
397.02	4276.2	
397.22	3561.4	
397.42	3536.8	
397.63	4716.5	
397.83	4214	
398.04	2904	
398.24	3139.5	
398.44	4562.9	
398.65	3927.3	
398.85	2779.1	
399.05	2792.7	
399.26	4232.5	
399.46	5224.4	
399.67	3060.3	
399.87	2859.6	
400.07	4403.8	
400.28	4554	
400.48	2921.8	
400.69	3504.1	
400.89	4643.4	
401.09	4965.6	
401.3	2872.6	
401.5	3454.2	
401.7	5055.8	
401.91	5246.9	
402.11	3153.2	
402.32	3209.8	
402.52	4814.1	
402.72	4683	
402.93	3367.5	
403.13	2702	
403.33	5272.2	
403.54	4399	
403.74	3213.9	
403.94	3766.2	
404.15	4535.6	
404.35	5219.6	
404.56	3035.1	
404.76	4189.5	
404.96	4788.8	
405.17	4543.1	
405.37	3735.5	
405.57	3355.3	
405.78	4689.8	
405.98	4457.1	
406.18	2991.4	
406.39	3607.2	
406.59	4711.7	
406.79	4419.5	
407	2892.4	
407.2	2963.4	
407.4	4997.7	
407.61	4882.4	
407.81	2935.4	
408.01	4225.6	
408.22	4020.8	
408.42	5204.6	
408.62	3517.7	
408.83	3173	
409.03	4346.5	
409.23	4270	
409.44	3153.2	
409.64	3294.5	
409.84	4822.3	
410.05	4784.1	
410.25	3241.3	
410.45	3093.8	
410.66	4451.6	
410.86	5978.7	
411.06	3282.2	
411.27	3158	
411.47	5711.8	
411.67	4534.9	
411.88	3310.9	
412.08	3339.6	
412.28	4778.6	
412.49	5140.4	
412.69	3099.9	
412.89	3104	
413.09	5019.6	
413.3	4904.9	
413.5	3147.7	
413.7	2925.2	
413.91	4470.7	
414.11	4956.8	
414.31	3033	
414.52	3238.5	
414.72	4761.5	
414.92	4643.4	
415.12	3018	
415.33	3321.1	
415.53	4849.6	
415.73	4973.2	
415.94	3506.8	
416.14	3175.7	
416.34	4336.2	
416.55	4214.7	
416.75	3891.1	
416.95	3505.4	
417.15	4872.1	
417.36	5342.5	
417.56	3954.6	
417.76	3377.8	
417.97	5074.2	
418.17	4814.8	
418.37	3183.9	
418.57	3186	
418.78	4860.5	
418.98	4661.2	
419.18	3707.5	
419.38	3685.7	
419.59	4492.6	
419.79	4463.2	
419.99	3102.7	
420.2	3276.8	
420.4	4874.8	
420.6	4995	
420.8	3051.5	
421.01	2992.1	
421.21	4735.6	
421.41	4799.1	
421.61	3237.2	
421.82	3119.1	
422.02	4567.7	
422.22	5106.3	
422.42	3609.2	
422.63	3445.4	
422.83	4479.6	
423.03	5324.7	
423.23	3404.4	
423.44	2863.7	
423.64	4502.8	
423.84	4372.4	
424.04	3059.7	
424.25	2914.3	
424.45	5203.9	
424.65	5123.3	
424.85	2867.8	
425.06	3205.8	
425.26	5331.5	
425.46	4579.3	
425.66	3407.8	
425.87	3199.6	
426.07	5031.9	
426.27	4931.5	
426.47	3310.9	
426.67	2960.7	
426.88	5316.5	
427.08	4920.6	
427.28	3472.7	
427.48	2936.1	
427.69	4329.4	
427.89	4689.2	
428.09	3364.8	
428.29	2921.8	
428.5	5007.3	
428.7	4814.1	
428.9	2867.2	
429.1	3131.3	
429.3	4749.9	
429.51	4891.2	
429.71	3149.1	
429.91	3530	
430.11	4949.9	
430.31	5018.9	
430.52	3211.9	
430.72	3303.4	
430.92	5239.4	
431.12	4898.1	
431.32	2978.4	
431.53	3338.9	
431.73	4247.5	
431.93	5236	
432.13	2928.6	
432.33	2890.4	
432.54	4571.1	
432.74	4642.7	
432.94	2804.4	
433.14	3472.7	
433.34	4958.1	
433.55	4576.5	
433.75	3401	
433.95	4457.7	
434.15	4777.9	
434.35	4444.8	
434.56	2952.5	
434.76	2635.7	
434.96	4598.4	
435.16	4801.8	
435.36	2764.8	
435.56	3491.8	
435.77	4377.2	
435.97	4490.5	
436.17	3846.8	
436.37	3321.8	
436.57	4381.3	
436.78	4319.8	
436.98	4565.6	
437.18	3846.8	
437.38	4691.2	
437.58	4445.5	
437.78	3898	
437.99	3037.8	
438.19	4813.4	
438.39	5344.5	
438.59	3072	
438.79	2751.8	
438.99	5246.9	
439.2	4518.5	
439.4	2799.6	
439.6	2799.6	
439.8	4586.1	
440	5291.3	
440.2	3332	
440.4	3365.5	
440.61	4876.2	
440.81	5173.9	
441.01	2845.3	
441.21	3297.9	
441.41	5040.1	
441.61	4805.2	
441.81	3520.5	
442.02	4116.4	
442.22	5377.3	
442.42	4889.2	
442.62	2840.5	
442.82	2955.2	
443.02	5124	
443.22	4531.5	
443.43	3060.3	
443.63	2734	
443.83	4425.7	
444.03	4390.2	
444.23	3434.4	
444.43	3306.1	
444.63	4580.6	
444.83	5337.7	
445.04	2886.3	
445.24	3585.3	
445.44	4809.3	
445.64	4847.5	
445.84	3373	
446.04	3366.9	
446.24	4397	
446.44	5036	
446.65	2923.1	
446.85	3106.8	
447.05	4698.7	
447.25	5036.6	
447.45	3156.6	
447.65	2796.8	
447.85	4732.9	
448.05	4458.4	
448.25	3360.7	
448.46	3219.4	
448.66	4646.2	
448.86	4440.7	
449.06	2777.7	
449.26	3394.2	
449.46	4842.8	
449.66	4372.4	
449.86	3059	
450.06	3030.3	
450.26	4350.6	
450.47	4679.6	
450.67	3233.1	
450.87	3472.7	
451.07	4926	
451.27	4575.2	
451.47	2809.8	
451.67	3304.1	
451.87	4464.6	
452.07	5190.9	
452.27	2914.9	
452.47	2969.6	
452.67	4706.9	
452.88	4829.8	
453.08	2648.7	
453.28	3736.9	
453.48	5376.6	
453.68	4599.7	
453.88	2867.8	
454.08	2941.6	
454.28	4795.7	
454.48	4597.7	
454.68	3276.8	
454.88	3579.2	
455.08	4924	
455.28	4597	
455.48	2836.4	
455.68	3144.3	
455.89	5182	
456.09	4786.1	
456.29	2954.5	
456.49	2956.6	
456.69	4924.7	
456.89	4609.3	
457.09	3175	
457.29	3435.8	
457.49	4680.3	
457.69	4694.6	
457.89	3041.9	
458.09	2752.5	
458.29	4499.4	
458.49	4962.2	
458.69	3229	
458.89	2925.9	
459.09	5013.4	
459.29	5074.9	
459.49	3012.6	
459.69	3496.6	
459.9	4781.3	
460.1	4424.3	
460.3	2934.1	
460.5	2723.1	
460.7	4778.6	
460.9	4457.1	
461.1	2602.3	
461.3	3274.7	
461.5	5062.6	
461.7	4873.5	
461.9	2695.1	
462.1	3054.9	
462.3	4530.1	
462.5	4868	
462.7	2765.4	
462.9	2795.5	
463.1	5513.1	
463.3	5134.9	
463.5	2943.6	
463.7	3322.5	
463.9	4545.8	
464.1	4761.5	
464.3	2783.2	
464.5	3034.4	
464.7	4852.3	
464.9	4558.1	
465.1	3812	
465.3	3150.5	
465.5	5065.3	
465.7	5058.5	
465.9	3340.2	
466.1	3278.8	
466.3	4726.7	
466.5	4908.3	
466.7	3681.6	
466.9	3052.8	
467.1	4795	
467.3	5279	
467.5	3612.6	
467.7	2949.8	
467.9	5448.3	
468.1	5972.6	
468.3	3482.9	
468.5	3670.6	
468.7	4595.6	
468.9	4563.6	
469.1	3075.4	
469.3	3508.9	
469.5	5878.4	
469.7	4326.7	
469.9	3476.8	
470.1	2912.2	
470.3	4737	
470.5	4709	
470.7	3695.2	
470.9	3073.3	
471.1	4470.7	
471.3	4892.6	
471.5	2855.6	
471.69	4038.6	
471.89	4629.1	
472.09	4225	
472.29	3293.8	
472.49	3611.3	
472.69	4341.7	
472.89	4763.6	
473.09	2819.4	
473.29	3044.6	
473.49	4533.5	
473.69	4522.6	
473.89	3557.3	
474.09	3050.8	
474.29	5417.6	
474.49	5070.8	
474.69	3465.8	
474.89	3125.9	
475.09	4600.4	
475.29	4452.3	
475.49	2889	
475.69	2906.8	
475.88	5531.6	
476.08	4834.6	
476.28	2732.7	
476.48	3087.7	
476.68	5169.1	
476.88	4942.4	
477.08	3021.4	
477.28	3106.1	
477.48	4822.3	
477.68	5043.5	
477.88	2899.2	
478.08	3091.1	
478.28	5248.3	
478.48	4749.2	
478.67	3125.9	
478.87	2787.3	
479.07	5012.7	
479.27	4857.8	
479.47	3171.6	
479.67	3252.9	
479.87	5020.9	
480.07	5302.2	
480.27	2795.5	
480.47	3802.4	
480.67	4739	
480.87	5175.2	
481.06	2996.9	
481.26	3493.8	
481.46	4818.9	
481.66	4718.5	
481.86	3263.8	
482.06	3820.8	
482.26	4585.4	
482.46	5185.5	
482.66	3160	
482.86	2915.6	
483.05	4917.2	
483.25	4404.5	
483.45	4803.2	
483.65	3106.8	
483.85	4409.3	
484.05	4653	
484.25	3450.1	
484.45	3609.2	
484.65	5118.6	
484.84	5143.1	
485.04	3120.4	
485.24	3065.1	
485.44	5409.4	
485.64	4350.6	
485.84	2693.1	
486.04	3462.4	
486.24	4569	
486.44	4789.5	
486.63	2626.9	
486.83	3162.7	
487.03	4473.4	
487.23	4535.6	
487.43	2695.8	
487.63	4033.1	
487.83	4616.8	
488.02	5035.3	
488.22	3113.6	
488.42	3482.2	
488.62	5095.3	
488.82	4339	
489.02	2991.4	
489.22	2925.2	
489.41	4982	
489.61	4817.5	
489.81	2805.7	
490.01	2804.4	
490.21	4898.7	
490.41	5341.1	
490.61	2766.8	
490.8	2849.4	
491	4633.2	
491.2	4371	
491.4	3233.7	
491.6	2803.7	
491.8	4737.6	
491.99	4719.2	
492.19	2695.1	
492.39	2833	
492.59	4891.9	
492.79	5016.2	
492.99	3295.9	
493.18	2823.5	
493.38	5087.2	
493.58	5356.8	
493.78	3104	
493.98	2876.7	
494.18	4741.7	
494.37	4349.2	
494.57	3153.2	
494.77	3132.7	
494.97	4709.6	
495.17	4876.2	
495.37	2788.7	
495.56	3027.6	
495.76	4911.7	
495.96	4751.3	
496.16	3585.3	
496.36	2880.8	
496.55	4822.3	
496.75	4516.5	
496.95	3082.9	
497.15	2983.9	
497.35	4877.6	
497.54	4752.7	
497.74	2874.7	
497.94	4004.5	
498.14	5218.2	
498.34	5022.3	
498.53	2649.4	
498.73	3097.2	
498.93	4313	
499.13	4715.8	
499.33	2979.8	
499.52	3338.9	
499.72	4775.2	
499.92	4822.3	
500.12	2751.1	
500.32	2965.5	
500.51	4823.6	
500.71	4633.2	
500.91	3362.8	
501.11	3188	
501.31	4727.4	
501.5	5089.9	
501.7	3517.7	
501.9	3025.5	
502.1	4623.6	
502.29	4900.1	
502.49	3108.8	
502.69	3538.2	
502.89	4799.8	
503.09	4815.5	
503.28	2675.3	
503.48	2807.8	
503.68	4563.6	
503.88	4405.9	
504.07	3377.1	
504.27	3039.9	
504.47	4614.8	
504.67	4762.2	
504.86	3325.2	
505.06	3174.4	
505.26	4659.1	
505.46	5553.4	
505.65	3070.6	
505.85	3298.6	
506.05	4579.3	
506.25	4932.9	
506.44	2824.1	
506.64	3310.2	
506.84	4502.1	
507.04	5018.9	
507.23	2956.6	
507.43	3233.7	
507.63	5681.7	
507.83	4572.4	
508.02	3274.7	
508.22	3009.1	
508.42	5875.6	
508.62	4488.5	
508.81	3228.3	
509.01	3510.2	
509.21	4520.5	
509.4	4681.7	
509.6	3321.1	
509.8	2932.7	
510	4652.3	
510.19	5344.5	
510.39	2889	
510.59	2976.4	
510.79	4522.6	
510.98	5292	
511.18	3055.6	
511.38	2965.5	
511.57	5072.1	
511.77	4728.1	
511.97	3405.1	
512.17	2938.2	
512.36	4976.6	
512.56	4915.1	
512.76	2914.9	
512.95	2761.3	
513.15	5105.6	
513.35	4192.9	
513.55	3432.4	
513.74	2937.5	
513.94	5029.8	
514.14	4572.4	
514.33	3464.5	
514.53	3339.6	
514.73	4692.6	
514.92	4666.6	
515.12	2924.5	
515.32	2817.3	
515.51	4743.8	
515.71	4959.5	
515.91	3885	
516.11	2859	
516.3	5763.7	
516.5	4524	
516.7	3270.6	
516.89	3590.1	
517.09	4541	
517.29	4592.9	
517.48	3292.5	
517.68	3073.3	
517.88	4345.8	
518.07	4795.7	
518.27	3330.7	
518.47	2807.1	
518.66	5130.2	
518.86	4386.1	
519.06	2683.5	
519.25	2936.8	
519.45	4474.1	
519.65	5279	
519.84	3378.5	
520.04	3736.9	
520.24	5617.6	
520.43	4886.5	
520.63	3202.3	
520.83	3035.8	
521.02	4491.2	
521.22	4836.6	
521.42	3297.2	
521.61	3654.9	
521.81	4619.5	
522.01	4792.9	
522.2	3263.8	
522.4	3125.2	
522.6	4990.9	
522.79	4174.4	
522.99	3151.8	
523.18	2725.2	
523.38	4801.8	
523.58	4696	
523.77	3669.3	
523.97	2652.8	
524.17	5788.9	
524.36	5298.1	
524.56	3373.7	
524.76	3119.1	
524.95	4510.3	
525.15	4420.9	
525.34	2926.5	
525.54	2998.9	
525.74	4770.4	
525.93	4188.1	
526.13	3670	
526.33	2918.4	
526.52	4977.9	
526.72	4578.6	
526.91	3580.5	
527.11	3139.5	
527.31	4734.9	
527.5	5042.1	
527.7	3081.5	
527.89	2527.2	
528.09	4307.6	
528.29	4518.5	
528.48	3376.4	
528.68	3104	
528.87	4788.2	
529.07	4813.4	
529.27	3074	
529.46	2817.3	
529.66	4631.1	
529.85	4836.6	
530.05	2727.9	
530.25	3128.6	
530.44	5365.7	
530.64	4482.3	
530.83	2996.9	
531.03	3037.1	
531.23	4886.5	
531.42	4650.3	
531.62	3450.8	
531.81	2949.8	
532.01	4921.3	
532.21	4994.3	
532.4	2751.1	
532.6	2934.1	
532.79	5326.1	
532.99	4698.7	
533.18	2989.4	
533.38	3590.8	
533.58	4405.9	
533.77	4851	
533.97	2882.9	
534.16	3313.6	
534.36	5019.6	
534.55	4410.6	
534.75	3423.5	
534.95	2898.6	
535.14	4924.7	
535.34	4369	
535.53	2730.6	
535.73	3884.3	
535.92	5292.6	
536.12	4461.2	
536.31	2816	
536.51	3526.6	
536.71	4778.6	
536.9	4471.4	
537.1	2865.1	
537.29	2994.1	
537.49	4993.6	
537.68	4416.8	
537.88	3212.6	
538.07	2693.1	
538.27	4543.8	
538.46	5168.4	
538.66	2671.9	
538.86	2953.2	
539.05	4640	
539.25	4764.9	
539.44	3130.7	
539.64	2820.1	
539.83	4493.2	
540.03	5079.6	
540.22	2758.6	
540.42	2929.3	
540.61	4693.3	
540.81	4707.6	
541	3166.8	
541.2	3510.9	
541.39	4457.1	
541.59	4551.3	
541.78	3302	
541.98	2874.7	
542.18	4214	
542.37	4272.1	
542.57	3098.6	
542.76	3403.7	
542.96	4407.9	
543.15	4715.1	
543.35	3192.1	
543.54	2772.3	
543.74	4820.2	
543.93	4684.4	
544.13	3185.3	
544.32	3882.9	
544.52	4995	
544.71	4495.3	
544.91	2691	
545.1	3428.3	
545.3	4554	
545.49	4817.5	
545.69	2665.8	
545.88	3092.4	
546.08	5479	
546.27	5145.9	
546.47	3355.9	
546.66	2871.9	
546.86	4998.4	
547.05	5322	
547.24	3012.6	
547.44	2957.3	
547.63	4459.8	
547.83	5015.5	
548.02	3142.9	
548.22	3296.5	
548.41	4353.3	
548.61	5152	
548.8	2982.5	
549	2970.9	
549.19	4788.2	
549.39	5008.6	
549.58	2790.7	
549.78	3153.9	
549.97	5008	
550.17	4670.1	
550.36	3731.4	
550.55	4364.9	
550.75	4686.4	
550.94	5257.8	
551.14	2950.4	
551.33	3239.2	
551.53	4290.5	
551.72	4917.9	
551.92	3181.2	
552.11	3102.7	
552.31	5017.5	
552.5	4924	
552.69	4211.3	
552.89	2908.1	
553.08	4938.3	
553.28	4757.4	
553.47	3120.4	
553.67	3807.9	
553.86	5367.7	
554.06	4369	
554.25	2749.1	
554.44	3011.9	
554.64	5941.2	
554.83	5519.3	
555.03	3012.6	
555.22	3229	
555.42	5154.1	
555.61	4999.8	
555.8	3137.5	
556	3340.9	
556.19	4457.7	
556.39	5149.3	
556.58	3117.7	
556.78	3198.9	
556.97	4942.4	
557.16	4634.6	
557.36	3971.7	
557.55	2927.2	
557.75	4345.1	
557.94	5375.2	
558.13	3035.8	
558.33	2873.3	
558.52	5250.3	
558.72	4491.2	
558.91	3056.3	
559.1	3112.9	
559.3	4415.4	
559.49	4326	
559.69	2779.8	
559.88	3327.3	
560.07	4885.8	
560.27	5141.1	
560.46	3452.9	
560.66	3538.9	
560.85	4810.7	
561.04	4325.3	
561.24	2958.6	
561.43	3114.3	
561.63	4426.3	
561.82	4758.8	
562.01	3860.4	
562.21	3304.7	
562.4	4882.4	
562.59	5406	
562.79	3185.3	
562.98	2942.2	
563.18	4837.3	
563.37	5671.5	
563.56	3457	
563.76	2945	
563.95	4480.3	
564.14	4542.4	
564.34	3147.7	
564.53	2981.8	
564.73	4929.5	
564.92	4918.5	
565.11	3213.9	
565.31	2808.4	
565.5	5162.9	
565.69	4367	
565.89	3075.4	
566.08	3177.8	
566.27	5008.6	
566.47	5229.8	
566.66	3587.4	
566.85	2803	
567.05	4848.2	
567.24	4573.8	
567.44	2931.3	
567.63	3717.7	
567.82	5012.7	
568.02	4715.8	
568.21	2942.9	
568.4	3170.3	
568.6	4688.5	
568.79	4685.8	
568.98	2863.7	
569.18	2886.3	
569.37	4650.9	
569.56	5838.8	
569.76	3158	
569.95	3721.2	
570.14	4920.6	
570.34	4736.3	
570.53	2871.3	
570.72	2799.6	
570.91	5199.1	
571.11	4734.9	
571.3	3151.1	
571.49	3750.5	
571.69	4770.4	
571.88	4399	
572.07	3434.4	
572.27	3488.4	
572.46	4358.8	
572.65	5008.6	
572.85	2988	
573.04	3156.6	
573.23	5094	
573.43	4722.6	
573.62	2842.6	
573.81	3199.6	
574	4685.8	
574.2	4592.2	
574.39	3000.3	
574.58	3042.6	
574.78	5101.5	
574.97	4686.4	
575.16	3246.7	
575.36	3302.7	
575.55	4917.2	
575.74	4993.6	
575.93	2754.5	
576.13	3293.8	
576.32	4521.9	
576.51	4820.2	
576.71	3047.4	
576.9	3734.8	
577.09	5117.9	
577.28	4764.9	
577.48	3207.8	
577.67	2743.6	
577.86	4581.3	
578.05	4798.4	
578.25	3083.6	
578.44	3141.6	
578.63	4612	
578.83	5303.6	
579.02	2759.3	
579.21	3608.5	
579.4	4749.9	
579.6	4536.3	
579.79	3093.1	
579.98	4473.4	
580.17	4924.7	
580.37	5002.5	
580.56	2828.2	
580.75	3220.1	
580.94	5109.7	
581.14	5214.8	
581.33	3518.4	
581.52	2929.3	
581.71	4788.2	
581.91	5276.3	
582.1	2762	
582.29	3064.4	
582.48	4633.9	
582.68	4564.9	
582.87	3353.2	
583.06	3138.9	
583.25	4848.9	
583.45	4418.2	
583.64	3435.1	
583.83	3881.6	
584.02	4695.3	
584.21	4823.6	
584.41	3427.6	
584.6	3095.2	
584.79	4610	
584.98	4915.8	
585.18	2754.5	
585.37	2752.5	
585.56	4431.8	
585.75	4826.4	
585.94	2893.1	
586.14	3319.1	
586.33	5254.4	
586.52	4595.6	
586.71	3243.3	
586.91	3016	
587.1	4323.9	
587.29	4954.7	
587.48	3102.7	
587.67	2983.9	
587.87	4934.9	
588.06	4868	
588.25	3864.5	
588.44	3424.2	
588.63	4706.2	
588.83	4998.4	
589.02	3145	
589.21	3069.9	
589.4	4764.9	
589.59	4702.8	
589.78	2741.5	
589.98	2930	
590.17	4453.6	
590.36	4728.1	
590.55	2686.3	
590.74	3211.9	
590.94	5708.4	
591.13	4810.7	
591.32	3095.2	
591.51	2876	
591.7	4999.1	
591.89	4848.9	
592.09	2822.8	
592.28	3127.9	
592.47	4261.8	
592.66	5509.7	
592.85	2811.2	
593.05	2968.9	
593.24	4715.1	
593.43	5260.5	
593.62	3054.9	
593.81	3286.3	
594	4758.1	
594.19	4828.4	
594.39	2962	
594.58	2863.1	
594.77	4941.1	
594.96	5250.3	
595.15	3018.7	
595.34	3276.1	
595.54	4820.9	
595.73	4398.4	
595.92	2667.8	
596.11	3247.4	
596.3	5240.1	
596.49	4546.5	
596.68	3138.2	
596.88	3356.6	
597.07	5050.3	
597.26	4391.5	
597.45	2866.5	
597.64	3507.5	
597.83	4540.3	
598.02	4905.6	
598.22	2906.8	
598.41	3300	
598.6	4817.5	
598.79	4433.9	
598.98	2929.3	
599.17	3519.1	
599.36	4859.1	
599.55	5521.3	
599.74	4169	
599.94	4017.4	
600.13	5137.7	
600.32	4486.4	
600.51	2781.1	
600.7	2831	
600.89	5527.5	
601.08	5578.7	
601.27	2752.5	
601.47	3280.2	
601.66	5065.3	
601.85	5416.9	
602.04	3191.4	
602.23	3310.9	
602.42	4545.1	
602.61	4888.5	
602.8	3031	
602.99	2967.5	
603.18	4762.2	
603.37	4831.2	
603.57	3306.1	
603.76	3696.6	
603.95	5329.5	
604.14	4986.8	
604.33	3083.6	
604.52	3143.6	
604.71	4853.7	
604.9	4569.7	
605.09	3610.6	
605.28	3469.9	
605.47	5239.4	
605.66	4906.9	
605.86	3312.9	
606.05	2996.9	
606.24	5255.1	
606.43	4315.1	
606.62	3239.9	
606.81	3634.5	
607	5137.7	
607.19	4646.2	
607.38	2903.3	
607.57	2977.7	
607.76	4538.3	
607.95	4235.2	
608.14	3315.7	
608.33	3717.7	
608.52	4558.1	
608.72	5048.9	
608.91	2807.1	
609.1	2772.9	
609.29	4657.1	
609.48	4407.2	
609.67	3397.6	
609.86	2875.3	
610.05	4499.4	
610.24	4567	
610.43	2823.5	
610.62	2626.9	
610.81	5431.2	
611	5195	
611.19	2891.7	
611.38	3317	
611.57	4890.5	
611.76	5571.2	
611.95	2758.6	
612.14	2732.7	
612.33	4678.2	
612.52	4453	
612.71	3050.8	
612.9	2751.8	
613.09	4222.2	
613.28	5685.2	
613.47	3058.3	
613.66	3496.6	
613.85	4784.1	
614.04	4502.1	
614.24	2979.8	
614.43	2603	
614.62	4869.4	
614.81	4845.5	
615	3263.1	
615.19	3284.9	
615.38	4481.6	
615.57	4665.3	
615.76	3235.1	
615.95	3822.9	
616.14	4916.5	
616.33	4670.7	
616.52	3409.9	
616.71	3433.1	
616.9	4798.4	
617.09	4711.7	
617.28	3001.6	
617.47	3758	
617.66	4384	
617.85	4333.5	
618.04	3542.3	
618.22	3175	
618.41	4476.9	
618.6	5075.5	
618.79	3108.1	
618.98	2962.7	
619.17	5116.5	
619.36	4199.7	
619.55	2989.4	
619.74	3093.8	
619.93	4682.3	
620.12	4354.7	
620.31	3286.3	
620.5	3398.3	
620.69	5016.8	
620.88	5263.3	
621.07	3784	
621.26	3245.3	
621.45	4767.7	
621.64	4734.9	
621.83	3261.7	
622.02	2762.7	
622.21	4777.2	
622.4	4681	
622.59	3639.9	
622.78	3475.4	
622.97	4459.1	
623.16	4966.3	
623.35	3287.7	
623.54	2705.4	
623.72	4486.4	
623.91	4614.1	
624.1	3350.5	
624.29	2664.4	
624.48	5268.7	
624.67	4840.7	
624.86	3313.6	
625.05	2794.1	
625.24	5349.3	
625.43	4442	
625.62	4328	
625.81	2925.9	
626	4945.8	
626.19	4535.6	
626.38	3236.5	
626.56	3060.3	
626.75	4384.7	
626.94	4790.2	
627.13	3365.5	
627.32	2648	
627.51	4876.2	
627.7	5523.4	
627.89	2760	
628.08	3374.4	
628.27	4357.4	
628.46	4543.8	
628.65	2915.6	
628.83	2687.6	
629.02	4903.5	
629.21	4354.7	
629.4	3122.5	
629.59	3306.1	
629.78	4326.7	
629.97	4972.5	
630.16	3217.4	
630.35	3022.1	
630.54	5312.4	
630.72	5089.9	
630.91	2897.2	
631.1	3214.6	
631.29	4681	
631.48	4698.7	
631.67	3452.2	
631.86	2956.6	
632.05	4565.6	
632.24	4521.2	
632.42	2793.4	
632.61	3211.2	
632.8	4537.6	
632.99	4246.8	
633.18	3115.6	
633.37	3411.2	
633.56	4724.7	
633.75	4679.6	
633.93	3246.7	
634.12	2988	
634.31	5295.4	
634.5	4910.3	
634.69	3018.7	
634.88	3377.1	
635.07	4562.2	
635.25	4941.1	
635.44	3640.6	
635.63	3693.9	
635.82	4530.1	
636.01	4074.1	
636.2	3550.5	
636.39	3242.6	
636.57	5177.3	
636.76	4904.9	
636.95	2951.8	
637.14	3801.7	
637.33	4721.9	
637.52	5319.3	
637.7	2781.1	
637.89	3465.8	
638.08	4573.1	
638.27	5396.4	
638.46	3378.5	
638.65	3716.4	
638.83	5461.2	
639.02	4520.5	
639.21	3375.7	
639.4	3741	
639.59	4649.6	
639.78	4556	
639.96	2927.9	
640.15	3004.4	
640.34	4703.5	
640.53	4716.5	
640.72	2869.9	
640.91	3117.7	
641.09	4442.7	
641.28	5198.4	
641.47	3058.3	
641.66	3577.8	
641.85	4719.2	
642.03	4968.4	
642.22	3423.5	
642.41	3140.2	
642.6	4454.3	
642.79	4154	
642.97	3115.6	
643.16	3418.7	
643.35	4379.9	
643.54	4376.5	
643.73	2981.2	
643.91	3459	
644.1	4364.2	
644.29	4656.4	
644.48	3066.5	
644.67	3122.5	
644.85	4422.2	
645.04	4745.8	
645.23	2891.7	
645.42	3137.5	
645.6	4476.9	
645.79	5143.1	
645.98	3119.1	
646.17	2650.1	
646.36	4442.7	
646.54	4717.8	
646.73	3681.6	
646.92	2917.7	
647.11	4483.7	
647.29	5160.9	
647.48	2932	
647.67	2877.4	
647.86	5401.9	
648.05	5279.7	
648.23	3160.7	
648.42	4008.6	
648.61	4947.9	
648.8	4717.8	
648.98	2990.7	
649.17	3213.9	
649.36	4520.5	
649.55	4257.7	
649.73	3055.6	
649.92	3465.8	
650.11	4450.9	
650.3	4631.8	
650.48	3078.8	
650.67	2981.8	
650.86	4891.9	
651.05	4191.5	
651.23	3044	
651.42	3045.3	
651.61	4512.4	
651.79	4489.1	
651.98	3220.8	
652.17	2983.2	
652.36	4821.6	
652.54	4278.2	
652.73	3031	
652.92	2967.5	
653.11	4877.6	
653.29	4883	
653.48	2679.4	
653.67	3231.7	
653.85	4630.5	
654.04	5375.2	
654.23	3364.8	
654.42	3164.8	
654.6	4536.3	
654.79	4910.3	
654.98	2879.4	
655.16	3224.9	
655.35	4392.9	
655.54	4152.6	
655.73	2962	
655.91	2912.2	
656.1	4922	
656.29	4173.8	
656.47	2723.1	
656.66	3682.9	
656.85	4418.8	
657.03	4391.5	
657.22	2964.8	
657.41	2970.2	
657.59	4440.7	
657.78	4359.4	
657.97	2680.8	
658.16	3162.7	
658.34	4870.8	
658.53	5082.4	
658.72	3713	
658.9	4007.2	
659.09	4550.6	
659.28	4536.3	
659.46	3024.8	
659.65	2945.7	
659.84	4304.8	
660.02	4717.2	
660.21	2975	
660.4	2869.2	
660.58	4922.6	
660.77	4512.4	
660.96	3321.1	
661.14	2674	
661.33	5260.5	
661.52	5231.2	
661.7	2678.1	
661.89	4869.4	
662.08	4319.8	
662.26	3975.1	
662.45	2874	
662.64	2952.5	
662.82	4791.6	
663.01	4268	
663.2	2949.1	
663.38	3423.5	
663.57	4666.6	
663.75	4659.8	
663.94	3085.6	
664.13	3864.5	
664.31	4433.9	
664.5	4755.4	
664.69	3405.1	
664.87	3575.1	
665.06	4230.4	
665.25	4586.1	
665.43	3728	
665.62	3695.9	
665.8	4801.8	
665.99	4454.3	
666.18	3145.7	
666.36	3170.3	
666.55	4807.3	
666.74	4749.2	
666.92	2972.3	
667.11	3977.8	
667.29	4536.9	
667.48	4835.9	
667.67	3637.2	
667.85	3048.1	
668.04	4450.9	
668.22	4407.2	
668.41	3290.4	
668.6	3446.7	
668.78	4305.5	
668.97	4457.1	
669.15	3381.2	
669.34	2777.7	
669.53	4262.5	
669.71	4486.4	
669.9	2889.7	
670.08	3244	
670.27	4308.2	
670.46	4755.4	
670.64	3452.9	
670.83	3588.7	
671.01	4203.8	
671.2	4588.8	
671.38	2975	
671.57	2919.7	
671.76	5061.2	
671.94	5346.6	
672.13	2828.9	
672.31	3497.9	
672.5	4844.8	
672.69	4270.7	
672.87	2982.5	
673.06	3145.7	
673.24	4752.7	
673.43	4414.1	
673.61	3388.7	
673.8	3144.3	
673.98	4776.5	
674.17	4817.5	
674.36	3476.1	
674.54	3375.1	
674.73	4537.6	
674.91	4816.8	
675.1	3187.3	
675.28	2958.6	
675.47	4504.2	
675.65	4775.2	
675.84	3161.4	
676.03	3336.8	
676.21	4395.6	
676.4	4075.5	
676.58	3638.6	
676.77	3407.1	
676.95	5342.5	
677.14	4392.2	
677.32	2906.8	
677.51	2889.7	
677.69	4907.6	
677.88	4280.9	
678.06	2869.2	
678.25	3062.4	
678.44	4530.1	
678.62	4343.1	
678.81	2851.5	
678.99	3358	
679.18	5057.8	
679.36	4810.7	
679.55	3069.9	
679.73	3421.5	
679.92	4717.8	
680.1	4373.8	
680.29	3934.1	
680.47	3087	
680.66	4410.6	
680.84	4868.7	
681.03	2764.1	
681.21	3398.9	
681.4	4376.5	
681.58	4297.3	
681.77	2953.9	
681.95	2935.4	
682.14	4943.8	
682.32	5095.3	
682.51	3523.9	
682.69	2856.9	
682.88	4372.4	
683.06	4704.2	
683.25	3381.9	
683.43	3659.7	
683.62	4592.9	
683.8	4797	
683.99	3724.6	
684.17	3295.9	
684.36	5331.5	
684.54	4549.9	
684.73	2914.3	
684.91	3005.7	
685.1	4850.3	
685.28	4440	
685.46	3444	
685.65	3467.9	
685.83	4972.5	
686.02	4586.8	
686.2	3158	
686.39	3190.1	
686.57	4257.7	
686.76	5307.7	
686.94	3159.3	
687.13	3186.6	
687.31	4827.7	
687.5	4662.5	
687.68	2837.1	
687.86	3506.1	
688.05	5705	
688.23	4225	
688.42	3522.5	
688.6	3048.1	
688.79	4414.7	
688.97	4450.9	
689.16	3340.9	
689.34	2718.3	
689.52	4891.9	
689.71	5028.4	
689.89	3523.9	
690.08	3109.5	
690.26	4669.4	
690.45	4529.4	
690.63	3652.9	
690.81	3225.6	
691	4611.3	
691.18	4402.5	
691.37	3264.5	
691.55	4666	
691.74	4364.9	
691.92	5660.6	
692.1	3253.5	
692.29	2970.9	
692.47	4587.4	
692.66	4189.5	
692.84	3035.1	
693.02	3383.2	
693.21	4163.5	
693.39	4598.4	
693.58	3442.6	
693.76	3065.1	
693.94	5211.4	
694.13	5033.2	
694.31	3035.8	
694.5	3696.6	
694.68	4323.9	
694.86	4588.1	
695.05	3194.8	
695.23	3438.5	
695.42	4661.9	
695.6	6142.5	
695.78	3532.1	
695.97	3028.3	
696.15	4799.1	
696.34	4407.9	
696.52	2902.7	
696.7	3398.3	
696.89	4602.5	
697.07	4236.6	
697.25	3381.2	
697.44	4283	
697.62	4633.9	
697.81	4752.7	
697.99	3254.9	
698.17	3486.3	
698.36	4371	
698.54	4705.5	
698.72	3340.2	
698.91	2900.6	
699.09	4442.7	
699.28	4275.5	
699.46	3228.3	
699.64	3130.7	
699.83	4356	
700.01	4992.3	
700.19	3692.5	
700.38	2670.6	
700.56	4971.8	
700.74	4378.6	
700.93	2856.2	
701.11	3386.7	
701.29	4692.6	
701.48	5360.2	
701.66	2973	
701.84	3024.2	
702.03	4478.2	
702.21	4814.8	
702.39	2782.5	
702.58	3085.6	
702.76	4726	
702.94	4668	
703.13	2768.9	
703.31	4240.7	
703.49	4278.2	
703.68	4837.3	
703.86	2882.2	
704.04	3465.2	
704.23	4602.5	
704.41	4767	
704.59	3006.4	
704.78	3752.6	
704.96	5588.2	
705.14	4754	
705.33	2842.6	
705.51	3299.3	
705.69	4388.1	
705.87	4906.3	
706.06	3491.1	
706.24	2877.4	
706.42	4554	
706.61	4773.1	
706.79	3579.2	
706.97	2796.2	
707.16	4335.5	
707.34	4657.1	
707.52	3461.1	
707.7	2923.8	
707.89	4260.5	
708.07	4173.1	
708.25	3469.3	
708.44	3552.5	
708.62	4262.5	
708.8	4990.9	
708.98	3697.9	
709.17	3007.1	
709.35	4567.7	
709.53	4602.5	
709.72	2866.5	
709.9	2930.6	
710.08	4829.8	
710.26	4856.4	
710.45	3900	
710.63	3153.9	
710.81	4489.1	
710.99	4569.7	
711.18	3499.3	
711.36	3153.2	
711.54	4446.8	
711.72	4998.4	
711.91	3285.6	
712.09	2998.2	
712.27	4645.5	
712.45	5043.5	
712.64	3442.6	
712.82	2809.8	
713	4383.3	
713.18	4512.4	
713.37	2927.2	
713.55	3750.5	
713.73	5065.3	
713.91	4333.5	
714.1	3261	
714.28	3067.2	
714.46	4948.6	
714.64	4523.3	
714.83	2830.3	
715.01	3257	
715.19	4769.7	
715.37	4293.2	
715.55	3153.2	
715.74	3340.2	
715.92	5185.5	
716.1	4005.1	
716.28	4138.3	
716.47	3472.7	
716.65	4576.5	
716.83	4483.7	
717.01	3398.3	
717.19	3390.1	
717.38	5814.2	
717.56	4268	
717.74	3533.4	
717.92	2966.8	
718.1	5132.9	
718.29	4541.7	
718.47	2739.5	
718.65	3104	
718.83	4905.6	
719.01	4801.1	
719.2	2608.4	
719.38	3251.5	
719.56	4626.4	
719.74	5627.1	
719.92	3025.5	
720.11	3629.7	
720.29	4720.6	
720.47	4221.5	
720.65	2770.2	
720.83	3349.1	
721.02	4506.2	
721.2	4434.5	
721.38	3424.9	
721.56	2992.8	
721.74	4121.2	
721.92	4229.1	
722.11	3700	
722.29	3494.5	
722.47	4975.9	
722.65	4438.6	
722.83	3048.1	
723.01	3526.6	
723.2	4464.6	
723.38	4726.7	
723.56	2686.3	
723.74	3351.8	
723.92	4237.9	
724.1	4848.2	
724.29	2950.4	
724.47	3676.8	
724.65	4362.9	
724.83	4178.5	
725.01	2950.4	
725.19	3444	
725.37	4255.7	
725.56	4225	
725.74	2837.8	
725.92	2964.1	
726.1	4227.7	
726.28	4454.3	
726.46	3175	
726.64	3058.3	
726.83	4550.6	
727.01	4588.1	
727.19	2882.2	
727.37	3354.6	
727.55	4530.1	
727.73	4832.5	
727.91	2815.3	
728.09	2754.5	
728.28	4835.9	
728.46	4962.9	
728.64	3336.1	
728.82	3353.2	
729	5416.9	
729.18	4999.8	
729.36	2761.3	
729.54	4240	
729.72	5524.1	
729.91	4457.1	
730.09	4022.9	
730.27	3183.9	
730.45	4433.9	
730.63	4755.4	
730.81	3530.7	
730.99	2924.5	
731.17	5158.2	
731.35	4299.4	
731.53	3266.5	
731.71	3021.4	
731.9	4927.4	
732.08	4965	
732.26	3240.6	
732.44	2947	
732.62	5077.6	
732.8	4767	
732.98	3459.7	
733.16	2925.9	
733.34	4770.4	
733.52	4005.1	
733.7	3181.9	
733.88	3341.6	
734.07	4687.1	
734.25	4555.4	
734.43	2884.9	
734.61	3836.5	
734.79	5442.8	
734.97	4467.3	
735.15	2921.1	
735.33	3144.3	
735.51	4699.4	
735.69	4511.7	
735.87	3863.8	
736.05	3242.6	
736.23	4610	
736.41	4339	
736.59	3189.4	
736.77	3246	
736.95	4833.2	
737.13	4441.4	
737.32	2958.6	
737.5	3078.1	
737.68	5207.3	
737.86	4375.8	
738.04	2897.2	
738.22	4018.8	
738.4	4362.2	
738.58	4598.4	
738.76	3219.4	
738.94	2674	
739.12	4442	
739.3	4362.2	
739.48	3601.7	
739.66	3382.6	
739.84	4554	
740.02	4544.4	
740.2	2732	
740.38	2859	
740.56	4728.8	
740.74	4031.8	
740.92	3336.8	
741.1	3230.3	
741.28	4483	
741.46	4258.4	
741.64	3065.1	
741.82	3416.7	
742	4554.7	
742.18	4438.6	
742.36	3188.7	
742.54	2957.3	
742.72	4948.6	
742.9	4065.2	
743.08	3413.3	
743.26	2709.5	
743.44	4963.6	
743.62	4878.3	
743.8	3550.5	
743.98	2925.9	
744.16	4700.1	
744.34	4481	
744.52	3434.4	
744.7	3456.3	
744.88	4836.6	
745.06	4546.5	
745.24	3472	
745.42	3582.6	
745.6	4909	
745.78	4823.6	
745.96	2832.3	
746.14	3055.6	
746.32	5397.1	
746.5	4840.7	
746.68	3304.7	
746.86	3060.3	
747.03	5090.6	
747.21	4197.7	
747.39	3336.1	
747.57	3057.6	
747.75	4655.7	
747.93	4928.1	
748.11	2975.7	
748.29	2990	
748.47	5739.1	
748.65	4528.1	
748.83	3478.1	
749.01	3284.3	
749.19	4795.7	
749.37	4214.7	
749.55	3286.3	
749.73	3318.4	
749.91	4662.5	
750.09	4539.7	
750.26	3323.2	
750.44	2964.8	
750.62	4658.4	
750.8	4562.9	
750.98	2919	
751.16	3080.1	
751.34	4745.8	
751.52	4293.2	
751.7	3560.1	
751.88	2899.9	
752.06	5048.2	
752.24	4730.8	
752.42	2887.6	
752.59	3095.8	
752.77	4647.5	
752.95	5431.2	
753.13	3566.9	
753.31	3142.9	
753.49	4416.8	
753.67	4678.9	
753.85	3345	
754.03	3093.8	
754.21	4901.5	
754.38	5175.9	
754.56	3227.6	
754.74	2734	
754.92	4519.9	
755.1	4933.6	
755.28	2745	
755.46	2820.1	
755.64	5634.6	
755.82	5677	
755.99	3128.6	
756.17	3182.5	
756.35	4168.3	
756.53	5099.4	
756.71	2568.8	
756.89	3101.3	
757.07	4847.5	
757.25	4304.8	
757.42	3399.6	
757.6	4052.9	
757.78	4905.6	
757.96	4233.8	
758.14	3117.7	
758.32	2879.4	
758.5	3981.9	
758.67	4443.4	
758.85	3039.2	
759.03	3158	
759.21	4601.1	
759.39	4215.4	
759.57	2831	
759.75	3517	
759.92	5107	
760.1	4659.1	
760.28	3784.6	
760.46	3921.9	
760.64	4454.3	
760.82	4302.1	
760.99	3597.6	
761.17	3112.2	
761.35	4911.7	
761.53	4200.4	
761.71	3244.7	
761.89	3558	
762.06	4793.6	
762.24	4469.4	
762.42	3137.5	
762.6	3044	
762.78	4392.2	
762.96	4809.3	
763.13	3394.8	
763.31	3125.2	
763.49	4881.7	
763.67	4354.7	
763.85	3667.9	
764.02	4081.6	
764.2	5122	
764.38	4466.6	
764.56	3122.5	
764.74	3709.6	
764.91	5169.8	
765.09	4395.6	
765.27	2977.1	
765.45	2764.8	
765.63	5254.4	
765.8	5065.3	
765.98	2699.9	
766.16	2881.5	
766.34	4226.3	
766.52	4022.9	
766.69	3464.5	
766.87	2764.1	
767.05	4508.9	
767.23	4981.3	
767.41	2966.8	
767.58	3134.1	
767.76	4843.4	
767.94	4888.5	
768.12	3064.4	
768.29	3467.2	
768.47	4472.1	
768.65	5012.7	
768.83	2841.2	
769	3514.3	
769.18	4287.8	
769.36	4758.1	
769.54	3517.7	
769.72	2855.6	
769.89	4965.6	
770.07	4954	
770.25	3096.5	
770.43	3926.6	
770.6	5454.4	
770.78	5731.6	
770.96	3220.1	
771.14	3563.5	
771.31	4880.3	
771.49	4478.9	
771.67	2738.8	
771.85	2868.5	
772.02	4015.4	
772.2	4487.8	
772.38	3409.9	
772.55	2991.4	
772.73	4706.9	
772.91	4513	
773.09	3222.1	
773.26	3360	
773.44	4705.5	
773.62	4476.9	
773.8	2998.9	
773.97	2838.5	
774.15	4742.4	
774.33	4503.5	
774.5	2918.4	
774.68	3110.9	
774.86	4799.1	
775.04	4515.8	
775.21	2904.7	
775.39	2923.8	
775.57	4693.9	
775.74	4863.2	
775.92	2850.1	
776.1	2725.2	
776.27	4615.4	
776.45	5514.5	
776.63	2979.8	
776.81	2781.1	
776.98	4509.6	
777.16	5141.8	
777.34	3096.5	
777.51	3305.4	
777.69	4463.9	
777.87	4261.1	
778.04	3192.1	
778.22	3474.7	
778.4	4325.3	
778.57	4807.3	
778.75	2669.2	
778.93	2874	
779.1	4261.1	
779.28	4138.9	
779.46	2676	
779.64	2917.7	
779.81	4959.5	
779.99	5418.2	
780.17	3437.9	
780.34	3510.2	
780.52	4562.2	
780.69	4662.5	
780.87	3165.5	
781.05	2936.8	
781.22	4618.9	
781.4	4615.4	
781.58	3024.8	
781.75	2482.1	
781.93	4670.1	
782.11	4175.8	
782.28	3642	
782.46	3045.3	
782.64	4119.8	
782.81	4761.5	
782.99	3102.7	
783.17	3104.7	
783.34	4645.5	
783.52	4251.6	
783.69	3155.2	
783.87	3788.7	
784.05	4276.8	
784.22	4272.1	
784.4	3824.9	
784.58	3291.1	
784.75	4982.7	
784.93	4340.3	
785.1	3005.1	
785.28	3473.4	
785.46	4723.3	
785.63	4210.6	
785.81	3080.8	
785.99	2917	
786.16	4431.8	
786.34	4601.1	
786.51	2989.4	
786.69	3246	
786.87	4083.6	
787.04	4412.7	
787.22	2952.5	
787.39	3541.6	
787.57	4283.7	
787.75	4969.7	
787.92	3730	
788.1	3575.8	
788.27	4241.3	
788.45	4009.2	
788.63	3436.5	
788.8	2570.2	
788.98	4676.9	
789.15	3973.7	
789.33	2706	
789.5	3047.4	
789.68	4876.2	
789.86	4962.2	
790.03	3363.4	
790.21	2983.9	
790.38	4934.9	
790.56	4349.9	
790.73	2923.8	
790.91	2910.8	
791.09	4257.7	
791.26	4745.8	
791.44	3117.7	
791.61	2734	
791.79	4283	
791.96	4268.6	
792.14	2803	
792.32	2529.2	
792.49	4257.7	
792.67	4339.6	
792.84	2875.3	
793.02	2670.6	
793.19	4605.2	
793.37	5063.3	
793.54	2567.5	
793.72	2779.1	
793.89	5074.2	
794.07	4215.4	
794.25	3191.4	
794.42	2587.3	
794.6	4978.6	
794.77	4700.1	
794.95	3309.5	
795.12	2939.5	
795.3	4349.9	
795.47	4641.4	
795.65	3231	
795.82	3091.8	
796	4140.3	
796.17	5352.7	
796.35	3050.8	
796.52	3597.6	
796.7	4668.7	
796.87	4744.5	
797.05	3061	
797.22	3608.5	
797.4	4688.5	
797.57	5359.5	
797.75	3142.9	
797.92	2936.1	
798.1	4954.7	
798.27	4158.1	
798.45	2647.3	
798.62	2796.8	
798.8	4513.7	
798.97	4803.9	
799.15	3223.5	
799.32	3167.5	
799.5	4017.4	
799.67	4474.8	
799.85	3405.8	
800.02	2556.5	
800.2	4267.3	
800.37	4440	
800.55	3459	
800.72	2999.6	
800.9	4762.9	
801.07	5091.3	
801.25	3861.1	
801.42	3252.2	
801.6	4857.1	
801.77	4495.3	
801.95	3061	
802.12	2883.5	
802.29	4625.7	
802.47	4472.8	
802.64	3235.8	
802.82	2536.1	
802.99	4228.4	
803.17	4845.5	
803.34	3170.3	
803.52	2864.4	
803.69	5364.3	
803.87	4093.9	
804.04	3106.8	
804.21	3194.8	
804.39	5014.8	
804.56	4426.3	
804.74	2760.7	
804.91	3258.3	
805.09	4308.9	
805.26	4319.8	
805.44	2764.8	
805.61	2964.8	
805.78	4795.7	
805.96	4719.9	
806.13	3178.4	
806.31	3429	
806.48	3945.8	
806.66	4259.8	
806.83	3297.2	
807	3158.7	
807.18	4298.7	
807.35	4569.7	
807.53	3016.7	
807.7	2667.1	
807.87	5042.8	
808.05	4256.4	
808.22	3433.1	
808.4	2622.8	
808.57	4228.4	
808.74	4001	
808.92	2947	
809.09	3592.1	
809.27	4298	
809.44	4595.6	
809.61	2671.2	
809.79	2862.4	
809.96	5245.5	
810.14	4781.3	
810.31	2609.1	
810.48	3072	
810.66	4349.9	
810.83	4819.6	
811.01	2983.9	
811.18	3255.6	
811.35	4857.8	
811.53	3906.8	
811.7	3483.6	
811.87	3312.2	
812.05	4391.5	
812.22	4270.7	
812.39	2880.1	
812.57	2753.2	
812.74	4369.7	
812.92	5434.6	
813.09	3122.5	
813.26	3241.3	
813.44	5250.3	
813.61	4177.2	
813.78	2617.3	
813.96	3389.4	
814.13	4370.4	
814.3	4128.7	
814.48	3632.4	
814.65	2992.8	
814.82	5041.4	
815	4067.3	
815.17	3140.9	
815.34	3762.1	
815.52	4254.3	
815.69	4235.2	
815.87	3013.9	
816.04	3063.1	
816.21	4313.7	
816.38	3908.9	
816.56	3058.3	
816.73	2908.1	
816.9	5261.2	
817.08	4773.8	
817.25	2908.8	
817.42	3461.7	
817.6	4033.8	
817.77	4257	
817.94	3176.4	
818.12	2820.7	
818.29	4175.1	
818.46	5872.9	
818.64	2993.4	
818.81	2755.2	
818.98	4147.1	
819.16	5543.2	
819.33	3348.4	
819.5	3157.3	
819.67	4554.7	
819.85	4967	
820.02	3142.3	
820.19	3258.3	
820.37	4472.8	
820.54	4196.3	
820.71	3171.6	
820.88	3833.8	
821.06	4450.9	
821.23	4132.1	
821.4	3160	
821.58	3126.6	
821.75	4835.9	
821.92	4384.7	
822.09	2648	
822.27	2791.4	
822.44	4273.4	
822.61	4245.4	
822.79	2690.3	
822.96	4775.2	
823.13	4545.8	
823.3	4046.8	
823.48	2996.9	
823.65	2781.8	
823.82	4891.2	
823.99	4024.3	
824.17	3708.2	
824.34	2812.5	
824.51	5416.2	
824.68	4351.9	
824.86	2896.5	
825.03	3166.8	
825.2	4356.7	
825.37	5055.8	
825.55	2888.3	
825.72	3138.9	
825.89	5424.4	
826.06	5070.8	
826.24	3032.4	
826.41	3091.1	
826.58	5106.3	
826.75	4499.4	
826.92	2543.6	
827.1	2740.9	
827.27	6522.8	
827.44	5393.7	
827.61	2965.5	
827.79	3431.7	
827.96	4186.7	
828.13	4314.4	
828.3	3099.3	
828.47	2612.5	
828.65	4578.6	
828.82	4528.7	
828.99	3709.6	
829.16	3295.9	
829.34	4876.9	
829.51	4680.3	
829.68	3106.1	
829.85	3210.5	
830.02	5059.8	
830.2	4816.1	
830.37	2527.2	
830.54	3629	
830.71	5332.9	
830.88	4339.6	
831.05	2488.3	
831.23	2852.1	
831.4	5236.7	
831.57	5607.3	
831.74	2955.2	
831.91	2603.7	
832.09	4631.8	
832.26	4828.4	
832.43	2943.6	
832.6	3358	
832.77	4549.9	
832.94	5114.5	
833.12	2504.7	
833.29	2968.9	
833.46	4669.4	
833.63	5805.3	
833.8	3241.3	
833.97	3009.1	
834.15	4905.6	
834.32	4668	
834.49	3106.8	
834.66	3211.2	
834.83	4901.5	
835	4173.1	
835.17	2926.5	
835.35	2941.6	
835.52	4773.1	
835.69	4621.6	
835.86	3025.5	
836.03	2517.6	
836.2	4777.9	
836.37	4539.7	
836.55	2966.1	
836.72	2822.1	
836.89	4500.8	
837.06	4922.6	
837.23	3018.7	
837.4	3244.7	
837.57	5368.4	
837.75	5812.1	
837.92	2777.7	
838.09	2848	
838.26	4549.9	
838.43	4968.4	
838.6	3125.9	
838.77	2876	
838.94	5528.8	
839.11	5330.2	
839.29	3022.8	
839.46	2439.8	
839.63	4830.5	
839.8	4571.1	
839.97	2923.8	
840.14	2915.6	
840.31	4727.4	
840.48	4811.4	
840.65	2536.1	
840.82	2822.8	
841	4810	
841.17	4659.1	
841.34	2720.4	
841.51	2782.5	
841.68	4803.9	
841.85	4556	
842.02	2791.4	
842.19	2401.6	
842.36	4650.9	
842.53	4620.2	
842.7	2699.9	
842.87	3235.1	
843.05	5786.2	
843.22	4558.1	
843.39	2603	
843.56	2807.8	
843.73	4471.4	
843.9	4911	
844.07	4198.3	
844.24	3508.9	
844.41	6410.8	
844.58	4296	
844.75	2633.7	
844.92	2888.3	
845.09	4754	
845.26	4778.6	
845.43	2707.4	
845.6	2843.3	
845.77	4803.9	
845.94	4579.3	
846.12	2968.2	
846.29	3084.2	
846.46	4937.7	
846.63	4742.4	
846.8	2706.7	
846.97	3205.1	
847.14	5130.8	
847.31	4773.1	
847.48	2975	
847.65	3208.5	
847.82	4902.8	
847.99	4890.5	
848.16	3478.1	
848.33	3224.9	
848.5	4491.9	
848.67	5109.7	
848.84	2639.8	
849.01	2743.6	
849.18	4437.3	
849.35	4205.2	
849.52	3281.5	
849.69	2667.1	
849.86	4977.2	
850.03	5000.5	
850.2	2678.1	
850.37	3222.8	
850.54	5027.1	
850.71	4545.1	
850.88	3155.9	
851.05	2660.3	
851.22	4662.5	
851.39	5110.4	
851.56	2566.1	
851.73	3061	
851.9	4284.4	
852.07	4915.1	
852.24	2949.1	
852.41	2669.2	
852.58	4739.7	
852.75	4326.7	
852.92	2961.4	
853.09	2682.8	
853.26	4457.7	
853.43	5050.3	
853.6	2693.8	
853.77	2312.8	
853.94	5121.3	
854.11	4256.4	
854.28	3785.3	
854.44	2917	
854.61	5449	
854.78	4944.5	
854.95	2684.2	
855.12	3226.9	
855.29	3978.5	
855.46	5246.9	
855.63	2703.3	
855.8	3651.5	
855.97	4402.5	
856.14	5016.8	
856.31	3637.2	
856.48	2921.8	
856.65	4532.8	
856.82	4239.3	
856.99	2634.4	
857.16	2872.6	
857.33	5611.4	
857.49	4549.2	
857.66	2840.5	
857.83	3054.9	
858	4548.5	
858.17	4743.8	
858.34	2580.4	
858.51	2688.3	
858.68	5100.8	
858.85	5150.6	
859.02	3082.9	
859.19	3226.9	
859.36	4330.1	
859.52	4302.1	
859.69	2734.7	
859.86	3118.4	
860.03	4336.9	
860.2	5163.6	
860.37	2528.6	
860.54	2723.8	
860.71	4940.4	
860.88	5212.1	
861.05	3011.2	
861.21	3317.7	
861.38	5167	
861.55	4175.1	
861.72	2462.3	
861.89	2973.7	
862.06	4945.2	
862.23	5279	
862.4	2628.2	
862.56	2738.8	
862.73	4810.7	
862.9	4644.1	
863.07	3069.9	
863.24	2468.5	
863.41	4237.2	
863.58	4323.3	
863.75	2731.3	
863.91	3106.1	
864.08	5073.5	
864.25	4858.5	
864.42	3274	
864.59	3639.2	
864.76	5387.5	
864.93	4221.5	
865.09	2635.1	
865.26	2806.4	
865.43	5074.2	
865.6	5358.9	
865.77	2430.3	
865.94	2692.4	
866.1	5048.2	
866.27	4874.2	
866.44	3833.8	
866.61	2620	
866.78	4587.4	
866.95	4845.5	
867.11	2601.6	
867.28	2431.6	
867.45	5035.3	
867.62	4261.1	
867.79	3089.7	
867.96	2694.4	
868.12	4265.9	
868.29	4928.1	
868.46	2704.7	
868.63	3497.2	
868.8	5046.9	
868.97	4863.2	
869.13	2777	
869.3	2826.2	
869.47	4756.7	
869.64	4955.4	
869.81	2693.1	
869.97	2733.4	
870.14	4698.7	
870.31	5217.5	
870.48	2643.9	
870.65	3368.2	
870.81	4552	
870.98	4575.8	
871.15	3038.5	
871.32	2760.7	
871.48	4854.4	
871.65	5259.2	
871.82	2672.6	
871.99	2973.7	
872.16	5512.4	
872.32	5108.3	
872.49	2770.9	
872.66	2710.8	
872.83	4990.9	
872.99	4388.8	
873.16	3017.3	
873.33	2718.3	
873.5	4600.4	
873.67	4642.1	
873.83	2862.4	
874	3477.5	
874.17	4801.8	
874.34	5416.9	
874.5	3439.9	
874.67	3269.9	
874.84	5119.2	
875.01	4138.3	
875.17	3643.3	
875.34	2658.9	
875.51	4734.2	
875.68	5548.6	
875.84	3170.3	
876.01	3775.8	
876.18	4939	
876.34	4872.8	
876.51	2709.5	
876.68	2668.5	
876.85	4523.3	
877.01	5102.9	
877.18	3682.9	
877.35	2673.3	
877.52	4773.8	
877.68	4234.5	
877.85	2676.7	
878.02	2691	
878.18	4515.8	
878.35	4429.8	
878.52	2198.8	
878.69	3162.1	
878.85	4979.3	
879.02	4829.8	
879.19	3734.8	
879.35	2878.1	
879.52	4910.3	
879.69	4950.6	
879.86	2427.5	
880.02	3023.5	
880.19	4612.7	
880.36	5451	
880.52	3072.6	
880.69	3078.1	
880.86	4979.3	
881.02	4994.3	
881.19	2923.1	
881.36	2907.4	
881.52	4836.6	
881.69	4356	
881.86	2914.3	
882.02	2849.4	
882.19	5053.7	
882.36	5775.3	
882.52	2775	
882.69	3614.7	
882.86	4788.2	
883.02	4705.5	
883.19	3190.1	
883.36	3016	
883.52	4932.9	
883.69	5522	
883.86	2748.4	
884.02	2478	
884.19	4943.8	
884.36	4616.8	
884.52	2959.3	
884.69	2857.6	
884.86	4452.3	
885.02	5263.3	
885.19	2976.4	
885.36	3026.2	
885.52	4587.4	
885.69	4746.5	
885.86	3799.7	
886.02	3298.6	
886.19	4919.2	
886.35	4495.3	
886.52	2933.4	
886.69	3641.3	
886.85	4265.2	
887.02	5153.4	
887.19	5153.4	
887.35	5153.4	
887.52	5153.4	
887.68	5153.4	
887.85	5153.4	
888.02	5153.4	
888.18	5153.4	
888.35	5153.4	
888.51	5153.4	
888.68	5153.4	
888.85	5153.4	
889.01	5153.4	
889.18	5153.4	
889.35	5153.4	
889.51	5153.4	
889.68	5153.4	
889.84	5153.4	
890.01	5153.4	
890.17	5153.4	
890.34	5153.4	
890.51	5153.4	
890.67	5153.4	
890.84	5153.4	
891	5153.4	
891.17	5153.4	
891.34	5153.4	
891.5	5153.4	
891.67	5153.4	
891.83	5153.4	
892	5153.4	
892.16	5153.4	
892.33	5153.4	
892.5	5153.4	
892.66	5153.4	
892.83	5153.4	
892.99	5153.4	
893.16	5153.4	
893.32	5153.4	
893.49	5153.4	
893.65	5153.4	
893.82	5153.4	
893.99	5153.4	
894.15	5153.4	
894.32	5153.4	
894.48	5153.4	
894.65	5153.4	
894.81	5153.4	
894.98	5153.4	
895.14	5153.4	
895.31	5153.4	
895.47	5153.4	
895.64	5153.4	
895.81	5153.4	
895.97	5153.4	
896.14	5153.4	
896.3	5153.4	
896.47	5153.4	
896.63	5153.4	
896.8	5153.4	
896.96	5153.4	
897.13	5153.4	
897.29	5153.4	
897.46	5153.4	
897.62	5153.4	
897.79	5153.4	
897.95	5153.4	
898.12	5153.4	
898.28	5153.4	
898.45	5153.4	
898.61	5153.4	
898.78	5153.4	
898.94	5153.4	
899.11	5153.4	
899.27	5153.4	
899.44	5153.4	
899.6	5153.4	
899.77	5153.4	
899.93	5153.4	
900.1	5153.4	
900.26	5153.4	
900.43	5153.4	
900.59	5153.4	
900.76	5153.4	
900.92	5153.4	
901.09	5153.4	
901.25	5153.4	
901.42	5153.4	
901.58	5153.4	
901.75	5153.4	
901.91	5153.4	
902.07	5153.4	
902.24	5153.4	
902.4	5153.4	
902.57	5153.4	
902.73	5153.4	
902.9	5153.4	
903.06	5153.4	
903.23	5153.4	
903.39	5153.4	
903.56	5153.4	
903.72	5153.4	
903.88	5153.4	
904.05	5153.4	
904.21	5153.4	
904.38	5153.4	
904.54	5153.4	
904.71	5153.4	
904.87	5153.4	
905.03	5153.4	
905.2	5153.4	
905.36	5153.4	
905.53	5153.4	
905.69	5153.4	
905.86	5153.4	
906.02	5153.4	
906.18	5153.4	
906.35	5153.4	
906.51	5153.4	
906.68	5153.4	
906.84	5153.4	
907.01	5153.4	
907.17	5153.4	
907.33	5153.4	
907.5	5153.4	
907.66	5153.4	
907.83	5153.4	
907.99	5153.4	
908.15	5153.4	
908.32	5153.4	
908.48	5153.4	
908.65	5153.4	
908.81	5153.4	
908.97	5153.4	
909.14	5153.4	
909.3	5153.4	
909.47	5153.4	
909.63	5153.4	
909.79	5153.4	
909.96	5153.4	
910.12	5153.4	
910.28	5153.4	
910.45	5153.4	
910.61	5153.4	
910.78	5153.4	
910.94	5153.4	
911.1	5153.4	
911.27	5153.4	
911.43	5153.4	
911.59	5153.4	
911.76	5153.4	
911.92	5153.4	
912.08	5153.4	
912.25	5153.4	
912.41	5153.4	
912.57	5153.4	
912.74	5153.4	
912.9	5153.4	
913.07	5153.4	
913.23	5153.4	
913.39	5153.4	
913.56	5153.4	
913.72	5153.4	
913.88	5153.4	
914.05	5153.4	
914.21	5153.4	
914.37	5153.4	
914.54	5153.4	
914.7	5153.4	
914.86	5153.4	
915.03	5153.4	
915.19	5153.4	
