Wavelength	Intensities	
nm	a.u.	
179.22	1759.5	
179.44	1767.4	
179.65	1751.7	
179.86	1783.1	
180.08	1741.5	
180.29	4197.7	
180.51	3080.8	
180.72	5223.7	
180.94	5777.3	
181.15	2828.9	
181.37	2820.1	
181.58	5020.9	
181.79	5212.1	
182.01	2978.4	
182.22	3143.6	
182.44	5252.4	
182.65	4457.7	
182.87	3852.2	
183.08	3432.4	
183.29	5509.7	
183.51	4552	
183.72	3123.8	
183.94	4484.4	
184.15	4906.9	
184.37	4868	
184.58	2816.6	
184.79	3736.9	
185.01	4554	
185.22	5243.5	
185.44	3886.4	
185.65	3368.2	
185.86	4874.2	
186.08	4491.9	
186.29	2779.1	
186.51	2878.8	
186.72	4631.8	
186.94	5302.9	
187.15	3364.8	
187.36	3461.1	
187.58	6692.8	
187.79	4949.3	
188.01	3516.4	
188.22	5398.4	
188.43	5860.6	
188.65	5156.8	
188.86	2951.8	
189.08	3472	
189.29	4737.6	
189.5	4745.1	
189.72	3158	
189.93	3237.8	
190.15	5380.7	
190.36	6254.5	
190.57	3404.4	
190.79	3411.9	
191	5314.5	
191.22	5376.6	
191.43	3505.4	
191.64	2993.4	
191.86	5576.6	
192.07	5421	
192.29	3046.7	
192.5	3153.2	
192.71	5350	
192.93	4715.1	
193.14	3186	
193.35	3263.8	
193.57	4731.5	
193.78	5382.1	
194	2625.5	
194.21	3148.4	
194.42	4545.1	
194.64	4891.9	
194.85	3426.3	
195.07	3945.1	
195.28	4917.2	
195.49	4324.6	
195.71	4149.9	
195.92	3022.8	
196.13	5076.9	
196.35	5098.1	
196.56	4429.1	
196.78	3455.6	
196.99	6221.7	
197.2	5818.3	
197.42	3872	
197.63	3439.2	
197.84	4478.9	
198.06	5053.7	
198.27	3211.2	
198.48	4157.4	
198.7	4691.2	
198.91	4893.3	
199.13	3515.7	
199.34	3480.2	
199.55	5328.8	
199.77	4269.3	
199.98	3127.9	
200.19	3562.1	
200.41	4855.7	
200.62	4614.8	
200.83	3607.8	
201.05	3846.8	
201.26	4831.2	
201.47	4657.8	
201.69	3094.5	
201.9	2997.5	
202.11	4923.3	
202.33	5720.7	
202.54	3282.9	
202.76	3689.1	
202.97	4962.2	
203.18	5021.6	
203.4	3562.1	
203.61	3608.5	
203.82	4965.6	
204.04	4646.8	
204.25	3519.8	
204.46	3416.7	
204.68	4894.6	
204.89	5090.6	
205.1	3396.2	
205.32	3005.1	
205.53	5218.9	
205.74	5332.9	
205.96	2570.2	
206.17	3556.6	
206.38	5193	
206.6	5312.4	
206.81	3936.9	
207.02	3318.4	
207.24	5067.4	
207.45	5433.9	
207.66	3319.8	
207.88	2900.6	
208.09	5025	
208.3	4872.8	
208.52	3083.6	
208.73	3401	
208.94	4863.9	
209.15	5474.9	
209.37	3332	
209.58	3780.6	
209.79	5304.9	
210.01	4722.6	
210.22	2710.1	
210.43	2836.4	
210.65	4911.7	
210.86	5225.7	
211.07	3316.3	
211.29	3096.5	
211.5	5143.8	
211.71	4909	
211.93	3073.3	
212.14	3100.6	
212.35	4888.5	
212.56	4982	
212.78	3452.9	
212.99	2943.6	
213.2	5678.3	
213.42	4742.4	
213.63	3134.1	
213.84	3339.6	
214.06	4449.6	
214.27	4483.7	
214.48	3310.9	
214.69	3508.2	
214.91	5455.1	
215.12	5516.5	
215.33	3500	
215.55	3852.9	
215.76	5908.4	
215.97	5180	
216.18	3407.1	
216.4	3358.7	
216.61	4632.5	
216.82	5283.1	
217.04	3085.6	
217.25	3168.2	
217.46	5392.3	
217.67	5240.1	
217.89	2813.2	
218.1	2912.9	
218.31	4984.1	
218.53	5066	
218.74	3253.5	
218.95	3133.4	
219.16	4857.1	
219.38	5573.2	
219.59	3132.7	
219.8	3737.5	
220.01	6122.7	
220.23	4903.5	
220.44	3997	
220.65	3032.4	
220.87	4943.1	
221.08	5437.4	
221.29	2931.3	
221.5	3765.5	
221.72	6500.3	
221.93	4646.2	
222.14	3493.2	
222.35	4030.4	
222.57	4984.8	
222.78	5276.9	
222.99	3329.3	
223.2	3538.2	
223.42	5119.9	
223.63	5281	
223.84	2581.1	
224.05	2645.3	
224.27	6128.9	
224.48	5616.2	
224.69	4088.4	
224.9	3493.2	
225.12	5068.7	
225.33	4848.2	
225.54	2829.6	
225.75	3153.2	
225.97	4601.1	
226.18	4844.1	
226.39	3290.4	
226.6	3149.1	
226.82	4679.6	
227.03	4580.6	
227.24	3485.6	
227.45	2965.5	
227.67	5251.7	
227.88	5585.5	
228.09	3839.9	
228.3	3852.9	
228.52	5212.1	
228.73	4816.1	
228.94	3229	
229.15	2917.7	
229.36	4892.6	
229.58	4810.7	
229.79	3311.6	
230	3807.2	
230.21	5797.1	
230.43	4980.7	
230.64	3426.3	
230.85	3581.9	
231.06	5347.2	
231.28	5300.8	
231.49	2955.2	
231.7	3377.1	
231.91	5136.3	
232.12	4880.3	
232.34	3017.3	
232.55	3355.9	
232.76	5412.1	
232.97	4990.2	
233.18	3109.5	
233.4	3457.7	
233.61	5085.1	
233.82	4673.5	
234.03	3235.1	
234.25	3207.8	
234.46	6570.6	
234.67	4894	
234.88	3528.7	
235.09	3185.3	
235.31	5135.6	
235.52	4812.7	
235.73	3450.8	
235.94	3002.3	
236.15	4701.5	
236.37	5772.5	
236.58	3138.2	
236.79	3324.5	
237	5154.1	
237.21	4449.6	
237.43	3641.3	
237.64	2845.3	
237.85	8303.1	
238.06	4558.1	
238.27	3579.2	
238.48	2959.3	
238.7	5186.8	
238.91	4843.4	
239.12	3318.4	
239.33	3362.8	
239.54	4605.2	
239.76	4816.8	
239.97	3366.2	
240.18	3324.5	
240.39	5993	
240.6	5043.5	
240.82	3497.2	
241.03	2906.1	
241.24	4915.8	
241.45	5580.7	
241.66	3053.5	
241.87	3575.8	
242.09	5510.4	
242.3	5770.5	
242.51	3655.6	
242.72	3371	
242.93	5210	
243.14	4831.2	
243.36	3831.7	
243.57	4134.2	
243.78	5563.6	
243.99	5073.5	
244.2	3319.1	
244.41	3108.1	
244.63	4516.5	
244.84	5122.7	
245.05	3620.8	
245.26	3338.2	
245.47	5149.3	
245.68	5318.6	
245.9	4321.9	
246.11	3548.4	
246.32	4724.7	
246.53	5122	
246.74	5295.4	
246.95	2893.1	
247.16	4541.7	
247.38	4939	
247.59	2857.6	
247.8	3394.8	
248.01	4605.2	
248.22	4788.2	
248.43	3099.3	
248.64	3282.9	
248.86	4455.7	
249.07	4701.5	
249.28	3035.1	
249.49	3461.1	
249.7	5372.5	
249.91	5361.6	
250.12	2814.6	
250.34	2877.4	
250.55	5014.1	
250.76	4932.9	
250.97	3475.4	
251.18	3476.8	
251.39	5447.6	
251.6	5029.1	
251.81	3519.1	
252.03	3512.3	
252.24	4741	
252.45	5297.4	
252.66	2879.4	
252.87	3627	
253.08	4921.3	
253.29	6240.8	
253.5	2989.4	
253.72	4039.3	
253.93	4807.9	
254.14	5714.5	
254.35	3190.1	
254.56	3300.6	
254.77	5101.5	
254.98	4534.2	
255.19	3181.9	
255.41	3994.9	
255.62	5001.1	
255.83	5405.3	
256.04	3553.9	
256.25	3439.2	
256.46	5893.4	
256.67	4698.7	
256.88	3461.7	
257.09	3792.8	
257.31	4581.3	
257.52	4581.3	
257.73	4292.5	
257.94	3160	
258.15	4896.7	
258.36	4884.4	
258.57	3932.8	
258.78	2576.3	
258.99	5274.2	
259.2	4750.6	
259.41	3216	
259.63	3289	
259.84	5623	
260.05	5907.7	
260.26	4118.5	
260.47	3134.8	
260.68	5353.4	
260.89	4810	
261.1	3774.4	
261.31	3060.3	
261.52	5427.8	
261.73	5694.7	
261.95	4126	
262.16	3560.1	
262.37	5428.5	
262.58	5528.2	
262.79	4057.7	
263	3232.4	
263.21	4939	
263.42	4743.1	
263.63	3347.1	
263.84	3234.4	
264.05	5330.2	
264.26	5658.5	
264.47	3932.8	
264.69	3538.2	
264.9	5549.3	
265.11	5042.1	
265.32	3117	
265.53	3144.3	
265.74	5018.9	
265.95	4405.2	
266.16	3375.1	
266.37	3720.5	
266.58	5027.1	
266.79	4696.7	
267	3220.8	
267.21	2933.4	
267.42	4581.3	
267.63	4867.3	
267.84	3375.7	
268.06	2899.2	
268.27	5313.1	
268.48	5418.9	
268.69	3297.2	
268.9	3814.7	
269.11	5465.3	
269.32	4477.5	
269.53	3354.6	
269.74	3099.9	
269.95	5052.3	
270.16	4388.1	
270.37	3401.7	
270.58	3843.4	
270.79	4790.2	
271	5304.2	
271.21	3538.9	
271.42	3401.7	
271.63	4989.5	
271.84	4571.1	
272.05	2709.5	
272.26	3057.6	
272.47	4958.8	
272.68	5029.1	
272.89	3240.6	
273.11	3637.2	
273.32	4710.3	
273.53	5625.8	
273.74	3563.5	
273.95	3518.4	
274.16	5343.8	
274.37	4942.4	
274.58	3698.6	
274.79	2998.2	
275	4979.3	
275.21	5447.6	
275.42	4346.5	
275.63	3708.9	
275.84	5150	
276.05	6264.7	
276.26	3478.8	
276.47	3291.8	
276.68	4805.9	
276.89	5767.8	
277.1	3761.4	
277.31	2966.8	
277.52	5067.4	
277.73	5311.7	
277.94	2898.6	
278.15	3285.6	
278.36	5044.1	
278.57	4645.5	
278.78	3257	
278.99	3575.8	
279.2	4687.1	
279.41	4579.3	
279.62	4151.9	
279.83	3034.4	
280.04	5889.3	
280.25	4491.9	
280.46	4092.5	
280.67	3415.3	
280.88	4616.8	
281.09	5450.3	
281.3	3501.3	
281.51	4329.4	
281.72	5337.7	
281.93	5300.1	
282.14	3148.4	
282.35	3403	
282.56	5360.2	
282.77	5259.9	
282.98	3277.4	
283.19	3921.2	
283.4	6337.8	
283.61	4866	
283.82	3030.3	
284.03	4083	
284.24	5025	
284.45	5418.2	
284.66	4110.3	
284.87	3936.9	
285.08	5364.3	
285.29	5500.2	
285.5	2896.5	
285.71	3297.2	
285.92	5393.7	
286.12	5948.7	
286.33	4012.7	
286.54	3276.8	
286.75	5322	
286.96	4775.9	
287.17	3012.6	
287.38	3981.9	
287.59	4621.6	
287.8	4607.2	
288.01	3313.6	
288.22	3698.6	
288.43	5242.1	
288.64	4451.6	
288.85	3861.1	
289.06	3634.5	
289.27	5285.8	
289.48	5684.5	
289.69	4126	
289.9	3728.7	
290.11	5427.8	
290.32	4717.8	
290.53	3933.5	
290.74	3537.5	
290.94	5251.7	
291.15	5298.8	
291.36	3235.8	
291.57	3734.8	
291.78	4730.8	
291.99	4487.8	
292.2	3087.7	
292.41	3599.6	
292.62	5356.8	
292.83	5180	
293.04	4403.1	
293.25	3095.8	
293.46	4752.7	
293.67	5309	
293.88	3151.8	
294.09	3037.8	
294.29	4566.3	
294.5	5026.4	
294.71	3414.6	
294.92	3229	
295.13	4756.1	
295.34	5823.1	
295.55	2887	
295.76	2843.3	
295.97	5273.5	
296.18	5823.7	
296.39	2983.9	
296.6	3125.9	
296.81	4967	
297.01	5233.9	
297.22	3261	
297.43	3210.5	
297.64	4680.3	
297.85	4621.6	
298.06	2664.4	
298.27	2899.9	
298.48	4892.6	
298.69	4698.7	
298.9	3382.6	
299.11	3078.1	
299.31	4492.6	
299.52	4529.4	
299.73	3639.9	
299.94	3571.7	
300.15	4952.7	
300.36	4636.6	
300.57	3587.4	
300.78	3560.7	
300.99	4810.7	
301.2	4956.8	
301.4	3156.6	
301.61	3416	
301.82	5160.9	
302.03	5225.1	
302.24	3799.7	
302.45	3053.5	
302.66	5162.2	
302.87	5436.7	
303.08	3187.3	
303.29	4215.4	
303.49	4730.1	
303.7	4879.6	
303.91	2841.2	
304.12	4038.6	
304.33	4485.7	
304.54	5048.2	
304.75	3162.1	
304.96	3044.6	
305.16	5228.5	
305.37	5741.8	
305.58	2770.2	
305.79	2913.6	
306	5171.1	
306.21	4453.6	
306.42	3164.8	
306.63	4683.7	
306.83	4808.6	
307.04	5335.6	
307.25	3467.9	
307.46	3395.5	
307.67	4336.2	
307.88	5201.2	
308.09	3119.7	
308.29	3205.8	
308.5	5016.8	
308.71	5386.8	
308.92	3393.5	
309.13	3018	
309.34	4844.1	
309.55	4790.9	
309.75	3884.3	
309.96	3596.9	
310.17	5266	
310.38	4635.9	
310.59	3728	
310.8	3032.4	
311.01	4782	
311.21	4827.7	
311.42	3093.8	
311.63	3079.5	
311.84	4730.8	
312.05	4992.9	
312.26	3465.8	
312.46	3766.2	
312.67	4794.3	
312.88	4498	
313.09	3122.5	
313.3	2966.1	
313.51	5588.2	
313.71	5821	
313.92	3072	
314.13	3186	
314.34	5068.7	
314.55	4825	
314.76	3856.3	
314.96	3411.2	
315.17	5024.3	
315.38	5197.1	
315.59	3110.9	
315.8	2962.7	
316.01	5586.9	
316.21	5646.2	
316.42	2998.2	
316.63	3373.7	
316.84	4873.5	
317.05	5421	
317.26	3506.8	
317.46	3295.9	
317.67	4885.8	
317.88	5215.5	
318.09	3834.5	
318.3	2846.7	
318.5	4737	
318.71	5100.8	
318.92	4770.4	
319.13	3588	
319.34	5307.7	
319.54	5394.3	
319.75	2855.6	
319.96	2747	
320.17	5177.3	
320.38	5348.6	
320.58	2822.1	
320.79	3353.9	
321	5430.5	
321.21	5518.6	
321.42	3383.2	
321.62	2805	
321.83	4640.7	
322.04	4956.1	
322.25	3259	
322.46	3063.1	
322.66	4964.3	
322.87	5139.7	
323.08	3721.2	
323.29	3013.9	
323.5	5689.9	
323.7	4554.7	
323.91	4097.3	
324.12	3729.4	
324.33	5029.8	
324.53	5199.8	
324.74	3520.5	
324.95	3700	
325.16	4444.1	
325.37	4767	
325.57	3048.1	
325.78	3090.4	
325.99	5001.8	
326.2	4460.5	
326.4	4346.5	
326.61	2876	
326.82	4832.5	
327.03	4945.8	
327.24	4273.4	
327.44	4027.7	
327.65	5146.5	
327.86	4224.3	
328.07	3523.2	
328.27	2977.1	
328.48	5453.1	
328.69	4560.8	
328.9	4379.9	
329.1	3219.4	
329.31	4859.8	
329.52	5563.6	
329.73	3087.7	
329.93	3417.4	
330.14	4931.5	
330.35	5102.9	
330.56	4876.9	
330.76	3740.3	
330.97	4782	
331.18	5006.6	
331.39	3403.7	
331.59	2821.4	
331.8	5339.7	
332.01	5434.6	
332.22	3181.2	
332.42	3541.6	
332.63	5015.5	
332.84	4650.3	
333.05	3442.6	
333.25	3138.9	
333.46	4726	
333.67	4921.3	
333.88	3211.9	
334.08	3508.9	
334.29	6356.2	
334.5	5385.5	
334.7	3021.4	
334.91	4244.1	
335.12	4556	
335.33	5203.2	
335.53	3369.6	
335.74	4790.2	
335.95	4758.1	
336.16	4566.3	
336.36	3412.6	
336.57	3832.4	
336.78	4507.6	
336.98	5423	
337.19	4169	
337.4	3350.5	
337.61	5883.8	
337.81	4530.1	
338.02	3166.2	
338.23	3964.9	
338.43	5535.7	
338.64	4658.4	
338.85	3135.4	
339.05	3974.4	
339.26	5603.2	
339.47	4440.7	
339.68	3125.9	
339.88	4396.3	
340.09	5119.2	
340.3	5312.4	
340.5	3532.1	
340.71	2781.1	
340.92	4534.9	
341.13	5466	
341.33	2984.6	
341.54	3590.8	
341.75	5083.7	
341.95	4820.9	
342.16	3479.5	
342.37	3704.8	
342.57	4548.5	
342.78	4858.5	
342.99	3754.6	
343.19	2812.5	
343.4	5216.2	
343.61	5122	
343.81	3303.4	
344.02	2970.2	
344.23	5200.5	
344.43	5552	
344.64	3731.4	
344.85	3683.6	
345.06	5130.8	
345.26	5348.6	
345.47	3551.9	
345.68	4072	
345.88	4376.5	
346.09	5283.8	
346.3	3601.7	
346.5	2722.4	
346.71	4908.3	
346.92	4661.9	
347.12	2878.1	
347.33	3509.5	
347.54	5341.1	
347.74	5603.2	
347.95	3502.7	
348.16	2713.6	
348.36	4719.2	
348.57	4541	
348.78	3525.9	
348.98	3734.1	
349.19	4860.5	
349.39	4437.3	
349.6	2871.3	
349.81	3076.7	
350.01	5134.3	
350.22	4646.8	
350.43	3437.9	
350.63	4055.7	
350.84	4957.4	
351.05	4667.3	
351.25	3059.7	
351.46	2834.4	
351.67	5278.3	
351.87	4637.3	
352.08	3253.5	
352.29	3690.4	
352.49	5259.2	
352.7	5274.9	
352.9	2936.1	
353.11	3625.6	
353.32	5791	
353.52	4767	
353.73	2999.6	
353.94	3722.5	
354.14	5126.1	
354.35	4906.3	
354.55	3006.4	
354.76	3368.2	
354.97	5061.2	
355.17	4840.7	
355.38	2935.4	
355.59	3949.2	
355.79	4584	
356	4891.2	
356.2	3373	
356.41	2932.7	
356.62	4408.6	
356.82	4795.7	
357.03	3576.4	
357.24	3183.9	
357.44	4575.2	
357.65	4689.2	
357.85	4225	
358.06	3328.6	
358.27	4411.3	
358.47	4493.2	
358.68	2828.2	
358.88	3532.1	
359.09	5005.2	
359.3	5299.5	
359.5	4068.6	
359.71	3575.8	
359.91	5606.7	
360.12	5086.5	
360.33	3528.7	
360.53	3891.1	
360.74	4583.4	
360.94	4647.5	
361.15	3626.3	
361.36	3040.6	
361.56	5208	
361.77	4762.9	
361.97	3996.3	
362.18	3159.3	
362.38	5221.6	
362.59	4470	
362.8	2982.5	
363	2867.8	
363.21	4291.2	
363.41	4811.4	
363.62	3379.8	
363.83	4157.4	
364.03	4940.4	
364.24	5603.9	
364.44	4191.5	
364.65	4115.1	
364.85	4640	
365.06	4422.9	
365.27	3059.7	
365.47	3162.1	
365.68	5484.5	
365.88	4645.5	
366.09	3411.9	
366.29	3145	
366.5	4896.7	
366.71	5171.8	
366.91	4123.2	
367.12	3514.3	
367.32	5707.7	
367.53	5050.3	
367.73	3480.2	
367.94	4264.6	
368.14	5045.5	
368.35	5696.1	
368.56	3502	
368.76	3018.7	
368.97	5183.4	
369.17	6391.7	
369.38	3093.1	
369.58	3261	
369.79	4328.7	
369.99	5460.6	
370.2	4092.5	
370.4	3340.2	
370.61	4926	
370.82	5861.3	
371.02	3294.5	
371.23	2785.9	
371.43	4359.4	
371.64	5384.8	
371.84	3308.2	
372.05	4205.2	
372.25	6301.6	
372.46	5007.3	
372.66	3218	
372.87	3257.6	
373.07	5062.6	
373.28	6386.9	
373.48	4018.8	
373.69	3714.3	
373.9	4673.5	
374.1	4663.9	
374.31	3945.8	
374.51	3549.1	
374.72	5308.3	
374.92	4493.2	
375.13	4060.4	
375.33	3429.7	
375.54	4876.9	
375.74	4526.7	
375.95	3476.1	
376.15	4441.4	
376.36	5010	
376.56	4798.4	
376.77	3476.8	
376.97	3830.4	
377.18	5739.1	
377.38	4988.2	
377.59	4062.5	
377.79	3070.6	
378	4809.3	
378.2	5081.7	
378.41	3126.6	
378.61	3045.3	
378.82	5184.8	
379.02	4530.8	
379.23	3204.4	
379.43	4024.9	
379.64	5272.8	
379.84	4877.6	
380.05	3134.8	
380.25	3017.3	
380.46	5041.4	
380.66	4629.8	
380.87	4100.7	
381.07	4481	
381.28	5470.8	
381.48	5018.2	
381.69	3088.3	
381.89	3211.9	
382.1	4278.2	
382.3	5098.8	
382.51	3979.2	
382.71	4693.9	
382.91	4990.9	
383.12	5337	
383.32	3433.8	
383.53	3597.6	
383.73	4911	
383.94	4767.7	
384.14	3646.7	
384.35	2917.7	
384.55	4651.6	
384.76	5038	
384.96	3418.7	
385.17	3663.8	
385.37	5061.2	
385.58	4450.9	
385.78	3672	
385.98	2884.9	
386.19	4610.7	
386.39	4939	
386.6	3247.4	
386.8	3433.1	
387.01	4999.1	
387.21	5079	
387.42	3709.6	
387.62	4210.6	
387.83	4533.5	
388.03	4876.2	
388.23	3469.9	
388.44	4037.2	
388.64	4250.2	
388.85	4371	
389.05	3635.8	
389.26	4145.8	
389.46	5834.7	
389.67	5315.8	
389.87	3642	
390.07	3698.6	
390.28	4605.9	
390.48	4392.2	
390.69	3087.7	
390.89	3300.6	
391.1	4557.4	
391.3	5231.2	
391.5	4205.8	
391.71	4726.7	
391.91	5018.9	
392.12	5695.4	
392.32	4290.5	
392.53	3781.9	
392.73	4638	
392.93	4735.6	
393.14	3407.8	
393.34	4060.4	
393.55	4993.6	
393.75	4666	
393.95	3467.9	
394.16	3422.8	
394.36	4612	
394.57	5074.2	
394.77	3081.5	
394.98	3376.4	
395.18	4489.1	
395.38	4530.1	
395.59	4001.7	
395.79	3169.6	
396	4586.8	
396.2	4954.7	
396.4	3814	
396.61	3742.3	
396.81	5044.8	
397.02	4476.9	
397.22	3902.7	
397.42	3967.6	
397.63	5014.8	
397.83	4384.7	
398.04	3115.6	
398.24	3454.9	
398.44	4823	
398.65	4086.4	
398.85	3010.5	
399.05	3065.8	
399.26	4461.2	
399.46	5676.3	
399.67	3264.5	
399.87	3138.9	
400.07	4654.4	
400.28	4925.4	
400.48	3201	
400.69	3909.6	
400.89	4906.3	
401.09	5395	
401.3	3018	
401.5	3872	
401.7	5468.1	
401.91	5728.9	
402.11	3363.4	
402.32	3568.9	
402.52	5052.3	
402.72	4964.3	
402.93	3617.4	
403.13	2921.8	
403.33	5664.7	
403.54	4705.5	
403.74	3485.6	
403.94	4087.7	
404.15	4748.6	
404.35	5683.8	
404.56	3298.6	
404.76	4655	
404.96	5100.1	
405.17	4913.1	
405.37	4171.7	
405.57	3680.2	
405.78	5016.8	
405.98	4697.4	
406.18	3287.7	
406.39	3958.7	
406.59	5075.5	
406.79	4698.7	
407	3069.2	
407.2	3239.2	
407.4	5134.3	
407.61	5161.6	
407.81	3161.4	
408.01	4866	
408.22	4180.6	
408.42	5647.6	
408.62	3878.2	
408.83	3441.3	
409.03	4584	
409.23	4485.1	
409.44	3450.1	
409.64	3618.1	
409.84	5227.8	
410.05	5115.1	
410.25	3492.5	
410.45	3351.2	
410.66	4659.1	
410.86	6622.4	
411.06	3547.8	
411.27	3418.7	
411.47	6257.9	
411.67	4728.1	
411.88	3589.4	
412.08	3697.3	
412.28	5113.1	
412.49	5511.8	
412.69	3402.4	
412.89	3398.3	
413.09	5339.1	
413.3	5264.6	
413.5	3480.2	
413.7	3162.1	
413.91	4825.7	
414.11	5333.6	
414.31	3240.6	
414.52	3526.6	
414.72	5103.5	
414.92	4919.9	
415.12	3284.3	
415.33	3678.2	
415.53	5203.2	
415.73	5350	
415.94	3906.8	
416.14	3475.4	
416.34	4519.9	
416.55	4369	
416.75	4357.4	
416.95	3875.4	
417.15	5212.8	
417.36	5795.1	
417.56	4485.1	
417.76	3745.7	
417.97	5410.7	
418.17	5195.7	
418.37	3472.7	
418.57	3430.3	
418.78	5113.1	
418.98	4862.6	
419.18	4117.1	
419.38	4140.3	
419.59	4803.2	
419.79	4595	
419.99	3375.1	
420.2	3665.2	
420.4	5229.8	
420.6	5354.8	
420.8	3304.7	
421.01	3224.2	
421.21	5079	
421.41	5137.7	
421.61	3607.8	
421.82	3369.6	
422.02	4824.3	
422.22	5468.1	
422.42	3956.7	
422.63	3786.7	
422.83	4760.8	
423.03	5692	
423.23	3757.3	
423.44	3015.3	
423.64	4814.8	
423.84	4678.2	
424.04	3366.9	
424.25	3090.4	
424.45	5629.2	
424.65	5582.1	
424.85	3039.2	
425.06	3419.4	
425.26	5658.5	
425.46	4796.3	
425.66	3817.4	
425.87	3551.2	
426.07	5436	
426.27	5288.5	
426.47	3656.3	
426.67	3189.4	
426.88	5707.7	
427.08	5244.8	
427.28	3824.2	
427.48	3221.5	
427.69	4509.6	
427.89	4922.6	
428.09	3820.8	
428.29	3183.9	
428.5	5445.5	
428.7	5100.8	
428.9	3097.9	
429.1	3505.4	
429.3	5048.2	
429.51	5244.8	
429.71	3371.6	
429.91	3921.2	
430.11	5227.8	
430.31	5335	
430.52	3490.4	
430.72	3646.7	
430.92	5642.2	
431.12	5231.9	
431.32	3185.3	
431.53	3622.2	
431.73	4405.2	
431.93	5656.5	
432.13	3209.2	
432.33	3104	
432.54	4861.2	
432.74	4960.9	
432.94	3030.3	
433.14	3803.8	
433.34	5271.5	
433.55	4770.4	
433.75	3777.1	
433.95	5028.4	
434.15	5040.1	
434.35	4703.5	
434.56	3143.6	
434.76	2797.5	
434.96	4902.2	
435.16	5018.9	
435.36	3031	
435.56	3809.9	
435.77	4644.8	
435.97	4787.5	
436.17	4290.5	
436.37	3739.6	
436.57	4580.6	
436.78	4559.5	
436.98	4776.5	
437.18	4190.8	
437.38	4992.3	
437.58	4713.1	
437.78	4313.7	
437.99	3334.1	
438.19	5199.8	
438.39	5776	
438.59	3310.2	
438.79	3013.9	
438.99	5634.6	
439.2	4760.8	
439.4	3006.4	
439.6	3038.5	
439.8	4855.7	
440	5739.8	
440.2	3708.9	
440.4	3738.2	
440.61	5252.4	
440.81	5583.4	
441.01	3001	
441.21	3663.8	
441.41	5373.2	
441.61	5206.6	
441.81	3870	
442.02	4618.9	
442.22	5767.8	
442.42	5209.3	
442.62	3011.2	
442.82	3087.7	
443.02	5455.8	
443.22	4787.5	
443.43	3370.3	
443.63	2994.8	
443.83	4704.9	
444.03	4629.8	
444.23	3870	
444.43	3581.9	
444.63	4831.2	
444.83	5726.1	
445.04	3057.6	
445.24	3997.6	
445.44	5156.1	
445.64	5154.1	
445.84	3759.4	
446.04	3673.4	
446.24	4661.2	
446.44	5418.9	
446.65	3127.2	
446.85	3366.9	
447.05	4957.4	
447.25	5426.4	
447.45	3489.1	
447.65	2985.9	
447.85	4978.6	
448.05	4678.2	
448.25	3756.7	
448.46	3612.6	
448.66	4949.9	
448.86	4730.1	
449.06	2996.9	
449.26	3774.4	
449.46	5147.2	
449.66	4559.5	
449.86	3302	
450.06	3370.3	
450.26	4642.1	
450.47	5038	
450.67	3639.2	
450.87	3797.6	
451.07	5201.2	
451.27	4894.6	
451.47	3099.3	
451.67	3427.6	
451.87	4633.2	
452.07	5552.7	
452.27	3158	
452.47	3200.3	
452.67	4952	
452.88	5186.8	
453.08	2804.4	
453.28	4225	
453.48	5714.5	
453.68	4857.8	
453.88	3070.6	
454.08	3254.9	
454.28	5120.6	
454.48	4856.4	
454.68	3639.9	
454.88	4015.4	
455.08	5186.1	
455.28	4864.6	
455.48	3049.4	
455.68	3431	
455.89	5517.2	
456.09	5199.1	
456.29	3209.2	
456.49	3249.4	
456.69	5266	
456.89	4759.5	
457.09	3518.4	
457.29	3737.5	
457.49	4960.2	
457.69	5003.9	
457.89	3323.9	
458.09	2913.6	
458.29	4803.2	
458.49	5298.1	
458.69	3550.5	
458.89	3107.5	
459.09	5341.1	
459.29	5461.9	
459.49	3218	
459.69	3826.3	
459.9	5126.1	
460.1	4646.8	
460.3	3228.3	
460.5	3000.3	
460.7	4996.4	
460.9	4747.2	
461.1	2812.5	
461.3	3599.6	
461.5	5494.7	
461.7	5177.3	
461.9	2939.5	
462.1	3282.2	
462.3	4747.9	
462.5	5145.2	
462.7	2963.4	
462.9	3039.9	
463.1	5915.2	
463.3	5529.5	
463.5	3142.9	
463.7	3679.5	
463.9	4794.3	
464.1	5054.4	
464.3	3139.5	
464.5	3363.4	
464.7	5198.4	
464.9	4810.7	
465.1	4283.7	
465.3	3551.2	
465.5	5401.2	
465.7	5356.1	
465.9	3698.6	
466.1	3604.4	
466.3	5078.3	
466.5	5124	
466.7	4133.5	
466.9	3363.4	
467.1	5109.7	
467.3	5713.8	
467.5	4025.6	
467.7	3214.6	
467.9	5815.5	
468.1	6481.1	
468.3	3838.6	
468.5	4096.6	
468.7	4900.1	
468.9	4932.2	
469.1	3429	
469.3	3876.1	
469.5	6386.2	
469.7	4586.8	
469.9	3781.9	
470.1	3204.4	
470.3	4954	
470.5	4951.3	
470.7	4140.3	
470.9	3272	
471.1	4706.9	
471.3	5219.6	
471.5	3147	
471.69	4586.8	
471.89	4804.5	
472.09	4404.5	
472.29	3729.4	
472.49	4130.8	
472.69	4500.8	
472.89	5087.8	
473.09	3076	
473.29	3322.5	
473.49	4679.6	
473.69	4797.7	
473.89	3948.5	
474.09	3340.2	
474.29	5770.5	
474.49	5455.8	
474.69	3903.4	
474.89	3503.4	
475.09	4821.6	
475.29	4764.9	
475.49	3097.9	
475.69	3247.4	
475.88	6101.6	
476.08	5160.2	
476.28	3009.8	
476.48	3340.2	
476.68	5451.7	
476.88	5289.9	
477.08	3347.1	
477.28	3501.3	
477.48	5076.9	
477.68	5469.4	
477.88	3099.9	
478.08	3375.1	
478.28	5592.3	
478.48	5057.1	
478.67	3450.1	
478.87	3118.4	
479.07	5373.2	
479.27	5175.2	
479.47	3585.3	
479.67	3572.3	
479.87	5355.4	
480.07	5704.3	
480.27	3033	
480.47	4198.3	
480.67	5081	
480.87	5502.9	
481.06	3250.1	
481.26	3928	
481.46	5064.6	
481.66	4996.4	
481.86	3596.9	
482.06	4356	
482.26	4850.3	
482.46	5623	
482.66	3526.6	
482.86	3198.9	
483.05	5140.4	
483.25	4670.1	
483.45	5445.5	
483.65	3428.3	
483.85	4642.1	
484.05	4900.8	
484.25	3872.7	
484.45	4057	
484.65	5580	
484.84	5528.8	
485.04	3374.4	
485.24	3368.2	
485.44	5793	
485.64	4532.2	
485.84	2853.5	
486.04	3883.6	
486.24	4769	
486.44	5023	
486.63	2877.4	
486.83	3422.2	
487.03	4632.5	
487.23	4770.4	
487.43	2929.3	
487.63	4599.7	
487.83	4850.3	
488.02	5494	
488.22	3454.2	
488.42	3954.6	
488.62	5417.6	
488.82	4597	
489.02	3327.3	
489.22	3173	
489.41	5386.2	
489.61	5082.4	
489.81	3045.3	
490.01	3069.2	
490.21	5286.5	
490.41	5820.3	
490.61	2988.7	
490.8	3125.2	
491	4854.4	
491.2	4532.8	
491.4	3654.9	
491.6	2961.4	
491.8	4990.2	
491.99	4988.9	
492.19	2859	
492.39	3082.9	
492.59	5297.4	
492.79	5399.1	
492.99	3664.5	
493.18	3015.3	
493.38	5337	
493.58	5790.3	
493.78	3473.4	
493.98	3135.4	
494.18	5025	
494.37	4556	
494.57	3525.9	
494.77	3426.9	
494.97	5008	
495.17	5192.3	
495.37	3016.7	
495.56	3284.9	
495.76	5272.2	
495.96	5102.2	
496.16	3984.7	
496.36	3113.6	
496.55	5115.8	
496.75	4765.6	
496.95	3390.1	
497.15	3288.4	
497.35	5151.3	
497.54	5012.7	
497.74	3176.4	
497.94	4353.3	
498.14	5566.4	
498.34	5406.6	
498.53	2853.5	
498.73	3428.3	
498.93	4558.8	
499.13	5012.7	
499.33	3269.2	
499.52	3701.4	
499.72	4995	
499.92	5161.6	
500.12	2979.8	
500.32	3228.3	
500.51	5165.7	
500.71	4870.1	
500.91	3753.2	
501.11	3450.1	
501.31	5045.5	
501.5	5502.9	
501.7	3980.6	
501.9	3184.6	
502.1	4998.4	
502.29	5209.3	
502.49	3482.2	
502.69	3934.8	
502.89	5072.1	
503.09	5091.9	
503.28	2921.8	
503.48	3003	
503.68	4767.7	
503.88	4575.2	
504.07	3731.4	
504.27	3448.1	
504.47	4872.8	
504.67	5130.2	
504.86	3682.9	
505.06	3521.1	
505.26	4900.1	
505.46	6036	
505.65	3381.9	
505.85	3629.7	
506.05	4808.6	
506.25	5199.1	
506.44	3024.8	
506.64	3702	
506.84	4740.4	
507.04	5415.5	
507.23	3235.8	
507.43	3593.5	
507.63	6241.5	
507.83	4858.5	
508.02	3600.3	
508.22	3255.6	
508.42	6409.5	
508.62	4682.3	
508.81	3734.8	
509.01	3932.8	
509.21	4721.9	
509.4	4999.8	
509.6	3687	
509.8	3170.3	
510	4871.4	
510.19	5834.7	
510.39	3116.3	
510.59	3171.6	
510.79	4702.8	
510.98	5681.1	
511.18	3267.2	
511.38	3398.3	
511.57	5432.6	
511.77	5081.7	
511.97	3885.7	
512.17	3231	
512.36	5302.2	
512.56	5264.6	
512.76	3147.7	
512.95	3014.6	
513.15	5445.5	
513.35	4343.7	
513.55	3832.4	
513.74	3214.6	
513.94	5352.7	
514.14	4892.6	
514.33	3858.4	
514.53	3631	
514.73	4877.6	
514.92	4960.2	
515.12	3246.7	
515.32	3119.7	
515.51	5012.7	
515.71	5370.5	
515.91	4508.9	
516.11	3134.8	
516.3	6233.3	
516.5	4693.3	
516.7	3646.1	
516.89	3979.9	
517.09	4788.8	
517.29	4783.4	
517.48	3831.1	
517.68	3310.9	
517.88	4605.2	
518.07	5097.4	
518.27	3676.8	
518.47	3003.7	
518.66	5535.7	
518.86	4518.5	
519.06	2917.7	
519.25	3244.7	
519.45	4761.5	
519.65	5764.3	
519.84	3693.9	
520.04	4150.6	
520.24	6123.4	
520.43	5177.9	
520.63	3549.1	
520.83	3316.3	
521.02	4732.9	
521.22	5149.3	
521.42	3768.9	
521.61	4179.9	
521.81	4839.4	
522.01	5039.4	
522.2	3599.6	
522.4	3453.6	
522.6	5309	
522.79	4377.9	
522.99	3523.2	
523.18	2935.4	
523.38	5067.4	
523.58	4965	
523.77	4260.5	
523.97	2862.4	
524.17	6275	
524.36	5698.1	
524.56	3766.2	
524.76	3488.4	
524.95	4810.7	
525.15	4576.5	
525.34	3321.1	
525.54	3231.7	
525.74	5143.1	
525.93	4362.2	
526.13	4062.5	
526.33	3209.2	
526.52	5296	
526.72	4820.9	
526.91	4053.6	
527.11	3489.1	
527.31	5163.6	
527.5	5473.5	
527.7	3353.2	
527.89	2763.4	
528.09	4462.5	
528.29	4801.1	
528.48	3681.6	
528.68	3457.7	
528.87	5100.8	
529.07	5147.9	
529.27	3381.2	
529.46	3042.6	
529.66	4844.8	
529.85	5124	
530.05	2901.3	
530.25	3465.8	
530.44	5849	
530.64	4777.9	
530.83	3196.9	
531.03	3348.4	
531.23	5137.7	
531.42	4953.4	
531.62	3828.3	
531.81	3263.8	
532.01	5160.9	
532.21	5335.6	
532.4	2968.9	
532.6	3222.1	
532.79	5713.8	
532.99	5034.6	
533.18	3204.4	
533.38	3945.8	
533.58	4644.1	
533.77	5187.5	
533.97	3096.5	
534.16	3675.4	
534.36	5321.3	
534.55	4631.8	
534.75	3839.9	
534.95	3199.6	
535.14	5183.4	
535.34	4616.1	
535.53	2942.2	
535.73	4424.3	
535.92	5683.1	
536.12	4766.3	
536.31	3014.6	
536.51	3955.3	
536.71	5086.5	
536.9	4693.3	
537.1	3171.6	
537.29	3293.1	
537.49	5356.8	
537.68	4661.9	
537.88	3525.2	
538.07	2975	
538.27	4802.5	
538.46	5563.6	
538.66	2880.1	
538.86	3123.2	
539.05	4870.1	
539.25	5234.6	
539.44	3392.1	
539.64	3143.6	
539.83	4694.6	
540.03	5398.4	
540.22	2997.5	
540.42	3205.8	
540.61	5040.1	
540.81	4996.4	
541	3606.5	
541.2	3895.9	
541.39	4650.3	
541.59	4842.1	
541.78	3713	
541.98	3153.2	
542.18	4487.8	
542.37	4436.6	
542.57	3446.7	
542.76	3725.9	
542.96	4595	
543.15	5021.6	
543.35	3464.5	
543.54	3029.6	
543.74	5263.3	
543.93	4949.3	
544.13	3493.2	
544.32	4427	
544.52	5286.5	
544.71	4661.2	
544.91	2893.8	
545.1	3804.4	
545.3	4720.6	
545.49	5142.4	
545.69	2950.4	
545.88	3332.7	
546.08	5913.9	
546.27	5562.3	
546.47	3690.4	
546.66	3165.5	
546.86	5394.3	
547.05	5877.7	
547.24	3381.2	
547.44	3170.3	
547.63	4715.1	
547.83	5390.3	
548.02	3583.3	
548.22	3638.6	
548.41	4513	
548.61	5485.8	
548.8	3244	
549	3220.1	
549.19	5097.4	
549.39	5319.3	
549.58	3069.2	
549.78	3492.5	
549.97	5324.7	
550.17	4958.1	
550.36	4198.3	
550.55	4897.4	
550.75	4934.9	
550.94	5668.1	
551.14	3239.9	
551.33	3575.8	
551.53	4511	
551.72	5214.1	
551.92	3542.3	
552.11	3411.2	
552.31	5287.9	
552.5	5367	
552.69	4710.3	
552.89	3159.3	
553.08	5313.8	
553.28	5034.6	
553.47	3466.5	
553.67	4240	
553.86	5776	
554.06	4552	
554.25	2956.6	
554.44	3269.9	
554.64	6460.7	
554.83	6002.6	
555.03	3271.3	
555.22	3519.8	
555.42	5488.6	
555.61	5262.6	
555.8	3441.3	
556	3680.2	
556.19	4627.7	
556.39	5625.1	
556.58	3457	
556.78	3568.2	
556.97	5253.7	
557.16	4921.3	
557.36	4430.4	
557.55	3187.3	
557.75	4500.8	
557.94	5840.1	
558.13	3280.8	
558.33	3125.9	
558.52	5592.3	
558.72	4726.7	
558.91	3198.2	
559.1	3415.3	
559.3	4650.9	
559.49	4502.8	
559.69	2963.4	
559.88	3705.5	
560.07	5246.2	
560.27	5534.3	
560.46	3850.9	
560.66	3918.4	
560.85	5070.8	
561.04	4567	
561.24	3292.5	
561.43	3418.7	
561.63	4704.2	
561.82	4988.9	
562.01	4381.3	
562.21	3596.2	
562.4	5199.1	
562.59	5818.3	
562.79	3561.4	
562.98	3245.3	
563.18	5134.3	
563.37	6200.6	
563.56	3880.2	
563.76	3175	
563.95	4751.3	
564.14	4700.8	
564.34	3504.8	
564.53	3289	
564.73	5189.6	
564.92	5298.8	
565.11	3592.8	
565.31	3080.8	
565.5	5525.4	
565.69	4698	
565.89	3334.1	
566.08	3463.1	
566.27	5399.1	
566.47	5711.8	
566.66	3942.3	
566.85	2986.6	
567.05	5126.1	
567.24	4715.1	
567.44	3179.1	
567.63	4250.2	
567.82	5362.9	
568.02	5087.8	
568.21	3176.4	
568.4	3435.1	
568.6	4947.2	
568.79	4939.7	
568.98	3099.9	
569.18	3125.9	
569.37	4912.4	
569.56	6472.3	
569.76	3437.9	
569.95	4180.6	
570.14	5263.3	
570.34	5074.2	
570.53	3106.1	
570.72	3092.4	
570.91	5647.6	
571.11	4934.9	
571.3	3392.1	
571.49	4208.6	
571.69	4958.8	
571.88	4653	
572.07	3741	
572.27	3846.1	
572.46	4594.3	
572.65	5356.1	
572.85	3272	
573.04	3508.9	
573.23	5466.7	
573.43	4944.5	
573.62	3092.4	
573.81	3493.8	
574	5014.8	
574.2	4814.1	
574.39	3239.2	
574.58	3381.2	
574.78	5466.7	
574.97	4988.9	
575.16	3583.9	
575.36	3689.8	
575.55	5275.6	
575.74	5372.5	
575.93	2921.1	
576.13	3674.1	
576.32	4820.9	
576.51	5159.5	
576.71	3271.3	
576.9	4223.6	
577.09	5483.8	
577.28	5072.1	
577.48	3547.1	
577.67	2934.7	
577.86	4847.5	
578.05	5051	
578.25	3329.3	
578.44	3378.5	
578.63	4863.2	
578.83	5756.2	
579.02	2924.5	
579.21	3987.4	
579.4	5009.3	
579.6	4816.8	
579.79	3450.8	
579.98	5162.9	
580.17	5274.9	
580.37	5396.4	
580.56	3035.8	
580.75	3556.6	
580.94	5597.8	
581.14	5560.2	
581.33	3907.5	
581.52	3189.4	
581.71	5123.3	
581.91	5619.6	
582.1	2893.8	
582.29	3370.3	
582.48	4900.1	
582.68	4812	
582.87	3702	
583.06	3388.7	
583.25	5172.5	
583.45	4677.6	
583.64	3858.4	
583.83	4352.6	
584.02	4833.9	
584.21	5141.8	
584.41	3845.4	
584.6	3352.5	
584.79	4925.4	
584.98	5332.9	
585.18	2965.5	
585.37	2997.5	
585.56	4687.8	
585.75	5120.6	
585.94	3152.5	
586.14	3594.2	
586.33	5657.9	
586.52	4850.3	
586.71	3556.6	
586.91	3367.5	
587.1	4522.6	
587.29	5289.9	
587.48	3373.7	
587.67	3272	
587.87	5169.1	
588.06	5281.7	
588.25	4256.4	
588.44	3776.5	
588.63	5005.2	
588.83	5451.7	
589.02	3459	
589.21	3398.9	
589.4	5045.5	
589.59	4976.6	
589.78	2962.7	
589.98	3210.5	
590.17	4728.1	
590.36	5083.7	
590.55	2861.7	
590.74	3576.4	
590.94	6234	
591.13	5162.2	
591.32	3408.5	
591.51	3039.9	
591.7	5421.7	
591.89	5103.5	
592.09	3130	
592.28	3424.9	
592.47	4502.8	
592.66	5926.8	
592.85	3051.5	
593.05	3170.3	
593.24	4995	
593.43	5583.4	
593.62	3259.7	
593.81	3638.6	
594	5006.6	
594.19	5194.3	
594.39	3259.7	
594.58	3135.4	
594.77	5227.8	
594.96	5669.5	
595.15	3186.6	
595.34	3674.1	
595.54	5257.8	
595.73	4701.5	
595.92	2788	
596.11	3573.7	
596.3	5674.9	
596.49	4747.9	
596.68	3480.2	
596.88	3741.6	
597.07	5457.2	
597.26	4626.4	
597.45	3160	
597.64	3959.4	
597.83	4798.4	
598.02	5239.4	
598.22	3166.8	
598.41	3657.7	
598.6	5100.1	
598.79	4693.3	
598.98	3197.6	
599.17	3852.9	
599.36	5096.7	
599.55	5993	
599.74	4655.7	
599.94	4535.6	
600.13	5492.7	
600.32	4714.4	
600.51	2988.7	
600.7	3118.4	
600.89	5994.4	
601.08	6092	
601.27	2983.2	
601.47	3611.3	
601.66	5405.3	
601.85	5961.6	
602.04	3431.7	
602.23	3634.5	
602.42	4812.7	
602.61	5236.7	
602.8	3364.8	
602.99	3186	
603.18	5082.4	
603.37	5168.4	
603.57	3671.3	
603.76	4199.7	
603.95	5829.2	
604.14	5401.2	
604.33	3298.6	
604.52	3495.9	
604.71	5119.9	
604.9	4867.3	
605.09	3980.6	
605.28	3828.3	
605.47	5576.6	
605.66	5289.2	
605.86	3694.5	
606.05	3309.5	
606.24	5606.7	
606.43	4545.8	
606.62	3537.5	
606.81	4097.3	
607	5528.8	
607.19	4960.2	
607.38	3145	
607.57	3277.4	
607.76	4848.9	
607.95	4431.1	
608.14	3654.9	
608.33	4048.2	
608.52	4850.3	
608.72	5530.2	
608.91	3061	
609.1	2998.2	
609.29	4961.5	
609.48	4641.4	
609.67	3769.6	
609.86	3194.1	
610.05	4700.1	
610.24	4883	
610.43	3038.5	
610.62	2823.5	
610.81	5795.1	
611	5621	
611.19	3121.8	
611.38	3646.1	
611.57	5195	
611.76	6115.2	
611.95	3025.5	
612.14	2917	
612.33	5036	
612.52	4739.7	
612.71	3346.4	
612.9	2880.8	
613.09	4457.7	
613.28	6128.9	
613.47	3329.3	
613.66	3872	
613.85	5171.8	
614.04	4734.9	
614.24	3269.9	
614.43	2784.6	
614.62	5195.7	
614.81	5148.6	
615	3676.1	
615.19	3661.8	
615.38	4639.3	
615.57	4905.6	
615.76	3592.8	
615.95	4227.7	
616.14	5278.3	
616.33	5020.9	
616.52	3760.8	
616.71	3914.4	
616.9	5207.3	
617.09	5048.9	
617.28	3330	
617.47	4147.1	
617.66	4593.6	
617.85	4556.7	
618.04	3899.3	
618.22	3474.7	
618.41	4760.2	
618.6	5411.4	
618.79	3401.7	
618.98	3201.7	
619.17	5560.2	
619.36	4343.1	
619.55	3259.7	
619.74	3312.2	
619.93	5033.2	
620.12	4544.4	
620.31	3717.1	
620.5	3753.2	
620.69	5687.9	
620.88	5640.8	
621.07	4262.5	
621.26	3640.6	
621.45	5080.3	
621.64	5070.8	
621.83	3605.1	
622.02	3060.3	
622.21	5171.8	
622.4	4934.9	
622.59	4045.4	
622.78	3840.6	
622.97	4670.1	
623.16	5437.4	
623.35	3537.5	
623.54	3001.6	
623.72	4702.1	
623.91	4891.2	
624.1	3743.7	
624.29	2882.2	
624.48	5726.1	
624.67	5171.8	
624.86	3667.2	
625.05	2983.2	
625.24	5811.5	
625.43	4670.1	
625.62	4954	
625.81	3121.1	
626	5295.4	
626.19	4810.7	
626.38	3615.3	
626.56	3328.6	
626.75	4571.1	
626.94	5172.5	
627.13	3701.4	
627.32	2841.2	
627.51	5190.2	
627.7	6083.8	
627.89	2933.4	
628.08	3706.8	
628.27	4620.9	
628.46	4775.2	
628.65	3140.9	
628.83	2889	
629.02	5203.2	
629.21	4640.7	
629.4	3433.1	
629.59	3549.1	
629.78	4551.3	
629.97	5264	
630.16	3595.6	
630.35	3229.6	
630.54	5684.5	
630.72	5407.3	
630.91	3229	
631.1	3633.1	
631.29	4999.8	
631.48	5075.5	
631.67	3763.5	
631.86	3327.9	
632.05	4761.5	
632.24	4782.7	
632.42	3094.5	
632.61	3510.2	
632.8	4891.9	
632.99	4569	
633.18	3476.8	
633.37	3822.2	
633.56	5012.7	
633.75	4913.8	
633.93	3471.3	
634.12	3246.7	
634.31	5697.4	
634.5	5261.2	
634.69	3255.6	
634.88	3730	
635.07	4888.5	
635.25	5323.4	
635.44	4000.4	
635.63	4041.3	
635.82	4724.7	
636.01	4390.2	
636.2	3966.9	
636.39	3573	
636.57	5646.2	
636.76	5276.9	
636.95	3127.9	
637.14	4242.7	
637.33	5104.2	
637.52	5776.6	
637.7	3032.4	
637.89	3822.9	
638.08	4863.2	
638.27	5954.8	
638.46	3809.2	
638.65	4204.5	
638.83	5905	
639.02	4717.8	
639.21	3769.6	
639.4	4121.2	
639.59	5040.7	
639.78	4846.2	
639.96	3250.1	
640.15	3307.5	
640.34	5008	
640.53	5084.4	
640.72	3082.9	
640.91	3336.1	
641.09	4616.1	
641.28	5597.8	
641.47	3349.8	
641.66	3948.5	
641.85	5136.3	
642.03	5334.3	
642.22	3735.5	
642.41	3461.1	
642.6	4661.9	
642.79	4341	
642.97	3323.9	
643.16	3817.4	
643.35	4717.8	
643.54	4598.4	
643.73	3222.8	
643.91	3863.8	
644.1	4597.7	
644.29	4971.8	
644.48	3337.5	
644.67	3425.6	
644.85	4689.8	
645.04	4990.2	
645.23	3189.4	
645.42	3394.8	
645.6	4728.8	
645.79	5616.9	
645.98	3366.2	
646.17	2783.9	
646.36	4604.5	
646.54	4976.6	
646.73	4138.3	
646.92	3187.3	
647.11	4758.8	
647.29	5583.4	
647.48	3218	
647.67	3141.6	
647.86	5840.1	
648.05	5705	
648.23	3532.7	
648.42	4490.5	
648.61	5307.7	
648.8	5087.8	
648.98	3239.2	
649.17	3549.8	
649.36	4787.5	
649.55	4487.8	
649.73	3294.5	
649.92	3878.2	
650.11	4634.6	
650.3	4943.8	
650.48	3426.9	
650.67	3274	
650.86	5155.4	
651.05	4414.7	
651.23	3360	
651.42	3320.4	
651.61	4824.3	
651.79	4857.8	
651.98	3519.1	
652.17	3261.7	
652.36	5165.7	
652.54	4450.2	
652.73	3328.6	
652.92	3216.7	
653.11	5185.5	
653.29	5272.2	
653.48	2867.2	
653.67	3571.7	
653.85	5031.2	
654.04	5892	
654.23	3762.8	
654.42	3449.5	
654.6	4782.7	
654.79	5255.1	
654.98	3077.4	
655.16	3563.5	
655.35	4633.2	
655.54	4404.5	
655.73	3217.4	
655.91	3178.4	
656.1	5304.2	
656.29	4464.6	
656.47	2902	
656.66	4063.9	
656.85	4711.7	
657.03	4695.3	
657.22	3197.6	
657.41	3240.6	
657.59	4686.4	
657.78	4547.2	
657.97	2934.7	
658.16	3429.7	
658.34	5194.3	
658.53	5463.3	
658.72	4113	
658.9	4544.4	
659.09	4844.8	
659.28	4839.4	
659.46	3272.7	
659.65	3210.5	
659.84	4629.1	
660.02	5049.6	
660.21	3126.6	
660.4	3071.3	
660.58	5294	
660.77	4813.4	
660.96	3571	
661.14	2906.8	
661.33	5717.9	
661.52	5634.6	
661.7	2857.6	
661.89	5537.7	
662.08	4574.5	
662.26	4220.2	
662.45	3052.8	
662.64	3236.5	
662.82	5105.6	
663.01	4491.9	
663.2	3274	
663.38	3749.8	
663.57	5023	
663.75	4870.1	
663.94	3476.1	
664.13	4430.4	
664.31	4621.6	
664.5	5121.3	
664.69	3722.5	
664.87	4003.8	
665.06	4429.1	
665.25	4861.2	
665.43	4235.9	
665.62	4245.4	
665.8	5154.1	
665.99	4674.1	
666.18	3481.5	
666.36	3500	
666.55	5188.2	
666.74	5089.2	
666.92	3243.3	
667.11	4413.4	
667.29	4732.2	
667.48	5119.9	
667.67	4054.3	
667.85	3396.9	
668.04	4715.8	
668.22	4667.3	
668.41	3541.6	
668.6	3743	
668.78	4559.5	
668.97	4740.4	
669.15	3758	
669.34	3017.3	
669.53	4552.6	
669.71	4842.1	
669.9	3184.6	
670.08	3655.6	
670.27	4516.5	
670.46	5030.5	
670.64	3836.5	
670.83	3983.3	
671.01	4510.3	
671.2	4969.1	
671.38	3241.9	
671.57	3233.1	
671.76	5449	
671.94	5821.7	
672.13	3098.6	
672.31	3933.5	
672.5	5116.5	
672.69	4650.9	
672.87	3212.6	
673.06	3454.2	
673.24	4988.9	
673.43	4653	
673.61	3800.3	
673.8	3449.5	
673.98	5128.8	
674.17	5264.6	
674.36	3840.6	
674.54	3758	
674.73	4889.2	
674.91	5158.2	
675.1	3508.2	
675.28	3196.9	
675.47	4772.4	
675.65	5209.3	
675.84	3476.1	
676.03	3665.2	
676.21	4661.2	
676.4	4208.6	
676.58	4040	
676.77	3821.5	
676.95	5718.6	
677.14	4624.3	
677.32	3182.5	
677.51	3089.7	
677.69	5212.8	
677.88	4446.8	
678.06	3121.8	
678.25	3259.7	
678.44	4781.3	
678.62	4590.9	
678.81	3011.2	
678.99	3687.7	
679.18	5450.3	
679.36	5032.5	
679.55	3361.4	
679.73	3865.2	
679.92	5020.9	
680.1	4672.8	
680.29	4367.6	
680.47	3404.4	
680.66	4616.1	
680.84	5255.1	
681.03	2967.5	
681.21	3803.1	
681.4	4559.5	
681.58	4563.6	
681.77	3273.3	
681.95	3207.8	
682.14	5283.8	
682.32	5557.5	
682.51	3939.6	
682.69	3063.1	
682.88	4541.7	
683.06	5089.9	
683.25	3715	
683.43	4017.4	
683.62	4844.8	
683.8	5115.8	
683.99	4161.5	
684.17	3655.6	
684.36	5784.8	
684.54	4841.4	
684.73	3144.3	
684.91	3326.6	
685.1	5127.4	
685.28	4704.2	
685.46	3790.1	
685.65	3829	
685.83	5372.5	
686.02	4941.1	
686.2	3459.7	
686.39	3485	
686.57	4730.1	
686.76	5786.9	
686.94	3429.7	
687.13	3552.5	
687.31	5239.4	
687.5	4971.1	
687.68	3126.6	
687.86	3968.3	
688.05	6232.7	
688.23	4445.5	
688.42	3984	
688.6	3364.1	
688.79	4743.8	
688.97	4745.8	
689.16	3703.4	
689.34	2933.4	
689.52	5274.9	
689.71	5446.2	
689.89	3920.5	
690.08	3342.3	
690.26	4948.6	
690.45	4795.7	
690.63	4063.2	
690.81	3472.7	
691	4859.8	
691.18	4706.2	
691.37	3635.1	
691.55	5317.9	
691.74	4645.5	
691.92	6241.5	
692.1	3594.2	
692.29	3248.1	
692.47	4825	
692.66	4394.3	
692.84	3308.8	
693.02	3731.4	
693.21	4412	
693.39	4829.1	
693.58	3788.1	
693.76	3274.7	
693.94	5660.6	
694.13	5459.9	
694.31	3308.8	
694.5	4072	
694.68	4591.5	
694.86	4825	
695.05	3454.2	
695.23	3852.9	
695.42	5067.4	
695.6	6817.7	
695.78	3961.5	
695.97	3347.7	
696.15	5126.7	
696.34	4647.5	
696.52	3157.3	
696.7	3748.5	
696.89	5000.5	
697.07	4495.3	
697.25	3741	
697.44	4866.7	
697.62	4939.7	
697.81	5212.8	
697.99	3515.7	
698.17	3900.7	
698.36	4553.3	
698.54	5021.6	
698.72	3759.4	
698.91	3097.2	
699.09	4734.9	
699.28	4623.6	
699.46	3573	
699.64	3432.4	
699.83	4572.4	
700.01	5449.6	
700.19	4058.4	
700.38	2909.5	
700.56	5453.7	
700.74	4574.5	
700.93	3130	
701.11	3730	
701.29	5016.8	
701.48	5771.2	
701.66	3192.8	
701.84	3268.6	
702.03	4706.9	
702.21	5156.1	
702.39	3009.1	
702.58	3394.2	
702.76	4986.8	
702.94	4971.1	
703.13	3008.5	
703.31	4699.4	
703.49	4487.1	
703.68	5165	
703.86	3162.7	
704.04	3858.4	
704.23	4889.9	
704.41	5111.7	
704.59	3264.5	
704.78	4171	
704.96	5690.6	
705.14	5085.8	
705.33	3022.1	
705.51	3760.8	
705.69	4688.5	
705.87	5360.9	
706.06	3875.4	
706.24	3069.9	
706.42	4951.3	
706.61	5122	
706.79	3923.9	
706.97	3050.1	
707.16	4530.1	
707.34	5038.7	
707.52	3898.6	
707.7	3232.4	
707.89	4622.9	
708.07	4432.5	
708.25	3874.1	
708.44	4245.4	
708.62	4504.2	
708.8	5466	
708.98	4142.4	
709.17	3269.9	
709.35	4856.4	
709.53	4951.3	
709.72	3114.3	
709.9	3433.1	
710.08	5130.8	
710.26	5205.9	
710.45	4361.5	
710.63	3381.9	
710.81	4858.5	
710.99	4824.3	
711.18	3858.4	
711.36	3481.5	
711.54	4767.7	
711.72	5333.6	
711.91	3557.3	
712.09	3197.6	
712.27	4990.9	
712.45	5393.7	
712.64	3790.1	
712.82	3075.4	
713	4638	
713.18	4742.4	
713.37	3203.7	
713.55	4172.4	
713.73	5468.8	
713.91	4512.4	
714.1	3651.5	
714.28	3308.2	
714.46	5349.3	
714.64	4835.3	
714.83	3040.6	
715.01	3642.7	
715.19	5023	
715.37	4521.9	
715.55	3482.9	
715.74	3702	
715.92	5700.9	
716.1	4137.6	
716.28	4581.3	
716.47	3889.1	
716.65	4827.1	
716.83	4957.4	
717.01	3782.6	
717.19	3824.9	
717.38	6461.3	
717.56	4583.4	
717.74	3920.5	
717.92	3207.8	
718.1	5466.7	
718.29	4775.2	
718.47	2902.7	
718.65	3347.1	
718.83	5290.6	
719.01	5190.9	
719.2	2732.7	
719.38	3535.5	
719.56	4956.1	
719.74	6157.6	
719.92	3318.4	
720.11	4059.1	
720.29	5017.5	
720.47	4452.3	
720.65	3043.3	
720.83	3716.4	
721.02	4775.2	
721.2	4626.4	
721.38	3835.2	
721.56	3247.4	
721.74	4304.1	
721.92	4445.5	
722.11	4205.2	
722.29	3992.9	
722.47	5346.6	
722.65	4720.6	
722.83	3248.8	
723.01	3954.6	
723.2	4749.9	
723.38	4965	
723.56	2892.4	
723.74	3747.1	
723.92	4476.9	
724.1	5225.7	
724.29	3244.7	
724.47	4063.2	
724.65	4501.4	
724.83	4338.3	
725.01	3150.5	
725.19	3777.8	
725.37	4512.4	
725.56	4468	
725.74	3100.6	
725.92	3218.7	
726.1	4459.8	
726.28	4711.7	
726.46	3549.8	
726.64	3360	
726.83	4731.5	
727.01	4874.8	
727.19	3104.7	
727.37	3615.3	
727.55	4775.2	
727.73	5132.2	
727.91	3032.4	
728.09	2957.9	
728.28	5141.1	
728.46	5403.2	
728.64	3663.8	
728.82	3665.9	
729	5915.9	
729.18	5321.3	
729.36	2967.5	
729.54	4842.1	
729.72	6070.9	
729.91	4735.6	
730.09	4521.2	
730.27	3478.1	
730.45	4643.4	
730.63	5161.6	
730.81	3938.9	
730.99	3208.5	
731.17	5544.5	
731.35	4484.4	
731.53	3628.3	
731.71	3346.4	
731.9	5286.5	
732.08	5434.6	
732.26	3516.4	
732.44	3279.5	
732.62	5508.4	
732.8	5069.4	
732.98	3832.4	
733.16	3131.3	
733.34	5080.3	
733.52	4173.1	
733.7	3546.4	
733.88	3646.1	
734.07	4968.4	
734.25	4800.4	
734.43	3119.1	
734.61	4347.8	
734.79	5910.4	
734.97	4721.9	
735.15	3215.3	
735.33	3493.8	
735.51	5061.9	
735.69	4730.1	
735.87	4309.6	
736.05	3588	
736.23	4864.6	
736.41	4668.7	
736.59	3553.9	
736.77	3544.4	
736.95	5266	
737.13	4743.1	
737.32	3229	
737.5	3380.5	
737.68	5646.9	
737.86	4715.1	
738.04	3120.4	
738.22	4601.1	
738.4	4633.2	
738.58	4837.3	
738.76	3542.3	
738.94	2856.9	
739.12	4702.8	
739.3	4568.3	
739.48	4054.3	
739.66	3841.3	
739.84	4857.8	
740.02	4832.5	
740.2	2947	
740.38	3115	
740.56	5111	
740.74	4246.1	
740.92	3644.7	
741.1	3545	
741.28	4763.6	
741.46	4601.8	
741.64	3368.9	
741.82	3764.2	
742	4795.7	
742.18	4734.9	
742.36	3516.4	
742.54	3227.6	
742.72	5257.1	
742.9	4227	
743.08	3749.1	
743.26	2887	
743.44	5316.5	
743.62	5233.2	
743.8	3975.8	
743.98	3241.9	
744.16	5022.3	
744.34	4803.9	
744.52	3878.2	
744.7	3822.9	
744.88	5151.3	
745.06	4815.5	
745.24	3965.6	
745.42	4051.6	
745.6	5289.2	
745.78	5113.8	
745.96	3074.7	
746.14	3341.6	
746.32	5888.6	
746.5	5271.5	
746.68	3846.8	
746.86	3335.5	
747.03	5604.6	
747.21	4425.7	
747.39	3764.8	
747.57	3311.6	
747.75	5051.7	
747.93	5270.1	
748.11	3330.7	
748.29	3207.1	
748.47	6250.4	
748.65	4760.8	
748.83	3907.5	
749.01	3687.7	
749.19	5144.5	
749.37	4440	
749.55	3629	
749.73	3659	
749.91	4934.2	
750.09	4751.3	
750.26	3693.9	
750.44	3262.4	
750.62	4949.9	
750.8	4915.8	
750.98	3143.6	
751.16	3368.2	
751.34	5003.9	
751.52	4528.7	
751.7	3981.9	
751.88	3138.2	
752.06	5329.5	
752.24	5162.9	
752.42	3163.4	
752.59	3371.6	
752.77	4949.9	
752.95	5908.4	
753.13	3983.3	
753.31	3478.1	
753.49	4670.1	
753.67	5018.2	
753.85	3711.6	
754.03	3349.8	
754.21	5307.7	
754.38	5599.1	
754.56	3523.9	
754.74	2943.6	
754.92	4741.7	
755.1	5363.6	
755.28	2991.4	
755.46	3091.8	
755.64	6176	
755.82	6260	
755.99	3410.6	
756.17	3503.4	
756.35	4351.3	
756.53	5586.2	
756.71	2768.9	
756.89	3471.3	
757.07	5263.3	
757.25	4541	
757.42	3865.2	
757.6	4515.8	
757.78	5262.6	
757.96	4464.6	
758.14	3494.5	
758.32	3132	
758.5	4160.8	
758.67	4830.5	
758.85	3408.5	
759.03	3496.6	
759.21	4976.6	
759.39	4466.6	
759.57	3087	
759.75	3997.6	
759.92	5313.1	
760.1	4921.3	
760.28	4187.4	
760.46	4472.1	
760.64	4681	
760.82	4530.1	
760.99	3861.8	
761.17	3408.5	
761.35	5233.9	
761.53	4438.6	
761.71	3467.2	
761.89	3976.5	
762.06	5117.9	
762.24	4724.7	
762.42	3482.9	
762.6	3308.8	
762.78	4713.7	
762.96	5173.2	
763.13	3797.6	
763.31	3457.7	
763.49	5236	
763.67	4686.4	
763.85	4202.4	
764.02	4575.2	
764.2	5574.6	
764.38	4785.4	
764.56	3358	
764.74	4113	
764.91	5621.7	
765.09	4736.3	
765.27	3224.9	
765.45	3016	
765.63	5716.6	
765.8	5472.9	
765.98	2899.2	
766.16	3136.1	
766.34	4453	
766.52	4304.8	
766.69	3835.8	
766.87	3052.2	
767.05	4778.6	
767.23	5402.5	
767.41	3282.2	
767.58	3476.1	
767.76	5203.9	
767.94	5289.2	
768.12	3330	
768.29	3954.6	
768.47	4856.4	
768.65	5423	
768.83	3076.7	
769	3932.1	
769.18	4518.5	
769.36	5078.3	
769.54	3997.6	
769.72	3153.2	
769.89	5345.2	
770.07	5405.3	
770.25	3455.6	
770.43	4452.3	
770.6	5927.5	
770.78	6236.1	
770.96	3527.3	
771.14	4054.3	
771.31	5321.3	
771.49	4744.5	
771.67	2950.4	
771.85	3122.5	
772.02	4188.8	
772.2	4768.4	
772.38	3741	
772.55	3327.3	
772.73	5029.8	
772.91	4842.8	
773.09	3605.8	
773.26	3671.3	
773.44	5035.3	
773.62	4773.8	
773.8	3261.7	
773.97	3040.6	
774.15	5011.4	
774.33	4791.6	
774.5	3246	
774.68	3535.5	
774.86	5188.2	
775.04	4809.3	
775.21	3244	
775.39	3196.2	
775.57	5020.3	
775.74	5309.7	
775.92	3101.3	
776.1	3009.8	
776.27	4971.1	
776.45	5924.1	
776.63	3267.9	
776.81	2955.2	
776.98	4752	
777.16	5492	
777.34	3315	
777.51	3627.6	
777.69	4749.2	
777.87	4590.9	
778.04	3499.3	
778.22	3960.8	
778.4	4566.3	
778.57	5125.4	
778.75	2925.2	
778.93	3120.4	
779.1	4478.2	
779.28	4375.1	
779.46	2883.5	
779.64	3234.4	
779.81	5250.3	
779.99	5915.2	
780.17	3956.7	
780.34	4006.5	
780.52	4885.8	
780.69	4982.7	
780.87	3508.2	
781.05	3256.3	
781.22	4891.9	
781.4	4922.6	
781.58	3396.9	
781.75	2764.1	
781.93	4814.8	
782.11	4425.7	
782.28	4070.7	
782.46	3367.5	
782.64	4343.7	
782.81	5059.8	
782.99	3454.2	
783.17	3394.8	
783.34	5025	
783.52	4427	
783.69	3562.1	
783.87	4237.2	
784.05	4517.1	
784.22	4498.7	
784.4	4180.6	
784.58	3561.4	
784.75	5307.7	
784.93	4570.4	
785.1	3403.7	
785.28	3883.6	
785.46	5027.1	
785.63	4464.6	
785.81	3438.5	
785.99	3282.2	
786.16	4670.1	
786.34	4949.9	
786.51	3266.5	
786.69	3631	
786.87	4302.8	
787.04	4672.1	
787.22	3174.4	
787.39	3926.6	
787.57	4531.5	
787.75	5398.4	
787.92	4173.8	
788.1	4063.2	
788.27	4479.6	
788.45	4288.4	
788.63	3794.9	
788.8	2768.2	
788.98	4966.3	
789.15	4255.7	
789.33	2914.3	
789.5	3420.8	
789.68	5257.1	
789.86	5361.6	
790.03	3739.6	
790.21	3298.6	
790.38	5268.1	
790.56	4625.7	
790.73	3185.3	
790.91	3204.4	
791.09	4532.2	
791.26	5112.4	
791.44	3454.2	
791.61	2942.2	
791.79	4543.1	
791.96	4571.7	
792.14	3076	
792.32	2783.2	
792.49	4474.8	
792.67	4618.9	
792.84	3170.9	
793.02	2978.4	
793.19	4856.4	
793.37	5530.9	
793.54	2706	
793.72	3089	
793.89	5528.8	
794.07	4481	
794.25	3437.2	
794.42	2840.5	
794.6	5387.5	
794.77	5062.6	
794.95	3777.1	
795.12	3289	
795.3	4487.8	
795.47	5001.8	
795.65	3622.2	
795.82	3486.3	
796	4407.2	
796.17	5888.6	
796.35	3397.6	
796.52	3870	
796.7	5025.7	
796.87	5057.8	
797.05	3375.7	
797.22	4042.7	
797.4	5014.1	
797.57	5822.4	
797.75	3438.5	
797.92	3265.1	
798.1	5285.1	
798.27	4475.5	
798.45	2834.4	
798.62	3088.3	
798.8	4789.5	
798.97	5239.4	
799.15	3648.1	
799.32	3530	
799.5	4209.9	
799.67	4819.6	
799.85	3744.4	
800.02	2807.1	
800.2	4539.7	
800.37	4798.4	
800.55	3923.2	
800.72	3278.1	
800.9	5136.3	
801.07	5474.2	
801.25	4350.6	
801.42	3616.7	
801.6	5182	
801.77	4941.1	
801.95	3322.5	
802.12	3230.3	
802.29	4990.2	
802.47	4924.7	
802.64	3558.7	
802.82	2817.3	
802.99	4542.4	
803.17	5369.8	
803.34	3452.2	
803.52	3102	
803.69	5842.9	
803.87	4321.9	
804.04	3476.8	
804.21	3548.4	
804.39	5429.2	
804.56	4681.7	
804.74	3016.7	
804.91	3594.9	
805.09	4554	
805.26	4605.9	
805.44	3110.2	
805.61	3376.4	
805.78	5068	
805.96	5139.7	
806.13	3631.7	
806.31	3887	
806.48	4206.5	
806.66	4616.1	
806.83	3608.5	
807	3545.7	
807.18	4560.8	
807.35	4844.8	
807.53	3490.4	
807.7	2899.2	
807.87	5510.4	
808.05	4602.5	
808.22	3817.4	
808.4	2908.1	
808.57	4564.2	
808.74	4278.2	
808.92	3257.6	
809.09	4022.2	
809.27	4543.1	
809.44	4986.1	
809.61	2883.5	
809.79	3221.5	
809.96	5550.7	
810.14	5111	
810.31	2841.9	
810.48	3442.6	
810.66	4642.7	
810.83	5250.3	
811.01	3237.8	
811.18	3606.5	
811.35	5227.8	
811.53	4087.7	
811.7	3928	
811.87	3630.4	
812.05	4645.5	
812.22	4561.5	
812.39	3139.5	
812.57	3036.5	
812.74	4625.7	
812.92	5926.1	
813.09	3423.5	
813.26	3695.2	
813.44	5746.6	
813.61	4535.6	
813.78	2897.2	
813.96	3717.1	
814.13	4599.7	
814.3	4384.7	
814.48	4067.3	
814.65	3379.8	
814.82	5521.3	
815	4369	
815.17	3478.1	
815.34	4164.9	
815.52	4537.6	
815.69	4516.5	
815.87	3381.2	
816.04	3377.1	
816.21	4641.4	
816.38	4177.9	
816.56	3416	
816.73	3140.2	
816.9	5710.4	
817.08	5143.1	
817.25	3226.2	
817.42	3919.1	
817.6	4221.5	
817.77	4588.1	
817.94	3533.4	
818.12	3089.7	
818.29	4367.6	
818.46	6521.4	
818.64	3251.5	
818.81	3059	
818.98	4331.5	
819.16	6102.9	
819.33	3762.8	
819.5	3470.6	
819.67	4852.3	
819.85	5442.1	
820.02	3433.8	
820.19	3599.6	
820.37	4796.3	
820.54	4489.8	
820.71	3553.9	
820.88	4328	
821.06	4822.3	
821.23	4442.7	
821.4	3561.4	
821.58	3467.2	
821.75	5225.7	
821.92	4694.6	
822.09	2863.7	
822.27	2979.1	
822.44	4594.3	
822.61	4512.4	
822.79	2940.9	
822.96	5395	
823.13	4916.5	
823.3	4305.5	
823.48	3292.5	
823.65	3005.1	
823.82	5224.4	
823.99	4227	
824.17	4154	
824.34	3048.1	
824.51	5881.1	
824.68	4675.5	
824.86	3220.8	
825.03	3517	
825.2	4606.6	
825.37	5511.8	
825.55	3164.1	
825.72	3456.3	
825.89	5915.9	
826.06	5520.6	
826.24	3386	
826.41	3420.1	
826.58	5481.7	
826.75	4818.2	
826.92	2786.6	
827.1	3036.5	
827.27	7344.7	
827.44	5896.1	
827.61	3277.4	
827.79	3869.3	
827.96	4414.7	
828.13	4604.5	
828.3	3431	
828.47	2929.3	
828.65	4880.3	
828.82	4739.7	
828.99	4257.7	
829.16	3788.7	
829.34	5131.5	
829.51	4961.5	
829.68	3505.4	
829.85	3583.3	
830.02	5371.1	
830.2	5105.6	
830.37	2761.3	
830.54	4182.6	
830.71	5842.9	
830.88	4635.9	
831.05	2768.9	
831.23	3183.2	
831.4	5607.3	
831.57	6180.1	
831.74	3226.2	
831.91	2923.8	
832.09	4926.7	
832.26	5138.4	
832.43	3325.9	
832.6	3751.9	
832.77	4896.7	
832.94	5466.7	
833.12	2725.2	
833.29	3314.3	
833.46	4956.1	
833.63	6332.3	
833.8	3646.1	
833.97	3336.1	
834.15	5218.2	
834.32	5000.5	
834.49	3519.1	
834.66	3534.1	
834.83	5334.3	
835	4430.4	
835.17	3253.5	
835.35	3242.6	
835.52	5078.3	
835.69	4900.8	
835.86	3429	
836.03	2826.9	
836.2	5184.1	
836.37	4811.4	
836.55	3336.1	
836.72	3158	
836.89	4769	
837.06	5229.8	
837.23	3388	
837.4	3644.7	
837.57	5875.6	
837.75	6320	
837.92	3089.7	
838.09	3276.1	
838.26	4821.6	
838.43	5345.9	
838.6	3472	
838.77	3194.1	
838.94	6025.8	
839.11	5791	
839.29	3360.7	
839.46	2703.3	
839.63	5152	
839.8	4885.8	
839.97	3196.2	
840.14	3237.2	
840.31	5002.5	
840.48	5152	
840.65	2752.5	
840.82	3261.7	
841	5049.6	
841.17	5051.7	
841.34	2966.8	
841.51	3087.7	
841.68	5128.1	
841.85	4864.6	
842.02	3147	
842.19	2607.1	
842.36	4915.1	
842.53	4957.4	
842.7	3072.6	
842.87	3663.1	
843.05	6322.1	
843.22	4857.8	
843.39	2853.5	
843.56	3078.8	
843.73	4723.3	
843.9	5277.6	
844.07	4743.8	
844.24	3999.7	
844.41	7207.5	
844.58	4521.2	
844.75	2940.2	
844.92	3142.9	
845.09	5100.1	
845.26	5169.1	
845.43	3037.8	
845.6	3205.1	
845.77	5172.5	
845.94	4889.2	
846.12	3310.2	
846.29	3485	
846.46	5310.4	
846.63	5139.7	
846.8	3007.8	
846.97	3515	
847.14	5489.2	
847.31	5128.1	
847.48	3382.6	
847.65	3698.6	
847.82	5322	
847.99	5261.2	
848.16	3915.7	
848.33	3630.4	
848.5	4788.8	
848.67	5526.1	
848.84	2981.8	
849.01	3113.6	
849.18	4693.9	
849.35	4384.7	
849.52	3697.3	
849.69	2959.3	
849.86	5339.1	
850.03	5423.7	
850.2	3005.1	
850.37	3637.2	
850.54	5366.4	
850.71	4833.2	
850.88	3548.4	
851.05	2948.4	
851.22	5040.1	
851.39	5559.6	
851.56	2788	
851.73	3404.4	
851.9	4556.7	
852.07	5313.8	
852.24	3304.7	
852.41	2992.1	
852.58	5007.3	
852.75	4659.8	
852.92	3347.7	
853.09	2939.5	
853.26	4767	
853.43	5468.1	
853.6	2985.9	
853.77	2578.4	
853.94	5519.3	
854.11	4539.7	
854.28	4342.4	
854.44	3278.1	
854.61	5905.7	
854.78	5385.5	
854.95	2941.6	
855.12	3702	
855.29	4190.1	
855.46	5544.5	
855.63	2980.5	
855.8	4100.7	
855.97	4715.1	
856.14	5395.7	
856.31	4170.3	
856.48	3295.2	
856.65	4818.9	
856.82	4485.7	
856.99	2887	
857.16	3244.7	
857.33	6085.2	
857.49	4833.9	
857.66	3228.3	
857.83	3486.3	
858	4929.5	
858.17	4995	
858.34	2889	
858.51	2993.4	
858.68	5641.5	
858.85	5692.7	
859.02	3436.5	
859.19	3671.3	
859.36	4574.5	
859.52	4560.1	
859.69	3066.5	
859.86	3489.7	
860.03	4610.7	
860.2	5556.1	
860.37	2729.9	
860.54	3008.5	
860.71	5281.7	
860.88	5608	
861.05	3380.5	
861.21	3728.7	
861.38	5656.5	
861.55	4425	
861.72	2746.3	
861.89	3362.8	
862.06	5350	
862.23	5705	
862.4	2904.7	
862.56	3094.5	
862.73	5212.1	
862.9	4896.7	
863.07	3506.1	
863.24	2755.2	
863.41	4493.9	
863.58	4571.1	
863.75	3025.5	
863.91	3500.7	
864.08	5502.2	
864.25	5254.4	
864.42	3714.3	
864.59	4130.8	
864.76	5869.5	
864.93	4554.7	
865.09	2960.7	
865.26	3212.6	
865.43	5478.3	
865.6	5778.7	
865.77	2646.7	
865.94	2951.1	
866.1	5529.5	
866.27	5302.2	
866.44	4431.1	
866.61	2848.7	
866.78	4867.3	
866.95	5259.9	
867.11	2902.7	
867.28	2710.8	
867.45	5395	
867.62	4528.7	
867.79	3446	
867.96	3020.8	
868.12	4560.8	
868.29	5339.1	
868.46	2975	
868.63	3935.5	
868.8	5421	
868.97	5291.3	
869.13	3119.7	
869.3	3123.2	
869.47	5192.3	
869.64	5371.1	
869.81	2979.8	
869.97	3030.3	
870.14	5091.3	
870.31	5657.9	
870.48	2921.8	
870.65	3700	
870.81	4825.7	
870.98	4842.8	
871.15	3379.1	
871.32	3116.3	
871.48	5211.4	
871.65	5726.1	
871.82	2963.4	
871.99	3265.1	
872.16	5987.6	
872.32	5536.3	
872.49	3076.7	
872.66	3070.6	
872.83	5343.8	
872.99	4713.7	
873.16	3390.1	
873.33	2967.5	
873.5	4996.4	
873.67	4983.4	
873.83	3120.4	
874	3908.2	
874.17	5158.2	
874.34	5936.4	
874.5	3822.2	
874.67	3691.8	
874.84	5578	
875.01	4432.5	
875.17	4119.1	
875.34	2994.1	
875.51	5051	
875.68	6012.2	
875.84	3570.3	
876.01	4306.2	
876.18	5264.6	
876.34	5191.6	
876.51	3093.8	
876.68	2981.8	
876.85	4834.6	
877.01	5527.5	
877.18	4198.3	
877.35	2990	
877.52	5047.6	
877.68	4470.7	
877.85	2917	
878.02	2937.5	
878.18	4854.4	
878.35	4726.7	
878.52	2486.2	
878.69	3352.5	
878.85	5324.7	
879.02	5238.7	
879.19	4192.2	
879.35	3244	
879.52	5276.3	
879.69	5409.4	
879.86	2628.9	
880.02	3316.3	
880.19	4886.5	
880.36	5880.4	
880.52	3417.4	
880.69	3603.1	
880.86	5363.6	
881.02	5382.7	
881.19	3236.5	
881.36	3239.2	
881.52	5195	
881.69	4730.8	
881.86	3200.3	
882.02	3094.5	
882.19	5486.5	
882.36	6299.6	
882.52	3107.5	
882.69	4156.7	
882.86	5096.7	
883.02	5044.1	
883.19	3597.6	
883.36	3389.4	
883.52	5370.5	
883.69	5967.8	
883.86	3039.9	
884.02	2737.5	
884.19	5301.5	
884.36	4928.8	
884.52	3362.1	
884.69	3201.7	
884.86	4802.5	
885.02	5778	
885.19	3317.7	
885.36	3435.8	
885.52	4899.4	
885.69	5095.3	
885.86	4297.3	
886.02	3808.5	
886.19	5281.7	
886.35	4827.7	
886.52	3285.6	
886.69	4111.6	
886.85	4552.6	
887.02	5589.6	
887.19	5589.6	
887.35	5589.6	
887.52	5589.6	
887.68	5589.6	
887.85	5589.6	
888.02	5589.6	
888.18	5589.6	
888.35	5589.6	
888.51	5589.6	
888.68	5589.6	
888.85	5589.6	
889.01	5589.6	
889.18	5589.6	
889.35	5589.6	
889.51	5589.6	
889.68	5589.6	
889.84	5589.6	
890.01	5589.6	
890.17	5589.6	
890.34	5589.6	
890.51	5589.6	
890.67	5589.6	
890.84	5589.6	
891	5589.6	
891.17	5589.6	
891.34	5589.6	
891.5	5589.6	
891.67	5589.6	
891.83	5589.6	
892	5589.6	
892.16	5589.6	
892.33	5589.6	
892.5	5589.6	
892.66	5589.6	
892.83	5589.6	
892.99	5589.6	
893.16	5589.6	
893.32	5589.6	
893.49	5589.6	
893.65	5589.6	
893.82	5589.6	
893.99	5589.6	
894.15	5589.6	
894.32	5589.6	
894.48	5589.6	
894.65	5589.6	
894.81	5589.6	
894.98	5589.6	
895.14	5589.6	
895.31	5589.6	
895.47	5589.6	
895.64	5589.6	
895.81	5589.6	
895.97	5589.6	
896.14	5589.6	
896.3	5589.6	
896.47	5589.6	
896.63	5589.6	
896.8	5589.6	
896.96	5589.6	
897.13	5589.6	
897.29	5589.6	
897.46	5589.6	
897.62	5589.6	
897.79	5589.6	
897.95	5589.6	
898.12	5589.6	
898.28	5589.6	
898.45	5589.6	
898.61	5589.6	
898.78	5589.6	
898.94	5589.6	
899.11	5589.6	
899.27	5589.6	
899.44	5589.6	
899.6	5589.6	
899.77	5589.6	
899.93	5589.6	
900.1	5589.6	
900.26	5589.6	
900.43	5589.6	
900.59	5589.6	
900.76	5589.6	
900.92	5589.6	
901.09	5589.6	
901.25	5589.6	
901.42	5589.6	
901.58	5589.6	
901.75	5589.6	
901.91	5589.6	
902.07	5589.6	
902.24	5589.6	
902.4	5589.6	
902.57	5589.6	
902.73	5589.6	
902.9	5589.6	
903.06	5589.6	
903.23	5589.6	
903.39	5589.6	
903.56	5589.6	
903.72	5589.6	
903.88	5589.6	
904.05	5589.6	
904.21	5589.6	
904.38	5589.6	
904.54	5589.6	
904.71	5589.6	
904.87	5589.6	
905.03	5589.6	
905.2	5589.6	
905.36	5589.6	
905.53	5589.6	
905.69	5589.6	
905.86	5589.6	
906.02	5589.6	
906.18	5589.6	
906.35	5589.6	
906.51	5589.6	
906.68	5589.6	
906.84	5589.6	
907.01	5589.6	
907.17	5589.6	
907.33	5589.6	
907.5	5589.6	
907.66	5589.6	
907.83	5589.6	
907.99	5589.6	
908.15	5589.6	
908.32	5589.6	
908.48	5589.6	
908.65	5589.6	
908.81	5589.6	
908.97	5589.6	
909.14	5589.6	
909.3	5589.6	
909.47	5589.6	
909.63	5589.6	
909.79	5589.6	
909.96	5589.6	
910.12	5589.6	
910.28	5589.6	
910.45	5589.6	
910.61	5589.6	
910.78	5589.6	
910.94	5589.6	
911.1	5589.6	
911.27	5589.6	
911.43	5589.6	
911.59	5589.6	
911.76	5589.6	
911.92	5589.6	
912.08	5589.6	
912.25	5589.6	
912.41	5589.6	
912.57	5589.6	
912.74	5589.6	
912.9	5589.6	
913.07	5589.6	
913.23	5589.6	
913.39	5589.6	
913.56	5589.6	
913.72	5589.6	
913.88	5589.6	
914.05	5589.6	
914.21	5589.6	
914.37	5589.6	
914.54	5589.6	
914.7	5589.6	
914.86	5589.6	
915.03	5589.6	
915.19	5589.6	
