Wavelength	Intensities	
nm	a.u.	
179.22	1905.6	
179.44	1895.1	
179.65	1916.2	
179.86	1873.9	
180.08	1874.6	
180.29	4825.7	
180.51	3412.6	
180.72	5644.9	
180.94	6559	
181.15	3223.5	
181.37	3153.2	
181.58	5471.5	
181.79	5766.4	
182.01	3333.4	
182.22	3597.6	
182.44	5666	
182.65	4741	
182.87	4577.2	
183.08	3970.3	
183.29	6019.7	
183.51	4954	
183.72	3568.9	
183.94	5278.3	
184.15	5340.4	
184.37	5358.9	
184.58	3187.3	
184.79	4297.3	
185.01	4928.8	
185.22	5663.3	
185.44	4602.5	
185.65	3862.5	
185.86	5282.4	
186.08	4880.3	
186.29	3065.8	
186.51	3364.1	
186.72	5006.6	
186.94	5909.8	
187.15	3894.6	
187.36	3945.1	
187.58	7633.5	
187.79	5391.6	
188.01	4158.1	
188.22	6412.2	
188.43	6565.1	
188.65	5655.1	
188.86	3308.8	
189.08	3920.5	
189.29	5182	
189.5	5122.7	
189.72	3674.7	
189.93	3734.1	
190.15	5917.3	
190.36	7126.9	
190.57	4016.1	
190.79	3938.2	
191	5988.9	
191.22	5872.2	
191.43	4050.9	
191.64	3261.7	
191.86	6155.5	
192.07	5926.1	
192.29	3481.5	
192.5	3677.5	
192.71	5924.8	
192.93	5095.3	
193.14	3629.7	
193.35	3733.4	
193.57	5061.2	
193.78	5823.1	
194	2921.1	
194.21	3582.6	
194.42	4899.4	
194.64	5362.3	
194.85	4003.8	
195.07	4686.4	
195.28	5457.8	
195.49	4682.3	
195.71	4904.2	
195.92	3440.6	
196.13	5574.6	
196.35	5657.9	
196.56	5187.5	
196.78	3952.6	
196.99	6972.7	
197.2	6502.3	
197.42	4496	
197.63	4005.8	
197.84	4810.7	
198.06	5556.1	
198.27	3684.3	
198.48	4910.3	
198.7	5045.5	
198.91	5232.6	
199.13	3980.6	
199.34	4033.8	
199.55	5716.6	
199.77	4711.7	
199.98	3581.2	
200.19	4074.8	
200.41	5261.9	
200.62	4930.1	
200.83	4173.1	
201.05	4483	
201.26	5274.9	
201.47	5012.1	
201.69	3560.1	
201.9	3400.3	
202.11	5319.9	
202.33	6317.3	
202.54	3776.5	
202.76	4311.7	
202.97	5474.2	
203.18	5514.5	
203.4	4171.7	
203.61	4070.7	
203.82	5365	
204.04	5018.2	
204.25	4072.7	
204.46	3984	
204.68	5330.2	
204.89	5605.3	
205.1	3914.4	
205.32	3397.6	
205.53	5792.3	
205.74	5908.4	
205.96	2910.2	
206.17	4065.2	
206.38	5724.1	
206.6	5892	
206.81	4579.9	
207.02	3735.5	
207.24	5619.6	
207.45	5991.7	
207.66	3807.2	
207.88	3276.1	
208.09	5510.4	
208.3	5342.5	
208.52	3482.2	
208.73	3960.8	
208.94	5332.9	
209.15	6153.5	
209.37	3820.1	
209.58	3973.1	
209.79	5862.7	
210.01	5152	
210.22	3047.4	
210.43	3142.3	
210.65	5395	
210.86	5791.7	
211.07	3795.6	
211.29	3525.2	
211.5	5735.7	
211.71	5297.4	
211.93	3512.3	
212.14	3502.7	
212.35	5271.5	
212.56	5543.2	
212.78	4007.2	
212.99	3323.9	
213.2	6301.6	
213.42	5121.3	
213.63	3648.8	
213.84	3897.3	
214.06	4756.7	
214.27	4807.3	
214.48	3773	
214.69	4035.2	
214.91	6020.3	
215.12	6068.8	
215.33	4113.7	
215.55	4520.5	
215.76	6589.7	
215.97	5762.3	
216.18	3908.9	
216.4	3893.9	
216.61	5057.8	
216.82	5864.7	
217.04	3506.8	
217.25	3665.2	
217.46	6010.8	
217.67	5758.2	
217.89	3138.9	
218.1	3282.9	
218.31	5416.9	
218.53	5535.7	
218.74	3647.4	
218.95	3562.8	
219.16	5348.6	
219.38	6266.1	
219.59	3587.4	
219.8	4224.3	
220.01	6890.7	
220.23	5420.3	
220.44	4696.7	
220.65	3474	
220.87	5430.5	
221.08	5948	
221.29	3244.7	
221.5	4376.5	
221.72	7270.3	
221.93	5058.5	
222.14	4050.2	
222.35	4741	
222.57	5380	
222.78	5740.5	
222.99	3824.2	
223.2	4066.6	
223.42	5634.6	
223.63	5775.3	
223.84	2893.1	
224.05	2954.5	
224.27	6859.3	
224.48	6221	
224.69	4779.3	
224.9	4029	
225.12	5599.1	
225.33	5285.1	
225.54	3172.3	
225.75	3575.1	
225.97	4962.2	
226.18	5215.5	
226.39	3913.7	
226.6	3611.9	
226.82	5141.1	
227.03	4958.8	
227.24	3958	
227.45	3309.5	
227.67	5703.6	
227.88	6262	
228.09	4527.4	
228.3	4459.1	
228.52	5767.8	
228.73	5317.9	
228.94	3719.8	
229.15	3317	
229.36	5320.6	
229.58	5218.9	
229.79	3741	
230	4357.4	
230.21	6346	
230.43	5425.8	
230.64	4004.5	
230.85	4138.3	
231.06	5812.1	
231.28	5831.2	
231.49	3312.9	
231.7	3893.9	
231.91	5690.6	
232.12	5396.4	
232.34	3379.1	
232.55	3907.5	
232.76	5922	
232.97	5500.8	
233.18	3507.5	
233.4	3971	
233.61	5579.3	
233.82	5165	
234.03	3688.4	
234.25	3620.1	
234.46	7393.8	
234.67	5394.3	
234.88	4121.2	
235.09	3534.8	
235.31	5651.7	
235.52	5189.6	
235.73	3961.5	
235.94	3346.4	
236.15	5087.2	
236.37	6526.2	
236.58	3514.3	
236.79	3806.5	
237	5672.9	
237.21	4881	
237.43	4121.2	
237.64	3232.4	
237.85	9742.2	
238.06	4964.3	
238.27	4160.1	
238.48	3329.3	
238.7	5737.7	
238.91	5173.2	
239.12	3790.8	
239.33	3853.6	
239.54	5003.9	
239.76	5274.9	
239.97	3740.3	
240.18	3821.5	
240.39	6683.9	
240.6	5603.2	
240.82	3973.7	
241.03	3271.3	
241.24	5358.9	
241.45	6219.7	
241.66	3513.6	
241.87	4119.1	
242.09	6050.4	
242.3	6431.3	
242.51	4160.8	
242.72	3855.6	
242.93	5865.4	
243.14	5315.8	
243.36	4416.8	
243.57	4775.9	
243.78	6221.7	
243.99	5762.3	
244.2	3924.6	
244.41	3503.4	
244.63	4906.9	
244.84	5734.3	
245.05	4109.6	
245.26	3824.2	
245.47	5657.2	
245.68	5946.6	
245.9	5035.3	
246.11	4012	
246.32	5218.9	
246.53	5612.1	
246.74	6305	
246.95	3298.6	
247.16	4910.3	
247.38	5308.3	
247.59	3208.5	
247.8	3853.6	
248.01	5014.1	
248.22	5298.8	
248.43	3478.1	
248.64	3748.5	
248.86	4743.8	
249.07	5134.3	
249.28	3346.4	
249.49	3917.1	
249.7	5892.7	
249.91	6040.1	
250.12	3205.8	
250.34	3272.7	
250.55	5436	
250.76	5375.2	
250.97	3990.8	
251.18	4009.2	
251.39	6070.9	
251.6	5517.2	
251.81	4057.7	
252.03	4024.9	
252.24	5055.8	
252.45	5865.4	
252.66	3343.7	
252.87	4262.5	
253.08	5410.7	
253.29	7081.2	
253.5	3358.7	
253.72	4672.8	
253.93	5255.8	
254.14	6313.9	
254.35	3681.6	
254.56	3723.2	
254.77	5617.6	
254.98	4971.8	
255.19	3585.3	
255.41	4629.1	
255.62	5468.8	
255.83	6032	
256.04	4119.8	
256.25	4027.7	
256.46	6601.3	
256.67	5060.5	
256.88	3968.3	
257.09	4371	
257.31	5108.3	
257.52	5057.8	
257.73	5023	
257.94	3583.9	
258.15	5178.6	
258.36	5431.2	
258.57	4627	
258.78	2907.4	
258.99	5878.4	
259.2	5201.2	
259.41	3686.3	
259.63	3764.2	
259.84	6186.9	
260.05	6640.2	
260.26	4859.8	
260.47	3567.6	
260.68	5990.3	
260.89	5241.4	
261.1	4416.8	
261.31	3437.2	
261.52	5948.7	
261.73	6348.7	
261.95	4719.9	
262.16	4132.8	
262.37	6123.4	
262.58	6144.6	
262.79	4717.8	
263	3800.3	
263.21	5352.7	
263.42	4896	
263.63	3781.9	
263.84	3715	
264.05	5899.5	
264.26	6260	
264.47	4632.5	
264.69	4151.9	
264.9	6110.5	
265.11	5581.4	
265.32	3545.7	
265.53	3643.3	
265.74	5494	
265.95	4769.7	
266.16	3891.1	
266.37	4323.3	
266.58	5480.4	
266.79	5208	
267	3633.1	
267.21	3406.5	
267.42	4969.1	
267.63	5380	
267.84	3855.6	
268.06	3305.4	
268.27	5735	
268.48	6110.5	
268.69	3765.5	
268.9	4502.1	
269.11	6130.3	
269.32	4913.8	
269.53	3891.1	
269.74	3591.5	
269.95	5740.5	
270.16	4726.7	
270.37	3790.1	
270.58	4429.8	
270.79	5165.7	
271	5904.3	
271.21	4160.8	
271.42	3885.7	
271.63	5535.7	
271.84	4925.4	
272.05	3062.4	
272.26	3477.5	
272.47	5399.1	
272.68	5545.2	
272.89	3689.1	
273.11	4272.7	
273.32	5140.4	
273.53	6383.5	
273.74	4156.7	
273.95	4081.6	
274.16	5993	
274.37	5396.4	
274.58	4230.4	
274.79	3321.1	
275	5525.4	
275.21	5963	
275.42	5053	
275.63	4332.8	
275.84	5592.3	
276.05	7120.8	
276.26	4045.4	
276.47	3768.3	
276.68	5218.2	
276.89	6344.6	
277.1	4358.8	
277.31	3364.1	
277.52	5667.4	
277.73	5813.5	
277.94	3293.1	
278.15	3732.1	
278.36	5578	
278.57	5039.4	
278.78	3680.2	
278.99	4174.4	
279.2	4984.1	
279.41	4951.3	
279.62	4846.9	
279.83	3401	
280.04	6580.1	
280.25	4933.6	
280.46	4818.9	
280.67	3822.9	
280.88	5013.4	
281.09	6021	
281.3	3998.3	
281.51	5143.1	
281.72	5875.6	
281.93	5887.9	
282.14	3596.9	
282.35	3901.4	
282.56	5881.8	
282.77	5787.6	
282.98	3748.5	
283.19	4575.8	
283.4	7210.9	
283.61	5280.3	
283.82	3365.5	
284.03	4799.8	
284.24	5475.6	
284.45	6012.2	
284.66	4717.8	
284.87	4549.9	
285.08	5945.3	
285.29	6152.1	
285.5	3248.1	
285.71	3799.7	
285.92	5937.7	
286.12	6688.7	
286.33	4700.1	
286.54	3743.7	
286.75	5861.3	
286.96	5216.9	
287.17	3424.9	
287.38	4696	
287.59	5019.6	
287.8	4929.5	
288.01	3738.9	
288.22	4370.4	
288.43	5894.7	
288.64	4912.4	
288.85	4512.4	
289.06	4232.5	
289.27	5797.8	
289.48	6312.5	
289.69	4790.2	
289.9	4339.6	
290.11	6059.9	
290.32	5030.5	
290.53	4503.5	
290.74	4169.7	
290.94	5834	
291.15	5897.5	
291.36	3714.3	
291.57	4295.3	
291.78	5089.2	
291.99	4767.7	
292.2	3505.4	
292.41	4217.5	
292.62	5926.8	
292.83	5700.2	
293.04	5173.9	
293.25	3497.2	
293.46	5142.4	
293.67	5969.8	
293.88	3628.3	
294.09	3457	
294.29	4909.7	
294.5	5550.7	
294.71	3865.9	
294.92	3706.1	
295.13	5185.5	
295.34	6555.5	
295.55	3229	
295.76	3314.3	
295.97	5758.2	
296.18	6516	
296.39	3435.8	
296.6	3621.5	
296.81	5466.7	
297.01	5817.6	
297.22	3741.6	
297.43	3591.5	
297.64	5030.5	
297.85	5004.6	
298.06	2927.2	
298.27	3203.7	
298.48	5406	
298.69	5053.7	
298.9	3881.6	
299.11	3500	
299.31	4952	
299.52	4910.3	
299.73	4162.2	
299.94	4099.4	
300.15	5412.1	
300.36	5030.5	
300.57	4147.1	
300.78	4113	
300.99	5247.6	
301.2	5519.3	
301.4	3583.9	
301.61	3981.9	
301.82	5751.4	
302.03	5821.7	
302.24	4360.8	
302.45	3436.5	
302.66	5662.6	
302.87	6130.9	
303.08	3586.7	
303.29	4936.3	
303.49	5128.8	
303.7	5384.1	
303.91	3173.7	
304.12	4670.1	
304.33	4906.9	
304.54	5485.1	
304.75	3641.3	
304.96	3491.8	
305.16	5752.7	
305.37	6494.1	
305.58	3155.9	
305.79	3296.5	
306	5696.1	
306.21	4838	
306.42	3541.6	
306.63	5537	
306.83	5281.7	
307.04	5968.5	
307.25	3960.1	
307.46	3940.3	
307.67	4609.3	
307.88	5811.5	
308.09	3549.8	
308.29	3700.7	
308.5	5494	
308.71	5978	
308.92	3839.3	
309.13	3501.3	
309.34	5271.5	
309.55	5296.7	
309.75	4512.4	
309.96	4103.4	
310.17	5827.2	
310.38	5050.3	
310.59	4316.4	
310.8	3431.7	
311.01	6022.4	
311.21	5263.3	
311.42	3424.9	
311.63	3556.6	
311.84	5177.3	
312.05	5508.4	
312.26	4013.3	
312.46	4401.1	
312.67	5238.7	
312.88	4909.7	
313.09	3453.6	
313.3	3405.1	
313.51	6204.7	
313.71	6468.9	
313.92	3546.4	
314.13	3679.5	
314.34	5612.8	
314.55	5253.7	
314.76	4468.7	
314.96	3848.8	
315.17	5491.3	
315.38	5780.7	
315.59	3486.3	
315.8	3355.9	
316.01	6234	
316.21	6240.8	
316.42	3394.2	
316.63	3821.5	
316.84	5215.5	
317.05	6107	
317.26	4114.4	
317.46	3702	
317.67	5232.6	
317.88	5791	
318.09	4459.1	
318.3	3254.2	
318.5	5061.9	
318.71	5668.1	
318.92	5646.2	
319.13	4113.7	
319.34	5876.3	
319.54	5998.5	
319.75	3244	
319.96	3065.8	
320.17	5782.8	
320.38	5923.4	
320.58	3231	
320.79	3829	
321	5923.4	
321.21	6021	
321.42	3867.2	
321.62	3220.1	
321.83	5017.5	
322.04	5397.1	
322.25	3710.9	
322.46	3564.8	
322.66	5472.9	
322.87	5629.9	
323.08	4305.5	
323.29	3439.2	
323.5	6445	
323.7	4947.9	
323.91	4761.5	
324.12	4308.9	
324.33	5468.1	
324.53	5677.7	
324.74	4109.6	
324.95	4346.5	
325.16	4790.2	
325.37	5198.4	
325.57	3500.7	
325.78	3504.1	
325.99	5410.1	
326.2	4859.8	
326.4	4930.8	
326.61	3186	
326.82	5292.6	
327.03	5455.8	
327.24	4938.3	
327.44	4666.6	
327.65	5694.7	
327.86	4536.3	
328.07	4113.7	
328.27	3353.2	
328.48	6017.6	
328.69	4971.8	
328.9	5038.7	
329.1	3779.2	
329.31	5294.7	
329.52	6236.1	
329.73	3525.2	
329.93	3969.6	
330.14	5396.4	
330.35	5582.8	
330.56	5804.6	
330.76	4255	
330.97	5192.3	
331.18	5590.3	
331.39	3866.6	
331.59	3158.7	
331.8	6021.7	
332.01	6094.8	
332.22	3564.8	
332.42	4145.1	
332.63	5475.6	
332.84	5043.5	
333.05	3895.2	
333.25	3580.5	
333.46	5165.7	
333.67	5421	
333.88	3669.3	
334.08	4085	
334.29	7194.5	
334.5	5995.8	
334.7	3416.7	
334.91	4943.1	
335.12	4987.5	
335.33	5840.1	
335.53	3837.2	
335.74	5771.9	
335.95	5215.5	
336.16	5031.2	
336.36	3947.1	
336.57	4502.8	
336.78	4868	
336.98	5962.3	
337.19	4760.8	
337.4	3758.7	
337.61	6496.8	
337.81	5001.8	
338.02	3550.5	
338.23	4594.3	
338.43	6110.5	
338.64	5002.5	
338.85	3502	
339.05	4597	
339.26	6249.7	
339.47	4832.5	
339.68	3518.4	
339.88	5139.7	
340.09	5609.4	
340.3	5901.6	
340.5	4116.4	
340.71	3215.3	
340.92	4885.8	
341.13	6119.3	
341.33	3400.3	
341.54	4184.7	
341.75	5657.2	
341.95	5248.9	
342.16	3973.7	
342.37	4278.2	
342.57	4950.6	
342.78	5326.8	
342.99	4380.6	
343.19	3139.5	
343.4	5868.1	
343.61	5618.9	
343.81	3785.3	
344.02	3407.1	
344.23	5816.9	
344.43	6235.4	
344.64	4313.7	
344.85	4245.4	
345.06	5646.9	
345.26	5976	
345.47	4086.4	
345.68	4698.7	
345.88	4760.8	
346.09	5855.8	
346.3	4072.7	
346.5	3112.9	
346.71	5335	
346.92	5060.5	
347.12	3233.7	
347.33	4064.5	
347.54	5883.8	
347.74	6247	
347.95	4062.5	
348.16	3000.3	
348.36	5181.4	
348.57	4990.2	
348.78	3936.2	
348.98	4311	
349.19	5268.7	
349.39	4878.3	
349.6	3170.9	
349.81	3560.1	
350.01	5573.2	
350.22	5054.4	
350.43	3807.9	
350.63	4647.5	
350.84	5442.1	
351.05	5154.7	
351.25	3491.8	
351.46	3188.7	
351.67	5887.9	
351.87	5065.3	
352.08	3765.5	
352.29	4229.1	
352.49	5784.8	
352.7	5954.8	
352.9	3417.4	
353.11	4160.1	
353.32	6430.6	
353.52	5145.2	
353.73	3380.5	
353.94	4313	
354.14	5625.1	
354.35	5505.6	
354.55	3439.2	
354.76	3879.5	
354.97	5547.9	
355.17	5334.3	
355.38	3287.7	
355.59	4536.9	
355.79	5003.2	
356	5379.3	
356.2	3839.3	
356.41	3304.1	
356.62	4750.6	
356.82	5210	
357.03	4091.8	
357.24	3668.6	
357.44	5035.3	
357.65	5122	
357.85	4894.6	
358.06	3906.8	
358.27	4758.1	
358.47	4965	
358.68	3198.9	
358.88	3996.3	
359.09	5497.4	
359.3	5914.5	
359.5	4720.6	
359.71	4180.6	
359.91	6355.5	
360.12	5710.4	
360.33	4029.7	
360.53	4481	
360.74	4988.2	
360.94	5063.9	
361.15	4213.4	
361.36	3491.8	
361.56	5769.8	
361.77	5183.4	
361.97	4630.5	
362.18	3685.7	
362.38	5767.1	
362.59	4777.9	
362.8	3390.1	
363	3206.4	
363.21	4625.7	
363.41	5281	
363.62	3859.7	
363.83	4880.3	
364.03	5354.8	
364.24	6328.9	
364.44	4906.9	
364.65	4870.8	
364.85	5094.7	
365.06	4939.7	
365.27	3487.7	
365.47	3521.8	
365.68	6130.3	
365.88	5061.9	
366.09	3935.5	
366.29	3511.6	
366.5	5316.5	
366.71	5732.9	
366.91	4840.7	
367.12	4034.5	
367.32	6299.6	
367.53	5603.2	
367.73	3994.2	
367.94	4859.1	
368.14	5525.4	
368.35	6423.1	
368.56	3971.7	
368.76	3345	
368.97	5637.4	
369.17	7352.9	
369.38	3512.9	
369.58	3730.7	
369.79	4742.4	
369.99	6023.1	
370.2	4742.4	
370.4	3808.5	
370.61	5357.5	
370.82	6496.8	
371.02	3662.5	
371.23	3110.2	
371.43	4605.2	
371.64	5913.9	
371.84	3715	
372.05	4880.3	
372.25	7197.9	
372.46	5616.2	
372.66	3692.5	
372.87	3674.1	
373.07	5681.1	
373.28	7217	
373.48	4649.6	
373.69	4345.8	
373.9	5059.2	
374.1	5160.9	
374.31	4529.4	
374.51	4076.1	
374.72	5902.2	
374.92	4783.4	
375.13	4750.6	
375.33	3987.4	
375.54	5395	
375.74	4939.7	
375.95	3921.9	
376.15	5180	
376.36	5421	
376.56	5240.8	
376.77	3921.2	
376.97	4414.1	
377.18	6410.1	
377.38	5511.1	
377.59	4753.3	
377.79	3489.1	
378	5233.9	
378.2	5653.1	
378.41	3545	
378.61	3461.1	
378.82	5713.8	
379.02	4840	
379.23	3691.8	
379.43	4741	
379.64	5751.4	
379.84	5428.5	
380.05	3543	
380.25	3414	
380.46	5541.1	
380.66	5128.8	
380.87	4776.5	
381.07	5166.3	
381.28	6110.5	
381.48	5522.7	
381.69	3547.1	
381.89	3572.3	
382.1	4577.2	
382.3	5722	
382.51	4582.7	
382.71	5566.4	
382.91	5507.7	
383.12	6052.4	
383.32	3919.1	
383.53	4128.7	
383.73	5430.5	
383.94	5262.6	
384.14	4029.7	
384.35	3269.9	
384.55	5143.1	
384.76	5619.6	
384.96	3921.2	
385.17	4288.4	
385.37	5629.9	
385.58	4863.2	
385.78	4301.4	
385.98	3181.2	
386.19	5068	
386.39	5450.3	
386.6	3697.9	
386.8	3925.3	
387.01	5506.3	
387.21	5553.4	
387.42	4302.8	
387.62	4851	
387.83	4895.3	
388.03	5427.1	
388.23	3917.1	
388.44	4676.2	
388.64	4619.5	
388.85	4659.1	
389.05	4214	
389.26	4826.4	
389.46	6499.6	
389.67	5862.7	
389.87	4181.3	
390.07	4304.1	
390.28	5094.7	
390.48	4750.6	
390.69	3493.2	
390.89	3728	
391.1	4892.6	
391.3	5772.5	
391.5	4897.4	
391.71	5490.6	
391.91	5550	
392.12	6469.5	
392.32	4949.9	
392.53	4197.7	
392.73	4984.1	
392.93	5193	
393.14	3895.2	
393.34	4709	
393.55	5644.2	
393.75	5123.3	
393.95	3934.1	
394.16	3833.8	
394.36	4919.9	
394.57	5568.4	
394.77	3377.1	
394.98	3820.8	
395.18	4851.6	
395.38	4991.6	
395.59	4638.6	
395.79	3543	
396	4961.5	
396.2	5403.9	
396.4	4321.9	
396.61	4287.8	
396.81	5589.6	
397.02	4820.2	
397.22	4588.8	
397.42	4653	
397.63	5461.9	
397.83	4709.6	
398.04	3495.2	
398.24	3996.3	
398.44	5216.9	
398.65	4391.5	
398.85	3371	
399.05	3424.2	
399.26	4700.1	
399.46	6374.6	
399.67	3769.6	
399.87	3485.6	
400.07	5002.5	
400.28	5274.2	
400.48	3585.3	
400.69	4502.8	
400.89	5555.5	
401.09	5939.1	
401.3	3396.2	
401.5	4486.4	
401.7	6079.7	
401.91	6436.1	
402.11	3719.8	
402.32	3997	
402.52	5575.9	
402.72	5550.7	
402.93	4239.3	
403.13	3188	
403.33	6348	
403.54	5147.9	
403.74	3956	
403.94	4862.6	
404.15	5210.7	
404.35	6288.6	
404.56	3766.9	
404.76	5541.8	
404.96	5544.5	
405.17	5375.9	
405.37	5280.3	
405.57	4208.6	
405.78	5544.5	
405.98	5087.8	
406.18	3720.5	
406.39	4601.8	
406.59	5577.3	
406.79	5179.3	
407	3472	
407.2	3639.2	
407.4	5584.8	
407.61	5662.6	
407.81	3512.3	
408.01	5607.3	
408.22	4463.2	
408.42	6331.6	
408.62	4474.1	
408.83	3933.5	
409.03	4943.1	
409.23	4788.2	
409.44	3920.5	
409.64	4226.3	
409.84	5709.1	
410.05	5571.8	
410.25	3964.2	
410.45	3775.1	
410.66	4998.4	
410.86	7449.1	
411.06	3975.8	
411.27	3924.6	
411.47	7001.3	
411.67	5096.7	
411.88	4128	
412.08	4285.7	
412.28	5698.1	
412.49	6167.1	
412.69	3788.7	
412.89	3790.8	
413.09	5950.7	
413.3	5833.3	
413.5	3829	
413.7	3500.7	
413.91	5130.8	
414.11	5923.4	
414.31	3663.1	
414.52	4048.2	
414.72	5550.7	
414.92	5369.1	
415.12	3699.3	
415.33	4151.9	
415.53	5763	
415.73	6003.3	
415.94	4479.6	
416.14	3901.4	
416.34	4871.4	
416.55	4694.6	
416.75	5068	
416.95	4461.2	
417.15	5750	
417.36	6524.8	
417.56	5188.2	
417.76	4270.7	
417.97	6087.9	
418.17	5733.6	
418.37	3888.4	
418.57	3969	
418.78	5473.5	
418.98	5283.8	
419.18	4828.4	
419.38	4764.9	
419.59	5216.9	
419.79	4970.4	
419.99	3842.7	
420.2	4201.7	
420.4	5730.9	
420.6	5936.4	
420.8	3729.4	
421.01	3676.8	
421.21	5545.9	
421.41	5694.7	
421.61	4076.8	
421.82	3853.6	
422.02	5108.3	
422.22	6074.3	
422.42	4536.9	
422.63	4338.3	
422.83	5290.6	
423.03	6372.6	
423.23	4388.1	
423.44	3405.8	
423.64	5287.2	
423.84	5104.9	
424.04	3810.6	
424.25	3442	
424.45	6293.4	
424.65	6164.4	
424.85	3331.4	
425.06	3882.3	
425.26	6181.5	
425.46	4862.6	
425.66	4285	
425.87	4079.6	
426.07	5972.6	
426.27	5928.9	
426.47	4170.3	
426.67	3642.7	
426.88	6358.9	
427.08	5838.1	
427.28	4365.6	
427.48	3588.7	
427.69	4857.1	
427.89	5438.7	
428.09	4351.3	
428.29	3618.8	
428.5	6092.7	
428.7	5637.4	
428.9	3392.1	
429.1	4005.1	
429.3	5488.6	
429.51	5924.1	
429.71	3812.6	
429.91	4517.1	
430.11	5761.6	
430.31	6283.9	
430.52	4018.8	
430.72	4248.9	
430.92	6300.9	
431.12	5768.4	
431.32	3633.8	
431.53	4086.4	
431.73	4746.5	
431.93	6412.9	
432.13	3602.4	
432.33	3443.3	
432.54	5168.4	
432.74	5451.7	
432.94	3394.2	
433.14	4412	
433.34	5637.4	
433.55	5141.8	
433.75	4258.4	
433.95	5950.7	
434.15	5478.3	
434.35	5042.8	
434.56	3532.7	
434.76	3044	
434.96	5335.6	
435.16	5550	
435.36	3351.2	
435.56	4453	
435.77	4924	
435.97	5115.1	
436.17	5061.2	
436.37	4365.6	
436.57	4956.8	
436.78	4807.9	
436.98	6142.5	
437.18	4919.9	
437.38	5476.3	
437.58	5135.6	
437.78	5041.4	
437.99	3828.3	
438.19	5690.6	
438.39	6414.9	
438.59	3680.9	
438.79	3330	
438.99	6253.8	
439.2	5141.8	
439.4	3394.8	
439.6	3340.9	
439.8	5406	
440	6392.4	
440.2	4227	
440.4	4318.5	
440.61	5684.5	
440.81	6190.3	
441.01	3390.8	
441.21	4156.7	
441.41	5978.7	
441.61	5709.1	
441.81	4415.4	
442.02	5427.8	
442.22	6531.7	
442.42	5728.9	
442.62	3332	
442.82	3482.9	
443.02	5971.2	
443.22	5113.1	
443.43	3742.3	
443.63	3349.1	
443.83	4973.2	
444.03	4966.3	
444.23	4445.5	
444.43	4059.1	
444.63	5238.7	
444.83	6419	
445.04	3407.8	
445.24	4633.2	
445.44	5657.2	
445.64	5651.7	
445.84	4287.1	
446.04	4218.1	
446.24	5025	
446.44	5991.7	
446.65	3562.8	
446.85	3874.1	
447.05	5238	
447.25	5987.6	
447.45	4001.7	
447.65	3334.1	
447.85	5391.6	
448.05	5068.7	
448.25	4315.8	
448.46	4080.9	
448.66	5346.6	
448.86	5096	
449.06	3241.9	
449.26	4392.9	
449.46	5592.3	
449.66	4849.6	
449.86	3710.2	
450.06	3776.5	
450.26	4962.2	
450.47	5515.9	
450.67	4181.3	
450.87	4360.1	
451.07	5571.8	
451.27	5325.4	
451.47	3383.2	
451.67	3846.1	
451.87	4992.9	
452.07	6189.6	
452.27	3521.8	
452.47	3592.8	
452.67	5351.3	
452.88	5784.1	
453.08	3094.5	
453.28	4829.8	
453.48	6460	
453.68	5314.5	
453.88	3474	
454.08	3709.6	
454.28	5561.6	
454.48	5221.6	
454.68	4149.2	
454.88	4709	
455.08	5707	
455.28	5331.5	
455.48	3366.9	
455.68	3837.2	
455.89	6024.4	
456.09	5685.8	
456.29	3596.9	
456.49	3581.9	
456.69	5855.1	
456.89	5179.3	
457.09	3990.8	
457.29	4313.7	
457.49	5415.5	
457.69	5530.9	
457.89	3719.1	
458.09	3219.4	
458.29	5080.3	
458.49	5814.2	
458.69	4039.3	
458.89	3487.7	
459.09	5917.3	
459.29	6098.2	
459.49	3684.3	
459.69	4401.8	
459.9	5567.7	
460.1	5000.5	
460.3	3633.8	
460.5	3384.6	
460.7	5465.3	
460.9	5208.7	
461.1	3063.1	
461.3	4211.3	
461.5	6049	
461.7	5662	
461.9	3253.5	
462.1	3807.9	
462.3	5088.5	
462.5	5664.7	
462.7	3377.1	
462.9	3357.3	
463.1	6580.1	
463.3	6173.3	
463.5	3447.4	
463.7	4269.3	
463.9	5150	
464.1	5544.5	
464.3	3437.2	
464.5	3738.9	
464.7	5709.7	
464.9	5251.7	
465.1	5014.8	
465.3	3999.7	
465.5	6034	
465.7	5880.4	
465.9	4194.9	
466.1	4141.7	
466.3	5594.4	
466.5	5646.2	
466.7	4799.1	
466.9	3813.3	
467.1	5472.2	
467.3	6375.3	
467.5	4669.4	
467.7	3572.3	
467.9	6557.6	
468.1	7343.3	
468.3	4454.3	
468.5	4746.5	
468.7	5347.2	
468.9	5326.8	
469.1	3863.2	
469.3	4420.2	
469.5	7187.7	
469.7	4900.8	
469.9	4408.6	
470.1	3594.9	
470.3	5302.2	
470.5	5336.3	
470.7	4881	
470.9	3720.5	
471.1	5097.4	
471.3	5625.8	
471.5	3505.4	
471.69	5382.7	
471.89	5089.9	
472.09	4639.3	
472.29	4284.4	
472.49	4834.6	
472.69	4788.8	
472.89	5608	
473.09	3418.7	
473.29	3736.2	
473.49	5063.3	
473.69	5218.9	
473.89	4603.8	
474.09	3878.2	
474.29	6410.8	
474.49	6107	
474.69	4601.8	
474.89	3961.5	
475.09	5214.1	
475.29	5109.7	
475.49	3462.4	
475.69	3597.6	
475.88	6848.4	
476.08	5496.1	
476.28	3343.7	
476.48	3892.5	
476.68	5998.5	
476.88	5833.3	
477.08	3775.8	
477.28	3973.7	
477.48	5392.3	
477.68	6133.7	
477.88	3530	
478.08	3909.6	
478.28	6253.1	
478.48	5485.8	
478.67	3843.4	
478.87	3424.9	
479.07	6019	
479.27	5591	
479.47	4123.9	
479.67	4120.5	
479.87	5887.2	
480.07	6345.3	
480.27	3365.5	
480.47	4940.4	
480.67	5614.2	
480.87	6111.1	
481.06	3628.3	
481.26	4354	
481.46	5549.3	
481.66	5412.1	
481.86	4068.6	
482.06	5110.4	
482.26	5242.1	
482.46	6316.6	
482.66	4052.2	
482.86	3612.6	
483.05	5566.4	
483.25	5078.3	
483.45	6382.2	
483.65	4006.5	
483.85	5114.5	
484.05	5374.6	
484.25	4397	
484.45	4785.4	
484.65	6345.3	
484.84	6113.9	
485.04	3902.7	
485.24	3833.8	
485.44	6356.9	
485.64	4912.4	
485.84	3137.5	
486.04	4457.1	
486.24	5169.8	
486.44	5601.2	
486.63	3142.9	
486.83	3809.2	
487.03	5029.8	
487.23	5177.3	
487.43	3189.4	
487.63	5404.6	
487.83	5215.5	
488.02	6082.5	
488.22	4045.4	
488.42	4520.5	
488.62	6083.8	
488.82	5003.9	
489.02	3726.6	
489.22	3616.7	
489.41	5870.8	
489.61	5442.1	
489.81	3416	
490.01	3459.7	
490.21	5754.8	
490.41	6414.2	
490.61	3370.3	
490.8	3530.7	
491	5272.8	
491.2	4813.4	
491.4	4135.5	
491.6	3340.9	
491.8	5386.2	
491.99	5545.9	
492.19	3183.9	
492.39	3540.3	
492.59	5827.2	
492.79	5773.9	
492.99	4246.1	
493.18	3373.7	
493.38	5869.5	
493.58	6444.3	
493.78	3919.1	
493.98	3567.6	
494.18	5488.6	
494.37	4882.4	
494.57	4001	
494.77	3893.9	
494.97	5496.7	
495.17	5667.4	
495.37	3430.3	
495.56	3786.7	
495.76	5793.7	
495.96	5476.3	
496.16	4512.4	
496.36	3500	
496.55	5648.3	
496.75	5137	
496.95	3870	
497.15	3718.4	
497.35	5602.6	
497.54	5498.1	
497.74	3579.8	
497.94	4917.9	
498.14	6195.1	
498.34	6024.4	
498.53	3168.9	
498.73	3947.1	
498.93	4913.1	
499.13	5502.9	
499.33	3620.1	
499.52	4323.3	
499.72	5342.5	
499.92	5765.7	
500.12	3300.6	
500.32	3599.6	
500.51	5659.2	
500.71	5379.3	
500.91	4319.8	
501.11	3997	
501.31	5539.8	
501.5	6023.1	
501.7	4580.6	
501.9	3644	
502.1	5426.4	
502.29	5695.4	
502.49	4027.7	
502.69	4524.6	
502.89	5615.5	
503.09	5586.2	
503.28	3238.5	
503.48	3394.2	
503.68	4988.9	
503.88	4908.3	
504.07	4309.6	
504.27	3837.9	
504.47	5268.1	
504.67	5496.7	
504.86	4224.3	
505.06	3964.9	
505.26	5138.4	
505.46	6787.7	
505.65	3906.2	
505.85	4153.3	
506.05	5150.6	
506.25	5638.7	
506.44	3351.8	
506.64	4353.3	
506.84	5116.5	
507.04	6042.9	
507.23	3558	
507.43	4140.3	
507.63	7083.2	
507.83	5243.5	
508.02	4127.3	
508.22	3771.7	
508.42	7250.5	
508.62	5109.7	
508.81	4083.6	
509.01	4562.9	
509.21	5079	
509.4	5315.8	
509.6	4226.3	
509.8	3601.7	
510	5253.7	
510.19	6599.2	
510.39	3598.3	
510.59	3640.6	
510.79	5044.1	
510.98	6256.5	
511.18	3657	
511.38	3842.7	
511.57	5874.9	
511.77	5723.4	
511.97	4482.3	
512.17	3538.2	
512.36	5807.4	
512.56	5811.5	
512.76	3577.8	
512.95	3389.4	
513.15	5968.5	
513.35	4675.5	
513.55	4364.2	
513.74	3641.3	
513.94	5855.1	
514.14	5257.8	
514.33	4481.6	
514.53	4177.9	
514.73	5298.8	
514.92	5390.3	
515.12	3673.4	
515.32	3571	
515.51	5464	
515.71	5969.1	
515.91	5177.3	
516.11	3548.4	
516.3	7006.8	
516.5	5079.6	
516.7	4095.3	
516.89	4682.3	
517.09	5253.7	
517.29	5147.2	
517.48	4336.9	
517.68	3816	
517.88	4934.9	
518.07	5535	
518.27	4344.4	
518.47	3400.3	
518.66	6046.3	
518.86	4823.6	
519.06	3329.3	
519.25	3662.5	
519.45	5102.9	
519.65	6427.2	
519.84	4342.4	
520.04	4893.3	
520.24	6804	
520.43	5741.1	
520.63	4046.8	
520.83	3801.7	
521.02	5067.4	
521.22	5694	
521.42	4291.2	
521.61	4813.4	
521.81	5251.7	
522.01	5417.6	
522.2	4154	
522.4	3938.9	
522.6	5771.9	
522.79	4661.2	
522.99	3989.4	
523.18	3238.5	
523.38	5448.3	
523.58	5406	
523.77	5010.7	
523.97	3220.1	
524.17	7092.1	
524.36	6333	
524.56	4392.9	
524.76	4012.7	
524.95	5210.7	
525.15	4902.8	
525.34	3729.4	
525.54	3702.7	
525.74	5499.5	
525.93	4647.5	
526.13	4840	
526.33	3586	
526.52	5758.2	
526.72	5278.3	
526.91	4743.1	
527.11	3986.7	
527.31	5701.5	
527.5	6098.9	
527.7	3857.7	
527.89	3032.4	
528.09	4791.6	
528.29	5113.8	
528.48	4243.4	
528.68	3914.4	
528.87	5507	
529.07	5676.3	
529.27	3831.7	
529.46	3387.3	
529.66	5263.3	
529.85	5635.3	
530.05	3245.3	
530.25	3987.4	
530.44	6478.4	
530.64	5175.2	
530.83	3608.5	
531.03	3757.3	
531.23	5449	
531.42	5400.5	
531.62	4435.2	
531.81	3666.5	
532.01	5562.3	
532.21	5945.3	
532.4	3297.9	
532.6	3642.7	
532.79	6309.1	
532.99	5517.2	
533.18	3571.7	
533.38	4663.2	
533.58	4990.9	
533.77	5706.3	
533.97	3528.7	
534.16	4281.6	
534.36	5855.8	
534.55	4949.9	
534.75	4372.4	
534.95	3572.3	
535.14	5664.7	
535.34	4962.9	
535.53	3288.4	
535.73	5217.5	
535.92	6232	
536.12	5147.9	
536.31	3432.4	
536.51	4508.3	
536.71	5514.5	
536.9	5141.8	
537.1	3616	
537.29	3702.7	
537.49	5940.5	
537.68	4984.1	
537.88	4023.6	
538.07	3355.9	
538.27	5150	
538.46	6173.9	
538.66	3164.1	
538.86	3546.4	
539.05	5227.8	
539.25	5631.2	
539.44	3832.4	
539.64	3581.2	
539.83	5117.2	
540.03	6033.3	
540.22	3329.3	
540.42	3621.5	
540.61	5420.3	
540.81	5464	
541	4090.5	
541.2	4601.8	
541.39	4981.3	
541.59	5319.9	
541.78	4293.9	
541.98	3538.9	
542.18	4732.2	
542.37	4743.8	
542.57	3947.8	
542.76	4387.4	
542.96	4866	
543.15	5582.1	
543.35	4001.7	
543.54	3383.2	
543.74	5902.2	
543.93	5458.5	
544.13	4018.8	
544.32	5133.6	
544.52	5776	
544.71	5038.7	
544.91	3268.6	
545.1	4415.4	
545.3	5081	
545.49	5689.9	
545.69	3228.3	
545.88	3836.5	
546.08	6564.4	
546.27	6220.4	
546.47	4293.9	
546.66	3623.5	
546.86	5933.6	
547.05	6537.8	
547.24	3829	
547.44	3669.3	
547.63	5044.8	
547.83	6027.2	
548.02	4045.4	
548.22	4259.8	
548.41	4865.3	
548.61	6096.8	
548.8	3670.6	
549	3627.6	
549.19	5531.6	
549.39	5792.3	
549.58	3427.6	
549.78	3940.3	
549.97	5867.4	
550.17	5385.5	
550.36	4801.8	
550.55	5784.8	
550.75	5401.9	
550.94	6366.5	
551.14	3638.6	
551.33	4111.6	
551.53	4842.8	
551.72	5746.6	
551.92	4128.7	
552.11	3890.5	
552.31	5846.3	
552.5	5905.7	
552.69	5534.3	
552.89	3529.3	
553.08	5733.6	
553.28	5517.9	
553.47	3880.2	
553.67	4988.2	
553.86	6507.1	
554.06	4909	
554.25	3168.9	
554.44	3765.5	
554.64	7274.4	
554.83	6709.1	
555.03	3643.3	
555.22	4105.5	
555.42	6055.2	
555.61	5784.8	
555.8	3924.6	
556	4256.4	
556.19	5006.6	
556.39	6307.7	
556.58	3997.6	
556.78	3956.7	
556.97	5659.2	
557.16	5379.3	
557.36	5151.3	
557.55	3644	
557.75	4848.9	
557.94	6446.3	
558.13	3781.2	
558.33	3570.3	
558.52	6217	
558.72	5210.7	
558.91	3642.7	
559.1	3936.9	
559.3	4927.4	
559.49	4812	
559.69	3306.1	
559.88	4270	
560.07	5752.7	
560.27	6050.4	
560.46	4472.1	
560.66	4628.4	
560.85	5493.3	
561.04	4847.5	
561.24	3733.4	
561.43	3955.3	
561.63	5044.1	
561.82	5313.1	
562.01	5083.7	
562.21	4182	
562.4	5786.9	
562.59	6655.9	
562.79	4094.6	
562.98	3682.2	
563.18	5616.2	
563.37	6982.9	
563.56	4483.7	
563.76	3594.9	
563.95	5072.8	
564.14	5025.7	
564.34	3929.4	
564.53	3755.3	
564.73	5614.2	
564.92	5898.8	
565.11	4035.2	
565.31	3422.8	
565.5	6070.2	
565.69	5159.5	
565.89	3716.4	
566.08	3934.8	
566.27	5907.7	
566.47	6295.5	
566.66	4521.9	
566.85	3299.3	
567.05	5587.5	
567.24	5065.3	
567.44	3577.1	
567.63	4991.6	
567.82	5836.7	
568.02	5603.9	
568.21	3611.9	
568.4	3975.1	
568.6	5421.7	
568.79	5436	
568.98	3417.4	
569.18	3557.3	
569.37	5337.7	
569.56	7316	
569.76	3861.8	
569.95	4810	
570.14	5768.4	
570.34	5644.9	
570.53	3474	
570.72	3437.2	
570.91	6101.6	
571.11	5358.9	
571.3	3900	
571.49	4778.6	
571.69	5351.3	
571.88	5001.1	
572.07	4367	
572.27	4432.5	
572.46	4947.2	
572.65	6011.5	
572.85	3617.4	
573.04	3977.8	
573.23	6095.4	
573.43	5462.6	
573.62	3360	
573.81	4014	
574	5384.8	
574.2	5183.4	
574.39	3664.5	
574.58	3822.9	
574.78	6188.3	
574.97	5474.9	
575.16	4169.7	
575.36	4272.1	
575.55	5733.6	
575.74	5937.7	
575.93	3280.8	
576.13	4244.1	
576.32	5198.4	
576.51	5669.5	
576.71	3643.3	
576.9	4975.9	
577.09	5975.3	
577.28	5532.2	
577.48	4102.1	
577.67	3231	
577.86	5283.8	
578.05	5496.7	
578.25	3768.9	
578.44	3825.6	
578.63	5345.2	
578.83	6443.6	
579.02	3293.8	
579.21	4699.4	
579.4	5563	
579.6	5195.7	
579.79	3968.3	
579.98	6064.7	
580.17	5849.7	
580.37	5873.6	
580.56	3463.1	
580.75	4158.1	
580.94	6338.5	
581.14	6134.3	
581.33	4556	
581.52	3604.4	
581.71	5680.4	
581.91	6326.2	
582.1	3273.3	
582.29	3774.4	
582.48	5310.4	
582.68	5229.1	
582.87	4198.3	
583.06	3835.8	
583.25	5556.8	
583.45	5031.9	
583.64	4476.2	
583.83	5180	
584.02	5115.1	
584.21	5575.3	
584.41	4504.2	
584.6	3825.6	
584.79	5292	
584.98	6008.7	
585.18	3309.5	
585.37	3296.5	
585.56	4920.6	
585.75	5575.9	
585.94	3581.2	
586.14	4199.7	
586.33	6318	
586.52	5275.6	
586.71	4020.8	
586.91	3867.2	
587.1	4904.2	
587.29	5726.1	
587.48	3859.7	
587.67	3698.6	
587.87	5743.9	
588.06	5801.2	
588.25	5083.1	
588.44	4366.3	
588.63	5470.8	
588.83	6025.8	
589.02	3906.8	
589.21	3909.6	
589.4	5455.1	
589.59	5314.5	
589.78	3357.3	
589.98	3651.5	
590.17	5108.3	
590.36	5650.3	
590.55	3134.8	
590.74	4033.8	
590.94	7060.7	
591.13	5722	
591.32	3821.5	
591.51	3384.6	
591.7	6090	
591.89	5560.9	
592.09	3474	
592.28	3900	
592.47	4878.9	
592.66	6623.1	
592.85	3452.9	
593.05	3680.9	
593.24	5469.4	
593.43	6098.2	
593.62	3660.4	
593.81	4087.7	
594	5457.2	
594.19	5655.1	
594.39	3580.5	
594.58	3553.2	
594.77	5735.7	
594.96	6376	
595.15	3552.5	
595.34	4219.5	
595.54	5888.6	
595.73	5108.3	
595.92	3130	
596.11	4117.8	
596.3	6274.3	
596.49	5109	
596.68	3974.4	
596.88	4317.1	
597.07	6062.7	
597.26	4984.8	
597.45	3425.6	
597.64	4629.1	
597.83	5141.1	
598.02	5761.6	
598.22	3538.2	
598.41	4220.9	
598.6	5565.7	
598.79	5051	
598.98	3601.7	
599.17	4485.7	
599.36	5560.9	
599.55	6722.8	
599.74	5545.9	
599.94	5279.7	
600.13	6079.7	
600.32	5044.1	
600.51	3320.4	
600.7	3478.1	
600.89	6759	
601.08	6795.2	
601.27	3280.8	
601.47	4164.9	
601.66	6034	
601.85	6720.1	
602.04	3923.9	
602.23	4248.2	
602.42	5168.4	
602.61	5782.1	
602.8	3839.3	
602.99	3701.4	
603.18	5522	
603.37	5711.8	
603.57	4267.3	
603.76	4844.8	
603.95	6452.5	
604.14	6023.1	
604.33	3730	
604.52	4050.2	
604.71	5681.1	
604.9	5287.2	
605.09	4576.5	
605.28	4438.6	
605.47	6180.1	
605.66	5945.3	
605.86	4263.9	
606.05	3713.7	
606.24	6280.4	
606.43	4859.8	
606.62	4059.1	
606.81	4766.3	
607	6114.6	
607.19	5455.1	
607.38	3501.3	
607.57	3784	
607.76	5229.8	
607.95	4812	
608.14	4123.2	
608.33	4790.2	
608.52	5309.7	
608.72	6094.8	
608.91	3431	
609.1	3401	
609.29	5441.5	
609.48	4971.1	
609.67	4334.9	
609.86	3575.8	
610.05	5027.1	
610.24	5371.8	
610.43	3392.8	
610.62	3112.9	
610.81	6442.9	
611	6251.8	
611.19	3491.8	
611.38	4263.9	
611.57	5717.9	
611.76	6956.9	
611.95	3312.9	
612.14	3280.8	
612.33	5470.1	
612.52	5036.6	
612.71	3810.6	
612.9	3138.9	
613.09	4755.4	
613.28	6868.9	
613.47	3682.9	
613.66	4514.4	
613.85	5687.2	
614.04	5195.7	
614.24	3633.8	
614.43	2992.8	
614.62	5667.4	
614.81	5704.3	
615	4274.8	
615.19	4184	
615.38	5096.7	
615.57	5376.6	
615.76	4044.7	
615.95	5019.6	
616.14	5800.5	
616.33	5478.3	
616.52	4326.7	
616.71	4601.1	
616.9	5718.6	
617.09	5535.7	
617.28	3700	
617.47	4969.7	
617.66	4904.9	
617.85	4908.3	
618.04	4559.5	
618.22	3968.3	
618.41	5081	
618.6	5906.3	
618.79	3848.1	
618.98	3592.1	
619.17	6212.2	
619.36	4682.3	
619.55	3723.9	
619.74	3753.9	
619.93	5532.2	
620.12	4993.6	
620.31	4252.3	
620.5	4396.3	
620.69	6349.4	
620.88	6403.3	
621.07	5040.7	
621.26	4051.6	
621.45	5588.2	
621.64	5607.3	
621.83	4216.1	
622.02	3445.4	
622.21	5661.3	
622.4	5319.9	
622.59	4693.3	
622.78	4429.1	
622.97	5022.3	
623.16	5973.2	
623.35	4063.2	
623.54	3315.7	
623.72	5130.8	
623.91	5297.4	
624.1	4332.8	
624.29	3138.2	
624.48	6341.9	
624.67	5688.6	
624.86	4177.9	
625.05	3341.6	
625.24	6475	
625.43	5003.2	
625.62	5866.7	
625.81	3506.8	
626	5874.3	
626.19	5190.9	
626.38	4292.5	
626.56	3746.4	
626.75	5036.6	
626.94	5757.5	
627.13	4300.1	
627.32	3186.6	
627.51	5646.9	
627.7	6916.7	
627.89	3237.8	
628.08	4332.8	
628.27	4972.5	
628.46	5199.1	
628.65	3491.1	
628.83	3188.7	
629.02	5680.4	
629.21	5012.7	
629.4	3893.2	
629.59	4125.3	
629.78	4952	
629.97	5844.2	
630.16	4110.3	
630.35	3694.5	
630.54	6201.9	
630.72	6034.7	
630.91	3628.3	
631.1	4183.3	
631.29	5528.2	
631.48	5616.9	
631.67	4225.6	
631.86	3788.1	
632.05	5093.3	
632.24	5188.2	
632.42	3404.4	
632.61	3945.1	
632.8	5313.1	
632.99	4906.9	
633.18	3945.1	
633.37	4452.3	
633.56	5469.4	
633.75	5344.5	
633.93	3979.2	
634.12	3672.7	
634.31	6292.7	
634.5	5852.4	
634.69	3641.3	
634.88	4242.7	
635.07	5251.7	
635.25	5833.3	
635.44	4650.9	
635.63	4745.8	
635.82	5086.5	
636.01	4702.1	
636.2	4554	
636.39	4092.5	
636.57	6250.4	
636.76	5981.4	
636.95	3575.1	
637.14	4935.6	
637.33	5586.9	
637.52	6618.4	
637.7	3419.4	
637.89	4328	
638.08	5214.1	
638.27	6579.4	
638.46	4371.7	
638.65	4779.3	
638.83	6663.4	
639.02	5119.9	
639.21	4368.3	
639.4	4777.9	
639.59	5549.3	
639.78	5222.3	
639.96	3687.7	
640.15	3708.2	
640.34	5453.7	
640.53	5649.7	
640.72	3472.7	
640.91	3790.1	
641.09	4969.7	
641.28	6305	
641.47	3780.6	
641.66	4588.1	
641.85	5556.1	
642.03	5890.6	
642.22	4341	
642.41	3977.2	
642.6	5042.8	
642.79	4608.6	
642.97	3733.4	
643.16	4428.4	
643.35	5114.5	
643.54	4993.6	
643.73	3654.3	
643.91	4449.6	
644.1	4942.4	
644.29	5428.5	
644.48	3840.6	
644.67	3812.6	
644.85	5124.7	
645.04	5483.8	
645.23	3528	
645.42	3797.6	
645.6	5076.2	
645.79	6180.1	
645.98	3889.8	
646.17	3078.8	
646.36	4945.8	
646.54	5569.8	
646.73	4803.2	
646.92	3617.4	
647.11	5212.1	
647.29	6281.1	
647.48	3693.2	
647.67	3519.1	
647.86	6501.6	
648.05	6498.9	
648.23	4007.2	
648.42	5267.4	
648.61	5847	
648.8	5562.3	
648.98	3680.9	
649.17	4022.9	
649.36	5161.6	
649.55	4750.6	
649.73	3711.6	
649.92	4397.7	
650.11	5038	
650.3	5477.6	
650.48	3851.5	
650.67	3668.6	
650.86	5725.4	
651.05	4730.8	
651.23	3830.4	
651.42	3797.6	
651.61	5166.3	
651.79	5360.9	
651.98	4083.6	
652.17	3712.3	
652.36	5687.2	
652.54	4804.5	
652.73	3723.2	
652.92	3588	
653.11	5757.5	
653.29	5852.4	
653.48	3150.5	
653.67	4095.9	
653.85	5524.1	
654.04	6592.4	
654.23	4303.5	
654.42	3915	
654.6	5212.1	
654.79	5897.5	
654.98	3459.7	
655.16	4014	
655.35	4887.8	
655.54	4852.3	
655.73	3560.7	
655.91	3532.7	
656.1	5980.1	
656.29	4777.9	
656.47	3160.7	
656.66	4788.8	
656.85	5110.4	
657.03	5087.8	
657.22	3611.9	
657.41	3645.4	
657.59	5056.4	
657.78	4888.5	
657.97	3300.6	
658.16	3933.5	
658.34	5687.2	
658.53	6064.7	
658.72	4847.5	
658.9	5322	
659.09	5137.7	
659.28	5253	
659.46	3672.7	
659.65	3627	
659.84	5025.7	
660.02	5494	
660.21	3510.2	
660.4	3486.3	
660.58	5871.5	
660.77	5268.1	
660.96	4084.3	
661.14	3196.2	
661.33	6372.6	
661.52	6252.4	
661.7	3138.9	
661.89	6729.6	
662.08	4975.9	
662.26	4575.8	
662.45	3437.9	
662.64	3592.1	
662.82	5616.2	
663.01	4852.3	
663.2	3576.4	
663.38	4334.2	
663.57	5524.7	
663.75	5408	
663.94	3910.3	
664.13	5122	
664.31	4958.1	
664.5	5658.5	
664.69	4074.1	
664.87	4665.3	
665.06	4760.2	
665.25	5397.8	
665.43	4899.4	
665.62	4947.2	
665.8	5724.1	
665.99	5126.7	
666.18	3945.1	
666.36	4008.6	
666.55	5700.2	
666.74	5610.1	
666.92	3562.8	
667.11	5175.9	
667.29	5124.7	
667.48	5751.4	
667.67	4724	
667.85	3827.7	
668.04	5240.8	
668.22	5097.4	
668.41	3999	
668.6	4156	
668.78	4968.4	
668.97	5184.1	
669.15	4393.6	
669.34	3390.8	
669.53	4963.6	
669.71	5263.3	
669.9	3577.8	
670.08	4206.5	
670.27	4924.7	
670.46	5502.2	
670.64	4371	
670.83	4666	
671.01	4829.8	
671.2	5487.2	
671.38	3609.9	
671.57	3554.6	
671.76	6105	
671.94	6637.5	
672.13	3464.5	
672.31	4551.3	
672.5	5677	
672.69	5004.6	
672.87	3631.7	
673.06	3929.4	
673.24	5442.8	
673.43	5027.8	
673.61	4321.9	
673.8	3966.9	
673.98	5694.7	
674.17	5856.5	
674.36	4426.3	
674.54	4341	
674.73	5406	
674.91	5723.4	
675.1	4003.1	
675.28	3725.9	
675.47	5173.2	
675.65	5748.6	
675.84	3898.6	
676.03	4272.7	
676.21	5003.2	
676.4	4590.2	
676.58	4729.4	
676.77	4392.2	
676.95	6440.9	
677.14	4960.9	
677.32	3598.3	
677.51	3446	
677.69	5664.7	
677.88	4762.9	
678.06	3513.6	
678.25	3639.9	
678.44	5224.4	
678.62	4927.4	
678.81	3318.4	
678.99	4259.1	
679.18	6011.5	
679.36	5528.8	
679.55	3827	
679.73	4491.9	
679.92	5537.7	
680.1	5027.8	
680.29	5070.1	
680.47	3919.8	
680.66	4969.1	
680.84	5821.7	
681.03	3235.1	
681.21	4278.2	
681.4	4986.1	
681.58	4961.5	
681.77	3660.4	
681.95	3668.6	
682.14	5906.3	
682.32	6115.2	
682.51	4541.7	
682.69	3492.5	
682.88	4984.8	
683.06	5654.4	
683.25	4203.1	
683.43	4754.7	
683.62	5266	
683.8	5697.4	
683.99	4910.3	
684.17	4182.6	
684.36	6565.8	
684.54	5312.4	
684.73	3458.3	
684.91	3713	
685.1	5687.2	
685.28	5213.4	
685.46	4299.4	
685.65	4437.3	
685.83	6023.1	
686.02	5358.2	
686.2	3878.2	
686.39	3972.4	
686.57	5139.7	
686.76	6597.9	
686.94	3843.4	
687.13	4028.4	
687.31	5832.6	
687.5	5324.7	
687.68	3422.8	
687.86	4617.5	
688.05	6997.2	
688.23	4865.3	
688.42	4653.7	
688.6	3833.8	
688.79	5150.6	
688.97	5188.9	
689.16	4197.7	
689.34	3289.7	
689.52	5928.9	
689.71	6115.9	
689.89	4444.1	
690.08	3770.3	
690.26	5391.6	
690.45	5259.2	
690.63	4729.4	
690.81	3910.3	
691	5231.2	
691.18	5139	
691.37	4141	
691.55	6280.4	
691.74	5052.3	
691.92	7073	
692.1	4121.9	
692.29	3577.8	
692.47	5304.2	
692.66	4691.2	
692.84	3737.5	
693.02	4289.1	
693.21	4744.5	
693.39	5274.2	
693.58	4377.9	
693.76	3737.5	
693.94	6313.2	
694.13	6037.4	
694.31	3672	
694.5	4666	
694.68	4988.9	
694.86	5272.2	
695.05	4018.1	
695.23	4435.2	
695.42	5539.1	
695.6	7899.7	
695.78	4610	
695.97	3777.1	
696.15	5604.6	
696.34	5099.4	
696.52	3608.5	
696.7	4407.9	
696.89	5446.9	
697.07	4946.5	
697.25	4258.4	
697.44	5779.4	
697.62	5471.5	
697.81	5812.8	
697.99	4065.2	
698.17	4523.3	
698.36	4885.1	
698.54	5459.2	
698.72	4317.8	
698.91	3386.7	
699.09	5155.4	
699.28	5025.7	
699.46	4054.3	
699.64	3923.9	
699.83	4942.4	
700.01	6186.2	
700.19	4680.3	
700.38	3150.5	
700.56	6023.8	
700.74	4992.9	
700.93	3548.4	
701.11	4321.9	
701.29	5490.6	
701.48	6469.5	
701.66	3725.3	
701.84	3748.5	
702.03	5049.6	
702.21	5674.2	
702.39	3304.7	
702.58	3816	
702.76	5395.7	
702.94	5528.2	
703.13	3345.7	
703.31	5707.7	
703.49	4783.4	
703.68	6161.7	
703.86	3521.1	
704.04	4490.5	
704.23	5336.3	
704.41	5646.2	
704.59	3651.5	
704.78	4895.3	
704.96	6303	
705.14	5690.6	
705.33	3435.8	
705.51	4270	
705.69	5095.3	
705.87	5910.4	
706.06	4469.4	
706.24	3376.4	
706.42	5423	
706.61	5685.8	
706.79	4542.4	
706.97	3532.1	
707.16	4945.2	
707.34	5459.2	
707.52	4562.9	
707.7	3633.1	
707.89	5066	
708.07	4777.9	
708.25	4547.9	
708.44	4543.8	
708.62	4969.7	
708.8	6128.9	
708.98	4784.7	
709.17	3747.8	
709.35	5315.2	
709.53	5414.8	
709.72	3433.8	
709.9	3903.4	
710.08	5649.7	
710.26	5634	
710.45	5124	
710.63	3884.3	
710.81	5339.1	
710.99	5339.7	
711.18	4411.3	
711.36	3977.8	
711.54	5222.3	
711.72	5928.9	
711.91	4095.3	
712.09	3536.8	
712.27	5427.8	
712.45	6033.3	
712.64	4443.4	
712.82	3397.6	
713	5022.3	
713.18	5175.2	
713.37	3657	
713.55	4922.6	
713.73	6093.4	
713.91	4876.2	
714.1	4206.5	
714.28	3745.7	
714.46	5948.7	
714.64	5198.4	
714.83	3384.6	
715.01	4237.9	
715.19	5501.5	
715.37	4969.1	
715.55	4017.4	
715.74	4298	
715.92	6412.2	
716.1	4531.5	
716.28	5369.8	
716.47	4464.6	
716.65	5167.7	
716.83	5278.3	
717.01	4349.9	
717.19	4345.1	
717.38	7232.7	
717.56	4931.5	
717.74	4599.7	
717.92	3691.1	
718.1	6092.7	
718.29	5304.9	
718.47	3280.2	
718.65	3870.7	
718.83	5868.8	
719.01	5767.1	
719.2	3042.6	
719.38	4088.4	
719.56	5414.1	
719.74	6978.8	
719.92	3667.9	
720.11	4743.8	
720.29	5510.4	
720.47	4851	
720.65	3369.6	
720.83	4206.5	
721.02	5161.6	
721.2	4921.3	
721.38	4392.2	
721.56	3659	
721.74	4556	
721.92	4737	
722.11	4832.5	
722.29	4564.9	
722.47	5915.2	
722.65	5154.7	
722.83	3734.8	
723.01	4599.1	
723.2	5253	
723.38	5479.7	
723.56	3134.1	
723.74	4238.6	
723.92	4803.9	
724.1	5879.7	
724.29	3631.7	
724.47	4773.1	
724.65	4835.3	
724.83	4747.2	
725.01	3550.5	
725.19	4367.6	
725.37	4833.9	
725.56	4915.8	
725.74	3429.7	
725.92	3614	
726.1	4745.8	
726.28	5080.3	
726.46	4123.2	
726.64	3825.6	
726.83	5016.2	
727.01	5290.6	
727.19	3392.1	
727.37	4260.5	
727.55	5123.3	
727.73	5677.7	
727.91	3422.8	
728.09	3226.9	
728.28	5648.3	
728.46	6202.6	
728.64	4304.1	
728.82	4195.6	
729	6666.1	
729.18	5874.9	
729.36	3353.9	
729.54	5721.3	
729.72	6904.4	
729.91	5203.2	
730.09	5242.8	
730.27	3942.3	
730.45	5010	
730.63	5645.6	
730.81	4611.3	
730.99	3611.3	
731.17	6152.1	
731.35	4855.7	
731.53	4128	
731.71	3714.3	
731.9	5898.1	
732.08	6122.1	
732.26	4050.2	
732.44	3697.9	
732.62	6081.1	
732.8	5599.8	
732.98	4411.3	
733.16	3557.3	
733.34	5661.3	
733.52	4453.6	
733.7	4038.6	
733.88	4263.2	
734.07	5534.3	
734.25	5233.2	
734.43	3536.8	
734.61	5050.3	
734.79	6720.8	
734.97	5143.8	
735.15	3644	
735.33	4007.9	
735.51	5455.8	
735.69	5187.5	
735.87	5102.9	
736.05	4190.8	
736.23	5304.9	
736.41	5068.7	
736.59	4009.2	
736.77	4107.5	
736.95	5717.2	
737.13	5158.2	
737.32	3679.5	
737.5	3845.4	
737.68	6191	
737.86	5162.9	
738.04	3447.4	
738.22	5326.1	
738.4	4965.6	
738.58	5263.3	
738.76	4148.5	
738.94	3097.9	
739.12	5032.5	
739.3	4973.8	
739.48	4681.7	
739.66	4441.4	
739.84	5315.8	
740.02	5300.8	
740.2	3218	
740.38	3589.4	
740.56	5670.1	
740.74	4590.9	
740.92	4186.7	
741.1	4169	
741.28	5106.3	
741.46	4982.7	
741.64	3762.1	
741.82	4243.4	
742	5208.7	
742.18	5212.8	
742.36	4014.7	
742.54	3648.1	
742.72	5709.1	
742.9	4568.3	
743.08	4430.4	
743.26	3264.5	
743.44	5945.9	
743.62	5859.9	
743.8	4590.2	
743.98	3678.8	
744.16	5599.1	
744.34	5272.2	
744.52	4488.5	
744.7	4437.9	
744.88	5724.8	
745.06	5264.6	
745.24	4622.3	
745.42	4645.5	
745.6	5842.2	
745.78	5560.2	
745.96	3423.5	
746.14	3723.2	
746.32	6564.4	
746.5	5853.1	
746.68	4363.5	
746.86	3847.5	
747.03	6288.6	
747.21	4691.2	
747.39	4392.9	
747.57	3864.5	
747.75	5480.4	
747.93	5895.4	
748.11	3789.4	
748.29	3725.3	
748.47	7071	
748.65	5296	
748.83	4521.2	
749.01	4290.5	
749.19	5698.8	
749.37	4932.9	
749.55	4136.9	
749.73	4211.3	
749.91	5415.5	
750.09	5190.9	
750.26	4317.1	
750.44	3689.1	
750.62	5374.6	
750.8	5428.5	
750.98	3503.4	
751.16	3927.3	
751.34	5537	
751.52	4943.8	
751.7	4687.8	
751.88	3568.9	
752.06	5923.4	
752.24	5760.3	
752.42	3500.7	
752.59	3846.8	
752.77	5409.4	
752.95	6597.9	
753.13	4575.2	
753.31	3976.5	
753.49	5051.7	
753.67	5544.5	
753.85	4316.4	
754.03	3878.9	
754.21	5855.8	
754.38	6224.5	
754.56	4134.2	
754.74	3233.7	
754.92	5238.7	
755.1	5961.6	
755.28	3381.9	
755.46	3487.7	
755.64	6885.3	
755.82	7094.8	
755.99	4014	
756.17	4095.3	
756.35	4760.2	
756.53	6356.2	
756.71	3132	
756.89	3993.5	
757.07	5878.4	
757.25	4978.6	
757.42	4494.6	
757.6	5283.1	
757.78	5836	
757.96	4846.2	
758.14	4083.6	
758.32	3635.1	
758.5	4419.5	
758.67	5248.9	
758.85	3919.8	
759.03	4070	
759.21	5440.1	
759.39	4934.9	
759.57	3491.8	
759.75	4629.1	
759.92	6031.3	
760.1	5308.3	
760.28	5024.3	
760.46	5216.9	
760.64	5033.2	
760.82	4825	
760.99	4780.6	
761.17	3937.6	
761.35	5788.9	
761.53	4792.2	
761.71	4026.3	
761.89	4655	
762.06	5619.6	
762.24	5118.6	
762.42	4066.6	
762.6	3812.6	
762.78	5103.5	
762.96	5801.2	
763.13	4336.2	
763.31	4078.2	
763.49	5913.9	
763.67	5034.6	
763.85	4861.9	
764.02	5469.4	
764.2	6084.5	
764.38	5285.8	
764.56	3974.4	
764.74	4842.1	
764.91	6350.8	
765.09	5191.6	
765.27	3622.2	
765.45	3488.4	
765.63	6369.9	
765.8	6199.9	
765.98	3233.1	
766.16	3558	
766.34	4809.3	
766.52	4610	
766.69	4530.1	
766.87	3414	
767.05	5231.2	
767.23	5966.4	
767.41	3725.9	
767.58	4065.2	
767.76	5763	
767.94	5863.3	
768.12	3809.9	
768.29	4502.1	
768.47	5365.7	
768.65	6073.6	
768.83	3497.9	
769	4658.4	
769.18	4953.4	
769.36	5607.3	
769.54	4605.2	
769.72	3568.9	
769.89	5919.3	
770.07	6038.1	
770.25	3917.1	
770.43	5156.1	
770.6	6660	
770.78	7134.4	
770.96	4120.5	
771.14	4704.9	
771.31	5831.9	
771.49	5260.5	
771.67	3258.3	
771.85	3540.3	
772.02	4523.3	
772.2	5237.3	
772.38	4271.4	
772.55	3812	
772.73	5559.6	
772.91	5294.7	
773.09	4194.9	
773.26	4272.7	
773.44	5533.6	
773.62	5101.5	
773.8	3685	
773.97	3394.8	
774.15	5573.9	
774.33	5229.8	
774.5	3605.8	
774.68	3935.5	
774.86	5778.7	
775.04	5285.8	
775.21	3717.1	
775.39	3752.6	
775.57	5530.2	
775.74	5948	
775.92	3537.5	
776.1	3531.4	
776.27	5555.5	
776.45	6746.7	
776.63	3734.1	
776.81	3344.3	
776.98	5221	
777.16	6286.6	
777.34	3891.1	
777.51	4192.9	
777.69	5186.1	
777.87	5001.8	
778.04	3951.9	
778.22	4559.5	
778.4	4997	
778.57	5718.6	
778.75	3274.7	
778.93	3571	
779.1	4798.4	
779.28	4701.5	
779.46	3317.7	
779.64	3781.9	
779.81	5834.7	
779.99	6765.8	
780.17	4629.8	
780.34	4696.7	
780.52	5333.6	
780.69	5502.2	
780.87	4134.8	
781.05	3720.5	
781.22	5378	
781.4	5437.4	
781.58	3792.2	
781.75	3068.5	
781.93	5428.5	
782.11	4857.8	
782.28	4745.8	
782.46	3865.2	
782.64	4709	
782.81	5543.2	
782.99	3981.3	
783.17	3875.4	
783.34	5536.3	
783.52	4786.8	
783.69	4173.1	
783.87	4945.8	
784.05	4929.5	
784.22	4916.5	
784.4	4947.2	
784.58	4261.1	
784.75	5772.5	
784.93	4920.6	
785.1	3873.4	
785.28	4518.5	
785.46	5596.4	
785.63	4866	
785.81	3801.7	
785.99	3743	
786.16	5143.8	
786.34	5443.5	
786.51	3730.7	
786.69	4178.5	
786.87	4722.6	
787.04	5166.3	
787.22	3571	
787.39	4610	
787.57	4851	
787.75	6004.6	
787.92	4749.9	
788.1	4715.8	
788.27	4937.7	
788.45	4693.9	
788.63	4407.9	
788.8	3138.9	
788.98	5332.9	
789.15	4612.7	
789.33	3239.2	
789.5	3931.4	
789.68	5838.8	
789.86	5989.6	
790.03	4355.3	
790.21	3803.8	
790.38	5792.3	
790.56	5036	
790.73	3670.6	
790.91	3665.9	
791.09	4930.1	
791.26	5702.2	
791.44	3949.2	
791.61	3388	
791.79	4926	
791.96	4970.4	
792.14	3503.4	
792.32	3133.4	
792.49	4963.6	
792.67	5049.6	
792.84	3552.5	
793.02	3378.5	
793.19	5384.8	
793.37	6121.4	
793.54	3062.4	
793.72	3456.3	
793.89	6270.2	
794.07	4964.3	
794.25	4048.2	
794.42	3252.9	
794.6	6059.9	
794.77	5655.8	
794.95	4313	
795.12	3775.1	
795.3	4947.9	
795.47	5606.7	
795.65	4207.2	
795.82	4028.4	
796	4801.1	
796.17	6711.2	
796.35	3873.4	
796.52	4562.2	
796.7	5502.9	
796.87	5598.5	
797.05	4852.3	
797.22	4758.1	
797.4	5554.8	
797.57	6605.4	
797.75	4003.1	
797.92	3747.1	
798.1	5877	
798.27	4970.4	
798.45	3244	
798.62	3491.1	
798.8	5305.6	
798.97	5792.3	
799.15	4282.3	
799.32	4043.4	
799.5	4563.6	
799.67	5327.4	
799.85	4354	
800.02	3168.2	
800.2	4943.8	
800.37	5276.3	
800.55	4573.8	
800.72	3767.6	
800.9	5743.9	
801.07	6176.7	
801.25	5132.2	
801.42	4170.3	
801.6	5807.4	
801.77	5423.7	
801.95	3862.5	
802.12	3738.9	
802.29	5507.7	
802.47	5434.6	
802.64	4081.6	
802.82	3095.8	
802.99	4933.6	
803.17	5972.6	
803.34	4042	
803.52	3593.5	
803.69	6621.8	
803.87	4764.9	
804.04	4036.5	
804.21	4143.7	
804.39	6072.9	
804.56	5186.1	
804.74	3379.1	
804.91	4204.5	
805.09	5003.2	
805.26	5067.4	
805.44	3524.6	
805.61	3846.8	
805.78	5729.5	
805.96	5747.3	
806.13	4149.2	
806.31	4493.9	
806.48	4521.9	
806.66	5172.5	
806.83	4131.4	
807	4091.2	
807.18	4956.8	
807.35	5356.1	
807.53	3998.3	
807.7	3239.9	
807.87	6189	
808.05	5020.9	
808.22	4526.7	
808.4	3263.1	
808.57	4993.6	
808.74	4728.8	
808.92	3776.5	
809.09	4781.3	
809.27	4913.1	
809.44	5560.2	
809.61	3289.7	
809.79	3628.3	
809.96	6104.3	
810.14	5794.4	
810.31	3180.5	
810.48	3960.8	
810.66	5104.9	
810.83	5912.5	
811.01	3755.3	
811.18	4196.3	
811.35	5773.2	
811.53	4461.8	
811.7	4532.2	
811.87	4263.9	
812.05	5031.9	
812.22	4959.5	
812.39	3563.5	
812.57	3506.1	
812.74	5060.5	
812.92	6817.7	
813.09	3936.9	
813.26	4272.7	
813.44	6404	
813.61	4954.7	
813.78	3266.5	
813.96	4427.7	
814.13	5100.8	
814.3	4693.3	
814.48	4727.4	
814.65	3916.4	
814.82	6278.4	
815	4856.4	
815.17	3919.8	
815.34	4965	
815.52	4977.9	
815.69	4945.2	
815.87	4029.7	
816.04	3467.2	
816.21	5034.6	
816.38	4437.3	
816.56	3837.2	
816.73	3643.3	
816.9	6386.9	
817.08	5851	
817.25	3657	
817.42	4620.9	
817.6	4609.3	
817.77	5100.1	
817.94	4142.4	
818.12	3592.8	
818.29	4791.6	
818.46	7476.5	
818.64	3790.8	
818.81	3537.5	
818.98	4741	
819.16	6947.4	
819.33	4293.2	
819.5	4055	
819.67	5403.2	
819.85	6102.3	
820.02	3985.3	
820.19	4176.5	
820.37	5268.1	
820.54	4883.7	
820.71	4089.8	
820.88	5133.6	
821.06	5289.2	
821.23	4786.8	
821.4	4121.2	
821.58	4081.6	
821.75	5765.7	
821.92	5207.3	
822.09	3255.6	
822.27	3420.8	
822.44	5040.1	
822.61	4939.7	
822.79	3343.7	
822.96	6449.1	
823.13	5568.4	
823.3	4786.1	
823.48	3827	
823.65	3464.5	
823.82	5770.5	
823.99	4618.9	
824.17	4968.4	
824.34	3508.2	
824.51	6634.1	
824.68	5182.7	
824.86	3668.6	
825.03	4057	
825.2	5048.9	
825.37	6124.8	
825.55	3603.7	
825.72	4061.1	
825.89	6791.1	
826.06	6274.3	
826.24	3960.8	
826.41	3964.9	
826.58	6176	
826.75	5361.6	
826.92	3141.6	
827.1	3471.3	
827.27	8387.1	
827.44	6673.6	
827.61	3728.7	
827.79	4586.1	
827.96	4778.6	
828.13	5139	
828.3	3908.2	
828.47	3238.5	
828.65	5292	
828.82	5238	
828.99	5040.1	
829.16	4480.3	
829.34	5639.4	
829.51	5429.2	
829.68	4076.8	
829.85	4223.6	
830.02	5902.9	
830.2	5717.9	
830.37	3175.7	
830.54	4956.1	
830.71	6493.4	
830.88	5078.3	
831.05	3124.5	
831.23	3716.4	
831.4	6197.2	
831.57	6948.8	
831.74	3738.2	
831.91	3315	
832.09	5301.5	
832.26	5636	
832.43	3828.3	
832.6	4422.9	
832.77	5285.8	
832.94	6098.2	
833.12	3063.8	
833.29	3833.8	
833.46	4930.8	
833.63	7209.5	
833.8	4272.1	
833.97	3944.4	
834.15	5668.1	
834.32	5398.4	
834.49	4050.2	
834.66	4154.6	
834.83	5877	
835	4814.8	
835.17	3764.8	
835.35	3759.4	
835.52	5517.9	
835.69	5456.5	
835.86	3967.6	
836.03	3276.1	
836.2	5614.2	
836.37	5198.4	
836.55	3913	
836.72	3672.7	
836.89	5256.5	
837.06	5748.6	
837.23	4016.7	
837.4	4323.3	
837.57	6495.5	
837.75	7134.4	
837.92	3593.5	
838.09	3841.3	
838.26	5185.5	
838.43	5977.3	
838.6	4113	
838.77	3667.2	
838.94	6775.4	
839.11	6529.6	
839.29	3904.8	
839.46	3095.8	
839.63	5637.4	
839.8	5371.8	
839.97	3753.9	
840.14	3768.9	
840.31	5414.1	
840.48	5714.5	
840.65	3103.4	
840.82	3825.6	
841	5681.1	
841.17	5568.4	
841.34	3492.5	
841.51	3521.1	
841.68	5608	
841.85	5370.5	
842.02	3639.2	
842.19	3007.1	
842.36	5346.6	
842.53	5384.1	
842.7	3499.3	
842.87	4295.3	
843.05	7118.1	
843.22	5367.7	
843.39	3305.4	
843.56	3549.8	
843.73	5065.3	
843.9	5741.1	
844.07	5614.8	
844.24	4676.2	
844.41	8399.4	
844.58	4937	
844.75	3353.2	
844.92	3684.3	
845.09	5688.6	
845.26	5651	
845.43	3493.2	
845.6	3700.7	
845.77	5728.2	
845.94	5359.5	
846.12	3792.2	
846.29	4107.5	
846.46	5828.5	
846.63	5623.7	
846.8	3523.9	
846.97	4182.6	
847.14	6055.8	
847.31	5625.8	
847.48	3949.2	
847.65	4319.2	
847.82	5973.9	
847.99	5902.9	
848.16	4713.1	
848.33	4317.8	
848.5	5227.8	
848.67	6120	
848.84	3413.3	
849.01	3616.7	
849.18	5104.2	
849.35	4784.7	
849.52	4347.8	
849.69	3375.1	
849.86	5864.7	
850.03	6123.4	
850.2	3517	
850.37	4229.7	
850.54	6044.2	
850.71	5341.8	
850.88	4164.2	
851.05	3405.8	
851.22	5575.3	
851.39	6166.4	
851.56	3271.3	
851.73	3947.1	
851.9	4945.8	
852.07	5890	
852.24	3850.2	
852.41	3364.1	
852.58	5516.5	
852.75	5005.2	
852.92	3909.6	
853.09	3426.3	
853.26	5236.7	
853.43	6090.7	
853.6	3429	
853.77	2970.9	
853.94	6203.3	
854.11	4906.3	
854.28	5139	
854.44	3694.5	
854.61	6673.6	
854.78	5985.5	
854.95	3475.4	
855.12	4356.7	
855.29	4562.2	
855.46	6187.6	
855.63	3401.7	
855.8	4795	
855.97	5173.2	
856.14	5971.9	
856.31	4913.1	
856.48	3754.6	
856.65	5206.6	
856.82	4930.1	
856.99	3300	
857.16	3714.3	
857.33	6864.8	
857.49	5285.8	
857.66	3685	
857.83	4029	
858	5268.1	
858.17	5531.6	
858.34	3198.9	
858.51	3430.3	
858.68	6344.6	
858.85	6380.8	
859.02	4031.1	
859.19	4311.7	
859.36	4924.7	
859.52	4993.6	
859.69	3452.9	
859.86	4132.8	
860.03	5010	
860.2	6228.6	
860.37	3162.1	
860.54	3516.4	
860.71	5829.2	
860.88	6343.9	
861.05	3934.1	
861.21	4437.3	
861.38	6294.1	
861.55	4832.5	
861.72	3148.4	
861.89	3890.5	
862.06	5946.6	
862.23	6477.7	
862.4	3349.1	
862.56	3616	
862.73	5737.7	
862.9	5467.4	
863.07	4036.5	
863.24	3123.2	
863.41	4838.7	
863.58	4940.4	
863.75	3568.2	
863.91	4051.6	
864.08	6223.1	
864.25	5769.8	
864.42	4391.5	
864.59	4917.2	
864.76	6586.3	
864.93	4999.1	
865.09	3332	
865.26	3713	
865.43	6124.1	
865.6	6531	
865.77	3009.1	
865.94	3461.7	
866.1	6191.7	
866.27	5925.5	
866.44	5234.6	
866.61	3336.8	
866.78	5354.1	
866.95	5824.4	
867.11	3352.5	
867.28	3028.9	
867.45	6005.3	
867.62	4995	
867.79	4047.5	
867.96	3414.6	
868.12	4992.3	
868.29	5935	
868.46	3013.2	
868.63	4590.2	
868.8	6075.6	
868.97	5871.5	
869.13	3614.7	
869.3	3575.1	
869.47	5825.8	
869.64	6032.6	
869.81	3478.1	
869.97	3464.5	
870.14	5624.4	
870.31	6290	
870.48	3482.2	
870.65	4399.7	
870.81	5247.6	
870.98	5292.6	
871.15	3930.7	
871.32	3654.3	
871.48	5750	
871.65	6358.9	
871.82	3476.8	
871.99	3844.7	
872.16	6832	
872.32	6162.3	
872.49	3521.8	
872.66	3523.2	
872.83	5793	
872.99	5241.4	
873.16	3938.2	
873.33	3419.4	
873.5	5479.7	
873.67	5554.1	
873.83	3670	
874	4622.9	
874.17	5629.9	
874.34	6689.3	
874.5	4479.6	
874.67	4282.3	
874.84	6258.6	
875.01	4935.6	
875.17	4904.2	
875.34	3461.1	
875.51	5561.6	
875.68	6753.5	
875.84	4226.3	
876.01	5098.1	
876.18	5795.1	
876.34	5819.6	
876.51	3513.6	
876.68	3336.8	
876.85	5314.5	
877.01	6118	
877.18	4984.1	
877.35	3454.9	
877.52	5453.1	
877.68	4846.2	
877.85	3383.9	
878.02	3396.9	
878.18	5410.7	
878.35	5171.8	
878.52	2761.3	
878.69	3857.7	
878.85	5913.9	
879.02	5794.4	
879.19	4949.3	
879.35	3684.3	
879.52	5807.4	
879.69	6012.8	
879.86	2982.5	
880.02	3951.2	
880.19	5423	
880.36	6694.1	
880.52	3952.6	
880.69	4177.9	
880.86	5961.6	
881.02	6036	
881.19	3790.1	
881.36	3796.9	
881.52	5842.9	
881.69	5141.1	
881.86	3723.2	
882.02	3657.7	
882.19	6076.3	
882.36	7145.4	
882.52	3576.4	
882.69	4893.3	
882.86	5603.9	
883.02	5465.3	
883.19	4194.2	
883.36	4014.7	
883.52	5943.9	
883.69	6830	
883.86	3506.8	
884.02	3104.7	
884.19	5909.1	
884.36	5403.2	
884.52	3934.1	
884.69	3689.1	
884.86	5203.2	
885.02	6468.2	
885.19	3884.3	
885.36	3897.3	
885.52	5377.3	
885.69	5694.7	
885.86	5035.3	
886.02	4450.9	
886.19	5872.9	
886.35	5370.5	
886.52	3880.2	
886.69	4840.7	
886.85	5025	
887.02	6260.6	
887.19	6260.6	
887.35	6260.6	
887.52	6260.6	
887.68	6260.6	
887.85	6260.6	
888.02	6260.6	
888.18	6260.6	
888.35	6260.6	
888.51	6260.6	
888.68	6260.6	
888.85	6260.6	
889.01	6260.6	
889.18	6260.6	
889.35	6260.6	
889.51	6260.6	
889.68	6260.6	
889.84	6260.6	
890.01	6260.6	
890.17	6260.6	
890.34	6260.6	
890.51	6260.6	
890.67	6260.6	
890.84	6260.6	
891	6260.6	
891.17	6260.6	
891.34	6260.6	
891.5	6260.6	
891.67	6260.6	
891.83	6260.6	
892	6260.6	
892.16	6260.6	
892.33	6260.6	
892.5	6260.6	
892.66	6260.6	
892.83	6260.6	
892.99	6260.6	
893.16	6260.6	
893.32	6260.6	
893.49	6260.6	
893.65	6260.6	
893.82	6260.6	
893.99	6260.6	
894.15	6260.6	
894.32	6260.6	
894.48	6260.6	
894.65	6260.6	
894.81	6260.6	
894.98	6260.6	
895.14	6260.6	
895.31	6260.6	
895.47	6260.6	
895.64	6260.6	
895.81	6260.6	
895.97	6260.6	
896.14	6260.6	
896.3	6260.6	
896.47	6260.6	
896.63	6260.6	
896.8	6260.6	
896.96	6260.6	
897.13	6260.6	
897.29	6260.6	
897.46	6260.6	
897.62	6260.6	
897.79	6260.6	
897.95	6260.6	
898.12	6260.6	
898.28	6260.6	
898.45	6260.6	
898.61	6260.6	
898.78	6260.6	
898.94	6260.6	
899.11	6260.6	
899.27	6260.6	
899.44	6260.6	
899.6	6260.6	
899.77	6260.6	
899.93	6260.6	
900.1	6260.6	
900.26	6260.6	
900.43	6260.6	
900.59	6260.6	
900.76	6260.6	
900.92	6260.6	
901.09	6260.6	
901.25	6260.6	
901.42	6260.6	
901.58	6260.6	
901.75	6260.6	
901.91	6260.6	
902.07	6260.6	
902.24	6260.6	
902.4	6260.6	
902.57	6260.6	
902.73	6260.6	
902.9	6260.6	
903.06	6260.6	
903.23	6260.6	
903.39	6260.6	
903.56	6260.6	
903.72	6260.6	
903.88	6260.6	
904.05	6260.6	
904.21	6260.6	
904.38	6260.6	
904.54	6260.6	
904.71	6260.6	
904.87	6260.6	
905.03	6260.6	
905.2	6260.6	
905.36	6260.6	
905.53	6260.6	
905.69	6260.6	
905.86	6260.6	
906.02	6260.6	
906.18	6260.6	
906.35	6260.6	
906.51	6260.6	
906.68	6260.6	
906.84	6260.6	
907.01	6260.6	
907.17	6260.6	
907.33	6260.6	
907.5	6260.6	
907.66	6260.6	
907.83	6260.6	
907.99	6260.6	
908.15	6260.6	
908.32	6260.6	
908.48	6260.6	
908.65	6260.6	
908.81	6260.6	
908.97	6260.6	
909.14	6260.6	
909.3	6260.6	
909.47	6260.6	
909.63	6260.6	
909.79	6260.6	
909.96	6260.6	
910.12	6260.6	
910.28	6260.6	
910.45	6260.6	
910.61	6260.6	
910.78	6260.6	
910.94	6260.6	
911.1	6260.6	
911.27	6260.6	
911.43	6260.6	
911.59	6260.6	
911.76	6260.6	
911.92	6260.6	
912.08	6260.6	
912.25	6260.6	
912.41	6260.6	
912.57	6260.6	
912.74	6260.6	
912.9	6260.6	
913.07	6260.6	
913.23	6260.6	
913.39	6260.6	
913.56	6260.6	
913.72	6260.6	
913.88	6260.6	
914.05	6260.6	
914.21	6260.6	
914.37	6260.6	
914.54	6260.6	
914.7	6260.6	
914.86	6260.6	
915.03	6260.6	
915.19	6260.6	
