Wavelength	Intensities	
nm	a.u.	
179.22	1902.2	
179.44	1913.5	
179.65	1891	
179.86	1936	
180.08	1927.1	
180.29	5040.1	
180.51	3515	
180.72	5658.5	
180.94	6602.7	
181.15	3314.3	
181.37	3196.2	
181.58	5530.9	
181.79	5792.3	
182.01	3387.3	
182.22	3637.2	
182.44	5816.9	
182.65	4819.6	
182.87	4617.5	
183.08	4022.2	
183.29	6100.9	
183.51	5087.2	
183.72	3743.7	
183.94	5371.1	
184.15	5446.2	
184.37	5510.4	
184.58	3192.8	
184.79	4392.9	
185.01	4953.4	
185.22	5779.4	
185.44	4671.4	
185.65	3961.5	
185.86	5311.7	
186.08	4880.3	
186.29	3127.9	
186.51	3369.6	
186.72	5086.5	
186.94	5960.3	
187.15	3856.3	
187.36	4061.8	
187.58	7812.3	
187.79	5509	
188.01	4195.6	
188.22	6592.4	
188.43	6639.5	
188.65	5801.9	
188.86	3332	
189.08	3998.3	
189.29	5171.1	
189.5	5208.7	
189.72	3706.1	
189.93	3790.1	
190.15	6010.8	
190.36	7169.9	
190.57	4094.6	
190.79	4014.7	
191	6112.5	
191.22	6018.3	
191.43	4120.5	
191.64	3352.5	
191.86	6302.3	
192.07	6043.6	
192.29	3536.8	
192.5	3754.6	
192.71	5995.1	
192.93	5131.5	
193.14	3752.6	
193.35	3845.4	
193.57	5193	
193.78	6003.3	
194	2942.9	
194.21	3657.7	
194.42	5020.9	
194.64	5444.2	
194.85	4029.7	
195.07	4682.3	
195.28	5527.5	
195.49	4713.1	
195.71	5008	
195.92	3487.7	
196.13	5677.7	
196.35	5745.9	
196.56	5303.6	
196.78	4006.5	
196.99	7078.5	
197.2	6655.2	
197.42	4552.6	
197.63	4061.8	
197.84	4882.4	
198.06	5674.2	
198.27	3717.1	
198.48	5057.1	
198.7	5201.8	
198.91	5340.4	
199.13	4119.1	
199.34	4096.6	
199.55	5859.9	
199.77	4683.7	
199.98	3576.4	
200.19	4134.2	
200.41	5326.8	
200.62	4992.9	
200.83	4277.5	
201.05	4554.7	
201.26	5338.4	
201.47	5047.6	
201.69	3663.1	
201.9	3490.4	
202.11	5372.5	
202.33	6453.1	
202.54	3924.6	
202.76	4293.9	
202.97	5524.7	
203.18	5524.7	
203.4	4203.1	
203.61	4130.8	
203.82	5468.1	
204.04	5116.5	
204.25	4084.3	
204.46	4065.2	
204.68	5366.4	
204.89	5713.2	
205.1	3976.5	
205.32	3465.2	
205.53	5828.5	
205.74	5965.1	
205.96	2887.6	
206.17	4175.8	
206.38	5829.9	
206.6	5930.2	
206.81	4702.8	
207.02	3861.1	
207.24	5680.4	
207.45	6096.1	
207.66	3924.6	
207.88	3279.5	
208.09	5600.5	
208.3	5403.2	
208.52	3525.9	
208.73	3842.7	
208.94	5459.2	
209.15	6143.2	
209.37	3889.8	
209.58	4117.8	
209.79	6008.7	
210.01	5197.1	
210.22	3112.9	
210.43	3216	
210.65	5475.6	
210.86	5855.1	
211.07	3895.2	
211.29	3528	
211.5	5837.4	
211.71	5366.4	
211.93	3538.2	
212.14	3525.9	
212.35	5350	
212.56	5636	
212.78	4119.1	
212.99	3328.6	
213.2	6365.1	
213.42	5179.3	
213.63	3677.5	
213.84	3975.8	
214.06	4820.9	
214.27	4941.1	
214.48	3829	
214.69	4141.7	
214.91	6067.4	
215.12	6168.5	
215.33	4191.5	
215.55	4676.9	
215.76	6742.6	
215.97	5791	
216.18	3992.2	
216.4	3876.8	
216.61	5098.8	
216.82	5936.4	
217.04	3604.4	
217.25	3730	
217.46	6079.1	
217.67	5816.2	
217.89	3225.6	
218.1	3358	
218.31	5514.5	
218.53	5545.9	
218.74	3724.6	
218.95	3652.9	
219.16	5323.4	
219.38	6335.7	
219.59	3622.9	
219.8	4372.4	
220.01	7017.7	
220.23	5438	
220.44	4808.6	
220.65	3529.3	
220.87	5498.1	
221.08	6049.7	
221.29	3317	
221.5	4489.1	
221.72	7380.2	
221.93	5165.7	
222.14	4059.8	
222.35	4829.8	
222.57	5484.5	
222.78	5791.7	
222.99	3921.9	
223.2	4169.7	
223.42	5758.9	
223.63	5913.9	
223.84	2962	
224.05	2956.6	
224.27	6946.7	
224.48	6307.7	
224.69	4859.1	
224.9	4123.2	
225.12	5651.7	
225.33	5408.7	
225.54	3229	
225.75	3626.3	
225.97	4991.6	
226.18	5280.3	
226.39	3930.1	
226.6	3673.4	
226.82	5137	
227.03	5055.1	
227.24	4052.2	
227.45	3409.2	
227.67	5819	
227.88	6372.6	
228.09	4560.8	
228.3	4575.2	
228.52	5850.4	
228.73	5406	
228.94	3737.5	
229.15	3397.6	
229.36	5364.3	
229.58	5233.9	
229.79	3846.1	
230	4500.1	
230.21	6459.3	
230.43	5540.4	
230.64	4047.5	
230.85	4181.3	
231.06	5897.5	
231.28	5910.4	
231.49	3357.3	
231.7	3995.6	
231.91	5754.8	
232.12	5421.7	
232.34	3401.7	
232.55	3971	
232.76	6090	
232.97	5578.7	
233.18	3554.6	
233.4	4074.8	
233.61	5612.8	
233.82	5141.8	
234.03	3778.5	
234.25	3660.4	
234.46	7600	
234.67	5474.2	
234.88	4196.3	
235.09	3626.3	
235.31	5717.9	
235.52	5276.3	
235.73	4063.9	
235.94	3383.9	
236.15	5150.6	
236.37	6572.6	
236.58	3556.6	
236.79	3940.3	
237	5712.5	
237.21	4962.9	
237.43	4202.4	
237.64	3295.2	
237.85	9904.7	
238.06	4982	
238.27	4296	
238.48	3378.5	
238.7	5769.1	
238.91	5284.4	
239.12	3852.9	
239.33	3934.8	
239.54	5038	
239.76	5311.1	
239.97	3839.3	
240.18	3837.9	
240.39	6892.8	
240.6	5740.5	
240.82	4070	
241.03	3334.1	
241.24	5421	
241.45	6269.5	
241.66	3598.3	
241.87	4213.4	
242.09	6186.9	
242.3	6577.4	
242.51	4234.5	
242.72	3923.9	
242.93	5891.3	
243.14	5330.2	
243.36	4513	
243.57	4875.5	
243.78	6229.2	
243.99	5814.9	
244.2	3960.8	
244.41	3583.9	
244.63	4965	
244.84	5778.7	
245.05	4214	
245.26	3871.3	
245.47	5738.4	
245.68	5986.9	
245.9	5257.1	
246.11	4066.6	
246.32	5227.8	
246.53	5694	
246.74	6371.9	
246.95	3329.3	
247.16	4899.4	
247.38	5408.7	
247.59	3246.7	
247.8	3933.5	
248.01	5063.3	
248.22	5311.7	
248.43	3564.1	
248.64	3805.8	
248.86	4791.6	
249.07	5193	
249.28	3424.9	
249.49	4018.8	
249.7	5978.7	
249.91	6085.2	
250.12	3265.1	
250.34	3309.5	
250.55	5538.4	
250.76	5457.2	
250.97	4055.7	
251.18	4034.5	
251.39	6127.5	
251.6	5600.5	
251.81	4143.7	
252.03	4126	
252.24	5162.2	
252.45	5917.9	
252.66	3379.8	
252.87	4392.2	
253.08	5358.9	
253.29	7201.3	
253.5	3392.1	
253.72	4715.1	
253.93	5252.4	
254.14	6477	
254.35	3731.4	
254.56	3746.4	
254.77	5641.5	
254.98	5053.7	
255.19	3663.8	
255.41	4795	
255.62	5524.7	
255.83	6114.6	
256.04	4199	
256.25	4156.7	
256.46	6487.3	
256.67	5109	
256.88	4015.4	
257.09	4568.3	
257.31	5090.6	
257.52	5186.8	
257.73	5023	
257.94	3704.1	
258.15	5268.1	
258.36	5468.1	
258.57	4685.1	
258.78	2970.9	
258.99	5882.4	
259.2	5270.1	
259.41	3773.7	
259.63	3855.6	
259.84	6328.9	
260.05	6789.7	
260.26	4944.5	
260.47	3661.8	
260.68	6013.5	
260.89	5300.8	
261.1	4515.1	
261.31	3499.3	
261.52	6035.4	
261.73	6378.1	
261.95	4790.2	
262.16	4212.7	
262.37	6114.6	
262.58	6265.4	
262.79	4792.2	
263	3771.7	
263.21	5414.8	
263.42	4929.5	
263.63	3857	
263.84	3786.7	
264.05	6006	
264.26	6443.6	
264.47	4669.4	
264.69	4220.2	
264.9	6100.9	
265.11	5634.6	
265.32	3655.6	
265.53	3730	
265.74	5601.9	
265.95	4839.4	
266.16	3966.2	
266.37	4396.3	
266.58	5571.2	
266.79	5277.6	
267	3640.6	
267.21	3451.5	
267.42	5012.7	
267.63	5427.1	
267.84	3863.8	
268.06	3337.5	
268.27	5830.6	
268.48	6227.2	
268.69	3764.8	
268.9	4500.8	
269.11	6154.1	
269.32	4919.2	
269.53	3887.7	
269.74	3616.7	
269.95	5767.1	
270.16	4781.3	
270.37	3944.4	
270.58	4586.1	
270.79	5315.2	
271	5969.8	
271.21	4205.8	
271.42	3926.6	
271.63	5600.5	
271.84	5061.2	
272.05	3142.9	
272.26	3517.7	
272.47	5468.1	
272.68	5653.1	
272.89	3751.2	
273.11	4345.1	
273.32	5257.1	
273.53	6399.9	
273.74	4237.9	
273.95	4166.9	
274.16	6112.5	
274.37	5514.5	
274.58	4269.3	
274.79	3383.2	
275	5559.6	
275.21	6138.4	
275.42	5151.3	
275.63	4418.2	
275.84	5670.1	
276.05	7221.1	
276.26	4143.7	
276.47	3865.2	
276.68	5255.8	
276.89	6503.7	
277.1	4461.2	
277.31	3499.3	
277.52	5727.5	
277.73	5821	
277.94	3375.7	
278.15	3744.4	
278.36	5634.6	
278.57	5127.4	
278.78	3733.4	
278.99	4249.5	
279.2	5050.3	
279.41	5068.7	
279.62	4975.2	
279.83	3467.9	
280.04	6651.8	
280.25	4996.4	
280.46	4993.6	
280.67	3898.6	
280.88	5027.1	
281.09	6121.4	
281.3	4130.1	
281.51	5260.5	
281.72	5949.3	
281.93	5999.9	
282.14	3652.9	
282.35	3928.7	
282.56	5980.1	
282.77	5922.7	
282.98	3799	
283.19	4607.2	
283.4	7298.3	
283.61	5399.1	
283.82	3356.6	
284.03	4913.8	
284.24	5505.6	
284.45	6064	
284.66	4870.1	
284.87	4669.4	
285.08	5904.3	
285.29	6207.4	
285.5	3306.1	
285.71	3753.2	
285.92	6030.6	
286.12	6803.4	
286.33	4794.3	
286.54	3803.8	
286.75	5928.2	
286.96	5297.4	
287.17	3444	
287.38	4754.7	
287.59	5049.6	
287.8	5011.4	
288.01	3833.8	
288.22	4447.5	
288.43	5984.2	
288.64	4924.7	
288.85	4594.3	
289.06	4397.7	
289.27	5879.7	
289.48	6423.1	
289.69	4863.2	
289.9	4416.8	
290.11	6053.8	
290.32	5139.7	
290.53	4605.2	
290.74	4259.8	
290.94	5877.7	
291.15	5972.6	
291.36	3674.7	
291.57	4377.2	
291.78	5117.9	
291.99	4820.9	
292.2	3541.6	
292.41	4256.4	
292.62	6004.6	
292.83	5788.2	
293.04	5253.7	
293.25	3562.1	
293.46	5242.8	
293.67	6070.9	
293.88	3681.6	
294.09	3518.4	
294.29	4971.8	
294.5	5609.4	
294.71	3987.4	
294.92	3756.7	
295.13	5208.7	
295.34	6571.9	
295.55	3263.1	
295.76	3380.5	
295.97	5885.9	
296.18	6692.8	
296.39	3519.1	
296.6	3715	
296.81	5596.4	
297.01	5904.3	
297.22	3853.6	
297.43	3594.9	
297.64	5053.7	
297.85	5059.2	
298.06	3055.6	
298.27	3292.5	
298.48	5510.4	
298.69	5130.8	
298.9	3990.8	
299.11	3595.6	
299.31	4971.8	
299.52	4974.5	
299.73	4220.9	
299.94	4164.9	
300.15	5444.9	
300.36	5032.5	
300.57	4197.7	
300.78	4169	
300.99	5312.4	
301.2	5546.6	
301.4	3619.4	
301.61	3956	
301.82	5780.7	
302.03	5888.6	
302.24	4431.1	
302.45	3463.8	
302.66	5752.7	
302.87	6214.9	
303.08	3679.5	
303.29	5013.4	
303.49	5208	
303.7	5453.1	
303.91	3321.1	
304.12	4760.8	
304.33	4970.4	
304.54	5493.3	
304.75	3704.8	
304.96	3495.9	
305.16	5799.2	
305.37	6478.4	
305.58	3201.7	
305.79	3324.5	
306	5776.6	
306.21	4894.6	
306.42	3696.6	
306.63	5664	
306.83	5300.1	
307.04	6050.4	
307.25	4001.7	
307.46	4079.6	
307.67	4652.3	
307.88	5923.4	
308.09	3633.1	
308.29	3745.1	
308.5	5515.2	
308.71	6066.1	
308.92	3917.1	
309.13	3549.8	
309.34	5386.2	
309.55	5313.1	
309.75	4614.8	
309.96	4209.3	
310.17	5881.8	
310.38	5182	
310.59	4464.6	
310.8	3442.6	
311.01	5281.7	
311.21	5307	
311.42	3504.8	
311.63	3616.7	
311.84	5170.4	
312.05	5575.9	
312.26	4128.7	
312.46	4514.4	
312.67	5252.4	
312.88	5005.2	
313.09	3519.8	
313.3	3448.1	
313.51	6227.2	
313.71	6638.8	
313.92	3489.7	
314.13	3719.1	
314.34	5593.7	
314.55	5314.5	
314.76	4641.4	
314.96	3983.3	
315.17	5517.9	
315.38	5872.9	
315.59	3587.4	
315.8	3440.6	
316.01	6354.2	
316.21	6347.3	
316.42	3496.6	
316.63	3886.4	
316.84	5305.6	
317.05	6180.8	
317.26	4191.5	
317.46	3780.6	
317.67	5339.1	
317.88	5834.7	
318.09	4534.9	
318.3	3289	
318.5	5156.1	
318.71	5755.5	
318.92	5691.3	
319.13	4147.8	
319.34	5971.2	
319.54	6070.2	
319.75	3330.7	
319.96	3133.4	
320.17	5822.4	
320.38	5980.8	
320.58	3244.7	
320.79	3865.9	
321	6044.9	
321.21	6193.7	
321.42	3898	
321.62	3224.2	
321.83	5066	
322.04	5466	
322.25	3722.5	
322.46	3553.2	
322.66	5576.6	
322.87	5722	
323.08	4468.7	
323.29	3503.4	
323.5	6522.1	
323.7	4982.7	
323.91	4851.6	
324.12	4385.4	
324.33	5509.7	
324.53	5785.5	
324.74	4180.6	
324.95	4466.6	
325.16	4805.2	
325.37	5264.6	
325.57	3579.2	
325.78	3586	
325.99	5511.1	
326.2	4894	
326.4	5093.3	
326.61	3347.1	
326.82	5378.6	
327.03	5564.3	
327.24	5083.7	
327.44	4803.2	
327.65	5718.6	
327.86	4600.4	
328.07	4168.3	
328.27	3401	
328.48	6140.5	
328.69	5019.6	
328.9	5093.3	
329.1	3764.8	
329.31	5340.4	
329.52	6245.6	
329.73	3545	
329.93	4002.4	
330.14	5414.1	
330.35	5750.7	
330.56	5931.6	
330.76	4379.9	
330.97	5245.5	
331.18	5747.3	
331.39	3969	
331.59	3160.7	
331.8	6072.9	
332.01	6171.2	
332.22	3680.9	
332.42	4137.6	
332.63	5582.8	
332.84	5123.3	
333.05	3993.5	
333.25	3663.1	
333.46	5212.1	
333.67	5475.6	
333.88	3717.7	
334.08	4098.7	
334.29	7299	
334.5	6180.1	
334.7	3493.8	
334.91	5136.3	
335.12	5029.1	
335.33	5830.6	
335.53	3889.1	
335.74	5910.4	
335.95	5227.1	
336.16	5076.9	
336.36	4018.8	
336.57	4556	
336.78	4926.7	
336.98	6022.4	
337.19	4892.6	
337.4	3837.9	
337.61	6535.8	
337.81	4978.6	
338.02	3639.2	
338.23	4702.1	
338.43	6219	
338.64	5144.5	
338.85	3556	
339.05	4700.1	
339.26	6278.4	
339.47	4846.2	
339.68	3615.3	
339.88	5315.8	
340.09	5701.5	
340.3	5876.3	
340.5	4196.3	
340.71	3192.8	
340.92	4910.3	
341.13	6134.3	
341.33	3433.8	
341.54	4170.3	
341.75	5671.5	
341.95	5350.7	
342.16	3986	
342.37	4378.6	
342.57	5032.5	
342.78	5462.6	
342.99	4466.6	
343.19	3177.8	
343.4	5854.5	
343.61	5705.6	
343.81	3771.7	
344.02	3517.7	
344.23	5871.5	
344.43	6270.9	
344.64	4425	
344.85	4341.7	
345.06	5735	
345.26	6012.2	
345.47	4088.4	
345.68	4868	
345.88	4803.9	
346.09	5959.6	
346.3	4193.6	
346.5	3182.5	
346.71	5442.8	
346.92	5130.2	
347.12	3246	
347.33	4042	
347.54	5970.5	
347.74	6500.9	
347.95	4102.8	
348.16	3078.8	
348.36	5250.3	
348.57	4866	
348.78	4018.8	
348.98	4357.4	
349.19	5373.9	
349.39	4911	
349.6	3221.5	
349.81	3621.5	
350.01	5699.5	
350.22	5066	
350.43	3973.7	
350.63	4783.4	
350.84	5477	
351.05	5195.7	
351.25	3575.1	
351.46	3206.4	
351.67	6053.1	
351.87	5098.1	
352.08	3791.5	
352.29	4379.2	
352.49	5900.2	
352.7	5998.5	
352.9	3433.8	
353.11	4364.2	
353.32	6574	
353.52	5212.1	
353.73	3383.2	
353.94	4358.8	
354.14	5673.6	
354.35	5588.2	
354.55	3529.3	
354.76	3932.8	
354.97	5686.5	
355.17	5431.9	
355.38	3294.5	
355.59	4594.3	
355.79	5107	
356	5568.4	
356.2	3865.9	
356.41	3364.1	
356.62	4789.5	
356.82	5201.2	
357.03	4119.8	
357.24	3749.1	
357.44	5121.3	
357.65	5210.7	
357.85	5016.8	
358.06	3904.8	
358.27	4784.1	
358.47	5011.4	
358.68	3209.8	
358.88	4056.3	
359.09	5645.6	
359.3	5956.2	
359.5	4811.4	
359.71	4178.5	
359.91	6491.4	
360.12	5783.5	
360.33	4061.8	
360.53	4591.5	
360.74	4988.9	
360.94	5107	
361.15	4207.2	
361.36	3482.9	
361.56	5801.2	
361.77	5220.3	
361.97	4799.8	
362.18	3721.2	
362.38	5819	
362.59	4874.2	
362.8	3374.4	
363	3244.7	
363.21	4681.7	
363.41	5416.9	
363.62	3870.7	
363.83	5029.8	
364.03	5435.3	
364.24	6412.2	
364.44	5036	
364.65	4953.4	
364.85	5154.7	
365.06	5079.6	
365.27	3520.5	
365.47	3570.3	
365.68	6175.3	
365.88	5131.5	
366.09	3963.5	
366.29	3635.1	
366.5	5384.8	
366.71	5841.5	
366.91	4942.4	
367.12	4134.8	
367.32	6424.5	
367.53	5656.5	
367.73	4000.4	
367.94	5012.1	
368.14	5652.4	
368.35	6507.8	
368.56	4070.7	
368.76	3359.4	
368.97	5705.6	
369.17	7438.2	
369.38	3543	
369.58	3817.4	
369.79	4698.7	
369.99	6134.3	
370.2	4764.9	
370.4	3928.7	
370.61	5423	
370.82	6630	
371.02	3734.1	
371.23	3093.8	
371.43	4621.6	
371.64	6040.1	
371.84	3780.6	
372.05	4967.7	
372.25	7306.5	
372.46	5622.4	
372.66	3724.6	
372.87	3697.9	
373.07	5707	
373.28	7342	
373.48	4777.9	
373.69	4432.5	
373.9	5140.4	
374.1	5206.6	
374.31	4642.7	
374.51	4145.8	
374.72	5947.3	
374.92	4826.4	
375.13	4805.2	
375.33	3965.6	
375.54	5511.1	
375.74	4910.3	
375.95	4003.1	
376.15	5270.1	
376.36	5464	
376.56	5294.7	
376.77	4074.1	
376.97	4486.4	
377.18	6511.2	
377.38	5563	
377.59	4854.4	
377.79	3494.5	
378	5324.7	
378.2	5782.8	
378.41	3605.1	
378.61	3451.5	
378.82	5791.7	
379.02	4877.6	
379.23	3643.3	
379.43	4848.9	
379.64	5840.8	
379.84	5418.9	
380.05	3523.2	
380.25	3487.7	
380.46	5553.4	
380.66	5169.1	
380.87	4882.4	
381.07	5257.1	
381.28	6216.3	
381.48	5529.5	
381.69	3627	
381.89	3638.6	
382.1	4527.4	
382.3	5767.8	
382.51	4701.5	
382.71	5623.7	
382.91	5589.6	
383.12	6119.3	
383.32	3975.8	
383.53	4201.1	
383.73	5412.1	
383.94	5288.5	
384.14	4075.5	
384.35	3269.2	
384.55	5109.7	
384.76	5637.4	
384.96	4002.4	
385.17	4313.7	
385.37	5632.6	
385.58	4919.2	
385.78	4308.9	
385.98	3239.9	
386.19	5122.7	
386.39	5535	
386.6	3756	
386.8	4010.6	
387.01	5567.1	
387.21	5623.7	
387.42	4371	
387.62	4943.8	
387.83	4880.3	
388.03	5492.7	
388.23	3955.3	
388.44	4872.8	
388.64	4497.3	
388.85	4672.1	
389.05	4315.8	
389.26	4958.1	
389.46	6557.6	
389.67	5940.5	
389.87	4260.5	
390.07	4361.5	
390.28	5158.2	
390.48	4767.7	
390.69	3469.3	
390.89	3764.8	
391.1	4917.2	
391.3	5824.4	
391.5	4992.3	
391.71	5621	
391.91	5571.2	
392.12	6602.7	
392.32	5070.8	
392.53	4221.5	
392.73	4975.9	
392.93	5205.3	
393.14	4020.8	
393.34	4733.5	
393.55	5678.3	
393.75	5162.2	
393.95	4001.7	
394.16	3941.7	
394.36	4889.2	
394.57	5621.7	
394.77	3403	
394.98	3848.1	
395.18	4860.5	
395.38	4999.8	
395.59	4709	
395.79	3617.4	
396	4960.2	
396.2	5461.9	
396.4	4440.7	
396.61	4369	
396.81	5572.5	
397.02	4829.8	
397.22	4608.6	
397.42	4667.3	
397.63	5552	
397.83	4798.4	
398.04	3501.3	
398.24	4036.5	
398.44	5312.4	
398.65	4367	
398.85	3299.3	
399.05	3478.1	
399.26	4704.9	
399.46	6442.9	
399.67	3792.8	
399.87	3543	
400.07	4995	
400.28	5348.6	
400.48	3611.9	
400.69	4595.6	
400.89	5808	
401.09	6051.7	
401.3	3414.6	
401.5	4642.7	
401.7	6181.5	
401.91	6464.1	
402.11	3773	
402.32	4012	
402.52	5558.2	
402.72	5620.3	
402.93	4244.8	
403.13	3134.1	
403.33	6365.8	
403.54	5187.5	
403.74	4007.9	
403.94	4969.1	
404.15	5245.5	
404.35	6338.5	
404.56	3775.1	
404.76	5666.7	
404.96	5640.8	
405.17	5431.9	
405.37	4930.1	
405.57	4265.9	
405.78	5621.7	
405.98	5132.9	
406.18	3720.5	
406.39	4631.8	
406.59	5646.2	
406.79	5245.5	
407	3580.5	
407.2	3687.7	
407.4	5608.7	
407.61	5803.9	
407.81	3605.1	
408.01	5887.2	
408.22	4435.9	
408.42	6537.1	
408.62	4496.7	
408.83	3867.2	
409.03	4995	
409.23	4819.6	
409.44	3985.3	
409.64	4264.6	
409.84	5758.2	
410.05	5627.8	
410.25	3985.3	
410.45	3829.7	
410.66	5055.8	
410.86	7594.6	
411.06	4110.3	
411.27	3943.7	
411.47	7172	
411.67	5139.7	
411.88	4189.5	
412.08	4377.2	
412.28	5737.7	
412.49	6232	
412.69	3804.4	
412.89	3873.4	
413.09	6083.8	
413.3	5842.2	
413.5	3919.1	
413.7	3528.7	
413.91	5177.3	
414.11	5995.8	
414.31	3695.9	
414.52	4007.2	
414.72	5658.5	
414.92	5504.3	
415.12	3658.4	
415.33	4212	
415.53	5872.2	
415.73	6062	
415.94	4584.7	
416.14	4001	
416.34	4785.4	
416.55	4608.6	
416.75	5184.8	
416.95	4572.4	
417.15	5782.1	
417.36	6546.7	
417.56	5311.7	
417.76	4394.3	
417.97	6143.2	
418.17	5789.6	
418.37	4014	
418.57	4001	
418.78	5610.1	
418.98	5365	
419.18	4903.5	
419.38	4856.4	
419.59	5315.8	
419.79	4984.8	
419.99	3911.6	
420.2	4263.2	
420.4	5835.3	
420.6	6077	
420.8	3820.1	
421.01	3663.8	
421.21	5539.8	
421.41	5806.7	
421.61	4231.1	
421.82	3870.7	
422.02	5137	
422.22	6145.3	
422.42	4678.2	
422.63	4481.6	
422.83	5254.4	
423.03	6464.1	
423.23	4428.4	
423.44	3366.9	
423.64	5387.5	
423.84	5201.2	
424.04	3854.3	
424.25	3590.8	
424.45	6328.9	
424.65	6303.6	
424.85	3334.8	
425.06	3979.2	
425.26	6263.4	
425.46	5371.8	
425.66	4446.1	
425.87	4126.7	
426.07	6137.1	
426.27	5961.6	
426.47	4272.1	
426.67	3661.1	
426.88	6518	
427.08	5860.6	
427.28	4488.5	
427.48	3572.3	
427.69	4892.6	
427.89	5469.4	
428.09	4435.2	
428.29	3678.2	
428.5	6118	
428.7	5623.7	
428.9	3500.7	
429.1	4136.2	
429.3	5584.1	
429.51	5993	
429.71	3847.5	
429.91	4539	
430.11	5815.5	
430.31	6005.3	
430.52	4149.9	
430.72	4315.1	
430.92	6363.7	
431.12	5841.5	
431.32	3687.7	
431.53	4129.4	
431.73	4691.9	
431.93	6490.7	
432.13	3668.6	
432.33	3497.2	
432.54	5210	
432.74	5566.4	
432.94	3350.5	
433.14	4484.4	
433.34	5713.8	
433.55	5142.4	
433.75	4363.5	
433.95	6041.5	
434.15	5447.6	
434.35	5100.1	
434.56	3620.1	
434.76	3037.8	
434.96	5403.9	
435.16	5626.5	
435.36	3415.3	
435.56	4474.8	
435.77	5004.6	
435.97	5205.9	
436.17	5171.1	
436.37	4453	
436.57	5001.1	
436.78	4823.6	
436.98	4375.8	
437.18	4991.6	
437.38	5507	
437.58	5186.1	
437.78	5210.7	
437.99	3837.2	
438.19	5748	
438.39	6526.2	
438.59	3778.5	
438.79	3325.9	
438.99	6399.9	
439.2	5180	
439.4	3400.3	
439.6	3343.7	
439.8	5491.3	
440	6497.5	
440.2	4299.4	
440.4	4420.2	
440.61	5809.4	
440.81	6309.8	
441.01	3420.8	
441.21	4253.6	
441.41	6046.3	
441.61	5747.3	
441.81	4590.2	
442.02	5555.5	
442.22	6583.5	
442.42	5823.7	
442.62	3399.6	
442.82	3527.3	
443.02	6004	
443.22	5186.1	
443.43	3844	
443.63	3411.2	
443.83	5037.3	
444.03	4999.1	
444.23	4507.6	
444.43	4188.8	
444.63	5260.5	
444.83	6526.9	
445.04	3439.9	
445.24	4762.9	
445.44	5709.1	
445.64	5763.7	
445.84	4330.1	
446.04	4304.1	
446.24	5128.8	
446.44	6108.4	
446.65	3537.5	
446.85	3893.2	
447.05	5591.6	
447.25	6094.8	
447.45	3991.5	
447.65	3349.8	
447.85	5434.6	
448.05	5124.7	
448.25	4370.4	
448.46	4199	
448.66	5402.5	
448.86	5102.9	
449.06	3250.8	
449.26	4448.9	
449.46	5783.5	
449.66	4820.2	
449.86	3776.5	
450.06	3833.1	
450.26	4975.2	
450.47	5524.7	
450.67	4164.9	
450.87	4481	
451.07	5669.5	
451.27	5371.1	
451.47	3463.8	
451.67	3932.1	
451.87	4960.9	
452.07	6271.6	
452.27	3632.4	
452.47	3635.8	
452.67	5371.1	
452.88	5960.3	
453.08	3123.2	
453.28	5011.4	
453.48	6493.4	
453.68	5339.1	
453.88	3495.2	
454.08	3759.4	
454.28	5564.3	
454.48	5337.7	
454.68	4265.2	
454.88	4829.1	
455.08	5717.9	
455.28	5316.5	
455.48	3425.6	
455.68	3915.7	
455.89	6113.2	
456.09	5771.9	
456.29	3630.4	
456.49	3631.7	
456.69	5920	
456.89	5460.6	
457.09	4074.1	
457.29	4358.8	
457.49	5393.7	
457.69	5539.1	
457.89	3811.3	
458.09	3316.3	
458.29	5205.3	
458.49	5892	
458.69	4206.5	
458.89	3615.3	
459.09	6021.7	
459.29	6196.5	
459.49	3758	
459.69	4482.3	
459.9	5638.7	
460.1	5001.1	
460.3	3656.3	
460.5	3467.9	
460.7	5529.5	
460.9	5229.8	
461.1	3074.7	
461.3	4230.4	
461.5	6049	
461.7	5752.7	
461.9	3266.5	
462.1	3837.9	
462.3	5171.8	
462.5	5678.3	
462.7	3355.9	
462.9	3400.3	
463.1	6730.3	
463.3	6242.9	
463.5	3568.9	
463.7	4319.8	
463.9	5181.4	
464.1	5563.6	
464.3	3525.2	
464.5	3801	
464.7	5810.1	
464.9	5344.5	
465.1	5169.8	
465.3	4094.6	
465.5	6155.5	
465.7	5947.3	
465.9	4351.3	
466.1	4310.3	
466.3	5701.5	
466.5	5732.9	
466.7	4866.7	
466.9	3823.6	
467.1	5486.5	
467.3	6444.3	
467.5	4757.4	
467.7	3656.3	
467.9	6649.1	
468.1	7490.8	
468.3	4476.9	
468.5	4829.1	
468.7	5362.3	
468.9	5432.6	
469.1	3860.4	
469.3	4588.1	
469.5	7255.3	
469.7	4918.5	
469.9	4426.3	
470.1	3608.5	
470.3	5334.3	
470.5	5420.3	
470.7	4932.9	
470.9	3794.9	
471.1	5054.4	
471.3	5726.1	
471.5	3562.1	
471.69	5521.3	
471.89	5201.8	
472.09	4706.9	
472.29	4348.5	
472.49	4882.4	
472.69	4814.8	
472.89	5707.7	
473.09	3476.1	
473.29	3781.9	
473.49	5033.9	
473.69	5289.2	
473.89	4692.6	
474.09	3929.4	
474.29	6488.6	
474.49	6225.8	
474.69	4572.4	
474.89	4063.2	
475.09	5240.8	
475.29	5203.9	
475.49	3493.2	
475.69	3678.2	
475.88	6869.6	
476.08	5597.8	
476.28	3416.7	
476.48	3973.7	
476.68	6050.4	
476.88	5902.9	
477.08	3833.8	
477.28	4057	
477.48	5437.4	
477.68	6130.3	
477.88	3551.2	
478.08	3909.6	
478.28	6360.3	
478.48	5582.1	
478.67	3890.5	
478.87	3532.1	
479.07	6139.8	
479.27	5670.1	
479.47	4186.7	
479.67	4128.7	
479.87	5950.7	
480.07	6467.5	
480.27	3439.9	
480.47	5077.6	
480.67	5731.6	
480.87	6252.4	
481.06	3750.5	
481.26	4478.9	
481.46	5545.9	
481.66	5488.6	
481.86	4125.3	
482.06	5217.5	
482.26	5281	
482.46	6414.9	
482.66	4062.5	
482.86	3667.9	
483.05	5592.3	
483.25	5035.3	
483.45	6513.2	
483.65	4041.3	
483.85	5151.3	
484.05	5461.9	
484.25	4532.8	
484.45	4901.5	
484.65	6378.7	
484.84	6193.7	
485.04	3901.4	
485.24	3910.9	
485.44	6567.2	
485.64	4889.2	
485.84	3166.8	
486.04	4474.8	
486.24	5233.9	
486.44	5574.6	
486.63	3142.9	
486.83	3867.9	
487.03	5038	
487.23	5186.8	
487.43	3203	
487.63	5496.1	
487.83	5242.8	
488.02	6292	
488.22	4095.9	
488.42	4657.8	
488.62	6174.6	
488.82	5018.9	
489.02	3755.3	
489.22	3721.8	
489.41	5950	
489.61	5559.6	
489.81	3433.1	
490.01	3498.6	
490.21	5759.6	
490.41	6542.6	
490.61	3426.9	
490.8	3549.8	
491	5323.4	
491.2	4827.7	
491.4	4300.7	
491.6	3373.7	
491.8	5447.6	
491.99	5669.5	
492.19	3220.8	
492.39	3574.4	
492.59	5898.1	
492.79	5866.7	
492.99	4357.4	
493.18	3383.2	
493.38	5975.3	
493.58	6527.6	
493.78	4059.1	
493.98	3674.7	
494.18	5571.8	
494.37	4932.9	
494.57	4116.4	
494.77	3958	
494.97	5560.9	
495.17	5761.6	
495.37	3469.3	
495.56	3787.4	
495.76	5871.5	
495.96	5518.6	
496.16	4633.9	
496.36	3557.3	
496.55	5674.9	
496.75	5180.7	
496.95	3890.5	
497.15	3794.9	
497.35	5654.4	
497.54	5591.6	
497.74	3518.4	
497.94	5210.7	
498.14	6293.4	
498.34	6064	
498.53	3211.2	
498.73	3994.9	
498.93	5033.9	
499.13	5541.1	
499.33	3715.7	
499.52	4365.6	
499.72	5378	
499.92	5888.6	
500.12	3426.3	
500.32	3606.5	
500.51	5720.7	
500.71	5418.2	
500.91	4433.2	
501.11	4057.7	
501.31	5570.5	
501.5	6036	
501.7	4689.2	
501.9	3677.5	
502.1	5515.9	
502.29	5754.1	
502.49	4100.7	
502.69	4634.6	
502.89	5588.2	
503.09	5652.4	
503.28	3257.6	
503.48	3448.8	
503.68	5025.7	
503.88	5002.5	
504.07	4399.7	
504.27	3987.4	
504.47	5410.1	
504.67	5589.6	
504.86	4321.2	
505.06	4071.4	
505.26	5183.4	
505.46	6917.4	
505.65	3890.5	
505.85	4235.9	
506.05	5173.2	
506.25	5612.1	
506.44	3377.1	
506.64	4348.5	
506.84	5181.4	
507.04	6063.4	
507.23	3627	
507.43	4233.2	
507.63	7122.2	
507.83	5383.4	
508.02	4271.4	
508.22	3897.3	
508.42	7449.1	
508.62	5179.3	
508.81	4120.5	
509.01	4674.8	
509.21	5100.8	
509.4	5322	
509.6	4332.8	
509.8	3629.7	
510	5275.6	
510.19	6681.2	
510.39	3685	
510.59	3738.9	
510.79	5096.7	
510.98	6402	
511.18	3747.1	
511.38	3825.6	
511.57	5914.5	
511.77	5766.4	
511.97	4577.9	
512.17	3564.8	
512.36	5921.4	
512.56	5870.8	
512.76	3653.6	
512.95	3436.5	
513.15	6034	
513.35	4732.2	
513.55	4474.1	
513.74	3673.4	
513.94	5961.6	
514.14	5281.7	
514.33	4555.4	
514.53	4321.9	
514.73	5289.9	
514.92	5423	
515.12	3700	
515.32	3611.9	
515.51	5512.4	
515.71	6030.6	
515.91	5337.7	
516.11	3594.2	
516.3	7187	
516.5	5114.5	
516.7	4182	
516.89	4758.1	
517.09	5274.2	
517.29	5162.9	
517.48	4562.2	
517.68	3864.5	
517.88	4950.6	
518.07	5560.9	
518.27	4405.9	
518.47	3414.6	
518.66	6127.5	
518.86	4857.1	
519.06	3265.1	
519.25	3731.4	
519.45	5134.3	
519.65	6557.6	
519.84	4385.4	
520.04	5036	
520.24	6921.5	
520.43	5780.7	
520.63	4107.5	
520.83	3827.7	
521.02	5053	
521.22	5699.5	
521.42	4455	
521.61	4898.7	
521.81	5274.9	
522.01	5513.8	
522.2	4229.7	
522.4	3967.6	
522.6	5906.3	
522.79	4739.7	
522.99	3973.1	
523.18	3313.6	
523.38	5451.7	
523.58	5492	
523.77	5169.1	
523.97	3158.7	
524.17	7242.3	
524.36	6424.5	
524.56	4523.3	
524.76	4043.4	
524.95	5296.7	
525.15	4980.7	
525.34	3785.3	
525.54	3733.4	
525.74	5569.1	
525.93	4667.3	
526.13	4885.8	
526.33	3667.2	
526.52	5823.7	
526.72	5255.1	
526.91	4796.3	
527.11	4073.4	
527.31	5813.5	
527.5	6176.7	
527.7	3890.5	
527.89	3070.6	
528.09	4796.3	
528.29	5207.3	
528.48	4364.2	
528.68	4021.5	
528.87	5588.9	
529.07	5720.7	
529.27	3872	
529.46	3452.2	
529.66	5273.5	
529.85	5741.8	
530.05	3272	
530.25	4082.3	
530.44	6530.3	
530.64	5275.6	
530.83	3643.3	
531.03	3860.4	
531.23	5543.2	
531.42	5437.4	
531.62	4555.4	
531.81	3747.8	
532.01	5623	
532.21	6094.1	
532.4	3377.1	
532.6	3721.8	
532.79	6513.9	
532.99	5519.3	
533.18	3660.4	
533.38	4726	
533.58	5070.8	
533.77	5810.1	
533.97	3524.6	
534.16	4337.6	
534.36	5960.3	
534.55	5031.9	
534.75	4540.3	
534.95	3618.1	
535.14	5742.5	
535.34	5024.3	
535.53	3437.2	
535.73	5343.2	
535.92	6294.1	
536.12	5234.6	
536.31	3511.6	
536.51	4638	
536.71	5587.5	
536.9	5100.1	
537.1	3655.6	
537.29	3753.9	
537.49	6010.1	
537.68	5010	
537.88	4044.7	
538.07	3366.9	
538.27	5200.5	
538.46	6170.5	
538.66	3216.7	
538.86	3601	
539.05	5278.3	
539.25	5666	
539.44	3843.4	
539.64	3577.8	
539.83	5139	
540.03	6140.5	
540.22	3456.3	
540.42	3751.9	
540.61	5442.1	
540.81	5495.4	
541	4173.8	
541.2	4642.1	
541.39	5044.8	
541.59	5348.6	
541.78	4343.7	
541.98	3570.3	
542.18	4756.1	
542.37	4832.5	
542.57	4048.2	
542.76	4464.6	
542.96	4935.6	
543.15	5569.8	
543.35	4037.2	
543.54	3439.9	
543.74	5992.4	
543.93	5496.7	
544.13	4121.2	
544.32	5253	
544.52	5852.4	
544.71	5089.2	
544.91	3252.9	
545.1	4518.5	
545.3	5130.2	
545.49	5806	
545.69	3258.3	
545.88	3912.3	
546.08	6705.7	
546.27	6320	
546.47	4332.8	
546.66	3627	
546.86	6089.3	
547.05	6744.6	
547.24	3829	
547.44	3714.3	
547.63	5045.5	
547.83	6135	
548.02	4109.6	
548.22	4378.6	
548.41	4920.6	
548.61	6322.8	
548.8	3708.9	
549	3736.2	
549.19	5556.8	
549.39	5842.2	
549.58	3445.4	
549.78	4057.7	
549.97	5947.3	
550.17	5467.4	
550.36	4984.1	
550.55	5885.2	
550.75	5492	
550.94	6387.6	
551.14	3673.4	
551.33	4229.1	
551.53	4838	
551.72	5827.8	
551.92	4283	
552.11	3973.1	
552.31	5849	
552.5	5822.4	
552.69	5727.5	
552.89	3634.5	
553.08	5877	
553.28	5588.9	
553.47	3916.4	
553.67	5145.2	
553.86	6552.1	
554.06	4879.6	
554.25	3300	
554.44	3808.5	
554.64	7367.2	
554.83	6793.8	
555.03	3772.4	
555.22	4173.1	
555.42	6114.6	
555.61	5824.4	
555.8	4046.1	
556	4368.3	
556.19	5057.8	
556.39	6324.1	
556.58	4079.6	
556.78	4055	
556.97	5741.8	
557.16	5477	
557.36	5315.8	
557.55	3715	
557.75	4842.1	
557.94	6511.9	
558.13	3833.8	
558.33	3586.7	
558.52	6257.9	
558.72	5289.2	
558.91	3738.9	
559.1	4007.2	
559.3	5000.5	
559.49	4850.3	
559.69	3356.6	
559.88	4418.8	
560.07	5826.5	
560.27	6230.6	
560.46	4530.8	
560.66	4629.8	
560.85	5677	
561.04	4915.1	
561.24	3756.7	
561.43	4096.6	
561.63	5059.2	
561.82	5466	
562.01	5196.4	
562.21	4246.8	
562.4	5939.8	
562.59	6790.4	
562.79	4142.4	
562.98	3723.9	
563.18	5713.8	
563.37	7094.2	
563.56	4552	
563.76	3634.5	
563.95	5184.8	
564.14	5081	
564.34	3973.7	
564.53	3843.4	
564.73	5685.2	
564.92	5955.5	
565.11	4172.4	
565.31	3567.6	
565.5	6195.8	
565.69	5162.9	
565.89	3762.8	
566.08	4025.6	
566.27	6113.2	
566.47	6417	
566.66	4670.1	
566.85	3353.2	
567.05	5635.3	
567.24	5122.7	
567.44	3689.1	
567.63	5027.8	
567.82	5895.4	
568.02	5644.9	
568.21	3672	
568.4	4040.6	
568.6	5415.5	
568.79	5468.8	
568.98	3462.4	
569.18	3583.9	
569.37	5339.1	
569.56	7397.9	
569.76	3979.9	
569.95	4902.8	
570.14	5791	
570.34	5663.3	
570.53	3494.5	
570.72	3485	
570.91	6225.8	
571.11	5379.3	
571.3	3974.4	
571.49	4888.5	
571.69	5415.5	
571.88	5023	
572.07	4508.3	
572.27	4543.8	
572.46	5018.2	
572.65	6042.2	
572.85	3667.2	
573.04	4011.3	
573.23	6226.5	
573.43	5524.1	
573.62	3424.2	
573.81	4024.3	
574	5465.3	
574.2	5295.4	
574.39	3652.9	
574.58	3956	
574.78	6152.1	
574.97	5524.7	
575.16	4225	
575.36	4343.1	
575.55	5764.3	
575.74	6008.1	
575.93	3353.2	
576.13	4291.2	
576.32	5251.7	
576.51	5798.5	
576.71	3704.1	
576.9	5034.6	
577.09	6105.7	
577.28	5645.6	
577.48	4245.4	
577.67	3269.9	
577.86	5308.3	
578.05	5588.2	
578.25	3781.9	
578.44	3912.3	
578.63	5423.7	
578.83	6498.9	
579.02	3293.1	
579.21	4774.5	
579.4	5580.7	
579.6	5195.7	
579.79	4007.2	
579.98	6202.6	
580.17	5935	
580.37	5978	
580.56	3536.2	
580.75	4199.7	
580.94	6397.9	
581.14	6289.3	
581.33	4585.4	
581.52	3634.5	
581.71	5688.6	
581.91	6401.3	
582.1	3253.5	
582.29	3816.7	
582.48	5380	
582.68	5268.1	
582.87	4263.9	
583.06	3876.1	
583.25	5627.1	
583.45	5093.3	
583.64	4575.8	
583.83	5315.2	
584.02	5188.9	
584.21	5581.4	
584.41	4566.3	
584.6	3865.9	
584.79	5315.8	
584.98	6081.1	
585.18	3392.8	
585.37	3394.2	
585.56	4924.7	
585.75	5710.4	
585.94	3652.2	
586.14	4267.3	
586.33	6386.9	
586.52	5373.9	
586.71	4178.5	
586.91	3926.6	
587.1	4915.8	
587.29	6183.5	
587.48	3919.8	
587.67	3772.4	
587.87	5768.4	
588.06	5910.4	
588.25	5156.8	
588.44	4478.9	
588.63	5530.9	
588.83	6094.8	
589.02	3945.8	
589.21	3946.4	
589.4	5520.6	
589.59	5325.4	
589.78	3393.5	
589.98	3714.3	
590.17	5231.2	
590.36	5698.8	
590.55	3244	
590.74	4160.1	
590.94	7216.4	
591.13	5715.9	
591.32	3818.1	
591.51	3477.5	
591.7	6191.7	
591.89	5643.5	
592.09	3515	
592.28	3938.9	
592.47	4949.9	
592.66	6735.1	
592.85	3472.7	
593.05	3742.3	
593.24	5516.5	
593.43	6227.2	
593.62	3681.6	
593.81	4250.2	
594	5459.9	
594.19	5736.4	
594.39	3695.2	
594.58	3637.2	
594.77	5831.9	
594.96	6438.8	
595.15	3603.1	
595.34	4267.3	
595.54	5959.6	
595.73	5055.8	
595.92	3108.8	
596.11	4213.4	
596.3	6398.5	
596.49	5171.1	
596.68	3993.5	
596.88	4435.9	
597.07	6166.4	
597.26	4966.3	
597.45	3558.7	
597.64	4712.4	
597.83	5236.7	
598.02	5906.3	
598.22	3586	
598.41	4240	
598.6	5611.4	
598.79	5104.9	
598.98	3635.1	
599.17	4603.2	
599.36	5690.6	
599.55	6808.8	
599.74	5687.2	
599.94	5365	
600.13	6105	
600.32	5079.6	
600.51	3329.3	
600.7	3506.8	
600.89	6910.5	
601.08	6986.3	
601.27	3351.2	
601.47	4291.2	
601.66	6152.8	
601.85	6754.2	
602.04	3946.4	
602.23	4328	
602.42	5304.9	
602.61	5902.9	
602.8	3887	
602.99	3743	
603.18	5490.6	
603.37	5819.6	
603.57	4371	
603.76	4917.9	
603.95	6522.1	
604.14	6118	
604.33	3802.4	
604.52	4067.3	
604.71	5722	
604.9	5362.3	
605.09	4704.9	
605.28	4543.1	
605.47	6309.1	
605.66	6066.1	
605.86	4401.8	
606.05	3756	
606.24	6356.9	
606.43	4946.5	
606.62	4169	
606.81	4878.3	
607	6247	
607.19	5522	
607.38	3570.3	
607.57	3815.4	
607.76	5328.1	
607.95	4836.6	
608.14	4197.7	
608.33	4862.6	
608.52	5364.3	
608.72	6233.3	
608.91	3504.8	
609.1	3422.2	
609.29	5467.4	
609.48	5057.8	
609.67	4513.7	
609.86	3563.5	
610.05	5111.7	
610.24	5436.7	
610.43	3411.9	
610.62	3116.3	
610.81	6604.7	
611	6298.9	
611.19	3586.7	
611.38	4294.6	
611.57	5722.7	
611.76	7091.4	
611.95	3390.1	
612.14	3334.1	
612.33	5544.5	
612.52	5180	
612.71	3944.4	
612.9	3179.1	
613.09	4779.3	
613.28	7043.6	
613.47	3629.7	
613.66	4577.9	
613.85	5711.8	
614.04	5217.5	
614.24	3681.6	
614.43	3004.4	
614.62	5844.9	
614.81	5821.7	
615	4325.3	
615.19	4242	
615.38	5133.6	
615.57	5401.9	
615.76	4126	
615.95	5081.7	
616.14	5851	
616.33	5485.1	
616.52	4433.9	
616.71	4766.3	
616.9	5768.4	
617.09	5604.6	
617.28	3766.2	
617.47	5007.3	
617.66	4908.3	
617.85	4942.4	
618.04	4598.4	
618.22	4098.7	
618.41	5229.1	
618.6	5999.9	
618.79	3943.7	
618.98	3643.3	
619.17	6305.7	
619.36	4721.9	
619.55	3732.1	
619.74	3839.9	
619.93	5485.8	
620.12	5008.6	
620.31	4276.8	
620.5	4418.8	
620.69	6110.5	
620.88	6423.8	
621.07	5150	
621.26	4165.6	
621.45	5677	
621.64	5690.6	
621.83	4284.4	
622.02	3439.9	
622.21	5729.5	
622.4	5438	
622.59	4703.5	
622.78	4582	
622.97	5127.4	
623.16	5991	
623.35	4149.2	
623.54	3316.3	
623.72	5215.5	
623.91	5369.8	
624.1	4430.4	
624.29	3203.7	
624.48	6393.1	
624.67	5690.6	
624.86	4274.8	
625.05	3392.8	
625.24	6536.4	
625.43	4955.4	
625.62	6029.2	
625.81	3584.6	
626	6025.8	
626.19	5207.3	
626.38	4266.6	
626.56	3748.5	
626.75	5115.8	
626.94	5787.6	
627.13	4349.2	
627.32	3147.7	
627.51	5725.4	
627.7	7173.4	
627.89	3308.8	
628.08	4352.6	
628.27	4962.2	
628.46	5222.3	
628.65	3547.1	
628.83	3215.3	
629.02	5741.8	
629.21	5093.3	
629.4	3954.6	
629.59	4177.9	
629.78	4973.8	
629.97	5981.4	
630.16	4261.1	
630.35	3781.9	
630.54	6381.5	
630.72	6065.4	
630.91	3695.9	
631.1	4263.9	
631.29	5514.5	
631.48	5723.4	
631.67	4346.5	
631.86	3866.6	
632.05	5195.7	
632.24	5266.7	
632.42	3460.4	
632.61	4080.9	
632.8	5393.7	
632.99	5008	
633.18	4072	
633.37	4468	
633.56	5555.5	
633.75	5337.7	
633.93	4104.8	
634.12	3775.8	
634.31	6404	
634.5	5926.1	
634.69	3738.9	
634.88	4302.8	
635.07	5327.4	
635.25	5908.4	
635.44	4728.1	
635.63	4885.8	
635.82	5257.8	
636.01	4740.4	
636.2	4640.7	
636.39	4082.3	
636.57	6354.8	
636.76	6007.4	
636.95	3577.1	
637.14	5071.5	
637.33	5620.3	
637.52	6577.4	
637.7	3424.2	
637.89	4325.3	
638.08	5230.5	
638.27	6746	
638.46	4444.1	
638.65	4911	
638.83	6836.8	
639.02	5119.9	
639.21	4358.8	
639.4	4907.6	
639.59	5648.3	
639.78	5312.4	
639.96	3784	
640.15	3821.5	
640.34	5552.7	
640.53	5705.6	
640.72	3482.2	
640.91	3814.7	
641.09	5072.1	
641.28	6325.5	
641.47	3842	
641.66	4660.5	
641.85	5671.5	
642.03	6010.8	
642.22	4512.4	
642.41	3973.7	
642.6	5155.4	
642.79	4649.6	
642.97	3808.5	
643.16	4563.6	
643.35	5189.6	
643.54	5021.6	
643.73	3680.2	
643.91	4568.3	
644.1	4908.3	
644.29	5522.7	
644.48	3901.4	
644.67	3937.6	
644.85	5209.3	
645.04	5495.4	
645.23	3548.4	
645.42	3881.6	
645.6	5117.9	
645.79	6380.1	
645.98	3930.7	
646.17	3089	
646.36	4992.3	
646.54	5563.6	
646.73	4876.9	
646.92	3657	
647.11	5275.6	
647.29	6400.6	
647.48	3771.7	
647.67	3569.6	
647.86	6584.9	
648.05	6577.4	
648.23	4046.1	
648.42	5448.3	
648.61	5910.4	
648.8	5681.1	
648.98	3748.5	
649.17	4117.8	
649.36	5201.8	
649.55	4837.3	
649.73	3827.7	
649.92	4610.7	
650.11	5143.1	
650.3	5438	
650.48	3926	
650.67	3745.1	
650.86	5767.8	
651.05	4767	
651.23	3935.5	
651.42	3903.4	
651.61	5246.2	
651.79	5418.9	
651.98	4085	
652.17	3777.1	
652.36	5724.8	
652.54	4901.5	
652.73	3842.7	
652.92	3695.9	
653.11	5841.5	
653.29	5889.3	
653.48	3144.3	
653.67	4154.6	
653.85	5634	
654.04	6753.5	
654.23	4471.4	
654.42	3975.1	
654.6	5298.8	
654.79	5951.4	
654.98	3515.7	
655.16	4101.4	
655.35	4977.2	
655.54	4952	
655.73	3662.5	
655.91	3595.6	
656.1	6001.9	
656.29	4825	
656.47	3217.4	
656.66	4845.5	
656.85	5061.9	
657.03	5175.9	
657.22	3602.4	
657.41	3675.4	
657.59	5225.1	
657.78	4990.2	
657.97	3278.8	
658.16	4017.4	
658.34	5823.7	
658.53	6163	
658.72	4882.4	
658.9	5467.4	
659.09	5142.4	
659.28	5310.4	
659.46	3741.6	
659.65	3686.3	
659.84	4941.1	
660.02	5531.6	
660.21	3568.9	
660.4	3553.9	
660.58	5905.7	
660.77	5356.8	
660.96	4152.6	
661.14	3293.1	
661.33	6501.6	
661.52	6396.5	
661.7	3198.2	
661.89	6898.9	
662.08	5026.4	
662.26	4556	
662.45	3468.6	
662.64	3651.5	
662.82	5610.1	
663.01	4930.1	
663.2	3611.9	
663.38	4331.5	
663.57	5621.7	
663.75	5514.5	
663.94	3951.2	
664.13	5248.9	
664.31	4987.5	
664.5	5709.7	
664.69	4148.5	
664.87	4776.5	
665.06	4747.2	
665.25	5453.1	
665.43	5027.1	
665.62	5076.2	
665.8	5817.6	
665.99	5175.9	
666.18	3957.4	
666.36	4133.5	
666.55	5834.7	
666.74	5657.2	
666.92	3640.6	
667.11	5319.3	
667.29	5105.6	
667.48	5761.6	
667.67	4895.3	
667.85	3968.3	
668.04	5250.3	
668.22	5177.3	
668.41	4049.5	
668.6	4255	
668.78	4982.7	
668.97	5221	
669.15	4446.1	
669.34	3419.4	
669.53	4992.3	
669.71	5339.1	
669.9	3619.4	
670.08	4227.7	
670.27	4988.2	
670.46	5605.3	
670.64	4405.2	
670.83	4691.9	
671.01	4907.6	
671.2	5504.3	
671.38	3651.5	
671.57	3529.3	
671.76	6191.7	
671.94	6733	
672.13	3537.5	
672.31	4631.8	
672.5	5711.8	
672.69	5034.6	
672.87	3695.2	
673.06	3956	
673.24	5542.5	
673.43	5057.8	
673.61	4412	
673.8	3941.7	
673.98	5767.1	
674.17	5941.2	
674.36	4521.2	
674.54	4389.5	
674.73	5535.7	
674.91	5722.7	
675.1	4102.8	
675.28	3728	
675.47	5286.5	
675.65	5810.8	
675.84	3900.7	
676.03	4234.5	
676.21	5120.6	
676.4	4629.8	
676.58	4788.8	
676.77	4496.7	
676.95	6554.2	
677.14	5033.9	
677.32	3644	
677.51	3474.7	
677.69	5771.2	
677.88	4763.6	
678.06	3558.7	
678.25	3659	
678.44	5210	
678.62	4980.7	
678.81	3400.3	
678.99	4344.4	
679.18	6130.9	
679.36	5666.7	
679.55	3882.3	
679.73	4599.1	
679.92	5698.8	
680.1	5083.7	
680.29	5157.5	
680.47	3999.7	
680.66	4983.4	
680.84	5900.2	
681.03	3267.2	
681.21	4392.9	
681.4	5125.4	
681.58	4974.5	
681.77	3728.7	
681.95	3592.1	
682.14	5917.9	
682.32	6235.4	
682.51	4678.9	
682.69	3508.9	
682.88	5049.6	
683.06	5720	
683.25	4319.2	
683.43	4825	
683.62	5347.2	
683.8	5689.3	
683.99	4939.7	
684.17	4268.6	
684.36	6618.4	
684.54	5362.3	
684.73	3509.5	
684.91	3801.7	
685.1	5784.8	
685.28	5246.2	
685.46	4481.6	
685.65	4524.6	
685.83	6079.1	
686.02	5391.6	
686.2	3934.1	
686.39	4019.5	
686.57	5139	
686.76	6696.9	
686.94	3860.4	
687.13	4025.6	
687.31	5946.6	
687.5	5435.3	
687.68	3466.5	
687.86	4752	
688.05	6913.3	
688.23	4830.5	
688.42	4814.8	
688.6	3863.2	
688.79	5169.8	
688.97	5257.1	
689.16	4288.4	
689.34	3209.8	
689.52	5924.8	
689.71	6229.9	
689.89	4547.2	
690.08	3904.1	
690.26	5509.7	
690.45	5323.4	
690.63	4785.4	
690.81	4012	
691	5275.6	
691.18	5152.7	
691.37	4209.9	
691.55	6396.5	
691.74	5079	
691.92	7288.7	
692.1	4238.6	
692.29	3653.6	
692.47	5347.2	
692.66	4745.1	
692.84	3855	
693.02	4485.1	
693.21	4722.6	
693.39	5337	
693.58	4476.9	
693.76	3796.3	
693.94	6475	
694.13	6137.8	
694.31	3762.1	
694.5	4858.5	
694.68	5053	
694.86	5322	
695.05	4105.5	
695.23	4499.4	
695.42	5659.2	
695.6	8047.8	
695.78	4692.6	
695.97	3779.9	
696.15	5734.3	
696.34	5143.8	
696.52	3620.1	
696.7	4456.4	
696.89	5492.7	
697.07	4933.6	
697.25	4332.8	
697.44	6092	
697.62	5485.1	
697.81	5884.5	
697.99	4087.7	
698.17	4559.5	
698.36	4931.5	
698.54	5589.6	
698.72	4413.4	
698.91	3447.4	
699.09	5131.5	
699.28	5064.6	
699.46	4126	
699.64	3979.9	
699.83	4952	
700.01	6318	
700.19	4768.4	
700.38	3235.1	
700.56	6161.7	
700.74	4993.6	
700.93	3586.7	
701.11	4384	
701.29	5589.6	
701.48	6574	
701.66	3731.4	
701.84	3813.3	
702.03	5131.5	
702.21	5751.4	
702.39	3390.1	
702.58	3857.7	
702.76	5492	
702.94	5616.2	
703.13	3368.2	
703.31	5816.2	
703.49	4831.2	
703.68	6257.9	
703.86	3560.1	
704.04	4582.7	
704.23	5352.7	
704.41	5776.6	
704.59	3749.8	
704.78	4938.3	
704.96	6369.9	
705.14	5762.3	
705.33	3472.7	
705.51	4351.3	
705.69	5181.4	
705.87	5986.9	
706.06	4631.8	
706.24	3440.6	
706.42	5481.7	
706.61	5750.7	
706.79	4650.3	
706.97	3517.7	
707.16	4911	
707.34	5507.7	
707.52	4549.9	
707.7	3700.7	
707.89	5163.6	
708.07	4805.2	
708.25	4640.7	
708.44	4681	
708.62	5024.3	
708.8	6152.1	
708.98	4858.5	
709.17	3814	
709.35	5489.2	
709.53	5491.3	
709.72	3520.5	
709.9	3699.3	
710.08	5752.7	
710.26	5765.7	
710.45	5216.2	
710.63	3958.7	
710.81	5332.2	
710.99	5502.9	
711.18	4524	
711.36	4043.4	
711.54	5246.9	
711.72	6046.3	
711.91	4152.6	
712.09	3573.7	
712.27	5592.3	
712.45	6124.8	
712.64	4552.6	
712.82	3504.8	
713	5053	
713.18	5213.4	
713.37	3721.8	
713.55	4967	
713.73	6199.9	
713.91	4930.8	
714.1	4227.7	
714.28	3777.1	
714.46	6101.6	
714.64	5283.8	
714.83	3342.3	
715.01	4237.9	
715.19	5530.2	
715.37	5009.3	
715.55	3986.7	
715.74	4407.2	
715.92	6554.2	
716.1	4504.8	
716.28	5471.5	
716.47	4526	
716.65	5201.8	
716.83	5371.1	
717.01	4460.5	
717.19	4504.2	
717.38	7464.2	
717.56	4952	
717.74	4687.1	
717.92	3694.5	
718.1	6135	
718.29	5404.6	
718.47	3235.8	
718.65	3943.7	
718.83	5926.1	
719.01	5819.6	
719.2	3032.4	
719.38	4164.9	
719.56	5533.6	
719.74	7060	
719.92	3687.7	
720.11	4880.3	
720.29	5589.6	
720.47	4788.8	
720.65	3390.1	
720.83	4300.7	
721.02	5253.7	
721.2	4989.5	
721.38	4450.9	
721.56	3691.1	
721.74	4591.5	
721.92	4807.3	
722.11	4951.3	
722.29	4631.8	
722.47	6045.6	
722.65	5193.6	
722.83	3767.6	
723.01	4696	
723.2	5266.7	
723.38	5517.9	
723.56	3187.3	
723.74	4405.2	
723.92	4781.3	
724.1	5925.5	
724.29	3667.2	
724.47	4846.9	
724.65	4876.9	
724.83	4764.9	
725.01	3495.2	
725.19	4480.3	
725.37	4844.8	
725.56	4930.1	
725.74	3426.9	
725.92	3710.9	
726.1	4749.2	
726.28	5069.4	
726.46	4201.7	
726.64	3884.3	
726.83	5010.7	
727.01	5343.2	
727.19	3389.4	
727.37	4222.2	
727.55	5158.8	
727.73	5670.1	
727.91	3353.2	
728.09	3230.3	
728.28	5698.1	
728.46	6352.1	
728.64	4358.1	
728.82	4205.2	
729	6808.8	
729.18	5950.7	
729.36	3443.3	
729.54	5842.2	
729.72	6929.6	
729.91	5135.6	
730.09	5360.2	
730.27	4022.9	
730.45	5059.2	
730.63	5719.3	
730.81	4605.2	
730.99	3573	
731.17	6197.2	
731.35	4807.3	
731.53	4160.1	
731.71	3817.4	
731.9	5934.3	
732.08	6177.4	
732.26	4062.5	
732.44	3702	
732.62	6272.9	
732.8	5650.3	
732.98	4488.5	
733.16	3541.6	
733.34	5690.6	
733.52	4511	
733.7	4090.5	
733.88	4390.2	
734.07	5559.6	
734.25	5309.7	
734.43	3508.2	
734.61	5202.5	
734.79	6774.7	
734.97	5165.7	
735.15	3748.5	
735.33	3998.3	
735.51	5567.7	
735.69	5193	
735.87	5601.9	
736.05	4287.8	
736.23	5407.3	
736.41	5155.4	
736.59	4123.9	
736.77	4201.1	
736.95	5742.5	
737.13	5195	
737.32	3739.6	
737.5	3884.3	
737.68	6367.8	
737.86	5113.8	
738.04	3506.1	
738.22	5481.7	
738.4	4957.4	
738.58	5292	
738.76	4184.7	
738.94	3140.2	
739.12	5146.5	
739.3	4982	
739.48	4787.5	
739.66	4560.1	
739.84	5383.4	
740.02	5354.1	
740.2	3222.8	
740.38	3609.9	
740.56	5726.8	
740.74	4630.5	
740.92	4234.5	
741.1	4299.4	
741.28	5171.1	
741.46	5102.2	
741.64	3844	
741.82	4334.2	
742	5264.6	
742.18	5195	
742.36	4083.6	
742.54	3639.2	
742.72	5858.6	
742.9	4577.9	
743.08	4465.9	
743.26	3273.3	
743.44	6002.6	
743.62	5909.8	
743.8	4638.6	
743.98	3704.8	
744.16	5640.1	
744.34	5357.5	
744.52	4590.2	
744.7	4558.1	
744.88	5856.5	
745.06	5294.7	
745.24	4631.8	
745.42	4769	
745.6	5879.7	
745.78	5679	
745.96	3505.4	
746.14	3773	
746.32	6800.6	
746.5	5945.9	
746.68	4403.1	
746.86	3908.9	
747.03	6339.1	
747.21	4749.9	
747.39	4459.1	
747.57	3852.9	
747.75	5518.6	
747.93	5967.8	
748.11	3870	
748.29	3751.9	
748.47	7231.4	
748.65	5244.8	
748.83	4606.6	
749.01	4255.7	
749.19	5793	
749.37	4932.9	
749.55	4182.6	
749.73	4316.4	
749.91	5427.8	
750.09	5150.6	
750.26	4434.5	
750.44	3793.5	
750.62	5481	
750.8	5429.2	
750.98	3634.5	
751.16	3918.4	
751.34	5490.6	
751.52	4866	
751.7	4760.2	
751.88	3604.4	
752.06	6016.9	
752.24	5797.1	
752.42	3536.2	
752.59	3898	
752.77	5425.8	
752.95	6734.4	
753.13	4690.5	
753.31	4098	
753.49	5125.4	
753.67	5592.3	
753.85	4399	
754.03	3961.5	
754.21	5976	
754.38	6372.6	
754.56	4248.9	
754.74	3238.5	
754.92	5244.8	
755.1	6004	
755.28	3396.9	
755.46	3493.8	
755.64	6974.7	
755.82	7232.1	
755.99	3985.3	
756.17	4146.5	
756.35	4734.2	
756.53	6451.8	
756.71	3062.4	
756.89	4024.9	
757.07	5954.8	
757.25	5059.2	
757.42	4460.5	
757.6	5383.4	
757.78	5860.6	
757.96	4877.6	
758.14	4159.4	
758.32	3622.2	
758.5	4491.9	
758.67	5324	
758.85	3942.3	
759.03	4123.2	
759.21	5504.3	
759.39	4934.9	
759.57	3596.2	
759.75	4714.4	
759.92	6133.7	
760.1	5335	
760.28	5118.6	
760.46	5272.8	
760.64	5154.1	
760.82	4843.4	
760.99	4819.6	
761.17	4026.3	
761.35	5847	
761.53	4866	
761.71	4059.8	
761.89	4812	
762.06	5645.6	
762.24	5207.3	
762.42	4092.5	
762.6	3908.2	
762.78	5165	
762.96	5844.9	
763.13	4442.7	
763.31	4132.8	
763.49	5948.7	
763.67	5068	
763.85	4992.9	
764.02	5575.3	
764.2	6191.7	
764.38	5404.6	
764.56	4030.4	
764.74	4900.1	
764.91	6350.8	
765.09	5245.5	
765.27	3620.8	
765.45	3518.4	
765.63	6451.1	
765.8	6236.7	
765.98	3219.4	
766.16	3561.4	
766.34	4811.4	
766.52	4650.9	
766.69	4508.9	
766.87	3441.3	
767.05	5248.9	
767.23	6194.4	
767.41	3767.6	
767.58	4014	
767.76	5917.9	
767.94	5925.5	
768.12	3846.1	
768.29	4747.9	
768.47	5423.7	
768.65	6163.7	
768.83	3560.7	
769	4767	
769.18	4944.5	
769.36	5612.8	
769.54	4514.4	
769.72	3590.8	
769.89	5937.1	
770.07	6137.8	
770.25	3887	
770.43	5255.8	
770.6	6843.6	
770.78	7258.7	
770.96	4114.4	
771.14	4846.2	
771.31	5945.3	
771.49	5274.2	
771.67	3289	
771.85	3606.5	
772.02	4554	
772.2	5311.7	
772.38	4335.5	
772.55	3848.8	
772.73	5615.5	
772.91	5376.6	
773.09	4251.6	
773.26	4392.9	
773.44	5571.2	
773.62	5244.8	
773.8	3741.6	
773.97	3448.1	
774.15	5675.6	
774.33	5268.7	
774.5	3637.9	
774.68	4072.7	
774.86	5915.9	
775.04	5323.4	
775.21	3745.7	
775.39	3812	
775.57	5554.1	
775.74	5993	
775.92	3623.5	
776.1	3577.8	
776.27	5572.5	
776.45	6848.4	
776.63	3787.4	
776.81	3327.3	
776.98	5296	
777.16	6342.6	
777.34	3975.1	
777.51	3907.5	
777.69	5204.6	
777.87	4945.2	
778.04	4008.6	
778.22	4627	
778.4	5023.7	
778.57	5757.5	
778.75	3300	
778.93	3597.6	
779.1	4868.7	
779.28	4739	
779.46	3283.6	
779.64	3801	
779.81	5940.5	
779.99	6825.2	
780.17	4671.4	
780.34	4764.9	
780.52	5367	
780.69	5617.6	
780.87	4195.6	
781.05	3799.7	
781.22	5433.9	
781.4	5538.4	
781.58	3882.3	
781.75	3099.3	
781.93	5468.1	
782.11	4844.1	
782.28	4853	
782.46	3898.6	
782.64	4768.4	
782.81	5743.9	
782.99	4066.6	
783.17	3968.3	
783.34	5591	
783.52	4801.8	
783.69	4219.5	
783.87	5003.2	
784.05	4942.4	
784.22	4875.5	
784.4	5008	
784.58	4330.1	
784.75	5869.5	
784.93	4992.9	
785.1	3998.3	
785.28	4634.6	
785.46	5593.7	
785.63	4864.6	
785.81	3922.5	
785.99	3777.1	
786.16	5072.8	
786.34	5538.4	
786.51	3855.6	
786.69	4257	
786.87	4687.1	
787.04	5292	
787.22	3653.6	
787.39	4713.7	
787.57	4872.1	
787.75	6073.6	
787.92	4866	
788.1	4828.4	
788.27	4982.7	
788.45	4710.3	
788.63	4552	
788.8	3192.1	
788.98	5560.9	
789.15	4693.9	
789.33	3312.2	
789.5	4004.5	
789.68	5918.6	
789.86	6044.9	
790.03	4478.2	
790.21	3873.4	
790.38	5882.4	
790.56	5087.2	
790.73	3773	
790.91	3802.4	
791.09	5022.3	
791.26	5835.3	
791.44	4033.8	
791.61	3478.8	
791.79	4943.1	
791.96	5089.2	
792.14	3510.2	
792.32	3167.5	
792.49	4971.8	
792.67	5099.4	
792.84	3635.8	
793.02	3405.1	
793.19	5418.9	
793.37	6235.4	
793.54	3127.2	
793.72	3457.7	
793.89	6391	
794.07	5081	
794.25	4141	
794.42	3196.2	
794.6	6118.6	
794.77	5733.6	
794.95	4461.2	
795.12	3874.8	
795.3	5036	
795.47	5637.4	
795.65	4255	
795.82	4112.3	
796	4839.4	
796.17	6830	
796.35	3969.6	
796.52	4596.3	
796.7	5563.6	
796.87	5646.9	
797.05	5017.5	
797.22	4861.2	
797.4	5645.6	
797.57	6684.6	
797.75	4074.8	
797.92	3788.7	
798.1	5933	
798.27	5033.9	
798.45	3295.9	
798.62	3533.4	
798.8	5318.6	
798.97	5814.9	
799.15	4313	
799.32	4110.3	
799.5	4587.4	
799.67	5464	
799.85	4490.5	
800.02	3198.9	
800.2	4909.7	
800.37	5339.1	
800.55	4641.4	
800.72	3852.2	
800.9	5779.4	
801.07	6256.5	
801.25	5273.5	
801.42	4233.2	
801.6	5881.8	
801.77	5578.7	
801.95	3783.3	
802.12	3703.4	
802.29	5590.3	
802.47	5502.9	
802.64	4206.5	
802.82	3127.9	
802.99	4989.5	
803.17	6062	
803.34	4085	
803.52	3691.1	
803.69	6785.6	
803.87	4764.9	
804.04	4048.2	
804.21	4253.6	
804.39	6135	
804.56	5274.2	
804.74	3433.1	
804.91	4277.5	
805.09	5048.2	
805.26	5190.9	
805.44	3477.5	
805.61	3913.7	
805.78	5728.9	
805.96	5739.8	
806.13	4283.7	
806.31	4650.3	
806.48	4597	
806.66	5139.7	
806.83	4229.1	
807	4138.9	
807.18	4999.1	
807.35	5446.9	
807.53	4145.8	
807.7	3293.8	
807.87	6327.5	
808.05	5081	
808.22	4625.7	
808.4	3293.8	
808.57	5086.5	
808.74	4728.8	
808.92	3710.9	
809.09	4923.3	
809.27	4943.1	
809.44	5649.7	
809.61	3301.3	
809.79	3703.4	
809.96	6246.3	
810.14	5935.7	
810.31	3232.4	
810.48	3976.5	
810.66	5258.5	
810.83	5991	
811.01	3795.6	
811.18	4291.2	
811.35	5868.8	
811.53	4535.6	
811.7	4586.1	
811.87	4308.2	
812.05	5055.1	
812.22	4993.6	
812.39	3669.3	
812.57	3606.5	
812.74	5053.7	
812.92	6860.7	
813.09	4023.6	
813.26	4358.8	
813.44	6579.4	
813.61	5007.3	
813.78	3351.2	
813.96	4462.5	
814.13	5055.8	
814.3	4789.5	
814.48	4788.8	
814.65	4048.8	
814.82	6331.6	
815	4884.4	
815.17	4108.9	
815.34	5109.7	
815.52	4980	
815.69	5023	
815.87	4054.3	
816.04	3485.6	
816.21	5168.4	
816.38	4480.3	
816.56	3984.7	
816.73	3655.6	
816.9	6513.2	
817.08	5922.7	
817.25	3723.9	
817.42	4686.4	
817.6	4655	
817.77	5199.1	
817.94	4197.7	
818.12	3659	
818.29	4820.2	
818.46	7713.3	
818.64	3852.2	
818.81	3594.2	
818.98	4744.5	
819.16	6949.4	
819.33	4394.3	
819.5	4136.9	
819.67	5451.7	
819.85	6210.8	
820.02	3999	
820.19	4296	
820.37	5324	
820.54	4874.2	
820.71	4209.9	
820.88	5188.9	
821.06	5308.3	
821.23	4811.4	
821.4	4236.6	
821.58	4103.4	
821.75	5831.2	
821.92	5272.8	
822.09	3404.4	
822.27	3415.3	
822.44	5114.5	
822.61	5036	
822.79	3416	
822.96	6570.6	
823.13	5612.8	
823.3	4847.5	
823.48	3939.6	
823.65	3472.7	
823.82	5844.9	
823.99	4644.8	
824.17	4988.2	
824.34	3578.5	
824.51	6853.2	
824.68	5169.8	
824.86	3670.6	
825.03	4220.9	
825.2	5057.8	
825.37	6303	
825.55	3679.5	
825.72	4145.8	
825.89	6875	
826.06	6431.3	
826.24	4029.7	
826.41	4085	
826.58	6249	
826.75	5418.9	
826.92	3168.9	
827.1	3510.2	
827.27	8537.3	
827.44	6799.9	
827.61	3839.3	
827.79	4671.4	
827.96	4832.5	
828.13	5167	
828.3	4012.7	
828.47	3415.3	
828.65	5386.2	
828.82	5294.7	
828.99	5235.3	
829.16	4574.5	
829.34	5771.9	
829.51	5537.7	
829.68	4124.6	
829.85	4360.8	
830.02	5987.6	
830.2	5790.3	
830.37	3206.4	
830.54	5020.9	
830.71	6571.9	
830.88	5079.6	
831.05	3278.1	
831.23	3784	
831.4	6264.7	
831.57	7103.7	
831.74	3847.5	
831.91	3375.1	
832.09	5330.2	
832.26	5810.1	
832.43	3960.1	
832.6	4566.3	
832.77	5334.3	
832.94	6203.3	
833.12	3157.3	
833.29	3928	
833.46	4976.6	
833.63	7252.5	
833.8	4386.7	
833.97	3990.1	
834.15	5816.9	
834.32	5517.2	
834.49	4162.8	
834.66	4225.6	
834.83	5993	
835	4786.1	
835.17	3764.8	
835.35	3812	
835.52	5609.4	
835.69	5535.7	
835.86	4052.2	
836.03	3261.7	
836.2	5685.8	
836.37	5353.4	
836.55	3954.6	
836.72	3691.1	
836.89	5290.6	
837.06	5760.9	
837.23	4119.1	
837.4	4422.2	
837.57	6539.8	
837.75	7335.8	
837.92	3627	
838.09	3895.9	
838.26	5253	
838.43	6069.5	
838.6	4167.6	
838.77	3708.2	
838.94	6886.6	
839.11	6646.3	
839.29	3945.8	
839.46	3148.4	
839.63	5758.2	
839.8	5455.1	
839.97	3864.5	
840.14	3882.9	
840.31	5474.2	
840.48	5736.4	
840.65	3198.2	
840.82	3780.6	
841	5670.8	
841.17	5621.7	
841.34	3549.1	
841.51	3591.5	
841.68	5666.7	
841.85	5407.3	
842.02	3668.6	
842.19	3017.3	
842.36	5440.1	
842.53	5466	
842.7	3521.1	
842.87	4384	
843.05	7264.8	
843.22	5390.9	
843.39	3354.6	
843.56	3613.3	
843.73	5171.1	
843.9	5779.4	
844.07	5850.4	
844.24	4900.1	
844.41	8453.3	
844.58	4912.4	
844.75	3446	
844.92	3756.7	
845.09	5683.8	
845.26	5717.9	
845.43	3513.6	
845.6	3711.6	
845.77	5730.2	
845.94	5450.3	
846.12	3915.7	
846.29	4149.9	
846.46	5931.6	
846.63	5754.8	
846.8	3532.1	
846.97	4246.8	
847.14	6212.2	
847.31	5666	
847.48	4033.1	
847.65	4372.4	
847.82	5992.4	
847.99	6055.2	
848.16	4782.7	
848.33	4363.5	
848.5	5316.5	
848.67	6187.6	
848.84	3501.3	
849.01	3676.8	
849.18	5083.7	
849.35	4799.8	
849.52	4449.6	
849.69	3448.8	
849.86	5912.5	
850.03	6196.5	
850.2	3540.3	
850.37	4336.2	
850.54	6064.7	
850.71	5388.9	
850.88	4238.6	
851.05	3494.5	
851.22	5676.3	
851.39	6278.4	
851.56	3296.5	
851.73	4061.1	
851.9	4994.3	
852.07	6040.1	
852.24	3926.6	
852.41	3473.4	
852.58	5615.5	
852.75	5091.9	
852.92	3921.9	
853.09	3523.2	
853.26	5272.8	
853.43	6223.1	
853.6	3500	
853.77	2991.4	
853.94	6269.5	
854.11	5666.7	
854.28	5285.8	
854.44	3837.2	
854.61	6760.3	
854.78	5808	
854.95	3522.5	
855.12	4431.8	
855.29	4590.2	
855.46	6279.8	
855.63	3494.5	
855.8	4883	
855.97	5283.1	
856.14	6090	
856.31	5046.2	
856.48	3852.9	
856.65	5269.4	
856.82	4996.4	
856.99	3368.2	
857.16	3771	
857.33	7038.2	
857.49	5422.3	
857.66	3736.9	
857.83	4136.9	
858	5339.7	
858.17	5477	
858.34	3320.4	
858.51	3545.7	
858.68	6541.9	
858.85	6448.4	
859.02	4082.3	
859.19	4391.5	
859.36	4976.6	
859.52	5041.4	
859.69	3530	
859.86	4188.1	
860.03	5070.8	
860.2	6361.7	
860.37	3207.8	
860.54	3568.9	
860.71	5945.3	
860.88	6352.8	
861.05	3982.6	
861.21	4400.4	
861.38	6412.2	
861.55	4855.7	
861.72	3177.1	
861.89	3997	
862.06	6034	
862.23	6524.1	
862.4	3424.2	
862.56	3635.8	
862.73	5848.3	
862.9	5565	
863.07	4121.2	
863.24	3223.5	
863.41	4901.5	
863.58	5044.8	
863.75	3614	
863.91	4116.4	
864.08	6378.7	
864.25	5894.1	
864.42	4443.4	
864.59	4956.1	
864.76	6698.2	
864.93	5051.7	
865.09	3478.8	
865.26	3801	
865.43	6239.5	
865.6	6651.1	
865.77	3067.9	
865.94	3523.9	
866.1	6277	
866.27	5962.3	
866.44	5354.1	
866.61	3357.3	
866.78	5385.5	
866.95	5880.4	
867.11	3386.7	
867.28	3104	
867.45	6001.2	
867.62	5061.2	
867.79	4121.9	
867.96	3503.4	
868.12	4969.1	
868.29	5993	
868.46	3059.7	
868.63	4653	
868.8	6258.6	
868.97	5917.9	
869.13	3723.2	
869.3	3696.6	
869.47	5850.4	
869.64	6083.8	
869.81	3592.1	
869.97	3609.9	
870.14	5804.6	
870.31	6485.9	
870.48	3446	
870.65	4456.4	
870.81	5374.6	
870.98	5272.8	
871.15	4041.3	
871.32	3756.7	
871.48	5810.8	
871.65	6460	
871.82	3509.5	
871.99	3901.4	
872.16	6859.3	
872.32	6275.7	
872.49	3568.2	
872.66	3588	
872.83	5959.6	
872.99	5203.2	
873.16	4088.4	
873.33	3487	
873.5	5610.8	
873.67	5597.1	
873.83	3695.9	
874	4754	
874.17	5728.9	
874.34	6808.8	
874.5	4573.8	
874.67	4457.7	
874.84	6377.4	
875.01	5008	
875.17	5011.4	
875.34	3528	
875.51	5586.2	
875.68	6780.8	
875.84	4232.5	
876.01	5206.6	
876.18	5924.1	
876.34	5831.2	
876.51	3547.1	
876.68	3485	
876.85	5397.8	
877.01	6195.1	
877.18	5088.5	
877.35	3484.3	
877.52	5501.5	
877.68	4938.3	
877.85	3446.7	
878.02	3475.4	
878.18	5502.9	
878.35	5171.8	
878.52	2842.6	
878.69	3941.7	
878.85	5982.8	
879.02	5918.6	
879.19	5087.8	
879.35	3752.6	
879.52	5896.1	
879.69	6141.9	
879.86	3025.5	
880.02	3996.3	
880.19	5503.6	
880.36	6651.1	
880.52	4063.9	
880.69	4205.2	
880.86	5971.2	
881.02	6133.7	
881.19	3881.6	
881.36	3842.7	
881.52	5915.2	
881.69	5200.5	
881.86	3816	
882.02	3722.5	
882.19	6178.7	
882.36	7296.9	
882.52	3572.3	
882.69	5034.6	
882.86	5706.3	
883.02	5580.7	
883.19	4354	
883.36	4108.9	
883.52	6044.2	
883.69	6905.1	
883.86	3594.9	
884.02	3202.3	
884.19	5931.6	
884.36	5532.9	
884.52	4012	
884.69	3749.8	
884.86	5215.5	
885.02	6564.4	
885.19	3987.4	
885.36	4117.1	
885.52	5511.1	
885.69	5684.5	
885.86	5199.8	
886.02	4546.5	
886.19	6014.2	
886.35	5401.2	
886.52	3910.9	
886.69	5040.1	
886.85	5046.2	
887.02	6422.4	
887.19	6422.4	
887.35	6422.4	
887.52	6422.4	
887.68	6422.4	
887.85	6422.4	
888.02	6422.4	
888.18	6422.4	
888.35	6422.4	
888.51	6422.4	
888.68	6422.4	
888.85	6422.4	
889.01	6422.4	
889.18	6422.4	
889.35	6422.4	
889.51	6422.4	
889.68	6422.4	
889.84	6422.4	
890.01	6422.4	
890.17	6422.4	
890.34	6422.4	
890.51	6422.4	
890.67	6422.4	
890.84	6422.4	
891	6422.4	
891.17	6422.4	
891.34	6422.4	
891.5	6422.4	
891.67	6422.4	
891.83	6422.4	
892	6422.4	
892.16	6422.4	
892.33	6422.4	
892.5	6422.4	
892.66	6422.4	
892.83	6422.4	
892.99	6422.4	
893.16	6422.4	
893.32	6422.4	
893.49	6422.4	
893.65	6422.4	
893.82	6422.4	
893.99	6422.4	
894.15	6422.4	
894.32	6422.4	
894.48	6422.4	
894.65	6422.4	
894.81	6422.4	
894.98	6422.4	
895.14	6422.4	
895.31	6422.4	
895.47	6422.4	
895.64	6422.4	
895.81	6422.4	
895.97	6422.4	
896.14	6422.4	
896.3	6422.4	
896.47	6422.4	
896.63	6422.4	
896.8	6422.4	
896.96	6422.4	
897.13	6422.4	
897.29	6422.4	
897.46	6422.4	
897.62	6422.4	
897.79	6422.4	
897.95	6422.4	
898.12	6422.4	
898.28	6422.4	
898.45	6422.4	
898.61	6422.4	
898.78	6422.4	
898.94	6422.4	
899.11	6422.4	
899.27	6422.4	
899.44	6422.4	
899.6	6422.4	
899.77	6422.4	
899.93	6422.4	
900.1	6422.4	
900.26	6422.4	
900.43	6422.4	
900.59	6422.4	
900.76	6422.4	
900.92	6422.4	
901.09	6422.4	
901.25	6422.4	
901.42	6422.4	
901.58	6422.4	
901.75	6422.4	
901.91	6422.4	
902.07	6422.4	
902.24	6422.4	
902.4	6422.4	
902.57	6422.4	
902.73	6422.4	
902.9	6422.4	
903.06	6422.4	
903.23	6422.4	
903.39	6422.4	
903.56	6422.4	
903.72	6422.4	
903.88	6422.4	
904.05	6422.4	
904.21	6422.4	
904.38	6422.4	
904.54	6422.4	
904.71	6422.4	
904.87	6422.4	
905.03	6422.4	
905.2	6422.4	
905.36	6422.4	
905.53	6422.4	
905.69	6422.4	
905.86	6422.4	
906.02	6422.4	
906.18	6422.4	
906.35	6422.4	
906.51	6422.4	
906.68	6422.4	
906.84	6422.4	
907.01	6422.4	
907.17	6422.4	
907.33	6422.4	
907.5	6422.4	
907.66	6422.4	
907.83	6422.4	
907.99	6422.4	
908.15	6422.4	
908.32	6422.4	
908.48	6422.4	
908.65	6422.4	
908.81	6422.4	
908.97	6422.4	
909.14	6422.4	
909.3	6422.4	
909.47	6422.4	
909.63	6422.4	
909.79	6422.4	
909.96	6422.4	
910.12	6422.4	
910.28	6422.4	
910.45	6422.4	
910.61	6422.4	
910.78	6422.4	
910.94	6422.4	
911.1	6422.4	
911.27	6422.4	
911.43	6422.4	
911.59	6422.4	
911.76	6422.4	
911.92	6422.4	
912.08	6422.4	
912.25	6422.4	
912.41	6422.4	
912.57	6422.4	
912.74	6422.4	
912.9	6422.4	
913.07	6422.4	
913.23	6422.4	
913.39	6422.4	
913.56	6422.4	
913.72	6422.4	
913.88	6422.4	
914.05	6422.4	
914.21	6422.4	
914.37	6422.4	
914.54	6422.4	
914.7	6422.4	
914.86	6422.4	
915.03	6422.4	
915.19	6422.4	
