Wavelength	Intensities	
nm	a.u.	
179.22	1704.8	
179.44	1695.4	
179.65	1714.1	
179.86	1676.6	
180.08	1751	
180.29	4063.2	
180.51	3024.8	
180.72	4974.5	
180.94	5584.8	
181.15	2766.1	
181.37	2716.3	
181.58	4832.5	
181.79	5020.3	
182.01	2823.5	
182.22	2998.2	
182.44	5040.1	
182.65	4343.1	
182.87	3680.2	
183.08	3300	
183.29	5275.6	
183.51	4396.3	
183.72	3024.2	
183.94	4163.5	
184.15	4704.9	
184.37	4704.2	
184.58	2726.5	
184.79	3553.9	
185.01	4506.9	
185.22	5068	
185.44	3734.1	
185.65	3183.2	
185.86	4770.4	
186.08	4373.1	
186.29	2624.8	
186.51	2781.1	
186.72	4498.7	
186.94	5132.9	
187.15	3188	
187.36	3257.6	
187.58	6405.4	
187.79	4875.5	
188.01	3384.6	
188.22	5105.6	
188.43	5726.8	
188.65	4972.5	
188.86	2816.6	
189.08	3312.2	
189.29	4561.5	
189.5	4569	
189.72	3072.6	
189.93	3169.6	
190.15	5154.1	
190.36	5930.9	
190.57	3302.7	
190.79	3232.4	
191	5172.5	
191.22	5154.7	
191.43	3358.7	
191.64	2858.3	
191.86	5356.8	
192.07	5100.8	
192.29	2973.7	
192.5	3037.1	
192.71	5215.5	
192.93	4584	
193.14	3003.7	
193.35	3077.4	
193.57	4618.2	
193.78	5148.6	
194	2554.5	
194.21	2970.2	
194.42	4380.6	
194.64	4776.5	
194.85	3244	
195.07	3753.2	
195.28	4726.7	
195.49	4248.2	
195.71	3911.6	
195.92	2855.6	
196.13	4904.2	
196.35	4895.3	
196.56	4132.1	
196.78	3332	
196.99	5949.3	
197.2	5580.7	
197.42	3671.3	
197.63	3304.1	
197.84	4383.3	
198.06	4903.5	
198.27	3104	
198.48	3953.3	
198.7	4557.4	
198.91	4712.4	
199.13	3321.1	
199.34	3334.8	
199.55	5147.9	
199.77	4159.4	
199.98	2967.5	
200.19	3297.9	
200.41	4724	
200.62	4429.8	
200.83	3421.5	
201.05	3618.1	
201.26	4717.8	
201.47	4567.7	
201.69	2930	
201.9	2856.2	
202.11	4782	
202.33	5459.9	
202.54	3112.2	
202.76	3437.9	
202.97	4843.4	
203.18	4861.9	
203.4	3379.1	
203.61	3434.4	
203.82	4776.5	
204.04	4463.2	
204.25	3325.9	
204.46	3341.6	
204.68	4767.7	
204.89	4950.6	
205.1	3183.2	
205.32	2822.8	
205.53	5048.9	
205.74	5160.2	
205.96	2488.3	
206.17	3310.2	
206.38	4977.2	
206.6	5114.5	
206.81	3767.6	
207.02	3130.7	
207.24	4957.4	
207.45	5211.4	
207.66	3152.5	
207.88	2775	
208.09	4937	
208.3	4730.1	
208.52	2938.2	
208.73	3185.3	
208.94	4785.4	
209.15	5263.3	
209.37	3171.6	
209.58	3564.1	
209.79	5163.6	
210.01	4631.1	
210.22	2623.4	
210.43	2708.8	
210.65	4766.3	
210.86	5002.5	
211.07	3132.7	
211.29	2945	
211.5	4984.1	
211.71	4667.3	
211.93	2950.4	
212.14	2960.7	
212.35	4723.3	
212.56	4844.1	
212.78	3310.9	
212.99	2828.9	
213.2	5432.6	
213.42	4591.5	
213.63	3013.9	
213.84	3178.4	
214.06	4334.2	
214.27	4343.1	
214.48	3094.5	
214.69	3369.6	
214.91	5246.9	
215.12	5307	
215.33	3337.5	
215.55	3627.6	
215.76	5666	
215.97	4990.9	
216.18	3251.5	
216.4	3205.8	
216.61	4494.6	
216.82	5152	
217.04	2974.3	
217.25	3031.7	
217.46	5198.4	
217.67	5014.8	
217.89	2697.9	
218.1	2752.5	
218.31	4841.4	
218.53	4902.8	
218.74	3115.6	
218.95	3029.6	
219.16	4702.8	
219.38	5468.1	
219.59	2966.8	
219.8	3555.3	
220.01	5880.4	
220.23	4820.2	
220.44	3783.3	
220.65	2911.5	
220.87	4837.3	
221.08	5236	
221.29	2788.7	
221.5	3573	
221.72	6197.8	
221.93	4499.4	
222.14	3322.5	
222.35	3888.4	
222.57	4745.1	
222.78	5033.2	
222.99	3192.8	
223.2	3399.6	
223.42	4984.8	
223.63	5060.5	
223.84	2493.1	
224.05	2514.9	
224.27	5771.2	
224.48	5362.9	
224.69	3839.3	
224.9	3357.3	
225.12	4940.4	
225.33	4760.2	
225.54	2671.2	
225.75	3015.3	
225.97	4442.7	
226.18	4750.6	
226.39	3137.5	
226.6	3013.2	
226.82	4570.4	
227.03	4407.9	
227.24	3321.1	
227.45	2830.3	
227.67	5077.6	
227.88	5443.5	
228.09	3697.3	
228.3	3615.3	
228.52	5045.5	
228.73	4700.1	
228.94	3071.3	
229.15	2775.7	
229.36	4726	
229.58	4685.8	
229.79	3162.7	
230	3605.8	
230.21	5598.5	
230.43	4781.3	
230.64	3301.3	
230.85	3356.6	
231.06	5105.6	
231.28	5059.8	
231.49	2784.6	
231.7	3222.1	
231.91	5029.8	
232.12	4786.8	
232.34	2860.3	
232.55	3225.6	
232.76	5173.9	
232.97	4844.8	
233.18	2925.9	
233.4	3295.9	
233.61	4883.7	
233.82	4569	
234.03	3102.7	
234.25	3080.1	
234.46	6305.7	
234.67	4787.5	
234.88	3336.8	
235.09	3019.4	
235.31	4889.9	
235.52	4654.4	
235.73	3233.7	
235.94	2802.3	
236.15	4549.9	
236.37	5624.4	
236.58	2951.1	
236.79	3207.1	
237	4925.4	
237.21	4376.5	
237.43	3424.2	
237.64	2748.4	
237.85	7871	
238.06	4454.3	
238.27	3397.6	
238.48	2867.2	
238.7	5014.8	
238.91	4694.6	
239.12	3166.2	
239.33	3257.6	
239.54	4559.5	
239.76	4693.9	
239.97	3146.4	
240.18	3175.7	
240.39	5723.4	
240.6	4897.4	
240.82	3348.4	
241.03	2783.2	
241.24	4675.5	
241.45	5350.7	
241.66	2907.4	
241.87	3424.2	
242.09	5324.7	
242.3	5537.7	
242.51	3444.7	
242.72	3155.9	
242.93	5043.5	
243.14	4716.5	
243.36	3575.1	
243.57	3907.5	
243.78	5374.6	
243.99	4977.2	
244.2	3233.7	
244.41	2891	
244.63	4362.9	
244.84	4923.3	
245.05	3373	
245.26	3168.2	
245.47	4970.4	
245.68	5084.4	
245.9	4079.6	
246.11	3289.7	
246.32	4608.6	
246.53	4883.7	
246.74	4960.2	
246.95	2743.6	
247.16	4440.7	
247.38	4739	
247.59	2734.7	
247.8	3181.2	
248.01	4437.9	
248.22	4728.8	
248.43	2900.6	
248.64	3106.1	
248.86	4330.1	
249.07	4627	
249.28	2844.6	
249.49	3269.2	
249.7	5171.8	
249.91	5216.9	
250.12	2749.7	
250.34	2772.3	
250.55	4852.3	
250.76	4764.3	
250.97	3267.2	
251.18	3312.9	
251.39	5314.5	
251.6	4863.9	
251.81	3283.6	
252.03	3340.2	
252.24	4572.4	
252.45	5144.5	
252.66	2801.6	
252.87	3497.2	
253.08	4767.7	
253.29	5954.8	
253.5	2833	
253.72	3839.3	
253.93	4674.8	
254.14	5407.3	
254.35	2992.1	
254.56	3115.6	
254.77	4894	
254.98	4471.4	
255.19	3035.1	
255.41	3747.1	
255.62	4898.7	
255.83	5223	
256.04	3444	
256.25	3274.7	
256.46	5657.9	
256.67	4485.1	
256.88	3293.8	
257.09	3642	
257.31	4431.1	
257.52	4506.2	
257.73	4047.5	
257.94	3078.1	
258.15	4657.1	
258.36	4668	
258.57	3716.4	
258.78	2540.8	
258.99	5140.4	
259.2	4611.3	
259.41	3012.6	
259.63	3151.1	
259.84	5373.9	
260.05	5662.6	
260.26	3850.9	
260.47	3011.9	
260.68	5176.6	
260.89	4662.5	
261.1	3625.6	
261.31	2907.4	
261.52	5245.5	
261.73	5496.7	
261.95	3800.3	
262.16	3361.4	
262.37	5238	
262.58	5324	
262.79	3839.3	
263	3107.5	
263.21	4813.4	
263.42	4603.8	
263.63	3289.7	
263.84	3074.7	
264.05	5147.9	
264.26	5406	
264.47	3668.6	
264.69	3314.3	
264.9	5333.6	
265.11	4904.9	
265.32	2939.5	
265.53	3040.6	
265.74	4847.5	
265.95	4283.7	
266.16	3223.5	
266.37	3485	
266.58	4888.5	
266.79	4558.1	
267	3086.3	
267.21	2845.3	
267.42	4422.9	
267.63	4710.3	
267.84	3153.2	
268.06	2749.7	
268.27	5122	
268.48	5220.3	
268.69	3108.8	
268.9	3627.6	
269.11	5243.5	
269.32	4287.1	
269.53	3220.1	
269.74	2957.9	
269.95	4928.8	
270.16	4304.8	
270.37	3201	
270.58	3646.7	
270.79	4668	
271	5137.7	
271.21	3377.8	
271.42	3235.8	
271.63	4914.4	
271.84	4405.9	
272.05	2639.1	
272.26	2882.2	
272.47	4773.1	
272.68	4917.9	
272.89	3144.3	
273.11	3502	
273.32	4554	
273.53	5388.2	
273.74	3374.4	
273.95	3324.5	
274.16	5172.5	
274.37	4739.7	
274.58	3507.5	
274.79	2844.6	
275	4939.7	
275.21	5171.1	
275.42	4089.1	
275.63	3538.9	
275.84	4951.3	
276.05	5960.3	
276.26	3297.9	
276.47	3168.2	
276.68	4635.2	
276.89	5515.9	
277.1	3553.2	
277.31	2852.8	
277.52	4922.6	
277.73	5176.6	
277.94	2791.4	
278.15	3071.3	
278.36	4904.9	
278.57	4522.6	
278.78	3089.7	
278.99	3406.5	
279.2	4508.3	
279.41	4493.2	
279.62	3956	
279.83	2909.5	
280.04	5605.3	
280.25	4437.3	
280.46	3917.1	
280.67	3209.2	
280.88	4523.3	
281.09	5218.2	
281.3	3308.2	
281.51	4079.6	
281.72	5070.8	
281.93	5112.4	
282.14	3060.3	
282.35	3287	
282.56	5152	
282.77	5058.5	
282.98	3104	
283.19	3695.9	
283.4	6044.2	
283.61	4655.7	
283.82	2913.6	
284.03	3882.3	
284.24	4917.9	
284.45	5188.2	
284.66	3934.1	
284.87	3705.5	
285.08	5225.7	
285.29	5287.9	
285.5	2807.8	
285.71	3084.2	
285.92	5231.9	
286.12	5739.8	
286.33	3808.5	
286.54	3156.6	
286.75	5104.9	
286.96	4689.8	
287.17	2910.2	
287.38	3676.8	
287.59	4537.6	
287.8	4487.8	
288.01	3098.6	
288.22	3460.4	
288.43	5038.7	
288.64	4315.1	
288.85	3674.7	
289.06	3506.8	
289.27	5089.9	
289.48	5427.8	
289.69	3910.3	
289.9	3577.1	
290.11	5270.8	
290.32	4605.9	
290.53	3704.8	
290.74	3426.3	
290.94	5076.2	
291.15	5109.7	
291.36	3049.4	
291.57	3549.1	
291.78	4634.6	
291.99	4293.9	
292.2	2912.2	
292.41	3408.5	
292.62	5132.2	
292.83	5030.5	
293.04	4148.5	
293.25	2956.6	
293.46	4600.4	
293.67	5188.9	
293.88	2983.9	
294.09	2949.1	
294.29	4447.5	
294.5	4874.2	
294.71	3237.8	
294.92	3073.3	
295.13	4638	
295.34	5630.5	
295.55	2766.8	
295.76	2714.2	
295.97	5090.6	
296.18	5578.7	
296.39	2867.8	
296.6	3007.1	
296.81	4828.4	
297.01	5072.8	
297.22	3148.4	
297.43	2998.2	
297.64	4577.9	
297.85	4471.4	
298.06	2567.5	
298.27	2746.3	
298.48	4706.9	
298.69	4521.9	
298.9	3261	
299.11	2949.8	
299.31	4454.3	
299.52	4402.5	
299.73	3469.9	
299.94	3406.5	
300.15	4797.7	
300.36	4486.4	
300.57	3406.5	
300.78	3360.7	
300.99	4658.4	
301.2	4816.1	
301.4	3016	
301.61	3213.3	
301.82	4962.9	
302.03	5093.3	
302.24	3624.9	
302.45	2861.7	
302.66	4946.5	
302.87	5273.5	
303.08	2998.9	
303.29	3967.6	
303.49	4559.5	
303.7	4742.4	
303.91	2720.4	
304.12	3771.7	
304.33	4422.9	
304.54	4912.4	
304.75	3032.4	
304.96	2929.3	
305.16	5085.1	
305.37	5493.3	
305.58	2680.1	
305.79	2787.3	
306	4979.3	
306.21	4321.9	
306.42	2935.4	
306.63	4425.7	
306.83	4643.4	
307.04	5062.6	
307.25	3332	
307.46	3237.8	
307.67	4224.3	
307.88	5033.9	
308.09	2991.4	
308.29	3005.1	
308.5	4795	
308.71	5229.8	
308.92	3160	
309.13	2910.2	
309.34	4707.6	
309.55	4713.7	
309.75	3738.9	
309.96	3377.1	
310.17	5023	
310.38	4521.2	
310.59	3505.4	
310.8	3375.1	
311.01	5216.2	
311.21	4676.9	
311.42	2891	
311.63	2981.2	
311.84	4616.8	
312.05	4810.7	
312.26	3307.5	
312.46	3616	
312.67	4698	
312.88	4369	
313.09	2893.8	
313.3	2897.9	
313.51	5344.5	
313.71	5586.9	
313.92	2927.2	
314.13	3000.3	
314.34	4899.4	
314.55	4719.2	
314.76	3640.6	
314.96	3239.9	
315.17	4903.5	
315.38	5042.8	
315.59	2958.6	
315.8	2816.6	
316.01	5309	
316.21	5446.9	
316.42	2891	
316.63	3248.8	
316.84	4648.9	
317.05	5265.3	
317.26	3392.8	
317.46	3101.3	
317.67	4747.9	
317.88	5005.2	
318.09	3683.6	
318.3	2763.4	
318.5	4561.5	
318.71	4923.3	
318.92	4515.8	
319.13	3424.9	
319.34	5139	
319.54	5229.8	
319.75	2749.1	
319.96	2650.1	
320.17	4996.4	
320.38	5142.4	
320.58	2734.7	
320.79	3137.5	
321	5195.7	
321.21	5293.3	
321.42	3233.1	
321.62	2715.6	
321.83	4517.1	
322.04	4765.6	
322.25	3113.6	
322.46	2942.2	
322.66	4846.9	
322.87	4990.9	
323.08	3578.5	
323.29	2892.4	
323.5	5538.4	
323.7	4397	
323.91	3903.4	
324.12	3468.6	
324.33	4826.4	
324.53	4991.6	
324.74	3366.9	
324.95	3483.6	
325.16	4362.9	
325.37	4614.1	
325.57	2930	
325.78	2979.1	
325.99	4816.1	
326.2	4394.3	
326.4	4084.3	
326.61	2736.1	
326.82	4707.6	
327.03	4824.3	
327.24	4030.4	
327.44	3691.1	
327.65	4952.7	
327.86	4125.3	
328.07	3362.8	
328.27	2848	
328.48	5348.6	
328.69	4458.4	
328.9	4058.4	
329.1	3046.7	
329.31	4658.4	
329.52	5346.6	
329.73	2955.9	
329.93	3237.2	
330.14	4792.9	
330.35	4879.6	
330.56	4615.4	
330.76	3540.3	
330.97	4654.4	
331.18	4842.8	
331.39	3237.2	
331.59	2731.3	
331.8	5154.7	
332.01	5227.8	
332.22	3009.1	
332.42	3357.3	
332.63	4860.5	
332.84	4502.8	
333.05	3260.4	
333.25	2964.1	
333.46	4562.2	
333.67	4786.8	
333.88	3067.2	
334.08	3285.6	
334.29	6085.9	
334.5	5217.5	
334.7	2896.5	
334.91	4007.2	
335.12	4412	
335.33	5005.9	
335.53	3254.9	
335.74	4509.6	
335.95	4635.9	
336.16	4360.8	
336.36	3220.1	
336.57	3636.5	
336.78	4409.3	
336.98	5151.3	
337.19	3896.6	
337.4	3169.6	
337.61	5655.8	
337.81	4407.2	
338.02	3020.1	
338.23	3701.4	
338.43	5319.3	
338.64	4500.8	
338.85	2972.3	
339.05	3803.8	
339.26	5451.7	
339.47	4324.6	
339.68	2934.1	
339.88	4175.8	
340.09	4990.2	
340.3	5108.3	
340.5	3330	
340.71	2689	
340.92	4392.2	
341.13	5264	
341.33	2854.2	
341.54	3401.7	
341.75	4918.5	
341.95	4597.7	
342.16	3312.2	
342.37	3506.1	
342.57	4395.6	
342.78	4703.5	
342.99	3550.5	
343.19	2733.4	
343.4	5112.4	
343.61	4923.3	
343.81	3102	
344.02	2851.5	
344.23	5072.8	
344.43	5339.1	
344.64	3579.2	
344.85	3467.9	
345.06	4986.1	
345.26	5187.5	
345.47	3377.1	
345.68	3888.4	
345.88	4315.1	
346.09	5096	
346.3	3435.8	
346.5	2607.7	
346.71	4646.2	
346.92	4509.6	
347.12	2773.6	
347.33	3328.6	
347.54	5154.7	
347.74	5410.1	
347.95	3292.5	
348.16	2635.1	
348.36	4547.9	
348.57	4449.6	
348.78	3380.5	
348.98	3517.7	
349.19	4685.8	
349.39	4282.3	
349.6	2785.9	
349.81	3003	
350.01	4945.8	
350.22	4485.7	
350.43	3244.7	
350.63	3788.1	
350.84	4757.4	
351.05	4497.3	
351.25	2949.1	
351.46	2768.2	
351.67	5142.4	
351.87	4532.8	
352.08	3116.3	
352.29	3548.4	
352.49	5083.7	
352.7	5153.4	
352.9	2858.3	
353.11	3489.1	
353.32	5524.1	
353.52	4584	
353.73	2853.5	
353.94	3530.7	
354.14	4922.6	
354.35	4748.6	
354.55	2916.3	
354.76	3205.1	
354.97	4894.6	
355.17	4676.2	
355.38	2775	
355.59	3667.2	
355.79	4470	
356	4705.5	
356.2	3175.7	
356.41	2841.9	
356.62	4303.5	
356.82	4670.1	
357.03	3418.1	
357.24	3047.4	
357.44	4465.9	
357.65	4571.1	
357.85	3967.6	
358.06	3188	
358.27	4247.5	
358.47	4379.9	
358.68	2755.2	
358.88	3383.9	
359.09	4800.4	
359.3	5052.3	
359.5	3804.4	
359.71	3423.5	
359.91	5425.1	
360.12	4883	
360.33	3334.1	
360.53	3695.2	
360.74	4433.2	
360.94	4513.7	
361.15	3422.2	
361.36	2945	
361.56	5032.5	
361.77	4632.5	
361.97	3830.4	
362.18	3063.8	
362.38	5026.4	
362.59	4321.2	
362.8	2865.1	
363	2819.4	
363.21	4154.6	
363.41	4662.5	
363.62	3236.5	
363.83	3890.5	
364.03	4797.7	
364.24	5429.8	
364.44	4026.3	
364.65	3974.4	
364.85	4563.6	
365.06	4383.3	
365.27	2936.8	
365.47	3033	
365.68	5261.9	
365.88	4528.1	
366.09	3257.6	
366.29	3010.5	
366.5	4681.7	
366.71	4981.3	
366.91	3956.7	
367.12	3369.6	
367.32	5431.9	
367.53	4894.6	
367.73	3338.2	
367.94	4016.7	
368.14	4843.4	
368.35	5388.9	
368.56	3261.7	
368.76	2884.2	
368.97	5007.3	
369.17	6087.9	
369.38	2953.9	
369.58	3096.5	
369.79	4214.7	
369.99	5210	
370.2	3928	
370.4	3203	
370.61	4730.1	
370.82	5635.3	
371.02	3166.2	
371.23	2713.6	
371.43	4217.5	
371.64	5169.8	
371.84	3155.2	
372.05	3934.8	
372.25	6043.6	
372.46	4857.1	
372.66	3071.3	
372.87	3109.5	
373.07	4871.4	
373.28	6158.9	
373.48	3823.6	
373.69	3594.9	
373.9	4565.6	
374.1	4537.6	
374.31	3738.9	
374.51	3374.4	
374.72	5105.6	
374.92	4293.2	
375.13	3812.6	
375.33	3269.9	
375.54	4743.8	
375.74	4365.6	
375.95	3325.9	
376.15	4225	
376.36	4796.3	
376.56	4657.1	
376.77	3327.3	
376.97	3630.4	
377.18	5547.3	
377.38	4868	
377.59	3768.3	
377.79	2939.5	
378	4605.9	
378.2	4876.2	
378.41	3024.2	
378.61	2940.2	
378.82	5044.1	
379.02	4414.1	
379.23	3104	
379.43	3852.9	
379.64	5106.3	
379.84	4783.4	
380.05	3015.3	
380.25	2929.3	
380.46	4855.1	
380.66	4549.9	
380.87	3875.4	
381.07	4141	
381.28	5242.8	
381.48	4806.6	
381.69	3003	
381.89	3059	
382.1	4197	
382.3	4907.6	
382.51	3809.9	
382.71	4414.7	
382.91	4810	
383.12	5184.1	
383.32	3271.3	
383.53	3436.5	
383.73	4781.3	
383.94	4644.1	
384.14	3383.9	
384.35	2851.5	
384.55	4566.3	
384.76	4827.1	
384.96	3306.1	
385.17	3495.9	
385.37	4823	
385.58	4353.3	
385.78	3546.4	
385.98	2827.6	
386.19	4542.4	
386.39	4792.2	
386.6	3125.9	
386.8	3329.3	
387.01	4795.7	
387.21	4883	
387.42	3551.9	
387.62	3949.2	
387.83	4413.4	
388.03	4676.9	
388.23	3338.2	
388.44	3794.9	
388.64	4201.1	
388.85	4205.8	
389.05	3495.9	
389.26	3895.2	
389.46	5606	
389.67	5097.4	
389.87	3501.3	
390.07	3489.1	
390.28	4491.9	
390.48	4283.7	
390.69	2908.8	
390.89	3180.5	
391.1	4455	
391.3	5020.9	
391.5	4012	
391.71	4422.9	
391.91	4820.9	
392.12	5503.6	
392.32	4024.9	
392.53	3496.6	
392.73	4470	
392.93	4571.1	
393.14	3307.5	
393.34	3901.4	
393.55	4896	
393.75	4513	
393.95	3301.3	
394.16	3246	
394.36	4408.6	
394.57	4900.8	
394.77	2943.6	
394.98	3212.6	
395.18	4401.8	
395.38	4416.1	
395.59	3800.3	
395.79	3047.4	
396	4477.5	
396.2	4803.2	
396.4	3573	
396.61	3536.8	
396.81	4820.9	
397.02	4306.2	
397.22	3738.2	
397.42	3719.8	
397.63	4924.7	
397.83	4310.3	
398.04	2964.8	
398.24	3327.3	
398.44	4697.4	
398.65	4041.3	
398.85	2867.2	
399.05	2931.3	
399.26	4319.2	
399.46	5391.6	
399.67	3144.3	
399.87	3045.3	
400.07	4549.2	
400.28	4698	
400.48	3020.1	
400.69	3727.3	
400.89	4734.2	
401.09	5130.8	
401.3	2938.2	
401.5	3695.2	
401.7	5260.5	
401.91	5482.4	
402.11	3175.7	
402.32	3308.8	
402.52	4892.6	
402.72	4832.5	
402.93	3489.1	
403.13	2782.5	
403.33	5382.1	
403.54	4595	
403.74	3353.9	
403.94	3984	
404.15	4607.9	
404.35	5403.9	
404.56	3184.6	
404.76	4456.4	
404.96	4962.2	
405.17	4752	
405.37	4005.8	
405.57	3478.1	
405.78	4825	
405.98	4567	
406.18	3099.9	
406.39	3762.8	
406.59	4855.1	
406.79	4572.4	
407	2996.2	
407.2	3091.1	
407.4	4931.5	
407.61	4973.2	
407.81	3016.7	
408.01	4398.4	
408.22	4109.6	
408.42	5386.8	
408.62	3702	
408.83	3306.8	
409.03	4419.5	
409.23	4390.2	
409.44	3298.6	
409.64	3463.8	
409.84	4988.2	
410.05	4958.8	
410.25	3326.6	
410.45	3211.9	
410.66	4560.1	
410.86	6270.2	
411.06	3359.4	
411.27	3330.7	
411.47	5999.2	
411.67	4601.1	
411.88	3472.7	
412.08	3540.9	
412.28	4967	
412.49	5323.4	
412.69	3270.6	
412.89	3225.6	
413.09	5209.3	
413.3	5094.7	
413.5	3291.8	
413.7	3084.2	
413.91	4631.1	
414.11	5107	
414.31	3178.4	
414.52	3368.2	
414.72	4983.4	
414.92	4774.5	
415.12	3180.5	
415.33	3511.6	
415.53	5059.8	
415.73	5187.5	
415.94	3691.8	
416.14	3293.1	
416.34	4458.4	
416.55	4268	
416.75	4108.9	
416.95	3725.3	
417.15	5076.9	
417.36	5584.8	
417.56	4250.2	
417.76	3553.9	
417.97	5241.4	
418.17	4980.7	
418.37	3315	
418.57	3322.5	
418.78	4958.8	
418.98	4717.8	
419.18	3887.7	
419.38	3900	
419.59	4603.2	
419.79	4519.2	
419.99	3220.8	
420.2	3474.7	
420.4	5072.1	
420.6	5119.2	
420.8	3170.3	
421.01	3097.9	
421.21	4915.1	
421.41	4929.5	
421.61	3448.1	
421.82	3272	
422.02	4676.2	
422.22	5294.7	
422.42	3798.3	
422.63	3627	
422.83	4581.3	
423.03	5497.4	
423.23	3610.6	
423.44	2953.9	
423.64	4644.8	
423.84	4539	
424.04	3260.4	
424.25	3037.8	
424.45	5356.1	
424.65	5294.7	
424.85	2904	
425.06	3278.1	
425.26	5507	
425.46	4714.4	
425.66	3609.9	
425.87	3404.4	
426.07	5160.2	
426.27	5101.5	
426.47	3423.5	
426.67	3126.6	
426.88	5539.8	
427.08	5048.2	
427.28	3639.2	
427.48	3086.3	
427.69	4434.5	
427.89	4787.5	
428.09	3538.9	
428.29	3028.9	
428.5	5156.8	
428.7	4944.5	
428.9	3001.6	
429.1	3279.5	
429.3	4938.3	
429.51	5056.4	
429.71	3203	
429.91	3723.2	
430.11	5122.7	
430.31	5166.3	
430.52	3383.9	
430.72	3516.4	
430.92	5368.4	
431.12	5040.1	
431.32	3103.4	
431.53	3431.7	
431.73	4319.2	
431.93	5439.4	
432.13	3104	
432.33	2991.4	
432.54	4661.9	
432.74	4792.9	
432.94	2906.1	
433.14	3693.2	
433.34	5103.5	
433.55	4732.2	
433.75	3601.7	
433.95	4732.9	
434.15	4911	
434.35	4574.5	
434.56	3044.6	
434.76	2705.4	
434.96	4751.3	
435.16	4906.3	
435.36	2913.6	
435.56	3686.3	
435.77	4476.9	
435.97	4661.9	
436.17	4090.5	
436.37	3536.8	
436.57	4439.3	
436.78	4392.2	
436.98	4666	
437.18	4009.9	
437.38	4793.6	
437.58	4549.9	
437.78	4066.6	
437.99	3213.9	
438.19	5047.6	
438.39	6001.2	
438.59	3179.8	
438.79	2847.4	
438.99	5422.3	
439.2	4571.7	
439.4	2887	
439.6	2903.3	
439.8	4759.5	
440	5479.7	
440.2	3497.2	
440.4	3560.7	
440.61	5023.7	
440.81	5330.9	
441.01	2908.1	
441.21	3444.7	
441.41	5211.4	
441.61	4980.7	
441.81	3626.3	
442.02	4347.8	
442.22	5618.3	
442.42	5066.7	
442.62	2963.4	
442.82	3023.5	
443.02	5283.8	
443.22	4613.4	
443.43	3205.8	
443.63	2869.9	
443.83	4549.9	
444.03	4507.6	
444.23	3599	
444.43	3424.2	
444.63	4743.1	
444.83	5483.8	
445.04	2942.9	
445.24	3786.7	
445.44	4983.4	
445.64	5008.6	
445.84	3530.7	
446.04	3548.4	
446.24	4551.3	
446.44	5234.6	
446.65	3069.2	
446.85	3237.2	
447.05	4915.8	
447.25	5283.8	
447.45	3362.1	
447.65	2903.3	
447.85	4859.1	
448.05	4556.7	
448.25	3556.6	
448.46	3403.7	
448.66	4762.2	
448.86	4642.7	
449.06	2849.4	
449.26	3616.7	
449.46	4954	
449.66	4467.3	
449.86	3196.2	
450.06	3201.7	
450.26	4511	
450.47	4893.3	
450.67	3409.9	
450.87	3636.5	
451.07	5072.1	
451.27	4724	
451.47	2975	
451.67	3246.7	
451.87	4536.9	
452.07	5399.8	
452.27	3028.3	
452.47	3039.9	
452.67	4809.3	
452.88	5004.6	
453.08	2751.1	
453.28	4003.1	
453.48	5575.3	
453.68	4683.7	
453.88	2947	
454.08	3117	
454.28	4963.6	
454.48	4745.8	
454.68	3457	
454.88	3821.5	
455.08	5071.5	
455.28	4672.8	
455.48	2989.4	
455.68	3297.2	
455.89	5272.8	
456.09	5022.3	
456.29	3079.5	
456.49	3099.9	
456.69	5083.7	
456.89	4595.6	
457.09	3319.8	
457.29	3613.3	
457.49	4793.6	
457.69	4846.9	
457.89	3184.6	
458.09	2801.6	
458.29	4601.8	
458.49	5141.1	
458.69	3405.1	
458.89	2962.7	
459.09	5199.1	
459.29	5315.8	
459.49	3081.5	
459.69	3607.8	
459.9	4928.8	
460.1	4502.1	
460.3	3077.4	
460.5	2909.5	
460.7	4899.4	
460.9	4570.4	
461.1	2706	
461.3	3456.3	
461.5	5296.7	
461.7	5016.2	
461.9	2818.7	
462.1	3171.6	
462.3	4639.3	
462.5	4979.3	
462.7	2878.1	
462.9	2873.3	
463.1	5681.7	
463.3	5366.4	
463.5	3036.5	
463.7	3566.2	
463.9	4685.8	
464.1	4859.1	
464.3	2972.3	
464.5	3189.4	
464.7	5025.7	
464.9	4681	
465.1	3969.6	
465.3	3333.4	
465.5	5202.5	
465.7	5135.6	
465.9	3497.2	
466.1	3396.9	
466.3	4903.5	
466.5	4954.7	
466.7	3916.4	
466.9	3210.5	
467.1	4972.5	
467.3	5436	
467.5	3861.1	
467.7	3080.8	
467.9	5667.4	
468.1	6210.8	
468.3	3634.5	
468.5	3835.8	
468.7	4763.6	
468.9	4747.2	
469.1	3232.4	
469.3	3706.1	
469.5	6075.6	
469.7	4474.1	
469.9	3630.4	
470.1	3069.9	
470.3	4913.1	
470.5	4822.3	
470.7	3903.4	
470.9	3183.9	
471.1	4614.8	
471.3	5014.8	
471.5	3003	
471.69	4347.8	
471.89	4741	
472.09	4252.3	
472.29	3462.4	
472.49	3845.4	
472.69	4435.9	
472.89	4928.8	
473.09	2964.1	
473.29	3166.8	
473.49	4622.9	
473.69	4628.4	
473.89	3696.6	
474.09	3241.9	
474.29	5500.8	
474.49	5315.2	
474.69	3715	
474.89	3351.2	
475.09	4661.2	
475.29	4630.5	
475.49	2998.9	
475.69	3061.7	
475.88	5847.6	
476.08	5023.7	
476.28	2878.1	
476.48	3197.6	
476.68	5270.1	
476.88	5099.4	
477.08	3201.7	
477.28	3323.2	
477.48	4939	
477.68	5246.2	
477.88	2938.8	
478.08	3224.9	
478.28	5423.7	
478.48	4915.8	
478.67	3218.7	
478.87	3003	
479.07	5203.9	
479.27	4939	
479.47	3351.8	
479.67	3408.5	
479.87	5119.2	
480.07	5439.4	
480.27	2906.8	
480.47	4020.8	
480.67	4937.7	
480.87	5350	
481.06	3121.1	
481.26	3713	
481.46	4993.6	
481.66	4803.2	
481.86	3411.9	
482.06	4089.1	
482.26	4734.2	
482.46	5375.2	
482.66	3340.2	
482.86	3058.3	
483.05	5076.9	
483.25	4570.4	
483.45	5104.2	
483.65	3385.3	
483.85	4543.8	
484.05	4816.8	
484.25	3605.1	
484.45	3921.2	
484.65	5308.3	
484.84	5339.1	
485.04	3250.8	
485.24	3205.1	
485.44	5617.6	
485.64	4502.1	
485.84	2760	
486.04	3629	
486.24	4681.7	
486.44	4832.5	
486.63	2762	
486.83	3311.6	
487.03	4610	
487.23	4617.5	
487.43	2821.4	
487.63	4274.1	
487.83	4707.6	
488.02	5246.9	
488.22	3307.5	
488.42	3732.8	
488.62	5260.5	
488.82	4496.7	
489.02	3167.5	
489.22	3054.9	
489.41	5193.6	
489.61	4943.8	
489.81	2919.7	
490.01	2958.6	
490.21	5140.4	
490.41	5577.3	
490.61	2934.1	
490.8	3021.4	
491	4766.3	
491.2	4474.1	
491.4	3464.5	
491.6	2909.5	
491.8	4851.6	
491.99	4873.5	
492.19	2794.1	
492.39	2980.5	
492.59	5099.4	
492.79	5188.9	
492.99	3501.3	
493.18	2918.4	
493.38	5182.7	
493.58	5558.9	
493.78	3273.3	
493.98	3029.6	
494.18	4851	
494.37	4476.9	
494.57	3276.8	
494.77	3241.9	
494.97	4870.8	
495.17	5058.5	
495.37	2938.8	
495.56	3213.3	
495.76	5127.4	
495.96	4868.7	
496.16	3702	
496.36	2949.8	
496.55	4997	
496.75	4644.1	
496.95	3226.2	
497.15	3124.5	
497.35	4937.7	
497.54	4877.6	
497.74	3041.2	
497.94	4188.1	
498.14	5374.6	
498.34	5186.8	
498.53	2778.4	
498.73	3272.7	
498.93	4436.6	
499.13	4833.9	
499.33	3098.6	
499.52	3502.7	
499.72	4840.7	
499.92	5001.1	
500.12	2834.4	
500.32	3027.6	
500.51	5014.1	
500.71	4730.1	
500.91	3568.2	
501.11	3323.2	
501.31	4849.6	
501.5	5230.5	
501.7	3736.2	
501.9	3086.3	
502.1	4817.5	
502.29	5093.3	
502.49	3304.7	
502.69	3713.6	
502.89	4928.1	
503.09	4928.1	
503.28	2794.1	
503.48	2892.4	
503.68	4657.8	
503.88	4457.7	
504.07	3563.5	
504.27	3232.4	
504.47	4742.4	
504.67	4898.1	
504.86	3488.4	
505.06	3314.3	
505.26	4732.2	
505.46	5782.1	
505.65	3241.3	
505.85	3445.4	
506.05	4691.9	
506.25	5018.2	
506.44	2882.2	
506.64	3495.2	
506.84	4646.8	
507.04	5198.4	
507.23	3059	
507.43	3415.3	
507.63	5939.1	
507.83	4709	
508.02	3463.8	
508.22	3149.8	
508.42	6105	
508.62	4616.1	
508.81	3343	
509.01	3692.5	
509.21	4607.2	
509.4	4787.5	
509.6	3493.8	
509.8	3099.3	
510	4732.2	
510.19	5587.5	
510.39	3018.7	
510.59	3109.5	
510.79	4583.4	
510.98	5475.6	
511.18	3132	
511.38	3168.2	
511.57	5272.2	
511.77	4914.4	
511.97	3620.8	
512.17	3067.2	
512.36	5100.8	
512.56	5084.4	
512.76	3054.2	
512.95	2907.4	
513.15	5255.1	
513.35	4308.9	
513.55	3607.8	
513.74	3001	
513.94	5156.8	
514.14	4769	
514.33	3624.9	
514.53	3482.9	
514.73	4778.6	
514.92	4818.9	
515.12	3067.9	
515.32	2997.5	
515.51	4882.4	
515.71	5123.3	
515.91	4110.3	
516.11	2955.9	
516.3	5927.5	
516.5	4646.2	
516.7	3403.7	
516.89	3732.1	
517.09	4704.9	
517.29	4693.9	
517.48	3563.5	
517.68	3163.4	
517.88	4469.4	
518.07	4909	
518.27	3528	
518.47	2892.4	
518.66	5306.3	
518.86	4463.2	
519.06	2799.6	
519.25	3103.4	
519.45	4655	
519.65	5478.3	
519.84	3532.7	
520.04	3960.8	
520.24	5847	
520.43	5010.7	
520.63	3360.7	
520.83	3220.1	
521.02	4588.8	
521.22	5026.4	
521.42	3540.9	
521.61	3884.3	
521.81	4737.6	
522.01	4895.3	
522.2	3428.3	
522.4	3282.2	
522.6	5117.2	
522.79	4281.6	
522.99	3349.1	
523.18	2858.3	
523.38	4912.4	
523.58	4814.8	
523.77	4012.7	
523.97	2747	
524.17	6026.5	
524.36	5532.2	
524.56	3622.9	
524.76	3282.9	
524.95	4633.2	
525.15	4564.9	
525.34	3163.4	
525.54	3115.6	
525.74	4909	
525.93	4272.1	
526.13	3861.1	
526.33	2985.3	
526.52	5070.8	
526.72	4724.7	
526.91	3822.9	
527.11	3365.5	
527.31	5010	
527.5	5259.9	
527.7	3226.9	
527.89	2660.3	
528.09	4364.2	
528.29	4655.7	
528.48	3555.3	
528.68	3237.2	
528.87	4892.6	
529.07	5002.5	
529.27	3187.3	
529.46	2947.7	
529.66	4703.5	
529.85	4956.1	
530.05	2833	
530.25	3299.3	
530.44	5588.2	
530.64	4637.3	
530.83	3016.7	
531.03	3163.4	
531.23	5000.5	
531.42	4832.5	
531.62	3613.3	
531.81	3159.3	
532.01	5038	
532.21	5116.5	
532.4	2897.9	
532.6	3149.8	
532.79	5536.3	
532.99	4823.6	
533.18	3108.1	
533.38	3809.9	
533.58	4604.5	
533.77	5029.8	
533.97	3014.6	
534.16	3548.4	
534.36	5198.4	
534.55	4511	
534.75	3590.8	
534.95	3024.8	
535.14	5040.1	
535.34	4455	
535.53	2799.6	
535.73	4160.8	
535.92	5446.9	
536.12	4589.5	
536.31	2935.4	
536.51	3694.5	
536.71	4960.9	
536.9	4625.7	
537.1	3042.6	
537.29	3141.6	
537.49	5182.7	
537.68	4538.3	
537.88	3386.7	
538.07	2776.4	
538.27	4731.5	
538.46	5302.2	
538.66	2787.3	
538.86	3031.7	
539.05	4731.5	
539.25	4972.5	
539.44	3181.9	
539.64	2972.3	
539.83	4592.2	
540.03	5247.6	
540.22	2811.2	
540.42	2929.3	
540.61	4837.3	
540.81	4823	
541	3379.1	
541.2	3787.4	
541.39	4549.9	
541.59	4727.4	
541.78	3578.5	
541.98	2977.7	
542.18	4395.6	
542.37	4374.5	
542.57	3284.9	
542.76	3523.9	
542.96	4553.3	
543.15	4898.1	
543.35	3325.9	
543.54	2911.5	
543.74	5084.4	
543.93	4758.8	
544.13	3356.6	
544.32	4116.4	
544.52	5138.4	
544.71	4574.5	
544.91	2803.7	
545.1	3607.8	
545.3	4638	
545.49	4953.4	
545.69	2745.6	
545.88	3207.8	
546.08	5692.7	
546.27	5295.4	
546.47	3489.7	
546.66	3019.4	
546.86	5167	
547.05	5573.2	
547.24	3233.1	
547.44	3076	
547.63	4571.1	
547.83	5214.8	
548.02	3340.2	
548.22	3523.9	
548.41	4411.3	
548.61	5311.1	
548.8	3123.2	
549	3064.4	
549.19	4945.8	
549.39	5118.6	
549.58	2891	
549.78	3294.5	
549.97	5145.9	
550.17	4792.9	
550.36	3901.4	
550.55	4588.8	
550.75	4841.4	
550.94	5438.7	
551.14	3087.7	
551.33	3401	
551.53	4380.6	
551.72	5040.7	
551.92	3366.9	
552.11	3254.9	
552.31	5127.4	
552.5	5162.2	
552.69	4394.3	
552.89	3048.1	
553.08	5046.2	
553.28	4922.6	
553.47	3302	
553.67	4086.4	
553.86	5604.6	
554.06	4449.6	
554.25	2777.7	
554.44	3138.2	
554.64	6100.2	
554.83	5795.8	
555.03	3106.1	
555.22	3388	
555.42	5322.7	
555.61	5208.7	
555.8	3330.7	
556	3448.1	
556.19	4599.7	
556.39	5318.6	
556.58	3300	
556.78	3330.7	
556.97	5050.3	
557.16	4885.8	
557.36	4185.4	
557.55	3074	
557.75	4453	
557.94	5565.7	
558.13	3103.4	
558.33	2979.8	
558.52	5462.6	
558.72	4564.2	
558.91	3090.4	
559.1	3274	
559.3	4502.8	
559.49	4400.4	
559.69	2893.1	
559.88	3527.3	
560.07	5040.7	
560.27	5390.3	
560.46	3635.1	
560.66	3721.8	
560.85	4903.5	
561.04	4408.6	
561.24	3101.3	
561.43	3281.5	
561.63	4597.7	
561.82	4800.4	
562.01	4139.6	
562.21	3429.7	
562.4	5089.9	
562.59	5659.9	
562.79	3356.6	
562.98	3088.3	
563.18	5017.5	
563.37	5905	
563.56	3660.4	
563.76	3106.8	
563.95	4651.6	
564.14	4605.9	
564.34	3334.1	
564.53	3136.8	
564.73	4986.1	
564.92	5092.6	
565.11	3391.4	
565.31	2957.9	
565.5	5344.5	
565.69	4531.5	
565.89	3222.8	
566.08	3309.5	
566.27	5180.7	
566.47	5433.3	
566.66	3771.7	
566.85	2876.7	
567.05	4939	
567.24	4695.3	
567.44	3050.8	
567.63	3973.7	
567.82	5152.7	
568.02	4885.8	
568.21	3046	
568.4	3265.8	
568.6	4855.7	
568.79	4761.5	
568.98	3010.5	
569.18	2985.3	
569.37	4790.9	
569.56	6205.3	
569.76	3216.7	
569.95	3878.2	
570.14	5072.1	
570.34	4956.1	
570.53	3018.7	
570.72	2947.7	
570.91	5361.6	
571.11	4809.3	
571.3	3291.1	
571.49	3956	
571.69	4847.5	
571.88	4493.2	
572.07	3594.2	
572.27	3635.8	
572.46	4442	
572.65	5129.5	
572.85	3095.8	
573.04	3313.6	
573.23	5338.4	
573.43	4853	
573.62	2931.3	
573.81	3330	
574	4887.1	
574.2	4645.5	
574.39	3095.2	
574.58	3236.5	
574.78	5341.1	
574.97	4824.3	
575.16	3407.8	
575.36	3502.7	
575.55	5095.3	
575.74	5165.7	
575.93	2835.1	
576.13	3422.8	
576.32	4682.3	
576.51	4986.8	
576.71	3148.4	
576.9	4031.8	
577.09	5302.9	
577.28	4926	
577.48	3371	
577.67	2807.8	
577.86	4747.9	
578.05	4892.6	
578.25	3179.1	
578.44	3215.3	
578.63	4778.6	
578.83	5586.9	
579.02	2826.9	
579.21	3831.7	
579.4	4895.3	
579.6	4638.6	
579.79	3269.2	
579.98	4825	
580.17	5115.8	
580.37	5136.3	
580.56	2913.6	
580.75	3403.7	
580.94	5313.8	
581.14	5420.3	
581.33	3682.9	
581.52	3018.7	
581.71	4904.9	
581.91	5440.8	
582.1	2824.1	
582.29	3169.6	
582.48	4730.8	
582.68	4736.3	
582.87	3438.5	
583.06	3220.1	
583.25	5046.9	
583.45	4522.6	
583.64	3665.2	
583.83	4090.5	
584.02	4756.7	
584.21	4953.4	
584.41	3667.9	
584.6	3190.7	
584.79	4786.1	
584.98	5134.9	
585.18	2886.3	
585.37	2874.7	
585.56	4564.9	
585.75	4931.5	
585.94	3078.1	
586.14	3517	
586.33	5464.7	
586.52	4713.7	
586.71	3405.1	
586.91	3156.6	
587.1	4412.7	
587.29	5128.8	
587.48	3262.4	
587.67	3110.2	
587.87	5034.6	
588.06	5047.6	
588.25	4087.1	
588.44	3547.1	
588.63	4769	
588.83	5200.5	
589.02	3335.5	
589.21	3243.3	
589.4	4912.4	
589.59	4783.4	
589.78	2826.2	
589.98	3052.8	
590.17	4652.3	
590.36	4971.8	
590.55	2783.9	
590.74	3359.4	
590.94	5915.9	
591.13	4988.9	
591.32	3223.5	
591.51	2917.7	
591.7	5205.9	
591.89	4922	
592.09	2940.9	
592.28	3272	
592.47	4347.8	
592.66	5744.6	
592.85	2947	
593.05	3134.1	
593.24	4844.8	
593.43	5457.2	
593.62	3067.2	
593.81	3443.3	
594	4838.7	
594.19	5019.6	
594.39	3105.4	
594.58	3007.8	
594.77	5091.3	
594.96	5459.9	
595.15	3095.2	
595.34	3450.1	
595.54	5064.6	
595.73	4551.3	
595.92	2765.4	
596.11	3421.5	
596.3	5444.2	
596.49	4635.9	
596.68	3255.6	
596.88	3570.3	
597.07	5242.1	
597.26	4460.5	
597.45	2981.2	
597.64	3773.7	
597.83	4658.4	
598.02	5093.3	
598.22	3038.5	
598.41	3506.1	
598.6	5036	
598.79	4573.8	
598.98	3029.6	
599.17	3680.2	
599.36	4991.6	
599.55	5707.7	
599.74	4444.1	
599.94	4251.6	
600.13	5345.2	
600.32	4577.2	
600.51	2870.6	
600.7	2936.8	
600.89	5742.5	
601.08	5825.8	
601.27	2850.1	
601.47	3450.1	
601.66	5236.7	
601.85	5644.9	
602.04	3281.5	
602.23	3502.7	
602.42	4624.3	
602.61	5027.1	
602.8	3211.9	
602.99	3149.1	
603.18	4827.7	
603.37	4995.7	
603.57	3524.6	
603.76	3898.6	
603.95	5569.1	
604.14	5137.7	
604.33	3133.4	
604.52	3301.3	
604.71	5081	
604.9	4719.2	
605.09	3747.8	
605.28	3673.4	
605.47	5461.9	
605.66	5135.6	
605.86	3534.8	
606.05	3175	
606.24	5470.1	
606.43	4439.3	
606.62	3407.8	
606.81	3922.5	
607	5350	
607.19	4804.5	
607.38	2955.9	
607.57	3123.2	
607.76	4693.3	
607.95	4347.8	
608.14	3469.3	
608.33	3898.6	
608.52	4663.9	
608.72	5254.4	
608.91	2904	
609.1	2903.3	
609.29	4816.8	
609.48	4441.4	
609.67	3593.5	
609.86	3036.5	
610.05	4569.7	
610.24	4782	
610.43	2900.6	
610.62	2738.1	
610.81	5610.8	
611	5380	
611.19	3019.4	
611.38	3586.7	
611.57	5046.9	
611.76	5859.9	
611.95	2902	
612.14	2871.9	
612.33	4797.7	
612.52	4599.1	
612.71	3178.4	
612.9	2766.1	
613.09	4302.1	
613.28	5911.1	
613.47	3130.7	
613.66	3660.4	
613.85	4964.3	
614.04	4550.6	
614.24	3152.5	
614.43	2652.1	
614.62	5018.2	
614.81	4999.8	
615	3485	
615.19	3429.7	
615.38	4556.7	
615.57	4814.8	
615.76	3409.9	
615.95	4084.3	
616.14	5037.3	
616.33	4818.9	
616.52	3585.3	
616.71	3719.8	
616.9	5001.8	
617.09	4881	
617.28	3152.5	
617.47	3974.4	
617.66	4478.2	
617.85	4442.7	
618.04	3667.9	
618.22	3288.4	
618.41	4598.4	
618.6	5246.2	
618.79	3239.9	
618.98	3055.6	
619.17	5349.3	
619.36	4244.1	
619.55	3127.2	
619.74	3166.2	
619.93	4816.8	
620.12	4456.4	
620.31	3504.8	
620.5	3564.8	
620.69	5368.4	
620.88	5491.3	
621.07	4059.1	
621.26	3366.2	
621.45	4904.2	
621.64	4924.7	
621.83	3427.6	
622.02	2930.6	
622.21	5005.2	
622.4	4830.5	
622.59	3768.9	
622.78	3656.3	
622.97	4612	
623.16	5225.1	
623.35	3400.3	
623.54	2837.1	
623.72	4613.4	
623.91	4785.4	
624.1	3584.6	
624.29	2710.1	
624.48	5472.9	
624.67	5032.5	
624.86	3502.7	
625.05	2882.9	
625.24	5560.2	
625.43	4573.8	
625.62	4614.8	
625.81	3031.7	
626	5105.6	
626.19	4619.5	
626.38	3459.7	
626.56	3169.6	
626.75	4494.6	
626.94	5040.1	
627.13	3513.6	
627.32	2727.2	
627.51	5020.9	
627.7	5812.1	
627.89	2721.1	
628.08	3620.1	
628.27	4425.7	
628.46	4659.1	
628.65	3041.9	
628.83	2769.5	
629.02	5044.8	
629.21	4512.4	
629.4	3235.1	
629.59	3452.9	
629.78	4457.7	
629.97	5128.1	
630.16	3422.2	
630.35	3109.5	
630.54	5486.5	
630.72	5248.9	
630.91	3097.9	
631.1	3435.1	
631.29	4773.8	
631.48	4914.4	
631.67	3508.9	
631.86	3129.3	
632.05	4668.7	
632.24	4672.1	
632.42	2956.6	
632.61	3355.9	
632.8	4694.6	
632.99	4397	
633.18	3349.1	
633.37	3614.7	
633.56	4886.5	
633.75	4768.4	
633.93	3332	
634.12	3132.7	
634.31	5471.5	
634.5	5087.2	
634.69	3158	
634.88	3577.8	
635.07	4728.8	
635.25	5151.3	
635.44	3777.1	
635.63	3870	
635.82	4618.9	
636.01	4232.5	
636.2	3772.4	
636.39	3402.4	
636.57	5426.4	
636.76	5092.6	
636.95	3049.4	
637.14	3952.6	
637.33	4921.3	
637.52	5508.4	
637.7	2907.4	
637.89	3638.6	
638.08	4663.2	
638.27	5649	
638.46	3562.8	
638.65	3906.2	
638.83	5705.6	
639.02	4619.5	
639.21	3563.5	
639.4	3884.3	
639.59	4884.4	
639.78	4678.9	
639.96	3076.7	
640.15	3146.4	
640.34	4852.3	
640.53	4905.6	
640.72	3012.6	
640.91	3196.9	
641.09	4475.5	
641.28	5349.3	
641.47	3196.9	
641.66	3788.1	
641.85	4921.3	
642.03	5145.2	
642.22	3568.9	
642.41	3304.7	
642.6	4614.8	
642.79	4233.2	
642.97	3240.6	
643.16	3656.3	
643.35	4558.1	
643.54	4451.6	
643.73	3067.9	
643.91	3646.1	
644.1	4493.9	
644.29	4814.8	
644.48	3237.2	
644.67	3252.2	
644.85	4543.1	
645.04	4878.3	
645.23	3002.3	
645.42	3235.8	
645.6	4586.8	
645.79	5395	
645.98	3192.1	
646.17	2709.5	
646.36	4485.7	
646.54	4836.6	
646.73	3925.3	
646.92	3121.8	
647.11	4634.6	
647.29	5350.7	
647.48	3064.4	
647.67	3020.1	
647.86	5502.9	
648.05	5473.5	
648.23	3324.5	
648.42	4203.8	
648.61	5109.7	
648.8	4928.1	
648.98	3117	
649.17	3366.2	
649.36	4627.7	
649.55	4402.5	
649.73	3190.7	
649.92	3682.2	
650.11	4556	
650.3	4827.1	
650.48	3214.6	
650.67	3142.9	
650.86	5012.1	
651.05	4308.9	
651.23	3172.3	
651.42	3231.7	
651.61	4678.2	
651.79	4711.7	
651.98	3312.9	
652.17	3127.2	
652.36	4883	
652.54	4356	
652.73	3168.9	
652.92	3102.7	
653.11	4989.5	
653.29	4998.4	
653.48	2774.3	
653.67	3426.9	
653.85	4801.1	
654.04	5618.3	
654.23	3504.1	
654.42	3244	
654.6	4631.1	
654.79	5113.8	
654.98	2986.6	
655.16	3384.6	
655.35	4466.6	
655.54	4317.8	
655.73	3082.2	
655.91	3013.2	
656.1	5076.9	
656.29	4331.5	
656.47	2783.2	
656.66	3906.8	
656.85	4560.1	
657.03	4523.3	
657.22	3074	
657.41	3097.9	
657.59	4540.3	
657.78	4423.6	
657.97	2805	
658.16	3280.8	
658.34	4932.2	
658.53	5246.2	
658.72	3930.7	
658.9	4287.8	
659.09	4676.9	
659.28	4633.2	
659.46	3159.3	
659.65	3063.1	
659.84	4447.5	
660.02	4848.9	
660.21	3085.6	
660.4	2969.6	
660.58	5102.2	
660.77	4685.8	
660.96	3414	
661.14	2805.7	
661.33	5531.6	
661.52	5378	
661.7	2777	
661.89	5262.6	
662.08	4466.6	
662.26	4114.4	
662.45	2957.3	
662.64	3083.6	
662.82	4989.5	
663.01	4345.1	
663.2	3084.9	
663.38	3511.6	
663.57	4859.1	
663.75	4771.1	
663.94	3242.6	
664.13	4161.5	
664.31	4521.9	
664.5	4927.4	
664.69	3379.1	
664.87	3810.6	
665.06	4369.7	
665.25	4764.9	
665.43	3989.4	
665.62	3977.2	
665.8	4960.2	
665.99	4485.1	
666.18	3304.1	
666.36	3361.4	
666.55	4992.9	
666.74	4941.7	
666.92	3125.2	
667.11	4196.3	
667.29	4689.8	
667.48	5044.1	
667.67	3908.2	
667.85	3212.6	
668.04	4572.4	
668.22	4517.8	
668.41	3358.7	
668.6	3553.2	
668.78	4417.5	
668.97	4610.7	
669.15	3581.9	
669.34	2907.4	
669.53	4470	
669.71	4697.4	
669.9	3038.5	
670.08	3390.1	
670.27	4326.7	
670.46	4864.6	
670.64	3649.5	
670.83	3773.7	
671.01	4320.5	
671.2	4724	
671.38	3088.3	
671.57	3049.4	
671.76	5225.7	
671.94	5574.6	
672.13	2966.8	
672.31	3692.5	
672.5	4943.1	
672.69	4473.4	
672.87	3060.3	
673.06	3262.4	
673.24	4859.8	
673.43	4519.2	
673.61	3573	
673.8	3265.8	
673.98	4893.3	
674.17	5052.3	
674.36	3734.8	
674.54	3548.4	
674.73	4732.2	
674.91	5047.6	
675.1	3361.4	
675.28	3104	
675.47	4646.8	
675.65	4968.4	
675.84	3314.3	
676.03	3510.2	
676.21	4544.4	
676.4	4135.5	
676.58	3831.7	
676.77	3623.5	
676.95	5541.8	
677.14	4527.4	
677.32	3042.6	
677.51	3015.3	
677.69	4976.6	
677.88	4332.8	
678.06	3014.6	
678.25	3149.8	
678.44	4643.4	
678.62	4509.6	
678.81	2901.3	
678.99	3502	
679.18	5172.5	
679.36	4863.2	
679.55	3191.4	
679.73	3670	
679.92	4892.6	
680.1	4536.9	
680.29	4058.4	
680.47	3200.3	
680.66	4525.3	
680.84	5079	
681.03	2878.1	
681.21	3578.5	
681.4	4451.6	
681.58	4430.4	
681.77	3138.2	
681.95	3072	
682.14	5013.4	
682.32	5301.5	
682.51	3738.9	
682.69	2940.2	
682.88	4460.5	
683.06	4885.1	
683.25	3476.8	
683.43	3812.6	
683.62	4710.3	
683.8	4994.3	
683.99	3994.9	
684.17	3421.5	
684.36	5595.1	
684.54	4717.2	
684.73	3011.9	
684.91	3138.9	
685.1	5027.1	
685.28	4562.2	
685.46	3613.3	
685.65	3663.1	
685.83	5155.4	
686.02	4781.3	
686.2	3230.3	
686.39	3351.2	
686.57	4561.5	
686.76	5578	
686.94	3228.3	
687.13	3366.2	
687.31	4990.9	
687.5	4764.9	
687.68	2983.9	
687.86	3766.2	
688.05	5935	
688.23	4367	
688.42	3792.8	
688.6	3250.8	
688.79	4570.4	
688.97	4612.7	
689.16	3491.1	
689.34	2837.1	
689.52	4982.7	
689.71	5252.4	
689.89	3596.9	
690.08	3220.8	
690.26	4758.8	
690.45	4634.6	
690.63	3799.7	
690.81	3315.7	
691	4715.1	
691.18	4566.3	
691.37	3479.5	
691.55	5010	
691.74	4445.5	
691.92	5914.5	
692.1	3420.8	
692.29	3060.3	
692.47	4705.5	
692.66	4263.9	
692.84	3162.1	
693.02	3531.4	
693.21	4245.4	
693.39	4686.4	
693.58	3609.9	
693.76	3170.3	
693.94	5358.9	
694.13	5240.8	
694.31	3137.5	
694.5	3863.8	
694.68	4403.8	
694.86	4691.9	
695.05	3318.4	
695.23	3419.4	
695.42	4900.8	
695.6	6452.5	
695.78	3784	
695.97	3225.6	
696.15	4959.5	
696.34	4485.7	
696.52	3029.6	
696.7	3635.1	
696.89	4806.6	
697.07	4368.3	
697.25	3534.8	
697.44	4526	
697.62	4803.9	
697.81	4996.4	
697.99	3351.8	
698.17	3645.4	
698.36	4435.2	
698.54	4840	
698.72	3639.2	
698.91	2967.5	
699.09	4597.7	
699.28	4479.6	
699.46	3388	
699.64	3288.4	
699.83	4431.8	
700.01	5208.7	
700.19	3892.5	
700.38	2755.2	
700.56	5108.3	
700.74	4487.1	
700.93	2988	
701.11	3544.4	
701.29	4786.1	
701.48	5583.4	
701.66	3084.2	
701.84	3170.3	
702.03	4565.6	
702.21	4930.8	
702.39	2856.9	
702.58	3215.3	
702.76	4879.6	
702.94	4870.8	
703.13	2863.1	
703.31	4519.9	
703.49	4427	
703.68	4965.6	
703.86	2999.6	
704.04	3653.6	
704.23	4769	
704.41	4977.9	
704.59	3125.2	
704.78	3926	
704.96	5816.9	
705.14	4956.8	
705.33	2958.6	
705.51	3549.8	
705.69	4533.5	
705.87	5142.4	
706.06	3596.2	
706.24	2942.2	
706.42	4787.5	
706.61	4920.6	
706.79	3748.5	
706.97	2882.9	
707.16	4399.7	
707.34	4796.3	
707.52	3672	
707.7	3064.4	
707.89	4411.3	
708.07	4332.1	
708.25	3682.9	
708.44	3738.2	
708.62	4433.9	
708.8	5190.9	
708.98	3902.1	
709.17	3132.7	
709.35	4694.6	
709.53	4773.1	
709.72	2947.7	
709.9	3295.9	
710.08	4987.5	
710.26	4979.3	
710.45	4102.1	
710.63	3224.9	
710.81	4691.9	
710.99	4769.7	
711.18	3682.2	
711.36	3300	
711.54	4595.6	
711.72	5133.6	
711.91	3411.9	
712.09	3069.2	
712.27	4781.3	
712.45	5177.3	
712.64	3672	
712.82	2985.9	
713	4470	
713.18	4592.9	
713.37	3067.9	
713.55	3954.6	
713.73	5261.9	
713.91	4388.8	
714.1	3472.7	
714.28	3154.6	
714.46	5171.1	
714.64	4645.5	
714.83	2930.6	
715.01	3442	
715.19	4842.1	
715.37	4366.3	
715.55	3257	
715.74	3565.5	
715.92	5494	
716.1	4080.9	
716.28	4308.9	
716.47	3649.5	
716.65	4688.5	
716.83	4630.5	
717.01	3519.8	
717.19	3559.4	
717.38	6100.9	
717.56	4425.7	
717.74	3683.6	
717.92	3109.5	
718.1	5292	
718.29	4626.4	
718.47	2820.1	
718.65	3220.1	
718.83	5102.9	
719.01	4995	
719.2	2686.9	
719.38	3334.8	
719.56	4788.8	
719.74	5902.9	
719.92	3091.1	
720.11	3837.9	
720.29	4911.7	
720.47	4378.6	
720.65	2939.5	
720.83	3438.5	
721.02	4629.1	
721.2	4520.5	
721.38	3627.6	
721.56	3067.9	
721.74	4155.3	
721.92	4291.9	
722.11	3958	
722.29	3785.3	
722.47	5142.4	
722.65	4554.7	
722.83	3150.5	
723.01	3700	
723.2	4579.9	
723.38	4826.4	
723.56	2798.9	
723.74	3518.4	
723.92	4319.2	
724.1	5071.5	
724.29	3106.1	
724.47	3876.8	
724.65	4451.6	
724.83	4301.4	
725.01	3062.4	
725.19	3568.9	
725.37	4334.2	
725.56	4318.5	
725.74	2975	
725.92	3099.3	
726.1	4348.5	
726.28	4552	
726.46	3363.4	
726.64	3196.2	
726.83	4626.4	
727.01	4681	
727.19	2951.1	
727.37	3496.6	
727.55	4686.4	
727.73	4943.8	
727.91	2902.7	
728.09	2851.5	
728.28	5056.4	
728.46	5195	
728.64	3513.6	
728.82	3479.5	
729	5668.1	
729.18	5185.5	
729.36	2882.9	
729.54	4554.7	
729.72	5833.3	
729.91	4584	
730.09	4228.4	
730.27	3291.8	
730.45	4518.5	
730.63	4931.5	
730.81	3667.2	
730.99	3061	
731.17	5321.3	
731.35	4354.7	
731.53	3388.7	
731.71	3195.5	
731.9	5091.9	
732.08	5180	
732.26	3330.7	
732.44	3140.2	
732.62	5292	
732.8	4912.4	
732.98	3621.5	
733.16	3050.8	
733.34	4959.5	
733.52	4145.1	
733.7	3385.3	
733.88	3538.9	
734.07	4807.9	
734.25	4687.8	
734.43	3007.1	
734.61	4063.9	
734.79	5723.4	
734.97	4591.5	
735.15	3060.3	
735.33	3262.4	
735.51	4855.1	
735.69	4629.1	
735.87	4025.6	
736.05	3482.2	
736.23	4738.3	
736.41	4515.1	
736.59	3323.9	
736.77	3435.1	
736.95	5018.9	
737.13	4604.5	
737.32	3131.3	
737.5	3284.3	
737.68	5407.3	
737.86	4534.9	
738.04	2992.1	
738.22	4230.4	
738.4	4486.4	
738.58	4766.3	
738.76	3408.5	
738.94	2737.5	
739.12	4511	
739.3	4453	
739.48	3809.9	
739.66	3563.5	
739.84	4745.1	
740.02	4675.5	
740.2	2838.5	
740.38	3021.4	
740.56	4952	
740.74	4155.3	
740.92	3480.9	
741.1	3391.4	
741.28	4630.5	
741.46	4407.9	
741.64	3199.6	
741.82	3537.5	
742	4702.8	
742.18	4590.9	
742.36	3345.7	
742.54	3096.5	
742.72	5079.6	
742.9	4154	
743.08	3612.6	
743.26	2820.1	
743.44	5122.7	
743.62	5074.9	
743.8	3711.6	
743.98	3096.5	
744.16	4887.8	
744.34	4668	
744.52	3633.1	
744.7	3597.6	
744.88	5031.9	
745.06	4665.3	
745.24	3758	
745.42	3760.8	
745.6	5081.7	
745.78	4934.9	
745.96	2939.5	
746.14	3155.9	
746.32	5637.4	
746.5	5057.1	
746.68	3553.2	
746.86	3236.5	
747.03	5360.2	
747.21	4302.1	
747.39	3495.9	
747.57	3214.6	
747.75	4769.7	
747.93	5099.4	
748.11	3170.3	
748.29	3138.2	
748.47	5965.7	
748.65	4624.3	
748.83	3602.4	
749.01	3522.5	
749.19	5018.2	
749.37	4345.1	
749.55	3414.6	
749.73	3521.1	
749.91	4806.6	
750.09	4678.9	
750.26	3480.9	
750.44	3108.1	
750.62	4710.3	
750.8	4740.4	
750.98	3004.4	
751.16	3274	
751.34	4955.4	
751.52	4416.8	
751.7	3824.9	
751.88	3005.7	
752.06	5209.3	
752.24	4960.2	
752.42	2968.9	
752.59	3218.7	
752.77	4819.6	
752.95	5631.2	
753.13	3763.5	
753.31	3289	
753.49	4549.2	
753.67	4849.6	
753.85	3569.6	
754.03	3250.8	
754.21	5164.3	
754.38	5371.1	
754.56	3394.8	
754.74	2841.2	
754.92	4629.8	
755.1	5104.9	
755.28	2847.4	
755.46	2896.5	
755.64	5797.1	
755.82	5995.8	
755.99	3276.1	
756.17	3354.6	
756.35	4290.5	
756.53	5356.8	
756.71	2640.5	
756.89	3295.2	
757.07	5014.1	
757.25	4384.7	
757.42	3590.8	
757.6	4286.4	
757.78	5000.5	
757.96	4362.2	
758.14	3392.1	
758.32	3018	
758.5	4072	
758.67	4648.2	
758.85	3254.2	
759.03	3286.3	
759.21	4810.7	
759.39	4390.8	
759.57	2934.1	
759.75	3815.4	
759.92	5298.8	
760.1	4784.1	
760.28	3969	
760.46	4168.3	
760.64	4563.6	
760.82	4364.2	
760.99	3856.3	
761.17	3269.2	
761.35	5051	
761.53	4263.2	
761.71	3296.5	
761.89	3734.8	
762.06	4904.9	
762.24	4556	
762.42	3338.9	
762.6	3144.3	
762.78	4575.8	
762.96	4951.3	
763.13	3558.7	
763.31	3324.5	
763.49	5044.1	
763.67	4477.5	
763.85	3930.7	
764.02	4325.3	
764.2	5319.9	
764.38	4616.8	
764.56	3253.5	
764.74	3928	
764.91	5365.7	
765.09	4527.4	
765.27	3117.7	
765.45	2877.4	
765.63	5454.4	
765.8	5266	
765.98	2846	
766.16	2948.4	
766.34	4349.2	
766.52	4117.8	
766.69	3665.2	
766.87	2878.8	
767.05	4558.1	
767.23	5175.9	
767.41	3112.9	
767.58	3295.2	
767.76	5038.7	
767.94	5069.4	
768.12	3231.7	
768.29	3657	
768.47	4650.3	
768.65	5160.2	
768.83	2971.6	
769	3733.4	
769.18	4401.8	
769.36	4823	
769.54	3751.9	
769.72	2991.4	
769.89	5156.1	
770.07	5174.5	
770.25	3278.1	
770.43	4149.9	
770.6	5702.9	
770.78	5992.4	
770.96	3326.6	
771.14	3751.2	
771.31	5080.3	
771.49	4638.6	
771.67	2813.2	
771.85	2938.2	
772.02	4148.5	
772.2	4659.1	
772.38	3445.4	
772.55	3136.1	
772.73	4825	
772.91	4648.2	
773.09	3424.2	
773.26	3543.7	
773.44	4831.8	
773.62	4607.9	
773.8	3067.9	
773.97	2918.4	
774.15	4851	
774.33	4637.3	
774.5	3018.7	
774.68	3232.4	
774.86	4992.3	
775.04	4601.1	
775.21	3122.5	
775.39	3099.3	
775.57	4794.3	
775.74	5111	
775.92	2974.3	
776.1	2913.6	
776.27	4861.9	
776.45	5654.4	
776.63	3136.8	
776.81	2818	
776.98	4600.4	
777.16	5307.7	
777.34	3200.3	
777.51	3486.3	
777.69	4624.3	
777.87	4426.3	
778.04	3323.2	
778.22	3733.4	
778.4	4448.2	
778.57	4951.3	
778.75	2803.7	
778.93	2977.1	
779.1	4422.2	
779.28	4196.3	
779.46	2773.6	
779.64	3099.3	
779.81	5139.7	
779.99	5719.3	
780.17	3684.3	
780.34	3825.6	
780.52	4657.1	
780.69	4780	
780.87	3372.3	
781.05	3068.5	
781.22	4745.8	
781.4	4742.4	
781.58	3147.7	
781.75	2576.3	
781.93	4706.9	
782.11	4335.5	
782.28	3790.1	
782.46	3169.6	
782.64	4251.6	
782.81	4870.8	
782.99	3280.2	
783.17	3208.5	
783.34	4814.8	
783.52	4308.9	
783.69	3384.6	
783.87	3966.9	
784.05	4390.2	
784.22	4345.1	
784.4	3928	
784.58	3490.4	
784.75	5077.6	
784.93	4440.7	
785.1	3239.9	
785.28	3677.5	
785.46	4864.6	
785.63	4364.9	
785.81	3252.9	
785.99	3037.1	
786.16	4530.1	
786.34	4773.8	
786.51	3154.6	
786.69	3463.8	
786.87	4194.2	
787.04	4539.7	
787.22	3018.7	
787.39	3717.7	
787.57	4356	
787.75	5128.8	
787.92	3896.6	
788.1	3805.1	
788.27	4303.5	
788.45	4113.7	
788.63	3604.4	
788.8	2664.4	
788.98	4830.5	
789.15	4070.7	
789.33	2884.2	
789.5	3158.7	
789.68	5036	
789.86	5101.5	
790.03	3520.5	
790.21	3144.3	
790.38	5150	
790.56	4499.4	
790.73	3017.3	
790.91	3026.9	
791.09	4413.4	
791.26	4931.5	
791.44	3255.6	
791.61	2845.3	
791.79	4424.3	
791.96	4394.3	
792.14	2915.6	
792.32	2639.8	
792.49	4439.3	
792.67	4514.4	
792.84	3087	
793.02	2828.9	
793.19	4715.1	
793.37	5237.3	
793.54	2607.7	
793.72	2912.2	
793.89	5283.8	
794.07	4378.6	
794.25	3188.7	
794.42	2708.8	
794.6	5196.4	
794.77	4848.2	
794.95	3519.8	
795.12	3050.1	
795.3	4509.6	
795.47	4897.4	
795.65	3412.6	
795.82	3299.3	
796	4246.1	
796.17	5664	
796.35	3198.2	
796.52	3720.5	
796.7	4852.3	
796.87	4866	
797.05	3162.1	
797.22	3784.6	
797.4	4851.6	
797.57	5609.4	
797.75	3351.2	
797.92	3149.1	
798.1	5113.8	
798.27	4347.2	
798.45	2752.5	
798.62	2931.3	
798.8	4655	
798.97	5005.9	
799.15	3463.8	
799.32	3330.7	
799.5	4139.6	
799.67	4734.9	
799.85	3591.5	
800.02	2657.6	
800.2	4381.3	
800.37	4589.5	
800.55	3656.3	
800.72	3104	
800.9	5023	
801.07	5283.1	
801.25	4123.2	
801.42	3344.3	
801.6	5037.3	
801.77	4652.3	
801.95	3177.8	
802.12	3061.7	
802.29	4807.3	
802.47	4668	
802.64	3391.4	
802.82	2639.1	
802.99	4387.4	
803.17	5026.4	
803.34	3332	
803.52	3017.3	
803.69	5563.6	
803.87	4146.5	
804.04	3266.5	
804.21	3292.5	
804.39	5212.1	
804.56	4519.9	
804.74	2870.6	
804.91	3396.9	
805.09	4354	
805.26	4511	
805.44	2917.7	
805.61	3189.4	
805.78	5006.6	
805.96	4861.2	
806.13	3408.5	
806.31	3622.2	
806.48	4089.8	
806.66	4478.9	
806.83	3375.1	
807	3323.2	
807.18	4388.1	
807.35	4700.1	
807.53	3284.9	
807.7	2775.7	
807.87	5269.4	
808.05	4390.8	
808.22	3660.4	
808.4	2773.6	
808.57	4371.7	
808.74	4123.9	
808.92	3092.4	
809.09	3855.6	
809.27	4446.8	
809.44	4840	
809.61	2754.5	
809.79	3018.7	
809.96	5401.9	
810.14	4961.5	
810.31	2711.5	
810.48	3223.5	
810.66	4461.8	
810.83	5038.7	
811.01	3070.6	
811.18	3440.6	
811.35	4995	
811.53	3968.3	
811.7	3700	
811.87	3466.5	
812.05	4534.9	
812.22	4369.7	
812.39	3024.8	
812.57	2917.7	
812.74	4522.6	
812.92	5666	
813.09	3199.6	
813.26	3414	
813.44	5493.3	
813.61	4321.9	
813.78	2727.9	
813.96	3515.7	
814.13	4521.2	
814.3	4305.5	
814.48	3818.1	
814.65	3238.5	
814.82	5332.2	
815	4246.1	
815.17	3274	
815.34	3941.7	
815.52	4410	
815.69	4391.5	
815.87	3284.9	
816.04	3206.4	
816.21	4416.1	
816.38	4069.3	
816.56	3216	
816.73	2992.1	
816.9	5512.4	
817.08	4967	
817.25	3051.5	
817.42	3694.5	
817.6	4070	
817.77	4427	
817.94	3386	
818.12	2973.7	
818.29	4321.2	
818.46	6195.1	
818.64	3143.6	
818.81	2950.4	
818.98	4266.6	
819.16	5771.2	
819.33	3493.2	
819.5	3312.9	
819.67	4758.8	
819.85	5197.7	
820.02	3239.2	
820.19	3449.5	
820.37	4616.8	
820.54	4386.1	
820.71	3352.5	
820.88	4111.6	
821.06	4602.5	
821.23	4281.6	
821.4	3387.3	
821.58	3303.4	
821.75	4939	
821.92	4545.8	
822.09	2795.5	
822.27	2840.5	
822.44	4495.3	
822.61	4360.1	
822.79	2800.9	
822.96	5122	
823.13	4703.5	
823.3	4192.9	
823.48	3149.1	
823.65	2880.1	
823.82	5064.6	
823.99	4122.6	
824.17	3941.7	
824.34	2924.5	
824.51	5616.9	
824.68	4508.3	
824.86	3059.7	
825.03	3343.7	
825.2	4442	
825.37	5182	
825.55	3067.2	
825.72	3309.5	
825.89	5659.2	
826.06	5263.3	
826.24	3244	
826.41	3272.7	
826.58	5228.5	
826.75	4672.1	
826.92	2667.8	
827.1	2846.7	
827.27	6944.7	
827.44	5593	
827.61	3048.7	
827.79	3686.3	
827.96	4293.2	
828.13	4424.3	
828.3	3206.4	
828.47	2757.9	
828.65	4727.4	
828.82	4664.6	
828.99	4035.9	
829.16	3534.1	
829.34	5005.2	
829.51	4805.2	
829.68	3297.9	
829.85	3401.7	
830.02	5258.5	
830.2	5002.5	
830.37	2615.3	
830.54	3860.4	
830.71	5550.7	
830.88	4491.2	
831.05	2646	
831.23	3024.2	
831.4	5355.4	
831.57	5855.8	
831.74	3093.1	
831.91	2722.4	
832.09	4766.3	
832.26	5031.2	
832.43	3123.8	
832.6	3551.2	
832.77	4708.3	
832.94	5314.5	
833.12	2615.3	
833.29	3112.9	
833.46	4817.5	
833.63	6051.7	
833.8	3443.3	
833.97	3194.1	
834.15	5011.4	
834.32	4807.9	
834.49	3289	
834.66	3398.9	
834.83	5111	
835	4349.2	
835.17	3039.9	
835.35	3090.4	
835.52	4868	
835.69	4808.6	
835.86	3218.7	
836.03	2664.4	
836.2	4955.4	
836.37	4624.3	
836.55	3116.3	
836.72	2977.1	
836.89	4635.2	
837.06	5034.6	
837.23	3179.1	
837.4	3492.5	
837.57	5658.5	
837.75	6033.3	
837.92	2899.9	
838.09	3056.3	
838.26	4652.3	
838.43	5146.5	
838.6	3294.5	
838.77	3010.5	
838.94	5778.7	
839.11	5610.1	
839.29	3231	
839.46	2595.5	
839.63	4985.4	
839.8	4734.2	
839.97	3044	
840.14	3022.8	
840.31	4832.5	
840.48	5021.6	
840.65	2658.9	
840.82	3038.5	
841	4936.3	
841.17	4898.1	
841.34	2850.8	
841.51	2874.7	
841.68	4896.7	
841.85	4726	
842.02	2964.1	
842.19	2488.3	
842.36	4870.1	
842.53	4791.6	
842.7	2836.4	
842.87	3419.4	
843.05	6038.8	
843.22	4653.7	
843.39	2715.6	
843.56	2960.7	
843.73	4592.2	
843.9	5060.5	
844.07	4437.3	
844.24	3660.4	
844.41	6748.1	
844.58	4374.5	
844.75	2716.3	
844.92	2972.3	
845.09	4882.4	
845.26	4898.7	
845.43	2854.9	
845.6	2977.1	
845.77	4947.9	
845.94	4786.1	
846.12	3161.4	
846.29	3307.5	
846.46	5154.1	
846.63	4941.7	
846.8	2814.6	
846.97	3388	
847.14	5240.8	
847.31	4913.1	
847.48	3173	
847.65	3480.9	
847.82	5144.5	
847.99	5088.5	
848.16	3762.1	
848.33	3444.7	
848.5	4563.6	
848.67	5331.5	
848.84	2783.9	
849.01	2930.6	
849.18	4524	
849.35	4269.3	
849.52	3509.5	
849.69	2769.5	
849.86	5134.9	
850.03	5253.7	
850.2	2818	
850.37	3388.7	
850.54	5212.1	
850.71	4668.7	
850.88	3364.8	
851.05	2810.5	
851.22	4851.6	
851.39	5317.2	
851.56	2684.2	
851.73	3163.4	
851.9	4390.2	
852.07	5100.1	
852.24	3132	
852.41	2819.4	
852.58	4839.4	
852.75	4460.5	
852.92	3166.2	
853.09	2748.4	
853.26	4595	
853.43	5266	
853.6	2824.1	
853.77	2438.4	
853.94	5352	
854.11	4384.7	
854.28	4042.7	
854.44	3019.4	
854.61	5694	
854.78	5199.8	
854.95	2777	
855.12	3507.5	
855.29	4123.2	
855.46	5399.8	
855.63	2874	
855.8	3855.6	
855.97	4653.7	
856.14	5180	
856.31	3878.2	
856.48	3093.8	
856.65	4640.7	
856.82	4354	
856.99	2751.1	
857.16	3023.5	
857.33	5829.9	
857.49	4704.2	
857.66	3062.4	
857.83	3213.3	
858	4690.5	
858.17	4870.1	
858.34	2678.7	
858.51	2846	
858.68	5423.7	
858.85	5446.2	
859.02	3285.6	
859.19	3443.3	
859.36	4405.2	
859.52	4393.6	
859.69	2781.8	
859.86	3281.5	
860.03	4430.4	
860.2	5322.7	
860.37	2642.6	
860.54	2892.4	
860.71	5129.5	
860.88	5390.3	
861.05	3180.5	
861.21	3492.5	
861.38	5449	
861.55	4237.2	
861.72	2587.3	
861.89	3138.9	
862.06	5209.3	
862.23	5438	
862.4	2771.6	
862.56	2912.2	
862.73	5005.2	
862.9	4758.1	
863.07	3241.9	
863.24	2605	
863.41	4354	
863.58	4425	
863.75	2847.4	
863.91	3267.2	
864.08	5315.8	
864.25	5051	
864.42	3545	
864.59	3913.7	
864.76	5571.2	
864.93	4412	
865.09	2737.5	
865.26	3057.6	
865.43	5271.5	
865.6	5592.3	
865.77	2530.6	
865.94	2799.6	
866.1	5282.4	
866.27	5050.3	
866.44	4107.5	
866.61	2735.4	
866.78	4724.7	
866.95	5025	
867.11	2816.6	
867.28	2582.5	
867.45	5227.1	
867.62	4457.1	
867.79	3211.2	
867.96	2828.2	
868.12	4399.7	
868.29	5104.9	
868.46	2813.9	
868.63	3751.2	
868.8	5254.4	
868.97	5050.3	
869.13	2966.8	
869.3	2986.6	
869.47	4935.6	
869.64	5154.7	
869.81	2785.2	
869.97	2825.5	
870.14	4860.5	
870.31	5421	
870.48	2737.5	
870.65	3531.4	
870.81	4653.7	
870.98	4671.4	
871.15	3211.2	
871.32	2928.6	
871.48	4958.1	
871.65	5470.1	
871.82	2822.1	
871.99	3132	
872.16	5775.3	
872.32	5269.4	
872.49	2848.7	
872.66	2917	
872.83	5094	
872.99	4509.6	
873.16	3239.2	
873.33	2798.9	
873.5	4762.2	
873.67	4865.3	
873.83	2985.9	
874	3695.9	
874.17	4992.9	
874.34	5685.2	
874.5	3596.9	
874.67	3472	
874.84	5398.4	
875.01	4276.2	
875.17	3850.9	
875.34	2809.1	
875.51	4906.3	
875.68	5785.5	
875.84	3380.5	
876.01	4005.8	
876.18	5060.5	
876.34	5001.1	
876.51	2856.9	
876.68	2764.8	
876.85	4645.5	
877.01	5340.4	
877.18	3930.7	
877.35	2839.2	
877.52	4859.8	
877.68	4364.9	
877.85	2800.3	
878.02	2834.4	
878.18	4725.3	
878.35	4564.2	
878.52	2377	
878.69	3115.6	
878.85	5235.3	
879.02	5064.6	
879.19	3919.8	
879.35	3017.3	
879.52	5036.6	
879.69	5226.4	
879.86	2485.6	
880.02	3202.3	
880.19	4792.2	
880.36	5631.2	
880.52	3181.2	
880.69	3280.8	
880.86	5164.3	
881.02	5150	
881.19	3078.8	
881.36	3054.9	
881.52	5012.1	
881.69	4536.9	
881.86	3022.1	
882.02	2967.5	
882.19	5315.2	
882.36	6044.2	
882.52	2907.4	
882.69	3964.2	
882.86	4937	
883.02	4868	
883.19	3396.9	
883.36	3218	
883.52	5094	
883.69	5757.5	
883.86	2897.2	
884.02	2637.8	
884.19	5124	
884.36	4800.4	
884.52	3186.6	
884.69	3001.6	
884.86	4596.3	
885.02	5472.9	
885.19	3147	
885.36	3230.3	
885.52	4727.4	
885.69	4896.7	
885.86	4024.9	
886.02	3622.9	
886.19	5092.6	
886.35	4666.6	
886.52	3140.9	
886.69	3865.2	
886.85	4411.3	
887.02	5365	
887.19	5365	
887.35	5365	
887.52	5365	
887.68	5365	
887.85	5365	
888.02	5365	
888.18	5365	
888.35	5365	
888.51	5365	
888.68	5365	
888.85	5365	
889.01	5365	
889.18	5365	
889.35	5365	
889.51	5365	
889.68	5365	
889.84	5365	
890.01	5365	
890.17	5365	
890.34	5365	
890.51	5365	
890.67	5365	
890.84	5365	
891	5365	
891.17	5365	
891.34	5365	
891.5	5365	
891.67	5365	
891.83	5365	
892	5365	
892.16	5365	
892.33	5365	
892.5	5365	
892.66	5365	
892.83	5365	
892.99	5365	
893.16	5365	
893.32	5365	
893.49	5365	
893.65	5365	
893.82	5365	
893.99	5365	
894.15	5365	
894.32	5365	
894.48	5365	
894.65	5365	
894.81	5365	
894.98	5365	
895.14	5365	
895.31	5365	
895.47	5365	
895.64	5365	
895.81	5365	
895.97	5365	
896.14	5365	
896.3	5365	
896.47	5365	
896.63	5365	
896.8	5365	
896.96	5365	
897.13	5365	
897.29	5365	
897.46	5365	
897.62	5365	
897.79	5365	
897.95	5365	
898.12	5365	
898.28	5365	
898.45	5365	
898.61	5365	
898.78	5365	
898.94	5365	
899.11	5365	
899.27	5365	
899.44	5365	
899.6	5365	
899.77	5365	
899.93	5365	
900.1	5365	
900.26	5365	
900.43	5365	
900.59	5365	
900.76	5365	
900.92	5365	
901.09	5365	
901.25	5365	
901.42	5365	
901.58	5365	
901.75	5365	
901.91	5365	
902.07	5365	
902.24	5365	
902.4	5365	
902.57	5365	
902.73	5365	
902.9	5365	
903.06	5365	
903.23	5365	
903.39	5365	
903.56	5365	
903.72	5365	
903.88	5365	
904.05	5365	
904.21	5365	
904.38	5365	
904.54	5365	
904.71	5365	
904.87	5365	
905.03	5365	
905.2	5365	
905.36	5365	
905.53	5365	
905.69	5365	
905.86	5365	
906.02	5365	
906.18	5365	
906.35	5365	
906.51	5365	
906.68	5365	
906.84	5365	
907.01	5365	
907.17	5365	
907.33	5365	
907.5	5365	
907.66	5365	
907.83	5365	
907.99	5365	
908.15	5365	
908.32	5365	
908.48	5365	
908.65	5365	
908.81	5365	
908.97	5365	
909.14	5365	
909.3	5365	
909.47	5365	
909.63	5365	
909.79	5365	
909.96	5365	
910.12	5365	
910.28	5365	
910.45	5365	
910.61	5365	
910.78	5365	
910.94	5365	
911.1	5365	
911.27	5365	
911.43	5365	
911.59	5365	
911.76	5365	
911.92	5365	
912.08	5365	
912.25	5365	
912.41	5365	
912.57	5365	
912.74	5365	
912.9	5365	
913.07	5365	
913.23	5365	
913.39	5365	
913.56	5365	
913.72	5365	
913.88	5365	
914.05	5365	
914.21	5365	
914.37	5365	
914.54	5365	
914.7	5365	
914.86	5365	
915.03	5365	
915.19	5365	
