Wavelength	Intensities	
nm	a.u.	
179.22	1942	
179.44	1930.9	
179.65	1953.1	
179.86	1908.7	
180.08	1922.4	
180.29	4976.6	
180.51	3561.4	
180.72	5679.7	
180.94	6663.4	
181.15	3283.6	
181.37	3207.8	
181.58	5528.2	
181.79	5828.5	
182.01	3392.1	
182.22	3675.4	
182.44	5822.4	
182.65	4850.3	
182.87	4595	
183.08	3998.3	
183.29	6087.9	
183.51	5005.9	
183.72	3677.5	
183.94	5365.7	
184.15	5363.6	
184.37	5421	
184.58	3148.4	
184.79	4401.8	
185.01	4984.8	
185.22	5825.1	
185.44	4726.7	
185.65	3958.7	
185.86	5297.4	
186.08	4913.8	
186.29	3123.8	
186.51	3357.3	
186.72	5079	
186.94	5954.1	
187.15	3866.6	
187.36	3992.2	
187.58	7826	
187.79	5517.9	
188.01	4192.9	
188.22	6565.1	
188.43	6622.4	
188.65	5730.2	
188.86	3366.2	
189.08	3997	
189.29	5183.4	
189.5	5217.5	
189.72	3685.7	
189.93	3807.9	
190.15	5965.7	
190.36	7149.5	
190.57	4122.6	
190.79	3971	
191	6062.7	
191.22	6018.3	
191.43	4076.1	
191.64	3358	
191.86	6294.1	
192.07	6041.5	
192.29	3493.2	
192.5	3709.6	
192.71	6013.5	
192.93	5114.5	
193.14	3671.3	
193.35	3806.5	
193.57	5204.6	
193.78	5969.8	
194	3050.1	
194.21	3596.2	
194.42	4930.1	
194.64	5456.5	
194.85	4071.4	
195.07	4722.6	
195.28	5478.3	
195.49	4689.2	
195.71	4929.5	
195.92	3426.3	
196.13	5618.3	
196.35	5720.7	
196.56	5317.2	
196.78	4022.2	
196.99	7021.1	
197.2	6642.2	
197.42	4652.3	
197.63	4130.8	
197.84	4816.1	
198.06	5564.3	
198.27	3719.1	
198.48	5008	
198.7	5170.4	
198.91	5295.4	
199.13	4050.2	
199.34	4029.7	
199.55	5861.3	
199.77	4681.7	
199.98	3579.2	
200.19	4165.6	
200.41	5295.4	
200.62	5023.7	
200.83	4270	
201.05	4612.7	
201.26	5347.9	
201.47	5020.9	
201.69	3593.5	
201.9	3495.9	
202.11	5382.7	
202.33	6423.8	
202.54	3850.2	
202.76	4270	
202.97	5534.3	
203.18	5502.2	
203.4	4269.3	
203.61	4171.7	
203.82	5421.7	
204.04	5069.4	
204.25	4074.1	
204.46	3990.8	
204.68	5399.1	
204.89	5643.5	
205.1	3924.6	
205.32	3452.9	
205.53	5847.6	
205.74	6004.6	
205.96	2899.2	
206.17	4159.4	
206.38	5816.9	
206.6	5963	
206.81	4674.8	
207.02	3749.8	
207.24	5699.5	
207.45	6121.4	
207.66	3813.3	
207.88	3315	
208.09	5610.8	
208.3	5451.7	
208.52	3528.7	
208.73	3947.1	
208.94	5492.7	
209.15	6133	
209.37	3894.6	
209.58	4022.2	
209.79	5956.2	
210.01	5223	
210.22	3095.8	
210.43	3183.9	
210.65	5438	
210.86	5853.8	
211.07	3877.5	
211.29	3578.5	
211.5	5799.8	
211.71	5376.6	
211.93	3512.3	
212.14	3543.7	
212.35	5322.7	
212.56	5578.7	
212.78	4126	
212.99	3332.7	
213.2	6358.9	
213.42	5161.6	
213.63	3698.6	
213.84	3924.6	
214.06	4777.2	
214.27	4897.4	
214.48	3867.2	
214.69	4184.7	
214.91	6084.5	
215.12	6195.1	
215.33	4183.3	
215.55	4672.8	
215.76	6676.4	
215.97	5816.2	
216.18	4012.7	
216.4	3876.8	
216.61	5103.5	
216.82	5887.9	
217.04	3606.5	
217.25	3736.9	
217.46	6043.6	
217.67	5849	
217.89	3182.5	
218.1	3322.5	
218.31	5501.5	
218.53	5659.2	
218.74	3745.1	
218.95	3663.1	
219.16	5337	
219.38	6377.4	
219.59	3644.7	
219.8	4334.9	
220.01	7023.2	
220.23	5438.7	
220.44	4818.9	
220.65	3556	
220.87	5466.7	
221.08	6072.9	
221.29	3360	
221.5	4469.4	
221.72	7507.2	
221.93	5143.8	
222.14	4173.1	
222.35	4802.5	
222.57	5403.9	
222.78	5799.8	
222.99	3904.1	
223.2	4195.6	
223.42	5711.8	
223.63	5927.5	
223.84	2994.8	
224.05	2983.2	
224.27	6931.7	
224.48	6365.1	
224.69	4898.1	
224.9	4104.1	
225.12	5642.8	
225.33	5404.6	
225.54	3257	
225.75	3630.4	
225.97	4961.5	
226.18	5267.4	
226.39	3957.4	
226.6	3654.3	
226.82	5165	
227.03	4992.9	
227.24	4069.3	
227.45	3368.2	
227.67	5793	
227.88	6407.4	
228.09	4537.6	
228.3	4659.8	
228.52	5873.6	
228.73	5382.1	
228.94	3760.1	
229.15	3410.6	
229.36	5330.2	
229.58	5233.2	
229.79	3801.7	
230	4485.1	
230.21	6490	
230.43	5530.9	
230.64	4087.7	
230.85	4183.3	
231.06	5879.7	
231.28	5870.2	
231.49	3374.4	
231.7	3913.7	
231.91	5687.9	
232.12	5431.9	
232.34	3437.9	
232.55	3931.4	
232.76	6054.5	
232.97	5638.1	
233.18	3564.1	
233.4	4036.5	
233.61	5646.2	
233.82	5267.4	
234.03	3792.2	
234.25	3674.7	
234.46	7577.5	
234.67	5483.8	
234.88	4205.8	
235.09	3605.1	
235.31	5771.9	
235.52	5300.1	
235.73	4035.9	
235.94	3401	
236.15	5143.8	
236.37	6631.3	
236.58	3561.4	
236.79	3914.4	
237	5745.2	
237.21	4937.7	
237.43	4207.9	
237.64	3276.8	
237.85	10021	
238.06	4990.9	
238.27	4327.4	
238.48	3427.6	
238.7	5751.4	
238.91	5259.9	
239.12	3898	
239.33	3873.4	
239.54	5160.9	
239.76	5383.4	
239.97	3819.5	
240.18	3918.4	
240.39	6801.3	
240.6	5696.8	
240.82	4077.5	
241.03	3277.4	
241.24	5413.5	
241.45	6283.2	
241.66	3540.9	
241.87	4227	
242.09	6176.7	
242.3	6548.7	
242.51	4196.3	
242.72	3948.5	
242.93	5849.7	
243.14	5387.5	
243.36	4581.3	
243.57	4842.8	
243.78	6335.1	
243.99	5823.7	
244.2	3910.3	
244.41	3577.1	
244.63	4990.2	
244.84	5705.6	
245.05	4151.9	
245.26	3917.8	
245.47	5762.3	
245.68	5998.5	
245.9	5212.8	
246.11	4116.4	
246.32	5314.5	
246.53	5669.5	
246.74	6362.4	
246.95	3334.8	
247.16	4929.5	
247.38	5436	
247.59	3264.5	
247.8	3897.3	
248.01	5073.5	
248.22	5320.6	
248.43	3516.4	
248.64	3770.3	
248.86	4813.4	
249.07	5172.5	
249.28	3450.8	
249.49	4040	
249.7	6028.5	
249.91	6174.6	
250.12	3199.6	
250.34	3312.9	
250.55	5487.2	
250.76	5438.7	
250.97	4024.3	
251.18	4133.5	
251.39	6126.8	
251.6	5575.3	
251.81	4135.5	
252.03	4108.2	
252.24	5133.6	
252.45	5940.5	
252.66	3382.6	
252.87	4349.9	
253.08	5473.5	
253.29	7217.7	
253.5	3375.1	
253.72	4782.7	
253.93	5263.3	
254.14	6462.7	
254.35	3751.2	
254.56	3837.2	
254.77	5672.2	
254.98	5040.7	
255.19	3644	
255.41	4718.5	
255.62	5514.5	
255.83	6109.8	
256.04	4263.2	
256.25	4119.8	
256.46	6668.9	
256.67	5077.6	
256.88	4010.6	
257.09	4539.7	
257.31	5076.2	
257.52	5138.4	
257.73	5079.6	
257.94	3699.3	
258.15	5314.5	
258.36	5508.4	
258.57	4592.2	
258.78	2966.1	
258.99	5897.5	
259.2	5242.1	
259.41	3726.6	
259.63	3849.5	
259.84	6240.8	
260.05	6728.3	
260.26	4914.4	
260.47	3659.7	
260.68	6058.6	
260.89	5352	
261.1	4516.5	
261.31	3567.6	
261.52	6010.1	
261.73	6414.9	
261.95	4834.6	
262.16	4216.8	
262.37	6173.3	
262.58	6285.9	
262.79	4879.6	
263	3864.5	
263.21	5436.7	
263.42	4926.7	
263.63	3822.9	
263.84	3792.2	
264.05	5975.3	
264.26	6426.5	
264.47	4685.1	
264.69	4220.9	
264.9	6191.7	
265.11	5618.9	
265.32	3592.8	
265.53	3687	
265.74	5557.5	
265.95	4788.8	
266.16	3973.7	
266.37	4424.3	
266.58	5531.6	
266.79	5268.1	
267	3659	
267.21	3459	
267.42	4997.7	
267.63	5461.9	
267.84	3865.9	
268.06	3330	
268.27	5879	
268.48	6184.9	
268.69	3809.2	
268.9	4526.7	
269.11	6100.9	
269.32	4921.3	
269.53	3914.4	
269.74	3601	
269.95	5793.7	
270.16	4785.4	
270.37	3887.7	
270.58	4534.2	
270.79	5239.4	
271	5991.7	
271.21	4227.7	
271.42	3952.6	
271.63	5540.4	
271.84	5081	
272.05	3093.1	
272.26	3569.6	
272.47	5485.1	
272.68	5680.4	
272.89	3725.9	
273.11	4365.6	
273.32	5268.7	
273.53	6386.2	
273.74	4218.1	
273.95	4127.3	
274.16	6098.9	
274.37	5513.1	
274.58	4349.2	
274.79	3389.4	
275	5591	
275.21	6146.6	
275.42	5189.6	
275.63	4413.4	
275.84	5685.2	
276.05	7193.1	
276.26	4179.2	
276.47	3851.5	
276.68	5263.3	
276.89	6466.1	
277.1	4422.9	
277.31	3431	
277.52	5731.6	
277.73	5857.9	
277.94	3405.8	
278.15	3786	
278.36	5653.1	
278.57	5101.5	
278.78	3744.4	
278.99	4258.4	
279.2	5054.4	
279.41	5000.5	
279.62	4947.9	
279.83	3500.7	
280.04	6711.2	
280.25	4974.5	
280.46	4885.1	
280.67	3939.6	
280.88	5042.1	
281.09	6102.9	
281.3	4132.8	
281.51	5225.1	
281.72	5915.2	
281.93	6017.6	
282.14	3650.8	
282.35	3936.9	
282.56	5924.8	
282.77	5875.6	
282.98	3800.3	
283.19	4676.2	
283.4	7282.6	
283.61	5382.1	
283.82	3405.1	
284.03	4829.1	
284.24	5540.4	
284.45	6105	
284.66	4823	
284.87	4711	
285.08	6081.1	
285.29	6191	
285.5	3326.6	
285.71	3822.9	
285.92	6052.4	
286.12	6719.4	
286.33	4833.9	
286.54	3804.4	
286.75	5954.8	
286.96	5281	
287.17	3461.1	
287.38	4750.6	
287.59	5091.3	
287.8	5015.5	
288.01	3917.8	
288.22	4440.7	
288.43	5993	
288.64	4990.9	
288.85	4534.9	
289.06	4289.8	
289.27	5872.9	
289.48	6411.5	
289.69	4818.9	
289.9	4429.8	
290.11	6058.6	
290.32	5160.2	
290.53	4607.9	
290.74	4261.8	
290.94	5904.3	
291.15	5985.5	
291.36	3758	
291.57	4393.6	
291.78	5215.5	
291.99	4820.9	
292.2	3520.5	
292.41	4237.9	
292.62	5939.1	
292.83	5799.2	
293.04	5284.4	
293.25	3534.1	
293.46	5240.1	
293.67	6058.6	
293.88	3670	
294.09	3545.7	
294.29	4958.8	
294.5	5548.6	
294.71	3937.6	
294.92	3799	
295.13	5174.5	
295.34	6528.9	
295.55	3304.1	
295.76	3381.2	
295.97	5851	
296.18	6660	
296.39	3455.6	
296.6	3635.8	
296.81	5504.3	
297.01	5890.6	
297.22	3815.4	
297.43	3664.5	
297.64	5046.2	
297.85	5143.1	
298.06	3083.6	
298.27	3292.5	
298.48	5451.7	
298.69	5126.1	
298.9	3981.3	
299.11	3615.3	
299.31	4957.4	
299.52	4956.8	
299.73	4274.8	
299.94	4201.7	
300.15	5473.5	
300.36	5029.8	
300.57	4164.2	
300.78	4190.8	
300.99	5314.5	
301.2	5538.4	
301.4	3618.8	
301.61	3971.7	
301.82	5803.3	
302.03	5905.7	
302.24	4469.4	
302.45	3512.9	
302.66	5723.4	
302.87	6242.9	
303.08	3632.4	
303.29	5033.2	
303.49	5168.4	
303.7	5477	
303.91	3275.4	
304.12	4853	
304.33	4963.6	
304.54	5563	
304.75	3789.4	
304.96	3469.9	
305.16	5768.4	
305.37	6490	
305.58	3201	
305.79	3333.4	
306	5763	
306.21	4875.5	
306.42	3614	
306.63	5640.1	
306.83	5339.1	
307.04	6071.5	
307.25	4057.7	
307.46	4018.8	
307.67	4628.4	
307.88	5920	
308.09	3620.1	
308.29	3788.1	
308.5	5530.9	
308.71	6059.9	
308.92	3975.1	
309.13	3532.7	
309.34	5427.1	
309.55	5386.2	
309.75	4534.2	
309.96	4203.8	
310.17	5922.7	
310.38	5138.4	
310.59	4444.8	
310.8	3416	
311.01	5279	
311.21	5314.5	
311.42	3489.7	
311.63	3638.6	
311.84	5131.5	
312.05	5580	
312.26	4098.7	
312.46	4532.2	
312.67	5271.5	
312.88	5001.1	
313.09	3517	
313.3	3444.7	
313.51	6194.4	
313.71	6636.8	
313.92	3562.8	
314.13	3736.9	
314.34	5547.9	
314.55	5334.3	
314.76	4584.7	
314.96	3992.2	
315.17	5535.7	
315.38	6027.9	
315.59	3553.9	
315.8	3381.9	
316.01	6300.2	
316.21	6410.8	
316.42	3409.2	
316.63	3881.6	
316.84	5293.3	
317.05	6141.9	
317.26	4285.7	
317.46	3766.2	
317.67	5426.4	
317.88	5865.4	
318.09	4468.7	
318.3	3317.7	
318.5	5136.3	
318.71	5819.6	
318.92	5827.2	
319.13	4182	
319.34	5999.2	
319.54	6112.5	
319.75	3301.3	
319.96	3166.8	
320.17	5809.4	
320.38	6072.9	
320.58	3239.9	
320.79	3853.6	
321	6041.5	
321.21	6150.7	
321.42	3983.3	
321.62	3217.4	
321.83	5031.9	
322.04	5442.1	
322.25	3754.6	
322.46	3599.6	
322.66	5543.9	
322.87	5733.6	
323.08	4446.8	
323.29	3485	
323.5	6568.5	
323.7	4957.4	
323.91	4771.1	
324.12	4384.7	
324.33	5479	
324.53	5771.2	
324.74	4216.8	
324.95	4408.6	
325.16	4838.7	
325.37	5225.1	
325.57	3582.6	
325.78	3656.3	
325.99	5481.7	
326.2	4924.7	
326.4	5023.7	
326.61	3246	
326.82	5418.9	
327.03	5498.1	
327.24	5040.7	
327.44	4875.5	
327.65	5709.1	
327.86	4632.5	
328.07	4161.5	
328.27	3388	
328.48	6208.1	
328.69	4992.9	
328.9	5129.5	
329.1	3824.9	
329.31	5334.3	
329.52	6303	
329.73	3572.3	
329.93	4022.2	
330.14	5456.5	
330.35	5618.3	
330.56	5884.5	
330.76	4399	
330.97	5223.7	
331.18	5653.1	
331.39	3968.3	
331.59	3192.1	
331.8	5983.5	
332.01	6197.2	
332.22	3677.5	
332.42	4175.8	
332.63	5507	
332.84	5145.2	
333.05	3967.6	
333.25	3560.1	
333.46	5186.1	
333.67	5515.2	
333.88	3683.6	
334.08	4186.7	
334.29	7324.9	
334.5	6176	
334.7	3428.3	
334.91	5100.8	
335.12	5005.2	
335.33	5878.4	
335.53	3936.9	
335.74	5859.9	
335.95	5243.5	
336.16	5041.4	
336.36	3949.8	
336.57	4608.6	
336.78	4939	
336.98	6016.2	
337.19	4874.2	
337.4	3912.3	
337.61	6535.8	
337.81	4980	
338.02	3579.8	
338.23	4704.2	
338.43	6243.6	
338.64	5080.3	
338.85	3622.2	
339.05	4738.3	
339.26	6296.1	
339.47	4896.7	
339.68	3568.2	
339.88	5324	
340.09	5708.4	
340.3	5951.4	
340.5	4194.2	
340.71	3188	
340.92	4919.2	
341.13	6130.3	
341.33	3481.5	
341.54	4179.2	
341.75	5692	
341.95	5306.3	
342.16	4037.9	
342.37	4334.2	
342.57	5016.8	
342.78	5410.7	
342.99	4447.5	
343.19	3166.8	
343.4	5898.8	
343.61	5696.8	
343.81	3805.8	
344.02	3497.2	
344.23	5913.2	
344.43	6279.8	
344.64	4463.2	
344.85	4270	
345.06	5685.8	
345.26	6079.7	
345.47	4169.7	
345.68	4842.8	
345.88	4790.2	
346.09	5978.7	
346.3	4281.6	
346.5	3153.9	
346.71	5404.6	
346.92	5113.1	
347.12	3284.3	
347.33	4112.3	
347.54	5988.9	
347.74	6425.2	
347.95	4098	
348.16	2997.5	
348.36	5191.6	
348.57	4929.5	
348.78	4032.5	
348.98	4351.9	
349.19	5368.4	
349.39	4872.1	
349.6	3239.9	
349.81	3607.8	
350.01	5656.5	
350.22	5143.1	
350.43	3867.2	
350.63	4799.1	
350.84	5472.2	
351.05	5251.7	
351.25	3537.5	
351.46	3224.9	
351.67	6027.9	
351.87	5091.9	
352.08	3799	
352.29	4336.2	
352.49	5878.4	
352.7	6008.1	
352.9	3461.1	
353.11	4391.5	
353.32	6551.5	
353.52	5220.3	
353.73	3422.8	
353.94	4348.5	
354.14	5670.1	
354.35	5539.1	
354.55	3487	
354.76	3904.8	
354.97	5684.5	
355.17	5446.2	
355.38	3299.3	
355.59	4563.6	
355.79	5064.6	
356	5460.6	
356.2	3819.5	
356.41	3377.8	
356.62	4836.6	
356.82	5282.4	
357.03	4162.8	
357.24	3717.7	
357.44	5074.2	
357.65	5242.1	
357.85	4993.6	
358.06	3921.2	
358.27	4782	
358.47	5042.8	
358.68	3219.4	
358.88	4120.5	
359.09	5580.7	
359.3	5986.2	
359.5	4784.7	
359.71	4257.7	
359.91	6531	
360.12	5728.2	
360.33	4112.3	
360.53	4533.5	
360.74	5001.8	
360.94	5155.4	
361.15	4222.9	
361.36	3447.4	
361.56	5782.1	
361.77	5294.7	
361.97	4760.8	
362.18	3706.8	
362.38	5808.7	
362.59	4885.8	
362.8	3435.1	
363	3198.9	
363.21	4688.5	
363.41	5373.2	
363.62	3915.7	
363.83	5005.2	
364.03	5410.7	
364.24	6458.6	
364.44	5023.7	
364.65	5010	
364.85	5153.4	
365.06	5019.6	
365.27	3516.4	
365.47	3579.8	
365.68	6179.4	
365.88	5138.4	
366.09	3984.7	
366.29	3678.8	
366.5	5409.4	
366.71	5787.6	
366.91	4939	
367.12	4113	
367.32	6384.2	
367.53	5665.4	
367.73	4035.9	
367.94	4978.6	
368.14	5583.4	
368.35	6559	
368.56	4072	
368.76	3496.6	
368.97	5721.3	
369.17	7471	
369.38	3549.1	
369.58	3756.7	
369.79	4733.5	
369.99	6135	
370.2	4814.1	
370.4	3898	
370.61	5384.8	
370.82	6597.2	
371.02	3753.2	
371.23	3128.6	
371.43	4681	
371.64	5948.7	
371.84	3782.6	
372.05	4988.2	
372.25	7330.4	
372.46	5643.5	
372.66	3718.4	
372.87	3659.7	
373.07	5665.4	
373.28	7309.9	
373.48	4739	
373.69	4431.1	
373.9	5124	
374.1	5186.1	
374.31	4599.1	
374.51	4177.9	
374.72	5952.8	
374.92	4787.5	
375.13	4756.1	
375.33	4019.5	
375.54	5515.9	
375.74	4927.4	
375.95	4005.1	
376.15	5280.3	
376.36	5439.4	
376.56	5274.9	
376.77	4065.2	
376.97	4515.8	
377.18	6498.2	
377.38	5509.7	
377.59	4806.6	
377.79	3489.1	
378	5382.1	
378.2	5797.1	
378.41	3567.6	
378.61	3439.9	
378.82	5792.3	
379.02	4896	
379.23	3661.8	
379.43	4760.8	
379.64	5806.7	
379.84	5438.7	
380.05	3505.4	
380.25	3424.9	
380.46	5554.1	
380.66	5151.3	
380.87	4838.7	
381.07	5236	
381.28	6247	
381.48	5616.9	
381.69	3543.7	
381.89	3577.8	
382.1	4547.9	
382.3	5735	
382.51	4670.7	
382.71	5681.1	
382.91	5573.2	
383.12	6145.3	
383.32	4027	
383.53	4169.7	
383.73	5507	
383.94	5299.5	
384.14	4105.5	
384.35	3224.9	
384.55	5152.7	
384.76	5664.7	
384.96	3957.4	
385.17	4317.1	
385.37	5676.3	
385.58	4906.3	
385.78	4252.3	
385.98	3193.5	
386.19	5171.1	
386.39	5472.9	
386.6	3716.4	
386.8	3958	
387.01	5591.6	
387.21	5636	
387.42	4319.2	
387.62	4937	
387.83	4924	
388.03	5558.9	
388.23	3932.1	
388.44	4767.7	
388.64	4661.2	
388.85	4642.1	
389.05	4259.1	
389.26	4886.5	
389.46	6501.6	
389.67	5922.7	
389.87	4273.4	
390.07	4385.4	
390.28	5153.4	
390.48	4748.6	
390.69	3505.4	
390.89	3761.4	
391.1	4881.7	
391.3	5852.4	
391.5	5025.7	
391.71	5555.5	
391.91	5552.7	
392.12	6543.3	
392.32	5156.8	
392.53	4304.1	
392.73	4955.4	
392.93	5223.7	
393.14	3949.2	
393.34	4747.2	
393.55	5605.3	
393.75	5147.9	
393.95	3980.6	
394.16	3914.4	
394.36	4917.2	
394.57	5569.1	
394.77	3438.5	
394.98	3841.3	
395.18	4816.1	
395.38	5089.2	
395.59	4716.5	
395.79	3605.8	
396	4930.8	
396.2	5429.2	
396.4	4402.5	
396.61	4298.7	
396.81	5541.1	
397.02	4843.4	
397.22	4642.7	
397.42	4695.3	
397.63	5538.4	
397.83	4769.7	
398.04	3526.6	
398.24	3951.2	
398.44	5358.2	
398.65	4373.8	
398.85	3338.2	
399.05	3420.8	
399.26	4653.7	
399.46	6432	
399.67	3799.7	
399.87	3548.4	
400.07	5000.5	
400.28	5334.3	
400.48	3572.3	
400.69	4576.5	
400.89	5560.2	
401.09	5967.8	
401.3	3377.1	
401.5	4621.6	
401.7	6165.1	
401.91	6478.4	
402.11	3745.1	
402.32	4054.3	
402.52	5584.1	
402.72	5603.2	
402.93	4197	
403.13	3184.6	
403.33	6423.1	
403.54	5191.6	
403.74	3975.8	
403.94	4878.9	
404.15	5188.9	
404.35	6382.8	
404.56	3786.7	
404.76	5610.8	
404.96	5634	
405.17	5429.8	
405.37	5205.9	
405.57	4206.5	
405.78	5565.7	
405.98	5158.2	
406.18	3675.4	
406.39	4639.3	
406.59	5591.6	
406.79	5197.7	
407	3526.6	
407.2	3690.4	
407.4	5629.2	
407.61	5854.5	
407.81	3558.7	
408.01	5745.9	
408.22	4453.6	
408.42	6554.2	
408.62	4457.1	
408.83	3925.3	
409.03	5033.9	
409.23	4768.4	
409.44	3960.8	
409.64	4263.9	
409.84	5773.2	
410.05	5641.5	
410.25	3968.3	
410.45	3805.8	
410.66	5010.7	
410.86	7605.5	
411.06	4037.9	
411.27	3999	
411.47	7196.6	
411.67	5154.7	
411.88	4242	
412.08	4414.7	
412.28	5755.5	
412.49	6219.7	
412.69	3837.2	
412.89	3876.8	
413.09	6046.3	
413.3	5900.2	
413.5	3895.9	
413.7	3472.7	
413.91	5134.3	
414.11	5982.8	
414.31	3663.8	
414.52	4045.4	
414.72	5622.4	
414.92	5505.6	
415.12	3729.4	
415.33	4182	
415.53	5830.6	
415.73	6040.8	
415.94	4626.4	
416.14	3967.6	
416.34	4894.6	
416.55	4710.3	
416.75	5188.2	
416.95	4566.3	
417.15	5782.8	
417.36	6601.3	
417.56	5312.4	
417.76	4303.5	
417.97	6159.6	
418.17	5753.4	
418.37	3933.5	
418.57	3945.8	
418.78	5566.4	
418.98	5287.2	
419.18	4889.2	
419.38	4820.9	
419.59	5327.4	
419.79	5027.1	
419.99	3899.3	
420.2	4332.8	
420.4	5862.7	
420.6	5995.1	
420.8	3778.5	
421.01	3633.1	
421.21	5586.2	
421.41	5851	
421.61	4197.7	
421.82	3889.1	
422.02	5123.3	
422.22	6157.6	
422.42	4687.8	
422.63	4434.5	
422.83	5238	
423.03	6440.9	
423.23	4414.7	
423.44	3396.9	
423.64	5390.3	
423.84	5156.1	
424.04	3857	
424.25	3531.4	
424.45	6340.5	
424.65	6337.1	
424.85	3364.8	
425.06	3943	
425.26	6289.3	
425.46	5317.2	
425.66	4478.9	
425.87	4054.3	
426.07	6079.1	
426.27	5952.8	
426.47	4260.5	
426.67	3601.7	
426.88	6482.5	
427.08	5889.3	
427.28	4473.4	
427.48	3560.1	
427.69	4806.6	
427.89	5443.5	
428.09	4407.2	
428.29	3587.4	
428.5	6159.6	
428.7	5663.3	
428.9	3436.5	
429.1	4044.7	
429.3	5502.9	
429.51	5906.3	
429.71	3815.4	
429.91	4519.2	
430.11	5816.2	
430.31	5995.1	
430.52	3990.8	
430.72	4276.8	
430.92	6311.8	
431.12	5780.7	
431.32	3661.8	
431.53	4162.8	
431.73	4771.1	
431.93	6438.1	
432.13	3627.6	
432.33	3522.5	
432.54	5248.9	
432.74	5569.1	
432.94	3324.5	
433.14	4494.6	
433.34	5699.5	
433.55	5113.8	
433.75	4371.7	
433.95	6078.4	
434.15	5408	
434.35	5120.6	
434.56	3606.5	
434.76	3024.8	
434.96	5359.5	
435.16	5674.2	
435.36	3438.5	
435.56	4528.7	
435.77	4965.6	
435.97	5182	
436.17	5169.1	
436.37	4345.8	
436.57	4952	
436.78	4842.1	
436.98	4373.8	
437.18	4954	
437.38	5539.1	
437.58	5165.7	
437.78	5176.6	
437.99	3775.8	
438.19	5749.3	
438.39	6488.6	
438.59	3743.7	
438.79	3258.3	
438.99	6356.9	
439.2	5188.2	
439.4	3417.4	
439.6	3361.4	
439.8	5449	
440	6562.4	
440.2	4317.8	
440.4	4408.6	
440.61	5755.5	
440.81	6306.4	
441.01	3437.9	
441.21	4251.6	
441.41	5966.4	
441.61	5679	
441.81	4506.2	
442.02	5509	
442.22	6586.3	
442.42	5778	
442.62	3401	
442.82	3544.4	
443.02	6022.4	
443.22	5148.6	
443.43	3868.6	
443.63	3376.4	
443.83	4965.6	
444.03	4939.7	
444.23	4522.6	
444.43	4167.6	
444.63	5231.2	
444.83	6546	
445.04	3409.9	
445.24	4712.4	
445.44	5683.8	
445.64	5791	
445.84	4349.2	
446.04	4302.1	
446.24	5066	
446.44	6093.4	
446.65	3609.9	
446.85	3859.7	
447.05	5428.5	
447.25	6001.9	
447.45	4009.9	
447.65	3443.3	
447.85	5449	
448.05	5118.6	
448.25	4359.4	
448.46	4137.6	
448.66	5412.1	
448.86	5176.6	
449.06	3248.8	
449.26	4416.8	
449.46	5670.1	
449.66	4825.7	
449.86	3835.2	
450.06	3849.5	
450.26	4939	
450.47	5496.1	
450.67	4145.8	
450.87	4468.7	
451.07	5650.3	
451.27	5365.7	
451.47	3482.9	
451.67	3953.3	
451.87	4972.5	
452.07	6283.2	
452.27	3559.4	
452.47	3632.4	
452.67	5380.7	
452.88	5960.3	
453.08	3108.8	
453.28	4960.2	
453.48	6386.9	
453.68	5322	
453.88	3461.1	
454.08	3726.6	
454.28	5595.7	
454.48	5313.1	
454.68	4241.3	
454.88	4769	
455.08	5703.6	
455.28	5357.5	
455.48	3375.1	
455.68	3875.4	
455.89	6099.5	
456.09	5774.6	
456.29	3643.3	
456.49	3611.3	
456.69	5896.8	
456.89	5164.3	
457.09	4049.5	
457.29	4327.4	
457.49	5446.9	
457.69	5522.7	
457.89	3773.7	
458.09	3251.5	
458.29	5106.3	
458.49	5799.2	
458.69	4185.4	
458.89	3611.3	
459.09	5995.8	
459.29	6160.3	
459.49	3697.9	
459.69	4506.2	
459.9	5637.4	
460.1	5023.7	
460.3	3616.7	
460.5	3414.6	
460.7	5575.9	
460.9	5236	
461.1	3081.5	
461.3	4236.6	
461.5	6067.4	
461.7	5680.4	
461.9	3224.2	
462.1	3802.4	
462.3	5107	
462.5	5676.3	
462.7	3403.7	
462.9	3346.4	
463.1	6690.7	
463.3	6244.9	
463.5	3562.8	
463.7	4282.3	
463.9	5190.9	
464.1	5550.7	
464.3	3439.2	
464.5	3855.6	
464.7	5747.3	
464.9	5309	
465.1	5063.9	
465.3	4104.1	
465.5	6051.1	
465.7	5883.8	
465.9	4197.7	
466.1	4287.1	
466.3	5711.1	
466.5	5668.1	
466.7	4868	
466.9	3876.1	
467.1	5519.3	
467.3	6430.6	
467.5	4742.4	
467.7	3631.7	
467.9	6623.8	
468.1	7488.1	
468.3	4471.4	
468.5	4844.1	
468.7	5425.8	
468.9	5405.3	
469.1	3899.3	
469.3	4556	
469.5	7296.2	
469.7	4930.8	
469.9	4459.1	
470.1	3607.8	
470.3	5338.4	
470.5	5382.7	
470.7	4939.7	
470.9	3734.1	
471.1	5123.3	
471.3	5689.3	
471.5	3551.2	
471.69	5483.1	
471.89	5128.8	
472.09	4683.7	
472.29	4313	
472.49	4906.3	
472.69	4868.7	
472.89	5670.1	
473.09	3469.9	
473.29	3747.1	
473.49	5000.5	
473.69	5277.6	
473.89	4659.8	
474.09	3885	
474.29	6470.2	
474.49	6165.1	
474.69	4547.9	
474.89	4081.6	
475.09	5313.1	
475.29	5164.3	
475.49	3519.1	
475.69	3655.6	
475.88	6879.1	
476.08	5543.2	
476.28	3377.1	
476.48	3922.5	
476.68	6062.7	
476.88	5911.1	
477.08	3803.8	
477.28	3994.9	
477.48	5459.2	
477.68	6184.2	
477.88	3547.1	
478.08	3947.1	
478.28	6301.6	
478.48	5519.3	
478.67	3890.5	
478.87	3469.9	
479.07	6080.4	
479.27	5709.7	
479.47	4207.9	
479.67	4113	
479.87	5931.6	
480.07	6501.6	
480.27	3449.5	
480.47	5026.4	
480.67	5606	
480.87	6195.1	
481.06	3686.3	
481.26	4489.1	
481.46	5572.5	
481.66	5487.2	
481.86	4135.5	
482.06	5197.1	
482.26	5276.3	
482.46	6178	
482.66	4095.3	
482.86	3675.4	
483.05	5529.5	
483.25	5012.7	
483.45	6541.2	
483.65	4055.7	
483.85	5150	
484.05	5489.9	
484.25	4462.5	
484.45	4842.1	
484.65	6389	
484.84	6213.5	
485.04	3916.4	
485.24	3848.8	
485.44	6559	
485.64	4887.8	
485.84	3130	
486.04	4500.8	
486.24	5242.8	
486.44	5628.5	
486.63	3113.6	
486.83	3810.6	
487.03	5016.8	
487.23	5197.7	
487.43	3245.3	
487.63	5454.4	
487.83	5259.9	
488.02	6294.8	
488.22	4040	
488.42	4644.8	
488.62	6195.1	
488.82	4999.8	
489.02	3746.4	
489.22	3676.1	
489.41	5979.4	
489.61	5573.9	
489.81	3429.7	
490.01	3442	
490.21	5831.2	
490.41	6481.1	
490.61	3463.8	
490.8	3557.3	
491	5308.3	
491.2	4777.2	
491.4	4226.3	
491.6	3364.8	
491.8	5403.9	
491.99	5547.9	
492.19	3176.4	
492.39	3606.5	
492.59	5808.7	
492.79	5868.1	
492.99	4304.1	
493.18	3394.8	
493.38	5941.8	
493.58	6504.3	
493.78	3973.1	
493.98	3616.7	
494.18	5545.2	
494.37	4952.7	
494.57	4069.3	
494.77	4004.5	
494.97	5507	
495.17	5731.6	
495.37	3474	
495.56	3751.9	
495.76	5851.7	
495.96	5580	
496.16	4695.3	
496.36	3554.6	
496.55	5699.5	
496.75	5195.7	
496.95	3901.4	
497.15	3736.2	
497.35	5680.4	
497.54	5567.1	
497.74	3594.9	
497.94	5260.5	
498.14	6265.4	
498.34	6075	
498.53	3199.6	
498.73	4019.5	
498.93	4941.1	
499.13	5566.4	
499.33	3676.1	
499.52	4371	
499.72	5393	
499.92	5803.3	
500.12	3392.1	
500.32	3644	
500.51	5685.8	
500.71	5378.6	
500.91	4446.1	
501.11	4044.1	
501.31	5580	
501.5	6005.3	
501.7	4621.6	
501.9	3633.1	
502.1	5487.9	
502.29	5717.9	
502.49	4100.7	
502.69	4639.3	
502.89	5643.5	
503.09	5646.2	
503.28	3283.6	
503.48	3398.9	
503.68	5060.5	
503.88	4992.9	
504.07	4382.7	
504.27	3929.4	
504.47	5360.2	
504.67	5482.4	
504.86	4294.6	
505.06	4034.5	
505.26	5179.3	
505.46	6937.2	
505.65	3892.5	
505.85	4166.9	
506.05	5173.9	
506.25	5610.1	
506.44	3394.8	
506.64	4371.7	
506.84	5172.5	
507.04	6030.6	
507.23	3665.9	
507.43	4233.2	
507.63	7195.9	
507.83	5372.5	
508.02	4205.2	
508.22	3291.8	
508.42	7354.9	
508.62	5117.9	
508.81	4376.5	
509.01	4637.3	
509.21	5091.9	
509.4	5300.1	
509.6	4279.6	
509.8	3624.9	
510	5337	
510.19	6707.1	
510.39	3641.3	
510.59	3747.1	
510.79	5112.4	
510.98	6415.6	
511.18	3738.9	
511.38	3809.9	
511.57	5934.3	
511.77	5711.1	
511.97	4573.8	
512.17	3530.7	
512.36	5848.3	
512.56	5974.6	
512.76	3577.1	
512.95	3410.6	
513.15	5980.8	
513.35	4715.8	
513.55	4414.1	
513.74	3654.3	
513.94	6014.2	
514.14	5324.7	
514.33	4571.7	
514.53	4308.9	
514.73	5236.7	
514.92	5462.6	
515.12	3796.9	
515.32	3560.7	
515.51	5496.1	
515.71	6033.3	
515.91	5213.4	
516.11	3634.5	
516.3	7183.6	
516.5	5114.5	
516.7	4179.9	
516.89	4827.7	
517.09	5236	
517.29	5087.2	
517.48	4540.3	
517.68	3892.5	
517.88	4889.9	
518.07	5577.3	
518.27	4356	
518.47	3396.2	
518.66	6118.6	
518.86	4883.7	
519.06	3293.8	
519.25	3647.4	
519.45	5162.9	
519.65	6519.4	
519.84	4356	
520.04	5027.1	
520.24	6918	
520.43	5761.6	
520.63	4114.4	
520.83	3877.5	
521.02	5072.1	
521.22	5707	
521.42	4447.5	
521.61	4945.2	
521.81	5256.5	
522.01	5507.7	
522.2	4197.7	
522.4	4024.9	
522.6	5816.9	
522.79	4649.6	
522.99	4044.1	
523.18	3297.2	
523.38	5541.1	
523.58	5407.3	
523.77	5100.8	
523.97	3135.4	
524.17	7176.1	
524.36	6373.3	
524.56	4552	
524.76	4053.6	
524.95	5317.2	
525.15	4982.7	
525.34	3792.2	
525.54	3699.3	
525.74	5528.2	
525.93	4642.7	
526.13	4940.4	
526.33	3614.7	
526.52	5847.6	
526.72	5274.9	
526.91	4812.7	
527.11	4018.1	
527.31	5779.4	
527.5	6126.2	
527.7	3852.9	
527.89	3039.9	
528.09	4732.2	
528.29	5204.6	
528.48	4319.8	
528.68	4014	
528.87	5600.5	
529.07	5721.3	
529.27	3916.4	
529.46	3475.4	
529.66	5302.2	
529.85	5684.5	
530.05	3302.7	
530.25	4038.6	
530.44	6612.9	
530.64	5232.6	
530.83	3673.4	
531.03	3848.1	
531.23	5551.4	
531.42	5502.2	
531.62	4618.2	
531.81	3753.2	
532.01	5559.6	
532.21	5997.1	
532.4	3396.2	
532.6	3670.6	
532.79	6565.8	
532.99	5525.4	
533.18	3684.3	
533.38	4728.1	
533.58	5035.3	
533.77	5823.1	
533.97	3563.5	
534.16	4379.2	
534.36	5959.6	
534.55	4988.9	
534.75	4483.7	
534.95	3609.2	
535.14	5766.4	
535.34	5023	
535.53	3308.2	
535.73	5301.5	
535.92	6306.4	
536.12	5214.1	
536.31	3450.8	
536.51	4671.4	
536.71	5558.9	
536.9	5139	
537.1	3630.4	
537.29	3732.8	
537.49	5962.3	
537.68	4982.7	
537.88	4046.1	
538.07	3317	
538.27	5187.5	
538.46	6171.9	
538.66	3237.8	
538.86	3593.5	
539.05	5230.5	
539.25	5683.8	
539.44	3874.8	
539.64	3577.1	
539.83	5120.6	
540.03	6135.7	
540.22	3398.9	
540.42	3660.4	
540.61	5489.9	
540.81	5458.5	
541	4127.3	
541.2	4688.5	
541.39	5075.5	
541.59	5362.3	
541.78	4349.9	
541.98	3550.5	
542.18	4807.9	
542.37	4823.6	
542.57	3993.5	
542.76	4414.7	
542.96	4896	
543.15	5519.3	
543.35	4034.5	
543.54	3408.5	
543.74	5902.2	
543.93	5394.3	
544.13	4128.7	
544.32	5203.9	
544.52	5864.7	
544.71	5061.9	
544.91	3251.5	
545.1	4511.7	
545.3	5081.7	
545.49	5741.1	
545.69	3256.3	
545.88	3815.4	
546.08	6714.6	
546.27	6232	
546.47	4296	
546.66	3638.6	
546.86	6018.3	
547.05	6702.3	
547.24	3875.4	
547.44	3731.4	
547.63	5048.9	
547.83	6132.3	
548.02	4061.1	
548.22	4405.2	
548.41	4873.5	
548.61	6257.9	
548.8	3757.3	
549	3620.1	
549.19	5545.2	
549.39	5796.4	
549.58	3437.2	
549.78	4068.6	
549.97	5977.3	
550.17	5433.3	
550.36	4918.5	
550.55	5920.7	
550.75	5436	
550.94	6437.4	
551.14	3707.5	
551.33	4147.8	
551.53	4889.2	
551.72	5838.1	
551.92	4160.1	
552.11	3894.6	
552.31	5836.7	
552.5	5980.1	
552.69	5677.7	
552.89	3637.2	
553.08	5884.5	
553.28	5545.9	
553.47	3971	
553.67	5142.4	
553.86	6640.9	
554.06	4888.5	
554.25	3252.2	
554.44	3748.5	
554.64	7359.7	
554.83	6831.3	
555.03	3703.4	
555.22	4091.2	
555.42	6154.8	
555.61	5820.3	
555.8	3981.9	
556	4252.9	
556.19	5028.4	
556.39	6365.1	
556.58	4080.2	
556.78	4010.6	
556.97	5767.8	
557.16	5501.5	
557.36	5253.7	
557.55	3676.8	
557.75	4846.9	
557.94	6487.3	
558.13	3805.1	
558.33	3556	
558.52	6325.5	
558.72	5188.2	
558.91	3697.3	
559.1	3992.2	
559.3	4965	
559.49	4813.4	
559.69	3308.2	
559.88	4352.6	
560.07	5835.3	
560.27	6213.5	
560.46	4534.2	
560.66	4668	
560.85	5613.5	
561.04	4926	
561.24	3742.3	
561.43	4020.8	
561.63	5098.1	
561.82	5421.7	
562.01	5205.3	
562.21	4248.2	
562.4	5837.4	
562.59	6698.9	
562.79	4081.6	
562.98	3718.4	
563.18	5744.6	
563.37	7111.9	
563.56	4599.1	
563.76	3618.1	
563.95	5136.3	
564.14	5114.5	
564.34	4043.4	
564.53	3780.6	
564.73	5618.9	
564.92	5904.3	
565.11	4165.6	
565.31	3530.7	
565.5	6151.4	
565.69	5158.8	
565.89	3752.6	
566.08	3975.8	
566.27	6064.7	
566.47	6411.5	
566.66	4605.2	
566.85	3335.5	
567.05	5610.1	
567.24	5079	
567.44	3624.9	
567.63	5012.7	
567.82	5907.7	
568.02	5601.9	
568.21	3636.5	
568.4	4011.3	
568.6	5427.1	
568.79	5459.2	
568.98	3489.1	
569.18	3599	
569.37	5397.1	
569.56	7368.6	
569.76	3948.5	
569.95	4906.9	
570.14	5804.6	
570.34	5713.2	
570.53	3504.1	
570.72	3509.5	
570.91	6257.2	
571.11	5391.6	
571.3	3997.6	
571.49	4818.2	
571.69	5441.5	
571.88	5053	
572.07	4450.2	
572.27	4478.2	
572.46	5044.1	
572.65	6038.8	
572.85	3604.4	
573.04	4070	
573.23	6225.1	
573.43	5493.3	
573.62	3435.8	
573.81	4042	
574	5410.7	
574.2	5224.4	
574.39	3707.5	
574.58	3891.1	
574.78	6272.2	
574.97	5486.5	
575.16	4184.7	
575.36	4398.4	
575.55	5739.8	
575.74	6015.6	
575.93	3343	
576.13	4317.1	
576.32	5230.5	
576.51	5778	
576.71	3745.1	
576.9	5045.5	
577.09	6068.1	
577.28	5627.8	
577.48	4274.8	
577.67	3273.3	
577.86	5283.8	
578.05	5520	
578.25	3834.5	
578.44	3956.7	
578.63	5425.8	
578.83	6548.7	
579.02	3334.1	
579.21	4742.4	
579.4	5593.7	
579.6	5207.3	
579.79	4044.7	
579.98	6140.5	
580.17	5892	
580.37	5971.2	
580.56	3459.7	
580.75	4182	
580.94	6398.5	
581.14	6235.4	
581.33	4629.1	
581.52	3602.4	
581.71	5696.1	
581.91	6345.3	
582.1	3195.5	
582.29	3838.6	
582.48	5416.9	
582.68	5307.7	
582.87	4288.4	
583.06	3906.2	
583.25	5662	
583.45	5000.5	
583.64	4538.3	
583.83	5227.1	
584.02	5192.3	
584.21	5596.4	
584.41	4562.9	
584.6	3846.8	
584.79	5300.8	
584.98	6113.2	
585.18	3322.5	
585.37	3347.7	
585.56	4954	
585.75	5663.3	
585.94	3665.2	
586.14	4201.1	
586.33	6374.6	
586.52	5358.9	
586.71	4145.8	
586.91	3947.8	
587.1	4930.8	
587.29	6212.9	
587.48	3919.8	
587.67	3757.3	
587.87	5681.7	
588.06	5882.4	
588.25	5155.4	
588.44	4411.3	
588.63	5536.3	
588.83	6105	
589.02	4001	
589.21	3934.1	
589.4	5472.2	
589.59	5309	
589.78	3360.7	
589.98	3639.9	
590.17	5141.8	
590.36	5720	
590.55	3201.7	
590.74	4123.9	
590.94	7157.7	
591.13	5744.6	
591.32	3872	
591.51	3399.6	
591.7	6159.6	
591.89	5659.2	
592.09	3553.2	
592.28	3955.3	
592.47	4904.2	
592.66	6792.4	
592.85	3452.2	
593.05	3668.6	
593.24	5544.5	
593.43	6220.4	
593.62	3715.7	
593.81	4248.9	
594	5483.1	
594.19	5689.9	
594.39	3633.8	
594.58	3599.6	
594.77	5834.7	
594.96	6438.8	
595.15	3588.7	
595.34	4292.5	
595.54	5886.5	
595.73	4972.5	
595.92	3069.2	
596.11	4169	
596.3	6427.9	
596.49	5145.2	
596.68	3953.3	
596.88	4431.1	
597.07	6178.7	
597.26	4975.9	
597.45	3547.8	
597.64	4665.3	
597.83	5167.7	
598.02	5787.6	
598.22	3581.2	
598.41	4339.6	
598.6	5625.1	
598.79	5092.6	
598.98	3600.3	
599.17	4582	
599.36	5627.8	
599.55	6840.2	
599.74	5629.2	
599.94	5400.5	
600.13	6170.5	
600.32	5059.2	
600.51	3407.1	
600.7	3474	
600.89	6809.5	
601.08	6910.5	
601.27	3318.4	
601.47	4300.7	
601.66	6212.9	
601.85	6786.3	
602.04	3948.5	
602.23	4137.6	
602.42	5244.8	
602.61	5889.3	
602.8	3918.4	
602.99	3715.7	
603.18	5572.5	
603.37	5765.7	
603.57	4360.8	
603.76	4840.7	
603.95	6520.7	
604.14	6000.5	
604.33	3691.8	
604.52	4085.7	
604.71	5710.4	
604.9	5315.8	
605.09	4682.3	
605.28	4508.9	
605.47	6268.1	
605.66	6019	
605.86	4304.1	
606.05	3739.6	
606.24	6337.1	
606.43	4960.2	
606.62	4070	
606.81	4877.6	
607	6167.1	
607.19	5494.7	
607.38	3592.1	
607.57	3821.5	
607.76	5325.4	
607.95	4834.6	
608.14	4240.7	
608.33	4825	
608.52	5400.5	
608.72	6225.8	
608.91	3495.2	
609.1	3396.2	
609.29	5476.3	
609.48	5000.5	
609.67	4501.4	
609.86	3549.8	
610.05	5079.6	
610.24	5455.8	
610.43	3377.1	
610.62	3083.6	
610.81	6593.8	
611	6289.3	
611.19	3575.8	
611.38	4232.5	
611.57	5738.4	
611.76	7060.7	
611.95	3294.5	
612.14	3265.1	
612.33	5597.8	
612.52	5128.8	
612.71	3837.2	
612.9	3143.6	
613.09	4759.5	
613.28	6989	
613.47	3636.5	
613.66	4610.7	
613.85	5726.8	
614.04	5244.8	
614.24	3704.8	
614.43	2960.7	
614.62	5700.2	
614.81	5737.7	
615	4248.9	
615.19	4235.9	
615.38	5113.8	
615.57	5392.3	
615.76	4106.9	
615.95	5031.2	
616.14	5788.9	
616.33	5440.1	
616.52	4481.6	
616.71	4672.8	
616.9	5784.8	
617.09	5551.4	
617.28	3737.5	
617.47	5066	
617.66	4913.1	
617.85	4903.5	
618.04	4659.8	
618.22	4113.7	
618.41	5139	
618.6	6033.3	
618.79	3888.4	
618.98	3547.1	
619.17	6296.8	
619.36	4715.1	
619.55	3717.1	
619.74	3829	
619.93	5485.1	
620.12	4977.2	
620.31	4283	
620.5	4414.1	
620.69	6098.9	
620.88	6465.4	
621.07	5149.3	
621.26	4135.5	
621.45	5608.7	
621.64	5669.5	
621.83	4274.8	
622.02	3435.1	
622.21	5659.9	
622.4	5406.6	
622.59	4752.7	
622.78	4496.7	
622.97	5045.5	
623.16	6034.7	
623.35	4069.3	
623.54	3331.4	
623.72	5184.8	
623.91	5421.7	
624.1	4414.7	
624.29	3168.2	
624.48	6485.2	
624.67	5758.2	
624.86	4328.7	
625.05	3364.8	
625.24	6492.7	
625.43	5010	
625.62	6027.9	
625.81	3546.4	
626	6033.3	
626.19	5193.6	
626.38	4285.7	
626.56	3807.2	
626.75	5049.6	
626.94	5797.1	
627.13	4375.8	
627.32	3150.5	
627.51	5735.7	
627.7	7131	
627.89	3271.3	
628.08	4358.8	
628.27	4959.5	
628.46	5233.2	
628.65	3580.5	
628.83	3207.1	
629.02	5751.4	
629.21	5083.1	
629.4	3918.4	
629.59	4099.4	
629.78	4937.7	
629.97	5954.1	
630.16	4201.1	
630.35	3666.5	
630.54	6240.2	
630.72	6092	
630.91	3619.4	
631.1	4206.5	
631.29	5519.3	
631.48	5728.2	
631.67	4262.5	
631.86	3845.4	
632.05	5162.9	
632.24	5202.5	
632.42	3465.8	
632.61	4058.4	
632.8	5326.1	
632.99	4978.6	
633.18	3968.3	
633.37	4526	
633.56	5534.3	
633.75	5367.7	
633.93	4029.7	
634.12	3725.9	
634.31	6350.8	
634.5	5945.9	
634.69	3713.6	
634.88	4290.5	
635.07	5307	
635.25	5978.7	
635.44	4717.2	
635.63	4831.8	
635.82	5136.3	
636.01	4718.5	
636.2	4696	
636.39	4157.4	
636.57	6346	
636.76	6036.7	
636.95	3614	
637.14	4994.3	
637.33	5589.6	
637.52	6602	
637.7	3445.4	
637.89	4337.6	
638.08	5229.8	
638.27	6684.6	
638.46	4369	
638.65	4948.6	
638.83	6722.8	
639.02	5113.8	
639.21	4416.1	
639.4	4866.7	
639.59	5679.7	
639.78	5238.7	
639.96	3693.9	
640.15	3771	
640.34	5519.3	
640.53	5713.8	
640.72	3539.6	
640.91	3833.1	
641.09	5057.1	
641.28	6295.5	
641.47	3782.6	
641.66	4634.6	
641.85	5657.2	
642.03	5999.2	
642.22	4408.6	
642.41	3943	
642.6	5151.3	
642.79	4618.9	
642.97	3781.9	
643.16	4440.7	
643.35	5165.7	
643.54	4997	
643.73	3669.3	
643.91	4563.6	
644.1	4920.6	
644.29	5495.4	
644.48	3913.7	
644.67	3852.9	
644.85	5161.6	
645.04	5467.4	
645.23	3542.3	
645.42	3857.7	
645.6	5179.3	
645.79	6249	
645.98	3899.3	
646.17	3037.8	
646.36	4919.9	
646.54	5592.3	
646.73	4841.4	
646.92	3655.6	
647.11	5218.9	
647.29	6389.7	
647.48	3775.1	
647.67	3586	
647.86	6604.7	
648.05	6512.5	
648.23	4067.9	
648.42	5409.4	
648.61	5870.2	
648.8	5599.1	
648.98	3725.3	
649.17	4001.7	
649.36	5226.4	
649.55	4752	
649.73	3752.6	
649.92	4494.6	
650.11	5095.3	
650.3	5517.2	
650.48	3932.8	
650.67	3721.8	
650.86	5841.5	
651.05	4737	
651.23	3837.2	
651.42	3791.5	
651.61	5246.2	
651.79	5436	
651.98	4075.5	
652.17	3733.4	
652.36	5791.7	
652.54	4840	
652.73	3805.8	
652.92	3643.3	
653.11	5828.5	
653.29	5828.5	
653.48	3138.9	
653.67	4088.4	
653.85	5599.8	
654.04	6672.3	
654.23	4395.6	
654.42	4022.2	
654.6	5240.1	
654.79	5958.9	
654.98	3517.7	
655.16	4102.1	
655.35	4906.9	
655.54	4869.4	
655.73	3626.3	
655.91	3633.8	
656.1	6058.6	
656.29	4844.1	
656.47	3188	
656.66	4795.7	
656.85	5118.6	
657.03	5057.8	
657.22	3644.7	
657.41	3697.9	
657.59	5108.3	
657.78	4935.6	
657.97	3259	
658.16	3994.2	
658.34	5788.9	
658.53	6128.9	
658.72	4888.5	
658.9	5397.8	
659.09	5129.5	
659.28	5280.3	
659.46	3790.8	
659.65	3670.6	
659.84	5007.3	
660.02	5543.2	
660.21	3590.1	
660.4	3526.6	
660.58	5940.5	
660.77	5306.3	
660.96	4137.6	
661.14	3217.4	
661.33	6492.1	
661.52	6327.5	
661.7	3179.8	
661.89	6845.7	
662.08	4982	
662.26	4532.8	
662.45	3457.7	
662.64	3586	
662.82	5625.1	
663.01	4864.6	
663.2	3627	
663.38	4343.1	
663.57	5616.9	
663.75	5440.1	
663.94	3951.9	
664.13	5134.9	
664.31	4969.1	
664.5	5644.9	
664.69	4072.7	
664.87	4817.5	
665.06	4691.9	
665.25	5442.8	
665.43	4961.5	
665.62	5076.9	
665.8	5853.1	
665.99	5122.7	
666.18	3934.1	
666.36	4072.7	
666.55	5787.6	
666.74	5682.4	
666.92	3581.9	
667.11	5274.9	
667.29	5139.7	
667.48	5765	
667.67	4821.6	
667.85	4008.6	
668.04	5214.1	
668.22	5149.3	
668.41	4109.6	
668.6	4223.6	
668.78	4979.3	
668.97	5212.1	
669.15	4415.4	
669.34	3370.3	
669.53	4997	
669.71	5356.8	
669.9	3573.7	
670.08	4222.2	
670.27	4913.1	
670.46	5579.3	
670.64	4446.1	
670.83	4648.2	
671.01	4907.6	
671.2	5530.9	
671.38	3586.7	
671.57	3571	
671.76	6134.3	
671.94	6703	
672.13	3480.2	
672.31	4602.5	
672.5	5677	
672.69	4979.3	
672.87	3635.1	
673.06	3934.1	
673.24	5509	
673.43	5060.5	
673.61	4420.9	
673.8	3988.8	
673.98	5781.4	
674.17	5913.9	
674.36	4528.7	
674.54	4392.9	
674.73	5536.3	
674.91	5754.1	
675.1	4083	
675.28	3686.3	
675.47	5296.7	
675.65	5819	
675.84	3946.4	
676.03	4345.1	
676.21	5056.4	
676.4	4605.9	
676.58	4820.2	
676.77	4472.1	
676.95	6511.2	
677.14	5038.7	
677.32	3666.5	
677.51	3403.7	
677.69	5795.8	
677.88	4721.3	
678.06	3542.3	
678.25	3627.6	
678.44	5255.8	
678.62	5011.4	
678.81	3368.9	
678.99	4287.1	
679.18	6077.7	
679.36	5670.1	
679.55	3900.7	
679.73	4570.4	
679.92	5623.7	
680.1	5052.3	
680.29	5139	
680.47	3992.9	
680.66	5025	
680.84	5860.6	
681.03	3282.2	
681.21	4272.7	
681.4	5051.7	
681.58	4929.5	
681.77	3674.7	
681.95	3676.8	
682.14	5890	
682.32	6252.4	
682.51	4617.5	
682.69	3460.4	
682.88	5014.1	
683.06	5686.5	
683.25	4268.6	
683.43	4764.3	
683.62	5293.3	
683.8	5707.7	
683.99	4935.6	
684.17	4225	
684.36	6651.8	
684.54	5351.3	
684.73	3501.3	
684.91	3725.9	
685.1	5758.2	
685.28	5266.7	
685.46	4404.5	
685.65	4518.5	
685.83	6102.3	
686.02	5431.2	
686.2	3897.3	
686.39	4050.2	
686.57	5171.1	
686.76	6704.4	
686.94	3855	
687.13	4012	
687.31	5816.9	
687.5	5346.6	
687.68	3477.5	
687.86	4734.2	
688.05	6918	
688.23	4781.3	
688.42	4704.2	
688.6	3815.4	
688.79	5174.5	
688.97	5287.2	
689.16	4226.3	
689.34	3277.4	
689.52	5954.1	
689.71	6178	
689.89	4537.6	
690.08	3851.5	
690.26	5410.7	
690.45	5326.1	
690.63	4727.4	
690.81	3970.3	
691	5264	
691.18	5162.9	
691.37	4144.4	
691.55	6467.5	
691.74	5141.8	
691.92	7241.6	
692.1	4176.5	
692.29	3561.4	
692.47	5438	
692.66	4682.3	
692.84	3833.8	
693.02	4457.7	
693.21	4752	
693.39	5291.3	
693.58	4411.3	
693.76	3829.7	
693.94	6393.1	
694.13	6150.7	
694.31	3702.7	
694.5	4818.2	
694.68	5007.3	
694.86	5321.3	
695.05	4015.4	
695.23	4517.8	
695.42	5640.1	
695.6	8059.4	
695.78	4645.5	
695.97	3785.3	
696.15	5739.8	
696.34	5094.7	
696.52	3633.1	
696.7	4466.6	
696.89	5520	
697.07	4962.9	
697.25	4400.4	
697.44	5946.6	
697.62	5481	
697.81	5805.3	
697.99	4063.2	
698.17	4555.4	
698.36	4907.6	
698.54	5584.8	
698.72	4403.1	
698.91	3449.5	
699.09	5126.1	
699.28	4988.9	
699.46	4057.7	
699.64	3951.9	
699.83	4928.8	
700.01	6251.1	
700.19	4771.1	
700.38	3127.2	
700.56	6152.8	
700.74	5037.3	
700.93	3524.6	
701.11	4352.6	
701.29	5570.5	
701.48	6645	
701.66	3690.4	
701.84	3743.7	
702.03	5091.9	
702.21	5694	
702.39	3342.3	
702.58	3904.1	
702.76	5459.9	
702.94	5571.2	
703.13	3330	
703.31	5767.8	
703.49	4809.3	
703.68	5942.5	
703.86	3516.4	
704.04	4542.4	
704.23	5267.4	
704.41	5657.9	
704.59	3682.2	
704.78	4988.9	
704.96	6437.4	
705.14	5746.6	
705.33	3420.1	
705.51	4331.5	
705.69	5165	
705.87	6018.3	
706.06	4586.1	
706.24	3411.2	
706.42	5452.4	
706.61	5711.1	
706.79	4569	
706.97	3429.7	
707.16	4939.7	
707.34	5490.6	
707.52	4586.1	
707.7	3633.8	
707.89	5103.5	
708.07	4739	
708.25	4592.9	
708.44	4603.8	
708.62	4988.2	
708.8	6181.5	
708.98	4842.1	
709.17	3768.9	
709.35	5461.2	
709.53	5411.4	
709.72	3439.2	
709.9	3697.9	
710.08	5694	
710.26	5745.9	
710.45	5179.3	
710.63	3800.3	
710.81	5390.3	
710.99	5410.7	
711.18	4465.9	
711.36	3988.1	
711.54	5248.3	
711.72	5995.1	
711.91	4143	
712.09	3546.4	
712.27	5431.2	
712.45	6115.9	
712.64	4470.7	
712.82	3401.7	
713	4977.9	
713.18	5234.6	
713.37	3685	
713.55	4943.1	
713.73	6186.2	
713.91	4844.1	
714.1	4239.3	
714.28	3738.9	
714.46	6008.7	
714.64	5282.4	
714.83	3381.9	
715.01	4287.8	
715.19	5492	
715.37	4892.6	
715.55	3960.1	
715.74	4403.1	
715.92	6505	
716.1	4450.9	
716.28	5515.2	
716.47	4529.4	
716.65	5247.6	
716.83	5302.2	
717.01	4431.1	
717.19	4466.6	
717.38	7398.6	
717.56	4984.8	
717.74	4628.4	
717.92	3656.3	
718.1	6103.6	
718.29	5328.8	
718.47	3262.4	
718.65	3908.9	
718.83	5877.7	
719.01	5750	
719.2	3052.2	
719.38	4126.7	
719.56	5471.5	
719.74	7077.8	
719.92	3698.6	
720.11	4811.4	
720.29	5575.3	
720.47	4792.2	
720.65	3388	
720.83	4276.8	
721.02	5184.1	
721.2	4937.7	
721.38	4446.8	
721.56	3635.8	
721.74	4561.5	
721.92	4751.3	
722.11	4964.3	
722.29	4595.6	
722.47	6018.3	
722.65	5183.4	
722.83	3700	
723.01	4648.2	
723.2	5201.8	
723.38	5497.4	
723.56	3104	
723.74	4274.1	
723.92	4743.8	
724.1	5849.7	
724.29	3616	
724.47	4832.5	
724.65	4794.3	
724.83	4735.6	
725.01	3528	
725.19	4509.6	
725.37	4818.2	
725.56	4920.6	
725.74	3443.3	
725.92	3590.1	
726.1	4749.2	
726.28	5079	
726.46	4114.4	
726.64	3862.5	
726.83	5068.7	
727.01	5294.7	
727.19	3388	
727.37	4179.2	
727.55	5078.3	
727.73	5657.9	
727.91	3362.8	
728.09	3218	
728.28	5698.8	
728.46	6360.3	
728.64	4278.2	
728.82	4207.9	
729	6746.7	
729.18	5954.1	
729.36	3397.6	
729.54	5784.1	
729.72	6921.5	
729.91	5143.1	
730.09	5347.2	
730.27	4036.5	
730.45	5052.3	
730.63	5754.1	
730.81	4611.3	
730.99	3577.8	
731.17	6182.8	
731.35	4763.6	
731.53	4176.5	
731.71	3822.2	
731.9	5954.1	
732.08	6125.5	
732.26	4122.6	
732.44	3745.1	
732.62	6180.8	
732.8	5630.5	
732.98	4421.6	
733.16	3530.7	
733.34	5657.2	
733.52	4514.4	
733.7	4097.3	
733.88	4425	
734.07	5551.4	
734.25	5259.9	
734.43	3432.4	
734.61	5068.7	
734.79	6700.3	
734.97	5168.4	
735.15	3665.2	
735.33	4006.5	
735.51	5543.9	
735.69	5167.7	
735.87	5145.9	
736.05	4243.4	
736.23	5328.1	
736.41	5133.6	
736.59	4022.2	
736.77	4123.2	
736.95	5779.4	
737.13	5193.6	
737.32	3672.7	
737.5	3945.1	
737.68	6341.9	
737.86	5150	
738.04	3465.2	
738.22	5414.1	
738.4	4970.4	
738.58	5231.2	
738.76	4200.4	
738.94	3131.3	
739.12	5119.2	
739.3	4887.1	
739.48	4749.2	
739.66	4477.5	
739.84	5321.3	
740.02	5328.1	
740.2	3182.5	
740.38	3590.8	
740.56	5740.5	
740.74	4577.2	
740.92	4207.9	
741.1	4222.2	
741.28	5154.7	
741.46	5012.1	
741.64	3811.3	
741.82	4318.5	
742	5266	
742.18	5192.3	
742.36	4042.7	
742.54	3648.8	
742.72	5782.1	
742.9	4569	
743.08	4455.7	
743.26	3239.9	
743.44	6049.7	
743.62	5922	
743.8	4688.5	
743.98	3729.4	
744.16	5591.6	
744.34	5352.7	
744.52	4607.9	
744.7	4467.3	
744.88	5772.5	
745.06	5292	
745.24	4589.5	
745.42	4780	
745.6	5870.8	
745.78	5636.7	
745.96	3444	
746.14	3805.8	
746.32	6699.6	
746.5	5924.1	
746.68	4361.5	
746.86	3835.2	
747.03	6312.5	
747.21	4713.1	
747.39	4459.1	
747.57	3867.9	
747.75	5496.1	
747.93	5917.9	
748.11	3820.1	
748.29	3760.8	
748.47	7157	
748.65	5271.5	
748.83	4556	
749.01	4309.6	
749.19	5717.2	
749.37	4891.2	
749.55	4156.7	
749.73	4298	
749.91	5449.6	
750.09	5122.7	
750.26	4338.3	
750.44	3702	
750.62	5500.8	
750.8	5381.4	
750.98	3560.1	
751.16	3878.2	
751.34	5476.3	
751.52	4849.6	
751.7	4700.8	
751.88	3585.3	
752.06	5959.6	
752.24	5827.8	
752.42	3516.4	
752.59	3882.9	
752.77	5406	
752.95	6669.6	
753.13	4573.8	
753.31	4034.5	
753.49	5106.3	
753.67	5620.3	
753.85	4317.8	
754.03	3943	
754.21	5922.7	
754.38	6333	
754.56	4143	
754.74	3212.6	
754.92	5233.2	
755.1	5992.4	
755.28	3358.7	
755.46	3500.7	
755.64	6967.2	
755.82	7187	
755.99	3906.8	
756.17	4186.7	
756.35	4684.4	
756.53	6391.7	
756.71	3039.2	
756.89	4024.3	
757.07	5933	
757.25	4953.4	
757.42	4508.3	
757.6	5373.2	
757.78	5933.6	
757.96	4821.6	
758.14	4079.6	
758.32	3599	
758.5	4418.2	
758.67	5294.7	
758.85	4009.2	
759.03	4075.5	
759.21	5456.5	
759.39	4944.5	
759.57	3609.9	
759.75	4811.4	
759.92	6060.6	
760.1	5326.8	
760.28	5038	
760.46	5290.6	
760.64	5067.4	
760.82	4812.7	
760.99	4855.7	
761.17	3925.3	
761.35	5905	
761.53	4831.2	
761.71	4022.9	
761.89	4730.8	
762.06	5700.9	
762.24	5178.6	
762.42	4128.7	
762.6	3867.2	
762.78	5216.9	
762.96	5040.7	
763.13	4420.9	
763.31	4109.6	
763.49	5974.6	
763.67	5048.2	
763.85	4991.6	
764.02	5553.4	
764.2	6210.1	
764.38	5380.7	
764.56	3953.3	
764.74	4827.7	
764.91	6344.6	
765.09	5266.7	
765.27	3633.1	
765.45	3467.2	
765.63	6373.3	
765.8	6232	
765.98	3151.1	
766.16	3588	
766.34	4788.2	
766.52	4545.8	
766.69	4506.2	
766.87	3390.1	
767.05	5248.9	
767.23	6045.6	
767.41	3733.4	
767.58	4022.9	
767.76	5812.8	
767.94	5963.7	
768.12	3820.8	
768.29	4655.7	
768.47	5302.9	
768.65	6104.3	
768.83	3463.1	
769	4749.9	
769.18	4944.5	
769.36	5667.4	
769.54	4491.2	
769.72	3526.6	
769.89	5980.1	
770.07	6101.6	
770.25	3985.3	
770.43	5255.1	
770.6	6798.6	
770.78	7218.4	
770.96	4117.8	
771.14	4769.7	
771.31	5939.8	
771.49	5274.2	
771.67	3272	
771.85	3592.8	
772.02	4500.1	
772.2	5277.6	
772.38	4289.1	
772.55	3792.8	
772.73	5552	
772.91	5335.6	
773.09	4207.9	
773.26	4369.7	
773.44	5535.7	
773.62	5186.1	
773.8	3736.9	
773.97	3479.5	
774.15	5649	
774.33	5273.5	
774.5	3673.4	
774.68	4029.7	
774.86	5862	
775.04	5276.3	
775.21	3710.2	
775.39	3758.7	
775.57	5587.5	
775.74	6012.8	
775.92	3583.3	
776.1	3504.8	
776.27	5623	
776.45	6910.5	
776.63	3790.8	
776.81	3334.8	
776.98	5172.5	
777.16	6348	
777.34	3881.6	
777.51	3928.7	
777.69	5188.9	
777.87	4989.5	
778.04	3957.4	
778.22	4657.1	
778.4	5040.7	
778.57	5752.1	
778.75	3293.1	
778.93	3553.2	
779.1	4821.6	
779.28	4767	
779.46	3247.4	
779.64	3788.1	
779.81	5913.2	
779.99	6869.6	
780.17	4726.7	
780.34	4769.7	
780.52	5319.3	
780.69	5513.1	
780.87	4190.1	
781.05	3764.8	
781.22	5425.8	
781.4	5500.8	
781.58	3855.6	
781.75	3010.5	
781.93	5467.4	
782.11	4896.7	
782.28	4840	
782.46	3876.1	
782.64	4671.4	
782.81	5695.4	
782.99	3949.8	
783.17	3999	
783.34	5571.8	
783.52	4818.2	
783.69	4238.6	
783.87	5018.9	
784.05	4901.5	
784.22	4873.5	
784.4	4953.4	
784.58	4304.1	
784.75	5791.7	
784.93	4911	
785.1	3979.9	
785.28	4564.9	
785.46	5539.8	
785.63	4922	
785.81	3906.2	
785.99	3745.7	
786.16	5053.7	
786.34	5592.3	
786.51	3833.1	
786.69	4221.5	
786.87	4673.5	
787.04	5240.8	
787.22	3628.3	
787.39	4687.1	
787.57	4939	
787.75	6092.7	
787.92	4875.5	
788.1	4808.6	
788.27	4963.6	
788.45	4713.1	
788.63	4527.4	
788.8	3134.1	
788.98	5505.6	
789.15	4670.1	
789.33	3335.5	
789.5	4026.3	
789.68	5920.7	
789.86	6079.1	
790.03	4457.7	
790.21	3848.1	
790.38	5915.2	
790.56	5081.7	
790.73	3682.2	
790.91	3713	
791.09	4993.6	
791.26	5824.4	
791.44	3954.6	
791.61	3373	
791.79	4987.5	
791.96	5020.3	
792.14	3456.3	
792.32	3137.5	
792.49	4968.4	
792.67	5107.6	
792.84	3599	
793.02	3395.5	
793.19	5430.5	
793.37	6186.2	
793.54	3150.5	
793.72	3534.1	
793.89	6379.4	
794.07	5022.3	
794.25	4111.6	
794.42	3214.6	
794.6	6105	
794.77	5715.2	
794.95	4455	
795.12	3859.7	
795.3	4967	
795.47	5642.2	
795.65	4198.3	
795.82	4126.7	
796	4768.4	
796.17	6826.6	
796.35	3888.4	
796.52	4696	
796.7	5615.5	
796.87	5722.7	
797.05	4911.7	
797.22	4794.3	
797.4	5650.3	
797.57	6698.2	
797.75	4035.9	
797.92	3810.6	
798.1	5965.7	
798.27	5043.5	
798.45	3275.4	
798.62	3572.3	
798.8	5319.9	
798.97	5861.3	
799.15	4364.9	
799.32	4076.1	
799.5	4567	
799.67	5391.6	
799.85	4462.5	
800.02	3205.1	
800.2	4936.3	
800.37	5333.6	
800.55	4592.9	
800.72	3829	
800.9	5807.4	
801.07	6290	
801.25	5221.6	
801.42	4242.7	
801.6	5865.4	
801.77	5597.1	
801.95	3815.4	
802.12	3762.1	
802.29	5548.6	
802.47	5479	
802.64	4192.9	
802.82	3069.2	
802.99	4937.7	
803.17	6032	
803.34	4121.9	
803.52	3687.7	
803.69	6748.7	
803.87	4781.3	
804.04	4002.4	
804.21	4176.5	
804.39	6152.1	
804.56	5229.8	
804.74	3452.9	
804.91	4228.4	
805.09	5036.6	
805.26	5147.2	
805.44	3535.5	
805.61	3870	
805.78	5670.8	
805.96	5764.3	
806.13	4295.3	
806.31	4612	
806.48	4554.7	
806.66	5124	
806.83	4207.2	
807	4119.1	
807.18	5027.1	
807.35	5444.9	
807.53	4114.4	
807.7	3297.9	
807.87	6223.8	
808.05	5048.9	
808.22	4575.8	
808.4	3307.5	
808.57	5092.6	
808.74	4731.5	
808.92	3773	
809.09	4852.3	
809.27	4954.7	
809.44	5581.4	
809.61	3334.8	
809.79	3709.6	
809.96	6225.8	
810.14	5873.6	
810.31	3223.5	
810.48	3982.6	
810.66	5236.7	
810.83	6020.3	
811.01	3792.2	
811.18	4259.8	
811.35	5835.3	
811.53	4495.3	
811.7	4627.7	
811.87	4276.2	
812.05	5098.8	
812.22	5010	
812.39	3649.5	
812.57	3592.1	
812.74	5108.3	
812.92	6905.1	
813.09	3975.8	
813.26	4362.2	
813.44	6521.4	
813.61	5046.9	
813.78	3327.9	
813.96	4423.6	
814.13	5087.8	
814.3	4710.3	
814.48	4896.7	
814.65	3960.1	
814.82	6382.2	
815	4827.1	
815.17	4100	
815.34	5011.4	
815.52	5048.9	
815.69	4987.5	
815.87	4033.1	
816.04	3519.1	
816.21	5083.1	
816.38	4483	
816.56	3975.1	
816.73	3714.3	
816.9	6432	
817.08	5865.4	
817.25	3674.7	
817.42	4724.7	
817.6	4632.5	
817.77	5134.3	
817.94	4237.9	
818.12	3673.4	
818.29	4838.7	
818.46	7675.1	
818.64	3786.7	
818.81	3605.8	
818.98	4725.3	
819.16	6961.7	
819.33	4441.4	
819.5	4091.2	
819.67	5545.2	
819.85	6195.1	
820.02	4078.9	
820.19	4265.2	
820.37	5315.8	
820.54	4885.8	
820.71	4225	
820.88	5221	
821.06	5309	
821.23	4866	
821.4	4239.3	
821.58	4168.3	
821.75	5868.1	
821.92	5253	
822.09	3350.5	
822.27	3646.1	
822.44	5150.6	
822.61	4995	
822.79	3332	
822.96	6561.7	
823.13	5603.2	
823.3	4803.9	
823.48	3908.2	
823.65	3519.8	
823.82	5872.2	
823.99	4587.4	
824.17	4958.1	
824.34	3572.3	
824.51	6773.3	
824.68	5173.2	
824.86	3702.7	
825.03	4179.2	
825.2	5026.4	
825.37	6212.2	
825.55	3692.5	
825.72	4106.9	
825.89	6906.4	
826.06	6339.8	
826.24	4108.9	
826.41	4064.5	
826.58	6217	
826.75	5422.3	
826.92	3152.5	
827.1	3560.7	
827.27	8580.3	
827.44	6844.3	
827.61	3751.9	
827.79	4623.6	
827.96	4790.9	
828.13	5227.8	
828.3	3965.6	
828.47	3282.2	
828.65	5330.2	
828.82	5305.6	
828.99	5091.3	
829.16	4496.7	
829.34	5722	
829.51	5484.5	
829.68	4101.4	
829.85	4273.4	
830.02	6039.5	
830.2	5767.1	
830.37	3188.7	
830.54	5106.3	
830.71	6612.2	
830.88	5138.4	
831.05	3209.2	
831.23	3737.5	
831.4	6258.6	
831.57	7096.9	
831.74	3807.2	
831.91	3312.2	
832.09	5357.5	
832.26	5758.2	
832.43	3987.4	
832.6	4453.6	
832.77	5319.3	
832.94	6126.2	
833.12	3144.3	
833.29	3945.8	
833.46	5504.3	
833.63	7335.1	
833.8	4362.2	
833.97	4025.6	
834.15	5800.5	
834.32	5526.1	
834.49	4160.8	
834.66	4097.3	
834.83	5981.4	
835	4872.1	
835.17	3842	
835.35	3762.8	
835.52	5642.8	
835.69	5515.9	
835.86	4087.7	
836.03	3325.9	
836.2	5681.7	
836.37	5289.2	
836.55	3988.1	
836.72	3717.7	
836.89	5298.8	
837.06	5689.3	
837.23	4011.3	
837.4	4423.6	
837.57	6563.1	
837.75	7256.6	
837.92	3618.1	
838.09	3850.9	
838.26	5223	
838.43	5994.4	
838.6	4147.1	
838.77	3764.2	
838.94	6892.8	
839.11	6619	
839.29	3909.6	
839.46	3165.5	
839.63	5670.1	
839.8	5428.5	
839.97	3773.7	
840.14	3866.6	
840.31	5489.9	
840.48	5712.5	
840.65	3145	
840.82	3719.8	
841	5689.9	
841.17	5679	
841.34	3571.7	
841.51	3609.9	
841.68	5603.2	
841.85	5365	
842.02	3650.8	
842.19	3000.3	
842.36	5457.8	
842.53	5425.1	
842.7	3536.8	
842.87	4435.2	
843.05	7184.3	
843.22	5386.2	
843.39	3321.1	
843.56	3591.5	
843.73	5175.2	
843.9	5866.1	
844.07	5769.8	
844.24	4786.8	
844.41	8499.1	
844.58	4916.5	
844.75	3387.3	
844.92	3753.2	
845.09	5739.1	
845.26	5688.6	
845.43	3499.3	
845.6	3708.9	
845.77	5750	
845.94	5425.8	
846.12	3916.4	
846.29	4130.1	
846.46	5912.5	
846.63	5715.9	
846.8	3529.3	
846.97	4194.2	
847.14	6161.7	
847.31	5691.3	
847.48	4008.6	
847.65	4421.6	
847.82	5967.8	
847.99	6006.7	
848.16	4688.5	
848.33	4373.1	
848.5	5237.3	
848.67	6212.9	
848.84	3538.2	
849.01	3657.7	
849.18	5119.2	
849.35	4818.2	
849.52	4429.8	
849.69	3477.5	
849.86	5934.3	
850.03	6155.5	
850.2	3504.1	
850.37	4342.4	
850.54	6075	
850.71	5356.8	
850.88	4271.4	
851.05	3491.8	
851.22	5613.5	
851.39	6296.8	
851.56	3282.2	
851.73	4019.5	
851.9	4977.2	
852.07	6017.6	
852.24	3944.4	
852.41	3488.4	
852.58	5561.6	
852.75	5074.9	
852.92	3919.8	
853.09	3457	
853.26	5248.9	
853.43	6140.5	
853.6	3465.8	
853.77	3050.1	
853.94	6277	
854.11	5646.9	
854.28	5246.2	
854.44	3816	
854.61	6767.9	
854.78	5810.8	
854.95	3472	
855.12	4403.1	
855.29	4564.2	
855.46	6581.5	
855.63	3557.3	
855.8	4899.4	
855.97	5240.1	
856.14	6028.5	
856.31	5014.1	
856.48	3867.9	
856.65	5264.6	
856.82	4962.9	
856.99	3367.5	
857.16	3795.6	
857.33	7008.1	
857.49	5337.7	
857.66	3824.9	
857.83	4115.1	
858	5282.4	
858.17	5486.5	
858.34	3283.6	
858.51	3477.5	
858.68	6352.8	
858.85	6498.2	
859.02	4095.3	
859.19	4334.2	
859.36	4929.5	
859.52	5041.4	
859.69	3531.4	
859.86	4148.5	
860.03	5054.4	
860.2	6339.8	
860.37	3162.7	
860.54	3566.9	
860.71	5926.8	
860.88	6372.6	
861.05	3931.4	
861.21	4495.3	
861.38	6457.2	
861.55	4846.9	
861.72	3132	
861.89	3977.2	
862.06	5999.9	
862.23	6522.8	
862.4	3442.6	
862.56	3637.9	
862.73	5852.4	
862.9	5456.5	
863.07	4174.4	
863.24	3174.4	
863.41	4874.8	
863.58	5034.6	
863.75	3576.4	
863.91	4057.7	
864.08	6278.4	
864.25	5861.3	
864.42	4451.6	
864.59	4941.7	
864.76	6713.9	
864.93	4962.2	
865.09	3442	
865.26	3710.9	
865.43	6257.9	
865.6	6602	
865.77	3056.3	
865.94	3521.8	
866.1	6212.9	
866.27	5982.1	
866.44	5294	
866.61	3358	
866.78	5358.9	
866.95	5865.4	
867.11	3387.3	
867.28	3074.7	
867.45	6040.8	
867.62	5079.6	
867.79	4089.1	
867.96	3459	
868.12	5028.4	
868.29	6001.2	
868.46	3558	
868.63	4747.2	
868.8	6141.9	
868.97	5938.4	
869.13	3630.4	
869.3	3670	
869.47	5776.6	
869.64	6059.3	
869.81	3498.6	
869.97	3494.5	
870.14	5775.3	
870.31	6407.4	
870.48	3458.3	
870.65	4503.5	
870.81	5279.7	
870.98	5251	
871.15	4008.6	
871.32	3637.9	
871.48	5774.6	
871.65	6445	
871.82	3477.5	
871.99	3893.2	
872.16	6924.9	
872.32	6251.8	
872.49	3502.7	
872.66	3599.6	
872.83	5969.8	
872.99	5214.1	
873.16	4014.7	
873.33	3517.7	
873.5	5573.9	
873.67	5625.1	
873.83	3667.2	
874	4792.2	
874.17	5709.1	
874.34	6844.3	
874.5	4605.2	
874.67	4388.8	
874.84	6372.6	
875.01	4951.3	
875.17	5087.2	
875.34	3487.7	
875.51	5575.9	
875.68	6835.4	
875.84	4209.9	
876.01	5185.5	
876.18	5892	
876.34	5845.6	
876.51	3532.1	
876.68	3485	
876.85	5394.3	
877.01	6198.5	
877.18	5049.6	
877.35	3504.8	
877.52	5481.7	
877.68	4989.5	
877.85	3433.8	
878.02	3471.3	
878.18	5457.2	
878.35	5233.2	
878.52	2805.7	
878.69	3926.6	
878.85	5969.8	
879.02	5896.1	
879.19	4977.9	
879.35	3782.6	
879.52	5864.7	
879.69	6150.1	
879.86	3009.1	
880.02	3912.3	
880.19	5422.3	
880.36	6666.1	
880.52	4129.4	
880.69	4177.9	
880.86	6004.6	
881.02	6059.3	
881.19	3896.6	
881.36	3864.5	
881.52	5905.7	
881.69	5203.9	
881.86	3796.3	
882.02	3713.6	
882.19	6143.2	
882.36	7264.8	
882.52	3602.4	
882.69	4926	
882.86	5704.3	
883.02	5496.7	
883.19	4259.1	
883.36	4036.5	
883.52	6021	
883.69	6842.3	
883.86	3553.9	
884.02	3124.5	
884.19	5940.5	
884.36	5479	
884.52	3973.1	
884.69	3767.6	
884.86	5221.6	
885.02	6629.3	
885.19	3936.2	
885.36	4091.8	
885.52	5499.5	
885.69	5722.7	
885.86	5173.9	
886.02	4541	
886.19	5958.2	
886.35	5429.8	
886.52	3931.4	
886.69	4980	
886.85	5057.1	
887.02	6341.2	
887.19	6341.2	
887.35	6341.2	
887.52	6341.2	
887.68	6341.2	
887.85	6341.2	
888.02	6341.2	
888.18	6341.2	
888.35	6341.2	
888.51	6341.2	
888.68	6341.2	
888.85	6341.2	
889.01	6341.2	
889.18	6341.2	
889.35	6341.2	
889.51	6341.2	
889.68	6341.2	
889.84	6341.2	
890.01	6341.2	
890.17	6341.2	
890.34	6341.2	
890.51	6341.2	
890.67	6341.2	
890.84	6341.2	
891	6341.2	
891.17	6341.2	
891.34	6341.2	
891.5	6341.2	
891.67	6341.2	
891.83	6341.2	
892	6341.2	
892.16	6341.2	
892.33	6341.2	
892.5	6341.2	
892.66	6341.2	
892.83	6341.2	
892.99	6341.2	
893.16	6341.2	
893.32	6341.2	
893.49	6341.2	
893.65	6341.2	
893.82	6341.2	
893.99	6341.2	
894.15	6341.2	
894.32	6341.2	
894.48	6341.2	
894.65	6341.2	
894.81	6341.2	
894.98	6341.2	
895.14	6341.2	
895.31	6341.2	
895.47	6341.2	
895.64	6341.2	
895.81	6341.2	
895.97	6341.2	
896.14	6341.2	
896.3	6341.2	
896.47	6341.2	
896.63	6341.2	
896.8	6341.2	
896.96	6341.2	
897.13	6341.2	
897.29	6341.2	
897.46	6341.2	
897.62	6341.2	
897.79	6341.2	
897.95	6341.2	
898.12	6341.2	
898.28	6341.2	
898.45	6341.2	
898.61	6341.2	
898.78	6341.2	
898.94	6341.2	
899.11	6341.2	
899.27	6341.2	
899.44	6341.2	
899.6	6341.2	
899.77	6341.2	
899.93	6341.2	
900.1	6341.2	
900.26	6341.2	
900.43	6341.2	
900.59	6341.2	
900.76	6341.2	
900.92	6341.2	
901.09	6341.2	
901.25	6341.2	
901.42	6341.2	
901.58	6341.2	
901.75	6341.2	
901.91	6341.2	
902.07	6341.2	
902.24	6341.2	
902.4	6341.2	
902.57	6341.2	
902.73	6341.2	
902.9	6341.2	
903.06	6341.2	
903.23	6341.2	
903.39	6341.2	
903.56	6341.2	
903.72	6341.2	
903.88	6341.2	
904.05	6341.2	
904.21	6341.2	
904.38	6341.2	
904.54	6341.2	
904.71	6341.2	
904.87	6341.2	
905.03	6341.2	
905.2	6341.2	
905.36	6341.2	
905.53	6341.2	
905.69	6341.2	
905.86	6341.2	
906.02	6341.2	
906.18	6341.2	
906.35	6341.2	
906.51	6341.2	
906.68	6341.2	
906.84	6341.2	
907.01	6341.2	
907.17	6341.2	
907.33	6341.2	
907.5	6341.2	
907.66	6341.2	
907.83	6341.2	
907.99	6341.2	
908.15	6341.2	
908.32	6341.2	
908.48	6341.2	
908.65	6341.2	
908.81	6341.2	
908.97	6341.2	
909.14	6341.2	
909.3	6341.2	
909.47	6341.2	
909.63	6341.2	
909.79	6341.2	
909.96	6341.2	
910.12	6341.2	
910.28	6341.2	
910.45	6341.2	
910.61	6341.2	
910.78	6341.2	
910.94	6341.2	
911.1	6341.2	
911.27	6341.2	
911.43	6341.2	
911.59	6341.2	
911.76	6341.2	
911.92	6341.2	
912.08	6341.2	
912.25	6341.2	
912.41	6341.2	
912.57	6341.2	
912.74	6341.2	
912.9	6341.2	
913.07	6341.2	
913.23	6341.2	
913.39	6341.2	
913.56	6341.2	
913.72	6341.2	
913.88	6341.2	
914.05	6341.2	
914.21	6341.2	
914.37	6341.2	
914.54	6341.2	
914.7	6341.2	
914.86	6341.2	
915.03	6341.2	
915.19	6341.2	
