Wavelength	Intensities	
nm	a.u.	
179.22	1744.5	
179.44	1743.5	
179.65	1745.6	
179.86	1741.5	
180.08	1799.5	
180.29	4173.8	
180.51	3128.6	
180.72	5203.9	
180.94	5870.8	
181.15	2838.5	
181.37	2837.8	
181.58	5031.9	
181.79	5249.6	
182.01	2943.6	
182.22	3169.6	
182.44	5274.9	
182.65	4463.9	
182.87	3892.5	
183.08	3446.7	
183.29	5495.4	
183.51	4586.8	
183.72	3175.7	
183.94	4519.2	
184.15	4876.9	
184.37	4889.2	
184.58	2862.4	
184.79	3771.7	
185.01	4618.9	
185.22	5229.8	
185.44	3913.7	
185.65	3384.6	
185.86	4875.5	
186.08	4539.7	
186.29	2773.6	
186.51	2958.6	
186.72	4657.8	
186.94	5354.1	
187.15	3418.1	
187.36	3452.9	
187.58	6798.6	
187.79	5018.2	
188.01	3557.3	
188.22	5428.5	
188.43	5897.5	
188.65	5227.8	
188.86	2981.8	
189.08	3500	
189.29	4748.6	
189.5	4730.1	
189.72	3205.1	
189.93	3302	
190.15	5408.7	
190.36	6315.3	
190.57	3545	
190.79	3411.9	
191	5448.3	
191.22	5367	
191.43	3523.2	
191.64	2999.6	
191.86	5563.6	
192.07	5356.8	
192.29	3081.5	
192.5	3249.4	
192.71	5369.1	
192.93	4685.8	
193.14	3196.2	
193.35	3294.5	
193.57	4747.9	
193.78	5431.9	
194	2656.9	
194.21	3132.7	
194.42	4491.9	
194.64	4917.2	
194.85	3481.5	
195.07	4055.7	
195.28	4915.8	
195.49	4403.8	
195.71	4184	
195.92	3012.6	
196.13	5107	
196.35	5147.9	
196.56	4458.4	
196.78	3442	
196.99	6251.8	
197.2	5866.7	
197.42	3815.4	
197.63	3463.8	
197.84	4493.2	
198.06	5081	
198.27	3237.8	
198.48	4237.2	
198.7	4663.2	
198.91	4882.4	
199.13	3519.8	
199.34	3506.1	
199.55	5332.2	
199.77	4287.8	
199.98	3087	
200.19	3567.6	
200.41	4810	
200.62	4616.1	
200.83	3634.5	
201.05	3961.5	
201.26	4848.9	
201.47	4678.9	
201.69	3089	
201.9	3074	
202.11	4924.7	
202.33	5694	
202.54	3276.8	
202.76	3647.4	
202.97	4951.3	
203.18	5051	
203.4	3609.2	
203.61	3603.1	
203.82	5010	
204.04	4626.4	
204.25	3482.2	
204.46	3469.3	
204.68	4997	
204.89	5094	
205.1	3449.5	
205.32	3004.4	
205.53	5220.3	
205.74	5372.5	
205.96	2656.2	
206.17	3568.9	
206.38	5264.6	
206.6	5288.5	
206.81	4018.1	
207.02	3310.2	
207.24	5099.4	
207.45	5449	
207.66	3352.5	
207.88	2911.5	
208.09	5048.2	
208.3	4882.4	
208.52	3093.1	
208.73	3331.4	
208.94	4894	
209.15	5429.2	
209.37	3358	
209.58	3841.3	
209.79	5350.7	
210.01	4760.2	
210.22	2734	
210.43	2810.5	
210.65	4942.4	
210.86	5216.9	
211.07	3327.9	
211.29	3089.7	
211.5	5194.3	
211.71	4892.6	
211.93	3108.1	
212.14	3117.7	
212.35	4876.2	
212.56	4977.2	
212.78	3552.5	
212.99	2899.2	
213.2	5641.5	
213.42	4713.7	
213.63	3208.5	
213.84	3360.7	
214.06	4417.5	
214.27	4525.3	
214.48	3301.3	
214.69	3585.3	
214.91	5528.2	
215.12	5562.3	
215.33	3529.3	
215.55	3897.3	
215.76	5953.4	
215.97	5156.8	
216.18	3412.6	
216.4	3375.7	
216.61	4641.4	
216.82	5319.3	
217.04	3176.4	
217.25	3211.9	
217.46	5365	
217.67	5255.8	
217.89	2811.2	
218.1	2868.5	
218.31	4992.9	
218.53	5068	
218.74	3289.7	
218.95	3133.4	
219.16	4842.8	
219.38	5730.2	
219.59	3207.1	
219.8	3695.2	
220.01	6134.3	
220.23	4951.3	
220.44	4046.8	
220.65	3030.3	
220.87	5010	
221.08	5467.4	
221.29	2962.7	
221.5	3792.8	
221.72	6479.8	
221.93	4663.9	
222.14	3546.4	
222.35	4097.3	
222.57	4929.5	
222.78	5236.7	
222.99	3411.9	
223.2	3545.7	
223.42	5175.9	
223.63	5289.9	
223.84	2655.5	
224.05	2664.4	
224.27	6076.3	
224.48	5659.9	
224.69	4111.6	
224.9	3553.2	
225.12	5025	
225.33	4940.4	
225.54	2850.1	
225.75	3195.5	
225.97	4521.9	
226.18	4904.2	
226.39	3368.2	
226.6	3140.2	
226.82	4721.9	
227.03	4567.7	
227.24	3469.9	
227.45	2973	
227.67	5213.4	
227.88	5593.7	
228.09	3896.6	
228.3	3868.6	
228.52	5279.7	
228.73	4807.3	
228.94	3274	
229.15	2922.5	
229.36	4940.4	
229.58	4833.2	
229.79	3238.5	
230	3797.6	
230.21	5777.3	
230.43	4924.7	
230.64	3509.5	
230.85	3641.3	
231.06	5299.5	
231.28	5281	
231.49	2925.9	
231.7	3406.5	
231.91	5215.5	
232.12	4906.9	
232.34	3057.6	
232.55	3386.7	
232.76	5378.6	
232.97	5090.6	
233.18	3118.4	
233.4	3466.5	
233.61	5061.2	
233.82	4689.2	
234.03	3263.8	
234.25	3247.4	
234.46	6588.3	
234.67	4935.6	
234.88	3533.4	
235.09	3190.1	
235.31	5098.1	
235.52	4864.6	
235.73	3446.7	
235.94	2977.7	
236.15	4697.4	
236.37	5856.5	
236.58	3126.6	
236.79	3346.4	
237	5160.9	
237.21	4483	
237.43	3609.9	
237.64	2897.2	
237.85	8380.3	
238.06	4569	
238.27	3611.9	
238.48	2971.6	
238.7	5160.2	
238.91	4835.3	
239.12	3315	
239.33	3461.1	
239.54	4635.9	
239.76	4865.3	
239.97	3339.6	
240.18	3340.9	
240.39	5974.6	
240.6	5132.9	
240.82	3512.9	
241.03	2921.1	
241.24	4914.4	
241.45	5603.9	
241.66	3117	
241.87	3666.5	
242.09	5531.6	
242.3	5774.6	
242.51	3635.1	
242.72	3336.8	
242.93	5286.5	
243.14	4836.6	
243.36	3867.2	
243.57	4141	
243.78	5620.3	
243.99	5199.8	
244.2	3340.9	
244.41	3054.9	
244.63	4559.5	
244.84	5119.2	
245.05	3594.2	
245.26	3381.9	
245.47	5186.1	
245.68	5304.9	
245.9	4358.1	
246.11	3519.8	
246.32	4805.2	
246.53	5166.3	
246.74	5322.7	
246.95	2923.1	
247.16	4557.4	
247.38	4906.9	
247.59	2822.1	
247.8	3354.6	
248.01	4597.7	
248.22	4872.8	
248.43	3082.9	
248.64	3302	
248.86	4451.6	
249.07	4732.2	
249.28	3007.8	
249.49	3509.5	
249.7	5388.9	
249.91	5448.3	
250.12	2890.4	
250.34	2963.4	
250.55	5044.1	
250.76	4930.8	
250.97	3480.2	
251.18	3493.8	
251.39	5503.6	
251.6	5055.1	
251.81	3492.5	
252.03	3501.3	
252.24	4735.6	
252.45	5322.7	
252.66	2941.6	
252.87	3723.2	
253.08	5001.8	
253.29	6257.9	
253.5	2973	
253.72	4031.1	
253.93	4783.4	
254.14	5767.1	
254.35	3181.9	
254.56	3317	
254.77	5111.7	
254.98	4654.4	
255.19	3209.2	
255.41	4026.3	
255.62	5014.1	
255.83	5442.1	
256.04	3600.3	
256.25	3467.9	
256.46	5927.5	
256.67	4685.1	
256.88	3448.1	
257.09	3807.9	
257.31	4618.2	
257.52	4620.9	
257.73	4308.9	
257.94	3205.8	
258.15	4822.3	
258.36	4933.6	
258.57	3947.1	
258.78	2650.8	
258.99	5278.3	
259.2	4758.1	
259.41	3254.2	
259.63	3345	
259.84	5599.8	
260.05	5900.2	
260.26	4094.6	
260.47	3190.7	
260.68	5413.5	
260.89	4815.5	
261.1	3805.8	
261.31	3070.6	
261.52	5472.9	
261.73	5741.8	
261.95	4089.8	
262.16	3573.7	
262.37	5473.5	
262.58	5547.9	
262.79	4096.6	
263	3298.6	
263.21	4958.8	
263.42	4769.7	
263.63	3297.9	
263.84	3282.9	
264.05	5408.7	
264.26	5695.4	
264.47	3984.7	
264.69	3568.9	
264.9	5527.5	
265.11	5076.9	
265.32	3124.5	
265.53	3222.8	
265.74	4986.8	
265.95	4448.9	
266.16	3397.6	
266.37	3781.2	
266.58	5020.9	
266.79	4766.3	
267	3226.9	
267.21	2990.7	
267.42	4545.1	
267.63	4905.6	
267.84	3355.9	
268.06	2930.6	
268.27	5284.4	
268.48	5494	
268.69	3284.3	
268.9	3860.4	
269.11	5515.2	
269.32	4503.5	
269.53	3382.6	
269.74	3155.2	
269.95	5216.9	
270.16	4412.7	
270.37	3396.9	
270.58	3859.1	
270.79	4782.7	
271	5330.9	
271.21	3553.9	
271.42	3399.6	
271.63	5073.5	
271.84	4546.5	
272.05	2724.5	
272.26	3018	
272.47	4896	
272.68	5120.6	
272.89	3222.1	
273.11	3747.1	
273.32	4757.4	
273.53	5666.7	
273.74	3592.8	
273.95	3513.6	
274.16	5436.7	
274.37	4931.5	
274.58	3731.4	
274.79	2994.1	
275	5108.3	
275.21	5412.1	
275.42	4362.2	
275.63	3765.5	
275.84	5141.1	
276.05	6298.2	
276.26	3470.6	
276.47	3317	
276.68	4823.6	
276.89	5686.5	
277.1	3735.5	
277.31	2965.5	
277.52	5112.4	
277.73	5357.5	
277.94	2920.4	
278.15	3269.9	
278.36	5120.6	
278.57	4666	
278.78	3265.1	
278.99	3621.5	
279.2	4676.9	
279.41	4575.8	
279.62	4229.7	
279.83	3015.3	
280.04	5939.1	
280.25	4456.4	
280.46	4111.6	
280.67	3349.1	
280.88	4653.7	
281.09	5507	
281.3	3585.3	
281.51	4418.2	
281.72	4734.2	
281.93	5295.4	
282.14	3162.7	
282.35	3375.1	
282.56	5323.4	
282.77	5246.9	
282.98	3297.2	
283.19	3964.9	
283.4	6380.8	
283.61	4940.4	
283.82	3076	
284.03	4101.4	
284.24	5057.1	
284.45	5455.1	
284.66	4145.1	
284.87	3990.8	
285.08	5430.5	
285.29	5498.8	
285.5	2863.7	
285.71	3319.8	
285.92	5384.8	
286.12	5991.7	
286.33	4020.8	
286.54	3296.5	
286.75	5257.1	
286.96	4829.1	
287.17	3080.8	
287.38	4028.4	
287.59	4726	
287.8	4656.4	
288.01	3287.7	
288.22	3733.4	
288.43	5238.7	
288.64	4496.7	
288.85	3879.5	
289.06	3721.8	
289.27	5287.9	
289.48	5678.3	
289.69	4171	
289.9	3735.5	
290.11	5474.2	
290.32	4729.4	
290.53	3920.5	
290.74	3661.1	
290.94	5255.8	
291.15	5279.7	
291.36	3170.3	
291.57	3748.5	
291.78	4743.8	
291.99	4478.2	
292.2	3041.9	
292.41	3644.7	
292.62	5337	
292.83	5187.5	
293.04	4460.5	
293.25	3081.5	
293.46	4793.6	
293.67	5365	
293.88	3151.1	
294.09	3078.1	
294.29	4599.7	
294.5	5052.3	
294.71	3420.8	
294.92	3213.9	
295.13	4745.8	
295.34	5821	
295.55	2894.5	
295.76	2906.1	
295.97	5263.3	
296.18	5866.1	
296.39	3013.9	
296.6	3197.6	
296.81	4959.5	
297.01	5219.6	
297.22	3351.2	
297.43	3139.5	
297.64	4701.5	
297.85	4588.8	
298.06	2697.2	
298.27	2917.7	
298.48	4952.7	
298.69	4704.9	
298.9	3468.6	
299.11	3160	
299.31	4582.7	
299.52	4592.9	
299.73	3681.6	
299.94	3587.4	
300.15	4994.3	
300.36	4664.6	
300.57	3633.1	
300.78	3520.5	
300.99	4790.9	
301.2	4946.5	
301.4	3170.3	
301.61	3409.9	
301.82	5211.4	
302.03	5311.7	
302.24	3799.7	
302.45	3026.2	
302.66	5197.1	
302.87	5526.1	
303.08	3169.6	
303.29	4231.1	
303.49	4774.5	
303.7	4902.8	
303.91	2881.5	
304.12	4029	
304.33	4489.8	
304.54	5038	
304.75	3247.4	
304.96	3059	
305.16	5181.4	
305.37	5786.9	
305.58	2772.9	
305.79	2888.3	
306	5216.9	
306.21	4447.5	
306.42	3205.8	
306.63	4689.2	
306.83	4827.7	
307.04	5316.5	
307.25	3468.6	
307.46	3420.1	
307.67	4343.1	
307.88	5206.6	
308.09	3147.7	
308.29	3294.5	
308.5	4943.8	
308.71	5360.9	
308.92	3440.6	
309.13	3074.7	
309.34	4790.2	
309.55	4850.3	
309.75	3915	
309.96	3584.6	
310.17	5255.8	
310.38	4650.9	
310.59	3722.5	
310.8	2988	
311.01	4774.5	
311.21	4861.2	
311.42	3087	
311.63	3153.2	
311.84	4729.4	
312.05	5005.9	
312.26	3508.9	
312.46	3852.2	
312.67	4795.7	
312.88	4526.7	
313.09	3124.5	
313.3	2991.4	
313.51	5596.4	
313.71	5876.3	
313.92	3067.2	
314.13	3199.6	
314.34	5117.9	
314.55	4857.1	
314.76	3934.8	
314.96	3430.3	
315.17	4984.8	
315.38	5160.9	
315.59	3108.1	
315.8	3015.3	
316.01	5580	
316.21	5612.1	
316.42	2983.9	
316.63	3391.4	
316.84	4831.8	
317.05	5435.3	
317.26	3587.4	
317.46	3298.6	
317.67	4886.5	
317.88	5223	
318.09	3848.1	
318.3	2903.3	
318.5	4740.4	
318.71	5147.9	
318.92	4774.5	
319.13	3608.5	
319.34	5341.1	
319.54	5489.2	
319.75	2876	
319.96	2809.8	
320.17	5208	
320.38	5373.2	
320.58	2833.7	
320.79	3331.4	
321	5453.7	
321.21	5496.1	
321.42	3429	
321.62	2835.8	
321.83	4628.4	
322.04	4915.1	
322.25	3269.2	
322.46	3117.7	
322.66	4995.7	
322.87	5155.4	
323.08	3749.8	
323.29	3025.5	
323.5	5813.5	
323.7	4579.3	
323.91	4100.7	
324.12	3708.9	
324.33	5005.2	
324.53	5167.7	
324.74	3605.8	
324.95	3757.3	
325.16	4488.5	
325.37	4780	
325.57	3064.4	
325.78	3149.8	
325.99	5044.1	
326.2	4544.4	
326.4	4296.6	
326.61	2892.4	
326.82	4826.4	
327.03	5021.6	
327.24	4280.9	
327.44	4052.9	
327.65	5169.1	
327.86	4237.9	
328.07	3582.6	
328.27	2996.2	
328.48	5457.8	
328.69	4571.1	
328.9	4338.3	
329.1	3267.9	
329.31	4880.3	
329.52	5612.8	
329.73	3119.1	
329.93	3426.9	
330.14	4976.6	
330.35	5081.7	
330.56	4962.9	
330.76	3749.8	
330.97	4786.8	
331.18	5119.2	
331.39	3417.4	
331.59	2800.9	
331.8	5390.9	
332.01	5494.7	
332.22	3230.3	
332.42	3570.3	
332.63	5044.8	
332.84	4602.5	
333.05	3434.4	
333.25	3205.1	
333.46	4726.7	
333.67	4911.7	
333.88	3211.2	
334.08	3577.1	
334.29	6386.2	
334.5	5451.7	
334.7	2973.7	
334.91	4291.9	
335.12	4575.2	
335.33	5251.7	
335.53	3421.5	
335.74	4877.6	
335.95	4807.9	
336.16	4572.4	
336.36	3367.5	
336.57	3877.5	
336.78	4572.4	
336.98	5431.9	
337.19	4152.6	
337.4	3306.1	
337.61	5879	
337.81	4539	
338.02	3175.7	
338.23	3991.5	
338.43	5557.5	
338.64	4678.9	
338.85	3108.1	
339.05	3995.6	
339.26	5639.4	
339.47	4491.9	
339.68	3145.7	
339.88	4489.1	
340.09	5130.2	
340.3	5341.1	
340.5	3541.6	
340.71	2784.6	
340.92	4552	
341.13	5535.7	
341.33	2982.5	
341.54	3597.6	
341.75	5107.6	
341.95	4752.7	
342.16	3469.3	
342.37	3725.3	
342.57	4577.2	
342.78	4877.6	
342.99	3751.2	
343.19	2828.9	
343.4	5312.4	
343.61	5096.7	
343.81	3296.5	
344.02	3059.7	
344.23	5264.6	
344.43	5587.5	
344.64	3784.6	
344.85	3735.5	
345.06	5098.8	
345.26	5369.8	
345.47	3535.5	
345.68	4118.5	
345.88	4408.6	
346.09	5349.3	
346.3	3634.5	
346.5	2785.9	
346.71	4926	
346.92	4751.3	
347.12	2881.5	
347.33	3558	
347.54	5363.6	
347.74	5686.5	
347.95	3532.1	
348.16	2713.6	
348.36	4747.9	
348.57	4543.8	
348.78	3494.5	
348.98	3705.5	
349.19	4878.9	
349.39	4465.9	
349.6	2890.4	
349.81	3179.8	
350.01	5146.5	
350.22	4625	
350.43	3388	
350.63	3999.7	
350.84	4975.2	
351.05	4687.1	
351.25	3140.9	
351.46	2848	
351.67	5344.5	
351.87	4651.6	
352.08	3311.6	
352.29	3733.4	
352.49	5330.9	
352.7	4995.7	
352.9	3039.9	
353.11	3676.1	
353.32	5810.1	
353.52	4724.7	
353.73	2969.6	
353.94	3757.3	
354.14	5109.7	
354.35	4923.3	
354.55	3112.2	
354.76	3368.2	
354.97	5127.4	
355.17	4882.4	
355.38	2916.3	
355.59	3934.8	
355.79	4608.6	
356	4915.1	
356.2	3318.4	
356.41	3021.4	
356.62	4408.6	
356.82	4840.7	
357.03	3545	
357.24	3217.4	
357.44	4583.4	
357.65	4681.7	
357.85	4214	
358.06	3320.4	
358.27	4336.2	
358.47	4533.5	
358.68	2908.1	
358.88	3559.4	
359.09	5011.4	
359.3	5257.1	
359.5	4096.6	
359.71	3658.4	
359.91	5655.1	
360.12	5127.4	
360.33	3526.6	
360.53	3889.1	
360.74	4626.4	
360.94	4664.6	
361.15	3665.2	
361.36	3048.7	
361.56	5236.7	
361.77	4788.8	
361.97	4035.9	
362.18	3232.4	
362.38	5229.8	
362.59	4500.1	
362.8	3010.5	
363	2889.7	
363.21	4272.1	
363.41	4804.5	
363.62	3392.8	
363.83	4178.5	
364.03	4935.6	
364.24	5586.2	
364.44	4296.6	
364.65	4217.5	
364.85	4741	
365.06	4461.2	
365.27	3130.7	
365.47	3202.3	
365.68	5472.9	
365.88	4693.9	
366.09	3442	
366.29	3166.8	
366.5	4832.5	
366.71	5186.8	
366.91	4168.3	
367.12	3571.7	
367.32	5696.8	
367.53	5093.3	
367.73	3532.7	
367.94	4316.4	
368.14	5064.6	
368.35	5684.5	
368.56	3461.1	
368.76	2968.2	
368.97	5174.5	
369.17	6500.3	
369.38	3095.2	
369.58	3233.1	
369.79	4364.9	
369.99	5475.6	
370.2	4115.1	
370.4	3353.9	
370.61	4900.8	
370.82	5917.3	
371.02	3323.9	
371.23	2861	
371.43	4347.8	
371.64	5373.9	
371.84	3282.2	
372.05	4233.8	
372.25	6399.9	
372.46	5066.7	
372.66	3298.6	
372.87	3267.2	
373.07	5152	
373.28	6429.9	
373.48	4069.3	
373.69	3749.1	
373.9	4722.6	
374.1	4658.4	
374.31	3968.3	
374.51	3615.3	
374.72	5331.5	
374.92	4442	
375.13	4063.9	
375.33	3433.8	
375.54	4937	
375.74	4567	
375.95	3467.2	
376.15	4457.7	
376.36	5003.9	
376.56	4904.9	
376.77	3496.6	
376.97	3886.4	
377.18	5799.8	
377.38	4986.8	
377.59	4094.6	
377.79	3082.2	
378	4830.5	
378.2	5129.5	
378.41	3157.3	
378.61	3095.8	
378.82	5186.1	
379.02	4519.9	
379.23	3268.6	
379.43	4134.2	
379.64	5304.9	
379.84	4887.1	
380.05	3140.9	
380.25	3095.8	
380.46	4995.7	
380.66	4687.1	
380.87	4177.2	
381.07	4486.4	
381.28	5532.9	
381.48	5042.8	
381.69	3128.6	
381.89	3217.4	
382.1	4241.3	
382.3	5132.9	
382.51	4035.2	
382.71	4702.8	
382.91	5018.2	
383.12	5444.2	
383.32	3437.9	
383.53	3639.2	
383.73	4943.8	
383.94	4837.3	
384.14	3604.4	
384.35	2930.6	
384.55	4690.5	
384.76	5003.2	
384.96	3515.7	
385.17	3736.2	
385.37	5057.8	
385.58	4445.5	
385.78	3717.7	
385.98	2928.6	
386.19	4716.5	
386.39	5011.4	
386.6	3245.3	
386.8	3429.7	
387.01	4996.4	
387.21	5052.3	
387.42	3754.6	
387.62	4188.8	
387.83	4547.9	
388.03	4854.4	
388.23	3478.1	
388.44	4103.4	
388.64	4300.7	
388.85	4368.3	
389.05	3676.1	
389.26	4216.8	
389.46	5851.7	
389.67	5274.9	
389.87	3646.7	
390.07	3751.9	
390.28	4654.4	
390.48	4339.6	
390.69	3035.8	
390.89	3336.8	
391.1	4548.5	
391.3	5182	
391.5	4287.1	
391.71	4668.7	
391.91	5056.4	
392.12	5765	
392.32	4308.2	
392.53	3672	
392.73	4650.9	
392.93	4704.2	
393.14	3474.7	
393.34	4050.9	
393.55	5071.5	
393.75	4715.8	
393.95	3476.1	
394.16	3437.2	
394.36	4525.3	
394.57	5111	
394.77	3105.4	
394.98	3386	
395.18	4498	
395.38	4533.5	
395.59	4031.1	
395.79	3192.8	
396	4592.9	
396.2	4922	
396.4	3849.5	
396.61	3740.3	
396.81	4975.9	
397.02	4505.5	
397.22	3986	
397.42	3997	
397.63	5020.3	
397.83	4440	
398.04	3098.6	
398.24	3492.5	
398.44	4810.7	
398.65	4075.5	
398.85	2967.5	
399.05	3076.7	
399.26	4436.6	
399.46	5654.4	
399.67	3352.5	
399.87	3143.6	
400.07	4621.6	
400.28	4881.7	
400.48	3141.6	
400.69	3945.1	
400.89	5376.6	
401.09	5369.8	
401.3	3065.8	
401.5	3941.7	
401.7	5498.8	
401.91	5722.7	
402.11	3373	
402.32	3510.2	
402.52	5096.7	
402.72	5020.9	
402.93	3632.4	
403.13	2895.1	
403.33	5722.7	
403.54	4740.4	
403.74	3528	
403.94	4220.9	
404.15	4789.5	
404.35	5662.6	
404.56	3315	
404.76	4724	
404.96	5105.6	
405.17	4906.9	
405.37	4214	
405.57	3667.9	
405.78	5054.4	
405.98	4691.9	
406.18	3301.3	
406.39	3928	
406.59	5049.6	
406.79	4736.3	
407	3164.8	
407.2	3245.3	
407.4	5143.8	
407.61	5251	
407.81	3210.5	
408.01	4668.7	
408.22	4220.2	
408.42	5683.1	
408.62	3906.2	
408.83	3449.5	
409.03	4647.5	
409.23	4481.6	
409.44	3440.6	
409.64	3604.4	
409.84	5299.5	
410.05	5114.5	
410.25	3542.3	
410.45	3339.6	
410.66	4675.5	
410.86	6603.3	
411.06	3559.4	
411.27	3453.6	
411.47	6258.6	
411.67	4698.7	
411.88	3636.5	
412.08	3744.4	
412.28	5132.9	
412.49	5484.5	
412.69	3391.4	
412.89	3395.5	
413.09	5428.5	
413.3	5242.8	
413.5	3445.4	
413.7	3198.2	
413.91	4748.6	
414.11	5335	
414.31	3254.2	
414.52	3544.4	
414.72	5089.9	
414.92	4976.6	
415.12	3286.3	
415.33	3650.2	
415.53	5210	
415.73	5399.1	
415.94	3936.2	
416.14	3474	
416.34	4559.5	
416.55	4365.6	
416.75	4437.9	
416.95	3887	
417.15	5257.8	
417.36	5844.9	
417.56	4500.8	
417.76	3777.1	
417.97	5489.9	
418.17	5197.7	
418.37	3453.6	
418.57	3448.1	
418.78	5094	
418.98	4864.6	
419.18	4142.4	
419.38	4145.1	
419.59	4900.1	
419.79	4583.4	
419.99	3411.9	
420.2	3713.6	
420.4	5244.8	
420.6	5332.2	
420.8	3298.6	
421.01	3273.3	
421.21	5087.2	
421.41	5193.6	
421.61	3616	
421.82	3417.4	
422.02	4746.5	
422.22	5523.4	
422.42	4008.6	
422.63	3824.9	
422.83	4754	
423.03	5737	
423.23	3822.2	
423.44	3046	
423.64	4849.6	
423.84	4706.9	
424.04	3421.5	
424.25	3153.9	
424.45	5625.8	
424.65	5532.2	
424.85	3003	
425.06	3446	
425.26	5687.2	
425.46	4820.2	
425.66	3857	
425.87	3572.3	
426.07	5367.7	
426.27	5283.1	
426.47	3665.9	
426.67	3219.4	
426.88	5726.1	
427.08	5304.2	
427.28	3851.5	
427.48	3195.5	
427.69	4522.6	
427.89	4985.4	
428.09	3805.8	
428.29	3242.6	
428.5	5438.7	
428.7	5092.6	
428.9	3144.3	
429.1	3519.1	
429.3	5051.7	
429.51	5285.1	
429.71	3358.7	
429.91	3938.9	
430.11	5177.3	
430.31	5393.7	
430.52	3570.3	
430.72	3695.9	
430.92	5599.8	
431.12	5214.1	
431.32	3220.8	
431.53	3673.4	
431.73	4432.5	
431.93	5644.9	
432.13	3207.8	
432.33	3102.7	
432.54	4815.5	
432.74	4990.2	
432.94	3006.4	
433.14	3839.3	
433.34	5319.9	
433.55	4855.1	
433.75	3736.2	
433.95	5102.2	
434.15	5001.8	
434.35	4736.3	
434.56	3217.4	
434.76	2788.7	
434.96	4909	
435.16	5027.1	
435.36	3050.1	
435.56	3837.9	
435.77	4626.4	
435.97	4842.1	
436.17	4351.9	
436.37	3790.8	
436.57	4568.3	
436.78	4536.3	
436.98	3787.4	
437.18	4319.8	
437.38	4972.5	
437.58	4726.7	
437.78	4411.3	
437.99	3304.7	
438.19	5219.6	
438.39	5813.5	
438.59	3344.3	
438.79	2927.2	
438.99	5655.8	
439.2	4735.6	
439.4	3037.8	
439.6	2992.8	
439.8	4900.8	
440	5776	
440.2	3706.8	
440.4	3775.1	
440.61	5218.2	
440.81	5596.4	
441.01	3024.8	
441.21	3648.1	
441.41	5439.4	
441.61	5171.1	
441.81	3844.7	
442.02	4661.9	
442.22	5835.3	
442.42	5244.2	
442.62	2999.6	
442.82	3196.9	
443.02	5412.8	
443.22	4765.6	
443.43	3334.1	
443.63	3016	
443.83	4620.9	
444.03	4562.9	
444.23	3869.3	
444.43	3648.1	
444.63	4820.9	
444.83	5781.4	
445.04	3046	
445.24	4051.6	
445.44	5181.4	
445.64	5200.5	
445.84	3788.1	
446.04	3697.3	
446.24	4678.9	
446.44	5458.5	
446.65	3177.1	
446.85	3398.3	
447.05	4994.3	
447.25	5507	
447.45	3515.7	
447.65	3016.7	
447.85	4985.4	
448.05	4740.4	
448.25	3773	
448.46	3661.1	
448.66	4985.4	
448.86	4685.1	
449.06	3002.3	
449.26	3760.8	
449.46	5205.9	
449.66	4575.8	
449.86	3411.9	
450.06	3344.3	
450.26	4586.1	
450.47	5046.2	
450.67	3623.5	
450.87	3793.5	
451.07	5209.3	
451.27	4903.5	
451.47	3063.1	
451.67	3380.5	
451.87	4613.4	
452.07	5611.4	
452.27	3181.2	
452.47	3223.5	
452.67	4954.7	
452.88	5242.8	
453.08	2839.2	
453.28	4222.2	
453.48	5779.4	
453.68	4870.1	
453.88	3093.1	
454.08	3262.4	
454.28	5074.2	
454.48	4826.4	
454.68	3678.2	
454.88	4020.8	
455.08	5251	
455.28	4886.5	
455.48	3061.7	
455.68	3435.1	
455.89	5494	
456.09	5146.5	
456.29	3241.3	
456.49	3250.1	
456.69	5291.3	
456.89	4758.8	
457.09	3523.2	
457.29	3790.8	
457.49	4991.6	
457.69	5021.6	
457.89	3334.1	
458.09	2912.9	
458.29	4752	
458.49	5349.3	
458.69	3604.4	
458.89	3209.8	
459.09	5388.9	
459.29	5499.5	
459.49	3251.5	
459.69	3856.3	
459.9	5100.8	
460.1	4670.1	
460.3	3231.7	
460.5	3002.3	
460.7	5068	
460.9	4698.7	
461.1	2818	
461.3	3663.8	
461.5	5384.8	
461.7	5179.3	
461.9	2913.6	
462.1	3327.9	
462.3	4709.6	
462.5	5147.9	
462.7	3006.4	
462.9	3049.4	
463.1	5936.4	
463.3	5627.1	
463.5	3170.3	
463.7	3765.5	
463.9	4852.3	
464.1	5059.2	
464.3	3103.4	
464.5	3361.4	
464.7	5202.5	
464.9	4825.7	
465.1	4289.8	
465.3	3562.8	
465.5	5468.8	
465.7	5403.9	
465.9	3703.4	
466.1	3679.5	
466.3	5141.8	
466.5	5141.8	
466.7	4095.9	
466.9	3414	
467.1	5132.2	
467.3	5749.3	
467.5	4047.5	
467.7	3235.1	
467.9	5824.4	
468.1	6588.3	
468.3	3861.8	
468.5	4106.9	
468.7	4971.1	
468.9	4889.9	
469.1	3393.5	
469.3	3908.9	
469.5	6477.7	
469.7	4616.1	
469.9	3818.1	
470.1	3219.4	
470.3	4999.1	
470.5	4956.1	
470.7	4171	
470.9	3338.9	
471.1	4727.4	
471.3	5218.2	
471.5	3233.7	
471.69	4638	
471.89	4765.6	
472.09	4374.5	
472.29	3726.6	
472.49	4138.9	
472.69	4524.6	
472.89	5074.9	
473.09	3014.6	
473.29	3315.7	
473.49	4719.9	
473.69	4773.8	
473.89	3962.1	
474.09	3359.4	
474.29	5813.5	
474.49	5485.1	
474.69	3904.8	
474.89	3506.1	
475.09	4848.9	
475.29	4764.9	
475.49	3074.7	
475.69	3226.2	
475.88	6124.8	
476.08	5216.9	
476.28	3038.5	
476.48	3371	
476.68	5541.8	
476.88	5322	
477.08	3343.7	
477.28	3478.1	
477.48	5031.2	
477.68	5433.3	
477.88	3123.2	
478.08	3433.8	
478.28	5677	
478.48	5018.2	
478.67	3377.8	
478.87	3082.2	
479.07	5477.6	
479.27	5184.1	
479.47	3605.1	
479.67	3578.5	
479.87	5319.9	
480.07	5759.6	
480.27	3071.3	
480.47	4278.2	
480.67	5171.1	
480.87	5563.6	
481.06	3311.6	
481.26	3941.7	
481.46	5167.7	
481.66	5029.8	
481.86	3612.6	
482.06	4309.6	
482.26	4889.2	
482.46	5560.9	
482.66	3543.7	
482.86	3252.9	
483.05	5160.9	
483.25	4641.4	
483.45	5510.4	
483.65	3471.3	
483.85	4756.1	
484.05	4956.1	
484.25	3870	
484.45	4060.4	
484.65	5593	
484.84	5563	
485.04	3445.4	
485.24	3391.4	
485.44	5841.5	
485.64	4545.8	
485.84	2882.2	
486.04	3833.1	
486.24	4799.1	
486.44	5071.5	
486.63	2816.6	
486.83	3398.9	
487.03	4723.3	
487.23	4793.6	
487.43	2896.5	
487.63	4631.8	
487.83	4831.8	
488.02	5608	
488.22	3465.8	
488.42	3997.6	
488.62	5467.4	
488.82	4625	
489.02	3293.8	
489.22	3238.5	
489.41	5382.1	
489.61	5105.6	
489.81	3019.4	
490.01	3082.9	
490.21	5244.2	
490.41	5829.2	
490.61	3058.3	
490.8	3125.9	
491	4960.2	
491.2	4616.8	
491.4	3627	
491.6	3025.5	
491.8	5024.3	
491.99	4992.9	
492.19	2904	
492.39	3095.8	
492.59	5330.2	
492.79	5352	
492.99	3671.3	
493.18	3056.3	
493.38	5419.6	
493.58	5825.8	
493.78	3470.6	
493.98	3126.6	
494.18	5044.1	
494.37	4546.5	
494.57	3525.2	
494.77	3415.3	
494.97	5036.6	
495.17	5218.2	
495.37	3110.9	
495.56	3323.2	
495.76	5336.3	
495.96	5048.9	
496.16	3997.6	
496.36	3143.6	
496.55	5194.3	
496.75	4790.9	
496.95	3428.3	
497.15	3286.3	
497.35	5192.3	
497.54	5034.6	
497.74	3226.2	
497.94	4414.1	
498.14	5612.1	
498.34	5414.8	
498.53	2847.4	
498.73	3500	
498.93	4549.9	
499.13	5096.7	
499.33	3241.3	
499.52	3585.3	
499.72	5010.7	
499.92	5254.4	
500.12	3018	
500.32	3224.2	
500.51	5190.2	
500.71	4913.1	
500.91	3788.7	
501.11	3485.6	
501.31	5076.9	
501.5	5415.5	
501.7	3954.6	
501.9	3231.7	
502.1	4946.5	
502.29	5218.9	
502.49	3508.9	
502.69	3960.1	
502.89	5108.3	
503.09	5129.5	
503.28	2920.4	
503.48	3043.3	
503.68	4717.8	
503.88	4594.3	
504.07	3774.4	
504.27	3401.7	
504.47	4869.4	
504.67	5059.8	
504.86	3698.6	
505.06	3484.3	
505.26	4835.9	
505.46	6107.7	
505.65	3367.5	
505.85	3633.1	
506.05	4816.1	
506.25	5158.2	
506.44	3013.9	
506.64	3790.8	
506.84	4771.1	
507.04	5420.3	
507.23	3253.5	
507.43	3581.2	
507.63	6242.9	
507.83	4845.5	
508.02	3638.6	
508.22	3301.3	
508.42	6475.7	
508.62	4711	
508.81	3549.1	
509.01	3963.5	
509.21	4739.7	
509.4	4941.7	
509.6	3654.3	
509.8	3205.8	
510	4941.1	
510.19	5838.1	
510.39	3181.9	
510.59	3254.9	
510.79	4734.9	
510.98	5717.9	
511.18	3345	
511.38	3321.1	
511.57	5433.9	
511.77	5076.9	
511.97	3945.1	
512.17	3236.5	
512.36	5336.3	
512.56	5238.7	
512.76	3197.6	
512.95	3044.6	
513.15	5446.9	
513.35	4412.7	
513.55	3792.2	
513.74	3229.6	
513.94	5345.9	
514.14	4862.6	
514.33	3887	
514.53	3646.1	
514.73	4872.8	
514.92	4954.7	
515.12	3267.2	
515.32	3119.7	
515.51	5019.6	
515.71	5376.6	
515.91	4392.2	
516.11	3117.7	
516.3	6242.2	
516.5	4749.2	
516.7	3604.4	
516.89	4025.6	
517.09	4898.1	
517.29	4820.9	
517.48	3853.6	
517.68	3332.7	
517.88	4536.9	
518.07	5076.9	
518.27	3708.2	
518.47	3038.5	
518.66	5531.6	
518.86	4579.9	
519.06	2972.3	
519.25	3253.5	
519.45	4728.1	
519.65	5799.8	
519.84	3708.2	
520.04	4240.7	
520.24	6166.4	
520.43	5212.1	
520.63	3553.9	
520.83	3379.1	
521.02	4765.6	
521.22	5166.3	
521.42	3717.1	
521.61	4145.8	
521.81	4902.2	
522.01	5039.4	
522.2	3560.7	
522.4	3509.5	
522.6	5359.5	
522.79	4410.6	
522.99	3500.7	
523.18	2893.1	
523.38	5049.6	
523.58	4980	
523.77	4257.7	
523.97	2849.4	
524.17	6354.2	
524.36	5709.1	
524.56	3792.2	
524.76	3469.3	
524.95	4827.1	
525.15	4672.8	
525.34	3297.9	
525.54	3275.4	
525.74	5058.5	
525.93	4367	
526.13	4126	
526.33	3227.6	
526.52	5264	
526.72	4844.1	
526.91	4089.8	
527.11	3545	
527.31	5197.7	
527.5	5488.6	
527.7	3424.2	
527.89	2759.3	
528.09	4484.4	
528.29	4747.2	
528.48	3715	
528.68	3492.5	
528.87	5074.9	
529.07	5176.6	
529.27	3386.7	
529.46	3060.3	
529.66	4873.5	
529.85	5109	
530.05	2947.7	
530.25	3476.8	
530.44	5911.1	
530.64	4807.9	
530.83	3229.6	
531.03	3353.9	
531.23	5160.9	
531.42	4984.1	
531.62	3872.7	
531.81	3244.7	
532.01	5185.5	
532.21	5403.2	
532.4	3015.3	
532.6	3221.5	
532.79	5808.7	
532.99	5002.5	
533.18	3228.3	
533.38	4013.3	
533.58	4711.7	
533.77	5214.1	
533.97	3162.7	
534.16	3755.3	
534.36	5373.9	
534.55	4652.3	
534.75	3835.8	
534.95	3194.8	
535.14	5245.5	
535.34	4657.8	
535.53	2970.9	
535.73	4438.6	
535.92	5707	
536.12	4739	
536.31	3022.8	
536.51	3910.3	
536.71	5118.6	
536.9	4781.3	
537.1	3188	
537.29	3320.4	
537.49	5385.5	
537.68	4698	
537.88	3602.4	
538.07	2956.6	
538.27	4782	
538.46	5549.3	
538.66	2880.1	
538.86	3168.2	
539.05	4848.9	
539.25	5063.3	
539.44	3408.5	
539.64	3169.6	
539.83	4798.4	
540.03	5522.7	
540.22	3068.5	
540.42	3171.6	
540.61	5053	
540.81	5005.9	
541	3556	
541.2	3918.4	
541.39	4681.7	
541.59	4883.7	
541.78	3708.2	
541.98	3147.7	
542.18	4515.8	
542.37	4481	
542.57	3436.5	
542.76	3733.4	
542.96	4573.8	
543.15	5068.7	
543.35	3553.9	
543.54	3073.3	
543.74	5330.9	
543.93	4988.9	
544.13	3528.7	
544.32	4408.6	
544.52	5307	
544.71	4719.9	
544.91	2901.3	
545.1	3821.5	
545.3	4750.6	
545.49	5170.4	
545.69	2917	
545.88	3368.2	
546.08	5963	
546.27	5581.4	
546.47	3736.2	
546.66	3243.3	
546.86	5388.9	
547.05	5788.2	
547.24	3407.8	
547.44	3239.2	
547.63	4706.2	
547.83	5444.9	
548.02	3578.5	
548.22	3708.2	
548.41	4562.2	
548.61	5501.5	
548.8	3249.4	
549	3243.3	
549.19	5132.9	
549.39	5292	
549.58	3054.9	
549.78	3481.5	
549.97	5352	
550.17	4981.3	
550.36	4222.2	
550.55	4922	
550.75	4990.2	
550.94	5667.4	
551.14	3231	
551.33	3573	
551.53	4567	
551.72	5214.8	
551.92	3572.3	
552.11	3419.4	
552.31	5347.9	
552.5	5292	
552.69	4795.7	
552.89	3174.4	
553.08	5289.9	
553.28	5105.6	
553.47	3441.3	
553.67	4336.2	
553.86	5788.2	
554.06	4560.8	
554.25	2968.2	
554.44	3312.2	
554.64	6476.4	
554.83	6004.6	
555.03	3272	
555.22	3601.7	
555.42	5536.3	
555.61	5309	
555.8	3472.7	
556	3731.4	
556.19	4681.7	
556.39	5595.1	
556.58	3508.2	
556.78	3588.7	
556.97	5252.4	
557.16	4919.2	
557.36	4471.4	
557.55	3252.2	
557.75	4556.7	
557.94	5828.5	
558.13	3343	
558.33	3127.9	
558.52	5671.5	
558.72	4749.2	
558.91	3240.6	
559.1	3467.9	
559.3	4599.1	
559.49	4505.5	
559.69	3037.1	
559.88	3700.7	
560.07	5229.8	
560.27	5595.1	
560.46	3852.2	
560.66	4024.3	
560.85	5111	
561.04	4533.5	
561.24	3266.5	
561.43	3491.1	
561.63	4655.7	
561.82	4910.3	
562.01	4321.9	
562.21	3618.1	
562.4	5229.1	
562.59	5910.4	
562.79	3606.5	
562.98	3265.8	
563.18	5148.6	
563.37	6256.5	
563.56	3807.2	
563.76	3250.8	
563.95	4736.3	
564.14	4687.1	
564.34	3452.9	
564.53	3228.3	
564.73	5130.8	
564.92	5316.5	
565.11	3534.1	
565.31	3063.1	
565.5	5554.8	
565.69	4709	
565.89	3302	
566.08	3448.1	
566.27	5487.9	
566.47	5670.8	
566.66	4007.2	
566.85	2989.4	
567.05	5181.4	
567.24	4807.9	
567.44	3153.9	
567.63	4302.8	
567.82	5352.7	
568.02	5079	
568.21	3190.7	
568.4	3469.3	
568.6	5043.5	
568.79	4975.2	
568.98	3100.6	
569.18	3115	
569.37	4942.4	
569.56	6427.2	
569.76	3427.6	
569.95	4153.3	
570.14	5276.9	
570.34	5126.1	
570.53	3127.2	
570.72	3101.3	
570.91	5618.9	
571.11	4971.1	
571.3	3505.4	
571.49	4235.2	
571.69	5023	
571.88	4687.1	
572.07	3762.8	
572.27	3882.3	
572.46	4568.3	
572.65	5353.4	
572.85	3241.9	
573.04	3487.7	
573.23	5579.3	
573.43	5018.9	
573.62	3076.7	
573.81	3467.9	
574	5025.7	
574.2	4874.8	
574.39	3270.6	
574.58	3396.2	
574.78	5533.6	
574.97	4980	
575.16	3609.2	
575.36	3765.5	
575.55	5296.7	
575.74	5290.6	
575.93	2946.3	
576.13	3732.1	
576.32	4845.5	
576.51	5223.7	
576.71	3287	
576.9	4263.2	
577.09	5473.5	
577.28	5123.3	
577.48	3589.4	
577.67	2914.3	
577.86	4820.2	
578.05	5053	
578.25	3366.2	
578.44	3421.5	
578.63	4952.7	
578.83	5748	
579.02	2966.8	
579.21	4044.7	
579.4	5091.9	
579.6	4840.7	
579.79	3491.1	
579.98	5115.8	
580.17	5287.9	
580.37	5351.3	
580.56	3108.8	
580.75	3620.8	
580.94	5600.5	
581.14	5655.1	
581.33	3969	
581.52	3197.6	
581.71	5128.8	
581.91	5737.7	
582.1	2961.4	
582.29	3370.3	
582.48	4866.7	
582.68	4791.6	
582.87	3677.5	
583.06	3452.9	
583.25	5165	
583.45	4624.3	
583.64	3844	
583.83	4412	
584.02	4884.4	
584.21	5076.9	
584.41	3895.2	
584.6	3370.3	
584.79	4928.8	
584.98	5400.5	
585.18	3029.6	
585.37	3046	
585.56	4625	
585.75	5171.8	
585.94	3192.1	
586.14	3663.8	
586.33	5688.6	
586.52	4919.9	
586.71	3586	
586.91	3386.7	
587.1	4572.4	
587.29	5301.5	
587.48	3393.5	
587.67	3295.2	
587.87	5305.6	
588.06	5277.6	
588.25	4336.9	
588.44	3823.6	
588.63	5023	
588.83	5468.1	
589.02	3474	
589.21	3390.8	
589.4	5039.4	
589.59	4960.2	
589.78	3022.1	
589.98	3237.2	
590.17	4762.9	
590.36	5160.2	
590.55	2880.1	
590.74	3645.4	
590.94	6199.9	
591.13	5193	
591.32	3336.8	
591.51	3040.6	
591.7	5475.6	
591.89	5113.8	
592.09	3124.5	
592.28	3416.7	
592.47	4521.2	
592.66	5965.1	
592.85	3050.1	
593.05	3216.7	
593.24	5016.8	
593.43	5603.9	
593.62	3260.4	
593.81	3580.5	
594	5033.9	
594.19	5223.7	
594.39	3231.7	
594.58	3175.7	
594.77	5289.9	
594.96	5692.7	
595.15	3196.2	
595.34	3667.2	
595.54	5287.2	
595.73	4687.1	
595.92	2815.3	
596.11	3593.5	
596.3	5668.1	
596.49	4750.6	
596.68	3515	
596.88	3761.4	
597.07	5461.2	
597.26	4642.7	
597.45	3102	
597.64	4072.7	
597.83	4776.5	
598.02	5246.2	
598.22	3177.8	
598.41	3685	
598.6	5096.7	
598.79	4728.1	
598.98	3238.5	
599.17	3898.6	
599.36	5147.9	
599.55	6018.3	
599.74	4704.9	
599.94	4530.8	
600.13	5535	
600.32	4672.1	
600.51	2990	
600.7	3082.9	
600.89	6086.6	
601.08	6036.7	
601.27	2960	
601.47	3663.8	
601.66	5524.7	
601.85	5927.5	
602.04	3428.3	
602.23	3658.4	
602.42	4792.9	
602.61	5274.9	
602.8	3392.8	
602.99	3342.3	
603.18	5060.5	
603.37	5216.9	
603.57	3709.6	
603.76	4192.2	
603.95	5810.8	
604.14	5368.4	
604.33	3322.5	
604.52	3514.3	
604.71	5100.1	
604.9	4858.5	
605.09	4048.2	
605.28	3790.8	
605.47	5607.3	
605.66	5367.7	
605.86	3684.3	
606.05	3346.4	
606.24	5685.2	
606.43	4612.7	
606.62	3553.2	
606.81	4162.2	
607	5580	
607.19	4958.1	
607.38	3177.1	
607.57	3306.1	
607.76	4877.6	
607.95	4490.5	
608.14	3690.4	
608.33	4136.2	
608.52	4844.8	
608.72	5526.8	
608.91	3052.2	
609.1	3021.4	
609.29	4965.6	
609.48	4638.6	
609.67	3811.3	
609.86	3110.2	
610.05	4743.8	
610.24	4920.6	
610.43	3060.3	
610.62	2830.3	
610.81	5818.3	
611	5575.3	
611.19	3094.5	
611.38	3704.1	
611.57	5206.6	
611.76	6141.2	
611.95	3004.4	
612.14	2983.2	
612.33	5004.6	
612.52	4748.6	
612.71	3401.7	
612.9	2882.2	
613.09	4414.7	
613.28	6174.6	
613.47	3346.4	
613.66	3931.4	
613.85	5126.1	
614.04	4766.3	
614.24	3264.5	
614.43	2770.9	
614.62	5193	
614.81	5264	
615	3679.5	
615.19	3667.2	
615.38	4666.6	
615.57	4984.8	
615.76	3598.3	
615.95	4341	
616.14	5238.7	
616.33	4937.7	
616.52	3801	
616.71	3880.9	
616.9	5225.1	
617.09	5042.1	
617.28	3305.4	
617.47	4201.1	
617.66	4572.4	
617.85	4585.4	
618.04	3929.4	
618.22	3516.4	
618.41	4726.7	
618.6	5390.3	
618.79	3437.2	
618.98	3160	
619.17	5608.7	
619.36	4339.6	
619.55	3286.3	
619.74	3375.1	
619.93	5013.4	
620.12	4543.1	
620.31	3718.4	
620.5	3809.9	
620.69	5792.3	
620.88	5731.6	
621.07	4289.8	
621.26	3568.9	
621.45	5113.1	
621.64	5120.6	
621.83	3650.2	
622.02	3058.3	
622.21	5186.1	
622.4	4945.8	
622.59	4002.4	
622.78	3928.7	
622.97	4677.6	
623.16	5400.5	
623.35	3609.9	
623.54	2950.4	
623.72	4805.9	
623.91	4914.4	
624.1	3778.5	
624.29	2891.7	
624.48	5728.2	
624.67	5224.4	
624.86	3610.6	
625.05	3034.4	
625.24	5849	
625.43	4696.7	
625.62	5033.2	
625.81	3175	
626	5311.7	
626.19	4810	
626.38	3703.4	
626.56	3286.3	
626.75	4605.9	
626.94	5198.4	
627.13	3799	
627.32	2907.4	
627.51	5209.3	
627.7	6128.2	
627.89	2914.3	
628.08	3776.5	
628.27	4629.8	
628.46	4824.3	
628.65	3184.6	
628.83	2913.6	
629.02	5186.1	
629.21	4641.4	
629.4	3444.7	
629.59	3573.7	
629.78	4558.8	
629.97	5287.2	
630.16	3599	
630.35	3261.7	
630.54	5687.2	
630.72	5457.2	
630.91	3240.6	
631.1	3656.3	
631.29	5040.1	
631.48	5073.5	
631.67	3738.9	
631.86	3304.7	
632.05	4752.7	
632.24	4847.5	
632.42	3074.7	
632.61	3568.9	
632.8	4801.8	
632.99	4521.2	
633.18	3447.4	
633.37	3828.3	
633.56	5088.5	
633.75	4883.7	
633.93	3480.2	
634.12	3242.6	
634.31	5752.1	
634.5	5274.2	
634.69	3296.5	
634.88	3723.2	
635.07	4899.4	
635.25	5345.2	
635.44	4060.4	
635.63	4104.1	
635.82	4835.3	
636.01	4373.8	
636.2	4022.2	
636.39	3577.1	
636.57	5629.9	
636.76	5353.4	
636.95	3168.9	
637.14	4248.9	
637.33	5111	
637.52	5760.3	
637.7	3031.7	
637.89	3786	
638.08	4808.6	
638.27	5949.3	
638.46	3830.4	
638.65	4136.9	
638.83	5917.9	
639.02	4719.9	
639.21	3771	
639.4	4186.7	
639.59	5052.3	
639.78	4809.3	
639.96	3240.6	
640.15	3284.9	
640.34	5053.7	
640.53	5107.6	
640.72	3097.2	
640.91	3333.4	
641.09	4666.6	
641.28	5614.8	
641.47	3375.7	
641.66	3976.5	
641.85	5107.6	
642.03	5356.1	
642.22	3788.1	
642.41	3515	
642.6	4709.6	
642.79	4343.1	
642.97	3386	
643.16	3863.8	
643.35	4723.3	
643.54	4630.5	
643.73	3265.8	
643.91	3910.9	
644.1	4589.5	
644.29	4941.7	
644.48	3395.5	
644.67	3418.1	
644.85	4734.9	
645.04	5070.1	
645.23	3149.8	
645.42	3418.7	
645.6	4721.3	
645.79	5626.5	
645.98	3406.5	
646.17	2792.1	
646.36	4635.2	
646.54	5040.1	
646.73	4188.1	
646.92	3227.6	
647.11	4780.6	
647.29	5569.1	
647.48	3257.6	
647.67	3176.4	
647.86	5834.7	
648.05	5789.6	
648.23	3550.5	
648.42	4518.5	
648.61	5301.5	
648.8	5111.7	
648.98	3289	
649.17	3538.9	
649.36	4804.5	
649.55	4451.6	
649.73	3263.1	
649.92	3895.2	
650.11	4688.5	
650.3	4955.4	
650.48	3396.2	
650.67	3203	
650.86	5227.8	
651.05	4436.6	
651.23	3372.3	
651.42	3408.5	
651.61	4833.9	
651.79	4859.8	
651.98	3568.9	
652.17	3276.1	
652.36	5206.6	
652.54	4516.5	
652.73	3310.9	
652.92	3281.5	
653.11	5201.2	
653.29	5270.8	
653.48	2864.4	
653.67	3564.8	
653.85	5029.1	
654.04	5857.9	
654.23	3786.7	
654.42	3451.5	
654.6	4812.7	
654.79	5317.9	
654.98	3123.8	
655.16	3519.8	
655.35	4614.8	
655.54	4440	
655.73	3210.5	
655.91	3147.7	
656.1	5339.7	
656.29	4446.1	
656.47	2918.4	
656.66	4123.2	
656.85	4636.6	
657.03	4689.8	
657.22	3152.5	
657.41	3269.9	
657.59	4703.5	
657.78	4592.2	
657.97	2999.6	
658.16	3531.4	
658.34	5193	
658.53	5475.6	
658.72	4153.3	
658.9	4584	
659.09	4854.4	
659.28	4849.6	
659.46	3244.7	
659.65	3145.7	
659.84	4620.9	
660.02	5036	
660.21	3192.8	
660.4	3118.4	
660.58	5309.7	
660.77	4819.6	
660.96	3608.5	
661.14	2949.8	
661.33	5710.4	
661.52	5636.7	
661.7	2856.9	
661.89	5689.9	
662.08	4606.6	
662.26	4196.3	
662.45	3126.6	
662.64	3216	
662.82	5122	
663.01	4431.1	
663.2	3201.7	
663.38	3778.5	
663.57	5061.2	
663.75	5015.5	
663.94	3403	
664.13	4423.6	
664.31	4554.7	
664.5	5099.4	
664.69	3806.5	
664.87	3999	
665.06	4434.5	
665.25	4875.5	
665.43	4234.5	
665.62	4281.6	
665.8	5119.2	
665.99	4725.3	
666.18	3442.6	
666.36	3525.2	
666.55	5158.2	
666.74	5042.8	
666.92	3250.8	
667.11	4477.5	
667.29	4757.4	
667.48	5158.8	
667.67	4128.7	
667.85	3406.5	
668.04	4723.3	
668.22	4700.8	
668.41	3553.2	
668.6	3742.3	
668.78	4612.7	
668.97	4770.4	
669.15	3795.6	
669.34	3080.8	
669.53	4588.8	
669.71	4855.1	
669.9	3202.3	
670.08	3644	
670.27	4498.7	
670.46	5071.5	
670.64	3840.6	
670.83	4009.9	
671.01	4511.7	
671.2	4923.3	
671.38	3243.3	
671.57	3212.6	
671.76	5477	
671.94	5883.8	
672.13	3127.9	
672.31	3929.4	
672.5	5119.2	
672.69	4605.2	
672.87	3227.6	
673.06	3480.9	
673.24	5054.4	
673.43	4673.5	
673.61	3764.2	
673.8	3443.3	
673.98	5142.4	
674.17	5225.7	
674.36	3893.2	
674.54	3822.2	
674.73	4866	
674.91	5170.4	
675.1	3543.7	
675.28	3268.6	
675.47	4773.8	
675.65	5229.1	
675.84	3458.3	
676.03	3690.4	
676.21	4675.5	
676.4	4282.3	
676.58	4041.3	
676.77	3883.6	
676.95	5771.2	
677.14	4661.2	
677.32	3209.8	
677.51	3132.7	
677.69	5195.7	
677.88	4442.7	
678.06	3153.2	
678.25	3250.8	
678.44	4785.4	
678.62	4629.1	
678.81	3056.9	
678.99	3689.8	
679.18	5395	
679.36	5061.9	
679.55	3366.2	
679.73	3856.3	
679.92	5060.5	
680.1	4679.6	
680.29	4351.9	
680.47	3404.4	
680.66	4656.4	
680.84	5279	
681.03	2994.1	
681.21	3724.6	
681.4	4561.5	
681.58	4569.7	
681.77	3284.3	
681.95	3233.1	
682.14	5337	
682.32	5495.4	
682.51	3962.1	
682.69	3126.6	
682.88	4588.8	
683.06	5079.6	
683.25	3737.5	
683.43	4074.1	
683.62	4839.4	
683.8	5147.2	
683.99	4194.9	
684.17	3601.7	
684.36	5823.7	
684.54	4843.4	
684.73	3173	
684.91	3336.8	
685.1	5171.1	
685.28	4753.3	
685.46	3814	
685.65	3902.7	
685.83	5373.9	
686.02	4929.5	
686.2	3425.6	
686.39	3532.1	
686.57	4769.7	
686.76	5897.5	
686.94	3381.9	
687.13	3523.2	
687.31	5233.2	
687.5	4870.1	
687.68	3108.8	
687.86	4004.5	
688.05	6252.4	
688.23	4426.3	
688.42	4007.9	
688.6	3352.5	
688.79	4657.1	
688.97	4817.5	
689.16	3639.9	
689.34	2951.1	
689.52	5260.5	
689.71	5495.4	
689.89	3941.7	
690.08	3316.3	
690.26	4953.4	
690.45	4784.7	
690.63	3999.7	
690.81	3494.5	
691	4855.7	
691.18	4663.2	
691.37	3620.8	
691.55	5366.4	
691.74	4639.3	
691.92	6287.9	
692.1	3622.2	
692.29	3216.7	
692.47	4863.2	
692.66	4389.5	
692.84	3336.1	
693.02	3804.4	
693.21	4369	
693.39	4828.4	
693.58	3825.6	
693.76	3308.8	
693.94	5670.8	
694.13	5450.3	
694.31	3307.5	
694.5	4122.6	
694.68	4623.6	
694.86	4857.1	
695.05	3549.8	
695.23	3880.9	
695.42	5078.3	
695.6	6835.4	
695.78	3939.6	
695.97	3368.9	
696.15	5085.1	
696.34	4697.4	
696.52	3149.8	
696.7	3826.3	
696.89	5016.8	
697.07	4537.6	
697.25	3778.5	
697.44	4964.3	
697.62	4960.2	
697.81	5261.2	
697.99	3577.8	
698.17	3841.3	
698.36	4586.8	
698.54	5057.8	
698.72	3779.2	
698.91	3127.2	
699.09	4698	
699.28	4581.3	
699.46	3529.3	
699.64	3470.6	
699.83	4592.9	
700.01	5494	
700.19	4137.6	
700.38	2872.6	
700.56	5476.3	
700.74	4630.5	
700.93	3133.4	
701.11	3760.8	
701.29	5029.1	
701.48	5772.5	
701.66	3271.3	
701.84	3351.2	
702.03	4674.8	
702.21	5221	
702.39	3011.9	
702.58	3394.8	
702.76	4977.9	
702.94	5006.6	
703.13	3012.6	
703.31	4906.9	
703.49	4521.2	
703.68	5167	
703.86	3148.4	
704.04	3859.1	
704.23	4875.5	
704.41	5113.8	
704.59	3300	
704.78	4198.3	
704.96	5709.1	
705.14	5143.1	
705.33	3050.8	
705.51	3746.4	
705.69	4696	
705.87	5390.3	
706.06	3918.4	
706.24	3062.4	
706.42	5012.1	
706.61	5116.5	
706.79	3961.5	
706.97	3088.3	
707.16	4547.9	
707.34	5000.5	
707.52	3898.6	
707.7	3237.2	
707.89	4556.7	
708.07	4491.9	
708.25	3943	
708.44	4117.8	
708.62	4597	
708.8	5471.5	
708.98	4086.4	
709.17	3323.9	
709.35	4935.6	
709.53	4925.4	
709.72	3066.5	
709.9	3512.9	
710.08	5116.5	
710.26	5202.5	
710.45	4384	
710.63	3403.7	
710.81	4864.6	
710.99	4890.5	
711.18	3880.2	
711.36	3518.4	
711.54	4797	
711.72	5350	
711.91	3588.7	
712.09	3209.8	
712.27	4969.1	
712.45	5755.5	
712.64	3848.1	
712.82	3057.6	
713	4646.2	
713.18	4825.7	
713.37	3254.9	
713.55	4331.5	
713.73	5493.3	
713.91	4531.5	
714.1	3673.4	
714.28	3325.2	
714.46	5373.9	
714.64	4818.9	
714.83	3059	
715.01	3695.9	
715.19	5006.6	
715.37	4528.1	
715.55	3515.7	
715.74	3787.4	
715.92	5743.9	
716.1	4177.9	
716.28	4624.3	
716.47	3917.8	
716.65	4823.6	
716.83	4810.7	
717.01	3712.3	
717.19	3818.8	
717.38	6427.9	
717.56	4610	
717.74	3885.7	
717.92	3343.7	
718.1	5532.2	
718.29	4842.1	
718.47	2917	
718.65	3412.6	
718.83	5279	
719.01	5231.9	
719.2	2765.4	
719.38	3577.8	
719.56	4915.8	
719.74	6173.9	
719.92	3280.8	
720.11	4126	
720.29	5052.3	
720.47	4477.5	
720.65	3093.1	
720.83	3682.9	
721.02	4817.5	
721.2	4618.9	
721.38	3828.3	
721.56	3261	
721.74	4298	
721.92	4410	
722.11	4165.6	
722.29	4016.1	
722.47	5341.8	
722.65	4744.5	
722.83	3297.2	
723.01	3990.1	
723.2	4802.5	
723.38	5020.9	
723.56	2869.9	
723.74	3762.8	
723.92	4379.2	
724.1	5338.4	
724.29	3250.1	
724.47	4078.9	
724.65	4569	
724.83	4430.4	
725.01	3174.4	
725.19	3810.6	
725.37	4448.2	
725.56	4448.2	
725.74	3083.6	
725.92	3218	
726.1	4435.9	
726.28	4721.3	
726.46	3540.9	
726.64	3368.9	
726.83	4762.9	
727.01	4881.7	
727.19	3139.5	
727.37	3612.6	
727.55	4797	
727.73	5197.7	
727.91	3033	
728.09	2977.1	
728.28	5184.1	
728.46	5470.1	
728.64	3719.8	
728.82	3702.7	
729	5945.9	
729.18	5397.1	
729.36	3000.3	
729.54	4872.1	
729.72	6107	
729.91	4728.1	
730.09	4488.5	
730.27	3461.1	
730.45	4730.1	
730.63	5151.3	
730.81	3901.4	
730.99	3200.3	
731.17	5492	
731.35	4490.5	
731.53	3564.1	
731.71	3367.5	
731.9	5308.3	
732.08	5490.6	
732.26	3519.1	
732.44	3287	
732.62	5535	
732.8	5109.7	
732.98	3908.9	
733.16	3151.8	
733.34	5142.4	
733.52	4130.8	
733.7	3571.7	
733.88	3725.3	
734.07	5064.6	
734.25	4792.2	
734.43	3108.1	
734.61	4330.8	
734.79	6003.3	
734.97	4759.5	
735.15	3263.1	
735.33	3493.8	
735.51	5023.7	
735.69	4785.4	
735.87	4305.5	
736.05	3669.3	
736.23	4852.3	
736.41	4695.3	
736.59	3525.9	
736.77	3610.6	
736.95	5237.3	
737.13	4742.4	
737.32	3265.8	
737.5	3390.1	
737.68	5641.5	
737.86	4674.1	
738.04	3087	
738.22	4598.4	
738.4	4657.8	
738.58	4853	
738.76	3607.2	
738.94	2894.5	
739.12	4705.5	
739.3	4625	
739.48	4115.7	
739.66	3880.2	
739.84	4874.2	
740.02	4878.3	
740.2	2928.6	
740.38	3147.7	
740.56	5150.6	
740.74	4274.8	
740.92	3686.3	
741.1	3588.7	
741.28	4776.5	
741.46	4578.6	
741.64	3377.8	
741.82	3718.4	
742	4820.9	
742.18	4752.7	
742.36	3506.8	
742.54	3262.4	
742.72	5208	
742.9	4271.4	
743.08	3859.1	
743.26	2901.3	
743.44	5377.3	
743.62	5263.3	
743.8	3970.3	
743.98	3263.8	
744.16	5076.2	
744.34	4816.8	
744.52	3935.5	
744.7	3848.1	
744.88	5200.5	
745.06	4864.6	
745.24	3928.7	
745.42	4030.4	
745.6	5297.4	
745.78	5162.9	
745.96	3056.3	
746.14	3358.7	
746.32	5914.5	
746.5	5233.2	
746.68	3810.6	
746.86	3358.7	
747.03	5614.2	
747.21	4396.3	
747.39	3797.6	
747.57	3347.7	
747.75	5025.7	
747.93	5281	
748.11	3308.2	
748.29	3332.7	
748.47	6261.3	
748.65	4813.4	
748.83	3980.6	
749.01	3737.5	
749.19	5195	
749.37	4533.5	
749.55	3621.5	
749.73	3680.9	
749.91	4964.3	
750.09	4823.6	
750.26	3724.6	
750.44	3291.1	
750.62	4967	
750.8	4920.6	
750.98	3193.5	
751.16	3447.4	
751.34	5081.7	
751.52	4534.2	
751.7	4009.2	
751.88	3134.1	
752.06	5416.9	
752.24	5220.3	
752.42	3175	
752.59	3377.1	
752.77	4927.4	
752.95	5886.5	
753.13	3986.7	
753.31	3538.9	
753.49	4760.8	
753.67	5041.4	
753.85	3771	
754.03	3399.6	
754.21	5373.9	
754.38	5569.1	
754.56	3650.2	
754.74	2980.5	
754.92	4790.9	
755.1	5332.2	
755.28	3014.6	
755.46	3062.4	
755.64	6144.6	
755.82	6311.2	
755.99	3395.5	
756.17	3600.3	
756.35	4401.1	
756.53	5680.4	
756.71	2765.4	
756.89	3414	
757.07	5325.4	
757.25	4600.4	
757.42	3863.8	
757.6	4548.5	
757.78	5281	
757.96	4508.3	
758.14	3491.8	
758.32	3176.4	
758.5	4135.5	
758.67	4764.9	
758.85	3409.2	
759.03	3543	
759.21	4974.5	
759.39	4489.1	
759.57	3118.4	
759.75	4022.2	
759.92	5330.9	
760.1	4919.2	
760.28	4291.2	
760.46	4418.2	
760.64	4690.5	
760.82	4562.2	
760.99	4136.9	
761.17	3423.5	
761.35	5230.5	
761.53	4422.2	
761.71	3556	
761.89	3990.8	
762.06	5121.3	
762.24	4752.7	
762.42	3565.5	
762.6	3324.5	
762.78	4680.3	
762.96	5178.6	
763.13	3787.4	
763.31	3526.6	
763.49	5312.4	
763.67	4661.9	
763.85	4178.5	
764.02	4622.9	
764.2	5520.6	
764.38	4749.2	
764.56	3418.7	
764.74	4151.9	
764.91	5604.6	
765.09	4752.7	
765.27	3221.5	
765.45	3062.4	
765.63	5759.6	
765.8	5477.6	
765.98	2927.2	
766.16	3192.1	
766.34	4482.3	
766.52	4301.4	
766.69	3925.3	
766.87	3058.3	
767.05	4815.5	
767.23	5331.5	
767.41	3289	
767.58	3454.9	
767.76	5250.3	
767.94	5270.8	
768.12	3357.3	
768.29	3936.2	
768.47	4839.4	
768.65	5460.6	
768.83	3081.5	
769	3955.3	
769.18	4531.5	
769.36	5084.4	
769.54	4019.5	
769.72	3157.3	
769.89	5344.5	
770.07	5383.4	
770.25	3401	
770.43	4380.6	
770.6	6007.4	
770.78	6266.8	
770.96	3569.6	
771.14	3419.4	
771.31	5296.7	
771.49	4821.6	
771.67	2934.7	
771.85	3127.9	
772.02	4227.7	
772.2	4752.7	
772.38	3777.8	
772.55	3325.9	
772.73	5049.6	
772.91	4772.4	
773.09	3645.4	
773.26	3703.4	
773.44	5035.3	
773.62	4767	
773.8	3237.2	
773.97	3093.8	
774.15	5037.3	
774.33	4771.1	
774.5	3232.4	
774.68	3491.1	
774.86	5296	
775.04	4851	
775.21	3211.2	
775.39	3220.1	
775.57	5101.5	
775.74	5261.9	
775.92	3153.2	
776.1	3009.1	
776.27	4985.4	
776.45	5995.1	
776.63	3282.2	
776.81	2939.5	
776.98	4783.4	
777.16	5573.2	
777.34	3463.8	
777.51	3656.3	
777.69	4838	
777.87	4532.8	
778.04	3482.2	
778.22	3992.9	
778.4	4600.4	
778.57	5137.7	
778.75	2949.1	
778.93	3168.2	
779.1	4441.4	
779.28	4326.7	
779.46	2919	
779.64	3235.8	
779.81	5275.6	
779.99	5975.3	
780.17	3966.2	
780.34	4027.7	
780.52	4911.7	
780.69	5078.3	
780.87	3523.2	
781.05	3242.6	
781.22	4913.1	
781.4	4951.3	
781.58	3390.1	
781.75	2733.4	
781.93	5003.9	
782.11	4455.7	
782.28	4059.1	
782.46	3351.8	
782.64	4398.4	
782.81	5111.7	
782.99	3458.3	
783.17	3379.1	
783.34	4954	
783.52	4462.5	
783.69	3577.1	
783.87	4209.9	
784.05	4563.6	
784.22	4462.5	
784.4	4248.9	
784.58	3709.6	
784.75	5272.2	
784.93	4560.8	
785.1	3401.7	
785.28	3924.6	
785.46	5080.3	
785.63	4498.7	
785.81	3388	
785.99	3204.4	
786.16	4633.2	
786.34	4877.6	
786.51	3318.4	
786.69	3616	
786.87	4345.1	
787.04	4754	
787.22	3210.5	
787.39	3957.4	
787.57	4506.9	
787.75	5385.5	
787.92	4133.5	
788.1	3982.6	
788.27	4493.2	
788.45	4302.8	
788.63	3876.8	
788.8	2839.2	
788.98	4889.9	
789.15	4209.9	
789.33	2979.1	
789.5	3389.4	
789.68	5349.3	
789.86	5401.2	
790.03	3831.7	
790.21	3282.2	
790.38	5335.6	
790.56	4658.4	
790.73	3251.5	
790.91	3204.4	
791.09	4472.8	
791.26	5213.4	
791.44	3467.9	
791.61	2993.4	
791.79	4547.9	
791.96	4579.3	
792.14	3097.2	
792.32	2779.1	
792.49	4521.9	
792.67	4664.6	
792.84	3168.9	
793.02	2975.7	
793.19	4924.7	
793.37	5526.1	
793.54	2794.1	
793.72	3018.7	
793.89	5509	
794.07	4547.2	
794.25	3450.1	
794.42	2885.6	
794.6	5442.1	
794.77	5048.9	
794.95	3742.3	
795.12	3308.8	
795.3	4599.1	
795.47	5082.4	
795.65	3599.6	
795.82	3543	
796	4458.4	
796.17	5910.4	
796.35	3385.3	
796.52	3969	
796.7	5045.5	
796.87	5085.8	
797.05	3370.3	
797.22	4115.1	
797.4	5048.9	
797.57	5796.4	
797.75	3512.9	
797.92	3236.5	
798.1	5396.4	
798.27	4453	
798.45	2878.8	
798.62	3044.6	
798.8	4862.6	
798.97	5225.7	
799.15	3659.7	
799.32	3573	
799.5	4244.8	
799.67	4881.7	
799.85	3805.8	
800.02	2798.2	
800.2	4554	
800.37	4788.8	
800.55	3944.4	
800.72	3307.5	
800.9	5165.7	
801.07	5472.2	
801.25	4335.5	
801.42	3612.6	
801.6	5180	
801.77	4949.9	
801.95	3403.7	
802.12	3193.5	
802.29	5010.7	
802.47	4911.7	
802.64	3620.8	
802.82	2810.5	
802.99	4506.9	
803.17	5327.4	
803.34	3501.3	
803.52	3130.7	
803.69	5872.9	
803.87	4364.2	
804.04	3463.1	
804.21	3568.2	
804.39	5429.2	
804.56	4706.2	
804.74	3067.9	
804.91	3644	
805.09	4552.6	
805.26	4653.7	
805.44	3044.6	
805.61	3376.4	
805.78	5122	
805.96	5140.4	
806.13	3661.1	
806.31	3874.1	
806.48	4209.9	
806.66	4625.7	
806.83	3607.8	
807	3521.1	
807.18	4592.2	
807.35	4878.9	
807.53	3489.7	
807.7	2955.9	
807.87	5581.4	
808.05	4620.9	
808.22	3890.5	
808.4	2883.5	
808.57	4612.7	
808.74	4311.7	
808.92	3251.5	
809.09	4134.2	
809.27	4536.9	
809.44	5025	
809.61	2904	
809.79	3229	
809.96	5637.4	
810.14	5159.5	
810.31	2822.1	
810.48	3403	
810.66	4714.4	
810.83	5298.1	
811.01	3302	
811.18	3621.5	
811.35	5234.6	
811.53	4121.9	
811.7	3963.5	
811.87	3628.3	
812.05	4642.1	
812.22	4534.9	
812.39	3181.2	
812.57	3074.7	
812.74	4648.9	
812.92	6039.5	
813.09	3425.6	
813.26	3713	
813.44	5765.7	
813.61	4535.6	
813.78	2869.9	
813.96	3802.4	
814.13	4693.9	
814.3	4379.9	
814.48	4074.1	
814.65	3454.9	
814.82	5605.3	
815	4382	
815.17	3562.8	
815.34	4212	
815.52	4505.5	
815.69	4540.3	
815.87	3474.7	
816.04	3463.1	
816.21	4588.1	
816.38	4192.9	
816.56	3351.2	
816.73	3182.5	
816.9	5804.6	
817.08	5197.7	
817.25	3194.1	
817.42	3898	
817.6	4266.6	
817.77	4601.1	
817.94	3588.7	
818.12	3179.8	
818.29	4435.2	
818.46	6543.9	
818.64	3341.6	
818.81	3082.2	
818.98	4394.3	
819.16	6083.1	
819.33	3809.9	
819.5	3517	
819.67	4906.9	
819.85	5503.6	
820.02	3463.1	
820.19	3697.3	
820.37	4851.6	
820.54	4468	
820.71	3571	
820.88	4382	
821.06	4812.7	
821.23	4412	
821.4	3590.1	
821.58	3538.9	
821.75	5199.8	
821.92	4782.7	
822.09	2943.6	
822.27	3080.8	
822.44	4615.4	
822.61	4489.1	
822.79	2951.1	
822.96	5464	
823.13	4971.1	
823.3	4338.3	
823.48	3332	
823.65	3083.6	
823.82	5190.9	
823.99	4285.7	
824.17	4190.1	
824.34	3134.8	
824.51	5935	
824.68	4641.4	
824.86	3229	
825.03	3582.6	
825.2	4584	
825.37	5549.3	
825.55	3203.7	
825.72	3531.4	
825.89	5939.1	
826.06	5545.9	
826.24	3464.5	
826.41	3475.4	
826.58	5562.3	
826.75	4862.6	
826.92	2790	
827.1	3068.5	
827.27	7361.8	
827.44	5965.7	
827.61	3259	
827.79	3865.2	
827.96	4438.6	
828.13	4661.9	
828.3	3396.2	
828.47	2915.6	
828.65	4932.2	
828.82	4829.1	
828.99	4343.7	
829.16	3796.3	
829.34	5153.4	
829.51	4915.1	
829.68	3510.2	
829.85	3650.2	
830.02	5468.1	
830.2	5178.6	
830.37	2761.3	
830.54	4209.3	
830.71	5847	
830.88	4642.7	
831.05	2778.4	
831.23	3178.4	
831.4	5605.3	
831.57	6170.5	
831.74	3275.4	
831.91	2911.5	
832.09	4912.4	
832.26	5176.6	
832.43	3409.9	
832.6	3739.6	
832.77	4881.7	
832.94	5518.6	
833.12	2747.7	
833.29	3316.3	
833.46	5061.2	
833.63	6341.2	
833.8	3688.4	
833.97	3360	
834.15	5170.4	
834.32	5018.2	
834.49	3524.6	
834.66	3575.8	
834.83	5347.9	
835	4424.3	
835.17	3257.6	
835.35	3282.9	
835.52	5104.9	
835.69	5009.3	
835.86	3420.8	
836.03	2820.7	
836.2	5173.9	
836.37	4857.1	
836.55	3335.5	
836.72	3176.4	
836.89	4814.1	
837.06	5235.3	
837.23	3470.6	
837.4	3723.2	
837.57	5839.4	
837.75	6350.1	
837.92	3101.3	
838.09	3314.3	
838.26	4795.7	
838.43	5421.7	
838.6	3534.8	
838.77	3191.4	
838.94	6010.8	
839.11	5860.6	
839.29	3401	
839.46	2719	
839.63	5201.8	
839.8	4919.2	
839.97	3322.5	
840.14	3250.8	
840.31	4992.3	
840.48	5249.6	
840.65	2775.7	
840.82	3243.3	
841	5124	
841.17	5040.7	
841.34	3001	
841.51	3101.3	
841.68	5067.4	
841.85	4891.2	
842.02	3132	
842.19	2678.1	
842.36	5001.1	
842.53	4968.4	
842.7	3056.3	
842.87	3658.4	
843.05	6340.5	
843.22	4878.3	
843.39	2908.8	
843.56	3103.4	
843.73	4739	
843.9	5236	
844.07	4777.9	
844.24	4007.9	
844.41	7217.7	
844.58	4508.9	
844.75	2936.8	
844.92	3224.2	
845.09	5105.6	
845.26	5114.5	
845.43	3005.7	
845.6	3222.8	
845.77	5151.3	
845.94	4935.6	
846.12	3329.3	
846.29	3510.2	
846.46	5399.8	
846.63	5130.2	
846.8	2996.9	
846.97	3580.5	
847.14	5552.7	
847.31	5117.2	
847.48	3371.6	
847.65	3682.9	
847.82	5408.7	
847.99	5313.8	
848.16	4030.4	
848.33	3724.6	
848.5	4781.3	
848.67	5608.7	
848.84	2971.6	
849.01	3119.7	
849.18	4695.3	
849.35	4393.6	
849.52	3702.7	
849.69	2940.9	
849.86	5364.3	
850.03	5496.1	
850.2	3035.1	
850.37	3604.4	
850.54	5424.4	
850.71	4842.1	
850.88	3673.4	
851.05	2945	
851.22	5019.6	
851.39	5501.5	
851.56	2878.8	
851.73	3419.4	
851.9	4532.2	
852.07	5327.4	
852.24	3303.4	
852.41	2992.8	
852.58	5045.5	
852.75	4640	
852.92	3345	
853.09	2962.7	
853.26	4795	
853.43	5507	
853.6	2987.3	
853.77	2549.7	
853.94	5618.9	
854.11	4549.2	
854.28	4351.3	
854.44	3195.5	
854.61	5905.7	
854.78	5365.7	
854.95	3009.8	
855.12	3806.5	
855.29	4215.4	
855.46	5867.4	
855.63	3044	
855.8	4155.3	
855.97	4823.6	
856.14	5400.5	
856.31	4187.4	
856.48	3201.7	
856.65	4798.4	
856.82	4527.4	
856.99	2905.4	
857.16	3231	
857.33	6111.8	
857.49	4859.1	
857.66	3225.6	
857.83	3508.2	
858	4897.4	
858.17	4976.6	
858.34	2855.6	
858.51	3035.1	
858.68	5722.7	
858.85	5687.9	
859.02	3464.5	
859.19	3658.4	
859.36	4513.7	
859.52	4578.6	
859.69	3072.6	
859.86	3553.2	
860.03	4605.9	
860.2	5571.2	
860.37	2747.7	
860.54	3023.5	
860.71	5296.7	
860.88	5638.7	
861.05	3359.4	
861.21	3786	
861.38	5672.2	
861.55	4435.2	
861.72	2775.7	
861.89	3312.2	
862.06	5369.1	
862.23	5747.3	
862.4	2936.8	
862.56	3127.2	
862.73	5332.2	
862.9	4992.9	
863.07	3505.4	
863.24	2755.2	
863.41	4469.4	
863.58	4589.5	
863.75	3056.3	
863.91	3537.5	
864.08	5594.4	
864.25	5279.7	
864.42	3751.2	
864.59	4138.3	
864.76	5898.8	
864.93	4565.6	
865.09	2940.2	
865.26	3224.9	
865.43	5541.1	
865.6	5849.7	
865.77	2665.1	
865.94	2968.9	
866.1	5574.6	
866.27	5306.3	
866.44	4414.1	
866.61	2884.9	
866.78	4918.5	
866.95	5245.5	
867.11	2907.4	
867.28	2697.2	
867.45	5430.5	
867.62	4612	
867.79	3461.7	
867.96	2996.2	
868.12	4618.2	
868.29	5339.1	
868.46	2646.7	
868.63	3992.9	
868.8	5400.5	
868.97	5256.5	
869.13	3144.3	
869.3	3104.7	
869.47	5226.4	
869.64	5377.3	
869.81	3049.4	
869.97	3069.2	
870.14	5134.3	
870.31	5644.2	
870.48	2990	
870.65	3786	
870.81	4867.3	
870.98	4856.4	
871.15	3408.5	
871.32	3044.6	
871.48	5231.9	
871.65	5756.2	
871.82	2975	
871.99	3317	
872.16	6003.3	
872.32	5568.4	
872.49	3052.8	
872.66	3029.6	
872.83	5309	
872.99	4693.9	
873.16	3477.5	
873.33	2977.1	
873.5	5001.8	
873.67	5069.4	
873.83	3235.8	
874	3988.1	
874.17	5154.1	
874.34	5911.8	
874.5	3831.7	
874.67	3682.2	
874.84	5615.5	
875.01	4450.2	
875.17	4202.4	
875.34	2980.5	
875.51	5084.4	
875.68	6038.1	
875.84	3580.5	
876.01	4376.5	
876.18	5300.8	
876.34	5199.8	
876.51	3053.5	
876.68	2977.1	
876.85	4825.7	
877.01	5556.1	
877.18	4248.9	
877.35	3001.6	
877.52	5039.4	
877.68	4520.5	
877.85	2974.3	
878.02	2949.1	
878.18	4900.1	
878.35	4757.4	
878.52	2420.7	
878.69	3360	
878.85	5376.6	
879.02	5320.6	
879.19	4174.4	
879.35	3217.4	
879.52	5289.9	
879.69	5425.1	
879.86	2652.1	
880.02	3333.4	
880.19	4985.4	
880.36	5937.1	
880.52	3390.8	
880.69	3545.7	
880.86	5344.5	
881.02	5383.4	
881.19	3338.2	
881.36	3289	
881.52	5257.1	
881.69	4673.5	
881.86	3207.8	
882.02	3205.1	
882.19	5494.7	
882.36	6334.4	
882.52	3125.2	
882.69	4178.5	
882.86	5113.8	
883.02	5097.4	
883.19	3614.7	
883.36	3454.9	
883.52	5330.2	
883.69	6114.6	
883.86	3054.9	
884.02	2753.2	
884.19	5342.5	
884.36	4966.3	
884.52	3364.8	
884.69	3184.6	
884.86	4770.4	
885.02	5774.6	
885.19	3363.4	
885.36	3485	
885.52	4998.4	
885.69	5152.7	
885.86	4270.7	
886.02	3755.3	
886.19	5340.4	
886.35	4844.8	
886.52	3317	
886.69	4159.4	
886.85	4592.9	
887.02	5575.3	
887.19	5575.3	
887.35	5575.3	
887.52	5575.3	
887.68	5575.3	
887.85	5575.3	
888.02	5575.3	
888.18	5575.3	
888.35	5575.3	
888.51	5575.3	
888.68	5575.3	
888.85	5575.3	
889.01	5575.3	
889.18	5575.3	
889.35	5575.3	
889.51	5575.3	
889.68	5575.3	
889.84	5575.3	
890.01	5575.3	
890.17	5575.3	
890.34	5575.3	
890.51	5575.3	
890.67	5575.3	
890.84	5575.3	
891	5575.3	
891.17	5575.3	
891.34	5575.3	
891.5	5575.3	
891.67	5575.3	
891.83	5575.3	
892	5575.3	
892.16	5575.3	
892.33	5575.3	
892.5	5575.3	
892.66	5575.3	
892.83	5575.3	
892.99	5575.3	
893.16	5575.3	
893.32	5575.3	
893.49	5575.3	
893.65	5575.3	
893.82	5575.3	
893.99	5575.3	
894.15	5575.3	
894.32	5575.3	
894.48	5575.3	
894.65	5575.3	
894.81	5575.3	
894.98	5575.3	
895.14	5575.3	
895.31	5575.3	
895.47	5575.3	
895.64	5575.3	
895.81	5575.3	
895.97	5575.3	
896.14	5575.3	
896.3	5575.3	
896.47	5575.3	
896.63	5575.3	
896.8	5575.3	
896.96	5575.3	
897.13	5575.3	
897.29	5575.3	
897.46	5575.3	
897.62	5575.3	
897.79	5575.3	
897.95	5575.3	
898.12	5575.3	
898.28	5575.3	
898.45	5575.3	
898.61	5575.3	
898.78	5575.3	
898.94	5575.3	
899.11	5575.3	
899.27	5575.3	
899.44	5575.3	
899.6	5575.3	
899.77	5575.3	
899.93	5575.3	
900.1	5575.3	
900.26	5575.3	
900.43	5575.3	
900.59	5575.3	
900.76	5575.3	
900.92	5575.3	
901.09	5575.3	
901.25	5575.3	
901.42	5575.3	
901.58	5575.3	
901.75	5575.3	
901.91	5575.3	
902.07	5575.3	
902.24	5575.3	
902.4	5575.3	
902.57	5575.3	
902.73	5575.3	
902.9	5575.3	
903.06	5575.3	
903.23	5575.3	
903.39	5575.3	
903.56	5575.3	
903.72	5575.3	
903.88	5575.3	
904.05	5575.3	
904.21	5575.3	
904.38	5575.3	
904.54	5575.3	
904.71	5575.3	
904.87	5575.3	
905.03	5575.3	
905.2	5575.3	
905.36	5575.3	
905.53	5575.3	
905.69	5575.3	
905.86	5575.3	
906.02	5575.3	
906.18	5575.3	
906.35	5575.3	
906.51	5575.3	
906.68	5575.3	
906.84	5575.3	
907.01	5575.3	
907.17	5575.3	
907.33	5575.3	
907.5	5575.3	
907.66	5575.3	
907.83	5575.3	
907.99	5575.3	
908.15	5575.3	
908.32	5575.3	
908.48	5575.3	
908.65	5575.3	
908.81	5575.3	
908.97	5575.3	
909.14	5575.3	
909.3	5575.3	
909.47	5575.3	
909.63	5575.3	
909.79	5575.3	
909.96	5575.3	
910.12	5575.3	
910.28	5575.3	
910.45	5575.3	
910.61	5575.3	
910.78	5575.3	
910.94	5575.3	
911.1	5575.3	
911.27	5575.3	
911.43	5575.3	
911.59	5575.3	
911.76	5575.3	
911.92	5575.3	
912.08	5575.3	
912.25	5575.3	
912.41	5575.3	
912.57	5575.3	
912.74	5575.3	
912.9	5575.3	
913.07	5575.3	
913.23	5575.3	
913.39	5575.3	
913.56	5575.3	
913.72	5575.3	
913.88	5575.3	
914.05	5575.3	
914.21	5575.3	
914.37	5575.3	
914.54	5575.3	
914.7	5575.3	
914.86	5575.3	
915.03	5575.3	
915.19	5575.3	
