Wavelength	Intensities	
nm	a.u.	
179.22	1901.5	
179.44	1905.3	
179.65	1897.8	
179.86	1912.8	
180.08	1903.9	
180.29	5047.6	
180.51	3547.8	
180.72	5713.8	
180.94	6728.3	
181.15	3284.9	
181.37	3241.9	
181.58	5627.1	
181.79	5935.7	
182.01	3398.9	
182.22	3685.7	
182.44	5853.1	
182.65	4906.3	
182.87	4681.7	
183.08	4070	
183.29	6174.6	
183.51	5108.3	
183.72	3713.6	
183.94	5434.6	
184.15	5451	
184.37	5551.4	
184.58	3203.7	
184.79	4461.2	
185.01	5046.9	
185.22	5777.3	
185.44	4766.3	
185.65	3984	
185.86	5349.3	
186.08	4960.9	
186.29	3149.8	
186.51	3433.1	
186.72	5111	
186.94	6019	
187.15	4028.4	
187.36	4104.1	
187.58	7929.1	
187.79	5618.3	
188.01	4264.6	
188.22	6735.8	
188.43	6750.8	
188.65	5779.4	
188.86	3402.4	
189.08	4066.6	
189.29	5276.9	
189.5	5301.5	
189.72	3823.6	
189.93	3881.6	
190.15	6110.5	
190.36	7301.7	
190.57	4205.2	
190.79	4067.3	
191	6212.9	
191.22	6102.3	
191.43	4186.7	
191.64	3390.1	
191.86	6361	
192.07	6064	
192.29	3600.3	
192.5	3800.3	
192.71	6079.7	
192.93	5195	
193.14	3786	
193.35	3893.9	
193.57	5225.1	
193.78	5935	
194	3047.4	
194.21	3756.7	
194.42	5021.6	
194.64	5502.2	
194.85	4108.2	
195.07	4840	
195.28	5554.8	
195.49	4798.4	
195.71	5119.2	
195.92	3542.3	
196.13	5648.3	
196.35	5795.1	
196.56	5442.1	
196.78	4130.1	
196.99	7167.9	
197.2	6723.5	
197.42	4769	
197.63	4175.1	
197.84	4907.6	
198.06	5679.7	
198.27	3786.7	
198.48	5044.8	
198.7	5271.5	
198.91	5371.8	
199.13	4110.3	
199.34	4166.9	
199.55	5872.9	
199.77	4786.1	
199.98	3633.8	
200.19	4182.6	
200.41	5330.9	
200.62	5060.5	
200.83	4397	
201.05	4682.3	
201.26	5352	
201.47	5152	
201.69	3680.2	
201.9	3511.6	
202.11	5507	
202.33	6504.3	
202.54	3908.9	
202.76	4358.8	
202.97	5621	
203.18	5565	
203.4	4353.3	
203.61	4224.3	
203.82	5539.1	
204.04	5131.5	
204.25	4160.8	
204.46	4074.8	
204.68	5489.2	
204.89	5744.6	
205.1	4076.8	
205.32	3511.6	
205.53	5920.7	
205.74	6109.8	
205.96	2955.2	
206.17	4272.7	
206.38	5870.8	
206.6	6068.1	
206.81	4802.5	
207.02	3901.4	
207.24	5730.2	
207.45	6178	
207.66	3926	
207.88	3337.5	
208.09	5668.1	
208.3	5496.1	
208.52	3611.3	
208.73	4028.4	
208.94	5486.5	
209.15	6238.8	
209.37	3910.9	
209.58	4080.2	
209.79	6036	
210.01	5259.9	
210.22	3130.7	
210.43	3308.2	
210.65	5509	
210.86	5929.6	
211.07	3957.4	
211.29	3582.6	
211.5	5827.2	
211.71	5402.5	
211.93	3577.1	
212.14	3597.6	
212.35	5408.7	
212.56	5682.4	
212.78	4176.5	
212.99	3426.9	
213.2	6408.1	
213.42	5261.9	
213.63	3783.3	
213.84	4055	
214.06	4811.4	
214.27	4896.7	
214.48	3908.2	
214.69	4237.2	
214.91	6205.3	
215.12	6292.7	
215.33	4222.9	
215.55	4719.9	
215.76	6761	
215.97	5872.9	
216.18	4078.2	
216.4	4006.5	
216.61	5160.2	
216.82	6015.6	
217.04	3664.5	
217.25	3758.7	
217.46	6132.3	
217.67	5884.5	
217.89	3206.4	
218.1	3406.5	
218.31	5554.8	
218.53	5674.2	
218.74	3827	
218.95	3743	
219.16	5438	
219.38	6477.7	
219.59	3702	
219.8	4420.9	
220.01	7145.4	
220.23	5492.7	
220.44	4863.9	
220.65	3596.2	
220.87	5530.2	
221.08	6156.9	
221.29	3331.4	
221.5	4483	
221.72	7589.1	
221.93	5167	
222.14	4223.6	
222.35	4948.6	
222.57	5446.2	
222.78	5844.2	
222.99	3954.6	
223.2	4234.5	
223.42	5790.3	
223.63	5927.5	
223.84	3035.8	
224.05	2983.9	
224.27	7027.9	
224.48	6412.2	
224.69	4918.5	
224.9	4207.9	
225.12	5695.4	
225.33	5441.5	
225.54	3357.3	
225.75	3725.3	
225.97	5003.2	
226.18	5317.9	
226.39	4005.1	
226.6	3741	
226.82	5226.4	
227.03	5095.3	
227.24	4183.3	
227.45	3396.9	
227.67	5945.9	
227.88	6449.1	
228.09	4721.9	
228.3	4683	
228.52	5883.8	
228.73	5438	
228.94	3850.9	
229.15	3398.3	
229.36	5453.1	
229.58	5317.2	
229.79	3893.2	
230	4545.8	
230.21	6509.1	
230.43	5606.7	
230.64	4143.7	
230.85	4271.4	
231.06	5896.1	
231.28	5991	
231.49	3409.9	
231.7	4019.5	
231.91	5861.3	
232.12	5556.1	
232.34	3539.6	
232.55	3991.5	
232.76	6102.3	
232.97	5713.2	
233.18	3643.3	
233.4	4098	
233.61	5717.9	
233.82	5201.8	
234.03	3844	
234.25	3808.5	
234.46	7720.2	
234.67	5460.6	
234.88	4263.2	
235.09	3713.6	
235.31	5874.9	
235.52	5354.8	
235.73	4128.7	
235.94	3461.1	
236.15	5182	
236.37	6753.5	
236.58	3663.8	
236.79	4005.8	
237	5793	
237.21	4950.6	
237.43	4286.4	
237.64	3353.2	
237.85	10121	
238.06	5081	
238.27	4330.1	
238.48	3459	
238.7	5857.9	
238.91	5399.8	
239.12	3899.3	
239.33	4003.8	
239.54	5268.1	
239.76	5395.7	
239.97	3899.3	
240.18	3991.5	
240.39	6931.7	
240.6	5800.5	
240.82	4080.2	
241.03	3370.3	
241.24	5489.9	
241.45	6397.2	
241.66	3641.3	
241.87	4331.5	
242.09	6224.5	
242.3	6644.3	
242.51	4387.4	
242.72	4006.5	
242.93	5941.2	
243.14	5433.3	
243.36	4597	
243.57	4989.5	
243.78	6390.3	
243.99	5869.5	
244.2	3987.4	
244.41	3586	
244.63	5035.3	
244.84	5847.6	
245.05	4234.5	
245.26	4017.4	
245.47	5769.1	
245.68	6137.8	
245.9	5319.3	
246.11	4187.4	
246.32	5359.5	
246.53	5725.4	
246.74	6512.5	
246.95	3327.9	
247.16	4908.3	
247.38	5528.2	
247.59	3317.7	
247.8	3998.3	
248.01	5182.7	
248.22	5443.5	
248.43	3631.7	
248.64	3860.4	
248.86	4802.5	
249.07	5241.4	
249.28	3543	
249.49	4100.7	
249.7	6064.7	
249.91	6240.8	
250.12	3250.1	
250.34	3394.2	
250.55	5593	
250.76	5498.8	
250.97	4093.2	
251.18	4183.3	
251.39	6241.5	
251.6	5657.9	
251.81	4274.8	
252.03	4226.3	
252.24	5227.8	
252.45	6049.7	
252.66	3422.2	
252.87	4414.1	
253.08	5543.2	
253.29	7316	
253.5	3469.3	
253.72	4878.9	
253.93	5292.6	
254.14	6546	
254.35	3791.5	
254.56	3895.9	
254.77	5737.7	
254.98	5101.5	
255.19	3757.3	
255.41	4858.5	
255.62	5578.7	
255.83	6244.3	
256.04	4300.7	
256.25	4183.3	
256.46	6780.1	
256.67	5175.9	
256.88	4098	
257.09	4617.5	
257.31	5171.8	
257.52	5214.1	
257.73	5167.7	
257.94	3763.5	
258.15	5335.6	
258.36	5519.3	
258.57	4771.1	
258.78	3011.9	
258.99	6098.9	
259.2	5308.3	
259.41	3852.9	
259.63	3863.2	
259.84	6380.8	
260.05	6873	
260.26	5027.8	
260.47	3738.9	
260.68	6126.8	
260.89	5372.5	
261.1	4594.3	
261.31	3566.2	
261.52	6058.6	
261.73	6477	
261.95	4875.5	
262.16	4290.5	
262.37	6270.2	
262.58	6309.1	
262.79	4893.3	
263	3883.6	
263.21	5533.6	
263.42	5012.7	
263.63	3953.9	
263.84	3821.5	
264.05	6081.8	
264.26	6423.1	
264.47	4996.4	
264.69	4367.6	
264.9	6221.7	
265.11	5694.7	
265.32	3695.9	
265.53	3715	
265.74	5612.8	
265.95	4908.3	
266.16	4046.1	
266.37	4491.2	
266.58	5583.4	
266.79	5354.8	
267	3736.2	
267.21	3506.1	
267.42	5062.6	
267.63	5513.1	
267.84	3979.9	
268.06	3418.1	
268.27	5942.5	
268.48	6244.9	
268.69	3964.2	
268.9	4636.6	
269.11	6171.2	
269.32	4965	
269.53	4018.1	
269.74	3695.9	
269.95	5841.5	
270.16	4829.1	
270.37	4012	
270.58	4629.8	
270.79	5350.7	
271	6076.3	
271.21	4295.3	
271.42	3997	
271.63	5687.2	
271.84	5176.6	
272.05	3138.9	
272.26	3603.7	
272.47	5503.6	
272.68	5693.4	
272.89	3801.7	
273.11	4459.8	
273.32	5297.4	
273.53	6432.7	
273.74	4368.3	
273.95	4198.3	
274.16	6169.2	
274.37	5616.2	
274.58	4377.2	
274.79	3459	
275	5631.9	
275.21	6208.1	
275.42	5323.4	
275.63	4539.7	
275.84	5741.8	
276.05	7329	
276.26	4180.6	
276.47	3906.2	
276.68	5308.3	
276.89	6537.1	
277.1	4483	
277.31	3458.3	
277.52	5805.3	
277.73	6006.7	
277.94	3457	
278.15	3873.4	
278.36	5727.5	
278.57	5138.4	
278.78	3837.9	
278.99	4377.9	
279.2	5141.8	
279.41	5027.8	
279.62	5040.1	
279.83	3491.8	
280.04	6778.8	
280.25	4999.1	
280.46	5020.9	
280.67	3945.8	
280.88	5137	
281.09	6253.8	
281.3	4154	
281.51	5381.4	
281.72	5171.8	
281.93	6105.7	
282.14	3667.9	
282.35	3990.1	
282.56	6029.9	
282.77	5951.4	
282.98	3824.2	
283.19	4739.7	
283.4	7430.7	
283.61	5446.2	
283.82	3547.8	
284.03	4958.1	
284.24	5620.3	
284.45	6172.6	
284.66	4912.4	
284.87	4773.8	
285.08	6091.3	
285.29	6229.2	
285.5	3420.8	
285.71	3875.4	
285.92	6186.2	
286.12	6901	
286.33	4915.1	
286.54	3860.4	
286.75	6004.6	
286.96	5334.3	
287.17	3568.2	
287.38	4804.5	
287.59	5105.6	
287.8	5070.8	
288.01	3938.2	
288.22	4540.3	
288.43	6087.9	
288.64	5043.5	
288.85	4650.3	
289.06	4394.9	
289.27	5968.5	
289.48	6507.1	
289.69	4969.7	
289.9	4487.1	
290.11	6201.9	
290.32	5216.2	
290.53	4709.6	
290.74	4384	
290.94	5981.4	
291.15	6023.8	
291.36	3764.8	
291.57	4493.2	
291.78	5253.7	
291.99	4975.9	
292.2	3562.1	
292.41	4334.2	
292.62	6024.4	
292.83	5820.3	
293.04	5386.8	
293.25	3670.6	
293.46	5287.2	
293.67	6071.5	
293.88	3732.1	
294.09	3642	
294.29	5035.3	
294.5	5653.1	
294.71	4072	
294.92	3818.8	
295.13	5316.5	
295.34	6680.5	
295.55	3347.7	
295.76	3429.7	
295.97	5902.9	
296.18	6680.5	
296.39	3513.6	
296.6	3756.7	
296.81	5612.1	
297.01	5945.3	
297.22	3908.9	
297.43	3674.7	
297.64	5133.6	
297.85	5089.9	
298.06	3076.7	
298.27	3377.1	
298.48	5512.4	
298.69	5244.8	
298.9	3994.9	
299.11	3636.5	
299.31	5034.6	
299.52	5031.9	
299.73	4348.5	
299.94	4219.5	
300.15	5521.3	
300.36	5112.4	
300.57	4213.4	
300.78	4265.9	
300.99	5419.6	
301.2	5598.5	
301.4	3727.3	
301.61	4075.5	
301.82	5841.5	
302.03	5931.6	
302.24	4577.2	
302.45	3520.5	
302.66	5777.3	
302.87	6265.4	
303.08	3706.8	
303.29	5160.9	
303.49	5234.6	
303.7	5478.3	
303.91	3294.5	
304.12	4855.7	
304.33	5034.6	
304.54	5582.8	
304.75	3777.8	
304.96	3540.9	
305.16	5818.3	
305.37	6614.9	
305.58	3269.9	
305.79	3383.2	
306	5868.1	
306.21	4953.4	
306.42	3769.6	
306.63	5740.5	
306.83	5360.2	
307.04	6155.5	
307.25	4117.1	
307.46	4095.3	
307.67	4713.1	
307.88	5963.7	
308.09	3652.2	
308.29	3781.2	
308.5	5622.4	
308.71	6133.7	
308.92	4035.2	
309.13	3558	
309.34	5294	
309.55	5410.1	
309.75	4671.4	
309.96	4298.7	
310.17	5978.7	
310.38	5231.2	
310.59	4565.6	
310.8	3545	
311.01	6597.9	
311.21	5376.6	
311.42	3550.5	
311.63	3772.4	
311.84	5217.5	
312.05	5683.8	
312.26	4163.5	
312.46	4560.1	
312.67	5311.7	
312.88	5025.7	
313.09	3619.4	
313.3	3516.4	
313.51	6348.7	
313.71	6713.2	
313.92	3548.4	
314.13	3800.3	
314.34	5734.3	
314.55	5457.2	
314.76	4662.5	
314.96	4055	
315.17	5552	
315.38	5992.4	
315.59	3620.8	
315.8	3467.9	
316.01	6415.6	
316.21	6476.4	
316.42	3462.4	
316.63	3973.7	
316.84	5401.9	
317.05	6268.8	
317.26	4286.4	
317.46	3833.1	
317.67	5500.2	
317.88	5838.1	
318.09	4641.4	
318.3	3347.1	
318.5	5150	
318.71	5855.8	
318.92	5884.5	
319.13	4276.2	
319.34	6025.8	
319.54	6223.8	
319.75	3322.5	
319.96	3196.9	
320.17	5920	
320.38	6091.3	
320.58	3259.7	
320.79	3962.8	
321	6158.2	
321.21	6230.6	
321.42	4030.4	
321.62	3258.3	
321.83	5073.5	
322.04	5533.6	
322.25	3792.8	
322.46	3699.3	
322.66	5666.7	
322.87	5834	
323.08	4507.6	
323.29	3575.1	
323.5	6653.2	
323.7	5055.8	
323.91	4987.5	
324.12	4469.4	
324.33	5569.8	
324.53	5799.2	
324.74	4258.4	
324.95	4522.6	
325.16	4901.5	
325.37	5345.9	
325.57	3625.6	
325.78	3635.1	
325.99	5559.6	
326.2	4971.8	
326.4	5191.6	
326.61	3345.7	
326.82	5397.8	
327.03	5616.2	
327.24	5201.8	
327.44	4954.7	
327.65	5821.7	
327.86	4693.3	
328.07	4283	
328.27	3452.9	
328.48	6237.4	
328.69	5085.8	
328.9	5253.7	
329.1	3924.6	
329.31	5431.2	
329.52	6404	
329.73	3588	
329.93	4190.8	
330.14	5522	
330.35	5833.3	
330.56	6029.2	
330.76	4556	
330.97	5309.7	
331.18	5701.5	
331.39	4022.2	
331.59	3231.7	
331.8	6169.8	
332.01	6290.7	
332.22	3702	
332.42	4300.1	
332.63	5589.6	
332.84	5244.2	
333.05	4031.8	
333.25	3650.8	
333.46	5246.9	
333.67	5461.2	
333.88	3794.9	
334.08	4253.6	
334.29	7404.1	
334.5	6232.7	
334.7	3541.6	
334.91	5196.4	
335.12	5053	
335.33	5952.8	
335.53	4026.3	
335.74	5999.2	
335.95	5240.8	
336.16	5116.5	
336.36	4100	
336.57	4632.5	
336.78	5005.9	
336.98	6180.8	
337.19	4923.3	
337.4	3950.5	
337.61	6718	
337.81	5042.8	
338.02	3685.7	
338.23	4777.9	
338.43	6326.2	
338.64	5169.1	
338.85	3660.4	
339.05	4807.3	
339.26	6419.7	
339.47	4987.5	
339.68	3619.4	
339.88	5483.8	
340.09	5731.6	
340.3	6027.9	
340.5	4281.6	
340.71	3239.2	
340.92	4976.6	
341.13	6291.4	
341.33	3508.9	
341.54	4269.3	
341.75	5752.7	
341.95	5403.9	
342.16	4042	
342.37	4414.7	
342.57	5064.6	
342.78	5524.1	
342.99	4575.8	
343.19	3272	
343.4	5936.4	
343.61	5777.3	
343.81	3919.8	
344.02	3594.9	
344.23	5937.1	
344.43	6380.8	
344.64	4537.6	
344.85	4397	
345.06	5827.2	
345.26	6109.1	
345.47	4216.1	
345.68	4902.2	
345.88	4815.5	
346.09	6006	
346.3	4309.6	
346.5	3206.4	
346.71	5524.1	
346.92	5177.3	
347.12	3305.4	
347.33	4130.8	
347.54	6069.5	
347.74	6472.3	
347.95	4121.9	
348.16	3078.8	
348.36	5305.6	
348.57	5094	
348.78	4111.6	
348.98	4472.8	
349.19	5403.9	
349.39	4922.6	
349.6	3315.7	
349.81	3673.4	
350.01	5741.8	
350.22	5132.9	
350.43	4031.1	
350.63	4886.5	
350.84	5587.5	
351.05	5279.7	
351.25	3599.6	
351.46	3249.4	
351.67	6081.8	
351.87	5183.4	
352.08	3910.9	
352.29	4414.1	
352.49	5969.1	
352.7	6038.8	
352.9	3508.9	
353.11	4408.6	
353.32	6664.8	
353.52	5308.3	
353.73	3472	
353.94	4460.5	
354.14	5738.4	
354.35	5675.6	
354.55	3563.5	
354.76	4029	
354.97	5773.2	
355.17	5571.2	
355.38	3310.2	
355.59	4724.7	
355.79	5154.1	
356	5581.4	
356.2	3966.9	
356.41	3457	
356.62	4878.9	
356.82	5373.9	
357.03	4257	
357.24	3719.1	
357.44	5207.3	
357.65	5270.8	
357.85	5180.7	
358.06	3932.8	
358.27	4908.3	
358.47	5106.3	
358.68	3285.6	
358.88	4173.1	
359.09	5646.9	
359.3	6094.8	
359.5	4898.7	
359.71	4343.1	
359.91	6540.5	
360.12	5863.3	
360.33	4100.7	
360.53	4681	
360.74	5107	
360.94	5175.2	
361.15	4378.6	
361.36	3571.7	
361.56	5872.2	
361.77	5296.7	
361.97	4833.2	
362.18	3734.1	
362.38	5888.6	
362.59	4928.8	
362.8	3485	
363	3284.9	
363.21	4723.3	
363.41	5483.1	
363.62	3997	
363.83	5140.4	
364.03	5444.9	
364.24	6537.1	
364.44	5141.1	
364.65	5058.5	
364.85	5244.2	
365.06	4872.1	
365.27	3597.6	
365.47	3594.9	
365.68	6244.3	
365.88	5205.9	
366.09	4005.1	
366.29	3701.4	
366.5	5525.4	
366.71	5943.2	
366.91	5019.6	
367.12	4247.5	
367.32	6500.3	
367.53	5763	
367.73	4105.5	
367.94	5092.6	
368.14	5694.7	
368.35	6587	
368.56	4056.3	
368.76	3820.1	
368.97	5832.6	
369.17	7557.7	
369.38	3540.3	
369.58	3859.1	
369.79	4857.8	
369.99	6135	
370.2	4934.9	
370.4	3945.8	
370.61	5503.6	
370.82	6673.6	
371.02	3818.1	
371.23	3172.3	
371.43	4676.2	
371.64	6089.3	
371.84	3807.9	
372.05	5054.4	
372.25	7449.8	
372.46	5777.3	
372.66	3773.7	
372.87	3804.4	
373.07	5764.3	
373.28	7468.3	
373.48	4845.5	
373.69	4491.2	
373.9	5207.3	
374.1	5266	
374.31	4732.2	
374.51	4233.2	
374.72	6027.9	
374.92	4891.2	
375.13	4859.1	
375.33	3994.2	
375.54	5524.1	
375.74	5052.3	
375.95	4039.3	
376.15	5362.9	
376.36	5566.4	
376.56	5373.9	
376.77	4098	
376.97	4572.4	
377.18	6533	
377.38	5582.1	
377.59	4939	
377.79	3596.2	
378	5369.1	
378.2	5797.1	
378.41	3612.6	
378.61	3577.8	
378.82	5833.3	
379.02	4931.5	
379.23	3755.3	
379.43	4945.8	
379.64	5892.7	
379.84	5528.2	
380.05	3606.5	
380.25	3553.9	
380.46	5630.5	
380.66	5255.1	
380.87	4996.4	
381.07	5316.5	
381.28	6268.8	
381.48	5642.2	
381.69	3623.5	
381.89	3697.3	
382.1	4629.1	
382.3	5881.8	
382.51	4783.4	
382.71	5702.2	
382.91	5701.5	
383.12	6238.8	
383.32	4048.2	
383.53	4323.9	
383.73	5591.6	
383.94	5296	
384.14	4188.1	
384.35	3327.9	
384.55	5287.9	
384.76	5789.6	
384.96	4026.3	
385.17	4357.4	
385.37	5685.2	
385.58	5022.3	
385.78	4371.7	
385.98	3269.2	
386.19	5185.5	
386.39	5591	
386.6	3788.1	
386.8	4000.4	
387.01	5725.4	
387.21	5689.3	
387.42	4521.9	
387.62	5086.5	
387.83	4994.3	
388.03	5621	
388.23	4018.8	
388.44	4880.3	
388.64	4687.1	
388.85	4726.7	
389.05	4386.7	
389.26	4942.4	
389.46	6625.2	
389.67	5965.1	
389.87	4308.9	
390.07	4446.8	
390.28	5255.8	
390.48	4839.4	
390.69	3578.5	
390.89	3870.7	
391.1	4969.1	
391.3	5915.2	
391.5	5058.5	
391.71	5748.6	
391.91	5672.2	
392.12	6688	
392.32	5130.2	
392.53	4345.8	
392.73	5119.2	
392.93	5286.5	
393.14	4013.3	
393.34	4935.6	
393.55	5796.4	
393.75	5282.4	
393.95	4053.6	
394.16	4016.7	
394.36	4984.1	
394.57	5748	
394.77	3459.7	
394.98	3987.4	
395.18	4883	
395.38	5168.4	
395.59	4823.6	
395.79	3673.4	
396	5071.5	
396.2	5468.1	
396.4	4500.1	
396.61	4390.2	
396.81	5709.7	
397.02	4945.8	
397.22	4723.3	
397.42	4717.2	
397.63	5621	
397.83	4810.7	
398.04	3549.1	
398.24	4080.9	
398.44	5427.1	
398.65	4451.6	
398.85	3448.1	
399.05	3506.8	
399.26	4785.4	
399.46	6496.2	
399.67	3887.7	
399.87	3534.8	
400.07	5105.6	
400.28	5441.5	
400.48	3676.8	
400.69	4704.9	
400.89	5686.5	
401.09	6124.8	
401.3	3518.4	
401.5	4703.5	
401.7	6298.2	
401.91	6593.1	
402.11	3850.2	
402.32	4154.6	
402.52	5703.6	
402.72	5634.6	
402.93	4283	
403.13	3212.6	
403.33	6510.5	
403.54	5261.2	
403.74	4103.4	
403.94	5005.9	
404.15	5281	
404.35	6480.5	
404.56	3849.5	
404.76	5801.2	
404.96	5724.1	
405.17	5489.9	
405.37	4801.8	
405.57	4285	
405.78	5696.1	
405.98	5223.7	
406.18	3795.6	
406.39	4691.2	
406.59	5702.9	
406.79	5338.4	
407	3589.4	
407.2	3744.4	
407.4	5699.5	
407.61	5884.5	
407.81	3639.2	
408.01	5582.1	
408.22	4568.3	
408.42	6456.6	
408.62	4610	
408.83	4049.5	
409.03	5033.2	
409.23	4845.5	
409.44	4086.4	
409.64	4375.1	
409.84	5876.3	
410.05	5700.2	
410.25	4102.8	
410.45	3875.4	
410.66	5110.4	
410.86	7645.1	
411.06	4143.7	
411.27	4085	
411.47	7317.4	
411.67	5215.5	
411.88	4303.5	
412.08	4434.5	
412.28	5858.6	
412.49	6317.3	
412.69	3912.3	
412.89	3889.1	
413.09	6205.3	
413.3	5899.5	
413.5	4043.4	
413.7	3614.7	
413.91	5227.8	
414.11	6034.7	
414.31	3775.1	
414.52	4179.2	
414.72	5670.1	
414.92	5567.1	
415.12	3754.6	
415.33	4285	
415.53	5898.8	
415.73	6168.5	
415.94	4690.5	
416.14	4094.6	
416.34	4943.1	
416.55	4740.4	
416.75	5302.2	
416.95	4651.6	
417.15	5830.6	
417.36	6713.9	
417.56	5380	
417.76	4396.3	
417.97	6290.7	
418.17	5826.5	
418.37	4048.8	
418.57	4007.9	
418.78	5690.6	
418.98	5390.9	
419.18	4987.5	
419.38	4937	
419.59	5378	
419.79	5066	
419.99	3997.6	
420.2	4366.3	
420.4	5907.7	
420.6	6178.7	
420.8	3878.2	
421.01	3750.5	
421.21	5668.1	
421.41	5863.3	
421.61	4275.5	
421.82	3971	
422.02	5253	
422.22	6235.4	
422.42	4743.1	
422.63	4600.4	
422.83	5326.8	
423.03	6578.1	
423.23	4494.6	
423.44	3466.5	
423.64	5442.8	
423.84	5307.7	
424.04	3903.4	
424.25	3611.3	
424.45	6479.8	
424.65	6411.5	
424.85	3405.8	
425.06	3951.2	
425.26	6361.7	
425.46	4937.7	
425.66	4573.1	
425.87	4222.2	
426.07	6219.7	
426.27	6036	
426.47	4315.1	
426.67	3697.3	
426.88	6578.8	
427.08	5986.9	
427.28	4547.9	
427.48	3695.9	
427.69	4908.3	
427.89	5573.2	
428.09	4620.2	
428.29	3708.9	
428.5	6245.6	
428.7	5669.5	
428.9	3556.6	
429.1	4100	
429.3	5657.2	
429.51	6064.7	
429.71	3944.4	
429.91	4631.1	
430.11	5891.3	
430.31	6117.3	
430.52	4113.7	
430.72	4386.7	
430.92	6459.3	
431.12	5877	
431.32	3762.8	
431.53	4264.6	
431.73	4842.8	
431.93	6543.3	
432.13	3708.2	
432.33	3537.5	
432.54	5289.9	
432.74	5631.2	
432.94	3470.6	
433.14	4574.5	
433.34	5782.8	
433.55	5189.6	
433.75	4394.9	
433.95	6176.7	
434.15	5500.2	
434.35	5211.4	
434.56	3619.4	
434.76	3121.1	
434.96	5472.9	
435.16	5698.8	
435.36	3435.8	
435.56	4578.6	
435.77	5059.8	
435.97	5251	
436.17	5248.3	
436.37	4463.9	
436.57	5031.2	
436.78	4941.7	
436.98	4502.8	
437.18	5183.4	
437.38	5657.2	
437.58	5270.8	
437.78	5311.7	
437.99	3865.2	
438.19	5816.2	
438.39	7288	
438.59	3765.5	
438.79	3396.2	
438.99	6445	
439.2	5243.5	
439.4	3507.5	
439.6	3388.7	
439.8	5503.6	
440	6593.1	
440.2	4405.2	
440.4	4463.2	
440.61	5870.8	
440.81	6421.1	
441.01	3457.7	
441.21	4345.1	
441.41	6139.8	
441.61	5859.9	
441.81	4632.5	
442.02	5705	
442.22	6649.1	
442.42	5837.4	
442.62	3484.3	
442.82	3559.4	
443.02	6151.4	
443.22	5214.8	
443.43	3904.1	
443.63	3446	
443.83	5027.8	
444.03	5076.9	
444.23	4666	
444.43	4255	
444.63	5260.5	
444.83	6551.5	
445.04	3507.5	
445.24	4836.6	
445.44	5814.9	
445.64	5793.7	
445.84	4463.9	
446.04	4392.2	
446.24	5178.6	
446.44	6236.7	
446.65	3662.5	
446.85	3932.8	
447.05	5615.5	
447.25	6099.5	
447.45	4134.8	
447.65	3457	
447.85	5521.3	
448.05	5177.3	
448.25	4460.5	
448.46	4272.7	
448.66	5508.4	
448.86	5242.1	
449.06	3335.5	
449.26	4530.8	
449.46	5780.1	
449.66	4922.6	
449.86	3908.9	
450.06	3957.4	
450.26	5038.7	
450.47	5610.1	
450.67	4250.9	
450.87	4573.1	
451.07	5694.7	
451.27	5473.5	
451.47	3549.8	
451.67	3958	
451.87	5060.5	
452.07	6318.7	
452.27	3657	
452.47	3651.5	
452.67	5471.5	
452.88	5907	
453.08	3157.3	
453.28	5078.3	
453.48	6591.7	
453.68	5388.2	
453.88	3512.3	
454.08	3786.7	
454.28	5647.6	
454.48	5345.2	
454.68	4350.6	
454.88	4878.3	
455.08	5743.2	
455.28	5427.1	
455.48	3413.3	
455.68	3973.7	
455.89	6199.2	
456.09	5814.9	
456.29	3686.3	
456.49	3706.8	
456.69	5941.2	
456.89	5216.9	
457.09	4182.6	
457.29	4442.7	
457.49	5592.3	
457.69	5634	
457.89	3815.4	
458.09	3350.5	
458.29	5196.4	
458.49	5963.7	
458.69	4229.7	
458.89	3681.6	
459.09	6092	
459.29	6235.4	
459.49	3819.5	
459.69	4528.7	
459.9	5702.9	
460.1	5104.2	
460.3	3689.8	
460.5	3474.7	
460.7	5598.5	
460.9	5302.2	
461.1	3102.7	
461.3	4367	
461.5	6189.6	
461.7	5754.1	
461.9	3353.2	
462.1	3914.4	
462.3	5132.9	
462.5	5752.1	
462.7	3396.2	
462.9	3477.5	
463.1	6798.6	
463.3	6328.2	
463.5	3625.6	
463.7	4388.1	
463.9	5258.5	
464.1	5611.4	
464.3	3522.5	
464.5	3933.5	
464.7	5816.9	
464.9	5341.8	
465.1	5208.7	
465.3	4189.5	
465.5	6164.4	
465.7	6073.6	
465.9	4323.3	
466.1	4329.4	
466.3	5743.2	
466.5	5784.8	
466.7	4912.4	
466.9	3872	
467.1	5570.5	
467.3	6520.7	
467.5	4870.1	
467.7	3742.3	
467.9	6766.5	
468.1	7600.7	
468.3	4648.2	
468.5	4981.3	
468.7	5405.3	
468.9	5454.4	
469.1	3973.1	
469.3	4691.2	
469.5	7382.2	
469.7	4964.3	
469.9	4566.3	
470.1	3702	
470.3	5464.7	
470.5	5468.1	
470.7	4983.4	
470.9	3885.7	
471.1	5196.4	
471.3	5803.3	
471.5	3614	
471.69	5650.3	
471.89	5208.7	
472.09	4840	
472.29	4412	
472.49	4998.4	
472.69	4878.9	
472.89	5753.4	
473.09	3549.8	
473.29	3872.7	
473.49	5113.1	
473.69	5305.6	
473.89	4792.2	
474.09	3945.1	
474.29	6576.7	
474.49	6294.1	
474.69	4711.7	
474.89	4121.9	
475.09	5334.3	
475.29	5212.1	
475.49	3551.9	
475.69	3698.6	
475.88	7059.3	
476.08	5664	
476.28	3454.9	
476.48	4060.4	
476.68	6150.7	
476.88	6066.1	
477.08	3859.7	
477.28	4028.4	
477.48	5466	
477.68	6216.3	
477.88	3615.3	
478.08	3967.6	
478.28	6438.1	
478.48	5651.7	
478.67	4015.4	
478.87	3564.1	
479.07	6204	
479.27	5752.1	
479.47	4370.4	
479.67	4188.1	
479.87	6030.6	
480.07	6487.3	
480.27	3449.5	
480.47	5059.8	
480.67	5777.3	
480.87	6348	
481.06	3761.4	
481.26	4577.2	
481.46	5636.7	
481.66	5545.2	
481.86	4200.4	
482.06	5278.3	
482.26	5350.7	
482.46	6492.7	
482.66	4136.2	
482.86	3762.8	
483.05	5631.2	
483.25	5074.2	
483.45	6717.3	
483.65	4134.2	
483.85	5153.4	
484.05	5555.5	
484.25	4555.4	
484.45	4984.1	
484.65	6449.1	
484.84	6286.6	
485.04	3971.7	
485.24	3964.2	
485.44	6606.7	
485.64	4937.7	
485.84	3210.5	
486.04	4668	
486.24	5281.7	
486.44	5674.2	
486.63	3185.3	
486.83	3943	
487.03	5064.6	
487.23	5218.2	
487.43	3289.7	
487.63	5657.2	
487.83	5295.4	
488.02	6295.5	
488.22	4107.5	
488.42	4695.3	
488.62	6232	
488.82	5113.1	
489.02	3801	
489.22	3747.1	
489.41	6048.3	
489.61	5603.9	
489.81	3488.4	
490.01	3574.4	
490.21	5929.6	
490.41	6627.9	
490.61	3464.5	
490.8	3652.9	
491	5330.2	
491.2	4874.8	
491.4	4362.9	
491.6	3418.1	
491.8	5480.4	
491.99	5657.2	
492.19	3269.9	
492.39	3593.5	
492.59	5961	
492.79	6027.9	
492.99	4379.2	
493.18	3420.1	
493.38	5982.8	
493.58	6684.6	
493.78	4089.8	
493.98	3713.6	
494.18	5666	
494.37	4979.3	
494.57	4161.5	
494.77	4073.4	
494.97	5620.3	
495.17	5873.6	
495.37	3508.2	
495.56	3894.6	
495.76	5980.8	
495.96	5635.3	
496.16	4695.3	
496.36	3656.3	
496.55	5751.4	
496.75	5295.4	
496.95	4020.8	
497.15	3843.4	
497.35	5791.7	
497.54	5655.8	
497.74	3643.3	
497.94	5240.1	
498.14	6386.2	
498.34	6133.7	
498.53	3205.1	
498.73	4121.2	
498.93	5045.5	
499.13	5607.3	
499.33	3804.4	
499.52	4461.8	
499.72	5498.8	
499.92	5911.1	
500.12	3438.5	
500.32	3744.4	
500.51	5779.4	
500.71	5500.2	
500.91	4470.7	
501.11	4063.9	
501.31	5640.1	
501.5	6136.4	
501.7	4784.1	
501.9	3715	
502.1	5513.8	
502.29	5827.8	
502.49	4108.2	
502.69	4743.8	
502.89	5715.2	
503.09	5714.5	
503.28	3345.7	
503.48	3477.5	
503.68	5095.3	
503.88	5104.2	
504.07	4453	
504.27	4040.6	
504.47	5422.3	
504.67	5715.2	
504.86	4412	
505.06	4127.3	
505.26	5285.1	
505.46	7032.7	
505.65	4021.5	
505.85	4278.2	
506.05	5248.3	
506.25	5711.1	
506.44	3450.8	
506.64	4418.2	
506.84	5197.1	
507.04	6198.5	
507.23	3721.2	
507.43	4326	
507.63	7219.1	
507.83	5489.9	
508.02	4315.8	
508.22	4054.3	
508.42	7417.1	
508.62	5221.6	
508.81	4261.1	
509.01	4749.2	
509.21	5147.9	
509.4	5392.3	
509.6	4371.7	
509.8	3673.4	
510	5397.1	
510.19	6802.7	
510.39	3776.5	
510.59	3823.6	
510.79	5126.7	
510.98	6536.4	
511.18	3786	
511.38	3904.1	
511.57	6030.6	
511.77	5846.3	
511.97	4685.1	
512.17	3636.5	
512.36	5973.9	
512.56	5988.9	
512.76	3641.3	
512.95	3511.6	
513.15	6130.3	
513.35	4736.3	
513.55	4553.3	
513.74	3719.1	
513.94	6070.9	
514.14	5434.6	
514.33	4653	
514.53	4434.5	
514.73	5362.3	
514.92	5504.9	
515.12	3808.5	
515.32	3654.3	
515.51	5623.7	
515.71	6201.2	
515.91	5438	
516.11	3685.7	
516.3	7235.5	
516.5	5199.1	
516.7	4280.3	
516.89	4920.6	
517.09	5311.7	
517.29	5221	
517.48	4794.3	
517.68	3981.9	
517.88	5018.9	
518.07	5660.6	
518.27	4466.6	
518.47	3489.1	
518.66	6248.4	
518.86	4943.1	
519.06	3383.2	
519.25	3757.3	
519.45	5240.1	
519.65	6640.2	
519.84	4450.9	
520.04	5143.8	
520.24	7036.1	
520.43	5814.2	
520.63	4214.7	
520.83	3924.6	
521.02	5134.9	
521.22	5778	
521.42	4560.8	
521.61	5034.6	
521.81	5352.7	
522.01	5525.4	
522.2	4217.5	
522.4	4052.2	
522.6	5966.4	
522.79	4775.9	
522.99	4089.8	
523.18	3383.9	
523.38	5634.6	
523.58	5545.2	
523.77	5203.9	
523.97	3204.4	
524.17	7358.4	
524.36	6501.6	
524.56	4436.6	
524.76	4117.8	
524.95	5379.3	
525.15	5035.3	
525.34	3890.5	
525.54	3795.6	
525.74	5663.3	
525.93	4721.3	
526.13	5016.2	
526.33	3706.8	
526.52	5894.7	
526.72	5363.6	
526.91	4854.4	
527.11	4133.5	
527.31	5880.4	
527.5	6255.2	
527.7	3991.5	
527.89	3044.6	
528.09	4782.7	
528.29	5302.9	
528.48	4433.2	
528.68	4134.8	
528.87	5651	
529.07	5780.1	
529.27	3990.8	
529.46	3505.4	
529.66	5360.9	
529.85	5838.1	
530.05	3353.9	
530.25	4119.8	
530.44	6620.4	
530.64	5298.1	
530.83	3663.8	
531.03	3928	
531.23	5618.9	
531.42	5504.9	
531.62	4623.6	
531.81	3838.6	
532.01	5640.1	
532.21	6175.3	
532.4	3428.3	
532.6	3753.9	
532.79	6542.6	
532.99	5608	
533.18	3762.1	
533.38	4823	
533.58	5086.5	
533.77	5909.1	
533.97	3633.8	
534.16	4447.5	
534.36	6029.2	
534.55	5114.5	
534.75	4647.5	
534.95	3697.3	
535.14	5809.4	
535.34	5122	
535.53	3423.5	
535.73	5426.4	
535.92	6411.5	
536.12	5288.5	
536.31	3546.4	
536.51	4761.5	
536.71	5648.3	
536.9	5178.6	
537.1	3735.5	
537.29	3861.8	
537.49	6087.9	
537.68	5024.3	
537.88	4126.7	
538.07	3434.4	
538.27	5233.9	
538.46	6305.7	
538.66	3310.2	
538.86	3674.1	
539.05	5319.3	
539.25	5751.4	
539.44	3932.1	
539.64	3656.3	
539.83	5124	
540.03	6212.9	
540.22	3504.1	
540.42	3710.9	
540.61	5472.2	
540.81	5606.7	
541	4240	
541.2	4776.5	
541.39	5083.1	
541.59	5414.1	
541.78	4472.1	
541.98	3631.7	
542.18	4809.3	
542.37	4869.4	
542.57	4082.3	
542.76	4524.6	
542.96	4988.9	
543.15	5659.2	
543.35	4093.2	
543.54	3496.6	
543.74	6009.4	
543.93	5578.7	
544.13	4145.8	
544.32	5350	
544.52	5917.9	
544.71	5183.4	
544.91	3322.5	
545.1	4603.2	
545.3	5167	
545.49	5799.8	
545.69	3257.6	
545.88	3934.8	
546.08	6741.2	
546.27	6417.7	
546.47	4434.5	
546.66	3736.2	
546.86	6083.1	
547.05	6727.6	
547.24	3952.6	
547.44	3792.8	
547.63	5143.8	
547.83	6189	
548.02	4216.1	
548.22	4479.6	
548.41	4939	
548.61	6305.7	
548.8	3796.3	
549	3808.5	
549.19	5644.2	
549.39	5907	
549.58	3528	
549.78	4125.3	
549.97	5997.1	
550.17	5591	
550.36	5076.9	
550.55	6046.3	
550.75	5580	
550.94	6520	
551.14	3821.5	
551.33	4252.9	
551.53	4913.8	
551.72	5950	
551.92	4240.7	
552.11	3973.1	
552.31	5963	
552.5	6094.8	
552.69	5764.3	
552.89	3710.9	
553.08	5960.3	
553.28	5662	
553.47	4076.8	
553.67	5193.6	
553.86	6715.3	
554.06	5018.9	
554.25	3314.3	
554.44	3852.9	
554.64	7515.4	
554.83	6953.5	
555.03	3835.8	
555.22	4256.4	
555.42	6159.6	
555.61	5865.4	
555.8	4056.3	
556	4399.7	
556.19	5095.3	
556.39	6488.6	
556.58	4120.5	
556.78	4122.6	
556.97	5831.2	
557.16	5526.1	
557.36	5452.4	
557.55	3807.9	
557.75	4960.9	
557.94	6602.7	
558.13	3889.1	
558.33	3687.7	
558.52	6410.1	
558.72	5296.7	
558.91	3781.9	
559.1	4054.3	
559.3	5074.9	
559.49	4828.4	
559.69	3388	
559.88	4430.4	
560.07	5922	
560.27	6222.4	
560.46	4649.6	
560.66	4784.1	
560.85	5693.4	
561.04	4966.3	
561.24	3825.6	
561.43	4067.9	
561.63	5144.5	
561.82	5490.6	
562.01	5357.5	
562.21	4354.7	
562.4	5914.5	
562.59	6853.2	
562.79	4185.4	
562.98	3893.9	
563.18	5772.5	
563.37	7256.6	
563.56	4641.4	
563.76	3703.4	
563.95	5251	
564.14	5169.8	
564.34	4078.9	
564.53	3873.4	
564.73	5718.6	
564.92	6008.1	
565.11	4212	
565.31	3616	
565.5	6266.1	
565.69	5199.1	
565.89	3838.6	
566.08	4085	
566.27	6087.9	
566.47	6584.9	
566.66	4710.3	
566.85	3436.5	
567.05	5700.9	
567.24	5153.4	
567.44	3790.1	
567.63	5107	
567.82	5956.9	
568.02	5696.1	
568.21	3705.5	
568.4	4115.7	
568.6	5545.2	
568.79	5578.7	
568.98	3482.9	
569.18	3619.4	
569.37	5459.9	
569.56	7509.9	
569.76	4043.4	
569.95	5038	
570.14	5869.5	
570.34	5784.1	
570.53	3536.8	
570.72	3559.4	
570.91	6326.9	
571.11	5494.7	
571.3	4054.3	
571.49	5018.2	
571.69	5486.5	
571.88	5143.8	
572.07	4634.6	
572.27	4630.5	
572.46	5040.7	
572.65	6101.6	
572.85	3727.3	
573.04	4116.4	
573.23	6247	
573.43	5522.7	
573.62	3476.8	
573.81	4110.3	
574	5541.1	
574.2	5351.3	
574.39	3727.3	
574.58	3958.7	
574.78	6339.1	
574.97	5528.8	
575.16	4252.9	
575.36	4473.4	
575.55	5851	
575.74	6075	
575.93	3378.5	
576.13	4435.2	
576.32	5253	
576.51	5824.4	
576.71	3829	
576.9	5137	
577.09	6177.4	
577.28	5642.2	
577.48	4223.6	
577.67	3304.1	
577.86	5421.7	
578.05	5659.2	
578.25	3919.8	
578.44	4008.6	
578.63	5506.3	
578.83	6667.5	
579.02	3331.4	
579.21	4864.6	
579.4	5653.1	
579.6	5289.2	
579.79	4087.7	
579.98	6350.8	
580.17	5980.8	
580.37	6013.5	
580.56	3560.1	
580.75	4278.2	
580.94	6490	
581.14	6295.5	
581.33	4697.4	
581.52	3655.6	
581.71	5770.5	
581.91	6494.8	
582.1	3336.1	
582.29	3946.4	
582.48	5419.6	
582.68	5335.6	
582.87	4420.2	
583.06	3974.4	
583.25	5778.7	
583.45	5622.4	
583.64	4624.3	
583.83	5399.1	
584.02	5244.8	
584.21	5657.2	
584.41	4725.3	
584.6	3892.5	
584.79	5406.6	
584.98	6178	
585.18	3388.7	
585.37	3489.1	
585.56	4997.7	
585.75	5734.3	
585.94	3728	
586.14	4386.1	
586.33	6460.7	
586.52	5427.1	
586.71	4252.3	
586.91	3977.2	
587.1	4971.1	
587.29	5986.2	
587.48	4026.3	
587.67	3850.9	
587.87	5791	
588.06	6065.4	
588.25	5291.3	
588.44	4535.6	
588.63	5632.6	
588.83	6217	
589.02	4040	
589.21	3980.6	
589.4	5591	
589.59	5413.5	
589.78	3470.6	
589.98	3750.5	
590.17	5309.7	
590.36	5917.9	
590.55	3300.6	
590.74	4259.8	
590.94	7344	
591.13	5902.2	
591.32	3962.8	
591.51	3514.3	
591.7	6311.2	
591.89	5739.8	
592.09	3569.6	
592.28	4004.5	
592.47	5013.4	
592.66	6806.8	
592.85	3474	
593.05	3782.6	
593.24	5624.4	
593.43	6235.4	
593.62	3730.7	
593.81	4343.1	
594	5567.1	
594.19	5746.6	
594.39	3771	
594.58	3675.4	
594.77	5907.7	
594.96	6494.8	
595.15	3670.6	
595.34	4330.8	
595.54	6057.2	
595.73	5183.4	
595.92	3161.4	
596.11	4261.8	
596.3	6558.3	
596.49	5212.8	
596.68	4112.3	
596.88	4457.7	
597.07	6295.5	
597.26	5065.3	
597.45	3594.9	
597.64	4796.3	
597.83	5271.5	
598.02	5916.6	
598.22	3661.8	
598.41	4349.2	
598.6	5696.1	
598.79	5196.4	
598.98	3695.2	
599.17	4629.8	
599.36	5725.4	
599.55	7008.8	
599.74	5802.6	
599.94	5513.8	
600.13	6281.8	
600.32	5167.7	
600.51	3429.7	
600.7	3586.7	
600.89	7020.4	
601.08	7034.8	
601.27	3443.3	
601.47	4375.1	
601.66	6207.4	
601.85	6935.8	
602.04	4065.9	
602.23	4396.3	
602.42	5311.7	
602.61	5930.9	
602.8	3983.3	
602.99	3785.3	
603.18	5600.5	
603.37	5882.4	
603.57	4440	
603.76	5046.9	
603.95	6652.5	
604.14	6159.6	
604.33	3819.5	
604.52	4180.6	
604.71	5805.3	
604.9	5449	
605.09	4834.6	
605.28	4625	
605.47	6431.3	
605.66	6114.6	
605.86	4384.7	
606.05	3879.5	
606.24	6451.1	
606.43	5036	
606.62	4163.5	
606.81	5042.8	
607	6303	
607.19	5588.2	
607.38	3650.2	
607.57	3937.6	
607.76	5441.5	
607.95	4904.9	
608.14	4283.7	
608.33	4967.7	
608.52	5409.4	
608.72	6328.9	
608.91	3656.3	
609.1	3476.8	
609.29	5515.9	
609.48	5083.7	
609.67	4598.4	
609.86	3648.8	
610.05	5206.6	
610.24	5551.4	
610.43	3514.3	
610.62	3211.9	
610.81	6722.8	
611	6432.7	
611.19	3654.3	
611.38	4397	
611.57	5853.8	
611.76	7173.4	
611.95	3397.6	
612.14	3325.2	
612.33	5642.2	
612.52	5179.3	
612.71	3992.2	
612.9	3269.9	
613.09	4832.5	
613.28	7157	
613.47	3719.8	
613.66	4722.6	
613.85	5769.1	
614.04	5334.3	
614.24	3802.4	
614.43	3083.6	
614.62	5860.6	
614.81	5821.7	
615	4341.7	
615.19	4377.9	
615.38	5160.9	
615.57	5508.4	
615.76	4218.8	
615.95	5175.9	
616.14	5926.1	
616.33	5531.6	
616.52	4539	
616.71	4740.4	
616.9	5864.7	
617.09	5658.5	
617.28	3852.9	
617.47	5376.6	
617.66	4965	
617.85	4960.2	
618.04	4781.3	
618.22	4202.4	
618.41	5234.6	
618.6	6113.9	
618.79	4020.2	
618.98	3665.9	
619.17	6383.5	
619.36	4747.2	
619.55	3824.2	
619.74	3859.1	
619.93	5563.6	
620.12	5042.1	
620.31	4375.1	
620.5	4575.8	
620.69	6118.6	
620.88	6539.2	
621.07	5209.3	
621.26	4228.4	
621.45	5743.9	
621.64	5724.8	
621.83	4378.6	
622.02	3529.3	
622.21	5862.7	
622.4	5532.2	
622.59	4904.9	
622.78	4599.1	
622.97	5117.9	
623.16	6105.7	
623.35	4214.7	
623.54	3366.9	
623.72	5323.4	
623.91	5470.8	
624.1	4534.2	
624.29	3205.1	
624.48	6452.5	
624.67	5763	
624.86	4306.2	
625.05	3430.3	
625.24	6561.7	
625.43	5052.3	
625.62	6169.8	
625.81	3601.7	
626	6118.6	
626.19	5344.5	
626.38	4434.5	
626.56	3839.9	
626.75	5138.4	
626.94	5884.5	
627.13	4445.5	
627.32	3203	
627.51	5782.8	
627.7	7156.3	
627.89	3389.4	
628.08	4474.8	
628.27	5011.4	
628.46	5285.1	
628.65	3637.9	
628.83	3330	
629.02	5844.9	
629.21	5165	
629.4	4113.7	
629.59	4298	
629.78	4990.9	
629.97	6032.6	
630.16	4349.9	
630.35	3793.5	
630.54	6423.8	
630.72	6150.1	
630.91	3736.2	
631.1	4336.9	
631.29	5549.3	
631.48	5788.2	
631.67	4412	
631.86	3889.1	
632.05	5195	
632.24	5308.3	
632.42	3534.8	
632.61	4207.9	
632.8	5369.8	
632.99	4999.8	
633.18	4069.3	
633.37	4597	
633.56	5586.9	
633.75	5474.9	
633.93	4088.4	
634.12	3770.3	
634.31	6479.8	
634.5	6030.6	
634.69	3846.8	
634.88	4427	
635.07	5430.5	
635.25	6021.7	
635.44	4803.9	
635.63	4941.1	
635.82	5259.9	
636.01	4765.6	
636.2	4738.3	
636.39	4248.2	
636.57	6404.7	
636.76	6185.5	
636.95	3603.1	
637.14	5107	
637.33	5722.7	
637.52	6669.6	
637.7	3461.7	
637.89	4404.5	
638.08	5319.3	
638.27	6857.3	
638.46	4512.4	
638.65	5027.1	
638.83	6827.9	
639.02	5148.6	
639.21	4444.1	
639.4	4981.3	
639.59	5702.9	
639.78	5268.1	
639.96	3833.1	
640.15	3880.2	
640.34	5580.7	
640.53	5808	
640.72	3580.5	
640.91	3904.8	
641.09	5070.8	
641.28	6474.3	
641.47	3841.3	
641.66	4751.3	
641.85	5696.1	
642.03	6048.3	
642.22	4630.5	
642.41	4052.9	
642.6	5204.6	
642.79	4738.3	
642.97	3876.8	
643.16	4633.2	
643.35	5199.1	
643.54	5100.8	
643.73	3831.7	
643.91	4676.2	
644.1	5024.3	
644.29	5479.7	
644.48	3936.2	
644.67	4046.8	
644.85	5214.8	
645.04	5631.2	
645.23	3591.5	
645.42	3905.5	
645.6	5177.9	
645.79	6404.7	
645.98	4007.2	
646.17	3162.1	
646.36	5067.4	
646.54	5678.3	
646.73	4987.5	
646.92	3727.3	
647.11	5328.1	
647.29	6447.7	
647.48	3777.1	
647.67	3697.9	
647.86	6743.3	
648.05	6726.2	
648.23	4187.4	
648.42	5539.8	
648.61	5993	
648.8	5698.1	
648.98	3821.5	
649.17	4067.9	
649.36	5361.6	
649.55	4896.7	
649.73	3895.2	
649.92	4597	
650.11	5205.3	
650.3	5536.3	
650.48	4007.9	
650.67	3744.4	
650.86	5863.3	
651.05	4810	
651.23	3988.8	
651.42	3973.7	
651.61	5356.8	
651.79	5517.9	
651.98	4149.9	
652.17	3774.4	
652.36	5897.5	
652.54	4952.7	
652.73	3857	
652.92	3672	
653.11	5929.6	
653.29	5990.3	
653.48	3229.6	
653.67	4233.8	
653.85	5679.7	
654.04	6819.1	
654.23	4455	
654.42	4079.6	
654.6	5344.5	
654.79	6077.7	
654.98	3556.6	
655.16	4170.3	
655.35	5029.8	
655.54	4941.7	
655.73	3730	
655.91	3628.3	
656.1	6204	
656.29	4944.5	
656.47	3234.4	
656.66	4914.4	
656.85	5163.6	
657.03	5196.4	
657.22	3682.2	
657.41	3732.1	
657.59	5248.3	
657.78	4972.5	
657.97	3417.4	
658.16	4127.3	
658.34	5805.3	
658.53	6257.2	
658.72	5051.7	
658.9	5572.5	
659.09	5244.2	
659.28	5375.2	
659.46	3812	
659.65	3736.9	
659.84	5112.4	
660.02	5575.9	
660.21	3627	
660.4	3589.4	
660.58	6056.5	
660.77	5422.3	
660.96	4221.5	
661.14	3291.8	
661.33	6593.8	
661.52	6453.8	
661.7	3264.5	
661.89	7092.1	
662.08	5029.1	
662.26	4617.5	
662.45	3575.8	
662.64	3705.5	
662.82	5765	
663.01	4995.7	
663.2	3700.7	
663.38	4545.8	
663.57	5677.7	
663.75	5510.4	
663.94	4027.7	
664.13	5338.4	
664.31	5031.9	
664.5	5785.5	
664.69	4224.3	
664.87	4927.4	
665.06	4846.2	
665.25	5611.4	
665.43	5058.5	
665.62	5180.7	
665.8	5897.5	
665.99	5247.6	
666.18	4050.9	
666.36	4147.8	
666.55	5842.9	
666.74	5776	
666.92	3725.3	
667.11	5401.9	
667.29	5193	
667.48	5905	
667.67	4907.6	
667.85	3990.8	
668.04	5254.4	
668.22	5313.1	
668.41	4123.2	
668.6	4294.6	
668.78	5044.8	
668.97	5298.8	
669.15	4532.8	
669.34	3473.4	
669.53	5059.2	
669.71	5444.9	
669.9	3696.6	
670.08	4304.1	
670.27	5105.6	
670.46	5708.4	
670.64	4561.5	
670.83	4717.2	
671.01	5018.2	
671.2	5629.2	
671.38	3700	
671.57	3674.1	
671.76	6232.7	
671.94	6858	
672.13	3494.5	
672.31	4746.5	
672.5	5702.9	
672.69	5064.6	
672.87	3689.1	
673.06	4020.2	
673.24	5540.4	
673.43	5135.6	
673.61	4533.5	
673.8	4019.5	
673.98	5880.4	
674.17	5963.7	
674.36	4596.3	
674.54	4481.6	
674.73	5569.1	
674.91	5794.4	
675.1	4193.6	
675.28	3855	
675.47	5367.7	
675.65	5909.8	
675.84	4078.2	
676.03	4397.7	
676.21	5133.6	
676.4	4691.2	
676.58	4841.4	
676.77	4602.5	
676.95	6618.4	
677.14	5115.8	
677.32	3692.5	
677.51	3519.1	
677.69	5879	
677.88	4799.8	
678.06	3586.7	
678.25	3772.4	
678.44	5348.6	
678.62	5127.4	
678.81	3482.9	
678.99	4481.6	
679.18	6272.9	
679.36	5765.7	
679.55	3999.7	
679.73	4675.5	
679.92	5718.6	
680.1	5091.9	
680.29	5256.5	
680.47	3970.3	
680.66	5055.8	
680.84	5971.2	
681.03	3304.7	
681.21	4349.9	
681.4	5150.6	
681.58	5084.4	
681.77	3741.6	
681.95	3729.4	
682.14	5991.7	
682.32	6394.4	
682.51	4730.1	
682.69	3599	
682.88	5051	
683.06	5786.2	
683.25	4367.6	
683.43	4909	
683.62	5393	
683.8	5846.3	
683.99	5009.3	
684.17	4320.5	
684.36	6754.9	
684.54	5520	
684.73	3582.6	
684.91	3890.5	
685.1	5868.1	
685.28	5269.4	
685.46	4564.2	
685.65	4587.4	
685.83	6191	
686.02	5532.9	
686.2	4012.7	
686.39	4149.2	
686.57	5134.3	
686.76	6778.1	
686.94	3952.6	
687.13	4075.5	
687.31	6008.7	
687.5	5457.8	
687.68	3525.9	
687.86	4855.7	
688.05	7006.8	
688.23	4945.2	
688.42	4851	
688.6	3917.1	
688.79	5236.7	
688.97	5362.9	
689.16	4392.2	
689.34	3285.6	
689.52	6077	
689.71	6227.2	
689.89	4677.6	
690.08	3955.3	
690.26	5537.7	
690.45	5421.7	
690.63	4835.9	
690.81	4055.7	
691	5325.4	
691.18	5266	
691.37	4295.3	
691.55	6566.5	
691.74	5242.1	
691.92	7359.7	
692.1	4279.6	
692.29	3665.9	
692.47	5440.8	
692.66	4785.4	
692.84	3921.9	
693.02	4496.7	
693.21	4841.4	
693.39	5425.8	
693.58	4519.2	
693.76	3919.8	
693.94	6528.9	
694.13	6287.3	
694.31	3820.1	
694.5	4971.8	
694.68	5035.3	
694.86	5385.5	
695.05	4149.2	
695.23	4623.6	
695.42	5724.1	
695.6	8170	
695.78	4790.2	
695.97	3861.8	
696.15	5793.7	
696.34	5213.4	
696.52	3631	
696.7	4521.9	
696.89	5623	
697.07	5032.5	
697.25	4483	
697.44	6016.9	
697.62	5560.9	
697.81	5929.6	
697.99	4182.6	
698.17	4620.2	
698.36	4958.8	
698.54	5609.4	
698.72	4513.7	
698.91	3527.3	
699.09	5214.8	
699.28	5150	
699.46	4195.6	
699.64	4056.3	
699.83	5024.3	
700.01	6434	
700.19	4858.5	
700.38	3255.6	
700.56	6251.1	
700.74	5121.3	
700.93	3643.3	
701.11	4452.3	
701.29	5645.6	
701.48	6639.5	
701.66	3879.5	
701.84	3881.6	
702.03	5136.3	
702.21	5818.3	
702.39	3459	
702.58	3971	
702.76	5603.9	
702.94	5670.8	
703.13	3397.6	
703.31	5939.1	
703.49	4923.3	
703.68	6174.6	
703.86	3631.7	
704.04	4625	
704.23	5440.1	
704.41	5827.8	
704.59	3761.4	
704.78	5162.9	
704.96	6506.4	
705.14	5842.9	
705.33	3521.8	
705.51	4484.4	
705.69	5236	
705.87	6066.8	
706.06	4641.4	
706.24	3626.3	
706.42	5568.4	
706.61	5844.9	
706.79	4694.6	
706.97	3521.1	
707.16	5026.4	
707.34	5594.4	
707.52	4605.2	
707.7	3762.8	
707.89	5266	
708.07	4820.9	
708.25	4644.1	
708.44	4777.2	
708.62	5087.2	
708.8	6256.5	
708.98	5046.2	
709.17	3880.9	
709.35	5548.6	
709.53	5561.6	
709.72	3562.8	
709.9	4117.1	
710.08	5752.1	
710.26	5864	
710.45	5328.8	
710.63	3943	
710.81	5461.2	
710.99	5468.1	
711.18	4534.9	
711.36	4128	
711.54	5292	
711.72	6108.4	
711.91	4255	
712.09	3657.7	
712.27	5571.2	
712.45	6184.2	
712.64	4652.3	
712.82	3538.2	
713	5083.1	
713.18	5278.3	
713.37	3747.8	
713.55	5128.8	
713.73	6303	
713.91	4945.8	
714.1	4389.5	
714.28	3847.5	
714.46	6158.9	
714.64	5411.4	
714.83	3462.4	
715.01	4318.5	
715.19	5595.7	
715.37	5038	
715.55	4125.3	
715.74	4429.8	
715.92	6676.4	
716.1	4607.2	
716.28	5543.2	
716.47	4638	
716.65	5291.3	
716.83	5384.8	
717.01	4478.2	
717.19	4596.3	
717.38	7619.8	
717.56	5051.7	
717.74	4730.1	
717.92	3809.2	
718.1	6333	
718.29	5436.7	
718.47	3340.2	
718.65	3999	
718.83	6011.5	
719.01	5834	
719.2	3099.3	
719.38	4216.1	
719.56	5596.4	
719.74	7215.7	
719.92	3780.6	
720.11	5034.6	
720.29	5673.6	
720.47	4839.4	
720.65	3538.2	
720.83	4437.9	
721.02	5369.1	
721.2	5098.1	
721.38	4468.7	
721.56	3742.3	
721.74	4649.6	
721.92	4937.7	
722.11	5079	
722.29	4715.8	
722.47	6173.9	
722.65	5309	
722.83	3794.2	
723.01	4811.4	
723.2	5372.5	
723.38	5596.4	
723.56	3304.7	
723.74	4436.6	
723.92	4847.5	
724.1	6034.7	
724.29	3730.7	
724.47	4986.1	
724.65	4956.1	
724.83	4803.2	
725.01	3627.6	
725.19	4530.1	
725.37	4913.1	
725.56	5005.9	
725.74	3448.1	
725.92	3767.6	
726.1	4842.8	
726.28	5172.5	
726.46	4207.2	
726.64	3936.9	
726.83	5147.2	
727.01	5418.2	
727.19	3490.4	
727.37	4315.8	
727.55	5250.3	
727.73	5762.3	
727.91	3470.6	
728.09	3334.1	
728.28	5821	
728.46	6523.5	
728.64	4401.8	
728.82	4353.3	
729	6894.8	
729.18	6022.4	
729.36	3475.4	
729.54	5963.7	
729.72	7076.4	
729.91	5221.6	
730.09	5461.9	
730.27	4076.1	
730.45	5155.4	
730.63	5771.9	
730.81	4720.6	
730.99	3726.6	
731.17	6276.3	
731.35	4863.9	
731.53	4315.1	
731.71	3895.2	
731.9	6034.7	
732.08	6290	
732.26	4217.5	
732.44	3883.6	
732.62	6349.4	
732.8	5739.8	
732.98	4618.9	
733.16	3585.3	
733.34	5783.5	
733.52	4594.3	
733.7	4160.1	
733.88	4426.3	
734.07	5661.3	
734.25	5354.8	
734.43	3692.5	
734.61	5259.9	
734.79	6901.7	
734.97	5268.1	
735.15	3769.6	
735.33	4101.4	
735.51	5616.2	
735.69	5328.1	
735.87	5322	
736.05	4377.2	
736.23	5393.7	
736.41	5231.9	
736.59	4165.6	
736.77	4221.5	
736.95	5914.5	
737.13	5281.7	
737.32	3819.5	
737.5	3965.6	
737.68	6513.2	
737.86	5257.1	
738.04	3595.6	
738.22	5651	
738.4	5046.2	
738.58	5395.7	
738.76	4282.3	
738.94	3257	
739.12	5178.6	
739.3	4991.6	
739.48	4917.2	
739.66	4650.3	
739.84	5393.7	
740.02	5400.5	
740.2	3333.4	
740.38	3671.3	
740.56	5799.2	
740.74	4728.8	
740.92	4354	
741.1	4277.5	
741.28	5335.6	
741.46	5122.7	
741.64	3900	
741.82	4504.2	
742	5313.1	
742.18	5322	
742.36	4156	
742.54	3707.5	
742.72	5961.6	
742.9	4661.2	
743.08	4573.8	
743.26	3366.2	
743.44	6172.6	
743.62	5955.5	
743.8	4778.6	
743.98	3791.5	
744.16	5753.4	
744.34	5403.2	
744.52	4716.5	
744.7	4569	
744.88	5872.2	
745.06	5381.4	
745.24	4750.6	
745.42	4866.7	
745.6	5957.5	
745.78	5702.2	
745.96	3583.3	
746.14	3898	
746.32	6755.6	
746.5	5984.8	
746.68	4497.3	
746.86	3967.6	
747.03	6514.6	
747.21	4792.9	
747.39	4475.5	
747.57	4031.8	
747.75	5630.5	
747.93	6070.9	
748.11	3926	
748.29	3913	
748.47	7290.1	
748.65	5352	
748.83	4697.4	
749.01	4394.9	
749.19	5851	
749.37	5079.6	
749.55	4332.1	
749.73	4414.7	
749.91	5565	
750.09	5249.6	
750.26	4414.7	
750.44	3786.7	
750.62	5562.3	
750.8	5542.5	
750.98	3649.5	
751.16	4040.6	
751.34	5623	
751.52	4946.5	
751.7	4843.4	
751.88	3676.1	
752.06	6178.7	
752.24	5928.2	
752.42	3622.2	
752.59	3971.7	
752.77	5525.4	
752.95	6814.3	
753.13	4760.2	
753.31	4130.1	
753.49	5249.6	
753.67	5739.8	
753.85	4463.2	
754.03	4031.8	
754.21	6050.4	
754.38	6448.4	
754.56	4331.5	
754.74	3383.9	
754.92	5377.3	
755.1	6173.3	
755.28	3539.6	
755.46	3549.1	
755.64	7151.5	
755.82	7296.9	
755.99	4042	
756.17	4238.6	
756.35	4806.6	
756.53	6543.3	
756.71	3165.5	
756.89	4132.1	
757.07	6069.5	
757.25	5109	
757.42	4575.2	
757.6	5509	
757.78	6001.2	
757.96	4918.5	
758.14	4203.8	
758.32	3728	
758.5	4511.7	
758.67	5387.5	
758.85	4080.2	
759.03	4225.6	
759.21	5580	
759.39	5053.7	
759.57	3675.4	
759.75	4840	
759.92	6264.7	
760.1	5429.2	
760.28	5158.2	
760.46	5431.9	
760.64	5216.9	
760.82	4909	
760.99	4960.2	
761.17	4039.3	
761.35	5905	
761.53	4958.1	
761.71	4209.3	
761.89	4875.5	
762.06	5750	
762.24	5287.9	
762.42	4188.1	
762.6	3894.6	
762.78	5274.9	
762.96	5900.2	
763.13	4588.8	
763.31	4192.9	
763.49	6098.2	
763.67	5169.8	
763.85	5053	
764.02	5694.7	
764.2	6318	
764.38	5513.1	
764.56	4072	
764.74	5014.1	
764.91	6505	
765.09	5276.9	
765.27	3737.5	
765.45	3584.6	
765.63	6560.3	
765.8	6352.1	
765.98	3327.3	
766.16	3750.5	
766.34	4900.1	
766.52	4635.9	
766.69	4659.8	
766.87	3482.2	
767.05	5315.8	
767.23	6120.7	
767.41	3877.5	
767.58	4143	
767.76	5963	
767.94	6035.4	
768.12	3958	
768.29	4783.4	
768.47	5454.4	
768.65	6255.2	
768.83	3588	
769	4830.5	
769.18	5008	
769.36	5761.6	
769.54	4853.7	
769.72	3644.7	
769.89	6105	
770.07	6230.6	
770.25	4018.8	
770.43	5329.5	
770.6	7005.4	
770.78	7389.1	
770.96	4237.2	
771.14	4958.8	
771.31	6025.8	
771.49	5392.3	
771.67	3379.8	
771.85	3695.9	
772.02	4622.9	
772.2	5391.6	
772.38	4454.3	
772.55	3936.9	
772.73	5682.4	
772.91	5425.8	
773.09	4347.8	
773.26	4417.5	
773.44	5554.8	
773.62	5328.1	
773.8	3866.6	
773.97	3505.4	
774.15	5744.6	
774.33	5287.9	
774.5	3778.5	
774.68	4113	
774.86	5925.5	
775.04	5382.7	
775.21	3877.5	
775.39	3890.5	
775.57	5643.5	
775.74	6093.4	
775.92	3649.5	
776.1	3592.8	
776.27	5666.7	
776.45	6935.1	
776.63	3859.1	
776.81	3416	
776.98	5283.8	
777.16	6507.1	
777.34	4080.2	
777.51	4382	
777.69	5343.8	
777.87	5107	
778.04	4065.2	
778.22	4806.6	
778.4	5167	
778.57	5847.6	
778.75	3345	
778.93	3693.9	
779.1	4909	
779.28	4827.1	
779.46	3409.2	
779.64	3923.2	
779.81	5947.3	
779.99	6963.1	
780.17	4741.7	
780.34	4930.8	
780.52	5436	
780.69	5664	
780.87	4257.7	
781.05	3801	
781.22	5494.7	
781.4	5582.1	
781.58	3989.4	
781.75	3118.4	
781.93	5615.5	
782.11	4981.3	
782.28	4887.8	
782.46	3988.1	
782.64	4855.7	
782.81	5691.3	
782.99	4131.4	
783.17	4037.9	
783.34	5649.7	
783.52	4885.8	
783.69	4287.1	
783.87	5117.2	
784.05	4958.8	
784.22	4995	
784.4	5169.8	
784.58	4405.9	
784.75	5973.9	
784.93	5050.3	
785.1	4006.5	
785.28	4725.3	
785.46	5730.9	
785.63	5010.7	
785.81	4035.9	
785.99	3834.5	
786.16	5213.4	
786.34	5565.7	
786.51	3909.6	
786.69	4324.6	
786.87	4741	
787.04	5256.5	
787.22	3734.8	
787.39	5020.3	
787.57	4954	
787.75	6184.2	
787.92	4993.6	
788.1	4952	
788.27	5043.5	
788.45	4758.1	
788.63	4603.8	
788.8	3291.1	
788.98	5547.9	
789.15	4712.4	
789.33	3361.4	
789.5	4063.9	
789.68	5985.5	
789.86	6121.4	
790.03	4547.2	
790.21	3956.7	
790.38	5986.9	
790.56	5165.7	
790.73	3814.7	
790.91	3791.5	
791.09	5029.8	
791.26	5911.8	
791.44	4076.1	
791.61	3476.8	
791.79	5001.8	
791.96	5118.6	
792.14	3578.5	
792.32	3160.7	
792.49	5067.4	
792.67	5184.1	
792.84	3674.7	
793.02	3466.5	
793.19	5586.2	
793.37	6379.4	
793.54	3282.9	
793.72	3582.6	
793.89	6499.6	
794.07	5136.3	
794.25	4056.3	
794.42	3303.4	
794.6	6268.1	
794.77	5819	
794.95	4548.5	
795.12	3968.3	
795.3	5086.5	
795.47	5726.1	
795.65	4398.4	
795.82	4160.8	
796	4881	
796.17	6877.1	
796.35	3972.4	
796.52	4797	
796.7	5653.1	
796.87	5758.9	
797.05	5023	
797.22	4892.6	
797.4	5709.1	
797.57	6835.4	
797.75	4147.1	
797.92	3910.3	
798.1	6095.4	
798.27	5102.9	
798.45	3350.5	
798.62	3567.6	
798.8	5373.2	
798.97	5958.2	
799.15	4417.5	
799.32	4235.9	
799.5	4688.5	
799.67	5509.7	
799.85	4592.9	
800.02	3240.6	
800.2	5025	
800.37	5375.2	
800.55	4736.3	
800.72	3894.6	
800.9	5856.5	
801.07	6399.9	
801.25	5327.4	
801.42	4343.7	
801.6	5954.1	
801.77	5681.1	
801.95	3952.6	
802.12	3822.2	
802.29	5613.5	
802.47	5586.9	
802.64	4330.8	
802.82	3251.5	
802.99	4970.4	
803.17	6147.3	
803.34	4201.1	
803.52	3764.8	
803.69	6877.1	
803.87	4807.9	
804.04	4185.4	
804.21	4242.7	
804.39	6236.1	
804.56	5268.7	
804.74	3579.2	
804.91	4356.7	
805.09	5014.1	
805.26	5185.5	
805.44	3562.1	
805.61	3979.9	
805.78	5820.3	
805.96	5890	
806.13	4351.3	
806.31	4722.6	
806.48	4625	
806.66	5212.8	
806.83	4259.1	
807	4220.9	
807.18	5089.9	
807.35	5553.4	
807.53	4186	
807.7	3347.1	
807.87	6359.6	
808.05	5116.5	
808.22	4601.1	
808.4	3380.5	
808.57	5197.7	
808.74	4803.9	
808.92	3865.2	
809.09	4973.2	
809.27	4995	
809.44	5775.3	
809.61	3366.2	
809.79	3833.1	
809.96	6356.2	
810.14	5964.4	
810.31	3303.4	
810.48	4023.6	
810.66	5298.1	
810.83	6070.2	
811.01	3831.7	
811.18	4276.8	
811.35	5925.5	
811.53	4591.5	
811.7	4774.5	
811.87	4392.9	
812.05	5182	
812.22	5126.1	
812.39	3793.5	
812.57	3576.4	
812.74	5145.9	
812.92	6965.1	
813.09	4036.5	
813.26	4450.9	
813.44	6670.9	
813.61	5061.2	
813.78	3360	
813.96	4544.4	
814.13	5177.3	
814.3	4789.5	
814.48	4975.9	
814.65	4135.5	
814.82	6497.5	
815	4916.5	
815.17	4229.1	
815.34	5120.6	
815.52	5108.3	
815.69	5069.4	
815.87	4170.3	
816.04	4121.9	
816.21	5215.5	
816.38	4527.4	
816.56	4031.8	
816.73	3753.9	
816.9	6548	
817.08	6002.6	
817.25	3792.2	
817.42	4848.2	
817.6	4682.3	
817.77	5194.3	
817.94	4337.6	
818.12	3762.1	
818.29	4912.4	
818.46	7815	
818.64	3930.7	
818.81	3682.2	
818.98	4836.6	
819.16	7075.7	
819.33	4545.1	
819.5	4199	
819.67	5539.1	
819.85	6309.8	
820.02	4079.6	
820.19	4373.8	
820.37	5445.5	
820.54	4986.1	
820.71	4276.2	
820.88	5317.9	
821.06	5409.4	
821.23	4954	
821.4	4335.5	
821.58	4268.6	
821.75	5965.7	
821.92	5344.5	
822.09	3431.7	
822.27	3698.6	
822.44	5283.8	
822.61	5089.9	
822.79	3406.5	
822.96	6753.5	
823.13	5704.3	
823.3	4889.2	
823.48	4005.8	
823.65	3601.7	
823.82	5891.3	
823.99	4687.1	
824.17	5029.1	
824.34	3597.6	
824.51	6814.3	
824.68	5322	
824.86	3846.1	
825.03	4289.8	
825.2	5169.1	
825.37	6378.1	
825.55	3728	
825.72	4153.3	
825.89	6996.5	
826.06	6486.6	
826.24	4096.6	
826.41	4182	
826.58	6339.8	
826.75	5479.7	
826.92	3206.4	
827.1	3622.2	
827.27	8708	
827.44	6962.4	
827.61	3909.6	
827.79	4748.6	
827.96	4910.3	
828.13	5345.2	
828.3	4084.3	
828.47	3398.3	
828.65	5389.6	
828.82	5358.2	
828.99	5311.7	
829.16	4628.4	
829.34	5848.3	
829.51	5558.9	
829.68	4203.8	
829.85	4412.7	
830.02	6099.5	
830.2	5862.7	
830.37	3231.7	
830.54	5168.4	
830.71	6658.6	
830.88	5147.9	
831.05	3250.8	
831.23	3834.5	
831.4	6338.5	
831.57	7231.4	
831.74	3915.7	
831.91	3452.2	
832.09	5425.8	
832.26	5810.1	
832.43	4049.5	
832.6	4565.6	
832.77	5385.5	
832.94	6229.9	
833.12	3177.8	
833.29	4035.9	
833.46	5583.4	
833.63	7379.5	
833.8	4419.5	
833.97	4091.2	
834.15	5848.3	
834.32	5611.4	
834.49	4239.3	
834.66	4349.2	
834.83	6079.7	
835	4883	
835.17	3857.7	
835.35	3960.8	
835.52	5761.6	
835.69	5612.8	
835.86	4169	
836.03	3416.7	
836.2	5739.1	
836.37	5355.4	
836.55	4029.7	
836.72	3800.3	
836.89	5339.7	
837.06	5914.5	
837.23	4136.9	
837.4	4558.1	
837.57	6691.4	
837.75	7379.5	
837.92	3647.4	
838.09	3965.6	
838.26	5349.3	
838.43	6130.3	
838.6	4269.3	
838.77	3805.1	
838.94	7067.5	
839.11	6677.7	
839.29	4069.3	
839.46	3175	
839.63	5690.6	
839.8	5513.1	
839.97	3940.3	
840.14	3977.8	
840.31	5502.9	
840.48	5793	
840.65	3241.3	
840.82	3900	
841	5784.1	
841.17	5777.3	
841.34	3657.7	
841.51	3657	
841.68	5729.5	
841.85	5446.9	
842.02	3747.1	
842.19	3128.6	
842.36	5468.1	
842.53	5536.3	
842.7	3591.5	
842.87	4484.4	
843.05	7372	
843.22	5441.5	
843.39	3457.7	
843.56	3669.3	
843.73	5214.1	
843.9	5878.4	
844.07	5976	
844.24	4990.2	
844.41	8718.9	
844.58	5012.7	
844.75	3545.7	
844.92	3823.6	
845.09	5773.9	
845.26	5748.6	
845.43	3579.2	
845.6	3788.7	
845.77	5771.9	
845.94	5508.4	
846.12	4000.4	
846.29	4277.5	
846.46	6029.9	
846.63	5752.1	
846.8	3594.9	
846.97	4302.1	
847.14	6306.4	
847.31	5763.7	
847.48	4074.8	
847.65	4540.3	
847.82	6112.5	
847.99	6213.5	
848.16	4831.2	
848.33	4457.1	
848.5	5341.8	
848.67	6354.2	
848.84	3566.2	
849.01	3780.6	
849.18	5167.7	
849.35	4823	
849.52	4507.6	
849.69	3541.6	
849.86	6014.2	
850.03	6250.4	
850.2	3586.7	
850.37	4442.7	
850.54	6224.5	
850.71	5444.2	
850.88	4354	
851.05	3485	
851.22	5712.5	
851.39	6409.5	
851.56	3361.4	
851.73	4141.7	
851.9	5103.5	
852.07	6032.6	
852.24	4007.9	
852.41	3610.6	
852.58	5702.2	
852.75	5138.4	
852.92	4035.2	
853.09	3488.4	
853.26	5343.2	
853.43	6321.4	
853.6	3583.9	
853.77	3046.7	
853.94	6352.1	
854.11	5710.4	
854.28	5392.3	
854.44	3898.6	
854.61	6680.5	
854.78	6120	
854.95	3565.5	
855.12	4628.4	
855.29	4610	
855.46	6432	
855.63	3584.6	
855.8	5006.6	
855.97	5299.5	
856.14	6152.8	
856.31	5113.1	
856.48	3915.7	
856.65	5309	
856.82	5047.6	
856.99	3450.1	
857.16	3860.4	
857.33	7090.8	
857.49	5485.1	
857.66	3906.8	
857.83	4213.4	
858	5439.4	
858.17	5658.5	
858.34	3376.4	
858.51	3579.8	
858.68	6531	
858.85	6548	
859.02	4234.5	
859.19	4446.8	
859.36	5046.2	
859.52	5110.4	
859.69	3530.7	
859.86	4266.6	
860.03	5119.2	
860.2	6403.3	
860.37	3273.3	
860.54	3576.4	
860.71	6029.2	
860.88	6558.3	
861.05	4024.3	
861.21	4521.2	
861.38	6570.6	
861.55	5029.1	
861.72	3315.7	
861.89	4061.8	
862.06	6148.7	
862.23	6673.6	
862.4	3475.4	
862.56	3711.6	
862.73	5862.7	
862.9	5584.1	
863.07	4214.7	
863.24	3275.4	
863.41	4934.2	
863.58	5115.1	
863.75	3643.3	
863.91	4149.9	
864.08	6430.6	
864.25	5939.1	
864.42	4474.1	
864.59	5041.4	
864.76	6763.1	
864.93	5048.2	
865.09	3532.1	
865.26	3876.8	
865.43	6285.9	
865.6	6720.8	
865.77	3115	
865.94	3551.2	
866.1	6401.3	
866.27	6186.9	
866.44	5467.4	
866.61	3377.1	
866.78	5489.2	
866.95	5963	
867.11	3471.3	
867.28	3178.4	
867.45	6122.1	
867.62	5122	
867.79	4331.5	
867.96	3586	
868.12	5051.7	
868.29	6105.7	
868.46	3061	
868.63	4835.3	
868.8	6242.9	
868.97	6023.1	
869.13	3761.4	
869.3	3788.7	
869.47	5915.2	
869.64	6162.3	
869.81	3654.3	
869.97	3617.4	
870.14	5844.9	
870.31	6546	
870.48	3460.4	
870.65	4591.5	
870.81	5429.2	
870.98	5360.2	
871.15	4121.2	
871.32	3659.7	
871.48	5859.9	
871.65	6528.2	
871.82	3594.9	
871.99	3920.5	
872.16	7004.1	
872.32	6354.8	
872.49	3620.8	
872.66	3644	
872.83	6098.2	
872.99	5314.5	
873.16	4112.3	
873.33	3605.1	
873.5	5640.1	
873.67	5643.5	
873.83	3790.8	
874	4868.7	
874.17	5864.7	
874.34	6944	
874.5	4673.5	
874.67	4473.4	
874.84	6465.4	
875.01	5118.6	
875.17	5122	
875.34	3561.4	
875.51	5679	
875.68	6903	
875.84	4362.9	
876.01	5333.6	
876.18	6014.9	
876.34	5933	
876.51	3691.1	
876.68	3560.7	
876.85	5422.3	
877.01	6320.7	
877.18	5154.1	
877.35	3594.9	
877.52	5581.4	
877.68	4992.9	
877.85	3511.6	
878.02	3567.6	
878.18	5618.3	
878.35	5271.5	
878.52	2874.7	
878.69	4004.5	
878.85	6010.8	
879.02	5975.3	
879.19	5168.4	
879.35	3835.2	
879.52	5997.1	
879.69	6202.6	
879.86	3082.9	
880.02	4032.5	
880.19	5549.3	
880.36	6826.6	
880.52	4201.7	
880.69	4287.1	
880.86	6158.9	
881.02	6227.2	
881.19	4022.2	
881.36	3944.4	
881.52	5954.1	
881.69	5320.6	
881.86	3826.3	
882.02	3756.7	
882.19	6252.4	
882.36	7448.5	
882.52	3636.5	
882.69	5077.6	
882.86	5756.8	
883.02	5650.3	
883.19	4360.8	
883.36	4097.3	
883.52	6118.6	
883.69	6926.2	
883.86	3642	
884.02	3259.7	
884.19	6052.4	
884.36	5601.2	
884.52	4126	
884.69	3846.8	
884.86	5299.5	
885.02	6744	
885.19	4024.9	
885.36	4201.1	
885.52	5601.9	
885.69	5673.6	
885.86	5302.9	
886.02	4668	
886.19	6108.4	
886.35	5516.5	
886.52	3964.2	
886.69	5064.6	
886.85	5160.2	
887.02	6458.6	
887.19	6458.6	
887.35	6458.6	
887.52	6458.6	
887.68	6458.6	
887.85	6458.6	
888.02	6458.6	
888.18	6458.6	
888.35	6458.6	
888.51	6458.6	
888.68	6458.6	
888.85	6458.6	
889.01	6458.6	
889.18	6458.6	
889.35	6458.6	
889.51	6458.6	
889.68	6458.6	
889.84	6458.6	
890.01	6458.6	
890.17	6458.6	
890.34	6458.6	
890.51	6458.6	
890.67	6458.6	
890.84	6458.6	
891	6458.6	
891.17	6458.6	
891.34	6458.6	
891.5	6458.6	
891.67	6458.6	
891.83	6458.6	
892	6458.6	
892.16	6458.6	
892.33	6458.6	
892.5	6458.6	
892.66	6458.6	
892.83	6458.6	
892.99	6458.6	
893.16	6458.6	
893.32	6458.6	
893.49	6458.6	
893.65	6458.6	
893.82	6458.6	
893.99	6458.6	
894.15	6458.6	
894.32	6458.6	
894.48	6458.6	
894.65	6458.6	
894.81	6458.6	
894.98	6458.6	
895.14	6458.6	
895.31	6458.6	
895.47	6458.6	
895.64	6458.6	
895.81	6458.6	
895.97	6458.6	
896.14	6458.6	
896.3	6458.6	
896.47	6458.6	
896.63	6458.6	
896.8	6458.6	
896.96	6458.6	
897.13	6458.6	
897.29	6458.6	
897.46	6458.6	
897.62	6458.6	
897.79	6458.6	
897.95	6458.6	
898.12	6458.6	
898.28	6458.6	
898.45	6458.6	
898.61	6458.6	
898.78	6458.6	
898.94	6458.6	
899.11	6458.6	
899.27	6458.6	
899.44	6458.6	
899.6	6458.6	
899.77	6458.6	
899.93	6458.6	
900.1	6458.6	
900.26	6458.6	
900.43	6458.6	
900.59	6458.6	
900.76	6458.6	
900.92	6458.6	
901.09	6458.6	
901.25	6458.6	
901.42	6458.6	
901.58	6458.6	
901.75	6458.6	
901.91	6458.6	
902.07	6458.6	
902.24	6458.6	
902.4	6458.6	
902.57	6458.6	
902.73	6458.6	
902.9	6458.6	
903.06	6458.6	
903.23	6458.6	
903.39	6458.6	
903.56	6458.6	
903.72	6458.6	
903.88	6458.6	
904.05	6458.6	
904.21	6458.6	
904.38	6458.6	
904.54	6458.6	
904.71	6458.6	
904.87	6458.6	
905.03	6458.6	
905.2	6458.6	
905.36	6458.6	
905.53	6458.6	
905.69	6458.6	
905.86	6458.6	
906.02	6458.6	
906.18	6458.6	
906.35	6458.6	
906.51	6458.6	
906.68	6458.6	
906.84	6458.6	
907.01	6458.6	
907.17	6458.6	
907.33	6458.6	
907.5	6458.6	
907.66	6458.6	
907.83	6458.6	
907.99	6458.6	
908.15	6458.6	
908.32	6458.6	
908.48	6458.6	
908.65	6458.6	
908.81	6458.6	
908.97	6458.6	
909.14	6458.6	
909.3	6458.6	
909.47	6458.6	
909.63	6458.6	
909.79	6458.6	
909.96	6458.6	
910.12	6458.6	
910.28	6458.6	
910.45	6458.6	
910.61	6458.6	
910.78	6458.6	
910.94	6458.6	
911.1	6458.6	
911.27	6458.6	
911.43	6458.6	
911.59	6458.6	
911.76	6458.6	
911.92	6458.6	
912.08	6458.6	
912.25	6458.6	
912.41	6458.6	
912.57	6458.6	
912.74	6458.6	
912.9	6458.6	
913.07	6458.6	
913.23	6458.6	
913.39	6458.6	
913.56	6458.6	
913.72	6458.6	
913.88	6458.6	
914.05	6458.6	
914.21	6458.6	
914.37	6458.6	
914.54	6458.6	
914.7	6458.6	
914.86	6458.6	
915.03	6458.6	
915.19	6458.6	
