Wavelength	Intensities	
nm	a.u.	
179.22	1631.9	
179.44	1631.5	
179.65	1632.2	
179.86	1630.9	
180.08	1630.2	
180.29	3695.9	
180.51	2874	
180.72	4762.2	
180.94	5267.4	
181.15	2540.8	
181.37	2538.8	
181.58	4608.6	
181.79	4771.8	
182.01	2658.9	
182.22	2752.5	
182.44	4829.1	
182.65	4183.3	
182.87	3364.1	
183.08	2967.5	
183.29	4919.9	
183.51	4244.1	
183.72	2806.4	
183.94	3764.8	
184.15	4511.7	
184.37	4426.3	
184.58	2508.1	
184.79	3140.9	
185.01	4267.3	
185.22	4787.5	
185.44	3347.1	
185.65	2905.4	
185.86	4556	
186.08	4205.2	
186.29	2524.5	
186.51	2639.8	
186.72	4323.3	
186.94	4810	
187.15	2966.1	
187.36	2975	
187.58	5872.9	
187.79	4591.5	
188.01	3069.9	
188.22	4572.4	
188.43	5266	
188.65	4719.9	
188.86	2651.4	
189.08	3063.8	
189.29	4367.6	
189.5	4317.8	
189.72	2811.9	
189.93	2861.7	
190.15	4828.4	
190.36	5608.7	
190.57	2985.3	
190.79	2934.1	
191	4855.7	
191.22	4853	
191.43	3067.9	
191.64	2629.6	
191.86	5077.6	
192.07	4900.1	
192.29	2683.5	
192.5	2778.4	
192.71	4857.1	
192.93	4363.5	
193.14	2763.4	
193.35	2878.1	
193.57	4354	
193.78	4854.4	
194	2357.9	
194.21	2744.3	
194.42	4220.2	
194.64	4517.8	
194.85	2947.7	
195.07	3402.4	
195.28	4532.8	
195.49	4075.5	
195.71	3506.8	
195.92	2649.4	
196.13	4668	
196.35	4678.9	
196.56	3775.1	
196.78	2963.4	
196.99	5495.4	
197.2	5221	
197.42	3276.1	
197.63	3041.2	
197.84	4156	
198.06	4626.4	
198.27	2761.3	
198.48	3594.2	
198.7	4362.9	
198.91	4556.7	
199.13	3019.4	
199.34	3021.4	
199.55	4883	
199.77	3977.8	
199.98	2668.5	
200.19	3076	
200.41	4456.4	
200.62	4242.7	
200.83	3110.9	
201.05	3283.6	
201.26	4442	
201.47	4317.8	
201.69	2719	
201.9	2687.6	
202.11	4547.9	
202.33	5055.1	
202.54	2843.3	
202.76	3173.7	
202.97	4566.3	
203.18	4596.3	
203.4	3134.8	
203.61	3164.1	
203.82	4516.5	
204.04	4291.9	
204.25	3013.2	
204.46	2941.6	
204.68	4450.9	
204.89	4648.9	
205.1	2959.3	
205.32	2597.5	
205.53	4700.8	
205.74	4861.2	
205.96	2362	
206.17	3059.7	
206.38	4777.9	
206.6	4800.4	
206.81	3418.7	
207.02	2825.5	
207.24	4618.9	
207.45	4899.4	
207.66	2910.8	
207.88	2550.4	
208.09	4597.7	
208.3	4503.5	
208.52	2692.4	
208.73	2947.7	
208.94	4487.8	
209.15	4944.5	
209.37	2891	
209.58	2988	
209.79	4814.1	
210.01	4351.3	
210.22	2439.8	
210.43	2537.4	
210.65	4473.4	
210.86	4732.9	
211.07	2855.6	
211.29	2687.6	
211.5	4678.9	
211.71	4468.7	
211.93	2737.5	
212.14	2696.5	
212.35	4510.3	
212.56	4519.2	
212.78	3013.9	
212.99	2585.9	
213.2	5133.6	
213.42	4403.8	
213.63	2799.6	
213.84	2849.4	
214.06	4098.7	
214.27	4122.6	
214.48	2902.7	
214.69	3014.6	
214.91	4988.9	
215.12	5005.9	
215.33	3102.7	
215.55	3278.8	
215.76	5324	
215.97	4684.4	
216.18	2910.8	
216.4	2967.5	
216.61	4250.9	
216.82	4789.5	
217.04	2742.2	
217.25	2809.8	
217.46	4937.7	
217.67	4724.7	
217.89	2527.2	
218.1	2592.7	
218.31	4515.8	
218.53	4611.3	
218.74	2878.8	
218.95	2753.8	
219.16	4453.6	
219.38	5109	
219.59	2713.6	
219.8	3202.3	
220.01	5444.9	
220.23	4506.2	
220.44	3346.4	
220.65	2648.7	
220.87	4553.3	
221.08	4921.3	
221.29	2585.9	
221.5	3199.6	
221.72	5684.5	
221.93	4287.1	
222.14	3028.3	
222.35	3491.8	
222.57	4502.1	
222.78	4777.2	
222.99	2927.2	
223.2	3059	
223.42	4690.5	
223.63	4791.6	
223.84	2327.9	
224.05	2359.9	
224.27	5416.9	
224.48	5053.7	
224.69	3493.2	
224.9	3072.6	
225.12	4674.1	
225.33	4517.1	
225.54	2495.8	
225.75	2778.4	
225.97	4259.1	
226.18	4413.4	
226.39	2905.4	
226.6	2721.8	
226.82	4310.3	
227.03	4223.6	
227.24	3028.9	
227.45	2600.2	
227.67	4797	
227.88	5023	
228.09	3327.3	
228.3	3279.5	
228.52	4749.9	
228.73	4445.5	
228.94	2849.4	
229.15	2534.7	
229.36	4554.7	
229.58	4542.4	
229.79	2913.6	
230	3169.6	
230.21	5199.1	
230.43	4511.7	
230.64	3011.9	
230.85	3041.9	
231.06	4850.3	
231.28	4791.6	
231.49	2579.1	
231.7	2974.3	
231.91	4780	
232.12	4476.2	
232.34	2659.6	
232.55	2947.7	
232.76	4883	
232.97	4597.7	
233.18	2688.3	
233.4	3045.3	
233.61	4579.3	
233.82	4317.8	
234.03	2800.3	
234.25	2828.9	
234.46	5827.2	
234.67	4514.4	
234.88	3109.5	
235.09	2765.4	
235.31	4612	
235.52	4382.7	
235.73	2947.7	
235.94	2613.9	
236.15	4296.6	
236.37	5191.6	
236.58	2672.6	
236.79	2896.5	
237	4691.9	
237.21	4128	
237.43	3110.2	
237.64	2517	
237.85	7021.8	
238.06	4207.2	
238.27	3093.1	
238.48	2563.4	
238.7	4745.1	
238.91	4416.1	
239.12	2842.6	
239.33	2988	
239.54	4207.2	
239.76	4370.4	
239.97	2897.9	
240.18	2922.5	
240.39	5242.8	
240.6	4620.9	
240.82	3081.5	
241.03	2590	
241.24	4489.8	
241.45	5001.1	
241.66	2761.3	
241.87	3102	
242.09	5032.5	
242.3	5156.8	
242.51	3115	
242.72	2915.6	
242.93	4786.1	
243.14	4474.8	
243.36	3351.8	
243.57	3558.7	
243.78	5046.2	
243.99	4678.2	
244.2	2930	
244.41	2656.2	
244.63	4218.8	
244.84	4635.2	
245.05	3065.8	
245.26	2916.3	
245.47	4717.2	
245.68	4770.4	
245.9	3626.3	
246.11	3073.3	
246.32	4318.5	
246.53	4691.9	
246.74	4491.9	
246.95	2521.7	
247.16	4261.8	
247.38	4508.3	
247.59	2530.6	
247.8	2947	
248.01	4220.2	
248.22	4436.6	
248.43	2699.2	
248.64	2894.5	
248.86	4147.1	
249.07	4357.4	
249.28	2645.3	
249.49	3000.3	
249.7	4872.1	
249.91	4888.5	
250.12	2544.3	
250.34	2596.1	
250.55	4592.9	
250.76	4475.5	
250.97	3006.4	
251.18	3022.8	
251.39	4892.6	
251.6	4603.2	
251.81	3053.5	
252.03	2990.7	
252.24	4366.3	
252.45	4769	
252.66	2613.9	
252.87	3147	
253.08	4571.7	
253.29	5645.6	
253.5	2663	
253.72	3443.3	
253.93	4442.7	
254.14	5098.1	
254.35	2809.8	
254.56	2865.1	
254.77	4607.2	
254.98	4240	
255.19	2784.6	
255.41	3419.4	
255.62	4622.3	
255.83	4865.3	
256.04	3142.9	
256.25	2971.6	
256.46	5296.7	
256.67	4321.9	
256.88	2969.6	
257.09	3241.9	
257.31	4203.1	
257.52	4272.7	
257.73	3654.3	
257.94	2831	
258.15	4525.3	
258.36	4478.9	
258.57	3374.4	
258.78	2340.8	
258.99	4845.5	
259.2	4375.1	
259.41	2722.4	
259.63	2882.2	
259.84	5036.6	
260.05	5268.1	
260.26	3504.8	
260.47	2725.8	
260.68	4870.8	
260.89	4405.9	
261.1	3285.6	
261.31	2756.6	
261.52	4941.1	
261.73	5076.9	
261.95	3537.5	
262.16	3091.8	
262.37	4926.7	
262.58	5025.7	
262.79	3452.2	
263	2802.3	
263.21	4532.8	
263.42	4070	
263.63	3008.5	
263.84	2832.3	
264.05	4842.8	
264.26	5001.8	
264.47	3394.8	
264.69	3085.6	
264.9	5029.1	
265.11	4585.4	
265.32	2677.4	
265.53	2798.9	
265.74	4574.5	
265.95	4104.8	
266.16	2964.1	
266.37	3218.7	
266.58	4564.9	
266.79	4345.8	
267	2809.1	
267.21	2679.4	
267.42	4167.6	
267.63	4487.1	
267.84	2889.7	
268.06	2589.3	
268.27	4820.2	
268.48	4919.9	
268.69	2804.4	
268.9	3243.3	
269.11	4949.9	
269.32	4074.8	
269.53	2923.1	
269.74	2725.2	
269.95	4605.9	
270.16	4156.7	
270.37	2921.8	
270.58	3302.7	
270.79	4380.6	
271	4816.1	
271.21	3087.7	
271.42	2947	
271.63	4674.1	
271.84	4181.3	
272.05	2435	
272.26	2674	
272.47	4504.8	
272.68	4584.7	
272.89	2833	
273.11	3166.8	
273.32	4349.9	
273.53	5061.9	
273.74	3067.9	
273.95	3048.7	
274.16	4812	
274.37	4459.1	
274.58	3221.5	
274.79	2644.6	
275	4652.3	
275.21	4874.2	
275.42	3732.8	
275.63	3186.6	
275.84	4717.8	
276.05	5569.1	
276.26	3047.4	
276.47	2856.9	
276.68	4472.1	
276.89	5157.5	
277.1	3228.3	
277.31	2616.6	
277.52	4619.5	
277.73	4908.3	
277.94	2543.6	
278.15	2830.3	
278.36	4674.8	
278.57	4280.9	
278.78	2822.1	
278.99	3095.8	
279.2	4364.2	
279.41	4266.6	
279.62	3590.8	
279.83	2645.3	
280.04	5313.1	
280.25	4222.9	
280.46	3571.7	
280.67	2939.5	
280.88	4315.1	
281.09	4913.1	
281.3	2999.6	
281.51	3702	
281.72	4344.4	
281.93	4803.2	
282.14	2796.8	
282.35	2987.3	
282.56	4853	
282.77	4787.5	
282.98	2865.1	
283.19	3317.7	
283.4	5655.8	
283.61	4451.6	
283.82	2659.6	
284.03	3512.3	
284.24	4644.8	
284.45	4843.4	
284.66	3520.5	
284.87	3360	
285.08	4866.7	
285.29	4939	
285.5	2595.5	
285.71	2854.2	
285.92	4842.8	
286.12	5279.7	
286.33	3454.9	
286.54	2906.1	
286.75	4805.2	
286.96	4388.8	
287.17	2732	
287.38	3388.7	
287.59	4358.1	
287.8	4329.4	
288.01	2860.3	
288.22	3201.7	
288.43	4690.5	
288.64	4158.7	
288.85	3291.8	
289.06	3149.8	
289.27	4818.9	
289.48	5033.9	
289.69	3553.2	
289.9	3215.3	
290.11	4939	
290.32	4368.3	
290.53	3336.8	
290.74	3074.7	
290.94	4758.1	
291.15	4754	
291.36	2742.9	
291.57	3170.9	
291.78	4442.7	
291.99	4122.6	
292.2	2717.7	
292.41	3137.5	
292.62	4851.6	
292.83	4727.4	
293.04	3689.1	
293.25	2764.1	
293.46	4416.8	
293.67	4810.7	
293.88	2737.5	
294.09	2736.1	
294.29	4232.5	
294.5	4579.9	
294.71	2947.7	
294.92	2822.1	
295.13	4377.9	
295.34	5272.8	
295.55	2572.9	
295.76	2576.3	
295.97	4778.6	
296.18	5179.3	
296.39	2607.1	
296.6	2818.7	
296.81	4500.8	
297.01	4813.4	
297.22	2874	
297.43	2811.9	
297.64	4377.2	
297.85	4221.5	
298.06	2337.4	
298.27	2580.4	
298.48	4446.1	
298.69	4315.8	
298.9	2968.2	
299.11	2741.5	
299.31	4216.1	
299.52	4243.4	
299.73	3116.3	
299.94	3028.3	
300.15	4540.3	
300.36	4299.4	
300.57	3091.1	
300.78	3039.9	
300.99	4416.1	
301.2	4554.7	
301.4	2788	
301.61	2975	
301.82	4714.4	
302.03	4764.3	
302.24	3270.6	
302.45	2705.4	
302.66	4690.5	
302.87	4888.5	
303.08	2785.2	
303.29	3582.6	
303.49	4372.4	
303.7	4429.8	
303.91	2581.8	
304.12	3408.5	
304.33	4123.2	
304.54	4636.6	
304.75	2779.8	
304.96	2653.5	
305.16	4747.9	
305.37	5151.3	
305.58	2517.6	
305.79	2591.4	
306	4749.2	
306.21	4093.2	
306.42	2750.4	
306.63	3917.1	
306.83	4428.4	
307.04	4745.8	
307.25	2972.3	
307.46	2965.5	
307.67	4048.8	
307.88	4744.5	
308.09	2746.3	
308.29	2820.1	
308.5	4526.7	
308.71	4797.7	
308.92	2914.9	
309.13	2700.6	
309.34	4463.2	
309.55	4441.4	
309.75	3321.1	
309.96	3054.9	
310.17	4791.6	
310.38	4301.4	
310.59	3164.1	
310.8	2598.9	
311.01	5166.3	
311.21	4463.2	
311.42	2722.4	
311.63	2751.1	
311.84	4365.6	
312.05	4584.7	
312.26	3051.5	
312.46	3240.6	
312.67	4402.5	
312.88	4132.1	
313.09	2678.7	
313.3	2657.6	
313.51	5019.6	
313.71	5220.3	
313.92	2727.2	
314.13	2768.9	
314.34	4650.9	
314.55	4445.5	
314.76	3261.7	
314.96	2982.5	
315.17	4651.6	
315.38	4603.2	
315.59	2770.2	
315.8	2629.6	
316.01	4982	
316.21	5102.2	
316.42	2618	
316.63	2946.3	
316.84	4470	
317.05	4887.8	
317.26	3046	
317.46	2865.8	
317.67	4459.1	
317.88	4745.8	
318.09	3307.5	
318.3	2570.2	
318.5	4408.6	
318.71	4692.6	
318.92	4052.9	
319.13	3089	
319.34	4821.6	
319.54	4948.6	
319.75	2549	
319.96	2450.7	
320.17	4653	
320.38	4852.3	
320.58	2527.9	
320.79	2884.2	
321	4881.7	
321.21	4948.6	
321.42	2930	
321.62	2532.7	
321.83	4292.5	
322.04	4494.6	
322.25	2882.2	
322.46	2713.6	
322.66	4509.6	
322.87	4693.9	
323.08	3192.8	
323.29	2620	
323.5	5283.1	
323.7	4187.4	
323.91	3463.1	
324.12	3170.3	
324.33	4614.1	
324.53	4704.2	
324.74	3044	
324.95	3222.1	
325.16	4141.7	
325.37	4403.1	
325.57	2708.1	
325.78	2699.2	
325.99	4613.4	
326.2	4103.4	
326.4	3680.2	
326.61	2581.1	
326.82	4469.4	
327.03	4549.9	
327.24	3653.6	
327.44	3398.3	
327.65	4683.7	
327.86	3916.4	
328.07	3104.7	
328.27	2620.7	
328.48	5010.7	
328.69	4214.7	
328.9	3665.2	
329.1	2822.8	
329.31	4457.7	
329.52	4943.8	
329.73	2778.4	
329.93	2873.3	
330.14	4607.2	
330.35	4635.9	
330.56	4115.1	
330.76	3188	
330.97	4395.6	
331.18	4573.1	
331.39	2945	
331.59	2496.5	
331.8	4914.4	
332.01	4983.4	
332.22	2791.4	
332.42	3028.3	
332.63	4599.1	
332.84	4261.8	
333.05	2987.3	
333.25	2774.3	
333.46	4340.3	
333.67	4456.4	
333.88	2820.7	
334.08	3006.4	
334.29	5693.4	
334.5	4909.7	
334.7	2660.3	
334.91	3592.1	
335.12	4190.1	
335.33	4702.1	
335.53	2978.4	
335.74	4070.7	
335.95	4431.8	
336.16	4183.3	
336.36	2936.8	
336.57	3334.1	
336.78	4156.7	
336.98	4845.5	
337.19	3531.4	
337.4	2899.2	
337.61	5281	
337.81	4179.9	
338.02	2781.8	
338.23	3369.6	
338.43	4984.1	
338.64	4265.9	
338.85	2760.7	
339.05	3433.1	
339.26	5051.7	
339.47	4130.8	
339.68	2679.4	
339.88	3767.6	
340.09	4710.3	
340.3	4791.6	
340.5	3085.6	
340.71	2486.9	
340.92	4214.7	
341.13	4879.6	
341.33	2625.5	
341.54	3059	
341.75	4646.8	
341.95	4327.4	
342.16	3000.3	
342.37	3142.9	
342.57	4221.5	
342.78	4402.5	
342.99	3242.6	
343.19	2529.9	
343.4	4737.6	
343.61	4682.3	
343.81	2843.9	
344.02	2603	
344.23	4732.2	
344.43	5022.3	
344.64	3275.4	
344.85	3157.3	
345.06	4664.6	
345.26	4809.3	
345.47	3127.2	
345.68	3476.8	
345.88	4171	
346.09	4756.7	
346.3	3072	
346.5	2439.8	
346.71	4444.1	
346.92	4328.7	
347.12	2646.7	
347.33	2967.5	
347.54	4770.4	
347.74	5077.6	
347.95	3029.6	
348.16	2405.7	
348.36	4321.9	
348.57	4219.5	
348.78	3082.2	
348.98	3201.7	
349.19	4409.3	
349.39	4066.6	
349.6	2587.3	
349.81	2717	
350.01	4728.1	
350.22	4253.6	
350.43	2958.6	
350.63	3431	
350.84	4491.9	
351.05	4234.5	
351.25	2694.4	
351.46	2529.9	
351.67	4771.8	
351.87	4250.2	
352.08	2871.3	
352.29	3167.5	
352.49	4802.5	
352.7	4517.1	
352.9	2622.1	
353.11	3176.4	
353.32	5145.9	
353.52	4325.3	
353.73	2704.7	
353.94	3205.8	
354.14	4605.9	
354.35	4446.1	
354.55	2719	
354.76	2950.4	
354.97	4616.8	
355.17	4394.9	
355.38	2599.6	
355.59	3338.2	
355.79	4210.6	
356	4394.3	
356.2	2908.1	
356.41	2605.7	
356.62	4119.1	
356.82	4362.9	
357.03	3103.4	
357.24	2796.2	
357.44	4198.3	
357.65	4242	
357.85	3525.2	
358.06	2934.1	
358.27	4024.3	
358.47	4134.8	
358.68	2517.6	
358.88	3043.3	
359.09	4562.2	
359.3	4713.7	
359.5	3492.5	
359.71	3119.7	
359.91	4994.3	
360.12	4526	
360.33	3045.3	
360.53	3368.2	
360.74	4207.2	
360.94	4210.6	
361.15	3130	
361.36	2723.8	
361.56	4670.7	
361.77	4389.5	
361.97	3467.2	
362.18	2826.9	
362.38	4699.4	
362.59	4110.3	
362.8	2648	
363	2609.1	
363.21	4017.4	
363.41	4396.3	
363.62	2926.5	
363.83	3506.1	
364.03	4548.5	
364.24	4876.2	
364.44	3659	
364.65	3563.5	
364.85	4317.1	
365.06	4167.6	
365.27	2772.3	
365.47	2824.8	
365.68	4932.2	
365.88	4346.5	
366.09	3005.7	
366.29	2764.1	
366.5	4397	
366.71	4681	
366.91	3613.3	
367.12	3106.1	
367.32	5124	
367.53	4611.3	
367.73	3113.6	
367.94	3664.5	
368.14	4657.8	
368.35	5029.1	
368.56	3059.7	
368.76	2825.5	
368.97	4689.2	
369.17	5582.8	
369.38	2725.2	
369.58	2906.1	
369.79	4040.6	
369.99	4930.8	
370.2	3507.5	
370.4	2970.9	
370.61	4422.9	
370.82	5253	
371.02	2962.7	
371.23	2509.4	
371.43	4133.5	
371.64	4898.1	
371.84	2979.8	
372.05	3549.8	
372.25	5528.2	
372.46	4513	
372.66	2887	
372.87	2863.7	
373.07	4576.5	
373.28	5670.8	
373.48	3472.7	
373.69	3207.8	
373.9	4298.7	
374.1	4353.3	
374.31	3452.9	
374.51	3108.8	
374.72	4732.9	
374.92	4153.3	
375.13	3457	
375.33	3009.8	
375.54	4474.8	
375.74	4248.2	
375.95	3067.2	
376.15	3773	
376.36	4590.9	
376.56	4405.2	
376.77	3063.1	
376.97	3241.9	
377.18	5217.5	
377.38	4608.6	
377.59	3385.3	
377.79	2771.6	
378	4371	
378.2	4600.4	
378.41	2835.1	
378.61	2727.9	
378.82	4730.1	
379.02	4238.6	
379.23	2857.6	
379.43	3497.9	
379.64	4878.3	
379.84	4496.7	
380.05	2820.7	
380.25	2756.6	
380.46	4571.1	
380.66	4328.7	
380.87	3551.9	
381.07	3799	
381.28	4930.8	
381.48	4583.4	
381.69	2769.5	
381.89	2928.6	
382.1	4003.1	
382.3	4606.6	
382.51	3436.5	
382.71	3911.6	
382.91	4474.1	
383.12	4805.2	
383.32	2982.5	
383.53	3117	
383.73	4472.1	
383.94	4403.8	
384.14	3151.1	
384.35	2640.5	
384.55	4291.2	
384.76	4516.5	
384.96	3049.4	
385.17	3169.6	
385.37	4601.1	
385.58	4162.2	
385.78	3201	
385.98	2641.9	
386.19	4275.5	
386.39	4575.8	
386.6	2891	
386.8	2988.7	
387.01	4525.3	
387.21	4633.9	
387.42	3236.5	
387.62	3607.2	
387.83	4229.7	
388.03	4385.4	
388.23	3043.3	
388.44	3483.6	
388.64	4066.6	
388.85	4056.3	
389.05	3248.1	
389.26	3517.7	
389.46	5274.2	
389.67	4764.9	
389.87	3216	
390.07	3211.9	
390.28	4252.9	
390.48	4076.8	
390.69	2698.5	
390.89	2929.3	
391.1	4259.1	
391.3	4691.2	
391.5	3616.7	
391.71	3915	
391.91	4579.9	
392.12	5012.1	
392.32	3680.2	
392.53	3224.9	
392.73	4292.5	
392.93	4389.5	
393.14	3024.8	
393.34	3437.2	
393.55	4627.7	
393.75	4336.2	
393.95	3039.9	
394.16	3013.9	
394.36	4264.6	
394.57	4655	
394.77	2788	
394.98	2926.5	
395.18	4218.1	
395.38	4168.3	
395.59	3400.3	
395.79	2846	
396	4336.2	
396.2	4640.7	
396.4	3300	
396.61	3261.7	
396.81	4537.6	
397.02	4128.7	
397.22	3381.2	
397.42	3381.9	
397.63	4606.6	
397.83	4116.4	
398.04	2801.6	
398.24	3056.3	
398.44	4433.9	
398.65	3820.8	
398.85	2689	
399.05	2700.6	
399.26	4183.3	
399.46	5089.9	
399.67	2957.3	
399.87	2831.7	
400.07	4292.5	
400.28	4478.2	
400.48	2817.3	
400.69	3449.5	
400.89	4515.8	
401.09	4835.3	
401.3	2781.1	
401.5	3346.4	
401.7	4887.8	
401.91	5102.9	
402.11	2983.2	
402.32	3063.8	
402.52	4635.2	
402.72	4506.9	
402.93	3237.8	
403.13	2662.4	
403.33	5100.8	
403.54	4345.1	
403.74	3063.8	
403.94	3592.1	
404.15	4396.3	
404.35	5115.1	
404.56	2955.9	
404.76	3988.8	
404.96	4598.4	
405.17	4427	
405.37	3364.1	
405.57	3214.6	
405.78	4624.3	
405.98	4309.6	
406.18	2906.1	
406.39	3408.5	
406.59	4606.6	
406.79	4277.5	
407	2794.1	
407.2	2833	
407.4	4806.6	
407.61	4660.5	
407.81	2860.3	
408.01	4072	
408.22	3955.3	
408.42	4989.5	
408.62	3423.5	
408.83	3082.2	
409.03	4180.6	
409.23	4232.5	
409.44	3021.4	
409.64	3174.4	
409.84	4734.2	
410.05	4674.8	
410.25	3064.4	
410.45	2992.1	
410.66	4313.7	
410.86	5796.4	
411.06	3125.9	
411.27	3077.4	
411.47	5568.4	
411.67	4347.2	
411.88	3149.1	
412.08	3254.9	
412.28	4719.9	
412.49	4970.4	
412.69	3033.7	
412.89	3030.3	
413.09	4903.5	
413.3	4820.2	
413.5	3074	
413.7	2883.5	
413.91	4407.9	
414.11	4855.1	
414.31	2906.1	
414.52	3114.3	
414.72	4681.7	
414.92	4528.1	
415.12	2961.4	
415.33	3213.3	
415.53	4787.5	
415.73	4912.4	
415.94	3388	
416.14	3026.2	
416.34	4262.5	
416.55	4060.4	
416.75	3723.9	
416.95	3406.5	
417.15	4838	
417.36	5166.3	
417.56	3835.8	
417.76	3240.6	
417.97	4833.2	
418.17	4722.6	
418.37	3097.9	
418.57	3005.7	
418.78	4739.7	
418.98	4529.4	
419.18	3579.8	
419.38	3466.5	
419.59	4416.8	
419.79	4321.2	
419.99	3016	
420.2	3163.4	
420.4	4795.7	
420.6	4765.6	
420.8	2960	
421.01	2869.2	
421.21	4644.1	
421.41	4646.8	
421.61	3106.8	
421.82	3041.9	
422.02	4435.9	
422.22	4948.6	
422.42	3471.3	
422.63	3268.6	
422.83	4430.4	
423.03	5171.8	
423.23	3330.7	
423.44	2720.4	
423.64	4381.3	
423.84	4302.1	
424.04	3019.4	
424.25	2806.4	
424.45	5026.4	
424.65	5011.4	
424.85	2734.7	
425.06	3026.2	
425.26	5200.5	
425.46	4472.8	
425.66	3303.4	
425.87	3112.2	
426.07	4831.8	
426.27	4724	
426.47	3161.4	
426.67	2854.9	
426.88	5173.9	
427.08	4721.9	
427.28	3382.6	
427.48	2829.6	
427.69	4302.8	
427.89	4549.2	
428.09	3235.8	
428.29	2798.9	
428.5	4823.6	
428.7	4726	
428.9	2808.4	
429.1	3090.4	
429.3	4690.5	
429.51	4831.8	
429.71	3003.7	
429.91	3405.8	
430.11	4858.5	
430.31	5070.1	
430.52	3120.4	
430.72	3177.1	
430.92	5094	
431.12	4721.9	
431.32	2889.7	
431.53	3189.4	
431.73	4193.6	
431.93	5087.2	
432.13	2897.2	
432.33	2811.9	
432.54	4487.8	
432.74	4521.9	
432.94	2719	
433.14	3328.6	
433.34	4854.4	
433.55	4526.7	
433.75	3300.6	
433.95	4235.2	
434.15	4641.4	
434.35	4371	
434.56	2891.7	
434.76	2538.8	
434.96	4532.2	
435.16	4627.7	
435.36	2733.4	
435.56	3360	
435.77	4310.3	
435.97	4460.5	
436.17	3614.7	
436.37	3271.3	
436.57	4249.5	
436.78	4229.1	
436.98	4366.3	
437.18	3695.2	
437.38	4500.1	
437.58	4356	
437.78	3706.1	
437.99	2918.4	
438.19	4767.7	
438.39	5165	
438.59	2978.4	
438.79	2689.7	
438.99	5130.8	
439.2	4389.5	
439.4	2654.9	
439.6	2713.6	
439.8	4446.1	
440	5068.7	
440.2	3236.5	
440.4	3217.4	
440.61	4785.4	
440.81	4950.6	
441.01	2728.6	
441.21	3141.6	
441.41	4900.1	
441.61	4698.7	
441.81	3349.8	
442.02	3969	
442.22	5203.9	
442.42	4778.6	
442.62	2711.5	
442.82	2871.3	
443.02	5004.6	
443.22	4457.7	
443.43	2963.4	
443.63	2722.4	
443.83	4377.2	
444.03	4258.4	
444.23	3285.6	
444.43	3112.9	
444.63	4492.6	
444.83	5094.7	
445.04	2771.6	
445.24	3449.5	
445.44	4713.1	
445.64	4703.5	
445.84	3263.8	
446.04	3205.1	
446.24	4372.4	
446.44	4926.7	
446.65	2826.2	
446.85	2990	
447.05	4479.6	
447.25	4915.1	
447.45	3084.9	
447.65	2748.4	
447.85	4629.1	
448.05	4324.6	
448.25	3256.3	
448.46	3099.9	
448.66	4564.9	
448.86	4375.8	
449.06	2699.9	
449.26	3236.5	
449.46	4746.5	
449.66	4336.9	
449.86	2950.4	
450.06	2968.2	
450.26	4339	
450.47	4583.4	
450.67	3121.8	
450.87	3252.2	
451.07	4864.6	
451.27	4530.8	
451.47	2734	
451.67	3188	
451.87	4301.4	
452.07	5067.4	
452.27	2839.8	
452.47	2859.6	
452.67	4579.9	
452.88	4704.2	
453.08	2593.4	
453.28	3581.9	
453.48	5217.5	
453.68	4485.7	
453.88	2753.2	
454.08	2889.7	
454.28	4683	
454.48	4485.1	
454.68	3136.1	
454.88	3455.6	
455.08	4868.7	
455.28	4450.2	
455.48	2780.5	
455.68	3055.6	
455.89	5002.5	
456.09	4770.4	
456.29	2862.4	
456.49	2935.4	
456.69	4840	
456.89	4370.4	
457.09	3140.2	
457.29	3312.9	
457.49	4627	
457.69	4589.5	
457.89	2938.8	
458.09	2639.1	
458.29	4442	
458.49	4876.9	
458.69	3080.1	
458.89	2798.2	
459.09	4838	
459.29	4946.5	
459.49	2837.1	
459.69	3279.5	
459.9	4715.8	
460.1	4319.8	
460.3	2831.7	
460.5	2725.2	
460.7	4668	
460.9	4351.3	
461.1	2557.2	
461.3	3102	
461.5	4979.3	
461.7	4754.7	
461.9	2656.9	
462.1	3003.7	
462.3	4449.6	
462.5	4715.1	
462.7	2669.9	
462.9	2701.3	
463.1	5295.4	
463.3	5048.2	
463.5	2824.1	
463.7	3270.6	
463.9	4461.2	
464.1	4638	
464.3	2765.4	
464.5	2963.4	
464.7	4755.4	
464.9	4496	
465.1	3649.5	
465.3	3080.8	
465.5	4873.5	
465.7	4911.7	
465.9	3214.6	
466.1	3123.2	
466.3	4658.4	
466.5	4719.9	
466.7	3515	
466.9	2984.6	
467.1	4793.6	
467.3	5130.8	
467.5	3507.5	
467.7	2860.3	
467.9	5345.2	
468.1	5732.9	
468.3	3299.3	
468.5	3455.6	
468.7	4549.9	
468.9	4509.6	
469.1	2959.3	
469.3	3353.9	
469.5	5640.1	
469.7	4348.5	
469.9	3362.1	
470.1	2820.1	
470.3	4650.9	
470.5	4579.3	
470.7	3550.5	
470.9	2956.6	
471.1	4390.2	
471.3	4818.2	
471.5	2798.2	
471.69	3929.4	
471.89	4496	
472.09	4149.2	
472.29	3194.8	
472.49	3491.8	
472.69	4257.7	
472.89	4608.6	
473.09	2788	
473.29	2932	
473.49	4466.6	
473.69	4412	
473.89	3386	
474.09	2992.1	
474.29	5200.5	
474.49	4968.4	
474.69	3326.6	
474.89	3022.8	
475.09	4494.6	
475.29	4431.8	
475.49	2770.9	
475.69	2867.2	
475.88	5418.2	
476.08	4743.8	
476.28	2654.9	
476.48	2965.5	
476.68	5036	
476.88	4773.1	
477.08	2975	
477.28	3037.1	
477.48	4685.8	
477.68	4969.1	
477.88	2753.2	
478.08	2980.5	
478.28	5087.2	
478.48	4627.7	
478.67	2993.4	
478.87	2704	
479.07	4895.3	
479.27	4719.9	
479.47	3140.9	
479.67	3158	
479.87	4885.1	
480.07	5183.4	
480.27	2775	
480.47	3564.8	
480.67	4685.8	
480.87	5063.3	
481.06	2922.5	
481.26	3377.1	
481.46	4732.9	
481.66	4597	
481.86	3220.1	
482.06	3652.9	
482.26	4505.5	
482.46	5145.2	
482.66	3053.5	
482.86	2866.5	
483.05	4841.4	
483.25	4312.3	
483.45	4597	
483.65	3021.4	
483.85	4349.2	
484.05	4598.4	
484.25	3336.1	
484.45	3448.8	
484.65	4943.1	
484.84	5051	
485.04	2940.9	
485.24	2983.9	
485.44	5268.7	
485.64	4320.5	
485.84	2669.9	
486.04	3282.2	
486.24	4490.5	
486.44	4608.6	
486.63	2606.4	
486.83	3015.3	
487.03	4426.3	
487.23	4395.6	
487.43	2706	
487.63	3832.4	
487.83	4524	
488.02	4838.7	
488.22	3011.9	
488.42	3373.7	
488.62	5036.6	
488.82	4281.6	
489.02	2920.4	
489.22	2861.7	
489.41	4834.6	
489.61	4715.1	
489.81	2681.5	
490.01	2741.5	
490.21	4763.6	
490.41	5248.3	
490.61	2679.4	
490.8	2783.2	
491	4551.3	
491.2	4321.2	
491.4	3142.9	
491.6	2680.8	
491.8	4675.5	
491.99	4577.9	
492.19	2639.1	
492.39	2728.6	
492.59	4803.2	
492.79	4983.4	
492.99	3203	
493.18	2717	
493.38	4982	
493.58	5259.9	
493.78	3028.9	
493.98	2786.6	
494.18	4691.2	
494.37	4249.5	
494.57	3031	
494.77	2953.2	
494.97	4660.5	
495.17	4689.2	
495.37	2770.2	
495.56	2975	
495.76	4788.8	
495.96	4666.6	
496.16	3409.9	
496.36	2783.2	
496.55	4724.7	
496.75	4365.6	
496.95	2949.8	
497.15	2895.1	
497.35	4734.2	
497.54	4592.2	
497.74	2797.5	
497.94	3820.1	
498.14	5131.5	
498.34	4866.7	
498.53	2590	
498.73	2998.9	
498.93	4227	
499.13	4597.7	
499.33	2869.2	
499.52	3126.6	
499.72	4666.6	
499.92	4749.2	
500.12	2607.7	
500.32	2799.6	
500.51	4687.1	
500.71	4517.8	
500.91	3200.3	
501.11	3026.9	
501.31	4628.4	
501.5	4980.7	
501.7	3420.1	
501.9	2824.8	
502.1	4531.5	
502.29	4823.6	
502.49	3035.8	
502.69	3358	
502.89	4726	
503.09	4702.8	
503.28	2667.1	
503.48	2708.8	
503.68	4485.7	
503.88	4284.4	
504.07	3226.2	
504.27	2954.5	
504.47	4519.9	
504.67	4683	
504.86	3212.6	
505.06	3041.2	
505.26	4585.4	
505.46	5330.9	
505.65	3009.8	
505.85	3166.2	
506.05	4524	
506.25	4706.9	
506.44	2717	
506.64	3216	
506.84	4448.9	
507.04	4861.9	
507.23	2895.8	
507.43	3132.7	
507.63	5520.6	
507.83	4485.1	
508.02	3134.1	
508.22	2899.9	
508.42	5697.4	
508.62	4384	
508.81	3065.1	
509.01	3345	
509.21	4444.8	
509.4	4616.1	
509.6	3226.2	
509.8	2818	
510	4543.8	
510.19	5173.9	
510.39	2749.7	
510.59	2860.3	
510.79	4448.9	
510.98	5087.2	
511.18	2970.9	
511.38	2938.2	
511.57	5072.1	
511.77	4590.2	
511.97	3324.5	
512.17	2839.2	
512.36	4872.8	
512.56	4825	
512.76	2810.5	
512.95	2717.7	
513.15	5013.4	
513.35	4133.5	
513.55	3318.4	
513.74	2820.7	
513.94	4907.6	
514.14	4536.3	
514.33	3368.9	
514.53	3157.3	
514.73	4617.5	
514.92	4590.2	
515.12	2794.1	
515.32	2775.7	
515.51	4661.2	
515.71	4828.4	
515.91	3827	
516.11	2742.9	
516.3	5486.5	
516.5	4444.8	
516.7	3150.5	
516.89	3349.8	
517.09	4434.5	
517.29	4463.2	
517.48	3290.4	
517.68	2940.9	
517.88	4231.1	
518.07	4684.4	
518.27	3254.2	
518.47	2696.5	
518.66	4979.3	
518.86	4292.5	
519.06	2641.2	
519.25	2848	
519.45	4416.8	
519.65	5162.9	
519.84	3215.3	
520.04	3630.4	
520.24	5362.3	
520.43	4764.3	
520.63	3108.1	
520.83	2954.5	
521.02	4446.8	
521.22	4746.5	
521.42	3253.5	
521.61	3544.4	
521.81	4525.3	
522.01	4695.3	
522.2	3120.4	
522.4	3009.8	
522.6	4922	
522.79	4118.5	
522.99	3013.9	
523.18	2608.4	
523.38	4667.3	
523.58	4586.1	
523.77	3581.9	
523.97	2600.9	
524.17	5532.2	
524.36	5141.8	
524.56	3288.4	
524.76	3041.9	
524.95	4472.1	
525.15	4365.6	
525.34	2823.5	
525.54	2866.5	
525.74	4648.9	
525.93	4161.5	
526.13	3487.7	
526.33	2784.6	
526.52	4830.5	
526.72	4453	
526.91	3505.4	
527.11	3030.3	
527.31	4745.8	
527.5	4909	
527.7	3007.1	
527.89	2517.6	
528.09	4260.5	
528.29	4408.6	
528.48	3237.2	
528.68	3072	
528.87	4681.7	
529.07	4743.8	
529.27	2927.9	
529.46	2707.4	
529.66	4562.2	
529.85	4705.5	
530.05	2665.1	
530.25	3046	
530.44	5251	
530.64	4444.1	
530.83	2827.6	
531.03	2884.9	
531.23	4838	
531.42	4629.8	
531.62	3301.3	
531.81	2895.1	
532.01	4761.5	
532.21	4871.4	
532.4	2637.1	
532.6	2819.4	
532.79	5203.2	
532.99	4603.2	
533.18	2896.5	
533.38	3433.1	
533.58	4389.5	
533.77	4733.5	
533.97	2813.2	
534.16	3219.4	
534.36	4911	
534.55	4306.2	
534.75	3355.9	
534.95	2795.5	
535.14	4799.8	
535.34	4296	
535.53	2648.7	
535.73	3702.7	
535.92	5122	
536.12	4365.6	
536.31	2770.2	
536.51	3433.1	
536.71	4706.2	
536.9	4424.3	
537.1	2829.6	
537.29	2896.5	
537.49	4859.8	
537.68	4371.7	
537.88	3105.4	
538.07	2643.2	
538.27	4545.8	
538.46	5014.8	
538.66	2618	
538.86	2736.1	
539.05	4578.6	
539.25	4713.1	
539.44	2975	
539.64	2735.4	
539.83	4405.9	
540.03	4963.6	
540.22	2669.9	
540.42	2842.6	
540.61	4681	
540.81	4644.1	
541	3032.4	
541.2	3391.4	
541.39	4384	
541.59	4470.7	
541.78	3223.5	
541.98	2838.5	
542.18	4187.4	
542.37	4201.7	
542.57	3069.2	
542.76	3237.8	
542.96	4394.9	
543.15	4577.9	
543.35	3050.8	
543.54	2691	
543.74	4680.3	
543.93	4582	
544.13	3065.1	
544.32	3710.2	
544.52	4895.3	
544.71	4396.3	
544.91	2609.1	
545.1	3287	
545.3	4455.7	
545.49	4678.9	
545.69	2613.9	
545.88	2926.5	
546.08	5279	
546.27	4960.2	
546.47	3214.6	
546.66	2805.7	
546.86	4844.1	
547.05	5165.7	
547.24	2943.6	
547.44	2869.9	
547.63	4418.8	
547.83	4838.7	
548.02	3059	
548.22	3239.2	
548.41	4222.9	
548.61	4964.3	
548.8	2865.1	
549	2899.9	
549.19	4711.7	
549.39	4892.6	
549.58	2724.5	
549.78	3042.6	
549.97	4854.4	
550.17	4553.3	
550.36	3543	
550.55	4183.3	
550.75	4567	
550.94	5132.9	
551.14	2860.3	
551.33	3145.7	
551.53	4272.1	
551.72	4805.9	
551.92	3102	
552.11	3044	
552.31	4949.3	
552.5	4812.7	
552.69	4007.9	
552.89	2856.2	
553.08	4792.2	
553.28	4659.1	
553.47	3028.3	
553.67	3683.6	
553.86	5229.1	
554.06	4237.2	
554.25	2684.2	
554.44	2857.6	
554.64	5675.6	
554.83	5362.3	
555.03	2825.5	
555.22	3117	
555.42	5051.7	
555.61	4808.6	
555.8	3020.8	
556	3162.7	
556.19	4418.8	
556.39	4987.5	
556.58	3048.1	
556.78	3115	
556.97	4796.3	
557.16	4577.2	
557.36	3789.4	
557.55	2784.6	
557.75	4243.4	
557.94	5287.9	
558.13	2959.3	
558.33	2859.6	
558.52	5103.5	
558.72	4360.8	
558.91	2899.9	
559.1	2978.4	
559.3	4343.1	
559.49	4214.7	
559.69	2783.2	
559.88	3173	
560.07	4774.5	
560.27	5097.4	
560.46	3312.2	
560.66	3446	
560.85	4737.6	
561.04	4261.8	
561.24	2840.5	
561.43	3018	
561.63	4392.2	
561.82	4623.6	
562.01	3667.2	
562.21	3130.7	
562.4	4749.2	
562.59	5234.6	
562.79	3119.7	
562.98	2852.1	
563.18	4706.2	
563.37	5526.8	
563.56	3278.8	
563.76	2884.9	
563.95	4431.8	
564.14	4492.6	
564.34	3061	
564.53	2848	
564.73	4777.9	
564.92	4799.8	
565.11	3109.5	
565.31	2746.3	
565.5	5033.2	
565.69	4323.3	
565.89	2980.5	
566.08	3013.2	
566.27	4894	
566.47	5102.9	
566.66	3417.4	
566.85	2695.8	
567.05	4769	
567.24	4437.9	
567.44	2798.9	
567.63	3616	
567.82	4890.5	
568.02	4619.5	
568.21	2832.3	
568.4	3024.2	
568.6	4601.1	
568.79	4478.2	
568.98	2802.3	
569.18	2768.2	
569.37	4517.1	
569.56	5688.6	
569.76	3044.6	
569.95	3567.6	
570.14	4805.9	
570.34	4619.5	
570.53	2766.8	
570.72	2784.6	
570.91	5092.6	
571.11	4629.1	
571.3	3102.7	
571.49	3586	
571.69	4622.9	
571.88	4326	
572.07	3245.3	
572.27	3308.8	
572.46	4255	
572.65	4838	
572.85	2874.7	
573.04	3034.4	
573.23	4971.8	
573.43	4609.3	
573.62	2769.5	
573.81	3069.9	
574	4664.6	
574.2	4490.5	
574.39	2854.2	
574.58	3000.3	
574.78	4979.3	
574.97	4621.6	
575.16	3140.2	
575.36	3192.1	
575.55	4855.7	
575.74	4923.3	
575.93	2635.7	
576.13	3188.7	
576.32	4478.2	
576.51	4716.5	
576.71	2943.6	
576.9	3669.3	
577.09	4960.9	
577.28	4657.8	
577.48	3099.9	
577.67	2628.2	
577.86	4565.6	
578.05	4714.4	
578.25	2945	
578.44	3028.3	
578.63	4552	
578.83	5210	
579.02	2687.6	
579.21	3461.7	
579.4	4567.7	
579.6	4493.2	
579.79	3032.4	
579.98	4291.9	
580.17	4753.3	
580.37	4924.7	
580.56	2746.3	
580.75	3145.7	
580.94	4949.9	
581.14	5079	
581.33	3393.5	
581.52	2848	
581.71	4665.3	
581.91	5184.1	
582.1	2671.2	
582.29	2975	
582.48	4481.6	
582.68	4464.6	
582.87	3175.7	
583.06	3054.9	
583.25	4769	
583.45	4555.4	
583.64	3349.1	
583.83	3718.4	
584.02	4543.8	
584.21	4679.6	
584.41	3304.7	
584.6	2929.3	
584.79	4556.7	
584.98	4837.3	
585.18	2727.9	
585.37	2726.5	
585.56	4394.9	
585.75	4732.9	
585.94	2799.6	
586.14	3173	
586.33	5113.1	
586.52	4477.5	
586.71	3125.2	
586.91	2962	
587.1	4221.5	
587.29	4840	
587.48	2997.5	
587.67	2897.9	
587.87	4840.7	
588.06	4745.8	
588.25	3719.8	
588.44	3289.7	
588.63	4517.8	
588.83	4893.3	
589.02	3088.3	
589.21	2985.9	
589.4	4684.4	
589.59	4568.3	
589.78	2716.3	
589.98	2886.3	
590.17	4382	
590.36	4577.9	
590.55	2586.6	
590.74	3092.4	
590.94	5472.9	
591.13	4714.4	
591.32	2985.3	
591.51	2714.2	
591.7	4897.4	
591.89	4684.4	
592.09	2751.8	
592.28	2988	
592.47	4179.2	
592.66	5364.3	
592.85	2711.5	
593.05	2908.8	
593.24	4628.4	
593.43	5129.5	
593.62	2962	
593.81	3230.3	
594	4596.3	
594.19	4726.7	
594.39	2835.8	
594.58	2822.8	
594.77	4780.6	
594.96	5102.9	
595.15	2872.6	
595.34	3162.1	
595.54	4750.6	
595.73	4351.3	
595.92	2529.2	
596.11	3132	
596.3	5126.1	
596.49	4463.9	
596.68	3075.4	
596.88	3261.7	
597.07	4857.1	
597.26	4288.4	
597.45	2818	
597.64	3395.5	
597.83	4471.4	
598.02	4762.2	
598.22	2843.9	
598.41	3191.4	
598.6	4712.4	
598.79	4311	
598.98	2865.8	
599.17	3356.6	
599.36	4726	
599.55	5341.1	
599.74	3948.5	
599.94	3809.9	
600.13	4994.3	
600.32	4369.7	
600.51	2644.6	
600.7	2794.1	
600.89	5436.7	
601.08	5442.8	
601.27	2695.1	
601.47	3136.1	
601.66	4909.7	
601.85	5264.6	
602.04	3029.6	
602.23	3134.1	
602.42	4405.9	
602.61	4819.6	
602.8	2967.5	
602.99	2951.1	
603.18	4565.6	
603.37	4725.3	
603.57	3207.8	
603.76	3565.5	
603.95	5171.1	
604.14	4873.5	
604.33	2947.7	
604.52	3075.4	
604.71	4733.5	
604.9	4442	
605.09	3417.4	
605.28	3334.1	
605.47	5042.1	
605.66	4863.9	
605.86	3214.6	
606.05	2948.4	
606.24	5168.4	
606.43	4188.8	
606.62	3139.5	
606.81	3473.4	
607	4973.2	
607.19	4522.6	
607.38	2746.3	
607.57	2896.5	
607.76	4422.2	
607.95	4113	
608.14	3135.4	
608.33	3517	
608.52	4390.8	
608.72	4976.6	
608.91	2727.2	
609.1	2719.7	
609.29	4545.8	
609.48	4331.5	
609.67	3265.1	
609.86	2820.1	
610.05	4371.7	
610.24	4538.3	
610.43	2723.1	
610.62	2612.5	
610.81	5188.9	
611	5086.5	
611.19	2761.3	
611.38	3176.4	
611.57	4792.2	
611.76	5354.8	
611.95	2747	
612.14	2682.2	
612.33	4577.9	
612.52	4382	
612.71	2970.9	
612.9	2616.6	
613.09	4220.2	
613.28	5569.1	
613.47	2922.5	
613.66	3341.6	
613.85	4691.2	
614.04	4340.3	
614.24	2875.3	
614.43	2548.4	
614.62	4735.6	
614.81	4747.9	
615	3164.8	
615.19	3158.7	
615.38	4353.3	
615.57	4588.8	
615.76	3095.8	
615.95	3678.2	
616.14	4837.3	
616.33	4612	
616.52	3302	
616.71	3333.4	
616.9	4709	
617.09	4572.4	
617.28	2898.6	
617.47	3555.3	
617.66	4311.7	
617.85	4276.8	
618.04	3338.9	
618.22	3008.5	
618.41	4410.6	
618.6	4945.8	
618.79	2993.4	
618.98	2857.6	
619.17	4986.8	
619.36	4070	
619.55	2917	
619.74	2970.2	
619.93	4545.8	
620.12	4255.7	
620.31	3182.5	
620.5	3262.4	
620.69	4819.6	
620.88	5142.4	
621.07	3637.9	
621.26	3147.7	
621.45	4636.6	
621.64	4608.6	
621.83	3157.3	
622.02	2748.4	
622.21	4724.7	
622.4	4621.6	
622.59	3426.3	
622.78	3396.2	
622.97	4404.5	
623.16	4841.4	
623.35	3163.4	
623.54	2654.2	
623.72	4451.6	
623.91	4455.7	
624.1	3263.1	
624.29	2607.1	
624.48	5077.6	
624.67	4771.8	
624.86	3168.2	
625.05	2702	
625.24	5195.7	
625.43	4414.7	
625.62	4159.4	
625.81	2831	
626	4770.4	
626.19	4423.6	
626.38	3177.8	
626.56	2947.7	
626.75	4270.7	
626.94	4730.8	
627.13	3217.4	
627.32	2560	
627.51	4775.2	
627.7	5309.7	
627.89	2605.7	
628.08	3279.5	
628.27	4242.7	
628.46	4491.9	
628.65	2781.8	
628.83	2617.3	
629.02	4768.4	
629.21	4304.8	
629.4	3018.7	
629.59	3123.8	
629.78	4288.4	
629.97	4786.1	
630.16	3078.1	
630.35	2961.4	
630.54	5091.9	
630.72	4964.3	
630.91	2899.9	
631.1	3100.6	
631.29	4558.8	
631.48	4588.1	
631.67	3268.6	
631.86	2921.1	
632.05	4416.1	
632.24	4430.4	
632.42	2764.1	
632.61	3056.3	
632.8	4483	
632.99	4182.6	
633.18	3019.4	
633.37	3274.7	
633.56	4595.6	
633.75	4583.4	
633.93	3125.9	
634.12	2936.1	
634.31	5164.3	
634.5	4801.1	
634.69	2902	
634.88	3247.4	
635.07	4517.1	
635.25	4799.8	
635.44	3440.6	
635.63	3528.7	
635.82	4425.7	
636.01	3961.5	
636.2	3431.7	
636.39	3151.1	
636.57	5095.3	
636.76	4749.9	
636.95	2835.8	
637.14	3625.6	
637.33	4648.2	
637.52	5105.6	
637.7	2734	
637.89	3340.9	
638.08	4456.4	
638.27	5240.1	
638.46	3267.2	
638.65	3503.4	
638.83	5307	
639.02	4393.6	
639.21	3250.1	
639.4	3537.5	
639.59	4642.1	
639.78	4413.4	
639.96	2841.9	
640.15	3008.5	
640.34	4625	
640.53	4618.2	
640.72	2829.6	
640.91	2973	
641.09	4311.7	
641.28	5021.6	
641.47	2983.9	
641.66	3417.4	
641.85	4657.8	
642.03	4815.5	
642.22	3233.7	
642.41	3054.9	
642.6	4386.7	
642.79	4061.8	
642.97	2995.5	
643.16	3297.9	
643.35	4308.2	
643.54	4272.1	
643.73	2896.5	
643.91	3343.7	
644.1	4271.4	
644.29	4577.2	
644.48	2953.2	
644.67	2983.9	
644.85	4256.4	
645.04	4689.2	
645.23	2839.8	
645.42	3052.8	
645.6	4367	
645.79	5014.1	
645.98	3034.4	
646.17	2548.4	
646.36	4280.3	
646.54	4540.3	
646.73	3557.3	
646.92	2856.2	
647.11	4401.8	
647.29	4978.6	
647.48	2831.7	
647.67	2788	
647.86	5171.1	
648.05	5050.3	
648.23	3009.8	
648.42	3800.3	
648.61	4809.3	
648.8	4678.2	
648.98	2913.6	
649.17	3114.3	
649.36	4443.4	
649.55	4213.4	
649.73	2878.1	
649.92	3403.7	
650.11	4280.9	
650.3	4599.1	
650.48	2982.5	
650.67	2966.8	
650.86	4721.9	
651.05	4108.2	
651.23	2971.6	
651.42	2967.5	
651.61	4450.9	
651.79	4392.9	
651.98	3100.6	
652.17	2876.7	
652.36	4769	
652.54	4200.4	
652.73	3014.6	
652.92	2896.5	
653.11	4698.7	
653.29	4776.5	
653.48	2639.1	
653.67	3110.2	
653.85	4566.3	
654.04	5165.7	
654.23	3278.1	
654.42	3057.6	
654.6	4354	
654.79	4801.8	
654.98	2803.7	
655.16	3174.4	
655.35	4325.3	
655.54	4104.8	
655.73	2868.5	
655.91	2809.8	
656.1	4745.1	
656.29	4135.5	
656.47	2602.3	
656.66	3590.8	
656.85	4343.7	
657.03	4306.9	
657.22	2895.1	
657.41	2883.5	
657.59	4309.6	
657.78	4257	
657.97	2652.8	
658.16	3018.7	
658.34	4754	
658.53	4930.1	
658.72	3546.4	
658.9	3817.4	
659.09	4451.6	
659.28	4461.8	
659.46	2912.9	
659.65	2887	
659.84	4284.4	
660.02	4678.9	
660.21	2867.8	
660.4	2798.2	
660.58	4796.3	
660.77	4402.5	
660.96	3093.8	
661.14	2644.6	
661.33	5115.8	
661.52	5025.7	
661.7	2646	
661.89	4575.2	
662.08	4266.6	
662.26	3934.1	
662.45	2803.7	
662.64	2897.2	
662.82	4704.9	
663.01	4175.1	
663.2	2914.3	
663.38	3224.2	
663.57	4605.9	
663.75	4485.1	
663.94	3010.5	
664.13	3737.5	
664.31	4298	
664.5	4633.2	
664.69	3206.4	
664.87	3446	
665.06	4188.8	
665.25	4438.6	
665.43	3680.2	
665.62	3575.1	
665.8	4677.6	
665.99	4300.1	
666.18	3022.8	
666.36	3063.8	
666.55	4684.4	
666.74	4625.7	
666.92	2918.4	
667.11	3836.5	
667.29	4487.1	
667.48	4663.9	
667.67	3457.7	
667.85	2962	
668.04	4285	
668.22	4208.6	
668.41	3079.5	
668.6	3308.8	
668.78	4177.2	
668.97	4354	
669.15	3348.4	
669.34	2734.7	
669.53	4249.5	
669.71	4433.2	
669.9	2795.5	
670.08	3194.1	
670.27	4122.6	
670.46	4646.2	
670.64	3353.2	
670.83	3457.7	
671.01	4054.3	
671.2	4516.5	
671.38	2852.1	
671.57	2852.8	
671.76	4891.2	
671.94	5167	
672.13	2770.9	
672.31	3343.7	
672.5	4685.8	
672.69	4261.1	
672.87	2879.4	
673.06	3035.8	
673.24	4543.1	
673.43	4328	
673.61	3218	
673.8	3009.1	
673.98	4570.4	
674.17	4765.6	
674.36	3380.5	
674.54	3302	
674.73	4406.5	
674.91	4686.4	
675.1	3088.3	
675.28	2847.4	
675.47	4362.9	
675.65	4651.6	
675.84	3060.3	
676.03	3190.7	
676.21	4349.2	
676.4	3978.5	
676.58	3445.4	
676.77	3343.7	
676.95	5204.6	
677.14	4291.9	
677.32	2779.1	
677.51	2824.8	
677.69	4762.2	
677.88	4203.1	
678.06	2811.2	
678.25	2910.2	
678.44	4379.9	
678.62	4285	
678.81	2751.8	
678.99	3211.9	
679.18	4844.8	
679.36	4567	
679.55	3021.4	
679.73	3342.3	
679.92	4599.7	
680.1	4321.9	
680.29	3685.7	
680.47	2979.1	
680.66	4336.2	
680.84	4709	
681.03	2710.1	
681.21	3315	
681.4	4255.7	
681.58	4228.4	
681.77	2891.7	
681.95	2869.9	
682.14	4785.4	
682.32	4922.6	
682.51	3384.6	
682.69	2775	
682.88	4284.4	
683.06	4568.3	
683.25	3264.5	
683.43	3495.9	
683.62	4514.4	
683.8	4665.3	
683.99	3592.1	
684.17	3174.4	
684.36	5165.7	
684.54	4417.5	
684.73	2819.4	
684.91	2927.2	
685.1	4688.5	
685.28	4347.8	
685.46	3338.9	
685.65	3329.3	
685.83	4814.8	
686.02	4491.9	
686.2	3031.7	
686.39	3123.2	
686.57	4175.8	
686.76	5108.3	
686.94	3013.9	
687.13	3121.8	
687.31	4717.8	
687.5	4549.2	
687.68	2841.2	
687.86	3381.2	
688.05	5470.1	
688.23	4126	
688.42	3477.5	
688.6	2949.1	
688.79	4298	
688.97	4402.5	
689.16	3214.6	
689.34	2707.4	
689.52	4732.9	
689.71	4969.1	
689.89	3310.9	
690.08	3021.4	
690.26	4551.3	
690.45	4347.2	
690.63	3432.4	
690.81	3106.1	
691	4560.1	
691.18	4345.1	
691.37	3191.4	
691.55	4443.4	
691.74	4294.6	
691.92	5477.6	
692.1	3147.7	
692.29	2876.7	
692.47	4415.4	
692.66	4130.8	
692.84	2957.3	
693.02	3262.4	
693.21	4032.5	
693.39	4488.5	
693.58	3258.3	
693.76	2949.8	
693.94	5036.6	
694.13	4894	
694.31	2940.2	
694.5	3516.4	
694.68	4227	
694.86	4493.2	
695.05	3020.1	
695.23	3287	
695.42	4610	
695.6	5965.1	
695.78	3418.1	
695.97	2955.2	
696.15	4671.4	
696.34	4203.8	
696.52	2800.9	
696.7	3310.9	
696.89	4434.5	
697.07	4126.7	
697.25	3259	
697.44	4069.3	
697.62	4539.7	
697.81	4663.2	
697.99	3085.6	
698.17	3362.8	
698.36	4273.4	
698.54	4587.4	
698.72	3257.6	
698.91	2749.1	
699.09	4366.3	
699.28	4285	
699.46	3106.1	
699.64	3032.4	
699.83	4255	
700.01	4874.8	
700.19	3486.3	
700.38	2613.2	
700.56	4870.8	
700.74	4250.2	
700.93	2833	
701.11	3246	
701.29	4564.9	
701.48	5182	
701.66	2856.2	
701.84	2938.2	
702.03	4302.1	
702.21	4721.9	
702.39	2753.2	
702.58	3011.9	
702.76	4567.7	
702.94	4616.8	
703.13	2702	
703.31	4085	
703.49	4235.2	
703.68	4972.5	
703.86	2829.6	
704.04	3340.9	
704.23	4471.4	
704.41	4709.6	
704.59	2955.2	
704.78	3562.1	
704.96	5419.6	
705.14	4573.8	
705.33	2769.5	
705.51	3177.1	
705.69	4217.5	
705.87	4799.8	
706.06	3325.9	
706.24	2770.9	
706.42	4545.1	
706.61	4627.7	
706.79	3461.1	
706.97	2783.2	
707.16	4204.5	
707.34	4468.7	
707.52	3375.1	
707.7	2811.9	
707.89	4176.5	
708.07	4063.2	
708.25	3388	
708.44	3479.5	
708.62	4182.6	
708.8	4867.3	
708.98	3556	
709.17	2928.6	
709.35	4420.9	
709.53	4544.4	
709.72	2740.2	
709.9	2876	
710.08	4717.2	
710.26	4730.1	
710.45	3781.9	
710.63	2957.3	
710.81	4391.5	
710.99	4482.3	
711.18	3346.4	
711.36	3003	
711.54	4358.1	
711.72	4826.4	
711.91	3160.7	
712.09	2857.6	
712.27	4508.3	
712.45	4848.2	
712.64	3320.4	
712.82	2747.7	
713	4315.8	
713.18	4394.3	
713.37	2902	
713.55	3590.1	
713.73	4920.6	
713.91	4233.8	
714.1	3162.7	
714.28	2925.9	
714.46	4763.6	
714.64	4401.1	
714.83	2747.7	
715.01	3196.2	
715.19	4590.9	
715.37	4123.2	
715.55	3029.6	
715.74	3224.9	
715.92	5116.5	
716.1	3941	
716.28	3853.6	
716.47	3301.3	
716.65	4451.6	
716.83	4407.2	
717.01	3276.1	
717.19	3240.6	
717.38	5612.1	
717.56	4250.9	
717.74	3361.4	
717.92	2878.1	
718.1	4977.2	
718.29	4458.4	
718.47	2586.6	
718.65	2972.3	
718.83	4796.3	
719.01	4680.3	
719.2	2533.3	
719.38	3059	
719.56	4524.6	
719.74	5380.7	
719.92	2942.9	
720.11	3488.4	
720.29	4627	
720.47	4157.4	
720.65	2705.4	
720.83	3231.7	
721.02	4455.7	
721.2	4315.8	
721.38	3278.1	
721.56	2890.4	
721.74	4010.6	
721.92	4085	
722.11	3587.4	
722.29	3351.2	
722.47	4784.1	
722.65	4407.2	
722.83	2930.6	
723.01	3404.4	
723.2	4409.3	
723.38	4625.7	
723.56	2581.8	
723.74	3235.8	
723.92	4160.1	
724.1	4696	
724.29	2889.7	
724.47	3551.9	
724.65	4298.7	
724.83	4083.6	
725.01	2856.9	
725.19	3279.5	
725.37	4151.2	
725.56	4151.9	
725.74	2835.8	
725.92	2851.5	
726.1	4123.2	
726.28	4318.5	
726.46	3118.4	
726.64	2947	
726.83	4417.5	
727.01	4465.9	
727.19	2751.1	
727.37	3191.4	
727.55	4445.5	
727.73	4638	
727.91	2734.7	
728.09	2650.8	
728.28	4724.7	
728.46	4809.3	
728.64	3171.6	
728.82	3162.7	
729	5303.6	
729.18	4863.9	
729.36	2656.9	
729.54	4043.4	
729.72	5396.4	
729.91	4347.8	
730.09	3816	
730.27	3010.5	
730.45	4324.6	
730.63	4695.3	
730.81	3342.3	
730.99	2854.2	
731.17	5046.2	
731.35	4205.8	
731.53	3065.1	
731.71	2969.6	
731.9	4798.4	
732.08	4816.1	
732.26	3070.6	
732.44	2872.6	
732.62	4925.4	
732.8	4628.4	
732.98	3409.9	
733.16	2806.4	
733.34	4698.7	
733.52	3923.9	
733.7	3096.5	
733.88	3157.3	
734.07	4575.2	
734.25	4401.8	
734.43	2803	
734.61	3645.4	
734.79	5275.6	
734.97	4408.6	
735.15	2844.6	
735.33	3003	
735.51	4590.9	
735.69	4367.6	
735.87	3672.7	
736.05	3178.4	
736.23	4498	
736.41	4273.4	
736.59	3084.9	
736.77	3151.1	
736.95	4743.8	
737.13	4332.1	
737.32	2807.8	
737.5	3019.4	
737.68	5136.3	
737.86	4304.8	
738.04	2823.5	
738.22	3880.9	
738.4	4360.8	
738.58	4461.8	
738.76	3113.6	
738.94	2630.3	
739.12	4356.7	
739.3	4314.4	
739.48	3465.8	
739.66	3252.9	
739.84	4491.2	
740.02	4433.9	
740.2	2652.8	
740.38	2830.3	
740.56	4666.6	
740.74	3957.4	
740.92	3192.1	
741.1	3108.1	
741.28	4352.6	
741.46	4195.6	
741.64	2966.8	
741.82	3309.5	
742	4483.7	
742.18	4328.7	
742.36	3090.4	
742.54	2872.6	
742.72	4734.2	
742.9	4046.1	
743.08	3259.7	
743.26	2628.2	
743.44	4769.7	
743.62	4704.2	
743.8	3418.7	
743.98	2843.3	
744.16	4556	
744.34	4400.4	
744.52	3330	
744.7	3314.3	
744.88	4709	
745.06	4387.4	
745.24	3341.6	
745.42	3476.8	
745.6	4810.7	
745.78	4721.9	
745.96	2777	
746.14	2917	
746.32	5237.3	
746.5	4741.7	
746.68	3219.4	
746.86	2904.7	
747.03	4895.3	
747.21	4121.2	
747.39	3272	
747.57	2898.6	
747.75	4530.8	
747.93	4752.7	
748.11	2889	
748.29	2906.1	
748.47	5548.6	
748.65	4379.2	
748.83	3345.7	
749.01	3205.8	
749.19	4682.3	
749.37	4162.8	
749.55	3204.4	
749.73	3138.9	
749.91	4594.3	
750.09	4416.8	
750.26	3209.8	
750.44	2876.7	
750.62	4487.8	
750.8	4413.4	
750.98	2814.6	
751.16	2996.2	
751.34	4638.6	
751.52	4200.4	
751.7	3425.6	
751.88	2759.3	
752.06	4842.1	
752.24	4684.4	
752.42	2764.1	
752.59	2988	
752.77	4493.2	
752.95	5251.7	
753.13	3396.2	
753.31	3069.2	
753.49	4384	
753.67	4583.4	
753.85	3239.2	
754.03	3001.6	
754.21	4879.6	
754.38	5025.7	
754.56	3063.1	
754.74	2589.3	
754.92	4416.1	
755.1	4808.6	
755.28	2652.1	
755.46	2733.4	
755.64	5480.4	
755.82	5558.9	
755.99	2992.1	
756.17	3020.1	
756.35	4080.2	
756.53	4975.9	
756.71	2510.8	
756.89	3248.1	
757.07	4670.7	
757.25	4182	
757.42	3289	
757.6	3875.4	
757.78	4777.9	
757.96	4166.3	
758.14	3079.5	
758.32	2777.7	
758.5	3827.7	
758.67	4405.2	
758.85	2960	
759.03	2992.1	
759.21	4502.1	
759.39	4187.4	
759.57	2753.8	
759.75	3393.5	
759.92	4960.2	
760.1	4554.7	
760.28	3564.1	
760.46	3801.7	
760.64	4347.2	
760.82	4225	
760.99	3527.3	
761.17	3009.1	
761.35	4809.3	
761.53	4128.7	
761.71	3069.2	
761.89	3418.1	
762.06	4673.5	
762.24	4334.2	
762.42	3106.8	
762.6	2925.2	
762.78	4284.4	
762.96	4660.5	
763.13	3292.5	
763.31	3020.8	
763.49	4730.8	
763.67	4278.2	
763.85	3530	
764.02	3870	
764.2	4988.2	
764.38	4373.1	
764.56	2990	
764.74	3518.4	
764.91	4954	
765.09	4265.9	
765.27	2851.5	
765.45	2680.1	
765.63	5121.3	
765.8	4881.7	
765.98	2687.6	
766.16	2801.6	
766.34	4121.2	
766.52	3954.6	
766.69	3323.2	
766.87	2674.6	
767.05	4401.1	
767.23	4826.4	
767.41	2837.1	
767.58	2992.1	
767.76	4724.7	
767.94	4782	
768.12	2953.9	
768.29	3317.7	
768.47	4326	
768.65	4821.6	
768.83	2673.3	
769	3364.8	
769.18	4194.2	
769.36	4558.1	
769.54	3366.2	
769.72	2764.1	
769.89	4866.7	
770.07	4799.8	
770.25	2970.2	
770.43	3739.6	
770.6	5330.2	
770.78	5416.2	
770.96	3097.2	
771.14	3439.2	
771.31	4741.7	
771.49	4363.5	
771.67	2647.3	
771.85	2715.6	
772.02	3938.2	
772.2	4321.9	
772.38	3232.4	
772.55	2836.4	
772.73	4591.5	
772.91	4393.6	
773.09	3072	
773.26	3194.1	
773.44	4542.4	
773.62	4325.3	
773.8	2876	
773.97	2725.8	
774.15	4571.1	
774.33	4438.6	
774.5	2825.5	
774.68	2994.8	
774.86	4502.1	
775.04	4392.9	
775.21	2880.1	
775.39	2843.3	
775.57	4578.6	
775.74	4723.3	
775.92	2724.5	
776.1	2702.6	
776.27	4553.3	
776.45	5287.9	
776.63	2865.8	
776.81	2598.9	
776.98	4375.8	
777.16	4922	
777.34	2914.3	
777.51	3138.9	
777.69	4435.9	
777.87	4198.3	
778.04	3017.3	
778.22	3343.7	
778.4	4199.7	
778.57	4651.6	
778.75	2542.9	
778.93	2774.3	
779.1	4241.3	
779.28	3998.3	
779.46	2590	
779.64	2827.6	
779.81	4812	
779.99	5238	
780.17	3272.7	
780.34	3429.7	
780.52	4479.6	
780.69	4535.6	
780.87	3043.3	
781.05	2820.1	
781.22	4510.3	
781.4	4470.7	
781.58	2882.9	
781.75	2430.9	
781.93	4532.2	
782.11	4051.6	
782.28	3433.8	
782.46	2936.8	
782.64	4037.9	
782.81	4566.3	
782.99	3001	
783.17	2889.7	
783.34	4489.8	
783.52	4178.5	
783.69	3044	
783.87	3573.7	
784.05	4194.9	
784.22	4134.8	
784.4	3607.8	
784.58	3122.5	
784.75	4797	
784.93	4249.5	
785.1	2885.6	
785.28	3343	
785.46	4650.3	
785.63	4147.1	
785.81	2967.5	
785.99	2845.3	
786.16	4358.1	
786.34	4413.4	
786.51	2866.5	
786.69	3127.9	
786.87	3969.6	
787.04	4332.1	
787.22	2816	
787.39	3444.7	
787.57	4167.6	
787.75	4847.5	
787.92	3517.7	
788.1	3449.5	
788.27	4097.3	
788.45	3956	
788.63	3258.3	
788.8	2510.1	
788.98	4538.3	
789.15	3870.7	
789.33	2631.6	
789.5	2925.2	
789.68	4724.7	
789.86	4795.7	
790.03	3249.4	
790.21	2831	
790.38	4788.8	
790.56	4207.9	
790.73	2777.7	
790.91	2752.5	
791.09	4177.2	
791.26	4585.4	
791.44	2994.1	
791.61	2608.4	
791.79	4186	
791.96	4205.2	
792.14	2725.2	
792.32	2430.3	
792.49	4172.4	
792.67	4268.6	
792.84	2794.8	
793.02	2656.9	
793.19	4506.2	
793.37	4873.5	
793.54	2426.8	
793.72	2656.9	
793.89	4980.7	
794.07	4093.9	
794.25	3055.6	
794.42	2532	
794.6	4831.2	
794.77	4583.4	
794.95	3234.4	
795.12	2814.6	
795.3	4227.7	
795.47	4476.2	
795.65	3082.2	
795.82	2942.9	
796	4028.4	
796.17	5273.5	
796.35	2917	
796.52	3378.5	
796.7	4529.4	
796.87	4616.8	
797.05	2897.2	
797.22	3445.4	
797.4	4568.3	
797.57	5161.6	
797.75	3114.3	
797.92	2866.5	
798.1	4801.1	
798.27	4046.1	
798.45	2531.3	
798.62	2669.2	
798.8	4403.1	
798.97	4674.8	
799.15	3156.6	
799.32	3048.1	
799.5	3914.4	
799.67	4330.1	
799.85	3249.4	
800.02	2491	
800.2	4164.2	
800.37	4298.7	
800.55	3312.2	
800.72	2854.9	
800.9	4677.6	
801.07	4934.9	
801.25	3652.9	
801.42	3080.1	
801.6	4720.6	
801.77	4395.6	
801.95	2952.5	
802.12	2831.7	
802.29	4503.5	
802.47	4399	
802.64	3140.2	
802.82	2477.4	
802.99	4170.3	
803.17	4709	
803.34	3039.2	
803.52	2721.8	
803.69	5137	
803.87	3998.3	
804.04	3028.3	
804.21	3018	
804.39	4939.7	
804.56	4226.3	
804.74	2601.6	
804.91	3084.2	
805.09	4179.9	
805.26	4240	
805.44	2684.2	
805.61	2924.5	
805.78	4670.7	
805.96	4532.2	
806.13	3114.3	
806.31	3261	
806.48	3941	
806.66	4232.5	
806.83	3132.7	
807	2981.8	
807.18	4243.4	
807.35	4433.9	
807.53	2983.2	
807.7	2565.4	
807.87	4956.1	
808.05	4137.6	
808.22	3277.4	
808.4	2525.1	
808.57	4136.9	
808.74	3938.2	
808.92	2811.2	
809.09	3474	
809.27	4235.9	
809.44	4465.9	
809.61	2542.9	
809.79	2800.3	
809.96	5083.1	
810.14	4600.4	
810.31	2538.1	
810.48	2964.8	
810.66	4209.3	
810.83	4669.4	
811.01	2882.9	
811.18	3121.8	
811.35	4679.6	
811.53	3820.8	
811.7	3338.2	
811.87	3119.1	
812.05	4274.8	
812.22	4164.2	
812.39	2746.3	
812.57	2728.6	
812.74	4244.1	
812.92	5231.9	
813.09	3003	
813.26	3091.8	
813.44	5058.5	
813.61	4080.2	
813.78	2572.9	
813.96	3183.9	
814.13	4262.5	
814.3	4100	
814.48	3518.4	
814.65	2912.9	
814.82	5031.9	
815	3991.5	
815.17	2989.4	
815.34	3556	
815.52	4149.2	
815.69	4155.3	
815.87	2909.5	
816.04	2931.3	
816.21	4184.7	
816.38	3896.6	
816.56	2914.3	
816.73	2744.3	
816.9	5162.9	
817.08	4661.2	
817.25	2742.9	
817.42	3323.9	
817.6	3917.8	
817.77	4151.2	
817.94	3068.5	
818.12	2731.3	
818.29	4016.1	
818.46	5634	
818.64	2902.7	
818.81	2665.8	
818.98	4009.9	
819.16	5374.6	
819.33	3208.5	
819.5	3026.2	
819.67	4392.9	
819.85	4853.7	
820.02	2998.2	
820.19	3062.4	
820.37	4401.1	
820.54	4109.6	
820.71	3075.4	
820.88	3652.2	
821.06	4285.7	
821.23	4051.6	
821.4	3072	
821.58	3035.8	
821.75	4580.6	
821.92	4311	
822.09	2533.3	
822.27	2746.3	
822.44	4175.1	
822.61	4104.8	
822.79	2528.6	
822.96	4532.8	
823.13	4443.4	
823.3	3971	
823.48	2886.3	
823.65	2655.5	
823.82	4682.3	
823.99	3916.4	
824.17	3548.4	
824.34	2658.9	
824.51	5251.7	
824.68	4229.1	
824.86	2814.6	
825.03	3102	
825.2	4175.1	
825.37	4855.1	
825.55	2807.1	
825.72	3001.6	
825.89	5257.1	
826.06	4930.8	
826.24	2944.3	
826.41	2931.3	
826.58	4999.8	
826.75	4396.3	
826.92	2493.1	
827.1	2691	
827.27	6337.8	
827.44	5177.9	
827.61	2808.4	
827.79	3263.1	
827.96	4116.4	
828.13	4209.3	
828.3	2966.8	
828.47	2560.6	
828.65	4478.9	
828.82	4438.6	
828.99	3591.5	
829.16	3192.8	
829.34	4706.9	
829.51	4547.2	
829.68	2975	
829.85	3035.8	
830.02	4973.8	
830.2	4721.9	
830.37	2387.2	
830.54	3483.6	
830.71	5167	
830.88	4241.3	
831.05	2377.7	
831.23	2776.4	
831.4	5063.3	
831.57	5428.5	
831.74	2822.8	
831.91	2534	
832.09	4612	
832.26	4724.7	
832.43	2897.9	
832.6	3164.8	
832.77	4502.1	
832.94	4994.3	
833.12	2366.1	
833.29	2852.8	
833.46	4534.9	
833.63	5571.8	
833.8	3080.1	
833.97	2836.4	
834.15	4739	
834.32	4543.1	
834.49	2977.1	
834.66	3034.4	
834.83	4753.3	
835	4149.9	
835.17	2788.7	
835.35	2751.1	
835.52	4655.7	
835.69	4526	
835.86	2897.2	
836.03	2413.2	
836.2	4698	
836.37	4423.6	
836.55	2852.1	
836.72	2719	
836.89	4379.2	
837.06	4774.5	
837.23	2896.5	
837.4	3091.1	
837.57	5237.3	
837.75	5530.2	
837.92	2649.4	
838.09	2805	
838.26	4410	
838.43	4784.1	
838.6	2929.3	
838.77	2710.8	
838.94	5335.6	
839.11	5222.3	
839.29	2880.1	
839.46	2340.8	
839.63	4740.4	
839.8	4530.1	
839.97	2803.7	
840.14	2723.8	
840.31	4588.1	
840.48	4738.3	
840.65	2432.3	
840.82	2774.3	
841	4627	
841.17	4582.7	
841.34	2599.6	
841.51	2691	
841.68	4659.1	
841.85	4443.4	
842.02	2690.3	
842.19	2297.8	
842.36	4582	
842.53	4566.3	
842.7	2652.8	
842.87	3045.3	
843.05	5571.8	
843.22	4492.6	
843.39	2534.7	
843.56	2660.3	
843.73	4367.6	
843.9	4799.8	
844.07	3936.2	
844.24	3337.5	
844.41	6128.9	
844.58	4191.5	
844.75	2564.1	
844.92	2697.2	
845.09	4638	
845.26	4652.3	
845.43	2631	
845.6	2746.3	
845.77	4732.9	
845.94	4498.7	
846.12	2859.6	
846.29	2937.5	
846.46	4857.1	
846.63	4649.6	
846.8	2598.2	
846.97	2988	
847.14	4927.4	
847.31	4589.5	
847.48	2850.1	
847.65	3100.6	
847.82	4815.5	
847.99	4807.9	
848.16	3360	
848.33	3115	
848.5	4341.7	
848.67	4990.2	
848.84	2542.9	
849.01	2718.3	
849.18	4386.7	
849.35	4102.8	
849.52	3128.6	
849.69	2516.3	
849.86	4871.4	
850.03	4805.9	
850.2	2583.2	
850.37	3027.6	
850.54	4846.9	
850.71	4392.9	
850.88	3003	
851.05	2542.9	
851.22	4583.4	
851.39	4960.9	
851.56	2427.5	
851.73	2895.8	
851.9	4215.4	
852.07	4824.3	
852.24	2833	
852.41	2588.6	
852.58	4579.9	
852.75	4203.8	
852.92	2867.8	
853.09	2527.2	
853.26	4341.7	
853.43	4916.5	
853.6	2615.3	
853.77	2256.9	
853.94	5048.2	
854.11	4111	
854.28	3633.1	
854.44	2805	
854.61	5243.5	
854.78	4797	
854.95	2597.5	
855.12	3132.7	
855.29	3884.3	
855.46	5139	
855.63	2626.2	
855.8	3390.8	
855.97	4313	
856.14	4915.1	
856.31	3489.1	
856.48	2800.9	
856.65	4436.6	
856.82	4167.6	
856.99	2448.7	
857.16	2737.5	
857.33	5426.4	
857.49	4420.2	
857.66	2776.4	
857.83	2890.4	
858	4483.7	
858.17	4591.5	
858.34	2491	
858.51	2623.4	
858.68	5014.8	
858.85	5002.5	
859.02	2947.7	
859.19	3123.2	
859.36	4223.6	
859.52	4188.8	
859.69	2596.8	
859.86	2959.3	
860.03	4208.6	
860.2	4984.8	
860.37	2394.1	
860.54	2624.1	
860.71	4816.8	
860.88	5046.2	
861.05	2851.5	
861.21	3198.2	
861.38	5029.8	
861.55	4116.4	
861.72	2446.6	
861.89	2828.9	
862.06	4752.7	
862.23	5128.8	
862.4	2535.4	
862.56	2661.7	
862.73	4698	
862.9	4513.7	
863.07	2915.6	
863.24	2407.7	
863.41	4129.4	
863.58	4209.9	
863.75	2632.3	
863.91	2983.2	
864.08	4909.7	
864.25	4743.8	
864.42	3138.9	
864.59	3446	
864.76	5247.6	
864.93	4159.4	
865.09	2502.6	
865.26	2788	
865.43	4967.7	
865.6	5158.2	
865.77	2357.2	
865.94	2577	
866.1	4944.5	
866.27	4758.8	
866.44	3680.2	
866.61	2519.7	
866.78	4445.5	
866.95	4738.3	
867.11	2573.6	
867.28	2368.8	
867.45	4955.4	
867.62	4143.7	
867.79	2919.7	
867.96	2541.5	
868.12	4175.8	
868.29	4838	
868.46	2610.5	
868.63	3346.4	
868.8	4825.7	
868.97	4782	
869.13	2719	
869.3	2646.7	
869.47	4675.5	
869.64	4830.5	
869.81	2605.7	
869.97	2611.2	
870.14	4573.1	
870.31	5041.4	
870.48	2534	
870.65	3136.1	
870.81	4427.7	
870.98	4486.4	
871.15	2913.6	
871.32	2719	
871.48	4706.9	
871.65	5111.7	
871.82	2574.3	
871.99	2851.5	
872.16	5378.6	
872.32	4950.6	
872.49	2620.7	
872.66	2584.5	
872.83	4804.5	
872.99	4299.4	
873.16	2863.1	
873.33	2541.5	
873.5	4497.3	
873.67	4563.6	
873.83	2686.3	
874	3311.6	
874.17	4677.6	
874.34	5191.6	
874.5	3209.8	
874.67	3174.4	
874.84	4977.9	
875.01	4049.5	
875.17	3475.4	
875.34	2573.6	
875.51	4624.3	
875.68	5408.7	
875.84	3058.3	
876.01	3545.7	
876.18	4777.9	
876.34	4717.2	
876.51	2580.4	
876.68	2532.7	
876.85	4426.3	
877.01	4982	
877.18	3528.7	
877.35	2596.8	
877.52	4663.2	
877.68	4207.2	
877.85	2580.4	
878.02	2573.6	
878.18	4424.3	
878.35	4349.2	
878.52	2128.5	
878.69	2948.4	
878.85	4906.9	
879.02	4737	
879.19	3545.7	
879.35	2786.6	
879.52	4771.1	
879.69	4833.9	
879.86	2288.3	
880.02	2859.6	
880.19	4474.1	
880.36	5265.3	
880.52	2884.2	
880.69	2998.2	
880.86	4823.6	
881.02	4830.5	
881.19	2772.3	
881.36	2770.2	
881.52	4754.7	
881.69	4269.3	
881.86	2781.8	
882.02	2768.2	
882.19	4912.4	
882.36	5539.1	
882.52	2644.6	
882.69	3506.8	
882.86	4660.5	
883.02	4611.3	
883.19	3047.4	
883.36	2894.5	
883.52	4816.1	
883.69	5274.2	
883.86	2651.4	
884.02	2363.4	
884.19	4792.2	
884.36	4580.6	
884.52	2796.2	
884.69	2742.9	
884.86	4336.9	
885.02	5116.5	
885.19	2848.7	
885.36	2927.2	
885.52	4434.5	
885.69	4650.3	
885.86	3600.3	
886.02	3201.7	
886.19	4781.3	
886.35	4358.1	
886.52	2849.4	
886.69	3453.6	
886.85	4197	
887.02	4945.2	
887.19	4945.2	
887.35	4945.2	
887.52	4945.2	
887.68	4945.2	
887.85	4945.2	
888.02	4945.2	
888.18	4945.2	
888.35	4945.2	
888.51	4945.2	
888.68	4945.2	
888.85	4945.2	
889.01	4945.2	
889.18	4945.2	
889.35	4945.2	
889.51	4945.2	
889.68	4945.2	
889.84	4945.2	
890.01	4945.2	
890.17	4945.2	
890.34	4945.2	
890.51	4945.2	
890.67	4945.2	
890.84	4945.2	
891	4945.2	
891.17	4945.2	
891.34	4945.2	
891.5	4945.2	
891.67	4945.2	
891.83	4945.2	
892	4945.2	
892.16	4945.2	
892.33	4945.2	
892.5	4945.2	
892.66	4945.2	
892.83	4945.2	
892.99	4945.2	
893.16	4945.2	
893.32	4945.2	
893.49	4945.2	
893.65	4945.2	
893.82	4945.2	
893.99	4945.2	
894.15	4945.2	
894.32	4945.2	
894.48	4945.2	
894.65	4945.2	
894.81	4945.2	
894.98	4945.2	
895.14	4945.2	
895.31	4945.2	
895.47	4945.2	
895.64	4945.2	
895.81	4945.2	
895.97	4945.2	
896.14	4945.2	
896.3	4945.2	
896.47	4945.2	
896.63	4945.2	
896.8	4945.2	
896.96	4945.2	
897.13	4945.2	
897.29	4945.2	
897.46	4945.2	
897.62	4945.2	
897.79	4945.2	
897.95	4945.2	
898.12	4945.2	
898.28	4945.2	
898.45	4945.2	
898.61	4945.2	
898.78	4945.2	
898.94	4945.2	
899.11	4945.2	
899.27	4945.2	
899.44	4945.2	
899.6	4945.2	
899.77	4945.2	
899.93	4945.2	
900.1	4945.2	
900.26	4945.2	
900.43	4945.2	
900.59	4945.2	
900.76	4945.2	
900.92	4945.2	
901.09	4945.2	
901.25	4945.2	
901.42	4945.2	
901.58	4945.2	
901.75	4945.2	
901.91	4945.2	
902.07	4945.2	
902.24	4945.2	
902.4	4945.2	
902.57	4945.2	
902.73	4945.2	
902.9	4945.2	
903.06	4945.2	
903.23	4945.2	
903.39	4945.2	
903.56	4945.2	
903.72	4945.2	
903.88	4945.2	
904.05	4945.2	
904.21	4945.2	
904.38	4945.2	
904.54	4945.2	
904.71	4945.2	
904.87	4945.2	
905.03	4945.2	
905.2	4945.2	
905.36	4945.2	
905.53	4945.2	
905.69	4945.2	
905.86	4945.2	
906.02	4945.2	
906.18	4945.2	
906.35	4945.2	
906.51	4945.2	
906.68	4945.2	
906.84	4945.2	
907.01	4945.2	
907.17	4945.2	
907.33	4945.2	
907.5	4945.2	
907.66	4945.2	
907.83	4945.2	
907.99	4945.2	
908.15	4945.2	
908.32	4945.2	
908.48	4945.2	
908.65	4945.2	
908.81	4945.2	
908.97	4945.2	
909.14	4945.2	
909.3	4945.2	
909.47	4945.2	
909.63	4945.2	
909.79	4945.2	
909.96	4945.2	
910.12	4945.2	
910.28	4945.2	
910.45	4945.2	
910.61	4945.2	
910.78	4945.2	
910.94	4945.2	
911.1	4945.2	
911.27	4945.2	
911.43	4945.2	
911.59	4945.2	
911.76	4945.2	
911.92	4945.2	
912.08	4945.2	
912.25	4945.2	
912.41	4945.2	
912.57	4945.2	
912.74	4945.2	
912.9	4945.2	
913.07	4945.2	
913.23	4945.2	
913.39	4945.2	
913.56	4945.2	
913.72	4945.2	
913.88	4945.2	
914.05	4945.2	
914.21	4945.2	
914.37	4945.2	
914.54	4945.2	
914.7	4945.2	
914.86	4945.2	
915.03	4945.2	
915.19	4945.2	
