Wavelength	Intensities	
nm	a.u.	
179.22	1837.5	
179.44	1834	
179.65	1841.1	
179.86	1826.8	
180.08	1869.8	
180.29	4657.8	
180.51	3449.5	
180.72	5513.8	
180.94	6345.3	
181.15	3145	
181.37	3099.3	
181.58	5354.8	
181.79	5575.9	
182.01	3228.3	
182.22	3448.1	
182.44	5627.8	
182.65	4718.5	
182.87	4383.3	
183.08	3858.4	
183.29	5899.5	
183.51	4876.9	
183.72	3532.7	
183.94	5048.2	
184.15	5231.2	
184.37	5266.7	
184.58	3090.4	
184.79	4216.8	
185.01	4846.9	
185.22	5610.8	
185.44	4428.4	
185.65	3758.7	
185.86	5151.3	
186.08	4744.5	
186.29	2985.9	
186.51	3248.8	
186.72	4918.5	
186.94	5728.2	
187.15	3752.6	
187.36	3835.8	
187.58	7498.3	
187.79	5374.6	
188.01	4007.9	
188.22	6148	
188.43	6333	
188.65	5545.9	
188.86	3294.5	
189.08	3865.2	
189.29	4998.4	
189.5	5089.2	
189.72	3551.2	
189.93	3621.5	
190.15	5759.6	
190.36	6907.8	
190.57	3900	
190.79	3845.4	
191	5859.2	
191.22	5795.1	
191.43	3936.9	
191.64	3231.7	
191.86	6032.6	
192.07	5807.4	
192.29	3403.7	
192.5	3611.9	
192.71	5840.1	
192.93	4961.5	
193.14	3556.6	
193.35	3614.7	
193.57	5038.7	
193.78	5851.7	
194	2907.4	
194.21	3567.6	
194.42	4842.1	
194.64	5261.9	
194.85	3863.2	
195.07	4487.8	
195.28	5347.2	
195.49	4562.2	
195.71	4739.7	
195.92	3306.8	
196.13	5406	
196.35	5545.9	
196.56	5055.1	
196.78	3884.3	
196.99	6799.9	
197.2	6388.3	
197.42	4386.1	
197.63	3904.1	
197.84	4683.7	
198.06	5438	
198.27	3565.5	
198.48	4756.7	
198.7	5071.5	
198.91	5183.4	
199.13	3829	
199.34	3896.6	
199.55	5697.4	
199.77	4550.6	
199.98	3429	
200.19	3969.6	
200.41	5036.6	
200.62	4943.8	
200.83	4064.5	
201.05	4378.6	
201.26	5156.1	
201.47	4924.7	
201.69	3452.9	
201.9	3361.4	
202.11	5218.9	
202.33	6213.5	
202.54	3685.7	
202.76	4028.4	
202.97	5345.2	
203.18	5352.7	
203.4	4048.2	
203.61	3946.4	
203.82	5314.5	
204.04	4949.9	
204.25	3939.6	
204.46	3796.3	
204.68	5296.7	
204.89	5495.4	
205.1	3779.9	
205.32	3341.6	
205.53	5660.6	
205.74	5754.1	
205.96	2809.1	
206.17	3998.3	
206.38	5613.5	
206.6	5657.2	
206.81	4438.6	
207.02	3643.3	
207.24	5522.7	
207.45	5902.9	
207.66	3736.9	
207.88	3179.1	
208.09	5415.5	
208.3	5272.2	
208.52	3377.8	
208.73	3807.9	
208.94	5330.9	
209.15	5917.9	
209.37	3717.1	
209.58	3835.8	
209.79	5791	
210.01	5076.2	
210.22	3013.2	
210.43	3099.3	
210.65	5257.8	
210.86	5643.5	
211.07	3721.2	
211.29	3389.4	
211.5	5587.5	
211.71	5192.3	
211.93	3351.8	
212.14	3402.4	
212.35	5197.7	
212.56	5380.7	
212.78	3898.6	
212.99	3196.2	
213.2	6188.3	
213.42	5055.1	
213.63	3530	
213.84	3758.7	
214.06	4672.8	
214.27	4801.8	
214.48	3706.1	
214.69	3914.4	
214.91	5886.5	
215.12	5962.3	
215.33	3988.8	
215.55	4357.4	
215.76	6468.9	
215.97	5651	
216.18	3814	
216.4	3760.1	
216.61	4972.5	
216.82	5726.8	
217.04	3398.3	
217.25	3590.1	
217.46	5821.7	
217.67	5584.1	
217.89	3056.9	
218.1	3185.3	
218.31	5384.1	
218.53	5412.1	
218.74	3616.7	
218.95	3434.4	
219.16	5225.7	
219.38	6167.8	
219.59	3521.8	
219.8	4095.9	
220.01	6746	
220.23	5254.4	
220.44	4579.3	
220.65	3417.4	
220.87	5340.4	
221.08	5826.5	
221.29	3190.7	
221.5	4225.6	
221.72	7129.7	
221.93	4963.6	
222.14	3921.2	
222.35	4519.9	
222.57	5262.6	
222.78	5537.7	
222.99	3711.6	
223.2	4037.2	
223.42	5537	
223.63	5684.5	
223.84	2887	
224.05	2837.8	
224.27	6661.4	
224.48	6113.9	
224.69	4600.4	
224.9	3864.5	
225.12	5468.1	
225.33	5229.1	
225.54	3172.3	
225.75	3510.2	
225.97	4808.6	
226.18	5113.8	
226.39	3766.9	
226.6	3495.2	
226.82	5023.7	
227.03	4895.3	
227.24	3901.4	
227.45	3235.1	
227.67	5614.2	
227.88	6163.7	
228.09	4355.3	
228.3	4386.7	
228.52	5672.9	
228.73	5227.8	
228.94	3571.7	
229.15	3256.3	
229.36	5185.5	
229.58	5147.2	
229.79	3714.3	
230	4216.1	
230.21	6239.5	
230.43	5345.9	
230.64	3832.4	
230.85	4017.4	
231.06	5712.5	
231.28	5708.4	
231.49	3266.5	
231.7	3781.2	
231.91	5588.2	
232.12	5279	
232.34	3323.9	
232.55	3749.8	
232.76	5873.6	
232.97	5507.7	
233.18	3435.1	
233.4	3870.7	
233.61	5478.3	
233.82	5027.1	
234.03	3553.2	
234.25	3500	
234.46	7257.3	
234.67	5303.6	
234.88	3984	
235.09	3482.2	
235.31	5522	
235.52	5116.5	
235.73	3820.8	
235.94	3265.1	
236.15	5038.7	
236.37	6307.7	
236.58	3420.8	
236.79	3715	
237	5537	
237.21	4786.1	
237.43	3971.7	
237.64	3147	
237.85	9385.8	
238.06	4841.4	
238.27	4035.2	
238.48	3274	
238.7	5570.5	
238.91	5094.7	
239.12	3674.7	
239.33	3717.1	
239.54	4853	
239.76	5233.2	
239.97	3714.3	
240.18	3712.3	
240.39	6500.9	
240.6	5494	
240.82	3838.6	
241.03	3196.9	
241.24	5231.2	
241.45	6115.2	
241.66	3429.7	
241.87	4028.4	
242.09	5902.2	
242.3	6313.2	
242.51	4088.4	
242.72	3796.9	
242.93	5721.3	
243.14	5240.8	
243.36	4325.3	
243.57	4693.9	
243.78	6028.5	
243.99	5611.4	
244.2	3790.1	
244.41	3415.3	
244.63	4859.8	
244.84	5552	
245.05	4005.1	
245.26	3729.4	
245.47	5519.3	
245.68	5717.9	
245.9	4922.6	
246.11	3892.5	
246.32	5141.1	
246.53	5505.6	
246.74	5995.8	
246.95	3149.1	
247.16	4752.7	
247.38	5255.1	
247.59	3155.9	
247.8	3715.7	
248.01	4985.4	
248.22	5212.1	
248.43	3394.8	
248.64	3631.7	
248.86	4688.5	
249.07	5067.4	
249.28	3250.8	
249.49	3842	
249.7	5778	
249.91	5879	
250.12	3138.9	
250.34	3207.8	
250.55	5413.5	
250.76	5323.4	
250.97	3851.5	
251.18	3850.2	
251.39	5908.4	
251.6	5463.3	
251.81	4007.2	
252.03	3939.6	
252.24	4986.8	
252.45	5745.9	
252.66	3241.9	
252.87	4061.1	
253.08	5293.3	
253.29	6875.7	
253.5	3319.1	
253.72	4543.8	
253.93	5119.9	
254.14	6213.5	
254.35	3540.3	
254.56	3662.5	
254.77	5486.5	
254.98	4884.4	
255.19	3519.1	
255.41	4515.1	
255.62	5431.2	
255.83	5909.1	
256.04	3969	
256.25	3880.9	
256.46	6426.5	
256.67	4958.1	
256.88	3816	
257.09	4254.3	
257.31	4874.2	
257.52	4997.7	
257.73	4896.7	
257.94	3556.6	
258.15	5098.1	
258.36	5237.3	
258.57	4460.5	
258.78	2826.2	
258.99	5684.5	
259.2	5095.3	
259.41	3596.9	
259.63	3700.7	
259.84	6097.5	
260.05	6444.3	
260.26	4675.5	
260.47	3490.4	
260.68	5824.4	
260.89	5197.1	
261.1	4226.3	
261.31	3373.7	
261.52	5806	
261.73	6184.9	
261.95	4657.1	
262.16	4035.2	
262.37	5883.1	
262.58	5950	
262.79	4569.7	
263	3635.1	
263.21	5287.9	
263.42	5177.9	
263.63	3692.5	
263.84	3586	
264.05	5821.7	
264.26	6154.8	
264.47	4495.3	
264.69	3969.6	
264.9	5975.3	
265.11	5415.5	
265.32	3493.2	
265.53	3547.1	
265.74	5393.7	
265.95	4674.8	
266.16	3809.9	
266.37	4210.6	
266.58	5330.9	
266.79	5107	
267	3562.1	
267.21	3278.1	
267.42	4862.6	
267.63	5214.8	
267.84	3722.5	
268.06	3201.7	
268.27	5698.1	
268.48	5911.8	
268.69	3661.8	
268.9	4281.6	
269.11	5916.6	
269.32	4766.3	
269.53	3724.6	
269.74	3487.7	
269.95	5579.3	
270.16	4638.6	
270.37	3730.7	
270.58	4309.6	
270.79	5126.7	
271	5803.3	
271.21	3961.5	
271.42	3782.6	
271.63	5382.7	
271.84	4967	
272.05	3030.3	
272.26	3366.9	
272.47	5320.6	
272.68	5484.5	
272.89	3603.1	
273.11	4170.3	
273.32	5115.8	
273.53	6161.7	
273.74	3980.6	
273.95	3955.3	
274.16	5884.5	
274.37	5315.2	
274.58	4084.3	
274.79	3252.9	
275	5391.6	
275.21	5920	
275.42	4903.5	
275.63	4186	
275.84	5478.3	
276.05	6853.2	
276.26	3948.5	
276.47	3682.2	
276.68	5134.9	
276.89	6236.1	
277.1	4225	
277.31	3318.4	
277.52	5472.9	
277.73	5668.1	
277.94	3213.9	
278.15	3575.1	
278.36	5451	
278.57	4976.6	
278.78	3586	
278.99	4083	
279.2	4976.6	
279.41	4836.6	
279.62	4694.6	
279.83	3371	
280.04	6399.9	
280.25	4840	
280.46	4702.1	
280.67	3743.7	
280.88	4936.3	
281.09	5859.2	
281.3	3894.6	
281.51	4981.3	
281.72	5027.1	
281.93	5773.2	
282.14	3508.9	
282.35	3781.9	
282.56	5806.7	
282.77	5693.4	
282.98	3571.7	
283.19	4390.8	
283.4	6926.9	
283.61	5214.1	
283.82	3315.7	
284.03	4620.9	
284.24	5398.4	
284.45	5828.5	
284.66	4579.9	
284.87	4428.4	
285.08	5837.4	
285.29	5963.7	
285.5	3137.5	
285.71	3675.4	
285.92	5842.9	
286.12	6475.7	
286.33	4578.6	
286.54	3663.8	
286.75	5741.8	
286.96	5165	
287.17	3315	
287.38	4533.5	
287.59	4925.4	
287.8	4805.2	
288.01	3625.6	
288.22	4169	
288.43	5743.9	
288.64	4784.7	
288.85	4339	
289.06	4141.7	
289.27	5698.1	
289.48	6124.8	
289.69	4635.9	
289.9	4130.1	
290.11	5942.5	
290.32	4956.8	
290.53	4367.6	
290.74	4052.9	
290.94	5659.9	
291.15	5720	
291.36	3550.5	
291.57	4185.4	
291.78	5012.1	
291.99	4734.2	
292.2	3383.2	
292.41	4059.1	
292.62	5782.8	
292.83	5637.4	
293.04	4997	
293.25	3422.8	
293.46	5053.7	
293.67	5823.1	
293.88	3497.2	
294.09	3406.5	
294.29	4808.6	
294.5	5343.8	
294.71	3736.9	
294.92	3631.7	
295.13	5024.3	
295.34	6372.6	
295.55	3191.4	
295.76	3241.9	
295.97	5687.9	
296.18	6404.7	
296.39	3311.6	
296.6	3495.9	
296.81	5322	
297.01	5677.7	
297.22	3670	
297.43	3463.8	
297.64	4951.3	
297.85	4927.4	
298.06	2880.8	
298.27	3118.4	
298.48	5276.9	
298.69	4989.5	
298.9	3778.5	
299.11	3427.6	
299.31	4834.6	
299.52	4820.2	
299.73	4057.7	
299.94	3973.7	
300.15	5310.4	
300.36	4930.8	
300.57	4017.4	
300.78	3970.3	
300.99	5159.5	
301.2	5398.4	
301.4	3451.5	
301.61	3781.9	
301.82	5610.8	
302.03	5648.3	
302.24	4320.5	
302.45	3342.3	
302.66	5550	
302.87	5966.4	
303.08	3501.3	
303.29	4773.8	
303.49	5036	
303.7	5324.7	
303.91	3115.6	
304.12	4524.6	
304.33	4810	
304.54	5366.4	
304.75	3494.5	
304.96	3351.2	
305.16	5572.5	
305.37	6339.1	
305.58	3106.8	
305.79	3170.3	
306	5564.3	
306.21	4709.6	
306.42	3506.8	
306.63	5321.3	
306.83	5133.6	
307.04	5796.4	
307.25	3872.7	
307.46	3885.7	
307.67	4533.5	
307.88	5631.2	
308.09	3434.4	
308.29	3610.6	
308.5	5333.6	
308.71	5858.6	
308.92	3743.7	
309.13	3359.4	
309.34	5142.4	
309.55	5180.7	
309.75	4345.1	
309.96	4052.9	
310.17	5683.1	
310.38	4954	
310.59	4163.5	
310.8	3272	
311.01	5155.4	
311.21	5174.5	
311.42	3312.2	
311.63	3528	
311.84	5048.2	
312.05	5416.2	
312.26	3923.9	
312.46	4248.2	
312.67	5111.7	
312.88	4829.8	
313.09	3394.8	
313.3	3310.9	
313.51	6057.2	
313.71	6406.7	
313.92	3427.6	
314.13	3542.3	
314.34	5455.8	
314.55	5197.1	
314.76	4373.8	
314.96	3801	
315.17	5354.8	
315.38	5611.4	
315.59	3423.5	
315.8	3224.9	
316.01	6075	
316.21	6113.9	
316.42	3291.1	
316.63	3796.9	
316.84	5132.2	
317.05	5929.6	
317.26	4000.4	
317.46	3557.3	
317.67	5232.6	
317.88	5629.9	
318.09	4307.6	
318.3	3188	
318.5	4969.7	
318.71	5578	
318.92	5468.8	
319.13	4006.5	
319.34	5769.8	
319.54	5849	
319.75	3103.4	
319.96	2981.2	
320.17	5644.9	
320.38	5846.3	
320.58	3116.3	
320.79	3706.8	
321	5815.5	
321.21	5966.4	
321.42	3737.5	
321.62	3132	
321.83	4924	
322.04	5309.7	
322.25	3586.7	
322.46	3407.8	
322.66	5392.3	
322.87	5556.1	
323.08	4200.4	
323.29	3338.9	
323.5	6268.8	
323.7	4863.2	
323.91	4631.8	
324.12	4130.1	
324.33	5350.7	
324.53	5568.4	
324.74	4012.7	
324.95	4208.6	
325.16	4716.5	
325.37	5087.2	
325.57	3393.5	
325.78	3481.5	
325.99	5352	
326.2	4823	
326.4	4759.5	
326.61	3174.4	
326.82	5231.9	
327.03	5326.8	
327.24	4819.6	
327.44	4482.3	
327.65	5532.9	
327.86	4479.6	
328.07	3953.9	
328.27	3266.5	
328.48	5923.4	
328.69	4832.5	
328.9	4883.7	
329.1	3624.9	
329.31	5159.5	
329.52	6063.4	
329.73	3437.9	
329.93	3797.6	
330.14	5302.2	
330.35	5443.5	
330.56	5558.9	
330.76	4182.6	
330.97	5085.1	
331.18	5442.8	
331.39	3768.3	
331.59	3026.2	
331.8	5830.6	
332.01	5911.8	
332.22	3537.5	
332.42	3997	
332.63	5403.9	
332.84	4999.1	
333.05	3803.1	
333.25	3469.3	
333.46	5035.3	
333.67	5305.6	
333.88	3583.9	
334.08	3937.6	
334.29	6981.5	
334.5	5912.5	
334.7	3291.1	
334.91	4827.7	
335.12	4866.7	
335.33	5683.8	
335.53	3756	
335.74	5611.4	
335.95	5051.7	
336.16	4904.9	
336.36	3758	
336.57	4392.9	
336.78	4775.2	
336.98	5881.1	
337.19	4645.5	
337.4	3678.2	
337.61	6338.5	
337.81	4842.8	
338.02	3552.5	
338.23	4448.2	
338.43	5962.3	
338.64	4969.1	
338.85	3423.5	
339.05	4471.4	
339.26	6083.8	
339.47	4734.9	
339.68	3419.4	
339.88	5037.3	
340.09	5563.6	
340.3	5731.6	
340.5	3999	
340.71	3057.6	
340.92	4749.2	
341.13	5969.1	
341.33	3309.5	
341.54	4008.6	
341.75	5496.1	
341.95	5105.6	
342.16	3858.4	
342.37	4171	
342.57	4838	
342.78	5255.1	
342.99	4233.8	
343.19	3080.8	
343.4	5679.7	
343.61	5501.5	
343.81	3663.8	
344.02	3353.2	
344.23	5698.1	
344.43	6078.4	
344.64	4238.6	
344.85	4156	
345.06	5560.2	
345.26	5860.6	
345.47	3951.2	
345.68	4632.5	
345.88	4689.2	
346.09	5719.3	
346.3	4058.4	
346.5	3037.8	
346.71	5281.7	
346.92	5053	
347.12	3130	
347.33	3891.1	
347.54	5864	
347.74	6163	
347.95	3874.8	
348.16	2921.1	
348.36	5087.8	
348.57	4913.8	
348.78	3898	
348.98	4136.2	
349.19	5242.1	
349.39	4706.9	
349.6	3119.7	
349.81	3438.5	
350.01	5509	
350.22	5003.2	
350.43	3810.6	
350.63	4524	
350.84	5268.7	
351.05	5007.3	
351.25	3368.2	
351.46	3091.8	
351.67	5756.8	
351.87	4947.2	
352.08	3644	
352.29	4105.5	
352.49	5729.5	
352.7	5375.2	
352.9	3303.4	
353.11	4155.3	
353.32	6259.3	
353.52	5032.5	
353.73	3249.4	
353.94	4175.8	
354.14	5485.8	
354.35	5394.3	
354.55	3337.5	
354.76	3715	
354.97	5498.1	
355.17	5213.4	
355.38	3182.5	
355.59	4416.1	
355.79	4909	
356	5375.2	
356.2	3700.7	
356.41	3205.1	
356.62	4657.8	
356.82	5160.9	
357.03	3949.2	
357.24	3629	
357.44	4975.2	
357.65	5041.4	
357.85	4738.3	
358.06	3689.1	
358.27	4713.7	
358.47	4915.8	
358.68	3112.9	
358.88	3869.3	
359.09	5453.1	
359.3	5803.9	
359.5	4554.7	
359.71	4028.4	
359.91	6182.1	
360.12	5601.9	
360.33	3887	
360.53	4341	
360.74	4854.4	
360.94	4880.3	
361.15	4118.5	
361.36	3372.3	
361.56	5629.9	
361.77	5038	
361.97	4538.3	
362.18	3583.3	
362.38	5612.1	
362.59	4768.4	
362.8	3275.4	
363	3089.7	
363.21	4577.9	
363.41	5199.1	
363.62	3745.7	
363.83	4742.4	
364.03	5248.3	
364.24	6156.9	
364.44	4752.7	
364.65	4743.8	
364.85	5008.6	
365.06	4694.6	
365.27	3404.4	
365.47	3489.1	
365.68	6010.1	
365.88	5001.1	
366.09	3774.4	
366.29	3498.6	
366.5	5216.9	
366.71	5661.3	
366.91	4694.6	
367.12	3926	
367.32	6151.4	
367.53	5441.5	
367.73	3898.6	
367.94	4788.2	
368.14	5386.8	
368.35	6264.7	
368.56	3874.8	
368.76	3268.6	
368.97	5483.1	
369.17	7176.1	
369.38	3372.3	
369.58	3657.7	
369.79	4612.7	
369.99	5870.2	
370.2	4596.3	
370.4	3677.5	
370.61	5297.4	
370.82	6356.9	
371.02	3615.3	
371.23	3019.4	
371.43	4540.3	
371.64	5810.1	
371.84	3650.8	
372.05	4683.7	
372.25	6981.5	
372.46	5500.8	
372.66	3599.6	
372.87	3594.9	
373.07	5535.7	
373.28	7035.5	
373.48	4534.9	
373.69	4265.9	
373.9	4991.6	
374.1	5003.9	
374.31	4416.8	
374.51	3966.2	
374.72	5742.5	
374.92	4758.1	
375.13	4564.9	
375.33	3828.3	
375.54	5282.4	
375.74	4795.7	
375.95	3839.9	
376.15	4956.8	
376.36	5304.9	
376.56	5132.2	
376.77	3894.6	
376.97	4287.8	
377.18	6242.2	
377.38	5388.2	
377.59	4523.3	
377.79	3460.4	
378	5110.4	
378.2	5525.4	
378.41	3452.9	
378.61	3356.6	
378.82	5588.2	
379.02	4749.2	
379.23	3593.5	
379.43	4614.1	
379.64	5644.2	
379.84	5302.9	
380.05	3450.1	
380.25	3350.5	
380.46	5384.8	
380.66	4995.7	
380.87	4703.5	
381.07	4951.3	
381.28	5994.4	
381.48	5391.6	
381.69	3411.9	
381.89	3504.1	
382.1	4500.8	
382.3	5571.8	
382.51	4482.3	
382.71	5352.7	
382.91	5444.9	
383.12	5901.6	
383.32	3779.9	
383.53	4036.5	
383.73	5238.7	
383.94	5096	
384.14	3938.2	
384.35	3198.9	
384.55	5019.6	
384.76	5475.6	
384.96	3847.5	
385.17	4105.5	
385.37	5496.7	
385.58	4786.8	
385.78	4145.8	
385.98	3100.6	
386.19	4956.8	
386.39	5261.2	
386.6	3609.9	
386.8	3758	
387.01	5429.8	
387.21	5458.5	
387.42	4151.9	
387.62	4726.7	
387.83	4782.7	
388.03	5338.4	
388.23	3772.4	
388.44	4578.6	
388.64	4408.6	
388.85	4552.6	
389.05	4133.5	
389.26	4740.4	
389.46	6299.6	
389.67	5702.9	
389.87	4093.9	
390.07	4076.8	
390.28	4981.3	
390.48	4644.8	
390.69	3390.1	
390.89	3670	
391.1	4807.9	
391.3	5639.4	
391.5	4770.4	
391.71	5384.1	
391.91	5414.1	
392.12	6297.5	
392.32	4771.1	
392.53	4243.4	
392.73	4878.9	
392.93	5074.2	
393.14	3763.5	
393.34	4543.1	
393.55	5423	
393.75	4997	
393.95	3849.5	
394.16	3750.5	
394.36	4784.7	
394.57	5416.2	
394.77	3332.7	
394.98	3736.2	
395.18	4773.1	
395.38	4862.6	
395.59	4462.5	
395.79	3483.6	
396	4827.7	
396.2	5322.7	
396.4	4221.5	
396.61	4149.2	
396.81	5404.6	
397.02	4732.2	
397.22	4434.5	
397.42	4472.8	
397.63	5374.6	
397.83	4691.2	
398.04	3351.2	
398.24	3833.1	
398.44	5149.3	
398.65	4354	
398.85	3222.8	
399.05	3351.2	
399.26	4661.9	
399.46	6138.4	
399.67	3676.8	
399.87	3355.9	
400.07	4910.3	
400.28	5230.5	
400.48	3491.1	
400.69	4435.2	
400.89	5402.5	
401.09	5793	
401.3	3304.1	
401.5	4360.8	
401.7	5963.7	
401.91	6193.7	
402.11	3647.4	
402.32	3893.9	
402.52	5457.8	
402.72	5345.2	
402.93	4119.1	
403.13	3091.8	
403.33	6139.1	
403.54	5042.1	
403.74	3843.4	
403.94	4724	
404.15	5109.7	
404.35	6171.9	
404.56	3623.5	
404.76	5322.7	
404.96	5425.8	
405.17	5322.7	
405.37	4764.3	
405.57	4063.9	
405.78	5429.8	
405.98	5056.4	
406.18	3594.2	
406.39	4388.8	
406.59	5501.5	
406.79	5065.3	
407	3424.2	
407.2	3536.2	
407.4	5433.9	
407.61	5574.6	
407.81	3502.7	
408.01	5499.5	
408.22	4446.8	
408.42	6210.8	
408.62	4371	
408.83	3816	
409.03	4852.3	
409.23	4722.6	
409.44	3832.4	
409.64	4063.9	
409.84	5548.6	
410.05	5524.1	
410.25	3846.8	
410.45	3684.3	
410.66	4934.9	
410.86	7174.7	
411.06	3915.7	
411.27	3808.5	
411.47	6842.9	
411.67	4973.2	
411.88	4005.8	
412.08	4186.7	
412.28	5591.6	
412.49	6003.3	
412.69	3665.2	
412.89	3710.9	
413.09	5809.4	
413.3	5694	
413.5	3814	
413.7	3382.6	
413.91	5050.3	
414.11	5754.1	
414.31	3571	
414.52	3887.7	
414.72	5472.2	
414.92	5391.6	
415.12	3602.4	
415.33	4068.6	
415.53	5644.2	
415.73	5853.8	
415.94	4384	
416.14	3842.7	
416.34	4775.2	
416.55	4573.1	
416.75	4971.1	
416.95	4354	
417.15	5608.7	
417.36	6328.2	
417.56	4992.3	
417.76	4212.7	
417.97	5941.8	
418.17	5593.7	
418.37	3762.1	
418.57	3848.8	
418.78	5440.8	
418.98	5180	
419.18	4620.2	
419.38	4617.5	
419.59	5147.9	
419.79	4905.6	
419.99	3725.9	
420.2	4084.3	
420.4	5591	
420.6	5846.3	
420.8	3664.5	
421.01	3501.3	
421.21	5464	
421.41	5592.3	
421.61	4037.9	
421.82	3773.7	
422.02	5024.3	
422.22	5943.2	
422.42	4464.6	
422.63	4257.7	
422.83	5096.7	
423.03	6230.6	
423.23	4187.4	
423.44	3300	
423.64	5201.8	
423.84	5005.2	
424.04	3700.7	
424.25	3433.1	
424.45	6055.2	
424.65	6070.2	
424.85	3292.5	
425.06	3822.9	
425.26	6090	
425.46	4736.3	
425.66	4266.6	
425.87	3936.2	
426.07	5857.9	
426.27	5736.4	
426.47	4029.7	
426.67	3464.5	
426.88	6190.3	
427.08	5729.5	
427.28	4272.1	
427.48	3500	
427.69	4773.1	
427.89	5341.1	
428.09	4188.8	
428.29	3508.9	
428.5	5908.4	
428.7	5487.9	
428.9	3361.4	
429.1	3861.8	
429.3	5436.7	
429.51	5738.4	
429.71	3671.3	
429.91	4380.6	
430.11	5623	
430.31	5810.8	
430.52	3878.2	
430.72	4116.4	
430.92	6090	
431.12	5642.2	
431.32	3539.6	
431.53	4040.6	
431.73	4667.3	
431.93	6180.1	
432.13	3545.7	
432.33	3406.5	
432.54	5124.7	
432.74	5367	
432.94	3296.5	
433.14	4304.8	
433.34	5537.7	
433.55	5045.5	
433.75	4199	
433.95	5713.2	
434.15	5374.6	
434.35	4986.8	
434.56	3487	
434.76	2998.9	
434.96	5231.9	
435.16	5382.7	
435.36	3249.4	
435.56	4242.7	
435.77	4874.2	
435.97	5051.7	
436.17	4913.1	
436.37	4179.9	
436.57	4857.1	
436.78	4768.4	
436.98	5894.7	
437.18	4775.2	
437.38	5384.1	
437.58	5035.3	
437.78	4925.4	
437.99	3673.4	
438.19	5572.5	
438.39	6311.2	
438.59	3585.3	
438.79	3288.4	
438.99	6114.6	
439.2	5053	
439.4	3291.1	
439.6	3285.6	
439.8	5298.1	
440	6324.8	
440.2	4124.6	
440.4	4227	
440.61	5609.4	
440.81	6029.2	
441.01	3295.9	
441.21	4032.5	
441.41	5798.5	
441.61	5614.8	
441.81	4311	
442.02	5249.6	
442.22	6309.8	
442.42	5630.5	
442.62	3271.3	
442.82	3453.6	
443.02	5781.4	
443.22	5051	
443.43	3693.9	
443.63	3305.4	
443.83	4866.7	
444.03	4909.7	
444.23	4322.6	
444.43	4014	
444.63	5122.7	
444.83	6240.2	
445.04	3391.4	
445.24	4500.1	
445.44	5541.1	
445.64	5554.1	
445.84	4122.6	
446.04	4051.6	
446.24	5022.3	
446.44	5872.9	
446.65	3504.8	
446.85	3726.6	
447.05	5227.1	
447.25	5915.2	
447.45	3883.6	
447.65	3339.6	
447.85	5304.9	
448.05	4985.4	
448.25	4197	
448.46	4008.6	
448.66	5260.5	
448.86	5010.7	
449.06	3194.8	
449.26	4196.3	
449.46	5504.9	
449.66	4769.7	
449.86	3682.9	
450.06	3703.4	
450.26	4908.3	
450.47	5364.3	
450.67	4044.1	
450.87	4243.4	
451.07	5455.8	
451.27	5197.7	
451.47	3383.2	
451.67	3738.2	
451.87	4919.9	
452.07	6049	
452.27	3448.8	
452.47	3525.2	
452.67	5304.2	
452.88	5630.5	
453.08	3035.8	
453.28	4735.6	
453.48	6221.7	
453.68	5184.8	
453.88	3332	
454.08	3593.5	
454.28	5429.8	
454.48	5151.3	
454.68	4024.9	
454.88	4474.1	
455.08	5588.9	
455.28	5214.8	
455.48	3237.2	
455.68	3747.1	
455.89	5899.5	
456.09	5528.2	
456.29	3512.3	
456.49	3461.7	
456.69	5754.1	
456.89	5055.1	
457.09	3910.9	
457.29	4126.7	
457.49	5331.5	
457.69	5380.7	
457.89	3662.5	
458.09	3163.4	
458.29	5012.1	
458.49	5717.9	
458.69	4042.7	
458.89	3432.4	
459.09	5796.4	
459.29	5892	
459.49	3629.7	
459.69	4279.6	
459.9	5459.9	
460.1	4940.4	
460.3	3523.9	
460.5	3319.1	
460.7	5397.8	
460.9	5057.1	
461.1	3018.7	
461.3	4018.8	
461.5	5918.6	
461.7	5537	
461.9	3167.5	
462.1	3695.2	
462.3	5024.3	
462.5	5540.4	
462.7	3189.4	
462.9	3280.2	
463.1	6359.6	
463.3	6006.7	
463.5	3395.5	
463.7	4131.4	
463.9	5047.6	
464.1	5387.5	
464.3	3357.3	
464.5	3649.5	
464.7	5638.7	
464.9	5190.9	
465.1	4812	
465.3	3905.5	
465.5	5795.8	
465.7	5823.1	
465.9	4052.9	
466.1	4069.3	
466.3	5519.3	
466.5	5472.9	
466.7	4595	
466.9	3678.8	
467.1	5394.3	
467.3	6249	
467.5	4571.1	
467.7	3542.3	
467.9	6452.5	
468.1	7146.7	
468.3	4299.4	
468.5	4617.5	
468.7	5216.2	
468.9	5296	
469.1	3736.9	
469.3	4361.5	
469.5	6943.3	
469.7	4821.6	
469.9	4283.7	
470.1	3506.8	
470.3	5242.1	
470.5	5251.7	
470.7	4677.6	
470.9	3680.9	
471.1	4976.6	
471.3	5578.7	
471.5	3414	
471.69	5268.1	
471.89	5019.6	
472.09	4627.7	
472.29	4181.3	
472.49	4674.8	
472.69	4783.4	
472.89	5531.6	
473.09	3382.6	
473.29	3623.5	
473.49	4972.5	
473.69	5138.4	
473.89	4369.7	
474.09	3708.2	
474.29	6271.6	
474.49	5976	
474.69	4452.3	
474.89	3820.8	
475.09	5108.3	
475.29	5061.2	
475.49	3371	
475.69	3543	
475.88	6649.1	
476.08	5407.3	
476.28	3289	
476.48	3824.2	
476.68	5887.2	
476.88	5773.9	
477.08	3637.9	
477.28	3882.9	
477.48	5357.5	
477.68	5877.7	
477.88	3414	
478.08	3742.3	
478.28	6156.9	
478.48	5408	
478.67	3788.7	
478.87	3377.8	
479.07	5915.2	
479.27	5475.6	
479.47	3978.5	
479.67	3968.3	
479.87	5698.8	
480.07	6289.3	
480.27	3330.7	
480.47	4819.6	
480.67	5530.2	
480.87	6051.1	
481.06	3572.3	
481.26	4291.2	
481.46	5481.7	
481.66	5343.2	
481.86	3920.5	
482.06	4938.3	
482.26	5151.3	
482.46	5997.1	
482.66	3929.4	
482.86	3513.6	
483.05	5466	
483.25	4931.5	
483.45	6186.9	
483.65	3836.5	
483.85	5005.2	
484.05	5296	
484.25	4320.5	
484.45	4646.2	
484.65	6087.2	
484.84	5974.6	
485.04	3743.7	
485.24	3730	
485.44	6289.3	
485.64	4782	
485.84	3033	
486.04	4355.3	
486.24	5104.2	
486.44	5481	
486.63	3040.6	
486.83	3752.6	
487.03	4930.1	
487.23	5064.6	
487.43	3123.2	
487.63	5248.9	
487.83	5096.7	
488.02	5988.3	
488.22	3874.1	
488.42	4434.5	
488.62	5908.4	
488.82	4843.4	
489.02	3646.7	
489.22	3516.4	
489.41	5808	
489.61	5446.2	
489.81	3377.1	
490.01	3337.5	
490.21	5578.7	
490.41	6261.3	
490.61	3345.7	
490.8	3446.7	
491	5244.2	
491.2	4837.3	
491.4	3974.4	
491.6	3243.3	
491.8	5314.5	
491.99	5426.4	
492.19	3084.9	
492.39	3462.4	
492.59	5686.5	
492.79	5688.6	
492.99	4117.8	
493.18	3339.6	
493.38	5681.1	
493.58	6337.1	
493.78	3786	
493.98	3459.7	
494.18	5365	
494.37	4872.1	
494.57	3877.5	
494.77	3784.6	
494.97	5447.6	
495.17	5621.7	
495.37	3316.3	
495.56	3626.3	
495.76	5712.5	
495.96	5416.2	
496.16	4436.6	
496.36	3404.4	
496.55	5547.9	
496.75	5074.9	
496.95	3732.8	
497.15	3603.1	
497.35	5482.4	
497.54	5388.9	
497.74	3405.8	
497.94	5013.4	
498.14	6095.4	
498.34	5889.3	
498.53	3096.5	
498.73	3821.5	
498.93	4779.3	
499.13	5393	
499.33	3575.8	
499.52	4104.1	
499.72	5321.3	
499.92	5616.2	
500.12	3272.7	
500.32	3518.4	
500.51	5575.9	
500.71	5297.4	
500.91	4273.4	
501.11	3865.9	
501.31	5445.5	
501.5	5908.4	
501.7	4478.2	
501.9	3525.9	
502.1	5310.4	
502.29	5627.8	
502.49	3880.9	
502.69	4472.8	
502.89	5431.9	
503.09	5509.7	
503.28	3162.1	
503.48	3286.3	
503.68	4924.7	
503.88	4898.7	
504.07	4165.6	
504.27	3848.8	
504.47	5216.9	
504.67	5388.2	
504.86	4132.1	
505.06	3917.1	
505.26	5068.7	
505.46	6701.6	
505.65	3784.6	
505.85	4062.5	
506.05	5070.1	
506.25	5530.9	
506.44	3250.1	
506.64	4206.5	
506.84	5027.8	
507.04	5909.8	
507.23	3502.7	
507.43	4037.9	
507.63	6817.7	
507.83	5188.9	
508.02	3992.9	
508.22	3711.6	
508.42	7041.6	
508.62	5015.5	
508.81	3926.6	
509.01	4431.1	
509.21	4994.3	
509.4	5214.8	
509.6	4128	
509.8	3485.6	
510	5110.4	
510.19	6478.4	
510.39	3484.3	
510.59	3610.6	
510.79	4953.4	
510.98	6150.7	
511.18	3627	
511.38	3700.7	
511.57	5737.7	
511.77	5590.3	
511.97	4328	
512.17	3460.4	
512.36	5686.5	
512.56	5720.7	
512.76	3506.1	
512.95	3346.4	
513.15	5834	
513.35	4622.3	
513.55	4230.4	
513.74	3519.8	
513.94	5775.3	
514.14	5186.1	
514.33	4411.3	
514.53	4061.1	
514.73	5188.2	
514.92	5331.5	
515.12	3620.8	
515.32	3439.2	
515.51	5358.9	
515.71	5910.4	
515.91	5111	
516.11	3461.7	
516.3	6817.7	
516.5	5011.4	
516.7	4007.9	
516.89	4552	
517.09	5142.4	
517.29	5059.2	
517.48	4205.8	
517.68	3741.6	
517.88	4887.8	
518.07	5427.8	
518.27	4154	
518.47	3358	
518.66	5930.2	
518.86	4821.6	
519.06	3183.9	
519.25	3532.7	
519.45	5081.7	
519.65	6281.1	
519.84	4197.7	
520.04	4769	
520.24	6717.3	
520.43	5633.3	
520.63	4006.5	
520.83	3704.1	
521.02	4984.1	
521.22	5518.6	
521.42	4242	
521.61	4682.3	
521.81	5147.2	
522.01	5401.9	
522.2	4022.9	
522.4	3829	
522.6	5671.5	
522.79	4635.9	
522.99	3878.2	
523.18	3193.5	
523.38	5328.1	
523.58	5255.8	
523.77	4917.9	
523.97	3109.5	
524.17	6882.5	
524.36	6193.1	
524.56	4302.8	
524.76	3913	
524.95	5091.3	
525.15	4902.2	
525.34	3650.8	
525.54	3612.6	
525.74	5457.2	
525.93	4655	
526.13	4678.9	
526.33	3457	
526.52	5618.3	
526.72	5147.9	
526.91	4588.1	
527.11	3919.1	
527.31	5629.9	
527.5	6059.9	
527.7	3721.2	
527.89	2964.1	
528.09	4702.1	
528.29	5041.4	
528.48	4124.6	
528.68	3874.1	
528.87	5448.3	
529.07	5570.5	
529.27	3734.8	
529.46	3308.2	
529.66	5156.1	
529.85	5551.4	
530.05	3170.3	
530.25	3893.2	
530.44	6324.1	
530.64	5140.4	
530.83	3526.6	
531.03	3719.8	
531.23	5413.5	
531.42	5326.8	
531.62	4351.9	
531.81	3568.2	
532.01	5453.7	
532.21	5859.2	
532.4	3288.4	
532.6	3599	
532.79	6283.9	
532.99	5349.3	
533.18	3603.1	
533.38	4487.1	
533.58	4966.3	
533.77	5587.5	
533.97	3418.1	
534.16	4188.8	
534.36	5778	
534.55	4879.6	
534.75	4307.6	
534.95	3510.9	
535.14	5580.7	
535.34	4940.4	
535.53	3219.4	
535.73	5074.9	
535.92	6102.3	
536.12	5097.4	
536.31	3353.2	
536.51	4433.9	
536.71	5429.8	
536.9	4943.1	
537.1	3473.4	
537.29	3671.3	
537.49	5803.3	
537.68	4913.1	
537.88	3902.7	
538.07	3249.4	
538.27	5066.7	
538.46	5969.8	
538.66	3131.3	
538.86	3478.1	
539.05	5104.2	
539.25	5535	
539.44	3740.3	
539.64	3482.2	
539.83	4980.7	
540.03	5965.1	
540.22	3331.4	
540.42	3500.7	
540.61	5324	
540.81	5388.9	
541	3917.1	
541.2	4466.6	
541.39	4922	
541.59	5221.6	
541.78	4143.7	
541.98	3461.7	
542.18	4704.9	
542.37	4676.9	
542.57	3820.8	
542.76	4224.3	
542.96	4818.2	
543.15	5412.1	
543.35	3909.6	
543.54	3316.3	
543.74	5748	
543.93	5341.8	
544.13	3938.2	
544.32	4970.4	
544.52	5686.5	
544.71	4906.3	
544.91	3166.8	
545.1	4319.8	
545.3	5015.5	
545.49	5593.7	
545.69	3166.8	
545.88	3711.6	
546.08	6443.6	
546.27	6047.7	
546.47	4164.2	
546.66	3485	
546.86	5837.4	
547.05	6420.4	
547.24	3719.1	
547.44	3532.1	
547.63	4927.4	
547.83	5926.1	
548.02	3938.2	
548.22	4119.8	
548.41	4814.1	
548.61	6002.6	
548.8	3562.8	
549	3494.5	
549.19	5432.6	
549.39	5717.9	
549.58	3297.2	
549.78	3840.6	
549.97	5713.2	
550.17	5337	
550.36	4696.7	
550.55	5681.1	
550.75	5337	
550.94	6201.9	
551.14	3608.5	
551.33	4033.1	
551.53	4762.2	
551.72	5599.1	
551.92	4015.4	
552.11	3741	
552.31	5743.9	
552.5	5628.5	
552.69	5371.8	
552.89	3449.5	
553.08	5692.7	
553.28	5381.4	
553.47	3816.7	
553.67	4907.6	
553.86	6326.2	
554.06	4829.8	
554.25	3182.5	
554.44	3650.8	
554.64	7076.4	
554.83	6553.5	
555.03	3605.1	
555.22	3986.7	
555.42	5924.8	
555.61	5711.8	
555.8	3822.9	
556	4112.3	
556.19	4856.4	
556.39	6158.9	
556.58	3908.2	
556.78	3947.8	
556.97	5567.1	
557.16	5350.7	
557.36	5022.3	
557.55	3590.8	
557.75	4752.7	
557.94	6277.7	
558.13	3702	
558.33	3447.4	
558.52	6107	
558.72	5085.1	
558.91	3558	
559.1	3771	
559.3	4868	
559.49	4747.9	
559.69	3181.2	
559.88	4117.1	
560.07	5657.9	
560.27	6034	
560.46	4364.2	
560.66	4481	
560.85	5403.9	
561.04	4851.6	
561.24	3601.7	
561.43	3831.1	
561.63	4993.6	
561.82	5257.1	
562.01	4942.4	
562.21	4076.1	
562.4	5679	
562.59	6455.2	
562.79	3921.9	
562.98	3620.8	
563.18	5526.8	
563.37	6844.3	
563.56	4341.7	
563.76	3564.1	
563.95	5061.9	
564.14	5052.3	
564.34	3866.6	
564.53	3640.6	
564.73	5487.9	
564.92	5735	
565.11	3994.2	
565.31	3362.8	
565.5	5970.5	
565.69	5059.8	
565.89	3656.3	
566.08	3869.3	
566.27	5856.5	
566.47	6165.8	
566.66	4416.8	
566.85	3214.6	
567.05	5504.9	
567.24	5012.7	
567.44	3551.9	
567.63	4790.2	
567.82	5726.8	
568.02	5403.2	
568.21	3463.1	
568.4	3904.8	
568.6	5245.5	
568.79	5299.5	
568.98	3315.7	
569.18	3457	
569.37	5298.8	
569.56	7087.3	
569.76	3787.4	
569.95	4625.7	
570.14	5659.9	
570.34	5478.3	
570.53	3397.6	
570.72	3373.7	
570.91	6029.9	
571.11	5274.9	
571.3	3836.5	
571.49	4683	
571.69	5304.9	
571.88	4949.3	
572.07	4323.3	
572.27	4294.6	
572.46	4896.7	
572.65	5803.3	
572.85	3534.8	
573.04	3828.3	
573.23	6016.2	
573.43	5397.8	
573.62	3334.8	
573.81	3915.7	
574	5332.2	
574.2	5160.9	
574.39	3553.9	
574.58	3738.9	
574.78	6026.5	
574.97	5366.4	
575.16	3949.8	
575.36	4144.4	
575.55	5672.9	
575.74	5785.5	
575.93	3247.4	
576.13	4131.4	
576.32	5091.9	
576.51	5561.6	
576.71	3627.6	
576.9	5368.4	
577.09	5941.8	
577.28	5520.6	
577.48	3997.6	
577.67	3166.2	
577.86	5138.4	
578.05	5384.8	
578.25	3638.6	
578.44	3811.3	
578.63	5283.8	
578.83	6286.6	
579.02	3209.8	
579.21	4490.5	
579.4	5387.5	
579.6	5123.3	
579.79	3867.9	
579.98	5850.4	
580.17	5651.7	
580.37	5803.9	
580.56	3383.9	
580.75	4013.3	
580.94	6148	
581.14	6079.1	
581.33	4356.7	
581.52	3512.9	
581.71	5542.5	
581.91	6185.5	
582.1	3147	
582.29	3672.7	
582.48	5245.5	
582.68	5122	
582.87	4128	
583.06	3773.7	
583.25	5526.1	
583.45	4919.9	
583.64	4348.5	
583.83	4926	
584.02	5106.3	
584.21	5438.7	
584.41	4353.3	
584.6	3728.7	
584.79	5195	
584.98	5802.6	
585.18	3193.5	
585.37	3283.6	
585.56	4814.8	
585.75	5534.3	
585.94	3480.9	
586.14	4094.6	
586.33	6207.4	
586.52	5244.8	
586.71	3968.3	
586.91	3727.3	
587.1	4756.7	
587.29	5674.9	
587.48	3717.7	
587.67	3579.8	
587.87	5614.2	
588.06	5702.9	
588.25	4889.2	
588.44	4282.3	
588.63	5416.9	
588.83	5925.5	
589.02	3867.2	
589.21	3801	
589.4	5393	
589.59	5234.6	
589.78	3246	
589.98	3578.5	
590.17	5020.3	
590.36	5582.1	
590.55	3104.7	
590.74	4019.5	
590.94	6847.7	
591.13	5542.5	
591.32	3682.9	
591.51	3361.4	
591.7	6001.2	
591.89	5533.6	
592.09	3412.6	
592.28	3834.5	
592.47	4770.4	
592.66	6524.1	
592.85	3355.9	
593.05	3568.2	
593.24	5289.2	
593.43	6066.1	
593.62	3618.1	
593.81	4068.6	
594	5362.3	
594.19	5533.6	
594.39	3514.3	
594.58	3489.1	
594.77	5677.7	
594.96	6175.3	
595.15	3502.7	
595.34	4057	
595.54	5761.6	
595.73	4949.3	
595.92	3006.4	
596.11	4037.2	
596.3	6171.2	
596.49	5042.8	
596.68	3781.2	
596.88	4205.8	
597.07	5989.6	
597.26	4857.8	
597.45	3448.8	
597.64	4515.1	
597.83	5093.3	
598.02	5722	
598.22	3437.9	
598.41	4089.1	
598.6	5481.7	
598.79	5008.6	
598.98	3480.9	
599.17	4369	
599.36	5511.1	
599.55	6607.4	
599.74	5367.7	
599.94	5122	
600.13	5954.1	
600.32	5002.5	
600.51	3277.4	
600.7	3391.4	
600.89	6617	
601.08	6682.5	
601.27	3190.1	
601.47	4064.5	
601.66	5954.8	
601.85	6555.5	
602.04	3796.9	
602.23	4123.9	
602.42	5107.6	
602.61	5672.9	
602.8	3773.7	
602.99	3581.9	
603.18	5412.1	
603.37	5638.7	
603.57	4158.1	
603.76	4688.5	
603.95	6272.9	
604.14	5836	
604.33	3691.8	
604.52	3873.4	
604.71	5551.4	
604.9	5223.7	
605.09	4745.1	
605.28	4374.5	
605.47	6130.3	
605.66	5779.4	
605.86	4151.9	
606.05	3600.3	
606.24	6112.5	
606.43	4844.1	
606.62	3945.8	
606.81	4627	
607	6002.6	
607.19	5338.4	
607.38	3454.9	
607.57	3661.8	
607.76	5159.5	
607.95	4756.1	
608.14	4044.1	
608.33	4555.4	
608.52	5142.4	
608.72	5991	
608.91	3343	
609.1	3314.3	
609.29	5369.8	
609.48	4944.5	
609.67	4287.1	
609.86	3474	
610.05	4951.3	
610.24	5303.6	
610.43	3307.5	
610.62	2959.3	
610.81	6309.8	
611	6143.9	
611.19	3426.9	
611.38	4070	
611.57	5528.2	
611.76	6722.8	
611.95	3305.4	
612.14	3239.9	
612.33	5379.3	
612.52	5029.1	
612.71	3725.3	
612.9	3107.5	
613.09	4632.5	
613.28	6806.1	
613.47	3592.1	
613.66	4389.5	
613.85	5478.3	
614.04	5173.2	
614.24	3553.9	
614.43	2945.7	
614.62	5622.4	
614.81	5599.8	
615	4132.1	
615.19	4073.4	
615.38	4958.1	
615.57	5283.8	
615.76	3956	
615.95	4812	
616.14	5646.9	
616.33	5370.5	
616.52	4260.5	
616.71	4428.4	
616.9	5550	
617.09	5416.9	
617.28	3700.7	
617.47	4755.4	
617.66	4783.4	
617.85	4786.8	
618.04	4369	
618.22	3932.8	
618.41	5004.6	
618.6	5814.2	
618.79	3835.8	
618.98	3474.7	
619.17	6033.3	
619.36	4647.5	
619.55	3595.6	
619.74	3662.5	
619.93	5408.7	
620.12	4887.1	
620.31	4119.1	
620.5	4205.2	
620.69	6238.8	
620.88	6184.2	
621.07	4903.5	
621.26	4027.7	
621.45	5487.2	
621.64	5416.9	
621.83	4059.1	
622.02	3355.9	
622.21	5531.6	
622.4	5336.3	
622.59	4510.3	
622.78	4321.2	
622.97	4920.6	
623.16	5801.2	
623.35	3982.6	
623.54	3249.4	
623.72	5109	
623.91	5197.7	
624.1	4201.7	
624.29	3045.3	
624.48	6117.3	
624.67	5589.6	
624.86	4064.5	
625.05	3306.1	
625.24	6324.1	
625.43	4876.9	
625.62	5739.1	
625.81	3450.8	
626	5812.8	
626.19	5068.7	
626.38	4127.3	
626.56	3672	
626.75	4950.6	
626.94	5640.1	
627.13	4159.4	
627.32	3110.9	
627.51	5613.5	
627.7	6767.2	
627.89	3185.3	
628.08	4145.1	
628.27	4832.5	
628.46	5087.2	
628.65	3456.3	
628.83	3149.8	
629.02	5635.3	
629.21	4948.6	
629.4	3777.1	
629.59	3975.1	
629.78	4873.5	
629.97	5696.8	
630.16	3976.5	
630.35	3535.5	
630.54	6122.1	
630.72	5842.2	
630.91	3549.8	
631.1	4061.8	
631.29	5363.6	
631.48	5502.9	
631.67	4093.9	
631.86	3652.2	
632.05	5072.1	
632.24	5118.6	
632.42	3396.9	
632.61	3959.4	
632.8	5225.7	
632.99	4788.2	
633.18	3912.3	
633.37	4231.8	
633.56	5421.7	
633.75	5264	
633.93	3885	
634.12	3618.1	
634.31	6108.4	
634.5	5713.8	
634.69	3667.9	
634.88	4128.7	
635.07	5186.8	
635.25	5771.2	
635.44	4456.4	
635.63	4614.8	
635.82	5064.6	
636.01	4655.7	
636.2	4430.4	
636.39	3999.7	
636.57	6149.4	
636.76	5810.1	
636.95	3477.5	
637.14	4805.9	
637.33	5461.9	
637.52	6349.4	
637.7	3284.9	
637.89	4185.4	
638.08	5051.7	
638.27	6525.5	
638.46	4239.3	
638.65	4642.1	
638.83	6548.7	
639.02	4997.7	
639.21	4204.5	
639.4	4672.8	
639.59	5430.5	
639.78	5145.9	
639.96	3627	
640.15	3644.7	
640.34	5375.9	
640.53	5509	
640.72	3435.8	
640.91	3717.1	
641.09	4914.4	
641.28	6045.6	
641.47	3648.1	
641.66	4412	
641.85	5536.3	
642.03	5782.8	
642.22	4278.2	
642.41	3784	
642.6	5014.1	
642.79	4571.7	
642.97	3663.8	
643.16	4283.7	
643.35	5018.9	
643.54	4886.5	
643.73	3578.5	
643.91	4369.7	
644.1	4866	
644.29	5353.4	
644.48	3683.6	
644.67	3768.3	
644.85	4987.5	
645.04	5400.5	
645.23	3438.5	
645.42	3734.1	
645.6	5040.7	
645.79	6102.3	
645.98	3754.6	
646.17	2985.9	
646.36	4867.3	
646.54	5457.8	
646.73	4668	
646.92	3495.9	
647.11	5142.4	
647.29	6148.7	
647.48	3511.6	
647.67	3469.9	
647.86	6370.5	
648.05	6291.4	
648.23	3885.7	
648.42	5129.5	
648.61	5725.4	
648.8	5423.7	
648.98	3609.9	
649.17	3824.2	
649.36	5130.2	
649.55	4688.5	
649.73	3621.5	
649.92	4382.7	
650.11	4977.9	
650.3	5320.6	
650.48	3790.8	
650.67	3539.6	
650.86	5670.8	
651.05	4665.3	
651.23	3705.5	
651.42	3717.1	
651.61	5089.2	
651.79	5203.2	
651.98	3915	
652.17	3600.3	
652.36	5602.6	
652.54	4726	
652.73	3653.6	
652.92	3577.8	
653.11	5620.3	
653.29	5717.9	
653.48	3101.3	
653.67	3986.7	
653.85	5431.9	
654.04	6399.2	
654.23	4230.4	
654.42	3801	
654.6	5152	
654.79	5755.5	
654.98	3474	
655.16	3913.7	
655.35	4901.5	
655.54	4743.1	
655.73	3493.2	
655.91	3482.9	
656.1	5798.5	
656.29	4745.8	
656.47	3103.4	
656.66	4674.1	
656.85	5029.8	
657.03	4980.7	
657.22	3476.8	
657.41	3556.6	
657.59	4985.4	
657.78	4805.9	
657.97	3198.2	
658.16	3904.8	
658.34	5651	
658.53	5952.1	
658.72	4704.9	
658.9	5222.3	
659.09	5017.5	
659.28	5209.3	
659.46	3583.3	
659.65	3519.8	
659.84	4896.7	
660.02	5352	
660.21	3425.6	
660.4	3447.4	
660.58	5724.1	
660.77	5186.1	
660.96	3994.2	
661.14	3149.8	
661.33	6269.5	
661.52	6075.6	
661.7	3096.5	
661.89	6506.4	
662.08	4871.4	
662.26	4470	
662.45	3393.5	
662.64	3481.5	
662.82	5522	
663.01	4825	
663.2	3489.7	
663.38	4166.3	
663.57	5442.1	
663.75	5358.9	
663.94	3792.2	
664.13	4969.7	
664.31	4886.5	
664.5	5516.5	
664.69	3984	
664.87	4521.2	
665.06	4744.5	
665.25	5271.5	
665.43	4745.8	
665.62	4844.1	
665.8	5602.6	
665.99	5005.9	
666.18	3778.5	
666.36	3928.7	
666.55	5595.1	
666.74	5514.5	
666.92	3497.2	
667.11	5016.8	
667.29	5077.6	
667.48	5554.1	
667.67	4619.5	
667.85	3715	
668.04	5081	
668.22	5040.1	
668.41	3878.2	
668.6	4111	
668.78	4831.8	
668.97	5097.4	
669.15	4210.6	
669.34	3321.1	
669.53	4834.6	
669.71	5248.9	
669.9	3486.3	
670.08	4046.1	
670.27	4851	
670.46	5428.5	
670.64	4209.3	
670.83	4473.4	
671.01	4749.9	
671.2	5393	
671.38	3508.2	
671.57	3461.7	
671.76	5963.7	
671.94	6490	
672.13	3364.8	
672.31	4463.9	
672.5	5533.6	
672.69	4914.4	
672.87	3494.5	
673.06	3835.2	
673.24	5347.9	
673.43	4930.8	
673.61	4191.5	
673.8	3792.8	
673.98	5509.7	
674.17	5707.7	
674.36	4302.8	
674.54	4201.7	
674.73	5346.6	
674.91	5639.4	
675.1	3931.4	
675.28	3596.2	
675.47	5130.8	
675.65	5670.8	
675.84	3828.3	
676.03	4086.4	
676.21	4977.2	
676.4	4549.9	
676.58	4510.3	
676.77	4276.8	
676.95	6250.4	
677.14	4979.3	
677.32	3561.4	
677.51	3325.9	
677.69	5569.1	
677.88	4656.4	
678.06	3428.3	
678.25	3545.7	
678.44	5156.1	
678.62	4935.6	
678.81	3266.5	
678.99	4078.2	
679.18	5928.9	
679.36	5501.5	
679.55	3741	
679.73	4335.5	
679.92	5403.9	
680.1	4926.7	
680.29	4941.7	
680.47	3794.2	
680.66	4881.7	
680.84	5646.9	
681.03	3203	
681.21	4202.4	
681.4	4927.4	
681.58	4814.8	
681.77	3542.3	
681.95	3530	
682.14	5716.6	
682.32	6040.1	
682.51	4410.6	
682.69	3358	
682.88	4875.5	
683.06	5517.2	
683.25	4150.5	
683.43	4525.3	
683.62	5167.7	
683.8	5513.8	
683.99	4638	
684.17	3999.7	
684.36	6413.6	
684.54	5197.7	
684.73	3437.2	
684.91	3619.4	
685.1	5581.4	
685.28	5076.2	
685.46	4251.6	
685.65	4349.2	
685.83	5829.9	
686.02	5297.4	
686.2	3803.1	
686.39	3908.9	
686.57	5034.6	
686.76	6417.7	
686.94	3688.4	
687.13	3845.4	
687.31	5672.9	
687.5	5229.8	
687.68	3367.5	
687.86	4523.3	
688.05	6793.8	
688.23	4757.4	
688.42	4541.7	
688.6	3728.7	
688.79	5063.3	
688.97	5096.7	
689.16	4067.9	
689.34	3175.7	
689.52	5688.6	
689.71	5978	
689.89	4289.1	
690.08	3679.5	
690.26	5339.7	
690.45	5174.5	
690.63	4579.9	
690.81	3819.5	
691	5121.3	
691.18	5031.9	
691.37	3965.6	
691.55	6130.3	
691.74	5016.2	
691.92	6895.5	
692.1	4063.2	
692.29	3502	
692.47	5205.3	
692.66	4666	
692.84	3667.2	
693.02	4185.4	
693.21	4672.8	
693.39	5173.2	
693.58	4229.1	
693.76	3728	
693.94	6212.2	
694.13	5978.7	
694.31	3591.5	
694.5	4593.6	
694.68	4845.5	
694.86	5186.1	
695.05	3890.5	
695.23	4014.7	
695.42	5523.4	
695.6	7634.8	
695.78	4432.5	
695.97	3701.4	
696.15	5526.1	
696.34	4992.9	
696.52	3497.2	
696.7	4257	
696.89	5341.8	
697.07	4785.4	
697.25	4183.3	
697.44	5595.7	
697.62	5291.3	
697.81	5757.5	
697.99	3921.2	
698.17	4298.7	
698.36	4816.8	
698.54	5447.6	
698.72	4209.3	
698.91	3386	
699.09	5100.8	
699.28	4920.6	
699.46	3941	
699.64	3841.3	
699.83	4886.5	
700.01	6023.1	
700.19	4535.6	
700.38	3104.7	
700.56	5937.7	
700.74	4939.7	
700.93	3409.9	
701.11	4192.2	
701.29	5416.2	
701.48	6403.3	
701.66	3586.7	
701.84	3635.1	
702.03	4967	
702.21	5554.8	
702.39	3274.7	
702.58	3771.7	
702.76	5374.6	
702.94	5433.3	
703.13	3286.3	
703.31	5494	
703.49	4715.8	
703.68	5589.6	
703.86	3410.6	
704.04	4359.4	
704.23	5218.9	
704.41	5507	
704.59	3580.5	
704.78	4730.1	
704.96	6209.4	
705.14	5521.3	
705.33	3357.3	
705.51	4163.5	
705.69	5025.7	
705.87	5807.4	
706.06	4371.7	
706.24	3293.8	
706.42	5270.1	
706.61	5525.4	
706.79	4382.7	
706.97	3289	
707.16	4867.3	
707.34	5378	
707.52	4375.1	
707.7	3556.6	
707.89	4965.6	
708.07	4690.5	
708.25	4414.7	
708.44	4476.2	
708.62	4898.7	
708.8	5961.6	
708.98	4648.9	
709.17	3659.7	
709.35	5245.5	
709.53	5290.6	
709.72	3358	
709.9	3869.3	
710.08	5482.4	
710.26	5627.1	
710.45	4918.5	
710.63	3685.7	
710.81	5224.4	
710.99	5319.9	
711.18	4313.7	
711.36	3829	
711.54	5129.5	
711.72	5803.3	
711.91	4033.8	
712.09	3476.1	
712.27	5333.6	
712.45	5928.9	
712.64	4284.4	
712.82	3357.3	
713	4894	
713.18	5081	
713.37	3556.6	
713.55	4714.4	
713.73	5980.8	
713.91	4777.2	
714.1	4127.3	
714.28	3672.7	
714.46	5808.7	
714.64	5181.4	
714.83	3274.7	
715.01	4040.6	
715.19	5378.6	
715.37	4829.8	
715.55	3900	
715.74	4182	
715.92	6278.4	
716.1	4476.2	
716.28	5246.2	
716.47	4369	
716.65	5059.2	
716.83	5203.9	
717.01	4187.4	
717.19	4237.9	
717.38	7083.9	
717.56	4889.2	
717.74	4449.6	
717.92	3590.1	
718.1	5961	
718.29	5201.2	
718.47	3190.7	
718.65	3757.3	
718.83	5750	
719.01	5656.5	
719.2	3003	
719.38	3889.8	
719.56	5312.4	
719.74	6789	
719.92	3543	
720.11	4586.1	
720.29	5471.5	
720.47	4694.6	
720.65	3315	
720.83	4154	
721.02	5065.3	
721.2	4909	
721.38	4203.8	
721.56	3559.4	
721.74	4524.6	
721.92	4644.1	
722.11	4746.5	
722.29	4472.8	
722.47	5793.7	
722.65	5075.5	
722.83	3645.4	
723.01	4512.4	
723.2	5107.6	
723.38	5399.1	
723.56	3130.7	
723.74	4128	
723.92	4664.6	
724.1	5782.8	
724.29	3509.5	
724.47	4661.9	
724.65	4775.2	
724.83	4668	
725.01	3496.6	
725.19	4295.3	
725.37	4729.4	
725.56	4858.5	
725.74	3319.8	
725.92	3545	
726.1	4716.5	
726.28	4984.8	
726.46	3975.1	
726.64	3700	
726.83	5023.7	
727.01	5211.4	
727.19	3338.9	
727.37	3991.5	
727.55	5059.8	
727.73	5524.7	
727.91	3300	
728.09	3128.6	
728.28	5487.2	
728.46	6059.3	
728.64	4136.2	
728.82	4018.8	
729	6432	
729.18	5790.3	
729.36	3274	
729.54	5456.5	
729.72	6665.5	
729.91	5091.9	
730.09	5150.6	
730.27	3835.2	
730.45	4952	
730.63	5601.2	
730.81	4386.7	
730.99	3545.7	
731.17	5994.4	
731.35	4737.6	
731.53	4031.8	
731.71	3651.5	
731.9	5710.4	
732.08	5884.5	
732.26	3934.1	
732.44	3573.7	
732.62	6020.3	
732.8	5506.3	
732.98	4296.6	
733.16	3422.2	
733.34	5524.1	
733.52	4431.8	
733.7	3883.6	
733.88	4159.4	
734.07	5414.8	
734.25	5165	
734.43	3424.2	
734.61	4903.5	
734.79	6584.2	
734.97	5035.3	
735.15	3564.1	
735.33	3867.2	
735.51	5396.4	
735.69	5046.2	
735.87	4888.5	
736.05	4064.5	
736.23	5246.9	
736.41	5024.3	
736.59	3906.2	
736.77	3969	
736.95	5614.2	
737.13	5140.4	
737.32	3562.1	
737.5	3725.9	
737.68	6057.9	
737.86	5058.5	
738.04	3405.8	
738.22	5126.1	
738.4	4870.8	
738.58	5180	
738.76	3969.6	
738.94	3088.3	
739.12	4985.4	
739.3	4877.6	
739.48	4527.4	
739.66	4244.8	
739.84	5216.2	
740.02	5167.7	
740.2	3181.2	
740.38	3489.7	
740.56	5530.2	
740.74	4517.1	
740.92	4088.4	
741.1	4022.9	
741.28	5096	
741.46	4926	
741.64	3721.8	
741.82	4167.6	
742	5097.4	
742.18	5087.2	
742.36	3845.4	
742.54	3513.6	
742.72	5614.2	
742.9	4527.4	
743.08	4339.6	
743.26	3211.2	
743.44	5805.3	
743.62	5723.4	
743.8	4439.3	
743.98	3606.5	
744.16	5462.6	
744.34	5161.6	
744.52	4280.9	
744.7	4313.7	
744.88	5603.2	
745.06	5152	
745.24	4362.2	
745.42	4576.5	
745.6	5704.3	
745.78	5472.9	
745.96	3362.8	
746.14	3670	
746.32	6429.3	
746.5	5747.3	
746.68	4221.5	
746.86	3738.9	
747.03	6132.3	
747.21	4695.3	
747.39	4250.2	
747.57	3726.6	
747.75	5369.8	
747.93	5754.1	
748.11	3719.8	
748.29	3618.8	
748.47	6856.6	
748.65	5215.5	
748.83	4395.6	
749.01	4024.9	
749.19	5603.2	
749.37	4820.9	
749.55	4009.2	
749.73	4171	
749.91	5259.9	
750.09	5061.2	
750.26	4166.3	
750.44	3588.7	
750.62	5324	
750.8	5252.4	
750.98	3442	
751.16	3779.2	
751.34	5375.2	
751.52	4827.7	
751.7	4481.6	
751.88	3448.1	
752.06	5826.5	
752.24	5577.3	
752.42	3437.9	
752.59	3743.7	
752.77	5264	
752.95	6415.6	
753.13	4458.4	
753.31	3909.6	
753.49	5010	
753.67	5411.4	
753.85	4154	
754.03	3721.2	
754.21	5746.6	
754.38	6032	
754.56	3981.3	
754.74	3200.3	
754.92	5104.2	
755.1	5797.1	
755.28	3359.4	
755.46	3371.6	
755.64	6689.3	
755.82	6924.2	
755.99	3792.2	
756.17	3997	
756.35	4653.7	
756.53	6128.9	
756.71	3057.6	
756.89	3850.9	
757.07	5742.5	
757.25	4917.9	
757.42	4369	
757.6	5110.4	
757.78	5710.4	
757.96	4785.4	
758.14	3910.9	
758.32	3519.1	
758.5	4405.9	
758.67	5173.2	
758.85	3831.7	
759.03	3918.4	
759.21	5345.9	
759.39	4760.2	
759.57	3444	
759.75	4498.7	
759.92	5925.5	
760.1	5227.8	
760.28	4812	
760.46	5010.7	
760.64	4973.2	
760.82	4804.5	
760.99	4600.4	
761.17	3842.7	
761.35	5747.3	
761.53	4719.2	
761.71	3915	
761.89	4528.7	
762.06	5485.1	
762.24	5085.1	
762.42	3966.9	
762.6	3663.1	
762.78	4963.6	
762.96	5618.3	
763.13	4199	
763.31	3901.4	
763.49	5788.9	
763.67	4944.5	
763.85	4693.9	
764.02	5261.9	
764.2	5999.2	
764.38	5205.9	
764.56	3784	
764.74	4701.5	
764.91	6096.1	
765.09	5066.7	
765.27	3524.6	
765.45	3361.4	
765.63	6176.7	
765.8	5978	
765.98	3159.3	
766.16	3459.7	
766.34	4699.4	
766.52	4513.7	
766.69	4341	
766.87	3344.3	
767.05	5114.5	
767.23	5784.1	
767.41	3652.9	
767.58	3872	
767.76	5636.7	
767.94	5751.4	
768.12	3690.4	
768.29	4387.4	
768.47	5218.2	
768.65	5895.4	
768.83	3416	
769	4482.3	
769.18	4797.7	
769.36	5524.7	
769.54	4515.1	
769.72	3480.9	
769.89	5840.8	
770.07	5915.2	
770.25	3753.9	
770.43	5018.2	
770.6	6506.4	
770.78	6913.3	
770.96	3967.6	
771.14	4545.1	
771.31	5721.3	
771.49	5155.4	
771.67	3199.6	
771.85	3404.4	
772.02	4511	
772.2	5170.4	
772.38	4218.8	
772.55	3762.1	
772.73	5392.3	
772.91	5243.5	
773.09	4045.4	
773.26	4147.8	
773.44	5369.8	
773.62	5070.8	
773.8	3601.7	
773.97	3371	
774.15	5455.8	
774.33	5133.6	
774.5	3544.4	
774.68	3870.7	
774.86	5679	
775.04	5074.2	
775.21	3652.2	
775.39	3631.7	
775.57	5455.8	
775.74	5776.6	
775.92	3489.7	
776.1	3368.9	
776.27	5416.2	
776.45	6587	
776.63	3635.1	
776.81	3265.1	
776.98	5098.1	
777.16	6127.5	
777.34	3728.7	
777.51	4083	
777.69	5071.5	
777.87	4878.9	
778.04	3838.6	
778.22	4489.1	
778.4	4922	
778.57	5550	
778.75	3179.1	
778.93	3456.3	
779.1	4804.5	
779.28	4605.2	
779.46	3232.4	
779.64	3637.9	
779.81	5731.6	
779.99	6598.6	
780.17	4401.8	
780.34	4563.6	
780.52	5170.4	
780.69	5378.6	
780.87	3977.2	
781.05	3598.3	
781.22	5210.7	
781.4	5397.8	
781.58	3685.7	
781.75	3023.5	
781.93	5378.6	
782.11	4738.3	
782.28	4564.2	
782.46	3726.6	
782.64	4626.4	
782.81	5516.5	
782.99	3839.9	
783.17	3751.2	
783.34	5436.7	
783.52	4737.6	
783.69	3968.3	
783.87	4838.7	
784.05	4821.6	
784.22	4821.6	
784.4	4783.4	
784.58	4100	
784.75	5668.1	
784.93	4875.5	
785.1	3713	
785.28	4414.7	
785.46	5449	
785.63	4789.5	
785.81	3725.3	
785.99	3640.6	
786.16	4943.1	
786.34	5386.2	
786.51	3648.1	
786.69	4005.1	
786.87	4642.7	
787.04	5102.2	
787.22	3540.3	
787.39	4445.5	
787.57	4779.3	
787.75	5847	
787.92	4587.4	
788.1	4556.7	
788.27	4818.9	
788.45	4593.6	
788.63	4270.7	
788.8	3089.7	
788.98	5276.9	
789.15	4509.6	
789.33	3229	
789.5	3809.2	
789.68	5719.3	
789.86	5855.1	
790.03	4277.5	
790.21	3647.4	
790.38	5697.4	
790.56	4982	
790.73	3591.5	
790.91	3609.2	
791.09	4817.5	
791.26	5551.4	
791.44	3846.1	
791.61	3266.5	
791.79	4823	
791.96	4900.8	
792.14	3428.3	
792.32	3054.2	
792.49	4896.7	
792.67	5001.1	
792.84	3493.2	
793.02	3267.2	
793.19	5330.9	
793.37	5928.9	
793.54	3015.3	
793.72	3391.4	
793.89	6068.8	
794.07	4890.5	
794.25	3988.8	
794.42	3081.5	
794.6	5892.7	
794.77	5519.3	
794.95	4250.9	
795.12	3733.4	
795.3	4846.9	
795.47	5489.9	
795.65	4060.4	
795.82	3907.5	
796	4658.4	
796.17	6523.5	
796.35	3748.5	
796.52	4468	
796.7	5419.6	
796.87	5467.4	
797.05	4713.1	
797.22	4635.9	
797.4	5434.6	
797.57	6424.5	
797.75	3882.3	
797.92	3670.6	
798.1	5785.5	
798.27	4858.5	
798.45	3151.1	
798.62	3400.3	
798.8	5147.9	
798.97	5598.5	
799.15	4143	
799.32	3936.2	
799.5	4493.9	
799.67	5218.9	
799.85	4209.3	
800.02	3110.2	
800.2	4900.1	
800.37	5137	
800.55	4379.9	
800.72	3654.9	
800.9	5608.7	
801.07	6032.6	
801.25	4905.6	
801.42	4056.3	
801.6	5664.7	
801.77	5380	
801.95	3779.9	
802.12	3596.2	
802.29	5405.3	
802.47	5317.2	
802.64	3974.4	
802.82	3084.9	
802.99	4829.1	
803.17	5771.2	
803.34	3893.9	
803.52	3515.7	
803.69	6520	
803.87	4666.6	
804.04	3895.9	
804.21	4011.3	
804.39	5974.6	
804.56	5060.5	
804.74	3338.2	
804.91	4115.1	
805.09	4851	
805.26	4956.8	
805.44	3368.2	
805.61	3721.8	
805.78	5525.4	
805.96	5665.4	
806.13	4080.2	
806.31	4433.9	
806.48	4446.8	
806.66	4993.6	
806.83	4068.6	
807	3960.8	
807.18	4845.5	
807.35	5249.6	
807.53	3986	
807.7	3103.4	
807.87	5976	
808.05	4933.6	
808.22	4360.8	
808.4	3136.8	
808.57	4965	
808.74	4607.9	
808.92	3656.3	
809.09	4643.4	
809.27	4841.4	
809.44	5433.9	
809.61	3189.4	
809.79	3528.7	
809.96	6033.3	
810.14	5654.4	
810.31	3137.5	
810.48	3865.9	
810.66	4997.7	
810.83	5786.2	
811.01	3648.1	
811.18	4009.2	
811.35	5664	
811.53	4382	
811.7	4358.1	
811.87	4119.1	
812.05	4973.2	
812.22	4874.8	
812.39	3567.6	
812.57	3411.9	
812.74	4996.4	
812.92	6521.4	
813.09	3800.3	
813.26	4153.3	
813.44	6289.3	
813.61	4873.5	
813.78	3197.6	
813.96	4264.6	
814.13	4926.7	
814.3	4631.1	
814.48	4575.8	
814.65	3791.5	
814.82	6077.7	
815	4763.6	
815.17	3882.3	
815.34	4853.7	
815.52	4824.3	
815.69	4864.6	
815.87	3848.1	
816.04	3331.4	
816.21	4894	
816.38	4392.2	
816.56	3786.7	
816.73	3495.9	
816.9	6263.4	
817.08	5694.7	
817.25	3519.1	
817.42	4504.2	
817.6	4579.9	
817.77	5019.6	
817.94	3987.4	
818.12	3542.3	
818.29	4682.3	
818.46	7349.5	
818.64	3650.2	
818.81	3460.4	
818.98	4688.5	
819.16	6711.2	
819.33	4248.2	
819.5	3928	
819.67	5277.6	
819.85	5971.9	
820.02	3824.9	
820.19	4039.3	
820.37	5205.9	
820.54	4764.3	
820.71	3963.5	
820.88	4857.8	
821.06	5135.6	
821.23	4711	
821.4	4011.3	
821.58	3930.1	
821.75	5666	
821.92	5059.2	
822.09	3218	
822.27	3377.1	
822.44	4969.7	
822.61	4906.9	
822.79	3241.3	
822.96	6210.1	
823.13	5373.2	
823.3	4663.9	
823.48	3762.8	
823.65	3366.2	
823.82	5667.4	
823.99	4547.2	
824.17	4783.4	
824.34	3433.1	
824.51	6479.8	
824.68	5021.6	
824.86	3594.2	
825.03	3978.5	
825.2	4983.4	
825.37	6010.8	
825.55	3500.7	
825.72	3941	
825.89	6549.4	
826.06	6133.7	
826.24	3844	
826.41	3797.6	
826.58	6044.2	
826.75	5254.4	
826.92	3085.6	
827.1	3368.9	
827.27	8211	
827.44	6488.6	
827.61	3641.3	
827.79	4453	
827.96	4772.4	
828.13	5073.5	
828.3	3734.8	
828.47	3224.2	
828.65	5129.5	
828.82	5146.5	
828.99	4919.2	
829.16	4306.9	
829.34	5556.1	
829.51	5343.8	
829.68	3917.8	
829.85	4115.1	
830.02	5802.6	
830.2	5638.1	
830.37	3087.7	
830.54	4778.6	
830.71	6326.9	
830.88	4874.2	
831.05	3137.5	
831.23	3598.3	
831.4	6036.7	
831.57	6784.9	
831.74	3675.4	
831.91	3229	
832.09	5225.1	
832.26	5538.4	
832.43	3766.9	
832.6	4272.7	
832.77	5239.4	
832.94	5917.9	
833.12	2993.4	
833.29	3711.6	
833.46	4838.7	
833.63	7037.5	
833.8	4107.5	
833.97	3788.1	
834.15	5634	
834.32	5319.3	
834.49	3959.4	
834.66	4069.3	
834.83	5794.4	
835	4724.7	
835.17	3624.9	
835.35	3609.2	
835.52	5425.8	
835.69	5400.5	
835.86	3878.9	
836.03	3151.8	
836.2	5496.1	
836.37	5111.7	
836.55	3771.7	
836.72	3573	
836.89	5180.7	
837.06	5653.8	
837.23	3859.7	
837.4	4260.5	
837.57	6373.3	
837.75	6987	
837.92	3425.6	
838.09	3676.8	
838.26	5113.1	
838.43	5879.7	
838.6	3984	
838.77	3596.2	
838.94	6669.6	
839.11	6399.2	
839.29	3760.8	
839.46	2970.2	
839.63	5530.9	
839.8	5279	
839.97	3672.7	
840.14	3654.3	
840.31	5335	
840.48	5537.7	
840.65	3062.4	
840.82	3719.1	
841	5515.9	
841.17	5497.4	
841.34	3439.9	
841.51	3492.5	
841.68	5504.3	
841.85	5185.5	
842.02	3517.7	
842.19	2953.9	
842.36	5319.9	
842.53	5272.8	
842.7	3378.5	
842.87	4151.2	
843.05	6937.2	
843.22	5178.6	
843.39	3222.8	
843.56	3480.2	
843.73	5056.4	
843.9	5633.3	
844.07	5398.4	
844.24	4541.7	
844.41	8084	
844.58	4840.7	
844.75	3262.4	
844.92	3512.3	
845.09	5565	
845.26	5509.7	
845.43	3348.4	
845.6	3541.6	
845.77	5507	
845.94	5262.6	
846.12	3710.2	
846.29	3891.1	
846.46	5728.9	
846.63	5526.1	
846.8	3357.3	
846.97	3973.7	
847.14	5971.2	
847.31	5511.1	
847.48	3825.6	
847.65	4138.3	
847.82	5830.6	
847.99	5799.2	
848.16	4450.2	
848.33	4162.8	
848.5	5063.3	
848.67	6009.4	
848.84	3290.4	
849.01	3532.1	
849.18	5052.3	
849.35	4661.2	
849.52	4248.2	
849.69	3293.8	
849.86	5728.2	
850.03	5975.3	
850.2	3352.5	
850.37	4134.2	
850.54	5924.8	
850.71	5186.1	
850.88	4042	
851.05	3337.5	
851.22	5410.7	
851.39	6062.7	
851.56	3179.1	
851.73	3902.7	
851.9	4859.8	
852.07	5841.5	
852.24	3760.1	
852.41	3331.4	
852.58	5403.9	
852.75	4950.6	
852.92	3757.3	
853.09	3300.6	
853.26	5124.7	
853.43	5930.2	
853.6	3350.5	
853.77	2902.7	
853.94	6079.1	
854.11	4827.7	
854.28	4967.7	
854.44	3581.2	
854.61	6518.7	
854.78	5801.2	
854.95	3315	
855.12	4156.7	
855.29	4483.7	
855.46	6105	
855.63	3361.4	
855.8	4630.5	
855.97	5097.4	
856.14	5864	
856.31	4786.1	
856.48	3660.4	
856.65	5059.2	
856.82	4818.2	
856.99	3205.8	
857.16	3619.4	
857.33	6746	
857.49	5193	
857.66	3667.2	
857.83	3857.7	
858	5180	
858.17	5423	
858.34	3151.8	
858.51	3360.7	
858.68	6178	
858.85	6217.6	
859.02	3934.8	
859.19	4175.8	
859.36	4842.8	
859.52	4837.3	
859.69	3408.5	
859.86	3971.7	
860.03	4924.7	
860.2	6128.2	
860.37	3022.8	
860.54	3388.7	
860.71	5763.7	
860.88	6194.4	
861.05	3809.2	
861.21	4215.4	
861.38	6151.4	
861.55	4752.7	
861.72	3076	
861.89	3763.5	
862.06	5801.9	
862.23	6268.8	
862.4	3249.4	
862.56	3500.7	
862.73	5626.5	
862.9	5348.6	
863.07	3891.8	
863.24	3043.3	
863.41	4746.5	
863.58	4872.1	
863.75	3426.3	
863.91	3880.9	
864.08	6094.8	
864.25	5728.2	
864.42	4214	
864.59	4726	
864.76	6412.9	
864.93	4892.6	
865.09	3261.7	
865.26	3584.6	
865.43	6032.6	
865.6	6349.4	
865.77	2945.7	
865.94	3327.3	
866.1	6038.8	
866.27	5798.5	
866.44	5068.7	
866.61	3188.7	
866.78	5224.4	
866.95	5623.7	
867.11	3207.8	
867.28	2973.7	
867.45	5831.9	
867.62	4981.3	
867.79	3930.7	
867.96	3360	
868.12	4863.2	
868.29	5844.2	
868.46	2910.2	
868.63	4484.4	
868.8	5939.8	
868.97	5791	
869.13	3538.2	
869.3	3537.5	
869.47	5648.3	
869.64	5821.7	
869.81	3391.4	
869.97	3403.7	
870.14	5511.8	
870.31	6203.3	
870.48	3259	
870.65	4296	
870.81	5157.5	
870.98	5283.1	
871.15	3843.4	
871.32	3475.4	
871.48	5636	
871.65	6219	
871.82	3336.1	
871.99	3691.1	
872.16	6645.7	
872.32	6011.5	
872.49	3408.5	
872.66	3396.2	
872.83	5770.5	
872.99	5070.1	
873.16	3855.6	
873.33	3300.6	
873.5	5393.7	
873.67	5436	
873.83	3520.5	
874	4501.4	
874.17	5513.8	
874.34	6518.7	
874.5	4306.9	
874.67	4195.6	
874.84	6096.1	
875.01	4832.5	
875.17	4720.6	
875.34	3313.6	
875.51	5443.5	
875.68	6543.3	
875.84	4094.6	
876.01	4908.3	
876.18	5741.8	
876.34	5632.6	
876.51	3373.7	
876.68	3272.7	
876.85	5152.7	
877.01	5963	
877.18	4752.7	
877.35	3349.8	
877.52	5318.6	
877.68	4852.3	
877.85	3292.5	
878.02	3321.1	
878.18	5279	
878.35	5038.7	
878.52	2722.4	
878.69	3777.1	
878.85	5731.6	
879.02	5662.6	
879.19	4757.4	
879.35	3651.5	
879.52	5713.8	
879.69	5905.7	
879.86	2878.8	
880.02	3732.8	
880.19	5315.8	
880.36	6481.1	
880.52	3874.1	
880.69	3985.3	
880.86	5780.1	
881.02	5835.3	
881.19	3700.7	
881.36	3676.1	
881.52	5681.7	
881.69	5092.6	
881.86	3624.9	
882.02	3583.9	
882.19	5956.9	
882.36	7005.4	
882.52	3446.7	
882.69	4714.4	
882.86	5485.1	
883.02	5450.3	
883.19	4048.2	
883.36	3833.8	
883.52	5771.2	
883.69	6689.3	
883.86	3351.8	
884.02	3099.9	
884.19	5778.7	
884.36	5339.7	
884.52	3782.6	
884.69	3553.9	
884.86	5071.5	
885.02	6410.8	
885.19	3766.2	
885.36	3846.1	
885.52	5324.7	
885.69	5489.2	
885.86	4890.5	
886.02	4351.3	
886.19	5804.6	
886.35	5287.2	
886.52	3710.2	
886.69	4750.6	
886.85	4901.5	
887.02	6131.6	
887.19	6131.6	
887.35	6131.6	
887.52	6131.6	
887.68	6131.6	
887.85	6131.6	
888.02	6131.6	
888.18	6131.6	
888.35	6131.6	
888.51	6131.6	
888.68	6131.6	
888.85	6131.6	
889.01	6131.6	
889.18	6131.6	
889.35	6131.6	
889.51	6131.6	
889.68	6131.6	
889.84	6131.6	
890.01	6131.6	
890.17	6131.6	
890.34	6131.6	
890.51	6131.6	
890.67	6131.6	
890.84	6131.6	
891	6131.6	
891.17	6131.6	
891.34	6131.6	
891.5	6131.6	
891.67	6131.6	
891.83	6131.6	
892	6131.6	
892.16	6131.6	
892.33	6131.6	
892.5	6131.6	
892.66	6131.6	
892.83	6131.6	
892.99	6131.6	
893.16	6131.6	
893.32	6131.6	
893.49	6131.6	
893.65	6131.6	
893.82	6131.6	
893.99	6131.6	
894.15	6131.6	
894.32	6131.6	
894.48	6131.6	
894.65	6131.6	
894.81	6131.6	
894.98	6131.6	
895.14	6131.6	
895.31	6131.6	
895.47	6131.6	
895.64	6131.6	
895.81	6131.6	
895.97	6131.6	
896.14	6131.6	
896.3	6131.6	
896.47	6131.6	
896.63	6131.6	
896.8	6131.6	
896.96	6131.6	
897.13	6131.6	
897.29	6131.6	
897.46	6131.6	
897.62	6131.6	
897.79	6131.6	
897.95	6131.6	
898.12	6131.6	
898.28	6131.6	
898.45	6131.6	
898.61	6131.6	
898.78	6131.6	
898.94	6131.6	
899.11	6131.6	
899.27	6131.6	
899.44	6131.6	
899.6	6131.6	
899.77	6131.6	
899.93	6131.6	
900.1	6131.6	
900.26	6131.6	
900.43	6131.6	
900.59	6131.6	
900.76	6131.6	
900.92	6131.6	
901.09	6131.6	
901.25	6131.6	
901.42	6131.6	
901.58	6131.6	
901.75	6131.6	
901.91	6131.6	
902.07	6131.6	
902.24	6131.6	
902.4	6131.6	
902.57	6131.6	
902.73	6131.6	
902.9	6131.6	
903.06	6131.6	
903.23	6131.6	
903.39	6131.6	
903.56	6131.6	
903.72	6131.6	
903.88	6131.6	
904.05	6131.6	
904.21	6131.6	
904.38	6131.6	
904.54	6131.6	
904.71	6131.6	
904.87	6131.6	
905.03	6131.6	
905.2	6131.6	
905.36	6131.6	
905.53	6131.6	
905.69	6131.6	
905.86	6131.6	
906.02	6131.6	
906.18	6131.6	
906.35	6131.6	
906.51	6131.6	
906.68	6131.6	
906.84	6131.6	
907.01	6131.6	
907.17	6131.6	
907.33	6131.6	
907.5	6131.6	
907.66	6131.6	
907.83	6131.6	
907.99	6131.6	
908.15	6131.6	
908.32	6131.6	
908.48	6131.6	
908.65	6131.6	
908.81	6131.6	
908.97	6131.6	
909.14	6131.6	
909.3	6131.6	
909.47	6131.6	
909.63	6131.6	
909.79	6131.6	
909.96	6131.6	
910.12	6131.6	
910.28	6131.6	
910.45	6131.6	
910.61	6131.6	
910.78	6131.6	
910.94	6131.6	
911.1	6131.6	
911.27	6131.6	
911.43	6131.6	
911.59	6131.6	
911.76	6131.6	
911.92	6131.6	
912.08	6131.6	
912.25	6131.6	
912.41	6131.6	
912.57	6131.6	
912.74	6131.6	
912.9	6131.6	
913.07	6131.6	
913.23	6131.6	
913.39	6131.6	
913.56	6131.6	
913.72	6131.6	
913.88	6131.6	
914.05	6131.6	
914.21	6131.6	
914.37	6131.6	
914.54	6131.6	
914.7	6131.6	
914.86	6131.6	
915.03	6131.6	
915.19	6131.6	
