Wavelength	Intensities	
nm	a.u.	
179.22	1498.8	
179.44	1505.9	
179.65	1491.6	
179.86	1520.3	
180.08	1529.8	
180.29	3275.4	
180.51	2557.9	
180.72	4535.6	
180.94	4790.2	
181.15	2354.5	
181.37	2332	
181.58	4260.5	
181.79	4397	
182.01	2414.6	
182.22	2507.4	
182.44	4539	
182.65	3977.8	
182.87	3009.8	
183.08	2711.5	
183.29	4690.5	
183.51	4005.8	
183.72	2462.3	
183.94	3291.1	
184.15	4238.6	
184.37	4115.7	
184.58	2355.2	
184.79	2789.3	
185.01	4063.9	
185.22	4575.2	
185.44	2960.7	
185.65	2660.3	
185.86	4344.4	
186.08	3942.3	
186.29	2258.2	
186.51	2390	
186.72	4088.4	
186.94	4571.1	
187.15	2683.5	
187.36	2658.9	
187.58	5449.6	
187.79	4339	
188.01	2725.2	
188.22	3953.9	
188.43	4878.3	
188.65	4383.3	
188.86	2412.5	
189.08	2729.9	
189.29	4108.2	
189.5	4069.3	
189.72	2467.8	
189.93	2588.6	
190.15	4509.6	
190.36	5063.3	
190.57	2731.3	
190.79	2663	
191	4493.9	
191.22	4515.1	
191.43	2769.5	
191.64	2408.4	
191.86	4660.5	
192.07	4531.5	
192.29	2454.1	
192.5	2486.9	
192.71	4582	
192.93	4110.3	
193.14	2461.7	
193.35	2609.1	
193.57	4100	
193.78	4584	
194	2119.6	
194.21	2469.2	
194.42	3943.7	
194.64	4214	
194.85	2628.2	
195.07	2996.2	
195.28	4167.6	
195.49	3829	
195.71	3110.2	
195.92	2417.3	
196.13	4394.9	
196.35	4325.3	
196.56	3286.3	
196.78	2733.4	
196.99	5074.9	
197.2	4739.7	
197.42	2975	
197.63	2710.1	
197.84	3944.4	
198.06	4362.2	
198.27	2510.8	
198.48	3119.7	
198.7	4122.6	
198.91	4328	
199.13	2745.6	
199.34	2760	
199.55	4595.6	
199.77	3732.8	
199.98	2489.6	
200.19	2798.2	
200.41	4221.5	
200.62	3999	
200.83	2777	
201.05	2960	
201.26	4257	
201.47	4122.6	
201.69	2535.4	
201.9	2510.1	
202.11	4259.1	
202.33	4730.8	
202.54	2597.5	
202.76	2819.4	
202.97	4227	
203.18	4343.1	
203.4	2766.8	
203.61	2845.3	
203.82	4307.6	
204.04	3994.9	
204.25	2722.4	
204.46	2642.6	
204.68	4233.8	
204.89	4322.6	
205.1	2682.2	
205.32	2323.1	
205.53	4418.8	
205.74	4511	
205.96	2150.4	
206.17	2690.3	
206.38	4390.8	
206.6	4506.9	
206.81	2940.2	
207.02	2561.3	
207.24	4330.1	
207.45	4590.2	
207.66	2634.4	
207.88	2392	
208.09	4328.7	
208.3	4220.2	
208.52	2466.4	
208.73	2667.8	
208.94	4214.7	
209.15	4587.4	
209.37	2610.5	
209.58	2662.4	
209.79	4517.1	
210.01	4138.3	
210.22	2304.6	
210.43	2328.5	
210.65	4180.6	
210.86	4398.4	
211.07	2583.9	
211.29	2413.2	
211.5	4328.7	
211.71	4205.2	
211.93	2489	
212.14	2471.9	
212.35	4260.5	
212.56	4239.3	
212.78	2726.5	
212.99	2316.9	
213.2	4686.4	
213.42	4155.3	
213.63	2535.4	
213.84	2578.4	
214.06	3931.4	
214.27	3898.6	
214.48	2553.8	
214.69	2787.3	
214.91	4619.5	
215.12	4554.7	
215.33	2726.5	
215.55	2853.5	
215.76	4904.2	
215.97	4413.4	
216.18	2669.2	
216.4	2695.8	
216.61	4008.6	
216.82	4479.6	
217.04	2451.4	
217.25	2561.3	
217.46	4530.8	
217.67	4435.2	
217.89	2374.3	
218.1	2336	
218.31	4260.5	
218.53	4323.3	
218.74	2598.9	
218.95	2487.6	
219.16	4231.8	
219.38	4696.7	
219.59	2498.5	
219.8	2817.3	
220.01	4965.6	
220.23	4298	
220.44	2970.2	
220.65	2458.9	
220.87	4310.3	
221.08	4608.6	
221.29	2400.9	
221.5	2923.1	
221.72	5197.7	
221.93	4049.5	
222.14	2742.9	
222.35	3107.5	
222.57	4231.8	
222.78	4521.2	
222.99	2752.5	
223.2	2727.9	
223.42	4328.7	
223.63	4399.7	
223.84	2153.8	
224.05	2180.4	
224.27	4906.3	
224.48	4709	
224.69	3121.1	
224.9	2723.1	
225.12	4295.3	
225.33	4218.8	
225.54	2305.3	
225.75	2479.4	
225.97	4014	
226.18	4227	
226.39	2599.6	
226.6	2482.8	
226.82	4112.3	
227.03	3983.3	
227.24	2721.1	
227.45	2351.1	
227.67	4532.8	
227.88	4612.7	
228.09	3023.5	
228.3	2935.4	
228.52	4432.5	
228.73	4179.9	
228.94	2578.4	
229.15	2303.3	
229.36	4258.4	
229.58	4266.6	
229.79	2684.9	
230	2884.2	
230.21	4848.2	
230.43	4182.6	
230.64	2660.3	
230.85	2705.4	
231.06	4519.9	
231.28	4468	
231.49	2312.2	
231.7	2676.7	
231.91	4450.2	
232.12	4208.6	
232.34	2466.4	
232.55	2624.8	
232.76	4534.9	
232.97	4222.9	
233.18	2463.7	
233.4	2737.5	
233.61	4292.5	
233.82	4070	
234.03	2631	
234.25	2575	
234.46	5327.4	
234.67	4248.2	
234.88	2727.2	
235.09	2495.1	
235.31	4261.8	
235.52	4119.8	
235.73	2652.8	
235.94	2335.4	
236.15	4128	
236.37	4846.2	
236.58	2452.8	
236.79	2646.7	
237	4388.1	
237.21	3915.7	
237.43	2747	
237.64	2333.3	
237.85	6348	
238.06	3992.2	
238.27	2751.8	
238.48	2366.1	
238.7	4474.1	
238.91	4172.4	
239.12	2612.5	
239.33	2696.5	
239.54	3995.6	
239.76	4135.5	
239.97	2652.1	
240.18	2661.7	
240.39	4775.2	
240.6	4294.6	
240.82	2738.1	
241.03	2359.9	
241.24	4198.3	
241.45	4639.3	
241.66	2419.3	
241.87	2818.7	
242.09	4700.8	
242.3	4802.5	
242.51	2830.3	
242.72	2585.9	
242.93	4450.9	
243.14	4109.6	
243.36	2939.5	
243.57	3164.8	
243.78	4674.8	
243.99	4441.4	
244.2	2619.4	
244.41	2375	
244.63	3981.9	
244.84	4316.4	
245.05	2781.8	
245.26	2642.6	
245.47	4428.4	
245.68	4364.9	
245.9	3183.2	
246.11	2766.1	
246.32	4033.8	
246.53	4384	
246.74	3957.4	
246.95	2298.5	
247.16	4061.1	
247.38	4216.8	
247.59	2389.3	
247.8	2650.1	
248.01	3901.4	
248.22	4225.6	
248.43	2470.5	
248.64	2624.1	
248.86	3942.3	
249.07	4139.6	
249.28	2489	
249.49	2747.7	
249.7	4479.6	
249.91	4473.4	
250.12	2325.8	
250.34	2371.5	
250.55	4323.9	
250.76	4246.1	
250.97	2678.7	
251.18	2757.9	
251.39	4484.4	
251.6	4312.3	
251.81	2741.5	
252.03	2717	
252.24	4141.7	
252.45	4347.2	
252.66	2415.9	
252.87	2797.5	
253.08	4236.6	
253.29	5053.7	
253.5	2430.3	
253.72	3014.6	
253.93	4220.2	
254.14	4728.8	
254.35	2491	
254.56	2560	
254.77	4354.7	
254.98	3989.4	
255.19	2559.3	
255.41	3052.2	
255.62	4384.7	
255.83	4508.3	
256.04	2859	
256.25	2671.9	
256.46	4883	
256.67	4070.7	
256.88	2710.8	
257.09	2878.8	
257.31	3874.8	
257.52	3996.3	
257.73	3211.2	
257.94	2526.5	
258.15	4258.4	
258.36	4199	
258.57	2962	
258.78	2137.4	
258.99	4542.4	
259.2	4095.9	
259.41	2487.6	
259.63	2622.8	
259.84	4705.5	
260.05	4769.7	
260.26	3073.3	
260.47	2506	
260.68	4551.3	
260.89	4106.9	
261.1	2933.4	
261.31	2453.5	
261.52	4635.2	
261.73	4697.4	
261.95	3150.5	
262.16	2763.4	
262.37	4568.3	
262.58	4631.1	
262.79	3091.1	
263	2570.2	
263.21	4270	
263.42	4061.8	
263.63	2770.2	
263.84	2518.3	
264.05	4495.3	
264.26	4682.3	
264.47	3032.4	
264.69	2711.5	
264.9	4733.5	
265.11	4244.8	
265.32	2473.3	
265.53	2480.8	
265.74	4284.4	
265.95	3861.8	
266.16	2613.9	
266.37	2837.8	
266.58	4280.3	
266.79	4055.7	
267	2526.5	
267.21	2446	
267.42	3943	
267.63	4235.9	
267.84	2575	
268.06	2399.5	
268.27	4511	
268.48	4499.4	
268.69	2577.7	
268.9	2887.6	
269.11	4384	
269.32	3829	
269.53	2604.3	
269.74	2486.2	
269.95	4300.1	
270.16	3927.3	
270.37	2639.8	
270.58	2958.6	
270.79	4167.6	
271	4504.2	
271.21	2759.3	
271.42	2621.4	
271.63	4473.4	
271.84	3909.6	
272.05	2258.2	
272.26	2408.4	
272.47	4277.5	
272.68	4288.4	
272.89	2622.1	
273.11	2801.6	
273.32	4045.4	
273.53	4667.3	
273.74	2768.2	
273.95	2795.5	
274.16	4383.3	
274.37	4162.2	
274.58	2893.1	
274.79	2434.4	
275	4381.3	
275.21	4493.2	
275.42	3255.6	
275.63	2788.7	
275.84	4416.1	
276.05	5171.1	
276.26	2740.9	
276.47	2598.9	
276.68	4193.6	
276.89	4817.5	
277.1	2884.9	
277.31	2381.8	
277.52	4302.1	
277.73	4616.1	
277.94	2369.5	
278.15	2562	
278.36	4373.8	
278.57	4030.4	
278.78	2569.5	
278.99	2754.5	
279.2	4100	
279.41	3988.8	
279.62	3128.6	
279.83	2404.3	
280.04	4889.2	
280.25	4021.5	
280.46	3123.2	
280.67	2641.2	
280.88	4038.6	
281.09	4515.8	
281.3	2736.8	
281.51	3266.5	
281.72	4412.7	
281.93	4347.2	
282.14	2502.6	
282.35	2688.3	
282.56	4500.1	
282.77	4435.2	
282.98	2606.4	
283.19	2979.1	
283.4	5139.7	
283.61	4149.9	
283.82	2466.4	
284.03	3061	
284.24	4372.4	
284.45	4483.7	
284.66	3123.2	
284.87	2975	
285.08	4577.9	
285.29	4600.4	
285.5	2428.2	
285.71	2571.6	
285.92	4463.9	
286.12	4861.2	
286.33	3073.3	
286.54	2629.6	
286.75	4423.6	
286.96	4141	
287.17	2494.4	
287.38	2980.5	
287.59	4106.2	
287.8	4191.5	
288.01	2586.6	
288.22	2819.4	
288.43	4285	
288.64	3829.7	
288.85	2983.2	
289.06	2819.4	
289.27	4649.6	
289.48	4646.2	
289.69	3114.3	
289.9	2884.2	
290.11	4605.9	
290.32	4128	
290.53	2943.6	
290.74	2742.9	
290.94	4483.7	
291.15	4492.6	
291.36	2504.7	
291.57	2799.6	
291.78	4144.4	
291.99	3884.3	
292.2	2495.8	
292.41	2790	
292.62	4501.4	
292.83	4421.6	
293.04	3272	
293.25	2499.9	
293.46	4187.4	
293.67	4457.1	
293.88	2479.4	
294.09	2441.2	
294.29	4044.1	
294.5	4284.4	
294.71	2635.7	
294.92	2557.2	
295.13	4108.9	
295.34	4816.1	
295.55	2323.1	
295.76	2302.6	
295.97	4490.5	
296.18	4777.9	
296.39	2408.4	
296.6	2497.8	
296.81	4222.9	
297.01	4491.2	
297.22	2585.9	
297.43	2563.4	
297.64	4182	
297.85	3951.9	
298.06	2212.5	
298.27	2328.5	
298.48	4156	
298.69	4101.4	
298.9	2724.5	
299.11	2504.7	
299.31	3988.1	
299.52	3973.7	
299.73	2824.8	
299.94	2742.2	
300.15	4275.5	
300.36	4040.6	
300.57	2792.7	
300.78	2687.6	
300.99	4090.5	
301.2	4217.5	
301.4	2599.6	
301.61	2664.4	
301.82	4349.9	
302.03	4461.8	
302.24	2888.3	
302.45	2430.3	
302.66	4410	
302.87	4399	
303.08	2539.5	
303.29	3135.4	
303.49	4131.4	
303.7	4159.4	
303.91	2342.9	
304.12	3022.1	
304.33	3925.3	
304.54	4235.9	
304.75	2501.9	
304.96	2530.6	
305.16	4420.2	
305.37	4782	
305.58	2351.1	
305.79	2326.5	
306	4429.8	
306.21	3872.7	
306.42	2555.9	
306.63	3512.3	
306.83	4121.9	
307.04	4377.9	
307.25	2707.4	
307.46	2688.3	
307.67	3840.6	
307.88	4379.2	
308.09	2607.1	
308.29	2493.7	
308.5	4274.8	
308.71	4459.1	
308.92	2674.6	
309.13	2396.8	
309.34	4259.1	
309.55	4179.2	
309.75	3016.7	
309.96	2772.3	
310.17	4474.8	
310.38	4016.7	
310.59	2867.2	
310.8	2753.8	
311.01	4448.9	
311.21	4221.5	
311.42	2549.7	
311.63	2463.7	
311.84	4157.4	
312.05	4255	
312.26	2781.8	
312.46	2891.7	
312.67	4110.3	
312.88	3893.2	
313.09	2433.7	
313.3	2399.5	
313.51	4631.8	
313.71	4784.1	
313.92	2465.8	
314.13	2540.2	
314.34	4362.9	
314.55	4202.4	
314.76	2906.8	
314.96	2643.9	
315.17	4425	
315.38	4259.8	
315.59	2510.1	
315.8	2332	
316.01	4603.2	
316.21	4651.6	
316.42	2423.4	
316.63	2674	
316.84	4116.4	
317.05	4506.2	
317.26	2834.4	
317.46	2584.5	
317.67	4182	
317.88	4453	
318.09	2945.7	
318.3	2339.5	
318.5	4121.2	
318.71	4269.3	
318.92	3556	
319.13	2815.3	
319.34	4466.6	
319.54	4521.9	
319.75	2351.1	
319.96	2305.3	
320.17	4346.5	
320.38	4496	
320.58	2333.3	
320.79	2589.3	
321	4501.4	
321.21	4605.2	
321.42	2677.4	
321.62	2317.6	
321.83	4094.6	
322.04	4234.5	
322.25	2569.5	
322.46	2459.6	
322.66	4278.2	
322.87	4414.1	
323.08	2855.6	
323.29	2351.1	
323.5	4790.9	
323.7	3945.1	
323.91	3102	
324.12	2832.3	
324.33	4345.1	
324.53	4323.3	
324.74	2727.2	
324.95	2801.6	
325.16	3947.8	
325.37	4142.4	
325.57	2469.2	
325.78	2507.4	
325.99	4365.6	
326.2	3960.1	
326.4	3174.4	
326.61	2346.3	
326.82	4201.7	
327.03	4277.5	
327.24	3211.2	
327.44	3053.5	
327.65	4421.6	
327.86	3740.3	
328.07	2788	
328.27	2405	
328.48	4648.9	
328.69	3979.9	
328.9	3188	
329.1	2520.4	
329.31	4214.7	
329.52	4635.2	
329.73	2473.9	
329.93	2577.7	
330.14	4327.4	
330.35	4314.4	
330.56	3602.4	
330.76	2870.6	
330.97	4108.2	
331.18	4205.8	
331.39	2732.7	
331.59	2261	
331.8	4511	
332.01	4583.4	
332.22	2549.7	
332.42	2727.2	
332.63	4305.5	
332.84	3945.1	
333.05	2742.2	
333.25	2486.9	
333.46	3969.6	
333.67	4210.6	
333.88	2538.1	
334.08	2715.6	
334.29	5161.6	
334.5	4459.8	
334.7	2386.6	
334.91	3176.4	
335.12	3921.2	
335.33	4324.6	
335.53	2701.3	
335.74	3565.5	
335.95	4227.7	
336.16	3898	
336.36	2613.2	
336.57	2948.4	
336.78	3820.1	
336.98	4470.7	
337.19	3170.3	
337.4	2570.9	
337.61	4886.5	
337.81	3948.5	
338.02	2508.8	
338.23	3003.7	
338.43	4582	
338.64	4088.4	
338.85	2490.3	
339.05	3046	
339.26	4706.2	
339.47	3902.1	
339.68	2518.3	
339.88	3276.1	
340.09	4434.5	
340.3	4500.8	
340.5	2726.5	
340.71	2263.7	
340.92	4027	
341.13	4579.3	
341.33	2355.2	
341.54	2780.5	
341.75	4386.1	
341.95	4113.7	
342.16	2703.3	
342.37	2860.3	
342.57	3994.9	
342.78	4102.1	
342.99	2908.1	
343.19	2316.3	
343.4	4438.6	
343.61	4348.5	
343.81	2572.2	
344.02	2383.2	
344.23	4410.6	
344.43	4570.4	
344.64	2940.2	
344.85	2833.7	
345.06	4380.6	
345.26	4488.5	
345.47	2749.1	
345.68	3095.2	
345.88	3963.5	
346.09	4449.6	
346.3	2811.2	
346.5	2222.7	
346.71	4072.7	
346.92	4062.5	
347.12	2379.7	
347.33	2699.9	
347.54	4464.6	
347.74	4632.5	
347.95	2688.3	
348.16	2236.4	
348.36	4121.2	
348.57	3971.7	
348.78	2831	
348.98	2862.4	
349.19	4128	
349.39	3851.5	
349.6	2364.7	
349.81	2470.5	
350.01	4414.7	
350.22	4037.9	
350.43	2736.1	
350.63	3008.5	
350.84	4146.5	
351.05	3974.4	
351.25	2510.8	
351.46	2286.9	
351.67	4393.6	
351.87	3971	
352.08	2573.6	
352.29	2837.1	
352.49	4408.6	
352.7	4424.3	
352.9	2399.5	
353.11	2838.5	
353.32	4742.4	
353.52	4083.6	
353.73	2415.2	
353.94	2844.6	
354.14	4306.9	
354.35	4119.1	
354.55	2469.2	
354.76	2667.8	
354.97	4320.5	
355.17	4099.4	
355.38	2439.8	
355.59	2994.1	
355.79	3993.5	
356	4076.8	
356.2	2600.2	
356.41	2396.8	
356.62	3936.2	
356.82	4124.6	
357.03	2859	
357.24	2572.2	
357.44	3977.2	
357.65	4069.3	
357.85	3168.9	
358.06	2710.1	
358.27	3819.5	
358.47	3893.2	
358.68	2349	
358.88	2771.6	
359.09	4268	
359.3	4383.3	
359.5	3073.3	
359.71	2839.8	
359.91	4562.9	
360.12	4224.3	
360.33	2831.7	
360.53	3009.8	
360.74	4014.7	
360.94	4055.7	
361.15	2881.5	
361.36	2528.6	
361.56	4433.2	
361.77	4128.7	
361.97	3073.3	
362.18	2561.3	
362.38	4454.3	
362.59	3910.3	
362.8	2466.4	
363	2368.1	
363.21	3859.1	
363.41	4103.4	
363.62	2637.1	
363.83	3120.4	
364.03	4326	
364.24	4590.2	
364.44	3307.5	
364.65	3170.3	
364.85	4076.1	
365.06	3915	
365.27	2484.9	
365.47	2596.8	
365.68	4532.2	
365.88	4085	
366.09	2699.9	
366.29	2530.6	
366.5	4103.4	
366.71	4332.1	
366.91	3173.7	
367.12	2818.7	
367.32	4747.9	
367.53	4266.6	
367.73	2870.6	
367.94	3265.8	
368.14	4341.7	
368.35	4564.9	
368.56	2828.2	
368.76	2646	
368.97	4372.4	
369.17	5119.2	
369.38	2485.6	
369.58	2675.3	
369.79	3824.2	
369.99	4576.5	
370.2	3201.7	
370.4	2669.9	
370.61	4169.7	
370.82	4811.4	
371.02	2677.4	
371.23	2379.7	
371.43	3923.9	
371.64	4553.3	
371.84	2724.5	
372.05	3205.8	
372.25	5063.9	
372.46	4178.5	
372.66	2618	
372.87	2641.2	
373.07	4262.5	
373.28	5194.3	
373.48	3123.8	
373.69	2912.2	
373.9	4093.2	
374.1	4102.1	
374.31	3082.2	
374.51	2820.1	
374.72	4380.6	
374.92	3930.1	
375.13	3079.5	
375.33	2720.4	
375.54	4161.5	
375.74	4034.5	
375.95	2852.1	
376.15	3347.1	
376.36	4308.2	
376.56	4172.4	
376.77	2797.5	
376.97	2942.9	
377.18	4815.5	
377.38	4307.6	
377.59	3063.1	
377.79	2575	
378	4120.5	
378.2	4261.1	
378.41	2599.6	
378.61	2545.6	
378.82	4437.9	
379.02	4035.9	
379.23	2641.2	
379.43	3083.6	
379.64	4564.9	
379.84	4207.9	
380.05	2649.4	
380.25	2527.2	
380.46	4244.1	
380.66	4052.9	
380.87	3201	
381.07	3360.7	
381.28	4593.6	
381.48	4259.1	
381.69	2552.5	
381.89	2610.5	
382.1	3901.4	
382.3	4246.1	
382.51	3022.8	
382.71	3530.7	
382.91	4209.3	
383.12	4476.2	
383.32	2719	
383.53	2866.5	
383.73	4182	
383.94	4166.3	
384.14	2795.5	
384.35	2433	
384.55	3970.3	
384.76	4190.1	
384.96	2772.9	
385.17	2912.9	
385.37	4316.4	
385.58	3887	
385.78	2902	
385.98	2471.2	
386.19	4069.3	
386.39	4270	
386.6	2596.1	
386.8	2731.3	
387.01	4240	
387.21	4345.8	
387.42	2952.5	
387.62	3136.1	
387.83	4056.3	
388.03	3994.9	
388.23	2838.5	
388.44	3104.7	
388.64	3895.2	
388.85	3805.1	
389.05	2867.2	
389.26	3117	
389.46	4929.5	
389.67	4502.8	
389.87	2874	
390.07	2919.7	
390.28	4022.2	
390.48	3852.2	
390.69	2522.4	
390.89	2667.8	
391.1	4059.1	
391.3	4372.4	
391.5	3293.1	
391.71	3500	
391.91	4298	
392.12	4584.7	
392.32	3218.7	
392.53	2940.2	
392.73	4085.7	
392.93	4061.1	
393.14	2831.7	
393.34	3065.8	
393.55	4414.7	
393.75	4014.7	
393.95	2766.8	
394.16	2697.2	
394.36	4087.1	
394.57	4353.3	
394.77	2618.7	
394.98	2673.3	
395.18	4016.1	
395.38	4050.2	
395.59	3096.5	
395.79	2616.6	
396	4073.4	
396.2	4263.9	
396.4	2983.2	
396.61	2936.1	
396.81	4219.5	
397.02	3921.2	
397.22	3067.9	
397.42	3054.9	
397.63	4378.6	
397.83	3966.2	
398.04	2571.6	
398.24	2729.9	
398.44	4181.3	
398.65	3654.3	
398.85	2547.7	
399.05	2493.1	
399.26	3997.6	
399.46	4634.6	
399.67	2740.9	
399.87	2594.1	
400.07	4126	
400.28	4189.5	
400.48	2639.8	
400.69	2990.7	
400.89	4202.4	
401.09	4587.4	
401.3	2595.5	
401.5	3086.3	
401.7	4503.5	
401.91	4691.9	
402.11	2800.9	
402.32	2794.8	
402.52	4356	
402.72	4269.3	
402.93	2940.9	
403.13	2465.1	
403.33	4722.6	
403.54	4131.4	
403.74	2809.8	
403.94	3221.5	
404.15	4145.8	
404.35	4737.6	
404.56	2751.1	
404.76	3493.2	
404.96	4411.3	
405.17	4233.2	
405.37	3044.6	
405.57	2930	
405.78	4371	
405.98	4114.4	
406.18	2712.2	
406.39	3093.1	
406.59	4352.6	
406.79	4065.2	
407	2577.7	
407.2	2642.6	
407.4	4639.3	
407.61	4400.4	
407.81	2663	
408.01	3360	
408.22	3713	
408.42	4630.5	
408.62	3045.3	
408.83	2784.6	
409.03	4010.6	
409.23	4054.3	
409.44	2822.8	
409.64	2880.1	
409.84	4485.7	
410.05	4322.6	
410.25	2830.3	
410.45	2762.7	
410.66	4164.2	
410.86	5310.4	
411.06	2863.1	
411.27	2781.8	
411.47	5109	
411.67	4231.8	
411.88	2890.4	
412.08	2932	
412.28	4409.3	
412.49	4574.5	
412.69	2751.8	
412.89	2785.9	
413.09	4560.1	
413.3	4496	
413.5	2815.3	
413.7	2689	
413.91	4117.8	
414.11	4520.5	
414.31	2706	
414.52	2860.3	
414.72	4425.7	
414.92	4263.2	
415.12	2705.4	
415.33	2980.5	
415.53	4376.5	
415.73	4568.3	
415.94	3076.7	
416.14	2737.5	
416.34	4103.4	
416.55	3992.2	
416.75	3311.6	
416.95	3080.1	
417.15	4538.3	
417.36	4810.7	
417.56	3435.1	
417.76	2926.5	
417.97	4579.9	
418.17	4420.2	
418.37	2831.7	
418.57	2813.2	
418.78	4493.2	
418.98	4263.9	
419.18	3194.1	
419.38	3203.7	
419.59	4138.3	
419.79	4163.5	
419.99	2798.9	
420.2	2859	
420.4	4505.5	
420.6	4531.5	
420.8	2710.1	
421.01	2682.8	
421.21	4474.1	
421.41	4325.3	
421.61	2804.4	
421.82	2766.1	
422.02	4304.8	
422.22	4617.5	
422.42	3039.9	
422.63	2986.6	
422.83	4164.2	
423.03	4795.7	
423.23	3039.9	
423.44	2515.6	
423.64	4171.7	
423.84	4035.2	
424.04	2738.8	
424.25	2615.9	
424.45	4736.3	
424.65	4621.6	
424.85	2549	
425.06	2762.7	
425.26	4834.6	
425.46	4220.9	
425.66	2994.1	
425.87	2841.9	
426.07	4465.3	
426.27	4426.3	
426.47	2902	
426.67	2668.5	
426.88	4775.2	
427.08	4510.3	
427.28	3046	
427.48	2627.5	
427.69	4145.1	
427.89	4319.2	
428.09	2919	
428.29	2606.4	
428.5	4511.7	
428.7	4474.8	
428.9	2564.1	
429.1	2777	
429.3	4441.4	
429.51	4403.1	
429.71	2777.7	
429.91	3048.7	
430.11	4545.8	
430.31	4709.6	
430.52	2835.1	
430.72	2869.9	
430.92	4698.7	
431.12	4438.6	
431.32	2638.5	
431.53	2927.9	
431.73	4005.8	
431.93	4682.3	
432.13	2678.7	
432.33	2533.3	
432.54	4278.9	
432.74	4230.4	
432.94	2526.5	
433.14	3011.9	
433.34	4622.3	
433.55	4339	
433.75	2962.7	
433.95	3749.1	
434.15	4429.8	
434.35	4155.3	
434.56	2635.1	
434.76	2404.3	
434.96	4307.6	
435.16	4387.4	
435.36	2531.3	
435.56	3113.6	
435.77	4154	
435.97	4215.4	
436.17	3296.5	
436.37	2940.9	
436.57	4050.2	
436.78	4078.9	
436.98	2942.9	
437.18	3332.7	
437.38	4199.7	
437.58	4078.9	
437.78	3340.2	
437.99	2692.4	
438.19	4474.1	
438.39	4849.6	
438.59	2742.2	
438.79	2490.3	
438.99	4715.1	
439.2	4158.1	
439.4	2489.6	
439.6	2520.4	
439.8	4177.2	
440	4745.8	
440.2	2970.2	
440.4	2930.6	
440.61	4517.8	
440.81	4570.4	
441.01	2573.6	
441.21	2890.4	
441.41	4584.7	
441.61	4389.5	
441.81	3020.8	
442.02	3517.7	
442.22	4795	
442.42	4481.6	
442.62	2590.7	
442.82	2642.6	
443.02	4715.8	
443.22	4275.5	
443.43	2717.7	
443.63	2478	
443.83	4119.8	
444.03	4067.9	
444.23	2979.8	
444.43	2869.9	
444.63	4308.9	
444.83	4814.8	
445.04	2618	
445.24	3080.8	
445.44	4473.4	
445.64	4392.2	
445.84	2940.9	
446.04	2975	
446.24	4179.9	
446.44	4560.8	
446.65	2632.3	
446.85	2686.3	
447.05	4248.9	
447.25	4595	
447.45	2843.9	
447.65	2506.7	
447.85	4377.9	
448.05	4146.5	
448.25	2917.7	
448.46	2846.7	
448.66	4350.6	
448.86	4158.7	
449.06	2577.7	
449.26	2993.4	
449.46	4456.4	
449.66	4160.8	
449.86	2712.2	
450.06	2701.3	
450.26	4154	
450.47	4379.2	
450.67	2890.4	
450.87	2987.3	
451.07	4651.6	
451.27	4244.8	
451.47	2587.9	
451.67	2925.2	
451.87	4169.7	
452.07	4777.2	
452.27	2639.8	
452.47	2628.9	
452.67	4415.4	
452.88	4405.2	
453.08	2458.9	
453.28	3229.6	
453.48	4858.5	
453.68	4279.6	
453.88	2574.3	
454.08	2641.9	
454.28	4437.3	
454.48	4219.5	
454.68	2888.3	
454.88	3076.7	
455.08	4556	
455.28	4282.3	
455.48	2598.2	
455.68	2755.2	
455.89	4683.7	
456.09	4375.8	
456.29	2691.7	
456.49	2727.9	
456.69	4619.5	
456.89	4214.7	
457.09	2856.2	
457.29	3002.3	
457.49	4361.5	
457.69	4349.2	
457.89	2734	
458.09	2458.2	
458.29	4187.4	
458.49	4614.1	
458.69	2892.4	
458.89	2560.6	
459.09	4597.7	
459.29	4613.4	
459.49	2608.4	
459.69	2972.3	
459.9	4444.1	
460.1	4195.6	
460.3	2641.2	
460.5	2487.6	
460.7	4390.8	
460.9	4091.8	
461.1	2407.7	
461.3	2808.4	
461.5	4657.8	
461.7	4479.6	
461.9	2505.3	
462.1	2718.3	
462.3	4270	
462.5	4443.4	
462.7	2505.3	
462.9	2530.6	
463.1	4898.7	
463.3	4670.1	
463.5	2658.9	
463.7	2966.1	
463.9	4271.4	
464.1	4440.7	
464.3	2598.9	
464.5	2723.8	
464.7	4438.6	
464.9	4219.5	
465.1	3241.9	
465.3	2815.3	
465.5	4558.8	
465.7	4650.9	
465.9	2928.6	
466.1	2790.7	
466.3	4357.4	
466.5	4493.2	
466.7	3154.6	
466.9	2738.8	
467.1	4572.4	
467.3	4827.7	
467.5	3153.2	
467.7	2670.6	
467.9	4967	
468.1	5260.5	
468.3	2991.4	
468.5	3164.1	
468.7	4274.1	
468.9	4250.2	
469.1	2792.1	
469.3	3044.6	
469.5	5201.2	
469.7	4147.1	
469.9	3018	
470.1	2607.7	
470.3	4450.9	
470.5	4361.5	
470.7	3203.7	
470.9	2671.2	
471.1	4137.6	
471.3	4564.2	
471.5	2612.5	
471.69	3449.5	
471.89	4374.5	
472.09	3975.1	
472.29	2869.9	
472.49	3185.3	
472.69	4071.4	
472.89	4289.8	
473.09	2563.4	
473.29	2716.3	
473.49	4252.9	
473.69	4141	
473.89	3039.9	
474.09	2744.3	
474.29	4816.8	
474.49	4696.7	
474.69	3067.9	
474.89	2765.4	
475.09	4275.5	
475.29	4259.8	
475.49	2564.7	
475.69	2641.9	
475.88	5014.1	
476.08	4496.7	
476.28	2466.4	
476.48	2711.5	
476.68	4789.5	
476.88	4500.1	
477.08	2728.6	
477.28	2761.3	
477.48	4493.9	
477.68	4537.6	
477.88	2587.3	
478.08	2753.2	
478.28	4752	
478.48	4418.2	
478.67	2794.8	
478.87	2513.5	
479.07	4594.3	
479.27	4479.6	
479.47	2855.6	
479.67	2912.2	
479.87	4600.4	
480.07	4799.8	
480.27	2502.6	
480.47	3142.9	
480.67	4433.9	
480.87	4769	
481.06	2655.5	
481.26	2999.6	
481.46	4491.2	
481.66	4349.9	
481.86	2953.9	
482.06	3263.1	
482.26	4277.5	
482.46	4597	
482.66	2834.4	
482.86	2602.3	
483.05	4579.9	
483.25	4126	
483.45	4050.2	
483.65	2807.8	
483.85	4075.5	
484.05	4285	
484.25	3047.4	
484.45	3140.9	
484.65	4513.7	
484.84	4677.6	
485.04	2767.5	
485.24	2690.3	
485.44	4961.5	
485.64	4132.1	
485.84	2482.8	
486.04	3018.7	
486.24	4278.9	
486.44	4364.9	
486.63	2377.7	
486.83	2839.8	
487.03	4242.7	
487.23	4261.1	
487.43	2506.7	
487.63	3371	
487.83	4277.5	
488.02	4312.3	
488.22	2730.6	
488.42	2992.8	
488.62	4690.5	
488.82	4102.1	
489.02	2701.3	
489.22	2658.3	
489.41	4452.3	
489.61	4512.4	
489.81	2497.8	
490.01	2509.4	
490.21	4531.5	
490.41	4905.6	
490.61	2533.3	
490.8	2559.3	
491	4264.6	
491.2	4134.8	
491.4	2871.3	
491.6	2489	
491.8	4411.3	
491.99	4315.8	
492.19	2441.2	
492.39	2532	
492.59	4527.4	
492.79	4640	
492.99	2855.6	
493.18	2524.5	
493.38	4688.5	
493.58	4863.9	
493.78	2781.1	
493.98	2589.3	
494.18	4387.4	
494.37	4031.1	
494.57	2784.6	
494.77	2699.2	
494.97	4387.4	
495.17	4478.9	
495.37	2498.5	
495.56	2724.5	
495.76	4462.5	
495.96	4430.4	
496.16	3037.8	
496.36	2615.3	
496.55	4502.8	
496.75	4155.3	
496.95	2739.5	
497.15	2693.1	
497.35	4506.9	
497.54	4326.7	
497.74	2622.8	
497.94	3394.2	
498.14	4758.1	
498.34	4605.9	
498.53	2410.5	
498.73	2778.4	
498.93	4063.9	
499.13	4389.5	
499.33	2682.2	
499.52	2752.5	
499.72	4450.2	
499.92	4448.9	
500.12	2458.2	
500.32	2667.1	
500.51	4422.9	
500.71	4239.3	
500.91	2895.1	
501.11	2807.1	
501.31	4418.2	
501.5	4696	
501.7	3136.1	
501.9	2655.5	
502.1	4333.5	
502.29	4521.9	
502.49	2794.1	
502.69	3064.4	
502.89	4440	
503.09	4481.6	
503.28	2482.1	
503.48	2504	
503.68	4372.4	
503.88	4117.1	
504.07	2945	
504.27	2694.4	
504.47	4283	
504.67	4355.3	
504.86	2880.8	
505.06	2782.5	
505.26	4417.5	
505.46	4952	
505.65	2668.5	
505.85	2889	
506.05	4380.6	
506.25	4584.7	
506.44	2555.9	
506.64	2860.3	
506.84	4311	
507.04	4627	
507.23	2669.2	
507.43	2854.2	
507.63	5137	
507.83	4190.8	
508.02	2925.2	
508.22	2676	
508.42	5264.6	
508.62	4130.8	
508.81	2742.9	
509.01	2985.9	
509.21	4248.2	
509.4	4427.7	
509.6	2931.3	
509.8	2609.8	
510	4311.7	
510.19	4755.4	
510.39	2510.8	
510.59	2654.2	
510.79	4319.8	
510.98	4840.7	
511.18	2785.9	
511.38	2702.6	
511.57	4749.2	
511.77	4350.6	
511.97	3026.9	
512.17	2588.6	
512.36	4636.6	
512.56	4506.2	
512.76	2628.2	
512.95	2480.8	
513.15	4846.9	
513.35	3975.8	
513.55	2960	
513.74	2599.6	
513.94	4601.8	
514.14	4291.2	
514.33	3048.7	
514.53	2850.1	
514.73	4386.7	
514.92	4356	
515.12	2611.8	
515.32	2556.5	
515.51	4425	
515.71	4378.6	
515.91	3427.6	
516.11	2471.2	
516.3	5082.4	
516.5	4284.4	
516.7	2826.2	
516.89	3044	
517.09	4274.1	
517.29	4334.2	
517.48	2893.1	
517.68	2646.7	
517.88	3947.8	
518.07	4490.5	
518.27	2899.2	
518.47	2479.4	
518.66	4669.4	
518.86	4177.9	
519.06	2491.7	
519.25	2593.4	
519.45	4190.1	
519.65	4784.1	
519.84	2933.4	
520.04	3187.3	
520.24	4990.2	
520.43	4479.6	
520.63	2852.8	
520.83	2773.6	
521.02	4268	
521.22	4494.6	
521.42	2904.7	
521.61	3160	
521.81	4346.5	
522.01	4491.9	
522.2	2865.1	
522.4	2746.3	
522.6	4640.7	
522.79	3953.3	
522.99	2769.5	
523.18	2453.5	
523.38	4428.4	
523.58	4375.8	
523.77	3147	
523.97	2366.8	
524.17	5114.5	
524.36	4850.3	
524.56	2925.9	
524.76	2801.6	
524.95	4304.1	
525.15	4166.3	
525.34	2651.4	
525.54	2685.6	
525.74	4455	
525.93	3975.8	
526.13	3138.9	
526.33	2611.8	
526.52	4610.7	
526.72	4229.7	
526.91	3130.7	
527.11	2783.9	
527.31	4440	
527.5	4584.7	
527.7	2710.8	
527.89	2388.6	
528.09	4119.1	
528.29	4199	
528.48	2906.1	
528.68	2753.2	
528.87	4461.8	
529.07	4463.2	
529.27	2780.5	
529.46	2458.2	
529.66	4372.4	
529.85	4435.2	
530.05	2507.4	
530.25	2772.3	
530.44	4893.3	
530.64	4222.9	
530.83	2672.6	
531.03	2672.6	
531.23	4631.1	
531.42	4392.9	
531.62	3008.5	
531.81	2671.9	
532.01	4471.4	
532.21	4444.1	
532.4	2492.4	
532.6	2634.4	
532.79	4799.8	
532.99	4360.1	
533.18	2692.4	
533.38	3065.8	
533.58	4162.2	
533.77	4412	
533.97	2612.5	
534.16	2934.1	
534.36	4645.5	
534.55	4134.2	
534.75	2988.7	
534.95	2626.9	
535.14	4596.3	
535.34	4117.1	
535.53	2456.9	
535.73	3264.5	
535.92	4825	
536.12	4142.4	
536.31	2550.4	
536.51	3080.1	
536.71	4469.4	
536.9	4228.4	
537.1	2601.6	
537.29	2674	
537.49	4613.4	
537.68	4187.4	
537.88	2851.5	
538.07	2424.8	
538.27	4290.5	
538.46	4691.2	
538.66	2432.3	
538.86	2601.6	
539.05	4343.7	
539.25	4592.9	
539.44	2769.5	
539.64	2535.4	
539.83	4277.5	
540.03	4676.9	
540.22	2510.8	
540.42	2646	
540.61	4441.4	
540.81	4417.5	
541	2757.2	
541.2	3067.2	
541.39	4171	
541.59	4287.8	
541.78	2964.1	
541.98	2622.1	
542.18	4097.3	
542.37	4054.3	
542.57	2811.9	
542.76	2909.5	
542.96	4212.7	
543.15	4364.9	
543.35	2764.8	
543.54	2532	
543.74	4177.2	
543.93	4339	
544.13	2826.2	
544.32	3336.1	
544.52	4642.1	
544.71	4214.7	
544.91	2451.4	
545.1	2967.5	
545.3	4250.9	
545.49	4384.7	
545.69	2452.8	
545.88	2717	
546.08	4917.2	
546.27	4633.9	
546.47	2902.7	
546.66	2602.3	
546.86	4594.3	
547.05	4743.8	
547.24	2743.6	
547.44	2658.3	
547.63	4228.4	
547.83	4506.9	
548.02	2777.7	
548.22	2930	
548.41	4093.2	
548.61	4655.7	
548.8	2612.5	
549	2633.7	
549.19	4506.2	
549.39	4557.4	
549.58	2515.6	
549.78	2785.2	
549.97	4581.3	
550.17	4229.1	
550.36	3190.1	
550.55	3674.7	
550.75	4394.9	
550.94	4828.4	
551.14	2595.5	
551.33	2866.5	
551.53	4037.2	
551.72	4475.5	
551.92	2860.3	
552.11	2770.2	
552.31	4693.9	
552.5	4463.2	
552.69	3502	
552.89	2609.1	
553.08	4512.4	
553.28	4415.4	
553.47	2792.1	
553.67	3229.6	
553.86	4835.3	
554.06	4061.1	
554.25	2519.7	
554.44	2718.3	
554.64	5236.7	
554.83	4987.5	
555.03	2585.2	
555.22	2869.2	
555.42	4741.7	
555.61	4598.4	
555.8	2795.5	
556	2868.5	
556.19	4166.9	
556.39	4580.6	
556.58	2795.5	
556.78	2839.2	
556.97	4549.2	
557.16	4356.7	
557.36	3374.4	
557.55	2658.3	
557.75	4104.8	
557.94	4872.8	
558.13	2668.5	
558.33	2551.1	
558.52	4789.5	
558.72	4091.2	
558.91	2633	
559.1	2766.1	
559.3	4171	
559.49	4048.2	
559.69	2607.1	
559.88	2899.2	
560.07	4476.9	
560.27	4775.2	
560.46	3021.4	
560.66	3044.6	
560.85	4476.9	
561.04	4138.9	
561.24	2629.6	
561.43	2714.2	
561.63	4164.2	
561.82	4376.5	
562.01	3257.6	
562.21	2856.2	
562.4	4502.8	
562.59	4790.2	
562.79	2803	
562.98	2644.6	
563.18	4474.1	
563.37	5056.4	
563.56	2949.1	
563.76	2675.3	
563.95	4228.4	
564.14	4248.2	
564.34	2854.2	
564.53	2664.4	
564.73	4557.4	
564.92	4498	
565.11	2857.6	
565.31	2537.4	
565.5	4704.9	
565.69	4117.8	
565.89	2753.2	
566.08	2783.2	
566.27	4562.2	
566.47	4771.8	
566.66	3132	
566.85	2556.5	
567.05	4503.5	
567.24	4280.3	
567.44	2600.2	
567.63	3207.8	
567.82	4651.6	
568.02	4326	
568.21	2620.7	
568.4	2794.1	
568.6	4399.7	
568.79	4317.1	
568.98	2683.5	
569.18	2555.9	
569.37	4326.7	
569.56	5154.1	
569.76	2780.5	
569.95	3135.4	
570.14	4531.5	
570.34	4308.9	
570.53	2621.4	
570.72	2566.8	
570.91	4721.3	
571.11	4398.4	
571.3	2835.8	
571.49	3188.7	
571.69	4395.6	
571.88	4142.4	
572.07	2930.6	
572.27	2994.8	
572.46	4123.2	
572.65	4498	
572.85	2708.1	
573.04	2800.9	
573.23	4732.9	
573.43	4468.7	
573.62	2603	
573.81	2821.4	
574	4446.8	
574.2	4248.2	
574.39	2654.9	
574.58	2719	
574.78	4646.2	
574.97	4369.7	
575.16	2863.7	
575.36	2908.1	
575.55	4579.3	
575.74	4628.4	
575.93	2435	
576.13	2869.2	
576.32	4220.9	
576.51	4479.6	
576.71	2691	
576.9	3246.7	
577.09	4700.1	
577.28	4407.2	
577.48	2816.6	
577.67	2504.7	
577.86	4366.3	
578.05	4389.5	
578.25	2691	
578.44	2728.6	
578.63	4302.1	
578.83	4908.3	
579.02	2529.9	
579.21	3206.4	
579.4	4321.9	
579.6	4252.9	
579.79	2770.9	
579.98	3807.2	
580.17	4500.1	
580.37	4610.7	
580.56	2574.3	
580.75	2916.3	
580.94	4582	
581.14	4824.3	
581.33	2957.9	
581.52	2713.6	
581.71	4373.8	
581.91	4858.5	
582.1	2517	
582.29	2689.7	
582.48	4275.5	
582.68	4278.9	
582.87	2872.6	
583.06	2781.1	
583.25	4591.5	
583.45	4358.8	
583.64	3048.7	
583.83	3272	
584.02	4418.2	
584.21	4466.6	
584.41	3060.3	
584.6	2751.1	
584.79	4278.9	
584.98	4474.8	
585.18	2499.9	
585.37	2499.2	
585.56	4288.4	
585.75	4431.1	
585.94	2621.4	
586.14	2833	
586.33	4773.1	
586.52	4250.9	
586.71	2863.7	
586.91	2690.3	
587.1	4064.5	
587.29	4589.5	
587.48	2709.5	
587.67	2663.7	
587.87	4579.3	
588.06	4416.1	
588.25	3258.3	
588.44	2957.9	
588.63	4356.7	
588.83	4612.7	
589.02	2892.4	
589.21	2710.8	
589.4	4478.2	
589.59	4404.5	
589.78	2534.7	
589.98	2658.3	
590.17	4192.9	
590.36	4371.7	
590.55	2445.3	
590.74	2849.4	
590.94	4993.6	
591.13	4382.7	
591.32	2739.5	
591.51	2547.7	
591.7	4556	
591.89	4397.7	
592.09	2573.6	
592.28	2781.8	
592.47	3930.7	
592.66	4951.3	
592.85	2543.6	
593.05	2670.6	
593.24	4371	
593.43	4797	
593.62	2690.3	
593.81	2865.1	
594	4475.5	
594.19	4490.5	
594.39	2631	
594.58	2626.9	
594.77	4535.6	
594.96	4779.3	
595.15	2715.6	
595.34	2910.2	
595.54	4427	
595.73	4149.9	
595.92	2450.7	
596.11	2859	
596.3	4705.5	
596.49	4254.3	
596.68	2764.1	
596.88	2903.3	
597.07	4567	
597.26	4141	
597.45	2618.7	
597.64	3105.4	
597.83	4251.6	
598.02	4476.9	
598.22	2624.1	
598.41	2927.2	
598.6	4435.2	
598.79	4135.5	
598.98	2662.4	
599.17	3001.6	
599.36	4521.2	
599.55	4860.5	
599.74	3432.4	
599.94	3381.2	
600.13	4684.4	
600.32	4195.6	
600.51	2473.9	
600.7	2594.1	
600.89	4953.4	
601.08	5046.2	
601.27	2452.8	
601.47	2879.4	
601.66	4610	
601.85	4841.4	
602.04	2798.9	
602.23	2867.2	
602.42	4184.7	
602.61	4525.3	
602.8	2691.7	
602.99	2697.9	
603.18	4401.1	
603.37	4428.4	
603.57	2874	
603.76	3246.7	
603.95	4780	
604.14	4509.6	
604.33	2718.3	
604.52	2768.2	
604.71	4506.9	
604.9	4256.4	
605.09	3112.2	
605.28	2996.9	
605.47	4768.4	
605.66	4440.7	
605.86	2902.7	
606.05	2670.6	
606.24	4786.8	
606.43	4067.9	
606.62	2850.1	
606.81	3154.6	
607	4686.4	
607.19	4273.4	
607.38	2600.9	
607.57	2687.6	
607.76	4226.3	
607.95	3928.7	
608.14	3011.2	
608.33	3134.8	
608.52	4212.7	
608.72	4621.6	
608.91	2491	
609.1	2508.8	
609.29	4283.7	
609.48	4128.7	
609.67	2964.1	
609.86	2625.5	
610.05	4190.1	
610.24	4247.5	
610.43	2514.9	
610.62	2452.1	
610.81	4803.9	
611	4681	
611.19	2586.6	
611.38	2906.8	
611.57	4505.5	
611.76	4954	
611.95	2538.8	
612.14	2473.3	
612.33	4311.7	
612.52	4178.5	
612.71	2725.2	
612.9	2481.5	
613.09	4016.1	
613.28	5046.9	
613.47	2667.8	
613.66	3052.8	
613.85	4483	
614.04	4165.6	
614.24	2638.5	
614.43	2370.2	
614.62	4486.4	
614.81	4434.5	
615	2861.7	
615.19	2827.6	
615.38	4111	
615.57	4347.2	
615.76	2809.1	
615.95	3294.5	
616.14	4481.6	
616.33	4347.2	
616.52	2988.7	
616.71	2965.5	
616.9	4515.8	
617.09	4385.4	
617.28	2700.6	
617.47	3119.1	
617.66	4095.3	
617.85	4061.1	
618.04	3037.8	
618.22	2809.1	
618.41	4090.5	
618.6	4596.3	
618.79	2762.7	
618.98	2623.4	
619.17	4675.5	
619.36	3859.1	
619.55	2757.2	
619.74	2777.7	
619.93	4317.8	
620.12	4091.8	
620.31	2843.3	
620.5	2903.3	
620.69	4573.8	
620.88	4791.6	
621.07	3277.4	
621.26	2899.2	
621.45	4399	
621.64	4373.1	
621.83	2958.6	
622.02	2512.9	
622.21	4450.9	
622.4	4384	
622.59	3095.8	
622.78	3095.2	
622.97	4218.8	
623.16	4588.8	
623.35	2934.7	
623.54	2501.9	
623.72	4164.9	
623.91	4248.2	
624.1	3016.7	
624.29	2431.6	
624.48	4780	
624.67	4502.1	
624.86	2846.7	
625.05	2541.5	
625.24	4821.6	
625.43	4263.2	
625.62	3674.1	
625.81	2630.3	
626	4465.9	
626.19	4178.5	
626.38	2823.5	
626.56	2734.7	
626.75	3997	
626.94	4367.6	
627.13	2905.4	
627.32	2402.9	
627.51	4488.5	
627.7	4895.3	
627.89	2476	
628.08	2994.1	
628.27	4083.6	
628.46	4254.3	
628.65	2646.7	
628.83	2403.6	
629.02	4489.8	
629.21	4022.2	
629.4	2739.5	
629.59	2872.6	
629.78	4057.7	
629.97	4500.8	
630.16	2835.8	
630.35	2678.7	
630.54	4853	
630.72	4657.1	
630.91	2747	
631.1	2863.7	
631.29	4242	
631.48	4269.3	
631.67	3011.9	
631.86	2691.7	
632.05	4291.9	
632.24	4259.8	
632.42	2526.5	
632.61	2833	
632.8	4197	
632.99	4007.2	
633.18	2756.6	
633.37	2955.2	
633.56	4435.2	
633.75	4375.1	
633.93	2866.5	
634.12	2675.3	
634.31	4876.9	
634.5	4514.4	
634.69	2702.6	
634.88	3008.5	
635.07	4276.2	
635.25	4474.8	
635.44	3137.5	
635.63	3143.6	
635.82	4218.1	
636.01	3556.6	
636.2	3034.4	
636.39	2904	
636.57	4788.8	
636.76	4412.7	
636.95	2648.7	
637.14	3218	
637.33	4397	
637.52	4711.7	
637.7	2526.5	
637.89	3054.2	
638.08	4238.6	
638.27	4846.2	
638.46	3009.1	
638.65	3138.2	
638.83	4915.8	
639.02	4252.3	
639.21	2973	
639.4	3201.7	
639.59	4372.4	
639.78	4262.5	
639.96	2634.4	
640.15	2681.5	
640.34	4364.9	
640.53	4242.7	
640.72	2629.6	
640.91	2747	
641.09	4111	
641.28	4697.4	
641.47	2897.2	
641.66	3140.2	
641.85	4382.7	
642.03	4471.4	
642.22	2916.3	
642.41	2843.9	
642.6	4162.8	
642.79	3958.7	
642.97	2770.9	
643.16	2970.9	
643.35	4122.6	
643.54	4063.2	
643.73	2687.6	
643.91	2957.3	
644.1	4046.8	
644.29	4374.5	
644.48	2753.8	
644.67	2734.7	
644.85	3949.8	
645.04	4441.4	
645.23	2612.5	
645.42	2836.4	
645.6	4187.4	
645.79	4721.3	
645.98	2743.6	
646.17	2410.5	
646.36	4095.3	
646.54	4280.3	
646.73	3173.7	
646.92	2674.6	
647.11	4126	
647.29	4549.9	
647.48	2597.5	
647.67	2549.7	
647.86	4837.3	
648.05	4652.3	
648.23	2780.5	
648.42	3417.4	
648.61	4485.7	
648.8	4402.5	
648.98	2708.8	
649.17	2846	
649.36	4253.6	
649.55	4049.5	
649.73	2753.8	
649.92	3043.3	
650.11	4052.2	
650.3	4298	
650.48	2729.9	
650.67	2685.6	
650.86	4411.3	
651.05	3977.8	
651.23	2702.6	
651.42	2748.4	
651.61	4247.5	
651.79	4143.7	
651.98	2837.8	
652.17	2632.3	
652.36	4448.2	
652.54	3991.5	
652.73	2721.1	
652.92	2723.8	
653.11	4461.8	
653.29	4536.9	
653.48	2467.8	
653.67	2831.7	
653.85	4209.9	
654.04	4751.3	
654.23	2903.3	
654.42	2751.1	
654.6	4158.7	
654.79	4463.2	
654.98	2607.7	
655.16	2866.5	
655.35	4092.5	
655.54	3850.9	
655.73	2659.6	
655.91	2647.3	
656.1	4384	
656.29	3902.1	
656.47	2486.2	
656.66	3226.2	
656.85	4194.2	
657.03	4080.2	
657.22	2652.8	
657.41	2699.9	
657.59	4120.5	
657.78	4065.9	
657.97	2491.7	
658.16	2781.1	
658.34	4388.1	
658.53	4567	
658.72	3177.1	
658.9	3400.3	
659.09	4269.3	
659.28	4172.4	
659.46	2655.5	
659.65	2633.7	
659.84	4036.5	
660.02	4416.8	
660.21	2712.9	
660.4	2546.3	
660.58	4496.7	
660.77	4156	
660.96	2859.6	
661.14	2467.1	
661.33	4741	
661.52	4658.4	
661.7	2424.1	
661.89	3898.6	
662.08	4016.1	
662.26	3723.9	
662.45	2598.2	
662.64	2662.4	
662.82	4498.7	
663.01	4014	
663.2	2643.2	
663.38	2936.1	
663.57	4298	
663.75	4279.6	
663.94	2763.4	
664.13	3362.1	
664.31	4124.6	
664.5	4386.1	
664.69	2925.9	
664.87	3077.4	
665.06	4001.7	
665.25	4239.3	
665.43	3231	
665.62	3175.7	
665.8	4308.9	
665.99	4149.9	
666.18	2785.9	
666.36	2796.2	
666.55	4390.2	
666.74	4340.3	
666.92	2745.6	
667.11	3395.5	
667.29	4236.6	
667.48	4403.1	
667.67	3104.7	
667.85	2727.2	
668.04	4098.7	
668.22	4063.2	
668.41	2895.1	
668.6	3043.3	
668.78	4005.8	
668.97	4087.7	
669.15	2990	
669.34	2538.1	
669.53	4017.4	
669.71	4165.6	
669.9	2560.6	
670.08	2902.7	
670.27	3947.8	
670.46	4364.2	
670.64	3052.2	
670.83	3063.8	
671.01	3831.7	
671.2	4201.7	
671.38	2716.3	
671.57	2686.3	
671.76	4614.1	
671.94	4736.3	
672.13	2585.2	
672.31	3048.1	
672.5	4393.6	
672.69	4055	
672.87	2676	
673.06	2828.2	
673.24	4272.1	
673.43	4168.3	
673.61	2944.3	
673.8	2758.6	
673.98	4307.6	
674.17	4375.8	
674.36	3054.9	
674.54	3004.4	
674.73	3993.5	
674.91	4443.4	
675.1	2796.8	
675.28	2588.6	
675.47	4190.1	
675.65	4391.5	
675.84	2831.7	
676.03	2898.6	
676.21	4087.7	
676.4	3767.6	
676.58	3118.4	
676.77	3008.5	
676.95	4826.4	
677.14	4128.7	
677.32	2560.6	
677.51	2654.2	
677.69	4417.5	
677.88	4063.9	
678.06	2604.3	
678.25	2740.2	
678.44	4106.2	
678.62	4036.5	
678.81	2614.6	
678.99	2899.9	
679.18	4494.6	
679.36	4329.4	
679.55	2745	
679.73	3001.6	
679.92	4309.6	
680.1	4088.4	
680.29	3277.4	
680.47	2783.9	
680.66	4141	
680.84	4382	
681.03	2531.3	
681.21	3014.6	
681.4	4067.9	
681.58	4040.6	
681.77	2691	
681.95	2684.2	
682.14	4456.4	
682.32	4617.5	
682.51	3072	
682.69	2564.1	
682.88	4068.6	
683.06	4265.2	
683.25	2918.4	
683.43	3156.6	
683.62	4260.5	
683.8	4360.1	
683.99	3280.2	
684.17	2887.6	
684.36	4749.9	
684.54	4182.6	
684.73	2637.1	
684.91	2708.1	
685.1	4371.7	
685.28	4093.2	
685.46	3023.5	
685.65	2966.1	
685.83	4495.3	
686.02	4263.9	
686.2	2764.1	
686.39	2838.5	
686.57	3986	
686.76	4646.2	
686.94	2793.4	
687.13	2856.2	
687.31	4414.7	
687.5	4292.5	
687.68	2575.7	
687.86	2989.4	
688.05	5057.8	
688.23	3973.7	
688.42	3078.1	
688.6	2727.9	
688.79	4091.8	
688.97	4171.7	
689.16	2932.7	
689.34	2521	
689.52	4335.5	
689.71	4653.7	
689.89	3032.4	
690.08	2770.2	
690.26	4262.5	
690.45	4047.5	
690.63	3134.8	
690.81	2894.5	
691	4323.9	
691.18	4094.6	
691.37	2877.4	
691.55	3924.6	
691.74	4048.2	
691.92	4971.8	
692.1	2813.9	
692.29	2658.3	
692.47	4255	
692.66	3989.4	
692.84	2723.1	
693.02	2889	
693.21	3876.8	
693.39	4268.6	
693.58	2970.2	
693.76	2667.8	
693.94	4636.6	
694.13	4540.3	
694.31	2710.8	
694.5	3152.5	
694.68	3999	
694.86	4220.2	
695.05	2818	
695.23	3007.1	
695.42	4272.1	
695.6	5328.8	
695.78	3087	
695.97	2712.2	
696.15	4367.6	
696.34	4042	
696.52	2620	
696.7	3026.2	
696.89	4267.3	
697.07	3936.9	
697.25	2948.4	
697.44	3629.7	
697.62	4348.5	
697.81	4287.8	
697.99	2839.8	
698.17	3000.3	
698.36	4121.9	
698.54	4344.4	
698.72	2984.6	
698.91	2559.3	
699.09	4121.9	
699.28	3950.5	
699.46	2833	
699.64	2801.6	
699.83	4046.8	
700.01	4447.5	
700.19	3168.9	
700.38	2446.6	
700.56	4370.4	
700.74	4055.7	
700.93	2562	
701.11	3031	
701.29	4231.8	
701.48	4796.3	
701.66	2601.6	
701.84	2764.8	
702.03	4173.8	
702.21	4413.4	
702.39	2542.2	
702.58	2761.3	
702.76	4374.5	
702.94	4240	
703.13	2454.8	
703.31	3561.4	
703.49	4118.5	
703.68	4402.5	
703.86	2575.7	
704.04	3021.4	
704.23	4253.6	
704.41	4396.3	
704.59	2707.4	
704.78	3213.9	
704.96	5009.3	
705.14	4319.2	
705.33	2579.8	
705.51	2922.5	
705.69	4025.6	
705.87	4488.5	
706.06	2977.7	
706.24	2515.6	
706.42	4250.2	
706.61	4281.6	
706.79	3087	
706.97	2527.9	
707.16	4016.7	
707.34	4239.3	
707.52	3035.1	
707.7	2648.7	
707.89	3910.9	
708.07	3915	
708.25	3031	
708.44	3107.5	
708.62	3943.7	
708.8	4527.4	
708.98	3151.1	
709.17	2732	
709.35	4119.1	
709.53	4190.1	
709.72	2521.7	
709.9	2676.7	
710.08	4455.7	
710.26	4459.1	
710.45	3323.2	
710.63	2710.8	
710.81	4122.6	
710.99	4216.1	
711.18	3016.7	
711.36	2766.8	
711.54	4152.6	
711.72	4486.4	
711.91	2917.7	
712.09	2651.4	
712.27	4294.6	
712.45	4424.3	
712.64	3014.6	
712.82	2561.3	
713	4040	
713.18	4138.3	
713.37	2606.4	
713.55	3261	
713.73	4552	
713.91	4033.8	
714.1	2844.6	
714.28	2714.9	
714.46	4437.9	
714.64	4132.8	
714.83	2556.5	
715.01	2867.2	
715.19	4334.9	
715.37	3926.6	
715.55	2743.6	
715.74	2869.2	
715.92	4634.6	
716.1	3767.6	
716.28	3478.1	
716.47	2985.9	
716.65	4243.4	
716.83	4098.7	
717.01	2948.4	
717.19	2940.9	
717.38	5104.9	
717.56	4030.4	
717.74	2994.8	
717.92	2676	
718.1	4577.9	
718.29	4138.3	
718.47	2476	
718.65	2708.1	
718.83	4484.4	
719.01	4427	
719.2	2385.2	
719.38	2798.2	
719.56	4234.5	
719.74	4959.5	
719.92	2761.3	
720.11	3109.5	
720.29	4386.1	
720.47	3991.5	
720.65	2538.8	
720.83	2918.4	
721.02	4253.6	
721.2	4109.6	
721.38	3024.8	
721.56	2645.3	
721.74	3893.2	
721.92	3846.8	
722.11	3147	
722.29	3052.2	
722.47	4487.8	
722.65	4130.8	
722.83	2694.4	
723.01	2995.5	
723.2	4106.2	
723.38	4350.6	
723.56	2480.1	
723.74	2958.6	
723.92	3867.2	
724.1	4360.1	
724.29	2620.7	
724.47	3179.1	
724.65	4123.9	
724.83	3906.2	
725.01	2646	
725.19	2923.8	
725.37	3943	
725.56	3910.9	
725.74	2606.4	
725.92	2679.4	
726.1	3953.9	
726.28	4146.5	
726.46	2782.5	
726.64	2722.4	
726.83	4280.3	
727.01	4213.4	
727.19	2587.9	
727.37	2882.9	
727.55	4269.3	
727.73	4435.9	
727.91	2512.9	
728.09	2489.6	
728.28	4320.5	
728.46	4478.2	
728.64	2884.9	
728.82	2873.3	
729	4790.2	
729.18	4557.4	
729.36	2485.6	
729.54	3597.6	
729.72	4928.1	
729.91	4122.6	
730.09	3392.1	
730.27	2831.7	
730.45	4157.4	
730.63	4372.4	
730.81	3037.1	
730.99	2570.9	
731.17	4651.6	
731.35	3945.8	
731.53	2774.3	
731.71	2720.4	
731.9	4523.3	
732.08	4464.6	
732.26	2831.7	
732.44	2695.1	
732.62	4585.4	
732.8	4326.7	
732.98	3000.3	
733.16	2638.5	
733.34	4388.1	
733.52	3740.3	
733.7	2795.5	
733.88	2896.5	
734.07	4356	
734.25	4242	
734.43	2598.9	
734.61	3226.2	
734.79	4894.6	
734.97	4205.8	
735.15	2631	
735.33	2809.8	
735.51	4277.5	
735.69	4148.5	
735.87	3258.3	
736.05	2859	
736.23	4245.4	
736.41	3975.8	
736.59	2863.1	
736.77	2812.5	
736.95	4412	
737.13	4040	
737.32	2643.2	
737.5	2765.4	
737.68	4750.6	
737.86	4108.2	
738.04	2623.4	
738.22	3431	
738.4	4111	
738.58	4280.3	
738.76	2863.7	
738.94	2446	
739.12	4115.7	
739.3	4121.2	
739.48	3121.1	
739.66	2938.8	
739.84	4161.5	
740.02	4141	
740.2	2437.1	
740.38	2579.1	
740.56	4315.1	
740.74	3744.4	
740.92	2916.3	
741.1	2806.4	
741.28	4171	
741.46	3962.1	
741.64	2707.4	
741.82	2951.1	
742	4213.4	
742.18	4060.4	
742.36	2760	
742.54	2629.6	
742.72	4476.2	
742.9	3821.5	
743.08	2908.1	
743.26	2411.1	
743.44	4403.1	
743.62	4388.8	
743.8	3053.5	
743.98	2646.7	
744.16	4257.7	
744.34	4111.6	
744.52	2988.7	
744.7	2993.4	
744.88	4403.1	
745.06	4169.7	
745.24	3062.4	
745.42	3087.7	
745.6	4477.5	
745.78	4383.3	
745.96	2538.1	
746.14	2641.9	
746.32	4803.9	
746.5	4325.3	
746.68	2826.2	
746.86	2667.8	
747.03	4519.2	
747.21	3924.6	
747.39	2942.9	
747.57	2671.2	
747.75	4291.2	
747.93	4423.6	
748.11	2600.9	
748.29	2644.6	
748.47	5120.6	
748.65	4105.5	
748.83	3033.7	
749.01	2852.8	
749.19	4349.9	
749.37	3907.5	
749.55	2874.7	
749.73	2860.3	
749.91	4367.6	
750.09	4238.6	
750.26	2882.2	
750.44	2640.5	
750.62	4263.2	
750.8	4173.8	
750.98	2634.4	
751.16	2772.9	
751.34	4356.7	
751.52	3990.1	
751.7	3082.2	
751.88	2578.4	
752.06	4502.1	
752.24	4349.2	
752.42	2564.7	
752.59	2740.9	
752.77	4240.7	
752.95	4814.8	
753.13	3083.6	
753.31	2790	
753.49	4149.9	
753.67	4278.2	
753.85	2930.6	
754.03	2697.2	
754.21	4528.7	
754.38	4601.1	
754.56	2791.4	
754.74	2439.8	
754.92	4100.7	
755.1	4390.8	
755.28	2461.7	
755.46	2534	
755.64	4990.9	
755.82	5022.3	
755.99	2747.7	
756.17	2803.7	
756.35	3857	
756.53	4581.3	
756.71	2313.5	
756.89	2865.1	
757.07	4396.3	
757.25	3930.7	
757.42	2994.8	
757.6	3392.1	
757.78	4476.9	
757.96	3945.8	
758.14	2772.3	
758.32	2555.2	
758.5	3723.9	
758.67	4104.8	
758.85	2672.6	
759.03	2729.3	
759.21	4282.3	
759.39	3872.7	
759.57	2512.2	
759.75	3003	
759.92	4619.5	
760.1	4260.5	
760.28	3113.6	
760.46	3319.1	
760.64	4065.2	
760.82	4051.6	
760.99	3085.6	
761.17	2739.5	
761.35	4482.3	
761.53	3916.4	
761.71	2804.4	
761.89	3059.7	
762.06	4300.1	
762.24	4138.9	
762.42	2810.5	
762.6	2635.1	
762.78	4059.1	
762.96	4350.6	
763.13	2929.3	
763.31	2727.2	
763.49	4420.9	
763.67	4075.5	
763.85	3235.8	
764.02	3389.4	
764.2	4608.6	
764.38	4034.5	
764.56	2702.6	
764.74	3165.5	
764.91	4569	
765.09	3954.6	
765.27	2612.5	
765.45	2467.8	
765.63	4719.2	
765.8	4443.4	
765.98	2505.3	
766.16	2525.8	
766.34	3850.2	
766.52	3783.3	
766.69	2906.1	
766.87	2465.8	
767.05	4118.5	
767.23	4492.6	
767.41	2686.3	
767.58	2717	
767.76	4361.5	
767.94	4399	
768.12	2674	
768.29	2965.5	
768.47	4054.3	
768.65	4465.3	
768.83	2521	
769	2998.2	
769.18	3977.2	
769.36	4276.2	
769.54	3037.8	
769.72	2538.8	
769.89	4552	
770.07	4450.9	
770.25	2747.7	
770.43	3351.2	
770.6	4817.5	
770.78	4973.8	
770.96	2776.4	
771.14	3095.2	
771.31	4465.9	
771.49	4142.4	
771.67	2416.6	
771.85	2480.1	
772.02	3763.5	
772.2	4063.2	
772.38	2883.5	
772.55	2600.2	
772.73	4304.8	
772.91	4093.9	
773.09	2786.6	
773.26	2912.9	
773.44	4301.4	
773.62	4173.1	
773.8	2584.5	
773.97	2523.1	
774.15	4284.4	
774.33	4179.9	
774.5	2594.8	
774.68	2722.4	
774.86	4362.2	
775.04	4099.4	
775.21	2660.3	
775.39	2553.8	
775.57	4285	
775.74	4365.6	
775.92	2537.4	
776.1	2409.1	
776.27	4240	
776.45	4822.3	
776.63	2647.3	
776.81	2454.1	
776.98	4160.8	
777.16	4509.6	
777.34	2665.8	
777.51	2819.4	
777.69	4130.8	
777.87	3977.8	
778.04	2794.1	
778.22	2917	
778.4	4001.7	
778.57	4330.1	
778.75	2361.3	
778.93	2534	
779.1	3995.6	
779.28	3758	
779.46	2392	
779.64	2594.1	
779.81	4476.2	
779.99	4793.6	
780.17	2917.7	
780.34	3028.3	
780.52	4180.6	
780.69	4228.4	
780.87	2786.6	
781.05	2590.7	
781.22	4239.3	
781.4	4206.5	
781.58	2667.1	
781.75	2254.8	
781.93	4275.5	
782.11	3830.4	
782.28	3059.7	
782.46	2669.2	
782.64	3826.3	
782.81	4296	
782.99	2697.9	
783.17	2665.8	
783.34	4154	
783.52	3984.7	
783.69	2682.2	
783.87	3115	
784.05	4020.8	
784.22	3927.3	
784.4	3166.2	
784.58	2835.8	
784.75	4521.2	
784.93	4052.9	
785.1	2697.2	
785.28	2932.7	
785.46	4339	
785.63	3867.2	
785.81	2675.3	
785.99	2583.2	
786.16	4126.7	
786.34	4171	
786.51	2577.7	
786.69	2854.2	
786.87	3762.8	
787.04	4017.4	
787.22	2573.6	
787.39	2986.6	
787.57	3986.7	
787.75	4415.4	
787.92	3146.4	
788.1	3029.6	
788.27	3842	
788.45	3693.2	
788.63	2899.2	
788.8	2273.2	
788.98	4280.3	
789.15	3654.3	
789.33	2407.7	
789.5	2620.7	
789.68	4379.2	
789.86	4444.1	
790.03	2886.3	
790.21	2566.1	
790.38	4530.1	
790.56	3958.7	
790.73	2530.6	
790.91	2535.4	
791.09	3913	
791.26	4272.7	
791.44	2676	
791.61	2446	
791.79	3988.1	
791.96	3906.8	
792.14	2435.7	
792.32	2277.3	
792.49	3921.9	
792.67	4026.3	
792.84	2555.2	
793.02	2381.8	
793.19	4182.6	
793.37	4519.9	
793.54	2248	
793.72	2433	
793.89	4539	
794.07	3893.2	
794.25	2716.3	
794.42	2302.6	
794.6	4450.9	
794.77	4237.2	
794.95	2912.2	
795.12	2536.8	
795.3	3958	
795.47	4192.2	
795.65	2766.8	
795.82	2724.5	
796	3827.7	
796.17	4769.7	
796.35	2585.9	
796.52	2992.8	
796.7	4289.8	
796.87	4292.5	
797.05	2590	
797.22	3083.6	
797.4	4300.7	
797.57	4747.2	
797.75	2729.9	
797.92	2559.3	
798.1	4511	
798.27	3746.4	
798.45	2263	
798.62	2387.9	
798.8	4098	
798.97	4354.7	
799.15	2839.2	
799.32	2742.9	
799.5	3688.4	
799.67	4043.4	
799.85	2892.4	
800.02	2286.9	
800.2	3943	
800.37	3988.1	
800.55	2974.3	
800.72	2590	
800.9	4386.7	
801.07	4515.8	
801.25	3191.4	
801.42	2792.1	
801.6	4374.5	
801.77	4007.9	
801.95	2654.2	
802.12	2577	
802.29	4225	
802.47	4084.3	
802.64	2792.7	
802.82	2291.7	
802.99	3979.9	
803.17	4326.7	
803.34	2733.4	
803.52	2470.5	
803.69	4728.8	
803.87	3768.9	
804.04	2691	
804.21	2689.7	
804.39	4563.6	
804.56	3999	
804.74	2380.4	
804.91	2771.6	
805.09	3936.2	
805.26	3932.1	
805.44	2443.2	
805.61	2579.8	
805.78	4316.4	
805.96	4248.9	
806.13	2792.1	
806.31	2911.5	
806.48	3695.2	
806.66	3917.1	
806.83	2799.6	
807	2719.7	
807.18	3974.4	
807.35	4123.2	
807.53	2711.5	
807.7	2342.9	
807.87	4543.1	
808.05	3963.5	
808.22	2882.9	
808.4	2276	
808.57	3822.9	
808.74	3762.1	
808.92	2592	
809.09	3096.5	
809.27	4021.5	
809.44	4139.6	
809.61	2321	
809.79	2490.3	
809.96	4755.4	
810.14	4229.1	
810.31	2338.1	
810.48	2893.1	
810.66	3979.9	
810.83	4322.6	
811.01	2573.6	
811.18	2785.2	
811.35	4344.4	
811.53	3604.4	
811.7	2994.1	
811.87	2780.5	
812.05	4065.9	
812.22	3872	
812.39	2461	
812.57	2445.3	
812.74	4032.5	
812.92	4810.7	
813.09	2676.7	
813.26	2777.7	
813.44	4681.7	
813.61	3838.6	
813.78	2294.4	
813.96	2892.4	
814.13	3957.4	
814.3	3846.1	
814.48	3105.4	
814.65	2625.5	
814.82	4545.8	
815	3727.3	
815.17	2695.1	
815.34	3167.5	
815.52	3883.6	
815.69	3904.1	
815.87	2600.9	
816.04	2600.2	
816.21	3895.9	
816.38	3642.7	
816.56	2645.3	
816.73	2560	
816.9	4741	
817.08	4259.1	
817.25	2527.9	
817.42	2922.5	
817.6	3699.3	
817.77	3842	
817.94	2725.2	
818.12	2431.6	
818.29	3874.1	
818.46	5092.6	
818.64	2621.4	
818.81	2454.1	
818.98	3893.9	
819.16	4876.9	
819.33	2834.4	
819.5	2737.5	
819.67	4186.7	
819.85	4454.3	
820.02	2712.9	
820.19	2762	
820.37	4089.8	
820.54	3893.2	
820.71	2728.6	
820.88	3299.3	
821.06	4095.9	
821.23	3841.3	
821.4	2752.5	
821.58	2738.1	
821.75	4250.9	
821.92	4048.8	
822.09	2379.1	
822.27	2375	
822.44	3954.6	
822.61	3891.8	
822.79	2350.4	
822.96	3959.4	
823.13	4123.9	
823.3	3736.2	
823.48	2593.4	
823.65	2397.5	
823.82	4414.1	
823.99	3713	
824.17	3127.2	
824.34	2461.7	
824.51	4876.2	
824.68	4000.4	
824.86	2546.3	
825.03	2769.5	
825.2	4007.2	
825.37	4446.8	
825.55	2539.5	
825.72	2656.9	
825.89	4759.5	
826.06	4530.1	
826.24	2622.8	
826.41	2677.4	
826.58	4595.6	
826.75	4072.7	
826.92	2276.7	
827.1	2370.9	
827.27	5763.7	
827.44	4711	
827.61	2512.2	
827.79	2891.7	
827.96	3870.7	
828.13	3880.9	
828.3	2620.7	
828.47	2303.3	
828.65	4265.9	
828.82	4190.1	
828.99	3146.4	
829.16	2829.6	
829.34	4371.7	
829.51	4324.6	
829.68	2648	
829.85	2665.8	
830.02	4706.9	
830.2	4412.7	
830.37	2184.5	
830.54	3068.5	
830.71	4802.5	
830.88	3978.5	
831.05	2186.5	
831.23	2440.5	
831.4	4805.2	
831.57	4928.8	
831.74	2544.3	
831.91	2247.3	
832.09	4372.4	
832.26	4441.4	
832.43	2501.9	
832.6	2766.1	
832.77	4202.4	
832.94	4629.8	
833.12	2152.4	
833.29	2461.7	
833.46	4194.2	
833.63	5066	
833.8	2770.2	
833.97	2581.1	
834.15	4446.8	
834.32	4292.5	
834.49	2613.9	
834.66	2682.8	
834.83	4392.9	
835	3908.2	
835.17	2509.4	
835.35	2501.9	
835.52	4407.2	
835.69	4255.7	
835.86	2606.4	
836.03	2190	
836.2	4412.7	
836.37	4180.6	
836.55	2480.1	
836.72	2468.5	
836.89	4149.9	
837.06	4435.9	
837.23	2563.4	
837.4	2750.4	
837.57	4854.4	
837.75	5068	
837.92	2392	
838.09	2504.7	
838.26	4158.1	
838.43	4487.8	
838.6	2633.7	
838.77	2425.5	
838.94	4868	
839.11	4822.3	
839.29	2564.7	
839.46	2067.8	
839.63	4441.4	
839.8	4170.3	
839.97	2508.1	
840.14	2456.9	
840.31	4343.7	
840.48	4386.7	
840.65	2212.5	
840.82	2477.4	
841	4407.9	
841.17	4277.5	
841.34	2326.5	
841.51	2420.7	
841.68	4354	
841.85	4196.3	
842.02	2412.5	
842.19	2098.5	
842.36	4296.6	
842.53	4302.1	
842.7	2342.9	
842.87	2736.1	
843.05	5162.2	
843.22	4126.7	
843.39	2276.7	
843.56	2473.3	
843.73	4141	
843.9	4494.6	
844.07	3435.8	
844.24	2897.2	
844.41	5524.7	
844.58	3992.9	
844.75	2279.4	
844.92	2463.7	
845.09	4308.9	
845.26	4341.7	
845.43	2339.5	
845.6	2478.7	
845.77	4384	
845.94	4197.7	
846.12	2536.1	
846.29	2665.1	
846.46	4525.3	
846.63	4336.2	
846.8	2369.5	
846.97	2710.8	
847.14	4582	
847.31	4356.7	
847.48	2544.9	
847.65	2772.9	
847.82	4245.4	
847.99	4445.5	
848.16	2940.9	
848.33	2730.6	
848.5	4110.3	
848.67	4612	
848.84	2312.8	
849.01	2370.9	
849.18	4102.1	
849.35	3833.8	
849.52	2732	
849.69	2250	
849.86	4502.8	
850.03	4486.4	
850.2	2372.2	
850.37	2734.7	
850.54	4474.1	
850.71	4114.4	
850.88	2712.9	
851.05	2290.3	
851.22	4265.9	
851.39	4578.6	
851.56	2239.1	
851.73	2592.7	
851.9	4001	
852.07	4461.2	
852.24	2564.1	
852.41	2293	
852.58	4356.7	
852.75	4003.1	
852.92	2560.6	
853.09	2273.9	
853.26	3928	
853.43	4548.5	
853.6	2337.4	
853.77	2079.4	
853.94	4671.4	
854.11	3938.9	
854.28	3166.8	
854.44	2568.8	
854.61	4904.9	
854.78	4519.9	
854.95	2321.7	
855.12	2740.2	
855.29	3730	
855.46	4643.4	
855.63	2373.6	
855.8	2926.5	
855.97	4092.5	
856.14	4573.8	
856.31	3002.3	
856.48	2552.5	
856.65	4181.3	
856.82	3935.5	
856.99	2273.2	
857.16	2463	
857.33	4956.1	
857.49	4170.3	
857.66	2430.3	
857.83	2568.8	
858	4264.6	
858.17	4272.1	
858.34	2210.4	
858.51	2358.6	
858.68	4688.5	
858.85	4648.9	
859.02	2620.7	
859.19	2735.4	
859.36	4008.6	
859.52	3885.7	
859.69	2355.2	
859.86	2653.5	
860.03	3934.1	
860.2	4683.7	
860.37	2220	
860.54	2385.9	
860.71	4472.8	
860.88	4653.7	
861.05	2534	
861.21	2843.9	
861.38	4608.6	
861.55	3782.6	
861.72	2180.4	
861.89	2530.6	
862.06	4494.6	
862.23	4716.5	
862.4	2286.2	
862.56	2379.7	
862.73	4442.7	
862.9	4237.2	
863.07	2611.2	
863.24	2187.2	
863.41	3941.7	
863.58	3941.7	
863.75	2334.7	
863.91	2620	
864.08	4506.9	
864.25	4397	
864.42	2785.9	
864.59	3023.5	
864.76	4760.2	
864.93	3929.4	
865.09	2272.6	
865.26	2430.9	
865.43	4630.5	
865.6	4743.1	
865.77	2146.3	
865.94	2277.3	
866.1	4571.7	
866.27	4310.3	
866.44	3242.6	
866.61	2261	
866.78	4149.9	
866.95	4421.6	
867.11	2269.1	
867.28	2120.3	
867.45	4572.4	
867.62	3895.9	
867.79	2599.6	
867.96	2347.7	
868.12	3915	
868.29	4424.3	
868.46	2290.3	
868.63	2983.9	
868.8	4466.6	
868.97	4396.3	
869.13	2370.2	
869.3	2387.9	
869.47	4312.3	
869.64	4518.5	
869.81	2371.5	
869.97	2362	
870.14	4234.5	
870.31	4617.5	
870.48	2287.6	
870.65	2804.4	
870.81	4225.6	
870.98	4143.7	
871.15	2544.9	
871.32	2424.8	
871.48	4331.5	
871.65	4721.9	
871.82	2284.2	
871.99	2539.5	
872.16	4949.3	
872.32	4592.9	
872.49	2394.1	
872.66	2333.3	
872.83	4488.5	
872.99	4029	
873.16	2622.8	
873.33	2349.7	
873.5	4173.1	
873.67	4274.1	
873.83	2428.9	
874	2945.7	
874.17	4328.7	
874.34	4743.8	
874.5	2890.4	
874.67	2730.6	
874.84	4560.1	
875.01	3824.2	
875.17	3011.2	
875.34	2333.3	
875.51	4318.5	
875.68	4949.9	
875.84	2743.6	
876.01	3138.2	
876.18	4429.8	
876.34	4410	
876.51	2307.4	
876.68	2286.9	
876.85	4082.3	
877.01	4636.6	
877.18	3079.5	
877.35	2314.2	
877.52	4362.2	
877.68	3962.1	
877.85	2304	
878.02	2297.8	
878.18	3999.7	
878.35	4132.1	
878.52	1918.9	
878.69	2629.6	
878.85	4631.1	
879.02	4420.9	
879.19	3106.1	
879.35	2445.3	
879.52	4497.3	
879.69	4451.6	
879.86	2126.5	
880.02	2583.9	
880.19	4243.4	
880.36	4830.5	
880.52	2566.8	
880.69	2667.1	
880.86	4539.7	
881.02	4458.4	
881.19	2490.3	
881.36	2448	
881.52	4420.9	
881.69	4059.8	
881.86	2495.8	
882.02	2434.4	
882.19	4579.9	
882.36	5044.1	
882.52	2412.5	
882.69	3060.3	
882.86	4315.8	
883.02	4313.7	
883.19	2706.7	
883.36	2575	
883.52	4456.4	
883.69	4855.7	
883.86	2321	
884.02	2151	
884.19	4449.6	
884.36	4259.8	
884.52	2574.3	
884.69	2523.8	
884.86	4132.8	
885.02	4739	
885.19	2499.2	
885.36	2577.7	
885.52	4057.7	
885.69	4388.8	
885.86	3124.5	
886.02	2777.7	
886.19	4459.1	
886.35	4066.6	
886.52	2489.6	
886.69	3086.3	
886.85	3916.4	
887.02	4644.1	
887.19	4644.1	
887.35	4644.1	
887.52	4644.1	
887.68	4644.1	
887.85	4644.1	
888.02	4644.1	
888.18	4644.1	
888.35	4644.1	
888.51	4644.1	
888.68	4644.1	
888.85	4644.1	
889.01	4644.1	
889.18	4644.1	
889.35	4644.1	
889.51	4644.1	
889.68	4644.1	
889.84	4644.1	
890.01	4644.1	
890.17	4644.1	
890.34	4644.1	
890.51	4644.1	
890.67	4644.1	
890.84	4644.1	
891	4644.1	
891.17	4644.1	
891.34	4644.1	
891.5	4644.1	
891.67	4644.1	
891.83	4644.1	
892	4644.1	
892.16	4644.1	
892.33	4644.1	
892.5	4644.1	
892.66	4644.1	
892.83	4644.1	
892.99	4644.1	
893.16	4644.1	
893.32	4644.1	
893.49	4644.1	
893.65	4644.1	
893.82	4644.1	
893.99	4644.1	
894.15	4644.1	
894.32	4644.1	
894.48	4644.1	
894.65	4644.1	
894.81	4644.1	
894.98	4644.1	
895.14	4644.1	
895.31	4644.1	
895.47	4644.1	
895.64	4644.1	
895.81	4644.1	
895.97	4644.1	
896.14	4644.1	
896.3	4644.1	
896.47	4644.1	
896.63	4644.1	
896.8	4644.1	
896.96	4644.1	
897.13	4644.1	
897.29	4644.1	
897.46	4644.1	
897.62	4644.1	
897.79	4644.1	
897.95	4644.1	
898.12	4644.1	
898.28	4644.1	
898.45	4644.1	
898.61	4644.1	
898.78	4644.1	
898.94	4644.1	
899.11	4644.1	
899.27	4644.1	
899.44	4644.1	
899.6	4644.1	
899.77	4644.1	
899.93	4644.1	
900.1	4644.1	
900.26	4644.1	
900.43	4644.1	
900.59	4644.1	
900.76	4644.1	
900.92	4644.1	
901.09	4644.1	
901.25	4644.1	
901.42	4644.1	
901.58	4644.1	
901.75	4644.1	
901.91	4644.1	
902.07	4644.1	
902.24	4644.1	
902.4	4644.1	
902.57	4644.1	
902.73	4644.1	
902.9	4644.1	
903.06	4644.1	
903.23	4644.1	
903.39	4644.1	
903.56	4644.1	
903.72	4644.1	
903.88	4644.1	
904.05	4644.1	
904.21	4644.1	
904.38	4644.1	
904.54	4644.1	
904.71	4644.1	
904.87	4644.1	
905.03	4644.1	
905.2	4644.1	
905.36	4644.1	
905.53	4644.1	
905.69	4644.1	
905.86	4644.1	
906.02	4644.1	
906.18	4644.1	
906.35	4644.1	
906.51	4644.1	
906.68	4644.1	
906.84	4644.1	
907.01	4644.1	
907.17	4644.1	
907.33	4644.1	
907.5	4644.1	
907.66	4644.1	
907.83	4644.1	
907.99	4644.1	
908.15	4644.1	
908.32	4644.1	
908.48	4644.1	
908.65	4644.1	
908.81	4644.1	
908.97	4644.1	
909.14	4644.1	
909.3	4644.1	
909.47	4644.1	
909.63	4644.1	
909.79	4644.1	
909.96	4644.1	
910.12	4644.1	
910.28	4644.1	
910.45	4644.1	
910.61	4644.1	
910.78	4644.1	
910.94	4644.1	
911.1	4644.1	
911.27	4644.1	
911.43	4644.1	
911.59	4644.1	
911.76	4644.1	
911.92	4644.1	
912.08	4644.1	
912.25	4644.1	
912.41	4644.1	
912.57	4644.1	
912.74	4644.1	
912.9	4644.1	
913.07	4644.1	
913.23	4644.1	
913.39	4644.1	
913.56	4644.1	
913.72	4644.1	
913.88	4644.1	
914.05	4644.1	
914.21	4644.1	
914.37	4644.1	
914.54	4644.1	
914.7	4644.1	
914.86	4644.1	
915.03	4644.1	
915.19	4644.1	
