Wavelength	Intensities	
nm	a.u.	
179.22	1794	
179.44	1780.4	
179.65	1807.7	
179.86	1753.1	
180.08	1777.6	
180.29	4367	
180.51	3241.9	
180.72	5277.6	
180.94	6041.5	
181.15	2994.8	
181.37	2951.8	
181.58	5085.8	
181.79	5328.1	
182.01	3027.6	
182.22	3293.1	
182.44	5395.7	
182.65	4578.6	
182.87	4051.6	
183.08	3593.5	
183.29	5623	
183.51	4679.6	
183.72	3306.1	
183.94	4662.5	
184.15	5048.9	
184.37	4993.6	
184.58	2901.3	
184.79	3829	
185.01	4663.2	
185.22	5278.3	
185.44	4111.6	
185.65	3476.1	
185.86	4942.4	
186.08	4575.8	
186.29	2908.1	
186.51	3033	
186.72	4695.3	
186.94	5453.1	
187.15	3449.5	
187.36	3599	
187.58	6934.4	
187.79	5145.9	
188.01	3694.5	
188.22	5721.3	
188.43	6105.7	
188.65	5318.6	
188.86	3052.8	
189.08	3648.8	
189.29	4842.8	
189.5	4821.6	
189.72	3363.4	
189.93	3401.7	
190.15	5507.7	
190.36	6411.5	
190.57	3686.3	
190.79	3467.9	
191	5500.8	
191.22	5480.4	
191.43	3649.5	
191.64	3063.8	
191.86	5700.9	
192.07	5556.8	
192.29	3158	
192.5	3293.1	
192.71	5490.6	
192.93	4785.4	
193.14	3302.7	
193.35	3420.8	
193.57	4784.1	
193.78	5526.8	
194	2725.8	
194.21	3310.2	
194.42	4635.2	
194.64	5059.8	
194.85	3589.4	
195.07	4143.7	
195.28	4994.3	
195.49	4432.5	
195.71	4337.6	
195.92	3102.7	
196.13	5245.5	
196.35	5302.9	
196.56	4640.7	
196.78	3605.8	
196.99	6369.9	
197.2	6018.3	
197.42	3586.7	
197.63	3644	
197.84	4541.7	
198.06	5167	
198.27	3332	
198.48	4366.3	
198.7	4854.4	
198.91	5025	
199.13	3605.8	
199.34	3633.1	
199.55	5401.2	
199.77	4402.5	
199.98	3189.4	
200.19	3646.1	
200.41	4901.5	
200.62	4696	
200.83	3713.6	
201.05	4072.7	
201.26	4947.9	
201.47	4711.7	
201.69	3216	
201.9	3084.2	
202.11	5016.2	
202.33	5905.7	
202.54	3422.8	
202.76	3772.4	
202.97	5083.1	
203.18	5169.8	
203.4	3784.6	
203.61	3697.9	
203.82	5027.1	
204.04	4682.3	
204.25	3658.4	
204.46	3547.8	
204.68	5031.9	
204.89	5234.6	
205.1	3571.7	
205.32	3082.2	
205.53	5341.8	
205.74	5455.1	
205.96	2671.2	
206.17	3620.1	
206.38	5282.4	
206.6	5468.8	
206.81	4112.3	
207.02	3384.6	
207.24	5223.7	
207.45	5575.9	
207.66	3489.7	
207.88	2996.2	
208.09	5189.6	
208.3	4978.6	
208.52	3179.8	
208.73	3485.6	
208.94	5083.7	
209.15	5588.2	
209.37	3414	
209.58	3635.8	
209.79	5497.4	
210.01	4838.7	
210.22	2786.6	
210.43	2942.9	
210.65	4991.6	
210.86	5363.6	
211.07	3452.9	
211.29	3157.3	
211.5	5326.1	
211.71	4977.2	
211.93	3234.4	
212.14	3143.6	
212.35	4919.2	
212.56	5125.4	
212.78	3601.7	
212.99	3009.8	
213.2	5748	
213.42	4829.8	
213.63	3315	
213.84	3482.2	
214.06	4545.1	
214.27	4517.8	
214.48	3446.7	
214.69	3629	
214.91	5586.9	
215.12	5661.3	
215.33	3715	
215.55	4005.1	
215.76	6066.8	
215.97	5312.4	
216.18	3492.5	
216.4	3480.9	
216.61	4731.5	
216.82	5446.2	
217.04	3203	
217.25	3318.4	
217.46	5533.6	
217.67	5371.8	
217.89	2833.7	
218.1	2990	
218.31	5084.4	
218.53	5182	
218.74	3371	
218.95	3258.3	
219.16	5017.5	
219.38	5768.4	
219.59	3229.6	
219.8	3800.3	
220.01	6336.4	
220.23	5046.2	
220.44	4179.9	
220.65	3115.6	
220.87	5093.3	
221.08	5559.6	
221.29	2945.7	
221.5	3898	
221.72	6657.3	
221.93	4812	
222.14	3618.8	
222.35	4238.6	
222.57	5070.8	
222.78	5330.9	
222.99	3434.4	
223.2	3731.4	
223.42	5261.2	
223.63	5341.1	
223.84	2727.9	
224.05	2713.6	
224.27	6275	
224.48	5739.8	
224.69	4227	
224.9	3624.2	
225.12	5177.9	
225.33	5021.6	
225.54	2916.3	
225.75	3220.8	
225.97	4608.6	
226.18	4902.8	
226.39	3517.7	
226.6	3295.9	
226.82	4870.1	
227.03	4685.1	
227.24	3576.4	
227.45	3017.3	
227.67	5347.2	
227.88	5732.9	
228.09	4022.9	
228.3	4008.6	
228.52	5356.8	
228.73	4960.9	
228.94	3364.8	
229.15	2988	
229.36	5013.4	
229.58	4906.9	
229.79	3411.2	
230	3921.9	
230.21	5896.8	
230.43	5058.5	
230.64	3586	
230.85	3715.7	
231.06	5468.8	
231.28	5363.6	
231.49	3011.2	
231.7	3508.9	
231.91	5288.5	
232.12	5061.2	
232.34	3169.6	
232.55	3483.6	
232.76	5552	
232.97	5098.1	
233.18	3211.9	
233.4	3568.2	
233.61	5203.2	
233.82	4812.7	
234.03	3371	
234.25	3244	
234.46	6790.4	
234.67	5043.5	
234.88	3682.2	
235.09	3216.7	
235.31	5245.5	
235.52	4938.3	
235.73	3542.3	
235.94	3053.5	
236.15	4784.7	
236.37	5984.8	
236.58	3199.6	
236.79	3488.4	
237	5228.5	
237.21	4576.5	
237.43	3684.3	
237.64	2916.3	
237.85	8617.9	
238.06	4658.4	
238.27	3700	
238.48	3090.4	
238.7	5371.1	
238.91	4919.9	
239.12	3429	
239.33	3457.7	
239.54	4634.6	
239.76	4945.2	
239.97	3467.2	
240.18	3437.9	
240.39	6098.2	
240.6	5210.7	
240.82	3600.3	
241.03	3035.8	
241.24	5008	
241.45	5692	
241.66	3239.9	
241.87	3743.7	
242.09	5649.7	
242.3	5975.3	
242.51	3760.8	
242.72	3454.9	
242.93	5446.2	
243.14	4922	
243.36	3964.9	
243.57	4295.3	
243.78	5752.7	
243.99	5332.9	
244.2	3441.3	
244.41	3151.8	
244.63	4616.1	
244.84	5293.3	
245.05	3650.2	
245.26	3444	
245.47	5274.2	
245.68	5492.7	
245.9	4599.1	
246.11	3619.4	
246.32	4867.3	
246.53	5259.9	
246.74	5521.3	
246.95	2930.6	
247.16	4605.2	
247.38	5000.5	
247.59	2947.7	
247.8	3497.9	
248.01	4717.2	
248.22	4924.7	
248.43	3201.7	
248.64	3403.7	
248.86	4484.4	
249.07	4873.5	
249.28	3011.2	
249.49	3581.2	
249.7	5489.2	
249.91	5482.4	
250.12	2894.5	
250.34	3008.5	
250.55	5121.3	
250.76	5073.5	
250.97	3594.9	
251.18	3629.7	
251.39	5569.8	
251.6	5165.7	
251.81	3652.9	
252.03	3667.9	
252.24	4758.1	
252.45	5398.4	
252.66	3069.9	
252.87	3812	
253.08	4978.6	
253.29	6404.7	
253.5	3082.2	
253.72	4212	
253.93	4882.4	
254.14	5864.7	
254.35	3264.5	
254.56	3394.8	
254.77	5202.5	
254.98	4689.2	
255.19	3276.8	
255.41	4158.7	
255.62	5124	
255.83	5555.5	
256.04	3708.2	
256.25	3596.9	
256.46	6002.6	
256.67	4749.9	
256.88	3548.4	
257.09	3921.9	
257.31	4732.2	
257.52	4735.6	
257.73	4508.3	
257.94	3291.8	
258.15	4938.3	
258.36	5056.4	
258.57	4076.1	
258.78	2696.5	
258.99	5386.8	
259.2	4883	
259.41	3307.5	
259.63	3448.1	
259.84	5715.9	
260.05	6074.3	
260.26	4325.3	
260.47	3205.8	
260.68	5506.3	
260.89	4961.5	
261.1	3963.5	
261.31	3173.7	
261.52	5534.3	
261.73	5808.7	
261.95	4210.6	
262.16	3684.3	
262.37	5635.3	
262.58	5704.3	
262.79	4250.2	
263	3311.6	
263.21	5087.2	
263.42	4939	
263.63	3426.9	
263.84	3330.7	
264.05	5466	
264.26	5771.9	
264.47	4129.4	
264.69	3777.8	
264.9	5685.8	
265.11	5175.2	
265.32	3224.9	
265.53	3267.2	
265.74	5135.6	
265.95	4517.1	
266.16	3606.5	
266.37	3832.4	
266.58	5128.8	
266.79	4890.5	
267	3314.3	
267.21	3110.2	
267.42	4637.3	
267.63	5010	
267.84	3422.8	
268.06	2978.4	
268.27	5430.5	
268.48	5597.1	
268.69	3407.1	
268.9	3985.3	
269.11	5659.2	
269.32	4526	
269.53	3463.1	
269.74	3283.6	
269.95	5177.3	
270.16	4512.4	
270.37	3519.8	
270.58	3998.3	
270.79	4861.2	
271	5515.2	
271.21	3663.1	
271.42	3446.7	
271.63	5173.2	
271.84	4678.2	
272.05	2870.6	
272.26	3095.8	
272.47	4995	
272.68	5175.9	
272.89	3359.4	
273.11	3774.4	
273.32	4846.2	
273.53	5866.1	
273.74	3698.6	
273.95	3654.3	
274.16	5498.8	
274.37	5080.3	
274.58	3809.2	
274.79	3104.7	
275	5180.7	
275.21	5553.4	
275.42	4524	
275.63	3822.9	
275.84	5282.4	
276.05	6520.7	
276.26	3614.7	
276.47	3491.1	
276.68	4881	
276.89	5855.1	
277.1	3874.8	
277.31	3099.3	
277.52	5280.3	
277.73	5466.7	
277.94	2994.1	
278.15	3339.6	
278.36	5173.9	
278.57	4727.4	
278.78	3331.4	
278.99	3799.7	
279.2	4716.5	
279.41	4671.4	
279.62	4341	
279.83	3127.2	
280.04	6004.6	
280.25	4642.1	
280.46	4326	
280.67	3442.6	
280.88	4634.6	
281.09	5600.5	
281.3	3607.8	
281.51	4521.2	
281.72	4752.7	
281.93	5474.9	
282.14	3262.4	
282.35	3476.8	
282.56	5482.4	
282.77	5438.7	
282.98	3330	
283.19	4048.2	
283.4	6586.3	
283.61	4984.1	
283.82	3127.2	
284.03	4263.9	
284.24	5134.3	
284.45	5526.8	
284.66	4323.9	
284.87	4060.4	
285.08	5462.6	
285.29	5671.5	
285.5	3020.8	
285.71	3447.4	
285.92	5509	
286.12	6108.4	
286.33	4213.4	
286.54	3366.9	
286.75	5440.1	
286.96	4917.9	
287.17	3132	
287.38	4129.4	
287.59	4761.5	
287.8	4693.3	
288.01	3388	
288.22	3866.6	
288.43	5418.9	
288.64	4561.5	
288.85	4055.7	
289.06	3778.5	
289.27	5382.7	
289.48	5836	
289.69	4298.7	
289.9	3874.1	
290.11	5582.8	
290.32	4819.6	
290.53	4029.7	
290.74	3766.9	
290.94	5390.9	
291.15	5458.5	
291.36	3272	
291.57	3804.4	
291.78	4873.5	
291.99	4507.6	
292.2	3118.4	
292.41	3751.9	
292.62	5433.3	
292.83	5281	
293.04	4622.9	
293.25	3201.7	
293.46	4805.9	
293.67	5509.7	
293.88	3264.5	
294.09	3190.7	
294.29	4709.6	
294.5	5152.7	
294.71	3451.5	
294.92	3343	
295.13	4838	
295.34	5982.1	
295.55	2962	
295.76	2972.3	
295.97	5390.9	
296.18	6039.5	
296.39	3120.4	
296.6	3262.4	
296.81	5143.1	
297.01	5409.4	
297.22	3412.6	
297.43	3274.7	
297.64	4738.3	
297.85	4757.4	
298.06	2741.5	
298.27	2962	
298.48	5017.5	
298.69	4753.3	
298.9	3494.5	
299.11	3228.3	
299.31	4634.6	
299.52	4623.6	
299.73	3803.8	
299.94	3624.9	
300.15	4998.4	
300.36	4712.4	
300.57	3688.4	
300.78	3691.1	
300.99	4889.2	
301.2	5096	
301.4	3263.8	
301.61	3532.1	
301.82	5388.2	
302.03	5423.7	
302.24	3905.5	
302.45	3108.1	
302.66	5260.5	
302.87	5577.3	
303.08	3297.9	
303.29	4376.5	
303.49	4853	
303.7	5063.9	
303.91	2968.2	
304.12	4191.5	
304.33	4585.4	
304.54	5154.7	
304.75	3274	
304.96	3197.6	
305.16	5274.2	
305.37	5910.4	
305.58	2927.2	
305.79	2988.7	
306	5302.9	
306.21	4491.2	
306.42	3238.5	
306.63	4868.7	
306.83	4857.1	
307.04	5447.6	
307.25	3630.4	
307.46	3546.4	
307.67	4422.9	
307.88	5362.3	
308.09	3265.1	
308.29	3330.7	
308.5	5117.9	
308.71	5495.4	
308.92	3487.7	
309.13	3137.5	
309.34	4958.1	
309.55	4960.9	
309.75	4020.8	
309.96	3702	
310.17	5406.6	
310.38	4767	
310.59	3829.7	
310.8	3069.2	
311.01	4866.7	
311.21	4935.6	
311.42	3125.9	
311.63	3259	
311.84	4809.3	
312.05	5135.6	
312.26	3642.7	
312.46	3975.1	
312.67	4924	
312.88	4617.5	
313.09	3177.1	
313.3	3138.2	
313.51	5677.7	
313.71	5982.1	
313.92	3134.1	
314.13	3269.2	
314.34	5199.8	
314.55	4959.5	
314.76	4080.2	
314.96	3494.5	
315.17	5121.3	
315.38	5346.6	
315.59	3173	
315.8	3046	
316.01	5728.9	
316.21	5728.2	
316.42	3110.9	
316.63	3502.7	
316.84	4898.7	
317.05	5657.9	
317.26	3713	
317.46	3364.8	
317.67	4962.9	
317.88	5350.7	
318.09	3960.8	
318.3	2987.3	
318.5	4843.4	
318.71	5292.6	
318.92	4997	
319.13	3687.7	
319.34	5425.8	
319.54	5525.4	
319.75	2936.8	
319.96	2784.6	
320.17	5300.1	
320.38	5504.3	
320.58	2881.5	
320.79	3449.5	
321	5479	
321.21	5606	
321.42	3487	
321.62	2903.3	
321.83	4704.9	
322.04	5082.4	
322.25	3372.3	
322.46	3215.3	
322.66	5096.7	
322.87	5261.9	
323.08	3860.4	
323.29	3132	
323.5	5970.5	
323.7	4663.9	
323.91	4207.2	
324.12	3852.2	
324.33	5108.3	
324.53	5328.8	
324.74	3722.5	
324.95	3867.2	
325.16	4521.2	
325.37	4851	
325.57	3140.9	
325.78	3188.7	
325.99	5115.1	
326.2	4609.3	
326.4	4506.9	
326.61	2930	
326.82	4994.3	
327.03	5110.4	
327.24	4425	
327.44	4181.3	
327.65	5277.6	
327.86	4305.5	
328.07	3708.2	
328.27	3095.8	
328.48	5642.8	
328.69	4676.2	
328.9	4445.5	
329.1	3373	
329.31	4952	
329.52	5739.8	
329.73	3189.4	
329.93	3547.1	
330.14	4996.4	
330.35	5195.7	
330.56	5079.6	
330.76	3845.4	
330.97	4864.6	
331.18	5158.2	
331.39	3502.7	
331.59	2922.5	
331.8	5539.1	
332.01	5666	
332.22	3254.9	
332.42	3745.1	
332.63	5175.9	
332.84	4770.4	
333.05	3523.9	
333.25	3227.6	
333.46	4795.7	
333.67	5021.6	
333.88	3352.5	
334.08	3672	
334.29	6592.4	
334.5	5614.8	
334.7	3084.9	
334.91	4471.4	
335.12	4626.4	
335.33	5339.1	
335.53	3509.5	
335.74	5066.7	
335.95	4870.1	
336.16	4716.5	
336.36	3491.1	
336.57	3975.8	
336.78	4638	
336.98	5534.3	
337.19	4235.9	
337.4	3471.3	
337.61	5930.9	
337.81	4640	
338.02	3217.4	
338.23	4079.6	
338.43	5687.9	
338.64	4752	
338.85	3197.6	
339.05	4142.4	
339.26	5757.5	
339.47	4554	
339.68	3204.4	
339.88	4576.5	
340.09	5244.2	
340.3	5444.2	
340.5	3650.2	
340.71	2884.2	
340.92	4610	
341.13	5640.1	
341.33	3097.9	
341.54	3707.5	
341.75	5186.8	
341.95	4866	
342.16	3543.7	
342.37	3859.1	
342.57	4631.8	
342.78	5001.8	
342.99	3902.7	
343.19	2957.3	
343.4	5349.3	
343.61	5212.8	
343.81	3395.5	
344.02	3123.2	
344.23	5419.6	
344.43	5726.1	
344.64	3917.1	
344.85	3758.7	
345.06	5195.7	
345.26	5549.3	
345.47	3639.2	
345.68	4258.4	
345.88	4521.9	
346.09	5410.1	
346.3	3686.3	
346.5	2824.8	
346.71	5045.5	
346.92	4743.8	
347.12	2997.5	
347.33	3568.2	
347.54	5472.9	
347.74	5834.7	
347.95	3642	
348.16	2721.1	
348.36	4820.9	
348.57	4618.2	
348.78	3590.1	
348.98	3835.8	
349.19	4973.2	
349.39	4571.1	
349.6	2977.1	
349.81	3238.5	
350.01	5216.9	
350.22	4700.8	
350.43	3566.9	
350.63	4118.5	
350.84	5058.5	
351.05	4847.5	
351.25	3189.4	
351.46	2891	
351.67	5447.6	
351.87	4743.1	
352.08	3398.9	
352.29	3814.7	
352.49	5388.2	
352.7	5442.8	
352.9	3042.6	
353.11	3816	
353.32	5948	
353.52	4810	
353.73	3076.7	
353.94	3907.5	
354.14	5199.1	
354.35	5025.7	
354.55	3156.6	
354.76	3476.1	
354.97	5199.8	
355.17	4968.4	
355.38	3058.3	
355.59	4005.8	
355.79	4710.3	
356	5013.4	
356.2	3453.6	
356.41	3039.2	
356.62	4477.5	
356.82	4872.1	
357.03	3640.6	
357.24	3278.1	
357.44	4697.4	
357.65	4853.7	
357.85	4312.3	
358.06	3461.7	
358.27	4481.6	
358.47	4631.1	
358.68	2927.2	
358.88	3670	
359.09	5173.9	
359.3	5416.2	
359.5	4237.2	
359.71	3732.8	
359.91	5859.9	
360.12	5231.2	
360.33	3632.4	
360.53	3969	
360.74	4700.1	
360.94	4759.5	
361.15	3775.8	
361.36	3149.8	
361.56	5326.8	
361.77	4890.5	
361.97	4130.8	
362.18	3306.1	
362.38	5326.1	
362.59	4578.6	
362.8	3072	
363	2947	
363.21	4356.7	
363.41	4934.2	
363.62	3478.8	
363.83	4297.3	
364.03	5028.4	
364.24	5721.3	
364.44	4371.7	
364.65	4376.5	
364.85	4814.1	
365.06	4529.4	
365.27	3203	
365.47	3277.4	
365.68	5638.7	
365.88	4791.6	
366.09	3484.3	
366.29	3244	
366.5	4941.7	
366.71	5328.8	
366.91	4308.2	
367.12	3656.3	
367.32	5879.7	
367.53	5172.5	
367.73	3617.4	
367.94	4446.8	
368.14	5205.3	
368.35	5876.3	
368.56	3538.2	
368.76	3363.4	
368.97	5305.6	
369.17	6649.1	
369.38	3144.3	
369.58	3405.1	
369.79	4399.7	
369.99	5499.5	
370.2	4285	
370.4	3477.5	
370.61	5024.3	
370.82	5994.4	
371.02	3346.4	
371.23	2863.7	
371.43	4447.5	
371.64	5486.5	
371.84	3429.7	
372.05	4291.2	
372.25	6482.5	
372.46	5155.4	
372.66	3409.2	
372.87	3309.5	
373.07	5240.8	
373.28	6608.1	
373.48	4222.9	
373.69	3899.3	
373.9	4819.6	
374.1	4769.7	
374.31	4115.7	
374.51	3667.9	
374.72	5394.3	
374.92	4545.8	
375.13	4188.8	
375.33	3594.2	
375.54	5026.4	
375.74	4663.2	
375.95	3603.1	
376.15	4607.2	
376.36	5081	
376.56	4902.2	
376.77	3644	
376.97	4003.8	
377.18	5926.8	
377.38	5122.7	
377.59	4201.1	
377.79	3177.8	
378	4892.6	
378.2	5258.5	
378.41	3267.9	
378.61	3177.8	
378.82	5351.3	
379.02	4625.7	
379.23	3321.1	
379.43	4206.5	
379.64	5432.6	
379.84	5020.3	
380.05	3244	
380.25	3130	
380.46	5141.1	
380.66	4775.9	
380.87	4327.4	
381.07	4577.9	
381.28	5595.1	
381.48	5113.1	
381.69	3259.7	
381.89	3263.1	
382.1	4314.4	
382.3	5204.6	
382.51	4175.1	
382.71	4790.9	
382.91	5164.3	
383.12	5521.3	
383.32	3536.2	
383.53	3706.1	
383.73	4989.5	
383.94	4900.1	
384.14	3711.6	
384.35	3010.5	
384.55	4816.8	
384.76	5154.7	
384.96	3551.9	
385.17	3841.3	
385.37	5144.5	
385.58	4602.5	
385.78	3809.2	
385.98	2987.3	
386.19	4971.8	
386.39	5048.2	
386.6	3360.7	
386.8	3555.3	
387.01	5094	
387.21	5193.6	
387.42	3919.1	
387.62	4363.5	
387.83	4599.7	
388.03	5097.4	
388.23	3566.9	
388.44	4202.4	
388.64	4366.3	
388.85	4390.8	
389.05	3759.4	
389.26	4257	
389.46	6059.9	
389.67	5444.9	
389.87	3760.8	
390.07	3816.7	
390.28	4749.2	
390.48	4494.6	
390.69	3170.9	
390.89	3415.3	
391.1	4642.1	
391.3	5333.6	
391.5	4512.4	
391.71	4852.3	
391.91	5139.7	
392.12	5855.8	
392.32	4489.8	
392.53	3786	
392.73	4689.2	
392.93	4821.6	
393.14	3544.4	
393.34	4203.1	
393.55	5224.4	
393.75	4767.7	
393.95	3580.5	
394.16	3499.3	
394.36	4653.7	
394.57	5188.9	
394.77	3121.1	
394.98	3449.5	
395.18	4556	
395.38	4732.9	
395.59	4128	
395.79	3314.3	
396	4691.9	
396.2	5027.1	
396.4	3919.1	
396.61	3865.9	
396.81	5099.4	
397.02	4507.6	
397.22	4083.6	
397.42	4131.4	
397.63	5142.4	
397.83	4424.3	
398.04	3209.8	
398.24	3551.9	
398.44	4956.8	
398.65	4164.2	
398.85	3080.1	
399.05	3132.7	
399.26	4460.5	
399.46	5818.3	
399.67	3403.7	
399.87	3235.1	
400.07	4716.5	
400.28	4965.6	
400.48	3158	
400.69	4035.9	
400.89	5089.2	
401.09	5479.7	
401.3	3142.3	
401.5	4009.2	
401.7	5644.9	
401.91	5909.1	
402.11	3491.1	
402.32	3650.8	
402.52	5167	
402.72	5134.9	
402.93	3774.4	
403.13	2990.7	
403.33	5833.3	
403.54	4762.9	
403.74	3557.3	
403.94	4361.5	
404.15	4860.5	
404.35	5810.1	
404.56	3426.3	
404.76	4910.3	
404.96	5199.1	
405.17	5065.3	
405.37	4495.3	
405.57	3831.7	
405.78	5144.5	
405.98	4772.4	
406.18	3337.5	
406.39	4108.9	
406.59	5169.8	
406.79	4837.3	
407	3168.9	
407.2	3347.7	
407.4	5238.7	
407.61	5296.7	
407.81	3282.9	
408.01	5088.5	
408.22	4269.3	
408.42	5811.5	
408.62	4024.3	
408.83	3519.8	
409.03	4679.6	
409.23	4521.9	
409.44	3532.7	
409.64	3755.3	
409.84	5253.7	
410.05	5132.9	
410.25	3627	
410.45	3439.2	
410.66	4767.7	
410.86	6739.9	
411.06	3659.7	
411.27	3555.3	
411.47	6478.4	
411.67	4840	
411.88	3702	
412.08	3887	
412.28	5290.6	
412.49	5679	
412.69	3457.7	
412.89	3447.4	
413.09	5538.4	
413.3	5435.3	
413.5	3543.7	
413.7	3229.6	
413.91	4837.3	
414.11	5453.1	
414.31	3388.7	
414.52	3640.6	
414.72	5297.4	
414.92	5031.9	
415.12	3358	
415.33	3836.5	
415.53	5369.1	
415.73	5538.4	
415.94	4035.2	
416.14	3549.1	
416.34	4664.6	
416.55	4343.7	
416.75	4534.2	
416.95	4028.4	
417.15	5335.6	
417.36	5965.7	
417.56	4653	
417.76	3820.8	
417.97	5661.3	
418.17	5331.5	
418.37	3626.3	
418.57	3555.3	
418.78	5212.8	
418.98	4929.5	
419.18	4255.7	
419.38	4235.2	
419.59	4946.5	
419.79	4756.7	
419.99	3552.5	
420.2	3786	
420.4	5360.2	
420.6	5537	
420.8	3394.8	
421.01	3335.5	
421.21	5180	
421.41	5257.8	
421.61	3713	
421.82	3519.1	
422.02	4844.8	
422.22	5629.2	
422.42	4079.6	
422.63	3949.2	
422.83	4874.2	
423.03	5882.4	
423.23	3944.4	
423.44	3117	
423.64	4965.6	
423.84	4844.8	
424.04	3495.9	
424.25	3223.5	
424.45	5793	
424.65	5739.1	
424.85	3078.8	
425.06	3528	
425.26	5813.5	
425.46	4912.4	
425.66	3921.2	
425.87	3652.2	
426.07	5532.9	
426.27	5462.6	
426.47	3815.4	
426.67	3313.6	
426.88	5870.2	
427.08	5395.7	
427.28	3939.6	
427.48	3259	
427.69	4616.1	
427.89	5073.5	
428.09	3919.1	
428.29	3305.4	
428.5	5550.7	
428.7	5255.8	
428.9	3185.3	
429.1	3619.4	
429.3	5195.7	
429.51	5393.7	
429.71	3466.5	
429.91	4021.5	
430.11	5388.2	
430.31	5468.1	
430.52	3658.4	
430.72	3808.5	
430.92	5767.1	
431.12	5359.5	
431.32	3308.2	
431.53	3676.1	
431.73	4573.8	
431.93	5834.7	
432.13	3291.1	
432.33	3146.4	
432.54	4891.2	
432.74	5113.8	
432.94	3127.2	
433.14	3992.9	
433.34	5395.7	
433.55	4909.7	
433.75	3863.2	
433.95	5298.8	
434.15	5100.1	
434.35	4811.4	
434.56	3274.7	
434.76	2852.1	
434.96	5036	
435.16	5180.7	
435.36	3087	
435.56	3969.6	
435.77	4719.9	
435.97	4894	
436.17	4521.9	
436.37	3900	
436.57	4702.1	
436.78	4612	
436.98	3893.2	
437.18	4389.5	
437.38	5052.3	
437.58	4800.4	
437.78	4565.6	
437.99	3428.3	
438.19	5341.8	
438.39	6434	
438.59	3401.7	
438.79	3052.8	
438.99	5831.2	
439.2	4852.3	
439.4	3190.7	
439.6	3054.2	
439.8	5041.4	
440	5881.8	
440.2	3813.3	
440.4	3863.2	
440.61	5317.2	
440.81	5745.2	
441.01	3145	
441.21	3753.9	
441.41	5517.9	
441.61	5257.1	
441.81	4020.8	
442.02	4833.9	
442.22	5962.3	
442.42	5332.9	
442.62	3095.2	
442.82	3220.1	
443.02	5564.3	
443.22	4823.6	
443.43	3437.9	
443.63	3062.4	
443.83	4757.4	
444.03	4752.7	
444.23	3998.3	
444.43	3695.9	
444.63	4956.1	
444.83	5925.5	
445.04	3164.1	
445.24	4151.9	
445.44	5253.7	
445.64	5285.8	
445.84	3872.7	
446.04	3838.6	
446.24	4756.1	
446.44	5588.9	
446.65	3220.8	
446.85	3483.6	
447.05	5143.8	
447.25	5564.3	
447.45	3672.7	
447.65	3118.4	
447.85	5027.1	
448.05	4790.2	
448.25	3880.9	
448.46	3751.2	
448.66	5028.4	
448.86	4793.6	
449.06	3067.2	
449.26	3846.1	
449.46	5309	
449.66	4605.9	
449.86	3399.6	
450.06	3466.5	
450.26	4676.9	
450.47	5168.4	
450.67	3717.7	
450.87	3902.7	
451.07	5291.3	
451.27	4984.8	
451.47	3125.2	
451.67	3495.9	
451.87	4726.7	
452.07	5724.8	
452.27	3272	
452.47	3313.6	
452.67	4999.8	
452.88	5337.7	
453.08	2887.6	
453.28	4337.6	
453.48	5974.6	
453.68	4982	
453.88	3158.7	
454.08	3379.8	
454.28	5169.1	
454.48	4941.7	
454.68	3767.6	
454.88	4194.2	
455.08	5292	
455.28	4939	
455.48	3073.3	
455.68	3524.6	
455.89	5646.9	
456.09	5255.8	
456.29	3277.4	
456.49	3321.1	
456.69	5394.3	
456.89	4835.3	
457.09	3634.5	
457.29	3915.7	
457.49	5071.5	
457.69	5107.6	
457.89	3405.1	
458.09	2989.4	
458.29	4805.2	
458.49	5427.8	
458.69	3744.4	
458.89	3168.2	
459.09	5489.9	
459.29	5651.7	
459.49	3378.5	
459.69	3929.4	
459.9	5201.2	
460.1	4745.1	
460.3	3290.4	
460.5	3063.8	
460.7	5143.8	
460.9	4812	
461.1	2872.6	
461.3	3749.8	
461.5	5627.1	
461.7	5285.8	
461.9	2991.4	
462.1	3464.5	
462.3	4841.4	
462.5	5229.1	
462.7	3052.2	
462.9	3069.9	
463.1	6053.8	
463.3	5672.2	
463.5	3238.5	
463.7	3870.7	
463.9	4875.5	
464.1	5126.7	
464.3	3208.5	
464.5	3403.7	
464.7	5318.6	
464.9	4956.1	
465.1	4392.9	
465.3	3627.6	
465.5	5606.7	
465.7	5524.1	
465.9	3728.7	
466.1	3798.3	
466.3	5214.1	
466.5	5255.8	
466.7	4254.3	
466.9	3468.6	
467.1	5216.2	
467.3	5868.1	
467.5	4259.1	
467.7	3292.5	
467.9	6023.1	
468.1	6690	
468.3	3906.2	
468.5	4210.6	
468.7	4984.8	
468.9	4982.7	
469.1	3523.9	
469.3	4074.1	
469.5	6497.5	
469.7	4646.8	
469.9	3956	
470.1	3239.9	
470.3	5085.1	
470.5	5026.4	
470.7	4339.6	
470.9	3414	
471.1	4824.3	
471.3	5322	
471.5	3269.9	
471.69	4844.1	
471.89	4856.4	
472.09	4480.3	
472.29	3854.3	
472.49	4311.7	
472.69	4554.7	
472.89	5256.5	
473.09	3174.4	
473.29	3389.4	
473.49	4802.5	
473.69	4890.5	
473.89	4089.8	
474.09	3508.2	
474.29	5856.5	
474.49	5662	
474.69	4048.2	
474.89	3629.7	
475.09	4874.8	
475.29	4844.8	
475.49	3222.8	
475.69	3306.1	
475.88	6265.4	
476.08	5257.1	
476.28	3069.2	
476.48	3491.8	
476.68	5603.2	
476.88	5464.7	
477.08	3433.1	
477.28	3607.2	
477.48	5145.9	
477.68	5604.6	
477.88	3200.3	
478.08	3497.2	
478.28	5806	
478.48	5134.9	
478.67	3504.8	
478.87	3155.9	
479.07	5527.5	
479.27	5239.4	
479.47	3666.5	
479.67	3689.1	
479.87	5489.9	
480.07	5861.3	
480.27	3117.7	
480.47	4455	
480.67	5171.1	
480.87	5683.1	
481.06	3321.1	
481.26	3957.4	
481.46	5203.2	
481.66	5093.3	
481.86	3715	
482.06	4500.8	
482.26	4956.1	
482.46	5718.6	
482.66	3637.2	
482.86	3351.8	
483.05	5236	
483.25	4743.8	
483.45	5650.3	
483.65	3585.3	
483.85	4794.3	
484.05	5074.2	
484.25	3953.9	
484.45	4308.2	
484.65	5630.5	
484.84	5625.1	
485.04	3505.4	
485.24	3519.8	
485.44	6010.8	
485.64	4612.7	
485.84	2933.4	
486.04	3971	
486.24	4846.2	
486.44	5225.1	
486.63	2893.8	
486.83	3505.4	
487.03	4763.6	
487.23	4830.5	
487.43	2942.2	
487.63	4755.4	
487.83	4934.2	
488.02	5755.5	
488.22	3540.3	
488.42	4012.7	
488.62	5603.9	
488.82	4693.3	
489.02	3379.8	
489.22	3319.8	
489.41	5468.1	
489.61	5212.1	
489.81	3092.4	
490.01	3168.9	
490.21	5337.7	
490.41	5919.3	
490.61	3069.2	
490.8	3274.7	
491	4993.6	
491.2	4606.6	
491.4	3736.9	
491.6	3061	
491.8	5070.1	
491.99	5162.2	
492.19	2964.8	
492.39	3167.5	
492.59	5412.8	
492.79	5477.6	
492.99	3848.8	
493.18	3050.8	
493.38	5484.5	
493.58	5920.7	
493.78	3562.1	
493.98	3272.7	
494.18	5104.9	
494.37	4659.1	
494.57	3639.9	
494.77	3439.2	
494.97	5104.9	
495.17	5312.4	
495.37	3076.7	
495.56	3366.2	
495.76	5408.7	
495.96	5175.2	
496.16	4087.1	
496.36	3203	
496.55	5277.6	
496.75	4884.4	
496.95	3489.7	
497.15	3389.4	
497.35	5248.9	
497.54	5134.9	
497.74	3236.5	
497.94	4575.8	
498.14	5767.8	
498.34	5550.7	
498.53	2941.6	
498.73	3541.6	
498.93	4622.3	
499.13	5139	
499.33	3382.6	
499.52	3748.5	
499.72	5064.6	
499.92	5251.7	
500.12	3112.2	
500.32	3280.2	
500.51	5310.4	
500.71	4990.2	
500.91	3833.8	
501.11	3560.1	
501.31	5223.7	
501.5	5570.5	
501.7	4132.1	
501.9	3307.5	
502.1	5040.1	
502.29	5347.2	
502.49	3623.5	
502.69	4094.6	
502.89	5241.4	
503.09	5229.8	
503.28	2994.1	
503.48	3076.7	
503.68	4782	
503.88	4674.1	
504.07	3820.1	
504.27	3509.5	
504.47	4988.9	
504.67	5158.8	
504.86	3830.4	
505.06	3599.6	
505.26	4866	
505.46	6216.3	
505.65	3508.9	
505.85	3749.1	
506.05	4912.4	
506.25	5266	
506.44	3107.5	
506.64	3847.5	
506.84	4876.9	
507.04	5567.7	
507.23	3295.2	
507.43	3736.9	
507.63	6404.7	
507.83	4972.5	
508.02	3765.5	
508.22	3416	
508.42	6625.2	
508.62	4780.6	
508.81	3648.1	
509.01	4034.5	
509.21	4821.6	
509.4	5031.9	
509.6	3812.6	
509.8	3302.7	
510	5016.2	
510.19	6034	
510.39	3269.9	
510.59	3340.2	
510.79	4764.9	
510.98	5812.8	
511.18	3383.9	
511.38	3492.5	
511.57	5515.9	
511.77	5292.6	
511.97	4011.3	
512.17	3282.9	
512.36	5427.1	
512.56	5434.6	
512.76	3301.3	
512.95	3117.7	
513.15	5592.3	
513.35	4472.1	
513.55	3938.9	
513.74	3282.2	
513.94	5486.5	
514.14	4986.8	
514.33	4008.6	
514.53	3736.9	
514.73	4951.3	
514.92	5017.5	
515.12	3316.3	
515.32	3203	
515.51	5057.1	
515.71	5513.1	
515.91	4551.3	
516.11	3194.1	
516.3	6400.6	
516.5	4840	
516.7	3697.9	
516.89	4098	
517.09	4887.8	
517.29	4848.2	
517.48	4071.4	
517.68	3451.5	
517.88	4670.7	
518.07	5215.5	
518.27	3778.5	
518.47	3103.4	
518.66	5643.5	
518.86	4617.5	
519.06	3026.2	
519.25	3313.6	
519.45	4800.4	
519.65	5917.9	
519.84	3824.9	
520.04	4343.1	
520.24	6240.2	
520.43	5279	
520.63	3637.9	
520.83	3441.3	
521.02	4811.4	
521.22	5283.1	
521.42	3837.9	
521.61	4341	
521.81	4906.3	
522.01	5089.9	
522.2	3787.4	
522.4	3564.1	
522.6	5442.8	
522.79	4474.8	
522.99	3551.9	
523.18	3011.9	
523.38	5130.2	
523.58	5061.9	
523.77	4362.2	
523.97	2968.2	
524.17	6505.7	
524.36	5812.8	
524.56	3898.6	
524.76	3637.9	
524.95	4872.8	
525.15	4717.8	
525.34	3359.4	
525.54	3429	
525.74	5139.7	
525.93	4440.7	
526.13	4388.1	
526.33	3256.3	
526.52	5416.9	
526.72	4909.7	
526.91	4235.9	
527.11	3599.6	
527.31	5317.2	
527.5	5588.9	
527.7	3512.3	
527.89	2774.3	
528.09	4532.2	
528.29	4881	
528.48	3794.2	
528.68	3568.2	
528.87	5186.1	
529.07	5264	
529.27	3474	
529.46	3186.6	
529.66	4932.2	
529.85	5207.3	
530.05	3017.3	
530.25	3576.4	
530.44	6034.7	
530.64	4875.5	
530.83	3263.1	
531.03	3421.5	
531.23	5246.9	
531.42	5045.5	
531.62	4022.9	
531.81	3377.1	
532.01	5233.9	
532.21	5497.4	
532.4	3083.6	
532.6	3326.6	
532.79	5948	
532.99	5154.7	
533.18	3275.4	
533.38	4181.3	
533.58	4766.3	
533.77	5321.3	
533.97	3216.7	
534.16	3866.6	
534.36	5472.9	
534.55	4698.7	
534.75	3946.4	
534.95	3333.4	
535.14	5365	
535.34	4744.5	
535.53	3015.3	
535.73	4632.5	
535.92	5804.6	
536.12	4859.1	
536.31	3095.2	
536.51	4123.9	
536.71	5202.5	
536.9	4822.3	
537.1	3308.8	
537.29	3414.6	
537.49	5520	
537.68	4707.6	
537.88	3646.7	
538.07	3091.1	
538.27	4885.8	
538.46	5668.8	
538.66	2902	
538.86	3276.1	
539.05	4949.9	
539.25	5246.2	
539.44	3442.6	
539.64	3226.2	
539.83	4838	
540.03	5539.8	
540.22	3089.7	
540.42	3341.6	
540.61	5111.7	
540.81	5074.9	
541	3700	
541.2	4095.3	
541.39	4717.2	
541.59	4952.7	
541.78	3842	
541.98	3268.6	
542.18	4535.6	
542.37	4518.5	
542.57	3590.8	
542.76	3926.6	
542.96	4689.2	
543.15	5136.3	
543.35	3659	
543.54	3112.9	
543.74	5408	
543.93	5144.5	
544.13	3670.6	
544.32	4559.5	
544.52	5388.9	
544.71	4805.9	
544.91	2938.2	
545.1	3921.9	
545.3	4830.5	
545.49	5277.6	
545.69	2977.7	
545.88	3471.3	
546.08	6104.3	
546.27	5744.6	
546.47	3834.5	
546.66	3271.3	
546.86	5524.1	
547.05	6006.7	
547.24	3495.9	
547.44	3319.1	
547.63	4793.6	
547.83	5604.6	
548.02	3627	
548.22	3824.2	
548.41	4590.2	
548.61	5717.9	
548.8	3327.9	
549	3295.2	
549.19	5242.8	
549.39	5438.7	
549.58	3125.9	
549.78	3560.1	
549.97	5416.9	
550.17	5076.2	
550.36	4407.9	
550.55	5216.9	
550.75	5065.3	
550.94	5797.1	
551.14	3377.1	
551.33	3772.4	
551.53	4579.9	
551.72	5388.2	
551.92	3691.8	
552.11	3496.6	
552.31	5485.1	
552.5	5522.7	
552.69	4924	
552.89	3243.3	
553.08	5449	
553.28	5185.5	
553.47	3548.4	
553.67	4460.5	
553.86	5982.8	
554.06	4602.5	
554.25	3025.5	
554.44	3403	
554.64	6626.5	
554.83	6179.4	
555.03	3365.5	
555.22	3715.7	
555.42	5654.4	
555.61	5399.8	
555.8	3559.4	
556	3801	
556.19	4732.2	
556.39	5801.2	
556.58	3598.3	
556.78	3670	
556.97	5360.9	
557.16	5034.6	
557.36	4614.1	
557.55	3294.5	
557.75	4644.8	
557.94	5989.6	
558.13	3491.8	
558.33	3239.9	
558.52	5765	
558.72	4883	
558.91	3343	
559.1	3607.2	
559.3	4629.8	
559.49	4553.3	
559.69	3068.5	
559.88	3813.3	
560.07	5339.7	
560.27	5730.9	
560.46	4072	
560.66	4101.4	
560.85	5209.3	
561.04	4621.6	
561.24	3343	
561.43	3492.5	
561.63	4796.3	
561.82	5069.4	
562.01	4532.8	
562.21	3751.9	
562.4	5402.5	
562.59	6034.7	
562.79	3612.6	
562.98	3379.1	
563.18	5231.9	
563.37	6404.7	
563.56	3987.4	
563.76	3280.8	
563.95	4840	
564.14	4787.5	
564.34	3549.8	
564.53	3461.7	
564.73	5239.4	
564.92	5418.9	
565.11	3727.3	
565.31	3164.1	
565.5	5681.7	
565.69	4848.9	
565.89	3435.1	
566.08	3611.3	
566.27	5498.1	
566.47	5876.3	
566.66	4135.5	
566.85	3041.9	
567.05	5229.8	
567.24	4832.5	
567.44	3260.4	
567.63	4434.5	
567.82	5430.5	
568.02	5169.1	
568.21	3234.4	
568.4	3558.7	
568.6	5072.1	
568.79	5069.4	
568.98	3182.5	
569.18	3269.9	
569.37	5049.6	
569.56	6667.5	
569.76	3571	
569.95	4299.4	
570.14	5377.3	
570.34	5214.8	
570.53	3147.7	
570.72	3189.4	
570.91	5765.7	
571.11	5019.6	
571.3	3607.8	
571.49	4272.7	
571.69	5016.2	
571.88	4743.8	
572.07	3945.8	
572.27	3978.5	
572.46	4649.6	
572.65	5509.7	
572.85	3301.3	
573.04	3572.3	
573.23	5657.2	
573.43	5125.4	
573.62	3149.1	
573.81	3561.4	
574	5096	
574.2	4885.8	
574.39	3310.9	
574.58	3510.2	
574.78	5653.8	
574.97	5100.8	
575.16	3741	
575.36	3879.5	
575.55	5307	
575.74	5503.6	
575.93	3050.1	
576.13	3832.4	
576.32	4886.5	
576.51	5319.9	
576.71	3360	
576.9	4437.9	
577.09	5606.7	
577.28	5165.7	
577.48	3713	
577.67	2979.8	
577.86	4957.4	
578.05	5185.5	
578.25	3411.2	
578.44	3476.1	
578.63	5083.7	
578.83	5969.1	
579.02	3028.3	
579.21	4175.1	
579.4	5098.8	
579.6	4893.3	
579.79	3547.1	
579.98	5324.7	
580.17	5366.4	
580.37	5481	
580.56	3166.8	
580.75	3723.9	
580.94	5816.2	
581.14	5749.3	
581.33	4061.8	
581.52	3263.8	
581.71	5257.8	
581.91	5849.7	
582.1	2989.4	
582.29	3508.9	
582.48	4969.1	
582.68	4969.7	
582.87	3824.2	
583.06	3508.9	
583.25	5265.3	
583.45	4749.2	
583.64	3988.1	
583.83	4599.1	
584.02	4891.2	
584.21	5236.7	
584.41	4062.5	
584.6	3446	
584.79	5010	
584.98	5481	
585.18	3050.1	
585.37	3085.6	
585.56	4721.9	
585.75	5269.4	
585.94	3235.8	
586.14	3753.9	
586.33	5876.3	
586.52	4958.1	
586.71	3664.5	
586.91	3455.6	
587.1	4567.7	
587.29	5438	
587.48	3500.7	
587.67	3378.5	
587.87	5393.7	
588.06	5375.9	
588.25	4453.6	
588.44	3997	
588.63	5056.4	
588.83	5592.3	
589.02	3566.9	
589.21	3506.8	
589.4	5131.5	
589.59	4993.6	
589.78	3087.7	
589.98	3346.4	
590.17	4845.5	
590.36	5251.7	
590.55	2974.3	
590.74	3707.5	
590.94	6460	
591.13	5279.7	
591.32	3405.8	
591.51	3142.9	
591.7	5611.4	
591.89	5186.8	
592.09	3188	
592.28	3576.4	
592.47	4627	
592.66	6039.5	
592.85	3136.8	
593.05	3318.4	
593.24	5134.9	
593.43	5708.4	
593.62	3328.6	
593.81	3756	
594	5129.5	
594.19	5292.6	
594.39	3317.7	
594.58	3245.3	
594.77	5378.6	
594.96	5853.8	
595.15	3310.9	
595.34	3799	
595.54	5471.5	
595.73	4735.6	
595.92	2843.3	
596.11	3757.3	
596.3	5872.9	
596.49	4819.6	
596.68	3532.1	
596.88	3876.8	
597.07	5561.6	
597.26	4689.2	
597.45	3205.1	
597.64	4143	
597.83	4839.4	
598.02	5354.1	
598.22	3272	
598.41	3778.5	
598.6	5223	
598.79	4749.9	
598.98	3302.7	
599.17	4042	
599.36	5264.6	
599.55	6148.7	
599.74	4890.5	
599.94	4649.6	
600.13	5646.2	
600.32	4758.1	
600.51	3025.5	
600.7	3266.5	
600.89	6196.5	
601.08	6211.5	
601.27	3008.5	
601.47	3723.2	
601.66	5616.2	
601.85	6109.1	
602.04	3579.8	
602.23	3835.8	
602.42	4849.6	
602.61	5390.9	
602.8	3512.3	
602.99	3377.8	
603.18	5125.4	
603.37	5344.5	
603.57	3852.2	
603.76	4360.1	
603.95	5978.7	
604.14	5535.7	
604.33	3409.9	
604.52	3626.3	
604.71	5243.5	
604.9	4939.7	
605.09	4386.1	
605.28	3953.9	
605.47	5752.7	
605.66	5459.9	
605.86	3865.2	
606.05	3371	
606.24	5750	
606.43	4672.8	
606.62	3662.5	
606.81	4345.8	
607	5686.5	
607.19	5081	
607.38	3195.5	
607.57	3390.8	
607.76	4919.9	
607.95	4483.7	
608.14	3795.6	
608.33	4261.1	
608.52	4927.4	
608.72	5633.3	
608.91	3130.7	
609.1	3080.1	
609.29	5070.1	
609.48	4749.2	
609.67	3953.3	
609.86	3231.7	
610.05	4764.3	
610.24	5035.3	
610.43	3115	
610.62	2902	
610.81	5982.1	
611	5797.8	
611.19	3215.3	
611.38	3771	
611.57	5276.3	
611.76	6283.2	
611.95	3077.4	
612.14	3041.9	
612.33	5137	
612.52	4807.9	
612.71	3482.2	
612.9	2894.5	
613.09	4512.4	
613.28	6358.3	
613.47	3463.1	
613.66	4061.1	
613.85	5234.6	
614.04	4874.8	
614.24	3349.8	
614.43	2775	
614.62	5395	
614.81	5313.1	
615	3755.3	
615.19	3748.5	
615.38	4778.6	
615.57	4982.7	
615.76	3693.2	
615.95	4465.9	
616.14	5391.6	
616.33	5104.2	
616.52	3916.4	
616.71	4054.3	
616.9	5342.5	
617.09	5158.2	
617.28	3401	
617.47	4387.4	
617.66	4657.1	
617.85	4655.7	
618.04	4015.4	
618.22	3635.8	
618.41	4803.9	
618.6	5509	
618.79	3558.7	
618.98	3288.4	
619.17	5751.4	
619.36	4477.5	
619.55	3388.7	
619.74	3476.8	
619.93	5173.9	
620.12	4603.2	
620.31	3826.3	
620.5	3962.8	
620.69	5563.6	
620.88	5879.7	
621.07	4463.9	
621.26	3660.4	
621.45	5255.8	
621.64	5205.9	
621.83	3768.3	
622.02	3100.6	
622.21	5255.8	
622.4	5055.1	
622.59	4208.6	
622.78	4005.1	
622.97	4727.4	
623.16	5537	
623.35	3732.1	
623.54	3054.9	
623.72	4894.6	
623.91	5008.6	
624.1	3842	
624.29	2937.5	
624.48	5811.5	
624.67	5332.2	
624.86	3795.6	
625.05	3090.4	
625.24	5977.3	
625.43	4730.8	
625.62	5216.2	
625.81	3249.4	
626	5510.4	
626.19	4894.6	
626.38	3788.7	
626.56	3386.7	
626.75	4724.7	
626.94	5284.4	
627.13	3855	
627.32	2941.6	
627.51	5255.8	
627.7	6281.1	
627.89	3055.6	
628.08	3902.7	
628.27	4671.4	
628.46	4872.8	
628.65	3242.6	
628.83	2968.9	
629.02	5315.8	
629.21	4758.1	
629.4	3522.5	
629.59	3728	
629.78	4661.2	
629.97	5438.7	
630.16	3710.9	
630.35	3325.2	
630.54	5810.8	
630.72	5581.4	
630.91	3323.2	
631.1	3728.7	
631.29	5079.6	
631.48	5176.6	
631.67	3867.2	
631.86	3382.6	
632.05	4834.6	
632.24	4923.3	
632.42	3162.1	
632.61	3589.4	
632.8	4991.6	
632.99	4651.6	
633.18	3586.7	
633.37	3914.4	
633.56	5074.2	
633.75	5010	
633.93	3605.8	
634.12	3362.1	
634.31	5839.4	
634.5	5423	
634.69	3343	
634.88	3806.5	
635.07	4963.6	
635.25	5468.1	
635.44	4189.5	
635.63	4271.4	
635.82	4821.6	
636.01	4432.5	
636.2	4104.8	
636.39	3736.9	
636.57	5720	
636.76	5545.9	
636.95	3246	
637.14	4414.7	
637.33	5219.6	
637.52	5885.9	
637.7	3114.3	
637.89	3928.7	
638.08	4917.9	
638.27	6042.9	
638.46	3988.1	
638.65	4270.7	
638.83	6111.8	
639.02	4803.9	
639.21	3908.2	
639.4	4270.7	
639.59	5196.4	
639.78	4838.7	
639.96	3340.2	
640.15	3400.3	
640.34	5156.1	
640.53	5191.6	
640.72	3238.5	
640.91	3463.8	
641.09	4700.1	
641.28	5739.1	
641.47	3403.7	
641.66	4087.1	
641.85	5236.7	
642.03	5492	
642.22	3906.8	
642.41	3540.9	
642.6	4799.8	
642.79	4382	
642.97	3466.5	
643.16	4026.3	
643.35	4784.7	
643.54	4717.8	
643.73	3321.8	
643.91	4013.3	
644.1	4670.1	
644.29	5107.6	
644.48	3510.2	
644.67	3525.2	
644.85	4863.2	
645.04	5143.1	
645.23	3284.9	
645.42	3494.5	
645.6	4790.9	
645.79	5731.6	
645.98	3517.7	
646.17	2863.7	
646.36	4692.6	
646.54	5120.6	
646.73	4315.8	
646.92	3318.4	
647.11	4814.8	
647.29	5776.6	
647.48	3327.3	
647.67	3217.4	
647.86	5973.2	
648.05	5930.9	
648.23	3607.8	
648.42	4702.8	
648.61	5443.5	
648.8	5175.2	
648.98	3359.4	
649.17	3674.1	
649.36	4881	
649.55	4564.9	
649.73	3398.9	
649.92	3966.9	
650.11	4788.8	
650.3	5094.7	
650.48	3478.1	
650.67	3336.8	
650.86	5313.1	
651.05	4524	
651.23	3473.4	
651.42	3472	
651.61	4903.5	
651.79	5008.6	
651.98	3645.4	
652.17	3358.7	
652.36	5325.4	
652.54	4558.8	
652.73	3424.9	
652.92	3334.8	
653.11	5369.1	
653.29	5417.6	
653.48	2957.3	
653.67	3736.2	
653.85	5146.5	
654.04	6013.5	
654.23	3871.3	
654.42	3587.4	
654.6	4952.7	
654.79	5461.2	
654.98	3241.9	
655.16	3689.8	
655.35	4673.5	
655.54	4535.6	
655.73	3317	
655.91	3271.3	
656.1	5492.7	
656.29	4546.5	
656.47	2921.8	
656.66	4263.9	
656.85	4790.2	
657.03	4794.3	
657.22	3321.1	
657.41	3330.7	
657.59	4800.4	
657.78	4644.8	
657.97	3065.8	
658.16	3579.8	
658.34	5335	
658.53	5699.5	
658.72	4345.8	
658.9	4715.1	
659.09	4913.8	
659.28	4909	
659.46	3368.9	
659.65	3306.1	
659.84	4666.6	
660.02	5134.9	
660.21	3207.1	
660.4	3195.5	
660.58	5421.7	
660.77	4964.3	
660.96	3718.4	
661.14	3018.7	
661.33	5880.4	
661.52	5762.3	
661.7	2903.3	
661.89	5849.7	
662.08	4678.2	
662.26	4251.6	
662.45	3160.7	
662.64	3319.1	
662.82	5257.8	
663.01	4576.5	
663.2	3284.3	
663.38	3891.1	
663.57	5160.9	
663.75	5072.1	
663.94	3577.1	
664.13	4491.9	
664.31	4675.5	
664.5	5253	
664.69	3891.1	
664.87	4174.4	
665.06	4532.8	
665.25	5020.3	
665.43	4364.2	
665.62	4399	
665.8	5320.6	
665.99	4781.3	
666.18	3517	
666.36	3657	
666.55	5347.9	
666.74	5207.3	
666.92	3284.3	
667.11	4642.7	
667.29	4810.7	
667.48	5267.4	
667.67	4225.6	
667.85	3525.2	
668.04	4827.7	
668.22	4722.6	
668.41	3695.2	
668.6	3844	
668.78	4623.6	
668.97	4859.8	
669.15	3900	
669.34	3094.5	
669.53	4644.8	
669.71	4955.4	
669.9	3252.2	
670.08	3832.4	
670.27	4603.2	
670.46	5169.8	
670.64	3960.1	
670.83	4119.1	
671.01	4541.7	
671.2	5061.9	
671.38	3297.2	
671.57	3269.9	
671.76	5668.1	
671.94	6046.3	
672.13	3128.6	
672.31	4054.3	
672.5	5265.3	
672.69	4672.8	
672.87	3274.7	
673.06	3508.9	
673.24	5123.3	
673.43	4722.6	
673.61	3873.4	
673.8	3530.7	
673.98	5273.5	
674.17	5393.7	
674.36	4030.4	
674.54	3912.3	
674.73	5070.1	
674.91	5260.5	
675.1	3599.6	
675.28	3365.5	
675.47	4870.8	
675.65	5297.4	
675.84	3550.5	
676.03	3831.1	
676.21	4752.7	
676.4	4347.8	
676.58	4220.9	
676.77	3995.6	
676.95	5932.3	
677.14	4720.6	
677.32	3259.7	
677.51	3199.6	
677.69	5289.9	
677.88	4540.3	
678.06	3233.7	
678.25	3357.3	
678.44	4939	
678.62	4657.8	
678.81	3070.6	
678.99	3806.5	
679.18	5580.7	
679.36	5175.2	
679.55	3487.7	
679.73	3945.8	
679.92	5181.4	
680.1	4698	
680.29	4549.2	
680.47	3519.1	
680.66	4742.4	
680.84	5380	
681.03	3044	
681.21	3862.5	
681.4	4702.8	
681.58	4609.3	
681.77	3358	
681.95	3358	
682.14	5453.1	
682.32	5730.9	
682.51	4029	
682.69	3153.9	
682.88	4669.4	
683.06	5169.8	
683.25	3818.1	
683.43	4284.4	
683.62	4921.3	
683.8	5220.3	
683.99	4320.5	
684.17	3807.2	
684.36	5968.5	
684.54	4997	
684.73	3252.2	
684.91	3361.4	
685.1	5276.3	
685.28	4852.3	
685.46	3967.6	
685.65	3998.3	
685.83	5541.8	
686.02	5001.1	
686.2	3490.4	
686.39	3581.2	
686.57	4831.8	
686.76	5972.6	
686.94	3528.7	
687.13	3659.7	
687.31	5300.1	
687.5	4965	
687.68	3156.6	
687.86	4162.8	
688.05	6367.8	
688.23	4557.4	
688.42	4189.5	
688.6	3495.2	
688.79	4774.5	
688.97	4859.8	
689.16	3801.7	
689.34	2979.8	
689.52	5377.3	
689.71	5637.4	
689.89	3958	
690.08	3525.9	
690.26	5102.9	
690.45	4879.6	
690.63	4107.5	
690.81	3574.4	
691	4937	
691.18	4762.9	
691.37	3732.8	
691.55	5581.4	
691.74	4812.7	
691.92	6470.2	
692.1	3725.3	
692.29	3291.1	
692.47	4980	
692.66	4426.3	
692.84	3440.6	
693.02	3831.1	
693.21	4483	
693.39	4923.3	
693.58	3910.9	
693.76	3450.8	
693.94	5805.3	
694.13	5577.3	
694.31	3379.1	
694.5	4263.9	
694.68	4648.9	
694.86	4919.9	
695.05	3648.8	
695.23	3992.9	
695.42	5133.6	
695.6	7019.1	
695.78	4136.9	
695.97	3428.3	
696.15	5189.6	
696.34	4799.8	
696.52	3226.2	
696.7	3924.6	
696.89	5054.4	
697.07	4605.9	
697.25	3824.9	
697.44	5034.6	
697.62	5050.3	
697.81	5344.5	
697.99	3661.8	
698.17	3977.2	
698.36	4683.7	
698.54	5147.2	
698.72	3870	
698.91	3138.2	
699.09	4780.6	
699.28	4683.7	
699.46	3661.8	
699.64	3581.9	
699.83	4668	
700.01	5667.4	
700.19	4197	
700.38	2968.9	
700.56	5539.8	
700.74	4665.3	
700.93	3209.2	
701.11	3951.9	
701.29	5132.2	
701.48	6042.2	
701.66	3369.6	
701.84	3436.5	
702.03	4718.5	
702.21	5268.7	
702.39	3070.6	
702.58	3459.7	
702.76	5127.4	
702.94	5122	
703.13	3037.8	
703.31	4982	
703.49	4619.5	
703.68	5745.9	
703.86	3226.9	
704.04	3986	
704.23	4937.7	
704.41	5264.6	
704.59	3323.9	
704.78	4339.6	
704.96	5850.4	
705.14	5231.9	
705.33	3147	
705.51	3775.1	
705.69	4760.8	
705.87	5390.9	
706.06	3979.2	
706.24	3160.7	
706.42	5060.5	
706.61	5201.8	
706.79	4078.9	
706.97	3132	
707.16	4601.8	
707.34	5092.6	
707.52	4024.9	
707.7	3338.9	
707.89	4719.9	
708.07	4474.8	
708.25	4013.3	
708.44	4056.3	
708.62	4664.6	
708.8	5575.3	
708.98	4339.6	
709.17	3435.1	
709.35	4916.5	
709.53	5031.2	
709.72	3145.7	
709.9	3583.3	
710.08	5270.8	
710.26	5283.1	
710.45	4514.4	
710.63	3431	
710.81	4969.1	
710.99	4984.1	
711.18	3973.7	
711.36	3590.1	
711.54	4900.8	
711.72	5524.7	
711.91	3747.1	
712.09	3308.8	
712.27	5055.1	
712.45	5528.8	
712.64	3959.4	
712.82	3160.7	
713	4721.9	
713.18	4837.3	
713.37	3323.2	
713.55	4425.7	
713.73	5639.4	
713.91	4613.4	
714.1	3774.4	
714.28	3401	
714.46	5545.9	
714.64	4944.5	
714.83	3125.9	
715.01	3764.2	
715.19	5141.1	
715.37	4576.5	
715.55	3566.2	
715.74	3861.8	
715.92	5887.9	
716.1	4281.6	
716.28	4820.2	
716.47	3960.1	
716.65	4919.9	
716.83	4913.1	
717.01	3853.6	
717.19	3895.9	
717.38	6649.1	
717.56	4644.8	
717.74	4128.7	
717.92	3351.8	
718.1	5604.6	
718.29	4925.4	
718.47	3036.5	
718.65	3493.8	
718.83	5429.2	
719.01	5284.4	
719.2	2869.9	
719.38	3624.2	
719.56	5094.7	
719.74	6358.3	
719.92	3361.4	
720.11	4253.6	
720.29	5144.5	
720.47	4560.8	
720.65	3163.4	
720.83	3844.7	
721.02	4870.1	
721.2	4714.4	
721.38	3956.7	
721.56	3320.4	
721.74	4366.3	
721.92	4472.8	
722.11	4321.2	
722.29	4144.4	
722.47	5469.4	
722.65	4834.6	
722.83	3341.6	
723.01	4096.6	
723.2	4883.7	
723.38	5164.3	
723.56	2927.2	
723.74	3855.6	
723.92	4508.9	
724.1	5460.6	
724.29	3291.1	
724.47	4247.5	
724.65	4648.2	
724.83	4491.2	
725.01	3267.2	
725.19	3943	
725.37	4548.5	
725.56	4524.6	
725.74	3142.3	
725.92	3304.7	
726.1	4534.9	
726.28	4771.8	
726.46	3673.4	
726.64	3432.4	
726.83	4812	
727.01	4952.7	
727.19	3100.6	
727.37	3788.7	
727.55	4948.6	
727.73	5266.7	
727.91	3121.1	
728.09	3036.5	
728.28	5275.6	
728.46	5685.8	
728.64	3844	
728.82	3803.8	
729	6065.4	
729.18	5467.4	
729.36	3112.9	
729.54	5054.4	
729.72	6337.1	
729.91	4838	
730.09	4666	
730.27	3583.3	
730.45	4745.1	
730.63	5216.2	
730.81	4031.8	
730.99	3280.8	
731.17	5658.5	
731.35	4582	
731.53	3691.1	
731.71	3444	
731.9	5414.8	
732.08	5581.4	
732.26	3654.9	
732.44	3322.5	
732.62	5626.5	
732.8	5208.7	
732.98	4022.2	
733.16	3220.8	
733.34	5268.1	
733.52	4300.7	
733.7	3645.4	
733.88	3848.1	
734.07	5107	
734.25	4925.4	
734.43	3146.4	
734.61	4513	
734.79	6155.5	
734.97	4810.7	
735.15	3297.9	
735.33	3597.6	
735.51	5158.8	
735.69	4818.9	
735.87	4871.4	
736.05	3768.9	
736.23	4832.5	
736.41	4767.7	
736.59	3615.3	
736.77	3718.4	
736.95	5315.8	
737.13	4862.6	
737.32	3356.6	
737.5	3490.4	
737.68	5754.1	
737.86	4799.1	
738.04	3207.8	
738.22	4771.1	
738.4	4705.5	
738.58	4955.4	
738.76	3673.4	
738.94	2959.3	
739.12	4752	
739.3	4705.5	
739.48	4220.2	
739.66	3958.7	
739.84	4984.1	
740.02	4957.4	
740.2	3055.6	
740.38	3237.2	
740.56	5261.9	
740.74	4382.7	
740.92	3768.3	
741.1	3721.8	
741.28	4869.4	
741.46	4663.2	
741.64	3532.7	
741.82	3891.8	
742	4923.3	
742.18	4835.3	
742.36	3676.1	
742.54	3319.1	
742.72	5347.9	
742.9	4374.5	
743.08	3919.1	
743.26	3007.1	
743.44	5536.3	
743.62	5347.2	
743.8	4091.2	
743.98	3329.3	
744.16	5150.6	
744.34	4894	
744.52	3969.6	
744.7	3993.5	
744.88	5292.6	
745.06	4883	
745.24	4099.4	
745.42	4184.7	
745.6	5426.4	
745.78	5256.5	
745.96	3179.1	
746.14	3437.2	
746.32	6075.6	
746.5	5408	
746.68	3880.2	
746.86	3461.1	
747.03	5726.8	
747.21	4529.4	
747.39	3926.6	
747.57	3495.2	
747.75	5099.4	
747.93	5444.9	
748.11	3434.4	
748.29	3394.8	
748.47	6513.2	
748.65	4900.8	
748.83	4009.2	
749.01	3788.1	
749.19	5225.1	
749.37	4550.6	
749.55	3728.7	
749.73	3835.2	
749.91	5031.2	
750.09	4839.4	
750.26	3869.3	
750.44	3344.3	
750.62	5068	
750.8	5031.9	
750.98	3265.1	
751.16	3485.6	
751.34	5149.3	
751.52	4602.5	
751.7	4190.1	
751.88	3270.6	
752.06	5570.5	
752.24	5313.8	
752.42	3176.4	
752.59	3519.1	
752.77	5055.1	
752.95	6029.2	
753.13	4145.1	
753.31	3652.9	
753.49	4826.4	
753.67	5154.1	
753.85	3897.3	
754.03	3536.8	
754.21	5429.2	
754.38	5720.7	
754.56	3719.8	
754.74	2994.1	
754.92	4848.2	
755.1	5474.9	
755.28	3066.5	
755.46	3203.7	
755.64	6281.8	
755.82	6444.3	
755.99	3553.9	
756.17	3700.7	
756.35	4455.7	
756.53	5765	
756.71	2841.2	
756.89	3579.2	
757.07	5382.7	
757.25	4706.9	
757.42	4001	
757.6	4697.4	
757.78	5392.3	
757.96	4565.6	
758.14	3669.3	
758.32	3262.4	
758.5	4270.7	
758.67	4885.8	
758.85	3578.5	
759.03	3642	
759.21	5099.4	
759.39	4588.8	
759.57	3194.8	
759.75	4156.7	
759.92	5574.6	
760.1	5014.8	
760.28	4399.7	
760.46	4652.3	
760.64	4795	
760.82	4530.8	
760.99	4247.5	
761.17	3543.7	
761.35	5384.1	
761.53	4582.7	
761.71	3650.8	
761.89	4215.4	
762.06	5280.3	
762.24	4806.6	
762.42	3650.8	
762.6	3456.3	
762.78	4784.1	
762.96	5295.4	
763.13	3928.7	
763.31	3577.1	
763.49	5448.3	
763.67	4775.9	
763.85	4312.3	
764.02	4851.6	
764.2	5666.7	
764.38	4941.7	
764.56	3549.8	
764.74	4341	
764.91	5778	
765.09	4760.8	
765.27	3306.8	
765.45	3144.3	
765.63	5789.6	
765.8	5640.1	
765.98	2994.8	
766.16	3231.7	
766.34	4589.5	
766.52	4346.5	
766.69	3958.7	
766.87	3120.4	
767.05	4894	
767.23	5552	
767.41	3336.1	
767.58	3592.1	
767.76	5408.7	
767.94	5449	
768.12	3458.3	
768.29	4078.9	
768.47	4928.8	
768.65	5587.5	
768.83	3190.7	
769	4128.7	
769.18	4639.3	
769.36	5167	
769.54	4218.8	
769.72	3240.6	
769.89	5511.8	
770.07	5498.1	
770.25	3508.9	
770.43	4579.9	
770.6	6145.3	
770.78	6498.9	
770.96	3687	
771.14	4203.1	
771.31	5452.4	
771.49	4935.6	
771.67	3017.3	
771.85	3220.1	
772.02	4318.5	
772.2	4885.8	
772.38	3800.3	
772.55	3407.1	
772.73	5165	
772.91	4967	
773.09	3745.1	
773.26	3874.1	
773.44	5146.5	
773.62	4821.6	
773.8	3352.5	
773.97	3154.6	
774.15	5199.8	
774.33	4838.7	
774.5	3282.9	
774.68	3560.1	
774.86	5310.4	
775.04	4888.5	
775.21	3323.2	
775.39	3403	
775.57	5134.9	
775.74	5390.3	
775.92	3239.9	
776.1	3152.5	
776.27	5140.4	
776.45	6190.3	
776.63	3362.8	
776.81	3009.8	
776.98	4877.6	
777.16	5710.4	
777.34	3551.2	
777.51	3729.4	
777.69	4888.5	
777.87	4632.5	
778.04	3620.8	
778.22	4082.3	
778.4	4722.6	
778.57	5343.8	
778.75	3001	
778.93	3192.1	
779.1	4556	
779.28	4430.4	
779.46	3016.7	
779.64	3409.9	
779.81	5444.9	
779.99	6156.2	
780.17	4061.1	
780.34	4235.9	
780.52	4938.3	
780.69	5098.1	
780.87	3669.3	
781.05	3312.2	
781.22	5038.7	
781.4	5102.9	
781.58	3475.4	
781.75	2793.4	
781.93	5105.6	
782.11	4529.4	
782.28	4257	
782.46	3432.4	
782.64	4459.8	
782.81	5238	
782.99	3566.2	
783.17	3504.8	
783.34	5129.5	
783.52	4529.4	
783.69	3680.2	
783.87	4373.8	
784.05	4560.8	
784.22	4548.5	
784.4	4360.8	
784.58	3815.4	
784.75	5383.4	
784.93	4662.5	
785.1	3467.9	
785.28	4072.7	
785.46	5194.3	
785.63	4573.8	
785.81	3503.4	
785.99	3359.4	
786.16	4768.4	
786.34	5086.5	
786.51	3407.8	
786.69	3740.3	
786.87	4392.9	
787.04	4812	
787.22	3280.2	
787.39	4110.3	
787.57	4618.2	
787.75	5477	
787.92	4267.3	
788.1	4188.8	
788.27	4660.5	
788.45	4382	
788.63	3921.2	
788.8	2897.9	
788.98	4979.3	
789.15	4317.8	
789.33	3014.6	
789.5	3515.7	
789.68	5404.6	
789.86	5504.3	
790.03	3873.4	
790.21	3424.9	
790.38	5370.5	
790.56	4769.7	
790.73	3293.1	
790.91	3354.6	
791.09	4635.2	
791.26	5232.6	
791.44	3540.9	
791.61	3053.5	
791.79	4613.4	
791.96	4684.4	
792.14	3141.6	
792.32	2803	
792.49	4588.8	
792.67	4739.7	
792.84	3205.1	
793.02	3050.8	
793.19	5042.1	
793.37	5655.1	
793.54	2844.6	
793.72	3185.3	
793.89	5679	
794.07	4646.2	
794.25	3510.9	
794.42	2922.5	
794.6	5503.6	
794.77	5194.3	
794.95	3920.5	
795.12	3371.6	
795.3	4621.6	
795.47	5162.2	
795.65	3753.9	
795.82	3578.5	
796	4530.8	
796.17	6139.1	
796.35	3413.3	
796.52	4120.5	
796.7	5106.3	
796.87	5253	
797.05	3484.3	
797.22	4227	
797.4	5222.3	
797.57	5993	
797.75	3637.9	
797.92	3407.1	
798.1	5431.9	
798.27	4575.2	
798.45	2927.2	
798.62	3190.1	
798.8	4913.8	
798.97	5304.2	
799.15	3813.3	
799.32	3650.8	
799.5	4277.5	
799.67	4980.7	
799.85	3928.7	
800.02	2865.8	
800.2	4652.3	
800.37	4917.2	
800.55	4021.5	
800.72	3373	
800.9	5321.3	
801.07	5744.6	
801.25	4552.6	
801.42	3746.4	
801.6	5341.1	
801.77	5038.7	
801.95	3447.4	
802.12	3366.2	
802.29	5111.7	
802.47	5051.7	
802.64	3736.2	
802.82	2813.2	
802.99	4661.9	
803.17	5518.6	
803.34	3630.4	
803.52	3264.5	
803.69	6016.2	
803.87	4476.9	
804.04	3624.2	
804.21	3652.2	
804.39	5576.6	
804.56	4829.8	
804.74	3096.5	
804.91	3774.4	
805.09	4663.9	
805.26	4747.9	
805.44	3186	
805.61	3450.8	
805.78	5295.4	
805.96	5291.3	
806.13	3695.9	
806.31	4000.4	
806.48	4235.9	
806.66	4720.6	
806.83	3736.2	
807	3668.6	
807.18	4639.3	
807.35	4967.7	
807.53	3687	
807.7	3061.7	
807.87	5745.2	
808.05	4663.2	
808.22	4018.8	
808.4	2943.6	
808.57	4691.9	
808.74	4389.5	
808.92	3377.8	
809.09	4221.5	
809.27	4644.1	
809.44	5177.3	
809.61	2994.8	
809.79	3310.9	
809.96	5712.5	
810.14	5406	
810.31	2908.8	
810.48	3540.9	
810.66	4728.1	
810.83	5397.8	
811.01	3375.7	
811.18	3743.7	
811.35	5371.1	
811.53	4185.4	
811.7	4047.5	
811.87	3818.1	
812.05	4738.3	
812.22	4625	
812.39	3233.1	
812.57	3158	
812.74	4744.5	
812.92	6169.8	
813.09	3511.6	
813.26	3847.5	
813.44	5941.8	
813.61	4577.9	
813.78	2975	
813.96	3932.1	
814.13	4705.5	
814.3	4412	
814.48	4304.8	
814.65	3515.7	
814.82	5953.4	
815	4504.2	
815.17	3649.5	
815.34	4409.3	
815.52	4650.3	
815.69	4605.9	
815.87	3570.3	
816.04	3561.4	
816.21	4644.8	
816.38	4202.4	
816.56	3459	
816.73	3223.5	
816.9	5882.4	
817.08	5374.6	
817.25	3333.4	
817.42	4099.4	
817.6	4297.3	
817.77	4777.2	
817.94	3677.5	
818.12	3215.3	
818.29	4518.5	
818.46	6746	
818.64	3433.1	
818.81	3138.2	
818.98	4440	
819.16	6248.4	
819.33	3934.8	
819.5	3637.9	
819.67	5068.7	
819.85	5562.3	
820.02	3525.9	
820.19	3710.2	
820.37	4859.1	
820.54	4542.4	
820.71	3648.1	
820.88	4578.6	
821.06	4860.5	
821.23	4481.6	
821.4	3671.3	
821.58	3664.5	
821.75	5330.2	
821.92	4853	
822.09	3039.9	
822.27	3090.4	
822.44	4695.3	
822.61	4611.3	
822.79	3052.2	
822.96	5637.4	
823.13	5061.2	
823.3	4496.7	
823.48	3448.8	
823.65	3092.4	
823.82	5331.5	
823.99	4342.4	
824.17	4309.6	
824.34	3155.9	
824.51	6057.2	
824.68	4747.9	
824.86	3317	
825.03	3672.7	
825.2	4696	
825.37	5678.3	
825.55	3253.5	
825.72	3611.9	
825.89	6115.2	
826.06	5686.5	
826.24	3578.5	
826.41	3560.7	
826.58	5691.3	
826.75	4972.5	
826.92	2864.4	
827.1	3143.6	
827.27	7566.6	
827.44	6115.9	
827.61	3334.1	
827.79	4070	
827.96	4536.3	
828.13	4786.1	
828.3	3506.1	
828.47	3003.7	
828.65	4960.9	
828.82	4937	
828.99	4429.1	
829.16	3928	
829.34	5239.4	
829.51	5071.5	
829.68	3690.4	
829.85	3739.6	
830.02	5591.6	
830.2	5294.7	
830.37	2780.5	
830.54	4366.3	
830.71	5997.1	
830.88	4666.6	
831.05	2899.9	
831.23	3321.1	
831.4	5776	
831.57	6368.5	
831.74	3343.7	
831.91	2955.2	
832.09	5029.1	
832.26	5272.8	
832.43	3521.8	
832.6	3855	
832.77	4979.3	
832.94	5623.7	
833.12	2852.1	
833.29	3441.3	
833.46	4930.8	
833.63	6535.1	
833.8	3763.5	
833.97	3484.3	
834.15	5354.8	
834.32	5046.9	
834.49	3612.6	
834.66	3737.5	
834.83	5421.7	
835	4535.6	
835.17	3464.5	
835.35	3355.3	
835.52	5208.7	
835.69	5094	
835.86	3545.7	
836.03	2948.4	
836.2	5258.5	
836.37	4926.7	
836.55	3476.8	
836.72	3289.7	
836.89	4949.3	
837.06	5332.9	
837.23	3500	
837.4	3844	
837.57	5974.6	
837.75	6535.8	
837.92	3170.3	
838.09	3378.5	
838.26	4868	
838.43	5470.8	
838.6	3662.5	
838.77	3246.7	
838.94	6204.7	
839.11	5996.5	
839.29	3563.5	
839.46	2752.5	
839.63	5319.3	
839.8	5070.8	
839.97	3368.2	
840.14	3379.8	
840.31	5035.3	
840.48	5309.7	
840.65	2817.3	
840.82	3287.7	
841	5272.2	
841.17	5149.3	
841.34	3132.7	
841.51	3220.1	
841.68	5217.5	
841.85	4999.8	
842.02	3288.4	
842.19	2696.5	
842.36	5096.7	
842.53	5042.1	
842.7	3121.1	
842.87	3758	
843.05	6515.3	
843.22	4996.4	
843.39	2924.5	
843.56	3302.7	
843.73	4892.6	
843.9	5399.8	
844.07	4999.1	
844.24	4113.7	
844.41	7413.6	
844.58	4617.5	
844.75	3036.5	
844.92	3277.4	
845.09	5240.1	
845.26	5268.1	
845.43	3074	
845.6	3260.4	
845.77	5240.8	
845.94	5000.5	
846.12	3414	
846.29	3591.5	
846.46	5470.8	
846.63	5219.6	
846.8	3115.6	
846.97	3656.3	
847.14	5650.3	
847.31	5255.8	
847.48	3561.4	
847.65	3831.7	
847.82	5507.7	
847.99	5453.1	
848.16	4109.6	
848.33	3842	
848.5	4885.1	
848.67	5660.6	
848.84	3143.6	
849.01	3166.8	
849.18	4810.7	
849.35	4517.8	
849.52	3884.3	
849.69	3059.7	
849.86	5433.9	
850.03	5578.7	
850.2	3139.5	
850.37	3798.3	
850.54	5544.5	
850.71	4943.1	
850.88	3768.3	
851.05	3047.4	
851.22	5165	
851.39	5715.2	
851.56	2914.9	
851.73	3551.9	
851.9	4626.4	
852.07	5425.1	
852.24	3442	
852.41	3092.4	
852.58	5094.7	
852.75	4676.9	
852.92	3477.5	
853.09	3091.8	
853.26	4857.1	
853.43	5640.1	
853.6	3136.8	
853.77	2707.4	
853.94	5685.8	
854.11	5218.2	
854.28	4571.1	
854.44	3330.7	
854.61	6062	
854.78	5557.5	
854.95	3055.6	
855.12	3868.6	
855.29	4287.1	
855.46	5958.9	
855.63	3097.9	
855.8	4275.5	
855.97	4800.4	
856.14	5589.6	
856.31	4379.9	
856.48	3380.5	
856.65	4856.4	
856.82	4620.9	
856.99	2962.7	
857.16	3362.8	
857.33	6267.5	
857.49	4965.6	
857.66	3334.8	
857.83	3546.4	
858	4900.8	
858.17	5121.3	
858.34	2936.8	
858.51	3128.6	
858.68	5883.1	
858.85	5883.8	
859.02	3567.6	
859.19	3818.8	
859.36	4659.8	
859.52	4652.3	
859.69	3074	
859.86	3629	
860.03	4703.5	
860.2	5760.9	
860.37	2857.6	
860.54	3142.3	
860.71	5390.9	
860.88	5808.7	
861.05	3457	
861.21	3919.1	
861.38	5734.3	
861.55	4526.7	
861.72	2853.5	
861.89	3448.8	
862.06	5498.8	
862.23	5878.4	
862.4	3005.7	
862.56	3247.4	
862.73	5357.5	
862.9	5029.8	
863.07	3637.2	
863.24	2852.8	
863.41	4577.2	
863.58	4712.4	
863.75	3181.2	
863.91	3597.6	
864.08	5739.8	
864.25	5395.7	
864.42	3878.2	
864.59	4261.8	
864.76	5995.8	
864.93	4687.8	
865.09	3050.1	
865.26	3302.7	
865.43	5726.8	
865.6	5978.7	
865.77	2716.3	
865.94	3084.2	
866.1	5692	
866.27	5409.4	
866.44	4644.8	
866.61	2955.9	
866.78	4958.8	
866.95	5354.1	
867.11	3023.5	
867.28	2763.4	
867.45	5585.5	
867.62	4709.6	
867.79	3579.8	
867.96	3108.1	
868.12	4681	
868.29	5484.5	
868.46	2757.2	
868.63	4093.2	
868.8	5614.2	
868.97	5414.1	
869.13	3252.9	
869.3	3220.8	
869.47	5313.8	
869.64	5543.9	
869.81	3109.5	
869.97	3119.1	
870.14	5186.1	
870.31	5790.3	
870.48	3020.1	
870.65	3956.7	
870.81	4913.1	
870.98	5037.3	
871.15	3515	
871.32	3273.3	
871.48	5340.4	
871.65	5854.5	
871.82	3076	
871.99	3403.7	
872.16	6247	
872.32	5690.6	
872.49	3117.7	
872.66	3160	
872.83	5452.4	
872.99	4857.1	
873.16	3523.9	
873.33	3116.3	
873.5	5096	
873.67	5146.5	
873.83	3252.2	
874	4119.1	
874.17	5144.5	
874.34	6160.3	
874.5	3999.7	
874.67	3830.4	
874.84	5722	
875.01	4528.7	
875.17	4296	
875.34	3102	
875.51	5139	
875.68	6180.1	
875.84	3758.7	
876.01	4453.6	
876.18	5457.2	
876.34	5375.2	
876.51	3098.6	
876.68	3035.8	
876.85	4957.4	
877.01	5662	
877.18	4414.7	
877.35	3080.1	
877.52	5126.1	
877.68	4597	
877.85	3077.4	
878.02	3031	
878.18	5055.1	
878.35	4813.4	
878.52	2533.3	
878.69	3452.2	
878.85	5509.7	
879.02	5392.3	
879.19	4355.3	
879.35	3338.2	
879.52	5432.6	
879.69	5580.7	
879.86	2741.5	
880.02	3467.2	
880.19	5042.8	
880.36	6100.9	
880.52	3538.2	
880.69	3651.5	
880.86	5533.6	
881.02	5565.7	
881.19	3434.4	
881.36	3327.9	
881.52	5392.3	
881.69	4773.1	
881.86	3349.8	
882.02	3314.3	
882.19	5621.7	
882.36	6542.6	
882.52	3220.1	
882.69	4313	
882.86	5201.8	
883.02	5192.3	
883.19	3711.6	
883.36	3571	
883.52	5499.5	
883.69	6182.1	
883.86	3123.2	
884.02	2813.2	
884.19	5457.8	
884.36	5081.7	
884.52	3525.2	
884.69	3328.6	
884.86	4813.4	
885.02	5988.3	
885.19	3445.4	
885.36	3590.8	
885.52	5085.8	
885.69	5202.5	
885.86	4485.7	
886.02	3956	
886.19	5471.5	
886.35	4831.8	
886.52	3412.6	
886.69	4257.7	
886.85	4657.8	
887.02	5757.5	
887.19	5757.5	
887.35	5757.5	
887.52	5757.5	
887.68	5757.5	
887.85	5757.5	
888.02	5757.5	
888.18	5757.5	
888.35	5757.5	
888.51	5757.5	
888.68	5757.5	
888.85	5757.5	
889.01	5757.5	
889.18	5757.5	
889.35	5757.5	
889.51	5757.5	
889.68	5757.5	
889.84	5757.5	
890.01	5757.5	
890.17	5757.5	
890.34	5757.5	
890.51	5757.5	
890.67	5757.5	
890.84	5757.5	
891	5757.5	
891.17	5757.5	
891.34	5757.5	
891.5	5757.5	
891.67	5757.5	
891.83	5757.5	
892	5757.5	
892.16	5757.5	
892.33	5757.5	
892.5	5757.5	
892.66	5757.5	
892.83	5757.5	
892.99	5757.5	
893.16	5757.5	
893.32	5757.5	
893.49	5757.5	
893.65	5757.5	
893.82	5757.5	
893.99	5757.5	
894.15	5757.5	
894.32	5757.5	
894.48	5757.5	
894.65	5757.5	
894.81	5757.5	
894.98	5757.5	
895.14	5757.5	
895.31	5757.5	
895.47	5757.5	
895.64	5757.5	
895.81	5757.5	
895.97	5757.5	
896.14	5757.5	
896.3	5757.5	
896.47	5757.5	
896.63	5757.5	
896.8	5757.5	
896.96	5757.5	
897.13	5757.5	
897.29	5757.5	
897.46	5757.5	
897.62	5757.5	
897.79	5757.5	
897.95	5757.5	
898.12	5757.5	
898.28	5757.5	
898.45	5757.5	
898.61	5757.5	
898.78	5757.5	
898.94	5757.5	
899.11	5757.5	
899.27	5757.5	
899.44	5757.5	
899.6	5757.5	
899.77	5757.5	
899.93	5757.5	
900.1	5757.5	
900.26	5757.5	
900.43	5757.5	
900.59	5757.5	
900.76	5757.5	
900.92	5757.5	
901.09	5757.5	
901.25	5757.5	
901.42	5757.5	
901.58	5757.5	
901.75	5757.5	
901.91	5757.5	
902.07	5757.5	
902.24	5757.5	
902.4	5757.5	
902.57	5757.5	
902.73	5757.5	
902.9	5757.5	
903.06	5757.5	
903.23	5757.5	
903.39	5757.5	
903.56	5757.5	
903.72	5757.5	
903.88	5757.5	
904.05	5757.5	
904.21	5757.5	
904.38	5757.5	
904.54	5757.5	
904.71	5757.5	
904.87	5757.5	
905.03	5757.5	
905.2	5757.5	
905.36	5757.5	
905.53	5757.5	
905.69	5757.5	
905.86	5757.5	
906.02	5757.5	
906.18	5757.5	
906.35	5757.5	
906.51	5757.5	
906.68	5757.5	
906.84	5757.5	
907.01	5757.5	
907.17	5757.5	
907.33	5757.5	
907.5	5757.5	
907.66	5757.5	
907.83	5757.5	
907.99	5757.5	
908.15	5757.5	
908.32	5757.5	
908.48	5757.5	
908.65	5757.5	
908.81	5757.5	
908.97	5757.5	
909.14	5757.5	
909.3	5757.5	
909.47	5757.5	
909.63	5757.5	
909.79	5757.5	
909.96	5757.5	
910.12	5757.5	
910.28	5757.5	
910.45	5757.5	
910.61	5757.5	
910.78	5757.5	
910.94	5757.5	
911.1	5757.5	
911.27	5757.5	
911.43	5757.5	
911.59	5757.5	
911.76	5757.5	
911.92	5757.5	
912.08	5757.5	
912.25	5757.5	
912.41	5757.5	
912.57	5757.5	
912.74	5757.5	
912.9	5757.5	
913.07	5757.5	
913.23	5757.5	
913.39	5757.5	
913.56	5757.5	
913.72	5757.5	
913.88	5757.5	
914.05	5757.5	
914.21	5757.5	
914.37	5757.5	
914.54	5757.5	
914.7	5757.5	
914.86	5757.5	
915.03	5757.5	
915.19	5757.5	
