Wavelength	Intensities	
nm	a.u.	
179.22	1900.7	
179.44	1902.2	
179.65	1899.1	
179.86	1905.3	
180.08	1920.3	
180.29	4948.6	
180.51	3532.1	
180.72	5648.3	
180.94	6639.5	
181.15	3261	
181.37	3149.8	
181.58	5490.6	
181.79	5823.7	
182.01	3391.4	
182.22	3630.4	
182.44	5736.4	
182.65	4836.6	
182.87	4574.5	
183.08	3994.9	
183.29	6051.1	
183.51	5020.3	
183.72	3676.1	
183.94	5358.9	
184.15	5399.8	
184.37	5469.4	
184.58	3181.9	
184.79	4492.6	
185.01	4984.8	
185.22	5748.6	
185.44	4768.4	
185.65	3938.2	
185.86	5310.4	
186.08	4924.7	
186.29	3087	
186.51	3379.1	
186.72	5018.2	
186.94	5995.8	
187.15	3860.4	
187.36	4013.3	
187.58	7741.3	
187.79	5490.6	
188.01	4151.9	
188.22	6602	
188.43	6603.3	
188.65	5727.5	
188.86	3308.2	
189.08	4019.5	
189.29	5242.8	
189.5	5272.2	
189.72	3719.1	
189.93	3814	
190.15	5970.5	
190.36	7188.4	
190.57	4145.8	
190.79	4009.9	
191	6092.7	
191.22	5988.3	
191.43	4134.2	
191.64	3365.5	
191.86	6234	
192.07	6066.1	
192.29	3536.8	
192.5	3771	
192.71	5965.1	
192.93	5134.9	
193.14	3670	
193.35	3782.6	
193.57	5218.9	
193.78	5976.7	
194	3005.7	
194.21	3710.2	
194.42	4952.7	
194.64	5477.6	
194.85	4072	
195.07	4750.6	
195.28	5464	
195.49	4698	
195.71	4976.6	
195.92	3467.2	
196.13	5646.9	
196.35	5717.9	
196.56	5370.5	
196.78	4009.9	
196.99	7106.5	
197.2	6634.7	
197.42	4624.3	
197.63	4047.5	
197.84	4849.6	
198.06	5606	
198.27	3725.3	
198.48	5014.8	
198.7	5192.3	
198.91	5301.5	
199.13	4077.5	
199.34	4079.6	
199.55	5820.3	
199.77	4702.8	
199.98	3617.4	
200.19	4151.2	
200.41	5339.7	
200.62	5004.6	
200.83	4276.8	
201.05	4603.8	
201.26	5331.5	
201.47	5061.2	
201.69	3639.9	
201.9	3446.7	
202.11	5436.7	
202.33	6414.2	
202.54	3844	
202.76	4320.5	
202.97	5545.2	
203.18	5509	
203.4	4229.1	
203.61	4152.6	
203.82	5516.5	
204.04	5147.2	
204.25	4179.9	
204.46	4007.9	
204.68	5452.4	
204.89	5656.5	
205.1	3968.3	
205.32	3446.7	
205.53	5902.2	
205.74	5975.3	
205.96	2932.7	
206.17	4188.8	
206.38	5754.1	
206.6	5951.4	
206.81	4680.3	
207.02	3810.6	
207.24	5705.6	
207.45	6094.8	
207.66	3876.1	
207.88	3290.4	
208.09	5672.2	
208.3	5437.4	
208.52	3543.7	
208.73	3890.5	
208.94	5481.7	
209.15	6132.3	
209.37	3843.4	
209.58	4052.9	
209.79	6023.8	
210.01	5218.2	
210.22	3102.7	
210.43	3248.8	
210.65	5401.2	
210.86	5913.9	
211.07	3893.2	
211.29	3575.1	
211.5	5817.6	
211.71	5380.7	
211.93	3551.9	
212.14	3552.5	
212.35	5313.1	
212.56	5571.8	
212.78	4147.1	
212.99	3348.4	
213.2	6416.3	
213.42	5173.9	
213.63	3667.9	
213.84	3936.2	
214.06	4825	
214.27	4934.9	
214.48	3854.3	
214.69	4097.3	
214.91	6108.4	
215.12	6165.8	
215.33	4222.2	
215.55	4670.7	
215.76	6637.5	
215.97	5824.4	
216.18	3950.5	
216.4	3885	
216.61	5122	
216.82	5887.2	
217.04	3573.7	
217.25	3779.2	
217.46	6098.2	
217.67	5784.8	
217.89	3209.8	
218.1	3299.3	
218.31	5545.9	
218.53	5612.8	
218.74	3738.9	
218.95	3625.6	
219.16	5347.2	
219.38	6370.5	
219.59	3667.9	
219.8	4281.6	
220.01	7068.9	
220.23	5449.6	
220.44	4803.9	
220.65	3515	
220.87	5498.8	
221.08	6107	
221.29	3295.9	
221.5	4409.3	
221.72	7417.7	
221.93	5138.4	
222.14	4070.7	
222.35	4833.2	
222.57	5505.6	
222.78	5858.6	
222.99	3894.6	
223.2	4207.9	
223.42	5752.7	
223.63	5872.2	
223.84	2947	
224.05	2942.9	
224.27	6903.7	
224.48	6303	
224.69	4845.5	
224.9	4074.1	
225.12	5596.4	
225.33	5373.9	
225.54	3234.4	
225.75	3649.5	
225.97	4954	
226.18	5297.4	
226.39	3927.3	
226.6	3652.9	
226.82	5222.3	
227.03	4969.1	
227.24	4076.8	
227.45	3383.9	
227.67	5780.7	
227.88	6395.8	
228.09	4547.9	
228.3	4606.6	
228.52	5866.7	
228.73	5374.6	
228.94	3841.3	
229.15	3371	
229.36	5370.5	
229.58	5285.1	
229.79	3720.5	
230	4493.2	
230.21	6499.6	
230.43	5595.7	
230.64	4059.1	
230.85	4244.8	
231.06	5761.6	
231.28	5866.7	
231.49	3322.5	
231.7	3969.6	
231.91	5713.8	
232.12	5428.5	
232.34	3465.8	
232.55	3934.1	
232.76	6041.5	
232.97	5619.6	
233.18	3529.3	
233.4	4058.4	
233.61	5662.6	
233.82	5162.2	
234.03	3730.7	
234.25	3703.4	
234.46	7584.3	
234.67	5505.6	
234.88	4162.8	
235.09	3591.5	
235.31	5766.4	
235.52	5340.4	
235.73	4070.7	
235.94	3416	
236.15	5138.4	
236.37	6540.5	
236.58	3599	
236.79	3863.8	
237	5743.9	
237.21	4954.7	
237.43	4169.7	
237.64	3287.7	
237.85	9947.7	
238.06	4982	
238.27	4285.7	
238.48	3433.1	
238.7	5765.7	
238.91	5221	
239.12	3885.7	
239.33	3966.2	
239.54	5009.3	
239.76	5309	
239.97	3859.7	
240.18	3951.9	
240.39	6796.5	
240.6	5748	
240.82	4063.2	
241.03	3364.8	
241.24	5375.9	
241.45	6295.5	
241.66	3536.8	
241.87	4246.1	
242.09	6186.9	
242.3	6550.1	
242.51	4245.4	
242.72	3951.9	
242.93	5924.1	
243.14	5365	
243.36	4569	
243.57	4917.9	
243.78	6277	
243.99	5692.7	
244.2	3962.8	
244.41	3558.7	
244.63	5002.5	
244.84	5743.9	
245.05	4168.3	
245.26	3966.9	
245.47	5641.5	
245.68	5994.4	
245.9	5240.8	
246.11	4124.6	
246.32	5241.4	
246.53	5706.3	
246.74	6367.1	
246.95	3254.9	
247.16	4885.8	
247.38	5434.6	
247.59	3267.2	
247.8	3926	
248.01	5100.8	
248.22	5403.9	
248.43	3565.5	
248.64	3807.2	
248.86	4816.1	
249.07	5182.7	
249.28	3408.5	
249.49	3977.8	
249.7	6006	
249.91	6093.4	
250.12	3293.8	
250.34	3327.3	
250.55	5539.1	
250.76	5415.5	
250.97	4049.5	
251.18	4070.7	
251.39	6197.8	
251.6	5576.6	
251.81	4145.8	
252.03	4094.6	
252.24	5167	
252.45	5930.2	
252.66	3435.8	
252.87	4343.1	
253.08	5475.6	
253.29	7198.6	
253.5	3409.2	
253.72	4779.3	
253.93	5259.2	
254.14	6476.4	
254.35	3711.6	
254.56	3823.6	
254.77	5680.4	
254.98	5048.2	
255.19	3651.5	
255.41	4801.1	
255.62	5572.5	
255.83	6055.2	
256.04	4276.2	
256.25	4141	
256.46	6555.5	
256.67	5067.4	
256.88	4064.5	
257.09	4556.7	
257.31	5104.9	
257.52	5124.7	
257.73	5037.3	
257.94	3692.5	
258.15	5281.7	
258.36	5494	
258.57	4726	
258.78	2960.7	
258.99	5901.6	
259.2	5279.7	
259.41	3783.3	
259.63	3846.1	
259.84	6324.8	
260.05	6763.8	
260.26	5025	
260.47	3630.4	
260.68	6046.3	
260.89	5382.1	
261.1	4536.3	
261.31	3532.7	
261.52	6039.5	
261.73	6347.3	
261.95	4870.8	
262.16	4218.1	
262.37	6150.1	
262.58	6222.4	
262.79	4790.9	
263	3810.6	
263.21	5423.7	
263.42	5009.3	
263.63	3844.7	
263.84	3783.3	
264.05	5989.6	
264.26	6393.8	
264.47	4717.2	
264.69	4257	
264.9	6139.8	
265.11	5664.7	
265.32	3633.8	
265.53	3767.6	
265.74	5511.8	
265.95	4807.9	
266.16	3958.7	
266.37	4386.7	
266.58	5560.2	
266.79	5261.9	
267	3650.8	
267.21	3427.6	
267.42	5000.5	
267.63	5406	
267.84	3893.9	
268.06	3300	
268.27	5853.8	
268.48	6171.9	
268.69	3784.6	
268.9	4534.2	
269.11	6165.1	
269.32	4944.5	
269.53	3908.9	
269.74	3621.5	
269.95	5730.9	
270.16	4799.1	
270.37	3902.7	
270.58	4468.7	
270.79	5229.1	
271	5965.1	
271.21	4207.2	
271.42	3908.2	
271.63	5576.6	
271.84	5081	
272.05	3127.2	
272.26	3548.4	
272.47	5474.9	
272.68	5717.2	
272.89	3775.8	
273.11	4322.6	
273.32	5240.1	
273.53	6420.4	
273.74	4291.2	
273.95	4103.4	
274.16	6083.1	
274.37	5492.7	
274.58	4315.8	
274.79	3471.3	
275	5584.8	
275.21	6178.7	
275.42	5162.9	
275.63	4459.8	
275.84	5683.8	
276.05	7195.9	
276.26	4172.4	
276.47	3861.8	
276.68	5270.8	
276.89	6425.2	
277.1	4417.5	
277.31	3450.8	
277.52	5771.2	
277.73	5857.9	
277.94	3370.3	
278.15	3805.1	
278.36	5616.9	
278.57	5114.5	
278.78	3682.2	
278.99	4265.2	
279.2	5051.7	
279.41	4970.4	
279.62	4939	
279.83	3473.4	
280.04	6674.3	
280.25	4930.8	
280.46	4849.6	
280.67	3981.9	
280.88	5031.2	
281.09	6125.5	
281.3	4092.5	
281.51	5233.2	
281.72	5150	
281.93	5993.7	
282.14	3653.6	
282.35	3951.9	
282.56	5951.4	
282.77	5960.3	
282.98	3803.1	
283.19	4664.6	
283.4	7312.6	
283.61	5394.3	
283.82	3383.2	
284.03	4853	
284.24	5527.5	
284.45	6107	
284.66	4902.2	
284.87	4653.7	
285.08	6054.5	
285.29	6238.8	
285.5	3323.2	
285.71	3837.2	
285.92	6054.5	
286.12	6688	
286.33	4831.2	
286.54	3756	
286.75	5933.6	
286.96	5334.3	
287.17	3541.6	
287.38	4752.7	
287.59	5087.2	
287.8	5015.5	
288.01	3802.4	
288.22	4420.9	
288.43	5976.7	
288.64	4937.7	
288.85	4548.5	
289.06	4282.3	
289.27	5894.1	
289.48	6407.4	
289.69	4862.6	
289.9	4407.9	
290.11	6119.3	
290.32	5175.9	
290.53	4663.2	
290.74	4291.9	
290.94	5873.6	
291.15	5935.7	
291.36	3682.2	
291.57	4411.3	
291.78	5152.7	
291.99	4852.3	
292.2	3491.8	
292.41	4240.7	
292.62	5995.8	
292.83	5829.9	
293.04	5328.1	
293.25	3582.6	
293.46	5193	
293.67	6063.4	
293.88	3622.9	
294.09	3525.9	
294.29	4984.1	
294.5	5573.2	
294.71	3966.9	
294.92	3784.6	
295.13	5214.1	
295.34	6589.7	
295.55	3341.6	
295.76	3397.6	
295.97	5868.1	
296.18	6651.8	
296.39	3512.9	
296.6	3706.1	
296.81	5593.7	
297.01	5823.7	
297.22	3848.1	
297.43	3687	
297.64	5092.6	
297.85	5122.7	
298.06	3039.2	
298.27	3319.8	
298.48	5503.6	
298.69	5120.6	
298.9	3970.3	
299.11	3579.8	
299.31	4949.3	
299.52	4996.4	
299.73	4300.7	
299.94	4157.4	
300.15	5438	
300.36	5096	
300.57	4190.8	
300.78	4164.9	
300.99	5288.5	
301.2	5580	
301.4	3594.9	
301.61	3987.4	
301.82	5789.6	
302.03	5874.9	
302.24	4497.3	
302.45	3468.6	
302.66	5791.7	
302.87	6201.2	
303.08	3648.1	
303.29	5116.5	
303.49	5162.9	
303.7	5475.6	
303.91	3278.1	
304.12	4799.1	
304.33	4966.3	
304.54	5588.9	
304.75	3738.9	
304.96	3469.9	
305.16	5788.9	
305.37	6538.5	
305.58	3248.1	
305.79	3322.5	
306	5756.8	
306.21	4865.3	
306.42	3692.5	
306.63	5671.5	
306.83	5315.8	
307.04	6048.3	
307.25	4057	
307.46	4040	
307.67	4621.6	
307.88	5907	
308.09	3605.8	
308.29	3773.7	
308.5	5498.8	
308.71	6049	
308.92	3909.6	
309.13	3547.1	
309.34	5375.9	
309.55	5390.3	
309.75	4655	
309.96	4255.7	
310.17	5823.7	
310.38	5143.8	
310.59	4430.4	
310.8	4193.6	
311.01	5266.7	
311.21	5339.7	
311.42	3500.7	
311.63	3631.7	
311.84	5146.5	
312.05	5582.1	
312.26	4121.9	
312.46	4548.5	
312.67	5245.5	
312.88	4956.8	
313.09	3521.1	
313.3	3478.8	
313.51	6241.5	
313.71	6636.1	
313.92	3517.7	
314.13	3732.8	
314.34	5627.8	
314.55	5393.7	
314.76	4590.2	
314.96	3995.6	
315.17	5496.7	
315.38	5859.2	
315.59	3566.2	
315.8	3374.4	
316.01	6371.9	
316.21	6343.9	
316.42	3429.7	
316.63	3882.9	
316.84	5295.4	
317.05	6167.1	
317.26	4173.1	
317.46	3805.8	
317.67	5325.4	
317.88	5896.8	
318.09	4517.1	
318.3	3267.2	
318.5	5144.5	
318.71	5722.7	
318.92	5767.1	
319.13	4212	
319.34	5938.4	
319.54	6077	
319.75	3317.7	
319.96	3147.7	
320.17	5868.1	
320.38	6050.4	
320.58	3226.9	
320.79	3916.4	
321	6017.6	
321.21	6225.8	
321.42	3940.3	
321.62	3272.7	
321.83	5031.2	
322.04	5458.5	
322.25	3744.4	
322.46	3553.9	
322.66	5575.9	
322.87	5691.3	
323.08	4417.5	
323.29	3496.6	
323.5	6580.1	
323.7	4989.5	
323.91	4861.9	
324.12	4389.5	
324.33	5513.1	
324.53	5806	
324.74	4164.2	
324.95	4432.5	
325.16	4862.6	
325.37	5278.3	
325.57	3581.9	
325.78	3674.1	
325.99	5520.6	
326.2	4998.4	
326.4	5204.6	
326.61	3286.3	
326.82	5396.4	
327.03	5583.4	
327.24	5066.7	
327.44	4828.4	
327.65	5674.9	
327.86	4565.6	
328.07	4191.5	
328.27	3452.2	
328.48	6136.4	
328.69	4963.6	
328.9	5148.6	
329.1	3754.6	
329.31	5332.9	
329.52	6267.5	
329.73	3505.4	
329.93	4065.2	
330.14	5516.5	
330.35	5651.7	
330.56	5855.1	
330.76	4394.3	
330.97	5282.4	
331.18	5644.2	
331.39	3958	
331.59	3186	
331.8	6062.7	
332.01	6161.7	
332.22	3704.8	
332.42	4189.5	
332.63	5537	
332.84	5125.4	
333.05	4022.9	
333.25	3601	
333.46	5242.1	
333.67	5433.9	
333.88	3674.1	
334.08	4149.9	
334.29	7277.1	
334.5	6109.8	
334.7	3505.4	
334.91	5062.6	
335.12	4984.1	
335.33	5866.7	
335.53	3900.7	
335.74	5782.8	
335.95	5243.5	
336.16	5051.7	
336.36	3928.7	
336.57	4582.7	
336.78	4998.4	
336.98	6143.2	
337.19	4858.5	
337.4	3855.6	
337.61	6582.2	
337.81	4961.5	
338.02	3620.1	
338.23	4693.3	
338.43	6234.7	
338.64	5124	
338.85	3618.1	
339.05	4671.4	
339.26	6279.1	
339.47	4913.1	
339.68	3579.2	
339.88	5309	
340.09	5721.3	
340.3	5917.9	
340.5	4222.2	
340.71	3198.2	
340.92	4935.6	
341.13	6123.4	
341.33	3416.7	
341.54	4237.2	
341.75	5676.3	
341.95	5292	
342.16	4033.8	
342.37	4351.9	
342.57	5082.4	
342.78	5414.1	
342.99	4489.1	
343.19	3214.6	
343.4	5864.7	
343.61	5695.4	
343.81	3802.4	
344.02	3469.3	
344.23	5831.9	
344.43	6267.5	
344.64	4469.4	
344.85	4329.4	
345.06	5786.9	
345.26	6079.1	
345.47	4179.2	
345.68	4841.4	
345.88	4809.3	
346.09	5924.1	
346.3	4176.5	
346.5	3165.5	
346.71	5476.3	
346.92	5149.3	
347.12	3286.3	
347.33	4119.1	
347.54	6033.3	
347.74	6421.1	
347.95	4083	
348.16	2997.5	
348.36	5254.4	
348.57	4977.9	
348.78	4061.1	
348.98	4331.5	
349.19	5354.8	
349.39	4883	
349.6	3252.2	
349.81	3633.1	
350.01	5676.3	
350.22	5113.1	
350.43	3900.7	
350.63	4754.7	
350.84	5461.2	
351.05	5213.4	
351.25	3599.6	
351.46	3265.1	
351.67	6098.2	
351.87	5104.9	
352.08	3798.3	
352.29	4364.9	
352.49	5853.1	
352.7	5567.1	
352.9	3504.8	
353.11	4356.7	
353.32	6567.8	
353.52	5233.9	
353.73	3397.6	
353.94	4411.3	
354.14	5766.4	
354.35	5535.7	
354.55	3528.7	
354.76	3916.4	
354.97	5696.8	
355.17	5434.6	
355.38	3263.8	
355.59	4601.1	
355.79	5025.7	
356	5451.7	
356.2	3851.5	
356.41	3370.3	
356.62	4801.8	
356.82	5270.8	
357.03	4175.1	
357.24	3689.1	
357.44	5120.6	
357.65	5184.8	
357.85	4986.8	
358.06	3935.5	
358.27	4782.7	
358.47	5070.8	
358.68	3228.3	
358.88	4126	
359.09	5650.3	
359.3	6053.1	
359.5	4810	
359.71	4216.1	
359.91	6447.7	
360.12	5793.7	
360.33	4011.3	
360.53	4541.7	
360.74	5041.4	
360.94	5110.4	
361.15	4315.8	
361.36	3482.2	
361.56	5838.1	
361.77	5284.4	
361.97	4736.3	
362.18	3680.2	
362.38	5795.1	
362.59	4882.4	
362.8	3426.3	
363	3291.8	
363.21	4692.6	
363.41	5365.7	
363.62	3938.9	
363.83	5001.8	
364.03	5433.3	
364.24	6456.6	
364.44	5027.8	
364.65	5072.8	
364.85	5196.4	
365.06	5063.3	
365.27	3544.4	
365.47	3618.1	
365.68	6221.7	
365.88	5109	
366.09	3972.4	
366.29	3631	
366.5	5433.3	
366.71	5827.8	
366.91	4936.3	
367.12	4078.9	
367.32	6434.7	
367.53	5646.2	
367.73	4102.1	
367.94	5042.8	
368.14	5593	
368.35	6565.8	
368.56	4012.7	
368.76	3805.1	
368.97	5690.6	
369.17	7468.3	
369.38	3556.6	
369.58	3781.9	
369.79	4721.3	
369.99	6085.9	
370.2	4764.9	
370.4	3896.6	
370.61	5428.5	
370.82	6638.1	
371.02	3802.4	
371.23	3080.8	
371.43	4655	
371.64	5979.4	
371.84	3805.8	
372.05	5040.7	
372.25	7248.4	
372.46	5709.7	
372.66	3768.9	
372.87	3693.2	
373.07	5766.4	
373.28	7309.9	
373.48	4720.6	
373.69	4418.2	
373.9	5182	
374.1	5189.6	
374.31	4659.1	
374.51	4173.8	
374.72	5940.5	
374.92	4834.6	
375.13	4853	
375.33	3992.9	
375.54	5495.4	
375.74	4916.5	
375.95	4042	
376.15	5260.5	
376.36	5455.1	
376.56	5329.5	
376.77	4041.3	
376.97	4492.6	
377.18	6511.9	
377.38	5505.6	
377.59	4812.7	
377.79	3532.1	
378	5343.2	
378.2	5763.7	
378.41	3634.5	
378.61	3459	
378.82	5764.3	
379.02	4868.7	
379.23	3746.4	
379.43	4817.5	
379.64	5849	
379.84	5438.7	
380.05	3577.8	
380.25	3452.9	
380.46	5610.8	
380.66	5111	
380.87	4803.9	
381.07	5266	
381.28	6141.9	
381.48	5593.7	
381.69	3566.2	
381.89	3629	
382.1	4556.7	
382.3	5707.7	
382.51	4685.8	
382.71	5631.9	
382.91	5606.7	
383.12	6120.7	
383.32	3982.6	
383.53	4190.8	
383.73	5476.3	
383.94	5253	
384.14	4122.6	
384.35	3259	
384.55	5157.5	
384.76	5657.2	
384.96	3928.7	
385.17	4319.8	
385.37	5659.2	
385.58	4915.8	
385.78	4348.5	
385.98	3226.9	
386.19	5110.4	
386.39	5461.2	
386.6	3785.3	
386.8	4011.3	
387.01	5619.6	
387.21	5653.1	
387.42	4448.9	
387.62	5057.1	
387.83	4910.3	
388.03	5589.6	
388.23	3938.9	
388.44	4794.3	
388.64	4567	
388.85	4688.5	
389.05	4308.2	
389.26	4924.7	
389.46	6526.9	
389.67	5913.2	
389.87	4187.4	
390.07	4404.5	
390.28	5147.2	
390.48	4750.6	
390.69	3527.3	
390.89	3743	
391.1	4960.2	
391.3	5887.2	
391.5	4999.1	
391.71	5657.2	
391.91	5608	
392.12	6624.5	
392.32	5089.9	
392.53	4300.1	
392.73	4967.7	
392.93	5122.7	
393.14	3943	
393.34	4797.7	
393.55	5692	
393.75	5154.7	
393.95	3988.1	
394.16	3870.7	
394.36	4877.6	
394.57	5702.9	
394.77	3506.8	
394.98	3900.7	
395.18	4903.5	
395.38	4950.6	
395.59	4714.4	
395.79	3633.8	
396	4959.5	
396.2	5423.7	
396.4	4430.4	
396.61	4311	
396.81	5592.3	
397.02	4883	
397.22	4603.8	
397.42	4691.2	
397.63	5535	
397.83	4704.2	
398.04	3495.2	
398.24	3966.9	
398.44	5407.3	
398.65	4433.2	
398.85	3284.9	
399.05	3465.8	
399.26	4718.5	
399.46	6419.7	
399.67	3762.8	
399.87	3506.1	
400.07	5062.6	
400.28	5353.4	
400.48	3596.9	
400.69	4601.1	
400.89	5612.1	
401.09	6008.7	
401.3	3495.2	
401.5	4577.2	
401.7	6171.9	
401.91	6459.3	
402.11	3768.3	
402.32	4060.4	
402.52	5593.7	
402.72	5595.7	
402.93	4244.8	
403.13	3203	
403.33	6358.9	
403.54	5145.2	
403.74	3973.7	
403.94	4878.9	
404.15	5252.4	
404.35	6444.3	
404.56	3806.5	
404.76	5705	
404.96	5654.4	
405.17	5440.8	
405.37	5044.8	
405.57	4173.8	
405.78	5647.6	
405.98	5103.5	
406.18	3677.5	
406.39	4670.1	
406.59	5623.7	
406.79	5223	
407	3556	
407.2	3677.5	
407.4	5560.2	
407.61	5803.3	
407.81	3633.8	
408.01	6011.5	
408.22	4476.2	
408.42	6502.3	
408.62	4549.2	
408.83	3963.5	
409.03	4972.5	
409.23	4857.1	
409.44	3973.1	
409.64	4263.2	
409.84	5830.6	
410.05	5615.5	
410.25	4001	
410.45	3789.4	
410.66	5038.7	
410.86	7602.7	
411.06	4087.1	
411.27	4017.4	
411.47	7221.1	
411.67	5177.3	
411.88	4205.8	
412.08	4375.1	
412.28	5744.6	
412.49	6295.5	
412.69	3875.4	
412.89	3868.6	
413.09	6055.8	
413.3	5883.8	
413.5	3904.8	
413.7	3535.5	
413.91	5172.5	
414.11	5970.5	
414.31	3738.9	
414.52	4076.1	
414.72	5634.6	
414.92	5495.4	
415.12	3708.2	
415.33	4216.1	
415.53	5886.5	
415.73	6115.9	
415.94	4587.4	
416.14	4022.9	
416.34	4928.1	
416.55	4709.6	
416.75	5266	
416.95	4582	
417.15	5780.7	
417.36	6538.5	
417.56	5287.2	
417.76	4388.8	
417.97	6148	
418.17	5786.2	
418.37	3911.6	
418.57	4038.6	
418.78	5569.8	
418.98	5245.5	
419.18	4846.2	
419.38	4893.3	
419.59	5314.5	
419.79	4980.7	
419.99	3877.5	
420.2	4329.4	
420.4	5905	
420.6	6034.7	
420.8	3786	
421.01	3671.3	
421.21	5586.2	
421.41	5808	
421.61	4193.6	
421.82	3936.2	
422.02	5156.8	
422.22	6109.1	
422.42	4673.5	
422.63	4410	
422.83	5305.6	
423.03	6527.6	
423.23	4407.2	
423.44	3453.6	
423.64	5405.3	
423.84	5193.6	
424.04	3831.7	
424.25	3550.5	
424.45	6374.6	
424.65	6293.4	
424.85	3379.1	
425.06	3956.7	
425.26	6287.3	
425.46	5349.3	
425.66	4485.7	
425.87	4127.3	
426.07	6126.2	
426.27	5925.5	
426.47	4259.1	
426.67	3681.6	
426.88	6382.8	
427.08	5920	
427.28	4416.1	
427.48	3645.4	
427.69	4889.9	
427.89	5466	
428.09	4442	
428.29	3644	
428.5	6144.6	
428.7	5703.6	
428.9	3543	
429.1	4066.6	
429.3	5595.7	
429.51	5992.4	
429.71	3880.2	
429.91	4569	
430.11	5805.3	
430.31	6047.7	
430.52	4067.9	
430.72	4289.8	
430.92	6423.1	
431.12	5763.7	
431.32	3704.1	
431.53	4186	
431.73	4786.8	
431.93	6461.3	
432.13	3631.7	
432.33	3469.3	
432.54	5165	
432.74	5543.9	
432.94	3420.8	
433.14	4472.1	
433.34	5747.3	
433.55	5195	
433.75	4348.5	
433.95	6082.5	
434.15	5516.5	
434.35	5150.6	
434.56	3579.2	
434.76	3114.3	
434.96	5407.3	
435.16	5620.3	
435.36	3434.4	
435.56	4476.9	
435.77	4979.3	
435.97	5261.2	
436.17	5147.2	
436.37	4346.5	
436.57	4980.7	
436.78	4922	
436.98	5250.3	
437.18	4971.8	
437.38	5577.3	
437.58	5207.3	
437.78	5186.8	
437.99	3774.4	
438.19	5773.2	
438.39	6505	
438.59	3803.8	
438.79	3311.6	
438.99	6433.4	
439.2	5239.4	
439.4	3506.1	
439.6	3355.9	
439.8	5491.3	
440	6541.9	
440.2	4313.7	
440.4	4388.1	
440.61	5778	
440.81	6240.2	
441.01	3379.1	
441.21	4250.2	
441.41	6100.2	
441.61	5730.9	
441.81	4521.9	
442.02	5578	
442.22	6597.9	
442.42	5791.7	
442.62	3446.7	
442.82	3528.7	
443.02	6046.3	
443.22	5228.5	
443.43	3870	
443.63	3405.8	
443.83	5043.5	
444.03	5034.6	
444.23	4531.5	
444.43	4149.9	
444.63	5231.9	
444.83	6516.6	
445.04	3486.3	
445.24	4754	
445.44	5691.3	
445.64	5769.8	
445.84	4374.5	
446.04	4349.2	
446.24	5081.7	
446.44	6109.8	
446.65	3668.6	
446.85	3895.2	
447.05	5603.9	
447.25	6045.6	
447.45	4033.1	
447.65	3470.6	
447.85	5473.5	
448.05	5150	
448.25	4377.9	
448.46	4191.5	
448.66	5427.8	
448.86	5189.6	
449.06	3254.9	
449.26	4371.7	
449.46	5700.2	
449.66	4902.8	
449.86	3880.9	
450.06	3822.9	
450.26	4988.2	
450.47	5545.9	
450.67	4187.4	
450.87	4508.9	
451.07	5624.4	
451.27	5417.6	
451.47	3480.2	
451.67	3962.8	
451.87	5055.8	
452.07	6180.1	
452.27	3600.3	
452.47	3664.5	
452.67	5414.8	
452.88	5951.4	
453.08	3160	
453.28	4984.8	
453.48	6475	
453.68	5399.1	
453.88	3495.2	
454.08	3816.7	
454.28	5606.7	
454.48	5317.9	
454.68	4249.5	
454.88	4797	
455.08	5786.9	
455.28	5349.3	
455.48	3358	
455.68	3892.5	
455.89	6070.2	
456.09	5735	
456.29	3631	
456.49	3586.7	
456.69	5935	
456.89	5233.9	
457.09	4133.5	
457.29	4358.8	
457.49	5447.6	
457.69	5534.3	
457.89	3773	
458.09	3239.9	
458.29	5165	
458.49	5853.8	
458.69	4126.7	
458.89	3576.4	
459.09	5930.9	
459.29	6213.5	
459.49	3751.9	
459.69	4465.9	
459.9	5659.9	
460.1	5017.5	
460.3	3664.5	
460.5	3424.9	
460.7	5508.4	
460.9	5284.4	
461.1	3051.5	
461.3	4268.6	
461.5	6077	
461.7	5694.7	
461.9	3286.3	
462.1	3848.1	
462.3	5120.6	
462.5	5706.3	
462.7	3390.1	
462.9	3450.8	
463.1	6664.8	
463.3	6302.3	
463.5	3573	
463.7	4310.3	
463.9	5208.7	
464.1	5600.5	
464.3	3490.4	
464.5	3871.3	
464.7	5793	
464.9	5337	
465.1	5065.3	
465.3	4119.1	
465.5	6096.1	
465.7	6023.8	
465.9	4294.6	
466.1	4235.2	
466.3	5709.1	
466.5	5739.1	
466.7	4896	
466.9	3873.4	
467.1	5527.5	
467.3	6431.3	
467.5	4737.6	
467.7	3667.2	
467.9	6583.5	
468.1	7483.3	
468.3	4511	
468.5	4870.8	
468.7	5391.6	
468.9	5382.7	
469.1	3874.1	
469.3	4557.4	
469.5	7349.5	
469.7	4966.3	
469.9	4471.4	
470.1	3693.9	
470.3	5417.6	
470.5	5419.6	
470.7	4921.3	
470.9	3768.9	
471.1	5104.9	
471.3	5683.1	
471.5	3557.3	
471.69	5586.9	
471.89	5158.8	
472.09	4713.7	
472.29	4369.7	
472.49	4883.7	
472.69	4906.9	
472.89	5709.7	
473.09	3483.6	
473.29	3828.3	
473.49	5042.8	
473.69	5320.6	
473.89	4694.6	
474.09	3908.2	
474.29	6469.5	
474.49	6250.4	
474.69	4631.1	
474.89	4045.4	
475.09	5292.6	
475.29	5225.7	
475.49	3532.1	
475.69	3697.3	
475.88	6900.3	
476.08	5568.4	
476.28	3426.3	
476.48	3999	
476.68	6055.8	
476.88	5917.9	
477.08	3786	
477.28	3960.8	
477.48	5525.4	
477.68	6120.7	
477.88	3568.2	
478.08	3938.9	
478.28	6362.4	
478.48	5556.1	
478.67	3959.4	
478.87	3536.2	
479.07	6084.5	
479.27	5625.8	
479.47	4191.5	
479.67	4135.5	
479.87	6005.3	
480.07	6509.8	
480.27	3440.6	
480.47	5046.2	
480.67	5674.9	
480.87	6206.7	
481.06	3737.5	
481.26	4483	
481.46	5546.6	
481.66	5524.7	
481.86	4091.8	
482.06	5160.9	
482.26	5300.8	
482.46	6266.8	
482.66	4042	
482.86	3665.9	
483.05	5636	
483.25	5062.6	
483.45	6509.1	
483.65	4033.1	
483.85	5180.7	
484.05	5495.4	
484.25	4486.4	
484.45	4857.8	
484.65	6392.4	
484.84	6240.2	
485.04	3930.1	
485.24	3880.2	
485.44	6508.4	
485.64	4905.6	
485.84	3204.4	
486.04	4539.7	
486.24	5192.3	
486.44	5586.9	
486.63	3114.3	
486.83	3868.6	
487.03	5104.2	
487.23	5193	
487.43	3252.9	
487.63	5536.3	
487.83	5304.2	
488.02	6279.8	
488.22	4078.9	
488.42	4667.3	
488.62	6102.9	
488.82	5013.4	
489.02	3758.7	
489.22	3715.7	
489.41	6016.9	
489.61	5537	
489.81	3521.8	
490.01	3495.2	
490.21	5851.7	
490.41	6485.2	
490.61	3437.9	
490.8	3560.1	
491	5381.4	
491.2	4855.1	
491.4	4252.3	
491.6	3377.8	
491.8	5400.5	
491.99	5652.4	
492.19	3280.8	
492.39	3627.6	
492.59	5928.2	
492.79	5917.9	
492.99	4298	
493.18	3465.8	
493.38	5887.2	
493.58	6567.8	
493.78	4003.1	
493.98	3636.5	
494.18	5614.8	
494.37	4916.5	
494.57	4055.7	
494.77	3991.5	
494.97	5550	
495.17	5795.1	
495.37	3450.1	
495.56	3811.3	
495.76	5879	
495.96	5537.7	
496.16	4659.1	
496.36	3549.1	
496.55	5669.5	
496.75	5284.4	
496.95	3902.7	
497.15	3773	
497.35	5690.6	
497.54	5666.7	
497.74	3578.5	
497.94	5268.1	
498.14	6262	
498.34	6158.2	
498.53	3188.7	
498.73	4001	
498.93	4937	
499.13	5457.2	
499.33	3736.9	
499.52	4292.5	
499.72	5356.1	
499.92	5838.8	
500.12	3408.5	
500.32	3648.8	
500.51	5728.2	
500.71	5410.1	
500.91	4427	
501.11	4037.9	
501.31	5668.1	
501.5	6129.6	
501.7	4677.6	
501.9	3670.6	
502.1	5454.4	
502.29	5770.5	
502.49	4072	
502.69	4619.5	
502.89	5763.7	
503.09	5707.7	
503.28	3337.5	
503.48	3418.7	
503.68	5034.6	
503.88	5072.1	
504.07	4366.3	
504.27	3926	
504.47	5385.5	
504.67	5653.1	
504.86	4358.8	
505.06	4020.2	
505.26	5221	
505.46	6928.3	
505.65	3953.9	
505.85	4223.6	
506.05	5166.3	
506.25	5658.5	
506.44	3386.7	
506.64	4384	
506.84	5121.3	
507.04	6063.4	
507.23	3646.1	
507.43	4248.2	
507.63	7113.3	
507.83	5367	
508.02	4194.2	
508.22	3612.6	
508.42	7331.7	
508.62	5117.2	
508.81	4147.8	
509.01	4661.9	
509.21	5151.3	
509.4	5369.8	
509.6	4324.6	
509.8	3672	
510	5389.6	
510.19	6741.2	
510.39	3638.6	
510.59	3727.3	
510.79	5109.7	
510.98	6392.4	
511.18	3749.1	
511.38	3902.7	
511.57	5920	
511.77	5760.9	
511.97	4506.9	
512.17	3582.6	
512.36	5922.7	
512.56	5933.6	
512.76	3664.5	
512.95	3441.3	
513.15	5994.4	
513.35	4756.7	
513.55	4487.8	
513.74	3635.8	
513.94	6032.6	
514.14	5386.2	
514.33	4605.9	
514.53	4252.3	
514.73	5320.6	
514.92	5489.9	
515.12	3756	
515.32	3564.8	
515.51	5524.7	
515.71	6068.1	
515.91	5227.1	
516.11	3583.3	
516.3	7226.6	
516.5	5142.4	
516.7	4164.2	
516.89	4825	
517.09	5297.4	
517.29	5186.1	
517.48	4467.3	
517.68	3902.1	
517.88	4969.1	
518.07	5612.8	
518.27	4413.4	
518.47	3472	
518.66	6160.3	
518.86	4836.6	
519.06	3284.9	
519.25	3760.8	
519.45	5162.9	
519.65	6543.9	
519.84	4369.7	
520.04	4990.2	
520.24	6972.7	
520.43	5781.4	
520.63	4119.8	
520.83	3812.6	
521.02	5089.2	
521.22	5682.4	
521.42	4442.7	
521.61	4927.4	
521.81	5315.8	
522.01	5513.8	
522.2	4156	
522.4	4048.2	
522.6	5882.4	
522.79	4783.4	
522.99	4035.2	
523.18	3293.8	
523.38	5500.8	
523.58	5442.1	
523.77	5127.4	
523.97	3158.7	
524.17	7226.6	
524.36	6385.6	
524.56	4428.4	
524.76	4089.8	
524.95	5292	
525.15	4995	
525.34	3788.7	
525.54	3767.6	
525.74	5582.8	
525.93	4694.6	
526.13	4891.2	
526.33	3699.3	
526.52	5836.7	
526.72	5296	
526.91	4872.1	
527.11	4113	
527.31	5838.8	
527.5	6206	
527.7	3912.3	
527.89	3018.7	
528.09	4775.2	
528.29	5172.5	
528.48	4348.5	
528.68	3990.1	
528.87	5560.9	
529.07	5688.6	
529.27	3964.9	
529.46	3485.6	
529.66	5307.7	
529.85	5685.2	
530.05	3288.4	
530.25	4014.7	
530.44	6591.7	
530.64	5241.4	
530.83	3642	
531.03	3855.6	
531.23	5633.3	
531.42	5513.8	
531.62	4582.7	
531.81	3754.6	
532.01	5590.3	
532.21	6053.8	
532.4	3397.6	
532.6	3721.8	
532.79	6225.8	
532.99	5517.2	
533.18	3660.4	
533.38	4689.8	
533.58	5040.1	
533.77	5855.8	
533.97	3508.2	
534.16	4343.1	
534.36	5910.4	
534.55	5048.9	
534.75	4587.4	
534.95	3644	
535.14	5810.1	
535.34	5029.1	
535.53	3349.1	
535.73	5324.7	
535.92	6354.8	
536.12	5267.4	
536.31	3512.3	
536.51	4630.5	
536.71	5573.9	
536.9	5169.1	
537.1	3664.5	
537.29	3783.3	
537.49	6019	
537.68	5010.7	
537.88	4097.3	
538.07	3359.4	
538.27	5203.9	
538.46	6223.8	
538.66	3282.9	
538.86	3599	
539.05	5303.6	
539.25	5798.5	
539.44	3900.7	
539.64	3603.7	
539.83	5153.4	
540.03	6151.4	
540.22	3458.3	
540.42	3674.7	
540.61	5517.9	
540.81	5537.7	
541	4166.3	
541.2	4659.8	
541.39	5074.9	
541.59	5395.7	
541.78	4343.1	
541.98	3585.3	
542.18	4728.8	
542.37	4792.2	
542.57	3987.4	
542.76	4410	
542.96	4911.7	
543.15	5582.1	
543.35	4083.6	
543.54	3432.4	
543.74	6008.1	
543.93	5534.3	
544.13	4138.9	
544.32	5202.5	
544.52	5892	
544.71	5106.3	
544.91	3259.7	
545.1	4525.3	
545.3	5194.3	
545.49	5778.7	
545.69	3263.1	
545.88	3887.7	
546.08	6664.1	
546.27	6377.4	
546.47	4345.8	
546.66	3712.3	
546.86	6000.5	
547.05	6655.9	
547.24	3880.9	
547.44	3723.9	
547.63	5048.2	
547.83	6138.4	
548.02	4145.8	
548.22	4367.6	
548.41	4916.5	
548.61	6252.4	
548.8	3751.9	
549	3703.4	
549.19	5593	
549.39	5855.1	
549.58	3434.4	
549.78	4048.8	
549.97	5961	
550.17	5491.3	
550.36	4944.5	
550.55	5984.8	
550.75	5474.2	
550.94	6451.8	
551.14	3724.6	
551.33	4248.2	
551.53	4845.5	
551.72	5842.2	
551.92	4156.7	
552.11	3936.2	
552.31	5926.8	
552.5	5986.9	
552.69	5708.4	
552.89	3648.1	
553.08	5928.2	
553.28	5644.2	
553.47	4027	
553.67	5139	
553.86	6608.8	
554.06	4945.2	
554.25	3277.4	
554.44	3802.4	
554.64	7391.8	
554.83	6879.1	
555.03	3745.7	
555.22	4156	
555.42	6166.4	
555.61	5823.1	
555.8	4032.5	
556	4300.1	
556.19	5026.4	
556.39	6287.9	
556.58	4126	
556.78	4107.5	
556.97	5775.3	
557.16	5491.3	
557.36	5359.5	
557.55	3706.8	
557.75	4814.8	
557.94	6516.6	
558.13	3839.3	
558.33	3610.6	
558.52	6270.2	
558.72	5269.4	
558.91	3677.5	
559.1	3999.7	
559.3	4977.2	
559.49	4840	
559.69	3378.5	
559.88	4389.5	
560.07	5852.4	
560.27	6201.9	
560.46	4575.8	
560.66	4727.4	
560.85	5610.1	
561.04	4960.2	
561.24	3784	
561.43	3982.6	
561.63	5170.4	
561.82	5449	
562.01	5200.5	
562.21	4233.8	
562.4	5824.4	
562.59	6678.4	
562.79	4098.7	
562.98	3826.3	
563.18	5700.2	
563.37	7077.1	
563.56	4560.1	
563.76	3680.2	
563.95	5118.6	
564.14	5111.7	
564.34	4012.7	
564.53	3816.7	
564.73	5717.9	
564.92	5939.8	
565.11	4151.2	
565.31	3540.9	
565.5	6157.6	
565.69	5205.3	
565.89	3753.9	
566.08	4024.9	
566.27	6072.9	
566.47	6421.1	
566.66	4659.1	
566.85	3340.2	
567.05	5668.8	
567.24	5116.5	
567.44	3680.9	
567.63	5049.6	
567.82	5933	
568.02	5655.1	
568.21	3670	
568.4	4055	
568.6	5528.2	
568.79	5523.4	
568.98	3506.1	
569.18	3573	
569.37	5369.8	
569.56	7442.3	
569.76	3943	
569.95	4835.9	
570.14	5872.9	
570.34	5713.2	
570.53	3532.1	
570.72	3489.1	
570.91	6217	
571.11	5396.4	
571.3	4008.6	
571.49	4884.4	
571.69	5416.2	
571.88	5040.1	
572.07	4427	
572.27	4583.4	
572.46	4997.7	
572.65	6105.7	
572.85	3738.9	
573.04	4048.8	
573.23	6171.2	
573.43	5546.6	
573.62	3486.3	
573.81	4115.7	
574	5468.1	
574.2	5311.1	
574.39	3696.6	
574.58	3895.2	
574.78	6261.3	
574.97	5479.7	
575.16	4190.1	
575.36	4356.7	
575.55	5804.6	
575.74	6012.8	
575.93	3323.9	
576.13	4364.9	
576.32	5264	
576.51	5774.6	
576.71	3743	
576.9	5081.7	
577.09	6105.7	
577.28	5696.8	
577.48	4222.9	
577.67	3268.6	
577.86	5322.7	
578.05	5612.8	
578.25	3869.3	
578.44	3959.4	
578.63	5440.8	
578.83	6587	
579.02	3312.9	
579.21	4809.3	
579.4	5587.5	
579.6	5271.5	
579.79	4067.9	
579.98	6143.2	
580.17	5887.9	
580.37	5984.8	
580.56	3483.6	
580.75	4251.6	
580.94	6460	
581.14	6221	
581.33	4629.8	
581.52	3590.1	
581.71	5709.1	
581.91	6346.7	
582.1	3286.3	
582.29	3893.9	
582.48	5354.8	
582.68	5226.4	
582.87	4398.4	
583.06	3899.3	
583.25	5677.7	
583.45	5070.8	
583.64	4504.2	
583.83	5223.7	
584.02	5208.7	
584.21	5560.9	
584.41	4656.4	
584.6	3858.4	
584.79	5313.8	
584.98	6027.2	
585.18	3360.7	
585.37	3435.8	
585.56	5019.6	
585.75	5719.3	
585.94	3638.6	
586.14	4252.3	
586.33	6399.2	
586.52	5390.9	
586.71	4132.1	
586.91	3932.8	
587.1	4903.5	
587.29	5927.5	
587.48	3938.9	
587.67	3781.9	
587.87	5855.1	
588.06	5874.9	
588.25	5142.4	
588.44	4457.1	
588.63	5573.2	
588.83	6222.4	
589.02	4000.4	
589.21	4000.4	
589.4	5529.5	
589.59	5354.8	
589.78	3413.3	
589.98	3688.4	
590.17	5224.4	
590.36	5789.6	
590.55	3295.2	
590.74	4169.7	
590.94	7189.1	
591.13	5790.3	
591.32	3898.6	
591.51	3494.5	
591.7	6187.6	
591.89	5682.4	
592.09	3558	
592.28	3977.8	
592.47	4954	
592.66	6737.8	
592.85	3495.9	
593.05	3672	
593.24	5442.8	
593.43	6219.7	
593.62	3734.8	
593.81	4247.5	
594	5504.3	
594.19	5718.6	
594.39	3622.9	
594.58	3630.4	
594.77	5800.5	
594.96	6389	
595.15	3649.5	
595.34	4245.4	
595.54	5948	
595.73	5138.4	
595.92	3137.5	
596.11	4207.2	
596.3	6418.3	
596.49	5116.5	
596.68	4013.3	
596.88	4473.4	
597.07	6220.4	
597.26	5029.1	
597.45	3588.7	
597.64	4700.1	
597.83	5227.1	
598.02	5861.3	
598.22	3597.6	
598.41	4287.8	
598.6	5659.2	
598.79	5107	
598.98	3655.6	
599.17	4629.1	
599.36	5664	
599.55	6852.5	
599.74	5715.2	
599.94	5394.3	
600.13	6240.8	
600.32	5111	
600.51	3408.5	
600.7	3547.8	
600.89	6853.2	
601.08	6896.2	
601.27	3364.1	
601.47	4317.1	
601.66	6153.5	
601.85	6757.6	
602.04	4003.8	
602.23	4302.8	
602.42	5294.7	
602.61	5920	
602.8	3936.9	
602.99	3781.2	
603.18	5543.2	
603.37	5835.3	
603.57	4366.3	
603.76	4893.3	
603.95	6605.4	
604.14	6085.2	
604.33	3743.7	
604.52	4063.2	
604.71	5713.8	
604.9	5404.6	
605.09	4750.6	
605.28	4556	
605.47	6281.8	
605.66	6075	
605.86	4359.4	
606.05	3832.4	
606.24	6401.3	
606.43	4979.3	
606.62	4124.6	
606.81	4909	
607	6261.3	
607.19	5551.4	
607.38	3586.7	
607.57	3888.4	
607.76	5324	
607.95	4886.5	
608.14	4202.4	
608.33	4786.8	
608.52	5328.1	
608.72	6238.1	
608.91	3552.5	
609.1	3482.2	
609.29	5467.4	
609.48	5048.2	
609.67	4468	
609.86	3606.5	
610.05	5182.7	
610.24	5535.7	
610.43	3411.2	
610.62	3139.5	
610.81	6623.8	
611	6359.6	
611.19	3581.9	
611.38	4234.5	
611.57	5808.7	
611.76	7102.4	
611.95	3403.7	
612.14	3310.9	
612.33	5573.2	
612.52	5168.4	
612.71	3904.8	
612.9	3194.1	
613.09	4786.8	
613.28	7043.6	
613.47	3631	
613.66	4579.9	
613.85	5715.9	
614.04	5184.1	
614.24	3755.3	
614.43	3073.3	
614.62	5776	
614.81	5772.5	
615	4275.5	
615.19	4314.4	
615.38	5109	
615.57	5435.3	
615.76	4124.6	
615.95	5100.8	
616.14	5848.3	
616.33	5535	
616.52	4429.1	
616.71	4704.9	
616.9	5824.4	
617.09	5584.1	
617.28	3801	
617.47	5059.2	
617.66	4928.8	
617.85	4996.4	
618.04	4628.4	
618.22	4117.1	
618.41	5095.3	
618.6	5999.2	
618.79	3910.9	
618.98	3653.6	
619.17	6263.4	
619.36	4689.2	
619.55	3768.3	
619.74	3824.2	
619.93	5529.5	
620.12	4946.5	
620.31	4311	
620.5	4455	
620.69	6075.6	
620.88	6485.2	
621.07	5115.1	
621.26	4182	
621.45	5648.3	
621.64	5732.3	
621.83	4292.5	
622.02	3466.5	
622.21	5723.4	
622.4	5464	
622.59	4872.1	
622.78	4562.2	
622.97	5098.1	
623.16	6039.5	
623.35	4133.5	
623.54	3375.1	
623.72	5264.6	
623.91	5425.1	
624.1	4472.8	
624.29	3215.3	
624.48	6417	
624.67	5737	
624.86	4260.5	
625.05	3410.6	
625.24	6511.9	
625.43	5055.8	
625.62	6016.9	
625.81	3556.6	
626	6003.3	
626.19	5251.7	
626.38	4337.6	
626.56	3849.5	
626.75	5061.2	
626.94	5754.8	
627.13	4356.7	
627.32	3147	
627.51	5741.8	
627.7	7144	
627.89	3321.1	
628.08	4369.7	
628.27	4983.4	
628.46	5253	
628.65	3583.3	
628.83	3291.8	
629.02	5758.2	
629.21	5098.1	
629.4	4001.7	
629.59	4199	
629.78	4991.6	
629.97	5973.9	
630.16	4215.4	
630.35	3693.2	
630.54	6337.1	
630.72	6096.8	
630.91	3662.5	
631.1	4278.2	
631.29	5574.6	
631.48	5682.4	
631.67	4378.6	
631.86	3775.1	
632.05	5152.7	
632.24	5304.2	
632.42	3521.1	
632.61	4138.9	
632.8	5420.3	
632.99	4975.2	
633.18	4058.4	
633.37	4541	
633.56	5554.8	
633.75	5397.1	
633.93	4074.8	
634.12	3743.7	
634.31	6375.3	
634.5	5951.4	
634.69	3767.6	
634.88	4307.6	
635.07	5353.4	
635.25	5935	
635.44	4691.9	
635.63	4899.4	
635.82	5231.2	
636.01	4777.9	
636.2	4661.2	
636.39	4215.4	
636.57	6371.9	
636.76	6016.2	
636.95	3647.4	
637.14	4992.9	
637.33	5714.5	
637.52	6570.6	
637.7	3474.7	
637.89	4379.2	
638.08	5251.7	
638.27	6752.8	
638.46	4429.1	
638.65	4988.2	
638.83	6772.6	
639.02	5165	
639.21	4437.3	
639.4	4912.4	
639.59	5657.2	
639.78	5262.6	
639.96	3721.2	
640.15	3848.1	
640.34	5527.5	
640.53	5748.6	
640.72	3488.4	
640.91	3800.3	
641.09	5029.1	
641.28	6338.5	
641.47	3852.2	
641.66	4691.2	
641.85	5674.9	
642.03	5945.3	
642.22	4434.5	
642.41	4008.6	
642.6	5105.6	
642.79	4656.4	
642.97	3827	
643.16	4474.8	
643.35	5171.8	
643.54	5052.3	
643.73	3764.8	
643.91	4541	
644.1	4972.5	
644.29	5516.5	
644.48	3947.8	
644.67	3959.4	
644.85	5183.4	
645.04	5502.9	
645.23	3600.3	
645.42	3863.8	
645.6	5124.7	
645.79	6293.4	
645.98	3916.4	
646.17	3112.2	
646.36	4990.9	
646.54	5670.1	
646.73	4835.9	
646.92	3718.4	
647.11	5245.5	
647.29	6355.5	
647.48	3777.8	
647.67	3596.9	
647.86	6586.3	
648.05	6554.2	
648.23	4113.7	
648.42	5410.1	
648.61	5895.4	
648.8	5664	
648.98	3753.2	
649.17	4095.3	
649.36	5266	
649.55	4765.6	
649.73	3831.7	
649.92	4526	
650.11	5190.2	
650.3	5537	
650.48	3964.2	
650.67	3749.1	
650.86	5844.9	
651.05	4780.6	
651.23	3885	
651.42	3824.2	
651.61	5343.2	
651.79	5468.1	
651.98	4119.1	
652.17	3752.6	
652.36	5776	
652.54	4885.8	
652.73	3865.2	
652.92	3595.6	
653.11	5831.9	
653.29	5934.3	
653.48	3200.3	
653.67	4159.4	
653.85	5626.5	
654.04	6746.7	
654.23	4448.2	
654.42	3984	
654.6	5315.2	
654.79	6001.9	
654.98	3581.9	
655.16	4162.8	
655.35	5016.2	
655.54	4889.9	
655.73	3681.6	
655.91	3657	
656.1	6019.7	
656.29	4855.1	
656.47	3206.4	
656.66	4879.6	
656.85	5171.1	
657.03	5148.6	
657.22	3638.6	
657.41	3765.5	
657.59	5152	
657.78	4964.3	
657.97	3346.4	
658.16	4063.2	
658.34	5787.6	
658.53	6208.8	
658.72	4909	
658.9	5455.8	
659.09	5174.5	
659.28	5256.5	
659.46	3739.6	
659.65	3689.1	
659.84	5053.7	
660.02	5500.8	
660.21	3602.4	
660.4	3629.7	
660.58	6004	
660.77	5336.3	
660.96	4154	
661.14	3263.1	
661.33	6487.3	
661.52	6398.5	
661.7	3186.6	
661.89	6987.7	
662.08	5008	
662.26	4640	
662.45	3511.6	
662.64	3611.9	
662.82	5716.6	
663.01	4903.5	
663.2	3627	
663.38	4356.7	
663.57	5625.1	
663.75	5447.6	
663.94	3960.1	
664.13	5246.9	
664.31	4999.1	
664.5	5740.5	
664.69	4351.9	
664.87	4748.6	
665.06	4824.3	
665.25	5538.4	
665.43	5001.1	
665.62	5087.8	
665.8	5825.8	
665.99	5156.1	
666.18	4004.5	
666.36	4119.1	
666.55	5828.5	
666.74	5705.6	
666.92	3633.1	
667.11	5366.4	
667.29	5205.3	
667.48	5741.8	
667.67	4883.7	
667.85	4035.2	
668.04	5241.4	
668.22	5207.3	
668.41	4135.5	
668.6	4242.7	
668.78	5027.8	
668.97	5266	
669.15	4430.4	
669.34	3450.1	
669.53	5032.5	
669.71	5380	
669.9	3627	
670.08	4205.8	
670.27	5016.2	
670.46	5652.4	
670.64	4516.5	
670.83	4672.8	
671.01	4949.9	
671.2	5614.8	
671.38	3667.2	
671.57	3613.3	
671.76	6178.7	
671.94	6685.3	
672.13	3507.5	
672.31	4672.8	
672.5	5705	
672.69	5025.7	
672.87	3686.3	
673.06	4011.3	
673.24	5619.6	
673.43	5139	
673.61	4409.3	
673.8	4003.1	
673.98	5711.8	
674.17	5957.5	
674.36	4575.8	
674.54	4483	
674.73	5535.7	
674.91	5699.5	
675.1	4074.1	
675.28	3799.7	
675.47	5335.6	
675.65	5864	
675.84	3973.1	
676.03	4358.8	
676.21	5090.6	
676.4	4616.8	
676.58	4807.3	
676.77	4472.1	
676.95	6544.6	
677.14	5072.1	
677.32	3681.6	
677.51	3524.6	
677.69	5821.7	
677.88	4820.2	
678.06	3526.6	
678.25	3674.1	
678.44	5267.4	
678.62	5128.1	
678.81	3424.2	
678.99	4300.7	
679.18	6167.1	
679.36	5705.6	
679.55	3902.7	
679.73	4599.7	
679.92	5644.9	
680.1	5096	
680.29	5162.9	
680.47	3979.9	
680.66	5070.8	
680.84	5864	
681.03	3309.5	
681.21	4377.2	
681.4	5085.1	
681.58	5047.6	
681.77	3734.1	
681.95	3709.6	
682.14	5944.6	
682.32	6254.5	
682.51	4592.2	
682.69	3492.5	
682.88	5059.2	
683.06	5698.1	
683.25	4301.4	
683.43	4866	
683.62	5312.4	
683.8	5756.8	
683.99	4890.5	
684.17	4287.1	
684.36	6636.1	
684.54	5388.9	
684.73	3569.6	
684.91	3758	
685.1	5784.1	
685.28	5237.3	
685.46	4416.1	
685.65	4539	
685.83	6099.5	
686.02	5493.3	
686.2	3981.9	
686.39	4083	
686.57	5068	
686.76	6762.4	
686.94	3925.3	
687.13	4004.5	
687.31	5864.7	
687.5	5438	
687.68	3531.4	
687.86	4726	
688.05	7122.2	
688.23	4891.9	
688.42	4814.8	
688.6	3913.7	
688.79	5238	
688.97	5264	
689.16	4279.6	
689.34	3316.3	
689.52	5976.7	
689.71	6154.8	
689.89	4567	
690.08	3879.5	
690.26	5493.3	
690.45	5322.7	
690.63	4773.8	
690.81	4022.2	
691	5307	
691.18	5164.3	
691.37	4206.5	
691.55	6449.7	
691.74	5184.8	
691.92	7192.5	
692.1	4222.9	
692.29	3616	
692.47	5399.8	
692.66	4797.7	
692.84	3858.4	
693.02	4528.7	
693.21	4772.4	
693.39	5351.3	
693.58	4437.3	
693.76	3844	
693.94	6494.1	
694.13	6188.3	
694.31	3887	
694.5	4803.2	
694.68	5072.8	
694.86	5340.4	
695.05	4089.1	
695.23	4518.5	
695.42	5672.2	
695.6	8137.9	
695.78	4711	
695.97	3833.1	
696.15	5738.4	
696.34	5161.6	
696.52	3645.4	
696.7	4508.9	
696.89	5562.3	
697.07	4997	
697.25	4394.9	
697.44	5950.7	
697.62	5536.3	
697.81	5933.6	
697.99	4123.9	
698.17	4577.9	
698.36	4927.4	
698.54	5581.4	
698.72	4407.2	
698.91	3466.5	
699.09	5147.9	
699.28	5073.5	
699.46	4126	
699.64	4009.2	
699.83	5060.5	
700.01	6210.1	
700.19	4796.3	
700.38	3229	
700.56	6249.7	
700.74	5045.5	
700.93	3611.9	
701.11	4371.7	
701.29	5571.2	
701.48	6625.2	
701.66	3803.1	
701.84	3865.9	
702.03	5091.9	
702.21	5728.2	
702.39	3411.9	
702.58	3929.4	
702.76	5498.1	
702.94	5606.7	
703.13	3393.5	
703.31	5821	
703.49	4838	
703.68	5788.9	
703.86	3571	
704.04	4516.5	
704.23	5347.9	
704.41	5685.2	
704.59	3756.7	
704.78	4974.5	
704.96	6354.2	
705.14	5871.5	
705.33	3476.1	
705.51	4345.8	
705.69	5162.9	
705.87	6019.7	
706.06	4564.9	
706.24	3497.9	
706.42	5510.4	
706.61	5734.3	
706.79	4668.7	
706.97	3519.1	
707.16	5004.6	
707.34	5520.6	
707.52	4635.9	
707.7	3738.2	
707.89	5072.1	
708.07	4786.1	
708.25	4663.9	
708.44	4695.3	
708.62	5102.9	
708.8	6265.4	
708.98	4891.2	
709.17	3784	
709.35	5416.2	
709.53	5481.7	
709.72	3541.6	
709.9	3759.4	
710.08	5710.4	
710.26	5756.2	
710.45	5190.2	
710.63	3839.9	
710.81	5439.4	
710.99	5479.7	
711.18	4496	
711.36	4042.7	
711.54	5291.3	
711.72	6013.5	
711.91	4148.5	
712.09	3670.6	
712.27	5440.8	
712.45	6121.4	
712.64	4543.1	
712.82	3510.2	
713	5067.4	
713.18	5253.7	
713.37	3689.8	
713.55	5038.7	
713.73	6253.1	
713.91	4857.1	
714.1	4284.4	
714.28	3851.5	
714.46	6096.1	
714.64	5310.4	
714.83	3424.9	
715.01	4227.7	
715.19	5542.5	
715.37	4978.6	
715.55	4035.9	
715.74	4398.4	
715.92	6511.9	
716.1	4536.9	
716.28	5559.6	
716.47	4573.1	
716.65	5270.1	
716.83	5312.4	
717.01	4420.2	
717.19	4502.8	
717.38	7524.9	
717.56	4992.9	
717.74	4655	
717.92	3736.2	
718.1	6143.2	
718.29	5314.5	
718.47	3312.9	
718.65	3918.4	
718.83	5924.8	
719.01	5776.6	
719.2	3095.2	
719.38	4142.4	
719.56	5509.7	
719.74	7082.6	
719.92	3693.2	
720.11	4915.1	
720.29	5622.4	
720.47	4823.6	
720.65	3427.6	
720.83	4299.4	
721.02	5260.5	
721.2	5056.4	
721.38	4466.6	
721.56	3728.7	
721.74	4573.1	
721.92	4846.9	
722.11	4920.6	
722.29	4674.1	
722.47	6060.6	
722.65	5225.7	
722.83	3766.2	
723.01	4721.3	
723.2	5272.8	
723.38	5525.4	
723.56	3206.4	
723.74	4347.2	
723.92	4827.7	
724.1	5975.3	
724.29	3696.6	
724.47	4850.3	
724.65	4889.2	
724.83	4829.8	
725.01	3563.5	
725.19	4548.5	
725.37	4892.6	
725.56	4952.7	
725.74	3467.2	
725.92	3699.3	
726.1	4809.3	
726.28	5126.7	
726.46	4140.3	
726.64	3854.3	
726.83	5131.5	
727.01	5366.4	
727.19	3490.4	
727.37	4229.7	
727.55	5257.8	
727.73	5723.4	
727.91	3429	
728.09	3323.9	
728.28	5764.3	
728.46	6339.1	
728.64	4330.1	
728.82	4317.1	
729	6799.9	
729.18	5966.4	
729.36	3430.3	
729.54	5871.5	
729.72	6982.2	
729.91	5160.2	
730.09	5345.2	
730.27	3979.2	
730.45	5072.1	
730.63	5722.7	
730.81	4668	
730.99	3652.2	
731.17	6217.6	
731.35	4851.6	
731.53	4158.7	
731.71	3839.3	
731.9	5920	
732.08	6213.5	
732.26	4154.6	
732.44	3799	
732.62	6234	
732.8	5683.1	
732.98	4515.8	
733.16	3576.4	
733.34	5766.4	
733.52	4514.4	
733.7	4147.8	
733.88	4403.1	
734.07	5522.7	
734.25	5315.2	
734.43	3553.2	
734.61	5107	
734.79	6843.6	
734.97	5189.6	
735.15	3696.6	
735.33	4010.6	
735.51	5537	
735.69	5171.8	
735.87	5180.7	
736.05	4298.7	
736.23	5373.9	
736.41	5195.7	
736.59	4075.5	
736.77	4221.5	
736.95	5834	
737.13	5304.9	
737.32	3803.1	
737.5	3939.6	
737.68	6382.2	
737.86	5124.7	
738.04	3506.1	
738.22	5532.2	
738.4	4991.6	
738.58	5333.6	
738.76	4212.7	
738.94	3190.1	
739.12	5109.7	
739.3	4977.9	
739.48	4771.1	
739.66	4496	
739.84	5356.1	
740.02	5340.4	
740.2	3339.6	
740.38	3620.8	
740.56	5694.7	
740.74	4664.6	
740.92	4263.2	
741.1	4257	
741.28	5202.5	
741.46	5053.7	
741.64	3829.7	
741.82	4432.5	
742	5308.3	
742.18	5240.1	
742.36	4086.4	
742.54	3685.7	
742.72	5877.7	
742.9	4593.6	
743.08	4450.9	
743.26	3304.7	
743.44	6130.9	
743.62	5890	
743.8	4683.7	
743.98	3734.8	
744.16	5580	
744.34	5350.7	
744.52	4595	
744.7	4517.1	
744.88	5829.9	
745.06	5341.8	
745.24	4640	
745.42	4767	
745.6	5909.1	
745.78	5648.3	
745.96	3583.9	
746.14	3872	
746.32	6718.7	
746.5	5984.8	
746.68	4414.7	
746.86	3876.8	
747.03	6382.8	
747.21	4815.5	
747.39	4441.4	
747.57	3915	
747.75	5615.5	
747.93	6042.9	
748.11	3885.7	
748.29	3787.4	
748.47	7124.2	
748.65	5329.5	
748.83	4628.4	
749.01	4307.6	
749.19	5806	
749.37	5002.5	
749.55	4264.6	
749.73	4338.3	
749.91	5498.1	
750.09	5197.7	
750.26	4384.7	
750.44	3745.1	
750.62	5481.7	
750.8	5474.2	
750.98	3594.2	
751.16	3972.4	
751.34	5524.7	
751.52	4911	
751.7	4716.5	
751.88	3644	
752.06	6036	
752.24	5855.8	
752.42	3573.7	
752.59	3977.2	
752.77	5457.2	
752.95	6765.8	
753.13	4655.7	
753.31	4060.4	
753.49	5104.2	
753.67	5655.8	
753.85	4431.1	
754.03	4003.1	
754.21	5927.5	
754.38	6326.9	
754.56	4194.9	
754.74	3313.6	
754.92	5329.5	
755.1	6031.3	
755.28	3423.5	
755.46	3562.8	
755.64	7002.7	
755.82	7144.7	
755.99	3979.9	
756.17	4165.6	
756.35	4820.9	
756.53	6424.5	
756.71	3142.9	
756.89	4121.9	
757.07	5999.9	
757.25	5016.8	
757.42	4541	
757.6	5389.6	
757.78	5897.5	
757.96	4906.3	
758.14	4140.3	
758.32	3694.5	
758.5	4504.2	
758.67	5281	
758.85	4138.9	
759.03	4156	
759.21	5478.3	
759.39	4942.4	
759.57	3598.3	
759.75	4750.6	
759.92	6149.4	
760.1	5371.1	
760.28	5111.7	
760.46	5243.5	
760.64	5166.3	
760.82	4902.2	
760.99	4874.2	
761.17	3984	
761.35	5909.8	
761.53	4885.8	
761.71	4066.6	
761.89	4789.5	
762.06	5749.3	
762.24	5205.9	
762.42	4154	
762.6	3882.9	
762.78	5242.8	
762.96	5876.3	
763.13	4469.4	
763.31	4103.4	
763.49	6023.1	
763.67	5126.1	
763.85	4915.1	
764.02	5565.7	
764.2	6247.7	
764.38	5419.6	
764.56	3997.6	
764.74	4962.9	
764.91	6360.3	
765.09	5277.6	
765.27	3741	
765.45	3501.3	
765.63	6386.2	
765.8	6324.8	
765.98	3269.9	
766.16	3614	
766.34	4887.1	
766.52	4720.6	
766.69	4606.6	
766.87	3514.3	
767.05	5349.3	
767.23	6032.6	
767.41	3765.5	
767.58	4087.7	
767.76	5898.8	
767.94	5986.9	
768.12	3885	
768.29	4715.1	
768.47	5424.4	
768.65	6147.3	
768.83	3568.9	
769	4724	
769.18	4960.9	
769.36	5745.2	
769.54	4558.1	
769.72	3592.8	
769.89	6011.5	
770.07	6145.3	
770.25	3981.3	
770.43	5309	
770.6	6834.8	
770.78	7238.2	
770.96	4208.6	
771.14	4802.5	
771.31	5955.5	
771.49	5300.1	
771.67	3338.2	
771.85	3681.6	
772.02	4622.3	
772.2	5363.6	
772.38	4380.6	
772.55	3895.9	
772.73	5594.4	
772.91	5388.9	
773.09	4289.1	
773.26	4277.5	
773.44	5640.1	
773.62	5352.7	
773.8	3786.7	
773.97	3567.6	
774.15	5675.6	
774.33	5288.5	
774.5	3755.3	
774.68	4146.5	
774.86	5874.3	
775.04	5350	
775.21	3826.3	
775.39	3809.9	
775.57	5638.1	
775.74	6042.9	
775.92	3626.3	
776.1	3574.4	
776.27	5656.5	
776.45	6904.4	
776.63	3826.3	
776.81	3355.9	
776.98	5272.2	
777.16	6444.3	
777.34	4013.3	
777.51	4304.8	
777.69	5268.7	
777.87	5032.5	
778.04	4045.4	
778.22	4703.5	
778.4	5096.7	
778.57	5821	
778.75	3347.7	
778.93	3644.7	
779.1	4949.9	
779.28	4831.8	
779.46	3368.2	
779.64	3831.7	
779.81	5966.4	
779.99	6836.1	
780.17	4655.7	
780.34	4870.8	
780.52	5405.3	
780.69	5652.4	
780.87	4192.9	
781.05	3751.2	
781.22	5432.6	
781.4	5576.6	
781.58	3910.9	
781.75	3118.4	
781.93	5562.3	
782.11	4966.3	
782.28	4820.9	
782.46	3893.9	
782.64	4775.2	
782.81	5784.1	
782.99	3977.2	
783.17	3977.2	
783.34	5653.1	
783.52	4874.2	
783.69	4230.4	
783.87	5115.1	
784.05	4927.4	
784.22	4965	
784.4	5059.2	
784.58	4319.2	
784.75	5943.9	
784.93	5023	
785.1	3998.3	
785.28	4652.3	
785.46	5653.8	
785.63	4974.5	
785.81	3966.2	
785.99	3818.1	
786.16	5152	
786.34	5465.3	
786.51	3824.2	
786.69	4247.5	
786.87	4713.1	
787.04	5278.3	
787.22	3751.9	
787.39	4742.4	
787.57	4943.8	
787.75	6101.6	
787.92	4854.4	
788.1	4829.8	
788.27	5021.6	
788.45	4801.1	
788.63	4478.2	
788.8	3261	
788.98	5369.1	
789.15	4734.9	
789.33	3379.1	
789.5	4014	
789.68	5971.9	
789.86	6051.7	
790.03	4560.8	
790.21	3869.3	
790.38	5945.9	
790.56	5126.1	
790.73	3756.7	
790.91	3800.3	
791.09	5040.7	
791.26	5765	
791.44	4009.9	
791.61	3380.5	
791.79	4995	
791.96	5110.4	
792.14	3648.8	
792.32	3174.4	
792.49	5007.3	
792.67	5130.2	
792.84	3667.9	
793.02	3474.7	
793.19	5636.7	
793.37	6281.1	
793.54	3189.4	
793.72	3566.9	
793.89	6447.7	
794.07	5111.7	
794.25	4168.3	
794.42	3255.6	
794.6	6165.1	
794.77	5773.9	
794.95	4445.5	
795.12	3820.8	
795.3	5002.5	
795.47	5653.1	
795.65	4224.3	
795.82	4069.3	
796	4831.8	
796.17	6795.8	
796.35	3959.4	
796.52	4693.9	
796.7	5655.1	
796.87	5747.3	
797.05	4907.6	
797.22	4823.6	
797.4	5628.5	
797.57	6726.9	
797.75	4091.8	
797.92	3805.8	
798.1	5928.9	
798.27	5063.3	
798.45	3269.9	
798.62	3538.2	
798.8	5374.6	
798.97	5896.1	
799.15	4391.5	
799.32	4144.4	
799.5	4571.7	
799.67	5397.1	
799.85	4470.7	
800.02	3147	
800.2	5018.2	
800.37	5338.4	
800.55	4639.3	
800.72	3894.6	
800.9	5821	
801.07	6354.8	
801.25	5272.8	
801.42	4289.1	
801.6	5883.1	
801.77	5650.3	
801.95	3752.6	
802.12	3801	
802.29	5584.1	
802.47	5562.3	
802.64	4229.1	
802.82	3173	
802.99	4974.5	
803.17	6057.2	
803.34	4158.7	
803.52	3713	
803.69	6771.3	
803.87	4817.5	
804.04	4065.9	
804.21	4231.8	
804.39	6150.7	
804.56	5233.2	
804.74	3468.6	
804.91	4298.7	
805.09	5102.2	
805.26	5199.8	
805.44	3591.5	
805.61	3891.8	
805.78	5694.7	
805.96	5763	
806.13	4272.7	
806.31	4622.9	
806.48	4614.1	
806.66	5193	
806.83	4222.9	
807	4201.7	
807.18	5098.8	
807.35	5397.1	
807.53	4164.9	
807.7	3309.5	
807.87	6311.2	
808.05	5098.1	
808.22	4663.9	
808.4	3373.7	
808.57	5100.1	
808.74	4751.3	
808.92	3804.4	
809.09	4921.3	
809.27	4965.6	
809.44	5629.2	
809.61	3368.9	
809.79	3714.3	
809.96	6268.1	
810.14	5855.8	
810.31	3207.1	
810.48	4013.3	
810.66	5172.5	
810.83	5965.7	
811.01	3821.5	
811.18	4533.5	
811.35	5874.9	
811.53	4555.4	
811.7	4668.7	
811.87	4317.8	
812.05	5080.3	
812.22	5033.2	
812.39	3697.9	
812.57	3573.7	
812.74	5117.9	
812.92	6827.9	
813.09	3985.3	
813.26	4529.4	
813.44	6483.2	
813.61	5040.1	
813.78	3293.1	
813.96	4500.1	
814.13	5184.1	
814.3	4804.5	
814.48	4847.5	
814.65	4018.8	
814.82	6372.6	
815	4887.1	
815.17	4102.1	
815.34	5067.4	
815.52	5027.1	
815.69	5020.3	
815.87	4119.8	
816.04	3536.2	
816.21	5181.4	
816.38	4502.8	
816.56	3956	
816.73	3737.5	
816.9	6492.1	
817.08	5931.6	
817.25	3736.2	
817.42	4773.8	
817.6	4680.3	
817.77	5096.7	
817.94	4207.9	
818.12	3743	
818.29	4873.5	
818.46	7694.9	
818.64	3852.2	
818.81	3597.6	
818.98	4805.2	
819.16	6965.8	
819.33	4425.7	
819.5	4060.4	
819.67	5500.8	
819.85	6213.5	
820.02	4081.6	
820.19	4357.4	
820.37	5397.8	
820.54	4911	
820.71	4198.3	
820.88	5309.7	
821.06	5319.3	
821.23	4893.3	
821.4	4235.9	
821.58	4177.2	
821.75	5939.1	
821.92	5284.4	
822.09	3323.9	
822.27	3479.5	
822.44	5138.4	
822.61	5027.8	
822.79	3386.7	
822.96	6571.2	
823.13	5604.6	
823.3	4878.3	
823.48	3898.6	
823.65	3543	
823.82	5800.5	
823.99	4696	
824.17	4940.4	
824.34	3594.9	
824.51	6799.3	
824.68	5197.1	
824.86	3775.8	
825.03	4247.5	
825.2	5134.9	
825.37	6233.3	
825.55	3691.8	
825.72	4134.2	
825.89	6924.2	
826.06	6363	
826.24	4074.8	
826.41	4075.5	
826.58	6272.2	
826.75	5427.1	
826.92	3179.1	
827.1	3570.3	
827.27	8544.1	
827.44	6883.9	
827.61	3831.7	
827.79	4650.9	
827.96	4860.5	
828.13	5237.3	
828.3	4026.3	
828.47	3364.8	
828.65	5341.8	
828.82	5323.4	
828.99	5197.7	
829.16	4582.7	
829.34	5754.1	
829.51	5517.2	
829.68	4153.3	
829.85	4379.9	
830.02	6031.3	
830.2	5791.7	
830.37	3147	
830.54	4990.2	
830.71	6557.6	
830.88	5110.4	
831.05	3285.6	
831.23	3779.9	
831.4	6374.6	
831.57	7075	
831.74	3862.5	
831.91	3453.6	
832.09	5365	
832.26	5724.1	
832.43	3989.4	
832.6	4538.3	
832.77	5367	
832.94	6085.2	
833.12	3158.7	
833.29	3870.7	
833.46	5605.3	
833.63	7339.9	
833.8	4338.3	
833.97	3952.6	
834.15	5776.6	
834.32	5503.6	
834.49	4123.9	
834.66	4276.2	
834.83	5944.6	
835	4805.2	
835.17	3794.9	
835.35	3812.6	
835.52	5722	
835.69	5548.6	
835.86	4001	
836.03	3314.3	
836.2	5675.6	
836.37	5279.7	
836.55	3988.8	
836.72	3759.4	
836.89	5298.8	
837.06	5795.1	
837.23	4077.5	
837.4	4509.6	
837.57	6655.2	
837.75	7292.8	
837.92	3639.9	
838.09	3920.5	
838.26	5330.9	
838.43	6040.1	
838.6	4222.9	
838.77	3731.4	
838.94	6927.6	
839.11	6609.5	
839.29	4035.2	
839.46	3133.4	
839.63	5729.5	
839.8	5492	
839.97	3888.4	
840.14	3897.3	
840.31	5493.3	
840.48	5731.6	
840.65	3195.5	
840.82	3863.2	
841	5747.3	
841.17	5653.1	
841.34	3488.4	
841.51	3589.4	
841.68	5643.5	
841.85	5421	
842.02	3745.7	
842.19	3085.6	
842.36	5463.3	
842.53	5507.7	
842.7	3548.4	
842.87	4318.5	
843.05	7281.2	
843.22	5360.2	
843.39	3377.1	
843.56	3607.8	
843.73	5176.6	
843.9	5813.5	
844.07	5838.1	
844.24	4827.1	
844.41	8531.8	
844.58	4959.5	
844.75	3409.9	
844.92	3708.9	
845.09	5773.9	
845.26	5720	
845.43	3524.6	
845.6	3755.3	
845.77	5771.9	
845.94	5420.3	
846.12	3936.2	
846.29	4141.7	
846.46	5952.1	
846.63	5748	
846.8	3542.3	
846.97	4248.2	
847.14	6243.6	
847.31	5665.4	
847.48	3999	
847.65	4427.7	
847.82	6047.7	
847.99	5962.3	
848.16	4795	
848.33	4442.7	
848.5	5251.7	
848.67	6273.6	
848.84	3566.9	
849.01	3707.5	
849.18	5134.3	
849.35	4846.2	
849.52	4441.4	
849.69	3501.3	
849.86	5915.2	
850.03	6206	
850.2	3549.1	
850.37	4373.1	
850.54	6102.3	
850.71	5421	
850.88	4246.1	
851.05	3504.8	
851.22	5679	
851.39	6324.1	
851.56	3403.7	
851.73	4066.6	
851.9	4962.9	
852.07	5973.2	
852.24	3901.4	
852.41	3436.5	
852.58	5577.3	
852.75	5098.1	
852.92	3958.7	
853.09	3467.9	
853.26	5340.4	
853.43	6266.1	
853.6	3583.3	
853.77	3019.4	
853.94	6343.2	
854.11	5015.5	
854.28	5290.6	
854.44	3823.6	
854.61	6780.1	
854.78	5835.3	
854.95	3485.6	
855.12	4496.7	
855.29	4615.4	
855.46	6363.7	
855.63	3529.3	
855.8	4961.5	
855.97	5287.2	
856.14	6073.6	
856.31	5083.7	
856.48	3880.9	
856.65	5291.3	
856.82	5014.8	
856.99	3421.5	
857.16	3814	
857.33	7032.7	
857.49	5380	
857.66	3806.5	
857.83	4130.8	
858	5348.6	
858.17	5485.1	
858.34	3368.2	
858.51	3525.2	
858.68	6510.5	
858.85	6517.3	
859.02	4152.6	
859.19	4417.5	
859.36	4974.5	
859.52	5059.8	
859.69	3581.2	
859.86	4165.6	
860.03	5084.4	
860.2	6277	
860.37	3190.7	
860.54	3633.1	
860.71	6006.7	
860.88	6430.6	
861.05	3962.1	
861.21	4480.3	
861.38	6495.5	
861.55	4898.1	
861.72	3239.2	
861.89	3926	
862.06	6042.9	
862.23	6525.5	
862.4	3465.8	
862.56	3702	
862.73	5865.4	
862.9	5565	
863.07	4199.7	
863.24	3216.7	
863.41	4903.5	
863.58	5031.2	
863.75	3584.6	
863.91	4083	
864.08	6442.2	
864.25	5941.8	
864.42	4498	
864.59	4944.5	
864.76	6770.6	
864.93	5048.9	
865.09	3454.2	
865.26	3780.6	
865.43	6247.7	
865.6	6640.2	
865.77	3095.2	
865.94	3500.7	
866.1	6251.8	
866.27	6037.4	
866.44	5332.9	
866.61	3365.5	
866.78	5437.4	
866.95	5881.1	
867.11	3439.9	
867.28	3140.9	
867.45	6140.5	
867.62	5114.5	
867.79	4133.5	
867.96	3512.3	
868.12	5053.7	
868.29	6004	
868.46	3101.3	
868.63	4777.2	
868.8	6191.7	
868.97	5928.9	
869.13	3670	
869.3	3693.2	
869.47	5831.2	
869.64	6064.7	
869.81	3631	
869.97	3566.2	
870.14	5724.8	
870.31	6447	
870.48	3471.3	
870.65	4456.4	
870.81	5343.8	
870.98	5373.9	
871.15	4016.7	
871.32	3700.7	
871.48	5763	
871.65	6492.7	
871.82	3467.9	
871.99	3930.1	
872.16	7003.4	
872.32	6321.4	
872.49	3562.8	
872.66	3600.3	
872.83	6006.7	
872.99	5195	
873.16	4058.4	
873.33	3461.1	
873.5	5622.4	
873.67	5620.3	
873.83	3710.9	
874	4771.8	
874.17	5684.5	
874.34	6866.8	
874.5	4588.8	
874.67	4421.6	
874.84	6403.3	
875.01	5045.5	
875.17	5029.8	
875.34	3540.9	
875.51	5698.8	
875.68	6778.1	
875.84	4340.3	
876.01	5242.8	
876.18	5959.6	
876.34	5855.8	
876.51	3551.2	
876.68	3493.8	
876.85	5411.4	
877.01	6247	
877.18	5055.8	
877.35	3550.5	
877.52	5571.8	
877.68	4960.2	
877.85	3502.7	
878.02	3536.8	
878.18	5502.9	
878.35	5204.6	
878.52	2848.7	
878.69	3964.9	
878.85	5971.2	
879.02	5934.3	
879.19	5074.9	
879.35	3822.2	
879.52	5925.5	
879.69	6152.8	
879.86	3031	
880.02	3987.4	
880.19	5479	
880.36	6666.1	
880.52	4058.4	
880.69	4175.8	
880.86	5984.2	
881.02	6142.5	
881.19	3958.7	
881.36	3879.5	
881.52	5875.6	
881.69	5257.8	
881.86	3773.7	
882.02	3782.6	
882.19	6206.7	
882.36	7307.8	
882.52	3620.8	
882.69	5050.3	
882.86	5687.2	
883.02	5522.7	
883.19	4285	
883.36	4123.2	
883.52	6085.2	
883.69	6947.4	
883.86	3634.5	
884.02	3209.8	
884.19	6012.8	
884.36	5511.1	
884.52	4062.5	
884.69	3799.7	
884.86	5261.2	
885.02	6612.2	
885.19	4014	
885.36	4137.6	
885.52	5231.9	
885.69	5674.9	
885.86	5147.2	
886.02	4581.3	
886.19	6018.3	
886.35	5426.4	
886.52	3934.1	
886.69	4945.8	
886.85	5104.2	
887.02	6385.6	
887.19	6385.6	
887.35	6385.6	
887.52	6385.6	
887.68	6385.6	
887.85	6385.6	
888.02	6385.6	
888.18	6385.6	
888.35	6385.6	
888.51	6385.6	
888.68	6385.6	
888.85	6385.6	
889.01	6385.6	
889.18	6385.6	
889.35	6385.6	
889.51	6385.6	
889.68	6385.6	
889.84	6385.6	
890.01	6385.6	
890.17	6385.6	
890.34	6385.6	
890.51	6385.6	
890.67	6385.6	
890.84	6385.6	
891	6385.6	
891.17	6385.6	
891.34	6385.6	
891.5	6385.6	
891.67	6385.6	
891.83	6385.6	
892	6385.6	
892.16	6385.6	
892.33	6385.6	
892.5	6385.6	
892.66	6385.6	
892.83	6385.6	
892.99	6385.6	
893.16	6385.6	
893.32	6385.6	
893.49	6385.6	
893.65	6385.6	
893.82	6385.6	
893.99	6385.6	
894.15	6385.6	
894.32	6385.6	
894.48	6385.6	
894.65	6385.6	
894.81	6385.6	
894.98	6385.6	
895.14	6385.6	
895.31	6385.6	
895.47	6385.6	
895.64	6385.6	
895.81	6385.6	
895.97	6385.6	
896.14	6385.6	
896.3	6385.6	
896.47	6385.6	
896.63	6385.6	
896.8	6385.6	
896.96	6385.6	
897.13	6385.6	
897.29	6385.6	
897.46	6385.6	
897.62	6385.6	
897.79	6385.6	
897.95	6385.6	
898.12	6385.6	
898.28	6385.6	
898.45	6385.6	
898.61	6385.6	
898.78	6385.6	
898.94	6385.6	
899.11	6385.6	
899.27	6385.6	
899.44	6385.6	
899.6	6385.6	
899.77	6385.6	
899.93	6385.6	
900.1	6385.6	
900.26	6385.6	
900.43	6385.6	
900.59	6385.6	
900.76	6385.6	
900.92	6385.6	
901.09	6385.6	
901.25	6385.6	
901.42	6385.6	
901.58	6385.6	
901.75	6385.6	
901.91	6385.6	
902.07	6385.6	
902.24	6385.6	
902.4	6385.6	
902.57	6385.6	
902.73	6385.6	
902.9	6385.6	
903.06	6385.6	
903.23	6385.6	
903.39	6385.6	
903.56	6385.6	
903.72	6385.6	
903.88	6385.6	
904.05	6385.6	
904.21	6385.6	
904.38	6385.6	
904.54	6385.6	
904.71	6385.6	
904.87	6385.6	
905.03	6385.6	
905.2	6385.6	
905.36	6385.6	
905.53	6385.6	
905.69	6385.6	
905.86	6385.6	
906.02	6385.6	
906.18	6385.6	
906.35	6385.6	
906.51	6385.6	
906.68	6385.6	
906.84	6385.6	
907.01	6385.6	
907.17	6385.6	
907.33	6385.6	
907.5	6385.6	
907.66	6385.6	
907.83	6385.6	
907.99	6385.6	
908.15	6385.6	
908.32	6385.6	
908.48	6385.6	
908.65	6385.6	
908.81	6385.6	
908.97	6385.6	
909.14	6385.6	
909.3	6385.6	
909.47	6385.6	
909.63	6385.6	
909.79	6385.6	
909.96	6385.6	
910.12	6385.6	
910.28	6385.6	
910.45	6385.6	
910.61	6385.6	
910.78	6385.6	
910.94	6385.6	
911.1	6385.6	
911.27	6385.6	
911.43	6385.6	
911.59	6385.6	
911.76	6385.6	
911.92	6385.6	
912.08	6385.6	
912.25	6385.6	
912.41	6385.6	
912.57	6385.6	
912.74	6385.6	
912.9	6385.6	
913.07	6385.6	
913.23	6385.6	
913.39	6385.6	
913.56	6385.6	
913.72	6385.6	
913.88	6385.6	
914.05	6385.6	
914.21	6385.6	
914.37	6385.6	
914.54	6385.6	
914.7	6385.6	
914.86	6385.6	
915.03	6385.6	
915.19	6385.6	
